 $NMID ID='MM_0lb_SNR800_12hz_g50_99.RAW', FMTDAT='(8E13.5)'
 TRAMP=1., VOLUME=1. $END
  3.09942E+05  3.70196E+02  3.37680E+05  2.50687E+05  8.50985E+04  3.38145E+05 -1.32220E+05  2.51356E+05
 -1.90495E+05  8.33274E+04 -1.12261E+05 -3.26364E+04  2.44907E+02 -5.07863E+04  5.37477E+04 -4.77989E+02
  3.52170E+04  5.26852E+04 -1.64375E+04  7.58516E+04 -6.11343E+04  6.38683E+04 -8.46515E+04  3.23585E+04
 -8.15230E+04 -1.18841E+04 -5.72824E+04 -5.16901E+04 -1.50144E+04 -7.01109E+04  2.75787E+04 -4.63665E+04
  4.04033E+04  3.87652E+03  1.63778E+04  4.81201E+04 -3.45530E+04  4.76601E+04 -6.72515E+04  1.06958E+02
 -5.41627E+04 -5.73488E+04 -6.86099E+03 -7.76115E+04  3.43414E+04 -5.58092E+04  4.87710E+04 -1.76796E+04
  4.41528E+04  1.14576E+04  3.21184E+04  2.59077E+04  1.60807E+04  2.99006E+04 -5.29353E+03  2.75681E+04
 -2.23261E+04  1.23507E+04 -1.84395E+04 -5.39455E+03  6.51217E+03 -7.42252E+03  2.29148E+04  1.27556E+04
  6.91048E+03  3.61839E+04 -3.29108E+04  3.55508E+04 -6.42221E+04  2.39503E+03 -5.76368E+04 -4.35338E+04
 -1.22569E+04 -6.45288E+04  4.03409E+04 -4.58847E+04  5.95116E+04 -2.16305E+03  3.49182E+04  3.32988E+04
 -6.00941E+03  3.76554E+04 -3.07489E+04  1.72773E+04 -3.16483E+04 -4.35202E+03 -1.78392E+04 -1.14327E+04
 -8.81709E+03 -1.38593E+04 -7.87889E+02 -1.86078E+04  7.84675E+03 -2.28120E+04  1.54576E+04 -1.30422E+04
  1.10212E+04  6.00860E+03 -9.45912E+03  1.31623E+04 -2.22296E+04 -5.13639E+03 -8.70317E+03 -3.53784E+04
  2.35307E+04 -4.47374E+04  4.97159E+04 -1.99503E+04  4.65236E+04  1.99387E+04  1.63311E+04  4.53799E+04
 -1.62993E+04  3.47162E+04 -2.63284E+04  1.94972E+03 -1.07279E+04 -2.86304E+04  2.13872E+04 -3.47912E+04
  4.23573E+04 -9.73558E+03  3.75967E+04  2.41529E+04  1.89683E+04  4.80311E+04 -7.95821E+03  5.25225E+04
 -3.29456E+04  3.55199E+04 -4.39166E+04  9.82178E+03 -4.47102E+04 -1.76845E+04 -2.46302E+04 -3.95442E+04
  7.32957E+03 -3.95571E+04  3.28969E+04 -1.56874E+04  3.05417E+04  1.11979E+04  4.44448E+03  1.93327E+04
 -1.35820E+04  8.70211E+03 -1.05163E+04 -7.53966E+03  5.49284E+03 -1.12291E+04  1.79852E+04  5.97474E+03
  1.37144E+04  2.21859E+04 -5.50305E+03  2.61684E+04 -2.27221E+04  1.23407E+04 -2.95404E+04 -4.22071E+03
 -2.23482E+04 -1.79668E+04 -9.85070E+03 -2.21885E+04  4.02116E+03 -2.20342E+04  1.69370E+04 -2.02985E+04
  2.87837E+04 -1.33559E+04  3.48470E+04  3.71791E+03  2.48995E+04  2.15357E+04  4.11987E+03  3.82700E+04
 -1.87146E+04  3.18429E+04 -2.90156E+04  1.12551E+04 -2.12998E+04 -9.99856E+03 -4.79240E+03 -1.33407E+04
  1.52204E+03 -2.32904E+03 -6.19205E+03  7.24315E+03 -1.75327E+04  5.31526E+03 -1.79664E+04 -8.10185E+03
 -1.06859E+04 -2.06459E+04  5.72702E+03 -2.49095E+04  1.64339E+04 -1.80739E+04  1.96254E+04 -1.97509E+03
  1.30593E+04  1.42855E+04 -1.18354E+03  2.06245E+04 -1.42027E+04  1.18376E+04 -2.08382E+04 -4.63896E+03
 -1.52771E+04 -1.91920E+04 -1.92273E+03 -2.50016E+04  1.10622E+04 -2.03074E+04  2.06617E+04 -1.07053E+04
  1.93649E+04 -4.85710E+01  1.46664E+04  4.67040E+03  7.34345E+03  1.06027E+03  1.07057E+04 -1.99376E+03
  1.91880E+04  2.83846E+03  2.15007E+04  1.63129E+04  1.46054E+04  3.31211E+04 -2.70034E+03  3.80214E+04
 -2.20634E+04  3.10874E+04 -3.56017E+04  1.61779E+04 -3.76562E+04 -2.75604E+03 -3.10049E+04 -2.17057E+04
 -1.29575E+04 -3.15559E+04  1.10409E+04 -2.79640E+04  2.37621E+04 -1.39930E+04  2.08621E+04  6.69995E+03
  7.46835E+03  1.58792E+04 -9.90839E+03  1.37547E+04 -1.76109E+04  2.63174E+03 -1.38498E+04 -1.11353E+04
 -2.08637E+02 -1.66587E+04  8.91065E+03 -1.25287E+04  1.16597E+04 -1.21905E+03  2.76282E+03  7.38471E+03
 -7.75284E+03  3.09744E+03 -7.09710E+03 -5.99896E+03 -9.07281E+02 -1.51950E+04  1.02956E+04 -1.65015E+04
  1.92395E+04 -8.93255E+03  2.08757E+04  3.26083E+03  1.85205E+04  1.52792E+04  8.56275E+03  2.39513E+04
 -4.27307E+03  2.56398E+04 -1.68574E+04  1.59607E+04 -1.85433E+04  3.56786E+03 -1.28509E+04 -4.57654E+03
 -5.85221E+03 -6.02437E+03 -8.67449E+02  9.64087E+02 -2.47096E+03  2.72840E+03 -5.95969E+03  4.70908E+03
 -1.21856E+04 -7.30417E+02 -1.22264E+04 -1.02201E+04 -5.10574E+03 -1.64468E+04  5.27696E+03 -1.30844E+04
  1.07597E+04 -5.80145E+03  7.83611E+03  3.78361E+03 -6.08917E+01  5.12482E+03 -6.35931E+03 -4.47883E+02
 -6.08139E+03 -8.40822E+03 -8.16046E+02 -1.22269E+04  7.01539E+03 -1.31482E+04  1.64096E+04 -7.08784E+03
  1.94263E+04  2.05386E+03  1.42642E+04  1.14124E+04  2.95968E+03  1.51053E+04 -7.55677E+03  1.28189E+04
 -1.04536E+04  4.21881E+03 -5.70120E+03 -2.71089E+03  1.90738E+03 -3.56002E+03  6.95576E+03 -1.05487E+03
  5.95976E+03  5.59854E+03  1.17148E+03  1.03360E+04 -7.23049E+03  9.72374E+03 -1.26443E+04  2.69667E+03
 -8.72239E+03 -6.63241E+03 -9.16072E+01 -1.09356E+04  6.79224E+03 -5.64388E+03  7.04076E+03  2.66950E+03
  1.32520E+03  7.67302E+03 -6.69034E+03  9.52892E+03 -1.03335E+04  3.86269E+03 -1.05188E+04 -3.60048E+03
 -6.11124E+03 -1.18505E+04  2.69881E+03 -1.40573E+04  1.20507E+04 -8.63812E+03  1.28419E+04  2.35171E+03
  7.92547E+03  1.00285E+04 -8.40167E+02  1.23047E+04 -9.23130E+03  7.06187E+03 -1.00056E+04 -8.61435E+02
 -8.61744E+03 -8.50962E+03 -1.42491E+03 -9.08644E+03  4.61324E+03 -7.89849E+03  6.01404E+03 -3.27073E+03
  4.52740E+03  1.43227E+03 -8.90992E+02  1.42192E+03 -2.27563E+02 -2.11226E+03  1.45349E+03 -5.09264E+03
  8.62129E+03 -3.17292E+03  1.20196E+04  1.43597E+03  1.17733E+04  8.04707E+03  8.56478E+03  1.53500E+04
 -3.42072E+03  1.76183E+04 -1.51072E+04  1.31046E+04 -1.93338E+04  2.29603E+03 -1.54043E+04 -6.61365E+03
 -7.96143E+03 -1.25820E+04 -3.06480E+02 -1.05741E+04  4.12663E+03 -5.54779E+03  4.08191E+03 -3.80465E+03
  2.59414E+03 -2.59429E+03  3.17819E+03 -3.08975E+03  4.67440E+03 -2.34694E+03  6.21776E+03 -7.84222E+02
  8.44152E+03  2.00682E+03  3.94509E+03  7.19830E+03 -1.98441E+03  7.90876E+03 -8.39240E+03  6.46867E+03
 -1.06918E+04 -1.23825E+03 -6.07604E+03 -7.46770E+03 -8.19088E+02 -1.14263E+04  6.43844E+03 -1.17338E+04
  1.15788E+04 -6.50284E+03  1.46178E+04  1.69659E+03  9.78888E+03  9.99430E+03  1.50068E+03  1.25079E+04
 -5.06403E+03  1.05405E+04 -7.49325E+03  3.79534E+03 -4.94704E+03 -1.59597E+03 -1.90614E+03 -1.24920E+03
 -7.75414E+02  3.89058E+02 -1.72418E+03  2.64033E+03 -4.65827E+03  1.72594E+03 -7.51728E+03 -1.01276E+03
 -5.16915E+03 -7.77281E+03  3.07758E+02 -1.06605E+04  6.17115E+03 -9.55193E+03  9.86825E+03 -3.17214E+03
  1.00075E+04  5.25900E+03  4.55188E+03  8.87532E+03 -2.28098E+03  1.00171E+04 -7.00667E+03  6.72503E+03
 -9.47549E+03  6.22978E+02 -7.25752E+03 -5.96219E+03 -5.28344E+02 -8.14370E+03  4.37568E+03 -6.48793E+03
  6.70107E+03 -2.64130E+03  4.51797E+03  1.88591E+03  1.76019E+03  3.29633E+03  1.05487E+03  1.50098E+03
  2.52017E+03  7.72966E+02  2.73275E+03  1.51105E+03  2.79341E+03  3.79322E+03  3.03459E+03  5.28061E+03
 -2.01728E+03  7.92598E+03 -6.89475E+03  8.57800E+03 -9.79569E+03  2.39669E+03 -1.06040E+04 -3.68803E+03
 -5.26967E+03 -1.00857E+04  1.40117E+03 -1.12792E+04  5.78208E+03 -7.03980E+03  8.27507E+03 -2.08242E+03
  6.63824E+03  3.86725E+03  1.45748E+03  6.06174E+03 -2.77306E+03  3.75575E+03 -4.24200E+03 -6.71464E+02
 -2.04243E+03 -3.99899E+03  2.60558E+03 -4.28870E+03  3.87435E+03 -2.46531E+03  4.07589E+03  7.86020E+02
  2.30567E+03  1.75628E+03  9.66629E+02  1.71187E+03 -4.98723E+02  1.56494E+03  1.45046E+03 -4.51820E+02
  1.48504E+03 -3.62940E+02  4.41606E+03  1.83795E+03  1.92364E+03  5.70554E+03 -1.13389E+03  6.90191E+03
 -4.67895E+03  4.05278E+03 -6.22894E+03  1.04682E+03 -5.55357E+03 -2.06306E+03 -1.89439E+03 -3.57204E+03
  9.33357E+02 -3.95730E+03  2.78160E+03 -1.74393E+03  1.98814E+03  2.17302E+03 -7.68452E+02  3.73234E+03
 -3.92943E+03  1.97335E+03 -4.24681E+03 -2.67625E+03 -2.59487E+03 -5.44074E+03  4.32971E+02 -5.53458E+03
  2.93007E+03 -2.70176E+03  3.71942E+03 -5.70480E+01  3.62687E+03  1.08032E+03  3.55895E+02  2.73323E+03
 -1.50253E+03  7.11781E+02 -2.19777E+03 -1.46193E+03  1.13041E+03 -3.74458E+03  4.45767E+03 -3.11823E+03
  5.65147E+03  4.05141E+02  6.30377E+03  3.90296E+03  1.93863E+03  6.19759E+03 -1.93163E+03  6.00190E+03
 -4.94712E+03  2.43709E+03 -5.35374E+03 -6.17191E+02 -2.61933E+03 -4.24954E+03  5.94024E+02 -3.59373E+03
  3.52872E+03 -1.72312E+03  3.00605E+03  1.79053E+03  1.07323E+03  3.38899E+03 -3.60003E+02  3.30924E+03
 -1.52898E+03  2.08089E+03 -1.21343E+03  9.44810E+02 -4.25799E+02  6.94475E+02 -7.68306E+02  1.16462E+03
 -1.62308E+03  2.70409E+03 -4.29833E+03  1.78995E+03 -6.14259E+03  2.85957E+02 -7.33132E+03 -4.15449E+03
 -3.44511E+03 -7.81526E+03  1.50627E+03 -9.22760E+03  5.04665E+03 -7.64013E+03  9.15620E+03 -3.05796E+03
  8.37499E+03  1.24290E+03  4.70735E+03  5.54992E+03  2.85486E+02  6.08710E+03 -2.31225E+03  4.55241E+03
 -3.51543E+03  1.53436E+03 -2.35647E+03 -6.23486E+02 -8.67345E+02 -4.68473E+02 -7.52579E+02  1.34377E+02
 -1.63047E+03  2.75698E+02 -1.62771E+03  2.61041E+01 -2.25071E+02 -1.40166E+03 -7.93113E+01 -2.07646E+03
  2.58799E+03 -2.04147E+03  3.54568E+03  2.42615E+02  4.33672E+03  3.59410E+03  8.52858E+02  6.08123E+03
 -3.14751E+03  6.92785E+03 -6.38518E+03  4.11803E+03 -7.03455E+03 -3.47230E+02 -5.16307E+03 -4.59828E+03
 -2.50451E+03 -6.07669E+03  1.55479E+03 -5.45491E+03  3.53352E+03 -3.09171E+03  3.66878E+03  2.52314E+02
  2.38519E+03  1.67231E+03 -4.02741E+01  1.33338E+03 -1.10336E+03 -2.29778E+02 -1.38089E+02 -1.44884E+03
  1.99171E+03 -7.79866E+02  1.99695E+03  9.14703E+02  1.19924E+03  1.60654E+03  3.55626E+02  2.81426E+03
 -2.53286E+03  2.75628E+03 -3.74384E+03  2.95006E+02 -3.38310E+03 -2.47690E+03 -5.68367E+02 -4.79995E+03
  2.94997E+03 -3.79716E+03  4.10834E+03 -1.10881E+03  3.94907E+03  3.98681E+02  2.80988E+03  3.65318E+03
  8.33910E+02  3.46603E+03 -1.15164E+03  3.11161E+03 -2.48295E+03  1.71432E+03 -2.25741E+03  1.00945E+02
 -9.72956E+02 -4.62868E+02 -9.95645E+02  5.79280E+02 -1.85995E+03  5.48810E+02 -3.02166E+03 -4.55890E+02
 -3.05090E+03 -1.72859E+03 -9.58719E+02 -3.85978E+03  1.95777E+03 -4.12415E+03  3.49851E+03 -1.68432E+03
  3.84592E+03  5.61518E+02  1.63143E+03  2.17852E+03 -6.31285E+02  3.96936E+03 -2.76208E+03  2.41874E+03
