 $NMID ID='MM_0lb_SNR800_15hz_g60_9.RAW', FMTDAT='(8E13.5)'
 TRAMP=1., VOLUME=1. $END
  3.09934E+05  2.08816E+02  3.37837E+05  2.50893E+05  8.46033E+04  3.38158E+05 -1.32370E+05  2.51039E+05
 -1.90227E+05  8.32399E+04 -1.11949E+05 -3.25644E+04  4.52165E+02 -5.05065E+04  5.39432E+04 -2.45300E+02
  3.53186E+04  5.30613E+04 -1.66103E+04  7.55022E+04 -6.10291E+04  6.38851E+04 -8.44870E+04  3.22843E+04
 -8.15465E+04 -1.10959E+04 -5.70906E+04 -5.13551E+04 -1.50092E+04 -7.01052E+04  2.77350E+04 -4.60915E+04
  4.02402E+04  3.80518E+03  1.63030E+04  4.79859E+04 -3.47211E+04  4.77218E+04 -6.70460E+04 -1.16476E+02
 -5.39314E+04 -5.71357E+04 -6.68042E+03 -7.75335E+04  3.41218E+04 -5.54222E+04  4.87502E+04 -1.75559E+04
  4.36107E+04  1.13965E+04  3.23713E+04  2.55553E+04  1.54966E+04  2.93284E+04 -5.47085E+03  2.74602E+04
 -2.22162E+04  1.22022E+04 -1.84100E+04 -5.10927E+03  5.87546E+03 -7.67498E+03  2.29351E+04  1.23516E+04
  7.10465E+03  3.58593E+04 -3.27876E+04  3.59430E+04 -6.38551E+04  2.03546E+03 -5.71404E+04 -4.31689E+04
 -1.26387E+04 -6.38672E+04  4.03662E+04 -4.55331E+04  5.91799E+04 -2.19702E+03  3.47600E+04  3.25776E+04
 -5.84775E+03  3.69981E+04 -3.05270E+04  1.66360E+04 -3.12720E+04 -4.15445E+03 -1.71183E+04 -1.12385E+04
 -8.53282E+03 -1.37191E+04 -8.10883E+02 -1.82623E+04  7.64832E+03 -2.31376E+04  1.54156E+04 -1.34958E+04
  1.11054E+04  5.60095E+03 -8.80541E+03  1.29266E+04 -2.18058E+04 -4.95343E+03 -8.34313E+03 -3.44074E+04
  2.33166E+04 -4.40318E+04  4.86057E+04 -1.97120E+04  4.57556E+04  1.93567E+04  1.55754E+04  4.48195E+04
 -1.64172E+04  3.39175E+04 -2.57444E+04  1.99089E+03 -1.01455E+04 -2.81255E+04  2.10228E+04 -3.45729E+04
  4.19305E+04 -9.06992E+03  3.62364E+04  2.39017E+04  1.86076E+04  4.74392E+04 -8.06526E+03  5.11830E+04
 -3.23612E+04  3.43419E+04 -4.26126E+04  9.88417E+03 -4.32162E+04 -1.67856E+04 -2.37442E+04 -3.85777E+04
  7.60089E+03 -3.85273E+04  3.19584E+04 -1.52219E+04  2.95679E+04  1.10866E+04  4.07960E+03  1.95290E+04
 -1.34948E+04  8.47490E+03 -1.04499E+04 -7.63688E+03  5.89647E+03 -1.07154E+04  1.81269E+04  5.84746E+03
  1.36700E+04  2.21065E+04 -5.92463E+03  2.52685E+04 -2.24201E+04  1.20139E+04 -2.85705E+04 -4.61168E+03
 -2.14924E+04 -1.75282E+04 -8.91727E+03 -2.11823E+04  4.18159E+03 -2.04471E+04  1.63851E+04 -1.88083E+04
  2.67498E+04 -1.27441E+04  3.31386E+04  3.26770E+03  2.43386E+04  2.05102E+04  4.19403E+03  3.70478E+04
 -1.80500E+04  3.06051E+04 -2.81443E+04  1.03359E+04 -2.09033E+04 -1.02756E+04 -4.50022E+03 -1.32205E+04
  1.51041E+03 -2.58739E+03 -5.30278E+03  6.71257E+03 -1.65694E+04  5.19747E+03 -1.68665E+04 -7.28869E+03
 -1.05159E+04 -1.96007E+04  5.05624E+03 -2.35178E+04  1.56243E+04 -1.72007E+04  1.87240E+04 -1.86620E+03
  1.18931E+04  1.36241E+04 -9.01527E+02  1.94825E+04 -1.36624E+04  1.11304E+04 -1.93525E+04 -4.05642E+03
 -1.46835E+04 -1.75484E+04 -1.64132E+03 -2.31806E+04  1.07004E+04 -1.93507E+04  1.98137E+04 -9.39734E+03
  1.81721E+04  3.64967E+01  1.30287E+04  4.67236E+03  6.96651E+03  8.42899E+02  9.59908E+03 -1.63780E+03
  1.77526E+04  2.68038E+03  2.02284E+04  1.48514E+04  1.28855E+04  3.10139E+04 -2.67493E+03  3.49737E+04
 -2.04248E+04  2.78612E+04 -3.28293E+04  1.41172E+04 -3.39326E+04 -2.65673E+03 -2.83475E+04 -1.99300E+04
 -1.19920E+04 -2.82848E+04  9.70181E+03 -2.54966E+04  2.18646E+04 -1.29701E+04  1.95475E+04  5.78696E+03
  7.22666E+03  1.47219E+04 -9.10020E+03  1.26612E+04 -1.64842E+04  2.57867E+03 -1.25531E+04 -1.01431E+04
 -1.63861E+02 -1.52483E+04  8.16390E+03 -1.18967E+04  1.04610E+04 -1.29025E+03  2.46061E+03  6.47511E+03
 -7.09594E+03  2.41785E+03 -6.07579E+03 -5.75543E+03 -5.24042E+02 -1.39672E+04  9.79723E+03 -1.45901E+04
  1.68769E+04 -7.39339E+03  1.84378E+04  3.00507E+03  1.58292E+04  1.33724E+04  7.15494E+03  2.07754E+04
 -3.28499E+03  2.24609E+04 -1.40686E+04  1.39694E+04 -1.60956E+04  3.39709E+03 -1.17592E+04 -3.44086E+03
 -5.09064E+03 -5.06276E+03 -1.06875E+03  1.01508E+03 -2.50909E+03  2.51339E+03 -5.18488E+03  4.25325E+03
 -1.04899E+04 -4.15983E+02 -1.14042E+04 -9.01640E+03 -4.72148E+03 -1.46093E+04  5.15964E+03 -1.17244E+04
  9.48156E+03 -4.67058E+03  6.79304E+03  3.21059E+03  8.36004E+01  4.33209E+03 -5.13859E+03  1.62856E+01
 -5.23666E+03 -7.31337E+03 -9.82472E+02 -1.04432E+04  6.27485E+03 -1.15181E+04  1.40303E+04 -6.11419E+03
  1.67022E+04  1.60511E+03  1.19628E+04  9.37025E+03  2.38639E+03  1.28880E+04 -6.93960E+03  1.10531E+04
 -9.16070E+03  3.80318E+03 -4.76153E+03 -1.95091E+03  1.57234E+03 -2.75296E+03  5.95270E+03 -1.19123E+03
  5.32912E+03  4.64852E+03  1.16681E+03  8.87031E+03 -6.56498E+03  8.62308E+03 -1.10190E+04  2.13960E+03
 -7.35939E+03 -5.23414E+03  6.01703E+02 -9.25783E+03  5.69578E+03 -4.60296E+03  5.83128E+03  1.98038E+03
  1.18348E+03  6.05051E+03 -5.62843E+03  7.07237E+03 -8.22059E+03  3.52898E+03 -7.93282E+03 -2.65148E+03
 -4.89659E+03 -9.78509E+03  2.66636E+03 -1.10911E+04  9.67131E+03 -7.22062E+03  1.05301E+04  1.82717E+03
  6.75259E+03  8.30958E+03 -5.70953E+02  1.03020E+04 -7.52877E+03  5.90241E+03 -7.83524E+03 -7.54361E+02
 -7.47269E+03 -7.07893E+03 -1.22464E+03 -7.76074E+03  4.00115E+03 -6.65895E+03  4.41850E+03 -3.16120E+03
  3.76524E+03  4.89059E+02 -4.16625E+02  1.23327E+03  2.17434E+02 -1.45135E+03  1.19325E+03 -4.23633E+03
  6.48124E+03 -2.44269E+03  9.04285E+03  1.25359E+03  9.10947E+03  5.75838E+03  6.81238E+03  1.20257E+04
 -2.65033E+03  1.41327E+04 -1.21046E+04  1.08252E+04 -1.53267E+04  2.02223E+03 -1.22485E+04 -4.71840E+03
 -6.34865E+03 -1.04385E+04 -5.23803E+02 -8.56767E+03  3.05608E+03 -4.46529E+03  3.01575E+03 -3.01516E+03
  2.18564E+03 -1.83379E+03  2.72237E+03 -2.55334E+03  4.16492E+03 -1.96688E+03  5.23118E+03 -2.24833E+02
  6.46742E+03  1.95219E+03  2.52972E+03  5.58247E+03 -1.80290E+03  5.75988E+03 -6.93351E+03  4.38957E+03
 -8.23705E+03 -1.10908E+03 -4.56983E+03 -5.41977E+03 -3.28249E+02 -8.69011E+03  4.93879E+03 -8.71909E+03
  9.01977E+03 -5.54899E+03  1.10177E+04  9.04236E+02  7.77150E+03  7.43064E+03  1.25549E+03  9.85842E+03
 -3.76378E+03  8.41901E+03 -5.47873E+03  2.82545E+03 -3.53021E+03 -1.27518E+03 -1.38879E+03 -9.57673E+02
 -5.89988E+02  7.45279E+01 -1.33855E+03  2.44226E+03 -3.59981E+03  1.50888E+03 -6.13724E+03 -6.90537E+02
 -3.27096E+03 -5.93575E+03  3.80280E+02 -7.97165E+03  4.50205E+03 -7.38334E+03  6.96559E+03 -2.20965E+03
  7.28070E+03  4.03875E+03  3.47639E+03  6.41287E+03 -1.62787E+03  7.53934E+03 -5.18383E+03  4.69903E+03
 -6.64447E+03  6.01133E+02 -5.42012E+03 -4.56786E+03 -4.29459E+02 -6.05553E+03  3.14955E+03 -4.44838E+03
  4.71672E+03 -1.96732E+03  3.18360E+03  9.91513E+02  1.01092E+03  2.49488E+03  9.83472E+02  9.46415E+02
  2.09596E+03  8.90488E+02  1.93516E+03  1.11093E+03  2.14980E+03  3.35247E+03  2.29520E+03  3.49836E+03
 -1.93112E+03  5.26192E+03 -4.60817E+03  6.58166E+03 -6.35175E+03  1.75660E+03 -7.73665E+03 -2.25388E+03
 -3.22338E+03 -7.03414E+03  9.43781E+02 -8.04518E+03  4.15502E+03 -4.80486E+03  5.55707E+03 -1.53333E+03
  4.77756E+03  2.96854E+03  7.71788E+02  3.81355E+03 -1.60479E+03  2.58536E+03 -2.50657E+03 -4.10667E+02
 -1.51351E+03 -3.01281E+03  1.98959E+03 -2.97985E+03  2.67443E+03 -1.28855E+03  2.77609E+03  6.15601E+02
  1.56306E+03  1.05171E+03  9.10268E+02  6.55505E+02 -3.70312E+02  9.34828E+02  1.53693E+03 -1.89840E+02
  6.93986E+02 -2.50430E+02  2.90117E+03  1.12961E+03  1.24680E+03  3.88115E+03 -6.60511E+02  4.97826E+03
 -3.24957E+03  2.86865E+03 -3.99479E+03  6.02232E+02 -3.79123E+03 -1.58868E+03 -1.21490E+03 -2.10237E+03
  4.19778E+02 -2.50408E+03  1.88635E+03 -1.31693E+03  1.06060E+03  1.51806E+03 -8.55729E+02  2.37090E+03
 -2.79122E+03  1.12935E+03 -2.74984E+03 -2.09440E+03 -1.50324E+03 -3.83408E+03  3.95551E+02 -3.23451E+03
  1.47118E+03 -1.57568E+03  1.95841E+03 -4.99086E+01  2.13391E+03  4.49122E+02  3.72231E+02  1.99686E+03
 -7.39058E+02  6.71910E+02 -1.91886E+03 -1.00972E+03  9.13547E+02 -2.17688E+03  3.25391E+03 -1.85283E+03
  3.56168E+03  4.04275E+02  4.44057E+03  2.01583E+03  1.35937E+03  3.54621E+03 -1.13869E+03  3.40227E+03
 -2.89658E+03  1.16503E+03 -3.08904E+03 -2.49461E+02 -1.59348E+03 -2.75488E+03  6.14611E+02 -1.86755E+03
  2.70298E+03 -1.33306E+03  1.85277E+03  1.01229E+03  8.22638E+02  2.26073E+03  9.09170E+01  2.07692E+03
 -1.04446E+03  1.35161E+03 -6.60545E+02  5.14926E+02 -4.18684E+02  5.44885E+02 -8.57895E+02  8.64513E+02
 -9.43925E+02  1.86468E+03 -2.92792E+03  9.48762E+02 -3.91154E+03  2.06670E+01 -4.49869E+03 -2.22280E+03
 -2.33809E+03 -4.75821E+03  1.12516E+03 -5.87056E+03  2.72324E+03 -4.75326E+03  5.26756E+03 -2.00245E+03
  4.64460E+03  8.85270E+02  2.68581E+03  3.35676E+03 -3.69721E+02  3.22125E+03 -1.10131E+03  2.79684E+03
 -1.83883E+03  1.25635E+03 -1.36504E+03 -9.96597E+01 -3.65612E+02  2.42894E+01 -9.90677E+02 -1.50482E+02
 -1.35345E+03  3.90861E+02 -1.27966E+03  1.48619E+02 -8.38762E+01 -7.75106E+02 -1.69327E+02 -1.64544E+03
  1.88736E+03 -9.85329E+02  1.63436E+03  1.92514E+02  2.34180E+03  2.14646E+03  2.39724E+02  3.09680E+03
 -1.81381E+03  4.21063E+03 -3.62940E+03  2.50516E+03 -3.81434E+03 -6.35533E+02 -2.74825E+03 -2.77189E+03
 -1.69874E+03 -3.30299E+03  6.44921E+02 -2.86391E+03  1.75810E+03 -1.22576E+03  1.91951E+03  1.97761E+02
  1.52490E+03  1.21797E+03  2.05999E+02  6.72863E+02 -6.53245E+02  1.82157E+02  9.32663E+01 -3.21984E+02
  6.14972E+02 -6.06281E+01  8.78681E+02  6.96859E+02  7.41715E+02  1.35541E+03  6.04146E+01  1.16423E+03
 -1.52952E+03  1.29659E+03 -1.58649E+03  2.99694E+02 -1.46929E+03 -9.99597E+02 -3.48664E+01 -2.51498E+03
  1.52252E+03 -1.88588E+03  1.65873E+03 -2.28171E+02  2.30734E+03 -2.98972E+02  1.05245E+03  1.80163E+03
  5.64111E+02  1.37987E+03 -6.80572E+02  1.27711E+03 -1.16479E+03  8.14729E+02 -8.06714E+02  1.10269E+02
 -6.98834E+02 -8.41239E+01 -6.10036E+02  3.65983E+02 -1.02422E+03  3.94804E+02 -1.74034E+03 -4.21697E+02
 -1.95652E+03 -2.58573E+02 -6.88523E+02 -1.88803E+03  9.87471E+02 -2.67761E+03  1.71215E+03 -5.34355E+02
  1.83071E+03  1.02144E+02  1.43326E+02  1.18269E+03 -1.97250E+02  2.12565E+03 -1.31953E+03  1.49642E+03
