 $NMID ID='MM_0lb_SNR800_14hz_g40_5.RAW', FMTDAT='(8E13.5)'
 TRAMP=1., VOLUME=1. $END
  3.10132E+05  5.54228E+02  3.37446E+05  2.50350E+05  8.44154E+04  3.37893E+05 -1.32303E+05  2.50666E+05
 -1.90090E+05  8.26437E+04 -1.11531E+05 -3.26959E+04  8.50393E+02 -5.07201E+04  5.36850E+04 -1.20299E+01
  3.56606E+04  5.27411E+04 -1.67302E+04  7.53624E+04 -6.09226E+04  6.34482E+04 -8.35710E+04  3.18598E+04
 -8.07609E+04 -1.13419E+04 -5.70883E+04 -5.09695E+04 -1.51198E+04 -6.89124E+04  2.71236E+04 -4.51467E+04
  3.99105E+04  3.64851E+03  1.59151E+04  4.73513E+04 -3.43413E+04  4.67768E+04 -6.65156E+04 -4.32117E+02
 -5.32426E+04 -5.66747E+04 -6.55547E+03 -7.65677E+04  3.37136E+04 -5.42805E+04  4.75955E+04 -1.68373E+04
  4.29817E+04  1.09397E+04  3.17042E+04  2.50319E+04  1.56335E+04  2.91571E+04 -4.93324E+03  2.69831E+04
 -2.20853E+04  1.24476E+04 -1.84562E+04 -4.57803E+03  5.16127E+03 -7.56807E+03  2.20539E+04  1.16837E+04
  7.37436E+03  3.48593E+04 -3.18638E+04  3.53414E+04 -6.27763E+04  2.15637E+03 -5.64619E+04 -4.23780E+04
 -1.27356E+04 -6.26420E+04  3.92237E+04 -4.46934E+04  5.75777E+04 -2.37356E+03  3.36891E+04  3.18704E+04
 -5.98641E+03  3.53603E+04 -2.96541E+04  1.52229E+04 -2.94625E+04 -4.56785E+03 -1.64019E+04 -1.08718E+04
 -8.17140E+03 -1.23335E+04 -7.77713E+02 -1.79176E+04  7.18478E+03 -2.27012E+04  1.55222E+04 -1.33290E+04
  1.17384E+04  4.50935E+03 -7.90414E+03  1.28192E+04 -2.06719E+04 -3.79570E+03 -8.14135E+03 -3.27810E+04
  2.22563E+04 -4.26677E+04  4.74068E+04 -1.90693E+04  4.44190E+04  1.93315E+04  1.53106E+04  4.37431E+04
 -1.56268E+04  3.31484E+04 -2.49067E+04  1.71401E+03 -9.29444E+03 -2.74976E+04  2.10491E+04 -3.32491E+04
  4.05475E+04 -8.56011E+03  3.44986E+04  2.35471E+04  1.78306E+04  4.53009E+04 -7.90903E+03  4.86947E+04
 -3.08610E+04  3.27682E+04 -4.10150E+04  9.15560E+03 -4.16109E+04 -1.66866E+04 -2.31795E+04 -3.71996E+04
  7.32296E+03 -3.68172E+04  3.11427E+04 -1.43832E+04  2.87644E+04  1.09080E+04  3.87505E+03  1.88264E+04
 -1.33601E+04  7.72862E+03 -1.01557E+04 -7.20333E+03  5.81694E+03 -1.05237E+04  1.77347E+04  6.37838E+03
  1.31595E+04  2.19072E+04 -6.24909E+03  2.44662E+04 -2.22234E+04  1.09159E+04 -2.74083E+04 -4.74124E+03
 -2.00277E+04 -1.70905E+04 -7.93075E+03 -1.95321E+04  3.84146E+03 -1.85121E+04  1.50364E+04 -1.75495E+04
  2.50389E+04 -1.25628E+04  3.16608E+04  2.28965E+03  2.29893E+04  1.90543E+04  4.03277E+03  3.50918E+04
 -1.71730E+04  2.99779E+04 -2.74557E+04  1.03646E+04 -2.06576E+04 -1.03714E+04 -4.45620E+03 -1.32387E+04
  2.06947E+03 -3.00076E+03 -4.30058E+03  6.46761E+03 -1.56448E+04  4.86608E+03 -1.57656E+04 -6.61046E+03
 -9.87541E+03 -1.84618E+04  5.36541E+03 -2.22048E+04  1.50846E+04 -1.60208E+04  1.75693E+04 -1.80499E+03
  1.06212E+04  1.25455E+04 -1.10935E+03  1.82763E+04 -1.22511E+04  1.07260E+04 -1.80855E+04 -3.67011E+03
 -1.33498E+04 -1.65619E+04 -1.55339E+03 -2.23982E+04  1.04297E+04 -1.78917E+04  1.83597E+04 -8.83644E+03
  1.69181E+04  4.33774E+01  1.23971E+04  4.35733E+03  6.69297E+03  8.64222E+02  9.54151E+03 -1.75952E+03
  1.66111E+04  2.65788E+03  1.82876E+04  1.47076E+04  1.19950E+04  2.90577E+04 -2.92083E+03  3.25821E+04
 -1.88774E+04  2.58188E+04 -3.05131E+04  1.29950E+04 -3.13746E+04 -2.25603E+03 -2.65235E+04 -1.81257E+04
 -1.15385E+04 -2.61091E+04  8.78884E+03 -2.39192E+04  2.04880E+04 -1.23952E+04  1.84383E+04  5.02312E+03
  7.37847E+03  1.37211E+04 -8.72700E+03  1.23393E+04 -1.53050E+04  2.40355E+03 -1.20393E+04 -9.53373E+03
 -5.80320E+02 -1.48461E+04  7.55290E+03 -1.09874E+04  9.85737E+03 -1.35803E+03  2.24000E+03  6.18426E+03
 -6.44012E+03  2.36849E+03 -5.27222E+03 -5.34451E+03 -3.11810E+02 -1.25787E+04  9.10873E+03 -1.33533E+04
  1.56581E+04 -6.85689E+03  1.67361E+04  2.90343E+03  1.44847E+04  1.25929E+04  6.88489E+03  1.91536E+04
 -3.03456E+03  2.10133E+04 -1.32224E+04  1.32691E+04 -1.49876E+04  3.29425E+03 -1.09592E+04 -3.27335E+03
 -5.24732E+03 -4.42818E+03 -9.90600E+02  1.17024E+03 -2.30039E+03  2.41699E+03 -5.03451E+03  4.06317E+03
 -1.00976E+04 -5.35338E+02 -1.05904E+04 -8.94079E+03 -4.47724E+03 -1.42308E+04  4.36949E+03 -1.10747E+04
  9.08810E+03 -4.62026E+03  6.79667E+03  2.96860E+03  3.03881E+02  3.81704E+03 -4.99615E+03 -1.11864E+02
 -4.75267E+03 -6.68639E+03 -1.06944E+03 -1.01760E+04  5.53782E+03 -1.07311E+04  1.32468E+04 -5.68054E+03
  1.58734E+04  1.18764E+03  1.18532E+04  9.19538E+03  2.10655E+03  1.20382E+04 -6.90433E+03  1.07003E+04
 -9.03529E+03  3.28270E+03 -4.47568E+03 -2.23002E+03  1.58320E+03 -2.69831E+03  5.97713E+03 -7.41626E+02
  5.06592E+03  4.35887E+03  9.93962E+02  8.52960E+03 -6.42051E+03  8.23169E+03 -1.05153E+04  2.01030E+03
 -6.63856E+03 -5.12418E+03  4.45639E+02 -8.65562E+03  5.34494E+03 -4.49932E+03  5.48005E+03  1.63137E+03
  1.06059E+03  5.65170E+03 -5.24676E+03  7.19220E+03 -7.92259E+03  3.51306E+03 -7.57409E+03 -2.34750E+03
 -4.88346E+03 -9.19676E+03  1.99063E+03 -1.05529E+04  9.05882E+03 -6.43329E+03  9.95812E+03  1.36833E+03
  6.17409E+03  7.86441E+03 -4.96204E+02  9.79072E+03 -7.08162E+03  5.58083E+03 -7.84235E+03 -5.86303E+02
 -7.01316E+03 -6.59520E+03 -1.51464E+03 -7.10180E+03  3.61144E+03 -6.45367E+03  4.61965E+03 -3.05083E+03
  3.42153E+03  5.21290E+02 -4.79445E+02  1.64643E+03 -2.19243E+02 -1.08856E+03  1.04300E+03 -3.88204E+03
  6.16942E+03 -1.92102E+03  8.88838E+03  9.13352E+02  8.77789E+03  5.61625E+03  6.83377E+03  1.19171E+04
 -2.28948E+03  1.34287E+04 -1.17119E+04  1.01801E+04 -1.51285E+04  1.55825E+03 -1.16892E+04 -4.69539E+03
 -6.32245E+03 -9.67341E+03 -4.55559E+02 -8.02885E+03  3.27826E+03 -3.98693E+03  2.90066E+03 -2.93441E+03
  1.72575E+03 -2.23084E+03  2.50561E+03 -2.81462E+03  4.07275E+03 -2.22628E+03  4.80254E+03  6.76298E+01
  6.33133E+03  1.33886E+03  2.90313E+03  5.51224E+03 -1.75315E+03  5.89439E+03 -6.54703E+03  4.49759E+03
 -8.00521E+03 -1.23319E+03 -3.99285E+03 -5.47241E+03  1.13940E+02 -8.00151E+03  5.26722E+03 -8.70063E+03
  8.91641E+03 -4.84027E+03  1.06125E+04  9.61022E+02  7.51621E+03  7.20331E+03  1.30136E+03  9.81241E+03
 -3.53729E+03  8.41126E+03 -5.43927E+03  2.78438E+03 -3.77876E+03 -1.46747E+03 -9.76385E+02 -1.24277E+03
 -6.24580E+02  1.57124E+02 -1.55113E+03  2.24938E+03 -3.61148E+03  1.35950E+03 -6.29448E+03 -7.08336E+02
 -3.62058E+03 -5.91737E+03  9.28062E+02 -8.03399E+03  4.70668E+03 -7.23059E+03  7.04318E+03 -1.92617E+03
  7.28968E+03  3.63708E+03  2.97299E+03  6.35561E+03 -1.38672E+03  7.60327E+03 -5.15909E+03  4.71866E+03
 -7.04907E+03  7.20318E+02 -5.42932E+03 -4.00755E+03 -6.10442E+02 -6.02509E+03  3.22592E+03 -4.75367E+03
  4.75161E+03 -1.76577E+03  3.23293E+03  1.21603E+03  1.21279E+03  2.54181E+03  9.51849E+02  1.17445E+03
  1.85991E+03  5.65116E+02  1.83257E+03  1.10878E+03  2.00544E+03  3.09264E+03  1.93369E+03  3.74817E+03
 -1.56776E+03  5.55158E+03 -4.79851E+03  6.44265E+03 -6.74692E+03  1.66116E+03 -8.09722E+03 -2.25880E+03
 -3.47166E+03 -7.35406E+03  1.26545E+03 -8.06982E+03  3.72346E+03 -4.99009E+03  5.94390E+03 -1.40356E+03
  4.57964E+03  2.76434E+03  1.01831E+03  4.35090E+03 -1.80677E+03  2.46933E+03 -2.52688E+03 -1.18838E+02
 -1.41676E+03 -2.96093E+03  1.83720E+03 -2.84503E+03  2.76603E+03 -1.76701E+03  2.67617E+03  6.54617E+02
  1.58815E+03  8.67787E+02  1.06930E+03  3.41777E+02 -7.32411E+02  1.26824E+03  1.27727E+03 -4.30131E+02
  3.83895E+02 -1.59897E+02  2.75480E+03  1.07242E+03  1.22618E+03  4.11270E+03 -5.47103E+02  5.12672E+03
 -3.27275E+03  2.84719E+03 -4.13245E+03  8.51055E+02 -4.02719E+03 -1.48326E+03 -1.02609E+03 -2.54752E+03
  3.77271E+02 -2.55643E+03  1.53112E+03 -1.43651E+03  1.40301E+03  1.61390E+03 -8.60508E+02  2.03979E+03
 -2.79981E+03  1.39411E+03 -2.68841E+03 -1.94717E+03 -1.69779E+03 -3.91692E+03  3.83521E+02 -3.63271E+03
  1.95258E+03 -1.75440E+03  2.11521E+03  4.58422E+01  2.14686E+03  4.53059E+02  4.71086E+02  2.01931E+03
 -1.14438E+03  1.30305E+02 -1.87978E+03 -9.18404E+02  8.66745E+02 -2.44234E+03  3.37672E+03 -2.43649E+03
  3.58311E+03  3.37302E+02  4.84704E+03  2.37595E+03  1.79583E+03  4.18728E+03 -1.29865E+03  4.07882E+03
 -3.17165E+03  1.35211E+03 -3.35285E+03 -1.46072E+02 -1.78444E+03 -2.93000E+03  7.43605E+02 -2.19796E+03
  3.07168E+03 -1.19976E+03  1.80308E+03  9.91961E+02  4.47299E+02  2.89430E+03  9.53075E+01  1.96382E+03
 -1.15150E+03  1.72504E+03 -7.99851E+02  1.51781E+02 -4.37195E+02  2.27267E+02 -1.16662E+03  9.61284E+02
 -1.31398E+03  1.74891E+03 -2.99420E+03  1.20507E+03 -4.28746E+03  3.97308E+02 -4.79099E+03 -2.52897E+03
 -2.47371E+03 -5.39190E+03  9.33687E+02 -6.12064E+03  3.10849E+03 -5.05523E+03  5.59639E+03 -1.78038E+03
  5.21382E+03  4.53018E+02  3.30822E+03  3.79209E+03 -1.49211E+02  4.15264E+03 -1.55251E+03  3.01637E+03
 -2.14215E+03  1.38112E+03 -1.09720E+03 -2.83371E+02 -5.27010E+02 -4.27220E+02 -5.41702E+02  2.23076E+02
 -1.26052E+03 -3.30937E+02 -1.55292E+03 -1.53424E+02 -6.67856E+01 -1.21668E+03 -3.16286E+02 -1.71183E+03
  2.20414E+03 -1.16722E+03  2.23555E+03  2.09131E+02  2.52341E+03  2.12638E+03  2.90001E+02  3.86457E+03
 -1.96827E+03  4.73372E+03 -4.16491E+03  3.01394E+03 -4.58946E+03 -2.49436E+02 -3.21364E+03 -3.08020E+03
 -1.47008E+03 -3.56098E+03  9.94696E+02 -3.17866E+03  2.17589E+03 -1.76393E+03  2.28553E+03  4.67746E+00
  1.27633E+03  8.64298E+02 -7.48166E+00  1.35122E+03 -9.12074E+02 -4.90526E+02  1.34603E+02 -6.91566E+02
  1.10227E+03 -3.06986E+02  1.15767E+03  8.57652E+02  9.29864E+02  1.56971E+03  5.08567E+02  1.60722E+03
 -1.46761E+03  1.98583E+03 -2.48649E+03  4.95996E+02 -2.24212E+03 -1.68427E+03 -1.73712E+02 -2.86795E+03
  1.85138E+03 -2.32066E+03  2.45216E+03 -5.76123E+02  2.66548E+03 -1.37578E+01  1.31808E+03  2.08021E+03
  4.58908E+02  2.21775E+03 -6.79866E+02  1.91088E+03 -1.68127E+03  1.35199E+03 -1.18849E+03 -6.77689E+01
 -7.08698E+02  1.15784E+02 -1.09349E+03  3.94991E+02 -1.28535E+03  2.21601E+02 -2.26260E+03 -4.34136E+02
 -1.89284E+03 -8.37756E+02 -6.68483E+02 -2.45051E+03  1.36977E+03 -2.90695E+03  1.98192E+03 -1.36941E+03
  2.52424E+03  3.93548E+02  5.65625E+02  1.37376E+03 -3.31559E+02  2.23655E+03 -1.53319E+03  1.66790E+03
