 $NMID ID='MM_0lb_SNR800_10hz_g55_100.RAW', FMTDAT='(8E13.5)'
 TRAMP=1., VOLUME=1. $END
  3.09737E+05  5.46570E+01  3.37878E+05  2.50639E+05  8.51782E+04  3.38659E+05 -1.32547E+05  2.52002E+05
 -1.91069E+05  8.36807E+04 -1.12507E+05 -3.22781E+04  4.55764E+02 -5.08110E+04  5.39317E+04 -5.13322E+02
  3.53861E+04  5.29674E+04 -1.65469E+04  7.59077E+04 -6.11195E+04  6.45059E+04 -8.54089E+04  3.22783E+04
 -8.25472E+04 -1.21512E+04 -5.80402E+04 -5.23170E+04 -1.54940E+04 -7.09971E+04  2.77452E+04 -4.65090E+04
  4.09371E+04  3.61767E+03  1.65665E+04  4.83636E+04 -3.42975E+04  4.80377E+04 -6.79724E+04  1.35683E+02
 -5.44866E+04 -5.77213E+04 -7.31050E+03 -7.91405E+04  3.46853E+04 -5.67696E+04  4.93705E+04 -1.81804E+04
  4.52816E+04  1.16811E+04  3.29151E+04  2.67654E+04  1.59133E+04  3.02842E+04 -5.80152E+03  2.78554E+04
 -2.24873E+04  1.18855E+04 -1.78643E+04 -5.72607E+03  6.70438E+03 -7.36686E+03  2.36977E+04  1.36586E+04
  7.22088E+03  3.71107E+04 -3.41359E+04  3.68034E+04 -6.56015E+04  2.29869E+03 -5.87907E+04 -4.43809E+04
 -1.24068E+04 -6.56549E+04  4.13516E+04 -4.71681E+04  6.09723E+04 -2.67061E+03  3.66360E+04  3.44936E+04
 -5.57351E+03  3.92941E+04 -3.18087E+04  1.87880E+04 -3.29369E+04 -3.56247E+03 -1.90384E+04 -1.20438E+04
 -9.64968E+03 -1.49492E+04 -2.96362E+02 -1.97023E+04  8.02071E+03 -2.33175E+04  1.59943E+04 -1.27414E+04
  1.04145E+04  6.21419E+03 -1.07179E+04  1.29483E+04 -2.32125E+04 -6.41013E+03 -8.67392E+03 -3.74328E+04
  2.49275E+04 -4.67790E+04  5.20998E+04 -2.01835E+04  4.84252E+04  2.08277E+04  1.73152E+04  4.72958E+04
 -1.66097E+04  3.63136E+04 -2.74248E+04  2.69565E+03 -1.16649E+04 -2.94386E+04  2.18931E+04 -3.66937E+04
  4.40535E+04 -1.11490E+04  3.99744E+04  2.48873E+04  2.13869E+04  5.09608E+04 -8.30827E+03  5.52713E+04
 -3.51360E+04  3.83027E+04 -4.69206E+04  1.06764E+04 -4.69812E+04 -1.82553E+04 -2.57902E+04 -4.18028E+04
  7.73658E+03 -4.21868E+04  3.41972E+04 -1.68702E+04  3.18415E+04  1.10970E+04  5.18644E+03  2.09562E+04
 -1.39465E+04  9.29319E+03 -1.10566E+04 -7.64632E+03  5.58541E+03 -1.11299E+04  1.89561E+04  5.40850E+03
  1.50129E+04  2.28886E+04 -5.40302E+03  2.69918E+04 -2.33939E+04  1.41340E+04 -3.10101E+04 -2.92608E+03
 -2.48847E+04 -1.84176E+04 -1.14368E+04 -2.43922E+04  4.09904E+03 -2.51798E+04  1.97221E+04 -2.22684E+04
  3.14902E+04 -1.35543E+04  3.71678E+04  4.89991E+03  2.65570E+04  2.38780E+04  4.41000E+03  4.07660E+04
 -1.95331E+04  3.34471E+04 -3.02214E+04  1.19811E+04 -2.22809E+04 -1.03965E+04 -4.68520E+03 -1.32227E+04
  8.19084E+02 -1.45602E+03 -7.16796E+03  8.07634E+03 -1.97688E+04  4.77804E+03 -1.99151E+04 -9.40913E+03
 -1.20626E+04 -2.29379E+04  5.79659E+03 -2.73000E+04  1.79753E+04 -1.94273E+04  2.17046E+04 -1.81959E+03
  1.44501E+04  1.60726E+04 -9.63177E+02  2.26057E+04 -1.65142E+04  1.28254E+04 -2.33391E+04 -4.60940E+03
 -1.67321E+04 -2.03494E+04 -1.92341E+03 -2.78052E+04  1.27071E+04 -2.27648E+04  2.30403E+04 -1.17357E+04
  2.15471E+04 -2.55877E+02  1.56818E+04  5.35456E+03  8.71225E+03  1.47873E+03  1.22772E+04 -2.23526E+03
  2.16337E+04  2.83312E+03  2.51406E+04  1.79361E+04  1.71720E+04  3.71599E+04 -2.61421E+03  4.29471E+04
 -2.48122E+04  3.60412E+04 -4.09550E+04  1.86702E+04 -4.33580E+04 -3.47234E+03 -3.54374E+04 -2.54702E+04
 -1.43358E+04 -3.61735E+04  1.25358E+04 -3.19307E+04  2.72694E+04 -1.53092E+04  2.36882E+04  7.55445E+03
  7.90302E+03  1.78124E+04 -1.12667E+04  1.57227E+04 -1.95533E+04  2.69877E+03 -1.52273E+04 -1.27859E+04
 -4.94181E+02 -1.88588E+04  9.90847E+03 -1.41767E+04  1.26993E+04 -1.53017E+03  3.42910E+03  8.72144E+03
 -8.59130E+03  3.71945E+03 -8.74603E+03 -6.32552E+03 -1.08096E+03 -1.76007E+04  1.18990E+04 -1.93904E+04
  2.25964E+04 -1.08031E+04  2.52897E+04  3.20232E+03  2.23155E+04  1.76777E+04  1.01758E+04  2.81368E+04
 -5.08197E+03  3.03332E+04 -2.00532E+04  1.91537E+04 -2.18850E+04  4.02189E+03 -1.48643E+04 -5.74075E+03
 -6.37655E+03 -7.02700E+03 -4.81518E+02  6.28878E+02 -3.05113E+03  3.37168E+03 -7.33911E+03  5.23844E+03
 -1.37059E+04 -6.91216E+02 -1.45310E+04 -1.12862E+04 -5.57131E+03 -1.85891E+04  6.23044E+03 -1.48994E+04
  1.27523E+04 -6.19234E+03  8.95656E+03  3.86856E+03 -7.44280E+02  6.12003E+03 -7.63036E+03  4.49096E+01
 -7.19816E+03 -9.53685E+03 -9.13944E+02 -1.49828E+04  8.16273E+03 -1.59708E+04  1.90581E+04 -8.27068E+03
  2.24216E+04  2.27952E+03  1.66565E+04  1.37215E+04  3.05479E+03  1.90728E+04 -9.40963E+03  1.48163E+04
 -1.24706E+04  4.42928E+03 -6.58989E+03 -3.42962E+03  2.07270E+03 -3.89155E+03  8.21830E+03 -1.12072E+03
  7.17323E+03  6.43793E+03  7.67724E+02  1.20070E+04 -9.03395E+03  1.17214E+04 -1.49831E+04  3.01321E+03
 -1.02038E+04 -7.71142E+03  9.65395E+00 -1.27555E+04  8.52144E+03 -6.78268E+03  8.96950E+03  3.22414E+03
  1.99461E+03  1.01096E+04 -7.46222E+03  1.08801E+04 -1.30066E+04  4.87974E+03 -1.35256E+04 -4.84029E+03
 -7.25449E+03 -1.51364E+04  3.72922E+03 -1.74810E+04  1.43650E+04 -1.03992E+04  1.60437E+04  3.04154E+03
  9.71720E+03  1.25354E+04 -1.59596E+03  1.51927E+04 -1.11706E+04  8.38502E+03 -1.16807E+04 -1.23016E+03
 -1.05621E+04 -9.99078E+03 -1.99374E+03 -1.15957E+04  6.14677E+03 -9.35342E+03  7.45113E+03 -3.73879E+03
  4.96117E+03  1.78019E+03 -1.14121E+03  1.89805E+03 -8.02802E+02 -3.12691E+03  2.85365E+03 -7.28456E+03
  1.06217E+04 -4.76458E+03  1.48387E+04  1.82963E+03  1.46499E+04  1.05741E+04  9.77725E+03  1.98748E+04
 -4.82381E+03  2.23965E+04 -1.86291E+04  1.62257E+04 -2.43924E+04  3.12462E+03 -1.94777E+04 -8.52678E+03
 -9.51113E+03 -1.58310E+04 -5.11300E+02 -1.36122E+04  4.92507E+03 -7.50885E+03  5.11411E+03 -4.91036E+03
  3.71859E+03 -2.97720E+03  4.08816E+03 -3.69256E+03  5.68307E+03 -3.71081E+03  7.74915E+03 -9.10593E+02
  9.98882E+03  2.54890E+03  5.48439E+03  8.80090E+03 -1.93346E+03  1.02573E+04 -1.08301E+04  8.29144E+03
 -1.35797E+04 -1.40555E+03 -8.42276E+03 -9.76499E+03 -9.43918E+02 -1.47538E+04  8.15204E+03 -1.48015E+04
  1.55687E+04 -8.71591E+03  1.84022E+04  2.35865E+03  1.29967E+04  1.31704E+04  1.84615E+03  1.67990E+04
 -7.16973E+03  1.31500E+04 -9.85310E+03  4.62586E+03 -7.09469E+03 -1.17320E+03 -3.03076E+03 -2.08284E+03
 -1.22547E+03  2.36506E+02 -2.66478E+03  2.87790E+03 -5.86564E+03  2.35338E+03 -9.52294E+03 -1.45294E+03
 -7.07409E+03 -9.10350E+03 -6.82284E+01 -1.38063E+04  8.27525E+03 -1.25486E+04  1.36328E+04 -3.92459E+03
  1.37666E+04  6.60680E+03  6.46508E+03  1.21339E+04 -2.78980E+03  1.39395E+04 -9.65446E+03  8.24270E+03
 -1.24884E+04  3.72344E+02 -1.00673E+04 -8.44346E+03 -8.37073E+02 -1.19149E+04  5.62466E+03 -8.18011E+03
  8.72324E+03 -2.62295E+03  6.01190E+03  2.10924E+03  2.12684E+03  3.88683E+03  1.59881E+03  2.08317E+03
  2.71836E+03  1.04553E+03  3.05403E+03  1.69045E+03  4.28151E+03  5.06863E+03  3.58396E+03  7.41984E+03
 -3.06629E+03  1.08559E+04 -9.70113E+03  1.12484E+04 -1.39918E+04  2.80830E+03 -1.44378E+04 -5.71614E+03
 -6.88591E+03 -1.40684E+04  1.73756E+03 -1.53772E+04  8.34489E+03 -9.76037E+03  1.14160E+04 -2.60713E+03
  8.88386E+03  5.22227E+03  1.86302E+03  8.11339E+03 -3.79414E+03  4.97073E+03 -5.42033E+03 -5.43730E+02
 -2.71972E+03 -6.20569E+03  3.35273E+03 -6.07104E+03  5.80654E+03 -3.00018E+03  5.62057E+03  1.07557E+03
  3.40332E+03  3.04342E+03  1.26334E+03  2.16616E+03 -7.55362E+02  1.71613E+03  1.63092E+03 -9.69529E+02
  2.11363E+03 -6.75140E+02  5.85709E+03  2.72463E+03  2.99615E+03  7.75639E+03 -1.25738E+03  9.78284E+03
 -6.60305E+03  6.52056E+03 -8.44627E+03  1.83720E+03 -7.91046E+03 -3.03022E+03 -2.29360E+03 -5.16209E+03
  6.39597E+02 -5.21593E+03  3.97892E+03 -2.23171E+03  3.24142E+03  2.63487E+03 -1.64066E+03  4.87473E+03
 -5.34411E+03  2.70239E+03 -6.43417E+03 -3.35031E+03 -3.64440E+03 -7.22964E+03  8.95949E+02 -7.74918E+03
  4.54528E+03 -4.76837E+03  5.29728E+03 -6.15570E+02  4.40839E+03  2.17350E+03  7.50525E+02  4.18019E+03
 -2.47150E+03  1.25509E+03 -3.55716E+03 -2.50083E+03  1.57277E+03 -5.98231E+03  6.98909E+03 -4.33330E+03
  8.70646E+03  6.60431E+02  8.50037E+03  6.06065E+03  2.61098E+03  8.88719E+03 -3.28922E+03  8.25307E+03
 -7.40027E+03  3.65666E+03 -7.46338E+03 -1.17343E+03 -4.16669E+03 -5.96148E+03  1.32875E+03 -5.41869E+03
  5.41081E+03 -2.88395E+03  4.43647E+03  2.30959E+03  1.99700E+03  5.17771E+03 -9.30958E+02  4.33293E+03
 -2.23980E+03  2.21548E+03 -2.29800E+03  8.49679E+02 -1.08645E+03  8.33351E+02 -1.76778E+03  1.91682E+03
 -1.84768E+03  3.21728E+03 -5.97150E+03  3.10283E+03 -9.27473E+03 -3.29359E+01 -9.90801E+03 -6.00666E+03
 -5.36930E+03 -1.18851E+04  2.69258E+03 -1.37202E+04  8.22966E+03 -1.06355E+04  1.26886E+04 -4.00363E+03
  1.21782E+04  2.60024E+03  7.27211E+03  7.74829E+03  6.44849E+02  9.20254E+03 -3.93216E+03  6.72434E+03
 -5.25671E+03  2.61520E+03 -2.95612E+03 -9.62729E+02 -9.32081E+02 -9.95059E+02 -3.93809E+02  8.73793E+01
 -1.59197E+03  3.02718E+02 -2.32341E+03 -2.18413E+02 -7.45338E+02 -1.73830E+03  2.08631E+02 -3.31883E+03
  4.40980E+03 -3.09939E+03  5.43817E+03 -2.28855E+02  6.31351E+03  4.85508E+03  1.75019E+03  9.37148E+03
 -4.14183E+03  1.03742E+04 -9.70169E+03  5.85447E+03 -1.10430E+04 -7.29720E+02 -8.21231E+03 -6.91928E+03
 -3.52181E+03 -9.45457E+03  2.37631E+03 -8.81702E+03  6.00580E+03 -4.55343E+03  5.80488E+03  1.10834E+02
  3.12982E+03  3.08012E+03  1.28991E+02  2.31689E+03 -2.04840E+03 -1.95367E+02  2.91164E+02 -2.03458E+03
  2.63731E+03 -1.57482E+03  3.49402E+03  1.25653E+03  2.38054E+03  3.75214E+03 -2.88381E+02  4.69733E+03
 -4.18996E+03  4.45730E+03 -5.92938E+03  7.43980E+02 -5.39723E+03 -4.53134E+03 -1.02555E+03 -7.61739E+03
  4.74259E+03 -6.21511E+03  7.13885E+03 -1.68214E+03  6.57732E+03  1.34139E+03  3.89670E+03  5.76424E+03
  9.19739E+02  6.01607E+03 -2.26217E+03  4.66650E+03 -3.80121E+03  2.53040E+03 -3.42727E+03  2.33998E+02
 -1.60156E+03 -2.88485E+01 -1.77148E+03  9.07762E+02 -3.21649E+03  1.23813E+03 -4.67794E+03 -8.60226E+02
 -4.68384E+03 -2.82996E+03 -1.30774E+03 -5.67642E+03  2.60689E+03 -6.66301E+03  5.25971E+03 -2.86932E+03
  5.83129E+03  1.30483E+03  3.28905E+03  4.50833E+03 -6.05668E+02  6.14494E+03 -4.17455E+03  4.04486E+03
