 $NMID ID='MM_0lb_SNR800_13hz_g50_58.RAW', FMTDAT='(8E13.5)'
 TRAMP=1., VOLUME=1. $END
  3.09786E+05  6.90525E+02  3.37577E+05  2.50824E+05  8.48768E+04  3.38128E+05 -1.32592E+05  2.51171E+05
 -1.90432E+05  8.34115E+04 -1.12098E+05 -3.24732E+04  6.37531E+02 -5.05693E+04  5.42168E+04  2.00247E+01
  3.52904E+04  5.29174E+04 -1.68702E+04  7.54597E+04 -6.10091E+04  6.40103E+04 -8.47164E+04  3.20738E+04
 -8.12574E+04 -1.18007E+04 -5.73294E+04 -5.15608E+04 -1.50695E+04 -6.99609E+04  2.78112E+04 -4.62502E+04
  3.99868E+04  3.63135E+03  1.62172E+04  4.80406E+04 -3.45982E+04  4.77446E+04 -6.67810E+04 -7.24361E+00
 -5.36773E+04 -5.67513E+04 -6.58808E+03 -7.77717E+04  3.39834E+04 -5.54648E+04  4.84410E+04 -1.76555E+04
  4.37536E+04  1.14628E+04  3.20827E+04  2.57171E+04  1.59443E+04  2.99248E+04 -5.16685E+03  2.75151E+04
 -2.20230E+04  1.22080E+04 -1.88225E+04 -5.08993E+03  6.25916E+03 -7.66982E+03  2.26694E+04  1.23155E+04
  7.08970E+03  3.56635E+04 -3.22985E+04  3.59849E+04 -6.38322E+04  2.50075E+03 -5.75083E+04 -4.29749E+04
 -1.29336E+04 -6.38559E+04  4.00729E+04 -4.59569E+04  5.86678E+04 -1.97443E+03  3.47629E+04  3.26540E+04
 -5.84612E+03  3.68749E+04 -3.04003E+04  1.67694E+04 -3.06412E+04 -4.02042E+03 -1.73711E+04 -1.11793E+04
 -8.43905E+03 -1.38241E+04 -3.42181E+02 -1.84163E+04  7.80838E+03 -2.33130E+04  1.55624E+04 -1.30008E+04
  1.08470E+04  5.45571E+03 -9.04346E+03  1.29952E+04 -2.15182E+04 -4.81684E+03 -8.47928E+03 -3.46422E+04
  2.33821E+04 -4.38757E+04  4.88114E+04 -1.97785E+04  4.61929E+04  1.99718E+04  1.58482E+04  4.44204E+04
 -1.61528E+04  3.42949E+04 -2.57890E+04  1.74260E+03 -1.00863E+04 -2.82782E+04  2.08229E+04 -3.46026E+04
  4.18761E+04 -9.40342E+03  3.65636E+04  2.43886E+04  1.86185E+04  4.73520E+04 -8.13949E+03  5.14964E+04
 -3.22807E+04  3.49435E+04 -4.33081E+04  9.97856E+03 -4.36638E+04 -1.71812E+04 -2.42205E+04 -3.89983E+04
  7.44485E+03 -3.89205E+04  3.23066E+04 -1.53120E+04  2.98277E+04  1.10815E+04  4.24895E+03  1.96345E+04
 -1.35339E+04  8.64683E+03 -1.04427E+04 -7.63405E+03  6.11675E+03 -1.06832E+04  1.84060E+04  6.11982E+03
  1.37423E+04  2.23390E+04 -5.92801E+03  2.52265E+04 -2.28456E+04  1.23483E+04 -2.86938E+04 -4.24269E+03
 -2.18460E+04 -1.75839E+04 -8.89146E+03 -2.14321E+04  4.08723E+03 -2.09805E+04  1.68446E+04 -1.89827E+04
  2.70552E+04 -1.32172E+04  3.36257E+04  3.19723E+03  2.47022E+04  2.07373E+04  4.39832E+03  3.72459E+04
 -1.79236E+04  3.10719E+04 -2.87487E+04  1.05639E+04 -2.12427E+04 -1.04853E+04 -4.44089E+03 -1.32098E+04
  1.65399E+03 -2.60365E+03 -5.35542E+03  6.80964E+03 -1.72283E+04  5.33032E+03 -1.71949E+04 -7.59945E+03
 -1.02893E+04 -2.02490E+04  5.39312E+03 -2.39038E+04  1.60819E+04 -1.72543E+04  1.88592E+04 -1.38179E+03
  1.19982E+04  1.37972E+04 -1.13416E+03  1.98259E+04 -1.40832E+04  1.15695E+04 -2.02699E+04 -4.11556E+03
 -1.45476E+04 -1.79362E+04 -1.83981E+03 -2.38805E+04  1.07589E+04 -1.98057E+04  2.00151E+04 -1.01714E+04
  1.88635E+04 -5.30880E+01  1.34512E+04  4.67916E+03  7.43130E+03  1.00631E+03  1.00939E+04 -1.83490E+03
  1.87991E+04  2.74821E+03  2.06443E+04  1.61581E+04  1.37716E+04  3.14138E+04 -2.65144E+03  3.61065E+04
 -2.10827E+04  2.90846E+04 -3.37253E+04  1.50053E+04 -3.57017E+04 -2.50230E+03 -2.96129E+04 -2.09362E+04
 -1.25920E+04 -2.94037E+04  1.00898E+04 -2.64914E+04  2.25865E+04 -1.35335E+04  2.00865E+04  5.87704E+03
  7.56470E+03  1.54220E+04 -9.16133E+03  1.33922E+04 -1.70663E+04  2.48338E+03 -1.32157E+04 -1.05295E+04
 -3.95896E+02 -1.62885E+04  8.48382E+03 -1.19747E+04  1.06295E+04 -1.50524E+03  2.59281E+03  6.81226E+03
 -7.45866E+03  2.74957E+03 -6.57894E+03 -6.01387E+03 -4.54969E+02 -1.42771E+04  9.79774E+03 -1.53867E+04
  1.80025E+04 -8.11361E+03  1.94567E+04  3.21047E+03  1.69142E+04  1.43225E+04  7.79735E+03  2.22366E+04
 -3.63966E+03  2.41222E+04 -1.54626E+04  1.46092E+04 -1.71218E+04  3.55319E+03 -1.20849E+04 -3.94604E+03
 -5.51875E+03 -5.78067E+03 -5.83829E+02  1.06100E+03 -2.36693E+03  3.07142E+03 -5.20072E+03  4.85171E+03
 -1.11399E+04 -5.82884E+02 -1.18975E+04 -9.42157E+03 -5.00177E+03 -1.55710E+04  4.74530E+03 -1.22209E+04
  1.02823E+04 -5.11424E+03  7.06856E+03  3.31929E+03 -1.76229E+02  4.58177E+03 -5.65776E+03 -4.21900E+00
 -5.40133E+03 -7.70175E+03 -8.89502E+02 -1.13095E+04  6.50101E+03 -1.19591E+04  1.53743E+04 -6.23716E+03
  1.77780E+04  1.47140E+03  1.30811E+04  1.04053E+04  2.44995E+03  1.42404E+04 -7.64307E+03  1.20646E+04
 -9.94409E+03  3.85407E+03 -5.15272E+03 -2.12425E+03  2.03172E+03 -3.40341E+03  6.15739E+03 -1.07703E+03
  5.74891E+03  5.35790E+03  8.29724E+02  9.71021E+03 -6.63129E+03  9.27044E+03 -1.14357E+04  2.56852E+03
 -7.78160E+03 -6.07474E+03  3.37354E+02 -1.03362E+04  6.21709E+03 -4.98811E+03  6.38056E+03  2.14338E+03
  1.17139E+03  6.64641E+03 -6.20780E+03  8.03174E+03 -8.93617E+03  4.15400E+03 -8.98186E+03 -3.36586E+03
 -5.48552E+03 -1.13474E+04  2.58883E+03 -1.22003E+04  1.08666E+04 -7.51106E+03  1.17462E+04  1.96173E+03
  7.29374E+03  9.18418E+03 -5.39817E+02  1.16140E+04 -8.41193E+03  6.51871E+03 -9.00905E+03 -4.29263E+02
 -8.16664E+03 -8.02026E+03 -1.66806E+03 -8.64815E+03  4.69376E+03 -7.04750E+03  5.20153E+03 -3.31345E+03
  3.60587E+03  1.08597E+03 -1.06671E+03  1.30860E+03  3.98303E+01 -1.65069E+03  1.26895E+03 -4.40174E+03
  7.71309E+03 -2.37405E+03  1.03916E+04  1.36752E+03  1.06473E+04  6.94856E+03  7.76065E+03  1.40146E+04
 -2.84098E+03  1.62924E+04 -1.38177E+04  1.17104E+04 -1.77048E+04  2.40291E+03 -1.41606E+04 -5.74202E+03
 -7.15118E+03 -1.16205E+04 -4.98912E+02 -1.01075E+04  3.50064E+03 -5.15641E+03  3.37952E+03 -3.64892E+03
  2.37674E+03 -2.13998E+03  3.17710E+03 -2.83566E+03  4.40192E+03 -2.47542E+03  5.73364E+03 -4.97032E+02
  7.52411E+03  1.70152E+03  3.16317E+03  6.41923E+03 -2.22326E+03  7.23917E+03 -7.55726E+03  5.30493E+03
 -9.43379E+03 -1.28421E+03 -5.45671E+03 -6.80719E+03 -5.86781E+02 -9.97207E+03  6.26454E+03 -1.04038E+04
  1.04418E+04 -5.79879E+03  1.30771E+04  1.53642E+03  9.08285E+03  8.72411E+03  1.36336E+03  1.14274E+04
 -4.60379E+03  1.02700E+04 -6.49010E+03  3.07019E+03 -4.34129E+03 -1.22790E+03 -1.81663E+03 -1.50265E+03
 -9.47314E+02  7.58307E+01 -1.86914E+03  2.47880E+03 -4.25090E+03  1.66190E+03 -7.30079E+03 -8.53751E+02
 -4.34361E+03 -6.89939E+03  6.16747E+02 -9.13547E+03  6.01453E+03 -8.47845E+03  8.65082E+03 -2.63288E+03
  8.79725E+03  4.27409E+03  3.96719E+03  7.87560E+03 -1.84425E+03  9.43414E+03 -6.33156E+03  5.60664E+03
 -8.69732E+03  5.88411E+02 -6.44432E+03 -5.36562E+03 -5.65938E+02 -7.55990E+03  3.79684E+03 -5.69340E+03
  5.70954E+03 -2.00427E+03  3.87712E+03  1.25467E+03  1.29581E+03  3.09204E+03  1.10796E+03  1.10072E+03
  2.15194E+03  7.54362E+02  2.52619E+03  1.28504E+03  2.63972E+03  3.32620E+03  2.69953E+03  4.61860E+03
 -1.92226E+03  6.86709E+03 -6.04465E+03  7.23122E+03 -8.60423E+03  2.01083E+03 -9.12152E+03 -2.89032E+03
 -4.27715E+03 -8.50097E+03  1.19918E+03 -1.01198E+04  5.18664E+03 -6.41876E+03  7.11638E+03 -1.71790E+03
  5.67231E+03  3.60176E+03  1.25618E+03  5.53858E+03 -2.17751E+03  3.29593E+03 -2.92903E+03 -5.67287E+02
 -1.44057E+03 -3.68667E+03  2.29170E+03 -3.88673E+03  3.34743E+03 -1.86180E+03  3.76588E+03  7.57692E+02
  1.95732E+03  1.58902E+03  1.40619E+03  1.29425E+03 -9.99319E+02  1.33962E+03  1.66771E+03 -6.02858E+02
  9.27687E+02 -4.77043E+02  3.95782E+03  1.64967E+03  1.41838E+03  4.77937E+03 -1.14591E+03  5.98287E+03
 -3.78054E+03  3.54625E+03 -5.25203E+03  1.04396E+03 -5.02309E+03 -1.88556E+03 -1.55605E+03 -2.87308E+03
  5.14721E+02 -3.10955E+03  2.11753E+03 -1.71149E+03  1.77323E+03  1.84429E+03 -7.31243E+02  2.89928E+03
 -3.55172E+03  1.55251E+03 -3.67069E+03 -2.15395E+03 -2.27972E+03 -4.58952E+03  7.48295E+02 -4.55643E+03
  2.38873E+03 -2.37554E+03  3.09241E+03 -3.39307E+01  2.76165E+03  7.98358E+02  3.45756E+02  2.47217E+03
 -1.44806E+03  6.99666E+02 -1.96352E+03 -1.18301E+03  7.67932E+02 -3.05956E+03  3.88156E+03 -2.76418E+03
  4.71854E+03  6.27844E+02  5.41827E+03  2.97708E+03  2.19150E+03  5.16065E+03 -1.42759E+03  5.05278E+03
 -4.26683E+03  1.83649E+03 -4.50742E+03 -9.05357E+02 -2.29310E+03 -3.19725E+03  9.37317E+02 -2.75878E+03
  3.37509E+03 -1.79745E+03  2.74907E+03  1.21614E+03  5.92144E+02  3.12349E+03 -2.24302E+02  2.29748E+03
 -8.11075E+02  1.81654E+03 -1.29737E+03  6.30160E+02 -6.08652E+02  9.20789E+02 -9.76838E+02  1.23809E+03
 -1.28118E+03  1.91406E+03 -3.64046E+03  1.77694E+03 -5.33844E+03  4.70403E+00 -5.78792E+03 -3.16597E+03
 -3.13768E+03 -6.95400E+03  1.35819E+03 -7.88073E+03  4.29875E+03 -6.10089E+03  7.51895E+03 -2.11995E+03
  6.66082E+03  8.37996E+02  4.08560E+03  4.73881E+03 -4.33071E+01  4.53360E+03 -2.12185E+03  4.05511E+03
 -2.70829E+03  1.53457E+03 -1.92020E+03 -3.22481E+02 -7.38504E+02 -9.70466E+00 -9.73324E+02  2.97387E+02
 -1.22597E+03 -4.74581E+02 -1.27841E+03 -5.54804E+01 -4.57458E+02 -1.10147E+03 -1.98987E+02 -2.06073E+03
  2.41380E+03 -1.77276E+03  2.44709E+03 -8.69633E+01  3.77274E+03  3.11002E+03  6.78354E+02  4.65599E+03
 -2.29922E+03  6.09413E+03 -5.15972E+03  3.58315E+03 -5.58880E+03 -5.02984E+02 -4.39743E+03 -4.02231E+03
 -2.48186E+03 -4.63934E+03  1.05251E+03 -4.53456E+03  3.22143E+03 -2.10211E+03  3.03115E+03  4.49732E+02
  1.97261E+03  1.47487E+03 -1.56271E+00  1.12705E+03 -1.00030E+03 -3.33552E+02  8.43548E+00 -1.18991E+03
  1.69031E+03 -3.46330E+02  1.72074E+03  9.70117E+02  9.58150E+02  1.64778E+03  5.40679E+02  2.25423E+03
 -2.10276E+03  1.89926E+03 -2.92352E+03  4.27299E+02 -3.01067E+03 -2.04659E+03 -6.26467E+01 -4.16264E+03
  2.06759E+03 -2.89329E+03  3.28898E+03 -1.13254E+03  3.56056E+03  5.31332E+02  2.27285E+03  2.80012E+03
  8.10039E+02  2.84371E+03 -8.25736E+02  2.63251E+03 -2.09373E+03  1.45222E+03 -1.62218E+03  2.83107E+01
 -8.96412E+02 -1.17603E+01 -9.19234E+02  6.20481E+02 -1.73299E+03  5.49987E+02 -2.33898E+03 -5.66896E+02
 -2.57001E+03 -1.25653E+03 -7.59404E+02 -3.04180E+03  1.42882E+03 -3.54454E+03  2.33978E+03 -1.80021E+03
  2.73205E+03  4.75433E+02  1.34574E+03  2.29005E+03 -3.37769E+02  3.16531E+03 -1.92035E+03  2.03586E+03
