 $NMID ID='MM_0lb_SNR800_16hz_g45_94.RAW', FMTDAT='(8E13.5)'
 TRAMP=1., VOLUME=1. $END
  3.10002E+05  3.82420E+02  3.37537E+05  2.50572E+05  8.45529E+04  3.37526E+05 -1.32472E+05  2.50685E+05
 -1.89844E+05  8.27539E+04 -1.11313E+05 -3.29357E+04  1.44061E+03 -5.03988E+04  5.38506E+04  9.37183E+01
  3.49680E+04  5.28461E+04 -1.67860E+04  7.49849E+04 -6.06997E+04  6.30825E+04 -8.35104E+04  3.17126E+04
 -7.99426E+04 -1.11358E+04 -5.69420E+04 -5.07104E+04 -1.48876E+04 -6.87255E+04  2.69065E+04 -4.50852E+04
  3.96043E+04  3.74269E+03  1.56044E+04  4.76656E+04 -3.40578E+04  4.67651E+04 -6.56735E+04 -6.61689E+02
 -5.25925E+04 -5.59951E+04 -6.28869E+03 -7.59443E+04  3.33808E+04 -5.40224E+04  4.70294E+04 -1.65299E+04
  4.24254E+04  1.10473E+04  3.13825E+04  2.49854E+04  1.57406E+04  2.89890E+04 -5.01427E+03  2.69927E+04
 -2.19293E+04  1.25291E+04 -1.90423E+04 -4.54466E+03  4.86961E+03 -7.43033E+03  2.15731E+04  1.15979E+04
  7.66355E+03  3.41501E+04 -3.11084E+04  3.46341E+04 -6.20906E+04  2.20349E+03 -5.61239E+04 -4.20430E+04
 -1.24533E+04 -6.18277E+04  3.89383E+04 -4.43891E+04  5.68327E+04 -2.10281E+03  3.29378E+04  3.13801E+04
 -6.15146E+03  3.46826E+04 -2.90947E+04  1.46156E+04 -2.87655E+04 -5.03956E+03 -1.54250E+04 -1.00703E+04
 -7.67268E+03 -1.23991E+04 -1.08159E+03 -1.71437E+04  7.21155E+03 -2.26823E+04  1.52590E+04 -1.38737E+04
  1.19194E+04  4.82848E+03 -7.19139E+03  1.29133E+04 -2.03067E+04 -3.37487E+03 -8.07281E+03 -3.22026E+04
  2.18848E+04 -4.17066E+04  4.64328E+04 -1.89850E+04  4.34442E+04  1.85646E+04  1.49667E+04  4.28642E+04
 -1.55322E+04  3.21255E+04 -2.40105E+04  1.35569E+03 -8.80402E+03 -2.69371E+04  2.06048E+04 -3.26768E+04
  3.93601E+04 -8.05919E+03  3.34266E+04  2.28993E+04  1.65358E+04  4.44546E+04 -7.82585E+03  4.76385E+04
 -2.99828E+04  3.16428E+04 -3.97130E+04  8.93811E+03 -4.01349E+04 -1.57479E+04 -2.23987E+04 -3.60395E+04
  7.31209E+03 -3.58733E+04  3.02187E+04 -1.38651E+04  2.77473E+04  1.07880E+04  3.32542E+03  1.84613E+04
 -1.33860E+04  7.75376E+03 -1.01002E+04 -7.76684E+03  6.22612E+03 -1.04007E+04  1.75927E+04  6.49953E+03
  1.30873E+04  2.18586E+04 -6.14735E+03  2.41839E+04 -2.18855E+04  1.02306E+04 -2.66641E+04 -5.66033E+03
 -1.83479E+04 -1.66552E+04 -6.76546E+03 -1.83676E+04  3.91967E+03 -1.69972E+04  1.41776E+04 -1.61004E+04
  2.34471E+04 -1.16592E+04  3.01974E+04  1.88373E+03  2.25286E+04  1.80471E+04  4.07061E+03  3.43741E+04
 -1.65912E+04  2.90347E+04 -2.67322E+04  9.94081E+03 -2.04332E+04 -1.01917E+04 -4.37489E+03 -1.34429E+04
  2.15463E+03 -3.62438E+03 -3.75861E+03  6.12548E+03 -1.43840E+04  5.28682E+03 -1.49104E+04 -5.86946E+03
 -9.27829E+03 -1.67320E+04  4.82689E+03 -2.10902E+04  1.37951E+04 -1.52515E+04  1.62408E+04 -1.47477E+03
  1.01154E+04  1.20740E+04 -9.08893E+02  1.73763E+04 -1.17539E+04  9.72919E+03 -1.72279E+04 -3.90194E+03
 -1.26598E+04 -1.53350E+04 -1.54410E+03 -2.09429E+04  9.39050E+03 -1.68485E+04  1.75085E+04 -8.15517E+03
  1.59558E+04  5.69515E+02  1.13177E+04  4.38402E+03  5.76000E+03  4.42583E+02  8.27775E+03 -1.40710E+03
  1.55782E+04  2.82608E+03  1.70659E+04  1.38134E+04  1.07929E+04  2.75269E+04 -3.08679E+03  3.00030E+04
 -1.75763E+04  2.36343E+04 -2.79707E+04  1.14383E+04 -2.87806E+04 -2.26995E+03 -2.44878E+04 -1.67801E+04
 -1.09074E+04 -2.36818E+04  7.88005E+03 -2.20289E+04  1.88333E+04 -1.17311E+04  1.72460E+04  4.66443E+03
  7.13607E+03  1.27616E+04 -8.10930E+03  1.13356E+04 -1.46640E+04  2.35889E+03 -1.12119E+04 -8.96980E+03
 -1.52884E+02 -1.39336E+04  6.80215E+03 -1.06404E+04  8.97055E+03 -1.34435E+03  1.77453E+03  5.78252E+03
 -6.16790E+03  1.56862E+03 -4.61027E+03 -5.35315E+03  4.36383E+02 -1.18142E+04  8.60016E+03 -1.20560E+04
  1.41978E+04 -6.00458E+03  1.47305E+04  2.72301E+03  1.26546E+04  1.10473E+04  5.99853E+03  1.68095E+04
 -2.44790E+03  1.87509E+04 -1.19177E+04  1.18426E+04 -1.34137E+04  2.93573E+03 -9.73222E+03 -2.73635E+03
 -4.89233E+03 -4.03157E+03 -9.82920E+02  1.15886E+03 -2.36306E+03  2.25216E+03 -4.30435E+03  3.80593E+03
 -8.94187E+03 -4.62264E+02 -1.00837E+04 -7.88299E+03 -4.10361E+03 -1.28452E+04  3.71349E+03 -9.91776E+03
  8.33832E+03 -4.11359E+03  6.13192E+03  2.64838E+03  6.20754E+02  3.83471E+03 -4.21385E+03 -2.26640E+01
 -4.10974E+03 -6.22995E+03 -9.65876E+02 -8.52855E+03  5.00067E+03 -9.60642E+03  1.16406E+04 -5.03448E+03
  1.38078E+04  1.14254E+03  1.04723E+04  7.73640E+03  2.12591E+03  1.04969E+04 -6.13725E+03  9.57649E+03
 -7.89488E+03  3.09417E+03 -4.11808E+03 -1.58688E+03  1.33505E+03 -2.43945E+03  5.34624E+03 -8.68484E+02
  4.69052E+03  4.27511E+03  1.09795E+03  7.42124E+03 -5.37437E+03  7.51916E+03 -9.24087E+03  1.80546E+03
 -5.81052E+03 -4.29571E+03  4.50516E+02 -7.91430E+03  4.71816E+03 -3.83761E+03  4.78730E+03  1.25919E+03
  9.29638E+02  4.31056E+03 -4.46325E+03  5.79148E+03 -6.27107E+03  2.78460E+03 -6.24388E+03 -2.14367E+03
 -3.63984E+03 -7.82396E+03  1.67100E+03 -8.78631E+03  7.67956E+03 -5.59713E+03  8.19684E+03  1.20613E+03
  5.71247E+03  6.71906E+03 -1.36545E+02  8.60599E+03 -6.12890E+03  5.12315E+03 -6.39012E+03 -7.77224E+02
 -6.66509E+03 -6.16147E+03 -1.39827E+03 -6.36539E+03  3.10506E+03 -5.08703E+03  3.70554E+03 -3.10592E+03
  3.27906E+03  4.62073E+02 -5.54923E+00  1.30466E+03  3.46718E+02 -4.91622E+02  1.75787E+02 -2.59944E+03
  5.24362E+03 -1.36970E+03  7.22561E+03  7.88266E+02  7.57441E+03  4.55172E+03  6.07526E+03  9.37168E+03
 -1.86326E+03  1.12614E+04 -9.76903E+03  8.42240E+03 -1.24225E+04  1.50370E+03 -1.01149E+04 -3.79555E+03
 -5.20749E+03 -8.34582E+03 -4.07411E+02 -6.63605E+03  2.63857E+03 -3.10504E+03  2.38735E+03 -2.69874E+03
  1.69073E+03 -2.07646E+03  2.38356E+03 -2.73868E+03  4.18777E+03 -1.86746E+03  4.25605E+03  3.66486E+01
  5.84382E+03  1.36314E+03  1.62421E+03  4.28726E+03 -1.69419E+03  4.30797E+03 -5.38498E+03  3.37798E+03
 -6.49501E+03 -8.09773E+02 -3.18871E+03 -4.35072E+03  3.21616E+02 -6.88939E+03  4.24649E+03 -7.00498E+03
  6.85836E+03 -4.24492E+03  8.90311E+03  8.54140E+02  6.30104E+03  6.01677E+03  1.06843E+03  7.99715E+03
 -3.11222E+03  7.27751E+03 -4.42979E+03  2.57205E+03 -2.87307E+03 -9.95311E+02 -8.08267E+02 -9.18185E+02
 -7.53677E+02  5.14119E+02 -1.01364E+03  2.27820E+03 -2.89815E+03  1.04007E+03 -5.35023E+03 -6.02696E+02
 -2.65321E+03 -5.12842E+03  9.37850E+02 -6.09333E+03  3.87426E+03 -5.62518E+03  5.48480E+03 -1.36687E+03
  5.83387E+03  3.13777E+03  2.65632E+03  5.28759E+03 -1.27393E+03  6.21220E+03 -3.99918E+03  3.48667E+03
 -5.42021E+03  6.35100E+02 -4.64400E+03 -3.34625E+03 -1.98302E+02 -4.57076E+03  2.02772E+03 -3.55473E+03
  3.66205E+03 -1.72431E+03  2.50080E+03  6.98316E+02  7.40168E+02  2.05390E+03  9.37994E+02  8.82455E+02
  2.04853E+03  7.74372E+02  1.60387E+03  1.02056E+03  1.52796E+03  2.81982E+03  1.88977E+03  2.69206E+03
 -1.44765E+03  4.50184E+03 -3.83833E+03  5.13541E+03 -5.03440E+03  1.61408E+03 -5.87832E+03 -1.39542E+03
 -2.54796E+03 -5.38131E+03  8.15013E+02 -6.23056E+03  3.30811E+03 -3.85922E+03  4.48338E+03 -1.24116E+03
  3.48930E+03  2.17822E+03  6.19932E+02  3.35089E+03 -9.44769E+02  1.84174E+03 -1.90138E+03  6.41173E+01
 -9.33235E+02 -2.37745E+03  1.39903E+03 -2.19403E+03  2.02350E+03 -1.27547E+03  2.12833E+03  5.43779E+02
  1.12650E+03  7.13264E+02  5.61014E+02  3.63459E+02 -2.48049E+02  7.92134E+02  1.73371E+03 -2.57403E+02
 -1.49838E+02 -4.15298E+02  2.70977E+03  9.18312E+02  5.22244E+02  3.10305E+03 -4.89220E+02  4.09370E+03
 -2.30590E+03  1.54094E+03 -2.81418E+03  8.22151E+02 -2.97379E+03 -1.05033E+03 -8.21774E+02 -1.70833E+03
  1.74221E+02 -1.81637E+03  1.68221E+03 -1.16040E+03  8.08902E+02  1.59055E+03 -1.02617E+03  1.66871E+03
 -2.17534E+03  7.39069E+02 -2.11361E+03 -1.66572E+03 -1.43980E+03 -2.72306E+03  2.63457E+02 -2.50270E+03
  9.70345E+02 -1.07426E+03  1.33614E+03  2.29012E+02  1.76646E+03  1.59649E+02  9.85626E+01  1.58451E+03
 -8.22136E+02  2.75936E+02 -1.41835E+03 -6.92124E+02  9.36622E+02 -1.60825E+03  2.68020E+03 -1.31363E+03
  2.40880E+03  4.68997E+02  3.64549E+03  1.67234E+03  1.39222E+03  3.12691E+03 -8.08934E+02  2.67462E+03
 -2.38529E+03  7.15934E+02 -2.69999E+03 -2.09522E+02 -1.53730E+03 -2.07146E+03  5.31400E+02 -1.18967E+03
  2.08398E+03 -9.71956E+02  1.44295E+03  1.03663E+03  5.43073E+02  1.96980E+03  2.79666E+02  1.70215E+03
 -5.98658E+02  1.44711E+03 -4.91303E+02  4.72744E+02 -2.20297E+02  5.64550E+02 -5.66861E+02  9.76986E+02
 -1.06109E+03  1.63824E+03 -2.45208E+03  7.49868E+02 -2.61108E+03  2.91518E+02 -3.30306E+03 -1.78948E+03
 -1.66707E+03 -3.80522E+03  7.73852E+02 -4.14621E+03  1.82679E+03 -4.02393E+03  4.15647E+03 -1.49517E+03
  3.70428E+03  1.96679E+02  1.89351E+03  2.55650E+03 -2.31245E+02  2.59747E+03 -1.30526E+03  1.80153E+03
 -1.33148E+03  9.87495E+02 -8.82808E+02 -5.12832E+02 -3.64368E+02  1.79987E+01 -6.60498E+02  8.06788E+01
 -1.07483E+03  1.11002E+02 -9.96157E+02  3.71957E+01  1.31042E+02 -8.90772E+02 -1.20730E+02 -1.36346E+03
  1.37927E+03 -9.31254E+02  1.25194E+03 -6.09924E+00  1.79473E+03  1.61985E+03 -7.67444E+01  2.30538E+03
 -1.45989E+03  3.49991E+03 -2.85481E+03  2.03784E+03 -3.43298E+03 -4.22700E+02 -1.98969E+03 -2.05619E+03
 -1.29446E+03 -2.35847E+03  4.33405E+02 -2.46164E+03  1.13955E+03 -1.14053E+03  1.14519E+03  6.06718E+01
  9.46921E+02  8.64829E+02  2.66013E+01  3.93236E+02 -5.76750E+02  1.18077E+01 -2.69307E+02 -4.36416E+02
  5.81773E+02  1.98038E+02  7.71096E+02  2.30715E+02  5.09481E+02  8.60482E+02  5.58622E+02  7.26193E+02
 -9.87166E+02  1.04679E+03 -1.22959E+03  2.19988E+02 -1.23721E+03 -8.47462E+02  2.94046E+01 -1.98013E+03
  9.72998E+02 -1.68366E+03  1.36988E+03 -4.07244E+02  1.63836E+03 -1.07970E+02  1.07993E+03  1.40709E+03
  7.02677E+02  1.35210E+03 -5.09835E+02  1.15073E+03 -7.58868E+02  7.81238E+02 -7.58588E+02  4.86727E+01
 -2.53929E+02 -2.23932E+02 -7.43818E+02 -1.67177E+00 -8.97960E+02  3.90967E+02 -1.42941E+03 -1.21567E+01
 -1.77168E+03 -2.85211E+02 -4.35974E+02 -1.57686E+03  9.48736E+02 -1.98868E+03  1.00679E+03 -7.20965E+02
  1.10475E+03  4.51832E+02  7.35470E+01  7.65201E+02 -1.31697E+01  1.21731E+03 -9.74912E+02  1.36961E+03
