 $NMID ID='MM_0lb_SNR800_8hz_g60_53.RAW', FMTDAT='(8E13.5)'
 TRAMP=1., VOLUME=1. $END
  3.09619E+05  1.52140E+02  3.37951E+05  2.50437E+05  8.49599E+04  3.38361E+05 -1.32586E+05  2.52773E+05
 -1.91070E+05  8.46032E+04 -1.13007E+05 -3.20633E+04  1.02287E+02 -5.08738E+04  5.38126E+04 -2.05761E+01
  3.58183E+04  5.30328E+04 -1.66415E+04  7.65544E+04 -6.11512E+04  6.50078E+04 -8.57894E+04  3.28711E+04
 -8.28735E+04 -1.16250E+04 -5.88797E+04 -5.28056E+04 -1.55107E+04 -7.18293E+04  2.84936E+04 -4.73935E+04
  4.14907E+04  3.54626E+03  1.71189E+04  4.88988E+04 -3.53365E+04  4.85262E+04 -6.86865E+04  3.30332E+02
 -5.56092E+04 -5.82754E+04 -7.60739E+03 -7.98975E+04  3.47516E+04 -5.78956E+04  5.06920E+04 -1.87934E+04
  4.59683E+04  1.12898E+04  3.30778E+04  2.71133E+04  1.56617E+04  3.15136E+04 -6.12663E+03  2.78186E+04
 -2.26686E+04  1.19088E+04 -1.80054E+04 -5.38499E+03  7.75811E+03 -7.43956E+03  2.35787E+04  1.45761E+04
  6.92410E+03  3.83214E+04 -3.48647E+04  3.76685E+04 -6.70029E+04  1.97994E+03 -5.93116E+04 -4.52479E+04
 -1.22721E+04 -6.72583E+04  4.19562E+04 -4.84795E+04  6.24685E+04 -2.47111E+03  3.78358E+04  3.51843E+04
 -5.29824E+03  4.08348E+04 -3.27604E+04  1.98626E+04 -3.44461E+04 -2.65115E+03 -2.05461E+04 -1.21836E+04
 -1.01303E+04 -1.57788E+04 -5.21550E+02 -2.05817E+04  9.12729E+03 -2.36783E+04  1.61394E+04 -1.21605E+04
  1.01467E+04  6.50111E+03 -1.13597E+04  1.24380E+04 -2.40768E+04 -7.48919E+03 -8.97160E+03 -3.89351E+04
  2.62638E+04 -4.83012E+04  5.33421E+04 -2.15272E+04  5.02010E+04  2.17789E+04  1.80793E+04  4.83010E+04
 -1.68375E+04  3.72808E+04 -2.84651E+04  2.81301E+03 -1.26226E+04 -3.03407E+04  2.16584E+04 -3.81556E+04
  4.57854E+04 -1.24559E+04  4.27305E+04  2.55238E+04  2.27684E+04  5.30367E+04 -8.68825E+03  5.87001E+04
 -3.65450E+04  4.00351E+04 -4.98866E+04  1.16162E+04 -4.95034E+04 -1.95391E+04 -2.70593E+04 -4.42795E+04
  7.57036E+03 -4.38376E+04  3.54712E+04 -1.82849E+04  3.34817E+04  1.13869E+04  5.55453E+03  2.14775E+04
 -1.43278E+04  1.03364E+04 -1.19169E+04 -8.32719E+03  5.81178E+03 -1.15034E+04  1.93524E+04  5.43200E+03
  1.55026E+04  2.30507E+04 -5.06918E+03  2.82134E+04 -2.37485E+04  1.54100E+04 -3.26045E+04 -2.14323E+03
 -2.78264E+04 -1.90487E+04 -1.33490E+04 -2.66302E+04  4.59564E+03 -2.76806E+04  2.10997E+04 -2.49748E+04
  3.44241E+04 -1.51786E+04  4.03643E+04  5.64481E+03  2.88461E+04  2.70288E+04  4.39668E+03  4.34259E+04
 -2.06100E+04  3.51540E+04 -3.17505E+04  1.20908E+04 -2.29926E+04 -1.05723E+04 -5.09195E+03 -1.27772E+04
  1.92456E+02 -6.25218E+02 -8.97207E+03  8.61431E+03 -2.17854E+04  5.49992E+03 -2.13646E+04 -1.05163E+04
 -1.23754E+04 -2.52031E+04  6.40277E+03 -2.95956E+04  1.99835E+04 -2.12757E+04  2.43485E+04 -1.67536E+03
  1.57353E+04  1.77275E+04 -2.00044E+03  2.51146E+04 -1.87061E+04  1.41245E+04 -2.53031E+04 -5.07023E+03
 -1.84307E+04 -2.24170E+04 -2.51746E+03 -2.98159E+04  1.35539E+04 -2.51485E+04  2.49364E+04 -1.29306E+04
  2.39952E+04 -1.01271E+03  1.71234E+04  5.63688E+03  9.63476E+03  2.17261E+03  1.40553E+04 -2.21962E+03
  2.40372E+04  2.95320E+03  2.81023E+04  1.91348E+04  1.92170E+04  4.05352E+04 -2.57470E+03  4.81741E+04
 -2.76232E+04  4.13012E+04 -4.56697E+04  2.15089E+04 -4.96199E+04 -3.53593E+03 -3.99444E+04 -2.87170E+04
 -1.53716E+04 -4.13217E+04  1.47973E+04 -3.61883E+04  3.06981E+04 -1.64841E+04  2.65534E+04  8.92475E+03
  8.75517E+03  2.04510E+04 -1.25959E+04  1.69115E+04 -2.16200E+04  2.68348E+03 -1.63307E+04 -1.41676E+04
 -4.24407E+02 -2.12497E+04  1.14496E+04 -1.54292E+04  1.47826E+04 -1.18520E+03  3.22962E+03  9.63173E+03
 -9.68692E+03  4.95892E+03 -1.06762E+04 -7.63675E+03 -2.28823E+03 -2.02649E+04  1.26675E+04 -2.20363E+04
  2.55490E+04 -1.27057E+04  2.96668E+04  3.40372E+03  2.57544E+04  2.09351E+04  1.17114E+04  3.32346E+04
 -6.47112E+03  3.49780E+04 -2.30352E+04  2.16624E+04 -2.54275E+04  4.25347E+03 -1.71069E+04 -6.91048E+03
 -6.78275E+03 -8.95654E+03 -4.70320E+02 -2.40899E+02 -3.53050E+03  3.65441E+03 -8.49266E+03  6.03735E+03
 -1.57406E+04 -7.06048E+02 -1.68714E+04 -1.24770E+04 -6.67696E+03 -2.13253E+04  7.66664E+03 -1.75295E+04
  1.45194E+04 -6.94511E+03  1.03342E+04  4.88085E+03 -2.91622E+02  6.99769E+03 -9.01237E+03 -5.65505E+02
 -8.37231E+03 -1.17193E+04 -1.12408E+03 -1.75123E+04  1.02561E+04 -1.87962E+04  2.27358E+04 -1.03000E+04
  2.59679E+04  3.13034E+03  1.91394E+04  1.69425E+04  4.14473E+03  2.18507E+04 -1.12544E+04  1.78928E+04
 -1.42721E+04  5.16740E+03 -7.65615E+03 -4.14640E+03  1.95931E+03 -5.35013E+03  9.59262E+03 -1.30237E+03
  8.08145E+03  7.73773E+03  1.48178E+03  1.40809E+04 -1.00927E+04  1.33414E+04 -1.76474E+04  2.94726E+03
 -1.22607E+04 -9.30891E+03 -1.46308E+02 -1.53562E+04  1.00422E+04 -7.97113E+03  1.06814E+04  3.85510E+03
  2.78260E+03  1.18239E+04 -9.85533E+03  1.32793E+04 -1.64711E+04  5.89973E+03 -1.65047E+04 -6.05323E+03
 -9.15722E+03 -1.87769E+04  4.46899E+03 -2.10819E+04  1.80095E+04 -1.27863E+04  1.94457E+04  3.71266E+03
  1.09913E+04  1.55570E+04 -2.16280E+03  1.83419E+04 -1.34605E+04  1.02519E+04 -1.51336E+04 -1.40981E+03
 -1.19330E+04 -1.23332E+04 -1.88716E+03 -1.40970E+04  7.57491E+03 -1.06640E+04  9.35279E+03 -3.91557E+03
  5.91746E+03  2.54314E+03 -1.42201E+03  2.15035E+03 -1.22794E+03 -4.17472E+03  3.56556E+03 -9.07561E+03
  1.38481E+04 -5.70755E+03  1.92554E+04  2.10524E+03  1.82366E+04  1.35410E+04  1.17095E+04  2.53801E+04
 -5.90153E+03  2.83149E+04 -2.32955E+04  2.06953E+04 -2.98598E+04  3.95981E+03 -2.43168E+04 -1.10207E+04
 -1.18764E+04 -1.97673E+04 -5.77490E+02 -1.67644E+04  6.16988E+03 -9.72106E+03  6.71574E+03 -6.12600E+03
  4.85446E+03 -3.85742E+03  4.50811E+03 -4.94689E+03  6.76575E+03 -4.18677E+03  9.19089E+03 -1.61284E+03
  1.26321E+04  2.70203E+03  7.25287E+03  1.12774E+04 -2.19883E+03  1.36940E+04 -1.33111E+04  1.01882E+04
 -1.74105E+04 -1.81107E+03 -1.15938E+04 -1.21974E+04 -1.58524E+03 -1.85266E+04  1.06684E+04 -1.91150E+04
  2.00496E+04 -1.02893E+04  2.31618E+04  3.06435E+03  1.60524E+04  1.66743E+04  2.07076E+03  2.09135E+04
 -9.32481E+03  1.74100E+04 -1.22838E+04  5.79817E+03 -8.09041E+03 -1.93213E+03 -3.33305E+03 -3.01607E+03
 -2.11774E+03  2.18313E+02 -3.00435E+03  2.92793E+03 -6.90317E+03  3.08191E+03 -1.25618E+04 -1.92211E+03
 -8.88307E+03 -1.21653E+04 -4.96876E+02 -1.72098E+04  1.10325E+04 -1.62747E+04  1.85188E+04 -5.00195E+03
  1.74128E+04  8.71847E+03  8.11458E+03  1.62011E+04 -3.37840E+03  1.76915E+04 -1.33546E+04  1.15983E+04
 -1.68685E+04  5.02798E+02 -1.30049E+04 -1.05830E+04 -1.58074E+03 -1.50654E+04  7.49113E+03 -1.15076E+04
  1.14880E+04 -3.68726E+03  7.41053E+03  3.39082E+03  3.00542E+03  5.39025E+03  1.59093E+03  2.74552E+03
  2.74531E+03  1.04485E+03  3.88197E+03  2.27603E+03  5.38101E+03  6.39044E+03  4.95480E+03  9.85049E+03
 -3.31703E+03  1.44420E+04 -1.23307E+04  1.40634E+04 -1.87812E+04  3.41770E+03 -1.94911E+04 -8.19696E+03
 -9.14056E+03 -1.83543E+04  2.49350E+03 -2.00929E+04  1.12131E+04 -1.29335E+04  1.51231E+04 -3.09158E+03
  1.10313E+04  6.67778E+03  2.80740E+03  1.10672E+04 -5.51953E+03  7.08832E+03 -7.83856E+03 -1.33642E+03
 -3.58299E+03 -7.88384E+03  4.53681E+03 -7.76748E+03  7.14251E+03 -4.24477E+03  7.81396E+03  1.79995E+03
  4.75577E+03  3.90401E+03  1.86519E+03  3.48063E+03 -7.58541E+02  2.91794E+03  1.60159E+03 -6.57747E+02
  3.29620E+03 -1.15855E+03  7.68494E+03  2.79494E+03  3.96871E+03  1.02661E+04 -1.78503E+03  1.29984E+04
 -9.37742E+03  9.14948E+03 -1.21937E+04  2.46894E+03 -1.06276E+04 -4.36797E+03 -4.30058E+03 -7.43709E+03
  9.91325E+02 -6.93330E+03  4.96224E+03 -3.37379E+03  4.32848E+03  3.72257E+03 -1.67079E+03  6.06371E+03
 -8.18869E+03  3.92264E+03 -9.29709E+03 -4.42650E+03 -5.19377E+03 -1.03464E+04  1.66533E+03 -1.08011E+04
  6.46167E+03 -6.25552E+03  8.65668E+03 -9.47514E+02  6.58536E+03  2.99786E+03  6.23627E+02  5.76676E+03
 -3.41752E+03  1.60903E+03 -4.73756E+03 -4.10324E+03  2.05862E+03 -9.02131E+03  9.03728E+03 -6.76114E+03
  1.23488E+04  9.92434E+02  1.14318E+04  8.64197E+03  3.62212E+03  1.30939E+04 -4.55550E+03  1.18528E+04
 -1.00204E+04  5.39788E+03 -1.10650E+04 -1.79816E+03 -6.28293E+03 -7.81137E+03  1.95073E+03 -8.07823E+03
  7.87181E+03 -4.35633E+03  6.63936E+03  3.40383E+03  2.19750E+03  6.69367E+03 -1.11462E+03  5.92668E+03
 -3.62746E+03  3.34177E+03 -3.28747E+03  1.48491E+03 -1.37266E+03  1.25860E+03 -1.87350E+03  2.29842E+03
 -3.00887E+03  4.79093E+03 -8.50645E+03  4.58844E+03 -1.28205E+04 -1.66502E+01 -1.42748E+04 -8.45715E+03
 -7.60594E+03 -1.67983E+04  3.28045E+03 -1.95250E+04  1.25168E+04 -1.51145E+04  1.88316E+04 -5.65396E+03
  1.76372E+04  3.93350E+03  1.08134E+04  1.15830E+04  1.20036E+03  1.34865E+04 -5.70646E+03  1.01054E+04
 -7.85490E+03  3.40264E+03 -4.33233E+03 -1.59865E+03 -1.12821E+03 -1.21118E+03 -3.86016E+02  5.38776E+01
 -1.98382E+03 -7.22956E+01 -2.25636E+03 -8.20884E+02 -1.04221E+03 -2.93290E+03  2.08166E+02 -5.10809E+03
  5.61982E+03 -4.32467E+03  8.13230E+03  5.84365E+02  9.46289E+03  7.06221E+03  2.51196E+03  1.36584E+04
 -6.19994E+03  1.58148E+04 -1.44067E+04  9.12593E+03 -1.65327E+04 -1.61554E+03 -1.26788E+04 -1.03874E+04
 -5.28505E+03 -1.37951E+04  3.83731E+03 -1.31669E+04  8.82393E+03 -6.62865E+03  9.12294E+03  6.40887E+02
  4.78574E+03  4.70671E+03 -8.50838E+02  4.07734E+03 -2.45948E+03 -3.74783E+02  4.05717E+02 -3.63723E+03
  4.25004E+03 -2.45092E+03  5.92290E+03  1.54709E+03  4.17754E+03  5.87395E+03 -4.62075E+01  7.03480E+03
 -5.95997E+03  6.56963E+03 -9.43576E+03  6.16638E+02 -8.03744E+03 -6.93962E+03 -1.18744E+03 -1.15328E+04
  6.13679E+03 -9.69600E+03  1.02588E+04 -2.97314E+03  1.10678E+04  2.93564E+03  5.93915E+03  8.80401E+03
  1.09322E+03  9.33704E+03 -3.82109E+03  7.84872E+03 -5.83636E+03  3.72776E+03 -4.60769E+03  6.76124E+02
 -3.03914E+03 -3.79972E+02 -2.49802E+03  1.56952E+03 -4.83912E+03  1.45431E+03 -6.95517E+03 -1.02028E+03
 -6.93044E+03 -4.95668E+03 -1.92898E+03 -9.20028E+03  4.12815E+03 -9.68657E+03  8.53540E+03 -4.61118E+03
  9.41922E+03  1.41205E+03  5.72102E+03  7.15856E+03 -8.36899E+02  9.47804E+03 -7.32571E+03  5.92094E+03
