 $NMID ID='MM_0lb_SNR800_13hz_g50_3.RAW', FMTDAT='(8E13.5)'
 TRAMP=1., VOLUME=1. $END
  3.09510E+05  3.73832E+02  3.37556E+05  2.50402E+05  8.49197E+04  3.37547E+05 -1.32509E+05  2.51433E+05
 -1.90527E+05  8.32020E+04 -1.12040E+05 -3.24551E+04  7.22988E+02 -5.07829E+04  5.38644E+04 -3.06398E+01
  3.52910E+04  5.29708E+04 -1.68445E+04  7.55946E+04 -6.11656E+04  6.34890E+04 -8.43339E+04  3.21348E+04
 -8.11267E+04 -1.15832E+04 -5.72235E+04 -5.16628E+04 -1.52720E+04 -7.03657E+04  2.77021E+04 -4.60816E+04
  4.05156E+04  3.79255E+03  1.60635E+04  4.78123E+04 -3.46013E+04  4.71468E+04 -6.67503E+04  2.28788E+02
 -5.37180E+04 -5.70292E+04 -6.83124E+03 -7.72587E+04  3.40892E+04 -5.55768E+04  4.80564E+04 -1.73613E+04
  4.38710E+04  1.13920E+04  3.23098E+04  2.59362E+04  1.55638E+04  2.96374E+04 -5.61008E+03  2.71076E+04
 -2.21071E+04  1.21587E+04 -1.84455E+04 -5.31505E+03  6.08509E+03 -7.36258E+03  2.25367E+04  1.27694E+04
  7.26830E+03  3.57513E+04 -3.25256E+04  3.59647E+04 -6.38538E+04  1.97147E+03 -5.76128E+04 -4.29969E+04
 -1.25574E+04 -6.36523E+04  4.01953E+04 -4.60362E+04  5.88233E+04 -2.19767E+03  3.44763E+04  3.27496E+04
 -5.82436E+03  3.69727E+04 -3.04189E+04  1.63585E+04 -3.15804E+04 -4.31009E+03 -1.73592E+04 -1.16170E+04
 -8.43740E+03 -1.33902E+04 -6.75536E+02 -1.82574E+04  7.59334E+03 -2.30737E+04  1.54153E+04 -1.31077E+04
  1.14564E+04  5.12372E+03 -9.06148E+03  1.28225E+04 -2.16150E+04 -5.07791E+03 -8.33459E+03 -3.44087E+04
  2.33810E+04 -4.45147E+04  4.92819E+04 -1.99481E+04  4.56856E+04  1.98531E+04  1.61088E+04  4.48446E+04
 -1.62875E+04  3.38309E+04 -2.59858E+04  2.03992E+03 -1.04182E+04 -2.80788E+04  2.10448E+04 -3.45670E+04
  4.19327E+04 -9.58240E+03  3.66194E+04  2.39146E+04  1.86227E+04  4.76057E+04 -8.31437E+03  5.16567E+04
 -3.22697E+04  3.48160E+04 -4.32952E+04  9.86568E+03 -4.35351E+04 -1.71766E+04 -2.42700E+04 -3.89691E+04
  7.30208E+03 -3.87994E+04  3.20253E+04 -1.51710E+04  2.99942E+04  1.09243E+04  4.12085E+03  1.96409E+04
 -1.34514E+04  8.90918E+03 -1.06114E+04 -7.72392E+03  5.92795E+03 -1.06624E+04  1.81576E+04  5.96966E+03
  1.40153E+04  2.23929E+04 -5.76330E+03  2.56681E+04 -2.22548E+04  1.19702E+04 -2.87520E+04 -4.46472E+03
 -2.16863E+04 -1.75893E+04 -9.36369E+03 -2.12318E+04  3.96877E+03 -2.07512E+04  1.67392E+04 -1.95752E+04
  2.74177E+04 -1.33418E+04  3.38781E+04  3.54554E+03  2.44468E+04  2.08960E+04  4.37335E+03  3.73681E+04
 -1.80381E+04  3.13318E+04 -2.84603E+04  1.09377E+04 -2.13351E+04 -1.04972E+04 -4.36395E+03 -1.32287E+04
  1.34308E+03 -2.61320E+03 -5.65452E+03  7.05281E+03 -1.70286E+04  5.26729E+03 -1.69514E+04 -7.65131E+03
 -1.03109E+04 -1.98094E+04  5.56697E+03 -2.40388E+04  1.61440E+04 -1.72391E+04  1.92456E+04 -1.63492E+03
  1.19693E+04  1.37169E+04 -1.35674E+03  2.00328E+04 -1.37880E+04  1.16867E+04 -1.97637E+04 -3.94500E+03
 -1.46751E+04 -1.78050E+04 -1.97876E+03 -2.42215E+04  1.08899E+04 -1.96239E+04  1.97612E+04 -1.01781E+04
  1.84680E+04  8.22883E+01  1.33913E+04  4.48553E+03  7.00305E+03  9.74637E+02  9.99168E+03 -1.46306E+03
  1.85722E+04  2.57988E+03  2.05000E+04  1.57357E+04  1.33297E+04  3.15294E+04 -2.75356E+03  3.65142E+04
 -2.07250E+04  2.91431E+04 -3.37441E+04  1.50781E+04 -3.55602E+04 -2.70275E+03 -2.94744E+04 -2.08512E+04
 -1.24758E+04 -2.93663E+04  1.02784E+04 -2.63722E+04  2.28057E+04 -1.35172E+04  2.02664E+04  5.93196E+03
  7.46438E+03  1.52664E+04 -9.57045E+03  1.31871E+04 -1.70244E+04  2.62545E+03 -1.33304E+04 -1.05878E+04
 -1.50232E+02 -1.63030E+04  8.38281E+03 -1.18776E+04  1.06134E+04 -1.14657E+03  2.67234E+03  7.03482E+03
 -7.20804E+03  2.96456E+03 -6.68192E+03 -5.80997E+03 -4.48685E+02 -1.44800E+04  9.92550E+03 -1.50655E+04
  1.77742E+04 -7.90345E+03  1.96522E+04  3.33901E+03  1.71752E+04  1.43266E+04  7.83181E+03  2.17211E+04
 -3.75573E+03  2.39935E+04 -1.52862E+04  1.49710E+04 -1.72450E+04  3.77277E+03 -1.21476E+04 -3.98540E+03
 -5.81095E+03 -5.36012E+03 -7.02974E+02  1.09902E+03 -2.29174E+03  3.16191E+03 -5.70280E+03  4.69501E+03
 -1.10600E+04 -9.71098E+02 -1.18253E+04 -9.70353E+03 -4.78254E+03 -1.56100E+04  5.02502E+03 -1.20051E+04
  1.00394E+04 -5.22642E+03  7.16139E+03  3.43366E+03  1.83402E+02  4.78430E+03 -5.91503E+03 -7.80898E+01
 -5.34370E+03 -7.80849E+03 -1.03559E+03 -1.16776E+04  6.43354E+03 -1.18062E+04  1.48004E+04 -6.75118E+03
  1.77795E+04  1.16400E+03  1.32579E+04  1.01487E+04  2.52614E+03  1.37460E+04 -7.56401E+03  1.22596E+04
 -9.74935E+03  3.29758E+03 -5.08129E+03 -2.48637E+03  1.62278E+03 -2.95532E+03  6.42786E+03 -8.70446E+02
  5.75117E+03  5.23010E+03  1.13734E+03  9.52001E+03 -6.68732E+03  9.51690E+03 -1.17847E+04  2.30688E+03
 -7.83277E+03 -5.81607E+03  2.68666E+02 -1.01834E+04  6.21414E+03 -5.06386E+03  6.50983E+03  2.30809E+03
  1.69303E+03  6.63604E+03 -6.20872E+03  8.33025E+03 -9.31871E+03  3.57515E+03 -9.26388E+03 -2.69647E+03
 -5.92615E+03 -1.08036E+04  3.00111E+03 -1.28285E+04  1.08066E+04 -7.95983E+03  1.18955E+04  2.26338E+03
  7.64535E+03  9.38875E+03 -5.65520E+02  1.12840E+04 -8.52348E+03  6.30916E+03 -8.90417E+03 -8.19826E+02
 -8.13652E+03 -7.60087E+03 -1.66089E+03 -8.72682E+03  4.88558E+03 -7.40436E+03  5.32792E+03 -3.39953E+03
  4.02116E+03  1.27749E+03 -3.67694E+02  1.44001E+03 -3.01315E+02 -1.92577E+03  1.11032E+03 -4.51214E+03
  7.30405E+03 -3.04789E+03  1.05521E+04  1.03368E+03  1.06656E+04  7.37299E+03  7.46470E+03  1.39901E+04
 -3.37535E+03  1.58436E+04 -1.38672E+04  1.17918E+04 -1.74817E+04  2.23797E+03 -1.38642E+04 -5.80314E+03
 -7.45252E+03 -1.17272E+04 -4.17082E+02 -9.56776E+03  3.50326E+03 -5.47267E+03  3.41735E+03 -3.85961E+03
  2.53000E+03 -2.14968E+03  3.28064E+03 -3.04774E+03  4.69343E+03 -2.19238E+03  5.60137E+03 -2.88429E+02
  7.37119E+03  1.85919E+03  3.47133E+03  6.37814E+03 -1.94592E+03  7.02495E+03 -7.94138E+03  5.20167E+03
 -9.99070E+03 -8.48382E+02 -5.49248E+03 -6.48130E+03 -4.97785E+02 -1.01004E+04  5.66313E+03 -1.02126E+04
  1.02764E+04 -5.69883E+03  1.27449E+04  1.59766E+03  8.84019E+03  8.65656E+03  1.24373E+03  1.11573E+04
 -4.56349E+03  9.61977E+03 -6.70947E+03  3.26902E+03 -4.51128E+03 -1.23351E+03 -1.95191E+03 -1.45652E+03
 -7.60517E+02  4.01007E+02 -1.29969E+03  2.31352E+03 -4.25861E+03  1.65289E+03 -6.97293E+03 -7.23918E+02
 -4.19346E+03 -6.91528E+03  2.11380E+02 -9.22520E+03  5.61818E+03 -8.38768E+03  8.44856E+03 -2.63908E+03
  8.93952E+03  4.60120E+03  4.21796E+03  7.85603E+03 -1.92034E+03  9.34339E+03 -6.44271E+03  5.78738E+03
 -8.28334E+03  6.95076E+02 -6.76961E+03 -5.45217E+03 -6.29550E+02 -7.08798E+03  3.64043E+03 -5.56861E+03
  5.58013E+03 -2.03453E+03  3.64879E+03  1.59016E+03  1.14071E+03  2.71725E+03  8.99755E+02  1.37975E+03
  2.24857E+03  7.96748E+02  2.24221E+03  1.54845E+03  2.61152E+03  3.39715E+03  2.39231E+03  4.46174E+03
 -1.93131E+03  7.13669E+03 -6.19432E+03  7.60328E+03 -8.74936E+03  1.90401E+03 -9.44236E+03 -3.39385E+03
 -4.57631E+03 -8.59747E+03  1.28050E+03 -9.79827E+03  5.16110E+03 -6.55404E+03  7.24613E+03 -1.82490E+03
  5.51176E+03  3.41495E+03  7.82175E+02  4.97358E+03 -2.07543E+03  3.13445E+03 -3.37233E+03 -1.14275E+02
 -1.81083E+03 -3.92153E+03  2.21564E+03 -3.75208E+03  3.39254E+03 -1.82782E+03  3.55041E+03  9.94747E+02
  1.79105E+03  1.56725E+03  9.97602E+02  9.18729E+02 -3.91893E+02  1.61003E+03  1.56501E+03 -8.19447E+02
  1.34223E+03 -8.83664E+02  3.94745E+03  1.31165E+03  1.78854E+03  4.86896E+03 -8.41031E+02  6.06420E+03
 -4.01817E+03  3.54612E+03 -5.29327E+03  7.79304E+02 -4.70542E+03 -1.85202E+03 -1.57198E+03 -3.14197E+03
  8.66746E+02 -3.06691E+03  2.24513E+03 -1.79443E+03  1.73902E+03  1.73356E+03 -1.26848E+03  2.91927E+03
 -2.99825E+03  1.75972E+03 -3.79489E+03 -2.12882E+03 -2.12704E+03 -5.01972E+03  5.07966E+02 -4.61297E+03
  2.25117E+03 -2.56417E+03  3.24978E+03 -3.11591E+02  2.68793E+03  9.32506E+02  6.49039E+02  2.33922E+03
 -1.47869E+03  4.18772E+02 -2.13798E+03 -1.40290E+03  1.13887E+03 -3.48025E+03  4.08569E+03 -2.75678E+03
  4.64401E+03  2.77467E+02  5.37598E+03  3.04564E+03  1.86320E+03  4.88362E+03 -1.83526E+03  5.28771E+03
 -4.39188E+03  1.82092E+03 -4.52439E+03 -5.26998E+02 -2.47025E+03 -3.52304E+03  8.56422E+02 -2.74602E+03
  3.38061E+03 -1.54706E+03  3.05508E+03  1.68897E+03  5.30173E+02  3.18663E+03 -9.32067E+01  2.49775E+03
 -1.29698E+03  2.00981E+03 -9.31232E+02  6.09781E+02 -6.31853E+02  4.60707E+02 -1.18954E+03  1.13615E+03
 -1.56684E+03  1.84753E+03 -4.10949E+03  1.84425E+03 -4.88893E+03  1.75114E+01 -6.05034E+03 -3.25892E+03
 -3.03957E+03 -6.62110E+03  1.34481E+03 -7.67137E+03  4.50153E+03 -6.34698E+03  7.17535E+03 -2.62674E+03
  6.51672E+03  1.12276E+03  3.96919E+03  4.41861E+03 -2.26655E+01  4.73024E+03 -2.00115E+03  3.79553E+03
 -2.98042E+03  1.74412E+03 -1.82306E+03 -5.25743E+02 -7.95164E+02 -4.49275E+02 -1.05282E+03  3.05806E+01
 -1.28733E+03  3.04460E+02 -8.84083E+02  1.31140E+02 -7.67033E+01 -1.28663E+03 -2.73130E+01 -2.24056E+03
  2.42439E+03 -1.47064E+03  2.79850E+03  1.35350E+02  3.23548E+03  2.54347E+03  5.70293E+02  4.82297E+03
 -2.66977E+03  6.10716E+03 -5.29642E+03  3.34486E+03 -5.65109E+03 -3.65258E+02 -4.38785E+03 -3.73231E+03
 -2.10374E+03 -4.78265E+03  1.25184E+03 -4.50731E+03  2.95565E+03 -2.39582E+03  3.01870E+03  8.60408E+01
  1.66277E+03  1.40751E+03 -3.98582E+02  1.42867E+03 -1.31690E+03 -4.39197E+02  5.90141E+01 -1.13815E+03
  1.37385E+03 -5.18191E+02  1.42721E+03  6.24335E+02  9.99327E+02  1.76210E+03  7.65931E+02  2.35447E+03
 -1.78914E+03  2.16111E+03 -2.92858E+03  2.50266E+02 -2.93107E+03 -1.99019E+03 -1.83448E+02 -3.85596E+03
  2.16708E+03 -3.04639E+03  3.08544E+03 -1.06958E+03  3.58395E+03  3.55015E+02  2.02005E+03  2.86351E+03
  4.85388E+02  2.77434E+03 -1.23964E+03  2.19247E+03 -1.92319E+03  1.48440E+03 -1.76234E+03  5.72043E+02
 -5.52293E+02 -6.58912E+01 -7.76910E+02  6.62056E+02 -1.79388E+03  7.12146E+02 -2.52551E+03 -6.25903E+02
 -2.65758E+03 -1.18091E+03 -9.33508E+02 -3.27075E+03  1.62265E+03 -3.59236E+03  2.46399E+03 -9.68320E+02
  2.63820E+03  5.19084E+02  1.16540E+03  1.85946E+03 -5.70513E+02  2.94476E+03 -2.15071E+03  2.07087E+03
