 $NMID ID='MM_0lb_SNR800_17hz_g45_82.RAW', FMTDAT='(8E13.5)'
 TRAMP=1., VOLUME=1. $END
  3.09884E+05  2.10264E+02  3.37244E+05  2.50465E+05  8.43086E+04  3.37796E+05 -1.32416E+05  2.50211E+05
 -1.89963E+05  8.26118E+04 -1.10958E+05 -3.26829E+04  1.34418E+03 -5.02660E+04  5.37363E+04  2.01641E+02
  3.51381E+04  5.28948E+04 -1.71697E+04  7.49682E+04 -6.06156E+04  6.29346E+04 -8.29731E+04  3.17089E+04
 -8.03249E+04 -1.08552E+04 -5.64814E+04 -5.05158E+04 -1.50184E+04 -6.86225E+04  2.67699E+04 -4.50985E+04
  3.94405E+04  3.94854E+03  1.59071E+04  4.74237E+04 -3.40402E+04  4.61139E+04 -6.58589E+04 -3.12315E+02
 -5.24236E+04 -5.57183E+04 -6.47423E+03 -7.56387E+04  3.31866E+04 -5.36140E+04  4.63836E+04 -1.66405E+04
  4.17420E+04  1.13451E+04  3.09370E+04  2.46620E+04  1.57526E+04  2.82980E+04 -4.88745E+03  2.68744E+04
 -2.13822E+04  1.29737E+04 -1.90396E+04 -4.56379E+03  4.24399E+03 -7.43507E+03  2.16036E+04  1.12048E+04
  7.38009E+03  3.36886E+04 -3.08531E+04  3.42795E+04 -6.17060E+04  2.07455E+03 -5.56571E+04 -4.18762E+04
 -1.22358E+04 -6.14840E+04  3.85259E+04 -4.39738E+04  5.62593E+04 -2.41018E+03  3.21585E+04  3.10623E+04
 -6.60243E+03  3.38801E+04 -2.88870E+04  1.41078E+04 -2.83219E+04 -5.06193E+03 -1.46549E+04 -1.03579E+04
 -7.25013E+03 -1.19616E+04 -7.38724E+02 -1.72906E+04  7.01826E+03 -2.25125E+04  1.51424E+04 -1.36218E+04
  1.19466E+04  4.56595E+03 -6.76841E+03  1.30129E+04 -2.01596E+04 -2.85278E+03 -8.25858E+03 -3.10332E+04
  2.11662E+04 -4.12723E+04  4.57297E+04 -1.90696E+04  4.28019E+04  1.83483E+04  1.45507E+04  4.22165E+04
 -1.54431E+04  3.14686E+04 -2.39442E+04  1.51012E+03 -8.48359E+03 -2.67296E+04  2.06961E+04 -3.17478E+04
  3.88055E+04 -8.13436E+03  3.23262E+04  2.32357E+04  1.59553E+04  4.33026E+04 -7.69829E+03  4.63432E+04
 -2.91637E+04  3.05104E+04 -3.85825E+04  8.80604E+03 -3.96534E+04 -1.53308E+04 -2.17780E+04 -3.54745E+04
  6.85368E+03 -3.49149E+04  2.94731E+04 -1.34215E+04  2.76540E+04  1.07589E+04  2.78092E+03  1.81487E+04
 -1.28107E+04  7.51348E+03 -1.00749E+04 -7.75583E+03  5.94315E+03 -1.02402E+04  1.74350E+04  6.22524E+03
  1.25125E+04  2.17309E+04 -6.34461E+03  2.36306E+04 -2.15196E+04  9.67052E+03 -2.58188E+04 -5.74086E+03
 -1.78444E+04 -1.65259E+04 -6.29671E+03 -1.76034E+04  3.71874E+03 -1.57602E+04  1.29833E+04 -1.54190E+04
  2.27562E+04 -1.19259E+04  2.92443E+04  1.59033E+03  2.18793E+04  1.70829E+04  4.07911E+03  3.34096E+04
 -1.64638E+04  2.82806E+04 -2.65980E+04  9.46481E+03 -1.99710E+04 -1.06616E+04 -4.00344E+03 -1.37057E+04
  2.38502E+03 -3.65943E+03 -3.27018E+03  5.68250E+03 -1.39090E+04  5.25358E+03 -1.39771E+04 -5.42453E+03
 -9.00091E+03 -1.64621E+04  4.55999E+03 -2.05038E+04  1.32180E+04 -1.44795E+04  1.56106E+04 -1.71991E+03
  9.50072E+03  1.14501E+04 -9.97861E+02  1.62232E+04 -1.12429E+04  9.40416E+03 -1.62531E+04 -3.51573E+03
 -1.21865E+04 -1.48854E+04 -1.84277E+03 -2.04162E+04  8.90457E+03 -1.59832E+04  1.69211E+04 -7.84138E+03
  1.56681E+04  6.92101E+02  1.08472E+04  4.01033E+03  5.53941E+03  7.62914E+02  8.27367E+03 -1.24939E+03
  1.47379E+04  2.86530E+03  1.60567E+04  1.31238E+04  9.98559E+03  2.61149E+04 -3.11803E+03  2.84994E+04
 -1.67510E+04  2.24989E+04 -2.63318E+04  1.07999E+04 -2.72849E+04 -2.20359E+03 -2.31818E+04 -1.53535E+04
 -1.04384E+04 -2.21894E+04  7.53560E+03 -2.04894E+04  1.76763E+04 -1.13751E+04  1.62642E+04  4.30951E+03
  6.71479E+03  1.20536E+04 -7.80630E+03  1.11700E+04 -1.39977E+04  2.53110E+03 -1.07444E+04 -8.12147E+03
 -2.00625E+02 -1.31720E+04  6.48153E+03 -1.01996E+04  8.41435E+03 -1.46635E+03  1.63943E+03  5.41912E+03
 -5.82842E+03  1.63594E+03 -4.35102E+03 -4.93024E+03  3.96564E+02 -1.11041E+04  8.39170E+03 -1.10593E+04
  1.32779E+04 -5.45807E+03  1.33833E+04  2.78066E+03  1.16331E+04  1.04287E+04  5.54908E+03  1.57940E+04
 -2.22509E+03  1.74581E+04 -1.05704E+04  1.10641E+04 -1.22486E+04  2.98473E+03 -9.12342E+03 -2.51012E+03
 -4.89235E+03 -3.74885E+03 -4.69881E+02  1.64703E+03 -1.87395E+03  2.06289E+03 -3.68156E+03  3.63658E+03
 -8.52359E+03 -7.19712E+02 -9.43462E+03 -7.80007E+03 -3.75878E+03 -1.24539E+04  3.79233E+03 -8.94504E+03
  7.73716E+03 -4.20164E+03  5.68448E+03  2.20662E+03  4.47521E+02  3.29643E+03 -3.92786E+03 -5.16680E+02
 -3.98975E+03 -5.50190E+03 -8.93224E+02 -8.19131E+03  4.46107E+03 -8.76791E+03  1.08493E+04 -4.57246E+03
  1.29703E+04  7.92293E+02  9.47645E+03  6.88230E+03  1.68126E+03  9.82262E+03 -5.68167E+03  9.11464E+03
 -7.43426E+03  2.94989E+03 -3.70418E+03 -1.39269E+03  1.20242E+03 -2.12053E+03  5.30258E+03 -1.03256E+03
  4.41225E+03  3.85043E+03  1.11278E+03  7.11713E+03 -4.54206E+03  6.88402E+03 -8.60231E+03  1.66055E+03
 -5.65718E+03 -4.07724E+03  2.06551E+02 -7.12250E+03  4.44961E+03 -3.77681E+03  4.07669E+03  1.00259E+03
  7.27447E+02  3.88876E+03 -4.57206E+03  5.39085E+03 -5.60337E+03  2.83088E+03 -5.40848E+03 -1.49993E+03
 -3.23901E+03 -6.94132E+03  1.49475E+03 -8.10969E+03  6.82113E+03 -5.09956E+03  7.53729E+03  1.17136E+03
  5.35123E+03  6.05380E+03  1.54676E+02  8.21744E+03 -5.58424E+03  4.80756E+03 -5.93610E+03 -4.49678E+02
 -5.99456E+03 -5.81699E+03 -1.61268E+03 -5.80770E+03  3.05935E+03 -5.35738E+03  3.32062E+03 -2.91329E+03
  2.94818E+03  2.83845E+02  1.74700E+02  1.40993E+03  3.43562E+02 -3.75141E+02  3.56317E+02 -2.54470E+03
  4.50637E+03 -9.77856E+02  6.41549E+03  9.91389E+02  6.68306E+03  3.89826E+03  5.87247E+03  8.34898E+03
 -1.65160E+03  9.72604E+03 -8.85676E+03  7.69551E+03 -1.13639E+04  1.12179E+03 -8.84211E+03 -3.34706E+03
 -4.80903E+03 -7.29399E+03 -5.51598E+02 -5.79859E+03  2.46773E+03 -2.54488E+03  1.84348E+03 -2.19342E+03
  1.43249E+03 -1.61911E+03  2.41688E+03 -2.38971E+03  3.76905E+03 -1.66675E+03  4.35067E+03  2.44030E+02
  5.00747E+03  1.49545E+03  1.71626E+03  4.14408E+03 -1.62484E+03  3.60005E+03 -4.95843E+03  3.22743E+03
 -5.74084E+03 -9.19766E+02 -2.38463E+03 -4.02064E+03  3.05824E+02 -6.26539E+03  3.49587E+03 -6.24097E+03
  6.02272E+03 -3.91456E+03  7.76257E+03  2.65610E+02  5.57636E+03  5.19963E+03  1.34412E+03  6.99469E+03
 -2.60997E+03  6.86319E+03 -3.73237E+03  1.97950E+03 -2.50137E+03 -8.21428E+02 -8.40489E+02 -5.79239E+02
 -5.34835E+02  6.20117E+02 -9.26584E+02  1.94744E+03 -2.99652E+03  9.79405E+02 -4.32887E+03 -4.83414E+02
 -2.07847E+03 -4.36176E+03  8.19130E+02 -5.41625E+03  3.17942E+03 -5.15025E+03  4.52880E+03 -1.45839E+03
  4.95397E+03  2.73666E+03  2.26376E+03  4.17609E+03 -6.06007E+02  5.19268E+03 -3.54784E+03  3.30713E+03
 -4.55229E+03  7.50718E+02 -3.94351E+03 -3.06059E+03 -4.14475E+02 -3.94725E+03  2.07406E+03 -3.14290E+03
  3.29873E+03 -1.36510E+03  2.23376E+03  7.28681E+02  6.89512E+02  1.84980E+03  6.25173E+02  5.03985E+02
  1.80436E+03  7.48953E+02  1.55058E+03  1.22516E+03  1.49992E+03  2.32222E+03  1.56538E+03  2.29651E+03
 -1.41626E+03  3.68842E+03 -3.25579E+03  4.64924E+03 -3.86847E+03  1.22917E+03 -5.31397E+03 -1.12291E+03
 -2.22052E+03 -4.53489E+03  9.01331E+02 -5.81188E+03  2.29397E+03 -3.45592E+03  3.70528E+03 -8.32313E+02
  3.12732E+03  2.24146E+03  3.95632E+02  2.88135E+03 -8.38693E+02  1.46988E+03 -1.63081E+03 -1.12765E+01
 -5.85653E+02 -1.93381E+03  1.35663E+03 -2.05367E+03  1.42918E+03 -1.34160E+03  1.64845E+03  4.06663E+02
  1.16386E+03  3.55903E+02  7.76178E+02 -1.89243E+02 -3.75126E+02  1.01446E+03  1.45934E+03 -3.59291E+02
  2.31183E+02 -1.47917E+01  2.12964E+03  5.83626E+02  5.13419E+02  2.79084E+03 -3.15286E+02  3.28282E+03
 -2.27805E+03  1.49631E+03 -2.69656E+03  2.90062E+02 -2.75887E+03 -9.99072E+02 -5.09835E+02 -1.20429E+03
  4.79035E+02 -1.42655E+03  1.15623E+03 -7.48844E+02  9.99792E+02  1.14588E+03 -7.07717E+02  1.59268E+03
 -2.02416E+03  8.65370E+02 -1.70665E+03 -1.69019E+03 -1.02609E+03 -2.57105E+03  2.13392E+02 -2.28024E+03
  8.64042E+02 -7.63003E+02  1.40255E+03  2.14216E+02  1.62231E+03 -3.43398E+01  5.49923E+02  1.34048E+03
 -6.18814E+02  2.23629E+01 -1.07117E+03 -6.27799E+02  3.55959E+02 -1.11205E+03  2.19928E+03 -1.27490E+03
  2.04065E+03  3.35651E+02  3.16886E+03  1.17060E+03  1.31639E+03  2.20461E+03 -5.35671E+02  2.64333E+03
 -1.73843E+03  2.53360E+02 -1.77302E+03 -1.40214E+02 -9.59125E+02 -1.93268E+03  3.34176E+02 -1.01269E+03
  1.73712E+03 -8.67119E+02  1.14625E+03  7.24446E+02  1.26910E+02  1.83244E+03  2.33781E+02  9.23829E+02
 -5.29250E+02  1.08465E+03 -8.07920E+02  5.19227E+02 -3.16779E+01  6.96522E+02 -9.61980E+02  7.48785E+02
 -7.63756E+02  1.18860E+03 -2.08611E+03  5.90220E+02 -2.42158E+03  2.34402E+02 -2.86307E+03 -1.09798E+03
 -1.44449E+03 -3.24668E+03  7.80731E+02 -3.77988E+03  1.65587E+03 -3.14198E+03  3.43767E+03 -1.20716E+03
  3.23638E+03  8.77927E+01  1.77433E+03  1.78853E+03 -1.53057E+02  2.03611E+03 -1.09855E+03  1.75304E+03
 -1.54680E+03  5.84960E+02 -7.98589E+02 -3.36853E+02 -4.97717E+02  3.06012E+02 -8.12824E+02  1.34754E+02
 -8.48315E+02 -2.98583E+02 -1.04085E+03 -6.23090E+01  1.95481E+02 -7.41951E+02 -1.25940E+02 -1.24861E+03
  1.35361E+03 -7.76711E+02  5.61472E+02 -3.76604E+01  1.34330E+03  1.32489E+03 -1.34237E+02  2.06895E+03
 -1.25301E+03  2.65629E+03 -2.38871E+03  1.61460E+03 -2.52289E+03 -1.19083E+02 -1.81361E+03 -1.43852E+03
 -9.06810E+02 -1.88464E+03  4.04999E+02 -1.79025E+03  1.03527E+03 -1.05811E+03  1.42362E+03  1.40523E+02
  7.34275E+02  4.79571E+02 -1.42096E+02  5.15956E+02 -4.11118E+02 -5.73138E+01 -5.82930E+01 -5.90937E+02
  8.54983E+02  1.84007E+02  2.11677E+02  3.40762E+02  1.12167E+02  7.82639E+02  5.64927E+02  6.51058E+02
 -1.06249E+03  9.79959E+02 -6.80858E+02  1.43521E+02 -1.31274E+03 -5.87798E+02 -1.68185E+02 -1.59378E+03
  5.85718E+02 -9.60675E+02  7.71455E+02 -1.20547E+02  1.45541E+03 -5.59071E+02  7.01425E+02  1.28961E+03
  2.67833E+02  7.58441E+02 -4.42270E+02  1.15849E+03 -7.30599E+02  9.51539E+02 -3.87366E+02  2.03347E+01
 -2.51902E+02 -8.61546E+01 -8.31445E+02  4.54969E+02 -6.22566E+02  1.70428E+02 -1.15448E+03 -2.28728E+02
 -1.30862E+03 -3.18725E+02 -2.83597E+02 -1.31457E+03  7.05281E+02 -1.95419E+03  9.48384E+02 -6.62805E+02
  9.71557E+02  1.73432E+02 -3.12857E+02  6.94817E+02 -3.22762E+02  1.21202E+03 -5.69893E+02  7.41032E+02
