 $NMID ID='MM_0lb_SNR800_9hz_g60_86.RAW', FMTDAT='(8E13.5)'
 TRAMP=1., VOLUME=1. $END
  3.10091E+05  4.47348E+02  3.37807E+05  2.50935E+05  8.51927E+04  3.38760E+05 -1.32501E+05  2.52527E+05
 -1.90350E+05  8.41945E+04 -1.12722E+05 -3.23824E+04  1.92167E+02 -5.09913E+04  5.38648E+04 -4.60319E+02
  3.53423E+04  5.28916E+04 -1.62616E+04  7.59259E+04 -6.12042E+04  6.46422E+04 -8.53106E+04  3.20283E+04
 -8.27291E+04 -1.14826E+04 -5.84802E+04 -5.26683E+04 -1.53388E+04 -7.18137E+04  2.82022E+04 -4.68208E+04
  4.17344E+04  3.46586E+03  1.69578E+04  4.85589E+04 -3.51983E+04  4.85373E+04 -6.81708E+04  2.27022E+02
 -5.52276E+04 -5.80388E+04 -7.65769E+03 -7.95254E+04  3.48069E+04 -5.74952E+04  5.05930E+04 -1.83369E+04
  4.58725E+04  1.14576E+04  3.33249E+04  2.69303E+04  1.61859E+04  3.11952E+04 -5.76040E+03  2.79952E+04
 -2.25343E+04  1.18550E+04 -1.79477E+04 -6.11035E+03  7.44155E+03 -7.23590E+03  2.39057E+04  1.43491E+04
  6.80259E+03  3.82877E+04 -3.46969E+04  3.73805E+04 -6.61965E+04  1.90860E+03 -5.95001E+04 -4.47004E+04
 -1.26661E+04 -6.64553E+04  4.22768E+04 -4.73462E+04  6.17870E+04 -1.96117E+03  3.73841E+04  3.47654E+04
 -4.99921E+03  4.00516E+04 -3.22498E+04  1.96708E+04 -3.41951E+04 -2.97340E+03 -1.96409E+04 -1.17854E+04
 -9.22157E+03 -1.57980E+04 -1.88064E+02 -2.00310E+04  8.71740E+03 -2.33450E+04  1.61286E+04 -1.22657E+04
  1.01405E+04  6.25025E+03 -1.13709E+04  1.23645E+04 -2.42180E+04 -6.92265E+03 -8.82381E+03 -3.80870E+04
  2.54215E+04 -4.80546E+04  5.28327E+04 -2.11207E+04  4.92519E+04  2.09363E+04  1.74448E+04  4.78324E+04
 -1.70111E+04  3.64523E+04 -2.79868E+04  2.57157E+03 -1.21622E+04 -2.99164E+04  2.16134E+04 -3.73442E+04
  4.56185E+04 -1.15192E+04  4.16702E+04  2.48984E+04  2.19334E+04  5.20958E+04 -9.01784E+03  5.77075E+04
 -3.60871E+04  3.94614E+04 -4.88633E+04  1.16582E+04 -4.87131E+04 -1.87494E+04 -2.65839E+04 -4.29342E+04
  8.02721E+03 -4.30751E+04  3.49495E+04 -1.74330E+04  3.27143E+04  1.11718E+04  5.49144E+03  2.12836E+04
 -1.39292E+04  9.88803E+03 -1.15588E+04 -7.37682E+03  5.73563E+03 -1.17302E+04  1.94749E+04  5.59563E+03
  1.50818E+04  2.29728E+04 -4.73287E+03  2.77619E+04 -2.37635E+04  1.48160E+04 -3.24753E+04 -2.88756E+03
 -2.63590E+04 -1.87165E+04 -1.22080E+04 -2.59276E+04  4.69450E+03 -2.73828E+04  2.04205E+04 -2.35522E+04
  3.34697E+04 -1.45851E+04  3.93227E+04  5.43090E+03  2.74180E+04  2.55986E+04  4.57432E+03  4.22088E+04
 -2.06820E+04  3.44311E+04 -3.11998E+04  1.18645E+04 -2.23823E+04 -1.00062E+04 -4.84683E+03 -1.26698E+04
  5.85978E+02 -5.11496E+02 -8.39591E+03  8.74149E+03 -2.09814E+04  4.75115E+03 -2.07795E+04 -1.04030E+04
 -1.24828E+04 -2.47072E+04  6.26406E+03 -2.84987E+04  1.96918E+04 -2.03207E+04  2.36554E+04 -2.41715E+03
  1.55191E+04  1.66716E+04 -1.51602E+03  2.43523E+04 -1.74681E+04  1.41114E+04 -2.53241E+04 -5.01437E+03
 -1.81669E+04 -2.16994E+04 -2.30852E+03 -2.88898E+04  1.33409E+04 -2.47076E+04  2.40964E+04 -1.28414E+04
  2.30475E+04 -1.88844E+02  1.69661E+04  5.31411E+03  9.79343E+03  1.50994E+03  1.27733E+04 -1.99630E+03
  2.27818E+04  2.60142E+03  2.68715E+04  1.88563E+04  1.89379E+04  3.92308E+04 -2.52448E+03  4.64471E+04
 -2.65656E+04  3.90323E+04 -4.42299E+04  2.03917E+04 -4.73919E+04 -2.98521E+03 -3.79950E+04 -2.77895E+04
 -1.50013E+04 -3.92244E+04  1.42117E+04 -3.40840E+04  2.94046E+04 -1.56911E+04  2.55290E+04  8.70511E+03
  8.29145E+03  1.92601E+04 -1.23390E+04  1.62025E+04 -2.10331E+04  2.51391E+03 -1.62341E+04 -1.35020E+04
 -4.42355E+02 -2.00229E+04  1.08312E+04 -1.48366E+04  1.41917E+04 -9.87696E+02  3.70452E+03  9.23783E+03
 -9.32769E+03  4.10995E+03 -9.32575E+03 -7.12038E+03 -1.92772E+03 -1.92861E+04  1.19709E+04 -2.09163E+04
  2.43229E+04 -1.22284E+04  2.82380E+04  2.99761E+03  2.39298E+04  1.96477E+04  1.10208E+04  3.09376E+04
 -5.94139E+03  3.31230E+04 -2.14419E+04  2.03627E+04 -2.40249E+04  4.05355E+03 -1.65103E+04 -6.16978E+03
 -7.35153E+03 -7.68659E+03 -4.06301E+02  2.32699E+02 -2.89830E+03  3.74024E+03 -8.18221E+03  5.24828E+03
 -1.51402E+04 -1.20881E+03 -1.57332E+04 -1.26649E+04 -6.35876E+03 -2.04169E+04  6.55017E+03 -1.64459E+04
  1.37717E+04 -6.75618E+03  9.86549E+03  4.60188E+03 -7.53140E+02  6.67041E+03 -8.50991E+03 -4.91357E+02
 -7.98752E+03 -1.03877E+04 -1.17956E+03 -1.66550E+04  9.55265E+03 -1.77759E+04  2.14008E+04 -9.78343E+03
  2.49598E+04  2.59288E+03  1.84584E+04  1.54089E+04  3.52633E+03  2.02554E+04 -9.97705E+03  1.63950E+04
 -1.33437E+04  4.47960E+03 -6.81559E+03 -3.48115E+03  2.58094E+03 -4.81914E+03  8.63414E+03 -1.18280E+03
  7.89276E+03  7.11386E+03  1.16912E+03  1.37255E+04 -9.65309E+03  1.25651E+04 -1.66655E+04  3.06762E+03
 -1.14836E+04 -8.78038E+03  4.81924E+02 -1.43047E+04  9.79562E+03 -7.13918E+03  1.02409E+04  3.78371E+03
  2.75127E+03  1.05792E+04 -8.51341E+03  1.24529E+04 -1.41414E+04  5.82469E+03 -1.47373E+04 -5.57271E+03
 -8.89457E+03 -1.72270E+04  4.29364E+03 -1.96845E+04  1.66427E+04 -1.13945E+04  1.82904E+04  3.05907E+03
  1.06994E+04  1.39984E+04 -1.53865E+03  1.66745E+04 -1.23057E+04  9.61336E+03 -1.40173E+04 -1.38936E+03
 -1.12834E+04 -1.10732E+04 -1.31473E+03 -1.30393E+04  6.61032E+03 -1.01779E+04  8.34021E+03 -3.32667E+03
  5.10942E+03  2.10222E+03 -1.01230E+03  1.71259E+03 -8.34211E+02 -3.81455E+03  2.72708E+03 -8.17490E+03
  1.23743E+04 -5.59190E+03  1.67976E+04  1.82907E+03  1.67482E+04  1.22315E+04  1.07991E+04  2.27123E+04
 -5.67831E+03  2.57500E+04 -2.12562E+04  1.89260E+04 -2.76458E+04  3.85900E+03 -2.21306E+04 -9.65365E+03
 -1.10181E+04 -1.88279E+04 -5.69773E+02 -1.53039E+04  5.51097E+03 -9.14178E+03  5.78281E+03 -5.52965E+03
  4.22592E+03 -3.44373E+03  4.50083E+03 -4.24939E+03  5.97833E+03 -4.07986E+03  8.38382E+03 -1.64227E+03
  1.12527E+04  2.22599E+03  6.82982E+03  1.00786E+04 -2.52320E+03  1.27178E+04 -1.20840E+04  9.32817E+03
 -1.58564E+04 -1.62049E+03 -1.03018E+04 -1.12098E+04 -1.27987E+03 -1.68635E+04  9.65686E+03 -1.71773E+04
  1.80569E+04 -1.00679E+04  2.10644E+04  2.98027E+03  1.46040E+04  1.45231E+04  2.39171E+03  1.92710E+04
 -8.02359E+03  1.55078E+04 -1.11253E+04  5.61986E+03 -7.98600E+03 -2.32882E+03 -3.46283E+03 -2.08422E+03
 -1.50785E+03 -1.75486E+02 -2.86672E+03  3.21781E+03 -6.54682E+03  1.88528E+03 -1.12995E+04 -1.68922E+03
 -7.89877E+03 -1.07820E+04 -3.25847E+02 -1.56684E+04  9.60259E+03 -1.46381E+04  1.61533E+04 -4.77033E+03
  1.60107E+04  7.49142E+03  7.30108E+03  1.48270E+04 -3.08983E+03  1.61389E+04 -1.12635E+04  1.02863E+04
 -1.50878E+04  5.54354E+02 -1.15808E+04 -1.01480E+04 -1.56998E+03 -1.37951E+04  7.28013E+03 -1.04682E+04
  1.01969E+04 -2.99292E+03  6.72695E+03  2.46649E+03  2.98440E+03  4.68716E+03  1.81485E+03  1.95668E+03
  2.93986E+03  1.18065E+03  3.72143E+03  2.17028E+03  5.15195E+03  5.62639E+03  3.77563E+03  8.92967E+03
 -3.09051E+03  1.26117E+04 -1.15280E+04  1.24881E+04 -1.71804E+04  3.14366E+03 -1.71621E+04 -6.93637E+03
 -8.53853E+03 -1.63054E+04  2.27888E+03 -1.82250E+04  1.00464E+04 -1.16096E+04  1.33101E+04 -3.18316E+03
  1.06136E+04  6.49508E+03  2.43908E+03  9.60145E+03 -4.73398E+03  5.81307E+03 -6.96223E+03 -6.93843E+02
 -3.08704E+03 -6.79792E+03  4.07919E+03 -7.06250E+03  7.55812E+03 -3.38211E+03  6.59058E+03  1.62551E+03
  4.17057E+03  3.74391E+03  1.64323E+03  2.88627E+03 -7.19848E+02  2.28642E+03  1.67393E+03 -7.19662E+02
  3.15004E+03 -9.04386E+02  6.51581E+03  2.91605E+03  3.93764E+03  8.90423E+03 -1.01177E+03  1.17727E+04
 -8.31856E+03  7.98421E+03 -1.04968E+04  1.63024E+03 -9.20465E+03 -3.87998E+03 -3.87121E+03 -6.41456E+03
  8.62743E+02 -6.70071E+03  4.21294E+03 -2.54353E+03  3.67861E+03  3.23244E+03 -1.66657E+03  5.23537E+03
 -6.37618E+03  3.35796E+03 -7.35211E+03 -3.85975E+03 -4.58719E+03 -9.18680E+03  1.28868E+03 -9.19756E+03
  5.37026E+03 -5.89079E+03  7.12788E+03 -4.61744E+02  5.92477E+03  2.49294E+03  8.00053E+02  4.94826E+03
 -3.19590E+03  1.25510E+03 -3.98228E+03 -3.45757E+03  1.42868E+03 -6.97624E+03  8.74897E+03 -5.76428E+03
  1.03324E+04  5.09177E+02  1.04138E+04  7.11948E+03  2.98776E+03  1.06277E+04 -4.06551E+03  1.03479E+04
 -9.11528E+03  4.36349E+03 -9.44791E+03 -1.31837E+03 -5.35052E+03 -6.98044E+03  1.51084E+03 -6.69019E+03
  6.69907E+03 -3.11460E+03  5.91578E+03  2.77503E+03  1.85543E+03  6.12080E+03 -1.22678E+03  5.47320E+03
 -2.96735E+03  3.31433E+03 -3.06440E+03  1.40700E+03 -1.40419E+03  6.32684E+02 -1.42820E+03  2.19512E+03
 -2.87892E+03  3.83995E+03 -7.23559E+03  3.81795E+03 -1.08309E+04  3.75197E+02 -1.16455E+04 -7.16932E+03
 -6.55280E+03 -1.41055E+04  2.86493E+03 -1.70511E+04  1.02662E+04 -1.28695E+04  1.60317E+04 -5.22214E+03
  1.46443E+04  2.74157E+03  8.61100E+03  9.89682E+03  1.23219E+03  1.15529E+04 -5.12789E+03  8.43904E+03
 -6.36243E+03  2.99161E+03 -4.08666E+03 -1.26717E+03 -1.41169E+03 -1.06404E+03 -7.93974E+02 -7.78992E+01
 -2.23363E+03  4.39470E+02 -2.26052E+03 -5.38646E+02 -1.09133E+03 -2.95791E+03  3.59759E+02 -4.07336E+03
  4.82994E+03 -3.37303E+03  6.94188E+03 -2.83807E+02  8.04592E+03  6.24111E+03  2.54661E+03  1.13782E+04
 -5.64691E+03  1.30897E+04 -1.22858E+04  7.27463E+03 -1.43909E+04 -9.18841E+02 -1.06481E+04 -8.33017E+03
 -4.52365E+03 -1.16646E+04  2.79517E+03 -1.06393E+04  7.41207E+03 -5.33082E+03  7.56154E+03 -2.23569E+01
  4.27487E+03  3.55598E+03 -5.49261E+02  3.40920E+03 -1.90433E+03 -3.94837E+02  5.00685E+01 -2.22582E+03
  3.21131E+03 -1.34006E+03  4.51675E+03  1.28434E+03  2.80293E+03  4.69904E+03  2.12725E+02  5.77979E+03
 -5.35482E+03  5.34751E+03 -7.74340E+03  9.84671E+02 -6.86159E+03 -5.79709E+03 -8.42821E+02 -9.52092E+03
  5.55269E+03 -8.23487E+03  9.24239E+03 -3.05521E+03  9.06107E+03  2.12324E+03  5.08586E+03  7.01737E+03
  9.70781E+02  7.55547E+03 -3.32196E+03  5.99930E+03 -4.69238E+03  3.16654E+03 -4.05578E+03  6.29826E+02
 -2.18522E+03  5.39685E+01 -2.12152E+03  9.84534E+02 -4.11657E+03  1.51636E+03 -5.88950E+03 -8.86510E+02
 -5.35792E+03 -3.77184E+03 -1.61795E+03 -7.46540E+03  3.71017E+03 -8.33292E+03  6.82646E+03 -3.93481E+03
  7.64671E+03  1.03438E+03  4.02583E+03  5.56461E+03 -4.86274E+02  7.82506E+03 -5.58637E+03  5.05037E+03
