 $NMID ID='MM_0lb_SNR800_18hz_g60_40.RAW', FMTDAT='(8E13.5)'
 TRAMP=1., VOLUME=1. $END
  3.09750E+05  3.38426E+02  3.37548E+05  2.50645E+05  8.48150E+04  3.37819E+05 -1.32558E+05  2.51049E+05
 -1.89986E+05  8.30057E+04 -1.11604E+05 -3.28250E+04  1.04841E+03 -5.04310E+04  5.35411E+04 -4.10059E+02
  3.53433E+04  5.27294E+04 -1.69581E+04  7.51892E+04 -6.06049E+04  6.35505E+04 -8.41633E+04  3.18187E+04
 -8.05590E+04 -1.16382E+04 -5.73042E+04 -5.08330E+04 -1.50298E+04 -6.92779E+04  2.73187E+04 -4.56224E+04
  3.98991E+04  3.68369E+03  1.58357E+04  4.77204E+04 -3.41789E+04  4.69840E+04 -6.64747E+04 -2.10669E+02
 -5.28689E+04 -5.67803E+04 -6.71965E+03 -7.65622E+04  3.36068E+04 -5.46216E+04  4.78981E+04 -1.70652E+04
  4.27978E+04  1.13485E+04  3.14098E+04  2.51144E+04  1.58167E+04  2.92628E+04 -5.26327E+03  2.70766E+04
 -2.18659E+04  1.25606E+04 -1.87737E+04 -4.79396E+03  4.97274E+03 -7.45662E+03  2.20807E+04  1.19198E+04
  7.46978E+03  3.46693E+04 -3.16477E+04  3.52663E+04 -6.26741E+04  2.09650E+03 -5.67474E+04 -4.22727E+04
 -1.21284E+04 -6.24871E+04  3.92559E+04 -4.44661E+04  5.73716E+04 -2.42948E+03  3.33386E+04  3.16351E+04
 -6.26263E+03  3.46764E+04 -2.95786E+04  1.50325E+04 -2.94803E+04 -4.78362E+03 -1.59742E+04 -1.04747E+04
 -8.22336E+03 -1.25741E+04 -9.46914E+02 -1.77894E+04  7.18512E+03 -2.28346E+04  1.54102E+04 -1.37461E+04
  1.16351E+04  4.77368E+03 -7.32352E+03  1.29702E+04 -2.03072E+04 -3.79250E+03 -8.16469E+03 -3.24488E+04
  2.21047E+04 -4.26063E+04  4.67097E+04 -1.93239E+04  4.39733E+04  1.88390E+04  1.50701E+04  4.31623E+04
 -1.54145E+04  3.25420E+04 -2.47214E+04  1.40827E+03 -8.77763E+03 -2.71782E+04  2.08521E+04 -3.28038E+04
  3.97928E+04 -8.33666E+03  3.36285E+04  2.34453E+04  1.69978E+04  4.47572E+04 -7.91975E+03  4.85427E+04
 -3.02701E+04  3.20767E+04 -4.01810E+04  8.93185E+03 -4.10494E+04 -1.59744E+04 -2.26969E+04 -3.66025E+04
  7.42906E+03 -3.62113E+04  3.05667E+04 -1.39397E+04  2.82316E+04  1.07717E+04  3.48854E+03  1.83195E+04
 -1.33945E+04  8.12312E+03 -9.64142E+03 -7.65425E+03  5.92187E+03 -1.03609E+04  1.79170E+04  6.27569E+03
  1.28501E+04  2.17923E+04 -6.22550E+03  2.40025E+04 -2.19251E+04  1.03618E+04 -2.68804E+04 -5.50540E+03
 -1.88161E+04 -1.70246E+04 -7.20693E+03 -1.87994E+04  4.00619E+03 -1.73970E+04  1.41043E+04 -1.65334E+04
  2.39356E+04 -1.24645E+04  3.05015E+04  2.09892E+03  2.26922E+04  1.83673E+04  4.58692E+03  3.41762E+04
 -1.67632E+04  2.90763E+04 -2.69861E+04  1.00383E+04 -2.02901E+04 -1.03513E+04 -4.08305E+03 -1.38512E+04
  2.35006E+03 -3.61423E+03 -4.09395E+03  6.12614E+03 -1.45053E+04  5.13012E+03 -1.49497E+04 -6.03466E+03
 -9.39404E+03 -1.71323E+04  4.81477E+03 -2.11640E+04  1.41333E+04 -1.52803E+04  1.65576E+04 -1.65314E+03
  1.02571E+04  1.21178E+04 -7.16228E+02  1.73179E+04 -1.17177E+04  9.87441E+03 -1.70931E+04 -3.93758E+03
 -1.26198E+04 -1.57990E+04 -1.35448E+03 -2.07618E+04  9.46819E+03 -1.69871E+04  1.75147E+04 -8.26749E+03
  1.60194E+04  5.37738E+02  1.14402E+04  4.16166E+03  5.86791E+03  7.66175E+02  8.72999E+03 -1.42983E+03
  1.55159E+04  2.59366E+03  1.65311E+04  1.36539E+04  1.08217E+04  2.72268E+04 -3.05140E+03  3.00920E+04
 -1.75340E+04  2.35973E+04 -2.75178E+04  1.13655E+04 -2.86060E+04 -2.02653E+03 -2.40777E+04 -1.65865E+04
 -1.09046E+04 -2.34489E+04  7.94162E+03 -2.15620E+04  1.88724E+04 -1.16598E+04  1.71672E+04  4.25064E+03
  6.91882E+03  1.24631E+04 -7.90794E+03  1.15089E+04 -1.46032E+04  2.24018E+03 -1.13762E+04 -8.82041E+03
 -3.14307E+02 -1.39669E+04  6.70524E+03 -1.03032E+04  8.86768E+03 -1.43531E+03  1.89085E+03  5.63689E+03
 -6.10489E+03  1.73339E+03 -4.82986E+03 -4.91336E+03  2.71011E+02 -1.15319E+04  8.43930E+03 -1.18539E+04
  1.38336E+04 -5.81397E+03  1.42618E+04  2.71037E+03  1.22739E+04  1.09802E+04  5.86960E+03  1.61131E+04
 -2.34974E+03  1.83749E+04 -1.12193E+04  1.14710E+04 -1.31114E+04  2.95059E+03 -9.50175E+03 -2.90117E+03
 -4.84700E+03 -4.16172E+03 -7.83052E+02  1.20577E+03 -2.25614E+03  1.97625E+03 -3.98135E+03  3.69249E+03
 -9.12204E+03 -4.31839E+02 -9.58607E+03 -7.69742E+03 -3.97746E+03 -1.25318E+04  4.23940E+03 -9.44777E+03
  7.88253E+03 -4.02724E+03  6.01990E+03  2.56181E+03  5.23795E+02  3.77534E+03 -4.11120E+03 -1.94036E+02
 -3.89033E+03 -5.83942E+03 -6.94353E+02 -8.33012E+03  4.65128E+03 -8.67987E+03  1.11703E+04 -4.82913E+03
  1.33789E+04  1.16213E+03  1.00138E+04  7.47289E+03  2.30940E+03  9.86959E+03 -5.71620E+03  9.46266E+03
 -7.75633E+03  3.14696E+03 -3.89322E+03 -1.51350E+03  1.28135E+03 -2.45995E+03  5.17063E+03 -9.47867E+02
  4.15265E+03  3.68583E+03  1.02327E+03  7.06878E+03 -4.86465E+03  7.21020E+03 -8.94052E+03  1.93481E+03
 -5.34239E+03 -4.21355E+03  2.76843E+02 -7.32861E+03  4.27118E+03 -3.77698E+03  4.46277E+03  1.44455E+03
  7.34634E+02  3.93157E+03 -4.45769E+03  5.54066E+03 -5.61036E+03  2.71478E+03 -5.37251E+03 -1.32489E+03
 -3.29699E+03 -6.99426E+03  1.54342E+03 -8.10103E+03  6.76640E+03 -5.38722E+03  7.57770E+03  1.04944E+03
  5.13503E+03  6.19280E+03  4.53169E+01  8.08418E+03 -6.02697E+03  4.60502E+03 -6.11908E+03 -8.60189E+02
 -6.28092E+03 -5.82531E+03 -1.28784E+03 -5.93201E+03  3.15191E+03 -4.92723E+03  3.37185E+03 -3.01728E+03
  3.42434E+03  2.75737E+02 -1.08459E+02  1.32257E+03  5.59865E+02 -4.06860E+02  2.74601E+02 -2.35148E+03
  4.41644E+03 -1.12752E+03  6.32348E+03  8.39259E+02  6.39560E+03  3.57525E+03  5.92199E+03  8.57024E+03
 -1.89350E+03  9.92096E+03 -8.57481E+03  7.73076E+03 -1.12213E+04  1.53829E+03 -8.97381E+03 -3.04486E+03
 -4.76856E+03 -7.45008E+03 -2.15102E+02 -5.72785E+03  2.49662E+03 -2.63837E+03  2.21031E+03 -2.59591E+03
  1.59250E+03 -1.67673E+03  2.30675E+03 -2.46185E+03  3.68882E+03 -1.15572E+03  4.06345E+03  4.55636E+02
  4.98553E+03  1.15323E+03  1.28791E+03  3.95702E+03 -1.54232E+03  3.46237E+03 -4.91615E+03  3.27122E+03
 -5.59264E+03 -9.95652E+02 -2.42198E+03 -3.79485E+03  2.37552E+02 -5.89641E+03  3.58595E+03 -5.99028E+03
  5.81879E+03 -3.75318E+03  7.48742E+03  1.80514E+02  5.15845E+03  4.79861E+03  1.21811E+03  6.58978E+03
 -2.91456E+03  6.12719E+03 -3.86737E+03  2.20405E+03 -2.24091E+03 -1.22036E+03 -7.17801E+02 -5.54940E+02
 -5.04514E+02  1.71444E+02 -1.24056E+03  2.02554E+03 -2.31438E+03  1.36922E+03 -4.20118E+03 -4.54536E+02
 -2.02302E+03 -4.62168E+03  8.51568E+02 -5.35649E+03  3.39802E+03 -4.66245E+03  4.23541E+03 -1.27215E+03
  4.79430E+03  2.99707E+03  2.04639E+03  3.70230E+03 -9.09233E+02  5.09758E+03 -3.04169E+03  2.77733E+03
 -4.49872E+03  5.99981E+02 -3.85702E+03 -2.53601E+03  1.07179E+02 -3.68636E+03  1.84058E+03 -2.80129E+03
  2.96611E+03 -1.16615E+03  1.96223E+03  3.78911E+02  6.23767E+02  1.79009E+03  7.34782E+02  4.93691E+02
  1.76026E+03  4.94444E+02  1.08242E+03  1.06696E+03  1.09620E+03  2.34596E+03  1.91769E+03  1.88883E+03
 -1.66328E+03  3.37209E+03 -3.20956E+03  4.38592E+03 -3.81521E+03  1.26313E+03 -4.71163E+03 -7.06295E+02
 -1.93292E+03 -4.29903E+03  7.20032E+02 -5.08364E+03  1.87307E+03 -2.94545E+03  3.62204E+03 -8.32875E+02
  2.79107E+03  1.90798E+03  4.36661E+02  2.60906E+03 -1.07026E+03  1.17134E+03 -1.06085E+03 -3.47081E+02
 -5.97703E+02 -1.74199E+03  1.18099E+03 -1.47765E+03  1.66256E+03 -9.16950E+02  1.59233E+03  3.60681E+02
  5.80232E+02  3.97964E+02  8.12962E+02 -1.99635E+02 -3.37517E+02  6.83240E+02  1.69320E+03 -3.38199E+02
  1.47138E+02 -1.42629E+02  1.81201E+03  7.61842E+02  5.87271E+02  2.70504E+03 -4.55150E+02  3.21202E+03
 -1.58696E+03  1.37190E+03 -2.40223E+03  2.95414E+02 -2.31423E+03 -6.49441E+02 -5.38982E+01 -1.25222E+03
  3.08121E+02 -1.30942E+03  1.13250E+03 -6.91733E+02  8.13866E+02  1.05226E+03 -7.49274E+02  1.13575E+03
 -1.73178E+03  9.37839E+02 -1.18285E+03 -1.68125E+03 -8.34959E+02 -2.07092E+03  9.96894E+01 -1.92904E+03
  6.74354E+02 -5.93593E+02  8.90752E+02 -1.49918E+02  1.33429E+03 -1.76521E+02  5.22956E+01  1.24262E+03
 -1.52534E+02  2.22670E+02 -7.32037E+02 -1.15864E+02  7.77511E+02 -9.85583E+02  1.89000E+03 -8.74074E+02
  1.56248E+03  3.11078E+02  3.09899E+03  6.62763E+02  9.59464E+02  2.13995E+03 -3.40512E+02  1.81190E+03
 -1.55087E+03  4.47958E+02 -1.87090E+03 -8.83059E+01 -9.45128E+02 -1.16286E+03  2.74614E+02 -8.75501E+02
  1.53507E+03 -6.81503E+02  6.89137E+02  5.40397E+02  1.81059E+02  1.49927E+03  3.16498E+02  1.07800E+03
 -5.21478E+02  1.24063E+03 -6.23537E+02  2.30379E+02  9.71526E+01  3.69340E+02 -7.78944E+02  4.39326E+02
 -7.41995E+02  7.33468E+02 -1.84178E+03  4.39141E+02 -1.40059E+03  7.99224E+01 -2.54914E+03 -1.08273E+03
 -1.22155E+03 -2.26421E+03  8.53558E+02 -2.94112E+03  1.28589E+03 -2.88371E+03  3.15294E+03 -9.03734E+02
  2.49432E+03 -1.81283E+02  1.25013E+03  1.65159E+03 -7.40042E+02  1.51298E+03 -7.46258E+02  1.21096E+03
 -1.07155E+03  8.51558E+02 -6.61813E+02 -2.22776E+02 -4.94593E+02  3.66226E+02 -3.23120E+02  4.15765E+00
 -1.09572E+03 -3.64776E+01 -7.70867E+02  1.66390E+01  1.77285E+02 -4.13230E+02 -3.37048E+02 -1.06278E+03
  1.27593E+03 -7.63995E+02  1.52989E+02 -2.36578E+02  1.09623E+03  8.09521E+02 -2.95415E+02  1.54057E+03
 -1.20716E+03  2.41463E+03 -1.69486E+03  1.58383E+03 -1.67237E+03 -2.23334E+02 -1.34771E+03 -1.28994E+03
 -8.32414E+02 -1.20249E+03  1.67981E+02 -1.59429E+03  7.66531E+02 -6.17353E+02  7.29794E+02 -1.63445E+02
  8.33360E+02  4.95233E+02  8.61012E+01  4.54695E+02 -1.67603E+02  5.63527E+01  1.40215E+02 -5.25302E+02
  5.15524E+02  4.50062E+02  3.43198E+02  4.08964E+02 -1.15574E+01  2.88186E+02  3.26632E+02  2.23209E+02
 -8.05859E+02  7.68397E+02 -1.71052E+02  2.94470E+02 -7.60444E+02 -7.93348E+01 -7.32013E+01 -1.14339E+03
  6.09956E+02 -5.91601E+02  7.28179E+02  3.15458E+02  8.61998E+02 -4.71353E+02  4.49524E+02  7.61770E+02
  4.84218E+02  8.64140E+02 -2.09767E+02  5.02348E+02 -4.69765E+02  4.90980E+02 -1.09512E+02  1.20227E+02
 -1.84757E+02 -8.65199E+01 -6.54506E+02 -7.29658E+01 -5.71902E+02  2.40897E+02 -8.43586E+02  8.33351E+01
 -1.12226E+03  4.38501E+02 -2.99837E+02 -7.28877E+02  6.13165E+02 -1.64229E+03  5.46587E+02 -1.81191E+02
  7.55107E+02 -1.81083E+02 -5.02885E+02  5.46173E+02 -1.68520E+01  8.22590E+02 -1.36379E+02  8.63657E+02
