 $NMID ID='MM_0lb_SNR800_9hz_g60_81.RAW', FMTDAT='(8E13.5)'
 TRAMP=1., VOLUME=1. $END
  3.09748E+05  2.62543E+02  3.38149E+05  2.50535E+05  8.50635E+04  3.38767E+05 -1.32775E+05  2.52256E+05
 -1.90882E+05  8.38812E+04 -1.12648E+05 -3.25960E+04 -1.26759E+02 -5.10496E+04  5.35761E+04 -3.52993E+02
  3.49208E+04  5.26143E+04 -1.64884E+04  7.58534E+04 -6.13950E+04  6.46452E+04 -8.56062E+04  3.28654E+04
 -8.29945E+04 -1.13469E+04 -5.88376E+04 -5.27735E+04 -1.53737E+04 -7.16656E+04  2.79258E+04 -4.70347E+04
  4.14631E+04  3.71098E+03  1.69627E+04  4.89743E+04 -3.47328E+04  4.82891E+04 -6.84574E+04  4.10146E+02
 -5.52367E+04 -5.75414E+04 -7.41464E+03 -7.95800E+04  3.50131E+04 -5.70193E+04  5.03101E+04 -1.87845E+04
  4.61009E+04  1.13253E+04  3.32939E+04  2.66022E+04  1.58158E+04  3.07985E+04 -6.44126E+03  2.77177E+04
 -2.29957E+04  1.17058E+04 -1.77136E+04 -5.46338E+03  7.55763E+03 -7.34858E+03  2.38808E+04  1.38600E+04
  6.90245E+03  3.76136E+04 -3.39659E+04  3.71720E+04 -6.65422E+04  1.48539E+03 -5.89708E+04 -4.48051E+04
 -1.25336E+04 -6.58698E+04  4.16168E+04 -4.79141E+04  6.21914E+04 -2.62800E+03  3.76507E+04  3.48004E+04
 -5.05982E+03  4.01225E+04 -3.21506E+04  1.95198E+04 -3.43125E+04 -3.61985E+03 -1.96692E+04 -1.17807E+04
 -9.81996E+03 -1.57904E+04 -4.62208E+02 -2.03385E+04  9.17522E+03 -2.35376E+04  1.63599E+04 -1.29700E+04
  1.05649E+04  6.56004E+03 -1.08166E+04  1.30228E+04 -2.39241E+04 -7.45930E+03 -8.68000E+03 -3.80945E+04
  2.57927E+04 -4.77361E+04  5.30431E+04 -2.11216E+04  4.91966E+04  2.14188E+04  1.77958E+04  4.80402E+04
 -1.69739E+04  3.69223E+04 -2.80897E+04  2.75740E+03 -1.20567E+04 -2.95291E+04  2.19431E+04 -3.79430E+04
  4.55878E+04 -1.15046E+04  4.15696E+04  2.56241E+04  2.20575E+04  5.18727E+04 -8.57271E+03  5.76705E+04
 -3.62483E+04  3.95496E+04 -4.89260E+04  1.15281E+04 -4.86576E+04 -1.90163E+04 -2.70079E+04 -4.30817E+04
  8.23733E+03 -4.30390E+04  3.47331E+04 -1.76816E+04  3.28011E+04  1.15075E+04  5.59629E+03  2.11129E+04
 -1.41225E+04  1.00661E+04 -1.14265E+04 -7.22446E+03  5.51778E+03 -1.14964E+04  1.90933E+04  5.32642E+03
  1.51023E+04  2.32465E+04 -4.44447E+03  2.78543E+04 -2.36944E+04  1.47234E+04 -3.22738E+04 -2.77595E+03
 -2.65625E+04 -1.85955E+04 -1.25320E+04 -2.59605E+04  4.42210E+03 -2.73363E+04  2.12216E+04 -2.36709E+04
  3.32558E+04 -1.49238E+04  3.91049E+04  5.50331E+03  2.76876E+04  2.56120E+04  4.50989E+03  4.21656E+04
 -2.05853E+04  3.48688E+04 -3.12846E+04  1.23262E+04 -2.26496E+04 -1.02006E+04 -4.99293E+03 -1.28885E+04
  7.51465E+02 -7.45430E+02 -7.97889E+03  8.69061E+03 -2.12685E+04  5.01941E+03 -2.06264E+04 -1.04697E+04
 -1.27181E+04 -2.44148E+04  6.49861E+03 -2.88115E+04  1.94759E+04 -2.05890E+04  2.34506E+04 -2.08280E+03
  1.52170E+04  1.65818E+04 -1.79981E+03  2.41019E+04 -1.73609E+04  1.38084E+04 -2.49380E+04 -4.95022E+03
 -1.75825E+04 -2.16884E+04 -2.50897E+03 -2.90546E+04  1.35400E+04 -2.38032E+04  2.42227E+04 -1.26031E+04
  2.31313E+04 -3.44266E+02  1.63302E+04  5.21357E+03  9.36255E+03  1.55116E+03  1.24493E+04 -2.19441E+03
  2.31997E+04  2.78233E+03  2.68572E+04  1.91676E+04  1.80744E+04  3.90083E+04 -2.86953E+03  4.68035E+04
 -2.67356E+04  3.90264E+04 -4.39579E+04  2.07974E+04 -4.74692E+04 -3.48221E+03 -3.81275E+04 -2.78541E+04
 -1.49743E+04 -3.91952E+04  1.39018E+04 -3.43930E+04  2.95354E+04 -1.61009E+04  2.51681E+04  8.41948E+03
  8.45609E+03  1.97151E+04 -1.22226E+04  1.63679E+04 -2.08277E+04  2.25165E+03 -1.58257E+04 -1.34055E+04
 -1.93455E+02 -2.01187E+04  1.10918E+04 -1.45943E+04  1.41214E+04 -6.31154E+02  3.66270E+03  9.02407E+03
 -9.44827E+03  4.58388E+03 -9.79063E+03 -7.32935E+03 -2.23523E+03 -1.96330E+04  1.24525E+04 -2.14255E+04
  2.41072E+04 -1.22770E+04  2.80300E+04  3.58216E+03  2.41311E+04  1.93641E+04  1.14095E+04  3.12692E+04
 -5.91607E+03  3.29403E+04 -2.15569E+04  2.02322E+04 -2.39928E+04  4.20327E+03 -1.63042E+04 -6.39923E+03
 -6.59757E+03 -7.97185E+03 -1.02979E+03  3.66931E+02 -3.16480E+03  3.88849E+03 -7.78805E+03  5.59692E+03
 -1.48895E+04 -6.58822E+02 -1.53282E+04 -1.21739E+04 -6.06969E+03 -2.03530E+04  6.47838E+03 -1.64564E+04
  1.38504E+04 -6.61151E+03  9.25114E+03  4.60063E+03 -6.22619E+02  6.90950E+03 -8.15684E+03 -1.91637E+02
 -8.28613E+03 -1.08455E+04 -1.35375E+03 -1.66907E+04  9.95154E+03 -1.71191E+04  2.13915E+04 -9.82697E+03
  2.51782E+04  2.64832E+03  1.82622E+04  1.53183E+04  3.50292E+03  2.04489E+04 -1.02045E+04  1.66117E+04
 -1.31592E+04  4.73201E+03 -6.95201E+03 -3.73773E+03  2.21291E+03 -4.70135E+03  8.60708E+03 -1.13015E+03
  7.97890E+03  7.27479E+03  9.55904E+02  1.38259E+04 -9.86547E+03  1.26836E+04 -1.66794E+04  3.06961E+03
 -1.18176E+04 -8.34459E+03  5.78708E+01 -1.43599E+04  9.13282E+03 -7.48580E+03  9.99917E+03  3.60391E+03
  2.47481E+03  1.06778E+04 -8.79193E+03  1.23712E+04 -1.45040E+04  5.21951E+03 -1.44361E+04 -5.36237E+03
 -8.57029E+03 -1.67027E+04  4.31465E+03 -1.97704E+04  1.68419E+04 -1.15390E+04  1.79876E+04  2.77620E+03
  1.04437E+04  1.43595E+04 -2.08698E+03  1.67488E+04 -1.21617E+04  9.27069E+03 -1.32305E+04 -1.44802E+03
 -1.17617E+04 -1.12813E+04 -1.42601E+03 -1.29192E+04  6.76729E+03 -1.04774E+04  8.51695E+03 -3.97967E+03
  5.21383E+03  2.22116E+03 -1.00409E+03  1.75904E+03 -9.76417E+02 -3.59574E+03  2.89001E+03 -8.21798E+03
  1.26982E+04 -5.49634E+03  1.76121E+04  2.03843E+03  1.68154E+04  1.21904E+04  1.06829E+04  2.29748E+04
 -5.41028E+03  2.56243E+04 -2.14991E+04  1.88467E+04 -2.77873E+04  3.78660E+03 -2.24421E+04 -1.00715E+04
 -1.09576E+04 -1.82367E+04 -2.60146E+02 -1.59832E+04  5.73689E+03 -9.07535E+03  5.52759E+03 -5.55658E+03
  4.50300E+03 -3.56651E+03  4.45588E+03 -3.79542E+03  6.44130E+03 -4.26299E+03  8.69270E+03 -1.69088E+03
  1.15092E+04  2.38918E+03  6.34876E+03  1.04751E+04 -2.08907E+03  1.24860E+04 -1.24463E+04  9.59130E+03
 -1.61988E+04 -1.31610E+03 -1.01000E+04 -1.10196E+04 -1.41833E+03 -1.71623E+04  9.61197E+03 -1.72379E+04
  1.83016E+04 -9.48726E+03  2.09007E+04  2.77447E+03  1.48245E+04  1.49077E+04  1.96781E+03  1.95046E+04
 -8.15709E+03  1.58401E+04 -1.12338E+04  5.64256E+03 -7.82946E+03 -1.92093E+03 -3.71052E+03 -2.36878E+03
 -1.55642E+03 -5.26646E+02 -2.37513E+03  3.37245E+03 -6.42298E+03  2.45717E+03 -1.07445E+04 -1.30144E+03
 -8.17380E+03 -1.09061E+04 -2.12090E+02 -1.58869E+04  9.95986E+03 -1.47549E+04  1.57747E+04 -4.46424E+03
  1.62901E+04  8.10501E+03  7.59074E+03  1.45457E+04 -3.53311E+03  1.60570E+04 -1.15594E+04  1.00266E+04
 -1.48650E+04  6.14388E+02 -1.13186E+04 -9.61641E+03 -1.32216E+03 -1.32869E+04  7.06021E+03 -1.01466E+04
  1.02239E+04 -2.87550E+03  6.82607E+03  2.67989E+03  2.72989E+03  4.51051E+03  1.35369E+03  2.43779E+03
  2.43474E+03  1.48427E+03  3.42598E+03  1.96198E+03  4.61780E+03  5.42826E+03  4.63759E+03  8.65581E+03
 -3.09565E+03  1.29833E+04 -1.10992E+04  1.25905E+04 -1.67098E+04  3.11541E+03 -1.68570E+04 -7.11340E+03
 -8.47868E+03 -1.59955E+04  2.44740E+03 -1.83494E+04  9.90643E+03 -1.15305E+04  1.33328E+04 -2.91814E+03
  1.03067E+04  5.91551E+03  2.25912E+03  9.75857E+03 -4.62216E+03  5.93803E+03 -6.89792E+03 -8.86789E+02
 -3.32162E+03 -7.20384E+03  3.54597E+03 -7.41636E+03  6.53081E+03 -3.45429E+03  6.60220E+03  1.78600E+03
  3.75279E+03  3.36749E+03  1.58410E+03  2.84921E+03 -9.30914E+02  2.15606E+03  1.90151E+03 -7.05419E+02
  2.49800E+03 -9.07393E+02  6.49327E+03  2.66264E+03  3.71927E+03  8.69044E+03 -1.40917E+03  1.16603E+04
 -7.84232E+03  7.66301E+03 -1.05495E+04  2.26958E+03 -9.38114E+03 -3.93611E+03 -3.55843E+03 -6.53254E+03
  1.01196E+03 -6.63911E+03  4.55044E+03 -3.69139E+03  3.67152E+03  3.05042E+03 -1.52421E+03  6.05972E+03
 -7.05455E+03  3.09961E+03 -7.96188E+03 -3.94580E+03 -4.33365E+03 -9.19440E+03  1.37729E+03 -9.55088E+03
  5.58137E+03 -5.36479E+03  6.85129E+03 -4.86877E+02  5.86392E+03  2.88953E+03  7.61367E+02  4.80387E+03
 -3.40446E+03  1.69740E+03 -4.43060E+03 -3.36222E+03  1.74020E+03 -7.20111E+03  8.34107E+03 -5.89168E+03
  1.08311E+04  1.13984E+03  9.96022E+03  7.14758E+03  3.20546E+03  1.12377E+04 -3.89195E+03  1.02663E+04
 -9.07058E+03  4.59068E+03 -9.23308E+03 -1.30394E+03 -5.03890E+03 -7.33413E+03  1.26196E+03 -6.83837E+03
  6.87324E+03 -2.80902E+03  6.18031E+03  3.08310E+03  2.08719E+03  6.05792E+03 -1.40189E+03  5.31948E+03
 -2.99828E+03  3.52796E+03 -2.28256E+03  1.33343E+03 -1.20843E+03  8.50789E+02 -1.47952E+03  2.46097E+03
 -3.08054E+03  4.55540E+03 -7.53327E+03  4.17504E+03 -1.08073E+04  1.05775E+02 -1.22760E+04 -7.31937E+03
 -6.26143E+03 -1.45869E+04  3.04191E+03 -1.68531E+04  1.00583E+04 -1.32091E+04  1.60393E+04 -5.21693E+03
  1.47591E+04  3.17816E+03  8.69483E+03  1.02254E+04  1.49877E+03  1.11864E+04 -4.69325E+03  8.46006E+03
 -6.63460E+03  3.05569E+03 -3.99213E+03 -1.37971E+03 -1.20315E+03 -1.23013E+03 -4.00752E+02 -2.83107E+02
 -1.78653E+03  2.46661E+02 -2.36499E+03 -1.55805E+02 -6.70281E+02 -2.93526E+03  2.94940E+02 -4.49061E+03
  5.06966E+03 -3.49323E+03  6.66700E+03  3.24415E+01  8.38298E+03  5.56766E+03  2.53924E+03  1.16019E+04
 -5.93964E+03  1.28802E+04 -1.20265E+04  7.36124E+03 -1.39826E+04 -8.96029E+02 -1.05882E+04 -8.67904E+03
 -4.01690E+03 -1.16114E+04  2.86748E+03 -1.07009E+04  7.39361E+03 -5.83240E+03  7.45058E+03  3.03964E+02
  4.29459E+03  3.50085E+03 -4.62275E+02  3.21074E+03 -2.37087E+03 -3.38453E+02 -7.21758E+01 -2.79643E+03
  3.86028E+03 -1.51910E+03  4.63225E+03  1.45943E+03  2.88976E+03  4.96715E+03  2.35524E+02  5.81682E+03
 -4.78090E+03  4.88933E+03 -7.98983E+03  5.92086E+02 -7.24252E+03 -5.99400E+03 -6.79584E+02 -9.43423E+03
  5.55338E+03 -7.83992E+03  8.64794E+03 -2.53210E+03  9.06060E+03  2.29768E+03  5.21008E+03  6.63396E+03
  1.34583E+03  7.57551E+03 -2.85868E+03  5.96221E+03 -5.01166E+03  3.31383E+03 -3.58052E+03  3.40772E+02
 -1.90141E+03 -1.39077E+02 -2.46411E+03  9.00735E+02 -3.88085E+03  1.41605E+03 -5.88923E+03 -5.65070E+02
 -5.60144E+03 -4.18752E+03 -2.22281E+03 -7.59666E+03  3.54729E+03 -7.95882E+03  6.37783E+03 -3.90016E+03
  7.60755E+03  1.05488E+03  4.09709E+03  5.62967E+03 -6.44409E+02  7.76850E+03 -5.78144E+03  4.67505E+03
