 $NMID ID='MM_0lb_SNR800_19hz_g45_3.RAW', FMTDAT='(8E13.5)'
 TRAMP=1., VOLUME=1. $END
  3.09975E+05  2.96517E+02  3.37255E+05  2.50318E+05  8.42460E+04  3.37258E+05 -1.32581E+05  2.50371E+05
 -1.89219E+05  8.20957E+04 -1.10998E+05 -3.28097E+04  1.46089E+03 -5.04522E+04  5.41056E+04  5.11449E+02
  3.52467E+04  5.27589E+04 -1.69474E+04  7.47585E+04 -6.02138E+04  6.25439E+04 -8.28452E+04  3.11927E+04
 -7.94760E+04 -1.10865E+04 -5.58888E+04 -4.98138E+04 -1.50316E+04 -6.79732E+04  2.65494E+04 -4.45949E+04
  3.87846E+04  4.02423E+03  1.53335E+04  4.67049E+04 -3.38374E+04  4.60211E+04 -6.51620E+04 -6.03463E+02
 -5.18403E+04 -5.59650E+04 -6.07007E+03 -7.48304E+04  3.29927E+04 -5.27708E+04  4.59941E+04 -1.60758E+04
  4.13512E+04  1.09031E+04  3.05899E+04  2.41837E+04  1.60106E+04  2.80643E+04 -4.79767E+03  2.65460E+04
 -2.15650E+04  1.30370E+04 -1.92420E+04 -4.32897E+03  4.15500E+03 -7.62311E+03  2.12878E+04  1.07632E+04
  7.36451E+03  3.31777E+04 -3.02325E+04  3.36015E+04 -6.05350E+04  2.23716E+03 -5.51901E+04 -4.09736E+04
 -1.21631E+04 -6.04434E+04  3.77634E+04 -4.32757E+04  5.49450E+04 -1.99701E+03  3.14498E+04  3.05400E+04
 -6.51818E+03  3.28521E+04 -2.80764E+04  1.29029E+04 -2.73171E+04 -5.57424E+03 -1.38972E+04 -9.69673E+03
 -7.23719E+03 -1.10787E+04 -1.27466E+03 -1.63948E+04  6.55227E+03 -2.24481E+04  1.49286E+04 -1.40492E+04
  1.23813E+04  4.10870E+03 -5.82357E+03  1.30124E+04 -1.90530E+04 -1.99354E+03 -7.91046E+03 -2.99684E+04
  2.04297E+04 -4.00125E+04  4.43329E+04 -1.85277E+04  4.12885E+04  1.81493E+04  1.39815E+04  4.10193E+04
 -1.53997E+04  3.07868E+04 -2.31899E+04  9.43550E+02 -8.07751E+03 -2.63115E+04  2.04833E+04 -3.07886E+04
  3.75413E+04 -6.94371E+03  3.09129E+04  2.26403E+04  1.51009E+04  4.18832E+04 -7.67425E+03  4.43775E+04
 -2.79251E+04  2.93946E+04 -3.65671E+04  8.03768E+03 -3.76284E+04 -1.48248E+04 -2.10091E+04 -3.39760E+04
  6.81262E+03 -3.33788E+04  2.89282E+04 -1.27043E+04  2.65692E+04  1.07793E+04  2.86018E+03  1.75562E+04
 -1.28894E+04  6.95341E+03 -9.14578E+03 -7.53015E+03  6.36820E+03 -1.00317E+04  1.72559E+04  6.42580E+03
  1.20536E+04  2.16378E+04 -6.61731E+03  2.30175E+04 -2.15637E+04  8.85551E+03 -2.45445E+04 -6.47423E+03
 -1.64055E+04 -1.62525E+04 -5.10177E+03 -1.60235E+04  3.52007E+03 -1.39323E+04  1.19306E+04 -1.39764E+04
  2.06083E+04 -1.13881E+04  2.75391E+04  9.47559E+02  2.09472E+04  1.58007E+04  4.14340E+03  3.18751E+04
 -1.56952E+04  2.71682E+04 -2.55981E+04  9.15206E+03 -1.98537E+04 -1.07017E+04 -3.98803E+03 -1.39228E+04
  2.86368E+03 -4.30713E+03 -2.42170E+03  4.94534E+03 -1.24197E+04  5.51738E+03 -1.29437E+04 -4.87050E+03
 -8.42962E+03 -1.48654E+04  4.47150E+03 -1.90485E+04  1.22259E+04 -1.36812E+04  1.42061E+04 -1.31853E+03
  8.75194E+03  1.04537E+04 -1.11800E+03  1.51122E+04 -1.00078E+04  8.48759E+03 -1.49460E+04 -3.35377E+03
 -1.11193E+04 -1.38034E+04 -1.65087E+03 -1.84199E+04  8.43620E+03 -1.49270E+04  1.54419E+04 -7.20106E+03
  1.43102E+04  7.94500E+02  9.98404E+03  3.74042E+03  5.08037E+03  5.38928E+02  7.41556E+03 -1.29633E+03
  1.33921E+04  2.82912E+03  1.39969E+04  1.26327E+04  8.86977E+03  2.38183E+04 -2.96266E+03  2.55396E+04
 -1.51328E+04  1.92740E+04 -2.33218E+04  9.24684E+03 -2.39977E+04 -1.71705E+03 -2.04622E+04 -1.34654E+04
 -9.75018E+03 -1.93183E+04  6.36897E+03 -1.82506E+04  1.60967E+04 -1.05568E+04  1.52247E+04  3.55790E+03
  6.53976E+03  1.06918E+04 -7.03214E+03  1.00305E+04 -1.27034E+04  2.68283E+03 -1.01071E+04 -7.74746E+03
 -7.47906E+01 -1.20167E+04  5.97958E+03 -9.18751E+03  7.79414E+03 -1.61951E+03  1.19859E+03  4.95836E+03
 -5.50047E+03  1.06847E+03 -3.11940E+03 -4.49763E+03  7.32658E+02 -9.64053E+03  7.62031E+03 -9.44618E+03
  1.15843E+04 -4.35549E+03  1.13643E+04  2.77020E+03  9.80495E+03  9.10365E+03  4.76916E+03  1.34070E+04
 -1.39707E+03  1.49449E+04 -9.04071E+03  9.56021E+03 -1.05380E+04  2.95773E+03 -7.97811E+03 -1.80083E+03
 -4.43955E+03 -3.00666E+03 -6.39438E+02  1.79257E+03 -2.01875E+03  2.03765E+03 -3.28207E+03  3.62941E+03
 -7.92318E+03 -6.24394E+02 -8.19592E+03 -7.02240E+03 -3.43828E+03 -1.11226E+04  3.26177E+03 -8.09753E+03
  6.97087E+03 -3.54582E+03  5.29855E+03  2.07604E+03  6.18005E+02  2.88002E+03 -3.20204E+03 -3.51039E+02
 -3.22566E+03 -4.99928E+03 -9.15578E+02 -6.93048E+03  3.65570E+03 -7.37435E+03  9.54103E+03 -3.69386E+03
  1.12180E+04  4.16395E+02  8.42662E+03  5.65469E+03  1.83811E+03  8.07514E+03 -4.83815E+03  7.82696E+03
 -6.72834E+03  2.73672E+03 -3.38724E+03 -9.10261E+02  1.28021E+03 -1.71295E+03  4.50910E+03 -1.00760E+03
  4.12415E+03  3.06946E+03  1.02895E+03  6.09317E+03 -4.40663E+03  5.98024E+03 -7.42685E+03  1.82342E+03
 -4.59620E+03 -3.66446E+03  1.61783E+02 -6.64304E+03  3.52905E+03 -3.14534E+03  3.31255E+03  9.15230E+02
  4.64078E+02  3.28369E+03 -3.82580E+03  4.48785E+03 -4.50884E+03  2.12043E+03 -3.99984E+03 -9.79969E+02
 -2.77917E+03 -5.63850E+03  8.69354E+02 -6.44334E+03  5.59086E+03 -4.39082E+03  5.98557E+03  8.78860E+02
  4.33987E+03  4.89574E+03  2.56115E+02  6.93479E+03 -4.74361E+03  3.81082E+03 -5.01714E+03 -5.96303E+02
 -5.57725E+03 -5.13100E+03 -1.49934E+03 -4.70652E+03  2.33710E+03 -4.34763E+03  2.77277E+03 -3.05378E+03
  2.80795E+03  1.37487E+02  2.64869E+02  1.29136E+03  7.67500E+02 -8.69908E+01  1.95258E+01 -1.67164E+03
  3.59950E+03 -8.72374E+02  4.76762E+03  6.79263E+02  5.30808E+03  2.66927E+03  5.18982E+03  6.59774E+03
 -1.37905E+03  7.84800E+03 -7.05497E+03  6.06499E+03 -9.01970E+03  1.14274E+03 -7.07073E+03 -2.33968E+03
 -3.77344E+03 -6.17300E+03 -4.34275E+02 -4.39446E+03  1.83489E+03 -1.64332E+03  1.78280E+03 -1.89937E+03
  1.03659E+03 -1.46016E+03  2.07881E+03 -2.12955E+03  3.12997E+03 -1.10595E+03  3.24454E+03  6.53003E+02
  4.11874E+03  1.05600E+03  1.15569E+03  3.06056E+03 -1.39624E+03  2.49072E+03 -4.06981E+03  2.26353E+03
 -4.63413E+03 -9.96772E+02 -1.48809E+03 -3.09885E+03  7.15099E+02 -4.59344E+03  2.93620E+03 -4.83224E+03
  4.82247E+03 -3.04499E+03  6.31091E+03  2.55804E+02  4.62620E+03  3.86488E+03  9.98581E+02  5.08502E+03
 -1.94244E+03  5.46482E+03 -3.06976E+03  1.78856E+03 -1.77322E+03 -1.00271E+03 -1.81569E+02 -3.32088E+02
 -3.58139E+02  6.76801E+02 -7.13715E+02  1.91358E+03 -2.26862E+03  1.26317E+03 -3.88308E+03 -4.85041E+02
 -1.44947E+03 -3.74009E+03  8.60216E+02 -4.27947E+03  2.51022E+03 -3.95611E+03  3.34783E+03 -1.03131E+03
  3.48683E+03  2.31227E+03  1.60783E+03  2.97452E+03 -5.49248E+02  4.21472E+03 -2.38606E+03  2.35633E+03
 -3.41230E+03  4.84841E+02 -3.11556E+03 -1.77962E+03  7.76349E+01 -2.70425E+03  1.53469E+03 -2.41466E+03
  2.38786E+03 -1.25425E+03  1.56485E+03  3.69967E+02  4.16598E+02  1.75382E+03  1.12993E+03  6.48525E+02
  1.56470E+03  4.50964E+02  1.35491E+03  9.59147E+02  1.18667E+03  2.52132E+03  1.21156E+03  1.46396E+03
 -1.12262E+03  2.56953E+03 -2.18370E+03  3.62072E+03 -2.70311E+03  1.28228E+03 -4.06886E+03 -3.06475E+02
 -1.50691E+03 -3.30773E+03  6.58882E+02 -4.40722E+03  1.72578E+03 -2.18038E+03  2.80825E+03 -8.06825E+02
  2.19848E+03  1.54156E+03  4.58997E+02  2.14140E+03 -6.93003E+02  9.42283E+02 -8.94610E+02 -3.18536E+01
 -3.16437E+02 -1.31690E+03  1.04544E+03 -1.25995E+03  1.41456E+03 -8.36138E+02  1.25423E+03  3.13862E+02
  8.32747E+02  2.18773E+02  9.07652E+02 -5.14290E+02 -1.76245E+02  6.36452E+02  1.85797E+03 -4.77374E+02
 -4.04402E+01 -1.44906E+02  1.65998E+03  6.72662E+02  2.80788E+02  2.22373E+03 -3.22729E+02  2.91445E+03
 -1.44794E+03  7.27070E+02 -1.95388E+03  1.57453E+02 -1.90310E+03 -7.77865E+02 -1.48719E+02 -7.89516E+02
  1.27755E+02 -9.06358E+02  7.16994E+02 -2.79927E+02  2.19393E+02  1.34072E+03 -1.05388E+03  1.07846E+03
 -1.19115E+03  5.68061E+02 -1.14521E+03 -1.37786E+03 -4.77551E+02 -2.07966E+03  2.96273E+02 -1.67018E+03
  2.09753E+02 -6.48335E+02  4.78282E+02  2.97179E+02  1.23211E+03  3.36520E+00  4.49743E+02  1.14035E+03
  2.94483E+01  3.20315E+01 -1.02514E+03 -1.75333E+02  5.28354E+02 -5.85801E+02  1.61985E+03 -6.93147E+02
  1.03046E+03 -1.15221E+02  3.06695E+03  5.38437E+02  9.46108E+02  1.28277E+03 -1.12310E+02  1.82633E+03
 -1.55286E+03 -2.58730E+01 -1.26843E+03 -3.65741E+01 -7.09894E+02 -1.01174E+03  2.66029E+02 -5.86310E+02
  1.38145E+03 -7.01444E+02  3.96564E+02  7.37603E+02  8.38879E+01  1.09231E+03  3.85318E+02  1.24528E+03
 -3.09687E+02  8.67001E+02 -4.97582E+02  1.20426E+02  1.34305E+02  4.97996E+02 -7.63153E+02  3.82105E+02
 -5.33367E+02  9.19266E+02 -1.63434E+03  1.45527E+02 -1.53056E+03  1.69009E+02 -2.38817E+03 -8.77464E+02
 -1.19166E+03 -2.24252E+03  5.12453E+02 -2.61652E+03  8.69655E+02 -1.97098E+03  2.51250E+03 -8.96093E+02
  2.07602E+03 -4.26587E+02  9.65474E+02  1.46882E+03 -6.00909E+02  1.09991E+03 -8.06234E+02  1.11807E+03
 -7.28545E+02  6.20569E+02 -5.07803E+02 -2.93832E+01 -2.51114E+02  3.53388E+02 -4.58600E+02 -6.68916E+01
 -1.16623E+03 -1.79088E+02 -8.54191E+02  9.98300E+01  2.72354E+02 -4.32354E+02 -4.23883E+02 -1.12496E+03
  1.08451E+03 -3.40451E+02  3.42991E+02  3.64842E+02  1.04035E+03  6.91703E+02 -1.98661E+02  1.04342E+03
 -9.02592E+02  2.09953E+03 -1.24827E+03  1.31715E+03 -1.46750E+03 -2.90341E+02 -8.53384E+02 -9.13971E+02
 -1.18242E+03 -1.21067E+03  2.64401E+02 -1.05567E+03  7.65796E+02 -5.72129E+02  6.30237E+02 -3.02987E+01
  7.87124E+02  4.20300E+02  3.50942E+02  2.62165E+02 -4.90800E+02  6.31493E+01 -3.75877E+02 -2.41412E+02
  3.89089E+02  6.75635E+01  3.20297E+02  3.00281E+02 -9.68663E+01  4.58126E+02  2.39475E+02  9.54894E-01
 -3.45549E+02  6.54711E+02 -5.78803E+02 -1.10787E+02 -6.45457E+02 -5.65493E+02  2.50412E+02 -8.98854E+02
  2.23658E+02 -5.35565E+02  1.42402E+02 -4.88925E+01  7.91561E+02 -5.04790E+02  5.00696E+02  7.69404E+02
  5.25348E+02  5.55203E+02 -2.20597E+02  4.35628E+02 -6.59291E+02  7.73800E+02 -3.03402E+02  1.48547E+02
 -5.07119E+00 -1.24577E+02 -3.43833E+02  4.21469E+02 -6.02780E+02  4.05023E+02 -5.65066E+02 -2.48128E+02
 -9.00593E+02  4.07618E+02 -4.14350E+02 -9.51523E+02  7.94597E+02 -1.65986E+03  5.56061E+02 -1.31929E+02
  5.65698E+02  1.70447E+02 -4.52072E+02  3.57503E+02  3.49156E+01  8.56164E+02 -3.17298E+02  7.02081E+02
