 $NMID ID='MM_0lb_SNR800_14hz_g40_94.RAW', FMTDAT='(8E13.5)'
 TRAMP=1., VOLUME=1. $END
  3.09905E+05  4.23793E+02  3.37507E+05  2.50525E+05  8.47897E+04  3.37758E+05 -1.32541E+05  2.50762E+05
 -1.89974E+05  8.31596E+04 -1.11457E+05 -3.27600E+04  1.08024E+03 -5.01490E+04  5.37013E+04 -2.76188E+02
  3.50964E+04  5.27346E+04 -1.66672E+04  7.52616E+04 -6.05195E+04  6.35054E+04 -8.38643E+04  3.17989E+04
 -8.05690E+04 -1.14002E+04 -5.68274E+04 -5.10938E+04 -1.51526E+04 -6.91793E+04  2.69272E+04 -4.55277E+04
  3.95688E+04  4.12213E+03  1.62110E+04  4.74216E+04 -3.42697E+04  4.68862E+04 -6.65923E+04 -4.31398E+02
 -5.30690E+04 -5.66458E+04 -6.34485E+03 -7.65359E+04  3.38076E+04 -5.47199E+04  4.74892E+04 -1.73486E+04
  4.27028E+04  1.11512E+04  3.15941E+04  2.53308E+04  1.56853E+04  2.94054E+04 -5.24788E+03  2.69538E+04
 -2.22563E+04  1.23501E+04 -1.88651E+04 -4.94071E+03  5.36895E+03 -7.55514E+03  2.19688E+04  1.20266E+04
  7.41080E+03  3.44991E+04 -3.17046E+04  3.50850E+04 -6.30783E+04  2.36966E+03 -5.65380E+04 -4.25569E+04
 -1.25780E+04 -6.24844E+04  3.94172E+04 -4.46530E+04  5.76109E+04 -2.50288E+03  3.38111E+04  3.21899E+04
 -6.14671E+03  3.51444E+04 -2.95059E+04  1.51655E+04 -2.97381E+04 -4.68041E+03 -1.60914E+04 -1.08490E+04
 -7.88504E+03 -1.29212E+04 -9.87353E+02 -1.76257E+04  7.33344E+03 -2.30032E+04  1.53859E+04 -1.34669E+04
  1.16016E+04  5.04473E+03 -7.74603E+03  1.27345E+04 -2.06923E+04 -3.62532E+03 -8.07178E+03 -3.26946E+04
  2.19954E+04 -4.24715E+04  4.76189E+04 -1.89636E+04  4.44078E+04  1.89953E+04  1.50766E+04  4.37464E+04
 -1.56134E+04  3.30466E+04 -2.48785E+04  1.48422E+03 -9.58320E+03 -2.72634E+04  2.09051E+04 -3.29990E+04
  4.02090E+04 -8.90480E+03  3.48839E+04  2.33844E+04  1.73822E+04  4.52514E+04 -7.67889E+03  4.89817E+04
 -3.08654E+04  3.28274E+04 -4.08601E+04  9.23734E+03 -4.15137E+04 -1.58276E+04 -2.29483E+04 -3.75495E+04
  7.06131E+03 -3.68378E+04  3.09339E+04 -1.42589E+04  2.85762E+04  1.07112E+04  3.69574E+03  1.90929E+04
 -1.37629E+04  7.92987E+03 -1.01855E+04 -7.73534E+03  5.78149E+03 -1.04466E+04  1.78072E+04  6.13247E+03
  1.28078E+04  2.20303E+04 -6.20787E+03  2.46725E+04 -2.24266E+04  1.09344E+04 -2.75175E+04 -5.16909E+03
 -1.96524E+04 -1.71798E+04 -7.82667E+03 -1.93979E+04  3.96843E+03 -1.84973E+04  1.47272E+04 -1.75374E+04
  2.48077E+04 -1.22760E+04  3.14396E+04  2.13820E+03  2.35084E+04  1.90434E+04  4.13705E+03  3.54293E+04
 -1.75672E+04  2.96458E+04 -2.75265E+04  1.02481E+04 -2.05432E+04 -1.03520E+04 -4.21139E+03 -1.33717E+04
  2.15691E+03 -3.11478E+03 -4.64010E+03  6.17138E+03 -1.55647E+04  5.03329E+03 -1.59359E+04 -6.61968E+03
 -9.73179E+03 -1.83583E+04  5.01066E+03 -2.23063E+04  1.45920E+04 -1.59731E+04  1.76633E+04 -1.81890E+03
  1.08695E+04  1.24986E+04 -9.29657E+02  1.83313E+04 -1.24701E+04  1.01413E+04 -1.82464E+04 -4.07316E+03
 -1.33020E+04 -1.62792E+04 -1.99917E+03 -2.21287E+04  1.02549E+04 -1.80196E+04  1.86336E+04 -8.94286E+03
  1.68266E+04  4.53234E+02  1.24186E+04  4.30945E+03  6.45879E+03  7.84936E+02  9.16336E+03 -1.63329E+03
  1.67535E+04  2.74802E+03  1.83479E+04  1.43334E+04  1.19826E+04  2.93097E+04 -3.14528E+03  3.28579E+04
 -1.89459E+04  2.57739E+04 -3.02864E+04  1.28148E+04 -3.14901E+04 -2.18136E+03 -2.62727E+04 -1.85872E+04
 -1.15608E+04 -2.58706E+04  8.57212E+03 -2.32988E+04  2.04255E+04 -1.22199E+04  1.87465E+04  4.96177E+03
  6.95287E+03  1.35443E+04 -8.75155E+03  1.20074E+04 -1.60533E+04  2.48920E+03 -1.19660E+04 -9.71818E+03
 -8.11745E+01 -1.47105E+04  7.43474E+03 -1.10847E+04  9.63169E+03 -1.09822E+03  2.00080E+03  6.17115E+03
 -6.72905E+03  2.25141E+03 -5.53280E+03 -5.42189E+03  1.05778E+02 -1.27429E+04  9.17882E+03 -1.31405E+04
  1.58589E+04 -7.06223E+03  1.65624E+04  2.87194E+03  1.45599E+04  1.24814E+04  6.78507E+03  1.91643E+04
 -2.82473E+03  2.09458E+04 -1.35015E+04  1.30721E+04 -1.49955E+04  3.39207E+03 -1.06532E+04 -3.25628E+03
 -5.29257E+03 -4.71053E+03 -7.59955E+02  1.04383E+03 -2.30674E+03  2.58037E+03 -4.83525E+03  3.93851E+03
 -1.02030E+04 -8.86231E+02 -1.08009E+04 -8.76211E+03 -4.01337E+03 -1.41488E+04  4.79404E+03 -1.09357E+04
  8.73460E+03 -4.45071E+03  6.37431E+03  2.75105E+03  4.65752E+02  3.86866E+03 -5.21094E+03 -2.42168E+02
 -4.77942E+03 -6.86007E+03 -1.09179E+03 -9.99780E+03  5.45810E+03 -1.03079E+04  1.32304E+04 -5.41351E+03
  1.54964E+04  1.15430E+03  1.16990E+04  8.63625E+03  2.37183E+03  1.21637E+04 -6.51686E+03  1.04930E+04
 -8.61746E+03  3.85629E+03 -4.50772E+03 -2.02548E+03  1.85018E+03 -2.54868E+03  5.73097E+03 -1.10579E+03
  5.29464E+03  4.41101E+03  1.19357E+03  8.59451E+03 -5.87006E+03  8.09883E+03 -1.05249E+04  2.02735E+03
 -6.90592E+03 -5.50357E+03  1.93014E+02 -8.95289E+03  5.52742E+03 -4.36414E+03  5.64178E+03  1.64996E+03
  1.13821E+03  5.63538E+03 -5.16827E+03  6.67087E+03 -7.68949E+03  3.28089E+03 -7.43128E+03 -2.32076E+03
 -4.33988E+03 -9.35663E+03  2.45236E+03 -1.05952E+04  8.99867E+03 -6.31242E+03  9.73502E+03  1.56448E+03
  6.33551E+03  7.78690E+03 -4.88884E+02  9.87484E+03 -7.17497E+03  5.87823E+03 -7.96637E+03 -6.30047E+02
 -7.44039E+03 -7.03770E+03 -1.34520E+03 -7.62105E+03  4.18328E+03 -6.21103E+03  4.69973E+03 -3.29991E+03
  3.38084E+03  9.13253E+02 -2.42154E+02  1.56098E+03  1.74547E+02 -1.27244E+03  1.23882E+03 -3.85409E+03
  6.09706E+03 -1.83527E+03  8.81537E+03  1.18349E+03  8.54210E+03  5.59414E+03  7.03037E+03  1.11307E+04
 -2.19747E+03  1.35626E+04 -1.13677E+04  9.84158E+03 -1.54055E+04  2.00095E+03 -1.18962E+04 -4.74821E+03
 -6.31712E+03 -9.68143E+03 -3.01318E+02 -8.33116E+03  2.83043E+03 -4.01024E+03  2.78939E+03 -2.95664E+03
  1.74295E+03 -1.89680E+03  2.81354E+03 -2.79960E+03  4.15339E+03 -2.13190E+03  4.84913E+03 -2.73833E+00
  6.55770E+03  1.80506E+03  2.44724E+03  5.21251E+03 -1.67263E+03  5.48298E+03 -6.47371E+03  4.66473E+03
 -7.75265E+03 -1.28771E+03 -4.31414E+03 -5.36794E+03 -3.57252E+00 -8.24920E+03  4.87583E+03 -8.61216E+03
  8.46202E+03 -4.53285E+03  1.06791E+04  1.19375E+03  7.95526E+03  7.03150E+03  1.61561E+03  9.55115E+03
 -3.69922E+03  8.13778E+03 -5.35792E+03  2.88262E+03 -3.26906E+03 -1.12393E+03 -1.25684E+03 -1.12289E+03
 -9.59387E+02  1.69566E+02 -1.54783E+03  1.84744E+03 -3.78483E+03  1.49577E+03 -5.85461E+03 -7.01763E+02
 -3.33983E+03 -6.14537E+03  1.97936E+02 -7.75426E+03  4.78754E+03 -7.21885E+03  7.01539E+03 -2.22045E+03
  7.13871E+03  3.71698E+03  3.39813E+03  6.33118E+03 -1.30983E+03  7.73342E+03 -4.99200E+03  4.61269E+03
 -6.77575E+03  5.80778E+02 -5.49252E+03 -4.33238E+03 -3.94451E+02 -6.07268E+03  3.06513E+03 -4.30480E+03
  4.50781E+03 -1.58671E+03  3.32043E+03  8.30111E+02  1.01740E+03  2.54058E+03  1.03989E+03  1.16939E+03
  2.05447E+03  6.97910E+02  1.70923E+03  1.35038E+03  1.99697E+03  3.24576E+03  2.04910E+03  3.57273E+03
 -1.74642E+03  5.68844E+03 -4.91938E+03  6.23109E+03 -6.89729E+03  1.88845E+03 -7.60214E+03 -2.09336E+03
 -3.46345E+03 -6.89558E+03  1.02400E+03 -8.02138E+03  3.73873E+03 -4.89787E+03  5.81434E+03 -1.18089E+03
  4.91226E+03  2.82597E+03  8.73993E+02  3.94477E+03 -2.00926E+03  2.43586E+03 -2.55814E+03 -1.02102E+02
 -1.51764E+03 -2.86113E+03  1.69936E+03 -3.17370E+03  2.93949E+03 -1.48947E+03  2.52976E+03  9.31630E+02
  1.72765E+03  1.55810E+03  9.80558E+02  6.64455E+02 -4.77988E+02  9.29538E+02  1.60113E+03 -3.22507E+02
  1.00235E+03 -6.44081E+02  3.03242E+03  1.06196E+03  1.18218E+03  4.18592E+03 -6.68978E+02  5.18007E+03
 -3.22093E+03  2.73147E+03 -4.10203E+03  9.24248E+02 -3.96065E+03 -1.72622E+03 -1.18036E+03 -2.53150E+03
  7.11465E+02 -2.55980E+03  1.84408E+03 -1.49070E+03  1.34157E+03  1.60352E+03 -1.10428E+03  2.39980E+03
 -2.94596E+03  1.63734E+03 -2.94369E+03 -2.21207E+03 -1.55359E+03 -4.04830E+03  1.47478E+02 -3.38991E+03
  1.74313E+03 -2.10137E+03  2.08896E+03 -2.97767E+02  2.60482E+03  6.42060E+02  4.37671E+02  2.05500E+03
 -9.51693E+02  4.32924E+02 -1.55586E+03 -8.67759E+02  8.87316E+02 -2.47436E+03  3.49317E+03 -2.29571E+03
  3.58839E+03 -2.02689E+01  4.80062E+03  2.58742E+03  1.43014E+03  4.12656E+03 -1.35897E+03  4.54085E+03
 -3.10421E+03  1.31179E+03 -3.39087E+03 -8.71126E+02 -2.24322E+03 -3.12523E+03  5.60458E+02 -1.87570E+03
  3.00685E+03 -1.37588E+03  1.77407E+03  1.30038E+03  9.93507E+02  2.53744E+03 -3.69338E+02  1.91791E+03
 -9.55809E+02  1.67522E+03 -9.02330E+02  2.34827E+02 -2.00742E+02  4.95120E+02 -8.15213E+02  8.51613E+02
 -1.04296E+03  1.58696E+03 -3.28416E+03  1.35879E+03 -4.18841E+03  2.03322E+02 -4.83889E+03 -2.40898E+03
 -2.33248E+03 -5.24866E+03  1.27052E+03 -6.22347E+03  3.76284E+03 -5.07799E+03  5.55430E+03 -1.81370E+03
  5.33773E+03  8.39375E+02  2.97142E+03  3.43488E+03 -1.08870E+02  3.80062E+03 -1.52535E+03  3.05880E+03
 -2.41236E+03  1.37669E+03 -1.35575E+03 -4.09705E+02 -3.99329E+02  4.65063E+01 -9.84055E+02  2.62229E+01
 -1.34908E+03 -1.65835E+02 -1.08751E+03  2.99164E+02  1.79692E+02 -1.05508E+03 -3.55865E+02 -1.64745E+03
  2.24674E+03 -1.04745E+03  2.00845E+03  8.88071E+01  2.43631E+03  2.45565E+03  2.21801E+02  3.49502E+03
 -2.04713E+03  4.97521E+03 -3.99786E+03  2.74709E+03 -4.67286E+03 -6.07457E+02 -3.55180E+03 -2.86731E+03
 -1.65945E+03 -3.72185E+03  6.88863E+02 -3.45132E+03  2.27767E+03 -2.01180E+03  2.23347E+03 -7.09259E+01
  1.62891E+03  1.15471E+03  3.46902E+01  1.00684E+03 -9.94707E+02  1.24523E+02  1.88532E+02 -8.82414E+02
  1.12897E+03 -5.17441E+02  1.11681E+03  6.74117E+02  8.96571E+02  1.34497E+03  4.77602E+02  1.19728E+03
 -1.79554E+03  1.31294E+03 -2.37686E+03  3.99960E+02 -1.88523E+03 -1.62897E+03 -8.48205E+01 -3.12649E+03
  1.68339E+03 -2.21462E+03  2.32196E+03 -4.02153E+02  2.44659E+03  5.42978E+01  1.32467E+03  2.15046E+03
  5.00612E+02  2.45423E+03 -1.01095E+03  1.44528E+03 -1.65770E+03  1.04364E+03 -1.35471E+03  3.13534E+02
 -4.47205E+02  8.96925E+01 -1.00409E+03  9.83941E+01 -1.51749E+03  4.05320E+02 -2.05415E+03 -5.10709E+02
 -2.02165E+03 -5.40167E+02 -7.14774E+02 -2.19464E+03  1.22100E+03 -2.98000E+03  1.97652E+03 -9.89363E+02
  2.25585E+03  1.78949E+02  6.44615E+02  1.54428E+03 -2.97881E+02  2.35431E+03 -1.48912E+03  1.45900E+03
