 $NMID ID='MM_0lb_SNR800_9hz_g50_13.RAW', FMTDAT='(8E13.5)'
 TRAMP=1., VOLUME=1. $END
  3.09895E+05  5.60498E+02  3.37777E+05  2.50536E+05  8.49075E+04  3.38716E+05 -1.32775E+05  2.51918E+05
 -1.91167E+05  8.38444E+04 -1.12430E+05 -3.22525E+04  3.64042E+02 -5.05780E+04  5.38001E+04 -5.15482E+02
  3.58617E+04  5.32260E+04 -1.71285E+04  7.57036E+04 -6.15632E+04  6.39197E+04 -8.51076E+04  3.27216E+04
 -8.24880E+04 -1.14647E+04 -5.82089E+04 -5.24750E+04 -1.51751E+04 -7.10667E+04  2.80662E+04 -4.66622E+04
  4.13656E+04  3.70433E+03  1.70338E+04  4.81596E+04 -3.47500E+04  4.80096E+04 -6.82662E+04  5.63608E+02
 -5.48617E+04 -5.78964E+04 -7.13520E+03 -7.91632E+04  3.46915E+04 -5.70430E+04  4.97095E+04 -1.82785E+04
  4.50291E+04  1.15351E+04  3.28303E+04  2.61607E+04  1.62498E+04  3.02818E+04 -6.17745E+03  2.78814E+04
 -2.24474E+04  1.20897E+04 -1.79881E+04 -5.80786E+03  6.94360E+03 -7.22409E+03  2.31051E+04  1.37965E+04
  7.50759E+03  3.72774E+04 -3.37771E+04  3.71180E+04 -6.57470E+04  2.08021E+03 -5.87253E+04 -4.47070E+04
 -1.22125E+04 -6.60102E+04  4.14776E+04 -4.71322E+04  6.08678E+04 -2.30117E+03  3.69902E+04  3.44470E+04
 -5.76529E+03  3.92432E+04 -3.15959E+04  1.86905E+04 -3.34315E+04 -3.50435E+03 -1.94810E+04 -1.17804E+04
 -9.17619E+03 -1.44228E+04 -3.97217E+02 -1.97708E+04  8.71841E+03 -2.36603E+04  1.57382E+04 -1.26121E+04
  1.05225E+04  6.23991E+03 -1.03633E+04  1.33633E+04 -2.36044E+04 -6.89986E+03 -8.55029E+03 -3.74693E+04
  2.50713E+04 -4.68284E+04  5.21655E+04 -2.12615E+04  4.86407E+04  2.14059E+04  1.73059E+04  4.71005E+04
 -1.64233E+04  3.57419E+04 -2.77181E+04  2.34939E+03 -1.15805E+04 -2.97832E+04  2.16809E+04 -3.69733E+04
  4.46268E+04 -1.10701E+04  4.02387E+04  2.51106E+04  2.16064E+04  5.08621E+04 -8.08450E+03  5.62707E+04
 -3.53570E+04  3.81951E+04 -4.76932E+04  1.12091E+04 -4.77820E+04 -1.84358E+04 -2.62043E+04 -4.19946E+04
  7.50592E+03 -4.19493E+04  3.40595E+04 -1.70896E+04  3.23116E+04  1.10622E+04  5.53065E+03  2.11669E+04
 -1.37018E+04  9.78687E+03 -1.11388E+04 -7.56166E+03  5.68958E+03 -1.13819E+04  1.83011E+04  5.59681E+03
  1.50618E+04  2.26901E+04 -4.99698E+03  2.71240E+04 -2.34597E+04  1.41708E+04 -3.17326E+04 -2.95871E+03
 -2.57195E+04 -1.81731E+04 -1.14448E+04 -2.48026E+04  4.52845E+03 -2.55220E+04  1.98438E+04 -2.33828E+04
  3.20797E+04 -1.45010E+04  3.80525E+04  4.85012E+03  2.69655E+04  2.42760E+04  4.20737E+03  4.16309E+04
 -2.04080E+04  3.35915E+04 -3.05178E+04  1.17549E+04 -2.30103E+04 -1.02111E+04 -5.29100E+03 -1.29000E+04
  4.16652E+02 -9.31285E+02 -7.69231E+03  8.01278E+03 -2.00008E+04  5.02482E+03 -2.03156E+04 -9.62761E+03
 -1.19971E+04 -2.27237E+04  6.48599E+03 -2.77953E+04  1.88503E+04 -1.96374E+04  2.31086E+04 -2.04900E+03
  1.48328E+04  1.57266E+04 -1.42639E+03  2.29052E+04 -1.66267E+04  1.33876E+04 -2.35061E+04 -4.39938E+03
 -1.71203E+04 -2.07682E+04 -1.81199E+03 -2.79183E+04  1.28037E+04 -2.29575E+04  2.36822E+04 -1.21772E+04
  2.17069E+04 -5.02645E+02  1.58935E+04  5.07338E+03  8.97850E+03  1.63924E+03  1.22400E+04 -2.04185E+03
  2.18259E+04  2.98633E+03  2.53652E+04  1.81131E+04  1.72847E+04  3.77932E+04 -2.82181E+03  4.45761E+04
 -2.52262E+04  3.69758E+04 -4.17296E+04  1.91855E+04 -4.49452E+04 -3.25257E+03 -3.56479E+04 -2.63652E+04
 -1.46164E+04 -3.69918E+04  1.30285E+04 -3.25202E+04  2.80219E+04 -1.50815E+04  2.44533E+04  7.66133E+03
  8.39068E+03  1.87356E+04 -1.15754E+04  1.55935E+04 -2.01836E+04  2.64229E+03 -1.50438E+04 -1.29015E+04
 -1.31954E+02 -1.94841E+04  1.03944E+04 -1.42185E+04  1.37223E+04 -1.37799E+03  3.48750E+03  8.70201E+03
 -8.33151E+03  4.18145E+03 -8.95244E+03 -6.89999E+03 -2.39615E+03 -1.77661E+04  1.13753E+04 -2.00100E+04
  2.34570E+04 -1.15157E+04  2.66427E+04  3.10830E+03  2.27924E+04  1.88343E+04  1.07734E+04  2.90667E+04
 -5.56523E+03  3.12273E+04 -2.06688E+04  1.92547E+04 -2.23824E+04  3.77121E+03 -1.51997E+04 -6.00354E+03
 -6.32977E+03 -7.26660E+03 -9.01129E+02  4.70405E+02 -3.05484E+03  3.65574E+03 -7.34909E+03  5.64727E+03
 -1.42922E+04 -1.00271E+03 -1.49820E+04 -1.15265E+04 -6.15327E+03 -1.94562E+04  6.33370E+03 -1.58007E+04
  1.26365E+04 -6.52114E+03  9.27466E+03  4.37931E+03 -1.16594E+02  6.05400E+03 -7.79914E+03 -2.61047E+02
 -7.84048E+03 -1.02786E+04 -9.78829E+02 -1.55492E+04  8.99207E+03 -1.61280E+04  1.99897E+04 -8.93638E+03
  2.34389E+04  2.37511E+03  1.71323E+04  1.45170E+04  3.26409E+03  1.88910E+04 -9.53870E+03  1.55068E+04
 -1.24848E+04  4.36164E+03 -6.28090E+03 -3.60067E+03  2.38409E+03 -4.12152E+03  8.70114E+03 -1.04390E+03
  7.64936E+03  7.00689E+03  1.34009E+03  1.22344E+04 -8.84027E+03  1.22269E+04 -1.53592E+04  2.75805E+03
 -1.04762E+04 -8.42679E+03 -7.10914E+01 -1.34800E+04  8.56188E+03 -6.67314E+03  9.42316E+03  3.43426E+03
  2.22767E+03  1.01383E+04 -8.19715E+03  1.13771E+04 -1.35002E+04  5.03163E+03 -1.44284E+04 -4.93102E+03
 -8.04437E+03 -1.59628E+04  4.07209E+03 -1.81624E+04  1.53972E+04 -1.08005E+04  1.70611E+04  3.02762E+03
  1.02452E+04  1.31362E+04 -1.44899E+03  1.58923E+04 -1.15285E+04  8.89080E+03 -1.29110E+04 -1.27112E+03
 -1.07754E+04 -1.01848E+04 -2.09195E+03 -1.21443E+04  6.48543E+03 -9.88873E+03  7.83784E+03 -3.29589E+03
  4.49969E+03  2.45164E+03 -1.20512E+03  1.89208E+03 -1.14093E+03 -3.57779E+03  2.78973E+03 -7.32521E+03
  1.16138E+04 -4.66632E+03  1.60459E+04  1.75027E+03  1.59259E+04  1.08515E+04  1.02289E+04  2.08695E+04
 -5.10571E+03  2.40729E+04 -2.02493E+04  1.75467E+04 -2.57514E+04  3.24411E+03 -2.10303E+04 -9.01807E+03
 -1.08920E+04 -1.72121E+04 -2.65751E+02 -1.41786E+04  5.26926E+03 -8.10240E+03  5.19331E+03 -5.45817E+03
  3.98327E+03 -3.26791E+03  4.24789E+03 -3.75819E+03  5.65494E+03 -3.38490E+03  8.22027E+03 -1.39572E+03
  1.08557E+04  2.58400E+03  6.07608E+03  9.44894E+03 -2.25761E+03  1.15493E+04 -1.11620E+04  8.43977E+03
 -1.47643E+04 -9.37352E+02 -9.50221E+03 -1.06029E+04 -1.51804E+03 -1.58228E+04  8.42080E+03 -1.58571E+04
  1.65426E+04 -9.14271E+03  1.95793E+04  2.82924E+03  1.32599E+04  1.37417E+04  1.90943E+03  1.74845E+04
 -7.47359E+03  1.44901E+04 -1.06571E+04  5.07490E+03 -7.25500E+03 -1.66508E+03 -3.02511E+03 -2.01529E+03
 -1.54247E+03  1.93559E+02 -2.62017E+03  2.66683E+03 -6.19840E+03  2.61862E+03 -1.01353E+04 -1.34632E+03
 -7.09667E+03 -9.97167E+03 -2.43353E+02 -1.44965E+04  9.22169E+03 -1.34914E+04  1.45626E+04 -4.42810E+03
  1.45389E+04  7.15415E+03  6.58954E+03  1.33618E+04 -2.99271E+03  1.52067E+04 -1.07193E+04  9.35717E+03
 -1.40457E+04  7.94840E+02 -1.09727E+04 -8.98400E+03 -7.81822E+02 -1.24958E+04  6.55177E+03 -8.91119E+03
  9.32580E+03 -3.36912E+03  6.96259E+03  2.57904E+03  1.99895E+03  4.42295E+03  1.68699E+03  2.06240E+03
  2.79305E+03  7.47495E+02  3.42460E+03  2.12160E+03  4.27941E+03  5.13742E+03  3.64759E+03  8.21727E+03
 -3.28219E+03  1.24047E+04 -1.01141E+04  1.17700E+04 -1.51874E+04  3.11488E+03 -1.57155E+04 -6.64178E+03
 -7.62362E+03 -1.53492E+04  2.34963E+03 -1.62958E+04  8.98665E+03 -1.04374E+04  1.24894E+04 -2.54896E+03
  9.63192E+03  5.75012E+03  1.97739E+03  8.66078E+03 -4.45650E+03  5.62428E+03 -6.25244E+03 -1.17365E+03
 -2.67871E+03 -6.48558E+03  3.41452E+03 -6.53079E+03  6.02212E+03 -3.28384E+03  6.48092E+03  1.30509E+03
  3.63048E+03  3.14629E+03  1.79760E+03  2.31891E+03 -3.79665E+02  2.16168E+03  1.81049E+03 -4.52203E+02
  3.10191E+03 -7.35235E+02  6.11747E+03  2.33346E+03  3.84527E+03  7.81151E+03 -1.13011E+03  1.08868E+04
 -7.38559E+03  6.89326E+03 -9.65324E+03  2.25661E+03 -8.37409E+03 -3.64243E+03 -3.16812E+03 -6.02666E+03
  4.59992E+02 -5.64023E+03  3.55656E+03 -3.09713E+03  3.58546E+03  2.88454E+03 -1.14486E+03  5.25927E+03
 -6.23404E+03  2.41694E+03 -6.89702E+03 -3.59927E+03 -4.22338E+03 -8.44173E+03  1.44095E+03 -8.42079E+03
  4.97961E+03 -5.08479E+03  6.35190E+03 -7.04923E+02  5.23032E+03  2.07701E+03  7.13796E+02  4.57302E+03
 -3.13095E+03  1.25441E+03 -3.71882E+03 -3.00139E+03  1.29877E+03 -6.85054E+03  7.46468E+03 -5.20243E+03
  9.44431E+03  9.80452E+02  9.47309E+03  6.55001E+03  3.18375E+03  1.01241E+04 -3.33827E+03  9.64006E+03
 -8.23395E+03  4.45897E+03 -8.58759E+03 -1.49940E+03 -4.90084E+03 -6.30393E+03  1.51040E+03 -6.11906E+03
  6.52829E+03 -3.04595E+03  5.44974E+03  2.69661E+03  1.75926E+03  5.62203E+03 -1.28206E+03  5.13505E+03
 -2.52834E+03  3.58133E+03 -2.84244E+03  1.05786E+03 -1.28420E+03  9.99027E+02 -1.75239E+03  2.02098E+03
 -2.76715E+03  4.08745E+03 -6.45553E+03  3.51213E+03 -9.93156E+03  1.74358E+02 -1.13475E+04 -6.55548E+03
 -6.25525E+03 -1.35419E+04  2.91249E+03 -1.52261E+04  9.44345E+03 -1.19094E+04  1.43601E+04 -4.61401E+03
  1.38053E+04  2.84086E+03  8.53492E+03  9.22789E+03  1.22691E+03  1.08418E+04 -4.62810E+03  7.67676E+03
 -5.80035E+03  2.93012E+03 -3.71093E+03 -9.76993E+02 -1.23955E+03 -1.22271E+03 -6.82736E+02  4.38318E+02
 -1.82769E+03  4.75300E+02 -2.33049E+03 -2.77327E+02 -8.48749E+02 -2.19776E+03  3.71367E+02 -3.77261E+03
  4.70178E+03 -3.28434E+03  6.15640E+03  3.35665E+02  7.73071E+03  5.40004E+03  1.75659E+03  1.04998E+04
 -4.88535E+03  1.18135E+04 -1.11173E+04  6.83455E+03 -1.28804E+04 -8.13534E+02 -9.68955E+03 -7.71172E+03
 -4.12054E+03 -1.06695E+04  3.16143E+03 -9.93238E+03  6.97297E+03 -5.15643E+03  6.32221E+03  4.66053E+02
  3.95473E+03  3.42386E+03 -3.76469E+02  2.91243E+03 -1.98591E+03 -3.83925E+02 -4.08425E+02 -2.58361E+03
  3.10516E+03 -2.11624E+03  4.24228E+03  1.20521E+03  2.73428E+03  4.08719E+03  1.41107E+02  5.12541E+03
 -4.98602E+03  4.95017E+03 -7.19122E+03  3.10638E+01 -6.53225E+03 -4.96015E+03 -1.08165E+03 -9.04996E+03
  5.10948E+03 -7.58569E+03  8.14416E+03 -2.64336E+03  8.78642E+03  1.60760E+03  4.96796E+03  6.81281E+03
  1.46044E+03  7.13579E+03 -2.87067E+03  5.44282E+03 -4.74394E+03  3.02891E+03 -3.87421E+03  1.53556E+02
 -1.86205E+03 -1.60901E+02 -2.24502E+03  7.24808E+02 -3.69285E+03  9.12336E+02 -5.65513E+03 -9.21960E+02
 -5.56577E+03 -3.99285E+03 -1.81735E+03 -6.81207E+03  3.30508E+03 -7.20424E+03  6.25475E+03 -3.46198E+03
  6.93127E+03  8.51537E+02  4.22393E+03  4.50383E+03 -7.60601E+02  7.50601E+03 -5.31448E+03  4.52786E+03
