 $NMID ID='MM_0lb_SNR800_9hz_g55_23.RAW', FMTDAT='(8E13.5)'
 TRAMP=1., VOLUME=1. $END
  3.09787E+05  5.74465E+02  3.37676E+05  2.50367E+05  8.51010E+04  3.38751E+05 -1.32662E+05  2.51637E+05
 -1.90890E+05  8.35994E+04 -1.13043E+05 -3.25866E+04  4.07090E+01 -5.08161E+04  5.43060E+04 -7.34814E+02
  3.56238E+04  5.31961E+04 -1.62933E+04  7.63169E+04 -6.13557E+04  6.45428E+04 -8.56118E+04  3.24141E+04
 -8.27409E+04 -1.20234E+04 -5.83015E+04 -5.23361E+04 -1.48606E+04 -7.07210E+04  2.79390E+04 -4.67154E+04
  4.08102E+04  3.52864E+03  1.66216E+04  4.90012E+04 -3.47126E+04  4.79413E+04 -6.82213E+04  3.41456E+02
 -5.52487E+04 -5.80752E+04 -7.09237E+03 -7.94082E+04  3.45942E+04 -5.73283E+04  4.95793E+04 -1.85765E+04
  4.55577E+04  1.11332E+04  3.33216E+04  2.68237E+04  1.57778E+04  3.04365E+04 -5.76221E+03  2.78336E+04
 -2.26036E+04  1.21260E+04 -1.78642E+04 -5.86175E+03  6.81500E+03 -7.44231E+03  2.36260E+04  1.42460E+04
  6.72784E+03  3.76723E+04 -3.38781E+04  3.68929E+04 -6.63999E+04  2.20412E+03 -5.93571E+04 -4.46268E+04
 -1.30429E+04 -6.64975E+04  4.16229E+04 -4.80321E+04  6.15081E+04 -2.56221E+03  3.70094E+04  3.44048E+04
 -5.07688E+03  3.94328E+04 -3.18654E+04  1.88522E+04 -3.36680E+04 -3.43992E+03 -1.92893E+04 -1.22313E+04
 -9.61663E+03 -1.52814E+04 -5.43388E+02 -1.94698E+04  8.80468E+03 -2.36028E+04  1.60795E+04 -1.24010E+04
  1.06883E+04  6.15806E+03 -1.07120E+04  1.25452E+04 -2.37115E+04 -7.01840E+03 -8.69870E+03 -3.77133E+04
  2.50873E+04 -4.68587E+04  5.23964E+04 -2.14612E+04  4.89609E+04  2.08849E+04  1.80035E+04  4.73888E+04
 -1.69806E+04  3.65710E+04 -2.77833E+04  2.54574E+03 -1.18993E+04 -2.94532E+04  2.17608E+04 -3.70978E+04
  4.46599E+04 -1.11892E+04  4.09924E+04  2.47903E+04  2.15994E+04  5.15548E+04 -8.30626E+03  5.67212E+04
 -3.56299E+04  3.87712E+04 -4.79244E+04  1.12297E+04 -4.82828E+04 -1.87484E+04 -2.65305E+04 -4.28731E+04
  8.17992E+03 -4.23115E+04  3.47085E+04 -1.72632E+04  3.23727E+04  1.14632E+04  5.18349E+03  2.11229E+04
 -1.43431E+04  9.85820E+03 -1.14330E+04 -7.61386E+03  6.00333E+03 -1.15969E+04  1.95308E+04  5.51709E+03
  1.50091E+04  2.27640E+04 -5.20285E+03  2.73353E+04 -2.37982E+04  1.48203E+04 -3.14044E+04 -2.89879E+03
 -2.59968E+04 -1.89636E+04 -1.23494E+04 -2.54611E+04  4.43369E+03 -2.61433E+04  2.04251E+04 -2.34557E+04
  3.30298E+04 -1.38311E+04  3.85853E+04  4.91328E+03  2.74587E+04  2.47881E+04  3.99922E+03  4.18050E+04
 -2.00316E+04  3.43563E+04 -3.07071E+04  1.18750E+04 -2.26298E+04 -1.03263E+04 -4.70476E+03 -1.25772E+04
  6.42030E+02 -1.13843E+03 -7.94320E+03  8.47423E+03 -2.08682E+04  4.86395E+03 -2.01368E+04 -1.00114E+04
 -1.18331E+04 -2.35821E+04  6.20255E+03 -2.81115E+04  1.89832E+04 -2.01960E+04  2.30800E+04 -2.07001E+03
  1.49072E+04  1.63361E+04 -1.57146E+03  2.37874E+04 -1.69093E+04  1.35275E+04 -2.40444E+04 -5.22477E+03
 -1.74384E+04 -2.16028E+04 -2.06249E+03 -2.83596E+04  1.27455E+04 -2.38099E+04  2.35760E+04 -1.22523E+04
  2.22760E+04  1.01499E+02  1.60123E+04  5.15958E+03  9.55999E+03  1.61140E+03  1.23058E+04 -2.27823E+03
  2.26299E+04  2.72150E+03  2.60654E+04  1.86094E+04  1.78673E+04  3.83799E+04 -2.82273E+03  4.53495E+04
 -2.57127E+04  3.74137E+04 -4.26971E+04  1.97661E+04 -4.56816E+04 -3.02800E+03 -3.72297E+04 -2.69671E+04
 -1.41832E+04 -3.82189E+04  1.35862E+04 -3.35795E+04  2.86913E+04 -1.55458E+04  2.49407E+04  8.13217E+03
  8.61464E+03  1.90710E+04 -1.15959E+04  1.60397E+04 -2.07649E+04  2.41726E+03 -1.56810E+04 -1.28369E+04
 -8.62589E-01 -1.94538E+04  1.07381E+04 -1.46688E+04  1.37744E+04 -1.43269E+03  3.98541E+03  9.04546E+03
 -8.75762E+03  4.50347E+03 -9.48147E+03 -7.38250E+03 -1.88483E+03 -1.89342E+04  1.23107E+04 -2.09267E+04
  2.36934E+04 -1.19527E+04  2.68105E+04  3.56649E+03  2.36921E+04  1.90035E+04  1.08080E+04  2.96791E+04
 -5.80068E+03  3.22312E+04 -2.11705E+04  1.97081E+04 -2.33173E+04  4.23687E+03 -1.61448E+04 -5.93911E+03
 -6.20783E+03 -7.44032E+03 -7.38272E+02  6.09431E+02 -3.16925E+03  3.28736E+03 -7.17044E+03  5.99561E+03
 -1.44563E+04 -8.15533E+02 -1.53182E+04 -1.18335E+04 -6.59332E+03 -1.99072E+04  6.46876E+03 -1.58564E+04
  1.30013E+04 -6.29971E+03  9.65617E+03  4.77166E+03 -7.43380E+02  6.52435E+03 -7.99176E+03 -2.64669E+02
 -7.81595E+03 -1.05248E+04 -7.95105E+02 -1.59279E+04  9.41767E+03 -1.68982E+04  2.08299E+04 -9.08745E+03
  2.40884E+04  2.59870E+03  1.78847E+04  1.45314E+04  3.58122E+03  1.97019E+04 -9.73902E+03  1.60721E+04
 -1.30465E+04  4.58246E+03 -6.74351E+03 -3.56092E+03  2.09842E+03 -4.86064E+03  8.46453E+03 -7.97035E+02
  7.72003E+03  7.23623E+03  1.23099E+03  1.29382E+04 -9.73399E+03  1.29529E+04 -1.59362E+04  3.14441E+03
 -1.09114E+04 -8.36195E+03  2.01346E+02 -1.37604E+04  9.08541E+03 -7.41078E+03  9.62279E+03  3.22680E+03
  2.19510E+03  1.03046E+04 -8.92121E+03  1.19837E+04 -1.40148E+04  5.21926E+03 -1.46276E+04 -5.44613E+03
 -8.55491E+03 -1.65017E+04  4.17299E+03 -1.90603E+04  1.61278E+04 -1.10656E+04  1.71776E+04  3.03057E+03
  1.07342E+04  1.40216E+04 -1.69954E+03  1.65826E+04 -1.19566E+04  9.08011E+03 -1.31985E+04 -1.59920E+03
 -1.12089E+04 -1.06686E+04 -1.76808E+03 -1.22954E+04  6.46221E+03 -9.96131E+03  8.17299E+03 -3.73083E+03
  5.26194E+03  2.29514E+03 -1.27460E+03  1.85937E+03 -1.00541E+03 -3.76792E+03  2.56005E+03 -7.94561E+03
  1.20805E+04 -5.07897E+03  1.66414E+04  1.92730E+03  1.59886E+04  1.17508E+04  1.07042E+04  2.17032E+04
 -4.93258E+03  2.49874E+04 -2.04972E+04  1.85442E+04 -2.68368E+04  3.35861E+03 -2.19130E+04 -9.58773E+03
 -1.05837E+04 -1.78201E+04 -2.42732E+01 -1.49696E+04  5.34891E+03 -8.67120E+03  5.59317E+03 -5.65067E+03
  4.34221E+03 -2.98206E+03  4.13610E+03 -4.14175E+03  6.21894E+03 -3.46597E+03  8.15915E+03 -1.55025E+03
  1.09749E+04  2.33536E+03  5.92198E+03  9.59051E+03 -2.60832E+03  1.19039E+04 -1.19368E+04  8.87141E+03
 -1.54496E+04 -1.28542E+03 -1.02380E+04 -1.08503E+04 -1.54088E+03 -1.65203E+04  8.85038E+03 -1.66075E+04
  1.70818E+04 -8.60452E+03  2.02431E+04  2.93610E+03  1.40834E+04  1.44988E+04  2.26398E+03  1.90136E+04
 -7.58231E+03  1.50380E+04 -1.07083E+04  4.94875E+03 -7.60821E+03 -2.03644E+03 -3.22653E+03 -2.25334E+03
 -1.41940E+03 -2.37013E+02 -2.68024E+03  3.60794E+03 -5.96745E+03  2.43229E+03 -1.03390E+04 -1.35926E+03
 -7.34706E+03 -1.06934E+04 -1.43281E+02 -1.51085E+04  9.49340E+03 -1.38398E+04  1.55409E+04 -4.30651E+03
  1.50193E+04  7.60615E+03  7.16951E+03  1.37282E+04 -2.85755E+03  1.56141E+04 -1.08432E+04  9.23897E+03
 -1.49467E+04  4.24234E+02 -1.08431E+04 -9.30778E+03 -1.27087E+03 -1.25950E+04  7.01050E+03 -9.85950E+03
  9.98002E+03 -3.22119E+03  6.33339E+03  2.78693E+03  2.87267E+03  4.39843E+03  1.61856E+03  2.06486E+03
  2.72511E+03  1.29980E+03  3.39214E+03  2.07492E+03  4.41495E+03  5.04343E+03  3.87981E+03  8.23924E+03
 -3.05671E+03  1.25440E+04 -1.12898E+04  1.23903E+04 -1.63942E+04  3.03748E+03 -1.68536E+04 -7.05914E+03
 -7.90843E+03 -1.60106E+04  2.17396E+03 -1.69188E+04  9.70486E+03 -1.13422E+04  1.29922E+04 -2.69580E+03
  1.01277E+04  5.98668E+03  1.92356E+03  9.24045E+03 -4.52505E+03  6.17151E+03 -6.99721E+03 -8.76876E+02
 -2.92081E+03 -6.72767E+03  3.37430E+03 -7.11408E+03  6.84432E+03 -3.61099E+03  5.97229E+03  1.38602E+03
  3.82463E+03  3.33756E+03  1.56203E+03  2.75816E+03 -8.22374E+02  2.37336E+03  1.80630E+03 -4.65815E+02
  2.24544E+03 -1.34477E+03  6.19903E+03  2.62586E+03  3.94527E+03  8.49201E+03 -1.53005E+03  1.12838E+04
 -7.99881E+03  7.32771E+03 -1.02454E+04  2.50109E+03 -8.63714E+03 -3.94325E+03 -3.63594E+03 -6.03378E+03
  7.71625E+02 -5.86749E+03  3.99552E+03 -2.73763E+03  3.34983E+03  2.66584E+03 -1.72313E+03  5.10243E+03
 -6.51695E+03  3.01655E+03 -7.71746E+03 -4.03370E+03 -4.44273E+03 -8.55213E+03  1.34711E+03 -9.06714E+03
  5.27338E+03 -5.15825E+03  6.58395E+03 -5.17641E+02  5.36199E+03  2.40406E+03  7.29562E+02  4.47480E+03
 -3.20679E+03  1.35777E+03 -3.92477E+03 -3.14874E+03  1.05247E+03 -6.65169E+03  7.83556E+03 -5.50989E+03
  1.01567E+04  9.44106E+02  9.94501E+03  6.64673E+03  2.64531E+03  1.03883E+04 -3.68188E+03  9.64377E+03
 -8.88032E+03  4.85499E+03 -8.94283E+03 -1.29448E+03 -4.90403E+03 -7.00944E+03  1.32268E+03 -6.81707E+03
  6.29678E+03 -2.85093E+03  5.70924E+03  2.46829E+03  1.81101E+03  5.84588E+03 -9.48877E+02  4.99089E+03
 -2.36385E+03  3.16221E+03 -2.53196E+03  1.26254E+03 -1.51014E+03  1.28784E+03 -1.53851E+03  1.88489E+03
 -2.49247E+03  4.25718E+03 -7.19242E+03  3.78070E+03 -9.85042E+03  2.88038E+02 -1.19946E+04 -6.93716E+03
 -6.38616E+03 -1.39980E+04  2.82160E+03 -1.62095E+04  1.04796E+04 -1.23653E+04  1.53457E+04 -4.54769E+03
  1.45455E+04  2.63848E+03  8.92435E+03  9.72673E+03  7.62100E+02  1.11195E+04 -4.22830E+03  8.07646E+03
 -6.21519E+03  2.52001E+03 -3.90725E+03 -1.29187E+03 -1.25142E+03 -1.04295E+03 -5.93886E+02  3.52494E+02
 -2.03642E+03  1.33234E+02 -2.38018E+03 -3.23032E+02 -9.75187E+02 -2.84891E+03  8.06363E+01 -4.05690E+03
  4.89616E+03 -3.61086E+03  6.47136E+03  9.91844E+01  7.48280E+03  5.58502E+03  2.17072E+03  1.10074E+04
 -5.64176E+03  1.24490E+04 -1.16268E+04  7.61765E+03 -1.33644E+04 -9.54189E+02 -9.97197E+03 -7.98043E+03
 -4.14737E+03 -1.08875E+04  2.57145E+03 -1.01295E+04  6.86856E+03 -5.47910E+03  7.32778E+03  4.57087E+02
  4.17606E+03  3.57432E+03 -3.90818E+02  3.25530E+03 -2.05421E+03 -2.89180E+02  6.46302E+00 -2.41584E+03
  3.11474E+03 -1.25146E+03  4.46606E+03  1.29618E+03  3.06975E+03  4.51922E+03 -2.51011E+02  5.67133E+03
 -5.14917E+03  4.89075E+03 -7.07339E+03  3.98961E+02 -6.78141E+03 -5.07560E+03 -7.07952E+02 -9.31572E+03
  5.25479E+03 -7.74400E+03  8.48582E+03 -2.44274E+03  8.44174E+03  2.12036E+03  4.68190E+03  7.13302E+03
  9.44382E+02  7.12859E+03 -2.81044E+03  5.63798E+03 -4.77144E+03  3.09449E+03 -3.90185E+03  7.87234E+02
 -2.00415E+03 -3.44932E+02 -1.90360E+03  5.31401E+02 -3.69874E+03  1.06450E+03 -5.50800E+03 -1.08135E+03
 -5.82064E+03 -3.43880E+03 -1.96358E+03 -7.46247E+03  3.63434E+03 -7.50420E+03  6.95468E+03 -3.96505E+03
  7.40212E+03  1.38326E+03  4.01099E+03  5.69248E+03 -7.39295E+02  6.97015E+03 -5.78068E+03  4.88347E+03
