 $NMID ID='MM_0lb_SNR800_20hz_g45_48.RAW', FMTDAT='(8E13.5)'
 TRAMP=1., VOLUME=1. $END
  3.09801E+05  2.41853E+02  3.36992E+05  2.50280E+05  8.43674E+04  3.37363E+05 -1.32262E+05  2.50090E+05
 -1.89774E+05  8.23777E+04 -1.10859E+05 -3.29266E+04  1.79483E+03 -5.00950E+04  5.38379E+04  2.57863E+02
  3.49577E+04  5.29348E+04 -1.70280E+04  7.47816E+04 -6.02984E+04  6.22857E+04 -8.25070E+04  3.12195E+04
 -7.89778E+04 -1.10545E+04 -5.59265E+04 -4.99691E+04 -1.49191E+04 -6.77061E+04  2.67955E+04 -4.44456E+04
  3.87434E+04  4.13101E+03  1.52649E+04  4.67878E+04 -3.38780E+04  4.59204E+04 -6.48777E+04 -6.09597E+02
 -5.16526E+04 -5.56632E+04 -6.03181E+03 -7.45459E+04  3.27585E+04 -5.22733E+04  4.55800E+04 -1.60290E+04
  4.10120E+04  1.12476E+04  3.03687E+04  2.40056E+04  1.57729E+04  2.78210E+04 -4.51919E+03  2.64850E+04
 -2.14663E+04  1.30770E+04 -1.94430E+04 -3.96632E+03  3.83628E+03 -7.70933E+03  2.09361E+04  1.06049E+04
  7.54217E+03  3.25049E+04 -2.99113E+04  3.36231E+04 -6.03122E+04  2.14152E+03 -5.46834E+04 -4.05785E+04
 -1.23201E+04 -5.99222E+04  3.72909E+04 -4.25849E+04  5.46417E+04 -1.82700E+03  3.11451E+04  2.98484E+04
 -6.73378E+03  3.22888E+04 -2.76976E+04  1.25275E+04 -2.67789E+04 -5.77993E+03 -1.34948E+04 -9.81953E+03
 -7.21584E+03 -1.06277E+04 -1.03410E+03 -1.62289E+04  6.39071E+03 -2.24529E+04  1.49411E+04 -1.39815E+04
  1.23707E+04  3.82494E+03 -5.62217E+03  1.29230E+04 -1.86292E+04 -1.68304E+03 -8.15784E+03 -2.94201E+04
  1.98782E+04 -3.96465E+04  4.34690E+04 -1.82529E+04  4.07911E+04  1.78376E+04  1.37291E+04  4.08628E+04
 -1.50047E+04  3.02736E+04 -2.24148E+04  6.95947E+02 -7.49965E+03 -2.57866E+04  2.04190E+04 -3.02167E+04
  3.70192E+04 -6.69545E+03  3.01634E+04  2.25358E+04  1.44397E+04  4.15584E+04 -7.64498E+03  4.34277E+04
 -2.75036E+04  2.86351E+04 -3.57807E+04  7.84199E+03 -3.69354E+04 -1.43860E+04 -2.04067E+04 -3.29402E+04
  6.68296E+03 -3.30464E+04  2.87028E+04 -1.20678E+04  2.58839E+04  1.06107E+04  2.47295E+03  1.71672E+04
 -1.27886E+04  6.93134E+03 -9.07975E+03 -7.86562E+03  6.09601E+03 -9.71935E+03  1.70478E+04  6.62694E+03
  1.22334E+04  2.14546E+04 -6.76724E+03  2.27452E+04 -2.09385E+04  8.14371E+03 -2.39269E+04 -6.76921E+03
 -1.54572E+04 -1.59702E+04 -4.60762E+03 -1.54145E+04  3.59732E+03 -1.30905E+04  1.13904E+04 -1.32786E+04
  1.96920E+04 -1.14634E+04  2.68599E+04  5.32075E+02  2.03621E+04  1.54086E+04  4.21684E+03  3.10269E+04
 -1.56522E+04  2.66689E+04 -2.51748E+04  9.06906E+03 -1.92669E+04 -1.01870E+04 -3.69823E+03 -1.40446E+04
  2.81282E+03 -4.47017E+03 -1.87836E+03  4.83983E+03 -1.18243E+04  5.25387E+03 -1.25193E+04 -4.06155E+03
 -8.19317E+03 -1.47062E+04  4.26932E+03 -1.80159E+04  1.15931E+04 -1.32715E+04  1.34153E+04 -1.56566E+03
  8.43028E+03  9.88199E+03 -7.98988E+02  1.44036E+04 -9.36381E+03  8.12625E+03 -1.41697E+04 -3.19426E+03
 -1.09398E+04 -1.31977E+04 -1.74824E+03 -1.75989E+04  7.93331E+03 -1.41533E+04  1.50177E+04 -6.75769E+03
  1.34801E+04  9.15359E+02  9.83082E+03  3.75616E+03  4.79774E+03  1.68074E+02  6.91287E+03 -1.24574E+03
  1.28736E+04  2.57202E+03  1.32365E+04  1.18764E+04  8.10854E+03  2.28688E+04 -3.10310E+03  2.42837E+04
 -1.45464E+04  1.81328E+04 -2.16744E+04  8.29286E+03 -2.26338E+04 -1.72933E+03 -1.94013E+04 -1.28363E+04
 -9.51298E+03 -1.82340E+04  5.65109E+03 -1.71508E+04  1.49710E+04 -1.00114E+04  1.47367E+04  3.26766E+03
  6.35945E+03  9.83430E+03 -6.36960E+03  9.72115E+03 -1.23747E+04  2.65885E+03 -9.71140E+03 -7.55036E+03
  1.68860E+02 -1.15430E+04  5.73389E+03 -8.86388E+03  7.26552E+03 -1.45262E+03  1.09652E+03  4.59891E+03
 -5.35264E+03  8.30234E+02 -2.99632E+03 -4.37731E+03  1.14902E+03 -9.00273E+03  7.40680E+03 -8.60287E+03
  1.07024E+04 -3.70518E+03  1.04901E+04  2.72062E+03  8.80584E+03  8.48103E+03  4.21044E+03  1.21082E+04
 -1.08772E+03  1.39792E+04 -8.17774E+03  8.87042E+03 -9.93290E+03  2.72473E+03 -7.39095E+03 -1.42592E+03
 -4.20348E+03 -2.76032E+03 -8.52317E+02  1.45675E+03 -1.58818E+03  1.74528E+03 -3.01863E+03  3.23773E+03
 -7.38020E+03 -5.82882E+02 -8.15784E+03 -6.56645E+03 -3.33243E+03 -1.06481E+04  3.06389E+03 -7.65725E+03
  6.52699E+03 -3.58940E+03  4.74104E+03  1.70446E+03  7.64758E+02  2.77367E+03 -2.88955E+03  8.18095E+01
 -3.00571E+03 -4.50109E+03 -7.92477E+02 -6.20146E+03  3.19458E+03 -6.74200E+03  8.52720E+03 -3.02230E+03
  1.04804E+04  4.92690E+02  7.68497E+03  5.16859E+03  1.53179E+03  7.17270E+03 -4.70732E+03  7.35870E+03
 -6.14433E+03  2.73620E+03 -3.09691E+03 -7.85269E+02  1.08221E+03 -1.58027E+03  4.52199E+03 -9.25807E+02
  3.51625E+03  2.71188E+03  9.90496E+02  5.59463E+03 -4.06977E+03  5.90839E+03 -6.90231E+03  1.68703E+03
 -4.43108E+03 -3.11483E+03  3.93706E+02 -5.81498E+03  2.88804E+03 -3.08333E+03  3.06420E+03  7.71462E+02
  3.91889E+02  2.51252E+03 -3.54607E+03  3.90812E+03 -3.88546E+03  2.03490E+03 -3.52852E+03 -8.85416E+02
 -2.39275E+03 -4.75775E+03  8.23138E+02 -6.01037E+03  4.99720E+03 -3.95499E+03  5.17182E+03  8.64893E+02
  4.21727E+03  4.35923E+03  3.20573E+02  6.32316E+03 -4.48957E+03  3.73381E+03 -4.53357E+03 -6.13484E+02
 -5.22792E+03 -4.80758E+03 -1.37175E+03 -4.37989E+03  2.18262E+03 -4.20768E+03  2.36126E+03 -2.69693E+03
  2.52894E+03  3.40973E+01  1.77856E+02  1.03450E+03  5.32065E+02 -3.42648E+01 -1.28247E+02 -1.24827E+03
  3.09496E+03  5.22080E+01  4.00100E+03  4.13973E+02  4.57018E+03  2.50859E+03  5.00839E+03  6.15380E+03
 -9.21730E+02  7.00852E+03 -6.60109E+03  5.44629E+03 -8.51150E+03  7.69560E+02 -6.41728E+03 -1.86204E+03
 -3.29892E+03 -5.38098E+03 -4.08260E+02 -4.25123E+03  1.97299E+03 -1.48042E+03  1.33555E+03 -1.87317E+03
  1.11877E+03 -1.54764E+03  2.05657E+03 -2.33432E+03  3.10956E+03 -1.14706E+03  3.44205E+03  5.18614E+02
  3.86676E+03  1.25426E+03  6.72176E+02  2.88877E+03 -1.33697E+03  2.13087E+03 -3.67196E+03  2.12198E+03
 -4.04155E+03 -8.77433E+02 -1.08086E+03 -2.78331E+03  7.37716E+02 -4.02140E+03  2.59599E+03 -4.45415E+03
  4.27053E+03 -2.81412E+03  5.58958E+03  2.43087E+01  4.28064E+03  3.21302E+03  6.90495E+02  5.20803E+03
 -1.69469E+03  5.07213E+03 -2.82406E+03  1.25614E+03 -1.05743E+03 -8.76481E+02 -6.47399E+01 -5.53053E+02
 -4.86734E+02  5.75580E+02 -8.38385E+02  1.91700E+03 -2.18515E+03  1.06553E+03 -3.42832E+03 -1.54210E+02
 -1.17227E+03 -3.75185E+03  8.69136E+02 -3.72127E+03  2.26321E+03 -3.51838E+03  2.66003E+03 -7.74167E+02
  3.11437E+03  2.14028E+03  1.26876E+03  2.47651E+03 -6.77217E+02  3.61893E+03 -2.15234E+03  2.20932E+03
 -3.01467E+03  6.97425E+02 -2.76330E+03 -2.00416E+03 -3.25576E+02 -2.61687E+03  1.41049E+03 -1.95543E+03
  2.08594E+03 -1.25770E+03  1.44617E+03  2.22598E+02  3.90092E+02  1.32937E+03  7.03964E+02  5.94239E+02
  1.51812E+03  3.09448E+02  1.11353E+03  7.77946E+02  1.01372E+03  2.04167E+03  1.29275E+03  1.15954E+03
 -1.08087E+03  2.41663E+03 -1.70667E+03  3.41908E+03 -1.94808E+03  1.00908E+03 -3.07698E+03  2.46676E+02
 -1.27323E+03 -2.84224E+03  2.45831E+02 -3.74763E+03  1.18993E+03 -1.77434E+03  2.21208E+03 -6.27921E+02
  1.87967E+03  1.70789E+03  1.19443E+02  1.57428E+03 -4.99009E+02  9.15946E+02 -7.06255E+02  3.03999E+01
 -4.22343E+02 -9.68181E+02  1.15348E+03 -1.18615E+03  9.68388E+02 -7.11219E+02  9.97099E+02  8.22997E+01
  4.61621E+02  1.23564E+02  7.15338E+02 -4.94531E+02 -3.29273E+02  5.65382E+02  1.61483E+03 -2.09723E+02
 -1.09562E+02  1.43094E+02  1.18881E+03  7.00603E+02 -2.20591E+02  2.21014E+03 -3.47320E+02  2.26108E+03
 -1.41210E+03  7.44817E+02 -1.48563E+03  2.24917E+02 -1.63191E+03 -6.00159E+02 -7.41236E+00 -5.24974E+02
  4.20472E+02 -8.52375E+02  6.90950E+02 -7.07451E+02  5.55180E+02  1.05493E+03 -4.82003E+02  9.10656E+02
 -1.12312E+03  8.97864E+02 -9.58494E+02 -1.02874E+03 -3.91739E+02 -1.73806E+03  2.12693E+02 -1.18983E+03
  9.59924E+01 -2.29301E+02  4.20986E+02  2.84237E+02  1.09578E+03 -2.49006E+02  3.31028E+02  1.03049E+03
 -1.28782E+02 -3.08204E+01 -7.48004E+02  3.93653E+01  6.02328E+02 -6.64191E+02  1.41284E+03 -5.29837E+02
  6.78299E+02  1.84052E+02  2.26660E+03  3.27382E+02  9.73461E+02  1.23999E+03 -1.41212E+01  1.53046E+03
 -8.93921E+02  1.94872E+02 -1.28087E+03  2.05576E+02 -4.96360E+02 -1.08566E+03  1.38430E+02 -3.06726E+02
  1.20266E+03 -5.00212E+02  4.46645E+02  8.42184E+02  2.20254E+02  1.03148E+03  3.34320E+02  8.65921E+02
 -1.94191E+02  1.13962E+03 -2.84195E+02  1.02322E+02 -5.13170E+01  3.75095E+02 -6.51705E+02  4.56817E+02
 -5.92136E+02  9.69500E+02 -1.38104E+03  6.24772E+01 -1.47815E+03  1.72754E+02 -1.99798E+03 -6.93249E+02
 -4.37381E+02 -1.68410E+03  5.09991E+02 -2.00806E+03  5.15392E+02 -2.12688E+03  2.50204E+03 -8.94305E+02
  1.77766E+03 -4.51569E+02  7.28850E+02  1.19435E+03 -5.74887E+02  7.31066E+02 -4.70657E+02  8.81514E+02
 -5.69907E+02  1.90580E+02 -2.31476E+02 -2.55810E+02 -2.67645E+02  6.01174E+02 -5.61771E+02  1.92449E+02
 -8.98714E+02 -1.13799E+02 -7.11458E+02  1.55648E+02  2.81632E+02 -2.12563E+02 -2.59769E+02 -8.01836E+02
  1.21756E+03 -6.46103E+02  1.97721E+01  3.69440E+02  9.71927E+02  7.40021E+02 -5.41431E+02  9.54150E+02
 -6.71348E+02  1.53119E+03 -1.16691E+03  9.58585E+02 -1.22302E+03 -3.30409E+02 -8.75743E+02 -7.87831E+02
 -8.53322E+02 -7.79693E+02  2.22368E+02 -8.43074E+02  3.36276E+02 -4.88746E+02  3.81522E+02  1.23923E+02
  3.91207E+02  1.89522E+02  2.97353E+02  2.14875E+02 -3.07362E+02 -7.51038E+01  1.22388E+02 -2.40497E+02
  6.00821E+02  1.86882E+02  8.98635E+01  4.61234E+02 -1.06848E+02  6.43848E+01  4.77950E+02  2.78296E+02
 -4.45962E+02  1.63895E+02 -2.18426E+02  1.85648E+02 -3.45078E+02 -1.42854E+02 -2.31575E+01 -8.29408E+02
  1.86002E+02 -1.84112E+02  1.33235E+02  2.08330E+02  8.33407E+02 -7.15633E+02  4.24825E+02  4.59006E+02
  5.14412E+02  1.93796E+02 -2.76871E+01  5.17677E+02 -4.38871E+02  6.74605E+02 -1.16460E+02 -4.54602E+01
 -9.97081E+01 -1.85288E+02 -5.15228E+02  1.91400E+02 -5.48460E+02  3.35945E+01 -6.74023E+02 -3.12917E+02
 -9.12220E+02  6.24219E+02 -4.46499E+02 -5.37653E+02  5.63128E+02 -1.28240E+03  6.74350E+02  8.05969E+01
  5.22365E+02  1.11841E+02 -4.97338E+02 -1.59361E+02 -1.83356E+02  3.89032E+02 -6.42599E+01  5.92424E+02
