 $NMID ID='MM_0lb_SNR800_19hz_g60_72.RAW', FMTDAT='(8E13.5)'
 TRAMP=1., VOLUME=1. $END
  3.09738E+05  2.28144E+02  3.37670E+05  2.50583E+05  8.45418E+04  3.37536E+05 -1.32612E+05  2.50647E+05
 -1.90065E+05  8.28122E+04 -1.11295E+05 -3.27877E+04  9.45629E+02 -5.06094E+04  5.38508E+04  3.66785E+01
  3.55147E+04  5.28207E+04 -1.65826E+04  7.51706E+04 -6.06818E+04  6.33137E+04 -8.36157E+04  3.18215E+04
 -8.05276E+04 -1.12832E+04 -5.67345E+04 -5.09563E+04 -1.49328E+04 -6.92176E+04  2.70927E+04 -4.53019E+04
  3.97377E+04  3.58179E+03  1.56352E+04  4.72093E+04 -3.42885E+04  4.66516E+04 -6.61849E+04 -2.11309E+02
 -5.25957E+04 -5.64594E+04 -6.59506E+03 -7.61801E+04  3.34168E+04 -5.40944E+04  4.70019E+04 -1.68331E+04
  4.23681E+04  1.11023E+04  3.15410E+04  2.50154E+04  1.60924E+04  2.88672E+04 -4.99780E+03  2.69958E+04
 -2.19917E+04  1.23076E+04 -1.89944E+04 -4.65088E+03  4.91058E+03 -7.38221E+03  2.16519E+04  1.14267E+04
  7.61783E+03  3.41616E+04 -3.13874E+04  3.47982E+04 -6.22833E+04  2.31139E+03 -5.63215E+04 -4.19709E+04
 -1.24070E+04 -6.20405E+04  3.87440E+04 -4.43755E+04  5.66006E+04 -2.19367E+03  3.28161E+04  3.14570E+04
 -6.20408E+03  3.45128E+04 -2.93231E+04  1.48212E+04 -2.87673E+04 -4.77046E+03 -1.54439E+04 -1.05007E+04
 -7.72901E+03 -1.22743E+04 -9.18467E+02 -1.73328E+04  6.93860E+03 -2.28946E+04  1.52714E+04 -1.32585E+04
  1.17597E+04  5.00992E+03 -7.05798E+03  1.29608E+04 -2.03050E+04 -3.42233E+03 -8.03623E+03 -3.17713E+04
  2.15460E+04 -4.19058E+04  4.61073E+04 -1.89482E+04  4.31827E+04  1.85086E+04  1.48236E+04  4.24268E+04
 -1.54225E+04  3.21443E+04 -2.45726E+04  1.61836E+03 -8.86143E+03 -2.69113E+04  2.06505E+04 -3.22690E+04
  3.91700E+04 -8.05346E+03  3.33164E+04  2.32277E+04  1.66834E+04  4.40619E+04 -7.88738E+03  4.71556E+04
 -2.97610E+04  3.14451E+04 -3.91393E+04  8.64905E+03 -4.02104E+04 -1.56511E+04 -2.20617E+04 -3.59332E+04
  7.02899E+03 -3.56607E+04  2.99657E+04 -1.34146E+04  2.79060E+04  1.07750E+04  3.47606E+03  1.84993E+04
 -1.30119E+04  7.55140E+03 -9.85434E+03 -7.75972E+03  6.01407E+03 -1.02865E+04  1.74561E+04  6.20043E+03
  1.26781E+04  2.17258E+04 -6.59197E+03  2.38142E+04 -2.18578E+04  9.92215E+03 -2.61093E+04 -5.86170E+03
 -1.82200E+04 -1.69126E+04 -6.59126E+03 -1.79670E+04  3.83715E+03 -1.63371E+04  1.36170E+04 -1.54770E+04
  2.28091E+04 -1.18373E+04  2.96429E+04  1.68841E+03  2.18318E+04  1.77105E+04  4.10565E+03  3.38138E+04
 -1.66178E+04  2.85601E+04 -2.66120E+04  1.00132E+04 -2.00526E+04 -1.02488E+04 -4.21706E+03 -1.37162E+04
  2.42078E+03 -3.63090E+03 -3.31739E+03  5.83006E+03 -1.41238E+04  5.37592E+03 -1.40569E+04 -5.52242E+03
 -8.58203E+03 -1.66713E+04  4.44137E+03 -2.03889E+04  1.34537E+04 -1.47416E+04  1.57082E+04 -1.36263E+03
  9.68455E+03  1.14772E+04 -8.08350E+02  1.65456E+04 -1.09666E+04  9.44752E+03 -1.65334E+04 -3.56101E+03
 -1.21808E+04 -1.52660E+04 -1.59086E+03 -1.99866E+04  9.02382E+03 -1.62082E+04  1.66121E+04 -7.81384E+03
  1.54341E+04  4.79905E+02  1.10324E+04  4.29816E+03  5.56283E+03  6.36893E+02  8.34313E+03 -1.41357E+03
  1.45313E+04  2.62592E+03  1.58840E+04  1.32315E+04  9.93030E+03  2.63963E+04 -3.29805E+03  2.85479E+04
 -1.67261E+04  2.21124E+04 -2.64479E+04  1.08651E+04 -2.71551E+04 -2.06714E+03 -2.28170E+04 -1.55390E+04
 -1.02178E+04 -2.18116E+04  7.64024E+03 -2.04446E+04  1.76667E+04 -1.10217E+04  1.62828E+04  4.18059E+03
  6.89211E+03  1.20965E+04 -7.50293E+03  1.06662E+04 -1.36798E+04  2.53088E+03 -1.09532E+04 -8.27096E+03
  9.00112E+00 -1.29450E+04  6.52625E+03 -9.66415E+03  8.37913E+03 -1.22517E+03  1.53198E+03  5.33699E+03
 -6.05277E+03  1.48850E+03 -4.31848E+03 -4.93801E+03  6.04011E+02 -1.06358E+04  8.51080E+03 -1.07898E+04
  1.31173E+04 -4.97362E+03  1.30534E+04  2.85694E+03  1.14238E+04  1.02393E+04  5.43852E+03  1.52553E+04
 -2.07485E+03  1.70530E+04 -1.03275E+04  1.06735E+04 -1.17547E+04  2.83817E+03 -8.63362E+03 -2.18796E+03
 -4.73306E+03 -3.45377E+03 -1.15382E+03  1.25460E+03 -1.87117E+03  2.19022E+03 -3.97703E+03  3.65360E+03
 -8.61458E+03 -5.41133E+02 -9.10524E+03 -7.39745E+03 -3.75160E+03 -1.20245E+04  3.57560E+03 -8.68118E+03
  7.70691E+03 -4.04570E+03  5.41574E+03  2.13098E+03  5.66998E+02  3.36929E+03 -3.68268E+03 -1.53096E+02
 -3.56843E+03 -5.51333E+03 -8.39999E+02 -7.56572E+03  4.01329E+03 -8.33604E+03  1.04628E+04 -4.10729E+03
  1.26080E+04  8.11813E+02  8.96804E+03  6.44110E+03  1.98269E+03  9.29542E+03 -5.24664E+03  8.45945E+03
 -7.27661E+03  2.90983E+03 -3.76118E+03 -1.14575E+03  1.31008E+03 -2.08683E+03  5.08501E+03 -9.73466E+02
  4.34193E+03  3.54530E+03  1.04675E+03  6.42246E+03 -5.00605E+03  6.38992E+03 -8.23946E+03  1.86181E+03
 -4.93727E+03 -3.68335E+03  3.77489E+02 -6.92003E+03  3.85368E+03 -3.56101E+03  3.81419E+03  1.09854E+03
  5.04948E+02  3.33653E+03 -4.17207E+03  4.84118E+03 -5.15806E+03  2.70897E+03 -4.83397E+03 -1.31917E+03
 -3.06636E+03 -6.20254E+03  9.82744E+02 -7.27855E+03  6.27407E+03 -4.56461E+03  6.78385E+03  8.53752E+02
  4.73405E+03  5.54498E+03  5.37655E+01  7.61399E+03 -5.30612E+03  4.19951E+03 -5.35033E+03 -3.23044E+02
 -5.94126E+03 -5.37527E+03 -1.17736E+03 -5.26451E+03  2.79386E+03 -4.55087E+03  2.93214E+03 -2.68965E+03
  2.75783E+03  4.55696E+02 -9.30305E+01  1.31529E+03  3.79942E+02 -1.21847E+02  3.76334E+02 -1.64160E+03
  3.69957E+03 -8.66140E+02  5.16918E+03  5.09936E+02  5.49827E+03  3.14798E+03  5.42734E+03  7.38740E+03
 -1.50409E+03  8.89424E+03 -7.68975E+03  6.90312E+03 -1.01774E+04  1.19533E+03 -7.76909E+03 -2.46709E+03
 -4.25108E+03 -6.65589E+03 -1.73904E+02 -5.51079E+03  2.19229E+03 -2.27722E+03  1.57866E+03 -2.10613E+03
  1.35212E+03 -1.21625E+03  2.18177E+03 -2.38168E+03  3.46681E+03 -1.45645E+03  3.72143E+03  1.92203E+02
  4.68216E+03  1.40455E+03  1.15041E+03  3.45106E+03 -1.62184E+03  3.33229E+03 -4.52697E+03  2.42541E+03
 -4.91390E+03 -1.00844E+03 -1.46853E+03 -3.52227E+03  2.50196E+02 -4.68376E+03  2.85146E+03 -5.22785E+03
  5.27146E+03 -3.24401E+03  6.71005E+03  1.63352E+02  5.07072E+03  4.04249E+03  1.23240E+03  6.03391E+03
 -2.01879E+03  5.92996E+03 -3.38447E+03  1.69999E+03 -1.62401E+03 -1.23018E+03 -6.62371E+02 -9.19894E+02
 -6.64858E+02  4.53790E+02 -1.05538E+03  1.91714E+03 -2.29421E+03  1.01161E+03 -4.15311E+03 -2.25536E+02
 -1.86033E+03 -3.84481E+03  5.82883E+02 -4.32416E+03  2.45323E+03 -4.26641E+03  3.36354E+03 -1.18461E+03
  3.83471E+03  2.17559E+03  1.67522E+03  3.22482E+03 -7.77989E+02  4.49658E+03 -2.39779E+03  2.55228E+03
 -3.72200E+03  8.22226E+02 -3.23284E+03 -2.35228E+03 -8.14734E-01 -3.04551E+03  1.46339E+03 -2.37464E+03
  2.71558E+03 -1.32607E+03  1.71069E+03  3.79724E+02  5.50454E+02  1.48668E+03  8.88020E+02  4.27990E+02
  1.84168E+03  7.35500E+02  1.14704E+03  1.05225E+03  1.20055E+03  1.99627E+03  1.41349E+03  1.51435E+03
 -1.31255E+03  2.80074E+03 -2.13837E+03  4.10036E+03 -3.01298E+03  1.39646E+03 -3.95519E+03 -2.08831E+02
 -1.79460E+03 -3.35898E+03  7.09303E+02 -4.51657E+03  1.73732E+03 -2.44204E+03  3.04463E+03 -9.77328E+02
  2.31041E+03  1.31139E+03  4.19505E+02  1.99761E+03 -5.40010E+02  1.22389E+03 -9.65406E+02 -6.96792E+01
 -5.82495E+02 -1.47142E+03  1.54903E+03 -1.25471E+03  1.25787E+03 -1.46243E+03  9.99605E+02  5.24603E+02
  6.99515E+02  2.68988E+01  7.04867E+02 -1.93174E+02 -5.20771E+02  5.58355E+02  1.49714E+03  2.32339E+02
  1.61377E+02 -1.01303E+02  1.62842E+03  5.15093E+02  1.21242E+02  2.41386E+03 -1.79623E+02  2.58332E+03
 -1.66176E+03  9.53413E+02 -1.96108E+03  4.31659E+02 -2.36025E+03 -8.97314E+02  1.15235E+01 -1.06727E+03
  2.46922E+02 -9.92011E+02  9.72715E+02 -6.98115E+02  6.71366E+02  1.06401E+03 -8.94257E+02  9.06385E+02
 -1.27512E+03  4.50645E+02 -1.15807E+03 -1.30346E+03 -3.91963E+02 -1.85026E+03  1.76647E+02 -9.42222E+02
  3.96141E+02 -3.77798E+02  5.35335E+02  7.22792E+01  1.52343E+03 -7.85965E+00  8.05736E+01  1.06067E+03
 -4.39454E+02  1.60428E+02 -7.26697E+02  4.50350E+01  6.26053E+02 -6.35404E+02  1.27240E+03 -7.68524E+02
  9.65524E+02  2.03775E+02  2.51896E+03  6.19281E+02  1.26472E+03  1.35811E+03 -2.69691E+02  1.78402E+03
 -1.23280E+03  2.31617E+02 -1.31227E+03 -2.62842E+02 -4.96066E+02 -1.40233E+03  8.22721E+01 -4.35943E+02
  1.22234E+03 -8.14784E+02  6.72909E+02  7.47407E+02  1.41909E+01  1.22477E+03  4.41970E+02  1.03355E+03
 -3.28595E+02  1.01548E+03 -3.25778E+02  2.60969E+02  1.85221E+02  2.33167E+02 -6.29303E+02  7.25969E+02
 -6.80025E+02  7.76434E+02 -1.54046E+03  2.20164E+02 -1.57678E+03  1.57017E+02 -2.07572E+03 -5.20795E+02
 -1.11278E+03 -1.97175E+03  4.97461E+02 -2.51466E+03  6.45635E+02 -2.10323E+03  2.32564E+03 -7.64915E+02
  2.26268E+03 -2.60989E+02  8.43442E+02  1.19977E+03 -6.03202E+02  1.10172E+03 -6.25441E+02  1.47993E+03
 -8.05732E+02  3.21036E+02 -3.90182E+02 -3.67898E+01 -3.77348E+02  3.29533E+02 -6.71010E+02 -1.96492E+02
 -1.00745E+03 -3.47577E+02 -7.32951E+02 -3.75237E+01  3.44932E+02 -6.30723E+02 -7.90699E+02 -8.15807E+02
  1.20939E+03 -3.89191E+02  7.62623E+01  1.17398E+02  9.99659E+02  8.84741E+02 -5.11219E+02  1.16350E+03
 -7.66000E+02  2.14476E+03 -1.19228E+03  1.10241E+03 -1.32174E+03 -1.64572E+02 -1.06774E+03 -1.19482E+03
 -7.00215E+02 -8.52905E+02  1.74198E+02 -9.12870E+02  6.20060E+02 -2.44663E+02  6.76298E+02  4.62131E+02
  4.88629E+02  5.66289E+02  2.50537E+02  3.04293E+02 -2.95029E+02  2.57946E+02 -2.96417E+00  4.03103E+01
  3.02962E+02  2.04192E+02  2.21146E+02  6.39088E+02  1.36826E+02  4.26666E+02  3.88411E+02  2.99586E+01
 -5.05936E+02  3.14916E+02  1.76364E+02  2.99372E+02 -6.07132E+02 -4.27490E+02  2.20582E+02 -8.39280E+02
  2.70500E+02 -4.93423E+02 -3.65974E+01  4.21591E+01  5.65465E+02 -5.73160E+02  4.70325E+02  6.31091E+02
  2.67468E+02  1.04954E+02  6.82936E+01  7.85766E+02 -2.81465E+02  8.75318E+02 -1.33361E+02  1.70032E+01
  1.58691E+01  1.61538E+02 -4.88475E+02 -1.54512E+01 -8.24451E+02  1.73306E+02 -7.61116E+02 -1.21317E+02
 -1.09596E+03  3.41506E+02 -5.09551E+02 -7.98595E+02  4.64970E+02 -1.17997E+03  4.77424E+02 -1.42061E+02
  5.53976E+02  3.89305E+02 -5.78295E+02  2.46992E+02 -1.30332E+01  3.76092E+02 -3.34378E+02  9.10285E+02
