 $NMID ID='MM_0lb_SNR800_11hz_g55_20.RAW', FMTDAT='(8E13.5)'
 TRAMP=1., VOLUME=1. $END
  3.09786E+05  3.45743E+02  3.37946E+05  2.50851E+05  8.43946E+04  3.38385E+05 -1.32801E+05  2.51723E+05
 -1.90756E+05  8.38685E+04 -1.12240E+05 -3.26290E+04  5.54505E+02 -5.03306E+04  5.35534E+04 -3.59257E+02
  3.53000E+04  5.29860E+04 -1.68175E+04  7.62262E+04 -6.11618E+04  6.40484E+04 -8.51364E+04  3.21352E+04
 -8.22240E+04 -1.14271E+04 -5.77909E+04 -5.18964E+04 -1.51639E+04 -7.06901E+04  2.80341E+04 -4.67070E+04
  4.09891E+04  3.46095E+03  1.66132E+04  4.84864E+04 -3.44448E+04  4.80158E+04 -6.77693E+04 -1.36830E+01
 -5.43405E+04 -5.78014E+04 -7.23320E+03 -7.83265E+04  3.50078E+04 -5.64557E+04  4.88276E+04 -1.83798E+04
  4.45600E+04  1.11377E+04  3.29553E+04  2.63833E+04  1.57839E+04  3.05000E+04 -5.47259E+03  2.78447E+04
 -2.23825E+04  1.24222E+04 -1.82915E+04 -5.55534E+03  6.76451E+03 -7.15705E+03  2.31371E+04  1.33109E+04
  6.96549E+03  3.71023E+04 -3.27192E+04  3.65429E+04 -6.51333E+04  2.20130E+03 -5.87375E+04 -4.40861E+04
 -1.22041E+04 -6.50906E+04  4.09166E+04 -4.70335E+04  6.04771E+04 -2.36506E+03  3.63317E+04  3.39685E+04
 -5.71139E+03  3.84857E+04 -3.11333E+04  1.78713E+04 -3.24211E+04 -3.69440E+03 -1.86875E+04 -1.18711E+04
 -9.04369E+03 -1.43499E+04 -1.04035E+02 -1.92257E+04  7.94610E+03 -2.33533E+04  1.58410E+04 -1.29716E+04
  1.06745E+04  6.26998E+03 -9.41204E+03  1.28333E+04 -2.28498E+04 -5.90799E+03 -8.85745E+03 -3.64598E+04
  2.47523E+04 -4.58168E+04  5.09446E+04 -2.04621E+04  4.79477E+04  2.05410E+04  1.67220E+04  4.63152E+04
 -1.64060E+04  3.57169E+04 -2.69191E+04  2.42492E+03 -1.11228E+04 -2.89263E+04  2.12479E+04 -3.64099E+04
  4.35268E+04 -1.06276E+04  3.91656E+04  2.46470E+04  2.06661E+04  4.98999E+04 -8.25454E+03  5.47567E+04
 -3.43374E+04  3.71406E+04 -4.57928E+04  1.03766E+04 -4.68171E+04 -1.77777E+04 -2.54920E+04 -4.12263E+04
  7.74690E+03 -4.10722E+04  3.36114E+04 -1.63475E+04  3.09196E+04  1.12711E+04  4.76024E+03  2.00138E+04
 -1.39270E+04  9.58140E+03 -1.10387E+04 -7.37156E+03  5.87281E+03 -1.10095E+04  1.82146E+04  5.72353E+03
  1.41286E+04  2.27705E+04 -5.91360E+03  2.64719E+04 -2.36097E+04  1.35536E+04 -3.06057E+04 -3.31695E+03
 -2.38160E+04 -1.82250E+04 -1.07076E+04 -2.37285E+04  4.04618E+03 -2.37285E+04  1.87429E+04 -2.13971E+04
  3.05312E+04 -1.38377E+04  3.61899E+04  4.37526E+03  2.62603E+04  2.29184E+04  4.63443E+03  3.97137E+04
 -1.87109E+04  3.26555E+04 -2.97940E+04  1.13811E+04 -2.21871E+04 -1.02101E+04 -4.99702E+03 -1.31355E+04
  1.09521E+03 -1.73095E+03 -6.70969E+03  8.21371E+03 -1.91328E+04  4.72229E+03 -1.87584E+04 -8.80592E+03
 -1.18123E+04 -2.20853E+04  5.54495E+03 -2.60894E+04  1.78640E+04 -1.87219E+04  2.16146E+04 -1.67311E+03
  1.35963E+04  1.54671E+04 -1.31017E+03  2.21714E+04 -1.55359E+04  1.26914E+04 -2.22184E+04 -4.84532E+03
 -1.58074E+04 -1.98376E+04 -2.06993E+03 -2.64297E+04  1.16271E+04 -2.19429E+04  2.19314E+04 -1.10466E+04
  2.04486E+04 -1.25195E+02  1.53156E+04  4.99795E+03  8.29191E+03  1.24811E+03  1.14496E+04 -1.93537E+03
  2.05951E+04  2.70809E+03  2.38552E+04  1.74260E+04  1.63400E+04  3.53823E+04 -2.69764E+03  4.10057E+04
 -2.39246E+04  3.35280E+04 -3.88926E+04  1.75807E+04 -4.15898E+04 -3.27759E+03 -3.33577E+04 -2.39202E+04
 -1.35102E+04 -3.43076E+04  1.18607E+04 -3.07180E+04  2.60420E+04 -1.41736E+04  2.27209E+04  6.81072E+03
  8.02723E+03  1.75871E+04 -1.04308E+04  1.47180E+04 -1.87979E+04  2.62147E+03 -1.43591E+04 -1.23308E+04
 -1.98413E+01 -1.84570E+04  9.49171E+03 -1.36704E+04  1.19159E+04 -1.44247E+03  3.43842E+03  7.54819E+03
 -7.85966E+03  3.31893E+03 -8.16672E+03 -6.58919E+03 -1.47954E+03 -1.67828E+04  1.12161E+04 -1.82089E+04
  2.08961E+04 -9.99759E+03  2.36474E+04  3.22082E+03  2.02302E+04  1.70650E+04  9.14831E+03  2.63896E+04
 -4.74202E+03  2.85735E+04 -1.82406E+04  1.75236E+04 -2.03814E+04  3.55475E+03 -1.37711E+04 -4.94833E+03
 -5.92557E+03 -6.54600E+03 -5.39525E+02  7.76354E+02 -2.92310E+03  3.48956E+03 -6.55087E+03  4.91186E+03
 -1.32544E+04 -7.65572E+02 -1.38559E+04 -1.10026E+04 -5.70707E+03 -1.75958E+04  5.78695E+03 -1.43942E+04
  1.19102E+04 -6.07340E+03  8.14343E+03  3.73018E+03  5.02218E+01  5.32084E+03 -6.92279E+03 -5.31757E+02
 -6.29378E+03 -9.21429E+03 -1.04486E+03 -1.38964E+04  8.00912E+03 -1.45823E+04  1.83104E+04 -7.88852E+03
  2.07328E+04  2.13567E+03  1.56968E+04  1.26480E+04  2.89030E+03  1.70027E+04 -8.79138E+03  1.41942E+04
 -1.16062E+04  3.85970E+03 -5.94357E+03 -2.97480E+03  2.30063E+03 -3.92937E+03  7.71960E+03 -7.18184E+02
  6.55079E+03  6.41667E+03  1.55077E+03  1.15097E+04 -8.13628E+03  1.08177E+04 -1.40720E+04  2.33210E+03
 -9.57413E+03 -7.30050E+03  2.22156E+02 -1.20313E+04  7.55724E+03 -5.75975E+03  8.31479E+03  2.55469E+03
  2.06745E+03  8.40123E+03 -7.23964E+03  1.03117E+04 -1.15972E+04  4.71960E+03 -1.18462E+04 -4.50052E+03
 -7.32946E+03 -1.35462E+04  3.47215E+03 -1.55194E+04  1.35469E+04 -9.75970E+03  1.46705E+04  2.69240E+03
  9.09504E+03  1.14954E+04 -1.19846E+03  1.42107E+04 -1.03262E+04  7.77432E+03 -1.14941E+04 -1.23313E+03
 -9.62031E+03 -9.24774E+03 -1.67048E+03 -1.01963E+04  5.64557E+03 -8.19486E+03  6.96544E+03 -3.43547E+03
  4.30486E+03  1.74559E+03 -8.56327E+02  1.85903E+03 -5.45732E+02 -2.68653E+03  2.17160E+03 -6.36136E+03
  9.85151E+03 -4.13785E+03  1.34767E+04  1.56563E+03  1.34823E+04  9.09112E+03  9.03273E+03  1.81629E+04
 -4.02315E+03  2.05221E+04 -1.68234E+04  1.53493E+04 -2.22961E+04  3.24844E+03 -1.80818E+04 -7.75386E+03
 -8.90676E+03 -1.43344E+04 -3.47283E+02 -1.28090E+04  4.52220E+03 -7.13722E+03  4.54944E+03 -4.90547E+03
  3.51812E+03 -2.67981E+03  3.32927E+03 -3.64585E+03  5.43902E+03 -3.08270E+03  7.22108E+03 -8.73378E+02
  9.47347E+03  2.29728E+03  5.09263E+03  8.14949E+03 -2.20537E+03  9.14067E+03 -9.50291E+03  7.42102E+03
 -1.20295E+04 -1.19061E+03 -7.36201E+03 -8.75867E+03 -1.27080E+03 -1.35080E+04  7.38342E+03 -1.29316E+04
  1.37853E+04 -7.61658E+03  1.66407E+04  1.98598E+03  1.15172E+04  1.14132E+04  1.91851E+03  1.48729E+04
 -6.41125E+03  1.19738E+04 -8.84958E+03  4.22979E+03 -5.98600E+03 -1.57441E+03 -2.24412E+03 -1.95041E+03
 -1.06336E+03  4.07541E+02 -2.25093E+03  2.62857E+03 -5.43251E+03  2.34445E+03 -8.37960E+03 -9.92323E+02
 -6.17737E+03 -8.57113E+03  6.60045E+02 -1.22208E+04  7.56031E+03 -1.14802E+04  1.20541E+04 -3.64833E+03
  1.18321E+04  6.03536E+03  5.79284E+03  1.03597E+04 -2.10493E+03  1.18759E+04 -8.61963E+03  7.42646E+03
 -1.11740E+04  5.67528E+02 -8.99100E+03 -6.91277E+03 -8.98105E+02 -9.80263E+03  4.94795E+03 -7.32574E+03
  7.82095E+03 -2.31791E+03  5.50453E+03  1.89610E+03  1.79919E+03  3.56502E+03  1.14823E+03  1.42799E+03
  2.47136E+03  1.00742E+03  2.95693E+03  1.44604E+03  3.68659E+03  4.51187E+03  3.32650E+03  6.51553E+03
 -2.44635E+03  9.23642E+03 -8.36484E+03  9.63420E+03 -1.22038E+04  2.85157E+03 -1.23939E+04 -4.91280E+03
 -6.26471E+03 -1.18733E+04  2.09035E+03 -1.31436E+04  7.00954E+03 -8.35983E+03  9.75912E+03 -2.50692E+03
  7.51307E+03  4.59888E+03  1.28001E+03  6.89347E+03 -3.53281E+03  4.39434E+03 -4.72527E+03 -5.52253E+02
 -2.25606E+03 -5.20328E+03  2.95483E+03 -5.75008E+03  4.99576E+03 -2.22068E+03  4.67609E+03  9.13860E+02
  2.87392E+03  2.58448E+03  1.18051E+03  1.76622E+03 -6.01168E+02  1.96114E+03  1.74936E+03 -4.62363E+02
  1.94202E+03 -7.13967E+02  4.83549E+03  1.50884E+03  2.56932E+03  6.11401E+03 -1.01118E+03  8.24109E+03
 -5.49439E+03  5.44620E+03 -7.52886E+03  1.38825E+03 -6.75707E+03 -2.60762E+03 -2.43548E+03 -4.69156E+03
  1.22848E+03 -5.05032E+03  3.12405E+03 -2.17255E+03  2.55883E+03  2.58924E+03 -9.13045E+02  3.71197E+03
 -4.66321E+03  2.40575E+03 -5.37783E+03 -2.91057E+03 -3.39477E+03 -6.62945E+03  9.92207E+02 -6.65789E+03
  3.10325E+03 -3.44839E+03  4.40625E+03 -5.17621E+02  4.33356E+03  1.05049E+03  9.24491E+02  3.32129E+03
 -2.39358E+03  1.04224E+03 -3.01478E+03 -1.61780E+03  1.22852E+03 -4.82678E+03  6.06278E+03 -4.11477E+03
  7.25127E+03  4.34453E+02  7.35741E+03  4.92970E+03  2.29847E+03  7.90406E+03 -2.69020E+03  7.12083E+03
 -6.18242E+03  2.86469E+03 -6.95775E+03 -9.15619E+02 -3.46104E+03 -4.65805E+03  9.41177E+02 -4.32104E+03
  5.08390E+03 -2.37818E+03  3.79106E+03  1.57130E+03  1.32345E+03  3.97192E+03 -4.83990E+02  3.79568E+03
 -1.95946E+03  2.50878E+03 -1.68790E+03  8.09753E+02 -7.52642E+02  5.02870E+02 -1.42109E+03  1.34906E+03
 -2.14893E+03  3.06096E+03 -5.03291E+03  2.35523E+03 -7.68429E+03 -2.04077E+02 -8.69766E+03 -4.77750E+03
 -4.20076E+03 -9.70031E+03  1.90862E+03 -1.13157E+04  7.03850E+03 -9.16292E+03  1.07904E+04 -3.50893E+03
  1.04853E+04  1.93437E+03  6.00040E+03  6.65922E+03  7.91395E+02  7.68802E+03 -3.14826E+03  5.48488E+03
 -4.33314E+03  2.14781E+03 -2.29482E+03 -1.05802E+03 -7.28609E+02 -5.48771E+02 -6.54365E+02 -1.23481E+02
 -1.61597E+03  2.51594E+02 -2.20500E+03 -2.85729E+02 -4.77349E+02 -1.96069E+03  3.56489E+02 -2.89212E+03
  3.75095E+03 -2.17826E+03  4.44554E+03 -4.33823E+02  5.22567E+03  4.05001E+03  8.90678E+02  7.63058E+03
 -3.40945E+03  8.61011E+03 -7.82908E+03  4.92198E+03 -8.98651E+03 -5.99590E+02 -6.82867E+03 -5.61802E+03
 -2.86737E+03 -7.42399E+03  1.77553E+03 -7.30354E+03  4.73263E+03 -3.60868E+03  4.61218E+03  3.53737E+02
  2.62270E+03  2.28918E+03 -5.52154E+02  2.12569E+03 -1.21929E+03 -2.54587E+02  3.97054E+02 -1.95656E+03
  2.41133E+03 -9.00527E+02  2.79484E+03  1.37631E+03  1.65276E+03  2.78006E+03  4.05010E+02  3.48602E+03
 -3.10365E+03  3.17274E+03 -4.89082E+03  6.88921E+02 -4.21042E+03 -3.52093E+03 -4.74269E+02 -6.52298E+03
  3.10861E+03 -4.94098E+03  5.27582E+03 -1.49186E+03  5.53430E+03  1.06187E+03  3.49334E+03  4.70428E+03
  9.86249E+02  4.72543E+03 -1.74315E+03  3.49609E+03 -3.08877E+03  2.57774E+03 -2.43792E+03  3.43516E+02
 -1.12973E+03 -2.40803E+02 -1.59218E+03  9.12255E+02 -2.69359E+03  5.89250E+02 -3.63119E+03 -5.44102E+02
 -4.07551E+03 -1.97661E+03 -1.06751E+03 -4.48937E+03  2.30767E+03 -5.31113E+03  4.20931E+03 -2.55768E+03
  4.76195E+03  4.66344E+02  2.01886E+03  3.66188E+03 -4.69333E+02  4.73787E+03 -3.59397E+03  3.29092E+03
