 $NMID ID='MM_0lb_SNR800_11hz_g50_93.RAW', FMTDAT='(8E13.5)'
 TRAMP=1., VOLUME=1. $END
  3.09731E+05  2.09782E+02  3.38070E+05  2.50429E+05  8.48915E+04  3.38070E+05 -1.32298E+05  2.51648E+05
 -1.90423E+05  8.39236E+04 -1.12224E+05 -3.23710E+04  6.51767E+02 -5.08067E+04  5.42143E+04 -4.95142E+02
  3.57298E+04  5.30951E+04 -1.66193E+04  7.59173E+04 -6.13379E+04  6.39462E+04 -8.48021E+04  3.22688E+04
 -8.18942E+04 -1.16215E+04 -5.78710E+04 -5.16980E+04 -1.49505E+04 -7.00169E+04  2.77767E+04 -4.62877E+04
  4.07937E+04  3.61199E+03  1.64188E+04  4.84380E+04 -3.44035E+04  4.82323E+04 -6.70956E+04  2.11555E+02
 -5.42516E+04 -5.74273E+04 -6.95344E+03 -7.86264E+04  3.40849E+04 -5.64907E+04  4.89605E+04 -1.79684E+04
  4.43977E+04  1.14565E+04  3.25372E+04  2.59447E+04  1.59435E+04  3.04260E+04 -5.85688E+03  2.71730E+04
 -2.24835E+04  1.21747E+04 -1.83710E+04 -5.38619E+03  6.52509E+03 -7.48330E+03  2.31540E+04  1.32969E+04
  7.14802E+03  3.65432E+04 -3.35300E+04  3.61132E+04 -6.49396E+04  2.29078E+03 -5.81422E+04 -4.39678E+04
 -1.27554E+04 -6.50772E+04  4.11196E+04 -4.67751E+04  5.97972E+04 -2.93423E+03  3.56644E+04  3.39693E+04
 -5.84106E+03  3.79943E+04 -3.13228E+04  1.77461E+04 -3.21556E+04 -4.21075E+03 -1.84732E+04 -1.14045E+04
 -9.07054E+03 -1.43771E+04 -6.90973E+02 -1.89731E+04  8.08308E+03 -2.33336E+04  1.56101E+04 -1.27565E+04
  1.09018E+04  6.02396E+03 -9.27606E+03  1.27481E+04 -2.23145E+04 -5.84644E+03 -8.44334E+03 -3.62995E+04
  2.41439E+04 -4.56235E+04  5.05664E+04 -2.05609E+04  4.71464E+04  2.01773E+04  1.66040E+04  4.57604E+04
 -1.65051E+04  3.49548E+04 -2.66604E+04  2.82638E+03 -1.07971E+04 -2.88176E+04  2.14473E+04 -3.53826E+04
  4.31829E+04 -1.02671E+04  3.86583E+04  2.43703E+04  2.01137E+04  4.91820E+04 -8.12419E+03  5.38238E+04
 -3.40990E+04  3.63445E+04 -4.52788E+04  1.03555E+04 -4.55253E+04 -1.75849E+04 -2.52977E+04 -4.07673E+04
  7.57353E+03 -4.04616E+04  3.30844E+04 -1.61667E+04  3.12551E+04  1.13140E+04  4.48990E+03  2.02054E+04
 -1.36348E+04  8.92273E+03 -1.10925E+04 -7.47997E+03  5.60263E+03 -1.11602E+04  1.86944E+04  5.74135E+03
  1.43222E+04  2.22939E+04 -5.55788E+03  2.60394E+04 -2.32499E+04  1.30723E+04 -3.03237E+04 -3.75481E+03
 -2.34379E+04 -1.80017E+04 -1.04625E+04 -2.27878E+04  4.35642E+03 -2.37215E+04  1.84475E+04 -2.11562E+04
  2.95384E+04 -1.36037E+04  3.58527E+04  4.19125E+03  2.58034E+04  2.26817E+04  4.18401E+03  3.93224E+04
 -1.90404E+04  3.21334E+04 -2.95605E+04  1.12832E+04 -2.19008E+04 -1.01654E+04 -4.43868E+03 -1.29862E+04
  9.78743E+02 -1.65292E+03 -6.53550E+03  7.67832E+03 -1.81996E+04  5.38995E+03 -1.85155E+04 -8.65312E+03
 -1.13786E+04 -2.15352E+04  5.91600E+03 -2.61536E+04  1.73282E+04 -1.85583E+04  2.08325E+04 -1.61573E+03
  1.33106E+04  1.52494E+04 -1.66140E+03  2.14995E+04 -1.50581E+04  1.23892E+04 -2.16806E+04 -4.48846E+03
 -1.60053E+04 -1.94601E+04 -2.20754E+03 -2.59294E+04  1.17416E+04 -2.16506E+04  2.16162E+04 -1.08872E+04
  2.01045E+04  1.29266E+02  1.45273E+04  4.99959E+03  8.10319E+03  1.26075E+03  1.13687E+04 -1.76276E+03
  2.00069E+04  2.82883E+03  2.27148E+04  1.67993E+04  1.52451E+04  3.47645E+04 -2.57231E+03  4.04739E+04
 -2.29323E+04  3.30506E+04 -3.74461E+04  1.68925E+04 -3.99766E+04 -3.07408E+03 -3.31996E+04 -2.33376E+04
 -1.32570E+04 -3.33462E+04  1.14245E+04 -2.94536E+04  2.48672E+04 -1.43863E+04  2.21770E+04  6.71879E+03
  7.53174E+03  1.64038E+04 -1.05439E+04  1.44657E+04 -1.86247E+04  2.72359E+03 -1.40206E+04 -1.15533E+04
 -2.61906E+02 -1.76059E+04  9.20408E+03 -1.32426E+04  1.23176E+04 -8.38898E+02  2.95503E+03  7.64344E+03
 -8.40420E+03  3.32020E+03 -7.82634E+03 -6.10798E+03 -1.33777E+03 -1.60253E+04  1.14259E+04 -1.74946E+04
  2.02427E+04 -9.40551E+03  2.27247E+04  3.28400E+03  1.99362E+04  1.61109E+04  9.24059E+03  2.54941E+04
 -4.30436E+03  2.73350E+04 -1.72018E+04  1.70421E+04 -1.97862E+04  3.49914E+03 -1.38112E+04 -4.87448E+03
 -6.04532E+03 -6.51308E+03 -5.20611E+02  6.49926E+02 -2.76201E+03  2.82038E+03 -6.47717E+03  4.99007E+03
 -1.24449E+04 -9.14343E+02 -1.31950E+04 -1.04586E+04 -5.40632E+03 -1.74048E+04  5.71597E+03 -1.38982E+04
  1.10916E+04 -5.89635E+03  8.09803E+03  3.83869E+03 -1.92155E+02  5.54923E+03 -6.63764E+03 -2.63582E+02
 -6.16246E+03 -9.08330E+03 -1.18767E+03 -1.33126E+04  7.73852E+03 -1.42353E+04  1.73115E+04 -7.55374E+03
  2.06959E+04  1.96851E+03  1.48750E+04  1.21224E+04  2.53019E+03  1.64031E+04 -8.20834E+03  1.35858E+04
 -1.13618E+04  3.79635E+03 -5.94504E+03 -3.03034E+03  2.41531E+03 -3.70807E+03  7.26637E+03 -1.02484E+03
  6.32802E+03  5.74680E+03  1.31268E+03  1.13732E+04 -7.60018E+03  1.05365E+04 -1.34269E+04  3.00242E+03
 -9.22245E+03 -6.94267E+03  1.38116E+02 -1.16888E+04  7.36677E+03 -5.62221E+03  7.76350E+03  2.79757E+03
  1.42035E+03  8.24777E+03 -7.42366E+03  9.86557E+03 -1.11040E+04  4.76850E+03 -1.13448E+04 -3.96484E+03
 -6.43822E+03 -1.33238E+04  2.96052E+03 -1.49383E+04  1.29098E+04 -9.17519E+03  1.39324E+04  2.41205E+03
  8.11689E+03  1.13501E+04 -8.82897E+02  1.35201E+04 -9.61338E+03  7.35333E+03 -1.08793E+04 -8.48171E+02
 -9.10915E+03 -9.11611E+03 -1.72103E+03 -9.96882E+03  5.31710E+03 -8.13305E+03  6.51416E+03 -3.51620E+03
  4.45384E+03  1.85746E+03 -9.36363E+02  2.00675E+03 -2.00962E+02 -2.42695E+03  2.03764E+03 -5.74912E+03
  9.46835E+03 -3.98826E+03  1.28605E+04  1.13393E+03  1.27982E+04  8.95865E+03  8.86976E+03  1.73579E+04
 -3.88787E+03  1.93811E+04 -1.65175E+04  1.41909E+04 -2.14473E+04  2.75642E+03 -1.75763E+04 -7.48523E+03
 -8.39658E+03 -1.42389E+04 -3.86133E+02 -1.21372E+04  4.33303E+03 -6.52192E+03  4.29023E+03 -4.67636E+03
  3.06139E+03 -2.42025E+03  3.37866E+03 -3.61256E+03  5.09573E+03 -3.08886E+03  6.73001E+03 -8.51346E+02
  8.84898E+03  1.95300E+03  4.68332E+03  7.86866E+03 -1.78977E+03  8.70149E+03 -9.28116E+03  7.07372E+03
 -1.19627E+04 -1.30322E+03 -7.14171E+03 -8.23191E+03 -7.41535E+02 -1.27339E+04  7.34631E+03 -1.26850E+04
  1.30337E+04 -6.97495E+03  1.56682E+04  1.99182E+03  1.13751E+04  1.08798E+04  1.68679E+03  1.41953E+04
 -6.04630E+03  1.18479E+04 -8.46349E+03  4.32433E+03 -6.26058E+03 -1.63416E+03 -1.94440E+03 -1.57549E+03
 -1.19646E+03 -1.58138E+02 -1.80802E+03  2.95361E+03 -5.09758E+03  2.08944E+03 -8.44718E+03 -1.25264E+03
 -5.69703E+03 -8.46844E+03  3.30151E+02 -1.17067E+04  7.16748E+03 -1.04143E+04  1.13936E+04 -3.25019E+03
  1.11341E+04  5.83649E+03  5.06348E+03  1.04325E+04 -2.25257E+03  1.20491E+04 -8.38576E+03  7.65580E+03
 -1.07020E+04  3.53222E+02 -8.46040E+03 -7.14313E+03 -1.11663E+03 -9.53750E+03  4.90060E+03 -7.17789E+03
  7.23317E+03 -2.16518E+03  5.31658E+03  2.02534E+03  1.91772E+03  3.66470E+03  1.14262E+03  1.47524E+03
  2.56119E+03  8.74908E+02  2.75328E+03  1.63068E+03  3.40162E+03  4.43296E+03  3.02697E+03  6.03531E+03
 -2.35910E+03  9.17825E+03 -7.86786E+03  9.74442E+03 -1.15778E+04  2.07735E+03 -1.23610E+04 -4.40181E+03
 -5.65936E+03 -1.16904E+04  1.87825E+03 -1.27763E+04  7.07694E+03 -8.22777E+03  9.56377E+03 -2.10789E+03
  7.29458E+03  4.47561E+03  1.77472E+03  6.78327E+03 -2.97129E+03  3.95544E+03 -4.77832E+03 -3.21673E+02
 -2.53823E+03 -4.64910E+03  2.83844E+03 -5.31470E+03  4.52292E+03 -2.77158E+03  4.31699E+03  1.18367E+03
  2.59845E+03  2.48928E+03  1.04337E+03  1.39204E+03 -8.23392E+02  1.61727E+03  2.07355E+03 -6.94179E+02
  1.61487E+03 -4.59276E+02  4.71089E+03  1.81048E+03  2.61474E+03  6.50212E+03 -1.11364E+03  8.24637E+03
 -5.57438E+03  4.74599E+03 -6.95742E+03  1.14832E+03 -6.59669E+03 -2.49430E+03 -2.05646E+03 -4.13806E+03
  5.68659E+02 -4.21396E+03  3.12249E+03 -2.04889E+03  2.53913E+03  2.21853E+03 -1.39998E+03  3.82342E+03
 -4.62916E+03  2.27823E+03 -5.27401E+03 -2.77757E+03 -2.76552E+03 -6.18283E+03  6.30727E+02 -6.42998E+03
  3.49920E+03 -3.27109E+03  4.56838E+03 -1.44711E+02  4.19486E+03  1.26150E+03  5.08912E+02  3.19843E+03
 -1.99429E+03  9.21404E+02 -2.85234E+03 -2.14720E+03  1.33213E+03 -4.54879E+03  5.43541E+03 -3.81423E+03
  7.09138E+03  6.85450E+02  7.36657E+03  4.66223E+03  2.12948E+03  7.47572E+03 -2.35498E+03  6.93574E+03
 -5.46387E+03  2.93556E+03 -6.40445E+03 -9.39404E+02 -3.16155E+03 -4.90571E+03  9.85318E+02 -4.07363E+03
  4.45808E+03 -2.04324E+03  3.59633E+03  2.00119E+03  1.12850E+03  3.96548E+03 -8.76783E+02  3.37248E+03
 -2.07751E+03  2.43350E+03 -1.90648E+03  6.99727E+02 -9.18056E+02  7.32727E+02 -1.42858E+03  1.21959E+03
 -2.47641E+03  2.81792E+03 -5.01633E+03  2.64391E+03 -7.10180E+03 -1.01636E+02 -8.32989E+03 -4.49247E+03
 -3.94883E+03 -9.54503E+03  1.98394E+03 -1.14817E+04  6.57697E+03 -8.71519E+03  1.05681E+04 -3.34161E+03
  9.18785E+03  1.75397E+03  5.64967E+03  6.54858E+03  2.61345E+02  7.43441E+03 -2.76048E+03  5.51565E+03
 -4.16519E+03  1.89561E+03 -2.32253E+03 -8.37714E+02 -1.13640E+03 -4.54706E+02 -5.14774E+02 -1.75065E+02
 -1.70848E+03  8.40306E+02 -1.42630E+03 -2.46294E+02 -4.53433E+02 -1.95119E+03  1.22837E+02 -2.61641E+03
  3.55396E+03 -2.66019E+03  3.90681E+03 -8.36334E+01  5.24662E+03  4.26201E+03  9.25879E+02  7.25460E+03
 -3.55044E+03  8.22162E+03 -7.61114E+03  4.72302E+03 -8.64898E+03 -7.93922E+02 -6.43068E+03 -5.48998E+03
 -2.56369E+03 -7.34415E+03  1.55896E+03 -6.68794E+03  4.63625E+03 -3.61466E+03  4.60002E+03  2.62094E+02
  3.05731E+03  2.14875E+03 -2.57506E+02  2.22772E+03 -1.33689E+03 -3.72535E+02  4.03425E+02 -1.51988E+03
  2.24010E+03 -1.04656E+03  2.89169E+03  1.11517E+03  1.97469E+03  2.48304E+03  2.43009E+02  3.32130E+03
 -3.22561E+03  3.39536E+03 -4.43972E+03  9.56165E+01 -4.31514E+03 -3.67026E+03 -5.27764E+02 -5.75469E+03
  3.03006E+03 -4.55449E+03  5.08377E+03 -1.50027E+03  5.50332E+03  9.44097E+02  3.07085E+03  4.18112E+03
  8.31555E+02  4.47537E+03 -1.79580E+03  3.46499E+03 -2.98331E+03  1.92528E+03 -2.49056E+03  4.86579E+02
 -1.58378E+03 -3.25582E+00 -1.32367E+03  7.09694E+02 -2.54013E+03  1.11496E+03 -3.49485E+03 -1.07747E+03
 -3.71701E+03 -2.42677E+03 -1.23441E+03 -4.74207E+03  2.01122E+03 -5.21317E+03  4.12309E+03 -2.59652E+03
  4.64993E+03  5.01829E+02  2.24968E+03  3.22884E+03 -2.05269E+02  4.79874E+03 -3.00450E+03  2.78848E+03
