 $NMID ID='MM_0lb_SNR800_11hz_g60_93.RAW', FMTDAT='(8E13.5)'
 TRAMP=1., VOLUME=1. $END
  3.10292E+05  7.30558E+02  3.37715E+05  2.50667E+05  8.50310E+04  3.38440E+05 -1.32880E+05  2.52062E+05
 -1.90924E+05  8.34093E+04 -1.12415E+05 -3.26764E+04  4.30241E+02 -5.07379E+04  5.36048E+04 -2.35808E+02
  3.55082E+04  5.28207E+04 -1.65298E+04  7.60295E+04 -6.12794E+04  6.41470E+04 -8.50986E+04  3.23012E+04
 -8.23063E+04 -1.16011E+04 -5.80962E+04 -5.19282E+04 -1.52668E+04 -7.13589E+04  2.82189E+04 -4.66782E+04
  4.08294E+04  3.63796E+03  1.65536E+04  4.85973E+04 -3.45769E+04  4.82677E+04 -6.79177E+04 -1.42927E+02
 -5.48298E+04 -5.76244E+04 -7.29049E+03 -7.84117E+04  3.49841E+04 -5.67405E+04  4.94666E+04 -1.80534E+04
  4.51453E+04  1.15520E+04  3.23767E+04  2.61930E+04  1.57675E+04  3.05316E+04 -5.53696E+03  2.78404E+04
 -2.23166E+04  1.22080E+04 -1.82528E+04 -5.90698E+03  6.93729E+03 -7.64911E+03  2.33763E+04  1.36813E+04
  7.22129E+03  3.69762E+04 -3.36120E+04  3.71458E+04 -6.55685E+04  2.20680E+03 -5.83437E+04 -4.42889E+04
 -1.25118E+04 -6.53757E+04  4.12120E+04 -4.73559E+04  6.08264E+04 -2.56907E+03  3.67101E+04  3.40789E+04
 -5.26569E+03  3.91137E+04 -3.15642E+04  1.86425E+04 -3.29914E+04 -3.75666E+03 -1.90167E+04 -1.16370E+04
 -9.64754E+03 -1.47141E+04 -6.25117E+02 -1.99140E+04  8.22952E+03 -2.33406E+04  1.61627E+04 -1.26976E+04
  1.04619E+04  6.12252E+03 -1.03777E+04  1.26317E+04 -2.30765E+04 -6.37918E+03 -8.73182E+03 -3.70047E+04
  2.50248E+04 -4.63796E+04  5.16978E+04 -2.08119E+04  4.81286E+04  2.06902E+04  1.72147E+04  4.67809E+04
 -1.63118E+04  3.57737E+04 -2.73083E+04  2.53325E+03 -1.15264E+04 -2.91816E+04  2.15071E+04 -3.64626E+04
  4.41912E+04 -1.07614E+04  3.97650E+04  2.49318E+04  2.11656E+04  5.01978E+04 -8.64959E+03  5.50181E+04
 -3.48497E+04  3.75674E+04 -4.63727E+04  1.08123E+04 -4.69052E+04 -1.80513E+04 -2.58326E+04 -4.14512E+04
  7.94601E+03 -4.12180E+04  3.37684E+04 -1.66637E+04  3.18902E+04  1.11029E+04  5.08403E+03  2.05246E+04
 -1.39785E+04  9.17311E+03 -1.09090E+04 -7.54689E+03  6.11989E+03 -1.11452E+04  1.83613E+04  5.69910E+03
  1.45257E+04  2.28493E+04 -5.16495E+03  2.66661E+04 -2.33668E+04  1.39707E+04 -3.11002E+04 -3.45620E+03
 -2.45292E+04 -1.81662E+04 -1.12527E+04 -2.44551E+04  4.61141E+03 -2.46975E+04  1.93080E+04 -2.24700E+04
  3.10614E+04 -1.41583E+04  3.76224E+04  4.63228E+03  2.68896E+04  2.36906E+04  4.43184E+03  4.04983E+04
 -1.95805E+04  3.31896E+04 -3.02794E+04  1.16384E+04 -2.25300E+04 -1.04661E+04 -4.73022E+03 -1.26871E+04
  9.23388E+02 -1.60040E+03 -6.81736E+03  7.81365E+03 -1.98292E+04  4.98753E+03 -1.93490E+04 -9.18836E+03
 -1.12500E+04 -2.26661E+04  5.98739E+03 -2.66494E+04  1.84831E+04 -1.93029E+04  2.20271E+04 -1.46315E+03
  1.40517E+04  1.53434E+04 -1.15314E+03  2.26140E+04 -1.63065E+04  1.31391E+04 -2.31904E+04 -5.00587E+03
 -1.62017E+04 -2.03243E+04 -2.04480E+03 -2.67785E+04  1.24857E+04 -2.27768E+04  2.25965E+04 -1.15495E+04
  2.13115E+04  1.05203E+02  1.54562E+04  5.03608E+03  7.93235E+03  1.28433E+03  1.16144E+04 -2.13425E+03
  2.13506E+04  2.70777E+03  2.41178E+04  1.75790E+04  1.66612E+04  3.67673E+04 -2.61876E+03  4.23018E+04
 -2.43955E+04  3.51955E+04 -3.99818E+04  1.76684E+04 -4.24088E+04 -2.91316E+03 -3.46879E+04 -2.49600E+04
 -1.34665E+04 -3.54507E+04  1.23079E+04 -3.15123E+04  2.71051E+04 -1.48447E+04  2.32691E+04  7.34818E+03
  8.01981E+03  1.76406E+04 -1.12346E+04  1.51573E+04 -1.94749E+04  2.59870E+03 -1.47083E+04 -1.21532E+04
 -4.11805E+02 -1.82322E+04  9.99377E+03 -1.36158E+04  1.28852E+04 -1.36634E+03  2.67147E+03  8.41977E+03
 -8.60291E+03  3.84036E+03 -8.75823E+03 -6.93888E+03 -1.74525E+03 -1.70601E+04  1.13464E+04 -1.83564E+04
  2.15611E+04 -1.01552E+04  2.38189E+04  3.10662E+03  2.13206E+04  1.74615E+04  9.56738E+03  2.71422E+04
 -5.15134E+03  2.89964E+04 -1.90596E+04  1.77571E+04 -2.13299E+04  3.53943E+03 -1.46392E+04 -5.24629E+03
 -6.26879E+03 -6.87450E+03 -9.92839E+02  2.47179E+02 -2.62613E+03  3.37238E+03 -6.94582E+03  5.40114E+03
 -1.33375E+04 -1.11400E+03 -1.42232E+04 -1.12676E+04 -5.80681E+03 -1.87968E+04  5.88572E+03 -1.48316E+04
  1.22003E+04 -5.84653E+03  8.33522E+03  3.82619E+03 -2.56952E+02  5.94663E+03 -7.03763E+03 -2.16132E+02
 -7.29058E+03 -9.44363E+03 -1.22632E+03 -1.43074E+04  8.55218E+03 -1.51888E+04  1.89951E+04 -8.35366E+03
  2.18621E+04  2.49138E+03  1.56383E+04  1.32605E+04  3.09843E+03  1.73628E+04 -9.07714E+03  1.44287E+04
 -1.20807E+04  4.23495E+03 -6.08747E+03 -2.77001E+03  1.99485E+03 -3.82047E+03  8.06688E+03 -9.68996E+02
  7.18528E+03  6.34224E+03  1.17225E+03  1.17443E+04 -8.54080E+03  1.12413E+04 -1.46698E+04  2.56942E+03
 -9.88163E+03 -7.71294E+03  4.89930E+02 -1.24820E+04  8.28701E+03 -6.21523E+03  8.37966E+03  2.71012E+03
  2.16718E+03  9.26370E+03 -7.79405E+03  1.06857E+04 -1.22362E+04  4.60801E+03 -1.22005E+04 -4.39540E+03
 -7.43886E+03 -1.44982E+04  3.44193E+03 -1.62276E+04  1.39777E+04 -9.80841E+03  1.55943E+04  2.64262E+03
  9.07337E+03  1.21033E+04 -1.20376E+03  1.48026E+04 -1.05612E+04  7.91876E+03 -1.18261E+04 -1.15322E+03
 -1.01242E+04 -1.00714E+04 -1.50329E+03 -1.06962E+04  5.76793E+03 -8.74416E+03  7.00905E+03 -3.64703E+03
  4.61543E+03  1.50636E+03 -6.33969E+02  1.94610E+03 -7.06108E+02 -3.09006E+03  2.23298E+03 -6.54119E+03
  1.03553E+04 -4.15507E+03  1.41957E+04  1.25667E+03  1.40376E+04  9.63989E+03  8.58112E+03  1.86297E+04
 -4.64805E+03  2.16776E+04 -1.76025E+04  1.57955E+04 -2.31850E+04  3.04746E+03 -1.82162E+04 -8.02916E+03
 -9.50232E+03 -1.52137E+04 -4.44956E+02 -1.25368E+04  4.55317E+03 -7.23004E+03  4.40169E+03 -4.32110E+03
  3.28313E+03 -3.00399E+03  3.81441E+03 -3.73830E+03  5.54951E+03 -2.88939E+03  7.38101E+03 -1.44661E+03
  9.33361E+03  2.03160E+03  4.89828E+03  8.22037E+03 -2.27897E+03  9.97099E+03 -1.02416E+04  7.79110E+03
 -1.30412E+04 -1.28752E+03 -8.14683E+03 -8.74564E+03 -1.05600E+03 -1.39242E+04  7.89831E+03 -1.40530E+04
  1.39735E+04 -8.05649E+03  1.69589E+04  2.51292E+03  1.22244E+04  1.19175E+04  2.51898E+03  1.55008E+04
 -6.17276E+03  1.26364E+04 -9.28943E+03  4.37168E+03 -6.36754E+03 -1.42209E+03 -2.42628E+03 -1.81357E+03
 -1.23831E+03  8.08144E+01 -2.14828E+03  3.08746E+03 -5.42761E+03  2.13252E+03 -8.98775E+03 -1.16286E+03
 -6.05862E+03 -9.14602E+03  1.58108E+02 -1.25067E+04  7.73052E+03 -1.14648E+04  1.24765E+04 -3.44375E+03
  1.25580E+04  6.34617E+03  5.57043E+03  1.13554E+04 -2.71972E+03  1.26652E+04 -8.88412E+03  8.33373E+03
 -1.20188E+04  4.76963E+02 -9.11347E+03 -7.87463E+03 -1.29553E+03 -1.03848E+04  5.42274E+03 -7.52762E+03
  7.98770E+03 -2.45349E+03  5.70444E+03  2.02222E+03  1.90777E+03  3.96111E+03  9.53649E+02  1.69568E+03
  2.33339E+03  8.03354E+02  3.06403E+03  2.06954E+03  3.77966E+03  4.25176E+03  3.15347E+03  6.47238E+03
 -2.69637E+03  9.88519E+03 -8.61210E+03  1.02055E+04 -1.27512E+04  2.72223E+03 -1.29054E+04 -5.23212E+03
 -6.43305E+03 -1.24171E+04  2.05327E+03 -1.37928E+04  7.63289E+03 -8.52327E+03  1.03506E+04 -2.11476E+03
  8.24880E+03  4.76457E+03  1.91873E+03  7.15159E+03 -3.50614E+03  4.48872E+03 -4.87999E+03 -7.78136E+02
 -2.57628E+03 -5.14157E+03  2.97331E+03 -5.60433E+03  5.26862E+03 -2.88422E+03  4.91988E+03  9.84829E+02
  2.98390E+03  2.67095E+03  1.29178E+03  1.97569E+03 -5.20825E+02  1.62294E+03  1.44657E+03 -4.31029E+02
  1.80119E+03 -9.53284E+02  4.92236E+03  2.45901E+03  2.67191E+03  6.67055E+03 -1.18438E+03  8.31771E+03
 -6.03278E+03  5.44519E+03 -8.44873E+03  1.47001E+03 -6.69337E+03 -2.80757E+03 -2.76305E+03 -4.74969E+03
  6.48324E+02 -4.85660E+03  2.90632E+03 -2.28678E+03  2.98385E+03  2.31425E+03 -1.05525E+03  4.23854E+03
 -4.84739E+03  2.42013E+03 -6.14718E+03 -2.69332E+03 -3.05332E+03 -6.94886E+03  1.01871E+03 -6.61801E+03
  3.84909E+03 -4.12229E+03  4.92440E+03 -2.98346E+02  4.18583E+03  1.68167E+03  5.20153E+02  3.61396E+03
 -2.43662E+03  1.28538E+03 -3.47166E+03 -2.05265E+03  9.80217E+02 -5.27390E+03  6.16690E+03 -4.15133E+03
  7.45214E+03  4.99561E+02  7.80174E+03  5.00284E+03  2.63936E+03  7.89968E+03 -2.57227E+03  7.28883E+03
 -6.30011E+03  2.87135E+03 -6.77478E+03 -7.83113E+02 -3.92533E+03 -4.78511E+03  1.45118E+03 -4.25928E+03
  4.93835E+03 -2.36924E+03  3.96759E+03  2.09182E+03  1.51182E+03  4.58531E+03 -7.95957E+02  3.71064E+03
 -2.13195E+03  2.46551E+03 -1.98705E+03  1.09802E+03 -1.09834E+03  7.54514E+02 -1.60567E+03  1.63836E+03
 -1.57179E+03  3.02575E+03 -5.52667E+03  2.44389E+03 -8.03809E+03  2.19615E+02 -8.58389E+03 -4.87733E+03
 -4.15727E+03 -1.00091E+04  1.92261E+03 -1.19804E+04  7.25348E+03 -9.28127E+03  1.12577E+04 -3.89654E+03
  1.01700E+04  1.92053E+03  6.68562E+03  7.22058E+03  5.46226E+02  7.73849E+03 -3.45092E+03  5.95548E+03
 -4.26435E+03  2.46239E+03 -2.54091E+03 -1.00926E+03 -1.14200E+03 -6.74042E+02 -3.80577E+02 -6.72644E+01
 -1.57945E+03  3.49275E+02 -2.00852E+03 -2.64437E+02 -7.82352E+02 -2.27712E+03  9.31785E+01 -2.98135E+03
  3.80601E+03 -2.72766E+03  4.38029E+03 -5.20857E+01  5.47605E+03  4.29302E+03  1.04107E+03  7.82471E+03
 -3.34439E+03  9.21750E+03 -8.26623E+03  5.14493E+03 -9.34155E+03 -5.40162E+02 -7.09891E+03 -6.16270E+03
 -2.89931E+03 -7.45792E+03  1.96105E+03 -7.22158E+03  4.92475E+03 -3.92862E+03  4.80643E+03  2.70811E+02
  2.78467E+03  2.30689E+03 -3.44291E+02  2.55633E+03 -1.45283E+03 -1.42033E+02 -9.55364E+01 -1.60001E+03
  2.67178E+03 -9.86634E+02  2.99990E+03  1.48737E+03  2.14379E+03  3.06823E+03  3.26677E+02  3.78791E+03
 -3.12744E+03  3.71967E+03 -5.04419E+03  5.29109E+02 -4.17525E+03 -3.64183E+03 -1.06406E+03 -6.12425E+03
  3.13018E+03 -4.91602E+03  5.88680E+03 -1.54926E+03  5.76329E+03  1.18411E+03  3.10590E+03  4.70663E+03
  9.41065E+02  5.01983E+03 -1.83632E+03  3.99002E+03 -3.09932E+03  2.37268E+03 -2.41768E+03  6.94076E+02
 -1.66409E+03 -2.78127E+01 -1.46505E+03  1.08025E+03 -2.89093E+03  1.10649E+03 -4.14748E+03 -6.85885E+02
 -3.88957E+03 -2.37552E+03 -1.16566E+03 -4.98182E+03  2.16233E+03 -5.64153E+03  4.37252E+03 -2.54452E+03
  4.74741E+03  1.03500E+03  2.36173E+03  3.39644E+03 -4.30367E+02  5.20040E+03 -3.66697E+03  2.90517E+03
