 $NMID ID='MM_0lb_SNR800_13hz_g55_88.RAW', FMTDAT='(8E13.5)'
 TRAMP=1., VOLUME=1. $END
  3.09827E+05  5.34979E+02  3.37817E+05  2.50550E+05  8.47615E+04  3.38107E+05 -1.32426E+05  2.51336E+05
 -1.90536E+05  8.33559E+04 -1.12074E+05 -3.24322E+04  5.68156E+02 -5.07415E+04  5.35760E+04 -5.44658E+02
  3.56408E+04  5.29436E+04 -1.67124E+04  7.59148E+04 -6.10388E+04  6.39424E+04 -8.43968E+04  3.26200E+04
 -8.12921E+04 -1.13362E+04 -5.77334E+04 -5.16598E+04 -1.49636E+04 -7.03129E+04  2.78899E+04 -4.61301E+04
  4.04241E+04  3.50157E+03  1.65746E+04  4.80520E+04 -3.47306E+04  4.76739E+04 -6.75144E+04 -1.92622E+02
 -5.40077E+04 -5.70013E+04 -6.95797E+03 -7.76946E+04  3.41612E+04 -5.57887E+04  4.84879E+04 -1.77523E+04
  4.42598E+04  1.14672E+04  3.24018E+04  2.61347E+04  1.60721E+04  2.97316E+04 -5.36848E+03  2.76681E+04
 -2.22011E+04  1.23311E+04 -1.83560E+04 -5.16115E+03  6.00360E+03 -7.66570E+03  2.27981E+04  1.27663E+04
  7.24924E+03  3.60704E+04 -3.27219E+04  3.58812E+04 -6.43986E+04  1.99850E+03 -5.76632E+04 -4.35431E+04
 -1.25271E+04 -6.43835E+04  4.04010E+04 -4.60661E+04  5.92525E+04 -2.19593E+03  3.50232E+04  3.27856E+04
 -5.82367E+03  3.75240E+04 -3.09030E+04  1.71890E+04 -3.13786E+04 -4.11269E+03 -1.77559E+04 -1.11549E+04
 -8.79838E+03 -1.38010E+04 -2.95626E+02 -1.86979E+04  7.67102E+03 -2.28739E+04  1.57097E+04 -1.27868E+04
  1.07517E+04  5.55195E+03 -8.92352E+03  1.27448E+04 -2.19134E+04 -5.45072E+03 -8.53166E+03 -3.51927E+04
  2.38492E+04 -4.45486E+04  4.94464E+04 -2.00039E+04  4.65983E+04  1.95414E+04  1.59886E+04  4.50853E+04
 -1.60292E+04  3.45172E+04 -2.63211E+04  2.02825E+03 -1.03972E+04 -2.82297E+04  2.13974E+04 -3.48661E+04
  4.22732E+04 -9.82229E+03  3.74441E+04  2.42522E+04  1.95511E+04  4.81995E+04 -8.28744E+03  5.24302E+04
 -3.29188E+04  3.56111E+04 -4.40794E+04  1.00897E+04 -4.46197E+04 -1.72961E+04 -2.47204E+04 -3.95425E+04
  7.60391E+03 -3.95009E+04  3.25247E+04 -1.56737E+04  3.04224E+04  1.09055E+04  4.18827E+03  1.97087E+04
 -1.37168E+04  8.91216E+03 -1.06613E+04 -7.97128E+03  5.49279E+03 -1.11264E+04  1.85836E+04  5.82070E+03
  1.40741E+04  2.22713E+04 -5.55350E+03  2.53023E+04 -2.24089E+04  1.22802E+04 -2.93782E+04 -3.96570E+03
 -2.24715E+04 -1.74609E+04 -9.72373E+03 -2.21490E+04  4.27261E+03 -2.15999E+04  1.72493E+04 -1.98036E+04
  2.79801E+04 -1.30617E+04  3.44325E+04  3.55397E+03  2.51645E+04  2.15074E+04  4.25759E+03  3.77959E+04
 -1.84251E+04  3.15534E+04 -2.90340E+04  1.09558E+04 -2.12764E+04 -1.04284E+04 -4.49970E+03 -1.32015E+04
  1.46519E+03 -2.41286E+03 -5.80856E+03  7.43092E+03 -1.75761E+04  4.80883E+03 -1.76700E+04 -7.71331E+03
 -1.05572E+04 -2.06673E+04  5.30375E+03 -2.46154E+04  1.62324E+04 -1.75048E+04  1.99492E+04 -1.80705E+03
  1.26783E+04  1.43458E+04 -1.39480E+03  2.04263E+04 -1.38791E+04  1.15549E+04 -2.06093E+04 -4.30898E+03
 -1.50948E+04 -1.81606E+04 -2.07861E+03 -2.45645E+04  1.10280E+04 -2.04184E+04  2.04570E+04 -1.05251E+04
  1.91657E+04  1.29282E+02  1.37009E+04  4.25059E+03  7.70481E+03  8.07927E+02  1.05310E+04 -1.66783E+03
  1.88476E+04  2.89432E+03  2.10623E+04  1.62594E+04  1.40377E+04  3.25771E+04 -2.94502E+03  3.72936E+04
 -2.17053E+04  3.04204E+04 -3.50139E+04  1.55297E+04 -3.69343E+04 -2.89417E+03 -3.08774E+04 -2.11375E+04
 -1.27667E+04 -3.05277E+04  1.04525E+04 -2.72748E+04  2.34514E+04 -1.34705E+04  2.09048E+04  6.09381E+03
  7.52678E+03  1.56056E+04 -9.59996E+03  1.35840E+04 -1.73825E+04  2.48555E+03 -1.34003E+04 -1.10517E+04
 -2.75852E+02 -1.64691E+04  8.73897E+03 -1.23932E+04  1.15399E+04 -1.10323E+03  2.69148E+03  7.27664E+03
 -7.31179E+03  3.04724E+03 -6.79947E+03 -5.84338E+03 -5.05054E+02 -1.47428E+04  1.03498E+04 -1.57228E+04
  1.84152E+04 -8.75476E+03  2.02747E+04  3.05548E+03  1.74113E+04  1.44653E+04  8.46476E+03  2.29079E+04
 -4.01390E+03  2.46224E+04 -1.59511E+04  1.54076E+04 -1.79396E+04  3.56491E+03 -1.23749E+04 -4.26511E+03
 -5.69322E+03 -5.53473E+03 -6.38911E+02  6.14434E+02 -2.56404E+03  2.99672E+03 -5.84186E+03  4.72775E+03
 -1.17816E+04 -5.64659E+02 -1.23363E+04 -9.62016E+03 -4.76345E+03 -1.62816E+04  4.95580E+03 -1.27958E+04
  1.03650E+04 -5.24015E+03  7.74072E+03  2.93895E+03 -3.98591E+01  4.88690E+03 -5.71213E+03 -1.44924E+02
 -6.11765E+03 -8.21995E+03 -1.03934E+03 -1.19775E+04  6.39674E+03 -1.26758E+04  1.55859E+04 -6.83825E+03
  1.80125E+04  1.53266E+03  1.35607E+04  1.06329E+04  2.43061E+03  1.47308E+04 -8.03794E+03  1.24849E+04
 -1.00570E+04  3.72170E+03 -5.41589E+03 -2.72396E+03  1.94139E+03 -3.15899E+03  6.55708E+03 -9.74491E+02
  6.21605E+03  5.22508E+03  8.56176E+02  9.88821E+03 -7.10724E+03  9.61711E+03 -1.24682E+04  2.28712E+03
 -8.50125E+03 -6.31527E+03  3.25885E+02 -1.04781E+04  6.53515E+03 -5.14351E+03  6.55417E+03  2.52435E+03
  1.15974E+03  7.18155E+03 -6.22001E+03  8.23331E+03 -9.37792E+03  3.86401E+03 -9.79538E+03 -3.23394E+03
 -5.60810E+03 -1.11258E+04  2.94165E+03 -1.32183E+04  1.09164E+04 -7.67331E+03  1.21552E+04  2.30188E+03
  7.72201E+03  9.47396E+03 -1.05902E+03  1.17331E+04 -8.23335E+03  6.64740E+03 -9.35815E+03 -8.98198E+02
 -8.28516E+03 -8.40504E+03 -1.67153E+03 -8.68623E+03  4.29411E+03 -7.48642E+03  5.40040E+03 -3.36540E+03
  4.34304E+03  8.17410E+02 -6.42904E+02  1.39003E+03 -2.01503E+01 -1.92537E+03  1.62129E+03 -4.93664E+03
  7.74739E+03 -3.08558E+03  1.10892E+04  1.47606E+03  1.09873E+04  7.49268E+03  7.54628E+03  1.41444E+04
 -2.89353E+03  1.68639E+04 -1.42353E+04  1.23113E+04 -1.82078E+04  2.49396E+03 -1.44358E+04 -6.04281E+03
 -7.50726E+03 -1.18270E+04 -5.43926E+02 -1.02277E+04  3.78395E+03 -5.14350E+03  3.46043E+03 -3.95853E+03
  2.81559E+03 -2.18096E+03  2.96181E+03 -3.12160E+03  4.78955E+03 -2.47558E+03  5.95372E+03 -4.57559E+02
  7.95868E+03  1.69596E+03  3.87242E+03  6.56758E+03 -1.87819E+03  7.40553E+03 -7.96123E+03  5.43874E+03
 -9.87994E+03 -1.37677E+03 -5.70129E+03 -7.03300E+03 -1.70695E+02 -1.06696E+04  5.79365E+03 -1.10047E+04
  1.07324E+04 -6.14375E+03  1.31948E+04  1.89090E+03  9.44980E+03  8.89897E+03  1.50568E+03  1.23890E+04
 -4.64709E+03  1.00210E+04 -6.94830E+03  3.75681E+03 -4.59612E+03 -1.20457E+03 -1.93855E+03 -1.39775E+03
 -8.49932E+02  2.45207E+02 -1.68993E+03  2.49611E+03 -4.42504E+03  1.63858E+03 -6.97251E+03 -8.72737E+02
 -4.29509E+03 -7.15284E+03  6.21213E+02 -9.65999E+03  5.69309E+03 -8.96343E+03  9.07679E+03 -2.35002E+03
  9.16547E+03  4.50237E+03  4.26518E+03  8.12470E+03 -1.91580E+03  9.59485E+03 -6.50069E+03  5.60251E+03
 -8.63179E+03  3.29877E+02 -7.11924E+03 -5.84443E+03 -1.02731E+03 -7.44972E+03  3.76063E+03 -5.81118E+03
  6.21020E+03 -1.68943E+03  3.81534E+03  1.53898E+03  1.25736E+03  3.14696E+03  1.13999E+03  1.34191E+03
  2.19850E+03  7.35761E+02  2.57160E+03  1.44299E+03  2.63685E+03  3.47742E+03  2.50074E+03  4.85015E+03
 -1.80092E+03  7.47181E+03 -6.23035E+03  7.63038E+03 -9.05032E+03  1.96069E+03 -9.90227E+03 -3.14824E+03
 -4.39154E+03 -9.02869E+03  1.19551E+03 -1.04937E+04  5.41706E+03 -6.15301E+03  7.58135E+03 -1.88490E+03
  5.53525E+03  3.59976E+03  1.13419E+03  5.40700E+03 -2.51530E+03  3.18179E+03 -3.42011E+03 -5.72334E+02
 -1.63500E+03 -3.51199E+03  2.19652E+03 -4.24854E+03  3.38449E+03 -1.84987E+03  3.52946E+03  1.04850E+03
  2.09907E+03  1.82495E+03  4.97925E+02  1.11229E+03 -3.73350E+02  1.62805E+03  1.89401E+03 -4.85061E+02
  1.00409E+03 -7.36071E+02  3.92796E+03  1.59388E+03  1.68614E+03  5.12242E+03 -9.86209E+02  6.35425E+03
 -3.98139E+03  3.48231E+03 -5.48884E+03  1.35373E+03 -4.95002E+03 -1.79624E+03 -1.65384E+03 -3.36983E+03
  7.47428E+02 -3.49378E+03  2.14254E+03 -1.37465E+03  1.98317E+03  2.08344E+03 -1.36870E+03  2.50194E+03
 -3.55813E+03  1.65692E+03 -3.79419E+03 -2.38994E+03 -2.37103E+03 -4.62295E+03  1.07111E+03 -4.48037E+03
  2.52782E+03 -2.24692E+03  3.04615E+03 -2.43888E+02  3.19348E+03  8.60620E+02  5.68866E+02  2.64173E+03
 -1.41954E+03  6.20392E+02 -2.09628E+03 -1.42271E+03  1.13301E+03 -3.32433E+03  4.35284E+03 -2.95178E+03
  5.01895E+03  1.20289E+01  5.32888E+03  3.03439E+03  2.26046E+03  5.21429E+03 -2.08259E+03  5.32728E+03
 -4.10847E+03  2.09490E+03 -4.17501E+03 -7.28631E+02 -2.59478E+03 -3.79602E+03  8.35830E+02 -2.86620E+03
  3.51018E+03 -1.53286E+03  2.69662E+03  1.15977E+03  7.38760E+02  3.28960E+03 -4.53475E+02  3.07823E+03
 -1.23674E+03  1.96568E+03 -1.16545E+03  9.95388E+01 -5.18110E+02  8.26766E+02 -1.02647E+03  1.48201E+03
 -1.61308E+03  2.00104E+03 -3.29646E+03  1.69067E+03 -4.76500E+03  1.56841E+02 -5.83552E+03 -3.33249E+03
 -3.06412E+03 -7.11705E+03  1.82418E+03 -8.10358E+03  4.60972E+03 -6.32717E+03  7.45416E+03 -2.32996E+03
  6.90377E+03  1.19436E+03  4.03473E+03  4.79887E+03  5.47647E+01  4.87873E+03 -2.04602E+03  3.61952E+03
 -3.08455E+03  1.42307E+03 -1.85466E+03 -8.63377E+02 -5.59940E+02  1.16075E+02 -9.04923E+02 -9.77883E+01
 -1.45451E+03  4.10602E+01 -1.39071E+03 -1.41996E+00  4.25888E-01 -1.38809E+03 -2.75268E+02 -2.12763E+03
  2.87035E+03 -1.83001E+03  2.92675E+03 -7.47479E+01  3.69067E+03  2.73439E+03  3.76378E+02  4.94188E+03
 -2.32328E+03  6.13261E+03 -5.16575E+03  3.61964E+03 -5.98963E+03 -4.55278E+02 -4.72019E+03 -4.00076E+03
 -2.29939E+03 -5.11824E+03  9.15314E+02 -4.43666E+03  2.64254E+03 -2.25751E+03  3.22422E+03  5.59082E+01
  1.81761E+03  1.53659E+03 -1.60183E+02  1.25089E+03 -8.81689E+02  6.73319E+01 -1.03578E+02 -1.30124E+03
  1.65342E+03 -3.47088E+02  1.93072E+03  8.23037E+02  1.30158E+03  2.01794E+03  1.00156E+02  2.29732E+03
 -2.00990E+03  2.28281E+03 -2.93193E+03 -9.87168E+01 -2.69948E+03 -1.83925E+03 -2.11472E+02 -4.15188E+03
  2.32851E+03 -3.26931E+03  3.32169E+03 -6.78403E+02  3.72215E+03  2.69324E+02  2.13655E+03  3.11278E+03
  6.74254E+02  3.05208E+03 -1.12993E+03  2.14641E+03 -2.22215E+03  1.39191E+03 -1.40740E+03 -5.94858E+01
 -8.35806E+02  2.93196E+02 -4.69675E+02  3.16069E+02 -1.69376E+03  3.87286E+02 -2.49353E+03 -5.39864E+02
 -2.44327E+03 -1.07606E+03 -5.51052E+02 -2.70686E+03  1.48694E+03 -3.67817E+03  3.07855E+03 -1.63139E+03
  2.94700E+03  5.43039E+02  1.13190E+03  1.82691E+03 -2.48024E+02  3.04280E+03 -2.27393E+03  1.75561E+03
