 $NMID ID='MM_0lb_SNR800_10hz_g55_71.RAW', FMTDAT='(8E13.5)'
 TRAMP=1., VOLUME=1. $END
  3.09465E+05  5.78075E+02  3.37783E+05  2.50951E+05  8.47823E+04  3.38499E+05 -1.32829E+05  2.51630E+05
 -1.90971E+05  8.39542E+04 -1.12775E+05 -3.24904E+04  4.79653E+02 -5.09457E+04  5.35854E+04 -3.68134E+02
  3.58102E+04  5.29335E+04 -1.68137E+04  7.61187E+04 -6.12011E+04  6.43930E+04 -8.51741E+04  3.32546E+04
 -8.23452E+04 -1.15922E+04 -5.77942E+04 -5.24589E+04 -1.50479E+04 -7.11057E+04  2.84700E+04 -4.69000E+04
  4.11974E+04  3.75011E+03  1.64198E+04  4.83688E+04 -3.49136E+04  4.80833E+04 -6.77768E+04  5.64881E+01
 -5.45762E+04 -5.79846E+04 -7.19593E+03 -7.88436E+04  3.50723E+04 -5.67387E+04  4.92657E+04 -1.85563E+04
  4.50207E+04  1.15036E+04  3.27819E+04  2.65337E+04  1.55573E+04  3.03625E+04 -6.02752E+03  2.73307E+04
 -2.28528E+04  1.19591E+04 -1.84576E+04 -5.67338E+03  6.99874E+03 -7.06583E+03  2.29950E+04  1.41641E+04
  7.30881E+03  3.74593E+04 -3.36500E+04  3.69210E+04 -6.60153E+04  2.01116E+03 -5.85287E+04 -4.45252E+04
 -1.25665E+04 -6.57714E+04  4.15457E+04 -4.72331E+04  6.09192E+04 -2.35545E+03  3.63219E+04  3.44507E+04
 -5.55512E+03  3.90907E+04 -3.18506E+04  1.85107E+04 -3.31187E+04 -3.47403E+03 -1.91616E+04 -1.20422E+04
 -9.66480E+03 -1.47687E+04 -7.70898E+02 -1.91780E+04  8.25970E+03 -2.31100E+04  1.62178E+04 -1.27020E+04
  1.08634E+04  5.99036E+03 -1.05725E+04  1.30142E+04 -2.31968E+04 -6.37737E+03 -8.20139E+03 -3.70195E+04
  2.51348E+04 -4.65774E+04  5.19398E+04 -2.09671E+04  4.82757E+04  2.09431E+04  1.73343E+04  4.69177E+04
 -1.71039E+04  3.60099E+04 -2.73197E+04  2.75229E+03 -1.18197E+04 -2.96421E+04  2.13625E+04 -3.63820E+04
  4.42998E+04 -1.10939E+04  3.98067E+04  2.51346E+04  2.12046E+04  5.08250E+04 -8.11047E+03  5.54891E+04
 -3.51387E+04  3.78576E+04 -4.67228E+04  1.07857E+04 -4.69104E+04 -1.83719E+04 -2.58926E+04 -4.15490E+04
  7.71106E+03 -4.17521E+04  3.36659E+04 -1.71051E+04  3.16630E+04  1.12037E+04  5.24303E+03  2.07648E+04
 -1.39146E+04  9.39543E+03 -1.08960E+04 -7.79246E+03  5.77948E+03 -1.12255E+04  1.88400E+04  5.66501E+03
  1.47629E+04  2.33441E+04 -5.39625E+03  2.68073E+04 -2.35440E+04  1.38053E+04 -3.13544E+04 -3.08233E+03
 -2.48888E+04 -1.83148E+04 -1.14692E+04 -2.44382E+04  4.54418E+03 -2.52522E+04  1.97178E+04 -2.27566E+04
  3.15662E+04 -1.41760E+04  3.74317E+04  4.61031E+03  2.68753E+04  2.42796E+04  4.56023E+03  4.10358E+04
 -1.95992E+04  3.34019E+04 -2.99655E+04  1.15553E+04 -2.20161E+04 -1.02994E+04 -5.45510E+03 -1.28675E+04
  9.29547E+02 -1.18721E+03 -7.49134E+03  8.04705E+03 -1.97240E+04  5.20885E+03 -1.97811E+04 -9.25442E+03
 -1.16067E+04 -2.30049E+04  5.97506E+03 -2.69300E+04  1.79316E+04 -1.94939E+04  2.25679E+04 -1.58454E+03
  1.42369E+04  1.58601E+04 -1.28408E+03  2.28375E+04 -1.62608E+04  1.31002E+04 -2.32719E+04 -4.74715E+03
 -1.69878E+04 -2.06346E+04 -2.13525E+03 -2.73753E+04  1.25550E+04 -2.28997E+04  2.26642E+04 -1.20342E+04
  2.15009E+04 -2.01337E+02  1.54943E+04  5.24176E+03  8.73053E+03  1.03060E+03  1.18479E+04 -2.29552E+03
  2.19315E+04  2.65734E+03  2.48421E+04  1.77722E+04  1.65823E+04  3.70259E+04 -2.40652E+03  4.31486E+04
 -2.48115E+04  3.61297E+04 -4.10942E+04  1.85978E+04 -4.32699E+04 -3.24238E+03 -3.50883E+04 -2.55696E+04
 -1.44004E+04 -3.58914E+04  1.25536E+04 -3.19203E+04  2.70030E+04 -1.48050E+04  2.37207E+04  7.39766E+03
  8.12731E+03  1.84139E+04 -1.14037E+04  1.54602E+04 -1.95166E+04  2.30989E+03 -1.49176E+04 -1.26177E+04
 -2.57204E+02 -1.92628E+04  1.01653E+04 -1.42430E+04  1.30809E+04 -1.59008E+03  3.17454E+03  8.16268E+03
 -8.57467E+03  3.97547E+03 -8.66959E+03 -7.11746E+03 -1.44321E+03 -1.78339E+04  1.16924E+04 -1.93507E+04
  2.24378E+04 -1.07226E+04  2.49067E+04  3.30351E+03  2.21070E+04  1.82269E+04  1.03817E+04  2.82507E+04
 -5.30152E+03  3.02093E+04 -2.01105E+04  1.88426E+04 -2.15112E+04  3.82867E+03 -1.47819E+04 -5.56775E+03
 -6.24076E+03 -6.74609E+03 -4.76318E+02  3.41707E+02 -3.11757E+03  3.39433E+03 -7.02147E+03  5.26723E+03
 -1.36882E+04 -7.32893E+02 -1.46491E+04 -1.17720E+04 -5.64252E+03 -1.86717E+04  5.90725E+03 -1.51294E+04
  1.27864E+04 -6.31966E+03  8.57591E+03  4.31482E+03 -4.42269E+02  5.75724E+03 -7.70848E+03  1.65123E+01
 -7.17571E+03 -9.94244E+03 -8.73569E+02 -1.52358E+04  8.86416E+03 -1.60183E+04  1.91329E+04 -8.70861E+03
  2.24701E+04  2.31642E+03  1.64958E+04  1.39054E+04  2.78712E+03  1.81389E+04 -9.58665E+03  1.49683E+04
 -1.25196E+04  4.45891E+03 -6.51387E+03 -3.14863E+03  2.48333E+03 -4.45446E+03  8.02570E+03 -9.40389E+02
  7.25145E+03  6.75020E+03  1.33707E+03  1.23283E+04 -8.76511E+03  1.15686E+04 -1.51109E+04  3.07770E+03
 -1.04604E+04 -8.00601E+03  1.67455E+02 -1.27158E+04  8.32733E+03 -6.48121E+03  8.85353E+03  3.09666E+03
  2.18226E+03  9.33787E+03 -7.79279E+03  1.10781E+04 -1.24519E+04  4.94370E+03 -1.33978E+04 -4.31738E+03
 -7.30915E+03 -1.53373E+04  3.93204E+03 -1.70410E+04  1.43003E+04 -1.03657E+04  1.58977E+04  2.93564E+03
  9.61339E+03  1.27779E+04 -1.53590E+03  1.51519E+04 -1.07869E+04  8.29087E+03 -1.20386E+04 -9.79364E+02
 -1.01448E+04 -9.65936E+03 -2.03568E+03 -1.14594E+04  6.13625E+03 -9.25976E+03  7.31782E+03 -3.56562E+03
  4.41844E+03  2.12995E+03 -1.38945E+03  1.58964E+03 -4.61647E+02 -3.26393E+03  2.22262E+03 -7.36082E+03
  1.08466E+04 -4.20328E+03  1.48640E+04  1.43684E+03  1.48338E+04  1.02077E+04  9.75343E+03  1.98561E+04
 -4.51700E+03  2.26925E+04 -1.88886E+04  1.66291E+04 -2.47723E+04  3.09805E+03 -1.94509E+04 -8.69623E+03
 -9.77600E+03 -1.60980E+04 -6.03212E+02 -1.37621E+04  4.72948E+03 -7.66491E+03  4.59680E+03 -4.89295E+03
  3.67786E+03 -2.96578E+03  3.76644E+03 -3.57365E+03  5.64067E+03 -3.36131E+03  7.84467E+03 -1.24450E+03
  9.83441E+03  2.65665E+03  5.35041E+03  8.98584E+03 -2.24849E+03  1.05531E+04 -1.08576E+04  8.06533E+03
 -1.38923E+04 -1.37190E+03 -9.03429E+03 -9.76931E+03 -1.17817E+03 -1.50165E+04  7.90879E+03 -1.50642E+04
  1.49165E+04 -8.47404E+03  1.83315E+04  2.22759E+03  1.23552E+04  1.29435E+04  1.71237E+03  1.68145E+04
 -6.92672E+03  1.35011E+04 -1.01380E+04  4.79054E+03 -6.65695E+03 -1.55966E+03 -2.48201E+03 -1.96836E+03
 -1.41357E+03  9.75450E+01 -1.82983E+03  2.51269E+03 -5.86242E+03  2.20175E+03 -9.43562E+03 -1.59295E+03
 -6.56943E+03 -9.59883E+03  3.45015E+02 -1.37086E+04  8.16619E+03 -1.26754E+04  1.40120E+04 -3.80790E+03
  1.36422E+04  6.49591E+03  6.26714E+03  1.19255E+04 -2.78680E+03  1.32974E+04 -9.51347E+03  8.40322E+03
 -1.27054E+04  6.28877E+02 -9.66993E+03 -8.38322E+03 -1.12020E+03 -1.14911E+04  5.77309E+03 -8.62853E+03
  8.30373E+03 -2.96913E+03  6.08642E+03  2.32739E+03  1.96160E+03  4.02823E+03  1.43037E+03  1.86110E+03
  2.48644E+03  9.00992E+02  3.52777E+03  1.86747E+03  4.09279E+03  4.62978E+03  3.70594E+03  7.22605E+03
 -2.90135E+03  1.06848E+04 -9.36667E+03  1.07974E+04 -1.40275E+04  2.78163E+03 -1.46059E+04 -5.69901E+03
 -6.56665E+03 -1.38000E+04  1.91371E+03 -1.50972E+04  8.34376E+03 -9.27645E+03  1.11193E+04 -2.51088E+03
  8.82726E+03  5.20605E+03  1.79029E+03  8.22951E+03 -3.84914E+03  5.54890E+03 -5.50449E+03 -7.63232E+02
 -2.84594E+03 -5.97119E+03  3.31412E+03 -6.01708E+03  5.65461E+03 -2.97117E+03  5.15470E+03  1.17582E+03
  3.08476E+03  2.53961E+03  1.15924E+03  2.17671E+03 -7.72861E+02  2.06225E+03  1.38855E+03 -5.18343E+02
  2.24283E+03 -9.88884E+02  5.25308E+03  2.25754E+03  3.20257E+03  7.41192E+03 -1.07449E+03  9.56655E+03
 -6.50279E+03  6.30596E+03 -8.51677E+03  1.71100E+03 -7.80975E+03 -3.15580E+03 -2.97853E+03 -5.43530E+03
  5.80822E+02 -5.04299E+03  3.74849E+03 -2.53257E+03  3.29964E+03  2.84840E+03 -1.37758E+03  4.41424E+03
 -5.96518E+03  2.65561E+03 -6.73221E+03 -3.38138E+03 -3.63318E+03 -7.38966E+03  1.38335E+03 -7.78082E+03
  4.41315E+03 -4.24651E+03  5.73522E+03 -5.27088E+02  4.90165E+03  1.85442E+03  5.24168E+02  3.67023E+03
 -2.62928E+03  1.11803E+03 -3.28511E+03 -2.60688E+03  1.25657E+03 -5.90197E+03  6.93613E+03 -4.23375E+03
  8.56302E+03  5.33549E+02  8.73064E+03  5.69560E+03  3.03158E+03  9.22080E+03 -3.10193E+03  8.82752E+03
 -7.05625E+03  3.33496E+03 -7.28414E+03 -9.12390E+02 -4.31648E+03 -5.60479E+03  1.32518E+03 -5.53267E+03
  5.50680E+03 -2.62850E+03  4.39319E+03  2.74513E+03  1.25700E+03  4.94364E+03 -5.50575E+02  4.07533E+03
 -2.26818E+03  2.94172E+03 -2.32513E+03  5.91086E+02 -9.27878E+02  7.62778E+02 -1.55382E+03  2.05529E+03
 -2.51357E+03  3.59025E+03 -5.45014E+03  3.01307E+03 -8.88814E+03  1.48129E+02 -1.03724E+04 -6.07525E+03
 -5.37111E+03 -1.17114E+04  2.38836E+03 -1.33148E+04  8.19490E+03 -1.07689E+04  1.30413E+04 -3.84759E+03
  1.16539E+04  2.02765E+03  7.15906E+03  8.15671E+03  8.74639E+02  8.92339E+03 -3.86893E+03  6.66012E+03
 -5.03657E+03  2.89551E+03 -3.02358E+03 -7.77039E+02 -1.17277E+03 -7.29336E+02 -4.53253E+02 -2.22513E+02
 -1.63630E+03  4.66880E+02 -2.36680E+03 -9.33410E+02 -5.24196E+02 -2.46284E+03  3.68507E+02 -3.51344E+03
  4.40403E+03 -2.81673E+03  5.38817E+03  3.61999E+02  6.08692E+03  5.08306E+03  1.60676E+03  8.76998E+03
 -4.56897E+03  1.01301E+04 -9.75393E+03  6.00711E+03 -1.08303E+04 -7.02447E+02 -8.20934E+03 -6.93978E+03
 -3.71509E+03 -9.11508E+03  2.38827E+03 -8.38512E+03  6.09666E+03 -4.19283E+03  5.91504E+03 -7.66827E+01
  3.08371E+03  3.37735E+03 -5.29608E+02  2.72250E+03 -1.79226E+03  2.83765E+02  2.91793E+02 -2.01022E+03
  2.76759E+03 -1.32872E+03  3.55442E+03  1.32216E+03  2.23622E+03  3.49886E+03 -2.10981E+02  4.65511E+03
 -4.01513E+03  4.35013E+03 -6.07122E+03  5.43291E+02 -5.42906E+03 -4.13165E+03 -8.46488E+02 -7.52115E+03
  4.53225E+03 -6.51735E+03  6.79246E+03 -1.74485E+03  6.75236E+03  1.06721E+03  4.08142E+03  5.50807E+03
  1.01220E+03  6.09656E+03 -2.50998E+03  4.87380E+03 -4.09822E+03  2.11963E+03 -2.85939E+03  2.01058E+02
 -1.67105E+03 -8.52012E+01 -1.78303E+03  7.00955E+02 -3.53855E+03  6.53261E+02 -4.68667E+03 -1.03647E+03
 -4.84546E+03 -3.09589E+03 -1.54521E+03 -6.27147E+03  2.86727E+03 -6.32381E+03  5.34824E+03 -2.80416E+03
  5.93594E+03  6.42420E+02  2.82713E+03  3.95107E+03 -5.91401E+02  5.75106E+03 -4.65031E+03  3.69346E+03
