 $NMID ID='MM_0lb_SNR800_19hz_g45_46.RAW', FMTDAT='(8E13.5)'
 TRAMP=1., VOLUME=1. $END
  3.09836E+05  1.75032E+02  3.37408E+05  2.50208E+05  8.45366E+04  3.37027E+05 -1.32628E+05  2.50023E+05
 -1.89456E+05  8.23565E+04 -1.10966E+05 -3.27820E+04  1.58689E+03 -5.01126E+04  5.37314E+04  2.69145E+02
  3.49455E+04  5.28132E+04 -1.69479E+04  7.48595E+04 -6.02577E+04  6.25741E+04 -8.26941E+04  3.12447E+04
 -7.92866E+04 -1.10680E+04 -5.61236E+04 -5.01548E+04 -1.49317E+04 -6.80902E+04  2.65707E+04 -4.46754E+04
  3.90303E+04  3.98759E+03  1.55522E+04  4.70008E+04 -3.36808E+04  4.60365E+04 -6.50958E+04 -4.73494E+02
 -5.16614E+04 -5.57822E+04 -6.21773E+03 -7.46917E+04  3.30646E+04 -5.28069E+04  4.57826E+04 -1.61244E+04
  4.13419E+04  1.10363E+04  3.05286E+04  2.44089E+04  1.58663E+04  2.80515E+04 -4.59321E+03  2.65578E+04
 -2.14916E+04  1.29093E+04 -1.92992E+04 -4.14725E+03  4.00820E+03 -7.53127E+03  2.08950E+04  1.06791E+04
  7.54163E+03  3.29455E+04 -3.03986E+04  3.40203E+04 -6.07449E+04  2.20093E+03 -5.50687E+04 -4.08909E+04
 -1.23015E+04 -6.05375E+04  3.77302E+04 -4.31869E+04  5.52417E+04 -1.72323E+03  3.18633E+04  3.04171E+04
 -6.64507E+03  3.26030E+04 -2.82498E+04  1.29950E+04 -2.72771E+04 -5.47202E+03 -1.39723E+04 -9.96263E+03
 -7.10322E+03 -1.11883E+04 -7.98010E+02 -1.63662E+04  6.54784E+03 -2.26321E+04  1.48424E+04 -1.39179E+04
  1.23996E+04  4.14032E+03 -6.14236E+03  1.29524E+04 -1.90748E+04 -1.98346E+03 -8.11430E+03 -2.98233E+04
  2.05402E+04 -3.98878E+04  4.41770E+04 -1.84106E+04  4.16904E+04  1.81645E+04  1.38076E+04  4.13153E+04
 -1.51771E+04  3.07134E+04 -2.29097E+04  1.05213E+03 -7.96335E+03 -2.62242E+04  2.04859E+04 -3.08178E+04
  3.74771E+04 -7.15973E+03  3.07543E+04  2.24024E+04  1.50051E+04  4.22558E+04 -7.59799E+03  4.42115E+04
 -2.78095E+04  2.93112E+04 -3.67081E+04  8.42701E+03 -3.76841E+04 -1.47818E+04 -2.09628E+04 -3.41908E+04
  6.91918E+03 -3.35620E+04  2.87131E+04 -1.24440E+04  2.61674E+04  1.05370E+04  2.68915E+03  1.73734E+04
 -1.27358E+04  7.18349E+03 -9.47082E+03 -7.75099E+03  5.89843E+03 -1.00450E+04  1.71327E+04  6.20216E+03
  1.21014E+04  2.15405E+04 -6.79076E+03  2.31245E+04 -2.13598E+04  8.79576E+03 -2.45439E+04 -6.64769E+03
 -1.62369E+04 -1.60986E+04 -5.42846E+03 -1.62240E+04  3.52579E+03 -1.40229E+04  1.18412E+04 -1.39537E+04
  2.06253E+04 -1.13586E+04  2.73994E+04  7.72863E+02  2.08959E+04  1.61687E+04  4.16928E+03  3.14886E+04
 -1.56876E+04  2.72893E+04 -2.56387E+04  9.21010E+03 -1.92133E+04 -1.02843E+04 -3.54787E+03 -1.40432E+04
  2.62487E+03 -4.33200E+03 -2.40651E+03  5.02204E+03 -1.24495E+04  5.06525E+03 -1.30086E+04 -4.69277E+03
 -8.34927E+03 -1.48207E+04  4.50326E+03 -1.87827E+04  1.22412E+04 -1.38534E+04  1.40851E+04 -1.57771E+03
  8.66502E+03  1.06868E+04 -9.14467E+02  1.51259E+04 -9.89711E+03  8.46606E+03 -1.50566E+04 -3.28991E+03
 -1.13101E+04 -1.40303E+04 -1.20494E+03 -1.85920E+04  8.32960E+03 -1.47227E+04  1.55098E+04 -6.88692E+03
  1.44382E+04  6.88644E+02  1.01244E+04  3.84168E+03  5.14341E+03  5.14653E+02  7.49281E+03 -1.31082E+03
  1.32425E+04  2.63974E+03  1.42264E+04  1.24268E+04  8.70226E+03  2.39327E+04 -3.03097E+03  2.56111E+04
 -1.52810E+04  1.93478E+04 -2.35926E+04  9.43192E+03 -2.38013E+04 -1.56535E+03 -2.08559E+04 -1.37911E+04
 -9.64626E+03 -1.97077E+04  6.33696E+03 -1.82520E+04  1.59233E+04 -1.06592E+04  1.48984E+04  3.50084E+03
  6.35641E+03  1.05317E+04 -6.70350E+03  1.00895E+04 -1.27432E+04  2.59744E+03 -9.84218E+03 -7.59362E+03
 -2.51176E+02 -1.19813E+04  5.91692E+03 -9.25811E+03  7.43208E+03 -1.22287E+03  1.73524E+03  4.45534E+03
 -5.23964E+03  1.04955E+03 -3.39179E+03 -4.42487E+03  6.35689E+02 -9.70344E+03  7.57370E+03 -9.55867E+03
  1.16540E+04 -4.22990E+03  1.12590E+04  2.86589E+03  9.63792E+03  9.18236E+03  4.83177E+03  1.32639E+04
 -1.61262E+03  1.50378E+04 -8.84293E+03  9.71145E+03 -1.06592E+04  2.96100E+03 -8.29230E+03 -1.64622E+03
 -4.63181E+03 -3.04445E+03 -9.36462E+02  1.55640E+03 -2.12077E+03  1.78374E+03 -3.36836E+03  3.46969E+03
 -7.77920E+03 -5.91313E+02 -8.38338E+03 -6.88266E+03 -3.57015E+03 -1.12744E+04  3.21298E+03 -8.22629E+03
  6.97214E+03 -3.70717E+03  4.71284E+03  2.29925E+03  6.10531E+02  2.87676E+03 -3.15698E+03 -1.92506E+02
 -3.22640E+03 -5.07088E+03 -7.98629E+02 -6.54717E+03  3.86024E+03 -7.65715E+03  9.31309E+03 -3.51639E+03
  1.09176E+04  3.72351E+02  8.20089E+03  5.83810E+03  1.67700E+03  8.16441E+03 -4.70666E+03  8.03110E+03
 -6.58364E+03  2.60395E+03 -3.43660E+03 -1.23795E+03  1.02747E+03 -1.91757E+03  4.36745E+03 -1.33673E+03
  4.20355E+03  3.27705E+03  7.57083E+02  6.04280E+03 -4.18996E+03  6.13730E+03 -7.67766E+03  1.71193E+03
 -4.37889E+03 -3.34437E+03  5.45389E+02 -6.59689E+03  3.58339E+03 -3.19777E+03  3.32100E+03  1.07414E+03
  3.94289E+02  3.04873E+03 -4.07068E+03  4.31715E+03 -4.57313E+03  2.22179E+03 -4.12446E+03 -8.44091E+02
 -2.41711E+03 -5.70902E+03  1.18582E+03 -6.51391E+03  5.51678E+03 -3.92873E+03  6.14526E+03  9.48233E+02
  4.31443E+03  4.77319E+03  1.80330E+02  6.77083E+03 -4.72541E+03  4.19340E+03 -4.86791E+03 -3.50790E+02
 -5.77324E+03 -4.95633E+03 -1.12179E+03 -4.77308E+03  2.31309E+03 -4.37022E+03  2.79436E+03 -2.63705E+03
  2.78414E+03  3.79160E+02  1.90092E+02  1.16225E+03  6.76287E+02 -1.33565E+02  1.40228E+02 -1.42772E+03
  3.15388E+03 -8.35945E+02  4.93263E+03  5.41378E+02  5.27568E+03  2.71520E+03  5.23681E+03  6.45807E+03
 -1.00274E+03  7.60759E+03 -7.31262E+03  6.17178E+03 -8.97044E+03  8.19136E+02 -7.28979E+03 -2.41866E+03
 -3.70632E+03 -5.95953E+03 -6.58482E+02 -4.80563E+03  2.05417E+03 -1.78786E+03  1.73280E+03 -1.96283E+03
  1.01225E+03 -1.47514E+03  2.07333E+03 -2.14669E+03  3.52076E+03 -1.33203E+03  3.44732E+03  1.14625E+02
  4.14537E+03  1.11086E+03  8.70240E+02  3.25213E+03 -1.50566E+03  2.61892E+03 -4.16598E+03  2.42442E+03
 -4.37243E+03 -9.49977E+02 -1.43331E+03 -3.06963E+03  3.56578E+02 -4.92355E+03  3.03091E+03 -4.63204E+03
  4.68113E+03 -3.20668E+03  6.22400E+03  8.99551E+01  4.64601E+03  3.97781E+03  1.27482E+03  5.48762E+03
 -2.04347E+03  5.38294E+03 -3.04682E+03  1.82329E+03 -1.75689E+03 -1.03528E+03 -7.44189E+02 -4.55396E+02
 -3.02756E+02  6.17073E+02 -8.17954E+02  1.74054E+03 -2.51926E+03  8.22325E+02 -3.94401E+03 -4.60347E+02
 -1.37399E+03 -3.74661E+03  8.02019E+02 -4.34609E+03  2.39514E+03 -3.99872E+03  3.07937E+03 -1.01894E+03
  3.59170E+03  2.43042E+03  1.61240E+03  3.00835E+03 -6.90169E+02  4.20733E+03 -2.17235E+03  2.53671E+03
 -3.31160E+03  3.71766E+02 -3.08305E+03 -2.07942E+03 -1.42912E+02 -2.79165E+03  1.39778E+03 -2.16145E+03
  2.41203E+03 -1.60173E+03  1.46354E+03  1.95432E+02  3.79380E+02  1.63947E+03  8.20402E+02  3.05776E+02
  1.84270E+03  6.05046E+02  9.36634E+02  1.36049E+03  1.04735E+03  2.05482E+03  1.37024E+03  1.27971E+03
 -9.46877E+02  2.69325E+03 -2.18496E+03  3.59957E+03 -2.59790E+03  1.08588E+03 -3.71183E+03 -3.44269E+02
 -1.74906E+03 -3.27499E+03  4.32407E+02 -4.34413E+03  1.67649E+03 -2.27719E+03  2.77578E+03 -1.11686E+03
  2.20053E+03  1.33603E+03  3.71710E+02  2.25044E+03 -3.68531E+02  1.09725E+03 -9.93974E+02 -1.75250E+02
 -4.80139E+02 -1.44654E+03  1.08522E+03 -1.43346E+03  1.01022E+03 -8.10995E+02  1.48093E+03  2.73940E+02
  8.02121E+02  1.91801E+02  8.06751E+02 -3.76592E+02 -3.08207E+02  5.21025E+02  1.61870E+03 -6.32231E+02
 -9.39151E+01 -8.26731E+01  1.69661E+03  4.62483E+02  9.43546E+01  2.31490E+03 -4.58964E+02  2.41528E+03
 -1.43451E+03  8.04389E+02 -1.67938E+03  1.71221E+02 -1.90016E+03 -5.31819E+02 -1.23272E+02 -9.48823E+02
  2.96221E+02 -1.09248E+03  7.62421E+02 -6.28695E+02  3.26819E+02  1.12383E+03 -6.58903E+02  8.70465E+02
 -1.36438E+03  4.51970E+02 -1.02679E+03 -1.30048E+03 -4.47841E+02 -1.79815E+03  1.74264E+02 -1.27572E+03
  2.60539E+02 -4.44180E+02  6.11155E+02 -3.74423E+01  1.32979E+03 -1.04781E+02  4.01888E+02  9.38157E+02
 -3.57406E+02  1.73041E+01 -8.50701E+02 -1.94741E+02  6.27607E+02 -6.45684E+02  1.59789E+03 -7.70171E+02
  1.09519E+03  4.02867E+02  2.83890E+03  7.46134E+02  9.09102E+02  1.51909E+03 -2.54028E+02  1.48042E+03
 -1.20792E+03  1.50050E+02 -1.47663E+03 -1.65019E+02 -8.18632E+02 -1.33048E+03  3.47961E+02 -4.97465E+02
  1.44370E+03 -7.84301E+02  3.58337E+02  7.39228E+02  6.06347E+01  1.39238E+03  2.72756E+02  9.53463E+02
 -2.67897E+02  1.02118E+03 -5.20147E+02 -1.50257E+02  3.38712E+02  4.79451E+02 -9.76866E+02  5.34265E+02
 -8.28646E+02  1.06046E+03 -1.37914E+03  4.56324E+02 -1.68711E+03  1.56617E+02 -2.28837E+03 -9.41824E+02
 -9.45276E+02 -2.11715E+03  4.22332E+02 -2.48923E+03  8.52175E+02 -2.31097E+03  2.71973E+03 -8.07068E+02
  2.38480E+03 -3.09289E+02  1.16148E+03  1.58236E+03 -5.79766E+02  1.24231E+03 -7.89902E+02  1.13465E+03
 -1.05557E+03  6.15895E+02 -6.13078E+02 -2.87720E+02 -4.72111E+02  5.38795E+02 -7.14471E+02 -8.74385E+01
 -1.23725E+03 -1.61564E+01 -1.01997E+03  2.39783E+02  1.33003E+02 -2.09148E+02 -2.43987E+02 -1.01119E+03
  1.27552E+03 -8.50252E+02  3.40919E+02  3.67678E+02  8.81944E+02  1.02573E+03 -3.70967E+02  1.40877E+03
 -1.29839E+03  2.19471E+03 -1.69128E+03  8.50611E+02 -1.63060E+03 -4.30659E+01 -1.40577E+03 -1.07208E+03
 -8.11687E+02 -1.34087E+03  3.54015E+02 -1.07667E+03  4.68725E+02 -4.98605E+02  8.06909E+02  3.64760E+02
  8.32443E+02  3.82243E+02  2.04646E+02  3.81770E+02 -1.99602E+02 -2.66324E+01 -1.68764E+02 -1.66351E+02
  2.99359E+02  4.27689E+02  4.95728E+02  3.96988E+02  6.88410E+00  3.33042E+02  4.06868E+02  2.39604E+02
 -4.19281E+02  8.20876E+02 -2.43316E+02  3.02411E+02 -4.85187E+02 -6.63342E+02 -6.22484E+01 -1.38804E+03
  6.64291E+02 -5.62636E+02  4.29572E+02 -2.24802E+01  7.35055E+02 -4.44566E+02  1.46573E+02  9.22289E+02
  3.66102E+02  6.86359E+02 -5.09919E+01  3.37215E+02 -5.11892E+02  7.42332E+02 -3.82911E+02 -1.86284E+02
 -1.69397E+02 -8.05786E+01 -5.90015E+02  2.06586E+02 -4.90690E+02 -3.57006E+01 -7.57285E+02 -2.67283E+02
 -9.80293E+02  1.91447E+02 -4.21597E+02 -7.97294E+02  6.75859E+02 -1.55898E+03  6.05004E+02  1.26065E+02
  3.16192E+02  1.74182E+02 -4.23385E+02  1.68812E+02  7.23974E+01  6.53042E+02 -3.86229E+02  7.15484E+02
