 $NMID ID='MM_0lb_SNR800_11hz_g50_69.RAW', FMTDAT='(8E13.5)'
 TRAMP=1., VOLUME=1. $END
  3.09653E+05  1.81945E+02  3.37860E+05  2.50612E+05  8.44695E+04  3.38362E+05 -1.32330E+05  2.51388E+05
 -1.90734E+05  8.33111E+04 -1.11751E+05 -3.25079E+04  4.23050E+02 -5.03472E+04  5.38557E+04 -2.88890E+02
  3.56525E+04  5.30952E+04 -1.68462E+04  7.57634E+04 -6.08795E+04  6.43641E+04 -8.47963E+04  3.23350E+04
 -8.18933E+04 -1.14178E+04 -5.78831E+04 -5.15299E+04 -1.50282E+04 -7.08671E+04  2.74834E+04 -4.62539E+04
  4.06983E+04  3.63788E+03  1.65324E+04  4.86521E+04 -3.45635E+04  4.78334E+04 -6.75185E+04 -2.55489E+02
 -5.42296E+04 -5.77434E+04 -6.79371E+03 -7.82453E+04  3.48381E+04 -5.60966E+04  4.91768E+04 -1.75951E+04
  4.47220E+04  1.15082E+04  3.23065E+04  2.60452E+04  1.59040E+04  3.01718E+04 -5.72541E+03  2.73885E+04
 -2.25640E+04  1.19550E+04 -1.83661E+04 -5.25695E+03  6.65678E+03 -7.25829E+03  2.27987E+04  1.31089E+04
  6.83890E+03  3.64352E+04 -3.32042E+04  3.63735E+04 -6.51406E+04  2.30887E+03 -5.81678E+04 -4.35264E+04
 -1.24108E+04 -6.50519E+04  4.08375E+04 -4.65374E+04  5.98128E+04 -2.57580E+03  3.57574E+04  3.37481E+04
 -5.59448E+03  3.81804E+04 -3.09346E+04  1.74811E+04 -3.18891E+04 -4.18125E+03 -1.84888E+04 -1.15529E+04
 -8.87893E+03 -1.44105E+04 -6.93143E+02 -1.87335E+04  8.17104E+03 -2.32607E+04  1.58003E+04 -1.30084E+04
  1.09150E+04  5.89362E+03 -9.36480E+03  1.31372E+04 -2.21659E+04 -5.80959E+03 -8.21709E+03 -3.62973E+04
  2.44699E+04 -4.57315E+04  5.07592E+04 -2.04812E+04  4.71439E+04  2.03842E+04  1.67760E+04  4.58976E+04
 -1.64152E+04  3.49285E+04 -2.68995E+04  2.44885E+03 -1.06330E+04 -2.88355E+04  2.13880E+04 -3.59772E+04
  4.34174E+04 -1.00192E+04  3.80415E+04  2.41485E+04  2.00333E+04  4.89711E+04 -8.14871E+03  5.34981E+04
 -3.40811E+04  3.63671E+04 -4.54501E+04  1.02184E+04 -4.55336E+04 -1.78794E+04 -2.49747E+04 -4.04608E+04
  7.80543E+03 -4.08058E+04  3.34059E+04 -1.61831E+04  3.10224E+04  1.12673E+04  4.48520E+03  2.01772E+04
 -1.41901E+04  9.16667E+03 -1.06982E+04 -7.41733E+03  5.47517E+03 -1.11495E+04  1.85762E+04  5.97680E+03
  1.41762E+04  2.25596E+04 -5.49498E+03  2.63565E+04 -2.28156E+04  1.31736E+04 -3.01608E+04 -3.43951E+03
 -2.37456E+04 -1.82047E+04 -1.01667E+04 -2.30144E+04  4.11204E+03 -2.32438E+04  1.83061E+04 -2.07787E+04
  2.94082E+04 -1.35072E+04  3.59138E+04  3.95170E+03  2.58202E+04  2.25080E+04  4.48703E+03  3.93848E+04
 -1.92021E+04  3.22561E+04 -2.92866E+04  1.11969E+04 -2.21560E+04 -1.02677E+04 -4.41326E+03 -1.32588E+04
  1.05879E+03 -1.58845E+03 -6.50057E+03  7.30689E+03 -1.87056E+04  5.25329E+03 -1.84857E+04 -8.47325E+03
 -1.12341E+04 -2.12736E+04  5.57631E+03 -2.58086E+04  1.74925E+04 -1.83262E+04  2.07212E+04 -1.60227E+03
  1.32315E+04  1.47175E+04 -1.21796E+03  2.13622E+04 -1.52632E+04  1.25578E+04 -2.15323E+04 -4.39173E+03
 -1.62825E+04 -1.93839E+04 -2.32939E+03 -2.57930E+04  1.16366E+04 -2.14762E+04  2.12415E+04 -1.09159E+04
  2.02457E+04 -4.26929E+02  1.48211E+04  4.93731E+03  7.93532E+03  8.78229E+02  1.13119E+04 -1.64147E+03
  2.01299E+04  2.65410E+03  2.28050E+04  1.70839E+04  1.53541E+04  3.47397E+04 -2.74790E+03  4.01086E+04
 -2.28971E+04  3.30565E+04 -3.76673E+04  1.69088E+04 -4.01858E+04 -2.24791E+03 -3.29186E+04 -2.30800E+04
 -1.33878E+04 -3.33850E+04  1.16436E+04 -2.97876E+04  2.53186E+04 -1.42989E+04  2.17738E+04  6.78567E+03
  7.57695E+03  1.71916E+04 -1.03235E+04  1.43864E+04 -1.84200E+04  2.59353E+03 -1.45979E+04 -1.15456E+04
 -6.59126E+02 -1.75763E+04  9.51986E+03 -1.31602E+04  1.22175E+04 -1.25857E+03  3.02345E+03  7.90334E+03
 -7.79868E+03  3.39482E+03 -7.83245E+03 -6.83264E+03 -1.07516E+03 -1.62787E+04  1.08525E+04 -1.73187E+04
  2.04309E+04 -9.91749E+03  2.29007E+04  3.09533E+03  1.96481E+04  1.61084E+04  8.74651E+03  2.52004E+04
 -4.66023E+03  2.72169E+04 -1.79584E+04  1.70981E+04 -1.98354E+04  3.66985E+03 -1.37007E+04 -4.87717E+03
 -5.81948E+03 -5.95796E+03 -8.18005E+02  7.88249E+02 -3.03285E+03  3.07656E+03 -6.38822E+03  4.71398E+03
 -1.24550E+04 -8.97505E+02 -1.32457E+04 -1.04870E+04 -5.43247E+03 -1.71664E+04  5.44582E+03 -1.40122E+04
  1.18254E+04 -6.01177E+03  8.16454E+03  3.56583E+03  2.38228E+02  5.19735E+03 -6.56959E+03 -3.40520E+02
 -6.65113E+03 -8.58095E+03 -1.23228E+03 -1.33382E+04  8.11990E+03 -1.42625E+04  1.74846E+04 -7.62987E+03
  2.01612E+04  2.23804E+03  1.51994E+04  1.22138E+04  3.01811E+03  1.61983E+04 -8.52798E+03  1.35336E+04
 -1.13756E+04  3.69226E+03 -5.49867E+03 -3.00942E+03  1.96149E+03 -3.76731E+03  7.55666E+03 -9.07320E+02
  6.80284E+03  5.48178E+03  1.18034E+03  1.12216E+04 -7.50586E+03  1.07093E+04 -1.34070E+04  2.45965E+03
 -9.03655E+03 -7.00258E+03  1.97151E+02 -1.17367E+04  7.45067E+03 -5.84383E+03  7.60340E+03  2.93939E+03
  1.76675E+03  8.12155E+03 -6.73465E+03  9.98470E+03 -1.12426E+04  4.49199E+03 -1.13665E+04 -3.89138E+03
 -6.75054E+03 -1.31086E+04  3.26567E+03 -1.51285E+04  1.30858E+04 -9.39116E+03  1.40972E+04  2.28319E+03
  8.79869E+03  1.12289E+04 -1.08283E+03  1.34837E+04 -9.63641E+03  8.21278E+03 -1.05165E+04 -1.46093E+03
 -9.51097E+03 -8.91196E+03 -1.62436E+03 -1.02175E+04  5.17468E+03 -8.10797E+03  6.48590E+03 -3.29078E+03
  4.28112E+03  1.41542E+03 -9.04421E+02  1.82456E+03 -2.87608E+02 -2.72830E+03  2.04695E+03 -5.82392E+03
  9.78879E+03 -3.80879E+03  1.30657E+04  1.42225E+03  1.29465E+04  8.65166E+03  9.03054E+03  1.74988E+04
 -4.04296E+03  1.96794E+04 -1.66345E+04  1.45256E+04 -2.11573E+04  2.50650E+03 -1.75887E+04 -7.12248E+03
 -8.75393E+03 -1.43575E+04 -4.31454E+02 -1.20195E+04  4.46848E+03 -6.36126E+03  4.03232E+03 -4.29089E+03
  3.32277E+03 -2.81494E+03  3.32537E+03 -3.37689E+03  4.88974E+03 -2.69935E+03  6.79655E+03 -1.16453E+03
  8.88865E+03  1.77720E+03  4.40140E+03  7.47566E+03 -1.97202E+03  8.67456E+03 -9.34844E+03  7.12952E+03
 -1.17170E+04 -1.23700E+03 -7.60470E+03 -8.49228E+03 -8.70448E+02 -1.27777E+04  7.52778E+03 -1.26155E+04
  1.29659E+04 -7.02372E+03  1.56782E+04  2.16803E+03  1.13555E+04  1.12151E+04  1.88226E+03  1.46801E+04
 -5.85171E+03  1.23238E+04 -8.27079E+03  4.49386E+03 -5.76204E+03 -1.40822E+03 -2.30589E+03 -1.54460E+03
 -1.03637E+03 -4.42044E+01 -1.75074E+03  2.46168E+03 -5.17682E+03  1.76554E+03 -8.68603E+03 -1.52469E+03
 -5.61905E+03 -8.22870E+03  1.53273E+02 -1.15060E+04  7.08173E+03 -1.10257E+04  1.13780E+04 -3.09195E+03
  1.16991E+04  5.91683E+03  5.34462E+03  1.02828E+04 -2.37193E+03  1.17949E+04 -8.02150E+03  7.39602E+03
 -1.11024E+04  2.99323E+02 -8.77596E+03 -6.63189E+03 -6.56887E+02 -9.66171E+03  4.70556E+03 -7.27618E+03
  7.51753E+03 -2.69100E+03  4.76611E+03  2.20477E+03  2.12957E+03  3.52650E+03  1.01343E+03  1.73583E+03
  2.20115E+03  6.50065E+02  3.21992E+03  1.66340E+03  3.57473E+03  4.04649E+03  2.81838E+03  6.22733E+03
 -2.41816E+03  9.10734E+03 -7.82753E+03  9.47808E+03 -1.16838E+04  2.68734E+03 -1.19739E+04 -4.61243E+03
 -5.98308E+03 -1.13139E+04  2.13076E+03 -1.29300E+04  7.11884E+03 -7.90572E+03  9.26013E+03 -1.99988E+03
  7.44521E+03  4.56341E+03  1.45330E+03  6.48953E+03 -3.27666E+03  4.17054E+03 -4.33180E+03 -4.94005E+02
 -2.01690E+03 -4.67794E+03  2.58866E+03 -5.20227E+03  4.63817E+03 -2.61071E+03  4.39119E+03  9.15420E+02
  2.57352E+03  2.26556E+03  1.73215E+03  1.88270E+03 -4.37868E+02  1.55273E+03  1.27827E+03 -9.41606E+02
  1.60667E+03 -4.06513E+02  4.60912E+03  1.69459E+03  2.85087E+03  6.45145E+03 -1.03603E+03  8.09139E+03
 -5.38466E+03  5.33785E+03 -7.19449E+03  1.88263E+03 -6.62545E+03 -2.53333E+03 -2.37979E+03 -4.38261E+03
  7.96722E+02 -4.27099E+03  3.00092E+03 -2.21317E+03  2.29183E+03  2.45465E+03 -1.09957E+03  3.69245E+03
 -4.59637E+03  2.51005E+03 -5.39437E+03 -2.99734E+03 -3.36180E+03 -6.32913E+03  9.61670E+02 -5.78423E+03
  3.22193E+03 -3.81528E+03  4.49668E+03 -2.82715E+02  3.85245E+03  1.21714E+03  6.60270E+02  3.34653E+03
 -2.04859E+03  6.33364E+02 -2.77801E+03 -1.88758E+03  1.16640E+03 -5.16029E+03  5.74481E+03 -3.48689E+03
  6.82030E+03  5.91785E+02  7.10386E+03  4.65788E+03  2.53251E+03  7.20536E+03 -2.53284E+03  6.69731E+03
 -5.73896E+03  2.88237E+03 -6.14227E+03 -8.25943E+02 -3.79875E+03 -4.70958E+03  1.24928E+03 -4.56266E+03
  4.78451E+03 -2.36183E+03  3.89174E+03  2.28953E+03  8.84080E+02  3.91267E+03 -4.83751E+02  3.78750E+03
 -1.89034E+03  2.47548E+03 -1.48778E+03  7.40541E+02 -3.14739E+02  6.55911E+02 -1.30616E+03  1.62300E+03
 -2.22900E+03  2.61832E+03 -4.68969E+03  2.32549E+03 -7.07977E+03 -6.14921E+01 -8.24778E+03 -4.70487E+03
 -4.10317E+03 -9.68912E+03  1.86044E+03 -1.08253E+04  6.81779E+03 -8.81298E+03  1.04201E+04 -3.48900E+03
  9.60283E+03  1.54727E+03  5.67064E+03  6.76443E+03  2.28565E+02  7.54658E+03 -2.77226E+03  5.49723E+03
 -4.08796E+03  2.10141E+03 -2.66941E+03 -5.26203E+02 -8.87605E+02 -9.85304E+02 -9.79431E+02  7.66846E+01
 -1.47496E+03  1.82816E+02 -1.93451E+03 -7.06125E+01 -3.27059E+02 -2.26581E+03 -3.24003E+02 -2.76347E+03
  3.23614E+03 -2.18867E+03  4.34427E+03 -5.55894E+01  4.83602E+03  4.30806E+03  1.35665E+03  7.00192E+03
 -3.77486E+03  8.29976E+03 -7.85203E+03  4.83316E+03 -8.79036E+03 -8.34551E+02 -6.43573E+03 -5.25941E+03
 -2.79940E+03 -7.29616E+03  1.67790E+03 -6.68319E+03  4.40536E+03 -3.50214E+03  4.45304E+03  2.87905E+02
  2.67336E+03  2.04842E+03  1.97729E+02  1.87414E+03 -1.66770E+03 -7.21612E+01  2.53139E+02 -1.72488E+03
  2.11970E+03 -9.20884E+02  2.73688E+03  1.32488E+03  2.07957E+03  3.46438E+03  3.15523E+02  3.50804E+03
 -3.00036E+03  3.55124E+03 -4.79105E+03  7.37918E+02 -4.22907E+03 -3.17030E+03 -8.65953E+02 -5.72603E+03
  3.28232E+03 -5.07657E+03  5.45006E+03 -1.72188E+03  5.58681E+03  1.05784E+03  3.06538E+03  4.64955E+03
  8.65508E+02  4.47757E+03 -1.46452E+03  3.64719E+03 -3.11354E+03  2.25496E+03 -2.44339E+03  4.53468E+02
 -1.21574E+03 -3.47861E+02 -1.78325E+03  8.69746E+02 -2.46628E+03  8.22527E+02 -3.83008E+03 -9.46994E+02
 -3.55703E+03 -2.13147E+03 -1.22758E+03 -4.93545E+03  2.20486E+03 -5.25624E+03  3.85854E+03 -2.44689E+03
  4.73905E+03  6.07082E+02  2.05882E+03  3.49838E+03  1.44363E+02  4.42673E+03 -2.92994E+03  2.88908E+03
