 $NMID ID='MM_0lb_SNR800_19hz_g45_41.RAW', FMTDAT='(8E13.5)'
 TRAMP=1., VOLUME=1. $END
  3.09949E+05  4.26509E+02  3.37384E+05  2.50296E+05  8.44503E+04  3.37273E+05 -1.32462E+05  2.50195E+05
 -1.89777E+05  8.22798E+04 -1.10482E+05 -3.27925E+04  1.47885E+03 -5.05228E+04  5.37665E+04  3.59784E+02
  3.48313E+04  5.28919E+04 -1.71163E+04  7.48335E+04 -6.01448E+04  6.26266E+04 -8.25666E+04  3.14927E+04
 -7.95362E+04 -1.11376E+04 -5.62966E+04 -5.02420E+04 -1.49443E+04 -6.81043E+04  2.65728E+04 -4.48513E+04
  3.90158E+04  4.15125E+03  1.53943E+04  4.72457E+04 -3.36797E+04  4.58927E+04 -6.50192E+04 -5.93542E+02
 -5.16111E+04 -5.58416E+04 -6.34621E+03 -7.49800E+04  3.29009E+04 -5.28261E+04  4.58674E+04 -1.61068E+04
  4.13969E+04  1.11024E+04  3.03692E+04  2.40931E+04  1.56996E+04  2.84723E+04 -4.38136E+03  2.67893E+04
 -2.16057E+04  1.26695E+04 -1.91655E+04 -3.79699E+03  4.07911E+03 -7.67272E+03  2.09967E+04  1.09522E+04
  7.31862E+03  3.28421E+04 -2.99224E+04  3.37976E+04 -6.08490E+04  2.04870E+03 -5.51340E+04 -4.10165E+04
 -1.26405E+04 -6.05496E+04  3.81169E+04 -4.29532E+04  5.50468E+04 -1.99814E+03  3.13530E+04  3.02826E+04
 -6.41844E+03  3.25309E+04 -2.77845E+04  1.28632E+04 -2.73275E+04 -5.44692E+03 -1.37683E+04 -9.92438E+03
 -7.38638E+03 -1.10828E+04 -9.96342E+02 -1.63414E+04  6.56979E+03 -2.25530E+04  1.48524E+04 -1.40082E+04
  1.22533E+04  3.99194E+03 -6.01461E+03  1.31248E+04 -1.88915E+04 -2.18265E+03 -8.11474E+03 -3.01241E+04
  2.07529E+04 -4.00843E+04  4.39746E+04 -1.84507E+04  4.18056E+04  1.79221E+04  1.40684E+04  4.13629E+04
 -1.51454E+04  3.09542E+04 -2.29725E+04  1.25858E+03 -7.88499E+03 -2.59950E+04  2.05653E+04 -3.10845E+04
  3.73471E+04 -6.93557E+03  3.09601E+04  2.26928E+04  1.51020E+04  4.21124E+04 -7.75537E+03  4.43602E+04
 -2.79565E+04  2.92429E+04 -3.64423E+04  8.13710E+03 -3.76510E+04 -1.49384E+04 -2.09858E+04 -3.41488E+04
  6.90020E+03 -3.37235E+04  2.89510E+04 -1.25217E+04  2.63458E+04  1.10879E+04  2.91929E+03  1.76030E+04
 -1.29439E+04  7.28807E+03 -9.61017E+03 -7.69121E+03  5.78548E+03 -1.00382E+04  1.71699E+04  6.58555E+03
  1.21233E+04  2.11166E+04 -6.67531E+03  2.30379E+04 -2.15642E+04  9.01255E+03 -2.48906E+04 -6.52698E+03
 -1.64174E+04 -1.61388E+04 -5.22830E+03 -1.62515E+04  3.76886E+03 -1.38183E+04  1.17962E+04 -1.37052E+04
  2.04341E+04 -1.16225E+04  2.74655E+04  7.72897E+02  2.08980E+04  1.59046E+04  4.09409E+03  3.20630E+04
 -1.57404E+04  2.72208E+04 -2.55287E+04  9.37738E+03 -1.94481E+04 -1.04223E+04 -3.72555E+03 -1.38344E+04
  2.45948E+03 -4.37328E+03 -2.45466E+03  5.20635E+03 -1.24631E+04  5.33067E+03 -1.27772E+04 -4.75067E+03
 -8.50836E+03 -1.50494E+04  4.40741E+03 -1.87383E+04  1.20395E+04 -1.38950E+04  1.38879E+04 -1.65285E+03
  8.55511E+03  1.05138E+04 -6.61768E+02  1.53060E+04 -9.89319E+03  8.55053E+03 -1.50070E+04 -3.41243E+03
 -1.11408E+04 -1.37658E+04 -1.35287E+03 -1.84735E+04  8.18927E+03 -1.49598E+04  1.56487E+04 -6.93647E+03
  1.41346E+04  9.84202E+02  1.00600E+04  3.72934E+03  4.83691E+03  3.24079E+02  7.36059E+03 -1.24788E+03
  1.35127E+04  2.79275E+03  1.42982E+04  1.22698E+04  8.25226E+03  2.42556E+04 -3.07876E+03  2.58045E+04
 -1.53128E+04  1.94946E+04 -2.34373E+04  9.24790E+03 -2.37854E+04 -1.75692E+03 -2.07415E+04 -1.35812E+04
 -9.64223E+03 -1.93604E+04  6.48322E+03 -1.84865E+04  1.57786E+04 -1.06618E+04  1.50241E+04  3.18799E+03
  6.62585E+03  1.10161E+04 -6.55060E+03  1.01458E+04 -1.28474E+04  2.67642E+03 -1.02448E+04 -7.73340E+03
 -4.94391E+01 -1.20459E+04  6.04847E+03 -9.18265E+03  7.46278E+03 -1.17670E+03  1.24715E+03  4.82881E+03
 -5.42179E+03  1.34350E+03 -3.52593E+03 -4.27276E+03  9.16702E+02 -9.86072E+03  7.65274E+03 -9.89073E+03
  1.14984E+04 -4.34150E+03  1.14257E+04  2.71215E+03  9.84312E+03  8.83690E+03  4.41526E+03  1.32786E+04
 -1.58307E+03  1.52284E+04 -9.26525E+03  9.46306E+03 -1.06813E+04  3.07137E+03 -8.13612E+03 -1.66741E+03
 -4.27811E+03 -3.02165E+03 -8.25428E+02  1.53039E+03 -2.02762E+03  2.10531E+03 -3.55469E+03  3.71371E+03
 -7.55446E+03 -4.96245E+02 -8.42512E+03 -7.05019E+03 -3.22034E+03 -1.10479E+04  3.39691E+03 -8.02793E+03
  6.89942E+03 -3.48305E+03  5.02343E+03  2.02980E+03  5.84207E+02  3.06952E+03 -3.21091E+03 -2.19100E+01
 -3.43270E+03 -5.19246E+03 -8.09733E+02 -6.85371E+03  3.70925E+03 -7.38606E+03  9.52808E+03 -3.71935E+03
  1.13680E+04  5.18829E+02  8.18577E+03  5.66970E+03  1.66312E+03  8.01008E+03 -4.97176E+03  8.02585E+03
 -6.72157E+03  2.65509E+03 -3.56657E+03 -1.41861E+03  1.39332E+03 -1.57145E+03  4.58278E+03 -7.68744E+02
  4.00182E+03  3.12692E+03  8.73540E+02  6.08108E+03 -4.43668E+03  6.21212E+03 -7.54928E+03  1.94562E+03
 -4.57275E+03 -3.51470E+03 -1.21930E+01 -6.29600E+03  3.46931E+03 -3.10895E+03  3.37530E+03  1.12713E+03
  4.49952E+02  2.94297E+03 -3.71015E+03  4.53123E+03 -4.31877E+03  2.27288E+03 -4.15312E+03 -1.08123E+03
 -2.60778E+03 -5.74936E+03  1.01338E+03 -6.42029E+03  5.47187E+03 -4.18997E+03  5.99737E+03  8.59115E+02
  4.29254E+03  5.08350E+03  4.37589E+02  6.82794E+03 -4.69328E+03  3.72864E+03 -4.97881E+03 -3.25080E+02
 -5.52394E+03 -4.69161E+03 -1.11893E+03 -4.74022E+03  2.15030E+03 -4.72089E+03  2.73125E+03 -2.90939E+03
  2.93088E+03  1.80422E+02  1.35059E+02  1.43556E+03  5.94750E+02 -2.50591E+02  1.75645E+02 -1.49086E+03
  3.79042E+03 -5.80500E+02  4.69387E+03  6.09973E+02  5.01601E+03  2.77936E+03  5.08870E+03  6.64066E+03
 -9.59132E+02  7.92992E+03 -7.02087E+03  6.44552E+03 -9.07128E+03  1.12235E+03 -7.40644E+03 -2.27267E+03
 -3.91531E+03 -6.09907E+03 -1.59338E+02 -4.56389E+03  2.10006E+03 -1.94643E+03  1.66709E+03 -2.04430E+03
  1.25410E+03 -1.26643E+03  2.12363E+03 -2.17236E+03  3.31359E+03 -1.05506E+03  3.42523E+03  3.97137E+02
  4.17836E+03  1.20215E+03  1.10026E+03  3.27343E+03 -1.69770E+03  2.55683E+03 -4.36834E+03  2.28827E+03
 -4.72264E+03 -6.55882E+02 -1.35974E+03 -2.84380E+03  5.90181E+02 -4.30275E+03  2.96035E+03 -4.88737E+03
  4.71326E+03 -3.22826E+03  6.26397E+03  1.17963E+02  4.79707E+03  3.80185E+03  9.81217E+02  5.71385E+03
 -1.98917E+03  5.74227E+03 -3.28335E+03  1.70194E+03 -1.78928E+03 -1.01557E+03 -4.58776E+02 -4.83362E+02
 -6.09122E+02  4.63652E+02 -7.37679E+02  1.95372E+03 -2.28200E+03  7.13324E+02 -4.01223E+03 -3.00784E+02
 -1.59962E+03 -3.92734E+03  1.09769E+03 -4.27954E+03  2.47101E+03 -4.12650E+03  3.03681E+03 -8.63895E+02
  3.74290E+03  2.13513E+03  1.69475E+03  2.82798E+03 -6.66754E+02  4.11473E+03 -2.41206E+03  2.41280E+03
 -3.69909E+03  9.19446E+02 -3.41005E+03 -2.33748E+03 -5.69891E+01 -3.07070E+03  1.32865E+03 -2.37991E+03
  2.39819E+03 -1.49459E+03  1.74890E+03  1.39715E+02  3.87694E+02  1.83925E+03  8.44652E+02  4.98823E+02
  1.64209E+03  6.44586E+02  1.24432E+03  9.75656E+02  9.85813E+02  2.26582E+03  1.42702E+03  1.62762E+03
 -1.37627E+03  2.62649E+03 -2.17783E+03  3.73233E+03 -2.65483E+03  1.08678E+03 -4.04961E+03 -6.74935E+01
 -1.69098E+03 -3.23418E+03  4.99804E+02 -4.62063E+03  1.63233E+03 -2.31484E+03  2.46409E+03 -5.27848E+02
  2.22819E+03  1.52317E+03  3.66863E+02  1.89020E+03 -5.95882E+02  1.19983E+03 -6.33537E+02 -1.84411E+02
 -8.32587E+02 -1.33847E+03  1.02227E+03 -1.34151E+03  1.19122E+03 -9.19948E+02  1.09420E+03  1.40195E+02
  4.78034E+02  1.76574E+02  9.24329E+02 -6.00664E+02 -4.00647E+02  6.42447E+02  1.60838E+03 -2.48834E+02
  1.92777E+01 -1.47659E+02  1.69719E+03  6.38733E+02  2.21441E+02  2.10700E+03 -1.52322E+02  2.46672E+03
 -1.54410E+03  9.43870E+02 -1.60666E+03  2.97717E+02 -1.86247E+03 -5.14569E+02 -2.75901E+01 -5.18121E+02
  3.69300E+02 -8.89734E+02  8.90674E+02 -5.95655E+02  7.54732E+02  1.28685E+03 -6.32304E+02  1.10749E+03
 -1.57602E+03  7.55477E+02 -1.09519E+03 -1.18280E+03 -6.43107E+02 -2.17978E+03  1.03925E+02 -1.44881E+03
  2.78845E+02 -3.41560E+02  6.42416E+02  3.48294E+02  1.15869E+03 -1.41744E+02  6.49364E+02  1.08144E+03
 -2.89528E+02  1.68947E+01 -8.84377E+02  2.46842E+02  7.39626E+02 -7.26883E+02  1.60859E+03 -7.97965E+02
  9.76644E+02  8.60310E+01  2.51709E+03  4.62255E+02  1.22005E+03  1.53052E+03 -2.56035E+01  1.64248E+03
 -1.14014E+03 -8.49754E+01 -1.38196E+03 -1.26160E+02 -6.63607E+02 -1.17454E+03  4.17900E+02 -3.94853E+02
  1.24681E+03 -5.77224E+02  6.06983E+02  5.73715E+02  1.67827E+02  1.25854E+03  3.74116E+02  9.93107E+02
 -9.18544E+01  7.61657E+02 -4.70534E+02  1.46254E+02  3.84074E+00  4.97653E+02 -7.89775E+02  6.15141E+02
 -2.75742E+02  8.08856E+02 -1.81413E+03  3.30429E+02 -1.49119E+03  1.26738E+02 -2.10695E+03 -6.97342E+02
 -8.80081E+02 -2.02062E+03  4.07258E+02 -2.24575E+03  6.71932E+02 -2.28929E+03  2.63661E+03 -1.10268E+03
  1.97323E+03 -3.65580E+01  1.18474E+03  1.38573E+03 -5.97674E+02  1.33762E+03 -2.87748E+02  1.02086E+03
 -6.02225E+02  6.76119E+02 -4.03088E+02 -2.10334E+02 -3.11708E+02  2.01448E+02 -4.97364E+02  2.57873E+02
 -1.08730E+03  8.04937E+01 -9.70005E+02  1.04948E+02  3.70480E+02 -4.00219E+02 -3.54593E+02 -6.31814E+02
  1.27622E+03 -7.22186E+02  3.39142E+02  1.37432E+02  1.05035E+03  7.88685E+02 -4.82810E+02  1.25257E+03
 -8.25107E+02  1.95392E+03 -1.27513E+03  1.19043E+03 -1.33765E+03 -1.65741E+02 -1.22003E+03 -1.24478E+03
 -1.09621E+03 -1.29217E+03  4.36670E+02 -1.00807E+03  5.01737E+02 -6.59789E+02  6.31913E+02  2.17866E+02
  4.33836E+02  4.83324E+02 -1.25888E+02  3.40922E+02 -2.90797E+02  8.99932E+01 -1.45751E+02 -2.97095E+02
  4.74912E+02  2.17259E+02  3.00855E+02  4.39742E+02 -1.42631E+02  3.66708E+02  3.72121E+02  1.07980E+02
 -2.57421E+02  7.16165E+02 -3.12088E+02 -3.78654E+01 -6.77651E+02 -2.99619E+02  2.40726E+02 -1.07612E+03
  2.52869E+02 -7.45734E+02  4.52235E+02  4.77868E+01  9.10267E+02 -6.40146E+02  2.01077E+02  7.83871E+02
  5.40276E+02  5.75093E+02 -4.80040E+02  5.84441E+02 -4.59994E+02  6.61765E+02 -3.53009E+02 -5.13091E+01
 -1.58824E+02 -9.75356E+01 -6.23161E+02  3.31035E+02 -6.40387E+02  2.68027E+02 -8.03858E+02 -8.99669E+01
 -8.88248E+02  3.45619E+02 -2.31974E+02 -9.17857E+02  4.82988E+02 -1.59217E+03  6.40341E+02 -4.22701E+02
  7.77958E+02 -1.66307E+02 -5.36006E+02  8.58638E+01 -5.68110E+02  7.13832E+02 -1.32516E+02  5.60857E+02
