 $NMID ID='MM_0lb_SNR800_19hz_g40_24.RAW', FMTDAT='(8E13.5)'
 TRAMP=1., VOLUME=1. $END
  3.09784E+05  3.60159E+02  3.37192E+05  2.50396E+05  8.41149E+04  3.37078E+05 -1.32356E+05  2.49768E+05
 -1.89483E+05  8.24343E+04 -1.10609E+05 -3.27917E+04  1.61884E+03 -5.01337E+04  5.40508E+04  2.10083E+02
  3.51183E+04  5.29909E+04 -1.70927E+04  7.45944E+04 -5.99871E+04  6.18813E+04 -8.25768E+04  3.12571E+04
 -7.90435E+04 -1.09547E+04 -5.58981E+04 -4.97541E+04 -1.47682E+04 -6.78468E+04  2.64458E+04 -4.43783E+04
  3.84582E+04  3.99665E+03  1.52889E+04  4.70484E+04 -3.37954E+04  4.57953E+04 -6.50748E+04 -4.31280E+02
 -5.15111E+04 -5.58405E+04 -6.13254E+03 -7.45014E+04  3.28582E+04 -5.23496E+04  4.56044E+04 -1.60586E+04
  4.09597E+04  1.09672E+04  3.02996E+04  2.42876E+04  1.55620E+04  2.78308E+04 -4.35404E+03  2.65697E+04
 -2.12198E+04  1.28004E+04 -1.92240E+04 -4.03081E+03  3.88372E+03 -7.91294E+03  2.06654E+04  1.04380E+04
  7.50729E+03  3.24295E+04 -2.98444E+04  3.34541E+04 -6.04948E+04  1.99438E+03 -5.49655E+04 -4.07655E+04
 -1.23666E+04 -5.99970E+04  3.76122E+04 -4.26460E+04  5.45508E+04 -1.72816E+03  3.11553E+04  3.00021E+04
 -6.67268E+03  3.20247E+04 -2.80050E+04  1.26467E+04 -2.67908E+04 -5.56869E+03 -1.37713E+04 -9.67820E+03
 -7.20174E+03 -1.09275E+04 -1.17713E+03 -1.61195E+04  6.46583E+03 -2.21968E+04  1.46478E+04 -1.40319E+04
  1.23328E+04  3.98816E+03 -5.68412E+03  1.29795E+04 -1.86129E+04 -2.02390E+03 -7.95211E+03 -2.93575E+04
  2.03127E+04 -3.94924E+04  4.35522E+04 -1.81369E+04  4.09042E+04  1.78154E+04  1.38151E+04  4.08373E+04
 -1.52174E+04  3.03821E+04 -2.29145E+04  9.55289E+02 -7.68934E+03 -2.60628E+04  2.04813E+04 -3.05050E+04
  3.70052E+04 -6.80080E+03  3.03652E+04  2.22744E+04  1.47312E+04  4.16946E+04 -7.85406E+03  4.36486E+04
 -2.76599E+04  2.88692E+04 -3.60162E+04  8.06343E+03 -3.71850E+04 -1.46612E+04 -2.08845E+04 -3.34695E+04
  6.55419E+03 -3.30051E+04  2.83857E+04 -1.20540E+04  2.60414E+04  1.07525E+04  2.56061E+03  1.74134E+04
 -1.31058E+04  6.90986E+03 -9.57238E+03 -7.39540E+03  6.01073E+03 -9.66831E+03  1.68179E+04  6.63716E+03
  1.22357E+04  2.14467E+04 -7.06549E+03  2.28371E+04 -2.12165E+04  8.65247E+03 -2.42957E+04 -6.46276E+03
 -1.57638E+04 -1.60272E+04 -5.36736E+03 -1.56735E+04  3.44089E+03 -1.30846E+04  1.17198E+04 -1.33111E+04
  2.01014E+04 -1.12753E+04  2.71151E+04  6.22018E+02  2.05999E+04  1.52992E+04  3.93767E+03  3.15671E+04
 -1.55355E+04  2.67728E+04 -2.54448E+04  9.19443E+03 -1.93159E+04 -1.03996E+04 -4.10936E+03 -1.41477E+04
  2.89561E+03 -4.37691E+03 -2.31816E+03  4.93001E+03 -1.20612E+04  5.12077E+03 -1.25848E+04 -4.29102E+03
 -8.66788E+03 -1.45118E+04  4.31826E+03 -1.83265E+04  1.15764E+04 -1.35029E+04  1.35591E+04 -1.44317E+03
  8.42907E+03  1.02356E+04 -6.39645E+02  1.48070E+04 -9.51811E+03  8.14547E+03 -1.44573E+04 -3.39831E+03
 -1.09022E+04 -1.33554E+04 -1.06817E+03 -1.79940E+04  8.09758E+03 -1.45394E+04  1.53519E+04 -7.00124E+03
  1.36367E+04  6.79837E+02  9.83744E+03  3.73645E+03  4.97225E+03  4.09774E+02  6.90751E+03 -1.25901E+03
  1.30247E+04  2.65661E+03  1.35969E+04  1.25185E+04  8.36199E+03  2.36683E+04 -3.20970E+03  2.49592E+04
 -1.46885E+04  1.83836E+04 -2.27353E+04  8.87056E+03 -2.31666E+04 -1.64694E+03 -1.98573E+04 -1.29075E+04
 -9.86006E+03 -1.84912E+04  6.25986E+03 -1.75856E+04  1.54222E+04 -1.06966E+04  1.43868E+04  3.38766E+03
  6.49200E+03  1.00673E+04 -6.74094E+03  9.75635E+03 -1.22552E+04  2.93544E+03 -1.01626E+04 -7.49031E+03
  1.51948E+01 -1.19449E+04  5.70537E+03 -9.06129E+03  7.25900E+03 -1.43823E+03  1.34856E+03  4.71263E+03
 -5.12846E+03  1.30721E+03 -3.24980E+03 -4.30806E+03  8.71926E+02 -9.72186E+03  7.55812E+03 -9.04449E+03
  1.11107E+04 -4.34832E+03  1.08143E+04  2.78692E+03  9.05585E+03  8.65540E+03  4.56507E+03  1.28330E+04
 -1.48076E+03  1.44700E+04 -8.56476E+03  9.22131E+03 -1.01968E+04  2.94681E+03 -7.82868E+03 -1.58704E+03
 -4.23293E+03 -2.99910E+03 -9.39169E+02  1.73045E+03 -1.83430E+03  2.07569E+03 -3.35961E+03  3.35041E+03
 -7.56762E+03 -6.02712E+02 -8.07066E+03 -6.85857E+03 -3.31407E+03 -1.10100E+04  3.38411E+03 -8.00015E+03
  6.94660E+03 -3.57519E+03  4.78646E+03  1.91193E+03  6.96522E+02  2.70924E+03 -2.96446E+03 -1.23920E+02
 -2.99425E+03 -4.94985E+03 -6.44335E+02 -6.49606E+03  3.56685E+03 -7.27148E+03  9.16445E+03 -3.58722E+03
  1.07125E+04  4.73530E+02  8.26525E+03  5.61387E+03  1.69589E+03  7.72230E+03 -4.99988E+03  7.74174E+03
 -6.65602E+03  2.35926E+03 -3.48335E+03 -1.36854E+03  1.31748E+03 -1.72212E+03  4.28943E+03 -8.12165E+02
  4.06466E+03  3.01707E+03  1.15659E+03  6.29321E+03 -4.09210E+03  5.99158E+03 -7.51526E+03  1.74912E+03
 -4.17889E+03 -3.50544E+03  4.89817E+02 -6.13707E+03  3.06478E+03 -2.73997E+03  2.94546E+03  6.93928E+02
  2.92163E+02  2.87460E+03 -3.68876E+03  4.07795E+03 -4.37978E+03  2.26158E+03 -3.89327E+03 -8.68798E+02
 -2.58238E+03 -5.36936E+03  9.79663E+02 -6.11031E+03  5.26317E+03 -4.44130E+03  5.88796E+03  7.47709E+02
  4.22946E+03  4.77369E+03  2.30116E+02  6.69961E+03 -4.74135E+03  3.72255E+03 -4.59712E+03 -4.99520E+02
 -5.32114E+03 -4.91207E+03 -1.43835E+03 -4.98801E+03  2.20272E+03 -4.65133E+03  2.46590E+03 -2.95764E+03
  2.58496E+03  1.68336E+02  2.23668E+02  1.52450E+03  5.62096E+02 -6.83181E+01 -2.74270E+01 -1.44287E+03
  3.44900E+03 -3.77073E+02  4.62311E+03  3.52272E+02  4.94430E+03  2.70196E+03  5.13109E+03  6.29632E+03
 -9.03731E+02  7.57589E+03 -7.12003E+03  5.97204E+03 -9.16353E+03  1.02748E+03 -6.97295E+03 -2.12814E+03
 -4.02909E+03 -6.10971E+03 -4.19017E+02 -4.71008E+03  1.85122E+03 -1.65353E+03  1.46387E+03 -1.85509E+03
  1.07674E+03 -1.72618E+03  2.06787E+03 -2.16488E+03  3.49833E+03 -1.19519E+03  3.27337E+03  7.35195E+02
  4.15287E+03  1.19353E+03  9.57129E+02  3.00084E+03 -1.48312E+03  2.40765E+03 -4.22299E+03  2.44753E+03
 -4.44520E+03 -1.04998E+03 -1.27874E+03 -3.00592E+03  4.53695E+02 -4.48526E+03  2.91479E+03 -4.86593E+03
  4.40773E+03 -2.99807E+03  6.05621E+03  3.47942E+02  4.27241E+03  4.15358E+03  1.02965E+03  5.50176E+03
 -1.79286E+03  5.56951E+03 -2.91548E+03  1.81738E+03 -1.62219E+03 -1.12628E+03 -4.33737E+02 -4.21628E+02
 -3.61946E+02  7.12513E+02 -1.14364E+03  1.92322E+03 -2.45576E+03  9.62954E+02 -4.03743E+03 -1.66964E+02
 -1.30503E+03 -3.94760E+03  9.00500E+02 -4.24694E+03  2.44601E+03 -3.82830E+03  2.97448E+03 -7.47292E+02
  4.00807E+03  2.09710E+03  1.67683E+03  2.69696E+03 -5.79785E+02  3.74678E+03 -2.35873E+03  2.43913E+03
 -3.49939E+03  7.78551E+02 -2.90846E+03 -2.03234E+03 -2.57801E+02 -2.88138E+03  1.44257E+03 -2.12328E+03
  2.56982E+03 -1.24855E+03  1.47419E+03  2.55964E+02  3.54552E+02  1.64417E+03  7.38446E+02  4.62768E+02
  1.74370E+03  4.02956E+02  1.02189E+03  1.08908E+03  8.98626E+02  2.07054E+03  1.09701E+03  1.63094E+03
 -1.32165E+03  2.72722E+03 -2.29224E+03  3.75504E+03 -2.43692E+03  1.04349E+03 -4.11142E+03 -3.41394E+02
 -1.31584E+03 -3.37831E+03  1.40862E+02 -4.42336E+03  1.58508E+03 -2.23938E+03  2.81147E+03 -8.86143E+02
  2.16609E+03  1.63295E+03  2.84747E+02  2.18103E+03 -6.94832E+02  1.13671E+03 -8.64359E+02 -2.99260E+02
 -2.27168E+02 -1.52409E+03  1.14055E+03 -1.07211E+03  1.11762E+03 -6.40481E+02  1.37993E+03  2.62307E+02
  8.47683E+02  3.97657E+01  6.86220E+02 -2.41496E+02 -1.74859E+02  8.54732E+02  1.52934E+03  6.50782E+01
  8.64068E+00 -1.20951E+02  1.59926E+03  4.43226E+02  2.95426E+02  2.20720E+03 -3.42324E+02  2.73680E+03
 -1.73110E+03  9.68486E+02 -1.58095E+03  4.53410E+02 -2.00420E+03 -5.35652E+02  8.61781E+01 -7.20535E+02
  5.09383E+02 -1.05525E+03  7.65829E+02 -4.55767E+02  5.72524E+02  1.21974E+03 -6.75187E+02  8.40861E+02
 -1.61925E+03  5.32407E+02 -8.42580E+02 -1.30116E+03 -5.54543E+02 -1.86132E+03  2.51610E+02 -1.28173E+03
  3.07168E+02 -2.97474E+02  7.29369E+02 -1.14567E+02  1.05688E+03 -2.65538E+02  2.05902E+02  1.24354E+03
 -1.55482E+02  3.41020E+01 -7.32261E+02 -2.24337E+02  4.77183E+02 -6.92108E+02  1.73179E+03 -6.32211E+02
  9.50958E+02  1.56910E+02  2.54095E+03  4.36054E+02  1.10111E+03  1.44622E+03 -8.25536E+01  1.58393E+03
 -1.48100E+03  9.16558E+01 -1.16234E+03  1.96852E+02 -6.90718E+02 -1.18688E+03  3.66425E+02 -4.75868E+02
  1.19747E+03 -6.68958E+02  8.26914E+02  5.16249E+02  3.13671E+02  1.50134E+03  2.31097E+02  1.10947E+03
 -3.40624E+02  1.07886E+03 -2.44799E+02  2.82622E+02  1.55840E+02  2.98851E+02 -5.12436E+02  5.69581E+02
 -4.80720E+02  8.48822E+02 -1.73987E+03  4.70936E+02 -1.41160E+03  4.25663E+02 -2.64883E+03 -9.06667E+02
 -9.61870E+02 -1.94716E+03  4.68834E+02 -2.61507E+03  8.56234E+02 -2.14233E+03  2.65601E+03 -9.68172E+02
  2.01836E+03 -3.36954E+02  9.26420E+02  1.57031E+03 -5.07458E+02  1.40983E+03 -6.60017E+02  1.06943E+03
 -1.06017E+03  6.28474E+02 -2.22591E+02 -3.56717E+02 -2.58738E+02  2.43553E+02 -7.16616E+02  6.77021E+01
 -1.09488E+03 -2.70442E+02 -6.17015E+02 -1.91981E+02  4.01072E+02 -4.66899E+02 -4.01712E+02 -6.39697E+02
  1.19853E+03 -4.57297E+02  2.00136E+02  2.70560E+02  8.33407E+02  8.40596E+02 -5.94453E+02  1.02703E+03
 -9.87310E+02  2.13026E+03 -1.25007E+03  1.39567E+03 -1.48897E+03 -1.03137E+02 -8.80441E+02 -1.03315E+03
 -1.15057E+03 -1.27550E+03  3.08353E+01 -1.00800E+03  5.11935E+02 -4.18349E+02  5.41360E+02  2.71853E+02
  5.33258E+02  2.46417E+02  2.81743E+02  1.92693E+02 -4.28457E+02 -4.94069E+01 -2.28963E+02 -3.57440E+02
  4.11586E+02  2.02441E+02  1.34196E+02  4.99399E+02 -7.72125E+00  2.10125E+02  3.78263E+02  2.41667E+02
 -3.10060E+02  8.40051E+02 -3.48065E+02  2.38085E+02 -5.77019E+02 -5.53615E+02 -8.65715E+00 -1.16306E+03
  4.20235E+02 -7.21989E+02  4.03184E+02  1.18656E+02  9.69875E+02 -4.88840E+02  3.33114E+02  6.72829E+02
  4.53952E+02  4.39154E+02  1.43740E+01  5.88828E+02 -3.77665E+02  5.09124E+02 -7.05306E+02  2.61459E+02
 -2.45097E+02  5.69419E+01 -5.79225E+02  1.69261E+02 -4.86675E+02  1.17828E+02 -6.25280E+02 -2.21859E+02
 -7.57201E+02  4.30406E+02 -4.87864E+02 -8.69536E+02  8.03837E+02 -1.67671E+03  9.44656E+02 -2.72566E+02
  8.03882E+02  1.57508E+02 -2.06191E+02 -8.61267E+01 -1.93933E+02  6.98588E+02 -3.39315E+02  6.26213E+02
