 $NMID ID='MM_0lb_SNR800_15hz_g50_4.RAW', FMTDAT='(8E13.5)'
 TRAMP=1., VOLUME=1. $END
  3.09861E+05  6.66100E+02  3.37684E+05  2.50789E+05  8.46450E+04  3.37934E+05 -1.32569E+05  2.50948E+05
 -1.90396E+05  8.29657E+04 -1.11632E+05 -3.26380E+04  9.20101E+02 -5.03640E+04  5.38642E+04 -5.55561E+01
  3.53329E+04  5.28691E+04 -1.66583E+04  7.55482E+04 -6.06420E+04  6.33505E+04 -8.38082E+04  3.17669E+04
 -8.04779E+04 -1.13896E+04 -5.70518E+04 -5.12485E+04 -1.51776E+04 -6.92992E+04  2.73981E+04 -4.57267E+04
  3.99423E+04  3.86733E+03  1.58645E+04  4.76942E+04 -3.44702E+04  4.72056E+04 -6.65583E+04 -3.20353E+02
 -5.30106E+04 -5.66004E+04 -6.66798E+03 -7.67108E+04  3.38479E+04 -5.47771E+04  4.72165E+04 -1.72708E+04
  4.30199E+04  1.14189E+04  3.13844E+04  2.52064E+04  1.58748E+04  2.91582E+04 -5.33797E+03  2.71440E+04
 -2.20532E+04  1.23340E+04 -1.90303E+04 -4.73138E+03  5.38231E+03 -7.13367E+03  2.20271E+04  1.19718E+04
  7.47269E+03  3.49016E+04 -3.19111E+04  3.55274E+04 -6.29506E+04  2.14569E+03 -5.67513E+04 -4.26026E+04
 -1.23714E+04 -6.27014E+04  3.95402E+04 -4.49169E+04  5.77618E+04 -2.27894E+03  3.39223E+04  3.21427E+04
 -6.14323E+03  3.58216E+04 -2.98044E+04  1.54065E+04 -2.98961E+04 -4.38247E+03 -1.60806E+04 -1.11150E+04
 -8.20416E+03 -1.30941E+04 -5.67915E+02 -1.80587E+04  7.32768E+03 -2.27575E+04  1.54241E+04 -1.34523E+04
  1.14494E+04  5.05090E+03 -7.90123E+03  1.30608E+04 -2.08791E+04 -4.07971E+03 -8.35499E+03 -3.29387E+04
  2.22451E+04 -4.27513E+04  4.73688E+04 -1.93621E+04  4.45501E+04  1.91417E+04  1.54789E+04  4.39313E+04
 -1.61107E+04  3.29512E+04 -2.52019E+04  1.60643E+03 -9.37872E+03 -2.74869E+04  2.10843E+04 -3.34234E+04
  4.02973E+04 -8.77274E+03  3.47955E+04  2.36873E+04  1.76071E+04  4.58703E+04 -8.03402E+03  4.91603E+04
 -3.13014E+04  3.30904E+04 -4.08878E+04  9.26645E+03 -4.18522E+04 -1.60967E+04 -2.28636E+04 -3.75287E+04
  7.14331E+03 -3.73364E+04  3.10247E+04 -1.45678E+04  2.87296E+04  1.06834E+04  3.83363E+03  1.88014E+04
 -1.36344E+04  8.07684E+03 -1.05026E+04 -7.80598E+03  5.64107E+03 -1.05889E+04  1.78787E+04  6.16465E+03
  1.34496E+04  2.22060E+04 -6.21777E+03  2.46446E+04 -2.21636E+04  1.09650E+04 -2.70908E+04 -5.12610E+03
 -2.00347E+04 -1.69898E+04 -7.68308E+03 -1.98511E+04  3.81972E+03 -1.85219E+04  1.51435E+04 -1.75971E+04
  2.54389E+04 -1.28011E+04  3.17029E+04  2.57080E+03  2.30004E+04  1.87818E+04  4.32569E+03  3.52422E+04
 -1.77378E+04  2.97990E+04 -2.79374E+04  1.04080E+04 -2.05860E+04 -1.02081E+04 -4.10183E+03 -1.34826E+04
  1.97200E+03 -2.99763E+03 -4.64783E+03  6.41610E+03 -1.52918E+04  5.20589E+03 -1.54731E+04 -6.63663E+03
 -9.74136E+03 -1.83633E+04  5.07753E+03 -2.23761E+04  1.47583E+04 -1.59681E+04  1.75745E+04 -1.56040E+03
  1.09939E+04  1.27784E+04 -7.55484E+02  1.81311E+04 -1.23760E+04  1.02319E+04 -1.82230E+04 -3.86322E+03
 -1.34754E+04 -1.64733E+04 -2.01627E+03 -2.22221E+04  1.04351E+04 -1.81713E+04  1.85732E+04 -9.03104E+03
  1.73246E+04  3.66974E+02  1.22237E+04  4.37758E+03  6.59311E+03  1.19159E+03  9.31206E+03 -1.90299E+03
  1.68271E+04  2.58056E+03  1.85501E+04  1.46376E+04  1.17095E+04  2.93485E+04 -2.67238E+03  3.25932E+04
 -1.90171E+04  2.59916E+04 -3.02318E+04  1.31391E+04 -3.17049E+04 -2.43669E+03 -2.63779E+04 -1.81539E+04
 -1.16254E+04 -2.61049E+04  9.11503E+03 -2.36947E+04  2.06490E+04 -1.23776E+04  1.84864E+04  5.05514E+03
  7.11333E+03  1.36241E+04 -8.97952E+03  1.23613E+04 -1.56242E+04  2.72927E+03 -1.23193E+04 -9.53704E+03
 -1.52298E+02 -1.47333E+04  7.83812E+03 -1.10959E+04  9.70400E+03 -1.19897E+03  1.80338E+03  5.92596E+03
 -6.98257E+03  2.27352E+03 -5.47601E+03 -5.38533E+03 -1.77108E+02 -1.30424E+04  8.95814E+03 -1.33490E+04
  1.56862E+04 -6.71224E+03  1.67835E+04  2.97306E+03  1.45545E+04  1.24073E+04  6.66685E+03  1.91606E+04
 -2.89825E+03  2.08683E+04 -1.34756E+04  1.32324E+04 -1.50510E+04  3.40586E+03 -1.05700E+04 -3.07957E+03
 -5.12558E+03 -4.59775E+03 -7.37838E+02  9.60456E+02 -2.00534E+03  2.63277E+03 -5.01687E+03  3.97638E+03
 -1.00728E+04 -6.03254E+02 -1.08741E+04 -8.64004E+03 -4.29147E+03 -1.39290E+04  4.28474E+03 -1.05350E+04
  8.80097E+03 -4.59952E+03  6.51585E+03  2.77422E+03  5.23886E+02  3.83167E+03 -4.67210E+03  6.36488E+00
 -5.03826E+03 -6.77997E+03 -1.14608E+03 -9.95819E+03  5.64487E+03 -1.09387E+04  1.31401E+04 -5.36222E+03
  1.53531E+04  1.59001E+03  1.13031E+04  8.63372E+03  2.45558E+03  1.20619E+04 -6.59842E+03  1.08205E+04
 -8.56570E+03  3.36207E+03 -4.51090E+03 -1.73520E+03  1.60093E+03 -2.65304E+03  5.74578E+03 -9.10913E+02
  4.72529E+03  4.51493E+03  1.29071E+03  8.23576E+03 -5.84900E+03  8.24237E+03 -1.01337E+04  2.51229E+03
 -6.48200E+03 -5.35408E+03  3.24688E+02 -8.93425E+03  5.41398E+03 -4.48695E+03  5.42176E+03  1.81224E+03
  6.84989E+02  5.47141E+03 -5.23956E+03  6.87384E+03 -7.54555E+03  3.41230E+03 -7.64071E+03 -2.55337E+03
 -4.35362E+03 -9.04117E+03  1.91509E+03 -1.01836E+04  8.87720E+03 -6.61857E+03  9.38552E+03  1.73484E+03
  6.10832E+03  7.71664E+03 -4.49996E+02  9.95612E+03 -7.25253E+03  5.57860E+03 -7.63602E+03 -8.67819E+02
 -7.36112E+03 -6.33880E+03 -1.41188E+03 -6.95636E+03  3.84294E+03 -6.07219E+03  4.37470E+03 -3.07332E+03
  3.49141E+03  7.17023E+02 -2.31895E+02  1.23028E+03  3.83820E+02 -1.25451E+03  8.77281E+02 -3.28565E+03
  5.98484E+03 -2.00397E+03  8.50494E+03  1.12549E+03  8.51645E+03  5.52272E+03  6.70931E+03  1.09590E+04
 -2.22377E+03  1.29767E+04 -1.08733E+04  9.34019E+03 -1.44910E+04  1.76980E+03 -1.13580E+04 -4.61023E+03
 -6.09185E+03 -9.73082E+03 -7.11888E+02 -7.73959E+03  3.04559E+03 -4.03856E+03  2.64941E+03 -3.04989E+03
  1.94628E+03 -1.93181E+03  2.97921E+03 -2.67502E+03  4.36075E+03 -1.92971E+03  4.75034E+03  1.91108E+02
  6.23340E+03  1.74493E+03  2.29249E+03  5.07413E+03 -1.86169E+03  5.16132E+03 -6.21748E+03  4.20126E+03
 -7.69058E+03 -1.18780E+03 -3.77152E+03 -5.48944E+03 -3.74359E+02 -7.70922E+03  4.64574E+03 -8.19877E+03
  8.17369E+03 -4.64130E+03  1.02983E+04  6.68132E+02  7.33827E+03  6.69097E+03  1.25926E+03  8.89560E+03
 -3.46139E+03  8.52102E+03 -5.19292E+03  2.78932E+03 -3.22105E+03 -1.18777E+03 -9.58063E+02 -8.49431E+02
 -9.16130E+02  1.01474E+02 -1.17462E+03  2.37766E+03 -3.42997E+03  1.61684E+03 -5.86814E+03 -4.05569E+02
 -2.80398E+03 -5.53199E+03  6.37200E+02 -7.49402E+03  4.25300E+03 -6.86295E+03  6.60828E+03 -2.19087E+03
  7.04418E+03  3.56197E+03  3.12017E+03  5.95972E+03 -1.37571E+03  7.13284E+03 -4.69403E+03  4.57996E+03
 -6.44232E+03  6.07709E+02 -5.17779E+03 -4.14623E+03 -7.27182E+02 -5.53833E+03  2.87933E+03 -4.08796E+03
  4.29308E+03 -1.75957E+03  2.81335E+03  1.25077E+03  9.63524E+02  2.32109E+03  8.89525E+02  1.10069E+03
  1.78728E+03  7.28395E+02  1.84948E+03  1.25363E+03  1.54978E+03  2.86832E+03  2.09872E+03  3.60132E+03
 -1.86806E+03  5.26360E+03 -4.35566E+03  6.04230E+03 -6.09765E+03  1.54872E+03 -7.16444E+03 -1.78079E+03
 -2.91263E+03 -6.30127E+03  1.04167E+03 -7.65328E+03  3.38996E+03 -4.34151E+03  5.39001E+03 -1.61178E+03
  4.06588E+03  2.53225E+03  7.05013E+02  3.77043E+03 -1.55454E+03  2.45595E+03 -2.27747E+03 -2.78215E+02
 -7.91383E+02 -2.44839E+03  1.85538E+03 -2.61906E+03  2.36002E+03 -1.63702E+03  2.39643E+03  7.56935E+02
  1.24166E+03  9.05350E+02  1.05639E+03  4.71926E+02 -3.80851E+02  1.10285E+03  1.67926E+03 -3.31501E+02
  5.79032E+02 -4.49313E+02  2.53711E+03  1.07399E+03  1.08233E+03  3.69273E+03 -5.78520E+02  4.81767E+03
 -2.97952E+03  2.31852E+03 -3.64942E+03  6.02326E+02 -3.56699E+03 -1.59090E+03 -9.15713E+02 -2.13258E+03
  5.04017E+02 -2.17729E+03  1.63016E+03 -1.27521E+03  1.24728E+03  1.57912E+03 -8.48774E+02  1.95754E+03
 -2.35836E+03  1.05085E+03 -2.54943E+03 -1.86110E+03 -1.53716E+03 -3.93984E+03  3.87792E+02 -3.23603E+03
  1.49996E+03 -1.53459E+03  1.82978E+03 -1.79165E+01  2.30663E+03  5.72240E+02  2.41652E+02  1.99861E+03
 -1.04801E+03  6.59522E+02 -1.48890E+03 -8.45682E+02  9.96659E+02 -2.23938E+03  2.90947E+03 -1.77553E+03
  3.45655E+03  2.98975E+02  4.23546E+03  1.71417E+03  1.51134E+03  3.24120E+03 -8.85698E+02  3.30113E+03
 -2.93336E+03  9.27040E+02 -3.00156E+03 -2.99623E+02 -1.37163E+03 -2.20106E+03  7.37582E+02 -1.68351E+03
  2.59222E+03 -1.37517E+03  2.14387E+03  9.51529E+02  5.88491E+02  2.01497E+03 -2.01937E+02  1.64593E+03
 -9.38064E+02  1.53196E+03 -9.09750E+02  4.58519E+02  1.61141E+02  4.11535E+02 -9.12562E+02  1.04805E+03
 -1.06388E+03  1.43746E+03 -2.71147E+03  8.75950E+02 -3.26535E+03  3.04981E+02 -4.06887E+03 -2.23731E+03
 -2.03923E+03 -4.61429E+03  9.40191E+02 -5.43987E+03  2.94759E+03 -4.33105E+03  5.08424E+03 -1.72742E+03
  4.82691E+03  4.03163E+02  2.78519E+03  3.06206E+03 -8.29063E+01  3.46148E+03 -1.66925E+03  2.42169E+03
 -1.90952E+03  1.27474E+03 -1.30951E+03 -4.20879E+02 -3.39549E+02  1.83256E+02 -4.62994E+02 -1.28499E+02
 -1.22640E+03 -1.68681E+02 -1.38919E+03 -1.03178E+02 -1.23435E+02 -1.32675E+03 -5.38562E+02 -1.31396E+03
  1.98870E+03 -1.30131E+03  1.66664E+03 -1.17192E+02  2.46728E+03  1.89456E+03  7.46260E+01  3.18621E+03
 -1.71361E+03  4.38181E+03 -3.39911E+03  2.26761E+03 -3.72212E+03 -3.82083E+02 -2.96402E+03 -2.28532E+03
 -1.58689E+03 -3.51241E+03  7.92427E+02 -2.94379E+03  1.66294E+03 -1.53112E+03  1.85692E+03  5.15848E+02
  1.01762E+03  9.30958E+02  1.02215E+02  7.40570E+02 -5.62086E+02  2.83475E+02  8.24048E+01 -4.42960E+02
  9.63389E+02 -1.32688E+02  8.46034E+02  8.10378E+02  1.08055E+03  1.05858E+03  5.12908E+02  1.24137E+03
 -1.37336E+03  1.27712E+03 -1.52579E+03  3.16063E+02 -1.85814E+03 -1.05170E+03 -2.61837E+02 -2.64926E+03
  1.31477E+03 -1.70311E+03  1.84400E+03 -6.25272E+02  2.27243E+03  2.77108E+02  1.29322E+03  1.90526E+03
  5.89845E+02  1.62772E+03 -4.97898E+02  1.49144E+03 -1.55191E+03  9.47918E+02 -6.96394E+02  1.24370E+02
 -5.93923E+02 -1.94035E+01 -5.74374E+02  5.73904E+02 -7.99668E+02  6.92920E+02 -1.93673E+03 -1.32437E+02
 -1.84917E+03 -3.22311E+02 -7.55725E+02 -1.83091E+03  1.06225E+03 -2.58644E+03  1.68456E+03 -7.03229E+02
  1.77492E+03  2.87328E+02  5.84897E+02  1.15689E+03 -2.07242E+02  1.81740E+03 -1.22783E+03  1.14041E+03
