 $NMID ID='MM_0lb_SNR800_16hz_g45_99.RAW', FMTDAT='(8E13.5)'
 TRAMP=1., VOLUME=1. $END
  3.09836E+05  6.47388E+02  3.37901E+05  2.50289E+05  8.47003E+04  3.37331E+05 -1.32736E+05  2.50688E+05
 -1.89971E+05  8.25623E+04 -1.11323E+05 -3.30406E+04  1.36130E+03 -5.04500E+04  5.39354E+04 -4.03304E+01
  3.54077E+04  5.28446E+04 -1.67080E+04  7.51427E+04 -6.03790E+04  6.32634E+04 -8.33283E+04  3.16489E+04
 -8.05275E+04 -1.08550E+04 -5.63986E+04 -5.06099E+04 -1.50865E+04 -6.89434E+04  2.69805E+04 -4.53032E+04
  3.94890E+04  3.88673E+03  1.58269E+04  4.73515E+04 -3.41626E+04  4.68120E+04 -6.61341E+04 -3.65477E+02
 -5.26201E+04 -5.62023E+04 -6.51698E+03 -7.59078E+04  3.35884E+04 -5.38974E+04  4.69716E+04 -1.66654E+04
  4.25220E+04  1.12259E+04  3.12558E+04  2.49422E+04  1.58191E+04  2.89154E+04 -5.12848E+03  2.69600E+04
 -2.19550E+04  1.27024E+04 -1.89146E+04 -4.61247E+03  4.92795E+03 -7.40305E+03  2.20170E+04  1.14701E+04
  7.16280E+03  3.41028E+04 -3.13743E+04  3.46434E+04 -6.23028E+04  2.19610E+03 -5.60920E+04 -4.16914E+04
 -1.23457E+04 -6.18079E+04  3.88890E+04 -4.41099E+04  5.68314E+04 -1.96649E+03  3.28587E+04  3.12467E+04
 -6.69373E+03  3.44853E+04 -2.92837E+04  1.45971E+04 -2.86382E+04 -4.85141E+03 -1.55953E+04 -1.06693E+04
 -8.07639E+03 -1.22050E+04 -7.68516E+02 -1.75137E+04  7.10550E+03 -2.29855E+04  1.53386E+04 -1.35029E+04
  1.19940E+04  4.62437E+03 -6.85570E+03  1.29549E+04 -1.98367E+04 -3.58102E+03 -7.99376E+03 -3.22687E+04
  2.15060E+04 -4.19801E+04  4.65015E+04 -1.89405E+04  4.34520E+04  1.88651E+04  1.48905E+04  4.27739E+04
 -1.54223E+04  3.22723E+04 -2.44293E+04  1.28121E+03 -8.66022E+03 -2.70601E+04  2.08388E+04 -3.27438E+04
  3.94407E+04 -8.02398E+03  3.29472E+04  2.31144E+04  1.65976E+04  4.44215E+04 -7.88801E+03  4.78470E+04
 -2.96823E+04  3.17164E+04 -3.93750E+04  8.94501E+03 -4.01214E+04 -1.58528E+04 -2.23616E+04 -3.61334E+04
  7.27653E+03 -3.57525E+04  3.00045E+04 -1.35033E+04  2.82217E+04  1.09030E+04  3.45851E+03  1.84331E+04
 -1.34326E+04  7.76702E+03 -9.80823E+03 -7.74424E+03  6.04183E+03 -1.03728E+04  1.77649E+04  5.96961E+03
  1.25710E+04  2.17138E+04 -6.45640E+03  2.39420E+04 -2.19359E+04  1.00314E+04 -2.65012E+04 -5.79748E+03
 -1.85796E+04 -1.70325E+04 -7.03468E+03 -1.85172E+04  3.76214E+03 -1.70826E+04  1.41358E+04 -1.63454E+04
  2.32590E+04 -1.20721E+04  3.04055E+04  1.67589E+03  2.25857E+04  1.81062E+04  4.31609E+03  3.41544E+04
 -1.69346E+04  2.90825E+04 -2.69740E+04  9.91452E+03 -2.02263E+04 -1.02994E+04 -4.19034E+03 -1.37629E+04
  2.32689E+03 -3.31823E+03 -4.00207E+03  5.98593E+03 -1.44006E+04  5.40926E+03 -1.50338E+04 -5.80738E+03
 -9.24369E+03 -1.66976E+04  5.03776E+03 -2.09747E+04  1.37591E+04 -1.52671E+04  1.62723E+04 -1.31046E+03
  1.02514E+04  1.20385E+04 -1.06012E+03  1.72385E+04 -1.13598E+04  9.77556E+03 -1.72963E+04 -3.96876E+03
 -1.27725E+04 -1.57035E+04 -1.83571E+03 -2.09042E+04  9.41850E+03 -1.65757E+04  1.75176E+04 -8.31794E+03
  1.61678E+04  7.59710E+02  1.15941E+04  4.27233E+03  5.95268E+03  6.83619E+02  8.69362E+03 -1.72561E+03
  1.55443E+04  2.36445E+03  1.71358E+04  1.38976E+04  1.06850E+04  2.71534E+04 -3.04752E+03  3.00984E+04
 -1.76189E+04  2.37984E+04 -2.80117E+04  1.17413E+04 -2.90354E+04 -2.17695E+03 -2.44863E+04 -1.65944E+04
 -1.09132E+04 -2.38291E+04  8.22289E+03 -2.18445E+04  1.87117E+04 -1.15729E+04  1.70666E+04  4.24574E+03
  6.89302E+03  1.24979E+04 -8.03675E+03  1.17053E+04 -1.47864E+04  2.56637E+03 -1.12800E+04 -8.70819E+03
  3.01214E+01 -1.38542E+04  7.13151E+03 -1.04171E+04  8.82200E+03 -1.65480E+03  2.15050E+03  5.73063E+03
 -6.23143E+03  2.08661E+03 -4.66131E+03 -5.19448E+03  3.22399E+02 -1.20198E+04  8.48927E+03 -1.20848E+04
  1.44062E+04 -5.92307E+03  1.46368E+04  2.76997E+03  1.29974E+04  1.10665E+04  5.90140E+03  1.70052E+04
 -2.68086E+03  1.88962E+04 -1.14698E+04  1.20334E+04 -1.36182E+04  3.02863E+03 -9.77435E+03 -2.49669E+03
 -5.01895E+03 -3.88658E+03 -8.02107E+02  1.10088E+03 -1.82020E+03  2.25901E+03 -4.28828E+03  3.99326E+03
 -9.31404E+03 -4.71940E+02 -9.98269E+03 -8.24109E+03 -3.95478E+03 -1.28816E+04  3.92679E+03 -9.74853E+03
  7.92293E+03 -4.35037E+03  5.80359E+03  2.50846E+03  3.42558E+02  3.80032E+03 -4.14396E+03 -1.74855E+02
 -4.05431E+03 -6.00402E+03 -9.91966E+02 -8.71789E+03  4.75039E+03 -9.61099E+03  1.17054E+04 -5.07209E+03
  1.39112E+04  1.01048E+03  1.04041E+04  7.63354E+03  2.26064E+03  1.03987E+04 -6.28728E+03  9.58447E+03
 -8.00854E+03  3.18387E+03 -4.14888E+03 -1.48765E+03  1.27522E+03 -1.92237E+03  5.23676E+03 -8.40883E+02
  4.63303E+03  4.15340E+03  8.40281E+02  7.69714E+03 -5.22438E+03  7.45152E+03 -8.77575E+03  2.13165E+03
 -5.96519E+03 -4.39848E+03  3.00067E+02 -7.96893E+03  4.63437E+03 -3.88520E+03  4.80575E+03  1.25676E+03
  9.03456E+02  4.44096E+03 -4.86966E+03  6.23797E+03 -6.06123E+03  3.22276E+03 -6.15014E+03 -1.70849E+03
 -3.87810E+03 -7.69965E+03  1.99510E+03 -8.97710E+03  7.75064E+03 -5.56505E+03  8.06973E+03  1.22692E+03
  5.52230E+03  6.72550E+03 -2.01251E+02  8.62491E+03 -6.35059E+03  5.10083E+03 -6.61417E+03 -5.94086E+02
 -6.75731E+03 -5.79299E+03 -1.63772E+03 -6.11979E+03  3.38254E+03 -5.29448E+03  3.87062E+03 -3.14811E+03
  3.16623E+03  5.08730E+02  2.32155E+01  1.17135E+03  3.83598E+02 -8.84494E+02  5.34052E+02 -2.81627E+03
  4.99319E+03 -1.53535E+03  6.77126E+03  5.86661E+02  7.08473E+03  4.30814E+03  6.24484E+03  9.42322E+03
 -1.81585E+03  1.14945E+04 -9.87599E+03  8.21150E+03 -1.24409E+04  1.38255E+03 -9.85916E+03 -3.84607E+03
 -5.43376E+03 -8.15234E+03 -5.75166E+02 -6.54504E+03  2.53744E+03 -3.06414E+03  2.19091E+03 -2.45146E+03
  1.74448E+03 -1.74528E+03  2.27670E+03 -2.62751E+03  3.93434E+03 -1.67863E+03  4.57061E+03  7.01908E+01
  5.41897E+03  1.40117E+03  2.02191E+03  4.48865E+03 -1.66440E+03  3.94559E+03 -5.59047E+03  3.50233E+03
 -6.71609E+03 -1.38249E+03 -3.05297E+03 -4.66435E+03 -1.04639E+02 -6.79587E+03  4.12581E+03 -6.97280E+03
  7.16701E+03 -4.03767E+03  8.68889E+03  7.51257E+02  6.39396E+03  5.69314E+03  1.31560E+03  8.28435E+03
 -3.26517E+03  6.95505E+03 -4.53986E+03  2.50944E+03 -3.04923E+03 -1.21650E+03 -8.06960E+02 -9.52568E+02
 -3.86456E+02  2.37927E+02 -1.10024E+03  2.01246E+03 -3.26353E+03  1.28033E+03 -5.03226E+03 -4.84200E+02
 -2.68173E+03 -4.75903E+03  6.09196E+02 -6.40892E+03  3.87985E+03 -5.96006E+03  5.19839E+03 -1.51485E+03
  5.92827E+03  2.95802E+03  2.55489E+03  4.87072E+03 -1.21168E+03  6.09867E+03 -3.79507E+03  3.61987E+03
 -5.01939E+03  9.16467E+02 -4.59033E+03 -3.42705E+03 -5.50763E+02 -4.65579E+03  2.17215E+03 -3.50094E+03
  3.75007E+03 -1.53364E+03  2.30996E+03  8.61178E+02  7.85131E+02  1.98623E+03  7.12302E+02  3.62195E+02
  1.85318E+03  5.23245E+02  1.51889E+03  1.35166E+03  1.56614E+03  2.50607E+03  1.50431E+03  2.62145E+03
 -1.62342E+03  4.31820E+03 -4.08254E+03  4.94822E+03 -5.00259E+03  1.59039E+03 -5.76340E+03 -1.10339E+03
 -2.24546E+03 -5.20370E+03  9.26329E+02 -6.48682E+03  3.08604E+03 -3.77634E+03  4.51061E+03 -1.42625E+03
  3.44369E+03  2.58387E+03  5.64570E+02  3.36206E+03 -1.26014E+03  1.85572E+03 -1.72883E+03 -1.05626E+02
 -1.00994E+03 -2.34724E+03  1.23390E+03 -2.16425E+03  2.10435E+03 -1.28050E+03  1.66608E+03  5.09559E+02
  1.30051E+03  8.71841E+02  8.77708E+02  1.63361E+02 -5.48823E+02  9.20229E+02  1.60954E+03 -4.30057E+02
  4.72354E+02 -4.62319E+02  2.43343E+03  7.61530E+02  8.71668E+02  3.35623E+03 -6.62190E+02  4.08418E+03
 -2.44485E+03  1.87110E+03 -3.33832E+03  5.49062E+02 -3.08031E+03 -8.95886E+02 -8.18389E+02 -1.60931E+03
  6.89562E+02 -1.95229E+03  1.35063E+03 -1.10224E+03  9.88744E+02  1.76644E+03 -9.79663E+02  1.59262E+03
 -2.07535E+03  1.20820E+03 -1.85039E+03 -1.64936E+03 -9.86049E+02 -2.94222E+03  3.06781E+02 -2.32652E+03
  1.37667E+03 -1.07999E+03  1.50524E+03 -6.28612E+01  1.86688E+03  2.65212E+02  3.52856E+02  1.70803E+03
 -7.74835E+02  1.84535E+02 -1.36831E+03 -2.77229E+02  5.46523E+02 -1.52671E+03  2.69485E+03 -1.62220E+03
  2.49619E+03  2.72214E+02  3.30372E+03  1.60458E+03  1.28091E+03  2.85148E+03 -6.11661E+02  2.91318E+03
 -2.43686E+03  7.57779E+02 -2.47834E+03 -6.20768E+02 -1.34840E+03 -2.10362E+03  4.49315E+02 -1.56577E+03
  2.27773E+03 -9.56255E+02  1.52255E+03  1.04206E+03  5.82005E+02  1.72365E+03  5.16241E+02  1.70221E+03
 -7.90007E+02  1.61796E+03 -8.48052E+02  2.45404E+02  4.10841E+01  4.95895E+02 -8.99551E+02  6.76219E+02
 -8.53655E+02  1.55456E+03 -2.40128E+03  9.24566E+02 -2.50322E+03  1.35548E+02 -3.81250E+03 -1.49273E+03
 -1.39521E+03 -3.53976E+03  8.31895E+02 -4.55369E+03  2.15476E+03 -3.66345E+03  4.33376E+03 -1.52632E+03
  4.13671E+03  2.02819E+02  2.14460E+03  2.26772E+03 -2.60306E+02  2.59989E+03 -1.51554E+03  1.95651E+03
 -1.42522E+03  1.09111E+03 -1.06812E+03 -4.57702E+02 -5.53374E+02  4.10787E+02 -8.50626E+02  1.72911E+02
 -1.23451E+03 -2.03859E+01 -1.15706E+03 -6.48865E+01  5.63761E+01 -4.65594E+02 -1.37666E+02 -1.36034E+03
  1.64516E+03 -9.14733E+02  1.05174E+03  2.13273E+02  1.79873E+03  1.37738E+03 -3.71554E+02  2.25202E+03
 -2.02101E+03  3.36981E+03 -2.68571E+03  1.58248E+03 -3.14715E+03 -3.37462E+01 -2.15793E+03 -2.31312E+03
 -1.36573E+03 -2.45370E+03  7.01429E+02 -2.05207E+03  1.20707E+03 -1.18758E+03  1.27420E+03  1.78334E+02
  1.10293E+03  7.56273E+02  1.11080E+02  4.40165E+02 -6.37345E+02  1.31558E+01  9.98177E+01 -6.67002E+02
  5.94001E+02  8.89304E+01  5.89845E+02  6.58813E+02  2.37600E+02  9.97187E+02  2.09314E+02  1.09154E+03
 -9.36693E+02  8.96144E+02 -1.00909E+03  7.17338E+01 -1.27625E+03 -1.06276E+03 -6.96241E+01 -1.89334E+03
  1.14803E+03 -1.37381E+03  1.38660E+03 -3.82290E+02  1.77541E+03 -2.83659E+02  9.11675E+02  1.30439E+03
  5.78230E+02  1.38773E+03 -2.80185E+02  8.58784E+02 -9.91807E+02  9.95819E+02 -5.64853E+02  4.63929E+02
 -3.65602E+02 -1.89265E+02 -7.34014E+02 -3.35629E+01 -1.02385E+03  5.08784E+02 -1.04160E+03 -4.03043E+02
 -1.49605E+03 -2.03434E+02 -3.93405E+02 -1.63382E+03  9.23583E+02 -2.26075E+03  1.41634E+03 -6.14224E+02
  1.60253E+03  1.76816E+02  1.71061E+02  6.58443E+02  8.04091E+01  1.43511E+03 -6.37636E+02  1.12302E+03
