 $NMID ID='MM_0lb_SNR800_11hz_g40_58.RAW', FMTDAT='(8E13.5)'
 TRAMP=1., VOLUME=1. $END
  3.09976E+05  3.87936E+02  3.37926E+05  2.50661E+05  8.45168E+04  3.38102E+05 -1.33030E+05  2.51292E+05
 -1.90474E+05  8.33214E+04 -1.12064E+05 -3.23740E+04  2.16097E+02 -5.09418E+04  5.35308E+04 -5.59869E+01
  3.56566E+04  5.29085E+04 -1.64886E+04  7.56081E+04 -6.07613E+04  6.38004E+04 -8.43490E+04  3.20307E+04
 -8.11643E+04 -1.13625E+04 -5.76694E+04 -5.17553E+04 -1.48873E+04 -7.03477E+04  2.73537E+04 -4.59528E+04
  4.03121E+04  3.81016E+03  1.62644E+04  4.82066E+04 -3.45557E+04  4.71475E+04 -6.67743E+04 -3.19030E+01
 -5.38631E+04 -5.73899E+04 -7.03440E+03 -7.77868E+04  3.42272E+04 -5.58884E+04  4.85264E+04 -1.76166E+04
  4.38959E+04  1.09947E+04  3.24677E+04  2.57680E+04  1.59060E+04  2.99328E+04 -5.69681E+03  2.71487E+04
 -2.23581E+04  1.19413E+04 -1.85214E+04 -5.21890E+03  6.13920E+03 -7.28562E+03  2.28459E+04  1.27373E+04
  7.31393E+03  3.62862E+04 -3.28124E+04  3.61499E+04 -6.41979E+04  2.40935E+03 -5.79486E+04 -4.34973E+04
 -1.26859E+04 -6.41017E+04  4.05199E+04 -4.61694E+04  5.95573E+04 -2.44582E+03  3.52656E+04  3.30681E+04
 -6.07070E+03  3.74608E+04 -3.06041E+04  1.67401E+04 -3.14109E+04 -4.15236E+03 -1.73902E+04 -1.11519E+04
 -8.49410E+03 -1.40388E+04 -7.64495E+02 -1.86082E+04  7.64174E+03 -2.32411E+04  1.55661E+04 -1.30941E+04
  1.11708E+04  5.53326E+03 -9.14969E+03  1.29892E+04 -2.23060E+04 -5.22948E+03 -8.13110E+03 -3.52851E+04
  2.38295E+04 -4.47652E+04  4.96726E+04 -1.99959E+04  4.62221E+04  2.00979E+04  1.60419E+04  4.55514E+04
 -1.61520E+04  3.43395E+04 -2.62079E+04  2.21051E+03 -1.03712E+04 -2.85174E+04  2.12553E+04 -3.50639E+04
  4.21408E+04 -1.01441E+04  3.74879E+04  2.44975E+04  1.98388E+04  4.82619E+04 -8.16155E+03  5.28989E+04
 -3.29486E+04  3.57024E+04 -4.38808E+04  1.03233E+04 -4.46572E+04 -1.73340E+04 -2.46220E+04 -3.97388E+04
  7.63714E+03 -3.92816E+04  3.26873E+04 -1.55389E+04  3.03743E+04  1.08602E+04  4.68355E+03  2.00338E+04
 -1.36272E+04  8.79821E+03 -1.03734E+04 -7.48949E+03  5.56253E+03 -1.10197E+04  1.78437E+04  5.78249E+03
  1.40560E+04  2.18786E+04 -5.50517E+03  2.61788E+04 -2.28108E+04  1.23546E+04 -2.91274E+04 -4.31487E+03
 -2.23986E+04 -1.78423E+04 -9.66960E+03 -2.22224E+04  4.13523E+03 -2.21798E+04  1.73471E+04 -2.04725E+04
  2.85398E+04 -1.32670E+04  3.46030E+04  3.24382E+03  2.51443E+04  2.18102E+04  4.46577E+03  3.81226E+04
 -1.85120E+04  3.18400E+04 -2.87955E+04  1.14322E+04 -2.17205E+04 -1.01778E+04 -4.60254E+03 -1.31352E+04
  1.37711E+03 -1.73347E+03 -6.08173E+03  7.24385E+03 -1.78783E+04  5.08804E+03 -1.82043E+04 -8.13153E+03
 -1.12853E+04 -2.07702E+04  5.73009E+03 -2.50795E+04  1.63758E+04 -1.77386E+04  1.99934E+04 -1.61559E+03
  1.25300E+04  1.42812E+04 -9.93099E+02  2.10585E+04 -1.43544E+04  1.17060E+04 -2.09841E+04 -4.06568E+03
 -1.54760E+04 -1.90076E+04 -1.98457E+03 -2.51481E+04  1.12812E+04 -2.05239E+04  2.07766E+04 -1.06656E+04
  1.93618E+04 -1.67662E+02  1.39701E+04  4.76741E+03  7.79419E+03  1.08404E+03  1.04687E+04 -1.76150E+03
  1.94398E+04  2.95786E+03  2.16972E+04  1.64498E+04  1.46135E+04  3.33500E+04 -2.73326E+03  3.85315E+04
 -2.21708E+04  3.12920E+04 -3.59853E+04  1.60500E+04 -3.81534E+04 -2.74419E+03 -3.09229E+04 -2.24501E+04
 -1.29060E+04 -3.14133E+04  1.09690E+04 -2.81845E+04  2.42789E+04 -1.38549E+04  2.13800E+04  6.30012E+03
  7.66149E+03  1.62631E+04 -1.00922E+04  1.42384E+04 -1.78851E+04  2.49148E+03 -1.36575E+04 -1.10805E+04
  6.24584E+00 -1.71757E+04  8.66220E+03 -1.25810E+04  1.14063E+04 -1.11937E+03  2.67635E+03  7.44859E+03
 -7.78816E+03  3.47875E+03 -7.49765E+03 -6.02385E+03 -5.75238E+02 -1.56660E+04  1.04037E+04 -1.66105E+04
  1.88372E+04 -8.92742E+03  2.12150E+04  2.99046E+03  1.87630E+04  1.55038E+04  8.63284E+03  2.37983E+04
 -4.23805E+03  2.59011E+04 -1.67756E+04  1.60690E+04 -1.84467E+04  3.83667E+03 -1.25272E+04 -4.42150E+03
 -5.97257E+03 -6.26488E+03 -1.04860E+03  5.65644E+02 -2.60915E+03  2.84445E+03 -6.32354E+03  5.21551E+03
 -1.18597E+04 -9.79105E+02 -1.28326E+04 -9.88344E+03 -4.76695E+03 -1.69494E+04  5.45177E+03 -1.30972E+04
  1.06998E+04 -5.37099E+03  7.62817E+03  3.62146E+03 -3.26315E+02  5.39818E+03 -6.67318E+03 -2.40260E+02
 -6.10563E+03 -8.54270E+03 -1.21586E+03 -1.26009E+04  7.20694E+03 -1.37254E+04  1.65367E+04 -7.09652E+03
  1.98129E+04  1.79467E+03  1.42299E+04  1.13615E+04  2.93191E+03  1.61235E+04 -7.92132E+03  1.28170E+04
 -1.04582E+04  4.31518E+03 -5.50246E+03 -2.68938E+03  1.89043E+03 -3.43975E+03  6.58683E+03 -1.20021E+03
  6.15273E+03  5.69610E+03  1.24718E+03  1.05506E+04 -7.14865E+03  9.87481E+03 -1.28148E+04  2.16914E+03
 -8.93528E+03 -6.55767E+03  2.92906E+02 -1.09157E+04  6.88535E+03 -5.57330E+03  7.04250E+03  2.44390E+03
  1.43886E+03  7.89711E+03 -6.75677E+03  9.54641E+03 -1.07506E+04  4.34202E+03 -1.05614E+04 -3.29563E+03
 -6.18132E+03 -1.20137E+04  2.99357E+03 -1.41368E+04  1.20510E+04 -8.71994E+03  1.32446E+04  2.05716E+03
  7.92434E+03  1.06374E+04 -5.80331E+02  1.27393E+04 -9.44864E+03  7.06164E+03 -1.01304E+04 -1.17872E+03
 -8.89731E+03 -8.73615E+03 -1.69167E+03 -9.72116E+03  5.09904E+03 -8.34793E+03  6.06994E+03 -3.46001E+03
  4.26965E+03  1.40585E+03 -4.87023E+02  1.84034E+03  1.95855E+02 -2.56367E+03  2.14670E+03 -5.51329E+03
  9.16421E+03 -3.25571E+03  1.23685E+04  1.07303E+03  1.22105E+04  8.21383E+03  8.52736E+03  1.60813E+04
 -3.45426E+03  1.82681E+04 -1.56001E+04  1.35996E+04 -1.97902E+04  2.51623E+03 -1.59738E+04 -6.55828E+03
 -8.20550E+03 -1.31961E+04 -7.07164E+02 -1.14611E+04  4.08201E+03 -5.96303E+03  4.07754E+03 -4.22680E+03
  3.21853E+03 -2.45263E+03  2.93278E+03 -3.65558E+03  5.11030E+03 -2.74624E+03  6.27389E+03 -7.32973E+02
  8.71147E+03  1.75709E+03  4.26753E+03  7.15513E+03 -1.94434E+03  7.88516E+03 -8.92516E+03  6.34831E+03
 -1.12251E+04 -1.48411E+03 -6.31811E+03 -7.82307E+03 -7.34199E+02 -1.17344E+04  6.39695E+03 -1.20680E+04
  1.25563E+04 -6.74407E+03  1.45909E+04  1.57792E+03  1.06398E+04  1.02598E+04  1.72685E+03  1.33476E+04
 -5.54344E+03  1.13092E+04 -7.73438E+03  3.89039E+03 -5.45265E+03 -1.74172E+03 -2.21792E+03 -1.82624E+03
 -1.39041E+03 -3.32752E+02 -1.88658E+03  2.71905E+03 -4.78004E+03  1.73228E+03 -7.88455E+03 -1.13279E+03
 -5.14489E+03 -8.19574E+03  5.74811E+02 -1.05963E+04  6.71046E+03 -1.03092E+04  1.05978E+04 -3.09874E+03
  1.05520E+04  4.98089E+03  5.11445E+03  9.47022E+03 -2.11310E+03  1.09327E+04 -7.50727E+03  6.71311E+03
 -1.01449E+04  4.36697E+02 -7.86937E+03 -6.68715E+03 -1.14159E+03 -8.84829E+03  4.79534E+03 -6.91153E+03
  6.84583E+03 -2.36665E+03  4.54344E+03  1.61158E+03  1.74942E+03  3.70027E+03  1.05709E+03  1.13261E+03
  2.43215E+03  1.02086E+03  2.60657E+03  1.65651E+03  3.25413E+03  3.94273E+03  2.46151E+03  5.56804E+03
 -2.33273E+03  8.46125E+03 -7.23403E+03  9.19800E+03 -1.06461E+04  2.17520E+03 -1.17158E+04 -4.18936E+03
 -4.87135E+03 -1.09080E+04  1.50373E+03 -1.17199E+04  6.51224E+03 -7.28164E+03  8.58689E+03 -1.75145E+03
  6.91752E+03  4.26899E+03  1.50131E+03  6.24587E+03 -2.69084E+03  3.98220E+03 -4.15181E+03 -9.27236E+02
 -1.87044E+03 -4.19502E+03  2.46314E+03 -4.55048E+03  4.48925E+03 -2.36625E+03  4.33730E+03  1.18601E+03
  2.45991E+03  1.98330E+03  1.17668E+03  1.44434E+03 -5.43713E+02  1.44287E+03  1.97872E+03 -4.94174E+02
  1.52484E+03 -4.00923E+02  4.22174E+03  1.58709E+03  2.27880E+03  5.92461E+03 -6.88308E+02  7.86600E+03
 -5.20691E+03  5.00011E+03 -6.50962E+03  1.59702E+03 -6.00690E+03 -2.27636E+03 -2.27975E+03 -3.78442E+03
  7.29555E+02 -4.09427E+03  3.00754E+03 -2.08342E+03  2.24601E+03  2.55137E+03 -1.01688E+03  3.59235E+03
 -4.55135E+03  2.22265E+03 -4.98946E+03 -3.09055E+03 -2.27437E+03 -5.79891E+03  8.27412E+02 -5.57710E+03
  3.21515E+03 -2.97917E+03  4.10785E+03 -3.20988E+02  3.57522E+03  1.34269E+03  5.34358E+02  3.03679E+03
 -1.88188E+03  8.11914E+02 -2.83196E+03 -1.90036E+03  1.01677E+03 -4.42109E+03  5.35186E+03 -3.46950E+03
  6.26841E+03  1.18365E+02  6.97372E+03  4.29889E+03  2.20503E+03  6.86190E+03 -2.37621E+03  6.51566E+03
 -5.49668E+03  2.55309E+03 -5.79094E+03 -9.32091E+02 -3.34186E+03 -4.47912E+03  8.60416E+02 -3.97009E+03
  4.30078E+03 -1.96560E+03  3.80688E+03  1.94446E+03  1.02911E+03  3.69617E+03 -8.20536E+01  2.94389E+03
 -1.88524E+03  2.22727E+03 -1.28632E+03  1.09498E+03 -1.04487E+03  9.68398E+02 -9.78817E+02  1.29996E+03
 -1.82634E+03  2.68331E+03 -4.58203E+03  2.40574E+03 -6.39377E+03  3.34332E+02 -7.68646E+03 -4.47810E+03
 -3.60954E+03 -8.86863E+03  1.83097E+03 -1.04757E+04  6.05331E+03 -8.12571E+03  9.66104E+03 -3.23369E+03
  9.18772E+03  1.60105E+03  5.80067E+03  6.03016E+03  9.94502E+01  6.84155E+03 -2.74404E+03  5.30978E+03
 -4.05432E+03  2.08443E+03 -2.34472E+03 -7.31300E+02 -9.46169E+02 -6.25435E+02 -7.13429E+02  1.66428E+02
 -1.32937E+03  3.35654E+02 -1.75615E+03  1.90140E+02 -2.89389E+02 -1.69900E+03 -3.52493E+01 -2.94873E+03
  3.33637E+03 -2.08370E+03  3.76233E+03  6.55532E+01  4.47330E+03  3.57599E+03  8.19905E+02  6.43535E+03
 -3.33223E+03  7.71465E+03 -7.19632E+03  4.60652E+03 -8.06541E+03 -7.64202E+02 -6.16752E+03 -4.81888E+03
 -2.76747E+03 -6.87198E+03  1.81389E+03 -6.49496E+03  4.45746E+03 -3.43834E+03  4.03789E+03  2.22479E+02
  2.55776E+03  1.74344E+03  3.33069E+01  1.97254E+03 -1.02782E+03 -1.97219E+02 -1.12336E+02 -1.17658E+03
  1.87018E+03 -1.03388E+03  2.74835E+03  1.07723E+03  1.82779E+03  2.68276E+03 -8.56499E+01  3.33541E+03
 -2.84600E+03  3.05177E+03 -4.25450E+03  3.06471E+02 -3.95452E+03 -3.26787E+03 -7.84383E+02 -6.06652E+03
  3.34649E+03 -4.50389E+03  5.28132E+03 -1.38627E+03  4.98692E+03  1.00307E+03  2.98646E+03  3.89359E+03
  1.08333E+03  4.35202E+03 -1.38245E+03  3.83839E+03 -2.85626E+03  1.67561E+03 -2.26988E+03  3.05017E+02
 -8.36133E+02 -1.49035E+02 -1.40378E+03  4.34345E+02 -2.38007E+03  9.61257E+02 -3.59970E+03 -8.41912E+02
 -3.28190E+03 -2.17939E+03 -8.04197E+02 -4.35192E+03  2.03790E+03 -4.89985E+03  3.73399E+03 -2.04753E+03
  4.21976E+03  4.75745E+02  2.08832E+03  3.01892E+03 -6.52493E+02  4.18867E+03 -3.15905E+03  2.96406E+03
