 $NMID ID='MM_0lb_SNR800_16hz_g40_9.RAW', FMTDAT='(8E13.5)'
 TRAMP=1., VOLUME=1. $END
  3.09941E+05  4.58909E+02  3.37225E+05  2.50305E+05  8.44622E+04  3.37463E+05 -1.32403E+05  2.50356E+05
 -1.89859E+05  8.23941E+04 -1.11151E+05 -3.27221E+04  1.22969E+03 -5.03730E+04  5.37832E+04  2.81472E+02
  3.49766E+04  5.26589E+04 -1.70150E+04  7.51989E+04 -6.05080E+04  6.28702E+04 -8.34678E+04  3.15670E+04
 -8.00050E+04 -1.07599E+04 -5.66512E+04 -5.04612E+04 -1.47966E+04 -6.87917E+04  2.69437E+04 -4.50920E+04
  3.94765E+04  3.74488E+03  1.56130E+04  4.74844E+04 -3.40795E+04  4.63312E+04 -6.57334E+04 -7.99552E+02
 -5.25315E+04 -5.62566E+04 -6.65218E+03 -7.56352E+04  3.31028E+04 -5.39750E+04  4.67999E+04 -1.64570E+04
  4.22269E+04  1.11175E+04  3.09162E+04  2.49866E+04  1.58264E+04  2.86444E+04 -4.99823E+03  2.67883E+04
 -2.18968E+04  1.26649E+04 -1.89318E+04 -4.26138E+03  4.72260E+03 -7.80698E+03  2.13469E+04  1.12834E+04
  7.43899E+03  3.39417E+04 -3.08702E+04  3.45933E+04 -6.16962E+04  2.15528E+03 -5.58451E+04 -4.14538E+04
 -1.23291E+04 -6.13407E+04  3.85581E+04 -4.39998E+04  5.62907E+04 -1.91032E+03  3.24262E+04  3.11413E+04
 -6.30823E+03  3.38389E+04 -2.89832E+04  1.39861E+04 -2.85302E+04 -4.94377E+03 -1.49936E+04 -1.03582E+04
 -7.70107E+03 -1.17687E+04 -8.86888E+02 -1.70330E+04  6.88643E+03 -2.27536E+04  1.56159E+04 -1.40324E+04
  1.23420E+04  4.52530E+03 -6.85424E+03  1.29852E+04 -1.98656E+04 -2.95181E+03 -8.35808E+03 -3.12443E+04
  2.16749E+04 -4.13969E+04  4.58519E+04 -1.91455E+04  4.31126E+04  1.88119E+04  1.46257E+04  4.24362E+04
 -1.58698E+04  3.18486E+04 -2.37456E+04  1.36505E+03 -8.51478E+03 -2.67609E+04  2.06203E+04 -3.19958E+04
  3.88853E+04 -7.72410E+03  3.29036E+04  2.31217E+04  1.62644E+04  4.37285E+04 -7.81154E+03  4.69760E+04
 -2.95645E+04  3.10148E+04 -3.84948E+04  8.83131E+03 -3.96456E+04 -1.58480E+04 -2.20378E+04 -3.55971E+04
  6.66821E+03 -3.52538E+04  3.00435E+04 -1.36617E+04  2.74486E+04  1.07280E+04  3.07850E+03  1.81888E+04
 -1.31174E+04  7.40122E+03 -9.82908E+03 -7.86939E+03  5.92104E+03 -1.01615E+04  1.73888E+04  5.99569E+03
  1.29001E+04  2.17065E+04 -6.27159E+03  2.40897E+04 -2.18827E+04  1.00630E+04 -2.62217E+04 -5.65897E+03
 -1.82495E+04 -1.66344E+04 -6.59328E+03 -1.80274E+04  3.84000E+03 -1.62060E+04  1.37270E+04 -1.55322E+04
  2.26835E+04 -1.24017E+04  2.94766E+04  1.75922E+03  2.22504E+04  1.75186E+04  4.11842E+03  3.37387E+04
 -1.67250E+04  2.84816E+04 -2.66989E+04  9.94660E+03 -1.98863E+04 -1.03021E+04 -4.15470E+03 -1.39362E+04
  2.10256E+03 -3.52231E+03 -3.63533E+03  5.78684E+03 -1.37907E+04  5.35638E+03 -1.43728E+04 -5.58314E+03
 -9.24873E+03 -1.65202E+04  4.97694E+03 -2.08182E+04  1.36328E+04 -1.50527E+04  1.56805E+04 -1.84723E+03
  9.97007E+03  1.14542E+04 -1.02832E+03  1.66280E+04 -1.13675E+04  9.38141E+03 -1.65135E+04 -3.67699E+03
 -1.24432E+04 -1.51077E+04 -1.65834E+03 -2.03485E+04  9.26358E+03 -1.64859E+04  1.71837E+04 -7.79151E+03
  1.58156E+04  7.17108E+02  1.13366E+04  3.98176E+03  5.66871E+03  9.42751E+02  8.48196E+03 -1.24885E+03
  1.50676E+04  2.55996E+03  1.63325E+04  1.34841E+04  1.02256E+04  2.68536E+04 -3.08474E+03  2.93921E+04
 -1.73701E+04  2.31783E+04 -2.71926E+04  1.12662E+04 -2.77014E+04 -2.21634E+03 -2.37773E+04 -1.59527E+04
 -1.09755E+04 -2.27903E+04  7.81232E+03 -2.08822E+04  1.84327E+04 -1.15816E+04  1.65516E+04  4.23371E+03
  6.68358E+03  1.23224E+04 -7.86138E+03  1.12462E+04 -1.45439E+04  2.43941E+03 -1.11522E+04 -8.98197E+03
 -2.17233E+02 -1.34131E+04  6.69477E+03 -9.93387E+03  8.67477E+03 -1.16087E+03  1.74565E+03  5.41561E+03
 -6.17881E+03  1.58118E+03 -4.40146E+03 -4.71175E+03  4.23221E+02 -1.17954E+04  8.63867E+03 -1.15682E+04
  1.39073E+04 -5.63586E+03  1.39912E+04  2.79710E+03  1.24129E+04  1.08458E+04  5.66459E+03  1.65542E+04
 -2.44764E+03  1.83327E+04 -1.11398E+04  1.15085E+04 -1.28993E+04  3.48788E+03 -9.35429E+03 -2.45071E+03
 -4.99451E+03 -4.32764E+03 -4.36365E+02  1.47295E+03 -1.99355E+03  2.09681E+03 -4.29484E+03  4.03060E+03
 -8.83375E+03 -8.16624E+02 -9.89061E+03 -7.94438E+03 -3.89134E+03 -1.27307E+04  3.75232E+03 -9.58568E+03
  7.86456E+03 -4.16049E+03  5.75148E+03  2.47656E+03  7.75330E+02  3.46421E+03 -4.19201E+03  1.03046E+01
 -3.87889E+03 -6.05858E+03 -1.06714E+03 -8.34822E+03  4.49647E+03 -9.12020E+03  1.12942E+04 -4.58612E+03
  1.37408E+04  8.52334E+02  1.01023E+04  7.52793E+03  1.99264E+03  1.03733E+04 -5.85477E+03  9.40678E+03
 -7.79225E+03  3.17671E+03 -3.99756E+03 -1.34956E+03  1.40921E+03 -2.31162E+03  5.15147E+03 -9.94708E+02
  4.44811E+03  3.85941E+03  1.04400E+03  7.14007E+03 -4.93426E+03  6.96029E+03 -8.99904E+03  2.11132E+03
 -5.96819E+03 -4.20544E+03  1.79255E+02 -7.73022E+03  4.46131E+03 -3.80894E+03  4.39454E+03  1.57260E+03
  6.77088E+02  4.42585E+03 -4.86638E+03  5.79000E+03 -6.11523E+03  2.32875E+03 -5.93661E+03 -1.77370E+03
 -3.71665E+03 -7.36140E+03  1.78610E+03 -8.85238E+03  7.39263E+03 -5.34458E+03  7.89585E+03  1.43542E+03
  5.31105E+03  6.48143E+03 -9.74520E+01  8.64811E+03 -6.01633E+03  5.02619E+03 -6.21072E+03 -7.57263E+02
 -6.33248E+03 -5.81892E+03 -1.33721E+03 -6.04437E+03  3.20934E+03 -5.21147E+03  3.83468E+03 -2.72023E+03
  3.16541E+03  6.22410E+02 -1.26050E+02  1.39620E+03  4.19432E+02 -5.02736E+02  6.58530E+02 -2.83092E+03
  4.92529E+03 -1.42532E+03  6.99450E+03  7.99236E+02  7.04518E+03  4.14664E+03  5.70577E+03  9.52805E+03
 -1.80158E+03  1.03867E+04 -9.76826E+03  8.24614E+03 -1.24074E+04  1.33715E+03 -9.69141E+03 -3.41333E+03
 -4.96802E+03 -7.99221E+03 -4.49564E+02 -6.36437E+03  2.59032E+03 -2.85087E+03  2.22241E+03 -2.68248E+03
  1.72022E+03 -1.83422E+03  2.49008E+03 -2.45417E+03  4.05916E+03 -1.71684E+03  4.12318E+03  4.31061E+02
  5.35769E+03  1.26009E+03  1.83866E+03  4.49272E+03 -1.36786E+03  4.40719E+03 -5.32639E+03  3.81620E+03
 -6.49644E+03 -1.13083E+03 -2.91367E+03 -4.59002E+03  1.43655E+02 -6.58106E+03  3.92623E+03 -6.78390E+03
  6.59798E+03 -3.98495E+03  8.50955E+03  4.77777E+02  6.20897E+03  5.70926E+03  1.26082E+03  7.88945E+03
 -3.16750E+03  6.78272E+03 -4.26745E+03  2.13316E+03 -2.68381E+03 -7.88392E+02 -7.72427E+02 -8.37400E+02
 -7.38951E+02  2.84840E+02 -1.12569E+03  1.99272E+03 -3.13940E+03  1.12701E+03 -5.21167E+03 -5.02191E+02
 -2.45992E+03 -5.05159E+03  8.30242E+02 -6.25777E+03  3.44835E+03 -5.78870E+03  5.23327E+03 -1.55513E+03
  5.68057E+03  3.05657E+03  2.65790E+03  4.60145E+03 -9.95099E+02  5.88428E+03 -3.83675E+03  3.85964E+03
 -5.19884E+03  6.19784E+02 -4.22386E+03 -3.43151E+03 -5.53574E+02 -4.48329E+03  2.51076E+03 -3.41531E+03
  3.96173E+03 -1.38447E+03  2.46169E+03  8.85817E+02  5.99281E+02  2.17119E+03  9.53165E+02  7.72921E+02
  1.99756E+03  4.86467E+02  1.57670E+03  1.09961E+03  1.76490E+03  2.82062E+03  1.53987E+03  2.67314E+03
 -1.61608E+03  4.26699E+03 -3.80566E+03  4.99048E+03 -4.94274E+03  1.33742E+03 -5.66050E+03 -1.39423E+03
 -2.30968E+03 -5.43610E+03  6.94952E+02 -6.41691E+03  2.84061E+03 -3.67261E+03  4.25900E+03 -1.16254E+03
  3.33986E+03  2.13336E+03  3.78008E+02  2.89557E+03 -1.01742E+03  2.08011E+03 -1.90400E+03 -5.21685E+02
 -1.02202E+03 -2.02653E+03  1.29243E+03 -2.27280E+03  1.78838E+03 -1.41941E+03  2.18183E+03  6.16227E+02
  1.35335E+03  8.96822E+02  8.32642E+02  5.42023E+01 -3.93292E+02  1.04883E+03  1.52542E+03 -1.63031E+02
  2.83260E+02 -1.50080E+02  2.23403E+03  9.17386E+02  6.90969E+02  3.16457E+03 -5.82408E+02  3.98548E+03
 -2.47666E+03  1.94589E+03 -3.11230E+03  4.12797E+02 -2.93246E+03 -9.12457E+02 -4.99703E+02 -1.58242E+03
  3.00774E+02 -1.89008E+03  1.45683E+03 -8.98407E+02  8.63381E+02  1.52650E+03 -9.72496E+02  1.48628E+03
 -1.94558E+03  8.40967E+02 -2.04645E+03 -1.43449E+03 -9.94369E+02 -2.97106E+03  3.62803E+02 -2.49563E+03
  9.13351E+02 -9.66649E+02  1.41925E+03  6.38574E-01  1.89666E+03 -2.02089E+02  3.41136E+02  1.33683E+03
 -8.32665E+02  5.15348E+02 -1.16848E+03 -6.06149E+02  6.74863E+02 -1.80699E+03  2.44023E+03 -1.24196E+03
  2.52611E+03  1.34051E+02  3.66831E+03  1.23783E+03  1.46800E+03  2.78082E+03 -4.70973E+02  2.77243E+03
 -2.28145E+03  8.54082E+02 -2.60001E+03 -6.21272E+02 -9.43358E+02 -2.20340E+03  4.77603E+02 -1.20636E+03
  1.89480E+03 -1.10734E+03  1.42045E+03  1.00364E+03  3.61295E+02  2.00662E+03 -1.48960E+02  1.52011E+03
 -4.57188E+02  1.25481E+03 -7.72359E+02  2.85176E+02 -3.19736E+02  5.45494E+02 -9.37964E+02  4.68478E+02
 -7.63270E+02  1.31478E+03 -2.47385E+03  8.20429E+02 -2.80537E+03  4.11531E+02 -3.60137E+03 -1.74816E+03
 -1.60332E+03 -3.95142E+03  7.62215E+02 -4.46432E+03  1.80093E+03 -3.44084E+03  4.31289E+03 -1.65050E+03
  3.48061E+03  9.73660E+01  2.15450E+03  2.77229E+03 -4.46550E+02  2.22621E+03 -1.31061E+03  1.95732E+03
 -1.75301E+03  1.03398E+03 -1.00945E+03 -3.82931E+02 -5.62524E+02  1.94693E+02 -7.97235E+02  2.79437E+02
 -1.32802E+03 -1.28378E+02 -9.59380E+02  1.14437E+02  3.65385E+00 -7.48749E+02 -4.11963E+02 -1.26537E+03
  1.67664E+03 -8.99989E+02  8.97870E+02  2.69750E+02  2.13495E+03  1.52824E+03 -5.41575E+01  2.70186E+03
 -1.61610E+03  3.33814E+03 -2.59628E+03  2.00070E+03 -2.94775E+03 -1.57299E+02 -2.45209E+03 -1.84520E+03
 -1.65361E+03 -2.38097E+03  5.72945E+02 -2.19314E+03  1.33415E+03 -1.22242E+03  1.34148E+03  3.90433E+02
  1.14651E+03  6.63047E+02  2.51622E+02  6.91867E+02 -6.73657E+02 -1.07920E+01 -3.08639E+01 -4.88579E+02
  1.01892E+03  1.95336E+02  8.51022E+02  6.44428E+02  2.51299E+02  1.06510E+03  5.04577E+02  1.03060E+03
 -1.13093E+03  1.15865E+03 -1.56993E+03  1.54955E+01 -1.18524E+03 -9.01404E+02 -1.57822E+02 -1.69054E+03
  8.38943E+02 -1.59237E+03  1.24375E+03 -7.31647E+01  1.50416E+03 -3.39455E+02  9.28998E+02  1.44110E+03
  6.96752E+02  1.46592E+03 -4.26623E+02  7.79897E+02 -7.52723E+02  8.99174E+02 -9.54094E+02  1.38520E+02
 -5.16233E+02 -1.00866E+02 -4.50692E+02  2.21379E+02 -8.96622E+02  3.03002E+01 -1.15110E+03 -3.11252E+02
 -1.33044E+03 -3.05840E+01 -5.50860E+02 -1.51250E+03  1.09470E+03 -1.92346E+03  1.25478E+03 -3.83552E+02
  1.68608E+03  1.90263E+02  3.70151E+02  9.46133E+02 -2.75603E+02  1.69383E+03 -9.13157E+02  1.05810E+03
