 $NMID ID='MM_0lb_SNR800_20hz_g50_49.RAW', FMTDAT='(8E13.5)'
 TRAMP=1., VOLUME=1. $END
  3.09980E+05  4.69674E+02  3.37033E+05  2.50219E+05  8.44465E+04  3.37437E+05 -1.32430E+05  2.50207E+05
 -1.89441E+05  8.25593E+04 -1.10828E+05 -3.29642E+04  1.43340E+03 -5.03949E+04  5.38610E+04  2.58138E+02
  3.48248E+04  5.27107E+04 -1.72208E+04  7.49618E+04 -6.03334E+04  6.28612E+04 -8.28076E+04  3.16321E+04
 -7.92966E+04 -1.11901E+04 -5.58731E+04 -4.99825E+04 -1.49548E+04 -6.80661E+04  2.65688E+04 -4.46101E+04
  3.90873E+04  3.70621E+03  1.54906E+04  4.70030E+04 -3.37241E+04  4.60837E+04 -6.51574E+04 -5.54365E+02
 -5.15454E+04 -5.56474E+04 -6.13862E+03 -7.49896E+04  3.29016E+04 -5.29142E+04  4.60962E+04 -1.63988E+04
  4.15692E+04  1.08206E+04  3.06350E+04  2.43587E+04  1.57254E+04  2.81361E+04 -4.59010E+03  2.66528E+04
 -2.14919E+04  1.30178E+04 -1.94142E+04 -4.29369E+03  4.05567E+03 -7.50561E+03  2.10232E+04  1.09746E+04
  7.30474E+03  3.26939E+04 -3.00634E+04  3.38815E+04 -6.06594E+04  2.16601E+03 -5.51570E+04 -4.11257E+04
 -1.24703E+04 -6.03257E+04  3.80796E+04 -4.30271E+04  5.50230E+04 -1.73544E+03  3.14595E+04  3.01378E+04
 -6.47570E+03  3.25817E+04 -2.83806E+04  1.29346E+04 -2.74372E+04 -5.57451E+03 -1.39718E+04 -9.92223E+03
 -7.18913E+03 -1.10928E+04 -1.08556E+03 -1.65419E+04  6.20917E+03 -2.24007E+04  1.46486E+04 -1.39912E+04
  1.22985E+04  4.10730E+03 -5.85504E+03  1.30432E+04 -1.89996E+04 -2.27099E+03 -8.21364E+03 -2.99401E+04
  2.04624E+04 -4.01670E+04  4.43718E+04 -1.83030E+04  4.10913E+04  1.81377E+04  1.39357E+04  4.13245E+04
 -1.49751E+04  3.07124E+04 -2.29088E+04  6.57063E+02 -7.89531E+03 -2.59818E+04  2.02085E+04 -3.08176E+04
  3.77044E+04 -7.08612E+03  3.08161E+04  2.24308E+04  1.48758E+04  4.21582E+04 -7.84658E+03  4.44298E+04
 -2.78602E+04  2.89559E+04 -3.64889E+04  7.90356E+03 -3.76058E+04 -1.46823E+04 -2.07666E+04 -3.37074E+04
  7.02759E+03 -3.36637E+04  2.87455E+04 -1.22839E+04  2.64474E+04  1.05413E+04  2.87101E+03  1.73985E+04
 -1.33660E+04  7.00121E+03 -9.38561E+03 -7.69706E+03  6.11140E+03 -1.00103E+04  1.70139E+04  6.33616E+03
  1.21319E+04  2.15023E+04 -6.68980E+03  2.30918E+04 -2.10635E+04  8.65666E+03 -2.46999E+04 -6.44473E+03
 -1.61574E+04 -1.63785E+04 -5.32375E+03 -1.61002E+04  3.73253E+03 -1.37719E+04  1.17529E+04 -1.38822E+04
  2.02092E+04 -1.15319E+04  2.74554E+04  7.14324E+02  2.07664E+04  1.56558E+04  4.11217E+03  3.16222E+04
 -1.59719E+04  2.69812E+04 -2.54040E+04  9.30214E+03 -1.94584E+04 -1.02670E+04 -3.64078E+03 -1.40157E+04
  2.93465E+03 -4.32839E+03 -2.30183E+03  5.22660E+03 -1.22882E+04  5.45685E+03 -1.28753E+04 -4.40577E+03
 -8.39204E+03 -1.51147E+04  4.70775E+03 -1.86270E+04  1.18865E+04 -1.36060E+04  1.39648E+04 -1.17644E+03
  8.30591E+03  1.04467E+04 -9.26135E+02  1.49395E+04 -9.89954E+03  8.41647E+03 -1.44868E+04 -3.20442E+03
 -1.09290E+04 -1.35898E+04 -1.45056E+03 -1.82303E+04  8.08520E+03 -1.45285E+04  1.54311E+04 -7.03422E+03
  1.38682E+04  7.40120E+02  9.92771E+03  3.70747E+03  4.95176E+03  2.21205E+02  7.21218E+03 -1.19038E+03
  1.30843E+04  2.42085E+03  1.39133E+04  1.20069E+04  8.37724E+03  2.35480E+04 -3.29641E+03  2.47193E+04
 -1.50472E+04  1.88979E+04 -2.27716E+04  8.79360E+03 -2.29824E+04 -1.52116E+03 -2.02323E+04 -1.32016E+04
 -9.81831E+03 -1.89182E+04  6.45597E+03 -1.78223E+04  1.54243E+04 -1.04658E+04  1.50107E+04  3.35744E+03
  6.19693E+03  1.04837E+04 -6.78324E+03  9.92595E+03 -1.24976E+04  2.75317E+03 -9.68069E+03 -7.44721E+03
 -5.77901E+01 -1.17549E+04  5.80135E+03 -8.99044E+03  7.56573E+03 -1.38133E+03  1.20075E+03  4.60012E+03
 -5.11659E+03  1.03972E+03 -3.42370E+03 -4.57284E+03  8.31408E+02 -9.39642E+03  7.58460E+03 -8.93921E+03
  1.10075E+04 -4.17690E+03  1.06490E+04  2.60212E+03  9.42618E+03  8.56308E+03  4.45697E+03  1.27668E+04
 -1.13343E+03  1.45639E+04 -8.86121E+03  9.54532E+03 -1.02860E+04  2.78547E+03 -7.60330E+03 -1.37433E+03
 -4.23851E+03 -3.17419E+03 -5.94719E+02  1.46536E+03 -1.93980E+03  1.73102E+03 -3.12593E+03  3.45612E+03
 -7.38098E+03 -3.15654E+02 -8.41025E+03 -6.40605E+03 -3.45725E+03 -1.08444E+04  3.36517E+03 -7.74688E+03
  6.80443E+03 -3.40170E+03  4.95275E+03  1.92990E+03  5.44775E+02  2.47703E+03 -3.27741E+03 -3.09325E+02
 -3.19181E+03 -4.94565E+03 -5.79335E+02 -6.25546E+03  3.50818E+03 -7.08668E+03  8.88201E+03 -3.59285E+03
  1.04852E+04  6.19486E+02  8.25604E+03  5.49324E+03  1.84237E+03  7.91086E+03 -4.88644E+03  7.79056E+03
 -6.45340E+03  2.63870E+03 -3.13130E+03 -1.04326E+03  1.24976E+03 -1.65526E+03  4.24457E+03 -8.86808E+02
  3.61794E+03  2.85404E+03  9.56201E+02  5.85803E+03 -4.04591E+03  6.06918E+03 -7.17642E+03  1.62996E+03
 -4.37166E+03 -3.01235E+03  3.71192E+02 -6.19430E+03  2.95597E+03 -3.02465E+03  2.97442E+03  7.58162E+02
  1.41029E+02  2.82404E+03 -3.73153E+03  3.96223E+03 -4.22948E+03  1.93782E+03 -3.61196E+03 -4.42009E+02
 -2.30902E+03 -5.02232E+03  7.74824E+02 -5.64727E+03  5.11938E+03 -4.21121E+03  5.47484E+03  8.28146E+02
  3.89949E+03  4.87918E+03  6.45192E+02  6.53823E+03 -4.67810E+03  3.59511E+03 -4.57982E+03 -4.50041E+02
 -5.49790E+03 -4.62429E+03 -1.25182E+03 -4.40769E+03  2.14141E+03 -3.91347E+03  2.43583E+03 -2.97455E+03
  2.63445E+03  1.64846E+02  8.69465E+01  1.17539E+03  1.02735E+03 -7.75022E+01 -2.75710E+02 -1.43572E+03
  3.13507E+03 -3.93144E+02  4.34298E+03  3.31903E+02  4.44243E+03  2.16120E+03  4.88640E+03  6.12839E+03
 -9.95556E+02  7.15067E+03 -6.76045E+03  5.52090E+03 -8.24237E+03  9.59943E+02 -6.47125E+03 -2.09709E+03
 -3.92424E+03 -5.78905E+03 -2.58040E+02 -4.27458E+03  1.67979E+03 -1.88954E+03  1.28811E+03 -1.73578E+03
  9.67116E+02 -1.19814E+03  1.94096E+03 -2.35816E+03  3.29557E+03 -1.07752E+03  3.15638E+03  5.80288E+02
  4.11939E+03  9.88430E+02  1.02740E+03  2.79441E+03 -1.48361E+03  2.04896E+03 -3.83063E+03  2.27204E+03
 -4.05827E+03 -1.11073E+03 -9.89966E+02 -2.63586E+03  5.20848E+02 -4.23584E+03  2.67890E+03 -4.46768E+03
  4.10600E+03 -2.65598E+03  5.60481E+03  3.39721E+02  4.14296E+03  3.40058E+03  1.15159E+03  5.11521E+03
 -1.79036E+03  5.12434E+03 -2.70384E+03  1.68039E+03 -1.75179E+03 -1.29460E+03 -2.00753E+02 -4.28968E+02
 -3.60933E+02  3.04512E+02 -7.77250E+02  2.04553E+03 -2.13193E+03  7.03073E+02 -3.50908E+03 -3.77109E+02
 -1.22850E+03 -3.66745E+03  8.84028E+02 -3.88574E+03  2.02701E+03 -3.48236E+03  2.86766E+03 -7.94346E+02
  3.20062E+03  1.96098E+03  1.17160E+03  2.30900E+03 -6.18775E+02  3.48126E+03 -1.86127E+03  2.19364E+03
 -3.12483E+03  7.71741E+02 -2.88598E+03 -2.06192E+03 -1.89150E+02 -2.48675E+03  9.51415E+02 -2.00583E+03
  2.29295E+03 -9.63458E+02  1.41384E+03  2.73295E+02  3.98116E+02  1.37562E+03  8.13510E+02  4.42035E+02
  1.48416E+03  5.40427E+02  8.40409E+02  1.01926E+03  1.04983E+03  1.82928E+03  1.47343E+03  1.41853E+03
 -1.19426E+03  2.28840E+03 -1.99131E+03  3.62750E+03 -2.17612E+03  1.20651E+03 -3.47217E+03 -4.92534E+00
 -1.14076E+03 -2.85084E+03  7.44132E+02 -3.90501E+03  1.41447E+03 -1.93422E+03  2.59774E+03 -5.29743E+02
  1.99731E+03  1.34327E+03  1.51846E+02  1.78341E+03 -5.14071E+02  8.27036E+02 -5.98918E+02 -1.54605E+02
 -4.20344E+02 -9.85278E+02  1.26023E+03 -1.15547E+03  9.30666E+02 -7.02976E+02  1.00017E+03  2.45834E+02
  4.59007E+02  1.26006E+00  1.08783E+03 -4.00245E+02 -3.21094E+02  7.76771E+02  1.63338E+03 -2.79856E+02
  4.69604E+01 -1.34954E+02  1.46161E+03  3.80718E+02  1.12379E+01  1.77992E+03 -3.20863E+02  2.19879E+03
 -1.40761E+03  6.54981E+02 -1.56068E+03  1.44840E+02 -1.63513E+03 -7.35947E+02  2.26095E+00 -7.53593E+02
  2.83741E+02 -9.85548E+02  7.94416E+02 -4.99037E+02  4.96405E+02  1.18072E+03 -5.03548E+02  9.10226E+02
 -1.27131E+03  6.67753E+02 -8.04849E+02 -1.11141E+03 -2.36615E+02 -1.97370E+03  3.76991E+01 -1.02180E+03
  1.67406E+01 -8.90378E+01  3.85523E+02  3.05576E+02  1.05407E+03 -2.38990E+02  3.47329E+02  1.05423E+03
 -1.62565E+02 -1.50292E+02 -7.00088E+02  1.43167E+02  3.51843E+02 -3.93243E+02  1.39405E+03 -7.10211E+02
  6.92334E+02  2.12204E+02  2.11997E+03  2.20528E+02  9.49907E+02  7.04195E+02  5.96430E+01  1.51262E+03
 -9.56126E+02  8.03966E+01 -9.56352E+02 -2.55749E+02 -7.45545E+02 -7.22445E+02  1.35949E+01 -1.40055E+02
  1.22259E+03 -4.61043E+02  5.28153E+02  5.92567E+02 -6.39902E+01  8.04259E+02  1.95563E+02  9.16840E+02
 -7.15674E+01  1.20880E+03 -2.89925E+02  2.22635E+02  1.51906E+02  3.47933E+02 -6.55387E+02  5.88716E+02
 -5.02024E+02  1.05343E+03 -1.80031E+03  2.86432E+02 -1.21164E+03  2.04073E+02 -1.71043E+03 -5.96301E+02
 -9.43627E+02 -1.73287E+03  6.43907E+01 -1.93355E+03  5.89373E+02 -1.69217E+03  2.25776E+03 -7.00020E+02
  1.76589E+03 -2.01201E+02  8.77642E+02  1.13729E+03 -6.32404E+02  7.84715E+02 -3.60843E+02  8.14204E+02
 -6.65692E+02  9.73126E+02 -1.36601E+02 -1.78918E+02 -5.79207E+02  3.19798E+02 -7.40324E+02  4.30884E+01
 -1.02519E+03  2.17969E+01 -7.70266E+02  2.20400E+02  1.85086E+02 -5.23076E+02 -3.21303E+02 -6.94289E+02
  9.46131E+02 -3.45316E+02  6.32551E+01  3.10094E+02  6.28519E+02  8.19660E+02 -6.98741E+02  7.69710E+02
 -8.63540E+02  1.66924E+03 -1.12166E+03  1.00975E+03 -1.07708E+03 -1.48082E+02 -8.26860E+02 -8.43282E+02
 -6.82752E+02 -8.64594E+02  1.87798E+02 -3.67284E+02  4.93491E+02 -3.41318E+02  3.44192E+02  1.00261E+01
  5.83318E+02  3.02927E+02  1.01988E+02  1.19396E+02 -1.71732E+02 -1.94602E+02  1.10968E+02 -1.59158E+02
  2.88132E+02  2.39060E+02 -9.42246E+01  4.09477E+02 -3.36410E+02  1.47649E+02  5.13294E+02  6.63280E+00
 -1.63410E+02  5.22711E+02  1.04185E+02  2.52468E+02 -6.99070E+02 -2.71736E+02  1.49183E+02 -7.90602E+02
  4.41066E+02 -5.80487E+02  3.63389E+02  9.77333E+00  3.46336E+02 -6.48233E+02  1.48641E+02  6.61315E+02
  4.76416E+02  3.17810E+02 -2.02166E+01 -6.45492E+00 -1.25179E+02  5.99216E+02 -3.47024E+02  1.09589E+02
 -2.58721E+02  1.29147E+02 -3.81102E+02  1.22115E+02 -2.79134E+02  5.70980E+00 -4.15743E+02 -3.92986E+02
 -5.32548E+02  3.50904E+02 -3.13852E+02 -8.19523E+02  3.66879E+02 -1.10677E+03  3.81164E+02 -1.39206E+01
  2.46337E+02 -1.96666E+02 -4.15161E+02  1.58348E+02 -1.70129E+02  5.76420E+02 -4.28557E+02  4.28344E+02
