 $NMID ID='MM_0lb_SNR800_7hz_g55_1.RAW', FMTDAT='(8E13.5)'
 TRAMP=1., VOLUME=1. $END
  3.09951E+05  3.90813E+02  3.38183E+05  2.50619E+05  8.54674E+04  3.38898E+05 -1.32779E+05  2.52440E+05
 -1.90997E+05  8.40697E+04 -1.12578E+05 -3.21124E+04  1.42045E+01 -5.09492E+04  5.36325E+04 -1.04969E+03
  3.58920E+04  5.27969E+04 -1.67355E+04  7.62616E+04 -6.10323E+04  6.50933E+04 -8.61330E+04  3.23305E+04
 -8.32361E+04 -1.15385E+04 -5.84779E+04 -5.27178E+04 -1.55246E+04 -7.21444E+04  2.85716E+04 -4.71102E+04
  4.18364E+04  3.83971E+03  1.68200E+04  4.83766E+04 -3.51769E+04  4.88829E+04 -6.88907E+04  5.86192E+02
 -5.56358E+04 -5.77654E+04 -7.59450E+03 -7.97982E+04  3.50772E+04 -5.76611E+04  5.12468E+04 -1.82611E+04
  4.58646E+04  1.16290E+04  3.32769E+04  2.72342E+04  1.60302E+04  3.13150E+04 -6.31292E+03  2.80086E+04
 -2.24950E+04  1.17095E+04 -1.79926E+04 -5.95966E+03  7.66382E+03 -7.21515E+03  2.39750E+04  1.45799E+04
  7.36143E+03  3.86712E+04 -3.43604E+04  3.81769E+04 -6.67786E+04  1.72698E+03 -5.94824E+04 -4.57070E+04
 -1.28303E+04 -6.71610E+04  4.26327E+04 -4.92016E+04  6.26976E+04 -2.79178E+03  3.82527E+04  3.53803E+04
 -5.10872E+03  4.06250E+04 -3.30955E+04  2.04701E+04 -3.52622E+04 -2.81697E+03 -2.05212E+04 -1.27226E+04
 -9.74092E+03 -1.64767E+04 -3.39928E+02 -2.06863E+04  8.86540E+03 -2.34978E+04  1.63541E+04 -1.25418E+04
  1.02982E+04  5.99232E+03 -1.13178E+04  1.23692E+04 -2.47752E+04 -7.79329E+03 -9.13675E+03 -3.96921E+04
  2.61400E+04 -4.93020E+04  5.39933E+04 -2.19561E+04  5.05254E+04  2.16079E+04  1.82455E+04  4.83936E+04
 -1.73102E+04  3.75105E+04 -2.90054E+04  2.87201E+03 -1.27588E+04 -3.04480E+04  2.17469E+04 -3.87925E+04
  4.63627E+04 -1.21191E+04  4.29474E+04  2.63034E+04  2.32985E+04  5.35460E+04 -8.50524E+03  5.91003E+04
 -3.70492E+04  4.01250E+04 -5.03417E+04  1.15320E+04 -5.03301E+04 -1.92780E+04 -2.73298E+04 -4.46143E+04
  8.51374E+03 -4.44114E+04  3.55053E+04 -1.87193E+04  3.32674E+04  1.13320E+04  5.78254E+03  2.18261E+04
 -1.40377E+04  1.05486E+04 -1.17800E+04 -7.32121E+03  5.47481E+03 -1.20405E+04  1.97177E+04  6.09158E+03
  1.56679E+04  2.30884E+04 -4.98771E+03  2.81474E+04 -2.39232E+04  1.58644E+04 -3.33439E+04 -1.68797E+03
 -2.78909E+04 -1.91187E+04 -1.33064E+04 -2.78304E+04  4.35179E+03 -2.87918E+04  2.20742E+04 -2.57426E+04
  3.50414E+04 -1.48299E+04  4.09677E+04  5.99119E+03  2.87463E+04  2.66355E+04  4.45401E+03  4.37485E+04
 -2.10324E+04  3.53060E+04 -3.15809E+04  1.24752E+04 -2.33134E+04 -1.00768E+04 -5.05293E+03 -1.21788E+04
  4.55463E+02 -1.26367E+00 -9.18099E+03  9.43775E+03 -2.21184E+04  5.05754E+03 -2.27819E+04 -1.09713E+04
 -1.26138E+04 -2.58683E+04  6.87860E+03 -3.03792E+04  2.03837E+04 -2.13541E+04  2.46430E+04 -2.16632E+03
  1.66630E+04  1.76290E+04 -1.27997E+03  2.54421E+04 -1.82515E+04  1.54726E+04 -2.57838E+04 -5.41149E+03
 -1.88789E+04 -2.30134E+04 -2.44362E+03 -3.05481E+04  1.38561E+04 -2.57289E+04  2.52301E+04 -1.34183E+04
  2.43965E+04 -4.15996E+02  1.77535E+04  5.54497E+03  9.91956E+03  1.83003E+03  1.38603E+04 -2.30933E+03
  2.45043E+04  2.87295E+03  2.81047E+04  2.00706E+04  2.02550E+04  4.15089E+04 -2.67671E+03  4.98298E+04
 -2.78907E+04  4.20038E+04 -4.70946E+04  2.16653E+04 -5.07923E+04 -4.49546E+03 -4.03258E+04 -2.94943E+04
 -1.61457E+04 -4.21150E+04  1.49642E+04 -3.67253E+04  3.14444E+04 -1.69606E+04  2.69124E+04  9.37811E+03
  8.26092E+03  2.14129E+04 -1.31988E+04  1.75202E+04 -2.25513E+04  2.55394E+03 -1.67165E+04 -1.46261E+04
 -5.41584E+02 -2.12707E+04  1.20048E+04 -1.58271E+04  1.51197E+04 -8.52227E+02  3.50417E+03  1.01702E+04
 -9.82686E+03  5.56768E+03 -1.09444E+04 -7.63105E+03 -2.85113E+03 -2.11503E+04  1.34996E+04 -2.29034E+04
  2.64657E+04 -1.33740E+04  3.03110E+04  3.34676E+03  2.66826E+04  2.16793E+04  1.18603E+04  3.45185E+04
 -7.13228E+03  3.61515E+04 -2.39823E+04  2.29078E+04 -2.64287E+04  4.12348E+03 -1.78287E+04 -7.42882E+03
 -7.17640E+03 -8.46829E+03 -8.10943E+02 -8.30569E+01 -2.90306E+03  3.66233E+03 -8.44149E+03  6.11357E+03
 -1.66585E+04 -9.83135E+02 -1.64223E+04 -1.31455E+04 -7.00008E+03 -2.21072E+04  7.60208E+03 -1.79095E+04
  1.47613E+04 -7.65316E+03  1.00809E+04  4.68149E+03 -2.59767E+02  6.94791E+03 -9.71915E+03 -1.81667E+02
 -9.22389E+03 -1.15501E+04 -1.50429E+03 -1.81555E+04  1.03592E+04 -1.96916E+04  2.38919E+04 -1.08114E+04
  2.75811E+04  3.16351E+03  2.00002E+04  1.73601E+04  3.30948E+03  2.26616E+04 -1.08118E+04  1.76515E+04
 -1.45361E+04  5.04140E+03 -7.85348E+03 -4.05746E+03  2.02453E+03 -5.20553E+03  9.26494E+03 -1.12972E+03
  8.44036E+03  7.76107E+03  1.16299E+03  1.46019E+04 -1.06008E+04  1.37439E+04 -1.81341E+04  3.01804E+03
 -1.27596E+04 -1.00310E+04  1.63431E+02 -1.60359E+04  1.05389E+04 -8.16359E+03  1.15881E+04  4.60430E+03
  2.41524E+03  1.22230E+04 -9.37895E+03  1.37992E+04 -1.67848E+04  6.14277E+03 -1.74958E+04 -6.65867E+03
 -9.50865E+03 -1.93490E+04  4.99661E+03 -2.22796E+04  1.89759E+04 -1.32113E+04  1.99521E+04  3.37263E+03
  1.22757E+04  1.67610E+04 -2.06324E+03  1.89369E+04 -1.43651E+04  1.04304E+04 -1.59710E+04 -1.79127E+03
 -1.25783E+04 -1.28323E+04 -2.20836E+03 -1.43812E+04  7.59705E+03 -1.11180E+04  9.43951E+03 -4.09589E+03
  5.44466E+03  2.52485E+03 -1.45922E+03  1.89950E+03 -1.29037E+03 -4.65272E+03  3.30400E+03 -9.83211E+03
  1.42470E+04 -6.44129E+03  2.00727E+04  2.45539E+03  1.95737E+04  1.43572E+04  1.18118E+04  2.66189E+04
 -6.42594E+03  2.96192E+04 -2.40184E+04  2.15404E+04 -3.21707E+04  4.27674E+03 -2.59861E+04 -1.18887E+04
 -1.25038E+04 -2.10851E+04 -2.05790E+02 -1.82525E+04  6.47475E+03 -1.08713E+04  6.11538E+03 -6.57285E+03
  4.89626E+03 -3.79608E+03  4.67941E+03 -4.33140E+03  6.94114E+03 -4.93508E+03  9.81074E+03 -2.52769E+03
  1.29315E+04  2.83618E+03  7.91056E+03  1.18095E+04 -2.29493E+03  1.49597E+04 -1.43700E+04  1.10265E+04
 -1.83246E+04 -1.64961E+03 -1.24401E+04 -1.25635E+04 -2.34452E+03 -2.05317E+04  1.15100E+04 -1.98978E+04
  2.10296E+04 -1.12987E+04  2.49413E+04  3.94711E+03  1.67527E+04  1.73326E+04  2.77842E+03  2.28356E+04
 -9.62704E+03  1.74066E+04 -1.29591E+04  6.69347E+03 -8.98865E+03 -1.94712E+03 -4.53013E+03 -2.91851E+03
 -1.82901E+03 -3.10910E+02 -2.73801E+03  3.56872E+03 -7.10873E+03  2.76241E+03 -1.24129E+04 -1.77492E+03
 -9.38340E+03 -1.25668E+04 -2.14361E+02 -1.87696E+04  1.14063E+04 -1.73910E+04  1.95117E+04 -5.41499E+03
  1.84220E+04  8.44108E+03  8.87151E+03  1.73002E+04 -3.66995E+03  1.92796E+04 -1.39782E+04  1.23067E+04
 -1.84039E+04  4.40255E+02 -1.36496E+04 -1.10761E+04 -1.58893E+03 -1.68418E+04  8.52985E+03 -1.20003E+04
  1.20937E+04 -3.48543E+03  8.45230E+03  3.61441E+03  2.64470E+03  5.85435E+03  2.02486E+03  2.51628E+03
  3.80775E+03  1.30141E+03  4.70935E+03  1.87740E+03  5.42865E+03  6.34428E+03  4.71124E+03  1.02175E+04
 -4.00868E+03  1.58855E+04 -1.45608E+04  1.56354E+04 -2.10481E+04  3.44088E+03 -2.12880E+04 -8.48388E+03
 -9.98332E+03 -2.03221E+04  2.64525E+03 -2.20126E+04  1.26082E+04 -1.42299E+04  1.68792E+04 -3.31725E+03
  1.28876E+04  7.46281E+03  2.60919E+03  1.15414E+04 -5.97304E+03  7.71207E+03 -8.16584E+03 -9.73673E+02
 -4.49534E+03 -9.07524E+03  4.44038E+03 -8.98744E+03  8.82136E+03 -4.31805E+03  8.30441E+03  1.83769E+03
  5.09798E+03  4.11720E+03  2.03264E+03  3.73551E+03 -7.72303E+02  2.61842E+03  1.63398E+03 -3.56499E+02
  3.80704E+03 -1.00064E+03  8.31149E+03  3.10252E+03  5.57989E+03  1.15059E+04 -1.58656E+03  1.41096E+04
 -1.02019E+04  9.91357E+03 -1.33759E+04  1.89826E+03 -1.15783E+04 -4.93867E+03 -5.35845E+03 -8.36175E+03
  1.35779E+03 -8.40898E+03  5.54514E+03 -3.70070E+03  4.76715E+03  3.33494E+03 -1.63177E+03  7.18617E+03
 -9.12429E+03  3.60753E+03 -1.02472E+04 -5.00630E+03 -6.04135E+03 -1.20867E+04  1.71261E+03 -1.18120E+04
  7.44373E+03 -7.24667E+03  8.52018E+03 -1.73487E+03  6.64760E+03  3.23267E+03  9.31411E+02  6.12462E+03
 -4.12200E+03  1.96953E+03 -5.23617E+03 -4.17445E+03  1.91576E+03 -9.41556E+03  1.03796E+04 -6.83053E+03
  1.33827E+04  1.05891E+03  1.26960E+04  9.53857E+03  4.36175E+03  1.45776E+04 -4.61314E+03  1.37154E+04
 -1.13055E+04  6.19249E+03 -1.20684E+04 -2.09361E+03 -6.47238E+03 -9.16203E+03  2.61669E+03 -8.83872E+03
  8.55124E+03 -4.08235E+03  7.81870E+03  3.24569E+03  3.28018E+03  7.25749E+03 -1.36564E+03  7.03547E+03
 -3.89175E+03  4.31031E+03 -3.36066E+03  1.33251E+03 -1.66223E+03  1.41069E+03 -1.94913E+03  2.75294E+03
 -3.32112E+03  5.46762E+03 -9.43115E+03  4.99215E+03 -1.41792E+04  1.77720E+01 -1.60105E+04 -9.72501E+03
 -8.26475E+03 -1.90693E+04  3.51138E+03 -2.17846E+04  1.36737E+04 -1.72502E+04  2.12422E+04 -6.90704E+03
  1.95192E+04  3.98004E+03  1.22289E+04  1.35210E+04  1.68781E+03  1.53335E+04 -6.14792E+03  1.13628E+04
 -8.64272E+03  3.64143E+03 -5.49584E+03 -1.94874E+03 -1.79276E+03 -2.03683E+03 -4.93647E+02  1.07236E+01
 -2.33530E+03  2.18778E+02 -3.02783E+03 -4.82093E+02 -1.38473E+03 -3.47389E+03  5.91312E+02 -5.50704E+03
  6.33665E+03 -4.75641E+03  9.65203E+03 -5.11155E+01  1.09227E+04  8.11653E+03  3.07819E+03  1.52575E+04
 -7.72862E+03  1.76832E+04 -1.64487E+04  1.00572E+04 -1.86771E+04 -1.95321E+03 -1.45519E+04 -1.15671E+04
 -5.50255E+03 -1.63455E+04  4.20616E+03 -1.44676E+04  1.03135E+04 -7.95432E+03  1.02767E+04 -4.71593E+01
  5.41224E+03  5.66944E+03 -2.07731E+01  4.23633E+03 -2.87619E+03 -6.21949E+02  2.87214E+02 -4.08034E+03
  4.72784E+03 -2.36179E+03  6.10822E+03  1.85352E+03  4.11539E+03  6.59063E+03 -4.85472E-01  8.15014E+03
 -6.70447E+03  7.03018E+03 -1.06830E+04  1.16546E+03 -9.70446E+03 -7.45871E+03 -1.59351E+03 -1.36038E+04
  7.80517E+03 -1.13947E+04  1.28782E+04 -3.19711E+03  1.24439E+04  3.70958E+03  7.31548E+03  9.99194E+03
  1.12851E+03  1.11625E+04 -3.99922E+03  8.65270E+03 -6.95719E+03  4.69359E+03 -5.32395E+03  2.81090E+02
 -2.87751E+03 -3.61763E+02 -3.27363E+03  1.62009E+03 -5.38594E+03  2.19898E+03 -8.14996E+03 -1.36435E+03
 -7.56672E+03 -6.53278E+03 -2.16664E+03 -1.07565E+04  4.97828E+03 -1.11426E+04  9.68971E+03 -5.65620E+03
  1.09594E+04  1.31829E+03  6.19836E+03  7.97881E+03 -5.64545E+02  1.09690E+04 -8.25545E+03  7.02166E+03
