 $NMID ID='MM_0lb_SNR800_12hz_g50_51.RAW', FMTDAT='(8E13.5)'
 TRAMP=1., VOLUME=1. $END
  3.09754E+05  3.86127E+02  3.37766E+05  2.50494E+05  8.49958E+04  3.38147E+05 -1.32835E+05  2.51463E+05
 -1.90920E+05  8.34200E+04 -1.12012E+05 -3.25617E+04  5.40021E+02 -5.05164E+04  5.38139E+04 -3.37246E+02
  3.54528E+04  5.31218E+04 -1.70140E+04  7.55781E+04 -6.09243E+04  6.35362E+04 -8.45312E+04  3.23053E+04
 -8.15992E+04 -1.13593E+04 -5.78049E+04 -5.20306E+04 -1.51789E+04 -7.00545E+04  2.75230E+04 -4.61164E+04
  4.07804E+04  3.66531E+03  1.66380E+04  4.87746E+04 -3.45083E+04  4.73419E+04 -6.72155E+04  1.78321E+02
 -5.43202E+04 -5.75235E+04 -6.89703E+03 -7.80675E+04  3.40676E+04 -5.57023E+04  4.89986E+04 -1.80438E+04
  4.44813E+04  1.14180E+04  3.20512E+04  2.60931E+04  1.59895E+04  2.99301E+04 -5.65850E+03  2.77044E+04
 -2.20414E+04  1.19133E+04 -1.83358E+04 -5.51785E+03  6.42704E+03 -7.63091E+03  2.29220E+04  1.29015E+04
  7.23056E+03  3.61486E+04 -3.27796E+04  3.58818E+04 -6.44785E+04  2.21239E+03 -5.75974E+04 -4.35191E+04
 -1.27651E+04 -6.41747E+04  4.03136E+04 -4.60124E+04  5.98326E+04 -2.12125E+03  3.49696E+04  3.34836E+04
 -5.58253E+03  3.75418E+04 -3.09992E+04  1.70819E+04 -3.13949E+04 -4.36634E+03 -1.80463E+04 -1.14708E+04
 -9.06528E+03 -1.37267E+04 -4.94292E+02 -1.84772E+04  7.88937E+03 -2.31323E+04  1.58083E+04 -1.30642E+04
  1.08413E+04  5.48770E+03 -8.73853E+03  1.30471E+04 -2.19806E+04 -5.26718E+03 -8.71106E+03 -3.55838E+04
  2.37447E+04 -4.49860E+04  4.99727E+04 -2.00052E+04  4.66953E+04  1.99983E+04  1.65489E+04  4.52529E+04
 -1.61906E+04  3.44018E+04 -2.63196E+04  1.96244E+03 -1.04800E+04 -2.86214E+04  2.12428E+04 -3.51720E+04
  4.21184E+04 -1.00477E+04  3.77572E+04  2.43277E+04  1.92257E+04  4.86717E+04 -8.00298E+03  5.27983E+04
 -3.33654E+04  3.53256E+04 -4.44452E+04  1.00071E+04 -4.42020E+04 -1.69894E+04 -2.44836E+04 -3.94848E+04
  7.71939E+03 -3.92594E+04  3.28183E+04 -1.53388E+04  3.03361E+04  1.12848E+04  4.54683E+03  2.01788E+04
 -1.38060E+04  8.97866E+03 -1.08460E+04 -7.57066E+03  5.97190E+03 -1.11277E+04  1.81435E+04  5.90247E+03
  1.41504E+04  2.23607E+04 -5.59605E+03  2.54684E+04 -2.29350E+04  1.26727E+04 -2.90728E+04 -4.08111E+03
 -2.26397E+04 -1.77998E+04 -9.82617E+03 -2.22997E+04  4.00878E+03 -2.21308E+04  1.74515E+04 -2.01800E+04
  2.84582E+04 -1.33346E+04  3.48971E+04  3.87673E+03  2.50947E+04  2.17126E+04  4.48627E+03  3.84492E+04
 -1.84682E+04  3.17799E+04 -2.93430E+04  1.12595E+04 -2.16516E+04 -1.04641E+04 -4.65811E+03 -1.30793E+04
  1.78436E+03 -2.14782E+03 -5.92604E+03  7.32143E+03 -1.78593E+04  5.17664E+03 -1.77984E+04 -8.04043E+03
 -1.07273E+04 -2.04499E+04  5.53220E+03 -2.52170E+04  1.66711E+04 -1.81065E+04  2.01256E+04 -1.86827E+03
  1.26753E+04  1.45074E+04 -1.28850E+03  2.07080E+04 -1.48534E+04  1.17472E+04 -2.07270E+04 -4.33764E+03
 -1.51588E+04 -1.85655E+04 -2.40408E+03 -2.50752E+04  1.12390E+04 -2.05391E+04  2.08989E+04 -1.05706E+04
  1.94343E+04 -1.02257E+01  1.44578E+04  4.94966E+03  7.40089E+03  1.11452E+03  1.03232E+04 -1.66250E+03
  1.94750E+04  3.19536E+03  2.19321E+04  1.64747E+04  1.46255E+04  3.33539E+04 -3.13240E+03  3.81417E+04
 -2.20147E+04  3.08819E+04 -3.55773E+04  1.59406E+04 -3.76987E+04 -2.65242E+03 -3.04728E+04 -2.19336E+04
 -1.25479E+04 -3.14398E+04  1.08826E+04 -2.75445E+04  2.39506E+04 -1.38029E+04  2.10632E+04  6.37711E+03
  7.34864E+03  1.60075E+04 -9.82187E+03  1.39536E+04 -1.80592E+04  2.86843E+03 -1.35045E+04 -1.08788E+04
 -2.52384E+02 -1.63556E+04  8.75633E+03 -1.24125E+04  1.14055E+04 -1.41403E+03  2.66400E+03  7.39821E+03
 -7.67278E+03  3.22375E+03 -6.85836E+03 -5.94744E+03 -8.84698E+02 -1.52503E+04  1.03066E+04 -1.63452E+04
  1.88521E+04 -8.88246E+03  2.10047E+04  3.23915E+03  1.83854E+04  1.52009E+04  8.56452E+03  2.35854E+04
 -4.14108E+03  2.52442E+04 -1.64604E+04  1.58804E+04 -1.82402E+04  3.55749E+03 -1.23303E+04 -4.52938E+03
 -5.81337E+03 -5.83929E+03 -6.00428E+02  5.15396E+02 -2.40727E+03  2.84962E+03 -6.12183E+03  4.75842E+03
 -1.21267E+04 -5.58205E+02 -1.28753E+04 -1.02149E+04 -4.91706E+03 -1.60904E+04  5.31021E+03 -1.31184E+04
  1.08188E+04 -5.29238E+03  7.97261E+03  3.38129E+03  4.26719E+01  5.51353E+03 -6.31937E+03 -1.90593E+02
 -5.41812E+03 -8.33160E+03 -8.70965E+02 -1.22008E+04  7.15766E+03 -1.31163E+04  1.61330E+04 -7.09842E+03
  1.92234E+04  1.72232E+03  1.39281E+04  1.12574E+04  2.88722E+03  1.51948E+04 -8.05970E+03  1.28700E+04
 -1.02721E+04  3.50585E+03 -5.15795E+03 -2.60698E+03  1.98426E+03 -3.46626E+03  6.85566E+03 -9.97210E+02
  5.89099E+03  5.56607E+03  1.35044E+03  1.02773E+04 -7.35726E+03  9.89295E+03 -1.30878E+04  2.70417E+03
 -8.21335E+03 -6.38071E+03  4.80796E+02 -1.07247E+04  6.76217E+03 -6.01850E+03  7.49365E+03  2.43374E+03
  1.10978E+03  7.60125E+03 -6.58657E+03  9.03632E+03 -1.01805E+04  4.18073E+03 -1.03580E+04 -3.40261E+03
 -6.16117E+03 -1.19975E+04  3.02675E+03 -1.38438E+04  1.14064E+04 -8.65057E+03  1.31539E+04  2.05988E+03
  7.88918E+03  1.02512E+04 -8.60271E+02  1.28211E+04 -9.05783E+03  6.89311E+03 -9.82661E+03 -1.08028E+03
 -8.63231E+03 -8.57851E+03 -1.67356E+03 -9.18742E+03  4.90769E+03 -7.49674E+03  5.57385E+03 -3.16368E+03
  3.92137E+03  1.23877E+03 -6.46859E+02  1.55836E+03 -3.11193E+02 -2.24076E+03  1.59335E+03 -5.19134E+03
  8.56535E+03 -3.31553E+03  1.18857E+04  1.42181E+03  1.16162E+04  7.72926E+03  8.21757E+03  1.53521E+04
 -3.70774E+03  1.78145E+04 -1.51521E+04  1.35991E+04 -1.93413E+04  2.53680E+03 -1.59090E+04 -6.20721E+03
 -7.73089E+03 -1.26933E+04 -5.08024E+02 -1.07182E+04  3.78650E+03 -5.84452E+03  3.84415E+03 -3.87064E+03
  2.99211E+03 -2.47239E+03  3.36574E+03 -3.49515E+03  4.64345E+03 -2.45137E+03  6.05878E+03 -8.62528E+02
  8.34857E+03  2.08523E+03  4.01159E+03  6.87687E+03 -1.91868E+03  8.16616E+03 -8.73175E+03  6.05719E+03
 -1.05607E+04 -1.37081E+03 -6.31087E+03 -7.52624E+03 -4.41204E+02 -1.14169E+04  6.45407E+03 -1.16790E+04
  1.17443E+04 -6.63664E+03  1.42022E+04  1.97810E+03  1.01455E+04  9.39803E+03  1.63712E+03  1.27721E+04
 -5.55727E+03  1.09614E+04 -7.41579E+03  4.12812E+03 -4.90188E+03 -1.42988E+03 -2.16850E+03 -1.71871E+03
 -9.54323E+02  2.37011E+02 -1.75707E+03  2.75278E+03 -4.67028E+03  2.01851E+03 -7.34023E+03 -8.23161E+02
 -4.67879E+03 -7.73623E+03  2.00365E+02 -1.05911E+04  6.35372E+03 -9.54926E+03  9.93496E+03 -2.91510E+03
  1.01065E+04  5.31884E+03  4.86516E+03  9.29318E+03 -2.10032E+03  1.06652E+04 -7.62370E+03  6.53581E+03
 -9.76473E+03  7.25979E+02 -7.49518E+03 -5.96140E+03 -9.95274E+02 -8.51991E+03  4.42136E+03 -6.20085E+03
  6.65055E+03 -2.15037E+03  4.50369E+03  1.44150E+03  1.82008E+03  3.14225E+03  1.25902E+03  1.39905E+03
  2.16868E+03  5.24512E+02  2.46363E+03  1.62795E+03  2.91653E+03  3.71792E+03  2.58511E+03  5.07438E+03
 -2.00859E+03  7.93575E+03 -7.24777E+03  8.27554E+03 -9.93655E+03  2.18636E+03 -1.07146E+04 -3.75972E+03
 -4.96899E+03 -1.02768E+04  1.66056E+03 -1.12170E+04  5.85044E+03 -6.68966E+03  8.28718E+03 -1.92041E+03
  6.12564E+03  3.95947E+03  1.40087E+03  5.84099E+03 -2.29357E+03  3.78037E+03 -4.10649E+03 -3.36646E+02
 -1.84903E+03 -4.04916E+03  2.38066E+03 -4.48022E+03  4.46216E+03 -2.51720E+03  3.97106E+03  1.05985E+03
  2.61653E+03  1.60270E+03  1.01448E+03  1.05818E+03 -7.15506E+02  1.29120E+03  1.42519E+03 -3.91874E+02
  1.48014E+03 -7.95332E+02  3.88003E+03  1.59308E+03  2.02975E+03  5.49587E+03 -6.81190E+02  7.01449E+03
 -4.95737E+03  4.37421E+03 -6.27163E+03  1.27389E+03 -5.68145E+03 -2.03597E+03 -2.20668E+03 -3.84514E+03
  7.35877E+02 -3.80934E+03  2.36179E+03 -1.65966E+03  2.28399E+03  1.92164E+03 -1.36423E+03  3.09334E+03
 -4.37335E+03  1.97053E+03 -4.59674E+03 -2.69416E+03 -2.25117E+03 -5.59767E+03  7.15947E+02 -5.13952E+03
  2.90934E+03 -3.30689E+03  3.39169E+03 -2.12435E+02  3.03858E+03  1.18997E+03  4.62754E+02  2.86390E+03
 -1.56855E+03  6.52484E+02 -2.47385E+03 -1.63598E+03  9.79606E+02 -3.70495E+03  4.96353E+03 -3.36945E+03
  5.56044E+03  2.78491E+02  6.17833E+03  3.75818E+03  2.20648E+03  6.18955E+03 -1.92411E+03  5.64858E+03
 -5.08579E+03  2.10646E+03 -5.01991E+03 -9.28717E+02 -2.75300E+03 -4.31672E+03  8.81374E+02 -3.53324E+03
  3.85586E+03 -1.77401E+03  3.08080E+03  1.59367E+03  6.02992E+02  3.70315E+03 -4.98681E+02  3.22616E+03
 -1.35799E+03  2.56674E+03 -1.36450E+03  9.74567E+02 -6.54516E+02  2.41087E+02 -1.27519E+03  1.15793E+03
 -1.73682E+03  2.29226E+03 -4.36119E+03  2.15204E+03 -5.52234E+03  8.04859E+01 -6.97871E+03 -4.01832E+03
 -3.49408E+03 -7.56788E+03  1.80822E+03 -9.27191E+03  5.33245E+03 -7.59877E+03  8.99197E+03 -3.08335E+03
  8.01949E+03  1.11345E+03  4.74658E+03  5.35071E+03  1.50791E+02  5.97810E+03 -2.70327E+03  4.64722E+03
 -3.23039E+03  1.88961E+03 -1.92781E+03 -3.94238E+02 -1.08153E+03 -1.89963E+02 -7.46352E+02  1.43486E+02
 -1.30674E+03 -5.26697E+02 -1.50097E+03 -2.98104E+02  6.50703E+01 -1.37136E+03  1.27802E+02 -2.55773E+03
  2.76172E+03 -2.08505E+03  3.42579E+03 -2.18846E+02  4.34865E+03  3.37918E+03  7.27887E+02  6.00502E+03
 -2.99846E+03  6.91954E+03 -6.57219E+03  4.03785E+03 -7.31161E+03 -6.07651E+02 -5.43431E+03 -4.70111E+03
 -2.34782E+03 -6.02440E+03  1.46469E+03 -5.76081E+03  3.84924E+03 -3.37855E+03  3.69423E+03  3.78681E+02
  2.62941E+03  1.82099E+03 -7.56569E+00  1.87234E+03 -6.22578E+02 -1.51780E+02 -2.48557E+02 -1.11424E+03
  1.93837E+03 -7.15152E+02  2.23569E+03  9.50516E+02  1.49281E+03  2.18362E+03  3.46263E+02  2.73097E+03
 -2.74162E+03  2.46173E+03 -3.65788E+03  6.73922E+02 -3.36272E+03 -2.47021E+03 -5.97472E+02 -4.38347E+03
  2.63409E+03 -3.76686E+03  3.89283E+03 -1.12277E+03  4.28497E+03  5.44047E+02  2.37459E+03  3.73963E+03
  7.69441E+02  3.77595E+03 -1.16555E+03  2.70319E+03 -2.52102E+03  1.68621E+03 -1.84823E+03  2.19221E+02
 -1.09349E+03 -1.22123E+02 -1.49272E+03  2.82939E+02 -2.07393E+03  8.12922E+02 -2.72134E+03 -1.10751E+03
 -3.26076E+03 -1.75135E+03 -1.10761E+03 -3.74512E+03  1.70351E+03 -4.39133E+03  3.39039E+03 -1.96080E+03
  3.79181E+03  2.06042E+02  1.34829E+03  2.46345E+03 -2.41808E+02  3.49771E+03 -2.51220E+03  2.64274E+03
