 $NMID ID='MM_0lb_SNR800_20hz_g60_65.RAW', FMTDAT='(8E13.5)'
 TRAMP=1., VOLUME=1. $END
  3.09887E+05  1.60062E+02  3.37405E+05  2.50529E+05  8.44877E+04  3.37652E+05 -1.32430E+05  2.50602E+05
 -1.89908E+05  8.31068E+04 -1.11398E+05 -3.26739E+04  1.30933E+03 -5.02988E+04  5.41145E+04  5.96632E+01
  3.53150E+04  5.27317E+04 -1.69348E+04  7.49861E+04 -6.03845E+04  6.32706E+04 -8.35303E+04  3.15906E+04
 -8.03210E+04 -1.12489E+04 -5.67188E+04 -5.06668E+04 -1.48704E+04 -6.86191E+04  2.68778E+04 -4.53117E+04
  3.92851E+04  3.89037E+03  1.55298E+04  4.75349E+04 -3.42048E+04  4.66287E+04 -6.56912E+04 -3.62932E+02
 -5.25107E+04 -5.60443E+04 -6.53677E+03 -7.60489E+04  3.32650E+04 -5.39295E+04  4.68759E+04 -1.65135E+04
  4.22453E+04  1.11777E+04  3.09372E+04  2.45438E+04  1.56421E+04  2.85719E+04 -5.06516E+03  2.67341E+04
 -2.17639E+04  1.27697E+04 -1.87885E+04 -4.61812E+03  4.78999E+03 -7.53602E+03  2.14491E+04  1.15801E+04
  7.43368E+03  3.40595E+04 -3.11886E+04  3.43949E+04 -6.15110E+04  2.07249E+03 -5.57020E+04 -4.17467E+04
 -1.24099E+04 -6.14138E+04  3.85730E+04 -4.38467E+04  5.64478E+04 -2.26022E+03  3.28482E+04  3.09258E+04
 -6.40290E+03  3.40972E+04 -2.89276E+04  1.40102E+04 -2.82525E+04 -4.90675E+03 -1.49690E+04 -1.02828E+04
 -7.46258E+03 -1.17150E+04 -1.04808E+03 -1.68990E+04  6.80144E+03 -2.27612E+04  1.51530E+04 -1.37552E+04
  1.20282E+04  4.42443E+03 -6.62750E+03  1.28577E+04 -1.95839E+04 -2.90000E+03 -8.16802E+03 -3.12746E+04
  2.13153E+04 -4.11874E+04  4.58763E+04 -1.89148E+04  4.27473E+04  1.87335E+04  1.45753E+04  4.21546E+04
 -1.52846E+04  3.14514E+04 -2.37564E+04  1.15625E+03 -8.42953E+03 -2.65850E+04  2.06710E+04 -3.18543E+04
  3.88224E+04 -7.73978E+03  3.25670E+04  2.29817E+04  1.61079E+04  4.35073E+04 -7.68537E+03  4.62161E+04
 -2.92399E+04  3.06049E+04 -3.83888E+04  8.49077E+03 -3.90195E+04 -1.54139E+04 -2.17366E+04 -3.53023E+04
  6.92440E+03 -3.48305E+04  2.96588E+04 -1.30879E+04  2.74699E+04  1.07129E+04  3.16655E+03  1.80005E+04
 -1.34560E+04  7.63843E+03 -9.94907E+03 -7.59444E+03  6.05110E+03 -1.01731E+04  1.73304E+04  6.59814E+03
  1.26240E+04  2.17662E+04 -6.57818E+03  2.34177E+04 -2.14685E+04  9.58701E+03 -2.55072E+04 -5.90416E+03
 -1.71457E+04 -1.64195E+04 -6.10305E+03 -1.71098E+04  3.79143E+03 -1.56376E+04  1.30231E+04 -1.50200E+04
  2.23304E+04 -1.17271E+04  2.87254E+04  1.22856E+03  2.13029E+04  1.72625E+04  3.82104E+03  3.30387E+04
 -1.65814E+04  2.80635E+04 -2.61171E+04  9.79786E+03 -1.99178E+04 -1.06890E+04 -3.98678E+03 -1.38129E+04
  2.36800E+03 -3.77303E+03 -2.83161E+03  5.63064E+03 -1.30991E+04  5.49467E+03 -1.38093E+04 -5.34154E+03
 -8.82960E+03 -1.56574E+04  4.49847E+03 -1.97890E+04  1.28632E+04 -1.45804E+04  1.50912E+04 -1.41621E+03
  9.09803E+03  1.06452E+04 -9.22444E+02  1.61529E+04 -1.05648E+04  8.65131E+03 -1.55248E+04 -3.46391E+03
 -1.17548E+04 -1.44298E+04 -1.60531E+03 -1.92460E+04  8.82835E+03 -1.57611E+04  1.65577E+04 -7.54765E+03
  1.47873E+04  5.33335E+02  1.06148E+04  3.69804E+03  5.32125E+03  4.55281E+02  7.76722E+03 -1.50982E+03
  1.40706E+04  2.51306E+03  1.48344E+04  1.26593E+04  9.11267E+03  2.50418E+04 -3.08356E+03  2.70578E+04
 -1.60364E+04  2.06973E+04 -2.46288E+04  9.51288E+03 -2.53014E+04 -1.83818E+03 -2.15425E+04 -1.45011E+04
 -1.01790E+04 -2.04018E+04  6.81372E+03 -1.92143E+04  1.66882E+04 -1.07437E+04  1.58751E+04  3.56598E+03
  6.59633E+03  1.12403E+04 -7.01637E+03  1.02315E+04 -1.31358E+04  2.86108E+03 -1.02369E+04 -7.93463E+03
  1.80845E+02 -1.26707E+04  6.23615E+03 -9.55244E+03  7.88758E+03 -1.41504E+03  1.67022E+03  4.96470E+03
 -5.35868E+03  1.09362E+03 -3.78184E+03 -4.52479E+03  4.66747E+02 -1.02200E+04  7.68243E+03 -9.94115E+03
  1.22689E+04 -4.76489E+03  1.22267E+04  2.91286E+03  1.02413E+04  9.24883E+03  4.83582E+03  1.37409E+04
 -1.70077E+03  1.56472E+04 -9.45840E+03  9.79254E+03 -1.09927E+04  2.96246E+03 -8.04094E+03 -1.60565E+03
 -4.66782E+03 -3.29428E+03 -6.33057E+02  1.56689E+03 -2.24736E+03  2.06184E+03 -3.62059E+03  3.55989E+03
 -7.87573E+03 -6.00393E+02 -8.73478E+03 -6.97173E+03 -3.47365E+03 -1.14959E+04  3.82159E+03 -8.42435E+03
  7.20281E+03 -3.67163E+03  5.29128E+03  1.61391E+03  5.12537E+02  3.02451E+03 -3.37668E+03 -2.22951E+02
 -3.37350E+03 -5.03228E+03 -7.89007E+02 -7.01499E+03  3.83224E+03 -7.39121E+03  9.51155E+03 -3.85453E+03
  1.16074E+04  5.68433E+02  8.49764E+03  6.13991E+03  1.92062E+03  8.47940E+03 -5.03448E+03  8.10260E+03
 -6.98679E+03  2.92867E+03 -3.39537E+03 -1.18135E+03  1.16525E+03 -1.63515E+03  4.79402E+03 -1.06274E+03
  4.23106E+03  3.13225E+03  1.31180E+03  6.37730E+03 -4.23497E+03  6.15369E+03 -7.42528E+03  1.89445E+03
 -4.68530E+03 -3.30469E+03  1.62049E+02 -6.25906E+03  3.66351E+03 -3.02410E+03  3.45652E+03  1.02864E+03
  3.12283E+02  3.00424E+03 -3.94984E+03  4.36468E+03 -4.48083E+03  2.33911E+03 -4.05274E+03 -8.38906E+02
 -2.55339E+03 -5.60134E+03  7.88559E+02 -6.59470E+03  5.48140E+03 -4.32275E+03  5.88591E+03  8.17563E+02
  4.55163E+03  4.91472E+03  2.97505E+02  6.88358E+03 -4.74558E+03  3.89383E+03 -4.67862E+03 -2.61726E+02
 -5.59002E+03 -5.02779E+03 -1.25946E+03 -4.91094E+03  2.23422E+03 -4.23770E+03  2.68688E+03 -2.67502E+03
  2.52034E+03  4.54371E+01  1.84873E+02  1.26281E+03  6.92153E+02 -1.35313E+02  6.80016E+01 -1.58397E+03
  3.46114E+03 -3.48896E+02  4.50847E+03  5.21097E+02  4.88670E+03  2.53060E+03  5.12223E+03  6.18456E+03
 -9.87194E+02  7.70832E+03 -7.08135E+03  5.92220E+03 -9.06707E+03  1.14083E+03 -6.79281E+03 -2.31338E+03
 -3.49644E+03 -5.85236E+03 -6.03735E+02 -4.43949E+03  1.85465E+03 -1.85940E+03  1.57530E+03 -1.89754E+03
  1.32609E+03 -1.35703E+03  2.07853E+03 -2.36408E+03  3.44559E+03 -1.25294E+03  3.43779E+03  2.71894E+02
  4.02560E+03  1.11368E+03  8.17954E+02  3.23605E+03 -1.52995E+03  2.41825E+03 -3.95998E+03  2.16925E+03
 -4.29939E+03 -1.12262E+03 -1.27102E+03 -2.89588E+03  6.60253E+02 -4.24920E+03  2.72536E+03 -4.59824E+03
  4.33490E+03 -2.77297E+03  6.17168E+03 -3.03182E+01  4.54499E+03  3.57553E+03  1.13233E+03  5.39187E+03
 -1.79983E+03  5.21839E+03 -2.86070E+03  1.86870E+03 -1.60888E+03 -9.14869E+02 -5.95419E+01 -3.95937E+02
 -2.99398E+02  2.18544E+02 -7.33304E+02  1.93023E+03 -1.89314E+03  9.27777E+02 -3.72061E+03 -1.84553E+02
 -1.22484E+03 -3.47281E+03  1.14131E+03 -4.25044E+03  2.55075E+03 -3.82787E+03  2.99906E+03 -4.37937E+02
  3.20422E+03  2.17738E+03  1.54102E+03  2.67470E+03 -9.10982E+02  3.94433E+03 -2.36628E+03  2.34250E+03
 -3.08002E+03  5.37080E+02 -2.88013E+03 -2.00807E+03 -1.51477E+01 -2.38789E+03  1.26640E+03 -2.05474E+03
  2.29957E+03 -1.28210E+03  1.56318E+03 -1.25873E+02  1.93030E+02  1.50024E+03  9.03970E+02  4.32985E+02
  1.51555E+03  4.35567E+02  9.36976E+02  8.98441E+02  7.53064E+02  1.87729E+03  1.18361E+03  1.07702E+03
 -9.73417E+02  2.11864E+03 -2.03889E+03  3.54637E+03 -1.83538E+03  1.25713E+03 -3.35491E+03  1.39243E+02
 -1.41761E+03 -2.68439E+03  5.32225E+02 -4.04616E+03  1.12551E+03 -2.11707E+03  2.58063E+03 -1.03222E+03
  2.05775E+03  1.61893E+03  3.25360E+02  1.67809E+03 -5.62442E+02  1.10681E+03 -6.57845E+02 -8.04671E+01
 -3.50310E+02 -1.00580E+03  1.07199E+03 -1.26674E+03  7.41196E+02 -6.37037E+02  9.92879E+02  3.19834E+02
  4.76927E+02  1.38691E+02  8.09780E+02 -5.21727E+02 -1.73090E+02  3.88366E+02  1.55212E+03 -2.67686E+02
 -1.60214E+02 -2.82817E+02  1.38435E+03  6.08662E+02 -3.76193E+01  1.76982E+03 -3.33581E+02  2.33047E+03
 -1.32930E+03  6.63557E+02 -1.45264E+03  3.30748E+02 -1.69991E+03 -4.61983E+02  1.65202E+01 -6.00941E+02
  5.95445E+02 -4.75362E+02  6.64633E+02 -3.71096E+02  4.65238E+02  1.19402E+03 -7.92848E+02  8.29789E+02
 -1.13301E+03  3.94506E+02 -8.42555E+02 -8.10649E+02 -2.37288E+02 -1.68762E+03 -1.09628E+02 -1.28459E+03
 -4.94612E+01 -2.02014E+02  5.72172E+02 -8.49435E+01  8.44485E+02 -3.88447E+02  6.15788E+02  7.16052E+02
 -5.38671E+01  9.03565E+01 -5.94189E+02 -8.36670E+01  5.72072E+02 -5.76953E+02  1.34742E+03 -3.23421E+02
  5.92889E+02  9.08801E+00  2.40446E+03  6.12936E+02  1.26892E+03  1.11505E+03 -2.24694E+02  1.26243E+03
 -9.94560E+02 -3.00381E+02 -9.64650E+02 -4.12623E+02 -6.97416E+02 -1.00545E+03  3.32961E+02 -3.87799E+02
  1.01290E+03 -4.27022E+02  4.53979E+02  6.03094E+02 -3.77806E+01  9.57901E+02  3.83235E+02  1.04986E+03
 -5.60878E+02  1.07464E+03 -2.27956E+02 -2.00788E+01  1.11399E+00  3.04817E+02 -6.17057E+02  3.05654E+02
 -3.81076E+02  6.92414E+02 -1.36250E+03  3.52519E+02 -1.11073E+03  7.30558E+01 -1.65940E+03 -6.18953E+02
 -7.83146E+02 -1.46771E+03  2.43923E+02 -1.90596E+03  5.05616E+02 -1.95915E+03  2.00416E+03 -7.56679E+02
  1.40022E+03 -2.18622E+02  8.41790E+02  1.33842E+03 -5.88385E+02  8.88829E+02 -3.95094E+02  8.38005E+02
 -5.97153E+02  6.68717E+02 -4.22086E+02 -2.67714E+02 -3.78357E+02  1.88714E+02 -4.87527E+02 -2.94884E+02
 -1.14525E+03 -4.33821E+02 -8.14799E+02  6.15394E+01  5.10592E+02 -6.18305E+02 -3.28195E+02 -6.01863E+02
  8.28763E+02 -4.82548E+02 -9.48974E+01  7.93208E+01  7.85194E+02  7.92435E+02 -5.20099E+02  1.20384E+03
 -6.52646E+02  1.47211E+03 -1.12219E+03  1.11483E+03 -1.02183E+03 -7.06816E+00 -4.77293E+02 -9.46879E+02
 -6.77647E+02 -7.32451E+02 -6.17057E+01 -6.45189E+02  2.75475E+02 -1.14999E+02  4.29055E+02  1.77109E+02
  2.32307E+02  1.06837E+02  2.03310E+00  6.25509E+01  1.33649E+02  1.26055E+02  9.96843E+01  2.14595E+02
  2.93301E+02  3.70225E+02 -1.78343E+02  5.05876E+02 -3.41397E+02  1.71040E+02  5.21071E+02 -3.97248E+02
 -9.89659E+01  3.84966E+02  7.83504E+01  9.48438E+01 -3.38760E+02 -1.82820E+02 -2.16385E+01 -7.82677E+02
  6.40918E+01 -3.38983E+02 -8.42245E+01  2.01423E+02  4.86562E+02 -6.90279E+02  3.42612E+02  3.85732E+02
  6.95087E+02 -1.27990E+01 -1.23441E+02  3.41957E+02 -3.63437E+02  3.38209E+02  1.31492E+02 -1.29300E+02
  5.03913E+00  4.79788E+01 -6.13272E+02  1.70367E+02 -4.12114E+02  1.93237E+02 -5.16577E+02 -3.75008E+02
 -7.07147E+02  5.82768E+02 -1.46197E+02 -6.55315E+02  4.47626E+02 -9.85764E+02  5.10201E+02  2.15435E+02
  1.88182E+02 -1.80478E+02 -6.84127E+02 -1.22881E+02  1.04563E+02  3.40983E+02 -2.32449E+01  5.93745E+02
