 $NMID ID='MM_0lb_SNR800_7hz_g50_3.RAW', FMTDAT='(8E13.5)'
 TRAMP=1., VOLUME=1. $END
  3.09798E+05  2.07173E+02  3.38175E+05  2.51097E+05  8.52049E+04  3.38797E+05 -1.32322E+05  2.52045E+05
 -1.90786E+05  8.40597E+04 -1.13092E+05 -3.22486E+04  4.07203E+02 -5.07369E+04  5.37653E+04 -1.48531E+02
  3.58550E+04  5.30582E+04 -1.64267E+04  7.63830E+04 -6.13702E+04  6.45084E+04 -8.56156E+04  3.24766E+04
 -8.25759E+04 -1.16854E+04 -5.83466E+04 -5.31021E+04 -1.50995E+04 -7.19826E+04  2.89931E+04 -4.74633E+04
  4.17778E+04  3.98457E+03  1.72824E+04  4.90121E+04 -3.49622E+04  4.88024E+04 -6.87227E+04  2.11237E+02
 -5.54706E+04 -5.86066E+04 -7.76361E+03 -7.94144E+04  3.52023E+04 -5.78084E+04  5.03756E+04 -1.88778E+04
  4.61328E+04  1.16274E+04  3.36691E+04  2.69805E+04  1.62260E+04  3.10078E+04 -5.93493E+03  2.79212E+04
 -2.29442E+04  1.18064E+04 -1.74952E+04 -5.96269E+03  7.69641E+03 -6.77071E+03  2.40762E+04  1.44434E+04
  7.24047E+03  3.79877E+04 -3.46263E+04  3.73642E+04 -6.65023E+04  2.00738E+03 -5.92184E+04 -4.49141E+04
 -1.26043E+04 -6.70734E+04  4.25405E+04 -4.87965E+04  6.23548E+04 -2.70332E+03  3.79810E+04  3.53448E+04
 -5.24947E+03  4.05067E+04 -3.26524E+04  2.01865E+04 -3.47172E+04 -2.87455E+03 -1.97571E+04 -1.24652E+04
 -9.95040E+03 -1.55905E+04 -3.52048E+02 -2.05551E+04  9.13273E+03 -2.37354E+04  1.61094E+04 -1.22615E+04
  9.72025E+03  6.79889E+03 -1.11815E+04  1.29762E+04 -2.42127E+04 -7.00791E+03 -8.91542E+03 -3.89043E+04
  2.60314E+04 -4.79785E+04  5.38803E+04 -2.12248E+04  4.98006E+04  2.12354E+04  1.79259E+04  4.82086E+04
 -1.68781E+04  3.74037E+04 -2.85092E+04  3.39506E+03 -1.20185E+04 -3.01261E+04  2.17333E+04 -3.81556E+04
  4.62483E+04 -1.18926E+04  4.20647E+04  2.55883E+04  2.26414E+04  5.24483E+04 -8.73888E+03  5.85673E+04
 -3.70014E+04  4.01746E+04 -4.96177E+04  1.14627E+04 -4.98511E+04 -1.93313E+04 -2.69429E+04 -4.39377E+04
  7.65729E+03 -4.39570E+04  3.55283E+04 -1.83935E+04  3.30398E+04  1.13384E+04  6.11289E+03  2.15117E+04
 -1.42087E+04  1.02270E+04 -1.18431E+04 -8.01443E+03  5.66777E+03 -1.19142E+04  1.92761E+04  5.65223E+03
  1.52852E+04  2.25773E+04 -4.36051E+03  2.78643E+04 -2.37969E+04  1.52694E+04 -3.35207E+04 -1.87529E+03
 -2.69595E+04 -1.86575E+04 -1.30691E+04 -2.70964E+04  4.23086E+03 -2.82316E+04  2.10755E+04 -2.45533E+04
  3.46199E+04 -1.49234E+04  4.04276E+04  5.64782E+03  2.87061E+04  2.61057E+04  4.68103E+03  4.34375E+04
 -2.05286E+04  3.57773E+04 -3.20179E+04  1.21630E+04 -2.28941E+04 -1.03092E+04 -5.35467E+03 -1.29021E+04
 -5.75886E+01 -5.37127E+02 -9.00041E+03  8.72663E+03 -2.17552E+04  4.98206E+03 -2.16836E+04 -1.01946E+04
 -1.25963E+04 -2.51472E+04  6.47789E+03 -2.96955E+04  1.98842E+04 -2.12676E+04  2.46248E+04 -1.80013E+03
  1.61366E+04  1.76873E+04 -1.64040E+03  2.51382E+04 -1.82607E+04  1.46457E+04 -2.58426E+04 -4.74601E+03
 -1.80254E+04 -2.25582E+04 -2.45687E+03 -2.97468E+04  1.38841E+04 -2.54728E+04  2.52712E+04 -1.30855E+04
  2.40627E+04 -7.55594E+02  1.72166E+04  5.62411E+03  9.64630E+03  1.77755E+03  1.34749E+04 -2.29992E+03
  2.44959E+04  3.16682E+03  2.86593E+04  1.98801E+04  1.91960E+04  4.07542E+04 -2.77702E+03  4.87359E+04
 -2.76784E+04  4.12642E+04 -4.62733E+04  2.18394E+04 -4.97864E+04 -3.57096E+03 -4.00661E+04 -2.89960E+04
 -1.55143E+04 -4.15140E+04  1.49175E+04 -3.59584E+04  3.05059E+04 -1.64220E+04  2.64552E+04  9.06913E+03
  8.36708E+03  2.11823E+04 -1.24102E+04  1.71914E+04 -2.22250E+04  2.31808E+03 -1.65863E+04 -1.40545E+04
 -3.96975E+02 -2.09691E+04  1.17473E+04 -1.54617E+04  1.47576E+04 -1.76840E+03  3.98357E+03  9.80262E+03
 -9.53922E+03  5.05584E+03 -1.08166E+04 -7.17957E+03 -2.09720E+03 -2.03668E+04  1.31495E+04 -2.22944E+04
  2.56475E+04 -1.22532E+04  2.99433E+04  2.54401E+03  2.65868E+04  2.06487E+04  1.27708E+04  3.36005E+04
 -5.90847E+03  3.53825E+04 -2.35113E+04  2.22154E+04 -2.58368E+04  4.23728E+03 -1.73382E+04 -7.16554E+03
 -6.69352E+03 -8.68947E+03 -2.40494E+02  1.63200E+02 -2.81911E+03  4.23384E+03 -8.19014E+03  6.26972E+03
 -1.62387E+04 -1.33251E+03 -1.62104E+04 -1.29823E+04 -6.58192E+03 -2.17404E+04  7.24351E+03 -1.76296E+04
  1.39700E+04 -7.15126E+03  1.06581E+04  5.00826E+03 -4.67964E+02  6.67904E+03 -8.92126E+03  2.78059E+01
 -8.74886E+03 -1.15862E+04 -1.06184E+03 -1.81513E+04  1.04834E+04 -1.88456E+04  2.27090E+04 -1.01702E+04
  2.67629E+04  3.20867E+03  1.99818E+04  1.71354E+04  3.30346E+03  2.21247E+04 -1.08536E+04  1.77447E+04
 -1.39202E+04  5.20415E+03 -7.35185E+03 -3.67143E+03  3.00412E+03 -5.51521E+03  9.43151E+03 -6.44437E+02
  8.14013E+03  7.78043E+03  9.71739E+02  1.48222E+04 -1.05239E+04  1.37134E+04 -1.78335E+04  3.21162E+03
 -1.26291E+04 -1.01531E+04  1.85654E+02 -1.56058E+04  1.02949E+04 -7.92280E+03  1.12313E+04  4.28868E+03
  2.67545E+03  1.25386E+04 -9.23019E+03  1.37720E+04 -1.61497E+04  5.77061E+03 -1.72647E+04 -5.98997E+03
 -9.43097E+03 -1.90064E+04  4.84579E+03 -2.14328E+04  1.83398E+04 -1.27301E+04  2.03637E+04  3.64071E+03
  1.18976E+04  1.57111E+04 -2.20638E+03  1.81298E+04 -1.35384E+04  9.66404E+03 -1.54014E+04 -1.65449E+03
 -1.21044E+04 -1.19078E+04 -1.98909E+03 -1.42617E+04  7.46870E+03 -1.12756E+04  9.17588E+03 -4.02745E+03
  5.87810E+03  2.65590E+03 -1.29163E+03  2.41965E+03 -1.61714E+03 -4.32893E+03  3.61210E+03 -9.12393E+03
  1.35882E+04 -5.65309E+03  1.95853E+04  2.04766E+03  1.85575E+04  1.34899E+04  1.16863E+04  2.53441E+04
 -6.05109E+03  2.88187E+04 -2.39251E+04  2.11214E+04 -3.07749E+04  3.93589E+03 -2.52805E+04 -1.08892E+04
 -1.27125E+04 -2.06468E+04 -4.61564E+02 -1.77472E+04  6.71859E+03 -1.03402E+04  6.65260E+03 -6.25248E+03
  4.41534E+03 -3.83979E+03  4.17768E+03 -4.08674E+03  6.45711E+03 -4.53882E+03  1.00457E+04 -2.41721E+03
  1.27404E+04  3.37822E+03  7.33248E+03  1.17129E+04 -2.74696E+03  1.45644E+04 -1.35152E+04  1.05090E+04
 -1.77366E+04 -2.02038E+03 -1.21819E+04 -1.29010E+04 -1.74047E+03 -1.94661E+04  1.03316E+04 -1.97892E+04
  2.06852E+04 -1.09132E+04  2.39996E+04  3.47640E+03  1.64722E+04  1.67629E+04  2.52465E+03  2.18164E+04
 -9.31974E+03  1.73358E+04 -1.27208E+04  6.23810E+03 -8.61512E+03 -1.70308E+03 -3.85114E+03 -3.10164E+03
 -1.79070E+03 -4.47216E+02 -2.74441E+03  3.35065E+03 -7.41034E+03  2.84900E+03 -1.27922E+04 -1.66024E+03
 -9.95099E+03 -1.23504E+04 -2.75770E+02 -1.84066E+04  1.14272E+04 -1.71046E+04  1.92741E+04 -5.62156E+03
  1.80808E+04  8.48705E+03  8.42379E+03  1.72149E+04 -4.02175E+03  1.90807E+04 -1.34866E+04  1.12180E+04
 -1.78512E+04  9.70508E+02 -1.31911E+04 -1.11000E+04 -1.75365E+03 -1.59919E+04  7.75380E+03 -1.19466E+04
  1.21106E+04 -3.69290E+03  7.85058E+03  3.41496E+03  2.66154E+03  5.38572E+03  2.27929E+03  2.78382E+03
  2.98004E+03  1.14051E+03  4.65283E+03  2.05255E+03  5.51377E+03  6.33619E+03  4.85338E+03  1.07915E+04
 -3.67756E+03  1.53529E+04 -1.36588E+04  1.48132E+04 -2.03357E+04  3.89686E+03 -2.00828E+04 -8.70936E+03
 -9.85252E+03 -1.93696E+04  2.35942E+03 -2.11560E+04  1.19813E+04 -1.36240E+04  1.60036E+04 -3.70377E+03
  1.27593E+04  7.23150E+03  2.94308E+03  1.13507E+04 -5.34602E+03  7.27811E+03 -8.46247E+03 -1.01097E+03
 -3.58942E+03 -8.31873E+03  4.18754E+03 -8.80736E+03  8.48583E+03 -3.74289E+03  7.79931E+03  1.89842E+03
  5.28446E+03  4.07269E+03  2.21691E+03  3.77639E+03 -1.69295E+03  2.56671E+03  1.66395E+03 -7.02681E+02
  3.30063E+03 -1.50691E+03  7.99726E+03  3.10428E+03  5.36202E+03  1.06370E+04 -2.03750E+03  1.40789E+04
 -9.41611E+03  9.06925E+03 -1.29191E+04  2.25289E+03 -1.11635E+04 -4.71708E+03 -4.65386E+03 -8.22006E+03
  1.39719E+03 -7.87308E+03  5.06154E+03 -3.67996E+03  4.57807E+03  3.76616E+03 -1.47356E+03  6.45607E+03
 -8.80068E+03  3.82877E+03 -9.76264E+03 -4.83687E+03 -5.62911E+03 -1.06970E+04  1.80390E+03 -1.14222E+04
  7.21734E+03 -7.17766E+03  8.01642E+03 -1.36349E+03  6.54567E+03  3.02577E+03  7.14926E+02  5.84036E+03
 -4.49257E+03  1.66043E+03 -4.96928E+03 -4.64145E+03  1.73022E+03 -9.05045E+03  9.95656E+03 -6.87464E+03
  1.36535E+04  1.09712E+03  1.21509E+04  9.38243E+03  3.80028E+03  1.39222E+04 -5.15842E+03  1.28582E+04
 -1.11219E+04  5.91304E+03 -1.12450E+04 -2.14799E+03 -6.32654E+03 -8.90021E+03  2.10337E+03 -8.68555E+03
  8.47470E+03 -3.83811E+03  7.32068E+03  3.88638E+03  2.55515E+03  7.49608E+03 -1.52387E+03  6.64728E+03
 -3.72312E+03  4.11553E+03 -3.26068E+03  1.39699E+03 -1.76717E+03  1.62107E+03 -1.81157E+03  2.40195E+03
 -3.23602E+03  5.29274E+03 -9.21855E+03  4.85553E+03 -1.45364E+04  5.19898E+00 -1.56568E+04 -9.61225E+03
 -7.79305E+03 -1.84602E+04  3.34285E+03 -2.11370E+04  1.35890E+04 -1.65309E+04  2.03947E+04 -6.38382E+03
  1.82433E+04  3.93846E+03  1.17337E+04  1.26688E+04  1.41517E+03  1.46205E+04 -5.53889E+03  1.08839E+04
 -8.49767E+03  3.67313E+03 -5.13769E+03 -1.66267E+03 -1.91143E+03 -2.16812E+03 -6.28097E+02  7.76702E+01
 -2.05814E+03  4.80836E+02 -2.89251E+03 -3.11478E+02 -9.75081E+02 -3.69396E+03  1.66511E+02 -5.29379E+03
  6.06152E+03 -4.53529E+03  9.34566E+03  2.49090E+02  1.00932E+04  8.21393E+03  2.91316E+03  1.45043E+04
 -6.53504E+03  1.70485E+04 -1.55853E+04  1.02268E+04 -1.79769E+04 -1.84360E+03 -1.40869E+04 -1.10948E+04
 -5.17664E+03 -1.57916E+04  3.48072E+03 -1.41372E+04  9.72666E+03 -7.50392E+03  1.04063E+04  3.20093E+02
  4.99382E+03  5.14727E+03 -7.73995E+02  4.33730E+03 -2.65710E+03 -1.24458E+02  7.22709E+02 -4.07859E+03
  4.32971E+03 -2.45774E+03  6.06847E+03  1.83112E+03  4.21229E+03  6.10301E+03 -3.95547E+01  8.58842E+03
 -6.56804E+03  7.34678E+03 -1.07375E+04  1.11082E+03 -8.85635E+03 -7.30528E+03 -1.17609E+03 -1.28941E+04
  7.17053E+03 -1.09398E+04  1.21803E+04 -3.15485E+03  1.20187E+04  3.44159E+03  6.79916E+03  9.59893E+03
  1.35440E+03  1.03124E+04 -3.72138E+03  8.62450E+03 -6.56978E+03  4.81108E+03 -5.22464E+03  5.38482E+02
 -2.83573E+03 -7.49331E+02 -3.12751E+03  1.75962E+03 -5.12775E+03  1.94312E+03 -7.70770E+03 -2.06501E+03
 -7.09626E+03 -6.19215E+03 -1.82200E+03 -1.03416E+04  4.33360E+03 -1.06334E+04  9.22574E+03 -5.47889E+03
  1.05587E+04  1.41699E+03  6.28802E+03  7.36227E+03 -8.60651E+02  1.05161E+04 -7.91547E+03  7.15830E+03
