 $NMID ID='MM_0lb_SNR800_13hz_g40_57.RAW', FMTDAT='(8E13.5)'
 TRAMP=1., VOLUME=1. $END
  3.09671E+05  1.28132E+02  3.37596E+05  2.50309E+05  8.48432E+04  3.37936E+05 -1.32522E+05  2.50921E+05
 -1.90285E+05  8.28059E+04 -1.11629E+05 -3.25677E+04  7.21053E+02 -5.02071E+04  5.36311E+04 -2.94132E+02
  3.55051E+04  5.35783E+04 -1.66248E+04  7.55469E+04 -6.05024E+04  6.34740E+04 -8.38782E+04  3.20343E+04
 -8.13165E+04 -1.12432E+04 -5.71079E+04 -5.13381E+04 -1.49478E+04 -6.92860E+04  2.76620E+04 -4.58665E+04
  3.98496E+04  3.75797E+03  1.59877E+04  4.80381E+04 -3.47866E+04  4.73015E+04 -6.63149E+04 -4.63200E+02
 -5.32766E+04 -5.72050E+04 -6.62802E+03 -7.68107E+04  3.39170E+04 -5.49439E+04  4.76210E+04 -1.72291E+04
  4.33625E+04  1.12410E+04  3.18908E+04  2.54724E+04  1.60846E+04  2.92432E+04 -4.87785E+03  2.69983E+04
 -2.21251E+04  1.25608E+04 -1.88457E+04 -5.19750E+03  5.22860E+03 -7.27261E+03  2.21141E+04  1.22149E+04
  7.32993E+03  3.51049E+04 -3.21622E+04  3.56538E+04 -6.33044E+04  1.86858E+03 -5.66752E+04 -4.24434E+04
 -1.22304E+04 -6.28170E+04  3.99039E+04 -4.52946E+04  5.79240E+04 -2.24179E+03  3.43107E+04  3.22460E+04
 -6.36538E+03  3.61174E+04 -3.01646E+04  1.56244E+04 -3.01459E+04 -4.24894E+03 -1.64418E+04 -1.10855E+04
 -8.33561E+03 -1.29666E+04 -6.70153E+02 -1.78198E+04  7.13531E+03 -2.30216E+04  1.55213E+04 -1.35075E+04
  1.12956E+04  5.18521E+03 -8.14388E+03  1.28462E+04 -2.13546E+04 -4.28973E+03 -8.57480E+03 -3.36983E+04
  2.28113E+04 -4.37675E+04  4.79425E+04 -1.94279E+04  4.50063E+04  1.95627E+04  1.56722E+04  4.42617E+04
 -1.58959E+04  3.34991E+04 -2.53046E+04  1.64981E+03 -1.00780E+04 -2.77199E+04  2.08210E+04 -3.39833E+04
  4.07574E+04 -8.71023E+03  3.56328E+04  2.38756E+04  1.78630E+04  4.66219E+04 -7.75360E+03  5.01133E+04
 -3.15780E+04  3.34683E+04 -4.17620E+04  9.58947E+03 -4.26705E+04 -1.67578E+04 -2.33503E+04 -3.80405E+04
  7.66107E+03 -3.78249E+04  3.14670E+04 -1.45293E+04  2.89493E+04  1.08455E+04  3.68912E+03  1.90040E+04
 -1.35933E+04  8.05212E+03 -1.04340E+04 -7.96866E+03  5.74121E+03 -1.08001E+04  1.79771E+04  6.20180E+03
  1.34265E+04  2.19069E+04 -6.11063E+03  2.48092E+04 -2.22267E+04  1.14338E+04 -2.78908E+04 -4.83755E+03
 -2.08566E+04 -1.72340E+04 -8.45146E+03 -2.04820E+04  3.77297E+03 -1.93345E+04  1.57164E+04 -1.82903E+04
  2.61921E+04 -1.26656E+04  3.26012E+04  2.97017E+03  2.38503E+04  1.99987E+04  4.47972E+03  3.61028E+04
 -1.76419E+04  3.05355E+04 -2.79185E+04  1.03672E+04 -2.08593E+04 -1.01939E+04 -4.47972E+03 -1.37834E+04
  1.85850E+03 -2.49004E+03 -4.82065E+03  6.72997E+03 -1.63191E+04  5.01392E+03 -1.61990E+04 -7.14360E+03
 -9.89147E+03 -1.91762E+04  5.33276E+03 -2.30658E+04  1.55842E+04 -1.67799E+04  1.82357E+04 -1.68735E+03
  1.13632E+04  1.32086E+04 -1.14266E+03  1.91611E+04 -1.31711E+04  1.07740E+04 -1.89558E+04 -3.97406E+03
 -1.41233E+04 -1.69635E+04 -1.97204E+03 -2.30616E+04  1.03667E+04 -1.88599E+04  1.90436E+04 -9.50010E+03
  1.76121E+04 -2.75791E+01  1.30480E+04  4.35047E+03  6.75099E+03  9.31659E+02  9.59162E+03 -1.75963E+03
  1.74548E+04  2.69278E+03  1.94325E+04  1.51059E+04  1.26706E+04  3.02990E+04 -2.98566E+03  3.43388E+04
 -2.00464E+04  2.74806E+04 -3.21285E+04  1.37671E+04 -3.39213E+04 -2.20670E+03 -2.78014E+04 -1.95697E+04
 -1.20424E+04 -2.77803E+04  9.48616E+03 -2.52368E+04  2.15965E+04 -1.30732E+04  1.93579E+04  5.48266E+03
  7.36263E+03  1.45208E+04 -9.28262E+03  1.26966E+04 -1.64039E+04  2.54220E+03 -1.24738E+04 -1.00115E+04
 -1.67530E+02 -1.55044E+04  7.93228E+03 -1.13636E+04  1.04301E+04 -1.13828E+03  2.40157E+03  6.62241E+03
 -7.07981E+03  2.48470E+03 -6.25505E+03 -5.63206E+03 -7.10946E+02 -1.32807E+04  9.77158E+03 -1.42964E+04
  1.72584E+04 -7.55607E+03  1.81831E+04  3.14876E+03  1.56969E+04  1.31333E+04  7.78328E+03  2.01464E+04
 -3.63656E+03  2.29454E+04 -1.42758E+04  1.41327E+04 -1.64025E+04  3.59304E+03 -1.11494E+04 -3.89999E+03
 -5.52629E+03 -5.06711E+03 -9.71875E+02  1.28033E+03 -2.39575E+03  2.61495E+03 -5.11215E+03  4.17953E+03
 -1.06975E+04 -7.04278E+02 -1.15490E+04 -9.37415E+03 -4.83704E+03 -1.48230E+04  4.79734E+03 -1.17971E+04
  9.51918E+03 -4.83516E+03  6.74228E+03  3.01734E+03  1.41603E+02  4.48526E+03 -5.14131E+03 -6.06264E+01
 -5.01837E+03 -7.68007E+03 -1.14364E+03 -1.08404E+04  6.19566E+03 -1.15111E+04  1.44812E+04 -5.92667E+03
  1.69492E+04  1.38440E+03  1.24604E+04  9.66672E+03  2.80318E+03  1.31638E+04 -7.27416E+03  1.13573E+04
 -9.38359E+03  3.44061E+03 -4.70923E+03 -1.92181E+03  1.84683E+03 -3.14716E+03  6.32925E+03 -1.13906E+03
  5.48270E+03  4.88604E+03  1.41978E+03  9.05052E+03 -6.25523E+03  8.76762E+03 -1.09835E+04  2.30197E+03
 -7.53100E+03 -5.67650E+03  4.39067E+02 -9.64923E+03  5.99977E+03 -4.77750E+03  5.93931E+03  1.78603E+03
  1.39578E+03  6.25430E+03 -5.96352E+03  7.67779E+03 -8.60531E+03  3.36340E+03 -8.35516E+03 -2.73795E+03
 -4.74712E+03 -1.00249E+04  2.31039E+03 -1.18728E+04  9.88910E+03 -7.33715E+03  1.10311E+04  1.98519E+03
  6.94902E+03  8.52634E+03 -7.28413E+02  1.09253E+04 -7.86560E+03  6.10714E+03 -8.29953E+03 -7.75653E+02
 -7.75350E+03 -7.45438E+03 -1.88535E+03 -8.01946E+03  4.49230E+03 -6.71239E+03  4.91198E+03 -3.02312E+03
  3.52761E+03  1.05812E+03 -8.28467E+02  1.37657E+03  5.17152E+01 -1.82856E+03  1.15128E+03 -4.18790E+03
  7.14885E+03 -2.18989E+03  9.88220E+03  8.94398E+02  9.76657E+03  6.47189E+03  7.29639E+03  1.31880E+04
 -2.43318E+03  1.49528E+04 -1.26173E+04  1.14079E+04 -1.68848E+04  2.02568E+03 -1.33905E+04 -5.24069E+03
 -6.69154E+03 -1.09059E+04 -3.93654E+02 -9.06452E+03  3.57678E+03 -4.45536E+03  3.26265E+03 -3.39734E+03
  2.19386E+03 -2.36662E+03  2.66960E+03 -2.99758E+03  4.49106E+03 -2.27017E+03  5.51275E+03 -4.37790E+02
  7.13087E+03  1.68363E+03  3.04589E+03  5.89958E+03 -1.58759E+03  6.48266E+03 -7.44767E+03  5.07212E+03
 -9.23411E+03 -1.33832E+03 -4.69697E+03 -6.46089E+03 -1.39432E+02 -9.30451E+03  5.43202E+03 -9.79367E+03
  9.78399E+03 -5.66334E+03  1.18804E+04  9.46619E+02  8.56225E+03  8.19183E+03  1.57462E+03  1.11031E+04
 -4.06598E+03  9.38895E+03 -6.16326E+03  3.21927E+03 -3.96221E+03 -1.59615E+03 -1.45881E+03 -1.34890E+03
 -7.64366E+02  2.43873E+02 -1.49601E+03  2.44964E+03 -4.14265E+03  1.53265E+03 -6.84520E+03 -9.20309E+02
 -4.06487E+03 -6.81750E+03  5.38883E+02 -8.83657E+03  5.46866E+03 -7.88957E+03  7.90900E+03 -2.30041E+03
  8.36048E+03  4.59283E+03  3.86900E+03  7.55906E+03 -1.89283E+03  8.70445E+03 -5.85765E+03  5.32292E+03
 -7.83572E+03  6.84657E+02 -6.31937E+03 -5.02559E+03 -5.15364E+02 -6.93955E+03  3.78507E+03 -5.19689E+03
  5.42254E+03 -2.21779E+03  3.62887E+03  1.19089E+03  1.22236E+03  2.74522E+03  7.47840E+02  1.17758E+03
  2.10719E+03  8.00644E+02  2.25419E+03  1.63855E+03  2.58638E+03  3.08291E+03  2.42391E+03  4.28922E+03
 -1.96658E+03  6.27384E+03 -5.92772E+03  6.87591E+03 -8.30409E+03  1.76228E+03 -8.59842E+03 -2.76109E+03
 -4.08035E+03 -8.11481E+03  1.49752E+03 -9.12682E+03  4.94804E+03 -5.45591E+03  6.76695E+03 -1.56723E+03
  5.21580E+03  3.37572E+03  1.24617E+03  4.49593E+03 -2.22438E+03  2.85678E+03 -3.08304E+03 -4.38851E+02
 -1.54929E+03 -3.12901E+03  2.15324E+03 -3.45619E+03  3.51696E+03 -2.19841E+03  3.12909E+03  2.28788E+02
  2.04069E+03  1.36910E+03  1.11206E+03  7.19082E+02 -5.33971E+02  1.21903E+03  1.27930E+03 -4.71239E+02
  9.50975E+02 -2.48329E+02  3.66572E+03  1.30977E+03  1.69389E+03  4.50989E+03 -8.63053E+02  5.62555E+03
 -3.90220E+03  3.31053E+03 -5.30702E+03  9.10015E+02 -4.39939E+03 -1.84386E+03 -1.38412E+03 -2.72061E+03
  2.44215E+02 -3.01999E+03  2.16370E+03 -1.41599E+03  1.81013E+03  1.78611E+03 -1.08558E+03  2.84209E+03
 -3.39330E+03  1.76498E+03 -3.31661E+03 -1.99442E+03 -2.12308E+03 -4.66302E+03  7.38504E+02 -4.01287E+03
  2.33652E+03 -2.38904E+03  2.90520E+03 -2.46295E+02  2.92718E+03  8.89659E+02  7.28934E+02  2.39200E+03
 -1.23721E+03  1.23215E+02 -2.20165E+03 -1.35448E+03  7.11439E+02 -2.82503E+03  3.57410E+03 -2.72475E+03
  4.53510E+03  3.67599E+02  5.17228E+03  3.08660E+03  1.85985E+03  4.95899E+03 -1.35251E+03  4.82946E+03
 -4.07844E+03  1.84217E+03 -4.16670E+03 -6.98235E+02 -2.01990E+03 -3.22821E+03  7.72894E+02 -2.66686E+03
  3.39908E+03 -1.98775E+03  2.44835E+03  1.17609E+03  6.56031E+02  3.05915E+03 -2.20962E+00  2.63862E+03
 -1.42647E+03  2.25571E+03 -1.11473E+03  7.92707E+02 -4.11152E+02  7.43993E+02 -1.07797E+03  8.67212E+02
 -1.13335E+03  2.18224E+03 -3.83113E+03  1.54373E+03 -4.83481E+03  7.46055E+01 -5.70137E+03 -2.88342E+03
 -2.70114E+03 -5.95866E+03  1.26293E+03 -7.37853E+03  4.27170E+03 -5.85763E+03  7.15188E+03 -2.30530E+03
  6.20982E+03  9.91726E+02  3.88147E+03  4.49204E+03  1.79871E+01  4.43982E+03 -1.98463E+03  3.76169E+03
 -2.56355E+03  1.48720E+03 -1.52223E+03 -7.56748E+02 -6.14594E+02 -7.94213E+01 -7.83370E+02 -1.25178E+02
 -1.42823E+03  2.82486E+02 -1.48963E+03 -7.34966E+01 -1.02478E+02 -1.20590E+03  1.53697E+01 -1.95461E+03
  2.48796E+03 -1.66253E+03  2.45595E+03 -2.80571E+02  3.14098E+03  2.49817E+03  7.01013E+01  4.85325E+03
 -2.30657E+03  5.58074E+03 -5.11716E+03  3.15625E+03 -5.78577E+03 -3.44344E+02 -3.98107E+03 -3.84640E+03
 -2.09342E+03 -4.70142E+03  1.40932E+03 -3.99950E+03  2.67077E+03 -2.23541E+03  2.77302E+03  2.71784E+02
  1.86132E+03  1.33054E+03  1.03087E+02  1.39217E+03 -9.14699E+02 -3.17654E+02  8.47840E-02 -8.65842E+02
  1.34213E+03 -2.85326E+02  1.52089E+03  5.41573E+02  9.51713E+02  1.81531E+03  2.73905E+02  1.98555E+03
 -1.92003E+03  2.24640E+03 -2.69622E+03  1.61267E+02 -2.64590E+03 -2.14213E+03 -5.50873E+02 -3.38039E+03
  1.92511E+03 -2.92677E+03  2.93516E+03 -1.11547E+03  3.21242E+03  4.83848E+02  2.06157E+03  2.69466E+03
  7.84360E+02  2.82701E+03 -1.00523E+03  2.44473E+03 -1.69789E+03  1.41481E+03 -1.43235E+03  5.29278E+02
 -6.68753E+02 -1.87109E+02 -9.34035E+02  3.76881E+02 -1.77519E+03  5.27438E+02 -2.43672E+03 -3.65934E+02
 -2.73232E+03 -9.72913E+02 -6.62109E+02 -3.25031E+03  1.37853E+03 -3.21831E+03  2.68932E+03 -1.38816E+03
  2.90775E+03  5.48905E+02  1.06240E+03  1.99105E+03 -2.89629E+02  2.71763E+03 -1.90034E+03  1.89263E+03
