 $NMID ID='MM_0lb_SNR800_10hz_g50_88.RAW', FMTDAT='(8E13.5)'
 TRAMP=1., VOLUME=1. $END
  3.09752E+05  3.42591E+02  3.37952E+05  2.50872E+05  8.46982E+04  3.38290E+05 -1.32884E+05  2.51708E+05
 -1.90698E+05  8.36772E+04 -1.12538E+05 -3.23220E+04  1.11050E+02 -5.06062E+04  5.39304E+04 -7.44225E+02
  3.56280E+04  5.29100E+04 -1.69858E+04  7.61087E+04 -6.12138E+04  6.43230E+04 -8.53440E+04  3.23535E+04
 -8.16813E+04 -1.14382E+04 -5.81127E+04 -5.19297E+04 -1.51137E+04 -7.09131E+04  2.81205E+04 -4.67091E+04
  4.09853E+04  3.46684E+03  1.66408E+04  4.84970E+04 -3.45439E+04  4.81573E+04 -6.79309E+04 -7.15121E+01
 -5.44321E+04 -5.74306E+04 -7.16152E+03 -7.84869E+04  3.45024E+04 -5.66832E+04  4.92768E+04 -1.81276E+04
  4.50316E+04  1.12084E+04  3.29278E+04  2.63768E+04  1.60446E+04  3.02917E+04 -5.58546E+03  2.77522E+04
 -2.23061E+04  1.19692E+04 -1.83626E+04 -5.58918E+03  7.04873E+03 -7.38931E+03  2.33487E+04  1.33761E+04
  6.80843E+03  3.69153E+04 -3.35825E+04  3.65871E+04 -6.52005E+04  2.19359E+03 -5.86428E+04 -4.41484E+04
 -1.26399E+04 -6.55686E+04  4.15519E+04 -4.70004E+04  6.05750E+04 -2.53496E+03  3.63021E+04  3.43866E+04
 -5.36519E+03  3.89850E+04 -3.17703E+04  1.78169E+04 -3.25286E+04 -4.03237E+03 -1.89316E+04 -1.14661E+04
 -9.19241E+03 -1.48653E+04 -4.29419E+02 -1.97694E+04  8.43450E+03 -2.37632E+04  1.61280E+04 -1.25101E+04
  1.04987E+04  5.99253E+03 -9.94877E+03  1.30202E+04 -2.28176E+04 -6.36470E+03 -8.56580E+03 -3.66015E+04
  2.44376E+04 -4.61259E+04  5.14604E+04 -2.08708E+04  4.80399E+04  2.06450E+04  1.70716E+04  4.64855E+04
 -1.66131E+04  3.56072E+04 -2.70993E+04  2.48720E+03 -1.16267E+04 -2.91154E+04  2.13204E+04 -3.64575E+04
  4.41303E+04 -1.10653E+04  3.97154E+04  2.45178E+04  2.09775E+04  5.00521E+04 -8.28239E+03  5.47307E+04
 -3.46918E+04  3.73718E+04 -4.64575E+04  1.04507E+04 -4.63983E+04 -1.74618E+04 -2.57794E+04 -4.12947E+04
  7.59696E+03 -4.14665E+04  3.39331E+04 -1.66435E+04  3.15236E+04  1.12166E+04  5.18489E+03  2.03196E+04
 -1.39252E+04  9.28892E+03 -1.10012E+04 -7.44471E+03  5.26935E+03 -1.14888E+04  1.83680E+04  5.73685E+03
  1.44890E+04  2.26340E+04 -5.08689E+03  2.64287E+04 -2.33703E+04  1.37554E+04 -3.07001E+04 -3.14297E+03
 -2.41802E+04 -1.79633E+04 -1.07576E+04 -2.42966E+04  4.50135E+03 -2.43144E+04  1.89454E+04 -2.20211E+04
  3.08638E+04 -1.39423E+04  3.70788E+04  4.55741E+03  2.61460E+04  2.36973E+04  4.25808E+03  4.04206E+04
 -1.94593E+04  3.30154E+04 -2.97482E+04  1.13721E+04 -2.20559E+04 -1.01632E+04 -4.88071E+03 -1.29567E+04
  6.40385E+02 -1.23134E+03 -6.90731E+03  8.57133E+03 -1.92588E+04  5.27043E+03 -1.92442E+04 -8.89190E+03
 -1.15483E+04 -2.22934E+04  5.97108E+03 -2.70979E+04  1.80720E+04 -1.91873E+04  2.13811E+04 -1.66418E+03
  1.37370E+04  1.55894E+04 -1.38029E+03  2.25547E+04 -1.56956E+04  1.29284E+04 -2.25461E+04 -4.89379E+03
 -1.66158E+04 -2.01152E+04 -2.18333E+03 -2.68130E+04  1.22369E+04 -2.23345E+04  2.21624E+04 -1.13074E+04
  2.14211E+04  2.69851E+01  1.51161E+04  4.91238E+03  8.51079E+03  1.14706E+03  1.17851E+04 -1.72836E+03
  2.10599E+04  2.70687E+03  2.40970E+04  1.77490E+04  1.65885E+04  3.58738E+04 -2.67426E+03  4.19361E+04
 -2.42315E+04  3.49602E+04 -3.94163E+04  1.80366E+04 -4.26039E+04 -3.46673E+03 -3.44834E+04 -2.47493E+04
 -1.39777E+04 -3.51796E+04  1.23118E+04 -3.09836E+04  2.65790E+04 -1.47723E+04  2.28299E+04  7.41894E+03
  8.21240E+03  1.77023E+04 -1.11278E+04  1.48867E+04 -1.94923E+04  2.76233E+03 -1.42143E+04 -1.21862E+04
 -3.51242E+02 -1.86782E+04  1.01850E+04 -1.36743E+04  1.27824E+04 -1.29314E+03  2.97850E+03  8.05168E+03
 -8.21293E+03  3.68283E+03 -8.68960E+03 -6.38971E+03 -1.53246E+03 -1.73211E+04  1.13550E+04 -1.85612E+04
  2.16056E+04 -1.03166E+04  2.40012E+04  3.47665E+03  2.13653E+04  1.72664E+04  9.67456E+03  2.69404E+04
 -5.09588E+03  2.91418E+04 -1.91113E+04  1.80678E+04 -2.13328E+04  3.94485E+03 -1.43960E+04 -5.50103E+03
 -6.62698E+03 -6.70468E+03 -9.40377E+02  6.37861E+02 -2.46316E+03  3.21484E+03 -7.14173E+03  5.32418E+03
 -1.31946E+04 -9.31576E+02 -1.41630E+04 -1.15758E+04 -5.76130E+03 -1.83093E+04  5.99171E+03 -1.52787E+04
  1.21797E+04 -6.25735E+03  8.53849E+03  3.96547E+03  3.56014E+01  5.91876E+03 -7.23757E+03 -2.30351E+02
 -7.64075E+03 -9.60476E+03 -1.26495E+03 -1.43526E+04  8.58560E+03 -1.52404E+04  1.87738E+04 -7.80961E+03
  2.20844E+04  2.01307E+03  1.61483E+04  1.27681E+04  2.93521E+03  1.77177E+04 -8.99258E+03  1.44582E+04
 -1.20032E+04  4.43744E+03 -5.94549E+03 -2.91166E+03  2.19154E+03 -4.30518E+03  8.14486E+03 -8.48830E+02
  6.85176E+03  6.37228E+03  1.39435E+03  1.19059E+04 -8.60364E+03  1.14225E+04 -1.46791E+04  2.80106E+03
 -1.01402E+04 -7.71653E+03  1.79444E+02 -1.28214E+04  8.05439E+03 -5.96356E+03  8.25332E+03  2.85553E+03
  1.69753E+03  9.55476E+03 -7.20657E+03  1.08560E+04 -1.23989E+04  4.89894E+03 -1.28688E+04 -4.05174E+03
 -7.53809E+03 -1.40865E+04  3.78942E+03 -1.66656E+04  1.45319E+04 -1.02795E+04  1.56586E+04  2.82030E+03
  9.25665E+03  1.19439E+04 -1.26324E+03  1.44849E+04 -1.08936E+04  8.02962E+03 -1.16692E+04 -1.07763E+03
 -1.02484E+04 -9.74269E+03 -1.64348E+03 -1.09451E+04  5.81126E+03 -8.97082E+03  7.30543E+03 -3.44408E+03
  4.86204E+03  2.31557E+03 -9.85465E+02  1.51137E+03 -8.17364E+02 -3.12536E+03  2.17832E+03 -6.81087E+03
  1.05128E+04 -4.27684E+03  1.44816E+04  1.75875E+03  1.43941E+04  1.04371E+04  9.43357E+03  1.88247E+04
 -4.53308E+03  2.20821E+04 -1.78903E+04  1.60697E+04 -2.36162E+04  3.31357E+03 -1.88900E+04 -8.06058E+03
 -9.86400E+03 -1.51652E+04 -3.22122E+02 -1.28763E+04  5.13429E+03 -7.64151E+03  4.27575E+03 -4.86014E+03
  3.47818E+03 -2.53664E+03  4.03949E+03 -3.79639E+03  5.58375E+03 -3.16630E+03  7.66249E+03 -9.17673E+02
  9.78039E+03  2.12059E+03  5.31584E+03  8.45327E+03 -1.72826E+03  1.02530E+04 -1.04594E+04  8.06200E+03
 -1.32429E+04 -1.25448E+03 -8.31527E+03 -9.09510E+03 -1.03082E+03 -1.46504E+04  7.96118E+03 -1.41717E+04
  1.47794E+04 -7.79329E+03  1.72776E+04  2.21654E+03  1.22580E+04  1.21012E+04  1.52559E+03  1.59005E+04
 -6.31392E+03  1.34273E+04 -9.44041E+03  4.53288E+03 -6.18589E+03 -1.50962E+03 -2.29389E+03 -1.95407E+03
 -1.43335E+03  1.30254E+02 -2.27593E+03  2.76420E+03 -5.68190E+03  2.40887E+03 -9.15485E+03 -1.43291E+03
 -6.44347E+03 -8.95263E+03 -3.25402E+01 -1.34210E+04  8.19416E+03 -1.22671E+04  1.28389E+04 -3.71697E+03
  1.28199E+04  6.21365E+03  6.20690E+03  1.16180E+04 -2.81513E+03  1.33145E+04 -9.30516E+03  8.39816E+03
 -1.25476E+04  4.38145E+02 -9.80912E+03 -7.67828E+03 -8.13749E+02 -1.11054E+04  5.93397E+03 -8.37686E+03
  8.24472E+03 -2.71182E+03  5.31167E+03  2.03405E+03  1.54643E+03  4.02466E+03  1.27692E+03  1.85556E+03
  2.67172E+03  8.78211E+02  3.26987E+03  1.35774E+03  3.95091E+03  4.82477E+03  3.70107E+03  6.82100E+03
 -2.50228E+03  1.03046E+04 -9.25402E+03  1.05756E+04 -1.35988E+04  2.64922E+03 -1.38313E+04 -5.62616E+03
 -6.43423E+03 -1.32573E+04  1.64467E+03 -1.46161E+04  8.03669E+03 -9.29842E+03  1.09196E+04 -2.48494E+03
  8.48415E+03  5.04779E+03  1.70980E+03  7.72097E+03 -3.88671E+03  4.86005E+03 -5.44701E+03 -3.02248E+02
 -2.22410E+03 -5.99281E+03  3.30563E+03 -6.03527E+03  5.69328E+03 -3.47661E+03  5.38111E+03  9.06992E+02
  2.89799E+03  2.40981E+03  1.29517E+03  2.01951E+03 -8.71472E+02  1.94069E+03  1.95183E+03 -7.06449E+02
  2.04577E+03 -4.50096E+02  5.10702E+03  2.48214E+03  3.16806E+03  7.34457E+03 -1.13820E+03  9.35992E+03
 -5.97930E+03  6.11177E+03 -8.71781E+03  1.48844E+03 -7.51430E+03 -2.76234E+03 -2.84385E+03 -5.38595E+03
  9.95624E+02 -5.09437E+03  3.49829E+03 -2.29839E+03  3.00125E+03  2.51741E+03 -1.15746E+03  4.32779E+03
 -5.50593E+03  2.47613E+03 -6.18501E+03 -3.19145E+03 -3.59351E+03 -6.92709E+03  1.05842E+03 -7.22826E+03
  4.09519E+03 -4.17771E+03  5.17814E+03 -3.52465E+02  4.17268E+03  1.84459E+03  8.22460E+02  3.95236E+03
 -2.48514E+03  9.75688E+02 -3.22983E+03 -2.45125E+03  1.39251E+03 -5.59321E+03  6.25429E+03 -4.41676E+03
  7.88824E+03  8.92379E+02  8.12679E+03  5.45816E+03  2.38236E+03  8.51399E+03 -3.56282E+03  7.83389E+03
 -6.81812E+03  3.36034E+03 -7.20367E+03 -1.29303E+03 -3.80681E+03 -5.24771E+03  1.00442E+03 -5.39768E+03
  5.35110E+03 -2.92887E+03  4.41436E+03  2.70773E+03  1.22089E+03  4.59310E+03 -6.17070E+02  3.97591E+03
 -2.23451E+03  2.94518E+03 -2.00547E+03  7.05978E+02 -7.55650E+02  9.60643E+02 -1.27753E+03  1.42685E+03
 -2.69776E+03  3.43722E+03 -6.16501E+03  3.03480E+03 -8.49592E+03 -8.32007E+01 -9.88667E+03 -5.71928E+03
 -4.97611E+03 -1.12440E+04  2.25366E+03 -1.33248E+04  8.13706E+03 -1.00563E+04  1.24233E+04 -3.98392E+03
  1.15661E+04  2.08723E+03  6.85890E+03  7.85604E+03  2.39616E+02  8.83609E+03 -3.42062E+03  6.46770E+03
 -5.07846E+03  2.61284E+03 -2.94591E+03 -9.33670E+02 -9.00621E+02 -7.48117E+02 -5.55500E+02  3.35508E+02
 -1.79294E+03  3.91244E+02 -2.11864E+03 -6.17404E+01 -4.03075E+02 -2.11460E+03  1.15780E+02 -3.25990E+03
  4.10558E+03 -2.94630E+03  5.46203E+03  3.17103E+01  5.79086E+03  4.72953E+03  1.74629E+03  8.75876E+03
 -4.07085E+03  1.02750E+04 -9.16555E+03  5.91501E+03 -1.10133E+04 -8.90682E+02 -7.82944E+03 -6.38183E+03
 -3.64879E+03 -8.78953E+03  1.98218E+03 -8.06929E+03  5.75981E+03 -4.46002E+03  5.95030E+03 -5.67703E+01
  3.15030E+03  3.14053E+03 -5.85915E+01  2.51742E+03 -2.07718E+03 -3.58841E+02 -2.10032E+02 -2.05905E+03
  2.77378E+03 -1.06918E+03  3.46541E+03  1.07895E+03  2.18922E+03  3.20584E+03  3.38112E+02  4.65514E+03
 -3.79822E+03  3.85322E+03 -6.04852E+03  3.56195E+02 -5.17702E+03 -4.35466E+03 -1.15741E+03 -7.04288E+03
  4.31828E+03 -5.88145E+03  6.37788E+03 -2.25833E+03  6.63137E+03  1.34871E+03  3.89783E+03  5.38211E+03
  5.17502E+02  5.68655E+03 -2.01233E+03  4.55632E+03 -3.55075E+03  2.52893E+03 -2.96345E+03  2.56299E+02
 -1.63465E+03 -2.05005E+02 -1.90434E+03  7.18637E+02 -3.26161E+03  7.77674E+02 -4.40739E+03 -9.02257E+02
 -4.75077E+03 -3.04699E+03 -1.40864E+03 -5.76551E+03  2.61910E+03 -5.98571E+03  5.16166E+03 -2.55147E+03
  5.84894E+03  7.12920E+02  2.86492E+03  4.07979E+03 -4.26797E+02  5.37406E+03 -4.22525E+03  3.90297E+03
