 $NMID ID='MM_0lb_SNR800_11hz_g55_83.RAW', FMTDAT='(8E13.5)'
 TRAMP=1., VOLUME=1. $END
  3.09987E+05  5.82420E+02  3.37714E+05  2.50674E+05  8.46898E+04  3.38223E+05 -1.32584E+05  2.51668E+05
 -1.90713E+05  8.37837E+04 -1.12353E+05 -3.22600E+04  4.02068E+02 -5.06084E+04  5.38244E+04 -9.18534E+01
  3.54240E+04  5.30043E+04 -1.69447E+04  7.60052E+04 -6.13923E+04  6.41696E+04 -8.51324E+04  3.24602E+04
 -8.23337E+04 -1.18119E+04 -5.81070E+04 -5.23627E+04 -1.50534E+04 -7.06138E+04  2.82112E+04 -4.64596E+04
  4.06434E+04  4.15537E+03  1.65146E+04  4.82606E+04 -3.44397E+04  4.79456E+04 -6.75451E+04  7.04015E+01
 -5.42542E+04 -5.77509E+04 -7.00791E+03 -7.86502E+04  3.46194E+04 -5.66079E+04  4.93800E+04 -1.82002E+04
  4.48771E+04  1.13272E+04  3.28251E+04  2.64373E+04  1.61493E+04  3.03045E+04 -5.76580E+03  2.76174E+04
 -2.22583E+04  1.21617E+04 -1.81891E+04 -5.48159E+03  6.67173E+03 -7.45265E+03  2.35962E+04  1.37089E+04
  7.06135E+03  3.68630E+04 -3.34209E+04  3.67544E+04 -6.52904E+04  1.95949E+03 -5.86060E+04 -4.41093E+04
 -1.25540E+04 -6.53299E+04  4.14296E+04 -4.69757E+04  6.05739E+04 -2.55467E+03  3.62232E+04  3.39320E+04
 -5.33121E+03  3.88080E+04 -3.14998E+04  1.82348E+04 -3.25084E+04 -4.04067E+03 -1.86823E+04 -1.17287E+04
 -9.68941E+03 -1.47535E+04 -7.20620E+02 -1.92117E+04  8.37520E+03 -2.33335E+04  1.56899E+04 -1.27013E+04
  1.07013E+04  5.89601E+03 -9.83615E+03  1.28934E+04 -2.29081E+04 -5.94941E+03 -8.50632E+03 -3.68272E+04
  2.46359E+04 -4.59767E+04  5.09036E+04 -2.04793E+04  4.78023E+04  2.06605E+04  1.68432E+04  4.65626E+04
 -1.67489E+04  3.51617E+04 -2.73156E+04  2.37187E+03 -1.09964E+04 -2.92427E+04  2.15617E+04 -3.56719E+04
  4.34528E+04 -1.05440E+04  3.91972E+04  2.47684E+04  2.07131E+04  4.98300E+04 -8.06688E+03  5.41327E+04
 -3.43653E+04  3.72318E+04 -4.58140E+04  1.06181E+04 -4.61787E+04 -1.78905E+04 -2.55736E+04 -4.10227E+04
  7.88662E+03 -4.08809E+04  3.33690E+04 -1.58772E+04  3.08850E+04  1.12095E+04  5.06195E+03  2.03827E+04
 -1.38895E+04  9.20190E+03 -1.09495E+04 -7.41198E+03  5.94572E+03 -1.13607E+04  1.90177E+04  5.47226E+03
  1.42486E+04  2.23434E+04 -5.37836E+03  2.65403E+04 -2.30003E+04  1.36565E+04 -3.03835E+04 -3.29987E+03
 -2.38528E+04 -1.80989E+04 -1.07996E+04 -2.35599E+04  4.45267E+03 -2.40525E+04  1.88180E+04 -2.15854E+04
  3.04413E+04 -1.38229E+04  3.62976E+04  3.91429E+03  2.61776E+04  2.31214E+04  4.29627E+03  4.02295E+04
 -1.87555E+04  3.30258E+04 -3.00761E+04  1.15478E+04 -2.21957E+04 -1.06969E+04 -4.68709E+03 -1.31097E+04
  1.05833E+03 -1.72759E+03 -6.84807E+03  7.88621E+03 -1.93756E+04  4.99173E+03 -1.85406E+04 -8.91864E+03
 -1.12982E+04 -2.21290E+04  6.27418E+03 -2.67253E+04  1.76046E+04 -1.86102E+04  2.14921E+04 -1.50081E+03
  1.35120E+04  1.54007E+04 -1.08098E+03  2.18536E+04 -1.53957E+04  1.23989E+04 -2.22243E+04 -4.88058E+03
 -1.61830E+04 -1.94721E+04 -2.00786E+03 -2.67774E+04  1.18339E+04 -2.21037E+04  2.15692E+04 -1.14452E+04
  2.08111E+04 -1.77444E+02  1.51851E+04  4.85192E+03  7.71003E+03  1.48362E+03  1.15191E+04 -2.17912E+03
  2.09032E+04  2.45903E+03  2.34090E+04  1.74706E+04  1.59723E+04  3.55456E+04 -2.76962E+03  4.12388E+04
 -2.35200E+04  3.40754E+04 -3.87122E+04  1.71531E+04 -4.11619E+04 -2.83965E+03 -3.35296E+04 -2.43122E+04
 -1.35483E+04 -3.44019E+04  1.19853E+04 -2.99892E+04  2.60303E+04 -1.48332E+04  2.26867E+04  6.89840E+03
  7.80185E+03  1.72719E+04 -1.06241E+04  1.47970E+04 -1.90842E+04  2.63414E+03 -1.45453E+04 -1.20595E+04
 -1.70144E+02 -1.81975E+04  1.00183E+04 -1.37929E+04  1.25142E+04 -1.17269E+03  2.47341E+03  8.03535E+03
 -8.26166E+03  3.90769E+03 -8.28000E+03 -6.49566E+03 -1.38980E+03 -1.66737E+04  1.15081E+04 -1.82558E+04
  2.10427E+04 -9.85432E+03  2.36317E+04  3.53447E+03  2.08446E+04  1.68529E+04  9.76979E+03  2.61857E+04
 -4.79927E+03  2.83416E+04 -1.85242E+04  1.73968E+04 -2.05539E+04  3.80732E+03 -1.39441E+04 -5.30875E+03
 -6.02293E+03 -6.89018E+03 -3.51831E+02  5.65204E+02 -2.72119E+03  3.13696E+03 -6.48342E+03  5.04315E+03
 -1.31366E+04 -8.83280E+02 -1.34745E+04 -1.10773E+04 -5.11294E+03 -1.76191E+04  5.71177E+03 -1.43391E+04
  1.20110E+04 -6.29919E+03  8.29186E+03  4.10155E+03 -1.40224E+02  5.50243E+03 -6.81250E+03 -1.78395E+02
 -6.97745E+03 -9.35057E+03 -1.49354E+03 -1.40722E+04  8.09132E+03 -1.45331E+04  1.82766E+04 -8.01420E+03
  2.10919E+04  1.94513E+03  1.58509E+04  1.28136E+04  2.75254E+03  1.67265E+04 -8.79329E+03  1.41665E+04
 -1.16498E+04  4.14027E+03 -5.85968E+03 -3.01229E+03  2.04897E+03 -3.91116E+03  7.31400E+03 -1.01131E+03
  6.69334E+03  6.15725E+03  9.06181E+02  1.12229E+04 -8.29302E+03  1.08699E+04 -1.40950E+04  2.29593E+03
 -9.39294E+03 -7.27450E+03  9.01491E+01 -1.23558E+04  7.69725E+03 -6.43167E+03  8.25842E+03  2.85273E+03
  1.75345E+03  8.62358E+03 -7.23844E+03  1.00128E+04 -1.16343E+04  4.51179E+03 -1.21076E+04 -4.28488E+03
 -7.10825E+03 -1.38662E+04  3.24004E+03 -1.57370E+04  1.32057E+04 -9.55690E+03  1.47363E+04  2.87629E+03
  8.96340E+03  1.14162E+04 -1.50340E+03  1.42236E+04 -1.03549E+04  7.81872E+03 -1.14248E+04 -1.34391E+03
 -9.78855E+03 -9.48249E+03 -1.19682E+03 -1.03218E+04  5.25064E+03 -8.52069E+03  6.92025E+03 -3.32356E+03
  4.68996E+03  1.83170E+03 -4.47907E+02  1.75394E+03 -2.84867E+02 -2.69347E+03  1.61824E+03 -6.54337E+03
  9.87034E+03 -4.01604E+03  1.34736E+04  1.42970E+03  1.33477E+04  9.18147E+03  9.06670E+03  1.80909E+04
 -4.08870E+03  2.07373E+04 -1.69530E+04  1.51591E+04 -2.19067E+04  3.03710E+03 -1.80809E+04 -7.69869E+03
 -8.87838E+03 -1.48844E+04 -4.28961E+02 -1.22757E+04  4.73500E+03 -7.12305E+03  4.46498E+03 -4.69721E+03
  3.30372E+03 -2.70787E+03  3.56521E+03 -3.58862E+03  5.28365E+03 -3.14445E+03  6.77637E+03 -1.24856E+03
  9.51770E+03  1.91812E+03  4.63918E+03  8.07752E+03 -2.04080E+03  9.31057E+03 -9.89418E+03  7.38288E+03
 -1.24889E+04 -1.53361E+03 -7.50870E+03 -8.62694E+03 -8.36420E+02 -1.31860E+04  7.26072E+03 -1.35391E+04
  1.38522E+04 -7.30592E+03  1.61595E+04  2.19673E+03  1.12858E+04  1.15354E+04  1.63564E+03  1.49881E+04
 -5.76311E+03  1.24074E+04 -8.69840E+03  4.22390E+03 -6.17029E+03 -1.59377E+03 -2.72409E+03 -1.68511E+03
 -7.84696E+02 -8.54796E+01 -2.09720E+03  2.72337E+03 -5.43743E+03  2.10877E+03 -8.57254E+03 -9.36379E+02
 -6.29831E+03 -8.58070E+03  4.07251E+02 -1.24823E+04  7.58056E+03 -1.12870E+04  1.19256E+04 -3.58654E+03
  1.18579E+04  6.20541E+03  5.70797E+03  1.07239E+04 -2.43630E+03  1.18994E+04 -8.63577E+03  7.63074E+03
 -1.13274E+04  3.97755E+02 -8.95094E+03 -6.99115E+03 -9.11075E+02 -1.00471E+04  4.98583E+03 -7.29060E+03
  7.66366E+03 -2.72972E+03  5.25858E+03  1.99247E+03  1.89910E+03  3.63532E+03  1.07814E+03  1.43379E+03
  2.45562E+03  9.60764E+02  2.62550E+03  1.67219E+03  3.78352E+03  4.44340E+03  2.96322E+03  6.18569E+03
 -2.42185E+03  9.56224E+03 -8.07551E+03  9.65343E+03 -1.21001E+04  2.69568E+03 -1.24326E+04 -4.96200E+03
 -6.16494E+03 -1.22010E+04  2.05095E+03 -1.33974E+04  6.88188E+03 -8.45421E+03  9.76793E+03 -2.40239E+03
  7.66443E+03  4.91819E+03  1.69055E+03  6.81037E+03 -3.54050E+03  4.42819E+03 -4.95369E+03 -1.05544E+03
 -2.31875E+03 -5.34634E+03  2.94672E+03 -5.21300E+03  4.84282E+03 -2.62256E+03  4.85957E+03  1.31665E+03
  3.02570E+03  2.18349E+03  9.87368E+02  1.69333E+03 -9.06755E+02  1.75397E+03  1.62109E+03 -4.22850E+02
  1.68943E+03 -6.00876E+02  4.62636E+03  2.03828E+03  2.54809E+03  6.52826E+03 -1.12046E+03  8.54555E+03
 -5.67074E+03  5.51538E+03 -7.93916E+03  1.44884E+03 -6.47930E+03 -2.45116E+03 -2.22116E+03 -4.28411E+03
  6.04907E+02 -4.95362E+03  3.03013E+03 -2.23268E+03  2.64752E+03  2.47787E+03 -1.20769E+03  4.02256E+03
 -4.71596E+03  2.30728E+03 -5.35978E+03 -2.74848E+03 -3.26289E+03 -6.45197E+03  1.25317E+03 -6.53867E+03
  3.34367E+03 -3.81028E+03  4.47091E+03 -4.41163E+02  3.94570E+03  1.61454E+03  4.17091E+02  2.90906E+03
 -2.06270E+03  8.19457E+02 -2.97163E+03 -2.33918E+03  1.50935E+03 -5.24302E+03  5.51126E+03 -3.84285E+03
  6.94609E+03  5.11141E+02  7.25548E+03  4.63044E+03  2.28564E+03  7.67702E+03 -2.98213E+03  7.33519E+03
 -6.02293E+03  2.99107E+03 -6.58659E+03 -1.05164E+03 -3.47550E+03 -4.81263E+03  1.29175E+03 -4.33127E+03
  4.84001E+03 -2.15624E+03  3.62592E+03  2.21304E+03  9.83763E+02  4.34505E+03 -5.71541E+02  3.65328E+03
 -1.84269E+03  2.59122E+03 -1.80986E+03  7.92023E+02 -5.24673E+02  8.04136E+02 -1.43742E+03  1.79403E+03
 -2.20121E+03  2.85931E+03 -5.37705E+03  2.44547E+03 -7.57934E+03  2.89668E+02 -8.71048E+03 -4.93061E+03
 -4.52372E+03 -9.64148E+03  1.90683E+03 -1.11622E+04  7.24091E+03 -8.74274E+03  1.06388E+04 -3.41286E+03
  1.01143E+04  1.93837E+03  6.21443E+03  7.39342E+03  3.15641E+02  7.71699E+03 -3.01536E+03  5.48622E+03
 -4.14777E+03  2.53591E+03 -2.53663E+03 -8.93704E+02 -1.49673E+03 -8.45951E+02 -5.58784E+02 -5.79784E+01
 -1.71389E+03  9.49131E+02 -1.72600E+03 -2.23683E+02 -6.24563E+02 -1.65587E+03 -2.27169E+02 -2.74883E+03
  3.67580E+03 -2.30068E+03  4.27122E+03  1.90095E+01  5.08016E+03  4.03886E+03  8.63086E+02  7.73010E+03
 -3.51472E+03  8.42804E+03 -8.06813E+03  5.08068E+03 -9.36446E+03 -8.68679E+02 -6.72820E+03 -5.82360E+03
 -3.00230E+03 -7.55536E+03  1.88535E+03 -7.19962E+03  4.13742E+03 -3.85434E+03  4.66217E+03  1.63345E+02
  2.49916E+03  2.05328E+03 -2.82382E+01  2.31150E+03 -1.52189E+03 -2.24614E+02  1.10695E+02 -1.63070E+03
  2.17276E+03 -8.31266E+02  2.66077E+03  1.52406E+03  1.85308E+03  3.26023E+03  2.08592E+02  3.46043E+03
 -3.26824E+03  3.61447E+03 -4.67617E+03  2.92603E+02 -4.51020E+03 -3.42930E+03 -4.86886E+02 -5.63101E+03
  3.46206E+03 -5.21749E+03  5.26117E+03 -1.69694E+03  5.39454E+03  9.40189E+02  3.06653E+03  4.66202E+03
  9.93526E+02  5.15073E+03 -2.04747E+03  4.11639E+03 -2.89782E+03  2.38344E+03 -2.37168E+03  1.70091E+02
 -1.15466E+03 -1.79883E+02 -1.93847E+03  6.65518E+02 -2.43335E+03  6.80838E+02 -3.68651E+03 -8.65179E+02
 -3.95953E+03 -2.34987E+03 -1.26447E+03 -4.90022E+03  2.40818E+03 -5.35025E+03  4.42174E+03 -2.47936E+03
  4.79222E+03  5.71899E+02  2.07342E+03  2.83803E+03 -3.00444E+02  4.86286E+03 -3.64771E+03  3.12280E+03
