 $NMID ID='MM_0lb_SNR800_20hz_g40_49.RAW', FMTDAT='(8E13.5)'
 TRAMP=1., VOLUME=1. $END
  3.09677E+05  5.94640E+02  3.36798E+05  2.50305E+05  8.41741E+04  3.36890E+05 -1.32347E+05  2.49750E+05
 -1.89342E+05  8.21279E+04 -1.10180E+05 -3.28350E+04  1.77267E+03 -5.00780E+04  5.37140E+04  5.76291E+02
  3.48821E+04  5.28971E+04 -1.71749E+04  7.42546E+04 -5.99700E+04  6.19287E+04 -8.23867E+04  3.11493E+04
 -7.89131E+04 -1.09477E+04 -5.58720E+04 -4.97528E+04 -1.49583E+04 -6.75498E+04  2.63504E+04 -4.40622E+04
  3.84958E+04  3.98898E+03  1.54989E+04  4.66701E+04 -3.36750E+04  4.58625E+04 -6.46305E+04 -4.59980E+02
 -5.11187E+04 -5.54749E+04 -5.83586E+03 -7.40637E+04  3.26354E+04 -5.21781E+04  4.53197E+04 -1.57824E+04
  4.05640E+04  1.08660E+04  2.99039E+04  2.40245E+04  1.57107E+04  2.76356E+04 -4.12965E+03  2.65441E+04
 -2.12704E+04  1.31858E+04 -1.93058E+04 -3.99422E+03  3.57108E+03 -7.89774E+03  2.05094E+04  1.01516E+04
  7.63994E+03  3.23375E+04 -2.98515E+04  3.33050E+04 -5.97939E+04  2.15957E+03 -5.44501E+04 -4.02950E+04
 -1.23146E+04 -5.96167E+04  3.69302E+04 -4.25431E+04  5.39733E+04 -1.84084E+03  3.06396E+04  2.99869E+04
 -6.54281E+03  3.15048E+04 -2.75746E+04  1.20415E+04 -2.63578E+04 -5.84193E+03 -1.31652E+04 -9.65480E+03
 -6.93717E+03 -1.04446E+04 -1.04634E+03 -1.59545E+04  6.42999E+03 -2.23938E+04  1.47379E+04 -1.42415E+04
  1.27787E+04  3.69121E+03 -5.12840E+03  1.31007E+04 -1.84137E+04 -1.47511E+03 -8.02933E+03 -2.86489E+04
  1.98217E+04 -3.90314E+04  4.30499E+04 -1.78738E+04  4.01220E+04  1.75892E+04  1.35020E+04  4.04887E+04
 -1.48673E+04  2.98981E+04 -2.23962E+04  7.19919E+02 -7.70330E+03 -2.56783E+04  2.01514E+04 -2.96079E+04
  3.65328E+04 -6.41298E+03  2.95201E+04  2.20115E+04  1.40613E+04  4.06550E+04 -7.72975E+03  4.27249E+04
 -2.71054E+04  2.80759E+04 -3.50625E+04  7.66944E+03 -3.61209E+04 -1.43156E+04 -2.01425E+04 -3.28553E+04
  6.69518E+03 -3.24207E+04  2.83350E+04 -1.19050E+04  2.59141E+04  1.06018E+04  2.33199E+03  1.73963E+04
 -1.26146E+04  6.72651E+03 -9.00579E+03 -7.57902E+03  6.21140E+03 -9.85796E+03  1.71066E+04  6.92403E+03
  1.16571E+04  2.13342E+04 -7.07809E+03  2.24284E+04 -2.11088E+04  7.95066E+03 -2.36698E+04 -7.09017E+03
 -1.48266E+04 -1.61892E+04 -4.62369E+03 -1.49790E+04  3.88726E+03 -1.24388E+04  1.08966E+04 -1.27511E+04
  1.92383E+04 -1.11583E+04  2.60033E+04  5.91350E+02  2.02175E+04  1.47331E+04  4.15508E+03  3.03369E+04
 -1.53592E+04  2.61608E+04 -2.48644E+04  8.79032E+03 -1.92476E+04 -1.03771E+04 -3.82593E+03 -1.41772E+04
  2.71020E+03 -4.74036E+03 -1.80192E+03  4.69179E+03 -1.14138E+04  5.35488E+03 -1.22171E+04 -4.12810E+03
 -8.00581E+03 -1.40208E+04  4.49910E+03 -1.77179E+04  1.16837E+04 -1.28826E+04  1.31907E+04 -1.49026E+03
  7.96002E+03  9.93253E+03 -3.01409E+02  1.41469E+04 -9.25710E+03  8.04405E+03 -1.42568E+04 -3.31330E+03
 -1.04821E+04 -1.28869E+04 -1.60348E+03 -1.73751E+04  7.99473E+03 -1.37991E+04  1.50312E+04 -6.45704E+03
  1.33079E+04  4.98859E+02  9.47568E+03  3.74875E+03  4.63923E+03  3.42166E+02  6.75008E+03 -1.44932E+03
  1.22758E+04  2.62113E+03  1.24920E+04  1.14612E+04  7.83182E+03  2.24893E+04 -3.04630E+03  2.37064E+04
 -1.41168E+04  1.73229E+04 -2.15031E+04  7.94580E+03 -2.12427E+04 -1.51959E+03 -1.89770E+04 -1.20064E+04
 -9.34938E+03 -1.74652E+04  5.90982E+03 -1.69084E+04  1.44445E+04 -1.02551E+04  1.40822E+04  2.91516E+03
  6.31329E+03  9.98743E+03 -6.51250E+03  9.51036E+03 -1.23029E+04  2.61388E+03 -9.52659E+03 -7.30713E+03
  4.43249E+01 -1.10244E+04  5.63750E+03 -8.52811E+03  7.10528E+03 -1.20241E+03  1.07662E+03  4.41435E+03
 -5.18825E+03  8.06300E+02 -2.90687E+03 -4.05141E+03  9.02812E+02 -8.91329E+03  7.28747E+03 -8.55854E+03
  1.06926E+04 -3.53515E+03  1.01403E+04  2.59757E+03  8.41951E+03  8.01002E+03  3.92402E+03  1.14304E+04
 -9.90284E+02  1.35852E+04 -7.93967E+03  8.66247E+03 -9.63133E+03  2.94875E+03 -7.35694E+03 -1.27560E+03
 -4.24636E+03 -2.66345E+03 -8.78334E+02  1.79110E+03 -1.71193E+03  1.83066E+03 -2.92546E+03  3.46063E+03
 -7.36475E+03 -6.15217E+02 -8.15122E+03 -6.67304E+03 -3.05665E+03 -1.02720E+04  3.25201E+03 -7.11976E+03
  6.16377E+03 -3.55543E+03  4.76081E+03  1.77818E+03  7.06563E+02  2.36406E+03 -2.90473E+03  9.57266E+01
 -2.61476E+03 -4.41016E+03 -7.83958E+02 -5.95099E+03  3.21048E+03 -6.55502E+03  8.20161E+03 -3.34261E+03
  1.01503E+04  4.44040E+02  7.75341E+03  4.88269E+03  1.44857E+03  7.34975E+03 -4.60722E+03  7.19026E+03
 -6.08230E+03  2.87964E+03 -3.12282E+03 -1.02079E+03  1.26377E+03 -1.47044E+03  4.34873E+03 -8.68691E+02
  3.99172E+03  2.78106E+03  1.08185E+03  5.38947E+03 -3.71670E+03  5.60730E+03 -6.76959E+03  1.60423E+03
 -4.26824E+03 -3.05502E+03  2.69735E+02 -5.82703E+03  3.24296E+03 -2.54256E+03  2.88704E+03  7.44466E+02
  8.38138E+00  2.49591E+03 -3.59569E+03  3.96550E+03 -3.76368E+03  2.35371E+03 -3.29482E+03 -9.25101E+02
 -2.19182E+03 -4.60817E+03  9.42940E+02 -5.59920E+03  4.95189E+03 -3.77454E+03  5.13830E+03  7.30662E+02
  3.82684E+03  4.45734E+03  2.90525E+02  6.23117E+03 -4.26654E+03  3.46711E+03 -4.42494E+03 -2.90364E+02
 -4.96633E+03 -4.53633E+03 -1.52733E+03 -4.19551E+03  2.17514E+03 -4.34574E+03  2.29426E+03 -2.69531E+03
  2.54584E+03 -2.30044E+02  2.10290E+02  9.86861E+02  5.72877E+02 -1.43478E+02 -1.00806E+02 -1.22765E+03
  2.91574E+03 -2.28530E+02  4.28467E+03  5.68964E+02  4.33911E+03  2.30255E+03  4.74709E+03  5.62695E+03
 -6.33416E+02  6.76057E+03 -6.28059E+03  5.21046E+03 -8.06251E+03  8.46106E+02 -6.37498E+03 -1.93680E+03
 -3.53832E+03 -5.40735E+03 -2.10243E+02 -4.23667E+03  2.09244E+03 -1.81821E+03  1.29942E+03 -1.52888E+03
  9.16927E+02 -1.29739E+03  1.83648E+03 -2.08844E+03  3.26012E+03 -1.12669E+03  3.20289E+03  8.32865E+02
  3.84253E+03  1.03073E+03  6.34451E+02  2.84381E+03 -1.60782E+03  1.85987E+03 -3.84838E+03  1.95055E+03
 -3.86298E+03 -1.16023E+03 -1.10868E+03 -2.84040E+03  5.54333E+02 -3.80515E+03  2.56084E+03 -4.31830E+03
  3.78762E+03 -2.65466E+03  5.49481E+03 -8.15640E+01  4.00013E+03  3.20361E+03  1.26449E+03  4.90207E+03
 -1.52216E+03  5.00811E+03 -2.64965E+03  1.48246E+03 -1.29784E+03 -8.61424E+02 -3.01389E+02 -2.99411E+02
 -3.01342E+02  5.15129E+02 -9.86554E+02  1.67241E+03 -2.13909E+03  9.05457E+02 -3.45298E+03 -4.99026E+02
 -1.03633E+03 -3.18681E+03  1.11066E+03 -3.73888E+03  2.05398E+03 -3.35708E+03  2.66092E+03 -8.70657E+02
  3.39355E+03  1.88600E+03  1.28853E+03  2.58654E+03 -5.31246E+02  3.40164E+03 -2.07521E+03  2.18692E+03
 -2.88733E+03  7.46997E+02 -2.89478E+03 -1.96284E+03 -2.60866E+02 -2.57795E+03  1.20842E+03 -1.91262E+03
  2.17449E+03 -1.39071E+03  1.34090E+03  7.40585E+01  2.33643E+02  1.18378E+03  7.32026E+02  2.66319E+02
  1.60399E+03  4.74330E+02  1.05711E+03  8.08008E+02  5.41320E+02  2.01567E+03  1.25134E+03  1.21142E+03
 -1.24385E+03  2.40581E+03 -2.09956E+03  3.32411E+03 -1.72577E+03  1.12304E+03 -3.38509E+03  2.79008E+02
 -1.28094E+03 -2.93880E+03  5.50784E+02 -3.66630E+03  1.07109E+03 -2.08214E+03  2.42043E+03 -7.28814E+02
  2.07121E+03  1.53479E+03  3.30899E+02  1.59524E+03 -2.63032E+02  9.45695E+02 -5.74569E+02  9.13877E+01
 -6.37439E+02 -1.22151E+03  8.18736E+02 -1.22474E+03  1.04182E+03 -5.41232E+02  1.05791E+03  1.78374E+02
  4.94901E+02  2.01531E+01  6.69993E+02 -4.84624E+02 -2.17420E+02  8.14758E+02  1.53688E+03 -3.36578E+02
 -2.31006E+02 -1.35742E+02  1.61520E+03  5.65574E+02 -1.90222E+02  1.84176E+03 -1.55605E+02  2.12241E+03
 -1.32333E+03  6.02231E+02 -1.65443E+03  1.13215E+02 -1.90289E+03 -6.11041E+02 -7.89905E-01 -8.29123E+02
  4.55162E+02 -5.39481E+02  5.86459E+02 -5.59986E+02  5.08169E+02  1.23050E+03 -6.37767E+02  7.87737E+02
 -1.20535E+03  4.75312E+02 -1.03539E+03 -1.04357E+03 -4.90176E+02 -1.79112E+03  2.99029E+02 -1.16769E+03
  2.13120E+02 -4.73844E+02  4.58674E+02  2.03987E+02  1.04322E+03 -2.44283E+01  5.25678E+02  6.59059E+02
 -7.60884E+01  1.71436E+01 -7.83228E+02  1.15663E+02  6.11019E+02 -3.92021E+02  1.22970E+03 -5.01484E+02
  6.92233E+02  3.35106E+01  2.15051E+03  2.27184E+02  1.20001E+03  1.22219E+03  6.63716E+01  1.05532E+03
 -1.12980E+03 -6.56531E+01 -1.06005E+03 -5.15077E+01 -5.60215E+02 -1.07110E+03 -4.43599E+01 -2.12127E+02
  1.27386E+03 -6.65210E+02  5.84943E+02  7.67395E+02  8.70653E+01  1.15144E+03  3.83802E+02  9.55475E+02
 -1.31259E+02  1.25987E+03 -4.50355E+02  9.02288E+01  8.03377E+01  3.89816E+02 -2.37429E+02  4.88715E+02
 -3.82529E+02  6.64940E+02 -1.76040E+03  2.34230E+02 -1.33217E+03  3.71504E+02 -2.02021E+03 -6.95242E+02
 -1.07892E+03 -1.91220E+03  3.55984E+02 -2.19570E+03  5.75512E+02 -1.94578E+03  2.04313E+03 -1.04929E+03
  1.74727E+03 -2.08926E+02  6.30475E+02  1.35527E+03 -7.01844E+02  9.75727E+02 -5.70101E+02  9.73525E+02
 -6.38794E+02  2.51740E+02 -4.78184E+02 -3.40214E+02 -3.42304E+02  4.54255E+02 -4.36025E+02 -1.33046E+02
 -1.05398E+03 -1.92661E+02 -6.28479E+02  2.36049E+02  4.69599E+02 -2.94037E+02 -2.96097E+02 -7.69338E+02
  1.07377E+03 -5.70035E+02 -1.07065E+01  7.53710E+01  8.26718E+02  7.69929E+02 -4.48685E+02  1.31666E+03
 -5.24847E+02  1.58354E+03 -1.19321E+03  9.70651E+02 -1.23699E+03 -2.15529E+02 -8.06319E+02 -1.07920E+03
 -9.39934E+02 -9.00280E+02  3.81771E+02 -7.99206E+02  3.29943E+02 -3.04837E+02  4.16843E+02  8.55448E+01
  5.07225E+02  2.45019E+02  9.66173E+01  2.83326E+02 -1.92239E+02 -1.37908E+02 -2.29556E+02 -2.74118E+02
  4.32654E+02  4.40330E+02  1.13768E+02  4.65822E+01 -1.49783E+02  2.61521E+02  5.20712E+02  1.96263E+02
 -3.71047E+02  3.00301E+02 -2.30640E+02  2.81561E+02 -4.96488E+02 -2.69275E+02  1.60130E+02 -6.26252E+02
  6.48548E+02 -4.73435E+02  1.78459E+02  3.03150E+02  7.02743E+02 -6.72962E+02  1.39138E+02  4.77130E+02
  6.01754E+02  3.79813E+02 -1.51103E+02  4.94240E+02 -2.37095E+02  7.46005E+02 -3.13104E+02  1.45304E+02
 -6.85165E+01  5.97907E+01 -2.69070E+02  1.10949E+02 -4.74839E+02 -6.06825E+01 -9.70821E+02 -1.93066E+02
 -1.00292E+03  5.55146E+02 -1.59169E+02 -9.66980E+02  5.63811E+02 -1.63079E+03  6.73832E+02  1.70452E+02
  6.54195E+02  1.82770E+02 -7.79111E+01  8.91117E+01 -1.89023E+02  7.53380E+02 -6.99379E+01  3.65244E+02
