 $NMID ID='MM_0lb_SNR800_12hz_g60_37.RAW', FMTDAT='(8E13.5)'
 TRAMP=1., VOLUME=1. $END
  3.09863E+05  3.41852E+02  3.38028E+05  2.50758E+05  8.48219E+04  3.38461E+05 -1.32623E+05  2.51815E+05
 -1.90614E+05  8.35338E+04 -1.12051E+05 -3.29473E+04  3.54408E+02 -5.06322E+04  5.39656E+04 -7.14750E+02
  3.54940E+04  5.29006E+04 -1.66950E+04  7.61399E+04 -6.10889E+04  6.39124E+04 -8.50314E+04  3.25574E+04
 -8.21382E+04 -1.17238E+04 -5.81671E+04 -5.21648E+04 -1.53952E+04 -7.04401E+04  2.81303E+04 -4.65024E+04
  4.08062E+04  3.55955E+03  1.66666E+04  4.85723E+04 -3.49871E+04  4.78225E+04 -6.76125E+04  2.13455E+02
 -5.47830E+04 -5.77315E+04 -7.08341E+03 -7.83408E+04  3.44206E+04 -5.64831E+04  4.93052E+04 -1.81390E+04
  4.47876E+04  1.17297E+04  3.26093E+04  2.63232E+04  1.60803E+04  2.96711E+04 -5.43678E+03  2.77130E+04
 -2.20984E+04  1.20459E+04 -1.82573E+04 -5.74299E+03  6.75501E+03 -7.29928E+03  2.33204E+04  1.35090E+04
  7.30795E+03  3.64887E+04 -3.30438E+04  3.67181E+04 -6.53064E+04  2.24486E+03 -5.83582E+04 -4.38691E+04
 -1.25843E+04 -6.53237E+04  4.09390E+04 -4.69598E+04  6.02537E+04 -2.25113E+03  3.60564E+04  3.36101E+04
 -5.39492E+03  3.86882E+04 -3.11888E+04  1.79861E+04 -3.25323E+04 -3.92896E+03 -1.87008E+04 -1.18411E+04
 -9.30747E+03 -1.43200E+04 -5.08770E+02 -1.90021E+04  8.04014E+03 -2.31721E+04  1.61213E+04 -1.28492E+04
  1.10675E+04  5.84218E+03 -9.69171E+03  1.30749E+04 -2.27002E+04 -5.89451E+03 -8.45961E+03 -3.61262E+04
  2.45676E+04 -4.57953E+04  5.10416E+04 -2.04195E+04  4.76721E+04  2.07617E+04  1.71331E+04  4.60559E+04
 -1.64866E+04  3.51966E+04 -2.70006E+04  2.22808E+03 -1.11106E+04 -2.89812E+04  2.15815E+04 -3.60030E+04
  4.34783E+04 -1.05030E+04  3.88512E+04  2.48053E+04  2.00461E+04  4.97411E+04 -8.08245E+03  5.40750E+04
 -3.44175E+04  3.70343E+04 -4.59233E+04  1.08612E+04 -4.60576E+04 -1.78083E+04 -2.52825E+04 -4.07395E+04
  7.71522E+03 -4.11850E+04  3.31882E+04 -1.62402E+04  3.10945E+04  1.07218E+04  4.76252E+03  2.03214E+04
 -1.36683E+04  9.30954E+03 -1.10280E+04 -7.34862E+03  5.50345E+03 -1.12258E+04  1.90839E+04  5.64102E+03
  1.46786E+04  2.21982E+04 -5.30654E+03  2.65592E+04 -2.29795E+04  1.30708E+04 -3.07165E+04 -3.46286E+03
 -2.34704E+04 -1.79387E+04 -1.06968E+04 -2.36736E+04  4.22503E+03 -2.36256E+04  1.82596E+04 -2.11515E+04
  3.00252E+04 -1.36890E+04  3.61998E+04  3.97589E+03  2.63878E+04  2.28981E+04  4.20697E+03  3.94165E+04
 -1.87971E+04  3.26514E+04 -3.00835E+04  1.15327E+04 -2.16918E+04 -1.00563E+04 -4.66567E+03 -1.31628E+04
  1.23698E+03 -1.60292E+03 -6.28227E+03  7.83649E+03 -1.88205E+04  5.24860E+03 -1.88526E+04 -8.84462E+03
 -1.11238E+04 -2.14706E+04  5.97811E+03 -2.65432E+04  1.73478E+04 -1.83329E+04  2.09728E+04 -1.56018E+03
  1.38026E+04  1.49138E+04 -1.02658E+03  2.16459E+04 -1.52479E+04  1.21806E+04 -2.20278E+04 -4.52431E+03
 -1.64189E+04 -1.95213E+04 -2.22132E+03 -2.64971E+04  1.15625E+04 -2.13545E+04  2.19596E+04 -1.11613E+04
  2.08452E+04 -5.91848E+02  1.47579E+04  4.94693E+03  7.85004E+03  9.70190E+02  1.06959E+04 -1.57612E+03
  2.03831E+04  2.82309E+03  2.33312E+04  1.70324E+04  1.57306E+04  3.50407E+04 -2.88753E+03  4.02283E+04
 -2.34017E+04  3.30673E+04 -3.80833E+04  1.71617E+04 -4.01073E+04 -2.84466E+03 -3.31177E+04 -2.36124E+04
 -1.35211E+04 -3.32106E+04  1.19035E+04 -2.95563E+04  2.53163E+04 -1.41223E+04  2.22584E+04  6.74743E+03
  7.85964E+03  1.71971E+04 -1.07056E+04  1.43187E+04 -1.82462E+04  2.08888E+03 -1.43514E+04 -1.15459E+04
 -2.84410E+02 -1.78785E+04  9.51709E+03 -1.34261E+04  1.23050E+04 -1.13193E+03  3.04943E+03  7.94349E+03
 -7.81687E+03  3.50891E+03 -7.92538E+03 -6.27624E+03 -1.29132E+03 -1.64985E+04  1.13742E+04 -1.75306E+04
  2.06254E+04 -9.42984E+03  2.29181E+04  3.60891E+03  1.95895E+04  1.61723E+04  9.26723E+03  2.54439E+04
 -4.43062E+03  2.73792E+04 -1.77046E+04  1.70675E+04 -2.00125E+04  3.63875E+03 -1.36350E+04 -5.16474E+03
 -6.00192E+03 -6.21154E+03 -4.82784E+02  9.71467E+02 -2.73244E+03  3.05712E+03 -6.23910E+03  4.93485E+03
 -1.31085E+04 -1.11919E+03 -1.35905E+04 -1.06384E+04 -5.58639E+03 -1.73964E+04  5.69768E+03 -1.38612E+04
  1.15301E+04 -5.92293E+03  8.23530E+03  3.54253E+03  1.53787E+02  5.62002E+03 -6.94999E+03 -2.71944E+01
 -6.43168E+03 -8.83226E+03 -9.73447E+02 -1.36761E+04  7.91415E+03 -1.43215E+04  1.73477E+04 -7.56426E+03
  2.09181E+04  1.60721E+03  1.49280E+04  1.23718E+04  2.90726E+03  1.62066E+04 -8.51630E+03  1.39934E+04
 -1.14338E+04  4.09284E+03 -5.83643E+03 -2.92768E+03  1.78679E+03 -3.57582E+03  7.36854E+03 -1.01396E+03
  6.72399E+03  5.98506E+03  1.04659E+03  1.06789E+04 -8.34433E+03  1.02603E+04 -1.35099E+04  2.35537E+03
 -9.10901E+03 -6.95667E+03  1.25249E+02 -1.14241E+04  7.16358E+03 -5.98732E+03  8.00252E+03  2.82713E+03
  1.78511E+03  8.32466E+03 -7.19009E+03  9.81081E+03 -1.12006E+04  4.39818E+03 -1.14886E+04 -3.94845E+03
 -6.83152E+03 -1.32330E+04  3.38569E+03 -1.51990E+04  1.29476E+04 -9.08864E+03  1.36876E+04  2.38027E+03
  8.64484E+03  1.11449E+04 -1.13911E+03  1.32453E+04 -9.69551E+03  7.46633E+03 -1.05812E+04 -1.31622E+03
 -9.69307E+03 -8.93229E+03 -1.36099E+03 -9.88328E+03  5.33177E+03 -8.56563E+03  6.48047E+03 -3.60924E+03
  4.35193E+03  1.51458E+03 -5.16616E+02  1.38588E+03 -6.45243E+02 -2.70295E+03  1.85555E+03 -5.68359E+03
  9.35854E+03 -3.30867E+03  1.32040E+04  1.76329E+03  1.24126E+04  8.63066E+03  8.96337E+03  1.70416E+04
 -3.79925E+03  1.93443E+04 -1.58881E+04  1.42238E+04 -2.09951E+04  2.65271E+03 -1.66660E+04 -6.98503E+03
 -8.30538E+03 -1.35205E+04 -1.83212E+02 -1.16114E+04  4.42943E+03 -6.71043E+03  4.11397E+03 -4.49968E+03
  3.06395E+03 -2.91577E+03  3.29307E+03 -3.40945E+03  5.26446E+03 -2.73803E+03  6.87369E+03 -9.80939E+02
  8.95029E+03  1.83135E+03  4.51544E+03  7.40228E+03 -2.03728E+03  8.63708E+03 -9.29691E+03  6.70684E+03
 -1.16843E+04 -1.24068E+03 -7.02643E+03 -7.60015E+03 -8.93710E+02 -1.22340E+04  7.11882E+03 -1.25210E+04
  1.28552E+04 -6.63189E+03  1.52808E+04  1.77234E+03  1.03752E+04  1.05441E+04  1.78349E+03  1.39833E+04
 -5.79321E+03  1.15686E+04 -8.67010E+03  3.96513E+03 -5.14446E+03 -1.42094E+03 -2.06467E+03 -1.49355E+03
 -9.89230E+02  3.85389E+01 -1.75912E+03  2.61478E+03 -4.80526E+03  2.06126E+03 -8.07903E+03 -1.16257E+03
 -5.42444E+03 -7.89886E+03  4.52323E+02 -1.13239E+04  6.84649E+03 -1.06585E+04  1.06801E+04 -3.47385E+03
  1.10297E+04  5.44798E+03  5.10460E+03  9.75430E+03 -2.15168E+03  1.15435E+04 -7.69681E+03  7.01381E+03
 -1.01921E+04  6.35971E+02 -8.15688E+03 -6.45429E+03 -6.77070E+02 -9.50821E+03  5.01837E+03 -6.88789E+03
  7.16412E+03 -2.43334E+03  4.56618E+03  1.70160E+03  1.65899E+03  3.59310E+03  1.23874E+03  1.54082E+03
  2.40510E+03  1.03652E+03  2.57088E+03  1.59153E+03  2.99450E+03  4.35563E+03  2.97795E+03  6.01127E+03
 -2.18023E+03  8.47380E+03 -7.41446E+03  9.22034E+03 -1.09036E+04  2.75087E+03 -1.16182E+04 -4.30141E+03
 -5.49666E+03 -1.08896E+04  1.65007E+03 -1.24329E+04  6.40416E+03 -7.93639E+03  9.02225E+03 -2.04445E+03
  6.84087E+03  4.19419E+03  1.22081E+03  6.37406E+03 -2.66944E+03  4.36985E+03 -4.35671E+03 -7.44467E+02
 -2.18409E+03 -4.51068E+03  2.49224E+03 -4.81506E+03  4.42465E+03 -2.45433E+03  4.30153E+03  8.55311E+02
  2.46444E+03  2.19698E+03  1.28574E+03  1.46439E+03 -7.00427E+02  1.64268E+03  1.73655E+03 -3.74713E+02
  1.48003E+03 -6.20836E+02  4.28554E+03  1.43908E+03  2.26920E+03  5.83463E+03 -7.67097E+02  7.95290E+03
 -5.06732E+03  4.44846E+03 -6.54048E+03  1.37493E+03 -5.89869E+03 -2.65473E+03 -2.18579E+03 -4.20873E+03
  1.04259E+03 -3.71784E+03  2.42854E+03 -2.06091E+03  2.25650E+03  2.53038E+03 -9.65438E+02  3.59484E+03
 -3.91696E+03  2.15620E+03 -4.76634E+03 -2.80841E+03 -2.91835E+03 -5.58213E+03  1.02190E+03 -5.45476E+03
  3.26855E+03 -3.22341E+03  4.27068E+03 -3.06555E+02  3.34879E+03  1.30655E+03  7.84613E+02  2.99026E+03
 -1.55139E+03  1.02888E+03 -2.68490E+03 -1.73992E+03  1.28279E+03 -4.23310E+03  5.10874E+03 -3.49417E+03
  6.25657E+03  4.06037E+02  6.64085E+03  4.26308E+03  2.26972E+03  6.56562E+03 -2.68142E+03  6.19396E+03
 -5.35612E+03  2.47059E+03 -5.80012E+03 -6.43868E+02 -2.73303E+03 -4.26822E+03  9.98422E+02 -3.80240E+03
  4.17643E+03 -2.21091E+03  3.50214E+03  1.72552E+03  9.01893E+02  3.85500E+03 -4.87006E+02  3.51747E+03
 -1.53954E+03  2.36314E+03 -1.75206E+03  1.03703E+03 -8.14876E+02  6.26146E+02 -1.17735E+03  1.31033E+03
 -1.88154E+03  2.93184E+03 -4.64974E+03  1.96684E+03 -6.07903E+03  1.66016E+02 -7.60149E+03 -4.07641E+03
 -3.72671E+03 -8.43136E+03  1.66883E+03 -9.76471E+03  5.66445E+03 -7.83736E+03  9.64542E+03 -3.03693E+03
  8.58731E+03  1.46120E+03  5.30467E+03  6.04772E+03  4.60155E+02  6.55946E+03 -2.39293E+03  4.68858E+03
 -3.79581E+03  2.03921E+03 -1.96339E+03 -8.45239E+02 -9.87324E+02 -3.94080E+02 -8.95316E+02 -2.63761E+02
 -1.60661E+03  5.79687E+02 -1.88113E+03 -3.48422E+02  8.76819E+01 -1.72910E+03  8.31511E+01 -2.33904E+03
  3.40311E+03 -2.14083E+03  3.64800E+03  1.53230E+02  4.47171E+03  3.68631E+03  9.03986E+02  6.61185E+03
 -2.80537E+03  7.52292E+03 -6.80391E+03  4.13145E+03 -7.59185E+03 -3.49299E+02 -5.63181E+03 -4.97837E+03
 -2.58697E+03 -6.15741E+03  1.41996E+03 -5.78659E+03  3.90957E+03 -3.17684E+03  4.07430E+03 -1.84063E+02
  2.09464E+03  1.77870E+03 -6.83884E+01  1.66299E+03 -1.29421E+03  1.69778E+02  9.15691E+01 -1.27780E+03
  1.89621E+03 -7.73453E+02  2.75769E+03  5.43808E+02  1.40915E+03  2.48009E+03  4.19807E+02  3.11500E+03
 -2.86299E+03  2.53271E+03 -3.99368E+03  7.71242E+02 -3.61453E+03 -2.97605E+03 -9.42361E+02 -5.14189E+03
  2.95119E+03 -4.23270E+03  4.43980E+03 -1.12273E+03  4.74554E+03  6.32634E+02  2.57574E+03  3.51815E+03
  7.89733E+02  3.72858E+03 -1.20608E+03  3.03812E+03 -2.07276E+03  1.73401E+03 -2.39362E+03  4.18847E+02
 -1.05087E+03 -1.56207E+02 -9.78189E+02  5.22260E+02 -2.11790E+03  4.29835E+02 -3.56867E+03 -6.96687E+02
 -2.72634E+03 -1.74492E+03 -1.17130E+03 -3.83263E+03  1.82452E+03 -4.56486E+03  3.22835E+03 -1.75095E+03
  4.04540E+03  5.41221E+02  1.40799E+03  2.54220E+03 -2.58762E+02  4.02341E+03 -2.91832E+03  2.47861E+03
