 $NMID ID='MM_0lb_SNR800_18hz_g50_90.RAW', FMTDAT='(8E13.5)'
 TRAMP=1., VOLUME=1. $END
  3.09812E+05  4.34177E+02  3.37569E+05  2.50537E+05  8.42820E+04  3.37322E+05 -1.32654E+05  2.50422E+05
 -1.89761E+05  8.27073E+04 -1.11324E+05 -3.29195E+04  1.42160E+03 -5.05076E+04  5.41635E+04  2.15428E+02
  3.49674E+04  5.29357E+04 -1.69090E+04  7.50218E+04 -6.07664E+04  6.29821E+04 -8.31596E+04  3.17086E+04
 -8.01591E+04 -1.12271E+04 -5.63706E+04 -5.05824E+04 -1.49353E+04 -6.86626E+04  2.70477E+04 -4.51323E+04
  3.92384E+04  3.82179E+03  1.57924E+04  4.69840E+04 -3.38668E+04  4.65317E+04 -6.59018E+04 -4.32166E+02
 -5.22876E+04 -5.59533E+04 -6.39704E+03 -7.55893E+04  3.36312E+04 -5.38566E+04  4.66900E+04 -1.66991E+04
  4.21730E+04  1.09528E+04  3.10275E+04  2.44356E+04  1.61366E+04  2.85182E+04 -4.60472E+03  2.70226E+04
 -2.20212E+04  1.28222E+04 -1.91399E+04 -4.24839E+03  4.43654E+03 -7.53916E+03  2.15419E+04  1.12924E+04
  7.33918E+03  3.37222E+04 -3.07836E+04  3.45676E+04 -6.15431E+04  2.44294E+03 -5.58142E+04 -4.16673E+04
 -1.27636E+04 -6.13189E+04  3.86435E+04 -4.37336E+04  5.61735E+04 -2.10212E+03  3.24414E+04  3.11993E+04
 -6.40064E+03  3.37087E+04 -2.86016E+04  1.41652E+04 -2.83609E+04 -5.17756E+03 -1.49286E+04 -1.02988E+04
 -7.51302E+03 -1.20804E+04 -6.81692E+02 -1.69864E+04  6.89275E+03 -2.23405E+04  1.49796E+04 -1.37977E+04
  1.20710E+04  4.46325E+03 -6.49303E+03  1.30563E+04 -1.94453E+04 -2.92601E+03 -8.09210E+03 -3.10750E+04
  2.10741E+04 -4.14996E+04  4.53313E+04 -1.89024E+04  4.23116E+04  1.88389E+04  1.46221E+04  4.20975E+04
 -1.55106E+04  3.14980E+04 -2.34540E+04  1.23332E+03 -8.69261E+03 -2.68479E+04  2.05827E+04 -3.17260E+04
  3.88181E+04 -7.68372E+03  3.22672E+04  2.27959E+04  1.63061E+04  4.34400E+04 -7.69787E+03  4.63427E+04
 -2.93185E+04  3.07429E+04 -3.81362E+04  8.67500E+03 -3.94754E+04 -1.56226E+04 -2.19575E+04 -3.49598E+04
  7.06114E+03 -3.50384E+04  2.96739E+04 -1.32864E+04  2.75047E+04  1.10511E+04  3.22619E+03  1.83290E+04
 -1.29703E+04  7.39405E+03 -9.86869E+03 -7.92419E+03  5.96094E+03 -1.01690E+04  1.74589E+04  6.28210E+03
  1.25965E+04  2.19379E+04 -6.19557E+03  2.35707E+04 -2.14419E+04  9.68029E+03 -2.54854E+04 -5.97258E+03
 -1.75746E+04 -1.66766E+04 -6.30343E+03 -1.76639E+04  4.02145E+03 -1.54682E+04  1.31261E+04 -1.49512E+04
  2.19891E+04 -1.16453E+04  2.89944E+04  1.66144E+03  2.20300E+04  1.69279E+04  4.03125E+03  3.31361E+04
 -1.61240E+04  2.85107E+04 -2.60589E+04  9.61419E+03 -1.99780E+04 -1.03668E+04 -4.05285E+03 -1.38382E+04
  2.49690E+03 -3.85823E+03 -3.13407E+03  5.39424E+03 -1.33187E+04  5.19233E+03 -1.40641E+04 -5.25415E+03
 -8.83380E+03 -1.59992E+04  4.71917E+03 -2.01824E+04  1.31035E+04 -1.44851E+04  1.52838E+04 -1.17692E+03
  9.25741E+03  1.13280E+04 -7.24696E+02  1.64195E+04 -1.09885E+04  9.11671E+03 -1.61899E+04 -3.49416E+03
 -1.20143E+04 -1.44823E+04 -1.61391E+03 -1.96266E+04  9.08465E+03 -1.59290E+04  1.65970E+04 -7.64685E+03
  1.52401E+04  4.88297E+02  1.07371E+04  3.58777E+03  5.27909E+03  5.18752E+02  7.95013E+03 -1.35479E+03
  1.43280E+04  2.75045E+03  1.52773E+04  1.31608E+04  9.71443E+03  2.56542E+04 -2.90200E+03  2.79154E+04
 -1.61589E+04  2.16852E+04 -2.59732E+04  1.02977E+04 -2.63145E+04 -1.79017E+03 -2.21589E+04 -1.49022E+04
 -1.04529E+04 -2.15097E+04  7.30526E+03 -2.02079E+04  1.73010E+04 -1.12039E+04  1.61902E+04  4.01381E+03
  6.38576E+03  1.15527E+04 -7.73436E+03  1.06651E+04 -1.39614E+04  2.76342E+03 -1.06091E+04 -8.24043E+03
 -2.37593E+02 -1.29776E+04  6.48487E+03 -9.73632E+03  8.16719E+03 -1.34813E+03  1.74762E+03  5.12399E+03
 -5.72926E+03  1.30445E+03 -3.80535E+03 -4.67141E+03  2.30250E+02 -1.08208E+04  7.90275E+03 -1.07767E+04
  1.27676E+04 -5.47292E+03  1.28267E+04  2.46992E+03  1.10247E+04  1.00002E+04  5.08368E+03  1.46625E+04
 -1.92550E+03  1.72397E+04 -1.03597E+04  1.07509E+04 -1.19468E+04  3.28078E+03 -8.80825E+03 -2.02445E+03
 -4.35357E+03 -3.54370E+03 -9.04440E+02  1.22291E+03 -2.06898E+03  2.21798E+03 -3.97188E+03  3.49981E+03
 -8.31058E+03 -6.13939E+02 -8.95839E+03 -7.57296E+03 -4.00693E+03 -1.19579E+04  3.72132E+03 -8.93270E+03
  7.52410E+03 -3.98291E+03  5.56228E+03  2.26552E+03  4.47443E+02  3.54646E+03 -3.60307E+03 -1.07426E+01
 -3.63258E+03 -5.72661E+03 -7.52464E+02 -7.80264E+03  4.36417E+03 -8.30269E+03  1.06156E+04 -4.46357E+03
  1.25584E+04  6.62452E+02  9.01560E+03  6.95232E+03  2.05648E+03  9.21041E+03 -5.47002E+03  8.78640E+03
 -7.35401E+03  2.81539E+03 -3.71438E+03 -1.33198E+03  1.24839E+03 -2.01416E+03  5.03589E+03 -9.09459E+02
  4.23784E+03  3.66719E+03  9.59627E+02  6.47921E+03 -4.55811E+03  6.70387E+03 -7.99832E+03  1.60383E+03
 -5.20074E+03 -3.61877E+03  3.84610E+02 -7.28734E+03  4.12286E+03 -3.41948E+03  3.97018E+03  1.10874E+03
  5.18038E+02  3.83099E+03 -4.38465E+03  4.81931E+03 -5.51366E+03  2.42196E+03 -5.00926E+03 -1.47529E+03
 -3.00641E+03 -6.35082E+03  1.30711E+03 -7.71431E+03  6.49492E+03 -4.77464E+03  6.97958E+03  9.20223E+02
  4.72820E+03  5.55107E+03  1.90297E+02  7.36256E+03 -5.43983E+03  4.64661E+03 -5.39881E+03 -2.85381E+02
 -6.10276E+03 -5.62378E+03 -1.61829E+03 -5.30036E+03  2.90008E+03 -4.70087E+03  3.01623E+03 -2.94011E+03
  3.10293E+03  1.65045E+02  1.64977E+02  1.25309E+03  6.87360E+02 -2.72310E+02  5.24131E+02 -1.95085E+03
  4.02065E+03 -8.77986E+02  5.67689E+03  7.75759E+02  5.92198E+03  3.28791E+03  5.36047E+03  7.88737E+03
 -1.42769E+03  9.04604E+03 -7.97623E+03  6.92827E+03 -1.07355E+04  9.53509E+02 -8.29188E+03 -2.89215E+03
 -4.48431E+03 -6.90610E+03 -3.51989E+01 -5.56452E+03  2.01915E+03 -2.19917E+03  2.02968E+03 -2.08822E+03
  1.25908E+03 -1.52420E+03  2.13216E+03 -2.49142E+03  3.89536E+03 -1.18458E+03  3.72366E+03  4.35396E+02
  5.11073E+03  1.42684E+03  1.45138E+03  3.60090E+03 -1.72742E+03  3.39448E+03 -4.72778E+03  2.79425E+03
 -5.64595E+03 -9.36524E+02 -2.02198E+03 -3.63217E+03  6.82748E+02 -5.38313E+03  3.52087E+03 -5.47367E+03
  5.44611E+03 -3.58687E+03  7.32252E+03  4.13690E+02  5.25517E+03  4.61240E+03  1.12999E+03  6.43242E+03
 -2.18841E+03  6.07350E+03 -3.45650E+03  2.07213E+03 -2.19549E+03 -1.04803E+03 -7.24279E+02 -5.76904E+02
 -5.90402E+02  3.65820E+02 -6.12325E+02  2.09608E+03 -2.46641E+03  1.18273E+03 -4.27811E+03 -7.27761E+02
 -1.62173E+03 -4.22588E+03  6.84330E+02 -4.80797E+03  2.93051E+03 -4.70777E+03  3.86120E+03 -1.32151E+03
  4.37205E+03  2.80963E+03  1.95632E+03  3.67031E+03 -9.89863E+02  4.69413E+03 -2.83773E+03  3.07543E+03
 -4.12727E+03  7.11937E+02 -3.69212E+03 -2.51158E+03 -4.43537E+01 -3.45682E+03  1.67253E+03 -2.57818E+03
  3.07708E+03 -1.69910E+03  1.72557E+03  5.74766E+02  5.30522E+02  1.82510E+03  7.53534E+02  7.19228E+02
  1.60784E+03  5.20521E+02  1.13399E+03  8.08113E+02  1.01165E+03  2.24212E+03  1.63202E+03  1.80883E+03
 -1.30332E+03  3.40046E+03 -2.90097E+03  4.07752E+03 -3.57661E+03  1.16304E+03 -4.45548E+03 -7.07199E+02
 -1.93824E+03 -4.16266E+03  8.61065E+02 -4.93934E+03  2.00486E+03 -2.78740E+03  3.18649E+03 -8.01027E+02
  2.67600E+03  1.88909E+03  3.58035E+02  2.32789E+03 -1.10611E+03  1.56320E+03 -1.35124E+03 -4.12645E+02
 -5.58385E+02 -1.56883E+03  1.45343E+03 -1.94114E+03  1.32194E+03 -1.28744E+03  1.50912E+03  4.44819E+02
  9.46726E+02  4.19030E+02  6.90388E+02 -2.65321E+02 -9.36082E+01  7.50527E+02  1.44820E+03 -3.77388E+02
 -8.65341E+01 -4.06174E+02  1.95112E+03  5.23754E+02  3.54024E+02  2.28107E+03 -4.26095E+02  2.84011E+03
 -1.75723E+03  1.15981E+03 -2.09784E+03  1.92430E+02 -2.45112E+03 -7.93030E+02 -4.38201E+02 -1.18829E+03
  8.67534E+01 -1.23731E+03  1.04386E+03 -8.37209E+02  5.47455E+02  1.36506E+03 -1.12516E+03  9.93998E+02
 -1.39316E+03  7.75095E+02 -1.46733E+03 -1.49441E+03 -6.35360E+02 -2.36902E+03 -1.68440E+01 -1.54789E+03
  2.85322E+02 -3.36871E+02  7.69846E+02  9.82240E+01  1.64854E+03 -1.16602E+02  4.35414E+02  1.04141E+03
 -4.38068E+02  2.80198E+02 -9.72922E+02 -5.80953E+02  5.96255E+02 -1.14303E+03  1.83672E+03 -1.07073E+03
  1.02708E+03  2.21195E+02  2.97782E+03  5.07487E+02  9.24457E+02  1.74573E+03 -4.56304E+02  2.10692E+03
 -1.61018E+03  5.36693E+02 -1.65569E+03 -2.28122E+02 -9.72852E+02 -1.55471E+03  2.50878E+02 -5.83286E+02
  1.54266E+03 -5.86073E+02  6.90503E+02  8.35963E+02  1.48081E+02  1.06403E+03  4.73042E+01  1.18464E+03
 -3.49389E+02  1.08323E+03 -3.94465E+02  1.68847E+02 -7.49811E+01  3.86149E+02 -7.37991E+02  5.40578E+02
 -7.65451E+02  1.00960E+03 -2.18918E+03  5.21979E+02 -1.69207E+03  2.09004E+02 -2.61166E+03 -1.15225E+03
 -1.04365E+03 -2.64019E+03  6.20366E+02 -2.91966E+03  1.06239E+03 -2.55583E+03  2.70883E+03 -1.39208E+03
  2.67008E+03 -1.61695E+02  1.16312E+03  1.52141E+03 -4.77165E+02  1.73728E+03 -8.39233E+02  1.33229E+03
 -1.13836E+03  7.86051E+02 -6.63700E+02 -1.95378E+02 -5.03314E+02  2.95828E+02 -6.69978E+02  1.33104E+01
 -1.04092E+03  7.02580E+01 -7.43785E+02  2.37747E+02  1.57535E+02 -5.92601E+02 -2.81172E+02 -1.08785E+03
  1.26530E+03 -6.90450E+02  3.50214E+02  8.44716E+01  1.20812E+03  9.72463E+02 -4.90174E+02  1.50011E+03
 -1.01262E+03  2.37485E+03 -1.86690E+03  1.40450E+03 -1.74691E+03 -3.61606E+02 -1.43006E+03 -1.54581E+03
 -9.47692E+02 -1.29230E+03  2.41502E+02 -1.15947E+03  5.48349E+02 -6.41720E+02  4.67707E+02  6.27175E+01
  5.68185E+02  3.79021E+02  3.15482E+02  2.00617E+02 -2.03803E+02 -9.87975E+01 -1.73901E+02 -3.30025E+02
  7.09909E+02  1.13532E+02  3.13187E+02  4.70549E+02 -1.39471E+00  8.97718E+02  5.96596E+02  4.70348E+02
 -7.67113E+02  5.93165E+02 -8.82428E+02  1.59629E+02 -8.89128E+02 -4.94850E+02 -1.22836E+02 -8.68153E+02
  8.67001E+02 -8.06332E+02  6.80786E+02  3.14365E+02  8.37974E+02 -5.79293E+02  3.12428E+02  1.06856E+03
  2.40364E+02  5.91634E+02 -2.07707E+02  4.70818E+02 -5.90190E+02  5.46853E+02 -5.03741E+02  2.41742E+02
 -1.29356E+02 -1.17481E+02 -2.80120E+02  2.05528E+02 -7.60399E+02 -1.28519E+02 -8.27076E+02 -3.95471E+02
 -1.01427E+03  6.45334E+01 -2.74577E+02 -8.25214E+02  7.51124E+02 -1.68415E+03  7.52647E+02 -3.28294E+02
  8.46769E+02 -7.67981E+00 -5.80647E+02  2.51717E+02  1.20341E+02  1.05861E+03 -3.60193E+02  5.47925E+02
