 $NMID ID='MM_0lb_SNR800_14hz_g55_27.RAW', FMTDAT='(8E13.5)'
 TRAMP=1., VOLUME=1. $END
  3.09431E+05  3.99579E+02  3.37774E+05  2.50773E+05  8.48839E+04  3.38427E+05 -1.32091E+05  2.51143E+05
 -1.90298E+05  8.37138E+04 -1.11707E+05 -3.23500E+04  6.81549E+02 -5.07387E+04  5.39238E+04 -3.88070E+02
  3.53575E+04  5.31446E+04 -1.66536E+04  7.55726E+04 -6.09610E+04  6.38011E+04 -8.46331E+04  3.19863E+04
 -8.10663E+04 -1.15019E+04 -5.71622E+04 -5.14201E+04 -1.49776E+04 -7.01012E+04  2.78471E+04 -4.61580E+04
  4.02549E+04  3.96519E+03  1.63622E+04  4.79795E+04 -3.44366E+04  4.74176E+04 -6.73520E+04 -1.96191E+02
 -5.35327E+04 -5.70547E+04 -6.90352E+03 -7.74844E+04  3.42287E+04 -5.54660E+04  4.85944E+04 -1.73655E+04
  4.38023E+04  1.15167E+04  3.23132E+04  2.53853E+04  1.56355E+04  2.94300E+04 -5.16963E+03  2.74609E+04
 -2.20742E+04  1.22015E+04 -1.88566E+04 -4.98229E+03  5.98563E+03 -7.29641E+03  2.24900E+04  1.22833E+04
  7.21756E+03  3.56980E+04 -3.23157E+04  3.54701E+04 -6.41241E+04  1.88099E+03 -5.75896E+04 -4.34815E+04
 -1.26631E+04 -6.37132E+04  4.02136E+04 -4.55117E+04  5.85626E+04 -2.35822E+03  3.48884E+04  3.25990E+04
 -5.97720E+03  3.68471E+04 -3.05220E+04  1.62269E+04 -3.10326E+04 -4.31056E+03 -1.72217E+04 -1.08124E+04
 -8.79293E+03 -1.34498E+04 -6.06288E+02 -1.86268E+04  7.68673E+03 -2.33218E+04  1.54890E+04 -1.34415E+04
  1.13060E+04  5.24739E+03 -8.88907E+03  1.31296E+04 -2.17463E+04 -4.75623E+03 -8.36055E+03 -3.44855E+04
  2.34481E+04 -4.39733E+04  4.87830E+04 -1.97243E+04  4.56839E+04  1.98389E+04  1.59061E+04  4.43707E+04
 -1.64129E+04  3.39761E+04 -2.57662E+04  1.84749E+03 -1.03384E+04 -2.81720E+04  2.12500E+04 -3.42956E+04
  4.18616E+04 -9.34969E+03  3.65572E+04  2.41699E+04  1.87430E+04  4.74936E+04 -7.94269E+03  5.13693E+04
 -3.25227E+04  3.45944E+04 -4.31005E+04  1.02195E+04 -4.34883E+04 -1.69584E+04 -2.37752E+04 -3.87041E+04
  7.78436E+03 -3.85877E+04  3.18944E+04 -1.53022E+04  3.00293E+04  1.08961E+04  4.08028E+03  1.93909E+04
 -1.33368E+04  8.71977E+03 -1.03931E+04 -7.53736E+03  6.14492E+03 -1.06572E+04  1.81635E+04  5.66472E+03
  1.36784E+04  2.20666E+04 -5.78806E+03  2.53211E+04 -2.26360E+04  1.22280E+04 -2.81630E+04 -4.66093E+03
 -2.14188E+04 -1.75677E+04 -8.79996E+03 -2.14044E+04  3.95125E+03 -2.10859E+04  1.63482E+04 -1.88845E+04
  2.67727E+04 -1.29927E+04  3.34771E+04  2.92190E+03  2.43463E+04  2.07733E+04  4.33646E+03  3.71566E+04
 -1.82027E+04  3.08532E+04 -2.82319E+04  1.07889E+04 -2.12601E+04 -1.07720E+04 -4.55990E+03 -1.32363E+04
  1.91611E+03 -2.84789E+03 -5.45261E+03  6.93838E+03 -1.67942E+04  5.10205E+03 -1.67336E+04 -7.54531E+03
 -1.04206E+04 -1.96054E+04  5.33295E+03 -2.41246E+04  1.55086E+04 -1.71538E+04  1.89886E+04 -1.69660E+03
  1.15590E+04  1.34868E+04 -1.00980E+03  1.98526E+04 -1.32025E+04  1.13121E+04 -1.96093E+04 -4.37490E+03
 -1.42249E+04 -1.75431E+04 -1.91151E+03 -2.38807E+04  1.06648E+04 -1.91525E+04  1.95786E+04 -9.56290E+03
  1.82953E+04 -2.73263E+01  1.33069E+04  4.58321E+03  6.99858E+03  9.37984E+02  9.83081E+03 -1.62839E+03
  1.80824E+04  2.77380E+03  1.99451E+04  1.57717E+04  1.31063E+04  3.18545E+04 -3.07352E+03  3.53986E+04
 -2.07562E+04  2.86113E+04 -3.32470E+04  1.45612E+04 -3.47531E+04 -2.52502E+03 -2.88623E+04 -2.06320E+04
 -1.22424E+04 -2.87486E+04  9.87081E+03 -2.55509E+04  2.21202E+04 -1.30691E+04  1.97857E+04  5.63434E+03
  7.30373E+03  1.48554E+04 -9.35376E+03  1.29505E+04 -1.65600E+04  2.41892E+03 -1.31760E+04 -1.05158E+04
  1.59551E+02 -1.58265E+04  8.11485E+03 -1.15809E+04  1.11140E+04 -1.19715E+03  2.42453E+03  6.80147E+03
 -7.18750E+03  2.90303E+03 -6.02890E+03 -5.67887E+03 -5.89019E+02 -1.40305E+04  9.65663E+03 -1.48212E+04
  1.74339E+04 -8.25836E+03  1.89220E+04  2.65788E+03  1.64928E+04  1.39178E+04  7.67982E+03  2.15059E+04
 -3.44168E+03  2.33616E+04 -1.50519E+04  1.46021E+04 -1.66426E+04  3.54399E+03 -1.19852E+04 -3.57814E+03
 -5.18898E+03 -5.20637E+03 -6.69530E+02  1.15924E+03 -2.48448E+03  2.80089E+03 -5.53823E+03  4.62708E+03
 -1.06162E+04 -7.96265E+02 -1.17424E+04 -9.37405E+03 -4.38298E+03 -1.53837E+04  4.76591E+03 -1.17346E+04
  9.60936E+03 -4.86123E+03  6.63258E+03  3.05712E+03  1.09975E+02  4.52837E+03 -5.53094E+03 -3.86562E+02
 -5.36955E+03 -7.15687E+03 -8.92502E+02 -1.11675E+04  6.22784E+03 -1.15553E+04  1.43351E+04 -6.13709E+03
  1.73199E+04  1.40382E+03  1.25972E+04  9.92235E+03  2.50666E+03  1.35674E+04 -7.01075E+03  1.13738E+04
 -9.23511E+03  3.18430E+03 -5.02145E+03 -2.08685E+03  1.61083E+03 -3.45532E+03  6.16779E+03 -9.53136E+02
  5.49350E+03  4.82431E+03  8.18408E+02  9.26600E+03 -6.37127E+03  9.19349E+03 -1.13645E+04  2.42596E+03
 -7.08952E+03 -5.81983E+03  4.41546E+02 -9.79969E+03  5.78702E+03 -4.92167E+03  5.91464E+03  2.15661E+03
  1.52074E+03  6.28537E+03 -6.16349E+03  7.77754E+03 -8.59613E+03  3.69346E+03 -8.47200E+03 -2.64805E+03
 -5.17125E+03 -1.02431E+04  2.10456E+03 -1.17267E+04  1.03762E+04 -7.26950E+03  1.12363E+04  1.80387E+03
  7.19257E+03  8.72093E+03 -5.65906E+02  1.10375E+04 -7.76667E+03  6.12555E+03 -8.64199E+03 -6.83276E+02
 -7.81228E+03 -7.04873E+03 -1.49947E+03 -7.78937E+03  4.27668E+03 -6.81517E+03  5.12111E+03 -3.33385E+03
  3.70599E+03  1.15145E+03 -2.99329E+02  1.45860E+03  9.51894E+01 -2.05501E+03  1.49786E+03 -4.16539E+03
  7.17242E+03 -2.65419E+03  9.56169E+03  1.06981E+03  9.72617E+03  6.45709E+03  7.29970E+03  1.26524E+04
 -2.62956E+03  1.49505E+04 -1.25793E+04  1.12574E+04 -1.65403E+04  2.12136E+03 -1.31770E+04 -5.43828E+03
 -6.67263E+03 -1.10251E+04 -3.06697E+02 -9.15799E+03  3.29345E+03 -4.66578E+03  3.16542E+03 -3.45622E+03
  2.35048E+03 -2.33659E+03  3.08167E+03 -2.87224E+03  4.67270E+03 -2.34658E+03  5.10939E+03 -1.81196E+02
  7.13365E+03  1.83483E+03  3.06448E+03  5.80267E+03 -1.49773E+03  6.14693E+03 -6.97455E+03  5.42968E+03
 -8.91897E+03 -1.35038E+03 -4.83685E+03 -6.21240E+03 -7.17168E+01 -9.43352E+03  5.51424E+03 -9.59275E+03
  9.35269E+03 -5.31938E+03  1.17470E+04  1.11297E+03  8.40306E+03  7.78356E+03  1.20620E+03  1.04823E+04
 -4.56947E+03  9.39503E+03 -5.98431E+03  2.69019E+03 -3.96104E+03 -1.15289E+03 -1.64350E+03 -1.24956E+03
 -7.77370E+02  2.53532E+02 -1.37535E+03  2.57839E+03 -4.12651E+03  1.64159E+03 -6.52259E+03 -9.08825E+02
 -3.90693E+03 -6.09271E+03  3.87002E+02 -8.40993E+03  5.05623E+03 -7.76188E+03  7.95119E+03 -2.22165E+03
  8.29857E+03  4.13325E+03  3.80253E+03  6.88413E+03 -1.67070E+03  8.20961E+03 -5.90902E+03  4.77298E+03
 -7.60360E+03  4.73773E+02 -6.11638E+03 -5.20225E+03 -7.63038E+02 -6.68705E+03  3.37654E+03 -4.91958E+03
  5.17586E+03 -2.23072E+03  3.56926E+03  1.08510E+03  1.41482E+03  2.67336E+03  1.39018E+03  1.03584E+03
  2.35394E+03  8.00676E+02  2.07309E+03  1.18064E+03  2.50868E+03  3.18311E+03  2.35162E+03  3.90676E+03
 -2.13609E+03  6.09041E+03 -5.59074E+03  6.85102E+03 -7.46086E+03  1.84065E+03 -8.24395E+03 -2.72429E+03
 -3.62931E+03 -7.60263E+03  1.22279E+03 -8.92109E+03  4.38502E+03 -5.45384E+03  6.40625E+03 -1.41279E+03
  4.98352E+03  2.90644E+03  1.02130E+03  4.70169E+03 -2.15219E+03  2.64072E+03 -3.06078E+03 -3.15690E+02
 -1.40580E+03 -3.16832E+03  1.93434E+03 -3.04771E+03  3.11894E+03 -1.86861E+03  2.82985E+03  7.69470E+02
  1.85642E+03  1.24781E+03  9.79394E+02  5.18109E+02 -3.61434E+02  1.08973E+03  1.59532E+03 -1.80459E+02
  9.60071E+02 -3.09704E+02  3.34624E+03  1.45674E+03  1.65029E+03  3.85027E+03 -5.18602E+02  5.81328E+03
 -3.55954E+03  3.10975E+03 -4.59168E+03  1.03191E+03 -4.35751E+03 -1.43175E+03 -9.61844E+02 -2.67923E+03
  9.13907E+02 -3.01117E+03  1.99554E+03 -1.26604E+03  1.45670E+03  1.56418E+03 -1.20619E+03  2.47095E+03
 -3.28421E+03  1.42797E+03 -3.07602E+03 -2.20514E+03 -1.73109E+03 -4.13281E+03  4.56970E+02 -3.94224E+03
  2.03405E+03 -2.07666E+03  2.69558E+03  7.61141E+01  2.60740E+03  8.04143E+02  3.83880E+02  2.07141E+03
 -1.13386E+03  4.05521E+02 -1.95557E+03 -1.52724E+03  8.99782E+02 -2.57468E+03  3.59093E+03 -2.33418E+03
  3.90939E+03  3.56738E+02  4.99285E+03  2.37396E+03  2.14784E+03  4.19942E+03 -1.37863E+03  4.22722E+03
 -3.78405E+03  1.44024E+03 -3.84057E+03 -6.27844E+02 -2.00000E+03 -2.98500E+03  7.47333E+02 -2.58645E+03
  3.05085E+03 -1.52461E+03  2.20231E+03  1.34507E+03  6.32812E+02  2.85451E+03  2.32491E+02  2.10530E+03
 -1.00659E+03  1.87024E+03 -1.15850E+03  6.48668E+02 -6.15616E+02  5.13680E+02 -1.21039E+03  1.05738E+03
 -1.08516E+03  1.77336E+03 -3.44735E+03  1.59957E+03 -4.31484E+03  3.26531E+02 -4.90804E+03 -2.82742E+03
 -2.45032E+03 -5.35484E+03  1.16367E+03 -6.75608E+03  3.69684E+03 -5.35164E+03  6.25583E+03 -2.10059E+03
  5.48991E+03  6.21492E+02  3.48677E+03  3.61823E+03 -2.63094E+02  3.93796E+03 -1.97494E+03  3.32329E+03
 -2.40778E+03  1.21249E+03 -1.27823E+03 -1.00670E+03 -8.60542E+02 -4.18288E+02 -6.52430E+02 -2.82866E+02
 -1.33278E+03 -8.78488E+01 -1.05384E+03 -2.75856E+02  1.20351E+02 -1.26116E+03 -2.57545E+02 -1.44265E+03
  2.28884E+03 -1.41677E+03  2.09627E+03  2.03569E+02  2.74968E+03  2.52020E+03  5.93446E+02  3.94238E+03
 -1.92799E+03  4.83930E+03 -4.23214E+03  3.01519E+03 -5.51040E+03 -6.36781E+02 -3.74231E+03 -2.96158E+03
 -1.84614E+03 -4.22035E+03  6.90268E+02 -3.42881E+03  2.55369E+03 -2.10499E+03  2.53020E+03  2.85510E+02
  1.53247E+03  1.19682E+03 -4.60795E+02  1.23503E+03 -8.65135E+02  9.84129E+01  4.25587E+01 -7.97933E+02
  1.47654E+03 -1.45602E+02  1.45279E+03  8.33069E+02  5.74365E+02  1.79192E+03  6.09833E+02  1.46771E+03
 -1.58118E+03  1.69147E+03 -2.14769E+03  4.39634E+02 -2.48583E+03 -1.72034E+03 -2.62424E+02 -3.01102E+03
  1.38367E+03 -2.43714E+03  2.71812E+03 -5.09576E+02  2.67519E+03  4.02075E+01  1.54916E+03  2.19733E+03
  3.54058E+02  2.12473E+03 -7.52202E+02  1.99347E+03 -1.43672E+03  1.32317E+03 -1.35818E+03  2.32223E+02
 -6.24432E+02 -1.75432E+02 -1.32374E+03  5.82484E+02 -1.20680E+03  8.19088E+02 -1.84220E+03 -3.05994E+02
 -2.36882E+03 -7.04531E+02 -8.43001E+02 -2.29885E+03  1.51026E+03 -2.96932E+03  2.23049E+03 -1.22713E+03
  2.05837E+03 -7.28369E+01  7.58162E+02  1.38181E+03 -2.38187E+02  2.54617E+03 -1.57686E+03  1.70493E+03
