 $NMID ID='MM_0lb_SNR800_8hz_g60_92.RAW', FMTDAT='(8E13.5)'
 TRAMP=1., VOLUME=1. $END
  3.10326E+05  3.03036E+01  3.37962E+05  2.50727E+05  8.51459E+04  3.38461E+05 -1.32232E+05  2.51865E+05
 -1.91201E+05  8.41723E+04 -1.12886E+05 -3.23538E+04  1.63964E+02 -5.06933E+04  5.36827E+04 -8.26216E+02
  3.58718E+04  5.26093E+04 -1.66381E+04  7.62082E+04 -6.15125E+04  6.49185E+04 -8.60381E+04  3.27807E+04
 -8.29834E+04 -1.19181E+04 -5.83611E+04 -5.25166E+04 -1.49738E+04 -7.14267E+04  2.83622E+04 -4.74342E+04
  4.17621E+04  3.67529E+03  1.71525E+04  4.92017E+04 -3.47511E+04  4.87319E+04 -6.83191E+04  1.11532E+01
 -5.53452E+04 -5.81369E+04 -8.06811E+03 -7.91278E+04  3.50077E+04 -5.76955E+04  5.04092E+04 -1.85800E+04
  4.57107E+04  1.15439E+04  3.30003E+04  2.70357E+04  1.58926E+04  3.09525E+04 -6.09952E+03  2.79244E+04
 -2.24393E+04  1.18649E+04 -1.79172E+04 -6.03596E+03  7.80873E+03 -7.24583E+03  2.40984E+04  1.45187E+04
  6.33779E+03  3.79944E+04 -3.49073E+04  3.75311E+04 -6.63525E+04  2.01665E+03 -6.00015E+04 -4.51979E+04
 -1.27463E+04 -6.67921E+04  4.24027E+04 -4.81476E+04  6.22337E+04 -2.74299E+03  3.77896E+04  3.53299E+04
 -5.31972E+03  4.06256E+04 -3.24932E+04  1.99180E+04 -3.48185E+04 -3.11701E+03 -2.00846E+04 -1.23928E+04
 -1.00751E+04 -1.60026E+04 -5.61789E+02 -2.04105E+04  8.98320E+03 -2.38116E+04  1.60532E+04 -1.23841E+04
  1.01587E+04  6.87009E+03 -1.16212E+04  1.28861E+04 -2.41926E+04 -7.28606E+03 -8.45677E+03 -3.92427E+04
  2.63915E+04 -4.85072E+04  5.39456E+04 -2.14971E+04  5.02540E+04  2.11758E+04  1.81840E+04  4.82988E+04
 -1.70451E+04  3.71709E+04 -2.86659E+04  3.04907E+03 -1.25045E+04 -3.00543E+04  2.17971E+04 -3.80962E+04
  4.61061E+04 -1.14271E+04  4.23547E+04  2.54501E+04  2.24860E+04  5.29573E+04 -8.78725E+03  5.84044E+04
 -3.68464E+04  3.95687E+04 -4.99606E+04  1.15717E+04 -4.93123E+04 -1.91607E+04 -2.67355E+04 -4.39565E+04
  8.04754E+03 -4.37000E+04  3.54091E+04 -1.84829E+04  3.30532E+04  1.08899E+04  5.53944E+03  2.17209E+04
 -1.42567E+04  1.00340E+04 -1.16622E+04 -7.50918E+03  5.39250E+03 -1.21428E+04  1.94150E+04  5.55979E+03
  1.55085E+04  2.30707E+04 -4.73217E+03  2.79182E+04 -2.43369E+04  1.56022E+04 -3.34726E+04 -2.02807E+03
 -2.72191E+04 -1.86828E+04 -1.31393E+04 -2.71269E+04  4.66780E+03 -2.83198E+04  2.16334E+04 -2.49663E+04
  3.46476E+04 -1.49476E+04  4.03727E+04  6.21623E+03  2.84595E+04  2.64817E+04  4.53402E+03  4.32412E+04
 -2.06722E+04  3.54455E+04 -3.17685E+04  1.26951E+04 -2.32329E+04 -1.03994E+04 -5.32181E+03 -1.22560E+04
  3.18369E+02 -5.16052E+02 -8.68262E+03  9.00607E+03 -2.21602E+04  5.14078E+03 -2.13369E+04 -1.02813E+04
 -1.25818E+04 -2.55562E+04  6.85488E+03 -2.94950E+04  1.98768E+04 -2.11676E+04  2.47119E+04 -1.85355E+03
  1.58684E+04  1.75765E+04 -1.44398E+03  2.55671E+04 -1.79321E+04  1.45708E+04 -2.52243E+04 -5.60362E+03
 -1.83781E+04 -2.23078E+04 -2.04677E+03 -3.02332E+04  1.39191E+04 -2.55327E+04  2.47868E+04 -1.34015E+04
  2.38508E+04 -2.04785E+02  1.70358E+04  5.29017E+03  9.96255E+03  1.29209E+03  1.31941E+04 -1.91292E+03
  2.44077E+04  2.77375E+03  2.83956E+04  1.95395E+04  1.94108E+04  4.05878E+04 -2.88040E+03  4.85646E+04
 -2.73433E+04  4.08996E+04 -4.58906E+04  2.12371E+04 -4.95510E+04 -3.35110E+03 -3.96078E+04 -2.92207E+04
 -1.50727E+04 -4.08610E+04  1.45502E+04 -3.57990E+04  3.06148E+04 -1.64982E+04  2.60539E+04  9.23895E+03
  8.20382E+03  2.05734E+04 -1.27843E+04  1.69224E+04 -2.17624E+04  2.52643E+03 -1.64880E+04 -1.36862E+04
 -3.44642E+02 -2.09874E+04  1.12409E+04 -1.53094E+04  1.48189E+04 -1.52946E+03  4.19207E+03  9.40855E+03
 -9.44758E+03  5.06647E+03 -1.05716E+04 -7.59210E+03 -2.18597E+03 -1.97085E+04  1.32064E+04 -2.22269E+04
  2.60726E+04 -1.29511E+04  2.99170E+04  3.01135E+03  2.59913E+04  2.09798E+04  1.20557E+04  3.28602E+04
 -6.39721E+03  3.51679E+04 -2.33617E+04  2.19801E+04 -2.55291E+04  3.97502E+03 -1.76443E+04 -6.76034E+03
 -6.64848E+03 -8.37169E+03 -3.96088E+02  4.44697E+02 -3.15637E+03  3.86670E+03 -7.63966E+03  5.64326E+03
 -1.55936E+04 -6.02441E+02 -1.63552E+04 -1.30714E+04 -6.98444E+03 -2.11822E+04  7.20746E+03 -1.73512E+04
  1.44057E+04 -7.12954E+03  1.00770E+04  4.16411E+03 -5.23557E+02  6.80686E+03 -8.94656E+03 -3.55042E+02
 -8.32229E+03 -1.14244E+04 -1.41460E+03 -1.78001E+04  9.86429E+03 -1.82462E+04  2.29139E+04 -1.01287E+04
  2.64080E+04  3.00181E+03  1.92519E+04  1.65673E+04  3.74603E+03  2.20403E+04 -1.07895E+04  1.71076E+04
 -1.44873E+04  4.70335E+03 -6.99727E+03 -4.02592E+03  2.27966E+03 -5.22878E+03  9.37037E+03 -1.18735E+03
  8.39438E+03  7.47335E+03  1.32171E+03  1.44143E+04 -1.05806E+04  1.34366E+04 -1.72886E+04  2.71902E+03
 -1.22564E+04 -9.28473E+03  1.24914E+02 -1.53554E+04  1.05293E+04 -7.60047E+03  1.15167E+04  3.99963E+03
  2.71784E+03  1.24180E+04 -9.37451E+03  1.33182E+04 -1.60947E+04  5.75651E+03 -1.67529E+04 -6.18213E+03
 -9.14988E+03 -1.86022E+04  5.09243E+03 -2.08269E+04  1.82079E+04 -1.22053E+04  1.97278E+04  3.51760E+03
  1.08268E+04  1.54273E+04 -1.95659E+03  1.80655E+04 -1.31973E+04  1.04636E+04 -1.48590E+04 -1.52392E+03
 -1.21739E+04 -1.19447E+04 -1.58006E+03 -1.37863E+04  8.02655E+03 -1.07118E+04  9.12823E+03 -3.70826E+03
  5.50725E+03  2.88839E+03 -1.32842E+03  2.51497E+03 -1.18550E+03 -4.06986E+03  3.38810E+03 -9.13827E+03
  1.36966E+04 -5.62392E+03  1.89979E+04  1.92017E+03  1.88229E+04  1.32635E+04  1.13989E+04  2.50926E+04
 -6.14106E+03  2.84458E+04 -2.32345E+04  2.05858E+04 -3.06182E+04  4.33727E+03 -2.42885E+04 -1.06060E+04
 -1.20015E+04 -2.03707E+04 -5.03195E+02 -1.73695E+04  6.27822E+03 -1.04368E+04  6.16709E+03 -5.76905E+03
  5.07102E+03 -3.40781E+03  4.48981E+03 -4.38027E+03  6.99379E+03 -4.22916E+03  9.18428E+03 -1.87572E+03
  1.21704E+04  2.52680E+03  7.27728E+03  1.07447E+04 -2.22538E+03  1.35355E+04 -1.34646E+04  1.05323E+04
 -1.81003E+04 -1.28115E+03 -1.17112E+04 -1.20695E+04 -1.71140E+03 -1.88681E+04  1.00901E+04 -1.85021E+04
  1.95564E+04 -1.05754E+04  2.34392E+04  3.56885E+03  1.58206E+04  1.60200E+04  2.52163E+03  2.13966E+04
 -9.32055E+03  1.68241E+04 -1.28011E+04  6.33853E+03 -8.78272E+03 -1.62446E+03 -3.61107E+03 -2.96366E+03
 -1.93766E+03 -6.79509E+02 -2.80807E+03  2.85560E+03 -7.20075E+03  2.68821E+03 -1.14979E+04 -1.67340E+03
 -8.83386E+03 -1.20226E+04 -2.09000E+02 -1.79648E+04  1.09541E+04 -1.66503E+04  1.75505E+04 -5.32953E+03
  1.78276E+04  8.64103E+03  8.59879E+03  1.61055E+04 -3.47437E+03  1.78657E+04 -1.36869E+04  1.13758E+04
 -1.69610E+04  5.19234E+02 -1.25381E+04 -1.08145E+04 -1.40567E+03 -1.55159E+04  7.60058E+03 -1.11289E+04
  1.16791E+04 -3.26697E+03  7.74533E+03  3.53330E+03  3.15073E+03  4.82095E+03  1.56378E+03  2.41264E+03
  3.74140E+03  1.25828E+03  3.90544E+03  2.25282E+03  5.77119E+03  5.87091E+03  4.59725E+03  9.92717E+03
 -3.76952E+03  1.40504E+04 -1.28847E+04  1.38965E+04 -1.91169E+04  3.44194E+03 -1.92907E+04 -8.24001E+03
 -9.87616E+03 -1.87213E+04  2.86411E+03 -2.03901E+04  1.17422E+04 -1.31980E+04  1.51219E+04 -3.75382E+03
  1.11935E+04  6.54183E+03  2.66545E+03  1.04141E+04 -5.36529E+03  7.32763E+03 -7.68916E+03 -9.64916E+02
 -3.85530E+03 -8.07109E+03  4.54812E+03 -8.23926E+03  7.68038E+03 -4.36305E+03  7.72301E+03  1.62926E+03
  4.34949E+03  4.02383E+03  1.76250E+03  3.15424E+03 -5.71021E+02  2.46265E+03  1.41947E+03 -6.18924E+02
  3.50249E+03 -1.18152E+03  7.71911E+03  3.15741E+03  4.58364E+03  9.53665E+03 -1.38978E+03  1.32513E+04
 -8.92550E+03  9.31617E+03 -1.25528E+04  2.10610E+03 -1.09578E+04 -3.98264E+03 -4.35146E+03 -7.61923E+03
  1.36861E+03 -7.57906E+03  4.63039E+03 -3.79095E+03  4.50013E+03  3.79527E+03 -1.69182E+03  6.39912E+03
 -8.35550E+03  3.56566E+03 -8.99773E+03 -4.34176E+03 -4.85901E+03 -1.04946E+04  1.69831E+03 -1.08698E+04
  6.46927E+03 -6.56745E+03  8.40692E+03 -8.35607E+02  6.29844E+03  2.83487E+03  9.65757E+02  5.38187E+03
 -3.76854E+03  1.50300E+03 -4.49299E+03 -4.45349E+03  1.65674E+03 -8.19157E+03  9.66765E+03 -6.93671E+03
  1.25996E+04  1.18466E+03  1.11429E+04  8.17130E+03  3.30417E+03  1.29001E+04 -4.54233E+03  1.17897E+04
 -1.06722E+04  5.24326E+03 -1.07938E+04 -1.70083E+03 -6.22945E+03 -8.17947E+03  2.05766E+03 -7.92188E+03
  7.85485E+03 -3.52122E+03  6.76301E+03  3.49114E+03  2.60134E+03  6.45381E+03 -1.21393E+03  6.19783E+03
 -2.90530E+03  3.73776E+03 -3.01335E+03  1.21514E+03 -1.59091E+03  1.02595E+03 -1.81973E+03  2.24371E+03
 -3.27268E+03  4.48387E+03 -8.30990E+03  4.19323E+03 -1.25513E+04 -9.80999E+01 -1.44386E+04 -8.17133E+03
 -7.40743E+03 -1.68665E+04  3.24399E+03 -1.96042E+04  1.23981E+04 -1.51555E+04  1.85369E+04 -5.97835E+03
  1.74050E+04  3.90657E+03  1.06502E+04  1.20347E+04  1.25938E+03  1.38934E+04 -5.27972E+03  1.00513E+04
 -7.41747E+03  3.79613E+03 -4.70871E+03 -1.32917E+03 -1.64793E+03 -1.19123E+03 -1.03759E+03 -3.49131E+02
 -1.86201E+03  3.63943E+02 -2.72429E+03 -3.83117E+02 -9.05455E+02 -3.39266E+03  3.18793E+02 -4.91487E+03
  5.46768E+03 -4.15926E+03  8.39025E+03 -1.77406E+02  9.40058E+03  7.08925E+03  2.51574E+03  1.35006E+04
 -6.35977E+03  1.53311E+04 -1.45192E+04  9.06321E+03 -1.69404E+04 -1.42783E+03 -1.24177E+04 -1.00378E+04
 -5.09509E+03 -1.41561E+04  4.00699E+03 -1.27532E+04  9.06405E+03 -6.89173E+03  9.20136E+03  3.67539E+02
  4.93632E+03  4.37335E+03 -5.48626E+02  3.84984E+03 -2.52703E+03  8.38143E+01  4.45748E+02 -3.43380E+03
  4.27048E+03 -2.15900E+03  5.72115E+03  1.52807E+03  3.79671E+03  5.38310E+03  2.11066E+01  7.79684E+03
 -6.16019E+03  5.64643E+03 -9.32159E+03  4.68274E+02 -8.10604E+03 -6.83743E+03 -1.54494E+03 -1.16751E+04
  6.45814E+03 -9.82621E+03  1.05812E+04 -3.11691E+03  1.08815E+04  2.89667E+03  5.87636E+03  8.55779E+03
  7.33799E+02  9.64329E+03 -3.68562E+03  7.60731E+03 -6.14163E+03  4.11873E+03 -4.87220E+03  6.06669E+02
 -2.69740E+03 -4.09022E+02 -2.42994E+03  1.39652E+03 -4.72811E+03  2.34550E+03 -6.66935E+03 -1.53225E+03
 -6.51675E+03 -5.31343E+03 -1.84569E+03 -9.32250E+03  3.99820E+03 -9.29838E+03  8.43463E+03 -4.98477E+03
  9.23737E+03  1.08079E+03  5.37298E+03  6.86836E+03 -9.26157E+02  9.61993E+03 -7.25084E+03  6.26166E+03
