 $NMID ID='MM_0lb_SNR800_19hz_g60_47.RAW', FMTDAT='(8E13.5)'
 TRAMP=1., VOLUME=1. $END
  3.09858E+05  2.60540E+02  3.37734E+05  2.50455E+05  8.44673E+04  3.37632E+05 -1.32392E+05  2.50729E+05
 -1.90163E+05  8.28016E+04 -1.11438E+05 -3.26284E+04  1.28453E+03 -5.04709E+04  5.38598E+04 -4.69622E+01
  3.51392E+04  5.27955E+04 -1.66707E+04  7.54432E+04 -6.07175E+04  6.33509E+04 -8.36856E+04  3.18645E+04
 -8.04670E+04 -1.11457E+04 -5.68459E+04 -5.08435E+04 -1.49745E+04 -6.89473E+04  2.69450E+04 -4.52310E+04
  3.95290E+04  3.91612E+03  1.56261E+04  4.72311E+04 -3.40730E+04  4.68175E+04 -6.60041E+04 -6.58451E+01
 -5.26101E+04 -5.64652E+04 -6.48013E+03 -7.62866E+04  3.36316E+04 -5.41561E+04  4.73500E+04 -1.71074E+04
  4.22586E+04  1.12109E+04  3.13455E+04  2.50059E+04  1.56953E+04  2.89446E+04 -5.24870E+03  2.71876E+04
 -2.18970E+04  1.26927E+04 -1.88371E+04 -4.56578E+03  5.24305E+03 -7.31243E+03  2.17510E+04  1.16550E+04
  7.38579E+03  3.43155E+04 -3.10546E+04  3.48016E+04 -6.23443E+04  2.39313E+03 -5.63912E+04 -4.20550E+04
 -1.26043E+04 -6.20812E+04  3.90168E+04 -4.46652E+04  5.69374E+04 -2.17299E+03  3.28075E+04  3.13236E+04
 -6.20305E+03  3.45309E+04 -2.93241E+04  1.46645E+04 -2.90170E+04 -4.89040E+03 -1.52829E+04 -1.04268E+04
 -7.94581E+03 -1.24421E+04 -5.81011E+02 -1.73134E+04  7.13406E+03 -2.28801E+04  1.50768E+04 -1.36203E+04
  1.21141E+04  4.50632E+03 -7.51203E+03  1.29714E+04 -1.99213E+04 -3.37569E+03 -8.35029E+03 -3.17492E+04
  2.20319E+04 -4.20614E+04  4.60392E+04 -1.90192E+04  4.33008E+04  1.87358E+04  1.47554E+04  4.27650E+04
 -1.54563E+04  3.17596E+04 -2.43858E+04  1.49935E+03 -8.62197E+03 -2.68468E+04  2.07025E+04 -3.22983E+04
  3.92371E+04 -8.00662E+03  3.33470E+04  2.30703E+04  1.63640E+04  4.44246E+04 -7.91941E+03  4.73219E+04
 -2.98241E+04  3.16037E+04 -3.90926E+04  8.95485E+03 -3.99646E+04 -1.52031E+04 -2.21709E+04 -3.61630E+04
  6.91581E+03 -3.55833E+04  3.01771E+04 -1.33106E+04  2.76388E+04  1.07628E+04  3.15970E+03  1.82698E+04
 -1.31789E+04  7.76795E+03 -9.85521E+03 -7.65160E+03  5.81999E+03 -1.04717E+04  1.78606E+04  6.51960E+03
  1.28141E+04  2.18067E+04 -6.71465E+03  2.39104E+04 -2.20417E+04  9.72508E+03 -2.59446E+04 -5.90843E+03
 -1.81739E+04 -1.68054E+04 -6.70515E+03 -1.80312E+04  3.95720E+03 -1.60361E+04  1.35841E+04 -1.54796E+04
  2.30420E+04 -1.20942E+04  2.96010E+04  1.40271E+03  2.22320E+04  1.74914E+04  3.86049E+03  3.35843E+04
 -1.66222E+04  2.83498E+04 -2.65015E+04  9.73298E+03 -2.01617E+04 -1.06240E+04 -4.19042E+03 -1.38177E+04
  2.49734E+03 -3.70041E+03 -3.50162E+03  6.03908E+03 -1.40686E+04  5.23793E+03 -1.42249E+04 -5.49425E+03
 -8.99279E+03 -1.64892E+04  4.84492E+03 -2.04722E+04  1.33597E+04 -1.48838E+04  1.55923E+04 -1.81219E+03
  9.68092E+03  1.15130E+04 -1.10493E+03  1.68157E+04 -1.09720E+04  9.31786E+03 -1.63749E+04 -3.58052E+03
 -1.20618E+04 -1.49394E+04 -1.61666E+03 -1.98399E+04  9.14209E+03 -1.65075E+04  1.70452E+04 -8.06803E+03
  1.54638E+04  5.08741E+02  1.09156E+04  4.01126E+03  5.40217E+03  6.19572E+02  8.08242E+03 -1.43144E+03
  1.45453E+04  2.58710E+03  1.57701E+04  1.32310E+04  1.00000E+04  2.60295E+04 -2.89720E+03  2.83636E+04
 -1.69640E+04  2.19369E+04 -2.61284E+04  1.06339E+04 -2.67918E+04 -2.09834E+03 -2.27338E+04 -1.52578E+04
 -1.06360E+04 -2.20332E+04  7.43786E+03 -2.04460E+04  1.78624E+04 -1.12995E+04  1.64913E+04  4.16922E+03
  6.72775E+03  1.18278E+04 -7.63833E+03  1.06243E+04 -1.39962E+04  2.73904E+03 -1.06355E+04 -8.25630E+03
  1.60501E+01 -1.30896E+04  6.56618E+03 -9.74765E+03  8.18444E+03 -1.44844E+03  1.55205E+03  5.19123E+03
 -5.74036E+03  1.92728E+03 -3.91887E+03 -4.74482E+03  4.89094E+02 -1.09216E+04  8.15451E+03 -1.05908E+04
  1.29552E+04 -5.19585E+03  1.32763E+04  2.89707E+03  1.12934E+04  1.02317E+04  5.23575E+03  1.50994E+04
 -1.91927E+03  1.69752E+04 -1.02296E+04  1.10136E+04 -1.21340E+04  3.17608E+03 -8.83222E+03 -2.07062E+03
 -4.64053E+03 -3.54842E+03 -9.13323E+02  1.45440E+03 -2.00311E+03  2.13131E+03 -4.10131E+03  3.75583E+03
 -8.55775E+03 -8.09175E+02 -9.15454E+03 -7.86378E+03 -3.73363E+03 -1.20475E+04  3.75183E+03 -9.05266E+03
  7.49684E+03 -3.72716E+03  5.64850E+03  2.63157E+03  3.31450E+02  3.45485E+03 -3.90480E+03 -3.53818E+01
 -3.75656E+03 -5.60166E+03 -7.01561E+02 -7.33741E+03  4.25723E+03 -8.21437E+03  1.02600E+04 -4.17558E+03
  1.21416E+04  6.56523E+02  8.69974E+03  6.61727E+03  1.89045E+03  9.18209E+03 -5.61831E+03  8.35342E+03
 -7.18193E+03  2.98162E+03 -3.94243E+03 -1.51024E+03  1.40781E+03 -1.95940E+03  5.13120E+03 -1.01232E+03
  4.34777E+03  3.32510E+03  1.26835E+03  6.84900E+03 -4.63903E+03  6.36322E+03 -8.48842E+03  1.64482E+03
 -5.18397E+03 -3.70604E+03  1.07175E+02 -6.79209E+03  3.57520E+03 -3.34910E+03  3.82047E+03  8.28120E+02
  6.71836E+02  3.60695E+03 -3.86825E+03  4.95731E+03 -5.02306E+03  2.60196E+03 -4.77479E+03 -1.13398E+03
 -3.02321E+03 -6.32355E+03  1.30883E+03 -7.49999E+03  6.46644E+03 -4.66951E+03  6.68232E+03  1.08491E+03
  4.72702E+03  5.61355E+03 -1.07383E+01  7.44903E+03 -5.14271E+03  4.42942E+03 -5.30500E+03 -2.00661E+02
 -6.00583E+03 -5.04385E+03 -1.38161E+03 -5.21022E+03  2.76728E+03 -4.91484E+03  3.16762E+03 -2.98702E+03
  3.06685E+03  1.60689E+02  2.30812E+02  1.23679E+03  3.52424E+02 -4.56833E+02 -3.69717E+01 -1.49447E+03
  3.99446E+03 -7.04538E+02  5.34062E+03  3.68030E+02  5.78420E+03  3.14971E+03  5.39630E+03  7.59245E+03
 -1.30633E+03  9.09400E+03 -7.88270E+03  6.79003E+03 -9.97366E+03  1.09809E+03 -8.08648E+03 -2.77268E+03
 -4.11906E+03 -6.69264E+03 -6.42805E+02 -5.12701E+03  2.27822E+03 -2.32552E+03  1.75803E+03 -2.26079E+03
  1.32023E+03 -1.47982E+03  2.27700E+03 -2.27814E+03  3.65805E+03 -1.18129E+03  3.62227E+03  5.10338E+02
  4.33858E+03  1.26023E+03  1.00635E+03  3.70157E+03 -1.33600E+03  2.73212E+03 -4.29507E+03  2.47117E+03
 -5.12200E+03 -9.79697E+02 -1.90866E+03 -3.38981E+03  3.34730E+02 -5.14441E+03  3.56211E+03 -5.43814E+03
  5.06662E+03 -3.31434E+03  6.84646E+03  2.56679E+02  4.76979E+03  4.10114E+03  9.99453E+02  5.98221E+03
 -2.10256E+03  5.87511E+03 -3.35823E+03  1.93146E+03 -1.87972E+03 -9.15272E+02 -2.43809E+02 -4.73772E+02
 -6.17067E+02  6.27985E+02 -9.31426E+02  1.97127E+03 -2.34347E+03  9.43454E+02 -4.11025E+03 -3.42180E+02
 -1.35894E+03 -4.10186E+03  1.05010E+03 -4.56927E+03  2.55226E+03 -4.33854E+03  3.55804E+03 -1.13845E+03
  4.10884E+03  2.17463E+03  1.76977E+03  3.45272E+03 -6.93387E+02  4.16863E+03 -2.47898E+03  2.66473E+03
 -3.53044E+03  7.82516E+02 -3.43768E+03 -2.50918E+03  6.92259E+01 -3.04191E+03  1.59100E+03 -2.54616E+03
  2.40322E+03 -1.32644E+03  1.87691E+03  8.09590E+02  6.13219E+02  1.78707E+03  5.10008E+02  6.98947E+02
  1.80964E+03  5.93464E+02  8.35863E+02  7.38600E+02  7.60851E+02  1.99184E+03  1.52899E+03  1.77702E+03
 -1.31326E+03  2.81781E+03 -2.41342E+03  4.05262E+03 -2.90041E+03  1.32708E+03 -3.77661E+03 -2.58793E+02
 -1.63966E+03 -3.47736E+03  8.20130E+02 -4.55139E+03  1.53019E+03 -2.18600E+03  3.05537E+03 -8.40917E+02
  2.51597E+03  1.82820E+03  3.10708E+02  2.23462E+03 -6.58533E+02  9.96354E+02 -9.15107E+02 -1.78250E+02
 -4.13951E+02 -1.38782E+03  1.29565E+03 -1.61761E+03  1.34034E+03 -9.65408E+02  1.15726E+03  4.23168E+02
  6.59793E+02  3.35317E+02  6.42571E+02 -1.21998E+02 -3.68102E+02  8.26632E+02  1.52087E+03  3.19888E+00
  4.20676E+01 -1.36291E+02  1.92908E+03  5.87919E+02  7.63965E+01  2.27897E+03 -1.23916E+02  2.90855E+03
 -1.34786E+03  8.09190E+02 -2.06962E+03  3.33745E+02 -2.04484E+03 -4.47701E+02 -8.66243E+01 -9.90757E+02
  5.70982E+02 -1.15892E+03  8.61779E+02 -4.61730E+02  6.25790E+02  1.18925E+03 -4.14410E+02  9.16596E+02
 -1.24874E+03  7.05946E+02 -9.65693E+02 -1.28870E+03 -4.50766E+02 -1.99752E+03  2.26205E+02 -1.72695E+03
  3.99226E+02 -3.73049E+02  4.78542E+02  2.69343E+02  1.23999E+03  6.37191E+00  2.29247E+01  1.08949E+03
 -2.80397E+02  5.10360E+01 -1.07667E+03 -2.85097E+02  5.24536E+02 -8.30965E+02  1.50991E+03 -8.96996E+02
  7.53242E+02  3.43807E+02  2.58040E+03  5.78479E+02  1.05424E+03  1.29220E+03 -1.76956E+02  1.78403E+03
 -1.12359E+03  1.33953E+02 -1.16180E+03 -2.30980E+01 -5.68310E+02 -1.19377E+03  1.18639E+02 -3.92033E+02
  1.13411E+03 -6.05533E+02  7.05521E+02  8.16124E+02  2.82019E+02  1.18236E+03  2.21694E+02  6.23126E+02
 -3.96222E+02  9.29818E+02 -3.01062E+02 -7.07710E+01 -9.57088E+00  3.00786E+02 -6.18689E+02  3.85041E+02
 -5.66096E+02  9.50395E+02 -1.70835E+03  1.70816E+02 -1.43261E+03  1.50851E+02 -2.39813E+03 -6.60541E+02
 -8.69586E+02 -1.73046E+03  4.49479E+02 -2.37914E+03  6.39264E+02 -1.83351E+03  2.48976E+03 -8.53445E+02
  1.99111E+03 -4.13282E+01  1.22533E+03  1.50108E+03 -7.04750E+02  1.21605E+03 -6.72994E+02  1.28195E+03
 -7.00456E+02  5.55638E+02 -5.85079E+02 -1.14689E+02 -6.92153E+02  3.32779E+02 -6.89039E+02 -6.94500E+01
 -1.24493E+03 -3.16236E+01 -7.98872E+02  1.06203E+02  3.22250E+02 -4.38727E+02 -6.14260E+02 -8.90340E+02
  1.16890E+03 -7.29537E+02  2.15947E+02  1.85349E+02  9.77904E+02  1.03073E+03 -4.07563E+02  1.21166E+03
 -4.44452E+02  1.94136E+03 -1.44631E+03  1.10701E+03 -1.16572E+03  1.56189E+01 -8.53719E+02 -1.06686E+03
 -5.73186E+02 -7.16586E+02  4.61197E+02 -9.46988E+02  3.07128E+02 -6.28604E+02  6.47445E+02  1.79628E+02
  5.97234E+02  3.01931E+02  4.71025E+02  2.85983E+02 -3.97531E+02 -2.92861E+02 -3.27468E+02 -2.52899E+02
  2.62506E+02  4.64273E+02  2.10815E+02  4.62857E+02 -1.79816E+02  4.31859E+02  4.23451E+02  1.77497E+02
 -4.52919E+02  4.08665E+02 -2.25818E+02 -1.90871E+02 -8.08945E+02 -4.65544E+02 -8.72843E+01 -1.07194E+03
  3.05827E+02 -3.45126E+02  1.04693E+02  5.60929E+01  9.17721E+02 -5.91206E+02  3.71175E+02  7.46157E+02
  4.32296E+02  2.68895E+02 -3.68178E+02  3.99156E+02 -4.68972E+02  4.39648E+02 -2.84964E+02  3.88085E+01
 -7.87958E+01  6.22724E+01 -5.23049E+02  2.84519E+02 -5.75614E+02 -2.35058E+02 -9.33651E+02 -5.21032E+01
 -1.01294E+03  4.32186E+02 -2.50478E+02 -5.76437E+02  6.25695E+02 -1.33820E+03  2.83773E+02 -4.12348E+02
  6.01008E+02  1.28438E+02 -4.10790E+02  8.28361E+00 -1.06915E+02  8.08114E+02 -3.98365E+02  8.72452E+02
