 $NMID ID='MM_0lb_SNR800_17hz_g40_95.RAW', FMTDAT='(8E13.5)'
 TRAMP=1., VOLUME=1. $END
  3.09781E+05  3.88066E+02  3.37334E+05  2.50537E+05  8.47400E+04  3.37115E+05 -1.32518E+05  2.50123E+05
 -1.89883E+05  8.26384E+04 -1.11093E+05 -3.32569E+04  1.53862E+03 -5.05026E+04  5.39889E+04  1.18308E+02
  3.50511E+04  5.28428E+04 -1.68373E+04  7.48472E+04 -6.06715E+04  6.27786E+04 -8.30236E+04  3.16949E+04
 -7.95937E+04 -1.12084E+04 -5.62653E+04 -5.02447E+04 -1.47802E+04 -6.84614E+04  2.65977E+04 -4.45338E+04
  3.92371E+04  3.82136E+03  1.54475E+04  4.72006E+04 -3.40461E+04  4.62151E+04 -6.54807E+04 -6.35116E+02
 -5.19596E+04 -5.59701E+04 -6.26573E+03 -7.52986E+04  3.33430E+04 -5.34444E+04  4.66113E+04 -1.62575E+04
  4.15560E+04  1.10078E+04  3.10025E+04  2.46853E+04  1.56365E+04  2.84495E+04 -4.53385E+03  2.65174E+04
 -2.19970E+04  1.26746E+04 -1.90840E+04 -4.54863E+03  4.38069E+03 -7.77007E+03  2.12275E+04  1.08916E+04
  7.27791E+03  3.30855E+04 -3.04917E+04  3.42869E+04 -6.13365E+04  1.92875E+03 -5.55710E+04 -4.13029E+04
 -1.25048E+04 -6.10568E+04  3.81856E+04 -4.36523E+04  5.57690E+04 -1.96156E+03  3.18709E+04  3.07653E+04
 -6.59374E+03  3.34110E+04 -2.87012E+04  1.35985E+04 -2.82047E+04 -5.48699E+03 -1.43500E+04 -1.02172E+04
 -7.43811E+03 -1.17507E+04 -1.20590E+03 -1.68056E+04  7.04221E+03 -2.26066E+04  1.53308E+04 -1.38556E+04
  1.20883E+04  4.50865E+03 -6.43410E+03  1.29477E+04 -1.94654E+04 -2.91771E+03 -8.12003E+03 -3.08164E+04
  2.07957E+04 -4.07504E+04  4.49753E+04 -1.86169E+04  4.23608E+04  1.82985E+04  1.44164E+04  4.20941E+04
 -1.55905E+04  3.12646E+04 -2.36417E+04  1.40939E+03 -8.54630E+03 -2.66952E+04  2.04233E+04 -3.16273E+04
  3.83120E+04 -7.28866E+03  3.17500E+04  2.27001E+04  1.56108E+04  4.30803E+04 -7.79522E+03  4.58139E+04
 -2.90280E+04  3.03249E+04 -3.77719E+04  8.82831E+03 -3.87117E+04 -1.51173E+04 -2.13585E+04 -3.51126E+04
  6.84175E+03 -3.45294E+04  2.92634E+04 -1.27166E+04  2.73518E+04  1.06361E+04  3.06621E+03  1.76820E+04
 -1.34790E+04  7.20041E+03 -9.64587E+03 -7.75262E+03  5.98952E+03 -1.01846E+04  1.75170E+04  6.18446E+03
  1.23785E+04  2.17065E+04 -6.93750E+03  2.36004E+04 -2.15911E+04  9.43116E+03 -2.53564E+04 -6.42105E+03
 -1.70948E+04 -1.65182E+04 -5.96647E+03 -1.72982E+04  3.92950E+03 -1.53475E+04  1.27844E+04 -1.49391E+04
  2.21153E+04 -1.18937E+04  2.87435E+04  1.11752E+03  2.18084E+04  1.66963E+04  4.10133E+03  3.28792E+04
 -1.63720E+04  2.78879E+04 -2.61325E+04  9.50422E+03 -1.97670E+04 -1.05112E+04 -3.86975E+03 -1.37755E+04
  2.34644E+03 -3.98352E+03 -3.21502E+03  5.55831E+03 -1.32670E+04  5.14053E+03 -1.37390E+04 -5.38488E+03
 -8.92080E+03 -1.57869E+04  4.58245E+03 -1.97287E+04  1.29220E+04 -1.45046E+04  1.52610E+04 -1.51511E+03
  9.14857E+03  1.11669E+04 -1.08611E+03  1.64474E+04 -1.09908E+04  9.11743E+03 -1.58523E+04 -3.50900E+03
 -1.17134E+04 -1.45052E+04 -1.26786E+03 -1.98187E+04  8.81329E+03 -1.58828E+04  1.64640E+04 -7.57533E+03
  1.51397E+04  5.87732E+02  1.08633E+04  3.76658E+03  5.37902E+03  7.12314E+02  8.03219E+03 -1.64515E+03
  1.44087E+04  2.40631E+03  1.52966E+04  1.31983E+04  9.69446E+03  2.55404E+04 -2.98091E+03  2.75645E+04
 -1.64772E+04  2.11825E+04 -2.58657E+04  1.03321E+04 -2.59730E+04 -1.90396E+03 -2.23433E+04 -1.51219E+04
 -1.04349E+04 -2.13543E+04  7.13571E+03 -1.99892E+04  1.70626E+04 -1.12277E+04  1.59994E+04  4.16452E+03
  6.78876E+03  1.15702E+04 -7.16793E+03  1.07353E+04 -1.39328E+04  2.62425E+03 -1.05364E+04 -8.42660E+03
 -2.48442E+02 -1.26025E+04  6.47111E+03 -9.71834E+03  8.16802E+03 -1.34141E+03  1.67666E+03  4.92141E+03
 -5.73924E+03  1.41952E+03 -4.15245E+03 -4.88729E+03  6.82702E+02 -1.08673E+04  8.16645E+03 -1.06933E+04
  1.32371E+04 -5.11951E+03  1.29312E+04  3.02688E+03  1.08599E+04  1.01828E+04  5.52868E+03  1.48757E+04
 -1.90161E+03  1.68460E+04 -1.04046E+04  1.08381E+04 -1.19563E+04  2.97367E+03 -8.73720E+03 -2.18445E+03
 -4.71584E+03 -3.30173E+03 -6.26138E+02  1.26630E+03 -2.19491E+03  2.04608E+03 -4.24467E+03  3.91412E+03
 -8.45022E+03 -7.40341E+02 -8.99496E+03 -7.63449E+03 -3.83003E+03 -1.18939E+04  3.63951E+03 -8.83413E+03
  7.68730E+03 -4.03646E+03  5.29484E+03  2.36489E+03  4.87244E+02  3.15992E+03 -3.76469E+03  3.04282E+01
 -3.63617E+03 -5.66113E+03 -7.26486E+02 -7.81263E+03  4.21490E+03 -8.24392E+03  1.05880E+04 -4.39917E+03
  1.28056E+04  7.54666E+02  9.45558E+03  6.55665E+03  1.57319E+03  9.51714E+03 -5.37776E+03  8.98182E+03
 -7.40605E+03  2.95233E+03 -3.82841E+03 -1.42633E+03  1.62602E+03 -2.02284E+03  4.87821E+03 -9.69055E+02
  4.33586E+03  3.53057E+03  9.51312E+02  6.80728E+03 -4.85313E+03  7.09076E+03 -8.47248E+03  1.60895E+03
 -5.33387E+03 -3.83612E+03  5.68097E+02 -7.14069E+03  4.28463E+03 -3.82638E+03  4.09312E+03  1.20916E+03
  6.26090E+02  3.67775E+03 -4.32863E+03  5.14540E+03 -5.40543E+03  2.73002E+03 -5.35242E+03 -1.45220E+03
 -3.47541E+03 -6.62083E+03  1.36192E+03 -7.68890E+03  6.59941E+03 -5.14771E+03  7.10519E+03  1.45955E+03
  4.96763E+03  5.78583E+03 -8.42953E+01  7.75121E+03 -5.75436E+03  4.34287E+03 -6.12112E+03 -5.82979E+02
 -6.26548E+03 -5.53633E+03 -1.33783E+03 -5.46049E+03  2.95673E+03 -5.24744E+03  3.10969E+03 -2.83181E+03
  2.79740E+03  4.55718E+02 -2.73083E+01  1.29522E+03  1.44463E+02 -2.60874E+02  2.56609E+02 -2.12800E+03
  4.13180E+03 -9.10799E+02  5.95469E+03  7.73043E+02  6.24862E+03  3.51947E+03  5.88037E+03  8.07299E+03
 -1.53706E+03  9.77537E+03 -8.65758E+03  7.24372E+03 -1.10307E+04  1.27360E+03 -8.96491E+03 -2.97746E+03
 -4.56382E+03 -7.28724E+03 -3.12498E+02 -5.60358E+03  2.51411E+03 -2.63142E+03  1.82747E+03 -2.28208E+03
  1.34954E+03 -1.68128E+03  2.36837E+03 -2.45953E+03  3.66671E+03 -1.64301E+03  3.77234E+03  4.87409E+02
  4.80519E+03  1.15115E+03  1.70544E+03  3.81581E+03 -1.51054E+03  3.53828E+03 -5.03377E+03  3.15354E+03
 -5.74427E+03 -1.33685E+03 -2.15134E+03 -4.01392E+03  2.97041E+02 -5.69415E+03  3.61616E+03 -5.83621E+03
  5.73858E+03 -3.25391E+03  7.53616E+03  4.08999E+02  5.58863E+03  4.92455E+03  1.36918E+03  6.82487E+03
 -2.67793E+03  6.50011E+03 -3.61963E+03  2.40461E+03 -2.39243E+03 -9.67958E+02 -5.54155E+02 -7.46906E+02
 -4.00514E+02  5.72025E+02 -8.29633E+02  2.06538E+03 -2.96257E+03  1.32216E+03 -4.55358E+03 -6.71403E+02
 -1.84369E+03 -4.48247E+03  8.44663E+02 -5.44843E+03  3.06633E+03 -5.14812E+03  4.43037E+03 -1.18069E+03
  4.62598E+03  2.98335E+03  2.18557E+03  4.14709E+03 -8.87826E+02  5.43339E+03 -3.33828E+03  2.96708E+03
 -4.66342E+03  5.62993E+02 -4.02140E+03 -2.75163E+03 -4.11917E+02 -3.83321E+03  1.98846E+03 -3.03114E+03
  3.12113E+03 -1.53068E+03  2.07525E+03  5.40143E+02  3.69208E+02  1.63279E+03  1.01326E+03  6.99425E+02
  1.90426E+03  7.82154E+02  1.19745E+03  1.03015E+03  1.36116E+03  2.37086E+03  1.52618E+03  2.16531E+03
 -1.46104E+03  3.54638E+03 -2.70880E+03  4.61529E+03 -3.93243E+03  1.44505E+03 -5.23161E+03 -5.46340E+02
 -2.09786E+03 -4.69732E+03  6.76065E+02 -5.63733E+03  2.17239E+03 -3.13262E+03  3.61779E+03 -9.35123E+02
  3.12162E+03  2.00064E+03  5.78709E+02  2.50559E+03 -9.18328E+02  1.49047E+03 -1.63857E+03 -1.20172E+02
 -5.89151E+02 -1.85306E+03  1.52062E+03 -1.84898E+03  1.65075E+03 -9.83047E+02  1.80105E+03  4.72824E+02
  8.91589E+02  6.09349E+02  1.03357E+03  1.67507E+02 -4.75714E+02  8.13302E+02  1.51497E+03 -2.68694E+02
  4.80079E+01 -3.78359E+02  2.12339E+03  5.45620E+02  5.12320E+02  2.88545E+03 -6.67575E+02  3.39919E+03
 -1.94302E+03  1.73141E+03 -2.50673E+03  2.96605E+02 -2.62002E+03 -6.06732E+02 -2.75331E+02 -1.34316E+03
  2.88309E+02 -1.59683E+03  9.18969E+02 -6.79211E+02  7.82459E+02  1.12135E+03 -6.11115E+02  1.28819E+03
 -1.69338E+03  1.01094E+03 -1.38498E+03 -1.29348E+03 -9.67865E+02 -2.72419E+03  1.84966E+02 -2.08853E+03
  1.08593E+03 -9.22771E+02  9.83687E+02 -1.02761E+02  1.46026E+03  4.27148E+02  2.47509E+02  1.35295E+03
 -4.07924E+02  3.62708E+01 -1.09737E+03 -4.84388E+02  6.15983E+02 -1.32716E+03  2.15526E+03 -1.24637E+03
  2.05251E+03  2.07149E+02  3.16272E+03  1.19007E+03  1.54520E+03  2.23157E+03 -5.20894E+02  2.14491E+03
 -1.98647E+03  5.89822E+02 -1.87712E+03 -1.49011E+02 -8.97737E+02 -1.61133E+03  4.14399E+02 -8.24484E+02
  1.91926E+03 -7.11970E+02  1.07326E+03  8.87333E+02  1.35530E+02  1.57809E+03  5.40118E+01  1.35298E+03
 -3.44406E+02  1.15640E+03 -4.69058E+02  1.19429E+02 -1.60494E+02  2.66685E+02 -9.36881E+02  4.75052E+02
 -8.13197E+02  9.91824E+02 -2.02534E+03  5.94515E+02 -2.71340E+03  7.41865E+01 -2.93761E+03 -1.14291E+03
 -1.40941E+03 -3.16745E+03  7.44121E+02 -3.51022E+03  1.70006E+03 -3.30562E+03  3.33843E+03 -9.76030E+02
  3.30602E+03 -1.98855E+02  1.79314E+03  2.19246E+03 -5.01417E+02  1.98419E+03 -8.82502E+02  1.73928E+03
 -1.41992E+03  4.73552E+02 -7.92766E+02 -2.33756E+02 -5.28249E+02  2.89021E+02 -7.77825E+02  1.94088E+02
 -1.21403E+03  4.34973E+01 -6.23087E+02 -1.01247E+02  2.06040E+02 -7.77056E+02 -2.79850E+02 -1.12144E+03
  1.57842E+03 -9.63850E+02  6.94519E+02  3.22969E+02  1.61292E+03  1.20794E+03 -3.01641E+02  2.07926E+03
 -1.34342E+03  2.53702E+03 -2.23949E+03  1.63142E+03 -2.59704E+03 -3.31666E+02 -1.71025E+03 -1.40435E+03
 -1.30161E+03 -1.84714E+03  4.73803E+02 -1.66819E+03  8.79810E+02 -1.05721E+03  1.01943E+03  4.44283E+01
  6.62215E+02  4.59587E+02 -3.64169E+01  5.52139E+02 -2.70085E+02  6.33311E+01 -9.91275E+01 -4.22353E+02
  7.66657E+02  1.02387E+02  4.65572E+02  5.89360E+02  1.40591E+02  5.84445E+02  2.04665E+02  4.81012E+02
 -6.48122E+02  9.66443E+02 -1.14614E+03  1.90918E+02 -1.12123E+03 -3.86505E+02 -2.40355E+01 -1.63163E+03
  8.30904E+02 -1.13859E+03  1.17132E+03 -1.71332E+02  1.23929E+03 -1.09810E+02  6.89294E+02  1.22588E+03
  5.45678E+02  1.11652E+03 -2.58489E+02  9.39965E+02 -6.06613E+02  5.44204E+02 -6.52361E+02  1.44271E+02
 -2.04669E+02 -1.79593E+02 -3.36305E+02  1.03651E+02 -9.19673E+02  3.71171E+02 -1.31538E+03 -4.12122E+02
 -1.43233E+03  4.24491E+01 -5.82880E+02 -1.46549E+03  8.34976E+02 -1.83128E+03  1.30681E+03 -5.37635E+02
  1.21010E+03  1.30994E+02 -2.58928E+02  5.75514E+02 -3.90971E+02  1.17099E+03 -8.85009E+02  8.70359E+02
