 $NMID ID='MM_0lb_SNR800_17hz_g55_73.RAW', FMTDAT='(8E13.5)'
 TRAMP=1., VOLUME=1. $END
  3.09684E+05  4.07585E+02  3.37692E+05  2.50572E+05  8.46776E+04  3.37786E+05 -1.32628E+05  2.50817E+05
 -1.90339E+05  8.28719E+04 -1.11775E+05 -3.30337E+04  1.15998E+03 -5.03193E+04  5.38134E+04  2.21537E+02
  3.53334E+04  5.30234E+04 -1.68818E+04  7.51544E+04 -6.05755E+04  6.28613E+04 -8.37985E+04  3.21266E+04
 -8.02932E+04 -1.12475E+04 -5.67713E+04 -5.07873E+04 -1.49461E+04 -6.90328E+04  2.70329E+04 -4.54442E+04
  3.98565E+04  3.95846E+03  1.59983E+04  4.73288E+04 -3.41424E+04  4.67388E+04 -6.60441E+04 -4.21205E+02
 -5.29542E+04 -5.67117E+04 -6.93259E+03 -7.64153E+04  3.34673E+04 -5.46926E+04  4.73972E+04 -1.70726E+04
  4.23243E+04  1.12616E+04  3.17863E+04  2.50679E+04  1.58296E+04  2.90290E+04 -4.89652E+03  2.68277E+04
 -2.20695E+04  1.24646E+04 -1.85440E+04 -4.69651E+03  5.21117E+03 -7.42653E+03  2.18438E+04  1.18269E+04
  7.37027E+03  3.48172E+04 -3.16710E+04  3.50301E+04 -6.22833E+04  1.89072E+03 -5.65149E+04 -4.21800E+04
 -1.26342E+04 -6.22844E+04  3.91179E+04 -4.45806E+04  5.73383E+04 -2.35313E+03  3.32058E+04  3.16369E+04
 -6.26923E+03  3.50849E+04 -2.93200E+04  1.51739E+04 -2.95935E+04 -4.87411E+03 -1.57045E+04 -1.06461E+04
 -8.19050E+03 -1.25217E+04 -8.18988E+02 -1.75483E+04  6.91392E+03 -2.29172E+04  1.51364E+04 -1.34854E+04
  1.18044E+04  4.78119E+03 -7.30760E+03  1.28938E+04 -2.05294E+04 -3.66853E+03 -8.07015E+03 -3.24933E+04
  2.21383E+04 -4.21883E+04  4.66985E+04 -1.90744E+04  4.38543E+04  1.91540E+04  1.52041E+04  4.29946E+04
 -1.54499E+04  3.24149E+04 -2.44964E+04  1.33098E+03 -9.49938E+03 -2.71462E+04  2.09923E+04 -3.29031E+04
  4.00164E+04 -8.38726E+03  3.41230E+04  2.33863E+04  1.70272E+04  4.48781E+04 -7.93331E+03  4.81354E+04
 -3.04991E+04  3.19208E+04 -3.99829E+04  8.99159E+03 -4.08491E+04 -1.58722E+04 -2.26618E+04 -3.62212E+04
  7.11919E+03 -3.65116E+04  3.06714E+04 -1.38849E+04  2.83130E+04  1.09313E+04  3.66418E+03  1.86653E+04
 -1.32073E+04  7.85530E+03 -9.90035E+03 -7.59659E+03  5.80070E+03 -1.05165E+04  1.75686E+04  6.31150E+03
  1.30591E+04  2.19780E+04 -5.98486E+03  2.43468E+04 -2.19084E+04  1.05976E+04 -2.68248E+04 -5.63084E+03
 -1.88847E+04 -1.67804E+04 -6.98365E+03 -1.88218E+04  3.73921E+03 -1.73748E+04  1.41214E+04 -1.62968E+04
  2.38389E+04 -1.21760E+04  3.08460E+04  2.27768E+03  2.27953E+04  1.83519E+04  4.23583E+03  3.44824E+04
 -1.70096E+04  2.90665E+04 -2.69346E+04  9.92166E+03 -2.01440E+04 -1.02751E+04 -4.18792E+03 -1.34834E+04
  2.17630E+03 -3.34797E+03 -3.62392E+03  6.40321E+03 -1.47226E+04  5.06746E+03 -1.49814E+04 -5.99266E+03
 -9.21269E+03 -1.73558E+04  4.83106E+03 -2.14104E+04  1.42350E+04 -1.53857E+04  1.63564E+04 -1.55838E+03
  1.02584E+04  1.20186E+04 -9.29887E+02  1.72633E+04 -1.18282E+04  1.03207E+04 -1.77366E+04 -3.89681E+03
 -1.29359E+04 -1.58173E+04 -1.64110E+03 -2.09965E+04  9.45544E+03 -1.71248E+04  1.77499E+04 -8.21739E+03
  1.63093E+04  5.12246E+02  1.18896E+04  4.00503E+03  6.03322E+03  5.64965E+02  8.66211E+03 -1.54974E+03
  1.58105E+04  2.66193E+03  1.72466E+04  1.38816E+04  1.08747E+04  2.75816E+04 -2.73404E+03  3.05320E+04
 -1.75499E+04  2.40151E+04 -2.82343E+04  1.19861E+04 -2.93954E+04 -1.94853E+03 -2.47091E+04 -1.68024E+04
 -1.09115E+04 -2.39975E+04  8.14543E+03 -2.19118E+04  1.86640E+04 -1.19079E+04  1.72909E+04  4.74751E+03
  6.83351E+03  1.25315E+04 -7.83653E+03  1.16436E+04 -1.48515E+04  2.80098E+03 -1.12739E+04 -9.06971E+03
  2.25954E+01 -1.37382E+04  6.80482E+03 -1.05943E+04  8.82731E+03 -1.25244E+03  1.71517E+03  5.43880E+03
 -6.08092E+03  1.86195E+03 -4.80135E+03 -4.86030E+03  4.20572E+01 -1.16818E+04  8.70554E+03 -1.20572E+04
  1.46087E+04 -5.93820E+03  1.49029E+04  2.78429E+03  1.28456E+04  1.13201E+04  6.05934E+03  1.70356E+04
 -2.15808E+03  1.91175E+04 -1.15088E+04  1.19774E+04 -1.34624E+04  3.03790E+03 -9.57584E+03 -2.54638E+03
 -4.78798E+03 -3.67231E+03 -8.63830E+02  1.38002E+03 -2.15096E+03  2.36683E+03 -4.35023E+03  4.08922E+03
 -9.08698E+03 -6.19307E+02 -9.87676E+03 -8.25572E+03 -3.91393E+03 -1.33494E+04  4.08372E+03 -9.77122E+03
  8.22776E+03 -4.30371E+03  5.95386E+03  2.59248E+03  4.64557E+02  3.62640E+03 -4.59600E+03  2.26175E+02
 -4.29125E+03 -6.01266E+03 -7.37879E+02 -8.45630E+03  4.82836E+03 -9.42436E+03  1.15801E+04 -4.98780E+03
  1.34314E+04  9.11007E+02  1.04245E+04  7.70110E+03  1.92982E+03  1.03288E+04 -5.78147E+03  9.66758E+03
 -7.80444E+03  2.99545E+03 -4.21902E+03 -1.69165E+03  1.66134E+03 -2.58150E+03  5.23115E+03 -7.66109E+02
  4.87610E+03  4.07952E+03  1.13513E+03  7.41218E+03 -5.13196E+03  7.39412E+03 -8.86424E+03  2.44440E+03
 -5.88260E+03 -4.50330E+03  1.94676E+02 -7.65205E+03  4.58979E+03 -3.95422E+03  4.42150E+03  1.33921E+03
  6.60480E+02  4.56493E+03 -4.94600E+03  5.75923E+03 -6.57675E+03  2.84913E+03 -6.16801E+03 -1.60870E+03
 -3.68089E+03 -7.67237E+03  1.58899E+03 -8.61926E+03  7.49969E+03 -5.66167E+03  8.11232E+03  1.40695E+03
  5.16294E+03  6.53341E+03 -1.28452E+02  8.86933E+03 -5.84464E+03  5.06394E+03 -6.39727E+03 -5.39460E+02
 -6.60827E+03 -5.97724E+03 -1.15993E+03 -5.92118E+03  3.28824E+03 -5.15602E+03  3.45278E+03 -2.88665E+03
  3.17515E+03  4.64127E+02 -1.61417E+02  1.26051E+03  3.09482E+02 -4.80102E+02  6.20631E+02 -2.74414E+03
  5.05609E+03 -1.37897E+03  6.79926E+03  1.04349E+03  6.90758E+03  3.98996E+03  5.93492E+03  9.15282E+03
 -1.94301E+03  1.09093E+04 -9.28530E+03  8.19335E+03 -1.20762E+04  1.35322E+03 -9.86140E+03 -3.14699E+03
 -5.11891E+03 -7.98542E+03 -5.84896E+02 -6.49838E+03  2.31559E+03 -3.00693E+03  2.50521E+03 -2.56447E+03
  1.33257E+03 -1.90311E+03  2.41666E+03 -2.32697E+03  3.93828E+03 -1.78067E+03  4.28087E+03  3.48054E+02
  5.75694E+03  1.55353E+03  1.81140E+03  4.25724E+03 -1.49492E+03  4.08493E+03 -5.45512E+03  3.23543E+03
 -6.07625E+03 -1.04050E+03 -2.70711E+03 -4.39918E+03  1.66821E+02 -6.49566E+03  3.72806E+03 -6.48901E+03
  6.59127E+03 -4.26670E+03  8.40966E+03  7.49281E+02  6.00697E+03  5.19722E+03  1.34226E+03  7.51767E+03
 -2.82514E+03  6.80942E+03 -4.19094E+03  2.19632E+03 -2.38436E+03 -1.14493E+03 -6.44976E+02 -9.06318E+02
 -5.96544E+02  4.84592E+02 -1.03622E+03  2.01446E+03 -3.25696E+03  1.40769E+03 -4.57685E+03 -5.32696E+02
 -2.05950E+03 -4.89463E+03  4.05828E+02 -5.85040E+03  3.45582E+03 -5.63815E+03  4.94141E+03 -1.70606E+03
  5.41237E+03  2.61285E+03  2.50342E+03  4.33679E+03 -1.02030E+03  5.40861E+03 -3.60826E+03  3.36834E+03
 -4.90299E+03  4.62659E+02 -4.35364E+03 -3.04137E+03 -1.48043E+02 -4.11803E+03  2.02388E+03 -3.09405E+03
  3.59884E+03 -1.51514E+03  2.18293E+03  5.38513E+02  7.73043E+02  2.07094E+03  1.02297E+03  8.89476E+02
  1.76962E+03  5.12914E+02  1.33009E+03  1.17126E+03  1.52662E+03  2.65489E+03  1.92125E+03  2.32485E+03
 -1.51416E+03  3.67087E+03 -3.25650E+03  4.83182E+03 -4.45389E+03  1.52567E+03 -5.07009E+03 -1.32559E+03
 -2.16579E+03 -4.86183E+03  6.84551E+02 -5.75909E+03  2.65987E+03 -3.28688E+03  4.29401E+03 -1.05271E+03
  3.20240E+03  2.17517E+03  5.36311E+02  2.85446E+03 -1.33796E+03  1.70166E+03 -1.80241E+03 -3.56235E+02
 -6.41581E+02 -1.92785E+03  1.68014E+03 -1.97667E+03  1.78880E+03 -1.09490E+03  2.13529E+03  4.58422E+02
  1.25704E+03  3.88812E+02  9.22226E+02  1.52538E+02 -5.82757E+01  8.52814E+02  1.58379E+03 -3.28857E+02
  5.07212E+02 -2.18980E+02  2.16622E+03  6.34362E+02  3.23137E+02  2.97546E+03 -6.79509E+02  3.79723E+03
 -2.09755E+03  1.57227E+03 -2.71997E+03  6.57252E+02 -2.72465E+03 -9.45322E+02 -4.43705E+02 -1.09120E+03
  6.18394E+02 -1.42702E+03  1.29800E+03 -8.74447E+02  1.16270E+03  1.46446E+03 -8.67211E+02  1.32754E+03
 -2.00487E+03  7.26115E+02 -1.64293E+03 -1.65285E+03 -1.08753E+03 -2.67917E+03  7.68961E+01 -2.25349E+03
  8.22070E+02 -1.04509E+03  1.59023E+03 -1.64835E+02  1.75228E+03  2.71625E+02  3.41505E+02  1.63937E+03
 -4.86603E+02  1.81403E+02 -1.35952E+03 -4.34931E+02  5.59724E+02 -1.26557E+03  2.49007E+03 -1.39831E+03
  2.12510E+03  1.67741E+02  3.16537E+03  1.44771E+03  1.37209E+03  2.14325E+03 -6.12312E+02  2.39037E+03
 -1.77601E+03  3.70032E+02 -1.85051E+03 -3.60917E+02 -1.00729E+03 -1.66556E+03  2.84484E+02 -9.37382E+02
  1.56247E+03 -6.81030E+02  8.93878E+02  7.97367E+02  3.00998E+02  1.63026E+03  2.18258E+02  1.26644E+03
 -3.81806E+02  1.26079E+03 -7.50519E+02  1.34222E+02  6.98825E+01  5.42802E+02 -6.77432E+02  7.28076E+02
 -9.06986E+02  9.07000E+02 -2.20202E+03  6.77300E+02 -2.35431E+03  2.92110E+02 -3.06305E+03 -1.46262E+03
 -1.09969E+03 -3.13400E+03  5.63881E+02 -3.67617E+03  1.62694E+03 -3.33056E+03  3.72423E+03 -1.34353E+03
  2.93023E+03  2.73449E+02  1.64590E+03  2.23418E+03 -4.26908E+02  2.32445E+03 -8.48479E+02  1.64813E+03
 -1.20999E+03  1.13243E+03 -3.04328E+02 -2.95374E+02 -1.50171E+02  3.21594E+02 -6.64073E+02 -1.69534E+02
 -1.27143E+03  7.92501E+01 -9.35769E+02  2.05343E+02  1.83386E+02 -8.97498E+02 -5.70708E+02 -7.60089E+02
  1.57548E+03 -9.25641E+02  9.96360E+02  2.11197E+02  1.72544E+03  1.28916E+03 -3.65227E+02  1.86679E+03
 -1.14356E+03  2.67433E+03 -2.02600E+03  1.58286E+03 -2.22787E+03 -3.97864E+02 -1.55076E+03 -1.56638E+03
 -6.71692E+02 -1.82195E+03  5.09167E+02 -1.94237E+03  8.78673E+02 -8.86564E+02  9.70179E+02  2.18025E+02
  7.45862E+02  6.00414E+02  5.93215E+01  4.58673E+02 -5.12270E+02 -1.73267E+02 -7.56291E+01 -4.06453E+02
  6.01444E+02  6.69745E+01  3.05073E+02  6.68473E+02  4.76576E+02  9.47267E+02  3.86986E+02  3.85375E+02
 -7.02370E+02  8.18861E+02 -1.01944E+03  3.12775E+02 -1.01033E+03 -7.88100E+02  2.60178E+02 -1.41119E+03
  1.02499E+03 -1.14379E+03  9.94229E+02 -1.77111E+02  1.24846E+03 -4.69249E+02  7.35634E+02  1.07780E+03
  4.68985E+02  8.05585E+02 -3.95990E+02  8.46409E+02 -4.90548E+02  8.12102E+02 -4.05005E+02 -2.88888E+01
 -1.81848E+02 -1.16107E+02 -4.74317E+02  7.75099E+01 -1.07246E+03  2.99098E+02 -1.34426E+03 -5.05429E+01
 -1.05445E+03  2.04553E+02 -4.43996E+02 -9.25319E+02  8.93310E+02 -1.85846E+03  9.29420E+02 -5.56638E+02
  1.10565E+03  5.00713E+02  3.09110E+01  6.40860E+02 -3.35735E+02  1.12112E+03 -7.50925E+02  9.61166E+02
