 $NMID ID='MM_0lb_SNR800_14hz_g40_49.RAW', FMTDAT='(8E13.5)'
 TRAMP=1., VOLUME=1. $END
  3.09740E+05  4.49691E+02  3.37450E+05  2.50361E+05  8.45524E+04  3.37830E+05 -1.32812E+05  2.50710E+05
 -1.89855E+05  8.24043E+04 -1.11447E+05 -3.29125E+04  1.00244E+03 -5.02966E+04  5.36331E+04 -1.33366E+02
  3.52290E+04  5.27901E+04 -1.65679E+04  7.51027E+04 -6.09929E+04  6.30786E+04 -8.37321E+04  3.18946E+04
 -8.05230E+04 -1.13154E+04 -5.67825E+04 -5.08355E+04 -1.50890E+04 -6.94166E+04  2.71211E+04 -4.55083E+04
  3.96997E+04  3.94069E+03  1.61578E+04  4.74477E+04 -3.43816E+04  4.66181E+04 -6.64239E+04 -3.45051E+02
 -5.30085E+04 -5.66409E+04 -6.37534E+03 -7.65988E+04  3.37570E+04 -5.43764E+04  4.74871E+04 -1.70040E+04
  4.29854E+04  1.10542E+04  3.13311E+04  2.51096E+04  1.59303E+04  2.87728E+04 -4.87752E+03  2.72060E+04
 -2.19472E+04  1.27143E+04 -1.88369E+04 -4.88847E+03  5.38367E+03 -7.33343E+03  2.20430E+04  1.19241E+04
  7.26150E+03  3.48064E+04 -3.16941E+04  3.52285E+04 -6.28231E+04  2.04442E+03 -5.64034E+04 -4.22300E+04
 -1.28291E+04 -6.27949E+04  3.92779E+04 -4.49722E+04  5.73911E+04 -2.43097E+03  3.37461E+04  3.17323E+04
 -5.93803E+03  3.55912E+04 -2.96999E+04  1.52281E+04 -2.96018E+04 -4.57480E+03 -1.59215E+04 -1.05898E+04
 -7.95182E+03 -1.25705E+04 -1.15094E+03 -1.75818E+04  7.37673E+03 -2.27445E+04  1.53893E+04 -1.35036E+04
  1.15937E+04  5.15888E+03 -7.81832E+03  1.29600E+04 -2.06652E+04 -4.07191E+03 -8.38109E+03 -3.29427E+04
  2.21985E+04 -4.28700E+04  4.75056E+04 -1.96309E+04  4.46418E+04  1.90581E+04  1.55649E+04  4.33834E+04
 -1.56021E+04  3.25621E+04 -2.48711E+04  1.86943E+03 -9.60121E+03 -2.74421E+04  2.07285E+04 -3.31771E+04
  4.03141E+04 -8.51990E+03  3.45267E+04  2.36446E+04  1.75319E+04  4.56066E+04 -7.61281E+03  4.92489E+04
 -3.06003E+04  3.28973E+04 -4.12796E+04  9.58039E+03 -4.16431E+04 -1.62834E+04 -2.27050E+04 -3.69542E+04
  7.11699E+03 -3.68557E+04  3.12510E+04 -1.41457E+04  2.87502E+04  1.07760E+04  3.79726E+03  1.85282E+04
 -1.33967E+04  7.90948E+03 -9.94733E+03 -7.88242E+03  5.91816E+03 -1.07289E+04  1.80323E+04  6.02393E+03
  1.33521E+04  2.21259E+04 -5.76190E+03  2.44915E+04 -2.20967E+04  1.06760E+04 -2.74745E+04 -4.93119E+03
 -1.96336E+04 -1.72317E+04 -7.73976E+03 -1.95468E+04  4.08511E+03 -1.84533E+04  1.51359E+04 -1.69344E+04
  2.50156E+04 -1.27174E+04  3.14627E+04  2.28029E+03  2.31792E+04  1.91842E+04  4.14502E+03  3.55282E+04
 -1.70914E+04  2.98279E+04 -2.74440E+04  1.02986E+04 -2.02629E+04 -1.02140E+04 -4.39792E+03 -1.37388E+04
  2.02668E+03 -3.03240E+03 -4.48807E+03  6.61588E+03 -1.53660E+04  5.06381E+03 -1.55270E+04 -6.53034E+03
 -9.82323E+03 -1.81596E+04  5.12127E+03 -2.21272E+04  1.46935E+04 -1.58896E+04  1.74497E+04 -1.59320E+03
  1.09149E+04  1.26619E+04 -1.03961E+03  1.83020E+04 -1.25528E+04  1.02783E+04 -1.83257E+04 -3.78785E+03
 -1.35282E+04 -1.66735E+04 -1.95363E+03 -2.21647E+04  1.00596E+04 -1.82534E+04  1.87542E+04 -9.02139E+03
  1.69998E+04  7.24518E+01  1.20608E+04  4.22499E+03  6.20189E+03  5.34909E+02  9.24391E+03 -2.02683E+03
  1.64343E+04  2.72040E+03  1.83341E+04  1.48087E+04  1.17551E+04  2.89339E+04 -2.80435E+03  3.26071E+04
 -1.90556E+04  2.60606E+04 -3.02056E+04  1.29665E+04 -3.15465E+04 -2.26062E+03 -2.66310E+04 -1.83140E+04
 -1.17288E+04 -2.62072E+04  9.07384E+03 -2.37415E+04  2.03770E+04 -1.23555E+04  1.83792E+04  5.00613E+03
  7.03201E+03  1.37176E+04 -8.50948E+03  1.22242E+04 -1.55980E+04  2.62040E+03 -1.19280E+04 -9.65348E+03
 -2.67000E+02 -1.50259E+04  7.62650E+03 -1.10271E+04  9.92581E+03 -1.41680E+03  2.13347E+03  6.48022E+03
 -6.54194E+03  1.96942E+03 -5.67804E+03 -5.30490E+03 -1.95837E+00 -1.30419E+04  9.04778E+03 -1.33498E+04
  1.57063E+04 -6.76884E+03  1.68087E+04  2.79769E+03  1.49663E+04  1.23088E+04  6.65488E+03  1.91809E+04
 -3.05274E+03  2.12016E+04 -1.31644E+04  1.30925E+04 -1.48145E+04  3.27499E+03 -1.05471E+04 -3.29212E+03
 -5.02896E+03 -4.63829E+03 -8.58681E+02  1.04174E+03 -2.41009E+03  2.18179E+03 -4.64027E+03  4.35247E+03
 -1.02359E+04 -5.95623E+02 -1.10413E+04 -8.89241E+03 -4.18714E+03 -1.42745E+04  4.53196E+03 -1.10176E+04
  8.89106E+03 -4.46978E+03  6.63814E+03  2.80977E+03  1.99652E+02  4.22285E+03 -4.72767E+03 -2.77176E+02
 -4.94757E+03 -6.56558E+03 -9.76634E+02 -9.85974E+03  6.10246E+03 -1.06417E+04  1.36480E+04 -5.49221E+03
  1.56717E+04  1.06509E+03  1.16052E+04  9.13032E+03  2.30640E+03  1.18955E+04 -6.79257E+03  1.07080E+04
 -9.02802E+03  3.43461E+03 -4.46531E+03 -1.92190E+03  1.41726E+03 -2.86331E+03  5.89231E+03 -6.49790E+02
  5.00577E+03  4.51797E+03  1.22487E+03  8.40410E+03 -5.81999E+03  8.39642E+03 -1.01587E+04  2.34385E+03
 -6.17222E+03 -5.06880E+03  1.19391E+02 -9.03372E+03  5.35258E+03 -4.58138E+03  5.39736E+03  1.86011E+03
  1.07346E+03  5.49646E+03 -5.23217E+03  6.92129E+03 -7.63639E+03  3.23299E+03 -7.39543E+03 -2.22001E+03
 -4.32166E+03 -9.40014E+03  1.91396E+03 -1.05484E+04  8.87018E+03 -6.69711E+03  9.83769E+03  1.64191E+03
  6.49736E+03  7.71194E+03 -5.25322E+02  1.00258E+04 -7.21892E+03  5.70528E+03 -7.59750E+03 -6.00499E+02
 -7.45018E+03 -6.85078E+03 -1.56463E+03 -7.33373E+03  3.75364E+03 -6.39377E+03  4.40747E+03 -3.20999E+03
  3.50988E+03  8.63376E+02 -1.02740E+02  1.42529E+03  2.63753E+02 -9.85124E+02  1.00097E+03 -3.52319E+03
  6.27781E+03 -2.16718E+03  8.95739E+03  9.95604E+02  8.82059E+03  5.92102E+03  6.90972E+03  1.16915E+04
 -2.43447E+03  1.32710E+04 -1.16169E+04  1.01230E+04 -1.50060E+04  1.89266E+03 -1.20770E+04 -4.83893E+03
 -6.40177E+03 -9.88548E+03 -1.27523E+02 -8.28430E+03  3.51603E+03 -4.40566E+03  2.91170E+03 -3.40848E+03
  2.20444E+03 -2.04429E+03  2.69106E+03 -3.09724E+03  3.96877E+03 -1.83173E+03  4.92316E+03  5.27260E+00
  6.61341E+03  1.44841E+03  2.75470E+03  5.28151E+03 -1.93025E+03  5.47790E+03 -6.70947E+03  4.56391E+03
 -7.71331E+03 -1.26689E+03 -4.43883E+03 -5.35455E+03 -3.02177E+02 -8.56194E+03  5.25712E+03 -8.59919E+03
  8.66830E+03 -5.28917E+03  1.06606E+04  9.76523E+02  7.38191E+03  7.25034E+03  1.52406E+03  9.85217E+03
 -3.84704E+03  8.44466E+03 -5.61711E+03  3.04252E+03 -3.36670E+03 -9.51063E+02 -1.43241E+03 -8.77495E+02
 -7.15091E+02 -6.53465E+01 -1.46905E+03  2.11872E+03 -3.61297E+03  1.49982E+03 -5.98038E+03 -9.29560E+02
 -3.24360E+03 -5.98189E+03  4.43301E+02 -7.91829E+03  4.83149E+03 -7.07980E+03  6.97858E+03 -2.16635E+03
  6.83435E+03  3.69797E+03  3.54335E+03  6.37850E+03 -1.39996E+03  7.74984E+03 -5.22971E+03  4.69959E+03
 -7.05857E+03  4.11853E+02 -5.46360E+03 -4.28256E+03 -3.33039E+02 -6.07613E+03  3.02886E+03 -4.51336E+03
  4.61594E+03 -1.70098E+03  3.27641E+03  1.18487E+03  1.17087E+03  2.48427E+03  9.47682E+02  1.28431E+03
  2.06231E+03  5.12796E+02  1.72048E+03  1.15985E+03  1.94982E+03  3.36359E+03  2.11374E+03  3.44595E+03
 -1.74837E+03  5.46271E+03 -4.88513E+03  6.60399E+03 -6.43862E+03  1.62926E+03 -7.75298E+03 -2.12062E+03
 -3.42164E+03 -6.72274E+03  1.28395E+03 -8.23303E+03  4.12860E+03 -4.84088E+03  5.89801E+03 -1.13544E+03
  4.51873E+03  2.80945E+03  7.54359E+02  4.08661E+03 -1.95333E+03  2.48435E+03 -2.71347E+03 -5.51221E+02
 -1.32672E+03 -2.93700E+03  2.00851E+03 -3.12810E+03  2.75685E+03 -1.67894E+03  2.77833E+03  5.63015E+02
  1.40778E+03  1.35022E+03  1.08002E+03  6.41406E+02 -9.27395E+01  1.30137E+03  1.67966E+03 -5.65130E+02
  7.93683E+02 -3.99803E+01  3.21249E+03  1.10913E+03  1.14021E+03  4.01943E+03 -8.24788E+02  5.06084E+03
 -3.15948E+03  3.00152E+03 -4.15818E+03  9.76556E+02 -3.92008E+03 -1.56222E+03 -1.18293E+03 -2.34371E+03
  7.10762E+02 -2.42190E+03  1.94656E+03 -1.21606E+03  1.57274E+03  1.60331E+03 -6.60811E+02  2.13205E+03
 -2.77539E+03  1.57591E+03 -3.09441E+03 -2.12481E+03 -1.57061E+03 -4.07891E+03  4.14452E+02 -3.77187E+03
  1.75286E+03 -1.50212E+03  2.33225E+03 -6.53627E+01  2.66599E+03  3.32686E+02  3.46391E+02  1.83843E+03
 -1.11891E+03  2.99825E+02 -1.50373E+03 -1.00740E+03  7.21149E+02 -2.30200E+03  3.04772E+03 -2.48915E+03
  3.68832E+03  1.40896E+02  4.42597E+03  2.49385E+03  1.81164E+03  3.88465E+03 -9.58906E+02  4.11930E+03
 -3.09351E+03  1.15014E+03 -3.14506E+03 -4.38160E+02 -1.57516E+03 -2.84210E+03  7.68424E+02 -1.91549E+03
  2.97231E+03 -1.65774E+03  2.19905E+03  1.00988E+03  3.96113E+02  2.79071E+03  1.27913E+02  2.32393E+03
 -1.23662E+03  1.82409E+03 -1.15784E+03  8.41736E+02 -2.92715E+02  5.38363E+02 -9.18200E+02  1.20334E+03
 -1.18528E+03  1.64488E+03 -3.33288E+03  1.38715E+03 -3.96250E+03  5.06808E+01 -4.73942E+03 -2.25982E+03
 -2.36712E+03 -5.40941E+03  1.28526E+03 -6.25772E+03  2.88299E+03 -5.03813E+03  5.81993E+03 -1.78379E+03
  5.34281E+03  6.58460E+02  3.32507E+03  3.71870E+03 -5.48171E+01  3.53515E+03 -1.45156E+03  2.67864E+03
 -2.17540E+03  1.03475E+03 -1.60319E+03 -3.18542E+02 -2.56299E+02 -5.71275E+01 -7.19791E+02  2.31507E+02
 -1.11495E+03  6.29577E+01 -1.00132E+03  1.19109E+02  1.04449E+02 -1.02593E+03 -1.58022E+02 -1.69001E+03
  2.06456E+03 -1.25656E+03  2.08411E+03 -1.60240E+02  2.59870E+03  2.21487E+03  3.13927E+02  3.75930E+03
 -1.79225E+03  4.69870E+03 -4.11156E+03  2.95796E+03 -4.36652E+03 -6.63174E+02 -3.68499E+03 -3.06572E+03
 -1.76494E+03 -3.72436E+03  5.59948E+02 -3.34224E+03  1.89392E+03 -1.72365E+03  2.22131E+03 -8.56703E+00
  1.52728E+03  9.82220E+02 -1.24061E+02  1.09724E+03 -6.98698E+02 -1.92449E+02 -6.87565E+01 -6.06248E+02
  1.28372E+03 -2.24872E+02  1.17891E+03  9.50192E+02  7.48280E+02  1.34852E+03  1.39836E+02  1.58848E+03
 -1.34334E+03  1.63741E+03 -2.03844E+03  1.39325E+02 -2.29470E+03 -1.71537E+03 -5.18841E+02 -3.03879E+03
  1.44410E+03 -2.51094E+03  2.79197E+03 -4.31438E+02  2.72869E+03  9.95734E+01  1.18917E+03  2.46346E+03
  4.60324E+02  1.94724E+03 -6.84501E+02  1.73323E+03 -1.52083E+03  1.44613E+03 -1.00710E+03  1.83031E+02
 -7.76937E+02 -5.80216E+01 -1.32198E+03  2.95321E+02 -1.40285E+03  4.40460E+02 -1.70915E+03 -4.55349E+02
 -2.43003E+03 -6.49860E+02 -3.56803E+02 -2.38418E+03  1.27701E+03 -3.07085E+03  1.94831E+03 -1.11597E+03
  2.13226E+03  2.28816E+02  8.27388E+02  1.25521E+03 -8.03706E+01  2.14553E+03 -1.68537E+03  1.36372E+03
