 $NMID ID='MM_0lb_SNR800_18hz_g40_23.RAW', FMTDAT='(8E13.5)'
 TRAMP=1., VOLUME=1. $END
  3.09906E+05  3.48082E+02  3.37240E+05  2.50277E+05  8.40233E+04  3.37445E+05 -1.32217E+05  2.50100E+05
 -1.89533E+05  8.21815E+04 -1.11199E+05 -3.28878E+04  1.50314E+03 -5.03425E+04  5.40237E+04  4.01024E+01
  3.52225E+04  5.27005E+04 -1.70221E+04  7.48443E+04 -6.01102E+04  6.24990E+04 -8.27369E+04  3.12506E+04
 -7.91962E+04 -1.09663E+04 -5.60543E+04 -4.98483E+04 -1.52472E+04 -6.80758E+04  2.66382E+04 -4.45096E+04
  3.88595E+04  3.95004E+03  1.51880E+04  4.72460E+04 -3.38996E+04  4.59594E+04 -6.50802E+04 -2.52667E+02
 -5.15251E+04 -5.58182E+04 -6.11977E+03 -7.49187E+04  3.30761E+04 -5.31155E+04  4.61891E+04 -1.62410E+04
  4.10889E+04  1.09785E+04  3.05139E+04  2.42068E+04  1.56994E+04  2.82509E+04 -4.71686E+03  2.68374E+04
 -2.14283E+04  1.30254E+04 -1.92753E+04 -4.13303E+03  4.03096E+03 -7.59475E+03  2.11185E+04  1.08359E+04
  7.44996E+03  3.29286E+04 -3.03480E+04  3.36970E+04 -6.10521E+04  2.07557E+03 -5.49263E+04 -4.10342E+04
 -1.23638E+04 -6.05347E+04  3.79233E+04 -4.33943E+04  5.50984E+04 -2.22993E+03  3.16643E+04  3.03267E+04
 -6.40057E+03  3.26141E+04 -2.80368E+04  1.27791E+04 -2.72511E+04 -5.61702E+03 -1.45537E+04 -9.99758E+03
 -7.12788E+03 -1.09987E+04 -9.89449E+02 -1.66480E+04  6.63797E+03 -2.24925E+04  1.50810E+04 -1.41797E+04
  1.21902E+04  4.27345E+03 -6.12650E+03  1.32717E+04 -1.91599E+04 -2.25289E+03 -7.95382E+03 -3.02192E+04
  2.05272E+04 -4.03005E+04  4.42404E+04 -1.87501E+04  4.17054E+04  1.82564E+04  1.41545E+04  4.11864E+04
 -1.53835E+04  3.07797E+04 -2.32425E+04  1.16746E+03 -8.32755E+03 -2.64182E+04  2.03320E+04 -3.05945E+04
  3.77798E+04 -7.32323E+03  3.12553E+04  2.22467E+04  1.49713E+04  4.21284E+04 -7.77116E+03  4.51530E+04
 -2.82290E+04  2.96912E+04 -3.68217E+04  8.21836E+03 -3.81409E+04 -1.49356E+04 -2.11452E+04 -3.42044E+04
  6.81302E+03 -3.38979E+04  2.88036E+04 -1.24185E+04  2.64875E+04  1.06683E+04  3.32184E+03  1.77967E+04
 -1.31876E+04  7.24649E+03 -9.51493E+03 -7.85348E+03  6.02110E+03 -1.00122E+04  1.70447E+04  6.34592E+03
  1.21209E+04  2.17635E+04 -6.71969E+03  2.29860E+04 -2.15357E+04  8.88270E+03 -2.49710E+04 -6.44152E+03
 -1.66604E+04 -1.62339E+04 -5.65317E+03 -1.65311E+04  3.49635E+03 -1.46216E+04  1.22319E+04 -1.42506E+04
  2.04934E+04 -1.13649E+04  2.77643E+04  8.87033E+02  2.07658E+04  1.62908E+04  3.88816E+03  3.20674E+04
 -1.58299E+04  2.74768E+04 -2.55283E+04  9.43990E+03 -1.97109E+04 -1.04124E+04 -3.97456E+03 -1.37355E+04
  2.68808E+03 -4.34408E+03 -2.40432E+03  5.18382E+03 -1.27226E+04  5.27952E+03 -1.29006E+04 -4.80038E+03
 -8.44107E+03 -1.52430E+04  4.32088E+03 -1.92351E+04  1.24812E+04 -1.39485E+04  1.43374E+04 -1.53039E+03
  8.67785E+03  1.08632E+04 -7.06437E+02  1.55728E+04 -1.00199E+04  8.69245E+03 -1.51662E+04 -3.26121E+03
 -1.14094E+04 -1.41534E+04 -1.51255E+03 -1.88998E+04  8.60804E+03 -1.49768E+04  1.61155E+04 -7.41124E+03
  1.41767E+04  5.37053E+02  1.03131E+04  3.73981E+03  5.39082E+03  5.82024E+02  7.63381E+03 -1.66480E+03
  1.36521E+04  2.66129E+03  1.46848E+04  1.24320E+04  8.83264E+03  2.44625E+04 -3.23767E+03  2.62277E+04
 -1.55305E+04  1.98350E+04 -2.44036E+04  9.41063E+03 -2.45317E+04 -1.93475E+03 -2.14139E+04 -1.40824E+04
 -9.67182E+03 -2.00219E+04  6.64669E+03 -1.90479E+04  1.63983E+04 -1.07983E+04  1.53534E+04  3.53028E+03
  6.52393E+03  1.08944E+04 -6.68557E+03  1.01802E+04 -1.35382E+04  2.63776E+03 -1.01703E+04 -8.03114E+03
 -8.93055E+01 -1.21568E+04  6.03807E+03 -9.47762E+03  7.49316E+03 -1.10906E+03  1.05374E+03  4.83173E+03
 -5.51272E+03  1.31536E+03 -3.72601E+03 -4.58798E+03  4.38428E+02 -9.97021E+03  7.98307E+03 -1.00491E+04
  1.20293E+04 -4.62059E+03  1.16844E+04  2.72028E+03  1.03514E+04  9.47398E+03  5.04858E+03  1.39140E+04
 -1.51217E+03  1.59599E+04 -9.55614E+03  1.00992E+04 -1.10870E+04  3.00385E+03 -8.40254E+03 -2.03369E+03
 -4.39078E+03 -3.37138E+03 -6.68112E+02  1.40093E+03 -2.13706E+03  1.81844E+03 -3.57552E+03  3.64202E+03
 -8.10503E+03 -2.86958E+02 -8.77332E+03 -7.11855E+03 -3.62027E+03 -1.12799E+04  3.64790E+03 -8.54968E+03
  7.19222E+03 -3.59601E+03  5.03867E+03  2.25054E+03  4.60163E+02  2.77488E+03 -3.25639E+03  1.66367E+02
 -3.42370E+03 -5.40461E+03 -7.28913E+02 -6.98619E+03  3.97564E+03 -7.70403E+03  9.92926E+03 -4.05228E+03
  1.15702E+04  5.33614E+02  8.65650E+03  6.07212E+03  1.78666E+03  8.38886E+03 -5.21554E+03  8.33923E+03
 -6.91262E+03  2.85533E+03 -3.45485E+03 -1.14868E+03  1.14282E+03 -1.74123E+03  4.74896E+03 -1.03152E+03
  4.57462E+03  3.55472E+03  8.38953E+02  6.33251E+03 -4.42210E+03  6.43738E+03 -7.72433E+03  1.93749E+03
 -4.79478E+03 -3.45883E+03  3.08414E+02 -6.71568E+03  3.66409E+03 -3.46216E+03  3.40344E+03  6.22984E+02
  4.42854E+02  3.36845E+03 -4.17022E+03  4.80951E+03 -4.75624E+03  2.14688E+03 -4.37870E+03 -1.15900E+03
 -3.07748E+03 -6.03358E+03  9.94317E+02 -7.30883E+03  6.05238E+03 -4.56232E+03  6.67997E+03  1.06454E+03
  4.80867E+03  5.43785E+03 -6.12519E+01  7.06277E+03 -5.11670E+03  4.11341E+03 -5.57584E+03 -5.32910E+02
 -5.61083E+03 -5.05660E+03 -1.57040E+03 -5.15717E+03  2.52929E+03 -4.64218E+03  2.89835E+03 -2.72989E+03
  2.87572E+03 -1.14982E+02  1.17285E+02  1.43542E+03  6.60210E+02 -2.21614E+02  2.03977E+02 -1.98485E+03
  4.08405E+03 -6.93696E+02  5.26467E+03  7.38670E+02  5.53941E+03  3.11327E+03  5.45963E+03  7.17024E+03
 -1.06223E+03  8.67035E+03 -7.76793E+03  6.77358E+03 -9.82191E+03  1.23780E+03 -7.96590E+03 -2.81646E+03
 -4.16371E+03 -6.83772E+03 -4.57063E+02 -5.43163E+03  2.01681E+03 -2.20991E+03  2.09237E+03 -2.41616E+03
  1.37621E+03 -1.85527E+03  2.11712E+03 -2.34329E+03  3.57118E+03 -1.25639E+03  3.85949E+03  2.85722E+02
  4.48485E+03  1.28950E+03  1.11366E+03  3.55174E+03 -1.34598E+03  2.99546E+03 -4.65650E+03  2.40436E+03
 -5.13577E+03 -8.42861E+02 -1.91017E+03 -3.28664E+03  2.45087E+02 -5.04326E+03  3.31430E+03 -5.44687E+03
  5.16246E+03 -3.33991E+03  7.07567E+03  1.17458E+02  4.92792E+03  4.26521E+03  1.26645E+03  6.17593E+03
 -1.96831E+03  6.15532E+03 -3.10663E+03  1.76033E+03 -2.00757E+03 -1.18502E+03 -4.95514E+02 -7.05175E+02
 -3.36116E+02  3.29378E+02 -1.12028E+03  2.06422E+03 -2.70050E+03  1.16182E+03 -4.49817E+03 -4.92254E+02
 -1.51190E+03 -4.21442E+03  8.22264E+02 -4.83869E+03  2.82109E+03 -4.34204E+03  3.95238E+03 -1.18732E+03
  4.20659E+03  2.52100E+03  1.49851E+03  3.17921E+03 -7.68263E+02  4.67590E+03 -2.70719E+03  2.86936E+03
 -3.94524E+03  5.61771E+02 -3.74360E+03 -2.40968E+03 -4.80389E+02 -3.66884E+03  2.01245E+03 -2.51087E+03
  2.98427E+03 -1.41609E+03  1.42095E+03  6.84985E+02  4.52927E+02  1.71627E+03  5.49018E+02  6.88910E+02
  1.71750E+03  1.00727E+03  1.10060E+03  8.25672E+02  8.97616E+02  1.99864E+03  1.14404E+03  1.98869E+03
 -1.30962E+03  3.04143E+03 -2.67399E+03  3.91108E+03 -3.13270E+03  1.18383E+03 -4.40657E+03 -2.04547E+02
 -1.71697E+03 -3.69328E+03  7.51448E+02 -4.65220E+03  2.02500E+03 -2.58853E+03  3.26908E+03 -7.53541E+02
  2.60658E+03  1.84005E+03  3.61907E+02  2.40026E+03 -6.88290E+02  9.01939E+02 -1.24269E+03 -1.01029E+02
 -4.64340E+02 -1.56005E+03  1.32579E+03 -1.62744E+03  1.23808E+03 -1.04110E+03  1.25106E+03  3.96632E+02
  6.13111E+02  4.05169E+02  7.79229E+02 -5.41042E+02 -4.81818E+02  1.08320E+03  1.74806E+03 -1.04043E+02
 -1.31203E+02 -2.44137E+02  1.77173E+03  1.06952E+03  5.28920E+02  2.46288E+03 -2.66360E+02  3.11764E+03
 -1.54044E+03  1.38591E+03 -2.36262E+03  4.86913E+02 -2.35797E+03 -7.77267E+02 -2.26123E+02 -1.11777E+03
  3.30039E+02 -1.32009E+03  1.08470E+03 -8.28382E+02  6.73956E+02  1.22977E+03 -6.42823E+02  1.20866E+03
 -1.57143E+03  8.04583E+02 -1.12350E+03 -1.25191E+03 -5.84497E+02 -2.37713E+03 -1.17477E+02 -1.58103E+03
  8.13299E+02 -4.76925E+02  9.83677E+02  3.61736E+02  1.39503E+03 -1.50775E+02  3.44385E+02  1.32163E+03
 -2.37459E+02 -6.36188E+01 -1.11824E+03 -3.86503E+02  5.92032E+02 -1.11246E+03  1.84837E+03 -9.96701E+02
  1.41696E+03  3.01726E+02  2.83484E+03  7.38729E+02  1.07965E+03  1.80972E+03 -1.29878E+01  1.73253E+03
 -1.54492E+03  3.87379E+02 -1.44299E+03 -1.92595E+01 -1.08009E+03 -1.60128E+03  2.19643E+02 -5.09891E+02
  1.81094E+03 -5.97220E+02  9.23881E+02  6.69302E+02  9.02712E+01  1.26792E+03  3.02522E+02  1.36566E+03
 -3.62929E+02  1.16840E+03 -8.35586E+02  4.15008E+01  3.02399E+02  3.75124E+02 -7.86947E+02  8.59978E+02
 -5.43794E+02  1.19501E+03 -1.87437E+03  6.99458E+02 -2.02510E+03  3.80521E+02 -2.52172E+03 -8.85804E+02
 -1.13731E+03 -2.59939E+03  7.12489E+02 -3.11855E+03  1.07773E+03 -2.51979E+03  2.98768E+03 -1.02051E+03
  2.58376E+03 -7.61222E+01  1.27461E+03  1.93070E+03 -7.03939E+02  1.38051E+03 -8.70634E+02  1.55766E+03
 -1.14389E+03  8.73278E+02 -4.86408E+02 -2.73445E+02 -2.78376E+02  2.24569E+02 -8.72820E+02 -6.25480E+01
 -1.23296E+03  1.19473E+02 -7.36803E+02  4.85080E+02  1.25974E+02 -5.24098E+02 -3.86443E+02 -8.99900E+02
  1.38059E+03 -5.57750E+02  5.91220E+02  1.16503E+02  1.25651E+03  1.11848E+03 -2.48899E+02  1.51245E+03
 -1.15235E+03  2.35823E+03 -1.72709E+03  1.45110E+03 -1.87105E+03  5.44239E+01 -1.22029E+03 -1.53272E+03
 -1.07422E+03 -1.49709E+03  2.56095E+02 -1.24922E+03  5.67421E+02 -4.29423E+02  7.05023E+02  3.15068E+02
  7.41958E+02  2.36617E+02 -1.42988E+02  3.45184E+02 -4.31694E+02 -4.07449E+01  5.66647E+01 -2.70993E+02
  6.43640E+02  2.15890E+02  3.79582E+02  5.89698E+02  5.86179E+01  4.68701E+02  3.75450E+02  3.56438E+02
 -7.36093E+02  8.61472E+02 -4.58408E+02  4.04971E+02 -6.86133E+02 -5.79257E+02  7.33756E+01 -1.13431E+03
  5.77295E+02 -6.64414E+02  6.55679E+02 -2.32904E+02  1.17722E+03 -5.67067E+02  7.04729E+02  8.95282E+02
  3.96295E+02  6.51323E+02 -4.40963E+01  8.80337E+02 -4.23510E+02  9.48057E+02 -3.58217E+02  2.39265E+01
  1.67832E+02  5.40975E+01 -5.91644E+02 -1.28846E+01 -6.27724E+02  5.45184E+01 -8.33891E+02 -1.53708E+02
 -9.42343E+02  3.78039E+02 -1.29419E+02 -1.31307E+03  7.82122E+02 -1.80913E+03  8.46096E+02 -6.25760E+01
  7.58397E+02 -1.27250E+02 -1.97769E+01  4.55843E+02 -2.22472E+02  1.24592E+03 -3.50712E+02  7.26635E+02
