 $NMID ID='MM_0lb_SNR800_11hz_g60_56.RAW', FMTDAT='(8E13.5)'
 TRAMP=1., VOLUME=1. $END
  3.09720E+05  2.46008E+02  3.37455E+05  2.50374E+05  8.48142E+04  3.38467E+05 -1.32706E+05  2.51881E+05
 -1.90763E+05  8.38543E+04 -1.12433E+05 -3.23804E+04  5.22720E+02 -5.03538E+04  5.36123E+04 -5.99011E+02
  3.54898E+04  5.27343E+04 -1.66058E+04  7.59057E+04 -6.10268E+04  6.45662E+04 -8.54587E+04  3.26719E+04
 -8.24519E+04 -1.13262E+04 -5.83369E+04 -5.26524E+04 -1.46357E+04 -7.05181E+04  2.78424E+04 -4.69113E+04
  4.09643E+04  3.88949E+03  1.69070E+04  4.87601E+04 -3.49259E+04  4.79276E+04 -6.80526E+04  9.36529E+01
 -5.49997E+04 -5.76980E+04 -7.38678E+03 -7.84755E+04  3.48700E+04 -5.66113E+04  4.95900E+04 -1.81358E+04
  4.51333E+04  1.14803E+04  3.26848E+04  2.67184E+04  1.58660E+04  3.02058E+04 -5.84837E+03  2.75354E+04
 -2.21573E+04  1.17685E+04 -1.81148E+04 -5.81434E+03  7.20382E+03 -7.25282E+03  2.32415E+04  1.36717E+04
  6.96634E+03  3.70232E+04 -3.35729E+04  3.71011E+04 -6.57524E+04  2.28667E+03 -5.85493E+04 -4.45285E+04
 -1.26432E+04 -6.53238E+04  4.12887E+04 -4.71980E+04  6.06142E+04 -3.04258E+03  3.66914E+04  3.45066E+04
 -5.48851E+03  3.89665E+04 -3.17813E+04  1.84897E+04 -3.30184E+04 -3.55110E+03 -1.92121E+04 -1.19242E+04
 -9.86150E+03 -1.46422E+04 -2.42726E+02 -1.93690E+04  8.69605E+03 -2.37829E+04  1.57264E+04 -1.26263E+04
  1.08121E+04  5.88984E+03 -1.02418E+04  1.30578E+04 -2.31209E+04 -6.40814E+03 -8.89837E+03 -3.70379E+04
  2.45665E+04 -4.67337E+04  5.17019E+04 -2.05983E+04  4.79520E+04  2.08332E+04  1.71252E+04  4.63684E+04
 -1.65507E+04  3.57225E+04 -2.75084E+04  2.60241E+03 -1.15149E+04 -2.91729E+04  2.18408E+04 -3.63328E+04
  4.41248E+04 -1.06991E+04  3.98133E+04  2.48646E+04  2.08908E+04  5.05472E+04 -8.34848E+03  5.53316E+04
 -3.46778E+04  3.76266E+04 -4.66079E+04  1.06904E+04 -4.70423E+04 -1.84865E+04 -2.55488E+04 -4.15136E+04
  7.78834E+03 -4.17098E+04  3.36859E+04 -1.66842E+04  3.15836E+04  1.11131E+04  4.98785E+03  2.06443E+04
 -1.40865E+04  9.10727E+03 -1.07767E+04 -7.66149E+03  5.71006E+03 -1.12639E+04  1.87892E+04  5.46802E+03
  1.45957E+04  2.30058E+04 -5.08278E+03  2.71671E+04 -2.32496E+04  1.41084E+04 -3.11111E+04 -3.26348E+03
 -2.46181E+04 -1.80872E+04 -1.08429E+04 -2.43740E+04  4.62836E+03 -2.47245E+04  1.89168E+04 -2.23969E+04
  3.08003E+04 -1.41160E+04  3.71564E+04  4.59952E+03  2.67136E+04  2.37648E+04  4.20916E+03  4.01940E+04
 -1.99025E+04  3.34650E+04 -3.01244E+04  1.13453E+04 -2.20354E+04 -1.01699E+04 -4.70153E+03 -1.31331E+04
  6.13649E+02 -1.41069E+03 -7.67378E+03  8.12168E+03 -1.98824E+04  5.17017E+03 -1.94601E+04 -9.35146E+03
 -1.15286E+04 -2.24936E+04  6.18000E+03 -2.71805E+04  1.78873E+04 -1.95498E+04  2.19859E+04 -2.19991E+03
  1.38975E+04  1.56078E+04 -1.33046E+03  2.24231E+04 -1.61925E+04  1.31365E+04 -2.26893E+04 -4.57814E+03
 -1.65236E+04 -2.05449E+04 -2.37641E+03 -2.71980E+04  1.23048E+04 -2.24261E+04  2.22200E+04 -1.13073E+04
  2.12636E+04 -1.65945E+02  1.49064E+04  4.87699E+03  8.18890E+03  1.23944E+03  1.17376E+04 -2.14359E+03
  2.12848E+04  3.07150E+03  2.42556E+04  1.75235E+04  1.66901E+04  3.63780E+04 -2.61168E+03  4.27638E+04
 -2.41713E+04  3.52834E+04 -3.98193E+04  1.81101E+04 -4.25320E+04 -2.78064E+03 -3.45704E+04 -2.45029E+04
 -1.39084E+04 -3.50956E+04  1.24153E+04 -3.13099E+04  2.65340E+04 -1.47668E+04  2.33491E+04  7.40118E+03
  8.05623E+03  1.80080E+04 -1.11809E+04  1.50217E+04 -1.96457E+04  2.58786E+03 -1.48572E+04 -1.24519E+04
 -2.62152E+02 -1.85408E+04  1.02292E+04 -1.34090E+04  1.28349E+04 -1.30486E+03  3.05387E+03  8.33629E+03
 -8.05945E+03  3.89721E+03 -7.98878E+03 -6.47190E+03 -1.36235E+03 -1.70015E+04  1.14124E+04 -1.86138E+04
  2.18186E+04 -1.01772E+04  2.42728E+04  3.30454E+03  2.11613E+04  1.71863E+04  9.60012E+03  2.70394E+04
 -4.94962E+03  2.92728E+04 -1.93273E+04  1.86863E+04 -2.14030E+04  3.86574E+03 -1.43136E+04 -5.24566E+03
 -6.43202E+03 -6.83095E+03 -6.23782E+02  6.40276E+02 -2.93667E+03  3.19984E+03 -6.45339E+03  5.21300E+03
 -1.35640E+04 -9.53816E+02 -1.37363E+04 -1.11805E+04 -5.31977E+03 -1.83350E+04  6.11560E+03 -1.48014E+04
  1.18928E+04 -6.19627E+03  8.87016E+03  4.06431E+03 -9.88470E+01  5.36729E+03 -7.27104E+03 -4.49373E+02
 -7.14290E+03 -9.30203E+03 -6.19287E+02 -1.44657E+04  8.37342E+03 -1.52891E+04  1.88658E+04 -8.10788E+03
  2.18969E+04  1.87900E+03  1.60157E+04  1.33367E+04  3.21755E+03  1.75254E+04 -9.40767E+03  1.48050E+04
 -1.19113E+04  4.48190E+03 -6.09798E+03 -3.06527E+03  2.01730E+03 -3.93566E+03  7.82125E+03 -9.65292E+02
  7.02090E+03  6.58497E+03  1.11893E+03  1.16733E+04 -8.45438E+03  1.12268E+04 -1.44888E+04  2.88184E+03
 -9.68299E+03 -7.60679E+03  1.65543E+02 -1.28058E+04  8.36974E+03 -6.19765E+03  8.36726E+03  2.84481E+03
  2.03686E+03  9.27949E+03 -8.09752E+03  1.03329E+04 -1.23397E+04  4.65081E+03 -1.25334E+04 -4.56636E+03
 -7.28285E+03 -1.44155E+04  3.69665E+03 -1.69239E+04  1.42134E+04 -9.72255E+03  1.51483E+04  2.50147E+03
  9.27620E+03  1.18211E+04 -1.41361E+03  1.41909E+04 -1.05480E+04  8.03020E+03 -1.14676E+04 -1.10384E+03
 -9.85381E+03 -9.63665E+03 -1.81838E+03 -1.09618E+04  5.86322E+03 -9.04884E+03  7.07901E+03 -3.61977E+03
  4.66090E+03  1.91711E+03 -7.12628E+02  1.90350E+03 -3.53560E+02 -2.55452E+03  1.94334E+03 -6.51999E+03
  9.93172E+03 -4.38604E+03  1.43244E+04  1.56798E+03  1.39894E+04  9.81088E+03  9.46928E+03  1.87347E+04
 -4.70059E+03  2.11250E+04 -1.77249E+04  1.56706E+04 -2.34215E+04  2.96297E+03 -1.84253E+04 -7.80385E+03
 -9.32318E+03 -1.54399E+04 -3.24155E+02 -1.33984E+04  4.70486E+03 -7.13411E+03  4.75308E+03 -4.89417E+03
  3.45598E+03 -2.70691E+03  4.03024E+03 -3.34444E+03  5.63051E+03 -3.17083E+03  7.03656E+03 -1.01790E+03
  9.38419E+03  2.03806E+03  5.24807E+03  8.23166E+03 -1.93101E+03  9.73967E+03 -9.92826E+03  7.67805E+03
 -1.27629E+04 -1.29200E+03 -7.95437E+03 -8.89197E+03 -1.39292E+03 -1.35562E+04  7.92632E+03 -1.36708E+04
  1.43951E+04 -7.87091E+03  1.69281E+04  2.42209E+03  1.17433E+04  1.18835E+04  1.92119E+03  1.59310E+04
 -6.77372E+03  1.26567E+04 -9.05881E+03  4.50044E+03 -6.28420E+03 -1.66624E+03 -2.52160E+03 -2.20138E+03
 -1.24536E+03 -3.63601E+02 -2.15388E+03  3.15338E+03 -5.45569E+03  1.86143E+03 -8.85798E+03 -1.37662E+03
 -6.19870E+03 -8.83121E+03  7.34673E+01 -1.27154E+04  7.77151E+03 -1.19321E+04  1.22266E+04 -3.33621E+03
  1.26922E+04  6.39072E+03  5.96784E+03  1.11852E+04 -2.38776E+03  1.26955E+04 -9.20451E+03  7.91770E+03
 -1.18801E+04  5.61257E+02 -9.06604E+03 -8.22962E+03 -8.03623E+02 -1.07249E+04  5.49888E+03 -7.94826E+03
  7.54204E+03 -2.34341E+03  5.43242E+03  1.88032E+03  1.83899E+03  3.82309E+03  1.23701E+03  1.77774E+03
  2.99456E+03  8.58408E+02  3.10506E+03  1.60593E+03  3.40557E+03  4.79630E+03  3.52478E+03  6.55810E+03
 -2.45778E+03  9.81963E+03 -8.52744E+03  9.79565E+03 -1.25741E+04  2.49697E+03 -1.28558E+04 -5.03831E+03
 -6.24553E+03 -1.22281E+04  1.42714E+03 -1.34907E+04  7.51248E+03 -8.94931E+03  1.00947E+04 -2.43270E+03
  7.99298E+03  5.24767E+03  1.89643E+03  7.61087E+03 -3.28874E+03  4.65891E+03 -4.90296E+03 -1.05414E+03
 -2.46606E+03 -5.55186E+03  3.09853E+03 -5.32928E+03  5.13076E+03 -2.43627E+03  5.20555E+03  1.42741E+03
  2.92546E+03  2.29232E+03  1.49927E+03  1.86245E+03 -6.98725E+02  1.55346E+03  1.44675E+03 -4.03969E+02
  1.99262E+03 -9.32828E+02  4.82540E+03  2.12399E+03  2.91735E+03  6.60650E+03 -6.96768E+02  9.05870E+03
 -5.80813E+03  5.90287E+03 -8.01282E+03  1.57619E+03 -6.66821E+03 -2.68432E+03 -2.32986E+03 -4.41826E+03
  7.47845E+02 -4.89166E+03  3.06177E+03 -2.17029E+03  2.56477E+03  2.52689E+03 -1.58874E+03  4.07325E+03
 -5.11987E+03  2.04699E+03 -5.53290E+03 -3.41894E+03 -2.87365E+03 -6.63269E+03  9.05762E+02 -7.02932E+03
  3.96625E+03 -3.73381E+03  4.68960E+03 -1.57563E+02  4.32889E+03  1.59598E+03  6.94275E+02  4.09477E+03
 -2.43119E+03  1.13754E+03 -2.53519E+03 -2.34869E+03  1.37752E+03 -5.19588E+03  6.32109E+03 -4.33725E+03
  7.34536E+03  2.03437E+02  7.96570E+03  5.20069E+03  2.15569E+03  7.60063E+03 -2.92903E+03  7.56774E+03
 -6.39465E+03  3.20333E+03 -6.80573E+03 -7.88817E+02 -3.52272E+03 -5.42595E+03  9.13005E+02 -4.90219E+03
  4.78489E+03 -1.96613E+03  3.73572E+03  2.42613E+03  1.30162E+03  4.54036E+03 -7.83959E+02  4.01637E+03
 -1.54625E+03  2.73679E+03 -1.96922E+03  9.74135E+02 -6.85950E+02  1.12945E+03 -1.82567E+03  1.35992E+03
 -2.16739E+03  3.00344E+03 -5.48195E+03  2.40299E+03 -7.70472E+03  2.24216E+02 -8.38710E+03 -5.25013E+03
 -4.80293E+03 -1.00308E+04  1.92819E+03 -1.16834E+04  7.25927E+03 -9.37504E+03  1.13451E+04 -3.89621E+03
  1.04223E+04  1.77598E+03  6.37573E+03  7.40163E+03  4.70603E+02  7.77177E+03 -3.08109E+03  6.03683E+03
 -4.77049E+03  2.07140E+03 -2.49745E+03 -9.78131E+02 -8.36289E+02 -7.78001E+02 -7.81832E+02  1.54673E+02
 -1.74627E+03  4.84426E+02 -2.13440E+03 -9.46264E+01 -7.53159E+01 -1.75880E+03  2.28293E+02 -2.93038E+03
  3.64849E+03 -2.61548E+03  4.30930E+03 -6.77719E+01  5.36086E+03  4.66339E+03  1.39166E+03  7.72740E+03
 -3.99196E+03  9.08499E+03 -8.22200E+03  5.20931E+03 -9.37307E+03 -1.08972E+03 -7.08775E+03 -5.88432E+03
 -2.95298E+03 -7.69886E+03  1.48191E+03 -6.82985E+03  4.86407E+03 -3.78214E+03  4.78210E+03  5.12601E+02
  3.19263E+03  2.44427E+03 -4.30016E+02  2.09078E+03 -1.50736E+03  5.21826E+01  8.51118E+01 -1.97249E+03
  2.40568E+03 -8.47455E+02  3.01544E+03  1.16259E+03  2.15264E+03  3.28382E+03  3.32347E+02  4.00749E+03
 -3.10985E+03  3.48148E+03 -5.01616E+03  2.88307E+02 -4.63154E+03 -3.77581E+03 -2.52224E+02 -6.45520E+03
  3.18786E+03 -5.11875E+03  5.53249E+03 -1.72602E+03  5.51955E+03  8.60163E+02  3.71937E+03  4.84086E+03
  8.97978E+02  4.78687E+03 -2.05730E+03  3.86399E+03 -3.23382E+03  2.46611E+03 -2.72442E+03  3.38265E+02
 -1.66350E+03 -1.06680E+02 -1.60634E+03  6.04078E+02 -2.35561E+03  7.76741E+02 -3.83316E+03 -1.00574E+03
 -3.73333E+03 -2.37766E+03 -1.14847E+03 -4.63828E+03  2.32913E+03 -5.43555E+03  4.40121E+03 -2.65659E+03
  4.63485E+03  2.59841E+02  2.15799E+03  3.64620E+03 -3.59506E+02  4.90269E+03 -3.50520E+03  3.42424E+03
