 $NMID ID='MM_0lb_SNR800_7hz_g55_80.RAW', FMTDAT='(8E13.5)'
 TRAMP=1., VOLUME=1. $END
  3.09982E+05  6.05409E+02  3.38286E+05  2.50748E+05  8.50270E+04  3.39030E+05 -1.33117E+05  2.52214E+05
 -1.90581E+05  8.40285E+04 -1.12780E+05 -3.24765E+04  1.41643E+02 -5.07495E+04  5.31310E+04 -3.23803E+02
  3.59508E+04  5.25429E+04 -1.67442E+04  7.57377E+04 -6.15945E+04  6.48247E+04 -8.60660E+04  3.31001E+04
 -8.33899E+04 -1.20619E+04 -5.87286E+04 -5.27455E+04 -1.49572E+04 -7.20610E+04  2.90538E+04 -4.74401E+04
  4.16509E+04  3.74237E+03  1.72933E+04  4.89318E+04 -3.48406E+04  4.87264E+04 -6.88838E+04  1.92334E+02
 -5.50983E+04 -5.91594E+04 -7.26483E+03 -8.00364E+04  3.48198E+04 -5.79826E+04  5.11607E+04 -1.86538E+04
  4.58462E+04  1.15619E+04  3.38946E+04  2.69238E+04  1.57975E+04  3.07174E+04 -6.36017E+03  2.73418E+04
 -2.26526E+04  1.23457E+04 -1.77872E+04 -6.18588E+03  7.43328E+03 -7.30674E+03  2.36362E+04  1.43965E+04
  6.63375E+03  3.84824E+04 -3.45233E+04  3.80087E+04 -6.73664E+04  2.40828E+03 -5.98944E+04 -4.60404E+04
 -1.26930E+04 -6.70032E+04  4.24490E+04 -4.85381E+04  6.25606E+04 -2.72693E+03  3.80240E+04  3.50894E+04
 -5.15997E+03  4.04951E+04 -3.27653E+04  1.99798E+04 -3.46544E+04 -3.03785E+03 -2.11268E+04 -1.22677E+04
 -1.00010E+04 -1.61538E+04 -2.29888E+02 -2.07776E+04  8.84479E+03 -2.36160E+04  1.61881E+04 -1.27644E+04
  9.97293E+03  6.74670E+03 -1.14641E+04  1.29015E+04 -2.40745E+04 -7.91416E+03 -8.46104E+03 -3.92963E+04
  2.62858E+04 -4.85170E+04  5.44150E+04 -2.19010E+04  5.04683E+04  2.12733E+04  1.82768E+04  4.85934E+04
 -1.70185E+04  3.74905E+04 -2.91062E+04  3.14089E+03 -1.26924E+04 -2.95957E+04  2.15539E+04 -3.84021E+04
  4.63345E+04 -1.16582E+04  4.26730E+04  2.56689E+04  2.31469E+04  5.32832E+04 -8.68280E+03  5.90012E+04
 -3.71464E+04  4.05078E+04 -5.02701E+04  1.19911E+04 -5.00733E+04 -1.98120E+04 -2.73599E+04 -4.41384E+04
  8.56003E+03 -4.44509E+04  3.57215E+04 -1.84092E+04  3.28443E+04  1.11226E+04  5.93255E+03  2.17065E+04
 -1.40807E+04  1.05664E+04 -1.13585E+04 -7.24783E+03  5.72364E+03 -1.20609E+04  1.91402E+04  5.28229E+03
  1.52555E+04  2.26542E+04 -4.90001E+03  2.81724E+04 -2.39571E+04  1.57188E+04 -3.33262E+04 -1.95075E+03
 -2.79420E+04 -1.93107E+04 -1.34060E+04 -2.72189E+04  4.77591E+03 -2.90460E+04  2.19010E+04 -2.49513E+04
  3.58264E+04 -1.53177E+04  4.05583E+04  6.02463E+03  2.88601E+04  2.69034E+04  4.76756E+03  4.35936E+04
 -2.11187E+04  3.60294E+04 -3.18844E+04  1.23195E+04 -2.38269E+04 -1.06264E+04 -5.70179E+03 -1.26936E+04
  3.71547E+02  2.25892E+02 -9.26131E+03  8.86761E+03 -2.23083E+04  4.89410E+03 -2.23562E+04 -1.12078E+04
 -1.29458E+04 -2.59425E+04  6.43302E+03 -3.03203E+04  2.04186E+04 -2.13617E+04  2.53894E+04 -2.38323E+03
  1.56457E+04  1.77485E+04 -1.55570E+03  2.55530E+04 -1.86344E+04  1.49128E+04 -2.58506E+04 -5.24637E+03
 -1.89543E+04 -2.28216E+04 -2.17655E+03 -3.05402E+04  1.36465E+04 -2.57462E+04  2.52408E+04 -1.36316E+04
  2.42299E+04 -6.33388E+02  1.77087E+04  5.82887E+03  9.83517E+03  1.96834E+03  1.37415E+04 -2.23903E+03
  2.48064E+04  2.82050E+03  2.85229E+04  2.02536E+04  1.96108E+04  4.16021E+04 -2.45950E+03  4.99221E+04
 -2.81912E+04  4.20775E+04 -4.71436E+04  2.23854E+04 -5.07350E+04 -3.80751E+03 -4.08223E+04 -2.95423E+04
 -1.62568E+04 -4.26377E+04  1.49519E+04 -3.71303E+04  3.12408E+04 -1.68200E+04  2.68902E+04  9.39060E+03
  8.44237E+03  2.08343E+04 -1.29706E+04  1.70666E+04 -2.21549E+04  2.76914E+03 -1.62369E+04 -1.46624E+04
 -6.06558E+02 -2.16330E+04  1.16600E+04 -1.56882E+04  1.52739E+04 -1.27600E+03  3.94774E+03  1.01552E+04
 -9.54967E+03  4.92794E+03 -1.07376E+04 -7.83754E+03 -2.79765E+03 -2.09969E+04  1.34320E+04 -2.27001E+04
  2.65898E+04 -1.31833E+04  3.07730E+04  3.71035E+03  2.67163E+04  2.09168E+04  1.21906E+04  3.42681E+04
 -6.99797E+03  3.54467E+04 -2.35973E+04  2.18342E+04 -2.64552E+04  4.48560E+03 -1.77226E+04 -7.44666E+03
 -7.39746E+03 -8.51617E+03 -2.94474E+02 -8.36305E+01 -2.59877E+03  4.42349E+03 -8.45872E+03  6.07972E+03
 -1.64252E+04 -9.92500E+02 -1.69998E+04 -1.35884E+04 -6.71804E+03 -2.24038E+04  7.36773E+03 -1.85681E+04
  1.50094E+04 -7.06257E+03  1.06472E+04  5.22448E+03 -7.23205E+02  7.22394E+03 -9.40805E+03 -3.89482E+01
 -9.25413E+03 -1.17023E+04 -1.08131E+03 -1.81879E+04  1.10854E+04 -1.94715E+04  2.36562E+04 -1.04908E+04
  2.73917E+04  3.10724E+03  2.01736E+04  1.69654E+04  3.94718E+03  2.27343E+04 -1.08362E+04  1.80399E+04
 -1.49994E+04  5.20515E+03 -7.51151E+03 -4.40476E+03  2.50141E+03 -5.00126E+03  9.56497E+03 -7.94425E+02
  8.68449E+03  8.34314E+03  1.24617E+03  1.50552E+04 -1.08706E+04  1.39313E+04 -1.83818E+04  3.59993E+03
 -1.29051E+04 -1.01917E+04  3.18501E+02 -1.58014E+04  1.03716E+04 -7.88809E+03  1.11522E+04  4.48939E+03
  2.90649E+03  1.24563E+04 -9.37613E+03  1.42705E+04 -1.65390E+04  6.21191E+03 -1.74714E+04 -6.63017E+03
 -9.80821E+03 -1.93899E+04  4.92047E+03 -2.25636E+04  1.88878E+04 -1.31569E+04  2.07792E+04  3.76975E+03
  1.16470E+04  1.60138E+04 -2.42187E+03  1.90376E+04 -1.45269E+04  1.09687E+04 -1.56694E+04 -1.33819E+03
 -1.26071E+04 -1.24898E+04 -1.78864E+03 -1.46192E+04  7.62265E+03 -1.13676E+04  9.74804E+03 -3.97558E+03
  5.72362E+03  2.81220E+03 -1.22035E+03  2.22254E+03 -1.52647E+03 -5.33479E+03  3.35660E+03 -1.01373E+04
  1.46714E+04 -6.36009E+03  2.06839E+04  1.91390E+03  1.94173E+04  1.41267E+04  1.21265E+04  2.62529E+04
 -6.57928E+03  3.00191E+04 -2.47486E+04  2.21512E+04 -3.21684E+04  4.22797E+03 -2.59463E+04 -1.16353E+04
 -1.25934E+04 -2.14026E+04 -4.13701E+02 -1.82850E+04  6.99570E+03 -1.07780E+04  6.63631E+03 -6.84553E+03
  4.74871E+03 -4.00720E+03  4.90370E+03 -4.37097E+03  6.40103E+03 -4.45801E+03  9.44141E+03 -1.89715E+03
  1.34541E+04  3.18688E+03  7.73378E+03  1.16423E+04 -2.63281E+03  1.48621E+04 -1.43365E+04  1.13184E+04
 -1.84896E+04 -1.61850E+03 -1.29956E+04 -1.32739E+04 -2.27769E+03 -2.02945E+04  1.08456E+04 -2.00666E+04
  2.07456E+04 -1.15752E+04  2.42577E+04  3.18073E+03  1.72684E+04  1.73362E+04  2.36586E+03  2.23481E+04
 -9.59884E+03  1.84349E+04 -1.40183E+04  6.29193E+03 -9.57530E+03 -1.88738E+03 -4.23686E+03 -3.09594E+03
 -1.86703E+03 -3.43453E+02 -3.14315E+03  3.66562E+03 -7.73243E+03  2.99157E+03 -1.30612E+04 -2.32993E+03
 -9.82619E+03 -1.26142E+04 -5.46073E+02 -1.92990E+04  1.16486E+04 -1.73832E+04  1.95953E+04 -6.17222E+03
  1.90900E+04  9.02790E+03  9.47655E+03  1.75656E+04 -3.38885E+03  1.93744E+04 -1.38953E+04  1.18189E+04
 -1.79658E+04  9.02272E+02 -1.43030E+04 -1.18487E+04 -1.25844E+03 -1.61367E+04  8.32948E+03 -1.22687E+04
  1.18013E+04 -3.79074E+03  8.31515E+03  3.25443E+03  3.04029E+03  5.48542E+03  1.94368E+03  2.54920E+03
  3.32641E+03  1.76143E+03  4.69553E+03  2.76760E+03  5.59903E+03  6.64152E+03  5.04019E+03  1.04036E+04
 -3.32898E+03  1.56699E+04 -1.39060E+04  1.47654E+04 -2.07469E+04  3.89706E+03 -2.10488E+04 -9.15513E+03
 -1.02746E+04 -1.98984E+04  2.70870E+03 -2.17124E+04  1.20273E+04 -1.42506E+04  1.59339E+04 -3.71592E+03
  1.28465E+04  6.69538E+03  2.51631E+03  1.15887E+04 -5.92614E+03  7.37246E+03 -8.23477E+03 -1.22357E+03
 -3.85590E+03 -8.68562E+03  4.88621E+03 -9.23994E+03  8.42055E+03 -4.21560E+03  8.32418E+03  1.63592E+03
  4.97375E+03  4.10119E+03  1.45753E+03  3.63635E+03 -1.33372E+03  2.93562E+03  1.67717E+03 -7.96122E+02
  3.70047E+03 -1.13327E+03  7.42531E+03  2.91794E+03  5.34271E+03  1.06969E+04 -1.41293E+03  1.39751E+04
 -1.00588E+04  1.00699E+04 -1.35824E+04  2.52515E+03 -1.22584E+04 -4.56204E+03 -4.96032E+03 -8.09262E+03
  6.75473E+02 -8.09160E+03  5.73836E+03 -4.27097E+03  4.74591E+03  4.03634E+03 -1.68521E+03  6.76605E+03
 -9.00443E+03  4.38753E+03 -1.00585E+04 -4.91869E+03 -5.72848E+03 -1.10480E+04  1.33249E+03 -1.16754E+04
  6.96173E+03 -7.37861E+03  8.78760E+03 -8.76934E+02  7.23737E+03  3.28510E+03  1.40900E+03  6.25951E+03
 -4.20238E+03  2.25085E+03 -5.00674E+03 -4.61874E+03  2.14620E+03 -9.20890E+03  1.00336E+04 -7.26985E+03
  1.39905E+04  8.22573E+02  1.27117E+04  9.67156E+03  3.94178E+03  1.47602E+04 -5.14220E+03  1.34478E+04
 -1.13956E+04  6.34217E+03 -1.21003E+04 -1.94427E+03 -6.45039E+03 -9.37209E+03  2.64898E+03 -8.68336E+03
  8.43902E+03 -4.49470E+03  7.94981E+03  3.61315E+03  3.23311E+03  7.82878E+03 -1.12537E+03  6.47159E+03
 -4.17284E+03  4.33971E+03 -3.70792E+03  1.39871E+03 -1.87690E+03  1.04231E+03 -2.38226E+03  2.34603E+03
 -3.47334E+03  5.27369E+03 -9.01435E+03  5.25154E+03 -1.48366E+04 -1.21190E+02 -1.52892E+04 -9.67056E+03
 -8.45599E+03 -1.95646E+04  3.65874E+03 -2.20435E+04  1.41424E+04 -1.68321E+04  2.08834E+04 -6.46108E+03
  1.97212E+04  4.88801E+03  1.24686E+04  1.32135E+04  1.27701E+03  1.55011E+04 -6.22098E+03  1.11960E+04
 -8.61423E+03  4.55524E+03 -5.32604E+03 -1.75100E+03 -2.07185E+03 -1.53075E+03 -9.30496E+02 -4.32487E+01
 -2.34815E+03  2.97157E+02 -3.07909E+03 -7.49566E+02 -1.25577E+03 -3.85981E+03  7.31934E+02 -5.13793E+03
  6.48674E+03 -5.47187E+03  9.41474E+03  1.90722E+02  1.05279E+04  7.97009E+03  3.06127E+03  1.55147E+04
 -6.89010E+03  1.71725E+04 -1.66490E+04  9.91498E+03 -1.86876E+04 -1.03760E+03 -1.42539E+04 -1.09960E+04
 -5.58327E+03 -1.58987E+04  4.27445E+03 -1.41728E+04  9.88295E+03 -8.26617E+03  1.00124E+04  6.69924E+02
  5.82582E+03  5.20587E+03 -7.08782E+02  4.96136E+03 -2.94822E+03 -6.70824E+02 -2.28695E+02 -3.62935E+03
  4.47315E+03 -2.63598E+03  6.52983E+03  1.75032E+03  4.64402E+03  6.28230E+03 -2.96449E+02  8.66710E+03
 -7.12278E+03  7.34351E+03 -1.06750E+04  7.16504E+02 -9.58282E+03 -7.66666E+03 -2.15407E+03 -1.30698E+04
  7.37804E+03 -1.17680E+04  1.25487E+04 -3.62820E+03  1.22219E+04  3.40556E+03  7.09384E+03  9.67553E+03
  1.25207E+03  1.07355E+04 -4.75422E+03  8.74275E+03 -6.55360E+03  4.63383E+03 -5.82122E+03  4.85156E+02
 -3.27152E+03 -5.06963E+01 -2.96894E+03  1.70381E+03 -5.31681E+03  2.08668E+03 -8.28388E+03 -1.55331E+03
 -7.61810E+03 -5.94485E+03 -2.16895E+03 -1.06909E+04  5.11226E+03 -1.07764E+04  9.79604E+03 -5.87406E+03
  1.12751E+04  1.42326E+03  6.71464E+03  8.26228E+03 -9.22306E+02  1.07218E+04 -9.00467E+03  7.10916E+03
