 $NMID ID='MM_0lb_SNR800_18hz_g50_48.RAW', FMTDAT='(8E13.5)'
 TRAMP=1., VOLUME=1. $END
  3.09900E+05  5.45857E+02  3.37323E+05  2.50351E+05  8.46558E+04  3.37414E+05 -1.32730E+05  2.50745E+05
 -1.89841E+05  8.28134E+04 -1.11335E+05 -3.26073E+04  1.30805E+03 -5.03608E+04  5.38502E+04  1.49741E+02
  3.52009E+04  5.27430E+04 -1.69373E+04  7.50588E+04 -6.03841E+04  6.28697E+04 -8.32089E+04  3.19899E+04
 -7.98990E+04 -1.13172E+04 -5.64982E+04 -5.06036E+04 -1.49742E+04 -6.84122E+04  2.70755E+04 -4.51330E+04
  3.92688E+04  3.83902E+03  1.56108E+04  4.74761E+04 -3.41768E+04  4.64194E+04 -6.58650E+04 -4.67145E+02
 -5.26126E+04 -5.61793E+04 -6.44167E+03 -7.57917E+04  3.32582E+04 -5.37917E+04  4.62408E+04 -1.65881E+04
  4.19880E+04  1.10144E+04  3.09056E+04  2.47682E+04  1.57274E+04  2.87506E+04 -4.69911E+03  2.69429E+04
 -2.16805E+04  1.28257E+04 -1.91166E+04 -4.50619E+03  4.79989E+03 -7.49211E+03  2.16278E+04  1.12152E+04
  7.14821E+03  3.41085E+04 -3.10729E+04  3.42929E+04 -6.15201E+04  2.52594E+03 -5.58113E+04 -4.17205E+04
 -1.26357E+04 -6.15742E+04  3.85240E+04 -4.40235E+04  5.64354E+04 -2.15579E+03  3.25327E+04  3.10284E+04
 -6.16132E+03  3.36002E+04 -2.88688E+04  1.40497E+04 -2.83501E+04 -5.41842E+03 -1.49694E+04 -1.02161E+04
 -7.73921E+03 -1.18702E+04 -8.52816E+02 -1.68951E+04  6.69040E+03 -2.26895E+04  1.49996E+04 -1.38880E+04
  1.19234E+04  4.44237E+03 -6.84375E+03  1.26868E+04 -1.96382E+04 -2.77572E+03 -7.74191E+03 -3.11655E+04
  2.13570E+04 -4.08747E+04  4.51919E+04 -1.88151E+04  4.27360E+04  1.84956E+04  1.44371E+04  4.20189E+04
 -1.55455E+04  3.15294E+04 -2.36770E+04  1.21209E+03 -8.82813E+03 -2.67475E+04  2.07362E+04 -3.18947E+04
  3.84882E+04 -7.84178E+03  3.21650E+04  2.27225E+04  1.62778E+04  4.34010E+04 -7.76369E+03  4.64617E+04
 -2.92735E+04  3.08282E+04 -3.81435E+04  8.68051E+03 -3.93021E+04 -1.55435E+04 -2.18519E+04 -3.51731E+04
  7.04298E+03 -3.51075E+04  2.95784E+04 -1.33293E+04  2.72592E+04  1.10278E+04  3.06646E+03  1.79991E+04
 -1.34739E+04  7.50278E+03 -9.83366E+03 -7.64417E+03  6.00238E+03 -9.87149E+03  1.73324E+04  6.53244E+03
  1.27301E+04  2.18457E+04 -6.52267E+03  2.37711E+04 -2.16763E+04  9.83812E+03 -2.55399E+04 -6.30593E+03
 -1.74226E+04 -1.65461E+04 -6.13123E+03 -1.72706E+04  4.11765E+03 -1.56675E+04  1.33744E+04 -1.53918E+04
  2.23903E+04 -1.16821E+04  2.92604E+04  1.31742E+03  2.18063E+04  1.71646E+04  3.96388E+03  3.31063E+04
 -1.62931E+04  2.81529E+04 -2.62524E+04  9.67047E+03 -1.99633E+04 -1.05240E+04 -3.92363E+03 -1.38400E+04
  2.23484E+03 -4.12012E+03 -3.16885E+03  5.87995E+03 -1.34796E+04  5.50556E+03 -1.37267E+04 -5.25608E+03
 -8.75591E+03 -1.62478E+04  4.47280E+03 -2.00859E+04  1.28970E+04 -1.47245E+04  1.51722E+04 -1.50477E+03
  9.20117E+03  1.09934E+04 -9.57196E+02  1.60358E+04 -1.08200E+04  8.94880E+03 -1.61551E+04 -3.60479E+03
 -1.19279E+04 -1.48564E+04 -1.69781E+03 -1.97914E+04  8.74934E+03 -1.59681E+04  1.64843E+04 -7.66898E+03
  1.51657E+04  5.36467E+02  1.07589E+04  3.66969E+03  5.45138E+03  4.91549E+02  7.77925E+03 -1.36194E+03
  1.42863E+04  2.52134E+03  1.53780E+04  1.29155E+04  9.74077E+03  2.57046E+04 -2.89871E+03  2.76942E+04
 -1.66697E+04  2.14594E+04 -2.56494E+04  1.07058E+04 -2.62939E+04 -1.87531E+03 -2.24446E+04 -1.50599E+04
 -1.04578E+04 -2.17230E+04  7.25458E+03 -2.00424E+04  1.73740E+04 -1.11105E+04  1.62330E+04  4.11537E+03
  6.87044E+03  1.16762E+04 -7.60201E+03  1.05991E+04 -1.39683E+04  2.72349E+03 -1.04603E+04 -8.16231E+03
 -5.19420E+01 -1.25995E+04  6.22253E+03 -9.61316E+03  8.61573E+03 -1.43016E+03  1.36496E+03  5.05852E+03
 -5.71516E+03  1.34962E+03 -4.16147E+03 -4.48821E+03  5.80414E+02 -1.09981E+04  8.14122E+03 -1.07234E+04
  1.28186E+04 -4.99666E+03  1.27400E+04  2.69089E+03  1.10407E+04  1.01923E+04  5.45741E+03  1.47517E+04
 -1.74918E+03  1.64671E+04 -1.03131E+04  1.06971E+04 -1.21415E+04  2.84795E+03 -8.97007E+03 -2.20128E+03
 -4.59067E+03 -3.54233E+03 -9.24738E+02  1.28544E+03 -1.90542E+03  1.93211E+03 -4.11315E+03  3.56913E+03
 -8.40436E+03 -3.70906E+02 -8.99991E+03 -7.55975E+03 -3.61628E+03 -1.19950E+04  3.60629E+03 -8.96483E+03
  7.56479E+03 -4.14897E+03  5.51026E+03  2.18912E+03  4.16069E+02  3.39849E+03 -3.45713E+03 -1.68116E+02
 -3.63030E+03 -5.19714E+03 -8.17862E+02 -7.79058E+03  4.12194E+03 -8.30287E+03  1.05102E+04 -4.02952E+03
  1.22639E+04  5.05628E+02  9.54207E+03  6.77363E+03  1.90887E+03  9.27337E+03 -5.48190E+03  8.71048E+03
 -7.21352E+03  2.88902E+03 -3.80396E+03 -1.24959E+03  1.27772E+03 -2.24825E+03  4.94517E+03 -1.04676E+03
  4.37302E+03  3.52085E+03  9.91032E+02  6.44037E+03 -4.43043E+03  6.69044E+03 -8.11400E+03  1.73049E+03
 -5.18213E+03 -3.60051E+03  3.48560E+02 -7.07345E+03  4.07276E+03 -3.50557E+03  4.02343E+03  8.98478E+02
  5.30126E+02  3.70300E+03 -4.51091E+03  5.18738E+03 -5.23343E+03  2.59030E+03 -4.93645E+03 -1.35582E+03
 -3.25257E+03 -6.36217E+03  1.29889E+03 -7.51011E+03  6.49892E+03 -5.14128E+03  6.61175E+03  8.56180E+02
  5.07363E+03  5.91976E+03  2.73637E+02  7.72578E+03 -5.36891E+03  4.44135E+03 -5.83848E+03 -4.66313E+02
 -5.76613E+03 -5.59131E+03 -1.05592E+03 -5.13049E+03  2.47255E+03 -4.80562E+03  3.23290E+03 -3.01222E+03
  2.85469E+03  3.90159E+02 -3.98730E+00  1.21489E+03  5.53092E+02 -2.49954E+02  6.12594E+00 -2.34560E+03
  4.20697E+03 -8.49684E+02  5.68545E+03  4.92786E+02  5.85402E+03  3.26818E+03  5.51456E+03  7.61871E+03
 -1.20421E+03  9.04482E+03 -8.06894E+03  7.08855E+03 -1.04684E+04  9.38804E+02 -8.11373E+03 -2.86501E+03
 -4.47524E+03 -6.80102E+03 -2.03070E+02 -5.48602E+03  2.19790E+03 -2.47681E+03  1.95109E+03 -2.37749E+03
  1.23353E+03 -1.23208E+03  2.27924E+03 -2.30996E+03  3.46576E+03 -1.39520E+03  3.94046E+03  8.00791E+01
  4.79509E+03  1.40610E+03  1.52511E+03  3.35603E+03 -1.40317E+03  3.21503E+03 -4.56674E+03  2.96557E+03
 -5.49072E+03 -1.11483E+03 -2.02637E+03 -3.42856E+03  5.37534E+02 -5.45422E+03  3.28913E+03 -5.61664E+03
  5.54655E+03 -3.47137E+03  7.23772E+03  7.61417E+01  5.28506E+03  4.34806E+03  1.16005E+03  6.28562E+03
 -2.33621E+03  6.33804E+03 -3.64576E+03  1.78992E+03 -1.82809E+03 -9.35260E+02 -3.63057E+02 -7.73147E+02
 -6.80472E+02  3.66728E+02 -1.28583E+03  2.05209E+03 -2.67292E+03  9.86720E+02 -4.44922E+03 -5.99853E+01
 -1.80453E+03 -4.15376E+03  8.83170E+02 -5.01771E+03  3.37463E+03 -4.52932E+03  3.76580E+03 -1.20813E+03
  4.34080E+03  2.58102E+03  2.04553E+03  3.65731E+03 -6.30632E+02  4.80459E+03 -2.95970E+03  2.72000E+03
 -4.15032E+03  8.23727E+02 -3.61086E+03 -2.60954E+03 -4.21290E+01 -3.40354E+03  1.60006E+03 -2.57022E+03
  3.00561E+03 -1.28408E+03  1.96683E+03  4.47365E+02  4.42051E+02  1.65718E+03  4.40298E+02  8.12597E+02
  1.66943E+03  5.84381E+02  1.47496E+03  1.17443E+03  8.94836E+02  2.25853E+03  1.44963E+03  2.08182E+03
 -1.50945E+03  3.30436E+03 -2.98730E+03  4.18141E+03 -3.37471E+03  1.31441E+03 -4.78865E+03 -2.98976E+02
 -1.88215E+03 -4.07053E+03  8.59729E+02 -4.95298E+03  2.06105E+03 -2.69824E+03  3.67793E+03 -8.49976E+02
  2.63848E+03  1.74019E+03  6.13275E+02  2.63767E+03 -7.04305E+02  1.21455E+03 -1.13757E+03  1.40229E+02
 -4.31266E+02 -1.65361E+03  1.35195E+03 -1.77919E+03  1.49405E+03 -9.05076E+02  1.62814E+03  3.06644E+02
  8.84960E+02  2.43625E+01  7.90891E+02 -2.11136E+02 -2.58610E+02  9.39078E+02  1.51136E+03 -2.59221E+02
 -1.93958E+02 -5.17981E+02  1.64031E+03  3.77761E+02  3.48271E+02  2.27345E+03 -4.09621E+02  2.96941E+03
 -1.90050E+03  1.21910E+03 -2.05845E+03  3.77744E+02 -2.19933E+03 -6.34558E+02 -3.50050E+02 -1.31715E+03
  5.75178E+02 -1.50946E+03  1.12619E+03 -5.59277E+02  8.12392E+02  1.26528E+03 -4.94327E+02  1.22219E+03
 -1.72095E+03  5.77352E+02 -1.28996E+03 -1.40022E+03 -7.49154E+02 -2.45060E+03  2.73308E+01 -1.75927E+03
  7.63032E+02 -6.92980E+02  7.86841E+02  1.58363E+02  1.48411E+03 -2.67378E+02  5.74743E+01  1.41446E+03
 -3.25506E+02  2.92807E+02 -9.34164E+02 -6.97375E+01  3.72701E+02 -1.00306E+03  1.89675E+03 -9.54467E+02
  1.36680E+03  4.39404E+02  2.78358E+03  7.40855E+02  1.09295E+03  1.40085E+03 -3.74007E+02  1.80595E+03
 -1.49394E+03  3.65046E+02 -1.41903E+03 -8.74389E+01 -8.54738E+02 -1.56420E+03  2.93432E+02 -7.56170E+02
  1.60118E+03 -6.03793E+02  1.06463E+03  4.75654E+02  3.34563E+02  1.18771E+03  3.42613E+02  1.30653E+03
 -2.71389E+02  9.57491E+02 -5.45316E+02  2.67888E+02 -2.82405E+01  5.09436E+02 -6.77444E+02  6.08851E+02
 -6.22410E+02  1.06384E+03 -1.64051E+03  3.82144E+02 -1.83583E+03  3.01115E+02 -2.69467E+03 -9.57866E+02
 -1.21736E+03 -2.40483E+03  6.06307E+02 -3.04427E+03  1.26356E+03 -2.36431E+03  3.12902E+03 -1.28462E+03
  2.54646E+03 -3.47339E+02  1.40537E+03  1.64107E+03 -5.80925E+02  1.56133E+03 -5.65791E+02  1.19714E+03
 -1.26331E+03  7.88159E+02 -7.25936E+02 -3.27123E+02 -1.57522E+02  4.14509E+02 -5.08506E+02  7.31581E+01
 -1.26962E+03 -6.96498E+01 -1.01063E+03  7.93024E+01  1.65748E+02 -3.55787E+02 -3.46831E+02 -9.30995E+02
  1.42243E+03 -6.83129E+02  6.13789E+02 -2.52226E+01  1.34884E+03  1.21665E+03 -4.22268E+02  1.84588E+03
 -9.36137E+02  2.23349E+03 -1.68782E+03  1.24285E+03 -1.96003E+03 -3.85036E+02 -1.32384E+03 -1.49683E+03
 -1.39753E+03 -1.36500E+03  2.45191E+02 -1.38204E+03  9.17751E+02 -7.39546E+02  7.92989E+02  4.41088E+01
  6.28194E+02  2.29881E+02  9.75775E+01  1.08891E+02 -3.77770E+02  1.13252E+02 -7.38560E+01 -4.89146E+02
  5.32476E+02  5.86832E+01  2.82795E+02  5.26858E+02  3.62932E+02  2.48689E+02  6.35113E+02  2.55853E+02
 -4.65703E+02  6.44261E+02 -7.16755E+02  4.01487E+02 -7.89284E+02 -4.51530E+02 -4.45410E+01 -9.36809E+02
  6.05759E+02 -6.64289E+02  5.34639E+02 -1.63159E+02  1.02563E+03 -7.05225E+02  5.49344E+02  7.16776E+02
  8.89228E+02  9.62879E+02 -2.88215E+02  5.83538E+02 -4.78452E+02  7.35907E+02 -5.80840E+02  1.28363E+01
 -3.17830E+02 -1.05244E+02 -4.40117E+02  2.63395E+02 -5.34512E+02  1.15110E+02 -6.81230E+02  3.53739E+01
 -1.22834E+03  4.56734E+02 -2.41434E+02 -9.01862E+02  8.33726E+02 -1.74922E+03  7.31354E+02 -2.18591E+02
  6.43492E+02 -2.00280E+01 -1.86815E+02  5.01349E+02 -6.65867E+00  9.27445E+02 -6.12973E+02  6.38015E+02
