 $NMID ID='MM_0lb_SNR800_10hz_g40_84.RAW', FMTDAT='(8E13.5)'
 TRAMP=1., VOLUME=1. $END
  3.09867E+05  2.47875E+02  3.38039E+05  2.50396E+05  8.43162E+04  3.38187E+05 -1.32673E+05  2.51532E+05
 -1.90532E+05  8.31968E+04 -1.12170E+05 -3.23986E+04  1.35095E+02 -5.04599E+04  5.37777E+04 -3.26243E+02
  3.53812E+04  5.26950E+04 -1.66578E+04  7.58133E+04 -6.08580E+04  6.37696E+04 -8.48240E+04  3.20898E+04
 -8.17698E+04 -1.19845E+04 -5.79248E+04 -5.17723E+04 -1.49662E+04 -7.03285E+04  2.78720E+04 -4.62722E+04
  4.09587E+04  3.58267E+03  1.64088E+04  4.82297E+04 -3.47152E+04  4.79467E+04 -6.74759E+04 -1.41733E+02
 -5.44125E+04 -5.73947E+04 -6.90225E+03 -7.81842E+04  3.45302E+04 -5.62277E+04  4.90259E+04 -1.74201E+04
  4.43146E+04  1.13089E+04  3.25721E+04  2.59402E+04  1.59492E+04  3.03186E+04 -5.42066E+03  2.76065E+04
 -2.20558E+04  1.21485E+04 -1.84476E+04 -5.57411E+03  6.09500E+03 -7.51257E+03  2.32611E+04  1.33526E+04
  6.80974E+03  3.63992E+04 -3.29702E+04  3.61197E+04 -6.48122E+04  2.23537E+03 -5.82287E+04 -4.39941E+04
 -1.26852E+04 -6.46834E+04  4.09295E+04 -4.64671E+04  6.01310E+04 -2.61028E+03  3.58874E+04  3.33685E+04
 -5.71758E+03  3.77879E+04 -3.12612E+04  1.76065E+04 -3.19924E+04 -3.87027E+03 -1.80311E+04 -1.16889E+04
 -9.24982E+03 -1.45743E+04 -5.86010E+02 -1.89614E+04  8.05830E+03 -2.32239E+04  1.59822E+04 -1.27620E+04
  1.05671E+04  5.71517E+03 -9.92772E+03  1.29349E+04 -2.25170E+04 -5.51414E+03 -8.37167E+03 -3.60589E+04
  2.42749E+04 -4.52700E+04  5.06307E+04 -2.02855E+04  4.73961E+04  1.99752E+04  1.68436E+04  4.61055E+04
 -1.64672E+04  3.49520E+04 -2.67787E+04  2.34522E+03 -1.09139E+04 -2.90468E+04  2.14749E+04 -3.59137E+04
  4.29481E+04 -1.01742E+04  3.85913E+04  2.47477E+04  2.00412E+04  4.91506E+04 -8.07896E+03  5.37043E+04
 -3.41922E+04  3.63294E+04 -4.56037E+04  1.01404E+04 -4.55191E+04 -1.76029E+04 -2.50317E+04 -4.08177E+04
  7.46427E+03 -4.05369E+04  3.28339E+04 -1.63195E+04  3.13100E+04  1.10912E+04  4.96004E+03  2.00384E+04
 -1.38259E+04  8.79868E+03 -1.10685E+04 -7.61781E+03  5.70327E+03 -1.13673E+04  1.84546E+04  5.91431E+03
  1.38844E+04  2.27135E+04 -5.27827E+03  2.63675E+04 -2.35164E+04  1.30111E+04 -2.99629E+04 -3.77411E+03
 -2.35557E+04 -1.78007E+04 -1.00764E+04 -2.31324E+04  4.06143E+03 -2.33622E+04  1.82876E+04 -2.10674E+04
  2.93298E+04 -1.32742E+04  3.57739E+04  4.13826E+03  2.57949E+04  2.29730E+04  4.43660E+03  3.92170E+04
 -1.90974E+04  3.24960E+04 -2.97647E+04  1.13495E+04 -2.20473E+04 -1.02308E+04 -4.63350E+03 -1.33329E+04
  1.10109E+03 -2.20152E+03 -6.34380E+03  7.68128E+03 -1.88783E+04  5.06933E+03 -1.87553E+04 -8.57151E+03
 -1.10714E+04 -2.13718E+04  5.44502E+03 -2.55040E+04  1.73627E+04 -1.79400E+04  2.04080E+04 -1.89280E+03
  1.35074E+04  1.50527E+04 -1.30980E+03  2.15565E+04 -1.50356E+04  1.22799E+04 -2.14402E+04 -4.36854E+03
 -1.60376E+04 -1.94749E+04 -2.12212E+03 -2.54260E+04  1.16891E+04 -2.19600E+04  2.12264E+04 -1.08300E+04
  2.03018E+04  1.34665E+01  1.47310E+04  4.90134E+03  7.86455E+03  9.96314E+02  1.08404E+04 -1.91522E+03
  2.02918E+04  2.53743E+03  2.35282E+04  1.71653E+04  1.56842E+04  3.47770E+04 -2.82040E+03  4.03547E+04
 -2.32688E+04  3.33181E+04 -3.80887E+04  1.71824E+04 -4.05916E+04 -2.82387E+03 -3.29627E+04 -2.36797E+04
 -1.32012E+04 -3.33487E+04  1.19977E+04 -2.94635E+04  2.52357E+04 -1.43394E+04  2.21506E+04  6.89076E+03
  8.06288E+03  1.70094E+04 -1.08960E+04  1.44604E+04 -1.86741E+04  2.25720E+03 -1.35290E+04 -1.19113E+04
 -7.78807E+02 -1.79134E+04  9.74428E+03 -1.29862E+04  1.19096E+04 -1.53017E+03  3.12390E+03  7.84017E+03
 -7.82704E+03  3.61264E+03 -7.73350E+03 -6.24112E+03 -1.36692E+03 -1.65208E+04  1.07945E+04 -1.77725E+04
  2.02619E+04 -9.86480E+03  2.31155E+04  3.08368E+03  2.00177E+04  1.62319E+04  9.71517E+03  2.59975E+04
 -4.80111E+03  2.76844E+04 -1.79327E+04  1.70956E+04 -2.01917E+04  4.17397E+03 -1.40458E+04 -4.77998E+03
 -6.15082E+03 -6.46114E+03 -5.04271E+02  8.22099E+02 -2.85759E+03  3.07631E+03 -6.34342E+03  5.32273E+03
 -1.30211E+04 -8.94302E+02 -1.31635E+04 -1.08386E+04 -5.60734E+03 -1.74711E+04  5.84905E+03 -1.44074E+04
  1.15833E+04 -5.71277E+03  8.44988E+03  3.88246E+03 -1.25676E+02  5.53560E+03 -6.85890E+03 -4.84915E+02
 -6.56440E+03 -8.95330E+03 -1.31701E+03 -1.33678E+04  7.93572E+03 -1.44249E+04  1.75431E+04 -7.99255E+03
  2.09205E+04  2.14181E+03  1.50640E+04  1.28472E+04  2.92661E+03  1.68483E+04 -8.68676E+03  1.39996E+04
 -1.13549E+04  3.96170E+03 -6.09676E+03 -2.92971E+03  2.16488E+03 -3.68821E+03  7.61523E+03 -8.29766E+02
  6.75955E+03  6.43340E+03  1.03901E+03  1.11618E+04 -8.25563E+03  1.06077E+04 -1.41240E+04  2.37702E+03
 -9.22121E+03 -7.27993E+03  5.42747E+02 -1.18678E+04  7.45869E+03 -5.98767E+03  8.28307E+03  2.96567E+03
  2.04600E+03  8.43571E+03 -7.43357E+03  1.01483E+04 -1.16806E+04  4.89653E+03 -1.15173E+04 -3.85866E+03
 -6.86521E+03 -1.37664E+04  3.28581E+03 -1.54002E+04  1.32862E+04 -9.26024E+03  1.43099E+04  2.45129E+03
  8.81440E+03  1.15224E+04 -1.15568E+03  1.35202E+04 -1.01551E+04  7.37192E+03 -1.12914E+04 -1.19351E+03
 -9.55671E+03 -9.26790E+03 -1.89561E+03 -1.00314E+04  5.33005E+03 -8.46962E+03  6.87991E+03 -3.44928E+03
  4.72427E+03  1.85943E+03 -9.51065E+02  1.96530E+03 -2.86536E+02 -2.32493E+03  2.04379E+03 -6.23198E+03
  9.92052E+03 -3.82229E+03  1.36789E+04  1.54984E+03  1.30489E+04  9.40106E+03  8.95302E+03  1.78503E+04
 -4.26602E+03  2.05011E+04 -1.71242E+04  1.49296E+04 -2.21988E+04  2.71273E+03 -1.75635E+04 -7.47985E+03
 -8.97755E+03 -1.47967E+04 -4.76404E+02 -1.25630E+04  4.15117E+03 -6.56481E+03  4.39387E+03 -4.40890E+03
  3.30876E+03 -2.79573E+03  3.40530E+03 -3.80676E+03  5.38429E+03 -3.28242E+03  7.16867E+03 -8.56852E+02
  9.21180E+03  2.44199E+03  4.34891E+03  8.13415E+03 -2.05796E+03  9.58687E+03 -9.81625E+03  6.91883E+03
 -1.24058E+04 -1.04049E+03 -7.80248E+03 -8.82048E+03 -9.66975E+02 -1.35214E+04  7.30817E+03 -1.35514E+04
  1.39570E+04 -7.61110E+03  1.64584E+04  2.06296E+03  1.14615E+04  1.17507E+04  1.58229E+03  1.47040E+04
 -5.82627E+03  1.23796E+04 -9.11021E+03  3.91905E+03 -6.04982E+03 -1.72410E+03 -2.68231E+03 -1.85117E+03
 -1.61358E+03 -3.06446E+02 -2.19572E+03  2.24866E+03 -5.44810E+03  2.70722E+03 -8.78822E+03 -9.27340E+02
 -5.80564E+03 -8.26630E+03  2.60682E+02 -1.24235E+04  7.88111E+03 -1.13092E+04  1.21823E+04 -3.71779E+03
  1.22063E+04  5.81293E+03  5.78114E+03  1.09063E+04 -2.41574E+03  1.23846E+04 -8.49442E+03  7.97118E+03
 -1.16257E+04  4.89857E+02 -8.89784E+03 -7.37752E+03 -6.72777E+02 -1.00765E+04  4.93329E+03 -7.92069E+03
  7.78743E+03 -2.37912E+03  5.43898E+03  2.04577E+03  1.94119E+03  3.70923E+03  1.35004E+03  1.79999E+03
  2.51370E+03  9.86459E+02  3.15736E+03  1.53061E+03  3.71411E+03  4.43660E+03  3.51062E+03  6.53493E+03
 -3.01917E+03  9.98188E+03 -8.37193E+03  9.94479E+03 -1.21130E+04  2.56238E+03 -1.29185E+04 -5.03539E+03
 -6.36875E+03 -1.24046E+04  1.54193E+03 -1.37016E+04  7.69537E+03 -8.47254E+03  1.00167E+04 -2.65178E+03
  8.17101E+03  4.36502E+03  1.83115E+03  7.29219E+03 -3.28806E+03  4.39679E+03 -4.64511E+03 -7.61880E+02
 -2.10692E+03 -5.22506E+03  2.74277E+03 -5.15094E+03  5.12475E+03 -2.86562E+03  5.11283E+03  9.34196E+02
  2.91203E+03  2.51489E+03  1.10571E+03  1.93913E+03 -8.23206E+02  1.74387E+03  1.56816E+03 -4.62130E+02
  1.89496E+03 -5.24911E+02  5.64879E+03  2.37678E+03  2.92233E+03  6.70346E+03 -1.20283E+03  8.90205E+03
 -6.04555E+03  5.54288E+03 -8.11451E+03  1.32731E+03 -6.92472E+03 -2.79148E+03 -1.92276E+03 -4.50181E+03
  9.00763E+02 -4.79486E+03  3.00354E+03 -2.40937E+03  2.53909E+03  2.56497E+03 -1.16685E+03  4.09336E+03
 -5.10873E+03  2.55172E+03 -5.53654E+03 -2.73434E+03 -3.56792E+03 -6.75256E+03  9.66878E+02 -6.67394E+03
  3.77514E+03 -3.88016E+03  5.09462E+03 -6.91976E+02  4.54381E+03  1.80844E+03  7.86155E+02  3.76566E+03
 -1.98204E+03  8.89346E+02 -3.03336E+03 -2.73142E+03  1.19661E+03 -4.92205E+03  6.22819E+03 -4.46837E+03
  7.73365E+03  4.55977E+02  7.51665E+03  4.97795E+03  2.27722E+03  8.10437E+03 -2.78271E+03  7.25099E+03
 -6.56311E+03  3.50217E+03 -7.31201E+03 -1.45280E+03 -3.58782E+03 -5.36807E+03  8.34935E+02 -4.78369E+03
  4.92453E+03 -2.00341E+03  4.30079E+03  2.36525E+03  1.24295E+03  4.85182E+03 -9.75832E+02  4.24552E+03
 -1.99196E+03  2.83307E+03 -1.98769E+03  8.84300E+02 -7.68681E+02  9.05937E+02 -1.07416E+03  1.58683E+03
 -2.36194E+03  3.09043E+03 -5.30606E+03  2.57485E+03 -8.15340E+03  1.68221E+02 -9.05861E+03 -5.06301E+03
 -4.39877E+03 -1.05988E+04  2.27997E+03 -1.25781E+04  7.41921E+03 -9.57443E+03  1.19011E+04 -3.74935E+03
  1.08358E+04  2.10787E+03  6.68535E+03  7.29782E+03  5.73181E+02  7.91487E+03 -3.09203E+03  6.19288E+03
 -4.35335E+03  2.08532E+03 -3.24069E+03 -7.08613E+02 -8.43032E+02 -6.07684E+02 -7.75948E+02 -1.78080E+02
 -1.60745E+03 -3.15368E+01 -1.75287E+03 -5.03247E+02 -4.76672E+02 -2.03853E+03  5.46077E+01 -3.53691E+03
  4.12066E+03 -2.84970E+03  4.73734E+03  1.31461E+02  5.71426E+03  4.55903E+03  1.40728E+03  8.03504E+03
 -3.81790E+03  9.68705E+03 -8.79230E+03  5.33175E+03 -9.84537E+03 -9.84215E+02 -7.61532E+03 -6.21833E+03
 -3.14303E+03 -8.29710E+03  2.18532E+03 -7.27075E+03  5.12213E+03 -4.63368E+03  5.23487E+03 -7.46553E+01
  3.09193E+03  2.66255E+03 -3.83817E+02  2.25060E+03 -1.21475E+03 -4.23273E+02  8.87403E+01 -1.72284E+03
  2.13193E+03 -9.26865E+02  3.41873E+03  1.32165E+03  2.04760E+03  3.41670E+03  2.60884E+02  3.95314E+03
 -3.33762E+03  3.72308E+03 -5.15368E+03  5.25597E+02 -5.08608E+03 -3.78230E+03 -7.41713E+02 -6.96540E+03
  3.64631E+03 -5.34827E+03  6.01117E+03 -1.71756E+03  6.42064E+03  1.20851E+03  3.55464E+03  5.06978E+03
  6.19110E+02  5.61278E+03 -1.94091E+03  4.44471E+03 -3.01573E+03  2.46763E+03 -2.94172E+03  1.98911E+02
 -1.67306E+03 -5.16395E+02 -1.70727E+03  7.39384E+02 -2.97283E+03  9.68912E+02 -4.57702E+03 -8.36551E+02
 -4.24306E+03 -2.73896E+03 -8.82584E+02 -5.35136E+03  2.62004E+03 -5.96547E+03  4.97260E+03 -2.70891E+03
  5.16994E+03  9.71751E+02  2.98280E+03  3.59667E+03 -3.50913E+02  5.76652E+03 -3.83701E+03  3.66657E+03
