 $NMID ID='MM_0lb_SNR800_13hz_g60_84.RAW', FMTDAT='(8E13.5)'
 TRAMP=1., VOLUME=1. $END
  3.09903E+05  6.79947E+02  3.37826E+05  2.50807E+05  8.50156E+04  3.38273E+05 -1.32680E+05  2.51351E+05
 -1.91023E+05  8.34011E+04 -1.12034E+05 -3.23956E+04  4.18180E+02 -5.05056E+04  5.37891E+04 -4.57171E+02
  3.51161E+04  5.32226E+04 -1.65699E+04  7.59031E+04 -6.09475E+04  6.41493E+04 -8.50806E+04  3.22009E+04
 -8.18221E+04 -1.19718E+04 -5.75965E+04 -5.18873E+04 -1.52575E+04 -7.04601E+04  2.78184E+04 -4.62261E+04
  4.09107E+04  3.84000E+03  1.61300E+04  4.82751E+04 -3.45532E+04  4.78065E+04 -6.72638E+04 -1.10344E+02
 -5.43536E+04 -5.72499E+04 -6.73513E+03 -7.79699E+04  3.43153E+04 -5.65150E+04  4.90183E+04 -1.80085E+04
  4.43442E+04  1.13318E+04  3.25367E+04  2.64686E+04  1.58303E+04  3.05394E+04 -5.57293E+03  2.74335E+04
 -2.22408E+04  1.25301E+04 -1.80504E+04 -5.72856E+03  6.78053E+03 -7.56457E+03  2.30665E+04  1.31499E+04
  6.89297E+03  3.67945E+04 -3.34432E+04  3.62828E+04 -6.47717E+04  1.97833E+03 -5.79829E+04 -4.36838E+04
 -1.26453E+04 -6.45759E+04  4.06578E+04 -4.67106E+04  6.03086E+04 -2.65188E+03  3.55650E+04  3.33830E+04
 -5.38287E+03  3.80281E+04 -3.10138E+04  1.75178E+04 -3.21871E+04 -3.73673E+03 -1.78606E+04 -1.12355E+04
 -8.72079E+03 -1.41028E+04 -6.08979E+02 -1.90609E+04  8.21049E+03 -2.35033E+04  1.56116E+04 -1.29171E+04
  1.10066E+04  5.86149E+03 -9.32914E+03  1.32154E+04 -2.25091E+04 -5.78607E+03 -8.67203E+03 -3.58832E+04
  2.40915E+04 -4.52105E+04  5.03427E+04 -2.02670E+04  4.69085E+04  2.00225E+04  1.65837E+04  4.57964E+04
 -1.61916E+04  3.45968E+04 -2.66326E+04  2.17587E+03 -1.07805E+04 -2.87307E+04  2.10628E+04 -3.55303E+04
  4.27040E+04 -1.01045E+04  3.79659E+04  2.40219E+04  1.99440E+04  4.90676E+04 -8.18676E+03  5.31314E+04
 -3.32450E+04  3.60133E+04 -4.47670E+04  1.05191E+04 -4.54121E+04 -1.71170E+04 -2.48597E+04 -4.04111E+04
  7.39939E+03 -3.97503E+04  3.31002E+04 -1.58941E+04  3.06490E+04  1.09659E+04  4.57549E+03  1.98959E+04
 -1.35317E+04  9.16438E+03 -1.07696E+04 -7.39752E+03  5.92621E+03 -1.11341E+04  1.83471E+04  5.78163E+03
  1.40631E+04  2.25685E+04 -5.58476E+03  2.60852E+04 -2.25642E+04  1.27344E+04 -2.96486E+04 -3.66061E+03
 -2.27953E+04 -1.76471E+04 -9.96082E+03 -2.23368E+04  4.36792E+03 -2.23600E+04  1.78688E+04 -2.09310E+04
  2.89585E+04 -1.38405E+04  3.52466E+04  4.12879E+03  2.51679E+04  2.16857E+04  4.11217E+03  3.81999E+04
 -1.89494E+04  3.21842E+04 -2.91384E+04  1.10040E+04 -2.16243E+04 -1.03072E+04 -4.54851E+03 -1.32429E+04
  1.26059E+03 -1.67998E+03 -5.80109E+03  7.54514E+03 -1.79805E+04  5.09680E+03 -1.83083E+04 -7.87663E+03
 -1.06357E+04 -2.10695E+04  5.53656E+03 -2.51044E+04  1.67754E+04 -1.79074E+04  1.99435E+04 -1.72890E+03
  1.32653E+04  1.46059E+04 -1.00044E+03  2.09386E+04 -1.44810E+04  1.19008E+04 -2.05471E+04 -4.42206E+03
 -1.56511E+04 -1.89558E+04 -1.92163E+03 -2.49727E+04  1.16780E+04 -2.07520E+04  2.13403E+04 -1.04812E+04
  1.97632E+04 -1.13430E+02  1.40316E+04  4.45489E+03  7.94344E+03  1.30216E+03  1.07818E+04 -1.70565E+03
  1.96405E+04  2.65115E+03  2.20481E+04  1.64780E+04  1.47328E+04  3.35713E+04 -3.01183E+03  3.86358E+04
 -2.24753E+04  3.15224E+04 -3.64347E+04  1.62279E+04 -3.79729E+04 -2.85788E+03 -3.16844E+04 -2.22100E+04
 -1.34138E+04 -3.16814E+04  1.08268E+04 -2.78998E+04  2.41813E+04 -1.38801E+04  2.13569E+04  6.82136E+03
  7.66591E+03  1.63431E+04 -1.01351E+04  1.38953E+04 -1.76748E+04  2.66616E+03 -1.33870E+04 -1.11717E+04
 -4.99213E+01 -1.68895E+04  8.99860E+03 -1.29174E+04  1.15163E+04 -1.33584E+03  2.77075E+03  7.25475E+03
 -7.82153E+03  3.35684E+03 -7.34072E+03 -5.88332E+03 -1.09204E+03 -1.53545E+04  1.02534E+04 -1.64967E+04
  1.92258E+04 -8.87353E+03  2.13046E+04  3.21464E+03  1.84841E+04  1.56530E+04  8.20901E+03  2.39358E+04
 -4.27808E+03  2.58604E+04 -1.65448E+04  1.59177E+04 -1.84352E+04  3.19448E+03 -1.28737E+04 -4.50779E+03
 -5.84367E+03 -5.69832E+03 -6.37740E+02  7.80723E+02 -2.84250E+03  2.83211E+03 -5.92726E+03  4.70620E+03
 -1.18095E+04 -9.30899E+02 -1.30001E+04 -1.00162E+04 -5.05576E+03 -1.65838E+04  5.09024E+03 -1.29370E+04
  1.06787E+04 -5.44041E+03  7.96799E+03  3.62888E+03 -3.24023E+01  5.20161E+03 -6.37788E+03  2.38121E+01
 -5.90418E+03 -8.02738E+03 -8.10678E+02 -1.25754E+04  7.16153E+03 -1.31112E+04  1.64311E+04 -7.39417E+03
  1.91162E+04  1.96259E+03  1.42023E+04  1.14783E+04  2.72159E+03  1.47987E+04 -8.08489E+03  1.26736E+04
 -1.04107E+04  3.64009E+03 -5.37008E+03 -2.58721E+03  1.81057E+03 -3.54783E+03  7.00480E+03 -1.24988E+03
  6.09782E+03  5.93810E+03  8.76315E+02  1.02818E+04 -7.45694E+03  1.00697E+04 -1.25481E+04  2.27918E+03
 -8.48416E+03 -6.43152E+03  3.05068E+02 -1.05508E+04  6.68651E+03 -5.45071E+03  7.09126E+03  2.56619E+03
  1.66594E+03  7.02615E+03 -6.64545E+03  9.02102E+03 -9.85159E+03  4.08440E+03 -1.03467E+04 -3.73028E+03
 -5.84035E+03 -1.17384E+04  2.82299E+03 -1.37917E+04  1.15780E+04 -8.27399E+03  1.28233E+04  2.24517E+03
  8.08724E+03  1.01935E+04 -7.92348E+02  1.23604E+04 -9.21518E+03  7.07312E+03 -9.97673E+03 -1.27760E+03
 -8.65684E+03 -8.14563E+03 -1.63942E+03 -9.30192E+03  4.76573E+03 -7.73386E+03  5.54763E+03 -3.38725E+03
  4.11496E+03  1.44284E+03 -8.83949E+02  1.58752E+03 -6.80538E+01 -2.22473E+03  1.66040E+03 -5.12276E+03
  7.83050E+03 -2.99851E+03  1.15768E+04  1.20001E+03  1.14914E+04  7.29285E+03  8.07419E+03  1.47320E+04
 -3.20239E+03  1.76183E+04 -1.47859E+04  1.33125E+04 -1.91108E+04  2.32582E+03 -1.52137E+04 -6.61453E+03
 -7.53187E+03 -1.21219E+04 -3.71819E+02 -1.08001E+04  3.87530E+03 -5.72364E+03  3.79542E+03 -3.79739E+03
  2.62054E+03 -2.52125E+03  3.32513E+03 -2.95682E+03  4.69608E+03 -2.43708E+03  6.03534E+03 -5.58644E+02
  8.59304E+03  1.92558E+03  3.90973E+03  6.90862E+03 -1.67516E+03  7.71602E+03 -8.38598E+03  6.28908E+03
 -1.06816E+04 -1.31274E+03 -6.03183E+03 -7.23470E+03 -8.06296E+02 -1.11349E+04  6.46073E+03 -1.13019E+04
  1.14519E+04 -5.94769E+03  1.38413E+04  1.78296E+03  9.53054E+03  9.63888E+03  1.68675E+03  1.25148E+04
 -5.09825E+03  1.05267E+04 -7.16126E+03  3.66355E+03 -4.85955E+03 -1.19167E+03 -1.79613E+03 -1.32523E+03
 -1.20619E+03 -2.34723E+01 -1.78309E+03  2.70708E+03 -4.65588E+03  2.24760E+03 -7.67877E+03 -1.07525E+03
 -4.63007E+03 -7.49183E+03  4.53288E+02 -9.95124E+03  5.91437E+03 -9.11193E+03  9.43043E+03 -2.43594E+03
  9.44545E+03  4.95214E+03  4.50326E+03  8.56744E+03 -1.69658E+03  1.00417E+04 -6.70274E+03  6.21905E+03
 -8.92686E+03  1.88005E+02 -7.29452E+03 -5.94152E+03 -7.78133E+02 -8.07633E+03  4.33391E+03 -6.33652E+03
  6.22488E+03 -2.08702E+03  4.25962E+03  1.54642E+03  1.43526E+03  2.69060E+03  1.33854E+03  1.63054E+03
  2.22618E+03  9.97805E+02  2.49423E+03  1.58683E+03  2.97377E+03  3.87239E+03  2.64783E+03  5.28522E+03
 -2.45123E+03  7.33155E+03 -6.75765E+03  8.20504E+03 -9.44671E+03  2.16270E+03 -1.00740E+04 -3.60055E+03
 -4.54811E+03 -9.40004E+03  1.57665E+03 -1.05185E+04  5.55653E+03 -6.67607E+03  7.71314E+03 -1.82579E+03
  6.25831E+03  3.71635E+03  1.53843E+03  5.63334E+03 -2.37729E+03  3.30086E+03 -3.48166E+03 -5.71540E+02
 -1.68460E+03 -4.15338E+03  2.16932E+03 -4.10688E+03  4.07307E+03 -2.38090E+03  3.55698E+03  9.06805E+02
  2.25017E+03  1.68795E+03  9.76717E+02  1.35425E+03 -3.36336E+02  1.34463E+03  1.94621E+03 -6.13775E+02
  1.18578E+03 -3.48975E+02  3.87379E+03  1.40155E+03  2.10612E+03  5.01120E+03 -8.31085E+02  6.68229E+03
 -4.34474E+03  3.78011E+03 -5.92197E+03  1.26301E+03 -5.30284E+03 -2.05294E+03 -1.58039E+03 -3.22639E+03
  6.47313E+02 -3.28818E+03  2.28834E+03 -1.69867E+03  1.85757E+03  2.24657E+03 -1.10297E+03  3.17366E+03
 -3.54947E+03  2.23591E+03 -4.13359E+03 -2.60900E+03 -2.52399E+03 -5.08621E+03  5.78078E+02 -4.65846E+03
  2.56294E+03 -2.74289E+03  3.42727E+03 -2.16950E+02  3.22874E+03  1.35603E+03  4.92825E+02  2.64899E+03
 -1.66654E+03  7.47073E+02 -2.48560E+03 -1.51931E+03  1.15833E+03 -3.41067E+03  4.55874E+03 -2.95217E+03
  4.77177E+03  3.27009E+02  5.82385E+03  3.73571E+03  1.67738E+03  5.46722E+03 -2.07905E+03  5.43477E+03
 -4.45089E+03  2.50834E+03 -4.83964E+03 -6.28518E+02 -2.51658E+03 -3.52837E+03  8.55219E+02 -3.20927E+03
  3.56511E+03 -1.91886E+03  3.14549E+03  1.81403E+03  1.14388E+03  3.20601E+03 -3.45819E+02  2.72511E+03
 -1.21938E+03  1.83898E+03 -1.30092E+03  8.14231E+02 -3.60587E+02  3.66723E+02 -1.07345E+03  1.13889E+03
 -1.67302E+03  2.43978E+03 -4.17178E+03  1.74445E+03 -5.55840E+03  1.90403E+02 -6.33542E+03 -3.35588E+03
 -3.08813E+03 -7.19375E+03  1.40216E+03 -8.04437E+03  4.50508E+03 -6.65374E+03  7.92635E+03 -2.61129E+03
  7.21954E+03  1.44753E+03  4.30603E+03  5.16438E+03  8.51127E+01  5.28198E+03 -1.98445E+03  4.03481E+03
 -3.05340E+03  1.94691E+03 -1.70391E+03 -7.37353E+02 -6.17043E+02 -1.89447E+02 -9.37012E+02  1.38828E+02
 -1.52615E+03  1.28864E+02 -1.44393E+03 -2.29277E+02  6.54155E+01 -1.11148E+03 -1.74787E+02 -2.50492E+03
  2.49286E+03 -2.05373E+03  3.11033E+03  2.62435E+02  4.07724E+03  2.77893E+03  6.04111E+02  4.89710E+03
 -2.80028E+03  6.01389E+03 -5.62900E+03  3.69228E+03 -6.00420E+03 -5.83321E+02 -4.81140E+03 -3.79351E+03
 -2.26648E+03 -5.23546E+03  1.24751E+03 -4.71657E+03  3.24024E+03 -2.54738E+03  3.20969E+03  2.37156E+02
  2.01127E+03  1.43908E+03 -4.13141E+01  1.30385E+03 -6.43413E+02 -1.56429E+02  6.18765E+01 -8.70455E+02
  1.42654E+03 -4.48351E+02  1.70515E+03  6.87095E+02  8.49324E+02  1.94484E+03  1.24026E+02  2.09422E+03
 -1.81009E+03  2.28732E+03 -3.20473E+03  8.60577E+01 -2.93688E+03 -2.23707E+03 -2.44353E+02 -4.12674E+03
  2.35229E+03 -3.05615E+03  3.57012E+03 -7.85424E+02  3.18833E+03  3.96888E+02  2.17271E+03  3.10929E+03
  8.94613E+02  3.18857E+03 -9.22780E+02  2.33445E+03 -1.87614E+03  1.60970E+03 -1.75690E+03  1.99426E+02
 -8.31820E+02  6.37388E+01 -1.12890E+03  5.61341E+02 -1.22371E+03  6.58706E+02 -2.60990E+03 -3.11678E+02
 -2.85340E+03 -1.27686E+03 -6.15022E+02 -3.05683E+03  1.52073E+03 -3.51631E+03  2.73719E+03 -1.32289E+03
  3.02232E+03  6.31323E+02  1.46138E+03  1.96909E+03 -3.57782E+02  3.16923E+03 -1.67731E+03  2.21498E+03
