 $NMID ID='MM_0lb_SNR800_9hz_g40_94.RAW', FMTDAT='(8E13.5)'
 TRAMP=1., VOLUME=1. $END
  3.09847E+05  7.08114E+01  3.38069E+05  2.50980E+05  8.47168E+04  3.38229E+05 -1.32710E+05  2.51706E+05
 -1.90904E+05  8.37229E+04 -1.12667E+05 -3.23606E+04  4.79237E+02 -5.01351E+04  5.36466E+04 -3.89872E+02
  3.57558E+04  5.24852E+04 -1.67952E+04  7.59745E+04 -6.08453E+04  6.39245E+04 -8.48048E+04  3.26973E+04
 -8.21770E+04 -1.17554E+04 -5.82174E+04 -5.18917E+04 -1.50117E+04 -7.09035E+04  2.80810E+04 -4.68277E+04
  4.11179E+04  3.78845E+03  1.63689E+04  4.83125E+04 -3.48346E+04  4.78624E+04 -6.77353E+04  5.63145E+01
 -5.47714E+04 -5.78920E+04 -7.37903E+03 -7.84049E+04  3.45357E+04 -5.65048E+04  4.91194E+04 -1.78325E+04
  4.50397E+04  1.11134E+04  3.28105E+04  2.64712E+04  1.61847E+04  3.03170E+04 -5.85269E+03  2.75691E+04
 -2.22693E+04  1.25095E+04 -1.84360E+04 -5.53914E+03  6.69564E+03 -7.27585E+03  2.33025E+04  1.35497E+04
  6.85316E+03  3.69426E+04 -3.32818E+04  3.66740E+04 -6.51675E+04  1.94238E+03 -5.86585E+04 -4.42893E+04
 -1.26847E+04 -6.48487E+04  4.14281E+04 -4.70980E+04  6.07673E+04 -2.09288E+03  3.62123E+04  3.37840E+04
 -5.24081E+03  3.87627E+04 -3.18220E+04  1.81845E+04 -3.26973E+04 -3.57070E+03 -1.93479E+04 -1.17753E+04
 -8.83938E+03 -1.46370E+04 -2.06145E+02 -1.92806E+04  8.37841E+03 -2.32571E+04  1.57169E+04 -1.26847E+04
  1.08887E+04  6.30677E+03 -9.95220E+03  1.29844E+04 -2.28943E+04 -5.99294E+03 -8.19413E+03 -3.69903E+04
  2.49633E+04 -4.63014E+04  5.15143E+04 -2.03314E+04  4.83190E+04  2.07422E+04  1.72079E+04  4.66129E+04
 -1.63756E+04  3.55051E+04 -2.71646E+04  2.31065E+03 -1.12932E+04 -2.91111E+04  2.13700E+04 -3.60341E+04
  4.38598E+04 -1.07289E+04  3.94625E+04  2.46936E+04  2.07467E+04  5.02820E+04 -8.30471E+03  5.49020E+04
 -3.51275E+04  3.71594E+04 -4.67494E+04  1.03917E+04 -4.63971E+04 -1.84680E+04 -2.55863E+04 -4.10572E+04
  8.01401E+03 -4.15231E+04  3.36659E+04 -1.66924E+04  3.11937E+04  1.10300E+04  4.84049E+03  2.05796E+04
 -1.38355E+04  9.40210E+03 -1.11447E+04 -7.53109E+03  5.59218E+03 -1.11115E+04  1.90325E+04  5.50746E+03
  1.46525E+04  2.24315E+04 -5.33144E+03  2.64756E+04 -2.29917E+04  1.38426E+04 -3.08044E+04 -3.23522E+03
 -2.44866E+04 -1.78946E+04 -1.10472E+04 -2.39302E+04  4.65157E+03 -2.47302E+04  1.91105E+04 -2.22084E+04
  3.12538E+04 -1.40196E+04  3.71162E+04  4.35871E+03  2.68054E+04  2.34311E+04  4.95073E+03  4.03759E+04
 -1.95140E+04  3.30863E+04 -3.00683E+04  1.18524E+04 -2.22116E+04 -1.01957E+04 -4.81796E+03 -1.30069E+04
  1.11733E+03 -1.25228E+03 -7.06397E+03  7.89185E+03 -1.95857E+04  5.35649E+03 -1.92101E+04 -9.11907E+03
 -1.16117E+04 -2.26573E+04  5.92277E+03 -2.67414E+04  1.83511E+04 -1.90914E+04  2.15507E+04 -1.63304E+03
  1.37531E+04  1.54522E+04 -1.45086E+03  2.26880E+04 -1.58926E+04  1.25977E+04 -2.27545E+04 -4.84499E+03
 -1.65801E+04 -2.04229E+04 -2.01113E+03 -2.76108E+04  1.19885E+04 -2.27259E+04  2.24942E+04 -1.16699E+04
  2.12971E+04  2.25447E+01  1.52528E+04  5.08150E+03  8.69965E+03  1.39698E+03  1.16910E+04 -2.01915E+03
  2.11715E+04  2.54022E+03  2.42263E+04  1.79022E+04  1.64808E+04  3.63270E+04 -2.46128E+03  4.24357E+04
 -2.41841E+04  3.55851E+04 -3.97679E+04  1.80070E+04 -4.27594E+04 -2.76726E+03 -3.46342E+04 -2.53887E+04
 -1.40359E+04 -3.55588E+04  1.21351E+04 -3.11967E+04  2.66902E+04 -1.45292E+04  2.29631E+04  7.61103E+03
  7.84685E+03  1.79147E+04 -1.08990E+04  1.48619E+04 -1.99716E+04  2.89324E+03 -1.49521E+04 -1.23359E+04
 -2.03364E+02 -1.88580E+04  1.02519E+04 -1.38465E+04  1.31165E+04 -1.18827E+03  3.49084E+03  8.35322E+03
 -8.17489E+03  3.70628E+03 -8.59235E+03 -6.89795E+03 -1.42523E+03 -1.73129E+04  1.16049E+04 -1.85556E+04
  2.18137E+04 -1.07683E+04  2.48926E+04  3.39463E+03  2.17721E+04  1.77484E+04  1.01191E+04  2.75869E+04
 -4.93406E+03  2.96765E+04 -1.93707E+04  1.86519E+04 -2.13597E+04  3.94446E+03 -1.47367E+04 -5.76656E+03
 -6.03280E+03 -7.31915E+03 -5.15360E+02  3.46447E+02 -2.73693E+03  3.33540E+03 -7.11786E+03  5.26792E+03
 -1.36535E+04 -6.74741E+02 -1.47308E+04 -1.15367E+04 -5.59644E+03 -1.89016E+04  6.09800E+03 -1.51326E+04
  1.22001E+04 -6.22591E+03  8.99080E+03  4.39063E+03 -8.57206E+01  6.20913E+03 -7.63625E+03  3.16525E+01
 -7.19390E+03 -9.55641E+03 -8.08305E+02 -1.49453E+04  8.53578E+03 -1.54931E+04  1.88824E+04 -8.55521E+03
  2.22504E+04  2.54760E+03  1.69751E+04  1.36693E+04  3.51684E+03  1.80323E+04 -9.25032E+03  1.46651E+04
 -1.20158E+04  4.23462E+03 -5.95331E+03 -2.89132E+03  2.18373E+03 -4.24016E+03  7.91388E+03 -8.12048E+02
  7.35700E+03  6.84195E+03  1.18477E+03  1.18814E+04 -8.75347E+03  1.17221E+04 -1.50512E+04  2.50100E+03
 -1.00570E+04 -7.95266E+03  1.50600E+02 -1.25646E+04  8.36475E+03 -6.64088E+03  8.96310E+03  2.98940E+03
  2.37707E+03  9.55150E+03 -7.75861E+03  1.10442E+04 -1.26723E+04  4.92401E+03 -1.26141E+04 -4.48966E+03
 -7.29917E+03 -1.49436E+04  3.37402E+03 -1.72191E+04  1.48690E+04 -1.04730E+04  1.58301E+04  3.09291E+03
  9.38654E+03  1.27258E+04 -1.23734E+03  1.46318E+04 -1.09626E+04  8.58783E+03 -1.21482E+04 -1.13960E+03
 -1.04919E+04 -9.95192E+03 -1.52820E+03 -1.12926E+04  6.15186E+03 -8.96080E+03  7.35579E+03 -3.88024E+03
  4.92079E+03  1.88437E+03 -1.09893E+03  1.84547E+03 -4.47393E+02 -2.48202E+03  2.32406E+03 -6.89897E+03
  1.08165E+04 -4.49453E+03  1.50370E+04  1.69178E+03  1.47401E+04  1.05407E+04  9.65508E+03  1.98934E+04
 -4.57562E+03  2.27899E+04 -1.84311E+04  1.67538E+04 -2.48497E+04  3.26648E+03 -1.94457E+04 -8.68024E+03
 -9.79117E+03 -1.62129E+04 -3.02019E+02 -1.37436E+04  4.76669E+03 -7.53552E+03  5.03425E+03 -4.69255E+03
  3.77406E+03 -2.67428E+03  3.69228E+03 -3.57116E+03  6.01298E+03 -3.16863E+03  7.54831E+03 -1.10799E+03
  1.01498E+04  2.36298E+03  5.47129E+03  8.64003E+03 -2.15401E+03  1.06475E+04 -1.09610E+04  8.19431E+03
 -1.42260E+04 -1.09185E+03 -9.05373E+03 -9.55721E+03 -8.44358E+02 -1.50423E+04  8.14927E+03 -1.48008E+04
  1.55227E+04 -8.04401E+03  1.84472E+04  2.27930E+03  1.31401E+04  1.29450E+04  2.12269E+03  1.67867E+04
 -6.80336E+03  1.35268E+04 -1.01216E+04  5.14998E+03 -6.26280E+03 -2.05601E+03 -2.64165E+03 -1.99567E+03
 -1.49020E+03  4.01079E+02 -2.21546E+03  2.86812E+03 -5.68416E+03  2.44326E+03 -9.54457E+03 -1.40132E+03
 -7.05570E+03 -9.50177E+03  5.71828E+01 -1.37723E+04  8.53171E+03 -1.28748E+04  1.37439E+04 -3.86148E+03
  1.36506E+04  6.95614E+03  6.54040E+03  1.20895E+04 -2.51278E+03  1.40547E+04 -1.03926E+04  8.71934E+03
 -1.31215E+04  2.27876E+02 -1.03090E+04 -8.31009E+03 -7.60863E+02 -1.17423E+04  6.21517E+03 -8.51602E+03
  9.25061E+03 -3.15931E+03  6.41443E+03  2.20753E+03  2.39022E+03  3.89741E+03  1.28804E+03  1.85858E+03
  2.58061E+03  7.01126E+02  3.44894E+03  1.77357E+03  3.79610E+03  5.15007E+03  3.21509E+03  7.22721E+03
 -3.15087E+03  1.08966E+04 -9.58748E+03  1.12898E+04 -1.46416E+04  2.77966E+03 -1.47537E+04 -5.76685E+03
 -7.20594E+03 -1.37533E+04  2.00574E+03 -1.54655E+04  8.30445E+03 -9.69675E+03  1.16245E+04 -2.52882E+03
  9.10712E+03  5.03169E+03  1.85369E+03  8.39070E+03 -3.91053E+03  5.13867E+03 -5.53752E+03 -6.99401E+02
 -2.64537E+03 -5.86201E+03  3.40766E+03 -6.23233E+03  6.24549E+03 -3.34823E+03  5.79355E+03  1.32581E+03
  3.24988E+03  2.88437E+03  1.58792E+03  2.90214E+03 -7.87733E+02  2.27709E+03  1.48417E+03 -3.45978E+01
  2.63063E+03 -9.93861E+02  6.21927E+03  2.06659E+03  3.25265E+03  7.37252E+03 -1.30207E+03  1.02479E+04
 -7.18302E+03  6.44636E+03 -9.00445E+03  2.05668E+03 -8.37045E+03 -3.20055E+03 -2.75317E+03 -5.52920E+03
  7.35474E+02 -5.57284E+03  3.66185E+03 -2.69373E+03  3.55252E+03  2.90346E+03 -1.50132E+03  4.64711E+03
 -5.65981E+03  2.81401E+03 -6.38041E+03 -3.02618E+03 -3.95260E+03 -7.76414E+03  1.48364E+03 -7.67880E+03
  4.51825E+03 -4.43503E+03  5.73971E+03 -3.12356E+02  4.76215E+03  2.13049E+03  8.03478E+02  4.56298E+03
 -2.59048E+03  1.25911E+03 -3.65224E+03 -2.57124E+03  1.63038E+03 -6.04785E+03  7.30899E+03 -4.94659E+03
  9.18917E+03  4.47209E+02  9.09274E+03  6.14298E+03  2.79375E+03  9.56153E+03 -3.09077E+03  8.52345E+03
 -7.46968E+03  4.07464E+03 -7.81392E+03 -1.14626E+03 -4.27703E+03 -5.68524E+03  1.45869E+03 -5.31810E+03
  5.90946E+03 -3.11304E+03  5.16100E+03  2.46100E+03  1.51849E+03  5.04027E+03 -4.99180E+02  4.46646E+03
 -2.62212E+03  2.68441E+03 -1.85431E+03  1.05000E+03 -8.30965E+02  7.93375E+02 -1.97055E+03  1.83286E+03
 -2.15401E+03  3.23881E+03 -6.44043E+03  3.38121E+03 -9.61866E+03  4.57433E+02 -1.07031E+04 -6.40859E+03
 -5.70842E+03 -1.29429E+04  2.25610E+03 -1.43600E+04  8.72709E+03 -1.10715E+04  1.38200E+04 -4.49235E+03
  1.24392E+04  2.49013E+03  7.91158E+03  8.93740E+03  5.64949E+02  1.00270E+04 -3.80348E+03  7.21128E+03
 -5.44601E+03  2.89354E+03 -3.21186E+03 -1.32984E+03 -9.75762E+02 -7.45159E+02 -5.50897E+02 -2.58390E+02
 -1.69881E+03  3.89248E+02 -1.98663E+03 -3.03018E+02 -8.40579E+02 -2.54149E+03  4.33475E+02 -3.89722E+03
  4.09680E+03 -3.14831E+03  6.22331E+03 -9.15703E+01  6.97738E+03  5.19399E+03  1.65036E+03  9.59052E+03
 -4.75061E+03  1.15301E+04 -1.04220E+04  6.23575E+03 -1.20560E+04 -1.06090E+03 -8.83060E+03 -7.27155E+03
 -3.51057E+03 -9.99462E+03  2.24732E+03 -9.01300E+03  6.12689E+03 -4.68851E+03  6.59569E+03  3.29983E+02
  3.71225E+03  3.01796E+03  3.76155E+01  2.42673E+03 -1.74593E+03  9.85645E+01  2.42764E+02 -2.41589E+03
  3.15988E+03 -1.32875E+03  3.91325E+03  1.58415E+03  2.32396E+03  4.08334E+03  2.94557E+02  5.41416E+03
 -4.27814E+03  4.53344E+03 -6.26519E+03  4.10147E+02 -5.85576E+03 -4.89302E+03 -8.25985E+02 -8.68766E+03
  4.92177E+03 -6.79874E+03  7.53297E+03 -2.04215E+03  7.50101E+03  1.86027E+03  4.29501E+03  6.39069E+03
  1.02234E+03  6.76897E+03 -2.41788E+03  5.67614E+03 -4.23376E+03  2.67442E+03 -3.25081E+03  4.59173E+02
 -1.69460E+03 -5.15994E+02 -1.79438E+03  4.02917E+02 -3.40430E+03  1.37619E+03 -5.06343E+03 -1.20912E+03
 -5.15658E+03 -3.77201E+03 -1.67172E+03 -6.76813E+03  3.23762E+03 -7.67975E+03  5.89095E+03 -3.53766E+03
  6.64157E+03  7.96657E+02  3.33797E+03  4.49529E+03 -7.81716E+02  6.74806E+03 -5.38280E+03  4.83346E+03
