 $NMID ID='MM_0lb_SNR800_19hz_g60_76.RAW', FMTDAT='(8E13.5)'
 TRAMP=1., VOLUME=1. $END
  3.09952E+05  4.03155E+02  3.37565E+05  2.50682E+05  8.45765E+04  3.37727E+05 -1.32300E+05  2.50800E+05
 -1.89933E+05  8.29902E+04 -1.11388E+05 -3.24806E+04  7.36917E+02 -5.04023E+04  5.39818E+04 -1.64740E+02
  3.55655E+04  5.28478E+04 -1.65887E+04  7.51800E+04 -6.05429E+04  6.33076E+04 -8.36443E+04  3.20453E+04
 -8.05551E+04 -1.12312E+04 -5.68482E+04 -5.07792E+04 -1.49279E+04 -6.92935E+04  2.71481E+04 -4.53717E+04
  3.96471E+04  3.81878E+03  1.57008E+04  4.74410E+04 -3.41632E+04  4.70320E+04 -6.63040E+04 -4.19143E+02
 -5.28840E+04 -5.62846E+04 -6.77034E+03 -7.61568E+04  3.34706E+04 -5.40417E+04  4.72957E+04 -1.68392E+04
  4.25153E+04  1.13196E+04  3.12637E+04  2.47351E+04  1.56892E+04  2.89666E+04 -4.72810E+03  2.70362E+04
 -2.19714E+04  1.24138E+04 -1.88103E+04 -4.79889E+03  4.94348E+03 -7.53798E+03  2.17975E+04  1.15871E+04
  7.09223E+03  3.44716E+04 -3.12390E+04  3.45546E+04 -6.25497E+04  2.41613E+03 -5.64056E+04 -4.18597E+04
 -1.23137E+04 -6.19909E+04  3.90316E+04 -4.42016E+04  5.69118E+04 -2.07989E+03  3.32394E+04  3.14259E+04
 -6.33339E+03  3.46300E+04 -2.92475E+04  1.47465E+04 -2.87733E+04 -4.85878E+03 -1.55727E+04 -1.05924E+04
 -7.99162E+03 -1.24477E+04 -8.08253E+02 -1.72695E+04  7.11346E+03 -2.29550E+04  1.50053E+04 -1.36542E+04
  1.18180E+04  4.82213E+03 -7.16708E+03  1.30727E+04 -2.04533E+04 -3.52894E+03 -8.43619E+03 -3.17665E+04
  2.18372E+04 -4.18670E+04  4.65201E+04 -1.89503E+04  4.33278E+04  1.86149E+04  1.48892E+04  4.28127E+04
 -1.56463E+04  3.21705E+04 -2.44821E+04  1.46133E+03 -8.85876E+03 -2.69970E+04  2.09882E+04 -3.24850E+04
  3.94364E+04 -7.92082E+03  3.28926E+04  2.31894E+04  1.66243E+04  4.41537E+04 -7.80252E+03  4.73294E+04
 -2.98427E+04  3.13072E+04 -3.92987E+04  8.96485E+03 -3.99045E+04 -1.56466E+04 -2.18889E+04 -3.56782E+04
  7.25900E+03 -3.56932E+04  3.00843E+04 -1.34630E+04  2.75714E+04  1.06809E+04  3.09689E+03  1.82772E+04
 -1.32134E+04  7.82157E+03 -9.97273E+03 -7.71131E+03  5.69587E+03 -1.05903E+04  1.74526E+04  6.38935E+03
  1.27382E+04  2.16556E+04 -6.43160E+03  2.38720E+04 -2.16557E+04  1.02137E+04 -2.62464E+04 -5.73738E+03
 -1.83139E+04 -1.67842E+04 -6.47056E+03 -1.81381E+04  3.99579E+03 -1.63602E+04  1.36211E+04 -1.57295E+04
  2.30103E+04 -1.20391E+04  2.96871E+04  1.52487E+03  2.22036E+04  1.76616E+04  4.33406E+03  3.38747E+04
 -1.68909E+04  2.88349E+04 -2.64463E+04  9.83010E+03 -1.98795E+04 -1.03727E+04 -4.16464E+03 -1.39214E+04
  1.95451E+03 -4.08116E+03 -3.30814E+03  5.60095E+03 -1.40322E+04  5.15709E+03 -1.45672E+04 -5.70671E+03
 -8.90335E+03 -1.65475E+04  4.84676E+03 -2.04941E+04  1.33188E+04 -1.48196E+04  1.54899E+04 -1.56164E+03
  9.71588E+03  1.12981E+04 -8.98892E+02  1.67406E+04 -1.12771E+04  9.52605E+03 -1.64025E+04 -3.73040E+03
 -1.21651E+04 -1.52833E+04 -1.72198E+03 -2.01408E+04  9.32211E+03 -1.61338E+04  1.71012E+04 -7.75295E+03
  1.54225E+04  3.44428E+02  1.12367E+04  3.83779E+03  5.58273E+03  5.86788E+02  8.02876E+03 -1.32981E+03
  1.48522E+04  2.81871E+03  1.61018E+04  1.32679E+04  1.01307E+04  2.60063E+04 -3.10862E+03  2.82486E+04
 -1.66013E+04  2.19522E+04 -2.63492E+04  1.06622E+04 -2.70081E+04 -1.93043E+03 -2.28801E+04 -1.54322E+04
 -1.04835E+04 -2.19574E+04  7.39775E+03 -2.04972E+04  1.75459E+04 -1.12410E+04  1.62932E+04  4.03157E+03
  6.64202E+03  1.20696E+04 -7.56542E+03  1.08509E+04 -1.41101E+04  2.72919E+03 -1.08822E+04 -8.45778E+03
  1.02203E+02 -1.32067E+04  6.65148E+03 -1.00224E+04  8.75483E+03 -1.61479E+03  1.47484E+03  5.39979E+03
 -5.66467E+03  1.93903E+03 -3.91007E+03 -4.69763E+03  4.31552E+02 -1.09500E+04  8.11707E+03 -1.09232E+04
  1.29397E+04 -5.05665E+03  1.30229E+04  2.77962E+03  1.11711E+04  1.00938E+04  5.31428E+03  1.49026E+04
 -2.09340E+03  1.70689E+04 -1.05641E+04  1.06837E+04 -1.15358E+04  3.32365E+03 -8.97970E+03 -2.12210E+03
 -4.53478E+03 -3.53058E+03 -1.07888E+03  1.71238E+03 -2.12666E+03  2.11054E+03 -3.89422E+03  3.76424E+03
 -8.29681E+03 -7.55548E+02 -9.27466E+03 -7.48761E+03 -3.91841E+03 -1.19238E+04  3.58033E+03 -8.83278E+03
  7.87503E+03 -3.87818E+03  5.33211E+03  2.03998E+03  4.36507E+02  3.14575E+03 -3.69769E+03 -1.02944E+02
 -3.38626E+03 -5.22215E+03 -8.12383E+02 -7.89990E+03  4.29843E+03 -8.21616E+03  1.01047E+04 -4.20833E+03
  1.22454E+04  3.90934E+02  9.33052E+03  6.37730E+03  1.79349E+03  8.88036E+03 -5.39578E+03  8.49437E+03
 -7.11307E+03  2.70912E+03 -3.32844E+03 -1.28600E+03  1.12127E+03 -2.13070E+03  5.07228E+03 -9.15523E+02
  4.45835E+03  3.49194E+03  8.95480E+02  6.49365E+03 -4.76909E+03  6.87060E+03 -8.05952E+03  1.89875E+03
 -5.08138E+03 -3.68873E+03  4.32150E+02 -7.05795E+03  4.05344E+03 -3.57318E+03  4.03484E+03  1.06682E+03
  5.96435E+02  3.64277E+03 -4.35347E+03  4.70493E+03 -5.07851E+03  2.43000E+03 -4.68036E+03 -1.38216E+03
 -3.38440E+03 -5.95256E+03  1.07604E+03 -7.59730E+03  6.13687E+03 -4.87296E+03  6.74151E+03  1.06983E+03
  5.11629E+03  5.37795E+03  8.93370E+01  7.40905E+03 -5.02733E+03  4.33853E+03 -5.40449E+03 -5.45853E+02
 -5.71358E+03 -5.02202E+03 -1.33950E+03 -4.97087E+03  2.65816E+03 -4.70896E+03  2.84918E+03 -2.98305E+03
  2.86993E+03  6.85220E+01 -5.29470E+01  1.36283E+03  5.02586E+02 -3.21707E+02  3.17250E+02 -2.00988E+03
  4.05550E+03 -7.38670E+02  5.51530E+03  8.19311E+02  5.55826E+03  3.03508E+03  5.18955E+03  7.51463E+03
 -1.34887E+03  8.85064E+03 -7.57957E+03  6.68408E+03 -1.00628E+04  1.16870E+03 -7.64093E+03 -2.86804E+03
 -4.48940E+03 -6.39894E+03 -4.36725E+02 -5.21751E+03  2.14673E+03 -2.15157E+03  1.97249E+03 -2.37188E+03
  1.20811E+03 -1.30301E+03  2.27403E+03 -2.26299E+03  3.76803E+03 -1.43055E+03  3.83152E+03  3.50173E+02
  4.46431E+03  1.29408E+03  1.24634E+03  3.37797E+03 -1.39991E+03  3.05120E+03 -4.34057E+03  2.62206E+03
 -4.84827E+03 -1.15469E+03 -1.99527E+03 -3.44867E+03  2.26528E+02 -5.15470E+03  3.17335E+03 -5.20271E+03
  5.10297E+03 -3.33252E+03  6.77442E+03  2.36583E+02  4.75271E+03  4.01086E+03  1.10219E+03  5.89860E+03
 -1.95611E+03  5.86064E+03 -3.37558E+03  1.54288E+03 -2.03993E+03 -1.00468E+03 -5.87419E+02 -6.24985E+02
 -4.52824E+02  3.68488E+02 -8.28109E+02  2.01167E+03 -2.35008E+03  8.78085E+02 -4.19756E+03 -2.45879E+02
 -1.47688E+03 -4.05696E+03  7.13572E+02 -4.36128E+03  2.77683E+03 -3.99723E+03  3.65869E+03 -9.46012E+02
  3.99445E+03  2.45376E+03  1.75561E+03  3.29813E+03 -5.65045E+02  4.29132E+03 -2.80473E+03  2.71465E+03
 -3.53907E+03  5.75713E+02 -3.11071E+03 -2.23740E+03 -1.49888E+01 -3.08544E+03  1.48278E+03 -2.24507E+03
  2.69779E+03 -1.29670E+03  1.76156E+03  3.05894E+02  3.93908E+02  1.43011E+03  7.06723E+02  2.85523E+02
  1.65583E+03  6.32437E+02  1.08793E+03  9.98582E+02  8.03874E+02  2.26166E+03  1.41302E+03  1.56250E+03
 -1.15151E+03  2.47472E+03 -2.47047E+03  4.09078E+03 -2.88031E+03  1.43351E+03 -3.77785E+03 -2.67602E+02
 -1.55692E+03 -3.60034E+03  3.43507E+02 -4.33111E+03  1.63919E+03 -2.44116E+03  2.99141E+03 -8.67593E+02
  2.12936E+03  1.88389E+03  4.43149E+02  2.29874E+03 -7.39960E+02  1.20667E+03 -9.47068E+02 -2.78084E+02
 -5.70199E+02 -1.36107E+03  9.97880E+02 -1.45389E+03  1.20613E+03 -8.34735E+02  1.41675E+03  2.32729E+02
  6.72952E+02  9.54265E+01  8.31294E+02 -2.78160E+02 -4.13438E+02  5.65397E+02  1.57420E+03 -2.63610E+01
 -1.68194E+01 -2.11399E+02  1.46179E+03  6.65894E+02  1.41130E+02  2.17195E+03 -1.33592E+02  2.52772E+03
 -1.73328E+03  7.86256E+02 -1.77332E+03  4.42018E+02 -2.13840E+03 -6.67375E+02  9.59061E+01 -9.81198E+02
  5.33439E+02 -1.05551E+03  6.34322E+02 -7.98329E+02  8.73142E+02  8.66120E+02 -5.40584E+02  7.47621E+02
 -1.35627E+03  6.43181E+02 -1.04032E+03 -1.29352E+03 -5.73573E+02 -1.95716E+03  1.60582E+02 -1.56456E+03
  1.22733E+02 -1.51125E+02  6.65710E+02 -8.98696E+01  1.39075E+03 -1.70969E+02  2.26090E+02  1.25027E+03
 -9.06926E+01 -9.72644E+01 -8.10797E+02 -4.65730E+01  8.50262E+02 -7.20408E+02  1.47057E+03 -9.14756E+02
  1.21279E+03  7.06532E+01  2.60089E+03  7.32283E+02  1.18317E+03  1.62483E+03 -1.34755E+02  1.63444E+03
 -1.47344E+03  9.39315E+01 -1.21647E+03  5.70483E+00 -8.44878E+02 -9.84770E+02 -8.72223E+01 -6.86331E+02
  1.44421E+03 -9.23536E+02  6.52555E+02  3.50266E+02 -3.96831E+01  1.17672E+03  4.10676E+02  1.00963E+03
 -3.80618E+02  1.11116E+03 -1.73251E+02  8.78991E+01  8.15412E+01  3.58086E+02 -8.85806E+02  4.73714E+02
 -3.83757E+02  7.70920E+02 -1.64689E+03  3.40348E+02 -1.24990E+03  1.98287E+02 -2.24141E+03 -9.83015E+02
 -7.17368E+02 -1.89109E+03  4.63715E+02 -2.40506E+03  8.69298E+02 -2.09752E+03  2.20052E+03 -8.11207E+02
  2.15924E+03 -1.66070E+02  8.06941E+02  1.44469E+03 -5.89235E+02  1.25310E+03 -5.58241E+02  1.19128E+03
 -8.31670E+02  6.70219E+02 -3.71325E+02 -2.18954E+02 -4.94471E+02  3.40570E+02 -6.39379E+02  6.70213E+01
 -7.86332E+02  5.66201E+01 -8.01112E+02 -9.48735E+01  1.85822E+02 -3.17170E+02 -4.68693E+02 -7.97502E+02
  9.90290E+02 -3.96415E+02  1.35316E+02  9.66071E+01  7.49023E+02  1.08887E+03 -3.72075E+02  1.05248E+03
 -7.85136E+02  1.79953E+03 -1.40559E+03  1.30644E+03 -1.29712E+03 -3.60620E+02 -9.28150E+02 -1.12584E+03
 -8.81811E+02 -1.11839E+03  8.30132E+01 -1.22122E+03  3.94044E+02 -1.26479E+02  3.24712E+02 -2.96851E+01
  5.35394E+02  4.06865E+02 -1.69446E+02  5.45293E+02 -4.01089E+02  1.38818E+02  1.55238E+02 -8.33906E+01
  7.22293E+01  2.46171E+02  9.15082E+01  4.84241E+02 -2.60706E+02  2.99747E+02  3.41340E+02 -1.47199E+02
 -5.49798E+02  4.35841E+02 -2.58962E+02  1.47374E+02 -8.06347E+02 -5.54060E+02  1.64455E+01 -7.45072E+02
  4.63908E+02 -2.90728E+02  2.01405E+02  1.60402E+02  4.22983E+02 -5.16173E+02  4.96434E+02  5.06392E+02
  5.53662E+02  1.83345E+02 -1.42504E+02  3.71820E+02 -3.70251E+02  4.62793E+02 -5.53851E+02  3.77571E+02
 -1.90649E+01 -3.36308E+01 -2.78394E+02  1.59411E+02 -3.90543E+02  2.96655E+02 -6.18749E+02 -3.14360E+02
 -9.37118E+02  1.99413E+02 -1.90025E+02 -5.43067E+02  4.29697E+02 -1.29906E+03  4.91837E+02 -1.51031E+02
  7.49898E+02 -8.65022E+01 -6.31106E+02  9.02061E+01  1.89235E+02  7.25299E+02 -3.13578E+02  6.59971E+02
