 $NMID ID='MM_0lb_SNR800_18hz_g55_69.RAW', FMTDAT='(8E13.5)'
 TRAMP=1., VOLUME=1. $END
  3.09812E+05  3.83423E+02  3.37533E+05  2.50445E+05  8.43944E+04  3.37806E+05 -1.32683E+05  2.50740E+05
 -1.90137E+05  8.28764E+04 -1.11287E+05 -3.24494E+04  1.56684E+03 -5.03357E+04  5.40867E+04  1.17860E+02
  3.52402E+04  5.22618E+04 -1.70052E+04  7.53140E+04 -6.05104E+04  6.32818E+04 -8.36779E+04  3.17486E+04
 -8.02291E+04 -1.14446E+04 -5.68295E+04 -5.06577E+04 -1.49910E+04 -6.88898E+04  2.67880E+04 -4.52980E+04
  3.92828E+04  4.11374E+03  1.57456E+04  4.74091E+04 -3.42606E+04  4.66258E+04 -6.61510E+04 -4.47435E+02
 -5.27187E+04 -5.63849E+04 -6.26611E+03 -7.61750E+04  3.35461E+04 -5.42567E+04  4.72028E+04 -1.66877E+04
  4.24119E+04  1.12628E+04  3.14848E+04  2.50390E+04  1.57439E+04  2.86583E+04 -5.06550E+03  2.68866E+04
 -2.19861E+04  1.21333E+04 -1.90957E+04 -4.52307E+03  4.76911E+03 -7.71623E+03  2.12503E+04  1.16164E+04
  7.24442E+03  3.41835E+04 -3.11917E+04  3.47119E+04 -6.19987E+04  2.08864E+03 -5.60630E+04 -4.19760E+04
 -1.20641E+04 -6.19106E+04  3.90758E+04 -4.43621E+04  5.67500E+04 -2.11018E+03  3.26836E+04  3.14166E+04
 -6.12374E+03  3.43262E+04 -2.94596E+04  1.46063E+04 -2.86796E+04 -4.78269E+03 -1.52879E+04 -1.03278E+04
 -8.00961E+03 -1.20619E+04 -9.22194E+02 -1.72659E+04  6.97792E+03 -2.27743E+04  1.49058E+04 -1.36104E+04
  1.16214E+04  4.78876E+03 -7.35510E+03  1.30212E+04 -2.01406E+04 -2.98364E+03 -7.96566E+03 -3.16867E+04
  2.12567E+04 -4.19049E+04  4.60544E+04 -1.94221E+04  4.29124E+04  1.85104E+04  1.49193E+04  4.28390E+04
 -1.54287E+04  3.21955E+04 -2.39859E+04  1.50543E+03 -8.72421E+03 -2.71640E+04  2.07041E+04 -3.20769E+04
  3.91919E+04 -7.98733E+03  3.32168E+04  2.34483E+04  1.64057E+04  4.40336E+04 -7.89480E+03  4.72126E+04
 -2.97104E+04  3.12681E+04 -3.91781E+04  9.10385E+03 -4.00260E+04 -1.57532E+04 -2.19521E+04 -3.59339E+04
  7.32561E+03 -3.56962E+04  3.00485E+04 -1.34171E+04  2.80150E+04  1.09171E+04  2.95913E+03  1.86884E+04
 -1.31636E+04  7.66364E+03 -9.74488E+03 -7.49275E+03  5.99062E+03 -1.07431E+04  1.75899E+04  6.21387E+03
  1.26840E+04  2.16541E+04 -6.49102E+03  2.38172E+04 -2.17496E+04  9.97080E+03 -2.59260E+04 -5.40060E+03
 -1.79571E+04 -1.65558E+04 -6.83664E+03 -1.81095E+04  4.03261E+03 -1.65673E+04  1.34479E+04 -1.58645E+04
  2.30389E+04 -1.22298E+04  2.95885E+04  1.70574E+03  2.23224E+04  1.75642E+04  4.10324E+03  3.37216E+04
 -1.66644E+04  2.84221E+04 -2.65274E+04  9.78982E+03 -2.00628E+04 -1.03248E+04 -3.87147E+03 -1.36355E+04
  2.28590E+03 -3.55042E+03 -3.58954E+03  5.85309E+03 -1.41080E+04  5.14169E+03 -1.40503E+04 -5.79404E+03
 -9.33242E+03 -1.67037E+04  4.67372E+03 -2.02342E+04  1.35756E+04 -1.49670E+04  1.59224E+04 -1.38383E+03
  9.89217E+03  1.14803E+04 -1.10750E+03  1.66375E+04 -1.11770E+04  9.71873E+03 -1.67605E+04 -3.56580E+03
 -1.23917E+04 -1.50554E+04 -1.59332E+03 -2.02154E+04  9.20929E+03 -1.64159E+04  1.70150E+04 -7.75823E+03
  1.53687E+04  5.07470E+02  1.13013E+04  3.98846E+03  5.85404E+03  7.78068E+02  8.12067E+03 -1.33533E+03
  1.49403E+04  2.65478E+03  1.59020E+04  1.33057E+04  1.00041E+04  2.64287E+04 -3.10937E+03  2.86689E+04
 -1.66622E+04  2.20984E+04 -2.65155E+04  1.10492E+04 -2.74148E+04 -1.88571E+03 -2.34775E+04 -1.60580E+04
 -1.06771E+04 -2.25897E+04  7.45087E+03 -2.07221E+04  1.79722E+04 -1.15702E+04  1.68093E+04  4.10254E+03
  6.73918E+03  1.21222E+04 -7.41724E+03  1.09352E+04 -1.42578E+04  2.54901E+03 -1.07127E+04 -8.62692E+03
 -1.26204E+02 -1.31834E+04  6.33890E+03 -9.77046E+03  8.41056E+03 -1.36370E+03  1.70833E+03  5.58705E+03
 -6.01915E+03  1.64172E+03 -4.54692E+03 -4.94924E+03  4.53954E+02 -1.13579E+04  8.29335E+03 -1.08970E+04
  1.34771E+04 -5.44683E+03  1.33415E+04  3.00103E+03  1.18802E+04  1.03803E+04  5.65373E+03  1.55812E+04
 -2.09977E+03  1.75184E+04 -1.10380E+04  1.11149E+04 -1.25961E+04  2.92918E+03 -9.23318E+03 -2.27147E+03
 -4.63173E+03 -3.77461E+03 -8.88419E+02  1.47250E+03 -2.02090E+03  2.18657E+03 -4.07031E+03  4.02908E+03
 -8.69830E+03 -3.99978E+02 -9.28551E+03 -7.62627E+03 -3.81730E+03 -1.21891E+04  3.73387E+03 -9.06808E+03
  7.70926E+03 -3.81104E+03  5.69830E+03  2.32836E+03  6.01284E+02  3.38736E+03 -3.61339E+03 -1.48330E+02
 -3.65683E+03 -5.34498E+03 -8.63041E+02 -7.93261E+03  4.31633E+03 -8.90317E+03  1.08813E+04 -4.28728E+03
  1.29484E+04  5.86899E+02  9.47275E+03  6.96799E+03  1.94866E+03  9.52675E+03 -5.76390E+03  8.90099E+03
 -7.18312E+03  3.01468E+03 -3.70626E+03 -1.31977E+03  1.19698E+03 -2.34311E+03  5.05237E+03 -7.20103E+02
  4.41187E+03  3.77180E+03  1.31699E+03  7.15203E+03 -4.54195E+03  7.05156E+03 -8.35703E+03  1.71300E+03
 -5.28154E+03 -4.22233E+03  3.64013E+02 -7.13914E+03  3.88816E+03 -3.62523E+03  4.04933E+03  1.22903E+03
  5.00109E+02  3.94167E+03 -4.02841E+03  5.60442E+03 -5.75105E+03  2.57907E+03 -5.07251E+03 -1.47817E+03
 -3.27670E+03 -6.88227E+03  1.52333E+03 -8.15540E+03  6.65206E+03 -5.03639E+03  7.20006E+03  1.15409E+03
  4.95066E+03  5.82768E+03  1.03768E+02  7.83906E+03 -5.75745E+03  4.43597E+03 -6.06788E+03 -6.31102E+02
 -6.19401E+03 -5.64001E+03 -1.10841E+03 -5.64100E+03  2.88922E+03 -5.03949E+03  3.60382E+03 -2.79666E+03
  3.19979E+03  3.83863E+02 -9.10552E+01  1.29223E+03  5.20187E+02 -6.91001E+02  5.77245E+02 -2.00329E+03
  4.41475E+03 -9.54705E+02  5.93602E+03  8.24215E+02  6.28264E+03  3.59740E+03  5.55921E+03  8.29813E+03
 -1.60253E+03  9.36185E+03 -8.12588E+03  7.32110E+03 -1.05905E+04  1.06880E+03 -8.66830E+03 -3.08805E+03
 -4.72186E+03 -7.08080E+03 -5.56034E+02 -5.89879E+03  2.18915E+03 -2.76749E+03  2.27933E+03 -2.44854E+03
  1.28842E+03 -1.59410E+03  2.21589E+03 -2.56143E+03  3.56026E+03 -1.49993E+03  3.91784E+03  8.53581E+02
  4.89067E+03  1.03988E+03  1.52269E+03  3.63710E+03 -1.67255E+03  3.22323E+03 -4.92574E+03  2.86900E+03
 -5.56939E+03 -1.20226E+03 -2.09190E+03 -3.74570E+03 -5.59128E+01 -5.76625E+03  3.68187E+03 -5.97582E+03
  5.60051E+03 -3.52537E+03  7.32804E+03  3.02006E+02  5.33194E+03  4.39241E+03  1.21306E+03  6.65744E+03
 -2.48847E+03  6.41838E+03 -3.84727E+03  2.25790E+03 -2.14614E+03 -9.19740E+02 -5.84295E+02 -6.97423E+02
 -5.30574E+02  4.92092E+02 -1.38952E+03  2.04980E+03 -2.77148E+03  1.03023E+03 -4.53509E+03 -2.20406E+02
 -1.93783E+03 -4.42496E+03  8.39732E+02 -5.19868E+03  3.07058E+03 -4.83272E+03  4.10379E+03 -1.20506E+03
  4.35451E+03  2.34988E+03  2.17988E+03  3.68783E+03 -8.41360E+02  4.89878E+03 -3.01710E+03  3.01522E+03
 -4.24660E+03  8.52090E+02 -3.62599E+03 -2.67341E+03  3.59668E+01 -3.70560E+03  1.67106E+03 -2.83718E+03
  2.68436E+03 -1.50618E+03  1.86551E+03  7.28258E+02  5.47801E+02  1.85651E+03  1.12412E+03  2.39673E+02
  1.59750E+03  5.45455E+02  1.13443E+03  1.04514E+03  1.57408E+03  2.14516E+03  1.59037E+03  2.13095E+03
 -1.63479E+03  3.21962E+03 -3.16755E+03  4.37328E+03 -3.56519E+03  1.67988E+03 -4.74407E+03 -8.10584E+02
 -1.57931E+03 -3.95224E+03  7.56225E+02 -5.26351E+03  2.47795E+03 -2.67353E+03  3.48201E+03 -1.13997E+03
  2.81105E+03  1.81486E+03  5.05992E+02  2.28567E+03 -5.68250E+02  1.35938E+03 -1.14603E+03 -3.97182E+02
 -7.85450E+02 -1.64531E+03  1.49255E+03 -1.62180E+03  1.67318E+03 -1.11676E+03  1.46688E+03  5.25840E+02
  7.72032E+02  5.45395E+02  9.29646E+02 -3.25052E+02 -4.63086E+02  6.60697E+02  1.61724E+03 -4.73036E+02
  1.75042E+02 -2.23131E+02  1.94388E+03  6.96336E+02  4.58163E+02  2.49067E+03 -8.87769E+01  3.21986E+03
 -1.83620E+03  1.30712E+03 -2.26707E+03  4.31190E+02 -2.29934E+03 -8.78819E+02 -1.91802E+02 -9.20168E+02
  3.61496E+02 -1.41090E+03  9.66136E+02 -7.97993E+02  9.48609E+02  1.32628E+03 -8.96691E+02  8.88997E+02
 -1.43464E+03  9.87215E+02 -1.33802E+03 -1.24927E+03 -6.86451E+02 -2.35963E+03  1.11911E+02 -1.62343E+03
  7.56341E+02 -6.67481E+02  1.27005E+03  4.74520E+02  1.43915E+03 -2.95191E+02  2.51362E+02  9.84758E+02
 -5.54827E+02  4.01442E+02 -9.70889E+02 -3.08209E+02  5.72726E+02 -1.19470E+03  1.62923E+03 -1.18365E+03
  1.53031E+03  2.23147E+02  2.92194E+03  6.85406E+02  1.11136E+03  2.04093E+03 -4.78770E+02  1.78673E+03
 -1.43015E+03  5.11745E+02 -1.83840E+03  7.05372E+01 -1.12159E+03 -1.71533E+03 -1.45879E+02 -5.62896E+02
  1.88250E+03 -7.62363E+02  7.96736E+02  7.34098E+02  6.01201E+01  1.71529E+03  2.02341E+02  1.07863E+03
 -8.79507E+00  1.15210E+03 -3.31608E+02  1.35842E+02  5.60088E+01  6.07513E+02 -5.12174E+02  5.38013E+02
 -8.22101E+02  9.71378E+02 -1.83965E+03  4.09115E+02 -1.68979E+03  3.33015E+01 -2.38340E+03 -9.29287E+02
 -1.13467E+03 -2.34172E+03  5.47336E+02 -3.25670E+03  1.29428E+03 -2.57563E+03  3.15974E+03 -1.35401E+03
  2.51796E+03  4.32140E+01  1.22914E+03  1.46114E+03 -4.81405E+02  1.58135E+03 -7.37370E+02  1.21565E+03
 -8.95837E+02  8.96804E+02 -4.01483E+02  7.25523E+01 -6.50651E+02  5.63378E+02 -7.07655E+02  1.41676E+02
 -1.04058E+03 -1.00828E+02 -9.34047E+02  8.89852E+01  1.98581E+01 -6.48736E+02 -5.09857E+02 -6.95582E+02
  1.58294E+03 -7.19462E+02  7.32885E+02  4.42801E+02  1.06776E+03  1.09642E+03 -3.09597E+02  1.48201E+03
 -1.36855E+03  2.28016E+03 -1.70648E+03  1.31485E+03 -1.83878E+03 -2.09932E+02 -1.37223E+03 -1.22240E+03
 -7.25077E+02 -1.37938E+03  2.30657E+02 -1.29802E+03  6.68074E+02 -6.83208E+02  6.48191E+02  5.13059E+01
  9.75998E+02  2.76948E+02 -7.25121E+01  5.07731E+02 -3.63181E+02 -1.89438E+01 -2.46724E+02 -1.48391E+02
  5.69127E+02  2.23385E+02  1.32626E+02  4.79094E+02  1.02636E+02  3.32339E+02  5.15973E+02  3.41490E+02
 -5.52826E+02  6.34920E+02 -9.96161E+02  4.37097E+01 -8.84672E+02 -6.55171E+02  1.57032E+02 -1.21695E+03
  8.41870E+02 -8.35585E+02  3.50094E+02 -5.76132E+01  6.49581E+02 -6.18648E+02  1.07811E+02  8.62848E+02
  6.40538E+01  7.46693E+02 -4.86746E+02  8.60651E+02 -6.47098E+02  6.36299E+02 -5.54015E+02  1.91880E+02
  3.16690E+02  1.89644E+02 -6.21496E+02  4.23691E+01 -6.57773E+02 -1.07864E+02 -6.76628E+02 -4.83891E+02
 -1.13156E+03  5.47981E+02 -3.49143E+02 -7.16510E+02  6.75759E+02 -1.53092E+03  7.48782E+02 -3.45618E+02
  9.59794E+02  1.46538E+02 -4.53100E+02  3.84882E+02 -1.40757E+02  9.61752E+02 -4.72017E+02  5.98284E+02
