 $NMID ID='MM_0lb_SNR800_16hz_g55_98.RAW', FMTDAT='(8E13.5)'
 TRAMP=1., VOLUME=1. $END
  3.09918E+05  2.66602E+01  3.37723E+05  2.50621E+05  8.45411E+04  3.37992E+05 -1.32152E+05  2.50860E+05
 -1.90243E+05  8.32433E+04 -1.11514E+05 -3.26525E+04  9.10385E+02 -5.02051E+04  5.40098E+04 -1.23701E+02
  3.54361E+04  5.24567E+04 -1.68769E+04  7.52830E+04 -6.08399E+04  6.34211E+04 -8.40684E+04  3.19423E+04
 -8.07293E+04 -1.12115E+04 -5.70312E+04 -5.12898E+04 -1.49421E+04 -6.95741E+04  2.74339E+04 -4.57158E+04
  3.97820E+04  3.57550E+03  1.59193E+04  4.76981E+04 -3.43135E+04  4.72498E+04 -6.65689E+04 -1.54222E+02
 -5.31478E+04 -5.67102E+04 -6.76431E+03 -7.66103E+04  3.37270E+04 -5.43446E+04  4.75085E+04 -1.68869E+04
  4.29489E+04  1.10900E+04  3.17492E+04  2.51525E+04  1.59560E+04  2.91108E+04 -5.22368E+03  2.71444E+04
 -2.20118E+04  1.26254E+04 -1.88071E+04 -4.99596E+03  5.43410E+03 -7.48399E+03  2.21859E+04  1.21356E+04
  7.49761E+03  3.47260E+04 -3.17620E+04  3.51214E+04 -6.29789E+04  1.90119E+03 -5.68031E+04 -4.25117E+04
 -1.26813E+04 -6.28272E+04  3.95227E+04 -4.49090E+04  5.78034E+04 -2.18433E+03  3.35121E+04  3.22518E+04
 -6.04837E+03  3.53585E+04 -2.95373E+04  1.53554E+04 -2.97990E+04 -4.80147E+03 -1.63787E+04 -1.07389E+04
 -8.13809E+03 -1.29939E+04 -8.38598E+02 -1.77672E+04  7.33440E+03 -2.28545E+04  1.52872E+04 -1.35386E+04
  1.14298E+04  5.25443E+03 -7.59290E+03  1.28079E+04 -2.10207E+04 -3.94504E+03 -8.04846E+03 -3.31916E+04
  2.23808E+04 -4.28232E+04  4.74769E+04 -1.96035E+04  4.44342E+04  1.93163E+04  1.55768E+04  4.36901E+04
 -1.59257E+04  3.30748E+04 -2.51135E+04  1.49725E+03 -9.62486E+03 -2.76695E+04  2.08544E+04 -3.32740E+04
  4.04854E+04 -8.77219E+03  3.48530E+04  2.36182E+04  1.75184E+04  4.58684E+04 -8.19906E+03  4.92304E+04
 -3.11390E+04  3.34001E+04 -4.08675E+04  9.64144E+03 -4.17384E+04 -1.64753E+04 -2.26256E+04 -3.72496E+04
  7.19049E+03 -3.69813E+04  3.09055E+04 -1.40032E+04  2.87145E+04  1.12342E+04  3.68605E+03  1.89002E+04
 -1.34272E+04  8.11775E+03 -1.01915E+04 -7.63988E+03  5.54436E+03 -1.07134E+04  1.78543E+04  6.06424E+03
  1.29492E+04  2.18073E+04 -6.34071E+03  2.46302E+04 -2.21512E+04  1.08151E+04 -2.76746E+04 -5.29828E+03
 -1.96073E+04 -1.70831E+04 -7.78512E+03 -1.97090E+04  3.77234E+03 -1.82131E+04  1.51496E+04 -1.73002E+04
  2.51067E+04 -1.23376E+04  3.14312E+04  2.59348E+03  2.33474E+04  1.88979E+04  3.97652E+03  3.56112E+04
 -1.74478E+04  2.98870E+04 -2.74118E+04  1.03126E+04 -2.02948E+04 -1.04214E+04 -4.15584E+03 -1.35842E+04
  2.00270E+03 -2.81347E+03 -4.44263E+03  6.27125E+03 -1.52151E+04  5.44820E+03 -1.57469E+04 -6.27459E+03
 -9.44080E+03 -1.81129E+04  5.10803E+03 -2.22630E+04  1.46142E+04 -1.60675E+04  1.71708E+04 -1.63085E+03
  1.07966E+04  1.23742E+04 -1.06307E+03  1.82183E+04 -1.22532E+04  1.00062E+04 -1.79019E+04 -3.97877E+03
 -1.34626E+04 -1.62186E+04 -1.69280E+03 -2.19673E+04  9.70097E+03 -1.76945E+04  1.85244E+04 -8.94197E+03
  1.68302E+04  3.81287E+02  1.21717E+04  4.05720E+03  6.43504E+03  9.89916E+02  8.94365E+03 -1.43722E+03
  1.63062E+04  3.03832E+03  1.80855E+04  1.44760E+04  1.15098E+04  2.87171E+04 -2.78721E+03  3.20394E+04
 -1.86957E+04  2.53961E+04 -2.97147E+04  1.24529E+04 -3.07571E+04 -2.02979E+03 -2.59264E+04 -1.78498E+04
 -1.14385E+04 -2.55465E+04  8.63478E+03 -2.32256E+04  1.99175E+04 -1.21643E+04  1.83099E+04  4.89902E+03
  7.06253E+03  1.33818E+04 -8.40230E+03  1.19269E+04 -1.55250E+04  2.69575E+03 -1.18421E+04 -9.55619E+03
 -1.16097E+02 -1.42905E+04  7.37333E+03 -1.09700E+04  9.56046E+03 -1.14186E+03  2.05252E+03  6.13353E+03
 -6.78982E+03  2.73782E+03 -5.44001E+03 -5.49938E+03  1.57202E+02 -1.25694E+04  8.82373E+03 -1.26527E+04
  1.52423E+04 -6.73923E+03  1.61127E+04  2.70452E+03  1.38233E+04  1.22306E+04  6.65402E+03  1.85497E+04
 -2.66091E+03  2.02056E+04 -1.30289E+04  1.28907E+04 -1.44206E+04  3.06021E+03 -1.01963E+04 -3.16180E+03
 -5.01747E+03 -4.54789E+03 -7.83606E+02  9.97408E+02 -2.44004E+03  2.32834E+03 -4.77395E+03  4.01190E+03
 -9.74289E+03 -7.18379E+02 -1.04545E+04 -8.15662E+03 -4.33225E+03 -1.35842E+04  4.29067E+03 -1.02264E+04
  8.88928E+03 -4.21997E+03  5.80850E+03  2.53480E+03  3.37384E+02  3.91626E+03 -4.44813E+03  4.34613E+01
 -4.50381E+03 -6.57990E+03 -9.10493E+02 -9.50156E+03  5.50471E+03 -1.01116E+04  1.26638E+04 -5.11538E+03
  1.48268E+04  1.01828E+03  1.09933E+04  8.18394E+03  2.15441E+03  1.14182E+04 -6.34365E+03  1.02700E+04
 -8.39108E+03  3.17647E+03 -4.40661E+03 -1.59086E+03  1.69515E+03 -2.56405E+03  5.50448E+03 -1.37225E+03
  4.83714E+03  4.26830E+03  1.00251E+03  7.90659E+03 -5.64412E+03  7.93461E+03 -9.87379E+03  2.08037E+03
 -6.60539E+03 -4.57923E+03  4.03274E+02 -7.97104E+03  4.90704E+03 -4.16070E+03  5.01084E+03  1.97403E+03
  8.82153E+02  4.94221E+03 -5.21593E+03  6.80188E+03 -7.08019E+03  2.92323E+03 -7.07766E+03 -2.10246E+03
 -4.26731E+03 -8.35957E+03  2.00956E+03 -9.82261E+03  8.49852E+03 -6.19848E+03  8.78778E+03  1.55471E+03
  5.96152E+03  7.17315E+03 -2.94239E+02  9.22788E+03 -6.43264E+03  5.21616E+03 -6.87508E+03 -6.34097E+02
 -6.94996E+03 -6.23765E+03 -1.52970E+03 -6.70252E+03  3.62251E+03 -5.83192E+03  4.05553E+03 -3.00147E+03
  3.42695E+03  7.60740E+02 -1.14288E+02  1.13684E+03 -2.06044E+01 -1.20602E+03  6.54271E+02 -3.08294E+03
  5.66863E+03 -1.77570E+03  7.92320E+03  9.11310E+02  7.93260E+03  4.86181E+03  6.42873E+03  1.02943E+04
 -1.95762E+03  1.19728E+04 -1.04212E+04  9.28315E+03 -1.33631E+04  1.61568E+03 -1.07472E+04 -3.94292E+03
 -5.32337E+03 -9.07120E+03 -2.88703E+02 -7.36057E+03  2.85841E+03 -3.54001E+03  2.60611E+03 -2.82209E+03
  1.85561E+03 -2.13244E+03  2.51715E+03 -2.77810E+03  4.07391E+03 -1.84083E+03  4.71020E+03  1.04186E+02
  6.08508E+03  1.74749E+03  2.26630E+03  4.70790E+03 -2.07161E+03  4.71116E+03 -5.84721E+03  3.79245E+03
 -6.74523E+03 -1.42014E+03 -3.45064E+03 -4.91587E+03  7.86547E+01 -7.34128E+03  4.49474E+03 -7.54760E+03
  7.69661E+03 -4.35184E+03  9.42273E+03  6.52353E+02  6.62649E+03  5.90984E+03  1.37352E+03  8.59169E+03
 -3.43229E+03  7.65168E+03 -5.00391E+03  2.57596E+03 -3.20068E+03 -1.09414E+03 -7.79704E+02 -8.03256E+02
 -8.81231E+02  1.05393E+02 -1.29389E+03  1.99585E+03 -3.26099E+03  1.49432E+03 -5.13045E+03 -6.48339E+02
 -2.82220E+03 -5.00644E+03  6.26398E+02 -6.78272E+03  4.17636E+03 -6.29361E+03  5.94798E+03 -1.65280E+03
  6.23383E+03  3.31674E+03  2.98413E+03  5.14447E+03 -1.07112E+03  6.48386E+03 -4.18667E+03  4.20657E+03
 -5.87969E+03  7.53691E+02 -4.76267E+03 -3.73662E+03 -6.52954E+02 -4.95119E+03  2.57006E+03 -3.99819E+03
  4.11752E+03 -1.33372E+03  2.63939E+03  9.58261E+02  6.84799E+02  1.96202E+03  8.42296E+02  6.77462E+02
  1.95127E+03  8.26976E+02  1.47280E+03  1.23265E+03  1.92664E+03  2.82758E+03  1.74781E+03  2.84886E+03
 -1.90472E+03  4.47210E+03 -4.11907E+03  5.45001E+03 -5.36431E+03  1.71612E+03 -6.05370E+03 -1.49835E+03
 -2.55970E+03 -5.98009E+03  1.05957E+03 -6.73585E+03  3.21203E+03 -4.02588E+03  5.01627E+03 -1.23352E+03
  3.85757E+03  2.56153E+03  3.75022E+02  3.41161E+03 -1.61590E+03  2.02042E+03 -1.92275E+03 -3.46236E+02
 -1.23857E+03 -2.40891E+03  1.64174E+03 -2.66239E+03  2.16220E+03 -1.59530E+03  2.14760E+03  6.91366E+02
  1.26143E+03  8.67361E+02  1.14622E+03  7.59277E+02 -4.20374E+02  1.01538E+03  1.85268E+03 -6.49250E+02
  4.03459E+02 -4.43120E+01  2.17781E+03  7.41182E+02  6.44029E+02  3.19771E+03 -5.80438E+02  4.12800E+03
 -2.50797E+03  2.03660E+03 -3.32263E+03  5.99159E+02 -3.19568E+03 -1.07144E+03 -7.59896E+02 -1.75637E+03
  5.94910E+02 -2.07056E+03  1.39645E+03 -1.22191E+03  9.19765E+02  1.59669E+03 -9.20289E+02  1.73714E+03
 -2.10323E+03  1.14824E+03 -1.99997E+03 -1.53747E+03 -1.24282E+03 -3.19676E+03  1.21925E+02 -2.74537E+03
  1.36607E+03 -9.54849E+02  1.56792E+03  5.97141E+01  1.78294E+03  4.53257E+02  7.78936E+02  1.49480E+03
 -6.36450E+02  3.63057E+02 -1.40735E+03 -9.68094E+02  5.46584E+02 -1.66074E+03  2.67675E+03 -1.66075E+03
  2.54748E+03  2.24626E+02  3.63301E+03  1.44638E+03  1.47798E+03  3.03432E+03 -7.79177E+02  3.00156E+03
 -2.73804E+03  6.91088E+02 -2.55845E+03 -4.39425E+02 -1.42338E+03 -2.13392E+03  5.14714E+02 -1.41202E+03
  2.32170E+03 -9.98409E+02  1.54153E+03  5.54513E+02  5.01420E+02  1.75578E+03  1.44218E+02  1.41526E+03
 -8.56247E+02  1.34740E+03 -6.63440E+02  3.96495E+02 -6.90217E+01  3.45755E+02 -6.06800E+02  8.77918E+02
 -7.61040E+02  1.32550E+03 -2.42376E+03  9.02683E+02 -2.84839E+03  2.61941E+02 -3.41571E+03 -1.80056E+03
 -1.85635E+03 -3.77017E+03  6.97346E+02 -4.61463E+03  2.29553E+03 -3.70092E+03  4.33040E+03 -1.41108E+03
  3.94721E+03  3.57026E+02  2.25776E+03  2.47918E+03 -3.14382E+02  2.62418E+03 -1.40864E+03  2.31853E+03
 -1.87137E+03  8.57511E+02 -8.85660E+02 -4.26496E+02 -8.14295E+02 -1.66669E+02 -3.32795E+02  1.29019E+02
 -1.43723E+03 -1.39993E+01 -1.26887E+03 -2.86824E+01  3.02648E+02 -5.52304E+02 -1.62501E+02 -1.23076E+03
  1.47281E+03 -9.56222E+02  1.30112E+03  8.29381E+01  1.69963E+03  1.81301E+03 -1.37110E+02  2.69837E+03
 -1.72228E+03  3.44054E+03 -2.62614E+03  1.77699E+03 -2.93568E+03 -9.04396E+01 -2.27713E+03 -1.74008E+03
 -1.24277E+03 -2.40098E+03  8.23115E+02 -2.17858E+03  1.33673E+03 -1.05882E+03  1.45302E+03  4.75522E+01
  9.11463E+02  7.56983E+02  4.49476E+02  8.06385E+02 -4.96287E+02 -2.07209E+02 -9.41344E+01 -6.22615E+02
  6.68208E+02  6.05076E+01  7.03278E+02  4.77165E+02  8.86583E+01  7.33255E+02  4.35125E+02  5.63490E+02
 -9.16790E+02  8.97516E+02 -1.05042E+03  2.98525E+02 -1.23955E+03 -7.88121E+02  1.83252E+01 -2.16617E+03
  1.17472E+03 -1.31846E+03  1.52046E+03 -2.53339E+02  1.63648E+03 -2.54092E+02  8.46592E+02  1.36433E+03
  5.87808E+02  1.14630E+03 -4.73394E+02  1.33302E+03 -1.31151E+03  1.16904E+03 -6.68199E+02  2.81056E+02
 -2.18580E+02  4.61952E+01 -4.48523E+02  3.12919E+02 -8.55978E+02  1.47175E+02 -1.25217E+03 -1.45737E+02
 -1.35218E+03  2.63701E+00 -8.55905E+02 -1.35587E+03  1.00574E+03 -2.04725E+03  1.22788E+03 -6.58747E+02
  1.37401E+03  2.07240E+02  1.07495E+02  5.23177E+02 -1.55756E+02  1.64021E+03 -1.03496E+03  1.08588E+03
