 $NMID ID='MM_0lb_SNR800_12hz_g45_18.RAW', FMTDAT='(8E13.5)'
 TRAMP=1., VOLUME=1. $END
  3.09614E+05  4.12062E+02  3.37715E+05  2.50238E+05  8.49568E+04  3.38182E+05 -1.32752E+05  2.51169E+05
 -1.90680E+05  8.31969E+04 -1.12004E+05 -3.22951E+04  5.49726E+02 -5.05818E+04  5.37321E+04  2.42813E+02
  3.53579E+04  5.26398E+04 -1.73164E+04  7.57555E+04 -6.09114E+04  6.34912E+04 -8.43328E+04  3.20863E+04
 -8.13014E+04 -1.16086E+04 -5.77880E+04 -5.14734E+04 -1.49462E+04 -7.06360E+04  2.74763E+04 -4.56434E+04
  4.01934E+04  3.77703E+03  1.65379E+04  4.82484E+04 -3.44846E+04  4.72779E+04 -6.70863E+04 -5.49210E+02
 -5.37488E+04 -5.72433E+04 -6.61642E+03 -7.73538E+04  3.38506E+04 -5.55568E+04  4.83318E+04 -1.78388E+04
  4.40051E+04  1.11038E+04  3.24518E+04  2.57177E+04  1.57767E+04  2.97011E+04 -5.20939E+03  2.71356E+04
 -2.22138E+04  1.24581E+04 -1.82246E+04 -5.12478E+03  5.67441E+03 -7.58686E+03  2.26708E+04  1.27251E+04
  7.05502E+03  3.60890E+04 -3.25976E+04  3.59532E+04 -6.41352E+04  2.22075E+03 -5.76643E+04 -4.31913E+04
 -1.26303E+04 -6.40433E+04  4.03412E+04 -4.57848E+04  5.91033E+04 -2.43184E+03  3.48701E+04  3.28794E+04
 -5.77488E+03  3.67406E+04 -3.06835E+04  1.64955E+04 -3.12983E+04 -4.21640E+03 -1.76820E+04 -1.10140E+04
 -8.63229E+03 -1.38479E+04 -2.29108E+02 -1.83722E+04  7.61626E+03 -2.30952E+04  1.53632E+04 -1.30181E+04
  1.14171E+04  5.37535E+03 -8.68111E+03  1.30249E+04 -2.22521E+04 -4.74284E+03 -8.58231E+03 -3.48406E+04
  2.32315E+04 -4.43967E+04  4.89705E+04 -1.99827E+04  4.58736E+04  1.99921E+04  1.60221E+04  4.52242E+04
 -1.60152E+04  3.42275E+04 -2.62036E+04  2.08872E+03 -1.01711E+04 -2.84661E+04  2.13446E+04 -3.46280E+04
  4.22862E+04 -9.67450E+03  3.66175E+04  2.42166E+04  1.90582E+04  4.78747E+04 -8.13244E+03  5.16486E+04
 -3.24826E+04  3.50666E+04 -4.34316E+04  1.01564E+04 -4.41605E+04 -1.69780E+04 -2.44427E+04 -3.91159E+04
  7.51220E+03 -3.92137E+04  3.23823E+04 -1.56014E+04  3.02689E+04  1.11982E+04  4.17549E+03  1.97747E+04
 -1.36973E+04  8.71749E+03 -1.07589E+04 -7.40403E+03  6.06024E+03 -1.08323E+04  1.84284E+04  5.87258E+03
  1.38527E+04  2.21892E+04 -5.96247E+03  2.54408E+04 -2.25760E+04  1.22730E+04 -2.91082E+04 -4.16445E+03
 -2.18228E+04 -1.74661E+04 -9.52373E+03 -2.17641E+04  4.30558E+03 -2.14610E+04  1.72717E+04 -1.97739E+04
  2.79862E+04 -1.33893E+04  3.42032E+04  3.11924E+03  2.47987E+04  2.12143E+04  4.53064E+03  3.75537E+04
 -1.82533E+04  3.13421E+04 -2.86877E+04  1.09323E+04 -2.16927E+04 -1.04783E+04 -4.55371E+03 -1.32673E+04
  1.59254E+03 -2.05552E+03 -5.51214E+03  7.24610E+03 -1.73757E+04  5.42175E+03 -1.73639E+04 -7.76168E+03
 -1.01752E+04 -2.03548E+04  5.63097E+03 -2.45389E+04  1.62417E+04 -1.73462E+04  1.96841E+04 -2.05246E+03
  1.23060E+04  1.38510E+04 -1.04300E+03  2.00770E+04 -1.37898E+04  1.17409E+04 -2.04025E+04 -4.32326E+03
 -1.51025E+04 -1.84014E+04 -1.74787E+03 -2.46031E+04  1.07856E+04 -2.01367E+04  2.05569E+04 -1.00450E+04
  1.90367E+04 -1.07253E+01  1.39322E+04  4.75149E+03  7.05124E+03  1.42391E+03  1.03431E+04 -1.60613E+03
  1.89430E+04  2.77907E+03  2.11267E+04  1.60677E+04  1.42843E+04  3.29068E+04 -2.99045E+03  3.68542E+04
 -2.13740E+04  3.02498E+04 -3.43525E+04  1.49511E+04 -3.69421E+04 -2.54543E+03 -3.01691E+04 -2.13468E+04
 -1.25660E+04 -3.04516E+04  1.05422E+04 -2.68648E+04  2.30686E+04 -1.34390E+04  2.06839E+04  5.98520E+03
  7.27477E+03  1.59293E+04 -9.71238E+03  1.33430E+04 -1.73710E+04  2.55532E+03 -1.30896E+04 -1.10344E+04
 -1.84724E+02 -1.62509E+04  8.62468E+03 -1.23572E+04  1.12338E+04 -1.18236E+03  2.21736E+03  7.38371E+03
 -7.72409E+03  3.11213E+03 -7.12837E+03 -6.01209E+03 -1.08695E+03 -1.46591E+04  1.00497E+04 -1.60737E+04
  1.83496E+04 -8.37157E+03  2.03602E+04  3.19921E+03  1.77193E+04  1.49185E+04  8.27668E+03  2.31780E+04
 -4.02743E+03  2.48477E+04 -1.58195E+04  1.58137E+04 -1.77166E+04  3.55035E+03 -1.23270E+04 -4.20586E+03
 -5.50701E+03 -5.40888E+03 -7.67958E+02  5.33803E+02 -2.54308E+03  2.90260E+03 -5.99427E+03  4.56174E+03
 -1.18638E+04 -7.55638E+02 -1.21561E+04 -1.01612E+04 -4.36811E+03 -1.61679E+04  5.31934E+03 -1.25902E+04
  1.03383E+04 -5.34086E+03  7.57729E+03  3.16722E+03  5.73647E+01  5.14690E+03 -5.81451E+03  3.43331E+01
 -5.76380E+03 -8.01455E+03 -1.12974E+03 -1.20458E+04  7.05638E+03 -1.25793E+04  1.57875E+04 -7.31108E+03
  1.83108E+04  1.93656E+03  1.37155E+04  1.08301E+04  2.52830E+03  1.45918E+04 -7.91502E+03  1.23704E+04
 -1.02844E+04  4.16026E+03 -5.45673E+03 -2.71449E+03  1.97834E+03 -3.29059E+03  6.93159E+03 -9.40012E+02
  5.94489E+03  5.86047E+03  1.04838E+03  9.37755E+03 -7.30872E+03  9.86979E+03 -1.23080E+04  2.54428E+03
 -8.30824E+03 -6.29011E+03  2.82080E+02 -1.04695E+04  6.56857E+03 -5.44265E+03  6.96599E+03  2.65657E+03
  1.68428E+03  7.27888E+03 -6.41525E+03  8.70617E+03 -9.78120E+03  4.02953E+03 -1.00520E+04 -3.60929E+03
 -5.88894E+03 -1.17129E+04  2.85802E+03 -1.34170E+04  1.15687E+04 -7.94041E+03  1.21438E+04  2.53794E+03
  7.50519E+03  9.91200E+03 -8.09924E+02  1.20849E+04 -8.59877E+03  6.38954E+03 -9.78158E+03 -8.98381E+02
 -8.71639E+03 -8.17417E+03 -1.38383E+03 -9.22400E+03  4.64237E+03 -7.55693E+03  5.70215E+03 -3.49298E+03
  3.93052E+03  1.05380E+03 -7.67851E+02  1.55580E+03  5.08157E+01 -2.04496E+03  1.69814E+03 -4.88996E+03
  8.15516E+03 -3.02090E+03  1.14011E+04  1.41817E+03  1.16038E+04  7.61932E+03  7.84209E+03  1.48657E+04
 -3.49578E+03  1.68843E+04 -1.43784E+04  1.30558E+04 -1.85585E+04  2.18395E+03 -1.51601E+04 -6.06866E+03
 -7.82851E+03 -1.26062E+04 -1.91517E+02 -1.04167E+04  3.58786E+03 -5.61304E+03  3.68494E+03 -3.68171E+03
  2.55780E+03 -2.34044E+03  3.12981E+03 -3.53005E+03  4.52782E+03 -2.56126E+03  5.55969E+03 -2.98158E+02
  8.14316E+03  1.86650E+03  4.48359E+03  6.99293E+03 -1.64654E+03  7.45171E+03 -8.47972E+03  6.21516E+03
 -1.04700E+04 -1.06729E+03 -5.86656E+03 -7.33452E+03 -5.82752E+02 -1.06056E+04  6.38572E+03 -1.06326E+04
  1.13835E+04 -6.19320E+03  1.37108E+04  1.38313E+03  9.56684E+03  9.38931E+03  1.67582E+03  1.22428E+04
 -5.23370E+03  1.07326E+04 -7.19623E+03  3.96254E+03 -5.09638E+03 -1.79517E+03 -1.96720E+03 -1.27894E+03
 -6.35317E+02  2.43068E+01 -1.74624E+03  2.69115E+03 -4.12636E+03  1.81531E+03 -7.35079E+03 -8.61383E+02
 -4.38604E+03 -7.06326E+03  3.21119E+02 -1.01547E+04  6.28401E+03 -9.42648E+03  9.81817E+03 -3.07586E+03
  9.79660E+03  4.94162E+03  4.54991E+03  8.60116E+03 -2.24104E+03  1.04163E+04 -6.81770E+03  6.21986E+03
 -9.62069E+03  5.14634E+02 -7.42008E+03 -6.01683E+03 -7.68658E+02 -8.27999E+03  4.42780E+03 -5.98600E+03
  6.12634E+03 -1.80918E+03  4.24536E+03  1.67483E+03  1.49068E+03  2.79293E+03  1.29709E+03  1.26913E+03
  2.47763E+03  9.67218E+02  2.05391E+03  1.65054E+03  2.64553E+03  3.56371E+03  2.79718E+03  4.76768E+03
 -2.27313E+03  7.84537E+03 -6.62573E+03  8.05305E+03 -9.92430E+03  2.31495E+03 -1.02638E+04 -3.64086E+03
 -5.28553E+03 -9.69371E+03  1.34330E+03 -1.10260E+04  5.60619E+03 -6.78207E+03  7.71627E+03 -1.96215E+03
  6.34922E+03  3.99577E+03  1.61211E+03  5.51118E+03 -2.63928E+03  3.83399E+03 -3.45366E+03 -1.23319E+02
 -1.74200E+03 -4.25274E+03  2.26405E+03 -4.10204E+03  3.75232E+03 -1.78379E+03  3.62751E+03  7.71123E+02
  2.06177E+03  1.43886E+03  1.40842E+03  1.51914E+03 -5.66586E+02  1.27986E+03  2.04576E+03 -6.00204E+01
  1.38460E+03 -8.35114E+02  4.31134E+03  1.38570E+03  1.62961E+03  5.59574E+03 -9.65216E+02  6.99032E+03
 -4.55640E+03  4.38895E+03 -5.99658E+03  1.15906E+03 -5.39283E+03 -2.18454E+03 -1.92366E+03 -3.79787E+03
  9.13263E+02 -3.53895E+03  2.43454E+03 -1.59610E+03  1.99138E+03  1.79974E+03 -1.49823E+03  3.17547E+03
 -4.02315E+03  2.15070E+03 -4.37538E+03 -2.44230E+03 -2.56864E+03 -5.29831E+03  6.96393E+02 -5.13084E+03
  2.77374E+03 -2.88540E+03  3.57271E+03 -2.71450E+02  3.44133E+03  9.83500E+02  3.76571E+02  2.62093E+03
 -1.96730E+03  5.81299E+02 -1.94909E+03 -1.44782E+03  1.04893E+03 -3.87831E+03  4.21668E+03 -2.93921E+03
  5.41192E+03  5.37535E+02  6.36319E+03  3.51884E+03  2.35834E+03  6.12005E+03 -2.11173E+03  5.43881E+03
 -4.90724E+03  2.22217E+03 -4.99234E+03 -5.26375E+02 -2.58046E+03 -3.82598E+03  7.72672E+02 -3.48208E+03
  4.17803E+03 -2.04692E+03  2.89029E+03  1.36207E+03  7.97637E+02  3.29513E+03 -2.86037E+02  3.02242E+03
 -1.49784E+03  2.51426E+03 -1.47793E+03  4.71445E+02 -8.35142E+02  7.78046E+02 -1.00046E+03  1.41000E+03
 -1.63371E+03  2.48955E+03 -4.27880E+03  2.15194E+03 -5.79919E+03  3.55021E+01 -7.01378E+03 -3.63763E+03
 -3.13021E+03 -7.69385E+03  1.54649E+03 -9.13750E+03  5.36509E+03 -7.41720E+03  7.94415E+03 -2.86723E+03
  7.83091E+03  1.65035E+03  4.64636E+03  5.34126E+03  2.68316E+02  5.99134E+03 -2.35616E+03  4.37317E+03
 -3.81214E+03  2.09740E+03 -2.10446E+03 -6.24392E+02 -7.77844E+02 -4.91663E+02 -3.23729E+02  7.42549E+01
 -1.69405E+03  3.58153E+02 -1.51991E+03 -1.25011E+02 -4.50122E+00 -1.76476E+03 -9.04608E+01 -2.40706E+03
  3.12080E+03 -2.03817E+03  3.56474E+03  1.37712E+01  4.12330E+03  3.00362E+03  8.90536E+02  6.04519E+03
 -2.77713E+03  6.72926E+03 -6.20219E+03  4.14821E+03 -7.11960E+03 -5.80255E+02 -4.73179E+03 -4.74425E+03
 -2.55638E+03 -6.12570E+03  1.38713E+03 -5.44612E+03  3.28274E+03 -3.07522E+03  3.66976E+03  3.79975E+02
  2.23523E+03  1.75214E+03 -2.42218E+02  1.42654E+03 -1.08926E+03  1.60407E+02 -3.34045E+02 -9.91835E+02
  1.93073E+03 -8.14724E+02  1.77543E+03  7.30447E+02  1.10200E+03  2.47711E+03  1.18915E+02  2.75839E+03
 -2.86286E+03  2.41235E+03 -3.59458E+03  4.20454E+02 -3.27468E+03 -2.79609E+03 -5.54748E+02 -4.54033E+03
  2.39954E+03 -3.62981E+03  3.73563E+03 -1.29409E+03  4.21228E+03  5.37917E+02  2.15252E+03  3.24872E+03
  7.27952E+02  3.38831E+03 -1.61777E+03  2.63627E+03 -2.18300E+03  1.69382E+03 -1.95210E+03  2.29211E+02
 -1.17592E+03 -3.23009E+02 -9.54922E+02  6.48392E+02 -2.26699E+03  7.85891E+02 -2.92345E+03 -3.81543E+02
 -2.92124E+03 -1.74821E+03 -8.65652E+02 -3.65872E+03  1.76507E+03 -4.13611E+03  3.08577E+03 -1.77156E+03
  3.59177E+03  4.11870E+02  1.57886E+03  1.79363E+03 -1.23482E+02  3.40387E+03 -2.69648E+03  2.34729E+03
