 $NMID ID='MM_0lb_SNR800_19hz_g40_9.RAW', FMTDAT='(8E13.5)'
 TRAMP=1., VOLUME=1. $END
  3.09935E+05  3.54454E+02  3.37180E+05  2.50243E+05  8.43008E+04  3.37002E+05 -1.32287E+05  2.49913E+05
 -1.89641E+05  8.24606E+04 -1.10587E+05 -3.32134E+04  1.98065E+03 -5.00985E+04  5.40207E+04  4.68337E+02
  3.50750E+04  5.26258E+04 -1.68760E+04  7.49456E+04 -5.98732E+04  6.25912E+04 -8.27428E+04  3.12975E+04
 -7.91971E+04 -1.11337E+04 -5.61956E+04 -4.97634E+04 -1.51682E+04 -6.76985E+04  2.64357E+04 -4.43337E+04
  3.84717E+04  4.12714E+03  1.53513E+04  4.67321E+04 -3.36974E+04  4.56172E+04 -6.48839E+04 -6.17869E+02
 -5.16523E+04 -5.57571E+04 -5.83828E+03 -7.43706E+04  3.26067E+04 -5.26369E+04  4.53882E+04 -1.60748E+04
  4.10622E+04  1.09873E+04  3.02086E+04  2.40152E+04  1.57212E+04  2.77481E+04 -4.70624E+03  2.64992E+04
 -2.12825E+04  1.28044E+04 -1.93920E+04 -3.95705E+03  3.69884E+03 -7.51828E+03  2.08722E+04  1.05828E+04
  7.51855E+03  3.23327E+04 -3.01797E+04  3.34461E+04 -6.04748E+04  2.26733E+03 -5.48267E+04 -4.08755E+04
 -1.24450E+04 -6.01637E+04  3.75041E+04 -4.26854E+04  5.44980E+04 -1.87908E+03  3.13284E+04  3.01026E+04
 -6.49625E+03  3.21764E+04 -2.82037E+04  1.26048E+04 -2.67977E+04 -5.63321E+03 -1.36615E+04 -9.88477E+03
 -7.03553E+03 -1.09014E+04 -1.23440E+03 -1.63171E+04  6.20234E+03 -2.23043E+04  1.50313E+04 -1.44461E+04
  1.26226E+04  3.63842E+03 -5.59057E+03  1.28830E+04 -1.87253E+04 -1.99093E+03 -7.76536E+03 -2.92963E+04
  2.01909E+04 -3.97104E+04  4.37890E+04 -1.78053E+04  4.12483E+04  1.79121E+04  1.38736E+04  4.08775E+04
 -1.51998E+04  3.02247E+04 -2.26725E+04  1.01585E+03 -7.67400E+03 -2.60288E+04  2.00904E+04 -3.04730E+04
  3.73415E+04 -6.87237E+03  3.03293E+04  2.24297E+04  1.44673E+04  4.13841E+04 -7.70035E+03  4.38746E+04
 -2.74513E+04  2.85185E+04 -3.60342E+04  7.96816E+03 -3.71703E+04 -1.45604E+04 -2.02903E+04 -3.35924E+04
  6.57366E+03 -3.28191E+04  2.86057E+04 -1.23825E+04  2.61917E+04  1.07625E+04  2.51528E+03  1.75007E+04
 -1.31815E+04  6.97524E+03 -9.31722E+03 -7.64299E+03  6.21593E+03 -9.88812E+03  1.69093E+04  6.58578E+03
  1.20701E+04  2.15028E+04 -6.68196E+03  2.28918E+04 -2.14131E+04  8.81479E+03 -2.43271E+04 -6.69836E+03
 -1.58025E+04 -1.61339E+04 -4.89079E+03 -1.56598E+04  4.07399E+03 -1.33207E+04  1.15685E+04 -1.34119E+04
  1.99767E+04 -1.13486E+04  2.71256E+04  5.44233E+02  2.06673E+04  1.51803E+04  3.89146E+03  3.14962E+04
 -1.55786E+04  2.70118E+04 -2.51933E+04  8.96811E+03 -1.92616E+04 -1.05282E+04 -4.05415E+03 -1.40622E+04
  2.93963E+03 -4.40816E+03 -1.96016E+03  4.93755E+03 -1.21210E+04  5.24551E+03 -1.25317E+04 -4.66867E+03
 -8.20496E+03 -1.44156E+04  4.25046E+03 -1.85051E+04  1.20476E+04 -1.31667E+04  1.36852E+04 -1.30868E+03
  8.34537E+03  1.01351E+04 -1.18103E+03  1.48452E+04 -9.59254E+03  8.30681E+03 -1.46997E+04 -3.36715E+03
 -1.07049E+04 -1.34155E+04 -1.32396E+03 -1.80908E+04  8.11863E+03 -1.42619E+04  1.53676E+04 -6.59002E+03
  1.40073E+04  1.02255E+03  9.60787E+03  3.41604E+03  4.81285E+03  4.84431E+02  6.91858E+03 -1.40791E+03
  1.32262E+04  2.87484E+03  1.37075E+04  1.21864E+04  8.24549E+03  2.31702E+04 -3.51414E+03  2.48224E+04
 -1.50127E+04  1.88525E+04 -2.27901E+04  8.66453E+03 -2.31025E+04 -1.72276E+03 -2.00630E+04 -1.29422E+04
 -9.70299E+03 -1.85648E+04  5.92559E+03 -1.77854E+04  1.53563E+04 -1.05368E+04  1.47346E+04  3.11963E+03
  6.23725E+03  1.02632E+04 -6.77105E+03  1.01719E+04 -1.26870E+04  2.83439E+03 -9.71616E+03 -7.57508E+03
 -3.39898E+02 -1.17394E+04  5.82482E+03 -9.09256E+03  7.19610E+03 -1.29687E+03  1.24024E+03  4.46637E+03
 -5.47149E+03  1.17473E+03 -3.15830E+03 -4.19801E+03  8.69072E+02 -9.41400E+03  7.46156E+03 -9.00797E+03
  1.15692E+04 -3.96445E+03  1.06744E+04  2.75126E+03  9.32646E+03  8.81349E+03  4.42088E+03  1.28801E+04
 -1.18619E+03  1.47566E+04 -8.55081E+03  9.40816E+03 -1.03431E+04  2.93632E+03 -7.77164E+03 -1.54988E+03
 -4.37607E+03 -2.97218E+03 -5.82128E+02  1.64915E+03 -2.07157E+03  1.81022E+03 -3.40094E+03  3.44051E+03
 -7.62961E+03 -4.30700E+02 -8.36757E+03 -6.81465E+03 -3.30762E+03 -1.06787E+04  3.11335E+03 -7.99944E+03
  6.88397E+03 -3.73229E+03  4.86541E+03  2.07368E+03  5.88265E+02  2.94461E+03 -2.87915E+03  3.31369E+01
 -3.05071E+03 -4.75871E+03 -5.41144E+02 -6.89571E+03  3.39953E+03 -7.45356E+03  9.04719E+03 -3.77657E+03
  1.08878E+04  6.31952E+02  8.31561E+03  5.60790E+03  1.74507E+03  7.72299E+03 -4.76025E+03  7.64121E+03
 -6.52523E+03  2.53135E+03 -3.40386E+03 -1.02659E+03  1.35197E+03 -1.63435E+03  4.54831E+03 -9.24057E+02
  3.98622E+03  2.88069E+03  1.16463E+03  5.92719E+03 -3.92973E+03  5.75751E+03 -7.59517E+03  1.73191E+03
 -4.56724E+03 -3.34243E+03  3.16678E+02 -5.93174E+03  3.51008E+03 -3.14542E+03  3.10774E+03  6.81453E+02
  1.96462E+02  2.74823E+03 -3.84997E+03  4.40016E+03 -4.31022E+03  2.36025E+03 -4.00249E+03 -1.00042E+03
 -2.82635E+03 -5.34026E+03  1.11806E+03 -6.25646E+03  5.48096E+03 -4.05225E+03  5.73288E+03  6.74862E+02
  4.36246E+03  4.66880E+03  1.12642E+02  6.57481E+03 -4.78679E+03  3.82349E+03 -4.90878E+03 -1.77130E+02
 -5.54046E+03 -4.74091E+03 -1.16566E+03 -4.44310E+03  2.14225E+03 -4.41017E+03  2.52422E+03 -2.82353E+03
  2.72605E+03  4.76740E+02  2.16168E+02  1.00297E+03  7.75223E+02 -1.16364E+02 -5.85025E+01 -1.38874E+03
  3.33024E+03 -5.34891E+02  4.35690E+03  6.98074E+02  5.21253E+03  2.48411E+03  5.13047E+03  6.55315E+03
 -9.61975E+02  7.39926E+03 -7.07266E+03  5.88978E+03 -9.02886E+03  7.23966E+02 -7.35482E+03 -2.31892E+03
 -3.73659E+03 -5.88601E+03 -6.06190E+02 -4.85524E+03  1.75975E+03 -1.63826E+03  1.43531E+03 -1.94105E+03
  1.12455E+03 -1.33041E+03  1.98774E+03 -2.40549E+03  3.53021E+03 -1.13260E+03  3.32553E+03  5.89632E+02
  4.32649E+03  1.01665E+03  8.65783E+02  3.20521E+03 -1.53618E+03  2.59556E+03 -3.94207E+03  2.22826E+03
 -4.36216E+03 -9.28180E+02 -1.45543E+03 -2.72148E+03  6.47836E+02 -4.35009E+03  2.78003E+03 -4.74547E+03
  4.52533E+03 -2.86971E+03  6.22863E+03  4.67419E+01  4.30321E+03  3.61804E+03  1.15765E+03  5.29920E+03
 -1.92996E+03  5.59917E+03 -2.82795E+03  1.66368E+03 -1.60103E+03 -9.92070E+02 -5.36807E+02 -6.75897E+02
 -4.92376E+02  4.09284E+02 -8.50993E+02  1.80756E+03 -2.05943E+03  1.10514E+03 -3.98556E+03 -5.10582E+02
 -1.51361E+03 -3.99570E+03  9.87389E+02 -4.10105E+03  2.43512E+03 -4.04113E+03  3.08789E+03 -1.10092E+03
  3.84329E+03  2.21992E+03  1.46390E+03  3.08383E+03 -6.85289E+02  3.87205E+03 -2.19459E+03  2.25348E+03
 -3.44476E+03  5.47762E+02 -3.02701E+03 -2.20934E+03 -1.37213E+02 -3.01987E+03  1.31103E+03 -2.17116E+03
  2.25956E+03 -1.50366E+03  1.68908E+03  2.78071E+02  5.38407E+02  1.62996E+03  7.02762E+02  3.47289E+02
  1.81132E+03  5.01216E+02  7.38213E+02  9.61246E+02  7.93853E+02  2.31331E+03  1.11571E+03  1.43655E+03
 -1.10914E+03  2.74790E+03 -2.10922E+03  3.91888E+03 -2.70743E+03  1.13024E+03 -3.89247E+03 -2.11862E+02
 -1.43937E+03 -3.26527E+03  2.96810E+02 -4.30181E+03  1.48902E+03 -2.37370E+03  2.74899E+03 -1.09094E+03
  2.22457E+03  1.62723E+03  3.41222E+02  2.08827E+03 -4.87925E+02  1.21575E+03 -4.21860E+02 -1.64438E+02
 -4.85150E+02 -1.49350E+03  1.60962E+03 -1.09904E+03  1.24010E+03 -8.24347E+02  9.94547E+02  3.69704E+02
  3.91227E+02  1.98162E+02  5.90137E+02 -5.11820E+02 -3.68255E+02  6.89063E+02  1.74104E+03 -2.24447E+02
 -1.93432E+02 -2.05793E+02  1.69114E+03  5.08819E+02  3.33843E+02  2.01578E+03 -2.72860E+02  2.77088E+03
 -1.74381E+03  1.00970E+03 -1.83087E+03  2.11772E+02 -1.83436E+03 -7.73492E+02  2.54856E+01 -8.00349E+02
  2.92655E+02 -1.26927E+03  7.27095E+02 -4.48699E+02  3.27685E+02  1.16154E+03 -8.39410E+02  7.04841E+02
 -1.41365E+03  9.14573E+02 -1.10487E+03 -1.15410E+03 -8.59012E+02 -2.07526E+03  2.34821E+02 -1.40705E+03
  5.90913E+02 -5.12165E+02  9.25537E+02  3.00892E+02  1.21917E+03 -9.46220E+01  1.84637E+02  9.07173E+02
 -5.17144E+02  3.91074E+02 -5.58208E+02 -3.44882E+02  4.17606E+02 -4.68685E+02  1.47191E+03 -8.94495E+02
  1.10695E+03  3.37110E+02  2.64910E+03  7.95454E+02  1.18239E+03  1.53393E+03 -1.45356E+02  1.70884E+03
 -1.21831E+03  3.54005E+02 -1.16192E+03 -1.38686E+02 -5.39462E+02 -1.17881E+03  1.96226E+02 -5.32042E+02
  1.51118E+03 -5.05594E+02  7.14651E+02  7.67331E+02 -7.15600E+00  1.15319E+03  2.70200E+02  1.15954E+03
 -5.81973E+02  9.37928E+02 -5.39595E+02  8.82429E+01  6.72925E+01  2.40394E+02 -6.09332E+02  3.90803E+02
 -7.02284E+02  9.23173E+02 -1.85972E+03  5.26562E+02 -1.48150E+03  2.75652E+02 -2.29543E+03 -8.58036E+02
 -9.12662E+02 -2.10533E+03  3.90157E+02 -2.59315E+03  9.36676E+02 -2.30952E+03  2.65060E+03 -1.04415E+03
  2.26644E+03 -3.18574E+02  1.18542E+03  1.56311E+03 -7.03254E+02  1.54254E+03 -7.61910E+02  1.59607E+03
 -9.35383E+02  8.72679E+02 -5.69778E+02 -4.61346E+02 -3.69385E+02  2.73692E+02 -4.05949E+02  2.54620E+02
 -1.02120E+03 -1.26518E+02 -8.73425E+02  1.83132E+02  2.64648E+02 -4.96891E+02 -5.51772E+02 -8.69837E+02
  1.25751E+03 -7.18928E+02  5.41828E+02  2.59482E+02  9.70983E+02  8.68907E+02 -9.30676E+02  1.49637E+03
 -1.02087E+03  2.44462E+03 -1.45596E+03  1.16670E+03 -1.20025E+03  1.76018E+01 -1.22103E+03 -1.28408E+03
 -6.99790E+02 -1.26783E+03  3.00224E+02 -6.42389E+02  7.19623E+02 -3.60772E+02  6.61854E+02  2.26124E+02
  3.94473E+02  1.89418E+02  3.58147E+02  2.81350E+02 -1.54234E+02 -8.83786E+01 -1.04174E+02 -1.49558E+02
  4.06023E+02  1.58384E+02  1.54428E+02  3.57872E+02 -1.52222E+02  5.85359E+02  6.50952E+02 -4.66398E+01
 -5.92948E+02  5.30299E+02 -4.49337E+02  1.94864E+02 -9.28876E+02 -2.88037E+02  1.76217E+02 -1.03600E+03
  3.92169E+02 -5.54759E+02  4.71437E+02 -1.80834E+02  6.15389E+02 -5.96893E+02  3.53686E+02  5.40303E+02
  2.53368E+02  3.18180E+02 -1.38823E+02  5.68922E+02 -5.06288E+02  4.32002E+02 -5.51437E+02  6.09822E+01
 -2.12070E+02 -1.71605E+02 -5.88783E+02  1.96805E+02 -7.32821E+02  7.49803E+01 -6.38775E+02 -3.79030E+02
 -1.24975E+03  3.37721E+02 -3.72745E+02 -8.56005E+02  7.89851E+02 -1.50499E+03  5.49296E+02  7.35860E+00
  1.04540E+03  3.19910E+02 -3.80697E+02  1.17291E+02  1.03552E+02  7.34617E+02 -1.80995E+02  5.16905E+02
