 $NMID ID='MM_0lb_SNR800_9hz_g55_14.RAW', FMTDAT='(8E13.5)'
 TRAMP=1., VOLUME=1. $END
  3.09893E+05  4.29802E+02  3.37869E+05  2.50876E+05  8.49315E+04  3.38364E+05 -1.32615E+05  2.51705E+05
 -1.91196E+05  8.38565E+04 -1.12527E+05 -3.25569E+04  4.53357E+02 -5.06373E+04  5.42805E+04 -5.39842E+02
  3.53660E+04  5.29141E+04 -1.66143E+04  7.60224E+04 -6.10874E+04  6.49347E+04 -8.50975E+04  3.25479E+04
 -8.27270E+04 -1.14992E+04 -5.79993E+04 -5.22326E+04 -1.52837E+04 -7.12226E+04  2.83708E+04 -4.67843E+04
  4.14496E+04  3.55477E+03  1.64991E+04  4.87217E+04 -3.50166E+04  4.83774E+04 -6.81001E+04  1.01125E+01
 -5.50325E+04 -5.80976E+04 -7.26517E+03 -7.93862E+04  3.51542E+04 -5.71736E+04  4.99053E+04 -1.81783E+04
  4.54433E+04  1.16092E+04  3.33738E+04  2.64533E+04  1.60955E+04  3.04415E+04 -5.77734E+03  2.78922E+04
 -2.27851E+04  1.16441E+04 -1.82864E+04 -5.71136E+03  6.95036E+03 -6.96432E+03  2.32948E+04  1.37577E+04
  6.90581E+03  3.79512E+04 -3.40080E+04  3.70861E+04 -6.60025E+04  2.10798E+03 -5.89997E+04 -4.45507E+04
 -1.29068E+04 -6.62631E+04  4.19749E+04 -4.79634E+04  6.15269E+04 -2.74147E+03  3.67527E+04  3.44813E+04
 -5.13403E+03  3.95843E+04 -3.19723E+04  1.87232E+04 -3.36292E+04 -2.97631E+03 -1.98079E+04 -1.25545E+04
 -9.43639E+03 -1.54206E+04 -4.99831E+02 -1.94804E+04  8.70904E+03 -2.40355E+04  1.63605E+04 -1.27455E+04
  1.04332E+04  6.36628E+03 -1.10891E+04  1.30079E+04 -2.37112E+04 -6.83999E+03 -8.88932E+03 -3.80328E+04
  2.56323E+04 -4.72416E+04  5.24559E+04 -2.15870E+04  4.90436E+04  2.11934E+04  1.74913E+04  4.75957E+04
 -1.68127E+04  3.63597E+04 -2.76814E+04  2.71884E+03 -1.20992E+04 -2.99437E+04  2.19421E+04 -3.70416E+04
  4.51385E+04 -1.12409E+04  4.14806E+04  2.50389E+04  2.15745E+04  5.15106E+04 -8.12614E+03  5.67492E+04
 -3.63476E+04  3.88587E+04 -4.79547E+04  1.15767E+04 -4.82867E+04 -1.86498E+04 -2.61933E+04 -4.23955E+04
  7.53140E+03 -4.29961E+04  3.46364E+04 -1.74630E+04  3.23627E+04  1.10320E+04  5.54015E+03  2.11969E+04
 -1.38574E+04  9.61327E+03 -1.11880E+04 -7.81544E+03  5.47775E+03 -1.14607E+04  1.87925E+04  5.51238E+03
  1.47821E+04  2.29439E+04 -5.13899E+03  2.73571E+04 -2.33828E+04  1.44072E+04 -3.17125E+04 -2.69723E+03
 -2.58849E+04 -1.86948E+04 -1.20611E+04 -2.58774E+04  4.37382E+03 -2.62340E+04  2.04707E+04 -2.36352E+04
  3.25173E+04 -1.41229E+04  3.85466E+04  5.57622E+03  2.73061E+04  2.50446E+04  4.37859E+03  4.18974E+04
 -1.98386E+04  3.42731E+04 -3.07678E+04  1.16870E+04 -2.25623E+04 -1.02145E+04 -5.49889E+03 -1.26891E+04
  4.97158E+02 -9.18614E+02 -7.58378E+03  8.17449E+03 -2.05259E+04  5.31979E+03 -2.01218E+04 -1.00477E+04
 -1.19927E+04 -2.38122E+04  6.13617E+03 -2.83343E+04  1.92692E+04 -1.98783E+04  2.32280E+04 -1.39251E+03
  1.51175E+04  1.66099E+04 -1.19606E+03  2.37017E+04 -1.71069E+04  1.35119E+04 -2.39721E+04 -4.78638E+03
 -1.75917E+04 -2.10158E+04 -2.61744E+03 -2.86335E+04  1.27713E+04 -2.36286E+04  2.38657E+04 -1.25207E+04
  2.24405E+04 -4.44253E+02  1.63986E+04  5.31598E+03  9.03921E+03  1.78636E+03  1.26333E+04 -1.96173E+03
  2.22514E+04  3.30901E+03  2.58237E+04  1.85529E+04  1.77744E+04  3.83293E+04 -2.66386E+03  4.53150E+04
 -2.60219E+04  3.75766E+04 -4.28054E+04  1.95250E+04 -4.61747E+04 -3.75331E+03 -3.66710E+04 -2.70062E+04
 -1.46270E+04 -3.80472E+04  1.36083E+04 -3.31743E+04  2.86765E+04 -1.57137E+04  2.48677E+04  8.32591E+03
  8.31310E+03  1.89019E+04 -1.21538E+04  1.59042E+04 -2.06458E+04  2.64247E+03 -1.56098E+04 -1.30213E+04
 -3.02314E+01 -1.99206E+04  1.07836E+04 -1.44097E+04  1.37606E+04 -1.60758E+03  3.65702E+03  8.71163E+03
 -8.87327E+03  4.23597E+03 -9.47650E+03 -7.36133E+03 -1.85297E+03 -1.82844E+04  1.22571E+04 -2.03715E+04
  2.36945E+04 -1.14177E+04  2.72134E+04  3.53409E+03  2.33054E+04  1.87917E+04  1.11671E+04  2.99358E+04
 -5.92019E+03  3.23152E+04 -2.13095E+04  1.97041E+04 -2.33115E+04  4.22349E+03 -1.59890E+04 -6.08971E+03
 -6.77472E+03 -7.30898E+03 -8.59208E+02  1.28852E+02 -2.85628E+03  3.84149E+03 -8.08439E+03  5.54889E+03
 -1.43187E+04 -5.11587E+02 -1.51427E+04 -1.21806E+04 -6.20315E+03 -1.99718E+04  6.39867E+03 -1.61356E+04
  1.32448E+04 -6.78047E+03  9.78789E+03  4.38388E+03 -5.57068E+02  6.57845E+03 -8.01220E+03 -6.37348E+02
 -7.78852E+03 -1.01694E+04 -1.13914E+03 -1.57974E+04  9.00898E+03 -1.68822E+04  2.04055E+04 -8.95344E+03
  2.44427E+04  2.66566E+03  1.74542E+04  1.50303E+04  3.26993E+03  1.99132E+04 -9.89474E+03  1.55777E+04
 -1.34559E+04  4.59008E+03 -6.96080E+03 -3.90812E+03  2.13778E+03 -4.59073E+03  8.37952E+03 -1.06137E+03
  7.39058E+03  7.34021E+03  1.08973E+03  1.33455E+04 -9.16777E+03  1.24005E+04 -1.60031E+04  2.90432E+03
 -1.12270E+04 -8.36446E+03  4.25448E+02 -1.40608E+04  9.10403E+03 -7.47555E+03  1.00760E+04  3.46635E+03
  2.43531E+03  1.06607E+04 -8.81454E+03  1.22282E+04 -1.43432E+04  5.09566E+03 -1.46490E+04 -5.33897E+03
 -8.35295E+03 -1.62117E+04  3.65089E+03 -1.88182E+04  1.57350E+04 -1.10514E+04  1.72926E+04  3.21225E+03
  1.04528E+04  1.34582E+04 -1.37958E+03  1.60349E+04 -1.17568E+04  9.18844E+03 -1.31255E+04 -1.44798E+03
 -1.09931E+04 -1.08810E+04 -1.40717E+03 -1.21764E+04  6.94404E+03 -1.01550E+04  8.02449E+03 -4.02356E+03
  5.05620E+03  2.33640E+03 -1.12506E+03  1.96950E+03 -5.88020E+02 -3.31755E+03  2.48471E+03 -7.82846E+03
  1.21223E+04 -5.14128E+03  1.69187E+04  1.77702E+03  1.62095E+04  1.13206E+04  1.04173E+04  2.18803E+04
 -5.36668E+03  2.46694E+04 -2.08641E+04  1.84271E+04 -2.67931E+04  3.57365E+03 -2.18802E+04 -9.84106E+03
 -1.09329E+04 -1.76343E+04 -4.12506E+02 -1.53879E+04  5.81149E+03 -9.01602E+03  5.87176E+03 -5.89153E+03
  3.59119E+03 -3.23836E+03  4.00634E+03 -3.96453E+03  6.23152E+03 -4.01527E+03  8.30807E+03 -1.41146E+03
  1.09675E+04  2.46838E+03  6.35755E+03  9.62590E+03 -2.27306E+03  1.15182E+04 -1.21636E+04  9.00107E+03
 -1.54533E+04 -7.93074E+02 -1.00981E+04 -1.02148E+04 -1.75075E+03 -1.63451E+04  8.76966E+03 -1.67025E+04
  1.68893E+04 -9.12849E+03  2.04210E+04  3.09189E+03  1.42235E+04  1.45119E+04  2.04341E+03  1.85320E+04
 -7.68749E+03  1.48248E+04 -1.09637E+04  5.16459E+03 -7.60069E+03 -1.89576E+03 -3.32972E+03 -2.12782E+03
 -1.49580E+03 -4.58963E+02 -2.49618E+03  3.23916E+03 -6.59148E+03  2.58358E+03 -1.06042E+04 -1.35115E+03
 -7.42872E+03 -1.01112E+04 -2.58216E+02 -1.51072E+04  9.56355E+03 -1.39007E+04  1.52852E+04 -4.35464E+03
  1.54412E+04  7.33688E+03  7.55706E+03  1.39110E+04 -3.28322E+03  1.53361E+04 -1.09596E+04  9.67805E+03
 -1.44789E+04  1.26779E+02 -1.12137E+04 -9.38552E+03 -1.63811E+03 -1.28940E+04  6.91270E+03 -9.61982E+03
  9.84402E+03 -3.06722E+03  7.00720E+03  2.91747E+03  2.35116E+03  4.03260E+03  1.52321E+03  2.44753E+03
  2.98959E+03  1.36794E+03  3.65366E+03  2.15019E+03  4.53702E+03  5.08706E+03  3.75792E+03  8.69529E+03
 -3.09856E+03  1.20441E+04 -1.06157E+04  1.19542E+04 -1.62266E+04  3.06966E+03 -1.63046E+04 -7.10779E+03
 -7.59555E+03 -1.60467E+04  2.05979E+03 -1.69400E+04  9.39846E+03 -1.10692E+04  1.29145E+04 -3.15332E+03
  9.74114E+03  5.99439E+03  2.66638E+03  8.74960E+03 -4.33348E+03  5.44574E+03 -6.42087E+03 -9.81899E+02
 -2.97661E+03 -6.48646E+03  3.56667E+03 -7.25854E+03  6.52785E+03 -3.29312E+03  6.80796E+03  1.69211E+03
  3.65953E+03  3.03657E+03  1.78613E+03  3.10022E+03 -6.20937E+02  2.12653E+03  1.73878E+03 -6.47130E+02
  2.43985E+03 -9.51296E+02  6.52407E+03  2.35271E+03  3.69431E+03  8.24084E+03 -1.38378E+03  1.12037E+04
 -7.73971E+03  7.28645E+03 -1.02136E+04  2.00097E+03 -8.37196E+03 -3.78870E+03 -3.51555E+03 -6.10502E+03
  7.79024E+02 -6.15162E+03  3.85808E+03 -3.08658E+03  3.59255E+03  2.79016E+03 -1.33329E+03  4.99234E+03
 -6.45275E+03  3.29378E+03 -7.51651E+03 -3.71293E+03 -4.71825E+03 -8.63927E+03  1.64689E+03 -8.81128E+03
  5.10302E+03 -5.14265E+03  6.44959E+03 -7.44885E+02  5.17868E+03  2.46711E+03  4.10909E+02  4.77309E+03
 -2.92538E+03  1.66115E+03 -4.07617E+03 -3.38238E+03  1.61152E+03 -6.58368E+03  7.96392E+03 -5.41699E+03
  1.01864E+04  8.95666E+02  9.62275E+03  6.62977E+03  3.04550E+03  1.04469E+04 -3.28466E+03  9.46950E+03
 -8.42235E+03  4.34823E+03 -8.60836E+03 -1.39057E+03 -4.64778E+03 -6.51800E+03  1.94094E+03 -6.67889E+03
  6.16884E+03 -3.07542E+03  5.47317E+03  2.87129E+03  1.89470E+03  5.81249E+03 -1.00885E+03  5.09873E+03
 -2.53207E+03  2.97423E+03 -2.55266E+03  1.41921E+03 -1.61318E+03  1.41924E+03 -1.74586E+03  2.28336E+03
 -2.57899E+03  3.78747E+03 -6.96358E+03  3.56168E+03 -1.01974E+04  8.08798E+01 -1.13448E+04 -6.77169E+03
 -6.52998E+03 -1.40449E+04  2.67641E+03 -1.55222E+04  9.45326E+03 -1.26282E+04  1.52692E+04 -4.95965E+03
  1.43739E+04  3.04595E+03  8.79564E+03  9.93251E+03  5.76622E+02  1.07773E+04 -4.42843E+03  8.18394E+03
 -6.15741E+03  3.04342E+03 -3.48346E+03 -1.17398E+03 -1.11205E+03 -8.00396E+02 -7.34999E+02 -4.09545E+02
 -1.91416E+03  4.95065E+02 -1.96224E+03 -6.88389E+02 -8.94216E+02 -2.25552E+03 -1.27901E+02 -3.86653E+03
  4.82529E+03 -3.44789E+03  6.65483E+03 -2.30008E+02  7.54306E+03  5.58803E+03  1.75830E+03  1.04815E+04
 -5.48699E+03  1.26044E+04 -1.16280E+04  7.04502E+03 -1.32951E+04 -1.10174E+03 -1.01255E+04 -7.89855E+03
 -4.24786E+03 -1.14240E+04  2.60329E+03 -1.02330E+04  7.18813E+03 -5.77082E+03  6.96369E+03  5.97476E+02
  3.87547E+03  3.34926E+03 -4.16331E+02  3.17756E+03 -2.11709E+03 -2.47031E+02  9.02084E+01 -2.78637E+03
  3.72086E+03 -1.70114E+03  4.02529E+03  1.31606E+03  2.99046E+03  4.13805E+03 -1.32704E+02  5.52510E+03
 -4.76819E+03  4.98821E+03 -7.34243E+03  1.82053E+02 -6.60104E+03 -5.19461E+03 -6.03967E+02 -9.06350E+03
  5.66475E+03 -7.52750E+03  8.43871E+03 -2.36260E+03  8.47669E+03  2.29180E+03  4.66991E+03  6.59876E+03
  1.02327E+03  6.88091E+03 -2.36135E+03  6.16826E+03 -4.60061E+03  3.59593E+03 -3.63088E+03  7.96702E+02
 -2.16462E+03 -1.61017E+02 -1.64250E+03  7.15154E+02 -3.99069E+03  1.16147E+03 -5.74346E+03 -1.05629E+03
 -5.58779E+03 -4.18102E+03 -1.46807E+03 -7.37756E+03  3.03829E+03 -7.67692E+03  6.50410E+03 -3.98972E+03
  7.80718E+03  1.10300E+03  3.99943E+03  5.24082E+03 -8.08297E+02  7.57796E+03 -5.81985E+03  5.10533E+03
