 $NMID ID='MM_0lb_SNR800_18hz_g40_62.RAW', FMTDAT='(8E13.5)'
 TRAMP=1., VOLUME=1. $END
  3.09713E+05  3.94305E+02  3.37163E+05  2.50381E+05  8.44048E+04  3.37176E+05 -1.32479E+05  2.50340E+05
 -1.89715E+05  8.25254E+04 -1.10820E+05 -3.30858E+04  1.32778E+03 -5.05254E+04  5.40569E+04  2.33715E+02
  3.52412E+04  5.28796E+04 -1.68463E+04  7.50333E+04 -6.01833E+04  6.24417E+04 -8.29970E+04  3.13971E+04
 -7.94390E+04 -1.11547E+04 -5.58109E+04 -4.98736E+04 -1.50380E+04 -6.81559E+04  2.65391E+04 -4.44157E+04
  3.89161E+04  3.99959E+03  1.53828E+04  4.70255E+04 -3.38061E+04  4.61279E+04 -6.51192E+04 -5.47526E+02
 -5.19690E+04 -5.58600E+04 -6.24407E+03 -7.48093E+04  3.28726E+04 -5.33342E+04  4.61740E+04 -1.57887E+04
  4.15546E+04  1.10730E+04  3.05466E+04  2.45178E+04  1.59076E+04  2.82777E+04 -4.52745E+03  2.66048E+04
 -2.15311E+04  1.26140E+04 -1.91720E+04 -4.18331E+03  4.08119E+03 -7.95464E+03  2.11165E+04  1.08862E+04
  7.42233E+03  3.30811E+04 -3.02631E+04  3.38133E+04 -6.08301E+04  2.30984E+03 -5.49295E+04 -4.10491E+04
 -1.25473E+04 -6.04853E+04  3.77463E+04 -4.31607E+04  5.53350E+04 -1.76909E+03  3.16669E+04  3.05526E+04
 -6.61532E+03  3.27684E+04 -2.81224E+04  1.31191E+04 -2.74451E+04 -5.29135E+03 -1.41630E+04 -9.79325E+03
 -7.38033E+03 -1.12627E+04 -9.14638E+02 -1.63255E+04  6.40650E+03 -2.23516E+04  1.51333E+04 -1.43436E+04
  1.22878E+04  4.10022E+03 -5.85224E+03  1.31034E+04 -1.88513E+04 -2.17573E+03 -8.34318E+03 -2.98936E+04
  2.06373E+04 -4.01965E+04  4.42377E+04 -1.83700E+04  4.17971E+04  1.80321E+04  1.41153E+04  4.14698E+04
 -1.53998E+04  3.10237E+04 -2.30835E+04  1.24355E+03 -7.94007E+03 -2.63288E+04  2.06071E+04 -3.08209E+04
  3.77872E+04 -7.29679E+03  3.11552E+04  2.27812E+04  1.51694E+04  4.21799E+04 -7.41746E+03  4.46812E+04
 -2.80667E+04  2.93787E+04 -3.69092E+04  8.10501E+03 -3.78374E+04 -1.48763E+04 -2.11322E+04 -3.40500E+04
  6.76313E+03 -3.38314E+04  2.90091E+04 -1.24552E+04  2.67028E+04  1.07244E+04  2.76192E+03  1.76515E+04
 -1.33001E+04  7.08980E+03 -9.50934E+03 -7.91436E+03  5.90308E+03 -1.01973E+04  1.70692E+04  6.41132E+03
  1.22074E+04  2.16790E+04 -6.82998E+03  2.32185E+04 -2.12165E+04  9.15787E+03 -2.50324E+04 -6.49339E+03
 -1.63007E+04 -1.62586E+04 -5.42985E+03 -1.64844E+04  3.78603E+03 -1.40968E+04  1.21545E+04 -1.40486E+04
  2.10278E+04 -1.15777E+04  2.78664E+04  1.04943E+03  2.12657E+04  1.62864E+04  3.96458E+03  3.20136E+04
 -1.57798E+04  2.74927E+04 -2.58586E+04  9.34603E+03 -1.96797E+04 -1.00816E+04 -3.87367E+03 -1.37987E+04
  2.74321E+03 -4.38076E+03 -2.53996E+03  5.17267E+03 -1.28217E+04  5.33421E+03 -1.31359E+04 -4.83808E+03
 -8.62839E+03 -1.52973E+04  4.51857E+03 -1.94645E+04  1.21932E+04 -1.40172E+04  1.44481E+04 -1.49851E+03
  8.79873E+03  1.06232E+04 -5.34874E+02  1.55924E+04 -1.02216E+04  8.54138E+03 -1.52024E+04 -3.73583E+03
 -1.12028E+04 -1.40802E+04 -1.55942E+03 -1.88612E+04  8.31366E+03 -1.50522E+04  1.58326E+04 -7.14071E+03
  1.43438E+04  6.56054E+02  1.02834E+04  3.54994E+03  4.97460E+03  3.69204E+02  7.60993E+03 -1.02121E+03
  1.36988E+04  2.44098E+03  1.46394E+04  1.26363E+04  9.15995E+03  2.42558E+04 -2.97575E+03  2.62416E+04
 -1.55525E+04  2.00288E+04 -2.42637E+04  9.47263E+03 -2.48067E+04 -1.72701E+03 -2.10597E+04 -1.39974E+04
 -9.92407E+03 -2.03161E+04  6.54305E+03 -1.86952E+04  1.65710E+04 -1.08043E+04  1.54310E+04  3.58418E+03
  6.42713E+03  1.09292E+04 -7.14270E+03  1.02936E+04 -1.31567E+04  2.13266E+03 -1.02603E+04 -8.10905E+03
 -2.46004E+02 -1.22072E+04  6.09998E+03 -9.48159E+03  7.69872E+03 -1.52992E+03  1.22998E+03  4.86298E+03
 -5.50598E+03  1.42737E+03 -3.78468E+03 -4.49560E+03  7.30771E+02 -1.00956E+04  7.84225E+03 -9.92277E+03
  1.23339E+04 -4.53511E+03  1.17133E+04  2.53169E+03  1.00606E+04  9.31939E+03  4.67229E+03  1.36913E+04
 -1.60576E+03  1.57713E+04 -9.67859E+03  1.00674E+04 -1.09582E+04  3.20613E+03 -8.42813E+03 -1.80653E+03
 -4.35265E+03 -2.87059E+03 -6.90033E+02  1.50770E+03 -1.90635E+03  1.89148E+03 -3.59534E+03  3.70744E+03
 -7.87065E+03 -5.37523E+02 -8.80831E+03 -6.99045E+03 -3.55895E+03 -1.12377E+04  3.59924E+03 -8.20572E+03
  7.05598E+03 -3.79910E+03  5.20742E+03  1.89727E+03  6.41295E+02  3.04663E+03 -3.31294E+03 -1.56718E+02
 -3.37941E+03 -5.06450E+03 -6.82270E+02 -7.18613E+03  3.94707E+03 -7.70276E+03  9.96573E+03 -4.30144E+03
  1.16784E+04  5.50951E+02  8.70492E+03  5.98409E+03  1.92416E+03  8.24914E+03 -5.24409E+03  8.27827E+03
 -6.83312E+03  2.86581E+03 -3.48549E+03 -1.35941E+03  1.24207E+03 -1.97948E+03  4.79273E+03 -9.89534E+02
  4.02479E+03  3.30210E+03  1.13388E+03  6.34404E+03 -4.54555E+03  6.35129E+03 -7.88931E+03  1.71234E+03
 -5.24958E+03 -3.62991E+03  1.99520E+02 -6.69100E+03  3.75853E+03 -3.20804E+03  3.52415E+03  8.39495E+02
  4.98625E+02  3.41281E+03 -4.02900E+03  5.01443E+03 -4.84524E+03  2.39595E+03 -4.43629E+03 -1.03035E+03
 -2.55209E+03 -6.22331E+03  1.06883E+03 -6.90135E+03  5.95296E+03 -4.67374E+03  6.49397E+03  1.01494E+03
  4.56280E+03  5.22033E+03 -2.92732E+01  7.14320E+03 -4.97555E+03  4.19681E+03 -5.21249E+03 -3.23962E+02
 -5.64300E+03 -5.12471E+03 -1.62349E+03 -4.96921E+03  2.49635E+03 -4.82171E+03  3.15377E+03 -2.97364E+03
  2.60876E+03  2.46372E+02  2.06884E+02  1.24541E+03  5.76597E+02 -4.27431E+02  5.87766E+01 -1.92047E+03
  3.83596E+03 -7.25564E+02  5.44450E+03  4.32142E+02  5.70083E+03  3.20255E+03  5.52425E+03  7.23219E+03
 -1.17636E+03  8.63034E+03 -7.98583E+03  6.64995E+03 -9.83895E+03  1.03020E+03 -7.89746E+03 -2.87074E+03
 -4.40089E+03 -6.73043E+03 -3.63680E+02 -5.01591E+03  2.17512E+03 -2.18756E+03  1.74087E+03 -2.38036E+03
  1.16237E+03 -1.81251E+03  2.29573E+03 -2.46556E+03  3.53535E+03 -1.40306E+03  3.37535E+03  5.09524E+02
  4.31790E+03  1.06801E+03  1.28115E+03  3.49924E+03 -1.85953E+03  2.99973E+03 -4.45696E+03  2.63454E+03
 -5.05383E+03 -9.97982E+02 -1.91744E+03 -3.39793E+03  3.87795E+02 -5.06183E+03  3.32956E+03 -5.43085E+03
  5.55250E+03 -3.16181E+03  6.79685E+03  1.18160E+02  5.26070E+03  4.43543E+03  1.15143E+03  6.04584E+03
 -2.41312E+03  6.07300E+03 -3.37949E+03  1.90001E+03 -1.80747E+03 -1.12047E+03 -6.64067E+02 -2.80421E+02
 -3.93039E+02  5.90592E+02 -9.36907E+02  1.70286E+03 -2.70018E+03  1.09195E+03 -4.29986E+03 -3.67569E+02
 -1.49204E+03 -4.09706E+03  8.45055E+02 -4.62914E+03  2.77461E+03 -4.56348E+03  3.68732E+03 -1.05359E+03
  4.36648E+03  2.46622E+03  2.13233E+03  3.50999E+03 -8.58436E+02  4.58580E+03 -2.62768E+03  2.80120E+03
 -4.00116E+03  7.48036E+02 -3.65000E+03 -2.67758E+03 -2.50789E+02 -3.25323E+03  1.65190E+03 -2.49746E+03
  2.60540E+03 -1.39998E+03  1.83870E+03  3.79955E+02  2.73348E+02  1.36599E+03  9.69912E+02  5.87672E+02
  1.61190E+03  6.76472E+02  1.12434E+03  1.15888E+03  1.22406E+03  2.42060E+03  2.05457E+03  2.05019E+03
 -1.29614E+03  2.91902E+03 -2.73093E+03  4.36392E+03 -3.22206E+03  1.10892E+03 -4.44824E+03 -5.29870E+02
 -1.92230E+03 -3.80924E+03  4.33144E+02 -4.93038E+03  2.02894E+03 -2.63419E+03  3.06427E+03 -1.10339E+03
  2.20879E+03  1.91312E+03  4.04889E+02  2.12654E+03 -8.06943E+02  1.28395E+03 -8.36277E+02 -9.88210E+01
 -6.63645E+02 -1.92760E+03  1.20208E+03 -1.72322E+03  1.74079E+03 -1.00840E+03  1.20207E+03  2.94090E+02
  5.23298E+02  5.55733E+02  6.07872E+02 -1.74819E+02 -3.58139E+02  8.11411E+02  1.58504E+03 -4.29055E+02
  1.10946E+02 -1.91824E+02  2.03176E+03  5.43395E+02  3.62652E+02  2.39148E+03 -3.13248E+02  2.97909E+03
 -1.87008E+03  1.14763E+03 -2.42120E+03  2.07190E+02 -2.26834E+03 -8.95025E+02 -3.66654E+02 -1.15713E+03
  3.20527E+02 -1.46507E+03  7.78923E+02 -7.77805E+02  5.77311E+02  1.30844E+03 -7.73514E+02  1.17649E+03
 -1.72791E+03  9.16230E+02 -1.18852E+03 -1.49180E+03 -7.52267E+02 -2.37762E+03  1.18380E+02 -1.69987E+03
  4.68658E+02 -8.39434E+02  9.11687E+02  4.67315E+01  1.45212E+03 -2.68991E+02  3.96360E+02  1.06243E+03
 -2.68351E+02  3.12608E+02 -1.04460E+03 -3.25291E+02  8.71206E+02 -7.57889E+02  1.82662E+03 -9.44652E+02
  1.47274E+03  5.38904E+02  2.99359E+03  7.32305E+02  1.29136E+03  1.84644E+03 -3.42956E+02  2.26378E+03
 -1.58314E+03  5.89631E+02 -1.54093E+03 -2.99464E+02 -9.63654E+02 -1.35602E+03  3.92003E+02 -4.43313E+02
  1.34260E+03 -6.79340E+02  5.61524E+02  7.00559E+02  2.65338E+02  1.52106E+03  2.34321E+02  1.18364E+03
 -3.76180E+02  1.06377E+03 -6.78557E+02  3.53655E+02  2.05846E+02  4.74141E+02 -7.63743E+02  6.81182E+02
 -8.35897E+02  1.23144E+03 -2.10656E+03  6.25145E+02 -2.03957E+03  1.69840E+02 -2.45395E+03 -1.20510E+03
 -1.19166E+03 -2.70513E+03  3.77359E+02 -2.88893E+03  1.10812E+03 -2.66286E+03  2.73936E+03 -1.01848E+03
  2.34477E+03 -1.69404E+01  1.38764E+03  1.57055E+03 -2.48534E+02  1.54225E+03 -7.27573E+02  1.32197E+03
 -8.09224E+02  5.79725E+02 -1.01682E+03 -4.75065E+02 -5.33846E+02  5.65218E+02 -5.95618E+02  9.28417E+01
 -8.73334E+02 -2.03325E+01 -1.20252E+03 -1.15136E+02  2.42585E+02 -6.02831E+02 -1.92304E+02 -8.17763E+02
  1.35659E+03 -4.41750E+02  6.25987E+02  9.26126E+01  1.33631E+03  1.22699E+03 -4.74029E+02  1.64829E+03
 -1.28784E+03  2.52043E+03 -2.23531E+03  1.73128E+03 -1.94858E+03 -2.37289E+02 -1.06240E+03 -1.47171E+03
 -1.03979E+03 -1.30659E+03  2.99195E+02 -1.37353E+03  5.57672E+02 -7.28478E+02  6.21250E+02  1.59391E+02
  6.91558E+02  2.37381E+02 -1.49858E+02  6.71020E+02 -4.77977E+02  3.65368E+01  1.09741E+02 -2.03629E+02
  4.15264E+02  3.94717E+02  1.73108E+02  3.21475E+02  8.36128E+01  6.17142E+02  4.49563E+02  2.74604E+02
 -7.46456E+02  8.36078E+02 -5.98863E+02  5.19404E+01 -1.00123E+03 -5.66068E+02 -9.52506E+01 -1.38570E+03
  7.24748E+02 -8.36587E+02  7.18602E+02 -1.58314E+02  1.52971E+03 -6.06759E+02  6.37165E+02  9.50592E+02
  4.94870E+02  7.32640E+02 -1.83010E+02  7.96672E+02 -7.99614E+02  7.20378E+02 -4.92531E+02  2.65179E+02
 -2.23924E+02  4.83429E+01 -5.53840E+02  2.23346E+02 -7.68025E+02  2.69271E+02 -6.69087E+02 -3.91908E+02
 -9.56511E+02  3.52467E+02 -4.25363E+02 -9.30373E+02  4.45144E+02 -1.66821E+03  9.51974E+02 -4.64582E+02
  8.38397E+02  2.42854E+02 -4.22312E+02  3.21040E+02 -1.20225E+02  1.03059E+03 -3.95628E+02  6.96962E+02
