 $NMID ID='MM_0lb_SNR800_16hz_g45_36.RAW', FMTDAT='(8E13.5)'
 TRAMP=1., VOLUME=1. $END
  3.09881E+05  2.01656E+02  3.37610E+05  2.50648E+05  8.45583E+04  3.37567E+05 -1.32610E+05  2.50494E+05
 -1.89856E+05  8.26942E+04 -1.11238E+05 -3.26239E+04  1.26833E+03 -5.01529E+04  5.39478E+04 -1.65832E+02
  3.51183E+04  5.30417E+04 -1.69827E+04  7.49893E+04 -6.03992E+04  6.31713E+04 -8.35522E+04  3.18624E+04
 -8.00151E+04 -1.10311E+04 -5.69206E+04 -5.07597E+04 -1.50707E+04 -6.85777E+04  2.67466E+04 -4.54846E+04
  3.93173E+04  4.01590E+03  1.56285E+04  4.71830E+04 -3.42786E+04  4.65233E+04 -6.59725E+04 -5.13090E+02
 -5.24439E+04 -5.63850E+04 -6.40641E+03 -7.59789E+04  3.31219E+04 -5.40745E+04  4.68227E+04 -1.66866E+04
  4.23255E+04  1.13153E+04  3.11644E+04  2.51106E+04  1.56629E+04  2.86372E+04 -4.99576E+03  2.70754E+04
 -2.18428E+04  1.23411E+04 -1.90462E+04 -4.61588E+03  4.96675E+03 -7.39372E+03  2.16903E+04  1.15794E+04
  7.58498E+03  3.41037E+04 -3.11639E+04  3.47247E+04 -6.20176E+04  2.21910E+03 -5.60928E+04 -4.19586E+04
 -1.23384E+04 -6.18233E+04  3.90341E+04 -4.47131E+04  5.66352E+04 -1.94017E+03  3.27765E+04  3.12920E+04
 -6.16707E+03  3.44710E+04 -2.93485E+04  1.47222E+04 -2.90967E+04 -5.09034E+03 -1.57235E+04 -1.03516E+04
 -7.81521E+03 -1.21323E+04 -8.55927E+02 -1.73827E+04  7.22933E+03 -2.25081E+04  1.50159E+04 -1.38190E+04
  1.17253E+04  4.51038E+03 -7.21686E+03  1.27954E+04 -2.02285E+04 -3.05648E+03 -7.96221E+03 -3.17676E+04
  2.16579E+04 -4.17944E+04  4.64093E+04 -1.92756E+04  4.35402E+04  1.87840E+04  1.48688E+04  4.25333E+04
 -1.54828E+04  3.21195E+04 -2.43531E+04  1.49450E+03 -9.01602E+03 -2.69365E+04  2.05937E+04 -3.22813E+04
  3.94552E+04 -8.34888E+03  3.32810E+04  2.30402E+04  1.66546E+04  4.46154E+04 -7.75873E+03  4.75347E+04
 -3.02320E+04  3.15154E+04 -3.93932E+04  8.85005E+03 -4.01823E+04 -1.57116E+04 -2.22311E+04 -3.60696E+04
  6.91203E+03 -3.58686E+04  3.01781E+04 -1.39082E+04  2.76933E+04  1.10480E+04  3.15293E+03  1.85069E+04
 -1.31327E+04  7.75765E+03 -9.69444E+03 -7.51360E+03  5.95620E+03 -1.03269E+04  1.76509E+04  6.29634E+03
  1.25915E+04  2.20740E+04 -6.34058E+03  2.41470E+04 -2.17338E+04  1.01648E+04 -2.66673E+04 -5.88759E+03
 -1.83448E+04 -1.66869E+04 -7.07525E+03 -1.83125E+04  3.81163E+03 -1.69054E+04  1.41600E+04 -1.63024E+04
  2.37021E+04 -1.23912E+04  3.00579E+04  1.97310E+03  2.25618E+04  1.80562E+04  3.93965E+03  3.43193E+04
 -1.70633E+04  2.89536E+04 -2.68846E+04  9.99419E+03 -2.01849E+04 -1.03909E+04 -4.40862E+03 -1.37761E+04
  1.88536E+03 -3.35905E+03 -3.56479E+03  5.90849E+03 -1.45000E+04  5.29548E+03 -1.45713E+04 -5.78192E+03
 -9.45898E+03 -1.69912E+04  4.60269E+03 -2.11358E+04  1.39986E+04 -1.50532E+04  1.59932E+04 -1.68787E+03
  9.98640E+03  1.17581E+04 -1.06150E+03  1.72365E+04 -1.14825E+04  9.71708E+03 -1.69851E+04 -3.45331E+03
 -1.26010E+04 -1.53675E+04 -1.43946E+03 -2.11874E+04  9.23715E+03 -1.67000E+04  1.74600E+04 -8.18064E+03
  1.58666E+04  4.77384E+02  1.15923E+04  4.13662E+03  5.48955E+03  9.82004E+02  8.49438E+03 -1.71183E+03
  1.55541E+04  2.52844E+03  1.73506E+04  1.37543E+04  1.06373E+04  2.72967E+04 -3.10950E+03  3.02519E+04
 -1.75494E+04  2.36214E+04 -2.78298E+04  1.13282E+04 -2.87108E+04 -2.06305E+03 -2.42452E+04 -1.66340E+04
 -1.08412E+04 -2.39252E+04  7.67912E+03 -2.16452E+04  1.85384E+04 -1.17934E+04  1.71515E+04  4.61647E+03
  6.95329E+03  1.25415E+04 -7.81043E+03  1.16701E+04 -1.45534E+04  2.62234E+03 -1.10583E+04 -8.69989E+03
 -1.68185E+02 -1.38894E+04  7.29527E+03 -1.04738E+04  8.91763E+03 -1.32325E+03  1.85634E+03  5.96854E+03
 -6.21469E+03  2.03590E+03 -4.83001E+03 -5.00763E+03  8.84949E+01 -1.19036E+04  8.72428E+03 -1.20518E+04
  1.43722E+04 -5.90472E+03  1.47312E+04  2.74165E+03  1.28413E+04  1.17251E+04  5.91924E+03  1.70192E+04
 -2.62112E+03  1.87866E+04 -1.16340E+04  1.17673E+04 -1.31130E+04  3.03102E+03 -9.54056E+03 -2.42937E+03
 -4.96508E+03 -4.09107E+03 -8.19845E+02  1.36393E+03 -1.92328E+03  2.49552E+03 -4.32186E+03  3.93324E+03
 -9.28698E+03 -4.75297E+02 -1.00754E+04 -8.07055E+03 -4.09024E+03 -1.28504E+04  4.02545E+03 -9.94358E+03
  8.02337E+03 -4.09332E+03  6.05295E+03  2.61365E+03  2.11934E+02  3.44806E+03 -4.25939E+03  2.62937E+01
 -4.23247E+03 -6.12544E+03 -6.73095E+02 -8.62923E+03  4.97367E+03 -9.30309E+03  1.16429E+04 -4.90216E+03
  1.37719E+04  1.21420E+03  1.03429E+04  7.55889E+03  2.13680E+03  1.05089E+04 -5.88148E+03  9.69499E+03
 -8.09094E+03  2.77051E+03 -4.17402E+03 -1.49846E+03  1.42945E+03 -2.38745E+03  5.30550E+03 -1.16831E+03
  4.73424E+03  4.22433E+03  1.29184E+03  7.52067E+03 -5.19499E+03  7.44116E+03 -9.25976E+03  1.97150E+03
 -5.82145E+03 -4.70817E+03  5.41398E+02 -7.66367E+03  4.85482E+03 -3.94650E+03  4.22137E+03  1.60038E+03
  1.04998E+03  4.50780E+03 -4.89660E+03  5.93050E+03 -6.11871E+03  2.97514E+03 -6.10273E+03 -1.76517E+03
 -3.59512E+03 -7.80453E+03  1.84433E+03 -9.26270E+03  7.90811E+03 -5.74084E+03  8.25904E+03  1.58619E+03
  5.71223E+03  6.87619E+03 -7.13012E+01  8.72025E+03 -6.31403E+03  4.78772E+03 -6.78701E+03 -3.86731E+02
 -6.57583E+03 -6.14848E+03 -1.48170E+03 -6.37182E+03  3.23449E+03 -5.86426E+03  3.77332E+03 -3.02723E+03
  3.23543E+03  4.73872E+02 -3.51514E+02  1.60434E+03  2.67356E+02 -8.76088E+02  5.01297E+02 -3.18214E+03
  5.25574E+03 -1.54186E+03  6.80814E+03  1.00228E+03  7.52140E+03  4.54563E+03  6.34792E+03  9.66397E+03
 -1.74589E+03  1.13760E+04 -9.96006E+03  8.43709E+03 -1.27060E+04  1.71855E+03 -9.88219E+03 -3.35985E+03
 -5.07659E+03 -8.22008E+03 -6.88671E+01 -6.84918E+03  2.49912E+03 -3.18015E+03  2.38423E+03 -2.55409E+03
  1.90155E+03 -1.65787E+03  2.39848E+03 -2.65432E+03  3.68524E+03 -1.73778E+03  4.26703E+03  6.35243E+01
  5.29322E+03  1.44187E+03  1.94358E+03  4.07229E+03 -1.62310E+03  4.01102E+03 -5.86622E+03  3.42472E+03
 -6.53336E+03 -1.09939E+03 -3.27855E+03 -4.28946E+03  2.42888E+02 -6.54551E+03  3.93597E+03 -7.18033E+03
  6.75334E+03 -4.04112E+03  8.83164E+03  5.31667E+02  6.25877E+03  5.78882E+03  1.25582E+03  8.02579E+03
 -3.15115E+03  7.35333E+03 -4.34084E+03  2.33213E+03 -2.64648E+03 -1.12355E+03 -6.63071E+02 -7.14148E+02
 -6.17668E+02  1.34815E+02 -1.13866E+03  2.14544E+03 -3.16359E+03  1.08845E+03 -5.13234E+03 -6.26079E+02
 -2.36336E+03 -4.91371E+03  7.44904E+02 -6.15480E+03  3.66213E+03 -5.84036E+03  5.56254E+03 -1.65175E+03
  5.66939E+03  3.31908E+03  2.47757E+03  4.74191E+03 -1.15577E+03  6.13487E+03 -3.83698E+03  3.81814E+03
 -5.59430E+03  5.37962E+02 -4.65105E+03 -3.48668E+03 -5.69664E+02 -4.78588E+03  2.09219E+03 -3.55024E+03
  3.61097E+03 -1.66799E+03  2.52425E+03  9.17567E+02  6.22764E+02  2.00109E+03  9.79154E+02  7.23335E+02
  1.70410E+03  8.56409E+02  1.46293E+03  1.11783E+03  1.46008E+03  2.68449E+03  1.69484E+03  2.65545E+03
 -1.49374E+03  4.35187E+03 -3.80462E+03  5.23447E+03 -5.03264E+03  1.60313E+03 -5.85388E+03 -1.44236E+03
 -2.60104E+03 -5.46314E+03  8.38943E+02 -6.40232E+03  2.81689E+03 -3.68930E+03  4.47458E+03 -1.09466E+03
  3.42671E+03  2.69661E+03  8.91950E+02  3.13776E+03 -1.25497E+03  2.01183E+03 -1.86047E+03 -3.15845E+02
 -1.10475E+03 -2.18551E+03  1.66464E+03 -2.46694E+03  2.02211E+03 -1.89729E+03  2.10348E+03  5.35995E+02
  1.29775E+03  6.79749E+02  1.17768E+03  2.26642E+02 -5.87768E+02  1.11172E+03  1.52897E+03 -6.85348E+02
  5.89976E+02 -6.09492E+02  2.54882E+03  7.51980E+02  1.04474E+03  3.16039E+03 -2.19492E+02  3.95554E+03
 -2.74398E+03  2.00267E+03 -3.24688E+03  4.60940E+02 -2.88386E+03 -1.06564E+03 -8.07078E+02 -1.55027E+03
  2.92313E+02 -1.87159E+03  1.28646E+03 -1.07757E+03  1.23311E+03  1.34577E+03 -6.96137E+02  1.68606E+03
 -2.11819E+03  1.01186E+03 -2.04263E+03 -1.66272E+03 -1.21387E+03 -2.86786E+03  5.59792E+02 -2.47622E+03
  7.29959E+02 -1.23386E+03  1.47297E+03 -3.96064E+01  1.58488E+03 -5.64251E+01  4.52169E+02  1.72587E+03
 -7.85078E+02  6.49482E+01 -1.29595E+03 -8.57192E+02  5.66421E+02 -1.67336E+03  2.36903E+03 -1.16869E+03
  2.38135E+03  3.73753E+02  3.89779E+03  1.65082E+03  1.46842E+03  2.45270E+03 -5.82405E+02  2.93019E+03
 -2.25489E+03  6.78835E+02 -2.59018E+03 -4.36411E+02 -1.45315E+03 -1.88937E+03  6.89542E+02 -1.22077E+03
  2.03218E+03 -1.00896E+03  1.13379E+03  1.00009E+03  4.90144E+02  1.99098E+03 -1.24870E+02  1.41497E+03
 -7.08246E+02  1.33827E+03 -1.05383E+03  3.13583E+02 -6.49500E+01  5.82355E+02 -7.64812E+02  1.01382E+03
 -8.09257E+02  1.43145E+03 -2.56913E+03  1.20319E+03 -2.50107E+03  1.78601E+02 -3.48614E+03 -1.67533E+03
 -1.76589E+03 -3.73930E+03  6.05557E+02 -4.70356E+03  2.04680E+03 -3.76895E+03  4.23223E+03 -1.29244E+03
  3.96634E+03  3.58286E+02  1.90349E+03  2.66654E+03 -1.05758E+02  2.44900E+03 -9.36911E+02  1.97166E+03
 -1.57509E+03  1.16713E+03 -8.88687E+02 -4.00303E+02 -4.83156E+02  4.04087E+02 -7.34199E+02  2.93791E+01
 -1.25661E+03 -1.19891E+02 -1.04140E+03 -1.05307E+02  1.46402E+02 -7.66830E+02 -1.67277E+02 -1.03888E+03
  1.45314E+03 -9.14182E+02  8.82517E+02 -1.24040E+02  1.99093E+03  1.72225E+03 -1.37285E+02  2.38649E+03
 -1.63787E+03  3.32644E+03 -2.75611E+03  1.74725E+03 -2.74729E+03 -1.68580E+02 -2.42418E+03 -1.89862E+03
 -1.31805E+03 -2.74515E+03  7.49540E+02 -2.11177E+03  1.20629E+03 -1.19007E+03  1.49780E+03  2.02181E+02
  1.08462E+03  6.38000E+02  7.00661E-01  8.29201E+02 -6.29648E+02 -1.92842E+01 -2.00216E+02 -4.52202E+02
  9.28112E+02  7.56796E+01  8.12243E+02  7.01248E+02  5.24302E+02  7.93341E+02  4.12746E+02  8.54674E+02
 -1.09843E+03  1.10335E+03 -1.15173E+03  2.93847E+02 -1.46640E+03 -8.14767E+02  2.89599E+02 -2.00583E+03
  1.05786E+03 -1.27728E+03  1.24970E+03 -2.11617E+02  1.75166E+03 -1.48560E+02  1.13853E+03  1.28971E+03
  3.31883E+02  1.53936E+03 -3.72647E+02  1.20086E+03 -7.45825E+02  8.05950E+02 -6.14061E+02  1.73808E+02
 -3.64846E+02 -1.25320E+02 -7.45623E+02  2.54258E+02 -9.80232E+02  1.41700E+02 -1.19295E+03 -3.87574E+02
 -1.58927E+03 -1.97880E+02 -4.31370E+02 -1.47445E+03  1.12013E+03 -2.24902E+03  1.48900E+03 -7.24398E+02
  1.42728E+03  1.88756E+02  2.29483E+02  7.63700E+02 -2.22244E+02  1.63476E+03 -7.41384E+02  1.17128E+03
