 $NMID ID='MM_0lb_SNR800_16hz_g60_75.RAW', FMTDAT='(8E13.5)'
 TRAMP=1., VOLUME=1. $END
  3.09838E+05  4.39171E+02  3.37718E+05  2.50502E+05  8.47892E+04  3.38043E+05 -1.32588E+05  2.50751E+05
 -1.90528E+05  8.31235E+04 -1.11964E+05 -3.26270E+04  7.23487E+02 -5.04455E+04  5.37243E+04  4.58339E+01
  3.51223E+04  5.27064E+04 -1.68588E+04  7.53653E+04 -6.06766E+04  6.35520E+04 -8.43533E+04  3.18531E+04
 -8.09908E+04 -1.14204E+04 -5.70734E+04 -5.15403E+04 -1.50471E+04 -6.96486E+04  2.75328E+04 -4.59015E+04
  4.02309E+04  3.70706E+03  1.61730E+04  4.80037E+04 -3.42830E+04  4.71814E+04 -6.67904E+04 -3.51724E+02
 -5.36040E+04 -5.67218E+04 -6.67222E+03 -7.73185E+04  3.39123E+04 -5.51427E+04  4.81058E+04 -1.75413E+04
  4.36330E+04  1.13920E+04  3.19028E+04  2.55485E+04  1.57589E+04  2.92712E+04 -5.11559E+03  2.72484E+04
 -2.21528E+04  1.23310E+04 -1.86720E+04 -4.83404E+03  5.72367E+03 -7.60341E+03  2.22283E+04  1.22533E+04
  7.50561E+03  3.51351E+04 -3.22351E+04  3.57572E+04 -6.36590E+04  2.03412E+03 -5.73306E+04 -4.29064E+04
 -1.28727E+04 -6.34726E+04  3.98235E+04 -4.53804E+04  5.80213E+04 -2.24277E+03  3.46043E+04  3.22806E+04
 -6.02114E+03  3.62703E+04 -2.99964E+04  1.61929E+04 -3.03522E+04 -4.38150E+03 -1.68262E+04 -1.12436E+04
 -8.40003E+03 -1.29687E+04 -5.47285E+02 -1.81970E+04  7.46291E+03 -2.31164E+04  1.54763E+04 -1.33743E+04
  1.15308E+04  5.16180E+03 -8.26322E+03  1.30179E+04 -2.11696E+04 -4.53033E+03 -8.33653E+03 -3.38597E+04
  2.27264E+04 -4.34517E+04  4.83308E+04 -1.96094E+04  4.47573E+04  1.98868E+04  1.57617E+04  4.40565E+04
 -1.61623E+04  3.35336E+04 -2.55572E+04  1.89832E+03 -9.91278E+03 -2.79589E+04  2.08476E+04 -3.41260E+04
  4.11809E+04 -9.25715E+03  3.57972E+04  2.36929E+04  1.80661E+04  4.65957E+04 -8.12002E+03  4.99459E+04
 -3.17471E+04  3.37406E+04 -4.18914E+04  9.90377E+03 -4.26656E+04 -1.65588E+04 -2.36134E+04 -3.76823E+04
  6.98117E+03 -3.75599E+04  3.14079E+04 -1.47195E+04  2.92199E+04  1.06824E+04  4.02441E+03  1.92916E+04
 -1.33003E+04  8.25925E+03 -1.02686E+04 -7.59767E+03  5.86887E+03 -1.08686E+04  1.78971E+04  5.92211E+03
  1.32787E+04  2.17470E+04 -6.01167E+03  2.48365E+04 -2.24233E+04  1.13103E+04 -2.80980E+04 -4.95211E+03
 -2.05655E+04 -1.74518E+04 -8.12273E+03 -2.01390E+04  3.97012E+03 -1.92988E+04  1.56851E+04 -1.83126E+04
  2.57060E+04 -1.25882E+04  3.23766E+04  2.82737E+03  2.40855E+04  1.96985E+04  4.30872E+03  3.62423E+04
 -1.76414E+04  3.05244E+04 -2.79265E+04  1.05016E+04 -2.07255E+04 -1.03009E+04 -4.23944E+03 -1.35951E+04
  1.89689E+03 -2.65841E+03 -4.76333E+03  6.54859E+03 -1.59943E+04  5.28787E+03 -1.59355E+04 -6.52744E+03
 -9.91749E+03 -1.87355E+04  5.36868E+03 -2.26428E+04  1.50566E+04 -1.63737E+04  1.80185E+04 -1.45536E+03
  1.13559E+04  1.30326E+04 -1.04501E+03  1.86979E+04 -1.30216E+04  1.03355E+04 -1.86093E+04 -4.01465E+03
 -1.37268E+04 -1.67852E+04 -1.69493E+03 -2.26111E+04  1.00530E+04 -1.86170E+04  1.88692E+04 -9.41677E+03
  1.73443E+04  2.69250E+02  1.22397E+04  4.38642E+03  6.76118E+03  9.74372E+02  9.43332E+03 -1.53483E+03
  1.69598E+04  2.80569E+03  1.88158E+04  1.47372E+04  1.25106E+04  2.94346E+04 -3.35586E+03  3.36256E+04
 -1.92264E+04  2.66923E+04 -3.11857E+04  1.34684E+04 -3.22839E+04 -2.42647E+03 -2.70030E+04 -1.88147E+04
 -1.18235E+04 -2.66113E+04  9.19571E+03 -2.41231E+04  2.05397E+04 -1.25093E+04  1.86625E+04  5.42417E+03
  7.28311E+03  1.41249E+04 -8.66681E+03  1.22266E+04 -1.54797E+04  2.53190E+03 -1.22048E+04 -9.88102E+03
 -5.78938E+01 -1.47348E+04  7.99954E+03 -1.12623E+04  9.69686E+03 -1.62675E+03  1.98352E+03  6.71737E+03
 -6.76163E+03  2.10327E+03 -5.75953E+03 -5.50655E+03 -2.62699E+02 -1.28001E+04  9.17547E+03 -1.34968E+04
  1.57494E+04 -6.86699E+03  1.69403E+04  2.81124E+03  1.46193E+04  1.26859E+04  6.94364E+03  1.92318E+04
 -3.17099E+03  2.11724E+04 -1.31819E+04  1.32549E+04 -1.49326E+04  3.11003E+03 -1.08094E+04 -3.27671E+03
 -5.13547E+03 -4.73437E+03 -6.03257E+02  1.12782E+03 -2.29096E+03  2.58590E+03 -4.99312E+03  4.12051E+03
 -9.77777E+03 -7.05779E+02 -1.06731E+04 -8.44900E+03 -4.36732E+03 -1.42614E+04  4.30900E+03 -1.06544E+04
  9.01097E+03 -4.74192E+03  6.17707E+03  2.56380E+03  4.89154E+02  4.22462E+03 -4.48854E+03  9.41302E+01
 -4.73961E+03 -6.79478E+03 -5.28912E+02 -9.60922E+03  5.35327E+03 -1.06289E+04  1.30681E+04 -5.41373E+03
  1.55315E+04  1.00184E+03  1.15237E+04  8.55966E+03  2.44963E+03  1.16618E+04 -6.37276E+03  1.02822E+04
 -8.62345E+03  3.05365E+03 -4.53796E+03 -1.71271E+03  1.66958E+03 -2.74893E+03  5.76990E+03 -7.42414E+02
  4.99961E+03  4.45587E+03  1.23560E+03  8.38826E+03 -5.69687E+03  7.79495E+03 -1.01784E+04  2.19835E+03
 -6.20450E+03 -5.07478E+03  2.41530E+02 -8.66424E+03  5.33241E+03 -4.21583E+03  5.37602E+03  1.44121E+03
  1.14587E+03  5.12821E+03 -5.09326E+03  6.61157E+03 -7.34932E+03  3.23395E+03 -7.37438E+03 -2.52352E+03
 -4.20493E+03 -8.68631E+03  1.96685E+03 -1.00576E+04  8.65694E+03 -5.97155E+03  9.53898E+03  1.37991E+03
  5.87173E+03  7.42642E+03 -4.65793E+02  9.55157E+03 -6.92598E+03  5.55504E+03 -7.46701E+03 -8.20283E+02
 -7.51763E+03 -6.50160E+03 -1.57940E+03 -6.88453E+03  3.89051E+03 -5.83941E+03  4.05755E+03 -3.31601E+03
  3.32760E+03  6.73911E+02 -4.82465E+02  1.43872E+03  4.95410E+01 -8.93518E+02  1.09306E+03 -3.22120E+03
  5.78725E+03 -2.07458E+03  8.30544E+03  1.08236E+03  7.77971E+03  5.05335E+03  6.60916E+03  1.06454E+04
 -2.60693E+03  1.24872E+04 -1.07188E+04  9.21971E+03 -1.39374E+04  1.89114E+03 -1.11670E+04 -4.45619E+03
 -5.68145E+03 -9.09519E+03 -3.03779E+02 -7.45533E+03  2.86526E+03 -3.47382E+03  2.51562E+03 -2.76075E+03
  1.99239E+03 -1.96226E+03  2.55318E+03 -2.64440E+03  4.12793E+03 -1.74909E+03  4.64013E+03  3.70021E+01
  5.88844E+03  1.88809E+03  2.48615E+03  4.90969E+03 -1.45984E+03  4.78182E+03 -6.00358E+03  4.10316E+03
 -7.12730E+03 -1.02330E+03 -3.58212E+03 -4.95587E+03 -8.30170E+01 -7.46864E+03  4.22806E+03 -7.85829E+03
  7.76232E+03 -4.68061E+03  9.49024E+03  7.64426E+02  7.05310E+03  6.15672E+03  1.38245E+03  8.79284E+03
 -3.35362E+03  7.94161E+03 -4.70446E+03  2.81063E+03 -3.26448E+03 -1.23684E+03 -1.15143E+03 -1.05543E+03
 -8.24082E+02  4.39428E+02 -1.17445E+03  1.84877E+03 -3.39971E+03  1.31200E+03 -5.32459E+03 -5.96154E+02
 -2.96983E+03 -5.46083E+03  8.01696E+02 -6.84932E+03  4.00076E+03 -6.47253E+03  5.93768E+03 -1.63370E+03
  6.30470E+03  3.27224E+03  2.67115E+03  5.54906E+03 -1.23771E+03  6.65748E+03 -4.14640E+03  4.06102E+03
 -5.76757E+03  9.27582E+02 -5.09767E+03 -3.71193E+03 -4.83073E+02 -5.44660E+03  2.52913E+03 -4.04463E+03
  4.13236E+03 -1.46255E+03  2.44472E+03  1.07389E+03  8.77663E+02  2.17480E+03  1.15698E+03  6.75205E+02
  2.09422E+03  5.34545E+02  1.53072E+03  1.27319E+03  1.76357E+03  2.69720E+03  1.80985E+03  3.04060E+03
 -1.64346E+03  4.48612E+03 -4.19408E+03  5.62321E+03 -5.40185E+03  1.55813E+03 -6.38630E+03 -1.53825E+03
 -3.07897E+03 -5.56170E+03  9.86397E+02 -7.04440E+03  3.20030E+03 -4.21588E+03  5.04662E+03 -1.16673E+03
  3.98070E+03  2.39695E+03  7.21421E+02  3.55181E+03 -1.58399E+03  2.08688E+03 -1.85044E+03 -2.14206E+02
 -1.02423E+03 -2.39122E+03  1.72633E+03 -2.32214E+03  2.07881E+03 -1.33210E+03  2.29161E+03  4.16571E+02
  1.23404E+03  8.18475E+02  9.44574E+02  4.93095E+02 -2.24105E+02  7.16779E+02  1.63209E+03 -5.28097E+02
  5.68922E+02 -4.20776E+02  2.67787E+03  9.94373E+02  9.08467E+02  3.31383E+03 -2.96038E+02  4.31959E+03
 -2.62553E+03  2.15886E+03 -3.23249E+03  7.26116E+02 -3.23123E+03 -1.22839E+03 -5.49099E+02 -1.63188E+03
  4.96582E+02 -2.10008E+03  1.65543E+03 -8.29785E+02  1.02473E+03  1.52622E+03 -9.35464E+02  1.91755E+03
 -2.23677E+03  1.37057E+03 -2.09214E+03 -1.62257E+03 -1.17449E+03 -3.04987E+03  2.59047E+02 -2.58920E+03
  1.12186E+03 -1.28988E+03  1.79176E+03 -2.72875E+02  2.17529E+03  6.68423E+01  4.12967E+02  1.91578E+03
 -7.94399E+02  1.41944E+02 -1.36909E+03 -4.13974E+02  7.78419E+02 -1.42847E+03  2.55780E+03 -1.63568E+03
  2.35715E+03  2.08023E+02  3.70536E+03  1.85968E+03  1.63750E+03  2.80403E+03 -8.50872E+02  2.83746E+03
 -2.16874E+03  8.03114E+02 -2.77172E+03 -2.81796E+02 -1.44580E+03 -1.89974E+03  7.58763E+02 -1.41436E+03
  2.12556E+03 -1.02475E+03  1.67998E+03  6.65494E+02  3.60699E+02  1.99777E+03  8.63485E+01  1.62525E+03
 -2.83083E+02  1.50095E+03 -5.47116E+02  9.70130E+01 -6.63621E+01  5.80527E+02 -7.12885E+02  5.85669E+02
 -7.96999E+02  1.27308E+03 -2.15708E+03  5.66345E+02 -2.95136E+03  6.72313E+02 -3.26002E+03 -1.71152E+03
 -1.76071E+03 -3.70174E+03  8.59333E+02 -4.67205E+03  2.16990E+03 -3.49522E+03  4.43284E+03 -1.28267E+03
  4.10269E+03  2.98056E+02  1.98337E+03  2.50631E+03 -4.36416E+02  2.80424E+03 -1.37650E+03  2.23200E+03
 -1.64771E+03  1.02546E+03 -1.01228E+03 -3.22443E+02 -5.50184E+02 -3.43667E+02 -5.96702E+02  3.66899E+02
 -1.42852E+03 -1.04709E+02 -1.43785E+03 -8.79298E+01  3.72739E+02 -1.00621E+03 -1.86664E+02 -1.04157E+03
  1.68682E+03 -1.00562E+03  1.22301E+03 -1.62958E+02  1.91167E+03  1.31356E+03 -6.82523E+01  2.35920E+03
 -1.31258E+03  3.15465E+03 -2.76098E+03  2.18062E+03 -3.08636E+03 -1.57106E+02 -2.12340E+03 -1.65355E+03
 -1.32942E+03 -2.34064E+03  4.29150E+02 -2.43471E+03  9.15355E+02 -1.09940E+03  1.36562E+03  3.02860E+02
  1.22389E+03  4.74178E+02 -2.43163E+02  6.53220E+02 -3.63847E+02  3.27804E+01 -1.45872E+02 -4.99737E+02
  8.21874E+02 -4.60646E+01  4.30586E+02  6.65734E+02  6.16947E+02  9.67293E+02  3.36659E+02  8.14916E+02
 -1.16275E+03  9.60135E+02 -8.65728E+02  1.13830E+02 -1.28286E+03 -8.95507E+02 -1.17723E+02 -2.09210E+03
  1.09438E+03 -1.48047E+03  1.24952E+03 -4.64727E+02  1.66386E+03 -4.55066E+02  9.77780E+02  1.25352E+03
  5.98879E+02  1.18059E+03 -4.75595E+02  1.27577E+03 -7.73580E+02  9.92484E+02 -2.79402E+02  1.84942E+02
 -2.52030E+02 -7.63774E+01 -4.56895E+02  3.06991E+02 -8.53702E+02  1.10364E+02 -1.12685E+03 -3.20014E+02
 -1.47403E+03 -2.36780E+02 -7.04192E+02 -1.56835E+03  7.95286E+02 -2.21181E+03  1.09997E+03 -7.77033E+02
  1.26167E+03  3.62149E+02 -1.32817E+02  6.26140E+02  1.88261E+01  1.31160E+03 -8.77793E+02  1.40413E+03
