 $NMID ID='MM_0lb_SNR800_17hz_g40_74.RAW', FMTDAT='(8E13.5)'
 TRAMP=1., VOLUME=1. $END
  3.09967E+05  2.15068E+02  3.37388E+05  2.50493E+05  8.43954E+04  3.37637E+05 -1.32151E+05  2.50481E+05
 -1.89725E+05  8.24657E+04 -1.11064E+05 -3.27471E+04  1.45296E+03 -5.01083E+04  5.37630E+04  4.19270E+02
  3.51244E+04  5.31604E+04 -1.67851E+04  7.47760E+04 -6.03420E+04  6.26199E+04 -8.31783E+04  3.16034E+04
 -7.98024E+04 -1.10704E+04 -5.61734E+04 -5.04389E+04 -1.49970E+04 -6.84246E+04  2.69320E+04 -4.46536E+04
  3.93934E+04  3.75659E+03  1.56305E+04  4.72052E+04 -3.40939E+04  4.64594E+04 -6.56573E+04 -5.59871E+02
 -5.22895E+04 -5.58717E+04 -6.32044E+03 -7.53137E+04  3.32242E+04 -5.36140E+04  4.63762E+04 -1.62507E+04
  4.17412E+04  1.07596E+04  3.08350E+04  2.43837E+04  1.57167E+04  2.83381E+04 -4.86916E+03  2.66463E+04
 -2.15627E+04  1.29391E+04 -1.90259E+04 -4.31024E+03  4.30583E+03 -7.33879E+03  2.12763E+04  1.09340E+04
  7.41979E+03  3.35191E+04 -3.05745E+04  3.42872E+04 -6.10239E+04  2.46858E+03 -5.53374E+04 -4.12035E+04
 -1.21552E+04 -6.11001E+04  3.80705E+04 -4.35549E+04  5.58850E+04 -1.61613E+03  3.23947E+04  3.08294E+04
 -6.40946E+03  3.32432E+04 -2.83154E+04  1.34176E+04 -2.77664E+04 -5.10702E+03 -1.46979E+04 -1.03319E+04
 -7.75005E+03 -1.16406E+04 -1.06389E+03 -1.66009E+04  6.60768E+03 -2.24799E+04  1.50036E+04 -1.38357E+04
  1.17919E+04  4.38177E+03 -6.56091E+03  1.31639E+04 -1.94121E+04 -2.43527E+03 -7.98655E+03 -3.08812E+04
  2.09583E+04 -4.09899E+04  4.52780E+04 -1.86081E+04  4.22872E+04  1.83929E+04  1.43872E+04  4.19098E+04
 -1.54609E+04  3.13166E+04 -2.36564E+04  1.24426E+03 -8.38551E+03 -2.63365E+04  2.04066E+04 -3.12267E+04
  3.84967E+04 -7.62711E+03  3.19185E+04  2.26567E+04  1.58902E+04  4.28428E+04 -8.00686E+03  4.60392E+04
 -2.87252E+04  3.02186E+04 -3.78762E+04  8.42921E+03 -3.88993E+04 -1.52754E+04 -2.12387E+04 -3.45893E+04
  6.77662E+03 -3.45895E+04  2.96664E+04 -1.30079E+04  2.73012E+04  1.08673E+04  3.09515E+03  1.78630E+04
 -1.33059E+04  7.33691E+03 -9.73069E+03 -7.79193E+03  5.68639E+03 -1.02038E+04  1.74720E+04  6.27937E+03
  1.22811E+04  2.18053E+04 -6.77885E+03  2.35074E+04 -2.16800E+04  9.20457E+03 -2.56357E+04 -6.18842E+03
 -1.71355E+04 -1.65768E+04 -6.26569E+03 -1.72875E+04  3.88165E+03 -1.51426E+04  1.26131E+04 -1.47931E+04
  2.18319E+04 -1.16313E+04  2.86652E+04  1.04655E+03  2.16006E+04  1.70198E+04  3.99312E+03  3.29714E+04
 -1.62054E+04  2.77488E+04 -2.62344E+04  9.60173E+03 -1.97061E+04 -1.02488E+04 -4.11515E+03 -1.38903E+04
  2.35656E+03 -3.73223E+03 -2.79418E+03  5.47451E+03 -1.34997E+04  4.87523E+03 -1.39167E+04 -5.01696E+03
 -9.03682E+03 -1.59261E+04  4.29486E+03 -2.00509E+04  1.30217E+04 -1.43752E+04  1.51412E+04 -1.33009E+03
  9.24596E+03  1.15806E+04 -1.05993E+03  1.62319E+04 -1.05615E+04  9.00585E+03 -1.60576E+04 -3.58431E+03
 -1.21084E+04 -1.47242E+04 -1.55635E+03 -1.98301E+04  8.82810E+03 -1.60299E+04  1.63652E+04 -7.61324E+03
  1.49840E+04  6.91685E+02  1.07073E+04  3.78467E+03  5.75958E+03  5.47601E+02  7.99688E+03 -1.59423E+03
  1.44602E+04  2.71073E+03  1.57925E+04  1.31353E+04  9.54978E+03  2.52518E+04 -3.17645E+03  2.78545E+04
 -1.64732E+04  2.14410E+04 -2.56028E+04  1.02260E+04 -2.62826E+04 -2.03349E+03 -2.22203E+04 -1.48274E+04
 -1.03648E+04 -2.13501E+04  7.14386E+03 -1.99117E+04  1.75516E+04 -1.09492E+04  1.62595E+04  3.98537E+03
  6.91417E+03  1.14301E+04 -7.11521E+03  1.08712E+04 -1.35577E+04  2.79442E+03 -1.05385E+04 -8.27377E+03
 -1.12609E+02 -1.30447E+04  6.36968E+03 -9.52342E+03  8.19475E+03 -1.11171E+03  1.65590E+03  5.37892E+03
 -5.68617E+03  1.54589E+03 -4.01384E+03 -4.78624E+03  4.20980E+02 -1.05404E+04  8.16148E+03 -1.06453E+04
  1.29190E+04 -5.07543E+03  1.27215E+04  2.86879E+03  1.10280E+04  1.01577E+04  5.15570E+03  1.48012E+04
 -1.89211E+03  1.70661E+04 -1.03424E+04  1.08215E+04 -1.20462E+04  2.81980E+03 -8.90063E+03 -2.11212E+03
 -4.77664E+03 -3.41184E+03 -1.05014E+03  1.62138E+03 -1.99845E+03  2.13059E+03 -3.70391E+03  3.60824E+03
 -8.33563E+03 -5.94926E+02 -9.00213E+03 -7.40510E+03 -3.86937E+03 -1.21595E+04  3.62340E+03 -8.69020E+03
  7.46508E+03 -4.05052E+03  5.53166E+03  2.21773E+03  4.44281E+02  3.32742E+03 -3.59578E+03 -1.98293E+02
 -3.63890E+03 -5.44274E+03 -8.63335E+02 -7.44261E+03  4.67786E+03 -8.54711E+03  1.06105E+04 -4.16048E+03
  1.26018E+04  7.59115E+02  9.33618E+03  6.86831E+03  1.78295E+03  9.37916E+03 -5.54453E+03  8.82156E+03
 -7.46869E+03  2.85708E+03 -3.68739E+03 -1.57244E+03  1.41315E+03 -1.99972E+03  5.07105E+03 -9.21750E+02
  4.19636E+03  3.80423E+03  1.24444E+03  6.74643E+03 -4.68557E+03  6.79048E+03 -8.52261E+03  2.17376E+03
 -5.50470E+03 -3.90324E+03  4.45743E+02 -7.32460E+03  4.30289E+03 -3.44492E+03  4.00881E+03  1.24658E+03
  6.54046E+02  3.98506E+03 -4.47768E+03  5.30267E+03 -5.68131E+03  2.70403E+03 -4.96384E+03 -1.42294E+03
 -2.93204E+03 -6.89224E+03  1.34276E+03 -7.84156E+03  6.64071E+03 -5.05788E+03  7.17683E+03  1.00146E+03
  5.25870E+03  5.72372E+03  1.65606E+02  7.88225E+03 -5.62003E+03  4.71992E+03 -5.95564E+03 -4.22832E+02
 -5.97890E+03 -5.24803E+03 -1.63358E+03 -5.41590E+03  2.61642E+03 -4.95658E+03  3.25001E+03 -3.01677E+03
  2.86338E+03  1.25455E+02  2.91424E+01  1.44332E+03  5.74778E+02 -5.19666E+02  4.27491E+02 -2.29128E+03
  4.55998E+03 -1.26359E+03  6.15545E+03  8.80576E+02  6.09628E+03  3.58848E+03  5.42730E+03  8.31294E+03
 -1.44532E+03  9.10309E+03 -8.70368E+03  7.49410E+03 -1.10399E+04  1.34107E+03 -8.55681E+03 -3.24513E+03
 -4.74893E+03 -7.11844E+03 -3.67724E+02 -5.88773E+03  2.29074E+03 -2.38506E+03  2.11693E+03 -2.39839E+03
  1.35351E+03 -1.57271E+03  2.02915E+03 -2.53677E+03  3.69360E+03 -1.78861E+03  3.94356E+03  2.60105E+02
  5.21474E+03  1.17645E+03  1.92497E+03  3.99391E+03 -1.71877E+03  3.65251E+03 -4.69697E+03  3.13070E+03
 -5.91365E+03 -1.05105E+03 -2.42104E+03 -3.73115E+03  3.12807E+02 -5.66907E+03  3.36222E+03 -6.02529E+03
  5.85229E+03 -3.70101E+03  7.84803E+03  3.98381E+02  5.34613E+03  5.00188E+03  1.00433E+03  6.84671E+03
 -2.58104E+03  6.58621E+03 -3.79330E+03  1.84905E+03 -2.28621E+03 -1.02015E+03 -8.02642E+02 -5.79506E+02
 -6.60317E+02  2.13221E+02 -8.32176E+02  1.71877E+03 -2.85682E+03  1.25905E+03 -4.52414E+03 -7.24193E+02
 -2.20498E+03 -4.60970E+03  9.57200E+02 -5.19990E+03  3.40310E+03 -4.75891E+03  4.46138E+03 -1.19167E+03
  4.73234E+03  2.80303E+03  2.18621E+03  4.09390E+03 -9.70917E+02  5.09176E+03 -3.47786E+03  3.35592E+03
 -4.44500E+03  5.49247E+02 -4.12199E+03 -2.85391E+03 -7.48359E+01 -3.74117E+03  2.02925E+03 -3.00410E+03
  3.45280E+03 -1.48062E+03  1.80554E+03  7.31563E+02  7.72631E+02  1.79137E+03  6.93046E+02  7.25741E+02
  1.86498E+03  6.56811E+02  1.07680E+03  1.08853E+03  1.60551E+03  2.77569E+03  1.45450E+03  2.08344E+03
 -1.41167E+03  3.74949E+03 -3.19676E+03  4.40681E+03 -3.79451E+03  1.33819E+03 -4.91713E+03 -9.48206E+02
 -2.00822E+03 -4.41040E+03  9.18362E+02 -5.51649E+03  2.22425E+03 -2.83099E+03  3.93196E+03 -1.04652E+03
  3.13011E+03  1.95745E+03  6.55646E+02  2.80184E+03 -1.04993E+03  1.37467E+03 -1.58510E+03 -2.37522E+02
 -8.04247E+02 -1.96800E+03  1.34813E+03 -1.59827E+03  1.80382E+03 -1.03700E+03  1.60732E+03  3.54978E+02
  5.17334E+02  3.02202E+02  9.50167E+02 -6.80021E+01 -3.17257E+02  8.01338E+02  1.89018E+03 -8.64793E+01
  3.42993E+02 -1.30956E+02  2.18976E+03  9.64394E+02  5.07249E+02  2.66370E+03 -5.42867E+02  3.81242E+03
 -2.09737E+03  1.55657E+03 -2.82876E+03  3.43580E+02 -2.59328E+03 -1.01714E+03 -1.68991E+02 -1.16714E+03
  5.32174E+02 -1.51967E+03  1.30297E+03 -6.26967E+02  9.39139E+02  1.15821E+03 -9.02341E+02  1.47096E+03
 -2.10822E+03  7.41326E+02 -1.49920E+03 -1.27402E+03 -9.82057E+02 -2.72179E+03  4.63474E+02 -1.91715E+03
  7.52491E+02 -8.87543E+02  1.08837E+03 -4.69062E+01  1.71993E+03  1.83670E+02  3.03535E+02  1.15063E+03
 -7.83661E+02 -5.54664E+01 -1.11305E+03 -3.08942E+02  5.37082E+02 -1.24069E+03  2.32956E+03 -1.23309E+03
  1.81200E+03  2.84741E+02  3.27449E+03  1.18250E+03  1.00292E+03  2.17322E+03 -3.77643E+02  2.34758E+03
 -1.73310E+03  5.33228E+02 -1.79583E+03 -4.38010E+02 -1.03328E+03 -1.47637E+03  1.64800E+02 -1.05916E+03
  1.88067E+03 -7.56595E+02  1.02285E+03  1.10030E+03  2.52997E+02  1.68407E+03  3.32927E+02  1.60130E+03
 -4.04978E+02  1.31662E+03 -6.28715E+02  4.47079E+02 -1.19205E+02  4.79508E+02 -7.09137E+02  7.74816E+02
 -7.44736E+02  1.37033E+03 -2.25014E+03  8.05982E+02 -2.17317E+03  2.32190E+02 -2.94587E+03 -1.60353E+03
 -1.46999E+03 -2.86430E+03  6.32591E+02 -3.64022E+03  1.75664E+03 -3.16799E+03  3.47836E+03 -1.04506E+03
  2.95186E+03 -6.58126E+01  1.47565E+03  1.82455E+03 -3.65751E+02  2.10249E+03 -1.33569E+03  1.65313E+03
 -1.23266E+03  7.66569E+02 -1.00409E+03 -1.64435E+02 -2.90465E+02  2.33634E+02 -6.04392E+02  9.51110E+01
 -1.41297E+03 -1.00509E+02 -9.98273E+02  4.05558E+02  1.32578E+02 -8.13758E+02 -2.13863E+02 -1.14677E+03
  1.63835E+03 -9.87828E+02  7.41152E+02  1.41767E+02  1.54470E+03  1.51776E+03 -2.99151E+02  2.01037E+03
 -1.17592E+03  2.98773E+03 -2.41666E+03  1.59693E+03 -2.02132E+03 -2.97801E+02 -1.81928E+03 -1.65299E+03
 -1.00693E+03 -1.78590E+03  5.59751E+02 -1.52722E+03  1.07757E+03 -9.11935E+02  1.20843E+03  1.74449E+01
  1.08221E+03  6.65008E+02 -6.51874E+01  4.60183E+02 -3.95276E+02  1.97016E+02  1.16366E+02 -3.10968E+02
  9.08513E+02  1.43504E+02  5.74303E+02  6.47571E+02  7.05680E+01  8.58323E+02  3.82147E+02  7.03232E+02
 -1.00797E+03  9.33328E+02 -1.03970E+03 -4.55509E+01 -1.21866E+03 -7.85227E+02 -1.20360E+02 -1.65275E+03
  7.98613E+02 -9.59729E+02  1.07073E+03  1.51203E+02  1.18061E+03 -7.56513E+02  8.87293E+02  9.73390E+02
  5.07533E+02  1.02205E+03 -3.19560E+02  9.79611E+02 -9.01265E+02  6.31229E+02 -8.22922E+02 -2.44076E+02
 -2.47597E+01 -1.21339E+02 -5.36195E+02 -1.77069E+01 -7.46127E+02  1.85854E+02 -9.16506E+02 -2.17100E+02
 -1.16668E+03  1.59534E+02 -2.71310E+02 -1.16050E+03  1.01131E+03 -1.93252E+03  1.25884E+03 -1.74469E+02
  1.07554E+03  8.50327E+01 -4.63095E+01  6.28033E+02 -9.29894E+01  1.30843E+03 -4.91737E+02  1.18330E+03
