 $NMID ID='MM_0lb_SNR800_7hz_g40_20.RAW', FMTDAT='(8E13.5)'
 TRAMP=1., VOLUME=1. $END
  3.09694E+05  8.61289E+01  3.38021E+05  2.50535E+05  8.50052E+04  3.38527E+05 -1.32748E+05  2.52519E+05
 -1.91021E+05  8.37658E+04 -1.13077E+05 -3.19977E+04  4.63226E+02 -5.08696E+04  5.33428E+04 -6.85950E+02
  3.58267E+04  5.30443E+04 -1.65710E+04  7.59579E+04 -6.18136E+04  6.49718E+04 -8.55913E+04  3.24361E+04
 -8.31516E+04 -1.16825E+04 -5.80930E+04 -5.24926E+04 -1.50469E+04 -7.11573E+04  2.81875E+04 -4.71130E+04
  4.14838E+04  3.77689E+03  1.70623E+04  4.91115E+04 -3.50023E+04  4.83968E+04 -6.81593E+04  2.34267E+02
 -5.53378E+04 -5.85009E+04 -7.52698E+03 -7.96292E+04  3.51919E+04 -5.74407E+04  5.01703E+04 -1.82250E+04
  4.54495E+04  1.18619E+04  3.35739E+04  2.65878E+04  1.57603E+04  3.11120E+04 -5.69532E+03  2.75248E+04
 -2.27292E+04  1.20916E+04 -1.81727E+04 -5.88504E+03  6.89989E+03 -7.05964E+03  2.37548E+04  1.37590E+04
  7.27070E+03  3.74872E+04 -3.39552E+04  3.71994E+04 -6.65196E+04  2.16698E+03 -5.90953E+04 -4.48398E+04
 -1.27573E+04 -6.62712E+04  4.17156E+04 -4.79468E+04  6.25679E+04 -2.21193E+03  3.69168E+04  3.47372E+04
 -6.05691E+03  4.00142E+04 -3.20912E+04  1.91663E+04 -3.43141E+04 -3.22637E+03 -1.96538E+04 -1.22336E+04
 -1.00028E+04 -1.57699E+04 -9.38550E+01 -1.99291E+04  9.02457E+03 -2.36880E+04  1.64759E+04 -1.21919E+04
  1.00159E+04  6.41985E+03 -1.07747E+04  1.26546E+04 -2.42857E+04 -7.08740E+03 -8.99826E+03 -3.87353E+04
  2.56998E+04 -4.79438E+04  5.26447E+04 -2.13215E+04  4.96343E+04  2.11271E+04  1.74331E+04  4.77605E+04
 -1.67748E+04  3.64020E+04 -2.78612E+04  2.78400E+03 -1.20948E+04 -2.95358E+04  2.13932E+04 -3.78377E+04
  4.55077E+04 -1.16323E+04  4.19465E+04  2.53118E+04  2.23800E+04  5.18053E+04 -8.60889E+03  5.74141E+04
 -3.60770E+04  3.91082E+04 -4.94694E+04  1.14538E+04 -4.87814E+04 -1.87562E+04 -2.66341E+04 -4.30008E+04
  8.13262E+03 -4.27921E+04  3.52707E+04 -1.73882E+04  3.22838E+04  1.10709E+04  4.97962E+03  2.11792E+04
 -1.44575E+04  1.01373E+04 -1.11970E+04 -7.58327E+03  5.37845E+03 -1.18669E+04  1.91934E+04  5.27707E+03
  1.55945E+04  2.37279E+04 -5.21595E+03  2.76619E+04 -2.37943E+04  1.51327E+04 -3.28029E+04 -2.21896E+03
 -2.65772E+04 -1.84692E+04 -1.25055E+04 -2.63517E+04  4.04142E+03 -2.70593E+04  2.07730E+04 -2.39488E+04
  3.36153E+04 -1.44060E+04  3.91242E+04  5.81374E+03  2.80070E+04  2.56489E+04  4.45541E+03  4.23881E+04
 -2.05965E+04  3.47782E+04 -3.07168E+04  1.26858E+04 -2.32140E+04 -1.01650E+04 -5.08455E+03 -1.24182E+04
  7.16634E+02 -5.76546E+02 -8.38956E+03  8.97742E+03 -2.14890E+04  4.87258E+03 -2.08701E+04 -1.03324E+04
 -1.23067E+04 -2.46290E+04  6.19990E+03 -2.91866E+04  1.99184E+04 -2.06768E+04  2.39557E+04 -1.89051E+03
  1.51389E+04  1.70247E+04 -1.57055E+03  2.42693E+04 -1.72450E+04  1.35840E+04 -2.50399E+04 -5.35398E+03
 -1.82841E+04 -2.20351E+04 -2.08555E+03 -2.95682E+04  1.34027E+04 -2.46314E+04  2.40672E+04 -1.29268E+04
  2.32343E+04 -6.53699E+02  1.69945E+04  5.46452E+03  9.33399E+03  1.52594E+03  1.24557E+04 -2.25961E+03
  2.36036E+04  2.37929E+03  2.73098E+04  1.91759E+04  1.85219E+04  3.97122E+04 -2.57282E+03  4.71633E+04
 -2.66684E+04  3.97209E+04 -4.48001E+04  2.02608E+04 -4.82660E+04 -3.13451E+03 -3.85006E+04 -2.79316E+04
 -1.46429E+04 -3.99969E+04  1.43444E+04 -3.49047E+04  2.97276E+04 -1.57801E+04  2.54730E+04  8.65814E+03
  8.70651E+03  2.02711E+04 -1.16417E+04  1.67041E+04 -2.10504E+04  2.63637E+03 -1.61481E+04 -1.37084E+04
 -3.78446E+02 -2.05150E+04  1.11717E+04 -1.50928E+04  1.44692E+04 -1.02707E+03  3.37038E+03  9.77554E+03
 -9.17442E+03  4.68156E+03 -1.01468E+04 -7.14505E+03 -2.21826E+03 -1.96876E+04  1.26848E+04 -2.17237E+04
  2.48703E+04 -1.21678E+04  2.89212E+04  3.42570E+03  2.51869E+04  2.02673E+04  1.15043E+04  3.23918E+04
 -6.03275E+03  3.42006E+04 -2.21970E+04  2.09467E+04 -2.50457E+04  4.07280E+03 -1.72284E+04 -6.51191E+03
 -6.93992E+03 -8.03494E+03 -2.77125E+02  1.38397E+01 -3.63372E+03  3.71608E+03 -8.22651E+03  5.46194E+03
 -1.52863E+04 -1.05650E+03 -1.61401E+04 -1.28633E+04 -6.59998E+03 -2.03964E+04  7.09246E+03 -1.66813E+04
  1.42886E+04 -7.06201E+03  9.75067E+03  4.62422E+03 -9.02454E+02  7.03045E+03 -9.12698E+03 -5.14710E+02
 -8.36850E+03 -1.10110E+04 -1.31339E+03 -1.73342E+04  9.92578E+03 -1.82307E+04  2.26592E+04 -9.82781E+03
  2.56658E+04  2.44838E+03  1.87916E+04  1.61674E+04  3.70196E+03  2.11637E+04 -1.06258E+04  1.67367E+04
 -1.36647E+04  5.12436E+03 -7.30953E+03 -3.74873E+03  2.49444E+03 -5.11804E+03  8.94558E+03 -7.64214E+02
  8.28714E+03  8.03055E+03  1.42127E+03  1.37524E+04 -1.00910E+04  1.30915E+04 -1.69133E+04  3.14814E+03
 -1.15787E+04 -9.09432E+03  3.32881E+02 -1.49477E+04  9.92555E+03 -7.99174E+03  1.04218E+04  3.75189E+03
  2.94870E+03  1.17201E+04 -8.98562E+03  1.27506E+04 -1.55925E+04  5.76069E+03 -1.61386E+04 -5.54981E+03
 -8.87526E+03 -1.78968E+04  4.13588E+03 -2.11287E+04  1.76858E+04 -1.18108E+04  1.89706E+04  3.52698E+03
  1.09127E+04  1.50459E+04 -1.89403E+03  1.75150E+04 -1.29203E+04  1.00839E+04 -1.43278E+04 -1.66332E+03
 -1.19855E+04 -1.18048E+04 -1.84168E+03 -1.35717E+04  7.27025E+03 -1.10064E+04  8.57848E+03 -4.09733E+03
  5.26772E+03  2.48564E+03 -1.38761E+03  2.09981E+03 -1.09223E+03 -3.92262E+03  3.42684E+03 -9.18837E+03
  1.28915E+04 -5.71067E+03  1.89800E+04  2.03135E+03  1.80131E+04  1.28634E+04  1.14106E+04  2.38260E+04
 -5.77224E+03  2.76686E+04 -2.28220E+04  2.02583E+04 -2.93708E+04  3.75838E+03 -2.41894E+04 -1.07784E+04
 -1.22148E+04 -1.97498E+04 -2.28049E+02 -1.67320E+04  6.44767E+03 -9.66755E+03  6.03896E+03 -6.12459E+03
  4.54401E+03 -3.57862E+03  4.21321E+03 -4.64288E+03  6.45731E+03 -3.82520E+03  9.12849E+03 -1.85076E+03
  1.25231E+04  2.80477E+03  6.90080E+03  1.09674E+04 -3.00285E+03  1.33421E+04 -1.33594E+04  9.92897E+03
 -1.65741E+04 -1.48784E+03 -1.14276E+04 -1.21733E+04 -1.74551E+03 -1.86416E+04  9.81508E+03 -1.84680E+04
  1.89266E+04 -1.01680E+04  2.25427E+04  3.60084E+03  1.54809E+04  1.62794E+04  1.87018E+03  2.08467E+04
 -9.03194E+03  1.70610E+04 -1.21284E+04  6.06135E+03 -8.71783E+03 -1.68664E+03 -3.85703E+03 -2.37425E+03
 -1.98618E+03 -3.08289E+02 -2.48437E+03  3.61494E+03 -7.01535E+03  2.66352E+03 -1.20495E+04 -1.79248E+03
 -8.66261E+03 -1.14651E+04 -1.51583E+02 -1.70092E+04  1.03109E+04 -1.63321E+04  1.73533E+04 -4.72752E+03
  1.77646E+04  8.74024E+03  8.34241E+03  1.61627E+04 -3.83020E+03  1.79305E+04 -1.24320E+04  1.05992E+04
 -1.65599E+04  4.65190E+02 -1.27015E+04 -1.08719E+04 -1.26931E+03 -1.49146E+04  7.85060E+03 -1.14833E+04
  1.12324E+04 -3.41242E+03  7.94976E+03  3.42501E+03  2.97769E+03  5.25430E+03  1.46716E+03  2.38300E+03
  2.94122E+03  1.19958E+03  4.16981E+03  1.96774E+03  5.00483E+03  5.95851E+03  4.51088E+03  1.01095E+04
 -3.77972E+03  1.37726E+04 -1.29057E+04  1.42840E+04 -1.90528E+04  3.53661E+03 -1.89595E+04 -8.35704E+03
 -8.96476E+03 -1.78719E+04  2.77967E+03 -1.98754E+04  1.10530E+04 -1.26102E+04  1.53372E+04 -3.42110E+03
  1.16626E+04  6.76433E+03  2.49482E+03  1.06721E+04 -5.58123E+03  7.16320E+03 -8.03026E+03 -1.21069E+03
 -3.74892E+03 -7.75962E+03  4.29791E+03 -8.39701E+03  7.56727E+03 -3.72567E+03  7.27820E+03  1.52099E+03
  4.79811E+03  4.21305E+03  1.66387E+03  3.21448E+03 -1.23707E+03  2.76520E+03  1.98906E+03 -6.78471E+02
  3.09188E+03 -9.07064E+02  7.47206E+03  3.00136E+03  4.63267E+03  1.04123E+04 -1.65014E+03  1.32860E+04
 -9.22598E+03  9.22610E+03 -1.23840E+04  2.17662E+03 -1.07765E+04 -4.58180E+03 -4.11459E+03 -7.02804E+03
  1.13248E+03 -7.19172E+03  5.14072E+03 -2.91560E+03  4.60653E+03  3.44229E+03 -1.80438E+03  6.26622E+03
 -7.86382E+03  3.80587E+03 -8.76475E+03 -4.32088E+03 -5.36612E+03 -1.01839E+04  1.77431E+03 -1.03685E+04
  6.04362E+03 -6.42826E+03  7.81502E+03 -9.24506E+02  6.14848E+03  2.90743E+03  1.16234E+03  5.83259E+03
 -4.00802E+03  1.48987E+03 -4.88968E+03 -4.14158E+03  1.53836E+03 -8.50105E+03  9.69285E+03 -6.56448E+03
  1.25447E+04  1.37298E+03  1.18015E+04  8.51993E+03  3.77881E+03  1.32109E+04 -4.69224E+03  1.20675E+04
 -1.03276E+04  5.38608E+03 -1.04763E+04 -1.91357E+03 -5.88626E+03 -8.31666E+03  2.01039E+03 -8.68706E+03
  7.36962E+03 -3.93793E+03  6.38334E+03  3.29487E+03  2.00531E+03  6.95468E+03 -1.33094E+03  5.96783E+03
 -3.22104E+03  4.12579E+03 -2.92486E+03  1.13585E+03 -1.97937E+03  9.50877E+02 -2.19820E+03  2.23750E+03
 -3.06954E+03  5.05448E+03 -8.79320E+03  4.53145E+03 -1.29722E+04  3.21556E+02 -1.46196E+04 -8.59748E+03
 -7.68152E+03 -1.72278E+04  2.90307E+03 -2.02240E+04  1.21318E+04 -1.51768E+04  1.95572E+04 -6.10705E+03
  1.75836E+04  4.00532E+03  1.12026E+04  1.23084E+04  1.23755E+03  1.35103E+04 -5.40007E+03  1.05675E+04
 -7.99049E+03  3.97085E+03 -4.21889E+03 -1.83044E+03 -1.42975E+03 -1.22514E+03 -7.25951E+02  7.45113E+02
 -2.28163E+03  4.23272E+02 -2.90752E+03 -7.06820E+02 -1.83661E+03 -3.58875E+03  5.92676E+02 -4.99675E+03
  5.81600E+03 -4.36965E+03  8.20397E+03 -2.15929E+02  9.85631E+03  7.52666E+03  2.91178E+03  1.39384E+04
 -6.61800E+03  1.57230E+04 -1.48620E+04  9.35325E+03 -1.69397E+04 -1.26373E+03 -1.25752E+04 -1.01642E+04
 -5.29136E+03 -1.42119E+04  3.70470E+03 -1.32118E+04  9.00010E+03 -7.47686E+03  9.52795E+03  2.06230E+01
  5.21263E+03  4.80804E+03 -7.21932E+02  4.51774E+03 -2.80929E+03 -5.31559E+02 -2.89414E+02 -3.14590E+03
  4.39066E+03 -2.11380E+03  5.68760E+03  1.70943E+03  4.04238E+03  5.44661E+03  1.02274E+02  7.87578E+03
 -6.21640E+03  6.23045E+03 -9.78544E+03  8.65278E+02 -8.65990E+03 -7.22275E+03 -1.09252E+03 -1.17905E+04
  6.86317E+03 -1.01848E+04  1.16949E+04 -3.52728E+03  1.09578E+04  3.03233E+03  6.27420E+03  8.71318E+03
  1.15450E+03  9.51328E+03 -3.82949E+03  7.98452E+03 -6.12336E+03  4.15424E+03 -5.09362E+03  6.57193E+02
 -2.97214E+03 -3.87789E+02 -2.88320E+03  1.18999E+03 -5.09032E+03  1.67047E+03 -7.41205E+03 -1.41384E+03
 -6.83562E+03 -5.42781E+03 -2.22359E+03 -9.82126E+03  4.41676E+03 -9.88335E+03  8.68704E+03 -5.19122E+03
  9.21671E+03  1.36685E+03  5.55324E+03  7.40866E+03 -7.31369E+02  9.71178E+03 -7.98008E+03  6.64836E+03
