 $NMID ID='MM_0lb_SNR800_18hz_g40_32.RAW', FMTDAT='(8E13.5)'
 TRAMP=1., VOLUME=1. $END
  3.09881E+05  4.23618E+02  3.37255E+05  2.50417E+05  8.43246E+04  3.37078E+05 -1.32497E+05  2.50075E+05
 -1.89642E+05  8.24884E+04 -1.10927E+05 -3.28850E+04  1.42624E+03 -4.99816E+04  5.40515E+04  1.60033E+02
  3.51778E+04  5.28433E+04 -1.69682E+04  7.46738E+04 -6.01844E+04  6.22409E+04 -8.28438E+04  3.15683E+04
 -7.93616E+04 -1.08839E+04 -5.59626E+04 -5.01456E+04 -1.51353E+04 -6.78798E+04  2.65920E+04 -4.46754E+04
  3.89403E+04  3.89150E+03  1.55256E+04  4.68513E+04 -3.41159E+04  4.62115E+04 -6.52797E+04 -7.92467E+02
 -5.15703E+04 -5.58212E+04 -6.33084E+03 -7.50011E+04  3.30333E+04 -5.32392E+04  4.62399E+04 -1.62172E+04
  4.11120E+04  1.09939E+04  3.06985E+04  2.42334E+04  1.59619E+04  2.81368E+04 -4.62749E+03  2.65728E+04
 -2.15883E+04  1.26114E+04 -1.93006E+04 -4.43492E+03  4.06626E+03 -7.53161E+03  2.11709E+04  1.08858E+04
  7.05666E+03  3.26185E+04 -3.02812E+04  3.37386E+04 -6.07467E+04  2.05563E+03 -5.51580E+04 -4.08617E+04
 -1.19656E+04 -6.03825E+04  3.77374E+04 -4.27214E+04  5.50496E+04 -2.02001E+03  3.17601E+04  3.06816E+04
 -6.81566E+03  3.27302E+04 -2.81602E+04  1.31436E+04 -2.73846E+04 -5.34905E+03 -1.39773E+04 -1.00251E+04
 -7.21890E+03 -1.13187E+04 -1.14262E+03 -1.64310E+04  6.52599E+03 -2.24753E+04  1.49859E+04 -1.40484E+04
  1.23554E+04  4.26808E+03 -6.11741E+03  1.31715E+04 -1.91129E+04 -2.46733E+03 -7.82069E+03 -3.01822E+04
  2.07001E+04 -3.99445E+04  4.44611E+04 -1.85328E+04  4.17039E+04  1.79677E+04  1.41239E+04  4.15991E+04
 -1.52648E+04  3.08038E+04 -2.31511E+04  6.56407E+02 -8.26631E+03 -2.60442E+04  2.06278E+04 -3.10742E+04
  3.77975E+04 -6.63303E+03  3.10608E+04  2.24273E+04  1.49656E+04  4.22660E+04 -7.92075E+03  4.47172E+04
 -2.79843E+04  2.97565E+04 -3.68479E+04  8.27122E+03 -3.81338E+04 -1.50582E+04 -2.11015E+04 -3.41160E+04
  6.88445E+03 -3.35315E+04  2.91401E+04 -1.24625E+04  2.66358E+04  1.07927E+04  2.95311E+03  1.74099E+04
 -1.28678E+04  7.20249E+03 -9.19830E+03 -7.54570E+03  6.08203E+03 -9.88619E+03  1.71239E+04  6.27559E+03
  1.22884E+04  2.13955E+04 -6.60732E+03  2.32901E+04 -2.13688E+04  9.02779E+03 -2.48977E+04 -6.40413E+03
 -1.63921E+04 -1.65035E+04 -5.63992E+03 -1.65965E+04  3.89168E+03 -1.42246E+04  1.21843E+04 -1.41025E+04
  2.08907E+04 -1.16467E+04  2.78799E+04  7.52647E+02  2.09863E+04  1.61607E+04  4.37169E+03  3.20554E+04
 -1.61551E+04  2.75785E+04 -2.54361E+04  9.29957E+03 -1.96311E+04 -1.03707E+04 -3.72230E+03 -1.39640E+04
  2.79733E+03 -4.30645E+03 -2.76738E+03  5.29077E+03 -1.25289E+04  5.12742E+03 -1.32042E+04 -4.92786E+03
 -8.74624E+03 -1.53076E+04  4.25230E+03 -1.93335E+04  1.25062E+04 -1.38144E+04  1.44415E+04 -1.23363E+03
  8.87999E+03  1.05344E+04 -8.22096E+02  1.55511E+04 -1.03343E+04  8.40301E+03 -1.53171E+04 -3.36012E+03
 -1.13926E+04 -1.40451E+04 -1.57015E+03 -1.85487E+04  8.46700E+03 -1.51608E+04  1.60824E+04 -6.79204E+03
  1.45767E+04  3.88369E+02  1.03013E+04  4.08104E+03  5.24247E+03  4.30720E+02  7.59834E+03 -1.31643E+03
  1.34894E+04  2.57521E+03  1.45691E+04  1.26794E+04  9.23480E+03  2.43556E+04 -3.21486E+03  2.62705E+04
 -1.57160E+04  1.98852E+04 -2.41507E+04  9.39613E+03 -2.44669E+04 -1.82265E+03 -2.11144E+04 -1.36997E+04
 -1.01606E+04 -2.02503E+04  6.61672E+03 -1.88226E+04  1.64890E+04 -1.07677E+04  1.54593E+04  3.81368E+03
  6.73587E+03  1.09029E+04 -6.84866E+03  1.05775E+04 -1.33963E+04  2.80065E+03 -1.01402E+04 -8.09815E+03
 -1.69109E+02 -1.24600E+04  6.14361E+03 -9.31684E+03  8.00928E+03 -1.56983E+03  1.40891E+03  5.00790E+03
 -5.39475E+03  1.23717E+03 -3.95130E+03 -4.64054E+03  5.41989E+02 -1.02032E+04  7.77886E+03 -1.00145E+04
  1.22077E+04 -4.47719E+03  1.18810E+04  2.70415E+03  1.00903E+04  9.33400E+03  4.80387E+03  1.39381E+04
 -1.77072E+03  1.56141E+04 -9.59709E+03  9.97324E+03 -1.08638E+04  3.11552E+03 -8.41762E+03 -1.93908E+03
 -4.53925E+03 -3.33276E+03 -7.41460E+02  1.45999E+03 -1.94876E+03  1.86524E+03 -3.66896E+03  3.57787E+03
 -7.76370E+03 -4.99595E+02 -8.91055E+03 -7.19254E+03 -3.36944E+03 -1.12482E+04  3.36861E+03 -8.40636E+03
  7.24618E+03 -3.78211E+03  5.06747E+03  2.35478E+03  7.62797E+02  2.90996E+03 -3.43700E+03 -1.47813E+02
 -3.34148E+03 -5.19497E+03 -7.22188E+02 -7.18711E+03  3.74211E+03 -7.68407E+03  9.78583E+03 -4.05917E+03
  1.17624E+04  6.18534E+02  8.74834E+03  6.20088E+03  1.94977E+03  8.58899E+03 -5.21657E+03  8.29147E+03
 -6.97763E+03  2.81044E+03 -3.56771E+03 -1.09832E+03  1.30940E+03 -1.89647E+03  4.73731E+03 -1.05959E+03
  3.79711E+03  3.24633E+03  1.09659E+03  6.19520E+03 -4.36860E+03  6.53111E+03 -7.89110E+03  1.70751E+03
 -4.88954E+03 -3.62040E+03  5.81162E+02 -6.71157E+03  3.92161E+03 -3.32651E+03  3.47370E+03  7.13073E+02
  3.80670E+02  3.50583E+03 -4.04162E+03  4.92180E+03 -4.90914E+03  2.14572E+03 -4.46701E+03 -1.28252E+03
 -2.76065E+03 -6.31641E+03  1.19171E+03 -7.14243E+03  5.97336E+03 -4.68421E+03  6.48470E+03  9.82743E+02
  4.56168E+03  5.10357E+03  7.77481E+01  7.28652E+03 -4.90212E+03  4.01470E+03 -5.11762E+03 -6.81561E+02
 -5.63721E+03 -5.34012E+03 -1.37568E+03 -4.96316E+03  2.54514E+03 -4.81564E+03  2.73292E+03 -2.77790E+03
  2.85847E+03  1.31153E+02  2.84488E+02  1.28486E+03  2.45559E+02 -1.69592E+02  1.35177E+02 -1.75910E+03
  3.79339E+03 -9.01856E+02  5.35940E+03  8.01624E+02  5.70746E+03  3.06318E+03  5.35309E+03  7.46110E+03
 -1.13230E+03  8.48576E+03 -7.68342E+03  6.50755E+03 -9.89122E+03  1.32711E+03 -7.81490E+03 -2.51399E+03
 -4.24440E+03 -6.92854E+03 -4.03477E+02 -5.07435E+03  2.13128E+03 -2.10253E+03  1.91382E+03 -2.14019E+03
  1.45982E+03 -1.39964E+03  2.32218E+03 -2.39695E+03  3.12862E+03 -1.36315E+03  3.91912E+03  4.95719E+02
  4.32586E+03  1.15271E+03  1.31214E+03  3.45143E+03 -1.43767E+03  2.92869E+03 -4.38456E+03  2.64674E+03
 -5.15789E+03 -8.58693E+02 -1.68966E+03 -3.11225E+03  3.51792E+02 -5.21029E+03  3.30139E+03 -5.36028E+03
  5.23182E+03 -3.42330E+03  6.94386E+03  3.93795E+02  4.86539E+03  4.61620E+03  1.31937E+03  5.93917E+03
 -2.02501E+03  6.11386E+03 -3.36937E+03  2.00406E+03 -1.94975E+03 -9.54653E+02 -6.59142E+02 -7.32810E+02
 -5.51891E+02  2.34956E+02 -9.76542E+02  1.89815E+03 -2.66544E+03  1.05484E+03 -3.89305E+03 -1.33754E+02
 -1.52983E+03 -4.12762E+03  1.00670E+03 -4.89235E+03  2.64226E+03 -4.39788E+03  3.64881E+03 -1.20633E+03
  4.17662E+03  2.58799E+03  1.65569E+03  3.43278E+03 -6.51250E+02  4.43113E+03 -2.67390E+03  2.45664E+03
 -3.88685E+03  6.92578E+02 -3.86156E+03 -2.40326E+03 -1.94896E+02 -3.47731E+03  1.67457E+03 -2.43657E+03
  2.74477E+03 -1.37460E+03  1.85616E+03  4.53314E+02  2.90846E+02  1.73065E+03  1.03155E+03  4.70549E+02
  1.61629E+03  1.70847E+02  1.10064E+03  1.00363E+03  1.09252E+03  2.47252E+03  1.32429E+03  2.03266E+03
 -1.34076E+03  3.21636E+03 -2.61830E+03  4.19941E+03 -3.28498E+03  1.47318E+03 -4.38114E+03 -4.51437E+02
 -1.66249E+03 -3.75496E+03  6.42010E+02 -4.69431E+03  2.08740E+03 -2.74029E+03  3.26856E+03 -9.69154E+02
  2.57056E+03  1.88260E+03  5.81502E+02  2.32069E+03 -9.91993E+02  1.39583E+03 -1.25399E+03 -1.12572E+02
 -9.42506E+02 -1.45090E+03  1.17517E+03 -1.80603E+03  1.24478E+03 -1.07549E+03  1.51007E+03  8.73561E+01
  9.63289E+02  5.11482E+02  7.51138E+02 -3.18672E+02 -5.27520E+02  7.38288E+02  1.50124E+03 -1.90896E+02
  1.90803E+02 -3.32342E+02  1.82042E+03  5.72412E+02  3.64447E+02  2.46348E+03 -4.78985E+02  2.89627E+03
 -1.78839E+03  1.30422E+03 -1.86347E+03  4.53406E+02 -2.29521E+03 -6.89551E+02 -3.28722E+02 -1.02360E+03
  4.10278E+02 -1.19215E+03  9.78598E+02 -8.08314E+02  7.80586E+02  1.46645E+03 -7.49890E+02  1.21298E+03
 -1.76079E+03  8.24859E+02 -1.23390E+03 -1.41486E+03 -9.08380E+02 -2.41423E+03  2.82732E+02 -1.80088E+03
  7.56335E+02 -6.06137E+02  9.71541E+02  2.80035E+02  1.28120E+03  6.03927E+01  4.28978E+02  1.37771E+03
 -3.64113E+02  3.30060E+02 -1.03745E+03 -3.81657E+02  6.12756E+02 -7.12554E+02  1.86886E+03 -1.10851E+03
  1.58647E+03  3.08412E+01  2.85640E+03  8.77127E+02  1.28036E+03  1.77735E+03 -2.66901E+02  2.01157E+03
 -1.44696E+03  4.98101E+02 -1.72075E+03 -1.82708E+02 -8.77010E+02 -1.55331E+03  1.57670E+02 -4.74080E+02
  1.49508E+03 -7.66184E+02  7.89472E+02  1.04643E+03  3.75186E+02  1.57687E+03  1.93151E+02  1.29000E+03
 -4.81805E+02  1.11560E+03 -6.02344E+02  3.52040E+02  4.30633E+01  2.32088E+02 -7.20914E+02  7.23674E+02
 -4.65915E+02  1.08385E+03 -1.99028E+03  3.95582E+02 -1.81632E+03  3.68124E+01 -2.63099E+03 -1.19664E+03
 -8.89541E+02 -2.75614E+03  8.69211E+02 -3.12709E+03  1.21583E+03 -2.56477E+03  2.93798E+03 -1.15085E+03
  2.85223E+03  1.52332E+02  1.42040E+03  1.57557E+03 -4.08023E+02  1.62086E+03 -8.12580E+02  1.43451E+03
 -1.15017E+03  9.85367E+02 -8.48080E+02 -3.69231E+02 -6.46174E+02  3.48268E+02 -7.55459E+02 -1.44848E+02
 -1.13052E+03 -2.97520E+02 -8.21310E+02  2.69721E+02  2.47298E+02 -1.00566E+03 -3.27048E+02 -8.46571E+02
  1.33944E+03 -7.09778E+02  5.04301E+02  2.35821E+02  1.19737E+03  7.44318E+02 -3.27883E+02  1.79041E+03
 -8.97043E+02  2.14484E+03 -1.75231E+03  1.26119E+03 -1.71622E+03 -9.10601E+01 -1.49659E+03 -1.25325E+03
 -1.12599E+03 -1.59313E+03  3.50995E+02 -1.24256E+03  7.85515E+02 -6.99996E+02  8.66180E+02  5.68416E+01
  3.86486E+02  6.11256E+02  1.52419E+02  1.93084E+02 -2.18552E+02  2.06032E+02 -1.55241E+02 -4.28978E+01
  5.34896E+02  2.02603E+02  4.67536E+02  5.60914E+02  1.78679E+02  5.12887E+02  5.36471E+02  6.97936E+02
 -6.88513E+02  6.78454E+02 -1.00197E+03 -7.56784E+01 -8.45799E+02 -7.42874E+02  4.18181E+02 -1.31725E+03
  2.72513E+02 -8.69763E+02  9.24279E+02 -2.92095E+01  1.17229E+03 -7.10392E+02  4.24413E+02  8.20078E+02
  4.95252E+02  8.65640E+02 -9.05620E+01  4.80678E+02 -7.87404E+02  8.86200E+02 -4.88163E+02  1.30466E+02
 -2.54441E+02  1.09079E+02 -3.79432E+02  1.73449E+02 -6.96453E+02  9.36622E+01 -9.71452E+02 -3.16346E+02
 -1.11409E+03  3.66699E+02 -5.87725E+02 -8.58663E+02  8.19377E+02 -1.61327E+03  9.77044E+02 -5.01379E+02
  6.38070E+02 -5.96791E+01 -2.23943E+02  5.94634E+02 -8.59705E+01  6.85175E+02 -6.35764E+02  1.03629E+03
