 $NMID ID='MM_0lb_SNR800_14hz_g50_80.RAW', FMTDAT='(8E13.5)'
 TRAMP=1., VOLUME=1. $END
  3.09783E+05  4.28038E+02  3.37577E+05  2.50573E+05  8.43880E+04  3.38134E+05 -1.32625E+05  2.50781E+05
 -1.90330E+05  8.32803E+04 -1.11668E+05 -3.25113E+04  1.07410E+03 -5.02906E+04  5.35979E+04 -1.04642E+02
  3.53458E+04  5.28518E+04 -1.67227E+04  7.55330E+04 -6.06780E+04  6.34766E+04 -8.38970E+04  3.19322E+04
 -8.11208E+04 -1.13262E+04 -5.72756E+04 -5.14103E+04 -1.49707E+04 -6.95399E+04  2.75954E+04 -4.58650E+04
  4.00046E+04  3.93802E+03  1.62700E+04  4.79799E+04 -3.46479E+04  4.73182E+04 -6.67229E+04 -3.17970E+02
 -5.35565E+04 -5.67541E+04 -6.99065E+03 -7.71414E+04  3.37579E+04 -5.51238E+04  4.80185E+04 -1.71440E+04
  4.38556E+04  1.12391E+04  3.21027E+04  2.55524E+04  1.57497E+04  2.96318E+04 -5.44859E+03  2.74098E+04
 -2.20399E+04  1.22296E+04 -1.85887E+04 -4.81108E+03  5.61621E+03 -7.55427E+03  2.22147E+04  1.22538E+04
  7.30408E+03  3.55741E+04 -3.22269E+04  3.55730E+04 -6.33260E+04  2.09122E+03 -5.69931E+04 -4.27273E+04
 -1.26635E+04 -6.32660E+04  3.96127E+04 -4.53605E+04  5.84523E+04 -1.98126E+03  3.43554E+04  3.22942E+04
 -5.89783E+03  3.58820E+04 -2.99544E+04  1.60482E+04 -3.03933E+04 -4.35793E+03 -1.66666E+04 -1.09498E+04
 -8.15720E+03 -1.29105E+04 -6.73411E+02 -1.82626E+04  7.73862E+03 -2.30848E+04  1.55817E+04 -1.33539E+04
  1.13890E+04  5.18520E+03 -8.11820E+03  1.30721E+04 -2.13852E+04 -4.68690E+03 -8.29011E+03 -3.40856E+04
  2.31086E+04 -4.40058E+04  4.80554E+04 -1.93779E+04  4.52943E+04  1.94017E+04  1.54386E+04  4.42473E+04
 -1.58940E+04  3.33854E+04 -2.54361E+04  1.69141E+03 -1.00943E+04 -2.77351E+04  2.05689E+04 -3.40981E+04
  4.11918E+04 -9.06865E+03  3.55250E+04  2.39158E+04  1.81769E+04  4.68227E+04 -8.19051E+03  5.00660E+04
 -3.20585E+04  3.41018E+04 -4.22349E+04  9.46462E+03 -4.28596E+04 -1.67637E+04 -2.37349E+04 -3.80103E+04
  7.29381E+03 -3.78525E+04  3.15280E+04 -1.47763E+04  2.92395E+04  1.12583E+04  4.16766E+03  1.94834E+04
 -1.35102E+04  8.39399E+03 -1.05296E+04 -7.28168E+03  5.59312E+03 -1.07085E+04  1.78629E+04  6.14392E+03
  1.37883E+04  2.22363E+04 -6.01594E+03  2.49489E+04 -2.24444E+04  1.14790E+04 -2.81297E+04 -4.64670E+03
 -2.09623E+04 -1.72648E+04 -8.54453E+03 -2.07821E+04  3.90791E+03 -1.98015E+04  1.60364E+04 -1.84616E+04
  2.62538E+04 -1.26894E+04  3.29145E+04  3.07962E+03  2.40073E+04  1.99498E+04  4.58052E+03  3.66911E+04
 -1.80603E+04  3.04570E+04 -2.77304E+04  1.04270E+04 -2.09640E+04 -1.03548E+04 -4.64846E+03 -1.35344E+04
  1.79461E+03 -2.65260E+03 -4.96895E+03  6.87546E+03 -1.62226E+04  5.08665E+03 -1.62360E+04 -7.21411E+03
 -1.01871E+04 -1.89314E+04  4.97780E+03 -2.35165E+04  1.50430E+04 -1.65126E+04  1.87805E+04 -1.47552E+03
  1.14488E+04  1.34685E+04 -1.15909E+03  1.91920E+04 -1.31372E+04  1.07716E+04 -1.89128E+04 -4.01814E+03
 -1.42632E+04 -1.71101E+04 -1.70358E+03 -2.31785E+04  1.06044E+04 -1.89010E+04  1.92135E+04 -9.46399E+03
  1.76810E+04  6.74285E+01  1.28392E+04  4.69394E+03  6.74663E+03  1.18361E+03  9.73870E+03 -1.98172E+03
  1.76164E+04  2.76559E+03  1.93088E+04  1.50968E+04  1.27032E+04  3.06256E+04 -3.18141E+03  3.44703E+04
 -2.02220E+04  2.78572E+04 -3.22162E+04  1.37851E+04 -3.36291E+04 -2.44757E+03 -2.76809E+04 -1.98387E+04
 -1.20286E+04 -2.76225E+04  9.56277E+03 -2.52201E+04  2.17106E+04 -1.27263E+04  1.95044E+04  5.39240E+03
  7.39817E+03  1.46172E+04 -8.98742E+03  1.29970E+04 -1.61315E+04  2.59356E+03 -1.25090E+04 -9.92089E+03
 -2.32629E+02 -1.55029E+04  8.06076E+03 -1.15122E+04  1.04384E+04 -1.32031E+03  2.35086E+03  6.51044E+03
 -7.03484E+03  2.44303E+03 -5.96282E+03 -5.58707E+03 -7.50492E+02 -1.33480E+04  9.57642E+03 -1.41965E+04
  1.71911E+04 -7.15122E+03  1.78462E+04  3.13099E+03  1.57863E+04  1.35009E+04  7.54979E+03  2.03451E+04
 -3.08812E+03  2.23169E+04 -1.44431E+04  1.38494E+04 -1.60092E+04  3.53413E+03 -1.13065E+04 -3.50276E+03
 -5.21386E+03 -4.79173E+03 -5.75444E+02  1.08938E+03 -2.11789E+03  2.70870E+03 -4.98988E+03  4.35053E+03
 -1.07936E+04 -6.33868E+02 -1.12559E+04 -9.26516E+03 -4.55337E+03 -1.47895E+04  4.89317E+03 -1.16109E+04
  9.55861E+03 -4.87523E+03  6.90630E+03  3.04216E+03  2.53259E+02  4.50111E+03 -5.11821E+03 -6.17660E+01
 -4.82161E+03 -7.27998E+03 -9.38586E+02 -1.07552E+04  5.94315E+03 -1.11606E+04  1.40695E+04 -6.24502E+03
  1.66458E+04  1.34089E+03  1.21876E+04  9.60626E+03  2.20345E+03  1.27376E+04 -6.99109E+03  1.13038E+04
 -9.13559E+03  3.80617E+03 -4.76907E+03 -2.28836E+03  1.66628E+03 -3.08645E+03  6.21004E+03 -1.22892E+03
  5.21948E+03  4.75698E+03  8.75099E+02  8.93814E+03 -6.40513E+03  8.86286E+03 -1.07647E+04  2.28003E+03
 -7.54139E+03 -5.75650E+03  3.90548E+01 -9.59947E+03  5.67788E+03 -4.79983E+03  6.00872E+03  1.74040E+03
  1.31214E+03  6.10654E+03 -5.91838E+03  7.18180E+03 -8.52403E+03  3.49840E+03 -8.30212E+03 -2.79221E+03
 -5.00041E+03 -9.71676E+03  2.05748E+03 -1.14092E+04  9.73049E+03 -7.05522E+03  1.06662E+04  1.89327E+03
  6.45122E+03  8.33957E+03 -6.80424E+02  1.03622E+04 -7.53336E+03  6.27322E+03 -8.37054E+03 -7.49186E+02
 -7.81403E+03 -7.15712E+03 -1.52302E+03 -8.18504E+03  4.10042E+03 -6.36557E+03  4.76538E+03 -3.03048E+03
  3.56895E+03  7.42932E+02 -3.13920E+02  1.39588E+03 -1.51769E+02 -1.66233E+03  9.41688E+02 -3.80047E+03
  6.94830E+03 -2.35507E+03  9.41316E+03  1.23914E+03  9.10150E+03  6.05146E+03  7.01311E+03  1.22755E+04
 -2.98337E+03  1.43957E+04 -1.25795E+04  1.09358E+04 -1.58287E+04  1.93498E+03 -1.25640E+04 -4.85266E+03
 -6.48429E+03 -1.05512E+04 -2.02442E+02 -9.07503E+03  3.31084E+03 -4.33269E+03  3.01491E+03 -3.01712E+03
  2.15850E+03 -1.74797E+03  2.61925E+03 -2.85582E+03  4.38962E+03 -2.12319E+03  4.98705E+03 -2.19275E+01
  6.51903E+03  1.68492E+03  3.06414E+03  5.76895E+03 -1.90559E+03  5.98484E+03 -6.87911E+03  4.85415E+03
 -8.72468E+03 -1.07111E+03 -4.65892E+03 -6.00762E+03 -5.38452E+02 -8.88771E+03  5.47373E+03 -8.83768E+03
  9.70233E+03 -5.39309E+03  1.14466E+04  1.04313E+03  7.90007E+03  7.48492E+03  1.37980E+03  1.01609E+04
 -3.98387E+03  8.73599E+03 -5.83841E+03  2.81323E+03 -4.01687E+03 -1.31505E+03 -1.40108E+03 -1.10472E+03
 -4.38795E+02 -2.10636E+02 -1.53018E+03  2.12434E+03 -3.82286E+03  1.36834E+03 -6.27349E+03 -7.64656E+02
 -3.62056E+03 -6.07316E+03  5.15016E+02 -8.29335E+03  4.83181E+03 -7.60137E+03  7.54905E+03 -2.43511E+03
  7.86720E+03  4.01210E+03  3.81807E+03  6.68397E+03 -1.56852E+03  8.21047E+03 -5.66623E+03  5.10892E+03
 -6.93433E+03  5.19926E+02 -5.72333E+03 -4.69819E+03 -1.59556E+02 -6.51355E+03  3.43100E+03 -4.46310E+03
  4.96287E+03 -1.62877E+03  3.79906E+03  1.09933E+03  1.07598E+03  2.41393E+03  1.12086E+03  9.54190E+02
  2.22852E+03  7.27462E+02  2.04031E+03  1.31339E+03  2.46364E+03  3.06760E+03  2.48689E+03  3.47439E+03
 -1.87223E+03  6.31905E+03 -5.16814E+03  6.68581E+03 -7.42714E+03  1.91733E+03 -8.06473E+03 -2.53053E+03
 -3.48457E+03 -7.63051E+03  1.11867E+03 -8.75141E+03  4.40062E+03 -5.27843E+03  6.24777E+03 -1.72444E+03
  4.83936E+03  2.71282E+03  1.16643E+03  4.43775E+03 -2.01002E+03  2.60777E+03 -2.66026E+03 -3.04448E+02
 -1.34409E+03 -3.19264E+03  2.03547E+03 -3.74261E+03  2.90153E+03 -1.41537E+03  2.89915E+03  8.10310E+02
  1.63333E+03  1.25433E+03  9.47437E+02  6.07258E+02 -3.79664E+02  9.39530E+02  1.47611E+03 -3.39992E+02
  9.30798E+02 -6.71280E+02  3.09621E+03  1.24583E+03  1.26945E+03  4.25261E+03 -5.17002E+02  5.66907E+03
 -3.54252E+03  3.22482E+03 -4.51938E+03  9.20559E+02 -4.43981E+03 -1.61394E+03 -1.14464E+03 -2.55968E+03
  5.32014E+02 -2.45393E+03  2.02140E+03 -1.15448E+03  1.78049E+03  1.73892E+03 -1.00578E+03  2.28221E+03
 -2.84882E+03  1.36274E+03 -3.21196E+03 -1.91690E+03 -1.69041E+03 -4.23303E+03  5.76233E+02 -3.63856E+03
  1.77386E+03 -1.92511E+03  2.61019E+03 -2.36920E+02  2.55725E+03  7.44474E+02  2.43242E+02  2.00239E+03
 -9.68472E+02  6.64608E+02 -1.88231E+03 -1.25296E+03  8.31871E+02 -2.34833E+03  3.36365E+03 -2.16912E+03
  3.77998E+03  3.32029E+02  4.43051E+03  2.70289E+03  1.63188E+03  4.16376E+03 -1.35576E+03  3.92855E+03
 -3.21925E+03  1.56255E+03 -3.75933E+03 -4.55718E+02 -2.00828E+03 -3.13236E+03  8.09125E+02 -2.35169E+03
  2.94930E+03 -1.27364E+03  2.32575E+03  1.11705E+03  7.46979E+02  2.79365E+03  1.06413E+02  2.18710E+03
 -1.02881E+03  1.77000E+03 -1.02036E+03  5.40156E+02 -2.08952E+02  3.27826E+02 -9.39114E+02  9.40562E+02
 -1.14624E+03  1.91754E+03 -3.14461E+03  1.13124E+03 -3.99632E+03 -8.45192E+01 -4.88915E+03 -2.56945E+03
 -2.86201E+03 -5.48607E+03  9.00804E+02 -6.72200E+03  3.55006E+03 -5.13970E+03  5.85620E+03 -1.69684E+03
  5.79105E+03  9.49212E+02  3.16240E+03  3.71786E+03  1.23938E+02  3.70402E+03 -1.66333E+03  3.14534E+03
 -2.24042E+03  1.40460E+03 -1.34061E+03 -5.50749E+02 -7.97376E+02 -1.07864E+02 -6.61946E+02 -1.23825E+01
 -9.55612E+02 -7.11335E+01 -1.34416E+03 -1.62673E+02 -2.13286E+02 -1.09456E+03 -3.26609E+02 -1.81227E+03
  2.42369E+03 -1.55037E+03  1.75062E+03 -1.32202E+01  2.80426E+03  2.44314E+03  3.16555E+02  3.69733E+03
 -2.07098E+03  4.72479E+03 -4.23353E+03  2.87648E+03 -4.98060E+03 -1.93615E+02 -3.55412E+03 -3.01036E+03
 -1.95116E+03 -3.80425E+03  1.03957E+03 -3.25555E+03  2.38537E+03 -1.77824E+03  2.63032E+03  2.38313E+02
  1.55531E+03  1.41908E+03  3.59779E+01  9.30202E+02 -7.76848E+02  9.46760E+01 -7.35476E+01 -5.07073E+02
  1.18776E+03 -1.53820E+02  1.29349E+03  8.91246E+02  3.74799E+02  1.25259E+03  3.78439E+02  1.52119E+03
 -1.68297E+03  1.79876E+03 -2.52034E+03  2.77801E+02 -2.40647E+03 -1.90141E+03 -4.00922E+02 -3.30714E+03
  1.66326E+03 -2.36765E+03  2.30076E+03 -9.74694E+02  2.75182E+03  2.08367E+02  1.53777E+03  1.98014E+03
  5.33539E+02  2.01787E+03 -1.06897E+03  1.69325E+03 -1.74734E+03  1.62368E+03 -1.23011E+03 -1.39331E+01
 -8.61265E+02 -2.50544E+02 -1.15963E+03  3.29810E+02 -1.12235E+03  3.05799E+02 -1.97761E+03 -6.02762E+02
 -2.27297E+03 -5.36572E+02 -2.73463E+02 -2.35265E+03  1.37179E+03 -3.09978E+03  1.94098E+03 -8.91354E+02
  2.16421E+03  7.28982E+01  4.05138E+02  1.56738E+03 -2.59875E+02  2.36640E+03 -1.61533E+03  1.34216E+03
