 $NMID ID='MM_0lb_SNR800_9hz_g45_66.RAW', FMTDAT='(8E13.5)'
 TRAMP=1., VOLUME=1. $END
  3.10000E+05 -4.33522E+01  3.38056E+05  2.51364E+05  8.47385E+04  3.38576E+05 -1.33108E+05  2.51987E+05
 -1.90805E+05  8.36969E+04 -1.12341E+05 -3.22446E+04  5.09594E+02 -5.04276E+04  5.40251E+04 -6.26754E+02
  3.54935E+04  5.32494E+04 -1.69391E+04  7.59774E+04 -6.11101E+04  6.40772E+04 -8.53595E+04  3.27528E+04
 -8.25622E+04 -1.17933E+04 -5.79807E+04 -5.21230E+04 -1.51627E+04 -7.06785E+04  2.84062E+04 -4.67607E+04
  4.08790E+04  3.74296E+03  1.65542E+04  4.85856E+04 -3.46463E+04  4.81063E+04 -6.79641E+04  1.10947E+01
 -5.47891E+04 -5.81879E+04 -7.38805E+03 -7.84830E+04  3.44784E+04 -5.67021E+04  4.94645E+04 -1.80455E+04
  4.51694E+04  1.15452E+04  3.26409E+04  2.64193E+04  1.58663E+04  3.01946E+04 -5.95902E+03  2.74978E+04
 -2.23508E+04  1.16858E+04 -1.81667E+04 -5.63821E+03  6.94852E+03 -7.59901E+03  2.31419E+04  1.38043E+04
  7.49363E+03  3.72645E+04 -3.36055E+04  3.68419E+04 -6.56594E+04  1.78755E+03 -5.86384E+04 -4.43376E+04
 -1.25367E+04 -6.58746E+04  4.15672E+04 -4.71747E+04  6.09514E+04 -2.38384E+03  3.63131E+04  3.41736E+04
 -5.71771E+03  3.90633E+04 -3.15526E+04  1.84146E+04 -3.31224E+04 -3.77972E+03 -1.94276E+04 -1.18460E+04
 -8.90347E+03 -1.51485E+04 -6.12658E+02 -1.94973E+04  8.74725E+03 -2.37549E+04  1.58094E+04 -1.29939E+04
  1.09981E+04  5.84651E+03 -1.05809E+04  1.29526E+04 -2.34662E+04 -6.35706E+03 -8.64482E+03 -3.66790E+04
  2.47673E+04 -4.66794E+04  5.20306E+04 -2.09527E+04  4.88230E+04  2.05859E+04  1.71814E+04  4.67963E+04
 -1.67729E+04  3.60549E+04 -2.69105E+04  2.57362E+03 -1.12841E+04 -2.90916E+04  2.12634E+04 -3.67521E+04
  4.44181E+04 -1.07153E+04  3.91755E+04  2.52831E+04  2.06875E+04  5.05760E+04 -8.27220E+03  5.54300E+04
 -3.53282E+04  3.76433E+04 -4.68446E+04  1.10645E+04 -4.66863E+04 -1.82857E+04 -2.58423E+04 -4.16633E+04
  7.65460E+03 -4.16232E+04  3.37741E+04 -1.68137E+04  3.19412E+04  1.13366E+04  5.11033E+03  2.04728E+04
 -1.40805E+04  9.65290E+03 -1.14765E+04 -7.57843E+03  5.47041E+03 -1.13396E+04  1.87718E+04  5.49289E+03
  1.47151E+04  2.28692E+04 -5.54846E+03  2.70245E+04 -2.34248E+04  1.40081E+04 -3.09438E+04 -3.01345E+03
 -2.49641E+04 -1.83397E+04 -1.15212E+04 -2.46292E+04  4.37558E+03 -2.49181E+04  1.96525E+04 -2.26609E+04
  3.15104E+04 -1.41418E+04  3.75759E+04  4.81845E+03  2.65868E+04  2.42383E+04  4.71987E+03  4.06102E+04
 -1.97905E+04  3.37670E+04 -3.00282E+04  1.18443E+04 -2.21677E+04 -1.04591E+04 -4.67752E+03 -1.30135E+04
  8.23178E+02 -1.15760E+03 -7.38889E+03  8.05750E+03 -1.98186E+04  4.99753E+03 -2.00385E+04 -9.23713E+03
 -1.18206E+04 -2.25815E+04  5.97198E+03 -2.74329E+04  1.86257E+04 -1.91335E+04  2.19483E+04 -1.45728E+03
  1.39133E+04  1.62335E+04 -1.65791E+03  2.31570E+04 -1.58111E+04  1.30850E+04 -2.33553E+04 -5.02065E+03
 -1.67946E+04 -2.04295E+04 -2.27339E+03 -2.77599E+04  1.26724E+04 -2.30062E+04  2.26665E+04 -1.16631E+04
  2.15913E+04 -2.82154E+02  1.55510E+04  5.02772E+03  8.06148E+03  1.19528E+03  1.24670E+04 -2.35337E+03
  2.16861E+04  2.61358E+03  2.48345E+04  1.79955E+04  1.70436E+04  3.69421E+04 -2.68800E+03  4.33111E+04
 -2.46418E+04  3.57822E+04 -4.10252E+04  1.88390E+04 -4.34445E+04 -3.19468E+03 -3.53063E+04 -2.51785E+04
 -1.44130E+04 -3.61938E+04  1.32693E+04 -3.22947E+04  2.75095E+04 -1.47898E+04  2.33295E+04  7.46267E+03
  8.14724E+03  1.85123E+04 -1.13719E+04  1.50646E+04 -1.97551E+04  2.68355E+03 -1.49699E+04 -1.25937E+04
 -5.36907E+02 -1.82437E+04  1.02853E+04 -1.42886E+04  1.34442E+04 -8.41867E+02  3.39670E+03  8.35525E+03
 -8.43931E+03  3.93750E+03 -9.27374E+03 -6.55120E+03 -1.84093E+03 -1.74055E+04  1.18590E+04 -1.90073E+04
  2.25649E+04 -1.10184E+04  2.58980E+04  3.33143E+03  2.24524E+04  1.81583E+04  1.01308E+04  2.83857E+04
 -5.43935E+03  3.04400E+04 -1.99089E+04  1.86139E+04 -2.19867E+04  4.29615E+03 -1.49978E+04 -5.74491E+03
 -6.28942E+03 -7.42929E+03 -9.71938E+02  8.24569E+01 -3.01385E+03  3.72248E+03 -7.15575E+03  5.11019E+03
 -1.40189E+04 -1.13905E+03 -1.43284E+04 -1.18087E+04 -5.84759E+03 -1.93879E+04  6.15508E+03 -1.54388E+04
  1.23093E+04 -6.56923E+03  9.25331E+03  3.99781E+03  6.79838E+01  6.12992E+03 -7.62355E+03  1.00819E+02
 -7.09520E+03 -1.01485E+04 -1.18673E+03 -1.52485E+04  9.23719E+03 -1.59246E+04  1.96859E+04 -8.51531E+03
  2.26917E+04  2.29581E+03  1.65520E+04  1.35280E+04  3.37611E+03  1.86241E+04 -9.21080E+03  1.51729E+04
 -1.21751E+04  4.52194E+03 -6.46260E+03 -3.26366E+03  2.05461E+03 -4.33096E+03  7.84369E+03 -1.11254E+03
  7.15775E+03  6.78039E+03  1.04933E+03  1.24004E+04 -8.87921E+03  1.17658E+04 -1.50800E+04  2.83206E+03
 -1.02376E+04 -8.11595E+03  1.81464E+02 -1.32546E+04  8.76759E+03 -6.79246E+03  8.89123E+03  3.19889E+03
  2.27296E+03  9.71470E+03 -7.94406E+03  1.10731E+04 -1.34454E+04  5.01182E+03 -1.37482E+04 -4.55065E+03
 -7.48917E+03 -1.53209E+04  4.09031E+03 -1.76847E+04  1.49666E+04 -1.07579E+04  1.66391E+04  3.21145E+03
  1.01042E+04  1.28127E+04 -1.23710E+03  1.56203E+04 -1.14748E+04  8.74528E+03 -1.22213E+04 -1.07726E+03
 -1.06390E+04 -1.03492E+04 -1.71508E+03 -1.15373E+04  6.49955E+03 -8.83282E+03  7.04781E+03 -3.75936E+03
  4.94145E+03  2.33224E+03 -9.44169E+02  2.47358E+03 -6.56069E+02 -3.30895E+03  2.51480E+03 -7.42071E+03
  1.12895E+04 -4.64171E+03  1.55376E+04  1.65987E+03  1.52711E+04  1.06103E+04  9.93779E+03  2.04687E+04
 -5.15193E+03  2.35820E+04 -1.92749E+04  1.69554E+04 -2.52596E+04  3.02286E+03 -2.01246E+04 -8.89105E+03
 -1.00682E+04 -1.67778E+04 -3.28850E+02 -1.44157E+04  4.87530E+03 -8.25286E+03  5.24969E+03 -5.51877E+03
  3.99971E+03 -3.18909E+03  3.89315E+03 -3.95776E+03  5.90407E+03 -3.66303E+03  7.32666E+03 -1.65385E+03
  1.07474E+04  2.20248E+03  5.56497E+03  9.04635E+03 -2.04813E+03  1.07148E+04 -1.08471E+04  8.44703E+03
 -1.39047E+04 -1.27550E+03 -9.32374E+03 -1.00171E+04 -8.70168E+02 -1.52836E+04  8.15461E+03 -1.52294E+04
  1.57407E+04 -8.50642E+03  1.93573E+04  2.75488E+03  1.30309E+04  1.34451E+04  2.32088E+03  1.70671E+04
 -6.99507E+03  1.42685E+04 -1.05970E+04  4.97283E+03 -7.19280E+03 -1.54501E+03 -2.85247E+03 -1.95531E+03
 -1.47921E+03 -3.53777E+02 -2.04339E+03  2.75888E+03 -6.03006E+03  2.55008E+03 -9.99565E+03 -1.27978E+03
 -7.51033E+03 -9.79054E+03 -1.20402E+02 -1.45668E+04  8.86820E+03 -1.30140E+04  1.40968E+04 -4.38676E+03
  1.41685E+04  6.76312E+03  6.65112E+03  1.28297E+04 -2.82201E+03  1.45559E+04 -1.09437E+04  8.97305E+03
 -1.33272E+04  4.14195E+02 -1.03981E+04 -8.81529E+03 -1.08448E+03 -1.19026E+04  6.27816E+03 -8.79617E+03
  8.95090E+03 -2.72695E+03  6.18656E+03  2.30060E+03  2.40179E+03  4.42653E+03  1.18009E+03  1.96391E+03
  2.66278E+03  1.15324E+03  3.60047E+03  1.84492E+03  4.44884E+03  4.75826E+03  3.36885E+03  7.81993E+03
 -2.93073E+03  1.16765E+04 -1.00736E+04  1.16570E+04 -1.50256E+04  2.83557E+03 -1.53650E+04 -6.28887E+03
 -7.31116E+03 -1.42236E+04  1.78973E+03 -1.63935E+04  9.07854E+03 -1.06351E+04  1.17168E+04 -2.61944E+03
  9.50441E+03  6.01691E+03  2.10480E+03  8.39941E+03 -4.13255E+03  5.39881E+03 -5.94405E+03 -9.57322E+02
 -2.73819E+03 -6.49557E+03  2.96851E+03 -6.36014E+03  5.61065E+03 -3.22833E+03  5.48969E+03  1.26308E+03
  3.51945E+03  2.86083E+03  1.43261E+03  2.53062E+03 -1.02583E+03  1.95440E+03  1.69791E+03 -8.54494E+02
  2.35972E+03 -6.52480E+02  6.08839E+03  2.09774E+03  3.49150E+03  8.17778E+03 -1.19121E+03  1.03995E+04
 -6.79223E+03  6.69793E+03 -9.20865E+03  1.84909E+03 -8.23908E+03 -3.22353E+03 -3.35153E+03 -5.71284E+03
  8.56167E+02 -5.81179E+03  3.81570E+03 -2.82835E+03  2.71994E+03  2.91573E+03 -1.67793E+03  4.95278E+03
 -5.85255E+03  2.62924E+03 -6.43501E+03 -3.44368E+03 -4.07146E+03 -7.90585E+03  1.11776E+03 -7.97253E+03
  4.61232E+03 -4.77719E+03  5.93245E+03 -5.71918E+02  5.12084E+03  2.04044E+03  3.21370E+02  4.65178E+03
 -2.92330E+03  1.65765E+03 -3.89640E+03 -2.66436E+03  1.15521E+03 -6.43605E+03  7.24413E+03 -5.10206E+03
  8.93885E+03  7.68935E+02  8.86126E+03  6.23380E+03  2.94616E+03  9.66396E+03 -3.91638E+03  9.76265E+03
 -7.87568E+03  4.17389E+03 -8.11199E+03 -1.32850E+03 -4.35250E+03 -6.01606E+03  1.76224E+03 -5.91036E+03
  5.57205E+03 -3.19451E+03  5.13288E+03  2.11818E+03  1.52568E+03  5.68467E+03 -8.92989E+02  4.47913E+03
 -2.80193E+03  2.90533E+03 -2.43557E+03  9.79379E+02 -1.11567E+03  8.60746E+02 -1.58506E+03  2.07902E+03
 -2.55630E+03  3.76618E+03 -6.39911E+03  3.33321E+03 -9.93457E+03  2.19432E+02 -1.10515E+04 -6.61022E+03
 -5.71010E+03 -1.28713E+04  2.46089E+03 -1.49534E+04  8.84241E+03 -1.13780E+04  1.40735E+04 -4.12733E+03
  1.29803E+04  2.80802E+03  7.96057E+03  9.08717E+03  5.96528E+02  1.03238E+04 -4.22171E+03  7.42024E+03
 -5.48506E+03  3.18329E+03 -3.51554E+03 -1.17096E+03 -1.28856E+03 -4.94220E+02 -4.37880E+02  3.69496E+01
 -1.82720E+03  3.68210E+02 -1.91168E+03  6.74548E+00 -1.00745E+03 -2.68513E+03  6.00430E+01 -3.50667E+03
  4.23631E+03 -3.70152E+03  5.95543E+03  2.24947E+02  7.20467E+03  5.43595E+03  2.00575E+03  1.00554E+04
 -4.45698E+03  1.15805E+04 -1.06048E+04  6.93184E+03 -1.28255E+04 -1.66011E+03 -9.29435E+03 -7.74943E+03
 -3.96653E+03 -1.08082E+04  2.89757E+03 -9.65892E+03  6.63415E+03 -5.07803E+03  6.49009E+03  3.27502E+02
  3.73185E+03  3.46188E+03 -3.78858E+02  3.01236E+03 -2.14963E+03 -3.21353E+02  1.41419E+02 -2.42239E+03
  3.40674E+03 -1.55872E+03  3.69082E+03  1.53177E+03  2.64699E+03  4.02419E+03  3.92968E+02  5.41959E+03
 -4.15566E+03  4.80841E+03 -6.89343E+03  4.41179E+02 -5.87118E+03 -4.60940E+03 -5.39304E+02 -8.41310E+03
  5.02151E+03 -7.28745E+03  7.87397E+03 -2.19822E+03  8.09344E+03  1.93953E+03  4.47191E+03  6.09948E+03
  9.66428E+02  7.09279E+03 -2.68642E+03  5.26656E+03 -4.33946E+03  2.98863E+03 -3.21513E+03  2.00098E+02
 -1.99628E+03 -5.34019E+02 -1.71214E+03  8.14822E+02 -3.73973E+03  9.83958E+02 -5.28918E+03 -1.19003E+03
 -5.12351E+03 -3.90759E+03 -1.53282E+03 -6.88695E+03  3.31213E+03 -7.52650E+03  6.12905E+03 -3.33927E+03
  6.96455E+03  1.00147E+03  3.74370E+03  4.74651E+03 -2.66858E+02  6.94647E+03 -5.46309E+03  4.54343E+03
