 $NMID ID='MM_0lb_SNR800_12hz_g45_3.RAW', FMTDAT='(8E13.5)'
 TRAMP=1., VOLUME=1. $END
  3.09750E+05  5.45498E+02  3.37875E+05  2.50757E+05  8.48787E+04  3.38243E+05 -1.32720E+05  2.51253E+05
 -1.90236E+05  8.34337E+04 -1.12295E+05 -3.24019E+04  5.42863E+02 -5.03936E+04  5.37758E+04 -1.12557E+02
  3.51467E+04  5.25967E+04 -1.69067E+04  7.53647E+04 -6.07454E+04  6.38218E+04 -8.41852E+04  3.21650E+04
 -8.15579E+04 -1.16971E+04 -5.74234E+04 -5.17604E+04 -1.46267E+04 -7.00497E+04  2.77572E+04 -4.58258E+04
  4.05531E+04  3.75687E+03  1.65609E+04  4.81801E+04 -3.44199E+04  4.74599E+04 -6.72832E+04 -3.35044E+02
 -5.37069E+04 -5.70597E+04 -7.06734E+03 -7.77033E+04  3.39428E+04 -5.56241E+04  4.84815E+04 -1.77519E+04
  4.37533E+04  1.12520E+04  3.19021E+04  2.55643E+04  1.58892E+04  2.98466E+04 -5.55834E+03  2.76122E+04
 -2.26570E+04  1.24807E+04 -1.85585E+04 -5.04920E+03  6.02943E+03 -7.19708E+03  2.25122E+04  1.29310E+04
  7.19165E+03  3.57438E+04 -3.23081E+04  3.59327E+04 -6.40368E+04  2.41202E+03 -5.75621E+04 -4.33597E+04
 -1.25552E+04 -6.37031E+04  4.04241E+04 -4.57547E+04  5.93538E+04 -2.14238E+03  3.51076E+04  3.27852E+04
 -5.68269E+03  3.71548E+04 -3.02001E+04  1.66780E+04 -3.11414E+04 -3.87701E+03 -1.73072E+04 -1.12021E+04
 -8.83383E+03 -1.31968E+04 -2.51908E+02 -1.84705E+04  7.89641E+03 -2.31248E+04  1.58056E+04 -1.32312E+04
  1.09368E+04  5.36587E+03 -8.57540E+03  1.29998E+04 -2.17775E+04 -4.89475E+03 -8.39682E+03 -3.48288E+04
  2.36260E+04 -4.47138E+04  4.94268E+04 -2.03367E+04  4.62092E+04  1.98138E+04  1.64212E+04  4.49281E+04
 -1.61926E+04  3.43396E+04 -2.61593E+04  1.96681E+03 -1.05427E+04 -2.78296E+04  2.12675E+04 -3.48691E+04
  4.19953E+04 -9.49725E+03  3.69392E+04  2.43429E+04  1.91324E+04  4.79025E+04 -7.58874E+03  5.17561E+04
 -3.24649E+04  3.49965E+04 -4.37295E+04  9.73223E+03 -4.41226E+04 -1.73784E+04 -2.45570E+04 -3.89082E+04
  7.21586E+03 -3.87975E+04  3.22433E+04 -1.53856E+04  3.02423E+04  1.12386E+04  4.46464E+03  1.95888E+04
 -1.38426E+04  8.59522E+03 -1.07704E+04 -7.58253E+03  6.01676E+03 -1.06488E+04  1.78364E+04  5.96072E+03
  1.37109E+04  2.24324E+04 -5.69140E+03  2.57883E+04 -2.26693E+04  1.25328E+04 -2.91420E+04 -4.50904E+03
 -2.15705E+04 -1.75812E+04 -9.22318E+03 -2.18526E+04  4.26326E+03 -2.13206E+04  1.68242E+04 -1.97019E+04
  2.77947E+04 -1.32235E+04  3.40978E+04  3.08870E+03  2.46367E+04  2.09600E+04  4.67623E+03  3.79854E+04
 -1.87356E+04  3.14133E+04 -2.90675E+04  1.08847E+04 -2.16061E+04 -1.00775E+04 -4.27251E+03 -1.35115E+04
  1.53861E+03 -2.12632E+03 -5.65172E+03  6.92988E+03 -1.75239E+04  5.10035E+03 -1.74586E+04 -7.34423E+03
 -1.05226E+04 -2.02055E+04  5.48877E+03 -2.45742E+04  1.65048E+04 -1.77438E+04  1.95132E+04 -1.78631E+03
  1.22578E+04  1.42328E+04 -8.14736E+02  2.00662E+04 -1.41245E+04  1.17398E+04 -2.02450E+04 -4.23064E+03
 -1.47519E+04 -1.81636E+04 -1.65135E+03 -2.43985E+04  1.10845E+04 -2.00307E+04  2.03703E+04 -1.00240E+04
  1.88689E+04  3.17464E+02  1.36795E+04  4.55740E+03  7.31443E+03  1.14371E+03  1.06267E+04 -1.93574E+03
  1.85252E+04  2.77552E+03  2.10150E+04  1.57195E+04  1.41575E+04  3.26769E+04 -2.84702E+03  3.73497E+04
 -2.13178E+04  3.05282E+04 -3.48627E+04  1.52143E+04 -3.64967E+04 -2.38158E+03 -3.04677E+04 -2.14282E+04
 -1.26599E+04 -3.04457E+04  1.07698E+04 -2.72302E+04  2.34707E+04 -1.34382E+04  2.06420E+04  5.96410E+03
  7.40152E+03  1.54452E+04 -9.70932E+03  1.36833E+04 -1.77276E+04  2.37774E+03 -1.35042E+04 -1.11888E+04
 -2.85011E+02 -1.65666E+04  8.86680E+03 -1.23325E+04  1.06938E+04 -1.24176E+03  2.37663E+03  7.20520E+03
 -7.27636E+03  2.96947E+03 -6.60464E+03 -5.89162E+03 -6.92168E+02 -1.50780E+04  1.01346E+04 -1.54247E+04
  1.88752E+04 -8.29472E+03  1.99812E+04  2.83133E+03  1.75914E+04  1.48053E+04  8.35089E+03  2.30166E+04
 -3.59047E+03  2.50046E+04 -1.60097E+04  1.56237E+04 -1.82712E+04  3.61388E+03 -1.24217E+04 -4.31492E+03
 -5.68516E+03 -5.41739E+03 -9.35970E+02  9.51616E+02 -2.62001E+03  2.79314E+03 -5.75459E+03  4.66594E+03
 -1.19884E+04 -9.42207E+02 -1.23989E+04 -9.91074E+03 -5.00135E+03 -1.62318E+04  5.44477E+03 -1.27121E+04
  1.05047E+04 -5.26861E+03  7.38582E+03  3.29216E+03 -1.82175E+02  5.12509E+03 -6.05285E+03 -3.29221E+02
 -5.59824E+03 -8.25239E+03 -1.10958E+03 -1.19223E+04  6.83157E+03 -1.27915E+04  1.55392E+04 -6.76742E+03
  1.86013E+04  1.54742E+03  1.36403E+04  1.06489E+04  2.94330E+03  1.44566E+04 -7.77852E+03  1.23132E+04
 -1.02924E+04  3.95900E+03 -5.47701E+03 -2.69798E+03  1.68106E+03 -3.42510E+03  6.73648E+03 -8.69712E+02
  6.06906E+03  5.51329E+03  1.24179E+03  1.03311E+04 -7.02092E+03  9.74810E+03 -1.23686E+04  2.53109E+03
 -8.25172E+03 -6.28901E+03  2.51593E+02 -9.96656E+03  6.72033E+03 -5.43333E+03  6.91277E+03  2.57079E+03
  1.37365E+03  7.18868E+03 -6.30164E+03  8.36318E+03 -9.85133E+03  4.00986E+03 -1.00470E+04 -3.31084E+03
 -5.58619E+03 -1.17178E+04  2.85129E+03 -1.36729E+04  1.14758E+04 -8.25512E+03  1.21686E+04  2.36513E+03
  7.55794E+03  9.87376E+03 -9.64442E+02  1.21320E+04 -8.47544E+03  6.74795E+03 -9.49565E+03 -8.27650E+02
 -8.40516E+03 -8.20135E+03 -1.90130E+03 -8.83839E+03  4.66307E+03 -7.73110E+03  5.48586E+03 -3.23790E+03
  3.93055E+03  1.26440E+03 -4.15188E+02  1.73509E+03 -1.10215E+02 -2.23594E+03  1.47582E+03 -5.15744E+03
  8.06034E+03 -2.79074E+03  1.14335E+04  1.26576E+03  1.12558E+04  7.60423E+03  7.89618E+03  1.49351E+04
 -2.92901E+03  1.73223E+04 -1.44821E+04  1.28635E+04 -1.87566E+04  2.31072E+03 -1.51431E+04 -6.07823E+03
 -7.29082E+03 -1.24640E+04 -4.35527E+02 -1.03935E+04  3.66590E+03 -5.49613E+03  3.69318E+03 -4.10026E+03
  2.85187E+03 -2.25692E+03  2.99689E+03 -3.23360E+03  4.86234E+03 -2.32259E+03  5.93027E+03 -4.13065E+02
  8.05090E+03  1.65096E+03  3.72545E+03  6.56714E+03 -1.97506E+03  7.47036E+03 -8.09481E+03  6.27007E+03
 -1.04156E+04 -9.18167E+02 -6.14910E+03 -6.88558E+03 -4.08864E+02 -1.05266E+04  6.46579E+03 -1.09620E+04
  1.13018E+04 -6.29876E+03  1.32698E+04  1.62024E+03  9.71920E+03  9.41736E+03  1.72541E+03  1.24794E+04
 -5.12123E+03  1.06864E+04 -7.01938E+03  3.62612E+03 -4.98121E+03 -1.44991E+03 -2.14819E+03 -1.53938E+03
 -7.50462E+02 -1.50472E+02 -1.67185E+03  2.40059E+03 -4.32754E+03  1.86540E+03 -7.34320E+03 -8.99289E+02
 -4.82071E+03 -7.44985E+03  2.26770E+02 -1.02610E+04  5.88680E+03 -9.39040E+03  9.70220E+03 -2.74329E+03
  9.58911E+03  4.95829E+03  4.51506E+03  8.92800E+03 -1.96081E+03  1.00107E+04 -7.01909E+03  6.68008E+03
 -9.00376E+03  2.38364E+02 -7.53042E+03 -6.16272E+03 -6.71996E+02 -8.16688E+03  4.31318E+03 -6.36986E+03
  6.26731E+03 -2.15666E+03  3.98010E+03  1.63804E+03  1.52523E+03  2.85973E+03  1.34394E+03  1.44670E+03
  2.57857E+03  5.70137E+02  2.59005E+03  1.61898E+03  3.02436E+03  3.87372E+03  2.70262E+03  4.90454E+03
 -2.37876E+03  7.68849E+03 -6.56825E+03  8.40584E+03 -9.44478E+03  2.35781E+03 -1.02087E+04 -3.51457E+03
 -4.94418E+03 -9.36977E+03  1.71817E+03 -1.10609E+04  5.86495E+03 -6.90277E+03  7.99834E+03 -1.89556E+03
  6.12444E+03  3.62086E+03  1.27538E+03  5.60466E+03 -2.88590E+03  3.51982E+03 -3.89070E+03 -6.23407E+02
 -1.92002E+03 -3.98913E+03  2.32768E+03 -4.26017E+03  3.79953E+03 -1.84528E+03  3.73777E+03  9.27492E+02
  2.14222E+03  1.73766E+03  1.12633E+03  1.55213E+03 -6.81313E+02  1.43178E+03  1.91992E+03 -5.74852E+02
  1.33210E+03 -7.08972E+02  4.00328E+03  1.58133E+03  1.83029E+03  5.14614E+03 -7.90455E+02  6.70154E+03
 -4.88388E+03  4.40437E+03 -5.95857E+03  7.94512E+02 -5.66411E+03 -1.91972E+03 -1.63289E+03 -3.47214E+03
  6.36995E+02 -3.81130E+03  2.80129E+03 -1.57037E+03  2.00668E+03  2.45091E+03 -1.13476E+03  3.35116E+03
 -3.96581E+03  1.97877E+03 -4.24516E+03 -2.57135E+03 -2.20645E+03 -5.45159E+03  8.34841E+02 -5.43375E+03
  2.34080E+03 -3.07985E+03  3.26165E+03 -1.57608E+02  3.23217E+03  1.04251E+03  4.38047E+02  2.31698E+03
 -1.72010E+03  4.64457E+02 -2.52868E+03 -1.84799E+03  1.18942E+03 -3.76927E+03  4.56194E+03 -2.85792E+03
  5.48354E+03  4.89302E+02  5.99264E+03  3.94729E+03  1.72786E+03  6.13096E+03 -2.03875E+03  5.73990E+03
 -4.98103E+03  1.87327E+03 -4.85135E+03 -6.94646E+02 -2.70749E+03 -3.85524E+03  8.39559E+02 -3.45597E+03
  3.67826E+03 -2.12585E+03  3.14032E+03  1.40820E+03  8.17075E+02  3.53532E+03 -3.72784E+02  2.76790E+03
 -1.37939E+03  2.01901E+03 -8.59925E+02  5.31383E+02 -6.09868E+02  7.07966E+02 -1.27282E+03  1.12992E+03
 -1.67516E+03  2.39449E+03 -4.10655E+03  2.17266E+03 -5.82140E+03  3.06999E+02 -6.47365E+03 -3.86020E+03
 -3.64604E+03 -7.56286E+03  1.22168E+03 -8.96779E+03  5.22193E+03 -7.21642E+03  8.79151E+03 -2.52228E+03
  8.10948E+03  1.48110E+03  4.73091E+03  5.23731E+03  2.77655E+02  5.52943E+03 -2.30458E+03  4.11175E+03
 -3.40345E+03  1.85456E+03 -1.95809E+03 -7.77042E+02 -7.20779E+02 -4.08087E+02 -8.99335E+02  3.19881E+02
 -1.82432E+03  7.51707E+01 -1.54258E+03 -4.86950E+02 -2.51689E+02 -1.69522E+03 -3.15264E+02 -2.38284E+03
  2.98460E+03 -1.49971E+03  3.47761E+03  2.12412E+02  4.26379E+03  3.20922E+03  8.67378E+02  5.52973E+03
 -2.52151E+03  7.09186E+03 -6.05518E+03  3.94507E+03 -7.19798E+03 -6.22539E+02 -4.92944E+03 -4.27114E+03
 -2.35053E+03 -5.63752E+03  1.12438E+03 -4.98339E+03  3.18271E+03 -3.07444E+03  3.64922E+03  1.51574E+02
  2.40812E+03  1.67391E+03 -5.57618E+00  1.60492E+03 -1.13733E+03 -1.71343E+02  4.34266E+01 -1.33209E+03
  1.97973E+03 -4.49739E+02  2.04321E+03  1.28050E+03  1.14383E+03  2.43358E+03  1.35135E+02  2.75103E+03
 -2.69598E+03  2.38526E+03 -3.59014E+03  3.51694E+02 -3.47796E+03 -2.68649E+03 -2.82948E+02 -4.68779E+03
  2.87472E+03 -4.26697E+03  4.38985E+03 -1.19202E+03  4.52974E+03  4.65009E+02  2.12557E+03  3.27992E+03
  5.24537E+02  3.52059E+03 -1.39249E+03  3.13650E+03 -2.56691E+03  1.92638E+03 -2.04254E+03  3.68317E+02
 -1.32008E+03 -3.26804E+02 -9.01031E+02  1.65155E+02 -2.12254E+03  7.03039E+02 -2.88711E+03 -2.02520E+02
 -3.02334E+03 -1.43536E+03 -1.36532E+03 -3.87984E+03  1.95649E+03 -4.01054E+03  3.10161E+03 -1.66860E+03
  3.41839E+03  6.00383E+02  1.20484E+03  2.60297E+03 -6.02251E+02  3.82208E+03 -2.45581E+03  2.75712E+03
