 $NMID ID='MM_0lb_SNR800_18hz_g45_88.RAW', FMTDAT='(8E13.5)'
 TRAMP=1., VOLUME=1. $END
  3.09671E+05  4.35748E+02  3.37201E+05  2.50656E+05  8.43748E+04  3.37404E+05 -1.32582E+05  2.49994E+05
 -1.89884E+05  8.24808E+04 -1.10957E+05 -3.28317E+04  1.42622E+03 -5.01472E+04  5.38277E+04  1.77114E+01
  3.49490E+04  5.25719E+04 -1.69156E+04  7.48408E+04 -6.01996E+04  6.27402E+04 -8.31194E+04  3.14615E+04
 -7.96620E+04 -1.13128E+04 -5.63655E+04 -5.03974E+04 -1.51012E+04 -6.83998E+04  2.67875E+04 -4.47144E+04
  3.91485E+04  3.77701E+03  1.57110E+04  4.69644E+04 -3.37462E+04  4.61435E+04 -6.56577E+04 -8.32587E+02
 -5.21545E+04 -5.57299E+04 -6.13199E+03 -7.53277E+04  3.32316E+04 -5.32285E+04  4.63831E+04 -1.64267E+04
  4.18588E+04  1.08820E+04  3.08652E+04  2.45153E+04  1.56506E+04  2.82522E+04 -4.70189E+03  2.69755E+04
 -2.20328E+04  1.29546E+04 -1.91528E+04 -4.48664E+03  4.42457E+03 -7.94038E+03  2.13903E+04  1.08923E+04
  7.46079E+03  3.32353E+04 -3.03100E+04  3.40424E+04 -6.12175E+04  1.97999E+03 -5.56027E+04 -4.15252E+04
 -1.23742E+04 -6.09977E+04  3.82308E+04 -4.33995E+04  5.55235E+04 -1.63919E+03  3.19392E+04  3.08211E+04
 -6.47641E+03  3.32777E+04 -2.83503E+04  1.30733E+04 -2.77166E+04 -5.33942E+03 -1.44267E+04 -1.02697E+04
 -7.43784E+03 -1.15176E+04 -1.20097E+03 -1.66431E+04  6.59730E+03 -2.21540E+04  1.50297E+04 -1.38279E+04
  1.21405E+04  4.24659E+03 -6.22988E+03  1.26812E+04 -1.96216E+04 -2.73183E+03 -8.30790E+03 -3.05625E+04
  2.07953E+04 -4.07735E+04  4.49842E+04 -1.85924E+04  4.22731E+04  1.83987E+04  1.44324E+04  4.17566E+04
 -1.51911E+04  3.09802E+04 -2.34480E+04  9.55637E+02 -8.14931E+03 -2.65017E+04  2.06861E+04 -3.12749E+04
  3.80901E+04 -7.33409E+03  3.14029E+04  2.26742E+04  1.55452E+04  4.27372E+04 -7.92783E+03  4.55546E+04
 -2.85550E+04  2.99349E+04 -3.75758E+04  8.43680E+03 -3.86402E+04 -1.49887E+04 -2.10552E+04 -3.45144E+04
  6.75888E+03 -3.43151E+04  2.91325E+04 -1.27261E+04  2.68795E+04  1.11454E+04  2.86296E+03  1.76630E+04
 -1.33300E+04  7.40075E+03 -9.64178E+03 -7.73350E+03  5.96790E+03 -1.01615E+04  1.72320E+04  6.29435E+03
  1.24528E+04  2.14658E+04 -6.84383E+03  2.33170E+04 -2.15084E+04  9.29624E+03 -2.51026E+04 -6.05497E+03
 -1.71360E+04 -1.62723E+04 -5.73496E+03 -1.69137E+04  3.77061E+03 -1.49163E+04  1.26123E+04 -1.46781E+04
  2.17613E+04 -1.16529E+04  2.84685E+04  1.25017E+03  2.12536E+04  1.62754E+04  3.99985E+03  3.25316E+04
 -1.62553E+04  2.78852E+04 -2.57029E+04  9.67714E+03 -1.96303E+04 -1.05500E+04 -3.86630E+03 -1.37666E+04
  2.65403E+03 -3.88392E+03 -2.72822E+03  5.22392E+03 -1.31060E+04  5.15348E+03 -1.32846E+04 -4.85228E+03
 -8.66024E+03 -1.55046E+04  4.65070E+03 -1.95185E+04  1.26930E+04 -1.42086E+04  1.50062E+04 -1.54724E+03
  9.06434E+03  1.08946E+04 -7.61414E+02  1.58948E+04 -1.05854E+04  9.04106E+03 -1.55947E+04 -3.35166E+03
 -1.14697E+04 -1.45961E+04 -1.75243E+03 -1.91780E+04  8.58466E+03 -1.55820E+04  1.61532E+04 -7.18850E+03
  1.45975E+04  7.35622E+02  1.05768E+04  3.79835E+03  5.32577E+03  4.64469E+02  7.87086E+03 -1.30925E+03
  1.42236E+04  2.93001E+03  1.45705E+04  1.28962E+04  9.35105E+03  2.49898E+04 -3.25184E+03  2.69090E+04
 -1.61272E+04  2.09975E+04 -2.50074E+04  1.00264E+04 -2.53485E+04 -1.62793E+03 -2.14253E+04 -1.44114E+04
 -1.02536E+04 -2.08206E+04  6.86458E+03 -1.91023E+04  1.71234E+04 -1.08948E+04  1.58953E+04  3.73463E+03
  6.82792E+03  1.15548E+04 -7.41367E+03  1.04759E+04 -1.34170E+04  2.47721E+03 -1.05520E+04 -7.94657E+03
 -1.97758E+02 -1.28018E+04  6.44064E+03 -9.41001E+03  8.01579E+03 -1.23945E+03  1.40638E+03  5.05800E+03
 -5.60207E+03  1.40728E+03 -3.56273E+03 -4.67174E+03  6.17752E+02 -1.03723E+04  8.06995E+03 -1.03880E+04
  1.25715E+04 -4.96154E+03  1.19684E+04  2.74807E+03  1.02820E+04  9.66931E+03  4.94393E+03  1.40690E+04
 -1.72088E+03  1.65033E+04 -9.81526E+03  9.98639E+03 -1.16111E+04  3.05810E+03 -8.61044E+03 -1.68914E+03
 -4.72760E+03 -3.21702E+03 -9.19222E+02  1.58294E+03 -1.95882E+03  1.76314E+03 -3.92196E+03  3.33030E+03
 -8.13524E+03 -7.15058E+02 -9.01762E+03 -7.01776E+03 -3.49610E+03 -1.17256E+04  3.71670E+03 -8.46793E+03
  7.33495E+03 -3.91352E+03  5.35422E+03  2.00358E+03  7.65919E+02  3.16776E+03 -3.50229E+03 -7.40148E+01
 -3.86211E+03 -5.34590E+03 -6.72887E+02 -7.23981E+03  3.88345E+03 -7.94412E+03  1.01809E+04 -4.14569E+03
  1.20898E+04  5.55076E+02  8.92046E+03  6.24250E+03  2.02396E+03  8.94669E+03 -5.17126E+03  8.44468E+03
 -7.29196E+03  3.03833E+03 -3.90147E+03 -1.03108E+03  1.70614E+03 -1.67419E+03  4.82402E+03 -9.59642E+02
  4.41177E+03  3.29170E+03  9.19831E+02  6.42947E+03 -4.64487E+03  6.66454E+03 -7.87626E+03  2.02019E+03
 -5.27897E+03 -3.71433E+03  4.50902E+02 -6.87617E+03  3.78196E+03 -3.55981E+03  3.78470E+03  8.13836E+02
  3.38291E+02  3.70679E+03 -3.91265E+03  5.03660E+03 -5.05591E+03  2.62262E+03 -4.69344E+03 -1.10088E+03
 -3.25921E+03 -6.11821E+03  1.12813E+03 -7.28790E+03  6.13068E+03 -4.54188E+03  6.84929E+03  8.65050E+02
  4.91803E+03  5.52380E+03  3.17095E+01  7.19145E+03 -5.35774E+03  4.22024E+03 -5.41987E+03 -4.16986E+02
 -6.24257E+03 -4.97491E+03 -1.44745E+03 -5.16899E+03  2.63549E+03 -4.92004E+03  2.90072E+03 -2.74050E+03
  2.96144E+03  3.28534E+02  2.78374E+02  1.26077E+03  5.51802E+02 -8.33575E+01  2.38853E+01 -1.79109E+03
  3.86196E+03 -8.38098E+02  5.48612E+03  7.85889E+02  5.59179E+03  3.29241E+03  5.36673E+03  7.33732E+03
 -1.59698E+03  8.73784E+03 -8.21988E+03  6.54100E+03 -1.04460E+04  1.33003E+03 -8.05197E+03 -2.71656E+03
 -4.33323E+03 -6.56890E+03 -3.34500E+02 -5.35601E+03  2.25758E+03 -2.29469E+03  1.75323E+03 -2.26387E+03
  1.26024E+03 -1.42702E+03  2.26100E+03 -2.23908E+03  3.85831E+03 -1.58584E+03  3.66308E+03  4.71870E+02
  4.59519E+03  1.33453E+03  1.30315E+03  3.53715E+03 -1.52871E+03  3.05278E+03 -4.17955E+03  2.58709E+03
 -5.19614E+03 -1.01460E+03 -1.80595E+03 -3.65858E+03  1.11131E+02 -5.12077E+03  3.37916E+03 -5.52925E+03
  5.63012E+03 -3.20365E+03  6.95911E+03 -4.97615E+01  5.33092E+03  4.36770E+03  1.13651E+03  6.29918E+03
 -2.24738E+03  6.05153E+03 -3.44184E+03  1.75927E+03 -1.97600E+03 -1.12445E+03 -6.01945E+02 -7.28839E+02
 -6.42753E+02  3.24332E+02 -9.15453E+02  1.68989E+03 -2.47933E+03  1.22461E+03 -4.19187E+03 -4.23707E+02
 -1.96867E+03 -4.20312E+03  7.18563E+02 -4.91931E+03  2.92185E+03 -4.60338E+03  3.64999E+03 -1.00832E+03
  4.29262E+03  2.81738E+03  1.70937E+03  3.35607E+03 -9.71539E+02  4.81092E+03 -2.60605E+03  2.95824E+03
 -4.09785E+03  4.50038E+02 -3.50644E+03 -2.80337E+03 -3.56642E+02 -3.41885E+03  1.48166E+03 -2.51696E+03
  3.00400E+03 -1.39598E+03  1.99102E+03  6.29069E+02  5.53440E+02  1.74737E+03  7.16160E+02  3.17843E+02
  1.61801E+03  5.26158E+02  1.23171E+03  8.03994E+02  1.22591E+03  2.02160E+03  1.50559E+03  1.99020E+03
 -1.24634E+03  3.08431E+03 -2.66841E+03  4.46542E+03 -3.43992E+03  1.26767E+03 -4.46990E+03 -6.95196E+02
 -1.77873E+03 -4.18278E+03  8.59356E+02 -5.23328E+03  2.15924E+03 -2.55789E+03  3.20812E+03 -1.02059E+03
  2.70843E+03  1.73160E+03  6.04042E+02  2.07783E+03 -6.79513E+02  1.37696E+03 -1.01683E+03  2.29114E+01
 -6.72614E+02 -1.73844E+03  1.16532E+03 -1.54057E+03  1.29275E+03 -1.18568E+03  1.46734E+03  3.05726E+02
  1.04216E+03  3.00603E+02  9.93748E+02 -4.99817E+01 -2.29681E+02  9.55955E+02  1.51240E+03 -2.29773E+02
  1.82763E+02 -2.76058E+02  1.91114E+03  6.64622E+02  3.64454E+02  2.38450E+03 -2.22702E+02  2.94782E+03
 -1.87283E+03  1.22684E+03 -2.07872E+03  3.67213E+02 -2.30907E+03 -9.12362E+02 -2.46296E+02 -1.21645E+03
  3.36269E+02 -1.50740E+03  7.87464E+02 -1.02030E+03  6.67080E+02  1.23175E+03 -8.07116E+02  1.21405E+03
 -1.57216E+03  5.27473E+02 -1.38825E+03 -1.44438E+03 -8.38038E+02 -2.26071E+03  3.46364E+02 -1.67253E+03
  4.75378E+02 -3.24306E+02  7.74872E+02  2.58139E+02  1.33246E+03 -1.06374E+02  3.40395E+02  1.50659E+03
 -3.87214E+02  3.92085E+02 -8.46676E+02 -6.58200E+01  7.84721E+02 -1.11695E+03  1.86304E+03 -1.00076E+03
  1.27529E+03  2.07790E+02  3.00204E+03  7.84401E+02  1.15270E+03  1.76531E+03 -2.61642E+02  2.13428E+03
 -1.63218E+03  3.74659E+02 -1.60411E+03 -1.54118E+02 -9.46814E+02 -1.53812E+03  2.03231E+02 -7.52179E+02
  1.52564E+03 -6.18009E+02  1.02638E+03  4.31702E+02 -1.05106E+02  1.53877E+03 -2.63115E+01  1.17647E+03
 -2.80423E+02  1.08051E+03 -4.08463E+02  6.07801E+02 -9.99850E+01  4.63668E+02 -7.97287E+02  8.12663E+02
 -6.82522E+02  9.29889E+02 -1.83280E+03  5.46700E+02 -1.86775E+03  3.37942E+02 -2.56713E+03 -1.27852E+03
 -1.14357E+03 -2.51229E+03  6.40085E+02 -3.04411E+03  1.17540E+03 -2.62810E+03  3.09945E+03 -1.09156E+03
  2.89671E+03 -1.67731E+01  1.11040E+03  1.49758E+03 -5.03966E+02  1.46431E+03 -8.99413E+02  1.36991E+03
 -1.16361E+03  7.70630E+02 -3.33842E+02  2.65236E+02 -2.99995E+02  1.22207E+02 -7.35556E+02  1.21131E+02
 -1.12046E+03  1.64004E+02 -8.74151E+02 -3.59206E+01  2.69523E+02 -6.63370E+02 -5.40326E+02 -8.42221E+02
  1.39798E+03 -6.01557E+02  8.20593E+02 -4.59200E+01  1.20182E+03  1.14999E+03 -3.95982E+02  1.56180E+03
 -1.00294E+03  2.36331E+03 -1.84647E+03  1.25197E+03 -2.07542E+03 -1.85302E+02 -1.30483E+03 -1.50437E+03
 -1.03978E+03 -1.58547E+03  1.96930E+02 -1.58238E+03  6.83887E+02 -7.98882E+02  9.30130E+02  1.54957E+02
  6.07886E+02  5.68040E+02  1.25571E+02  5.49428E+02 -1.64362E+02 -1.43409E+02  1.13454E+02  1.93920E+02
  6.48443E+02  9.86401E+01  3.25583E+02  5.01857E+02 -6.68077E+01  5.71372E+02  2.21490E+02  3.93343E+02
 -8.38215E+02  7.92960E+02 -5.92379E+02  2.31948E+02 -9.53018E+02 -4.00839E+02  2.43739E+02 -1.29495E+03
  7.41037E+02 -5.53386E+02  7.64526E+02 -7.71835E+01  1.16837E+03 -5.57808E+02  5.85295E+02  7.18435E+02
  4.07793E+02  4.06536E+02 -2.41160E+02  6.84723E+02 -6.23492E+02  6.15492E+02 -7.45309E+02 -9.48604E+01
 -1.84734E+02 -2.31747E+02 -6.21325E+02  1.90418E+02 -3.94699E+02  6.90136E+00 -8.80187E+02 -1.46223E+02
 -8.51998E+02  1.27791E+02 -2.07992E+02 -9.21979E+02  1.02627E+03 -1.36706E+03  6.09911E+02 -2.30624E+02
  7.57190E+02 -6.06703E+01  5.23559E+01  3.97711E+02 -2.62288E+02  9.14698E+02 -6.32500E+02  9.60343E+02
