 $NMID ID='MM_0lb_SNR800_13hz_g40_73.RAW', FMTDAT='(8E13.5)'
 TRAMP=1., VOLUME=1. $END
  3.09681E+05  1.44068E+02  3.37546E+05  2.50543E+05  8.48986E+04  3.37917E+05 -1.32838E+05  2.50624E+05
 -1.90503E+05  8.32274E+04 -1.12061E+05 -3.26758E+04  1.22275E+03 -5.06575E+04  5.40359E+04 -3.33910E+02
  3.54577E+04  5.28757E+04 -1.67700E+04  7.51593E+04 -6.04552E+04  6.37073E+04 -8.38161E+04  3.19846E+04
 -8.08461E+04 -1.14907E+04 -5.72232E+04 -5.13026E+04 -1.49134E+04 -6.94926E+04  2.74441E+04 -4.58146E+04
  4.01670E+04  3.83159E+03  1.62137E+04  4.79789E+04 -3.44893E+04  4.73207E+04 -6.68281E+04  4.29805E+01
 -5.33014E+04 -5.67557E+04 -6.61856E+03 -7.66598E+04  3.35165E+04 -5.47209E+04  4.77696E+04 -1.73751E+04
  4.35008E+04  1.12018E+04  3.19686E+04  2.55340E+04  1.59011E+04  2.94318E+04 -5.04128E+03  2.73965E+04
 -2.20723E+04  1.23070E+04 -1.85341E+04 -4.99842E+03  5.77200E+03 -7.63557E+03  2.21521E+04  1.22505E+04
  7.33153E+03  3.49588E+04 -3.20378E+04  3.55222E+04 -6.30843E+04  2.13230E+03 -5.69289E+04 -4.27522E+04
 -1.25183E+04 -6.29726E+04  3.96618E+04 -4.54435E+04  5.80422E+04 -2.24237E+03  3.39353E+04  3.21916E+04
 -5.84815E+03  3.58912E+04 -3.01899E+04  1.59927E+04 -3.01960E+04 -4.43730E+03 -1.67627E+04 -1.09453E+04
 -8.23283E+03 -1.29001E+04 -7.33841E+02 -1.83549E+04  7.28830E+03 -2.30548E+04  1.54233E+04 -1.32953E+04
  1.14534E+04  4.80980E+03 -8.34854E+03  1.29968E+04 -2.09794E+04 -4.57591E+03 -8.23301E+03 -3.32779E+04
  2.26146E+04 -4.34628E+04  4.80522E+04 -1.97986E+04  4.50026E+04  1.91243E+04  1.54062E+04  4.39633E+04
 -1.59928E+04  3.33296E+04 -2.51787E+04  1.71566E+03 -9.79786E+03 -2.78042E+04  2.07251E+04 -3.38836E+04
  4.08218E+04 -9.00744E+03  3.54752E+04  2.41287E+04  1.82604E+04  4.65152E+04 -8.27910E+03  5.02569E+04
 -3.16903E+04  3.35079E+04 -4.17984E+04  9.56764E+03 -4.22086E+04 -1.63614E+04 -2.33866E+04 -3.76894E+04
  7.31593E+03 -3.75957E+04  3.13167E+04 -1.47232E+04  2.95826E+04  1.08263E+04  3.99076E+03  1.88396E+04
 -1.33851E+04  8.47235E+03 -1.00467E+04 -7.61688E+03  5.92399E+03 -1.06432E+04  1.79183E+04  6.21604E+03
  1.36370E+04  2.21294E+04 -5.87024E+03  2.50495E+04 -2.24949E+04  1.15925E+04 -2.78723E+04 -4.85139E+03
 -2.04305E+04 -1.73446E+04 -8.15679E+03 -2.05519E+04  4.11308E+03 -1.97870E+04  1.58238E+04 -1.83903E+04
  2.61123E+04 -1.27992E+04  3.26022E+04  2.85869E+03  2.37616E+04  1.99915E+04  4.33800E+03  3.57844E+04
 -1.79865E+04  3.04195E+04 -2.81103E+04  1.06282E+04 -2.10379E+04 -1.02463E+04 -4.69554E+03 -1.36897E+04
  2.13343E+03 -2.75648E+03 -4.80676E+03  6.65964E+03 -1.63493E+04  5.39687E+03 -1.64922E+04 -6.83254E+03
 -1.03025E+04 -1.91076E+04  5.17681E+03 -2.32926E+04  1.53631E+04 -1.66036E+04  1.81318E+04 -1.59279E+03
  1.13536E+04  1.30535E+04 -1.26204E+03  1.94556E+04 -1.28739E+04  1.05877E+04 -1.92796E+04 -4.43288E+03
 -1.39781E+04 -1.71451E+04 -1.80783E+03 -2.31515E+04  1.02842E+04 -1.87640E+04  1.91970E+04 -9.27066E+03
  1.79720E+04  5.22271E+01  1.29268E+04  4.32879E+03  6.74516E+03  9.55784E+02  9.29085E+03 -1.77539E+03
  1.75565E+04  2.70023E+03  1.92102E+04  1.49603E+04  1.26732E+04  3.05598E+04 -3.16409E+03  3.44248E+04
 -1.99305E+04  2.75400E+04 -3.21503E+04  1.38482E+04 -3.34295E+04 -2.53946E+03 -2.79240E+04 -1.93700E+04
 -1.21652E+04 -2.79060E+04  9.82340E+03 -2.49272E+04  2.15572E+04 -1.26645E+04  1.95472E+04  5.88640E+03
  7.50447E+03  1.43844E+04 -9.11287E+03  1.28222E+04 -1.63619E+04  2.76642E+03 -1.22742E+04 -1.00492E+04
 -1.30807E+02 -1.54139E+04  8.08884E+03 -1.16637E+04  1.04824E+04 -1.27974E+03  2.25166E+03  6.48731E+03
 -7.35825E+03  2.32626E+03 -6.01176E+03 -5.47902E+03 -7.26382E+02 -1.34531E+04  9.63248E+03 -1.45011E+04
  1.68156E+04 -7.66477E+03  1.81514E+04  2.97005E+03  1.58414E+04  1.34429E+04  7.15739E+03  2.04403E+04
 -3.25577E+03  2.24099E+04 -1.41149E+04  1.38436E+04 -1.61559E+04  3.29883E+03 -1.18356E+04 -3.70991E+03
 -5.49407E+03 -5.07020E+03 -6.57832E+02  8.59950E+02 -2.49787E+03  2.63225E+03 -5.20955E+03  4.45664E+03
 -1.08602E+04 -1.00299E+03 -1.12228E+04 -9.16806E+03 -4.79372E+03 -1.48407E+04  4.93161E+03 -1.18039E+04
  9.43902E+03 -5.03195E+03  6.70312E+03  3.12980E+03  2.81460E+02  4.78726E+03 -5.29928E+03 -2.63157E+02
 -5.28792E+03 -7.39486E+03 -1.05012E+03 -1.08048E+04  6.02468E+03 -1.15482E+04  1.46443E+04 -5.87871E+03
  1.68735E+04  1.40451E+03  1.26127E+04  9.69409E+03  2.19093E+03  1.32629E+04 -7.00346E+03  1.18679E+04
 -9.66045E+03  3.66728E+03 -4.77150E+03 -1.58417E+03  1.72461E+03 -3.15909E+03  6.26654E+03 -8.50346E+02
  5.67300E+03  4.74750E+03  7.92970E+02  8.81528E+03 -6.38065E+03  8.91093E+03 -1.14112E+04  2.31235E+03
 -7.40853E+03 -5.81320E+03  6.81423E+02 -9.52459E+03  5.99131E+03 -5.00277E+03  6.13440E+03  1.99154E+03
  1.08875E+03  5.78250E+03 -5.73166E+03  7.30649E+03 -8.62781E+03  3.31156E+03 -8.77701E+03 -2.72161E+03
 -5.02177E+03 -9.88600E+03  2.50512E+03 -1.18196E+04  9.84125E+03 -7.15238E+03  1.05823E+04  1.86301E+03
  7.10265E+03  8.70500E+03 -3.10241E+02  1.10863E+04 -7.78659E+03  6.22917E+03 -8.20623E+03 -1.05312E+03
 -7.81498E+03 -7.20101E+03 -1.53954E+03 -7.90132E+03  4.66535E+03 -6.90747E+03  4.84170E+03 -3.46714E+03
  3.60301E+03  8.95212E+02 -4.84664E+02  1.81392E+03  1.96902E+02 -1.86500E+03  1.23797E+03 -4.30585E+03
  7.25065E+03 -2.36763E+03  9.91055E+03  1.20864E+03  9.85534E+03  6.57187E+03  7.06016E+03  1.29664E+04
 -2.61406E+03  1.48048E+04 -1.28683E+04  1.09833E+04 -1.62930E+04  2.32865E+03 -1.33724E+04 -5.21955E+03
 -6.91236E+03 -1.05892E+04 -2.23586E+02 -9.05669E+03  3.49195E+03 -4.89688E+03  3.28385E+03 -3.26001E+03
  2.59608E+03 -1.95032E+03  2.84214E+03 -2.69622E+03  4.38320E+03 -2.26479E+03  5.43268E+03 -3.42371E+02
  7.27435E+03  1.85446E+03  3.47218E+03  5.82192E+03 -1.58298E+03  6.26808E+03 -7.11705E+03  5.37122E+03
 -9.37824E+03 -8.10470E+02 -4.81439E+03 -6.11154E+03 -1.99004E+02 -9.51728E+03  5.50554E+03 -9.62291E+03
  9.54039E+03 -5.58685E+03  1.18107E+04  1.21142E+03  8.47435E+03  8.39344E+03  1.81536E+03  1.04684E+04
 -4.03155E+03  9.53645E+03 -5.67843E+03  2.86593E+03 -4.06107E+03 -1.48600E+03 -1.48654E+03 -1.18347E+03
 -1.04765E+03  5.13507E+02 -1.38557E+03  2.60039E+03 -4.06977E+03  1.58043E+03 -6.54526E+03 -9.59357E+02
 -3.72323E+03 -6.35906E+03  1.30952E+02 -8.71621E+03  5.24451E+03 -8.17973E+03  8.15908E+03 -2.31663E+03
  8.41355E+03  4.63761E+03  3.72454E+03  7.21331E+03 -1.51510E+03  8.66548E+03 -5.86684E+03  5.49327E+03
 -7.66081E+03  5.85176E+02 -6.45090E+03 -4.98579E+03 -2.66228E+02 -6.75374E+03  3.71795E+03 -5.01547E+03
  5.60211E+03 -2.15179E+03  3.54214E+03  1.19474E+03  1.21636E+03  2.70645E+03  1.12920E+03  1.18316E+03
  2.02947E+03  9.00339E+02  2.04936E+03  1.62897E+03  2.51719E+03  3.38661E+03  2.33257E+03  4.14605E+03
 -2.28754E+03  6.39953E+03 -5.53452E+03  6.77406E+03 -8.01477E+03  1.78440E+03 -8.80424E+03 -2.70540E+03
 -4.07324E+03 -8.17942E+03  1.12701E+03 -9.50735E+03  4.59920E+03 -5.61279E+03  6.70394E+03 -1.76274E+03
  5.40492E+03  3.42018E+03  1.05391E+03  4.60860E+03 -2.00924E+03  2.97883E+03 -2.78116E+03 -1.57612E+02
 -1.62148E+03 -3.31992E+03  2.25072E+03 -3.47907E+03  3.13784E+03 -1.82782E+03  3.30012E+03  8.56784E+02
  1.60405E+03  1.54028E+03  1.08084E+03  8.59429E+02 -4.58338E+02  1.69925E+03  1.74922E+03 -3.39680E+02
  1.10374E+03 -8.26967E+02  3.44591E+03  1.46177E+03  1.54752E+03  4.75196E+03 -6.76658E+02  5.86175E+03
 -3.97736E+03  3.25993E+03 -4.90428E+03  1.11679E+03 -4.72394E+03 -1.80213E+03 -1.44189E+03 -2.53827E+03
  5.11265E+02 -3.24722E+03  2.12998E+03 -1.86598E+03  1.40060E+03  1.71757E+03 -9.80933E+02  2.70796E+03
 -3.06097E+03  1.95800E+03 -3.44518E+03 -2.06000E+03 -1.76750E+03 -4.35573E+03  6.21446E+02 -4.01975E+03
  2.45064E+03 -2.04568E+03  2.69511E+03 -1.43670E+02  2.63655E+03  8.35857E+02  3.19373E+02  2.25350E+03
 -1.35897E+03  6.30014E+02 -1.94775E+03 -1.17517E+03  1.02876E+03 -2.65911E+03  4.34982E+03 -2.55217E+03
  4.64690E+03  5.60876E+02  5.09173E+03  3.12150E+03  1.75502E+03  4.73029E+03 -1.46216E+03  4.64235E+03
 -4.31282E+03  1.64425E+03 -4.32128E+03 -7.60110E+02 -2.34318E+03 -2.94245E+03  7.16600E+02 -2.57599E+03
  2.74954E+03 -1.79124E+03  2.17799E+03  1.72241E+03  5.95230E+02  2.78313E+03 -1.06983E+02  2.64842E+03
 -9.91553E+02  1.84457E+03 -1.37180E+03  7.87885E+02 -2.98207E+02  5.17292E+02 -1.07580E+03  1.19785E+03
 -1.26237E+03  2.01068E+03 -3.81940E+03  1.59366E+03 -4.57830E+03  1.47214E+01 -5.58889E+03 -3.36777E+03
 -2.78884E+03 -6.05124E+03  1.26741E+03 -7.53646E+03  4.03096E+03 -6.09407E+03  6.62147E+03 -2.54031E+03
  6.44058E+03  7.70968E+02  3.38053E+03  4.51602E+03  1.00553E+01  4.51536E+03 -2.01978E+03  3.70139E+03
 -2.65264E+03  1.31162E+03 -1.55873E+03 -4.27810E+02 -7.23156E+02 -3.31510E+02 -6.58263E+02 -9.50378E+01
 -1.25292E+03 -1.22630E+02 -1.25938E+03  4.50115E+01 -1.97142E+02 -1.29528E+03 -1.36295E+02 -1.90936E+03
  2.16863E+03 -1.48126E+03  2.42404E+03  3.21734E+02  3.33807E+03  2.67138E+03  6.49613E+02  4.57669E+03
 -2.51614E+03  5.48291E+03 -4.62373E+03  2.93966E+03 -5.52845E+03 -3.72865E+02 -3.99663E+03 -3.57289E+03
 -2.07097E+03 -4.61729E+03  1.15694E+03 -4.46789E+03  2.86611E+03 -2.08057E+03  2.77600E+03  5.39889E+01
  1.86449E+03  1.33892E+03  8.50030E+01  1.46884E+03 -1.00432E+03  1.54526E+00  2.05946E+02 -8.86368E+02
  1.60478E+03 -1.00263E+02  1.75410E+03  6.03486E+02  9.08748E+02  1.66132E+03 -2.40608E+02  1.84442E+03
 -2.16368E+03  2.03072E+03 -2.86225E+03  2.68750E+02 -2.90111E+03 -2.52301E+03 -4.61863E+02 -3.87057E+03
  1.93032E+03 -2.84159E+03  3.47144E+03 -4.34896E+02  3.46707E+03  1.60101E+02  1.80062E+03  2.85701E+03
  5.18405E+02  2.98211E+03 -8.95683E+02  2.12271E+03 -1.51222E+03  1.38061E+03 -1.35278E+03  2.62587E+02
 -8.99566E+02 -3.87014E+02 -1.02360E+03  3.63807E+02 -1.77681E+03  1.81935E+02 -2.60358E+03 -3.64071E+02
 -2.64123E+03 -1.10543E+03 -3.77299E+02 -3.12735E+03  1.66499E+03 -3.08832E+03  2.57626E+03 -1.13323E+03
  2.57480E+03  3.64063E+02  1.16592E+03  1.93359E+03 -5.12434E+02  2.66282E+03 -2.04878E+03  1.84617E+03
