 $NMID ID='MM_0lb_SNR800_19hz_g45_44.RAW', FMTDAT='(8E13.5)'
 TRAMP=1., VOLUME=1. $END
  3.09780E+05  5.16480E+01  3.37129E+05  2.50489E+05  8.42467E+04  3.37279E+05 -1.32436E+05  2.50138E+05
 -1.89509E+05  8.25069E+04 -1.10893E+05 -3.28437E+04  1.60791E+03 -5.01655E+04  5.41081E+04  4.56950E+02
  3.50676E+04  5.31222E+04 -1.70995E+04  7.47059E+04 -6.01995E+04  6.24664E+04 -8.26828E+04  3.15079E+04
 -7.96697E+04 -1.09220E+04 -5.62361E+04 -5.02480E+04 -1.52329E+04 -6.83252E+04  2.67038E+04 -4.46269E+04
  3.90788E+04  3.98871E+03  1.55587E+04  4.69252E+04 -3.38863E+04  4.62937E+04 -6.52049E+04 -4.76746E+02
 -5.16765E+04 -5.55902E+04 -6.16252E+03 -7.43474E+04  3.30767E+04 -5.28468E+04  4.57818E+04 -1.59939E+04
  4.14523E+04  1.10373E+04  3.04048E+04  2.42126E+04  1.57520E+04  2.80272E+04 -4.43479E+03  2.67907E+04
 -2.15915E+04  1.31546E+04 -1.88595E+04 -4.25432E+03  4.11649E+03 -7.98565E+03  2.10545E+04  1.07849E+04
  7.38686E+03  3.26135E+04 -3.00434E+04  3.35971E+04 -6.06697E+04  2.27349E+03 -5.51066E+04 -4.09708E+04
 -1.23167E+04 -6.04327E+04  3.78505E+04 -4.29524E+04  5.48903E+04 -2.02801E+03  3.14414E+04  3.02246E+04
 -6.39131E+03  3.26983E+04 -2.83614E+04  1.29852E+04 -2.72291E+04 -5.64013E+03 -1.42223E+04 -9.93801E+03
 -7.06734E+03 -1.09974E+04 -1.01344E+03 -1.65195E+04  6.53643E+03 -2.26875E+04  1.48134E+04 -1.43411E+04
  1.24353E+04  4.25942E+03 -6.03599E+03  1.27992E+04 -1.93971E+04 -2.32193E+03 -7.91394E+03 -2.99737E+04
  2.02064E+04 -4.00276E+04  4.40019E+04 -1.84769E+04  4.14714E+04  1.80432E+04  1.41741E+04  4.13443E+04
 -1.53288E+04  3.09791E+04 -2.31980E+04  9.68077E+02 -7.96396E+03 -2.61735E+04  2.04211E+04 -3.07256E+04
  3.76882E+04 -7.16848E+03  3.07548E+04  2.25678E+04  1.52204E+04  4.18674E+04 -7.64659E+03  4.44203E+04
 -2.78927E+04  2.92213E+04 -3.65816E+04  7.77474E+03 -3.76098E+04 -1.51950E+04 -2.07180E+04 -3.39843E+04
  6.79926E+03 -3.38756E+04  2.88735E+04 -1.24669E+04  2.66746E+04  1.08003E+04  3.15864E+03  1.74285E+04
 -1.30605E+04  6.99147E+03 -9.65152E+03 -7.73284E+03  6.03651E+03 -9.87526E+03  1.72171E+04  6.48401E+03
  1.22190E+04  2.15522E+04 -6.85078E+03  2.33205E+04 -2.12726E+04  8.74378E+03 -2.45790E+04 -6.54634E+03
 -1.61137E+04 -1.61295E+04 -5.30216E+03 -1.61887E+04  4.04833E+03 -1.39273E+04  1.20778E+04 -1.38351E+04
  2.05764E+04 -1.13642E+04  2.74418E+04  1.09775E+03  2.12277E+04  1.59157E+04  3.91698E+03  3.21764E+04
 -1.57043E+04  2.71181E+04 -2.56959E+04  8.97416E+03 -1.95728E+04 -1.06591E+04 -3.96556E+03 -1.37987E+04
  2.67027E+03 -4.18382E+03 -2.16425E+03  5.03676E+03 -1.24420E+04  5.55408E+03 -1.31621E+04 -4.53428E+03
 -8.39813E+03 -1.48770E+04  4.55603E+03 -1.85904E+04  1.19726E+04 -1.37277E+04  1.42809E+04 -1.57615E+03
  8.59118E+03  1.04386E+04 -6.16373E+02  1.54182E+04 -9.91952E+03  8.43743E+03 -1.50347E+04 -3.54972E+03
 -1.12109E+04 -1.39371E+04 -1.50573E+03 -1.86796E+04  8.61180E+03 -1.48813E+04  1.58496E+04 -7.07610E+03
  1.39554E+04  7.02607E+02  9.97010E+03  3.87469E+03  5.08685E+03  4.20917E+02  7.27691E+03 -1.51528E+03
  1.33041E+04  2.47374E+03  1.40031E+04  1.24955E+04  8.70928E+03  2.40140E+04 -3.10775E+03  2.54928E+04
 -1.52326E+04  1.94840E+04 -2.33018E+04  9.00855E+03 -2.38277E+04 -1.82901E+03 -2.05981E+04 -1.32257E+04
 -9.52938E+03 -1.93297E+04  6.49108E+03 -1.83722E+04  1.57896E+04 -1.04448E+04  1.50600E+04  3.57658E+03
  6.68377E+03  1.09488E+04 -6.67998E+03  1.02465E+04 -1.28651E+04  2.48852E+03 -1.00890E+04 -7.78855E+03
 -1.24752E+02 -1.19863E+04  5.88656E+03 -9.19029E+03  7.39583E+03 -1.40682E+03  1.10230E+03  4.61760E+03
 -5.20114E+03  8.36726E+02 -3.26504E+03 -4.49233E+03  9.87240E+02 -9.73947E+03  7.39022E+03 -9.52559E+03
  1.16948E+04 -4.38902E+03  1.11512E+04  3.02562E+03  9.55467E+03  9.14619E+03  4.60280E+03  1.30930E+04
 -1.47709E+03  1.49135E+04 -9.24757E+03  9.77731E+03 -1.05995E+04  2.85830E+03 -8.26927E+03 -1.79259E+03
 -4.43313E+03 -3.25904E+03 -6.79422E+02  1.46668E+03 -1.99799E+03  2.05431E+03 -3.56548E+03  3.35041E+03
 -7.88424E+03 -3.29665E+02 -8.32978E+03 -6.79233E+03 -3.32895E+03 -1.11028E+04  3.37339E+03 -8.16162E+03
  6.90861E+03 -3.38302E+03  5.11596E+03  1.96625E+03  8.36558E+02  2.74535E+03 -3.21289E+03 -8.15943E+01
 -3.23595E+03 -4.93103E+03 -6.97144E+02 -6.52646E+03  3.60512E+03 -7.39838E+03  9.74173E+03 -3.53448E+03
  1.09426E+04  6.99792E+02  8.50522E+03  5.80389E+03  1.56378E+03  8.15529E+03 -5.06779E+03  8.07802E+03
 -6.73665E+03  2.88989E+03 -3.43906E+03 -9.88095E+02  1.33063E+03 -1.92359E+03  4.86200E+03 -1.04708E+03
  3.98235E+03  3.02968E+03  1.09333E+03  6.11615E+03 -4.16377E+03  5.87720E+03 -7.64085E+03  1.60929E+03
 -4.77858E+03 -3.36914E+03  2.50953E+02 -6.54961E+03  3.51925E+03 -2.89050E+03  3.14283E+03  8.38471E+02
  2.72471E+02  3.01283E+03 -3.82561E+03  4.55289E+03 -4.40286E+03  2.23459E+03 -3.96683E+03 -7.61047E+02
 -2.52945E+03 -5.52566E+03  1.05605E+03 -6.72848E+03  5.76975E+03 -4.42079E+03  5.84812E+03  8.82485E+02
  4.20556E+03  4.75822E+03  3.86266E+02  7.12449E+03 -4.85339E+03  4.20106E+03 -4.95485E+03 -3.26073E+02
 -5.31350E+03 -4.97075E+03 -1.13611E+03 -4.81969E+03  2.32939E+03 -4.56067E+03  2.61736E+03 -2.78730E+03
  2.99861E+03 -2.13150E+02  1.52403E+02  1.22902E+03  6.44871E+02 -6.12862E+01  6.14926E+01 -1.61450E+03
  3.42605E+03 -6.94655E+02  4.57187E+03  5.91286E+02  5.31219E+03  2.65811E+03  5.37439E+03  6.48593E+03
 -9.39013E+02  7.91817E+03 -7.06585E+03  6.23004E+03 -9.02325E+03  9.43344E+02 -7.12918E+03 -2.31718E+03
 -4.12417E+03 -6.28982E+03 -3.71418E+02 -4.62735E+03  1.82385E+03 -1.80800E+03  1.59621E+03 -2.14468E+03
  1.32508E+03 -1.50113E+03  1.99543E+03 -2.20541E+03  3.31010E+03 -1.20224E+03  3.66978E+03  5.10847E+02
  4.10679E+03  1.18313E+03  7.55173E+02  2.90061E+03 -1.65383E+03  2.66318E+03 -4.18955E+03  2.43058E+03
 -4.31205E+03 -1.12847E+03 -1.55429E+03 -3.10374E+03  5.87642E+02 -4.59571E+03  3.08356E+03 -4.87518E+03
  4.80809E+03 -3.06861E+03  6.28990E+03 -3.61537E+01  4.80237E+03  3.87580E+03  1.06675E+03  5.55047E+03
 -1.81890E+03  5.33983E+03 -2.85948E+03  1.71109E+03 -1.61208E+03 -1.08574E+03 -1.76134E+02 -6.90652E+02
 -1.39429E+02  6.18926E+02 -1.06997E+03  1.91103E+03 -2.05783E+03  1.26245E+03 -3.77552E+03 -5.51859E+02
 -1.31044E+03 -3.99110E+03  8.60748E+02 -4.41161E+03  2.63566E+03 -3.84205E+03  3.26686E+03 -1.18043E+03
  3.70301E+03  2.50244E+03  1.47194E+03  2.85136E+03 -6.64570E+02  4.09812E+03 -2.32213E+03  2.46106E+03
 -3.15180E+03  4.78102E+02 -3.27290E+03 -2.21120E+03 -1.03692E+02 -2.99994E+03  1.32608E+03 -2.26161E+03
  2.26151E+03 -1.27817E+03  1.55218E+03  4.85397E+02  3.06211E+02  1.33155E+03  8.07783E+02  5.93149E+02
  1.77085E+03  3.13086E+02  1.10395E+03  8.33594E+02  1.02864E+03  2.11076E+03  1.27124E+03  1.67874E+03
 -1.34967E+03  2.52837E+03 -2.38047E+03  3.31011E+03 -2.99833E+03  9.90275E+02 -3.67930E+03 -7.05368E+02
 -1.68605E+03 -3.17831E+03  6.69635E+02 -4.27679E+03  1.81426E+03 -2.35615E+03  2.78212E+03 -7.25415E+02
  2.28104E+03  1.55764E+03  5.44057E+02  2.13541E+03 -7.85030E+02  1.13257E+03 -8.61703E+02 -1.16409E+02
 -5.73811E+02 -1.44861E+03  1.40667E+03 -1.35435E+03  1.23277E+03 -1.03348E+03  1.14317E+03  3.38832E+02
  6.92060E+02  2.05237E+02  9.79706E+02 -3.69285E+02 -4.49108E+02  7.21615E+02  1.60150E+03 -3.17663E+02
 -9.69832E+01  4.75657E+01  1.52142E+03  4.57822E+02  6.08721E+01  2.26337E+03 -4.32615E+02  2.57549E+03
 -1.41044E+03  1.04215E+03 -1.84066E+03  4.32338E+02 -2.10242E+03 -9.56519E+02 -6.88760E+01 -8.85111E+02
  5.65597E+02 -1.19348E+03  9.64344E+02 -1.00758E+03  4.79340E+02  1.26762E+03 -7.05388E+02  9.54759E+02
 -1.28972E+03  7.86200E+02 -1.25488E+03 -1.08808E+03 -4.69613E+02 -2.00588E+03  1.35139E+02 -1.14521E+03
  2.98791E+02 -5.91216E+02  6.14263E+02  4.09357E+01  1.47390E+03 -8.08486E+01  4.01363E+02  1.11489E+03
 -2.15216E+02  8.99432E+01 -8.17185E+02 -7.71965E+01  4.53757E+02 -7.43037E+02  1.42565E+03 -6.96653E+02
  9.21923E+02  1.19741E+02  2.69558E+03  4.90746E+02  1.15984E+03  1.39920E+03 -1.89344E+02  1.38910E+03
 -1.21918E+03 -2.22588E+01 -1.23366E+03  3.56065E+01 -7.24439E+02 -1.44532E+03  2.45486E+02 -9.33336E+01
  1.13796E+03 -6.39626E+02  7.74782E+02  7.95524E+02  6.34990E+01  9.35873E+02  4.27860E+02  1.19071E+03
 -1.63492E+02  1.01029E+03 -3.95566E+02  5.83116E+02  5.67195E+01  3.72516E+02 -9.02452E+02  8.95975E+02
 -5.35764E+02  7.02576E+02 -1.62414E+03  6.80551E+02 -1.77264E+03  2.50216E+01 -2.29083E+03 -9.71718E+02
 -1.14710E+03 -1.89451E+03  3.92861E+02 -2.48143E+03  9.80586E+02 -2.31981E+03  2.31377E+03 -1.26431E+03
  2.23009E+03 -4.84912E+00  1.16766E+03  1.51526E+03 -5.66085E+02  1.18885E+03 -4.53235E+02  1.33909E+03
 -9.30487E+02  6.85223E+02 -1.31553E+02 -1.58964E+02 -4.89731E+02  1.17104E+02 -6.28316E+02  1.79854E+02
 -1.24837E+03 -2.40318E+02 -7.64874E+02  4.63881E+01  3.57832E+02 -5.17414E+02 -2.31684E+02 -7.99854E+02
  1.12903E+03 -5.46683E+02  1.49870E+02 -8.09864E+01  9.42125E+02  9.93166E+02 -1.55854E+02  1.04751E+03
 -9.04397E+02  1.85709E+03 -1.43186E+03  1.40053E+03 -1.68927E+03 -2.41340E+02 -9.38398E+02 -1.04307E+03
 -9.26556E+02 -1.02727E+03  2.45893E+02 -8.79038E+02  8.13412E+02 -6.21186E+02  5.37685E+02  1.24728E+02
  4.56593E+02  4.64224E+02  2.11884E+02  2.78482E+02 -8.93760E+01 -3.63675E+01 -8.90930E+01 -3.44130E+02
  2.41533E+02 -9.42878E+00  3.80720E+02  1.45355E+02  1.55911E+02  2.50258E+02  3.41680E+02  1.97184E+02
 -7.11381E+02  4.68855E+02 -4.84246E+02  1.75080E+01 -7.82125E+02 -5.19074E+02  2.49354E+01 -9.83264E+02
  3.73847E+02 -3.69277E+02  3.05361E+02 -2.29265E+02  1.03574E+03 -4.22519E+02  3.75523E+02  9.22596E+02
  3.86979E+02  5.01915E+02 -2.12585E+02  4.17419E+02 -5.32867E+02  4.74943E+02 -2.62293E+02  1.16875E+02
 -2.53179E+02 -7.11900E+01 -5.88740E+02  1.73787E+02 -6.79394E+02 -3.84021E+01 -6.47786E+02 -2.66996E+02
 -8.69039E+02  2.38337E+02 -3.70595E+02 -8.87717E+02  5.76749E+02 -1.53898E+03  7.40000E+02 -2.20276E+02
  6.38166E+02  8.40196E+01 -2.65460E+02  3.20030E+02 -1.91626E+02  8.12280E+02 -3.36892E+02  8.75086E+02
