 $NMID ID='MM_0lb_SNR800_10hz_g55_28.RAW', FMTDAT='(8E13.5)'
 TRAMP=1., VOLUME=1. $END
  3.09708E+05  5.59131E+02  3.38048E+05  2.50482E+05  8.48467E+04  3.38490E+05 -1.32792E+05  2.52192E+05
 -1.90427E+05  8.37210E+04 -1.12567E+05 -3.25411E+04  4.57644E+02 -5.05101E+04  5.36269E+04 -3.70630E+02
  3.55867E+04  5.26256E+04 -1.64622E+04  7.65037E+04 -6.14239E+04  6.45632E+04 -8.53844E+04  3.28424E+04
 -8.26401E+04 -1.16557E+04 -5.82562E+04 -5.24719E+04 -1.47037E+04 -7.11030E+04  2.85298E+04 -4.64498E+04
  4.09074E+04  3.87408E+03  1.70450E+04  4.91002E+04 -3.45946E+04  4.82681E+04 -6.78891E+04  1.04133E+02
 -5.52679E+04 -5.75160E+04 -7.04420E+03 -7.89944E+04  3.46591E+04 -5.70803E+04  4.93812E+04 -1.81447E+04
  4.50746E+04  1.16990E+04  3.26431E+04  2.64395E+04  1.59909E+04  3.07947E+04 -5.68539E+03  2.75300E+04
 -2.21781E+04  1.22368E+04 -1.83037E+04 -5.52923E+03  7.04012E+03 -7.57498E+03  2.35056E+04  1.37010E+04
  7.17653E+03  3.73567E+04 -3.36911E+04  3.65255E+04 -6.58766E+04  2.22770E+03 -5.88464E+04 -4.45610E+04
 -1.26995E+04 -6.57198E+04  4.17999E+04 -4.67916E+04  6.10874E+04 -2.57940E+03  3.68623E+04  3.46136E+04
 -5.31997E+03  3.93653E+04 -3.15457E+04  1.87311E+04 -3.33978E+04 -3.84544E+03 -1.91419E+04 -1.18348E+04
 -9.41518E+03 -1.47854E+04 -7.19378E+02 -1.93831E+04  8.50449E+03 -2.34243E+04  1.59867E+04 -1.30129E+04
  1.00909E+04  6.16070E+03 -1.02970E+04  1.30157E+04 -2.35988E+04 -6.59827E+03 -8.96327E+03 -3.67804E+04
  2.53012E+04 -4.63541E+04  5.17558E+04 -2.09615E+04  4.86279E+04  2.06981E+04  1.69530E+04  4.70164E+04
 -1.62799E+04  3.59956E+04 -2.77125E+04  2.70267E+03 -1.16270E+04 -2.91026E+04  2.13742E+04 -3.66552E+04
  4.44059E+04 -1.08735E+04  4.01741E+04  2.53374E+04  2.09855E+04  5.03714E+04 -8.42599E+03  5.59193E+04
 -3.50647E+04  3.80374E+04 -4.70897E+04  1.07861E+04 -4.71837E+04 -1.83046E+04 -2.60204E+04 -4.18535E+04
  7.98771E+03 -4.15493E+04  3.38156E+04 -1.68341E+04  3.19892E+04  1.09695E+04  5.27644E+03  2.03031E+04
 -1.38900E+04  9.71912E+03 -1.14467E+04 -7.29075E+03  6.05075E+03 -1.15329E+04  1.83966E+04  5.11818E+03
  1.43383E+04  2.26651E+04 -5.41267E+03  2.66930E+04 -2.32387E+04  1.41066E+04 -3.15018E+04 -3.00506E+03
 -2.46094E+04 -1.87978E+04 -1.13001E+04 -2.45072E+04  4.26601E+03 -2.51767E+04  1.94002E+04 -2.26135E+04
  3.15435E+04 -1.36532E+04  3.73979E+04  4.45363E+03  2.65361E+04  2.42352E+04  4.50773E+03  4.09946E+04
 -1.94106E+04  3.36393E+04 -3.01290E+04  1.14329E+04 -2.23069E+04 -1.02666E+04 -4.88038E+03 -1.30643E+04
  8.19932E+02 -1.29880E+03 -7.32236E+03  8.15778E+03 -1.99345E+04  4.93152E+03 -1.98254E+04 -9.18108E+03
 -1.16556E+04 -2.27194E+04  6.46287E+03 -2.72581E+04  1.79730E+04 -1.97890E+04  2.24203E+04 -1.76525E+03
  1.39962E+04  1.59259E+04 -1.17301E+03  2.30665E+04 -1.62924E+04  1.33065E+04 -2.35647E+04 -4.92083E+03
 -1.68741E+04 -2.05252E+04 -2.17794E+03 -2.72955E+04  1.24797E+04 -2.26500E+04  2.27013E+04 -1.17530E+04
  2.18513E+04 -6.74409E+02  1.55285E+04  5.07373E+03  8.91757E+03  1.43781E+03  1.21821E+04 -2.03517E+03
  2.17394E+04  2.68396E+03  2.49926E+04  1.82578E+04  1.68408E+04  3.67444E+04 -2.60237E+03  4.32643E+04
 -2.47523E+04  3.58515E+04 -4.07247E+04  1.85127E+04 -4.34139E+04 -3.05479E+03 -3.52277E+04 -2.54569E+04
 -1.40529E+04 -3.60869E+04  1.24764E+04 -3.18454E+04  2.73372E+04 -1.46572E+04  2.34193E+04  7.70009E+03
  7.92737E+03  1.79565E+04 -1.15029E+04  1.51581E+04 -1.96999E+04  2.55428E+03 -1.51094E+04 -1.30381E+04
 -3.45472E+02 -1.89621E+04  1.04723E+04 -1.38037E+04  1.33720E+04 -1.33274E+03  3.62169E+03  8.66833E+03
 -8.31658E+03  4.04298E+03 -8.73466E+03 -6.95654E+03 -1.98900E+03 -1.76100E+04  1.18261E+04 -1.91897E+04
  2.20885E+04 -1.12428E+04  2.49625E+04  2.93414E+03  2.20752E+04  1.79845E+04  1.05765E+04  2.80432E+04
 -5.35519E+03  3.02335E+04 -1.95562E+04  1.83733E+04 -2.20825E+04  3.31771E+03 -1.49029E+04 -5.31433E+03
 -6.27007E+03 -6.84314E+03 -6.24356E+02  1.38059E+02 -2.54218E+03  3.51839E+03 -7.02801E+03  5.27193E+03
 -1.41773E+04 -8.96145E+02 -1.43068E+04 -1.14550E+04 -5.89420E+03 -1.91029E+04  5.75797E+03 -1.53314E+04
  1.27366E+04 -6.13688E+03  9.11134E+03  4.33835E+03 -2.29989E+02  6.05527E+03 -7.73348E+03  1.06190E+02
 -7.14217E+03 -9.26110E+03 -8.95879E+02 -1.51494E+04  8.49080E+03 -1.57516E+04  1.97081E+04 -8.54217E+03
  2.29383E+04  2.24591E+03  1.66335E+04  1.37441E+04  3.08002E+03  1.80159E+04 -9.18092E+03  1.46474E+04
 -1.21238E+04  4.50302E+03 -6.17945E+03 -2.80481E+03  2.07993E+03 -4.14086E+03  8.24937E+03 -9.00584E+02
  7.15319E+03  6.35195E+03  1.41470E+03  1.22761E+04 -9.02365E+03  1.14429E+04 -1.51610E+04  2.44490E+03
 -1.01330E+04 -8.16845E+03  3.09400E-01 -1.26643E+04  8.27962E+03 -7.13924E+03  9.06463E+03  3.13115E+03
  2.07111E+03  9.51361E+03 -7.70815E+03  1.11357E+04 -1.29863E+04  4.91585E+03 -1.36096E+04 -4.46020E+03
 -7.80201E+03 -1.49508E+04  4.17352E+03 -1.72977E+04  1.47960E+04 -9.75353E+03  1.60805E+04  2.45656E+03
  9.85875E+03  1.28166E+04 -1.18651E+03  1.51422E+04 -1.13376E+04  8.50181E+03 -1.21095E+04 -1.12691E+03
 -1.04623E+04 -1.02583E+04 -1.79057E+03 -1.11981E+04  6.06887E+03 -9.39389E+03  6.97807E+03 -3.62738E+03
  4.88496E+03  2.19721E+03 -7.99589E+02  2.44613E+03 -5.83159E+02 -3.59877E+03  2.58812E+03 -7.52350E+03
  1.05400E+04 -4.59714E+03  1.48911E+04  1.73986E+03  1.47427E+04  1.06303E+04  9.52217E+03  2.00676E+04
 -4.75667E+03  2.26700E+04 -1.88968E+04  1.65508E+04 -2.44664E+04  2.95668E+03 -1.95123E+04 -8.46488E+03
 -9.79382E+03 -1.60176E+04 -5.76089E+02 -1.35101E+04  4.85579E+03 -7.73967E+03  4.80414E+03 -5.07968E+03
  3.60434E+03 -3.08329E+03  4.20510E+03 -3.77786E+03  5.68024E+03 -3.05518E+03  7.47034E+03 -1.14280E+03
  9.90720E+03  2.20818E+03  5.26978E+03  8.93007E+03 -1.95236E+03  1.07044E+04 -1.08282E+04  7.99180E+03
 -1.39843E+04 -1.38081E+03 -8.89121E+03 -9.62075E+03 -1.20858E+03 -1.44367E+04  8.30231E+03 -1.48431E+04
  1.54619E+04 -8.26522E+03  1.81877E+04  2.62010E+03  1.23348E+04  1.29430E+04  1.85002E+03  1.66737E+04
 -6.79422E+03  1.32898E+04 -9.67998E+03  4.61418E+03 -6.59932E+03 -1.71846E+03 -2.86121E+03 -1.83340E+03
 -1.20047E+03  1.80856E+02 -2.35982E+03  2.94093E+03 -6.03621E+03  1.83635E+03 -9.32764E+03 -1.22848E+03
 -6.85278E+03 -9.57219E+03  5.16781E+01 -1.39593E+04  8.18234E+03 -1.24902E+04  1.34701E+04 -3.94160E+03
  1.35979E+04  6.32204E+03  6.57797E+03  1.24390E+04 -2.90655E+03  1.37890E+04 -9.88935E+03  8.22776E+03
 -1.26252E+04  5.11891E+02 -9.85238E+03 -8.35162E+03 -1.08220E+03 -1.14920E+04  6.06153E+03 -8.40801E+03
  8.88599E+03 -3.12172E+03  6.05454E+03  2.40534E+03  2.21543E+03  4.22526E+03  1.48285E+03  1.95684E+03
  2.44956E+03  8.35782E+02  3.54259E+03  2.18135E+03  4.12913E+03  4.66737E+03  4.14323E+03  7.44959E+03
 -2.59261E+03  1.07315E+04 -9.52764E+03  1.09635E+04 -1.38330E+04  3.16648E+03 -1.45244E+04 -5.79451E+03
 -6.99927E+03 -1.40961E+04  2.46179E+03 -1.49964E+04  8.62886E+03 -9.79045E+03  1.14964E+04 -2.57997E+03
  8.47413E+03  5.03375E+03  1.99003E+03  7.90019E+03 -4.08421E+03  5.16163E+03 -5.49040E+03 -8.28257E+02
 -2.80884E+03 -6.05893E+03  3.27018E+03 -5.97735E+03  5.75295E+03 -2.68007E+03  5.65900E+03  9.12450E+02
  2.82517E+03  2.80445E+03  1.67773E+03  2.11480E+03 -1.11972E+03  1.97580E+03  1.72079E+03 -5.24035E+02
  2.03855E+03 -3.69887E+02  5.42206E+03  2.56639E+03  3.53240E+03  7.37388E+03 -7.78229E+02  9.52138E+03
 -7.07613E+03  6.09867E+03 -8.97996E+03  1.61180E+03 -7.81630E+03 -3.10283E+03 -3.07110E+03 -5.49620E+03
  2.77481E+02 -5.57472E+03  3.26879E+03 -2.51587E+03  3.31248E+03  2.82191E+03 -1.39664E+03  4.28650E+03
 -5.74843E+03  2.59623E+03 -6.06035E+03 -3.54326E+03 -3.69736E+03 -7.71749E+03  1.18841E+03 -7.22912E+03
  4.17370E+03 -4.18553E+03  5.42511E+03 -4.53327E+02  4.29561E+03  1.57747E+03  4.97960E+02  4.38399E+03
 -2.62028E+03  1.16388E+03 -3.31408E+03 -2.51667E+03  1.33401E+03 -5.73939E+03  7.00054E+03 -4.86919E+03
  7.97967E+03  8.02594E+02  8.90754E+03  5.87635E+03  2.71068E+03  9.24310E+03 -2.99390E+03  8.39517E+03
 -7.07991E+03  3.63072E+03 -7.51029E+03 -1.53367E+03 -4.56838E+03 -6.02821E+03  1.25628E+03 -5.58225E+03
  5.31698E+03 -2.93659E+03  4.33795E+03  2.35527E+03  1.63088E+03  5.03886E+03 -8.22042E+02  4.58256E+03
 -3.02183E+03  2.58507E+03 -2.07047E+03  1.10999E+03 -9.61560E+02  8.52592E+02 -1.26662E+03  1.89153E+03
 -2.19792E+03  3.52601E+03 -6.14767E+03  2.69058E+03 -9.21048E+03  4.53794E+02 -1.00344E+04 -5.72610E+03
 -5.09934E+03 -1.16953E+04  2.25363E+03 -1.36828E+04  8.02852E+03 -1.07277E+04  1.28312E+04 -3.57423E+03
  1.20994E+04  2.62442E+03  7.21212E+03  8.11109E+03  3.20496E+02  9.46236E+03 -3.69553E+03  6.65342E+03
 -5.20681E+03  2.62309E+03 -3.39914E+03 -1.04249E+03 -1.74548E+03 -4.18448E+02 -5.16324E+02 -2.34816E+02
 -1.71643E+03  3.99051E+01 -1.94759E+03 -1.80319E+02 -3.80293E+02 -2.49239E+03  4.47169E+02 -3.37485E+03
  4.08188E+03 -2.62740E+03  5.78483E+03  1.55686E+02  6.29114E+03  5.03099E+03  1.79343E+03  8.97730E+03
 -4.52497E+03  1.07987E+04 -9.77081E+03  6.29755E+03 -1.10178E+04 -7.05868E+02 -8.29099E+03 -6.49514E+03
 -3.83106E+03 -9.54077E+03  2.04436E+03 -8.64758E+03  5.82552E+03 -4.51585E+03  5.86454E+03  8.79625E+01
  3.60199E+03  3.20601E+03  1.56299E+01  2.82854E+03 -1.65598E+03 -3.95556E+02  1.63445E+01 -2.39120E+03
  2.75513E+03 -1.29238E+03  3.59557E+03  1.32310E+03  2.32968E+03  3.10120E+03  6.99759E+01  4.78665E+03
 -4.40247E+03  4.07077E+03 -6.33122E+03  1.49875E+02 -5.16086E+03 -4.04327E+03 -8.76700E+02 -7.54900E+03
  4.24364E+03 -5.80371E+03  6.99886E+03 -1.94432E+03  7.30135E+03  1.60273E+03  3.98581E+03  5.52909E+03
  1.39565E+03  5.84728E+03 -2.39051E+03  4.93837E+03 -3.72474E+03  2.60146E+03 -2.98598E+03  3.17679E+02
 -1.61865E+03 -4.14020E+02 -1.25864E+03  6.58510E+02 -3.23698E+03  1.04336E+03 -4.61244E+03 -7.73143E+02
 -4.63952E+03 -2.89494E+03 -1.02506E+03 -5.99639E+03  3.10749E+03 -6.29095E+03  5.28027E+03 -3.32968E+03
  5.82982E+03  7.18381E+02  3.24004E+03  4.26066E+03 -3.55162E+02  5.96165E+03 -4.20820E+03  4.20361E+03
