 $NMID ID='MM_0lb_SNR800_20hz_g45_56.RAW', FMTDAT='(8E13.5)'
 TRAMP=1., VOLUME=1. $END
  3.09776E+05  4.28078E+02  3.37146E+05  2.50049E+05  8.44498E+04  3.37162E+05 -1.32454E+05  2.49721E+05
 -1.89365E+05  8.23440E+04 -1.10786E+05 -3.29852E+04  1.60962E+03 -5.00614E+04  5.39733E+04  2.42026E+02
  3.49052E+04  5.27853E+04 -1.67160E+04  7.47326E+04 -6.02044E+04  6.23231E+04 -8.27382E+04  3.13224E+04
 -7.90411E+04 -1.09478E+04 -5.58326E+04 -4.96576E+04 -1.50025E+04 -6.79250E+04  2.61529E+04 -4.45419E+04
  3.86688E+04  4.11029E+03  1.56843E+04  4.69203E+04 -3.35736E+04  4.56790E+04 -6.50106E+04 -8.24842E+02
 -5.16915E+04 -5.57206E+04 -5.99803E+03 -7.46669E+04  3.29388E+04 -5.26662E+04  4.56736E+04 -1.57653E+04
  4.10926E+04  1.08387E+04  3.01395E+04  2.40803E+04  1.57700E+04  2.78341E+04 -4.41428E+03  2.66211E+04
 -2.16195E+04  1.27906E+04 -1.93876E+04 -4.20091E+03  3.58677E+03 -7.69209E+03  2.07579E+04  1.06991E+04
  7.23449E+03  3.25811E+04 -3.00158E+04  3.35971E+04 -6.03054E+04  2.02833E+03 -5.50222E+04 -4.08505E+04
 -1.23085E+04 -5.99627E+04  3.77094E+04 -4.27096E+04  5.44991E+04 -1.75388E+03  3.10079E+04  2.99901E+04
 -6.58492E+03  3.18970E+04 -2.77391E+04  1.24719E+04 -2.65058E+04 -5.69230E+03 -1.35251E+04 -9.72886E+03
 -6.93315E+03 -1.08092E+04 -1.15934E+03 -1.61271E+04  6.29628E+03 -2.23871E+04  1.51260E+04 -1.42509E+04
  1.25016E+04  3.95995E+03 -5.45945E+03  1.30467E+04 -1.85332E+04 -1.79385E+03 -7.94639E+03 -2.92758E+04
  2.01514E+04 -3.95685E+04  4.34377E+04 -1.80727E+04  4.09322E+04  1.78061E+04  1.39441E+04  4.08365E+04
 -1.51267E+04  3.00536E+04 -2.25269E+04  6.66277E+02 -7.75577E+03 -2.59381E+04  2.02861E+04 -3.01903E+04
  3.70424E+04 -6.66687E+03  3.00715E+04  2.21502E+04  1.43946E+04  4.13289E+04 -7.56793E+03  4.33428E+04
 -2.74459E+04  2.85595E+04 -3.58491E+04  7.96950E+03 -3.68620E+04 -1.44570E+04 -2.04788E+04 -3.31786E+04
  6.84459E+03 -3.28649E+04  2.81661E+04 -1.19053E+04  2.58458E+04  1.08191E+04  2.78677E+03  1.69916E+04
 -1.30032E+04  6.91214E+03 -9.43392E+03 -7.88159E+03  6.04879E+03 -1.00454E+04  1.70508E+04  6.69318E+03
  1.18016E+04  2.12874E+04 -7.05219E+03  2.30344E+04 -2.09836E+04  8.41566E+03 -2.41248E+04 -6.78900E+03
 -1.53043E+04 -1.61634E+04 -4.83189E+03 -1.55197E+04  3.73237E+03 -1.29811E+04  1.12077E+04 -1.32364E+04
  1.96683E+04 -1.09697E+04  2.65869E+04  4.73042E+02  2.04189E+04  1.54445E+04  3.88425E+03  3.09869E+04
 -1.53118E+04  2.65882E+04 -2.49831E+04  9.43980E+03 -1.90989E+04 -1.02285E+04 -3.73045E+03 -1.40738E+04
  3.07943E+03 -4.69399E+03 -2.06840E+03  5.07348E+03 -1.19328E+04  5.16170E+03 -1.24073E+04 -4.27700E+03
 -7.94431E+03 -1.41440E+04  4.51096E+03 -1.81744E+04  1.17913E+04 -1.31058E+04  1.33683E+04 -1.60777E+03
  8.11101E+03  9.83580E+03 -8.40383E+02  1.45835E+04 -9.43625E+03  8.11796E+03 -1.42197E+04 -3.42488E+03
 -1.07870E+04 -1.30501E+04 -1.00459E+03 -1.79622E+04  8.02965E+03 -1.42118E+04  1.51645E+04 -6.53419E+03
  1.34156E+04  8.96526E+02  9.66509E+03  3.44095E+03  4.52404E+03  1.87017E+02  6.78321E+03 -1.42585E+03
  1.30113E+04  2.57185E+03  1.31547E+04  1.18961E+04  7.87555E+03  2.28925E+04 -3.21471E+03  2.41032E+04
 -1.44595E+04  1.81562E+04 -2.20326E+04  8.44593E+03 -2.23159E+04 -1.78606E+03 -1.95334E+04 -1.25164E+04
 -9.54812E+03 -1.81296E+04  5.94515E+03 -1.72382E+04  1.53356E+04 -1.02905E+04  1.46225E+04  2.88027E+03
  6.33896E+03  1.01424E+04 -6.37605E+03  9.74278E+03 -1.28609E+04  2.75224E+03 -9.58268E+03 -7.22778E+03
 -3.10086E+02 -1.16676E+04  5.56424E+03 -8.66165E+03  7.04620E+03 -1.40495E+03  1.06816E+03  4.52892E+03
 -5.26592E+03  7.84195E+02 -2.94570E+03 -4.43042E+03  9.20887E+02 -9.28701E+03  7.47906E+03 -8.76528E+03
  1.09464E+04 -3.88726E+03  1.01033E+04  2.95927E+03  8.81019E+03  8.21762E+03  4.27974E+03  1.23334E+04
 -9.78534E+02  1.41188E+04 -8.18465E+03  9.15406E+03 -9.74883E+03  2.65844E+03 -7.56630E+03 -1.50034E+03
 -4.05027E+03 -2.66674E+03 -7.38127E+02  1.71379E+03 -1.82449E+03  2.07862E+03 -3.13374E+03  3.40000E+03
 -7.38088E+03 -6.05467E+02 -7.82335E+03 -6.61674E+03 -3.39547E+03 -1.05858E+04  3.02258E+03 -7.53147E+03
  6.58503E+03 -3.28257E+03  4.69499E+03  1.79525E+03  8.29997E+02  2.81412E+03 -2.66856E+03  6.27911E+01
 -2.78732E+03 -4.61940E+03 -7.31637E+02 -6.52530E+03  3.25469E+03 -6.88314E+03  8.93421E+03 -3.48899E+03
  1.01703E+04  4.41511E+02  7.75120E+03  5.33072E+03  1.37743E+03  7.37872E+03 -4.88608E+03  7.40475E+03
 -6.66606E+03  2.60857E+03 -3.29706E+03 -9.95291E+02  1.22549E+03 -1.48895E+03  4.37265E+03 -9.61308E+02
  3.51662E+03  2.92828E+03  9.63573E+02  5.67302E+03 -4.07813E+03  5.53202E+03 -7.09708E+03  1.48605E+03
 -4.27156E+03 -3.12933E+03  2.65246E+02 -5.93323E+03  3.38119E+03 -2.86093E+03  2.89431E+03  1.05190E+03
  5.05261E+02  2.43989E+03 -3.60888E+03  4.12309E+03 -4.20353E+03  2.04020E+03 -3.51099E+03 -4.92538E+02
 -2.12060E+03 -5.08638E+03  7.35843E+02 -5.76571E+03  4.93475E+03 -4.02196E+03  5.28349E+03  8.18673E+02
  3.97036E+03  4.32175E+03  3.76039E+02  6.42847E+03 -4.24905E+03  3.56618E+03 -4.30707E+03 -5.81056E+01
 -5.27840E+03 -4.72174E+03 -1.39716E+03 -4.20629E+03  2.28372E+03 -4.19351E+03  2.54428E+03 -2.87460E+03
  2.50858E+03  5.02196E+01  2.95211E+02  1.26946E+03  6.51413E+02 -6.49809E+00 -8.31129E+01 -1.46126E+03
  3.03301E+03 -2.41423E+02  4.12733E+03  4.67677E+02  4.53018E+03  2.50393E+03  4.98236E+03  5.74470E+03
 -8.50163E+02  7.02028E+03 -6.44305E+03  5.59858E+03 -8.19205E+03  7.68569E+02 -6.64208E+03 -1.98537E+03
 -3.60362E+03 -5.52052E+03 -4.96443E+02 -4.14016E+03  1.73006E+03 -1.57475E+03  1.25634E+03 -1.69164E+03
  1.05704E+03 -1.60127E+03  2.16492E+03 -2.10766E+03  3.47929E+03 -1.19043E+03  3.18945E+03  3.61057E+02
  3.93469E+03  1.02649E+03  8.78464E+02  2.95774E+03 -1.56731E+03  2.03712E+03 -3.69592E+03  1.87775E+03
 -3.81068E+03 -8.67335E+02 -9.58014E+02 -2.94394E+03  4.00060E+02 -3.77204E+03  2.68438E+03 -4.39348E+03
  4.17640E+03 -2.87354E+03  5.45109E+03 -1.23680E+02  4.21149E+03  3.26354E+03  1.12184E+03  4.97978E+03
 -2.03260E+03  5.28441E+03 -2.57555E+03  1.90815E+03 -1.31403E+03 -1.01335E+03  8.99594E+01 -3.88566E+02
 -2.46273E+02  4.22204E+02 -9.15033E+02  1.82023E+03 -2.05164E+03  1.02489E+03 -3.45441E+03 -3.99115E+02
 -1.16169E+03 -3.52348E+03  1.06125E+03 -4.03227E+03  2.19365E+03 -3.52045E+03  2.71233E+03 -7.80845E+02
  2.86129E+03  2.14726E+03  1.50328E+03  2.50957E+03 -5.73446E+02  3.32118E+03 -2.23371E+03  2.08822E+03
 -3.00763E+03  5.03706E+02 -2.72374E+03 -1.94112E+03 -1.09025E+02 -2.50527E+03  1.07951E+03 -1.87665E+03
  2.18166E+03 -1.14967E+03  1.17520E+03  2.58069E+02  3.78074E+02  1.60701E+03  7.78011E+02  3.17201E+02
  1.79446E+03  7.10491E+02  1.03448E+03  1.10433E+03  8.44612E+02  2.01947E+03  1.22853E+03  1.47109E+03
 -1.24225E+03  2.03215E+03 -2.02230E+03  3.62432E+03 -2.05618E+03  9.86686E+02 -3.27506E+03  2.41902E+01
 -1.38185E+03 -2.88096E+03  6.92407E+02 -3.50018E+03  1.50614E+03 -1.92880E+03  2.69880E+03 -6.72440E+02
  1.72732E+03  1.63562E+03  2.82389E+02  1.60678E+03 -4.50248E+02  9.17319E+02 -7.23433E+02  7.12251E+01
 -5.31433E+02 -1.23751E+03  1.23943E+03 -1.29099E+03  9.29823E+02 -5.61120E+02  8.61535E+02  1.97140E+02
  6.17997E+02  1.83137E+02  6.31677E+02 -2.88687E+02 -2.16531E+02  7.46911E+02  1.44939E+03 -2.81892E+02
 -5.75031E+01 -1.89741E+02  1.53543E+03  4.69388E+02 -4.35649E+01  2.02849E+03 -4.20361E+02  2.39477E+03
 -1.19255E+03  7.84876E+02 -1.35095E+03  4.01434E+02 -1.63304E+03 -5.08337E+02  1.96825E+02 -6.51250E+02
  4.22626E+02 -1.05983E+03  7.28862E+02 -4.93149E+02  5.79036E+02  9.08097E+02 -8.42032E+02  9.08907E+02
 -9.05623E+02  4.64970E+02 -8.33833E+02 -1.24867E+03 -6.26755E+02 -1.76350E+03 -6.56199E+00 -1.17105E+03
  1.91610E+02 -3.77951E+02  3.38003E+02  1.67581E+02  1.01938E+03 -2.45803E+02  2.55476E+02  9.28891E+02
 -1.57827E+02 -1.38686E+02 -7.59134E+02 -2.46331E+01  6.69539E+02 -4.99062E+02  1.68660E+03 -5.59849E+02
  8.23915E+02  1.40636E+02  2.51185E+03  4.08732E+02  9.98231E+02  1.21239E+03 -7.00305E+01  1.39006E+03
 -1.06518E+03  1.14121E+02 -8.42847E+02 -3.44406E+01 -6.68131E+02 -1.16665E+03  8.87576E+01 -4.25125E+02
  1.47744E+03 -5.40541E+02  6.92895E+02  5.90382E+02 -8.08538E+01  1.29342E+03  4.02307E+02  6.59120E+02
 -1.20048E+02  1.00399E+03 -1.38573E+02  1.99833E+02  1.62469E+02  1.96836E+02 -8.45248E+02  3.89585E+02
 -1.73586E+02  9.61766E+02 -1.62846E+03  3.28076E+02 -1.50909E+03  3.29511E+02 -1.93165E+03 -4.43666E+02
 -7.94105E+02 -1.71318E+03  3.06075E+02 -2.07964E+03  7.28093E+02 -1.85590E+03  2.06783E+03 -6.73047E+02
  1.73540E+03 -2.12999E+02  8.48789E+02  1.14726E+03 -6.27308E+02  8.06144E+02 -6.06123E+02  8.84830E+02
 -7.40558E+02  7.28592E+02 -2.91839E+02 -7.19465E+01 -3.07410E+02  2.31085E+02 -5.62935E+02  1.39452E+02
 -1.34254E+03 -4.27592E+01 -8.10331E+02  1.55472E+02  4.49047E+02 -3.26788E+02 -6.45349E+02 -6.89601E+02
  1.03758E+03 -3.96630E+02  2.01103E+02  2.41174E+02  8.58348E+02  7.63660E+02 -5.34528E+02  9.33698E+02
 -6.05688E+02  1.64224E+03 -1.01183E+03  1.03536E+03 -1.15319E+03 -2.92633E+02 -9.00006E+02 -9.66047E+02
 -7.32189E+02 -9.06558E+02  1.60460E+02 -9.11475E+02  2.98051E+02 -3.88126E+02  2.26280E+02  1.34482E+02
  6.59811E+02  1.91796E+02  8.78387E+01  2.99637E+02 -6.30226E+01 -6.19972E+01 -2.63949E+02 -1.49896E+01
  4.71990E+02  3.98112E+02  4.40146E+01  3.33487E+02 -1.35091E+02  2.43245E+02  4.34928E+02  2.94884E+02
 -7.94679E+02  4.52485E+02 -4.38374E+02  8.99933E+01 -4.04148E+02 -1.44842E+02  6.54024E+01 -8.64832E+02
  4.45778E+02 -2.52561E+02 -4.46190E+00  3.40522E+01  3.70007E+02 -1.00688E+03  5.45006E+02  7.07428E+02
  4.59220E+02  3.23579E+02 -2.57997E+02  2.94340E+02 -2.81582E+02  3.59572E+02 -1.79558E+02  1.48518E+02
 -1.02687E+02 -7.48009E+00 -3.99535E+02 -1.09192E+02 -6.10561E+02  1.19643E+02 -6.45840E+02 -3.54551E+02
 -9.28845E+02  3.50384E+02 -4.15690E+02 -6.03289E+02  5.30881E+02 -1.25398E+03  3.56192E+02 -2.58116E+02
  3.96101E+02 -5.31069E+01 -4.69374E+02  8.51672E+01  1.49677E+02  7.16909E+02 -1.53790E+02  4.36678E+02
