 $NMID ID='MM_0lb_SNR800_13hz_g40_90.RAW', FMTDAT='(8E13.5)'
 TRAMP=1., VOLUME=1. $END
  3.09687E+05  5.93813E+02  3.37360E+05  2.50576E+05  8.44641E+04  3.37789E+05 -1.32534E+05  2.51312E+05
 -1.90294E+05  8.33721E+04 -1.11268E+05 -3.25633E+04  7.89307E+02 -5.05161E+04  5.37758E+04  5.87225E+01
  3.54876E+04  5.28440E+04 -1.65306E+04  7.53072E+04 -6.10035E+04  6.35623E+04 -8.40298E+04  3.18948E+04
 -8.08836E+04 -1.13864E+04 -5.71197E+04 -5.11801E+04 -1.49699E+04 -6.98214E+04  2.73214E+04 -4.55440E+04
  3.99256E+04  3.44690E+03  1.63754E+04  4.77027E+04 -3.42255E+04  4.72330E+04 -6.67871E+04  1.85156E+02
 -5.34918E+04 -5.64410E+04 -6.71829E+03 -7.67124E+04  3.37812E+04 -5.47972E+04  4.78798E+04 -1.72003E+04
  4.33985E+04  1.11095E+04  3.16557E+04  2.57278E+04  1.59930E+04  2.93678E+04 -5.29228E+03  2.74603E+04
 -2.19453E+04  1.25744E+04 -1.86116E+04 -4.91130E+03  5.55031E+03 -7.71049E+03  2.20891E+04  1.24633E+04
  7.47704E+03  3.54154E+04 -3.23382E+04  3.55418E+04 -6.32549E+04  2.19352E+03 -5.68054E+04 -4.27661E+04
 -1.24448E+04 -6.30472E+04  3.96912E+04 -4.53478E+04  5.81214E+04 -2.16958E+03  3.41331E+04  3.25384E+04
 -6.05139E+03  3.59389E+04 -2.98810E+04  1.55660E+04 -3.03057E+04 -4.33592E+03 -1.67779E+04 -1.09239E+04
 -8.36443E+03 -1.32323E+04 -9.46440E+02 -1.80711E+04  7.41198E+03 -2.28371E+04  1.52305E+04 -1.31221E+04
  1.15082E+04  5.25429E+03 -8.04463E+03  1.32772E+04 -2.11851E+04 -4.20737E+03 -8.13357E+03 -3.33373E+04
  2.28571E+04 -4.32441E+04  4.78813E+04 -1.93339E+04  4.49738E+04  1.94556E+04  1.57443E+04  4.41623E+04
 -1.59592E+04  3.31123E+04 -2.54779E+04  1.58068E+03 -1.01199E+04 -2.77779E+04  2.09749E+04 -3.39160E+04
  4.10472E+04 -8.46694E+03  3.55636E+04  2.38519E+04  1.84122E+04  4.64457E+04 -7.92901E+03  5.02847E+04
 -3.16480E+04  3.34786E+04 -4.20363E+04  9.77017E+03 -4.27346E+04 -1.67267E+04 -2.33847E+04 -3.76337E+04
  7.49185E+03 -3.77382E+04  3.14751E+04 -1.46644E+04  2.92588E+04  1.10558E+04  4.00881E+03  1.89300E+04
 -1.35010E+04  8.49504E+03 -1.08451E+04 -7.39651E+03  5.83994E+03 -1.08959E+04  1.80377E+04  5.92715E+03
  1.36558E+04  2.20207E+04 -6.12268E+03  2.49190E+04 -2.21909E+04  1.14734E+04 -2.78327E+04 -4.79103E+03
 -2.03916E+04 -1.76097E+04 -8.63473E+03 -2.03856E+04  3.92509E+03 -1.94061E+04  1.58146E+04 -1.83881E+04
  2.64264E+04 -1.29243E+04  3.30085E+04  2.59620E+03  2.39607E+04  1.98252E+04  4.07575E+03  3.66398E+04
 -1.77508E+04  3.03866E+04 -2.79485E+04  1.04496E+04 -2.09257E+04 -1.02148E+04 -4.10829E+03 -1.38212E+04
  2.00343E+03 -2.57614E+03 -4.95965E+03  6.70412E+03 -1.62881E+04  4.69569E+03 -1.64592E+04 -7.07970E+03
 -1.01521E+04 -1.88391E+04  5.10140E+03 -2.31611E+04  1.51781E+04 -1.63107E+04  1.80186E+04 -1.79363E+03
  1.16097E+04  1.31751E+04 -1.24010E+03  1.92675E+04 -1.29984E+04  1.07504E+04 -1.90423E+04 -4.11999E+03
 -1.41022E+04 -1.68396E+04 -1.69611E+03 -2.32121E+04  1.03156E+04 -1.87869E+04  1.90516E+04 -9.43990E+03
  1.78000E+04  3.70856E+02  1.30718E+04  4.36441E+03  6.53609E+03  9.39334E+02  9.93033E+03 -1.61653E+03
  1.76667E+04  2.90960E+03  1.96820E+04  1.52195E+04  1.24203E+04  3.00702E+04 -2.79531E+03  3.45152E+04
 -2.01243E+04  2.73438E+04 -3.20451E+04  1.39572E+04 -3.34650E+04 -2.44566E+03 -2.79937E+04 -1.94049E+04
 -1.21318E+04 -2.77249E+04  9.83717E+03 -2.49491E+04  2.18167E+04 -1.30045E+04  1.93572E+04  5.34256E+03
  7.37066E+03  1.44873E+04 -9.05672E+03  1.26155E+04 -1.62703E+04  2.78089E+03 -1.23707E+04 -1.01968E+04
 -2.90578E+02 -1.50621E+04  8.06840E+03 -1.14119E+04  1.01385E+04 -1.47795E+03  2.05647E+03  6.90072E+03
 -7.18058E+03  2.18759E+03 -6.10338E+03 -5.53204E+03 -5.13262E+02 -1.37731E+04  9.15276E+03 -1.44211E+04
  1.65229E+04 -7.59117E+03  1.81366E+04  2.91623E+03  1.56807E+04  1.34049E+04  7.61736E+03  2.06043E+04
 -3.49397E+03  2.25999E+04 -1.45239E+04  1.39111E+04 -1.60542E+04  3.37649E+03 -1.14353E+04 -3.77192E+03
 -5.23114E+03 -5.08210E+03 -7.99822E+02  1.01615E+03 -2.32595E+03  2.70535E+03 -5.23535E+03  4.30288E+03
 -1.05487E+04 -5.60590E+02 -1.12812E+04 -9.28061E+03 -4.45042E+03 -1.51899E+04  4.36376E+03 -1.19117E+04
  9.54313E+03 -4.57914E+03  7.09287E+03  3.14896E+03  2.60279E+02  4.59891E+03 -5.65512E+03 -1.77660E+02
 -5.16345E+03 -7.34958E+03 -9.18622E+02 -1.09104E+04  6.46646E+03 -1.14578E+04  1.42592E+04 -6.03448E+03
  1.64415E+04  1.50223E+03  1.22289E+04  9.73327E+03  2.38372E+03  1.30860E+04 -6.88901E+03  1.15138E+04
 -9.45543E+03  3.43978E+03 -4.85422E+03 -2.38886E+03  1.83746E+03 -3.09295E+03  6.40153E+03 -1.25275E+03
  5.77490E+03  4.68514E+03  1.04040E+03  8.78594E+03 -6.34894E+03  8.43930E+03 -1.10435E+04  2.11012E+03
 -7.37913E+03 -5.46915E+03  3.63634E+02 -9.69083E+03  5.94532E+03 -4.99494E+03  5.96364E+03  1.97783E+03
  1.17321E+03  6.17464E+03 -5.77172E+03  7.79233E+03 -8.33303E+03  3.57723E+03 -8.64529E+03 -2.72830E+03
 -4.97017E+03 -1.02425E+04  2.19225E+03 -1.15940E+04  1.01856E+04 -7.12200E+03  1.07023E+04  2.02952E+03
  7.06370E+03  8.55331E+03 -5.02763E+02  1.07697E+04 -7.42543E+03  5.88169E+03 -8.75472E+03 -1.13164E+03
 -7.83663E+03 -7.34332E+03 -1.74062E+03 -7.83421E+03  4.06515E+03 -6.79126E+03  5.09547E+03 -3.07012E+03
  3.84295E+03  1.11824E+03 -2.67478E+02  1.70809E+03  6.82860E+01 -1.42071E+03  1.29453E+03 -4.36101E+03
  6.95382E+03 -2.77671E+03  9.73166E+03  9.40760E+02  9.95821E+03  6.28450E+03  7.30615E+03  1.30193E+04
 -2.84835E+03  1.49534E+04 -1.30026E+04  1.10893E+04 -1.66555E+04  2.19569E+03 -1.33069E+04 -5.23639E+03
 -6.81316E+03 -1.11341E+04 -3.82582E+02 -8.99622E+03  3.42998E+03 -4.92979E+03  2.88449E+03 -3.08769E+03
  2.32593E+03 -2.25260E+03  3.06486E+03 -3.12591E+03  4.85769E+03 -2.39734E+03  5.44823E+03 -1.19552E+02
  6.82190E+03  1.77631E+03  3.40787E+03  5.76085E+03 -1.67271E+03  6.38548E+03 -7.53562E+03  4.97872E+03
 -9.00497E+03 -1.15992E+03 -5.02994E+03 -6.33167E+03 -8.44351E+01 -9.51184E+03  5.59552E+03 -9.84934E+03
  9.52707E+03 -5.58388E+03  1.17347E+04  1.28190E+03  8.24667E+03  8.30287E+03  1.47007E+03  1.10233E+04
 -4.31365E+03  9.37326E+03 -6.04456E+03  2.96160E+03 -4.11870E+03 -1.06285E+03 -1.40384E+03 -1.45402E+03
 -7.50843E+02  4.67944E+01 -1.66758E+03  2.72438E+03 -3.98167E+03  1.54099E+03 -6.70782E+03 -6.80792E+02
 -3.87955E+03 -6.50283E+03  5.22074E+02 -8.59327E+03  5.47293E+03 -8.28661E+03  7.89170E+03 -2.83058E+03
  8.24121E+03  4.36718E+03  3.31901E+03  7.36497E+03 -1.68874E+03  8.75716E+03 -5.59210E+03  5.11991E+03
 -7.64791E+03  6.47737E+02 -6.08355E+03 -4.84802E+03 -5.77788E+02 -6.81697E+03  3.70043E+03 -5.30477E+03
  5.42873E+03 -2.18462E+03  3.46808E+03  1.12437E+03  1.24009E+03  2.71357E+03  1.10073E+03  1.20711E+03
  2.22473E+03  6.39494E+02  2.36721E+03  1.52294E+03  2.35688E+03  3.66256E+03  2.14553E+03  4.45125E+03
 -2.14160E+03  6.55340E+03 -5.74817E+03  7.24422E+03 -8.13775E+03  1.89453E+03 -8.39450E+03 -2.60835E+03
 -4.09342E+03 -7.96832E+03  9.80675E+02 -9.61475E+03  4.67964E+03 -5.93534E+03  6.69060E+03 -1.72362E+03
  5.00233E+03  3.42108E+03  1.17161E+03  4.78586E+03 -2.10249E+03  2.95041E+03 -3.10243E+03 -3.36951E+02
 -1.34021E+03 -3.33165E+03  2.17027E+03 -3.30289E+03  3.20715E+03 -1.67774E+03  3.38612E+03  7.15340E+02
  1.92345E+03  1.59693E+03  9.20620E+02  9.12071E+02 -6.71203E+02  1.11068E+03  1.52596E+03 -7.92170E+02
  9.36421E+02 -4.04651E+02  3.17702E+03  1.61567E+03  1.75675E+03  4.51709E+03 -7.79823E+02  5.99792E+03
 -3.95389E+03  3.51866E+03 -4.87481E+03  1.17128E+03 -4.43529E+03 -1.52692E+03 -1.36190E+03 -2.99053E+03
  3.15355E+02 -2.98012E+03  1.96868E+03 -1.76615E+03  1.56770E+03  2.05134E+03 -8.06728E+02  2.69622E+03
 -3.42305E+03  1.57491E+03 -3.41568E+03 -1.95086E+03 -2.17399E+03 -4.67218E+03  5.42350E+02 -4.07722E+03
  1.81979E+03 -2.07750E+03  3.13680E+03 -1.07540E+02  2.59260E+03  5.05210E+02  4.86405E+02  2.52663E+03
 -1.10695E+03  6.00385E+02 -2.13390E+03 -1.31234E+03  1.12664E+03 -3.16294E+03  3.96545E+03 -2.40006E+03
  4.46835E+03  4.08045E+02  4.77561E+03  2.95777E+03  1.93335E+03  5.00479E+03 -1.32271E+03  4.62001E+03
 -3.76228E+03  1.75905E+03 -4.33564E+03 -9.10903E+02 -2.52439E+03 -3.06809E+03  7.17866E+02 -2.37145E+03
  3.62781E+03 -1.49784E+03  2.73172E+03  8.34963E+02  9.38002E+02  2.75734E+03 -2.26749E+02  2.62901E+03
 -1.58021E+03  1.68553E+03 -1.06174E+03  6.37521E+02 -2.34949E+02  7.44612E+02 -9.76322E+02  6.90170E+02
 -1.45148E+03  1.99024E+03 -3.58165E+03  1.41384E+03 -4.45227E+03  1.12812E+02 -5.65542E+03 -3.08262E+03
 -2.71159E+03 -6.43473E+03  1.57936E+03 -7.22329E+03  4.20029E+03 -5.98589E+03  6.98138E+03 -2.43582E+03
  6.18714E+03  6.98663E+02  3.41666E+03  3.99441E+03 -2.64927E+02  4.55987E+03 -2.23292E+03  3.63025E+03
 -2.81234E+03  1.66702E+03 -1.20234E+03 -5.85435E+02 -6.99116E+02  4.24594E+01 -7.57319E+02 -1.44457E+02
 -1.69162E+03  3.21615E+02 -1.46611E+03 -1.51042E+02  1.80685E+02 -1.39830E+03 -3.24227E+02 -1.92985E+03
  2.53654E+03 -1.48399E+03  2.60068E+03  2.56189E+01  3.68348E+03  2.64026E+03  3.04847E+02  4.51781E+03
 -2.25145E+03  5.47115E+03 -4.83631E+03  3.33175E+03 -5.27889E+03 -2.25830E+02 -3.93255E+03 -3.54798E+03
 -2.09405E+03 -4.42472E+03  1.14189E+03 -3.92828E+03  3.06960E+03 -2.41063E+03  2.97922E+03 -1.64798E+02
  1.62213E+03  1.40798E+03  6.47313E+01  1.31085E+03 -1.23171E+03  6.73984E+01  3.22584E+00 -6.81989E+02
  1.13963E+03 -4.95725E+02  1.54377E+03  6.60430E+02  1.21212E+03  1.57346E+03  1.65880E+02  2.21314E+03
 -1.89379E+03  2.31591E+03 -2.73911E+03  4.61546E+02 -2.74289E+03 -1.93209E+03 -2.38916E+02 -3.56871E+03
  1.84672E+03 -2.93153E+03  3.22056E+03 -8.66608E+02  3.41930E+03  5.10747E+01  1.91683E+03  2.92403E+03
  8.42705E+02  2.62668E+03 -8.25310E+02  2.27425E+03 -2.07764E+03  1.54696E+03 -1.89134E+03 -1.43916E+01
 -7.00799E+02 -3.40727E+02 -9.73774E+02  5.86335E+02 -1.49471E+03  4.69292E+02 -2.50808E+03 -4.20859E+02
 -2.57009E+03 -1.50851E+03 -1.13473E+03 -2.75631E+03  1.67308E+03 -3.18053E+03  2.65527E+03 -8.44599E+02
  2.65327E+03  6.63432E+02  8.32367E+02  1.84868E+03 -4.09513E+02  3.24905E+03 -2.08562E+03  2.17032E+03
