 $NMID ID='MM_0lb_SNR800_7hz_g40_37.RAW', FMTDAT='(8E13.5)'
 TRAMP=1., VOLUME=1. $END
  3.09945E+05  3.17499E+02  3.38035E+05  2.50554E+05  8.49376E+04  3.38877E+05 -1.33124E+05  2.52197E+05
 -1.90741E+05  8.37952E+04 -1.12393E+05 -3.24603E+04 -1.20234E+02 -5.07558E+04  5.34544E+04 -5.06923E+02
  3.53887E+04  5.29139E+04 -1.68312E+04  7.64548E+04 -6.12864E+04  6.45247E+04 -8.58994E+04  3.29679E+04
 -8.28171E+04 -1.19490E+04 -5.89071E+04 -5.23581E+04 -1.50419E+04 -7.10690E+04  2.83887E+04 -4.69825E+04
  4.15775E+04  3.40177E+03  1.67127E+04  4.85038E+04 -3.51303E+04  4.85774E+04 -6.84369E+04 -1.61534E+02
 -5.50486E+04 -5.81592E+04 -7.36520E+03 -7.99155E+04  3.52251E+04 -5.71525E+04  5.03364E+04 -1.89345E+04
  4.57468E+04  1.20051E+04  3.29907E+04  2.62973E+04  1.65569E+04  3.08458E+04 -5.89584E+03  2.76834E+04
 -2.24384E+04  1.17918E+04 -1.79658E+04 -5.48532E+03  7.43478E+03 -7.47999E+03  2.37370E+04  1.43950E+04
  7.13130E+03  3.79759E+04 -3.42539E+04  3.72589E+04 -6.66740E+04  2.20714E+03 -5.88742E+04 -4.47789E+04
 -1.29335E+04 -6.63173E+04  4.22053E+04 -4.79011E+04  6.16307E+04 -2.79581E+03  3.74079E+04  3.46575E+04
 -5.10167E+03  3.99334E+04 -3.20916E+04  1.95290E+04 -3.38190E+04 -3.18979E+03 -2.01541E+04 -1.21196E+04
 -9.66157E+03 -1.54309E+04 -2.52061E+02 -2.02274E+04  8.53415E+03 -2.34947E+04  1.61403E+04 -1.28240E+04
  9.70642E+03  6.19076E+03 -1.05459E+04  1.30620E+04 -2.36403E+04 -7.66014E+03 -9.03508E+03 -3.82000E+04
  2.60388E+04 -4.80798E+04  5.24865E+04 -2.15342E+04  4.94471E+04  2.13980E+04  1.77635E+04  4.75633E+04
 -1.66294E+04  3.69834E+04 -2.82268E+04  3.10590E+03 -1.19854E+04 -3.00034E+04  2.18664E+04 -3.74554E+04
  4.51705E+04 -1.15818E+04  4.15734E+04  2.53714E+04  2.20884E+04  5.24701E+04 -8.12643E+03  5.80032E+04
 -3.64616E+04  3.95480E+04 -4.86438E+04  1.13141E+04 -4.89708E+04 -1.86412E+04 -2.66035E+04 -4.31592E+04
  7.98573E+03 -4.31345E+04  3.50350E+04 -1.76635E+04  3.24375E+04  1.13571E+04  5.33694E+03  2.12270E+04
 -1.39704E+04  9.46954E+03 -1.15909E+04 -8.14559E+03  5.54084E+03 -1.17892E+04  1.91254E+04  5.56881E+03
  1.51094E+04  2.30072E+04 -4.62992E+03  2.75736E+04 -2.36374E+04  1.50804E+04 -3.23312E+04 -2.15325E+03
 -2.69658E+04 -1.88826E+04 -1.29745E+04 -2.60631E+04  3.72638E+03 -2.71209E+04  2.06409E+04 -2.47737E+04
  3.36741E+04 -1.46824E+04  3.95024E+04  5.23194E+03  2.77382E+04  2.56846E+04  5.05222E+03  4.24582E+04
 -2.06193E+04  3.49960E+04 -3.10644E+04  1.24192E+04 -2.25290E+04 -1.01232E+04 -5.38000E+03 -1.28545E+04
  5.02817E+02 -1.11035E+03 -8.41956E+03  8.68588E+03 -2.09434E+04  5.39280E+03 -2.08679E+04 -1.03365E+04
 -1.26782E+04 -2.44994E+04  6.88236E+03 -2.88790E+04  1.93981E+04 -2.05580E+04  2.36395E+04 -2.14672E+03
  1.51304E+04  1.72169E+04 -1.68151E+03  2.46923E+04 -1.77022E+04  1.41256E+04 -2.48117E+04 -4.96891E+03
 -1.82360E+04 -2.15141E+04 -2.35962E+03 -2.96891E+04  1.30370E+04 -2.50475E+04  2.44967E+04 -1.27895E+04
  2.27688E+04 -1.30983E+01  1.70965E+04  5.28271E+03  9.04007E+03  1.51752E+03  1.29860E+04 -1.84195E+03
  2.32009E+04  3.02943E+03  2.69696E+04  1.91347E+04  1.90196E+04  3.92161E+04 -2.81391E+03  4.72356E+04
 -2.74230E+04  3.99289E+04 -4.44435E+04  2.04716E+04 -4.74565E+04 -3.22006E+03 -3.85362E+04 -2.82033E+04
 -1.47538E+04 -3.98140E+04  1.42834E+04 -3.50757E+04  2.97565E+04 -1.57279E+04  2.59632E+04  8.31930E+03
  8.37301E+03  2.00251E+04 -1.24603E+04  1.63069E+04 -2.08133E+04  2.37535E+03 -1.59383E+04 -1.38287E+04
 -3.06930E+02 -2.05576E+04  1.07760E+04 -1.51635E+04  1.41180E+04 -1.23815E+03  3.26745E+03  9.33737E+03
 -8.94584E+03  4.49833E+03 -1.00868E+04 -7.42712E+03 -2.68528E+03 -1.94426E+04  1.25659E+04 -2.14118E+04
  2.48983E+04 -1.25424E+04  2.84910E+04  3.08790E+03  2.48175E+04  2.02443E+04  1.13322E+04  3.20456E+04
 -6.48359E+03  3.39108E+04 -2.24231E+04  2.08874E+04 -2.50290E+04  4.03855E+03 -1.66240E+04 -7.02764E+03
 -6.51735E+03 -8.37214E+03 -6.79568E+02 -8.63220E+01 -3.35173E+03  3.82859E+03 -8.39097E+03  5.73337E+03
 -1.51377E+04 -1.03853E+03 -1.59338E+04 -1.27372E+04 -6.55337E+03 -2.12998E+04  6.42861E+03 -1.69000E+04
  1.39449E+04 -6.70376E+03  1.02373E+04  4.76156E+03 -5.69124E+02  6.80399E+03 -8.32282E+03 -1.29050E+02
 -8.20962E+03 -1.11907E+04 -1.40940E+03 -1.69391E+04  9.97037E+03 -1.83025E+04  2.17869E+04 -1.02207E+04
  2.55744E+04  2.84249E+03  1.92797E+04  1.62456E+04  3.51722E+03  2.11064E+04 -1.01788E+04  1.73161E+04
 -1.39416E+04  4.90394E+03 -7.07793E+03 -3.62730E+03  2.35914E+03 -5.35397E+03  8.72127E+03 -1.17792E+03
  8.47796E+03  8.00969E+03  1.33437E+03  1.41190E+04 -1.02873E+04  1.32980E+04 -1.74403E+04  2.73870E+03
 -1.22883E+04 -9.07693E+03  2.11819E+02 -1.49705E+04  9.82322E+03 -8.26366E+03  1.08916E+04  3.82349E+03
  2.42697E+03  1.13621E+04 -8.63253E+03  1.27919E+04 -1.53550E+04  5.95523E+03 -1.59559E+04 -5.75459E+03
 -8.97698E+03 -1.79270E+04  4.65377E+03 -2.00646E+04  1.76295E+04 -1.23316E+04  1.94062E+04  3.59271E+03
  1.10666E+04  1.49120E+04 -2.09200E+03  1.75452E+04 -1.33365E+04  1.01079E+04 -1.41882E+04 -1.27412E+03
 -1.15513E+04 -1.17506E+04 -1.44927E+03 -1.36961E+04  7.13330E+03 -1.06795E+04  8.68138E+03 -3.86872E+03
  5.22450E+03  2.21112E+03 -1.57536E+03  2.56618E+03 -1.08588E+03 -3.93474E+03  3.32627E+03 -9.47501E+03
  1.32400E+04 -5.95495E+03  1.85761E+04  2.16501E+03  1.73791E+04  1.26116E+04  1.14123E+04  2.42037E+04
 -5.54714E+03  2.74893E+04 -2.29689E+04  2.00432E+04 -2.93721E+04  3.74055E+03 -2.36506E+04 -1.05484E+04
 -1.22248E+04 -1.95201E+04 -7.38918E+02 -1.73686E+04  6.59464E+03 -9.96456E+03  6.14024E+03 -6.02791E+03
  4.51881E+03 -3.14394E+03  4.42842E+03 -4.35686E+03  6.54493E+03 -4.17758E+03  9.37957E+03 -1.87361E+03
  1.24030E+04  2.05386E+03  6.88186E+03  1.09575E+04 -2.65886E+03  1.34678E+04 -1.28726E+04  1.01424E+04
 -1.73427E+04 -1.48615E+03 -1.15222E+04 -1.21237E+04 -1.85693E+03 -1.83751E+04  9.84163E+03 -1.83723E+04
  1.95347E+04 -1.01682E+04  2.23839E+04  3.18800E+03  1.52597E+04  1.59731E+04  2.32303E+03  2.09111E+04
 -9.05592E+03  1.66948E+04 -1.21691E+04  5.69480E+03 -8.50874E+03 -1.48443E+03 -3.58343E+03 -2.48554E+03
 -1.68915E+03 -2.73609E+02 -2.69462E+03  3.14474E+03 -7.04892E+03  2.78821E+03 -1.21444E+04 -1.93936E+03
 -8.72474E+03 -1.15356E+04 -2.77164E+01 -1.73808E+04  1.04769E+04 -1.57095E+04  1.78179E+04 -5.52806E+03
  1.75479E+04  8.35016E+03  8.28070E+03  1.57220E+04 -3.22840E+03  1.80647E+04 -1.30366E+04  1.11710E+04
 -1.67183E+04  7.76182E+02 -1.28829E+04 -1.06594E+04 -9.95199E+02 -1.48339E+04  7.29825E+03 -1.09738E+04
  1.10016E+04 -3.32038E+03  7.57518E+03  3.01394E+03  2.88575E+03  5.30622E+03  1.21712E+03  2.64528E+03
  2.78260E+03  1.21459E+03  4.36026E+03  2.25605E+03  5.15674E+03  6.41314E+03  3.86259E+03  9.91364E+03
 -3.62413E+03  1.39798E+04 -1.27747E+04  1.42794E+04 -1.87980E+04  3.57361E+03 -1.88321E+04 -8.59357E+03
 -9.12353E+03 -1.82107E+04  2.57574E+03 -1.95052E+04  1.11952E+04 -1.29807E+04  1.50317E+04 -3.27274E+03
  1.19366E+04  6.64457E+03  2.85514E+03  1.05989E+04 -5.19240E+03  7.04477E+03 -7.41411E+03 -7.77212E+02
 -3.77482E+03 -7.39141E+03  4.04433E+03 -8.40145E+03  7.54438E+03 -3.42456E+03  7.38649E+03  1.36779E+03
  5.14713E+03  3.83767E+03  1.66733E+03  3.42217E+03 -1.18830E+03  2.38960E+03  1.93594E+03 -2.62911E+02
  2.87910E+03 -1.56566E+03  7.91242E+03  3.09374E+03  4.31648E+03  9.58935E+03 -1.48034E+03  1.29265E+04
 -9.17919E+03  9.17256E+03 -1.22420E+04  2.43120E+03 -1.07749E+04 -4.39384E+03 -4.61962E+03 -7.83673E+03
  7.16522E+02 -7.59335E+03  5.07795E+03 -3.58612E+03  4.40689E+03  3.56981E+03 -1.38646E+03  5.78109E+03
 -8.19200E+03  3.67065E+03 -9.10533E+03 -4.73946E+03 -5.07895E+03 -1.00516E+04  1.40089E+03 -1.08386E+04
  6.49839E+03 -6.50848E+03  8.02327E+03 -1.14214E+03  6.59330E+03  3.09035E+03  7.62674E+02  5.90822E+03
 -3.86340E+03  1.86281E+03 -4.86536E+03 -4.07278E+03  1.70647E+03 -8.73768E+03  9.59892E+03 -6.46048E+03
  1.26689E+04  1.27301E+03  1.12567E+04  8.63698E+03  3.52138E+03  1.29057E+04 -4.79924E+03  1.20019E+04
 -1.06256E+04  5.67059E+03 -1.06916E+04 -1.94961E+03 -5.98232E+03 -8.33611E+03  1.97787E+03 -8.13636E+03
  8.07398E+03 -3.67456E+03  7.16063E+03  3.14431E+03  2.70311E+03  6.82953E+03 -9.93521E+02  6.28203E+03
 -3.56649E+03  3.64177E+03 -2.97704E+03  1.46358E+03 -1.31483E+03  9.30860E+02 -1.46883E+03  2.85015E+03
 -3.22546E+03  4.59678E+03 -8.41203E+03  4.00217E+03 -1.28347E+04  4.44025E+02 -1.41457E+04 -8.78273E+03
 -7.42639E+03 -1.75407E+04  3.43475E+03 -1.99637E+04  1.26320E+04 -1.56239E+04  1.87646E+04 -5.54838E+03
  1.77907E+04  3.69042E+03  1.11460E+04  1.22632E+04  1.71609E+03  1.34166E+04 -5.03362E+03  1.03058E+04
 -7.81664E+03  3.61880E+03 -4.68008E+03 -1.70432E+03 -1.35415E+03 -1.59174E+03 -2.94761E+02 -4.14192E+02
 -2.01253E+03  4.19863E+02 -3.04518E+03 -8.57709E+02 -1.14569E+03 -3.37384E+03  1.70674E+02 -4.97702E+03
  5.93465E+03 -4.23167E+03  8.31601E+03  4.74815E+01  9.50041E+03  7.68935E+03  3.39595E+03  1.37825E+04
 -6.20823E+03  1.57977E+04 -1.44449E+04  9.22639E+03 -1.73397E+04 -1.23439E+03 -1.28343E+04 -1.00722E+04
 -4.93894E+03 -1.43712E+04  3.72697E+03 -1.34809E+04  8.84090E+03 -6.88647E+03  9.61332E+03  4.08825E+02
  5.19078E+03  4.66402E+03 -6.27042E+02  4.21070E+03 -2.14545E+03 -4.19237E+02  5.19970E+01 -3.67209E+03
  4.25393E+03 -1.84303E+03  5.52509E+03  1.93174E+03  3.99483E+03  5.97564E+03  1.76674E+02  7.42868E+03
 -6.14271E+03  6.17614E+03 -9.39837E+03  5.62702E+02 -8.62092E+03 -6.68363E+03 -1.45838E+03 -1.22592E+04
  6.61225E+03 -9.97371E+03  1.10772E+04 -3.26966E+03  1.07618E+04  3.14941E+03  6.50469E+03  9.15236E+03
  1.11296E+03  9.79989E+03 -3.82060E+03  8.14682E+03 -6.26625E+03  4.88231E+03 -5.50407E+03  2.72837E+02
 -2.52285E+03 -6.10874E+02 -2.71942E+03  1.36096E+03 -5.02940E+03  1.61631E+03 -7.27840E+03 -1.21271E+03
 -7.26685E+03 -5.61556E+03 -1.77450E+03 -9.73864E+03  4.52167E+03 -1.01583E+04  8.65132E+03 -5.14168E+03
  9.80325E+03  9.36099E+02  5.64564E+03  6.84387E+03 -6.73341E+02  9.85048E+03 -7.44311E+03  6.42285E+03
