 $NMID ID='MM_0lb_SNR800_7hz_g55_74.RAW', FMTDAT='(8E13.5)'
 TRAMP=1., VOLUME=1. $END
  3.10293E+05  5.68681E+02  3.38139E+05  2.50966E+05  8.46893E+04  3.38985E+05 -1.32853E+05  2.52170E+05
 -1.91136E+05  8.36513E+04 -1.12925E+05 -3.20721E+04  7.50701E+01 -5.07955E+04  5.38088E+04 -3.54384E+02
  3.60109E+04  5.28823E+04 -1.67597E+04  7.64062E+04 -6.13309E+04  6.48356E+04 -8.55966E+04  3.28046E+04
 -8.34656E+04 -1.19586E+04 -5.86378E+04 -5.39081E+04 -1.50105E+04 -7.18780E+04  2.83201E+04 -4.73610E+04
  4.16069E+04  3.63686E+03  1.73005E+04  4.90973E+04 -3.49180E+04  4.85755E+04 -6.89036E+04  4.11250E+02
 -5.54867E+04 -5.79203E+04 -6.99071E+03 -7.97697E+04  3.51265E+04 -5.80521E+04  5.07941E+04 -1.87386E+04
  4.60030E+04  1.20126E+04  3.37673E+04  2.74209E+04  1.58595E+04  3.12413E+04 -6.15510E+03  2.77971E+04
 -2.22352E+04  1.18547E+04 -1.72227E+04 -5.94446E+03  7.06411E+03 -6.67228E+03  2.36962E+04  1.44298E+04
  7.10726E+03  3.85445E+04 -3.53019E+04  3.72544E+04 -6.68472E+04  2.09489E+03 -6.00417E+04 -4.50826E+04
 -1.26724E+04 -6.70602E+04  4.28352E+04 -4.86546E+04  6.29052E+04 -3.08041E+03  3.79580E+04  3.51616E+04
 -5.43776E+03  4.11431E+04 -3.25438E+04  1.98112E+04 -3.50500E+04 -3.23830E+03 -2.07377E+04 -1.27252E+04
 -1.00527E+04 -1.57807E+04 -4.46010E+02 -2.07368E+04  8.92402E+03 -2.35398E+04  1.63185E+04 -1.23096E+04
  1.02334E+04  7.01540E+03 -1.13969E+04  1.25897E+04 -2.46954E+04 -7.91104E+03 -8.97591E+03 -3.93715E+04
  2.65812E+04 -4.83396E+04  5.37552E+04 -2.17757E+04  5.06604E+04  2.15871E+04  1.78442E+04  4.85630E+04
 -1.73668E+04  3.76497E+04 -2.87479E+04  2.74914E+03 -1.29419E+04 -3.02423E+04  2.15410E+04 -3.79923E+04
  4.57879E+04 -1.21622E+04  4.23315E+04  2.53868E+04  2.35205E+04  5.34934E+04 -8.76105E+03  5.93333E+04
 -3.71364E+04  4.04122E+04 -5.06842E+04  1.15123E+04 -4.99249E+04 -2.01392E+04 -2.75542E+04 -4.40142E+04
  7.66512E+03 -4.40631E+04  3.57130E+04 -1.79974E+04  3.34468E+04  1.12800E+04  5.48355E+03  2.16805E+04
 -1.39612E+04  1.02912E+04 -1.17139E+04 -7.02772E+03  5.60700E+03 -1.17591E+04  1.93434E+04  5.08559E+03
  1.57038E+04  2.29524E+04 -4.43564E+03  2.82441E+04 -2.41197E+04  1.55667E+04 -3.40316E+04 -2.10057E+03
 -2.79784E+04 -1.91671E+04 -1.38043E+04 -2.66435E+04  4.44979E+03 -2.88720E+04  2.22582E+04 -2.55520E+04
  3.51208E+04 -1.52601E+04  4.12878E+04  6.20840E+03  2.86596E+04  2.63282E+04  3.84784E+03  4.37431E+04
 -2.12428E+04  3.57909E+04 -3.18796E+04  1.26459E+04 -2.35017E+04 -1.03048E+04 -5.32084E+03 -1.26190E+04
  6.27982E+02 -2.50773E+02 -8.86298E+03  8.43087E+03 -2.28469E+04  5.13172E+03 -2.22872E+04 -1.07563E+04
 -1.29848E+04 -2.60985E+04  6.63214E+03 -3.03657E+04  2.04189E+04 -2.17067E+04  2.51509E+04 -1.66339E+03
  1.61218E+04  1.75689E+04 -1.46667E+03  2.55020E+04 -1.85434E+04  1.47602E+04 -2.58171E+04 -4.98921E+03
 -1.90181E+04 -2.30477E+04 -2.40724E+03 -3.08334E+04  1.42600E+04 -2.54428E+04  2.49749E+04 -1.36324E+04
  2.42547E+04 -4.22250E+02  1.81330E+04  5.61062E+03  9.97518E+03  2.01512E+03  1.29927E+04 -2.05638E+03
  2.46699E+04  2.72994E+03  2.83959E+04  2.00504E+04  1.96764E+04  4.13308E+04 -2.23504E+03  4.96954E+04
 -2.83579E+04  4.19683E+04 -4.70133E+04  2.24672E+04 -5.01747E+04 -4.04882E+03 -4.08870E+04 -2.97791E+04
 -1.59887E+04 -4.19864E+04  1.49625E+04 -3.68029E+04  3.13676E+04 -1.65924E+04  2.66571E+04  8.91071E+03
  8.90776E+03  2.11517E+04 -1.29255E+04  1.77033E+04 -2.22010E+04  2.91450E+03 -1.71234E+04 -1.48058E+04
  1.37193E+02 -2.13912E+04  1.17254E+04 -1.59752E+04  1.50387E+04 -1.60111E+03  4.19790E+03  1.01327E+04
 -9.95584E+03  5.04999E+03 -1.10914E+04 -7.71566E+03 -2.99065E+03 -2.08748E+04  1.32679E+04 -2.28173E+04
  2.64512E+04 -1.34449E+04  3.08691E+04  3.31812E+03  2.74397E+04  2.15034E+04  1.23911E+04  3.41239E+04
 -6.52112E+03  3.62433E+04 -2.36672E+04  2.22189E+04 -2.62969E+04  4.21015E+03 -1.72540E+04 -7.10860E+03
 -6.85161E+03 -8.46840E+03 -4.76706E+02  3.63661E+02 -3.37510E+03  4.05241E+03 -8.71751E+03  5.80317E+03
 -1.62101E+04 -1.33225E+03 -1.68945E+04 -1.35796E+04 -6.49948E+03 -2.24194E+04  7.26475E+03 -1.80248E+04
  1.45960E+04 -7.04837E+03  1.07833E+04  4.90708E+03 -1.01568E+03  7.57126E+03 -9.24091E+03  6.56499E+01
 -8.61610E+03 -1.18837E+04 -1.52043E+03 -1.83011E+04  1.04436E+04 -1.88933E+04  2.36390E+04 -1.07958E+04
  2.75465E+04  3.17010E+03  1.99117E+04  1.72531E+04  3.55803E+03  2.27718E+04 -1.12471E+04  1.78976E+04
 -1.47266E+04  4.90435E+03 -7.67024E+03 -4.47098E+03  2.37745E+03 -5.55513E+03  9.49378E+03 -9.62567E+02
  8.41513E+03  8.11470E+03  1.23981E+03  1.48899E+04 -1.06494E+04  1.42248E+04 -1.85920E+04  2.69877E+03
 -1.28073E+04 -9.64383E+03  3.56530E+02 -1.65821E+04  1.06989E+04 -8.05186E+03  1.17601E+04  4.35291E+03
  3.26725E+03  1.28344E+04 -9.41490E+03  1.47981E+04 -1.69001E+04  5.92870E+03 -1.76997E+04 -6.74963E+03
 -9.68039E+03 -1.95942E+04  5.39321E+03 -2.22906E+04  1.87576E+04 -1.29654E+04  2.08422E+04  4.12816E+03
  1.21033E+04  1.65394E+04 -2.12861E+03  1.91254E+04 -1.41174E+04  1.04577E+04 -1.50745E+04 -2.25622E+03
 -1.29157E+04 -1.23143E+04 -1.85915E+03 -1.47420E+04  7.30923E+03 -1.19942E+04  9.37675E+03 -3.91379E+03
  5.68468E+03  2.98634E+03 -1.63929E+03  2.07587E+03 -1.51429E+03 -4.63707E+03  3.55368E+03 -9.92832E+03
  1.46665E+04 -6.63834E+03  2.06313E+04  1.78629E+03  1.97460E+04  1.40450E+04  1.18242E+04  2.60698E+04
 -6.50662E+03  2.97619E+04 -2.46717E+04  2.18678E+04 -3.19202E+04  4.17110E+03 -2.56901E+04 -1.15378E+04
 -1.28797E+04 -2.08867E+04 -3.82993E+02 -1.88352E+04  6.14830E+03 -1.08052E+04  6.61455E+03 -6.68121E+03
  5.18549E+03 -3.54277E+03  4.49158E+03 -4.61314E+03  6.73474E+03 -4.08072E+03  9.62405E+03 -1.88187E+03
  1.33122E+04  2.76233E+03  8.01453E+03  1.15769E+04 -2.53672E+03  1.44370E+04 -1.34087E+04  1.11142E+04
 -1.86445E+04 -1.24114E+03 -1.18783E+04 -1.34882E+04 -1.77938E+03 -1.98744E+04  1.12325E+04 -2.00276E+04
  2.09656E+04 -1.17219E+04  2.47485E+04  3.66461E+03  1.68565E+04  1.75399E+04  2.69389E+03  2.21517E+04
 -9.72308E+03  1.78822E+04 -1.32096E+04  6.62287E+03 -9.31175E+03 -1.93770E+03 -3.47288E+03 -2.78473E+03
 -1.72217E+03 -7.55673E+02 -2.64105E+03  3.30429E+03 -7.27034E+03  2.55872E+03 -1.24284E+04 -2.25186E+03
 -9.34749E+03 -1.24635E+04 -6.49763E+02 -1.85261E+04  1.17846E+04 -1.73465E+04  1.94197E+04 -5.21524E+03
  1.88319E+04  9.06632E+03  8.95894E+03  1.70250E+04 -4.10136E+03  1.93077E+04 -1.38020E+04  1.18046E+04
 -1.85274E+04 -3.40257E+02 -1.36941E+04 -1.19510E+04 -1.44829E+03 -1.64352E+04  8.74889E+03 -1.19661E+04
  1.23286E+04 -3.88695E+03  8.94846E+03  3.51393E+03  3.35041E+03  5.54392E+03  1.49230E+03  3.16555E+03
  3.13458E+03  1.63386E+03  4.40110E+03  2.57236E+03  5.87551E+03  6.36843E+03  4.71221E+03  1.04984E+04
 -4.03875E+03  1.60397E+04 -1.37326E+04  1.48566E+04 -2.07995E+04  3.70416E+03 -2.08746E+04 -8.86534E+03
 -1.03732E+04 -2.00059E+04  2.93769E+03 -2.14991E+04  1.23899E+04 -1.44584E+04  1.64294E+04 -3.85776E+03
  1.33952E+04  7.89455E+03  3.50409E+03  1.14820E+04 -5.91882E+03  7.36814E+03 -8.76442E+03 -1.64287E+03
 -4.12581E+03 -8.58188E+03  4.87819E+03 -9.23152E+03  8.55937E+03 -4.23457E+03  8.71057E+03  1.72356E+03
  5.56019E+03  4.76978E+03  2.41140E+03  4.31746E+03 -1.18580E+03  2.44632E+03  1.91300E+03 -5.25537E+02
  3.62766E+03 -1.04562E+03  7.81381E+03  3.36455E+03  4.94798E+03  1.11926E+04 -1.01884E+03  1.41392E+04
 -9.70030E+03  9.62936E+03 -1.33844E+04  2.54619E+03 -1.19150E+04 -4.89035E+03 -4.94349E+03 -8.04565E+03
  1.18636E+03 -8.77012E+03  5.29941E+03 -3.95144E+03  4.60957E+03  3.86915E+03 -2.03420E+03  6.97595E+03
 -8.74813E+03  3.87034E+03 -1.03695E+04 -4.20952E+03 -5.17690E+03 -1.10361E+04  1.97627E+03 -1.17444E+04
  7.34916E+03 -7.31615E+03  8.57014E+03 -8.42125E+02  7.03033E+03  3.39367E+03  1.03750E+03  6.28992E+03
 -4.22757E+03  2.25266E+03 -4.83760E+03 -4.22579E+03  2.22097E+03 -9.37808E+03  1.07137E+04 -7.77181E+03
  1.42420E+04  8.39144E+02  1.27455E+04  9.47422E+03  3.92434E+03  1.44120E+04 -5.30927E+03  1.28012E+04
 -1.20451E+04  5.99352E+03 -1.21004E+04 -1.92316E+03 -6.44926E+03 -9.05831E+03  2.39057E+03 -8.90855E+03
  9.03354E+03 -4.70846E+03  7.40517E+03  3.79831E+03  2.72082E+03  7.40444E+03 -1.62645E+03  6.53868E+03
 -3.70902E+03  4.32315E+03 -3.65970E+03  1.51028E+03 -2.00334E+03  1.67723E+03 -1.85905E+03  2.70635E+03
 -3.61871E+03  4.98877E+03 -9.23913E+03  5.08914E+03 -1.43000E+04  3.31747E+02 -1.54098E+04 -9.74212E+03
 -8.30751E+03 -1.93118E+04  3.26161E+03 -2.20460E+04  1.38213E+04 -1.67640E+04  2.06249E+04 -6.53210E+03
  1.95543E+04  4.25928E+03  1.21124E+04  1.38922E+04  1.43300E+03  1.56221E+04 -5.97344E+03  1.11701E+04
 -8.82813E+03  3.95905E+03 -4.79331E+03 -1.50290E+03 -1.98352E+03 -1.75827E+03 -3.43813E+02 -7.62298E+02
 -2.46532E+03  3.78144E+02 -2.75309E+03 -3.60730E+02 -1.53749E+03 -3.59864E+03  4.70209E+02 -5.82329E+03
  6.35053E+03 -4.73000E+03  9.22083E+03  3.05316E+02  1.08315E+04  8.07077E+03  3.60589E+03  1.56219E+04
 -6.79613E+03  1.74833E+04 -1.63343E+04  1.05325E+04 -1.91402E+04 -1.57806E+03 -1.33415E+04 -1.13195E+04
 -5.36378E+03 -1.57060E+04  4.02601E+03 -1.47090E+04  1.02095E+04 -7.88201E+03  1.02864E+04  9.92652E+02
  5.98022E+03  5.14190E+03 -1.02581E+03  4.29987E+03 -2.96020E+03 -5.65223E+02  3.08434E+02 -3.09922E+03
  4.90902E+03 -2.84524E+03  6.24290E+03  1.96742E+03  4.23662E+03  6.69872E+03  2.75807E+02  8.41166E+03
 -6.86303E+03  7.09936E+03 -1.08880E+04  8.46465E+02 -9.41680E+03 -7.43026E+03 -1.47480E+03 -1.31407E+04
  7.37971E+03 -1.14173E+04  1.27002E+04 -3.84962E+03  1.24385E+04  3.50817E+03  7.11642E+03  1.02047E+04
  8.70111E+02  1.07940E+04 -4.32203E+03  8.91648E+03 -7.17392E+03  4.67153E+03 -5.63217E+03  6.91572E+02
 -3.21086E+03 -3.59809E+02 -2.86471E+03  1.55495E+03 -5.21574E+03  2.23656E+03 -8.05938E+03 -1.97247E+03
 -7.24481E+03 -6.37076E+03 -2.42218E+03 -1.09539E+04  4.52795E+03 -1.11350E+04  9.55870E+03 -5.51473E+03
  1.10971E+04  1.13486E+03  6.62996E+03  7.95754E+03 -7.36138E+02  1.09215E+04 -8.32024E+03  7.18897E+03
