 $NMID ID='MM_0lb_SNR800_18hz_g45_74.RAW', FMTDAT='(8E13.5)'
 TRAMP=1., VOLUME=1. $END
  3.09855E+05  3.37205E+02  3.37183E+05  2.50317E+05  8.43100E+04  3.37389E+05 -1.32413E+05  2.50037E+05
 -1.89775E+05  8.26878E+04 -1.11097E+05 -3.28621E+04  1.50054E+03 -5.02053E+04  5.40986E+04  2.38642E+02
  3.49627E+04  5.28874E+04 -1.70472E+04  7.49828E+04 -6.03429E+04  6.26750E+04 -8.31097E+04  3.16652E+04
 -7.99621E+04 -1.12497E+04 -5.64921E+04 -5.02040E+04 -1.50149E+04 -6.85209E+04  2.69017E+04 -4.49347E+04
  3.92128E+04  4.01124E+03  1.57637E+04  4.74384E+04 -3.38542E+04  4.63412E+04 -6.53362E+04 -4.68777E+02
 -5.20442E+04 -5.58800E+04 -6.40945E+03 -7.49591E+04  3.31156E+04 -5.33377E+04  4.62627E+04 -1.64753E+04
  4.17069E+04  1.09296E+04  3.09738E+04  2.45707E+04  1.56577E+04  2.82282E+04 -4.99978E+03  2.64661E+04
 -2.19886E+04  1.28523E+04 -1.92153E+04 -4.31377E+03  4.34846E+03 -7.58821E+03  2.12759E+04  1.09067E+04
  7.46280E+03  3.32113E+04 -3.06550E+04  3.38912E+04 -6.11437E+04  2.28187E+03 -5.55862E+04 -4.11189E+04
 -1.26782E+04 -6.09490E+04  3.80354E+04 -4.35484E+04  5.55156E+04 -2.17287E+03  3.18633E+04  3.03890E+04
 -6.71766E+03  3.32653E+04 -2.86342E+04  1.35291E+04 -2.78440E+04 -5.35296E+03 -1.44360E+04 -9.96644E+03
 -6.98969E+03 -1.15517E+04 -1.02169E+03 -1.66022E+04  6.86424E+03 -2.26295E+04  1.51021E+04 -1.41221E+04
  1.23944E+04  4.45623E+03 -6.45012E+03  1.30485E+04 -1.93474E+04 -2.58749E+03 -8.15382E+03 -3.04810E+04
  2.06005E+04 -4.06204E+04  4.47768E+04 -1.86333E+04  4.21610E+04  1.83993E+04  1.41618E+04  4.19263E+04
 -1.52263E+04  3.11601E+04 -2.34024E+04  1.01783E+03 -8.48328E+03 -2.62917E+04  2.06897E+04 -3.12432E+04
  3.82633E+04 -7.79909E+03  3.15813E+04  2.26253E+04  1.57290E+04  4.25880E+04 -7.59430E+03  4.53561E+04
 -2.84345E+04  3.00165E+04 -3.75789E+04  8.65700E+03 -3.86580E+04 -1.50267E+04 -2.12910E+04 -3.45240E+04
  6.75851E+03 -3.43531E+04  2.92551E+04 -1.29299E+04  2.68157E+04  1.09338E+04  3.00002E+03  1.79158E+04
 -1.30706E+04  7.25095E+03 -9.61253E+03 -7.52131E+03  5.88066E+03 -1.01064E+04  1.74248E+04  6.32242E+03
  1.20772E+04  2.17806E+04 -6.72697E+03  2.35300E+04 -2.16431E+04  9.55661E+03 -2.53351E+04 -6.08290E+03
 -1.71218E+04 -1.62388E+04 -5.99782E+03 -1.68483E+04  3.83651E+03 -1.47859E+04  1.25958E+04 -1.45035E+04
  2.14614E+04 -1.17148E+04  2.85118E+04  1.20433E+03  2.17422E+04  1.67079E+04  4.31427E+03  3.27633E+04
 -1.61686E+04  2.77420E+04 -2.56669E+04  9.55838E+03 -1.98306E+04 -1.02724E+04 -3.90601E+03 -1.36455E+04
  2.39269E+03 -4.14574E+03 -2.95756E+03  5.20228E+03 -1.29071E+04  5.17628E+03 -1.33105E+04 -5.02940E+03
 -8.99562E+03 -1.56429E+04  4.44444E+03 -1.94094E+04  1.25897E+04 -1.41919E+04  1.47879E+04 -1.64902E+03
  9.11753E+03  1.10593E+04 -8.57815E+02  1.59547E+04 -1.05344E+04  8.96218E+03 -1.57128E+04 -3.40203E+03
 -1.17111E+04 -1.45028E+04 -1.34929E+03 -1.90328E+04  8.73007E+03 -1.53306E+04  1.64889E+04 -7.51517E+03
  1.46164E+04  6.86805E+02  1.04421E+04  3.93915E+03  5.39034E+03  3.66706E+02  7.49459E+03 -1.47205E+03
  1.40012E+04  2.69682E+03  1.50693E+04  1.28738E+04  9.24320E+03  2.52197E+04 -3.24466E+03  2.70042E+04
 -1.59537E+04  2.06056E+04 -2.48002E+04  9.74753E+03 -2.53565E+04 -2.08126E+03 -2.20235E+04 -1.44349E+04
 -1.01033E+04 -2.09661E+04  7.03870E+03 -1.94773E+04  1.69427E+04 -1.10114E+04  1.58327E+04  3.64922E+03
  6.57185E+03  1.12194E+04 -7.16345E+03  1.07766E+04 -1.35304E+04  2.47285E+03 -1.03926E+04 -8.24054E+03
 -1.30314E+02 -1.26408E+04  6.27318E+03 -9.52662E+03  8.08789E+03 -1.03044E+03  1.51725E+03  4.98969E+03
 -5.48494E+03  1.36879E+03 -3.86537E+03 -4.76413E+03  4.84283E+02 -1.04562E+04  7.84203E+03 -1.05043E+04
  1.25182E+04 -4.82470E+03  1.23461E+04  2.66251E+03  1.07130E+04  9.73115E+03  5.14315E+03  1.42946E+04
 -1.66170E+03  1.62018E+04 -9.68613E+03  1.05137E+04 -1.13495E+04  3.21752E+03 -8.65460E+03 -2.41714E+03
 -4.60691E+03 -3.03519E+03 -8.70192E+02  1.34522E+03 -1.96458E+03  1.98668E+03 -3.70088E+03  3.39378E+03
 -8.05586E+03 -6.07664E+02 -8.72073E+03 -7.20865E+03 -3.41878E+03 -1.18542E+04  3.95770E+03 -8.72624E+03
  7.29236E+03 -3.67099E+03  5.30262E+03  2.29847E+03  6.28880E+02  3.22905E+03 -3.53479E+03 -1.45929E+02
 -3.29284E+03 -5.45094E+03 -7.44078E+02 -7.52327E+03  4.32197E+03 -7.89224E+03  1.00379E+04 -4.17583E+03
  1.19178E+04  5.75741E+02  8.88113E+03  6.46469E+03  1.85050E+03  8.87314E+03 -5.46843E+03  8.42173E+03
 -6.86837E+03  2.96633E+03 -3.68814E+03 -1.33192E+03  1.24942E+03 -2.25340E+03  4.81699E+03 -1.02335E+03
  4.31639E+03  3.57834E+03  9.76191E+02  6.55350E+03 -4.42466E+03  6.75358E+03 -8.08497E+03  1.62177E+03
 -4.86085E+03 -3.89805E+03  1.21815E+02 -6.95443E+03  3.93818E+03 -3.62070E+03  3.35505E+03  9.11011E+02
  6.91969E+02  3.62345E+03 -4.26742E+03  4.77641E+03 -5.18783E+03  2.38396E+03 -4.71441E+03 -1.36927E+03
 -3.00427E+03 -6.20787E+03  1.45975E+03 -7.60922E+03  6.23467E+03 -4.68358E+03  6.40173E+03  7.69081E+02
  4.97260E+03  5.26310E+03  1.65533E+02  7.50549E+03 -5.06395E+03  4.26796E+03 -5.49400E+03 -6.77916E+02
 -6.03774E+03 -5.16843E+03 -1.20811E+03 -5.15148E+03  2.65277E+03 -4.62395E+03  3.21950E+03 -2.89252E+03
  2.96370E+03  4.06968E+02  4.21212E+01  1.52059E+03  4.70340E+02 -2.48822E+02  1.67404E+02 -1.89573E+03
  3.98619E+03 -8.67022E+02  5.69269E+03  4.16297E+02  5.74725E+03  3.42971E+03  5.43087E+03  7.55802E+03
 -1.52055E+03  8.71905E+03 -7.99092E+03  6.71275E+03 -1.01527E+04  9.78497E+02 -8.26807E+03 -2.57136E+03
 -4.30095E+03 -6.65893E+03 -5.76145E+02 -5.28107E+03  1.99647E+03 -2.42528E+03  1.77532E+03 -2.16214E+03
  1.45936E+03 -1.47057E+03  2.07963E+03 -2.55407E+03  3.50798E+03 -1.40290E+03  3.76420E+03  5.41639E+02
  4.97851E+03  1.23310E+03  1.31760E+03  3.59388E+03 -1.74867E+03  2.93521E+03 -4.49000E+03  2.55868E+03
 -5.37949E+03 -9.78260E+02 -2.21135E+03 -3.41653E+03  6.13317E+02 -5.52350E+03  3.51909E+03 -5.43329E+03
  5.21476E+03 -3.03079E+03  7.05757E+03  5.88007E+02  5.01610E+03  4.42113E+03  1.19230E+03  5.69889E+03
 -2.27786E+03  5.74058E+03 -3.43124E+03  2.18003E+03 -1.90685E+03 -1.36661E+03 -4.38434E+02 -6.77527E+02
 -5.33042E+02  3.00362E+02 -1.01344E+03  1.97121E+03 -2.62085E+03  1.18472E+03 -3.98938E+03 -5.18904E+02
 -1.66985E+03 -4.09418E+03  7.67149E+02 -4.94567E+03  3.10857E+03 -4.49875E+03  3.92059E+03 -9.91344E+02
  4.34390E+03  2.50874E+03  2.04089E+03  3.19430E+03 -1.07321E+03  4.54837E+03 -2.76608E+03  2.75851E+03
 -3.99227E+03  4.80547E+02 -3.58558E+03 -2.55682E+03 -2.52358E+02 -3.51849E+03  1.61199E+03 -2.60037E+03
  3.03786E+03 -1.17854E+03  1.88992E+03  5.74580E+02  5.70613E+02  1.98439E+03  9.34235E+02  5.10592E+02
  1.85129E+03  5.95010E+02  1.31783E+03  9.14317E+02  1.17897E+03  2.38855E+03  1.36764E+03  1.81940E+03
 -1.29835E+03  3.34187E+03 -2.49371E+03  3.94234E+03 -3.35740E+03  1.51949E+03 -4.35652E+03 -5.27792E+02
 -1.99447E+03 -3.92415E+03  9.67304E+02 -5.18477E+03  2.01129E+03 -2.68248E+03  3.26021E+03 -8.62526E+02
  2.54270E+03  1.76142E+03  6.07922E+02  2.25309E+03 -7.45179E+02  1.30022E+03 -1.52146E+03 -5.61445E+01
 -6.91532E+02 -1.78594E+03  1.14651E+03 -1.49279E+03  1.68983E+03 -9.90195E+02  1.59802E+03  1.62089E+02
  1.11385E+03  3.56111E+02  9.42598E+02 -8.73864E+01 -2.12684E+02  6.51844E+02  1.59164E+03 -1.09521E+02
 -2.81051E+02 -2.92414E+02  1.69396E+03  8.72719E+02  3.38102E+02  2.52402E+03 -2.85485E+02  3.02672E+03
 -1.65291E+03  1.23525E+03 -2.33865E+03  3.59241E+02 -2.04810E+03 -9.45465E+02 -2.47478E+02 -9.45570E+02
  6.17076E+02 -1.47066E+03  7.97322E+02 -6.86173E+02  6.20717E+02  9.15189E+02 -6.46491E+02  1.25828E+03
 -1.25261E+03  8.47033E+02 -1.09992E+03 -1.45251E+03 -8.82712E+02 -2.43611E+03  2.70100E+02 -1.64060E+03
  4.53618E+02 -7.82168E+02  8.28405E+02  2.38567E+02  1.57661E+03  5.94406E+01  4.17328E+02  1.27849E+03
 -3.15859E+02  3.30348E+02 -1.01958E+03 -6.50554E+02  6.75816E+02 -8.51605E+02  1.59472E+03 -8.47921E+02
  1.43465E+03  4.37526E+01  2.85687E+03  9.91728E+02  1.18949E+03  1.78071E+03 -5.16172E+02  2.12703E+03
 -1.71815E+03  1.61884E+02 -1.72032E+03 -3.74471E+01 -7.72416E+02 -1.57390E+03  3.23701E+02 -7.32098E+02
  1.44490E+03 -8.19436E+02  9.28340E+02  6.75440E+02  4.20311E+02  1.55352E+03  2.62098E+02  1.29119E+03
 -5.81982E+02  9.82447E+02 -5.94743E+02  2.20927E+02 -2.55711E+02  4.23315E+02 -1.07477E+03  6.51680E+02
 -4.52741E+02  1.45339E+03 -1.96223E+03  4.57835E+02 -1.85667E+03  2.24490E+02 -2.31156E+03 -9.74875E+02
 -1.11934E+03 -2.38584E+03  6.05592E+02 -3.06094E+03  1.22605E+03 -2.42479E+03  3.06146E+03 -1.23378E+03
  2.61790E+03 -1.09673E+02  1.22616E+03  1.50815E+03 -3.73238E+02  1.76586E+03 -8.79152E+02  1.28599E+03
 -1.19454E+03  7.89496E+02 -4.54908E+02  7.41175E+01 -3.49078E+02  4.31627E+02 -4.96073E+02  1.18005E+02
 -1.24710E+03 -9.68193E+01 -1.02895E+03  2.10202E+02  1.27518E+02 -5.78308E+02 -3.62466E+02 -8.90848E+02
  1.39035E+03 -5.88578E+02  3.66513E+02  2.62516E+02  1.03291E+03  1.17203E+03 -1.32387E+02  1.76767E+03
 -1.06924E+03  2.22476E+03 -2.00211E+03  1.33992E+03 -1.89892E+03 -8.69611E+00 -1.38357E+03 -1.52599E+03
 -9.30415E+02 -1.54368E+03  2.59675E+02 -1.42512E+03  8.32024E+02 -5.43868E+02  7.50284E+02  1.53996E+02
  4.18920E+02  4.70597E+02  2.50144E+02  1.52555E+02 -3.81757E+02 -1.90385E+02 -1.95639E+02 -2.99037E+02
  5.49593E+02  5.09026E+02  3.33425E+02  5.80575E+02  7.55681E+01  5.98491E+02  5.73667E+02  2.30934E+02
 -3.66392E+02  4.55692E+02 -5.39140E+02  6.14538E+01 -1.06438E+03 -4.57650E+02 -1.74347E+02 -1.04993E+03
  6.01360E+02 -6.45984E+02  6.76205E+02 -6.49366E+01  1.05239E+03 -4.66027E+02  6.49810E+02  8.74109E+02
  2.93007E+02  4.81727E+02 -2.00058E+02  7.36548E+02 -7.36956E+02  4.60109E+02 -5.75791E+02  2.82738E+02
 -2.89249E+02 -2.72679E+02 -2.30899E+02  2.17324E+02 -5.08399E+02  1.36164E+02 -8.41073E+02 -2.98673E+02
 -8.95181E+02  9.75742E+01 -4.14622E+02 -1.04429E+03  8.51392E+02 -1.78691E+03  7.33352E+02 -4.14738E+02
  6.55823E+02  2.25630E+02 -5.61945E+01  3.52226E+02 -1.25652E+02  7.87321E+02 -4.85450E+02  6.82824E+02
