 $NMID ID='MM_0lb_SNR800_18hz_g55_92.RAW', FMTDAT='(8E13.5)'
 TRAMP=1., VOLUME=1. $END
  3.09971E+05  4.48826E+02  3.37459E+05  2.50578E+05  8.46116E+04  3.37626E+05 -1.32658E+05  2.50492E+05
 -1.90229E+05  8.26975E+04 -1.11398E+05 -3.26352E+04  1.50506E+03 -5.02213E+04  5.37318E+04 -1.42842E+02
  3.51632E+04  5.30408E+04 -1.67114E+04  7.53109E+04 -6.06349E+04  6.32517E+04 -8.33718E+04  3.17287E+04
 -8.02889E+04 -1.11543E+04 -5.66421E+04 -5.09404E+04 -1.51240E+04 -6.88893E+04  2.70234E+04 -4.54896E+04
  3.95419E+04  3.92157E+03  1.58152E+04  4.74615E+04 -3.41867E+04  4.67198E+04 -6.60990E+04 -3.94177E+02
 -5.24992E+04 -5.61152E+04 -6.33582E+03 -7.63323E+04  3.34221E+04 -5.38800E+04  4.71498E+04 -1.67428E+04
  4.25442E+04  1.08764E+04  3.12139E+04  2.47134E+04  1.58757E+04  2.87785E+04 -4.96174E+03  2.70787E+04
 -2.17430E+04  1.25839E+04 -1.89576E+04 -4.71239E+03  4.96944E+03 -7.43935E+03  2.17676E+04  1.15234E+04
  7.34904E+03  3.42664E+04 -3.14529E+04  3.45163E+04 -6.19482E+04  2.35981E+03 -5.61544E+04 -4.18363E+04
 -1.26537E+04 -6.19016E+04  3.89371E+04 -4.42385E+04  5.67110E+04 -2.38354E+03  3.27052E+04  3.13344E+04
 -6.08138E+03  3.43513E+04 -2.93890E+04  1.42696E+04 -2.89635E+04 -4.87959E+03 -1.53137E+04 -1.03859E+04
 -7.87938E+03 -1.22605E+04 -8.64669E+02 -1.71415E+04  7.14150E+03 -2.25851E+04  1.52807E+04 -1.34992E+04
  1.19061E+04  4.66988E+03 -6.55304E+03  1.30133E+04 -1.98507E+04 -3.10097E+03 -8.21654E+03 -3.17190E+04
  2.15306E+04 -4.15052E+04  4.63261E+04 -1.90701E+04  4.31082E+04  1.88172E+04  1.48675E+04  4.29704E+04
 -1.52925E+04  3.19286E+04 -2.40645E+04  1.29602E+03 -9.01884E+03 -2.68453E+04  2.07348E+04 -3.22347E+04
  3.90908E+04 -7.99900E+03  3.29799E+04  2.31889E+04  1.64387E+04  4.42286E+04 -7.87011E+03  4.73561E+04
 -2.97169E+04  3.14380E+04 -3.91863E+04  8.66001E+03 -3.98397E+04 -1.54383E+04 -2.21575E+04 -3.55331E+04
  6.90975E+03 -3.55434E+04  3.01124E+04 -1.34872E+04  2.79212E+04  1.09427E+04  3.34925E+03  1.81495E+04
 -1.32055E+04  7.49011E+03 -9.97576E+03 -7.52070E+03  5.94626E+03 -1.02777E+04  1.76136E+04  6.30612E+03
  1.28146E+04  2.15589E+04 -6.38784E+03  2.42462E+04 -2.20210E+04  1.00952E+04 -2.62342E+04 -5.81289E+03
 -1.82500E+04 -1.66907E+04 -6.50239E+03 -1.82423E+04  3.80959E+03 -1.64483E+04  1.37795E+04 -1.58163E+04
  2.32249E+04 -1.18882E+04  2.96625E+04  1.69844E+03  2.22712E+04  1.74674E+04  3.99948E+03  3.37707E+04
 -1.66199E+04  2.86640E+04 -2.67649E+04  9.79538E+03 -2.04692E+04 -1.03809E+04 -4.25648E+03 -1.39991E+04
  2.28860E+03 -3.72275E+03 -3.51062E+03  5.89047E+03 -1.40489E+04  5.09107E+03 -1.39395E+04 -5.46705E+03
 -9.47547E+03 -1.67391E+04  4.88592E+03 -2.05474E+04  1.34193E+04 -1.49455E+04  1.56627E+04 -9.78352E+02
  9.86379E+03  1.16321E+04 -1.13648E+03  1.68577E+04 -1.11308E+04  9.50471E+03 -1.63867E+04 -3.60445E+03
 -1.22753E+04 -1.54125E+04 -1.29370E+03 -2.02599E+04  9.05505E+03 -1.63248E+04  1.70660E+04 -7.89349E+03
  1.55796E+04  4.37177E+02  1.11764E+04  3.78193E+03  5.39151E+03  3.78497E+02  8.35306E+03 -1.35693E+03
  1.49545E+04  2.80457E+03  1.59057E+04  1.35206E+04  1.02461E+04  2.60745E+04 -3.12821E+03  2.90712E+04
 -1.69481E+04  2.22369E+04 -2.64907E+04  1.10999E+04 -2.74910E+04 -1.88849E+03 -2.36819E+04 -1.57397E+04
 -1.06072E+04 -2.23114E+04  7.53376E+03 -2.07002E+04  1.81143E+04 -1.13206E+04  1.69064E+04  4.07956E+03
  6.66672E+03  1.18575E+04 -7.65135E+03  1.09629E+04 -1.42710E+04  2.85323E+03 -1.09584E+04 -8.52989E+03
 -2.22245E+02 -1.33051E+04  6.78651E+03 -1.01623E+04  8.32091E+03 -1.32501E+03  1.63679E+03  5.34519E+03
 -5.78483E+03  1.62301E+03 -4.48520E+03 -4.80135E+03  4.68192E+02 -1.08991E+04  8.24031E+03 -1.13107E+04
  1.35698E+04 -5.48711E+03  1.35161E+04  2.72646E+03  1.17403E+04  1.04320E+04  5.71639E+03  1.59754E+04
 -1.91912E+03  1.75160E+04 -1.08618E+04  1.07453E+04 -1.23191E+04  3.21412E+03 -9.30056E+03 -2.50295E+03
 -4.63536E+03 -3.49474E+03 -7.82695E+02  1.45331E+03 -2.33381E+03  2.10700E+03 -4.08383E+03  3.75605E+03
 -8.58536E+03 -9.08882E+02 -9.35490E+03 -7.56170E+03 -3.81846E+03 -1.25054E+04  3.85483E+03 -9.14188E+03
  7.73811E+03 -4.13164E+03  5.74006E+03  2.33289E+03  7.46183E+02  3.49774E+03 -3.95288E+03  1.03707E+02
 -3.62842E+03 -5.54106E+03 -7.95165E+02 -7.98859E+03  4.30008E+03 -8.72024E+03  1.08236E+04 -4.39452E+03
  1.27115E+04  8.82547E+02  9.35599E+03  6.66640E+03  1.97597E+03  9.71981E+03 -5.69897E+03  8.84874E+03
 -6.99904E+03  3.02379E+03 -4.14298E+03 -1.34832E+03  1.47787E+03 -2.09724E+03  5.09277E+03 -8.23668E+02
  4.21030E+03  3.64724E+03  9.95937E+02  7.10833E+03 -4.73018E+03  7.07512E+03 -8.42618E+03  1.61271E+03
 -5.53034E+03 -4.21293E+03  5.48757E+02 -7.23246E+03  4.20484E+03 -3.36362E+03  4.16781E+03  1.28081E+03
  7.48893E+02  3.94270E+03 -4.67687E+03  5.17736E+03 -5.46745E+03  2.47253E+03 -5.08413E+03 -1.61184E+03
 -2.98195E+03 -6.79337E+03  1.57361E+03 -7.76989E+03  7.04376E+03 -5.05111E+03  7.12072E+03  1.12947E+03
  5.00856E+03  5.69016E+03 -1.47100E+02  7.77965E+03 -5.45119E+03  4.54169E+03 -5.78420E+03 -6.28172E+02
 -6.16686E+03 -5.61639E+03 -1.21157E+03 -5.74915E+03  2.75470E+03 -4.90683E+03  3.20466E+03 -3.02244E+03
  3.25195E+03  4.12998E+02 -1.43636E+02  1.26476E+03  5.84184E+02 -5.13708E+02  2.93772E+02 -2.45194E+03
  4.33016E+03 -9.47439E+02  5.92097E+03  5.80537E+02  6.16265E+03  3.60008E+03  5.74969E+03  8.00674E+03
 -1.58660E+03  9.44919E+03 -8.61391E+03  7.30937E+03 -1.07082E+04  1.07298E+03 -8.41161E+03 -2.93439E+03
 -4.58388E+03 -7.11166E+03 -2.83823E+02 -6.11708E+03  2.30243E+03 -2.71407E+03  1.82902E+03 -2.31663E+03
  1.61216E+03 -1.56981E+03  2.16449E+03 -2.39471E+03  3.79062E+03 -1.61342E+03  3.55515E+03  4.16678E+02
  5.02960E+03  1.69334E+03  1.42914E+03  3.76555E+03 -1.58985E+03  3.20643E+03 -4.82647E+03  2.80924E+03
 -5.44687E+03 -9.32632E+02 -2.51373E+03 -3.76793E+03  5.72710E+01 -5.71395E+03  3.70448E+03 -5.87650E+03
  5.63390E+03 -3.56886E+03  7.71725E+03  2.37056E+02  5.34543E+03  4.54203E+03  1.09061E+03  6.53544E+03
 -2.16506E+03  6.27453E+03 -3.57662E+03  2.05435E+03 -2.20583E+03 -9.92583E+02 -4.08494E+02 -8.70425E+02
 -4.03139E+02  7.95629E+01 -1.09057E+03  2.00330E+03 -2.67642E+03  1.08585E+03 -4.21690E+03 -2.56377E+02
 -1.92105E+03 -4.64137E+03  7.99436E+02 -5.16649E+03  3.44391E+03 -4.77649E+03  4.03712E+03 -1.02772E+03
  4.52248E+03  2.32217E+03  1.92311E+03  3.58275E+03 -9.94961E+02  5.00701E+03 -2.92132E+03  3.03505E+03
 -4.15368E+03  7.04368E+02 -3.51288E+03 -2.71459E+03 -2.23977E+02 -3.79656E+03  1.73484E+03 -2.76547E+03
  3.08366E+03 -1.64056E+03  1.91350E+03  4.62872E+02  4.27273E+02  1.51480E+03  8.39830E+02  7.99790E+02
  1.67998E+03  4.17042E+02  1.26762E+03  1.00454E+03  1.33754E+03  2.51842E+03  1.55208E+03  1.94291E+03
 -1.41512E+03  3.12946E+03 -2.78020E+03  4.37219E+03 -3.31299E+03  1.37549E+03 -4.59232E+03 -1.01704E+03
 -1.97347E+03 -4.18917E+03  6.97338E+02 -5.42666E+03  2.29006E+03 -2.87279E+03  3.68264E+03 -1.13420E+03
  2.49097E+03  2.11764E+03  5.97646E+02  2.44319E+03 -9.27841E+02  1.13217E+03 -1.24588E+03  1.86260E+02
 -6.31089E+02 -1.38787E+03  1.39473E+03 -1.71931E+03  1.33877E+03 -1.06742E+03  1.58403E+03  2.99305E+02
  9.45194E+02  5.78417E+02  7.04745E+02 -3.33794E+02 -4.23750E+02  6.70971E+02  1.85074E+03 -3.57256E+02
 -1.98538E+01 -3.52568E+02  2.14845E+03  5.46079E+02  3.48777E+02  2.54408E+03 -5.65993E+02  2.98181E+03
 -1.89178E+03  1.40364E+03 -2.07019E+03  2.08554E+02 -2.23904E+03 -9.26544E+02 -1.21105E+02 -1.07261E+03
  4.55197E+02 -1.51972E+03  1.13741E+03 -8.75615E+02  5.39534E+02  1.38077E+03 -8.69148E+02  1.39312E+03
 -1.51875E+03  7.96502E+02 -1.54633E+03 -1.39732E+03 -9.40098E+02 -2.24124E+03  6.65243E+00 -1.61464E+03
  6.31802E+02 -4.83212E+02  6.36539E+02  4.34946E+02  1.60426E+03 -8.33111E+01  5.75646E+02  1.45817E+03
 -3.93460E+02 -1.16263E+02 -9.89082E+02 -2.55757E+02  7.46555E+02 -8.86734E+02  1.71654E+03 -8.43862E+02
  1.39439E+03  1.37830E+02  2.83062E+03  9.24883E+02  9.28390E+02  1.75859E+03 -1.25424E+02  1.75148E+03
 -1.71038E+03  3.76517E+02 -1.86404E+03 -1.63441E+02 -7.93789E+02 -1.52222E+03  5.79785E+02 -4.93632E+02
  1.62870E+03 -8.62777E+02  7.22752E+02  8.85249E+02  4.20121E+02  1.56679E+03  3.61968E+02  8.91714E+02
 -6.12229E+02  1.10488E+03 -4.20566E+02  2.79927E+02 -1.30566E+02  3.82279E+02 -4.94805E+02  7.11215E+02
 -6.68855E+02  1.22104E+03 -1.82246E+03  7.10553E+02 -1.74370E+03  2.62805E+02 -2.37327E+03 -1.01154E+03
 -8.59986E+02 -2.11397E+03  5.12901E+02 -3.04129E+03  1.02670E+03 -2.18529E+03  2.94928E+03 -1.06192E+03
  2.77005E+03 -3.61289E+02  1.25379E+03  1.76695E+03 -6.52121E+02  1.50784E+03 -5.57340E+02  1.76384E+03
 -1.00300E+03  8.51711E+02 -9.10499E+02 -3.28585E+02 -4.94111E+02  1.13264E+02 -6.99834E+02 -4.40139E+00
 -8.89200E+02  9.23228E+01 -7.68879E+02 -8.34063E+01  3.46976E+02 -7.17021E+02 -5.23446E+02 -7.48405E+02
  1.26354E+03 -6.56150E+02  5.45569E+02  3.82387E+02  1.06280E+03  8.78751E+02 -2.90524E+02  1.36842E+03
 -8.14756E+02  2.57125E+03 -1.74603E+03  1.20891E+03 -1.63249E+03 -1.78259E+02 -1.10363E+03 -1.20391E+03
 -7.35627E+02 -1.28432E+03  1.35069E+02 -1.32111E+03  7.82698E+02 -4.65099E+02  6.39044E+02  4.30887E+02
  5.69655E+02  2.31635E+02 -2.04245E+02  4.27328E+02 -5.36614E+02  6.51110E+01 -1.51937E+02 -6.60689E+01
  5.47192E+02  4.36593E+02  2.08866E+02  3.39415E+02  8.96407E+01  5.28042E+02  5.03907E+02  4.61991E+02
 -6.96651E+02  7.37596E+02 -5.51973E+02  3.47198E+02 -9.13764E+02 -5.02047E+02 -1.84355E+02 -1.14992E+03
  8.01517E+02 -6.39977E+02  4.13639E+02 -2.92852E+02  1.09057E+03 -6.76081E+02  5.45488E+02  1.01448E+03
  3.86920E+02  7.40449E+02 -3.98465E+02  7.29156E+02 -7.45707E+02  6.11055E+02 -5.18294E+02  4.18162E+01
 -1.69833E+02 -1.45431E+01 -6.19570E+02  1.37853E+02 -5.02431E+02  3.31953E+02 -5.71197E+02 -3.98781E+02
 -1.05308E+03  2.00083E+02 -3.41209E+02 -7.80226E+02  6.23961E+02 -1.53347E+03  7.56988E+02 -4.49160E+02
  8.93579E+02  1.28636E+02 -4.39652E+02  1.96029E+02 -3.24773E+02  7.68044E+02 -2.66288E+02  6.38631E+02
