 $NMID ID='MM_0lb_SNR800_11hz_g40_11.RAW', FMTDAT='(8E13.5)'
 TRAMP=1., VOLUME=1. $END
  3.09966E+05  1.90094E+02  3.37591E+05  2.50668E+05  8.45465E+04  3.38109E+05 -1.32257E+05  2.51381E+05
 -1.90559E+05  8.33199E+04 -1.12103E+05 -3.25746E+04  7.67285E+02 -5.03537E+04  5.38211E+04 -4.90622E+02
  3.58905E+04  5.30331E+04 -1.69554E+04  7.58576E+04 -6.11520E+04  6.40887E+04 -8.48320E+04  3.22726E+04
 -8.13621E+04 -1.14942E+04 -5.77677E+04 -5.15918E+04 -1.50447E+04 -7.00078E+04  2.78024E+04 -4.61456E+04
  4.03544E+04  3.86064E+03  1.60688E+04  4.82715E+04 -3.46337E+04  4.78270E+04 -6.69368E+04  1.44983E+02
 -5.40302E+04 -5.72851E+04 -6.88449E+03 -7.77573E+04  3.44129E+04 -5.57874E+04  4.86990E+04 -1.77123E+04
  4.37058E+04  1.14759E+04  3.22481E+04  2.59147E+04  1.55768E+04  2.98058E+04 -5.41204E+03  2.74402E+04
 -2.21336E+04  1.22396E+04 -1.83026E+04 -5.38816E+03  6.57527E+03 -6.99103E+03  2.31983E+04  1.30817E+04
  7.03077E+03  3.56521E+04 -3.27040E+04  3.61132E+04 -6.41812E+04  2.24916E+03 -5.77883E+04 -4.35065E+04
 -1.22618E+04 -6.40245E+04  4.04247E+04 -4.55086E+04  5.90967E+04 -2.59112E+03  3.48269E+04  3.29647E+04
 -5.92835E+03  3.79022E+04 -3.03928E+04  1.68123E+04 -3.15038E+04 -4.19385E+03 -1.76617E+04 -1.11794E+04
 -9.04496E+03 -1.38589E+04 -5.42226E+02 -1.86069E+04  8.10549E+03 -2.31763E+04  1.59441E+04 -1.30019E+04
  1.11507E+04  5.64488E+03 -9.16182E+03  1.28550E+04 -2.21766E+04 -5.48510E+03 -8.49755E+03 -3.50625E+04
  2.36628E+04 -4.46118E+04  4.93385E+04 -2.03446E+04  4.67000E+04  2.03741E+04  1.64022E+04  4.56451E+04
 -1.62111E+04  3.44334E+04 -2.63477E+04  2.36669E+03 -1.05872E+04 -2.84147E+04  2.13096E+04 -3.55094E+04
  4.22164E+04 -9.54834E+03  3.73336E+04  2.39846E+04  1.94696E+04  4.83878E+04 -8.21164E+03  5.21765E+04
 -3.31174E+04  3.52433E+04 -4.42375E+04  1.04211E+04 -4.49121E+04 -1.72499E+04 -2.45317E+04 -3.93540E+04
  7.75678E+03 -3.94200E+04  3.28532E+04 -1.58465E+04  3.01864E+04  1.07991E+04  4.52830E+03  1.99267E+04
 -1.36521E+04  8.93186E+03 -1.07483E+04 -7.97014E+03  5.63815E+03 -1.12255E+04  1.83708E+04  6.23688E+03
  1.40351E+04  2.24474E+04 -5.90577E+03  2.55082E+04 -2.27072E+04  1.28284E+04 -2.91289E+04 -4.19216E+03
 -2.28406E+04 -1.77847E+04 -9.78287E+03 -2.23117E+04  4.35893E+03 -2.23779E+04  1.75956E+04 -2.02761E+04
  2.84316E+04 -1.32375E+04  3.48261E+04  3.50129E+03  2.50477E+04  2.15779E+04  4.60734E+03  3.79037E+04
 -1.82101E+04  3.17939E+04 -2.90598E+04  1.09350E+04 -2.14754E+04 -1.01237E+04 -4.73610E+03 -1.33228E+04
  1.45736E+03 -2.45572E+03 -5.83781E+03  7.10106E+03 -1.78340E+04  5.13176E+03 -1.76790E+04 -7.92325E+03
 -1.10458E+04 -2.08665E+04  5.39947E+03 -2.49879E+04  1.66166E+04 -1.78599E+04  2.01735E+04 -1.63377E+03
  1.27639E+04  1.45224E+04 -1.39992E+03  2.03636E+04 -1.45362E+04  1.18899E+04 -2.09882E+04 -4.49934E+03
 -1.53346E+04 -1.89513E+04 -1.83399E+03 -2.50443E+04  1.12050E+04 -2.07493E+04  2.08852E+04 -1.05987E+04
  1.93329E+04 -2.97316E+02  1.42101E+04  4.93572E+03  7.64712E+03  1.04175E+03  1.08574E+04 -1.76100E+03
  1.95229E+04  2.56066E+03  2.15453E+04  1.68230E+04  1.45910E+04  3.34221E+04 -2.54223E+03  3.84884E+04
 -2.18595E+04  3.14560E+04 -3.57529E+04  1.61055E+04 -3.79591E+04 -2.54950E+03 -3.10154E+04 -2.20331E+04
 -1.29824E+04 -3.17732E+04  1.11531E+04 -2.79180E+04  2.41546E+04 -1.37997E+04  2.11995E+04  6.67304E+03
  7.37518E+03  1.58836E+04 -1.02073E+04  1.35490E+04 -1.77708E+04  2.70647E+03 -1.36465E+04 -1.12335E+04
 -1.00295E+02 -1.70081E+04  8.97893E+03 -1.21648E+04  1.15047E+04 -1.51720E+03  2.53911E+03  7.38846E+03
 -7.74208E+03  3.23864E+03 -7.21851E+03 -6.07244E+03 -9.94268E+02 -1.53651E+04  1.04910E+04 -1.65487E+04
  1.91265E+04 -9.22860E+03  2.15367E+04  3.20799E+03  1.86904E+04  1.57275E+04  8.72818E+03  2.41865E+04
 -3.99924E+03  2.60647E+04 -1.67608E+04  1.62100E+04 -1.83391E+04  3.30932E+03 -1.26837E+04 -4.41584E+03
 -5.59049E+03 -6.09472E+03 -5.96175E+02  8.63671E+02 -2.44975E+03  3.08957E+03 -5.93228E+03  4.59678E+03
 -1.22171E+04 -9.21880E+02 -1.24339E+04 -1.02300E+04 -5.59071E+03 -1.69281E+04  5.59908E+03 -1.31127E+04
  1.11938E+04 -5.62894E+03  7.81363E+03  3.05525E+03 -1.70713E+01  5.36617E+03 -6.35560E+03  3.27789E+01
 -6.00131E+03 -8.30024E+03 -1.20208E+03 -1.27249E+04  7.14142E+03 -1.29998E+04  1.63391E+04 -7.04784E+03
  1.92210E+04  1.64275E+03  1.41911E+04  1.12681E+04  2.50148E+03  1.54114E+04 -8.22242E+03  1.31319E+04
 -1.07639E+04  3.97975E+03 -5.54345E+03 -2.73808E+03  1.83740E+03 -3.75657E+03  7.10135E+03 -1.09018E+03
  6.01089E+03  5.79538E+03  1.27989E+03  1.03708E+04 -7.17533E+03  1.00476E+04 -1.29757E+04  2.30152E+03
 -8.49604E+03 -6.52062E+03  5.10291E+01 -1.11742E+04  6.88067E+03 -5.92665E+03  7.10977E+03  2.59568E+03
  1.76405E+03  7.48705E+03 -6.96043E+03  8.99989E+03 -1.06122E+04  4.34376E+03 -1.03795E+04 -3.92041E+03
 -6.15950E+03 -1.23090E+04  3.12413E+03 -1.42328E+04  1.22220E+04 -8.86379E+03  1.29538E+04  2.33093E+03
  8.10258E+03  1.02278E+04 -1.16461E+03  1.27717E+04 -8.93901E+03  6.98960E+03 -1.01659E+04 -8.76704E+02
 -9.06853E+03 -8.65708E+03 -1.82509E+03 -9.55073E+03  5.03414E+03 -7.81811E+03  6.05755E+03 -3.48060E+03
  4.31215E+03  1.28178E+03 -8.12595E+02  1.86220E+03 -1.57079E+02 -2.18165E+03  1.60676E+03 -5.55429E+03
  8.64687E+03 -3.28172E+03  1.21919E+04  1.14166E+03  1.22366E+04  8.45010E+03  8.56811E+03  1.61691E+04
 -3.58201E+03  1.80656E+04 -1.56700E+04  1.39901E+04 -2.01969E+04  2.56930E+03 -1.63108E+04 -6.91057E+03
 -8.36131E+03 -1.31626E+04 -4.47428E+02 -1.12367E+04  3.88563E+03 -6.57442E+03  3.92248E+03 -4.04340E+03
  2.73972E+03 -2.32524E+03  3.12499E+03 -3.21475E+03  4.73798E+03 -2.79727E+03  6.20878E+03 -8.21986E+02
  8.24269E+03  1.71229E+03  4.10285E+03  7.23236E+03 -2.21431E+03  8.26736E+03 -9.12444E+03  6.19106E+03
 -1.11960E+04 -1.43621E+03 -7.15436E+03 -8.06062E+03 -4.98353E+02 -1.17728E+04  6.78661E+03 -1.19732E+04
  1.25732E+04 -6.80591E+03  1.49729E+04  1.72399E+03  1.02568E+04  1.01652E+04  1.44041E+03  1.37948E+04
 -5.48400E+03  1.12342E+04 -7.88258E+03  3.93398E+03 -5.35719E+03 -1.57752E+03 -2.27200E+03 -1.51859E+03
 -1.11015E+03 -4.81508E+01 -1.75443E+03  2.50446E+03 -4.94150E+03  2.00278E+03 -7.77619E+03 -8.17019E+02
 -5.32161E+03 -8.05430E+03  2.95462E+02 -1.08049E+04  7.06024E+03 -1.00761E+04  1.04744E+04 -3.63987E+03
  1.07544E+04  5.22171E+03  4.75190E+03  9.73457E+03 -2.10822E+03  1.11295E+04 -7.88121E+03  6.98870E+03
 -1.03804E+04  7.18846E+02 -8.12181E+03 -6.27718E+03 -7.09435E+02 -8.91407E+03  4.71205E+03 -6.88871E+03
  6.46345E+03 -2.39908E+03  4.74205E+03  1.74792E+03  1.57359E+03  3.11242E+03  1.33047E+03  1.55837E+03
  2.33217E+03  7.02353E+02  2.68298E+03  1.55976E+03  3.82649E+03  4.27808E+03  2.79011E+03  5.65680E+03
 -2.41474E+03  8.67876E+03 -7.00227E+03  8.86467E+03 -1.09470E+04  2.23756E+03 -1.15140E+04 -4.06282E+03
 -5.28145E+03 -1.07489E+04  1.51252E+03 -1.22102E+04  6.47621E+03 -7.40870E+03  9.04697E+03 -2.32172E+03
  7.11616E+03  4.13507E+03  1.18172E+03  6.29123E+03 -3.07233E+03  3.61919E+03 -4.46375E+03 -4.84375E+02
 -2.38459E+03 -4.23502E+03  2.77426E+03 -4.56993E+03  4.42132E+03 -2.29581E+03  4.26727E+03  8.48582E+02
  2.57944E+03  1.66950E+03  1.05350E+03  1.53739E+03 -8.91145E+02  1.48102E+03  1.76255E+03 -3.20654E+02
  1.77681E+03 -4.92167E+02  4.30804E+03  1.90455E+03  2.20341E+03  6.09482E+03 -1.25329E+03  7.51370E+03
 -5.10006E+03  4.74626E+03 -6.75610E+03  1.40024E+03 -6.20864E+03 -2.44052E+03 -2.12769E+03 -3.80426E+03
  1.16607E+03 -4.26259E+03  2.65767E+03 -2.19295E+03  2.31505E+03  2.35751E+03 -8.60648E+02  3.38401E+03
 -4.19351E+03  2.22564E+03 -4.66818E+03 -2.70612E+03 -2.64283E+03 -6.12910E+03  9.00242E+02 -5.98876E+03
  3.32760E+03 -3.35002E+03  4.09197E+03 -1.67810E+02  3.66962E+03  1.30237E+03  4.99384E+02  3.46499E+03
 -1.55438E+03  8.15108E+02 -2.75207E+03 -2.13536E+03  1.27160E+03 -4.23035E+03  5.47468E+03 -3.50294E+03
  6.21098E+03  1.47330E+02  6.57005E+03  4.64142E+03  2.35670E+03  6.61870E+03 -2.34045E+03  6.30347E+03
 -5.60580E+03  2.45442E+03 -5.74450E+03 -7.59092E+02 -3.09699E+03 -4.21720E+03  9.42466E+02 -4.18476E+03
  4.50580E+03 -2.12819E+03  3.76922E+03  1.80341E+03  1.24299E+03  3.45885E+03 -4.93136E+02  3.62173E+03
 -1.71643E+03  2.40838E+03 -1.50407E+03  9.12436E+02 -7.05614E+02  1.03336E+03 -1.53659E+03  1.53476E+03
 -1.75274E+03  2.61896E+03 -4.61577E+03  2.67671E+03 -6.76047E+03  1.61574E+02 -7.80307E+03 -4.66182E+03
 -4.17647E+03 -9.02286E+03  1.59749E+03 -1.05152E+04  6.15316E+03 -8.14769E+03  9.83170E+03 -3.09864E+03
  9.03990E+03  1.42667E+03  5.42488E+03  6.13137E+03  2.09283E+02  6.75082E+03 -2.61273E+03  5.20411E+03
 -3.94615E+03  1.98361E+03 -2.27705E+03 -8.40203E+02 -1.06104E+03 -5.13922E+02 -8.33751E+02 -2.06101E+01
 -1.47033E+03 -1.48144E+02 -1.60106E+03 -3.83394E+02 -2.57721E+02 -1.80738E+03  1.21355E+02 -2.89969E+03
  3.03214E+03 -2.22642E+03  4.11883E+03 -1.02365E+02  4.85780E+03  3.22057E+03  9.88385E+02  6.75857E+03
 -3.52676E+03  8.01337E+03 -7.00284E+03  4.53793E+03 -8.23275E+03 -8.07927E+02 -6.33259E+03 -4.94812E+03
 -2.90308E+03 -6.82838E+03  1.64404E+03 -6.37872E+03  4.85546E+03 -3.45668E+03  4.08597E+03  1.14507E+02
  2.32007E+03  2.05542E+03 -2.40556E+02  1.90777E+03 -1.48353E+03 -6.50285E+01 -4.04516E+02 -1.54920E+03
  2.24245E+03 -1.00833E+03  2.38625E+03  1.02602E+03  1.59146E+03  2.78646E+03  9.79438E+01  3.17237E+03
 -2.94583E+03  2.98528E+03 -4.48239E+03  2.40179E+02 -4.09607E+03 -3.10361E+03 -5.70850E+02 -5.46767E+03
  2.79505E+03 -5.24858E+03  4.84818E+03 -1.25683E+03  5.08453E+03  1.05912E+03  2.87383E+03  4.06210E+03
  7.16501E+02  4.16443E+03 -1.71814E+03  3.55956E+03 -2.54096E+03  2.02908E+03 -2.29142E+03  2.44234E+02
 -1.17140E+03 -1.55107E+02 -1.70296E+03  6.91112E+02 -2.68930E+03  7.22631E+02 -3.46462E+03 -6.91165E+02
 -3.21182E+03 -2.03698E+03 -7.36775E+02 -4.57510E+03  2.05787E+03 -4.83522E+03  3.77536E+03 -2.36371E+03
  4.65174E+03  5.01868E+02  2.29072E+03  2.99482E+03 -4.99275E+02  4.63132E+03 -3.21567E+03  3.14105E+03
