 $NMID ID='MM_0lb_SNR800_15hz_g60_31.RAW', FMTDAT='(8E13.5)'
 TRAMP=1., VOLUME=1. $END
  3.09970E+05  3.27253E+02  3.37762E+05  2.50671E+05  8.46097E+04  3.37887E+05 -1.32572E+05  2.50879E+05
 -1.90463E+05  8.32115E+04 -1.12427E+05 -3.27063E+04  7.99566E+02 -5.02438E+04  5.34364E+04 -1.88673E+02
  3.53653E+04  5.27315E+04 -1.67212E+04  7.57567E+04 -6.11144E+04  6.38217E+04 -8.43858E+04  3.21415E+04
 -8.13514E+04 -1.14839E+04 -5.77005E+04 -5.17342E+04 -1.49908E+04 -6.99602E+04  2.74387E+04 -4.63607E+04
  4.03979E+04  3.53735E+03  1.62564E+04  4.80256E+04 -3.46708E+04  4.74012E+04 -6.70105E+04  5.97264E+01
 -5.35610E+04 -5.71137E+04 -6.53445E+03 -7.74604E+04  3.38780E+04 -5.55556E+04  4.86591E+04 -1.74236E+04
  4.40988E+04  1.09518E+04  3.16827E+04  2.56761E+04  1.58439E+04  2.96699E+04 -5.21888E+03  2.71214E+04
 -2.23090E+04  1.22197E+04 -1.85389E+04 -5.19042E+03  6.07965E+03 -7.43045E+03  2.23062E+04  1.27789E+04
  6.99975E+03  3.55224E+04 -3.26643E+04  3.57293E+04 -6.38990E+04  2.12139E+03 -5.76022E+04 -4.30539E+04
 -1.26915E+04 -6.37681E+04  4.01242E+04 -4.59481E+04  5.88716E+04 -2.19170E+03  3.47510E+04  3.29030E+04
 -5.95456E+03  3.67144E+04 -3.05789E+04  1.65414E+04 -3.08622E+04 -4.02708E+03 -1.73861E+04 -1.10887E+04
 -8.40882E+03 -1.37029E+04 -8.61581E+02 -1.84691E+04  7.62637E+03 -2.32670E+04  1.52968E+04 -1.30479E+04
  1.10670E+04  5.06765E+03 -8.69348E+03  1.30164E+04 -2.16090E+04 -4.59031E+03 -8.23832E+03 -3.43034E+04
  2.32944E+04 -4.35701E+04  4.86969E+04 -1.98820E+04  4.60121E+04  1.96248E+04  1.61625E+04  4.49889E+04
 -1.57741E+04  3.38250E+04 -2.59704E+04  1.92433E+03 -1.02038E+04 -2.80753E+04  2.12224E+04 -3.42732E+04
  4.17746E+04 -9.27937E+03  3.63102E+04  2.39418E+04  1.88911E+04  4.73364E+04 -7.71147E+03  5.12737E+04
 -3.23040E+04  3.47128E+04 -4.28415E+04  9.40698E+03 -4.32668E+04 -1.68783E+04 -2.40975E+04 -3.84584E+04
  7.57446E+03 -3.84339E+04  3.16490E+04 -1.52024E+04  2.94916E+04  1.09997E+04  4.42544E+03  1.96143E+04
 -1.32651E+04  8.66178E+03 -1.01826E+04 -7.46275E+03  5.67001E+03 -1.08396E+04  1.80909E+04  6.11862E+03
  1.36340E+04  2.20480E+04 -5.80119E+03  2.55172E+04 -2.23777E+04  1.16703E+04 -2.86415E+04 -4.54454E+03
 -2.12444E+04 -1.73400E+04 -8.76514E+03 -2.11939E+04  4.13875E+03 -2.05051E+04  1.64697E+04 -1.86613E+04
  2.68654E+04 -1.32284E+04  3.33116E+04  3.14065E+03  2.44285E+04  2.03364E+04  4.33394E+03  3.68117E+04
 -1.80302E+04  3.08617E+04 -2.83538E+04  1.09012E+04 -2.11156E+04 -1.02829E+04 -4.13298E+03 -1.31213E+04
  1.77461E+03 -2.76636E+03 -5.09303E+03  6.75230E+03 -1.63731E+04  5.21570E+03 -1.65497E+04 -7.29348E+03
 -1.04064E+04 -1.92517E+04  5.57395E+03 -2.33301E+04  1.60134E+04 -1.66192E+04  1.86621E+04 -1.62438E+03
  1.15316E+04  1.34700E+04 -1.33534E+03  1.95369E+04 -1.30568E+04  1.07951E+04 -1.90717E+04 -4.03746E+03
 -1.46153E+04 -1.72657E+04 -1.92145E+03 -2.33461E+04  1.07647E+04 -1.90070E+04  1.92976E+04 -9.08422E+03
  1.81265E+04  2.67360E+02  1.28700E+04  4.24776E+03  6.91346E+03  9.38948E+02  9.98352E+03 -1.65897E+03
  1.78377E+04  2.46947E+03  1.99948E+04  1.54426E+04  1.31360E+04  3.08595E+04 -3.00788E+03  3.46258E+04
 -2.05944E+04  2.82988E+04 -3.26920E+04  1.39261E+04 -3.40753E+04 -2.65222E+03 -2.83655E+04 -1.98618E+04
 -1.20061E+04 -2.82078E+04  9.62192E+03 -2.52672E+04  2.17612E+04 -1.29860E+04  1.95098E+04  5.72959E+03
  7.29280E+03  1.45832E+04 -8.95628E+03  1.27049E+04 -1.62561E+04  2.73831E+03 -1.24053E+04 -1.01095E+04
 -2.59864E+02 -1.54893E+04  8.25100E+03 -1.16255E+04  1.03714E+04 -1.30551E+03  1.97952E+03  6.91363E+03
 -7.08202E+03  2.69813E+03 -6.09908E+03 -5.71288E+03 -4.02372E+02 -1.37451E+04  9.70293E+03 -1.43614E+04
  1.71382E+04 -7.45199E+03  1.83917E+04  2.96867E+03  1.58137E+04  1.36024E+04  7.47895E+03  2.06092E+04
 -3.16843E+03  2.27341E+04 -1.44854E+04  1.43832E+04 -1.63651E+04  3.39080E+03 -1.13035E+04 -3.63378E+03
 -5.35874E+03 -4.91149E+03 -5.43019E+02  1.04901E+03 -2.66207E+03  2.77424E+03 -5.40200E+03  4.35108E+03
 -1.09451E+04 -4.55039E+02 -1.11967E+04 -9.10431E+03 -4.69886E+03 -1.49874E+04  4.53952E+03 -1.16783E+04
  9.46227E+03 -5.42698E+03  6.63428E+03  2.93359E+03  1.88908E+02  4.04007E+03 -5.25359E+03  2.14800E+02
 -5.17825E+03 -7.09591E+03 -9.02488E+02 -1.04833E+04  5.94960E+03 -1.11206E+04  1.40651E+04 -6.11013E+03
  1.63921E+04  1.39894E+03  1.21381E+04  9.79728E+03  2.42950E+03  1.29473E+04 -7.04860E+03  1.11405E+04
 -9.21549E+03  3.53005E+03 -4.54047E+03 -2.46016E+03  1.50572E+03 -2.92935E+03  6.05570E+03 -9.35520E+02
  5.27152E+03  4.77468E+03  1.20817E+03  8.72042E+03 -6.20462E+03  8.26716E+03 -1.09840E+04  2.25327E+03
 -7.18180E+03 -5.45737E+03  1.08857E+02 -9.50500E+03  5.85848E+03 -4.82330E+03  5.64779E+03  2.19641E+03
  1.20665E+03  5.66884E+03 -5.81222E+03  7.55531E+03 -8.22217E+03  3.45018E+03 -8.03228E+03 -2.41840E+03
 -4.85483E+03 -9.70957E+03  2.45153E+03 -1.14488E+04  9.49561E+03 -7.00940E+03  1.04321E+04  1.88800E+03
  6.76197E+03  8.09371E+03 -4.77393E+02  1.05423E+04 -7.54382E+03  5.89644E+03 -7.48999E+03 -7.13223E+02
 -7.76096E+03 -7.34088E+03 -1.54740E+03 -7.55792E+03  4.01319E+03 -6.01560E+03  4.72057E+03 -3.25252E+03
  3.83555E+03  8.62746E+02 -4.31259E+02  1.58999E+03 -1.14520E+02 -1.51205E+03  1.20849E+03 -3.80073E+03
  6.44895E+03 -2.17142E+03  9.16846E+03  1.01608E+03  9.00851E+03  5.90471E+03  7.06689E+03  1.22094E+04
 -2.67934E+03  1.41273E+04 -1.19009E+04  1.04534E+04 -1.56502E+04  1.91296E+03 -1.27295E+04 -4.96753E+03
 -6.46160E+03 -1.03560E+04 -1.40130E+02 -8.67936E+03  3.41778E+03 -4.17908E+03  2.99906E+03 -2.94903E+03
  2.08897E+03 -1.67893E+03  2.78391E+03 -2.98186E+03  4.77888E+03 -2.07197E+03  5.30312E+03 -1.74160E+02
  6.79105E+03  1.57329E+03  2.73747E+03  5.44988E+03 -2.00988E+03  5.87022E+03 -6.97926E+03  4.46867E+03
 -8.39006E+03 -7.48328E+02 -4.47911E+03 -5.67581E+03 -1.82029E+02 -8.15492E+03  5.47774E+03 -8.91987E+03
  8.67408E+03 -4.70801E+03  1.12172E+04  7.25985E+02  7.54917E+03  7.59605E+03  1.41908E+03  1.00995E+04
 -3.88178E+03  8.58485E+03 -5.52961E+03  3.00191E+03 -3.61335E+03 -9.79651E+02 -1.59461E+03 -1.05990E+03
 -8.60601E+02  1.12723E+02 -1.39386E+03  2.33730E+03 -3.85783E+03  1.34077E+03 -6.12251E+03 -7.23936E+02
 -3.29804E+03 -5.98017E+03  6.12588E+02 -7.76281E+03  4.95358E+03 -7.22502E+03  6.75012E+03 -1.89227E+03
  7.08727E+03  3.75277E+03  3.29552E+03  6.16147E+03 -1.29087E+03  7.71046E+03 -5.14473E+03  4.61989E+03
 -6.98834E+03  6.98527E+02 -5.41692E+03 -4.31105E+03 -2.35711E+02 -6.01678E+03  2.92487E+03 -4.56488E+03
  5.07128E+03 -1.72178E+03  3.20349E+03  1.03967E+03  9.44930E+02  2.82757E+03  8.76402E+02  9.54934E+02
  1.96785E+03  6.15195E+02  1.65124E+03  1.52679E+03  1.90625E+03  2.88933E+03  2.18702E+03  3.46370E+03
 -1.53860E+03  5.50652E+03 -4.99138E+03  6.21222E+03 -6.35523E+03  1.73953E+03 -7.71123E+03 -2.55952E+03
 -3.38824E+03 -6.83090E+03  1.21344E+03 -8.06363E+03  4.23862E+03 -4.77101E+03  5.72423E+03 -1.47613E+03
  4.38289E+03  2.86472E+03  8.37237E+02  4.21155E+03 -1.74420E+03  2.59806E+03 -2.22117E+03 -3.20458E+02
 -1.38648E+03 -2.88206E+03  1.68964E+03 -2.83989E+03  2.42016E+03 -1.59133E+03  2.71186E+03  7.15415E+02
  1.58539E+03  1.25835E+03  9.45407E+02  4.84896E+02 -1.52246E+02  1.06889E+03  1.57537E+03  4.91652E+01
  7.47834E+02 -2.76681E+02  2.97783E+03  8.65394E+02  1.45279E+03  3.97559E+03 -6.66938E+02  5.22683E+03
 -2.89601E+03  2.53239E+03 -3.68565E+03  1.02097E+03 -4.03458E+03 -1.46005E+03 -1.20082E+03 -2.10144E+03
  3.98392E+02 -2.20609E+03  1.83833E+03 -1.45362E+03  1.68225E+03  1.74157E+03 -1.00568E+03  2.30961E+03
 -2.98997E+03  1.09904E+03 -2.67382E+03 -1.73904E+03 -1.38049E+03 -3.49048E+03  2.06177E+02 -3.20853E+03
  1.61431E+03 -1.68627E+03  1.94188E+03 -5.14193E+00  2.34614E+03  3.65523E+02  6.24268E+02  1.95121E+03
 -1.07184E+03  2.29501E+02 -1.70082E+03 -1.06507E+03  7.38461E+02 -2.04110E+03  3.18058E+03 -1.88477E+03
  3.19415E+03  5.02565E+02  4.34937E+03  2.23243E+03  1.36917E+03  3.61252E+03 -1.09227E+03  3.72024E+03
 -2.85763E+03  1.23289E+03 -3.38646E+03 -5.51397E+02 -1.68171E+03 -2.55701E+03  6.06375E+02 -1.95233E+03
  2.31499E+03 -1.28606E+03  1.71772E+03  1.08939E+03  1.32124E+02  2.24522E+03 -1.52875E+02  2.06745E+03
 -1.17916E+03  1.78786E+03 -7.46360E+02  4.29229E+02 -1.56546E+02  6.32674E+02 -9.42656E+02  8.77780E+02
 -7.38605E+02  1.65736E+03 -2.82662E+03  1.15285E+03 -3.24673E+03  2.75064E+02 -4.16047E+03 -2.44638E+03
 -2.09087E+03 -4.51096E+03  1.17433E+03 -5.33630E+03  2.86700E+03 -4.64712E+03  5.35098E+03 -1.92140E+03
  4.60329E+03  5.30892E+02  2.63468E+03  3.35465E+03 -2.75184E+02  3.32237E+03 -1.50114E+03  2.25607E+03
 -1.74912E+03  1.24072E+03 -1.20096E+03 -6.33699E+02 -6.85418E+02  2.55260E+02 -5.69745E+02  1.81948E+01
 -1.20769E+03  8.72003E+01 -1.01640E+03  1.30673E+02 -9.29415E+01 -1.33565E+03 -4.02508E+02 -1.37431E+03
  1.94026E+03 -1.37831E+03  1.63702E+03  2.99892E+02  2.38451E+03  2.20260E+03 -8.13478E+01  3.55462E+03
 -2.02526E+03  4.27582E+03 -3.58110E+03  2.60344E+03 -4.05573E+03 -2.93842E+02 -2.63426E+03 -2.50604E+03
 -1.16863E+03 -3.20867E+03  5.09702E+02 -3.13283E+03  1.93914E+03 -1.43548E+03  1.92904E+03  1.61014E+02
  1.36603E+03  7.43934E+02  1.20241E+02  8.46942E+02 -7.09657E+02 -1.44033E+02 -9.69350E+01 -3.91642E+02
  1.19759E+03 -1.83953E+02  6.88169E+02  9.26545E+02  5.99112E+02  1.15590E+03  4.57899E+02  1.30607E+03
 -1.13881E+03  1.74095E+03 -1.78389E+03  1.38095E+02 -1.72172E+03 -1.42968E+03 -2.50576E+02 -2.84790E+03
  1.33742E+03 -2.06166E+03  1.98241E+03 -1.63466E+02  2.02773E+03 -2.31195E+02  1.22514E+03  1.74123E+03
  8.35166E+02  1.68801E+03 -5.15788E+02  1.25692E+03 -1.29742E+03  1.07958E+03 -9.58451E+02 -5.91122E+01
 -5.82531E+02  7.46812E+01 -8.25946E+02  1.70915E+02 -1.21407E+03  2.96517E+02 -1.47780E+03 -4.18657E+02
 -1.55550E+03 -4.86355E+02 -6.80637E+02 -2.10618E+03  1.40434E+03 -2.53648E+03  1.77990E+03 -6.07308E+02
  1.80366E+03  3.04564E+02  2.77993E+02  1.08703E+03 -3.52660E+02  1.84715E+03 -1.41845E+03  1.39285E+03
