 $NMID ID='MM_0lb_SNR800_7hz_g50_39.RAW', FMTDAT='(8E13.5)'
 TRAMP=1., VOLUME=1. $END
  3.09914E+05  5.22493E+02  3.38044E+05  2.51204E+05  8.48964E+04  3.38473E+05 -1.32477E+05  2.52044E+05
 -1.91088E+05  8.42533E+04 -1.12903E+05 -3.25673E+04  1.08119E+02 -5.06969E+04  5.38549E+04 -6.18114E+02
  3.57909E+04  5.28074E+04 -1.68396E+04  7.64545E+04 -6.16522E+04  6.48265E+04 -8.55765E+04  3.24334E+04
 -8.25082E+04 -1.15671E+04 -5.84823E+04 -5.35136E+04 -1.52376E+04 -7.13581E+04  2.85252E+04 -4.76617E+04
  4.15096E+04  3.57220E+03  1.63940E+04  4.88770E+04 -3.46820E+04  4.90972E+04 -6.85600E+04  9.00297E+01
 -5.56075E+04 -5.80190E+04 -7.85694E+03 -7.95575E+04  3.52264E+04 -5.75477E+04  5.07733E+04 -1.92552E+04
  4.60770E+04  1.09630E+04  3.31813E+04  2.69667E+04  1.61368E+04  3.09830E+04 -5.73354E+03  2.81505E+04
 -2.28332E+04  1.15538E+04 -1.83273E+04 -6.18982E+03  7.36857E+03 -7.54057E+03  2.45120E+04  1.46330E+04
  6.91093E+03  3.83704E+04 -3.43533E+04  3.79598E+04 -6.69430E+04  2.17720E+03 -5.95578E+04 -4.48967E+04
 -1.29786E+04 -6.72820E+04  4.20279E+04 -4.83197E+04  6.27690E+04 -3.02544E+03  3.75605E+04  3.55571E+04
 -5.46951E+03  4.08401E+04 -3.22890E+04  1.99476E+04 -3.46957E+04 -3.41307E+03 -2.00794E+04 -1.23740E+04
 -9.91005E+03 -1.59263E+04 -4.83136E+02 -2.03090E+04  8.84472E+03 -2.34432E+04  1.59499E+04 -1.16382E+04
  1.02665E+04  6.74743E+03 -1.09690E+04  1.27193E+04 -2.44387E+04 -7.41955E+03 -8.53249E+03 -3.86750E+04
  2.67534E+04 -4.80306E+04  5.35560E+04 -2.13549E+04  4.97935E+04  2.15213E+04  1.78829E+04  4.84021E+04
 -1.72259E+04  3.71307E+04 -2.86102E+04  3.21896E+03 -1.21863E+04 -3.02779E+04  2.15512E+04 -3.84616E+04
  4.62748E+04 -1.15163E+04  4.23668E+04  2.53783E+04  2.25958E+04  5.26751E+04 -8.84035E+03  5.84575E+04
 -3.68598E+04  4.04857E+04 -5.00432E+04  1.12542E+04 -4.97334E+04 -1.91702E+04 -2.75878E+04 -4.40560E+04
  8.28440E+03 -4.37791E+04  3.53195E+04 -1.77660E+04  3.39330E+04  1.11547E+04  5.74728E+03  2.14457E+04
 -1.40750E+04  9.96535E+03 -1.19075E+04 -7.51360E+03  5.75947E+03 -1.17486E+04  1.91846E+04  4.99232E+03
  1.53205E+04  2.30891E+04 -4.97391E+03  2.82135E+04 -2.44773E+04  1.54112E+04 -3.30218E+04 -2.02398E+03
 -2.77307E+04 -1.89203E+04 -1.34286E+04 -2.71241E+04  4.21847E+03 -2.83806E+04  2.13670E+04 -2.48077E+04
  3.46741E+04 -1.45536E+04  4.02826E+04  5.79042E+03  2.79855E+04  2.61500E+04  4.49876E+03  4.34097E+04
 -2.05588E+04  3.53749E+04 -3.18308E+04  1.28174E+04 -2.27450E+04 -1.01350E+04 -5.66080E+03 -1.22067E+04
  3.13758E+02 -3.23220E+02 -8.92627E+03  9.01087E+03 -2.23247E+04  5.05037E+03 -2.19454E+04 -1.10555E+04
 -1.23630E+04 -2.51338E+04  6.30854E+03 -2.98010E+04  2.00753E+04 -2.16390E+04  2.48931E+04 -1.58348E+03
  1.60548E+04  1.72133E+04 -1.46794E+03  2.47874E+04 -1.84139E+04  1.47355E+04 -2.56923E+04 -5.55267E+03
 -1.87320E+04 -2.21056E+04 -2.49018E+03 -3.00899E+04  1.38622E+04 -2.53997E+04  2.43410E+04 -1.31708E+04
  2.35727E+04 -3.33985E+02  1.72042E+04  5.73255E+03  9.32381E+03  1.77947E+03  1.35022E+04 -2.24115E+03
  2.40569E+04  2.96448E+03  2.85529E+04  1.91384E+04  1.92848E+04  4.06597E+04 -2.38245E+03  4.88317E+04
 -2.74000E+04  4.11001E+04 -4.64638E+04  2.15465E+04 -4.98478E+04 -3.37796E+03 -3.94878E+04 -2.89531E+04
 -1.59198E+04 -4.16786E+04  1.46522E+04 -3.58814E+04  3.10539E+04 -1.65459E+04  2.66247E+04  8.43497E+03
  9.07106E+03  2.07674E+04 -1.24481E+04  1.71708E+04 -2.21135E+04  2.44196E+03 -1.59158E+04 -1.38775E+04
  1.29047E+02 -2.17778E+04  1.17115E+04 -1.55638E+04  1.46454E+04 -1.44529E+03  4.37149E+03  9.28592E+03
 -9.39497E+03  5.50387E+03 -1.05974E+04 -7.59364E+03 -2.82151E+03 -2.03631E+04  1.30069E+04 -2.27662E+04
  2.53890E+04 -1.30487E+04  3.01329E+04  3.94354E+03  2.63198E+04  2.04617E+04  1.26235E+04  3.32348E+04
 -6.80136E+03  3.50102E+04 -2.31672E+04  2.15118E+04 -2.57850E+04  3.68234E+03 -1.74599E+04 -6.90849E+03
 -7.30577E+03 -8.79694E+03 -3.33604E+02 -2.22136E+01 -3.23435E+03  3.68898E+03 -8.79595E+03  5.94119E+03
 -1.58015E+04 -1.54073E+03 -1.66347E+04 -1.30004E+04 -6.62134E+03 -2.18425E+04  7.00621E+03 -1.81110E+04
  1.48914E+04 -7.31669E+03  1.06438E+04  5.21384E+03 -3.81150E+02  6.83071E+03 -8.66794E+03 -1.20781E+02
 -8.84411E+03 -1.14307E+04 -1.35629E+03 -1.73699E+04  1.06928E+04 -1.91901E+04  2.24519E+04 -1.04020E+04
  2.73067E+04  2.98436E+03  1.95503E+04  1.63592E+04  3.45432E+03  2.22368E+04 -1.11702E+04  1.79026E+04
 -1.44301E+04  5.00133E+03 -6.69402E+03 -4.23608E+03  2.94199E+03 -4.89650E+03  9.32556E+03 -6.15429E+02
  8.37352E+03  8.34208E+03  1.46715E+03  1.45216E+04 -1.05755E+04  1.35636E+04 -1.79044E+04  3.00458E+03
 -1.24221E+04 -9.86249E+03 -2.40637E+02 -1.60913E+04  1.02021E+04 -7.89192E+03  1.11160E+04  4.14953E+03
  2.85968E+03  1.28078E+04 -9.60451E+03  1.37441E+04 -1.65350E+04  6.14691E+03 -1.66077E+04 -6.17753E+03
 -9.83050E+03 -1.85293E+04  4.96799E+03 -2.11541E+04  1.84779E+04 -1.29095E+04  1.95145E+04  4.08435E+03
  1.18724E+04  1.57940E+04 -2.03396E+03  1.81567E+04 -1.37411E+04  1.03429E+04 -1.50832E+04 -2.01045E+03
 -1.23071E+04 -1.22234E+04 -2.26356E+03 -1.44384E+04  7.47057E+03 -1.15468E+04  9.51504E+03 -4.03088E+03
  5.92743E+03  2.60829E+03 -1.35583E+03  2.38352E+03 -9.03526E+02 -4.42184E+03  3.33959E+03 -9.20839E+03
  1.44544E+04 -6.31051E+03  1.94746E+04  1.95195E+03  1.84887E+04  1.36418E+04  1.17106E+04  2.53434E+04
 -6.07853E+03  2.90498E+04 -2.38005E+04  2.13656E+04 -3.14518E+04  4.16848E+03 -2.52397E+04 -1.12196E+04
 -1.24279E+04 -2.01110E+04  1.49629E+01 -1.85231E+04  6.20457E+03 -9.82131E+03  6.45647E+03 -6.54242E+03
  4.72962E+03 -3.76113E+03  5.16962E+03 -4.68756E+03  6.88725E+03 -4.70324E+03  9.19501E+03 -2.10785E+03
  1.27007E+04  2.68025E+03  7.22426E+03  1.19634E+04 -2.73033E+03  1.44212E+04 -1.40142E+04  1.06149E+04
 -1.81472E+04 -2.01765E+03 -1.21615E+04 -1.27045E+04 -1.92354E+03 -1.96701E+04  1.08250E+04 -1.96719E+04
  2.03294E+04 -1.10482E+04  2.38467E+04  3.51973E+03  1.67870E+04  1.74741E+04  2.82538E+03  2.22995E+04
 -9.65721E+03  1.73705E+04 -1.28825E+04  6.08339E+03 -9.08266E+03 -2.03963E+03 -4.23657E+03 -2.72793E+03
 -2.10071E+03 -3.40622E+02 -2.48296E+03  2.97907E+03 -7.45934E+03  2.88846E+03 -1.22974E+04 -1.97461E+03
 -9.60512E+03 -1.21087E+04 -2.26453E+02 -1.85249E+04  1.09354E+04 -1.65142E+04  1.87199E+04 -4.88148E+03
  1.84932E+04  8.90687E+03  8.56089E+03  1.66963E+04 -4.08692E+03  1.85807E+04 -1.33641E+04  1.17752E+04
 -1.76374E+04  1.01217E+03 -1.41801E+04 -1.09431E+04 -1.45437E+03 -1.57766E+04  8.16568E+03 -1.17530E+04
  1.18399E+04 -3.67937E+03  8.38897E+03  3.63473E+03  2.84955E+03  5.26262E+03  1.95641E+03  2.86851E+03
  3.12037E+03  1.58464E+03  4.53564E+03  2.21963E+03  6.06442E+03  6.04732E+03  4.93605E+03  9.89728E+03
 -3.63305E+03  1.52287E+04 -1.36876E+04  1.46136E+04 -1.97843E+04  3.47645E+03 -2.04917E+04 -8.87596E+03
 -9.59248E+03 -1.96907E+04  2.88042E+03 -2.07123E+04  1.18036E+04 -1.35143E+04  1.58180E+04 -3.56341E+03
  1.21783E+04  6.79307E+03  2.77470E+03  1.12576E+04 -6.02099E+03  6.86774E+03 -8.07103E+03 -1.34038E+03
 -3.82549E+03 -8.12488E+03  4.00299E+03 -9.15486E+03  7.98171E+03 -3.77039E+03  7.79889E+03  1.92873E+03
  5.03359E+03  4.52318E+03  1.30362E+03  3.55107E+03 -1.36606E+03  2.41774E+03  1.95518E+03 -8.50077E+02
  3.24149E+03 -1.09216E+03  8.33154E+03  3.54223E+03  4.67198E+03  1.01301E+04 -1.37522E+03  1.38207E+04
 -9.43848E+03  9.95797E+03 -1.31037E+04  2.27907E+03 -1.15519E+04 -4.10140E+03 -4.72078E+03 -7.95163E+03
  1.04056E+03 -7.97768E+03  5.12882E+03 -3.58956E+03  4.86707E+03  3.63698E+03 -2.04975E+03  6.81379E+03
 -8.10245E+03  4.04517E+03 -9.91310E+03 -4.76949E+03 -5.76789E+03 -1.08927E+04  2.10430E+03 -1.15511E+04
  7.15386E+03 -7.13980E+03  8.58455E+03 -5.56530E+02  6.43744E+03  3.16435E+03  1.00998E+03  5.66743E+03
 -3.88015E+03  1.83191E+03 -5.05741E+03 -4.14955E+03  1.76851E+03 -9.40811E+03  1.05494E+04 -7.39210E+03
  1.31451E+04  1.06343E+03  1.21966E+04  9.18709E+03  3.41189E+03  1.34339E+04 -4.44937E+03  1.32141E+04
 -1.07796E+04  5.60181E+03 -1.18674E+04 -1.52369E+03 -6.11102E+03 -9.37832E+03  1.61719E+03 -9.01645E+03
  8.38502E+03 -4.20989E+03  7.16907E+03  3.54626E+03  2.43586E+03  7.48702E+03 -1.51560E+03  6.36791E+03
 -3.14905E+03  4.01190E+03 -3.37599E+03  1.63159E+03 -1.95874E+03  1.14282E+03 -2.19881E+03  2.16070E+03
 -3.19485E+03  5.20271E+03 -9.11510E+03  4.36177E+03 -1.38947E+04  1.98201E+02 -1.55858E+04 -9.18451E+03
 -7.90092E+03 -1.83950E+04  3.51443E+03 -2.08357E+04  1.37528E+04 -1.61832E+04  1.98682E+04 -6.19612E+03
  1.90604E+04  4.23488E+03  1.14325E+04  1.32088E+04  9.95125E+02  1.47905E+04 -5.58585E+03  1.08299E+04
 -8.57179E+03  3.97615E+03 -5.21856E+03 -1.96753E+03 -1.42286E+03 -1.69139E+03 -3.31874E+02  7.86872E+01
 -2.21581E+03  4.54256E+02 -3.32049E+03 -1.14723E+03 -1.28192E+03 -3.46481E+03  9.55305E+02 -5.22043E+03
  6.28317E+03 -4.86603E+03  9.24125E+03 -8.44567E+00  1.01599E+04  7.65183E+03  3.43808E+03  1.52390E+04
 -7.19362E+03  1.67890E+04 -1.58374E+04  9.86823E+03 -1.83260E+04 -1.58897E+03 -1.32283E+04 -1.09163E+04
 -5.77292E+03 -1.56911E+04  3.88133E+03 -1.42983E+04  9.80904E+03 -7.57313E+03  1.03376E+04  1.49392E+02
  5.25099E+03  4.54085E+03 -9.88309E+02  4.50448E+03 -2.69896E+03 -1.58382E+02  1.00385E+02 -3.35916E+03
  4.94971E+03 -2.33592E+03  6.01562E+03  2.37888E+03  4.51680E+03  6.32401E+03  1.38598E+02  8.47950E+03
 -6.87845E+03  6.84398E+03 -1.06149E+04  2.08559E+02 -8.73690E+03 -7.27451E+03 -1.65033E+03 -1.29122E+04
  7.13482E+03 -1.11363E+04  1.20547E+04 -4.00404E+03  1.18876E+04  3.22510E+03  6.91353E+03  9.64347E+03
  1.27876E+03  1.03166E+04 -3.85477E+03  8.27538E+03 -6.76709E+03  4.28628E+03 -5.20952E+03  6.54868E+02
 -2.94420E+03 -4.81642E+02 -2.76758E+03  9.85160E+02 -5.18306E+03  1.49668E+03 -7.69834E+03 -1.60362E+03
 -7.34818E+03 -5.64633E+03 -2.32406E+03 -1.07842E+04  4.18710E+03 -1.04790E+04  9.11422E+03 -5.34020E+03
  1.00934E+04  1.56941E+03  6.39859E+03  7.89709E+03 -8.23909E+02  1.04532E+04 -8.03048E+03  7.42769E+03
