 $NMID ID='MM_0lb_SNR800_8hz_g55_43.RAW', FMTDAT='(8E13.5)'
 TRAMP=1., VOLUME=1. $END
  3.09748E+05  4.21223E+02  3.38302E+05  2.50666E+05  8.48896E+04  3.38856E+05 -1.32451E+05  2.52164E+05
 -1.91103E+05  8.43043E+04 -1.12760E+05 -3.20923E+04  2.30029E+02 -5.11145E+04  5.39303E+04 -4.90913E+02
  3.59341E+04  5.29218E+04 -1.62568E+04  7.65876E+04 -6.12881E+04  6.48609E+04 -8.56309E+04  3.24313E+04
 -8.29014E+04 -1.22317E+04 -5.83012E+04 -5.29389E+04 -1.51742E+04 -7.12079E+04  2.87279E+04 -4.71183E+04
  4.07671E+04  3.62453E+03  1.69909E+04  4.90661E+04 -3.47776E+04  4.85945E+04 -6.84041E+04  2.84546E+02
 -5.52950E+04 -5.82641E+04 -7.75336E+03 -7.95582E+04  3.49727E+04 -5.76322E+04  5.02335E+04 -1.87444E+04
  4.60507E+04  1.12199E+04  3.32353E+04  2.73979E+04  1.57463E+04  3.12297E+04 -5.88464E+03  2.81741E+04
 -2.22544E+04  1.16273E+04 -1.78663E+04 -5.88258E+03  7.80444E+03 -7.33380E+03  2.39732E+04  1.43577E+04
  6.84153E+03  3.80512E+04 -3.44432E+04  3.77307E+04 -6.61772E+04  2.00000E+03 -5.94489E+04 -4.52232E+04
 -1.26813E+04 -6.65176E+04  4.21610E+04 -4.79467E+04  6.25167E+04 -2.43502E+03  3.79100E+04  3.52210E+04
 -5.54133E+03  4.07685E+04 -3.21248E+04  1.96367E+04 -3.43778E+04 -3.09964E+03 -1.98246E+04 -1.25138E+04
 -9.65764E+03 -1.56526E+04 -2.29823E+02 -2.04276E+04  8.56465E+03 -2.40014E+04  1.63325E+04 -1.21311E+04
  1.02378E+04  6.80479E+03 -1.08446E+04  1.27486E+04 -2.39879E+04 -7.49553E+03 -8.56562E+03 -3.87337E+04
  2.60252E+04 -4.80805E+04  5.28982E+04 -2.08833E+04  4.99333E+04  2.12776E+04  1.77793E+04  4.80856E+04
 -1.68902E+04  3.68149E+04 -2.85028E+04  2.54817E+03 -1.25695E+04 -2.99083E+04  2.14229E+04 -3.72062E+04
  4.56860E+04 -1.17837E+04  4.16404E+04  2.51128E+04  2.22138E+04  5.21697E+04 -8.18720E+03  5.83861E+04
 -3.65378E+04  3.95071E+04 -4.92450E+04  1.18652E+04 -4.90716E+04 -1.93550E+04 -2.68634E+04 -4.35386E+04
  8.13926E+03 -4.34571E+04  3.52324E+04 -1.77885E+04  3.26435E+04  1.08149E+04  6.06494E+03  2.13805E+04
 -1.38101E+04  9.98597E+03 -1.13568E+04 -7.36463E+03  5.57774E+03 -1.18307E+04  1.88691E+04  5.26559E+03
  1.51427E+04  2.27187E+04 -4.76122E+03  2.78515E+04 -2.39039E+04  1.55161E+04 -3.26693E+04 -2.23213E+03
 -2.66318E+04 -1.83985E+04 -1.33334E+04 -2.64660E+04  4.43216E+03 -2.76842E+04  2.13321E+04 -2.44048E+04
  3.40051E+04 -1.47394E+04  4.00914E+04  5.50948E+03  2.80167E+04  2.58636E+04  4.03284E+03  4.25984E+04
 -2.03418E+04  3.48309E+04 -3.17701E+04  1.19536E+04 -2.31994E+04 -1.00539E+04 -5.02081E+03 -1.27589E+04
  4.97276E+02 -9.02980E+02 -8.48001E+03  8.89870E+03 -2.16653E+04  5.30349E+03 -2.14479E+04 -1.03841E+04
 -1.23797E+04 -2.48394E+04  6.56359E+03 -2.90754E+04  1.97388E+04 -2.07999E+04  2.42694E+04 -1.69137E+03
  1.53737E+04  1.71426E+04 -1.70708E+03  2.47608E+04 -1.75551E+04  1.43119E+04 -2.53559E+04 -5.10185E+03
 -1.79619E+04 -2.24693E+04 -2.16934E+03 -2.98622E+04  1.32337E+04 -2.50660E+04  2.41783E+04 -1.28012E+04
  2.35742E+04 -5.64280E+02  1.75426E+04  5.70438E+03  9.27885E+03  1.51678E+03  1.30151E+04 -2.92224E+03
  2.33099E+04  2.90743E+03  2.73800E+04  1.87197E+04  1.86676E+04  4.00953E+04 -2.72630E+03  4.68851E+04
 -2.70469E+04  3.97109E+04 -4.50945E+04  2.07277E+04 -4.80311E+04 -3.85380E+03 -3.89486E+04 -2.83248E+04
 -1.54067E+04 -3.97292E+04  1.40722E+04 -3.49767E+04  2.97088E+04 -1.66563E+04  2.58458E+04  8.53187E+03
  8.38332E+03  2.00517E+04 -1.24193E+04  1.64927E+04 -2.14488E+04  2.24394E+03 -1.61145E+04 -1.37781E+04
 -3.05561E+02 -2.08652E+04  1.11442E+04 -1.54863E+04  1.37176E+04 -1.23478E+03  3.59488E+03  9.53835E+03
 -9.16249E+03  4.62141E+03 -9.98186E+03 -7.26047E+03 -2.39835E+03 -1.98825E+04  1.25444E+04 -2.15916E+04
  2.50426E+04 -1.26426E+04  2.89629E+04  3.58395E+03  2.51271E+04  2.04577E+04  1.14354E+04  3.18042E+04
 -6.60955E+03  3.37629E+04 -2.26937E+04  2.11971E+04 -2.49891E+04  3.97309E+03 -1.69944E+04 -6.82313E+03
 -6.70495E+03 -8.10929E+03 -4.36562E+02  2.57518E+02 -2.90165E+03  3.59085E+03 -8.09700E+03  5.64139E+03
 -1.54099E+04 -7.51724E+02 -1.60157E+04 -1.26711E+04 -6.37087E+03 -2.07007E+04  7.02012E+03 -1.71890E+04
  1.38447E+04 -7.31589E+03  9.73863E+03  4.47444E+03 -5.39917E+02  6.59343E+03 -8.72294E+03  2.56122E+02
 -8.33438E+03 -1.12375E+04 -1.42119E+03 -1.74675E+04  9.96434E+03 -1.83170E+04  2.18304E+04 -9.54392E+03
  2.55703E+04  3.03324E+03  1.90347E+04  1.59491E+04  3.52526E+03  2.14812E+04 -1.06935E+04  1.68802E+04
 -1.41231E+04  4.81373E+03 -7.44494E+03 -3.46238E+03  2.22122E+03 -5.14957E+03  9.03567E+03 -9.83247E+02
  7.83748E+03  7.28690E+03  1.71371E+03  1.41988E+04 -1.02103E+04  1.32534E+04 -1.69559E+04  3.11825E+03
 -1.24185E+04 -8.96558E+03 -1.87357E+02 -1.50252E+04  9.69365E+03 -7.00772E+03  1.01388E+04  4.08524E+03
  2.23393E+03  1.11999E+04 -9.08295E+03  1.28483E+04 -1.57326E+04  5.78674E+03 -1.58493E+04 -5.34757E+03
 -9.00443E+03 -1.77067E+04  4.78900E+03 -2.03287E+04  1.70320E+04 -1.20881E+04  1.87232E+04  3.39014E+03
  1.11194E+04  1.48682E+04 -2.33618E+03  1.72438E+04 -1.31695E+04  1.01802E+04 -1.46387E+04 -1.70648E+03
 -1.17378E+04 -1.11689E+04 -1.72867E+03 -1.33512E+04  7.19203E+03 -1.06604E+04  8.73558E+03 -3.76809E+03
  5.56588E+03  2.04837E+03 -9.38688E+02  2.17170E+03 -1.42959E+03 -3.98326E+03  3.40635E+03 -8.95722E+03
  1.28661E+04 -5.80258E+03  1.85204E+04  2.36101E+03  1.72600E+04  1.29481E+04  1.15155E+04  2.40163E+04
 -6.11949E+03  2.71735E+04 -2.24461E+04  1.98235E+04 -2.93748E+04  3.82840E+03 -2.38037E+04 -1.02016E+04
 -1.11890E+04 -1.93861E+04 -5.98955E+02 -1.64458E+04  5.85476E+03 -9.43247E+03  6.05584E+03 -5.91152E+03
  4.53951E+03 -3.63152E+03  4.76730E+03 -4.28049E+03  6.72502E+03 -4.23354E+03  8.90796E+03 -1.51133E+03
  1.26296E+04  2.73833E+03  7.08070E+03  1.06609E+04 -2.38622E+03  1.34128E+04 -1.30093E+04  1.00410E+04
 -1.69084E+04 -1.59677E+03 -1.08426E+04 -1.17821E+04 -1.73670E+03 -1.86580E+04  9.76798E+03 -1.82361E+04
  1.89769E+04 -9.82313E+03  2.23829E+04  3.39186E+03  1.51548E+04  1.59260E+04  2.11212E+03  2.06213E+04
 -8.44353E+03  1.58981E+04 -1.21834E+04  5.93095E+03 -8.50197E+03 -2.17745E+03 -3.16673E+03 -2.93964E+03
 -1.36658E+03 -3.02189E+02 -2.64357E+03  3.51977E+03 -6.84758E+03  2.74291E+03 -1.18685E+04 -2.05831E+03
 -8.53587E+03 -1.14512E+04 -6.72564E+02 -1.68851E+04  1.08114E+04 -1.57803E+04  1.76639E+04 -5.40701E+03
  1.76080E+04  8.26938E+03  7.47030E+03  1.56130E+04 -3.44568E+03  1.75346E+04 -1.25496E+04  1.06433E+04
 -1.62615E+04  5.56540E+02 -1.24850E+04 -1.05037E+04 -1.98400E+03 -1.44854E+04  7.48068E+03 -1.07209E+04
  1.08111E+04 -3.09007E+03  7.42658E+03  2.98233E+03  2.75220E+03  4.70378E+03  1.63882E+03  2.54805E+03
  3.22536E+03  1.46844E+03  3.89027E+03  2.27496E+03  5.28472E+03  6.08977E+03  4.72891E+03  9.27117E+03
 -3.36614E+03  1.39851E+04 -1.16581E+04  1.35713E+04 -1.84674E+04  3.35260E+03 -1.83940E+04 -8.04978E+03
 -8.92882E+03 -1.80505E+04  2.61939E+03 -1.95535E+04  1.08290E+04 -1.26944E+04  1.48409E+04 -3.29031E+03
  1.13497E+04  6.47689E+03  2.25901E+03  1.02630E+04 -5.36149E+03  6.50903E+03 -7.55656E+03 -1.07466E+03
 -3.25520E+03 -7.64564E+03  3.96600E+03 -8.03268E+03  7.51462E+03 -3.85571E+03  7.57634E+03  1.97004E+03
  4.13041E+03  3.88347E+03  1.72063E+03  3.48906E+03 -9.52110E+02  2.57346E+03  1.74563E+03 -7.99335E+02
  2.69893E+03 -1.51094E+03  7.26755E+03  3.11693E+03  4.57039E+03  1.00633E+04 -1.89292E+03  1.26911E+04
 -8.53489E+03  8.57691E+03 -1.15515E+04  2.47577E+03 -9.97169E+03 -4.15763E+03 -4.31628E+03 -7.52374E+03
  1.22271E+03 -7.23669E+03  4.53033E+03 -3.77028E+03  4.22452E+03  3.41409E+03 -1.44990E+03  6.11393E+03
 -7.50039E+03  3.91600E+03 -9.10562E+03 -4.29652E+03 -5.06906E+03 -9.99389E+03  1.52257E+03 -1.05633E+04
  6.29023E+03 -6.38872E+03  7.76212E+03 -6.76594E+02  6.20833E+03  2.86457E+03  8.53975E+02  5.19129E+03
 -3.56826E+03  1.68573E+03 -4.63053E+03 -3.59303E+03  1.65933E+03 -7.93761E+03  9.40058E+03 -6.40011E+03
  1.16916E+04  7.46041E+02  1.16006E+04  7.72690E+03  3.30266E+03  1.26053E+04 -4.92881E+03  1.12304E+04
 -9.92993E+03  5.11132E+03 -1.03384E+04 -1.67334E+03 -6.05092E+03 -8.41030E+03  1.43950E+03 -7.13062E+03
  7.44113E+03 -3.39369E+03  6.71787E+03  3.51864E+03  2.12273E+03  6.77938E+03 -1.46134E+03  6.19615E+03
 -3.44391E+03  3.71647E+03 -3.02288E+03  1.38366E+03 -1.03214E+03  4.94261E+02 -1.80481E+03  2.04469E+03
 -3.15822E+03  4.76777E+03 -7.78431E+03  4.11443E+03 -1.24963E+04 -3.09895E+02 -1.40997E+04 -8.23594E+03
 -7.40326E+03 -1.58961E+04  3.19356E+03 -1.89008E+04  1.23255E+04 -1.44679E+04  1.81595E+04 -5.75622E+03
  1.68844E+04  3.48385E+03  1.03664E+04  1.13023E+04  1.30581E+03  1.33667E+04 -5.58528E+03  9.92706E+03
 -7.14779E+03  3.54896E+03 -4.98637E+03 -1.26263E+03 -1.05591E+03 -9.25483E+02 -8.86374E+02  8.00265E+01
 -1.81915E+03  2.76660E+02 -3.09868E+03 -3.54085E+02 -9.81112E+02 -2.75313E+03 -4.36273E+01 -5.07073E+03
  5.55682E+03 -4.06644E+03  8.38653E+03 -5.55466E+02  8.60591E+03  6.90829E+03  2.49419E+03  1.33526E+04
 -6.05839E+03  1.47300E+04 -1.39651E+04  8.35524E+03 -1.58414E+04 -1.00525E+03 -1.21282E+04 -9.99010E+03
 -4.67280E+03 -1.33525E+04  3.22694E+03 -1.25415E+04  8.35362E+03 -6.57676E+03  8.92032E+03  3.88885E+02
  4.34488E+03  4.61977E+03 -5.16175E+02  3.94254E+03 -2.29621E+03 -2.82374E+02 -8.41451E+01 -3.04171E+03
  4.40677E+03 -1.60292E+03  5.18135E+03  1.44227E+03  3.54749E+03  5.14231E+03 -1.58073E+02  7.16859E+03
 -5.76741E+03  6.19568E+03 -8.94251E+03  7.67360E+02 -7.90356E+03 -6.50834E+03 -1.52892E+03 -1.08634E+04
  6.21137E+03 -9.53478E+03  1.08008E+04 -2.92962E+03  1.01031E+04  2.70173E+03  6.25751E+03  8.60833E+03
  4.47625E+02  8.57781E+03 -3.67465E+03  7.45527E+03 -5.62637E+03  3.84018E+03 -4.61181E+03  6.62595E+02
 -2.63708E+03  1.55664E+02 -2.34079E+03  1.41984E+03 -4.07825E+03  1.43235E+03 -6.81861E+03 -1.06872E+03
 -6.10220E+03 -4.64929E+03 -2.28736E+03 -8.96345E+03  3.90497E+03 -8.87154E+03  7.98897E+03 -4.40150E+03
  8.86442E+03  8.88374E+02  4.92769E+03  6.05559E+03 -9.49936E+02  9.06317E+03 -6.39867E+03  6.17851E+03
