 $NMID ID='MM_0lb_SNR800_13hz_g55_56.RAW', FMTDAT='(8E13.5)'
 TRAMP=1., VOLUME=1. $END
  3.09902E+05  4.03721E+02  3.37687E+05  2.50535E+05  8.45791E+04  3.38242E+05 -1.32886E+05  2.51403E+05
 -1.90436E+05  8.35201E+04 -1.12047E+05 -3.24666E+04  7.50275E+02 -5.01472E+04  5.37126E+04 -6.27792E+02
  3.55224E+04  5.30115E+04 -1.66503E+04  7.59341E+04 -6.11825E+04  6.41086E+04 -8.48000E+04  3.21098E+04
 -8.17137E+04 -1.19221E+04 -5.74635E+04 -5.17699E+04 -1.50574E+04 -7.01742E+04  2.78423E+04 -4.61011E+04
  4.07004E+04  3.97710E+03  1.62492E+04  4.80204E+04 -3.44896E+04  4.75744E+04 -6.72631E+04 -2.06505E+02
 -5.40991E+04 -5.69910E+04 -7.10394E+03 -7.82793E+04  3.41390E+04 -5.58802E+04  4.84935E+04 -1.78575E+04
  4.45985E+04  1.15299E+04  3.23408E+04  2.59390E+04  1.62790E+04  2.97481E+04 -5.60581E+03  2.77160E+04
 -2.22312E+04  1.20954E+04 -1.83608E+04 -5.65503E+03  5.90090E+03 -7.47626E+03  2.28574E+04  1.29025E+04
  6.84814E+03  3.60349E+04 -3.28651E+04  3.62824E+04 -6.42972E+04  2.09373E+03 -5.75854E+04 -4.32360E+04
 -1.29489E+04 -6.43233E+04  4.04814E+04 -4.62378E+04  5.95876E+04 -2.45719E+03  3.51290E+04  3.32041E+04
 -5.62050E+03  3.74037E+04 -3.05048E+04  1.70176E+04 -3.13101E+04 -4.08486E+03 -1.78968E+04 -1.16095E+04
 -8.95942E+03 -1.40106E+04 -5.55723E+02 -1.85004E+04  7.77896E+03 -2.30834E+04  1.53641E+04 -1.29664E+04
  1.09381E+04  5.87771E+03 -9.14158E+03  1.28617E+04 -2.19200E+04 -5.08666E+03 -8.70130E+03 -3.51812E+04
  2.35143E+04 -4.44915E+04  4.93233E+04 -2.02260E+04  4.63762E+04  1.97828E+04  1.64860E+04  4.52352E+04
 -1.58993E+04  3.44544E+04 -2.64259E+04  2.27076E+03 -1.02096E+04 -2.85052E+04  2.12447E+04 -3.47733E+04
  4.20759E+04 -9.81318E+03  3.76107E+04  2.43595E+04  1.91514E+04  4.81097E+04 -8.19957E+03  5.22622E+04
 -3.28806E+04  3.52318E+04 -4.36978E+04  1.02476E+04 -4.44069E+04 -1.72002E+04 -2.44319E+04 -3.92574E+04
  7.23567E+03 -3.93287E+04  3.21272E+04 -1.58616E+04  3.02063E+04  1.09831E+04  4.60420E+03  2.00924E+04
 -1.35637E+04  9.06619E+03 -1.06204E+04 -7.56315E+03  6.09789E+03 -1.07689E+04  1.82012E+04  5.55154E+03
  1.38600E+04  2.22886E+04 -5.99561E+03  2.57786E+04 -2.27608E+04  1.23699E+04 -2.88668E+04 -3.99288E+03
 -2.23867E+04 -1.75695E+04 -9.85216E+03 -2.21203E+04  4.15917E+03 -2.19050E+04  1.71839E+04 -1.97662E+04
  2.84168E+04 -1.34639E+04  3.44179E+04  3.68974E+03  2.45745E+04  2.18998E+04  4.48368E+03  3.77933E+04
 -1.80932E+04  3.18523E+04 -2.87773E+04  1.07756E+04 -2.14995E+04 -1.02286E+04 -4.66494E+03 -1.34884E+04
  1.28117E+03 -1.99363E+03 -5.80473E+03  7.22335E+03 -1.73918E+04  5.13525E+03 -1.77386E+04 -7.72103E+03
 -1.08567E+04 -2.05015E+04  5.33883E+03 -2.44828E+04  1.65905E+04 -1.75913E+04  1.95499E+04 -2.00784E+03
  1.22399E+04  1.38900E+04 -1.09329E+03  2.06920E+04 -1.41687E+04  1.18815E+04 -2.06260E+04 -4.20043E+03
 -1.51528E+04 -1.83325E+04 -1.92160E+03 -2.46004E+04  1.13011E+04 -2.02633E+04  2.04012E+04 -1.02413E+04
  1.89168E+04 -2.08483E+01  1.35844E+04  4.69792E+03  7.66477E+03  1.20348E+03  1.03228E+04 -2.24506E+03
  1.88250E+04  2.73022E+03  2.17276E+04  1.63622E+04  1.41072E+04  3.26340E+04 -2.83191E+03  3.75953E+04
 -2.14444E+04  3.02684E+04 -3.49458E+04  1.51894E+04 -3.73287E+04 -2.49972E+03 -3.00174E+04 -2.13273E+04
 -1.28043E+04 -3.03936E+04  1.05742E+04 -2.71432E+04  2.37164E+04 -1.33951E+04  2.09638E+04  6.17943E+03
  7.47960E+03  1.57706E+04 -9.84955E+03  1.35497E+04 -1.75054E+04  2.55250E+03 -1.30123E+04 -1.06847E+04
 -4.39910E+02 -1.64470E+04  8.91057E+03 -1.25097E+04  1.09834E+04 -1.28414E+03  2.53422E+03  7.37842E+03
 -7.59098E+03  3.24141E+03 -6.91806E+03 -6.17745E+03 -8.91254E+02 -1.49776E+04  1.01470E+04 -1.57185E+04
  1.85486E+04 -8.49304E+03  2.02210E+04  3.10723E+03  1.77875E+04  1.49821E+04  8.21395E+03  2.27669E+04
 -3.98932E+03  2.45285E+04 -1.61964E+04  1.54066E+04 -1.75064E+04  3.51245E+03 -1.24134E+04 -4.17066E+03
 -5.34498E+03 -5.59510E+03 -9.07519E+02  9.84897E+02 -2.39116E+03  3.29770E+03 -5.89849E+03  4.72341E+03
 -1.15770E+04 -7.28447E+02 -1.23693E+04 -9.73344E+03 -5.05972E+03 -1.60385E+04  5.20427E+03 -1.28830E+04
  1.05010E+04 -5.27299E+03  7.21605E+03  3.44357E+03  2.75479E+02  5.10284E+03 -5.79830E+03 -1.99661E+02
 -5.59614E+03 -8.09198E+03 -9.24201E+02 -1.21779E+04  6.86571E+03 -1.32393E+04  1.54415E+04 -7.01750E+03
  1.84655E+04  1.59285E+03  1.31439E+04  1.08928E+04  2.98780E+03  1.44474E+04 -7.76499E+03  1.21672E+04
 -1.03608E+04  3.68006E+03 -5.47743E+03 -2.52203E+03  1.89317E+03 -2.97717E+03  6.94969E+03 -1.14274E+03
  6.12441E+03  5.55138E+03  1.14673E+03  9.81881E+03 -7.01334E+03  9.45491E+03 -1.22624E+04  2.14339E+03
 -8.25285E+03 -6.27064E+03  3.54694E+01 -1.05421E+04  6.23044E+03 -5.16386E+03  6.57272E+03  2.45111E+03
  1.37347E+03  6.98676E+03 -6.34509E+03  8.27040E+03 -1.01690E+04  3.84293E+03 -9.64653E+03 -3.17085E+03
 -5.74054E+03 -1.13275E+04  2.95673E+03 -1.30159E+04  1.14261E+04 -8.08517E+03  1.23222E+04  2.36846E+03
  7.64493E+03  9.82271E+03 -5.34097E+02  1.19905E+04 -8.55738E+03  6.71502E+03 -9.28032E+03 -7.28970E+02
 -8.70366E+03 -7.97835E+03 -1.55075E+03 -8.71725E+03  4.58165E+03 -7.49795E+03  5.24497E+03 -3.25275E+03
  3.96253E+03  1.36154E+03 -4.58265E+02  1.62977E+03 -2.98439E+02 -2.29462E+03  1.42898E+03 -4.97265E+03
  7.71849E+03 -2.62602E+03  1.12466E+04  1.01418E+03  1.08924E+04  7.38351E+03  8.02001E+03  1.46602E+04
 -3.11383E+03  1.66722E+04 -1.44042E+04  1.23905E+04 -1.84208E+04  2.50175E+03 -1.48415E+04 -6.21291E+03
 -7.49969E+03 -1.23725E+04 -4.04299E+02 -9.88433E+03  3.59333E+03 -5.70475E+03  3.48087E+03 -3.94442E+03
  2.34768E+03 -2.27549E+03  3.29402E+03 -3.26417E+03  5.02443E+03 -2.63052E+03  5.92503E+03 -3.28556E+02
  7.60948E+03  1.99375E+03  3.67048E+03  6.35212E+03 -1.83112E+03  7.09166E+03 -8.05203E+03  5.71705E+03
 -1.01560E+04 -1.24501E+03 -5.52505E+03 -6.94568E+03 -3.54551E+02 -1.05148E+04  5.80066E+03 -1.07285E+04
  1.08227E+04 -5.96315E+03  1.31894E+04  1.36528E+03  9.43192E+03  9.43304E+03  1.63291E+03  1.21111E+04
 -5.29512E+03  1.00106E+04 -6.95280E+03  3.46625E+03 -4.59776E+03 -1.50338E+03 -1.45386E+03 -1.26419E+03
 -1.12301E+03  2.52232E+02 -1.76232E+03  2.39276E+03 -4.24603E+03  1.73961E+03 -6.91882E+03 -8.84887E+02
 -4.73060E+03 -6.95584E+03  3.05826E+02 -9.48809E+03  5.81275E+03 -8.86001E+03  9.00541E+03 -2.68527E+03
  9.12152E+03  4.49266E+03  4.03920E+03  8.03203E+03 -1.91399E+03  9.52393E+03 -6.58970E+03  6.26284E+03
 -8.65022E+03  4.01210E+02 -7.01563E+03 -5.73334E+03 -4.90174E+02 -7.71143E+03  3.89520E+03 -5.76068E+03
  5.90010E+03 -1.82075E+03  4.19657E+03  1.21398E+03  1.17486E+03  2.85783E+03  1.00400E+03  1.08773E+03
  2.13965E+03  9.38755E+02  1.88831E+03  1.44170E+03  2.52315E+03  3.77340E+03  2.48763E+03  4.78238E+03
 -1.80629E+03  6.96350E+03 -6.29437E+03  7.70492E+03 -9.02540E+03  2.21617E+03 -9.77570E+03 -3.05604E+03
 -4.51026E+03 -8.99373E+03  1.40210E+03 -1.02046E+04  5.32167E+03 -6.21403E+03  7.32301E+03 -2.04108E+03
  5.85088E+03  3.65754E+03  1.24868E+03  5.41395E+03 -2.53670E+03  3.25261E+03 -3.46510E+03 -5.97487E+02
 -1.48440E+03 -3.71238E+03  2.29145E+03 -3.94870E+03  3.49121E+03 -2.07524E+03  3.60771E+03  8.10304E+02
  1.96940E+03  1.66446E+03  1.37823E+03  9.30955E+02 -5.36835E+02  1.31141E+03  1.56430E+03 -4.72004E+02
  1.10533E+03 -6.80374E+02  3.69644E+03  1.88422E+03  1.49242E+03  5.37918E+03 -7.70618E+02  6.40006E+03
 -4.32512E+03  3.78532E+03 -5.42776E+03  8.33215E+02 -5.31763E+03 -1.66145E+03 -1.77681E+03 -3.23759E+03
  7.90564E+02 -3.47823E+03  2.35156E+03 -1.52118E+03  1.53713E+03  2.32907E+03 -8.86153E+02  3.03208E+03
 -3.48389E+03  1.85436E+03 -4.15091E+03 -2.07409E+03 -2.35175E+03 -4.72598E+03  5.08882E+02 -4.59128E+03
  2.56303E+03 -2.51987E+03  2.86156E+03 -7.50630E+01  2.91626E+03  9.61430E+02  6.26523E+02  3.01932E+03
 -1.38400E+03  5.70033E+02 -2.17853E+03 -1.30921E+03  1.12553E+03 -3.33254E+03  4.69881E+03 -2.96840E+03
  4.58563E+03  7.85441E+02  5.34519E+03  3.29217E+03  1.65548E+03  5.19091E+03 -1.78316E+03  5.36956E+03
 -4.36850E+03  1.93577E+03 -4.45224E+03 -6.28997E+02 -2.49968E+03 -3.46934E+03  6.64617E+02 -2.86481E+03
  3.38439E+03 -1.44495E+03  2.49639E+03  1.50159E+03  7.07566E+02  3.14107E+03 -1.11949E+02  2.86299E+03
 -1.29120E+03  2.13059E+03 -1.58008E+03  4.68559E+02 -6.17956E+02  8.28586E+02 -1.10165E+03  1.46682E+03
 -1.18736E+03  2.06970E+03 -3.65335E+03  1.68782E+03 -5.13327E+03  2.09986E+02 -6.10111E+03 -3.21103E+03
 -3.10138E+03 -6.83111E+03  1.06518E+03 -7.96887E+03  4.50262E+03 -6.38352E+03  7.73179E+03 -2.61444E+03
  6.99568E+03  1.11366E+03  4.17516E+03  4.83009E+03  9.49963E+01  5.46588E+03 -1.98022E+03  4.13838E+03
 -3.08015E+03  1.62198E+03 -2.01484E+03 -6.05122E+02 -6.24977E+02 -4.14662E+02 -5.29389E+02  4.45965E+01
 -1.42086E+03 -1.66528E+01 -1.40882E+03  1.29895E+01 -2.33597E+02 -1.09283E+03 -1.01523E+02 -2.13682E+03
  2.51394E+03 -1.72753E+03  2.49726E+03 -3.18893E+01  3.68248E+03  2.80050E+03  9.00684E+02  4.93649E+03
 -2.85952E+03  6.16652E+03 -5.40995E+03  3.22269E+03 -6.24490E+03 -5.48626E+02 -4.36777E+03 -3.93335E+03
 -1.89143E+03 -4.89725E+03  1.15662E+03 -4.23362E+03  2.98365E+03 -2.65320E+03  3.18481E+03  5.09432E+02
  2.08845E+03  1.34416E+03 -2.71636E+01  1.35827E+03 -8.51837E+02 -1.80459E+02  3.16583E+02 -1.34515E+03
  1.62944E+03 -3.97751E+02  1.64302E+03  7.70231E+02  9.52220E+02  2.14940E+03  5.75850E+02  2.50699E+03
 -2.35304E+03  2.35054E+03 -2.78167E+03  4.33392E+02 -2.70519E+03 -2.08563E+03 -2.94099E+02 -3.91294E+03
  2.32825E+03 -3.25214E+03  3.33440E+03 -7.87574E+02  3.48837E+03  2.59272E+02  1.90243E+03  3.26882E+03
  2.72125E+02  2.74650E+03 -1.18151E+03  2.69589E+03 -2.13845E+03  1.81917E+03 -1.62603E+03  6.43957E+00
 -4.09161E+02 -3.14106E+02 -7.10316E+02  1.28123E+02 -1.49273E+03  3.07944E+02 -2.39171E+03 -4.38540E+02
 -2.51893E+03 -1.34110E+03 -8.37805E+02 -3.28085E+03  1.56011E+03 -3.86044E+03  2.61344E+03 -1.69618E+03
  3.09411E+03  5.34681E+02  1.21036E+03  2.42582E+03 -4.35281E+02  2.81989E+03 -2.31443E+03  1.99642E+03
