 $NMID ID='MM_0lb_SNR800_11hz_g45_93.RAW', FMTDAT='(8E13.5)'
 TRAMP=1., VOLUME=1. $END
  3.09954E+05  2.21749E+02  3.37945E+05  2.50667E+05  8.48740E+04  3.38485E+05 -1.32620E+05  2.51193E+05
 -1.90381E+05  8.35419E+04 -1.12176E+05 -3.21511E+04  9.86609E+02 -5.04610E+04  5.36711E+04 -3.15138E+02
  3.56312E+04  5.26653E+04 -1.67510E+04  7.54964E+04 -6.12147E+04  6.36889E+04 -8.47774E+04  3.22596E+04
 -8.15224E+04 -1.14424E+04 -5.77545E+04 -5.17186E+04 -1.52172E+04 -7.01927E+04  2.84426E+04 -4.66951E+04
  4.04388E+04  3.75372E+03  1.63790E+04  4.82366E+04 -3.45609E+04  4.77837E+04 -6.76117E+04  2.16792E+02
 -5.46264E+04 -5.73547E+04 -6.84981E+03 -7.81103E+04  3.44776E+04 -5.57126E+04  4.88005E+04 -1.74101E+04
  4.43433E+04  1.13129E+04  3.26731E+04  2.61957E+04  1.57315E+04  2.99230E+04 -5.45177E+03  2.74753E+04
 -2.24662E+04  1.25521E+04 -1.81512E+04 -5.41113E+03  6.26375E+03 -7.21858E+03  2.29042E+04  1.32689E+04
  6.99827E+03  3.61873E+04 -3.29357E+04  3.62168E+04 -6.43502E+04  2.22685E+03 -5.79108E+04 -4.35931E+04
 -1.22819E+04 -6.44449E+04  4.06755E+04 -4.62242E+04  6.00269E+04 -2.45765E+03  3.53604E+04  3.36169E+04
 -6.04310E+03  3.76158E+04 -3.08727E+04  1.73835E+04 -3.18561E+04 -3.92271E+03 -1.83381E+04 -1.13684E+04
 -8.80314E+03 -1.42377E+04 -7.38688E+02 -1.91368E+04  7.96863E+03 -2.29467E+04  1.57236E+04 -1.31568E+04
  1.08721E+04  5.80483E+03 -9.14483E+03  1.28374E+04 -2.22786E+04 -5.65347E+03 -8.86996E+03 -3.56085E+04
  2.39846E+04 -4.51219E+04  5.01480E+04 -2.01059E+04  4.69582E+04  2.02984E+04  1.67938E+04  4.55293E+04
 -1.66493E+04  3.47786E+04 -2.59311E+04  2.21941E+03 -1.07830E+04 -2.86533E+04  2.14548E+04 -3.53674E+04
  4.27827E+04 -9.88272E+03  3.81026E+04  2.41751E+04  1.95693E+04  4.84006E+04 -8.07667E+03  5.34764E+04
 -3.33002E+04  3.60379E+04 -4.46143E+04  1.02551E+04 -4.50073E+04 -1.79068E+04 -2.47976E+04 -3.99372E+04
  7.43173E+03 -4.01049E+04  3.27307E+04 -1.62940E+04  3.08628E+04  1.12151E+04  4.60994E+03  2.02397E+04
 -1.39104E+04  9.33865E+03 -1.07785E+04 -7.99878E+03  5.84522E+03 -1.12878E+04  1.85463E+04  5.91580E+03
  1.39011E+04  2.21846E+04 -5.41125E+03  2.59633E+04 -2.28234E+04  1.31594E+04 -3.00485E+04 -4.02283E+03
 -2.26512E+04 -1.79773E+04 -9.92531E+03 -2.28663E+04  4.42242E+03 -2.24391E+04  1.77503E+04 -2.04984E+04
  2.90004E+04 -1.33164E+04  3.50390E+04  3.75200E+03  2.56651E+04  2.23484E+04  4.34234E+03  3.89500E+04
 -1.87429E+04  3.20775E+04 -2.94101E+04  1.12208E+04 -2.18352E+04 -1.03820E+04 -4.51724E+03 -1.30007E+04
  9.48002E+02 -1.70883E+03 -6.27302E+03  7.38712E+03 -1.81757E+04  5.19105E+03 -1.81169E+04 -8.18594E+03
 -1.06880E+04 -2.12362E+04  5.64835E+03 -2.53517E+04  1.67864E+04 -1.83427E+04  1.99858E+04 -1.62222E+03
  1.28835E+04  1.44643E+04 -1.29175E+03  2.10560E+04 -1.44983E+04  1.23961E+04 -2.15516E+04 -4.12001E+03
 -1.55280E+04 -1.89723E+04 -1.96214E+03 -2.52502E+04  1.13615E+04 -2.07765E+04  2.13741E+04 -1.02569E+04
  1.95911E+04 -1.39153E+02  1.45097E+04  5.08629E+03  7.84195E+03  1.01545E+03  1.07050E+04 -1.76110E+03
  1.96071E+04  2.85703E+03  2.25698E+04  1.64239E+04  1.49924E+04  3.40770E+04 -2.71715E+03  3.90244E+04
 -2.24021E+04  3.22610E+04 -3.67695E+04  1.62601E+04 -3.87558E+04 -2.69481E+03 -3.19156E+04 -2.26470E+04
 -1.30044E+04 -3.25226E+04  1.12338E+04 -2.85315E+04  2.46790E+04 -1.38210E+04  2.16854E+04  6.80553E+03
  7.69176E+03  1.65925E+04 -1.02762E+04  1.39598E+04 -1.82412E+04  2.83287E+03 -1.36996E+04 -1.16836E+04
 -3.06583E+02 -1.74717E+04  9.17940E+03 -1.29930E+04  1.17213E+04 -1.59861E+03  2.70721E+03  7.60647E+03
 -7.86781E+03  3.37340E+03 -7.52335E+03 -6.18889E+03 -1.24853E+03 -1.54533E+04  1.09814E+04 -1.64522E+04
  1.96256E+04 -9.40187E+03  2.22597E+04  3.08725E+03  1.92029E+04  1.58251E+04  8.90380E+03  2.46779E+04
 -4.33156E+03  2.66828E+04 -1.75297E+04  1.62367E+04 -1.90783E+04  3.91729E+03 -1.35053E+04 -4.65176E+03
 -5.71078E+03 -6.20954E+03 -7.85749E+02  4.84549E+02 -2.75774E+03  3.18148E+03 -6.50016E+03  4.86423E+03
 -1.23823E+04 -1.05247E+03 -1.31145E+04 -1.05477E+04 -5.29356E+03 -1.71904E+04  5.41518E+03 -1.37280E+04
  1.12540E+04 -5.69191E+03  7.95480E+03  3.85099E+03  2.45344E+02  5.34541E+03 -6.82597E+03 -3.26216E+02
 -6.31795E+03 -8.48568E+03 -1.13735E+03 -1.28568E+04  7.53503E+03 -1.36373E+04  1.68078E+04 -7.22853E+03
  2.01016E+04  1.68243E+03  1.44307E+04  1.18233E+04  2.64393E+03  1.57196E+04 -8.25949E+03  1.29540E+04
 -1.09622E+04  4.17432E+03 -5.51557E+03 -2.92137E+03  1.68726E+03 -3.23627E+03  7.15481E+03 -7.24930E+02
  6.50576E+03  5.89756E+03  1.11165E+03  1.03933E+04 -7.60856E+03  1.01150E+04 -1.34368E+04  2.46045E+03
 -8.66769E+03 -6.87099E+03  5.08366E+02 -1.12667E+04  7.12532E+03 -5.77983E+03  7.41862E+03  2.56250E+03
  2.05255E+03  8.18974E+03 -6.85611E+03  9.35575E+03 -1.09628E+04  4.41946E+03 -1.09880E+04 -3.69729E+03
 -6.20219E+03 -1.27227E+04  2.88412E+03 -1.47088E+04  1.25353E+04 -9.20379E+03  1.38223E+04  2.27196E+03
  8.60777E+03  1.05795E+04 -1.04417E+03  1.31650E+04 -9.65624E+03  7.29048E+03 -1.02448E+04 -6.79348E+02
 -8.76288E+03 -8.80706E+03 -1.44635E+03 -9.57658E+03  5.51314E+03 -8.02682E+03  6.20386E+03 -3.66734E+03
  4.27474E+03  1.54084E+03 -7.08804E+02  1.42691E+03 -6.99066E+02 -2.57025E+03  1.99367E+03 -5.96011E+03
  8.93007E+03 -3.58265E+03  1.27197E+04  1.49068E+03  1.27255E+04  8.43791E+03  8.51552E+03  1.64057E+04
 -3.71778E+03  1.92471E+04 -1.64871E+04  1.43590E+04 -2.07831E+04  2.73528E+03 -1.64279E+04 -7.07007E+03
 -8.45895E+03 -1.34060E+04 -3.10375E+02 -1.15718E+04  4.11334E+03 -6.34929E+03  4.12061E+03 -4.50954E+03
  3.01147E+03 -2.77380E+03  3.62361E+03 -3.17904E+03  4.92638E+03 -2.82059E+03  6.54088E+03 -9.68766E+02
  8.90630E+03  1.78145E+03  4.14341E+03  7.83335E+03 -2.40899E+03  8.70627E+03 -9.19805E+03  6.73522E+03
 -1.13258E+04 -1.53101E+03 -7.16945E+03 -8.26397E+03 -8.96759E+02 -1.24306E+04  7.11553E+03 -1.24129E+04
  1.25127E+04 -7.11621E+03  1.52899E+04  1.75435E+03  1.10187E+04  1.04282E+04  1.68089E+03  1.38441E+04
 -5.61858E+03  1.20201E+04 -7.94838E+03  3.81986E+03 -5.50001E+03 -1.66587E+03 -2.30310E+03 -1.31581E+03
 -1.03016E+03  2.95097E+02 -1.72033E+03  2.78745E+03 -4.85230E+03  1.90594E+03 -8.30629E+03 -9.07783E+02
 -5.55468E+03 -8.30461E+03  4.43631E+02 -1.14821E+04  6.89471E+03 -1.05921E+04  1.09930E+04 -3.25018E+03
  1.11535E+04  5.55504E+03  5.07410E+03  9.90870E+03 -2.17499E+03  1.14877E+04 -8.27552E+03  7.14091E+03
 -1.03601E+04  7.58066E+02 -7.89715E+03 -6.72445E+03 -5.87671E+02 -9.27744E+03  4.89272E+03 -7.22007E+03
  7.18985E+03 -1.96968E+03  5.03925E+03  1.80925E+03  1.48332E+03  3.73646E+03  1.21550E+03  1.57254E+03
  2.29147E+03  7.25071E+02  2.94593E+03  1.34215E+03  3.20314E+03  4.17692E+03  2.81968E+03  5.57162E+03
 -2.58062E+03  9.09874E+03 -7.76912E+03  9.30744E+03 -1.13293E+04  2.38564E+03 -1.21475E+04 -4.10667E+03
 -5.90013E+03 -1.12560E+04  1.74612E+03 -1.24514E+04  6.72535E+03 -7.99293E+03  9.26492E+03 -2.21861E+03
  6.98712E+03  4.67462E+03  1.49174E+03  6.51183E+03 -2.97690E+03  4.23178E+03 -4.30357E+03 -5.73601E+02
 -1.89552E+03 -4.66788E+03  2.91860E+03 -5.05104E+03  4.83327E+03 -2.35470E+03  4.43581E+03  8.34356E+02
  2.67341E+03  2.21468E+03  1.40719E+03  1.56511E+03 -2.69986E+02  1.59406E+03  1.33276E+03 -6.58739E+02
  1.48566E+03 -5.00961E+02  4.42004E+03  1.71636E+03  2.42639E+03  6.12862E+03 -1.28377E+03  7.99198E+03
 -5.30036E+03  4.80441E+03 -7.27633E+03  1.37187E+03 -6.29364E+03 -2.59505E+03 -2.28131E+03 -3.82194E+03
  8.98531E+02 -4.31889E+03  2.64955E+03 -2.24522E+03  2.05647E+03  2.47536E+03 -1.11279E+03  3.82905E+03
 -4.42539E+03  2.08673E+03 -5.03872E+03 -3.16965E+03 -2.94229E+03 -5.91571E+03  8.59018E+02 -5.98985E+03
  3.24578E+03 -3.57968E+03  4.20964E+03 -5.09772E+02  3.34137E+03  9.97142E+02  8.75481E+02  3.22630E+03
 -1.91057E+03  1.04011E+03 -2.69413E+03 -1.95031E+03  1.12934E+03 -4.71849E+03  5.29192E+03 -3.75840E+03
  6.54790E+03  4.56132E+02  7.04634E+03  4.67231E+03  2.22396E+03  7.19639E+03 -2.37343E+03  6.69078E+03
 -5.75599E+03  2.71618E+03 -5.61493E+03 -8.49780E+02 -3.13295E+03 -4.57307E+03  1.11492E+03 -4.05678E+03
  4.66698E+03 -2.01200E+03  3.78084E+03  1.63347E+03  1.34387E+03  4.24280E+03 -1.52367E+02  3.95721E+03
 -1.83269E+03  2.49259E+03 -1.67438E+03  6.04918E+02 -7.69349E+02  1.15513E+03 -1.37186E+03  1.54524E+03
 -1.85030E+03  2.80660E+03 -5.15240E+03  2.81868E+03 -7.16354E+03  1.97712E+02 -8.00670E+03 -4.13319E+03
 -4.09541E+03 -9.40495E+03  2.07344E+03 -1.05565E+04  6.28069E+03 -8.77303E+03  1.00020E+04 -3.25821E+03
  9.49424E+03  1.73542E+03  5.87377E+03  6.42167E+03  2.29061E+02  7.30531E+03 -2.96797E+03  5.17032E+03
 -3.80831E+03  2.32270E+03 -2.51401E+03 -6.88313E+02 -1.04942E+03 -5.42069E+02 -8.86972E+02  4.62546E+01
 -1.31134E+03  1.60155E+02 -1.59005E+03 -1.97681E+02 -2.66508E+02 -1.69637E+03  1.18259E+02 -2.55183E+03
  3.16414E+03 -2.30856E+03  4.31449E+03  4.08503E+02  5.17294E+03  3.97067E+03  1.15955E+03  7.10733E+03
 -3.38725E+03  8.27265E+03 -7.47372E+03  4.71740E+03 -8.59564E+03 -5.65577E+02 -6.17522E+03 -5.32042E+03
 -2.23540E+03 -6.85812E+03  1.69750E+03 -6.69243E+03  4.10111E+03 -3.48052E+03  4.44340E+03  1.18160E+02
  2.68046E+03  2.36610E+03 -3.54973E+02  2.02443E+03 -1.42613E+03  8.88160E+01  7.49357E+01 -1.59418E+03
  2.35428E+03 -9.08362E+02  2.33484E+03  9.61933E+02  1.92857E+03  2.75307E+03  3.70708E+02  3.11378E+03
 -3.08484E+03  2.78786E+03 -4.93125E+03  3.69488E+02 -4.51904E+03 -3.16473E+03 -7.15683E+02 -5.72011E+03
  3.51904E+03 -4.66961E+03  5.10202E+03 -1.05513E+03  5.46049E+03  1.07992E+03  3.41890E+03  4.74547E+03
  7.30296E+02  4.15091E+03 -1.73480E+03  3.45992E+03 -3.01887E+03  1.95724E+03 -2.18922E+03 -2.96909E+01
 -1.15267E+03 -1.01391E+02 -1.29187E+03  4.20255E+02 -2.48070E+03  8.65893E+02 -3.51055E+03 -4.76907E+02
 -3.51113E+03 -1.99815E+03 -1.13153E+03 -4.79572E+03  2.47633E+03 -4.97724E+03  3.97610E+03 -2.23646E+03
  4.37257E+03  5.64637E+02  2.10781E+03  2.98576E+03 -5.32411E+02  4.08303E+03 -3.51272E+03  3.18100E+03
