 $NMID ID='MM_0lb_SNR800_17hz_g60_76.RAW', FMTDAT='(8E13.5)'
 TRAMP=1., VOLUME=1. $END
  3.09942E+05  1.57286E+02  3.37609E+05  2.50588E+05  8.47673E+04  3.37757E+05 -1.32528E+05  2.51073E+05
 -1.90368E+05  8.31793E+04 -1.11792E+05 -3.26040E+04  9.92542E+02 -5.07488E+04  5.37287E+04 -1.49447E+02
  3.53301E+04  5.27532E+04 -1.67968E+04  7.55889E+04 -6.08189E+04  6.35855E+04 -8.40662E+04  3.20511E+04
 -8.09053E+04 -1.14363E+04 -5.71676E+04 -5.11552E+04 -1.50090E+04 -6.94069E+04  2.73426E+04 -4.57847E+04
  4.01014E+04  3.89375E+03  1.61000E+04  4.79994E+04 -3.41981E+04  4.71820E+04 -6.65385E+04 -2.72900E+02
 -5.34799E+04 -5.66877E+04 -6.70643E+03 -7.67879E+04  3.37587E+04 -5.48329E+04  4.76148E+04 -1.72679E+04
  4.31415E+04  1.12260E+04  3.18846E+04  2.54110E+04  1.60579E+04  2.91937E+04 -5.10252E+03  2.70593E+04
 -2.21435E+04  1.24385E+04 -1.86319E+04 -5.13540E+03  5.71028E+03 -7.26793E+03  2.21690E+04  1.21141E+04
  7.41292E+03  3.48726E+04 -3.18182E+04  3.53432E+04 -6.33310E+04  2.05814E+03 -5.67125E+04 -4.27687E+04
 -1.25680E+04 -6.27830E+04  3.97379E+04 -4.51142E+04  5.75797E+04 -2.31460E+03  3.39306E+04  3.19757E+04
 -6.02547E+03  3.56638E+04 -2.97087E+04  1.55377E+04 -2.97140E+04 -4.44347E+03 -1.62418E+04 -1.05849E+04
 -8.33878E+03 -1.27970E+04 -8.62959E+02 -1.74071E+04  7.18931E+03 -2.29538E+04  1.53012E+04 -1.34663E+04
  1.13269E+04  4.80831E+03 -8.33494E+03  1.32476E+04 -2.07551E+04 -3.96035E+03 -8.34474E+03 -3.33950E+04
  2.24770E+04 -4.29610E+04  4.74565E+04 -1.93824E+04  4.44033E+04  1.95319E+04  1.57301E+04  4.40164E+04
 -1.59974E+04  3.29873E+04 -2.48799E+04  1.73051E+03 -9.45201E+03 -2.75399E+04  2.07768E+04 -3.31280E+04
  4.07498E+04 -8.64072E+03  3.48918E+04  2.35042E+04  1.73487E+04  4.55163E+04 -8.04909E+03  4.93902E+04
 -3.08959E+04  3.27329E+04 -4.10691E+04  9.36716E+03 -4.18029E+04 -1.65636E+04 -2.30135E+04 -3.72056E+04
  7.15924E+03 -3.70520E+04  3.06827E+04 -1.41240E+04  2.85188E+04  1.11026E+04  3.58478E+03  1.88455E+04
 -1.33125E+04  8.14014E+03 -1.02812E+04 -7.47152E+03  5.80795E+03 -1.03946E+04  1.78046E+04  6.29163E+03
  1.34796E+04  2.18716E+04 -6.36965E+03  2.46962E+04 -2.20775E+04  1.09293E+04 -2.71646E+04 -4.92381E+03
 -1.97282E+04 -1.73284E+04 -8.00770E+03 -1.94375E+04  4.35289E+03 -1.82749E+04  1.51162E+04 -1.73318E+04
  2.47627E+04 -1.22812E+04  3.12601E+04  2.43985E+03  2.28661E+04  1.91668E+04  4.08633E+03  3.52611E+04
 -1.74151E+04  2.96755E+04 -2.74124E+04  9.95827E+03 -2.03811E+04 -1.02040E+04 -4.05059E+03 -1.33343E+04
  2.20492E+03 -3.30377E+03 -4.46697E+03  6.38300E+03 -1.52078E+04  5.14144E+03 -1.53884E+04 -6.49045E+03
 -9.65154E+03 -1.77688E+04  4.95833E+03 -2.20578E+04  1.46949E+04 -1.57030E+04  1.69559E+04 -1.54353E+03
  1.04658E+04  1.22012E+04 -1.09553E+03  1.81357E+04 -1.23779E+04  1.04299E+04 -1.77559E+04 -3.58609E+03
 -1.31459E+04 -1.65595E+04 -1.69946E+03 -2.19929E+04  9.62272E+03 -1.77436E+04  1.79677E+04 -8.69468E+03
  1.68008E+04  2.93090E+02  1.22250E+04  4.11578E+03  6.18087E+03  6.79110E+02  9.20063E+03 -1.55642E+03
  1.61419E+04  2.87472E+03  1.76663E+04  1.42788E+04  1.14341E+04  2.84741E+04 -2.97775E+03  3.18346E+04
 -1.83243E+04  2.52993E+04 -2.93669E+04  1.20154E+04 -3.03377E+04 -2.13294E+03 -2.53667E+04 -1.73298E+04
 -1.12690E+04 -2.51230E+04  8.45554E+03 -2.27866E+04  1.96667E+04 -1.18776E+04  1.78509E+04  4.91099E+03
  6.67248E+03  1.32821E+04 -8.18676E+03  1.17952E+04 -1.53228E+04  2.61227E+03 -1.16349E+04 -9.36659E+03
  1.05003E+02 -1.42097E+04  7.08689E+03 -1.10015E+04  9.03055E+03 -1.22515E+03  1.57467E+03  6.12825E+03
 -6.38304E+03  2.29436E+03 -5.10793E+03 -5.27142E+03 -6.50436E+00 -1.21742E+04  8.93118E+03 -1.24043E+04
  1.50072E+04 -6.56061E+03  1.54324E+04  2.87174E+03  1.34768E+04  1.17179E+04  6.38484E+03  1.82481E+04
 -2.75732E+03  1.96353E+04 -1.22205E+04  1.24367E+04 -1.38483E+04  3.21616E+03 -1.01450E+04 -2.91723E+03
 -4.81773E+03 -4.40563E+03 -8.23013E+02  1.14374E+03 -2.16664E+03  2.39079E+03 -4.79895E+03  4.29640E+03
 -9.40156E+03 -6.81396E+02 -1.00762E+04 -8.08178E+03 -3.99377E+03 -1.33828E+04  4.39777E+03 -1.00968E+04
  8.72949E+03 -4.14116E+03  6.31539E+03  2.77557E+03  1.05459E+02  4.05137E+03 -4.37958E+03 -2.45277E+02
 -4.59364E+03 -6.02512E+03 -8.49103E+02 -9.26730E+03  5.09479E+03 -9.80892E+03  1.22889E+04 -4.98386E+03
  1.41485E+04  1.03855E+03  1.05627E+04  7.97139E+03  2.10056E+03  1.07954E+04 -6.15966E+03  1.00033E+04
 -8.00833E+03  3.25538E+03 -4.12552E+03 -1.80873E+03  1.30860E+03 -2.63053E+03  5.44840E+03 -1.17040E+03
  4.71990E+03  3.99343E+03  1.30892E+03  7.77009E+03 -5.27366E+03  7.61466E+03 -9.65610E+03  2.26352E+03
 -6.08389E+03 -4.83405E+03  4.94579E+02 -7.90116E+03  4.48937E+03 -4.07255E+03  4.91791E+03  1.56249E+03
  9.79538E+02  4.57570E+03 -5.02948E+03  5.79288E+03 -6.74140E+03  3.09311E+03 -6.08988E+03 -1.94836E+03
 -3.71056E+03 -8.10043E+03  1.70107E+03 -9.19457E+03  7.79480E+03 -5.83392E+03  8.62429E+03  1.52571E+03
  5.48083E+03  6.83800E+03 -2.67149E+02  8.60664E+03 -6.41246E+03  5.10953E+03 -6.53721E+03 -5.60780E+02
 -6.85359E+03 -6.27797E+03 -1.44849E+03 -6.70812E+03  3.41956E+03 -5.58750E+03  3.76349E+03 -3.31985E+03
  3.46232E+03  1.02289E+03  1.00292E+01  1.28296E+03  3.04281E+02 -7.23753E+02  6.90436E+02 -2.83724E+03
  4.97316E+03 -1.31739E+03  7.01681E+03  7.67454E+02  7.39481E+03  4.66556E+03  6.10714E+03  9.66682E+03
 -1.89287E+03  1.12979E+04 -9.96829E+03  8.61209E+03 -1.29239E+04  1.70082E+03 -1.03267E+04 -3.56199E+03
 -5.41010E+03 -8.60461E+03 -3.60525E+02 -6.63867E+03  2.70206E+03 -3.01527E+03  2.40120E+03 -2.53940E+03
  1.59586E+03 -1.85132E+03  2.50804E+03 -2.55093E+03  3.92043E+03 -1.70358E+03  4.31027E+03  1.03214E+02
  5.38575E+03  1.52215E+03  1.74619E+03  4.58273E+03 -1.56432E+03  4.20535E+03 -5.38150E+03  3.54668E+03
 -6.30054E+03 -1.02809E+03 -2.98022E+03 -4.34106E+03 -6.15443E+00 -6.63462E+03  3.81566E+03 -6.86419E+03
  6.78995E+03 -4.18320E+03  8.53879E+03  6.48953E+02  6.28442E+03  5.60556E+03  1.08865E+03  7.86730E+03
 -2.73038E+03  7.25425E+03 -4.27126E+03  2.50987E+03 -2.91094E+03 -1.18368E+03 -8.74978E+02 -1.00225E+03
 -7.82289E+02  2.85602E+02 -9.81417E+02  2.30761E+03 -2.90890E+03  1.35097E+03 -4.95856E+03 -2.72517E+02
 -2.28661E+03 -4.87290E+03  1.05418E+03 -5.90466E+03  3.24948E+03 -5.56398E+03  5.35113E+03 -1.63960E+03
  5.30703E+03  2.87167E+03  2.47652E+03  4.99892E+03 -8.36690E+02  6.08055E+03 -3.81456E+03  3.49872E+03
 -5.30402E+03  7.16125E+02 -4.05208E+03 -3.30596E+03 -2.75137E+02 -4.29101E+03  2.07655E+03 -3.28930E+03
  3.62982E+03 -1.31400E+03  1.97474E+03  9.75350E+02  7.54676E+02  1.78197E+03  9.43869E+02  7.39511E+02
  1.81997E+03  5.85415E+02  1.38483E+03  1.12530E+03  1.32488E+03  2.47328E+03  1.70102E+03  2.53902E+03
 -1.49879E+03  4.10952E+03 -3.55168E+03  5.17094E+03 -4.34180E+03  1.28189E+03 -5.71486E+03 -1.33850E+03
 -2.22139E+03 -5.05124E+03  8.88555E+02 -6.21451E+03  2.68682E+03 -3.79813E+03  4.09490E+03 -1.23469E+03
  3.18126E+03  2.28094E+03  6.29829E+02  2.87563E+03 -9.91773E+02  1.84867E+03 -1.43128E+03 -6.54614E+01
 -6.25831E+02 -2.10748E+03  1.31401E+03 -2.17403E+03  1.73263E+03 -1.32382E+03  2.07536E+03  4.18870E+02
  1.07923E+03  4.85531E+02  6.92728E+02 -1.72201E+02 -4.52335E+02  8.45878E+02  1.67575E+03 -1.15996E+02
 -1.27252E+02 -2.58551E+02  2.32468E+03  9.15235E+02  6.64931E+02  2.90908E+03 -2.15162E+02  3.51755E+03
 -2.08173E+03  1.86814E+03 -2.80027E+03  2.11659E+02 -2.79400E+03 -1.01034E+03 -4.36210E+02 -1.38228E+03
  4.19180E+02 -1.65699E+03  1.26033E+03 -9.06656E+02  9.73849E+02  1.67042E+03 -7.32201E+02  1.56792E+03
 -1.68707E+03  1.18508E+03 -1.65405E+03 -1.73860E+03 -1.01028E+03 -2.75878E+03  1.45314E+02 -2.29905E+03
  6.90902E+02 -6.28377E+02  1.22717E+03  7.91554E+01  1.62422E+03  4.86381E+01  2.02415E+02  1.55691E+03
 -4.19580E+02  4.12031E+01 -1.49742E+03 -5.55833E+02  9.04836E+02 -1.42897E+03  2.08941E+03 -1.64439E+03
  2.07070E+03  4.55259E+02  3.51681E+03  1.33099E+03  1.27849E+03  2.14131E+03 -6.37009E+02  2.51965E+03
 -1.86040E+03  7.07488E+02 -2.19463E+03 -1.01794E+02 -1.00789E+03 -1.88728E+03  5.19044E+02 -8.13736E+02
  1.86660E+03 -9.60456E+02  1.17190E+03  7.89472E+02  1.95747E+02  1.75269E+03  2.44652E+02  1.21372E+03
 -4.03343E+02  1.17941E+03 -6.35788E+02  4.73873E+02 -3.04050E+02  6.65606E+02 -5.65582E+02  4.69741E+02
 -8.26027E+02  1.08965E+03 -1.92406E+03  5.08446E+02 -2.23439E+03  1.24941E+02 -3.05110E+03 -1.33046E+03
 -1.11948E+03 -2.73786E+03  5.62642E+02 -3.86788E+03  1.91827E+03 -3.41907E+03  3.49425E+03 -1.09321E+03
  3.09269E+03  9.96217E+01  1.48311E+03  1.74187E+03 -2.96778E+02  2.05948E+03 -7.81948E+02  1.51150E+03
 -1.35518E+03  1.07539E+03 -6.53029E+02 -9.99812E+01 -5.11541E+02  2.29176E+02 -6.52152E+02  3.74416E+02
 -1.21316E+03  2.18470E+02 -9.92304E+02 -1.65826E+02 -6.90491E+01 -6.18663E+02 -1.68219E+02 -1.17776E+03
  1.44762E+03 -8.35271E+02  7.59383E+02  2.36179E+01  1.73897E+03  1.36070E+03 -3.00413E+02  1.97784E+03
 -1.16992E+03  3.03152E+03 -2.14091E+03  1.55272E+03 -2.28824E+03 -4.23341E+02 -1.60491E+03 -1.64154E+03
 -9.23030E+02 -1.73963E+03  4.37580E+02 -1.82506E+03  7.74810E+02 -8.82760E+02  8.49591E+02 -5.98868E+01
  7.19602E+02  5.02866E+02  9.19267E+01  9.62382E+02 -5.94070E+02  2.13485E+01 -1.10786E+02 -2.79640E+02
  2.57921E+02  1.49443E+02  4.59124E+02  3.83533E+02  2.00813E+02  6.88370E+02  5.90395E+02  4.69631E+02
 -8.90288E+02  9.69947E+02 -9.55444E+02 -4.77097E+01 -1.00940E+03 -8.32504E+02  1.87282E+02 -1.85213E+03
  8.04187E+02 -8.75295E+02  8.16082E+02  1.38376E+02  1.03218E+03 -5.85889E+02  5.15074E+02  9.83803E+02
  2.15113E+02  9.04653E+02 -2.80176E+02  6.65538E+02 -8.30083E+02  8.36525E+02 -7.49193E+02  8.77997E+01
 -1.18006E+02 -2.26346E+02 -4.71934E+02  3.88298E+02 -7.87348E+02  1.50344E+02 -1.06736E+03 -4.21513E+02
 -1.18379E+03 -5.86900E+01 -4.27164E+02 -1.52612E+03  6.17491E+02 -1.66758E+03  1.24960E+03 -2.98562E+02
  9.30513E+02  2.84252E+01  1.25837E+01  1.77132E+02 -2.33485E+02  1.48479E+03 -6.49700E+02  7.51990E+02
