 $NMID ID='MM_0lb_SNR800_14hz_g55_57.RAW', FMTDAT='(8E13.5)'
 TRAMP=1., VOLUME=1. $END
  3.09779E+05  2.54212E+02  3.37475E+05  2.50727E+05  8.49043E+04  3.38287E+05 -1.32242E+05  2.50871E+05
 -1.90148E+05  8.31285E+04 -1.12038E+05 -3.27286E+04  5.80247E+02 -5.02914E+04  5.36927E+04 -3.06780E+02
  3.50969E+04  5.30862E+04 -1.69846E+04  7.55807E+04 -6.09872E+04  6.35632E+04 -8.44951E+04  3.20816E+04
 -8.13719E+04 -1.13302E+04 -5.75753E+04 -5.14508E+04 -1.51000E+04 -6.97867E+04  2.74825E+04 -4.56784E+04
  4.01089E+04  3.64545E+03  1.65573E+04  4.79073E+04 -3.44451E+04  4.76310E+04 -6.69631E+04 -1.18314E+02
 -5.34942E+04 -5.69074E+04 -6.89010E+03 -7.73417E+04  3.40885E+04 -5.53642E+04  4.85226E+04 -1.75028E+04
  4.40391E+04  1.14522E+04  3.20196E+04  2.56797E+04  1.58347E+04  2.98665E+04 -5.55539E+03  2.70523E+04
 -2.21586E+04  1.25130E+04 -1.84145E+04 -4.95702E+03  6.43256E+03 -7.43693E+03  2.25566E+04  1.26569E+04
  7.09972E+03  3.58251E+04 -3.24450E+04  3.56325E+04 -6.37308E+04  2.26856E+03 -5.76454E+04 -4.33029E+04
 -1.25311E+04 -6.37860E+04  4.01988E+04 -4.56943E+04  5.87097E+04 -2.28685E+03  3.46545E+04  3.28974E+04
 -5.87145E+03  3.66060E+04 -3.01898E+04  1.65032E+04 -3.07147E+04 -4.36043E+03 -1.73700E+04 -1.13382E+04
 -8.46665E+03 -1.34538E+04 -7.77762E+02 -1.82554E+04  7.65308E+03 -2.29176E+04  1.55941E+04 -1.31270E+04
  1.11189E+04  5.48700E+03 -8.92009E+03  1.25699E+04 -2.17325E+04 -4.77056E+03 -7.95200E+03 -3.44321E+04
  2.29322E+04 -4.40356E+04  4.88879E+04 -1.97636E+04  4.55099E+04  1.98766E+04  1.60790E+04  4.48580E+04
 -1.62329E+04  3.41324E+04 -2.60640E+04  1.53389E+03 -1.00974E+04 -2.82553E+04  2.11106E+04 -3.45535E+04
  4.17466E+04 -9.53051E+03  3.65046E+04  2.40904E+04  1.86773E+04  4.72818E+04 -7.83750E+03  5.11706E+04
 -3.23996E+04  3.46104E+04 -4.26841E+04  9.67323E+03 -4.37721E+04 -1.68674E+04 -2.41517E+04 -3.84773E+04
  7.40374E+03 -3.85640E+04  3.20901E+04 -1.55682E+04  2.95818E+04  1.11310E+04  4.23040E+03  1.98497E+04
 -1.34817E+04  8.59888E+03 -1.06307E+04 -7.45468E+03  5.43195E+03 -1.08899E+04  1.82708E+04  6.26697E+03
  1.34291E+04  2.19500E+04 -5.73251E+03  2.49932E+04 -2.25611E+04  1.20055E+04 -2.87875E+04 -4.51328E+03
 -2.14578E+04 -1.73882E+04 -9.07997E+03 -2.13549E+04  4.29680E+03 -2.05723E+04  1.65520E+04 -1.90514E+04
  2.71214E+04 -1.29717E+04  3.38236E+04  3.18647E+03  2.43013E+04  2.04802E+04  4.33264E+03  3.72126E+04
 -1.83455E+04  3.06609E+04 -2.84913E+04  1.04353E+04 -2.11293E+04 -1.05023E+04 -4.54239E+03 -1.30763E+04
  1.77413E+03 -2.63756E+03 -5.28639E+03  6.70927E+03 -1.68989E+04  5.07850E+03 -1.67713E+04 -7.09780E+03
 -1.04345E+04 -1.96300E+04  5.26926E+03 -2.35899E+04  1.57617E+04 -1.70041E+04  1.86176E+04 -1.82298E+03
  1.18264E+04  1.37060E+04 -1.04661E+03  1.95377E+04 -1.37752E+04  1.12663E+04 -1.94764E+04 -4.26237E+03
 -1.43771E+04 -1.78275E+04 -1.98994E+03 -2.36991E+04  1.06902E+04 -1.93963E+04  1.95309E+04 -9.74800E+03
  1.83336E+04  4.60133E+02  1.32535E+04  4.37088E+03  7.00264E+03  1.25202E+03  1.01974E+04 -1.61316E+03
  1.81419E+04  2.82305E+03  2.01784E+04  1.56710E+04  1.32600E+04  3.12786E+04 -2.77698E+03  3.53685E+04
 -2.05209E+04  2.86465E+04 -3.29533E+04  1.44049E+04 -3.49022E+04 -2.36094E+03 -2.87947E+04 -2.00363E+04
 -1.21892E+04 -2.89324E+04  1.00647E+04 -2.59039E+04  2.20395E+04 -1.29502E+04  1.98911E+04  5.57150E+03
  7.65520E+03  1.49297E+04 -9.40613E+03  1.28828E+04 -1.64797E+04  2.56313E+03 -1.25103E+04 -1.04039E+04
 -1.02803E+02 -1.56164E+04  8.08596E+03 -1.15526E+04  1.05690E+04 -1.58096E+03  2.28775E+03  6.74449E+03
 -7.00289E+03  2.62475E+03 -5.98267E+03 -6.03434E+03 -8.37150E+02 -1.40993E+04  9.49260E+03 -1.49266E+04
  1.75738E+04 -7.88745E+03  1.91046E+04  2.98503E+03  1.63803E+04  1.38259E+04  7.51614E+03  2.12875E+04
 -3.65695E+03  2.33215E+04 -1.50089E+04  1.45127E+04 -1.68376E+04  3.60084E+03 -1.16366E+04 -3.88265E+03
 -5.28504E+03 -5.20413E+03 -7.00355E+02  1.28935E+03 -2.37492E+03  2.23020E+03 -5.39723E+03  4.44224E+03
 -1.11749E+04 -5.84502E+02 -1.18990E+04 -9.25266E+03 -4.60752E+03 -1.51935E+04  4.99143E+03 -1.16474E+04
  9.55505E+03 -5.06268E+03  6.86706E+03  2.92236E+03  2.91340E+01  4.30870E+03 -5.39840E+03  3.18270E+02
 -5.27798E+03 -7.23278E+03 -6.26489E+02 -1.10928E+04  6.26349E+03 -1.21038E+04  1.46602E+04 -6.06538E+03
  1.69408E+04  1.53320E+03  1.26267E+04  1.02648E+04  2.80261E+03  1.32327E+04 -7.15863E+03  1.16012E+04
 -9.31611E+03  3.35465E+03 -4.91815E+03 -2.09096E+03  2.05867E+03 -3.40904E+03  6.30891E+03 -9.39033E+02
  5.46664E+03  4.95373E+03  1.45190E+03  9.26415E+03 -6.49678E+03  8.68052E+03 -1.15373E+04  2.18788E+03
 -7.71419E+03 -5.60719E+03  4.51480E+02 -9.83544E+03  6.36043E+03 -5.00047E+03  5.97381E+03  2.01296E+03
  1.52798E+03  6.23333E+03 -5.80562E+03  8.05143E+03 -8.64798E+03  3.57712E+03 -8.65275E+03 -2.93089E+03
 -5.22016E+03 -1.02681E+04  2.50165E+03 -1.19838E+04  9.91550E+03 -7.22108E+03  1.11012E+04  1.96425E+03
  7.03195E+03  8.87752E+03 -7.80605E+02  1.10195E+04 -8.01966E+03  6.45092E+03 -8.76061E+03 -1.04817E+03
 -7.79626E+03 -7.33638E+03 -1.60962E+03 -7.74664E+03  4.48720E+03 -6.93711E+03  5.02633E+03 -3.47882E+03
  3.84967E+03  9.36874E+02 -4.29265E+02  1.32908E+03  1.28794E+02 -1.60063E+03  1.43195E+03 -4.27314E+03
  7.03494E+03 -2.42904E+03  9.92653E+03  1.39818E+03  9.80619E+03  6.65796E+03  7.57658E+03  1.28082E+04
 -2.80349E+03  1.48674E+04 -1.28341E+04  1.14685E+04 -1.62641E+04  1.90243E+03 -1.34647E+04 -5.44548E+03
 -6.72261E+03 -1.09903E+04 -7.21655E+02 -8.88624E+03  3.41497E+03 -4.69469E+03  2.95991E+03 -3.27463E+03
  2.35637E+03 -2.15565E+03  3.13672E+03 -3.14614E+03  4.82469E+03 -2.07197E+03  5.52958E+03 -2.26481E+02
  6.80900E+03  1.76111E+03  3.14250E+03  6.00778E+03 -1.76155E+03  6.25056E+03 -7.39830E+03  5.24594E+03
 -9.00468E+03 -1.22400E+03 -4.77239E+03 -5.80589E+03 -6.05068E+02 -9.44297E+03  5.32172E+03 -9.63598E+03
  9.25414E+03 -5.46839E+03  1.17215E+04  1.07844E+03  8.30433E+03  7.88451E+03  1.61731E+03  1.06692E+04
 -4.23626E+03  9.03808E+03 -5.88536E+03  3.28164E+03 -3.97409E+03 -1.19200E+03 -1.10076E+03 -1.12786E+03
 -7.72228E+02  1.87909E+02 -1.73061E+03  2.52163E+03 -4.14738E+03  1.55248E+03 -6.23550E+03 -8.18224E+02
 -3.51025E+03 -6.16053E+03  6.13370E+02 -8.94549E+03  5.44642E+03 -7.89679E+03  7.77452E+03 -2.15254E+03
  7.89235E+03  3.88750E+03  3.76469E+03  7.16725E+03 -1.56095E+03  8.55420E+03 -5.86723E+03  5.33511E+03
 -7.49403E+03  5.55600E+02 -5.93595E+03 -4.90306E+03 -4.88131E+02 -6.95204E+03  3.05173E+03 -4.76523E+03
  5.06792E+03 -2.11876E+03  3.22255E+03  1.33088E+03  1.34012E+03  2.81930E+03  8.27116E+02  8.99594E+02
  1.88808E+03  5.97931E+02  1.93648E+03  1.27234E+03  2.21754E+03  3.16658E+03  2.61806E+03  4.01786E+03
 -1.92711E+03  6.38271E+03 -5.21904E+03  6.62058E+03 -7.28559E+03  2.15995E+03 -8.30232E+03 -2.51733E+03
 -3.51369E+03 -7.68807E+03  1.08602E+03 -9.16096E+03  4.72646E+03 -5.57063E+03  6.42798E+03 -1.69874E+03
  5.23467E+03  3.20086E+03  1.09383E+03  4.61840E+03 -2.11801E+03  2.87857E+03 -2.83776E+03 -7.51556E+02
 -1.23269E+03 -3.45040E+03  2.09027E+03 -3.02004E+03  3.01317E+03 -1.49804E+03  2.96121E+03  7.83891E+02
  1.58095E+03  1.24281E+03  6.23133E+02  6.28580E+02 -5.56037E+02  1.12499E+03  1.49152E+03 -1.70042E+02
  7.78978E+02 -5.68377E+02  3.12239E+03  1.27057E+03  1.72094E+03  4.30440E+03 -7.64115E+02  5.63009E+03
 -3.57773E+03  3.13294E+03 -4.54008E+03  8.33103E+02 -4.38836E+03 -1.72723E+03 -1.28807E+03 -2.82342E+03
  6.98841E+02 -2.95560E+03  1.87350E+03 -1.43698E+03  1.70227E+03  1.85870E+03 -8.36811E+02  2.52279E+03
 -3.47340E+03  1.97409E+03 -3.07584E+03 -2.39120E+03 -1.89414E+03 -4.52433E+03  4.99142E+02 -3.92291E+03
  2.10184E+03 -2.00269E+03  2.39873E+03  2.11742E+02  2.55138E+03  5.64605E+02  4.83978E+02  2.37270E+03
 -8.85193E+02  6.59034E+02 -1.89736E+03 -1.04065E+03  1.09329E+03 -2.87141E+03  3.54175E+03 -1.92860E+03
  4.07387E+03  4.58514E+02  4.80588E+03  2.51545E+03  2.18446E+03  4.27490E+03 -1.30429E+03  4.35010E+03
 -3.43522E+03  1.60766E+03 -3.43716E+03 -5.68231E+02 -2.06571E+03 -2.93379E+03  5.51763E+02 -2.38972E+03
  3.22957E+03 -1.49235E+03  1.99254E+03  1.56595E+03  3.06133E+02  2.63036E+03 -1.31084E+02  2.19584E+03
 -8.52821E+02  1.74336E+03 -1.04713E+03  4.57153E+02 -1.09145E+02  6.25307E+02 -1.10296E+03  1.00405E+03
 -1.12580E+03  2.21720E+03 -3.22155E+03  1.54774E+03 -4.05404E+03  3.14173E+02 -5.39259E+03 -2.84230E+03
 -2.79282E+03 -5.43666E+03  1.04038E+03 -6.85816E+03  3.37025E+03 -5.30602E+03  6.51372E+03 -2.38385E+03
  5.57490E+03  6.32235E+02  3.20374E+03  4.11706E+03 -9.00769E+01  4.05831E+03 -1.83560E+03  3.10523E+03
 -2.37424E+03  1.62121E+03 -1.40114E+03 -6.02498E+02 -6.20836E+02 -2.20834E+02 -4.40830E+02  2.03519E+02
 -1.35349E+03  1.69888E+02 -1.42885E+03 -2.08705E+02  6.87890E+01 -1.12115E+03 -2.32625E+02 -1.72253E+03
  2.20266E+03 -1.54196E+03  2.34125E+03  3.89004E+01  3.20179E+03  2.64482E+03  2.03291E+02  3.85580E+03
 -2.05082E+03  5.00122E+03 -4.35200E+03  2.94190E+03 -4.90528E+03 -3.50603E+02 -3.49710E+03 -3.28387E+03
 -2.16663E+03 -3.88244E+03  1.00185E+03 -3.48125E+03  2.43731E+03 -1.96750E+03  2.60758E+03  3.62364E+02
  1.62080E+03  8.07885E+02  4.36041E+01  1.10090E+03 -8.24271E+02 -4.34991E+01 -1.06121E+02 -1.03184E+03
  1.26048E+03 -1.46140E+02  1.31072E+03  8.86830E+02  7.36585E+02  1.62133E+03  3.00330E+02  1.78256E+03
 -1.77368E+03  1.57040E+03 -2.08436E+03  2.55754E+02 -2.29653E+03 -1.92832E+03 -3.95782E+02 -3.39043E+03
  1.74404E+03 -2.61582E+03  2.21032E+03 -5.66753E+02  2.74250E+03  1.32277E+02  1.66933E+03  2.21412E+03
  5.23682E+02  2.07083E+03 -8.64563E+02  1.79069E+03 -1.81542E+03  1.37883E+03 -1.54886E+03  2.64946E+02
 -4.22329E+02 -8.67151E+01 -3.08175E+02  2.41912E+02 -1.44334E+03  2.99421E+02 -1.59296E+03 -4.55678E+02
 -2.12431E+03 -7.43245E+02 -6.45042E+02 -2.37406E+03  1.52493E+03 -3.09052E+03  2.48027E+03 -8.37061E+02
  2.15102E+03  3.94256E+02  3.96045E+02  1.16249E+03 -3.87023E+02  2.17927E+03 -1.77334E+03  1.72788E+03
