 $NMID ID='MM_0lb_SNR800_8hz_g45_79.RAW', FMTDAT='(8E13.5)'
 TRAMP=1., VOLUME=1. $END
  3.09872E+05  2.62744E+02  3.38062E+05  2.50305E+05  8.49124E+04  3.38431E+05 -1.32857E+05  2.52136E+05
 -1.91201E+05  8.37041E+04 -1.12718E+05 -3.23106E+04  5.71205E+01 -5.03691E+04  5.35180E+04 -3.98068E+02
  3.51671E+04  5.30013E+04 -1.63310E+04  7.61349E+04 -6.10648E+04  6.46430E+04 -8.54686E+04  3.24601E+04
 -8.21028E+04 -1.17803E+04 -5.87247E+04 -5.21804E+04 -1.53835E+04 -7.10887E+04  2.79053E+04 -4.66647E+04
  4.12602E+04  3.84233E+03  1.68675E+04  4.88503E+04 -3.49696E+04  4.86725E+04 -6.85164E+04  4.81383E+01
 -5.50302E+04 -5.84123E+04 -7.57341E+03 -7.94151E+04  3.47533E+04 -5.72605E+04  4.99261E+04 -1.84541E+04
  4.56448E+04  1.15151E+04  3.33697E+04  2.67152E+04  1.59217E+04  3.07276E+04 -5.84589E+03  2.77160E+04
 -2.23048E+04  1.17492E+04 -1.79826E+04 -5.96695E+03  7.21579E+03 -7.17390E+03  2.36393E+04  1.37383E+04
  7.03665E+03  3.76873E+04 -3.41560E+04  3.73077E+04 -6.59339E+04  1.73489E+03 -5.92654E+04 -4.42722E+04
 -1.30899E+04 -6.59232E+04  4.18114E+04 -4.74167E+04  6.15795E+04 -2.40610E+03  3.71025E+04  3.46010E+04
 -5.43712E+03  4.00017E+04 -3.19134E+04  1.88218E+04 -3.36392E+04 -3.63267E+03 -1.90452E+04 -1.19707E+04
 -9.44571E+03 -1.55898E+04 -6.34729E+02 -1.99943E+04  8.59635E+03 -2.33181E+04  1.60235E+04 -1.28011E+04
  1.05435E+04  6.34391E+03 -1.03022E+04  1.25239E+04 -2.36002E+04 -6.88835E+03 -8.44998E+03 -3.83699E+04
  2.53369E+04 -4.73680E+04  5.21705E+04 -2.08586E+04  4.92459E+04  2.09047E+04  1.78689E+04  4.73177E+04
 -1.73612E+04  3.63531E+04 -2.77137E+04  2.97857E+03 -1.16221E+04 -2.97536E+04  2.15926E+04 -3.71420E+04
  4.50026E+04 -1.14961E+04  4.08523E+04  2.51108E+04  2.16078E+04  5.16415E+04 -8.16279E+03  5.65635E+04
 -3.60087E+04  3.90444E+04 -4.79233E+04  1.11990E+04 -4.73814E+04 -1.89155E+04 -2.67692E+04 -4.20528E+04
  7.88525E+03 -4.26468E+04  3.47669E+04 -1.71946E+04  3.24735E+04  1.13297E+04  5.45584E+03  2.10911E+04
 -1.37299E+04  9.81136E+03 -1.09981E+04 -7.53104E+03  5.63167E+03 -1.12830E+04  1.86820E+04  5.75823E+03
  1.53021E+04  2.26344E+04 -5.41971E+03  2.71536E+04 -2.36297E+04  1.44647E+04 -3.16696E+04 -2.82858E+03
 -2.58855E+04 -1.88664E+04 -1.20964E+04 -2.55692E+04  4.84185E+03 -2.66079E+04  2.06889E+04 -2.32506E+04
  3.29574E+04 -1.43063E+04  3.89765E+04  5.53113E+03  2.76641E+04  2.51001E+04  4.84028E+03  4.21858E+04
 -2.01804E+04  3.39712E+04 -3.06646E+04  1.16012E+04 -2.23855E+04 -1.00694E+04 -4.69420E+03 -1.33371E+04
  9.27923E+02 -1.28036E+03 -8.47080E+03  8.90166E+03 -2.07384E+04  5.15962E+03 -2.02617E+04 -9.87670E+03
 -1.18620E+04 -2.36540E+04  6.45737E+03 -2.81612E+04  1.94263E+04 -2.01236E+04  2.29940E+04 -1.40967E+03
  1.44764E+04  1.58541E+04 -1.17053E+03  2.41451E+04 -1.73431E+04  1.34752E+04 -2.43332E+04 -4.79083E+03
 -1.74894E+04 -2.19312E+04 -1.85596E+03 -2.86296E+04  1.31479E+04 -2.39726E+04  2.33552E+04 -1.24879E+04
  2.22358E+04 -3.98752E+02  1.62344E+04  5.11208E+03  8.90185E+03  1.51937E+03  1.22737E+04 -2.00589E+03
  2.26366E+04  2.98823E+03  2.62664E+04  1.85260E+04  1.76008E+04  3.84653E+04 -2.63976E+03  4.55598E+04
 -2.60842E+04  3.79580E+04 -4.32546E+04  1.96400E+04 -4.60218E+04 -3.23292E+03 -3.74410E+04 -2.69082E+04
 -1.46751E+04 -3.84248E+04  1.33092E+04 -3.35545E+04  2.86832E+04 -1.56903E+04  2.42827E+04  8.21381E+03
  8.03105E+03  1.89311E+04 -1.18341E+04  1.62913E+04 -2.06240E+04  2.48527E+03 -1.54769E+04 -1.34172E+04
 -4.41446E+02 -1.98833E+04  1.09458E+04 -1.48105E+04  1.40691E+04 -1.61810E+03  3.43128E+03  9.04143E+03
 -8.70038E+03  4.23407E+03 -1.00928E+04 -7.02786E+03 -1.66810E+03 -1.88219E+04  1.24500E+04 -2.07080E+04
  2.36388E+04 -1.21730E+04  2.67104E+04  3.14038E+03  2.41619E+04  1.95237E+04  1.11275E+04  3.07259E+04
 -6.11578E+03  3.25197E+04 -2.12291E+04  1.98022E+04 -2.33493E+04  4.00782E+03 -1.61127E+04 -6.30894E+03
 -6.44409E+03 -7.37792E+03 -8.30522E+02  6.61290E+01 -3.08843E+03  3.61944E+03 -7.86580E+03  5.34735E+03
 -1.49458E+04 -1.05545E+03 -1.54277E+04 -1.22231E+04 -6.16717E+03 -2.00456E+04  6.78554E+03 -1.65518E+04
  1.38230E+04 -6.71712E+03  9.27537E+03  4.76055E+03 -7.00871E+02  6.55305E+03 -8.44923E+03 -3.34728E+01
 -7.76745E+03 -1.01921E+04 -1.09996E+03 -1.63540E+04  1.03029E+04 -1.70418E+04  2.08106E+04 -9.18942E+03
  2.40110E+04  2.80933E+03  1.79363E+04  1.49390E+04  3.29159E+03  2.02698E+04 -9.75757E+03  1.61370E+04
 -1.31946E+04  4.50385E+03 -6.91915E+03 -3.52199E+03  2.18335E+03 -4.63569E+03  8.64193E+03 -9.35978E+02
  7.57010E+03  6.89720E+03  1.28847E+03  1.32647E+04 -9.41778E+03  1.25128E+04 -1.64768E+04  3.22744E+03
 -1.14243E+04 -8.44986E+03  2.07491E+02 -1.43389E+04  9.09463E+03 -7.28098E+03  1.00521E+04  3.69132E+03
  2.36564E+03  1.09046E+04 -8.92802E+03  1.26853E+04 -1.40519E+04  5.40943E+03 -1.50110E+04 -5.07244E+03
 -8.49907E+03 -1.72558E+04  4.25979E+03 -1.97953E+04  1.66927E+04 -1.13471E+04  1.78928E+04  3.01492E+03
  1.04187E+04  1.39213E+04 -2.05983E+03  1.70896E+04 -1.21823E+04  8.92057E+03 -1.40179E+04 -1.51428E+03
 -1.09643E+04 -1.09663E+04 -1.78969E+03 -1.30287E+04  6.82757E+03 -1.04241E+04  8.23244E+03 -3.83023E+03
  5.25060E+03  1.84761E+03 -1.69530E+03  2.18359E+03 -1.00103E+03 -3.76140E+03  3.56226E+03 -8.18867E+03
  1.23081E+04 -5.45862E+03  1.74396E+04  1.93319E+03  1.65847E+04  1.20701E+04  1.05962E+04  2.20606E+04
 -5.29821E+03  2.56215E+04 -2.15174E+04  1.91703E+04 -2.73885E+04  3.53502E+03 -2.25833E+04 -9.72197E+03
 -1.10486E+04 -1.83036E+04 -3.60686E+02 -1.58006E+04  5.51832E+03 -8.87088E+03  5.13201E+03 -5.69316E+03
  4.17706E+03 -2.79285E+03  4.31138E+03 -4.08366E+03  6.40925E+03 -3.86399E+03  8.70067E+03 -1.98250E+03
  1.12349E+04  2.45122E+03  6.06958E+03  9.91188E+03 -2.66119E+03  1.20927E+04 -1.17661E+04  9.75445E+03
 -1.59295E+04 -1.45772E+03 -1.05591E+04 -1.08203E+04 -1.68059E+03 -1.70727E+04  9.63572E+03 -1.68695E+04
  1.81968E+04 -9.32266E+03  2.08433E+04  2.72900E+03  1.42865E+04  1.48145E+04  2.20911E+03  1.87621E+04
 -8.00688E+03  1.55014E+04 -1.10673E+04  5.72618E+03 -7.81559E+03 -2.53120E+03 -3.11792E+03 -2.59980E+03
 -1.49723E+03 -2.10029E+02 -2.62288E+03  3.02936E+03 -6.77038E+03  3.05978E+03 -1.06597E+04 -1.39122E+03
 -7.85753E+03 -1.03419E+04 -3.81623E+02 -1.59573E+04  1.04016E+04 -1.49537E+04  1.65805E+04 -4.79714E+03
  1.56698E+04  7.70436E+03  7.45810E+03  1.45706E+04 -3.35334E+03  1.61302E+04 -1.20389E+04  1.00747E+04
 -1.54428E+04  7.18778E+02 -1.18363E+04 -9.51868E+03 -1.37639E+03 -1.34257E+04  7.18345E+03 -1.00979E+04
  1.02812E+04 -2.86966E+03  6.72000E+03  2.76891E+03  2.54907E+03  4.84394E+03  1.38657E+03  2.40769E+03
  2.98416E+03  1.58624E+03  3.50036E+03  1.95606E+03  4.56106E+03  5.56097E+03  4.28321E+03  8.98918E+03
 -3.08567E+03  1.35548E+04 -1.15647E+04  1.29580E+04 -1.69753E+04  3.26405E+03 -1.71820E+04 -7.05794E+03
 -8.56570E+03 -1.63764E+04  2.63605E+03 -1.82055E+04  9.88998E+03 -1.17162E+04  1.35670E+04 -3.00348E+03
  1.03970E+04  6.06244E+03  2.56726E+03  9.28473E+03 -4.59721E+03  6.54976E+03 -6.80384E+03 -1.18059E+03
 -3.31591E+03 -7.21373E+03  3.62285E+03 -7.45474E+03  7.43817E+03 -3.81373E+03  6.83101E+03  2.01114E+03
  4.65882E+03  3.61735E+03  1.34411E+03  2.91758E+03 -8.19452E+02  2.48857E+03  1.63169E+03 -5.56043E+02
  3.03331E+03 -9.87492E+02  6.27595E+03  2.61455E+03  3.96875E+03  8.64571E+03 -1.82259E+03  1.20657E+04
 -8.32844E+03  7.88159E+03 -1.07892E+04  2.50316E+03 -9.72024E+03 -3.52803E+03 -3.64229E+03 -6.87459E+03
  8.39937E+02 -6.72131E+03  4.10532E+03 -3.24293E+03  3.81662E+03  3.42082E+03 -1.74293E+03  5.19098E+03
 -6.99242E+03  3.37238E+03 -8.41361E+03 -3.87437E+03 -4.71629E+03 -9.30629E+03  1.42429E+03 -9.93567E+03
  5.95456E+03 -5.73947E+03  7.32669E+03 -7.38488E+02  5.92375E+03  2.58676E+03  8.63790E+02  4.93415E+03
 -3.35439E+03  1.39273E+03 -4.28018E+03 -3.32989E+03  1.89031E+03 -7.32271E+03  8.72673E+03 -5.96817E+03
  1.06031E+04  7.16592E+02  1.01931E+04  7.82443E+03  3.57169E+03  1.16177E+04 -4.21763E+03  1.07840E+04
 -9.11943E+03  4.72344E+03 -9.35637E+03 -1.63885E+03 -5.37438E+03 -7.68196E+03  1.77180E+03 -7.18545E+03
  7.53197E+03 -3.16645E+03  6.19128E+03  3.03562E+03  1.88441E+03  6.07807E+03 -1.01266E+03  5.98796E+03
 -2.92162E+03  3.47412E+03 -2.20446E+03  1.21235E+03 -1.45401E+03  1.04123E+03 -1.66051E+03  2.31396E+03
 -2.75964E+03  4.88827E+03 -7.72315E+03  4.09407E+03 -1.15492E+04  4.16474E+02 -1.24076E+04 -7.91196E+03
 -6.68068E+03 -1.54833E+04  2.92096E+03 -1.77728E+04  1.12008E+04 -1.35795E+04  1.67871E+04 -5.02556E+03
  1.56630E+04  3.67292E+03  9.30393E+03  1.05982E+04  1.08204E+03  1.14100E+04 -4.64170E+03  9.15919E+03
 -7.28068E+03  3.03077E+03 -4.65900E+03 -1.42483E+03 -1.01618E+03 -1.57355E+03 -4.79569E+02 -7.33036E+01
 -1.86201E+03  3.98897E+02 -2.52196E+03 -5.91046E+02 -1.24176E+03 -3.12739E+03  3.05141E+02 -4.16381E+03
  5.18817E+03 -3.91384E+03  7.58408E+03  2.68264E+02  8.70125E+03  6.60143E+03  2.42042E+03  1.21869E+04
 -5.39185E+03  1.34433E+04 -1.27818E+04  8.07330E+03 -1.46143E+04 -1.27087E+03 -1.14355E+04 -9.21340E+03
 -4.11119E+03 -1.23979E+04  3.52465E+03 -1.11838E+04  7.78766E+03 -6.33169E+03  8.00110E+03 -1.69881E+02
  4.60904E+03  3.67488E+03 -3.91126E+02  3.08790E+03 -2.40108E+03 -2.23357E+02 -1.12673E+02 -3.17148E+03
  4.06203E+03 -2.00616E+03  5.05505E+03  1.60635E+03  3.25183E+03  5.08422E+03  2.64340E+01  6.88217E+03
 -5.42112E+03  5.77608E+03 -8.44791E+03  6.47284E+02 -7.15961E+03 -5.86246E+03 -1.11517E+03 -9.96877E+03
  5.77493E+03 -8.96290E+03  9.52795E+03 -2.77401E+03  9.29809E+03  2.93411E+03  5.16282E+03  7.89795E+03
  1.31143E+03  7.80643E+03 -3.10791E+03  6.51933E+03 -4.93758E+03  3.66646E+03 -4.44206E+03  4.14100E+02
 -2.22296E+03 -2.41513E+02 -2.18600E+03  1.07090E+03 -3.96741E+03  1.36499E+03 -6.15879E+03 -1.02694E+03
 -5.79536E+03 -4.55687E+03 -2.04515E+03 -7.90091E+03  3.47487E+03 -8.55763E+03  7.16001E+03 -4.04253E+03
  8.67890E+03  9.74059E+02  4.49038E+03  5.87224E+03 -4.60959E+02  8.76955E+03 -6.73470E+03  5.68880E+03
