 $NMID ID='MM_0lb_SNR800_15hz_g60_2.RAW', FMTDAT='(8E13.5)'
 TRAMP=1., VOLUME=1. $END
  3.09872E+05  2.99632E+02  3.37730E+05  2.50596E+05  8.50057E+04  3.38207E+05 -1.32578E+05  2.51390E+05
 -1.90491E+05  8.33629E+04 -1.12148E+05 -3.26458E+04  7.26083E+02 -5.07442E+04  5.39230E+04 -1.07970E+02
  3.55500E+04  5.30739E+04 -1.69539E+04  7.55373E+04 -6.09942E+04  6.38295E+04 -8.43669E+04  3.17321E+04
 -8.14198E+04 -1.14207E+04 -5.74501E+04 -5.16348E+04 -1.49454E+04 -6.97750E+04  2.76580E+04 -4.61465E+04
  4.01288E+04  4.15487E+03  1.62320E+04  4.80134E+04 -3.46626E+04  4.75380E+04 -6.71144E+04 -1.93680E+02
 -5.37945E+04 -5.71204E+04 -6.88725E+03 -7.76257E+04  3.40665E+04 -5.52966E+04  4.83667E+04 -1.76003E+04
  4.38958E+04  1.12793E+04  3.19381E+04  2.58403E+04  1.58171E+04  2.95661E+04 -5.24879E+03  2.73172E+04
 -2.22476E+04  1.22287E+04 -1.86816E+04 -5.18337E+03  5.78177E+03 -7.61980E+03  2.23839E+04  1.25599E+04
  7.25653E+03  3.57586E+04 -3.22104E+04  3.58168E+04 -6.38969E+04  2.16251E+03 -5.74963E+04 -4.30705E+04
 -1.25768E+04 -6.37636E+04  4.01647E+04 -4.56832E+04  5.88994E+04 -2.18759E+03  3.48396E+04  3.29821E+04
 -5.94738E+03  3.66539E+04 -3.02915E+04  1.65051E+04 -3.09355E+04 -4.37171E+03 -1.71482E+04 -1.12250E+04
 -8.45626E+03 -1.33292E+04 -4.75603E+02 -1.84131E+04  7.81180E+03 -2.31148E+04  1.56690E+04 -1.32785E+04
  1.15528E+04  5.41604E+03 -8.58886E+03  1.30837E+04 -2.20584E+04 -4.87288E+03 -8.26797E+03 -3.41935E+04
  2.35319E+04 -4.40701E+04  4.89383E+04 -1.97398E+04  4.56990E+04  1.98837E+04  1.59826E+04  4.46062E+04
 -1.62680E+04  3.37799E+04 -2.60775E+04  1.76314E+03 -1.06181E+04 -2.82001E+04  2.13199E+04 -3.42749E+04
  4.16084E+04 -9.43247E+03  3.63247E+04  2.39056E+04  1.83900E+04  4.74600E+04 -8.03800E+03  5.09492E+04
 -3.20530E+04  3.43315E+04 -4.29870E+04  9.69476E+03 -4.33983E+04 -1.68718E+04 -2.39191E+04 -3.84976E+04
  7.69733E+03 -3.85464E+04  3.22089E+04 -1.51795E+04  2.95854E+04  1.09594E+04  4.31271E+03  1.95265E+04
 -1.35204E+04  8.59324E+03 -1.06153E+04 -7.64898E+03  5.64461E+03 -1.06355E+04  1.81870E+04  6.11110E+03
  1.36754E+04  2.23597E+04 -5.68502E+03  2.55234E+04 -2.25781E+04  1.18484E+04 -2.84345E+04 -4.43624E+03
 -2.12842E+04 -1.75606E+04 -8.87661E+03 -2.11009E+04  3.99046E+03 -2.02868E+04  1.63081E+04 -1.89405E+04
  2.65258E+04 -1.31060E+04  3.33030E+04  3.06440E+03  2.42236E+04  2.05883E+04  4.46908E+03  3.70207E+04
 -1.82643E+04  3.08800E+04 -2.84051E+04  1.04406E+04 -2.12194E+04 -1.01502E+04 -4.56705E+03 -1.36557E+04
  1.26835E+03 -2.95546E+03 -5.12753E+03  6.80636E+03 -1.65735E+04  4.83684E+03 -1.65584E+04 -7.33062E+03
 -1.01267E+04 -1.92829E+04  5.27481E+03 -2.33679E+04  1.56728E+04 -1.67636E+04  1.87068E+04 -1.62178E+03
  1.20332E+04  1.35854E+04 -1.04165E+03  1.92988E+04 -1.35431E+04  1.12514E+04 -1.95521E+04 -4.05815E+03
 -1.43178E+04 -1.76512E+04 -1.90548E+03 -2.35047E+04  1.06898E+04 -1.90105E+04  1.97680E+04 -9.71192E+03
  1.83937E+04  2.03752E+02  1.30562E+04  4.62051E+03  6.72711E+03  8.74205E+02  9.89757E+03 -1.82230E+03
  1.76722E+04  2.58564E+03  2.02777E+04  1.52896E+04  1.30980E+04  3.11556E+04 -2.94809E+03  3.48976E+04
 -2.00739E+04  2.80448E+04 -3.26339E+04  1.41625E+04 -3.43937E+04 -2.43540E+03 -2.81813E+04 -1.96238E+04
 -1.18112E+04 -2.83089E+04  9.94978E+03 -2.54949E+04  2.16015E+04 -1.29404E+04  1.96312E+04  5.78002E+03
  7.26540E+03  1.46093E+04 -9.12565E+03  1.31219E+04 -1.65215E+04  2.62164E+03 -1.29504E+04 -1.03538E+04
 -2.26349E+02 -1.54459E+04  8.10113E+03 -1.15531E+04  1.05838E+04 -1.30157E+03  2.59877E+03  6.74707E+03
 -6.90167E+03  2.59636E+03 -6.05224E+03 -5.68401E+03 -3.29910E+02 -1.38023E+04  9.66913E+03 -1.44355E+04
  1.69510E+04 -7.17975E+03  1.81100E+04  3.20305E+03  1.59827E+04  1.39668E+04  7.33941E+03  2.06122E+04
 -3.40030E+03  2.23613E+04 -1.45236E+04  1.39905E+04 -1.61135E+04  3.33359E+03 -1.12810E+04 -3.85558E+03
 -5.42767E+03 -4.66407E+03 -5.94597E+02  1.04644E+03 -2.58631E+03  2.51082E+03 -5.15182E+03  4.47239E+03
 -1.04965E+04 -4.94831E+02 -1.13215E+04 -9.36032E+03 -4.87402E+03 -1.51137E+04  4.85279E+03 -1.16704E+04
  9.29829E+03 -4.74696E+03  7.01255E+03  3.23726E+03  2.77051E+02  4.40461E+03 -5.09267E+03 -2.08456E+00
 -5.25743E+03 -7.29916E+03 -9.77384E+02 -1.08502E+04  6.22876E+03 -1.13242E+04  1.43159E+04 -6.00004E+03
  1.63488E+04  1.70426E+03  1.22241E+04  9.49431E+03  2.55393E+03  1.25534E+04 -6.78393E+03  1.13936E+04
 -9.35790E+03  3.50174E+03 -4.55791E+03 -1.85007E+03  1.86879E+03 -2.77200E+03  6.34611E+03 -1.24208E+03
  5.51107E+03  4.53657E+03  9.89130E+02  8.67535E+03 -6.29397E+03  8.38379E+03 -1.08582E+04  2.32811E+03
 -7.23354E+03 -5.25968E+03  1.17255E+02 -9.36746E+03  5.53992E+03 -4.94479E+03  5.97199E+03  1.73380E+03
  9.17266E+02  5.74923E+03 -5.78144E+03  7.24769E+03 -8.24470E+03  3.49191E+03 -8.15017E+03 -2.58850E+03
 -4.61774E+03 -9.85460E+03  2.11378E+03 -1.16506E+04  9.81590E+03 -7.03790E+03  1.02842E+04  1.74825E+03
  6.42073E+03  8.16787E+03 -2.16852E+02  1.04476E+04 -7.66280E+03  5.71790E+03 -8.18009E+03 -1.01379E+03
 -7.43233E+03 -7.23620E+03 -1.67925E+03 -7.63004E+03  4.12545E+03 -6.08235E+03  4.77256E+03 -3.20662E+03
  3.45744E+03  9.68285E+02 -3.45496E+02  1.50270E+03  1.35840E+02 -1.25560E+03  8.64991E+02 -4.01549E+03
  6.25825E+03 -1.87390E+03  9.21893E+03  1.19088E+03  9.39285E+03  5.69258E+03  6.73789E+03  1.20781E+04
 -2.79056E+03  1.41046E+04 -1.20823E+04  1.05658E+04 -1.55788E+04  2.01045E+03 -1.23229E+04 -4.78155E+03
 -6.51281E+03 -1.02848E+04 -5.94640E+02 -8.63590E+03  3.13227E+03 -4.30482E+03  2.98332E+03 -3.26560E+03
  2.21131E+03 -2.24421E+03  2.85574E+03 -3.07497E+03  4.47278E+03 -1.92133E+03  5.06825E+03 -1.01544E+02
  6.49330E+03  1.70808E+03  2.80266E+03  5.48660E+03 -1.43451E+03  5.81434E+03 -7.21386E+03  4.68115E+03
 -8.02730E+03 -1.04730E+03 -4.36174E+03 -5.38565E+03  3.44264E+01 -8.19685E+03  4.88143E+03 -8.80013E+03
  8.88810E+03 -4.82593E+03  1.08299E+04  1.16947E+03  7.60125E+03  7.50821E+03  1.63015E+03  9.76681E+03
 -3.86820E+03  8.53951E+03 -5.67047E+03  3.31944E+03 -3.71421E+03 -1.59543E+03 -1.48041E+03 -9.43194E+02
 -5.93614E+02  1.91272E+02 -1.43755E+03  2.17252E+03 -3.74875E+03  1.33051E+03 -6.03598E+03 -7.56332E+02
 -3.25708E+03 -5.78813E+03  4.95368E+02 -8.05493E+03  4.70228E+03 -7.17795E+03  7.23822E+03 -2.36677E+03
  7.41683E+03  3.88715E+03  3.21985E+03  6.61685E+03 -1.25700E+03  7.22901E+03 -5.06846E+03  4.80443E+03
 -6.90151E+03  4.22599E+02 -5.72298E+03 -4.20567E+03  5.75536E+01 -5.76402E+03  3.16300E+03 -4.69170E+03
  4.82037E+03 -1.97131E+03  3.06574E+03  1.15106E+03  1.18098E+03  2.44993E+03  7.33131E+02  7.28811E+02
  1.64657E+03  6.38974E+02  1.64390E+03  8.70207E+02  1.98301E+03  2.90530E+03  2.08300E+03  3.37393E+03
 -1.57465E+03  5.32106E+03 -4.64353E+03  6.44286E+03 -6.55256E+03  2.03591E+03 -7.68277E+03 -2.08509E+03
 -3.55296E+03 -7.01093E+03  1.07091E+03 -7.84748E+03  3.76453E+03 -5.15942E+03  5.69908E+03 -1.41137E+03
  4.48115E+03  2.93837E+03  1.04677E+03  4.31448E+03 -1.87099E+03  2.18889E+03 -2.35390E+03 -3.62639E+02
 -1.16443E+03 -2.75246E+03  1.98028E+03 -2.94094E+03  2.49651E+03 -1.44698E+03  2.78648E+03  3.19993E+02
  1.59806E+03  9.66287E+02  1.22714E+03  4.45894E+02 -4.04374E+02  1.18468E+03  1.35865E+03 -2.14337E+02
  5.60539E+02 -6.99673E+02  2.62214E+03  1.17747E+03  1.23765E+03  3.89098E+03 -5.28878E+02  4.95864E+03
 -3.09874E+03  2.67925E+03 -4.16589E+03  6.64951E+02 -3.72598E+03 -1.38720E+03 -9.36233E+02 -2.54119E+03
  5.34132E+02 -2.23607E+03  1.44836E+03 -1.20701E+03  1.07991E+03  1.77459E+03 -8.53511E+02  2.25316E+03
 -2.43079E+03  1.32951E+03 -2.89801E+03 -1.77371E+03 -1.79633E+03 -3.80954E+03  2.76971E+02 -3.21991E+03
  1.55457E+03 -2.04468E+03  2.35471E+03  1.72717E+02  2.26318E+03  6.41134E+02  2.49394E+02  2.01639E+03
 -1.19632E+03  4.42131E+02 -1.50853E+03 -9.51233E+02  4.68727E+02 -2.25902E+03  3.18577E+03 -2.19399E+03
  3.47943E+03  9.24790E+02  4.04123E+03  2.05715E+03  1.59784E+03  3.62971E+03 -1.18152E+03  3.51537E+03
 -3.08270E+03  1.03152E+03 -2.78740E+03 -3.75013E+02 -1.67989E+03 -2.76869E+03  7.68754E+02 -1.58131E+03
  2.74896E+03 -1.02930E+03  1.41307E+03  1.17100E+03  5.56199E+02  2.22487E+03 -1.17017E+02  2.05237E+03
 -8.12686E+02  1.77913E+03 -1.21183E+03  1.88570E+02 -1.49097E+01  5.06792E+02 -6.87103E+02  9.40867E+02
 -9.56440E+02  1.59249E+03 -2.92528E+03  1.19250E+03 -3.59459E+03  2.42292E+02 -4.19963E+03 -2.03414E+03
 -2.00392E+03 -4.76935E+03  9.28222E+02 -5.65111E+03  3.02314E+03 -4.53030E+03  5.21781E+03 -1.75136E+03
  4.76748E+03  3.68060E+02  2.69144E+03  3.26304E+03 -2.73287E+02  3.24847E+03 -1.28834E+03  2.44600E+03
 -1.81922E+03  1.43673E+03 -1.14323E+03 -3.30076E+02 -6.31322E+02 -8.04246E+01 -8.09055E+02  3.80775E+01
 -1.20343E+03  1.30867E+02 -1.13743E+03  3.75337E+01 -6.66916E+01 -9.54524E+02 -1.50462E+02 -1.53409E+03
  1.94857E+03 -1.07233E+03  1.58044E+03  1.39482E+02  2.48912E+03  1.79229E+03  1.00208E+02  2.79544E+03
 -1.76508E+03  4.25880E+03 -3.26105E+03  2.42350E+03 -3.95500E+03 -2.86025E+02 -3.00108E+03 -2.55048E+03
 -1.60991E+03 -3.47078E+03  6.96064E+02 -3.02617E+03  1.77240E+03 -1.96224E+03  1.87385E+03  2.96320E+02
  1.27810E+03  8.58453E+02  7.86025E+01  8.02981E+02 -4.45297E+02 -3.07061E+01  1.72006E+02 -4.32567E+02
  1.07985E+03 -3.03222E+02  7.81867E+02  7.54374E+02  5.29225E+02  1.26054E+03  6.94878E+02  1.41339E+03
 -1.34979E+03  1.42151E+03 -1.65773E+03  3.26984E+01 -1.76242E+03 -1.26245E+03 -9.89630E+01 -2.87838E+03
  1.38446E+03 -1.67924E+03  1.56814E+03 -5.01854E+02  1.89892E+03 -4.35465E+02  1.43056E+03  1.76634E+03
  5.79416E+02  1.91356E+03 -5.34859E+02  1.36858E+03 -9.15624E+02  9.28449E+02 -9.60121E+02  2.65046E+02
 -5.78637E+02 -2.86613E+02 -6.75740E+02  2.95378E+02 -1.01662E+03  5.28817E+02 -1.67014E+03 -3.22373E+02
 -1.61662E+03 -1.09589E+02 -3.21312E+02 -2.31095E+03  1.16757E+03 -2.82475E+03  1.71198E+03 -4.94787E+02
  1.54655E+03  3.62849E+02  4.38676E+02  9.15909E+02  4.11538E+01  1.65400E+03 -9.50141E+02  1.44139E+03
