 $NMID ID='MM_0lb_SNR800_13hz_g50_2.RAW', FMTDAT='(8E13.5)'
 TRAMP=1., VOLUME=1. $END
  3.09715E+05  1.31397E+02  3.37818E+05  2.50461E+05  8.46183E+04  3.38152E+05 -1.32241E+05  2.51286E+05
 -1.90391E+05  8.33931E+04 -1.12155E+05 -3.28890E+04  1.00618E+03 -5.03941E+04  5.33526E+04 -4.21524E+02
  3.54028E+04  5.29740E+04 -1.68215E+04  7.57224E+04 -6.10987E+04  6.38414E+04 -8.42135E+04  3.22190E+04
 -8.11840E+04 -1.15980E+04 -5.72760E+04 -5.15989E+04 -1.50913E+04 -6.99599E+04  2.75263E+04 -4.58967E+04
  4.03752E+04  3.43431E+03  1.59068E+04  4.83315E+04 -3.45341E+04  4.76450E+04 -6.71567E+04 -3.34516E+02
 -5.33483E+04 -5.69270E+04 -7.20371E+03 -7.69018E+04  3.38726E+04 -5.59162E+04  4.85463E+04 -1.75041E+04
  4.37694E+04  1.11623E+04  3.20951E+04  2.57234E+04  1.58025E+04  2.94824E+04 -5.45615E+03  2.71615E+04
 -2.23842E+04  1.25578E+04 -1.85352E+04 -4.85062E+03  5.73465E+03 -7.32658E+03  2.23273E+04  1.23669E+04
  7.17554E+03  3.59222E+04 -3.27364E+04  3.57692E+04 -6.38340E+04  2.23064E+03 -5.74003E+04 -4.31236E+04
 -1.27387E+04 -6.36373E+04  3.98799E+04 -4.57196E+04  5.88718E+04 -2.57668E+03  3.47618E+04  3.28894E+04
 -5.66074E+03  3.67057E+04 -3.03938E+04  1.66288E+04 -3.11520E+04 -4.46318E+03 -1.74437E+04 -1.14661E+04
 -8.47823E+03 -1.35658E+04 -7.23541E+02 -1.83620E+04  7.91581E+03 -2.29402E+04  1.58576E+04 -1.31990E+04
  1.10598E+04  5.45265E+03 -8.87408E+03  1.29751E+04 -2.12572E+04 -5.00818E+03 -8.23844E+03 -3.45181E+04
  2.32622E+04 -4.44307E+04  4.87550E+04 -2.01508E+04  4.56385E+04  2.01101E+04  1.59560E+04  4.49184E+04
 -1.59229E+04  3.41849E+04 -2.58840E+04  1.95496E+03 -1.05566E+04 -2.81516E+04  2.10458E+04 -3.46071E+04
  4.21189E+04 -9.46729E+03  3.64610E+04  2.40551E+04  1.88389E+04  4.78599E+04 -7.97946E+03  5.14218E+04
 -3.25575E+04  3.48587E+04 -4.30830E+04  9.67889E+03 -4.38234E+04 -1.73188E+04 -2.38692E+04 -3.88303E+04
  7.22169E+03 -3.85582E+04  3.20847E+04 -1.52811E+04  2.97330E+04  1.08377E+04  4.18250E+03  1.91629E+04
 -1.36700E+04  8.87624E+03 -1.04117E+04 -7.71093E+03  5.81123E+03 -1.07928E+04  1.78838E+04  5.64559E+03
  1.37754E+04  2.26785E+04 -5.97345E+03  2.54337E+04 -2.24742E+04  1.19697E+04 -2.89016E+04 -4.54669E+03
 -2.15964E+04 -1.77115E+04 -9.42478E+03 -2.12546E+04  4.26698E+03 -2.08649E+04  1.62893E+04 -1.92866E+04
  2.73923E+04 -1.31503E+04  3.37294E+04  3.27922E+03  2.44241E+04  2.11262E+04  4.38840E+03  3.75756E+04
 -1.83961E+04  3.10196E+04 -2.86048E+04  1.08001E+04 -2.13323E+04 -1.01524E+04 -4.50896E+03 -1.35426E+04
  1.67351E+03 -2.18099E+03 -5.59171E+03  6.97990E+03 -1.70865E+04  5.03927E+03 -1.68683E+04 -7.65293E+03
 -1.05446E+04 -1.98078E+04  5.41326E+03 -2.39775E+04  1.58837E+04 -1.73302E+04  1.92559E+04 -1.68373E+03
  1.19434E+04  1.36086E+04 -1.09544E+03  1.99686E+04 -1.38903E+04  1.15960E+04 -2.00105E+04 -4.17691E+03
 -1.47712E+04 -1.79896E+04 -2.11121E+03 -2.40873E+04  1.09366E+04 -1.95823E+04  1.99405E+04 -9.90018E+03
  1.85859E+04  1.81102E+02  1.34768E+04  4.34798E+03  7.00520E+03  8.85696E+02  1.05558E+04 -1.49522E+03
  1.83533E+04  2.86257E+03  2.05353E+04  1.58721E+04  1.38947E+04  3.17893E+04 -3.03811E+03  3.62499E+04
 -2.11711E+04  2.94265E+04 -3.38301E+04  1.48211E+04 -3.57700E+04 -2.78088E+03 -2.94161E+04 -2.03918E+04
 -1.24571E+04 -2.96400E+04  1.01577E+04 -2.63939E+04  2.23800E+04 -1.32894E+04  2.04343E+04  5.93369E+03
  7.30481E+03  1.52738E+04 -9.48813E+03  1.30878E+04 -1.70983E+04  2.59808E+03 -1.28305E+04 -1.03934E+04
  3.62713E+01 -1.63429E+04  8.31968E+03 -1.20452E+04  1.08020E+04 -1.46190E+03  2.71585E+03  6.67755E+03
 -7.19373E+03  2.74472E+03 -6.52833E+03 -6.22955E+03 -5.48371E+02 -1.44092E+04  1.00056E+04 -1.53279E+04
  1.79796E+04 -8.36515E+03  1.96747E+04  3.20910E+03  1.68994E+04  1.44943E+04  7.88957E+03  2.19443E+04
 -3.58596E+03  2.38702E+04 -1.50917E+04  1.50773E+04 -1.70790E+04  3.28862E+03 -1.22934E+04 -4.14941E+03
 -5.53311E+03 -5.20278E+03 -5.62702E+02  1.13111E+03 -2.54048E+03  2.61549E+03 -5.37669E+03  4.68507E+03
 -1.12162E+04 -5.80750E+02 -1.21609E+04 -9.36188E+03 -4.72001E+03 -1.57631E+04  5.05542E+03 -1.21401E+04
  1.02212E+04 -5.12286E+03  7.31782E+03  3.32370E+03  8.74727E+01  4.48339E+03 -5.69323E+03 -5.30401E+02
 -5.50917E+03 -7.50750E+03 -1.01525E+03 -1.16685E+04  6.78743E+03 -1.23999E+04  1.50739E+04 -6.74637E+03
  1.77951E+04  1.42082E+03  1.32615E+04  1.04401E+04  2.53249E+03  1.38559E+04 -7.61224E+03  1.20644E+04
 -9.98180E+03  3.65948E+03 -4.97378E+03 -2.26979E+03  1.73823E+03 -3.05577E+03  6.69312E+03 -1.02620E+03
  5.78564E+03  4.93409E+03  1.25582E+03  9.49202E+03 -6.92771E+03  9.32061E+03 -1.20472E+04  2.58846E+03
 -7.82263E+03 -6.11180E+03  3.62629E+02 -1.01812E+04  6.57220E+03 -5.09843E+03  6.43336E+03  2.11639E+03
  1.47037E+03  6.74589E+03 -6.29381E+03  8.28328E+03 -9.41546E+03  3.82896E+03 -9.18318E+03 -3.06896E+03
 -5.12436E+03 -1.08899E+04  2.56644E+03 -1.27558E+04  1.08106E+04 -7.57355E+03  1.17835E+04  1.66535E+03
  7.44122E+03  9.21823E+03 -6.25104E+02  1.14983E+04 -8.39159E+03  6.52789E+03 -9.12453E+03 -1.01533E+03
 -8.29111E+03 -7.87729E+03 -1.92345E+03 -8.54689E+03  4.49639E+03 -7.09445E+03  5.18313E+03 -3.19492E+03
  3.58882E+03  1.42438E+03 -3.64861E+02  1.42203E+03 -4.83354E+01 -1.84524E+03  1.54542E+03 -4.69201E+03
  7.65387E+03 -2.62025E+03  1.04281E+04  9.52277E+02  1.05674E+04  6.90671E+03  7.57832E+03  1.39435E+04
 -2.85472E+03  1.58154E+04 -1.37269E+04  1.21309E+04 -1.78951E+04  2.14030E+03 -1.38115E+04 -5.79965E+03
 -7.13310E+03 -1.16238E+04 -3.26037E+02 -1.01961E+04  3.51955E+03 -4.71928E+03  3.43257E+03 -3.63676E+03
  2.76633E+03 -2.25731E+03  3.09224E+03 -3.17569E+03  4.73641E+03 -2.60131E+03  5.53298E+03 -3.57229E+02
  7.31806E+03  1.93624E+03  3.33480E+03  6.08148E+03 -2.24249E+03  7.18148E+03 -7.62630E+03  5.41478E+03
 -9.50308E+03 -1.31379E+03 -5.48336E+03 -6.68159E+03 -3.16161E+02 -9.99419E+03  5.85703E+03 -1.03968E+04
  1.04691E+04 -5.91254E+03  1.29376E+04  1.38546E+03  8.92991E+03  8.90013E+03  1.35554E+03  1.16059E+04
 -4.38676E+03  9.86619E+03 -6.90580E+03  3.07620E+03 -4.55321E+03 -1.15476E+03 -1.56744E+03 -1.29538E+03
 -1.12021E+03 -1.53303E+01 -1.74302E+03  2.28360E+03 -4.48878E+03  1.56544E+03 -6.79513E+03 -8.65004E+02
 -4.52205E+03 -7.03113E+03  2.41232E+02 -9.39902E+03  5.74262E+03 -8.55450E+03  8.92444E+03 -2.50254E+03
  9.06012E+03  4.33366E+03  3.85471E+03  8.04069E+03 -1.58628E+03  8.99781E+03 -6.62484E+03  5.51383E+03
 -7.92904E+03  4.72421E+02 -6.68625E+03 -5.53119E+03 -8.57254E+02 -7.24622E+03  3.60955E+03 -5.41922E+03
  5.61736E+03 -2.15514E+03  3.89778E+03  1.53601E+03  1.14312E+03  2.86356E+03  1.17479E+03  1.47642E+03
  1.98614E+03  5.20623E+02  1.86005E+03  1.36079E+03  2.62370E+03  3.49228E+03  2.29328E+03  4.76592E+03
 -2.07191E+03  6.95998E+03 -6.05693E+03  7.47652E+03 -8.60992E+03  1.94757E+03 -9.53410E+03 -3.14837E+03
 -4.46468E+03 -8.31773E+03  1.23445E+03 -9.96117E+03  4.94816E+03 -6.25276E+03  7.13966E+03 -1.68273E+03
  5.79260E+03  3.36583E+03  1.79051E+03  4.68902E+03 -2.10891E+03  3.23061E+03 -3.52835E+03 -6.49762E+02
 -1.58566E+03 -3.67383E+03  2.43958E+03 -3.94702E+03  3.54154E+03 -1.92554E+03  3.13945E+03  3.29312E+02
  2.21669E+03  1.58675E+03  9.98627E+02  8.75485E+02 -3.39623E+02  1.85049E+03  1.46748E+03 -5.01687E+02
  1.15675E+03 -8.59719E+02  3.45117E+03  1.50926E+03  1.71638E+03  4.63822E+03 -7.83641E+02  5.99310E+03
 -3.98987E+03  3.65894E+03 -5.30352E+03  6.14720E+02 -4.94248E+03 -1.85105E+03 -1.48246E+03 -2.96733E+03
  1.04277E+03 -3.46059E+03  2.55903E+03 -1.55301E+03  1.50391E+03  2.02533E+03 -8.65821E+02  2.81042E+03
 -3.31147E+03  1.81029E+03 -3.98196E+03 -2.22180E+03 -2.43009E+03 -4.64607E+03  4.36761E+02 -4.36980E+03
  2.41181E+03 -2.70816E+03  3.12965E+03 -8.26611E+01  3.13010E+03  8.86353E+02  4.62599E+02  2.45256E+03
 -1.37731E+03  4.53873E+02 -1.89315E+03 -1.31390E+03  8.04521E+02 -3.41893E+03  4.35007E+03 -2.81841E+03
  4.84393E+03  4.16388E+02  5.40820E+03  3.14189E+03  1.64727E+03  4.82763E+03 -1.52657E+03  4.69013E+03
 -4.26111E+03  2.22300E+03 -4.50718E+03 -7.58134E+02 -2.76956E+03 -3.25681E+03  6.35559E+02 -2.63680E+03
  3.68864E+03 -1.54677E+03  2.24782E+03  1.43837E+03  1.06032E+03  2.85548E+03 -2.00994E+02  2.51459E+03
 -1.19343E+03  1.97131E+03 -1.08738E+03  2.78037E+02 -2.75003E+02  9.14881E+02 -1.13981E+03  1.32263E+03
 -1.52047E+03  2.01920E+03 -3.98945E+03  1.61876E+03 -4.51979E+03  1.86553E+02 -5.73905E+03 -2.94324E+03
 -2.99268E+03 -6.29918E+03  1.28855E+03 -7.81881E+03  4.35292E+03 -6.34206E+03  7.63024E+03 -2.47048E+03
  6.43613E+03  9.63457E+02  3.74962E+03  4.53306E+03  1.44984E+02  5.00192E+03 -1.93930E+03  4.08562E+03
 -3.09394E+03  1.60116E+03 -1.89999E+03 -8.65925E+02 -6.81580E+02 -4.17185E+01 -5.58140E+02 -3.25945E+01
 -1.14493E+03  1.70091E+02 -9.66636E+02  9.38944E+00 -3.45472E+01 -1.66697E+03 -2.19538E+02 -1.88137E+03
  2.29678E+03 -1.42428E+03  2.59380E+03  3.64904E+02  3.55595E+03  2.75603E+03  5.54187E+02  4.45626E+03
 -2.34410E+03  5.80609E+03 -5.22176E+03  3.65171E+03 -6.14622E+03 -3.97003E+02 -4.36721E+03 -3.26960E+03
 -1.71031E+03 -4.75181E+03  1.30625E+03 -4.25762E+03  3.41025E+03 -2.19288E+03  2.97795E+03  4.52096E+02
  2.06555E+03  1.45290E+03  1.30673E+02  1.21626E+03 -1.16565E+03 -3.14814E+02  1.30938E+02 -1.17044E+03
  1.71376E+03 -3.66644E+02  1.35262E+03  6.34603E+02  7.71126E+02  1.63767E+03  3.34333E+02  2.28685E+03
 -2.47400E+03  2.20248E+03 -2.85938E+03  1.83378E+02 -2.91870E+03 -2.18464E+03 -6.09307E+02 -4.14103E+03
  2.15307E+03 -3.05250E+03  3.43305E+03 -1.03216E+03  3.45171E+03  3.39872E+02  1.90649E+03  3.08341E+03
  7.81661E+02  2.74801E+03 -7.50293E+02  2.41303E+03 -1.69582E+03  1.67053E+03 -1.36547E+03  1.48915E+02
 -7.69703E+02 -5.66409E+02 -1.19294E+03  6.00982E+02 -1.75830E+03  4.14104E+02 -2.18034E+03 -7.19473E+02
 -2.35954E+03 -9.20620E+02 -5.64182E+02 -2.86119E+03  1.74298E+03 -3.64639E+03  2.61733E+03 -1.39653E+03
  3.19521E+03  3.91984E+02  8.73344E+02  2.08056E+03 -3.75038E+02  2.74699E+03 -1.91423E+03  1.83623E+03
