 $NMID ID='MM_0lb_SNR800_17hz_g55_7.RAW', FMTDAT='(8E13.5)'
 TRAMP=1., VOLUME=1. $END
  3.09888E+05  2.55277E+02  3.37416E+05  2.50554E+05  8.45351E+04  3.37797E+05 -1.32462E+05  2.50650E+05
 -1.90070E+05  8.30858E+04 -1.11292E+05 -3.26950E+04  1.17168E+03 -5.07235E+04  5.39345E+04 -8.64937E+01
  3.50425E+04  5.26903E+04 -1.69863E+04  7.53858E+04 -6.07007E+04  6.33460E+04 -8.37891E+04  3.19080E+04
 -8.09242E+04 -1.13609E+04 -5.67997E+04 -5.10099E+04 -1.51730E+04 -6.90795E+04  2.74731E+04 -4.54278E+04
  3.97646E+04  4.00722E+03  1.62415E+04  4.75782E+04 -3.41493E+04  4.70499E+04 -6.61034E+04 -1.39465E+02
 -5.26241E+04 -5.66964E+04 -7.03176E+03 -7.63114E+04  3.34389E+04 -5.43333E+04  4.74987E+04 -1.68152E+04
  4.28042E+04  1.12314E+04  3.16206E+04  2.49399E+04  1.55487E+04  2.91472E+04 -5.03671E+03  2.70888E+04
 -2.19274E+04  1.24476E+04 -1.89165E+04 -4.77715E+03  5.28381E+03 -7.45535E+03  2.19790E+04  1.19491E+04
  7.47853E+03  3.46123E+04 -3.17326E+04  3.47917E+04 -6.26217E+04  2.25526E+03 -5.64111E+04 -4.23105E+04
 -1.25312E+04 -6.21523E+04  3.91412E+04 -4.45240E+04  5.72912E+04 -2.20259E+03  3.35877E+04  3.15417E+04
 -6.00444E+03  3.50540E+04 -2.92449E+04  1.49790E+04 -2.92354E+04 -4.76748E+03 -1.59065E+04 -1.05923E+04
 -7.88695E+03 -1.28079E+04 -9.24092E+02 -1.75386E+04  7.26374E+03 -2.29011E+04  1.51634E+04 -1.32935E+04
  1.14000E+04  4.97065E+03 -7.96647E+03  1.27573E+04 -2.07501E+04 -3.85201E+03 -8.32571E+03 -3.24576E+04
  2.22108E+04 -4.24948E+04  4.68520E+04 -1.91145E+04  4.42259E+04  1.86927E+04  1.52884E+04  4.33351E+04
 -1.57422E+04  3.25410E+04 -2.47292E+04  1.29753E+03 -9.35373E+03 -2.74496E+04  2.07714E+04 -3.28982E+04
  3.99693E+04 -8.42619E+03  3.39959E+04  2.32792E+04  1.69763E+04  4.49989E+04 -7.89391E+03  4.80607E+04
 -3.00185E+04  3.20110E+04 -4.00399E+04  8.89615E+03 -4.08477E+04 -1.57628E+04 -2.28434E+04 -3.65933E+04
  7.18746E+03 -3.63793E+04  3.02197E+04 -1.40979E+04  2.80714E+04  1.10320E+04  3.61748E+03  1.86640E+04
 -1.33753E+04  7.75838E+03 -9.88714E+03 -7.79627E+03  5.94946E+03 -1.05913E+04  1.75897E+04  6.39535E+03
  1.31515E+04  2.18893E+04 -6.38261E+03  2.41698E+04 -2.17562E+04  1.05820E+04 -2.68005E+04 -5.30883E+03
 -1.88983E+04 -1.71230E+04 -7.11529E+03 -1.88498E+04  3.87363E+03 -1.72285E+04  1.42663E+04 -1.65644E+04
  2.39655E+04 -1.21252E+04  3.05092E+04  1.84946E+03  2.25664E+04  1.83232E+04  4.06359E+03  3.46965E+04
 -1.72728E+04  2.92378E+04 -2.70204E+04  1.02728E+04 -2.03932E+04 -1.02221E+04 -4.33707E+03 -1.36398E+04
  2.29295E+03 -3.42113E+03 -3.92904E+03  6.18559E+03 -1.47372E+04  5.47692E+03 -1.48611E+04 -6.12013E+03
 -9.38870E+03 -1.75649E+04  4.94857E+03 -2.17501E+04  1.39666E+04 -1.53900E+04  1.63731E+04 -1.36924E+03
  1.01683E+04  1.22190E+04 -7.02673E+02  1.76110E+04 -1.17095E+04  1.01873E+04 -1.73189E+04 -3.88470E+03
 -1.28104E+04 -1.58431E+04 -1.88212E+03 -2.11318E+04  9.58021E+03 -1.70291E+04  1.75848E+04 -8.30021E+03
  1.60958E+04  4.38373E+02  1.16832E+04  4.27461E+03  5.79227E+03  8.04297E+02  8.69102E+03 -1.61313E+03
  1.56529E+04  2.76312E+03  1.70154E+04  1.39498E+04  1.11583E+04  2.77363E+04 -2.80604E+03  3.03747E+04
 -1.77847E+04  2.40164E+04 -2.83837E+04  1.19026E+04 -2.94856E+04 -2.11858E+03 -2.44964E+04 -1.67194E+04
 -1.08685E+04 -2.41430E+04  8.07428E+03 -2.18630E+04  1.90404E+04 -1.18336E+04  1.73378E+04  4.35821E+03
  6.95490E+03  1.25226E+04 -7.88382E+03  1.15229E+04 -1.48462E+04  2.57791E+03 -1.12830E+04 -9.03741E+03
 -1.16664E+02 -1.34939E+04  7.09135E+03 -1.03550E+04  8.82239E+03 -1.57858E+03  1.96402E+03  5.60287E+03
 -6.38298E+03  1.77757E+03 -4.88104E+03 -4.87173E+03  2.68029E+02 -1.20784E+04  8.42970E+03 -1.17600E+04
  1.45701E+04 -6.13804E+03  1.47720E+04  2.88803E+03  1.26465E+04  1.11429E+04  6.17065E+03  1.69329E+04
 -2.49068E+03  1.86684E+04 -1.13754E+04  1.20544E+04 -1.33656E+04  3.02460E+03 -9.55883E+03 -2.42723E+03
 -5.07444E+03 -4.41808E+03 -6.51681E+02  1.49620E+03 -1.96027E+03  2.45885E+03 -4.35467E+03  3.77973E+03
 -9.18789E+03 -5.10013E+02 -9.75526E+03 -8.21941E+03 -4.09358E+03 -1.28633E+04  4.03211E+03 -9.85024E+03
  8.15181E+03 -4.37951E+03  6.07712E+03  2.15860E+03  3.70031E+02  3.66227E+03 -4.15584E+03 -7.35292E+01
 -4.08603E+03 -6.15661E+03 -8.79114E+02 -8.63947E+03  4.93133E+03 -9.65916E+03  1.16004E+04 -4.71852E+03
  1.36666E+04  1.03765E+03  1.00247E+04  7.59606E+03  2.11295E+03  1.06673E+04 -6.09653E+03  9.72327E+03
 -7.97935E+03  3.09816E+03 -4.19424E+03 -1.43861E+03  1.27351E+03 -2.54511E+03  5.57852E+03 -1.15494E+03
  4.69888E+03  3.88478E+03  1.26943E+03  7.59274E+03 -5.32785E+03  7.33661E+03 -9.33526E+03  1.99441E+03
 -5.71945E+03 -4.53106E+03  2.34254E+02 -7.86281E+03  4.41362E+03 -3.74651E+03  4.35365E+03  1.37813E+03
  6.68508E+02  4.34908E+03 -4.93204E+03  5.88948E+03 -5.98440E+03  2.70296E+03 -5.98832E+03 -1.87266E+03
 -3.84916E+03 -7.42918E+03  1.44036E+03 -8.48845E+03  7.66286E+03 -5.84271E+03  8.12162E+03  1.23814E+03
  5.47080E+03  6.64341E+03 -2.88652E+02  8.66583E+03 -6.16544E+03  4.88358E+03 -6.25935E+03 -4.77604E+02
 -6.53978E+03 -5.91673E+03 -1.55007E+03 -5.95185E+03  3.28081E+03 -5.29450E+03  3.68025E+03 -2.88715E+03
  3.04248E+03  1.40138E+02  1.37908E+02  1.43966E+03  3.65151E+02 -7.09984E+02  5.46141E+02 -2.99473E+03
  5.15953E+03 -1.34606E+03  6.81033E+03  6.02874E+02  6.88574E+03  4.38541E+03  6.00135E+03  9.21852E+03
 -1.65175E+03  1.08889E+04 -9.62470E+03  7.93467E+03 -1.18947E+04  1.47623E+03 -9.32880E+03 -3.60240E+03
 -5.22884E+03 -8.06637E+03 -1.61974E+02 -6.62770E+03  2.52699E+03 -2.90999E+03  2.46102E+03 -2.96480E+03
  1.79259E+03 -1.51103E+03  2.29186E+03 -2.61662E+03  3.52268E+03 -1.73704E+03  4.13930E+03  4.00522E+02
  5.52514E+03  1.29372E+03  1.82476E+03  4.29986E+03 -1.50803E+03  4.09012E+03 -5.06703E+03  3.62111E+03
 -6.08655E+03 -7.99330E+02 -3.21550E+03 -4.33782E+03  2.80860E+02 -6.31541E+03  4.24008E+03 -6.43122E+03
  6.78055E+03 -4.04999E+03  8.39513E+03  6.43001E+02  6.05491E+03  5.43432E+03  1.07507E+03  7.31050E+03
 -2.56838E+03  6.97241E+03 -4.27653E+03  2.16158E+03 -2.76188E+03 -8.81252E+02 -6.53533E+02 -7.18049E+02
 -3.60747E+02  3.32872E+02 -8.77689E+02  1.88330E+03 -2.61776E+03  1.32886E+03 -4.73841E+03 -5.57359E+02
 -2.33138E+03 -4.74146E+03  6.99539E+02 -5.82816E+03  3.39422E+03 -5.47123E+03  4.71416E+03 -1.44191E+03
  5.29290E+03  2.85766E+03  2.47728E+03  4.41883E+03 -9.75482E+02  5.74372E+03 -3.72413E+03  3.33610E+03
 -5.23600E+03  5.08861E+02 -4.12456E+03 -2.92856E+03 -3.40547E+02 -4.32673E+03  2.17620E+03 -3.15608E+03
  3.28391E+03 -1.62398E+03  2.39887E+03  7.80736E+02  7.25728E+02  1.78935E+03  7.02186E+02  8.21312E+02
  1.71947E+03  5.23845E+02  1.41837E+03  8.33306E+02  1.40913E+03  2.50322E+03  1.89758E+03  2.64538E+03
 -1.45865E+03  3.96644E+03 -3.36528E+03  4.84325E+03 -4.20778E+03  1.69527E+03 -5.39350E+03 -8.15683E+02
 -2.21490E+03 -4.94190E+03  9.45578E+02 -5.90654E+03  3.03111E+03 -3.43699E+03  4.19625E+03 -1.21630E+03
  3.17856E+03  2.14838E+03  7.09655E+02  2.96382E+03 -9.40755E+02  1.62374E+03 -1.67191E+03 -3.03494E+02
 -6.66656E+02 -1.88828E+03  1.52098E+03 -2.20387E+03  1.97067E+03 -1.41464E+03  1.79687E+03  5.26586E+02
  1.04455E+03  6.69506E+02  8.62417E+02 -1.03171E+02 -4.29914E+02  8.18687E+02  1.22597E+03 -2.58136E+02
  3.00521E+02 -3.00182E+02  2.17377E+03  7.19626E+02  3.39952E+02  2.63756E+03 -3.82862E+02  3.61987E+03
 -2.03002E+03  1.54897E+03 -2.69649E+03  4.86330E+02 -2.71414E+03 -8.15972E+02 -6.10466E+02 -1.62570E+03
  3.77772E+02 -1.75867E+03  1.09256E+03 -9.28860E+02  8.53185E+02  1.35560E+03 -3.58241E+02  1.51198E+03
 -2.02342E+03  1.11682E+03 -1.45167E+03 -1.28945E+03 -8.16191E+02 -2.43406E+03  4.68877E+02 -2.01291E+03
  5.79678E+02 -9.13837E+02  1.26921E+03  2.00708E+02  1.36740E+03 -6.52428E+01  3.66532E+01  1.37311E+03
 -3.91865E+02  1.37942E+02 -1.36560E+03 -4.29066E+02  9.91135E+02 -1.26445E+03  2.13829E+03 -1.18382E+03
  1.99862E+03  2.06165E+02  3.02771E+03  1.19476E+03  1.38719E+03  2.30273E+03 -6.03104E+02  2.43479E+03
 -1.87696E+03  6.58764E+02 -1.99548E+03 -1.71360E+02 -1.13747E+03 -1.88827E+03  2.09702E+02 -1.15435E+03
  1.94907E+03 -9.32322E+02  9.83457E+02  8.12236E+02  2.84100E+02  1.47612E+03 -1.20743E+02  1.29036E+03
 -3.63461E+02  1.40319E+03 -9.59985E+01  1.75696E+02  1.12100E+00  5.16251E+02 -8.39023E+02  7.68417E+02
 -4.68099E+02  1.28683E+03 -2.28143E+03  8.02560E+02 -2.02210E+03  1.72400E+02 -3.12715E+03 -1.37699E+03
 -1.20166E+03 -3.02790E+03  3.62442E+02 -3.61850E+03  1.71465E+03 -3.14163E+03  3.66682E+03 -1.06847E+03
  3.07245E+03  9.10321E+01  1.76635E+03  2.15590E+03 -5.38700E+02  2.13668E+03 -1.08028E+03  2.00051E+03
 -1.48355E+03  9.62989E+02 -9.61357E+02 -3.32292E+02 -5.82622E+02  3.18158E+02 -5.58547E+02  1.65146E+02
 -1.21108E+03 -3.61100E+01 -1.01542E+03 -9.73912E+01  2.32233E+02 -5.78499E+02 -5.71864E+02 -1.07332E+03
  1.67581E+03 -4.65273E+02  7.43042E+02  2.90889E+02  1.48967E+03  1.12602E+03 -3.31512E+02  1.99435E+03
 -1.16070E+03  3.04917E+03 -2.06048E+03  1.82432E+03 -2.05275E+03 -2.27699E+02 -1.63325E+03 -1.59589E+03
 -1.03697E+03 -1.77061E+03  4.99787E+02 -1.64732E+03  8.35547E+02 -8.48291E+02  9.11819E+02 -7.29120E+01
  9.70307E+02  6.59233E+02 -4.45614E+01  6.16293E+02 -4.68444E+02 -2.46952E+01 -6.40906E+01 -2.24251E+02
  4.11972E+02  1.05175E+02  1.24173E+02  2.78656E+02  2.63054E+02  7.49074E+02  2.87008E+02  4.77300E+02
 -6.31132E+02  7.95698E+02 -7.51263E+02  1.85038E+02 -1.09422E+03 -6.98889E+02 -1.58441E+02 -1.16460E+03
  1.04182E+03 -1.02495E+03  8.18776E+02  3.25884E+01  1.17644E+03 -3.75903E+02  7.76664E+02  1.11819E+03
  3.50262E+02  8.76656E+02 -3.17618E+02  1.12164E+03 -6.95173E+02  8.25387E+02 -6.37933E+02  2.64038E+02
 -3.97134E+02 -2.78886E+02 -6.68650E+02  1.08897E+02 -7.53720E+02  3.58314E+02 -9.08243E+02  6.87005E-01
 -1.10816E+03 -7.48534E+01 -3.06665E+02 -1.05268E+03  7.97683E+02 -1.62434E+03  1.06950E+03 -2.75080E+02
  1.20564E+03  1.97884E+02 -1.01880E+02  4.05672E+02  1.70814E+01  1.26191E+03 -6.33766E+02  9.67300E+02
