 $NMID ID='MM_0lb_SNR800_11hz_g55_94.RAW', FMTDAT='(8E13.5)'
 TRAMP=1., VOLUME=1. $END
  3.10243E+05  7.94691E+01  3.37850E+05  2.50718E+05  8.53127E+04  3.38740E+05 -1.32557E+05  2.51752E+05
 -1.90657E+05  8.37304E+04 -1.12133E+05 -3.24040E+04  4.60323E+02 -5.11035E+04  5.35289E+04 -6.19450E+02
  3.56958E+04  5.29962E+04 -1.69226E+04  7.58486E+04 -6.15631E+04  6.43299E+04 -8.53219E+04  3.24384E+04
 -8.22019E+04 -1.13285E+04 -5.79139E+04 -5.17367E+04 -1.51759E+04 -7.08961E+04  2.81362E+04 -4.65325E+04
  4.10539E+04  3.58876E+03  1.66547E+04  4.82904E+04 -3.44791E+04  4.81409E+04 -6.80304E+04  5.95792E+01
 -5.47923E+04 -5.74746E+04 -6.94320E+03 -7.83379E+04  3.45065E+04 -5.66301E+04  4.89101E+04 -1.79758E+04
  4.46604E+04  1.12631E+04  3.28886E+04  2.64492E+04  1.54004E+04  3.05646E+04 -5.86003E+03  2.76492E+04
 -2.21720E+04  1.21374E+04 -1.82599E+04 -5.43906E+03  6.65397E+03 -7.26706E+03  2.28821E+04  1.31381E+04
  7.33282E+03  3.72127E+04 -3.34907E+04  3.67594E+04 -6.54165E+04  1.91238E+03 -5.87102E+04 -4.41219E+04
 -1.26970E+04 -6.55072E+04  4.10834E+04 -4.68245E+04  6.03460E+04 -2.28905E+03  3.62825E+04  3.38387E+04
 -5.54004E+03  3.84420E+04 -3.13870E+04  1.80246E+04 -3.25133E+04 -3.65930E+03 -1.86927E+04 -1.14131E+04
 -9.32869E+03 -1.48100E+04 -4.35802E+02 -1.92697E+04  8.34044E+03 -2.34189E+04  1.57616E+04 -1.26026E+04
  1.04526E+04  5.45817E+03 -9.78575E+03  1.31745E+04 -2.26978E+04 -6.36172E+03 -8.74641E+03 -3.63881E+04
  2.41693E+04 -4.59084E+04  5.09851E+04 -2.05774E+04  4.77659E+04  2.00813E+04  1.67987E+04  4.64354E+04
 -1.64977E+04  3.52391E+04 -2.72249E+04  2.39434E+03 -1.09245E+04 -2.90810E+04  2.12252E+04 -3.61741E+04
  4.38776E+04 -1.03611E+04  3.87799E+04  2.47025E+04  2.04706E+04  4.98147E+04 -8.46296E+03  5.46282E+04
 -3.45143E+04  3.70047E+04 -4.59773E+04  1.03838E+04 -4.63963E+04 -1.80152E+04 -2.52591E+04 -4.11353E+04
  8.04923E+03 -4.11083E+04  3.35589E+04 -1.64736E+04  3.13380E+04  1.10433E+04  5.24368E+03  2.04997E+04
 -1.33834E+04  9.19798E+03 -1.10651E+04 -7.55584E+03  5.47656E+03 -1.12056E+04  1.85890E+04  5.77617E+03
  1.41901E+04  2.23402E+04 -5.44082E+03  2.67811E+04 -2.31630E+04  1.37251E+04 -3.08789E+04 -3.62424E+03
 -2.42278E+04 -1.80968E+04 -1.07575E+04 -2.33867E+04  4.24073E+03 -2.41189E+04  1.87391E+04 -2.16634E+04
  3.04116E+04 -1.37592E+04  3.64755E+04  4.45033E+03  2.61302E+04  2.34632E+04  4.33160E+03  3.96665E+04
 -1.93433E+04  3.32316E+04 -2.98783E+04  1.16380E+04 -2.20703E+04 -1.02400E+04 -5.07483E+03 -1.31670E+04
  1.34907E+03 -1.82230E+03 -6.87521E+03  7.87276E+03 -1.90369E+04  4.83618E+03 -1.89395E+04 -9.17104E+03
 -1.16148E+04 -2.17891E+04  5.62679E+03 -2.65567E+04  1.75035E+04 -1.90252E+04  2.14879E+04 -1.87782E+03
  1.37225E+04  1.53288E+04 -1.43126E+03  2.19514E+04 -1.54101E+04  1.24991E+04 -2.22110E+04 -5.01246E+03
 -1.61494E+04 -1.98100E+04 -1.91255E+03 -2.68359E+04  1.27260E+04 -2.17646E+04  2.21404E+04 -1.14415E+04
  2.08462E+04  1.03757E+02  1.51609E+04  4.72395E+03  8.45398E+03  1.71465E+03  1.10001E+04 -1.94144E+03
  2.06899E+04  2.98765E+03  2.38280E+04  1.71307E+04  1.56671E+04  3.55064E+04 -2.82376E+03  4.10945E+04
 -2.34904E+04  3.37031E+04 -3.92108E+04  1.78366E+04 -4.13044E+04 -2.63962E+03 -3.32475E+04 -2.38956E+04
 -1.35570E+04 -3.39383E+04  1.17442E+04 -3.03047E+04  2.59549E+04 -1.45201E+04  2.28525E+04  6.80143E+03
  7.61349E+03  1.74027E+04 -1.08276E+04  1.48131E+04 -1.92224E+04  2.61027E+03 -1.40612E+04 -1.18692E+04
 -1.89969E+02 -1.81999E+04  9.55731E+03 -1.33124E+04  1.21208E+04 -1.14247E+03  3.38389E+03  8.25877E+03
 -8.60974E+03  3.54792E+03 -7.98402E+03 -6.52236E+03 -1.72850E+03 -1.67189E+04  1.10452E+04 -1.78455E+04
  2.10155E+04 -1.01117E+04  2.33253E+04  3.21568E+03  2.10510E+04  1.69362E+04  9.33188E+03  2.59761E+04
 -5.02961E+03  2.80612E+04 -1.83877E+04  1.73741E+04 -2.04131E+04  3.75258E+03 -1.40934E+04 -5.33598E+03
 -6.12402E+03 -6.32073E+03 -3.13131E+02  5.31490E+02 -2.66066E+03  3.21430E+03 -6.93589E+03  5.15172E+03
 -1.29646E+04 -1.01637E+03 -1.35680E+04 -1.09875E+04 -5.31660E+03 -1.76333E+04  5.70891E+03 -1.41043E+04
  1.20023E+04 -5.60942E+03  8.52638E+03  3.56607E+03 -2.96764E+02  5.68214E+03 -7.04439E+03 -2.26127E+02
 -6.54590E+03 -9.34303E+03 -1.00557E+03 -1.39487E+04  8.22336E+03 -1.46939E+04  1.83206E+04 -7.68178E+03
  2.10385E+04  1.88100E+03  1.58678E+04  1.25030E+04  3.03147E+03  1.70019E+04 -8.47719E+03  1.42478E+04
 -1.12889E+04  3.98274E+03 -5.82805E+03 -3.01244E+03  1.86379E+03 -4.16259E+03  7.61809E+03 -8.66838E+02
  6.81532E+03  6.54711E+03  1.15629E+03  1.12669E+04 -8.09405E+03  1.09393E+04 -1.38912E+04  2.40111E+03
 -9.71806E+03 -6.99348E+03  2.70589E+02 -1.21993E+04  7.83027E+03 -6.31561E+03  7.85574E+03  3.01699E+03
  1.91369E+03  8.61239E+03 -7.36591E+03  1.03913E+04 -1.17238E+04  4.79051E+03 -1.19670E+04 -4.16458E+03
 -7.13215E+03 -1.37752E+04  3.03921E+03 -1.59471E+04  1.31107E+04 -9.00406E+03  1.45217E+04  2.02461E+03
  8.78311E+03  1.18292E+04 -9.85887E+02  1.37361E+04 -1.06827E+04  7.74588E+03 -1.11087E+04 -1.00342E+03
 -9.47609E+03 -9.22213E+03 -1.59664E+03 -1.06743E+04  5.04071E+03 -8.42969E+03  6.61674E+03 -3.40287E+03
  4.38818E+03  1.55172E+03 -7.19076E+02  1.67400E+03 -4.11051E+02 -2.71967E+03  2.20802E+03 -5.93607E+03
  9.75483E+03 -4.23453E+03  1.39570E+04  1.55149E+03  1.32081E+04  9.03933E+03  9.25048E+03  1.79009E+04
 -4.07019E+03  2.01954E+04 -1.66062E+04  1.53859E+04 -2.19381E+04  3.13466E+03 -1.76854E+04 -7.65024E+03
 -8.69191E+03 -1.47089E+04 -1.25172E+02 -1.25327E+04  4.31803E+03 -6.99354E+03  3.98202E+03 -4.48565E+03
  3.47682E+03 -2.29973E+03  3.47630E+03 -3.24139E+03  5.54332E+03 -2.71965E+03  7.41338E+03 -7.90268E+02
  9.36752E+03  2.27549E+03  5.02244E+03  7.78090E+03 -1.98874E+03  9.34703E+03 -9.56124E+03  7.01971E+03
 -1.20929E+04 -1.24943E+03 -7.56763E+03 -8.78760E+03 -1.33544E+03 -1.32738E+04  7.56008E+03 -1.32270E+04
  1.36415E+04 -7.20222E+03  1.63951E+04  2.20564E+03  1.14141E+04  1.17406E+04  1.80519E+03  1.51104E+04
 -6.22155E+03  1.25391E+04 -8.81368E+03  4.15361E+03 -6.14980E+03 -1.07992E+03 -2.26819E+03 -1.77834E+03
 -9.64181E+02  5.71813E+01 -1.96937E+03  2.88582E+03 -4.97044E+03  2.03893E+03 -8.34500E+03 -8.94586E+02
 -5.82247E+03 -8.49472E+03 -1.34214E+02 -1.20586E+04  7.50574E+03 -1.08422E+04  1.22529E+04 -3.54158E+03
  1.20850E+04  6.17599E+03  5.42271E+03  1.05233E+04 -2.71488E+03  1.22486E+04 -8.98899E+03  7.55930E+03
 -1.12405E+04  7.24144E+02 -8.75045E+03 -7.36271E+03 -1.03318E+03 -1.00275E+04  5.02091E+03 -7.27957E+03
  7.60111E+03 -2.46747E+03  5.55860E+03  1.75804E+03  1.56495E+03  3.74386E+03  1.09406E+03  1.65022E+03
  2.43863E+03  1.18962E+03  2.86408E+03  1.57305E+03  3.55116E+03  4.19277E+03  3.05193E+03  6.48333E+03
 -2.65236E+03  9.58379E+03 -8.83032E+03  9.69309E+03 -1.23290E+04  2.52217E+03 -1.24247E+04 -4.90944E+03
 -6.26176E+03 -1.22254E+04  1.95578E+03 -1.38052E+04  7.34781E+03 -8.13850E+03  9.79352E+03 -2.16256E+03
  7.77515E+03  4.57023E+03  1.84946E+03  7.03895E+03 -3.26485E+03  4.36242E+03 -4.93164E+03 -8.79106E+02
 -2.35996E+03 -5.20877E+03  2.84567E+03 -5.15912E+03  4.79141E+03 -2.51983E+03  4.77578E+03  8.23493E+02
  2.74461E+03  2.45095E+03  1.15633E+03  1.56753E+03 -8.09177E+02  1.81150E+03  1.79609E+03 -1.60492E+02
  1.92770E+03 -8.86221E+02  5.31681E+03  1.65966E+03  2.37728E+03  6.40285E+03 -1.32773E+03  8.44715E+03
 -5.62649E+03  5.47164E+03 -8.00747E+03  1.55025E+03 -6.83112E+03 -2.80174E+03 -2.90468E+03 -4.42151E+03
  1.03023E+03 -4.29372E+03  3.43960E+03 -1.91594E+03  2.49279E+03  2.44709E+03 -1.28712E+03  3.82377E+03
 -4.94266E+03  2.08217E+03 -5.48885E+03 -3.10065E+03 -3.34232E+03 -6.60187E+03  1.27751E+03 -6.36819E+03
  3.83235E+03 -3.72200E+03  4.70990E+03 -5.17036E+02  3.84551E+03  1.54452E+03  5.58898E+02  3.07144E+03
 -2.13968E+03  9.25166E+02 -2.98221E+03 -2.11620E+03  1.45802E+03 -4.88307E+03  5.27711E+03 -3.96152E+03
  7.20453E+03  3.07045E+02  7.55955E+03  4.93175E+03  2.50174E+03  7.74177E+03 -2.50334E+03  7.01196E+03
 -6.17408E+03  2.67806E+03 -6.58152E+03 -1.03549E+03 -3.38537E+03 -5.11601E+03  1.58375E+03 -4.26005E+03
  4.34676E+03 -2.55857E+03  3.80556E+03  2.33240E+03  1.39663E+03  4.58224E+03 -3.74660E+02  3.58532E+03
 -2.04195E+03  2.33228E+03 -1.64327E+03  7.00634E+02 -7.82821E+02  8.24707E+02 -1.15994E+03  1.58623E+03
 -2.04979E+03  3.35897E+03 -5.10395E+03  2.46115E+03 -7.39063E+03  2.95670E+02 -8.86042E+03 -4.80072E+03
 -4.20066E+03 -9.66863E+03  1.78479E+03 -1.11695E+04  6.82071E+03 -9.55281E+03  1.10107E+04 -3.43105E+03
  1.01454E+04  1.68056E+03  6.14410E+03  7.03278E+03  4.91163E+02  7.33060E+03 -3.08315E+03  5.86335E+03
 -4.10775E+03  1.95884E+03 -2.80044E+03 -8.00920E+02 -8.10689E+02 -5.26113E+02 -8.28978E+02 -2.72180E+02
 -1.56441E+03  2.66296E+02 -1.84481E+03 -2.92749E+02 -3.39679E+02 -2.09327E+03  6.86488E+01 -2.80826E+03
  3.62204E+03 -2.61226E+03  4.42326E+03 -1.91644E+02  4.99972E+03  4.09541E+03  1.04627E+03  7.35634E+03
 -3.57418E+03  8.67464E+03 -8.23925E+03  4.80456E+03 -9.25441E+03 -5.85137E+02 -6.84696E+03 -5.53469E+03
 -3.00158E+03 -7.54234E+03  1.73693E+03 -7.05592E+03  4.70135E+03 -4.01174E+03  4.65777E+03  2.73353E+02
  2.81993E+03  2.24068E+03 -1.87744E+02  2.07953E+03 -1.25794E+03 -1.49212E+02  2.82146E+02 -1.80251E+03
  2.41434E+03 -7.72109E+02  3.22328E+03  1.23906E+03  1.86277E+03  3.09559E+03  2.27238E+02  3.90659E+03
 -3.22274E+03  3.43451E+03 -4.90606E+03  4.86632E+02 -4.36746E+03 -3.44278E+03 -5.95427E+02 -6.52013E+03
  3.23503E+03 -5.02678E+03  5.09269E+03 -1.41828E+03  5.66397E+03  1.16859E+03  2.82209E+03  4.45452E+03
  9.34809E+02  4.66167E+03 -1.66215E+03  3.75688E+03 -3.13342E+03  2.44412E+03 -2.41999E+03  5.60044E+02
 -9.74385E+02 -1.05026E+02 -9.81595E+02  8.42412E+02 -2.85591E+03  9.75257E+02 -4.05321E+03 -7.18480E+02
 -3.70206E+03 -2.25639E+03 -7.42372E+02 -4.89750E+03  2.40822E+03 -5.17293E+03  4.55002E+03 -2.29049E+03
  4.68001E+03  4.21602E+02  2.29970E+03  3.63674E+03 -4.16544E+02  5.13058E+03 -3.36850E+03  3.10781E+03
