 $NMID ID='MM_0lb_SNR800_16hz_g55_7.RAW', FMTDAT='(8E13.5)'
 TRAMP=1., VOLUME=1. $END
  3.10128E+05  2.21965E+02  3.37712E+05  2.50574E+05  8.45707E+04  3.38052E+05 -1.32622E+05  2.50822E+05
 -1.90177E+05  8.30018E+04 -1.11768E+05 -3.28103E+04  6.98302E+02 -5.05639E+04  5.36152E+04  2.49252E+01
  3.54011E+04  5.29892E+04 -1.69375E+04  7.54069E+04 -6.05954E+04  6.34280E+04 -8.38040E+04  3.18612E+04
 -8.10411E+04 -1.17141E+04 -5.70237E+04 -5.12260E+04 -1.50937E+04 -6.94828E+04  2.71647E+04 -4.54067E+04
  4.00435E+04  3.60053E+03  1.59587E+04  4.78612E+04 -3.41067E+04  4.71658E+04 -6.64535E+04  7.79848E+01
 -5.31578E+04 -5.65344E+04 -6.96757E+03 -7.66634E+04  3.35052E+04 -5.44625E+04  4.74712E+04 -1.71301E+04
  4.29114E+04  1.12535E+04  3.16717E+04  2.56584E+04  1.55230E+04  2.94675E+04 -5.30363E+03  2.71209E+04
 -2.18877E+04  1.22981E+04 -1.86959E+04 -4.70732E+03  5.25536E+03 -7.56206E+03  2.23936E+04  1.22169E+04
  7.18212E+03  3.48724E+04 -3.19327E+04  3.50435E+04 -6.30130E+04  2.03625E+03 -5.67112E+04 -4.25576E+04
 -1.24252E+04 -6.29142E+04  3.94321E+04 -4.49921E+04  5.77855E+04 -2.30635E+03  3.37474E+04  3.20835E+04
 -6.12935E+03  3.59126E+04 -2.97932E+04  1.52776E+04 -3.03144E+04 -4.78101E+03 -1.63881E+04 -1.07127E+04
 -7.73140E+03 -1.30050E+04 -7.19490E+02 -1.76703E+04  7.51642E+03 -2.31917E+04  1.51933E+04 -1.36276E+04
  1.14637E+04  5.36494E+03 -7.85872E+03  1.32102E+04 -2.07770E+04 -3.90047E+03 -8.20508E+03 -3.28146E+04
  2.24617E+04 -4.30215E+04  4.77144E+04 -1.94627E+04  4.46948E+04  1.93172E+04  1.54731E+04  4.36254E+04
 -1.54732E+04  3.28761E+04 -2.49743E+04  1.89240E+03 -9.46761E+03 -2.75045E+04  2.08597E+04 -3.34301E+04
  4.05788E+04 -8.82999E+03  3.46862E+04  2.35152E+04  1.75391E+04  4.57204E+04 -7.91306E+03  4.93646E+04
 -3.10125E+04  3.32216E+04 -4.08875E+04  9.29648E+03 -4.18170E+04 -1.61155E+04 -2.28288E+04 -3.73709E+04
  7.10333E+03 -3.68756E+04  3.09214E+04 -1.44807E+04  2.89110E+04  1.07635E+04  3.75282E+03  1.85928E+04
 -1.35701E+04  8.04003E+03 -1.01251E+04 -7.78644E+03  6.24140E+03 -1.05710E+04  1.77663E+04  5.79811E+03
  1.31964E+04  2.21074E+04 -6.04866E+03  2.49449E+04 -2.20271E+04  1.10853E+04 -2.73162E+04 -4.85821E+03
 -1.97124E+04 -1.69652E+04 -7.46156E+03 -1.94290E+04  4.08338E+03 -1.82190E+04  1.50712E+04 -1.73670E+04
  2.50720E+04 -1.26454E+04  3.14737E+04  2.69374E+03  2.34444E+04  1.90107E+04  4.20047E+03  3.55769E+04
 -1.71931E+04  2.97039E+04 -2.74413E+04  1.01510E+04 -2.06273E+04 -1.02470E+04 -4.38710E+03 -1.38291E+04
  2.07013E+03 -2.78732E+03 -4.34039E+03  6.17796E+03 -1.52918E+04  5.23563E+03 -1.57484E+04 -6.52161E+03
 -9.55265E+03 -1.80244E+04  4.83618E+03 -2.24047E+04  1.45897E+04 -1.59491E+04  1.72014E+04 -1.68509E+03
  1.06629E+04  1.27211E+04 -9.63755E+02  1.82084E+04 -1.27127E+04  1.02521E+04 -1.82966E+04 -4.03373E+03
 -1.35199E+04 -1.62128E+04 -1.60679E+03 -2.22831E+04  9.79690E+03 -1.82043E+04  1.81470E+04 -8.60546E+03
  1.65797E+04  6.81435E+02  1.21522E+04  4.25070E+03  6.23477E+03  7.66180E+02  8.94962E+03 -1.84021E+03
  1.64440E+04  2.84527E+03  1.82036E+04  1.43476E+04  1.17935E+04  2.84743E+04 -2.93976E+03  3.16968E+04
 -1.85026E+04  2.53180E+04 -2.96518E+04  1.28244E+04 -3.09954E+04 -2.29730E+03 -2.59018E+04 -1.76269E+04
 -1.13819E+04 -2.54520E+04  8.70777E+03 -2.31882E+04  2.01487E+04 -1.19744E+04  1.82894E+04  5.02244E+03
  6.83250E+03  1.33085E+04 -8.14447E+03  1.19802E+04 -1.53679E+04  2.57096E+03 -1.17461E+04 -9.26125E+03
 -3.93981E+01 -1.44154E+04  7.24575E+03 -1.11491E+04  9.60288E+03 -1.34542E+03  2.19511E+03  6.24738E+03
 -6.71487E+03  2.26976E+03 -5.42450E+03 -5.35641E+03 -2.32517E+02 -1.25860E+04  8.73953E+03 -1.27815E+04
  1.53595E+04 -6.77802E+03  1.61458E+04  2.83796E+03  1.39505E+04  1.20964E+04  6.48537E+03  1.81533E+04
 -2.50183E+03  2.02071E+04 -1.24711E+04  1.29274E+04 -1.43171E+04  3.09124E+03 -1.03549E+04 -3.26999E+03
 -5.15405E+03 -4.14441E+03 -6.16471E+02  1.01576E+03 -2.00575E+03  2.46506E+03 -4.86931E+03  4.23230E+03
 -9.80624E+03 -7.62300E+02 -1.03138E+04 -8.45111E+03 -4.29288E+03 -1.36007E+04  4.14160E+03 -1.05719E+04
  8.79591E+03 -4.64832E+03  6.31873E+03  2.68061E+03  2.92452E+02  4.08016E+03 -4.77200E+03 -2.16095E+02
 -4.53773E+03 -6.41507E+03 -9.75826E+02 -9.23695E+03  5.08916E+03 -1.01495E+04  1.27970E+04 -5.20565E+03
  1.44256E+04  9.10537E+02  1.11201E+04  8.28662E+03  2.31377E+03  1.14623E+04 -6.15619E+03  1.01054E+04
 -8.49515E+03  3.34668E+03 -4.35716E+03 -1.56604E+03  1.22923E+03 -2.34912E+03  5.73776E+03 -8.79524E+02
  4.88555E+03  4.13557E+03  8.76263E+02  7.65284E+03 -5.52979E+03  7.66140E+03 -9.87624E+03  2.09654E+03
 -6.47113E+03 -4.93795E+03  1.40699E+02 -8.39851E+03  5.08559E+03 -4.61024E+03  4.78029E+03  1.49229E+03
  7.15297E+02  5.17846E+03 -4.91148E+03  6.32921E+03 -6.77987E+03  3.22029E+03 -6.39350E+03 -2.20271E+03
 -4.05053E+03 -8.41880E+03  2.01195E+03 -9.62277E+03  8.29138E+03 -6.35958E+03  8.72912E+03  1.45235E+03
  6.14771E+03  6.83557E+03 -1.99161E+02  9.20880E+03 -6.67362E+03  5.13796E+03 -6.80646E+03 -6.95458E+02
 -6.60629E+03 -6.41417E+03 -1.31779E+03 -6.81424E+03  3.59164E+03 -5.67361E+03  3.91338E+03 -3.08562E+03
  3.58319E+03  6.02939E+02  1.55563E+01  1.19938E+03  4.42311E+02 -9.98048E+02  6.01330E+02 -3.48934E+03
  5.43788E+03 -1.95496E+03  7.95501E+03  7.17421E+02  8.06956E+03  5.28558E+03  6.36765E+03  1.04884E+04
 -2.18114E+03  1.20020E+04 -1.04619E+04  9.21554E+03 -1.33803E+04  2.04059E+03 -1.05169E+04 -3.95403E+03
 -5.52498E+03 -8.71117E+03 -5.39570E+02 -7.25981E+03  2.75194E+03 -3.44632E+03  2.39457E+03 -3.07608E+03
  2.03536E+03 -1.86494E+03  2.55961E+03 -2.63772E+03  3.91582E+03 -1.65333E+03  4.20944E+03 -1.18001E+02
  5.91591E+03  1.40219E+03  2.29544E+03  4.84455E+03 -1.59276E+03  4.83539E+03 -5.81881E+03  3.68718E+03
 -7.18923E+03 -8.51876E+02 -3.06440E+03 -4.66938E+03  2.39081E+02 -7.09967E+03  4.37741E+03 -7.99242E+03
  7.31735E+03 -4.33281E+03  8.84724E+03  8.66749E+02  6.70391E+03  6.35315E+03  1.16442E+03  8.51527E+03
 -3.29095E+03  7.75261E+03 -4.73567E+03  2.83184E+03 -2.79191E+03 -1.36709E+03 -1.33245E+03 -8.87371E+02
 -7.90167E+02  2.16743E+02 -8.77941E+02  2.21075E+03 -3.30320E+03  1.26057E+03 -5.28889E+03 -6.13892E+02
 -2.33970E+03 -5.22612E+03  5.53408E+02 -6.17149E+03  4.04351E+03 -6.10844E+03  5.81126E+03 -1.78921E+03
  6.07392E+03  3.29760E+03  2.89469E+03  5.17753E+03 -1.06009E+03  6.49272E+03 -4.28022E+03  3.88318E+03
 -5.80891E+03  5.63830E+02 -4.78273E+03 -3.67336E+03 -1.87090E+02 -4.57973E+03  2.59052E+03 -3.54224E+03
  3.78176E+03 -1.86172E+03  2.34071E+03  8.99525E+02  8.35940E+02  2.26300E+03  1.31328E+03  9.03376E+02
  1.91467E+03  5.52988E+02  1.63210E+03  8.68986E+02  1.81814E+03  2.71341E+03  1.78950E+03  2.83993E+03
 -1.30135E+03  4.52072E+03 -3.99199E+03  5.40740E+03 -5.29598E+03  1.51975E+03 -6.68526E+03 -1.47251E+03
 -2.71428E+03 -5.61833E+03  1.01949E+03 -6.89694E+03  3.07401E+03 -3.98631E+03  4.51705E+03 -1.39470E+03
  3.55066E+03  2.32525E+03  8.70304E+02  3.27626E+03 -1.53566E+03  2.05681E+03 -2.03044E+03  3.21181E+01
 -1.16331E+03 -2.60296E+03  1.55171E+03 -2.47990E+03  2.00548E+03 -1.24338E+03  2.13165E+03  4.44382E+02
  1.51438E+03  7.07594E+02  1.02083E+03  5.82494E+02 -5.37474E+02  7.17456E+02  1.53441E+03 -1.79681E+02
  3.05894E+02 -5.86108E+02  2.68249E+03  7.09495E+02  9.82466E+02  3.30971E+03 -4.56205E+02  4.36713E+03
 -2.53672E+03  2.27472E+03 -3.23799E+03  6.52315E+02 -3.30683E+03 -1.08335E+03 -6.07908E+02 -1.96528E+03
  4.97910E+02 -1.58810E+03  1.34334E+03 -9.67113E+02  1.12528E+03  1.40462E+03 -7.87158E+02  1.72949E+03
 -2.20086E+03  1.34382E+03 -1.93565E+03 -1.54499E+03 -1.19200E+03 -3.29825E+03  3.29662E+02 -2.81452E+03
  8.96442E+02 -1.47658E+03  1.50294E+03  2.40523E+02  1.93884E+03  1.50741E+02  3.02023E+02  1.64463E+03
 -8.88227E+02  2.02892E+02 -1.30458E+03 -4.27466E+02  8.23577E+02 -1.87832E+03  2.66652E+03 -1.41652E+03
  2.72004E+03  1.17616E+02  3.75615E+03  1.61734E+03  1.49254E+03  3.07667E+03 -6.12886E+02  3.36117E+03
 -2.39364E+03  8.63837E+02 -2.70881E+03 -3.61071E+02 -1.33941E+03 -2.19135E+03  1.38074E+02 -1.23678E+03
  2.16708E+03 -9.94518E+02  1.48212E+03  1.05287E+03  3.43847E+02  2.00749E+03  1.23899E+02  1.68898E+03
 -6.95336E+02  1.47977E+03 -6.59269E+02  2.72693E+02  2.39885E+01  3.59312E+02 -7.35952E+02  9.07953E+02
 -8.88802E+02  1.54434E+03 -2.51691E+03  7.77301E+02 -3.03806E+03  2.91312E+02 -3.79097E+03 -1.55044E+03
 -1.77505E+03 -3.87119E+03  8.18739E+02 -4.84934E+03  2.22116E+03 -3.91099E+03  4.26498E+03 -1.68858E+03
  3.89723E+03  5.07909E+02  1.82620E+03  2.64493E+03 -5.92665E+02  2.69781E+03 -8.07215E+02  2.16797E+03
 -1.21035E+03  8.25007E+02 -8.73119E+02 -1.26045E+01 -7.43493E+02  3.52609E+02 -6.39229E+02 -1.55575E+02
 -9.50232E+02 -1.74979E+02 -9.37782E+02  2.16811E+01  2.12159E+02 -7.07686E+02 -4.64189E+02 -1.53017E+03
  1.65608E+03 -1.06368E+03  1.10824E+03  4.43102E+01  1.91242E+03  1.62452E+03 -3.76267E+01  2.52306E+03
 -1.41105E+03  3.21702E+03 -2.50829E+03  1.76063E+03 -3.21413E+03 -1.14439E+02 -2.13475E+03 -1.89913E+03
 -1.60653E+03 -2.54590E+03  4.77974E+02 -2.10014E+03  1.47644E+03 -1.02035E+03  1.54092E+03 -1.01303E+02
  8.48287E+02  5.90833E+02  7.88716E+01  8.16338E+02 -7.36733E+02  1.00245E+02 -2.72148E+01 -3.38400E+02
  8.07280E+02  1.11181E+02  5.92817E+02  8.91565E+02  6.21802E+02  9.08149E+02  3.62755E+02  1.22418E+03
 -1.23682E+03  8.80902E+02 -1.31388E+03  7.29580E+01 -1.67350E+03 -8.01796E+02 -3.71895E+01 -1.97422E+03
  9.49532E+02 -1.42348E+03  1.41722E+03 -2.00687E+02  1.65302E+03 -4.18761E+02  9.32956E+02  1.04392E+03
  4.15647E+02  1.21946E+03 -5.64057E+02  1.05778E+03 -8.89135E+02  9.43109E+02 -6.48281E+02  1.94448E+02
 -1.83229E+02  1.22495E+01 -4.75989E+02  8.61901E+01 -9.33668E+02  3.54867E+02 -1.32811E+03 -6.78966E+02
 -1.66681E+03 -1.09972E+02 -6.35911E+02 -1.77321E+03  8.01929E+02 -2.17496E+03  1.23909E+03 -8.07363E+02
  1.28224E+03 -1.25807E+02  1.00924E+02  8.38435E+02  1.43806E+02  1.70206E+03 -7.92661E+02  9.27059E+02
