 $NMID ID='MM_0lb_SNR800_18hz_g40_26.RAW', FMTDAT='(8E13.5)'
 TRAMP=1., VOLUME=1. $END
  3.09732E+05  3.29127E+02  3.37115E+05  2.50069E+05  8.42103E+04  3.37153E+05 -1.32479E+05  2.50272E+05
 -1.89645E+05  8.24814E+04 -1.10762E+05 -3.26877E+04  1.55333E+03 -5.01168E+04  5.40848E+04  3.20347E+02
  3.49228E+04  5.27331E+04 -1.68706E+04  7.45878E+04 -6.01532E+04  6.25545E+04 -8.29051E+04  3.13028E+04
 -7.96138E+04 -1.10790E+04 -5.60931E+04 -5.01040E+04 -1.49005E+04 -6.76452E+04  2.67521E+04 -4.46723E+04
  3.89372E+04  4.20160E+03  1.54205E+04  4.67161E+04 -3.39964E+04  4.59580E+04 -6.51813E+04 -5.90333E+02
 -5.18305E+04 -5.55920E+04 -5.98271E+03 -7.48862E+04  3.29736E+04 -5.32130E+04  4.59976E+04 -1.60597E+04
  4.10950E+04  1.10961E+04  3.08193E+04  2.44097E+04  1.59242E+04  2.81393E+04 -4.42928E+03  2.67266E+04
 -2.18220E+04  1.28846E+04 -1.90841E+04 -4.32082E+03  3.94597E+03 -7.60411E+03  2.10504E+04  1.07640E+04
  7.33414E+03  3.27465E+04 -3.01125E+04  3.37579E+04 -6.07754E+04  2.12886E+03 -5.52814E+04 -4.10924E+04
 -1.22953E+04 -6.07708E+04  3.79068E+04 -4.30344E+04  5.53104E+04 -1.75896E+03  3.15161E+04  3.01428E+04
 -6.65139E+03  3.26415E+04 -2.83547E+04  1.30088E+04 -2.74587E+04 -5.22691E+03 -1.42436E+04 -1.00897E+04
 -7.44408E+03 -1.11170E+04 -1.18722E+03 -1.63777E+04  6.59339E+03 -2.25321E+04  1.46828E+04 -1.39096E+04
  1.24788E+04  4.34248E+03 -5.99120E+03  1.32739E+04 -1.89685E+04 -2.06051E+03 -8.08955E+03 -3.02217E+04
  2.05681E+04 -4.01970E+04  4.44329E+04 -1.84909E+04  4.14764E+04  1.81910E+04  1.40193E+04  4.14741E+04
 -1.52779E+04  3.10523E+04 -2.33169E+04  1.29897E+03 -8.08839E+03 -2.58423E+04  2.03821E+04 -3.09275E+04
  3.76115E+04 -7.27025E+03  3.11619E+04  2.24561E+04  1.51858E+04  4.21066E+04 -7.81794E+03  4.48069E+04
 -2.82967E+04  2.93553E+04 -3.69941E+04  8.36164E+03 -3.78026E+04 -1.49234E+04 -2.11888E+04 -3.38972E+04
  6.91515E+03 -3.37079E+04  2.90189E+04 -1.27503E+04  2.67392E+04  1.06608E+04  2.90941E+03  1.76999E+04
 -1.29499E+04  6.97451E+03 -9.18999E+03 -7.78913E+03  6.03215E+03 -9.95966E+03  1.74699E+04  6.79778E+03
  1.24151E+04  2.16313E+04 -6.68313E+03  2.33449E+04 -2.13749E+04  9.06049E+03 -2.48900E+04 -6.34378E+03
 -1.64795E+04 -1.62792E+04 -5.41972E+03 -1.63917E+04  3.76693E+03 -1.40417E+04  1.24438E+04 -1.42907E+04
  2.08923E+04 -1.17395E+04  2.77706E+04  1.11996E+03  2.11816E+04  1.63988E+04  4.25726E+03  3.21718E+04
 -1.61323E+04  2.74557E+04 -2.56568E+04  9.32765E+03 -1.96171E+04 -1.04170E+04 -4.07368E+03 -1.40185E+04
  2.50864E+03 -4.59152E+03 -2.51706E+03  5.48464E+03 -1.28421E+04  5.25900E+03 -1.30432E+04 -4.80752E+03
 -8.46678E+03 -1.52872E+04  4.51048E+03 -1.92024E+04  1.24917E+04 -1.39456E+04  1.45316E+04 -1.10396E+03
  8.82656E+03  1.06506E+04 -8.01248E+02  1.53296E+04 -1.01271E+04  8.75623E+03 -1.52492E+04 -3.27949E+03
 -1.13852E+04 -1.41382E+04 -1.53784E+03 -1.89567E+04  8.57470E+03 -1.50633E+04  1.61260E+04 -7.32646E+03
  1.42841E+04  7.69846E+02  1.02245E+04  3.69969E+03  5.18424E+03  3.96650E+02  7.64058E+03 -1.33596E+03
  1.34976E+04  2.60742E+03  1.44542E+04  1.26666E+04  8.98522E+03  2.44588E+04 -3.13053E+03  2.60823E+04
 -1.55496E+04  2.00680E+04 -2.41501E+04  9.35556E+03 -2.46535E+04 -1.84042E+03 -2.11371E+04 -1.39179E+04
 -9.97594E+03 -1.99743E+04  6.54337E+03 -1.89369E+04  1.60926E+04 -1.06514E+04  1.54031E+04  3.74868E+03
  6.70746E+03  1.10045E+04 -7.06458E+03  1.03882E+04 -1.32223E+04  2.62430E+03 -1.05207E+04 -8.00358E+03
 -9.02435E+01 -1.23664E+04  6.41238E+03 -9.51699E+03  7.76358E+03 -1.38530E+03  1.22512E+03  4.96818E+03
 -5.25148E+03  1.18942E+03 -3.70476E+03 -4.56556E+03  8.04547E+02 -1.01679E+04  7.84612E+03 -9.99734E+03
  1.21664E+04 -4.69353E+03  1.18029E+04  2.62393E+03  1.02255E+04  9.23948E+03  4.77610E+03  1.39448E+04
 -1.95939E+03  1.56340E+04 -9.43748E+03  9.90469E+03 -1.10869E+04  2.90702E+03 -8.46926E+03 -1.64256E+03
 -4.44543E+03 -2.96039E+03 -8.93043E+02  1.75056E+03 -1.86019E+03  2.00613E+03 -3.34309E+03  3.68678E+03
 -8.02619E+03 -1.02170E+02 -8.56042E+03 -7.23137E+03 -3.61808E+03 -1.13524E+04  3.40703E+03 -8.27331E+03
  6.92028E+03 -3.79826E+03  5.12044E+03  2.07803E+03  6.01089E+02  3.18441E+03 -3.31580E+03 -1.98861E+01
 -3.36518E+03 -5.19036E+03 -7.23565E+02 -7.00383E+03  4.01692E+03 -7.84861E+03  9.73745E+03 -3.96957E+03
  1.16141E+04  8.21664E+02  8.30916E+03  6.04955E+03  1.95599E+03  8.42748E+03 -4.95412E+03  8.38029E+03
 -6.94198E+03  2.79898E+03 -3.48226E+03 -1.33051E+03  1.19723E+03 -1.95912E+03  4.74765E+03 -1.19242E+03
  4.01189E+03  3.34980E+03  1.22092E+03  6.73319E+03 -4.38334E+03  6.50869E+03 -7.89658E+03  1.75473E+03
 -4.71560E+03 -3.70408E+03  3.16955E+02 -6.75310E+03  3.53203E+03 -3.44866E+03  3.43340E+03  9.45078E+02
  3.09359E+02  3.46970E+03 -4.04526E+03  4.60563E+03 -4.82655E+03  2.35553E+03 -4.58577E+03 -1.18398E+03
 -3.26249E+03 -6.10658E+03  1.28296E+03 -6.79466E+03  6.07845E+03 -4.79922E+03  6.25431E+03  9.56763E+02
  4.80658E+03  5.03720E+03  1.61945E+02  7.03870E+03 -5.06198E+03  4.29800E+03 -4.98676E+03 -5.17466E+02
 -5.94607E+03 -5.24416E+03 -1.40090E+03 -5.13962E+03  2.52496E+03 -4.74771E+03  2.99284E+03 -3.07615E+03
  2.68416E+03  2.47013E+02  2.05489E+02  1.37568E+03  8.45327E+02 -3.09082E+01 -3.16880E+01 -1.69726E+03
  3.76268E+03 -7.40096E+02  5.41963E+03  4.89792E+02  5.91142E+03  3.25453E+03  5.10828E+03  7.37310E+03
 -1.44720E+03  8.40853E+03 -7.72258E+03  6.34153E+03 -9.73441E+03  1.07261E+03 -8.02519E+03 -2.51919E+03
 -4.24310E+03 -6.44947E+03 -5.73850E+02 -5.26261E+03  2.09746E+03 -2.26601E+03  1.43562E+03 -2.15504E+03
  1.20958E+03 -1.76920E+03  2.11500E+03 -2.46471E+03  3.72056E+03 -1.36436E+03  3.55730E+03  5.12671E+02
  4.52510E+03  1.22305E+03  1.12680E+03  3.55413E+03 -1.41633E+03  2.89702E+03 -4.64203E+03  2.68696E+03
 -5.07416E+03 -1.42106E+03 -1.99603E+03 -3.53933E+03  3.58609E+02 -5.14195E+03  3.10154E+03 -5.31353E+03
  5.10969E+03 -3.23752E+03  6.72235E+03  2.09883E+02  5.15904E+03  4.41851E+03  1.16823E+03  5.90464E+03
 -2.18240E+03  6.07837E+03 -3.54388E+03  1.68779E+03 -1.94914E+03 -1.13209E+03 -6.89157E+02 -4.94095E+02
 -2.38548E+02  5.75122E+02 -1.11472E+03  2.14733E+03 -2.74281E+03  1.01613E+03 -4.11614E+03 -5.00289E+02
 -1.85775E+03 -4.16121E+03  8.27433E+02 -4.82870E+03  2.95994E+03 -4.51753E+03  3.56965E+03 -1.11711E+03
  4.19707E+03  2.25679E+03  1.97103E+03  3.21788E+03 -7.57877E+02  4.57318E+03 -2.38603E+03  2.77420E+03
 -3.85174E+03  6.67581E+02 -3.52002E+03 -2.35146E+03  4.96715E+01 -3.43035E+03  1.76379E+03 -2.59887E+03
  2.90578E+03 -1.46127E+03  1.88703E+03  6.32561E+02  5.65027E+02  1.83711E+03  7.36737E+02  7.32397E+02
  1.68668E+03  9.10322E+02  9.92872E+02  9.57754E+02  1.31050E+03  2.09994E+03  1.18808E+03  1.94458E+03
 -1.11034E+03  3.05894E+03 -2.52826E+03  4.01886E+03 -2.82268E+03  1.27897E+03 -4.36814E+03 -5.44696E+02
 -1.72532E+03 -3.86432E+03  5.40083E+02 -4.89897E+03  2.10764E+03 -2.54466E+03  3.17133E+03 -1.08603E+03
  2.54633E+03  1.65704E+03  4.38348E+02  2.08217E+03 -5.14651E+02  1.28895E+03 -1.06958E+03 -6.39366E+01
 -5.43834E+02 -1.47825E+03  1.42454E+03 -1.65621E+03  1.57738E+03 -9.98511E+02  1.01426E+03  4.68260E+02
  1.03818E+03  4.81329E+02  7.09403E+02 -6.60223E+00 -5.19014E+02  8.80508E+02  1.62550E+03 -1.25869E+02
 -4.98816E+01 -3.37017E+02  1.76538E+03  4.86529E+02 -7.70016E+00  2.58358E+03 -2.90022E+02  3.22762E+03
 -1.67780E+03  9.69731E+02 -1.93142E+03  2.38909E+02 -2.04787E+03 -4.69329E+02 -2.12812E+02 -1.17590E+03
  5.08411E+02 -1.35187E+03  8.61072E+02 -5.03611E+02  8.26247E+02  1.01804E+03 -7.71432E+02  1.18737E+03
 -1.41838E+03  8.66799E+02 -1.59398E+03 -1.12618E+03 -8.06296E+02 -2.01248E+03 -3.55518E+01 -1.39811E+03
  3.96807E+02 -6.96403E+02  7.48552E+02  2.01372E+02  1.52588E+03 -1.24550E+02 -1.32367E+01  1.07206E+03
 -3.59021E+02 -8.63791E+01 -9.28156E+02 -2.16838E+02  7.03686E+02 -9.49136E+02  1.71581E+03 -8.27701E+02
  1.49931E+03  3.84422E+02  3.13038E+03  9.78336E+02  1.30780E+03  1.82575E+03 -2.15973E+02  2.16549E+03
 -1.75136E+03  5.02394E+02 -1.60848E+03 -1.31224E+01 -7.20045E+02 -1.74236E+03  2.81572E+02 -5.97866E+02
  1.21990E+03 -8.30040E+02  9.82951E+02  8.18752E+02  2.34992E+02  1.32377E+03  2.07689E+02  1.29610E+03
 -4.06078E+02  1.38381E+03 -1.68372E+02  4.05031E+02  7.01874E+01  3.10284E+02 -7.84549E+02  4.46906E+02
 -5.36934E+02  9.12527E+02 -1.85844E+03  6.86659E+02 -1.86711E+03  2.32708E+02 -2.92975E+03 -1.10613E+03
 -1.35532E+03 -2.60011E+03  8.24324E+02 -3.05736E+03  9.54236E+02 -2.77018E+03  2.86249E+03 -9.50555E+02
  2.85352E+03 -2.46976E+01  1.59123E+03  1.71925E+03 -7.34484E+02  1.54117E+03 -7.46841E+02  1.28606E+03
 -1.13093E+03  7.00707E+02 -7.11593E+02 -4.27359E+02 -4.09595E+02  2.88668E+02 -2.94942E+02 -1.56246E+02
 -1.13745E+03  1.25763E+02 -9.74524E+02  1.02330E+02  2.27713E+02 -9.21732E+02 -2.78015E+02 -8.53190E+02
  1.38224E+03 -6.37828E+02  5.14853E+02  4.58289E+01  1.41740E+03  1.19097E+03 -2.28506E+02  1.85255E+03
 -7.80667E+02  2.08240E+03 -1.69937E+03  1.47783E+03 -2.03426E+03 -8.37065E+01 -1.49717E+03 -1.44133E+03
 -1.04981E+03 -1.23140E+03  2.16465E+02 -1.70559E+03  8.31675E+02 -6.78737E+02  9.02800E+02  1.16695E+02
  5.89295E+02  4.43319E+02 -1.33004E+02  4.34462E+02 -3.99029E+02  3.16350E+01  1.04985E+02 -5.59670E+01
  6.15861E+02  2.80967E+02  6.25280E+02  4.34479E+02  2.32125E+02  7.95478E+02  5.23433E+02  3.41933E+02
 -7.55932E+02  5.68190E+02 -5.63884E+02  1.67035E+02 -7.51070E+02 -5.18298E+02  2.36858E+02 -1.37878E+03
  5.00294E+02 -1.10380E+03  8.36343E+02  1.31428E+02  1.05228E+03 -6.80194E+02  5.18802E+02  1.03063E+03
  4.37389E+02  8.81906E+02 -3.45743E+02  5.21364E+02 -5.60867E+02  6.02419E+02 -6.07696E+02  3.88867E+02
 -3.06039E+02  7.08836E+01 -5.39493E+02  1.62021E+02 -4.14837E+02  2.25810E+02 -9.27182E+02 -5.56882E+02
 -1.27554E+03  2.24683E+02 -4.85140E+02 -1.19999E+03  6.85389E+02 -1.47315E+03  7.23331E+02 -5.04942E+02
  9.70449E+02  7.34007E+01 -1.22573E+02  2.23040E+02 -3.54514E+01  7.26942E+02 -6.06317E+02  7.71249E+02
