 $NMID ID='MM_0lb_SNR800_18hz_g50_27.RAW', FMTDAT='(8E13.5)'
 TRAMP=1., VOLUME=1. $END
  3.10021E+05  4.87471E+02  3.37461E+05  2.50635E+05  8.46962E+04  3.37424E+05 -1.32294E+05  2.50204E+05
 -1.89733E+05  8.27547E+04 -1.11021E+05 -3.27950E+04  1.13533E+03 -5.02337E+04  5.40421E+04  3.28155E+02
  3.53537E+04  5.28742E+04 -1.68632E+04  7.48300E+04 -6.04840E+04  6.29832E+04 -8.33073E+04  3.15122E+04
 -7.98872E+04 -1.10340E+04 -5.65414E+04 -5.06342E+04 -1.50336E+04 -6.89843E+04  2.69975E+04 -4.51243E+04
  3.93700E+04  4.14322E+03  1.57249E+04  4.71798E+04 -3.39253E+04  4.63748E+04 -6.56683E+04 -4.67007E+02
 -5.25982E+04 -5.62851E+04 -6.34003E+03 -7.58011E+04  3.33606E+04 -5.38828E+04  4.66787E+04 -1.64417E+04
  4.19628E+04  1.10095E+04  3.10221E+04  2.46818E+04  1.58638E+04  2.83114E+04 -4.65327E+03  2.71084E+04
 -2.19625E+04  1.29251E+04 -1.86334E+04 -4.50209E+03  4.69358E+03 -7.69196E+03  2.16124E+04  1.12987E+04
  7.28911E+03  3.37557E+04 -3.09697E+04  3.42104E+04 -6.15266E+04  2.09483E+03 -5.56368E+04 -4.16597E+04
 -1.23435E+04 -6.14858E+04  3.86598E+04 -4.37877E+04  5.62221E+04 -2.10147E+03  3.24922E+04  3.12816E+04
 -6.40998E+03  3.38069E+04 -2.85181E+04  1.40041E+04 -2.83622E+04 -5.13242E+03 -1.47700E+04 -1.01635E+04
 -7.49526E+03 -1.21180E+04 -7.89842E+02 -1.67190E+04  6.85434E+03 -2.23714E+04  1.52744E+04 -1.36281E+04
  1.21862E+04  4.43596E+03 -6.68754E+03  1.30266E+04 -1.98738E+04 -2.57011E+03 -8.04169E+03 -3.12141E+04
  2.11966E+04 -4.09582E+04  4.52057E+04 -1.86868E+04  4.28585E+04  1.86460E+04  1.46607E+04  4.22185E+04
 -1.55343E+04  3.13917E+04 -2.36701E+04  1.05535E+03 -8.34449E+03 -2.67972E+04  2.07814E+04 -3.16196E+04
  3.86520E+04 -7.26599E+03  3.22498E+04  2.30104E+04  1.59365E+04  4.33278E+04 -7.75307E+03  4.62034E+04
 -2.91309E+04  3.07344E+04 -3.83055E+04  8.77084E+03 -3.91412E+04 -1.57478E+04 -2.19355E+04 -3.51523E+04
  6.78676E+03 -3.49593E+04  2.94124E+04 -1.31667E+04  2.73751E+04  1.10228E+04  3.29680E+03  1.82596E+04
 -1.30012E+04  7.32621E+03 -9.91899E+03 -7.77959E+03  6.25638E+03 -1.03223E+04  1.74275E+04  6.51098E+03
  1.25957E+04  2.16049E+04 -6.77880E+03  2.39946E+04 -2.15164E+04  9.39795E+03 -2.59679E+04 -5.95390E+03
 -1.74885E+04 -1.66619E+04 -6.27431E+03 -1.75099E+04  4.08786E+03 -1.58239E+04  1.29333E+04 -1.49996E+04
  2.22056E+04 -1.19678E+04  2.90508E+04  1.29330E+03  2.18176E+04  1.71312E+04  3.94968E+03  3.31103E+04
 -1.65858E+04  2.80749E+04 -2.62781E+04  9.72649E+03 -1.99079E+04 -1.00973E+04 -4.02869E+03 -1.38622E+04
  2.45777E+03 -3.98425E+03 -3.20484E+03  5.63147E+03 -1.31897E+04  4.89161E+03 -1.40238E+04 -5.34360E+03
 -8.75714E+03 -1.61233E+04  4.65309E+03 -2.01619E+04  1.29064E+04 -1.46102E+04  1.55448E+04 -1.63382E+03
  9.74275E+03  1.12692E+04 -9.53774E+02  1.64965E+04 -1.07088E+04  8.93564E+03 -1.61199E+04 -3.44185E+03
 -1.21058E+04 -1.48699E+04 -1.21861E+03 -2.00613E+04  8.69826E+03 -1.58977E+04  1.67345E+04 -7.88400E+03
  1.52231E+04  5.56692E+02  1.07860E+04  3.93974E+03  5.34506E+03  8.03771E+02  7.94820E+03 -1.32110E+03
  1.44137E+04  2.70257E+03  1.53005E+04  1.31759E+04  9.89939E+03  2.55653E+04 -3.02031E+03  2.77884E+04
 -1.65598E+04  2.13652E+04 -2.56437E+04  1.04612E+04 -2.65438E+04 -1.87740E+03 -2.23227E+04 -1.49369E+04
 -1.02659E+04 -2.15506E+04  7.42604E+03 -1.98375E+04  1.73024E+04 -1.11422E+04  1.60486E+04  3.78241E+03
  6.65032E+03  1.17512E+04 -7.34863E+03  1.06552E+04 -1.39187E+04  2.63625E+03 -1.06365E+04 -8.34698E+03
 -9.75908E+00 -1.27745E+04  6.22374E+03 -9.93878E+03  8.32453E+03 -1.25373E+03  1.51499E+03  5.42588E+03
 -5.40695E+03  1.74674E+03 -4.11814E+03 -4.67889E+03  4.79019E+02 -1.07879E+04  8.18321E+03 -1.07579E+04
  1.30368E+04 -5.08595E+03  1.28832E+04  2.73460E+03  1.13166E+04  9.81844E+03  5.21761E+03  1.48516E+04
 -1.79097E+03  1.69315E+04 -1.01548E+04  1.05402E+04 -1.18739E+04  3.07287E+03 -8.50144E+03 -2.18521E+03
 -4.69546E+03 -3.68524E+03 -8.52629E+02  1.56555E+03 -2.23977E+03  2.05047E+03 -3.72518E+03  3.80533E+03
 -8.68638E+03 -5.84366E+02 -9.22978E+03 -7.49665E+03 -3.72584E+03 -1.19055E+04  3.71084E+03 -8.80312E+03
  7.65577E+03 -3.68379E+03  5.81511E+03  2.27332E+03  4.91201E+02  3.30464E+03 -3.57862E+03 -1.33812E+02
 -3.59581E+03 -5.54412E+03 -6.34735E+02 -7.63470E+03  3.98410E+03 -8.42257E+03  1.04834E+04 -4.28195E+03
  1.23440E+04  5.60732E+02  9.37490E+03  6.62235E+03  2.04027E+03  9.35041E+03 -5.78397E+03  8.65901E+03
 -7.33737E+03  2.79760E+03 -3.91589E+03 -1.19061E+03  1.50060E+03 -2.00093E+03  4.67868E+03 -6.16848E+02
  4.27576E+03  3.68909E+03  1.11760E+03  6.91558E+03 -4.66189E+03  6.59201E+03 -8.57528E+03  1.91112E+03
 -5.29605E+03 -3.68076E+03  3.74152E+02 -7.04403E+03  4.15547E+03 -3.50390E+03  3.65535E+03  1.09064E+03
  2.75639E+02  3.72947E+03 -4.11723E+03  5.03857E+03 -5.54543E+03  2.58702E+03 -5.03230E+03 -1.24747E+03
 -2.87384E+03 -6.61240E+03  1.25768E+03 -7.58328E+03  6.46867E+03 -4.95711E+03  6.96361E+03  8.42697E+02
  4.92919E+03  5.68314E+03  3.87077E+01  7.64727E+03 -5.38601E+03  4.54934E+03 -5.46611E+03 -3.55019E+02
 -5.93184E+03 -5.44447E+03 -1.42098E+03 -5.31359E+03  2.62688E+03 -4.82234E+03  3.00999E+03 -2.56383E+03
  2.76441E+03  3.01142E+02  1.23816E+02  1.57126E+03  4.89945E+02 -1.44387E+02  3.99757E+02 -2.17247E+03
  4.17355E+03 -9.76203E+02  5.75879E+03  6.77971E+02  6.28624E+03  3.29512E+03  5.54279E+03  7.76743E+03
 -1.30135E+03  8.96065E+03 -8.45879E+03  6.67887E+03 -1.06881E+04  1.25298E+03 -8.12731E+03 -3.04216E+03
 -4.39400E+03 -6.73430E+03 -3.91932E+02 -5.50238E+03  2.26533E+03 -2.32032E+03  1.90298E+03 -2.08542E+03
  1.16660E+03 -1.42506E+03  2.32141E+03 -2.53515E+03  3.85240E+03 -1.28128E+03  4.04577E+03  2.32672E+02
  4.84752E+03  1.12893E+03  1.39474E+03  3.59637E+03 -1.56053E+03  3.10928E+03 -4.65363E+03  3.08575E+03
 -5.23204E+03 -9.40220E+02 -1.98556E+03 -3.47027E+03  3.22471E+02 -5.17619E+03  3.45069E+03 -5.64625E+03
  5.42053E+03 -3.39322E+03  7.27209E+03  2.74456E+02  5.25279E+03  4.77393E+03  1.34599E+03  6.68397E+03
 -2.00753E+03  6.07197E+03 -3.56102E+03  2.04704E+03 -2.02058E+03 -7.09104E+02 -7.22078E+02 -5.89857E+02
 -4.16980E+02  5.28901E+02 -1.04803E+03  1.85033E+03 -2.52873E+03  1.12510E+03 -4.30268E+03 -4.45275E+02
 -1.72070E+03 -4.25433E+03  6.04650E+02 -4.91363E+03  2.98130E+03 -4.70242E+03  3.69313E+03 -1.30664E+03
  4.35144E+03  2.77374E+03  1.81827E+03  3.78513E+03 -5.68596E+02  4.87858E+03 -2.94900E+03  2.70550E+03
 -4.24418E+03  7.64758E+02 -3.73958E+03 -2.62349E+03 -3.97952E+02 -3.37972E+03  1.70379E+03 -2.75862E+03
  2.91252E+03 -1.44540E+03  1.76477E+03  3.48976E+02  6.60866E+02  1.65514E+03  8.92961E+02  4.05653E+02
  1.55138E+03  8.80714E+02  1.54448E+03  1.04743E+03  1.39240E+03  2.35958E+03  1.62986E+03  1.80055E+03
 -1.46950E+03  2.94557E+03 -2.85896E+03  4.08999E+03 -3.46214E+03  1.29254E+03 -4.35926E+03 -5.73377E+02
 -1.96898E+03 -3.86224E+03  6.07427E+02 -4.83903E+03  1.83497E+03 -2.79745E+03  3.23014E+03 -1.15171E+03
  2.60554E+03  1.79284E+03  4.25855E+02  2.43193E+03 -7.43034E+02  1.49198E+03 -1.25635E+03 -4.44483E+02
 -7.55517E+02 -1.60482E+03  1.19595E+03 -1.88533E+03  1.43761E+03 -8.04550E+02  1.55523E+03  4.99339E+02
  6.52273E+02  2.92775E+02  8.11106E+02 -2.42763E+02 -2.87763E+02  7.01566E+02  1.56236E+03 -1.08701E+02
 -1.04479E+02 -3.58050E+02  1.72470E+03  6.53197E+02  5.21936E+02  2.62615E+03 -2.74636E+02  3.11007E+03
 -1.83153E+03  1.12891E+03 -2.20388E+03  4.53511E+02 -2.25296E+03 -8.78489E+02 -2.09311E+02 -8.86308E+02
  3.37635E+02 -1.27564E+03  1.13525E+03 -8.80384E+02  5.58551E+02  1.55627E+03 -7.34466E+02  1.48432E+03
 -1.44588E+03  7.29559E+02 -1.37073E+03 -1.37859E+03 -7.88248E+02 -2.27231E+03  3.16347E+02 -1.66679E+03
  5.80538E+02 -9.70138E+02  8.05618E+02  3.13713E+02  1.27191E+03  2.31693E+01  2.45441E+01  1.26634E+03
 -5.27326E+02  1.26160E+02 -7.93465E+02 -3.10481E+02  5.84432E+02 -9.68316E+02  1.73953E+03 -9.88526E+02
  1.49529E+03  2.50877E+02  2.94216E+03  9.69766E+02  7.44791E+02  1.80709E+03 -4.80885E+02  2.01002E+03
 -1.56183E+03 -7.51929E+01 -1.73623E+03 -2.71011E+01 -7.64408E+02 -1.60665E+03  5.06266E+02 -6.49851E+02
  1.56763E+03 -6.93580E+02  7.73008E+02  9.99722E+02  1.36582E+02  1.29409E+03  2.66881E+02  1.17461E+03
 -7.24713E+02  1.22654E+03 -4.32904E+02 -5.58905E+00 -1.10967E+02  3.79465E+02 -6.79418E+02  4.65772E+02
 -5.83557E+02  1.14561E+03 -1.81527E+03  4.45098E+02 -1.62970E+03  2.99035E+02 -2.42066E+03 -1.28186E+03
 -1.41533E+03 -2.36854E+03  5.17847E+02 -3.23075E+03  9.62853E+02 -2.74359E+03  2.92269E+03 -1.06927E+03
  2.56817E+03  4.14079E+01  1.34560E+03  1.68155E+03 -4.50091E+02  1.57361E+03 -7.11484E+02  1.69143E+03
 -1.22308E+03  7.45441E+02 -6.86923E+02 -3.69797E+02 -4.40785E+02  2.67391E+02 -6.12319E+02  7.47072E+01
 -1.08109E+03  1.30271E+02 -8.40401E+02  1.79505E+02 -1.33411E+01 -6.07879E+02 -3.39035E+02 -8.75280E+02
  1.37069E+03 -6.69059E+02  6.10766E+02  1.44914E+02  1.01764E+03  1.15404E+03 -2.88976E+02  1.73008E+03
 -8.66883E+02  2.51575E+03 -1.53841E+03  1.19632E+03 -1.71345E+03 -3.16389E+02 -1.35815E+03 -1.33855E+03
 -1.13551E+03 -1.52414E+03  1.47770E+02 -1.28373E+03  6.28365E+02 -6.44979E+02  4.04962E+02  1.84995E+01
  9.00257E+02  4.10019E+02  2.19171E+02  2.85738E+02 -2.93240E+02 -6.78560E+01 -3.23157E+02 -2.68097E+02
  2.93250E+02  1.95353E+02  3.48382E+02  5.57160E+02 -3.83295E+01  4.71663E+02  5.21543E+02  4.41908E+02
 -4.13255E+02  9.13160E+02 -6.79241E+02  4.16166E+01 -8.45723E+02 -3.57910E+02  1.43790E+02 -1.41761E+03
  6.87583E+02 -1.02628E+03  6.71051E+02  1.80388E+02  9.50864E+02 -6.32832E+02  6.16258E+02  7.28208E+02
  4.50012E+02  4.71815E+02 -1.58092E+02  8.43934E+02 -6.93495E+02  6.69348E+02 -4.75570E+02  2.05975E+02
 -3.56715E+02 -1.66545E+02 -6.17288E+02  7.46680E+01 -4.40184E+02 -5.37788E+01 -1.08591E+03 -4.23780E+02
 -6.67299E+02  3.38734E+02 -2.72844E+02 -9.73100E+02  6.91942E+02 -1.92576E+03  8.45115E+02 -3.49898E+02
  9.04616E+02  1.52321E+01 -2.42799E+02  2.98978E+02 -2.15653E+02  9.00158E+02 -3.92455E+02  7.45801E+02
