 $NMID ID='MM_0lb_SNR800_19hz_g40_82.RAW', FMTDAT='(8E13.5)'
 TRAMP=1., VOLUME=1. $END
  3.09745E+05  1.88713E+01  3.37299E+05  2.50540E+05  8.43351E+04  3.37526E+05 -1.32579E+05  2.50020E+05
 -1.89555E+05  8.22862E+04 -1.10780E+05 -3.29376E+04  1.59705E+03 -4.99425E+04  5.40764E+04  3.46905E+02
  3.49302E+04  5.27438E+04 -1.70077E+04  7.46165E+04 -6.02210E+04  6.25257E+04 -8.24675E+04  3.12714E+04
 -7.91152E+04 -1.07712E+04 -5.59012E+04 -4.98051E+04 -1.49418E+04 -6.77858E+04  2.65363E+04 -4.43283E+04
  3.84698E+04  3.85274E+03  1.53198E+04  4.69920E+04 -3.37425E+04  4.58761E+04 -6.49536E+04 -6.44283E+02
 -5.14856E+04 -5.55658E+04 -6.05626E+03 -7.42380E+04  3.25307E+04 -5.25678E+04  4.59703E+04 -1.59020E+04
  4.09044E+04  1.11365E+04  3.02353E+04  2.39694E+04  1.54740E+04  2.77781E+04 -4.32991E+03  2.65563E+04
 -2.13403E+04  1.29875E+04 -1.92042E+04 -4.08809E+03  3.88407E+03 -7.49222E+03  2.09617E+04  1.04123E+04
  7.50061E+03  3.27665E+04 -2.99513E+04  3.32671E+04 -6.00975E+04  2.15681E+03 -5.45097E+04 -4.07653E+04
 -1.22688E+04 -6.01049E+04  3.74637E+04 -4.24541E+04  5.43917E+04 -1.83781E+03  3.10767E+04  3.00889E+04
 -6.74627E+03  3.22674E+04 -2.78088E+04  1.25958E+04 -2.67393E+04 -5.76743E+03 -1.37650E+04 -9.62249E+03
 -6.71643E+03 -1.10450E+04 -1.05649E+03 -1.61760E+04  6.27829E+03 -2.24921E+04  1.47152E+04 -1.40564E+04
  1.25093E+04  3.86677E+03 -5.62937E+03  1.30530E+04 -1.88341E+04 -1.95621E+03 -7.96742E+03 -2.94123E+04
  2.01873E+04 -3.94976E+04  4.34479E+04 -1.83362E+04  4.10900E+04  1.77440E+04  1.37799E+04  4.10084E+04
 -1.49765E+04  3.03765E+04 -2.27405E+04  7.52894E+02 -7.93763E+03 -2.59690E+04  2.00874E+04 -3.03199E+04
  3.69108E+04 -6.66075E+03  3.03039E+04  2.23716E+04  1.43419E+04  4.14832E+04 -7.50966E+03  4.37097E+04
 -2.76589E+04  2.87450E+04 -3.58897E+04  7.98396E+03 -3.72148E+04 -1.46276E+04 -2.04734E+04 -3.36293E+04
  6.62569E+03 -3.29090E+04  2.83533E+04 -1.22994E+04  2.62443E+04  1.05098E+04  2.69614E+03  1.72324E+04
 -1.30810E+04  6.68786E+03 -9.44439E+03 -7.69203E+03  5.85240E+03 -9.93361E+03  1.68525E+04  6.70031E+03
  1.20717E+04  2.13937E+04 -6.85203E+03  2.28663E+04 -2.12917E+04  8.57478E+03 -2.44909E+04 -6.79630E+03
 -1.56902E+04 -1.61561E+04 -5.02831E+03 -1.56630E+04  3.65971E+03 -1.32187E+04  1.15466E+04 -1.33826E+04
  2.00008E+04 -1.15752E+04  2.69643E+04  5.48846E+02  2.08054E+04  1.55176E+04  4.12885E+03  3.15307E+04
 -1.54084E+04  2.67814E+04 -2.53115E+04  9.05626E+03 -1.94660E+04 -1.04593E+04 -3.62171E+03 -1.39124E+04
  2.55546E+03 -4.39477E+03 -2.09164E+03  5.04168E+03 -1.22005E+04  5.43428E+03 -1.26528E+04 -4.35037E+03
 -8.29525E+03 -1.45838E+04  4.32234E+03 -1.84535E+04  1.22954E+04 -1.34311E+04  1.37863E+04 -1.44213E+03
  8.26192E+03  1.02328E+04 -8.52656E+02  1.48911E+04 -9.52413E+03  8.30776E+03 -1.44565E+04 -3.32439E+03
 -1.05318E+04 -1.37611E+04 -1.48557E+03 -1.78596E+04  8.03218E+03 -1.43550E+04  1.53348E+04 -7.06379E+03
  1.38520E+04  7.24391E+02  9.78502E+03  3.80722E+03  4.77917E+03  5.13519E+02  7.26891E+03 -1.28116E+03
  1.29424E+04  2.65018E+03  1.37251E+04  1.19197E+04  8.20839E+03  2.34177E+04 -3.16823E+03  2.48147E+04
 -1.49063E+04  1.86573E+04 -2.25825E+04  8.73928E+03 -2.28729E+04 -1.79398E+03 -1.98515E+04 -1.30740E+04
 -9.89415E+03 -1.87372E+04  6.10203E+03 -1.80673E+04  1.52506E+04 -1.03593E+04  1.48655E+04  3.30618E+03
  6.13844E+03  1.07485E+04 -6.70821E+03  9.98264E+03 -1.26094E+04  2.58585E+03 -1.01807E+04 -7.58327E+03
 -2.29527E+02 -1.14622E+04  5.57204E+03 -9.10035E+03  7.64016E+03 -1.52407E+03  1.10396E+03  4.40889E+03
 -5.19522E+03  8.38690E+02 -3.19641E+03 -4.64057E+03  9.35286E+02 -9.46520E+03  7.59998E+03 -9.15387E+03
  1.12768E+04 -3.94496E+03  1.07855E+04  2.87755E+03  9.44596E+03  8.89114E+03  4.56017E+03  1.28470E+04
 -1.20489E+03  1.48855E+04 -8.83167E+03  9.22995E+03 -1.04930E+04  2.84161E+03 -8.09595E+03 -1.51775E+03
 -4.41174E+03 -2.99138E+03 -1.04341E+03  1.78147E+03 -1.62288E+03  1.85646E+03 -3.41151E+03  3.31401E+03
 -7.55881E+03 -4.41973E+02 -8.51421E+03 -7.07209E+03 -3.56748E+03 -1.07523E+04  3.39779E+03 -7.78201E+03
  6.48008E+03 -3.65658E+03  5.01783E+03  1.96682E+03  6.34838E+02  2.58568E+03 -3.53473E+03 -1.67400E+02
 -3.29785E+03 -4.97434E+03 -8.40529E+02 -6.64736E+03  3.43226E+03 -7.23420E+03  9.50316E+03 -3.47937E+03
  1.09098E+04  4.83980E+02  8.12221E+03  5.42968E+03  1.66593E+03  7.54488E+03 -4.94867E+03  7.76687E+03
 -6.49251E+03  2.76490E+03 -3.44665E+03 -1.30471E+03  1.15153E+03 -1.67239E+03  4.82717E+03 -8.92678E+02
  3.72389E+03  3.09638E+03  1.02214E+03  6.13054E+03 -4.09202E+03  6.17193E+03 -7.16806E+03  1.91460E+03
 -4.45035E+03 -3.24347E+03  4.78350E+02 -6.33406E+03  3.39016E+03 -3.13275E+03  3.01400E+03  7.61088E+02
  1.68358E+02  2.98073E+03 -4.01313E+03  4.09076E+03 -4.31297E+03  2.44631E+03 -4.02617E+03 -9.12494E+02
 -2.88902E+03 -5.29361E+03  8.38243E+02 -6.15588E+03  5.37502E+03 -4.46855E+03  5.88857E+03  6.28588E+02
  4.29729E+03  4.62158E+03  3.23137E+02  7.08978E+03 -4.71778E+03  3.85637E+03 -5.04191E+03 -4.75835E+02
 -5.47538E+03 -4.71583E+03 -1.33571E+03 -4.68223E+03  2.48593E+03 -4.15741E+03  2.45882E+03 -2.80522E+03
  2.70675E+03 -9.97333E+01  1.99411E+02  1.27509E+03  6.51602E+02 -9.09089E+00 -9.16444E+01 -1.63499E+03
  3.51073E+03 -4.11209E+02  4.65797E+03  8.27737E+02  5.18246E+03  2.74574E+03  5.03110E+03  6.35060E+03
 -1.09454E+03  7.57955E+03 -6.86603E+03  6.09438E+03 -8.95499E+03  1.25867E+03 -7.08831E+03 -2.31488E+03
 -3.72182E+03 -5.79259E+03 -4.54288E+02 -4.78367E+03  1.67043E+03 -1.71510E+03  1.45502E+03 -1.86409E+03
  1.02431E+03 -1.57998E+03  1.88937E+03 -2.36140E+03  3.30396E+03 -1.50862E+03  3.35535E+03  2.01881E+02
  4.31356E+03  1.16171E+03  7.97812E+02  3.05175E+03 -1.34996E+03  2.29944E+03 -4.03245E+03  2.41309E+03
 -4.36375E+03 -1.11203E+03 -1.44282E+03 -2.94986E+03  6.94176E+02 -4.46210E+03  2.89361E+03 -4.78334E+03
  4.56978E+03 -2.92189E+03  6.25400E+03  1.41843E+01  4.47683E+03  3.63596E+03  1.15128E+03  5.38589E+03
 -1.70832E+03  5.34091E+03 -2.92216E+03  1.75700E+03 -1.69003E+03 -1.13840E+03  2.16321E+01 -4.87757E+02
 -4.08076E+02  2.14454E+02 -7.65666E+02  2.09538E+03 -2.19070E+03  1.04794E+03 -3.96521E+03 -3.73297E+02
 -1.21781E+03 -3.51593E+03  9.24322E+02 -4.25136E+03  2.49783E+03 -3.88761E+03  2.89738E+03 -9.39696E+02
  3.68527E+03  2.42656E+03  1.50687E+03  2.89397E+03 -8.79021E+02  4.17689E+03 -2.39627E+03  2.52782E+03
 -3.49225E+03  5.75619E+02 -3.14774E+03 -2.25531E+03 -1.95698E+02 -2.54142E+03  1.33051E+03 -1.75665E+03
  2.40896E+03 -1.33880E+03  1.65246E+03  2.47044E+02  4.67612E+02  1.60222E+03  7.75778E+02  3.85186E+02
  1.72359E+03  4.85259E+02  1.09691E+03  9.09434E+02  9.44359E+02  2.08390E+03  1.47738E+03  1.46011E+03
 -1.46538E+03  2.62745E+03 -2.21464E+03  3.95673E+03 -2.37421E+03  1.40637E+03 -3.62556E+03 -4.02158E+02
 -1.32382E+03 -3.18409E+03  5.32614E+02 -4.43242E+03  1.56102E+03 -2.36202E+03  2.93727E+03 -8.39621E+02
  2.24122E+03  1.53545E+03  2.00088E+02  2.04508E+03 -6.64725E+02  1.06035E+03 -9.31039E+02 -1.94387E+02
 -4.78361E+02 -1.61907E+03  1.56486E+03 -1.24131E+03  8.23710E+02 -8.38061E+02  1.11510E+03  3.29631E+02
  6.82454E+02  1.95066E+02  6.88811E+02 -3.58889E+02 -1.22200E+02  6.55131E+02  1.51949E+03 -3.95567E+02
  1.71768E+01 -2.03002E+02  1.82189E+03  5.59954E+02  5.55292E+01  2.17751E+03 -2.10967E+02  2.71372E+03
 -1.46575E+03  8.62193E+02 -1.73143E+03  2.43464E+02 -2.06819E+03 -3.65061E+02 -3.05435E+02 -9.19425E+02
  2.23743E+02 -1.02905E+03  8.29765E+02 -6.81552E+02  5.17750E+02  1.35436E+03 -8.28006E+02  1.14013E+03
 -1.21403E+03  8.21332E+02 -1.03994E+03 -1.21099E+03 -4.60542E+02 -2.03644E+03  3.61783E+01 -1.49286E+03
  3.73086E+02 -3.42013E+02  7.01129E+02  6.01002E+02  1.48123E+03 -2.51361E+02  2.75723E+02  1.14703E+03
 -2.94136E+02  2.38502E+02 -7.65459E+02 -3.59967E+02  1.02676E+03 -8.15170E+02  1.60644E+03 -9.59198E+02
  9.77234E+02  5.26373E+01  2.42565E+03  7.74258E+02  1.31785E+03  1.18288E+03 -8.79948E+01  1.62979E+03
 -1.22359E+03  6.59597E+01 -1.29009E+03  1.36252E+01 -7.11844E+02 -1.29787E+03  2.79972E+02 -4.10898E+02
  1.39266E+03 -5.87570E+02  5.39682E+02  7.51566E+02 -1.27434E+02  1.08175E+03 -1.47229E+01  1.10954E+03
 -1.36349E+02  1.54754E+03 -3.45076E+02  2.72551E+02 -1.96766E+02  4.66500E+02 -7.82429E+02  1.88022E+02
 -6.41731E+02  9.68538E+02 -1.60825E+03  5.01744E+02 -1.51409E+03  1.08439E+02 -2.49409E+03 -7.23760E+02
 -1.05496E+03 -1.99950E+03  3.87742E+02 -2.86892E+03  7.67928E+02 -2.52550E+03  2.88589E+03 -1.04714E+03
  2.04807E+03  1.06640E+02  1.31436E+03  1.24186E+03 -5.72802E+02  1.32300E+03 -4.68622E+02  9.61354E+02
 -1.01304E+03  5.95760E+02 -1.22960E+02  3.47860E+01 -6.14136E+02  2.39472E+02 -6.54204E+02 -5.57122E+01
 -9.63488E+02 -1.36692E+02 -8.84884E+02  1.24048E+02  2.66281E+02 -3.67573E+02 -5.09350E+02 -6.59914E+02
  1.47165E+03 -3.56585E+02  1.15585E+02  2.75146E+02  1.16047E+03  1.04520E+03 -5.54336E+02  1.39425E+03
 -1.08669E+03  2.27434E+03 -1.40836E+03  1.08609E+03 -1.48405E+03 -8.46862E+01 -9.20491E+02 -1.14619E+03
 -6.19825E+02 -1.06765E+03  1.52303E+02 -1.02133E+03  5.87993E+02 -8.42212E+02  6.11395E+02  2.06908E+02
  6.10351E+02  1.44254E+02 -2.61468E+00  6.52329E+01 -3.07471E+02  1.46264E+02  8.65824E+00 -5.65036E+01
  5.31894E+02  8.74313E+01  2.52856E+02  4.89695E+02  1.07644E+02  2.18386E+02  5.13200E+02 -8.64451E+01
 -4.79889E+02  6.43885E+02 -5.71217E+02 -3.17712E+01 -6.00231E+02 -4.00161E+02  4.91574E+02 -9.90342E+02
  2.35593E+02 -5.71691E+02  4.41115E+02 -1.04488E+02  8.06114E+02 -7.33716E+02  4.16259E+02  7.11833E+02
  3.67394E+02  3.24039E+02 -2.20536E+02  5.39527E+02 -3.63355E+02  5.20731E+02 -2.35499E+02  5.50974E+01
  3.43531E+01 -1.85513E+02 -2.24972E+02  2.53024E+02 -6.91799E+02  1.36475E+02 -4.56777E+02 -4.75978E+02
 -1.02760E+03  4.68692E+02 -3.13834E+02 -6.30945E+02  7.45640E+02 -1.60170E+03  5.35539E+02 -2.30874E+02
  4.59656E+02 -1.53637E+02 -6.66926E+02  2.54818E+02 -2.98086E+02  4.38552E+02 -3.20078E+02  7.74270E+02
