 $NMID ID='MM_0lb_SNR800_7hz_g60_98.RAW', FMTDAT='(8E13.5)'
 TRAMP=1., VOLUME=1. $END
  3.10313E+05  4.14233E+02  3.38106E+05  2.50443E+05  8.45595E+04  3.38563E+05 -1.32907E+05  2.52501E+05
 -1.91003E+05  8.39526E+04 -1.12983E+05 -3.20908E+04 -2.26444E+02 -5.10051E+04  5.40820E+04 -5.73207E+02
  3.58199E+04  5.27044E+04 -1.66365E+04  7.67872E+04 -6.13810E+04  6.49054E+04 -8.63391E+04  3.25718E+04
 -8.28386E+04 -1.20812E+04 -5.93386E+04 -5.32554E+04 -1.51825E+04 -7.19566E+04  2.90860E+04 -4.73515E+04
  4.14353E+04  3.82655E+03  1.70688E+04  4.93197E+04 -3.52269E+04  4.85945E+04 -6.85884E+04  2.79486E+01
 -5.57405E+04 -5.79228E+04 -7.34898E+03 -8.02743E+04  3.52998E+04 -5.81617E+04  5.07592E+04 -1.86484E+04
  4.58601E+04  1.17299E+04  3.40767E+04  2.70911E+04  1.55670E+04  3.13171E+04 -6.15610E+03  2.80113E+04
 -2.22795E+04  1.14171E+04 -1.75959E+04 -6.35714E+03  7.71007E+03 -7.56190E+03  2.37856E+04  1.45862E+04
  6.68498E+03  3.83685E+04 -3.51921E+04  3.82797E+04 -6.75238E+04  2.09969E+03 -6.02930E+04 -4.58201E+04
 -1.24783E+04 -6.76290E+04  4.25978E+04 -4.84172E+04  6.34590E+04 -1.99764E+03  3.83298E+04  3.55147E+04
 -5.08951E+03  4.15773E+04 -3.27109E+04  1.98973E+04 -3.52233E+04 -2.81093E+03 -2.07249E+04 -1.29758E+04
 -1.02472E+04 -1.62817E+04 -8.30905E+02 -2.05030E+04  9.00073E+03 -2.39782E+04  1.61052E+04 -1.17138E+04
  1.05155E+04  6.97189E+03 -1.17836E+04  1.29725E+04 -2.43231E+04 -7.59960E+03 -8.58197E+03 -3.97859E+04
  2.62197E+04 -4.94548E+04  5.40299E+04 -2.17594E+04  5.09360E+04  2.12054E+04  1.82860E+04  4.92804E+04
 -1.71643E+04  3.75206E+04 -2.87144E+04  3.10346E+03 -1.25518E+04 -3.08631E+04  2.15954E+04 -3.87732E+04
  4.66962E+04 -1.23170E+04  4.31346E+04  2.58204E+04  2.31949E+04  5.35607E+04 -8.60798E+03  5.93162E+04
 -3.71819E+04  4.11116E+04 -5.06564E+04  1.16672E+04 -5.07741E+04 -2.00096E+04 -2.75108E+04 -4.47243E+04
  8.33438E+03 -4.45191E+04  3.56412E+04 -1.86464E+04  3.35265E+04  1.09078E+04  6.01614E+03  2.18098E+04
 -1.38045E+04  1.04907E+04 -1.20025E+04 -7.56417E+03  5.94989E+03 -1.19398E+04  1.96410E+04  5.62266E+03
  1.54119E+04  2.24286E+04 -4.49874E+03  2.84615E+04 -2.38019E+04  1.60415E+04 -3.40038E+04 -1.81532E+03
 -2.85310E+04 -1.90168E+04 -1.37569E+04 -2.78689E+04  4.37951E+03 -2.96044E+04  2.26333E+04 -2.58986E+04
  3.59470E+04 -1.50286E+04  4.12252E+04  6.03817E+03  2.90017E+04  2.70995E+04  4.11029E+03  4.45515E+04
 -2.14233E+04  3.61474E+04 -3.19487E+04  1.29617E+04 -2.33195E+04 -9.78994E+03 -5.55974E+03 -1.26607E+04
  4.14473E+02  1.95037E+02 -9.57515E+03  9.36252E+03 -2.29694E+04  5.14774E+03 -2.25883E+04 -1.12356E+04
 -1.32576E+04 -2.59938E+04  6.62659E+03 -3.08661E+04  2.12624E+04 -2.16098E+04  2.53334E+04 -1.72062E+03
  1.65279E+04  1.80283E+04 -1.29667E+03  2.66835E+04 -1.91807E+04  1.51393E+04 -2.64447E+04 -4.98061E+03
 -1.90594E+04 -2.33987E+04 -2.10482E+03 -3.10459E+04  1.40999E+04 -2.58742E+04  2.61641E+04 -1.35212E+04
  2.43849E+04 -6.87640E+02  1.79962E+04  5.75955E+03  1.01494E+04  1.79817E+03  1.38463E+04 -2.12783E+03
  2.50887E+04  3.38638E+03  2.93267E+04  1.98342E+04  2.00093E+04  4.23085E+04 -2.62553E+03  5.07281E+04
 -2.87945E+04  4.27595E+04 -4.82522E+04  2.22976E+04 -5.21066E+04 -3.57535E+03 -4.20776E+04 -3.01061E+04
 -1.57833E+04 -4.38819E+04  1.55106E+04 -3.72547E+04  3.22312E+04 -1.74284E+04  2.74116E+04  9.69175E+03
  8.95014E+03  2.18048E+04 -1.29372E+04  1.76266E+04 -2.24408E+04  3.01933E+03 -1.70319E+04 -1.49002E+04
 -4.90804E+02 -2.21599E+04  1.17047E+04 -1.64839E+04  1.55810E+04 -1.56667E+03  3.99800E+03  9.83021E+03
 -9.68128E+03  5.53098E+03 -1.10806E+04 -7.90945E+03 -2.97113E+03 -2.11449E+04  1.32222E+04 -2.30468E+04
  2.68537E+04 -1.36192E+04  3.14799E+04  3.48127E+03  2.76579E+04  2.23193E+04  1.25572E+04  3.51142E+04
 -7.33073E+03  3.67739E+04 -2.41116E+04  2.28826E+04 -2.70682E+04  4.61137E+03 -1.74627E+04 -6.67338E+03
 -7.17586E+03 -9.33931E+03 -5.89083E+02  4.37813E+01 -3.55054E+03  3.73503E+03 -8.73283E+03  5.94143E+03
 -1.68348E+04 -1.33180E+03 -1.72626E+04 -1.40255E+04 -7.23062E+03 -2.23529E+04  8.12356E+03 -1.89143E+04
  1.52971E+04 -7.59383E+03  1.04988E+04  5.09854E+03 -7.69621E+02  7.50396E+03 -9.65872E+03 -4.76424E+02
 -9.16953E+03 -1.26147E+04 -1.40523E+03 -1.87884E+04  1.11809E+04 -1.98933E+04  2.37700E+04 -1.08325E+04
  2.83178E+04  2.85627E+03  2.09623E+04  1.81053E+04  4.07522E+03  2.32729E+04 -1.14357E+04  1.93645E+04
 -1.46187E+04  5.05562E+03 -7.49324E+03 -4.46418E+03  3.25888E+03 -5.00106E+03  9.87139E+03 -1.30169E+03
  8.76624E+03  8.53729E+03  1.03304E+03  1.51996E+04 -1.08981E+04  1.45524E+04 -1.88308E+04  3.24769E+03
 -1.31968E+04 -9.98630E+03 -4.39918E+02 -1.63817E+04  1.12830E+04 -8.14014E+03  1.19457E+04  4.29477E+03
  2.56382E+03  1.24614E+04 -9.88346E+03  1.45692E+04 -1.70371E+04  6.27720E+03 -1.82215E+04 -6.55429E+03
 -9.86795E+03 -1.98186E+04  5.10621E+03 -2.32782E+04  1.93471E+04 -1.36435E+04  2.15750E+04  3.97937E+03
  1.25174E+04  1.66481E+04 -2.34127E+03  1.97129E+04 -1.40924E+04  1.10117E+04 -1.59947E+04 -2.16128E+03
 -1.26918E+04 -1.28149E+04 -2.13474E+03 -1.54140E+04  8.20496E+03 -1.16897E+04  1.01047E+04 -3.68816E+03
  5.90614E+03  3.35734E+03 -1.49872E+03  2.56677E+03 -1.47570E+03 -4.72185E+03  3.66403E+03 -9.84297E+03
  1.43765E+04 -6.92706E+03  2.16340E+04  2.39805E+03  1.96656E+04  1.46063E+04  1.23409E+04  2.72618E+04
 -6.36546E+03  3.07914E+04 -2.50770E+04  2.23899E+04 -3.25466E+04  4.66521E+03 -2.68975E+04 -1.20637E+04
 -1.29061E+04 -2.21634E+04 -6.88837E+02 -1.89498E+04  6.36176E+03 -1.10889E+04  6.78299E+03 -6.70864E+03
  5.10751E+03 -3.61123E+03  4.61226E+03 -4.33755E+03  6.68645E+03 -5.02615E+03  9.91784E+03 -2.44160E+03
  1.28850E+04  3.30736E+03  8.00828E+03  1.21669E+04 -2.70282E+03  1.55625E+04 -1.50181E+04  1.14171E+04
 -1.92978E+04 -1.85264E+03 -1.34756E+04 -1.37583E+04 -2.43524E+03 -2.04284E+04  1.10058E+04 -2.06445E+04
  2.20655E+04 -1.12124E+04  2.52564E+04  3.52235E+03  1.77670E+04  1.86400E+04  2.82785E+03  2.32049E+04
 -9.75739E+03  1.81561E+04 -1.36854E+04  6.61766E+03 -9.23546E+03 -2.30260E+03 -4.69624E+03 -3.34701E+03
 -2.16639E+03 -5.01103E+02 -3.04629E+03  3.19367E+03 -7.69802E+03  3.55367E+03 -1.32107E+04 -1.92970E+03
 -1.00305E+04 -1.27405E+04 -4.38347E+02 -1.96124E+04  1.22448E+04 -1.81713E+04  2.02425E+04 -5.57742E+03
  1.97778E+04  9.34856E+03  9.61057E+03  1.81236E+04 -4.27985E+03  1.98743E+04 -1.43847E+04  1.24438E+04
 -1.89717E+04  5.37502E+02 -1.38058E+04 -1.21062E+04 -1.73233E+03 -1.66913E+04  8.74654E+03 -1.21371E+04
  1.27780E+04 -3.76180E+03  8.57064E+03  3.57927E+03  3.35326E+03  6.18736E+03  1.79460E+03  3.26803E+03
  3.25425E+03  1.16819E+03  4.45031E+03  2.51114E+03  6.11751E+03  6.83790E+03  5.37442E+03  1.06732E+04
 -4.06388E+03  1.63936E+04 -1.43156E+04  1.55712E+04 -2.16554E+04  3.81470E+03 -2.17278E+04 -9.38315E+03
 -1.03250E+04 -2.10218E+04  3.03922E+03 -2.25592E+04  1.24174E+04 -1.45334E+04  1.75438E+04 -3.24837E+03
  1.26032E+04  7.70264E+03  3.01802E+03  1.19904E+04 -5.98792E+03  7.67519E+03 -8.95080E+03 -1.88629E+03
 -4.19437E+03 -8.98528E+03  4.37844E+03 -9.44748E+03  8.43030E+03 -4.26239E+03  8.44110E+03  2.03605E+03
  5.06450E+03  4.37550E+03  1.63792E+03  3.69888E+03 -1.09639E+03  2.74734E+03  1.76317E+03 -3.06832E+02
  4.31788E+03 -1.40326E+03  8.35369E+03  3.08352E+03  5.32871E+03  1.12573E+04 -1.74019E+03  1.46745E+04
 -1.00948E+04  1.02326E+04 -1.39007E+04  3.10266E+03 -1.23220E+04 -4.70566E+03 -5.22497E+03 -8.52746E+03
  1.30027E+03 -8.73067E+03  5.88934E+03 -3.96089E+03  5.12664E+03  3.95983E+03 -2.35824E+03  7.28790E+03
 -8.96326E+03  4.18074E+03 -1.06189E+04 -4.40431E+03 -5.84176E+03 -1.19225E+04  2.21113E+03 -1.20706E+04
  7.49430E+03 -7.78499E+03  9.11078E+03 -1.59210E+03  7.19336E+03  3.84111E+03  5.70475E+02  6.36220E+03
 -4.51071E+03  1.56398E+03 -5.68315E+03 -4.48161E+03  1.96589E+03 -9.12443E+03  1.10696E+04 -8.10029E+03
  1.41841E+04  9.64300E+02  1.27767E+04  1.00060E+04  4.13551E+03  1.48935E+04 -5.04811E+03  1.39256E+04
 -1.21914E+04  6.67058E+03 -1.26721E+04 -1.52099E+03 -6.60527E+03 -9.43259E+03  2.71135E+03 -9.52451E+03
  8.64538E+03 -4.31840E+03  7.76070E+03  3.72836E+03  2.53787E+03  8.21434E+03 -1.56018E+03  7.14094E+03
 -4.54533E+03  4.36377E+03 -3.28313E+03  1.61870E+03 -1.51025E+03  1.32329E+03 -2.21033E+03  2.99077E+03
 -3.76611E+03  5.77049E+03 -9.55573E+03  4.87427E+03 -1.44390E+04  8.14072E+02 -1.67100E+04 -1.00148E+04
 -8.79227E+03 -2.01507E+04  3.83945E+03 -2.28417E+04  1.46888E+04 -1.77729E+04  2.16927E+04 -6.98893E+03
  2.03445E+04  4.79066E+03  1.27305E+04  1.39115E+04  1.63826E+03  1.57145E+04 -6.74801E+03  1.19333E+04
 -8.88988E+03  4.22404E+03 -5.96132E+03 -2.18218E+03 -1.90781E+03 -2.07629E+03 -7.41245E+02 -2.33729E+02
 -2.07239E+03  8.28806E+02 -3.65875E+03 -4.33468E+02 -1.41329E+03 -3.94962E+03  7.22123E+02 -5.69637E+03
  6.22656E+03 -5.15975E+03  1.02286E+04 -3.01971E+02  1.12503E+04  8.63221E+03  3.27394E+03  1.60430E+04
 -6.73583E+03  1.79027E+04 -1.73245E+04  1.10582E+04 -2.00460E+04 -1.96651E+03 -1.50653E+04 -1.19489E+04
 -5.71607E+03 -1.70054E+04  4.65697E+03 -1.55801E+04  1.05634E+04 -8.35045E+03  1.10718E+04  1.08620E+02
  5.68344E+03  5.58812E+03 -8.19969E+02  4.75422E+03 -2.82614E+03 -2.39111E+02  2.26919E+02 -4.12374E+03
  5.39084E+03 -2.51407E+03  7.09107E+03  2.33391E+03  4.63153E+03  6.58076E+03 -7.73537E+02  8.18441E+03
 -7.34534E+03  7.53511E+03 -1.17641E+04  8.52779E+02 -9.84248E+03 -8.21116E+03 -1.55773E+03 -1.34019E+04
  7.80827E+03 -1.19088E+04  1.30008E+04 -3.96686E+03  1.29189E+04  3.40140E+03  7.66382E+03  1.02657E+04
  1.31895E+03  1.12653E+04 -4.41433E+03  8.90425E+03 -6.64465E+03  4.84240E+03 -5.88694E+03  3.25887E+02
 -2.81924E+03 -1.36261E+02 -3.07874E+03  1.56282E+03 -5.92543E+03  2.02882E+03 -8.61061E+03 -1.73797E+03
 -8.05050E+03 -6.52978E+03 -2.42370E+03 -1.14049E+04  4.74650E+03 -1.15074E+04  1.03900E+04 -5.91025E+03
  1.11445E+04  1.86073E+03  6.29589E+03  8.15988E+03 -7.06580E+02  1.15842E+04 -9.10150E+03  7.19138E+03
