 $NMID ID='MM_0lb_SNR800_13hz_g55_69.RAW', FMTDAT='(8E13.5)'
 TRAMP=1., VOLUME=1. $END
  3.09868E+05  6.15227E+02  3.37987E+05  2.50662E+05  8.45299E+04  3.37939E+05 -1.32734E+05  2.51636E+05
 -1.90484E+05  8.30747E+04 -1.12191E+05 -3.23402E+04  6.17786E+02 -5.04052E+04  5.38100E+04 -2.94253E+01
  3.54680E+04  5.25389E+04 -1.66458E+04  7.57648E+04 -6.10511E+04  6.41144E+04 -8.47044E+04  3.20843E+04
 -8.15825E+04 -1.17498E+04 -5.77213E+04 -5.19733E+04 -1.51669E+04 -7.03621E+04  2.77888E+04 -4.63434E+04
  4.04138E+04  3.84410E+03  1.64541E+04  4.83899E+04 -3.44654E+04  4.77401E+04 -6.73107E+04 -1.55178E+02
 -5.38227E+04 -5.73538E+04 -6.97651E+03 -7.77186E+04  3.43276E+04 -5.55568E+04  4.86313E+04 -1.77398E+04
  4.42568E+04  1.11986E+04  3.25214E+04  2.57895E+04  1.60409E+04  2.96286E+04 -5.45976E+03  2.74150E+04
 -2.23414E+04  1.24766E+04 -1.84586E+04 -4.95558E+03  6.07019E+03 -7.22207E+03  2.25911E+04  1.26433E+04
  7.41385E+03  3.58509E+04 -3.26358E+04  3.55829E+04 -6.44150E+04  2.11916E+03 -5.76923E+04 -4.35153E+04
 -1.27522E+04 -6.40734E+04  4.04506E+04 -4.59945E+04  5.92140E+04 -2.32155E+03  3.53101E+04  3.34583E+04
 -5.44090E+03  3.74353E+04 -3.07096E+04  1.67825E+04 -3.14377E+04 -4.00566E+03 -1.75273E+04 -1.09330E+04
 -8.45679E+03 -1.40820E+04 -7.33913E+02 -1.84325E+04  7.95442E+03 -2.36432E+04  1.60309E+04 -1.29726E+04
  1.10277E+04  5.33621E+03 -9.16332E+03  1.27649E+04 -2.19989E+04 -5.29800E+03 -8.55218E+03 -3.49863E+04
  2.37783E+04 -4.45617E+04  4.93193E+04 -2.01098E+04  4.63487E+04  1.95331E+04  1.61252E+04  4.54431E+04
 -1.60533E+04  3.44268E+04 -2.62587E+04  2.19520E+03 -1.04861E+04 -2.84069E+04  2.13461E+04 -3.50265E+04
  4.22849E+04 -9.92014E+03  3.72264E+04  2.40858E+04  1.93607E+04  4.81483E+04 -8.20055E+03  5.23869E+04
 -3.29237E+04  3.52900E+04 -4.41355E+04  9.95813E+03 -4.40642E+04 -1.72729E+04 -2.45744E+04 -3.91495E+04
  7.57036E+03 -3.93380E+04  3.21510E+04 -1.54759E+04  3.03576E+04  1.08540E+04  4.58183E+03  1.98014E+04
 -1.34642E+04  8.57552E+03 -1.05882E+04 -7.31210E+03  5.84377E+03 -1.11580E+04  1.82170E+04  5.82287E+03
  1.38270E+04  2.23748E+04 -5.69181E+03  2.58139E+04 -2.25538E+04  1.27551E+04 -2.90857E+04 -4.14798E+03
 -2.20909E+04 -1.75800E+04 -9.10594E+03 -2.21436E+04  4.10481E+03 -2.13444E+04  1.70700E+04 -2.00036E+04
  2.81996E+04 -1.31850E+04  3.46839E+04  3.69864E+03  2.47540E+04  2.17902E+04  4.33096E+03  3.80063E+04
 -1.87378E+04  3.17645E+04 -2.88901E+04  1.09893E+04 -2.15728E+04 -1.03407E+04 -4.71578E+03 -1.34388E+04
  1.57733E+03 -2.24823E+03 -5.68153E+03  7.15807E+03 -1.78317E+04  4.93229E+03 -1.74336E+04 -7.74505E+03
 -1.05492E+04 -2.01039E+04  5.66250E+03 -2.46971E+04  1.65372E+04 -1.74712E+04  1.97555E+04 -1.67673E+03
  1.23705E+04  1.42097E+04 -1.16831E+03  2.03878E+04 -1.41848E+04  1.16647E+04 -2.07292E+04 -3.94986E+03
 -1.50679E+04 -1.85817E+04 -2.23543E+03 -2.45783E+04  1.12546E+04 -2.02301E+04  2.04484E+04 -1.01709E+04
  1.93482E+04  1.02706E+02  1.38084E+04  4.71378E+03  7.47699E+03  1.27184E+03  1.05159E+04 -1.57932E+03
  1.89764E+04  2.73516E+03  2.12115E+04  1.60919E+04  1.43779E+04  3.26617E+04 -2.86924E+03  3.74142E+04
 -2.13325E+04  3.04556E+04 -3.48808E+04  1.52284E+04 -3.70862E+04 -2.97761E+03 -3.02883E+04 -2.12698E+04
 -1.25524E+04 -3.05878E+04  1.07729E+04 -2.71445E+04  2.34213E+04 -1.38030E+04  2.07995E+04  6.25258E+03
  7.37677E+03  1.55724E+04 -9.80990E+03  1.33050E+04 -1.72719E+04  2.50772E+03 -1.33259E+04 -1.08958E+04
 -2.18465E+02 -1.63253E+04  8.91475E+03 -1.22718E+04  1.08899E+04 -1.49506E+03  2.70094E+03  7.20334E+03
 -7.56801E+03  3.03789E+03 -7.07257E+03 -6.16004E+03 -1.29198E+03 -1.49915E+04  1.04044E+04 -1.57547E+04
  1.86228E+04 -8.52188E+03  2.05307E+04  3.41969E+03  1.74622E+04  1.47461E+04  8.29710E+03  2.27931E+04
 -3.89364E+03  2.47277E+04 -1.55324E+04  1.53330E+04 -1.78794E+04  3.49751E+03 -1.27172E+04 -4.16156E+03
 -5.93706E+03 -5.73299E+03 -7.67901E+02  9.00949E+02 -2.43075E+03  2.76896E+03 -5.72575E+03  4.78779E+03
 -1.13536E+04 -8.59563E+02 -1.25991E+04 -9.99732E+03 -5.07678E+03 -1.62326E+04  5.36858E+03 -1.25666E+04
  1.00151E+04 -5.53733E+03  7.51487E+03  3.18972E+03  4.04432E+01  5.02367E+03 -5.62619E+03 -7.04932E+01
 -5.82176E+03 -8.16086E+03 -1.01875E+03 -1.18615E+04  6.83187E+03 -1.27630E+04  1.57151E+04 -7.04027E+03
  1.83667E+04  1.71976E+03  1.34769E+04  1.07177E+04  2.63340E+03  1.44474E+04 -8.01046E+03  1.24211E+04
 -1.02509E+04  4.13842E+03 -5.24608E+03 -2.22429E+03  1.77724E+03 -3.53599E+03  6.55394E+03 -9.34688E+02
  5.92632E+03  5.55355E+03  1.42198E+03  9.87905E+03 -6.83125E+03  9.40268E+03 -1.19909E+04  2.16542E+03
 -8.34359E+03 -6.41996E+03  3.38332E+02 -1.04321E+04  6.73535E+03 -5.29684E+03  6.76763E+03  2.59394E+03
  1.46525E+03  7.31962E+03 -6.25469E+03  8.35767E+03 -9.83152E+03  4.15032E+03 -9.68686E+03 -3.28230E+03
 -5.65003E+03 -1.14077E+04  2.88895E+03 -1.30681E+04  1.11674E+04 -8.09173E+03  1.21188E+04  2.05766E+03
  7.56556E+03  9.56177E+03 -7.44460E+02  1.21887E+04 -8.55812E+03  6.57659E+03 -9.33736E+03 -1.17666E+03
 -8.63266E+03 -7.79606E+03 -1.61207E+03 -8.74470E+03  4.54332E+03 -7.26762E+03  5.52476E+03 -3.24929E+03
  3.77362E+03  1.38319E+03 -5.71429E+02  1.80193E+03 -5.51857E+00 -2.01389E+03  1.27512E+03 -4.62553E+03
  8.10821E+03 -2.79054E+03  1.06483E+04  1.41302E+03  1.05701E+04  7.50071E+03  7.87866E+03  1.44438E+04
 -3.14197E+03  1.66459E+04 -1.38275E+04  1.21951E+04 -1.85862E+04  2.32756E+03 -1.48412E+04 -6.12803E+03
 -7.37702E+03 -1.19933E+04  1.51809E+02 -1.00578E+04  3.88055E+03 -5.92567E+03  3.35075E+03 -3.68627E+03
  2.46147E+03 -2.26587E+03  3.29190E+03 -2.94137E+03  4.74097E+03 -2.39947E+03  5.93362E+03 -6.53360E+02
  7.86107E+03  1.89813E+03  3.79559E+03  6.40948E+03 -1.76861E+03  7.14735E+03 -8.07105E+03  5.51083E+03
 -9.89717E+03 -1.17190E+03 -6.15231E+03 -6.78335E+03 -4.28034E+02 -1.05287E+04  5.80374E+03 -1.06939E+04
  1.08032E+04 -6.31879E+03  1.30348E+04  1.32365E+03  9.24912E+03  8.95716E+03  1.46352E+03  1.18704E+04
 -4.94994E+03  1.02152E+04 -6.78682E+03  3.38557E+03 -4.63237E+03 -1.70769E+03 -1.71535E+03 -1.22472E+03
 -1.08888E+03  1.18194E+02 -1.78138E+03  2.58854E+03 -4.19990E+03  1.30318E+03 -7.16378E+03 -8.97908E+02
 -4.55644E+03 -7.08626E+03  6.32532E+02 -9.73498E+03  5.94287E+03 -8.88481E+03  9.09104E+03 -2.42284E+03
  9.49740E+03  4.92303E+03  4.19246E+03  8.21159E+03 -1.53143E+03  9.50294E+03 -6.63677E+03  5.83170E+03
 -8.89504E+03  1.67816E+02 -6.84147E+03 -5.69297E+03 -6.00361E+02 -7.84223E+03  3.91709E+03 -5.62504E+03
  6.02850E+03 -2.36386E+03  3.99873E+03  1.23833E+03  1.22922E+03  2.87532E+03  1.00268E+03  1.19028E+03
  2.04809E+03  7.12452E+02  2.22153E+03  1.19187E+03  2.89168E+03  3.90188E+03  2.39501E+03  4.63900E+03
 -1.88314E+03  7.06293E+03 -6.11443E+03  7.69675E+03 -8.58453E+03  2.20944E+03 -9.37184E+03 -3.58760E+03
 -4.54492E+03 -9.08515E+03  1.45376E+03 -1.03283E+04  5.44272E+03 -6.65137E+03  7.51543E+03 -1.96749E+03
  6.02265E+03  3.24514E+03  1.23327E+03  4.98974E+03 -2.35444E+03  3.12368E+03 -3.37080E+03 -4.22682E+02
 -1.61478E+03 -4.05106E+03  2.04316E+03 -4.26615E+03  3.63749E+03 -1.80108E+03  3.46789E+03  1.05770E+03
  2.08647E+03  1.87260E+03  8.56901E+02  1.35564E+03 -7.97559E+02  1.18481E+03  1.65080E+03 -4.74373E+02
  1.14482E+03 -4.99342E+02  3.92567E+03  1.14342E+03  1.42066E+03  4.72436E+03 -9.07294E+02  6.39350E+03
 -3.89795E+03  3.63275E+03 -5.48983E+03  1.08768E+03 -4.68265E+03 -1.83978E+03 -1.40880E+03 -3.30869E+03
  8.75528E+02 -3.13884E+03  1.99975E+03 -1.99618E+03  1.95772E+03  1.96109E+03 -1.29040E+03  2.86141E+03
 -3.38609E+03  1.51902E+03 -3.67759E+03 -2.09586E+03 -2.33915E+03 -4.85201E+03  5.98505E+02 -4.39012E+03
  2.60629E+03 -2.27669E+03  3.37179E+03 -1.95981E+02  3.13662E+03  7.78361E+02  5.08948E+02  2.76958E+03
 -1.20625E+03  3.12500E+02 -2.05347E+03 -9.57060E+02  9.68169E+02 -3.38861E+03  4.18230E+03 -3.20505E+03
  4.75140E+03  7.18618E+02  5.63961E+03  3.16461E+03  1.79990E+03  5.50695E+03 -1.84189E+03  5.17755E+03
 -4.11149E+03  2.03225E+03 -4.77059E+03 -7.12070E+02 -2.58374E+03 -3.37833E+03  1.12053E+03 -2.86811E+03
  3.71493E+03 -1.58606E+03  2.54258E+03  1.33986E+03  8.24241E+02  3.21955E+03 -1.03332E+02  3.01024E+03
 -1.07285E+03  1.82100E+03 -1.23058E+03  3.30999E+02 -9.25496E+01  5.90550E+02 -9.70168E+02  1.10747E+03
 -1.54164E+03  2.04946E+03 -3.69839E+03  1.53469E+03 -5.37249E+03 -1.08691E+02 -6.11259E+03 -3.79559E+03
 -3.06695E+03 -6.85260E+03  1.41949E+03 -7.76678E+03  4.69538E+03 -6.46655E+03  7.61251E+03 -2.19717E+03
  6.73285E+03  8.98790E+02  3.94824E+03  4.54133E+03  2.55494E+01  5.17054E+03 -2.27591E+03  4.07718E+03
 -2.82852E+03  1.52966E+03 -1.87919E+03 -5.21444E+02 -5.51189E+02 -2.44113E+02 -7.36388E+02 -2.59921E+02
 -1.25074E+03 -2.37268E+01 -1.43971E+03 -2.49174E+02 -3.03625E+02 -1.54418E+03 -6.23759E+01 -1.98615E+03
  2.34845E+03 -1.31158E+03  2.65207E+03  1.65500E+02  3.34963E+03  2.99504E+03  2.23618E+02  4.87674E+03
 -2.92228E+03  6.06879E+03 -5.50109E+03  3.59874E+03 -6.11487E+03 -4.66920E+02 -4.70908E+03 -3.99924E+03
 -1.97295E+03 -5.29892E+03  1.06569E+03 -4.36214E+03  3.19566E+03 -2.49006E+03  3.36726E+03  4.46072E+02
  1.84279E+03  1.74461E+03 -6.94471E+01  1.48987E+03 -1.03426E+03  1.03153E+02  2.54010E+02 -1.12548E+03
  1.48865E+03 -9.98054E+01  1.90516E+03  6.77510E+02  1.12070E+03  2.00402E+03  2.44621E+02  2.12626E+03
 -2.24155E+03  2.15834E+03 -2.90333E+03  5.37254E+02 -2.71002E+03 -2.34135E+03 -2.05551E+02 -3.88296E+03
  2.24817E+03 -3.56589E+03  3.43325E+03 -7.25033E+02  3.29966E+03  1.71294E+02  2.16865E+03  2.78338E+03
  1.06754E+03  2.73137E+03 -9.44630E+02  2.73747E+03 -1.83865E+03  1.24332E+03 -1.39727E+03  4.83440E+02
 -7.02179E+02 -1.50773E+02 -1.09319E+03  2.00891E+02 -1.80655E+03  7.59273E+02 -2.55024E+03 -4.65322E+02
 -1.95112E+03 -1.06040E+03 -8.43487E+02 -3.17297E+03  1.50450E+03 -3.60461E+03  2.67287E+03 -1.47693E+03
  2.76537E+03  5.08732E+02  1.03196E+03  2.08931E+03  1.55357E+00  2.90095E+03 -1.71316E+03  1.99920E+03
