 $NMID ID='MM_0lb_SNR800_9hz_g45_22.RAW', FMTDAT='(8E13.5)'
 TRAMP=1., VOLUME=1. $END
  3.10229E+05 -5.86441E+01  3.37727E+05  2.50798E+05  8.51035E+04  3.38595E+05 -1.32503E+05  2.52107E+05
 -1.91264E+05  8.38565E+04 -1.12438E+05 -3.22132E+04  5.70800E+02 -5.06966E+04  5.38134E+04 -4.61794E+02
  3.55480E+04  5.30669E+04 -1.67052E+04  7.61516E+04 -6.09832E+04  6.45219E+04 -8.53601E+04  3.27957E+04
 -8.23606E+04 -1.18164E+04 -5.82594E+04 -5.22837E+04 -1.49910E+04 -7.09187E+04  2.78917E+04 -4.64467E+04
  4.10024E+04  3.90289E+03  1.67388E+04  4.81316E+04 -3.45663E+04  4.82806E+04 -6.84154E+04  3.05102E+00
 -5.45663E+04 -5.77163E+04 -6.92329E+03 -7.87303E+04  3.47562E+04 -5.72218E+04  4.94137E+04 -1.85343E+04
  4.50126E+04  1.16252E+04  3.26911E+04  2.67982E+04  1.62673E+04  3.04083E+04 -6.09446E+03  2.74200E+04
 -2.24094E+04  1.18496E+04 -1.80613E+04 -5.69551E+03  6.78496E+03 -7.35667E+03  2.34557E+04  1.40182E+04
  7.51017E+03  3.72397E+04 -3.37587E+04  3.70867E+04 -6.56857E+04  2.19856E+03 -5.90802E+04 -4.43998E+04
 -1.27250E+04 -6.53537E+04  4.17332E+04 -4.78012E+04  6.04222E+04 -2.42559E+03  3.64063E+04  3.41356E+04
 -5.51789E+03  3.90547E+04 -3.18511E+04  1.83002E+04 -3.29802E+04 -3.84377E+03 -1.87767E+04 -1.17642E+04
 -9.21601E+03 -1.47410E+04 -5.49923E+02 -1.92211E+04  8.52025E+03 -2.35375E+04  1.55474E+04 -1.24892E+04
  1.05560E+04  5.78570E+03 -1.04776E+04  1.29247E+04 -2.29560E+04 -6.45675E+03 -8.29150E+03 -3.74180E+04
  2.49752E+04 -4.65676E+04  5.13834E+04 -2.04997E+04  4.81810E+04  2.07303E+04  1.69255E+04  4.67693E+04
 -1.70927E+04  3.56665E+04 -2.72230E+04  2.26700E+03 -1.14443E+04 -2.94205E+04  2.16744E+04 -3.67407E+04
  4.43279E+04 -1.10002E+04  3.98001E+04  2.47613E+04  2.09901E+04  5.05140E+04 -8.48953E+03  5.55152E+04
 -3.50713E+04  3.78029E+04 -4.66527E+04  1.07616E+04 -4.71711E+04 -1.84589E+04 -2.61051E+04 -4.15947E+04
  7.91112E+03 -4.16143E+04  3.39669E+04 -1.66624E+04  3.19139E+04  1.10350E+04  4.75633E+03  2.04946E+04
 -1.38793E+04  9.66073E+03 -1.16978E+04 -7.52592E+03  6.03834E+03 -1.10460E+04  1.89607E+04  5.39751E+03
  1.49059E+04  2.27118E+04 -5.24411E+03  2.69659E+04 -2.35038E+04  1.38416E+04 -3.16328E+04 -3.03660E+03
 -2.49357E+04 -1.79606E+04 -1.12675E+04 -2.43870E+04  3.58583E+03 -2.51613E+04  1.98845E+04 -2.22708E+04
  3.13741E+04 -1.41107E+04  3.75499E+04  4.38952E+03  2.67150E+04  2.41627E+04  4.39484E+03  4.09912E+04
 -1.94775E+04  3.36361E+04 -3.04050E+04  1.18340E+04 -2.19861E+04 -1.04574E+04 -4.66623E+03 -1.28628E+04
  8.89687E+02 -9.04454E+02 -6.93294E+03  7.87797E+03 -1.99009E+04  4.94190E+03 -1.97659E+04 -9.24842E+03
 -1.16901E+04 -2.25987E+04  6.29278E+03 -2.75191E+04  1.80470E+04 -1.94846E+04  2.20681E+04 -1.87153E+03
  1.40163E+04  1.53272E+04 -1.33821E+03  2.27449E+04 -1.60403E+04  1.32958E+04 -2.32192E+04 -4.69037E+03
 -1.68738E+04 -2.02408E+04 -2.03245E+03 -2.78799E+04  1.24194E+04 -2.27869E+04  2.29520E+04 -1.18025E+04
  2.12121E+04 -3.00638E+02  1.53575E+04  5.37124E+03  8.90809E+03  1.38106E+03  1.19219E+04 -2.02618E+03
  2.13551E+04  2.72914E+03  2.46372E+04  1.79319E+04  1.71986E+04  3.69494E+04 -2.97586E+03  4.32333E+04
 -2.50161E+04  3.59863E+04 -4.08525E+04  1.87962E+04 -4.36957E+04 -3.04883E+03 -3.53912E+04 -2.55850E+04
 -1.39310E+04 -3.62241E+04  1.29014E+04 -3.21435E+04  2.75065E+04 -1.50845E+04  2.35700E+04  7.46319E+03
  7.78436E+03  1.83476E+04 -1.12695E+04  1.57184E+04 -1.98529E+04  2.33761E+03 -1.49085E+04 -1.25569E+04
 -2.29425E+02 -1.89257E+04  9.78107E+03 -1.39585E+04  1.30696E+04 -1.18443E+03  3.55359E+03  8.35575E+03
 -8.70804E+03  3.72281E+03 -9.13326E+03 -6.63835E+03 -1.65333E+03 -1.75911E+04  1.15934E+04 -1.90461E+04
  2.27157E+04 -1.08251E+04  2.54786E+04  3.49546E+03  2.26409E+04  1.83959E+04  1.06047E+04  2.83381E+04
 -5.41381E+03  3.05257E+04 -1.99518E+04  1.87468E+04 -2.19330E+04  3.84225E+03 -1.51754E+04 -5.50587E+03
 -6.71298E+03 -7.10551E+03 -8.81562E+02  4.40844E+02 -2.77175E+03  3.32137E+03 -7.22581E+03  5.11151E+03
 -1.41019E+04 -7.28841E+02 -1.48164E+04 -1.17651E+04 -5.63613E+03 -1.89216E+04  6.41202E+03 -1.52441E+04
  1.26553E+04 -6.21492E+03  8.92229E+03  4.03932E+03 -3.43911E+02  6.13393E+03 -7.99184E+03 -3.91335E+02
 -7.28316E+03 -9.90900E+03 -1.48684E+03 -1.50150E+04  8.52591E+03 -1.61322E+04  1.93225E+04 -8.41265E+03
  2.29079E+04  2.26315E+03  1.68272E+04  1.38373E+04  3.07919E+03  1.88000E+04 -9.23239E+03  1.52665E+04
 -1.28818E+04  4.30055E+03 -6.61262E+03 -3.42886E+03  2.22023E+03 -4.50538E+03  8.17394E+03 -8.54453E+02
  7.37290E+03  6.64765E+03  9.62566E+02  1.24298E+04 -9.17029E+03  1.22264E+04 -1.54523E+04  2.61828E+03
 -1.02463E+04 -7.80796E+03  2.63024E+02 -1.33293E+04  8.72674E+03 -6.65474E+03  8.94725E+03  3.41707E+03
  2.31538E+03  9.25325E+03 -8.42558E+03  1.11117E+04 -1.29479E+04  5.13679E+03 -1.33653E+04 -4.94131E+03
 -7.82357E+03 -1.55147E+04  3.81181E+03 -1.79606E+04  1.51482E+04 -1.05740E+04  1.59786E+04  3.09935E+03
  9.57512E+03  1.28129E+04 -1.69479E+03  1.53045E+04 -1.11233E+04  8.32192E+03 -1.23197E+04 -1.33474E+03
 -1.06708E+04 -1.07169E+04 -1.57791E+03 -1.15587E+04  5.97021E+03 -9.64361E+03  7.19408E+03 -3.68245E+03
  5.13023E+03  1.81530E+03 -7.12527E+02  2.02685E+03 -3.18017E+02 -3.38145E+03  2.49911E+03 -7.43822E+03
  1.09634E+04 -4.28212E+03  1.60262E+04  1.97846E+03  1.51879E+04  1.08761E+04  1.02848E+04  2.05710E+04
 -4.75705E+03  2.30848E+04 -1.94406E+04  1.77593E+04 -2.54410E+04  3.36878E+03 -2.01775E+04 -9.04614E+03
 -9.76445E+03 -1.68825E+04 -2.86031E+02 -1.41851E+04  4.80292E+03 -7.98120E+03  4.94247E+03 -5.44516E+03
  3.63610E+03 -3.25151E+03  3.99808E+03 -3.75225E+03  5.84032E+03 -3.97440E+03  7.76453E+03 -1.26442E+03
  1.05053E+04  2.25481E+03  5.44952E+03  8.91589E+03 -2.37380E+03  1.08293E+04 -1.12458E+04  8.42491E+03
 -1.46193E+04 -1.16710E+03 -9.02724E+03 -1.00736E+04 -1.07547E+03 -1.56722E+04  8.33371E+03 -1.53645E+04
  1.59438E+04 -8.49151E+03  1.90954E+04  2.42329E+03  1.32021E+04  1.36464E+04  1.97451E+03  1.68618E+04
 -7.29550E+03  1.39999E+04 -9.88786E+03  4.50321E+03 -6.96977E+03 -1.69134E+03 -3.12155E+03 -1.88036E+03
 -1.50493E+03  3.17675E+02 -2.48520E+03  2.65329E+03 -6.00273E+03  2.36433E+03 -9.82664E+03 -1.31180E+03
 -6.84132E+03 -9.83940E+03  4.41941E+01 -1.43531E+04  8.73021E+03 -1.31652E+04  1.44591E+04 -3.97377E+03
  1.41826E+04  6.81400E+03  6.80869E+03  1.28276E+04 -2.88246E+03  1.43057E+04 -1.03311E+04  8.99813E+03
 -1.39416E+04  2.99390E+02 -1.02482E+04 -8.72730E+03 -9.44479E+02 -1.18954E+04  6.08007E+03 -8.70259E+03
  9.38965E+03 -2.70600E+03  6.23461E+03  2.23237E+03  2.05968E+03  4.38499E+03  1.35492E+03  2.28962E+03
  2.87812E+03  1.13136E+03  3.50269E+03  1.80380E+03  4.13479E+03  5.39025E+03  3.69376E+03  7.72008E+03
 -3.06626E+03  1.17939E+04 -1.01360E+04  1.16912E+04 -1.53631E+04  2.90783E+03 -1.53356E+04 -5.77685E+03
 -7.81993E+03 -1.45215E+04  1.86042E+03 -1.59978E+04  8.66523E+03 -1.02120E+04  1.15590E+04 -2.92436E+03
  9.22150E+03  5.73740E+03  2.08608E+03  8.38523E+03 -4.18111E+03  5.64747E+03 -5.94301E+03 -8.01020E+02
 -2.81184E+03 -6.16991E+03  3.62109E+03 -6.50781E+03  5.96658E+03 -3.06667E+03  6.39024E+03  9.25447E+02
  3.57047E+03  3.24640E+03  1.86488E+03  2.18211E+03 -1.07926E+03  2.36714E+03  1.93189E+03 -8.49050E+02
  2.02514E+03 -1.21454E+03  6.20960E+03  2.42746E+03  3.52942E+03  7.67088E+03 -1.48592E+03  1.03660E+04
 -7.34971E+03  6.96477E+03 -9.38875E+03  1.91058E+03 -8.35758E+03 -3.44216E+03 -3.17816E+03 -5.57129E+03
  1.11602E+03 -5.41087E+03  4.24444E+03 -3.05968E+03  3.27966E+03  2.90264E+03 -1.32692E+03  4.70409E+03
 -5.60992E+03  2.50300E+03 -7.22352E+03 -3.56176E+03 -3.78526E+03 -7.86305E+03  1.27681E+03 -8.39600E+03
  4.94774E+03 -5.01012E+03  6.10869E+03 -6.71405E+02  4.93925E+03  2.03973E+03  8.18240E+02  4.49860E+03
 -2.84731E+03  1.32907E+03 -3.71981E+03 -2.79859E+03  1.30124E+03 -6.14663E+03  7.33496E+03 -4.90437E+03
  9.19836E+03  4.39542E+02  9.26797E+03  6.21508E+03  2.91990E+03  1.00788E+04 -3.39291E+03  9.51374E+03
 -7.83820E+03  3.76091E+03 -8.23107E+03 -1.09221E+03 -4.58507E+03 -6.52964E+03  1.72002E+03 -6.06635E+03
  5.86077E+03 -2.92109E+03  5.29460E+03  2.58752E+03  1.50413E+03  5.29949E+03 -7.81902E+02  4.66964E+03
 -2.63302E+03  2.71421E+03 -2.04200E+03  6.12703E+02 -1.09430E+03  6.75506E+02 -1.88857E+03  2.08526E+03
 -2.44917E+03  3.47060E+03 -6.48337E+03  3.37703E+03 -9.83996E+03  2.39635E+02 -1.10103E+04 -6.23482E+03
 -5.45756E+03 -1.25569E+04  2.40416E+03 -1.46474E+04  9.03814E+03 -1.17236E+04  1.40176E+04 -4.29652E+03
  1.34425E+04  3.05541E+03  7.91312E+03  8.74731E+03  8.71343E+02  1.01698E+04 -3.94009E+03  7.88816E+03
 -5.65951E+03  2.62208E+03 -3.58282E+03 -9.66001E+02 -1.14152E+03 -1.13291E+03 -6.97612E+02  1.91531E+01
 -1.84676E+03  3.17468E+02 -2.33693E+03 -6.74115E+02 -6.84389E+02 -2.63489E+03  3.82455E+02 -4.00411E+03
  4.47499E+03 -3.10448E+03  6.05592E+03  3.89328E+01  7.10838E+03  5.51697E+03  1.73206E+03  1.06108E+04
 -4.72525E+03  1.16841E+04 -1.05663E+04  6.57837E+03 -1.20386E+04 -8.61199E+02 -9.31725E+03 -7.50250E+03
 -4.13628E+03 -1.03842E+04  2.38273E+03 -9.76500E+03  6.80080E+03 -5.43189E+03  6.33079E+03  8.52488E+00
  3.69270E+03  2.93282E+03 -4.36646E+02  2.66115E+03 -1.59458E+03 -2.75865E+02  2.67902E+02 -2.23126E+03
  3.12600E+03 -1.36620E+03  4.00366E+03  1.71168E+03  2.39016E+03  3.99869E+03  6.12526E+02  5.14294E+03
 -3.86512E+03  4.47750E+03 -6.85699E+03  7.94435E+02 -6.41309E+03 -4.81800E+03 -5.59135E+02 -8.53312E+03
  4.90006E+03 -6.94235E+03  7.96831E+03 -2.31527E+03  7.86032E+03  2.14117E+03  4.19535E+03  5.97707E+03
  1.16971E+03  6.46866E+03 -2.27194E+03  5.56648E+03 -4.36357E+03  3.55290E+03 -3.59191E+03  6.08101E+02
 -1.68895E+03  8.66671E+01 -1.89682E+03  1.00896E+03 -3.52266E+03  7.80335E+02 -5.44316E+03 -5.44030E+02
 -4.86796E+03 -3.70105E+03 -1.73523E+03 -6.90192E+03  3.28505E+03 -6.96319E+03  5.93091E+03 -3.43315E+03
  6.87192E+03  1.11013E+03  3.91130E+03  4.85984E+03 -3.21975E+02  7.19676E+03 -5.09505E+03  4.50597E+03
