 $NMID ID='MM_0lb_SNR800_8hz_g45_80.RAW', FMTDAT='(8E13.5)'
 TRAMP=1., VOLUME=1. $END
  3.09694E+05  1.43526E+02  3.38191E+05  2.50595E+05  8.47504E+04  3.38778E+05 -1.32546E+05  2.51742E+05
 -1.91467E+05  8.39821E+04 -1.12510E+05 -3.22529E+04  5.85668E+01 -5.08069E+04  5.35214E+04 -4.72493E+02
  3.53329E+04  5.28647E+04 -1.68274E+04  7.60505E+04 -6.14699E+04  6.43079E+04 -8.53495E+04  3.29035E+04
 -8.30580E+04 -1.15091E+04 -5.85911E+04 -5.26222E+04 -1.52315E+04 -7.10982E+04  2.83298E+04 -4.65491E+04
  4.11235E+04  3.84627E+03  1.70685E+04  4.84261E+04 -3.48876E+04  4.83185E+04 -6.89225E+04 -2.01058E+02
 -5.49565E+04 -5.80740E+04 -7.55967E+03 -7.95432E+04  3.49056E+04 -5.69846E+04  5.03064E+04 -1.82221E+04
  4.54049E+04  1.16543E+04  3.34206E+04  2.69364E+04  1.59484E+04  3.08110E+04 -6.09606E+03  2.76005E+04
 -2.26595E+04  1.20540E+04 -1.79132E+04 -5.96717E+03  7.35271E+03 -7.32765E+03  2.35870E+04  1.34345E+04
  7.11691E+03  3.78057E+04 -3.41401E+04  3.73652E+04 -6.57589E+04  2.71728E+03 -5.88283E+04 -4.50011E+04
 -1.25665E+04 -6.60390E+04  4.17998E+04 -4.78488E+04  6.17115E+04 -2.49109E+03  3.70746E+04  3.43974E+04
 -5.45540E+03  3.94017E+04 -3.22399E+04  1.90177E+04 -3.35635E+04 -3.35438E+03 -1.91700E+04 -1.23065E+04
 -9.43762E+03 -1.49930E+04 -1.63078E+02 -2.01112E+04  8.85104E+03 -2.39970E+04  1.60336E+04 -1.23159E+04
  1.02341E+04  6.78197E+03 -1.06725E+04  1.30308E+04 -2.36828E+04 -6.57701E+03 -8.44463E+03 -3.80135E+04
  2.52667E+04 -4.77003E+04  5.26615E+04 -2.05753E+04  4.91439E+04  2.05851E+04  1.73965E+04  4.72996E+04
 -1.68773E+04  3.65979E+04 -2.73839E+04  2.27836E+03 -1.22364E+04 -2.92869E+04  2.17681E+04 -3.71281E+04
  4.50620E+04 -1.11038E+04  4.07280E+04  2.49687E+04  2.15813E+04  5.08618E+04 -8.59200E+03  5.67729E+04
 -3.58276E+04  3.88520E+04 -4.80191E+04  1.11086E+04 -4.77233E+04 -1.87387E+04 -2.67415E+04 -4.24799E+04
  7.65366E+03 -4.23923E+04  3.45143E+04 -1.72107E+04  3.25238E+04  1.10057E+04  5.51603E+03  2.08599E+04
 -1.32537E+04  9.79708E+03 -1.13921E+04 -7.50076E+03  5.51832E+03 -1.12567E+04  1.89610E+04  5.75594E+03
  1.48595E+04  2.31552E+04 -4.77460E+03  2.72456E+04 -2.37810E+04  1.48263E+04 -3.16141E+04 -2.91360E+03
 -2.59503E+04 -1.79967E+04 -1.19664E+04 -2.53594E+04  4.42921E+03 -2.61953E+04  2.04454E+04 -2.33415E+04
  3.32603E+04 -1.42848E+04  3.84499E+04  4.93604E+03  2.76627E+04  2.51748E+04  4.47687E+03  4.17555E+04
 -1.97573E+04  3.41030E+04 -3.07318E+04  1.24077E+04 -2.28867E+04 -1.02843E+04 -4.89691E+03 -1.27201E+04
  5.03322E+02 -8.12267E+02 -8.15916E+03  8.44607E+03 -2.06376E+04  5.22576E+03 -2.11999E+04 -9.96291E+03
 -1.20605E+04 -2.40691E+04  6.07123E+03 -2.80456E+04  1.90987E+04 -1.99272E+04  2.38036E+04 -1.94665E+03
  1.48947E+04  1.64080E+04 -1.70409E+03  2.38126E+04 -1.72902E+04  1.37933E+04 -2.44514E+04 -4.84928E+03
 -1.77592E+04 -2.12187E+04 -2.50520E+03 -2.84567E+04  1.29008E+04 -2.37910E+04  2.37799E+04 -1.24503E+04
  2.22978E+04 -3.73192E+02  1.60442E+04  5.14703E+03  8.82177E+03  1.74983E+03  1.25430E+04 -2.39632E+03
  2.26225E+04  2.91390E+03  2.63232E+04  1.88982E+04  1.79670E+04  3.85183E+04 -3.11897E+03  4.54610E+04
 -2.60293E+04  3.81658E+04 -4.29459E+04  2.00661E+04 -4.61879E+04 -3.44519E+03 -3.76426E+04 -2.68233E+04
 -1.46747E+04 -3.86621E+04  1.40469E+04 -3.35432E+04  2.89073E+04 -1.60223E+04  2.50556E+04  8.28021E+03
  8.39690E+03  1.90499E+04 -1.16722E+04  1.61860E+04 -2.08979E+04  2.46255E+03 -1.56155E+04 -1.34287E+04
 -4.20459E+02 -1.96788E+04  1.06131E+04 -1.44962E+04  1.39116E+04 -1.40602E+03  3.62198E+03  8.74861E+03
 -8.64727E+03  4.09475E+03 -9.38088E+03 -6.88129E+03 -2.19226E+03 -1.86397E+04  1.21866E+04 -2.09162E+04
  2.35467E+04 -1.19899E+04  2.75083E+04  3.02914E+03  2.36581E+04  1.91996E+04  1.14473E+04  3.06442E+04
 -5.46617E+03  3.23153E+04 -2.14856E+04  1.98462E+04 -2.39589E+04  4.55598E+03 -1.61026E+04 -5.90980E+03
 -6.52060E+03 -7.49258E+03 -1.02751E+03  2.27485E+02 -2.60288E+03  3.24252E+03 -8.27944E+03  5.59903E+03
 -1.45093E+04 -8.34619E+02 -1.52890E+04 -1.28280E+04 -6.51185E+03 -1.97978E+04  6.40010E+03 -1.58811E+04
  1.33849E+04 -6.45448E+03  9.55831E+03  4.35107E+03 -6.68340E+02  6.62162E+03 -8.23200E+03 -2.51266E+01
 -8.20240E+03 -1.04300E+04 -9.02003E+02 -1.61920E+04  9.26359E+03 -1.71950E+04  2.09047E+04 -9.10818E+03
  2.47332E+04  2.46772E+03  1.82768E+04  1.52784E+04  3.27478E+03  1.97956E+04 -1.00868E+04  1.60774E+04
 -1.33445E+04  4.58191E+03 -6.94827E+03 -3.45354E+03  2.33839E+03 -4.49087E+03  8.57212E+03 -8.74079E+02
  7.63012E+03  7.68279E+03  1.06274E+03  1.35928E+04 -9.54281E+03  1.26399E+04 -1.61330E+04  3.65742E+03
 -1.13564E+04 -8.49670E+03  1.99844E+02 -1.40586E+04  9.32036E+03 -7.48011E+03  9.57030E+03  3.30856E+03
  2.65874E+03  1.02871E+04 -8.45712E+03  1.25772E+04 -1.43087E+04  4.97874E+03 -1.46966E+04 -5.63527E+03
 -8.73582E+03 -1.65212E+04  3.92888E+03 -1.93107E+04  1.62238E+04 -1.16735E+04  1.80308E+04  2.94823E+03
  1.04346E+04  1.39239E+04 -1.59151E+03  1.68105E+04 -1.24621E+04  9.17939E+03 -1.34811E+04 -1.07047E+03
 -1.08680E+04 -1.11377E+04 -1.86055E+03 -1.29335E+04  6.88026E+03 -1.00944E+04  8.48764E+03 -3.67747E+03
  5.11834E+03  2.49764E+03 -1.14532E+03  1.79998E+03 -8.96999E+02 -3.91056E+03  3.17627E+03 -8.01506E+03
  1.25414E+04 -5.14462E+03  1.68807E+04  1.56395E+03  1.72922E+04  1.17435E+04  1.04720E+04  2.24762E+04
 -5.08321E+03  2.55138E+04 -2.14099E+04  1.89386E+04 -2.70181E+04  3.86066E+03 -2.18827E+04 -9.75897E+03
 -1.04866E+04 -1.81247E+04 -3.57361E+02 -1.54350E+04  5.09658E+03 -8.86494E+03  5.73231E+03 -5.82123E+03
  4.15072E+03 -3.16454E+03  4.48241E+03 -4.19287E+03  6.45660E+03 -3.88038E+03  8.05258E+03 -1.48534E+03
  1.15295E+04  2.60362E+03  6.28666E+03  9.89183E+03 -2.41538E+03  1.22144E+04 -1.18303E+04  9.33192E+03
 -1.61150E+04 -1.02600E+03 -1.02991E+04 -1.11916E+04 -1.30648E+03 -1.77458E+04  9.47547E+03 -1.70833E+04
  1.77107E+04 -9.07059E+03  2.13481E+04  3.26152E+03  1.39880E+04  1.52899E+04  1.92171E+03  1.91810E+04
 -7.82067E+03  1.56162E+04 -1.12775E+04  5.45599E+03 -7.77616E+03 -1.90153E+03 -2.92980E+03 -2.46048E+03
 -1.43168E+03 -6.45967E+02 -2.66219E+03  3.31209E+03 -6.18522E+03  2.65054E+03 -1.08533E+04 -1.83352E+03
 -8.14932E+03 -1.06555E+04 -3.02202E+02 -1.59031E+04  1.00590E+04 -1.47134E+04  1.60373E+04 -4.57267E+03
  1.59707E+04  8.13564E+03  7.28836E+03  1.43116E+04 -2.87548E+03  1.60643E+04 -1.20401E+04  1.01676E+04
 -1.49689E+04  3.12540E+02 -1.20336E+04 -9.83650E+03 -1.27106E+03 -1.35229E+04  6.90426E+03 -9.88113E+03
  1.01628E+04 -3.44816E+03  7.14935E+03  2.66163E+03  2.65386E+03  5.05820E+03  1.44674E+03  2.81085E+03
  2.93543E+03  1.07487E+03  3.81867E+03  1.99868E+03  5.10217E+03  4.94948E+03  3.99645E+03  8.64853E+03
 -3.36222E+03  1.34620E+04 -1.15219E+04  1.28556E+04 -1.72138E+04  2.96509E+03 -1.74329E+04 -7.29900E+03
 -7.97189E+03 -1.66759E+04  2.36079E+03 -1.82563E+04  1.02657E+04 -1.15433E+04  1.35971E+04 -2.91351E+03
  1.04891E+04  6.10109E+03  2.18404E+03  9.42904E+03 -4.36094E+03  6.18533E+03 -7.00044E+03 -1.53180E+03
 -3.36073E+03 -6.97591E+03  3.28010E+03 -7.45620E+03  6.99773E+03 -3.45708E+03  6.87161E+03  1.68187E+03
  4.28484E+03  3.74090E+03  1.61970E+03  2.92538E+03 -9.99244E+02  2.23627E+03  1.39732E+03 -4.31989E+02
  2.95171E+03 -8.05073E+02  7.12004E+03  2.74097E+03  3.80461E+03  8.70743E+03 -2.08372E+03  1.19350E+04
 -8.00437E+03  8.08968E+03 -1.06347E+04  2.19384E+03 -9.87328E+03 -3.62918E+03 -3.65010E+03 -6.94191E+03
  1.21553E+03 -6.44792E+03  4.41460E+03 -3.26557E+03  3.73213E+03  3.66236E+03 -1.68736E+03  5.38930E+03
 -7.06598E+03  3.41296E+03 -8.35891E+03 -4.13648E+03 -5.02764E+03 -9.22843E+03  1.41367E+03 -9.57462E+03
  5.79094E+03 -5.57340E+03  6.53049E+03 -2.83113E+02  5.70224E+03  2.66573E+03  9.33186E+02  4.89333E+03
 -3.62790E+03  1.62509E+03 -4.25458E+03 -3.69959E+03  1.19512E+03 -7.63956E+03  8.74418E+03 -5.53376E+03
  1.08630E+04  7.75203E+02  1.04334E+04  7.61076E+03  3.23890E+03  1.12335E+04 -3.95901E+03  1.06824E+04
 -9.47774E+03  4.95582E+03 -9.59166E+03 -1.97348E+03 -4.69394E+03 -7.56327E+03  1.46798E+03 -6.99058E+03
  7.24576E+03 -3.43813E+03  6.10247E+03  3.07337E+03  1.96984E+03  6.44160E+03 -1.39910E+03  6.06966E+03
 -2.57314E+03  3.41635E+03 -2.73684E+03  7.61002E+02 -1.51705E+03  1.15462E+03 -1.79086E+03  2.46411E+03
 -3.19219E+03  4.65740E+03 -7.93757E+03  3.86941E+03 -1.13904E+04  4.48300E+02 -1.30803E+04 -8.34808E+03
 -6.71329E+03 -1.46636E+04  3.28020E+03 -1.72637E+04  1.05365E+04 -1.31223E+04  1.64218E+04 -4.87410E+03
  1.55047E+04  3.51414E+03  9.56959E+03  1.07535E+04  1.33805E+03  1.21767E+04 -4.74394E+03  8.56393E+03
 -6.72913E+03  3.18671E+03 -4.06460E+03 -1.39464E+03 -1.29281E+03 -1.25478E+03 -1.02085E+03  3.07111E+02
 -1.83438E+03  5.79559E+02 -2.44886E+03 -1.30408E+03 -8.20112E+02 -2.99750E+03  8.28347E+02 -4.50146E+03
  5.26984E+03 -3.71759E+03  7.21086E+03 -4.49372E+01  7.49338E+03  6.68983E+03  2.34233E+03  1.19954E+04
 -5.84484E+03  1.35542E+04 -1.29322E+04  8.29068E+03 -1.50753E+04 -1.01720E+03 -1.06198E+04 -8.95338E+03
 -4.13282E+03 -1.26926E+04  3.22086E+03 -1.14335E+04  7.80270E+03 -6.19412E+03  7.66260E+03  2.02781E+02
  4.56294E+03  3.93528E+03 -1.72131E+02  3.54987E+03 -2.57210E+03 -2.74659E+02  2.03656E+02 -2.60025E+03
  3.75827E+03 -1.77236E+03  4.89936E+03  1.27662E+03  3.26935E+03  4.84110E+03 -2.53810E+02  6.36342E+03
 -5.09672E+03  5.58246E+03 -8.04504E+03  6.81618E+02 -7.70924E+03 -6.17268E+03 -9.89909E+02 -9.92823E+03
  5.74999E+03 -8.67154E+03  9.65777E+03 -2.54859E+03  9.41291E+03  2.82594E+03  5.63824E+03  7.63065E+03
  1.06152E+03  8.08756E+03 -3.10284E+03  6.52446E+03 -5.34206E+03  4.27457E+03 -4.34001E+03  3.48439E+02
 -2.73648E+03  8.23069E+01 -2.22329E+03  1.38269E+03 -3.88863E+03  1.27131E+03 -6.70862E+03 -1.11757E+03
 -5.98416E+03 -4.27153E+03 -1.92492E+03 -8.36072E+03  3.99818E+03 -9.05489E+03  7.13167E+03 -4.07080E+03
  8.57533E+03  7.70408E+02  4.67497E+03  6.15401E+03 -9.43055E+02  8.18735E+03 -6.25086E+03  5.51909E+03
