 $NMID ID='MM_0lb_SNR800_20hz_g60_39.RAW', FMTDAT='(8E13.5)'
 TRAMP=1., VOLUME=1. $END
  3.09672E+05  2.87971E+02  3.37393E+05  2.50712E+05  8.45247E+04  3.37534E+05 -1.32345E+05  2.50619E+05
 -1.90044E+05  8.29169E+04 -1.11154E+05 -3.27962E+04  1.04508E+03 -5.02344E+04  5.37854E+04 -8.55454E+01
  3.51735E+04  5.28315E+04 -1.67558E+04  7.49502E+04 -6.05123E+04  6.30765E+04 -8.37594E+04  3.18509E+04
 -8.00892E+04 -1.10104E+04 -5.65986E+04 -5.08057E+04 -1.49700E+04 -6.87412E+04  2.71887E+04 -4.53517E+04
  3.96561E+04  3.76018E+03  1.58835E+04  4.72615E+04 -3.42568E+04  4.68349E+04 -6.57193E+04 -5.23141E+02
 -5.28961E+04 -5.62777E+04 -6.43495E+03 -7.59662E+04  3.33893E+04 -5.39542E+04  4.70036E+04 -1.70616E+04
  4.22972E+04  1.12593E+04  3.10272E+04  2.47981E+04  1.59062E+04  2.86723E+04 -4.64552E+03  2.69003E+04
 -2.18364E+04  1.23480E+04 -1.92274E+04 -4.52255E+03  4.60149E+03 -7.79566E+03  2.15473E+04  1.15114E+04
  7.48092E+03  3.39862E+04 -3.10694E+04  3.43501E+04 -6.18309E+04  2.28317E+03 -5.59663E+04 -4.18836E+04
 -1.22652E+04 -6.14472E+04  3.85093E+04 -4.40101E+04  5.62054E+04 -1.98027E+03  3.25160E+04  3.12009E+04
 -6.26319E+03  3.37335E+04 -2.91196E+04  1.40463E+04 -2.84354E+04 -4.95957E+03 -1.52329E+04 -1.03617E+04
 -7.62965E+03 -1.17157E+04 -8.90601E+02 -1.71269E+04  6.97830E+03 -2.24847E+04  1.51749E+04 -1.37416E+04
  1.20797E+04  4.71875E+03 -6.88114E+03  1.30840E+04 -2.00144E+04 -3.11706E+03 -8.14024E+03 -3.11589E+04
  2.13986E+04 -4.12455E+04  4.51765E+04 -1.86615E+04  4.28787E+04  1.86642E+04  1.47384E+04  4.21439E+04
 -1.55394E+04  3.16476E+04 -2.37271E+04  1.50166E+03 -8.76495E+03 -2.66773E+04  2.08566E+04 -3.18327E+04
  3.85433E+04 -7.95620E+03  3.23812E+04  2.31095E+04  1.58539E+04  4.33287E+04 -7.44691E+03  4.63562E+04
 -2.91240E+04  3.07025E+04 -3.83439E+04  8.78268E+03 -3.90533E+04 -1.53932E+04 -2.18663E+04 -3.55187E+04
  6.64031E+03 -3.45733E+04  2.94128E+04 -1.30030E+04  2.73890E+04  1.07189E+04  3.01500E+03  1.81511E+04
 -1.29976E+04  7.58149E+03 -9.87056E+03 -7.74710E+03  6.04477E+03 -1.02442E+04  1.71621E+04  6.48200E+03
  1.25013E+04  2.16718E+04 -6.40769E+03  2.35066E+04 -2.16771E+04  9.72027E+03 -2.55158E+04 -6.11878E+03
 -1.73708E+04 -1.63602E+04 -6.18745E+03 -1.70777E+04  3.75434E+03 -1.52305E+04  1.27930E+04 -1.53615E+04
  2.18618E+04 -1.19547E+04  2.87374E+04  1.80417E+03  2.16564E+04  1.66621E+04  4.12877E+03  3.30000E+04
 -1.63894E+04  2.79264E+04 -2.63807E+04  9.26811E+03 -1.98775E+04 -1.01631E+04 -3.84821E+03 -1.38686E+04
  2.73774E+03 -3.98435E+03 -2.99072E+03  5.50319E+03 -1.33999E+04  4.95932E+03 -1.38556E+04 -5.14497E+03
 -8.56092E+03 -1.56116E+04  4.43832E+03 -1.96580E+04  1.26413E+04 -1.45200E+04  1.51622E+04 -1.39387E+03
  9.22231E+03  1.11750E+04 -9.34100E+02  1.59970E+04 -1.04044E+04  8.80081E+03 -1.56561E+04 -3.50661E+03
 -1.17730E+04 -1.40523E+04 -1.49926E+03 -1.93953E+04  8.85418E+03 -1.54264E+04  1.66017E+04 -7.48457E+03
  1.48599E+04  6.95023E+02  1.06102E+04  4.02196E+03  5.14791E+03  4.58161E+02  7.52284E+03 -1.52015E+03
  1.39244E+04  2.70902E+03  1.50162E+04  1.28168E+04  9.45034E+03  2.50769E+04 -3.04538E+03  2.70591E+04
 -1.60570E+04  2.08036E+04 -2.48373E+04  9.80096E+03 -2.55075E+04 -2.03279E+03 -2.16353E+04 -1.43432E+04
 -1.03203E+04 -2.07441E+04  7.03266E+03 -1.94134E+04  1.69057E+04 -1.08739E+04  1.58313E+04  3.73483E+03
  6.49906E+03  1.11494E+04 -7.33705E+03  1.07330E+04 -1.34752E+04  2.53493E+03 -1.05428E+04 -8.29999E+03
 -2.38708E+02 -1.24503E+04  6.11832E+03 -9.62516E+03  8.09872E+03 -1.11440E+03  1.42029E+03  4.89754E+03
 -5.39870E+03  1.36491E+03 -3.69653E+03 -4.52150E+03  8.28716E+02 -1.03253E+04  7.65918E+03 -1.00680E+04
  1.23151E+04 -4.78316E+03  1.21336E+04  2.78253E+03  1.05689E+04  9.35754E+03  4.64496E+03  1.42097E+04
 -1.39185E+03  1.58654E+04 -9.45772E+03  1.03038E+04 -1.11721E+04  2.82378E+03 -8.21266E+03 -1.83921E+03
 -4.89621E+03 -3.22622E+03 -7.30018E+02  1.65467E+03 -2.07410E+03  1.81100E+03 -3.81708E+03  3.42510E+03
 -8.01868E+03 -3.83329E+02 -8.60946E+03 -7.13151E+03 -3.32563E+03 -1.13753E+04  3.46902E+03 -8.36801E+03
  7.00953E+03 -3.64399E+03  5.41984E+03  2.13591E+03  6.83919E+02  2.93972E+03 -3.24115E+03 -1.86236E+02
 -3.03126E+03 -4.94256E+03 -6.90836E+02 -6.99772E+03  3.62820E+03 -7.79097E+03  9.60436E+03 -3.88807E+03
  1.15250E+04  7.48055E+02  8.67532E+03  5.93747E+03  1.60948E+03  8.46448E+03 -5.19109E+03  8.04977E+03
 -6.64466E+03  2.56428E+03 -3.29548E+03 -1.04419E+03  1.26659E+03 -1.80418E+03  4.74900E+03 -8.99012E+02
  3.89028E+03  3.28671E+03  9.75432E+02  6.21349E+03 -4.41819E+03  6.43822E+03 -7.36622E+03  2.05624E+03
 -4.40479E+03 -3.42085E+03  5.00975E+02 -6.69139E+03  3.74506E+03 -3.05118E+03  3.30057E+03  1.15720E+03
  4.18651E+02  3.24202E+03 -3.85564E+03  4.63980E+03 -4.30879E+03  2.26911E+03 -4.08483E+03 -1.02101E+03
 -2.58904E+03 -5.57679E+03  8.04892E+02 -6.55239E+03  5.73037E+03 -4.29071E+03  6.12792E+03  8.01816E+02
  4.45115E+03  4.80786E+03  1.67251E+02  6.71374E+03 -4.84196E+03  3.81350E+03 -4.67438E+03 -4.76021E+02
 -5.53392E+03 -4.88021E+03 -1.55752E+03 -4.63739E+03  2.37416E+03 -4.31252E+03  2.92949E+03 -2.80774E+03
  2.77955E+03  8.25203E+01  3.78412E+01  1.47903E+03  6.46309E+02  2.80996E+01  3.44389E+02 -1.60137E+03
  3.40252E+03 -4.49493E+02  4.87880E+03  6.04418E+02  5.26472E+03  2.57265E+03  4.81841E+03  6.70245E+03
 -1.19154E+03  8.01075E+03 -7.16872E+03  5.73550E+03 -9.15285E+03  8.98533E+02 -7.07478E+03 -2.36200E+03
 -3.97059E+03 -5.64089E+03 -2.98946E+02 -4.60689E+03  1.88267E+03 -2.05899E+03  1.54300E+03 -2.02878E+03
  1.08599E+03 -1.35891E+03  2.11183E+03 -2.33966E+03  3.39517E+03 -1.16907E+03  3.37691E+03  6.37995E+02
  3.93934E+03  1.09863E+03  8.01244E+02  3.20663E+03 -1.40448E+03  2.41476E+03 -4.09556E+03  2.16245E+03
 -4.22801E+03 -7.32735E+02 -1.81440E+03 -3.17215E+03  3.74182E+02 -4.27206E+03  2.66700E+03 -4.66867E+03
  4.49798E+03 -3.05264E+03  5.91369E+03 -1.25784E+01  4.24926E+03  3.58215E+03  1.05557E+03  5.29254E+03
 -1.80059E+03  5.23423E+03 -2.70681E+03  1.78214E+03 -1.52754E+03 -9.38324E+02 -2.65547E+02 -3.01564E+02
 -4.97472E+02  3.00645E+02 -8.79744E+02  1.77949E+03 -2.17918E+03  1.01302E+03 -3.62769E+03 -3.44409E+02
 -1.27480E+03 -3.73863E+03  7.32613E+02 -3.93319E+03  2.47198E+03 -3.73561E+03  2.85673E+03 -1.31479E+03
  3.34695E+03  2.33953E+03  1.41486E+03  2.19281E+03 -7.02073E+02  3.57061E+03 -1.96592E+03  2.03980E+03
 -2.77235E+03  6.96217E+02 -2.85094E+03 -2.00841E+03 -1.29257E+01 -2.62390E+03  1.15080E+03 -2.00995E+03
  2.20869E+03 -1.36166E+03  1.61186E+03  6.57882E+02  1.83198E+02  1.18742E+03  9.95142E+02  3.26783E+02
  1.87518E+03  4.23413E+02  1.41508E+03  7.85156E+02  9.25584E+02  1.92445E+03  1.28668E+03  1.20930E+03
 -1.37585E+03  2.20606E+03 -1.86144E+03  3.45227E+03 -2.33372E+03  6.08408E+02 -3.38670E+03  1.28069E+02
 -1.40977E+03 -2.94131E+03  6.33625E+02 -3.78407E+03  1.36167E+03 -2.03567E+03  2.56192E+03 -9.62127E+02
  1.80310E+03  1.67026E+03  3.28794E+02  2.02015E+03 -2.73758E+02  1.24776E+03 -5.22459E+02 -1.20190E+02
 -5.84745E+02 -1.09958E+03  1.09847E+03 -1.37906E+03  9.41364E+02 -9.97524E+02  1.05748E+03  5.56734E+02
  9.23141E+02  8.63518E+01  8.35581E+02 -4.64675E+02 -1.64930E+02  6.24699E+02  1.72399E+03 -1.35246E+02
  7.81538E+00  6.58483E+01  1.50434E+03  4.39182E+02  7.79731E+01  1.77503E+03 -2.72164E+02  1.98118E+03
 -1.26962E+03  4.01223E+02 -1.21008E+03  1.52103E+02 -1.67345E+03 -5.01800E+02 -1.64230E+01 -5.55527E+02
  4.67943E+02 -9.17532E+02  6.13847E+02 -3.76840E+02  4.85653E+02  1.05627E+03 -6.11443E+02  6.74782E+02
 -9.59083E+02  5.78875E+02 -7.57456E+02 -1.09088E+03 -7.23931E+02 -1.70354E+03  4.31240E+00 -1.06807E+03
  1.18817E+02 -1.29053E+02  3.96134E+02  3.53462E+02  9.01746E+02 -1.11624E+02  2.97440E+02  8.97793E+02
 -1.71983E+02 -1.73615E+02 -6.38937E+02  1.91374E+02  6.37081E+02 -3.06303E+02  1.39276E+03 -5.56116E+02
  1.01017E+03  2.91161E+01  2.23355E+03  5.74353E+01  1.15298E+03  1.25386E+03 -7.55294E+01  1.03219E+03
 -1.11914E+03  8.16896E+01 -8.52336E+02  6.35752E+01 -3.53002E+02 -1.07477E+03  2.20573E+02 -3.20511E+02
  1.21059E+03 -6.40865E+02  5.53200E+02  7.57608E+02  1.69877E+02  1.08805E+03  2.25890E+02  9.99880E+02
 -2.83017E+02  9.50896E+02 -2.50101E+02  2.06000E+02  2.31362E+02  2.93651E+02 -8.43823E+02  5.97420E+02
 -3.04109E+02  8.12541E+02 -1.42497E+03  4.56091E+02 -1.32189E+03  3.40504E+02 -1.67095E+03 -5.28290E+02
 -9.79393E+02 -1.38291E+03  3.58181E+02 -1.90159E+03  5.74570E+02 -1.59615E+03  1.85547E+03 -8.67116E+02
  1.47044E+03 -5.00910E+02  7.85802E+02  9.74358E+02 -9.60423E+02  9.75816E+02 -6.21281E+02  8.25152E+02
 -7.20817E+02  7.00463E+02 -5.40295E+02 -2.93620E+02 -4.12504E+02  5.60137E+02 -6.70520E+02 -1.60757E+02
 -1.04060E+03 -2.01704E+02 -8.75659E+02  1.26448E+02  3.82486E+02 -2.41582E+02 -5.08034E+02 -7.11960E+02
  9.73845E+02 -4.98829E+02 -1.07379E+02  2.04189E+02  5.41770E+02  6.69047E+02 -6.04672E+02  7.93822E+02
 -5.94495E+02  1.57875E+03 -1.01486E+03  1.09180E+03 -1.02701E+03 -4.61833E+01 -6.46887E+02 -8.88390E+02
 -7.90361E+02 -8.97132E+02  2.07053E+02 -6.89018E+02  2.71565E+02 -2.24120E+02  4.00815E+01 -1.58211E+02
  5.02724E+02  1.29105E+02  3.39445E+02 -5.44627E+00  2.45126E+01  3.68788E+02 -4.13783E+01 -1.32742E+01
  1.74456E+02  5.80944E+01  1.11080E+02  4.94406E+02 -2.27132E+02  3.85171E+02  3.89748E+02 -2.76983E+02
 -4.82360E+02  2.81915E+02 -1.08519E+02 -6.25799E+01 -4.65172E+02 -1.63373E+02  2.38018E+02 -6.30358E+02
  3.65405E+02 -4.18135E+02 -8.01640E+01  2.58670E+02  3.95620E+02 -4.84412E+02  4.56655E+02  3.66374E+02
  4.65660E+02  3.94819E+02 -1.57384E+02  1.17529E+02 -2.93595E+02  4.10651E+02 -4.27742E+02  1.67358E+02
 -1.59746E+02  6.96202E+00 -3.12539E+02  4.60438E+01 -4.25290E+02  7.14239E+01 -3.00725E+02 -1.08824E+01
 -8.76237E+02  4.08064E+02 -7.35054E+01 -6.02660E+02  4.83896E+02 -8.90435E+02  4.26298E+02 -2.54643E+01
  3.44655E+02  6.51396E+00 -5.05179E+02 -1.15947E+02 -1.33210E+02  3.36314E+02  1.22819E+02  4.21753E+02
