 $NMID ID='MM_0lb_SNR800_9hz_g40_48.RAW', FMTDAT='(8E13.5)'
 TRAMP=1., VOLUME=1. $END
  3.10062E+05  6.96315E+02  3.37786E+05  2.50949E+05  8.52099E+04  3.38344E+05 -1.32652E+05  2.51512E+05
 -1.90586E+05  8.37776E+04 -1.12601E+05 -3.26569E+04  4.22995E+02 -5.09139E+04  5.39672E+04 -9.82477E+01
  3.51859E+04  5.27605E+04 -1.69352E+04  7.61340E+04 -6.10239E+04  6.44700E+04 -8.52918E+04  3.23673E+04
 -8.19908E+04 -1.17329E+04 -5.77112E+04 -5.23621E+04 -1.52966E+04 -7.06898E+04  2.82548E+04 -4.62668E+04
  4.11516E+04  3.65133E+03  1.64530E+04  4.84432E+04 -3.49660E+04  4.83448E+04 -6.75071E+04  1.39564E+02
 -5.45612E+04 -5.72934E+04 -7.24594E+03 -7.87978E+04  3.45891E+04 -5.61393E+04  4.91444E+04 -1.78246E+04
  4.52402E+04  1.13267E+04  3.26457E+04  2.62325E+04  1.61780E+04  3.02835E+04 -5.52107E+03  2.77114E+04
 -2.21035E+04  1.21668E+04 -1.84809E+04 -5.77685E+03  6.45254E+03 -7.72522E+03  2.30786E+04  1.34833E+04
  7.11740E+03  3.66770E+04 -3.32636E+04  3.67253E+04 -6.53833E+04  2.38113E+03 -5.85148E+04 -4.42176E+04
 -1.28196E+04 -6.54513E+04  4.15294E+04 -4.71844E+04  6.08813E+04 -2.81557E+03  3.61091E+04  3.38970E+04
 -5.36363E+03  3.84216E+04 -3.11942E+04  1.83305E+04 -3.23023E+04 -4.06846E+03 -1.86287E+04 -1.16626E+04
 -9.44244E+03 -1.44993E+04 -2.76908E+02 -1.93874E+04  8.58283E+03 -2.33829E+04  1.57694E+04 -1.26529E+04
  1.02554E+04  6.08690E+03 -1.02117E+04  1.27202E+04 -2.28769E+04 -5.95851E+03 -8.05226E+03 -3.63096E+04
  2.46551E+04 -4.61144E+04  5.11193E+04 -2.05727E+04  4.81196E+04  2.05944E+04  1.71330E+04  4.63963E+04
 -1.65315E+04  3.57044E+04 -2.72630E+04  2.60085E+03 -1.10539E+04 -2.90897E+04  2.17407E+04 -3.65781E+04
  4.37214E+04 -1.07154E+04  3.96147E+04  2.45117E+04  2.05629E+04  5.00784E+04 -8.22023E+03  5.52294E+04
 -3.44719E+04  3.76109E+04 -4.67624E+04  1.06367E+04 -4.65311E+04 -1.82270E+04 -2.58002E+04 -4.11880E+04
  7.64413E+03 -4.07786E+04  3.39106E+04 -1.68419E+04  3.10043E+04  1.13793E+04  4.96630E+03  2.05109E+04
 -1.38890E+04  9.10694E+03 -1.13424E+04 -7.63500E+03  5.82886E+03 -1.08815E+04  1.88511E+04  5.44212E+03
  1.47505E+04  2.21676E+04 -4.81434E+03  2.67584E+04 -2.33651E+04  1.36929E+04 -3.10338E+04 -3.04370E+03
 -2.46494E+04 -1.80325E+04 -1.05887E+04 -2.42657E+04  4.10923E+03 -2.46499E+04  1.88960E+04 -2.20794E+04
  3.09004E+04 -1.35888E+04  3.70920E+04  4.70523E+03  2.63796E+04  2.36297E+04  4.41064E+03  4.01724E+04
 -1.91764E+04  3.32572E+04 -3.02606E+04  1.16919E+04 -2.20368E+04 -1.01581E+04 -5.02826E+03 -1.33308E+04
  8.23537E+02 -1.43438E+03 -7.04873E+03  8.13517E+03 -1.97714E+04  5.45137E+03 -1.95186E+04 -9.23591E+03
 -1.15713E+04 -2.25510E+04  5.63500E+03 -2.69153E+04  1.83431E+04 -1.92225E+04  2.14370E+04 -1.63813E+03
  1.35294E+04  1.58187E+04 -1.45358E+03  2.24952E+04 -1.60686E+04  1.31947E+04 -2.24892E+04 -4.70995E+03
 -1.62860E+04 -2.03916E+04 -2.21544E+03 -2.76403E+04  1.20229E+04 -2.23834E+04  2.23195E+04 -1.12841E+04
  2.15278E+04 -2.23341E+01  1.55071E+04  4.77459E+03  8.40738E+03  1.34525E+03  1.16809E+04 -1.88737E+03
  2.15317E+04  2.97186E+03  2.43030E+04  1.79541E+04  1.67747E+04  3.64304E+04 -2.33507E+03  4.30080E+04
 -2.45588E+04  3.53503E+04 -4.03231E+04  1.81357E+04 -4.25861E+04 -3.04085E+03 -3.45723E+04 -2.49574E+04
 -1.37463E+04 -3.58599E+04  1.26729E+04 -3.13449E+04  2.69405E+04 -1.47230E+04  2.32572E+04  7.21729E+03
  7.90526E+03  1.78645E+04 -1.11637E+04  1.52153E+04 -1.97738E+04  2.54082E+03 -1.43732E+04 -1.22475E+04
 -1.80666E+02 -1.88662E+04  1.02594E+04 -1.37077E+04  1.31510E+04 -1.54413E+03  3.28708E+03  8.39655E+03
 -8.36252E+03  3.97191E+03 -8.51703E+03 -6.90631E+03 -1.57741E+03 -1.76941E+04  1.16182E+04 -1.90095E+04
  2.22249E+04 -1.08366E+04  2.43153E+04  3.17405E+03  2.14973E+04  1.74959E+04  9.89178E+03  2.76191E+04
 -4.97965E+03  2.94602E+04 -1.92456E+04  1.80938E+04 -2.16661E+04  3.79833E+03 -1.43665E+04 -5.66690E+03
 -6.33818E+03 -6.55039E+03 -5.35104E+02  4.99359E+02 -2.85722E+03  3.63877E+03 -6.66131E+03  5.43516E+03
 -1.34974E+04 -1.13442E+03 -1.43113E+04 -1.15033E+04 -5.53898E+03 -1.89580E+04  5.90639E+03 -1.54925E+04
  1.21566E+04 -6.10777E+03  8.88752E+03  3.92837E+03 -1.40459E+01  6.03167E+03 -7.90489E+03 -2.29063E+02
 -7.34127E+03 -9.68029E+03 -1.09436E+03 -1.50787E+04  8.70724E+03 -1.57733E+04  1.90286E+04 -8.04465E+03
  2.23493E+04  2.12021E+03  1.60595E+04  1.37386E+04  3.35016E+03  1.79013E+04 -9.57056E+03  1.47531E+04
 -1.19073E+04  4.57533E+03 -6.42607E+03 -3.10485E+03  2.03572E+03 -4.21478E+03  7.89474E+03 -1.29579E+03
  7.29554E+03  6.90216E+03  1.41540E+03  1.23054E+04 -8.78201E+03  1.13695E+04 -1.48239E+04  2.96272E+03
 -1.03578E+04 -7.75541E+03  3.56777E+02 -1.29157E+04  8.51434E+03 -6.33804E+03  9.06856E+03  3.17999E+03
  1.90525E+03  9.55310E+03 -7.74957E+03  1.12400E+04 -1.32540E+04  5.14586E+03 -1.32983E+04 -4.80541E+03
 -7.62207E+03 -1.54316E+04  3.67232E+03 -1.72293E+04  1.43138E+04 -1.04261E+04  1.59362E+04  3.07379E+03
  9.54853E+03  1.28067E+04 -1.29666E+03  1.52457E+04 -1.11913E+04  8.37284E+03 -1.27048E+04 -1.05401E+03
 -1.03210E+04 -9.97976E+03 -2.00326E+03 -1.18991E+04  6.09239E+03 -9.44802E+03  7.15954E+03 -3.56268E+03
  4.85123E+03  1.78962E+03 -8.48922E+02  1.48698E+03 -7.06137E+02 -3.49272E+03  2.37121E+03 -6.98315E+03
  1.05787E+04 -4.41209E+03  1.52507E+04  1.64136E+03  1.51094E+04  1.06353E+04  9.98466E+03  1.97092E+04
 -4.48759E+03  2.27393E+04 -1.86987E+04  1.64776E+04 -2.43838E+04  3.45839E+03 -1.94447E+04 -8.55863E+03
 -1.02783E+04 -1.60203E+04 -2.37448E+02 -1.36871E+04  5.08607E+03 -7.94035E+03  5.27718E+03 -4.65790E+03
  3.64514E+03 -3.08139E+03  3.80513E+03 -3.49125E+03  5.83182E+03 -3.42367E+03  7.75910E+03 -1.43365E+03
  1.00189E+04  2.32915E+03  5.53497E+03  9.22591E+03 -2.33014E+03  1.06395E+04 -1.05189E+04  8.14891E+03
 -1.38779E+04 -1.15900E+03 -8.97907E+03 -8.99322E+03 -1.11717E+03 -1.45609E+04  8.01593E+03 -1.49287E+04
  1.54340E+04 -8.26529E+03  1.83837E+04  2.23996E+03  1.30781E+04  1.31913E+04  2.04858E+03  1.64299E+04
 -6.86966E+03  1.40421E+04 -9.59429E+03  4.95396E+03 -7.01357E+03 -1.72028E+03 -2.86863E+03 -2.20070E+03
 -1.23966E+03  5.56338E+01 -2.81072E+03  2.79973E+03 -5.69513E+03  2.41607E+03 -9.77599E+03 -1.59292E+03
 -7.01344E+03 -9.68746E+03 -2.17924E+02 -1.40015E+04  8.78753E+03 -1.30987E+04  1.37346E+04 -3.87013E+03
  1.38624E+04  7.18692E+03  6.13595E+03  1.23889E+04 -2.60917E+03  1.36418E+04 -9.91111E+03  8.89739E+03
 -1.29042E+04  1.61762E+02 -9.95218E+03 -8.38203E+03 -7.78538E+02 -1.14879E+04  6.21249E+03 -8.72812E+03
  8.57758E+03 -2.60141E+03  6.30917E+03  2.40326E+03  2.54659E+03  4.31948E+03  1.10125E+03  1.82181E+03
  2.67409E+03  1.23968E+03  3.00258E+03  1.89656E+03  4.12817E+03  4.88662E+03  3.78257E+03  7.35964E+03
 -3.10229E+03  1.08197E+04 -9.79860E+03  1.14549E+04 -1.41866E+04  2.90451E+03 -1.47250E+04 -6.11230E+03
 -7.26013E+03 -1.44676E+04  2.13126E+03 -1.54020E+04  8.48580E+03 -9.59102E+03  1.17543E+04 -2.95536E+03
  9.31207E+03  5.14081E+03  2.10306E+03  8.38612E+03 -3.96166E+03  5.02341E+03 -5.72029E+03 -8.18473E+02
 -2.90195E+03 -5.91556E+03  3.33336E+03 -6.17473E+03  6.05880E+03 -3.35234E+03  5.17021E+03  1.21113E+03
  3.19773E+03  2.97980E+03  1.55480E+03  2.52968E+03 -3.56160E+02  2.42166E+03  1.84436E+03 -7.92149E+02
  2.36054E+03 -5.61483E+02  5.94946E+03  2.41003E+03  2.97953E+03  7.81572E+03 -1.15849E+03  1.01263E+04
 -6.93622E+03  6.56358E+03 -9.24496E+03  1.65852E+03 -8.30700E+03 -3.35197E+03 -3.12064E+03 -5.60901E+03
  9.01600E+02 -5.28771E+03  4.12518E+03 -2.46772E+03  3.38652E+03  2.61847E+03 -1.44773E+03  4.61414E+03
 -6.07644E+03  2.74622E+03 -6.91959E+03 -3.66167E+03 -3.90073E+03 -7.68973E+03  1.43392E+03 -8.30401E+03
  4.66246E+03 -4.72817E+03  5.94582E+03 -6.86003E+02  4.77062E+03  1.96963E+03  9.71716E+02  3.98524E+03
 -2.72118E+03  1.34810E+03 -3.56624E+03 -2.80592E+03  1.31646E+03 -6.14429E+03  7.10504E+03 -4.65931E+03
  8.92007E+03  3.18820E+02  8.79722E+03  5.89776E+03  3.30625E+03  9.39984E+03 -3.23306E+03  9.12986E+03
 -7.79014E+03  3.92221E+03 -8.26793E+03 -1.12284E+03 -3.89609E+03 -6.39634E+03  1.67734E+03 -5.76044E+03
  5.49466E+03 -3.01257E+03  4.83864E+03  2.31278E+03  1.38323E+03  5.45510E+03 -5.89593E+02  4.35625E+03
 -2.53380E+03  2.94822E+03 -2.23553E+03  1.25062E+03 -1.16073E+03  8.05817E+02 -1.23667E+03  1.84805E+03
 -2.13094E+03  3.90571E+03 -6.40327E+03  3.06757E+03 -9.60637E+03  4.92242E+02 -1.05964E+04 -5.98777E+03
 -5.78053E+03 -1.26689E+04  2.31466E+03 -1.46594E+04  9.00592E+03 -1.11175E+04  1.38895E+04 -4.64055E+03
  1.26240E+04  2.69396E+03  8.31768E+03  8.93058E+03  4.15563E+02  9.92979E+03 -3.91321E+03  7.66042E+03
 -5.97715E+03  2.88233E+03 -3.34931E+03 -1.13755E+03 -1.06384E+03 -7.51980E+02 -8.95087E+02 -1.20314E+02
 -2.32590E+03  1.45144E+02 -2.42510E+03 -4.62412E+02 -8.88780E+02 -2.41679E+03 -1.03625E+02 -3.38682E+03
  4.36580E+03 -3.25727E+03  5.73966E+03 -9.29157E+01  6.69142E+03  5.52560E+03  2.02150E+03  9.71355E+03
 -5.09323E+03  1.14673E+04 -9.90882E+03  6.37968E+03 -1.21010E+04 -7.58201E+02 -8.57979E+03 -7.31485E+03
 -3.22565E+03 -1.03940E+04  2.67132E+03 -9.03349E+03  6.64983E+03 -5.19385E+03  6.52060E+03  1.52157E+02
  3.51459E+03  3.14977E+03  1.66415E+01  2.87720E+03 -1.98094E+03 -1.57949E+02  4.81860E+01 -2.51570E+03
  2.99099E+03 -1.37190E+03  3.74434E+03  1.13357E+03  2.69376E+03  3.99996E+03 -1.23945E+01  5.31561E+03
 -4.31245E+03  4.75055E+03 -6.06544E+03  5.88852E+02 -6.17751E+03 -4.92576E+03 -4.07862E+02 -8.35772E+03
  4.44288E+03 -6.91048E+03  7.44850E+03 -1.77222E+03  7.70225E+03  1.86122E+03  4.18502E+03  6.12788E+03
  9.61492E+02  6.76480E+03 -3.00654E+03  5.36997E+03 -3.91051E+03  2.89680E+03 -3.45236E+03  5.82055E+02
 -1.96378E+03 -1.12229E+02 -1.81764E+03  1.12583E+03 -3.51564E+03  1.41715E+03 -5.10890E+03 -7.80607E+02
 -4.72983E+03 -4.11603E+03 -1.74205E+03 -6.57214E+03  2.77345E+03 -7.10157E+03  5.82667E+03 -3.26254E+03
  6.73371E+03  7.24243E+02  3.89673E+03  4.81828E+03 -3.37241E+02  6.78262E+03 -5.16159E+03  4.30059E+03
