 $NMID ID='MM_0lb_SNR800_14hz_g50_41.RAW', FMTDAT='(8E13.5)'
 TRAMP=1., VOLUME=1. $END
  3.09499E+05  4.17812E+02  3.37587E+05  2.50609E+05  8.47136E+04  3.38020E+05 -1.32523E+05  2.50860E+05
 -1.90412E+05  8.32707E+04 -1.11681E+05 -3.26004E+04  1.28216E+03 -5.05163E+04  5.39894E+04  1.49976E+02
  3.52889E+04  5.29771E+04 -1.72345E+04  7.52736E+04 -6.04225E+04  6.36722E+04 -8.40430E+04  3.22580E+04
 -8.13417E+04 -1.13574E+04 -5.71431E+04 -5.08969E+04 -1.45768E+04 -6.96843E+04  2.75132E+04 -4.57599E+04
  4.03469E+04  3.57378E+03  1.62379E+04  4.79355E+04 -3.42076E+04  4.71850E+04 -6.70797E+04 -2.15212E+02
 -5.34528E+04 -5.68435E+04 -6.73638E+03 -7.69370E+04  3.39617E+04 -5.51372E+04  4.83865E+04 -1.73783E+04
  4.35858E+04  1.11744E+04  3.23316E+04  2.57378E+04  1.59215E+04  2.94276E+04 -5.29964E+03  2.71141E+04
 -2.20407E+04  1.24883E+04 -1.86487E+04 -4.92361E+03  5.58294E+03 -7.22509E+03  2.22210E+04  1.24753E+04
  7.36876E+03  3.52863E+04 -3.18086E+04  3.53722E+04 -6.32396E+04  2.11164E+03 -5.72175E+04 -4.28292E+04
 -1.22554E+04 -6.32716E+04  3.97053E+04 -4.52610E+04  5.81129E+04 -1.99747E+03  3.44212E+04  3.25063E+04
 -5.99886E+03  3.62988E+04 -2.97971E+04  1.60276E+04 -3.03575E+04 -4.44534E+03 -1.65672E+04 -1.08447E+04
 -8.34097E+03 -1.29425E+04 -7.22186E+02 -1.83529E+04  7.44183E+03 -2.28851E+04  1.53001E+04 -1.32713E+04
  1.12338E+04  5.05895E+03 -8.37345E+03  1.30354E+04 -2.14727E+04 -4.63697E+03 -8.36715E+03 -3.37959E+04
  2.25103E+04 -4.35410E+04  4.81640E+04 -2.00303E+04  4.48935E+04  1.96086E+04  1.58330E+04  4.43091E+04
 -1.58081E+04  3.36444E+04 -2.51154E+04  1.74633E+03 -9.73673E+03 -2.79298E+04  2.13735E+04 -3.39296E+04
  4.12282E+04 -8.96073E+03  3.58668E+04  2.40859E+04  1.80265E+04  4.66738E+04 -7.90411E+03  5.03134E+04
 -3.15854E+04  3.40703E+04 -4.22442E+04  9.52653E+03 -4.28160E+04 -1.64745E+04 -2.31930E+04 -3.81967E+04
  7.17350E+03 -3.78223E+04  3.18116E+04 -1.46525E+04  2.93775E+04  1.09945E+04  3.97403E+03  1.92516E+04
 -1.34732E+04  8.29978E+03 -1.05887E+04 -7.67554E+03  5.77610E+03 -1.06425E+04  1.81731E+04  6.17164E+03
  1.35904E+04  2.16341E+04 -6.05170E+03  2.52034E+04 -2.23211E+04  1.16379E+04 -2.80808E+04 -4.59200E+03
 -2.07257E+04 -1.72358E+04 -8.47823E+03 -2.05718E+04  4.13502E+03 -1.95483E+04  1.58512E+04 -1.81967E+04
  2.62540E+04 -1.30452E+04  3.27695E+04  2.78410E+03  2.40913E+04  1.98344E+04  4.14797E+03  3.66015E+04
 -1.80828E+04  3.02250E+04 -2.79330E+04  1.06815E+04 -2.11018E+04 -1.02483E+04 -4.70387E+03 -1.31270E+04
  1.78067E+03 -2.96628E+03 -5.04075E+03  6.80447E+03 -1.63171E+04  5.27071E+03 -1.66884E+04 -7.24344E+03
 -1.02359E+04 -1.88865E+04  5.01258E+03 -2.33598E+04  1.53174E+04 -1.65838E+04  1.83782E+04 -1.81364E+03
  1.13738E+04  1.32051E+04 -1.05571E+03  1.89299E+04 -1.29150E+04  1.10610E+04 -1.91058E+04 -4.19178E+03
 -1.40851E+04 -1.73319E+04 -1.37063E+03 -2.31834E+04  1.08126E+04 -1.85085E+04  1.90864E+04 -9.50382E+03
  1.80424E+04  3.73892E+02  1.27920E+04  4.27371E+03  7.31317E+03  1.13684E+03  9.81678E+03 -1.51248E+03
  1.76336E+04  2.67799E+03  1.94744E+04  1.53417E+04  1.30371E+04  3.03692E+04 -3.37358E+03  3.47065E+04
 -2.00675E+04  2.77008E+04 -3.20298E+04  1.37525E+04 -3.36660E+04 -2.64554E+03 -2.77075E+04 -1.92416E+04
 -1.23303E+04 -2.77564E+04  9.74215E+03 -2.49233E+04  2.13329E+04 -1.30099E+04  1.95781E+04  5.28206E+03
  7.05693E+03  1.44092E+04 -8.89734E+03  1.26680E+04 -1.61955E+04  2.39488E+03 -1.28166E+04 -1.01838E+04
 -2.47627E+02 -1.55167E+04  7.89710E+03 -1.13727E+04  1.04049E+04 -1.47661E+03  2.46541E+03  6.76018E+03
 -6.97536E+03  2.55571E+03 -6.12764E+03 -5.63754E+03 -7.08788E+02 -1.34720E+04  9.34010E+03 -1.42121E+04
  1.69039E+04 -7.56878E+03  1.81958E+04  3.05823E+03  1.58729E+04  1.32999E+04  7.31157E+03  2.04687E+04
 -3.54002E+03  2.23289E+04 -1.43245E+04  1.44319E+04 -1.61164E+04  3.29668E+03 -1.15182E+04 -3.57259E+03
 -5.27664E+03 -4.92480E+03 -9.72320E+02  1.11961E+03 -2.90324E+03  2.79687E+03 -5.39963E+03  4.20485E+03
 -1.06890E+04 -7.88338E+02 -1.14339E+04 -9.17236E+03 -4.62762E+03 -1.52209E+04  4.45294E+03 -1.12393E+04
  9.48208E+03 -4.84516E+03  6.70135E+03  3.14056E+03 -2.41319E+01  4.49493E+03 -5.14673E+03 -1.88135E+02
 -5.15108E+03 -7.24533E+03 -6.66317E+02 -1.06333E+04  5.84694E+03 -1.14255E+04  1.42758E+04 -5.90706E+03
  1.66427E+04  1.54751E+03  1.22620E+04  9.75102E+03  2.10836E+03  1.30603E+04 -7.11107E+03  1.07382E+04
 -9.28745E+03  3.51167E+03 -4.70736E+03 -1.98574E+03  1.81793E+03 -2.86300E+03  6.05653E+03 -1.00481E+03
  5.53346E+03  4.73626E+03  1.04037E+03  9.16784E+03 -6.30162E+03  8.81219E+03 -1.10561E+04  2.01574E+03
 -7.23363E+03 -5.86810E+03  3.71519E+01 -9.49917E+03  5.72149E+03 -4.84044E+03  5.82046E+03  1.94159E+03
  1.19237E+03  6.05830E+03 -5.59318E+03  7.43522E+03 -8.28307E+03  3.36632E+03 -8.16048E+03 -3.10692E+03
 -4.94594E+03 -9.84740E+03  2.59381E+03 -1.13311E+04  9.62276E+03 -7.03759E+03  1.06992E+04  1.70717E+03
  6.79537E+03  8.23326E+03 -4.69971E+02  1.03552E+04 -7.77986E+03  6.23473E+03 -8.32824E+03 -8.32368E+02
 -7.97788E+03 -7.16704E+03 -1.38539E+03 -7.85472E+03  3.96221E+03 -6.47893E+03  4.73341E+03 -3.01991E+03
  3.47235E+03  1.00816E+03 -4.68269E+02  1.65085E+03 -8.94297E+00 -1.74116E+03  1.02367E+03 -4.00065E+03
  6.63301E+03 -2.23154E+03  9.18187E+03  1.56030E+03  9.38284E+03  6.10655E+03  7.33784E+03  1.22801E+04
 -2.70397E+03  1.44990E+04 -1.20488E+04  1.05265E+04 -1.57971E+04  2.16632E+03 -1.27898E+04 -5.35109E+03
 -6.48451E+03 -1.05855E+04 -3.34756E+02 -8.64987E+03  3.05396E+03 -4.80620E+03  2.96087E+03 -3.19289E+03
  2.14284E+03 -2.08326E+03  3.01734E+03 -2.75143E+03  4.22327E+03 -2.12363E+03  5.27475E+03 -5.59116E+02
  6.83222E+03  1.80141E+03  2.90244E+03  5.67996E+03 -2.26003E+03  5.97524E+03 -7.14665E+03  5.01055E+03
 -8.70430E+03 -1.26882E+03 -4.76886E+03 -5.95299E+03 -1.01943E+02 -9.04695E+03  5.16014E+03 -9.18666E+03
  9.17599E+03 -5.38881E+03  1.15830E+04  1.04509E+03  8.05965E+03  7.46905E+03  1.50936E+03  1.02237E+04
 -4.06054E+03  8.76007E+03 -5.87454E+03  2.80821E+03 -3.83714E+03 -1.29626E+03 -1.38909E+03 -1.00791E+03
 -1.21274E+03  2.46479E+02 -1.44744E+03  2.25133E+03 -3.96183E+03  1.51646E+03 -6.20902E+03 -5.84731E+02
 -3.52596E+03 -6.17739E+03  3.05877E+02 -8.18460E+03  4.93413E+03 -7.63551E+03  7.73936E+03 -2.24765E+03
  7.68429E+03  3.97464E+03  3.87632E+03  6.85238E+03 -1.17728E+03  8.39424E+03 -5.28423E+03  5.16919E+03
 -7.33655E+03  4.99350E+02 -5.94204E+03 -4.72913E+03 -7.06872E+02 -6.51249E+03  3.18124E+03 -4.98839E+03
  4.93481E+03 -1.86297E+03  3.43861E+03  1.52758E+03  1.17678E+03  2.76514E+03  7.02922E+02  1.07405E+03
  1.98743E+03  7.87008E+02  1.98843E+03  1.37932E+03  2.26149E+03  3.30314E+03  2.54506E+03  3.91692E+03
 -1.99165E+03  5.76952E+03 -4.95484E+03  6.70857E+03 -7.29801E+03  2.03459E+03 -7.90517E+03 -2.09124E+03
 -3.64047E+03 -7.66461E+03  1.16657E+03 -8.67519E+03  4.43156E+03 -5.53158E+03  6.26779E+03 -1.78063E+03
  4.72588E+03  2.98107E+03  8.44752E+02  4.32796E+03 -2.23538E+03  2.61317E+03 -2.84296E+03 -4.66153E+02
 -1.49728E+03 -3.35596E+03  1.99474E+03 -3.03299E+03  2.84444E+03 -1.64861E+03  2.73355E+03  3.10243E+02
  1.97060E+03  1.07203E+03  1.03435E+03  9.50274E+02 -4.69416E+02  1.41781E+03  1.67071E+03 -3.52266E+02
  9.72489E+02 -5.97619E+02  3.14232E+03  1.29215E+03  1.51547E+03  4.25505E+03 -8.02936E+02  5.23474E+03
 -3.77075E+03  2.90975E+03 -4.42051E+03  7.20720E+02 -4.50663E+03 -1.31938E+03 -1.30364E+03 -2.76395E+03
  7.02066E+02 -2.84975E+03  2.04315E+03 -1.36908E+03  1.51268E+03  1.67680E+03 -1.00319E+03  2.16922E+03
 -2.82236E+03  1.45936E+03 -3.00728E+03 -1.87357E+03 -2.05987E+03 -4.04115E+03  2.35136E+02 -3.80678E+03
  1.93968E+03 -2.20542E+03  2.53746E+03 -2.58977E+02  2.44167E+03  3.42844E+02  7.04742E+02  2.10238E+03
 -1.35528E+03  5.36801E+02 -1.87983E+03 -6.83752E+02  9.42678E+02 -2.73726E+03  3.50332E+03 -2.29684E+03
  3.89547E+03  7.60418E+02  4.71407E+03  2.96978E+03  1.79590E+03  4.05593E+03 -1.20003E+03  3.91752E+03
 -3.33951E+03  1.55324E+03 -3.64265E+03 -3.20978E+02 -2.11959E+03 -2.91708E+03  6.74829E+02 -2.28327E+03
  2.75491E+03 -1.31643E+03  2.03819E+03  1.35310E+03  5.64224E+02  2.34994E+03 -1.63637E+02  2.26058E+03
 -1.12888E+03  1.62794E+03 -1.10002E+03  4.92273E+01 -6.69159E+02  5.35244E+02 -1.04002E+03  9.45408E+02
 -1.48959E+03  2.07750E+03 -2.98019E+03  1.29500E+03 -4.05661E+03 -1.42633E+02 -4.90562E+03 -2.66012E+03
 -2.85992E+03 -5.44581E+03  9.30607E+02 -6.42573E+03  3.55064E+03 -5.29207E+03  6.14936E+03 -2.01051E+03
  5.63503E+03  5.33285E+02  3.31475E+03  3.86010E+03 -8.91074E+01  3.92305E+03 -1.61768E+03  3.19980E+03
 -2.59087E+03  1.43901E+03 -1.36441E+03 -1.25121E+02 -5.78353E+02 -4.01840E+02 -5.66214E+02  7.57669E+01
 -1.28568E+03  3.54871E+02 -1.02815E+03  1.41110E+01  1.33478E+02 -1.31410E+03 -3.83058E+02 -1.50600E+03
  2.25045E+03 -1.22128E+03  1.92263E+03 -4.84615E+01  2.62937E+03  2.11801E+03  2.12845E+02  3.73555E+03
 -1.73091E+03  4.93482E+03 -4.23784E+03  2.81873E+03 -4.91989E+03 -4.66965E+02 -3.55463E+03 -3.15421E+03
 -1.61034E+03 -3.73279E+03  1.05824E+03 -3.39691E+03  2.05756E+03 -2.32793E+03  2.40925E+03  7.54299E+01
  1.40340E+03  1.00686E+03 -1.07515E+02  1.26420E+03 -7.47796E+02 -1.92325E+02  2.21737E+02 -9.30181E+02
  1.22924E+03 -2.03918E+02  1.17769E+03  5.47164E+02  5.41097E+02  1.69301E+03  3.20156E+02  1.78305E+03
 -1.43357E+03  1.55891E+03 -2.54648E+03  1.39502E+01 -2.23574E+03 -1.62113E+03  4.22859E+01 -3.20201E+03
  1.85912E+03 -2.43558E+03  2.33130E+03 -7.62230E+02  2.83393E+03  2.58395E+02  1.66703E+03  2.11181E+03
  7.07004E+02  2.28583E+03 -1.05911E+03  1.71698E+03 -1.99665E+03  1.27117E+03 -1.16195E+03  2.81636E+02
 -8.65676E+02 -5.53763E+01 -8.84153E+02  5.11515E+02 -1.17809E+03  4.30293E+02 -1.82637E+03 -5.90853E+02
 -2.10510E+03 -8.85427E+02 -7.22349E+02 -2.37391E+03  1.20375E+03 -3.09810E+03  1.61956E+03 -9.00170E+02
  2.29977E+03  4.49969E+02  5.39119E+02  1.58075E+03 -1.75114E+02  2.32029E+03 -1.74103E+03  1.52017E+03
