 $NMID ID='MM_0lb_SNR800_13hz_g60_25.RAW', FMTDAT='(8E13.5)'
 TRAMP=1., VOLUME=1. $END
  3.09586E+05  3.08562E+02  3.37960E+05  2.50906E+05  8.50276E+04  3.38716E+05 -1.32578E+05  2.51108E+05
 -1.90658E+05  8.33869E+04 -1.12260E+05 -3.21573E+04  2.81387E+02 -5.05724E+04  5.33693E+04 -4.63085E+02
  3.56972E+04  5.29139E+04 -1.67149E+04  7.55646E+04 -6.08486E+04  6.42279E+04 -8.48621E+04  3.22363E+04
 -8.15586E+04 -1.15767E+04 -5.75198E+04 -5.21572E+04 -1.52909E+04 -7.04342E+04  2.78290E+04 -4.63690E+04
  4.06428E+04  3.45722E+03  1.62661E+04  4.81870E+04 -3.47313E+04  4.78058E+04 -6.76066E+04  7.72759E+01
 -5.44901E+04 -5.74860E+04 -6.81595E+03 -7.82269E+04  3.43218E+04 -5.61829E+04  4.89863E+04 -1.78342E+04
  4.45578E+04  1.16028E+04  3.23445E+04  2.63643E+04  1.57067E+04  2.99689E+04 -5.60731E+03  2.77703E+04
 -2.22669E+04  1.22037E+04 -1.81400E+04 -5.24305E+03  6.78431E+03 -7.79719E+03  2.29711E+04  1.29618E+04
  7.05097E+03  3.67542E+04 -3.32971E+04  3.61513E+04 -6.47714E+04  2.31059E+03 -5.80591E+04 -4.35625E+04
 -1.26314E+04 -6.47476E+04  4.07866E+04 -4.66797E+04  6.00713E+04 -2.44015E+03  3.54977E+04  3.32665E+04
 -5.81476E+03  3.79170E+04 -3.10472E+04  1.71000E+04 -3.18754E+04 -3.91148E+03 -1.80763E+04 -1.15989E+04
 -8.68988E+03 -1.41271E+04 -9.18275E+02 -1.92234E+04  8.02923E+03 -2.31773E+04  1.55776E+04 -1.30483E+04
  1.07037E+04  5.85327E+03 -9.78179E+03  1.31616E+04 -2.24904E+04 -5.68113E+03 -8.21893E+03 -3.56268E+04
  2.36013E+04 -4.56160E+04  5.00142E+04 -2.02715E+04  4.72614E+04  2.01316E+04  1.66012E+04  4.56878E+04
 -1.64669E+04  3.47594E+04 -2.61631E+04  2.01913E+03 -1.07581E+04 -2.87622E+04  2.13547E+04 -3.54540E+04
  4.29432E+04 -1.01877E+04  3.81503E+04  2.40755E+04  1.97743E+04  4.87613E+04 -8.00874E+03  5.32661E+04
 -3.34449E+04  3.61795E+04 -4.45431E+04  1.04945E+04 -4.50731E+04 -1.76581E+04 -2.49847E+04 -3.99780E+04
  7.66094E+03 -3.97739E+04  3.27150E+04 -1.59013E+04  3.04725E+04  1.09075E+04  4.84766E+03  1.99667E+04
 -1.36363E+04  8.89900E+03 -1.06492E+04 -7.49990E+03  5.85228E+03 -1.09186E+04  1.83224E+04  5.75801E+03
  1.39816E+04  2.26038E+04 -5.24812E+03  2.60448E+04 -2.27908E+04  1.27354E+04 -2.96572E+04 -3.66118E+03
 -2.31011E+04 -1.76887E+04 -9.65588E+03 -2.27577E+04  4.04102E+03 -2.24020E+04  1.76020E+04 -2.07808E+04
  2.90314E+04 -1.37954E+04  3.48611E+04  3.89787E+03  2.53641E+04  2.22673E+04  4.34077E+03  3.87516E+04
 -1.89345E+04  3.22227E+04 -2.95050E+04  1.10177E+04 -2.15653E+04 -1.01904E+04 -4.51143E+03 -1.30708E+04
  1.30186E+03 -2.43480E+03 -6.34404E+03  7.30687E+03 -1.81017E+04  5.07176E+03 -1.82775E+04 -8.00671E+03
 -1.06520E+04 -2.07283E+04  5.39193E+03 -2.50378E+04  1.69237E+04 -1.80106E+04  2.07848E+04 -1.84900E+03
  1.27548E+04  1.41356E+04 -1.27240E+03  2.07983E+04 -1.46878E+04  1.17216E+04 -2.12173E+04 -4.28021E+03
 -1.54533E+04 -1.90496E+04 -1.33111E+03 -2.52962E+04  1.12842E+04 -2.07262E+04  2.09674E+04 -1.03327E+04
  1.97590E+04  1.19775E+02  1.37788E+04  4.90410E+03  7.88580E+03  8.61232E+02  1.08338E+04 -1.67318E+03
  1.93659E+04  2.58392E+03  2.18378E+04  1.66384E+04  1.47257E+04  3.34327E+04 -2.87690E+03  3.84408E+04
 -2.23719E+04  3.17072E+04 -3.62434E+04  1.59324E+04 -3.81885E+04 -2.52286E+03 -3.12960E+04 -2.21736E+04
 -1.30864E+04 -3.14791E+04  1.11877E+04 -2.78512E+04  2.41430E+04 -1.38300E+04  2.11856E+04  6.33925E+03
  7.64420E+03  1.59162E+04 -9.92974E+03  1.39675E+04 -1.81833E+04  2.51446E+03 -1.37090E+04 -1.14286E+04
 -1.83304E+02 -1.67197E+04  9.29106E+03 -1.27002E+04  1.12305E+04 -1.23996E+03  2.62988E+03  7.59689E+03
 -7.78552E+03  3.49999E+03 -6.89065E+03 -6.15596E+03 -9.23006E+02 -1.52618E+04  1.09146E+04 -1.66292E+04
  1.92355E+04 -8.87850E+03  2.12349E+04  2.78835E+03  1.85707E+04  1.52153E+04  8.89014E+03  2.36577E+04
 -4.02678E+03  2.58948E+04 -1.67873E+04  1.61493E+04 -1.87424E+04  3.35967E+03 -1.31879E+04 -4.45980E+03
 -5.80114E+03 -5.98102E+03 -5.58730E+02  7.72065E+02 -2.71005E+03  3.23919E+03 -6.07036E+03  4.70263E+03
 -1.13813E+04 -6.60553E+02 -1.27405E+04 -9.84215E+03 -5.23576E+03 -1.64968E+04  5.37059E+03 -1.30354E+04
  1.07152E+04 -5.69931E+03  7.76163E+03  3.39343E+03  1.09941E+02  5.15082E+03 -6.12241E+03 -8.58080E+01
 -6.02086E+03 -8.57872E+03 -8.62596E+02 -1.24493E+04  7.03983E+03 -1.33889E+04  1.60621E+04 -6.89642E+03
  1.93160E+04  2.10647E+03  1.41908E+04  1.13632E+04  2.64918E+03  1.52581E+04 -8.35392E+03  1.29727E+04
 -1.07038E+04  3.80260E+03 -5.38790E+03 -2.46813E+03  1.37356E+03 -3.65007E+03  6.92530E+03 -1.24955E+03
  6.24026E+03  5.63194E+03  9.94292E+02  1.02572E+04 -7.37386E+03  9.58370E+03 -1.25635E+04  2.47351E+03
 -8.44609E+03 -6.44488E+03  3.48171E+02 -1.08012E+04  6.50406E+03 -5.90280E+03  7.08491E+03  2.20920E+03
  1.57294E+03  7.44304E+03 -6.74772E+03  8.94792E+03 -1.00646E+04  3.92368E+03 -1.00712E+04 -3.31315E+03
 -5.95799E+03 -1.17441E+04  2.99993E+03 -1.35441E+04  1.17257E+04 -8.40053E+03  1.26130E+04  2.33918E+03
  7.93748E+03  9.94982E+03 -1.13375E+03  1.23172E+04 -8.86040E+03  7.04351E+03 -9.80179E+03 -7.06969E+02
 -9.07539E+03 -8.17203E+03 -1.30042E+03 -9.04882E+03  4.89064E+03 -7.57286E+03  5.99358E+03 -3.35231E+03
  4.10399E+03  1.17557E+03 -9.19032E+02  1.65932E+03 -3.88060E+02 -2.11528E+03  1.62116E+03 -5.37626E+03
  8.34093E+03 -3.19272E+03  1.17143E+04  1.26949E+03  1.13369E+04  7.43825E+03  8.12858E+03  1.51394E+04
 -3.56017E+03  1.73111E+04 -1.46341E+04  1.27701E+04 -1.90915E+04  2.63635E+03 -1.52451E+04 -6.67885E+03
 -7.26227E+03 -1.22704E+04 -6.57038E+01 -1.06117E+04  3.78684E+03 -5.54714E+03  3.39236E+03 -3.58002E+03
  2.91577E+03 -2.14650E+03  3.16863E+03 -3.16644E+03  4.77784E+03 -2.79622E+03  5.97279E+03 -8.09294E+02
  8.06869E+03  2.04483E+03  3.84597E+03  6.57420E+03 -2.13700E+03  7.33439E+03 -8.50198E+03  5.82517E+03
 -1.04498E+04 -1.24889E+03 -6.05982E+03 -7.02115E+03 -3.24309E+02 -1.10197E+04  6.16074E+03 -1.11519E+04
  1.12694E+04 -6.47290E+03  1.36465E+04  1.24734E+03  9.42860E+03  9.62921E+03  1.58162E+03  1.24918E+04
 -5.25933E+03  1.06968E+04 -7.54458E+03  3.81339E+03 -4.92686E+03 -1.63357E+03 -2.07686E+03 -1.42276E+03
 -8.33851E+02  7.22476E+01 -1.68765E+03  2.38071E+03 -4.51570E+03  1.87624E+03 -7.36651E+03 -8.87977E+02
 -4.95739E+03 -7.36725E+03  2.19407E+02 -1.02461E+04  6.02362E+03 -9.26756E+03  9.63522E+03 -2.80970E+03
  9.96364E+03  4.73299E+03  4.46257E+03  8.64872E+03 -2.01415E+03  9.73701E+03 -6.99075E+03  5.92904E+03
 -9.03041E+03  3.58338E+02 -7.47570E+03 -5.52939E+03 -7.83611E+02 -8.19390E+03  3.98285E+03 -5.92130E+03
  6.11733E+03 -2.27650E+03  4.38249E+03  1.65084E+03  9.93534E+02  3.03507E+03  7.83251E+02  1.50639E+03
  2.49642E+03  9.25880E+02  2.47313E+03  1.43094E+03  2.73284E+03  4.25459E+03  2.81795E+03  4.74453E+03
 -2.23218E+03  7.59804E+03 -6.72081E+03  8.09133E+03 -9.24803E+03  2.13287E+03 -1.02168E+04 -3.52229E+03
 -4.76530E+03 -9.34679E+03  1.65514E+03 -1.05782E+04  5.48074E+03 -6.54942E+03  7.77454E+03 -1.83001E+03
  6.16774E+03  3.82050E+03  1.22314E+03  5.44803E+03 -2.65367E+03  3.35822E+03 -3.44016E+03 -5.36803E+02
 -1.74568E+03 -4.14254E+03  2.70091E+03 -4.19316E+03  3.73418E+03 -2.18989E+03  3.75983E+03  8.62779E+02
  1.96909E+03  1.57826E+03  1.06894E+03  1.08171E+03 -5.84882E+02  1.33082E+03  1.49091E+03 -4.45917E+02
  1.29344E+03 -9.27522E+02  3.96556E+03  1.40302E+03  2.04104E+03  5.34752E+03 -8.59804E+02  6.66026E+03
 -4.17352E+03  4.05504E+03 -5.72577E+03  1.15399E+03 -5.25652E+03 -1.85745E+03 -1.82127E+03 -3.59344E+03
  6.74232E+02 -3.56120E+03  2.30839E+03 -1.46621E+03  1.99260E+03  1.84852E+03 -8.87941E+02  3.16998E+03
 -3.70842E+03  1.66402E+03 -3.73451E+03 -1.96603E+03 -2.48299E+03 -4.63085E+03  8.40925E+02 -4.65840E+03
  2.74828E+03 -2.42113E+03  3.41121E+03 -6.78759E+01  2.91962E+03  1.20766E+03  4.81170E+02  2.59883E+03
 -1.36880E+03  7.67678E+02 -2.25846E+03 -1.60673E+03  1.14829E+03 -3.59303E+03  4.31802E+03 -2.45611E+03
  5.11732E+03  1.57196E+02  5.78670E+03  3.40884E+03  1.84785E+03  5.54854E+03 -1.72869E+03  5.17145E+03
 -4.88039E+03  1.90494E+03 -4.97243E+03 -7.12641E+02 -2.46473E+03 -3.23134E+03  7.43945E+02 -2.96672E+03
  3.42387E+03 -1.49495E+03  2.70012E+03  1.57080E+03  9.54715E+02  3.30266E+03  7.34036E+01  2.66044E+03
 -1.34865E+03  2.29223E+03 -1.19936E+03  5.32332E+02 -6.36533E+02  6.01080E+02 -1.44088E+03  1.32313E+03
 -1.52859E+03  2.36458E+03 -3.81338E+03  1.95056E+03 -5.25299E+03  8.60414E+01 -6.40191E+03 -3.39738E+03
 -3.26981E+03 -7.22973E+03  1.41370E+03 -8.23278E+03  4.61591E+03 -6.56356E+03  8.02595E+03 -2.89059E+03
  7.05432E+03  9.59280E+02  4.56508E+03  4.62201E+03  2.33297E+01  4.89101E+03 -2.11982E+03  3.73685E+03
 -2.82263E+03  1.76228E+03 -1.98095E+03 -6.13063E+02 -8.08820E+02  5.62182E+01 -3.19398E+02 -2.77385E+01
 -1.40375E+03 -8.98431E+01 -1.51383E+03 -1.97448E+02 -3.55843E+02 -1.54009E+03 -2.30198E+02 -1.92694E+03
  2.51998E+03 -1.63929E+03  3.24365E+03  3.76366E+02  3.72830E+03  2.68371E+03  6.33524E+02  5.26122E+03
 -2.54620E+03  6.10459E+03 -5.35984E+03  3.41514E+03 -6.03830E+03 -5.28200E+02 -4.56225E+03 -4.07563E+03
 -1.86885E+03 -5.38199E+03  1.12923E+03 -4.81600E+03  3.20298E+03 -2.53040E+03  3.31877E+03  2.58559E+02
  1.94798E+03  1.51585E+03 -1.88589E+02  1.25534E+03 -1.14458E+03 -5.75972E+01  9.33877E+01 -9.11376E+02
  1.85437E+03 -2.33595E+02  2.01801E+03  9.88416E+02  8.75746E+02  1.83878E+03  3.06281E+02  2.39214E+03
 -1.64774E+03  2.53284E+03 -2.87015E+03  3.32530E+02 -3.00428E+03 -1.85242E+03 -6.94595E+02 -3.93811E+03
  2.16069E+03 -3.24429E+03  3.47836E+03 -1.10691E+03  3.57029E+03  9.52955E+01  2.44216E+03  2.97771E+03
  6.47920E+02  3.01192E+03 -1.43135E+03  2.58667E+03 -1.82352E+03  1.81799E+03 -1.68513E+03  2.80891E+02
 -8.35788E+02 -4.55781E+02 -1.14546E+03  2.82014E+02 -1.79593E+03  7.04038E+02 -2.47330E+03 -2.37687E+02
 -2.74442E+03 -1.06995E+03 -6.61518E+02 -3.32817E+03  1.78229E+03 -3.93027E+03  2.54102E+03 -1.40950E+03
  2.34108E+03  5.85678E+02  8.93309E+02  1.83056E+03 -1.21382E+02  3.02383E+03 -2.03899E+03  2.16294E+03
