 $NMID ID='MM_0lb_SNR800_15hz_g55_4.RAW', FMTDAT='(8E13.5)'
 TRAMP=1., VOLUME=1. $END
  3.10104E+05  3.39379E+02  3.37552E+05  2.50376E+05  8.46912E+04  3.37713E+05 -1.32535E+05  2.51106E+05
 -1.90072E+05  8.31301E+04 -1.11638E+05 -3.24781E+04  8.93223E+02 -5.05765E+04  5.40131E+04  1.95466E+02
  3.53771E+04  5.28310E+04 -1.68299E+04  7.56979E+04 -6.05595E+04  6.35733E+04 -8.42574E+04  3.19895E+04
 -8.12367E+04 -1.08571E+04 -5.75696E+04 -5.10739E+04 -1.52853E+04 -6.94255E+04  2.77320E+04 -4.57772E+04
  4.01081E+04  3.64193E+03  1.58228E+04  4.80830E+04 -3.38274E+04  4.75035E+04 -6.67085E+04  3.19932E+01
 -5.35168E+04 -5.70395E+04 -6.77566E+03 -7.71068E+04  3.39241E+04 -5.51797E+04  4.79824E+04 -1.73951E+04
  4.35041E+04  1.13693E+04  3.18023E+04  2.56232E+04  1.61376E+04  2.97197E+04 -5.29091E+03  2.71972E+04
 -2.19270E+04  1.24717E+04 -1.87670E+04 -5.12108E+03  5.80951E+03 -7.33651E+03  2.23360E+04  1.24796E+04
  7.23973E+03  3.56503E+04 -3.23448E+04  3.52927E+04 -6.34578E+04  2.10297E+03 -5.71550E+04 -4.26614E+04
 -1.22469E+04 -6.32429E+04  3.96773E+04 -4.51953E+04  5.80137E+04 -2.36230E+03  3.43550E+04  3.26114E+04
 -6.04124E+03  3.61556E+04 -3.02404E+04  1.60074E+04 -3.04411E+04 -4.52768E+03 -1.67852E+04 -1.08749E+04
 -8.43084E+03 -1.33906E+04 -9.79850E+02 -1.81644E+04  7.64606E+03 -2.28714E+04  1.51178E+04 -1.36410E+04
  1.10751E+04  5.30358E+03 -8.66871E+03  1.29413E+04 -2.15667E+04 -4.53619E+03 -8.30853E+03 -3.40552E+04
  2.27710E+04 -4.34517E+04  4.80310E+04 -1.94390E+04  4.53539E+04  1.94553E+04  1.54816E+04  4.41766E+04
 -1.59218E+04  3.34094E+04 -2.50650E+04  1.61226E+03 -9.92429E+03 -2.76737E+04  2.12825E+04 -3.38745E+04
  4.07563E+04 -9.13150E+03  3.55529E+04  2.41191E+04  1.81688E+04  4.61735E+04 -7.61359E+03  5.01989E+04
 -3.13328E+04  3.36920E+04 -4.20203E+04  9.84505E+03 -4.25744E+04 -1.66123E+04 -2.34575E+04 -3.79528E+04
  7.42136E+03 -3.78953E+04  3.15055E+04 -1.46073E+04  2.94920E+04  1.09861E+04  4.01430E+03  1.92511E+04
 -1.34226E+04  8.22754E+03 -1.01667E+04 -7.58921E+03  5.71492E+03 -1.09085E+04  1.79098E+04  6.04407E+03
  1.37148E+04  2.20331E+04 -5.77717E+03  2.49044E+04 -2.25687E+04  1.11132E+04 -2.79232E+04 -4.79796E+03
 -2.03931E+04 -1.72896E+04 -8.35946E+03 -2.01950E+04  3.86843E+03 -1.96180E+04  1.56052E+04 -1.80662E+04
  2.61395E+04 -1.27504E+04  3.22353E+04  2.67994E+03  2.38260E+04  1.99065E+04  4.38343E+03  3.64469E+04
 -1.77333E+04  3.01136E+04 -2.79159E+04  1.02504E+04 -2.09779E+04 -1.02492E+04 -3.97181E+03 -1.36080E+04
  1.68973E+03 -2.93101E+03 -4.72709E+03  6.59659E+03 -1.59037E+04  4.95179E+03 -1.61406E+04 -6.94754E+03
 -9.71386E+03 -1.87079E+04  5.10708E+03 -2.30302E+04  1.51896E+04 -1.65653E+04  1.80379E+04 -1.57444E+03
  1.13143E+04  1.29961E+04 -1.18375E+03  1.86976E+04 -1.28021E+04  1.05905E+04 -1.92491E+04 -3.86389E+03
 -1.38523E+04 -1.68981E+04 -1.79283E+03 -2.28593E+04  1.01900E+04 -1.87249E+04  1.92083E+04 -9.19157E+03
  1.75002E+04  2.02978E+02  1.30661E+04  4.20346E+03  6.83128E+03  8.09717E+02  9.46585E+03 -1.42572E+03
  1.73638E+04  2.60357E+03  1.90363E+04  1.50994E+04  1.23682E+04  3.00863E+04 -2.68835E+03  3.38431E+04
 -1.94788E+04  2.69597E+04 -3.13823E+04  1.37075E+04 -3.28162E+04 -2.46621E+03 -2.73939E+04 -1.89845E+04
 -1.15868E+04 -2.73064E+04  9.23087E+03 -2.46457E+04  2.11811E+04 -1.26541E+04  1.87655E+04  5.57668E+03
  7.09225E+03  1.42387E+04 -8.94067E+03  1.26812E+04 -1.62555E+04  2.63459E+03 -1.24333E+04 -9.89096E+03
 -1.38181E+02 -1.53747E+04  7.77564E+03 -1.12714E+04  9.93165E+03 -1.12529E+03  2.21418E+03  6.38829E+03
 -6.85184E+03  2.41850E+03 -5.81319E+03 -5.34132E+03 -7.11227E+02 -1.31520E+04  9.55822E+03 -1.38878E+04
  1.65968E+04 -7.12874E+03  1.73883E+04  2.90165E+03  1.51835E+04  1.29510E+04  7.02863E+03  1.99102E+04
 -3.06121E+03  2.16171E+04 -1.38537E+04  1.33648E+04 -1.52814E+04  3.43068E+03 -1.10849E+04 -3.33785E+03
 -5.23253E+03 -4.95399E+03 -6.21211E+02  9.15236E+02 -2.44254E+03  2.40563E+03 -4.95979E+03  4.39441E+03
 -1.04037E+04 -4.83591E+02 -1.08218E+04 -8.96198E+03 -4.45680E+03 -1.45185E+04  4.74523E+03 -1.10705E+04
  9.30956E+03 -4.71993E+03  6.31904E+03  2.95656E+03  2.46013E+02  4.17337E+03 -5.14730E+03 -1.26233E+02
 -5.19949E+03 -7.07424E+03 -9.29592E+02 -1.00394E+04  5.83612E+03 -1.13440E+04  1.38664E+04 -5.84607E+03
  1.57746E+04  1.40032E+03  1.14712E+04  9.33504E+03  2.65896E+03  1.23206E+04 -6.84482E+03  1.09891E+04
 -8.76278E+03  3.36236E+03 -4.55877E+03 -1.77435E+03  1.75516E+03 -2.36350E+03  6.19324E+03 -8.31622E+02
  5.42597E+03  4.49792E+03  1.43838E+03  8.61350E+03 -6.26077E+03  8.33585E+03 -1.05498E+04  2.35069E+03
 -6.75671E+03 -5.57692E+03  1.00216E+02 -9.05067E+03  5.42912E+03 -4.48151E+03  5.67976E+03  1.85517E+03
  1.00806E+03  5.90665E+03 -5.49247E+03  7.24687E+03 -7.87384E+03  3.23881E+03 -7.72601E+03 -2.29252E+03
 -4.69653E+03 -9.28228E+03  1.79598E+03 -1.09479E+04  9.16607E+03 -6.58150E+03  9.97523E+03  1.26523E+03
  6.56997E+03  8.41270E+03 -2.47498E+02  1.01414E+04 -7.30735E+03  5.79159E+03 -7.61456E+03 -5.15301E+02
 -7.33746E+03 -6.98171E+03 -1.59189E+03 -7.61934E+03  3.52402E+03 -6.45676E+03  4.68849E+03 -3.43229E+03
  3.44315E+03  9.00914E+02 -4.00680E+02  1.64261E+03  7.65800E+01 -1.05392E+03  9.87273E+02 -3.80791E+03
  6.00953E+03 -1.98877E+03  8.63003E+03  9.68946E+02  8.57294E+03  5.55625E+03  6.75757E+03  1.17912E+04
 -2.34971E+03  1.31642E+04 -1.14713E+04  1.01264E+04 -1.46216E+04  1.87722E+03 -1.16322E+04 -4.17748E+03
 -6.06156E+03 -9.52402E+03 -2.03800E+02 -8.31630E+03  2.98497E+03 -3.99679E+03  3.03222E+03 -3.27651E+03
  2.02036E+03 -1.59396E+03  2.66377E+03 -2.81327E+03  4.07744E+03 -2.01718E+03  5.00896E+03 -4.80345E+01
  6.21182E+03  1.49073E+03  2.64847E+03  5.10017E+03 -1.89841E+03  5.28096E+03 -6.21732E+03  4.44106E+03
 -7.73968E+03 -1.21397E+03 -4.35759E+03 -5.56886E+03 -2.81651E+02 -8.43400E+03  4.83529E+03 -8.62158E+03
  8.50834E+03 -4.92780E+03  1.06873E+04  1.22762E+03  7.53961E+03  7.22884E+03  1.36695E+03  9.64741E+03
 -3.75884E+03  8.59867E+03 -5.31833E+03  2.63687E+03 -3.48154E+03 -1.33418E+03 -9.96070E+02 -9.91475E+02
 -1.13677E+03  1.75187E+02 -1.34344E+03  2.24674E+03 -3.48435E+03  1.32408E+03 -5.80377E+03 -6.61977E+02
 -3.20707E+03 -5.70382E+03  3.68728E+02 -7.61595E+03  4.66306E+03 -7.06569E+03  6.52680E+03 -1.70192E+03
  6.96189E+03  3.68558E+03  3.41279E+03  6.12207E+03 -1.20046E+03  7.33328E+03 -4.94420E+03  4.52938E+03
 -6.97888E+03  5.61386E+02 -5.29799E+03 -4.27434E+03 -6.69985E+02 -5.58698E+03  2.73987E+03 -4.32770E+03
  4.54334E+03 -1.84471E+03  2.96710E+03  9.19646E+02  1.00194E+03  2.39398E+03  1.03650E+03  8.39874E+02
  2.36749E+03  5.30855E+02  1.65287E+03  1.04479E+03  1.67467E+03  3.21170E+03  2.03354E+03  3.71978E+03
 -1.68651E+03  5.25240E+03 -5.07711E+03  5.93373E+03 -6.20852E+03  1.82104E+03 -7.34849E+03 -1.61659E+03
 -3.10932E+03 -6.82568E+03  1.09044E+03 -7.75045E+03  3.67489E+03 -4.63947E+03  5.59189E+03 -1.39393E+03
  4.19471E+03  2.21660E+03  1.10684E+03  3.87929E+03 -1.89982E+03  2.06206E+03 -2.55354E+03 -9.47098E+01
 -1.52497E+03 -2.93878E+03  1.94742E+03 -2.87503E+03  2.76392E+03 -1.92358E+03  2.50067E+03  5.15095E+02
  1.43697E+03  1.07726E+03  9.77658E+02  6.31702E+02 -2.10114E+02  9.67893E+02  1.70504E+03 -3.88284E+02
  5.83652E+02 -6.37817E+02  2.90135E+03  1.14493E+03  8.71444E+02  3.89739E+03 -3.27237E+02  4.89875E+03
 -3.13773E+03  2.47577E+03 -3.85252E+03  9.09591E+02 -3.79927E+03 -1.36049E+03 -7.89196E+02 -2.21334E+03
  2.98708E+02 -2.45935E+03  1.66174E+03 -8.97048E+02  1.29273E+03  1.62504E+03 -9.23178E+02  1.91032E+03
 -2.60414E+03  1.43262E+03 -2.76794E+03 -2.07974E+03 -1.74481E+03 -3.67557E+03  1.66211E+02 -3.14735E+03
  1.86169E+03 -1.76634E+03  1.75926E+03  2.90942E+02  2.31541E+03  6.94390E+02  3.43468E+02  2.04024E+03
 -7.70460E+02  3.22213E+02 -1.34109E+03 -9.74693E+02  7.56297E+02 -2.16482E+03  2.84785E+03 -2.13521E+03
  3.22613E+03  1.03526E+02  4.39186E+03  2.03919E+03  1.38490E+03  3.32269E+03 -1.32816E+03  3.89395E+03
 -2.71681E+03  1.15575E+03 -2.82447E+03 -1.35893E+02 -1.73518E+03 -2.31471E+03  3.51603E+02 -1.56818E+03
  2.35812E+03 -1.23232E+03  1.71528E+03  1.23518E+03  5.91417E+02  2.31218E+03 -7.98526E+01  1.95326E+03
 -8.38344E+02  1.29477E+03 -9.46489E+02  4.46772E+02 -5.15210E+02  5.71917E+02 -9.09804E+02  9.32837E+02
 -9.60676E+02  1.64064E+03 -2.88707E+03  1.05414E+03 -3.60078E+03  1.90890E+02 -4.01009E+03 -2.27529E+03
 -2.19124E+03 -4.70449E+03  9.18352E+02 -5.61126E+03  2.75073E+03 -4.13660E+03  5.01971E+03 -1.94655E+03
  4.62858E+03  6.35349E+02  2.79282E+03  3.00019E+03 -3.13220E+02  3.40564E+03 -1.19463E+03  2.76745E+03
 -1.89747E+03  1.39676E+03 -1.43446E+03 -3.17752E+02 -6.05326E+02  3.23100E+01 -5.29113E+02  1.27654E+02
 -1.30157E+03  1.15282E+02 -1.07642E+03  1.04016E+01  1.98383E+02 -1.00344E+03 -2.67188E+02 -1.45916E+03
  1.53994E+03 -1.01855E+03  1.77349E+03 -6.75284E+00  2.24066E+03  1.96638E+03  5.64569E+01  3.24816E+03
 -1.91961E+03  4.13240E+03 -3.22183E+03  2.41829E+03 -4.05290E+03 -1.15192E+02 -2.82091E+03 -2.30759E+03
 -1.41791E+03 -2.89012E+03  1.05180E+03 -2.99728E+03  2.17612E+03 -1.55016E+03  1.86592E+03  1.32629E+02
  1.30354E+03  6.97029E+02 -3.71236E+02  6.79920E+02 -6.91059E+02 -3.21753E+02 -6.28093E+01 -6.69967E+02
  1.02548E+03 -1.54351E+02  1.02470E+03  5.33916E+02  5.42931E+02  1.12022E+03  7.06956E+02  1.46110E+03
 -1.36969E+03  1.57910E+03 -2.01856E+03  2.66245E+02 -1.78032E+03 -1.42753E+03 -1.45542E+02 -2.74358E+03
  1.22595E+03 -1.54083E+03  1.83886E+03 -3.06281E+02  2.18879E+03 -6.13038E+01  1.50055E+03  2.07842E+03
  4.32865E+02  1.74795E+03 -5.77771E+02  1.41012E+03 -1.45325E+03  9.06930E+02 -1.00137E+03  4.49176E+01
 -5.30232E+02 -2.22157E+02 -8.22039E+02  2.51770E+02 -8.48143E+02  1.28609E+01 -1.62877E+03 -2.46173E+02
 -1.67927E+03 -5.70818E+02 -7.38224E+02 -1.75989E+03  1.32489E+03 -2.74279E+03  1.96550E+03 -9.60015E+02
  1.91423E+03 -1.23573E+02  7.27029E+02  1.08465E+03 -8.49552E+01  1.82132E+03 -9.22284E+02  1.22014E+03
