 $NMID ID='MM_0lb_SNR800_11hz_g55_77.RAW', FMTDAT='(8E13.5)'
 TRAMP=1., VOLUME=1. $END
  3.09584E+05  6.58948E+02  3.38013E+05  2.51013E+05  8.50199E+04  3.38132E+05 -1.32673E+05  2.52040E+05
 -1.90757E+05  8.37145E+04 -1.12594E+05 -3.23195E+04  6.14347E+02 -5.02927E+04  5.36242E+04 -3.59473E+02
  3.55190E+04  5.27516E+04 -1.63870E+04  7.55910E+04 -6.13771E+04  6.45282E+04 -8.53418E+04  3.23919E+04
 -8.18850E+04 -1.18255E+04 -5.82578E+04 -5.19350E+04 -1.49660E+04 -7.06582E+04  2.81241E+04 -4.68600E+04
  4.08033E+04  3.60136E+03  1.63203E+04  4.80143E+04 -3.47351E+04  4.81086E+04 -6.72755E+04  8.16879E+01
 -5.42853E+04 -5.77057E+04 -6.90202E+03 -7.80999E+04  3.44508E+04 -5.63827E+04  4.93786E+04 -1.79813E+04
  4.50646E+04  1.15194E+04  3.24980E+04  2.61471E+04  1.57889E+04  3.03163E+04 -5.63680E+03  2.75819E+04
 -2.23936E+04  1.19819E+04 -1.83828E+04 -5.62290E+03  6.53096E+03 -7.14366E+03  2.31114E+04  1.33864E+04
  7.23177E+03  3.68535E+04 -3.33384E+04  3.66765E+04 -6.50285E+04  2.25153E+03 -5.84395E+04 -4.41016E+04
 -1.25624E+04 -6.48677E+04  4.11262E+04 -4.67427E+04  6.03949E+04 -2.45140E+03  3.58397E+04  3.38904E+04
 -5.48637E+03  3.85608E+04 -3.12271E+04  1.78716E+04 -3.23931E+04 -4.06694E+03 -1.86185E+04 -1.19972E+04
 -9.31269E+03 -1.49232E+04 -8.27538E+02 -1.96854E+04  8.34992E+03 -2.35327E+04  1.55931E+04 -1.24638E+04
  1.05318E+04  6.02400E+03 -9.89815E+03  1.28205E+04 -2.27841E+04 -5.90943E+03 -8.51170E+03 -3.63732E+04
  2.45380E+04 -4.58052E+04  5.07584E+04 -2.06852E+04  4.72264E+04  2.02849E+04  1.67942E+04  4.60969E+04
 -1.63083E+04  3.55269E+04 -2.71341E+04  2.50452E+03 -1.11293E+04 -2.88783E+04  2.13089E+04 -3.62230E+04
  4.34715E+04 -1.06842E+04  3.88048E+04  2.50843E+04  2.06574E+04  4.97596E+04 -8.45082E+03  5.46270E+04
 -3.42960E+04  3.69729E+04 -4.60615E+04  1.07501E+04 -4.64221E+04 -1.79662E+04 -2.49626E+04 -4.13237E+04
  7.51655E+03 -4.09726E+04  3.37784E+04 -1.61859E+04  3.09348E+04  1.11346E+04  4.76085E+03  2.06662E+04
 -1.38444E+04  9.05480E+03 -1.10761E+04 -7.69690E+03  5.62326E+03 -1.11852E+04  1.85326E+04  5.55268E+03
  1.44282E+04  2.24232E+04 -5.46682E+03  2.66133E+04 -2.31430E+04  1.35286E+04 -3.06404E+04 -3.61826E+03
 -2.39979E+04 -1.82642E+04 -1.06032E+04 -2.35421E+04  4.37904E+03 -2.41729E+04  1.87398E+04 -2.14156E+04
  3.01906E+04 -1.40837E+04  3.64054E+04  4.44709E+03  2.60647E+04  2.33351E+04  4.61003E+03  3.99459E+04
 -1.88685E+04  3.28080E+04 -2.98602E+04  1.15597E+04 -2.19253E+04 -1.03658E+04 -4.43140E+03 -1.31520E+04
  8.59068E+02 -1.57089E+03 -6.48808E+03  7.77645E+03 -1.87742E+04  5.38747E+03 -1.87737E+04 -8.72526E+03
 -1.16573E+04 -2.19494E+04  5.68110E+03 -2.63383E+04  1.77502E+04 -1.89464E+04  2.15356E+04 -1.91856E+03
  1.36554E+04  1.54596E+04 -1.25927E+03  2.22366E+04 -1.52965E+04  1.29880E+04 -2.23932E+04 -4.61223E+03
 -1.61039E+04 -1.96750E+04 -1.99940E+03 -2.64332E+04  1.20705E+04 -2.18316E+04  2.19800E+04 -1.13594E+04
  2.04436E+04 -8.98249E+01  1.50924E+04  4.90427E+03  8.37212E+03  1.57922E+03  1.12569E+04 -2.44208E+03
  2.08189E+04  2.90040E+03  2.34637E+04  1.70880E+04  1.60810E+04  3.55638E+04 -2.42331E+03  4.10524E+04
 -2.34359E+04  3.43231E+04 -3.86433E+04  1.76253E+04 -4.10858E+04 -2.98492E+03 -3.37141E+04 -2.38548E+04
 -1.39476E+04 -3.40080E+04  1.20819E+04 -3.04802E+04  2.58981E+04 -1.48335E+04  2.26643E+04  7.21249E+03
  7.86066E+03  1.71680E+04 -1.10162E+04  1.44914E+04 -1.84545E+04  2.85670E+03 -1.45580E+04 -1.19308E+04
 -3.23980E+02 -1.83402E+04  9.27756E+03 -1.33938E+04  1.22893E+04 -1.57363E+03  3.01525E+03  8.14319E+03
 -7.97954E+03  3.71908E+03 -7.93749E+03 -6.83184E+03 -1.36152E+03 -1.65467E+04  1.10781E+04 -1.77630E+04
  2.07809E+04 -9.82694E+03  2.33721E+04  3.33206E+03  2.05423E+04  1.68121E+04  9.53917E+03  2.64265E+04
 -5.02039E+03  2.84997E+04 -1.84544E+04  1.76611E+04 -2.02414E+04  3.43276E+03 -1.41858E+04 -5.38326E+03
 -5.86841E+03 -6.54985E+03 -8.40233E+02  9.69304E+02 -2.77961E+03  3.46118E+03 -6.69738E+03  5.00332E+03
 -1.32164E+04 -8.38923E+02 -1.35852E+04 -1.11902E+04 -5.41483E+03 -1.77708E+04  5.56139E+03 -1.42451E+04
  1.14379E+04 -6.03556E+03  8.24051E+03  4.00800E+03 -3.20350E+02  5.49566E+03 -7.27558E+03 -5.80774E+02
 -6.65427E+03 -9.09284E+03 -9.57514E+02 -1.39996E+04  8.21185E+03 -1.49293E+04  1.83374E+04 -7.94596E+03
  2.11839E+04  2.16216E+03  1.52194E+04  1.25433E+04  2.64739E+03  1.66300E+04 -9.21420E+03  1.38596E+04
 -1.11419E+04  4.19091E+03 -5.74764E+03 -3.12666E+03  2.17712E+03 -3.69244E+03  8.05471E+03 -7.66733E+02
  7.07170E+03  6.28387E+03  1.18598E+03  1.13158E+04 -8.35086E+03  1.10351E+04 -1.38089E+04  2.69602E+03
 -9.44373E+03 -7.38769E+03  2.53577E+02 -1.21846E+04  7.61789E+03 -5.94103E+03  8.18293E+03  2.65042E+03
  1.88656E+03  8.73962E+03 -8.12630E+03  1.02005E+04 -1.19579E+04  4.53076E+03 -1.17655E+04 -3.94923E+03
 -6.87909E+03 -1.37318E+04  3.31430E+03 -1.57749E+04  1.32960E+04 -9.24820E+03  1.52189E+04  2.66670E+03
  9.05662E+03  1.15620E+04 -7.90368E+02  1.37345E+04 -1.01131E+04  7.47161E+03 -1.12974E+04 -1.08804E+03
 -9.87261E+03 -9.43352E+03 -1.59210E+03 -1.06808E+04  5.66713E+03 -8.65608E+03  6.98027E+03 -3.60957E+03
  4.54945E+03  1.77974E+03 -1.03669E+03  1.90165E+03 -4.85327E+02 -2.77998E+03  2.26681E+03 -6.10474E+03
  9.91715E+03 -3.92342E+03  1.37381E+04  1.81307E+03  1.33273E+04  9.17042E+03  8.96246E+03  1.75958E+04
 -3.95223E+03  2.03997E+04 -1.71865E+04  1.51324E+04 -2.23848E+04  3.18549E+03 -1.78229E+04 -7.81581E+03
 -8.74010E+03 -1.43222E+04 -2.75883E+02 -1.26059E+04  4.41829E+03 -7.07350E+03  4.46675E+03 -4.59756E+03
  3.48319E+03 -2.56310E+03  3.36072E+03 -3.37350E+03  5.49439E+03 -3.15709E+03  6.98418E+03 -1.06783E+03
  9.69473E+03  2.01104E+03  5.39361E+03  7.96045E+03 -2.02494E+03  9.48140E+03 -9.44464E+03  7.16709E+03
 -1.24124E+04 -1.29140E+03 -7.41087E+03 -8.79433E+03 -7.89097E+02 -1.34943E+04  7.30910E+03 -1.34304E+04
  1.34845E+04 -7.30592E+03  1.62664E+04  2.08487E+03  1.13941E+04  1.11654E+04  1.97156E+03  1.51010E+04
 -6.21764E+03  1.24354E+04 -8.52345E+03  3.91705E+03 -5.93691E+03 -1.31521E+03 -2.42214E+03 -1.45293E+03
 -1.20125E+03 -3.34346E+02 -2.19428E+03  2.78767E+03 -5.43904E+03  2.19033E+03 -8.80974E+03 -1.13481E+03
 -5.92559E+03 -8.82126E+03  1.07342E+02 -1.21789E+04  7.51768E+03 -1.14998E+04  1.15668E+04 -3.23522E+03
  1.20412E+04  6.16427E+03  5.70512E+03  1.08674E+04 -2.35166E+03  1.22050E+04 -8.83088E+03  7.79409E+03
 -1.16961E+04  4.59932E+02 -8.41264E+03 -7.27208E+03 -1.05387E+03 -1.02446E+04  5.08531E+03 -7.37707E+03
  7.71265E+03 -2.52547E+03  5.79349E+03  2.12477E+03  1.74615E+03  3.56522E+03  1.36292E+03  1.80010E+03
  2.62374E+03  7.41540E+02  3.08301E+03  1.82763E+03  3.12649E+03  4.52978E+03  2.92678E+03  6.07916E+03
 -2.33268E+03  9.60673E+03 -8.13561E+03  1.01224E+04 -1.21341E+04  2.33809E+03 -1.26176E+04 -4.74159E+03
 -5.91490E+03 -1.19500E+04  1.72334E+03 -1.30072E+04  7.37803E+03 -8.60344E+03  1.00593E+04 -1.74514E+03
  7.72742E+03  4.42349E+03  1.61207E+03  7.00191E+03 -3.32771E+03  4.33901E+03 -4.68868E+03 -8.75134E+02
 -2.29897E+03 -5.49906E+03  3.05249E+03 -5.49155E+03  4.79926E+03 -2.45696E+03  5.04797E+03  1.11298E+03
  3.34470E+03  2.45363E+03  1.36990E+03  1.97515E+03 -4.46769E+02  1.72612E+03  1.81357E+03 -3.98467E+02
  1.82059E+03 -4.92566E+02  5.21367E+03  2.35738E+03  2.26798E+03  6.53333E+03 -1.03183E+03  8.19944E+03
 -5.61248E+03  5.41548E+03 -7.37440E+03  1.40950E+03 -6.80553E+03 -2.83659E+03 -2.40623E+03 -4.23446E+03
  7.07919E+02 -4.43563E+03  3.06917E+03 -2.37115E+03  2.26802E+03  2.72879E+03 -1.09442E+03  3.69299E+03
 -4.90690E+03  2.21917E+03 -5.31268E+03 -3.27121E+03 -3.54150E+03 -6.79618E+03  7.47218E+02 -6.50466E+03
  3.75702E+03 -4.14355E+03  4.62094E+03 -2.73402E+02  4.29975E+03  1.58283E+03  8.68459E+02  3.63426E+03
 -2.45947E+03  1.05587E+03 -3.16206E+03 -1.99851E+03  1.15998E+03 -4.96560E+03  6.06106E+03 -4.18764E+03
  7.47570E+03  3.41892E+02  7.47542E+03  4.55743E+03  2.28594E+03  7.40335E+03 -2.44061E+03  6.95525E+03
 -5.94656E+03  3.14228E+03 -6.52241E+03 -6.85917E+02 -3.55861E+03 -5.05779E+03  1.05037E+03 -4.44472E+03
  4.63640E+03 -2.77195E+03  3.90871E+03  2.20532E+03  1.45304E+03  4.65422E+03 -5.11590E+02  3.58182E+03
 -1.72039E+03  2.32950E+03 -1.78509E+03  5.53017E+02 -7.97795E+02  5.65855E+02 -1.25575E+03  1.73325E+03
 -1.86402E+03  2.94332E+03 -5.42054E+03  2.57091E+03 -7.31412E+03  2.18233E+02 -8.25949E+03 -5.03204E+03
 -4.47558E+03 -1.00516E+04  2.25438E+03 -1.13197E+04  6.79346E+03 -8.98316E+03  1.09438E+04 -3.33069E+03
  1.01841E+04  1.79744E+03  6.20933E+03  6.67099E+03  1.35674E+02  7.82795E+03 -3.08883E+03  5.82718E+03
 -4.17808E+03  2.45257E+03 -2.52432E+03 -1.13348E+03 -7.61003E+02 -6.36556E+02 -6.14620E+02  1.35083E+02
 -1.66360E+03  3.14523E+02 -1.55815E+03  4.30798E+01 -3.91515E+02 -2.07719E+03 -1.86125E+02 -3.31553E+03
  3.83771E+03 -2.61677E+03  4.33203E+03  2.71880E+02  5.15438E+03  4.34874E+03  1.10524E+03  7.49119E+03
 -3.48127E+03  8.91239E+03 -7.86231E+03  5.23099E+03 -9.00746E+03 -7.84831E+02 -6.65046E+03 -5.57691E+03
 -2.91984E+03 -7.84006E+03  1.97546E+03 -7.08750E+03  4.87879E+03 -3.37199E+03  4.67220E+03  2.41773E+02
  2.85588E+03  2.07256E+03 -3.86797E+02  2.12508E+03 -1.63537E+03 -1.55767E+00 -1.97165E+01 -1.91991E+03
  2.19978E+03 -9.77197E+02  3.02915E+03  1.34783E+03  1.54225E+03  3.00458E+03  3.40452E+02  3.92483E+03
 -3.46821E+03  3.45977E+03 -5.18602E+03  5.75975E+02 -4.37029E+03 -3.43412E+03 -5.18867E+02 -6.47628E+03
  3.42498E+03 -5.10673E+03  5.58602E+03 -1.55237E+03  5.47317E+03  1.25898E+03  3.32667E+03  4.72531E+03
  6.98049E+02  4.91572E+03 -1.98629E+03  3.46637E+03 -3.30693E+03  2.19725E+03 -2.38288E+03  4.57315E+02
 -1.18564E+03 -2.68080E+02 -1.85707E+03  9.52564E+02 -2.14590E+03  7.52475E+02 -4.03417E+03 -1.03441E+03
 -3.84681E+03 -2.36420E+03 -1.21586E+03 -4.63638E+03  2.40093E+03 -5.35394E+03  4.39453E+03 -2.40361E+03
  4.52446E+03  7.83667E+02  2.30200E+03  3.22902E+03 -2.34898E+02  4.83381E+03 -3.66831E+03  2.98465E+03
