 $NMID ID='MM_0lb_SNR800_17hz_g45_34.RAW', FMTDAT='(8E13.5)'
 TRAMP=1., VOLUME=1. $END
  3.09902E+05  3.45918E+02  3.37577E+05  2.50438E+05  8.42022E+04  3.37575E+05 -1.32521E+05  2.50551E+05
 -1.89739E+05  8.27090E+04 -1.10859E+05 -3.28147E+04  1.25936E+03 -4.99022E+04  5.40142E+04  7.96040E+01
  3.49476E+04  5.27532E+04 -1.70539E+04  7.50683E+04 -6.02227E+04  6.28127E+04 -8.33868E+04  3.14220E+04
 -7.99493E+04 -1.09562E+04 -5.63673E+04 -5.03007E+04 -1.50564E+04 -6.83289E+04  2.70364E+04 -4.49366E+04
  3.94129E+04  3.89130E+03  1.60345E+04  4.72620E+04 -3.40697E+04  4.66419E+04 -6.56032E+04 -2.58066E+02
 -5.22389E+04 -5.60557E+04 -6.51967E+03 -7.55007E+04  3.33392E+04 -5.37345E+04  4.66575E+04 -1.65347E+04
  4.22456E+04  1.07611E+04  3.10051E+04  2.48021E+04  1.55224E+04  2.85393E+04 -4.74615E+03  2.70995E+04
 -2.18286E+04  1.26610E+04 -1.89727E+04 -4.42830E+03  4.94554E+03 -7.91564E+03  2.14847E+04  1.13164E+04
  7.36001E+03  3.40140E+04 -3.09846E+04  3.41049E+04 -6.18055E+04  2.35975E+03 -5.58711E+04 -4.16731E+04
 -1.23311E+04 -6.14892E+04  3.85195E+04 -4.42734E+04  5.63872E+04 -2.21089E+03  3.25738E+04  3.10421E+04
 -6.52312E+03  3.37429E+04 -2.87621E+04  1.39916E+04 -2.82651E+04 -4.90176E+03 -1.47289E+04 -1.01641E+04
 -7.62003E+03 -1.19271E+04 -9.34797E+02 -1.70451E+04  6.94993E+03 -2.28244E+04  1.49103E+04 -1.37624E+04
  1.22075E+04  4.42535E+03 -6.56239E+03  1.29938E+04 -1.94462E+04 -3.03447E+03 -8.19836E+03 -3.13082E+04
  2.11883E+04 -4.13560E+04  4.54382E+04 -1.87682E+04  4.29600E+04  1.87939E+04  1.46547E+04  4.23383E+04
 -1.53449E+04  3.17224E+04 -2.40020E+04  8.87472E+02 -8.67651E+03 -2.67506E+04  2.06237E+04 -3.17743E+04
  3.90296E+04 -7.86050E+03  3.25569E+04  2.27543E+04  1.59389E+04  4.35083E+04 -7.55668E+03  4.64567E+04
 -2.93537E+04  3.10088E+04 -3.87251E+04  8.74207E+03 -3.92650E+04 -1.56377E+04 -2.19055E+04 -3.52754E+04
  6.90160E+03 -3.50868E+04  2.97452E+04 -1.33466E+04  2.73645E+04  1.06792E+04  3.28007E+03  1.77819E+04
 -1.32012E+04  7.54863E+03 -9.79468E+03 -8.02323E+03  5.89039E+03 -1.02122E+04  1.74796E+04  6.42721E+03
  1.25500E+04  2.17243E+04 -6.51600E+03  2.37314E+04 -2.13995E+04  9.61479E+03 -2.58326E+04 -6.01807E+03
 -1.77667E+04 -1.66737E+04 -6.36020E+03 -1.74071E+04  4.08421E+03 -1.59145E+04  1.34181E+04 -1.53315E+04
  2.23322E+04 -1.18629E+04  2.91818E+04  1.76376E+03  2.15026E+04  1.73034E+04  4.30696E+03  3.35473E+04
 -1.65317E+04  2.81303E+04 -2.61070E+04  9.99870E+03 -1.99537E+04 -1.03703E+04 -3.75572E+03 -1.40736E+04
  2.22184E+03 -3.89129E+03 -3.08998E+03  5.43542E+03 -1.36800E+04  5.03697E+03 -1.39728E+04 -5.57006E+03
 -8.77846E+03 -1.62306E+04  4.47956E+03 -2.04664E+04  1.34431E+04 -1.43576E+04  1.56882E+04 -1.40577E+03
  9.55062E+03  1.14012E+04 -8.25434E+02  1.67494E+04 -1.08531E+04  9.10932E+03 -1.62401E+04 -3.27650E+03
 -1.22268E+04 -1.52336E+04 -1.31146E+03 -1.98932E+04  9.19323E+03 -1.63223E+04  1.67769E+04 -7.78086E+03
  1.54258E+04  5.70263E+02  1.10426E+04  4.18791E+03  5.59557E+03  4.13675E+02  7.91912E+03 -1.45395E+03
  1.47043E+04  2.73516E+03  1.61324E+04  1.32487E+04  1.02046E+04  2.61455E+04 -2.82839E+03  2.83478E+04
 -1.66842E+04  2.19882E+04 -2.64567E+04  1.07717E+04 -2.68139E+04 -1.85477E+03 -2.32239E+04 -1.55243E+04
 -1.08687E+04 -2.25114E+04  7.52582E+03 -2.05627E+04  1.77347E+04 -1.11854E+04  1.62840E+04  4.15130E+03
  6.61076E+03  1.20504E+04 -7.47047E+03  1.11134E+04 -1.39640E+04  2.70531E+03 -1.06562E+04 -8.66794E+03
 -2.38044E+02 -1.30787E+04  6.49432E+03 -9.70974E+03  8.71633E+03 -1.29562E+03  1.59900E+03  5.33010E+03
 -5.75361E+03  1.46912E+03 -4.19880E+03 -4.96027E+03  4.80824E+02 -1.12773E+04  8.46293E+03 -1.12475E+04
  1.33490E+04 -5.21953E+03  1.32849E+04  2.64332E+03  1.19468E+04  1.05514E+04  5.66884E+03  1.57778E+04
 -2.10676E+03  1.74712E+04 -1.07606E+04  1.11064E+04 -1.26710E+04  2.61466E+03 -9.18090E+03 -2.34037E+03
 -4.91685E+03 -3.56842E+03 -7.15313E+02  9.01539E+02 -1.99079E+03  1.97374E+03 -4.05230E+03  3.73903E+03
 -8.62978E+03 -3.19994E+02 -9.32537E+03 -7.74766E+03 -3.73624E+03 -1.23612E+04  3.89722E+03 -9.11276E+03
  7.92091E+03 -3.96348E+03  5.76218E+03  2.29672E+03  7.53225E+02  3.48099E+03 -4.26248E+03  4.52931E+01
 -3.70422E+03 -5.65599E+03 -7.02107E+02 -8.18709E+03  4.56117E+03 -8.61001E+03  1.08550E+04 -4.56514E+03
  1.26775E+04  7.95948E+02  9.52840E+03  7.04618E+03  1.88795E+03  9.72958E+03 -5.60782E+03  9.03780E+03
 -7.56958E+03  3.11435E+03 -3.87485E+03 -1.45682E+03  1.34537E+03 -2.17203E+03  5.12556E+03 -6.60469E+02
  4.32409E+03  3.48922E+03  1.18847E+03  7.33483E+03 -4.71713E+03  7.14784E+03 -8.69124E+03  1.86132E+03
 -5.47034E+03 -4.11966E+03  2.18853E+02 -7.56276E+03  4.19774E+03 -3.89341E+03  4.37719E+03  1.19315E+03
  3.67336E+02  4.19596E+03 -4.51951E+03  5.13056E+03 -5.77322E+03  2.90381E+03 -5.60342E+03 -1.43967E+03
 -3.68285E+03 -6.95835E+03  1.37355E+03 -8.30522E+03  6.86473E+03 -4.86138E+03  7.22896E+03  1.29205E+03
  5.21838E+03  5.90622E+03  5.77495E+01  8.16607E+03 -5.49661E+03  4.75431E+03 -5.88152E+03 -6.24358E+02
 -6.23527E+03 -5.71225E+03 -1.58540E+03 -5.68433E+03  2.65040E+03 -5.22508E+03  3.42768E+03 -3.12696E+03
  2.84697E+03  4.63167E+02 -7.42270E+01  9.62556E+02  3.19987E+02 -7.58432E+02  1.40298E+02 -2.52161E+03
  4.49890E+03 -9.56220E+02  6.27735E+03  9.86063E+02  6.62480E+03  3.73766E+03  5.85058E+03  8.53991E+03
 -1.45605E+03  1.00793E+04 -8.76228E+03  7.55369E+03 -1.14118E+04  1.16239E+03 -8.76063E+03 -3.03217E+03
 -4.71617E+03 -7.62988E+03 -5.71814E+02 -5.91653E+03  2.29983E+03 -2.78083E+03  1.93655E+03 -2.25111E+03
  1.30107E+03 -1.70597E+03  2.10743E+03 -2.58853E+03  3.81244E+03 -1.46632E+03  4.01629E+03  2.86002E+02
  5.10295E+03  1.15839E+03  1.63366E+03  3.69445E+03 -1.97886E+03  3.31769E+03 -5.30955E+03  3.27745E+03
 -5.89632E+03 -1.09477E+03 -2.63305E+03 -4.01325E+03  4.99170E+02 -5.80362E+03  3.43181E+03 -6.43818E+03
  6.29160E+03 -4.01270E+03  7.83020E+03  3.27272E+02  5.49383E+03  5.32383E+03  1.36729E+03  7.18258E+03
 -2.41308E+03  6.47178E+03 -4.08811E+03  2.14668E+03 -2.25075E+03 -1.36862E+03 -5.09361E+02 -6.63263E+02
 -5.69158E+02  5.51840E+02 -1.04597E+03  2.13494E+03 -2.95687E+03  8.66997E+02 -4.86136E+03 -5.15114E+02
 -2.07846E+03 -4.66181E+03  7.78851E+02 -5.57667E+03  3.28373E+03 -5.15684E+03  4.65153E+03 -1.20930E+03
  4.82196E+03  2.45719E+03  2.20215E+03  4.26938E+03 -9.35268E+02  5.19685E+03 -3.29052E+03  3.23331E+03
 -4.59982E+03  5.36934E+02 -4.05121E+03 -3.02925E+03 -2.50543E+02 -3.76590E+03  1.83086E+03 -2.90893E+03
  3.28378E+03 -1.08950E+03  2.06685E+03  4.57202E+02  7.58276E+02  1.81674E+03  9.85388E+02  1.00296E+03
  1.86365E+03  7.14635E+02  1.47164E+03  1.01395E+03  1.27627E+03  2.60726E+03  1.68852E+03  2.33242E+03
 -1.67408E+03  3.51381E+03 -3.10248E+03  4.74773E+03 -4.06253E+03  1.37561E+03 -5.20600E+03 -1.17937E+03
 -1.93825E+03 -4.73477E+03  7.97621E+02 -5.77065E+03  2.48219E+03 -3.36665E+03  3.89558E+03 -9.73505E+02
  3.16383E+03  2.07307E+03  6.65192E+02  3.21977E+03 -6.97329E+02  1.74117E+03 -1.32749E+03 -3.85011E+02
 -1.09322E+03 -2.00660E+03  1.47487E+03 -2.00005E+03  1.56694E+03 -1.00327E+03  1.95018E+03  6.43639E+02
  7.96165E+02  6.38354E+02  9.30808E+02 -3.58115E+01 -5.00083E+02  8.63300E+02  1.72598E+03 -1.74907E+02
  3.10789E+02 -4.92589E+02  2.23001E+03  5.86733E+02  4.20954E+02  2.89955E+03 -3.84188E+02  3.45058E+03
 -1.81198E+03  1.74382E+03 -2.70676E+03  5.76452E+02 -3.03170E+03 -8.08062E+02 -2.54630E+02 -1.09399E+03
  7.18804E+02 -1.66395E+03  1.30997E+03 -8.74209E+02  5.72769E+02  1.34838E+03 -7.52216E+02  1.65789E+03
 -1.89121E+03  9.81983E+02 -1.72487E+03 -1.20234E+03 -8.93599E+02 -2.51074E+03  3.41153E+02 -2.21610E+03
  6.90609E+02 -9.18883E+02  1.32956E+03  3.81035E+01  1.54238E+03  4.39399E+02  1.01545E+02  1.37269E+03
 -7.88435E+02  1.89740E+02 -1.10848E+03 -3.26394E+02  6.34030E+02 -1.19503E+03  2.29686E+03 -1.41103E+03
  1.87539E+03 -2.20568E+01  2.98389E+03  1.23050E+03  1.01321E+03  1.98967E+03 -6.63140E+02  2.55212E+03
 -1.65122E+03  5.52051E+02 -2.20140E+03 -7.95544E+01 -1.02120E+03 -1.75746E+03  4.95669E+02 -1.10063E+03
  1.90857E+03 -8.27475E+02  8.78043E+02  7.61588E+02  3.56285E+02  1.76140E+03  1.32414E+02  1.49845E+03
 -5.00321E+02  1.13776E+03 -6.80649E+02  3.13388E+01 -4.94212E+01  5.40573E+02 -9.19447E+02  6.30984E+02
 -9.25572E+02  1.31207E+03 -2.01735E+03  3.53469E+02 -2.19326E+03  2.46363E+02 -2.79493E+03 -1.63697E+03
 -1.36586E+03 -3.00305E+03  5.28515E+02 -3.73821E+03  1.65659E+03 -2.84625E+03  3.51278E+03 -1.39994E+03
  3.20103E+03  1.67440E+02  1.61957E+03  2.04506E+03 -5.57330E+02  2.02831E+03 -9.34670E+02  1.68764E+03
 -1.23424E+03  9.10522E+02 -8.92140E+02 -2.08673E+02 -6.33770E+02 -7.52731E+01 -7.54635E+02  3.85522E+01
 -1.15884E+03  4.09970E+00 -1.04456E+03  2.51258E+01  2.66293E+02 -7.03324E+02 -6.16969E+02 -1.23203E+03
  1.41887E+03 -7.29525E+02  4.89429E+02  3.18563E+02  1.20294E+03  1.36509E+03 -3.90927E+02  2.17646E+03
 -1.17648E+03  2.71702E+03 -2.19715E+03  1.55715E+03 -2.47017E+03 -3.07011E+02 -1.73260E+03 -1.60253E+03
 -9.88362E+02 -2.15238E+03  4.59207E+02 -1.72024E+03  1.06582E+03 -8.16723E+02  9.68898E+02  3.05512E+02
  9.42747E+02  5.05997E+02  9.48725E+01  4.71129E+02 -3.57444E+02 -1.79565E+00 -1.21997E+02 -4.66674E+02
  3.68228E+02  7.49676E+01  4.04130E+02  4.59770E+02 -1.00228E+02  5.45669E+02  3.71312E+02  6.60766E+02
 -8.76402E+02  8.61335E+02 -1.08800E+03  1.90148E+02 -1.09304E+03 -3.99406E+02  7.36562E+01 -1.78088E+03
  7.00082E+02 -1.18085E+03  1.26036E+03 -7.79858E+01  1.51533E+03 -3.58740E+02  5.68763E+02  9.86895E+02
  1.99613E+02  9.63661E+02 -2.82484E+02  6.75935E+02 -7.41067E+02  7.99383E+02 -6.00124E+02  8.93292E+01
 -3.69495E+02  2.17244E+01 -6.24637E+02  2.00281E+02 -6.21774E+02  3.83334E+02 -1.05508E+03 -1.99085E+02
 -1.16482E+03 -6.50994E+01 -6.01958E+02 -1.06219E+03  7.29205E+02 -1.76957E+03  9.23002E+02 -6.59067E+02
  7.01885E+02  1.66513E+01 -1.49020E+02  6.66415E+02 -5.23361E+01  1.27496E+03 -7.22531E+02  7.89029E+02
