 $NMID ID='MM_0lb_SNR800_9hz_g50_22.RAW', FMTDAT='(8E13.5)'
 TRAMP=1., VOLUME=1. $END
  3.10252E+05  3.02915E+02  3.37544E+05  2.50746E+05  8.52744E+04  3.38571E+05 -1.32818E+05  2.51885E+05
 -1.90777E+05  8.39217E+04 -1.12597E+05 -3.24546E+04  3.93184E+02 -5.07640E+04  5.39593E+04 -5.25751E+02
  3.56689E+04  5.27331E+04 -1.68331E+04  7.59161E+04 -6.14857E+04  6.41364E+04 -8.53163E+04  3.26885E+04
 -8.27116E+04 -1.14512E+04 -5.79492E+04 -5.23883E+04 -1.52160E+04 -7.07903E+04  2.79397E+04 -4.71458E+04
  4.10286E+04  3.62442E+03  1.66898E+04  4.92145E+04 -3.45279E+04  4.85343E+04 -6.80347E+04  4.93577E+02
 -5.49455E+04 -5.78682E+04 -7.30924E+03 -7.89393E+04  3.46082E+04 -5.69001E+04  4.96501E+04 -1.80386E+04
  4.54409E+04  1.16445E+04  3.28617E+04  2.65839E+04  1.59334E+04  3.06738E+04 -5.77455E+03  2.77562E+04
 -2.24838E+04  1.19087E+04 -1.80671E+04 -6.16610E+03  6.94188E+03 -7.38706E+03  2.34774E+04  1.39126E+04
  7.22226E+03  3.76116E+04 -3.39804E+04  3.69610E+04 -6.58202E+04  2.14228E+03 -5.90610E+04 -4.43952E+04
 -1.22739E+04 -6.57354E+04  4.16552E+04 -4.77338E+04  6.10738E+04 -2.47653E+03  3.66314E+04  3.46087E+04
 -5.18715E+03  3.94950E+04 -3.18036E+04  1.88129E+04 -3.31483E+04 -2.96911E+03 -1.87825E+04 -1.17612E+04
 -9.14178E+03 -1.53862E+04 -3.76254E+02 -1.98036E+04  8.81018E+03 -2.32795E+04  1.55654E+04 -1.23723E+04
  1.06318E+04  6.05381E+03 -1.03795E+04  1.29558E+04 -2.35703E+04 -6.39826E+03 -8.55504E+03 -3.76568E+04
  2.50217E+04 -4.70025E+04  5.20146E+04 -2.07307E+04  4.90422E+04  2.10692E+04  1.69792E+04  4.73471E+04
 -1.61899E+04  3.59303E+04 -2.75906E+04  2.97293E+03 -1.20612E+04 -2.89083E+04  2.12954E+04 -3.67340E+04
  4.46152E+04 -1.13753E+04  4.02257E+04  2.48412E+04  2.12662E+04  5.09426E+04 -8.30840E+03  5.59633E+04
 -3.51985E+04  3.82842E+04 -4.77999E+04  1.07750E+04 -4.74413E+04 -1.82243E+04 -2.57147E+04 -4.20992E+04
  7.86755E+03 -4.19294E+04  3.40482E+04 -1.73124E+04  3.21376E+04  1.13545E+04  5.13845E+03  2.06801E+04
 -1.40980E+04  1.01742E+04 -1.12646E+04 -7.10212E+03  5.50935E+03 -1.16829E+04  1.92099E+04  5.23178E+03
  1.45590E+04  2.29067E+04 -5.57966E+03  2.72101E+04 -2.37503E+04  1.45319E+04 -3.16688E+04 -3.06988E+03
 -2.50800E+04 -1.82707E+04 -1.14732E+04 -2.50858E+04  4.13535E+03 -2.58233E+04  1.95222E+04 -2.30867E+04
  3.21283E+04 -1.44851E+04  3.81295E+04  4.83486E+03  2.67495E+04  2.44717E+04  4.58872E+03  4.15846E+04
 -1.98814E+04  3.39740E+04 -3.05302E+04  1.18297E+04 -2.27618E+04 -1.01333E+04 -4.96668E+03 -1.33011E+04
  3.62377E+02 -1.35711E+03 -7.88670E+03  8.17069E+03 -2.05158E+04  4.85534E+03 -2.05185E+04 -9.43731E+03
 -1.17888E+04 -2.30537E+04  6.24679E+03 -2.77363E+04  1.89850E+04 -1.96512E+04  2.25549E+04 -1.68831E+03
  1.41793E+04  1.64637E+04 -1.59197E+03  2.34270E+04 -1.65392E+04  1.35849E+04 -2.35423E+04 -4.85516E+03
 -1.72590E+04 -2.08290E+04 -2.40628E+03 -2.82592E+04  1.24388E+04 -2.30965E+04  2.29548E+04 -1.21659E+04
  2.17963E+04 -4.73489E+02  1.55866E+04  4.97532E+03  8.79205E+03  1.49326E+03  1.21246E+04 -2.03016E+03
  2.25739E+04  2.66269E+03  2.53336E+04  1.82528E+04  1.77189E+04  3.78276E+04 -2.36548E+03  4.42548E+04
 -2.52429E+04  3.69481E+04 -4.16523E+04  1.91082E+04 -4.48373E+04 -3.02901E+03 -3.60704E+04 -2.63923E+04
 -1.45504E+04 -3.70101E+04  1.28046E+04 -3.24292E+04  2.76264E+04 -1.53618E+04  2.42490E+04  8.24451E+03
  8.08456E+03  1.86787E+04 -1.18737E+04  1.57309E+04 -2.02888E+04  2.39074E+03 -1.51828E+04 -1.27716E+04
 -5.66604E+02 -1.88653E+04  1.02929E+04 -1.39401E+04  1.35788E+04 -1.07669E+03  3.62294E+03  8.38130E+03
 -9.00311E+03  4.24338E+03 -9.22080E+03 -6.74719E+03 -1.71878E+03 -1.82750E+04  1.20058E+04 -1.96552E+04
  2.29849E+04 -1.14762E+04  2.60052E+04  3.48323E+03  2.27728E+04  1.88783E+04  1.07473E+04  2.91864E+04
 -5.27328E+03  3.13123E+04 -2.04241E+04  1.94242E+04 -2.26921E+04  3.73188E+03 -1.51241E+04 -5.96849E+03
 -6.64055E+03 -7.11146E+03 -9.24499E+02  5.41688E+02 -3.19563E+03  3.67290E+03 -7.04978E+03  5.15719E+03
 -1.39684E+04 -1.15474E+03 -1.45372E+04 -1.21574E+04 -6.29687E+03 -1.93806E+04  6.71853E+03 -1.55003E+04
  1.30677E+04 -6.50673E+03  8.85051E+03  4.51135E+03 -4.85459E+02  5.78929E+03 -7.89375E+03  4.42888E+01
 -7.83934E+03 -1.02193E+04 -9.70769E+02 -1.53277E+04  8.87318E+03 -1.66675E+04  2.01636E+04 -9.28277E+03
  2.31522E+04  2.26926E+03  1.68796E+04  1.45937E+04  3.31286E+03  1.91186E+04 -9.41918E+03  1.53746E+04
 -1.28650E+04  4.74817E+03 -6.49283E+03 -3.63002E+03  2.11755E+03 -4.45777E+03  8.48441E+03 -1.20813E+03
  7.76221E+03  6.91732E+03  8.13282E+02  1.25839E+04 -9.06988E+03  1.17477E+04 -1.54989E+04  2.89901E+03
 -1.08749E+04 -8.14071E+03 -5.49321E+01 -1.34509E+04  8.73374E+03 -6.97927E+03  9.22842E+03  3.66038E+03
  2.13140E+03  9.70753E+03 -8.25245E+03  1.15039E+04 -1.37555E+04  5.35813E+03 -1.40309E+04 -5.17502E+03
 -8.41562E+03 -1.56164E+04  4.06883E+03 -1.78009E+04  1.50457E+04 -1.09022E+04  1.73047E+04  3.04808E+03
  1.00454E+04  1.31896E+04 -2.13763E+03  1.58121E+04 -1.16879E+04  9.06444E+03 -1.27153E+04 -1.09319E+03
 -1.04010E+04 -1.05875E+04 -1.92103E+03 -1.18661E+04  6.29105E+03 -9.40044E+03  7.42898E+03 -3.96263E+03
  5.27085E+03  2.07071E+03 -1.16262E+03  2.20203E+03 -8.94112E+02 -3.67713E+03  2.44974E+03 -7.58106E+03
  1.16879E+04 -4.78790E+03  1.61995E+04  1.59445E+03  1.57731E+04  1.10275E+04  1.00382E+04  2.10335E+04
 -5.34293E+03  2.37320E+04 -2.01112E+04  1.76022E+04 -2.62485E+04  3.29138E+03 -2.11709E+04 -9.27318E+03
 -1.02558E+04 -1.75069E+04 -3.17525E+02 -1.44746E+04  5.51710E+03 -8.09912E+03  5.19439E+03 -5.30957E+03
  3.67986E+03 -2.91381E+03  3.86448E+03 -3.94367E+03  5.70972E+03 -3.81190E+03  7.87803E+03 -1.17138E+03
  1.07721E+04  2.22856E+03  5.53056E+03  9.24077E+03 -2.45728E+03  1.10559E+04 -1.09435E+04  8.82678E+03
 -1.47150E+04 -1.34633E+03 -9.51266E+03 -1.06229E+04 -1.33656E+03 -1.57751E+04  9.36556E+03 -1.58742E+04
  1.60540E+04 -9.00681E+03  1.93552E+04  2.68892E+03  1.32917E+04  1.36776E+04  2.09137E+03  1.75626E+04
 -7.34921E+03  1.46572E+04 -1.00896E+04  5.10690E+03 -6.99398E+03 -1.76606E+03 -3.08662E+03 -2.31896E+03
 -1.50838E+03 -2.89097E+02 -2.13285E+03  3.02470E+03 -6.17833E+03  2.52333E+03 -1.03715E+04 -1.38442E+03
 -7.50831E+03 -1.05082E+04  5.54845E+01 -1.47816E+04  9.29764E+03 -1.37847E+04  1.48256E+04 -4.22890E+03
  1.42871E+04  7.08197E+03  6.89748E+03  1.27773E+04 -3.10014E+03  1.47075E+04 -1.09168E+04  9.08794E+03
 -1.39100E+04  7.34692E+02 -1.09336E+04 -9.17933E+03 -1.37373E+03 -1.21726E+04  6.21640E+03 -9.22105E+03
  9.43066E+03 -2.72555E+03  6.19800E+03  2.72668E+03  2.17874E+03  4.64206E+03  1.14579E+03  2.39517E+03
  2.71409E+03  1.55236E+03  3.88473E+03  2.31257E+03  4.70443E+03  4.99091E+03  3.80865E+03  7.83821E+03
 -3.50573E+03  1.15452E+04 -1.03271E+04  1.19493E+04 -1.52541E+04  3.24694E+03 -1.57991E+04 -6.35129E+03
 -7.48963E+03 -1.51351E+04  2.09044E+03 -1.65608E+04  8.90816E+03 -1.06674E+04  1.22835E+04 -2.95442E+03
  9.69854E+03  6.10611E+03  2.11945E+03  8.87335E+03 -3.90916E+03  5.30419E+03 -6.36621E+03 -9.27516E+02
 -2.73771E+03 -6.65849E+03  3.67033E+03 -6.56275E+03  6.29065E+03 -3.12507E+03  5.85826E+03  1.26605E+03
  3.25225E+03  3.22687E+03  1.36999E+03  2.68498E+03 -8.01168E+02  1.69105E+03  1.65177E+03 -8.80487E+02
  2.34202E+03 -9.21555E+02  6.63439E+03  2.54869E+03  3.76934E+03  8.03053E+03 -1.20748E+03  1.08835E+04
 -7.17782E+03  6.94775E+03 -9.94329E+03  2.17062E+03 -8.79395E+03 -3.10549E+03 -3.65325E+03 -5.90004E+03
  9.32064E+02 -6.27654E+03  3.57213E+03 -3.00515E+03  3.38341E+03  2.92802E+03 -1.63949E+03  4.92955E+03
 -6.34824E+03  3.11129E+03 -7.00738E+03 -3.66271E+03 -3.99485E+03 -7.90884E+03  1.37023E+03 -8.65713E+03
  5.09173E+03 -4.96763E+03  6.02187E+03 -6.42568E+02  5.33008E+03  2.58859E+03  8.93735E+02  5.03764E+03
 -3.30029E+03  1.35668E+03 -3.53185E+03 -2.75957E+03  1.76161E+03 -6.48287E+03  7.61217E+03 -5.24283E+03
  9.82758E+03  9.47969E+02  9.77675E+03  6.75255E+03  3.67942E+03  1.07076E+04 -3.88570E+03  9.64005E+03
 -8.37444E+03  4.44220E+03 -8.76849E+03 -1.20369E+03 -4.52191E+03 -6.66870E+03  1.50992E+03 -6.27296E+03
  6.21431E+03 -3.04633E+03  5.28074E+03  2.26165E+03  2.05229E+03  5.49329E+03 -5.77020E+02  4.58328E+03
 -2.72576E+03  3.79579E+03 -2.47815E+03  1.04717E+03 -1.08724E+03  7.56381E+02 -1.68241E+03  2.13687E+03
 -2.57165E+03  3.51692E+03 -6.81734E+03  3.43287E+03 -9.93718E+03  3.61223E+02 -1.15952E+04 -6.52614E+03
 -5.89745E+03 -1.33384E+04  2.88099E+03 -1.57476E+04  9.54232E+03 -1.23563E+04  1.49988E+04 -4.71419E+03
  1.32699E+04  2.32686E+03  8.44079E+03  9.68650E+03  8.81570E+02  1.02090E+04 -4.50465E+03  7.88114E+03
 -6.14197E+03  2.77611E+03 -3.54765E+03 -1.09962E+03 -1.34674E+03 -1.17248E+03 -4.33331E+02 -5.36888E+01
 -2.07085E+03  1.87103E+02 -1.89853E+03 -5.20987E+02 -1.03226E+03 -2.02918E+03  6.72212E+02 -3.91152E+03
  4.15082E+03 -3.43112E+03  6.61253E+03 -2.65617E+02  7.67885E+03  5.85404E+03  1.79540E+03  1.03607E+04
 -5.24364E+03  1.17228E+04 -1.11076E+04  6.96853E+03 -1.27405E+04 -8.01024E+02 -9.23892E+03 -7.62774E+03
 -3.86380E+03 -1.09883E+04  3.08524E+03 -9.85610E+03  6.84520E+03 -5.47349E+03  6.92301E+03  6.60741E+02
  3.65649E+03  3.62452E+03 -4.10765E+02  3.05228E+03 -2.16197E+03 -1.45811E+01  3.87253E+02 -2.43506E+03
  3.41100E+03 -1.21431E+03  4.28143E+03  1.22771E+03  2.88865E+03  4.40724E+03  3.43993E+01  5.40702E+03
 -4.52036E+03  4.65744E+03 -6.79063E+03  7.80341E+02 -6.46317E+03 -5.03147E+03 -7.21773E+02 -8.89139E+03
  4.86416E+03 -7.56947E+03  7.92735E+03 -2.67055E+03  8.05365E+03  2.05367E+03  4.65605E+03  6.49833E+03
  8.55318E+02  7.15200E+03 -2.34525E+03  5.93770E+03 -4.37888E+03  3.06415E+03 -3.97551E+03  2.30135E+02
 -1.87847E+03 -4.67750E+02 -2.35964E+03  7.06857E+02 -3.89358E+03  9.65641E+02 -5.18356E+03 -1.26087E+03
 -4.65060E+03 -3.85012E+03 -1.73744E+03 -7.14143E+03  3.37053E+03 -7.89157E+03  6.07132E+03 -3.84882E+03
  7.06969E+03  1.07928E+03  3.81535E+03  4.85265E+03 -3.48931E+02  7.04815E+03 -5.62902E+03  4.76519E+03
