 $NMID ID='MM_0lb_SNR800_8hz_g55_70.RAW', FMTDAT='(8E13.5)'
 TRAMP=1., VOLUME=1. $END
  3.09965E+05  6.45652E+02  3.37987E+05  2.50540E+05  8.47147E+04  3.38886E+05 -1.32584E+05  2.51849E+05
 -1.91108E+05  8.36177E+04 -1.12596E+05 -3.30476E+04  2.51833E+01 -5.12504E+04  5.38289E+04 -9.09563E+02
  3.55969E+04  5.27454E+04 -1.63767E+04  7.62299E+04 -6.10646E+04  6.46597E+04 -8.55516E+04  3.25234E+04
 -8.32172E+04 -1.22463E+04 -5.82136E+04 -5.28061E+04 -1.55752E+04 -7.13125E+04  2.82617E+04 -4.72498E+04
  4.13949E+04  3.88725E+03  1.69144E+04  4.89757E+04 -3.45809E+04  4.83686E+04 -6.87712E+04  3.51486E+02
 -5.51237E+04 -5.81973E+04 -7.25296E+03 -7.97983E+04  3.50097E+04 -5.78703E+04  5.02952E+04 -1.86182E+04
  4.60167E+04  1.12266E+04  3.32514E+04  2.66896E+04  1.58110E+04  3.08692E+04 -5.58195E+03  2.78687E+04
 -2.22901E+04  1.19803E+04 -1.80810E+04 -6.27991E+03  7.89855E+03 -7.58111E+03  2.41325E+04  1.42100E+04
  7.40776E+03  3.82369E+04 -3.45772E+04  3.72800E+04 -6.66131E+04  2.19931E+03 -5.97054E+04 -4.45435E+04
 -1.25548E+04 -6.66470E+04  4.21102E+04 -4.84271E+04  6.23158E+04 -2.62467E+03  3.76440E+04  3.50665E+04
 -5.35948E+03  4.05489E+04 -3.21992E+04  1.94733E+04 -3.44121E+04 -3.30049E+03 -2.00190E+04 -1.28123E+04
 -9.75068E+03 -1.52375E+04 -3.96998E+02 -2.02672E+04  8.60255E+03 -2.39650E+04  1.61327E+04 -1.19972E+04
  1.01480E+04  6.76335E+03 -1.09640E+04  1.29139E+04 -2.38979E+04 -7.03903E+03 -8.74670E+03 -3.84468E+04
  2.61905E+04 -4.78812E+04  5.29675E+04 -2.15624E+04  4.95262E+04  2.10122E+04  1.81659E+04  4.80849E+04
 -1.70912E+04  3.70418E+04 -2.84187E+04  2.97415E+03 -1.21075E+04 -3.00327E+04  2.14941E+04 -3.81517E+04
  4.57075E+04 -1.11756E+04  4.15420E+04  2.58115E+04  2.28199E+04  5.26265E+04 -8.43660E+03  5.77088E+04
 -3.68003E+04  3.99943E+04 -4.94017E+04  1.14610E+04 -4.91280E+04 -1.90677E+04 -2.71707E+04 -4.33245E+04
  8.03171E+03 -4.37583E+04  3.49775E+04 -1.77983E+04  3.28850E+04  1.06795E+04  5.02313E+03  2.13872E+04
 -1.38617E+04  1.00355E+04 -1.15716E+04 -7.28796E+03  5.81245E+03 -1.15839E+04  1.91977E+04  5.59180E+03
  1.52061E+04  2.27811E+04 -4.70373E+03  2.76484E+04 -2.38590E+04  1.55344E+04 -3.30384E+04 -2.27158E+03
 -2.68015E+04 -1.89141E+04 -1.26635E+04 -2.65246E+04  4.06711E+03 -2.76601E+04  2.10200E+04 -2.43648E+04
  3.38167E+04 -1.46590E+04  3.90363E+04  5.46933E+03  2.79817E+04  2.56914E+04  3.81624E+03  4.26734E+04
 -2.02460E+04  3.50261E+04 -3.16491E+04  1.28367E+04 -2.28970E+04 -9.85453E+03 -4.75763E+03 -1.25344E+04
  5.66689E+02 -5.90974E+02 -8.39431E+03  8.83481E+03 -2.13125E+04  4.92589E+03 -2.16470E+04 -1.02614E+04
 -1.29370E+04 -2.45606E+04  6.20492E+03 -2.94271E+04  1.99382E+04 -2.07629E+04  2.38319E+04 -1.90229E+03
  1.51081E+04  1.66932E+04 -1.48996E+03  2.44661E+04 -1.80039E+04  1.46074E+04 -2.47762E+04 -4.93154E+03
 -1.82793E+04 -2.22787E+04 -2.16129E+03 -2.91931E+04  1.33683E+04 -2.44987E+04  2.43314E+04 -1.30652E+04
  2.35397E+04 -6.70540E+02  1.70723E+04  5.27108E+03  9.35530E+03  1.88248E+03  1.28385E+04 -2.22225E+03
  2.38609E+04  2.86938E+03  2.71859E+04  1.95210E+04  1.87619E+04  3.97435E+04 -2.49170E+03  4.75584E+04
 -2.69983E+04  3.99714E+04 -4.50476E+04  2.06363E+04 -4.81238E+04 -3.56172E+03 -3.91731E+04 -2.85429E+04
 -1.54293E+04 -4.01096E+04  1.43511E+04 -3.50070E+04  2.96464E+04 -1.63350E+04  2.56000E+04  8.78091E+03
  8.37701E+03  2.00178E+04 -1.24556E+04  1.62517E+04 -2.18282E+04  2.87805E+03 -1.61433E+04 -1.38879E+04
 -9.13265E+02 -2.03743E+04  1.13993E+04 -1.48731E+04  1.44980E+04 -1.34670E+03  4.04407E+03  9.45973E+03
 -9.40065E+03  4.73116E+03 -1.00993E+04 -7.34975E+03 -2.18318E+03 -1.97090E+04  1.26606E+04 -2.16974E+04
  2.51537E+04 -1.26123E+04  2.89301E+04  3.62432E+03  2.53911E+04  1.96390E+04  1.16235E+04  3.19699E+04
 -6.30871E+03  3.40795E+04 -2.22881E+04  2.08606E+04 -2.50308E+04  4.49050E+03 -1.73504E+04 -6.74032E+03
 -6.84407E+03 -8.00049E+03 -4.44029E+02 -6.74470E+01 -3.16311E+03  3.97298E+03 -7.78517E+03  5.65689E+03
 -1.51327E+04 -1.37747E+03 -1.58673E+04 -1.26346E+04 -6.43204E+03 -2.10024E+04  7.30987E+03 -1.71500E+04
  1.41066E+04 -7.11159E+03  9.63404E+03  4.50024E+03 -3.17076E+02  6.87169E+03 -8.58048E+03 -9.83108E+01
 -8.28160E+03 -1.09131E+04 -8.88238E+02 -1.74374E+04  9.63415E+03 -1.75597E+04  2.18465E+04 -9.69508E+03
  2.58508E+04  2.92266E+03  1.91364E+04  1.59634E+04  3.52903E+03  2.09600E+04 -1.03417E+04  1.70053E+04
 -1.38098E+04  4.81114E+03 -7.07629E+03 -3.78295E+03  2.63759E+03 -4.68069E+03  9.11524E+03 -1.20657E+03
  7.91460E+03  7.74650E+03  1.28901E+03  1.38494E+04 -1.02725E+04  1.29021E+04 -1.72453E+04  2.72937E+03
 -1.19812E+04 -8.93018E+03  6.63686E+01 -1.51023E+04  9.92080E+03 -7.56923E+03  1.03838E+04  3.53521E+03
  2.86478E+03  1.11946E+04 -8.61813E+03  1.27291E+04 -1.52235E+04  5.68521E+03 -1.65395E+04 -5.75171E+03
 -9.38738E+03 -1.79920E+04  4.51802E+03 -2.07149E+04  1.70490E+04 -1.21607E+04  1.86520E+04  3.31346E+03
  1.12770E+04  1.51900E+04 -2.28782E+03  1.77223E+04 -1.25977E+04  9.71388E+03 -1.44378E+04 -1.75552E+03
 -1.15006E+04 -1.17056E+04 -1.69136E+03 -1.35546E+04  7.12051E+03 -1.09622E+04  9.15888E+03 -3.83967E+03
  5.44670E+03  2.74895E+03 -1.47228E+03  1.87426E+03 -8.78753E+02 -4.46124E+03  3.14217E+03 -8.62919E+03
  1.33680E+04 -5.20464E+03  1.85064E+04  1.89856E+03  1.75938E+04  1.23380E+04  1.11772E+04  2.41167E+04
 -5.56062E+03  2.75579E+04 -2.26356E+04  1.98731E+04 -2.96754E+04  3.88614E+03 -2.35470E+04 -1.04924E+04
 -1.18080E+04 -1.95063E+04 -2.59009E+02 -1.65798E+04  5.56537E+03 -9.48511E+03  5.86261E+03 -5.88755E+03
  4.59343E+03 -3.91382E+03  4.74294E+03 -4.36767E+03  6.86516E+03 -3.73369E+03  9.28934E+03 -2.15305E+03
  1.17863E+04  2.35586E+03  6.74631E+03  1.04209E+04 -2.17608E+03  1.36648E+04 -1.31326E+04  9.68563E+03
 -1.66410E+04 -1.21609E+03 -1.10713E+04 -1.13527E+04 -1.66075E+03 -1.84866E+04  9.83993E+03 -1.81897E+04
  1.88706E+04 -9.81157E+03  2.24227E+04  3.18000E+03  1.58801E+04  1.59043E+04  2.13836E+03  2.01811E+04
 -8.93810E+03  1.64980E+04 -1.21205E+04  5.73982E+03 -8.00512E+03 -2.34780E+03 -3.48068E+03 -2.69333E+03
 -1.39812E+03 -9.11371E+02 -2.52685E+03  3.21364E+03 -7.04724E+03  2.67767E+03 -1.15753E+04 -2.03900E+03
 -8.83627E+03 -1.11534E+04 -4.22664E+02 -1.72245E+04  1.05377E+04 -1.54302E+04  1.72860E+04 -4.93232E+03
  1.71532E+04  7.93041E+03  8.17742E+03  1.51770E+04 -3.36936E+03  1.75527E+04 -1.25755E+04  1.03984E+04
 -1.64569E+04  3.63195E+02 -1.30992E+04 -1.06260E+04 -1.87486E+03 -1.45767E+04  7.48262E+03 -1.05533E+04
  1.13821E+04 -3.49339E+03  7.69152E+03  2.90456E+03  2.54772E+03  5.46152E+03  1.20728E+03  2.68584E+03
  3.01244E+03  1.05695E+03  4.62921E+03  2.40067E+03  5.32334E+03  5.66664E+03  4.59983E+03  9.32044E+03
 -3.44542E+03  1.38400E+04 -1.20787E+04  1.32837E+04 -1.82773E+04  3.64457E+03 -1.83059E+04 -7.82063E+03
 -8.79870E+03 -1.78243E+04  2.37974E+03 -1.93413E+04  1.12847E+04 -1.24284E+04  1.43973E+04 -3.41085E+03
  1.12188E+04  7.02737E+03  2.48050E+03  1.03073E+04 -4.88323E+03  6.58306E+03 -7.51908E+03 -1.30725E+03
 -3.35853E+03 -8.09414E+03  4.48472E+03 -7.89991E+03  7.52182E+03 -3.40819E+03  7.16190E+03  1.31767E+03
  4.35829E+03  3.75714E+03  1.62938E+03  3.11900E+03 -9.94884E+02  2.78067E+03  1.70156E+03 -6.68352E+02
  3.52330E+03 -8.92591E+02  7.44396E+03  2.97530E+03  4.00958E+03  9.52893E+03 -1.22864E+03  1.22334E+04
 -8.55534E+03  8.70323E+03 -1.18852E+04  2.39955E+03 -1.01682E+04 -3.81246E+03 -4.22663E+03 -7.07678E+03
  1.16532E+03 -7.43238E+03  4.65888E+03 -3.40882E+03  4.40907E+03  3.28665E+03 -1.39455E+03  6.27177E+03
 -7.32808E+03  3.51454E+03 -8.91323E+03 -4.34410E+03 -4.90376E+03 -9.99239E+03  9.60269E+02 -9.81913E+03
  6.34378E+03 -6.41916E+03  7.52542E+03 -8.98416E+02  5.97617E+03  2.91713E+03  3.40212E+02  5.51646E+03
 -3.64947E+03  1.62361E+03 -4.44018E+03 -3.78011E+03  1.59445E+03 -8.02822E+03  9.08537E+03 -6.38510E+03
  1.17326E+04  5.89053E+02  1.12444E+04  7.95356E+03  3.94632E+03  1.25082E+04 -4.07323E+03  1.09664E+04
 -9.89229E+03  5.12209E+03 -1.03745E+04 -1.61849E+03 -5.58592E+03 -8.13318E+03  1.66605E+03 -7.46331E+03
  7.66661E+03 -3.39720E+03  6.31444E+03  3.35838E+03  2.24665E+03  6.90264E+03 -1.03058E+03  5.85047E+03
 -3.34354E+03  3.78952E+03 -2.80262E+03  1.16616E+03 -1.44760E+03  1.74331E+03 -1.66255E+03  2.26455E+03
 -3.48852E+03  5.00257E+03 -7.99898E+03  4.36121E+03 -1.19511E+04 -1.96535E+02 -1.42864E+04 -7.93611E+03
 -7.38328E+03 -1.62138E+04  2.85490E+03 -1.90268E+04  1.14216E+04 -1.49008E+04  1.76619E+04 -5.51797E+03
  1.69719E+04  3.46454E+03  1.04565E+04  1.16303E+04  1.00669E+03  1.31512E+04 -5.46526E+03  9.66077E+03
 -7.07129E+03  3.55626E+03 -4.26759E+03 -1.46170E+03 -1.59698E+03 -1.45551E+03 -5.53880E+02 -1.02105E+02
 -2.07026E+03  3.55692E+02 -2.50863E+03 -6.81829E+02 -1.30933E+03 -3.31071E+03  1.83841E+02 -4.36659E+03
  5.31921E+03 -4.03945E+03  7.99229E+03  5.90679E+02  8.68336E+03  6.84552E+03  2.72557E+03  1.29419E+04
 -5.88958E+03  1.46566E+04 -1.38622E+04  8.63649E+03 -1.60373E+04 -9.19202E+02 -1.18448E+04 -9.75898E+03
 -4.94974E+03 -1.33159E+04  3.04834E+03 -1.23548E+04  8.31598E+03 -6.56810E+03  8.88273E+03  4.32983E+01
  4.77804E+03  4.41592E+03 -4.77296E+02  3.55372E+03 -2.00990E+03 -7.90709E+01  1.79291E+02 -2.88130E+03
  4.00617E+03 -2.41830E+03  5.32826E+03  1.94074E+03  4.06285E+03  5.47394E+03 -8.57173E+01  6.79470E+03
 -5.79733E+03  6.10578E+03 -9.07385E+03  7.68248E+02 -8.08074E+03 -6.36440E+03 -1.39810E+03 -1.14964E+04
  5.96421E+03 -9.70620E+03  1.02126E+04 -2.59786E+03  1.04192E+04  2.31602E+03  6.26982E+03  8.10018E+03
  9.33476E+02  9.37041E+03 -4.01498E+03  7.15692E+03 -5.75154E+03  3.89540E+03 -4.08642E+03  3.99339E+02
 -2.57014E+03 -4.31335E+02 -2.30689E+03  1.14269E+03 -4.35653E+03  1.38262E+03 -6.72053E+03 -1.63851E+03
 -6.17787E+03 -4.73148E+03 -2.63896E+03 -8.95644E+03  4.02922E+03 -9.84421E+03  8.05999E+03 -4.52649E+03
  8.71823E+03  1.49854E+03  5.01561E+03  6.48555E+03 -3.64693E+02  9.18077E+03 -6.85958E+03  5.02933E+03
