 $NMID ID='MM_0lb_SNR800_10hz_g60_87.RAW', FMTDAT='(8E13.5)'
 TRAMP=1., VOLUME=1. $END
  3.09371E+05  1.40666E+02  3.37918E+05  2.50717E+05  8.49098E+04  3.38875E+05 -1.32643E+05  2.52118E+05
 -1.91116E+05  8.38323E+04 -1.12586E+05 -3.22999E+04  3.37444E+01 -5.03542E+04  5.38148E+04 -3.80916E+02
  3.57590E+04  5.27895E+04 -1.61751E+04  7.57479E+04 -6.14343E+04  6.43782E+04 -8.55445E+04  3.26475E+04
 -8.24535E+04 -1.15680E+04 -5.85542E+04 -5.23768E+04 -1.51800E+04 -7.11952E+04  2.81117E+04 -4.71156E+04
  4.11607E+04  3.75131E+03  1.69552E+04  4.85428E+04 -3.47704E+04  4.84936E+04 -6.79969E+04  1.23250E+02
 -5.48822E+04 -5.76866E+04 -6.93411E+03 -7.90377E+04  3.49587E+04 -5.69418E+04  4.95877E+04 -1.84500E+04
  4.54742E+04  1.15548E+04  3.30115E+04  2.68804E+04  1.59953E+04  3.04918E+04 -5.82747E+03  2.78213E+04
 -2.27836E+04  1.20690E+04 -1.81756E+04 -5.99954E+03  6.98834E+03 -7.66855E+03  2.38724E+04  1.38855E+04
  7.19865E+03  3.76942E+04 -3.42544E+04  3.72315E+04 -6.62309E+04  2.38929E+03 -5.89487E+04 -4.46472E+04
 -1.28422E+04 -6.57002E+04  4.17687E+04 -4.72633E+04  6.13180E+04 -2.43476E+03  3.66534E+04  3.43749E+04
 -5.31297E+03  3.93353E+04 -3.15408E+04  1.87030E+04 -3.34417E+04 -3.80674E+03 -1.97382E+04 -1.25558E+04
 -9.52718E+03 -1.53022E+04 -5.08590E+02 -1.93797E+04  8.41702E+03 -2.35600E+04  1.58735E+04 -1.27652E+04
  1.01894E+04  5.96237E+03 -1.06777E+04  1.27915E+04 -2.35680E+04 -6.48397E+03 -8.51335E+03 -3.75463E+04
  2.45858E+04 -4.75148E+04  5.23771E+04 -2.07222E+04  4.92301E+04  2.06034E+04  1.73172E+04  4.74144E+04
 -1.69222E+04  3.62946E+04 -2.76714E+04  2.47740E+03 -1.16543E+04 -2.96398E+04  2.17775E+04 -3.69659E+04
  4.49633E+04 -1.12580E+04  4.08020E+04  2.46716E+04  2.14166E+04  5.13868E+04 -7.88391E+03  5.63025E+04
 -3.50200E+04  3.88383E+04 -4.79291E+04  1.13053E+04 -4.80316E+04 -1.82594E+04 -2.62246E+04 -4.22051E+04
  7.78462E+03 -4.21961E+04  3.42547E+04 -1.71094E+04  3.22385E+04  1.12321E+04  5.36200E+03  2.06407E+04
 -1.40077E+04  9.88223E+03 -1.14527E+04 -7.49506E+03  5.85655E+03 -1.11071E+04  1.91740E+04  5.42611E+03
  1.49786E+04  2.28503E+04 -5.27205E+03  2.71204E+04 -2.32378E+04  1.43186E+04 -3.14408E+04 -2.95125E+03
 -2.56354E+04 -1.83927E+04 -1.11879E+04 -2.56338E+04  4.46911E+03 -2.61041E+04  2.03576E+04 -2.30156E+04
  3.23023E+04 -1.43530E+04  3.79883E+04  4.73535E+03  2.69631E+04  2.47027E+04  4.56109E+03  4.13840E+04
 -2.01742E+04  3.39008E+04 -3.02004E+04  1.17223E+04 -2.25697E+04 -9.95893E+03 -4.82940E+03 -1.30835E+04
  1.16493E+03 -1.07463E+03 -7.50517E+03  8.50140E+03 -2.05687E+04  5.00905E+03 -2.02654E+04 -9.79234E+03
 -1.19403E+04 -2.35700E+04  5.76388E+03 -2.75339E+04  1.88631E+04 -2.02674E+04  2.27142E+04 -1.96228E+03
  1.48094E+04  1.61233E+04 -1.60334E+03  2.32377E+04 -1.72361E+04  1.34351E+04 -2.40913E+04 -4.79850E+03
 -1.72824E+04 -2.06842E+04 -1.95619E+03 -2.79451E+04  1.22634E+04 -2.34751E+04  2.33929E+04 -1.21950E+04
  2.21502E+04 -1.63779E+02  1.61411E+04  4.91231E+03  8.85655E+03  1.47745E+03  1.24764E+04 -2.13173E+03
  2.21949E+04  2.59765E+03  2.55251E+04  1.79829E+04  1.77819E+04  3.75698E+04 -2.40241E+03  4.47015E+04
 -2.53698E+04  3.67095E+04 -4.18333E+04  1.90110E+04 -4.50320E+04 -3.24213E+03 -3.61072E+04 -2.61136E+04
 -1.43156E+04 -3.74478E+04  1.31232E+04 -3.24043E+04  2.78239E+04 -1.52682E+04  2.45357E+04  8.02640E+03
  7.82695E+03  1.87423E+04 -1.18502E+04  1.56062E+04 -2.02034E+04  2.30438E+03 -1.56164E+04 -1.27785E+04
  3.06579E+01 -1.93399E+04  1.08625E+04 -1.43486E+04  1.33001E+04 -1.89768E+03  3.59861E+03  8.59740E+03
 -8.59265E+03  4.33618E+03 -9.16921E+03 -6.59638E+03 -1.85533E+03 -1.81939E+04  1.20052E+04 -1.95210E+04
  2.28355E+04 -1.14986E+04  2.59969E+04  3.68837E+03  2.26989E+04  1.82352E+04  1.00419E+04  2.91235E+04
 -5.23199E+03  3.13663E+04 -2.05467E+04  1.92234E+04 -2.24891E+04  3.81141E+03 -1.52638E+04 -5.61295E+03
 -6.76548E+03 -7.29031E+03 -2.02767E+02  7.34915E+02 -2.88437E+03  3.62661E+03 -7.50138E+03  5.20096E+03
 -1.42188E+04 -1.14300E+03 -1.50405E+04 -1.19704E+04 -6.15410E+03 -1.95638E+04  6.65939E+03 -1.54580E+04
  1.29711E+04 -6.53384E+03  8.77030E+03  4.08947E+03 -4.26312E+02  5.92378E+03 -7.74460E+03  2.42522E+02
 -7.52738E+03 -9.68966E+03 -1.38782E+03 -1.56550E+04  8.82155E+03 -1.63894E+04  1.95048E+04 -8.66684E+03
  2.33151E+04  2.66076E+03  1.69348E+04  1.41369E+04  3.65184E+03  1.87941E+04 -9.41002E+03  1.52269E+04
 -1.21462E+04  4.04774E+03 -5.94952E+03 -3.77052E+03  1.83399E+03 -4.14234E+03  8.31445E+03 -1.01909E+03
  7.27470E+03  6.79830E+03  7.50846E+02  1.25547E+04 -9.52575E+03  1.19286E+04 -1.55346E+04  2.49988E+03
 -1.04304E+04 -8.54886E+03  2.60773E+02 -1.29329E+04  8.59411E+03 -6.98949E+03  9.24818E+03  3.42145E+03
  2.45868E+03  9.95603E+03 -7.86728E+03  1.13051E+04 -1.35050E+04  5.02498E+03 -1.36401E+04 -4.82369E+03
 -7.80794E+03 -1.51974E+04  3.64790E+03 -1.79949E+04  1.47482E+04 -1.08957E+04  1.66280E+04  2.79790E+03
  1.04123E+04  1.30235E+04 -1.72668E+03  1.56845E+04 -1.13781E+04  8.60425E+03 -1.25676E+04 -1.18384E+03
 -1.08211E+04 -1.01633E+04 -1.61015E+03 -1.19621E+04  6.27201E+03 -9.29395E+03  7.61057E+03 -3.50233E+03
  5.04108E+03  1.73484E+03 -1.05787E+03  2.03548E+03 -1.10566E+03 -3.72092E+03  2.51516E+03 -7.41258E+03
  1.15002E+04 -4.75438E+03  1.60403E+04  2.03388E+03  1.51515E+04  1.07281E+04  9.82494E+03  2.00616E+04
 -4.81539E+03  2.32083E+04 -1.92752E+04  1.72417E+04 -2.53979E+04  3.56155E+03 -2.00778E+04 -9.03279E+03
 -1.03224E+04 -1.70835E+04 -3.08024E+02 -1.46549E+04  5.05414E+03 -8.06632E+03  5.31565E+03 -4.86560E+03
  3.53439E+03 -3.23457E+03  4.01211E+03 -3.99334E+03  6.13980E+03 -3.58157E+03  7.74088E+03 -9.13911E+02
  1.07461E+04  2.52355E+03  5.77243E+03  9.17068E+03 -1.91579E+03  1.13368E+04 -1.13190E+04  8.17185E+03
 -1.41114E+04 -1.21911E+03 -9.39039E+03 -1.02848E+04 -1.37956E+03 -1.54926E+04  8.70537E+03 -1.55944E+04
  1.59917E+04 -8.84032E+03  1.89806E+04  2.51175E+03  1.30990E+04  1.32740E+04  1.98137E+03  1.74231E+04
 -7.14305E+03  1.35861E+04 -1.04727E+04  4.91452E+03 -7.10557E+03 -1.50649E+03 -3.04457E+03 -2.40871E+03
 -1.35932E+03  1.40341E+02 -2.17505E+03  2.94430E+03 -5.42337E+03  2.60798E+03 -9.78607E+03 -1.44716E+03
 -6.94043E+03 -9.45221E+03 -1.76256E+02 -1.45884E+04  8.97702E+03 -1.32257E+04  1.42014E+04 -4.35561E+03
  1.44011E+04  6.97640E+03  6.77751E+03  1.25900E+04 -2.63960E+03  1.45234E+04 -9.97220E+03  8.99699E+03
 -1.32545E+04  4.46186E+02 -1.02903E+04 -8.57093E+03 -1.55787E+03 -1.17474E+04  6.11261E+03 -8.85608E+03
  9.05100E+03 -2.85987E+03  5.84872E+03  2.46491E+03  2.40406E+03  4.04068E+03  1.25008E+03  1.81337E+03
  2.36155E+03  9.31272E+02  3.68554E+03  2.04064E+03  4.28358E+03  4.86038E+03  3.51473E+03  7.04357E+03
 -3.05899E+03  1.13452E+04 -9.81737E+03  1.11680E+04 -1.47019E+04  2.92460E+03 -1.48493E+04 -5.99848E+03
 -7.37263E+03 -1.40002E+04  2.12954E+03 -1.53126E+04  8.60772E+03 -1.01177E+04  1.22570E+04 -2.45847E+03
  9.35755E+03  5.43785E+03  1.96873E+03  8.32263E+03 -3.73861E+03  5.24210E+03 -5.59146E+03 -8.47296E+02
 -3.04007E+03 -6.36963E+03  3.05680E+03 -6.62365E+03  6.12263E+03 -3.00894E+03  5.62539E+03  1.18003E+03
  3.83970E+03  2.96045E+03  1.38983E+03  1.99733E+03 -5.00453E+02  2.09266E+03  1.75201E+03 -8.05559E+02
  2.24948E+03 -8.21032E+02  5.72282E+03  2.43898E+03  3.51517E+03  7.43480E+03 -9.88315E+02  1.01189E+04
 -6.91753E+03  6.78466E+03 -8.87141E+03  1.71501E+03 -8.29105E+03 -3.66407E+03 -3.49533E+03 -5.33141E+03
  7.21502E+02 -5.45486E+03  3.66509E+03 -3.14265E+03  2.87971E+03  2.73317E+03 -1.24833E+03  4.70819E+03
 -6.15833E+03  2.69314E+03 -6.96669E+03 -3.56969E+03 -3.96331E+03 -7.84568E+03  1.25851E+03 -8.24403E+03
  4.36825E+03 -4.92098E+03  5.88965E+03 -4.37957E+02  4.70584E+03  2.06374E+03  9.13121E+02  4.49656E+03
 -2.70925E+03  1.71347E+03 -3.16030E+03 -2.80932E+03  1.38593E+03 -6.00338E+03  7.25899E+03 -5.02662E+03
  8.91975E+03  7.85103E+02  8.81824E+03  6.59191E+03  2.54828E+03  9.12425E+03 -3.26879E+03  8.62425E+03
 -7.60304E+03  3.95585E+03 -7.98048E+03 -1.21939E+03 -4.06130E+03 -5.79878E+03  1.44783E+03 -5.65669E+03
  5.70900E+03 -2.61318E+03  4.77852E+03  2.60221E+03  1.64241E+03  5.09992E+03 -1.03380E+03  4.58967E+03
 -2.68098E+03  3.13044E+03 -2.22416E+03  7.49725E+02 -1.58312E+03  9.06877E+02 -1.21055E+03  1.95546E+03
 -2.54593E+03  3.47553E+03 -6.40705E+03  3.68579E+03 -9.05270E+03  2.30903E+02 -1.04156E+04 -5.91733E+03
 -5.28813E+03 -1.20389E+04  2.56856E+03 -1.37069E+04  8.83847E+03 -1.15013E+04  1.35439E+04 -4.09624E+03
  1.24804E+04  2.49525E+03  7.56125E+03  8.26691E+03  7.55341E+02  9.68532E+03 -3.46798E+03  6.84751E+03
 -5.49060E+03  2.95671E+03 -3.21134E+03 -1.08960E+03 -1.27234E+03 -3.60397E+02 -7.01723E+02 -6.49287E+01
 -1.61130E+03  6.34564E+02 -2.00638E+03 -4.60575E+02 -1.96725E+02 -2.77423E+03  1.04460E+02 -3.29002E+03
  4.28059E+03 -2.95721E+03  5.63239E+03  1.57764E+02  6.67212E+03  4.90203E+03  1.74764E+03  9.29165E+03
 -3.94036E+03  1.09233E+04 -9.93393E+03  6.21967E+03 -1.14589E+04 -8.35209E+02 -8.38171E+03 -7.12812E+03
 -3.68670E+03 -9.48674E+03  2.31862E+03 -8.87462E+03  6.00945E+03 -4.95717E+03  6.13822E+03  3.41895E+02
  3.54761E+03  3.46938E+03 -4.65001E+02  2.37861E+03 -1.99932E+03 -1.04869E+02  4.93686E+02 -2.02350E+03
  3.01239E+03 -1.45891E+03  3.72817E+03  1.40913E+03  2.48379E+03  3.83543E+03  2.72544E+01  4.96826E+03
 -4.08020E+03  4.04519E+03 -5.83556E+03  7.30153E+02 -5.40835E+03 -4.22903E+03 -9.05668E+02 -7.97589E+03
  4.11978E+03 -6.23954E+03  7.35685E+03 -2.15547E+03  7.26166E+03  1.50912E+03  3.93385E+03  5.76445E+03
  8.18776E+02  6.12410E+03 -2.15674E+03  5.04902E+03 -3.92707E+03  3.06031E+03 -3.09786E+03  1.58023E+02
 -1.43296E+03 -5.26350E+02 -1.70110E+03  3.90104E+02 -3.45733E+03  1.14978E+03 -4.94507E+03 -7.47797E+02
 -4.68156E+03 -3.15045E+03 -1.57595E+03 -6.37979E+03  2.76417E+03 -6.53971E+03  5.44817E+03 -3.26480E+03
  6.18116E+03  7.25477E+02  3.40734E+03  4.18164E+03 -5.23068E+02  6.11709E+03 -4.64020E+03  4.32591E+03
