 $NMID ID='MM_0lb_SNR800_14hz_g50_91.RAW', FMTDAT='(8E13.5)'
 TRAMP=1., VOLUME=1. $END
  3.09886E+05  5.46092E+02  3.37717E+05  2.50324E+05  8.44897E+04  3.37596E+05 -1.32570E+05  2.51146E+05
 -1.90233E+05  8.33949E+04 -1.11982E+05 -3.28696E+04  1.02609E+03 -5.03352E+04  5.38701E+04 -2.60100E+02
  3.51605E+04  5.29775E+04 -1.65974E+04  7.54408E+04 -6.08152E+04  6.35464E+04 -8.42823E+04  3.20335E+04
 -8.10159E+04 -1.13998E+04 -5.73137E+04 -5.12740E+04 -1.50196E+04 -6.96771E+04  2.74102E+04 -4.61344E+04
  3.97119E+04  3.65160E+03  1.63240E+04  4.80216E+04 -3.44860E+04  4.69931E+04 -6.67274E+04 -7.80210E+01
 -5.36431E+04 -5.70773E+04 -6.47913E+03 -7.70205E+04  3.39691E+04 -5.51679E+04  4.80039E+04 -1.76824E+04
  4.31179E+04  1.13451E+04  3.17312E+04  2.52160E+04  1.60578E+04  2.95067E+04 -5.27041E+03  2.70903E+04
 -2.18502E+04  1.23738E+04 -1.85931E+04 -5.23393E+03  5.91878E+03 -7.56066E+03  2.22130E+04  1.27261E+04
  7.70757E+03  3.56155E+04 -3.21544E+04  3.57604E+04 -6.35176E+04  2.02786E+03 -5.70277E+04 -4.28300E+04
 -1.24853E+04 -6.35234E+04  3.98938E+04 -4.53455E+04  5.83927E+04 -2.34654E+03  3.43869E+04  3.23835E+04
 -5.90388E+03  3.60645E+04 -3.02514E+04  1.61908E+04 -3.03195E+04 -4.48334E+03 -1.62767E+04 -1.10158E+04
 -8.37896E+03 -1.29388E+04 -6.94178E+02 -1.83318E+04  7.67742E+03 -2.29501E+04  1.54644E+04 -1.32183E+04
  1.13675E+04  5.23767E+03 -8.53237E+03  1.27962E+04 -2.12398E+04 -4.52568E+03 -8.18203E+03 -3.39267E+04
  2.28098E+04 -4.37126E+04  4.83350E+04 -1.96451E+04  4.49670E+04  1.97399E+04  1.56554E+04  4.41545E+04
 -1.59527E+04  3.34121E+04 -2.55071E+04  1.77831E+03 -9.94481E+03 -2.76918E+04  2.09721E+04 -3.40381E+04
  4.08568E+04 -9.22731E+03  3.55479E+04  2.39856E+04  1.85645E+04  4.65870E+04 -8.22597E+03  5.04063E+04
 -3.17288E+04  3.41843E+04 -4.18827E+04  9.66412E+03 -4.26280E+04 -1.68945E+04 -2.37530E+04 -3.81449E+04
  7.18247E+03 -3.79649E+04  3.18938E+04 -1.45110E+04  2.93994E+04  1.09773E+04  3.99628E+03  1.88468E+04
 -1.33755E+04  8.23662E+03 -1.02698E+04 -7.56408E+03  6.13745E+03 -1.08593E+04  1.79429E+04  6.10978E+03
  1.33324E+04  2.20765E+04 -5.87372E+03  2.51123E+04 -2.26704E+04  1.16249E+04 -2.77002E+04 -4.56791E+03
 -2.07954E+04 -1.73830E+04 -8.44729E+03 -2.05415E+04  4.20036E+03 -1.97878E+04  1.60421E+04 -1.82320E+04
  2.60668E+04 -1.27180E+04  3.24108E+04  3.08404E+03  2.39010E+04  1.99336E+04  4.29038E+03  3.65001E+04
 -1.75329E+04  3.04670E+04 -2.79194E+04  1.08261E+04 -2.11277E+04 -1.01710E+04 -4.53609E+03 -1.35207E+04
  1.81792E+03 -2.68130E+03 -4.94355E+03  6.78407E+03 -1.65598E+04  5.27131E+03 -1.63670E+04 -6.79780E+03
 -1.00002E+04 -1.93009E+04  5.31111E+03 -2.32426E+04  1.54659E+04 -1.65757E+04  1.83661E+04 -1.45880E+03
  1.15577E+04  1.32713E+04 -1.00835E+03  1.94813E+04 -1.33747E+04  1.11732E+04 -1.89275E+04 -4.13936E+03
 -1.40629E+04 -1.74347E+04 -1.68218E+03 -2.28508E+04  1.04776E+04 -1.90142E+04  1.91911E+04 -9.32384E+03
  1.79557E+04  2.60603E+02  1.29427E+04  4.41589E+03  6.71380E+03  1.07034E+03  9.58574E+03 -1.56735E+03
  1.75157E+04  2.44435E+03  1.95014E+04  1.50182E+04  1.25310E+04  3.05395E+04 -2.73624E+03  3.45433E+04
 -2.00936E+04  2.77947E+04 -3.20907E+04  1.37625E+04 -3.38564E+04 -2.25075E+03 -2.77780E+04 -1.94818E+04
 -1.22394E+04 -2.78611E+04  9.65611E+03 -2.49897E+04  2.14075E+04 -1.28218E+04  1.93119E+04  5.34219E+03
  7.18358E+03  1.49386E+04 -9.01688E+03  1.26021E+04 -1.62078E+04  2.42762E+03 -1.26158E+04 -9.84801E+03
 -2.88053E+02 -1.53130E+04  8.06300E+03 -1.15293E+04  1.02549E+04 -1.57959E+03  2.03458E+03  6.55385E+03
 -6.92259E+03  2.47706E+03 -6.35928E+03 -5.65890E+03 -5.82021E+02 -1.36309E+04  9.61307E+03 -1.42443E+04
  1.70938E+04 -7.37903E+03  1.81201E+04  3.08520E+03  1.57503E+04  1.33363E+04  7.22461E+03  2.03394E+04
 -3.29314E+03  2.24674E+04 -1.41631E+04  1.39653E+04 -1.61224E+04  3.33327E+03 -1.14016E+04 -3.57119E+03
 -5.31172E+03 -5.12548E+03 -6.86635E+02  1.04751E+03 -2.54519E+03  2.55767E+03 -5.58906E+03  4.27828E+03
 -1.02387E+04 -7.64905E+02 -1.08984E+04 -9.33809E+03 -4.39321E+03 -1.50891E+04  4.77773E+03 -1.16926E+04
  9.27914E+03 -4.74020E+03  6.66383E+03  3.05657E+03  1.47581E+02  4.51766E+03 -5.20260E+03 -5.83498E+01
 -5.28468E+03 -7.44799E+03 -1.24763E+03 -1.04476E+04  6.31962E+03 -1.13591E+04  1.39072E+04 -6.27276E+03
  1.67137E+04  1.60321E+03  1.22103E+04  9.81633E+03  2.24471E+03  1.31773E+04 -7.24436E+03  1.11009E+04
 -9.42096E+03  3.36493E+03 -4.61938E+03 -2.21014E+03  1.74695E+03 -2.94553E+03  5.99386E+03 -8.44279E+02
  5.28843E+03  4.79851E+03  1.19020E+03  9.02406E+03 -6.36117E+03  8.82928E+03 -1.12070E+04  2.24036E+03
 -7.35190E+03 -5.43464E+03  4.16582E+02 -9.58161E+03  5.92143E+03 -4.77788E+03  5.69919E+03  1.91675E+03
  1.27104E+03  5.90351E+03 -5.62705E+03  7.56049E+03 -8.24937E+03  3.36346E+03 -8.16773E+03 -2.59979E+03
 -5.03375E+03 -9.99492E+03  2.05198E+03 -1.10612E+04  9.67029E+03 -6.91927E+03  1.07435E+04  1.81965E+03
  6.77501E+03  8.18920E+03 -7.32143E+02  1.05252E+04 -7.68138E+03  5.84303E+03 -8.25478E+03 -1.09615E+03
 -7.80803E+03 -7.37079E+03 -1.27601E+03 -7.59622E+03  3.99863E+03 -6.37420E+03  4.84180E+03 -2.94110E+03
  4.06509E+03  7.98350E+02 -3.23031E+02  1.83808E+03 -1.55235E+01 -1.38798E+03  1.20614E+03 -3.87805E+03
  7.02021E+03 -2.31705E+03  9.83826E+03  9.69576E+02  9.32686E+03  6.18205E+03  7.39543E+03  1.21744E+04
 -2.45800E+03  1.42905E+04 -1.24487E+04  1.06245E+04 -1.62034E+04  1.95474E+03 -1.27081E+04 -5.07126E+03
 -6.87196E+03 -1.07511E+04 -2.75261E+02 -8.80069E+03  3.12201E+03 -4.68006E+03  2.99334E+03 -3.47759E+03
  2.14945E+03 -2.19332E+03  3.12372E+03 -2.77344E+03  4.13179E+03 -2.32704E+03  5.47395E+03 -3.91316E+02
  6.53062E+03  1.90116E+03  2.84387E+03  5.59139E+03 -1.86396E+03  5.90434E+03 -6.78735E+03  4.63612E+03
 -8.67316E+03 -9.64524E+02 -4.61214E+03 -5.94405E+03 -3.11625E+02 -9.00205E+03  5.28394E+03 -9.32970E+03
  9.15398E+03 -5.13923E+03  1.14285E+04  1.18546E+03  7.94567E+03  7.24678E+03  1.81448E+03  1.03870E+04
 -3.89406E+03  8.70567E+03 -5.67861E+03  3.23860E+03 -3.55488E+03 -1.23614E+03 -1.25399E+03 -1.18535E+03
 -6.88536E+02  7.34431E+01 -1.23225E+03  2.36559E+03 -4.06561E+03  1.32097E+03 -6.28517E+03 -7.33490E+02
 -3.56231E+03 -6.20491E+03  7.75805E+02 -7.88202E+03  4.95105E+03 -7.63611E+03  7.61435E+03 -2.06848E+03
  7.69515E+03  3.66288E+03  3.77175E+03  6.97232E+03 -1.49712E+03  7.77554E+03 -5.38114E+03  5.06879E+03
 -7.38820E+03  8.29550E+02 -6.05269E+03 -4.71867E+03 -3.49859E+02 -6.21282E+03  3.37653E+03 -4.69686E+03
  4.80208E+03 -1.71169E+03  3.21892E+03  1.13368E+03  7.71685E+02  2.60097E+03  9.61810E+02  1.19849E+03
  1.95606E+03  7.10808E+02  2.15176E+03  1.32271E+03  2.26437E+03  3.27783E+03  2.02497E+03  3.80781E+03
 -1.49537E+03  5.79901E+03 -4.80112E+03  6.48305E+03 -7.28599E+03  1.66526E+03 -8.04464E+03 -2.81130E+03
 -3.83795E+03 -7.49530E+03  1.22884E+03 -8.84210E+03  4.04861E+03 -5.33643E+03  6.19819E+03 -1.27262E+03
  5.03561E+03  2.86218E+03  9.10691E+02  4.32727E+03 -1.70020E+03  2.75505E+03 -2.70452E+03 -4.56821E+02
 -1.23156E+03 -3.08119E+03  1.79901E+03 -3.50950E+03  2.81824E+03 -1.68061E+03  3.04976E+03  9.01840E+02
  1.68467E+03  1.16224E+03  9.59545E+02  6.76285E+02 -5.94254E+02  8.21255E+02  1.44634E+03 -3.30200E+02
  6.93637E+02 -3.93246E+02  3.03964E+03  1.19422E+03  1.53709E+03  4.20651E+03 -4.88340E+02  5.48146E+03
 -3.50179E+03  3.06029E+03 -4.77961E+03  7.23248E+02 -4.14900E+03 -1.85390E+03 -1.33555E+03 -2.41937E+03
  9.09536E+02 -2.80149E+03  2.04196E+03 -1.51595E+03  1.59275E+03  1.98341E+03 -9.36881E+02  2.45478E+03
 -2.97031E+03  1.41328E+03 -3.28501E+03 -2.39224E+03 -1.70855E+03 -4.08959E+03  1.63926E+02 -3.89318E+03
  2.14217E+03 -1.82139E+03  2.38963E+03 -5.91283E+01  2.48673E+03  2.93891E+02  4.81175E+02  2.05112E+03
 -7.74515E+02  5.26952E+02 -1.79502E+03 -1.35324E+03  7.44276E+02 -2.53713E+03  3.36804E+03 -2.50532E+03
  3.80097E+03  3.29751E+02  4.60472E+03  2.88399E+03  1.56499E+03  4.47393E+03 -8.01963E+02  4.02734E+03
 -3.14701E+03  1.52405E+03 -3.62212E+03 -6.01574E+02 -2.07523E+03 -3.16088E+03  9.88968E+02 -1.94430E+03
  2.96293E+03 -1.31357E+03  2.20706E+03  1.32861E+03  7.37911E+02  2.56089E+03 -1.52796E+01  2.38195E+03
 -1.01857E+03  1.98323E+03 -8.35051E+02  2.66761E+02 -5.04685E+02  6.77202E+02 -8.36813E+02  7.36331E+02
 -8.88257E+02  1.75525E+03 -3.28864E+03  1.42865E+03 -4.19992E+03  9.33316E+01 -5.07855E+03 -2.67383E+03
 -2.17043E+03 -5.50953E+03  1.04510E+03 -6.77388E+03  3.34669E+03 -5.23265E+03  6.17565E+03 -2.33783E+03
  5.61874E+03  8.01186E+02  3.36232E+03  3.74916E+03  2.91112E+02  4.01890E+03 -1.82782E+03  3.01908E+03
 -2.29233E+03  1.54513E+03 -1.34301E+03 -5.11479E+02 -8.65258E+02  7.09798E+01 -8.15164E+02  2.70959E+01
 -1.71723E+03 -1.38127E+02 -1.32383E+03 -8.22702E+01  2.98168E+01 -1.16138E+03 -1.81846E+02 -1.69830E+03
  2.22663E+03 -1.38803E+03  2.24640E+03  3.31496E+02  3.05100E+03  2.37447E+03  4.86007E+02  4.00738E+03
 -1.88758E+03  5.13175E+03 -4.16582E+03  2.71988E+03 -4.57179E+03 -1.17498E+02 -3.29635E+03 -3.35090E+03
 -1.62026E+03 -3.69668E+03  1.16418E+03 -3.27116E+03  2.22843E+03 -1.67148E+03  2.40003E+03  1.68719E+02
  1.49210E+03  9.50546E+02  3.86494E+01  1.13436E+03 -8.17270E+02 -1.01818E+02 -2.16005E+02 -8.98146E+02
  1.28461E+03 -4.47161E+02  1.34913E+03  6.34654E+02  6.08108E+02  1.51276E+03 -2.55262E+01  1.95599E+03
 -1.76198E+03  1.58790E+03 -2.16277E+03  5.11677E+02 -2.29538E+03 -1.59893E+03 -3.89918E+02 -3.23492E+03
  1.76875E+03 -2.21709E+03  2.46024E+03 -5.97181E+02  3.18194E+03  9.03509E+01  1.68406E+03  2.05592E+03
  6.25564E+02  2.23762E+03 -6.63260E+02  1.76069E+03 -1.55363E+03  1.27957E+03 -1.11047E+03  1.08989E+01
 -8.41619E+02  1.11574E+02 -7.54849E+02  3.22899E+02 -1.27681E+03  3.43935E+02 -1.75881E+03 -2.80274E+02
 -2.46427E+03 -6.66125E+02 -4.15067E+02 -2.52568E+03  1.74501E+03 -2.80928E+03  2.12140E+03 -8.16651E+02
  2.15653E+03  7.93336E+01  8.03941E+02  1.52280E+03 -2.82532E+02  2.82957E+03 -1.43717E+03  1.65495E+03
