 $NMID ID='MM_0lb_SNR800_11hz_g60_37.RAW', FMTDAT='(8E13.5)'
 TRAMP=1., VOLUME=1. $END
  3.09912E+05  2.58452E+02  3.37812E+05  2.50796E+05  8.44147E+04  3.38676E+05 -1.32566E+05  2.51759E+05
 -1.90574E+05  8.36242E+04 -1.12686E+05 -3.24095E+04  3.91376E+02 -5.06917E+04  5.35649E+04 -4.98279E+02
  3.60727E+04  5.34886E+04 -1.65919E+04  7.62661E+04 -6.13226E+04  6.46816E+04 -8.52244E+04  3.27610E+04
 -8.21578E+04 -1.20287E+04 -5.86312E+04 -5.21695E+04 -1.53266E+04 -7.08134E+04  2.81858E+04 -4.68067E+04
  4.13429E+04  3.96776E+03  1.69956E+04  4.83043E+04 -3.49092E+04  4.81224E+04 -6.79630E+04 -3.28855E+02
 -5.47919E+04 -5.76707E+04 -7.16818E+03 -7.88015E+04  3.47024E+04 -5.68109E+04  4.97448E+04 -1.82441E+04
  4.50787E+04  1.13086E+04  3.28833E+04  2.61039E+04  1.59411E+04  3.03735E+04 -5.89732E+03  2.74473E+04
 -2.26319E+04  1.19177E+04 -1.81340E+04 -5.71333E+03  6.86951E+03 -7.47685E+03  2.35771E+04  1.36399E+04
  7.20159E+03  3.71690E+04 -3.34913E+04  3.71621E+04 -6.57590E+04  1.99890E+03 -5.91790E+04 -4.41546E+04
 -1.28699E+04 -6.53942E+04  4.11051E+04 -4.72288E+04  6.07414E+04 -2.51459E+03  3.64268E+04  3.45035E+04
 -5.58841E+03  3.90476E+04 -3.15305E+04  1.86450E+04 -3.29348E+04 -3.80749E+03 -1.89256E+04 -1.19249E+04
 -9.51664E+03 -1.45558E+04 -2.52474E+02 -2.01105E+04  8.14783E+03 -2.33428E+04  1.58308E+04 -1.25557E+04
  1.00605E+04  6.18333E+03 -1.00619E+04  1.30829E+04 -2.34592E+04 -6.31509E+03 -8.80987E+03 -3.70050E+04
  2.48359E+04 -4.66201E+04  5.17180E+04 -2.08952E+04  4.84066E+04  2.06177E+04  1.68338E+04  4.65167E+04
 -1.65838E+04  3.57022E+04 -2.78535E+04  2.32714E+03 -1.11942E+04 -2.94414E+04  2.15020E+04 -3.64133E+04
  4.46112E+04 -1.05188E+04  3.96869E+04  2.47982E+04  2.10365E+04  5.02312E+04 -8.23126E+03  5.55100E+04
 -3.51276E+04  3.78696E+04 -4.68596E+04  1.10972E+04 -4.66788E+04 -1.84148E+04 -2.59006E+04 -4.14569E+04
  7.40519E+03 -4.16384E+04  3.40609E+04 -1.71694E+04  3.16017E+04  1.11766E+04  5.24216E+03  2.09748E+04
 -1.37880E+04  9.47724E+03 -1.10579E+04 -7.61667E+03  5.89487E+03 -1.15700E+04  1.87578E+04  5.76855E+03
  1.46670E+04  2.27656E+04 -5.49777E+03  2.69681E+04 -2.34489E+04  1.39022E+04 -3.10330E+04 -3.56766E+03
 -2.45945E+04 -1.84088E+04 -1.12521E+04 -2.41571E+04  4.31208E+03 -2.50982E+04  1.93922E+04 -2.23666E+04
  3.12552E+04 -1.38126E+04  3.71432E+04  4.68352E+03  2.65295E+04  2.32041E+04  4.26851E+03  4.06287E+04
 -1.95138E+04  3.34649E+04 -3.03719E+04  1.14381E+04 -2.20530E+04 -1.01668E+04 -4.72881E+03 -1.28835E+04
  1.00016E+03 -1.53640E+03 -7.38337E+03  8.36704E+03 -1.95686E+04  5.27547E+03 -1.98382E+04 -9.30987E+03
 -1.14662E+04 -2.29271E+04  6.14356E+03 -2.67870E+04  1.81482E+04 -1.88613E+04  2.22600E+04 -1.59498E+03
  1.36761E+04  1.59537E+04 -9.41732E+02  2.27613E+04 -1.58032E+04  1.30549E+04 -2.27180E+04 -4.46616E+03
 -1.67762E+04 -2.02328E+04 -1.87968E+03 -2.66786E+04  1.25311E+04 -2.26071E+04  2.22422E+04 -1.12814E+04
  2.13474E+04 -1.95071E+02  1.52730E+04  5.37186E+03  8.31007E+03  1.48386E+03  1.18490E+04 -1.77981E+03
  2.08732E+04  3.00668E+03  2.43837E+04  1.79004E+04  1.67664E+04  3.64343E+04 -2.89660E+03  4.24456E+04
 -2.41165E+04  3.49990E+04 -3.99549E+04  1.80615E+04 -4.30109E+04 -2.75047E+03 -3.46651E+04 -2.44490E+04
 -1.42020E+04 -3.51641E+04  1.20528E+04 -3.11709E+04  2.64570E+04 -1.46925E+04  2.29141E+04  7.27446E+03
  8.23678E+03  1.79574E+04 -1.10154E+04  1.51076E+04 -1.90451E+04  2.59325E+03 -1.45818E+04 -1.21660E+04
 -2.44038E+02 -1.87065E+04  9.96944E+03 -1.37534E+04  1.30656E+04 -1.53812E+03  3.00597E+03  8.28512E+03
 -8.20565E+03  3.82898E+03 -8.55049E+03 -6.57220E+03 -1.64168E+03 -1.70812E+04  1.15876E+04 -1.83982E+04
  2.17009E+04 -1.03335E+04  2.41811E+04  2.93638E+03  2.17585E+04  1.74540E+04  1.00158E+04  2.70788E+04
 -5.17705E+03  2.90883E+04 -1.90990E+04  1.80086E+04 -2.10475E+04  4.03554E+03 -1.44521E+04 -5.30259E+03
 -5.96656E+03 -6.48831E+03 -5.49080E+02  4.95066E+02 -3.27823E+03  3.16013E+03 -6.66497E+03  4.94225E+03
 -1.35826E+04 -6.49720E+02 -1.38016E+04 -1.14126E+04 -5.82963E+03 -1.88121E+04  5.92045E+03 -1.49602E+04
  1.22647E+04 -6.22602E+03  8.68802E+03  3.69787E+03  1.19103E+02  5.77987E+03 -7.20279E+03 -9.58248E+01
 -6.61144E+03 -9.71855E+03 -9.95368E+02 -1.42823E+04  8.25125E+03 -1.52845E+04  1.90130E+04 -8.40761E+03
  2.20729E+04  2.07270E+03  1.62310E+04  1.35248E+04  3.21644E+03  1.76260E+04 -9.22965E+03  1.41814E+04
 -1.15113E+04  4.49057E+03 -6.00888E+03 -3.31305E+03  2.15722E+03 -4.29921E+03  7.65922E+03 -1.39624E+03
  7.20448E+03  6.40508E+03  1.15823E+03  1.16014E+04 -8.43163E+03  1.15052E+04 -1.42943E+04  2.76573E+03
 -9.95877E+03 -7.46262E+03  2.47524E+02 -1.19768E+04  8.02333E+03 -6.13857E+03  8.44158E+03  3.16106E+03
  1.80153E+03  8.99881E+03 -7.71862E+03  1.06106E+04 -1.19147E+04  4.79593E+03 -1.27493E+04 -4.18133E+03
 -7.12081E+03 -1.43465E+04  3.08377E+03 -1.65540E+04  1.42408E+04 -9.91587E+03  1.53696E+04  2.76856E+03
  9.33251E+03  1.19656E+04 -1.10796E+03  1.46755E+04 -1.01563E+04  7.93456E+03 -1.15182E+04 -9.94031E+02
 -1.01243E+04 -9.64054E+03 -1.99603E+03 -1.08333E+04  5.89078E+03 -8.65249E+03  7.20388E+03 -3.69076E+03
  4.87894E+03  1.90593E+03 -8.76020E+02  1.98055E+03 -5.09807E+02 -2.94957E+03  2.15897E+03 -6.28489E+03
  1.02379E+04 -4.35122E+03  1.41651E+04  1.78907E+03  1.42582E+04  9.54583E+03  9.47584E+03  1.86070E+04
 -4.00597E+03  2.16582E+04 -1.79846E+04  1.57473E+04 -2.30344E+04  2.99253E+03 -1.85642E+04 -7.85079E+03
 -9.05008E+03 -1.50609E+04 -4.46832E+02 -1.30146E+04  4.55717E+03 -7.29762E+03  4.40178E+03 -4.87510E+03
  3.52479E+03 -2.97768E+03  3.33552E+03 -3.49242E+03  5.33338E+03 -3.22715E+03  7.12513E+03 -5.00946E+02
  9.94225E+03  2.29798E+03  5.18466E+03  8.34546E+03 -2.21762E+03  9.65272E+03 -1.00152E+04  7.46963E+03
 -1.31686E+04 -1.04306E+03 -8.28885E+03 -9.11604E+03 -6.69536E+02 -1.41523E+04  7.75631E+03 -1.37826E+04
  1.41579E+04 -7.94909E+03  1.71019E+04  2.42334E+03  1.18944E+04  1.19392E+04  1.94459E+03  1.53355E+04
 -6.16606E+03  1.27335E+04 -9.24705E+03  4.21872E+03 -6.32411E+03 -1.60573E+03 -2.43904E+03 -1.86612E+03
 -1.54181E+03  2.07288E+02 -2.18177E+03  2.89144E+03 -5.58446E+03  1.95925E+03 -9.23865E+03 -1.31736E+03
 -6.40153E+03 -9.22103E+03  1.50505E+02 -1.26404E+04  8.12616E+03 -1.16284E+04  1.22524E+04 -3.42693E+03
  1.27027E+04  6.18364E+03  5.53423E+03  1.11783E+04 -2.50629E+03  1.25966E+04 -9.20397E+03  8.06556E+03
 -1.15640E+04  4.90255E+02 -9.05424E+03 -7.87886E+03 -9.03174E+02 -1.04759E+04  5.64809E+03 -7.87877E+03
  7.76934E+03 -2.48123E+03  5.59513E+03  2.23642E+03  1.80520E+03  3.58986E+03  1.15931E+03  1.63543E+03
  2.91584E+03  9.44698E+02  2.89259E+03  1.65276E+03  3.75185E+03  4.58093E+03  3.39464E+03  6.58775E+03
 -2.64815E+03  9.78948E+03 -8.62409E+03  9.62346E+03 -1.25079E+04  2.31625E+03 -1.32408E+04 -4.90595E+03
 -6.60394E+03 -1.24747E+04  1.68905E+03 -1.34584E+04  7.61544E+03 -8.72095E+03  1.03567E+04 -2.68017E+03
  7.85021E+03  5.01621E+03  1.59819E+03  7.57770E+03 -3.28878E+03  4.59403E+03 -5.11896E+03 -8.30193E+02
 -2.27312E+03 -5.61981E+03  2.74402E+03 -5.61834E+03  5.38750E+03 -2.79360E+03  5.14241E+03  1.27003E+03
  2.99992E+03  2.50158E+03  1.23274E+03  1.84710E+03 -1.06366E+03  1.83796E+03  1.34558E+03 -8.03763E+02
  1.78912E+03 -5.32778E+02  4.88170E+03  2.10434E+03  2.85099E+03  6.77944E+03 -1.39547E+03  8.45103E+03
 -5.94748E+03  5.63547E+03 -7.94424E+03  2.02487E+03 -7.19865E+03 -2.72396E+03 -2.62089E+03 -4.92970E+03
  1.09965E+03 -4.34557E+03  2.95087E+03 -2.13689E+03  2.66843E+03  2.56828E+03 -1.29760E+03  4.30891E+03
 -5.48021E+03  2.59638E+03 -5.77977E+03 -3.16077E+03 -2.90998E+03 -6.80046E+03  9.09256E+02 -7.01659E+03
  3.82444E+03 -3.93777E+03  4.63496E+03 -6.84660E+02  4.03487E+03  1.65630E+03  5.23411E+02  3.48648E+03
 -2.34805E+03  1.06817E+03 -2.53716E+03 -2.28442E+03  1.04363E+03 -5.01005E+03  6.13349E+03 -4.21878E+03
  8.05426E+03  8.20776E+02  7.91838E+03  5.35115E+03  2.12881E+03  8.06077E+03 -2.63044E+03  7.52964E+03
 -6.01633E+03  3.16862E+03 -6.80194E+03 -9.93126E+02 -3.49930E+03 -5.09687E+03  7.31082E+02 -4.63730E+03
  4.88206E+03 -2.28644E+03  3.83132E+03  2.25866E+03  1.18515E+03  3.98394E+03 -7.50646E+02  4.14751E+03
 -1.84621E+03  2.58912E+03 -1.85585E+03  4.96369E+02 -7.56254E+02  7.12289E+02 -1.30585E+03  1.73143E+03
 -1.84767E+03  2.87092E+03 -5.55403E+03  2.63051E+03 -7.47415E+03  3.81867E+02 -9.19999E+03 -5.41056E+03
 -4.60770E+03 -1.03143E+04  1.71109E+03 -1.19984E+04  7.01082E+03 -8.98462E+03  1.13645E+04 -3.55913E+03
  1.03770E+04  1.75275E+03  6.46868E+03  7.26496E+03  5.71985E+02  7.50710E+03 -3.18657E+03  5.85975E+03
 -4.17947E+03  1.95448E+03 -2.81855E+03 -8.89157E+02 -1.04043E+03 -5.13929E+02 -8.44582E+02  2.80375E+02
 -1.45769E+03  2.75585E+02 -1.52266E+03 -3.42492E+02 -5.64232E+02 -2.12452E+03  3.07395E+02 -2.77260E+03
  3.67166E+03 -2.65789E+03  4.62940E+03 -1.74712E+02  5.24848E+03  4.33647E+03  1.40009E+03  7.36405E+03
 -3.92844E+03  8.92577E+03 -7.95953E+03  5.16160E+03 -9.73741E+03 -5.55073E+02 -7.07694E+03 -5.69914E+03
 -3.02598E+03 -7.68115E+03  1.76223E+03 -7.18580E+03  4.63327E+03 -4.01399E+03  5.27130E+03  5.30168E+01
  3.01955E+03  2.45806E+03 -3.34074E+02  2.01815E+03 -1.66937E+03 -5.84559E+02  7.33643E+01 -1.74556E+03
  2.24026E+03 -6.42014E+02  3.05796E+03  1.03106E+03  2.02273E+03  2.92473E+03  1.70346E+02  4.01031E+03
 -3.32993E+03  3.80561E+03 -5.05828E+03  2.62461E+02 -4.32950E+03 -3.77252E+03 -7.84806E+02 -6.36759E+03
  3.47815E+03 -4.88067E+03  5.72921E+03 -1.96106E+03  5.58049E+03  1.03250E+03  3.38608E+03  4.65955E+03
  3.18052E+02  4.84641E+03 -2.18511E+03  3.87809E+03 -2.76361E+03  2.57735E+03 -2.55261E+03  3.02931E+02
 -1.32399E+03 -8.08848E+01 -1.24869E+03  1.13602E+03 -2.59686E+03  9.87455E+02 -3.85271E+03 -7.21335E+02
 -3.63480E+03 -2.55363E+03 -8.54162E+02 -5.10765E+03  2.22180E+03 -5.78386E+03  4.26901E+03 -2.74524E+03
  4.88552E+03  6.14527E+02  2.61659E+03  3.08968E+03 -3.87292E+02  5.30216E+03 -3.78603E+03  3.17789E+03
