 $NMID ID='MM_0lb_SNR800_15hz_g60_13.RAW', FMTDAT='(8E13.5)'
 TRAMP=1., VOLUME=1. $END
  3.09863E+05  6.29500E+02  3.37576E+05  2.50753E+05  8.49549E+04  3.38250E+05 -1.32627E+05  2.51321E+05
 -1.90308E+05  8.35583E+04 -1.11768E+05 -3.25621E+04  8.97950E+02 -5.04632E+04  5.36193E+04 -5.41612E+02
  3.53193E+04  5.29834E+04 -1.67479E+04  7.57502E+04 -6.06247E+04  6.36612E+04 -8.43275E+04  3.23194E+04
 -8.13252E+04 -1.16004E+04 -5.72226E+04 -5.18068E+04 -1.50233E+04 -6.99084E+04  2.76215E+04 -4.60523E+04
  4.03900E+04  3.55600E+03  1.60903E+04  4.81561E+04 -3.42404E+04  4.73985E+04 -6.72236E+04 -2.90523E+02
 -5.39404E+04 -5.70894E+04 -6.96305E+03 -7.73243E+04  3.39415E+04 -5.55676E+04  4.82178E+04 -1.78208E+04
  4.42132E+04  1.16262E+04  3.21766E+04  2.59045E+04  1.61786E+04  2.94472E+04 -5.22146E+03  2.72817E+04
 -2.17687E+04  1.24771E+04 -1.86071E+04 -5.07815E+03  5.92762E+03 -7.36509E+03  2.25326E+04  1.25807E+04
  6.88811E+03  3.58398E+04 -3.23888E+04  3.57426E+04 -6.38355E+04  2.29772E+03 -5.72469E+04 -4.28266E+04
 -1.30448E+04 -6.35829E+04  3.99989E+04 -4.58945E+04  5.92591E+04 -2.50957E+03  3.47774E+04  3.30288E+04
 -6.05354E+03  3.66366E+04 -3.02641E+04  1.66214E+04 -3.06654E+04 -4.27753E+03 -1.72163E+04 -1.10828E+04
 -8.69267E+03 -1.37735E+04 -3.72135E+02 -1.82687E+04  7.79474E+03 -2.31348E+04  1.62154E+04 -1.32339E+04
  1.09775E+04  5.43287E+03 -8.42989E+03  1.27180E+04 -2.15411E+04 -5.00945E+03 -8.57985E+03 -3.44375E+04
  2.30066E+04 -4.40847E+04  4.84954E+04 -1.95505E+04  4.55089E+04  2.00085E+04  1.60150E+04  4.44204E+04
 -1.62088E+04  3.39543E+04 -2.60405E+04  2.01215E+03 -1.02123E+04 -2.79335E+04  2.09806E+04 -3.45337E+04
  4.17761E+04 -9.54625E+03  3.64552E+04  2.38472E+04  1.88392E+04  4.72981E+04 -7.85473E+03  5.10450E+04
 -3.21781E+04  3.44160E+04 -4.29855E+04  9.61750E+03 -4.33360E+04 -1.69881E+04 -2.35718E+04 -3.85514E+04
  7.37527E+03 -3.85484E+04  3.20252E+04 -1.52300E+04  2.97605E+04  1.10279E+04  3.86278E+03  1.95094E+04
 -1.38136E+04  8.27674E+03 -1.04115E+04 -7.94961E+03  5.74733E+03 -1.10058E+04  1.80480E+04  5.94574E+03
  1.37717E+04  2.24013E+04 -6.02539E+03  2.53866E+04 -2.23896E+04  1.22570E+04 -2.87500E+04 -4.39055E+03
 -2.13304E+04 -1.75041E+04 -8.93121E+03 -2.08016E+04  3.92066E+03 -2.04037E+04  1.64401E+04 -1.87090E+04
  2.65438E+04 -1.29127E+04  3.30972E+04  2.89588E+03  2.42515E+04  2.04529E+04  4.10612E+03  3.70495E+04
 -1.80944E+04  3.07146E+04 -2.84874E+04  1.06437E+04 -2.09356E+04 -1.02093E+04 -4.46709E+03 -1.33406E+04
  1.65694E+03 -2.49139E+03 -5.11404E+03  7.07257E+03 -1.65931E+04  5.19196E+03 -1.69063E+04 -7.00497E+03
 -1.02532E+04 -1.92799E+04  5.14999E+03 -2.34946E+04  1.54998E+04 -1.67673E+04  1.88167E+04 -1.77437E+03
  1.17285E+04  1.33595E+04 -1.29022E+03  1.93225E+04 -1.34258E+04  1.11123E+04 -1.96882E+04 -4.02764E+03
 -1.44125E+04 -1.72116E+04 -1.69570E+03 -2.35776E+04  1.08552E+04 -1.95460E+04  1.93475E+04 -9.51833E+03
  1.79721E+04  1.39686E+02  1.32663E+04  4.17426E+03  7.23171E+03  8.34013E+02  9.91782E+03 -1.73696E+03
  1.75283E+04  2.99009E+03  1.99201E+04  1.55048E+04  1.32517E+04  3.10828E+04 -3.04430E+03  3.49769E+04
 -2.01094E+04  2.81067E+04 -3.29125E+04  1.40195E+04 -3.39324E+04 -2.38603E+03 -2.84583E+04 -1.99745E+04
 -1.19434E+04 -2.80573E+04  9.81925E+03 -2.51123E+04  2.20890E+04 -1.29636E+04  1.95740E+04  5.72604E+03
  7.25983E+03  1.47896E+04 -9.28362E+03  1.29300E+04 -1.63334E+04  2.74461E+03 -1.24986E+04 -1.03595E+04
 -5.06981E+02 -1.54437E+04  7.93195E+03 -1.16586E+04  1.08360E+04 -1.42352E+03  2.06197E+03  6.53685E+03
 -6.74150E+03  2.55174E+03 -6.10285E+03 -5.64197E+03 -8.17550E+02 -1.34770E+04  9.57847E+03 -1.42268E+04
  1.67120E+04 -7.72650E+03  1.82317E+04  3.10698E+03  1.61314E+04  1.36431E+04  7.24896E+03  2.06639E+04
 -3.40823E+03  2.27898E+04 -1.41752E+04  1.41616E+04 -1.61661E+04  3.32456E+03 -1.13025E+04 -3.84015E+03
 -5.22632E+03 -5.20173E+03 -8.07432E+02  9.17817E+02 -2.35835E+03  2.47652E+03 -5.19968E+03  4.56972E+03
 -1.07562E+04 -9.01831E+02 -1.14222E+04 -9.16946E+03 -4.52356E+03 -1.48644E+04  4.78115E+03 -1.15636E+04
  9.54328E+03 -4.77237E+03  6.74175E+03  3.04818E+03  1.95709E+02  4.43184E+03 -5.39028E+03  8.59546E+01
 -4.90959E+03 -6.83830E+03 -9.64836E+02 -1.03974E+04  6.15461E+03 -1.16228E+04  1.44898E+04 -6.13173E+03
  1.65281E+04  1.39350E+03  1.20840E+04  9.49985E+03  2.24451E+03  1.30143E+04 -7.12458E+03  1.11934E+04
 -9.33535E+03  3.29328E+03 -4.90210E+03 -2.19958E+03  1.49385E+03 -2.77698E+03  6.08084E+03 -1.05810E+03
  5.30369E+03  4.66972E+03  1.15923E+03  9.17250E+03 -6.19521E+03  8.58997E+03 -1.07746E+04  2.30363E+03
 -6.78004E+03 -5.39227E+03  8.56341E+01 -9.13922E+03  5.60350E+03 -4.45390E+03  5.74258E+03  1.94596E+03
  1.00667E+03  5.92317E+03 -5.79497E+03  7.53321E+03 -8.11223E+03  3.10212E+03 -8.09362E+03 -2.41098E+03
 -4.95879E+03 -9.93826E+03  2.18222E+03 -1.07442E+04  9.61137E+03 -6.85991E+03  1.04540E+04  1.70582E+03
  6.72946E+03  8.38414E+03 -4.30467E+02  1.04224E+04 -7.72311E+03  6.06711E+03 -8.07987E+03 -9.86466E+02
 -7.58652E+03 -7.22272E+03 -1.55682E+03 -7.53883E+03  4.04235E+03 -6.36792E+03  4.69468E+03 -3.25878E+03
  3.77222E+03  1.17520E+03 -6.45553E+02  1.49041E+03 -8.90946E+01 -1.49077E+03  1.07869E+03 -3.80413E+03
  6.50854E+03 -2.38734E+03  9.07750E+03  1.10777E+03  9.44159E+03  6.13399E+03  7.09934E+03  1.20604E+04
 -2.61136E+03  1.41530E+04 -1.20440E+04  1.05589E+04 -1.55340E+04  1.87410E+03 -1.23533E+04 -4.96225E+03
 -6.29970E+03 -1.03320E+04 -3.69215E+02 -8.51476E+03  3.13064E+03 -4.56955E+03  3.02069E+03 -3.17927E+03
  2.19897E+03 -1.67631E+03  2.72144E+03 -2.94884E+03  4.34162E+03 -2.06963E+03  5.12661E+03 -4.78382E+01
  6.43218E+03  1.31500E+03  2.81073E+03  5.48354E+03 -1.61431E+03  5.76507E+03 -6.65579E+03  4.51801E+03
 -8.35220E+03 -1.18611E+03 -4.31529E+03 -5.81928E+03 -1.15015E+02 -8.44072E+03  4.97639E+03 -9.20045E+03
  8.76993E+03 -5.00268E+03  1.08341E+04  1.22619E+03  7.84647E+03  7.23963E+03  1.67463E+03  9.88542E+03
 -3.96027E+03  8.63672E+03 -5.50573E+03  2.89476E+03 -3.46905E+03 -1.31405E+03 -1.18665E+03 -1.03337E+03
 -6.11085E+02  5.20003E+02 -1.32992E+03  2.20026E+03 -3.49801E+03  1.32772E+03 -5.90884E+03 -3.91349E+02
 -3.23062E+03 -5.96278E+03  5.38686E+02 -7.93282E+03  4.57790E+03 -7.36750E+03  6.92637E+03 -1.90920E+03
  7.20145E+03  3.72301E+03  3.60709E+03  6.45290E+03 -1.31179E+03  7.80909E+03 -5.05334E+03  4.75599E+03
 -6.78565E+03  7.83349E+02 -5.23042E+03 -4.32595E+03 -2.79649E+02 -6.03070E+03  2.98975E+03 -4.51597E+03
  4.94588E+03 -1.97272E+03  3.51749E+03  9.28777E+02  1.13557E+03  2.83908E+03  9.93807E+02  6.92037E+02
  1.88319E+03  8.29328E+02  2.05490E+03  1.48222E+03  2.30450E+03  3.26928E+03  1.94866E+03  3.60594E+03
 -1.68171E+03  5.54852E+03 -4.77295E+03  6.19307E+03 -6.57231E+03  1.71598E+03 -7.44419E+03 -2.15250E+03
 -3.56084E+03 -6.96041E+03  6.99152E+02 -8.15119E+03  4.30175E+03 -4.97981E+03  5.66923E+03 -1.56729E+03
  4.60515E+03  2.73226E+03  7.16269E+02  4.04555E+03 -1.58472E+03  2.38732E+03 -2.42890E+03 -2.43511E+02
 -1.29670E+03 -3.13490E+03  1.81900E+03 -3.14457E+03  2.69740E+03 -1.78810E+03  2.91551E+03  4.79812E+02
  1.90419E+03  1.27053E+03  9.49536E+02  5.94930E+02 -4.54935E+02  8.87188E+02  1.32413E+03 -6.67781E+02
  8.50108E+02 -4.44379E+02  3.06601E+03  6.64059E+02  1.30269E+03  3.69895E+03 -8.66236E+02  4.70823E+03
 -2.83819E+03  2.91125E+03 -4.02919E+03  1.10840E+03 -3.82277E+03 -1.45826E+03 -9.76710E+02 -2.22264E+03
  7.16838E+02 -2.48838E+03  1.52997E+03 -1.34785E+03  1.40487E+03  1.77546E+03 -1.05856E+03  1.85323E+03
 -2.94711E+03  1.26483E+03 -2.86921E+03 -1.97231E+03 -1.70095E+03 -3.69265E+03  2.60129E+02 -3.10626E+03
  1.53838E+03 -1.89058E+03  2.13894E+03  1.39369E+02  2.01911E+03  7.90550E+02  2.23088E+02  1.97121E+03
 -1.29072E+03  3.71226E+02 -1.53061E+03 -8.75152E+02  1.13986E+03 -2.32796E+03  2.74411E+03 -1.83267E+03
  3.35065E+03  6.56895E+01  4.25059E+03  1.94032E+03  1.48849E+03  3.65677E+03 -8.55407E+02  3.76221E+03
 -3.00877E+03  1.27608E+03 -3.08388E+03 -4.10735E+02 -1.40151E+03 -2.64178E+03  6.02636E+02 -1.88549E+03
  2.36436E+03 -9.40638E+02  1.86906E+03  1.02417E+03  2.97162E+02  2.08542E+03 -1.17318E+02  1.85003E+03
 -7.74412E+02  1.58779E+03 -8.57814E+02  5.73389E+02 -4.93414E+02  4.43335E+02 -1.00025E+03  5.12791E+02
 -1.21002E+03  1.65077E+03 -2.85600E+03  1.30477E+03 -3.71436E+03  1.53555E+02 -4.21963E+03 -2.02830E+03
 -1.81294E+03 -4.60418E+03  9.65027E+02 -5.54073E+03  2.79136E+03 -4.19475E+03  5.12211E+03 -1.83033E+03
  4.94427E+03  3.87900E+02  2.85943E+03  3.16601E+03 -5.49013E+02  3.24823E+03 -1.44425E+03  2.37521E+03
 -2.19395E+03  1.41350E+03 -1.20840E+03 -2.96127E+02 -7.47705E+02 -1.40734E+02 -5.02806E+02 -2.18273E+01
 -1.19896E+03 -4.16733E+00 -1.08037E+03 -5.33071E+01 -1.82088E+02 -8.22941E+02 -1.85329E+02 -1.50245E+03
  1.70209E+03 -1.05319E+03  1.58489E+03 -3.33453E+01  2.91274E+03  1.80663E+03 -1.38392E+02  3.24494E+03
 -1.79194E+03  4.05571E+03 -3.64477E+03  2.40633E+03 -3.67059E+03 -6.91169E+01 -2.80109E+03 -2.56084E+03
 -1.55546E+03 -3.24255E+03  5.60422E+02 -3.07788E+03  1.78320E+03 -1.71172E+03  1.70151E+03  2.87339E+02
  1.32206E+03  9.01373E+02 -1.33444E+02  1.11996E+03 -2.69166E+02  1.27751E+02 -1.34881E+02 -3.62807E+02
  9.12377E+02  1.14924E+02  5.04363E+02  8.84101E+02  5.80535E+02  1.15113E+03  4.85859E+02  1.14041E+03
 -1.15740E+03  1.15760E+03 -1.56093E+03  2.02922E+02 -1.82396E+03 -1.40859E+03 -3.85990E+02 -2.49895E+03
  1.50397E+03 -2.02611E+03  2.26434E+03 -4.54774E+02  2.19786E+03 -2.61373E+02  9.40280E+02  1.85887E+03
  6.32672E+02  1.64372E+03 -7.71900E+02  1.43183E+03 -1.10332E+03  9.96013E+02 -6.56597E+02  1.19221E+02
 -4.15902E+02 -1.57714E+02 -9.91079E+02  1.29728E+02 -1.15903E+03  4.41482E+01 -1.74661E+03 -4.99669E+02
 -1.77505E+03 -4.94714E+01 -7.86918E+02 -1.93267E+03  1.03466E+03 -2.60086E+03  1.77588E+03 -8.30180E+02
  1.71178E+03  3.04727E+02  5.85998E+02  1.04832E+03 -2.69938E+02  1.89222E+03 -1.03107E+03  1.17452E+03
