 $NMID ID='MM_0lb_SNR800_20hz_g50_90.RAW', FMTDAT='(8E13.5)'
 TRAMP=1., VOLUME=1. $END
  3.09848E+05  4.60807E+02  3.37354E+05  2.50276E+05  8.43172E+04  3.37461E+05 -1.32284E+05  2.49730E+05
 -1.89557E+05  8.22187E+04 -1.10770E+05 -3.30998E+04  1.50684E+03 -5.00975E+04  5.38464E+04  2.11618E+02
  3.51920E+04  5.28819E+04 -1.73132E+04  7.47272E+04 -6.01408E+04  6.25452E+04 -8.28177E+04  3.14357E+04
 -7.93949E+04 -1.12171E+04 -5.59842E+04 -4.98500E+04 -1.48060E+04 -6.80277E+04  2.64399E+04 -4.47205E+04
  3.90056E+04  3.96346E+03  1.55169E+04  4.67922E+04 -3.41582E+04  4.59807E+04 -6.52120E+04 -5.37190E+02
 -5.16689E+04 -5.58585E+04 -6.29045E+03 -7.47596E+04  3.30404E+04 -5.28051E+04  4.60309E+04 -1.62862E+04
  4.13720E+04  1.10729E+04  3.06262E+04  2.40623E+04  1.58582E+04  2.80401E+04 -4.40089E+03  2.65572E+04
 -2.16005E+04  1.27588E+04 -1.90475E+04 -4.09610E+03  4.35055E+03 -7.47611E+03  2.12503E+04  1.07356E+04
  7.61830E+03  3.28984E+04 -3.04627E+04  3.36286E+04 -6.05950E+04  1.98880E+03 -5.50422E+04 -4.08962E+04
 -1.21316E+04 -6.05606E+04  3.78181E+04 -4.30358E+04  5.51752E+04 -1.83512E+03  3.14847E+04  3.03467E+04
 -7.02846E+03  3.28755E+04 -2.81287E+04  1.28806E+04 -2.73127E+04 -5.41471E+03 -1.38601E+04 -1.00301E+04
 -7.25179E+03 -1.10506E+04 -1.38683E+03 -1.64429E+04  6.61733E+03 -2.25305E+04  1.48130E+04 -1.38653E+04
  1.23482E+04  4.19598E+03 -5.79282E+03  1.30774E+04 -1.89602E+04 -2.00259E+03 -7.98854E+03 -2.98924E+04
  2.07327E+04 -4.02184E+04  4.43057E+04 -1.84495E+04  4.14248E+04  1.79560E+04  1.41814E+04  4.12626E+04
 -1.52325E+04  3.04055E+04 -2.30111E+04  1.01028E+03 -8.15398E+03 -2.61632E+04  2.07216E+04 -3.04550E+04
  3.74658E+04 -6.92927E+03  3.10542E+04  2.24747E+04  1.49596E+04  4.19605E+04 -7.59543E+03  4.41963E+04
 -2.83231E+04  2.90933E+04 -3.66411E+04  8.03914E+03 -3.73466E+04 -1.46497E+04 -2.07817E+04 -3.36794E+04
  6.99821E+03 -3.32442E+04  2.87603E+04 -1.25723E+04  2.63705E+04  1.08986E+04  2.76879E+03  1.76828E+04
 -1.30938E+04  6.93341E+03 -9.65855E+03 -7.60450E+03  5.96677E+03 -9.98945E+03  1.73326E+04  6.43781E+03
  1.21084E+04  2.14138E+04 -6.77299E+03  2.29965E+04 -2.10667E+04  8.55253E+03 -2.45855E+04 -6.64545E+03
 -1.62565E+04 -1.61500E+04 -5.22660E+03 -1.61637E+04  3.85766E+03 -1.38935E+04  1.19665E+04 -1.35647E+04
  2.02215E+04 -1.14200E+04  2.73306E+04  8.69680E+02  2.07770E+04  1.57466E+04  4.04515E+03  3.16146E+04
 -1.58535E+04  2.72461E+04 -2.52563E+04  9.09816E+03 -1.94058E+04 -1.03280E+04 -3.87146E+03 -1.40360E+04
  2.63628E+03 -4.38440E+03 -2.31778E+03  5.48246E+03 -1.20691E+04  5.11893E+03 -1.29311E+04 -4.54844E+03
 -8.20679E+03 -1.45643E+04  4.16653E+03 -1.87146E+04  1.20557E+04 -1.33280E+04  1.40652E+04 -1.63684E+03
  8.47366E+03  1.04944E+04 -6.81524E+02  1.52200E+04 -9.81330E+03  8.46692E+03 -1.46206E+04 -3.33211E+03
 -1.09027E+04 -1.37403E+04 -1.20398E+03 -1.82072E+04  8.40361E+03 -1.46162E+04  1.53869E+04 -7.01707E+03
  1.38457E+04  8.26422E+02  9.92685E+03  3.54436E+03  4.89974E+03  4.82032E+02  7.32311E+03 -1.11511E+03
  1.30787E+04  2.74032E+03  1.37490E+04  1.21343E+04  8.41871E+03  2.35460E+04 -3.00999E+03  2.52152E+04
 -1.50853E+04  1.87543E+04 -2.30727E+04  9.11495E+03 -2.31722E+04 -1.58576E+03 -2.02218E+04 -1.31027E+04
 -9.87949E+03 -1.89671E+04  6.14428E+03 -1.78374E+04  1.55066E+04 -1.02245E+04  1.47190E+04  3.08182E+03
  6.21020E+03  1.07143E+04 -6.30167E+03  9.94621E+03 -1.25451E+04  2.47410E+03 -9.88658E+03 -7.51073E+03
 -9.83990E+01 -1.17279E+04  5.68833E+03 -9.06212E+03  7.19243E+03 -1.35334E+03  1.23656E+03  4.54080E+03
 -5.13225E+03  1.15787E+03 -3.19621E+03 -4.56192E+03  8.87562E+02 -9.30902E+03  7.40862E+03 -9.22133E+03
  1.11015E+04 -4.03208E+03  1.07229E+04  2.76818E+03  8.99468E+03  8.90444E+03  4.48752E+03  1.29337E+04
 -1.42060E+03  1.43584E+04 -8.58449E+03  9.32346E+03 -1.02686E+04  2.96724E+03 -7.87066E+03 -1.73647E+03
 -4.27988E+03 -3.16670E+03 -7.78116E+02  1.58389E+03 -1.85179E+03  1.66177E+03 -3.29933E+03  3.49155E+03
 -7.60893E+03 -6.67841E+02 -8.32757E+03 -6.67085E+03 -3.36430E+03 -1.08566E+04  3.23854E+03 -8.12892E+03
  6.54027E+03 -3.62531E+03  4.79586E+03  1.94924E+03  6.06931E+02  2.89604E+03 -3.04471E+03  1.59827E+00
 -3.03207E+03 -4.71269E+03 -5.65243E+02 -6.49798E+03  3.34327E+03 -7.13570E+03  9.19773E+03 -3.63383E+03
  1.08938E+04  3.20832E+02  7.98884E+03  5.48163E+03  1.59423E+03  7.80531E+03 -5.01656E+03  7.50957E+03
 -6.55269E+03  2.89839E+03 -3.31632E+03 -9.16070E+02  1.20372E+03 -1.68622E+03  4.38670E+03 -7.99934E+02
  3.69425E+03  3.14100E+03  1.10660E+03  5.91116E+03 -4.12780E+03  5.91444E+03 -7.25426E+03  1.82986E+03
 -4.20049E+03 -3.38983E+03  3.23333E+02 -6.12041E+03  3.40897E+03 -2.98966E+03  3.06418E+03  6.19151E+02
  2.12087E+02  2.68305E+03 -3.55972E+03  4.41915E+03 -4.25576E+03  2.23635E+03 -3.61097E+03 -7.85004E+02
 -2.70460E+03 -4.97130E+03  8.78942E+02 -6.39474E+03  5.12885E+03 -4.08219E+03  5.52942E+03  8.33816E+02
  4.21310E+03  4.77798E+03  4.51294E+02  6.37199E+03 -4.55078E+03  3.63938E+03 -4.11672E+03 -3.06554E+02
 -5.30204E+03 -4.77065E+03 -1.28422E+03 -4.33118E+03  2.47936E+03 -4.37647E+03  2.38728E+03 -2.61309E+03
  2.62360E+03  1.30438E+02  8.89459E+01  1.19446E+03  6.41893E+02 -1.56946E+02 -8.62512E+01 -1.34557E+03
  3.32449E+03 -2.61110E+02  4.15854E+03  6.30804E+02  4.55836E+03  2.21534E+03  4.76547E+03  5.79206E+03
 -8.75292E+02  7.20759E+03 -6.57005E+03  5.57026E+03 -8.69384E+03  9.02451E+02 -6.67281E+03 -2.11491E+03
 -3.48886E+03 -6.03022E+03 -4.59278E+02 -4.36877E+03  1.72217E+03 -1.38195E+03  1.51425E+03 -1.83191E+03
  1.05405E+03 -1.27970E+03  2.13647E+03 -2.41037E+03  3.30249E+03 -1.33149E+03  3.09209E+03  5.15081E+02
  4.00393E+03  8.98449E+02  9.36373E+02  3.09369E+03 -1.18385E+03  2.28096E+03 -3.88151E+03  1.98584E+03
 -4.08204E+03 -9.81268E+02 -1.16641E+03 -2.70703E+03  7.49268E+02 -3.96625E+03  3.01889E+03 -4.70418E+03
  4.15087E+03 -2.84553E+03  5.65652E+03 -8.82481E+01  4.25337E+03  3.28794E+03  1.04397E+03  5.06041E+03
 -1.63537E+03  5.03242E+03 -2.89757E+03  1.51016E+03 -1.55713E+03 -8.90004E+02 -6.39444E+01 -5.26018E+02
 -3.85470E+02  2.78632E+02 -1.07154E+03  2.05779E+03 -2.34199E+03  1.03321E+03 -3.63827E+03 -3.62381E+02
 -1.13315E+03 -3.72969E+03  8.74907E+02 -3.72021E+03  2.27949E+03 -3.75427E+03  2.61017E+03 -8.79711E+02
  2.90782E+03  1.89615E+03  1.24307E+03  2.49961E+03 -7.12586E+02  3.92059E+03 -1.78807E+03  2.14319E+03
 -2.88074E+03  5.35727E+02 -2.58146E+03 -2.00371E+03 -1.58609E+02 -2.44891E+03  1.22998E+03 -1.85706E+03
  2.28243E+03 -1.21255E+03  1.56706E+03  1.84703E+02  1.67774E+02  1.37485E+03  8.50211E+02  2.70157E+02
  1.45568E+03  4.14400E+02  1.28246E+03  8.72912E+02  7.78355E+02  2.15172E+03  7.48241E+02  1.14360E+03
 -1.17759E+03  2.35412E+03 -1.89778E+03  3.49219E+03 -2.01873E+03  1.32412E+03 -3.11661E+03 -8.58393E+01
 -1.01053E+03 -2.59928E+03  4.74310E+02 -3.88066E+03  1.27186E+03 -1.79619E+03  2.51923E+03 -7.73479E+02
  1.92020E+03  1.60187E+03  3.64397E+02  1.74745E+03 -2.75445E+02  7.07455E+02 -9.28859E+02  1.34331E+02
 -3.52398E+02 -1.35788E+03  1.03089E+03 -1.19465E+03  9.20895E+02 -8.18478E+02  1.07995E+03  3.02249E+02
  5.84170E+02  7.98718E+01  6.74897E+02 -2.21087E+02 -1.54721E+02  7.38436E+02  1.67631E+03 -1.25623E+02
  1.42630E+01  2.69128E+01  1.43508E+03  5.11548E+02  9.22424E+01  1.87820E+03 -8.76470E+01  2.23388E+03
 -1.21560E+03  6.67527E+02 -1.47715E+03  2.01574E+02 -1.74128E+03 -7.88284E+02  3.10001E+02 -4.24415E+02
  2.13611E+02 -8.59095E+02  8.62113E+02 -6.63114E+02  9.58318E+01  8.45700E+02 -5.13971E+02  7.23578E+02
 -1.14723E+03  7.60545E+02 -8.28647E+02 -1.41673E+03 -6.94329E+02 -1.92841E+03  1.17345E+02 -1.22988E+03
  2.86975E+02 -3.10907E+02  4.36664E+02  3.02692E+02  1.15031E+03 -6.29990E+01  1.65438E+02  6.30761E+02
  1.07720E+02 -3.63468E+02 -7.01728E+02 -7.00806E+01  6.06049E+02 -5.17945E+02  1.34600E+03 -6.77388E+02
  7.02055E+02  4.30179E+02  2.31714E+03  2.31471E+02  8.45663E+02  1.00519E+03 -2.56422E+02  1.27409E+03
 -9.89109E+02  1.78969E+02 -1.06184E+03 -3.28465E+02 -4.64111E+02 -1.12333E+03  3.86280E+02 -3.83082E+02
  9.46272E+02 -7.29598E+02  3.99897E+02  5.33983E+02 -8.31950E+01  7.48085E+02  1.93131E+02  1.04015E+03
 -2.17090E+02  9.41494E+02 -4.89725E+02  4.98185E+02 -1.40682E+02  5.13066E+02 -3.88683E+02  3.22715E+02
 -4.27543E+02  7.57274E+02 -1.75477E+03  2.47686E+01 -1.14612E+03  4.06838E+02 -1.68645E+03 -7.36180E+02
 -1.11958E+03 -1.73199E+03  3.77449E+02 -2.32439E+03  5.39979E+02 -1.71543E+03  2.15108E+03 -6.71288E+02
  2.06019E+03 -4.88873E+02  4.58700E+02  7.72923E+02 -8.25070E+02  8.21855E+02 -3.11249E+02  7.92138E+02
 -7.72249E+02  4.72535E+02 -2.37184E+02 -2.77922E+02 -5.51121E+02  2.28530E+02 -7.95907E+02  1.50031E+01
 -1.10501E+03 -8.35413E+01 -7.58158E+02  2.91780E+01  1.73903E+02 -5.96291E+02 -5.48501E+02 -1.23060E+03
  1.10793E+03 -6.60850E+02 -2.30953E+02  2.28506E+02  8.90059E+02  7.94880E+02 -2.16618E+02  6.84907E+02
 -8.45995E+02  1.75898E+03 -1.14278E+03  1.02665E+03 -9.41083E+02 -1.66023E+02 -8.24153E+02 -3.68434E+02
 -5.94883E+02 -9.54298E+02  2.25736E+02 -6.54595E+02  2.20581E+02 -2.25856E+02  3.16156E+02  2.13929E+02
  7.16863E+02 -1.08786E+01  2.13535E+02  1.04321E+02 -1.54821E+02  1.06894E+02 -4.53571E+01 -3.23211E+02
  5.92151E+02  4.05679E+02  2.25878E+01  5.74789E+02 -1.42143E+01  4.32074E+02  5.92418E+02 -1.19234E+02
 -2.10690E+02  5.31728E+02 -5.22688E+01 -6.16536E+01 -4.59657E+02 -2.99049E+02  1.67582E+02 -6.51154E+02
  2.07549E+02 -3.72412E+02  2.88500E+02  2.55413E+02  5.29201E+02 -8.78270E+02  2.44080E+02  5.09059E+02
  2.91469E+02  1.41657E+02 -7.83508E+01  3.65135E+02 -2.63084E+02  3.11895E+02 -2.50163E+02  1.68411E+02
  3.60376E+01 -2.40123E+02 -6.09463E+02  7.88265E+01 -2.20222E+02  3.57918E+01 -5.72432E+02  4.38544E+01
 -8.08625E+02  3.98553E+02 -4.81094E+02 -5.50205E+02  4.47174E+02 -1.27724E+03  5.78923E+02 -1.44076E+02
  5.03316E+02  2.44396E+02 -4.28648E+02  8.83187E+01  5.94293E+01  5.84254E+02 -2.28084E+02  2.98310E+02
