 $NMID ID='MM_0lb_SNR800_14hz_g50_51.RAW', FMTDAT='(8E13.5)'
 TRAMP=1., VOLUME=1. $END
  3.09926E+05  2.82919E+02  3.37611E+05  2.50345E+05  8.47959E+04  3.38236E+05 -1.32644E+05  2.50788E+05
 -1.90174E+05  8.30391E+04 -1.11830E+05 -3.27584E+04  1.00443E+03 -5.06755E+04  5.37829E+04 -3.31454E+02
  3.52824E+04  5.29754E+04 -1.64356E+04  7.51891E+04 -6.10130E+04  6.34796E+04 -8.41462E+04  3.17743E+04
 -8.10323E+04 -1.15203E+04 -5.72101E+04 -5.13278E+04 -1.49505E+04 -6.94893E+04  2.76570E+04 -4.59177E+04
  4.00104E+04  3.91134E+03  1.61310E+04  4.74272E+04 -3.40573E+04  4.72162E+04 -6.65088E+04 -6.75208E+02
 -5.35645E+04 -5.64308E+04 -6.60276E+03 -7.71359E+04  3.38989E+04 -5.52913E+04  4.78602E+04 -1.76011E+04
  4.36129E+04  1.12543E+04  3.18793E+04  2.52033E+04  1.57751E+04  2.93544E+04 -5.04483E+03  2.71608E+04
 -2.20378E+04  1.21795E+04 -1.83530E+04 -5.01646E+03  5.57481E+03 -7.45049E+03  2.26817E+04  1.21133E+04
  7.11593E+03  3.52945E+04 -3.25360E+04  3.53820E+04 -6.36101E+04  2.25714E+03 -5.72548E+04 -4.27068E+04
 -1.22309E+04 -6.30934E+04  3.99976E+04 -4.53515E+04  5.84933E+04 -2.05206E+03  3.43682E+04  3.23283E+04
 -5.92638E+03  3.60877E+04 -3.00039E+04  1.57593E+04 -3.03603E+04 -4.65124E+03 -1.66540E+04 -1.09161E+04
 -8.53396E+03 -1.32229E+04 -1.11366E+03 -1.80537E+04  8.08665E+03 -2.30166E+04  1.53104E+04 -1.36182E+04
  1.17442E+04  5.46348E+03 -8.14671E+03  1.29258E+04 -2.14289E+04 -4.62032E+03 -8.32794E+03 -3.39026E+04
  2.28033E+04 -4.37454E+04  4.83543E+04 -1.95179E+04  4.52757E+04  1.93786E+04  1.55962E+04  4.42122E+04
 -1.57645E+04  3.34434E+04 -2.55558E+04  1.51020E+03 -9.68762E+03 -2.76578E+04  2.10398E+04 -3.39887E+04
  4.13014E+04 -9.18298E+03  3.56383E+04  2.37596E+04  1.82436E+04  4.67676E+04 -8.16064E+03  5.04175E+04
 -3.16313E+04  3.37538E+04 -4.24204E+04  9.81470E+03 -4.31513E+04 -1.65624E+04 -2.35777E+04 -3.80404E+04
  7.32346E+03 -3.81180E+04  3.13671E+04 -1.48362E+04  2.94276E+04  1.12025E+04  3.87856E+03  1.91835E+04
 -1.35037E+04  8.48997E+03 -1.00377E+04 -7.39486E+03  5.82752E+03 -1.09765E+04  1.79975E+04  6.11536E+03
  1.33369E+04  2.19728E+04 -5.96108E+03  2.50933E+04 -2.23760E+04  1.14723E+04 -2.81851E+04 -4.78266E+03
 -2.09281E+04 -1.73184E+04 -8.36161E+03 -2.04739E+04  3.91397E+03 -1.99138E+04  1.60611E+04 -1.82909E+04
  2.63960E+04 -1.28395E+04  3.28751E+04  3.09462E+03  2.39265E+04  2.01164E+04  4.34444E+03  3.67852E+04
 -1.78764E+04  3.07599E+04 -2.80385E+04  1.04861E+04 -2.10299E+04 -1.01732E+04 -4.39865E+03 -1.34552E+04
  1.75018E+03 -3.03081E+03 -5.02675E+03  6.77959E+03 -1.64011E+04  5.16564E+03 -1.66351E+04 -7.23328E+03
 -1.00310E+04 -1.89772E+04  5.46870E+03 -2.30092E+04  1.54546E+04 -1.67518E+04  1.81645E+04 -1.72126E+03
  1.15241E+04  1.33732E+04 -1.21335E+03  1.90279E+04 -1.31185E+04  1.08886E+04 -1.95453E+04 -4.58446E+03
 -1.44723E+04 -1.72245E+04 -1.87789E+03 -2.31313E+04  1.04543E+04 -1.89151E+04  1.91816E+04 -9.64869E+03
  1.77983E+04  1.95574E+02  1.27400E+04  4.20187E+03  6.80666E+03  1.17231E+03  1.00249E+04 -1.61853E+03
  1.75136E+04  2.58144E+03  1.91935E+04  1.55199E+04  1.27529E+04  3.02616E+04 -2.59752E+03  3.45460E+04
 -2.03576E+04  2.77434E+04 -3.22216E+04  1.36930E+04 -3.36935E+04 -2.56815E+03 -2.77881E+04 -1.95341E+04
 -1.18245E+04 -2.77645E+04  9.72043E+03 -2.49993E+04  2.12787E+04 -1.26391E+04  1.95162E+04  5.45254E+03
  7.15372E+03  1.46776E+04 -9.13000E+03  1.25233E+04 -1.64811E+04  2.73228E+03 -1.24849E+04 -9.70750E+03
 -5.58212E+02 -1.53075E+04  8.18018E+03 -1.10578E+04  1.02360E+04 -1.52753E+03  2.22111E+03  6.83949E+03
 -6.87830E+03  2.49234E+03 -6.31526E+03 -5.46406E+03 -3.71324E+02 -1.37804E+04  9.71661E+03 -1.42787E+04
  1.66010E+04 -7.77600E+03  1.77926E+04  2.92131E+03  1.56480E+04  1.31854E+04  7.07005E+03  2.04419E+04
 -3.32401E+03  2.23100E+04 -1.43128E+04  1.39409E+04 -1.64460E+04  3.12208E+03 -1.13823E+04 -3.68318E+03
 -5.51367E+03 -4.77289E+03 -7.46096E+02  9.41544E+02 -2.65500E+03  2.48076E+03 -4.93483E+03  4.22593E+03
 -1.04744E+04 -4.53761E+02 -1.14356E+04 -9.15120E+03 -4.33351E+03 -1.51339E+04  4.70444E+03 -1.15322E+04
  9.44269E+03 -5.13367E+03  6.95206E+03  2.93174E+03  1.74417E+02  4.37669E+03 -5.16101E+03 -9.32379E+01
 -5.23440E+03 -7.28808E+03 -8.72931E+02 -1.05750E+04  6.03869E+03 -1.14579E+04  1.44310E+04 -6.09962E+03
  1.65180E+04  9.84804E+02  1.19617E+04  9.40160E+03  2.18465E+03  1.32373E+04 -7.22862E+03  1.12805E+04
 -9.29549E+03  3.23667E+03 -4.53761E+03 -2.29148E+03  1.59373E+03 -3.03733E+03  6.33845E+03 -1.20041E+03
  5.86587E+03  4.72079E+03  9.15626E+02  8.90900E+03 -6.33586E+03  8.60321E+03 -1.08702E+04  2.22469E+03
 -7.11363E+03 -5.38563E+03  6.53876E+01 -9.21292E+03  6.17804E+03 -4.83084E+03  5.76334E+03  1.79406E+03
  1.03853E+03  6.08002E+03 -5.77634E+03  7.09782E+03 -8.54411E+03  3.52137E+03 -8.17047E+03 -2.57265E+03
 -4.97367E+03 -9.63994E+03  2.25602E+03 -1.14526E+04  9.56203E+03 -7.07280E+03  1.05132E+04  1.66311E+03
  6.56111E+03  8.46402E+03 -4.01997E+02  1.05540E+04 -7.57020E+03  6.33930E+03 -8.06838E+03 -7.16066E+02
 -7.80540E+03 -7.11640E+03 -1.57129E+03 -7.68524E+03  3.84308E+03 -6.77861E+03  4.58991E+03 -3.29548E+03
  3.61431E+03  9.75079E+02 -3.76476E+02  1.68597E+03  3.45672E+02 -1.28612E+03  1.22218E+03 -3.81378E+03
  7.16098E+03 -2.28121E+03  9.52838E+03  1.36527E+03  9.28141E+03  5.84204E+03  7.05483E+03  1.25163E+04
 -2.65740E+03  1.43922E+04 -1.22426E+04  1.04900E+04 -1.59670E+04  2.02266E+03 -1.27018E+04 -4.84950E+03
 -6.49661E+03 -1.04322E+04 -6.76305E+02 -8.90213E+03  3.15408E+03 -4.41411E+03  3.34546E+03 -3.34466E+03
  1.91562E+03 -2.31626E+03  2.85191E+03 -2.79226E+03  4.54065E+03 -2.66893E+03  5.23517E+03 -4.70697E+02
  7.16714E+03  1.72841E+03  2.99207E+03  5.45824E+03 -1.78283E+03  6.17262E+03 -6.89557E+03  4.94327E+03
 -8.24328E+03 -8.88963E+02 -4.83259E+03 -5.83781E+03 -2.27251E+02 -9.02073E+03  5.19612E+03 -9.38289E+03
  9.65276E+03 -5.23912E+03  1.15659E+04  1.09750E+03  8.02437E+03  7.70430E+03  1.46739E+03  1.01143E+04
 -3.91779E+03  8.93680E+03 -5.94584E+03  2.99821E+03 -3.90614E+03 -1.10980E+03 -1.18736E+03 -1.30007E+03
 -7.08254E+02  3.05105E+02 -1.54962E+03  2.37985E+03 -3.90699E+03  1.38470E+03 -6.19741E+03 -9.04690E+02
 -3.61039E+03 -6.26723E+03  5.49247E+01 -8.20415E+03  4.97245E+03 -7.64252E+03  7.74040E+03 -2.41728E+03
  7.66436E+03  3.82570E+03  3.70380E+03  7.02689E+03 -1.17111E+03  8.32185E+03 -5.44327E+03  4.95606E+03
 -7.42771E+03  3.24016E+02 -5.97139E+03 -4.94243E+03 -3.48346E+02 -6.46598E+03  3.15119E+03 -5.04003E+03
  4.91063E+03 -1.78612E+03  3.36478E+03  1.10799E+03  1.22412E+03  2.42047E+03  9.59968E+02  1.12545E+03
  2.19609E+03  6.85200E+02  1.57974E+03  1.38196E+03  2.15513E+03  2.85055E+03  2.16245E+03  3.76840E+03
 -1.81631E+03  5.85988E+03 -5.30658E+03  6.76333E+03 -7.32018E+03  1.75666E+03 -8.01784E+03 -2.50215E+03
 -3.68045E+03 -7.74054E+03  1.13955E+03 -8.64617E+03  4.29628E+03 -5.59696E+03  6.27277E+03 -1.39261E+03
  4.94916E+03  3.25538E+03  1.15319E+03  4.40134E+03 -1.68970E+03  2.80762E+03 -2.61782E+03 -8.16309E+02
 -1.36053E+03 -2.99111E+03  1.88191E+03 -2.86046E+03  2.95166E+03 -1.59954E+03  3.02184E+03  3.80389E+02
  1.61677E+03  1.39838E+03  9.62387E+02  5.09642E+02 -4.51294E+02  1.12340E+03  1.97484E+03 -5.48354E+02
  8.93304E+02 -6.63807E+02  3.24910E+03  1.24559E+03  1.39237E+03  4.31744E+03 -6.22720E+02  5.44747E+03
 -3.51713E+03  3.00875E+03 -4.25998E+03  1.17279E+03 -4.31993E+03 -1.32731E+03 -1.41625E+03 -2.38871E+03
  8.88153E+02 -2.68362E+03  1.88730E+03 -1.36676E+03  1.30875E+03  1.71917E+03 -1.04238E+03  2.45149E+03
 -3.01432E+03  1.40602E+03 -3.08947E+03 -2.11437E+03 -1.44696E+03 -4.05386E+03  6.25437E+02 -4.00780E+03
  1.74502E+03 -1.95083E+03  2.36670E+03 -2.01958E+01  2.46807E+03  5.27415E+02  3.90155E+02  2.54099E+03
 -1.27880E+03  3.10201E+02 -1.82252E+03 -9.37214E+02  1.15598E+03 -2.65957E+03  3.64772E+03 -2.27158E+03
  3.93784E+03  3.65456E+02  4.56683E+03  2.79375E+03  1.66651E+03  4.25519E+03 -1.20017E+03  4.01191E+03
 -3.38691E+03  1.56438E+03 -3.59804E+03 -7.19530E+02 -1.75711E+03 -2.79147E+03  6.60362E+02 -2.30217E+03
  2.79414E+03 -1.18757E+03  1.81614E+03  1.42814E+03  6.43302E+02  2.73295E+03  7.33394E+01  1.91929E+03
 -7.96760E+02  1.94325E+03 -1.09888E+03  4.31372E+02 -1.80476E+02  4.33352E+02 -6.23586E+02  1.16853E+03
 -1.45977E+03  1.57029E+03 -2.99922E+03  1.33600E+03 -3.89105E+03  5.14854E+02 -4.98172E+03 -2.47812E+03
 -2.66720E+03 -5.42823E+03  8.87978E+02 -6.24509E+03  3.66867E+03 -5.09351E+03  6.05791E+03 -2.18604E+03
  5.78578E+03  9.23802E+02  3.21195E+03  3.89873E+03 -1.15688E+02  4.10122E+03 -1.64506E+03  3.09797E+03
 -2.01004E+03  1.30222E+03 -1.32644E+03 -9.14248E+02 -8.43012E+02 -1.18320E+02 -5.13972E+02 -1.94868E+02
 -1.40112E+03  5.73642E+00 -1.30155E+03 -1.12075E+02  1.69234E+02 -1.08419E+03 -2.67091E+02 -1.60992E+03
  2.24527E+03 -1.20875E+03  1.76781E+03  2.36833E+02  2.53885E+03  2.41132E+03  4.74695E+02  4.23965E+03
 -2.06124E+03  5.14237E+03 -4.16729E+03  2.90045E+03 -4.94726E+03 -6.35276E+02 -3.35991E+03 -2.72195E+03
 -1.69918E+03 -3.75184E+03  8.43251E+02 -3.57870E+03  2.17673E+03 -2.26775E+03  2.29650E+03  2.43074E+02
  1.39126E+03  1.27340E+03  5.37067E+01  9.70897E+02 -6.02846E+02 -4.47696E+02  1.19082E+02 -9.71032E+02
  9.85757E+02  5.30261E+00  1.49205E+03  8.12287E+02  7.71633E+02  1.43493E+03  5.02170E+02  1.57373E+03
 -1.63475E+03  1.82128E+03 -2.55426E+03 -2.31246E+02 -2.42655E+03 -1.85147E+03 -2.44732E+02 -3.27731E+03
  1.56640E+03 -2.34605E+03  2.57855E+03 -7.29770E+02  2.65426E+03  7.30065E+01  1.20800E+03  2.23220E+03
  4.04124E+02  1.91691E+03 -8.77686E+02  1.75615E+03 -1.36603E+03  1.26492E+03 -1.31771E+03 -1.31608E+02
 -8.84819E+02 -2.49211E+02 -5.61365E+02  6.68409E+02 -1.35647E+03  3.90546E+02 -2.03286E+03 -7.01797E+02
 -2.16812E+03 -6.48951E+02 -5.76342E+02 -2.64650E+03  1.33370E+03 -2.87580E+03  1.88143E+03 -1.15245E+03
  2.65037E+03  3.05076E+02  5.86739E+02  1.16147E+03 -3.11409E+02  2.23502E+03 -1.52124E+03  1.86171E+03
