 $NMID ID='MM_0lb_SNR800_8hz_g50_16.RAW', FMTDAT='(8E13.5)'
 TRAMP=1., VOLUME=1. $END
  3.09944E+05  9.11594E+02  3.37631E+05  2.50939E+05  8.50914E+04  3.38467E+05 -1.32676E+05  2.52205E+05
 -1.91171E+05  8.40690E+04 -1.12155E+05 -3.26337E+04  3.24215E+01 -5.07550E+04  5.36075E+04 -4.53320E+02
  3.60346E+04  5.29858E+04 -1.64808E+04  7.59676E+04 -6.17441E+04  6.43653E+04 -8.56984E+04  3.26541E+04
 -8.25530E+04 -1.23116E+04 -5.84991E+04 -5.30820E+04 -1.49921E+04 -7.17035E+04  2.85468E+04 -4.66719E+04
  4.13671E+04  3.88731E+03  1.69813E+04  4.83597E+04 -3.47584E+04  4.83130E+04 -6.82354E+04  1.69402E+01
 -5.48458E+04 -5.80672E+04 -7.65988E+03 -7.92269E+04  3.46120E+04 -5.73542E+04  5.01455E+04 -1.86807E+04
  4.55083E+04  1.11565E+04  3.28838E+04  2.67560E+04  1.57871E+04  3.05530E+04 -5.99593E+03  2.75313E+04
 -2.24426E+04  1.18524E+04 -1.79921E+04 -5.79391E+03  7.52845E+03 -7.02370E+03  2.39510E+04  1.37503E+04
  7.06993E+03  3.76668E+04 -3.41326E+04  3.73874E+04 -6.66354E+04  2.31436E+03 -5.86633E+04 -4.43528E+04
 -1.25439E+04 -6.64105E+04  4.22140E+04 -4.77498E+04  6.17666E+04 -2.80650E+03  3.71081E+04  3.45598E+04
 -5.26951E+03  4.02704E+04 -3.25723E+04  1.96003E+04 -3.44184E+04 -3.38951E+03 -1.94565E+04 -1.22755E+04
 -9.87925E+03 -1.59547E+04 -3.50033E+02 -2.01847E+04  9.26653E+03 -2.37807E+04  1.59231E+04 -1.31949E+04
  1.06022E+04  5.75991E+03 -1.11577E+04  1.28688E+04 -2.39854E+04 -6.39843E+03 -8.88949E+03 -3.82573E+04
  2.54098E+04 -4.77326E+04  5.29492E+04 -2.11023E+04  4.93247E+04  2.08034E+04  1.73371E+04  4.81472E+04
 -1.66874E+04  3.66296E+04 -2.79711E+04  3.05552E+03 -1.20926E+04 -2.95924E+04  2.16976E+04 -3.75309E+04
  4.54348E+04 -1.13724E+04  4.17029E+04  2.54178E+04  2.18021E+04  5.23471E+04 -8.30026E+03  5.73355E+04
 -3.63728E+04  3.90318E+04 -4.86044E+04  1.12820E+04 -4.86409E+04 -1.86904E+04 -2.66311E+04 -4.28117E+04
  8.31504E+03 -4.27363E+04  3.50066E+04 -1.73320E+04  3.26617E+04  1.10610E+04  5.25026E+03  2.09744E+04
 -1.39975E+04  1.01752E+04 -1.13538E+04 -7.46229E+03  5.34733E+03 -1.14756E+04  1.92581E+04  5.19085E+03
  1.54869E+04  2.30640E+04 -4.86580E+03  2.72264E+04 -2.37231E+04  1.48161E+04 -3.22658E+04 -2.18539E+03
 -2.61418E+04 -1.80502E+04 -1.26358E+04 -2.56764E+04  4.05582E+03 -2.66983E+04  2.06879E+04 -2.40680E+04
  3.33433E+04 -1.47329E+04  3.95371E+04  5.13023E+03  2.77401E+04  2.53328E+04  4.62658E+03  4.27026E+04
 -2.06789E+04  3.45535E+04 -3.11630E+04  1.20065E+04 -2.26451E+04 -1.04047E+04 -5.32541E+03 -1.26347E+04
  3.62711E+02 -6.79436E+02 -8.28731E+03  8.70299E+03 -2.11583E+04  5.08404E+03 -2.09091E+04 -9.68652E+03
 -1.24848E+04 -2.42844E+04  6.45986E+03 -2.85520E+04  1.95009E+04 -2.05088E+04  2.39108E+04 -1.85397E+03
  1.50749E+04  1.67858E+04 -1.49864E+03  2.42875E+04 -1.68633E+04  1.41119E+04 -2.46357E+04 -4.93232E+03
 -1.78648E+04 -2.16516E+04 -2.50380E+03 -2.91112E+04  1.31093E+04 -2.46700E+04  2.39007E+04 -1.28228E+04
  2.28885E+04 -6.36641E+02  1.65486E+04  4.91092E+03  9.31749E+03  1.66086E+03  1.28169E+04 -2.47115E+03
  2.31529E+04  2.92735E+03  2.72720E+04  1.94534E+04  1.81331E+04  3.94758E+04 -2.62209E+03  4.66327E+04
 -2.66616E+04  3.90386E+04 -4.41821E+04  2.03325E+04 -4.69774E+04 -3.71249E+03 -3.78555E+04 -2.76627E+04
 -1.48813E+04 -3.91780E+04  1.38458E+04 -3.46047E+04  2.94046E+04 -1.54454E+04  2.53196E+04  8.27006E+03
  8.80032E+03  1.96927E+04 -1.21537E+04  1.63582E+04 -2.08383E+04  2.24087E+03 -1.59780E+04 -1.34710E+04
 -4.89931E+02 -2.06987E+04  1.06188E+04 -1.49698E+04  1.38866E+04 -1.86080E+03  3.52791E+03  9.45880E+03
 -8.88004E+03  4.74232E+03 -9.50151E+03 -7.22976E+03 -2.36083E+03 -1.89292E+04  1.27210E+04 -2.10745E+04
  2.41843E+04 -1.19882E+04  2.77991E+04  3.04029E+03  2.45771E+04  2.01805E+04  1.14406E+04  3.09805E+04
 -6.13865E+03  3.27457E+04 -2.16671E+04  2.04993E+04 -2.40186E+04  4.09392E+03 -1.61990E+04 -6.47949E+03
 -6.12272E+03 -7.78685E+03 -5.16459E+02  5.23273E+02 -2.88171E+03  3.67342E+03 -7.77408E+03  5.28912E+03
 -1.50451E+04 -1.01224E+03 -1.55736E+04 -1.20081E+04 -6.40316E+03 -2.05718E+04  7.07999E+03 -1.70277E+04
  1.34955E+04 -7.16239E+03  9.45177E+03  4.39656E+03 -6.68194E+02  6.62248E+03 -8.08562E+03 -2.93606E+02
 -8.05695E+03 -1.09366E+04 -1.15648E+03 -1.67537E+04  1.01638E+04 -1.76024E+04  2.13614E+04 -9.44365E+03
  2.55533E+04  2.27179E+03  1.82956E+04  1.55579E+04  3.64160E+03  2.06418E+04 -1.01824E+04  1.64445E+04
 -1.31209E+04  4.28468E+03 -6.89253E+03 -3.99554E+03  1.98142E+03 -4.52848E+03  8.68925E+03 -7.54608E+02
  7.65462E+03  7.17464E+03  1.44702E+03  1.37480E+04 -9.34000E+03  1.29819E+04 -1.67709E+04  3.25486E+03
 -1.14282E+04 -8.97771E+03  1.85378E+02 -1.47203E+04  9.74439E+03 -7.76816E+03  1.06074E+04  3.77497E+03
  2.30545E+03  1.12064E+04 -8.66473E+03  1.25521E+04 -1.50927E+04  5.65528E+03 -1.54083E+04 -5.64146E+03
 -8.57353E+03 -1.74108E+04  4.58723E+03 -1.99270E+04  1.69048E+04 -1.16290E+04  1.87427E+04  3.43630E+03
  1.11029E+04  1.43901E+04 -1.83337E+03  1.71994E+04 -1.25211E+04  9.58379E+03 -1.38732E+04 -1.16296E+03
 -1.19333E+04 -1.14090E+04 -1.60783E+03 -1.29774E+04  7.06840E+03 -1.03502E+04  8.65080E+03 -3.85431E+03
  5.58395E+03  2.51576E+03 -1.20708E+03  1.97448E+03 -6.72919E+02 -4.40586E+03  2.63172E+03 -8.58949E+03
  1.23151E+04 -5.01416E+03  1.80266E+04  1.79117E+03  1.71721E+04  1.23734E+04  1.09459E+04  2.33247E+04
 -5.61178E+03  2.65534E+04 -2.18669E+04  1.97165E+04 -2.81423E+04  4.23425E+03 -2.28412E+04 -9.88911E+03
 -1.13846E+04 -1.83697E+04 -3.70092E+02 -1.57192E+04  5.80452E+03 -9.21358E+03  5.87812E+03 -5.48850E+03
  3.85066E+03 -3.28427E+03  4.12328E+03 -4.56524E+03  6.19818E+03 -4.31511E+03  9.06930E+03 -1.46073E+03
  1.15066E+04  2.53987E+03  6.47773E+03  1.00368E+04 -2.46703E+03  1.29777E+04 -1.24252E+04  9.41074E+03
 -1.62990E+04 -1.80393E+03 -1.04357E+04 -1.14822E+04 -1.56461E+03 -1.76818E+04  9.60040E+03 -1.79671E+04
  1.83958E+04 -9.69290E+03  2.20456E+04  3.03843E+03  1.48373E+04  1.51247E+04  2.20064E+03  1.99190E+04
 -8.28400E+03  1.55654E+04 -1.14730E+04  5.32669E+03 -8.07145E+03 -1.92208E+03 -3.60822E+03 -2.40994E+03
 -1.51786E+03 -1.46857E+02 -2.58002E+03  3.16056E+03 -6.63485E+03  2.94275E+03 -1.08031E+04 -1.06209E+03
 -8.72092E+03 -1.14144E+04 -3.36061E+02 -1.65480E+04  1.03164E+04 -1.51447E+04  1.69689E+04 -5.20262E+03
  1.64333E+04  8.21437E+03  7.86718E+03  1.50781E+04 -3.50633E+03  1.68596E+04 -1.18009E+04  1.04008E+04
 -1.62480E+04  8.47652E+02 -1.22349E+04 -1.04276E+04 -1.55231E+03 -1.37322E+04  7.45642E+03 -1.06693E+04
  1.04466E+04 -3.07304E+03  7.46252E+03  2.91155E+03  2.70349E+03  4.40690E+03  1.93282E+03  2.22316E+03
  2.99397E+03  1.71296E+03  4.11091E+03  1.68937E+03  4.75492E+03  5.70680E+03  4.28919E+03  8.65820E+03
 -3.50822E+03  1.34692E+04 -1.19981E+04  1.31558E+04 -1.77500E+04  3.35625E+03 -1.78556E+04 -7.71794E+03
 -8.55567E+03 -1.73471E+04  2.62349E+03 -1.84952E+04  1.07372E+04 -1.26393E+04  1.43648E+04 -3.09036E+03
  1.07543E+04  6.55142E+03  2.40189E+03  1.00447E+04 -5.28329E+03  6.75914E+03 -7.19155E+03 -1.08406E+03
 -3.46207E+03 -7.42948E+03  3.74887E+03 -7.99768E+03  7.66970E+03 -3.82852E+03  7.03844E+03  1.64631E+03
  4.42336E+03  3.40109E+03  2.08095E+03  2.94236E+03 -1.05519E+03  2.54146E+03  1.86002E+03 -7.21921E+02
  3.31071E+03 -1.12608E+03  7.20938E+03  3.21861E+03  4.31138E+03  8.65566E+03 -9.44052E+02  1.21260E+04
 -7.81268E+03  7.88485E+03 -1.10114E+04  1.94697E+03 -9.95267E+03 -3.96006E+03 -4.01195E+03 -6.72443E+03
  7.56414E+02 -6.95977E+03  4.54740E+03 -3.27509E+03  3.67714E+03  3.23863E+03 -1.61584E+03  5.78375E+03
 -6.95674E+03  3.80811E+03 -8.49145E+03 -4.43588E+03 -4.77598E+03 -9.40176E+03  1.43657E+03 -9.69335E+03
  5.79682E+03 -5.58622E+03  7.13559E+03 -7.47446E+02  5.83066E+03  2.53630E+03  6.53937E+02  5.15619E+03
 -3.26026E+03  1.46362E+03 -4.38113E+03 -3.61475E+03  1.39234E+03 -7.49350E+03  8.75910E+03 -6.33203E+03
  1.17949E+04  1.07433E+03  1.08989E+04  7.99280E+03  3.56575E+03  1.19600E+04 -4.17767E+03  1.13012E+04
 -9.75953E+03  4.56861E+03 -9.82425E+03 -1.57662E+03 -5.42187E+03 -7.77864E+03  2.13147E+03 -7.24689E+03
  7.29657E+03 -3.18017E+03  6.45907E+03  2.92619E+03  1.96301E+03  6.52925E+03 -1.87171E+03  5.17571E+03
 -3.12593E+03  3.72356E+03 -3.22682E+03  1.19479E+03 -1.56135E+03  1.16939E+03 -1.80127E+03  2.24572E+03
 -3.39409E+03  4.80602E+03 -7.73425E+03  3.79857E+03 -1.17020E+04  1.91291E+02 -1.27505E+04 -7.86385E+03
 -6.82415E+03 -1.49864E+04  3.06123E+03 -1.77241E+04  1.16145E+04 -1.45496E+04  1.72860E+04 -5.49886E+03
  1.59895E+04  3.40624E+03  9.68389E+03  1.10925E+04  9.17714E+02  1.23149E+04 -4.73409E+03  8.81365E+03
 -7.28780E+03  3.29354E+03 -4.19155E+03 -1.61728E+03 -1.52909E+03 -1.30798E+03 -3.37835E+02 -2.20279E+02
 -1.99443E+03  2.46536E+02 -2.23903E+03 -1.17146E+02 -8.80434E+02 -2.93714E+03  5.40524E+02 -4.73066E+03
  5.45143E+03 -4.17188E+03  7.96913E+03  8.58899E+01  8.46636E+03  6.73230E+03  2.64875E+03  1.28649E+04
 -5.50400E+03  1.40574E+04 -1.37704E+04  8.01795E+03 -1.51891E+04 -1.32883E+03 -1.16860E+04 -9.62199E+03
 -4.68434E+03 -1.29052E+04  3.30906E+03 -1.15145E+04  8.41525E+03 -6.37078E+03  8.85218E+03 -1.11326E+02
  4.35782E+03  4.53028E+03 -2.41576E+02  3.48146E+03 -2.92213E+03 -3.05169E+02  3.09242E+02 -2.79246E+03
  3.75990E+03 -1.64688E+03  5.21744E+03  1.64056E+03  3.39201E+03  4.86473E+03 -1.23664E+01  6.46903E+03
 -5.40102E+03  5.39393E+03 -8.28874E+03  6.96865E+02 -7.83467E+03 -6.34299E+03 -1.00430E+03 -1.06192E+04
  5.93812E+03 -9.05926E+03  1.01225E+04 -3.18852E+03  9.93028E+03  2.35729E+03  5.63531E+03  7.77412E+03
  8.52508E+02  8.32806E+03 -3.54167E+03  7.00835E+03 -5.35470E+03  4.17943E+03 -4.56835E+03  1.10400E+02
 -2.42810E+03 -5.03273E+02 -2.37271E+03  7.17450E+02 -4.25021E+03  1.09215E+03 -6.62679E+03 -1.32702E+03
 -6.65524E+03 -4.93906E+03 -2.07184E+03 -8.33732E+03  4.15989E+03 -8.75922E+03  7.96968E+03 -4.01412E+03
  8.74509E+03  7.37505E+02  5.25127E+03  6.21501E+03 -5.90371E+02  8.76685E+03 -6.87762E+03  5.69077E+03
