 $NMID ID='MM_0lb_SNR800_10hz_g55_95.RAW', FMTDAT='(8E13.5)'
 TRAMP=1., VOLUME=1. $END
  3.09999E+05  4.02833E+02  3.37848E+05  2.50582E+05  8.53413E+04  3.38609E+05 -1.32808E+05  2.52048E+05
 -1.90939E+05  8.35024E+04 -1.12715E+05 -3.22269E+04  2.57589E+02 -5.06179E+04  5.39378E+04 -8.73417E+02
  3.60033E+04  5.30377E+04 -1.66568E+04  7.60067E+04 -6.12878E+04  6.44068E+04 -8.53584E+04  3.23272E+04
 -8.21316E+04 -1.15607E+04 -5.80269E+04 -5.27409E+04 -1.49897E+04 -7.07627E+04  2.81675E+04 -4.68392E+04
  4.12105E+04  3.92120E+03  1.67506E+04  4.84273E+04 -3.47209E+04  4.82538E+04 -6.81375E+04 -3.95605E+01
 -5.46141E+04 -5.81163E+04 -7.06370E+03 -7.87478E+04  3.49061E+04 -5.68547E+04  4.96051E+04 -1.78537E+04
  4.48267E+04  1.13408E+04  3.29521E+04  2.66616E+04  1.58759E+04  3.04000E+04 -5.99659E+03  2.76777E+04
 -2.22622E+04  1.18365E+04 -1.79805E+04 -5.83422E+03  7.05446E+03 -7.07700E+03  2.37892E+04  1.34895E+04
  7.15069E+03  3.72413E+04 -3.33672E+04  3.68684E+04 -6.58377E+04  1.64010E+03 -5.84316E+04 -4.45346E+04
 -1.25366E+04 -6.56672E+04  4.14123E+04 -4.75031E+04  6.07463E+04 -2.48577E+03  3.63963E+04  3.42997E+04
 -5.43277E+03  3.90673E+04 -3.14653E+04  1.86221E+04 -3.28322E+04 -3.24376E+03 -1.93131E+04 -1.19768E+04
 -9.17643E+03 -1.54604E+04 -4.43720E+02 -1.93965E+04  8.56998E+03 -2.35783E+04  1.56768E+04 -1.28518E+04
  1.05714E+04  6.04750E+03 -1.04616E+04  1.28966E+04 -2.30342E+04 -6.26772E+03 -8.64151E+03 -3.73190E+04
  2.51058E+04 -4.65515E+04  5.18083E+04 -2.04787E+04  4.81752E+04  2.08291E+04  1.71142E+04  4.67836E+04
 -1.64329E+04  3.60353E+04 -2.71774E+04  2.74009E+03 -1.14618E+04 -2.95470E+04  2.14292E+04 -3.63761E+04
  4.45097E+04 -1.08950E+04  4.03526E+04  2.44789E+04  2.08384E+04  5.05442E+04 -7.91181E+03  5.57624E+04
 -3.55868E+04  3.75857E+04 -4.68503E+04  1.07412E+04 -4.71855E+04 -1.81975E+04 -2.60807E+04 -4.20291E+04
  7.56438E+03 -4.18801E+04  3.40030E+04 -1.70488E+04  3.17140E+04  1.10685E+04  5.19915E+03  2.10395E+04
 -1.39116E+04  9.60420E+03 -1.15265E+04 -7.63314E+03  5.95810E+03 -1.13844E+04  1.89145E+04  5.52826E+03
  1.47573E+04  2.27663E+04 -5.24684E+03  2.67811E+04 -2.35934E+04  1.43156E+04 -3.09157E+04 -3.16931E+03
 -2.49245E+04 -1.81543E+04 -1.12011E+04 -2.43600E+04  4.31914E+03 -2.54537E+04  1.93168E+04 -2.24938E+04
  3.12311E+04 -1.40752E+04  3.73764E+04  4.85847E+03  2.63138E+04  2.44569E+04  4.53392E+03  4.05707E+04
 -1.97018E+04  3.33669E+04 -3.00731E+04  1.15445E+04 -2.24596E+04 -1.02758E+04 -5.10513E+03 -1.31207E+04
  8.38271E+02 -1.56060E+03 -7.34384E+03  8.15923E+03 -1.98785E+04  5.03237E+03 -2.00708E+04 -9.13499E+03
 -1.19670E+04 -2.31776E+04  6.42691E+03 -2.73437E+04  1.85589E+04 -1.93507E+04  2.21699E+04 -1.65056E+03
  1.42576E+04  1.58832E+04 -1.00625E+03  2.28848E+04 -1.59025E+04  1.33326E+04 -2.33102E+04 -4.58559E+03
 -1.64649E+04 -2.06915E+04 -2.25147E+03 -2.79326E+04  1.24644E+04 -2.27353E+04  2.26008E+04 -1.18695E+04
  2.15498E+04 -2.76409E+02  1.52861E+04  4.61914E+03  8.73004E+03  1.28518E+03  1.18641E+04 -2.11890E+03
  2.16419E+04  2.60978E+03  2.48863E+04  1.78918E+04  1.69631E+04  3.69865E+04 -2.43786E+03  4.30572E+04
 -2.51991E+04  3.58188E+04 -4.07836E+04  1.89307E+04 -4.34348E+04 -3.38949E+03 -3.55923E+04 -2.57514E+04
 -1.38720E+04 -3.58401E+04  1.28490E+04 -3.18652E+04  2.69320E+04 -1.50845E+04  2.36028E+04  7.65450E+03
  8.11908E+03  1.81000E+04 -1.12053E+04  1.55449E+04 -1.99851E+04  2.44567E+03 -1.46084E+04 -1.27549E+04
  1.12741E+02 -1.88803E+04  1.05803E+04 -1.40185E+04  1.30937E+04 -9.75599E+02  3.25502E+03  8.11503E+03
 -8.77693E+03  4.10203E+03 -8.95984E+03 -7.02544E+03 -1.68066E+03 -1.75662E+04  1.18916E+04 -1.91114E+04
  2.25157E+04 -1.06795E+04  2.50662E+04  3.10059E+03  2.21499E+04  1.82440E+04  1.02651E+04  2.85911E+04
 -5.30244E+03  2.99920E+04 -1.97061E+04  1.83957E+04 -2.21516E+04  3.52480E+03 -1.49901E+04 -5.77244E+03
 -6.64669E+03 -6.86421E+03 -7.17075E+02 -2.56723E+01 -2.75769E+03  3.16521E+03 -7.07082E+03  5.41311E+03
 -1.34955E+04 -9.30626E+02 -1.44248E+04 -1.16478E+04 -5.72054E+03 -1.89252E+04  6.38335E+03 -1.53838E+04
  1.21301E+04 -6.32255E+03  8.93335E+03  4.25482E+03 -2.37599E+02  6.54320E+03 -8.09341E+03 -8.85752E+01
 -7.21191E+03 -9.85798E+03 -1.29561E+03 -1.45565E+04  8.68156E+03 -1.60920E+04  1.92254E+04 -8.46632E+03
  2.29679E+04  2.33864E+03  1.63381E+04  1.38678E+04  3.18501E+03  1.81274E+04 -9.33809E+03  1.51548E+04
 -1.23536E+04  4.28720E+03 -6.13776E+03 -3.16553E+03  2.01599E+03 -4.37585E+03  8.18568E+03 -1.21520E+03
  7.11059E+03  6.47053E+03  1.23792E+03  1.20712E+04 -8.55947E+03  1.18439E+04 -1.47532E+04  2.83361E+03
 -1.04418E+04 -8.38731E+03  2.97086E+02 -1.28958E+04  8.50421E+03 -6.59731E+03  8.93731E+03  2.87742E+03
  2.18172E+03  9.72054E+03 -7.81969E+03  1.07754E+04 -1.28100E+04  5.08778E+03 -1.36585E+04 -5.14060E+03
 -7.72166E+03 -1.50600E+04  3.68770E+03 -1.69682E+04  1.44678E+04 -9.90663E+03  1.60097E+04  2.99697E+03
  9.37854E+03  1.26664E+04 -1.25359E+03  1.51049E+04 -1.07163E+04  7.98413E+03 -1.23481E+04 -1.43063E+03
 -1.01534E+04 -1.00797E+04 -1.69662E+03 -1.15936E+04  6.06004E+03 -9.34808E+03  7.30425E+03 -3.40329E+03
  5.08481E+03  2.07089E+03 -1.09028E+03  2.29662E+03 -8.51058E+02 -3.11493E+03  2.71202E+03 -6.84523E+03
  1.13328E+04 -4.56178E+03  1.53401E+04  1.63387E+03  1.49714E+04  1.03061E+04  9.58626E+03  1.93272E+04
 -4.46612E+03  2.23315E+04 -1.86380E+04  1.68934E+04 -2.43063E+04  3.11701E+03 -1.95908E+04 -8.60081E+03
 -9.63793E+03 -1.64236E+04 -1.36023E+02 -1.37646E+04  5.00989E+03 -7.91446E+03  5.50667E+03 -5.17293E+03
  3.42728E+03 -3.09133E+03  4.14508E+03 -4.03829E+03  5.66350E+03 -3.05278E+03  7.37215E+03 -1.06867E+03
  1.02513E+04  1.99552E+03  5.25722E+03  8.83529E+03 -1.96469E+03  1.03268E+04 -1.06096E+04  8.03475E+03
 -1.40618E+04 -1.46508E+03 -8.99239E+03 -9.65274E+03 -1.15450E+03 -1.46946E+04  7.71335E+03 -1.47934E+04
  1.52158E+04 -8.07342E+03  1.80200E+04  2.84566E+03  1.25444E+04  1.29327E+04  1.69478E+03  1.65938E+04
 -6.91584E+03  1.35948E+04 -9.63189E+03  5.08407E+03 -6.73557E+03 -1.82242E+03 -2.99934E+03 -2.09559E+03
 -1.60177E+03  2.49773E+02 -2.13161E+03  2.85878E+03 -5.79832E+03  2.54091E+03 -9.13875E+03 -1.81280E+03
 -6.56921E+03 -9.68813E+03  8.92143E+01 -1.36291E+04  8.42821E+03 -1.26290E+04  1.32445E+04 -3.95700E+03
  1.33026E+04  6.25649E+03  6.49879E+03  1.20781E+04 -2.89649E+03  1.38655E+04 -1.00014E+04  8.52620E+03
 -1.29561E+04  2.48891E+02 -9.75578E+03 -8.10138E+03 -6.79465E+02 -1.15557E+04  6.19633E+03 -8.86642E+03
  8.71940E+03 -2.75695E+03  6.16842E+03  2.48848E+03  2.16312E+03  4.41090E+03  1.14964E+03  1.79593E+03
  2.72599E+03  1.32502E+03  3.32735E+03  1.58685E+03  4.11521E+03  4.87746E+03  3.01524E+03  7.29173E+03
 -2.95917E+03  1.07284E+04 -9.53222E+03  1.10103E+04 -1.40007E+04  2.62252E+03 -1.42239E+04 -6.00567E+03
 -6.84361E+03 -1.36991E+04  1.84682E+03 -1.48633E+04  8.22661E+03 -9.82274E+03  1.06897E+04 -2.68312E+03
  8.53336E+03  5.07121E+03  2.17121E+03  8.05689E+03 -3.96574E+03  5.12105E+03 -5.41979E+03 -5.60086E+02
 -2.57717E+03 -5.95827E+03  3.20364E+03 -5.96305E+03  5.55872E+03 -2.73074E+03  6.09817E+03  9.77228E+02
  3.29772E+03  2.59202E+03  1.28275E+03  1.85426E+03 -3.70355E+02  1.75861E+03  1.51341E+03 -4.97728E+02
  1.96968E+03 -7.12476E+02  5.62050E+03  2.09536E+03  2.96863E+03  7.44911E+03 -1.23178E+03  9.75132E+03
 -6.22041E+03  6.48541E+03 -9.07120E+03  1.85900E+03 -8.17628E+03 -3.21997E+03 -3.10124E+03 -5.48533E+03
  5.61379E+02 -5.03004E+03  3.74788E+03 -2.54845E+03  3.01174E+03  2.88831E+03 -1.32223E+03  4.58151E+03
 -5.55662E+03  2.90220E+03 -6.47014E+03 -3.34281E+03 -3.49806E+03 -7.54113E+03  4.39940E+02 -7.26862E+03
  4.35484E+03 -4.45259E+03  5.43355E+03 -5.69469E+02  4.55645E+03  2.09435E+03  7.60298E+02  4.10621E+03
 -2.83231E+03  1.14860E+03 -3.28754E+03 -2.47899E+03  1.17702E+03 -5.86579E+03  6.63573E+03 -4.85549E+03
  8.34726E+03  6.53302E+02  8.87118E+03  5.72044E+03  2.55818E+03  8.96828E+03 -3.39669E+03  8.69500E+03
 -7.06785E+03  3.46052E+03 -7.71622E+03 -1.24562E+03 -4.41007E+03 -5.81802E+03  1.20807E+03 -5.93899E+03
  5.61808E+03 -2.54517E+03  4.76324E+03  2.18553E+03  1.40400E+03  4.78689E+03 -7.99521E+02  4.37609E+03
 -2.20076E+03  2.76395E+03 -2.17865E+03  8.00502E+02 -1.14761E+03  7.67964E+02 -1.59973E+03  1.94522E+03
 -2.29502E+03  3.30888E+03 -6.05204E+03  2.72126E+03 -9.03692E+03  7.66931E+02 -1.00319E+04 -5.83543E+03
 -5.20568E+03 -1.17771E+04  2.47437E+03 -1.32109E+04  8.48972E+03 -1.01591E+04  1.31853E+04 -3.60026E+03
  1.18624E+04  2.52036E+03  7.27697E+03  8.19089E+03  4.46569E+02  9.40773E+03 -3.54511E+03  6.56306E+03
 -5.15380E+03  2.87306E+03 -3.10824E+03 -1.24308E+03 -1.31977E+03 -1.09653E+03 -6.60691E+02 -6.30474E+01
 -1.88736E+03  3.29327E+02 -2.23823E+03 -6.41746E+01 -5.75259E+02 -2.46149E+03  3.04115E+02 -3.44668E+03
  4.18061E+03 -2.96878E+03  5.23533E+03  1.98498E+02  6.15093E+03  4.86025E+03  1.40723E+03  9.02187E+03
 -4.65381E+03  1.05032E+04 -9.69023E+03  6.20828E+03 -1.13526E+04 -9.78008E+02 -7.89215E+03 -7.05006E+03
 -3.51780E+03 -9.54564E+03  2.22028E+03 -8.57506E+03  5.75130E+03 -4.79325E+03  6.24512E+03  1.02203E+02
  3.34164E+03  3.07543E+03 -4.07428E+02  2.45948E+03 -2.09714E+03 -1.36866E+02 -1.29683E+02 -2.01395E+03
  2.32068E+03 -1.04423E+03  3.67615E+03  1.18231E+03  2.57547E+03  3.37329E+03  2.97708E+02  4.17439E+03
 -3.74972E+03  4.28397E+03 -6.01575E+03  8.54006E+01 -5.77956E+03 -4.07566E+03 -6.36427E+02 -7.36976E+03
  4.29541E+03 -6.51025E+03  6.72592E+03 -1.95637E+03  6.98352E+03  1.56960E+03  3.83819E+03  5.89400E+03
  1.09128E+03  5.68230E+03 -1.97255E+03  5.02891E+03 -3.58019E+03  2.55275E+03 -2.96539E+03  4.99437E+02
 -1.76497E+03 -1.94774E+01 -1.29957E+03  6.83875E+02 -3.34119E+03  1.14702E+03 -4.85192E+03 -1.33810E+03
 -4.79148E+03 -2.89934E+03 -1.52733E+03 -5.82554E+03  3.01847E+03 -6.20538E+03  5.54129E+03 -2.60969E+03
  5.94703E+03  5.30792E+02  2.92178E+03  4.32863E+03 -7.04623E+02  6.32687E+03 -4.37110E+03  3.79692E+03
