 $NMID ID='MM_0lb_SNR800_7hz_g60_66.RAW', FMTDAT='(8E13.5)'
 TRAMP=1., VOLUME=1. $END
  3.09872E+05  2.31407E+02  3.38343E+05  2.51486E+05  8.46466E+04  3.39018E+05 -1.32487E+05  2.52422E+05
 -1.91223E+05  8.41030E+04 -1.12785E+05 -3.23985E+04 -2.43279E+02 -5.08026E+04  5.32390E+04 -1.53652E+02
  3.54643E+04  5.32215E+04 -1.68721E+04  7.64394E+04 -6.13771E+04  6.48636E+04 -8.57635E+04  3.25550E+04
 -8.30857E+04 -1.13010E+04 -5.82552E+04 -5.30984E+04 -1.49081E+04 -7.17304E+04  2.81545E+04 -4.77370E+04
  4.17759E+04  4.03813E+03  1.75167E+04  4.88739E+04 -3.52694E+04  4.91662E+04 -6.89881E+04  1.64022E+02
 -5.62613E+04 -5.80421E+04 -7.83816E+03 -8.03718E+04  3.56465E+04 -5.82598E+04  5.10896E+04 -1.89412E+04
  4.65467E+04  1.14152E+04  3.34917E+04  2.73174E+04  1.62517E+04  3.14712E+04 -5.85505E+03  2.80233E+04
 -2.24169E+04  1.16538E+04 -1.72261E+04 -6.22065E+03  7.86550E+03 -7.13457E+03  2.39312E+04  1.42741E+04
  7.02261E+03  3.88150E+04 -3.49124E+04  3.80239E+04 -6.77338E+04  1.53765E+03 -5.97381E+04 -4.53747E+04
 -1.28358E+04 -6.78022E+04  4.24995E+04 -4.88581E+04  6.31952E+04 -2.81142E+03  3.80942E+04  3.56645E+04
 -5.21610E+03  4.13192E+04 -3.26424E+04  2.04127E+04 -3.55066E+04 -2.84949E+03 -2.05471E+04 -1.24809E+04
 -1.01578E+04 -1.66286E+04 -9.53972E+01 -2.05370E+04  9.42335E+03 -2.41183E+04  1.60791E+04 -1.19642E+04
  9.67807E+03  6.97168E+03 -1.16661E+04  1.26232E+04 -2.51523E+04 -8.35715E+03 -8.99054E+03 -3.98732E+04
  2.64516E+04 -4.91230E+04  5.46071E+04 -2.16739E+04  5.11973E+04  2.18785E+04  1.84677E+04  4.89565E+04
 -1.71446E+04  3.74253E+04 -2.89317E+04  3.32647E+03 -1.30522E+04 -3.06352E+04  2.22279E+04 -3.89839E+04
  4.66675E+04 -1.29213E+04  4.38104E+04  2.60747E+04  2.30774E+04  5.35117E+04 -8.15176E+03  5.97609E+04
 -3.76889E+04  4.11179E+04 -5.11389E+04  1.21682E+04 -5.08455E+04 -1.97456E+04 -2.81634E+04 -4.42770E+04
  8.23848E+03 -4.44034E+04  3.62424E+04 -1.86331E+04  3.44389E+04  1.18676E+04  6.18480E+03  2.18032E+04
 -1.41223E+04  1.01083E+04 -1.15365E+04 -7.70064E+03  5.76084E+03 -1.22805E+04  1.95367E+04  5.21624E+03
  1.56139E+04  2.32194E+04 -4.65836E+03  2.81498E+04 -2.44462E+04  1.63020E+04 -3.40440E+04 -1.58881E+03
 -2.85324E+04 -1.95885E+04 -1.34305E+04 -2.80503E+04  4.47446E+03 -2.94079E+04  2.19647E+04 -2.60865E+04
  3.62163E+04 -1.49703E+04  4.11250E+04  5.76622E+03  2.89088E+04  2.73555E+04  4.72722E+03  4.40942E+04
 -2.10321E+04  3.65197E+04 -3.26411E+04  1.25462E+04 -2.32499E+04 -9.82639E+03 -4.95368E+03 -1.20212E+04
 -1.20774E+02 -7.10394E+01 -9.31927E+03  9.53644E+03 -2.30016E+04  5.14010E+03 -2.21465E+04 -1.07900E+04
 -1.30544E+04 -2.62774E+04  6.53449E+03 -3.04151E+04  2.10263E+04 -2.19581E+04  2.52381E+04 -1.95541E+03
  1.64185E+04  1.81611E+04 -1.71314E+03  2.58111E+04 -1.89348E+04  1.53809E+04 -2.68413E+04 -5.54401E+03
 -1.94517E+04 -2.34359E+04 -2.76630E+03 -3.09689E+04  1.35855E+04 -2.67985E+04  2.54175E+04 -1.39220E+04
  2.45009E+04 -5.13039E+02  1.76365E+04  5.41466E+03  1.02596E+04  1.12611E+03  1.40005E+04 -2.66211E+03
  2.52731E+04  2.98929E+03  2.92085E+04  2.05548E+04  2.03080E+04  4.22008E+04 -2.91093E+03  5.08438E+04
 -2.89337E+04  4.26500E+04 -4.79941E+04  2.25592E+04 -5.25910E+04 -3.86395E+03 -4.13563E+04 -3.04061E+04
 -1.61558E+04 -4.37750E+04  1.57135E+04 -3.74740E+04  3.17212E+04 -1.71860E+04  2.72849E+04  8.95418E+03
  9.27628E+03  2.14159E+04 -1.27507E+04  1.75290E+04 -2.27302E+04  2.40503E+03 -1.69819E+04 -1.46292E+04
 -2.91514E+02 -2.21207E+04  1.15824E+04 -1.62277E+04  1.55214E+04 -1.48122E+03  4.45937E+03  1.01821E+04
 -9.74118E+03  4.88408E+03 -1.15387E+04 -7.64432E+03 -2.94970E+03 -2.13214E+04  1.37351E+04 -2.34266E+04
  2.64919E+04 -1.35559E+04  3.18573E+04  3.96222E+03  2.80200E+04  2.18077E+04  1.26367E+04  3.53947E+04
 -6.96530E+03  3.71444E+04 -2.43131E+04  2.29777E+04 -2.69988E+04  4.65857E+03 -1.80435E+04 -7.77377E+03
 -7.04324E+03 -8.78314E+03 -5.75181E+02 -1.25325E+02 -3.20731E+03  4.11717E+03 -9.18533E+03  5.91447E+03
 -1.66005E+04 -1.29597E+03 -1.71816E+04 -1.37426E+04 -6.84221E+03 -2.25893E+04  7.64934E+03 -1.84776E+04
  1.49813E+04 -7.58655E+03  1.07137E+04  4.58017E+03 -7.24823E+02  7.08841E+03 -9.98076E+03  5.60785E+02
 -9.41940E+03 -1.21261E+04 -1.45504E+03 -1.87466E+04  1.10080E+04 -1.99570E+04  2.41701E+04 -1.10501E+04
  2.84902E+04  3.14687E+03  2.05497E+04  1.79304E+04  3.45494E+03  2.34663E+04 -1.13499E+04  1.82355E+04
 -1.49424E+04  5.67371E+03 -7.57311E+03 -4.20464E+03  2.84154E+03 -5.67173E+03  1.00074E+04 -7.31499E+02
  8.83431E+03  8.60211E+03  1.48390E+03  1.53274E+04 -1.07839E+04  1.42183E+04 -1.89014E+04  3.95526E+03
 -1.32748E+04 -1.03490E+04  2.22477E+02 -1.68339E+04  1.08206E+04 -8.31257E+03  1.17613E+04  4.14152E+03
  3.22615E+03  1.28949E+04 -9.54676E+03  1.43747E+04 -1.69926E+04  6.35508E+03 -1.81735E+04 -6.62478E+03
 -9.96993E+03 -1.96611E+04  5.36954E+03 -2.28493E+04  1.94541E+04 -1.36495E+04  2.16986E+04  3.80219E+03
  1.22884E+04  1.68528E+04 -2.57091E+03  1.95417E+04 -1.44395E+04  1.07531E+04 -1.57671E+04 -1.89802E+03
 -1.30664E+04 -1.24937E+04 -2.38546E+03 -1.52994E+04  7.71128E+03 -1.18649E+04  9.58473E+03 -4.14127E+03
  6.09211E+03  2.76587E+03 -1.39948E+03  2.50582E+03 -1.85353E+03 -5.20094E+03  4.01169E+03 -9.52866E+03
  1.44899E+04 -6.84960E+03  2.08139E+04  2.59713E+03  2.01861E+04  1.48854E+04  1.23351E+04  2.67500E+04
 -6.51795E+03  3.06615E+04 -2.48678E+04  2.27608E+04 -3.28959E+04  4.64367E+03 -2.62283E+04 -1.16773E+04
 -1.30230E+04 -2.16084E+04  3.30328E+02 -1.88550E+04  6.81717E+03 -1.10318E+04  6.52882E+03 -6.65514E+03
  4.60024E+03 -3.97277E+03  4.77338E+03 -4.79614E+03  7.04602E+03 -4.69146E+03  1.00079E+04 -2.13389E+03
  1.29459E+04  2.89708E+03  8.14585E+03  1.18603E+04 -2.79486E+03  1.55237E+04 -1.48885E+04  1.16218E+04
 -1.91544E+04 -1.51705E+03 -1.29136E+04 -1.39039E+04 -2.12871E+03 -2.11170E+04  1.12978E+04 -2.05853E+04
  2.19250E+04 -1.14361E+04  2.56261E+04  3.82842E+03  1.79747E+04  1.82960E+04  2.64211E+03  2.30926E+04
 -1.03496E+04  1.82480E+04 -1.36743E+04  6.32596E+03 -1.02173E+04 -1.85109E+03 -4.55659E+03 -3.01147E+03
 -2.21858E+03 -6.04219E+02 -2.82007E+03  3.60834E+03 -7.91692E+03  3.46086E+03 -1.34384E+04 -1.58143E+03
 -9.73785E+03 -1.31908E+04 -9.84428E+02 -1.97540E+04  1.19463E+04 -1.80997E+04  1.99345E+04 -5.27286E+03
  1.99862E+04  9.05504E+03  9.58385E+03  1.85556E+04 -4.29454E+03  2.02585E+04 -1.45112E+04  1.27404E+04
 -1.91861E+04  9.16950E+02 -1.44617E+04 -1.19297E+04 -1.53453E+03 -1.75764E+04  9.05983E+03 -1.26823E+04
  1.25873E+04 -4.11693E+03  8.79979E+03  3.39117E+03  3.20550E+03  5.75488E+03  1.25293E+03  3.13364E+03
  3.37823E+03  1.22810E+03  4.44158E+03  2.31943E+03  5.95291E+03  6.47585E+03  4.98510E+03  1.13207E+04
 -3.94271E+03  1.61783E+04 -1.43855E+04  1.58445E+04 -2.16012E+04  3.83453E+03 -2.17235E+04 -9.86778E+03
 -1.02280E+04 -2.07774E+04  3.51920E+03 -2.26178E+04  1.31611E+04 -1.46977E+04  1.75988E+04 -3.82338E+03
  1.34680E+04  7.53041E+03  3.10025E+03  1.20477E+04 -6.67793E+03  7.49949E+03 -9.09323E+03 -1.22352E+03
 -4.39558E+03 -9.41529E+03  4.50383E+03 -8.88998E+03  9.02372E+03 -4.28075E+03  8.80441E+03  2.26287E+03
  5.06019E+03  5.16176E+03  1.82397E+03  3.76875E+03 -8.86541E+02  2.59664E+03  1.91413E+03 -7.95225E+02
  3.72500E+03 -1.49621E+03  8.78379E+03  3.65790E+03  5.55354E+03  1.05943E+04 -2.19597E+03  1.49433E+04
 -1.04019E+04  1.00779E+04 -1.38924E+04  3.15809E+03 -1.15362E+04 -5.06398E+03 -5.59194E+03 -8.16813E+03
  1.58743E+03 -8.54026E+03  5.27231E+03 -4.15534E+03  4.89087E+03  4.25335E+03 -1.68947E+03  6.55884E+03
 -8.81799E+03  4.18160E+03 -1.10360E+04 -4.87778E+03 -6.11997E+03 -1.15982E+04  1.92107E+03 -1.24222E+04
  7.27388E+03 -7.18738E+03  9.50672E+03 -5.77456E+02  7.11419E+03  3.65640E+03  1.25668E+03  6.21527E+03
 -4.28753E+03  2.10385E+03 -5.26416E+03 -4.20611E+03  2.11677E+03 -9.34044E+03  1.10210E+04 -7.63445E+03
  1.50802E+04  7.78106E+02  1.30855E+04  9.91081E+03  3.72521E+03  1.48647E+04 -5.41808E+03  1.41920E+04
 -1.22499E+04  6.38398E+03 -1.28460E+04 -1.88812E+03 -6.88434E+03 -9.42267E+03  1.74426E+03 -9.19698E+03
  8.80286E+03 -4.67424E+03  7.89884E+03  3.95268E+03  2.77936E+03  8.46011E+03 -1.42312E+03  7.01540E+03
 -3.82949E+03  4.59185E+03 -3.41242E+03  1.69834E+03 -2.10944E+03  8.93305E+02 -1.82858E+03  3.18160E+03
 -3.77181E+03  5.86484E+03 -9.73785E+03  5.12255E+03 -1.45969E+04  5.01139E+02 -1.63740E+04 -1.00224E+04
 -8.67165E+03 -2.02304E+04  3.98681E+03 -2.28442E+04  1.44101E+04 -1.73762E+04  2.14898E+04 -6.97006E+03
  2.03170E+04  4.46638E+03  1.29861E+04  1.35723E+04  1.96481E+03  1.62551E+04 -6.76022E+03  1.19421E+04
 -9.06872E+03  4.18917E+03 -5.25746E+03 -1.50804E+03 -1.38289E+03 -2.00737E+03 -9.40394E+02 -1.41715E+02
 -2.29180E+03  3.77009E+02 -3.25980E+03 -9.11153E+02 -1.56643E+03 -3.67536E+03  4.97711E+02 -5.83396E+03
  6.75004E+03 -5.53307E+03  1.00939E+04 -3.05728E+02  1.11945E+04  8.38118E+03  3.26950E+03  1.59224E+04
 -7.22786E+03  1.80915E+04 -1.68275E+04  1.03635E+04 -1.98606E+04 -1.28639E+03 -1.54274E+04 -1.17259E+04
 -5.85111E+03 -1.61800E+04  4.15480E+03 -1.57345E+04  1.02510E+04 -8.32057E+03  1.06046E+04  4.20862E+02
  6.16258E+03  5.68167E+03 -8.37752E+02  4.89378E+03 -3.13353E+03 -2.01435E+01  3.69383E+02 -3.97300E+03
  4.77347E+03 -2.65837E+03  6.64482E+03  1.36976E+03  4.27048E+03  6.56908E+03 -2.07559E+02  8.73073E+03
 -6.70479E+03  7.74697E+03 -1.15738E+04  4.89678E+02 -1.00596E+04 -7.88963E+03 -1.84221E+03 -1.37707E+04
  7.84750E+03 -1.09815E+04  1.31000E+04 -3.61401E+03  1.28026E+04  4.32971E+03  7.65857E+03  1.00905E+04
  1.21573E+03  1.17457E+04 -4.35890E+03  9.12069E+03 -6.67680E+03  4.92173E+03 -5.58866E+03  5.37922E+02
 -3.02896E+03 -3.18495E+02 -2.85833E+03  7.97008E+02 -5.75502E+03  1.75255E+03 -9.09483E+03 -1.33085E+03
 -8.18974E+03 -6.33015E+03 -2.26454E+03 -1.11265E+04  4.85392E+03 -1.10245E+04  9.60664E+03 -5.95291E+03
  1.16028E+04  1.43716E+03  6.54186E+03  8.38641E+03 -8.27277E+02  1.13458E+04 -8.77072E+03  7.40822E+03
