 $NMID ID='MM_0lb_SNR800_15hz_g60_61.RAW', FMTDAT='(8E13.5)'
 TRAMP=1., VOLUME=1. $END
  3.09628E+05  4.97364E+02  3.37723E+05  2.50771E+05  8.48509E+04  3.38162E+05 -1.32531E+05  2.51272E+05
 -1.90263E+05  8.37516E+04 -1.12066E+05 -3.24460E+04  7.57030E+02 -5.06033E+04  5.32755E+04 -7.45118E+01
  3.54667E+04  5.28541E+04 -1.68727E+04  7.55653E+04 -6.09583E+04  6.37408E+04 -8.47246E+04  3.24318E+04
 -8.16036E+04 -1.15423E+04 -5.73578E+04 -5.16033E+04 -1.50695E+04 -7.00559E+04  2.76486E+04 -4.59372E+04
  4.04375E+04  3.63513E+03  1.61789E+04  4.77867E+04 -3.42753E+04  4.76074E+04 -6.69916E+04 -3.44647E+02
 -5.39537E+04 -5.74094E+04 -7.27620E+03 -7.72758E+04  3.40567E+04 -5.56548E+04  4.85790E+04 -1.77195E+04
  4.36679E+04  1.13252E+04  3.20220E+04  2.56335E+04  1.59792E+04  2.95477E+04 -5.56727E+03  2.71677E+04
 -2.25279E+04  1.23745E+04 -1.86661E+04 -5.21457E+03  6.01539E+03 -7.29977E+03  2.23411E+04  1.25833E+04
  7.34514E+03  3.56760E+04 -3.25775E+04  3.56670E+04 -6.40857E+04  2.01055E+03 -5.74005E+04 -4.32056E+04
 -1.25617E+04 -6.34627E+04  3.99989E+04 -4.57846E+04  5.87342E+04 -2.41211E+03  3.49412E+04  3.29211E+04
 -5.74491E+03  3.69961E+04 -3.04940E+04  1.64150E+04 -3.11057E+04 -4.31969E+03 -1.70515E+04 -1.12438E+04
 -8.55598E+03 -1.37666E+04 -8.15651E+02 -1.83402E+04  7.76529E+03 -2.33696E+04  1.53190E+04 -1.29590E+04
  1.15751E+04  5.47270E+03 -8.57134E+03  1.29482E+04 -2.15198E+04 -5.24219E+03 -8.43417E+03 -3.44869E+04
  2.31473E+04 -4.38794E+04  4.87293E+04 -2.00107E+04  4.58484E+04  1.96044E+04  1.59527E+04  4.46697E+04
 -1.64443E+04  3.42809E+04 -2.54768E+04  1.79480E+03 -1.03226E+04 -2.80665E+04  2.08675E+04 -3.44637E+04
  4.16623E+04 -9.55836E+03  3.62845E+04  2.39955E+04  1.86759E+04  4.72460E+04 -8.00507E+03  5.10581E+04
 -3.19892E+04  3.42148E+04 -4.30220E+04  9.88886E+03 -4.32530E+04 -1.71516E+04 -2.36870E+04 -3.84820E+04
  7.37281E+03 -3.82900E+04  3.16986E+04 -1.50426E+04  2.96484E+04  1.06963E+04  4.41688E+03  1.95174E+04
 -1.36346E+04  8.50693E+03 -1.02424E+04 -7.49355E+03  5.87048E+03 -1.09125E+04  1.80069E+04  6.26813E+03
  1.35559E+04  2.19366E+04 -5.81645E+03  2.54235E+04 -2.23894E+04  1.19461E+04 -2.84832E+04 -4.59550E+03
 -2.09886E+04 -1.73649E+04 -8.74096E+03 -2.08418E+04  4.08272E+03 -2.06273E+04  1.62375E+04 -1.88892E+04
  2.67588E+04 -1.32267E+04  3.31451E+04  2.94240E+03  2.44569E+04  2.02497E+04  4.09790E+03  3.68053E+04
 -1.82334E+04  3.08837E+04 -2.82636E+04  1.07642E+04 -2.10981E+04 -1.02285E+04 -4.31580E+03 -1.34498E+04
  1.72970E+03 -2.40982E+03 -5.00807E+03  6.98321E+03 -1.64520E+04  5.10710E+03 -1.65306E+04 -7.31719E+03
 -1.02886E+04 -1.96826E+04  5.19210E+03 -2.33434E+04  1.57329E+04 -1.69845E+04  1.85613E+04 -1.67149E+03
  1.18978E+04  1.33895E+04 -1.05330E+03  1.97874E+04 -1.35192E+04  1.12283E+04 -1.97810E+04 -4.14304E+03
 -1.43451E+04 -1.76730E+04 -1.78322E+03 -2.34037E+04  1.06909E+04 -1.96663E+04  1.93639E+04 -9.34523E+03
  1.83109E+04  1.18330E+02  1.31335E+04  4.50980E+03  6.82746E+03  6.93150E+02  9.68423E+03 -1.74161E+03
  1.79152E+04  2.72055E+03  1.94460E+04  1.57712E+04  1.30145E+04  3.08413E+04 -2.88645E+03  3.48739E+04
 -2.00245E+04  2.81137E+04 -3.23647E+04  1.39648E+04 -3.40048E+04 -2.53157E+03 -2.79617E+04 -1.94293E+04
 -1.19992E+04 -2.83805E+04  9.86220E+03 -2.53438E+04  2.21204E+04 -1.30332E+04  1.95173E+04  5.67450E+03
  7.56015E+03  1.46158E+04 -9.30781E+03  1.28058E+04 -1.67479E+04  2.75366E+03 -1.26352E+04 -1.03763E+04
 -2.05725E+02 -1.55540E+04  8.05337E+03 -1.15704E+04  1.02640E+04 -1.13479E+03  2.43235E+03  6.37509E+03
 -7.24010E+03  2.59148E+03 -6.14027E+03 -5.45485E+03 -5.54166E+02 -1.37823E+04  9.54923E+03 -1.43819E+04
  1.68608E+04 -7.64213E+03  1.80235E+04  3.15531E+03  1.59234E+04  1.34204E+04  7.42650E+03  2.06382E+04
 -3.33860E+03  2.26114E+04 -1.43845E+04  1.38244E+04 -1.63383E+04  3.40955E+03 -1.14221E+04 -3.64621E+03
 -5.17403E+03 -5.00174E+03 -7.58840E+02  1.21464E+03 -2.45295E+03  2.56479E+03 -5.30186E+03  4.43543E+03
 -1.04819E+04 -8.01643E+02 -1.11572E+04 -9.47275E+03 -4.53856E+03 -1.45940E+04  4.66531E+03 -1.13397E+04
  9.85424E+03 -5.11960E+03  6.89819E+03  3.05718E+03  2.88836E+02  4.37317E+03 -5.61672E+03 -1.70160E+02
 -5.24379E+03 -7.05851E+03 -6.37245E+02 -1.04222E+04  5.95806E+03 -1.11470E+04  1.40194E+04 -5.93094E+03
  1.65409E+04  1.26058E+03  1.17780E+04  9.34074E+03  2.46627E+03  1.27680E+04 -6.93123E+03  1.12309E+04
 -9.37600E+03  3.75021E+03 -4.56721E+03 -1.97678E+03  1.75896E+03 -2.81208E+03  6.19819E+03 -1.13673E+03
  5.45528E+03  4.46920E+03  9.75198E+02  8.97175E+03 -6.27452E+03  8.59537E+03 -1.10216E+04  1.90445E+03
 -7.34744E+03 -5.49138E+03  4.08369E+02 -9.45481E+03  5.51682E+03 -4.39171E+03  5.95831E+03  1.95618E+03
  7.60873E+02  5.98949E+03 -5.52844E+03  7.53276E+03 -7.96331E+03  3.57400E+03 -8.22713E+03 -2.47274E+03
 -4.61748E+03 -9.73842E+03  2.04811E+03 -1.14179E+04  9.56058E+03 -6.89575E+03  1.02173E+04  1.40278E+03
  6.49035E+03  8.13015E+03 -5.71494E+02  1.03937E+04 -7.53406E+03  5.87672E+03 -7.95908E+03 -7.25782E+02
 -7.93520E+03 -7.17253E+03 -1.44630E+03 -7.52482E+03  4.10264E+03 -6.54227E+03  4.52090E+03 -3.04542E+03
  3.53170E+03  1.08084E+03 -6.29651E+02  1.38479E+03 -2.17464E+02 -1.53739E+03  1.24946E+03 -3.64298E+03
  6.84396E+03 -2.43267E+03  9.36810E+03  1.15291E+03  9.21511E+03  5.97237E+03  7.17470E+03  1.21955E+04
 -2.68379E+03  1.39547E+04 -1.19274E+04  1.04667E+04 -1.56707E+04  2.36955E+03 -1.19902E+04 -4.99371E+03
 -6.37504E+03 -1.02589E+04 -9.64612E+01 -8.33417E+03  3.12576E+03 -4.24980E+03  2.49662E+03 -3.41277E+03
  2.31365E+03 -2.00245E+03  2.77707E+03 -3.10159E+03  4.40543E+03 -1.98504E+03  5.25521E+03 -2.04015E+02
  6.73572E+03  1.87289E+03  2.56214E+03  5.75256E+03 -1.71159E+03  5.58222E+03 -6.56156E+03  4.81342E+03
 -8.04999E+03 -1.15873E+03 -4.27941E+03 -5.62082E+03 -3.14064E+02 -8.46204E+03  4.99554E+03 -8.90457E+03
  8.72754E+03 -5.07982E+03  1.10975E+04  1.16789E+03  7.80838E+03  7.71908E+03  1.55598E+03  1.00673E+04
 -3.73081E+03  8.44488E+03 -5.76809E+03  2.58526E+03 -3.54456E+03 -1.17382E+03 -1.60983E+03 -1.19930E+03
 -8.23860E+02  1.43875E+01 -1.48763E+03  2.40674E+03 -3.77709E+03  1.29673E+03 -5.70872E+03 -5.41750E+02
 -3.24709E+03 -5.95095E+03  8.59407E+02 -7.77436E+03  5.01589E+03 -7.40104E+03  6.91901E+03 -2.03279E+03
  7.24810E+03  3.55975E+03  3.23484E+03  6.35064E+03 -1.42876E+03  7.74364E+03 -5.31594E+03  4.50585E+03
 -6.77082E+03  6.16270E+02 -5.50338E+03 -4.56024E+03 -5.73258E+02 -5.96358E+03  2.62715E+03 -5.02254E+03
  4.74273E+03 -1.92357E+03  3.36738E+03  1.25890E+03  9.41357E+02  2.43395E+03  9.59949E+02  1.14966E+03
  2.37560E+03  8.67268E+02  1.60999E+03  1.20713E+03  2.22897E+03  3.03469E+03  2.40707E+03  3.55052E+03
 -1.51955E+03  5.40568E+03 -4.78107E+03  6.19242E+03 -6.20174E+03  1.84807E+03 -7.74875E+03 -2.10763E+03
 -3.36905E+03 -7.03188E+03  1.18886E+03 -8.10175E+03  4.12775E+03 -4.39200E+03  5.55751E+03 -1.27282E+03
  4.29183E+03  2.74563E+03  8.41106E+02  4.05413E+03 -1.71865E+03  2.60490E+03 -2.56106E+03 -4.33735E+02
 -1.37020E+03 -2.82016E+03  1.75243E+03 -2.62087E+03  2.72004E+03 -1.25231E+03  2.49419E+03  7.92692E+02
  1.47395E+03  1.03146E+03  1.28678E+03  4.72668E+02 -7.34399E+02  8.14690E+02  1.56553E+03 -4.06261E+02
  7.09291E+02 -4.42905E+02  2.91361E+03  1.25114E+03  1.41666E+03  4.15212E+03 -7.29663E+02  5.05205E+03
 -3.05873E+03  2.82800E+03 -4.27896E+03  8.92692E+02 -4.10533E+03 -1.40483E+03 -1.04234E+03 -2.33642E+03
  5.24920E+02 -2.56669E+03  1.55583E+03 -1.46175E+03  1.18658E+03  1.70514E+03 -6.73365E+02  2.21146E+03
 -2.66017E+03  1.34389E+03 -2.45462E+03 -1.81152E+03 -1.78317E+03 -3.79776E+03  6.44457E+02 -3.09361E+03
  1.71419E+03 -1.73282E+03  2.07073E+03  1.80473E+02  2.36062E+03  4.73303E+02  6.65969E+02  1.86326E+03
 -8.19323E+02  2.75923E+02 -1.77344E+03 -1.06202E+03  8.54405E+02 -2.27514E+03  3.27767E+03 -2.10643E+03
  3.14123E+03  5.04885E+01  4.31288E+03  1.98058E+03  1.77842E+03  3.93313E+03 -1.46837E+03  3.80393E+03
 -3.05166E+03  9.41476E+02 -3.08613E+03 -2.76552E+02 -1.74735E+03 -2.62668E+03  5.23306E+02 -1.98467E+03
  2.66590E+03 -1.40914E+03  1.80170E+03  1.09611E+03  5.71702E+02  2.18100E+03  3.43814E+02  2.01069E+03
 -1.03887E+03  1.46995E+03 -1.23774E+03  5.76960E+02 -5.65492E+02  5.74853E+02 -9.77194E+02  6.29062E+02
 -1.04714E+03  1.58367E+03 -2.95687E+03  1.13765E+03 -3.56079E+03  7.53658E+01 -4.08769E+03 -2.20145E+03
 -1.83019E+03 -4.86994E+03  1.15210E+03 -5.32999E+03  2.81129E+03 -4.33601E+03  5.24336E+03 -1.80019E+03
  4.72127E+03  2.65030E+02  2.87513E+03  3.26660E+03 -3.54785E+02  3.14364E+03 -1.28640E+03  2.48113E+03
 -1.92450E+03  1.20060E+03 -1.15775E+03 -2.96074E+02 -6.83206E+02 -5.19051E+01 -5.95754E+02 -2.31946E+02
 -1.16971E+03  2.64803E+02 -8.82798E+02  6.90288E+01  3.13648E+02 -1.06412E+03 -3.57036E+02 -1.44513E+03
  1.94597E+03 -1.12297E+03  1.58358E+03 -4.97773E+00  2.35768E+03  1.98189E+03  3.69902E+01  3.44094E+03
 -1.61572E+03  3.90114E+03 -3.51564E+03  2.54084E+03 -3.90194E+03 -1.54765E+02 -2.88159E+03 -2.44771E+03
 -1.61643E+03 -2.92999E+03  8.72803E+02 -2.85443E+03  1.89002E+03 -1.38049E+03  1.60992E+03  4.89980E+02
  1.28035E+03  3.71905E+02 -4.24299E+00  1.20421E+03 -5.77909E+02  2.42887E+02  2.35096E+01 -5.27887E+02
  1.03057E+03 -1.81518E+02  9.72823E+02  6.37963E+02  2.74326E+02  1.40451E+03  3.15365E+02  1.26614E+03
 -1.25519E+03  1.50711E+03 -1.53709E+03  1.32832E+02 -1.85358E+03 -1.08770E+03 -2.29889E+02 -2.21502E+03
  1.34587E+03 -1.95341E+03  1.63018E+03 -5.45893E+02  1.94069E+03 -3.37690E+01  1.42906E+03  1.91730E+03
  3.46160E+02  1.51091E+03 -6.72381E+02  1.32710E+03 -1.14210E+03  1.07056E+03 -8.51109E+02  2.70144E+02
 -3.34401E+02  8.73138E+01 -6.55344E+02  3.79523E+02 -9.23226E+02  4.86713E+01 -1.37366E+03 -4.18522E+02
 -2.02974E+03 -2.84830E+02 -4.80119E+02 -1.88898E+03  1.07749E+03 -2.37857E+03  1.79116E+03 -8.80328E+02
  1.66372E+03  1.52278E+02  1.05256E+02  1.41421E+03 -3.98081E+02  1.86869E+03 -1.15689E+03  1.43966E+03
