 $NMID ID='MM_0lb_SNR800_15hz_g40_34.RAW', FMTDAT='(8E13.5)'
 TRAMP=1., VOLUME=1. $END
  3.09976E+05  5.02494E+02  3.37316E+05  2.50337E+05  8.47811E+04  3.37629E+05 -1.32814E+05  2.50444E+05
 -1.89789E+05  8.24348E+04 -1.11753E+05 -3.29201E+04  1.32360E+03 -5.06129E+04  5.38406E+04 -6.72259E+01
  3.50069E+04  5.30731E+04 -1.73432E+04  7.52998E+04 -6.06997E+04  6.30083E+04 -8.36424E+04  3.16006E+04
 -8.04180E+04 -1.11893E+04 -5.66505E+04 -5.06231E+04 -1.48526E+04 -6.88435E+04  2.67477E+04 -4.52734E+04
  3.97609E+04  3.99760E+03  1.56501E+04  4.72113E+04 -3.42651E+04  4.67731E+04 -6.59662E+04 -2.29899E+02
 -5.24293E+04 -5.63774E+04 -6.72155E+03 -7.62205E+04  3.36710E+04 -5.42519E+04  4.71377E+04 -1.68277E+04
  4.27544E+04  1.12175E+04  3.15391E+04  2.48482E+04  1.56679E+04  2.88851E+04 -4.86753E+03  2.71080E+04
 -2.17083E+04  1.26594E+04 -1.88329E+04 -4.48507E+03  4.66978E+03 -7.47815E+03  2.14595E+04  1.17634E+04
  7.30663E+03  3.42207E+04 -3.14182E+04  3.47794E+04 -6.23439E+04  2.22847E+03 -5.61668E+04 -4.20584E+04
 -1.22652E+04 -6.21850E+04  3.87226E+04 -4.45472E+04  5.68715E+04 -2.13808E+03  3.32425E+04  3.17405E+04
 -6.20107E+03  3.45946E+04 -2.90282E+04  1.48314E+04 -2.92952E+04 -4.90053E+03 -1.57215E+04 -1.06718E+04
 -7.96343E+03 -1.23677E+04 -1.14278E+03 -1.74806E+04  7.21131E+03 -2.25585E+04  1.53776E+04 -1.35584E+04
  1.16703E+04  4.85340E+03 -7.20821E+03  1.29997E+04 -2.01985E+04 -3.26618E+03 -8.33420E+03 -3.24434E+04
  2.19111E+04 -4.17880E+04  4.67580E+04 -1.93079E+04  4.36943E+04  1.88875E+04  1.50918E+04  4.30263E+04
 -1.57183E+04  3.24423E+04 -2.44544E+04  1.47642E+03 -9.03759E+03 -2.67306E+04  2.08580E+04 -3.27248E+04
  3.96272E+04 -8.22530E+03  3.36153E+04  2.29864E+04  1.70067E+04  4.44609E+04 -7.91681E+03  4.79994E+04
 -3.01038E+04  3.18565E+04 -3.98507E+04  8.94643E+03 -4.05272E+04 -1.61105E+04 -2.24061E+04 -3.62935E+04
  7.21018E+03 -3.61483E+04  3.04521E+04 -1.37014E+04  2.79411E+04  1.08452E+04  3.40692E+03  1.84664E+04
 -1.32172E+04  7.86235E+03 -1.00509E+04 -7.65101E+03  5.99546E+03 -1.06972E+04  1.74750E+04  6.38136E+03
  1.28830E+04  2.18006E+04 -6.24448E+03  2.43915E+04 -2.19003E+04  1.06159E+04 -2.67870E+04 -5.42707E+03
 -1.87325E+04 -1.68404E+04 -6.97498E+03 -1.85631E+04  4.24809E+03 -1.74937E+04  1.42471E+04 -1.65053E+04
  2.40954E+04 -1.24671E+04  3.06314E+04  1.79160E+03  2.28682E+04  1.85691E+04  4.16707E+03  3.46593E+04
 -1.70471E+04  2.92999E+04 -2.71364E+04  1.02213E+04 -2.04851E+04 -1.04139E+04 -4.08579E+03 -1.37835E+04
  2.03084E+03 -3.40124E+03 -3.82064E+03  6.09035E+03 -1.45406E+04  5.16766E+03 -1.48948E+04 -6.06134E+03
 -9.61887E+03 -1.75309E+04  4.98337E+03 -2.16025E+04  1.41607E+04 -1.55762E+04  1.66051E+04 -1.72897E+03
  1.04672E+04  1.17378E+04 -9.89957E+02  1.74678E+04 -1.16919E+04  9.95870E+03 -1.74471E+04 -3.99560E+03
 -1.33278E+04 -1.58445E+04 -1.75381E+03 -2.11625E+04  9.55598E+03 -1.74586E+04  1.79048E+04 -8.28284E+03
  1.63907E+04  5.54580E+02  1.18441E+04  3.94313E+03  6.11045E+03  7.37693E+02  8.61673E+03 -1.64951E+03
  1.58224E+04  2.88176E+03  1.71968E+04  1.41876E+04  1.11735E+04  2.77742E+04 -2.95571E+03  3.09614E+04
 -1.78903E+04  2.44880E+04 -2.84827E+04  1.18254E+04 -2.98157E+04 -1.92203E+03 -2.48929E+04 -1.72574E+04
 -1.11060E+04 -2.44832E+04  8.29940E+03 -2.24775E+04  1.95824E+04 -1.15619E+04  1.78195E+04  4.52553E+03
  6.81677E+03  1.31358E+04 -7.95732E+03  1.14880E+04 -1.51701E+04  2.41954E+03 -1.14546E+04 -9.13655E+03
 -1.59185E+02 -1.41851E+04  6.88228E+03 -1.04448E+04  9.13305E+03 -1.35780E+03  1.86209E+03  5.64778E+03
 -6.48864E+03  1.93736E+03 -4.87232E+03 -5.69784E+03 -1.97872E+02 -1.22797E+04  8.96623E+03 -1.23232E+04
  1.47728E+04 -6.31538E+03  1.55932E+04  2.85315E+03  1.33891E+04  1.17178E+04  6.17297E+03  1.77577E+04
 -2.93667E+03  1.96109E+04 -1.22278E+04  1.22361E+04 -1.38465E+04  3.15755E+03 -1.04684E+04 -2.83834E+03
 -4.93736E+03 -4.40115E+03 -8.84900E+02  1.14702E+03 -2.06876E+03  2.35330E+03 -4.45973E+03  4.01897E+03
 -9.20946E+03 -6.52823E+02 -1.02289E+04 -8.22827E+03 -4.15034E+03 -1.33593E+04  4.10567E+03 -1.04720E+04
  8.73334E+03 -4.43179E+03  6.36797E+03  2.80765E+03  1.86502E+02  3.91802E+03 -4.54478E+03 -1.52905E+02
 -4.59833E+03 -6.29067E+03 -9.50031E+02 -9.06564E+03  5.41856E+03 -9.92213E+03  1.23773E+04 -5.37555E+03
  1.44693E+04  1.01630E+03  1.05794E+04  8.08026E+03  1.98084E+03  1.15986E+04 -6.03262E+03  9.96999E+03
 -8.39136E+03  3.10525E+03 -4.03624E+03 -1.81096E+03  1.24970E+03 -2.42807E+03  5.80223E+03 -1.01873E+03
  4.85472E+03  4.39453E+03  1.21144E+03  8.00081E+03 -5.53697E+03  7.67930E+03 -9.45794E+03  2.00041E+03
 -6.39515E+03 -4.84377E+03  3.69679E+02 -8.30710E+03  4.79880E+03 -3.94859E+03  5.20002E+03  1.55781E+03
  9.23428E+02  4.96522E+03 -5.13478E+03  6.30736E+03 -6.73971E+03  3.11476E+03 -6.91781E+03 -1.96303E+03
 -4.17422E+03 -8.22917E+03  1.98204E+03 -9.50497E+03  8.39290E+03 -5.93263E+03  8.97431E+03  1.44931E+03
  5.71602E+03  7.15794E+03 -2.06697E+02  9.47126E+03 -6.58064E+03  5.49728E+03 -7.15231E+03 -7.02208E+02
 -6.95962E+03 -6.52387E+03 -1.29621E+03 -6.96566E+03  3.33482E+03 -5.86177E+03  4.03610E+03 -3.13813E+03
  3.23173E+03  4.76551E+02 -1.93126E+02  1.66759E+03  3.84616E+02 -1.11435E+03  8.37275E+02 -3.43914E+03
  5.89461E+03 -1.55285E+03  7.69708E+03  1.21599E+03  7.91005E+03  5.26004E+03  6.48589E+03  1.02209E+04
 -1.89575E+03  1.19516E+04 -1.05716E+04  8.82268E+03 -1.33217E+04  1.82504E+03 -1.09629E+04 -4.06824E+03
 -5.61331E+03 -9.12606E+03 -1.47417E+02 -7.44796E+03  2.56334E+03 -3.17592E+03  2.51984E+03 -2.91349E+03
  1.94227E+03 -1.80199E+03  2.40013E+03 -2.61427E+03  4.38428E+03 -2.13499E+03  4.82520E+03 -1.73905E+02
  5.99400E+03  1.75377E+03  2.14774E+03  4.87534E+03 -1.58217E+03  4.57675E+03 -5.93669E+03  3.78437E+03
 -7.45269E+03 -1.11602E+03 -3.54948E+03 -4.69183E+03 -1.66075E+02 -7.43307E+03  4.42135E+03 -7.46913E+03
  7.81135E+03 -4.26886E+03  9.26920E+03  4.51752E+02  6.51289E+03  6.54101E+03  1.50666E+03  8.63409E+03
 -3.17208E+03  7.49762E+03 -5.43398E+03  2.57775E+03 -3.29361E+03 -7.53256E+02 -9.73413E+02 -1.28598E+03
 -6.31344E+02  5.09499E+02 -1.29878E+03  2.11899E+03 -3.44300E+03  1.33055E+03 -5.47222E+03 -5.94821E+02
 -2.82880E+03 -5.61268E+03  7.92550E+02 -7.05404E+03  4.12685E+03 -6.17491E+03  5.76042E+03 -1.90203E+03
  6.37329E+03  3.31284E+03  2.82737E+03  5.59801E+03 -1.16922E+03  6.87852E+03 -4.44897E+03  4.30140E+03
 -5.93641E+03  4.32103E+02 -4.91017E+03 -3.98944E+03 -3.91712E+02 -5.07308E+03  2.82167E+03 -3.88057E+03
  4.02887E+03 -1.55286E+03  2.90180E+03  1.10817E+03  7.46104E+02  2.10869E+03  7.86709E+02  7.12073E+02
  1.80342E+03  1.16029E+03  1.85503E+03  1.38274E+03  1.64346E+03  2.67212E+03  2.05298E+03  2.90928E+03
 -1.78187E+03  4.79509E+03 -4.23442E+03  5.99405E+03 -5.86878E+03  1.58061E+03 -6.66917E+03 -1.73812E+03
 -2.99797E+03 -5.82871E+03  8.83345E+02 -7.33394E+03  3.37327E+03 -4.32809E+03  5.18000E+03 -1.38748E+03
  4.04666E+03  2.83940E+03  1.13539E+03  3.30052E+03 -1.30511E+03  2.04719E+03 -2.21550E+03 -2.63934E+02
 -1.03226E+03 -2.70101E+03  1.76025E+03 -2.69856E+03  2.42007E+03 -1.64932E+03  2.16652E+03  7.25878E+02
  1.20382E+03  7.37567E+02  8.69679E+02  4.52320E+02 -8.03751E+02  1.29085E+03  1.54726E+03 -4.25331E+02
  7.06183E+02 -2.85104E+02  2.78863E+03  1.21581E+03  9.56503E+02  3.52413E+03 -5.58208E+02  4.25409E+03
 -2.76850E+03  2.37938E+03 -3.80247E+03  1.59138E+02 -3.56079E+03 -1.55252E+03 -9.43922E+02 -1.81345E+03
  5.64338E+02 -2.05361E+03  1.38412E+03 -1.17510E+03  1.37497E+03  1.56727E+03 -9.52187E+02  1.93888E+03
 -2.39661E+03  1.27252E+03 -2.50259E+03 -1.65527E+03 -1.38829E+03 -3.51011E+03  4.07780E+02 -2.84889E+03
  1.30741E+03 -1.24809E+03  1.99204E+03 -2.82023E+02  2.28772E+03  4.11667E+02  4.61856E+02  1.80126E+03
 -8.28594E+02  4.75389E+02 -1.54659E+03 -7.07352E+02  7.49041E+02 -2.13486E+03  2.78075E+03 -1.63107E+03
  2.76620E+03  8.91200E+00  3.93517E+03  1.95362E+03  1.68095E+03  3.36266E+03 -1.03504E+03  3.17082E+03
 -2.96237E+03  8.03190E+02 -2.81004E+03 -1.54958E+02 -1.88516E+03 -2.26207E+03  4.60304E+02 -1.81405E+03
  2.53316E+03 -1.27558E+03  1.83086E+03  1.03527E+03  5.45595E+02  2.16119E+03  1.31033E+02  1.75960E+03
 -8.15170E+02  1.69068E+03 -8.24453E+02  1.51831E+02 -2.49717E+02  4.01674E+02 -8.73238E+02  1.07203E+03
 -7.60692E+02  1.61905E+03 -3.15467E+03  1.13511E+03 -3.23660E+03  2.87937E+02 -4.11247E+03 -2.35291E+03
 -1.94692E+03 -4.24988E+03  9.50359E+02 -5.34077E+03  2.65841E+03 -4.20268E+03  4.87409E+03 -1.78380E+03
  4.19415E+03  4.93940E+02  2.48341E+03  3.16377E+03  9.05371E+01  3.35221E+03 -1.10947E+03  2.32453E+03
 -2.13951E+03  9.90525E+02 -1.07922E+03 -4.21858E+02 -5.77099E+02  2.21997E+01 -4.91277E+02  1.80969E+02
 -1.02258E+03  8.97404E+01 -8.80095E+02  1.88438E+02  9.10598E+01 -9.40734E+02 -2.01242E+02 -1.53429E+03
  1.69245E+03 -1.36964E+03  1.59747E+03  1.65919E+02  2.12984E+03  1.90146E+03 -1.97523E+02  3.08998E+03
 -1.82438E+03  4.03924E+03 -3.53518E+03  2.29300E+03 -3.84754E+03 -2.95677E+02 -2.71554E+03 -2.43376E+03
 -1.16623E+03 -3.06565E+03  9.28654E+02 -2.76412E+03  1.77832E+03 -1.37414E+03  1.66379E+03  2.64174E+02
  1.24118E+03  9.82169E+02 -1.00946E+02  8.76877E+02 -7.61913E+02  4.89026E+01  3.74582E+02 -6.94244E+02
  1.10359E+03  8.90114E+00  9.33995E+02  4.55377E+02  5.60445E+02  1.34784E+03  3.53924E+02  1.19965E+03
 -1.20705E+03  1.46228E+03 -1.83569E+03  2.31505E+00 -1.86279E+03 -1.38394E+03 -2.09571E+02 -2.42851E+03
  1.38657E+03 -1.97581E+03  1.71278E+03 -1.22867E+02  1.96937E+03 -2.63671E+02  1.24310E+03  1.49561E+03
  2.71617E+02  1.79129E+03 -6.19156E+02  1.26151E+03 -1.15009E+03  1.08175E+03 -1.06470E+03  7.71612E+01
 -4.50608E+02 -2.19709E+02 -8.96280E+02  1.23256E+02 -1.49973E+03  4.73518E+02 -1.46050E+03 -5.55031E+02
 -1.63702E+03 -8.05444E+01 -3.97357E+02 -1.91451E+03  1.23192E+03 -2.38788E+03  1.57435E+03 -8.76214E+02
  1.67835E+03  2.70107E+02  3.48018E+02  1.04930E+03 -3.73217E+02  1.93566E+03 -1.44130E+03  1.05327E+03
