 $NMID ID='MM_0lb_SNR800_16hz_g60_79.RAW', FMTDAT='(8E13.5)'
 TRAMP=1., VOLUME=1. $END
  3.09664E+05  3.28261E+02  3.37671E+05  2.50843E+05  8.48576E+04  3.37902E+05 -1.32622E+05  2.51063E+05
 -1.90585E+05  8.32894E+04 -1.11829E+05 -3.25876E+04  8.31510E+02 -5.05686E+04  5.38274E+04 -1.96996E+02
  3.53293E+04  5.29962E+04 -1.67617E+04  7.57179E+04 -6.07996E+04  6.36930E+04 -8.42432E+04  3.19897E+04
 -8.08779E+04 -1.15109E+04 -5.72613E+04 -5.15076E+04 -1.49862E+04 -6.95757E+04  2.71954E+04 -4.59117E+04
  4.03594E+04  3.90384E+03  1.63589E+04  4.77076E+04 -3.44835E+04  4.72083E+04 -6.69329E+04 -4.79385E+02
 -5.35627E+04 -5.68154E+04 -6.97888E+03 -7.72593E+04  3.35081E+04 -5.56227E+04  4.80061E+04 -1.74007E+04
  4.35782E+04  1.13473E+04  3.18147E+04  2.55435E+04  1.59005E+04  2.94902E+04 -5.25083E+03  2.73807E+04
 -2.21411E+04  1.24697E+04 -1.83034E+04 -4.83817E+03  5.72042E+03 -7.39411E+03  2.23980E+04  1.20989E+04
  7.37886E+03  3.53822E+04 -3.23701E+04  3.55887E+04 -6.33340E+04  2.57230E+03 -5.69476E+04 -4.28425E+04
 -1.24667E+04 -6.33203E+04  3.98996E+04 -4.55389E+04  5.81478E+04 -1.94567E+03  3.46069E+04  3.27404E+04
 -5.88309E+03  3.60612E+04 -3.00793E+04  1.57694E+04 -3.04970E+04 -4.75681E+03 -1.70561E+04 -1.13136E+04
 -8.51034E+03 -1.29359E+04 -5.26625E+02 -1.79908E+04  7.81118E+03 -2.31619E+04  1.55742E+04 -1.31546E+04
  1.13437E+04  5.34260E+03 -8.31283E+03  1.29424E+04 -2.12427E+04 -4.40894E+03 -8.12853E+03 -3.36607E+04
  2.27883E+04 -4.30274E+04  4.83875E+04 -1.97817E+04  4.48867E+04  1.94136E+04  1.54918E+04  4.41500E+04
 -1.60350E+04  3.32697E+04 -2.55270E+04  1.67840E+03 -9.72372E+03 -2.77779E+04  2.10519E+04 -3.39972E+04
  4.10873E+04 -9.01910E+03  3.53982E+04  2.37025E+04  1.81816E+04  4.67432E+04 -7.72403E+03  5.02464E+04
 -3.13349E+04  3.37136E+04 -4.22142E+04  9.36089E+03 -4.25073E+04 -1.68868E+04 -2.36362E+04 -3.80070E+04
  7.45436E+03 -3.77247E+04  3.15810E+04 -1.47169E+04  2.92212E+04  1.07697E+04  3.58032E+03  1.88617E+04
 -1.31831E+04  8.51487E+03 -1.03916E+04 -7.81026E+03  5.84604E+03 -1.07637E+04  1.79005E+04  6.09681E+03
  1.36412E+04  2.18854E+04 -6.08207E+03  2.48636E+04 -2.27412E+04  1.13266E+04 -2.77508E+04 -4.77820E+03
 -2.04182E+04 -1.71983E+04 -8.42834E+03 -2.04380E+04  3.65880E+03 -1.92839E+04  1.55036E+04 -1.81496E+04
  2.57932E+04 -1.26184E+04  3.23269E+04  2.52453E+03  2.37301E+04  1.96587E+04  4.07114E+03  3.60292E+04
 -1.80966E+04  3.00254E+04 -2.77339E+04  1.05147E+04 -2.06535E+04 -1.03742E+04 -4.41998E+03 -1.35684E+04
  1.77757E+03 -2.84987E+03 -4.84151E+03  6.52911E+03 -1.59419E+04  5.50296E+03 -1.59929E+04 -6.63181E+03
 -1.00340E+04 -1.86630E+04  5.35990E+03 -2.25994E+04  1.50920E+04 -1.61833E+04  1.76734E+04 -1.55107E+03
  1.10250E+04  1.29538E+04 -9.59199E+02  1.88044E+04 -1.29991E+04  1.05377E+04 -1.84578E+04 -4.09192E+03
 -1.36362E+04 -1.70266E+04 -1.57943E+03 -2.26268E+04  1.01390E+04 -1.85883E+04  1.89834E+04 -8.89299E+03
  1.73742E+04  3.40710E+02  1.23556E+04  4.49372E+03  6.48345E+03  7.44309E+02  9.30386E+03 -1.93070E+03
  1.71091E+04  3.09128E+03  1.87780E+04  1.48652E+04  1.25403E+04  2.98024E+04 -2.68229E+03  3.35127E+04
 -1.93950E+04  2.64115E+04 -3.10418E+04  1.32092E+04 -3.21258E+04 -2.30779E+03 -2.66872E+04 -1.88102E+04
 -1.17973E+04 -2.67286E+04  8.98431E+03 -2.37598E+04  2.07843E+04 -1.23624E+04  1.83219E+04  5.39531E+03
  7.09979E+03  1.38218E+04 -8.57649E+03  1.22029E+04 -1.56851E+04  2.85183E+03 -1.19963E+04 -9.73957E+03
 -2.42243E+02 -1.49308E+04  7.63705E+03 -1.11004E+04  9.90215E+03 -1.07505E+03  2.03780E+03  6.15092E+03
 -6.66766E+03  2.05656E+03 -5.76921E+03 -5.63157E+03 -5.04291E+02 -1.29259E+04  9.37698E+03 -1.34153E+04
  1.61942E+04 -6.75873E+03  1.68786E+04  2.93397E+03  1.48035E+04  1.25214E+04  7.17435E+03  1.90719E+04
 -3.08213E+03  2.09694E+04 -1.32950E+04  1.30982E+04 -1.51126E+04  3.03654E+03 -1.07594E+04 -3.38818E+03
 -5.12439E+03 -4.49626E+03 -6.64934E+02  1.08448E+03 -2.40924E+03  2.50317E+03 -4.69816E+03  4.08466E+03
 -1.02595E+04 -5.58914E+02 -1.05982E+04 -8.73735E+03 -4.68783E+03 -1.41643E+04  4.42783E+03 -1.05479E+04
  8.94220E+03 -4.75844E+03  6.42713E+03  2.66563E+03  3.93828E+02  4.30650E+03 -5.00130E+03 -1.69280E+02
 -4.42420E+03 -6.79776E+03 -4.83374E+02 -9.86646E+03  5.24398E+03 -1.07487E+04  1.31655E+04 -5.59679E+03
  1.53558E+04  1.21381E+03  1.13515E+04  8.81345E+03  2.34555E+03  1.18813E+04 -6.63382E+03  1.05680E+04
 -8.42021E+03  3.35553E+03 -4.68137E+03 -2.00686E+03  1.26743E+03 -2.49011E+03  5.94102E+03 -9.93189E+02
  4.96469E+03  4.36540E+03  8.97570E+02  8.42259E+03 -5.85742E+03  7.76911E+03 -1.00847E+04  1.94730E+03
 -6.72887E+03 -5.01305E+03  3.81734E+02 -8.66164E+03  5.21702E+03 -4.50113E+03  5.04813E+03  1.64647E+03
  1.16121E+03  5.23843E+03 -5.29067E+03  6.79335E+03 -7.48702E+03  3.25519E+03 -7.40836E+03 -2.43717E+03
 -4.24670E+03 -8.58486E+03  2.20800E+03 -1.04216E+04  8.57480E+03 -6.44925E+03  9.21725E+03  1.61633E+03
  6.11152E+03  7.59608E+03 -4.93859E+02  9.41992E+03 -7.15015E+03  5.63351E+03 -7.29452E+03 -5.74309E+02
 -7.05603E+03 -6.88424E+03 -1.38485E+03 -6.67216E+03  3.41592E+03 -6.08068E+03  4.08818E+03 -3.15202E+03
  3.72928E+03  7.72433E+02 -4.06377E+02  1.44696E+03  2.46172E+02 -1.12612E+03  1.21272E+03 -3.41949E+03
  5.67240E+03 -1.94289E+03  7.88399E+03  6.67562E+02  8.00421E+03  5.23714E+03  6.57456E+03  1.03795E+04
 -2.24289E+03  1.24789E+04 -1.09062E+04  9.37589E+03 -1.36459E+04  1.45882E+03 -1.07423E+04 -4.24005E+03
 -5.89074E+03 -9.19084E+03 -5.04042E+02 -7.50815E+03  3.03400E+03 -3.51178E+03  2.53457E+03 -2.91351E+03
  1.78112E+03 -1.64607E+03  2.72068E+03 -2.75459E+03  4.14911E+03 -1.84091E+03  4.67488E+03 -2.22504E+02
  5.89399E+03  1.42441E+03  2.39127E+03  4.85954E+03 -1.76916E+03  4.84003E+03 -6.10937E+03  4.15066E+03
 -7.04230E+03 -9.81320E+02 -3.68786E+03 -4.99780E+03  3.21567E+02 -7.60013E+03  4.44267E+03 -7.61631E+03
  7.44449E+03 -4.82328E+03  9.71378E+03  5.13040E+02  6.95507E+03  6.55468E+03  1.36426E+03  8.42950E+03
 -3.33823E+03  7.94423E+03 -5.00732E+03  2.68000E+03 -3.16538E+03 -1.44934E+03 -1.16894E+03 -1.33062E+03
 -9.49101E+02  4.36665E+02 -1.36589E+03  2.09730E+03 -3.25762E+03  1.45203E+03 -5.25890E+03 -8.49201E+02
 -2.85229E+03 -5.48099E+03  6.43670E+02 -6.80163E+03  4.08184E+03 -6.00454E+03  5.74343E+03 -1.75755E+03
  6.17924E+03  3.13229E+03  2.76607E+03  5.36904E+03 -1.09892E+03  6.59169E+03 -4.33128E+03  4.25337E+03
 -5.91361E+03  7.86311E+02 -4.81345E+03 -3.42583E+03 -4.14378E+02 -5.14697E+03  2.56014E+03 -3.67018E+03
  4.30693E+03 -1.54295E+03  2.85226E+03  4.34313E+02  7.72908E+02  2.29771E+03  1.18931E+03  9.74237E+02
  1.49109E+03  7.45597E+02  1.72329E+03  1.10904E+03  1.75345E+03  2.65520E+03  1.91523E+03  3.12796E+03
 -1.60438E+03  4.41373E+03 -4.23598E+03  5.80296E+03 -5.17345E+03  1.57425E+03 -6.28830E+03 -1.55494E+03
 -2.73372E+03 -5.90503E+03  1.06308E+03 -7.08452E+03  3.48068E+03 -3.84146E+03  4.64741E+03 -1.23582E+03
  3.70040E+03  2.46523E+03  7.51058E+02  3.41474E+03 -1.53739E+03  2.09333E+03 -1.92242E+03 -4.86733E+02
 -1.13354E+03 -2.42289E+03  1.76104E+03 -2.46271E+03  2.15248E+03 -1.52584E+03  2.37646E+03  8.18245E+02
  1.40767E+03  7.68105E+02  6.92330E+02  3.87342E+02 -6.67852E+02  8.73817E+02  1.46008E+03 -3.56711E+02
  4.31594E+02 -3.00818E+02  2.46105E+03  9.25155E+02  1.09017E+03  3.40659E+03 -2.98185E+02  4.02042E+03
 -2.73951E+03  1.85246E+03 -3.22582E+03  6.99823E+02 -3.29880E+03 -1.10610E+03 -9.24287E+02 -1.85330E+03
  7.91721E+02 -1.95509E+03  1.35723E+03 -1.03237E+03  1.25526E+03  1.81561E+03 -8.90965E+02  1.95070E+03
 -2.13560E+03  1.31940E+03 -2.13932E+03 -1.56171E+03 -1.20767E+03 -3.24264E+03  3.60237E+02 -2.95307E+03
  1.29437E+03 -8.98583E+02  1.63652E+03  1.49272E+02  1.96186E+03  4.63888E+02  3.10211E+02  1.61543E+03
 -5.69440E+02 -9.73733E+01 -1.39568E+03 -7.21225E+02  9.47669E+02 -1.59580E+03  2.55721E+03 -1.90127E+03
  2.49917E+03  2.88878E+02  3.62900E+03  1.46713E+03  1.45026E+03  3.00809E+03 -8.71965E+02  2.77228E+03
 -2.69464E+03  8.10091E+02 -2.62766E+03 -2.90208E+02 -1.26767E+03 -2.11728E+03  7.54634E+02 -1.31622E+03
  2.13922E+03 -9.98312E+02  1.65611E+03  1.14837E+03  2.78080E+02  1.79721E+03  1.58879E+02  1.28914E+03
 -6.88802E+02  1.25900E+03 -7.09150E+02  3.27300E+02  1.25731E+02  1.75058E+02 -7.56725E+02  8.15476E+02
 -7.59330E+02  1.41843E+03 -2.57113E+03  1.03135E+03 -2.81912E+03  2.93770E+02 -3.83851E+03 -1.72941E+03
 -1.59274E+03 -3.85253E+03  9.21026E+02 -4.58957E+03  2.21960E+03 -3.65212E+03  4.29065E+03 -1.44986E+03
  3.71443E+03  3.78035E+02  2.09702E+03  2.53505E+03 -3.17733E+02  2.49228E+03 -9.22080E+02  2.08571E+03
 -1.70975E+03  1.08505E+03 -1.02244E+03 -1.48005E+02 -7.41941E+02  2.81059E+02 -6.13890E+02  1.18309E+01
 -1.09794E+03 -2.14490E+02 -1.02502E+03 -1.88476E+01  7.33813E+01 -8.69358E+02 -3.46232E+02 -1.26157E+03
  1.79463E+03 -8.18073E+02  1.37244E+03  1.03494E+01  2.16146E+03  1.62110E+03 -4.93435E+01  2.47574E+03
 -1.58035E+03  3.58808E+03 -2.52520E+03  2.01445E+03 -3.26879E+03 -4.13852E+02 -2.30758E+03 -2.06455E+03
 -1.23041E+03 -2.36045E+03  4.69951E+02 -2.11514E+03  1.17972E+03 -1.47244E+03  1.51812E+03 -4.61348E+01
  1.18461E+03  6.54805E+02  2.26971E+02  5.64169E+02 -8.33748E+02 -1.87108E+02 -3.26475E+02 -4.03408E+02
  8.88721E+02  7.03754E+01  9.42688E+02  4.94187E+02  2.14237E+02  9.44886E+02  8.10810E+01  7.64491E+02
 -9.59806E+02  9.01418E+02 -1.16091E+03  4.73178E+00 -1.32805E+03 -8.74648E+02 -7.42094E+01 -1.71178E+03
  1.20803E+03 -1.45153E+03  1.37405E+03 -2.02219E+02  1.89831E+03 -1.35243E+02  7.44155E+02  1.47532E+03
  4.53390E+02  1.03935E+03 -6.44411E+02  9.76721E+02 -1.01607E+03  1.16759E+03 -7.77206E+02  6.31126E+00
 -2.18408E+02 -2.76757E+02 -6.48998E+02  3.15221E+02 -1.11726E+03  3.65070E+02 -1.29088E+03 -5.20298E+02
 -1.71249E+03 -2.49833E+02 -5.88940E+02 -1.36330E+03  9.44893E+02 -2.27492E+03  1.55084E+03 -8.63502E+02
  1.05032E+03  1.36037E+02  2.67479E+02  7.20460E+02 -7.67645E+01  1.40565E+03 -6.60930E+02  8.91717E+02
