 $NMID ID='MM_0lb_SNR800_12hz_g50_54.RAW', FMTDAT='(8E13.5)'
 TRAMP=1., VOLUME=1. $END
  3.09797E+05  2.77513E+02  3.37977E+05  2.50792E+05  8.45204E+04  3.38160E+05 -1.32588E+05  2.51331E+05
 -1.90559E+05  8.34091E+04 -1.12281E+05 -3.23707E+04  3.27548E+02 -5.08454E+04  5.37031E+04 -5.69885E+02
  3.51895E+04  5.27391E+04 -1.66801E+04  7.57028E+04 -6.07786E+04  6.40106E+04 -8.46232E+04  3.24304E+04
 -8.17286E+04 -1.17420E+04 -5.77228E+04 -5.18301E+04 -1.52745E+04 -7.00737E+04  2.78022E+04 -4.62739E+04
  4.03853E+04  4.04347E+03  1.63302E+04  4.78099E+04 -3.47051E+04  4.75231E+04 -6.73512E+04 -1.52651E+00
 -5.38098E+04 -5.71314E+04 -6.84568E+03 -7.77069E+04  3.44719E+04 -5.58738E+04  4.85928E+04 -1.77793E+04
  4.41601E+04  1.15555E+04  3.24894E+04  2.58729E+04  1.58231E+04  2.99051E+04 -5.28568E+03  2.78418E+04
 -2.21658E+04  1.20460E+04 -1.83334E+04 -5.38447E+03  6.38239E+03 -7.10447E+03  2.30651E+04  1.29071E+04
  7.13873E+03  3.63081E+04 -3.29676E+04  3.63408E+04 -6.42618E+04  2.34461E+03 -5.76939E+04 -4.36633E+04
 -1.28741E+04 -6.43253E+04  4.05027E+04 -4.61828E+04  5.94359E+04 -2.88313E+03  3.50728E+04  3.32471E+04
 -5.51887E+03  3.73933E+04 -3.05507E+04  1.70378E+04 -3.17516E+04 -4.09597E+03 -1.75005E+04 -1.12358E+04
 -8.90011E+03 -1.38054E+04 -7.12843E+02 -1.90451E+04  7.75759E+03 -2.30481E+04  1.56001E+04 -1.30632E+04
  1.11763E+04  5.73648E+03 -9.42786E+03  1.29862E+04 -2.19481E+04 -5.71756E+03 -8.37124E+03 -3.52881E+04
  2.38989E+04 -4.48870E+04  4.96189E+04 -2.00706E+04  4.65575E+04  1.99683E+04  1.60742E+04  4.54382E+04
 -1.65354E+04  3.42635E+04 -2.61992E+04  2.22258E+03 -1.03960E+04 -2.88752E+04  2.11514E+04 -3.47885E+04
  4.25039E+04 -9.87903E+03  3.78954E+04  2.42176E+04  1.94760E+04  4.86183E+04 -8.09042E+03  5.27614E+04
 -3.30613E+04  3.54843E+04 -4.42564E+04  1.02710E+04 -4.47061E+04 -1.74922E+04 -2.48921E+04 -3.96194E+04
  7.58062E+03 -3.93589E+04  3.24926E+04 -1.58287E+04  3.03785E+04  1.12064E+04  4.53657E+03  1.97963E+04
 -1.37138E+04  8.76125E+03 -1.05256E+04 -7.84129E+03  5.75315E+03 -1.11411E+04  1.81935E+04  5.73141E+03
  1.40850E+04  2.20767E+04 -5.39836E+03  2.56084E+04 -2.30146E+04  1.26748E+04 -2.95391E+04 -4.12378E+03
 -2.26413E+04 -1.74286E+04 -9.45669E+03 -2.21943E+04  4.39539E+03 -2.21440E+04  1.71761E+04 -2.03564E+04
  2.87236E+04 -1.36402E+04  3.45603E+04  3.66398E+03  2.53290E+04  2.20028E+04  4.40477E+03  3.84000E+04
 -1.86627E+04  3.14645E+04 -2.89737E+04  1.04754E+04 -2.17632E+04 -1.00754E+04 -4.41921E+03 -1.34826E+04
  1.33511E+03 -2.05157E+03 -6.02227E+03  7.57508E+03 -1.75731E+04  5.17698E+03 -1.79828E+04 -7.98565E+03
 -1.09978E+04 -2.04813E+04  5.51751E+03 -2.50158E+04  1.64919E+04 -1.78934E+04  1.98765E+04 -1.74479E+03
  1.25960E+04  1.45701E+04 -1.16584E+03  2.05966E+04 -1.46497E+04  1.19661E+04 -2.09523E+04 -4.58973E+03
 -1.52602E+04 -1.89205E+04 -2.02170E+03 -2.49474E+04  1.10629E+04 -2.04460E+04  2.04148E+04 -1.05315E+04
  1.96270E+04 -7.15123E+01  1.39563E+04  4.82312E+03  7.59017E+03  1.12787E+03  1.05445E+04 -2.08499E+03
  1.92568E+04  3.01268E+03  2.16284E+04  1.63025E+04  1.47374E+04  3.30320E+04 -2.65131E+03  3.77694E+04
 -2.21513E+04  3.08653E+04 -3.61167E+04  1.58220E+04 -3.79443E+04 -2.85706E+03 -3.14977E+04 -2.18039E+04
 -1.29600E+04 -3.12658E+04  1.10416E+04 -2.78890E+04  2.41964E+04 -1.39550E+04  2.09883E+04  6.64899E+03
  7.48860E+03  1.59936E+04 -1.00074E+04  1.38968E+04 -1.77247E+04  2.24273E+03 -1.33513E+04 -1.13441E+04
 -1.17592E+02 -1.66399E+04  8.93724E+03 -1.25979E+04  1.11452E+04 -1.38551E+03  2.46567E+03  7.53780E+03
 -7.48689E+03  3.08142E+03 -7.16219E+03 -5.84729E+03 -1.02642E+03 -1.54155E+04  1.02596E+04 -1.64044E+04
  1.93420E+04 -8.82880E+03  2.12103E+04  3.26010E+03  1.83056E+04  1.51848E+04  8.32328E+03  2.35104E+04
 -3.76147E+03  2.55816E+04 -1.66460E+04  1.54121E+04 -1.89028E+04  3.66157E+03 -1.27070E+04 -4.46072E+03
 -5.36005E+03 -6.37347E+03 -5.15786E+02  7.22028E+02 -2.54680E+03  2.98023E+03 -6.07509E+03  5.17780E+03
 -1.20368E+04 -8.58096E+02 -1.23157E+04 -9.83289E+03 -5.17780E+03 -1.65493E+04  5.61786E+03 -1.29005E+04
  1.06186E+04 -5.29765E+03  7.77612E+03  3.12137E+03  1.48133E+02  4.98085E+03 -6.63897E+03 -2.05299E+02
 -5.88455E+03 -8.09767E+03 -5.60500E+02 -1.26088E+04  7.15467E+03 -1.30203E+04  1.64073E+04 -7.33534E+03
  1.92835E+04  1.44446E+03  1.40242E+04  1.11970E+04  2.65484E+03  1.49589E+04 -8.01209E+03  1.25920E+04
 -1.03996E+04  3.59643E+03 -5.19918E+03 -2.53039E+03  1.98709E+03 -3.41546E+03  7.07912E+03 -1.24557E+03
  6.27422E+03  5.83962E+03  1.28055E+03  1.05036E+04 -7.45908E+03  9.91004E+03 -1.22712E+04  2.67578E+03
 -8.81161E+03 -6.29400E+03  2.69788E+02 -1.07682E+04  6.60509E+03 -5.54839E+03  7.00627E+03  2.55136E+03
  1.50076E+03  7.50438E+03 -6.56913E+03  9.03358E+03 -1.00320E+04  3.88562E+03 -9.94296E+03 -3.69558E+03
 -6.06051E+03 -1.22135E+04  2.69389E+03 -1.38484E+04  1.16735E+04 -8.26390E+03  1.26720E+04  2.35614E+03
  8.26585E+03  1.00650E+04 -8.83703E+02  1.23323E+04 -8.98751E+03  7.30849E+03 -9.80823E+03 -8.80885E+02
 -8.76039E+03 -8.58372E+03 -1.50173E+03 -9.20233E+03  4.52229E+03 -7.62108E+03  5.80815E+03 -3.46318E+03
  4.34742E+03  1.72425E+03 -1.02419E+03  1.58407E+03 -2.95754E+01 -2.17257E+03  1.71891E+03 -4.87181E+03
  7.98895E+03 -3.20767E+03  1.14331E+04  1.19816E+03  1.16584E+04  7.79082E+03  8.13726E+03  1.55449E+04
 -3.57319E+03  1.76475E+04 -1.53365E+04  1.31797E+04 -1.89250E+04  2.39830E+03 -1.52851E+04 -6.50755E+03
 -7.97080E+03 -1.29742E+04 -4.72953E+02 -1.05389E+04  4.29248E+03 -5.39265E+03  3.70324E+03 -4.12461E+03
  2.85984E+03 -2.62943E+03  3.24906E+03 -3.28307E+03  5.12720E+03 -2.44880E+03  6.48498E+03 -1.79315E+02
  8.31138E+03  1.98875E+03  3.77567E+03  7.01851E+03 -1.64811E+03  7.63249E+03 -8.35632E+03  6.21751E+03
 -1.05467E+04 -1.09442E+03 -6.29908E+03 -7.57096E+03 -2.42477E+02 -1.15115E+04  6.18752E+03 -1.15891E+04
  1.17878E+04 -6.60124E+03  1.44537E+04  2.02688E+03  9.55152E+03  9.63462E+03  1.68845E+03  1.30302E+04
 -5.64159E+03  1.09931E+04 -7.28084E+03  3.50882E+03 -4.98697E+03 -1.51256E+03 -2.39160E+03 -1.52871E+03
 -8.17314E+02  3.61952E+02 -1.53804E+03  2.64379E+03 -4.48995E+03  1.78134E+03 -7.81720E+03 -1.02767E+03
 -4.56113E+03 -7.40365E+03  8.00408E+02 -1.04982E+04  6.07489E+03 -9.66984E+03  9.92431E+03 -3.02809E+03
  9.89782E+03  5.16768E+03  4.45360E+03  9.22906E+03 -1.59584E+03  1.05134E+04 -7.39964E+03  6.25939E+03
 -9.71820E+03  3.64513E+02 -7.66216E+03 -6.09995E+03 -7.09869E+02 -8.80606E+03  4.34416E+03 -6.10916E+03
  6.34653E+03 -2.28340E+03  4.46819E+03  1.97603E+03  1.73535E+03  3.01196E+03  1.31103E+03  1.52021E+03
  2.16300E+03  9.93131E+02  2.41041E+03  1.67223E+03  3.04264E+03  3.46413E+03  2.58539E+03  5.46728E+03
 -2.24695E+03  7.48260E+03 -6.99619E+03  8.06995E+03 -9.89083E+03  2.28527E+03 -1.05629E+04 -3.45226E+03
 -5.10978E+03 -1.01152E+04  1.43359E+03 -1.14790E+04  5.82083E+03 -7.10387E+03  8.22756E+03 -2.22584E+03
  6.36044E+03  3.72036E+03  1.42008E+03  5.67192E+03 -2.80349E+03  3.78910E+03 -4.10857E+03 -2.54146E+02
 -1.99440E+03 -4.10055E+03  2.58836E+03 -4.42010E+03  4.05890E+03 -2.36087E+03  3.80216E+03  8.53862E+02
  2.49845E+03  1.98220E+03  1.21941E+03  1.33337E+03 -7.60108E+02  1.13327E+03  1.37144E+03 -3.31381E+02
  1.33670E+03 -6.08023E+02  4.30840E+03  2.00357E+03  1.82170E+03  5.49223E+03 -1.00794E+03  7.04192E+03
 -4.42310E+03  4.49761E+03 -6.20469E+03  1.14547E+03 -5.89781E+03 -2.53144E+03 -2.11242E+03 -3.97402E+03
  6.56254E+02 -3.58785E+03  2.59261E+03 -1.85179E+03  1.81545E+03  1.90006E+03 -1.24264E+03  3.50835E+03
 -4.07949E+03  2.05949E+03 -4.28274E+03 -2.44564E+03 -2.58060E+03 -5.10600E+03  6.57079E+02 -4.96909E+03
  2.82686E+03 -2.90477E+03  3.30291E+03 -2.76532E+02  3.27034E+03  1.10288E+03  6.07447E+02  2.95308E+03
 -1.60302E+03  9.37258E+02 -2.43046E+03 -1.67943E+03  1.16564E+03 -3.86732E+03  4.77708E+03 -3.11975E+03
  5.63086E+03  4.00430E+02  6.22939E+03  3.88188E+03  2.03198E+03  6.19391E+03 -1.98524E+03  6.06551E+03
 -5.36159E+03  2.38506E+03 -5.28971E+03 -6.24670E+02 -2.89835E+03 -4.17981E+03  9.06934E+02 -3.35153E+03
  4.19111E+03 -2.00426E+03  2.96591E+03  1.53373E+03  8.49589E+02  3.86030E+03 -4.40917E+02  2.97071E+03
 -1.51013E+03  2.10368E+03 -1.17951E+03  7.04427E+02 -6.69157E+02  6.21361E+02 -1.00322E+03  1.32091E+03
 -1.46747E+03  2.62886E+03 -4.41883E+03  2.27311E+03 -6.08512E+03  1.46966E+02 -6.93269E+03 -3.94108E+03
 -3.55389E+03 -8.06957E+03  2.00969E+03 -9.48025E+03  5.49685E+03 -7.24321E+03  8.76573E+03 -2.91493E+03
  8.00593E+03  1.29677E+03  4.86343E+03  5.36149E+03  2.74179E+02  5.81118E+03 -2.17846E+03  4.64128E+03
 -3.67573E+03  1.91941E+03 -2.04753E+03 -4.47342E+02 -6.37652E+02 -2.30194E+02 -5.17422E+02  1.81378E+02
 -1.48999E+03  7.79015E+01 -1.41139E+03 -3.63548E+02 -2.84758E+02 -1.88990E+03 -2.13974E+02 -2.64732E+03
  2.97690E+03 -1.96481E+03  3.33296E+03  1.27370E+01  4.42582E+03  3.25891E+03  7.78775E+02  6.01872E+03
 -2.65878E+03  6.76285E+03 -6.22512E+03  3.91559E+03 -7.47558E+03 -6.89065E+02 -5.02595E+03 -4.42058E+03
 -2.23973E+03 -6.13515E+03  1.39030E+03 -5.45696E+03  3.21154E+03 -2.71371E+03  3.69522E+03  7.34483E+01
  2.09951E+03  2.08708E+03 -1.32604E+02  1.84940E+03 -1.20564E+03 -9.19623E+01 -2.09570E+02 -1.05732E+03
  1.96864E+03 -8.53652E+02  2.21058E+03  8.58669E+02  1.18556E+03  2.47330E+03  5.81028E+01  2.84476E+03
 -2.52073E+03  2.50523E+03 -3.48191E+03  1.86372E+02 -3.22284E+03 -2.86081E+03 -7.44055E+02 -4.71445E+03
  2.87598E+03 -3.54815E+03  4.41568E+03 -7.36357E+02  4.11313E+03  5.62718E+02  2.53051E+03  3.67088E+03
  6.44244E+02  3.43022E+03 -1.27420E+03  3.42313E+03 -2.46874E+03  1.75686E+03 -1.99087E+03  4.07478E+02
 -9.01392E+02 -1.57822E+02 -1.06463E+03  1.99021E+02 -2.01480E+03  1.08938E+03 -2.93360E+03 -7.43516E+02
 -3.10872E+03 -1.77056E+03 -9.30416E+02 -3.69391E+03  1.97738E+03 -4.34608E+03  3.54620E+03 -2.06214E+03
  3.58564E+03  4.91732E+02  1.42787E+03  2.49561E+03 -2.25341E+02  3.67293E+03 -2.90731E+03  2.90771E+03
