 $NMID ID='MM_0lb_SNR800_16hz_g45_86.RAW', FMTDAT='(8E13.5)'
 TRAMP=1., VOLUME=1. $END
  3.09967E+05  5.22607E+02  3.37473E+05  2.50244E+05  8.46565E+04  3.37579E+05 -1.32628E+05  2.50467E+05
 -1.89720E+05  8.28493E+04 -1.11001E+05 -3.26562E+04  9.88645E+02 -5.05431E+04  5.39640E+04 -1.29819E+00
  3.51168E+04  5.28661E+04 -1.70017E+04  7.52242E+04 -6.03955E+04  6.29867E+04 -8.34287E+04  3.16688E+04
 -8.01809E+04 -1.12987E+04 -5.67390E+04 -5.03366E+04 -1.47295E+04 -6.90563E+04  2.71290E+04 -4.53047E+04
  3.95793E+04  4.05256E+03  1.57998E+04  4.73386E+04 -3.41887E+04  4.66902E+04 -6.59576E+04 -2.40698E+02
 -5.27114E+04 -5.62151E+04 -6.59353E+03 -7.59364E+04  3.34466E+04 -5.40158E+04  4.69773E+04 -1.66183E+04
  4.24900E+04  1.10709E+04  3.13816E+04  2.49646E+04  1.57471E+04  2.87967E+04 -5.00780E+03  2.69486E+04
 -2.17843E+04  1.23263E+04 -1.90432E+04 -4.61001E+03  5.13132E+03 -7.31573E+03  2.17407E+04  1.15903E+04
  7.40242E+03  3.42397E+04 -3.13106E+04  3.47380E+04 -6.22092E+04  2.12536E+03 -5.60510E+04 -4.19870E+04
 -1.23760E+04 -6.17014E+04  3.85651E+04 -4.42499E+04  5.66308E+04 -2.08350E+03  3.28500E+04  3.12580E+04
 -6.01386E+03  3.46151E+04 -2.90195E+04  1.46993E+04 -2.87300E+04 -5.14216E+03 -1.52932E+04 -1.06299E+04
 -7.57223E+03 -1.23719E+04 -9.31893E+02 -1.74190E+04  7.19781E+03 -2.24335E+04  1.51866E+04 -1.35631E+04
  1.19936E+04  4.52033E+03 -7.11047E+03  1.28069E+04 -2.03147E+04 -3.40969E+03 -8.36804E+03 -3.23238E+04
  2.18169E+04 -4.17292E+04  4.62072E+04 -1.90597E+04  4.36138E+04  1.86541E+04  1.48563E+04  4.27977E+04
 -1.56049E+04  3.22313E+04 -2.45168E+04  1.40175E+03 -8.76887E+03 -2.70473E+04  2.08076E+04 -3.26708E+04
  3.96336E+04 -7.92951E+03  3.33125E+04  2.31477E+04  1.66069E+04  4.45765E+04 -7.84477E+03  4.75227E+04
 -3.00775E+04  3.16753E+04 -3.96075E+04  9.05107E+03 -4.05070E+04 -1.58981E+04 -2.24080E+04 -3.57823E+04
  7.19990E+03 -3.58087E+04  3.01609E+04 -1.34185E+04  2.78006E+04  1.08193E+04  3.49787E+03  1.84623E+04
 -1.32935E+04  7.50472E+03 -1.01275E+04 -7.66259E+03  5.79230E+03 -1.04607E+04  1.74450E+04  6.20709E+03
  1.28739E+04  2.18172E+04 -6.57804E+03  2.43659E+04 -2.20961E+04  1.03059E+04 -2.66551E+04 -5.43508E+03
 -1.85218E+04 -1.68210E+04 -6.52497E+03 -1.84571E+04  4.06677E+03 -1.66300E+04  1.38254E+04 -1.61639E+04
  2.33756E+04 -1.20595E+04  3.01145E+04  1.68524E+03  2.23282E+04  1.80510E+04  3.95012E+03  3.45210E+04
 -1.68651E+04  2.88738E+04 -2.69779E+04  9.84374E+03 -2.01182E+04 -1.04166E+04 -4.17574E+03 -1.37882E+04
  2.42088E+03 -3.30124E+03 -3.52140E+03  5.82404E+03 -1.44133E+04  5.24756E+03 -1.47796E+04 -5.77955E+03
 -9.55161E+03 -1.69771E+04  5.13996E+03 -2.11916E+04  1.37393E+04 -1.54453E+04  1.67081E+04 -1.47701E+03
  1.01962E+04  1.18313E+04 -8.97567E+02  1.71122E+04 -1.16094E+04  9.76008E+03 -1.70545E+04 -3.63100E+03
 -1.29251E+04 -1.55781E+04 -1.69794E+03 -2.09845E+04  9.61141E+03 -1.69068E+04  1.78500E+04 -8.16778E+03
  1.59378E+04  6.21519E+02  1.15771E+04  4.04803E+03  5.67723E+03  5.41109E+02  8.27517E+03 -1.58330E+03
  1.55285E+04  2.56073E+03  1.69630E+04  1.37994E+04  1.10666E+04  2.72360E+04 -2.93958E+03  2.98265E+04
 -1.76878E+04  2.35774E+04 -2.76958E+04  1.17606E+04 -2.92008E+04 -2.17483E+03 -2.39998E+04 -1.67225E+04
 -1.09430E+04 -2.37695E+04  8.39702E+03 -2.17100E+04  1.87673E+04 -1.16639E+04  1.72684E+04  4.51039E+03
  7.10068E+03  1.25860E+04 -7.90347E+03  1.14643E+04 -1.45793E+04  2.56327E+03 -1.14073E+04 -9.05571E+03
  1.67602E+02 -1.35760E+04  7.18003E+03 -1.03932E+04  8.98049E+03 -1.12399E+03  1.84447E+03  5.36600E+03
 -6.00650E+03  2.00668E+03 -4.77913E+03 -4.99071E+03  2.31291E+02 -1.17126E+04  8.55530E+03 -1.17322E+04
  1.42530E+04 -5.74429E+03  1.46497E+04  2.75585E+03  1.26766E+04  1.10602E+04  6.34505E+03  1.70528E+04
 -2.54489E+03  1.88313E+04 -1.14179E+04  1.18145E+04 -1.32342E+04  3.28839E+03 -9.76955E+03 -2.74009E+03
 -4.81788E+03 -3.82661E+03 -7.54124E+02  1.32062E+03 -2.20641E+03  2.41067E+03 -4.27845E+03  3.95420E+03
 -9.33214E+03 -5.26508E+02 -1.00016E+04 -7.97752E+03 -3.74267E+03 -1.28832E+04  3.95316E+03 -9.93363E+03
  8.28005E+03 -4.30189E+03  6.08468E+03  2.23554E+03  6.05046E+02  3.63042E+03 -4.34065E+03 -1.22328E+02
 -4.12211E+03 -6.22669E+03 -9.78138E+02 -8.84769E+03  4.78311E+03 -9.38479E+03  1.15939E+04 -4.68464E+03
  1.38938E+04  8.17303E+02  1.02754E+04  7.63572E+03  2.08837E+03  1.03534E+04 -6.12227E+03  9.73358E+03
 -8.07880E+03  3.21558E+03 -4.04256E+03 -1.91728E+03  1.34214E+03 -2.08393E+03  5.50209E+03 -1.11938E+03
  4.89342E+03  4.18354E+03  1.00767E+03  7.39770E+03 -4.96957E+03  7.38575E+03 -9.24526E+03  2.08803E+03
 -6.09650E+03 -4.25301E+03  2.37306E+02 -7.73752E+03  4.60027E+03 -3.83486E+03  4.46402E+03  1.66390E+03
  7.28125E+02  4.53671E+03 -4.62412E+03  5.80310E+03 -6.43048E+03  2.84925E+03 -6.14350E+03 -1.48784E+03
 -3.75571E+03 -7.66806E+03  1.67435E+03 -9.15305E+03  7.72652E+03 -5.41684E+03  8.14472E+03  1.38929E+03
  5.58166E+03  6.53509E+03 -1.08901E+02  8.77965E+03 -6.06381E+03  4.96352E+03 -6.72047E+03 -6.54709E+02
 -6.77905E+03 -6.24878E+03 -1.41115E+03 -6.35056E+03  3.10316E+03 -5.51704E+03  3.67832E+03 -2.91290E+03
  3.19249E+03  6.91742E+02 -4.17901E+02  1.53593E+03  5.20446E+02 -1.13080E+03  6.33229E+02 -2.59040E+03
  5.07746E+03 -1.36656E+03  7.01377E+03  6.99050E+02  7.06555E+03  4.46853E+03  5.70334E+03  9.50394E+03
 -1.50498E+03  1.08212E+04 -9.87673E+03  8.39667E+03 -1.26298E+04  1.90992E+03 -9.80116E+03 -3.61628E+03
 -5.10307E+03 -8.20791E+03 -2.64081E+02 -6.45246E+03  2.45744E+03 -3.18239E+03  2.36457E+03 -2.63819E+03
  1.72182E+03 -1.97107E+03  2.63748E+03 -2.44584E+03  4.14070E+03 -1.81791E+03  4.20199E+03  2.05059E+02
  5.54731E+03  1.52575E+03  2.01642E+03  4.44582E+03 -1.60250E+03  4.12356E+03 -5.56859E+03  3.92092E+03
 -6.49105E+03 -1.04482E+03 -3.22688E+03 -4.62434E+03  1.49887E+02 -6.59997E+03  3.96206E+03 -7.06298E+03
  6.84649E+03 -4.16950E+03  8.68612E+03  6.28685E+02  6.04170E+03  5.41368E+03  1.16627E+03  7.88552E+03
 -3.04435E+03  7.00222E+03 -4.53326E+03  2.28088E+03 -2.59628E+03 -1.09193E+03 -1.03699E+03 -9.73779E+02
 -7.06438E+02  3.15438E+02 -1.23701E+03  2.23557E+03 -3.09058E+03  1.24187E+03 -5.17259E+03 -3.70938E+02
 -2.52604E+03 -4.84934E+03  7.52139E+02 -6.39277E+03  3.66296E+03 -5.95271E+03  5.03884E+03 -1.67937E+03
  5.70207E+03  3.24959E+03  2.62717E+03  4.71512E+03 -1.12974E+03  5.95326E+03 -4.35132E+03  3.70181E+03
 -5.40704E+03  7.68685E+02 -4.50022E+03 -3.61130E+03 -2.79969E+02 -4.57088E+03  2.39185E+03 -3.19498E+03
  3.66448E+03 -1.62113E+03  2.68862E+03  8.50082E+02  7.41220E+02  2.09257E+03  7.75196E+02  7.80004E+02
  1.85775E+03  5.76178E+02  1.47658E+03  9.36093E+02  1.84097E+03  2.66916E+03  1.75459E+03  2.79525E+03
 -1.58743E+03  4.39275E+03 -3.68127E+03  5.08803E+03 -4.77183E+03  1.32667E+03 -5.87124E+03 -1.43040E+03
 -2.11548E+03 -5.18202E+03  7.30006E+02 -6.48783E+03  2.83009E+03 -3.71748E+03  4.40089E+03 -1.17979E+03
  3.45831E+03  2.46223E+03  7.31575E+02  3.19053E+03 -1.13445E+03  1.84023E+03 -1.87092E+03 -1.57129E+02
 -1.03579E+03 -2.26226E+03  1.53711E+03 -2.29982E+03  1.93891E+03 -1.40079E+03  2.02446E+03  6.08611E+02
  1.02657E+03  6.04287E+02  9.16477E+02  2.01273E+02 -6.08333E+02  9.84977E+02  1.38486E+03 -2.03001E+02
  2.60123E+02 -2.54412E+02  2.51985E+03  1.04165E+03  3.19575E+02  3.31015E+03 -2.26987E+02  3.86713E+03
 -2.40861E+03  1.63935E+03 -3.21274E+03  5.22991E+02 -3.07774E+03 -7.09104E+02 -6.11364E+02 -1.61147E+03
  6.24426E+02 -1.93037E+03  1.42570E+03 -9.86564E+02  1.04981E+03  1.57261E+03 -8.52030E+02  1.66457E+03
 -2.41295E+03  8.32806E+02 -1.97159E+03 -1.77333E+03 -1.32683E+03 -3.02617E+03  3.65933E+02 -2.31273E+03
  1.30198E+03 -1.14742E+03  1.31332E+03  2.38801E+02  2.04055E+03 -5.13204E+01  3.42379E+02  1.58016E+03
 -8.11941E+02  5.35031E+02 -9.14583E+02 -6.02049E+02  7.22308E+02 -1.40401E+03  2.74664E+03 -1.60543E+03
  2.52281E+03  5.75184E+02  3.65836E+03  1.64956E+03  1.54103E+03  2.59987E+03 -6.75474E+02  3.16388E+03
 -2.32476E+03  6.96620E+02 -2.25204E+03 -1.90573E+02 -1.41085E+03 -2.11522E+03  5.77940E+02 -1.30696E+03
  1.89641E+03 -1.00984E+03  1.41941E+03  9.24263E+02  3.39156E+02  1.91744E+03 -9.17266E+01  1.54614E+03
 -8.28161E+02  1.41948E+03 -7.34989E+02  4.17999E+02 -2.60783E+02  5.32788E+02 -7.89549E+02  7.73561E+02
 -9.35873E+02  1.28846E+03 -2.57257E+03  8.47667E+02 -2.63035E+03  2.74378E+02 -3.69525E+03 -1.64339E+03
 -1.61684E+03 -3.61415E+03  7.78986E+02 -4.37911E+03  2.05388E+03 -3.72472E+03  4.61388E+03 -1.26149E+03
  3.81481E+03  2.35178E+02  1.88742E+03  2.66176E+03 -5.96755E+02  2.64602E+03 -1.09496E+03  2.11051E+03
 -1.37159E+03  9.51782E+02 -8.98352E+02 -1.45180E+02 -5.40907E+02  2.05242E+02 -8.29604E+02 -5.62023E+01
 -1.47894E+03  8.27036E+01 -9.31779E+02 -3.25552E+00  8.63336E+01 -1.06629E+03 -4.23345E+02 -1.32721E+03
  1.73971E+03 -1.12230E+03  1.33896E+03 -3.19429E+01  2.06412E+03  1.87004E+03 -6.50393E+01  2.49084E+03
 -1.27286E+03  3.28525E+03 -2.56647E+03  2.00260E+03 -2.97996E+03 -2.96348E+02 -2.05437E+03 -2.02963E+03
 -1.26004E+03 -2.49064E+03  3.77503E+02 -2.34808E+03  1.38992E+03 -1.09185E+03  1.16474E+03  1.03949E+02
  8.90512E+02  7.95228E+02 -1.60134E+02  6.01621E+02 -5.97764E+02 -2.89982E+02 -2.08020E+02 -2.65330E+02
  7.46997E+02  1.38566E+02  7.80444E+02  6.22399E+02  3.78945E+01  8.67597E+02  4.12489E+02  9.10750E+02
 -9.40412E+02  1.04776E+03 -1.27815E+03  1.75023E+02 -1.35791E+03 -8.71787E+02 -6.40603E+01 -1.99679E+03
  1.18130E+03 -1.61588E+03  1.13764E+03 -3.47521E+02  1.93997E+03 -4.67909E+02  5.80586E+02  1.55190E+03
  5.54983E+02  1.21226E+03 -4.66845E+02  9.39310E+02 -1.29141E+03  8.71010E+02 -7.84039E+02  2.49331E+02
 -3.56397E+02 -2.16919E+02 -4.20461E+02  3.21601E+01 -7.57511E+02  1.04916E+02 -1.54183E+03 -3.98861E+02
 -1.58188E+03 -9.86661E+00 -2.42102E+02 -1.50094E+03  8.55101E+02 -2.08783E+03  1.28170E+03 -4.02976E+02
  1.17545E+03  1.25345E+02  3.69702E+02  7.23952E+02 -3.17864E+02  1.22798E+03 -1.00106E+03  1.13719E+03
