 $NMID ID='MM_0lb_SNR800_19hz_g50_51.RAW', FMTDAT='(8E13.5)'
 TRAMP=1., VOLUME=1. $END
  3.09612E+05  4.03978E+02  3.37599E+05  2.50406E+05  8.43953E+04  3.37573E+05 -1.32678E+05  2.50393E+05
 -1.89613E+05  8.24918E+04 -1.11000E+05 -3.28669E+04  1.51561E+03 -5.05301E+04  5.36874E+04  3.53464E+02
  3.52357E+04  5.29351E+04 -1.69031E+04  7.47012E+04 -6.01709E+04  6.27122E+04 -8.32408E+04  3.14207E+04
 -7.96754E+04 -1.10069E+04 -5.64428E+04 -5.02889E+04 -1.49878E+04 -6.82248E+04  2.66121E+04 -4.48731E+04
  3.93513E+04  3.82589E+03  1.58304E+04  4.72825E+04 -3.39137E+04  4.61573E+04 -6.55844E+04 -5.99990E+02
 -5.19435E+04 -5.59177E+04 -6.33583E+03 -7.51277E+04  3.30523E+04 -5.34099E+04  4.62209E+04 -1.62721E+04
  4.15699E+04  1.10306E+04  3.09508E+04  2.42734E+04  1.57069E+04  2.82862E+04 -4.60711E+03  2.65549E+04
 -2.18196E+04  1.28609E+04 -1.92120E+04 -4.36460E+03  4.49136E+03 -7.67915E+03  2.10757E+04  1.10190E+04
  7.43595E+03  3.35217E+04 -3.06294E+04  3.37830E+04 -6.12511E+04  2.44080E+03 -5.53642E+04 -4.11432E+04
 -1.24426E+04 -6.09815E+04  3.83726E+04 -4.34171E+04  5.55695E+04 -1.90117E+03  3.19708E+04  3.05568E+04
 -6.37789E+03  3.32449E+04 -2.83890E+04  1.31946E+04 -2.76487E+04 -5.39020E+03 -1.46983E+04 -9.94624E+03
 -7.53101E+03 -1.13864E+04 -1.02532E+03 -1.65616E+04  6.61082E+03 -2.25819E+04  1.50676E+04 -1.39387E+04
  1.22597E+04  4.16829E+03 -6.17903E+03  1.28923E+04 -1.93813E+04 -2.62612E+03 -7.91412E+03 -3.05384E+04
  2.07319E+04 -4.06687E+04  4.49732E+04 -1.83319E+04  4.22858E+04  1.84174E+04  1.40826E+04  4.20128E+04
 -1.51331E+04  3.09656E+04 -2.35637E+04  1.11511E+03 -8.43366E+03 -2.65112E+04  2.04741E+04 -3.11770E+04
  3.80010E+04 -7.36445E+03  3.17125E+04  2.31661E+04  1.54491E+04  4.27435E+04 -7.50176E+03  4.51851E+04
 -2.81085E+04  2.99079E+04 -3.74075E+04  8.29589E+03 -3.83872E+04 -1.50145E+04 -2.12358E+04 -3.44161E+04
  6.87091E+03 -3.40887E+04  2.91873E+04 -1.29544E+04  2.68526E+04  1.08724E+04  2.87085E+03  1.77604E+04
 -1.29124E+04  7.20624E+03 -9.61614E+03 -7.78012E+03  5.85830E+03 -9.90042E+03  1.75444E+04  6.32344E+03
  1.25729E+04  2.15948E+04 -6.76105E+03  2.31294E+04 -2.14499E+04  9.10017E+03 -2.52633E+04 -6.29284E+03
 -1.66479E+04 -1.65051E+04 -5.55854E+03 -1.68694E+04  3.75690E+03 -1.46810E+04  1.23990E+04 -1.44880E+04
  2.14151E+04 -1.16642E+04  2.81674E+04  1.01903E+03  2.12790E+04  1.65550E+04  3.82655E+03  3.23573E+04
 -1.61232E+04  2.75154E+04 -2.58451E+04  9.46018E+03 -1.99136E+04 -1.02989E+04 -4.12047E+03 -1.39135E+04
  2.65150E+03 -4.03039E+03 -2.89943E+03  5.19372E+03 -1.28567E+04  5.40312E+03 -1.31029E+04 -4.94658E+03
 -8.31864E+03 -1.55571E+04  4.43807E+03 -1.92757E+04  1.25310E+04 -1.40017E+04  1.45814E+04 -1.37970E+03
  8.99961E+03  1.07692E+04 -8.99203E+02  1.58136E+04 -1.01952E+04  8.65153E+03 -1.52189E+04 -3.50789E+03
 -1.16099E+04 -1.41562E+04 -1.22940E+03 -1.89437E+04  8.95716E+03 -1.54660E+04  1.59133E+04 -7.26983E+03
  1.44907E+04  6.39229E+02  1.03463E+04  4.06237E+03  5.05085E+03  4.56335E+02  7.77012E+03 -1.41345E+03
  1.35921E+04  2.51752E+03  1.47865E+04  1.27532E+04  9.18717E+03  2.48258E+04 -3.11724E+03  2.64982E+04
 -1.55040E+04  2.00320E+04 -2.44670E+04  9.63165E+03 -2.45685E+04 -1.75349E+03 -2.12807E+04 -1.41320E+04
 -9.92836E+03 -2.02884E+04  6.92763E+03 -1.91792E+04  1.65119E+04 -1.09181E+04  1.54565E+04  3.52136E+03
  6.36552E+03  1.11880E+04 -6.92638E+03  1.03572E+04 -1.32182E+04  2.60211E+03 -1.03773E+04 -7.53754E+03
 -1.11626E+01 -1.24664E+04  6.07699E+03 -9.61271E+03  7.98138E+03 -1.21146E+03  1.20692E+03  4.95409E+03
 -5.53542E+03  1.45142E+03 -3.59916E+03 -4.46152E+03  8.24392E+02 -9.78861E+03  7.65870E+03 -9.63992E+03
  1.20505E+04 -4.45491E+03  1.17197E+04  2.59111E+03  1.02794E+04  9.55134E+03  4.88088E+03  1.38547E+04
 -1.54947E+03  1.57376E+04 -9.32416E+03  1.00943E+04 -1.11671E+04  2.87996E+03 -8.61651E+03 -2.05507E+03
 -4.35008E+03 -3.23298E+03 -8.97589E+02  1.80068E+03 -1.96483E+03  1.83457E+03 -3.46866E+03  3.37211E+03
 -7.76086E+03 -4.99663E+02 -8.69572E+03 -7.00604E+03 -3.55021E+03 -1.13523E+04  3.70047E+03 -8.24853E+03
  7.18926E+03 -3.83758E+03  5.22267E+03  1.98447E+03  5.92407E+02  3.05768E+03 -3.48709E+03 -5.86797E+01
 -3.25399E+03 -5.19544E+03 -6.38392E+02 -6.91137E+03  3.77526E+03 -7.77458E+03  9.61572E+03 -3.90578E+03
  1.13881E+04  5.05163E+02  8.08186E+03  5.97508E+03  1.69492E+03  8.40603E+03 -5.14564E+03  8.24743E+03
 -7.29517E+03  2.63333E+03 -3.60337E+03 -9.63683E+02  1.14119E+03 -1.82902E+03  4.78719E+03 -8.28911E+02
  3.99010E+03  3.34772E+03  1.20511E+03  6.03284E+03 -4.34797E+03  6.44983E+03 -7.97883E+03  1.90377E+03
 -4.60968E+03 -3.51852E+03  2.95528E+02 -6.57387E+03  3.62454E+03 -3.18153E+03  3.43922E+03  1.02559E+03
  2.61580E+02  3.23774E+03 -3.92620E+03  4.69171E+03 -4.75893E+03  2.34603E+03 -4.16551E+03 -8.83458E+02
 -3.08955E+03 -5.82199E+03  1.05804E+03 -6.84609E+03  5.70044E+03 -4.46454E+03  6.05602E+03  8.16802E+02
  4.44313E+03  5.21918E+03  1.59455E+00  7.09515E+03 -4.82612E+03  3.89306E+03 -5.08147E+03 -4.52108E+02
 -5.61307E+03 -4.90178E+03 -1.34844E+03 -5.08650E+03  2.40706E+03 -4.49473E+03  3.13984E+03 -2.66276E+03
  2.57460E+03  2.71940E+02  7.00574E+01  1.30512E+03  7.50222E+02 -1.74392E+02 -1.10141E+01 -1.44164E+03
  3.64178E+03 -5.35624E+02  5.04976E+03  6.75829E+02  5.39846E+03  2.87939E+03  5.06610E+03  6.72117E+03
 -1.09475E+03  7.99982E+03 -7.22133E+03  5.77908E+03 -9.19549E+03  8.96635E+02 -7.44519E+03 -2.55866E+03
 -3.98488E+03 -6.24480E+03 -4.90251E+02 -4.88317E+03  1.95635E+03 -1.66779E+03  1.73992E+03 -2.16680E+03
  1.37274E+03 -1.41090E+03  2.02922E+03 -2.33168E+03  3.49960E+03 -1.30738E+03  3.53613E+03  5.98264E+02
  3.96345E+03  1.12615E+03  1.18761E+03  3.16675E+03 -1.41855E+03  2.62248E+03 -4.28688E+03  2.34948E+03
 -4.71281E+03 -1.02796E+03 -1.65410E+03 -3.18813E+03  3.66090E+02 -4.51197E+03  2.97957E+03 -5.04409E+03
  4.76279E+03 -3.18533E+03  6.26461E+03 -9.44902E+01  4.80937E+03  3.83355E+03  1.02454E+03  5.78105E+03
 -1.78137E+03  5.67711E+03 -3.29519E+03  1.50059E+03 -1.80950E+03 -1.03131E+03 -3.62876E+02 -3.29366E+02
 -3.04734E+02  3.84518E+02 -9.88656E+02  1.97446E+03 -2.47000E+03  1.14746E+03 -4.13974E+03 -1.05062E+02
 -1.43874E+03 -3.62675E+03  7.14955E+02 -4.54078E+03  2.46957E+03 -3.94316E+03  3.44931E+03 -8.24034E+02
  3.75816E+03  2.28999E+03  1.63509E+03  2.87814E+03 -7.26264E+02  4.21312E+03 -2.42566E+03  2.39387E+03
 -3.46916E+03  6.14268E+02 -2.86870E+03 -2.32349E+03 -3.29225E+02 -2.95409E+03  1.43745E+03 -2.27505E+03
  2.54630E+03 -1.18224E+03  1.57950E+03  3.33655E+02  6.53367E+02  1.46204E+03  8.10014E+02  6.11732E+02
  1.44396E+03  6.30580E+02  1.10756E+03  1.14984E+03  1.18632E+03  1.98883E+03  1.30568E+03  1.45575E+03
 -9.75516E+02  2.69326E+03 -2.53873E+03  3.72459E+03 -2.97173E+03  1.27767E+03 -3.76299E+03 -2.25241E+02
 -1.54970E+03 -3.00258E+03  5.94219E+02 -4.22132E+03  1.59516E+03 -2.12661E+03  2.96768E+03 -6.37909E+02
  2.41814E+03  1.79093E+03  3.76782E+02  1.89576E+03 -5.44414E+02  1.17922E+03 -8.66230E+02 -2.42702E+02
 -5.48210E+02 -1.56511E+03  1.17643E+03 -1.03494E+03  1.10733E+03 -7.78111E+02  1.25566E+03  2.39902E+02
  1.03264E+03  3.12065E+01  7.24144E+02 -1.81136E+02 -4.12975E+02  6.22329E+02  1.63241E+03 -1.52459E+02
  5.85300E+01 -2.65855E+02  1.65427E+03  5.68306E+02  1.13579E+02  2.39049E+03 -4.32813E+02  2.85886E+03
 -1.50780E+03  1.16981E+03 -1.99268E+03  3.96923E+02 -1.90768E+03 -8.30481E+02 -1.58220E+02 -8.48956E+02
  3.42606E+02 -1.02842E+03  1.04071E+03 -6.59538E+02  5.06727E+02  7.85542E+02 -5.24193E+02  9.62613E+02
 -1.26364E+03  6.74737E+02 -1.18566E+03 -1.17411E+03 -8.35314E+02 -2.07200E+03 -9.19220E+01 -1.27960E+03
  5.12666E+02 -4.64459E+02  5.32542E+02  2.27149E+01  1.55264E+03  1.96086E+02  4.44772E+02  9.69173E+02
 -2.45435E+02  9.53101E+01 -8.88443E+02 -1.36890E+02  7.52487E+02 -4.49520E+02  1.44377E+03 -7.18997E+02
  1.07871E+03  2.59841E+02  2.45574E+03  4.57396E+02  9.01641E+02  1.49605E+03 -9.93703E+01  1.98602E+03
 -1.06581E+03  2.09227E+02 -1.35010E+03 -1.53400E+02 -8.96054E+02 -1.21292E+03  3.34396E+02 -4.71325E+02
  1.53549E+03 -7.05479E+02  6.42617E+02  5.13026E+02  2.75044E+02  1.06924E+03  2.09703E+02  1.06673E+03
 -2.06313E+02  1.13164E+03 -4.89186E+02  1.99828E+02  1.83437E+02  3.24954E+02 -6.99165E+02  3.18422E+02
 -6.40524E+02  9.75897E+02 -1.47340E+03  2.70066E+02 -1.62055E+03  1.87539E+02 -2.04360E+03 -6.48027E+02
 -1.39422E+03 -1.87487E+03  7.15805E+02 -2.41141E+03  9.11687E+02 -2.21786E+03  2.38652E+03 -9.05473E+02
  2.15528E+03 -1.40610E+02  1.00974E+03  1.37166E+03 -4.20349E+02  1.35449E+03 -5.22967E+02  1.22571E+03
 -9.56655E+02  5.99043E+02 -6.91840E+02 -2.03059E+02 -4.25833E+02  2.58763E+02 -4.66865E+02 -2.02638E+02
 -9.81276E+02 -1.62172E+02 -6.87164E+02  2.58619E+02  2.86264E+02 -7.45058E+02 -2.74414E+02 -9.20818E+02
  1.22386E+03 -4.24024E+02  1.53193E+02  4.34112E+02  9.59610E+02  1.25415E+03 -4.93299E+02  1.37019E+03
 -9.07111E+02  2.34395E+03 -1.22198E+03  1.14183E+03 -1.58043E+03 -2.58108E+02 -8.57189E+02 -9.20999E+02
 -1.04738E+03 -1.05612E+03  2.86734E+02 -9.44871E+02  4.64324E+02 -5.20759E+02  4.75042E+02  1.61686E+02
  6.06013E+02  5.24360E+02  9.04429E+01  3.35806E+02 -1.67629E+02  8.85528E+01  3.15089E+00 -2.21352E+01
  4.95799E+02  3.72069E+02  1.82435E+02  4.68245E+02  1.39065E+02  4.83127E+02  6.71561E+02  1.29111E+02
 -5.14672E+02  5.19063E+02 -4.79193E+02  3.05211E+02 -7.06774E+02 -2.27762E+02  1.65221E+02 -1.16081E+03
  4.48162E+02 -3.37790E+02  6.26544E+02  2.82450E+02  7.68588E+02 -5.39268E+02  4.00541E+02  7.57177E+02
  4.20982E+02  3.74323E+02 -2.15519E+02  6.15702E+02 -4.85066E+02  6.66316E+02 -3.33208E+02  3.27811E+02
  8.32837E+00 -3.97023E+01 -3.56932E+02  1.51940E+02 -3.91980E+02  1.92227E+02 -6.78306E+02 -1.55522E+02
 -1.30834E+03  2.20829E+02 -3.00676E+02 -8.36947E+02  5.76429E+02 -1.57260E+03  7.77387E+02  4.29002E+01
  4.84931E+02  3.62266E+02 -3.71996E+02  2.79666E+02 -1.23289E+02  4.14514E+02 -3.20107E+02  8.58539E+02
