 $NMID ID='MM_0lb_SNR800_15hz_g50_23.RAW', FMTDAT='(8E13.5)'
 TRAMP=1., VOLUME=1. $END
  3.09713E+05  3.44549E+02  3.37559E+05  2.50806E+05  8.46456E+04  3.37967E+05 -1.32558E+05  2.51229E+05
 -1.90402E+05  8.31172E+04 -1.11650E+05 -3.27124E+04  7.52195E+02 -5.05172E+04  5.38565E+04 -3.73269E+02
  3.53033E+04  5.30200E+04 -1.68435E+04  7.57207E+04 -6.07708E+04  6.32445E+04 -8.40260E+04  3.20365E+04
 -8.08749E+04 -1.12221E+04 -5.71685E+04 -5.08269E+04 -1.52002E+04 -6.93905E+04  2.74711E+04 -4.55512E+04
  3.97778E+04  3.41562E+03  1.58815E+04  4.77950E+04 -3.45686E+04  4.76937E+04 -6.65255E+04 -3.23718E+02
 -5.33457E+04 -5.67895E+04 -6.46638E+03 -7.65977E+04  3.39892E+04 -5.45966E+04  4.79221E+04 -1.74598E+04
  4.31329E+04  1.13866E+04  3.19960E+04  2.53923E+04  1.59896E+04  2.93857E+04 -5.20786E+03  2.69180E+04
 -2.23066E+04  1.24434E+04 -1.86595E+04 -5.13664E+03  5.30725E+03 -7.27792E+03  2.21671E+04  1.18845E+04
  7.31676E+03  3.51510E+04 -3.19864E+04  3.52472E+04 -6.31274E+04  2.17776E+03 -5.68758E+04 -4.24630E+04
 -1.23666E+04 -6.27351E+04  3.96070E+04 -4.46825E+04  5.80478E+04 -2.36848E+03  3.37468E+04  3.22549E+04
 -6.29761E+03  3.55084E+04 -2.96944E+04  1.54896E+04 -3.01845E+04 -4.70889E+03 -1.64482E+04 -1.09499E+04
 -8.11063E+03 -1.29388E+04 -5.13260E+02 -1.77646E+04  7.31012E+03 -2.29360E+04  1.54518E+04 -1.34911E+04
  1.15225E+04  5.00405E+03 -7.90521E+03  1.28438E+04 -2.10103E+04 -4.24675E+03 -8.00344E+03 -3.33015E+04
  2.22012E+04 -4.31387E+04  4.77171E+04 -1.97703E+04  4.46037E+04  1.87532E+04  1.56920E+04  4.36696E+04
 -1.59738E+04  3.31293E+04 -2.48126E+04  1.80760E+03 -9.55470E+03 -2.75295E+04  2.08413E+04 -3.34884E+04
  4.02849E+04 -8.69355E+03  3.50423E+04  2.37313E+04  1.77531E+04  4.54060E+04 -7.87939E+03  4.94067E+04
 -3.10406E+04  3.26659E+04 -4.10918E+04  9.54982E+03 -4.17604E+04 -1.64271E+04 -2.30894E+04 -3.73778E+04
  7.13928E+03 -3.72667E+04  3.08682E+04 -1.44035E+04  2.88466E+04  1.08816E+04  3.95680E+03  1.89126E+04
 -1.32879E+04  8.20149E+03 -9.93573E+03 -7.58953E+03  5.83534E+03 -1.01054E+04  1.76348E+04  6.24657E+03
  1.35665E+04  2.19330E+04 -6.15399E+03  2.46131E+04 -2.20451E+04  1.13625E+04 -2.74373E+04 -5.13713E+03
 -1.97872E+04 -1.69683E+04 -7.97174E+03 -1.98381E+04  3.83528E+03 -1.87605E+04  1.51707E+04 -1.75268E+04
  2.52109E+04 -1.25845E+04  3.17163E+04  2.83530E+03  2.35620E+04  1.92079E+04  4.36607E+03  3.55325E+04
 -1.72853E+04  2.96890E+04 -2.76400E+04  1.04608E+04 -2.09525E+04 -1.03790E+04 -4.26445E+03 -1.36166E+04
  2.22403E+03 -3.03998E+03 -4.30619E+03  6.26306E+03 -1.58330E+04  5.35516E+03 -1.56832E+04 -7.00031E+03
 -9.84655E+03 -1.82131E+04  4.84471E+03 -2.26697E+04  1.45906E+04 -1.62682E+04  1.75213E+04 -1.16943E+03
  1.10562E+04  1.29404E+04 -1.04646E+03  1.83378E+04 -1.23380E+04  1.07111E+04 -1.82931E+04 -3.90421E+03
 -1.35868E+04 -1.64159E+04 -1.53288E+03 -2.21833E+04  9.75562E+03 -1.83911E+04  1.88931E+04 -8.83748E+03
  1.70422E+04  3.31832E+02  1.24209E+04  4.22306E+03  6.32951E+03  1.00097E+03  9.09666E+03 -1.51354E+03
  1.66951E+04  2.87770E+03  1.82934E+04  1.49648E+04  1.24227E+04  2.92104E+04 -3.19699E+03  3.27120E+04
 -1.90454E+04  2.61354E+04 -3.02564E+04  1.29644E+04 -3.18145E+04 -1.96310E+03 -2.63414E+04 -1.81297E+04
 -1.15889E+04 -2.64083E+04  8.94702E+03 -2.36151E+04  2.06634E+04 -1.25114E+04  1.87122E+04  4.86137E+03
  7.04050E+03  1.36665E+04 -8.63655E+03  1.22215E+04 -1.57207E+04  2.50638E+03 -1.21920E+04 -9.69392E+03
 -2.07963E+02 -1.47133E+04  7.53544E+03 -1.10855E+04  1.00387E+04 -1.37708E+03  2.35363E+03  5.84259E+03
 -6.63099E+03  2.25262E+03 -5.44881E+03 -5.42545E+03 -9.58276E+01 -1.27902E+04  9.11112E+03 -1.33937E+04
  1.56729E+04 -6.66062E+03  1.65713E+04  3.02916E+03  1.46138E+04  1.25951E+04  6.72236E+03  1.89296E+04
 -2.84314E+03  2.11175E+04 -1.31010E+04  1.29710E+04 -1.51365E+04  3.35659E+03 -1.06130E+04 -3.31467E+03
 -5.03532E+03 -4.66241E+03 -8.79370E+02  1.24893E+03 -2.03660E+03  2.32080E+03 -5.01183E+03  4.02987E+03
 -1.01689E+04 -6.43351E+02 -1.05406E+04 -8.68905E+03 -4.39833E+03 -1.38781E+04  4.50435E+03 -1.10461E+04
  8.76410E+03 -4.33665E+03  6.27455E+03  2.65933E+03  3.63775E+02  4.13991E+03 -4.75165E+03  1.80444E+02
 -4.58276E+03 -6.68701E+03 -7.44366E+02 -1.00009E+04  5.62619E+03 -1.04836E+04  1.31317E+04 -5.39985E+03
  1.54223E+04  1.10676E+03  1.15939E+04  9.16584E+03  2.16377E+03  1.18320E+04 -6.65225E+03  1.05691E+04
 -8.75514E+03  3.13169E+03 -4.31865E+03 -1.94078E+03  1.44005E+03 -2.84133E+03  5.70218E+03 -1.05509E+03
  5.43623E+03  4.41976E+03  1.25341E+03  8.49458E+03 -5.76754E+03  8.10817E+03 -9.87396E+03  2.24405E+03
 -6.60083E+03 -5.00950E+03  3.48577E+02 -8.65705E+03  5.25965E+03 -4.18945E+03  5.03242E+03  1.50928E+03
  7.45720E+02  5.46006E+03 -5.37408E+03  6.52063E+03 -7.47339E+03  3.12272E+03 -7.26127E+03 -2.19135E+03
 -4.47350E+03 -9.08614E+03  2.11036E+03 -1.03222E+04  9.00993E+03 -6.22704E+03  9.68877E+03  1.70032E+03
  6.31313E+03  7.55452E+03 -4.23602E+02  9.68849E+03 -6.90139E+03  5.56768E+03 -7.36757E+03 -9.07946E+02
 -7.41273E+03 -6.72667E+03 -1.37439E+03 -7.09345E+03  3.76218E+03 -5.96551E+03  4.12491E+03 -2.95362E+03
  3.41699E+03  7.71093E+02 -2.80470E+02  1.30313E+03  3.17293E+02 -1.15369E+03  1.06492E+03 -3.48589E+03
  5.93581E+03 -2.12437E+03  8.71673E+03  1.07229E+03  8.57699E+03  5.32242E+03  6.92349E+03  1.13200E+04
 -2.38969E+03  1.29879E+04 -1.11131E+04  9.66353E+03 -1.46589E+04  1.97597E+03 -1.13890E+04 -4.56123E+03
 -5.94980E+03 -9.47614E+03 -5.69633E+02 -7.70374E+03  2.92565E+03 -3.69578E+03  2.71444E+03 -2.90318E+03
  1.99433E+03 -2.05857E+03  2.83487E+03 -2.83802E+03  4.04311E+03 -1.93127E+03  4.91288E+03 -3.17923E+02
  6.22394E+03  1.48476E+03  2.66567E+03  5.08497E+03 -1.74772E+03  5.28226E+03 -6.53606E+03  4.02784E+03
 -7.88358E+03 -1.25431E+03 -3.99231E+03 -5.31332E+03 -1.93579E+01 -8.02176E+03  4.70424E+03 -8.42181E+03
  8.16723E+03 -4.67281E+03  1.00288E+04  1.07432E+03  7.17732E+03  6.44698E+03  1.37330E+03  9.20342E+03
 -3.28745E+03  8.21845E+03 -5.45263E+03  2.72089E+03 -3.51776E+03 -1.02460E+03 -1.25055E+03 -7.68633E+02
 -5.51954E+02  2.67598E+02 -1.38354E+03  2.20637E+03 -3.33223E+03  1.17950E+03 -5.57913E+03 -5.88037E+02
 -3.07419E+03 -5.50924E+03  5.87721E+02 -7.11729E+03  4.51802E+03 -6.80349E+03  6.48591E+03 -1.87326E+03
  6.47979E+03  3.60696E+03  2.84092E+03  5.47523E+03 -1.38487E+03  7.06421E+03 -4.79735E+03  4.28697E+03
 -6.24736E+03  5.39091E+02 -5.51824E+03 -4.12963E+03 -7.79715E+02 -5.62032E+03  2.91461E+03 -4.39290E+03
  4.16269E+03 -1.79398E+03  2.88151E+03  1.26288E+03  7.31937E+02  2.50753E+03  9.73809E+02  8.44296E+02
  1.86082E+03  6.21287E+02  1.65681E+03  1.20159E+03  1.97835E+03  2.76830E+03  1.84099E+03  3.49564E+03
 -1.66684E+03  5.06480E+03 -4.64474E+03  6.09869E+03 -6.39367E+03  1.47988E+03 -7.43879E+03 -1.84698E+03
 -3.24735E+03 -6.47870E+03  8.70770E+02 -7.63764E+03  3.70075E+03 -4.76331E+03  5.08085E+03 -1.53797E+03
  4.39034E+03  2.81136E+03  1.05894E+03  3.68930E+03 -1.25484E+03  2.39522E+03 -2.30172E+03 -3.59123E+02
 -9.57302E+02 -2.59360E+03  1.64164E+03 -2.80824E+03  2.44608E+03 -1.19627E+03  2.59657E+03  8.23811E+02
  1.44539E+03  8.76738E+02  9.45653E+02  4.32803E+02 -5.47755E+02  1.10313E+03  1.63457E+03 -1.33605E+02
  4.44235E+02 -5.65137E+02  2.67181E+03  1.00060E+03  8.28135E+02  3.43129E+03 -7.82849E+02  4.63664E+03
 -2.83815E+03  2.85197E+03 -3.79552E+03  8.35693E+02 -3.56875E+03 -1.25700E+03 -6.50381E+02 -1.92406E+03
  4.14391E+02 -2.05712E+03  1.74203E+03 -9.52330E+02  1.20485E+03  1.73550E+03 -9.14311E+02  1.61171E+03
 -2.48697E+03  1.44439E+03 -2.46885E+03 -1.78917E+03 -1.40043E+03 -3.44331E+03  4.63695E+02 -3.20238E+03
  1.45427E+03 -1.40389E+03  1.80492E+03 -9.21719E+01  2.19805E+03  3.83615E+02  3.70447E+02  1.81060E+03
 -7.24619E+02  1.81552E+02 -1.68250E+03 -8.20007E+02  7.50927E+02 -1.79785E+03  3.19403E+03 -1.98958E+03
  2.91522E+03  1.55253E+01  3.92112E+03  2.00897E+03  1.47710E+03  3.27577E+03 -8.43148E+02  3.42223E+03
 -2.90239E+03  1.07718E+03 -2.92349E+03 -5.31261E+02 -1.20920E+03 -2.46902E+03  3.99070E+02 -1.69385E+03
  2.38851E+03 -1.16292E+03  2.01268E+03  1.17453E+03  7.00193E+02  2.15658E+03 -3.04594E+02  1.94150E+03
 -9.22058E+02  1.48684E+03 -1.08268E+03  4.61862E+02 -2.98795E+02  7.66152E+02 -1.21383E+03  1.04190E+03
 -1.16028E+03  1.39767E+03 -2.97748E+03  1.01396E+03 -3.49361E+03  4.44191E+02 -3.86047E+03 -2.32304E+03
 -2.10837E+03 -4.54916E+03  1.00112E+03 -5.32554E+03  2.79550E+03 -4.39919E+03  5.14752E+03 -1.86587E+03
  4.47125E+03  5.35413E+02  2.61048E+03  3.16752E+03 -3.43812E+02  3.14810E+03 -1.54506E+03  2.71312E+03
 -1.82798E+03  1.10218E+03 -1.03136E+03 -5.74433E+02 -6.77399E+02  1.17992E+02 -3.17098E+02 -2.74948E+02
 -1.21535E+03  1.18652E+02 -9.56373E+02  1.04846E+02  2.62896E+02 -9.10210E+02 -5.38936E+02 -1.70207E+03
  2.07069E+03 -1.20895E+03  1.62890E+03 -5.75243E+01  2.20995E+03  2.21614E+03 -1.11322E+02  2.91445E+03
 -1.80341E+03  4.09704E+03 -3.54568E+03  2.25929E+03 -3.76404E+03 -3.03221E+02 -2.55858E+03 -2.55341E+03
 -1.62750E+03 -2.92717E+03  5.44382E+02 -2.85291E+03  1.88947E+03 -1.32901E+03  1.98363E+03  1.59942E+02
  1.45228E+03  6.23200E+02  6.34011E+01  8.71934E+02 -5.66468E+02 -1.99904E+02  1.79369E+02 -7.99722E+02
  9.69337E+02 -2.23470E+02  1.18179E+03  4.71590E+02  7.49393E+02  1.29165E+03  2.21427E+02  1.10332E+03
 -1.16961E+03  1.44036E+03 -1.92264E+03 -3.82847E+01 -1.64375E+03 -1.38031E+03 -2.66365E+02 -2.80614E+03
  1.27548E+03 -1.86192E+03  1.76124E+03 -5.93682E+02  2.06736E+03  1.56919E+01  1.34493E+03  1.98337E+03
  5.79999E+02  1.57619E+03 -4.00315E+02  1.53028E+03 -1.16154E+03  1.01192E+03 -1.05629E+03 -7.73690E+01
 -5.74444E+02 -2.24033E+02 -8.62435E+02  3.98801E+02 -1.23878E+03  6.33511E+02 -1.39737E+03 -4.51316E+02
 -1.71254E+03 -5.74313E+01 -6.15141E+02 -1.85145E+03  1.19945E+03 -2.61511E+03  1.67670E+03 -8.04196E+02
  1.71100E+03  2.68865E+02  2.39080E+02  1.12800E+03 -4.54640E+00  1.67042E+03 -1.21802E+03  1.22739E+03
