 $NMID ID='MM_0lb_SNR800_11hz_g50_43.RAW', FMTDAT='(8E13.5)'
 TRAMP=1., VOLUME=1. $END
  3.10004E+05  7.11161E+02  3.37898E+05  2.50801E+05  8.47887E+04  3.38412E+05 -1.32535E+05  2.51537E+05
 -1.90616E+05  8.32538E+04 -1.12161E+05 -3.24739E+04  7.19498E+02 -5.06707E+04  5.37383E+04 -5.63278E+02
  3.54784E+04  5.29737E+04 -1.66345E+04  7.58398E+04 -6.10088E+04  6.41051E+04 -8.48763E+04  3.20383E+04
 -8.19788E+04 -1.16002E+04 -5.79036E+04 -5.17755E+04 -1.50341E+04 -7.07089E+04  2.78825E+04 -4.68881E+04
  4.06832E+04  3.49697E+03  1.65644E+04  4.87972E+04 -3.44991E+04  4.78360E+04 -6.74633E+04  2.26348E+02
 -5.42851E+04 -5.74403E+04 -6.94243E+03 -7.81616E+04  3.43727E+04 -5.62897E+04  4.87495E+04 -1.80489E+04
  4.44026E+04  1.15168E+04  3.27639E+04  2.58426E+04  1.58998E+04  3.01857E+04 -5.75119E+03  2.73683E+04
 -2.22974E+04  1.20722E+04 -1.86161E+04 -5.41644E+03  6.63755E+03 -7.27531E+03  2.30582E+04  1.29911E+04
  7.31361E+03  3.66332E+04 -3.29297E+04  3.66617E+04 -6.49050E+04  2.08277E+03 -5.83867E+04 -4.40246E+04
 -1.26812E+04 -6.46580E+04  4.09187E+04 -4.66720E+04  6.01379E+04 -2.47367E+03  3.57812E+04  3.33690E+04
 -5.95525E+03  3.79046E+04 -3.11942E+04  1.75690E+04 -3.19836E+04 -4.13342E+03 -1.83175E+04 -1.16954E+04
 -9.23315E+03 -1.45789E+04 -4.92373E+02 -1.92376E+04  7.89889E+03 -2.33175E+04  1.54793E+04 -1.29483E+04
  1.07801E+04  5.90096E+03 -9.60640E+03  1.26458E+04 -2.23294E+04 -6.12710E+03 -8.91796E+03 -3.60502E+04
  2.41481E+04 -4.50921E+04  5.07092E+04 -2.01459E+04  4.71863E+04  2.05922E+04  1.67278E+04  4.56614E+04
 -1.65735E+04  3.48152E+04 -2.67443E+04  2.33668E+03 -1.11508E+04 -2.88935E+04  2.13144E+04 -3.60535E+04
  4.34708E+04 -1.03399E+04  3.83916E+04  2.41185E+04  2.01991E+04  4.92648E+04 -7.93249E+03  5.39954E+04
 -3.39446E+04  3.65202E+04 -4.52727E+04  1.04581E+04 -4.57389E+04 -1.79405E+04 -2.51521E+04 -4.05440E+04
  7.85549E+03 -4.05664E+04  3.32394E+04 -1.62274E+04  3.07796E+04  1.14717E+04  4.78828E+03  2.01162E+04
 -1.35542E+04  9.28122E+03 -1.07759E+04 -7.30108E+03  5.97022E+03 -1.14186E+04  1.79553E+04  5.95997E+03
  1.45072E+04  2.25319E+04 -5.48597E+03  2.62444E+04 -2.28931E+04  1.33888E+04 -3.00627E+04 -3.62344E+03
 -2.34880E+04 -1.81875E+04 -9.89608E+03 -2.30326E+04  4.43804E+03 -2.32117E+04  1.80528E+04 -2.09780E+04
  2.95475E+04 -1.37020E+04  3.58985E+04  3.89896E+03  2.57286E+04  2.23373E+04  4.57966E+03  3.90956E+04
 -1.91783E+04  3.24894E+04 -2.93047E+04  1.13516E+04 -2.18886E+04 -1.04629E+04 -4.72045E+03 -1.32303E+04
  1.18706E+03 -1.93345E+03 -6.68908E+03  7.51358E+03 -1.83117E+04  4.51182E+03 -1.87913E+04 -8.23333E+03
 -1.11498E+04 -2.14873E+04  5.43481E+03 -2.58656E+04  1.76012E+04 -1.85649E+04  2.08337E+04 -2.27139E+03
  1.32099E+04  1.51204E+04 -1.41179E+03  2.14334E+04 -1.53142E+04  1.22712E+04 -2.18523E+04 -4.61629E+03
 -1.57910E+04 -1.94027E+04 -2.09503E+03 -2.60994E+04  1.18524E+04 -2.18251E+04  2.15655E+04 -1.13712E+04
  2.02949E+04  9.66701E+01  1.50165E+04  4.97649E+03  8.42351E+03  1.21569E+03  1.13080E+04 -2.32173E+03
  1.98052E+04  2.67417E+03  2.28395E+04  1.72618E+04  1.52367E+04  3.45760E+04 -2.87320E+03  3.97123E+04
 -2.30911E+04  3.31721E+04 -3.72945E+04  1.70617E+04 -4.02745E+04 -2.74610E+03 -3.28680E+04 -2.34597E+04
 -1.33937E+04 -3.25993E+04  1.16130E+04 -2.94275E+04  2.51893E+04 -1.41689E+04  2.21256E+04  7.02814E+03
  7.85941E+03  1.67575E+04 -1.05944E+04  1.44882E+04 -1.85261E+04  2.30094E+03 -1.42067E+04 -1.13974E+04
 -2.36556E+02 -1.78744E+04  9.26090E+03 -1.31430E+04  1.18679E+04 -1.41187E+03  2.72563E+03  7.82936E+03
 -7.89998E+03  3.42599E+03 -7.86177E+03 -6.32696E+03 -1.31382E+03 -1.65079E+04  1.08868E+04 -1.75329E+04
  2.03488E+04 -9.59459E+03  2.29182E+04  3.31346E+03  1.97796E+04  1.61804E+04  9.20862E+03  2.55797E+04
 -4.34492E+03  2.74604E+04 -1.75493E+04  1.69921E+04 -2.00443E+04  3.89256E+03 -1.36801E+04 -5.03831E+03
 -6.00833E+03 -6.16765E+03 -6.38390E+02  8.65673E+02 -2.53448E+03  3.33477E+03 -6.49319E+03  5.10141E+03
 -1.26865E+04 -9.47466E+02 -1.31937E+04 -1.05737E+04 -5.12061E+03 -1.74799E+04  5.62130E+03 -1.39892E+04
  1.12040E+04 -5.87442E+03  8.18499E+03  3.99301E+03 -8.81815E+01  5.21797E+03 -6.72462E+03 -5.21046E+02
 -6.47951E+03 -8.94951E+03 -9.99400E+02 -1.37898E+04  7.60978E+03 -1.43278E+04  1.71540E+04 -8.03461E+03
  1.99654E+04  1.93892E+03  1.49261E+04  1.21373E+04  3.11847E+03  1.58524E+04 -8.69703E+03  1.37507E+04
 -1.12267E+04  4.37359E+03 -5.49564E+03 -3.28124E+03  1.99042E+03 -3.94383E+03  7.40676E+03 -1.00249E+03
  6.75776E+03  5.67768E+03  1.30754E+03  1.10188E+04 -8.22185E+03  1.07612E+04 -1.38149E+04  2.55960E+03
 -8.82689E+03 -6.94639E+03  3.01730E+02 -1.18514E+04  7.28276E+03 -5.91141E+03  7.56115E+03  3.02085E+03
  1.77843E+03  8.24688E+03 -7.04584E+03  9.50218E+03 -1.11101E+04  4.33118E+03 -1.18508E+04 -3.66328E+03
 -6.88918E+03 -1.32068E+04  3.34702E+03 -1.52450E+04  1.24044E+04 -9.02010E+03  1.40913E+04  2.59094E+03
  8.43535E+03  1.09502E+04 -1.48757E+03  1.36460E+04 -1.00890E+04  7.47294E+03 -1.08941E+04 -1.34001E+03
 -9.45849E+03 -9.17324E+03 -1.48378E+03 -1.01639E+04  5.15519E+03 -8.14444E+03  6.86734E+03 -3.45732E+03
  4.10575E+03  1.49656E+03 -4.91460E+02  1.49524E+03 -6.27767E+02 -2.69424E+03  2.24312E+03 -6.39835E+03
  9.33331E+03 -3.77716E+03  1.32565E+04  1.54124E+03  1.27997E+04  8.94998E+03  9.00340E+03  1.67224E+04
 -4.18500E+03  1.96791E+04 -1.67697E+04  1.43065E+04 -2.12576E+04  3.00024E+03 -1.68255E+04 -7.77099E+03
 -8.78652E+03 -1.41870E+04 -2.03625E+02 -1.19859E+04  4.22060E+03 -6.79929E+03  4.43747E+03 -4.41998E+03
  3.14962E+03 -2.64171E+03  3.46988E+03 -3.71682E+03  5.55495E+03 -2.83742E+03  6.80999E+03 -6.37485E+02
  8.96205E+03  2.08405E+03  4.77891E+03  7.59125E+03 -2.34856E+03  9.07675E+03 -9.25774E+03  7.03066E+03
 -1.15092E+04 -1.17852E+03 -7.22917E+03 -8.52899E+03 -9.63547E+02 -1.27205E+04  7.31549E+03 -1.25868E+04
  1.32892E+04 -6.85896E+03  1.56587E+04  1.98940E+03  1.12486E+04  1.11387E+04  1.56176E+03  1.42581E+04
 -5.70112E+03  1.19233E+04 -8.12091E+03  4.20373E+03 -5.61179E+03 -1.50378E+03 -2.26186E+03 -1.19245E+03
 -1.46650E+03 -2.83898E+02 -1.71842E+03  2.35917E+03 -5.18690E+03  2.13740E+03 -8.48469E+03 -1.15911E+03
 -5.50168E+03 -8.39950E+03  2.14802E+01 -1.14507E+04  7.17000E+03 -1.08970E+04  1.18205E+04 -3.19565E+03
  1.15839E+04  5.74986E+03  5.51918E+03  1.04498E+04 -2.34781E+03  1.19217E+04 -8.46649E+03  7.53068E+03
 -1.06076E+04  6.67281E+02 -8.20069E+03 -6.90440E+03 -8.54677E+02 -9.23825E+03  5.02590E+03 -7.17381E+03
  7.16502E+03 -2.71523E+03  4.78506E+03  2.13347E+03  1.89164E+03  3.24039E+03  1.11631E+03  1.80219E+03
  2.09138E+03  1.13993E+03  2.97415E+03  1.45789E+03  3.22062E+03  4.28780E+03  3.06552E+03  5.48093E+03
 -2.54111E+03  8.93798E+03 -7.90858E+03  9.05166E+03 -1.14777E+04  2.83238E+03 -1.21583E+04 -4.52730E+03
 -5.57592E+03 -1.16757E+04  1.61314E+03 -1.29396E+04  6.76369E+03 -8.02051E+03  9.39794E+03 -2.37329E+03
  7.07105E+03  4.49125E+03  1.79873E+03  6.47334E+03 -3.16121E+03  4.16287E+03 -4.19103E+03 -6.36022E+02
 -2.24393E+03 -4.64888E+03  2.59488E+03 -5.02798E+03  4.49296E+03 -2.32831E+03  4.82650E+03  1.28569E+03
  2.81276E+03  2.36886E+03  1.21287E+03  1.87876E+03 -9.52915E+02  1.90533E+03  1.83008E+03 -2.98985E+02
  1.63566E+03 -8.82398E+02  5.06266E+03  1.91395E+03  2.13538E+03  6.32354E+03 -8.35475E+02  8.53028E+03
 -5.65123E+03  5.23976E+03 -7.14840E+03  1.64883E+03 -6.31101E+03 -2.69960E+03 -2.47467E+03 -4.26932E+03
  7.42448E+02 -4.23243E+03  2.93735E+03 -1.91754E+03  2.43244E+03  2.24148E+03 -1.13050E+03  3.69325E+03
 -4.73515E+03  2.32627E+03 -4.81213E+03 -2.60279E+03 -3.00419E+03 -5.88078E+03  8.43518E+02 -6.09283E+03
  3.51751E+03 -3.31829E+03  4.21030E+03 -3.24074E+02  3.93752E+03  1.47966E+03  9.46475E+02  3.47268E+03
 -1.96736E+03  8.04650E+02 -2.59773E+03 -1.79276E+03  1.22003E+03 -4.73630E+03  5.57077E+03 -3.93052E+03
  6.77868E+03  4.82215E+02  6.99120E+03  4.93146E+03  2.36753E+03  7.34341E+03 -2.34935E+03  6.88658E+03
 -6.01991E+03  2.83787E+03 -6.33073E+03 -9.87062E+02 -3.47811E+03 -4.55341E+03  1.27696E+03 -4.31768E+03
  4.58376E+03 -2.12796E+03  3.89100E+03  2.22554E+03  1.28102E+03  3.86814E+03 -2.63464E+02  3.29382E+03
 -1.82300E+03  2.82255E+03 -1.55472E+03  5.61804E+02 -7.00248E+02  8.48358E+02 -1.39783E+03  1.54849E+03
 -1.95131E+03  2.75507E+03 -4.91337E+03  2.21780E+03 -7.17075E+03 -1.49211E+02 -8.70838E+03 -4.53710E+03
 -4.26204E+03 -9.69046E+03  2.07176E+03 -1.09896E+04  6.48385E+03 -8.24077E+03  1.06292E+04 -3.55513E+03
  9.40243E+03  1.52853E+03  5.84287E+03  6.27683E+03  1.69685E+01  7.20726E+03 -3.30507E+03  5.57942E+03
 -4.45951E+03  2.15124E+03 -2.20547E+03 -8.19364E+02 -9.95410E+02 -7.13428E+02 -4.25730E+02  2.30389E+02
 -1.40865E+03  3.35968E+02 -1.34882E+03 -3.06731E+02 -1.62036E+02 -2.05440E+03 -3.69926E+02 -2.67017E+03
  3.64394E+03 -2.01764E+03  4.23925E+03 -1.09375E+02  5.36880E+03  4.06931E+03  1.33401E+03  6.90131E+03
 -3.52521E+03  8.28207E+03 -7.72080E+03  5.06424E+03 -8.81792E+03 -9.23245E+02 -6.66273E+03 -5.38546E+03
 -3.12102E+03 -7.02275E+03  1.78172E+03 -6.72696E+03  4.47082E+03 -4.15948E+03  4.49450E+03  7.42406E+01
  2.84682E+03  2.35708E+03  6.23732E+01  1.77293E+03 -1.81943E+03 -2.33669E+02 -7.11337E+01 -1.74350E+03
  2.09689E+03 -1.03654E+03  2.48011E+03  1.07471E+03  1.84340E+03  2.74968E+03  7.23325E+01  3.75135E+03
 -2.93728E+03  3.60469E+03 -4.33729E+03  2.58419E+02 -4.09642E+03 -3.30223E+03 -5.83441E+02 -6.12923E+03
  3.33360E+03 -5.03170E+03  5.75888E+03 -9.34064E+02  5.33256E+03  1.05774E+03  3.14404E+03  4.52762E+03
  5.87661E+02  4.21851E+03 -2.01854E+03  3.73237E+03 -3.14497E+03  2.28215E+03 -2.59647E+03  6.04096E+02
 -1.37028E+03  5.76514E+01 -1.50163E+03  4.81954E+02 -2.47838E+03  5.35794E+02 -3.91401E+03 -1.25099E+03
 -3.65804E+03 -1.97334E+03 -9.12703E+02 -4.79261E+03  2.60313E+03 -4.98847E+03  4.10367E+03 -2.30928E+03
  4.60339E+03  5.28874E+02  2.71960E+03  2.92908E+03 -1.53376E+02  4.74385E+03 -3.67526E+03  3.01046E+03
