 $NMID ID='MM_0lb_SNR800_13hz_g45_9.RAW', FMTDAT='(8E13.5)'
 TRAMP=1., VOLUME=1. $END
  3.09791E+05  3.06473E+02  3.37592E+05  2.50608E+05  8.47358E+04  3.38035E+05 -1.32431E+05  2.51154E+05
 -1.90674E+05  8.30528E+04 -1.11762E+05 -3.25754E+04  8.57010E+02 -5.06587E+04  5.33983E+04 -2.78702E+02
  3.55461E+04  5.26885E+04 -1.69064E+04  7.55376E+04 -6.09194E+04  6.39727E+04 -8.39865E+04  3.20830E+04
 -8.11034E+04 -1.11752E+04 -5.74691E+04 -5.09474E+04 -1.51155E+04 -6.98047E+04  2.74022E+04 -4.58280E+04
  4.00859E+04  3.77642E+03  1.63471E+04  4.78339E+04 -3.43636E+04  4.73066E+04 -6.70277E+04 -2.48564E+02
 -5.33657E+04 -5.70883E+04 -6.63902E+03 -7.74136E+04  3.43187E+04 -5.53525E+04  4.79184E+04 -1.72745E+04
  4.37366E+04  1.10525E+04  3.22819E+04  2.58295E+04  1.55092E+04  2.94615E+04 -5.49316E+03  2.73058E+04
 -2.25032E+04  1.26671E+04 -1.84254E+04 -5.22965E+03  5.34966E+03 -7.61896E+03  2.19883E+04  1.24927E+04
  7.65682E+03  3.53784E+04 -3.26637E+04  3.56397E+04 -6.35006E+04  2.32790E+03 -5.70526E+04 -4.27454E+04
 -1.25163E+04 -6.32720E+04  3.96492E+04 -4.56115E+04  5.84122E+04 -2.16463E+03  3.42035E+04  3.28172E+04
 -5.91294E+03  3.62057E+04 -2.99555E+04  1.62884E+04 -3.08023E+04 -4.43921E+03 -1.68773E+04 -1.09193E+04
 -8.68270E+03 -1.33376E+04 -6.03827E+02 -1.79444E+04  7.43434E+03 -2.28719E+04  1.54375E+04 -1.36148E+04
  1.11798E+04  5.17923E+03 -8.55794E+03  1.28168E+04 -2.16890E+04 -4.80298E+03 -8.09650E+03 -3.38948E+04
  2.25654E+04 -4.36814E+04  4.83844E+04 -2.00425E+04  4.52481E+04  1.96904E+04  1.57855E+04  4.44408E+04
 -1.56816E+04  3.37206E+04 -2.56746E+04  2.08657E+03 -9.94031E+03 -2.80529E+04  2.09535E+04 -3.39962E+04
  4.13435E+04 -9.53396E+03  3.62495E+04  2.36070E+04  1.81728E+04  4.69312E+04 -7.81234E+03  5.10635E+04
 -3.20689E+04  3.40557E+04 -4.23068E+04  9.48394E+03 -4.30319E+04 -1.66285E+04 -2.36827E+04 -3.83469E+04
  7.07315E+03 -3.82119E+04  3.17160E+04 -1.53008E+04  2.97814E+04  1.10443E+04  4.22889E+03  1.89088E+04
 -1.32280E+04  8.62520E+03 -1.02239E+04 -7.54099E+03  6.12120E+03 -1.06861E+04  1.79559E+04  5.84643E+03
  1.35123E+04  2.20447E+04 -6.24913E+03  2.53269E+04 -2.24350E+04  1.18076E+04 -2.83947E+04 -4.44092E+03
 -2.12947E+04 -1.74462E+04 -8.69279E+03 -2.10787E+04  4.16385E+03 -2.02119E+04  1.63422E+04 -1.87745E+04
  2.68358E+04 -1.29823E+04  3.31499E+04  3.17945E+03  2.44031E+04  2.05895E+04  4.51768E+03  3.68936E+04
 -1.76169E+04  3.03154E+04 -2.81841E+04  1.07480E+04 -2.10471E+04 -1.03492E+04 -4.29795E+03 -1.35194E+04
  1.77371E+03 -3.09308E+03 -5.02405E+03  6.74628E+03 -1.66833E+04  4.95682E+03 -1.67263E+04 -7.21938E+03
 -1.03288E+04 -1.94201E+04  5.18443E+03 -2.36637E+04  1.54014E+04 -1.68515E+04  1.88466E+04 -1.41607E+03
  1.19444E+04  1.34996E+04 -1.16205E+03  1.96848E+04 -1.34240E+04  1.10058E+04 -1.98584E+04 -4.04973E+03
 -1.42979E+04 -1.76855E+04 -1.79330E+03 -2.36392E+04  1.06098E+04 -1.92156E+04  1.98020E+04 -9.81107E+03
  1.81794E+04  4.05013E+02  1.32660E+04  4.60222E+03  7.05757E+03  8.31224E+02  9.73104E+03 -1.84592E+03
  1.79275E+04  2.45630E+03  2.01984E+04  1.53494E+04  1.30169E+04  3.10670E+04 -2.76767E+03  3.49515E+04
 -2.04421E+04  2.84821E+04 -3.26755E+04  1.45160E+04 -3.45009E+04 -2.58167E+03 -2.88255E+04 -2.00226E+04
 -1.20356E+04 -2.86706E+04  9.68790E+03 -2.55179E+04  2.23559E+04 -1.30693E+04  1.96934E+04  5.58313E+03
  7.54412E+03  1.49042E+04 -9.40562E+03  1.27090E+04 -1.65351E+04  2.82405E+03 -1.27104E+04 -9.94489E+03
 -6.00355E+02 -1.59488E+04  8.60211E+03 -1.20157E+04  1.07223E+04 -1.36799E+03  2.35983E+03  6.72208E+03
 -6.99865E+03  2.45073E+03 -6.31660E+03 -5.95777E+03 -2.26131E+02 -1.40001E+04  9.55766E+03 -1.47801E+04
  1.74194E+04 -7.98070E+03  1.89460E+04  3.10496E+03  1.64650E+04  1.39440E+04  7.36766E+03  2.11569E+04
 -3.43902E+03  2.32402E+04 -1.48767E+04  1.43979E+04 -1.67363E+04  3.54142E+03 -1.21335E+04 -4.01625E+03
 -5.58498E+03 -5.32455E+03 -5.40234E+02  8.24074E+02 -2.40105E+03  3.20944E+03 -5.43973E+03  4.22032E+03
 -1.07482E+04 -7.47409E+02 -1.16461E+04 -9.41250E+03 -4.94346E+03 -1.54265E+04  4.78966E+03 -1.19579E+04
  9.81432E+03 -5.01406E+03  6.89920E+03  2.97474E+03  1.21537E+01  4.39482E+03 -5.63712E+03  1.35181E+02
 -5.66998E+03 -7.26378E+03 -5.43301E+02 -1.10710E+04  6.39976E+03 -1.20899E+04  1.45979E+04 -6.29646E+03
  1.73085E+04  1.28269E+03  1.26351E+04  9.91524E+03  2.25492E+03  1.34782E+04 -7.07901E+03  1.17649E+04
 -9.38811E+03  3.25973E+03 -4.74382E+03 -2.41402E+03  1.62501E+03 -3.09642E+03  6.67336E+03 -9.05516E+02
  5.80615E+03  5.04495E+03  1.27377E+03  9.36656E+03 -6.48366E+03  8.77287E+03 -1.15954E+04  2.24848E+03
 -7.66713E+03 -5.41763E+03  5.10993E+02 -9.81171E+03  6.36925E+03 -4.59743E+03  6.15348E+03  2.20947E+03
  1.17396E+03  6.27877E+03 -6.02177E+03  7.85336E+03 -9.04941E+03  3.48626E+03 -8.43568E+03 -2.98255E+03
 -5.00269E+03 -1.05997E+04  2.56437E+03 -1.22557E+04  1.01547E+04 -7.30735E+03  1.11126E+04  1.79102E+03
  6.97371E+03  8.98570E+03 -3.74190E+02  1.09789E+04 -7.75061E+03  6.05751E+03 -8.50354E+03 -9.74607E+02
 -8.01256E+03 -7.78413E+03 -1.29114E+03 -8.27290E+03  4.16389E+03 -6.91615E+03  4.99312E+03 -3.10742E+03
  3.81303E+03  1.18435E+03 -9.22488E+02  1.40863E+03  1.09545E+02 -1.66939E+03  1.40724E+03 -4.28224E+03
  7.02368E+03 -2.43386E+03  9.96276E+03  1.38769E+03  1.00565E+04  6.76543E+03  7.85501E+03  1.31965E+04
 -2.67548E+03  1.58907E+04 -1.31184E+04  1.18559E+04 -1.67727E+04  2.19933E+03 -1.34358E+04 -5.64312E+03
 -6.95696E+03 -1.13407E+04 -2.10784E+02 -9.48712E+03  3.54181E+03 -4.85992E+03  3.25987E+03 -3.48209E+03
  2.40368E+03 -2.12371E+03  3.06763E+03 -3.05121E+03  4.53931E+03 -2.14325E+03  5.62940E+03 -4.81876E+02
  7.20312E+03  1.93015E+03  3.07547E+03  6.14728E+03 -2.20201E+03  6.56290E+03 -7.64990E+03  5.51088E+03
 -9.10416E+03 -1.22040E+03 -5.28203E+03 -6.35048E+03 -1.84439E+02 -9.76116E+03  5.52039E+03 -9.71712E+03
  9.63053E+03 -5.69703E+03  1.24226E+04  1.33758E+03  8.76471E+03  8.37327E+03  1.26564E+03  1.11046E+04
 -4.71427E+03  9.55382E+03 -6.58126E+03  2.82394E+03 -4.25428E+03 -1.51587E+03 -1.26696E+03 -1.08161E+03
 -4.80441E+02  9.13777E+01 -1.46628E+03  2.46387E+03 -4.23997E+03  1.71908E+03 -6.65703E+03 -8.82601E+02
 -4.34152E+03 -6.78483E+03  2.69364E+02 -9.05356E+03  5.45556E+03 -8.08544E+03  8.10543E+03 -2.24693E+03
  8.60252E+03  4.21982E+03  3.91693E+03  7.67249E+03 -1.62974E+03  8.94160E+03 -5.99888E+03  5.74074E+03
 -8.04890E+03  5.98577E+02 -6.51599E+03 -5.28754E+03 -5.96287E+02 -7.01466E+03  3.39486E+03 -5.37258E+03
  6.03683E+03 -1.94153E+03  3.95396E+03  1.41017E+03  1.32341E+03  2.69336E+03  7.47977E+02  1.24387E+03
  2.19238E+03  6.41835E+02  2.29612E+03  1.40032E+03  2.56180E+03  3.19207E+03  2.33925E+03  4.36930E+03
 -1.97362E+03  6.61981E+03 -5.77113E+03  7.24236E+03 -8.30783E+03  1.91249E+03 -8.81323E+03 -2.74678E+03
 -4.27860E+03 -8.57638E+03  1.25002E+03 -9.42178E+03  5.02133E+03 -6.26815E+03  7.00998E+03 -1.55874E+03
  5.37177E+03  3.35406E+03  8.84183E+02  4.71304E+03 -2.31494E+03  3.26540E+03 -2.85141E+03 -3.67470E+02
 -1.48626E+03 -3.63197E+03  2.13845E+03 -3.41249E+03  3.12237E+03 -2.05759E+03  3.35664E+03  6.40172E+02
  1.80282E+03  1.65956E+03  9.80047E+02  1.00514E+03 -5.46859E+02  1.40392E+03  1.82599E+03 -2.47884E+02
  8.31675E+02 -5.37298E+02  3.61830E+03  1.37710E+03  1.33136E+03  4.62529E+03 -6.72848E+02  6.32406E+03
 -4.01761E+03  3.52247E+03 -5.25617E+03  8.19344E+02 -5.00047E+03 -1.81772E+03 -1.48354E+03 -2.95219E+03
  4.82248E+02 -3.20886E+03  2.24101E+03 -1.24030E+03  1.54329E+03  1.82149E+03 -1.00206E+03  2.70971E+03
 -3.56069E+03  1.46472E+03 -3.54336E+03 -2.17809E+03 -1.64782E+03 -4.44369E+03  6.09067E+02 -4.26812E+03
  1.93163E+03 -2.30992E+03  3.10074E+03 -4.71771E+02  2.92183E+03  1.21294E+03  1.81640E+02  2.18804E+03
 -1.44196E+03  3.05817E+02 -2.03219E+03 -1.17614E+03  9.45061E+02 -3.20086E+03  3.85088E+03 -2.81876E+03
  4.25018E+03  2.59101E+02  5.17902E+03  2.94093E+03  1.67586E+03  5.05095E+03 -1.40316E+03  4.81593E+03
 -3.87395E+03  1.74313E+03 -4.32539E+03 -4.41952E+02 -2.13185E+03 -3.56099E+03  7.92423E+02 -2.65977E+03
  3.49408E+03 -1.52101E+03  2.27300E+03  1.34011E+03  6.48001E+02  2.99686E+03 -2.46193E+02  2.43179E+03
 -1.62957E+03  1.73794E+03 -1.16965E+03  4.61287E+02 -5.64486E+02  9.58812E+02 -1.27692E+03  1.02391E+03
 -1.28442E+03  2.09762E+03 -3.62942E+03  1.60460E+03 -5.13054E+03  5.19609E+02 -5.90007E+03 -3.57507E+03
 -2.78988E+03 -6.52045E+03  9.09183E+02 -7.62015E+03  4.23211E+03 -6.01335E+03  6.76744E+03 -2.13404E+03
  6.38838E+03  1.21389E+03  4.10300E+03  4.72379E+03 -1.24754E+01  4.71655E+03 -1.99859E+03  3.86430E+03
 -2.81065E+03  1.77788E+03 -1.68340E+03 -6.45107E+02 -7.58399E+02 -2.90579E+02 -5.57239E+02  1.41615E+02
 -1.68243E+03  4.83241E+02 -1.51784E+03  4.13869E+01 -2.95513E+02 -1.23040E+03 -3.33667E+02 -1.95841E+03
  2.66622E+03 -1.79649E+03  2.75932E+03  1.56562E+02  3.27911E+03  2.65178E+03  3.78612E+02  4.59621E+03
 -2.46650E+03  5.69783E+03 -5.09697E+03  3.40321E+03 -5.92191E+03 -3.95386E+02 -4.28512E+03 -3.68631E+03
 -1.98869E+03 -4.50781E+03  1.09455E+03 -4.51939E+03  3.14878E+03 -2.16163E+03  2.96432E+03  9.10080E+01
  1.90100E+03  1.21914E+03  3.11014E+01  1.38828E+03 -9.19263E+02  4.40503E+01  1.57688E+02 -1.20015E+03
  1.63621E+03 -4.08911E+02  1.67831E+03  4.85995E+02  8.56811E+02  1.54770E+03  2.69243E+02  2.44683E+03
 -1.87041E+03  1.88713E+03 -2.93876E+03  2.62654E+02 -2.69292E+03 -2.14864E+03 -2.72572E+02 -3.82426E+03
  2.11084E+03 -3.31017E+03  3.43398E+03 -8.52611E+02  3.25005E+03  3.16292E+02  2.29225E+03  2.87194E+03
  3.83983E+02  2.81366E+03 -1.12420E+03  2.55788E+03 -1.79970E+03  1.61455E+03 -1.49628E+03  2.01598E+02
 -8.92980E+02 -2.33989E+02 -8.64728E+02  4.08594E+02 -1.79916E+03  7.88981E+02 -2.63817E+03 -4.79473E+02
 -2.27601E+03 -1.36078E+03 -8.65012E+02 -3.01312E+03  1.57116E+03 -3.37181E+03  2.59057E+03 -1.45793E+03
  3.14329E+03  3.92918E+02  1.24838E+03  1.99234E+03  9.17408E+01  2.83949E+03 -2.06534E+03  1.85632E+03
