 $NMID ID='MM_0lb_SNR800_7hz_g60_47.RAW', FMTDAT='(8E13.5)'
 TRAMP=1., VOLUME=1. $END
  3.10063E+05  7.50724E+01  3.37693E+05  2.50567E+05  8.46618E+04  3.39187E+05 -1.33024E+05  2.52347E+05
 -1.91037E+05  8.36915E+04 -1.12819E+05 -3.23022E+04  4.29739E+02 -5.06310E+04  5.41371E+04 -1.16573E+03
  3.56728E+04  5.26538E+04 -1.67513E+04  7.66601E+04 -6.12587E+04  6.49415E+04 -8.63693E+04  3.31599E+04
 -8.30973E+04 -1.17214E+04 -5.89225E+04 -5.29708E+04 -1.53763E+04 -7.18485E+04  2.86672E+04 -4.75142E+04
  4.20793E+04  3.81853E+03  1.68273E+04  4.92740E+04 -3.52229E+04  4.88421E+04 -6.84297E+04  3.86504E+02
 -5.54893E+04 -5.82719E+04 -7.43271E+03 -7.99321E+04  3.52184E+04 -5.78103E+04  5.04884E+04 -1.88816E+04
  4.62809E+04  1.16165E+04  3.39177E+04  2.71827E+04  1.58663E+04  3.13832E+04 -6.47590E+03  2.78347E+04
 -2.27763E+04  1.14539E+04 -1.80072E+04 -6.18370E+03  8.35292E+03 -7.47299E+03  2.43025E+04  1.45847E+04
  6.44291E+03  3.87063E+04 -3.48249E+04  3.75793E+04 -6.70801E+04  2.13465E+03 -5.99161E+04 -4.51842E+04
 -1.30185E+04 -6.73310E+04  4.24985E+04 -4.87947E+04  6.32532E+04 -2.45494E+03  3.80132E+04  3.53226E+04
 -5.06592E+03  4.18150E+04 -3.27079E+04  2.02856E+04 -3.50416E+04 -3.08946E+03 -2.09229E+04 -1.25772E+04
 -1.02450E+04 -1.65182E+04 -2.11591E+02 -2.11974E+04  9.13698E+03 -2.35589E+04  1.64284E+04 -1.21445E+04
  9.65843E+03  6.74171E+03 -1.17619E+04  1.30292E+04 -2.46228E+04 -8.22647E+03 -9.23526E+03 -3.99302E+04
  2.66304E+04 -4.89523E+04  5.44702E+04 -2.17490E+04  5.09813E+04  2.19212E+04  1.85067E+04  4.89209E+04
 -1.71705E+04  3.76687E+04 -2.88415E+04  3.12782E+03 -1.27361E+04 -3.05939E+04  2.19153E+04 -3.91082E+04
  4.67772E+04 -1.24665E+04  4.32980E+04  2.56450E+04  2.33001E+04  5.36902E+04 -8.44276E+03  6.00172E+04
 -3.72595E+04  4.09829E+04 -5.07401E+04  1.19183E+04 -5.03395E+04 -1.98777E+04 -2.84757E+04 -4.44111E+04
  7.87726E+03 -4.43962E+04  3.58649E+04 -1.86210E+04  3.39334E+04  1.10123E+04  5.73573E+03  2.21091E+04
 -1.43391E+04  1.06285E+04 -1.17612E+04 -7.29142E+03  5.81118E+03 -1.14221E+04  1.92598E+04  4.97104E+03
  1.57606E+04  2.35711E+04 -4.99552E+03  2.80634E+04 -2.38040E+04  1.57622E+04 -3.38265E+04 -2.01435E+03
 -2.82219E+04 -1.86177E+04 -1.40582E+04 -2.75954E+04  4.98374E+03 -2.95243E+04  2.24735E+04 -2.57082E+04
  3.60416E+04 -1.54581E+04  4.09501E+04  5.75627E+03  2.92469E+04  2.72700E+04  4.78138E+03  4.47418E+04
 -2.09676E+04  3.62477E+04 -3.24963E+04  1.24875E+04 -2.35650E+04 -1.06578E+04 -5.43907E+03 -1.29994E+04
  2.68383E+02 -3.61293E+01 -9.18123E+03  9.37999E+03 -2.26086E+04  4.83887E+03 -2.24642E+04 -1.12736E+04
 -1.34062E+04 -2.62304E+04  6.44622E+03 -3.06008E+04  2.03593E+04 -2.18461E+04  2.56617E+04 -1.68466E+03
  1.59983E+04  1.82711E+04 -1.39720E+03  2.57434E+04 -1.88174E+04  1.50104E+04 -2.65094E+04 -5.23729E+03
 -1.91777E+04 -2.31288E+04 -2.65305E+03 -3.07481E+04  1.34064E+04 -2.62107E+04  2.54013E+04 -1.37261E+04
  2.51493E+04 -6.76206E+02  1.81134E+04  5.40918E+03  1.06595E+04  1.70543E+03  1.32197E+04 -2.70492E+03
  2.54762E+04  2.13679E+03  2.96080E+04  2.08239E+04  2.07127E+04  4.25715E+04 -2.66410E+03  5.04812E+04
 -2.88551E+04  4.33344E+04 -4.81479E+04  2.29270E+04 -5.18979E+04 -3.70755E+03 -4.14381E+04 -3.02295E+04
 -1.58113E+04 -4.32727E+04  1.57953E+04 -3.76487E+04  3.18652E+04 -1.72195E+04  2.75902E+04  9.63871E+03
  8.82111E+03  2.07949E+04 -1.35620E+04  1.77638E+04 -2.30189E+04  2.92456E+03 -1.73547E+04 -1.47506E+04
 -7.33756E+02 -2.19300E+04  1.20861E+04 -1.62119E+04  1.52548E+04 -1.62842E+03  3.93153E+03  1.00039E+04
 -1.05645E+04  5.75419E+03 -1.14425E+04 -7.84225E+03 -2.61723E+03 -2.04353E+04  1.35153E+04 -2.38563E+04
  2.67419E+04 -1.41440E+04  3.14208E+04  3.63504E+03  2.79591E+04  2.19783E+04  1.25483E+04  3.47971E+04
 -7.01520E+03  3.72266E+04 -2.50402E+04  2.27670E+04 -2.72216E+04  4.33199E+03 -1.83836E+04 -7.74040E+03
 -7.47669E+03 -9.14215E+03 -1.72976E+02  1.10280E+02 -3.54334E+03  4.40539E+03 -8.65168E+03  6.48655E+03
 -1.68499E+04 -1.39616E+03 -1.74774E+04 -1.36615E+04 -7.26965E+03 -2.27706E+04  7.46117E+03 -1.87645E+04
  1.50136E+04 -7.68732E+03  1.05350E+04  5.06560E+03 -8.45341E+02  6.91165E+03 -9.63695E+03 -2.46107E+02
 -8.69940E+03 -1.22449E+04 -1.23420E+03 -1.85855E+04  1.07920E+04 -1.96919E+04  2.40473E+04 -1.06957E+04
  2.83155E+04  2.32946E+03  2.01593E+04  1.78089E+04  3.53341E+03  2.34104E+04 -1.10387E+04  1.86391E+04
 -1.47318E+04  4.75226E+03 -7.77816E+03 -3.61660E+03  2.66895E+03 -5.32071E+03  9.57868E+03 -1.31108E+03
  8.83287E+03  8.64785E+03  1.10492E+03  1.51500E+04 -1.10649E+04  1.41021E+04 -1.84890E+04  3.25166E+03
 -1.28511E+04 -1.03791E+04  2.13098E+02 -1.62728E+04  1.14452E+04 -8.34550E+03  1.19300E+04  4.16780E+03
  3.04935E+03  1.31965E+04 -9.68845E+03  1.45166E+04 -1.72942E+04  6.50532E+03 -1.78270E+04 -6.45853E+03
 -9.92833E+03 -2.02182E+04  4.96442E+03 -2.27850E+04  1.94953E+04 -1.34424E+04  2.12947E+04  4.23109E+03
  1.25005E+04  1.66195E+04 -2.71436E+03  2.02804E+04 -1.42717E+04  1.04633E+04 -1.63365E+04 -1.67821E+03
 -1.26946E+04 -1.29779E+04 -1.82763E+03 -1.51331E+04  7.94023E+03 -1.14270E+04  1.05098E+04 -3.87796E+03
  5.76836E+03  2.68073E+03 -1.51228E+03  2.27679E+03 -1.64305E+03 -4.31512E+03  3.48425E+03 -9.67448E+03
  1.51622E+04 -7.23054E+03  2.10036E+04  2.43038E+03  2.01481E+04  1.47852E+04  1.27810E+04  2.70629E+04
 -6.60629E+03  3.07466E+04 -2.55310E+04  2.28609E+04 -3.30898E+04  4.24941E+03 -2.65577E+04 -1.18028E+04
 -1.32708E+04 -2.15838E+04 -5.07431E+02 -1.90643E+04  6.24422E+03 -1.14483E+04  6.99996E+03 -6.63013E+03
  4.86256E+03 -3.84582E+03  5.17481E+03 -4.38845E+03  6.78414E+03 -4.60640E+03  1.00951E+04 -1.99379E+03
  1.35292E+04  3.06662E+03  8.39832E+03  1.19003E+04 -2.15954E+03  1.57542E+04 -1.47055E+04  1.18432E+04
 -1.89358E+04 -1.26723E+03 -1.32067E+04 -1.41032E+04 -2.46790E+03 -2.12205E+04  1.11993E+04 -2.04907E+04
  2.17818E+04 -1.15836E+04  2.52214E+04  3.58813E+03  1.70206E+04  1.86130E+04  2.57517E+03  2.35759E+04
 -1.03123E+04  1.87888E+04 -1.37834E+04  5.76588E+03 -9.78827E+03 -2.00361E+03 -4.45689E+03 -3.07695E+03
 -2.04799E+03 -4.26064E+02 -3.02185E+03  3.47412E+03 -7.69159E+03  3.19199E+03 -1.29517E+04 -1.81098E+03
 -1.02935E+04 -1.26278E+04 -3.12202E+02 -1.91808E+04  1.18756E+04 -1.76796E+04  2.04479E+04 -5.79635E+03
  1.93741E+04  9.26573E+03  9.28835E+03  1.83071E+04 -4.11194E+03  1.97861E+04 -1.48139E+04  1.28514E+04
 -1.90352E+04 -3.04158E+00 -1.45417E+04 -1.17513E+04 -1.69820E+03 -1.67881E+04  8.91399E+03 -1.24670E+04
  1.30072E+04 -3.99636E+03  8.57950E+03  3.53958E+03  3.23969E+03  5.57353E+03  1.45347E+03  2.97189E+03
  3.08360E+03  8.06142E+02  4.65833E+03  2.41111E+03  6.06164E+03  6.57238E+03  4.73174E+03  1.10262E+04
 -3.97027E+03  1.62978E+04 -1.46412E+04  1.62683E+04 -2.16002E+04  4.04615E+03 -2.16661E+04 -9.16049E+03
 -1.04760E+04 -2.11221E+04  2.82587E+03 -2.28497E+04  1.30376E+04 -1.44715E+04  1.68504E+04 -3.95186E+03
  1.28423E+04  7.24091E+03  3.13578E+03  1.18990E+04 -5.87758E+03  8.25987E+03 -8.63091E+03 -1.64493E+03
 -4.36457E+03 -8.68113E+03  4.86464E+03 -9.32713E+03  9.18950E+03 -4.79845E+03  8.28505E+03  2.29623E+03
  5.24824E+03  4.65789E+03  1.74910E+03  3.91999E+03 -1.39282E+03  3.15742E+03  1.17749E+03 -1.04014E+03
  3.73528E+03 -1.03640E+03  8.68302E+03  3.57299E+03  5.21999E+03  1.09874E+04 -1.45909E+03  1.43092E+04
 -1.04292E+04  1.08167E+04 -1.34938E+04  2.60007E+03 -1.20583E+04 -4.87575E+03 -4.89206E+03 -9.04131E+03
  7.83612E+02 -8.84334E+03  5.60627E+03 -3.84274E+03  4.65025E+03  4.20870E+03 -2.08998E+03  6.78898E+03
 -8.67567E+03  4.29667E+03 -1.04724E+04 -4.14492E+03 -5.71136E+03 -1.18418E+04  1.57150E+03 -1.23823E+04
  7.46119E+03 -7.23868E+03  9.17286E+03 -7.99289E+02  7.25733E+03  3.65864E+03  1.08215E+03  6.96666E+03
 -4.69466E+03  2.07093E+03 -5.18149E+03 -4.32540E+03  2.27610E+03 -1.00782E+04  1.11507E+04 -8.03035E+03
  1.43391E+04  1.30744E+03  1.32896E+04  9.90043E+03  4.04256E+03  1.51184E+04 -5.84070E+03  1.43885E+04
 -1.21966E+04  6.76780E+03 -1.28759E+04 -2.04852E+03 -7.10941E+03 -9.48963E+03  2.16073E+03 -9.25960E+03
  9.46234E+03 -4.30655E+03  7.91648E+03  3.60168E+03  2.75411E+03  7.75400E+03 -2.03954E+03  6.39579E+03
 -4.06503E+03  4.22694E+03 -3.38624E+03  1.95666E+03 -1.75529E+03  1.16898E+03 -2.46630E+03  2.65260E+03
 -3.64480E+03  5.86715E+03 -9.63128E+03  5.20812E+03 -1.48121E+04  4.48094E+01 -1.64019E+04 -9.88439E+03
 -9.28416E+03 -1.97798E+04  3.25761E+03 -2.29202E+04  1.46219E+04 -1.76168E+04  2.20765E+04 -6.80887E+03
  2.02326E+04  4.38242E+03  1.28033E+04  1.41015E+04  1.97419E+03  1.60140E+04 -6.23903E+03  1.17274E+04
 -8.73118E+03  4.45418E+03 -5.70048E+03 -1.49307E+03 -1.61077E+03 -1.78369E+03 -8.00866E+02 -4.11388E+02
 -2.55838E+03  7.37445E+02 -3.65303E+03 -4.50791E+02 -1.40801E+03 -3.55705E+03  7.41166E+02 -5.76269E+03
  6.98881E+03 -5.23087E+03  1.00384E+04 -7.06431E+00  1.09800E+04  9.00947E+03  3.36546E+03  1.62926E+04
 -7.16739E+03  1.82103E+04 -1.73375E+04  1.08113E+04 -1.98636E+04 -2.03222E+03 -1.43904E+04 -1.21127E+04
 -5.88084E+03 -1.68847E+04  4.02980E+03 -1.54757E+04  1.06882E+04 -8.60181E+03  1.14727E+04  5.63648E+02
  5.94988E+03  5.67702E+03 -1.10768E+03  4.56991E+03 -3.10711E+03 -6.26450E+02  2.86437E+02 -3.88110E+03
  5.47152E+03 -2.47415E+03  7.06908E+03  1.95829E+03  4.76230E+03  7.14414E+03 -2.38138E+02  8.75308E+03
 -7.34046E+03  7.47677E+03 -1.09374E+04  4.79024E+02 -9.65963E+03 -8.14711E+03 -1.70529E+03 -1.36821E+04
  7.60193E+03 -1.15992E+04  1.26645E+04 -3.84281E+03  1.31892E+04  4.25566E+03  7.34824E+03  1.02322E+04
  1.55907E+03  1.12182E+04 -4.95331E+03  9.15382E+03 -7.00368E+03  4.63707E+03 -5.73315E+03  8.97982E+02
 -3.35024E+03 -4.99671E+02 -2.97745E+03  1.80547E+03 -5.91049E+03  1.88175E+03 -8.39788E+03 -1.61117E+03
 -8.61202E+03 -6.44476E+03 -2.67720E+03 -1.09822E+04  4.56223E+03 -1.15598E+04  1.00456E+04 -6.24793E+03
  1.18679E+04  1.16101E+03  6.73185E+03  7.83595E+03 -1.43734E+03  1.13149E+04 -8.60541E+03  7.20415E+03
