 $NMID ID='MM_0lb_SNR800_13hz_g45_62.RAW', FMTDAT='(8E13.5)'
 TRAMP=1., VOLUME=1. $END
  3.09831E+05  4.37710E+02  3.37731E+05  2.50696E+05  8.46093E+04  3.38249E+05 -1.32715E+05  2.51537E+05
 -1.90054E+05  8.28269E+04 -1.11880E+05 -3.26778E+04  9.31724E+02 -5.04970E+04  5.38885E+04 -3.79367E+01
  3.52260E+04  5.27015E+04 -1.70737E+04  7.53290E+04 -6.03751E+04  6.35059E+04 -8.40541E+04  3.20152E+04
 -8.17288E+04 -1.16759E+04 -5.73433E+04 -5.15622E+04 -1.49468E+04 -6.97657E+04  2.75145E+04 -4.59234E+04
  4.01287E+04  3.76155E+03  1.63988E+04  4.79369E+04 -3.45470E+04  4.70553E+04 -6.69888E+04 -9.93635E+01
 -5.37154E+04 -5.70259E+04 -7.05835E+03 -7.70979E+04  3.40360E+04 -5.52098E+04  4.80817E+04 -1.72745E+04
  4.36213E+04  1.16000E+04  3.18967E+04  2.58155E+04  1.58796E+04  2.96090E+04 -5.24049E+03  2.70891E+04
 -2.21544E+04  1.21491E+04 -1.86128E+04 -4.74946E+03  5.57224E+03 -7.36545E+03  2.27082E+04  1.22085E+04
  7.40737E+03  3.53548E+04 -3.21302E+04  3.54810E+04 -6.35143E+04  1.94493E+03 -5.73242E+04 -4.32581E+04
 -1.24483E+04 -6.32844E+04  4.00458E+04 -4.57244E+04  5.86067E+04 -2.02079E+03  3.44236E+04  3.22142E+04
 -5.90352E+03  3.59375E+04 -3.03456E+04  1.61273E+04 -3.05649E+04 -4.37937E+03 -1.68027E+04 -1.08382E+04
 -8.49512E+03 -1.34285E+04 -4.72179E+02 -1.80734E+04  7.64245E+03 -2.35590E+04  1.56977E+04 -1.29647E+04
  1.11405E+04  5.22449E+03 -8.31753E+03  1.29854E+04 -2.15862E+04 -4.64919E+03 -8.80160E+03 -3.39977E+04
  2.29608E+04 -4.38030E+04  4.86616E+04 -1.95421E+04  4.52362E+04  1.95396E+04  1.58261E+04  4.44013E+04
 -1.61669E+04  3.39556E+04 -2.56331E+04  1.90732E+03 -1.01420E+04 -2.78904E+04  2.15453E+04 -3.42597E+04
  4.14735E+04 -9.20162E+03  3.57370E+04  2.35653E+04  1.86096E+04  4.71932E+04 -8.12891E+03  5.09489E+04
 -3.16470E+04  3.40805E+04 -4.25123E+04  9.77826E+03 -4.28784E+04 -1.70030E+04 -2.40994E+04 -3.83419E+04
  7.27411E+03 -3.81662E+04  3.15990E+04 -1.49970E+04  2.91330E+04  1.08872E+04  3.86339E+03  1.92820E+04
 -1.35081E+04  8.67114E+03 -1.05313E+04 -7.27825E+03  5.64010E+03 -1.05765E+04  1.83113E+04  5.89037E+03
  1.35609E+04  2.20822E+04 -5.80090E+03  2.52215E+04 -2.25693E+04  1.17482E+04 -2.81979E+04 -4.43585E+03
 -2.12390E+04 -1.78058E+04 -8.85823E+03 -2.04476E+04  4.05540E+03 -1.99823E+04  1.62529E+04 -1.84385E+04
  2.67626E+04 -1.30819E+04  3.32661E+04  3.09464E+03  2.43106E+04  2.04829E+04  4.23560E+03  3.69854E+04
 -1.78604E+04  3.08746E+04 -2.83542E+04  1.07555E+04 -2.11339E+04 -1.06308E+04 -4.45953E+03 -1.35857E+04
  1.66197E+03 -2.77819E+03 -5.10726E+03  6.90709E+03 -1.66088E+04  5.07040E+03 -1.69770E+04 -7.18528E+03
 -1.04406E+04 -1.95837E+04  5.52651E+03 -2.34026E+04  1.58156E+04 -1.67356E+04  1.84295E+04 -1.74872E+03
  1.19382E+04  1.33374E+04 -1.21260E+03  1.96003E+04 -1.30595E+04  1.12604E+04 -1.93127E+04 -4.02390E+03
 -1.41132E+04 -1.76947E+04 -1.97990E+03 -2.33036E+04  1.04893E+04 -1.89815E+04  1.96588E+04 -9.58987E+03
  1.82299E+04 -1.44512E+02  1.30517E+04  4.24180E+03  6.83456E+03  1.07058E+03  9.60995E+03 -1.56637E+03
  1.77895E+04  2.66257E+03  1.97749E+04  1.57602E+04  1.32321E+04  3.10356E+04 -2.77954E+03  3.52411E+04
 -2.03516E+04  2.87659E+04 -3.27452E+04  1.41716E+04 -3.45802E+04 -2.71612E+03 -2.87520E+04 -2.01612E+04
 -1.26361E+04 -2.84967E+04  9.77638E+03 -2.55101E+04  2.22396E+04 -1.30587E+04  2.00932E+04  5.51002E+03
  7.07242E+03  1.48464E+04 -9.37628E+03  1.28003E+04 -1.66759E+04  2.68517E+03 -1.29866E+04 -1.00843E+04
 -4.24204E+02 -1.56922E+04  7.89670E+03 -1.19650E+04  1.07035E+04 -1.32081E+03  2.31025E+03  6.79580E+03
 -7.25985E+03  2.53332E+03 -6.23385E+03 -5.51575E+03 -5.86078E+02 -1.44399E+04  9.79521E+03 -1.47183E+04
  1.72079E+04 -7.71760E+03  1.89587E+04  3.01622E+03  1.66863E+04  1.38801E+04  7.67776E+03  2.10966E+04
 -3.79973E+03  2.33509E+04 -1.48911E+04  1.46077E+04 -1.64460E+04  3.28108E+03 -1.17318E+04 -3.92380E+03
 -5.33368E+03 -5.38116E+03 -1.05862E+03  1.00383E+03 -2.33365E+03  2.49751E+03 -5.92339E+03  4.04419E+03
 -1.10231E+04 -7.13751E+02 -1.14571E+04 -9.33803E+03 -4.66396E+03 -1.50694E+04  4.84426E+03 -1.17714E+04
  9.96810E+03 -4.92764E+03  6.95646E+03  3.21522E+03  2.36775E+02  4.52912E+03 -5.63982E+03 -3.95222E+02
 -5.31203E+03 -7.47485E+03 -9.75189E+02 -1.12723E+04  6.31205E+03 -1.19787E+04  1.44367E+04 -6.54283E+03
  1.76445E+04  1.50604E+03  1.28203E+04  9.84560E+03  2.55469E+03  1.34458E+04 -7.67571E+03  1.15995E+04
 -9.33322E+03  3.77725E+03 -4.80908E+03 -1.85957E+03  1.91034E+03 -3.13415E+03  6.33336E+03 -9.48198E+02
  5.32884E+03  4.98236E+03  1.14798E+03  9.46559E+03 -6.43659E+03  9.21641E+03 -1.12702E+04  2.03162E+03
 -7.68786E+03 -5.78446E+03  9.23013E+00 -9.81287E+03  5.64680E+03 -4.99824E+03  5.95708E+03  2.00811E+03
  1.46139E+03  6.19811E+03 -6.15387E+03  7.88071E+03 -8.89097E+03  3.47842E+03 -8.92805E+03 -2.69975E+03
 -5.22199E+03 -1.03739E+04  2.64283E+03 -1.18007E+04  1.04120E+04 -7.79407E+03  1.12016E+04  1.80116E+03
  6.85770E+03  8.78845E+03 -6.86428E+02  1.12682E+04 -8.03775E+03  6.29604E+03 -8.86904E+03 -1.14113E+03
 -7.88453E+03 -7.83166E+03 -1.79196E+03 -8.42949E+03  4.54056E+03 -6.85983E+03  4.68278E+03 -3.21200E+03
  3.80787E+03  1.06272E+03 -4.80769E+02  1.67411E+03 -4.20205E+01 -1.72647E+03  1.28930E+03 -4.71097E+03
  7.49481E+03 -2.61992E+03  1.03712E+04  1.47390E+03  9.90067E+03  6.49944E+03  7.57042E+03  1.33047E+04
 -2.93693E+03  1.52854E+04 -1.33971E+04  1.15632E+04 -1.70562E+04  2.00068E+03 -1.33536E+04 -5.80572E+03
 -6.90330E+03 -1.10230E+04 -2.55860E+02 -9.45492E+03  3.40821E+03 -4.83197E+03  3.52927E+03 -3.74478E+03
  2.47200E+03 -2.22948E+03  2.89309E+03 -2.99596E+03  4.28381E+03 -2.23455E+03  5.76027E+03 -3.60415E+02
  7.39819E+03  1.45027E+03  3.68494E+03  6.19355E+03 -1.56660E+03  6.87312E+03 -7.35482E+03  5.16731E+03
 -9.46461E+03 -1.13790E+03 -5.20834E+03 -6.17150E+03 -1.60793E+02 -1.01130E+04  5.87908E+03 -9.73901E+03
  1.01387E+04 -5.52713E+03  1.23797E+04  1.42553E+03  8.87163E+03  8.18740E+03  1.47293E+03  1.11212E+04
 -4.18794E+03  9.52348E+03 -6.52234E+03  3.32099E+03 -4.17662E+03 -1.59287E+03 -1.26126E+03 -1.29489E+03
 -1.15996E+03  2.41839E+02 -1.51400E+03  2.32196E+03 -4.25615E+03  1.38531E+03 -6.56013E+03 -1.07489E+03
 -3.89842E+03 -6.86851E+03  3.60283E+02 -8.90427E+03  5.56283E+03 -8.44874E+03  8.43359E+03 -2.36035E+03
  8.42356E+03  4.29073E+03  4.11436E+03  7.49030E+03 -2.03466E+03  9.03365E+03 -6.08797E+03  5.62206E+03
 -8.27625E+03  7.44791E+02 -6.60407E+03 -5.04370E+03 -4.93928E+02 -7.10588E+03  3.54374E+03 -5.20811E+03
  5.56965E+03 -1.96446E+03  3.80390E+03  1.38195E+03  1.39861E+03  2.63369E+03  9.24454E+02  9.68641E+02
  2.20919E+03  8.06144E+02  2.75167E+03  1.34430E+03  2.43871E+03  3.19792E+03  2.28585E+03  4.09708E+03
 -1.99008E+03  6.44098E+03 -5.81574E+03  7.44790E+03 -8.20779E+03  1.97308E+03 -8.63814E+03 -2.84682E+03
 -3.97928E+03 -8.25015E+03  1.37853E+03 -9.80803E+03  4.72755E+03 -5.72955E+03  6.86251E+03 -1.79538E+03
  5.17837E+03  3.26938E+03  1.02968E+03  4.90915E+03 -2.50394E+03  3.18796E+03 -3.11269E+03 -3.89707E+02
 -1.54700E+03 -3.40752E+03  2.31013E+03 -3.57613E+03  3.27000E+03 -1.71114E+03  3.45482E+03  7.92539E+02
  1.63449E+03  1.30512E+03  1.09811E+03  1.10272E+03 -4.14844E+02  1.08074E+03  1.77338E+03 -4.21748E+02
  1.17880E+03 -7.83772E+02  3.70714E+03  1.12330E+03  1.69086E+03  4.77698E+03 -4.58041E+02  6.12393E+03
 -4.05499E+03  2.98078E+03 -5.15990E+03  1.10466E+03 -4.76808E+03 -1.68933E+03 -1.49415E+03 -3.05990E+03
  7.04682E+02 -3.28969E+03  2.32453E+03 -1.57557E+03  1.68410E+03  1.83775E+03 -1.14554E+03  2.77588E+03
 -3.78410E+03  1.85672E+03 -3.36453E+03 -2.13589E+03 -2.13475E+03 -4.56196E+03  4.85536E+02 -4.29179E+03
  2.26649E+03 -2.23452E+03  2.65625E+03 -3.18892E+02  3.07407E+03  9.00848E+02  5.30934E+02  2.22741E+03
 -1.38901E+03  6.11421E+02 -1.89868E+03 -1.13456E+03  9.74995E+02 -2.87163E+03  4.10323E+03 -2.80518E+03
  4.68161E+03  3.08647E+02  5.30245E+03  3.27875E+03  2.01648E+03  4.97173E+03 -1.32568E+03  5.13467E+03
 -4.34329E+03  1.68189E+03 -4.09336E+03 -5.30886E+02 -2.64302E+03 -3.25900E+03  6.70646E+02 -2.87534E+03
  3.00051E+03 -1.75194E+03  2.77404E+03  1.06611E+03  7.61707E+02  2.77334E+03 -3.54855E+02  2.67214E+03
 -1.36024E+03  1.75541E+03 -1.42007E+03  8.42447E+02 -5.30981E+02  7.24600E+02 -1.28732E+03  1.04905E+03
 -1.13906E+03  2.03910E+03 -3.86432E+03  1.55489E+03 -4.67364E+03  2.18488E+02 -5.78105E+03 -3.24308E+03
 -2.88782E+03 -6.43004E+03  1.34413E+03 -7.30469E+03  4.29244E+03 -5.95181E+03  7.06268E+03 -2.49079E+03
  6.60263E+03  9.24317E+02  3.81488E+03  4.75346E+03 -1.40774E+00  4.74926E+03 -1.96467E+03  3.89980E+03
 -2.59784E+03  1.73589E+03 -2.04343E+03 -4.74852E+02 -8.22563E+02 -1.62261E+02 -7.37778E+02  8.84079E+01
 -1.38591E+03 -3.58732E+01 -1.51710E+03 -1.48850E+02  6.98798E+01 -1.30725E+03 -4.19292E+01 -1.89407E+03
  2.71556E+03 -1.56564E+03  2.58159E+03  6.38148E+01  3.61572E+03  2.71451E+03  5.71223E+02  4.79345E+03
 -2.70142E+03  5.87175E+03 -5.13329E+03  3.11610E+03 -5.84618E+03 -4.59782E+02 -4.36618E+03 -3.72281E+03
 -1.88414E+03 -4.56709E+03  1.03088E+03 -4.29109E+03  2.55992E+03 -2.47669E+03  2.88336E+03  4.32344E+02
  2.00659E+03  1.92538E+03 -2.13878E+02  1.38443E+03 -1.06391E+03 -1.87946E+02  1.30537E+02 -8.62103E+02
  1.66010E+03 -4.81227E+02  1.58093E+03  7.24712E+02  1.02069E+03  1.80793E+03  1.86712E+02  2.20026E+03
 -2.10921E+03  2.22762E+03 -3.00469E+03 -8.25463E+01 -2.47250E+03 -1.93736E+03 -3.16122E+02 -3.94570E+03
  2.42190E+03 -3.19365E+03  3.32373E+03 -6.31729E+02  2.96337E+03  2.67640E+02  1.85526E+03  2.58298E+03
  8.34226E+02  2.74911E+03 -1.33583E+03  2.25977E+03 -2.14398E+03  1.13761E+03 -1.48360E+03  9.99823E+01
 -6.75581E+02 -4.24585E+02 -1.02368E+03  3.52227E+02 -1.80428E+03  3.35812E+02 -2.26486E+03 -2.23696E+02
 -2.35878E+03 -1.13143E+03 -8.33982E+02 -3.39154E+03  1.34135E+03 -3.35521E+03  2.64103E+03 -1.41668E+03
  2.84024E+03  4.47736E+02  1.04492E+03  1.86084E+03 -2.91203E+02  3.00929E+03 -2.07087E+03  2.07038E+03
