 $NMID ID='MM_0lb_SNR800_9hz_g50_71.RAW', FMTDAT='(8E13.5)'
 TRAMP=1., VOLUME=1. $END
  3.09926E+05  4.43140E+02  3.38172E+05  2.50728E+05  8.49829E+04  3.38395E+05 -1.32489E+05  2.51822E+05
 -1.90622E+05  8.36401E+04 -1.12527E+05 -3.26661E+04  4.40359E+02 -5.08154E+04  5.34643E+04 -5.73622E+02
  3.52055E+04  5.29423E+04 -1.68219E+04  7.62739E+04 -6.11608E+04  6.43741E+04 -8.50203E+04  3.25759E+04
 -8.23542E+04 -1.15561E+04 -5.79720E+04 -5.16362E+04 -1.52892E+04 -7.11476E+04  2.82009E+04 -4.68241E+04
  4.13730E+04  3.67861E+03  1.66096E+04  4.86825E+04 -3.48159E+04  4.82774E+04 -6.78268E+04 -7.41932E+00
 -5.49025E+04 -5.80708E+04 -7.79686E+03 -7.90918E+04  3.50690E+04 -5.67689E+04  4.96888E+04 -1.81019E+04
  4.51833E+04  1.12345E+04  3.30074E+04  2.66952E+04  1.61511E+04  3.07849E+04 -5.83264E+03  2.83292E+04
 -2.22515E+04  1.17076E+04 -1.79943E+04 -5.98176E+03  6.68118E+03 -7.55042E+03  2.38804E+04  1.37437E+04
  7.12616E+03  3.73532E+04 -3.37639E+04  3.72370E+04 -6.57593E+04  2.26931E+03 -5.91678E+04 -4.44414E+04
 -1.26034E+04 -6.55637E+04  4.12908E+04 -4.71493E+04  6.11620E+04 -2.80909E+03  3.65764E+04  3.45724E+04
 -5.30968E+03  3.96968E+04 -3.13477E+04  1.86822E+04 -3.33129E+04 -3.23822E+03 -1.92162E+04 -1.14304E+04
 -9.75807E+03 -1.49365E+04  1.70507E+02 -1.96418E+04  8.68613E+03 -2.35303E+04  1.60688E+04 -1.26892E+04
  1.07258E+04  6.72897E+03 -1.08008E+04  1.28559E+04 -2.39020E+04 -6.63650E+03 -8.21082E+03 -3.78067E+04
  2.54676E+04 -4.68052E+04  5.19488E+04 -2.02834E+04  4.89046E+04  2.08797E+04  1.75520E+04  4.67817E+04
 -1.65764E+04  3.62194E+04 -2.76163E+04  3.22601E+03 -1.17806E+04 -2.93580E+04  2.15397E+04 -3.65136E+04
  4.45447E+04 -1.06532E+04  4.09145E+04  2.51182E+04  2.12497E+04  5.14294E+04 -8.33673E+03  5.61314E+04
 -3.50052E+04  3.84571E+04 -4.75624E+04  1.13115E+04 -4.78387E+04 -1.84061E+04 -2.62524E+04 -4.21457E+04
  7.98531E+03 -4.22337E+04  3.42772E+04 -1.69413E+04  3.22762E+04  1.08739E+04  5.38445E+03  2.08269E+04
 -1.41277E+04  9.47226E+03 -1.15455E+04 -7.26112E+03  5.55198E+03 -1.13199E+04  1.89164E+04  5.53604E+03
  1.51174E+04  2.27608E+04 -5.40330E+03  2.72870E+04 -2.37471E+04  1.45991E+04 -3.15045E+04 -2.76204E+03
 -2.55384E+04 -1.83203E+04 -1.19215E+04 -2.50248E+04  4.45287E+03 -2.56819E+04  1.98469E+04 -2.25952E+04
  3.22704E+04 -1.45474E+04  3.82468E+04  4.88327E+03  2.68142E+04  2.42055E+04  4.04129E+03  4.11352E+04
 -2.00091E+04  3.35012E+04 -3.04535E+04  1.14513E+04 -2.27360E+04 -1.01251E+04 -4.74398E+03 -1.31045E+04
  4.25407E+02 -1.10242E+03 -7.47483E+03  8.11457E+03 -2.05776E+04  4.56672E+03 -2.01723E+04 -9.78567E+03
 -1.18681E+04 -2.34846E+04  6.17995E+03 -2.79213E+04  1.85182E+04 -1.96635E+04  2.26179E+04 -1.83437E+03
  1.45313E+04  1.61153E+04 -1.19580E+03  2.29643E+04 -1.65445E+04  1.38106E+04 -2.36335E+04 -4.84428E+03
 -1.72347E+04 -2.08174E+04 -2.40761E+03 -2.78490E+04  1.27837E+04 -2.37276E+04  2.31976E+04 -1.23139E+04
  2.24104E+04 -1.56131E+02  1.58361E+04  5.22972E+03  8.99467E+03  1.29455E+03  1.27363E+04 -2.18718E+03
  2.20786E+04  3.10565E+03  2.56111E+04  1.84351E+04  1.73850E+04  3.76681E+04 -2.21635E+03  4.41732E+04
 -2.49696E+04  3.69460E+04 -4.22695E+04  1.89374E+04 -4.49399E+04 -3.20352E+03 -3.59082E+04 -2.61420E+04
 -1.46157E+04 -3.74551E+04  1.32994E+04 -3.26594E+04  2.82067E+04 -1.53056E+04  2.40947E+04  7.71510E+03
  8.02907E+03  1.88899E+04 -1.16057E+04  1.59847E+04 -1.99715E+04  2.56342E+03 -1.54708E+04 -1.30223E+04
 -3.55181E+02 -1.89425E+04  1.03817E+04 -1.43954E+04  1.36163E+04 -1.07642E+03  3.54092E+03  9.00035E+03
 -8.84307E+03  4.10441E+03 -9.53013E+03 -7.11330E+03 -1.89821E+03 -1.77082E+04  1.18854E+04 -1.99761E+04
  2.28445E+04 -1.13270E+04  2.62488E+04  2.87413E+03  2.31359E+04  1.83791E+04  1.07309E+04  2.92448E+04
 -5.61516E+03  3.12915E+04 -2.04967E+04  1.91750E+04 -2.23887E+04  3.87820E+03 -1.53463E+04 -5.78468E+03
 -6.04027E+03 -7.25635E+03 -4.65037E+02  2.98448E+02 -2.93393E+03  3.31530E+03 -7.96144E+03  5.28919E+03
 -1.40273E+04 -1.21926E+03 -1.45320E+04 -1.16335E+04 -5.93377E+03 -1.98025E+04  6.53935E+03 -1.59315E+04
  1.30865E+04 -6.44522E+03  9.15186E+03  4.00854E+03 -2.71410E+02  5.94549E+03 -8.00014E+03  6.63956E+01
 -7.29980E+03 -9.92924E+03 -1.00221E+03 -1.58261E+04  9.19845E+03 -1.63543E+04  1.99414E+04 -8.82275E+03
  2.35817E+04  2.46082E+03  1.72624E+04  1.44096E+04  2.93921E+03  1.89692E+04 -9.88942E+03  1.52873E+04
 -1.28020E+04  4.66232E+03 -6.52941E+03 -3.45445E+03  2.25553E+03 -4.45866E+03  8.30090E+03 -7.25723E+02
  7.87733E+03  6.72292E+03  1.73960E+03  1.32141E+04 -8.98585E+03  1.21036E+04 -1.56287E+04  3.22108E+03
 -1.06614E+04 -7.88059E+03  3.61351E+02 -1.36154E+04  9.10188E+03 -7.08103E+03  9.42094E+03  3.38783E+03
  2.52041E+03  1.00826E+04 -8.14597E+03  1.17154E+04 -1.34163E+04  5.04444E+03 -1.40974E+04 -4.85261E+03
 -7.77344E+03 -1.58502E+04  4.23995E+03 -1.81216E+04  1.57906E+04 -1.09906E+04  1.67201E+04  3.36234E+03
  1.01411E+04  1.33826E+04 -1.50007E+03  1.61709E+04 -1.20436E+04  8.97249E+03 -1.31278E+04 -1.52999E+03
 -1.07968E+04 -1.07189E+04 -1.74098E+03 -1.22746E+04  6.49847E+03 -9.52021E+03  7.45230E+03 -3.72898E+03
  5.51314E+03  1.93106E+03 -1.43883E+03  2.12289E+03 -9.42780E+02 -3.81967E+03  2.68155E+03 -7.80428E+03
  1.15101E+04 -4.82337E+03  1.58533E+04  1.77080E+03  1.58088E+04  1.10577E+04  1.02434E+04  2.08520E+04
 -4.92691E+03  2.42261E+04 -1.99228E+04  1.76036E+04 -2.59890E+04  3.64711E+03 -2.06056E+04 -9.19511E+03
 -1.04373E+04 -1.71135E+04 -3.00102E+02 -1.43782E+04  5.07878E+03 -8.61898E+03  5.17838E+03 -5.18598E+03
  3.43085E+03 -3.18123E+03  3.76789E+03 -3.73001E+03  5.96141E+03 -3.63776E+03  8.22001E+03 -1.35178E+03
  1.08777E+04  2.62987E+03  5.90088E+03  9.42336E+03 -2.18383E+03  1.15503E+04 -1.11856E+04  8.38450E+03
 -1.44011E+04 -1.55460E+03 -9.36985E+03 -1.00190E+04 -1.15798E+03 -1.58983E+04  8.80684E+03 -1.57787E+04
  1.64477E+04 -8.71287E+03  1.90169E+04  2.81582E+03  1.36475E+04  1.38070E+04  2.05967E+03  1.79367E+04
 -7.24714E+03  1.43379E+04 -1.06696E+04  4.55515E+03 -7.20903E+03 -1.81024E+03 -3.42316E+03 -2.20425E+03
 -1.19490E+03 -2.03062E+02 -2.54903E+03  2.98456E+03 -6.44183E+03  2.64026E+03 -1.04888E+04 -1.35575E+03
 -7.65700E+03 -1.02861E+04 -1.90659E+02 -1.45629E+04  9.22385E+03 -1.30166E+04  1.47097E+04 -4.03558E+03
  1.46452E+04  7.25481E+03  7.04265E+03  1.32102E+04 -3.25604E+03  1.47525E+04 -1.06826E+04  9.27627E+03
 -1.38186E+04  3.33455E+02 -1.08738E+04 -8.87626E+03 -1.17483E+03 -1.24484E+04  6.21194E+03 -9.13379E+03
  9.62704E+03 -2.57311E+03  6.60218E+03  2.55421E+03  2.21350E+03  4.59025E+03  1.37363E+03  2.25315E+03
  2.89807E+03  1.28615E+03  3.68867E+03  2.05330E+03  4.40124E+03  5.32296E+03  4.05728E+03  8.01254E+03
 -3.59800E+03  1.18993E+04 -1.03999E+04  1.15712E+04 -1.55131E+04  3.23294E+03 -1.59885E+04 -6.25364E+03
 -7.38044E+03 -1.51735E+04  2.70939E+03 -1.66646E+04  9.24922E+03 -1.05172E+04  1.22529E+04 -2.46443E+03
  9.06968E+03  5.93399E+03  2.11996E+03  8.87912E+03 -3.92981E+03  5.57732E+03 -6.45707E+03 -8.18608E+02
 -2.62384E+03 -6.54560E+03  3.50076E+03 -6.59229E+03  6.51201E+03 -3.42148E+03  6.55314E+03  1.65371E+03
  4.00979E+03  2.60859E+03  1.55179E+03  2.32719E+03 -1.04444E+03  1.80021E+03  1.95714E+03 -8.43579E+02
  2.42216E+03 -9.06470E+02  5.81446E+03  2.51341E+03  3.71089E+03  8.36371E+03 -1.29921E+03  1.08742E+04
 -7.34126E+03  7.15552E+03 -9.42712E+03  1.80320E+03 -8.44496E+03 -3.54984E+03 -3.27258E+03 -6.47772E+03
  7.47269E+02 -6.11883E+03  4.04516E+03 -2.54546E+03  3.40183E+03  2.71934E+03 -1.15794E+03  5.17186E+03
 -6.35110E+03  2.98405E+03 -7.43617E+03 -3.95496E+03 -4.18265E+03 -8.06980E+03  1.35042E+03 -8.31041E+03
  5.08063E+03 -4.67710E+03  6.46818E+03 -3.57899E+02  4.99230E+03  2.47243E+03  7.30766E+02  4.25073E+03
 -2.94646E+03  1.29434E+03 -3.86607E+03 -3.23510E+03  1.59511E+03 -7.06337E+03  7.82242E+03 -5.48361E+03
  9.37565E+03  5.17367E+02  9.43215E+03  6.59338E+03  3.20232E+03  1.02656E+04 -3.79681E+03  9.31997E+03
 -8.41189E+03  4.43797E+03 -8.33715E+03 -1.51036E+03 -4.87480E+03 -6.74950E+03  1.41485E+03 -6.09544E+03
  6.13712E+03 -3.00438E+03  5.47593E+03  2.80658E+03  2.02969E+03  5.58224E+03 -7.15711E+02  5.19187E+03
 -2.44624E+03  3.11163E+03 -2.51853E+03  1.25880E+03 -8.31029E+02  8.66415E+02 -1.66476E+03  1.93172E+03
 -2.75772E+03  3.86424E+03 -6.85749E+03  3.62911E+03 -1.03095E+04  5.56096E+01 -1.08846E+04 -6.54777E+03
 -5.90890E+03 -1.33033E+04  2.59588E+03 -1.56782E+04  9.53148E+03 -1.15498E+04  1.42718E+04 -4.57976E+03
  1.35038E+04  2.62280E+03  8.51507E+03  8.89433E+03  5.22095E+02  1.07288E+04 -4.14770E+03  7.80982E+03
 -5.82165E+03  2.87270E+03 -3.45761E+03 -1.35031E+03 -1.42438E+03 -1.14595E+03 -6.31520E+02 -4.44357E+01
 -2.11391E+03  1.15627E+02 -2.56218E+03 -3.18908E+02 -6.01570E+02 -2.51590E+03  2.56443E+02 -4.16809E+03
  4.79689E+03 -3.27657E+03  6.52366E+03  4.02302E+02  7.11772E+03  5.54988E+03  1.94414E+03  1.07119E+04
 -4.97755E+03  1.18390E+04 -1.11824E+04  7.34256E+03 -1.25965E+04 -1.43470E+03 -9.46924E+03 -7.55127E+03
 -3.86120E+03 -1.05278E+04  2.52232E+03 -9.55035E+03  6.43845E+03 -5.33334E+03  6.57511E+03  3.12969E+02
  4.04745E+03  3.44393E+03 -6.19405E+02  3.21721E+03 -2.19595E+03 -3.43923E+02 -1.68148E+02 -2.31241E+03
  3.10242E+03 -1.75728E+03  3.75732E+03  1.72958E+03  2.72168E+03  4.29084E+03  5.45644E+01  5.60400E+03
 -4.88819E+03  4.60264E+03 -7.08060E+03  7.56897E+02 -6.35329E+03 -4.64793E+03 -1.02103E+03 -8.77615E+03
  5.24318E+03 -7.08359E+03  7.97768E+03 -2.37520E+03  8.41130E+03  2.23208E+03  4.95567E+03  6.66037E+03
  6.58507E+02  7.25316E+03 -2.85843E+03  5.81475E+03 -4.78558E+03  3.18301E+03 -3.75132E+03  9.31355E+02
 -1.96319E+03 -5.89541E+01 -1.46959E+03  7.75794E+02 -4.02314E+03  7.97452E+02 -5.23237E+03 -1.24898E+03
 -5.32445E+03 -3.69655E+03 -1.73236E+03 -7.18313E+03  3.31442E+03 -7.58061E+03  6.26684E+03 -3.67807E+03
  7.11366E+03  5.33555E+02  3.69713E+03  5.24209E+03 -6.64254E+02  6.99228E+03 -5.59793E+03  4.75369E+03
