 $NMID ID='MM_0lb_SNR800_14hz_g45_86.RAW', FMTDAT='(8E13.5)'
 TRAMP=1., VOLUME=1. $END
  3.09687E+05  5.81495E+02  3.37238E+05  2.50653E+05  8.47430E+04  3.37904E+05 -1.32854E+05  2.51027E+05
 -1.90423E+05  8.28669E+04 -1.11505E+05 -3.27848E+04  1.23473E+03 -5.02061E+04  5.36001E+04  2.92869E+02
  3.52676E+04  5.29762E+04 -1.67328E+04  7.51495E+04 -6.06871E+04  6.35999E+04 -8.39663E+04  3.20491E+04
 -8.07590E+04 -1.12881E+04 -5.71729E+04 -5.10440E+04 -1.48046E+04 -6.95615E+04  2.69202E+04 -4.58644E+04
  3.98767E+04  3.85724E+03  1.59024E+04  4.77331E+04 -3.41350E+04  4.69693E+04 -6.65820E+04 -5.36952E+02
 -5.31365E+04 -5.66304E+04 -6.67840E+03 -7.69362E+04  3.39289E+04 -5.49624E+04  4.77724E+04 -1.70850E+04
  4.30730E+04  1.11713E+04  3.14756E+04  2.51952E+04  1.61289E+04  2.93348E+04 -5.30965E+03  2.70252E+04
 -2.20796E+04  1.24972E+04 -1.86942E+04 -5.03038E+03  5.26127E+03 -7.52853E+03  2.24449E+04  1.24596E+04
  7.22480E+03  3.50219E+04 -3.16579E+04  3.53759E+04 -6.32884E+04  2.10255E+03 -5.67487E+04 -4.24179E+04
 -1.27125E+04 -6.29142E+04  3.97042E+04 -4.51230E+04  5.80330E+04 -2.34072E+03  3.38085E+04  3.24872E+04
 -5.94427E+03  3.57031E+04 -2.96203E+04  1.55682E+04 -3.01986E+04 -4.57575E+03 -1.65279E+04 -1.07871E+04
 -8.31621E+03 -1.30787E+04 -7.57531E+02 -1.82017E+04  7.52829E+03 -2.28923E+04  1.54481E+04 -1.35484E+04
  1.16529E+04  5.09519E+03 -7.70098E+03  1.32262E+04 -2.12525E+04 -4.10590E+03 -8.17070E+03 -3.32190E+04
  2.25294E+04 -4.34053E+04  4.76974E+04 -1.94907E+04  4.45671E+04  1.91331E+04  1.56585E+04  4.41661E+04
 -1.56314E+04  3.34605E+04 -2.52532E+04  1.82203E+03 -9.75093E+03 -2.76359E+04  2.10018E+04 -3.35150E+04
  4.05884E+04 -9.12322E+03  3.49755E+04  2.34696E+04  1.78148E+04  4.61378E+04 -7.80949E+03  4.97243E+04
 -3.13038E+04  3.27807E+04 -4.14072E+04  9.43869E+03 -4.19359E+04 -1.63834E+04 -2.33897E+04 -3.74433E+04
  7.35490E+03 -3.73622E+04  3.12801E+04 -1.44261E+04  2.94221E+04  1.10653E+04  3.84809E+03  1.88609E+04
 -1.34196E+04  8.12183E+03 -1.02839E+04 -7.39546E+03  5.70996E+03 -1.08410E+04  1.76099E+04  6.26507E+03
  1.29640E+04  2.20629E+04 -6.18263E+03  2.49437E+04 -2.22753E+04  1.15030E+04 -2.77222E+04 -4.86519E+03
 -2.03636E+04 -1.69830E+04 -7.93565E+03 -1.99151E+04  4.11144E+03 -1.92314E+04  1.53926E+04 -1.81485E+04
  2.58629E+04 -1.26266E+04  3.20481E+04  2.82275E+03  2.34513E+04  1.94204E+04  4.09629E+03  3.57625E+04
 -1.78052E+04  2.99915E+04 -2.78289E+04  1.04092E+04 -2.08253E+04 -1.01119E+04 -4.55213E+03 -1.34732E+04
  1.79302E+03 -2.95322E+03 -4.70291E+03  6.60958E+03 -1.58667E+04  5.39730E+03 -1.55706E+04 -6.97308E+03
 -9.93335E+03 -1.85565E+04  5.08197E+03 -2.27176E+04  1.47372E+04 -1.61053E+04  1.77047E+04 -1.46597E+03
  1.13202E+04  1.28475E+04 -1.27896E+03  1.84745E+04 -1.27068E+04  1.04916E+04 -1.89250E+04 -4.02575E+03
 -1.39008E+04 -1.66488E+04 -1.97841E+03 -2.25646E+04  1.00350E+04 -1.87806E+04  1.88355E+04 -9.15305E+03
  1.75106E+04  4.48605E+02  1.26228E+04  4.22287E+03  6.42176E+03  6.92825E+02  9.37517E+03 -1.72385E+03
  1.71542E+04  2.79856E+03  1.89434E+04  1.49002E+04  1.25262E+04  2.97506E+04 -2.83042E+03  3.36582E+04
 -1.94226E+04  2.67349E+04 -3.10507E+04  1.34938E+04 -3.25084E+04 -2.09591E+03 -2.72015E+04 -1.89133E+04
 -1.17488E+04 -2.69730E+04  9.22454E+03 -2.43813E+04  2.09112E+04 -1.24791E+04  1.89639E+04  5.43805E+03
  6.71132E+03  1.42533E+04 -8.76718E+03  1.24025E+04 -1.60064E+04  2.75393E+03 -1.23868E+04 -9.98486E+03
 -3.33408E+02 -1.49274E+04  7.40324E+03 -1.13755E+04  9.83379E+03 -1.13860E+03  2.14173E+03  6.52016E+03
 -6.60743E+03  2.51030E+03 -5.57688E+03 -5.26099E+03 -3.19126E+01 -1.31192E+04  9.48654E+03 -1.38583E+04
  1.62731E+04 -6.93412E+03  1.74763E+04  2.93981E+03  1.52814E+04  1.29547E+04  7.07472E+03  1.99038E+04
 -3.21862E+03  2.14782E+04 -1.37204E+04  1.33512E+04 -1.53624E+04  3.24137E+03 -1.10171E+04 -3.28390E+03
 -5.11476E+03 -4.76246E+03 -8.12562E+02  1.16496E+03 -2.68812E+03  2.66662E+03 -5.00844E+03  4.13793E+03
 -1.01272E+04 -8.01155E+02 -1.09825E+04 -8.83875E+03 -4.49885E+03 -1.43353E+04  4.38228E+03 -1.13823E+04
  9.26987E+03 -4.50868E+03  6.94957E+03  2.88512E+03  2.86132E+02  4.05509E+03 -5.11419E+03  3.14790E+00
 -4.96556E+03 -7.06477E+03 -7.10682E+02 -1.02330E+04  6.05782E+03 -1.08758E+04  1.35473E+04 -5.77937E+03
  1.60082E+04  1.20611E+03  1.15732E+04  9.40002E+03  2.50375E+03  1.25854E+04 -6.54391E+03  1.09474E+04
 -8.90062E+03  3.65522E+03 -4.31242E+03 -2.01392E+03  1.76253E+03 -2.86216E+03  5.99331E+03 -1.24595E+03
  5.51437E+03  4.77678E+03  1.02158E+03  8.68600E+03 -5.97706E+03  8.36917E+03 -1.05600E+04  1.85293E+03
 -7.04712E+03 -5.37075E+03  5.42813E+02 -9.02095E+03  5.66185E+03 -4.83147E+03  5.91675E+03  1.94183E+03
  1.41931E+03  6.02759E+03 -5.54832E+03  7.04956E+03 -8.00551E+03  3.53070E+03 -8.10652E+03 -2.45885E+03
 -4.50868E+03 -9.48186E+03  2.48730E+03 -1.10224E+04  9.13988E+03 -6.82890E+03  1.01682E+04  1.84687E+03
  6.60609E+03  8.15140E+03 -5.07504E+02  1.04365E+04 -7.66381E+03  5.42630E+03 -8.02742E+03 -6.26569E+02
 -7.43085E+03 -6.98957E+03 -1.17687E+03 -7.47920E+03  3.74468E+03 -6.43810E+03  4.64560E+03 -3.43354E+03
  3.56419E+03  9.70840E+02 -3.12748E+02  1.53537E+03  2.29038E+02 -1.66697E+03  7.95847E+02 -3.92680E+03
  6.47753E+03 -2.18718E+03  9.04062E+03  1.16623E+03  8.98106E+03  5.96658E+03  7.19735E+03  1.17774E+04
 -2.48243E+03  1.39948E+04 -1.21093E+04  1.01596E+04 -1.52360E+04  2.12165E+03 -1.22238E+04 -4.76165E+03
 -5.92162E+03 -1.00947E+04 -3.63451E+02 -8.30047E+03  3.02258E+03 -4.10478E+03  3.05804E+03 -3.42503E+03
  1.87870E+03 -2.15547E+03  2.82036E+03 -3.11482E+03  4.07910E+03 -1.99017E+03  4.94287E+03  3.32797E+01
  6.70161E+03  1.76429E+03  2.85951E+03  5.40223E+03 -1.81986E+03  5.73914E+03 -7.02465E+03  4.37553E+03
 -8.04980E+03 -9.07694E+02 -4.34284E+03 -5.80554E+03  9.79998E+01 -8.62415E+03  4.80271E+03 -8.73006E+03
  8.59074E+03 -5.12502E+03  1.10440E+04  8.86426E+02  7.81839E+03  7.40250E+03  1.51787E+03  1.00777E+04
 -3.97384E+03  8.98770E+03 -5.52981E+03  3.04656E+03 -3.81023E+03 -1.28593E+03 -1.35970E+03 -1.00579E+03
 -7.46137E+02  1.89238E+02 -1.42113E+03  2.34223E+03 -4.00657E+03  1.83738E+03 -6.19949E+03 -9.79877E+02
 -3.35122E+03 -5.94752E+03  2.69862E+02 -7.51706E+03  4.74897E+03 -7.79217E+03  7.57419E+03 -1.97400E+03
  7.75061E+03  3.95624E+03  3.49960E+03  6.78126E+03 -1.42627E+03  8.08362E+03 -5.13960E+03  4.53120E+03
 -6.79653E+03  6.76229E+02 -5.90208E+03 -4.41521E+03 -6.81899E+02 -6.32698E+03  3.07767E+03 -4.96366E+03
  5.06614E+03 -1.83383E+03  3.38788E+03  1.18179E+03  9.17507E+02  2.32939E+03  8.00496E+02  1.23234E+03
  1.84903E+03  7.81786E+02  2.18636E+03  1.45432E+03  2.11892E+03  3.16296E+03  2.34613E+03  4.03767E+03
 -1.82698E+03  5.56602E+03 -5.02601E+03  6.55481E+03 -6.93065E+03  1.93701E+03 -7.90401E+03 -2.30810E+03
 -3.64902E+03 -7.43974E+03  1.04220E+03 -8.17859E+03  4.02844E+03 -5.04284E+03  6.11046E+03 -1.37024E+03
  4.84742E+03  3.09173E+03  9.68716E+02  5.00803E+03 -2.15481E+03  2.52861E+03 -2.45644E+03 -4.49253E+02
 -1.41397E+03 -3.02487E+03  1.97616E+03 -3.14431E+03  2.84073E+03 -1.75889E+03  2.87053E+03  9.83027E+02
  1.55511E+03  1.05868E+03  1.17140E+03  4.48614E+02 -4.83150E+02  1.15403E+03  1.65903E+03 -1.43123E+02
  9.31920E+02 -1.54448E+02  3.34199E+03  1.42144E+03  1.30254E+03  4.22238E+03 -2.94812E+02  5.13621E+03
 -3.49581E+03  2.85545E+03 -4.23682E+03  7.55735E+02 -4.12892E+03 -1.45746E+03 -1.07470E+03 -2.44927E+03
  2.73500E+02 -2.89411E+03  1.87115E+03 -1.19156E+03  1.52429E+03  1.69866E+03 -1.15115E+03  2.26473E+03
 -2.98949E+03  1.63049E+03 -2.84999E+03 -2.01689E+03 -1.71084E+03 -4.04230E+03  3.58225E+02 -3.72760E+03
  1.78357E+03 -2.18355E+03  2.75565E+03 -1.21803E+01  2.40123E+03  4.14083E+02  3.10203E+02  2.24146E+03
 -8.22008E+02  5.51053E+02 -2.10892E+03 -1.11999E+03  8.12504E+02 -2.12134E+03  3.58270E+03 -2.33524E+03
  3.57985E+03  3.96642E+02  4.74275E+03  2.56634E+03  1.71054E+03  3.78942E+03 -1.29666E+03  4.02135E+03
 -3.48962E+03  1.36995E+03 -3.52209E+03 -7.38701E+02 -1.99200E+03 -2.85894E+03  7.87525E+02 -2.34490E+03
  2.60624E+03 -1.49701E+03  2.22974E+03  1.19459E+03  3.71610E+02  2.44910E+03 -4.82879E+02  2.00863E+03
 -9.84454E+02  1.50595E+03 -9.31470E+02  2.68644E+02 -3.33944E+02  4.48476E+02 -1.26291E+03  1.14196E+03
 -1.19696E+03  1.76335E+03 -3.14488E+03  1.34959E+03 -3.71556E+03 -1.15214E+02 -5.11748E+03 -2.30894E+03
 -2.23962E+03 -5.34144E+03  1.12228E+03 -6.33428E+03  3.30352E+03 -5.18039E+03  5.98842E+03 -2.04599E+03
  5.65045E+03  7.02903E+02  3.16568E+03  3.89486E+03 -3.44756E+02  4.04482E+03 -1.62885E+03  2.92876E+03
 -2.45016E+03  1.57491E+03 -1.39935E+03 -6.78531E+02 -4.04529E+02 -2.45135E+02 -5.35302E+02  7.10896E+00
 -9.76324E+02 -3.67029E+02 -1.08823E+03 -7.28764E+01 -3.03107E+01 -1.10433E+03 -1.57077E+02 -1.84021E+03
  2.27663E+03 -1.33705E+03  2.17808E+03 -2.74058E+01  2.73920E+03  2.20743E+03  4.77664E+02  3.60856E+03
 -2.13136E+03  4.82703E+03 -4.41824E+03  2.95237E+03 -5.03419E+03 -5.21434E+02 -3.46516E+03 -3.05069E+03
 -1.42887E+03 -4.02817E+03  7.86980E+02 -3.24678E+03  2.31500E+03 -1.90250E+03  2.52665E+03  2.94535E+02
  1.54254E+03  1.18496E+03 -2.51595E+01  1.14766E+03 -7.03001E+02 -4.56288E+02 -1.14420E+02 -9.08170E+02
  1.00276E+03 -3.26982E+01  1.47843E+03  6.71407E+02  7.03719E+02  1.67537E+03  6.33962E+02  1.36518E+03
 -1.35574E+03  1.79719E+03 -1.93582E+03  2.14998E+02 -2.45302E+03 -1.57119E+03 -3.49228E+02 -3.21499E+03
  1.64861E+03 -2.50299E+03  2.21305E+03 -3.25736E+02  2.72435E+03  2.09834E+01  1.70676E+03  2.13262E+03
  3.00212E+02  2.25336E+03 -8.48098E+02  2.00539E+03 -1.57242E+03  1.20411E+03 -1.39905E+03  1.43816E+02
 -5.41697E+02 -5.41599E+01 -1.14531E+03  2.22186E+02 -1.42751E+03  1.79754E+02 -2.08337E+03 -4.99530E+02
 -1.98338E+03 -8.25558E+02 -7.60959E+02 -2.53753E+03  1.36516E+03 -3.04034E+03  2.06923E+03 -1.39857E+03
  2.30607E+03  1.84048E+02  4.12205E+02  1.65241E+03 -4.55795E+01  2.15603E+03 -1.33989E+03  1.56817E+03
