 $NMID ID='MM_0lb_SNR800_18hz_g60_87.RAW', FMTDAT='(8E13.5)'
 TRAMP=1., VOLUME=1. $END
  3.09669E+05  2.71007E+02  3.37561E+05  2.50120E+05  8.45789E+04  3.37849E+05 -1.32424E+05  2.50893E+05
 -1.90115E+05  8.31740E+04 -1.11792E+05 -3.30650E+04  7.40499E+02 -5.04671E+04  5.37951E+04  1.42736E+02
  3.50834E+04  5.26829E+04 -1.68590E+04  7.57612E+04 -6.07357E+04  6.36644E+04 -8.38743E+04  3.18076E+04
 -8.04668E+04 -1.10616E+04 -5.69575E+04 -5.09937E+04 -1.49758E+04 -6.90272E+04  2.72855E+04 -4.56597E+04
  3.96633E+04  3.62335E+03  1.55242E+04  4.79535E+04 -3.42599E+04  4.67824E+04 -6.62771E+04 -1.76027E+02
 -5.32577E+04 -5.63764E+04 -6.49762E+03 -7.65712E+04  3.36271E+04 -5.44574E+04  4.75038E+04 -1.69680E+04
  4.28537E+04  1.15052E+04  3.16174E+04  2.51839E+04  1.58545E+04  2.89095E+04 -4.95247E+03  2.70935E+04
 -2.18793E+04  1.23864E+04 -1.90205E+04 -4.61789E+03  5.29833E+03 -7.49169E+03  2.18980E+04  1.17691E+04
  7.31832E+03  3.48592E+04 -3.15427E+04  3.49603E+04 -6.27494E+04  2.07948E+03 -5.65008E+04 -4.23241E+04
 -1.24872E+04 -6.23832E+04  3.91212E+04 -4.46540E+04  5.75015E+04 -1.97296E+03  3.33156E+04  3.21765E+04
 -6.42242E+03  3.51196E+04 -2.96690E+04  1.48999E+04 -2.94577E+04 -4.73536E+03 -1.57317E+04 -1.09493E+04
 -8.06628E+03 -1.26091E+04 -1.15369E+03 -1.72612E+04  6.98857E+03 -2.28225E+04  1.50360E+04 -1.35517E+04
  1.19762E+04  4.92977E+03 -7.66321E+03  1.31521E+04 -2.07960E+04 -3.73400E+03 -7.90006E+03 -3.25245E+04
  2.23799E+04 -4.23452E+04  4.71707E+04 -1.94659E+04  4.37127E+04  1.90897E+04  1.50912E+04  4.31440E+04
 -1.59467E+04  3.22598E+04 -2.43500E+04  1.64608E+03 -9.05247E+03 -2.69471E+04  2.04995E+04 -3.28671E+04
  3.96676E+04 -8.43968E+03  3.37924E+04  2.31888E+04  1.70113E+04  4.47432E+04 -7.93134E+03  4.83781E+04
 -3.06051E+04  3.21485E+04 -4.00783E+04  9.26698E+03 -4.11872E+04 -1.59275E+04 -2.26693E+04 -3.64855E+04
  7.04927E+03 -3.62935E+04  3.04453E+04 -1.39245E+04  2.82912E+04  1.09845E+04  3.65454E+03  1.86926E+04
 -1.35923E+04  7.85023E+03 -9.98409E+03 -7.64986E+03  5.93589E+03 -1.04625E+04  1.79446E+04  6.26887E+03
  1.29891E+04  2.17464E+04 -6.39291E+03  2.43334E+04 -2.20218E+04  1.05113E+04 -2.64657E+04 -5.56111E+03
 -1.88348E+04 -1.68301E+04 -7.34974E+03 -1.87603E+04  3.86826E+03 -1.73723E+04  1.40080E+04 -1.62586E+04
  2.39300E+04 -1.23948E+04  3.04009E+04  2.07637E+03  2.26480E+04  1.82374E+04  4.51425E+03  3.45799E+04
 -1.69266E+04  2.91713E+04 -2.69640E+04  9.65191E+03 -2.02146E+04 -9.88128E+03 -4.33679E+03 -1.37071E+04
  2.04585E+03 -3.32908E+03 -3.74144E+03  5.70699E+03 -1.47106E+04  5.38845E+03 -1.49841E+04 -6.03825E+03
 -9.33254E+03 -1.74462E+04  4.98579E+03 -2.10605E+04  1.38794E+04 -1.55030E+04  1.60130E+04 -1.49132E+03
  9.95379E+03  1.19112E+04 -9.91422E+02  1.75514E+04 -1.14932E+04  9.68762E+03 -1.72153E+04 -3.83623E+03
 -1.30232E+04 -1.53760E+04 -1.26928E+03 -2.09808E+04  9.65029E+03 -1.68643E+04  1.74394E+04 -8.28499E+03
  1.60203E+04  4.11977E+02  1.14237E+04  3.95918E+03  5.88846E+03  7.19683E+02  8.60619E+03 -1.39985E+03
  1.54456E+04  2.42744E+03  1.69576E+04  1.36183E+04  1.08978E+04  2.72317E+04 -3.00779E+03  2.97730E+04
 -1.74154E+04  2.35754E+04 -2.75517E+04  1.13546E+04 -2.85035E+04 -2.41255E+03 -2.40997E+04 -1.64545E+04
 -1.05375E+04 -2.33592E+04  7.97032E+03 -2.15899E+04  1.87406E+04 -1.16643E+04  1.71702E+04  4.40156E+03
  6.42821E+03  1.22877E+04 -7.90801E+03  1.13036E+04 -1.43855E+04  2.74287E+03 -1.10945E+04 -8.97387E+03
 -2.77736E+02 -1.39118E+04  6.71269E+03 -1.03554E+04  8.85570E+03 -1.52634E+03  1.77739E+03  5.59745E+03
 -6.09711E+03  1.82893E+03 -4.49822E+03 -5.07871E+03  1.92218E+02 -1.15070E+04  8.47091E+03 -1.16471E+04
  1.41392E+04 -5.79239E+03  1.44278E+04  2.62288E+03  1.26001E+04  1.10153E+04  5.87892E+03  1.65493E+04
 -2.36279E+03  1.83112E+04 -1.13559E+04  1.12946E+04 -1.28312E+04  2.99061E+03 -9.66446E+03 -2.75776E+03
 -4.87220E+03 -4.05693E+03 -8.97085E+02  1.12315E+03 -2.09998E+03  2.21721E+03 -4.25605E+03  3.83553E+03
 -8.87707E+03 -7.13242E+02 -9.50735E+03 -7.85271E+03 -3.71796E+03 -1.24747E+04  3.83259E+03 -9.60687E+03
  8.19412E+03 -3.89449E+03  5.76051E+03  2.32712E+03  4.28733E+02  3.46836E+03 -3.97952E+03 -1.97182E+02
 -4.02148E+03 -5.89150E+03 -9.53930E+02 -8.32077E+03  4.39012E+03 -8.79103E+03  1.12136E+04 -4.54334E+03
  1.33504E+04  6.67155E+02  1.01153E+04  6.84479E+03  1.78419E+03  1.01824E+04 -5.81272E+03  8.96117E+03
 -7.58743E+03  2.91975E+03 -3.83325E+03 -1.36608E+03  1.42736E+03 -2.48065E+03  5.23161E+03 -1.27636E+03
  4.65885E+03  3.51210E+03  1.09117E+03  7.20000E+03 -5.08024E+03  6.95735E+03 -8.60098E+03  1.71140E+03
 -5.69203E+03 -4.37157E+03  2.65370E+02 -7.70809E+03  4.12866E+03 -3.87174E+03  4.07903E+03  1.00186E+03
  9.06462E+02  3.72887E+03 -4.33594E+03  5.31981E+03 -6.09644E+03  2.95162E+03 -5.29488E+03 -1.60302E+03
 -3.44382E+03 -7.03922E+03  1.23532E+03 -8.36158E+03  6.81738E+03 -5.16790E+03  7.78749E+03  1.02679E+03
  5.14043E+03  6.36104E+03  2.74704E+02  8.22899E+03 -5.91674E+03  4.44931E+03 -6.07978E+03 -4.18807E+02
 -6.19356E+03 -5.60915E+03 -1.39356E+03 -5.74554E+03  2.76405E+03 -5.37946E+03  3.20331E+03 -2.99224E+03
  2.90516E+03  3.69642E+02  6.10589E+01  1.47660E+03  3.28064E+02 -5.99309E+02  2.64251E+02 -2.35633E+03
  4.26354E+03 -1.05502E+03  6.22402E+03  1.01521E+03  6.29712E+03  3.57967E+03  5.72514E+03  8.59390E+03
 -1.32102E+03  9.73472E+03 -8.67816E+03  7.49468E+03 -1.13549E+04  1.27720E+03 -8.92495E+03 -3.24036E+03
 -4.81063E+03 -7.29173E+03 -3.20123E+02 -5.94852E+03  2.35979E+03 -2.64948E+03  2.01292E+03 -2.47022E+03
  1.54848E+03 -1.76567E+03  2.35615E+03 -2.39760E+03  3.38235E+03 -1.44769E+03  4.12423E+03  8.50973E+01
  5.24195E+03  1.68099E+03  1.17004E+03  3.82506E+03 -1.63150E+03  3.37721E+03 -5.13244E+03  3.13319E+03
 -5.64462E+03 -6.48218E+02 -2.53736E+03 -3.74270E+03  3.55024E+02 -5.53621E+03  3.19139E+03 -6.24892E+03
  6.01125E+03 -3.57170E+03  7.39683E+03  1.06031E+02  5.24333E+03  4.75655E+03  9.64287E+02  6.88247E+03
 -2.38350E+03  6.58029E+03 -3.99002E+03  2.13300E+03 -2.21842E+03 -1.18909E+03 -5.91656E+02 -7.85084E+02
 -4.50699E+02  2.25360E+02 -9.09140E+02  2.06514E+03 -2.88345E+03  1.27668E+03 -4.46589E+03 -3.64449E+02
 -1.54079E+03 -4.17160E+03  4.17229E+02 -5.24909E+03  3.21362E+03 -4.87235E+03  4.31795E+03 -1.47310E+03
  4.67870E+03  2.79847E+03  2.01893E+03  3.78701E+03 -9.42017E+02  5.03946E+03 -3.12976E+03  3.23828E+03
 -4.21623E+03  5.66806E+02 -3.56973E+03 -2.59968E+03 -3.30647E+02 -3.76783E+03  1.83562E+03 -3.11157E+03
  3.04242E+03 -1.51871E+03  1.77645E+03  1.97654E+02  7.62464E+02  1.75618E+03  9.09152E+02  7.73143E+02
  2.10193E+03  4.81693E+02  1.21053E+03  8.35406E+02  1.19988E+03  2.29614E+03  1.52306E+03  1.86241E+03
 -1.58690E+03  3.36731E+03 -2.81817E+03  4.31976E+03 -3.74893E+03  1.54919E+03 -4.72200E+03 -5.93205E+02
 -2.07247E+03 -4.28034E+03  5.34904E+02 -5.44392E+03  2.05938E+03 -2.87217E+03  3.38565E+03 -1.22005E+03
  2.64497E+03  1.87635E+03  4.60663E+02  2.53178E+03 -1.07957E+03  1.46711E+03 -1.12585E+03 -4.07578E+01
 -7.00156E+02 -1.75327E+03  1.32704E+03 -1.35004E+03  1.37456E+03 -1.06180E+03  1.63346E+03  3.28740E+02
  5.28941E+02  4.07684E+02  1.00190E+03  2.12625E+01 -2.79607E+02  7.40264E+02  1.44585E+03 -9.26529E+01
 -3.43848E+01 -2.89078E+02  1.96049E+03  8.00610E+02  3.22402E+02  2.65252E+03 -2.50126E+01  3.22121E+03
 -1.74224E+03  1.28689E+03 -2.26181E+03  3.06101E+02 -2.26745E+03 -9.10467E+02 -3.65982E+02 -8.17080E+02
  9.95787E+01 -1.45953E+03  1.22150E+03 -8.52921E+02  8.55977E+02  1.16389E+03 -7.18081E+02  1.13412E+03
 -1.49922E+03  6.97445E+02 -1.46505E+03 -1.23072E+03 -1.03696E+03 -2.36984E+03  2.28884E+02 -1.44363E+03
  6.23156E+02 -6.22934E+02  1.17011E+03  1.76124E+02  1.10187E+03 -2.56301E+02  6.50762E+02  1.33887E+03
 -3.82182E+02 -1.14322E+02 -1.04759E+03 -1.81187E+02  4.52995E+02 -9.57025E+02  1.89465E+03 -1.03115E+03
  1.34632E+03  2.66345E+02  3.05421E+03  7.96461E+02  1.30800E+03  1.70252E+03 -2.74163E+02  1.89953E+03
 -1.56484E+03  4.10046E+02 -1.46101E+03 -1.96943E+02 -8.16515E+02 -1.40054E+03  2.87390E+02 -7.20933E+02
  1.55815E+03 -7.19120E+02  9.44775E+02  7.03766E+02  2.16893E+02  1.52324E+03  3.34002E+02  1.05900E+03
 -1.98686E+02  1.05506E+03 -7.26425E+02  2.27552E+02  3.20492E-02  4.77163E+02 -6.82564E+02  4.28022E+02
 -5.49619E+02  1.13977E+03 -1.86622E+03  4.20447E+02 -1.67238E+03  2.83166E+02 -2.53642E+03 -7.16053E+02
 -1.03962E+03 -2.24950E+03  3.06987E+02 -3.20831E+03  1.17507E+03 -2.44345E+03  3.05635E+03 -8.95121E+02
  2.52801E+03 -2.82183E+02  1.25087E+03  1.41092E+03 -3.33158E+02  1.69104E+03 -7.87021E+02  1.58332E+03
 -6.54305E+02  8.17239E+02 -6.92383E+02 -5.48105E+02 -6.25432E+02  2.89932E+02 -5.57018E+02 -1.00600E+02
 -1.38832E+03 -4.59961E+01 -8.67652E+02  8.06808E+00  2.17662E+02 -6.57315E+02 -3.95866E+02 -1.12800E+03
  1.60812E+03 -7.17805E+02  4.10952E+02 -4.10295E+01  1.18724E+03  1.14908E+03 -2.00233E+02  1.67343E+03
 -1.03238E+03  2.49222E+03 -1.88042E+03  1.31361E+03 -1.81623E+03 -1.41555E+02 -1.25822E+03 -1.22789E+03
 -1.14861E+03 -1.43596E+03  2.33609E+02 -1.23885E+03  7.71777E+02 -3.90137E+02  7.29165E+02  2.44783E+01
  6.94038E+02  3.93590E+02 -1.07747E+02  3.32500E+02 -2.40854E+02 -7.68016E+01 -1.86215E+02 -3.15879E+02
  3.40246E+02  2.50246E+02  4.37886E+02  5.63367E+02 -1.66245E+02  2.41464E+02  5.53418E+02  2.74320E+02
 -5.75376E+02  6.56076E+02 -3.96347E+02  1.47506E+02 -8.65944E+02 -6.00671E+02 -1.22135E+02 -8.68383E+02
  2.88455E+02 -4.35767E+02  5.40466E+02 -3.48853E+01  9.06274E+02 -3.91757E+02  6.32599E+02  6.70251E+02
  6.40967E+02  2.93989E+02 -1.07012E+02  5.90489E+02 -5.41101E+02  7.18141E+02 -3.99467E+02  1.50213E+02
  3.53069E+01 -1.43540E+02 -2.24675E+02  1.21784E+02 -3.93353E+02  6.51337E+01 -7.62390E+02 -2.61147E+02
 -1.15856E+03  1.11126E+02 -2.16690E+02 -1.12669E+03  6.14032E+02 -1.38710E+03  7.50567E+02 -5.42990E+02
  7.03220E+02  2.67783E+02 -3.07632E+02  1.29808E+02 -1.49070E+02  9.89629E+02 -2.98690E+02  9.61201E+02
