 $NMID ID='MM_0lb_SNR800_11hz_g50_5.RAW', FMTDAT='(8E13.5)'
 TRAMP=1., VOLUME=1. $END
  3.10064E+05  7.55275E+01  3.37903E+05  2.50815E+05  8.47872E+04  3.38767E+05 -1.32579E+05  2.51901E+05
 -1.90483E+05  8.32077E+04 -1.12335E+05 -3.23779E+04  5.54489E+02 -5.05040E+04  5.41947E+04 -6.52625E+02
  3.56553E+04  5.30809E+04 -1.71611E+04  7.62190E+04 -6.09842E+04  6.43459E+04 -8.45568E+04  3.24815E+04
 -8.22003E+04 -1.16070E+04 -5.75301E+04 -5.16965E+04 -1.52325E+04 -7.04838E+04  2.80060E+04 -4.64640E+04
  4.06811E+04  3.76380E+03  1.63857E+04  4.81806E+04 -3.45412E+04  4.76999E+04 -6.74008E+04 -2.11054E+02
 -5.43476E+04 -5.73629E+04 -7.50178E+03 -7.82150E+04  3.41487E+04 -5.59686E+04  4.90619E+04 -1.77421E+04
  4.46056E+04  1.18717E+04  3.24949E+04  2.63246E+04  1.60981E+04  3.05877E+04 -5.31453E+03  2.77019E+04
 -2.23059E+04  1.20093E+04 -1.82658E+04 -5.47743E+03  6.76369E+03 -7.61063E+03  2.31225E+04  1.32292E+04
  7.58645E+03  3.66137E+04 -3.34551E+04  3.63379E+04 -6.48984E+04  2.19370E+03 -5.78163E+04 -4.38476E+04
 -1.27265E+04 -6.44432E+04  4.09387E+04 -4.66876E+04  6.02826E+04 -2.41781E+03  3.56490E+04  3.35157E+04
 -5.74800E+03  3.82845E+04 -3.13016E+04  1.79062E+04 -3.21155E+04 -4.04344E+03 -1.83751E+04 -1.16343E+04
 -8.90417E+03 -1.44083E+04 -5.26104E+02 -1.92406E+04  7.88738E+03 -2.30622E+04  1.55915E+04 -1.28721E+04
  1.08739E+04  5.93491E+03 -9.65936E+03  1.30033E+04 -2.30000E+04 -5.73132E+03 -8.28548E+03 -3.62057E+04
  2.43499E+04 -4.54403E+04  5.02801E+04 -2.05124E+04  4.72080E+04  2.00245E+04  1.66266E+04  4.64765E+04
 -1.59515E+04  3.51159E+04 -2.69476E+04  2.28066E+03 -1.09677E+04 -2.86613E+04  2.13982E+04 -3.57152E+04
  4.30679E+04 -1.02126E+04  3.83654E+04  2.42875E+04  2.04786E+04  4.89191E+04 -7.83078E+03  5.40090E+04
 -3.43059E+04  3.68319E+04 -4.49298E+04  1.02975E+04 -4.55013E+04 -1.78280E+04 -2.50792E+04 -4.04208E+04
  7.19527E+03 -4.06354E+04  3.30417E+04 -1.59493E+04  3.08884E+04  1.07104E+04  4.94411E+03  2.00776E+04
 -1.40292E+04  9.14521E+03 -1.08061E+04 -7.49639E+03  5.46544E+03 -1.09329E+04  1.88147E+04  5.74254E+03
  1.40642E+04  2.25362E+04 -5.56779E+03  2.64574E+04 -2.28917E+04  1.32059E+04 -3.03424E+04 -3.85463E+03
 -2.34597E+04 -1.80192E+04 -1.04536E+04 -2.30608E+04  4.41971E+03 -2.33961E+04  1.82072E+04 -2.14646E+04
  2.97742E+04 -1.37462E+04  3.61685E+04  4.07289E+03  2.58386E+04  2.28376E+04  4.13362E+03  3.92392E+04
 -1.87401E+04  3.25572E+04 -2.96540E+04  1.15673E+04 -2.18636E+04 -1.01332E+04 -4.52635E+03 -1.31322E+04
  1.19935E+03 -1.49484E+03 -6.55127E+03  7.38418E+03 -1.84388E+04  4.98027E+03 -1.84220E+04 -8.04059E+03
 -1.12855E+04 -2.14419E+04  6.04434E+03 -2.58382E+04  1.72326E+04 -1.84188E+04  2.09526E+04 -1.56565E+03
  1.31971E+04  1.49361E+04 -1.23964E+03  2.14515E+04 -1.50042E+04  1.24042E+04 -2.16512E+04 -4.36788E+03
 -1.60237E+04 -1.94892E+04 -2.33557E+03 -2.62062E+04  1.15643E+04 -2.17367E+04  2.13683E+04 -1.05607E+04
  2.01442E+04 -1.19798E+02  1.45244E+04  5.06440E+03  8.15798E+03  9.92927E+02  1.12260E+04 -1.85238E+03
  2.01827E+04  3.39710E+03  2.32351E+04  1.70384E+04  1.55198E+04  3.44665E+04 -2.79041E+03  3.97126E+04
 -2.28626E+04  3.30638E+04 -3.76328E+04  1.69041E+04 -4.03321E+04 -2.99650E+03 -3.25227E+04 -2.35437E+04
 -1.31363E+04 -3.31138E+04  1.16955E+04 -2.96411E+04  2.52323E+04 -1.41311E+04  2.23374E+04  7.00415E+03
  7.68757E+03  1.68069E+04 -1.03759E+04  1.42313E+04 -1.82106E+04  2.32961E+03 -1.41646E+04 -1.15659E+04
 -3.56647E+02 -1.75841E+04  9.75534E+03 -1.32351E+04  1.19013E+04 -1.35745E+03  3.16820E+03  7.78965E+03
 -7.67030E+03  3.76312E+03 -7.83427E+03 -6.55291E+03 -1.28312E+03 -1.61898E+04  1.12113E+04 -1.73659E+04
  2.00130E+04 -9.79416E+03  2.28991E+04  3.14714E+03  2.02766E+04  1.62024E+04  9.25230E+03  2.56516E+04
 -4.55182E+03  2.73409E+04 -1.79344E+04  1.70941E+04 -2.00274E+04  3.72300E+03 -1.36285E+04 -5.25187E+03
 -5.90178E+03 -5.97197E+03 -3.79761E+02  6.32258E+02 -2.34908E+03  3.16142E+03 -6.53806E+03  4.80177E+03
 -1.27328E+04 -8.51228E+02 -1.34177E+04 -1.07284E+04 -5.58689E+03 -1.75158E+04  5.87964E+03 -1.39336E+04
  1.14052E+04 -5.57462E+03  8.07271E+03  3.68628E+03  2.05536E+02  5.48157E+03 -6.82532E+03 -4.39416E+01
 -6.39556E+03 -8.79979E+03 -1.23884E+03 -1.34427E+04  7.75580E+03 -1.43278E+04  1.73869E+04 -7.56990E+03
  2.03763E+04  1.90061E+03  1.51116E+04  1.18045E+04  3.06039E+03  1.65806E+04 -8.79462E+03  1.38861E+04
 -1.09924E+04  3.91583E+03 -5.88637E+03 -3.01414E+03  1.58125E+03 -3.68074E+03  7.30543E+03 -8.44179E+02
  6.48220E+03  5.68807E+03  1.15691E+03  1.08224E+04 -7.69223E+03  1.09780E+04 -1.35506E+04  2.19317E+03
 -9.01135E+03 -6.88005E+03  3.55190E+02 -1.17334E+04  7.46228E+03 -5.91423E+03  7.77632E+03  2.61440E+03
  1.61432E+03  8.11828E+03 -7.02413E+03  9.79542E+03 -1.12837E+04  4.72050E+03 -1.11348E+04 -3.84781E+03
 -6.79094E+03 -1.33354E+04  3.40893E+03 -1.51835E+04  1.32841E+04 -9.17392E+03  1.41518E+04  2.32630E+03
  8.77867E+03  1.13410E+04 -1.26858E+03  1.34251E+04 -1.00635E+04  7.72383E+03 -1.11930E+04 -9.64049E+02
 -9.64659E+03 -9.14430E+03 -1.56191E+03 -1.03572E+04  5.23055E+03 -8.42670E+03  6.41611E+03 -3.40739E+03
  3.96053E+03  1.78224E+03 -7.94817E+02  1.59163E+03 -5.68069E+02 -2.74780E+03  1.87874E+03 -5.97491E+03
  9.45901E+03 -3.58195E+03  1.33824E+04  1.50768E+03  1.31078E+04  9.36743E+03  8.80640E+03  1.70387E+04
 -3.93888E+03  1.98312E+04 -1.65675E+04  1.46038E+04 -2.14511E+04  2.65459E+03 -1.74178E+04 -7.21008E+03
 -8.96363E+03 -1.38005E+04 -4.97920E+02 -1.18754E+04  4.35843E+03 -6.62888E+03  4.28091E+03 -4.29823E+03
  3.26825E+03 -2.32357E+03  3.31476E+03 -3.32087E+03  5.25256E+03 -2.93709E+03  6.88958E+03 -1.09360E+03
  8.95288E+03  2.17134E+03  4.34765E+03  7.44403E+03 -1.97220E+03  8.88472E+03 -9.10733E+03  6.91394E+03
 -1.19359E+04 -1.22381E+03 -7.09273E+03 -8.40586E+03 -7.45507E+02 -1.30952E+04  7.21363E+03 -1.26990E+04
  1.35744E+04 -7.11197E+03  1.59147E+04  2.10796E+03  1.12000E+04  1.10898E+04  1.59696E+03  1.41229E+04
 -6.06895E+03  1.16959E+04 -8.29669E+03  4.20660E+03 -5.77551E+03 -1.22254E+03 -2.18351E+03 -1.42981E+03
 -1.31463E+03 -4.22455E+01 -2.04352E+03  2.57241E+03 -4.88301E+03  1.78376E+03 -8.26196E+03 -1.18000E+03
 -5.62649E+03 -8.24865E+03  1.84597E+02 -1.16152E+04  6.92278E+03 -1.08695E+04  1.18436E+04 -3.36485E+03
  1.14386E+04  5.89923E+03  5.33284E+03  1.02406E+04 -2.22369E+03  1.16407E+04 -8.03060E+03  7.07694E+03
 -1.09757E+04  3.52956E+02 -8.65391E+03 -6.55747E+03 -1.10459E+03 -9.41614E+03  5.00555E+03 -7.06657E+03
  7.66436E+03 -2.52508E+03  4.88608E+03  2.44322E+03  1.64322E+03  3.37040E+03  1.19801E+03  1.58356E+03
  2.89295E+03  1.00331E+03  2.97713E+03  1.46210E+03  3.06315E+03  4.32139E+03  3.21562E+03  5.92000E+03
 -2.83945E+03  9.21130E+03 -7.93484E+03  9.21922E+03 -1.15110E+04  2.79049E+03 -1.22175E+04 -4.52212E+03
 -5.55890E+03 -1.18166E+04  1.72780E+03 -1.30640E+04  7.27640E+03 -8.26162E+03  9.45378E+03 -2.12760E+03
  7.47719E+03  4.36968E+03  1.73729E+03  6.75786E+03 -2.94698E+03  4.15311E+03 -4.68933E+03 -4.72217E+02
 -2.05928E+03 -4.88914E+03  2.84275E+03 -5.09072E+03  4.50669E+03 -2.91063E+03  4.62369E+03  1.18058E+03
  2.26681E+03  2.67062E+03  1.17987E+03  1.82314E+03 -1.01182E+03  1.85383E+03  1.80686E+03 -3.60026E+02
  1.82713E+03 -7.92470E+02  5.02441E+03  2.06278E+03  2.30050E+03  5.82482E+03 -1.41011E+03  8.25287E+03
 -5.30011E+03  5.06362E+03 -7.33445E+03  1.20808E+03 -6.47716E+03 -2.54084E+03 -2.43810E+03 -4.22840E+03
  5.40405E+02 -4.22291E+03  2.90548E+03 -2.33262E+03  2.92356E+03  2.38851E+03 -1.00334E+03  3.83952E+03
 -4.97185E+03  1.86647E+03 -5.34008E+03 -2.83823E+03 -2.89994E+03 -6.57454E+03  9.32243E+02 -5.69843E+03
  3.83463E+03 -3.41982E+03  4.19951E+03 -3.56286E+02  3.93562E+03  1.54970E+03  7.21511E+02  3.12115E+03
 -2.32182E+03  7.09846E+02 -2.69599E+03 -1.93075E+03  1.11472E+03 -4.63268E+03  5.39367E+03 -3.85212E+03
  6.95804E+03  1.03566E+03  7.30298E+03  4.49220E+03  2.15410E+03  7.54270E+03 -2.56066E+03  6.61287E+03
 -6.05345E+03  2.71469E+03 -6.26647E+03 -8.83036E+02 -3.19068E+03 -4.87477E+03  1.37581E+03 -4.26557E+03
  4.78709E+03 -2.15138E+03  3.94045E+03  2.13295E+03  1.34770E+03  4.27778E+03 -7.33511E+02  3.79227E+03
 -1.98221E+03  2.77435E+03 -1.98635E+03  4.42934E+02 -8.77384E+02  8.53583E+02 -1.22463E+03  1.65532E+03
 -2.02276E+03  2.91689E+03 -5.03851E+03  2.28076E+03 -7.05824E+03  2.74512E+02 -8.09654E+03 -5.00227E+03
 -4.11556E+03 -9.60646E+03  1.81906E+03 -1.09731E+04  6.63926E+03 -8.42633E+03  1.03226E+04 -3.21908E+03
  9.82054E+03  1.73137E+03  6.07848E+03  6.54111E+03  2.28198E+02  7.66198E+03 -3.05267E+03  5.57882E+03
 -4.22022E+03  2.05699E+03 -1.90897E+03 -1.27076E+03 -9.43248E+02 -8.00999E+02 -4.81851E+02  1.95126E+02
 -1.87432E+03 -3.34367E+01 -1.71777E+03  1.16516E+02 -6.20971E+02 -1.65212E+03 -3.44631E+02 -3.35110E+03
  3.27005E+03 -2.43865E+03  4.16067E+03 -7.84929E+01  5.28359E+03  3.77265E+03  9.24819E+02  7.10922E+03
 -3.63953E+03  8.25072E+03 -7.88101E+03  4.67804E+03 -8.78019E+03 -7.59530E+02 -6.64457E+03 -5.78068E+03
 -2.78683E+03 -7.41535E+03  1.84393E+03 -6.65244E+03  4.47905E+03 -3.85525E+03  4.50537E+03  4.87796E+02
  2.79522E+03  2.41530E+03 -4.21625E+01  2.07342E+03 -1.39306E+03 -6.30398E+01  9.99016E+00 -1.60188E+03
  2.39034E+03 -8.06713E+02  2.62657E+03  1.02495E+03  2.02230E+03  2.92244E+03  5.40963E+02  3.46085E+03
 -3.46641E+03  3.17946E+03 -4.75114E+03  2.85069E+02 -4.46022E+03 -3.28557E+03 -7.66155E+02 -5.80616E+03
  3.81805E+03 -5.17891E+03  5.14770E+03 -1.30660E+03  5.12664E+03  7.35262E+02  3.01578E+03  4.49014E+03
  7.96551E+02  4.43800E+03 -1.90022E+03  3.65369E+03 -2.92117E+03  1.71850E+03 -2.28209E+03  3.74680E+02
 -1.51046E+03 -3.77519E+02 -1.42542E+03  8.87254E+02 -2.40949E+03  7.59377E+02 -3.82384E+03 -8.02658E+02
 -3.57749E+03 -2.46792E+03 -1.17429E+03 -4.51342E+03  2.20030E+03 -5.31516E+03  3.86329E+03 -2.32255E+03
  4.43584E+03  6.16313E+02  2.25581E+03  3.08760E+03 -7.22977E+02  4.93855E+03 -3.17611E+03  2.90727E+03
