 $NMID ID='MM_0lb_SNR800_8hz_g50_74.RAW', FMTDAT='(8E13.5)'
 TRAMP=1., VOLUME=1. $END
  3.09686E+05  4.56483E+02  3.38249E+05  2.50759E+05  8.46585E+04  3.38978E+05 -1.32717E+05  2.52032E+05
 -1.90827E+05  8.38066E+04 -1.12683E+05 -3.25233E+04  4.56420E+02 -5.08904E+04  5.36181E+04 -9.10319E+02
  3.56458E+04  5.26345E+04 -1.69008E+04  7.62085E+04 -6.07125E+04  6.41462E+04 -8.60174E+04  3.29022E+04
 -8.21718E+04 -1.18407E+04 -5.79754E+04 -5.25479E+04 -1.50183E+04 -7.12605E+04  2.78346E+04 -4.71854E+04
  4.13692E+04  3.36659E+03  1.70333E+04  4.86500E+04 -3.51472E+04  4.88077E+04 -6.82303E+04  8.35270E+01
 -5.53079E+04 -5.78392E+04 -7.18132E+03 -7.92105E+04  3.49817E+04 -5.72961E+04  5.00677E+04 -1.85904E+04
  4.53131E+04  1.16818E+04  3.31931E+04  2.66514E+04  1.58988E+04  3.07560E+04 -6.24050E+03  2.78074E+04
 -2.23716E+04  1.18246E+04 -1.82266E+04 -5.73482E+03  7.29223E+03 -7.79022E+03  2.38568E+04  1.40720E+04
  6.95715E+03  3.74331E+04 -3.38125E+04  3.74236E+04 -6.60949E+04  1.95520E+03 -5.88184E+04 -4.52795E+04
 -1.26037E+04 -6.66185E+04  4.19417E+04 -4.71936E+04  6.16627E+04 -2.75259E+03  3.70919E+04  3.49056E+04
 -5.78527E+03  4.00768E+04 -3.19615E+04  1.92936E+04 -3.39642E+04 -3.52473E+03 -1.96014E+04 -1.20154E+04
 -9.52045E+03 -1.57120E+04 -1.55709E+01 -2.01398E+04  8.65944E+03 -2.34717E+04  1.57404E+04 -1.28107E+04
  1.05171E+04  6.76480E+03 -1.12462E+04  1.32139E+04 -2.36226E+04 -7.24652E+03 -8.81370E+03 -3.87099E+04
  2.59412E+04 -4.74300E+04  5.28871E+04 -2.14199E+04  4.97592E+04  2.09125E+04  1.80691E+04  4.74840E+04
 -1.66996E+04  3.65073E+04 -2.79672E+04  2.70160E+03 -1.16922E+04 -3.03400E+04  2.16748E+04 -3.78142E+04
  4.51959E+04 -1.12629E+04  4.13954E+04  2.55867E+04  2.20071E+04  5.19201E+04 -8.56306E+03  5.72790E+04
 -3.63603E+04  3.91239E+04 -4.86717E+04  1.08503E+04 -4.87222E+04 -1.90379E+04 -2.60582E+04 -4.29289E+04
  8.06831E+03 -4.27176E+04  3.49400E+04 -1.75845E+04  3.21782E+04  1.13083E+04  5.15753E+03  2.10868E+04
 -1.40305E+04  9.62081E+03 -1.17197E+04 -7.59244E+03  5.33349E+03 -1.14314E+04  1.93768E+04  5.14264E+03
  1.53701E+04  2.27265E+04 -5.02782E+03  2.78994E+04 -2.36767E+04  1.56065E+04 -3.25795E+04 -2.85891E+03
 -2.61379E+04 -1.89411E+04 -1.18326E+04 -2.58377E+04  4.35544E+03 -2.68048E+04  2.08883E+04 -2.40549E+04
  3.33766E+04 -1.43882E+04  3.89176E+04  5.12859E+03  2.76492E+04  2.52294E+04  4.28576E+03  4.26024E+04
 -2.01458E+04  3.46600E+04 -3.13163E+04  1.22201E+04 -2.31315E+04 -1.07168E+04 -5.35508E+03 -1.29621E+04
  1.94179E+02 -9.47747E+02 -7.92280E+03  8.60431E+03 -2.09769E+04  4.69759E+03 -2.09821E+04 -1.03312E+04
 -1.26485E+04 -2.45517E+04  6.06667E+03 -2.87121E+04  1.98201E+04 -2.04849E+04  2.33860E+04 -1.80240E+03
  1.54639E+04  1.62659E+04 -1.27947E+03  2.42893E+04 -1.76780E+04  1.39559E+04 -2.45701E+04 -4.96245E+03
 -1.75839E+04 -2.17720E+04 -2.27620E+03 -2.93656E+04  1.28256E+04 -2.43827E+04  2.42029E+04 -1.25878E+04
  2.29844E+04 -6.22687E+02  1.63283E+04  5.32067E+03  9.36180E+03  1.35447E+03  1.30932E+04 -2.33900E+03
  2.33290E+04  2.80748E+03  2.66811E+04  1.89527E+04  1.83579E+04  3.92786E+04 -2.13866E+03  4.62482E+04
 -2.64366E+04  3.86727E+04 -4.36378E+04  2.05595E+04 -4.72407E+04 -3.30018E+03 -3.79703E+04 -2.73844E+04
 -1.47929E+04 -3.93647E+04  1.35650E+04 -3.40565E+04  2.92254E+04 -1.62398E+04  2.53400E+04  8.46784E+03
  8.03006E+03  1.98531E+04 -1.21026E+04  1.66570E+04 -2.10809E+04  2.46159E+03 -1.60663E+04 -1.37418E+04
 -5.78880E+02 -2.04928E+04  1.07131E+04 -1.51180E+04  1.40317E+04 -1.60139E+03  3.93435E+03  9.17789E+03
 -8.84335E+03  4.63085E+03 -9.77486E+03 -7.30685E+03 -2.43776E+03 -1.91809E+04  1.20750E+04 -2.10345E+04
  2.44831E+04 -1.22288E+04  2.83272E+04  3.30269E+03  2.47288E+04  1.98770E+04  1.14830E+04  3.11224E+04
 -5.98044E+03  3.28536E+04 -2.14642E+04  2.03250E+04 -2.42171E+04  4.47484E+03 -1.65759E+04 -6.28989E+03
 -6.59919E+03 -7.87250E+03  6.33504E+01  7.90465E+02 -2.91823E+03  3.36748E+03 -8.30005E+03  5.51989E+03
 -1.52355E+04 -1.02388E+03 -1.56239E+04 -1.27530E+04 -6.10900E+03 -2.01789E+04  6.71829E+03 -1.70124E+04
  1.37850E+04 -7.00644E+03  9.51708E+03  4.66079E+03 -4.68018E+02  6.20399E+03 -8.81477E+03 -1.82783E+02
 -8.11627E+03 -1.06654E+04 -1.05019E+03 -1.62623E+04  1.00254E+04 -1.77894E+04  2.16339E+04 -9.77967E+03
  2.52857E+04  2.44312E+03  1.83796E+04  1.57450E+04  3.74644E+03  2.00605E+04 -1.02989E+04  1.63857E+04
 -1.30310E+04  4.79788E+03 -6.47188E+03 -3.51768E+03  2.28287E+03 -4.63668E+03  9.15335E+03 -1.04054E+03
  7.27879E+03  7.52282E+03  1.34320E+03  1.34029E+04 -9.93016E+03  1.27806E+04 -1.67823E+04  2.94477E+03
 -1.16028E+04 -8.91444E+03  5.68085E+02 -1.47232E+04  9.82448E+03 -7.55393E+03  1.01367E+04  3.68815E+03
  2.47126E+03  1.10461E+04 -8.52416E+03  1.24509E+04 -1.45109E+04  5.45731E+03 -1.54014E+04 -5.54531E+03
 -8.53597E+03 -1.72816E+04  4.18228E+03 -1.92449E+04  1.67301E+04 -1.16835E+04  1.86229E+04  3.50703E+03
  1.11800E+04  1.47225E+04 -1.65237E+03  1.68277E+04 -1.29575E+04  9.11952E+03 -1.43975E+04 -1.52356E+03
 -1.13828E+04 -1.12691E+04 -1.67766E+03 -1.35058E+04  6.95366E+03 -1.05979E+04  8.32204E+03 -3.88516E+03
  5.08085E+03  2.36141E+03 -1.30097E+03  2.05922E+03 -1.05217E+03 -4.11815E+03  3.06451E+03 -8.48126E+03
  1.31343E+04 -5.30922E+03  1.80919E+04  1.83382E+03  1.72098E+04  1.20131E+04  1.05697E+04  2.29569E+04
 -5.32229E+03  2.63883E+04 -2.20344E+04  1.94776E+04 -2.85451E+04  4.06740E+03 -2.29742E+04 -1.00786E+04
 -1.12424E+04 -1.83705E+04 -3.34010E+02 -1.60440E+04  5.69009E+03 -9.39270E+03  5.74191E+03 -5.84090E+03
  4.59799E+03 -3.90936E+03  4.63650E+03 -3.89524E+03  6.06434E+03 -4.11786E+03  9.11259E+03 -1.05002E+03
  1.20674E+04  2.79494E+03  6.44028E+03  1.06334E+04 -2.08203E+03  1.26173E+04 -1.25166E+04  9.74329E+03
 -1.60492E+04 -1.21658E+03 -1.11009E+04 -1.13523E+04 -2.04725E+03 -1.75535E+04  9.82544E+03 -1.77004E+04
  1.88214E+04 -9.98537E+03  2.17144E+04  3.16160E+03  1.49338E+04  1.52642E+04  2.44485E+03  1.97861E+04
 -8.39725E+03  1.59648E+04 -1.21901E+04  5.53199E+03 -7.89180E+03 -2.08660E+03 -3.53296E+03 -2.54376E+03
 -1.45532E+03 -2.43330E+02 -2.56121E+03  2.81150E+03 -6.72762E+03  2.96753E+03 -1.12277E+04 -2.00379E+03
 -8.42237E+03 -1.13866E+04 -3.60243E+02 -1.68280E+04  1.05861E+04 -1.52936E+04  1.67638E+04 -4.91698E+03
  1.70484E+04  8.22485E+03  7.79537E+03  1.50802E+04 -3.24728E+03  1.70401E+04 -1.22522E+04  1.00694E+04
 -1.62381E+04  4.50157E+02 -1.19725E+04 -1.01045E+04 -1.09930E+03 -1.39619E+04  7.19975E+03 -1.03965E+04
  1.07087E+04 -3.49318E+03  7.53263E+03  3.01200E+03  2.59425E+03  4.88170E+03  1.82509E+03  2.96677E+03
  3.28028E+03  1.18299E+03  3.80966E+03  2.04903E+03  4.63053E+03  5.64957E+03  3.95986E+03  9.40910E+03
 -3.35094E+03  1.32906E+04 -1.18203E+04  1.30342E+04 -1.81156E+04  3.37640E+03 -1.80751E+04 -7.55389E+03
 -8.52607E+03 -1.71926E+04  2.62823E+03 -1.85383E+04  1.07007E+04 -1.20772E+04  1.47378E+04 -2.70623E+03
  1.03592E+04  5.88186E+03  2.34091E+03  9.26261E+03 -4.90349E+03  6.70109E+03 -7.41921E+03 -1.02053E+03
 -3.12392E+03 -6.96090E+03  3.28226E+03 -8.29692E+03  7.44630E+03 -3.58239E+03  7.45975E+03  1.83991E+03
  4.05851E+03  3.93466E+03  1.26772E+03  2.47533E+03 -5.67765E+02  2.29532E+03  1.65755E+03 -8.32284E+02
  2.96722E+03 -9.24890E+02  6.85441E+03  3.07297E+03  4.20593E+03  9.37641E+03 -1.34083E+03  1.19591E+04
 -8.48280E+03  7.62986E+03 -1.10606E+04  2.18161E+03 -1.01296E+04 -4.06378E+03 -4.04720E+03 -6.88430E+03
  8.45324E+02 -6.82925E+03  4.60526E+03 -3.86785E+03  3.80232E+03  3.60585E+03 -1.52241E+03  5.58756E+03
 -7.15887E+03  3.91638E+03 -8.93768E+03 -4.12105E+03 -4.71571E+03 -1.01115E+04  1.37916E+03 -1.04296E+04
  5.61219E+03 -6.18970E+03  7.41538E+03 -1.13308E+03  6.21741E+03  2.86827E+03  9.48681E+02  5.30565E+03
 -3.56670E+03  1.92215E+03 -4.14302E+03 -3.33346E+03  1.51687E+03 -7.61752E+03  8.78083E+03 -6.34568E+03
  1.15672E+04  5.81238E+02  1.07364E+04  7.74910E+03  3.24488E+03  1.20542E+04 -4.20630E+03  1.12021E+04
 -9.24700E+03  5.10152E+03 -9.62075E+03 -1.57778E+03 -5.22150E+03 -7.68827E+03  1.70862E+03 -7.51465E+03
  7.23459E+03 -3.13358E+03  5.76401E+03  3.20941E+03  2.60912E+03  6.64935E+03 -1.25261E+03  5.87947E+03
 -3.47288E+03  3.51956E+03 -2.76644E+03  9.06248E+02 -1.61230E+03  9.55812E+02 -1.84114E+03  2.27450E+03
 -2.85788E+03  4.34261E+03 -7.60653E+03  4.36653E+03 -1.19128E+04  1.51116E+02 -1.27579E+04 -7.73310E+03
 -7.34909E+03 -1.58942E+04  3.33786E+03 -1.80492E+04  1.17637E+04 -1.40653E+04  1.73183E+04 -5.38857E+03
  1.61153E+04  3.48235E+03  1.04456E+04  1.08721E+04  7.47882E+02  1.23492E+04 -5.05881E+03  9.28658E+03
 -6.90047E+03  3.75038E+03 -4.08763E+03 -1.44307E+03 -1.23304E+03 -1.20957E+03 -6.64437E+02  6.52560E+01
 -2.08323E+03  5.16023E+02 -2.34482E+03 -2.52333E+02 -1.05545E+03 -3.07525E+03  3.79751E+02 -4.43151E+03
  5.04648E+03 -3.77035E+03  7.60313E+03 -3.22017E+02  8.81209E+03  6.53181E+03  2.30174E+03  1.27677E+04
 -5.96649E+03  1.44027E+04 -1.30088E+04  8.29904E+03 -1.52855E+04 -1.49869E+03 -1.16127E+04 -9.39364E+03
 -5.03357E+03 -1.29680E+04  3.48910E+03 -1.16919E+04  8.16234E+03 -6.10762E+03  8.02872E+03  7.44753E+02
  4.53874E+03  4.11420E+03 -7.31712E+02  3.77171E+03 -2.45644E+03  7.49252E+01 -2.83132E+02 -3.06758E+03
  3.79643E+03 -2.04034E+03  4.72248E+03  1.46713E+03  3.28770E+03  4.77127E+03 -1.64532E+02  6.77336E+03
 -5.30181E+03  5.48468E+03 -9.06619E+03  6.53454E+02 -7.68142E+03 -5.95544E+03 -1.29633E+03 -1.05939E+04
  6.10249E+03 -9.00311E+03  1.00956E+04 -2.91365E+03  9.99401E+03  2.79600E+03  5.82244E+03  7.96745E+03
  1.09667E+03  8.60725E+03 -3.53560E+03  6.90071E+03 -5.03676E+03  3.86847E+03 -4.24546E+03  5.35111E+02
 -2.34216E+03 -3.23611E+02 -2.18325E+03  9.02724E+02 -4.90142E+03  1.23194E+03 -6.69488E+03 -1.13227E+03
 -6.33267E+03 -5.07942E+03 -2.35180E+03 -8.84173E+03  4.37624E+03 -8.78155E+03  7.88327E+03 -4.29935E+03
  8.70227E+03  8.36218E+02  4.77989E+03  6.36766E+03 -6.41856E+02  8.71885E+03 -6.83091E+03  6.41156E+03
