 $NMID ID='MM_0lb_SNR800_20hz_g60_2.RAW', FMTDAT='(8E13.5)'
 TRAMP=1., VOLUME=1. $END
  3.09673E+05  3.56274E+02  3.37356E+05  2.50903E+05  8.43608E+04  3.37496E+05 -1.32253E+05  2.50605E+05
 -1.90000E+05  8.25845E+04 -1.11336E+05 -3.26317E+04  1.34471E+03 -4.99622E+04  5.39911E+04  5.71193E+01
  3.51361E+04  5.28997E+04 -1.69180E+04  7.53354E+04 -6.04787E+04  6.34254E+04 -8.36388E+04  3.17739E+04
 -8.01867E+04 -1.12138E+04 -5.64820E+04 -5.06544E+04 -1.50956E+04 -6.88271E+04  2.69756E+04 -4.51367E+04
  3.93308E+04  3.64309E+03  1.57720E+04  4.74544E+04 -3.39092E+04  4.67185E+04 -6.58535E+04 -4.93760E+02
 -5.23907E+04 -5.60226E+04 -6.17756E+03 -7.58828E+04  3.34904E+04 -5.40108E+04  4.67788E+04 -1.65046E+04
  4.22552E+04  1.10772E+04  3.12354E+04  2.46434E+04  1.58966E+04  2.88088E+04 -5.00525E+03  2.69983E+04
 -2.19787E+04  1.22293E+04 -1.90272E+04 -4.48638E+03  4.70349E+03 -7.33309E+03  2.17529E+04  1.13769E+04
  7.57293E+03  3.40298E+04 -3.12594E+04  3.44310E+04 -6.18801E+04  2.26570E+03 -5.60276E+04 -4.15101E+04
 -1.25260E+04 -6.14167E+04  3.87903E+04 -4.40913E+04  5.64445E+04 -1.86009E+03  3.26762E+04  3.10925E+04
 -6.14585E+03  3.42083E+04 -2.88076E+04  1.41436E+04 -2.84740E+04 -5.03313E+03 -1.48862E+04 -1.01417E+04
 -7.72289E+03 -1.18237E+04 -1.12752E+03 -1.70163E+04  6.68997E+03 -2.25869E+04  1.51548E+04 -1.39763E+04
  1.17061E+04  4.61084E+03 -6.86154E+03  1.28369E+04 -1.99384E+04 -3.17604E+03 -8.06554E+03 -3.14415E+04
  2.14976E+04 -4.14822E+04  4.56398E+04 -1.90497E+04  4.28170E+04  1.86000E+04  1.45280E+04  4.24466E+04
 -1.55469E+04  3.15617E+04 -2.38671E+04  1.15208E+03 -8.43993E+03 -2.65573E+04  2.05271E+04 -3.16905E+04
  3.87834E+04 -7.72479E+03  3.22848E+04  2.27418E+04  1.60840E+04  4.34524E+04 -7.77871E+03  4.63020E+04
 -2.89752E+04  3.06103E+04 -3.83827E+04  8.75798E+03 -3.91234E+04 -1.54531E+04 -2.16200E+04 -3.50219E+04
  7.12404E+03 -3.45873E+04  2.97282E+04 -1.32516E+04  2.71851E+04  1.07837E+04  2.94621E+03  1.80788E+04
 -1.30656E+04  7.51646E+03 -9.90324E+03 -7.45417E+03  5.94826E+03 -9.88847E+03  1.72495E+04  6.50612E+03
  1.27674E+04  2.15626E+04 -6.54392E+03  2.37538E+04 -2.14453E+04  9.57155E+03 -2.57705E+04 -5.92601E+03
 -1.71848E+04 -1.63695E+04 -6.01775E+03 -1.74188E+04  3.67410E+03 -1.52315E+04  1.29259E+04 -1.51601E+04
  2.19791E+04 -1.16516E+04  2.86443E+04  9.94952E+02  2.18186E+04  1.65193E+04  4.23623E+03  3.30399E+04
 -1.63322E+04  2.78821E+04 -2.59430E+04  9.62389E+03 -1.97141E+04 -1.06576E+04 -3.82769E+03 -1.38511E+04
  2.21919E+03 -3.93916E+03 -2.95511E+03  5.49462E+03 -1.32144E+04  5.27556E+03 -1.35770E+04 -5.19722E+03
 -8.62169E+03 -1.59642E+04  4.66679E+03 -1.99536E+04  1.29268E+04 -1.43126E+04  1.50745E+04 -1.56754E+03
  9.22042E+03  1.11058E+04 -7.48997E+02  1.58184E+04 -1.04574E+04  9.17058E+03 -1.57712E+04 -3.55323E+03
 -1.18785E+04 -1.44517E+04 -1.43188E+03 -1.93822E+04  8.49895E+03 -1.55011E+04  1.64685E+04 -7.42784E+03
  1.47503E+04  5.88434E+02  1.06888E+04  4.03239E+03  5.36453E+03  4.80369E+02  7.93698E+03 -1.35033E+03
  1.40509E+04  2.93605E+03  1.49706E+04  1.27430E+04  9.08771E+03  2.51121E+04 -3.17360E+03  2.71602E+04
 -1.58878E+04  2.05158E+04 -2.48682E+04  9.72276E+03 -2.52942E+04 -1.78908E+03 -2.14630E+04 -1.45834E+04
 -1.01099E+04 -2.06853E+04  7.00886E+03 -1.89716E+04  1.67313E+04 -1.08255E+04  1.57725E+04  3.84156E+03
  6.51230E+03  1.09571E+04 -7.04021E+03  1.06402E+04 -1.35212E+04  2.70175E+03 -1.04042E+04 -8.21365E+03
  1.99552E+02 -1.26167E+04  6.08164E+03 -9.70919E+03  8.26977E+03 -1.40123E+03  1.46939E+03  4.97333E+03
 -5.59978E+03  9.58397E+02 -3.68180E+03 -4.59565E+03  4.48750E+02 -1.03211E+04  7.73186E+03 -1.00871E+04
  1.21815E+04 -4.59700E+03  1.21239E+04  2.71407E+03  1.02435E+04  9.51380E+03  4.74354E+03  1.39036E+04
 -1.63187E+03  1.58045E+04 -9.10802E+03  9.99299E+03 -1.09712E+04  3.09484E+03 -8.40992E+03 -1.95291E+03
 -4.50368E+03 -3.21138E+03 -9.39259E+02  1.70012E+03 -1.87382E+03  1.88237E+03 -3.46855E+03  3.50109E+03
 -7.63676E+03 -4.34128E+02 -8.76772E+03 -7.26178E+03 -3.64174E+03 -1.14997E+04  3.31207E+03 -8.22933E+03
  6.88671E+03 -3.46043E+03  5.27399E+03  2.13243E+03  6.91302E+02  2.87103E+03 -3.52606E+03 -1.09650E+01
 -3.54582E+03 -4.95164E+03 -7.84868E+02 -6.96791E+03  3.81562E+03 -7.69769E+03  9.64629E+03 -3.90044E+03
  1.16029E+04  4.78561E+02  8.46776E+03  5.96475E+03  1.73094E+03  8.32431E+03 -5.08186E+03  8.26584E+03
 -6.65600E+03  2.69535E+03 -3.43517E+03 -1.17240E+03  1.31618E+03 -1.91304E+03  4.91692E+03 -1.24901E+03
  4.19910E+03  3.40232E+03  9.58899E+02  6.03210E+03 -4.40460E+03  6.34324E+03 -7.67116E+03  1.71662E+03
 -4.69066E+03 -3.47876E+03  3.73961E+02 -6.54507E+03  3.66337E+03 -3.02613E+03  3.31483E+03  8.28715E+02
  5.32094E+02  3.30521E+03 -3.95015E+03  4.38644E+03 -4.60223E+03  2.08688E+03 -4.24423E+03 -1.03080E+03
 -2.83348E+03 -5.48984E+03  1.00323E+03 -6.49295E+03  5.69636E+03 -4.57260E+03  5.86430E+03  8.37547E+02
  4.26398E+03  4.71822E+03  9.64901E+01  7.04924E+03 -4.68686E+03  4.10495E+03 -4.93443E+03 -3.47754E+02
 -5.25551E+03 -4.79450E+03 -1.44591E+03 -4.93861E+03  2.48654E+03 -4.34807E+03  2.54646E+03 -2.92794E+03
  2.80349E+03 -6.65992E+01 -1.37179E+02  1.23247E+03  4.26714E+02  2.59683E+01  4.41537E+01 -1.76063E+03
  3.42801E+03 -4.73261E+02  4.77334E+03  8.52176E+02  5.13773E+03  2.76835E+03  5.07593E+03  6.36685E+03
 -1.01221E+03  7.71358E+03 -6.94671E+03  5.69920E+03 -8.68952E+03  1.16278E+03 -6.84874E+03 -2.24979E+03
 -3.83946E+03 -5.68710E+03 -2.88274E+02 -4.19766E+03  1.89923E+03 -1.93840E+03  1.43203E+03 -1.75911E+03
  9.09308E+02 -1.64099E+03  2.12899E+03 -2.27350E+03  3.23039E+03 -1.15339E+03  3.50271E+03  3.22647E+02
  4.20832E+03  1.10819E+03  8.78604E+02  3.12615E+03 -1.30211E+03  2.40447E+03 -4.13716E+03  2.10153E+03
 -4.28943E+03 -1.08665E+03 -1.68254E+03 -3.11841E+03  4.55220E+02 -4.38475E+03  2.90720E+03 -5.02982E+03
  4.31866E+03 -3.02912E+03  5.84921E+03 -1.89008E+02  4.25156E+03  3.69663E+03  1.12563E+03  5.37046E+03
 -1.66471E+03  5.12736E+03 -2.92484E+03  1.89605E+03 -1.74860E+03 -8.37103E+02 -2.43037E+02 -7.92974E+02
 -6.50379E+02  3.70044E+02 -6.92227E+02  1.99146E+03 -2.57428E+03  8.15329E+02 -3.66925E+03 -3.21491E+02
 -1.18254E+03 -3.97309E+03  9.91627E+02 -3.74593E+03  2.45507E+03 -4.04100E+03  2.77823E+03 -1.09172E+03
  3.33752E+03  1.73216E+03  1.43244E+03  2.24347E+03 -6.69811E+02  3.45758E+03 -2.22167E+03  2.27518E+03
 -2.96682E+03  7.49720E+02 -2.91510E+03 -1.99919E+03 -7.34321E+01 -2.50980E+03  1.08210E+03 -2.09397E+03
  2.23766E+03 -1.11279E+03  1.36729E+03  2.45487E+02  5.10598E+02  1.58326E+03  7.42919E+02  4.96062E+02
  1.69169E+03  7.15914E+02  8.47225E+02  1.02987E+03  9.11498E+02  1.83355E+03  1.01274E+03  1.18261E+03
 -1.19741E+03  2.39269E+03 -1.92471E+03  3.49326E+03 -2.39275E+03  1.25036E+03 -3.34435E+03  1.48654E+00
 -1.18247E+03 -2.87524E+03  7.19006E+02 -3.88277E+03  1.10479E+03 -1.97205E+03  2.07063E+03 -5.82174E+02
  1.91835E+03  1.49731E+03  1.87640E+02  1.75739E+03 -3.19131E+02  1.19165E+03 -7.86014E+02 -1.37208E+01
 -2.75085E+02 -1.06982E+03  1.14237E+03 -1.21210E+03  1.02837E+03 -7.36017E+02  9.85902E+02  3.16108E+02
  7.50844E+02 -1.22132E+02  8.20675E+02 -1.11011E+02 -1.86071E+02  5.17744E+02  1.23585E+03 -2.66151E+02
 -4.77362E+02 -2.09493E+02  1.66828E+03  4.23177E+02  2.67502E+02  2.11229E+03 -2.39528E+02  2.65721E+03
 -1.29114E+03  6.68168E+02 -1.67457E+03  2.53698E+02 -1.46826E+03 -4.82405E+02 -1.59572E+02 -8.74942E+02
  4.06241E+02 -7.98936E+02  8.98514E+02 -7.88112E+02  3.13964E+02  9.56980E+02 -7.24283E+02  8.95467E+02
 -1.02199E+03  5.56551E+02 -5.59506E+02 -1.15560E+03 -4.89368E+02 -1.57081E+03  3.81474E+02 -9.94840E+02
  2.12966E+02 -3.33206E+02  3.70105E+02 -1.43890E+02  8.65890E+02 -2.10122E+02  4.70050E+02  8.52947E+02
  1.31188E+02  1.46186E+02 -8.35849E+02 -3.19572E+02  7.70061E+02 -3.98896E+02  1.35911E+03 -2.92890E+02
  8.87267E+02  4.57845E+00  2.06526E+03  1.47865E+02  8.13192E+02  8.67452E+02  8.55119E+01  1.22742E+03
 -1.19188E+03  1.97404E+02 -1.09814E+03 -2.35723E+02 -5.16352E+02 -1.00297E+03  5.11266E+02 -3.43556E+02
  1.19607E+03 -4.39739E+02  4.29899E+02  7.23904E+02  1.23943E+02  1.07259E+03  1.14044E+02  7.56238E+02
 -2.65613E+02  1.15376E+03 -4.77638E+02  2.62105E+02 -6.07494E+01  2.15841E+02 -8.91851E+02  3.89428E+02
 -5.77725E+02  7.22922E+02 -1.44806E+03  4.86774E+02 -9.88844E+02 -6.01818E+01 -1.79847E+03 -3.85022E+02
 -6.54773E+02 -1.73681E+03  5.28757E+02 -2.15192E+03  3.72394E+02 -1.72381E+03  1.86901E+03 -8.37160E+02
  1.94514E+03 -2.46873E+02  7.74266E+02  9.20820E+02 -4.02315E+02  7.39905E+02 -3.80793E+02  4.00912E+02
 -7.57420E+02  5.66324E+02 -3.26417E+02 -1.98140E+02 -4.13127E+02  2.92550E+02 -4.53495E+02 -6.82865E+00
 -1.23826E+03  7.36630E+01 -9.50666E+02  1.74694E+02  2.11728E+02 -6.99748E+02 -5.76492E+02 -8.01527E+02
  9.80033E+02 -5.06469E+02 -1.74301E+02  6.84370E+00  6.30988E+02  6.09429E+02 -5.23282E+02  8.69815E+02
 -5.34373E+02  1.47859E+03 -1.04892E+03  7.50342E+02 -1.30803E+03 -5.85248E+02 -6.63430E+02 -6.81845E+02
 -3.82103E+02 -7.79603E+02  5.17274E+01 -7.30477E+02  2.21225E+01 -4.74101E+02  2.03937E+02  1.96685E+02
  2.33102E+02  2.11106E+02  5.34458E+01  5.78697E+01 -3.38137E+02 -1.79097E+02 -1.63440E+02  1.63978E+02
  2.91742E+02  4.13664E+02 -2.73672E+02  5.29119E+02 -3.56556E+02  3.75859E+02  4.79041E+02 -1.98587E+02
 -2.18394E+02  3.19007E+02 -2.93357E+02 -1.20361E+02 -1.49314E+02 -1.89863E+02  7.92597E+01 -7.24827E+02
  1.42711E+02 -3.33957E+02  6.07599E+01  4.51275E+02  4.33724E+02 -7.39950E+02  5.68424E+01  4.08305E+02
  5.40646E+02  2.54922E+02  1.20293E+02  2.72674E+02 -3.29096E+02  4.63827E+02 -2.96089E+02 -3.43312E+01
 -2.92853E+02 -1.29581E+02 -5.03238E+02  1.01013E+02 -3.93678E+02  1.64790E+01 -4.07340E+02 -3.80397E+02
 -1.01093E+03  3.49102E+02 -2.10420E+02 -8.89583E+02  7.45554E+02 -9.84318E+02  1.04011E+02 -1.39100E+02
  4.32431E+02  2.07571E+02 -5.68093E+02 -7.79862E+01 -1.99766E+01  4.51059E+02 -2.75108E+02  3.77665E+02
