 $NMID ID='MM_0lb_SNR800_15hz_g55_25.RAW', FMTDAT='(8E13.5)'
 TRAMP=1., VOLUME=1. $END
  3.09566E+05  3.91236E+02  3.37828E+05  2.50638E+05  8.47910E+04  3.37936E+05 -1.32208E+05  2.51294E+05
 -1.90558E+05  8.31494E+04 -1.12196E+05 -3.28246E+04  7.68506E+02 -5.05541E+04  5.38988E+04  4.65756E+01
  3.53746E+04  5.26612E+04 -1.69473E+04  7.57016E+04 -6.09487E+04  6.35510E+04 -8.39726E+04  3.22488E+04
 -8.09334E+04 -1.15147E+04 -5.72308E+04 -5.11590E+04 -1.50178E+04 -6.95857E+04  2.75106E+04 -4.57724E+04
  4.03709E+04  3.65425E+03  1.60853E+04  4.80628E+04 -3.41738E+04  4.75302E+04 -6.69065E+04 -2.41433E+02
 -5.34052E+04 -5.68128E+04 -6.56673E+03 -7.72190E+04  3.37705E+04 -5.47993E+04  4.81431E+04 -1.73003E+04
  4.34144E+04  1.13852E+04  3.19614E+04  2.56335E+04  1.60436E+04  2.96207E+04 -5.01418E+03  2.71558E+04
 -2.19556E+04  1.23697E+04 -1.86629E+04 -4.82713E+03  5.95790E+03 -7.40554E+03  2.22512E+04  1.21247E+04
  7.29175E+03  3.53968E+04 -3.25228E+04  3.54658E+04 -6.32240E+04  1.94878E+03 -5.73741E+04 -4.27340E+04
 -1.25291E+04 -6.32430E+04  3.95878E+04 -4.56417E+04  5.85014E+04 -2.33004E+03  3.40359E+04  3.23654E+04
 -6.12428E+03  3.63990E+04 -3.00827E+04  1.60021E+04 -3.06697E+04 -4.33749E+03 -1.68938E+04 -1.08580E+04
 -8.25297E+03 -1.31017E+04 -7.43354E+02 -1.80607E+04  7.67340E+03 -2.30702E+04  1.54903E+04 -1.31897E+04
  1.15455E+04  5.48080E+03 -8.48232E+03  1.29191E+04 -2.17833E+04 -4.51164E+03 -8.11262E+03 -3.36728E+04
  2.28522E+04 -4.34932E+04  4.82131E+04 -2.00411E+04  4.53348E+04  1.93533E+04  1.61673E+04  4.42423E+04
 -1.58709E+04  3.34751E+04 -2.52498E+04  1.80809E+03 -9.78159E+03 -2.79657E+04  2.08612E+04 -3.37451E+04
  4.12373E+04 -9.19218E+03  3.56585E+04  2.38689E+04  1.83352E+04  4.64556E+04 -8.30578E+03  5.02543E+04
 -3.15966E+04  3.34612E+04 -4.17899E+04  9.52763E+03 -4.26331E+04 -1.66072E+04 -2.38485E+04 -3.80686E+04
  7.41638E+03 -3.78083E+04  3.11779E+04 -1.47809E+04  2.90506E+04  1.07849E+04  4.34842E+03  1.92049E+04
 -1.35597E+04  8.36952E+03 -1.02921E+04 -7.49455E+03  5.64011E+03 -1.06828E+04  1.79821E+04  6.03110E+03
  1.34054E+04  2.20181E+04 -5.99273E+03  2.50420E+04 -2.25442E+04  1.16060E+04 -2.81558E+04 -4.83255E+03
 -2.05936E+04 -1.75521E+04 -8.38312E+03 -2.04737E+04  4.11463E+03 -1.95815E+04  1.58861E+04 -1.80777E+04
  2.59938E+04 -1.29944E+04  3.23274E+04  2.69473E+03  2.39469E+04  1.99124E+04  4.04609E+03  3.63703E+04
 -1.75475E+04  3.05691E+04 -2.77322E+04  1.04496E+04 -2.07583E+04 -1.04854E+04 -4.37955E+03 -1.36723E+04
  2.05785E+03 -2.66986E+03 -4.74394E+03  6.63727E+03 -1.60210E+04  4.98662E+03 -1.59886E+04 -6.88838E+03
 -9.97424E+03 -1.87759E+04  5.13844E+03 -2.27673E+04  1.53575E+04 -1.63452E+04  1.79888E+04 -1.56752E+03
  1.14371E+04  1.31584E+04 -1.24640E+03  1.88344E+04 -1.29513E+04  1.06950E+04 -1.86603E+04 -4.06180E+03
 -1.39071E+04 -1.72496E+04 -1.80801E+03 -2.27221E+04  1.04233E+04 -1.85647E+04  1.89055E+04 -9.23911E+03
  1.76105E+04  4.38873E+02  1.28961E+04  4.91860E+03  6.88543E+03  8.87307E+02  9.44366E+03 -1.47918E+03
  1.72216E+04  2.63036E+03  1.92771E+04  1.48118E+04  1.25393E+04  3.00328E+04 -3.04575E+03  3.39392E+04
 -1.96348E+04  2.70319E+04 -3.16652E+04  1.33983E+04 -3.30641E+04 -2.35609E+03 -2.72695E+04 -1.86351E+04
 -1.19235E+04 -2.70574E+04  9.25067E+03 -2.45641E+04  2.10170E+04 -1.29474E+04  1.89796E+04  5.14040E+03
  7.40801E+03  1.42635E+04 -8.96566E+03  1.25847E+04 -1.58787E+04  2.52616E+03 -1.20224E+04 -9.86927E+03
  3.18231E+01 -1.49899E+04  7.89763E+03 -1.15869E+04  9.91435E+03 -1.25211E+03  2.44042E+03  6.19275E+03
 -6.79755E+03  2.09489E+03 -5.87151E+03 -5.48693E+03 -4.00576E+02 -1.33488E+04  9.15912E+03 -1.38594E+04
  1.62907E+04 -7.63763E+03  1.75304E+04  2.81855E+03  1.51881E+04  1.30390E+04  7.13577E+03  1.96499E+04
 -3.11247E+03  2.18319E+04 -1.37202E+04  1.35555E+04 -1.53537E+04  3.58696E+03 -1.11340E+04 -3.37002E+03
 -5.54895E+03 -4.90055E+03 -9.76476E+02  1.14812E+03 -2.59798E+03  2.64960E+03 -4.96286E+03  4.10625E+03
 -1.04111E+04 -7.00733E+02 -1.10879E+04 -8.85710E+03 -4.44606E+03 -1.43386E+04  4.78579E+03 -1.10452E+04
  9.15686E+03 -4.79601E+03  6.75735E+03  3.21545E+03  2.37105E+02  4.15873E+03 -4.98163E+03 -1.56146E+02
 -4.86734E+03 -7.09812E+03 -4.87121E+02 -1.03907E+04  5.68333E+03 -1.10806E+04  1.37085E+04 -5.69722E+03
  1.60130E+04  1.38548E+03  1.14113E+04  9.44950E+03  2.26237E+03  1.22255E+04 -6.80248E+03  1.07585E+04
 -8.99533E+03  3.37737E+03 -4.25694E+03 -1.72154E+03  1.55333E+03 -2.85241E+03  6.17708E+03 -9.67831E+02
  5.27698E+03  4.80723E+03  9.77834E+02  8.38838E+03 -6.11599E+03  8.39130E+03 -1.04566E+04  2.14685E+03
 -6.74167E+03 -5.32417E+03  7.11011E+01 -8.96826E+03  5.47140E+03 -4.51595E+03  5.30528E+03  1.95794E+03
  1.15775E+03  5.75517E+03 -5.15884E+03  7.03822E+03 -7.79160E+03  3.33367E+03 -7.58051E+03 -2.21796E+03
 -4.57015E+03 -9.36235E+03  2.08432E+03 -1.07176E+04  8.97749E+03 -6.73139E+03  9.80294E+03  1.50761E+03
  6.68480E+03  7.57936E+03 -3.91556E+02  1.05174E+04 -7.23816E+03  5.70756E+03 -7.86682E+03 -8.76878E+02
 -7.16912E+03 -7.28494E+03 -1.58927E+03 -7.47080E+03  3.55639E+03 -6.48272E+03  4.80797E+03 -3.06866E+03
  3.37932E+03  8.06527E+02 -4.07010E+02  1.53183E+03  7.18727E+01 -1.36985E+03  9.07434E+02 -3.76375E+03
  6.37629E+03 -1.99872E+03  8.61470E+03  1.05042E+03  8.59161E+03  5.73913E+03  6.95720E+03  1.17455E+04
 -1.96344E+03  1.33027E+04 -1.15963E+04  9.67226E+03 -1.48418E+04  1.81810E+03 -1.19228E+04 -4.60166E+03
 -6.02659E+03 -9.84112E+03 -6.90130E+01 -8.29047E+03  3.03436E+03 -4.44017E+03  2.89485E+03 -3.21904E+03
  2.15046E+03 -1.85169E+03  2.75543E+03 -3.00157E+03  4.10595E+03 -1.90634E+03  4.90079E+03 -2.74791E+02
  6.09824E+03  1.70751E+03  2.74315E+03  5.16115E+03 -1.70259E+03  5.51513E+03 -6.55295E+03  4.31542E+03
 -8.11366E+03 -1.01672E+03 -3.98242E+03 -5.12491E+03 -3.04556E+02 -8.41451E+03  4.78971E+03 -8.45093E+03
  8.43018E+03 -4.96684E+03  1.05103E+04  7.80116E+02  7.50567E+03  7.24073E+03  1.40922E+03  9.27637E+03
 -3.51934E+03  8.16021E+03 -5.67639E+03  2.64876E+03 -3.24537E+03 -1.17039E+03 -1.15678E+03 -1.20977E+03
 -7.88604E+02  1.80407E+02 -9.58323E+02  2.39111E+03 -3.38524E+03  1.34397E+03 -5.96144E+03 -6.48227E+02
 -3.07471E+03 -5.68433E+03  3.82511E+02 -7.57750E+03  4.61276E+03 -7.08782E+03  6.81163E+03 -2.25812E+03
  6.96590E+03  3.48299E+03  3.09969E+03  6.31572E+03 -1.57644E+03  7.33253E+03 -4.68882E+03  4.65150E+03
 -6.71000E+03  3.83361E+02 -5.58326E+03 -4.26982E+03 -6.12639E+02 -5.65841E+03  3.05319E+03 -4.44618E+03
  4.65285E+03 -1.66984E+03  3.05407E+03  1.00541E+03  1.13237E+03  2.63320E+03  6.99538E+02  1.10233E+03
  1.82697E+03  7.35506E+02  1.57883E+03  1.06763E+03  1.80768E+03  2.69656E+03  2.33466E+03  3.40111E+03
 -1.99098E+03  5.22128E+03 -4.47090E+03  5.78443E+03 -6.44405E+03  1.64517E+03 -7.10514E+03 -1.98471E+03
 -3.30183E+03 -6.85217E+03  1.00316E+03 -7.76604E+03  4.02168E+03 -4.83280E+03  5.30938E+03 -1.27510E+03
  4.41688E+03  3.24087E+03  1.00598E+03  4.02523E+03 -1.72307E+03  2.64569E+03 -2.51517E+03 -3.18295E+02
 -8.01833E+02 -3.00116E+03  1.77923E+03 -2.86484E+03  2.54986E+03 -1.41150E+03  2.51082E+03  6.07779E+02
  1.87250E+03  1.18468E+03  7.52743E+02  6.91062E+02 -7.49989E+02  9.97842E+02  1.52013E+03 -3.49909E+02
  6.09868E+02 -2.50750E+02  2.81194E+03  8.84864E+02  9.00597E+02  3.76540E+03 -5.75295E+02  4.82618E+03
 -3.31041E+03  2.65204E+03 -4.00808E+03  5.03987E+02 -3.67748E+03 -1.49497E+03 -9.13342E+02 -1.93614E+03
  6.29560E+02 -2.74304E+03  1.62459E+03 -1.05142E+03  1.17713E+03  1.79482E+03 -9.82239E+02  2.02002E+03
 -2.92138E+03  1.37957E+03 -2.22996E+03 -1.82417E+03 -1.41355E+03 -3.61797E+03  4.62953E+02 -3.12751E+03
  1.27939E+03 -1.50350E+03  2.10913E+03 -2.63556E+00  2.30178E+03  5.75509E+02  3.20275E+02  1.88232E+03
 -7.49029E+02  4.37863E+02 -1.47222E+03 -9.45202E+02  8.31635E+02 -1.99910E+03  3.04424E+03 -2.15817E+03
  3.14404E+03  2.69326E+02  4.01009E+03  1.91877E+03  1.56427E+03  3.67808E+03 -9.14823E+02  3.73161E+03
 -3.03294E+03  1.19501E+03 -3.16238E+03 -6.36502E+02 -1.40640E+03 -2.66013E+03  4.57335E+02 -1.61862E+03
  2.69173E+03 -1.24821E+03  1.99608E+03  1.04311E+03  6.78818E+02  2.09369E+03 -3.86434E+02  1.76551E+03
 -8.92319E+02  1.78450E+03 -8.54860E+02  3.18194E+02 -2.62829E+02  5.28643E+02 -9.00820E+02  8.24948E+02
 -1.12104E+03  2.06910E+03 -2.97938E+03  1.18768E+03 -3.48734E+03  2.27421E+02 -4.18637E+03 -2.09544E+03
 -2.21523E+03 -4.72489E+03  1.10857E+03 -5.58890E+03  2.96541E+03 -4.32790E+03  5.31565E+03 -1.90557E+03
  4.57736E+03  6.29816E+02  2.96376E+03  3.23866E+03 -2.52003E+02  3.13713E+03 -1.54164E+03  2.54048E+03
 -1.80859E+03  1.24351E+03 -1.33427E+03 -5.69498E+02 -5.66424E+02 -9.87104E+01 -5.58584E+02  9.23874E+00
 -1.23858E+03 -1.63325E+02 -1.26816E+03  2.54756E+02  1.77578E+01 -9.59192E+02 -4.26398E+02 -1.67601E+03
  2.03118E+03 -1.09945E+03  1.15311E+03  1.66686E+02  2.29444E+03  1.60687E+03  1.20095E+02  3.02771E+03
 -1.87847E+03  4.13470E+03 -3.11099E+03  2.45549E+03 -4.09790E+03 -3.61217E+02 -3.18201E+03 -2.36605E+03
 -1.57549E+03 -2.98536E+03  6.82309E+02 -2.75835E+03  1.79490E+03 -1.35091E+03  1.73090E+03  2.00863E+02
  1.42793E+03  9.15963E+02  7.16331E+01  7.51944E+02 -6.44170E+02 -1.10513E+02  1.06123E+00 -6.45526E+02
  9.73522E+02  1.17682E+01  6.61956E+02  7.56803E+02  4.12940E+02  9.93426E+02  2.93604E+02  1.21483E+03
 -1.03380E+03  1.40683E+03 -1.73793E+03  2.35829E+02 -1.82236E+03 -1.21166E+03 -2.27911E+02 -2.31593E+03
  1.32701E+03 -1.78667E+03  1.80007E+03 -3.19197E+02  2.13686E+03 -1.31309E+02  1.27740E+03  1.73623E+03
  4.71744E+02  1.60745E+03 -5.30868E+02  1.28912E+03 -1.27852E+03  1.17037E+03 -8.88716E+02  8.51622E+01
  7.02850E+01 -2.26650E+02 -8.11984E+02 -1.01889E+02 -1.20316E+03  2.70499E+01 -1.56320E+03 -4.49259E+02
 -2.09693E+03 -2.92472E+02 -7.08621E+02 -2.06065E+03  9.21447E+02 -2.59703E+03  1.56172E+03 -6.76004E+02
  1.57999E+03 -6.95376E+01  3.49107E+02  1.15060E+03  4.07696E+01  1.79346E+03 -1.33651E+03  1.20023E+03
