 $NMID ID='MM_0lb_SNR800_12hz_g50_72.RAW', FMTDAT='(8E13.5)'
 TRAMP=1., VOLUME=1. $END
  3.09632E+05  4.73163E+02  3.37502E+05  2.50930E+05  8.50666E+04  3.38081E+05 -1.32625E+05  2.51536E+05
 -1.90131E+05  8.34124E+04 -1.11973E+05 -3.20934E+04  7.26339E+02 -5.08031E+04  5.39399E+04 -2.88831E+02
  3.54216E+04  5.29564E+04 -1.64467E+04  7.53924E+04 -6.14358E+04  6.40708E+04 -8.45908E+04  3.22362E+04
 -8.18179E+04 -1.17331E+04 -5.76929E+04 -5.14645E+04 -1.48522E+04 -7.01383E+04  2.76205E+04 -4.61246E+04
  4.02565E+04  3.89963E+03  1.63511E+04  4.80423E+04 -3.45388E+04  4.78194E+04 -6.75295E+04 -1.16230E+02
 -5.40625E+04 -5.74963E+04 -6.96793E+03 -7.78879E+04  3.39624E+04 -5.55915E+04  4.87395E+04 -1.81278E+04
  4.40575E+04  1.13371E+04  3.20861E+04  2.62872E+04  1.59229E+04  3.01028E+04 -5.45991E+03  2.74985E+04
 -2.22295E+04  1.24471E+04 -1.81091E+04 -5.35928E+03  6.25914E+03 -7.66835E+03  2.29213E+04  1.26828E+04
  7.19473E+03  3.62972E+04 -3.27820E+04  3.59518E+04 -6.44037E+04  1.89263E+03 -5.76773E+04 -4.38834E+04
 -1.26351E+04 -6.43010E+04  4.06839E+04 -4.59402E+04  5.94043E+04 -2.55948E+03  3.54447E+04  3.29158E+04
 -5.80309E+03  3.73887E+04 -3.10857E+04  1.73222E+04 -3.13483E+04 -4.25992E+03 -1.77437E+04 -1.13799E+04
 -8.43823E+03 -1.39393E+04 -4.39850E+02 -1.90232E+04  7.91363E+03 -2.33272E+04  1.52921E+04 -1.31982E+04
  1.08947E+04  5.74233E+03 -9.19027E+03  1.32797E+04 -2.19662E+04 -5.50975E+03 -8.30001E+03 -3.53089E+04
  2.38128E+04 -4.47856E+04  4.96839E+04 -1.99836E+04  4.68289E+04  2.01655E+04  1.63189E+04  4.54801E+04
 -1.59701E+04  3.46355E+04 -2.64950E+04  2.02404E+03 -1.06508E+04 -2.83172E+04  2.13570E+04 -3.51222E+04
  4.26937E+04 -9.92741E+03  3.75186E+04  2.41240E+04  1.95489E+04  4.84594E+04 -8.10586E+03  5.25919E+04
 -3.33403E+04  3.55288E+04 -4.39537E+04  1.01978E+04 -4.44845E+04 -1.71088E+04 -2.42154E+04 -3.94913E+04
  7.48073E+03 -3.93408E+04  3.23629E+04 -1.56551E+04  3.03172E+04  1.10294E+04  4.53356E+03  2.00169E+04
 -1.36487E+04  9.13068E+03 -1.05364E+04 -7.58414E+03  6.03721E+03 -1.11266E+04  1.81715E+04  6.03877E+03
  1.38000E+04  2.19986E+04 -5.73491E+03  2.57048E+04 -2.27768E+04  1.27681E+04 -2.96350E+04 -4.09547E+03
 -2.25462E+04 -1.81660E+04 -9.65204E+03 -2.21569E+04  4.26498E+03 -2.19694E+04  1.74216E+04 -2.02111E+04
  2.84774E+04 -1.31066E+04  3.44556E+04  3.42868E+03  2.50322E+04  2.19177E+04  4.66279E+03  3.83675E+04
 -1.86542E+04  3.18387E+04 -2.88047E+04  1.09604E+04 -2.15241E+04 -1.03324E+04 -4.35790E+03 -1.34609E+04
  1.33413E+03 -2.30895E+03 -6.13618E+03  7.56444E+03 -1.79777E+04  5.00322E+03 -1.81369E+04 -8.01146E+03
 -1.10754E+04 -2.01473E+04  5.63159E+03 -2.48824E+04  1.67786E+04 -1.78561E+04  2.01051E+04 -1.90758E+03
  1.24676E+04  1.42475E+04 -1.57831E+03  2.05783E+04 -1.45691E+04  1.20119E+04 -2.05287E+04 -4.36849E+03
 -1.54105E+04 -1.83005E+04 -1.95402E+03 -2.49992E+04  1.12987E+04 -2.06887E+04  2.07139E+04 -1.06359E+04
  1.91542E+04  1.86595E+02  1.42545E+04  4.92390E+03  7.67337E+03  1.01640E+03  1.08153E+04 -1.94693E+03
  1.91285E+04  2.64105E+03  2.18988E+04  1.64057E+04  1.46001E+04  3.30277E+04 -2.93125E+03  3.83382E+04
 -2.18314E+04  3.09283E+04 -3.56925E+04  1.57352E+04 -3.79585E+04 -2.88221E+03 -3.09189E+04 -2.19632E+04
 -1.30864E+04 -3.14952E+04  1.09800E+04 -2.79024E+04  2.43154E+04 -1.38858E+04  2.11284E+04  6.38004E+03
  7.60324E+03  1.58809E+04 -9.58301E+03  1.37035E+04 -1.79063E+04  2.93899E+03 -1.35377E+04 -1.12261E+04
 -2.55654E+02 -1.68321E+04  9.16502E+03 -1.24069E+04  1.13465E+04 -1.54847E+03  2.51525E+03  7.62526E+03
 -7.82664E+03  3.02469E+03 -7.24953E+03 -6.13090E+03 -1.23876E+03 -1.50993E+04  1.05370E+04 -1.61655E+04
  1.90103E+04 -8.89399E+03  2.08685E+04  3.35233E+03  1.83197E+04  1.53637E+04  8.70075E+03  2.36096E+04
 -4.04406E+03  2.57745E+04 -1.65281E+04  1.59453E+04 -1.85153E+04  3.26261E+03 -1.25637E+04 -4.72079E+03
 -5.93068E+03 -5.73671E+03 -8.02746E+02  1.09246E+03 -2.75150E+03  2.98186E+03 -5.91223E+03  4.77645E+03
 -1.19752E+04 -9.34987E+02 -1.26446E+04 -1.00065E+04 -5.07417E+03 -1.64827E+04  5.51905E+03 -1.32831E+04
  1.06330E+04 -5.83104E+03  7.64254E+03  3.25091E+03  1.80806E+02  5.26868E+03 -6.43075E+03  4.93688E+01
 -5.70547E+03 -8.40354E+03 -1.18625E+03 -1.24476E+04  7.43642E+03 -1.35078E+04  1.63593E+04 -6.73457E+03
  1.91426E+04  1.41456E+03  1.39830E+04  1.13559E+04  2.86024E+03  1.53283E+04 -7.92056E+03  1.28283E+04
 -1.05122E+04  4.03187E+03 -5.40390E+03 -2.81910E+03  1.93478E+03 -3.23422E+03  6.81639E+03 -1.03531E+03
  6.38487E+03  5.89577E+03  1.18492E+03  1.00643E+04 -7.51964E+03  9.92122E+03 -1.25171E+04  2.22759E+03
 -8.76617E+03 -6.51214E+03  6.90373E+02 -1.10647E+04  6.71201E+03 -5.69418E+03  6.79141E+03  2.65732E+03
  1.76126E+03  7.17213E+03 -6.63250E+03  8.70616E+03 -1.01247E+04  4.05631E+03 -1.01030E+04 -3.41835E+03
 -6.35810E+03 -1.21342E+04  2.81418E+03 -1.40027E+04  1.15567E+04 -8.28407E+03  1.27905E+04  2.33056E+03
  8.43380E+03  1.01046E+04 -7.68071E+02  1.23305E+04 -9.27205E+03  7.06593E+03 -9.94762E+03 -9.69543E+02
 -8.77345E+03 -8.64024E+03 -1.70714E+03 -9.55869E+03  5.00745E+03 -7.69713E+03  6.00431E+03 -3.40861E+03
  3.98588E+03  1.27893E+03 -5.07682E+02  1.64422E+03 -1.21638E+01 -2.22094E+03  1.69316E+03 -5.30274E+03
  8.67966E+03 -3.24573E+03  1.18444E+04  1.39609E+03  1.14810E+04  7.69333E+03  8.38169E+03  1.55957E+04
 -3.66664E+03  1.78586E+04 -1.51362E+04  1.34819E+04 -1.92284E+04  2.93917E+03 -1.53020E+04 -6.51727E+03
 -7.95033E+03 -1.28925E+04 -5.13143E+02 -1.07490E+04  4.26209E+03 -6.01737E+03  3.99771E+03 -4.00153E+03
  3.17909E+03 -2.27625E+03  3.10687E+03 -3.43873E+03  4.89511E+03 -2.78928E+03  5.84514E+03 -6.25149E+02
  8.19471E+03  2.18350E+03  3.91965E+03  6.80226E+03 -1.69519E+03  8.15839E+03 -8.70296E+03  6.36071E+03
 -1.06539E+04 -1.10141E+03 -6.15919E+03 -7.14582E+03 -3.45105E+02 -1.15099E+04  6.36954E+03 -1.16325E+04
  1.17341E+04 -6.51817E+03  1.41328E+04  1.98282E+03  1.01760E+04  9.78065E+03  1.72951E+03  1.28001E+04
 -5.03016E+03  1.08106E+04 -7.49908E+03  3.43329E+03 -5.11496E+03 -1.53186E+03 -2.08570E+03 -1.50682E+03
 -1.46587E+03  3.78852E+02 -1.65335E+03  2.93093E+03 -4.41902E+03  1.63090E+03 -7.63413E+03 -1.34178E+03
 -4.63566E+03 -7.66320E+03  1.94708E+02 -1.04762E+04  6.40726E+03 -9.79727E+03  9.87356E+03 -2.88227E+03
  1.02772E+04  5.24925E+03  4.83622E+03  8.81302E+03 -2.05633E+03  1.06502E+04 -7.29146E+03  6.64774E+03
 -9.74394E+03  6.64728E+02 -7.89743E+03 -6.10646E+03 -6.24807E+02 -8.37913E+03  4.36350E+03 -6.10674E+03
  6.16485E+03 -2.34375E+03  4.36865E+03  1.68402E+03  1.36826E+03  2.76901E+03  1.16398E+03  1.56035E+03
  2.19563E+03  1.25000E+03  2.27089E+03  1.36748E+03  2.95998E+03  3.98310E+03  2.58983E+03  5.42072E+03
 -2.11951E+03  8.38884E+03 -7.06811E+03  8.52558E+03 -1.02586E+04  2.20882E+03 -1.10352E+04 -3.85201E+03
 -4.95670E+03 -9.88222E+03  1.32635E+03 -1.14385E+04  5.66542E+03 -7.21852E+03  8.62887E+03 -2.04383E+03
  6.30601E+03  3.87115E+03  1.20422E+03  5.67445E+03 -2.88138E+03  3.78186E+03 -3.73523E+03 -2.59888E+02
 -2.21067E+03 -4.65556E+03  2.60851E+03 -4.29031E+03  3.98663E+03 -2.54980E+03  3.97519E+03  9.75732E+02
  2.23104E+03  1.89058E+03  9.35047E+02  1.44477E+03 -5.93272E+02  1.32371E+03  1.58958E+03 -4.15095E+02
  1.42903E+03 -8.02779E+02  4.22672E+03  1.38361E+03  2.01805E+03  5.43352E+03 -1.10468E+03  6.88955E+03
 -4.57237E+03  4.46739E+03 -6.30170E+03  1.27794E+03 -5.94406E+03 -2.66195E+03 -2.08581E+03 -3.48235E+03
  9.94799E+02 -3.90462E+03  2.48360E+03 -1.88219E+03  2.23011E+03  2.29193E+03 -1.13110E+03  3.47573E+03
 -3.94374E+03  1.91170E+03 -4.81778E+03 -2.73804E+03 -2.46272E+03 -5.35565E+03  7.82952E+02 -5.30189E+03
  2.77229E+03 -2.82593E+03  3.95918E+03  7.98722E+01  3.45532E+03  1.07801E+03  3.37144E+02  2.86618E+03
 -1.55961E+03  6.82102E+02 -2.50314E+03 -1.56075E+03  8.66701E+02 -4.14995E+03  4.69408E+03 -3.29122E+03
  5.55949E+03  2.36369E+02  6.38794E+03  3.99638E+03  1.79814E+03  5.78946E+03 -1.83087E+03  6.11364E+03
 -4.92774E+03  2.53299E+03 -4.95317E+03 -5.87000E+02 -2.88906E+03 -4.14376E+03  8.92723E+02 -3.66562E+03
  4.00908E+03 -1.85675E+03  3.28571E+03  1.62118E+03  9.35924E+02  3.84928E+03 -5.44519E+01  3.34160E+03
 -1.75267E+03  2.34481E+03 -1.26215E+03  5.60111E+02 -4.65138E+02  9.90146E+02 -1.02537E+03  1.41576E+03
 -1.59769E+03  2.44173E+03 -4.61327E+03  1.74049E+03 -6.12140E+03  2.31553E+02 -7.12229E+03 -4.07082E+03
 -3.43215E+03 -8.05209E+03  1.43117E+03 -9.28549E+03  5.15390E+03 -7.12018E+03  8.68953E+03 -2.99291E+03
  8.10606E+03  1.48048E+03  5.10347E+03  5.55165E+03  1.82536E+02  6.32731E+03 -2.94141E+03  4.62568E+03
 -3.44330E+03  1.69667E+03 -2.14288E+03 -6.91480E+02 -5.63123E+02 -3.23120E+02 -5.50992E+02  1.02160E+01
 -1.47607E+03  3.06889E+02 -1.49129E+03 -1.45214E+01 -2.47257E+02 -1.37378E+03 -3.10061E+01 -2.32648E+03
  2.82643E+03 -1.94918E+03  3.56457E+03 -1.80421E+02  3.99661E+03  3.31440E+03  6.74986E+02  6.15409E+03
 -2.68943E+03  7.20398E+03 -6.55819E+03  3.78054E+03 -7.06817E+03 -3.49659E+02 -5.47044E+03 -4.81612E+03
 -2.59913E+03 -6.07206E+03  1.79139E+03 -5.52839E+03  3.96032E+03 -2.71917E+03  3.43215E+03  1.24332E+02
  2.17637E+03  1.94241E+03  3.18241E+01  1.64094E+03 -1.21855E+03 -3.65523E+01 -1.75593E+01 -1.16641E+03
  1.88191E+03 -5.87992E+02  2.31951E+03  1.21939E+03  1.71109E+03  2.40841E+03  3.37254E+02  2.82566E+03
 -2.82981E+03  2.56121E+03 -3.73004E+03  3.02037E+02 -3.74019E+03 -2.67971E+03 -5.32307E+02 -4.77496E+03
  2.92076E+03 -4.05781E+03  4.14217E+03 -1.45380E+03  4.54788E+03  4.93596E+02  2.50148E+03  3.34207E+03
  3.23824E+02  3.72186E+03 -1.24654E+03  3.13343E+03 -2.16704E+03  1.62203E+03 -2.02398E+03  2.97685E+02
 -8.62205E+02 -8.18894E+01 -1.07106E+03  6.23391E+02 -1.89761E+03  7.17330E+02 -3.01134E+03 -7.14487E+02
 -3.14413E+03 -1.44367E+03 -8.38725E+02 -3.99587E+03  1.69603E+03 -3.95173E+03  3.53499E+03 -1.83199E+03
  3.72143E+03  3.88951E+02  1.29026E+03  2.78970E+03 -5.05026E+02  3.83858E+03 -2.69657E+03  2.59576E+03
