 $NMID ID='MM_0lb_SNR800_12hz_g50_50.RAW', FMTDAT='(8E13.5)'
 TRAMP=1., VOLUME=1. $END
  3.09851E+05  5.92240E+02  3.37753E+05  2.50865E+05  8.48097E+04  3.38364E+05 -1.32689E+05  2.51052E+05
 -1.90596E+05  8.33293E+04 -1.12346E+05 -3.25269E+04  6.22593E+02 -5.07561E+04  5.37034E+04 -3.83687E+02
  3.52951E+04  5.28288E+04 -1.70424E+04  7.59464E+04 -6.10998E+04  6.37003E+04 -8.45967E+04  3.21450E+04
 -8.17474E+04 -1.14188E+04 -5.77181E+04 -5.17915E+04 -1.49079E+04 -7.03543E+04  2.77299E+04 -4.59130E+04
  4.01661E+04  3.88163E+03  1.63958E+04  4.80997E+04 -3.44342E+04  4.80383E+04 -6.75566E+04 -2.03653E+01
 -5.40220E+04 -5.71908E+04 -7.02875E+03 -7.77076E+04  3.44218E+04 -5.60194E+04  4.88279E+04 -1.76520E+04
  4.41328E+04  1.12386E+04  3.23975E+04  2.63140E+04  1.56788E+04  2.98220E+04 -5.37813E+03  2.72189E+04
 -2.21475E+04  1.25484E+04 -1.83755E+04 -5.09749E+03  5.88933E+03 -7.26220E+03  2.27682E+04  1.30965E+04
  7.26497E+03  3.59794E+04 -3.25460E+04  3.61154E+04 -6.42286E+04  2.33781E+03 -5.74064E+04 -4.35960E+04
 -1.25823E+04 -6.45067E+04  4.04619E+04 -4.62404E+04  5.98497E+04 -1.97445E+03  3.48770E+04  3.32212E+04
 -5.75777E+03  3.71256E+04 -3.05877E+04  1.70652E+04 -3.17244E+04 -4.20712E+03 -1.80236E+04 -1.13283E+04
 -8.73480E+03 -1.37853E+04 -7.43812E+02 -1.84742E+04  7.67470E+03 -2.34105E+04  1.54636E+04 -1.28913E+04
  1.08683E+04  5.39787E+03 -9.21064E+03  1.27511E+04 -2.24348E+04 -5.57717E+03 -9.03604E+03 -3.52729E+04
  2.38872E+04 -4.47227E+04  5.00308E+04 -2.01231E+04  4.62868E+04  2.00155E+04  1.63570E+04  4.53368E+04
 -1.62608E+04  3.45883E+04 -2.62814E+04  2.02801E+03 -1.05740E+04 -2.84837E+04  2.10761E+04 -3.49969E+04
  4.27070E+04 -9.88125E+03  3.76053E+04  2.43123E+04  1.95317E+04  4.82121E+04 -8.03391E+03  5.24715E+04
 -3.34190E+04  3.55074E+04 -4.42891E+04  1.03564E+04 -4.47370E+04 -1.74253E+04 -2.46009E+04 -4.00432E+04
  7.54825E+03 -3.94852E+04  3.28127E+04 -1.58110E+04  3.02975E+04  1.08856E+04  4.61196E+03  1.96712E+04
 -1.35798E+04  8.56337E+03 -1.08218E+04 -7.76043E+03  5.62118E+03 -1.08181E+04  1.80851E+04  5.74427E+03
  1.39570E+04  2.26551E+04 -5.37727E+03  2.57816E+04 -2.29150E+04  1.28284E+04 -2.96407E+04 -3.93709E+03
 -2.26114E+04 -1.76329E+04 -9.69602E+03 -2.22200E+04  4.32459E+03 -2.23907E+04  1.75670E+04 -2.03517E+04
  2.84368E+04 -1.36342E+04  3.47354E+04  3.76673E+03  2.53150E+04  2.18351E+04  4.58066E+03  3.84226E+04
 -1.86014E+04  3.16484E+04 -2.86583E+04  1.09981E+04 -2.16672E+04 -1.04432E+04 -4.41052E+03 -1.33678E+04
  9.94132E+02 -2.04032E+03 -5.74093E+03  7.18608E+03 -1.79771E+04  5.18269E+03 -1.76147E+04 -8.15410E+03
 -1.05749E+04 -2.04009E+04  5.39073E+03 -2.48396E+04  1.66806E+04 -1.75152E+04  2.01639E+04 -1.47117E+03
  1.27145E+04  1.44555E+04 -1.30797E+03  2.08301E+04 -1.45439E+04  1.18661E+04 -2.05931E+04 -4.16976E+03
 -1.55266E+04 -1.88840E+04 -2.10038E+03 -2.50538E+04  1.11719E+04 -2.07782E+04  2.06028E+04 -1.04100E+04
  1.93269E+04  6.95745E+01  1.40199E+04  4.93985E+03  7.68114E+03  1.07832E+03  1.06440E+04 -1.55758E+03
  1.90202E+04  2.74093E+03  2.18670E+04  1.64668E+04  1.47209E+04  3.31847E+04 -2.77490E+03  3.81708E+04
 -2.16526E+04  3.11382E+04 -3.56375E+04  1.55968E+04 -3.76562E+04 -2.97374E+03 -3.11229E+04 -2.19073E+04
 -1.26694E+04 -3.13704E+04  1.12104E+04 -2.76965E+04  2.36732E+04 -1.37297E+04  2.10849E+04  6.48222E+03
  7.39007E+03  1.63480E+04 -1.00175E+04  1.39403E+04 -1.76369E+04  2.59907E+03 -1.33766E+04 -1.10237E+04
 -2.46887E+02 -1.68434E+04  8.95788E+03 -1.24606E+04  1.15264E+04 -1.69733E+03  2.64320E+03  7.47682E+03
 -7.25502E+03  2.99571E+03 -7.15451E+03 -6.03191E+03 -9.93458E+02 -1.52881E+04  1.05294E+04 -1.65147E+04
  1.91432E+04 -8.84628E+03  2.11362E+04  2.98513E+03  1.88745E+04  1.52368E+04  8.70000E+03  2.39640E+04
 -4.07124E+03  2.56327E+04 -1.65286E+04  1.58479E+04 -1.86741E+04  3.35942E+03 -1.27103E+04 -4.79024E+03
 -5.79230E+03 -5.75438E+03 -6.47866E+02  6.37589E+02 -3.14142E+03  2.96309E+03 -6.05175E+03  4.89632E+03
 -1.21733E+04 -5.20976E+02 -1.24447E+04 -1.01138E+04 -5.36566E+03 -1.61903E+04  5.38327E+03 -1.29715E+04
  1.07827E+04 -5.49463E+03  7.68081E+03  3.49966E+03 -2.94541E+02  5.04075E+03 -6.25643E+03 -2.41771E+02
 -6.05400E+03 -8.77885E+03 -8.86694E+02 -1.26626E+04  7.37924E+03 -1.33287E+04  1.62931E+04 -7.36685E+03
  1.86026E+04  1.50983E+03  1.43183E+04  1.13542E+04  2.39202E+03  1.53219E+04 -7.97281E+03  1.26693E+04
 -1.08006E+04  3.66114E+03 -5.41052E+03 -2.68513E+03  1.87669E+03 -3.61613E+03  6.79572E+03 -1.10874E+03
  6.13081E+03  5.38768E+03  1.57706E+03  1.03477E+04 -7.12655E+03  9.85644E+03 -1.25576E+04  2.27308E+03
 -8.80793E+03 -6.49825E+03  1.78161E+02 -1.07548E+04  7.06072E+03 -5.50673E+03  7.03660E+03  2.55862E+03
  1.55969E+03  7.09005E+03 -6.66524E+03  8.85369E+03 -9.99149E+03  4.12101E+03 -1.01554E+04 -3.43282E+03
 -6.39566E+03 -1.17810E+04  3.07199E+03 -1.36016E+04  1.20114E+04 -7.89632E+03  1.30523E+04  2.51905E+03
  7.92741E+03  9.98245E+03 -1.12571E+03  1.22598E+04 -9.03808E+03  6.62164E+03 -1.00091E+04 -8.27856E+02
 -8.81451E+03 -8.06598E+03 -1.70502E+03 -9.41665E+03  4.75369E+03 -7.78309E+03  6.18696E+03 -3.40938E+03
  3.96660E+03  1.36436E+03 -1.00373E+03  1.90043E+03  3.47407E+01 -2.20132E+03  2.02329E+03 -5.05899E+03
  8.59426E+03 -3.51450E+03  1.19727E+04  1.18343E+03  1.13645E+04  7.77508E+03  8.34285E+03  1.50841E+04
 -3.53187E+03  1.79358E+04 -1.50578E+04  1.30466E+04 -1.92167E+04  2.78239E+03 -1.57258E+04 -6.54234E+03
 -8.22647E+03 -1.27942E+04 -2.13780E+02 -1.10665E+04  4.05189E+03 -5.75446E+03  3.77171E+03 -3.99716E+03
  2.89671E+03 -2.57095E+03  2.89489E+03 -3.37041E+03  4.79633E+03 -3.04999E+03  6.33627E+03 -5.48446E+02
  7.94642E+03  2.15945E+03  4.04101E+03  6.98626E+03 -2.09491E+03  8.10604E+03 -8.78303E+03  6.04012E+03
 -1.04808E+04 -1.35554E+03 -6.23403E+03 -7.75959E+03 -1.08060E+03 -1.12355E+04  6.63617E+03 -1.15083E+04
  1.20505E+04 -6.85157E+03  1.42177E+04  1.65135E+03  1.00078E+04  1.00035E+04  2.21886E+03  1.23963E+04
 -5.21849E+03  1.08074E+04 -7.28765E+03  3.48228E+03 -5.42384E+03 -1.32660E+03 -1.79975E+03 -1.24668E+03
 -9.94090E+02 -1.52166E+02 -1.38801E+03  2.54918E+03 -4.33951E+03  2.01153E+03 -7.70705E+03 -7.41682E+02
 -4.81099E+03 -8.06043E+03 -6.31972E+00 -1.05182E+04  6.45541E+03 -9.75928E+03  9.80305E+03 -3.18409E+03
  1.02849E+04  5.15992E+03  4.39564E+03  9.28365E+03 -1.94545E+03  1.05343E+04 -7.10615E+03  6.69412E+03
 -9.27938E+03  4.15634E+02 -7.64308E+03 -6.46268E+03 -6.50906E+02 -8.30000E+03  4.39365E+03 -5.99181E+03
  6.03937E+03 -2.18171E+03  4.29293E+03  1.94311E+03  1.64006E+03  3.39626E+03  1.21557E+03  1.55592E+03
  2.03663E+03  6.96750E+02  2.73656E+03  1.43513E+03  3.14034E+03  3.90954E+03  3.01241E+03  5.36367E+03
 -2.44570E+03  7.78385E+03 -7.18993E+03  8.51449E+03 -9.80910E+03  2.10882E+03 -1.04901E+04 -3.72693E+03
 -4.84245E+03 -1.00683E+04  1.67013E+03 -1.11015E+04  5.81758E+03 -7.00029E+03  8.27431E+03 -1.95329E+03
  6.42982E+03  3.87471E+03  1.34983E+03  6.07097E+03 -2.57330E+03  3.79844E+03 -3.88723E+03 -5.86331E+02
 -1.90881E+03 -4.15053E+03  2.39962E+03 -4.55431E+03  4.13086E+03 -2.12335E+03  3.73282E+03  1.17163E+03
  2.42066E+03  1.62515E+03  1.08262E+03  8.80735E+02 -7.57813E+02  1.32803E+03  1.63055E+03 -3.66156E+02
  1.39898E+03 -6.01446E+02  4.24707E+03  1.70248E+03  2.07325E+03  5.57052E+03 -7.62694E+02  7.27550E+03
 -4.76825E+03  4.31761E+03 -6.25308E+03  1.10768E+03 -5.77615E+03 -1.96598E+03 -1.67747E+03 -3.53740E+03
  1.08763E+03 -3.96508E+03  2.53094E+03 -1.98466E+03  1.76904E+03  2.70387E+03 -1.14012E+03  3.05586E+03
 -3.81317E+03  1.91013E+03 -4.51184E+03 -2.44471E+03 -2.48506E+03 -5.43643E+03  6.95885E+02 -5.38220E+03
  2.75794E+03 -3.17207E+03  3.69638E+03 -6.03449E+01  3.20119E+03  1.13762E+03  2.68287E+02  2.64097E+03
 -1.49675E+03  1.20012E+03 -2.35836E+03 -1.54598E+03  9.58992E+02 -3.72993E+03  4.41245E+03 -3.08498E+03
  5.36645E+03  3.13165E+02  6.33781E+03  3.92905E+03  1.85860E+03  5.98554E+03 -1.96823E+03  6.05504E+03
 -5.06627E+03  2.40346E+03 -5.51951E+03 -7.58230E+02 -2.56872E+03 -4.10927E+03  9.86557E+02 -4.05227E+03
  3.60285E+03 -2.05119E+03  3.01218E+03  1.89215E+03  1.10218E+03  3.41923E+03 -5.60010E+02  3.25760E+03
 -1.31660E+03  1.87085E+03 -1.51053E+03  8.74822E+02 -1.90141E+02  1.20895E+03 -1.43488E+03  1.19643E+03
 -1.68931E+03  2.71197E+03 -4.44069E+03  2.07206E+03 -5.83668E+03  4.44079E+02 -6.91807E+03 -3.77973E+03
 -3.38310E+03 -7.93571E+03  1.76698E+03 -9.17899E+03  5.30588E+03 -7.40675E+03  9.14106E+03 -2.70911E+03
  7.91583E+03  1.59716E+03  4.81755E+03  5.56767E+03  7.43524E+01  6.27936E+03 -2.42424E+03  4.59352E+03
 -3.24684E+03  1.62747E+03 -2.12719E+03 -6.52821E+02 -1.19102E+03 -1.92346E+02 -7.77278E+00  2.37318E+02
 -1.37272E+03 -1.94047E+01 -1.65740E+03  7.42067E+00 -1.04820E+02 -1.85167E+03 -3.20676E+01 -2.39604E+03
  3.02943E+03 -2.49589E+03  3.40268E+03 -3.04223E+02  4.29631E+03  3.52705E+03  8.31985E+02  6.01711E+03
 -3.11019E+03  6.99871E+03 -6.58678E+03  4.12267E+03 -7.35293E+03 -6.04843E+02 -5.14421E+03 -4.36934E+03
 -2.33905E+03 -5.82900E+03  1.36368E+03 -5.25290E+03  3.76414E+03 -3.07732E+03  3.66252E+03  2.18605E+02
  2.45974E+03  1.66869E+03  5.50979E+01  1.91381E+03 -8.94666E+02 -8.66820E+01  5.82835E+01 -1.04883E+03
  1.62384E+03 -7.70645E+02  2.26364E+03  1.11496E+03  1.38251E+03  2.17770E+03  3.28814E+02  2.69352E+03
 -2.91903E+03  2.49923E+03 -3.41879E+03  4.12848E+02 -3.51173E+03 -2.55429E+03 -4.20062E+02 -4.63936E+03
  2.70897E+03 -3.90893E+03  4.17491E+03 -8.98972E+02  4.22610E+03  5.54890E+02  2.45731E+03  3.48878E+03
  6.84172E+02  3.77941E+03 -1.18500E+03  3.21348E+03 -2.33765E+03  2.07635E+03 -1.89879E+03  6.21727E+02
 -1.22976E+03 -1.65889E+02 -1.01547E+03  3.70924E+02 -2.01808E+03  6.35319E+02 -2.76194E+03 -6.61570E+02
 -2.83369E+03 -1.50213E+03 -6.90369E+02 -3.84997E+03  1.81372E+03 -4.15122E+03  3.35608E+03 -1.74136E+03
  3.71210E+03  2.65151E+02  1.82267E+03  2.54329E+03 -2.77141E+02  3.51057E+03 -2.43165E+03  2.38253E+03
