 $NMID ID='MM_0lb_SNR800_14hz_g60_69.RAW', FMTDAT='(8E13.5)'
 TRAMP=1., VOLUME=1. $END
  3.09960E+05  8.09236E+02  3.37854E+05  2.50661E+05  8.48907E+04  3.38067E+05 -1.32751E+05  2.51573E+05
 -1.90711E+05  8.34978E+04 -1.12046E+05 -3.25126E+04  7.13657E+02 -5.07615E+04  5.39534E+04 -1.95285E+02
  3.57757E+04  5.29240E+04 -1.68721E+04  7.54530E+04 -6.08726E+04  6.41057E+04 -8.49023E+04  3.23850E+04
 -8.15373E+04 -1.17256E+04 -5.78371E+04 -5.17065E+04 -1.51466E+04 -7.00084E+04  2.80001E+04 -4.62997E+04
  4.04893E+04  3.78738E+03  1.63418E+04  4.81051E+04 -3.44671E+04  4.75859E+04 -6.73648E+04 -7.44583E+01
 -5.42229E+04 -5.69309E+04 -7.10626E+03 -7.79114E+04  3.44654E+04 -5.56002E+04  4.85108E+04 -1.77709E+04
  4.41135E+04  1.13565E+04  3.19226E+04  2.57885E+04  1.60229E+04  2.98851E+04 -5.54386E+03  2.74516E+04
 -2.21976E+04  1.22625E+04 -1.84759E+04 -4.75304E+03  6.00027E+03 -7.83989E+03  2.27962E+04  1.26395E+04
  6.92003E+03  3.57339E+04 -3.30727E+04  3.58861E+04 -6.43718E+04  2.09317E+03 -5.78734E+04 -4.35097E+04
 -1.26686E+04 -6.41196E+04  4.06175E+04 -4.58953E+04  5.91112E+04 -2.39238E+03  3.51394E+04  3.28028E+04
 -6.31371E+03  3.73471E+04 -3.06555E+04  1.67838E+04 -3.14849E+04 -4.14528E+03 -1.74206E+04 -1.13717E+04
 -9.03599E+03 -1.40327E+04 -9.14498E+02 -1.88832E+04  7.95167E+03 -2.25368E+04  1.55629E+04 -1.30316E+04
  1.09919E+04  5.46380E+03 -9.09287E+03  1.28139E+04 -2.20132E+04 -4.80933E+03 -8.60654E+03 -3.52516E+04
  2.39232E+04 -4.46408E+04  4.96982E+04 -2.01532E+04  4.66431E+04  2.00489E+04  1.61060E+04  4.53748E+04
 -1.62653E+04  3.42288E+04 -2.61089E+04  2.21303E+03 -1.02202E+04 -2.82419E+04  2.10763E+04 -3.46868E+04
  4.24011E+04 -1.00398E+04  3.74136E+04  2.40633E+04  1.91404E+04  4.81384E+04 -7.82309E+03  5.23291E+04
 -3.28975E+04  3.52298E+04 -4.38725E+04  9.75029E+03 -4.44542E+04 -1.72879E+04 -2.43634E+04 -3.94335E+04
  7.78718E+03 -3.95830E+04  3.22737E+04 -1.55098E+04  2.97799E+04  1.06403E+04  4.14574E+03  1.95517E+04
 -1.38036E+04  8.83685E+03 -1.05797E+04 -7.28100E+03  5.67466E+03 -1.08019E+04  1.86730E+04  6.06464E+03
  1.40445E+04  2.24527E+04 -5.91292E+03  2.54899E+04 -2.26490E+04  1.22626E+04 -2.90628E+04 -4.09451E+03
 -2.24020E+04 -1.77490E+04 -9.31888E+03 -2.19897E+04  4.12839E+03 -2.13935E+04  1.69434E+04 -1.97181E+04
  2.76646E+04 -1.31887E+04  3.45536E+04  3.47925E+03  2.48053E+04  2.14208E+04  4.20244E+03  3.78657E+04
 -1.82492E+04  3.11642E+04 -2.87637E+04  1.04736E+04 -2.13434E+04 -1.04302E+04 -4.40775E+03 -1.33030E+04
  1.46698E+03 -2.17724E+03 -5.75937E+03  7.41153E+03 -1.76469E+04  5.04447E+03 -1.74750E+04 -7.99657E+03
 -1.06621E+04 -2.02021E+04  5.44036E+03 -2.44978E+04  1.62352E+04 -1.72187E+04  1.94480E+04 -1.63130E+03
  1.21620E+04  1.39888E+04 -1.01244E+03  2.02461E+04 -1.42863E+04  1.17369E+04 -2.04273E+04 -4.60177E+03
 -1.50721E+04 -1.82401E+04 -2.00873E+03 -2.45276E+04  1.13914E+04 -1.98036E+04  2.00811E+04 -9.98491E+03
  1.87469E+04  1.38550E+00  1.37869E+04  4.84677E+03  7.44434E+03  1.26909E+03  1.03773E+04 -1.94017E+03
  1.87278E+04  2.67113E+03  2.11148E+04  1.57285E+04  1.40127E+04  3.24806E+04 -2.77163E+03  3.68272E+04
 -2.12462E+04  2.96376E+04 -3.44665E+04  1.51507E+04 -3.62139E+04 -2.77761E+03 -2.96847E+04 -2.08804E+04
 -1.25591E+04 -2.99525E+04  1.03765E+04 -2.66137E+04  2.28342E+04 -1.32525E+04  2.04865E+04  6.01722E+03
  7.40682E+03  1.53065E+04 -9.63793E+03  1.34013E+04 -1.68180E+04  2.47105E+03 -1.28208E+04 -1.06333E+04
 -6.78503E+01 -1.59335E+04  8.78924E+03 -1.19712E+04  1.08305E+04 -1.21389E+03  2.47396E+03  6.77666E+03
 -7.33312E+03  2.65771E+03 -6.91282E+03 -5.62819E+03 -5.87517E+02 -1.44829E+04  9.89232E+03 -1.54420E+04
  1.79148E+04 -8.48906E+03  1.97952E+04  3.45276E+03  1.68118E+04  1.42991E+04  7.94783E+03  2.20060E+04
 -3.59069E+03  2.40204E+04 -1.55556E+04  1.48169E+04 -1.75746E+04  3.61912E+03 -1.24034E+04 -4.09799E+03
 -5.37212E+03 -5.19033E+03 -6.20457E+02  1.02571E+03 -2.66824E+03  2.76034E+03 -5.73321E+03  4.71553E+03
 -1.14825E+04 -5.26983E+02 -1.19632E+04 -9.67571E+03 -4.92549E+03 -1.59352E+04  4.84410E+03 -1.22021E+04
  9.96924E+03 -5.49975E+03  7.07543E+03  3.18153E+03  3.47373E+01  4.85673E+03 -5.68530E+03 -7.19394E+01
 -5.24132E+03 -7.60172E+03 -1.16900E+03 -1.14339E+04  6.64091E+03 -1.19185E+04  1.51060E+04 -6.61988E+03
  1.79778E+04  1.56135E+03  1.31252E+04  1.03412E+04  2.64065E+03  1.38640E+04 -7.39220E+03  1.21892E+04
 -9.76655E+03  3.56555E+03 -5.19456E+03 -2.29217E+03  1.85139E+03 -2.96264E+03  6.74090E+03 -1.06044E+03
  5.77165E+03  5.43328E+03  1.17113E+03  9.48924E+03 -6.73868E+03  9.06796E+03 -1.18713E+04  2.64963E+03
 -7.69537E+03 -5.89118E+03  3.50292E+02 -9.86832E+03  6.19135E+03 -5.35062E+03  6.33502E+03  1.92854E+03
  1.38907E+03  6.62532E+03 -6.46253E+03  7.83786E+03 -9.28346E+03  3.67162E+03 -9.20631E+03 -3.03813E+03
 -4.97532E+03 -1.12270E+04  2.60313E+03 -1.28284E+04  1.05371E+04 -7.61080E+03  1.11929E+04  2.21322E+03
  7.29528E+03  9.42849E+03 -9.36247E+02  1.14174E+04 -8.10856E+03  6.42594E+03 -8.64208E+03 -6.42327E+02
 -7.90528E+03 -7.59435E+03 -1.44551E+03 -8.32670E+03  4.61566E+03 -6.98495E+03  4.75323E+03 -3.44314E+03
  3.69598E+03  1.19570E+03 -6.24766E+02  1.55359E+03 -4.76396E+01 -1.85352E+03  1.09969E+03 -4.55129E+03
  7.37393E+03 -2.67211E+03  1.04029E+04  1.27517E+03  1.00575E+04  6.92153E+03  7.34658E+03  1.33951E+04
 -2.77730E+03  1.60681E+04 -1.32969E+04  1.15206E+04 -1.72135E+04  2.35854E+03 -1.37379E+04 -5.53248E+03
 -7.20330E+03 -1.13212E+04 -4.08121E+02 -9.26509E+03  3.82950E+03 -4.79706E+03  3.33054E+03 -3.65111E+03
  2.54242E+03 -2.26898E+03  3.29645E+03 -3.24496E+03  4.28962E+03 -2.18592E+03  5.58111E+03 -7.95977E+02
  7.18431E+03  1.56926E+03  3.26757E+03  6.01980E+03 -1.74061E+03  6.28321E+03 -7.54778E+03  5.25284E+03
 -9.15827E+03 -1.09235E+03 -5.51008E+03 -6.45888E+03 -3.83640E+02 -9.72751E+03  5.50169E+03 -9.83964E+03
  1.00634E+04 -5.50041E+03  1.23325E+04  1.13249E+03  8.34818E+03  8.65865E+03  1.70340E+03  1.07757E+04
 -4.28637E+03  9.51349E+03 -6.36282E+03  3.36988E+03 -4.31292E+03 -1.32823E+03 -1.35986E+03 -1.60239E+03
 -6.68237E+02 -7.90843E+01 -1.48872E+03  2.43267E+03 -3.95575E+03  1.59762E+03 -6.60297E+03 -9.08809E+02
 -3.90951E+03 -6.28070E+03  4.90334E+02 -8.89133E+03  5.16969E+03 -8.11180E+03  8.30197E+03 -2.16036E+03
  8.63387E+03  4.47506E+03  3.91490E+03  7.23961E+03 -1.96676E+03  8.53799E+03 -6.15333E+03  5.30512E+03
 -7.82752E+03  4.86223E+02 -6.30622E+03 -5.31021E+03 -6.75392E+02 -6.88148E+03  3.49043E+03 -5.29101E+03
  5.64516E+03 -1.79951E+03  3.60039E+03  1.27793E+03  1.55924E+03  2.88936E+03  9.77407E+02  9.07004E+02
  2.31193E+03  9.52991E+02  2.09260E+03  1.32319E+03  2.55504E+03  3.56581E+03  2.50454E+03  4.19305E+03
 -1.91126E+03  6.19835E+03 -5.52439E+03  6.95215E+03 -7.77717E+03  1.63262E+03 -8.59945E+03 -2.73876E+03
 -3.96932E+03 -7.74966E+03  1.33600E+03 -9.31111E+03  4.65374E+03 -5.39845E+03  6.38475E+03 -1.63335E+03
  4.96946E+03  3.20258E+03  6.89736E+02  4.87847E+03 -1.86751E+03  2.90577E+03 -3.23537E+03 -4.36476E+02
 -1.35883E+03 -3.48884E+03  2.10993E+03 -3.62604E+03  3.31706E+03 -1.70204E+03  3.03166E+03  7.59377E+02
  1.84825E+03  1.59846E+03  1.22091E+03  9.32156E+02 -7.03623E+02  1.13049E+03  1.54195E+03 -5.11895E+02
  8.07602E+02 -5.28950E+02  3.46774E+03  1.23849E+03  1.42098E+03  4.54849E+03 -6.13665E+02  5.59491E+03
 -3.42157E+03  3.41871E+03 -4.81667E+03  6.19672E+02 -4.50207E+03 -1.62520E+03 -1.16061E+03 -2.61452E+03
  4.40957E+02 -2.81836E+03  2.25827E+03 -1.57195E+03  1.43029E+03  1.93045E+03 -1.16177E+03  2.57927E+03
 -3.18347E+03  1.49685E+03 -3.43704E+03 -1.68803E+03 -1.89261E+03 -4.11757E+03  3.90489E+02 -3.84702E+03
  2.26744E+03 -1.94427E+03  3.03144E+03  2.77341E+02  3.00440E+03  9.59788E+02  4.07188E+02  2.50331E+03
 -1.40157E+03  6.66293E+02 -1.52536E+03 -8.88384E+02  7.42773E+02 -2.53249E+03  3.40095E+03 -2.56389E+03
  3.91081E+03  3.78368E+02  4.97503E+03  2.95895E+03  1.80426E+03  4.53161E+03 -1.38429E+03  4.65825E+03
 -3.70842E+03  1.34160E+03 -3.99091E+03 -6.03224E+02 -1.77372E+03 -3.11598E+03  4.37514E+02 -2.23994E+03
  2.82315E+03 -1.62561E+03  2.03286E+03  9.54938E+02  7.67140E+02  2.41855E+03  1.37881E+02  2.59314E+03
 -1.45821E+03  1.54118E+03 -1.12351E+03  2.07411E+02 -4.77081E+02  5.79773E+02 -6.58347E+02  1.19390E+03
 -1.27103E+03  2.35379E+03 -3.08536E+03  1.66139E+03 -4.05047E+03 -2.91931E+01 -5.05029E+03 -2.50606E+03
 -2.54023E+03 -5.51146E+03  1.19362E+03 -6.96065E+03  3.90893E+03 -5.69615E+03  6.37590E+03 -1.79041E+03
  5.78275E+03  6.43344E+02  3.41206E+03  4.22788E+03 -7.93029E+01  4.03841E+03 -1.76648E+03  3.41892E+03
 -2.47876E+03  1.37327E+03 -1.50083E+03 -6.01398E+02 -7.18122E+02 -2.68162E+02 -5.04721E+02 -1.34731E+02
 -1.21893E+03 -6.67466E+01 -1.41808E+03 -6.59179E+01 -3.82196E+02 -1.28986E+03 -9.14161E+01 -1.62468E+03
  2.20549E+03 -1.24594E+03  2.43251E+03  2.33462E+02  3.10335E+03  2.08049E+03  3.67115E+02  3.91411E+03
 -1.88183E+03  5.04009E+03 -4.62737E+03  3.08664E+03 -5.17756E+03 -4.01844E+02 -3.58589E+03 -3.39266E+03
 -1.71883E+03 -4.09757E+03  9.64229E+02 -3.55026E+03  2.34696E+03 -1.86300E+03  2.30672E+03  1.98707E+02
  1.71944E+03  1.17557E+03 -1.87429E+01  1.15576E+03 -1.05804E+03 -2.08511E+02 -7.43880E+00 -1.04001E+03
  1.03079E+03 -3.11741E+02  1.10242E+03  7.15418E+02  8.86763E+02  1.58132E+03  3.77073E+02  1.66625E+03
 -1.46945E+03  1.89025E+03 -2.34832E+03  2.09705E+02 -2.15470E+03 -1.72545E+03 -6.02494E+01 -2.91999E+03
  1.84742E+03 -2.29385E+03  2.39252E+03 -7.95840E+02  2.65054E+03 -4.97521E+01  1.53986E+03  2.12311E+03
  8.59476E+02  2.35519E+03 -4.14924E+02  2.01431E+03 -1.75906E+03  1.06136E+03 -1.10931E+03  8.65707E+01
 -6.34274E+02 -2.69050E+02 -7.07263E+02  3.26974E+02 -1.06757E+03  3.83085E+02 -1.84163E+03 -5.27500E+02
 -2.17322E+03 -9.73726E+02 -7.24542E+02 -2.55508E+03  1.18754E+03 -2.88935E+03  1.90117E+03 -1.42087E+03
  2.36904E+03  5.46395E+02  7.15582E+02  1.21679E+03 -2.99249E+02  2.37953E+03 -1.47939E+03  1.31808E+03
