 $NMID ID='MM_0lb_SNR800_11hz_g40_25.RAW', FMTDAT='(8E13.5)'
 TRAMP=1., VOLUME=1. $END
  3.09878E+05  2.26722E+01  3.37602E+05  2.50764E+05  8.47023E+04  3.37972E+05 -1.32481E+05  2.51836E+05
 -1.90326E+05  8.35803E+04 -1.12159E+05 -3.27081E+04  7.21227E+02 -5.06748E+04  5.38867E+04 -2.10879E+02
  3.53894E+04  5.28616E+04 -1.64791E+04  7.54865E+04 -6.09526E+04  6.37962E+04 -8.45004E+04  3.22261E+04
 -8.15825E+04 -1.15167E+04 -5.74640E+04 -5.16859E+04 -1.50913E+04 -7.00433E+04  2.78641E+04 -4.60835E+04
  4.06308E+04  3.47554E+03  1.65625E+04  4.81529E+04 -3.45004E+04  4.75066E+04 -6.70017E+04  2.70190E+01
 -5.39389E+04 -5.70646E+04 -6.96890E+03 -7.76715E+04  3.41725E+04 -5.56783E+04  4.86771E+04 -1.73977E+04
  4.37166E+04  1.13703E+04  3.21708E+04  2.63353E+04  1.57830E+04  2.99112E+04 -5.21435E+03  2.75096E+04
 -2.18062E+04  1.21219E+04 -1.80936E+04 -5.12120E+03  5.99083E+03 -7.21042E+03  2.29697E+04  1.27876E+04
  7.34542E+03  3.57048E+04 -3.28252E+04  3.61475E+04 -6.43573E+04  2.58468E+03 -5.78372E+04 -4.35967E+04
 -1.24545E+04 -6.38880E+04  4.04884E+04 -4.62649E+04  5.93431E+04 -2.39179E+03  3.50432E+04  3.36326E+04
 -5.75852E+03  3.75559E+04 -3.05346E+04  1.69067E+04 -3.11669E+04 -3.97677E+03 -1.78235E+04 -1.11243E+04
 -8.86768E+03 -1.39384E+04 -7.33386E+02 -1.88615E+04  8.10764E+03 -2.36242E+04  1.54857E+04 -1.30893E+04
  1.10672E+04  5.62135E+03 -9.04822E+03  1.26579E+04 -2.19296E+04 -5.30731E+03 -8.62476E+03 -3.54849E+04
  2.34955E+04 -4.44183E+04  4.97353E+04 -2.01587E+04  4.61014E+04  1.98592E+04  1.63627E+04  4.49198E+04
 -1.61049E+04  3.44837E+04 -2.62656E+04  2.18813E+03 -1.04448E+04 -2.87167E+04  2.13454E+04 -3.47490E+04
  4.23613E+04 -1.03162E+04  3.72282E+04  2.40826E+04  1.94584E+04  4.81727E+04 -8.03501E+03  5.27106E+04
 -3.28077E+04  3.54935E+04 -4.41677E+04  1.03118E+04 -4.43555E+04 -1.73815E+04 -2.46468E+04 -3.96956E+04
  7.43576E+03 -3.93528E+04  3.25369E+04 -1.59160E+04  3.00534E+04  1.12788E+04  4.45076E+03  1.96508E+04
 -1.35198E+04  9.04832E+03 -1.08133E+04 -7.45268E+03  5.80607E+03 -1.10982E+04  1.81984E+04  6.09689E+03
  1.38580E+04  2.27256E+04 -5.57262E+03  2.55489E+04 -2.27899E+04  1.27442E+04 -2.95174E+04 -4.38956E+03
 -2.20191E+04 -1.77672E+04 -9.67171E+03 -2.21547E+04  4.27694E+03 -2.16885E+04  1.74702E+04 -1.98986E+04
  2.85652E+04 -1.36075E+04  3.49013E+04  3.39894E+03  2.50658E+04  2.18038E+04  4.49650E+03  3.86121E+04
 -1.86282E+04  3.20884E+04 -2.91758E+04  1.10497E+04 -2.14822E+04 -1.04080E+04 -4.65484E+03 -1.33763E+04
  1.44927E+03 -2.00491E+03 -6.09986E+03  7.67708E+03 -1.78129E+04  5.08535E+03 -1.77485E+04 -7.91608E+03
 -1.09918E+04 -2.08537E+04  5.71375E+03 -2.46918E+04  1.67705E+04 -1.77425E+04  2.00137E+04 -1.70030E+03
  1.24896E+04  1.43240E+04 -9.32941E+02  2.07752E+04 -1.46461E+04  1.17450E+04 -2.06886E+04 -3.97175E+03
 -1.49623E+04 -1.83759E+04 -2.20703E+03 -2.51455E+04  1.13333E+04 -2.08845E+04  2.07506E+04 -1.04053E+04
  1.97020E+04 -5.22110E+01  1.41058E+04  4.84795E+03  7.96097E+03  1.07998E+03  1.05623E+04 -1.83914E+03
  1.91926E+04  3.13725E+03  2.16718E+04  1.61020E+04  1.42276E+04  3.34830E+04 -2.80004E+03  3.80166E+04
 -2.21390E+04  3.11439E+04 -3.57057E+04  1.58841E+04 -3.80339E+04 -2.66809E+03 -3.12320E+04 -2.19903E+04
 -1.31098E+04 -3.15446E+04  1.07531E+04 -2.78478E+04  2.42200E+04 -1.37223E+04  2.14097E+04  6.45501E+03
  7.68296E+03  1.57788E+04 -9.92358E+03  1.42397E+04 -1.77443E+04  2.49810E+03 -1.33421E+04 -1.14395E+04
 -2.63202E+02 -1.72316E+04  8.82481E+03 -1.28207E+04  1.15701E+04 -1.38506E+03  2.67121E+03  7.82219E+03
 -7.67259E+03  3.64190E+03 -7.45071E+03 -5.76493E+03 -1.36064E+03 -1.54037E+04  1.05283E+04 -1.63531E+04
  1.92441E+04 -8.91619E+03  2.13325E+04  3.02344E+03  1.83062E+04  1.51387E+04  8.24694E+03  2.38287E+04
 -4.31006E+03  2.58491E+04 -1.67202E+04  1.61983E+04 -1.88384E+04  3.58247E+03 -1.30261E+04 -4.52506E+03
 -5.77599E+03 -6.15774E+03 -5.80379E+02  5.99378E+02 -2.79556E+03  2.77092E+03 -5.94757E+03  4.91464E+03
 -1.20948E+04 -6.63521E+02 -1.28838E+04 -1.01170E+04 -5.00469E+03 -1.66364E+04  5.58049E+03 -1.33103E+04
  1.08952E+04 -5.66421E+03  7.78418E+03  3.44333E+03 -1.20358E+02  5.11918E+03 -6.64003E+03 -1.04010E+02
 -5.89125E+03 -8.33447E+03 -7.37235E+02 -1.25192E+04  7.28808E+03 -1.34548E+04  1.62406E+04 -7.11759E+03
  1.90189E+04  1.59095E+03  1.43655E+04  1.17471E+04  2.62880E+03  1.52892E+04 -8.10106E+03  1.29312E+04
 -1.10046E+04  4.04424E+03 -5.53538E+03 -3.09081E+03  1.93087E+03 -3.59094E+03  7.10796E+03 -9.90892E+02
  6.33284E+03  5.93490E+03  1.18562E+03  1.01201E+04 -7.52930E+03  9.99016E+03 -1.29688E+04  2.78375E+03
 -8.69905E+03 -6.94376E+03  5.49264E+01 -1.10849E+04  7.36257E+03 -5.62903E+03  7.16633E+03  2.48648E+03
  1.77008E+03  7.79983E+03 -6.53922E+03  9.35223E+03 -1.06466E+04  3.92640E+03 -1.04896E+04 -3.48253E+03
 -6.21647E+03 -1.23896E+04  2.79869E+03 -1.42806E+04  1.21836E+04 -8.59262E+03  1.34173E+04  2.31107E+03
  7.95759E+03  1.07152E+04 -1.09452E+03  1.26696E+04 -8.92447E+03  7.18948E+03 -1.00164E+04 -8.28540E+02
 -8.90642E+03 -8.54888E+03 -1.90567E+03 -9.92037E+03  4.70508E+03 -7.68812E+03  6.18641E+03 -3.34353E+03
  4.61248E+03  1.50595E+03 -7.41922E+02  1.59602E+03 -6.15387E+02 -2.22903E+03  2.02506E+03 -5.14869E+03
  8.75807E+03 -3.45579E+03  1.24150E+04  1.68773E+03  1.17901E+04  7.97182E+03  8.63958E+03  1.57514E+04
 -3.76601E+03  1.85283E+04 -1.56793E+04  1.34761E+04 -2.00980E+04  2.47048E+03 -1.62486E+04 -6.39127E+03
 -8.12678E+03 -1.32679E+04 -1.11209E+01 -1.13000E+04  3.87989E+03 -6.12575E+03  3.99772E+03 -4.15760E+03
  2.87785E+03 -2.63311E+03  3.52571E+03 -3.17895E+03  4.96081E+03 -2.55670E+03  6.56255E+03 -7.26272E+02
  8.63850E+03  2.01822E+03  4.37767E+03  7.34945E+03 -1.73450E+03  8.33100E+03 -8.91815E+03  6.91688E+03
 -1.10408E+04 -1.34489E+03 -7.02083E+03 -7.71070E+03 -6.85688E+02 -1.20399E+04  6.48924E+03 -1.19273E+04
  1.22315E+04 -6.74677E+03  1.48436E+04  1.75625E+03  1.02570E+04  1.03888E+04  1.59878E+03  1.40343E+04
 -5.47944E+03  1.14287E+04 -7.82689E+03  3.34305E+03 -5.27496E+03 -1.28419E+03 -2.03274E+03 -1.60945E+03
 -1.17642E+03 -9.85735E+01 -1.52536E+03  3.12673E+03 -4.79182E+03  2.04821E+03 -7.95356E+03 -9.01653E+02
 -5.10964E+03 -8.03902E+03  4.28822E+02 -1.12065E+04  6.99761E+03 -1.02887E+04  1.01674E+04 -3.07983E+03
  1.06245E+04  5.25165E+03  4.95139E+03  9.48497E+03 -1.91272E+03  1.11345E+04 -7.69624E+03  7.03854E+03
 -9.79989E+03  1.60745E+02 -7.91546E+03 -6.46295E+03 -6.51977E+02 -9.29100E+03  4.76300E+03 -6.44409E+03
  6.94671E+03 -2.52880E+03  4.57141E+03  1.74993E+03  1.28860E+03  3.35193E+03  1.29527E+03  1.17736E+03
  2.48033E+03  1.12085E+03  2.57663E+03  1.14378E+03  3.04515E+03  4.39569E+03  3.33042E+03  5.90877E+03
 -2.12134E+03  8.77368E+03 -7.37477E+03  8.86313E+03 -1.04278E+04  2.27679E+03 -1.14224E+04 -3.83989E+03
 -4.95423E+03 -1.09055E+04  1.62792E+03 -1.23380E+04  6.66856E+03 -7.25064E+03  9.03662E+03 -1.99976E+03
  6.82267E+03  4.40515E+03  1.38118E+03  5.87911E+03 -2.86914E+03  3.85112E+03 -4.15504E+03 -4.89385E+02
 -2.28306E+03 -4.45516E+03  2.60290E+03 -4.61879E+03  4.49478E+03 -2.26919E+03  4.37675E+03  1.07230E+03
  2.51932E+03  2.20560E+03  1.12343E+03  1.44487E+03 -4.86339E+02  1.40377E+03  1.61062E+03 -5.29416E+02
  1.26825E+03 -3.57838E+02  4.38685E+03  1.75744E+03  2.47212E+03  5.95473E+03 -6.63392E+02  7.59508E+03
 -5.18580E+03  4.67886E+03 -6.71350E+03  1.51514E+03 -6.31660E+03 -2.52674E+03 -1.96403E+03 -4.23858E+03
  6.78678E+02 -4.08689E+03  2.63647E+03 -1.55175E+03  2.16849E+03  2.38050E+03 -1.27222E+03  3.16296E+03
 -4.47697E+03  2.13155E+03 -5.02446E+03 -2.36730E+03 -2.61703E+03 -5.79007E+03  7.74021E+02 -5.67374E+03
  3.14111E+03 -3.14051E+03  4.03043E+03 -6.05708E+02  3.89713E+03  1.78687E+03  6.66413E+02  3.19573E+03
 -1.88629E+03  5.45539E+02 -2.52874E+03 -1.86156E+03  9.76503E+02 -4.34169E+03  5.30551E+03 -3.71194E+03
  6.50706E+03  6.03622E+02  6.61683E+03  4.21210E+03  2.21908E+03  6.77775E+03 -2.12890E+03  6.58427E+03
 -5.61075E+03  2.82769E+03 -5.55105E+03 -9.65667E+02 -3.56372E+03 -4.34830E+03  1.12161E+03 -3.97684E+03
  4.63571E+03 -2.49574E+03  3.43428E+03  2.09423E+03  6.19909E+02  3.85397E+03 -4.93354E+02  3.25323E+03
 -1.72494E+03  2.32840E+03 -1.67174E+03  3.81566E+02 -4.92235E+02  8.27404E+02 -1.04020E+03  1.56428E+03
 -2.21041E+03  2.70446E+03 -4.43577E+03  2.36405E+03 -6.43487E+03 -1.77205E+02 -7.82638E+03 -4.39691E+03
 -4.01329E+03 -8.72789E+03  1.79727E+03 -1.03763E+04  6.37044E+03 -8.38176E+03  1.00297E+04 -3.20066E+03
  9.04715E+03  1.48955E+03  5.57471E+03  6.09395E+03  5.97803E+02  7.10554E+03 -2.83398E+03  5.05229E+03
 -3.87716E+03  2.42240E+03 -2.66439E+03 -8.81818E+02 -6.25804E+02 -7.91183E+02 -1.00252E+03 -2.49416E+01
 -1.45140E+03  1.59784E+02 -1.67679E+03 -3.22789E+02 -7.59934E+02 -1.84983E+03 -3.05520E+02 -2.73760E+03
  3.17611E+03 -2.77816E+03  4.15330E+03  1.21325E+02  4.52711E+03  4.13992E+03  8.75007E+02  6.52081E+03
 -3.12882E+03  7.97274E+03 -6.94003E+03  4.57395E+03 -8.23673E+03 -5.49016E+02 -6.08548E+03 -5.09137E+03
 -3.05252E+03 -6.95146E+03  1.86654E+03 -6.40538E+03  4.37345E+03 -3.27024E+03  4.48971E+03  1.45764E+02
  2.40560E+03  2.20946E+03  7.64764E+01  1.75178E+03 -1.46425E+03 -7.55937E+01 -9.83797E+00 -1.65647E+03
  2.41921E+03 -4.73487E+02  2.58186E+03  1.04851E+03  1.64982E+03  2.72247E+03 -5.41452E+01  3.30200E+03
 -2.92573E+03  3.12939E+03 -4.58225E+03  2.89878E+02 -4.09369E+03 -3.34419E+03 -4.39115E+02 -5.40875E+03
  2.90320E+03 -4.55783E+03  5.22415E+03 -1.00113E+03  5.07401E+03  8.64656E+02  2.64909E+03  3.92670E+03
  6.80097E+02  4.39117E+03 -1.78613E+03  3.29654E+03 -2.98747E+03  2.11789E+03 -2.34166E+03  2.93073E+02
 -1.30647E+03 -1.72101E+02 -1.42199E+03  2.52596E+02 -2.53743E+03  7.61317E+02 -3.62504E+03 -2.96711E+02
 -3.22808E+03 -2.05848E+03 -1.02307E+03 -4.51095E+03  2.16740E+03 -5.20334E+03  3.77749E+03 -2.16488E+03
  4.50999E+03  3.97367E+02  2.15673E+03  2.96877E+03 -4.53283E+02  4.54395E+03 -3.30308E+03  2.95470E+03
