 $NMID ID='MM_0lb_SNR800_15hz_g40_45.RAW', FMTDAT='(8E13.5)'
 TRAMP=1., VOLUME=1. $END
  3.10037E+05  3.95042E+02  3.37352E+05  2.50440E+05  8.43840E+04  3.37748E+05 -1.32698E+05  2.50547E+05
 -1.90018E+05  8.28706E+04 -1.11179E+05 -3.27541E+04  1.05588E+03 -5.02982E+04  5.41291E+04 -1.51163E+02
  3.52005E+04  5.28767E+04 -1.67165E+04  7.52740E+04 -6.08068E+04  6.34812E+04 -8.36242E+04  3.17515E+04
 -8.02252E+04 -1.10431E+04 -5.69233E+04 -5.06254E+04 -1.50469E+04 -6.91386E+04  2.69740E+04 -4.53391E+04
  3.94882E+04  3.86325E+03  1.57996E+04  4.74376E+04 -3.40767E+04  4.63345E+04 -6.56756E+04 -3.01250E+02
 -5.25659E+04 -5.61200E+04 -6.67418E+03 -7.63030E+04  3.34851E+04 -5.42468E+04  4.69503E+04 -1.67094E+04
  4.23471E+04  1.12859E+04  3.13380E+04  2.49920E+04  1.58438E+04  2.88400E+04 -4.89764E+03  2.70335E+04
 -2.18921E+04  1.24997E+04 -1.88774E+04 -4.42449E+03  5.09905E+03 -7.71472E+03  2.19639E+04  1.16996E+04
  7.45887E+03  3.40271E+04 -3.15509E+04  3.47705E+04 -6.22613E+04  2.20372E+03 -5.65153E+04 -4.20902E+04
 -1.24322E+04 -6.19481E+04  3.88276E+04 -4.44682E+04  5.66411E+04 -2.19167E+03  3.31452E+04  3.15866E+04
 -6.22642E+03  3.46735E+04 -2.89281E+04  1.49998E+04 -2.89521E+04 -5.10656E+03 -1.58907E+04 -1.04359E+04
 -8.05005E+03 -1.20470E+04 -1.03618E+03 -1.75512E+04  6.82556E+03 -2.29577E+04  1.55307E+04 -1.37300E+04
  1.17988E+04  4.68774E+03 -7.43001E+03  1.27139E+04 -2.02182E+04 -3.29804E+03 -8.40724E+03 -3.22900E+04
  2.20851E+04 -4.21637E+04  4.65055E+04 -1.92084E+04  4.36208E+04  1.89995E+04  1.48145E+04  4.32271E+04
 -1.56424E+04  3.26476E+04 -2.45233E+04  1.46502E+03 -8.80648E+03 -2.72551E+04  2.08277E+04 -3.23301E+04
  3.96304E+04 -7.96391E+03  3.36769E+04  2.32430E+04  1.69395E+04  4.46431E+04 -7.50017E+03  4.77267E+04
 -3.00840E+04  3.18521E+04 -3.98290E+04  9.14006E+03 -4.09179E+04 -1.56481E+04 -2.21550E+04 -3.62157E+04
  7.08796E+03 -3.64017E+04  3.05184E+04 -1.36351E+04  2.82003E+04  1.09710E+04  3.56738E+03  1.82500E+04
 -1.31934E+04  7.89617E+03 -9.82464E+03 -7.68894E+03  6.15817E+03 -1.03729E+04  1.76195E+04  6.46621E+03
  1.28870E+04  2.17736E+04 -6.57720E+03  2.43412E+04 -2.17664E+04  1.02374E+04 -2.67636E+04 -5.72126E+03
 -1.90855E+04 -1.67504E+04 -7.06383E+03 -1.89840E+04  4.03775E+03 -1.75738E+04  1.40525E+04 -1.66890E+04
  2.35986E+04 -1.21267E+04  3.06848E+04  2.40999E+03  2.28051E+04  1.84196E+04  4.18065E+03  3.50179E+04
 -1.67555E+04  2.91137E+04 -2.68549E+04  1.00997E+04 -2.03268E+04 -1.07774E+04 -4.11035E+03 -1.34581E+04
  2.04908E+03 -3.00440E+03 -3.74321E+03  5.89395E+03 -1.45969E+04  5.25684E+03 -1.51421E+04 -6.22341E+03
 -9.55241E+03 -1.73320E+04  4.93805E+03 -2.13903E+04  1.39992E+04 -1.54152E+04  1.62665E+04 -1.48678E+03
  1.04158E+04  1.19481E+04 -1.15899E+03  1.76385E+04 -1.18590E+04  9.71310E+03 -1.73657E+04 -3.82146E+03
 -1.28824E+04 -1.58015E+04 -1.87853E+03 -2.08168E+04  9.45443E+03 -1.73408E+04  1.78265E+04 -8.17515E+03
  1.63088E+04  2.48591E+02  1.18704E+04  4.16636E+03  6.23460E+03  5.55412E+02  8.86078E+03 -1.58283E+03
  1.58272E+04  2.59310E+03  1.72616E+04  1.40883E+04  1.11503E+04  2.78414E+04 -3.02813E+03  3.11555E+04
 -1.80776E+04  2.42929E+04 -2.84265E+04  1.20321E+04 -2.96383E+04 -2.16468E+03 -2.53044E+04 -1.70863E+04
 -1.12768E+04 -2.44685E+04  8.38500E+03 -2.24863E+04  1.92852E+04 -1.22404E+04  1.76407E+04  4.70125E+03
  6.91281E+03  1.30922E+04 -8.07345E+03  1.16370E+04 -1.46693E+04  2.74033E+03 -1.17969E+04 -9.13527E+03
 -1.89546E+02 -1.41597E+04  7.16576E+03 -1.04431E+04  9.27927E+03 -1.35877E+03  1.91662E+03  5.86044E+03
 -6.18665E+03  1.91883E+03 -5.18186E+03 -4.99134E+03 -1.95072E+01 -1.22137E+04  8.74422E+03 -1.26164E+04
  1.45896E+04 -6.27046E+03  1.56043E+04  2.72265E+03  1.35036E+04  1.13459E+04  6.17093E+03  1.76368E+04
 -2.34763E+03  1.95440E+04 -1.22260E+04  1.25142E+04 -1.37393E+04  3.24874E+03 -1.00583E+04 -2.88780E+03
 -5.06634E+03 -4.21700E+03 -5.43336E+02  1.19057E+03 -2.10932E+03  2.32140E+03 -4.33206E+03  4.26993E+03
 -9.48089E+03 -6.46646E+02 -1.03288E+04 -8.51939E+03 -4.12827E+03 -1.32473E+04  4.45353E+03 -1.03169E+04
  8.50835E+03 -4.61414E+03  6.07249E+03  2.82100E+03  3.36570E+02  4.16931E+03 -4.41453E+03  1.59575E+02
 -4.55939E+03 -6.51781E+03 -1.06496E+03 -9.04442E+03  4.86035E+03 -9.69357E+03  1.24496E+04 -5.05090E+03
  1.45487E+04  8.08207E+02  1.07227E+04  7.96859E+03  2.37629E+03  1.10678E+04 -6.17318E+03  1.00423E+04
 -8.01338E+03  3.31474E+03 -4.46459E+03 -1.90027E+03  1.35739E+03 -2.36866E+03  5.70481E+03 -1.00676E+03
  4.58552E+03  4.18328E+03  9.83995E+02  7.81290E+03 -5.66918E+03  7.75031E+03 -9.60425E+03  1.75374E+03
 -6.41271E+03 -4.81078E+03  4.59276E+02 -8.64756E+03  5.05891E+03 -4.18417E+03  4.70978E+03  1.49443E+03
  8.27749E+02  4.62985E+03 -5.04506E+03  6.17019E+03 -7.15098E+03  3.22362E+03 -6.57596E+03 -2.17456E+03
 -4.30504E+03 -8.39000E+03  1.84472E+03 -9.75815E+03  7.77181E+03 -6.15532E+03  8.75897E+03  1.46486E+03
  5.76342E+03  7.13779E+03 -5.57174E+02  9.25909E+03 -6.80892E+03  5.26425E+03 -6.84182E+03 -7.42646E+02
 -6.68469E+03 -6.24935E+03 -1.46673E+03 -6.71410E+03  3.17715E+03 -5.82336E+03  3.81590E+03 -3.12701E+03
  3.42336E+03  8.16870E+02 -1.67871E+01  1.42815E+03  4.11229E+02 -9.05564E+02  6.94902E+02 -3.01500E+03
  5.66639E+03 -1.74761E+03  7.97495E+03  1.08202E+03  8.04383E+03  4.94556E+03  6.34154E+03  1.04184E+04
 -2.07943E+03  1.22571E+04 -1.04776E+04  9.18480E+03 -1.35231E+04  1.66055E+03 -1.03724E+04 -4.19688E+03
 -5.90928E+03 -8.94578E+03 -3.10319E+02 -7.18477E+03  2.72677E+03 -3.59005E+03  2.58871E+03 -2.82235E+03
  1.88787E+03 -1.57121E+03  2.49287E+03 -2.80568E+03  4.19970E+03 -1.65515E+03  4.58546E+03 -1.15684E+01
  5.79183E+03  1.61575E+03  2.42027E+03  4.94850E+03 -1.95793E+03  4.55921E+03 -6.16286E+03  3.96623E+03
 -7.14748E+03 -1.03269E+03 -3.45048E+03 -4.88948E+03 -3.64447E+01 -7.31606E+03  4.59478E+03 -7.42194E+03
  7.41962E+03 -4.49589E+03  9.29969E+03  8.33824E+02  6.68462E+03  6.27114E+03  1.46640E+03  8.60565E+03
 -3.42129E+03  7.52323E+03 -4.81089E+03  2.72537E+03 -2.99300E+03 -1.37340E+03 -1.03289E+03 -9.54916E+02
 -4.79545E+02  4.46665E+02 -1.22591E+03  2.35415E+03 -3.38031E+03  1.46631E+03 -5.58127E+03 -3.64610E+02
 -2.80026E+03 -5.64575E+03  9.78761E+02 -6.60245E+03  4.31619E+03 -6.20101E+03  6.13154E+03 -1.81838E+03
  6.78595E+03  3.43836E+03  2.97507E+03  5.57355E+03 -1.40057E+03  6.84310E+03 -4.63984E+03  4.21312E+03
 -5.95161E+03  5.34753E+02 -4.90024E+03 -3.71723E+03 -5.31260E+02 -5.00344E+03  2.46230E+03 -3.94588E+03
  4.16916E+03 -1.56844E+03  2.69659E+03  1.01586E+03  8.17854E+02  2.08067E+03  8.68810E+02  8.14645E+02
  2.07259E+03  2.95772E+02  1.74742E+03  9.92291E+02  1.89999E+03  2.84117E+03  2.07157E+03  2.89103E+03
 -1.66870E+03  5.04277E+03 -4.01865E+03  5.93972E+03 -5.53781E+03  1.63870E+03 -6.55388E+03 -1.79187E+03
 -2.95948E+03 -5.94637E+03  9.43470E+02 -7.26806E+03  3.51939E+03 -4.49968E+03  5.31400E+03 -1.11534E+03
  4.05424E+03  2.52414E+03  6.95119E+02  3.41732E+03 -1.51880E+03  2.01840E+03 -2.10134E+03 -3.34474E+02
 -1.10169E+03 -2.57254E+03  1.79526E+03 -2.64911E+03  2.11135E+03 -1.34178E+03  2.23808E+03  5.33310E+02
  1.33353E+03  7.94391E+02  1.19834E+03  2.92870E+02 -6.11298E+02  7.68745E+02  1.43228E+03 -5.39510E+02
  3.21640E+02 -5.15045E+02  2.62211E+03  1.01773E+03  1.10623E+03  3.65742E+03 -5.41013E+02  4.41191E+03
 -2.87986E+03  2.31610E+03 -3.69102E+03  4.46128E+02 -3.26456E+03 -1.35029E+03 -9.93248E+02 -1.80175E+03
  3.51701E+02 -1.83581E+03  1.16441E+03 -1.14914E+03  1.14937E+03  1.64337E+03 -5.48473E+02  2.02122E+03
 -2.75507E+03  9.24227E+02 -2.36001E+03 -1.79290E+03 -1.37569E+03 -3.19833E+03  2.90032E+02 -3.07057E+03
  1.44893E+03 -1.54337E+03  2.02430E+03  3.73048E+02  1.86291E+03  3.29563E+02  3.40594E+02  2.15658E+03
 -6.79071E+02  2.38537E+02 -1.29334E+03 -6.60015E+02  8.06118E+02 -1.92255E+03  3.01935E+03 -1.53477E+03
  2.85965E+03  2.27190E+02  3.99131E+03  1.81002E+03  1.57463E+03  2.97025E+03 -6.07989E+02  3.23603E+03
 -2.74143E+03  1.32473E+03 -2.98837E+03 -3.53361E+02 -1.85934E+03 -2.38325E+03  3.45178E+02 -1.66124E+03
  2.35458E+03 -1.21222E+03  1.94199E+03  1.17585E+03  7.43531E+02  1.83574E+03 -6.85413E+01  1.79032E+03
 -4.69084E+02  1.33496E+03 -9.32386E+02  2.95638E+02 -2.20580E+02  4.90221E+02 -1.04978E+03  7.80397E+02
 -1.07777E+03  1.79343E+03 -2.73476E+03  1.11883E+03 -3.36773E+03  7.53985E+01 -4.13247E+03 -2.14359E+03
 -2.29148E+03 -4.31538E+03  6.56082E+02 -5.36587E+03  2.53210E+03 -4.29142E+03  4.92478E+03 -1.62547E+03
  4.59851E+03  5.10303E+02  2.61805E+03  3.06558E+03 -3.57799E+02  3.11953E+03 -1.36842E+03  2.59637E+03
 -1.80870E+03  1.26881E+03 -7.03052E+02 -2.87652E+02 -5.31757E+02  1.66225E+02 -6.72490E+02 -2.71476E+02
 -1.31745E+03  4.08308E+01 -1.10196E+03 -6.30306E+01  7.56306E+01 -1.07806E+03 -3.00647E+02 -9.30804E+02
  1.68210E+03 -1.11693E+03  1.40373E+03  3.79241E+02  2.21223E+03  1.82972E+03 -6.45866E+01  2.99659E+03
 -1.76047E+03  4.22669E+03 -3.47973E+03  2.11463E+03 -3.83420E+03 -3.95890E+02 -2.78367E+03 -2.21235E+03
 -1.47562E+03 -2.76311E+03  6.08186E+02 -2.80453E+03  1.77771E+03 -1.52192E+03  1.63817E+03  3.08465E+02
  1.37366E+03  6.84320E+02  7.35621E+01  9.17960E+02 -6.26775E+02 -1.47406E+02 -3.32844E+02 -3.49837E+02
  9.03467E+02 -3.76315E+02  1.09595E+03  4.62357E+02  5.62473E+02  1.11257E+03  1.89549E+02  1.13315E+03
 -1.16200E+03  1.60206E+03 -1.52787E+03  3.43075E+01 -1.73051E+03 -1.04785E+03 -1.68838E+02 -2.76272E+03
  1.11510E+03 -1.79612E+03  2.00910E+03 -3.83713E+02  2.40830E+03 -1.05858E+02  1.07539E+03  1.99238E+03
  1.75520E+02  1.87461E+03 -8.40474E+02  1.56238E+03 -1.01116E+03  1.22686E+03 -1.18851E+03  1.32990E+02
 -4.20591E+02 -2.16752E+02 -8.84824E+02  2.17796E+02 -1.06183E+03 -3.26463E+01 -1.62857E+03 -2.78161E+02
 -1.69871E+03 -4.59263E+02 -5.07132E+02 -1.92569E+03  1.29489E+03 -2.57510E+03  1.59573E+03 -9.14336E+02
  1.86428E+03  3.42184E+02  5.51585E+02  9.50419E+02 -3.47026E+02  1.62718E+03 -1.21916E+03  1.11711E+03
