 $NMID ID='MM_0lb_SNR800_12hz_g50_10.RAW', FMTDAT='(8E13.5)'
 TRAMP=1., VOLUME=1. $END
  3.09582E+05  2.99417E+02  3.37640E+05  2.50756E+05  8.47223E+04  3.38262E+05 -1.32386E+05  2.50895E+05
 -1.90664E+05  8.35598E+04 -1.12116E+05 -3.25373E+04  6.75680E+02 -5.07107E+04  5.39615E+04 -1.03272E+02
  3.55857E+04  5.28130E+04 -1.72488E+04  7.55519E+04 -6.12205E+04  6.40826E+04 -8.44350E+04  3.24610E+04
 -8.17801E+04 -1.15444E+04 -5.76991E+04 -5.20790E+04 -1.53090E+04 -7.01556E+04  2.79030E+04 -4.65466E+04
  4.04097E+04  3.71560E+03  1.65744E+04  4.82170E+04 -3.44226E+04  4.75343E+04 -6.72525E+04  5.88337E+01
 -5.42020E+04 -5.72920E+04 -6.96965E+03 -7.81328E+04  3.40924E+04 -5.55445E+04  4.88276E+04 -1.76204E+04
  4.41608E+04  1.16046E+04  3.22339E+04  2.57629E+04  1.58073E+04  2.98180E+04 -5.60535E+03  2.73000E+04
 -2.22006E+04  1.23083E+04 -1.82575E+04 -5.36441E+03  6.27623E+03 -7.29214E+03  2.25044E+04  1.28239E+04
  7.30810E+03  3.61046E+04 -3.28311E+04  3.60434E+04 -6.45744E+04  1.93427E+03 -5.78049E+04 -4.35184E+04
 -1.27265E+04 -6.43049E+04  4.04283E+04 -4.59992E+04  5.93834E+04 -2.51457E+03  3.49177E+04  3.30541E+04
 -6.05426E+03  3.76493E+04 -3.10255E+04  1.70422E+04 -3.15045E+04 -3.89895E+03 -1.76020E+04 -1.13604E+04
 -8.76552E+03 -1.39498E+04 -5.78978E+02 -1.85621E+04  8.13728E+03 -2.32632E+04  1.57129E+04 -1.28814E+04
  1.05916E+04  5.74001E+03 -9.24350E+03  1.30842E+04 -2.20786E+04 -5.12842E+03 -8.40148E+03 -3.54255E+04
  2.39326E+04 -4.48187E+04  4.98857E+04 -2.04222E+04  4.67056E+04  1.99504E+04  1.63563E+04  4.52606E+04
 -1.60209E+04  3.45539E+04 -2.62892E+04  2.11078E+03 -1.05124E+04 -2.86040E+04  2.12953E+04 -3.51142E+04
  4.24184E+04 -9.73305E+03  3.76400E+04  2.42207E+04  1.92388E+04  4.84899E+04 -7.97313E+03  5.25518E+04
 -3.30787E+04  3.59494E+04 -4.40155E+04  1.01175E+04 -4.44115E+04 -1.74641E+04 -2.46131E+04 -3.96289E+04
  7.51320E+03 -3.97001E+04  3.27061E+04 -1.56600E+04  3.04694E+04  1.09439E+04  4.64869E+03  1.96967E+04
 -1.36645E+04  8.79149E+03 -1.04638E+04 -7.47599E+03  5.88081E+03 -1.10083E+04  1.83385E+04  5.56811E+03
  1.42007E+04  2.19713E+04 -5.61407E+03  2.58363E+04 -2.26541E+04  1.29723E+04 -2.91436E+04 -3.99159E+03
 -2.22302E+04 -1.77362E+04 -1.00153E+04 -2.20870E+04  4.13204E+03 -2.21193E+04  1.73426E+04 -2.01411E+04
  2.84231E+04 -1.34971E+04  3.46183E+04  3.46345E+03  2.51226E+04  2.21557E+04  4.53658E+03  3.82313E+04
 -1.85823E+04  3.19881E+04 -2.92284E+04  1.12892E+04 -2.17348E+04 -1.02655E+04 -4.76299E+03 -1.34196E+04
  1.40006E+03 -1.89753E+03 -6.09248E+03  7.64245E+03 -1.77178E+04  5.45456E+03 -1.80140E+04 -8.33107E+03
 -1.10486E+04 -2.06596E+04  5.46440E+03 -2.47902E+04  1.64086E+04 -1.73934E+04  1.98533E+04 -1.78451E+03
  1.24960E+04  1.43168E+04 -8.61064E+02  2.06853E+04 -1.45006E+04  1.20173E+04 -2.08530E+04 -4.49441E+03
 -1.54167E+04 -1.83800E+04 -2.17138E+03 -2.51445E+04  1.10501E+04 -2.03213E+04  2.07585E+04 -1.05994E+04
  1.91161E+04  2.52567E+02  1.38691E+04  5.01954E+03  7.61108E+03  1.11399E+03  1.03783E+04 -1.86000E+03
  1.94354E+04  2.79933E+03  2.18491E+04  1.66740E+04  1.45279E+04  3.33273E+04 -3.07247E+03  3.76354E+04
 -2.19573E+04  3.14379E+04 -3.59215E+04  1.59975E+04 -3.79320E+04 -2.58938E+03 -3.10637E+04 -2.25422E+04
 -1.31187E+04 -3.14115E+04  1.11569E+04 -2.79352E+04  2.35762E+04 -1.39323E+04  2.11158E+04  6.57164E+03
  7.55567E+03  1.61203E+04 -1.01924E+04  1.35998E+04 -1.78232E+04  2.68369E+03 -1.34333E+04 -1.12204E+04
  2.33197E+01 -1.71769E+04  8.65523E+03 -1.27721E+04  1.14363E+04 -1.06949E+03  2.99851E+03  7.50681E+03
 -7.72286E+03  3.13711E+03 -7.50493E+03 -5.89457E+03 -6.95572E+02 -1.52069E+04  1.05092E+04 -1.63560E+04
  1.91310E+04 -8.94287E+03  2.12776E+04  3.23653E+03  1.82891E+04  1.58653E+04  8.40444E+03  2.37167E+04
 -4.04048E+03  2.56963E+04 -1.67957E+04  1.58711E+04 -1.86820E+04  3.58468E+03 -1.26736E+04 -4.84816E+03
 -5.76680E+03 -6.00338E+03 -1.06305E+03  8.84363E+02 -2.62864E+03  2.53268E+03 -6.25153E+03  4.79267E+03
 -1.19183E+04 -9.49151E+02 -1.25799E+04 -1.02228E+04 -4.49718E+03 -1.64862E+04  5.45037E+03 -1.32594E+04
  1.08356E+04 -5.54686E+03  7.67295E+03  3.42612E+03 -1.97870E+02  4.95963E+03 -6.38043E+03 -2.23382E+02
 -5.96763E+03 -8.51382E+03 -1.33884E+03 -1.23717E+04  7.11162E+03 -1.30007E+04  1.61042E+04 -7.52518E+03
  1.90870E+04  2.04967E+03  1.38239E+04  1.15511E+04  3.09443E+03  1.53114E+04 -8.51641E+03  1.25105E+04
 -1.05741E+04  3.95016E+03 -5.14303E+03 -2.69292E+03  1.85360E+03 -3.43701E+03  6.80333E+03 -1.27975E+03
  6.35697E+03  5.58237E+03  1.43193E+03  1.01165E+04 -7.40500E+03  9.89249E+03 -1.25166E+04  2.53532E+03
 -8.49967E+03 -6.66506E+03  1.61321E+02 -1.10749E+04  6.61733E+03 -5.38281E+03  6.98168E+03  2.47905E+03
  1.74292E+03  7.54961E+03 -6.94791E+03  9.02802E+03 -1.03631E+04  4.24596E+03 -1.01534E+04 -3.91496E+03
 -6.21440E+03 -1.19188E+04  2.81069E+03 -1.41575E+04  1.18959E+04 -8.58390E+03  1.24765E+04  2.48219E+03
  7.84965E+03  9.94874E+03 -8.48715E+02  1.27805E+04 -8.95585E+03  6.98545E+03 -9.98702E+03 -9.09135E+02
 -8.72809E+03 -8.53109E+03 -1.90384E+03 -8.93534E+03  4.75062E+03 -7.71743E+03  5.57773E+03 -3.26505E+03
  4.38828E+03  1.24080E+03 -7.34852E+02  1.94379E+03 -4.59281E+02 -2.11196E+03  1.85164E+03 -5.12766E+03
  8.06305E+03 -3.15120E+03  1.18292E+04  1.33592E+03  1.17678E+04  7.68966E+03  8.02681E+03  1.56710E+04
 -3.38830E+03  1.80254E+04 -1.50671E+04  1.31457E+04 -1.93287E+04  2.73033E+03 -1.57214E+04 -6.81529E+03
 -8.14712E+03 -1.28997E+04 -4.76386E+02 -1.05823E+04  4.11178E+03 -5.92762E+03  3.98717E+03 -3.85700E+03
  2.80555E+03 -2.54090E+03  3.39025E+03 -3.37720E+03  5.08751E+03 -2.74532E+03  6.14889E+03 -7.97386E+02
  8.04371E+03  1.88510E+03  3.84233E+03  7.05749E+03 -1.59181E+03  7.74182E+03 -8.36042E+03  5.86859E+03
 -1.02840E+04 -1.04593E+03 -6.21704E+03 -7.22739E+03 -4.03095E+02 -1.11526E+04  6.32441E+03 -1.14551E+04
  1.17620E+04 -6.60148E+03  1.41133E+04  1.55029E+03  1.02319E+04  9.79664E+03  1.61624E+03  1.29319E+04
 -5.40580E+03  1.08463E+04 -7.70208E+03  3.78622E+03 -5.25794E+03 -1.24618E+03 -1.76118E+03 -1.43527E+03
 -1.13827E+03  2.61996E+01 -1.87843E+03  2.26276E+03 -4.60725E+03  1.99590E+03 -7.91247E+03 -1.02842E+03
 -5.22161E+03 -7.67292E+03  4.67090E+02 -1.00577E+04  6.21195E+03 -9.27774E+03  9.99557E+03 -2.90133E+03
  1.01871E+04  4.88754E+03  4.62454E+03  8.98548E+03 -1.89333E+03  1.05769E+04 -7.19635E+03  6.30144E+03
 -9.59417E+03  7.89271E+02 -7.40326E+03 -5.94452E+03 -6.39131E+02 -8.58638E+03  4.36627E+03 -6.28064E+03
  6.60471E+03 -2.22664E+03  4.46701E+03  1.63935E+03  1.56027E+03  3.49123E+03  1.14854E+03  1.78138E+03
  1.94247E+03  5.96864E+02  2.63209E+03  1.43019E+03  2.73728E+03  3.78904E+03  3.05155E+03  5.37811E+03
 -2.08014E+03  8.11478E+03 -6.93840E+03  8.34362E+03 -9.97601E+03  2.09658E+03 -1.06369E+04 -3.69545E+03
 -4.93857E+03 -1.00206E+04  1.99068E+03 -1.15492E+04  6.31671E+03 -7.18729E+03  8.40199E+03 -1.81551E+03
  6.39903E+03  4.07908E+03  1.11397E+03  5.58463E+03 -2.63236E+03  3.44158E+03 -3.96464E+03 -4.58661E+02
 -1.72492E+03 -4.56214E+03  2.67386E+03 -4.31995E+03  4.18387E+03 -2.14565E+03  4.20144E+03  8.32013E+02
  2.37693E+03  1.95552E+03  1.02388E+03  1.49059E+03 -4.87631E+02  1.65830E+03  1.66149E+03 -2.21779E+02
  1.16217E+03 -5.86955E+02  4.19211E+03  1.64690E+03  2.10498E+03  5.55275E+03 -5.38519E+02  6.78710E+03
 -5.02681E+03  4.31357E+03 -6.29601E+03  1.36369E+03 -5.50775E+03 -2.28569E+03 -2.06913E+03 -3.73049E+03
  6.71660E+02 -3.75096E+03  2.75987E+03 -1.73952E+03  2.03988E+03  2.06562E+03 -1.04976E+03  3.31965E+03
 -4.13954E+03  1.91913E+03 -4.39781E+03 -2.26741E+03 -2.63667E+03 -5.47051E+03  6.33540E+02 -5.12636E+03
  2.66023E+03 -2.85661E+03  3.88526E+03 -2.63335E+02  3.05994E+03  1.07494E+03  4.38229E+02  2.82773E+03
 -2.11175E+03  8.50386E+02 -2.50567E+03 -1.63889E+03  1.16749E+03 -4.11516E+03  4.89143E+03 -3.05975E+03
  5.82294E+03  7.29258E+02  6.16497E+03  3.73411E+03  1.94283E+03  5.84346E+03 -1.78708E+03  5.73539E+03
 -5.06356E+03  2.24901E+03 -5.08968E+03 -9.28333E+02 -3.04547E+03 -4.05573E+03  1.12127E+03 -3.55057E+03
  4.14578E+03 -2.13954E+03  3.36247E+03  1.66463E+03  8.85914E+02  3.90946E+03 -6.41219E+02  3.17251E+03
 -1.56689E+03  1.96651E+03 -1.19690E+03  7.15943E+02 -1.19332E+03  4.70632E+02 -1.14493E+03  1.06799E+03
 -1.86305E+03  2.40263E+03 -4.28450E+03  1.69165E+03 -6.22717E+03  3.39438E+02 -7.00582E+03 -3.98987E+03
 -3.42336E+03 -8.00406E+03  1.72105E+03 -9.20985E+03  5.32397E+03 -7.35482E+03  8.94714E+03 -2.59475E+03
  8.23895E+03  1.36012E+03  4.99165E+03  5.52768E+03  1.82203E+02  6.00047E+03 -2.67909E+03  4.62856E+03
 -3.48066E+03  1.88753E+03 -2.12085E+03 -5.22935E+02 -7.19170E+02 -1.80054E+02 -4.57437E+02  1.19804E+01
 -1.39028E+03  2.12478E+02 -1.79926E+03 -5.06387E+02 -2.48850E+02 -1.69211E+03 -2.38976E+02 -2.27499E+03
  2.63382E+03 -2.08188E+03  3.57205E+03 -1.28338E+02  4.25916E+03  3.34447E+03  7.16074E+02  6.14110E+03
 -2.89121E+03  7.13385E+03 -6.65420E+03  3.62844E+03 -7.31402E+03 -6.96915E+02 -5.27193E+03 -4.74841E+03
 -2.59016E+03 -6.19186E+03  1.90290E+03 -5.26722E+03  3.77296E+03 -3.14258E+03  3.84205E+03 -4.95485E+00
  2.48010E+03  1.85332E+03 -2.02975E+02  1.50656E+03 -1.55186E+03 -1.55341E+02  2.44757E+01 -1.28657E+03
  1.88534E+03 -5.88705E+02  2.03034E+03  1.04245E+03  1.37471E+03  2.24296E+03  1.80214E+02  2.81458E+03
 -2.27201E+03  2.52426E+03 -3.69105E+03  1.70790E+02 -3.11135E+03 -2.60646E+03 -5.45275E+02 -4.70446E+03
  2.49286E+03 -3.80147E+03  3.90402E+03 -1.26670E+03  4.74360E+03  7.41505E+02  2.72652E+03  3.46601E+03
  6.90261E+02  3.51621E+03 -1.52022E+03  2.87008E+03 -2.08834E+03  1.81650E+03 -1.91022E+03  6.10060E+02
 -7.84220E+02  6.03037E+01 -1.24105E+03  5.24708E+02 -2.01994E+03  5.83972E+02 -3.26244E+03 -6.68945E+02
 -2.59740E+03 -1.54288E+03 -1.23838E+03 -3.63993E+03  2.17753E+03 -4.03050E+03  3.66721E+03 -1.49664E+03
  3.45783E+03  5.31899E+02  1.44637E+03  2.29280E+03 -1.85545E+02  3.58853E+03 -3.04555E+03  2.22419E+03
