 $NMID ID='MM_0lb_SNR800_18hz_g40_47.RAW', FMTDAT='(8E13.5)'
 TRAMP=1., VOLUME=1. $END
  3.09794E+05  2.22654E+02  3.37494E+05  2.50328E+05  8.44067E+04  3.37402E+05 -1.32366E+05  2.50127E+05
 -1.89471E+05  8.21886E+04 -1.10864E+05 -3.27668E+04  1.50313E+03 -5.02672E+04  5.39086E+04  3.27724E+02
  3.50077E+04  5.30305E+04 -1.69509E+04  7.46720E+04 -6.01834E+04  6.25316E+04 -8.30011E+04  3.17827E+04
 -7.95032E+04 -1.11478E+04 -5.58985E+04 -5.00360E+04 -1.49332E+04 -6.81165E+04  2.70110E+04 -4.46592E+04
  3.90288E+04  3.81571E+03  1.55100E+04  4.71077E+04 -3.38293E+04  4.62099E+04 -6.50343E+04 -6.59813E+02
 -5.16753E+04 -5.58333E+04 -6.33150E+03 -7.49126E+04  3.31576E+04 -5.30810E+04  4.60901E+04 -1.63240E+04
  4.14785E+04  1.11670E+04  3.07737E+04  2.42628E+04  1.62123E+04  2.79606E+04 -4.75259E+03  2.67209E+04
 -2.15568E+04  1.27192E+04 -1.93678E+04 -4.46257E+03  4.18711E+03 -7.47080E+03  2.10792E+04  1.04227E+04
  7.19367E+03  3.29656E+04 -3.03353E+04  3.38964E+04 -6.06128E+04  2.12890E+03 -5.50004E+04 -4.10050E+04
 -1.25211E+04 -6.05642E+04  3.80184E+04 -4.31590E+04  5.51801E+04 -1.70106E+03  3.14816E+04  3.05406E+04
 -6.68737E+03  3.29841E+04 -2.81309E+04  1.31193E+04 -2.74103E+04 -5.36823E+03 -1.41503E+04 -9.97547E+03
 -7.12504E+03 -1.12987E+04 -9.85373E+02 -1.65804E+04  6.47014E+03 -2.22155E+04  1.48531E+04 -1.42452E+04
  1.22098E+04  4.29936E+03 -5.90356E+03  1.30826E+04 -1.89596E+04 -2.36984E+03 -8.01182E+03 -3.02676E+04
  2.05931E+04 -4.01737E+04  4.43413E+04 -1.84967E+04  4.15963E+04  1.80628E+04  1.42810E+04  4.14256E+04
 -1.51296E+04  3.10697E+04 -2.32349E+04  8.40972E+02 -8.04879E+03 -2.62984E+04  2.05340E+04 -3.08300E+04
  3.74497E+04 -7.38346E+03  3.10637E+04  2.28219E+04  1.53397E+04  4.22693E+04 -7.71188E+03  4.48485E+04
 -2.82354E+04  2.95389E+04 -3.68539E+04  8.04124E+03 -3.80830E+04 -1.49226E+04 -2.11103E+04 -3.40262E+04
  6.79732E+03 -3.37307E+04  2.88896E+04 -1.26422E+04  2.66469E+04  1.05173E+04  2.80324E+03  1.77282E+04
 -1.29076E+04  7.02032E+03 -9.79952E+03 -7.71896E+03  6.08346E+03 -1.01562E+04  1.74406E+04  6.76495E+03
  1.21752E+04  2.14608E+04 -6.75041E+03  2.30284E+04 -2.15332E+04  8.93563E+03 -2.49028E+04 -6.52357E+03
 -1.64076E+04 -1.62432E+04 -5.44929E+03 -1.63510E+04  3.70570E+03 -1.42809E+04  1.20546E+04 -1.42211E+04
  2.07672E+04 -1.14673E+04  2.79397E+04  9.84459E+02  2.10081E+04  1.60396E+04  4.26820E+03  3.21444E+04
 -1.59564E+04  2.71817E+04 -2.55865E+04  9.13478E+03 -1.94476E+04 -1.04657E+04 -4.04439E+03 -1.38321E+04
  2.70111E+03 -3.99348E+03 -2.42705E+03  5.43762E+03 -1.27361E+04  5.27674E+03 -1.36180E+04 -4.84390E+03
 -8.59111E+03 -1.50658E+04  4.72509E+03 -1.90189E+04  1.23862E+04 -1.39674E+04  1.43229E+04 -1.29087E+03
  9.16053E+03  1.05668E+04 -8.40021E+02  1.55040E+04 -1.02091E+04  8.46729E+03 -1.53873E+04 -3.55186E+03
 -1.14211E+04 -1.40009E+04 -1.44643E+03 -1.87339E+04  8.63765E+03 -1.49313E+04  1.59418E+04 -7.08158E+03
  1.45407E+04  7.29175E+02  1.02716E+04  4.01447E+03  5.17425E+03  4.09425E+02  7.58015E+03 -1.14293E+03
  1.39138E+04  2.17166E+03  1.46059E+04  1.25119E+04  9.17932E+03  2.41592E+04 -2.98066E+03  2.61663E+04
 -1.56447E+04  1.98369E+04 -2.39418E+04  9.29464E+03 -2.46150E+04 -1.77849E+03 -2.10988E+04 -1.41060E+04
 -1.02355E+04 -1.98588E+04  6.66865E+03 -1.88736E+04  1.66711E+04 -1.06776E+04  1.53515E+04  3.69349E+03
  6.54477E+03  1.07673E+04 -6.89480E+03  1.02353E+04 -1.33016E+04  2.49211E+03 -1.03736E+04 -7.80055E+03
 -1.25302E+02 -1.23697E+04  5.99692E+03 -9.31409E+03  7.65738E+03 -1.30236E+03  1.20147E+03  4.78601E+03
 -5.54293E+03  1.05253E+03 -3.57551E+03 -4.58986E+03  9.61751E+02 -1.01054E+04  7.91098E+03 -1.00036E+04
  1.24400E+04 -4.49026E+03  1.18777E+04  2.71223E+03  1.02399E+04  9.36869E+03  5.14657E+03  1.40311E+04
 -1.47616E+03  1.56596E+04 -9.48462E+03  1.00941E+04 -1.12161E+04  3.07901E+03 -8.39695E+03 -1.88491E+03
 -4.56992E+03 -3.38811E+03 -1.00838E+03  1.60308E+03 -2.17161E+03  2.10619E+03 -3.44425E+03  3.57188E+03
 -7.96853E+03 -3.28289E+02 -8.62034E+03 -7.22883E+03 -3.50555E+03 -1.15308E+04  3.48850E+03 -8.33183E+03
  7.20794E+03 -3.70527E+03  5.26803E+03  2.07952E+03  4.59821E+02  2.87631E+03 -3.25410E+03 -2.85012E+02
 -3.44717E+03 -5.12723E+03 -2.97064E+02 -7.12832E+03  3.82036E+03 -7.81604E+03  1.00371E+04 -4.02621E+03
  1.18875E+04  8.79036E+02  8.64417E+03  6.27995E+03  1.73466E+03  8.50439E+03 -5.21308E+03  8.22513E+03
 -6.85984E+03  2.63448E+03 -3.51449E+03 -1.26311E+03  1.18585E+03 -2.06758E+03  4.77097E+03 -1.22552E+03
  4.19686E+03  3.42786E+03  1.22881E+03  6.51136E+03 -4.39935E+03  6.69589E+03 -7.65318E+03  1.88789E+03
 -4.84388E+03 -3.64451E+03  6.65776E+01 -6.56533E+03  3.74361E+03 -3.34040E+03  3.48462E+03  8.76675E+02
  4.20991E+02  3.55144E+03 -4.37958E+03  4.65244E+03 -4.60556E+03  2.43591E+03 -4.27430E+03 -1.02770E+03
 -3.03824E+03 -6.13138E+03  8.74857E+02 -6.99595E+03  5.65681E+03 -4.48833E+03  6.51129E+03  1.00247E+03
  4.61507E+03  5.35640E+03  2.20971E+02  7.03218E+03 -5.16927E+03  4.33624E+03 -5.21534E+03 -5.80731E+02
 -5.87573E+03 -4.96401E+03 -1.22105E+03 -5.04068E+03  2.88975E+03 -4.52403E+03  2.88809E+03 -2.94207E+03
  2.68237E+03  1.46631E+02  2.25180E+02  1.26723E+03  5.76940E+02 -2.27490E+02  1.67663E+02 -1.82145E+03
  4.05743E+03 -1.00709E+03  5.19282E+03  6.66742E+02  5.54985E+03  3.29864E+03  5.19242E+03  7.24030E+03
 -1.12774E+03  8.54051E+03 -7.80878E+03  6.73093E+03 -1.01333E+04  1.03888E+03 -7.77678E+03 -2.59912E+03
 -4.13713E+03 -6.79135E+03 -4.76949E+02 -5.20086E+03  1.84577E+03 -2.04952E+03  1.67495E+03 -2.06967E+03
  1.24727E+03 -1.50158E+03  2.32343E+03 -2.63237E+03  3.45533E+03 -1.46124E+03  3.52047E+03  3.98581E+02
  4.56987E+03  1.04939E+03  1.00453E+03  3.50511E+03 -1.59764E+03  2.87562E+03 -4.46241E+03  2.92148E+03
 -4.99335E+03 -1.01249E+03 -1.90205E+03 -3.18122E+03  2.88455E+02 -5.14888E+03  3.04312E+03 -5.45705E+03
  5.07733E+03 -3.37626E+03  7.01179E+03  3.47764E+02  4.90431E+03  4.38040E+03  1.35289E+03  5.98118E+03
 -2.06405E+03  5.85677E+03 -3.56531E+03  1.99438E+03 -1.44877E+03 -8.92610E+02 -3.47163E+02 -4.40116E+02
 -5.68130E+02  1.96610E+02 -6.59890E+02  2.02625E+03 -2.59022E+03  1.07423E+03 -4.61353E+03 -1.65388E+02
 -1.43510E+03 -4.12943E+03  1.05803E+03 -4.73267E+03  2.84058E+03 -4.66327E+03  3.53864E+03 -1.08929E+03
  4.17600E+03  2.38017E+03  1.78649E+03  3.49274E+03 -8.53208E+02  4.41485E+03 -2.77920E+03  2.97714E+03
 -4.12640E+03  5.37544E+02 -3.40454E+03 -2.38359E+03 -2.83872E+02 -3.27397E+03  1.63159E+03 -2.51416E+03
  2.89119E+03 -1.57345E+03  2.03367E+03  5.35319E+02  6.01438E+02  1.74331E+03  9.15362E+02  6.27938E+02
  1.65803E+03  4.44663E+02  1.62434E+03  8.39049E+02  1.24686E+03  2.29226E+03  1.28145E+03  2.08114E+03
 -1.33850E+03  3.07463E+03 -2.67145E+03  4.21249E+03 -3.36631E+03  1.50143E+03 -4.15699E+03 -7.35814E+02
 -1.94634E+03 -3.65403E+03  7.29296E+02 -4.82301E+03  1.96485E+03 -2.32008E+03  3.26723E+03 -1.00910E+03
  2.62453E+03  1.96401E+03  6.15998E+02  2.09734E+03 -6.52809E+02  1.50051E+03 -1.14578E+03 -1.69971E+02
 -4.54856E+02 -1.75706E+03  1.14835E+03 -1.34201E+03  1.34431E+03 -1.24139E+03  1.40027E+03  3.24813E+02
  1.01192E+03  2.14830E+02  5.70721E+02 -4.30997E+02 -1.47811E+02  5.91297E+02  1.70387E+03 -3.39748E+02
  5.78746E+01 -3.29793E+02  2.01028E+03  6.89517E+02  2.05582E+02  2.63426E+03 -2.06163E+01  3.18566E+03
 -1.58054E+03  1.08956E+03 -2.21790E+03  1.78216E+02 -2.39657E+03 -7.96244E+02  2.07505E+01 -1.02411E+03
  3.60588E+02 -1.34199E+03  9.92522E+02 -4.81730E+02  5.93511E+02  1.45847E+03 -8.23664E+02  1.19864E+03
 -1.75340E+03  9.16528E+02 -1.22980E+03 -1.28069E+03 -5.50224E+02 -2.54306E+03  1.82158E+02 -1.54921E+03
  6.63695E+02 -6.28281E+02  8.59268E+02  1.83835E+02  1.66897E+03 -4.49494E+02  5.06591E+02  1.07616E+03
 -4.67713E+02  7.57976E+00 -6.75136E+02 -1.13036E+02  6.58210E+02 -9.99585E+02  1.85059E+03 -9.52847E+02
  1.45142E+03  1.25273E+02  2.86828E+03  1.01243E+03  1.11500E+03  1.71859E+03 -3.91066E+02  1.82058E+03
 -1.38453E+03  2.27795E+02 -1.68183E+03 -2.47844E+02 -9.37568E+02 -1.46593E+03  4.40960E+02 -7.97260E+02
  1.18578E+03 -6.90785E+02  8.34235E+02  6.51660E+02  3.42141E+02  1.64406E+03  2.95306E+02  1.09140E+03
 -9.49140E+01  1.16026E+03 -3.81044E+02  3.63057E+02 -2.34555E+02  2.36183E+02 -6.64450E+02  7.80232E+02
 -7.84447E+02  1.23340E+03 -2.05374E+03  7.03399E+02 -1.47838E+03  1.06228E+02 -2.74795E+03 -1.15226E+03
 -1.23783E+03 -2.73921E+03  3.62999E+02 -2.84011E+03  1.27187E+03 -2.56876E+03  2.88986E+03 -1.25741E+03
  2.61153E+03 -6.30025E+01  1.18775E+03  1.56133E+03 -4.87805E+02  1.66742E+03 -7.28680E+02  1.49716E+03
 -1.31532E+03  6.06672E+02 -5.66136E+02 -4.01816E+01 -4.92541E+02  3.02739E+02 -5.02182E+02 -3.09845E+01
 -1.04409E+03 -2.53642E+02 -9.17200E+02 -3.43092E+02  2.95688E+02 -6.11200E+02 -4.55331E+02 -1.06109E+03
  1.29408E+03 -5.10464E+02  5.76494E+02  1.34671E+02  1.39330E+03  1.38269E+03 -2.72794E+02  1.34735E+03
 -8.82007E+02  2.60906E+03 -1.91029E+03  1.73444E+03 -1.97628E+03 -3.08998E+02 -1.42838E+03 -1.39656E+03
 -8.65157E+02 -1.56737E+03  2.13277E+02 -1.32127E+03  7.59411E+02 -7.71253E+02  9.19498E+02  2.57174E+01
  6.98772E+02  4.98363E+02  1.42869E+02  4.59231E+02 -6.32992E+02 -2.49955E+02 -3.41809E+02 -3.28941E+02
  5.88863E+02  2.54154E+02  2.52826E+02  5.14549E+02  1.32243E+02  5.16526E+02  4.74519E+02  4.83268E+02
 -6.99187E+02  8.73717E+02 -6.88077E+02 -6.02501E+01 -8.01362E+02 -4.11230E+02 -1.90049E+02 -1.41005E+03
  3.90918E+02 -7.96190E+02  9.52994E+02 -2.02130E+02  9.83236E+02 -7.18803E+02  4.32999E+02  1.10886E+03
  5.93780E+02  3.97544E+02 -3.52157E+02  6.76912E+02 -7.41782E+02  7.07731E+02 -3.17152E+02  1.04933E+02
 -1.76264E+02 -2.66356E+02 -6.56187E+02  3.66842E+02 -5.59228E+02  4.94730E+02 -8.58584E+02 -2.46153E+02
 -1.28352E+03  1.91589E+02  9.91616E+00 -1.02641E+03  8.68759E+02 -1.46818E+03  6.63696E+02 -3.94874E+02
  8.49977E+02 -8.83217E+01 -2.64166E+02  3.24215E+02  2.21962E+01  1.14716E+03 -4.64968E+02  7.87262E+02
