 $NMID ID='MM_0lb_SNR800_13hz_g40_9.RAW', FMTDAT='(8E13.5)'
 TRAMP=1., VOLUME=1. $END
  3.10101E+05  1.74525E+02  3.37570E+05  2.50518E+05  8.48930E+04  3.38051E+05 -1.32595E+05  2.51073E+05
 -1.90448E+05  8.30392E+04 -1.11762E+05 -3.22482E+04  1.17600E+03 -5.06418E+04  5.37467E+04 -1.84809E+02
  3.51225E+04  5.28997E+04 -1.67403E+04  7.51488E+04 -6.07448E+04  6.35872E+04 -8.41563E+04  3.18460E+04
 -8.07372E+04 -1.13948E+04 -5.72520E+04 -5.10576E+04 -1.53473E+04 -6.94255E+04  2.70768E+04 -4.57365E+04
  3.99814E+04  3.84929E+03  1.60271E+04  4.77889E+04 -3.42364E+04  4.67123E+04 -6.64155E+04 -3.73689E+02
 -5.33858E+04 -5.65152E+04 -6.42474E+03 -7.67935E+04  3.37461E+04 -5.50228E+04  4.77203E+04 -1.71584E+04
  4.34291E+04  1.13406E+04  3.16894E+04  2.54277E+04  1.62829E+04  2.91063E+04 -5.36698E+03  2.73191E+04
 -2.18489E+04  1.24437E+04 -1.86888E+04 -5.02985E+03  5.61611E+03 -7.54500E+03  2.22939E+04  1.23674E+04
  7.00481E+03  3.53588E+04 -3.20280E+04  3.54195E+04 -6.31085E+04  2.12886E+03 -5.73563E+04 -4.27218E+04
 -1.25515E+04 -6.31323E+04  3.96808E+04 -4.51898E+04  5.82198E+04 -2.21905E+03  3.40543E+04  3.22573E+04
 -6.38882E+03  3.58318E+04 -2.99586E+04  1.60291E+04 -3.04477E+04 -4.57636E+03 -1.67114E+04 -1.13156E+04
 -8.25060E+03 -1.31835E+04 -9.12073E+02 -1.77679E+04  7.41429E+03 -2.30455E+04  1.56889E+04 -1.34369E+04
  1.14346E+04  5.04108E+03 -8.18886E+03  1.28942E+04 -2.13415E+04 -4.52000E+03 -8.72490E+03 -3.33255E+04
  2.27674E+04 -4.30830E+04  4.79430E+04 -1.94418E+04  4.49554E+04  1.92851E+04  1.56600E+04  4.38747E+04
 -1.60872E+04  3.33711E+04 -2.51414E+04  2.11292E+03 -9.88051E+03 -2.77007E+04  2.12198E+04 -3.35786E+04
  4.10185E+04 -8.76390E+03  3.55477E+04  2.39966E+04  1.83241E+04  4.63854E+04 -8.15307E+03  5.00571E+04
 -3.17894E+04  3.37643E+04 -4.20949E+04  9.56901E+03 -4.27001E+04 -1.66829E+04 -2.34670E+04 -3.77771E+04
  7.32372E+03 -3.79619E+04  3.15786E+04 -1.45788E+04  2.90940E+04  1.11247E+04  4.07149E+03  1.93323E+04
 -1.34204E+04  8.60457E+03 -1.03303E+04 -7.43829E+03  5.80212E+03 -1.07564E+04  1.79151E+04  6.26954E+03
  1.34833E+04  2.18035E+04 -5.92867E+03  2.51123E+04 -2.23096E+04  1.14741E+04 -2.82154E+04 -4.92365E+03
 -2.07863E+04 -1.68048E+04 -8.55500E+03 -2.04837E+04  3.94901E+03 -1.95579E+04  1.57337E+04 -1.83399E+04
  2.63058E+04 -1.29589E+04  3.22275E+04  3.02321E+03  2.38865E+04  1.98347E+04  4.34422E+03  3.63233E+04
 -1.78641E+04  3.03343E+04 -2.79351E+04  1.05535E+04 -2.14257E+04 -1.00928E+04 -4.15249E+03 -1.31971E+04
  1.97330E+03 -2.45353E+03 -4.84572E+03  6.66492E+03 -1.62729E+04  5.15386E+03 -1.65913E+04 -7.23365E+03
 -1.01586E+04 -1.93726E+04  5.36146E+03 -2.28111E+04  1.52915E+04 -1.63609E+04  1.82227E+04 -1.54396E+03
  1.15718E+04  1.31130E+04 -1.02131E+03  1.93974E+04 -1.30154E+04  1.09477E+04 -1.91519E+04 -4.09838E+03
 -1.39295E+04 -1.69122E+04 -1.77536E+03 -2.29359E+04  1.04957E+04 -1.87154E+04  1.89502E+04 -9.61115E+03
  1.80765E+04  1.77576E+02  1.28860E+04  4.57123E+03  6.87448E+03  9.55012E+02  9.73444E+03 -2.10992E+03
  1.78136E+04  2.81112E+03  1.96008E+04  1.53683E+04  1.28913E+04  3.05111E+04 -2.80915E+03  3.45530E+04
 -2.01572E+04  2.76980E+04 -3.20762E+04  1.37160E+04 -3.39829E+04 -2.53623E+03 -2.76865E+04 -1.96252E+04
 -1.19425E+04 -2.76684E+04  9.53399E+03 -2.48960E+04  2.15044E+04 -1.29190E+04  1.95771E+04  5.69565E+03
  7.37070E+03  1.47603E+04 -8.94010E+03  1.24430E+04 -1.65685E+04  2.36785E+03 -1.26415E+04 -1.02137E+04
 -1.77666E+02 -1.55425E+04  7.88194E+03 -1.14736E+04  1.03222E+04 -1.32049E+03  2.14293E+03  6.49203E+03
 -6.95624E+03  2.75627E+03 -5.74357E+03 -5.81049E+03 -4.62200E+02 -1.34315E+04  9.50089E+03 -1.45285E+04
  1.69737E+04 -7.39960E+03  1.81519E+04  2.94911E+03  1.58922E+04  1.33073E+04  7.12238E+03  2.06800E+04
 -3.40754E+03  2.27695E+04 -1.45028E+04  1.45402E+04 -1.63124E+04  3.26899E+03 -1.12974E+04 -3.58004E+03
 -5.56977E+03 -5.05258E+03 -6.86830E+02  7.58089E+02 -2.40992E+03  2.36308E+03 -5.04785E+03  4.28123E+03
 -1.07613E+04 -8.84422E+02 -1.13449E+04 -9.26462E+03 -4.52517E+03 -1.47132E+04  4.70744E+03 -1.16188E+04
  9.60274E+03 -4.74303E+03  6.97004E+03  2.79541E+03  1.45235E+02  4.46740E+03 -5.30786E+03 -1.60309E+02
 -5.07694E+03 -7.42545E+03 -1.19015E+03 -1.11484E+04  6.25070E+03 -1.16830E+04  1.42183E+04 -5.87012E+03
  1.69388E+04  1.65601E+03  1.22450E+04  9.69341E+03  2.39279E+03  1.28142E+04 -7.34000E+03  1.12780E+04
 -9.40003E+03  3.46789E+03 -4.88249E+03 -1.79861E+03  1.85470E+03 -3.33455E+03  6.25490E+03 -9.89139E+02
  5.72370E+03  5.10311E+03  1.30166E+03  9.27988E+03 -6.55345E+03  9.10050E+03 -1.10748E+04  2.22589E+03
 -7.36808E+03 -5.84316E+03  2.52500E+02 -9.41111E+03  6.09576E+03 -4.81029E+03  6.13165E+03  2.06557E+03
  8.95927E+02  6.00569E+03 -5.69817E+03  7.56772E+03 -8.70544E+03  3.68866E+03 -8.56745E+03 -2.63492E+03
 -5.03451E+03 -1.02148E+04  2.33576E+03 -1.17404E+04  9.97533E+03 -7.35911E+03  1.07775E+04  1.80460E+03
  7.05326E+03  8.89795E+03 -7.20619E+02  1.09304E+04 -7.86349E+03  6.12534E+03 -8.31437E+03 -7.00783E+02
 -7.62436E+03 -7.39299E+03 -1.27981E+03 -7.75570E+03  4.53455E+03 -6.69723E+03  4.69196E+03 -3.19713E+03
  3.94394E+03  7.37323E+02 -3.77321E+02  1.53738E+03  2.49831E+01 -1.25957E+03  1.19502E+03 -4.37631E+03
  7.05674E+03 -2.42062E+03  9.67725E+03  1.04725E+03  9.84051E+03  6.56700E+03  7.14161E+03  1.32154E+04
 -2.65965E+03  1.50829E+04 -1.27620E+04  1.12839E+04 -1.62995E+04  2.08023E+03 -1.32792E+04 -5.42651E+03
 -6.74809E+03 -1.05709E+04 -7.53571E+02 -9.12388E+03  3.54160E+03 -4.60098E+03  3.15785E+03 -3.62717E+03
  2.54138E+03 -1.97214E+03  2.94186E+03 -2.98225E+03  4.59426E+03 -2.45713E+03  5.53085E+03 -4.01221E+02
  7.19481E+03  1.61858E+03  3.04890E+03  5.83571E+03 -1.68668E+03  6.50260E+03 -7.56960E+03  5.31258E+03
 -8.99966E+03 -1.31824E+03 -5.11488E+03 -6.23138E+03 -5.11131E+02 -9.31739E+03  5.50897E+03 -9.60397E+03
  9.60395E+03 -5.51848E+03  1.18620E+04  1.20696E+03  8.14050E+03  8.21287E+03  1.28019E+03  1.07091E+04
 -4.23141E+03  9.30839E+03 -6.42783E+03  3.38237E+03 -4.27530E+03 -1.32382E+03 -1.47688E+03 -9.93933E+02
 -8.96821E+02  1.08800E+02 -1.50303E+03  2.04483E+03 -4.00569E+03  1.85383E+03 -6.74154E+03 -1.18574E+03
 -3.95877E+03 -6.46836E+03  2.82748E+02 -8.70315E+03  4.94877E+03 -8.10066E+03  7.89834E+03 -2.39693E+03
  8.36046E+03  4.66676E+03  3.85219E+03  7.48477E+03 -1.74809E+03  8.61605E+03 -5.68346E+03  5.43051E+03
 -7.73632E+03  7.66208E+02 -6.36085E+03 -5.05312E+03 -7.50249E+02 -6.69409E+03  3.54188E+03 -5.33443E+03
  5.58586E+03 -2.15044E+03  3.95876E+03  1.30205E+03  1.10133E+03  2.94118E+03  1.00767E+03  1.09098E+03
  2.16385E+03  4.86621E+02  2.22465E+03  1.61663E+03  2.36848E+03  3.50647E+03  2.16614E+03  4.39158E+03
 -1.71424E+03  6.57772E+03 -5.62965E+03  7.22845E+03 -7.88797E+03  2.08227E+03 -8.65981E+03 -2.48984E+03
 -3.98237E+03 -8.43001E+03  1.19131E+03 -9.69511E+03  4.82828E+03 -5.46134E+03  6.57089E+03 -1.80209E+03
  5.26355E+03  3.22918E+03  1.41956E+03  4.75880E+03 -2.35018E+03  3.11659E+03 -2.78506E+03 -9.13611E+01
 -1.62181E+03 -3.35873E+03  1.90078E+03 -3.50878E+03  3.13811E+03 -2.08401E+03  3.31048E+03  6.44163E+02
  1.99277E+03  1.10277E+03  1.16333E+03  6.98430E+02 -3.43302E+02  1.16885E+03  1.49086E+03 -2.34548E+02
  6.95035E+02 -4.98312E+02  3.59189E+03  1.36560E+03  1.76497E+03  4.46634E+03 -8.04189E+02  6.10955E+03
 -3.64123E+03  3.28064E+03 -5.11262E+03  8.98337E+02 -4.69514E+03 -1.83174E+03 -1.25310E+03 -2.71631E+03
  6.35698E+02 -3.13679E+03  1.91439E+03 -1.69628E+03  1.48328E+03  2.21659E+03 -1.24839E+03  2.36031E+03
 -3.09656E+03  1.25681E+03 -3.36696E+03 -2.05569E+03 -1.77468E+03 -4.23438E+03  4.02635E+02 -4.11090E+03
  2.26513E+03 -2.55309E+03  2.77085E+03 -1.38759E+02  2.59539E+03  9.66409E+02  2.49942E+02  2.14459E+03
 -1.39133E+03  4.55859E+02 -1.79208E+03 -1.23692E+03  1.13944E+03 -2.94028E+03  3.95555E+03 -2.59574E+03
  4.55510E+03  3.64917E+02  5.47309E+03  3.03971E+03  1.73740E+03  4.82017E+03 -1.56034E+03  4.65639E+03
 -3.75422E+03  1.47878E+03 -4.32502E+03 -6.76808E+02 -2.27845E+03 -3.37752E+03  7.46313E+02 -2.54447E+03
  3.42198E+03 -1.64125E+03  2.36799E+03  1.42796E+03  7.57247E+02  3.01795E+03 -8.24137E+01  2.74654E+03
 -1.17931E+03  1.99134E+03 -9.94977E+02  3.20264E+02 -4.06417E+02  8.93294E+02 -9.66897E+02  1.36725E+03
 -1.41135E+03  2.01613E+03 -3.80813E+03  1.51740E+03 -4.51829E+03  2.64053E+02 -5.60522E+03 -2.81110E+03
 -2.92475E+03 -6.25144E+03  1.31560E+03 -7.44160E+03  4.32300E+03 -5.84864E+03  7.09565E+03 -2.32439E+03
  6.37818E+03  1.11748E+03  3.48969E+03  4.67245E+03 -1.07174E+02  4.75292E+03 -1.73361E+03  3.85317E+03
 -2.63635E+03  1.87005E+03 -1.77381E+03 -5.27290E+02 -6.76820E+02  1.82084E+01 -5.18975E+02  1.90342E+02
 -1.17769E+03  1.61345E+02 -1.04322E+03 -1.96285E+02 -8.54943E+01 -1.54986E+03 -3.95010E+02 -2.29433E+03
  2.68751E+03 -1.89030E+03  2.45303E+03 -1.44949E+02  3.44822E+03  2.77708E+03  4.92023E+02  4.61407E+03
 -2.55842E+03  5.70356E+03 -5.10806E+03  3.26409E+03 -5.92389E+03 -1.95634E+02 -4.42696E+03 -3.56772E+03
 -1.87338E+03 -4.68750E+03  1.15160E+03 -3.87086E+03  2.86518E+03 -2.31078E+03  2.77670E+03  9.96558E+01
  1.57951E+03  1.40982E+03 -3.01201E+02  1.23366E+03 -8.58388E+02  1.96846E+02  3.81200E+02 -1.25887E+03
  1.54096E+03 -4.29987E+02  1.43266E+03  9.66210E+02  6.84409E+02  1.75908E+03 -5.75736E+01  1.90352E+03
 -1.83516E+03  1.82297E+03 -2.37519E+03  4.39906E+02 -2.90694E+03 -1.98476E+03 -5.36343E+02 -3.77913E+03
  1.83713E+03 -2.96891E+03  3.14313E+03 -8.67683E+02  3.37001E+03  6.10559E+01  1.76112E+03  2.76256E+03
  7.51717E+02  3.06905E+03 -1.02824E+03  2.26513E+03 -2.06174E+03  1.45510E+03 -1.66615E+03  7.62676E+01
 -7.83862E+02 -1.01591E+02 -9.59770E+02  6.27066E+02 -1.92934E+03  4.59646E+02 -2.33179E+03 -3.22412E+02
 -2.54195E+03 -8.98429E+02 -9.16415E+02 -2.96014E+03  1.48736E+03 -3.45333E+03  2.57513E+03 -1.47842E+03
  2.66840E+03  3.68912E+02  1.03088E+03  1.94465E+03 -2.19505E+02  3.10779E+03 -1.81168E+03  1.80634E+03
