 $NMID ID='MM_0lb_SNR800_19hz_g60_89.RAW', FMTDAT='(8E13.5)'
 TRAMP=1., VOLUME=1. $END
  3.09847E+05  5.22350E+02  3.37402E+05  2.50733E+05  8.45709E+04  3.37856E+05 -1.32486E+05  2.50597E+05
 -1.90057E+05  8.30980E+04 -1.11439E+05 -3.28313E+04  8.27416E+02 -5.01446E+04  5.38770E+04 -3.32236E+01
  3.50880E+04  5.32216E+04 -1.71149E+04  7.50089E+04 -6.06511E+04  6.31175E+04 -8.36454E+04  3.18154E+04
 -8.03859E+04 -1.12492E+04 -5.68047E+04 -5.09552E+04 -1.47424E+04 -6.90599E+04  2.70625E+04 -4.54107E+04
  3.97203E+04  3.69608E+03  1.58168E+04  4.75679E+04 -3.39892E+04  4.67211E+04 -6.61845E+04 -2.85695E+02
 -5.27365E+04 -5.64628E+04 -6.47848E+03 -7.62435E+04  3.37431E+04 -5.41482E+04  4.71380E+04 -1.69886E+04
  4.24171E+04  1.12967E+04  3.14911E+04  2.50773E+04  1.60890E+04  2.91709E+04 -5.12914E+03  2.71319E+04
 -2.19232E+04  1.25284E+04 -1.87373E+04 -4.68763E+03  4.74055E+03 -7.52147E+03  2.19905E+04  1.16288E+04
  7.31045E+03  3.39415E+04 -3.12198E+04  3.48712E+04 -6.23572E+04  1.95739E+03 -5.61521E+04 -4.19557E+04
 -1.22606E+04 -6.19168E+04  3.89479E+04 -4.44097E+04  5.69133E+04 -1.87681E+03  3.28687E+04  3.14681E+04
 -6.19422E+03  3.46140E+04 -2.92237E+04  1.46734E+04 -2.89419E+04 -4.98022E+03 -1.54649E+04 -1.06151E+04
 -7.96308E+03 -1.21345E+04 -1.08763E+03 -1.73864E+04  7.32251E+03 -2.25393E+04  1.50743E+04 -1.36052E+04
  1.16381E+04  4.57600E+03 -6.96057E+03  1.30699E+04 -2.01251E+04 -3.39142E+03 -8.19446E+03 -3.18103E+04
  2.15468E+04 -4.18793E+04  4.61881E+04 -1.90549E+04  4.32270E+04  1.88834E+04  1.47924E+04  4.27884E+04
 -1.54191E+04  3.21059E+04 -2.42331E+04  1.49447E+03 -8.82568E+03 -2.68269E+04  2.05627E+04 -3.23149E+04
  3.94819E+04 -7.87794E+03  3.34708E+04  2.34770E+04  1.65382E+04  4.41777E+04 -7.84554E+03  4.73536E+04
 -2.97021E+04  3.15734E+04 -3.91815E+04  8.76544E+03 -4.01738E+04 -1.55394E+04 -2.19600E+04 -3.60543E+04
  6.99617E+03 -3.56088E+04  2.99527E+04 -1.33640E+04  2.79947E+04  1.04547E+04  3.61591E+03  1.82930E+04
 -1.31449E+04  7.57314E+03 -9.71137E+03 -7.53316E+03  5.79862E+03 -1.01557E+04  1.71771E+04  6.56084E+03
  1.26663E+04  2.19105E+04 -6.37015E+03  2.38667E+04 -2.17824E+04  1.00330E+04 -2.60024E+04 -5.83381E+03
 -1.79581E+04 -1.66803E+04 -6.55827E+03 -1.79423E+04  3.86960E+03 -1.63038E+04  1.32892E+04 -1.57770E+04
  2.28137E+04 -1.21758E+04  2.95567E+04  1.63539E+03  2.19918E+04  1.74345E+04  4.30044E+03  3.37500E+04
 -1.67312E+04  2.83580E+04 -2.65138E+04  9.72445E+03 -2.00216E+04 -1.04193E+04 -4.01201E+03 -1.38711E+04
  2.53976E+03 -3.73369E+03 -3.20644E+03  5.78454E+03 -1.40670E+04  4.98368E+03 -1.43781E+04 -5.71030E+03
 -8.94671E+03 -1.67954E+04  4.74679E+03 -2.05362E+04  1.36346E+04 -1.50467E+04  1.55318E+04 -1.41018E+03
  9.77610E+03  1.13517E+04 -1.13147E+03  1.64886E+04 -1.09466E+04  9.27343E+03 -1.65333E+04 -3.69676E+03
 -1.22613E+04 -1.48059E+04 -1.58001E+03 -2.00922E+04  9.21620E+03 -1.66221E+04  1.66046E+04 -7.77656E+03
  1.54466E+04  4.52073E+02  1.08716E+04  3.94207E+03  5.64747E+03  2.93042E+02  8.02629E+03 -1.65280E+03
  1.46346E+04  2.94953E+03  1.59491E+04  1.34610E+04  9.84598E+03  2.61654E+04 -3.08042E+03  2.83417E+04
 -1.67499E+04  2.20535E+04 -2.59773E+04  1.06721E+04 -2.67718E+04 -2.01489E+03 -2.27651E+04 -1.54547E+04
 -1.03990E+04 -2.21950E+04  7.21474E+03 -2.04331E+04  1.76527E+04 -1.13630E+04  1.66429E+04  3.95935E+03
  6.47547E+03  1.20419E+04 -7.72055E+03  1.08382E+04 -1.38137E+04  2.69101E+03 -1.06600E+04 -8.40000E+03
 -6.90577E+01 -1.30488E+04  6.40232E+03 -9.95655E+03  8.33358E+03 -1.62187E+03  1.28645E+03  5.14404E+03
 -5.97713E+03  1.58468E+03 -4.10280E+03 -4.63457E+03  2.18626E+02 -1.07546E+04  8.38497E+03 -1.07860E+04
  1.31276E+04 -5.30070E+03  1.30248E+04  2.50955E+03  1.12676E+04  1.02768E+04  5.16109E+03  1.49499E+04
 -1.83326E+03  1.70022E+04 -1.02574E+04  1.06219E+04 -1.17067E+04  3.29109E+03 -8.92679E+03 -2.36376E+03
 -4.40574E+03 -3.41300E+03 -8.87440E+02  1.21187E+03 -1.95501E+03  1.91427E+03 -3.60871E+03  3.91024E+03
 -8.48686E+03 -5.62645E+02 -9.35217E+03 -7.59394E+03 -3.58273E+03 -1.19197E+04  3.65184E+03 -8.88400E+03
  7.52400E+03 -3.87650E+03  5.53086E+03  2.46831E+03  6.36688E+02  3.33288E+03 -3.63047E+03 -3.36663E+02
 -3.52984E+03 -5.57383E+03 -9.78379E+02 -7.56869E+03  4.07324E+03 -8.41700E+03  1.03466E+04 -4.08824E+03
  1.23027E+04  4.58032E+02  8.99429E+03  6.44762E+03  1.84522E+03  9.31956E+03 -5.54896E+03  8.66055E+03
 -6.95041E+03  2.58083E+03 -3.66136E+03 -1.16498E+03  8.33995E+02 -1.90432E+03  4.74576E+03 -1.17085E+03
  4.36403E+03  3.61426E+03  1.04720E+03  6.83344E+03 -4.65470E+03  6.49729E+03 -8.11648E+03  1.91785E+03
 -4.95914E+03 -3.85596E+03  1.51042E+02 -7.14151E+03  3.70577E+03 -3.57854E+03  3.71897E+03  1.14165E+03
  6.64848E+02  3.37736E+03 -4.05791E+03  4.99985E+03 -5.24210E+03  2.53181E+03 -4.53669E+03 -1.30986E+03
 -3.06515E+03 -6.28737E+03  1.36558E+03 -7.26433E+03  6.16250E+03 -4.67102E+03  6.79619E+03  1.18986E+03
  4.81571E+03  5.26577E+03  2.37551E+01  7.42349E+03 -5.42884E+03  4.26342E+03 -5.39972E+03 -7.72079E+02
 -5.82093E+03 -5.39908E+03 -1.36491E+03 -5.30630E+03  2.58696E+03 -4.96979E+03  2.82105E+03 -2.87747E+03
  2.85766E+03  2.68061E+02  1.37281E+02  1.12252E+03  5.08339E+02 -4.39917E+02  1.80986E+02 -1.96908E+03
  4.13491E+03 -6.68250E+02  5.41162E+03  6.19027E+02  5.60987E+03  3.08281E+03  5.21010E+03  7.52509E+03
 -1.28955E+03  8.68405E+03 -7.84576E+03  6.69483E+03 -1.02169E+04  1.05869E+03 -7.89660E+03 -2.47473E+03
 -4.33676E+03 -6.54781E+03 -7.51852E+02 -5.37015E+03  2.15501E+03 -1.93837E+03  1.65513E+03 -2.25527E+03
  1.29507E+03 -1.75440E+03  2.46867E+03 -2.47869E+03  3.58503E+03 -1.38140E+03  3.90074E+03  4.58612E+02
  4.50260E+03  1.30754E+03  1.12294E+03  3.52617E+03 -1.66182E+03  2.92735E+03 -4.35957E+03  2.38238E+03
 -4.99893E+03 -1.18504E+03 -1.74270E+03 -3.42606E+03  6.23619E+02 -4.74332E+03  3.13235E+03 -5.53020E+03
  5.11513E+03 -3.32922E+03  6.97276E+03  2.86067E+02  5.01212E+03  3.96701E+03  1.30891E+03  5.83111E+03
 -2.15102E+03  5.73099E+03 -3.55227E+03  1.88219E+03 -1.91763E+03 -1.11723E+03 -2.33734E+02 -6.03376E+02
 -4.85195E+02  5.74151E+02 -8.56878E+02  2.05183E+03 -2.26853E+03  8.99796E+02 -3.92146E+03 -3.71916E+02
 -1.51957E+03 -4.16376E+03  1.02093E+03 -4.45456E+03  2.71928E+03 -4.35435E+03  3.46251E+03 -1.10682E+03
  4.13578E+03  2.32264E+03  1.90514E+03  3.11766E+03 -1.06146E+03  4.29810E+03 -2.27307E+03  2.70313E+03
 -3.83677E+03  4.80231E+02 -3.36619E+03 -2.22423E+03  4.49806E+01 -3.03226E+03  1.56241E+03 -2.42240E+03
  2.66001E+03 -1.39574E+03  2.00431E+03  6.30757E+02  4.96720E+02  1.91866E+03  4.28571E+02  5.28438E+02
  1.95632E+03  5.62170E+02  9.98149E+02  9.87572E+02  1.07332E+03  2.15302E+03  1.55528E+03  1.64069E+03
 -1.18432E+03  2.74353E+03 -2.25365E+03  3.82801E+03 -2.99462E+03  1.29283E+03 -3.95250E+03 -1.90280E+02
 -1.66399E+03 -3.65185E+03  5.03731E+02 -4.76405E+03  1.89299E+03 -2.43906E+03  3.05169E+03 -1.21024E+03
  2.24101E+03  1.55731E+03  5.07053E+02  2.09664E+03 -5.68276E+02  1.03525E+03 -1.01149E+03 -2.49531E+00
 -2.60991E+02 -1.52370E+03  1.15296E+03 -1.53960E+03  1.36058E+03 -9.78717E+02  7.83598E+02  1.99000E+02
  1.03113E+03  3.12252E+02  4.68345E+02 -4.04508E+02 -1.58680E+02  6.72261E+02  1.59900E+03 -3.60990E+00
 -9.17492E+01 -3.55656E+02  1.70695E+03  6.01503E+02  1.42524E+02  2.08679E+03 -3.57751E+02  2.69813E+03
 -1.60624E+03  9.28050E+02 -2.11968E+03  3.16458E+02 -1.90765E+03 -5.58131E+02  1.25654E+02 -1.10373E+03
  3.09846E+02 -1.02451E+03  7.91889E+02 -4.03987E+02  5.77603E+02  1.04103E+03 -9.79780E+02  1.09476E+03
 -1.58266E+03  6.11191E+02 -8.99073E+02 -1.08392E+03 -4.71977E+02 -1.91319E+03  3.29387E+02 -1.48628E+03
  2.31403E+02 -3.53473E+02  7.44451E+02  1.93103E+02  1.22528E+03 -1.77169E+02  7.43953E+02  8.70655E+02
 -2.13734E+02 -2.15339E+00 -7.67375E+02  9.79143E+01  4.59227E+02 -7.98298E+02  1.54304E+03 -8.71434E+02
  9.98027E+02  1.90378E+02  2.62933E+03  7.31125E+02  1.07807E+03  1.38944E+03 -3.28634E+01  1.75468E+03
 -1.29541E+03  3.29921E+01 -1.38493E+03 -1.76858E+02 -6.73568E+02 -1.29659E+03  1.56182E+02 -3.30095E+02
  1.52288E+03 -7.96404E+02  4.99373E+02  5.07128E+02  2.06226E+01  1.21587E+03  1.97857E+02  1.32431E+03
 -3.59163E+02  1.21804E+03 -4.24551E+02  2.40661E+02  1.79765E+01  2.83185E+02 -7.06132E+02  4.33993E+02
 -7.82339E+02  9.61707E+02 -1.80150E+03  3.91373E+02 -1.48829E+03  2.36823E+02 -2.05454E+03 -7.07152E+02
 -1.09133E+03 -2.11648E+03  1.53737E+02 -2.64622E+03  6.21486E+02 -2.20540E+03  2.40184E+03 -8.86990E+02
  1.95487E+03 -2.80973E+02  1.03277E+03  1.15136E+03 -6.65395E+02  1.09281E+03 -5.74435E+02  1.31753E+03
 -8.94930E+02  6.19334E+02 -2.63912E+02 -8.27430E+01 -6.51955E+02  2.62309E+02 -6.05491E+02  5.66001E+01
 -8.76886E+02 -2.08115E+02 -7.02587E+02  2.95556E+02  1.91196E+02 -2.54960E+02 -5.11461E+02 -8.78841E+02
  1.03731E+03 -5.29151E+02 -4.73049E+01  3.60818E+02  9.33662E+02  5.07061E+02 -3.38161E+02  1.29844E+03
 -9.74784E+02  1.95043E+03 -1.15244E+03  1.30205E+03 -1.54551E+03 -2.81385E+02 -1.04947E+03 -9.43039E+02
 -6.85746E+02 -1.12951E+03  1.31704E+02 -9.35493E+02  4.53994E+02 -3.45712E+02  5.11174E+02  1.37295E+02
  7.13117E+02  1.97624E+02  3.83185E+02  1.67812E+02 -2.02555E+01 -6.36090E+01  7.98953E+01 -1.63299E+02
  4.96938E+02  1.41981E+02 -1.03269E+02  2.89228E+02 -1.41657E+01  1.66098E+02  4.57314E+02 -4.82265E+01
 -2.90643E+02  3.47770E+02 -2.58137E+02  2.29170E+02 -5.13127E+02 -4.12372E+02  1.81519E+02 -8.45561E+02
  6.36760E+02 -3.63277E+02  1.88271E+02 -1.73825E+02  6.32707E+02 -7.63052E+02  1.75536E+02  4.94218E+02
  5.45380E+02  1.99432E+02 -1.71212E+02  6.84610E+02 -4.59052E+02  2.98579E+02 -3.96086E+02  1.43093E+02
 -9.08841E+01 -2.22737E+02 -5.42482E+02  7.06535E+01 -7.10443E+02 -2.96716E+01 -5.23298E+02 -1.73251E+02
 -8.15976E+02  3.85300E+02 -4.83955E+02 -4.52157E+02  6.22329E+02 -1.16049E+03  4.93870E+02 -1.59099E+02
  7.10292E+02  2.47718E+01 -5.90119E+02  1.87988E+01 -1.79184E+02  7.07144E+02 -3.35768E+02  4.76045E+02
