 $NMID ID='MM_0lb_SNR800_16hz_g60_86.RAW', FMTDAT='(8E13.5)'
 TRAMP=1., VOLUME=1. $END
  3.09900E+05  3.67257E+02  3.37793E+05  2.50680E+05  8.44700E+04  3.38045E+05 -1.32436E+05  2.50990E+05
 -1.90112E+05  8.32804E+04 -1.12034E+05 -3.25615E+04  7.19639E+02 -5.03629E+04  5.37149E+04  6.68136E+01
  3.53415E+04  5.28270E+04 -1.64115E+04  7.53684E+04 -6.08768E+04  6.37129E+04 -8.41652E+04  3.23370E+04
 -8.10948E+04 -1.15151E+04 -5.72553E+04 -5.13853E+04 -1.47919E+04 -6.97977E+04  2.73239E+04 -4.56761E+04
  4.01979E+04  3.87664E+03  1.60794E+04  4.79354E+04 -3.45754E+04  4.73860E+04 -6.67354E+04 -1.46611E+02
 -5.34176E+04 -5.70671E+04 -6.70908E+03 -7.73350E+04  3.41256E+04 -5.51008E+04  4.82143E+04 -1.74376E+04
  4.32515E+04  1.11218E+04  3.18787E+04  2.55392E+04  1.58604E+04  2.92865E+04 -5.23726E+03  2.71251E+04
 -2.21656E+04  1.23218E+04 -1.85104E+04 -5.02973E+03  5.78823E+03 -7.26138E+03  2.21365E+04  1.25253E+04
  7.07250E+03  3.54478E+04 -3.23086E+04  3.54031E+04 -6.35340E+04  2.23464E+03 -5.74591E+04 -4.27510E+04
 -1.25851E+04 -6.33164E+04  3.98032E+04 -4.51372E+04  5.87682E+04 -2.25978E+03  3.38624E+04  3.23578E+04
 -5.82042E+03  3.61390E+04 -3.02099E+04  1.62022E+04 -3.05443E+04 -4.48407E+03 -1.67286E+04 -1.09757E+04
 -8.36496E+03 -1.33052E+04 -8.11813E+02 -1.81131E+04  7.47113E+03 -2.26945E+04  1.55020E+04 -1.30952E+04
  1.14256E+04  5.10434E+03 -8.37188E+03  1.30561E+04 -2.13001E+04 -4.46805E+03 -8.27581E+03 -3.38603E+04
  2.27703E+04 -4.32309E+04  4.79874E+04 -1.97443E+04  4.51986E+04  1.96917E+04  1.59204E+04  4.43367E+04
 -1.60440E+04  3.34581E+04 -2.51551E+04  1.91133E+03 -1.00123E+04 -2.77656E+04  2.11248E+04 -3.39780E+04
  4.10506E+04 -9.14912E+03  3.56963E+04  2.35373E+04  1.81974E+04  4.63672E+04 -8.05629E+03  5.03209E+04
 -3.17398E+04  3.35704E+04 -4.21167E+04  9.72233E+03 -4.25317E+04 -1.66582E+04 -2.36068E+04 -3.78456E+04
  7.58666E+03 -3.77638E+04  3.12683E+04 -1.45280E+04  2.97923E+04  1.07931E+04  3.81655E+03  1.91656E+04
 -1.32521E+04  8.27042E+03 -1.04079E+04 -7.64802E+03  5.73343E+03 -1.06251E+04  1.78414E+04  6.26316E+03
  1.32855E+04  2.24851E+04 -6.10497E+03  2.47104E+04 -2.21973E+04  1.14632E+04 -2.77385E+04 -4.77231E+03
 -2.04053E+04 -1.71744E+04 -8.15682E+03 -2.05616E+04  3.97515E+03 -1.94627E+04  1.51906E+04 -1.81138E+04
  2.59374E+04 -1.27450E+04  3.25152E+04  3.04848E+03  2.35812E+04  1.97451E+04  4.38915E+03  3.62696E+04
 -1.76237E+04  3.03834E+04 -2.79723E+04  1.06045E+04 -2.05807E+04 -9.91568E+03 -4.47567E+03 -1.33143E+04
  1.78312E+03 -2.67164E+03 -4.72404E+03  6.67988E+03 -1.59150E+04  5.07064E+03 -1.61602E+04 -6.94153E+03
 -9.82406E+03 -1.85495E+04  5.28777E+03 -2.25985E+04  1.53648E+04 -1.62309E+04  1.79476E+04 -1.58564E+03
  1.10847E+04  1.28956E+04 -9.83974E+02  1.88866E+04 -1.28683E+04  1.06986E+04 -1.86782E+04 -4.20869E+03
 -1.41849E+04 -1.70448E+04 -1.55111E+03 -2.24461E+04  1.03818E+04 -1.83484E+04  1.87639E+04 -9.19194E+03
  1.72792E+04  4.22471E+02  1.22991E+04  4.29905E+03  6.35986E+03  9.25806E+02  9.47474E+03 -1.63814E+03
  1.67240E+04  2.56241E+03  1.88443E+04  1.47762E+04  1.23362E+04  2.99284E+04 -2.97541E+03  3.28864E+04
 -1.92251E+04  2.67101E+04 -3.09304E+04  1.35778E+04 -3.24000E+04 -2.41346E+03 -2.68669E+04 -1.86970E+04
 -1.16618E+04 -2.65638E+04  8.67424E+03 -2.41625E+04  2.08860E+04 -1.28990E+04  1.85165E+04  5.21855E+03
  7.15882E+03  1.39623E+04 -8.51556E+03  1.20638E+04 -1.57788E+04  2.62629E+03 -1.20954E+04 -1.01767E+04
 -1.31358E+02 -1.48288E+04  7.63354E+03 -1.11806E+04  9.72186E+03 -1.35195E+03  2.16842E+03  6.26266E+03
 -6.43062E+03  2.46824E+03 -5.69935E+03 -5.29067E+03 -2.70119E+02 -1.30237E+04  8.82125E+03 -1.34360E+04
  1.62431E+04 -7.13390E+03  1.68098E+04  2.86958E+03  1.46221E+04  1.27028E+04  6.70380E+03  1.92360E+04
 -2.99566E+03  2.09191E+04 -1.32116E+04  1.33927E+04 -1.49862E+04  3.44966E+03 -1.07661E+04 -3.45239E+03
 -5.01410E+03 -4.62734E+03 -6.90986E+02  9.23655E+02 -2.45549E+03  2.31968E+03 -4.79351E+03  4.23753E+03
 -1.03697E+04 -7.62469E+02 -1.06751E+04 -8.68129E+03 -4.30661E+03 -1.38940E+04  4.48165E+03 -1.08642E+04
  8.94587E+03 -4.54242E+03  6.46833E+03  3.07640E+03  2.40316E+02  4.02367E+03 -5.04459E+03 -1.41573E+02
 -4.83653E+03 -6.85089E+03 -8.96169E+02 -9.80784E+03  5.57298E+03 -1.04656E+04  1.32249E+04 -5.79033E+03
  1.52041E+04  1.09214E+03  1.11934E+04  8.74752E+03  2.09594E+03  1.20723E+04 -6.36826E+03  1.07954E+04
 -8.71925E+03  3.50213E+03 -4.51619E+03 -1.78276E+03  1.41625E+03 -2.61705E+03  5.66375E+03 -1.25537E+03
  5.52833E+03  4.60561E+03  1.00848E+03  8.17002E+03 -5.86855E+03  8.05795E+03 -1.00212E+04  2.21580E+03
 -6.48444E+03 -4.69441E+03  2.53241E+02 -8.73084E+03  5.41364E+03 -4.73930E+03  5.01098E+03  1.83001E+03
  8.07337E+02  5.12051E+03 -5.49899E+03  6.84575E+03 -7.21842E+03  2.89248E+03 -7.29935E+03 -1.97023E+03
 -4.28978E+03 -8.72488E+03  2.12868E+03 -9.63011E+03  8.83815E+03 -6.49126E+03  9.33531E+03  1.30556E+03
  5.71370E+03  7.58535E+03 -6.48374E+02  9.64493E+03 -6.69397E+03  5.55122E+03 -7.36361E+03 -7.56575E+02
 -7.25076E+03 -6.68673E+03 -1.35209E+03 -7.03838E+03  3.52376E+03 -5.95215E+03  4.52755E+03 -3.12525E+03
  3.52113E+03  5.12627E+02 -4.03604E+01  1.32237E+03  1.48649E+02 -1.20710E+03  7.25397E+02 -3.47605E+03
  6.00904E+03 -1.72227E+03  8.02737E+03  9.83688E+02  8.26771E+03  5.07182E+03  6.37049E+03  1.08594E+04
 -2.02674E+03  1.24233E+04 -1.08942E+04  9.09193E+03 -1.41740E+04  1.87320E+03 -1.10857E+04 -4.34328E+03
 -5.74248E+03 -8.86910E+03 -8.65197E+00 -7.65672E+03  2.91288E+03 -3.72267E+03  2.71290E+03 -2.96077E+03
  1.98648E+03 -2.06071E+03  2.63567E+03 -2.76385E+03  4.02638E+03 -1.48859E+03  4.75524E+03 -1.35899E+02
  5.87324E+03  1.95144E+03  2.34802E+03  4.48388E+03 -1.69754E+03  4.97555E+03 -5.99452E+03  4.03718E+03
 -6.95252E+03 -1.33909E+03 -3.47165E+03 -4.79647E+03  3.22891E+01 -7.37425E+03  4.50225E+03 -7.67283E+03
  7.51701E+03 -4.55101E+03  9.62265E+03  8.84717E+02  7.11837E+03  6.39258E+03  1.18545E+03  8.60419E+03
 -3.30102E+03  7.72847E+03 -4.85704E+03  2.55551E+03 -2.96395E+03 -1.03912E+03 -9.76490E+02 -6.84806E+02
 -4.72079E+02  4.71942E+02 -1.07366E+03  2.18833E+03 -3.37226E+03  1.41784E+03 -5.26389E+03 -5.61828E+02
 -2.63063E+03 -5.34941E+03  5.68156E+02 -7.17072E+03  4.37909E+03 -6.31919E+03  5.91382E+03 -2.06414E+03
  6.11425E+03  3.24788E+03  3.01597E+03  5.38086E+03 -9.39104E+02  6.64388E+03 -4.51966E+03  4.05092E+03
 -5.85695E+03  6.60369E+02 -4.98873E+03 -4.08155E+03 -2.49454E+02 -5.14079E+03  2.83774E+03 -3.95206E+03
  4.09977E+03 -1.83231E+03  2.78881E+03  7.22549E+02  8.52336E+02  2.24421E+03  6.55335E+02  4.16029E+02
  1.81468E+03  4.88711E+02  1.58517E+03  1.23539E+03  1.88594E+03  2.64102E+03  1.95795E+03  2.83568E+03
 -1.73025E+03  4.46035E+03 -4.11327E+03  5.60944E+03 -5.37653E+03  1.40707E+03 -6.86071E+03 -1.72796E+03
 -3.00540E+03 -5.83114E+03  9.00795E+02 -6.73109E+03  3.06399E+03 -4.35667E+03  5.04978E+03 -1.01777E+03
  3.79035E+03  2.31450E+03  7.82056E+02  3.63608E+03 -1.27537E+03  2.14998E+03 -1.55071E+03 -1.35516E+02
 -9.99516E+02 -2.30466E+03  1.63197E+03 -2.45840E+03  2.32829E+03 -1.76052E+03  1.91635E+03  6.66060E+02
  1.33569E+03  6.54489E+02  1.17970E+03  3.51469E+02 -3.73622E+01  8.65342E+02  1.85015E+03  1.03639E+02
  5.32161E+02 -3.53113E+02  2.55411E+03  1.03182E+03  4.88336E+02  2.98178E+03 -6.71999E+02  4.37654E+03
 -2.65666E+03  2.05595E+03 -3.63450E+03  5.76782E+02 -3.04989E+03 -1.12884E+03 -1.14174E+03 -1.78359E+03
  3.94553E+02 -2.05036E+03  1.45332E+03 -1.24649E+03  1.17850E+03  1.68032E+03 -1.10935E+03  1.75861E+03
 -2.32018E+03  1.00895E+03 -2.15542E+03 -1.64545E+03 -1.31224E+03 -3.17490E+03  3.51536E+02 -2.50033E+03
  1.43877E+03 -1.47075E+03  1.78476E+03 -8.08433E+01  2.06904E+03  1.33751E+02  5.38295E+02  1.69487E+03
 -6.09245E+02 -1.25345E+02 -1.31916E+03 -7.70458E+02  5.78585E+02 -1.77698E+03  2.80171E+03 -1.64640E+03
  2.34014E+03  7.86781E+01  3.84220E+03  1.72422E+03  1.69654E+03  2.81854E+03 -9.50623E+02  3.01561E+03
 -2.47866E+03  9.63886E+02 -2.67010E+03 -1.69563E+01 -1.28589E+03 -2.17550E+03  8.20163E+02 -1.29303E+03
  2.46211E+03 -1.19741E+03  1.59945E+03  7.38779E+02  4.28158E+02  1.95904E+03  3.44743E+01  1.66852E+03
 -9.22785E+02  1.51009E+03 -6.53605E+02  1.88948E+02  3.12045E+02  4.61753E+02 -1.00358E+03  7.98537E+02
 -5.14026E+02  1.17608E+03 -2.40648E+03  9.97352E+02 -2.74061E+03 -7.94175E+01 -3.70369E+03 -2.00369E+03
 -1.58806E+03 -3.95179E+03  9.34845E+02 -4.80145E+03  1.79747E+03 -3.84399E+03  4.38375E+03 -1.31118E+03
  4.04481E+03  6.20287E+02  2.30691E+03  2.55764E+03 -4.86255E+02  2.57878E+03 -1.16645E+03  1.83924E+03
 -1.46184E+03  7.91542E+02 -1.00094E+03 -6.16230E+02 -6.09581E+02 -2.88250E+01 -6.30106E+02 -4.97820E+01
 -1.12132E+03 -3.86527E+02 -9.64201E+02 -3.71293E+01  3.29880E+02 -6.76808E+02 -1.72200E+02 -1.39712E+03
  1.80550E+03 -1.07669E+03  1.12264E+03 -2.00351E+01  1.87724E+03  1.49073E+03 -1.81145E+02  2.48495E+03
 -1.60126E+03  3.33568E+03 -2.97116E+03  2.11143E+03 -2.92024E+03  5.89814E+01 -2.25984E+03 -1.95427E+03
 -1.31139E+03 -2.46590E+03  6.93714E+02 -2.13200E+03  1.18504E+03 -1.03254E+03  1.48231E+03 -2.58370E+02
  9.84414E+02  6.71645E+02 -5.17369E+01  6.60236E+02 -4.32409E+02  1.06538E+02 -1.52073E+02 -7.12663E+02
  6.91644E+02  1.76995E+02  6.93178E+02  5.62051E+02  2.95786E+02  7.17536E+02  4.13071E+02  1.01359E+03
 -1.34174E+03  1.10679E+03 -1.26677E+03  5.34812E+01 -1.53902E+03 -8.51759E+02 -1.00082E+02 -2.12631E+03
  8.55768E+02 -1.51734E+03  1.34172E+03 -1.79065E+02  1.55247E+03 -2.80352E+02  1.13197E+03  1.04780E+03
  3.31299E+02  1.25014E+03 -5.06447E+02  1.03205E+03 -5.91488E+02  9.56117E+02 -5.65990E+02  1.48494E+02
 -4.31499E+02 -1.90496E+02 -7.10376E+02  4.34930E+02 -1.05519E+03  3.28415E+02 -1.18663E+03 -3.65942E+02
 -1.23413E+03 -1.74876E+02 -6.05809E+02 -1.39479E+03  1.10478E+03 -2.27863E+03  1.18083E+03 -3.61329E+02
  1.00572E+03  5.95120E+02 -8.48935E+01  7.07763E+02 -5.23170E+01  1.49503E+03 -8.98039E+02  8.90415E+02
