 $NMID ID='MM_0lb_SNR800_14hz_g45_3.RAW', FMTDAT='(8E13.5)'
 TRAMP=1., VOLUME=1. $END
  3.09648E+05  5.20095E+02  3.37480E+05  2.50638E+05  8.43475E+04  3.37848E+05 -1.32469E+05  2.50921E+05
 -1.90049E+05  8.26573E+04 -1.11542E+05 -3.26763E+04  7.91150E+02 -5.04226E+04  5.37706E+04  2.42007E+02
  3.51347E+04  5.26546E+04 -1.66805E+04  7.54897E+04 -6.08830E+04  6.32085E+04 -8.39462E+04  3.17891E+04
 -8.05497E+04 -1.14173E+04 -5.69977E+04 -5.11793E+04 -1.51374E+04 -6.95219E+04  2.72924E+04 -4.56324E+04
  3.98556E+04  4.06309E+03  1.58589E+04  4.75820E+04 -3.44887E+04  4.69474E+04 -6.62135E+04 -4.10969E+02
 -5.32390E+04 -5.66885E+04 -6.67085E+03 -7.65060E+04  3.35211E+04 -5.45952E+04  4.76889E+04 -1.71247E+04
  4.32046E+04  1.14719E+04  3.13723E+04  2.54166E+04  1.59441E+04  2.91007E+04 -5.24502E+03  2.74451E+04
 -2.20795E+04  1.25234E+04 -1.90039E+04 -4.62533E+03  5.44347E+03 -7.45910E+03  2.21489E+04  1.22609E+04
  7.17929E+03  3.52351E+04 -3.19511E+04  3.53918E+04 -6.29969E+04  1.75320E+03 -5.66074E+04 -4.26501E+04
 -1.24160E+04 -6.26547E+04  3.95623E+04 -4.49188E+04  5.79202E+04 -2.44680E+03  3.39636E+04  3.22878E+04
 -6.17875E+03  3.56859E+04 -2.98491E+04  1.58081E+04 -2.98893E+04 -4.48155E+03 -1.66518E+04 -1.05039E+04
 -7.94796E+03 -1.28155E+04 -8.63334E+02 -1.77295E+04  7.62004E+03 -2.31437E+04  1.53223E+04 -1.36182E+04
  1.15868E+04  4.88935E+03 -8.03553E+03  1.28332E+04 -2.08674E+04 -4.01225E+03 -8.11721E+03 -3.32153E+04
  2.25559E+04 -4.31281E+04  4.75862E+04 -1.94426E+04  4.46520E+04  1.92315E+04  1.60657E+04  4.37954E+04
 -1.57174E+04  3.31548E+04 -2.49898E+04  1.79131E+03 -9.57793E+03 -2.75695E+04  2.10527E+04 -3.36862E+04
  4.07817E+04 -8.64384E+03  3.51621E+04  2.36126E+04  1.78883E+04  4.59862E+04 -7.96828E+03  4.96808E+04
 -3.09818E+04  3.32264E+04 -4.14637E+04  9.60061E+03 -4.21805E+04 -1.67831E+04 -2.32435E+04 -3.73430E+04
  7.31679E+03 -3.72386E+04  3.13093E+04 -1.42580E+04  2.90105E+04  1.09618E+04  3.90821E+03  1.90070E+04
 -1.35263E+04  8.30714E+03 -1.00404E+04 -7.44402E+03  5.68140E+03 -1.06080E+04  1.78530E+04  6.10437E+03
  1.33030E+04  2.22165E+04 -6.07738E+03  2.48849E+04 -2.19927E+04  1.13607E+04 -2.79228E+04 -4.99623E+03
 -2.02250E+04 -1.75314E+04 -8.23748E+03 -2.00328E+04  4.34431E+03 -1.92830E+04  1.53214E+04 -1.79523E+04
  2.56260E+04 -1.28249E+04  3.20216E+04  2.68663E+03  2.37847E+04  1.94292E+04  4.32528E+03  3.61280E+04
 -1.75633E+04  2.99161E+04 -2.74197E+04  1.02983E+04 -2.08566E+04 -1.04648E+04 -4.50582E+03 -1.34451E+04
  1.70359E+03 -2.97476E+03 -4.84523E+03  6.59609E+03 -1.56224E+04  5.31601E+03 -1.60099E+04 -6.93185E+03
 -9.80786E+03 -1.86231E+04  4.89825E+03 -2.27651E+04  1.48170E+04 -1.62140E+04  1.78328E+04 -1.46879E+03
  1.10276E+04  1.27971E+04 -1.28132E+03  1.86016E+04 -1.27731E+04  1.05813E+04 -1.88397E+04 -3.80381E+03
 -1.36582E+04 -1.68990E+04 -1.76314E+03 -2.26859E+04  1.01263E+04 -1.84216E+04  1.87038E+04 -8.96129E+03
  1.74142E+04  4.42530E+02  1.26088E+04  4.44961E+03  6.45619E+03  8.88066E+02  9.39232E+03 -1.78744E+03
  1.69966E+04  2.92520E+03  1.90307E+04  1.45761E+04  1.25219E+04  2.94129E+04 -3.35376E+03  3.32509E+04
 -1.92296E+04  2.66139E+04 -3.11481E+04  1.30003E+04 -3.24725E+04 -2.79904E+03 -2.69023E+04 -1.86456E+04
 -1.19678E+04 -2.68731E+04  9.24715E+03 -2.43135E+04  2.11401E+04 -1.25243E+04  1.87734E+04  5.39332E+03
  7.09234E+03  1.41679E+04 -8.86903E+03  1.22813E+04 -1.60746E+04  2.46967E+03 -1.19756E+04 -1.01241E+04
 -7.93041E+01 -1.49842E+04  7.62898E+03 -1.12911E+04  9.69798E+03 -1.29423E+03  2.49107E+03  6.10584E+03
 -6.56015E+03  2.44120E+03 -5.77721E+03 -5.41622E+03 -2.39192E+02 -1.32689E+04  9.46928E+03 -1.34758E+04
  1.64053E+04 -7.28336E+03  1.74579E+04  3.00872E+03  1.50813E+04  1.26970E+04  7.07437E+03  1.99698E+04
 -3.04473E+03  2.16211E+04 -1.35848E+04  1.34753E+04 -1.54943E+04  3.26935E+03 -1.11742E+04 -3.33310E+03
 -5.53011E+03 -4.60167E+03 -9.08669E+02  7.87838E+02 -2.45073E+03  2.73251E+03 -4.98967E+03  4.05729E+03
 -9.95337E+03 -4.11264E+02 -1.11837E+04 -8.94865E+03 -4.43242E+03 -1.45214E+04  4.36090E+03 -1.09750E+04
  9.18800E+03 -4.83121E+03  6.51561E+03  2.70470E+03  5.10358E+01  4.30961E+03 -5.17377E+03  1.83539E+02
 -4.94562E+03 -6.64492E+03 -9.73475E+02 -1.01245E+04  5.87739E+03 -1.10578E+04  1.38408E+04 -5.97569E+03
  1.62069E+04  9.92722E+02  1.17635E+04  9.05302E+03  2.43087E+03  1.25017E+04 -6.90539E+03  1.08204E+04
 -8.95500E+03  3.43176E+03 -4.85988E+03 -2.17177E+03  1.68077E+03 -2.82598E+03  6.15588E+03 -9.40074E+02
  5.62474E+03  4.58253E+03  9.88902E+02  8.53264E+03 -5.79921E+03  8.84731E+03 -1.09243E+04  2.48952E+03
 -7.05149E+03 -5.51061E+03  2.41720E+02 -9.15487E+03  5.38591E+03 -4.40843E+03  5.34835E+03  1.99783E+03
  1.05214E+03  5.61773E+03 -5.57816E+03  7.30648E+03 -8.01558E+03  3.43140E+03 -7.79653E+03 -2.46921E+03
 -4.39282E+03 -9.50247E+03  2.36497E+03 -1.11956E+04  9.21432E+03 -6.73101E+03  1.04320E+04  1.12855E+03
  6.38155E+03  8.23422E+03 -2.32302E+02  1.03838E+04 -7.41912E+03  6.19307E+03 -7.87252E+03 -1.06865E+03
 -7.29273E+03 -7.03928E+03 -1.56994E+03 -7.42530E+03  4.08633E+03 -6.24425E+03  4.65393E+03 -3.34524E+03
  3.71570E+03  8.03088E+02 -1.16373E+02  1.35058E+03 -4.46389E+01 -1.54999E+03  1.09148E+03 -3.93796E+03
  6.40133E+03 -2.29920E+03  9.07976E+03  1.06521E+03  9.45000E+03  6.05072E+03  7.11941E+03  1.20362E+04
 -2.54219E+03  1.37954E+04 -1.17595E+04  1.04775E+04 -1.55233E+04  2.10527E+03 -1.22652E+04 -4.63845E+03
 -6.47886E+03 -9.99253E+03 -7.26806E+02 -8.23447E+03  3.40532E+03 -4.26945E+03  2.46786E+03 -3.07936E+03
  2.17716E+03 -2.15595E+03  2.79192E+03 -3.09860E+03  4.23964E+03 -1.97769E+03  5.48285E+03 -3.22535E+02
  6.76129E+03  1.69503E+03  2.69480E+03  5.36677E+03 -1.67403E+03  5.66597E+03 -6.83553E+03  4.63138E+03
 -8.10361E+03 -1.38318E+03 -4.20749E+03 -6.06258E+03 -2.03777E+02 -8.55099E+03  5.02124E+03 -8.82927E+03
  8.67828E+03 -5.09866E+03  1.12821E+04  1.20584E+03  7.75352E+03  7.45791E+03  1.28348E+03  9.89760E+03
 -3.89687E+03  8.74212E+03 -5.71471E+03  2.78142E+03 -3.60221E+03 -1.28986E+03 -1.44643E+03 -1.05727E+03
 -8.09918E+02  1.75305E+01 -1.35723E+03  2.60040E+03 -3.32021E+03  1.51871E+03 -6.32257E+03 -8.40653E+02
 -3.47749E+03 -6.14769E+03  6.13917E+02 -7.99690E+03  4.57352E+03 -7.38103E+03  7.42406E+03 -2.07252E+03
  7.81143E+03  3.94873E+03  3.49635E+03  6.81893E+03 -1.31983E+03  7.86767E+03 -5.19089E+03  4.81379E+03
 -7.12019E+03  7.60816E+02 -5.89962E+03 -4.42368E+03 -6.43081E+02 -6.10794E+03  3.36692E+03 -4.59611E+03
  4.75557E+03 -2.01678E+03  3.30635E+03  9.88712E+02  1.02406E+03  2.27672E+03  8.75006E+02  9.56774E+02
  1.85729E+03  9.91521E+02  1.77870E+03  1.18874E+03  2.24210E+03  3.19849E+03  2.47652E+03  3.56835E+03
 -1.82567E+03  5.80355E+03 -5.08662E+03  6.54068E+03 -7.13947E+03  1.97443E+03 -7.77261E+03 -2.21290E+03
 -3.37458E+03 -7.11794E+03  1.29393E+03 -8.29917E+03  4.14760E+03 -5.18078E+03  5.67410E+03 -1.40794E+03
  4.95422E+03  3.17709E+03  7.38751E+02  4.60786E+03 -1.70970E+03  2.71624E+03 -2.43488E+03 -3.86154E+02
 -1.19298E+03 -3.17662E+03  2.00756E+03 -3.21566E+03  2.89703E+03 -1.62942E+03  2.69636E+03  5.18580E+02
  1.60722E+03  1.55791E+03  8.11095E+02  4.73190E+02 -5.24831E+02  8.80960E+02  1.65011E+03 -4.22446E+02
  9.75779E+02 -3.31778E+02  3.12141E+03  1.39991E+03  1.33792E+03  4.13715E+03 -5.78141E+02  5.27855E+03
 -3.16690E+03  3.00785E+03 -4.52395E+03  6.23334E+02 -4.01033E+03 -1.24234E+03 -9.61160E+02 -2.26382E+03
  7.29807E+02 -2.41675E+03  2.02614E+03 -1.38356E+03  1.40228E+03  1.58770E+03 -8.88651E+02  2.36791E+03
 -3.08998E+03  1.31009E+03 -3.01566E+03 -1.69109E+03 -1.70047E+03 -4.00513E+03  5.40160E+02 -3.45951E+03
  1.84031E+03 -2.02319E+03  2.49901E+03  5.03806E+01  2.15552E+03  8.69439E+02  3.94102E+02  2.62587E+03
 -9.89594E+02  4.39661E+02 -1.81666E+03 -9.73808E+02  1.22106E+03 -2.67564E+03  3.44826E+03 -2.50325E+03
  3.60300E+03  6.61447E+01  4.85480E+03  2.37560E+03  1.56346E+03  3.80653E+03 -1.26067E+03  4.06182E+03
 -3.66769E+03  1.46531E+03 -3.36536E+03 -5.96279E+02 -1.62752E+03 -2.85540E+03  6.61376E+02 -2.25766E+03
  2.69458E+03 -1.37145E+03  2.05820E+03  1.03671E+03  8.67059E+02  2.57353E+03 -1.04704E+01  2.20289E+03
 -1.09333E+03  1.74466E+03 -1.04440E+03  4.31100E+02 -5.01869E+02  3.96859E+02 -9.66220E+02  9.18154E+02
 -9.92842E+02  1.67361E+03 -3.27068E+03  1.50229E+03 -4.27846E+03  3.53049E+02 -4.83548E+03 -2.82020E+03
 -2.61328E+03 -5.49518E+03  1.06384E+03 -5.69078E+03  3.43000E+03 -4.89485E+03  6.01286E+03 -1.83997E+03
  5.53381E+03  7.64376E+02  3.18299E+03  3.80188E+03 -3.66941E+02  3.66078E+03 -1.70864E+03  2.68708E+03
 -2.17745E+03  1.34042E+03 -1.67747E+03 -3.34172E+02 -3.69941E+02 -2.76227E+02 -6.33134E+02 -2.76170E+02
 -1.44607E+03 -5.76189E+01 -1.08106E+03 -3.16003E+02  1.01487E+02 -1.12630E+03 -1.94200E+02 -1.48088E+03
  2.33955E+03 -1.31683E+03  2.00983E+03  4.43751E+02  2.42867E+03  2.21526E+03  2.64466E+02  3.78780E+03
 -2.07553E+03  4.79707E+03 -4.35810E+03  2.69208E+03 -4.65954E+03 -5.88110E+02 -3.29373E+03 -3.07459E+03
 -1.74063E+03 -3.53389E+03  9.71274E+02 -3.50399E+03  2.25808E+03 -2.04450E+03  2.32905E+03 -2.28280E+02
  1.77591E+03  1.15512E+03  4.70833E+01  7.56170E+02 -8.14820E+02 -1.51183E+02  4.08088E+02 -1.05965E+03
  1.46346E+03 -2.81877E+02  1.15458E+03  7.94640E+02  7.07092E+02  1.58943E+03  5.27132E+02  1.61338E+03
 -1.58157E+03  1.52335E+03 -2.42673E+03  2.59330E+02 -2.23391E+03 -1.41349E+03 -1.97063E+02 -2.95172E+03
  1.50876E+03 -2.49075E+03  2.54359E+03 -5.34826E+02  2.75401E+03  2.20726E+02  1.66533E+03  2.41930E+03
  4.75033E+02  2.14462E+03 -6.16622E+02  1.88790E+03 -1.49780E+03  1.30055E+03 -1.54961E+03  5.40772E+01
 -5.65892E+02  2.82929E+01 -8.98030E+02  1.53083E+02 -1.48618E+03  4.22264E+02 -2.11970E+03 -4.02920E+02
 -1.94970E+03 -3.72083E+02 -6.97688E+02 -2.33394E+03  9.80190E+02 -2.79788E+03  1.92842E+03 -8.95595E+02
  2.41257E+03  2.56512E+02  8.70811E+02  1.62662E+03 -2.43185E+02  2.22727E+03 -1.70195E+03  1.59133E+03
