 $NMID ID='MM_0lb_SNR800_8hz_g40_42.RAW', FMTDAT='(8E13.5)'
 TRAMP=1., VOLUME=1. $END
  3.09704E+05  6.50363E+02  3.38245E+05  2.50859E+05  8.48499E+04  3.38655E+05 -1.32773E+05  2.51841E+05
 -1.90798E+05  8.38622E+04 -1.12487E+05 -3.22554E+04 -3.83234E+01 -5.06441E+04  5.37956E+04 -3.59333E+02
  3.55887E+04  5.30744E+04 -1.66206E+04  7.60062E+04 -6.11789E+04  6.46178E+04 -8.57101E+04  3.26331E+04
 -8.20329E+04 -1.18919E+04 -5.82193E+04 -5.29231E+04 -1.52489E+04 -7.06608E+04  2.81192E+04 -4.66210E+04
  4.08808E+04  3.52496E+03  1.64534E+04  4.86561E+04 -3.48746E+04  4.84448E+04 -6.83632E+04 -7.04198E+01
 -5.50463E+04 -5.78630E+04 -7.42254E+03 -7.88224E+04  3.44023E+04 -5.70850E+04  4.95998E+04 -1.84886E+04
  4.52972E+04  1.13978E+04  3.29865E+04  2.64215E+04  1.56318E+04  3.08037E+04 -5.32067E+03  2.82396E+04
 -2.28992E+04  1.18360E+04 -1.78557E+04 -5.84819E+03  6.98638E+03 -7.23793E+03  2.35272E+04  1.36134E+04
  7.17161E+03  3.72237E+04 -3.35318E+04  3.71646E+04 -6.63288E+04  2.02134E+03 -5.88503E+04 -4.48181E+04
 -1.24276E+04 -6.61552E+04  4.15795E+04 -4.74041E+04  6.12036E+04 -2.64657E+03  3.69724E+04  3.45749E+04
 -5.30591E+03  3.94388E+04 -3.17965E+04  1.90293E+04 -3.33647E+04 -3.71004E+03 -1.97060E+04 -1.20442E+04
 -9.08608E+03 -1.52907E+04 -1.22986E+02 -1.99253E+04  8.64777E+03 -2.34569E+04  1.56524E+04 -1.28572E+04
  1.07245E+04  6.07422E+03 -1.05560E+04  1.30158E+04 -2.33033E+04 -6.72917E+03 -8.87688E+03 -3.77303E+04
  2.53981E+04 -4.66676E+04  5.21188E+04 -2.07824E+04  4.89664E+04  2.07187E+04  1.71929E+04  4.71984E+04
 -1.64069E+04  3.61612E+04 -2.75547E+04  2.67486E+03 -1.16626E+04 -2.97440E+04  2.13518E+04 -3.67893E+04
  4.41791E+04 -1.11010E+04  4.05367E+04  2.47825E+04  2.17338E+04  5.11328E+04 -8.29591E+03  5.65901E+04
 -3.52831E+04  3.81753E+04 -4.77789E+04  1.10617E+04 -4.75286E+04 -1.85987E+04 -2.61424E+04 -4.22706E+04
  8.30305E+03 -4.22637E+04  3.41558E+04 -1.72391E+04  3.21345E+04  1.07789E+04  5.05365E+03  2.06162E+04
 -1.36553E+04  9.35147E+03 -1.12355E+04 -7.63958E+03  5.61153E+03 -1.14068E+04  1.89630E+04  5.26665E+03
  1.50604E+04  2.29312E+04 -4.95781E+03  2.69736E+04 -2.37473E+04  1.42516E+04 -3.20146E+04 -3.17478E+03
 -2.52865E+04 -1.88097E+04 -1.14502E+04 -2.51046E+04  4.28853E+03 -2.60746E+04  2.00294E+04 -2.32396E+04
  3.25054E+04 -1.41178E+04  3.77784E+04  5.32188E+03  2.69705E+04  2.44989E+04  4.46690E+03  4.14930E+04
 -1.99250E+04  3.40364E+04 -3.04414E+04  1.24805E+04 -2.24535E+04 -1.02576E+04 -4.90795E+03 -1.28119E+04
  8.45099E+02 -1.23540E+03 -7.83816E+03  8.15327E+03 -2.00720E+04  5.05685E+03 -2.03781E+04 -9.92875E+03
 -1.20036E+04 -2.34030E+04  6.03813E+03 -2.79963E+04  1.89806E+04 -1.98181E+04  2.29046E+04 -1.85543E+03
  1.48645E+04  1.60015E+04 -1.21781E+03  2.32359E+04 -1.66013E+04  1.37456E+04 -2.40434E+04 -4.75940E+03
 -1.74833E+04 -2.11723E+04 -1.78669E+03 -2.80816E+04  1.21558E+04 -2.33852E+04  2.31279E+04 -1.25536E+04
  2.22815E+04 -5.06728E+02  1.61971E+04  5.64864E+03  8.99956E+03  1.18486E+03  1.23782E+04 -2.11406E+03
  2.20829E+04  2.68844E+03  2.57754E+04  1.81304E+04  1.76708E+04  3.77753E+04 -2.40037E+03  4.44585E+04
 -2.53076E+04  3.73940E+04 -4.25947E+04  1.93903E+04 -4.50598E+04 -3.09010E+03 -3.62293E+04 -2.66926E+04
 -1.44152E+04 -3.77568E+04  1.32420E+04 -3.33447E+04  2.83270E+04 -1.52293E+04  2.41500E+04  7.85696E+03
  8.35724E+03  1.90666E+04 -1.20447E+04  1.56062E+04 -2.01226E+04  2.84074E+03 -1.54769E+04 -1.35313E+04
 -5.23676E+01 -1.96311E+04  1.06077E+04 -1.47297E+04  1.33264E+04 -1.31490E+03  3.79154E+03  9.21567E+03
 -8.54979E+03  4.31583E+03 -9.16998E+03 -7.47002E+03 -1.81275E+03 -1.85169E+04  1.17079E+04 -2.00617E+04
  2.32171E+04 -1.12194E+04  2.69376E+04  3.33047E+03  2.32640E+04  1.90400E+04  1.06131E+04  2.95499E+04
 -5.96123E+03  3.14585E+04 -2.04040E+04  1.93737E+04 -2.31152E+04  4.42853E+03 -1.58399E+04 -6.04302E+03
 -6.17748E+03 -7.24269E+03 -8.89667E+02  3.65168E+02 -2.95002E+03  3.24251E+03 -7.43986E+03  5.78775E+03
 -1.47639E+04 -6.66928E+02 -1.53846E+04 -1.16334E+04 -6.17655E+03 -1.99692E+04  6.33597E+03 -1.58860E+04
  1.31539E+04 -6.41060E+03  9.63931E+03  4.16392E+03 -1.18932E+02  6.27680E+03 -8.60558E+03 -6.77359E+02
 -8.18507E+03 -1.00013E+04 -1.14891E+03 -1.56951E+04  9.15141E+03 -1.67261E+04  2.09638E+04 -9.10771E+03
  2.41969E+04  2.74736E+03  1.77690E+04  1.50864E+04  2.74568E+03  1.94475E+04 -9.67608E+03  1.59962E+04
 -1.30386E+04  4.48226E+03 -6.59480E+03 -3.30715E+03  1.96628E+03 -5.07912E+03  8.34092E+03 -9.28572E+02
  7.26735E+03  7.39173E+03  1.48743E+03  1.30173E+04 -9.61620E+03  1.23405E+04 -1.61318E+04  2.69603E+03
 -1.11898E+04 -8.36811E+03  1.43352E+02 -1.39567E+04  8.97517E+03 -7.33396E+03  9.96230E+03  3.33781E+03
  2.45669E+03  1.03909E+04 -8.47706E+03  1.18071E+04 -1.43944E+04  5.28237E+03 -1.47898E+04 -5.62387E+03
 -8.53959E+03 -1.65095E+04  4.59690E+03 -1.89125E+04  1.57281E+04 -1.11499E+04  1.74382E+04  3.39426E+03
  1.03792E+04  1.35863E+04 -1.50549E+03  1.65320E+04 -1.20800E+04  9.09074E+03 -1.35097E+04 -1.47144E+03
 -1.15079E+04 -1.07035E+04 -2.00068E+03 -1.23939E+04  6.09046E+03 -1.01115E+04  8.33095E+03 -3.85913E+03
  5.07059E+03  2.70086E+03 -7.99550E+02  1.99726E+03 -9.93094E+02 -3.73972E+03  2.98235E+03 -8.00425E+03
  1.20078E+04 -4.69308E+03  1.68834E+04  2.06604E+03  1.62266E+04  1.18279E+04  1.05388E+04  2.19663E+04
 -5.00822E+03  2.50913E+04 -2.05182E+04  1.84907E+04 -2.70994E+04  3.27738E+03 -2.15941E+04 -9.39401E+03
 -1.06723E+04 -1.76124E+04 -5.97231E+02 -1.53517E+04  5.51372E+03 -8.76556E+03  4.95084E+03 -5.52399E+03
  4.28623E+03 -3.39572E+03  4.00667E+03 -4.24529E+03  6.38591E+03 -3.52066E+03  8.57646E+03 -1.78989E+03
  1.15293E+04  2.62510E+03  6.14167E+03  1.02138E+04 -2.36614E+03  1.17984E+04 -1.19214E+04  9.08101E+03
 -1.55609E+04 -1.06673E+03 -9.96196E+03 -1.06617E+04 -1.67665E+03 -1.69682E+04  8.70765E+03 -1.65090E+04
  1.76192E+04 -9.04698E+03  2.02001E+04  2.83530E+03  1.38645E+04  1.44872E+04  1.92334E+03  1.88252E+04
 -7.71793E+03  1.51846E+04 -1.10384E+04  5.41980E+03 -7.56508E+03 -1.76729E+03 -3.19470E+03 -2.50838E+03
 -1.79188E+03  3.18850E+02 -2.55252E+03  3.23214E+03 -6.37585E+03  3.07499E+03 -1.07825E+04 -1.62277E+03
 -8.12483E+03 -1.06545E+04 -2.46802E+02 -1.55479E+04  9.52876E+03 -1.44891E+04  1.54638E+04 -4.51390E+03
  1.55215E+04  7.61446E+03  7.30443E+03  1.42454E+04 -3.05137E+03  1.58732E+04 -1.13116E+04  9.49384E+03
 -1.46339E+04  2.79002E+02 -1.12809E+04 -9.84237E+03 -9.23881E+02 -1.32295E+04  6.87145E+03 -9.90660E+03
  9.83490E+03 -3.19334E+03  7.15402E+03  2.88744E+03  2.70967E+03  4.31086E+03  1.50584E+03  2.27759E+03
  2.56508E+03  1.61527E+03  3.83606E+03  1.92639E+03  4.70462E+03  5.37879E+03  3.62681E+03  8.70908E+03
 -3.10639E+03  1.28515E+04 -1.15087E+04  1.27150E+04 -1.64800E+04  3.31777E+03 -1.70392E+04 -7.21497E+03
 -8.37778E+03 -1.63110E+04  2.24253E+03 -1.75976E+04  1.03175E+04 -1.12866E+04  1.30984E+04 -3.03587E+03
  1.03048E+04  5.44170E+03  1.96365E+03  9.28000E+03 -4.65169E+03  6.22835E+03 -6.62835E+03 -1.48069E+03
 -3.55665E+03 -6.92145E+03  3.73535E+03 -7.58308E+03  6.96390E+03 -3.43257E+03  6.37865E+03  1.36422E+03
  3.96099E+03  3.37471E+03  1.19468E+03  2.54373E+03 -1.00121E+03  2.33908E+03  1.54109E+03 -6.95882E+02
  2.62439E+03 -1.14708E+03  6.41701E+03  2.70000E+03  3.96211E+03  8.73749E+03 -1.51497E+03  1.14935E+04
 -7.78707E+03  7.61323E+03 -1.02919E+04  2.32821E+03 -9.51089E+03 -3.35927E+03 -3.87282E+03 -6.46323E+03
  1.16418E+03 -6.16137E+03  4.46056E+03 -3.10738E+03  3.56262E+03  3.00917E+03 -1.82186E+03  5.57419E+03
 -6.47856E+03  3.37282E+03 -8.16009E+03 -3.98442E+03 -4.45699E+03 -9.03128E+03  1.14138E+03 -9.25999E+03
  5.21561E+03 -5.13229E+03  6.60890E+03 -8.84180E+02  5.55222E+03  2.38638E+03  9.31922E+02  4.85342E+03
 -3.29790E+03  1.23259E+03 -3.99430E+03 -3.55317E+03  1.25150E+03 -7.18798E+03  8.36302E+03 -5.85057E+03
  1.02257E+04  9.02568E+02  1.02936E+04  7.21399E+03  3.51567E+03  1.13133E+04 -4.05143E+03  1.03201E+04
 -8.77262E+03  4.76292E+03 -9.50818E+03 -1.73921E+03 -5.38687E+03 -7.22377E+03  1.40379E+03 -6.71925E+03
  6.70293E+03 -3.20198E+03  5.73071E+03  2.78852E+03  1.48725E+03  6.00278E+03 -1.25786E+03  5.02153E+03
 -2.56126E+03  3.48047E+03 -2.52008E+03  9.16729E+02 -1.36669E+03  1.37047E+03 -1.57280E+03  2.34452E+03
 -2.91182E+03  4.47497E+03 -7.40842E+03  3.72803E+03 -1.08958E+04  1.92848E+02 -1.25207E+04 -7.89712E+03
 -6.38367E+03 -1.45862E+04  2.88209E+03 -1.67414E+04  1.08392E+04 -1.27074E+04  1.59284E+04 -4.64420E+03
  1.48994E+04  3.09954E+03  9.31087E+03  1.07973E+04  1.23709E+03  1.17015E+04 -4.55354E+03  8.40684E+03
 -6.87154E+03  3.15719E+03 -3.94170E+03 -1.25835E+03 -1.58709E+03 -1.37973E+03 -5.03617E+02 -1.37485E+02
 -2.23065E+03  5.29478E+02 -2.27669E+03 -2.53283E+02 -1.42382E+03 -2.90243E+03  5.23557E+02 -4.21808E+03
  5.16027E+03 -3.60287E+03  7.40606E+03 -1.30858E+02  8.24880E+03  6.31584E+03  2.17233E+03  1.17904E+04
 -5.46619E+03  1.35022E+04 -1.22983E+04  7.81980E+03 -1.46530E+04 -1.15742E+03 -1.07584E+04 -8.89779E+03
 -4.34918E+03 -1.18975E+04  2.99788E+03 -1.13476E+04  7.82789E+03 -5.88064E+03  8.04991E+03  4.44338E+02
  4.13826E+03  4.34071E+03 -2.67378E+02  3.02841E+03 -1.91162E+03 -2.81936E+02  5.51144E+02 -2.97024E+03
  3.90329E+03 -1.44450E+03  4.51573E+03  1.23856E+03  3.91573E+03  4.65835E+03  1.24165E+02  6.24717E+03
 -5.24768E+03  5.48548E+03 -7.62358E+03  4.97967E+02 -6.87753E+03 -5.55862E+03 -1.47963E+03 -9.96085E+03
  5.59080E+03 -8.07171E+03  9.33860E+03 -2.60186E+03  9.20237E+03  2.47623E+03  5.60113E+03  6.95492E+03
  9.81532E+02  8.09113E+03 -2.83253E+03  6.36462E+03 -4.77913E+03  3.60153E+03 -4.14493E+03  4.84326E+02
 -2.13695E+03 -1.93668E+02 -2.18235E+03  1.15616E+03 -4.23684E+03  1.72846E+03 -6.23848E+03 -9.76879E+02
 -6.13910E+03 -4.22560E+03 -1.65514E+03 -8.32317E+03  3.65020E+03 -8.42860E+03  7.28368E+03 -4.01619E+03
  7.66827E+03  7.81566E+02  4.60688E+03  6.03530E+03 -8.85315E+02  8.14824E+03 -6.33102E+03  4.47666E+03
