 $NMID ID='MM_0lb_SNR800_17hz_g55_19.RAW', FMTDAT='(8E13.5)'
 TRAMP=1., VOLUME=1. $END
  3.09695E+05  2.16053E+01  3.37264E+05  2.50517E+05  8.44394E+04  3.37785E+05 -1.32393E+05  2.50776E+05
 -1.90084E+05  8.29819E+04 -1.11553E+05 -3.25505E+04  9.24249E+02 -5.05410E+04  5.40632E+04  1.89958E+00
  3.50593E+04  5.28292E+04 -1.70689E+04  7.54894E+04 -6.05470E+04  6.31988E+04 -8.39443E+04  3.18274E+04
 -8.05116E+04 -1.13776E+04 -5.70725E+04 -5.10227E+04 -1.50010E+04 -6.90470E+04  2.70491E+04 -4.52076E+04
  3.97476E+04  4.15287E+03  1.58034E+04  4.76238E+04 -3.43424E+04  4.69059E+04 -6.62312E+04 -5.76490E+02
 -5.28443E+04 -5.63997E+04 -6.86969E+03 -7.63322E+04  3.38622E+04 -5.42836E+04  4.76175E+04 -1.71255E+04
  4.26433E+04  1.11285E+04  3.13924E+04  2.52186E+04  1.58897E+04  2.92302E+04 -5.20562E+03  2.69222E+04
 -2.20878E+04  1.22683E+04 -1.86724E+04 -4.80952E+03  5.10728E+03 -7.45678E+03  2.21121E+04  1.18952E+04
  7.00703E+03  3.42615E+04 -3.13454E+04  3.50789E+04 -6.24085E+04  2.09087E+03 -5.65061E+04 -4.23460E+04
 -1.24450E+04 -6.25557E+04  3.90861E+04 -4.45256E+04  5.72792E+04 -1.77505E+03  3.29993E+04  3.18184E+04
 -6.37145E+03  3.49924E+04 -2.92705E+04  1.50543E+04 -2.93334E+04 -4.82555E+03 -1.60082E+04 -1.07354E+04
 -8.00348E+03 -1.25106E+04 -1.05151E+03 -1.71805E+04  7.14740E+03 -2.30032E+04  1.51992E+04 -1.35659E+04
  1.19080E+04  4.73323E+03 -7.58218E+03  1.29472E+04 -2.06214E+04 -3.57402E+03 -8.14239E+03 -3.24204E+04
  2.21405E+04 -4.27523E+04  4.69660E+04 -1.92345E+04  4.40068E+04  1.90875E+04  1.49295E+04  4.30447E+04
 -1.55314E+04  3.24293E+04 -2.46799E+04  1.44598E+03 -9.35034E+03 -2.69880E+04  2.06795E+04 -3.28169E+04
  3.99337E+04 -8.31641E+03  3.38631E+04  2.34315E+04  1.69389E+04  4.49581E+04 -8.18312E+03  4.81545E+04
 -3.04030E+04  3.19233E+04 -3.99676E+04  8.92214E+03 -4.12959E+04 -1.61562E+04 -2.22549E+04 -3.64741E+04
  7.11669E+03 -3.63271E+04  3.05091E+04 -1.38863E+04  2.82550E+04  1.08419E+04  3.54318E+03  1.85488E+04
 -1.32353E+04  7.76955E+03 -1.03603E+04 -7.63187E+03  5.89029E+03 -1.02022E+04  1.75926E+04  6.31945E+03
  1.30015E+04  2.18967E+04 -6.47455E+03  2.40699E+04 -2.17294E+04  1.03367E+04 -2.66100E+04 -5.71532E+03
 -1.86727E+04 -1.69656E+04 -7.10173E+03 -1.89779E+04  3.99028E+03 -1.73779E+04  1.42224E+04 -1.66039E+04
  2.41477E+04 -1.21244E+04  3.07755E+04  1.87017E+03  2.27509E+04  1.85272E+04  4.40802E+03  3.45992E+04
 -1.71594E+04  2.89601E+04 -2.70145E+04  9.93097E+03 -2.00763E+04 -1.02102E+04 -4.01313E+03 -1.36411E+04
  2.09751E+03 -3.32455E+03 -3.96061E+03  6.03151E+03 -1.46023E+04  5.44509E+03 -1.51177E+04 -5.92511E+03
 -9.48904E+03 -1.75262E+04  4.84667E+03 -2.13908E+04  1.40538E+04 -1.53036E+04  1.66065E+04 -1.49740E+03
  1.04707E+04  1.21364E+04 -1.27354E+03  1.73208E+04 -1.17943E+04  9.75274E+03 -1.73774E+04 -3.98173E+03
 -1.29520E+04 -1.54138E+04 -1.42982E+03 -2.08224E+04  9.73701E+03 -1.73071E+04  1.77223E+04 -8.29225E+03
  1.61865E+04  3.97191E+02  1.16606E+04  4.02815E+03  5.96272E+03  6.07411E+02  8.69112E+03 -1.75637E+03
  1.60310E+04  2.78527E+03  1.70825E+04  1.38571E+04  1.08899E+04  2.75237E+04 -2.95393E+03  3.03475E+04
 -1.78449E+04  2.41105E+04 -2.80313E+04  1.16731E+04 -2.94876E+04 -2.08182E+03 -2.45051E+04 -1.66790E+04
 -1.11397E+04 -2.38614E+04  7.99803E+03 -2.19714E+04  1.89954E+04 -1.16001E+04  1.74921E+04  4.20116E+03
  7.13078E+03  1.27662E+04 -7.88983E+03  1.14963E+04 -1.49043E+04  2.36506E+03 -1.13698E+04 -9.14036E+03
 -7.25930E+01 -1.41274E+04  7.22539E+03 -1.04406E+04  8.89697E+03 -1.03318E+03  1.78166E+03  5.37150E+03
 -6.35346E+03  2.07187E+03 -4.65756E+03 -5.10796E+03  7.08968E+01 -1.19254E+04  8.50384E+03 -1.20728E+04
  1.44571E+04 -6.00772E+03  1.47594E+04  2.82060E+03  1.29980E+04  1.12795E+04  6.18972E+03  1.72023E+04
 -2.54452E+03  1.90604E+04 -1.15233E+04  1.18873E+04 -1.32876E+04  2.91159E+03 -9.73600E+03 -2.58847E+03
 -5.08006E+03 -4.14692E+03 -9.60575E+02  1.27540E+03 -2.14163E+03  2.06400E+03 -4.42188E+03  4.09702E+03
 -9.42300E+03 -6.09702E+02 -9.48473E+03 -7.90364E+03 -3.87252E+03 -1.28957E+04  4.09163E+03 -1.01079E+04
  8.48159E+03 -4.37273E+03  5.82568E+03  2.74152E+03  2.68138E+02  3.71452E+03 -4.19091E+03 -6.30457E+01
 -3.92234E+03 -5.83960E+03 -8.12275E+02 -8.82365E+03  4.92416E+03 -9.26625E+03  1.16817E+04 -4.55425E+03
  1.37129E+04  6.80668E+02  1.03548E+04  7.38989E+03  1.93314E+03  1.06411E+04 -5.95463E+03  9.67143E+03
 -8.04379E+03  2.81135E+03 -4.09301E+03 -1.63481E+03  1.05540E+03 -2.26357E+03  5.40563E+03 -1.39106E+03
  4.41021E+03  3.84232E+03  1.06351E+03  7.21906E+03 -5.02689E+03  7.46521E+03 -9.13372E+03  2.17143E+03
 -5.92169E+03 -4.55564E+03  2.76078E+02 -7.71780E+03  4.34660E+03 -3.92518E+03  4.39789E+03  1.61452E+03
  5.51815E+02  4.29298E+03 -4.65379E+03  5.75898E+03 -6.07397E+03  2.85244E+03 -6.06907E+03 -1.67576E+03
 -3.89157E+03 -7.59661E+03  1.32916E+03 -9.03439E+03  7.79072E+03 -5.45677E+03  7.98149E+03  1.36630E+03
  5.80213E+03  6.48032E+03 -2.02049E+02  8.34259E+03 -6.01291E+03  4.81153E+03 -6.28486E+03 -3.82822E+02
 -6.38531E+03 -5.68470E+03 -1.50045E+03 -5.98014E+03  3.28216E+03 -5.31862E+03  3.48353E+03 -2.92061E+03
  3.09557E+03  5.24313E+02  2.14476E+01  1.28981E+03  4.76514E+02 -8.67145E+02  3.57139E+02 -2.83840E+03
  5.09111E+03 -1.62603E+03  6.75808E+03  1.01027E+03  6.92878E+03  4.26310E+03  5.91200E+03  9.29717E+03
 -1.95521E+03  1.05116E+04 -9.41630E+03  8.17749E+03 -1.22212E+04  1.43608E+03 -9.67791E+03 -3.66592E+03
 -4.96976E+03 -7.68234E+03 -3.58923E+02 -6.42939E+03  2.27843E+03 -3.02513E+03  2.04462E+03 -2.23659E+03
  1.66989E+03 -2.02259E+03  2.70197E+03 -2.61924E+03  3.96852E+03 -1.85093E+03  4.03318E+03  7.04913E+01
  5.47080E+03  1.22223E+03  1.50718E+03  4.11160E+03 -1.59275E+03  4.09799E+03 -5.38350E+03  3.33942E+03
 -6.21280E+03 -9.14028E+02 -2.76748E+03 -4.33904E+03 -9.59829E+00 -6.58622E+03  3.80206E+03 -6.66140E+03
  6.77662E+03 -3.89768E+03  8.23584E+03  5.30914E+02  6.07758E+03  5.25736E+03  1.43536E+03  7.65480E+03
 -2.85496E+03  7.16091E+03 -4.23546E+03  2.14617E+03 -2.86826E+03 -9.72397E+02 -8.05276E+02 -5.71633E+02
 -6.21248E+02  5.44457E+02 -1.18603E+03  2.17040E+03 -3.06474E+03  1.13332E+03 -4.88933E+03 -2.65890E+02
 -2.36069E+03 -4.94088E+03  8.96756E+02 -5.82154E+03  3.42177E+03 -5.36753E+03  4.88615E+03 -1.57054E+03
  5.38997E+03  2.75411E+03  2.77865E+03  4.11740E+03 -1.07586E+03  5.63169E+03 -3.52579E+03  3.32750E+03
 -5.18546E+03  8.36643E+02 -4.30138E+03 -3.18279E+03 -4.05735E+02 -4.32213E+03  2.06127E+03 -3.12929E+03
  3.42371E+03 -1.77418E+03  2.08090E+03  5.92338E+02  5.92022E+02  1.71738E+03  1.20104E+03  6.64860E+02
  1.74576E+03  8.82010E+02  1.48269E+03  1.33898E+03  1.15726E+03  2.41483E+03  1.59152E+03  2.34240E+03
 -1.55223E+03  4.12323E+03 -3.33184E+03  5.26543E+03 -4.36878E+03  1.51257E+03 -5.13357E+03 -8.74308E+02
 -2.18991E+03 -4.82360E+03  8.55798E+02 -5.81378E+03  2.56051E+03 -3.76560E+03  3.71856E+03 -9.33737E+02
  3.34878E+03  2.31757E+03  2.78708E+02  2.86354E+03 -7.96899E+02  1.74900E+03 -1.33642E+03 -1.04140E+02
 -6.80970E+02 -2.23043E+03  1.42559E+03 -2.01623E+03  2.02242E+03 -1.24593E+03  1.71186E+03  1.77207E+02
  1.07818E+03  5.37232E+02  8.60980E+02  3.21535E+02 -2.61264E+02  7.23785E+02  1.93700E+03 -3.15361E+01
  3.94701E+02 -6.56844E+01  2.60184E+03  9.47843E+02  3.89650E+02  2.86196E+03 -7.41412E+01  3.36889E+03
 -2.04012E+03  1.64703E+03 -2.57669E+03  4.43456E+02 -3.04680E+03 -8.60718E+02 -3.56814E+02 -1.46045E+03
  2.83234E+02 -1.31001E+03  8.73932E+02 -7.90668E+02  7.69987E+02  1.19940E+03 -5.73156E+02  1.39121E+03
 -1.77855E+03  9.83876E+02 -1.60647E+03 -1.38282E+03 -9.11655E+02 -2.67470E+03  3.82072E+02 -2.15092E+03
  7.03787E+02 -1.16519E+03  1.18469E+03  4.83984E+01  1.87395E+03 -4.47471E+01  6.51324E+02  1.66459E+03
 -6.51457E+02  2.14524E+02 -1.18316E+03 -5.02217E+02  9.04203E+02 -1.21153E+03  2.28170E+03 -1.24733E+03
  1.98759E+03  2.58569E+02  3.31499E+03  1.25336E+03  1.24273E+03  2.19870E+03 -7.48998E+02  2.47851E+03
 -1.84763E+03  3.76838E+02 -2.08226E+03 -2.17472E+02 -1.15387E+03 -1.83826E+03  4.45793E+02 -1.03960E+03
  1.85739E+03 -6.10544E+02  1.19015E+03  6.11689E+02  4.12275E+02  1.61855E+03  2.99357E+02  1.43545E+03
 -4.05369E+02  1.24551E+03 -6.24682E+02 -5.46409E+01  1.78066E+01  5.92755E+02 -6.40346E+02  4.95892E+02
 -8.66826E+02  1.31748E+03 -2.18668E+03  3.76275E+02 -2.43169E+03  2.44409E+02 -2.98553E+03 -1.13839E+03
 -1.23011E+03 -3.15950E+03  6.97087E+02 -3.78143E+03  1.75648E+03 -2.94225E+03  3.42727E+03 -1.40154E+03
  2.99594E+03 -1.79575E+02  1.95556E+03  1.54620E+03 -5.25137E+02  2.06099E+03 -7.38554E+02  1.85980E+03
 -1.19957E+03  1.10556E+03 -7.63327E+02 -2.12654E+02 -5.36157E+02  2.28091E+02 -1.00631E+03  1.06713E+02
 -1.20965E+03 -6.65023E+01 -1.20861E+03  6.87759E+01  2.02669E+02 -9.17346E+02 -1.90623E+02 -9.77534E+02
  1.50325E+03 -9.10475E+02  8.48168E+02  5.00759E+02  1.33944E+03  1.37761E+03 -4.06313E+02  2.06536E+03
 -1.33111E+03  3.11524E+03 -2.30749E+03  1.71478E+03 -2.56160E+03 -2.71037E+02 -1.74343E+03 -1.42214E+03
 -9.43463E+02 -1.69179E+03  5.56382E+02 -1.85436E+03  9.45923E+02 -9.35777E+02  1.20076E+03 -9.19123E+01
  6.32031E+02  5.02272E+02  2.89466E+01  5.97519E+02 -3.09501E+02 -5.64929E+01 -4.21432E+01 -3.18449E+02
  8.02073E+02  1.83440E+02  5.00029E+02  8.03314E+02 -4.59759E+01  5.63194E+02  6.40665E+02  6.02266E+02
 -8.01710E+02  8.75937E+02 -4.61419E+02  2.13129E+02 -8.93268E+02 -6.65596E+02 -2.38490E+02 -1.39363E+03
  8.80124E+02 -1.46625E+03  9.71538E+02 -3.02961E+02  1.49744E+03 -5.44596E+02  6.03105E+02  7.51787E+02
  9.25618E+02  9.94601E+02 -1.97287E+02  9.07163E+02 -6.69763E+02  5.75124E+02 -7.80934E+02  2.38517E+02
 -2.75456E+02  1.41273E+02 -2.60958E+02  6.25908E+01 -8.12017E+02  1.89028E+02 -9.40035E+02 -2.32890E+02
 -1.18342E+03 -1.39841E+02 -7.07815E+02 -9.67750E+02  7.06483E+02 -1.74401E+03  9.70254E+02 -4.78202E+02
  9.99457E+02  4.88724E+02  5.76480E+01  4.92116E+02  2.74176E+02  1.28467E+03 -7.06612E+02  8.80563E+02
