 $NMID ID='MM_0lb_SNR800_10hz_g45_89.RAW', FMTDAT='(8E13.5)'
 TRAMP=1., VOLUME=1. $END
  3.09759E+05  5.12873E+02  3.38167E+05  2.50658E+05  8.49852E+04  3.38371E+05 -1.32777E+05  2.51829E+05
 -1.90724E+05  8.34452E+04 -1.12216E+05 -3.24743E+04  5.25798E+02 -5.02057E+04  5.37725E+04 -3.57047E+02
  3.53759E+04  5.32063E+04 -1.69884E+04  7.56137E+04 -6.13176E+04  6.42083E+04 -8.52908E+04  3.25863E+04
 -8.23892E+04 -1.17435E+04 -5.75853E+04 -5.21653E+04 -1.51306E+04 -7.05188E+04  2.77980E+04 -4.63664E+04
  4.03839E+04  3.71833E+03  1.64827E+04  4.86117E+04 -3.43664E+04  4.79133E+04 -6.79564E+04  1.62055E+02
 -5.41212E+04 -5.75511E+04 -7.27248E+03 -7.81691E+04  3.41476E+04 -5.67160E+04  4.93634E+04 -1.77646E+04
  4.47756E+04  1.10814E+04  3.25532E+04  2.62510E+04  1.58705E+04  3.04238E+04 -5.40649E+03  2.75458E+04
 -2.22642E+04  1.20885E+04 -1.86269E+04 -5.70155E+03  6.80210E+03 -7.18193E+03  2.28587E+04  1.32212E+04
  7.02312E+03  3.67215E+04 -3.35940E+04  3.69099E+04 -6.48554E+04  1.91249E+03 -5.81074E+04 -4.38077E+04
 -1.27374E+04 -6.48119E+04  4.08831E+04 -4.69975E+04  6.00961E+04 -2.50635E+03  3.55509E+04  3.37685E+04
 -5.96381E+03  3.83704E+04 -3.14645E+04  1.78950E+04 -3.25228E+04 -4.18730E+03 -1.82163E+04 -1.18475E+04
 -8.72132E+03 -1.45244E+04 -6.95614E+02 -1.94874E+04  8.38416E+03 -2.34400E+04  1.58994E+04 -1.30652E+04
  1.03507E+04  6.11521E+03 -9.43623E+03  1.30371E+04 -2.29388E+04 -5.89107E+03 -8.44405E+03 -3.62143E+04
  2.44697E+04 -4.57284E+04  5.08792E+04 -2.03347E+04  4.75714E+04  2.03988E+04  1.64538E+04  4.64637E+04
 -1.64034E+04  3.52780E+04 -2.70549E+04  2.44662E+03 -1.13396E+04 -2.89243E+04  2.12174E+04 -3.57745E+04
  4.35867E+04 -1.04920E+04  3.87659E+04  2.45071E+04  2.07987E+04  4.99946E+04 -8.45240E+03  5.42249E+04
 -3.41956E+04  3.67774E+04 -4.58000E+04  1.04960E+04 -4.57551E+04 -1.81991E+04 -2.51367E+04 -4.06269E+04
  7.60096E+03 -4.08841E+04  3.31315E+04 -1.66628E+04  3.15439E+04  1.11023E+04  5.13328E+03  2.03863E+04
 -1.33560E+04  9.40312E+03 -1.08641E+04 -7.88405E+03  5.73575E+03 -1.10947E+04  1.86633E+04  5.57160E+03
  1.43844E+04  2.26612E+04 -5.40743E+03  2.62329E+04 -2.31770E+04  1.29206E+04 -3.05322E+04 -3.60502E+03
 -2.40123E+04 -1.84204E+04 -1.04217E+04 -2.34512E+04  4.09386E+03 -2.33816E+04  1.85988E+04 -2.12649E+04
  2.98836E+04 -1.39972E+04  3.65372E+04  4.39556E+03  2.60985E+04  2.27817E+04  4.46404E+03  3.98047E+04
 -1.89159E+04  3.30977E+04 -2.95861E+04  1.16709E+04 -2.20937E+04 -1.04289E+04 -4.90328E+03 -1.30610E+04
  1.20157E+03 -1.60275E+03 -6.77060E+03  7.60157E+03 -1.88055E+04  5.26953E+03 -1.91103E+04 -8.52157E+03
 -1.09172E+04 -2.20033E+04  5.95409E+03 -2.62669E+04  1.76838E+04 -1.85732E+04  2.12871E+04 -1.98683E+03
  1.38633E+04  1.51531E+04 -1.33593E+03  2.19415E+04 -1.58812E+04  1.28623E+04 -2.22089E+04 -4.50599E+03
 -1.61510E+04 -2.00825E+04 -2.21723E+03 -2.67843E+04  1.16798E+04 -2.21387E+04  2.20112E+04 -1.11977E+04
  2.05775E+04 -9.48788E+01  1.47864E+04  4.94096E+03  8.22896E+03  1.16299E+03  1.15514E+04 -1.80197E+03
  2.05532E+04  2.81294E+03  2.36825E+04  1.73928E+04  1.61072E+04  3.54088E+04 -2.61603E+03  4.11187E+04
 -2.34169E+04  3.41407E+04 -3.89308E+04  1.72830E+04 -4.11728E+04 -2.76623E+03 -3.37564E+04 -2.43066E+04
 -1.32844E+04 -3.44551E+04  1.22705E+04 -3.01848E+04  2.56581E+04 -1.48789E+04  2.28055E+04  6.89257E+03
  7.71656E+03  1.75813E+04 -1.05111E+04  1.48281E+04 -1.93771E+04  2.61318E+03 -1.45390E+04 -1.17015E+04
 -5.30692E+02 -1.84858E+04  9.98921E+03 -1.33872E+04  1.21111E+04 -9.87524E+02  2.99926E+03  7.99416E+03
 -8.58004E+03  3.89716E+03 -8.08517E+03 -6.29558E+03 -1.59226E+03 -1.68313E+04  1.07958E+04 -1.82949E+04
  2.12634E+04 -9.91075E+03  2.32412E+04  3.29312E+03  2.09052E+04  1.71422E+04  9.58690E+03  2.64300E+04
 -5.12515E+03  2.86067E+04 -1.84371E+04  1.77633E+04 -2.03790E+04  3.72660E+03 -1.42069E+04 -4.91715E+03
 -6.17926E+03 -6.84065E+03 -6.49940E+02  1.67293E+02 -3.12584E+03  3.20721E+03 -6.67086E+03  4.76480E+03
 -1.31320E+04 -6.68596E+02 -1.40000E+04 -1.09328E+04 -5.28106E+03 -1.82253E+04  6.17429E+03 -1.44451E+04
  1.15497E+04 -5.91218E+03  8.41095E+03  3.90216E+03 -1.03053E+02  5.86944E+03 -7.32503E+03 -1.69193E+02
 -6.91888E+03 -9.54055E+03 -1.04062E+03 -1.39322E+04  7.99861E+03 -1.46691E+04  1.82997E+04 -7.86410E+03
  2.13048E+04  2.20441E+03  1.54985E+04  1.27052E+04  2.90602E+03  1.72732E+04 -8.77459E+03  1.43136E+04
 -1.13138E+04  3.94791E+03 -5.92032E+03 -2.92548E+03  2.07043E+03 -4.14905E+03  7.79596E+03 -5.18835E+02
  6.98448E+03  6.44059E+03  1.29691E+03  1.18038E+04 -8.53221E+03  1.09372E+04 -1.43282E+04  2.42257E+03
 -1.01550E+04 -7.44864E+03  1.95205E+02 -1.22640E+04  7.83382E+03 -6.33020E+03  7.85522E+03  2.86443E+03
  1.93353E+03  8.69220E+03 -7.59747E+03  1.02678E+04 -1.18951E+04  4.77260E+03 -1.21744E+04 -4.19936E+03
 -7.15923E+03 -1.40311E+04  3.06700E+03 -1.62526E+04  1.35478E+04 -9.66316E+03  1.48923E+04  2.82276E+03
  9.19885E+03  1.16362E+04 -1.43419E+03  1.43452E+04 -1.05102E+04  7.83440E+03 -1.11661E+04 -1.12831E+03
 -1.01045E+04 -9.57824E+03 -1.52485E+03 -1.05728E+04  5.63146E+03 -8.92230E+03  6.99986E+03 -3.48727E+03
  4.56714E+03  1.69666E+03 -9.81803E+02  1.77749E+03 -7.67145E+02 -3.07392E+03  2.03547E+03 -6.28607E+03
  1.00210E+04 -4.00025E+03  1.40536E+04  1.42642E+03  1.37165E+04  9.68456E+03  9.33571E+03  1.82498E+04
 -4.29549E+03  2.11766E+04 -1.74938E+04  1.56922E+04 -2.34161E+04  3.24122E+03 -1.83012E+04 -8.05047E+03
 -8.90443E+03 -1.48484E+04 -7.68767E+02 -1.28000E+04  4.50566E+03 -7.07985E+03  4.31826E+03 -4.70789E+03
  3.51232E+03 -2.86334E+03  3.45366E+03 -3.64091E+03  5.24064E+03 -2.98688E+03  7.24173E+03 -8.71721E+02
  9.47352E+03  2.24936E+03  4.85324E+03  8.00526E+03 -1.91389E+03  9.71495E+03 -9.83415E+03  7.59520E+03
 -1.26920E+04 -1.22683E+03 -8.01771E+03 -8.71944E+03 -7.30697E+02 -1.37221E+04  7.47181E+03 -1.40293E+04
  1.43232E+04 -7.31918E+03  1.72669E+04  2.43325E+03  1.16686E+04  1.18572E+04  1.90877E+03  1.58163E+04
 -6.29833E+03  1.31001E+04 -8.96780E+03  4.43962E+03 -6.08927E+03 -1.37318E+03 -2.79957E+03 -2.16419E+03
 -1.11383E+03 -1.00934E+02 -2.01738E+03  2.94291E+03 -5.44457E+03  2.23089E+03 -8.83124E+03 -9.31469E+02
 -5.74394E+03 -8.83012E+03 -2.92673E+02 -1.25039E+04  7.97480E+03 -1.20514E+04  1.28712E+04 -3.86691E+03
  1.22422E+04  6.01247E+03  5.85151E+03  1.15575E+04 -2.66541E+03  1.27132E+04 -8.94795E+03  8.04830E+03
 -1.19301E+04  5.13570E+02 -9.31534E+03 -7.70011E+03 -1.38425E+03 -1.07535E+04  5.20892E+03 -8.08769E+03
  7.81805E+03 -2.60825E+03  5.34062E+03  2.03151E+03  1.99545E+03  4.07450E+03  1.25990E+03  1.79867E+03
  2.86738E+03  4.61349E+02  2.81656E+03  1.65907E+03  3.93308E+03  4.41465E+03  3.58404E+03  6.53805E+03
 -2.54933E+03  9.86783E+03 -8.80011E+03  1.02219E+04 -1.27139E+04  2.55231E+03 -1.33192E+04 -5.35776E+03
 -6.21548E+03 -1.22258E+04  1.92183E+03 -1.40124E+04  7.76659E+03 -9.11895E+03  1.05566E+04 -2.56805E+03
  8.11947E+03  4.89645E+03  1.41460E+03  7.36439E+03 -3.22880E+03  4.49929E+03 -5.24574E+03 -1.12995E+03
 -2.50098E+03 -5.62074E+03  2.91787E+03 -5.78635E+03  5.29569E+03 -2.99826E+03  5.00424E+03  1.21602E+03
  2.85636E+03  2.57854E+03  1.20646E+03  1.92999E+03 -9.59249E+02  2.09157E+03  1.14467E+03 -4.43971E+02
  1.64151E+03 -8.10795E+02  5.60039E+03  1.89003E+03  2.73150E+03  6.58676E+03 -1.09185E+03  8.71038E+03
 -6.06333E+03  5.91232E+03 -8.03698E+03  2.04213E+03 -7.32368E+03 -3.10049E+03 -3.26069E+03 -4.60757E+03
  1.02225E+03 -4.92186E+03  3.42865E+03 -2.18982E+03  2.67272E+03  2.21147E+03 -1.43762E+03  4.01982E+03
 -5.15201E+03  2.30151E+03 -5.98079E+03 -3.46469E+03 -3.23192E+03 -6.91076E+03  5.93145E+02 -7.02453E+03
  4.24879E+03 -4.18184E+03  4.97631E+03 -3.69949E+02  4.14300E+03  1.61507E+03  6.54468E+02  4.19695E+03
 -2.53201E+03  9.88746E+02 -3.15049E+03 -2.56534E+03  1.40168E+03 -5.47838E+03  5.73150E+03 -4.58740E+03
  8.18779E+03  2.35260E+02  7.85115E+03  5.19614E+03  2.60529E+03  8.22378E+03 -2.99135E+03  8.00144E+03
 -6.82424E+03  3.27931E+03 -7.03195E+03 -6.74093E+02 -3.91377E+03 -5.66198E+03  1.24012E+03 -4.92337E+03
  5.65439E+03 -2.78812E+03  4.58153E+03  2.40716E+03  1.54609E+03  4.18469E+03 -7.98888E+02  3.84896E+03
 -2.43217E+03  2.24466E+03 -1.76232E+03  9.40429E+02 -1.13545E+03  9.58007E+02 -1.45035E+03  1.97356E+03
 -1.90599E+03  3.46372E+03 -5.57222E+03  3.03967E+03 -8.47535E+03  1.49812E+02 -9.19625E+03 -5.09519E+03
 -5.07408E+03 -1.09293E+04  2.31177E+03 -1.26613E+04  7.51942E+03 -9.80151E+03  1.18111E+04 -3.84272E+03
  1.07776E+04  1.94275E+03  6.60405E+03  7.43808E+03  5.99161E+02  8.81365E+03 -3.33820E+03  6.40262E+03
 -4.56750E+03  2.34380E+03 -2.93847E+03 -1.04322E+03 -9.31129E+02 -8.38568E+02 -3.85112E+02 -1.50091E+02
 -1.32738E+03  3.52678E+02 -2.27371E+03 -1.08507E+02 -7.68464E+02 -2.07066E+03 -1.96207E+00 -3.49047E+03
  4.17851E+03 -2.96431E+03  4.82888E+03 -7.33505E+00  5.99891E+03  4.76145E+03  1.44360E+03  8.45201E+03
 -4.21306E+03  9.64153E+03 -8.93671E+03  5.33620E+03 -1.05067E+04 -9.04699E+02 -7.64285E+03 -6.27489E+03
 -3.71034E+03 -8.60091E+03  2.39765E+03 -7.65331E+03  5.45576E+03 -4.23506E+03  5.65376E+03  2.88313E+02
  2.90485E+03  2.78110E+03  1.35253E+02  2.44823E+03 -1.70005E+03 -3.74905E+02  4.34740E+02 -1.81826E+03
  2.70241E+03 -9.49773E+02  3.27404E+03  1.22254E+03  2.24400E+03  2.90884E+03  2.13381E+02  3.97906E+03
 -3.48350E+03  3.86163E+03 -5.38386E+03  5.70872E+02 -5.04971E+03 -3.86854E+03 -7.79459E+02 -6.83686E+03
  4.11567E+03 -5.86293E+03  6.60203E+03 -1.75492E+03  6.28812E+03  1.28370E+03  3.57020E+03  5.50986E+03
  1.05900E+03  5.75880E+03 -2.13184E+03  4.48778E+03 -3.90369E+03  2.56387E+03 -2.96764E+03  2.60309E+02
 -1.70551E+03 -3.60718E+02 -1.66350E+03  7.11954E+02 -2.42284E+03  8.37201E+02 -4.15420E+03 -9.01437E+02
 -4.53147E+03 -2.86498E+03 -1.33506E+03 -5.69875E+03  3.01310E+03 -6.10970E+03  4.99297E+03 -2.81253E+03
  5.28365E+03  7.51028E+02  2.73731E+03  3.79143E+03 -2.37025E+02  5.75873E+03 -4.27975E+03  3.12798E+03
