 $NMID ID='MM_0lb_SNR800_17hz_g40_93.RAW', FMTDAT='(8E13.5)'
 TRAMP=1., VOLUME=1. $END
  3.09691E+05  3.16923E+02  3.37430E+05  2.50330E+05  8.44817E+04  3.37526E+05 -1.32529E+05  2.50207E+05
 -1.89857E+05  8.26887E+04 -1.11386E+05 -3.31306E+04  1.56344E+03 -5.03060E+04  5.39662E+04  1.91653E+02
  3.50693E+04  5.29986E+04 -1.69410E+04  7.52718E+04 -6.02419E+04  6.28550E+04 -8.30317E+04  3.14915E+04
 -7.95197E+04 -1.10849E+04 -5.61074E+04 -5.03512E+04 -1.48784E+04 -6.83376E+04  2.66915E+04 -4.47143E+04
  3.91181E+04  3.48710E+03  1.55339E+04  4.72486E+04 -3.39293E+04  4.62854E+04 -6.54102E+04 -4.27630E+02
 -5.20237E+04 -5.62386E+04 -6.23577E+03 -7.53166E+04  3.32488E+04 -5.31853E+04  4.64979E+04 -1.65425E+04
  4.19548E+04  1.10859E+04  3.09141E+04  2.42372E+04  1.60214E+04  2.83967E+04 -4.87983E+03  2.69618E+04
 -2.18218E+04  1.27878E+04 -1.90493E+04 -4.51483E+03  3.83432E+03 -7.57381E+03  2.12030E+04  1.11883E+04
  7.33909E+03  3.35584E+04 -3.03080E+04  3.39554E+04 -6.12753E+04  2.28124E+03 -5.53568E+04 -4.14654E+04
 -1.23314E+04 -6.09463E+04  3.82914E+04 -4.33410E+04  5.57603E+04 -2.02086E+03  3.18530E+04  3.07807E+04
 -6.14667E+03  3.34287E+04 -2.85441E+04  1.36429E+04 -2.79234E+04 -5.27659E+03 -1.45183E+04 -1.00336E+04
 -7.17275E+03 -1.16764E+04 -9.02083E+02 -1.66251E+04  6.73530E+03 -2.24994E+04  1.50657E+04 -1.37781E+04
  1.22104E+04  4.30846E+03 -6.59563E+03  1.28402E+04 -1.93627E+04 -2.65986E+03 -7.93460E+03 -3.08931E+04
  2.10118E+04 -4.08746E+04  4.50330E+04 -1.86266E+04  4.19939E+04  1.81805E+04  1.43930E+04  4.19305E+04
 -1.54878E+04  3.16068E+04 -2.36344E+04  1.28192E+03 -8.47582E+03 -2.64549E+04  2.04454E+04 -3.14965E+04
  3.83630E+04 -7.15429E+03  3.16701E+04  2.27918E+04  1.56182E+04  4.28766E+04 -7.49787E+03  4.56759E+04
 -2.88843E+04  3.03158E+04 -3.76176E+04  8.45797E+03 -3.90436E+04 -1.53576E+04 -2.13271E+04 -3.48367E+04
  7.01616E+03 -3.43561E+04  2.94019E+04 -1.28038E+04  2.70553E+04  1.07730E+04  3.15845E+03  1.78086E+04
 -1.33594E+04  7.42767E+03 -9.55042E+03 -7.54332E+03  5.97684E+03 -9.89305E+03  1.73638E+04  6.21598E+03
  1.27193E+04  2.14203E+04 -6.74791E+03  2.33947E+04 -2.18399E+04  9.49251E+03 -2.54265E+04 -6.40867E+03
 -1.71337E+04 -1.67602E+04 -5.88083E+03 -1.76404E+04  3.74164E+03 -1.53394E+04  1.30683E+04 -1.49078E+04
  2.19578E+04 -1.16483E+04  2.87183E+04  1.14308E+03  2.16587E+04  1.64995E+04  4.33476E+03  3.28269E+04
 -1.59465E+04  2.78071E+04 -2.60320E+04  9.39640E+03 -1.97716E+04 -1.06093E+04 -4.12638E+03 -1.40417E+04
  2.58483E+03 -4.02149E+03 -2.93610E+03  5.35220E+03 -1.36541E+04  5.24735E+03 -1.39018E+04 -5.24340E+03
 -9.09220E+03 -1.58907E+04  4.65487E+03 -1.98263E+04  1.29204E+04 -1.42813E+04  1.48739E+04 -1.43588E+03
  9.12855E+03  1.11116E+04 -1.07987E+03  1.64481E+04 -1.06199E+04  9.14341E+03 -1.59597E+04 -3.09723E+03
 -1.18339E+04 -1.44863E+04 -1.25872E+03 -1.96138E+04  9.09519E+03 -1.57485E+04  1.63088E+04 -7.75209E+03
  1.52627E+04  5.37834E+02  1.05603E+04  4.07192E+03  5.30815E+03  5.66834E+02  7.69777E+03 -1.26096E+03
  1.44464E+04  2.54967E+03  1.53774E+04  1.30958E+04  9.69787E+03  2.55867E+04 -3.03243E+03  2.75639E+04
 -1.65172E+04  2.13628E+04 -2.57548E+04  1.02829E+04 -2.62312E+04 -1.85073E+03 -2.22508E+04 -1.51908E+04
 -1.04044E+04 -2.12663E+04  7.34323E+03 -1.99498E+04  1.73443E+04 -1.12610E+04  1.62957E+04  3.89484E+03
  6.93380E+03  1.16024E+04 -7.29042E+03  1.09102E+04 -1.37957E+04  2.42079E+03 -1.06705E+04 -8.36688E+03
 -7.61317E+01 -1.30007E+04  6.35263E+03 -9.88541E+03  8.43422E+03 -1.38309E+03  1.59250E+03  5.36496E+03
 -5.87764E+03  1.21165E+03 -4.02702E+03 -4.43011E+03  4.65333E+02 -1.05964E+04  8.33409E+03 -1.08355E+04
  1.29329E+04 -5.28520E+03  1.29198E+04  2.71521E+03  1.08812E+04  1.01112E+04  5.21729E+03  1.49855E+04
 -1.97085E+03  1.68074E+04 -1.00778E+04  1.06846E+04 -1.18767E+04  2.91373E+03 -8.86237E+03 -1.98975E+03
 -4.66831E+03 -3.89468E+03 -7.99910E+02  1.61214E+03 -1.92672E+03  2.09203E+03 -3.91895E+03  3.88487E+03
 -8.69193E+03 -5.51938E+02 -9.19945E+03 -7.25525E+03 -3.61693E+03 -1.25283E+04  3.95409E+03 -8.62540E+03
  7.57123E+03 -3.73068E+03  5.68008E+03  2.36660E+03  5.86592E+02  3.07501E+03 -3.75288E+03 -9.13626E+01
 -3.49186E+03 -5.64452E+03 -5.92679E+02 -7.87012E+03  4.52768E+03 -8.71004E+03  1.04517E+04 -4.40784E+03
  1.24638E+04  5.15444E+02  9.37580E+03  6.64448E+03  2.03675E+03  9.39005E+03 -5.71637E+03  8.87046E+03
 -7.64379E+03  3.00530E+03 -3.71524E+03 -1.57495E+03  1.39732E+03 -1.91227E+03  5.04060E+03 -8.54907E+02
  4.21814E+03  3.64200E+03  1.17473E+03  6.69694E+03 -4.79378E+03  6.75809E+03 -8.58980E+03  1.96512E+03
 -4.87694E+03 -3.87334E+03  4.13640E+02 -7.20160E+03  4.08151E+03 -3.62217E+03  3.60902E+03  1.06195E+03
  7.54678E+02  3.66512E+03 -4.55279E+03  5.18154E+03 -5.83263E+03  2.52679E+03 -5.32487E+03 -1.69436E+03
 -3.30842E+03 -6.77997E+03  1.45093E+03 -8.00117E+03  6.64972E+03 -5.25800E+03  7.27418E+03  1.30226E+03
  5.13831E+03  5.89554E+03 -5.43560E+01  7.86617E+03 -5.40309E+03  4.36341E+03 -5.78943E+03 -6.37343E+02
 -6.04005E+03 -5.49600E+03 -1.44232E+03 -5.47501E+03  2.93309E+03 -4.92209E+03  3.01156E+03 -2.71402E+03
  3.05793E+03  3.40201E+02 -3.14132E+02  1.40116E+03  5.24436E+02 -9.14775E+02  1.48885E+02 -2.24412E+03
  4.31908E+03 -9.16161E+02  6.01162E+03  6.63187E+02  6.38373E+03  3.51920E+03  5.50103E+03  8.22168E+03
 -1.50747E+03  9.42538E+03 -8.59639E+03  7.74128E+03 -1.11593E+04  1.19853E+03 -8.71075E+03 -3.13941E+03
 -4.51228E+03 -7.15965E+03 -1.95531E+02 -6.04072E+03  2.39032E+03 -2.66056E+03  1.88137E+03 -2.37287E+03
  1.45803E+03 -1.59984E+03  2.12962E+03 -2.42770E+03  3.48115E+03 -1.62431E+03  3.64262E+03  1.91623E+02
  4.94787E+03  1.39345E+03  1.57708E+03  3.86034E+03 -1.64560E+03  3.18813E+03 -4.96312E+03  3.06134E+03
 -5.42755E+03 -1.29682E+03 -2.20844E+03 -3.79963E+03  1.37082E+02 -5.74831E+03  3.41968E+03 -5.74502E+03
  5.77596E+03 -3.50018E+03  7.66682E+03  2.98689E+02  5.43748E+03  4.84159E+03  1.28655E+03  6.73837E+03
 -2.40413E+03  6.37501E+03 -3.77957E+03  2.32254E+03 -2.25886E+03 -1.14121E+03 -7.85112E+02 -8.41700E+02
 -3.56976E+02  6.07412E+02 -8.67427E+02  2.03627E+03 -2.95271E+03  1.34815E+03 -4.67706E+03 -3.25535E+02
 -1.88196E+03 -4.60978E+03  5.74108E+02 -5.11246E+03  3.15222E+03 -4.85993E+03  4.34591E+03 -1.16252E+03
  4.81751E+03  2.75096E+03  1.91157E+03  3.86753E+03 -1.00513E+03  4.92542E+03 -3.27424E+03  3.07755E+03
 -4.22388E+03  6.74167E+02 -3.88980E+03 -3.02315E+03 -6.03870E+01 -4.30514E+03  1.95973E+03 -2.62026E+03
  3.31242E+03 -1.42316E+03  2.26746E+03  5.18736E+02  6.66125E+02  1.68636E+03  1.00615E+03  9.09779E+02
  1.62398E+03  4.39981E+02  1.81861E+03  1.13061E+03  1.39423E+03  2.52042E+03  1.62495E+03  2.05793E+03
 -1.44819E+03  3.33404E+03 -2.88876E+03  4.61271E+03 -3.80634E+03  1.14634E+03 -4.71077E+03 -9.12543E+02
 -2.07793E+03 -4.22296E+03  8.93613E+02 -5.56230E+03  2.47267E+03 -2.81834E+03  3.68269E+03 -1.26087E+03
  3.16533E+03  2.10066E+03  6.10333E+02  2.66815E+03 -9.81801E+02  1.73100E+03 -1.64646E+03 -1.47561E+02
 -8.70786E+02 -1.88492E+03  1.17063E+03 -2.05815E+03  1.71032E+03 -1.14382E+03  1.78235E+03  6.09934E+02
  1.00479E+03  5.98076E+02  9.87210E+02 -1.76072E+02 -2.10489E+02  1.11091E+03  1.62682E+03 -1.41368E+02
  1.95333E+02 -2.22702E+02  2.01889E+03  7.85354E+02  5.90011E+02  2.70959E+03 -1.83857E+02  3.23875E+03
 -2.17237E+03  1.56837E+03 -2.48401E+03  5.05818E+02 -2.72344E+03 -8.56549E+02 -4.63391E+02 -1.14099E+03
  5.69703E+02 -1.41566E+03  1.56867E+03 -8.38624E+02  8.33958E+02  1.41314E+03 -7.20231E+02  1.44741E+03
 -1.76514E+03  8.79924E+02 -1.33501E+03 -1.59636E+03 -1.02988E+03 -2.63572E+03  4.68451E+01 -1.94570E+03
  7.79606E+02 -8.02004E+02  1.05749E+03  1.98253E+02  1.56047E+03  8.86800E+01  7.22292E+01  1.28163E+03
 -5.73929E+02  3.99738E+02 -1.21510E+03 -3.42752E+02  5.56561E+02 -1.36876E+03  2.13965E+03 -1.18903E+03
  2.02086E+03  3.26606E+02  3.20984E+03  1.01986E+03  1.13475E+03  2.09434E+03 -4.24911E+02  2.22533E+03
 -1.67795E+03  4.94850E+02 -1.82864E+03 -1.47099E+02 -1.27080E+03 -1.93052E+03  2.73957E+02 -1.21247E+03
  1.55340E+03 -9.76098E+02  1.11328E+03  9.80828E+02  3.37017E+02  1.59153E+03  1.89730E+01  1.23959E+03
 -4.17565E+02  1.45595E+03 -4.17378E+02  3.49901E+02  5.07669E+01  5.48845E+02 -7.97356E+02  8.46931E+02
 -8.65341E+02  1.04525E+03 -2.19306E+03  4.75198E+02 -2.07059E+03  2.10396E+02 -2.84394E+03 -1.28684E+03
 -1.55619E+03 -2.77086E+03  4.91191E+02 -3.67934E+03  1.49297E+03 -3.12922E+03  3.46958E+03 -1.33048E+03
  3.19380E+03  4.68577E+01  1.59238E+03  2.11655E+03 -3.24335E+02  2.12702E+03 -8.19869E+02  1.67997E+03
 -1.60211E+03  9.24411E+02 -8.21223E+02 -4.66780E+02 -3.71678E+02  2.50163E+02 -7.03127E+02  4.50069E+01
 -1.13384E+03  9.69091E+01 -7.56732E+02  1.89025E+02  1.27276E+02 -8.65503E+02 -3.08055E+02 -1.34653E+03
  1.60271E+03 -6.70916E+02  8.11237E+02  2.45318E+02  1.36491E+03  1.44557E+03 -2.15224E+02  1.92198E+03
 -1.47051E+03  2.79375E+03 -2.36953E+03  1.56296E+03 -2.45384E+03 -1.76879E+02 -1.60938E+03 -1.49242E+03
 -1.08226E+03 -1.95903E+03 -1.55671E+02 -1.66305E+03  1.01424E+03 -5.41403E+02  9.25422E+02  1.69371E+02
  6.93488E+02  5.18577E+02  1.77025E+02  4.90649E+02 -4.85375E+02  3.95365E+01 -9.36084E+01 -4.97104E+02
  3.41829E+02 -1.65378E+02  3.93829E+02  3.03814E+02 -5.25881E+01  8.49839E+02  6.49569E+02  6.68009E+02
 -9.51546E+02  8.52919E+02 -9.58665E+02  4.12473E+02 -1.27960E+03 -8.09663E+02 -1.68117E+02 -1.59761E+03
  8.72178E+02 -1.10471E+03  1.20334E+03  5.62072E+00  1.46962E+03 -5.08838E+02  8.59726E+02  1.23211E+03
  5.51002E+02  7.94771E+02 -1.99249E+02  1.18774E+03 -5.25614E+02  4.87689E+02 -6.60451E+02  2.53892E+01
 -1.32376E+02 -1.54850E+02 -5.88550E+02  8.99747E+01 -7.26302E+02  1.83220E+02 -9.81932E+02 -4.67693E+02
 -1.39246E+03 -2.37529E+02 -2.49532E+02 -1.22209E+03  1.02028E+03 -1.70937E+03  8.75088E+02 -2.49000E+02
  1.20392E+03  4.16839E+02 -5.55981E+01  4.29856E+02 -5.97568E+01  1.19450E+03 -5.68489E+02  8.45651E+02
