 $NMID ID='MM_0lb_SNR800_17hz_g50_92.RAW', FMTDAT='(8E13.5)'
 TRAMP=1., VOLUME=1. $END
  3.10125E+05  7.04712E+02  3.37424E+05  2.50316E+05  8.47085E+04  3.37677E+05 -1.32559E+05  2.50683E+05
 -1.90044E+05  8.25218E+04 -1.11567E+05 -3.28215E+04  1.27068E+03 -5.04148E+04  5.37559E+04  6.20204E+01
  3.52412E+04  5.27809E+04 -1.67537E+04  7.51158E+04 -6.04836E+04  6.30726E+04 -8.33739E+04  3.17013E+04
 -8.02488E+04 -1.11763E+04 -5.67335E+04 -5.06586E+04 -1.49811E+04 -6.89155E+04  2.69476E+04 -4.50510E+04
  3.94202E+04  3.91225E+03  1.59002E+04  4.73974E+04 -3.41089E+04  4.66908E+04 -6.60383E+04 -3.80909E+02
 -5.26980E+04 -5.64027E+04 -6.47919E+03 -7.60518E+04  3.35331E+04 -5.38770E+04  4.69551E+04 -1.67699E+04
  4.23474E+04  1.09655E+04  3.11953E+04  2.49229E+04  1.59354E+04  2.87037E+04 -4.75209E+03  2.68834E+04
 -2.17411E+04  1.27655E+04 -1.89257E+04 -4.51678E+03  4.87941E+03 -7.69648E+03  2.16231E+04  1.14767E+04
  7.40260E+03  3.41968E+04 -3.14861E+04  3.46311E+04 -6.18953E+04  2.17410E+03 -5.63653E+04 -4.16757E+04
 -1.24448E+04 -6.18371E+04  3.88352E+04 -4.43851E+04  5.67879E+04 -2.25796E+03  3.29505E+04  3.13327E+04
 -6.12114E+03  3.45420E+04 -2.92977E+04  1.43920E+04 -2.89884E+04 -4.69470E+03 -1.52885E+04 -1.04865E+04
 -7.82445E+03 -1.24746E+04 -7.85427E+02 -1.75287E+04  6.72739E+03 -2.27376E+04  1.52041E+04 -1.36961E+04
  1.15421E+04  4.62752E+03 -6.89334E+03  1.31253E+04 -2.01351E+04 -3.50371E+03 -8.03298E+03 -3.15879E+04
  2.16055E+04 -4.16843E+04  4.63025E+04 -1.89491E+04  4.33475E+04  1.84410E+04  1.47843E+04  4.27828E+04
 -1.57300E+04  3.20638E+04 -2.43418E+04  1.43630E+03 -8.84381E+03 -2.71036E+04  2.08233E+04 -3.23837E+04
  3.95193E+04 -8.01729E+03  3.31424E+04  2.31688E+04  1.67222E+04  4.41967E+04 -7.55999E+03  4.75149E+04
 -3.00656E+04  3.16511E+04 -3.94590E+04  8.99992E+03 -4.03867E+04 -1.58482E+04 -2.21029E+04 -3.60228E+04
  7.15294E+03 -3.58213E+04  3.00161E+04 -1.33273E+04  2.79225E+04  1.06815E+04  3.35372E+03  1.81840E+04
 -1.33704E+04  8.02857E+03 -9.75876E+03 -7.66800E+03  5.76088E+03 -1.02475E+04  1.74336E+04  6.29074E+03
  1.28250E+04  2.17758E+04 -6.26393E+03  2.39135E+04 -2.18056E+04  1.02913E+04 -2.61811E+04 -6.01658E+03
 -1.86444E+04 -1.67902E+04 -7.17362E+03 -1.82432E+04  3.64023E+03 -1.67344E+04  1.38142E+04 -1.60313E+04
  2.33520E+04 -1.19722E+04  3.01988E+04  1.79297E+03  2.20961E+04  1.78721E+04  4.23547E+03  3.40954E+04
 -1.67136E+04  2.87137E+04 -2.67169E+04  9.70949E+03 -2.01223E+04 -1.05842E+04 -4.32670E+03 -1.35862E+04
  2.49506E+03 -3.55711E+03 -3.54496E+03  5.90395E+03 -1.42153E+04  5.35496E+03 -1.42341E+04 -5.96298E+03
 -9.05555E+03 -1.70918E+04  4.87890E+03 -2.08305E+04  1.38079E+04 -1.48477E+04  1.60028E+04 -1.56997E+03
  9.84761E+03  1.13069E+04 -8.21197E+02  1.70248E+04 -1.13143E+04  9.46757E+03 -1.65711E+04 -3.64369E+03
 -1.23266E+04 -1.52050E+04 -1.45706E+03 -2.05394E+04  9.19962E+03 -1.65952E+04  1.71684E+04 -8.03408E+03
  1.57848E+04  5.32127E+02  1.14289E+04  4.22335E+03  5.75169E+03  4.11418E+02  8.46570E+03 -1.39718E+03
  1.55154E+04  2.55075E+03  1.63556E+04  1.35746E+04  1.03384E+04  2.67582E+04 -3.08073E+03  2.93251E+04
 -1.72804E+04  2.29024E+04 -2.70529E+04  1.11214E+04 -2.81038E+04 -1.94334E+03 -2.35492E+04 -1.60369E+04
 -1.08351E+04 -2.30930E+04  7.87209E+03 -2.11237E+04  1.83404E+04 -1.17145E+04  1.68525E+04  4.00517E+03
  6.75761E+03  1.24659E+04 -7.85301E+03  1.10529E+04 -1.43326E+04  2.54122E+03 -1.10633E+04 -8.93002E+03
 -7.59478E+01 -1.36213E+04  6.72464E+03 -1.00266E+04  8.93058E+03 -1.30370E+03  1.77606E+03  5.43204E+03
 -6.28243E+03  1.81935E+03 -4.42453E+03 -4.96635E+03  1.92509E+02 -1.13202E+04  8.28905E+03 -1.13937E+04
  1.36951E+04 -5.57126E+03  1.40903E+04  2.52616E+03  1.21257E+04  1.09584E+04  5.67483E+03  1.61556E+04
 -1.95759E+03  1.80538E+04 -1.10288E+04  1.14706E+04 -1.29163E+04  3.05113E+03 -9.35316E+03 -2.32749E+03
 -4.60659E+03 -3.63377E+03 -5.86890E+02  1.15848E+03 -1.70196E+03  2.16366E+03 -4.17137E+03  3.74261E+03
 -8.90145E+03 -5.08287E+02 -9.78245E+03 -7.64727E+03 -3.87491E+03 -1.26208E+04  3.82721E+03 -9.30328E+03
  7.87544E+03 -4.31473E+03  5.72577E+03  2.28117E+03  5.79090E+02  3.35491E+03 -4.13552E+03  1.09438E+02
 -3.71667E+03 -5.72234E+03 -9.91792E+02 -8.34531E+03  4.66822E+03 -8.98687E+03  1.15113E+04 -4.51995E+03
  1.31262E+04  7.54754E+02  9.90265E+03  7.44579E+03  2.01515E+03  1.01421E+04 -5.89365E+03  9.66200E+03
 -7.77105E+03  2.87816E+03 -3.94630E+03 -1.76063E+03  1.49856E+03 -2.38360E+03  5.39039E+03 -1.00421E+03
  4.84828E+03  3.88703E+03  8.19256E+02  6.91463E+03 -5.03348E+03  7.11326E+03 -9.18523E+03  1.86614E+03
 -5.41864E+03 -4.26047E+03  5.21962E+02 -7.30243E+03  4.12580E+03 -3.67374E+03  4.02853E+03  1.22118E+03
  7.09668E+02  4.15097E+03 -4.46313E+03  5.36036E+03 -5.66401E+03  2.61522E+03 -5.69929E+03 -1.42967E+03
 -3.39245E+03 -7.19377E+03  1.44833E+03 -8.22896E+03  7.24507E+03 -5.68705E+03  7.63888E+03  1.33225E+03
  5.27220E+03  6.03153E+03  8.96120E+01  8.24975E+03 -5.68971E+03  4.85034E+03 -6.00745E+03 -5.66876E+02
 -6.26130E+03 -5.77701E+03 -1.60702E+03 -5.76709E+03  3.06658E+03 -5.32520E+03  3.12201E+03 -3.00282E+03
  2.99551E+03  2.38309E+02 -2.77324E+02  1.36482E+03  3.88454E+02 -5.86719E+02  5.00122E+02 -2.35908E+03
  4.62037E+03 -1.18716E+03  6.55686E+03  1.01177E+03  7.04087E+03  3.93937E+03  6.11217E+03  8.63106E+03
 -1.63606E+03  1.04067E+04 -8.96970E+03  7.66156E+03 -1.16703E+04  1.43168E+03 -9.45006E+03 -3.28881E+03
 -4.87895E+03 -7.53986E+03 -7.52734E+02 -6.00873E+03  2.46351E+03 -2.78452E+03  2.19506E+03 -2.25139E+03
  1.45916E+03 -1.42850E+03  2.45244E+03 -2.75520E+03  3.86394E+03 -1.58689E+03  4.29728E+03  1.52508E+02
  5.10613E+03  1.49544E+03  1.47537E+03  4.12345E+03 -1.66641E+03  3.97081E+03 -5.33341E+03  3.27828E+03
 -5.78112E+03 -9.86741E+02 -2.71395E+03 -4.31285E+03 -1.54130E+02 -6.00923E+03  3.80256E+03 -6.68654E+03
  6.00653E+03 -4.12893E+03  8.22643E+03  5.03303E+02  5.66752E+03  5.05803E+03  1.12581E+03  7.02637E+03
 -2.59442E+03  6.82378E+03 -4.12637E+03  2.30906E+03 -2.11801E+03 -1.09606E+03 -5.64166E+02 -9.47983E+02
 -2.79944E+02  4.21435E+02 -1.07460E+03  1.83158E+03 -3.04117E+03  1.30396E+03 -4.67534E+03 -4.55112E+02
 -1.93672E+03 -4.65188E+03  9.16405E+02 -5.95765E+03  3.42577E+03 -5.04251E+03  4.47973E+03 -1.49792E+03
  5.02308E+03  2.99590E+03  2.25877E+03  4.20737E+03 -1.13655E+03  5.32286E+03 -3.33774E+03  3.07388E+03
 -5.11402E+03  6.84661E+02 -4.13539E+03 -3.32387E+03 -3.14573E+01 -3.96392E+03  2.18918E+03 -3.17861E+03
  3.60664E+03 -1.39688E+03  2.47345E+03  4.36936E+02  6.81568E+02  1.87734E+03  6.87951E+02  6.40191E+02
  1.77257E+03  4.84899E+02  1.41181E+03  8.37755E+02  1.48588E+03  2.40086E+03  1.53765E+03  2.24560E+03
 -1.43163E+03  3.57733E+03 -3.10377E+03  4.74471E+03 -4.14869E+03  1.22219E+03 -5.25243E+03 -5.10481E+02
 -2.29386E+03 -4.64987E+03  8.09445E+02 -6.01064E+03  2.63919E+03 -3.16638E+03  4.04693E+03 -1.06836E+03
  3.25490E+03  2.17990E+03  8.39989E+02  2.51210E+03 -1.15266E+03  1.71478E+03 -1.54123E+03 -4.88548E+02
 -5.47048E+02 -1.78525E+03  1.31891E+03 -2.08949E+03  1.57931E+03 -1.24437E+03  1.57642E+03  4.67513E+02
  9.46894E+02  7.53638E+02  4.52961E+02  1.19302E+02 -2.99574E+02  6.80897E+02  1.45772E+03 -1.96614E+02
  2.36308E+02 -5.25999E+02  2.09376E+03  8.31263E+02  9.84216E+02  2.74311E+03 -4.76165E+02  3.62474E+03
 -2.24377E+03  1.50771E+03 -2.55518E+03  4.23568E+02 -2.77080E+03 -8.93875E+02 -2.76587E+02 -1.54991E+03
  5.14624E+02 -1.80501E+03  1.21009E+03 -9.86856E+02  6.27589E+02  1.58336E+03 -7.14578E+02  1.75459E+03
 -1.81944E+03  9.44898E+02 -1.74179E+03 -1.42153E+03 -1.27273E+03 -2.58240E+03  3.50217E+02 -2.07895E+03
  8.12353E+02 -8.46876E+02  1.19751E+03 -3.60921E+01  1.78943E+03 -1.29826E+02  3.49133E+02  1.41485E+03
 -5.43563E+02  7.72499E+01 -1.12996E+03 -3.42801E+02  8.34523E+02 -1.20962E+03  1.88612E+03 -1.32708E+03
  1.68170E+03  2.25612E+01  3.10038E+03  1.29967E+03  1.18338E+03  2.11197E+03 -5.12971E+02  2.43859E+03
 -1.60048E+03  4.91230E+02 -2.28801E+03 -2.85721E+02 -1.27459E+03 -1.39211E+03  2.86234E+02 -7.22680E+02
  1.84665E+03 -7.79984E+02  1.06096E+03  5.60221E+02  3.35787E+02  1.38417E+03  3.00784E+02  1.32834E+03
 -7.07213E+02  1.10368E+03 -7.67345E+02  3.99121E+02 -1.30187E+01  1.74432E+02 -7.61365E+02  7.10543E+02
 -5.82131E+02  1.26531E+03 -2.17851E+03  6.31221E+02 -2.27992E+03  9.08765E+01 -3.00641E+03 -1.20291E+03
 -1.59680E+03 -3.02271E+03  5.00465E+02 -3.61809E+03  1.41728E+03 -3.25880E+03  3.40858E+03 -1.15463E+03
  3.34504E+03  1.67997E+02  1.41272E+03  2.06154E+03 -4.08554E+02  2.17918E+03 -8.60463E+02  1.53952E+03
 -1.28817E+03  7.74357E+02 -7.52687E+02 -1.74603E+02 -7.30135E+02  1.84270E+02 -6.17098E+02  1.79575E+02
 -1.16737E+03 -2.20340E+02 -7.60195E+02  1.93772E+02 -3.19462E-01 -7.07955E+02 -3.88593E+02 -1.28737E+03
  1.62953E+03 -1.18646E+03  6.41891E+02  1.26591E+02  1.52076E+03  1.12450E+03 -1.29167E+02  2.00700E+03
 -1.24611E+03  2.63657E+03 -2.22941E+03  1.74964E+03 -2.33190E+03 -3.38130E+02 -1.86691E+03 -1.84589E+03
 -1.21266E+03 -2.13624E+03  5.34398E+02 -1.67474E+03  1.02029E+03 -1.08009E+03  1.11345E+03  1.31663E+02
  8.05258E+02  5.33639E+02 -7.32222E+01  5.13911E+02 -4.47545E+02  6.52043E+01 -4.82146E+01 -1.35420E+02
  4.76546E+02 -1.45070E+01  4.00395E+02  3.43809E+02  1.27689E+02  8.31441E+02  5.01018E+02  7.83478E+02
 -5.39519E+02  7.65834E+02 -8.88054E+02  6.62711E+01 -1.24479E+03 -8.30115E+02 -1.10047E+02 -1.76663E+03
  7.64607E+02 -1.12844E+03  9.82715E+02 -2.56438E+02  1.22308E+03 -4.41296E+02  7.49132E+02  1.02590E+03
  2.37571E+02  1.08941E+03 -7.00440E+02  7.38536E+02 -6.79134E+02  7.54795E+02 -4.52938E+02  1.86530E+02
 -2.04398E+02 -7.97409E+01 -3.94035E+02  8.90918E+01 -5.84317E+02  7.94539E+01 -9.33735E+02 -4.22105E+02
 -1.31515E+03  3.62494E+01 -6.29800E+02 -1.13281E+03  9.07550E+02 -1.59630E+03  1.21552E+03 -6.27488E+02
  1.15987E+03  1.59051E+02 -3.54585E+02  5.46771E+02 -1.04986E+02  1.37403E+03 -6.76691E+02  9.13072E+02
