 $NMID ID='MM_0lb_SNR800_10hz_g40_23.RAW', FMTDAT='(8E13.5)'
 TRAMP=1., VOLUME=1. $END
  3.09926E+05  4.75555E+02  3.38073E+05  2.50803E+05  8.47609E+04  3.37906E+05 -1.32418E+05  2.51442E+05
 -1.90589E+05  8.33408E+04 -1.12281E+05 -3.24220E+04  2.54636E+02 -5.06818E+04  5.38467E+04 -1.40080E+02
  3.52377E+04  5.31511E+04 -1.67785E+04  7.53854E+04 -6.09398E+04  6.40611E+04 -8.44463E+04  3.24531E+04
 -8.16278E+04 -1.19365E+04 -5.77077E+04 -5.16795E+04 -1.49625E+04 -7.05837E+04  2.78308E+04 -4.67606E+04
  4.07294E+04  3.88312E+03  1.64913E+04  4.83281E+04 -3.49157E+04  4.75773E+04 -6.75595E+04 -5.10418E+01
 -5.43498E+04 -5.72563E+04 -6.82959E+03 -7.80631E+04  3.43441E+04 -5.63344E+04  4.91968E+04 -1.80142E+04
  4.43860E+04  1.14862E+04  3.26083E+04  2.62509E+04  1.56442E+04  3.00076E+04 -5.67616E+03  2.76752E+04
 -2.22661E+04  1.22239E+04 -1.86049E+04 -5.45510E+03  6.51339E+03 -7.23922E+03  2.30962E+04  1.31828E+04
  6.98947E+03  3.65916E+04 -3.31436E+04  3.66354E+04 -6.47970E+04  2.29607E+03 -5.76914E+04 -4.38594E+04
 -1.24530E+04 -6.43608E+04  4.07780E+04 -4.68865E+04  5.98520E+04 -2.37180E+03  3.55111E+04  3.37021E+04
 -5.74120E+03  3.80710E+04 -3.11420E+04  1.79348E+04 -3.22312E+04 -3.78808E+03 -1.79309E+04 -1.14842E+04
 -9.48676E+03 -1.43218E+04 -5.95868E+02 -1.89573E+04  8.17021E+03 -2.34143E+04  1.58510E+04 -1.31033E+04
  1.10000E+04  5.52433E+03 -9.64034E+03  1.28882E+04 -2.23377E+04 -5.64839E+03 -8.42413E+03 -3.56829E+04
  2.44131E+04 -4.55003E+04  5.04006E+04 -2.03535E+04  4.78682E+04  2.06803E+04  1.70696E+04  4.58939E+04
 -1.64846E+04  3.48383E+04 -2.66213E+04  2.67064E+03 -1.05651E+04 -2.87334E+04  2.16306E+04 -3.59726E+04
  4.29683E+04 -1.03008E+04  3.84341E+04  2.46094E+04  1.99081E+04  4.90994E+04 -8.24221E+03  5.39108E+04
 -3.34675E+04  3.64416E+04 -4.50909E+04  1.02637E+04 -4.59384E+04 -1.78009E+04 -2.53612E+04 -4.02207E+04
  7.47224E+03 -3.98880E+04  3.29945E+04 -1.60955E+04  3.09396E+04  1.08705E+04  4.76742E+03  1.98689E+04
 -1.34465E+04  9.35148E+03 -1.10447E+04 -7.64479E+03  5.54893E+03 -1.10769E+04  1.84160E+04  5.66735E+03
  1.44699E+04  2.24335E+04 -5.56295E+03  2.63542E+04 -2.28957E+04  1.30605E+04 -3.04024E+04 -3.81270E+03
 -2.37469E+04 -1.83018E+04 -1.04001E+04 -2.29026E+04  4.11660E+03 -2.32656E+04  1.75898E+04 -2.08660E+04
  2.95338E+04 -1.41099E+04  3.55866E+04  4.39222E+03  2.60201E+04  2.24974E+04  4.42075E+03  3.93599E+04
 -1.90414E+04  3.22807E+04 -2.96796E+04  1.13980E+04 -2.19209E+04 -1.03332E+04 -4.49000E+03 -1.31898E+04
  8.03220E+02 -1.35650E+03 -6.21489E+03  7.85920E+03 -1.87710E+04  5.36016E+03 -1.85122E+04 -8.49575E+03
 -1.10026E+04 -2.15626E+04  6.00697E+03 -2.57939E+04  1.73670E+04 -1.82751E+04  2.04149E+04 -1.39733E+03
  1.34919E+04  1.46892E+04 -1.58931E+03  2.15566E+04 -1.50807E+04  1.25297E+04 -2.15541E+04 -4.44271E+03
 -1.58978E+04 -1.92878E+04 -1.87221E+03 -2.60502E+04  1.19836E+04 -2.17635E+04  2.16467E+04 -1.11318E+04
  2.02052E+04 -1.76230E+02  1.46706E+04  4.74432E+03  7.68733E+03  1.27284E+03  1.09947E+04 -1.54499E+03
  2.02951E+04  2.66356E+03  2.28797E+04  1.70322E+04  1.52714E+04  3.51814E+04 -2.86622E+03  4.05159E+04
 -2.32539E+04  3.34358E+04 -3.76875E+04  1.75575E+04 -4.04356E+04 -3.26063E+03 -3.27623E+04 -2.34614E+04
 -1.35511E+04 -3.33594E+04  1.17355E+04 -2.95151E+04  2.52311E+04 -1.44125E+04  2.23702E+04  6.98959E+03
  7.66577E+03  1.72243E+04 -1.11593E+04  1.44223E+04 -1.87671E+04  2.59710E+03 -1.39458E+04 -1.17853E+04
 -2.87776E+02 -1.75450E+04  9.43326E+03 -1.30537E+04  1.25451E+04 -9.84679E+02  3.01451E+03  7.91943E+03
 -8.02166E+03  3.42165E+03 -7.78334E+03 -6.16158E+03 -1.15950E+03 -1.61803E+04  1.10037E+04 -1.77188E+04
  2.04213E+04 -9.61425E+03  2.28546E+04  3.02574E+03  2.01074E+04  1.68665E+04  9.22615E+03  2.54060E+04
 -4.90248E+03  2.74401E+04 -1.80470E+04  1.69673E+04 -1.98026E+04  3.73137E+03 -1.36446E+04 -5.12756E+03
 -6.01453E+03 -6.35070E+03 -8.40807E+02  5.08150E+02 -2.69167E+03  2.96359E+03 -6.35053E+03  4.97795E+03
 -1.28466E+04 -6.33566E+02 -1.35516E+04 -1.10123E+04 -5.29043E+03 -1.76131E+04  5.60500E+03 -1.43348E+04
  1.15453E+04 -5.92161E+03  8.13126E+03  3.78747E+03 -1.73494E+02  5.56534E+03 -6.78141E+03 -1.81615E+02
 -6.60933E+03 -8.87818E+03 -1.04052E+03 -1.39061E+04  8.41562E+03 -1.43651E+04  1.77227E+04 -8.17813E+03
  2.02862E+04  2.07936E+03  1.54097E+04  1.24648E+04  3.07276E+03  1.67369E+04 -8.68577E+03  1.39403E+04
 -1.16206E+04  3.77696E+03 -5.84591E+03 -3.05911E+03  2.05399E+03 -3.52371E+03  7.55220E+03 -1.03559E+03
  6.55898E+03  6.30743E+03  1.15144E+03  1.14319E+04 -7.90014E+03  1.07237E+04 -1.39389E+04  2.33882E+03
 -9.16128E+03 -7.25095E+03 -1.95775E+01 -1.16467E+04  7.64209E+03 -6.18106E+03  7.75852E+03  2.50717E+03
  1.43168E+03  8.57244E+03 -7.19448E+03  1.03356E+04 -1.18615E+04  4.81432E+03 -1.16404E+04 -4.11482E+03
 -6.79434E+03 -1.34201E+04  3.30956E+03 -1.57442E+04  1.32518E+04 -9.15543E+03  1.44975E+04  2.78876E+03
  8.62716E+03  1.13299E+04 -1.00080E+03  1.37758E+04 -1.00129E+04  7.76025E+03 -1.11379E+04 -1.56196E+03
 -9.85415E+03 -9.49478E+03 -1.88687E+03 -1.02968E+04  5.58725E+03 -8.28440E+03  7.00431E+03 -3.38615E+03
  4.87840E+03  1.93092E+03 -9.36430E+02  1.71275E+03 -6.50752E+02 -2.99564E+03  1.87213E+03 -5.96793E+03
  1.01322E+04 -3.80999E+03  1.39424E+04  1.19550E+03  1.33234E+04  9.28611E+03  9.60803E+03  1.79361E+04
 -4.11520E+03  2.04373E+04 -1.70977E+04  1.53082E+04 -2.18914E+04  2.85304E+03 -1.76619E+04 -7.19154E+03
 -8.81896E+03 -1.48385E+04 -3.31706E+02 -1.21082E+04  4.33552E+03 -6.75641E+03  4.26639E+03 -4.60103E+03
  3.12028E+03 -2.66960E+03  3.25418E+03 -3.69925E+03  5.21787E+03 -3.11224E+03  6.84798E+03 -1.36006E+03
  9.39070E+03  1.93815E+03  4.72851E+03  8.14865E+03 -2.20027E+03  9.73873E+03 -9.85318E+03  7.42147E+03
 -1.23943E+04 -1.02537E+03 -7.65601E+03 -8.95262E+03 -8.48331E+02 -1.34754E+04  7.18019E+03 -1.34245E+04
  1.34880E+04 -8.04775E+03  1.67675E+04  1.97241E+03  1.14738E+04  1.14548E+04  1.92199E+03  1.46579E+04
 -6.07719E+03  1.23496E+04 -8.92146E+03  4.75035E+03 -5.85459E+03 -1.44822E+03 -2.31346E+03 -1.43428E+03
 -1.29425E+03 -4.63468E+00 -2.01590E+03  2.77491E+03 -5.28029E+03  1.96764E+03 -8.97238E+03 -1.22773E+03
 -5.96914E+03 -8.76958E+03  2.01020E+02 -1.24624E+04  7.42289E+03 -1.17026E+04  1.20834E+04 -3.40981E+03
  1.23189E+04  6.00077E+03  5.61484E+03  1.08935E+04 -2.74148E+03  1.26314E+04 -8.97687E+03  7.79685E+03
 -1.16750E+04  3.60764E+02 -8.95835E+03 -7.48931E+03 -6.66262E+02 -1.03620E+04  5.42298E+03 -7.46954E+03
  8.05805E+03 -2.70653E+03  5.51095E+03  2.00356E+03  1.86659E+03  3.57121E+03  1.41138E+03  1.45519E+03
  2.09082E+03  9.13428E+02  2.91113E+03  1.44047E+03  3.48224E+03  4.20768E+03  3.23705E+03  6.27357E+03
 -2.45658E+03  9.36746E+03 -8.60464E+03  1.01547E+04 -1.22270E+04  2.77791E+03 -1.29942E+04 -5.20427E+03
 -5.93994E+03 -1.21098E+04  1.63951E+03 -1.38776E+04  7.44520E+03 -8.76455E+03  1.01699E+04 -2.12029E+03
  7.59652E+03  4.59829E+03  1.52721E+03  7.19119E+03 -3.30323E+03  4.52215E+03 -4.98859E+03 -5.98444E+02
 -2.36951E+03 -5.01986E+03  2.66777E+03 -5.42502E+03  4.91669E+03 -2.87157E+03  4.81247E+03  7.59478E+02
  2.90642E+03  2.29689E+03  1.79222E+03  2.16970E+03 -9.49814E+02  1.96260E+03  1.70724E+03 -2.09183E+02
  1.95296E+03 -7.34274E+02  5.57499E+03  2.27963E+03  2.76611E+03  6.55286E+03 -1.08600E+03  8.69144E+03
 -5.80190E+03  5.63339E+03 -7.79132E+03  1.48238E+03 -7.13840E+03 -2.80137E+03 -2.38382E+03 -4.76174E+03
  7.02444E+02 -4.64583E+03  3.24264E+03 -1.94123E+03  2.93045E+03  2.36982E+03 -8.81926E+02  4.09912E+03
 -4.94478E+03  2.87995E+03 -5.64009E+03 -2.69254E+03 -3.31753E+03 -6.81043E+03  1.21498E+03 -6.88780E+03
  4.25199E+03 -4.08130E+03  4.55071E+03 -5.25654E+02  4.33021E+03  1.64234E+03  5.40809E+02  3.79652E+03
 -2.15121E+03  9.03882E+02 -3.10310E+03 -2.33640E+03  1.17995E+03 -4.96035E+03  6.01486E+03 -3.87310E+03
  7.39785E+03  4.84857E+02  7.75006E+03  5.02439E+03  2.79142E+03  8.60991E+03 -3.14302E+03  7.18975E+03
 -6.42670E+03  3.40188E+03 -6.78427E+03 -1.04660E+03 -3.63863E+03 -5.23851E+03  7.36245E+02 -4.86998E+03
  5.55881E+03 -2.36693E+03  3.96769E+03  2.39782E+03  1.11835E+03  4.83404E+03 -6.56839E+02  4.22215E+03
 -1.90948E+03  2.92805E+03 -1.67893E+03  7.77305E+02 -3.60081E+02  7.37128E+02 -1.21635E+03  1.92719E+03
 -2.20862E+03  3.09088E+03 -5.62928E+03  2.83505E+03 -8.05948E+03  5.39133E+02 -8.86197E+03 -5.30066E+03
 -4.63143E+03 -1.04168E+04  2.24375E+03 -1.24271E+04  7.43222E+03 -9.32185E+03  1.13894E+04 -3.79423E+03
  1.08365E+04  1.96691E+03  6.26762E+03  7.28030E+03  2.82124E+02  8.39516E+03 -2.92590E+03  6.10165E+03
 -4.63111E+03  2.37589E+03 -2.81928E+03 -1.23401E+03 -8.94132E+02 -4.73512E+02 -5.31803E+02  3.88187E+02
 -1.75328E+03  3.85081E+02 -1.71355E+03 -3.03852E+02 -4.76775E+02 -2.25287E+03 -1.81614E+02 -3.21065E+03
  3.74933E+03 -2.61195E+03  4.99444E+03 -1.58439E+01  5.87623E+03  4.48698E+03  1.57593E+03  8.32992E+03
 -4.07317E+03  9.54102E+03 -8.72032E+03  5.60979E+03 -9.79344E+03 -5.68293E+02 -7.75672E+03 -5.84403E+03
 -3.12649E+03 -8.19601E+03  1.93439E+03 -7.38283E+03  5.26022E+03 -4.40200E+03  5.73668E+03  2.50850E+02
  2.54896E+03  2.79232E+03 -1.39750E+02  1.80928E+03 -1.81581E+03 -2.29038E+02  5.47416E+01 -1.87861E+03
  2.76931E+03 -9.04084E+02  2.83306E+03  1.20573E+03  2.36519E+03  2.95727E+03  3.68723E+02  4.29588E+03
 -3.48860E+03  3.47902E+03 -5.52474E+03  3.29129E+02 -4.84960E+03 -3.85433E+03 -9.44100E+02 -7.15204E+03
  3.46040E+03 -5.19202E+03  6.24389E+03 -1.06582E+03  6.25654E+03  9.56804E+02  3.54782E+03  4.89621E+03
  9.16109E+02  5.48158E+03 -2.32281E+03  4.37603E+03 -3.43634E+03  2.79015E+03 -3.13982E+03  4.57321E+02
 -1.58440E+03  1.69101E+01 -2.01765E+03  8.02881E+02 -2.88700E+03  1.13069E+03 -4.39777E+03 -6.75031E+02
 -3.95900E+03 -2.83193E+03 -1.05196E+03 -5.11942E+03  2.56523E+03 -5.82550E+03  4.65830E+03 -2.72014E+03
  5.72291E+03  7.33170E+02  2.73735E+03  3.85787E+03 -5.80239E+02  5.49848E+03 -3.77348E+03  3.76752E+03
