 $NMID ID='MM_0lb_SNR800_16hz_g45_78.RAW', FMTDAT='(8E13.5)'
 TRAMP=1., VOLUME=1. $END
  3.09686E+05  1.73581E+02  3.37384E+05  2.50338E+05  8.46029E+04  3.37611E+05 -1.32533E+05  2.50656E+05
 -1.89942E+05  8.29995E+04 -1.11336E+05 -3.26176E+04  1.12872E+03 -5.05014E+04  5.42323E+04  8.59948E+01
  3.54494E+04  5.30392E+04 -1.69157E+04  7.49024E+04 -6.05103E+04  6.28682E+04 -8.34739E+04  3.16997E+04
 -8.01783E+04 -1.13567E+04 -5.68112E+04 -5.07700E+04 -1.50265E+04 -6.90476E+04  2.69548E+04 -4.53189E+04
  3.96513E+04  4.13659E+03  1.59746E+04  4.74230E+04 -3.40713E+04  4.65738E+04 -6.61174E+04 -3.23027E+02
 -5.25063E+04 -5.65083E+04 -6.32720E+03 -7.63409E+04  3.35370E+04 -5.40299E+04  4.69737E+04 -1.68561E+04
  4.23793E+04  1.13114E+04  3.13116E+04  2.47262E+04  1.56944E+04  2.87757E+04 -4.98484E+03  2.71563E+04
 -2.17921E+04  1.25704E+04 -1.87127E+04 -4.61168E+03  5.06958E+03 -7.21741E+03  2.18899E+04  1.16530E+04
  7.11988E+03  3.42231E+04 -3.14574E+04  3.45862E+04 -6.21406E+04  2.25204E+03 -5.58760E+04 -4.21113E+04
 -1.23170E+04 -6.18005E+04  3.88054E+04 -4.41032E+04  5.67251E+04 -2.04471E+03  3.28261E+04  3.14649E+04
 -6.22689E+03  3.45120E+04 -2.93488E+04  1.43477E+04 -2.86149E+04 -4.89941E+03 -1.53607E+04 -1.06529E+04
 -8.08174E+03 -1.22232E+04 -1.12508E+03 -1.71847E+04  6.97114E+03 -2.26890E+04  1.48771E+04 -1.34657E+04
  1.19732E+04  4.76838E+03 -6.99889E+03  1.31316E+04 -2.02569E+04 -3.23301E+03 -8.15740E+03 -3.17425E+04
  2.17444E+04 -4.19603E+04  4.60586E+04 -1.91877E+04  4.35450E+04  1.85894E+04  1.48339E+04  4.26887E+04
 -1.55999E+04  3.20407E+04 -2.42833E+04  1.10252E+03 -8.99941E+03 -2.72136E+04  2.07383E+04 -3.23132E+04
  3.96907E+04 -8.23638E+03  3.32809E+04  2.30551E+04  1.71272E+04  4.43327E+04 -7.91997E+03  4.75437E+04
 -2.99231E+04  3.17591E+04 -3.93190E+04  8.99746E+03 -4.02364E+04 -1.59089E+04 -2.22168E+04 -3.58511E+04
  7.16709E+03 -3.57842E+04  3.04260E+04 -1.35185E+04  2.79814E+04  1.06954E+04  3.60429E+03  1.80780E+04
 -1.32714E+04  7.58038E+03 -9.91144E+03 -7.43405E+03  6.04267E+03 -1.06051E+04  1.75446E+04  6.24745E+03
  1.27748E+04  2.17863E+04 -6.28738E+03  2.42972E+04 -2.16934E+04  1.02912E+04 -2.65304E+04 -5.53574E+03
 -1.87566E+04 -1.68974E+04 -7.00735E+03 -1.85806E+04  3.68765E+03 -1.68740E+04  1.38990E+04 -1.59161E+04
  2.35190E+04 -1.23533E+04  3.01629E+04  1.52638E+03  2.27483E+04  1.77927E+04  4.17408E+03  3.43873E+04
 -1.67510E+04  2.88977E+04 -2.69072E+04  9.90655E+03 -2.04761E+04 -1.02976E+04 -4.24055E+03 -1.38948E+04
  2.09331E+03 -3.60635E+03 -3.98217E+03  5.92795E+03 -1.41011E+04  5.00214E+03 -1.47789E+04 -6.19949E+03
 -9.49083E+03 -1.68039E+04  4.89538E+03 -2.09594E+04  1.36681E+04 -1.52304E+04  1.60298E+04 -1.58469E+03
  1.00237E+04  1.17289E+04 -7.31343E+02  1.74409E+04 -1.16685E+04  9.59796E+03 -1.72681E+04 -3.67748E+03
 -1.26106E+04 -1.55271E+04 -1.60017E+03 -2.09156E+04  9.58731E+03 -1.69930E+04  1.76576E+04 -8.42449E+03
  1.59156E+04  5.42993E+02  1.16300E+04  4.35618E+03  6.02664E+03  6.66636E+02  8.44515E+03 -1.67062E+03
  1.53057E+04  2.40285E+03  1.69958E+04  1.37724E+04  1.07461E+04  2.73717E+04 -3.15083E+03  2.99638E+04
 -1.74658E+04  2.33803E+04 -2.79467E+04  1.12548E+04 -2.88730E+04 -2.13287E+03 -2.43367E+04 -1.67143E+04
 -1.06751E+04 -2.37666E+04  8.04634E+03 -2.18474E+04  1.86813E+04 -1.17761E+04  1.70797E+04  4.27214E+03
  6.60202E+03  1.28636E+04 -7.88005E+03  1.12762E+04 -1.44813E+04  2.80443E+03 -1.09798E+04 -8.98993E+03
 -2.46562E+02 -1.37729E+04  7.19304E+03 -1.03609E+04  8.95910E+03 -1.33426E+03  1.58168E+03  5.84490E+03
 -6.26924E+03  1.73382E+03 -4.56058E+03 -5.08252E+03  1.87294E+02 -1.14378E+04  8.24740E+03 -1.20060E+04
  1.44722E+04 -6.01374E+03  1.47435E+04  2.65456E+03  1.27004E+04  1.13672E+04  6.19463E+03  1.69594E+04
 -2.61329E+03  1.86401E+04 -1.16559E+04  1.21291E+04 -1.33737E+04  3.04176E+03 -9.69756E+03 -2.49508E+03
 -4.56293E+03 -3.92745E+03 -5.90466E+02  1.25678E+03 -2.08176E+03  2.38625E+03 -4.41377E+03  3.79311E+03
 -9.20936E+03 -8.46794E+02 -9.71022E+03 -8.09623E+03 -4.06302E+03 -1.28826E+04  4.17569E+03 -9.89803E+03
  7.99754E+03 -3.97320E+03  6.30033E+03  2.55656E+03  5.06215E+02  3.56209E+03 -4.21207E+03 -1.84608E+02
 -4.28782E+03 -6.17031E+03 -5.10139E+02 -8.83936E+03  4.79484E+03 -9.44937E+03  1.15040E+04 -5.03694E+03
  1.36701E+04  8.31982E+02  1.00809E+04  7.44082E+03  2.24334E+03  1.07048E+04 -6.05543E+03  9.51574E+03
 -8.23352E+03  3.33762E+03 -4.03324E+03 -1.76341E+03  1.49144E+03 -2.26653E+03  5.29437E+03 -8.47847E+02
  4.72981E+03  4.13417E+03  1.13628E+03  7.69325E+03 -5.10370E+03  7.13884E+03 -9.30772E+03  2.04024E+03
 -6.06660E+03 -4.48727E+03  3.30465E+02 -8.06438E+03  4.57913E+03 -3.99226E+03  4.34957E+03  1.31056E+03
  8.19965E+02  4.51805E+03 -4.59440E+03  5.72594E+03 -6.30892E+03  3.19119E+03 -6.22938E+03 -1.74867E+03
 -3.78362E+03 -7.84760E+03  1.67193E+03 -9.11298E+03  7.56373E+03 -5.71253E+03  8.23579E+03  1.15270E+03
  5.55937E+03  6.62492E+03 -1.27316E+02  8.86484E+03 -6.04684E+03  4.88754E+03 -6.58914E+03 -4.96609E+02
 -6.47586E+03 -5.74750E+03 -1.15765E+03 -6.08505E+03  3.26351E+03 -5.59647E+03  3.95933E+03 -3.16510E+03
  3.40307E+03  7.68673E+02 -3.59455E+02  1.37018E+03  2.32802E+02 -7.66173E+02  4.25904E+02 -2.81952E+03
  5.29347E+03 -1.38844E+03  7.14459E+03  1.13785E+03  7.18490E+03  4.34461E+03  6.07929E+03  9.62730E+03
 -2.15948E+03  1.10988E+04 -9.85248E+03  8.50557E+03 -1.27548E+04  1.62892E+03 -9.99183E+03 -3.68136E+03
 -5.01993E+03 -8.31240E+03 -3.36726E+02 -6.89983E+03  2.52965E+03 -3.11480E+03  2.58329E+03 -2.74765E+03
  1.62652E+03 -1.77753E+03  2.54395E+03 -2.67447E+03  3.73909E+03 -1.58888E+03  4.43737E+03  3.49375E+02
  5.14441E+03  1.43534E+03  1.79328E+03  4.60373E+03 -1.39742E+03  4.12417E+03 -5.59536E+03  3.37842E+03
 -6.25087E+03 -9.11977E+02 -3.16360E+03 -4.54003E+03  2.24083E+02 -6.53791E+03  4.11089E+03 -6.83812E+03
  6.83345E+03 -4.10083E+03  8.90974E+03  5.51496E+02  6.63269E+03  5.59371E+03  1.22677E+03  7.57572E+03
 -2.88582E+03  7.09631E+03 -4.31958E+03  2.61540E+03 -2.67119E+03 -1.25187E+03 -8.24370E+02 -8.51633E+02
 -5.84458E+02  3.07813E+02 -1.00859E+03  2.02074E+03 -3.25624E+03  1.16417E+03 -5.06318E+03 -5.84334E+02
 -2.31835E+03 -5.06600E+03  5.39049E+02 -5.96086E+03  3.67527E+03 -5.95531E+03  5.35248E+03 -1.40918E+03
  5.71492E+03  3.07929E+03  2.38858E+03  4.74029E+03 -1.18954E+03  6.17021E+03 -3.87798E+03  3.56508E+03
 -5.33440E+03  7.70973E+02 -4.51528E+03 -3.55932E+03 -4.39590E+02 -4.40806E+03  2.42518E+03 -3.49420E+03
  3.80103E+03 -1.77579E+03  2.33607E+03  8.82591E+02  7.03651E+02  2.07973E+03  9.82375E+02  7.91985E+02
  1.69909E+03  7.75482E+02  1.40713E+03  1.19329E+03  1.46553E+03  2.32038E+03  1.77190E+03  2.61750E+03
 -1.42927E+03  4.22086E+03 -3.52487E+03  5.34537E+03 -4.98714E+03  1.36232E+03 -5.80159E+03 -1.14960E+03
 -2.86604E+03 -5.34604E+03  4.62395E+02 -6.47006E+03  3.00216E+03 -3.77392E+03  4.17118E+03 -1.19910E+03
  3.50753E+03  2.47813E+03  5.19258E+02  3.24042E+03 -1.08886E+03  1.85381E+03 -1.70957E+03 -4.20180E+02
 -7.80629E+02 -2.24290E+03  1.52789E+03 -2.36203E+03  2.16478E+03 -1.31334E+03  2.19350E+03  6.94729E+02
  1.00799E+03  6.82017E+02  8.02311E+02  2.76555E+02 -7.40929E+02  8.86893E+02  1.60691E+03 -4.87134E+02
  5.22749E+02 -3.11168E+02  2.10826E+03  1.11062E+03  8.51616E+02  2.91546E+03 -3.24812E+02  3.86357E+03
 -2.56451E+03  2.00642E+03 -3.10618E+03  5.44187E+02 -2.90351E+03 -1.02269E+03 -5.13112E+02 -1.74390E+03
  4.09242E+02 -2.09582E+03  1.03036E+03 -1.11709E+03  1.19219E+03  1.26823E+03 -6.27048E+02  1.66402E+03
 -2.17043E+03  1.05483E+03 -2.15275E+03 -1.49059E+03 -1.21178E+03 -2.73207E+03 -1.93159E+02 -2.64661E+03
  1.19514E+03 -1.23057E+03  1.50362E+03 -9.13823E+01  1.91220E+03  2.36759E+02  4.57330E+02  1.65348E+03
 -6.87062E+02  5.78982E+01 -1.29716E+03 -7.48974E+02  3.69867E+02 -1.48886E+03  2.22347E+03 -1.62350E+03
  2.54861E+03  1.42409E+02  3.29118E+03  1.46596E+03  1.36457E+03  2.71034E+03 -5.87162E+02  2.92693E+03
 -2.56051E+03  8.01852E+02 -2.56339E+03 -5.26157E+02 -1.63968E+03 -1.78189E+03  2.16742E+02 -1.20256E+03
  2.15871E+03 -1.04242E+03  1.33273E+03  1.01899E+03  5.37902E+02  1.75641E+03  3.52179E+02  1.56654E+03
 -9.18403E+02  1.38566E+03 -5.83014E+02  3.96493E+02 -6.83912E+01  4.02916E+02 -9.44038E+02  6.06914E+02
 -6.68279E+02  1.40165E+03 -2.37176E+03  8.12300E+02 -2.76710E+03 -2.57304E+01 -3.58732E+03 -1.83789E+03
 -1.26239E+03 -3.68607E+03  5.97774E+02 -4.60294E+03  1.91667E+03 -3.63490E+03  4.09077E+03 -1.40418E+03
  4.05686E+03  4.43366E+02  2.11992E+03  2.60816E+03 -3.96278E+02  2.47028E+03 -1.05333E+03  2.10801E+03
 -1.17694E+03  9.68727E+02 -8.10598E+02 -2.79842E+02 -7.17430E+02  3.40466E+02 -5.61008E+02  2.23013E+02
 -1.27746E+03 -1.65425E+02 -9.09790E+02  1.26093E+02  2.44052E+02 -1.03261E+03 -3.46508E+02 -1.08627E+03
  1.52971E+03 -1.01132E+03  9.20983E+02  2.27381E+02  1.71672E+03  1.61090E+03 -3.33244E+01  2.43450E+03
 -1.46196E+03  3.39055E+03 -2.88584E+03  2.18980E+03 -2.72822E+03 -2.46591E+02 -2.23407E+03 -1.89785E+03
 -1.30761E+03 -2.29361E+03  7.94018E+02 -2.14886E+03  1.00698E+03 -1.22784E+03  1.47102E+03  1.29842E+02
  1.19492E+03  8.16438E+02 -1.88891E+02  5.64224E+02 -2.16948E+02  2.14874E+01  3.35735E+02 -4.79353E+02
  8.73249E+02  1.02300E+02  6.10765E+02  6.11171E+02  4.41786E+02  1.22782E+03  6.23301E+02  1.14665E+03
 -6.75842E+02  8.40284E+02 -1.59429E+03  1.75200E+02 -1.36834E+03 -1.14152E+03  1.04774E+02 -2.10117E+03
  8.90002E+02 -1.56095E+03  9.64433E+02 -3.94987E+02  1.42743E+03 -5.38001E+02  8.03055E+02  1.18140E+03
  2.23602E+02  8.95091E+02 -5.47603E+02  1.18604E+03 -1.25429E+03  1.00225E+03 -7.80359E+02 -1.49310E+01
 -2.35153E+02 -2.87907E+01 -5.56703E+02  1.05671E+02 -8.06447E+02 -5.45177E+00 -1.50192E+03 -3.33599E+02
 -1.61014E+03 -2.59121E+02 -3.14825E+02 -1.17301E+03  9.18134E+02 -2.22405E+03  1.12939E+03 -6.17130E+02
  1.61405E+03  1.91156E+02  1.41125E+02  7.72126E+02 -6.99268E+01  1.34371E+03 -7.03738E+02  1.04751E+03
