 $NMID ID='MM_0lb_SNR800_14hz_g45_74.RAW', FMTDAT='(8E13.5)'
 TRAMP=1., VOLUME=1. $END
  3.10102E+05  4.88007E+02  3.37690E+05  2.50502E+05  8.45316E+04  3.37909E+05 -1.32246E+05  2.51189E+05
 -1.90266E+05  8.29699E+04 -1.11655E+05 -3.27373E+04  8.68179E+02 -4.99845E+04  5.34644E+04 -2.11933E+02
  3.54127E+04  5.25999E+04 -1.64385E+04  7.52260E+04 -6.06522E+04  6.32164E+04 -8.42444E+04  3.17364E+04
 -8.06768E+04 -1.12370E+04 -5.70582E+04 -5.10022E+04 -1.48633E+04 -6.94443E+04  2.71793E+04 -4.56062E+04
  4.00013E+04  3.73745E+03  1.58551E+04  4.76969E+04 -3.41803E+04  4.67821E+04 -6.65309E+04 -5.08163E+02
 -5.32978E+04 -5.64828E+04 -6.78852E+03 -7.67313E+04  3.40217E+04 -5.50210E+04  4.76417E+04 -1.69422E+04
  4.30659E+04  1.13435E+04  3.15674E+04  2.52986E+04  1.56534E+04  2.90796E+04 -4.98635E+03  2.72857E+04
 -2.17441E+04  1.23620E+04 -1.88633E+04 -4.51059E+03  5.60929E+03 -7.78774E+03  2.21203E+04  1.18873E+04
  7.35845E+03  3.52676E+04 -3.19077E+04  3.51031E+04 -6.33611E+04  2.34893E+03 -5.69705E+04 -4.27423E+04
 -1.26592E+04 -6.30370E+04  3.92517E+04 -4.50810E+04  5.78829E+04 -2.19333E+03  3.41000E+04  3.20896E+04
 -6.11411E+03  3.56903E+04 -2.98218E+04  1.57477E+04 -3.02775E+04 -4.46042E+03 -1.62307E+04 -1.09912E+04
 -8.34875E+03 -1.29516E+04 -7.00836E+02 -1.76902E+04  7.34675E+03 -2.31209E+04  1.55242E+04 -1.35454E+04
  1.15370E+04  4.90516E+03 -8.06283E+03  1.29283E+04 -2.08089E+04 -4.41491E+03 -8.65507E+03 -3.36330E+04
  2.28007E+04 -4.33272E+04  4.75017E+04 -1.95347E+04  4.45336E+04  1.93706E+04  1.56120E+04  4.38378E+04
 -1.56682E+04  3.31203E+04 -2.52036E+04  2.11498E+03 -9.78556E+03 -2.79061E+04  2.10993E+04 -3.37432E+04
  4.04570E+04 -8.90936E+03  3.51789E+04  2.35909E+04  1.80127E+04  4.61265E+04 -8.05545E+03  4.96038E+04
 -3.13784E+04  3.31695E+04 -4.14331E+04  9.18365E+03 -4.20153E+04 -1.65199E+04 -2.30993E+04 -3.76912E+04
  7.10933E+03 -3.74325E+04  3.12845E+04 -1.43260E+04  2.89085E+04  1.07720E+04  3.69163E+03  1.90764E+04
 -1.35935E+04  8.01226E+03 -1.02335E+04 -7.55466E+03  5.71164E+03 -1.09709E+04  1.79430E+04  6.20592E+03
  1.34087E+04  2.19807E+04 -6.06235E+03  2.48890E+04 -2.21599E+04  1.14667E+04 -2.79284E+04 -4.85003E+03
 -1.99129E+04 -1.77021E+04 -8.07926E+03 -2.03532E+04  3.66610E+03 -1.88093E+04  1.53458E+04 -1.82397E+04
  2.53148E+04 -1.28084E+04  3.18947E+04  2.91712E+03  2.32369E+04  1.98579E+04  4.15294E+03  3.59988E+04
 -1.77008E+04  2.99691E+04 -2.77599E+04  1.06407E+04 -2.06505E+04 -1.01876E+04 -4.65512E+03 -1.32886E+04
  1.75313E+03 -3.17713E+03 -4.61995E+03  6.78423E+03 -1.57572E+04  5.57785E+03 -1.59505E+04 -6.89834E+03
 -1.00233E+04 -1.89020E+04  5.20545E+03 -2.27352E+04  1.50347E+04 -1.65854E+04  1.80767E+04 -1.53825E+03
  1.10091E+04  1.29556E+04 -1.01980E+03  1.89516E+04 -1.28575E+04  1.06122E+04 -1.83327E+04 -3.88088E+03
 -1.38900E+04 -1.69726E+04 -1.74211E+03 -2.27420E+04  1.00425E+04 -1.85164E+04  1.83374E+04 -9.25777E+03
  1.75708E+04  4.74364E+02  1.24513E+04  4.33008E+03  6.73276E+03  8.80745E+02  9.50745E+03 -1.47388E+03
  1.69897E+04  2.81252E+03  1.86791E+04  1.49186E+04  1.22812E+04  3.00014E+04 -3.01667E+03  3.34776E+04
 -1.95212E+04  2.67408E+04 -3.12464E+04  1.35029E+04 -3.26003E+04 -2.24253E+03 -2.68646E+04 -1.86651E+04
 -1.21441E+04 -2.70186E+04  8.77375E+03 -2.41698E+04  2.11670E+04 -1.24231E+04  1.90176E+04  5.33727E+03
  7.34542E+03  1.39321E+04 -8.55151E+03  1.24819E+04 -1.59140E+04  2.65398E+03 -1.21501E+04 -9.95569E+03
 -3.17957E+02 -1.50207E+04  7.88697E+03 -1.12649E+04  1.00741E+04 -1.57780E+03  2.31918E+03  6.39647E+03
 -6.99874E+03  2.31521E+03 -5.56281E+03 -5.23366E+03 -3.13655E+02 -1.31789E+04  9.44454E+03 -1.39340E+04
  1.63430E+04 -6.83115E+03  1.72859E+04  3.09653E+03  1.50709E+04  1.25195E+04  6.81161E+03  1.97744E+04
 -2.93792E+03  2.14352E+04 -1.35871E+04  1.37004E+04 -1.55674E+04  3.23809E+03 -1.11927E+04 -3.17381E+03
 -5.31627E+03 -4.89766E+03 -8.06363E+02  1.19675E+03 -2.39946E+03  2.52254E+03 -4.91880E+03  4.23718E+03
 -1.04625E+04 -8.10034E+02 -1.10628E+04 -9.10047E+03 -4.52844E+03 -1.47638E+04  4.77340E+03 -1.11886E+04
  9.51678E+03 -4.56210E+03  7.07034E+03  2.82666E+03  1.44572E+02  4.37552E+03 -4.80195E+03 -5.63867E+02
 -4.93576E+03 -6.67846E+03 -9.21778E+02 -1.03190E+04  5.86901E+03 -1.10378E+04  1.39919E+04 -5.80179E+03
  1.59091E+04  1.16670E+03  1.16655E+04  9.01529E+03  2.07716E+03  1.24649E+04 -6.90308E+03  1.06182E+04
 -8.95138E+03  3.66024E+03 -5.04770E+03 -2.23582E+03  1.78982E+03 -2.67947E+03  6.28552E+03 -9.99714E+02
  5.46793E+03  4.68989E+03  9.98754E+02  8.84141E+03 -6.31123E+03  8.56335E+03 -1.03971E+04  2.27044E+03
 -7.17770E+03 -5.12189E+03 -1.66425E+02 -9.51931E+03  5.63435E+03 -4.78364E+03  5.65021E+03  1.79753E+03
  1.12248E+03  5.68279E+03 -5.93345E+03  6.71356E+03 -7.79016E+03  3.24096E+03 -7.95623E+03 -2.28059E+03
 -4.89434E+03 -9.38301E+03  2.26476E+03 -1.11981E+04  9.34593E+03 -6.68890E+03  1.01650E+04  1.69138E+03
  6.64206E+03  8.25748E+03 -4.95996E+02  1.04716E+04 -7.55316E+03  5.91354E+03 -7.58886E+03 -4.56193E+02
 -7.34663E+03 -7.15893E+03 -1.64184E+03 -7.35670E+03  4.05610E+03 -6.41384E+03  4.77165E+03 -3.57403E+03
  3.43684E+03  8.13405E+02 -5.50779E+02  1.76902E+03 -1.91997E+01 -1.15994E+03  9.14842E+02 -3.67258E+03
  6.64434E+03 -2.13774E+03  8.99161E+03  9.97662E+02  8.86215E+03  5.79184E+03  6.80987E+03  1.20482E+04
 -2.42171E+03  1.37750E+04 -1.18220E+04  1.02900E+04 -1.54641E+04  1.81826E+03 -1.22382E+04 -4.84854E+03
 -6.61322E+03 -9.96756E+03 -2.69800E+02 -8.12367E+03  3.32825E+03 -4.26260E+03  2.94497E+03 -3.33002E+03
  1.92559E+03 -2.34434E+03  2.61882E+03 -2.73170E+03  4.41346E+03 -1.90173E+03  5.12499E+03 -1.61356E+02
  6.65735E+03  1.61155E+03  2.77644E+03  5.41562E+03 -1.94201E+03  5.52317E+03 -6.70007E+03  4.32280E+03
 -8.44347E+03 -1.14498E+03 -4.07895E+03 -5.78447E+03 -1.48216E+02 -8.56581E+03  5.12929E+03 -8.84892E+03
  9.12738E+03 -5.13048E+03  1.09292E+04  1.03221E+03  7.64862E+03  7.40689E+03  1.59900E+03  9.79231E+03
 -3.92776E+03  8.81609E+03 -5.71893E+03  2.92702E+03 -3.69821E+03 -1.30128E+03 -1.21181E+03 -9.81563E+02
 -6.86274E+02  4.13524E+02 -1.19630E+03  2.29657E+03 -3.78127E+03  1.88498E+03 -6.19826E+03 -8.63265E+02
 -3.45857E+03 -6.10650E+03  3.25403E+02 -8.18536E+03  4.66175E+03 -7.22628E+03  7.14965E+03 -2.11296E+03
  7.27242E+03  4.13019E+03  3.30975E+03  6.97904E+03 -1.73364E+03  7.84393E+03 -5.14716E+03  4.77530E+03
 -7.07969E+03  9.14626E+02 -5.71023E+03 -4.33713E+03 -5.64245E+02 -6.32623E+03  3.45501E+03 -4.81672E+03
  4.77093E+03 -1.70528E+03  3.28588E+03  1.36665E+03  1.21855E+03  2.30119E+03  9.93026E+02  8.69833E+02
  2.11085E+03  9.18321E+02  1.95709E+03  9.69682E+02  2.35307E+03  3.31406E+03  2.05040E+03  3.68375E+03
 -1.77287E+03  5.45184E+03 -5.18299E+03  6.54478E+03 -6.81313E+03  1.77965E+03 -7.72365E+03 -2.28415E+03
 -3.46121E+03 -7.52725E+03  1.12656E+03 -8.58444E+03  4.09234E+03 -5.04924E+03  5.82398E+03 -1.61885E+03
  4.51597E+03  2.99422E+03  9.49073E+02  4.42365E+03 -1.60410E+03  2.49223E+03 -2.67582E+03 -1.96575E+02
 -1.63615E+03 -3.19219E+03  1.64142E+03 -3.37867E+03  2.89048E+03 -1.60843E+03  2.91436E+03  6.96580E+02
  1.82056E+03  1.08468E+03  8.64619E+02  3.42495E+02 -4.91568E+02  8.92370E+02  1.90732E+03 -4.15230E+02
  8.20751E+02 -4.69092E+02  3.12584E+03  1.06677E+03  1.22810E+03  4.04786E+03 -5.93042E+02  5.23818E+03
 -3.39718E+03  2.90674E+03 -4.24292E+03  5.73199E+02 -4.04971E+03 -1.52770E+03 -1.04896E+03 -2.62694E+03
  3.58540E+02 -2.47706E+03  1.97919E+03 -1.19112E+03  1.57756E+03  1.49880E+03 -8.25608E+02  2.36719E+03
 -3.27147E+03  1.21287E+03 -3.26252E+03 -2.13567E+03 -1.58729E+03 -4.10353E+03  4.21025E+02 -3.62359E+03
  1.76230E+03 -1.80082E+03  2.33045E+03 -1.07662E+02  2.49141E+03  7.08317E+02  1.67913E+02  1.91014E+03
 -1.40385E+03  3.52907E+02 -1.82268E+03 -9.35021E+02  7.71668E+02 -2.76174E+03  3.41063E+03 -2.40842E+03
  3.69689E+03  3.54443E+02  4.83467E+03  2.40405E+03  1.59190E+03  3.77368E+03 -1.27755E+03  4.24868E+03
 -3.22620E+03  1.31747E+03 -3.51463E+03 -5.16069E+02 -1.83984E+03 -3.04613E+03  6.33072E+02 -2.30846E+03
  2.83355E+03 -1.60888E+03  1.91952E+03  1.20594E+03  4.26691E+02  2.71303E+03 -1.23333E+02  2.61557E+03
 -8.19717E+02  1.88630E+03 -9.71548E+02  3.20473E+01 -2.09896E+02  4.25958E+02 -8.50283E+02  5.74374E+02
 -1.27158E+03  1.95608E+03 -2.96020E+03  1.38971E+03 -4.37191E+03  1.51767E+02 -4.97860E+03 -2.70811E+03
 -2.31231E+03 -5.34873E+03  9.71365E+02 -6.25499E+03  3.45863E+03 -5.19964E+03  6.21202E+03 -1.89111E+03
  5.40272E+03  7.15136E+02  3.06661E+03  4.09144E+03 -1.78436E+02  4.30926E+03 -1.53504E+03  2.87261E+03
 -2.35531E+03  1.45802E+03 -1.65454E+03 -5.89106E+02 -5.82936E+02  2.83327E+02 -6.40799E+02 -7.70886E+01
 -1.34239E+03  2.61882E+02 -1.09752E+03  8.51373E+01 -1.84828E+02 -1.24557E+03 -1.97774E+02 -1.41480E+03
  1.85825E+03 -1.26748E+03  2.17388E+03  4.75195E+01  2.94509E+03  2.55290E+03  2.14641E+02  3.71278E+03
 -1.87329E+03  4.84391E+03 -4.02487E+03  2.94380E+03 -4.54846E+03 -4.98460E+02 -3.46836E+03 -3.16360E+03
 -1.65803E+03 -3.90987E+03  1.13973E+03 -3.67722E+03  2.21399E+03 -2.03042E+03  2.51240E+03  2.18693E+02
  1.47471E+03  1.03099E+03 -4.95899E+01  1.07916E+03 -8.62531E+02  1.99015E+02 -1.42581E+02 -8.12427E+02
  1.19754E+03 -1.48053E+02  1.29536E+03  8.51876E+02  6.84395E+02  1.55769E+03  2.62501E+02  1.49675E+03
 -1.31545E+03  1.74058E+03 -2.11913E+03  3.75622E+02 -2.71292E+03 -1.99498E+03 -6.04965E+02 -3.62681E+03
  1.82565E+03 -2.27267E+03  2.51453E+03 -8.72130E+02  2.94645E+03 -3.18052E+00  1.47746E+03  2.11552E+03
  4.28303E+02  2.29487E+03 -1.13211E+03  1.71745E+03 -1.73698E+03  1.23123E+03 -1.37694E+03  2.46671E+02
 -5.87007E+02 -2.04235E+01 -5.77285E+02  4.17438E+02 -1.05145E+03  3.94214E+02 -2.05319E+03 -4.76566E+02
 -2.01261E+03 -6.67863E+02 -5.86740E+02 -2.19406E+03  1.48173E+03 -3.21286E+03  2.24143E+03 -1.01299E+03
  2.24273E+03  3.66218E+02  5.54699E+02  1.35632E+03  1.10614E+02  2.30846E+03 -1.63552E+03  1.78270E+03
