 $NMID ID='MM_0lb_SNR800_11hz_g55_56.RAW', FMTDAT='(8E13.5)'
 TRAMP=1., VOLUME=1. $END
  3.09489E+05  4.18465E+02  3.37811E+05  2.50545E+05  8.47619E+04  3.38298E+05 -1.32641E+05  2.51660E+05
 -1.90695E+05  8.36347E+04 -1.12372E+05 -3.22802E+04  1.13797E+02 -5.06205E+04  5.39013E+04 -1.34340E+02
  3.56660E+04  5.28731E+04 -1.68554E+04  7.58348E+04 -6.12252E+04  6.38411E+04 -8.49204E+04  3.23214E+04
 -8.22161E+04 -1.15421E+04 -5.79658E+04 -5.21379E+04 -1.50796E+04 -7.04295E+04  2.82970E+04 -4.67194E+04
  4.10975E+04  3.45149E+03  1.67294E+04  4.84900E+04 -3.46365E+04  4.80772E+04 -6.77986E+04  8.21157E+01
 -5.41484E+04 -5.73189E+04 -7.09640E+03 -7.86182E+04  3.44753E+04 -5.64016E+04  4.92895E+04 -1.81922E+04
  4.45434E+04  1.15375E+04  3.26895E+04  2.63027E+04  1.58364E+04  3.02214E+04 -5.51339E+03  2.74548E+04
 -2.20284E+04  1.21425E+04 -1.82507E+04 -5.33717E+03  6.49026E+03 -7.32004E+03  2.30392E+04  1.35077E+04
  6.89020E+03  3.66887E+04 -3.31944E+04  3.71122E+04 -6.53758E+04  1.89987E+03 -5.84725E+04 -4.41898E+04
 -1.25334E+04 -6.52419E+04  4.13691E+04 -4.70432E+04  6.03746E+04 -2.35612E+03  3.60730E+04  3.40064E+04
 -5.44767E+03  3.88704E+04 -3.14029E+04  1.81933E+04 -3.27018E+04 -3.86328E+03 -1.87479E+04 -1.15974E+04
 -9.08754E+03 -1.44677E+04 -4.28400E+02 -1.97191E+04  8.12742E+03 -2.32785E+04  1.56775E+04 -1.29681E+04
  1.07022E+04  5.81176E+03 -9.99228E+03  1.27358E+04 -2.32077E+04 -5.99858E+03 -8.59683E+03 -3.63553E+04
  2.45872E+04 -4.62917E+04  5.12856E+04 -2.05234E+04  4.78852E+04  2.02444E+04  1.71110E+04  4.64244E+04
 -1.67629E+04  3.53704E+04 -2.72382E+04  2.44150E+03 -1.12467E+04 -2.91612E+04  2.17627E+04 -3.59357E+04
  4.35738E+04 -1.04687E+04  3.92724E+04  2.48156E+04  2.07541E+04  4.94620E+04 -8.17611E+03  5.46359E+04
 -3.43601E+04  3.70995E+04 -4.61378E+04  1.08487E+04 -4.65112E+04 -1.83029E+04 -2.51388E+04 -4.09897E+04
  7.69476E+03 -4.06340E+04  3.31046E+04 -1.64841E+04  3.16791E+04  1.11916E+04  4.97028E+03  2.02867E+04
 -1.38890E+04  9.44594E+03 -1.08827E+04 -7.85068E+03  5.85665E+03 -1.15300E+04  1.85533E+04  5.59491E+03
  1.52385E+04  2.23703E+04 -5.24944E+03  2.65749E+04 -2.33351E+04  1.33736E+04 -3.05678E+04 -3.32604E+03
 -2.39788E+04 -1.81562E+04 -1.09434E+04 -2.39339E+04  4.44283E+03 -2.40185E+04  1.86917E+04 -2.15655E+04
  3.00839E+04 -1.38867E+04  3.65252E+04  4.36398E+03  2.58205E+04  2.31640E+04  4.27517E+03  4.01294E+04
 -1.89665E+04  3.32130E+04 -2.98000E+04  1.13685E+04 -2.18333E+04 -1.01988E+04 -4.89007E+03 -1.30014E+04
  1.16170E+03 -1.60130E+03 -6.80480E+03  7.82968E+03 -1.86491E+04  5.15764E+03 -1.93652E+04 -8.72051E+03
 -1.17307E+04 -2.18658E+04  5.72689E+03 -2.63949E+04  1.75066E+04 -1.87927E+04  2.11723E+04 -1.92459E+03
  1.34607E+04  1.53141E+04 -1.42267E+03  2.24726E+04 -1.58024E+04  1.25197E+04 -2.18497E+04 -4.73565E+03
 -1.63274E+04 -1.99682E+04 -2.21735E+03 -2.64804E+04  1.18797E+04 -2.23264E+04  2.21572E+04 -1.08622E+04
  2.05829E+04 -9.23452E+01  1.51552E+04  4.77475E+03  8.31871E+03  1.20682E+03  1.15138E+04 -2.17306E+03
  2.06231E+04  3.01593E+03  2.33841E+04  1.70798E+04  1.57682E+04  3.55099E+04 -2.62425E+03  4.11339E+04
 -2.35732E+04  3.36637E+04 -3.84825E+04  1.77422E+04 -4.13334E+04 -3.03542E+03 -3.34372E+04 -2.39982E+04
 -1.40455E+04 -3.42622E+04  1.19740E+04 -3.02381E+04  2.58036E+04 -1.46663E+04  2.28470E+04  6.87637E+03
  7.68577E+03  1.75329E+04 -1.06488E+04  1.42779E+04 -1.89166E+04  2.82182E+03 -1.46033E+04 -1.21256E+04
 -2.45714E+02 -1.79636E+04  9.31639E+03 -1.35842E+04  1.23344E+04 -1.19967E+03  2.61748E+03  7.90239E+03
 -8.07764E+03  3.69836E+03 -8.22442E+03 -6.55792E+03 -1.43716E+03 -1.63036E+04  1.13469E+04 -1.78143E+04
  2.11775E+04 -1.00342E+04  2.33034E+04  3.17508E+03  2.02724E+04  1.68916E+04  9.58849E+03  2.59048E+04
 -4.64533E+03  2.79582E+04 -1.83156E+04  1.76260E+04 -2.01068E+04  3.96093E+03 -1.42031E+04 -5.19556E+03
 -6.16464E+03 -6.50765E+03 -6.62210E+02  4.96736E+02 -2.70362E+03  3.16543E+03 -6.61830E+03  5.28093E+03
 -1.31218E+04 -9.50453E+02 -1.36703E+04 -1.10601E+04 -5.43141E+03 -1.82671E+04  5.74894E+03 -1.40031E+04
  1.18488E+04 -5.88900E+03  8.03784E+03  3.76395E+03 -3.77404E+02  5.37364E+03 -6.79402E+03 -2.11330E+02
 -6.84861E+03 -9.01501E+03 -1.25684E+03 -1.35418E+04  8.00047E+03 -1.46191E+04  1.80444E+04 -8.00710E+03
  2.11285E+04  2.02512E+03  1.50487E+04  1.26510E+04  2.94168E+03  1.68255E+04 -8.82871E+03  1.40477E+04
 -1.14543E+04  4.37739E+03 -6.29502E+03 -3.21759E+03  1.78265E+03 -3.95771E+03  7.35744E+03 -1.05132E+03
  6.67506E+03  6.44436E+03  1.16401E+03  1.14907E+04 -8.18707E+03  1.04067E+04 -1.39922E+04  2.81507E+03
 -9.52897E+03 -7.35301E+03  6.18285E+02 -1.22730E+04  7.79351E+03 -6.52452E+03  8.37223E+03  2.52797E+03
  1.76119E+03  8.80084E+03 -7.57287E+03  1.00833E+04 -1.19744E+04  4.29520E+03 -1.22350E+04 -4.42213E+03
 -6.67196E+03 -1.40004E+04  3.36527E+03 -1.55447E+04  1.31642E+04 -9.50707E+03  1.45195E+04  2.63163E+03
  8.69282E+03  1.15176E+04 -1.26316E+03  1.37710E+04 -1.01976E+04  7.85091E+03 -1.11278E+04 -1.01410E+03
 -1.00610E+04 -9.41311E+03 -1.10385E+03 -1.05892E+04  5.47740E+03 -8.35450E+03  6.73856E+03 -3.50857E+03
  4.25475E+03  1.56577E+03 -5.10704E+02  1.78070E+03 -5.39960E+02 -2.82104E+03  2.15430E+03 -6.27134E+03
  9.88362E+03 -3.85219E+03  1.36940E+04  1.12802E+03  1.37992E+04  9.25471E+03  9.15919E+03  1.76256E+04
 -3.98770E+03  2.02715E+04 -1.71642E+04  1.55990E+04 -2.22286E+04  2.76631E+03 -1.78122E+04 -7.49392E+03
 -8.90055E+03 -1.45659E+04 -4.25120E+02 -1.27605E+04  4.49345E+03 -7.04712E+03  4.41553E+03 -4.13554E+03
  3.54914E+03 -2.58181E+03  3.62572E+03 -3.80167E+03  5.22201E+03 -2.71228E+03  7.06490E+03 -7.36407E+02
  9.32377E+03  1.99854E+03  4.69649E+03  8.28450E+03 -2.19053E+03  9.26222E+03 -9.51113E+03  7.36506E+03
 -1.23833E+04 -1.42742E+03 -7.39334E+03 -8.92525E+03 -1.29259E+03 -1.35214E+04  7.73484E+03 -1.29405E+04
  1.33338E+04 -7.13275E+03  1.64349E+04  2.19381E+03  1.13099E+04  1.15461E+04  1.91444E+03  1.49337E+04
 -6.31710E+03  1.22488E+04 -8.86822E+03  4.45867E+03 -5.98288E+03 -1.45392E+03 -1.92268E+03 -1.66296E+03
 -1.15082E+03 -3.80313E+02 -2.10558E+03  2.43241E+03 -5.26679E+03  1.94959E+03 -8.89791E+03 -9.97579E+02
 -6.02580E+03 -8.89763E+03  7.32399E+01 -1.22343E+04  7.09142E+03 -1.15674E+04  1.22557E+04 -3.27270E+03
  1.19676E+04  5.97990E+03  5.60906E+03  1.10405E+04 -2.53959E+03  1.24580E+04 -8.39502E+03  7.86776E+03
 -1.16603E+04  5.25606E+02 -8.62625E+03 -7.15725E+03 -8.36174E+02 -1.01045E+04  5.14156E+03 -7.62531E+03
  7.34775E+03 -2.52245E+03  5.50487E+03  2.61760E+03  1.65569E+03  3.47316E+03  1.42971E+03  1.71210E+03
  2.56068E+03  9.81004E+02  3.03211E+03  1.43858E+03  3.77073E+03  4.53572E+03  3.18352E+03  6.53056E+03
 -2.92084E+03  9.41537E+03 -7.86599E+03  9.81602E+03 -1.20661E+04  2.47690E+03 -1.30407E+04 -4.93823E+03
 -6.43048E+03 -1.21699E+04  1.51246E+03 -1.34969E+04  7.34697E+03 -8.61741E+03  9.97627E+03 -1.98606E+03
  7.44190E+03  4.38364E+03  2.03858E+03  6.95675E+03 -3.30172E+03  4.15976E+03 -4.36096E+03 -7.08950E+02
 -2.23311E+03 -5.08040E+03  2.78317E+03 -5.34545E+03  5.15492E+03 -2.84208E+03  4.92771E+03  1.02920E+03
  2.61972E+03  2.17473E+03  1.59490E+03  1.71550E+03 -6.10347E+02  1.80687E+03  1.88140E+03 -7.01447E+02
  1.59270E+03 -7.56301E+02  5.08143E+03  1.70202E+03  2.78336E+03  6.39632E+03 -8.93217E+02  8.50553E+03
 -5.70209E+03  5.01418E+03 -7.68294E+03  1.43026E+03 -6.93214E+03 -2.46168E+03 -2.13664E+03 -4.59668E+03
  7.92234E+02 -4.65696E+03  2.86345E+03 -2.23582E+03  2.61198E+03  2.44775E+03 -1.42830E+03  3.85876E+03
 -4.91712E+03  2.68078E+03 -5.35643E+03 -3.22179E+03 -3.31581E+03 -6.82007E+03  1.28757E+03 -6.26762E+03
  3.51803E+03 -3.68048E+03  4.28229E+03 -7.36691E+02  3.91944E+03  1.57396E+03  4.40715E+02  3.57829E+03
 -2.51984E+03  9.87951E+02 -2.87745E+03 -1.95233E+03  9.34519E+02 -5.00964E+03  5.80581E+03 -4.33393E+03
  7.04957E+03  1.86435E+02  7.44819E+03  5.12454E+03  2.33485E+03  7.67408E+03 -2.78884E+03  7.28048E+03
 -6.15144E+03  3.35290E+03 -6.14112E+03 -1.32870E+03 -3.76428E+03 -5.29057E+03  1.10414E+03 -4.22563E+03
  4.81777E+03 -2.59272E+03  3.96048E+03  1.55479E+03  1.08833E+03  4.43642E+03 -7.34989E+02  3.92635E+03
 -1.88729E+03  2.40173E+03 -1.90974E+03  6.20007E+02 -7.44290E+02  1.21779E+03 -1.28790E+03  1.52441E+03
 -2.15937E+03  3.04211E+03 -5.21351E+03  2.52807E+03 -7.49487E+03  2.30213E+02 -8.58996E+03 -4.89888E+03
 -4.58280E+03 -9.95719E+03  1.98983E+03 -1.12999E+04  7.02427E+03 -8.95040E+03  1.08864E+04 -3.49318E+03
  1.00449E+04  1.64680E+03  6.18360E+03  6.64882E+03  1.55492E+02  7.81815E+03 -3.12000E+03  5.66771E+03
 -4.50961E+03  1.90621E+03 -2.95709E+03 -7.71142E+02 -7.58022E+02 -7.09572E+02 -5.65565E+02 -2.41387E+02
 -1.86242E+03  3.82269E+02 -1.63442E+03 -4.23777E+02 -3.33273E+02 -2.15354E+03  3.64637E+02 -2.85260E+03
  3.86741E+03 -2.67542E+03  4.14692E+03 -2.15199E+02  5.27608E+03  4.07185E+03  1.10242E+03  7.25545E+03
 -3.12201E+03  8.95886E+03 -8.16832E+03  5.46443E+03 -8.90009E+03 -8.70800E+02 -6.78527E+03 -5.45875E+03
 -2.97740E+03 -7.37715E+03  2.12028E+03 -7.08391E+03  4.48521E+03 -3.84365E+03  4.75528E+03  3.50819E+02
  3.01540E+03  2.30247E+03 -1.01264E+01  2.26662E+03 -1.33166E+03 -4.79310E+02  3.23216E+02 -1.72963E+03
  2.33526E+03 -7.00881E+02  2.62629E+03  1.17799E+03  2.11272E+03  3.14368E+03  1.26332E+02  3.85096E+03
 -3.44080E+03  3.24977E+03 -4.72782E+03  3.82316E+02 -4.46841E+03 -3.18787E+03 -7.07592E+02 -5.87375E+03
  3.60265E+03 -5.06500E+03  5.34311E+03 -1.41148E+03  5.62977E+03  1.14585E+03  3.20081E+03  4.38009E+03
  7.59668E+02  4.66643E+03 -1.85407E+03  4.16698E+03 -3.45452E+03  2.35752E+03 -2.59276E+03  2.32720E+02
 -1.37622E+03  1.02810E+02 -1.05731E+03  5.27550E+02 -2.56318E+03  8.09603E+02 -3.50123E+03 -6.51627E+02
 -3.37656E+03 -2.24961E+03 -7.75827E+02 -4.67877E+03  2.34677E+03 -5.26802E+03  4.18793E+03 -2.33753E+03
  4.73164E+03  7.84708E+02  2.09261E+03  3.43535E+03 -2.01553E+02  5.00833E+03 -3.62805E+03  3.07416E+03
