 $NMID ID='MM_0lb_SNR800_7hz_g45_29.RAW', FMTDAT='(8E13.5)'
 TRAMP=1., VOLUME=1. $END
  3.09772E+05  2.82095E+01  3.37796E+05  2.50868E+05  8.48483E+04  3.38799E+05 -1.32790E+05  2.52261E+05
 -1.90883E+05  8.44505E+04 -1.12646E+05 -3.26216E+04  2.47159E+02 -5.08193E+04  5.37173E+04 -4.49940E+02
  3.54064E+04  5.22614E+04 -1.63320E+04  7.62512E+04 -6.13585E+04  6.44891E+04 -8.62078E+04  3.28108E+04
 -8.29096E+04 -1.22376E+04 -5.81732E+04 -5.25870E+04 -1.48405E+04 -7.10253E+04  2.81331E+04 -4.71682E+04
  4.12997E+04  3.91333E+03  1.64436E+04  4.83964E+04 -3.51981E+04  4.86374E+04 -6.86534E+04  4.20717E+02
 -5.57229E+04 -5.86891E+04 -7.48346E+03 -7.94427E+04  3.50647E+04 -5.70618E+04  5.00094E+04 -1.86113E+04
  4.56394E+04  1.11321E+04  3.32502E+04  2.72983E+04  1.59192E+04  3.07329E+04 -6.17845E+03  2.79724E+04
 -2.21586E+04  1.24684E+04 -1.81384E+04 -6.52240E+03  7.47780E+03 -7.16220E+03  2.35772E+04  1.43749E+04
  7.26891E+03  3.81184E+04 -3.42755E+04  3.77536E+04 -6.63485E+04  1.94731E+03 -5.93693E+04 -4.50039E+04
 -1.25360E+04 -6.68329E+04  4.19961E+04 -4.74467E+04  6.21409E+04 -2.46894E+03  3.73275E+04  3.52072E+04
 -5.31563E+03  4.08241E+04 -3.26957E+04  1.99501E+04 -3.41951E+04 -3.33972E+03 -2.00965E+04 -1.22184E+04
 -9.77231E+03 -1.58630E+04 -2.33040E+02 -2.04737E+04  8.61081E+03 -2.36375E+04  1.55372E+04 -1.24597E+04
  1.05597E+04  6.44427E+03 -1.12634E+04  1.25447E+04 -2.45832E+04 -7.25727E+03 -8.98772E+03 -3.86171E+04
  2.60644E+04 -4.81170E+04  5.31713E+04 -2.16301E+04  4.96208E+04  2.12241E+04  1.80622E+04  4.81091E+04
 -1.71780E+04  3.72783E+04 -2.79557E+04  3.16519E+03 -1.28196E+04 -2.95461E+04  2.21347E+04 -3.80823E+04
  4.56272E+04 -1.13957E+04  4.19665E+04  2.51261E+04  2.24480E+04  5.23781E+04 -8.35653E+03  5.80576E+04
 -3.61232E+04  3.94660E+04 -4.94446E+04  1.14319E+04 -4.89734E+04 -1.93775E+04 -2.69231E+04 -4.31627E+04
  8.26414E+03 -4.31853E+04  3.47772E+04 -1.79402E+04  3.27278E+04  1.11210E+04  5.78544E+03  2.14066E+04
 -1.40596E+04  9.88361E+03 -1.16963E+04 -7.39039E+03  6.01799E+03 -1.21098E+04  1.90553E+04  5.50805E+03
  1.55387E+04  2.29405E+04 -4.96944E+03  2.77172E+04 -2.39822E+04  1.53676E+04 -3.19594E+04 -2.42470E+03
 -2.71136E+04 -1.93204E+04 -1.27604E+04 -2.62821E+04  4.27378E+03 -2.78088E+04  2.05586E+04 -2.45751E+04
  3.39662E+04 -1.46942E+04  4.04611E+04  5.84294E+03  2.84049E+04  2.60387E+04  4.39380E+03  4.27918E+04
 -2.05227E+04  3.53546E+04 -3.15392E+04  1.23374E+04 -2.27867E+04 -9.87880E+03 -4.94118E+03 -1.27455E+04
  4.04291E+02 -8.06696E+02 -8.53240E+03  8.37287E+03 -2.14030E+04  5.01119E+03 -2.19573E+04 -1.02602E+04
 -1.27429E+04 -2.49638E+04  6.27020E+03 -2.98969E+04  1.99078E+04 -2.13079E+04  2.43009E+04 -1.86593E+03
  1.55545E+04  1.67568E+04 -1.54440E+03  2.47119E+04 -1.80468E+04  1.40718E+04 -2.54327E+04 -5.17404E+03
 -1.81513E+04 -2.23729E+04 -2.30867E+03 -2.96712E+04  1.37692E+04 -2.50508E+04  2.42380E+04 -1.31222E+04
  2.32720E+04 -1.48032E+02  1.68727E+04  5.65028E+03  9.36142E+03  1.66321E+03  1.29141E+04 -2.01425E+03
  2.36235E+04  3.16463E+03  2.78177E+04  1.95573E+04  1.91330E+04  4.06935E+04 -2.44992E+03  4.75140E+04
 -2.73760E+04  4.00102E+04 -4.53475E+04  2.11459E+04 -4.86524E+04 -3.49761E+03 -3.91885E+04 -2.83330E+04
 -1.50623E+04 -4.08145E+04  1.46330E+04 -3.49385E+04  3.01428E+04 -1.68346E+04  2.63431E+04  9.23456E+03
  8.34599E+03  2.02264E+04 -1.26511E+04  1.67712E+04 -2.19381E+04  2.30309E+03 -1.61699E+04 -1.38610E+04
 -7.90839E+02 -2.07116E+04  1.13249E+04 -1.54977E+04  1.48449E+04 -1.10102E+03  4.12420E+03  9.62687E+03
 -9.43976E+03  5.18056E+03 -1.05484E+04 -7.31578E+03 -2.13718E+03 -1.97451E+04  1.28623E+04 -2.17998E+04
  2.53870E+04 -1.26230E+04  2.91687E+04  3.01151E+03  2.57664E+04  2.06577E+04  1.22535E+04  3.27383E+04
 -6.05595E+03  3.44387E+04 -2.26134E+04  2.15224E+04 -2.49384E+04  4.10454E+03 -1.70608E+04 -6.77194E+03
 -6.49965E+03 -8.29329E+03 -5.60295E+02  2.18642E+02 -3.21331E+03  4.17828E+03 -7.86698E+03  6.29574E+03
 -1.56766E+04 -9.23335E+02 -1.61597E+04 -1.30671E+04 -6.09942E+03 -2.10825E+04  7.31201E+03 -1.72332E+04
  1.43812E+04 -7.12328E+03  1.00802E+04  4.45164E+03 -2.97056E+02  7.26416E+03 -9.08712E+03 -3.71713E+02
 -8.66014E+03 -1.13469E+04 -1.40173E+03 -1.77434E+04  9.97406E+03 -1.82904E+04  2.25912E+04 -1.01288E+04
  2.58617E+04  2.63332E+03  1.93733E+04  1.66351E+04  3.50959E+03  2.16861E+04 -1.02377E+04  1.71929E+04
 -1.42767E+04  4.95191E+03 -7.23624E+03 -4.10189E+03  2.81138E+03 -4.92390E+03  8.82634E+03 -1.11901E+03
  8.27577E+03  8.00239E+03  1.50944E+03  1.41758E+04 -1.05999E+04  1.35711E+04 -1.74708E+04  2.74552E+03
 -1.21132E+04 -9.43380E+03  3.85855E+02 -1.53585E+04  1.02338E+04 -7.68040E+03  1.09342E+04  3.96290E+03
  2.85932E+03  1.16160E+04 -9.45465E+03  1.34818E+04 -1.61424E+04  5.63954E+03 -1.64784E+04 -5.92003E+03
 -9.18839E+03 -1.83968E+04  4.63970E+03 -2.16613E+04  1.81894E+04 -1.22352E+04  1.96257E+04  3.64578E+03
  1.16848E+04  1.55336E+04 -2.11815E+03  1.79750E+04 -1.32893E+04  9.67473E+03 -1.52108E+04 -1.66822E+03
 -1.19103E+04 -1.16125E+04 -2.14281E+03 -1.38742E+04  7.29717E+03 -1.12473E+04  9.26457E+03 -3.66321E+03
  5.27218E+03  2.51920E+03 -1.64828E+03  2.34244E+03 -1.19800E+03 -4.26277E+03  2.92645E+03 -9.20829E+03
  1.41370E+04 -5.72344E+03  1.97225E+04  2.25768E+03  1.88014E+04  1.28834E+04  1.13456E+04  2.43703E+04
 -5.71366E+03  2.77682E+04 -2.32863E+04  2.03392E+04 -3.00818E+04  4.16202E+03 -2.45212E+04 -1.10559E+04
 -1.21321E+04 -1.99347E+04 -8.07792E+02 -1.67271E+04  5.80002E+03 -9.97378E+03  6.41364E+03 -6.28945E+03
  4.51946E+03 -3.84480E+03  4.41078E+03 -4.26821E+03  6.49924E+03 -4.15072E+03  9.10138E+03 -1.89853E+03
  1.26751E+04  2.69145E+03  6.78904E+03  1.13145E+04 -2.81317E+03  1.42141E+04 -1.31146E+04  1.07887E+04
 -1.75120E+04 -1.12629E+03 -1.14491E+04 -1.25054E+04 -1.30474E+03 -1.90911E+04  1.04591E+04 -1.90226E+04
  1.99657E+04 -1.00489E+04  2.33183E+04  2.81753E+03  1.62707E+04  1.61712E+04  2.62069E+03  2.16952E+04
 -8.51316E+03  1.68130E+04 -1.23358E+04  6.08924E+03 -8.40730E+03 -1.80637E+03 -3.89116E+03 -2.78813E+03
 -1.79086E+03 -5.68620E+02 -2.56930E+03  3.28825E+03 -7.44339E+03  2.81365E+03 -1.20934E+04 -2.13677E+03
 -9.47407E+03 -1.15545E+04 -5.16844E+02 -1.81154E+04  1.10917E+04 -1.63624E+04  1.84229E+04 -5.00835E+03
  1.74480E+04  9.10144E+03  8.69336E+03  1.63419E+04 -3.41177E+03  1.81977E+04 -1.30104E+04  1.13364E+04
 -1.69089E+04  3.79228E+02 -1.34480E+04 -1.08221E+04 -9.07329E+02 -1.52796E+04  7.76221E+03 -1.13707E+04
  1.13875E+04 -3.68412E+03  7.74074E+03  2.83547E+03  2.69491E+03  5.01838E+03  1.59835E+03  3.08420E+03
  2.99619E+03  1.67132E+03  4.37931E+03  2.65704E+03  5.06906E+03  5.63795E+03  4.49664E+03  9.76033E+03
 -3.25154E+03  1.51315E+04 -1.30264E+04  1.44796E+04 -1.94946E+04  3.51549E+03 -1.93563E+04 -8.21318E+03
 -9.45668E+03 -1.92117E+04  2.98908E+03 -2.05190E+04  1.18250E+04 -1.32096E+04  1.54867E+04 -3.46544E+03
  1.12989E+04  7.37691E+03  2.57163E+03  1.10834E+04 -5.38718E+03  7.55297E+03 -8.08618E+03 -1.61616E+03
 -3.94564E+03 -7.58807E+03  4.17512E+03 -8.28381E+03  7.92759E+03 -3.86411E+03  7.55992E+03  1.48146E+03
  4.65105E+03  3.97500E+03  1.90982E+03  3.73290E+03 -8.39491E+02  2.59999E+03  2.18450E+03 -4.95773E+02
  3.37932E+03 -1.50430E+03  7.71266E+03  3.37162E+03  4.76811E+03  1.02517E+04 -1.53492E+03  1.39614E+04
 -9.80443E+03  9.11604E+03 -1.24832E+04  3.07671E+03 -1.10210E+04 -3.80028E+03 -4.42086E+03 -8.04164E+03
  1.21822E+03 -7.80448E+03  5.60804E+03 -3.02013E+03  4.27372E+03  3.94989E+03 -1.88021E+03  6.20493E+03
 -8.07983E+03  4.26585E+03 -9.42454E+03 -3.98312E+03 -5.23444E+03 -1.08515E+04  1.68891E+03 -1.08134E+04
  6.39610E+03 -6.50903E+03  8.11080E+03 -1.40448E+03  6.68624E+03  3.53933E+03  1.06105E+03  5.66151E+03
 -3.96852E+03  1.84357E+03 -4.49926E+03 -4.36321E+03  1.53255E+03 -8.12213E+03  1.02411E+04 -6.83959E+03
  1.28182E+04  9.20747E+02  1.18665E+04  8.52469E+03  4.07870E+03  1.38087E+04 -4.85237E+03  1.26543E+04
 -1.01324E+04  5.83115E+03 -1.10102E+04 -1.78393E+03 -6.48109E+03 -8.53559E+03  2.00699E+03 -8.31596E+03
  8.00820E+03 -4.19182E+03  7.20249E+03  3.42904E+03  2.47605E+03  7.86917E+03 -1.01459E+03  6.28167E+03
 -3.49162E+03  3.59445E+03 -3.03999E+03  1.21071E+03 -1.93598E+03  1.75661E+03 -1.80118E+03  2.69539E+03
 -3.65154E+03  4.93603E+03 -8.82174E+03  4.91317E+03 -1.30290E+04  3.99098E+01 -1.46588E+04 -8.69239E+03
 -7.61162E+03 -1.80154E+04  3.53325E+03 -2.06988E+04  1.26476E+04 -1.60098E+04  1.94499E+04 -6.14507E+03
  1.83449E+04  4.57265E+03  1.12389E+04  1.28482E+04  1.53683E+03  1.44518E+04 -5.36970E+03  1.04895E+04
 -7.99876E+03  3.81283E+03 -4.72852E+03 -1.64057E+03 -1.38699E+03 -1.49880E+03 -2.42748E+02 -2.27395E+02
 -1.87936E+03  6.04333E+02 -2.43861E+03 -7.28865E+02 -1.02204E+03 -3.25869E+03  9.29440E+02 -5.32112E+03
  6.15278E+03 -4.36856E+03  8.78152E+03 -7.27648E+01  9.70970E+03  7.70409E+03  2.84975E+03  1.44523E+04
 -6.78818E+03  1.59884E+04 -1.46118E+04  9.40754E+03 -1.76608E+04 -1.47539E+03 -1.36562E+04 -1.10301E+04
 -4.91969E+03 -1.51124E+04  4.42425E+03 -1.39713E+04  9.51805E+03 -7.65472E+03  9.85523E+03  5.70489E+02
  5.38130E+03  4.77164E+03 -2.19269E+02  3.83632E+03 -2.67042E+03 -5.34748E+02  2.81833E+02 -3.42019E+03
  4.80030E+03 -2.20099E+03  6.24279E+03  1.59962E+03  4.00137E+03  5.37048E+03 -2.13406E+02  7.77561E+03
 -6.74257E+03  6.88053E+03 -1.01626E+04  5.50351E+02 -9.27807E+03 -7.19151E+03 -1.63429E+03 -1.23792E+04
  7.08142E+03 -9.94094E+03  1.20064E+04 -3.34288E+03  1.09342E+04  3.09968E+03  6.72432E+03  8.96394E+03
  9.49436E+02  1.00638E+04 -3.59694E+03  8.16971E+03 -6.26826E+03  4.61159E+03 -5.46201E+03  9.71288E+02
 -2.70016E+03 -2.34164E+02 -2.24398E+03  1.48349E+03 -4.97245E+03  1.62092E+03 -7.43044E+03 -1.54919E+03
 -6.84427E+03 -6.07939E+03 -2.38398E+03 -9.95160E+03  4.40148E+03 -1.02846E+04  9.40853E+03 -4.76382E+03
  1.02982E+04  1.44407E+03  6.14846E+03  7.18727E+03 -1.10374E+03  1.06402E+04 -8.09650E+03  6.49954E+03
