 $NMID ID='MM_0lb_SNR800_20hz_g50_40.RAW', FMTDAT='(8E13.5)'
 TRAMP=1., VOLUME=1. $END
  3.09819E+05  4.12783E+02  3.37360E+05  2.50404E+05  8.42383E+04  3.37279E+05 -1.32508E+05  2.50014E+05
 -1.89662E+05  8.25192E+04 -1.10798E+05 -3.29054E+04  1.59561E+03 -5.02134E+04  5.39682E+04  4.69497E+01
  3.50931E+04  5.27830E+04 -1.71120E+04  7.48200E+04 -6.05306E+04  6.25279E+04 -8.28111E+04  3.15208E+04
 -7.92726E+04 -1.13397E+04 -5.59869E+04 -5.01048E+04 -1.49086E+04 -6.78609E+04  2.66588E+04 -4.45515E+04
  3.87650E+04  3.70526E+03  1.56907E+04  4.68806E+04 -3.38830E+04  4.62680E+04 -6.51446E+04 -3.98826E+02
 -5.17963E+04 -5.58400E+04 -6.41072E+03 -7.51715E+04  3.32352E+04 -5.27938E+04  4.61474E+04 -1.59413E+04
  4.12919E+04  1.10290E+04  3.06005E+04  2.44252E+04  1.54999E+04  2.80467E+04 -4.35368E+03  2.68036E+04
 -2.17573E+04  1.28957E+04 -1.95324E+04 -4.13683E+03  4.01770E+03 -7.55538E+03  2.11246E+04  1.07480E+04
  7.63757E+03  3.30421E+04 -3.03716E+04  3.36904E+04 -6.10002E+04  2.18801E+03 -5.50981E+04 -4.08443E+04
 -1.22998E+04 -6.05592E+04  3.80632E+04 -4.30648E+04  5.49240E+04 -1.98907E+03  3.13361E+04  3.02525E+04
 -6.56310E+03  3.25332E+04 -2.79993E+04  1.31553E+04 -2.72800E+04 -5.51276E+03 -1.39037E+04 -9.67163E+03
 -7.36774E+03 -1.11161E+04 -1.28753E+03 -1.64444E+04  6.29530E+03 -2.23878E+04  1.50190E+04 -1.38305E+04
  1.23147E+04  3.76238E+03 -6.04081E+03  1.32696E+04 -1.88943E+04 -1.95943E+03 -7.84886E+03 -2.99165E+04
  2.04505E+04 -3.99900E+04  4.40294E+04 -1.83364E+04  4.14090E+04  1.80348E+04  1.40307E+04  4.12508E+04
 -1.53879E+04  3.08468E+04 -2.30495E+04  8.83630E+02 -8.15573E+03 -2.59745E+04  2.03921E+04 -3.06923E+04
  3.77688E+04 -6.97542E+03  3.06752E+04  2.25116E+04  1.51221E+04  4.19205E+04 -7.91219E+03  4.43075E+04
 -2.79254E+04  2.91630E+04 -3.65142E+04  8.40415E+03 -3.75772E+04 -1.45265E+04 -2.08803E+04 -3.36656E+04
  7.11079E+03 -3.35079E+04  2.88128E+04 -1.23938E+04  2.62974E+04  1.05697E+04  2.89804E+03  1.76587E+04
 -1.29817E+04  7.25038E+03 -9.28611E+03 -7.55084E+03  5.97012E+03 -1.00720E+04  1.70894E+04  6.50694E+03
  1.22633E+04  2.13843E+04 -6.59760E+03  2.31029E+04 -2.14330E+04  8.60223E+03 -2.43762E+04 -6.74435E+03
 -1.60160E+04 -1.59325E+04 -5.15992E+03 -1.61617E+04  3.99542E+03 -1.39229E+04  1.18787E+04 -1.36559E+04
  2.03663E+04 -1.13563E+04  2.73431E+04  9.40936E+02  2.06423E+04  1.57022E+04  4.14817E+03  3.15116E+04
 -1.56523E+04  2.67555E+04 -2.53837E+04  9.20233E+03 -1.93084E+04 -1.02733E+04 -3.63125E+03 -1.40002E+04
  2.66994E+03 -4.48971E+03 -2.32562E+03  5.07779E+03 -1.23782E+04  4.99497E+03 -1.29212E+04 -4.75440E+03
 -8.36545E+03 -1.48009E+04  4.14830E+03 -1.87217E+04  1.19950E+04 -1.36096E+04  1.39415E+04 -1.58304E+03
  8.58480E+03  1.00763E+04 -7.93959E+02  1.51898E+04 -9.77112E+03  8.55227E+03 -1.46232E+04 -3.05223E+03
 -1.06636E+04 -1.33321E+04 -1.34162E+03 -1.82212E+04  8.12777E+03 -1.47620E+04  1.52394E+04 -6.92277E+03
  1.40555E+04  5.82333E+02  1.01241E+04  3.75001E+03  4.99606E+03  2.67383E+02  7.08240E+03 -1.26434E+03
  1.33538E+04  2.62352E+03  1.36641E+04  1.22322E+04  8.47189E+03  2.38172E+04 -3.09127E+03  2.48614E+04
 -1.49109E+04  1.88152E+04 -2.27492E+04  8.51755E+03 -2.30720E+04 -1.93229E+03 -2.01159E+04 -1.31924E+04
 -9.57376E+03 -1.88596E+04  6.20021E+03 -1.77531E+04  1.55699E+04 -1.05119E+04  1.46822E+04  3.38821E+03
  6.28210E+03  1.05486E+04 -6.71974E+03  9.86569E+03 -1.26603E+04  2.64685E+03 -9.93066E+03 -7.44044E+03
 -6.29376E+01 -1.17698E+04  5.94456E+03 -8.86676E+03  7.24533E+03 -1.15362E+03  1.15865E+03  4.78607E+03
 -5.32803E+03  9.30792E+02 -3.18883E+03 -4.23908E+03  9.33663E+02 -9.43681E+03  7.37647E+03 -9.23693E+03
  1.13273E+04 -4.05378E+03  1.08344E+04  2.62977E+03  9.52949E+03  8.80638E+03  4.25590E+03  1.25326E+04
 -1.50528E+03  1.45441E+04 -8.58721E+03  9.59601E+03 -1.03135E+04  2.84298E+03 -7.53619E+03 -1.42920E+03
 -4.53410E+03 -2.93315E+03 -8.33465E+02  1.52533E+03 -2.00922E+03  1.76763E+03 -3.24858E+03  3.33329E+03
 -7.60163E+03 -1.11801E+02 -8.00068E+03 -6.78827E+03 -3.13760E+03 -1.07948E+04  3.21146E+03 -7.79280E+03
  6.84821E+03 -3.50928E+03  5.02132E+03  1.85403E+03  5.81801E+02  2.69774E+03 -3.01721E+03 -1.61881E+00
 -3.01160E+03 -4.54871E+03 -6.65932E+02 -6.47615E+03  3.51881E+03 -7.29401E+03  9.14718E+03 -3.35910E+03
  1.07017E+04  6.13273E+02  7.86951E+03  5.16655E+03  1.56850E+03  7.60708E+03 -4.93723E+03  7.49018E+03
 -6.47537E+03  2.50917E+03 -3.33387E+03 -8.88792E+02  1.42096E+03 -1.85359E+03  4.40355E+03 -9.61548E+02
  3.82153E+03  3.19157E+03  1.06897E+03  5.96302E+03 -3.82069E+03  5.83164E+03 -7.12763E+03  1.91181E+03
 -4.17693E+03 -3.18525E+03  3.87742E+02 -6.10188E+03  3.44330E+03 -3.07980E+03  3.08209E+03  8.75875E+02
  3.94485E+02  2.71558E+03 -3.70729E+03  4.05745E+03 -4.05210E+03  2.07169E+03 -3.61714E+03 -8.76986E+02
 -2.39830E+03 -5.14989E+03  8.13903E+02 -5.88491E+03  5.04785E+03 -4.06858E+03  5.60331E+03  6.13177E+02
  4.24746E+03  4.46387E+03  3.14966E+02  6.46309E+03 -4.41589E+03  3.80584E+03 -4.69176E+03 -1.72680E+02
 -4.93330E+03 -4.67706E+03 -1.49538E+03 -4.36445E+03  2.18114E+03 -4.34308E+03  2.39012E+03 -2.59371E+03
  2.53044E+03 -1.55689E+02  2.72571E+02  1.07012E+03  6.32849E+02  1.73242E+02 -8.69754E+01 -1.40836E+03
  3.20185E+03 -6.24052E+02  4.10887E+03  5.01037E+02  4.70224E+03  2.31165E+03  4.65770E+03  5.94231E+03
 -8.43261E+02  7.17158E+03 -6.74843E+03  5.47057E+03 -8.66038E+03  8.72495E+02 -6.46635E+03 -1.80068E+03
 -3.67811E+03 -5.83347E+03 -5.10884E+02 -4.53464E+03  1.87373E+03 -1.60754E+03  1.44739E+03 -1.74487E+03
  1.12000E+03 -1.49437E+03  1.84650E+03 -2.24859E+03  3.22409E+03 -9.14957E+02  3.26920E+03  4.72110E+02
  4.07542E+03  1.18140E+03  7.16245E+02  3.25028E+03 -1.68464E+03  1.94187E+03 -3.72449E+03  1.96182E+03
 -4.39454E+03 -1.29325E+03 -1.22735E+03 -2.74537E+03  4.68615E+02 -4.16658E+03  2.68793E+03 -4.50843E+03
  4.20102E+03 -3.00314E+03  5.53911E+03 -6.63518E+01  4.15136E+03  3.57402E+03  1.07385E+03  4.96100E+03
 -1.43961E+03  5.09560E+03 -2.62362E+03  1.43237E+03 -1.61618E+03 -8.02973E+02 -3.86378E+02 -5.51449E+02
 -4.29887E+02  4.32464E+02 -8.29628E+02  1.98565E+03 -2.03451E+03  1.34710E+03 -3.76307E+03 -2.66305E+02
 -1.18835E+03 -3.64166E+03  7.31029E+02 -3.89175E+03  2.47375E+03 -3.65875E+03  2.72413E+03 -8.88992E+02
  3.19563E+03  1.96476E+03  1.15106E+03  2.44627E+03 -7.01245E+02  3.65651E+03 -1.82830E+03  2.15642E+03
 -3.15780E+03  4.05999E+02 -2.78934E+03 -1.81155E+03 -2.66767E+02 -2.39249E+03  9.51050E+02 -2.00446E+03
  2.14756E+03 -1.22054E+03  1.25931E+03  8.58797E+01  4.38114E+02  1.52163E+03  6.33817E+02  4.86845E+02
  1.62660E+03  5.97005E+02  1.04776E+03  7.98932E+02  8.62928E+02  1.81650E+03  1.30557E+03  1.27765E+03
 -1.02371E+03  2.10235E+03 -1.80617E+03  3.45742E+03 -2.18400E+03  9.60459E+02 -3.48792E+03 -7.24893E+01
 -1.57387E+03 -2.64147E+03  3.98408E+02 -3.64908E+03  1.15108E+03 -2.00718E+03  2.28260E+03 -7.11173E+02
  1.76490E+03  1.10233E+03  4.53122E+02  1.79855E+03 -2.47674E+02  8.57081E+02 -8.42950E+02 -3.98228E+01
 -3.89562E+02 -1.30263E+03  1.29886E+03 -1.15149E+03  1.03040E+03 -6.32679E+02  7.30033E+02  2.43578E+02
  5.79952E+02  1.69589E+00  3.38517E+02 -4.42721E+02 -1.63091E+02  6.98019E+02  1.48225E+03 -1.43782E+02
 -3.59927E+02  1.75097E+01  1.47699E+03  4.14705E+02 -1.48374E+02  1.90057E+03 -2.30879E+02  2.01161E+03
 -1.58403E+03  6.50330E+02 -1.45761E+03 -9.70460E+01 -1.80665E+03 -4.40251E+02  1.04385E+02 -6.67633E+02
  4.47110E+02 -1.07316E+03  7.72447E+02 -5.48367E+02  3.95970E+02  1.21584E+03 -5.81766E+02  7.64161E+02
 -1.10229E+03  5.16224E+02 -1.10866E+03 -9.73476E+02 -2.86878E+02 -1.74313E+03  2.33569E+02 -8.56797E+02
 -2.72910E+01 -1.07675E+02  4.46804E+02  1.45177E+02  1.15083E+03 -1.04289E+02  3.68531E+02  9.56805E+02
 -8.89598E+01  8.22256E+01 -9.48069E+02  2.37892E+02  5.58279E+02 -5.89117E+02  1.31676E+03 -5.75018E+02
  7.52964E+02 -6.54538E+01  2.57312E+03  4.06376E+02  1.06742E+03  1.14800E+03  4.31953E+01  1.30262E+03
 -1.07804E+03  5.12230E+01 -8.73695E+02  4.31506E+01 -5.98302E+02 -1.15699E+03  5.82660E+01 -3.28237E+02
  1.36083E+03 -8.58370E+02  6.36448E+02  4.77221E+02  7.58400E+01  1.07633E+03  6.23838E+02  1.02602E+03
  5.25106E+01  9.58229E+02 -8.43269E+00  6.60527E+02 -1.63204E+02  3.70539E+02 -6.37720E+02  5.03966E+02
 -6.23595E+02  1.04180E+03 -1.41235E+03  3.99880E+02 -1.39253E+03  1.43824E+02 -1.98086E+03 -6.47632E+02
 -5.05707E+02 -1.72649E+03  8.89520E+01 -2.15539E+03  3.46129E+02 -1.93802E+03  2.05218E+03 -6.85571E+02
  1.90794E+03 -4.33102E+02  9.13505E+02  9.92699E+02 -8.69205E+02  6.50714E+02 -5.00740E+02  1.03311E+03
 -8.62361E+02  5.46608E+02 -3.62756E+02  9.70044E+01 -5.29961E+02  6.31974E+02 -9.54306E+02 -1.61693E+02
 -8.55868E+02 -1.69570E+02 -8.94257E+02  3.40063E+02  2.98637E+02 -5.99828E+02 -3.22721E+02 -9.08877E+02
  9.61493E+02 -3.51192E+02 -1.15268E+02  2.60270E+02  7.05311E+02  7.02811E+02 -7.66683E+02  9.91795E+02
 -6.64763E+02  1.52660E+03 -1.08563E+03  1.09118E+03 -1.26140E+03 -1.23591E+02 -8.55879E+02 -1.06352E+03
 -7.49476E+02 -7.16794E+02  4.44324E+02 -6.72886E+02  3.28793E+02 -4.43388E+02  2.74319E+02  1.41217E+02
  5.27951E+02  1.36923E+02  1.00608E+02  4.57249E+02 -3.39373E+02 -1.60260E+02  1.27556E+02 -2.31329E+02
  4.51384E+02  2.26952E+02  1.09280E+02  2.08748E+02 -8.37880E+01  3.08944E+02  6.24243E+02 -1.16364E+02
 -4.03460E+02  1.98833E+02 -1.33474E+02  1.27271E+02 -6.61740E+02 -2.89209E+02 -8.53899E+01 -1.00683E+03
  1.81357E+02 -2.74374E+02 -3.47922E+01  4.10798E+01  4.87546E+02 -8.47308E+02  2.00619E+02  4.36869E+02
  6.77931E+02  2.29489E+02 -1.65941E+02  1.65228E+02 -2.85025E+02  4.16210E+02 -2.76015E+02 -4.51118E+01
 -8.03151E+00  7.66822E+00 -5.22670E+02  8.20188E+00 -7.07816E+02  3.45422E+01 -6.76432E+02 -1.78771E+02
 -5.74226E+02  3.41057E+02 -1.68622E+02 -6.79754E+02  7.02450E+02 -1.05215E+03  6.07757E+02 -2.97791E+02
  4.69668E+02 -1.01627E+02 -6.37279E+02  3.50267E+02 -1.78221E+02  6.78670E+02 -1.93329E+02  7.09353E+02
