 $NMID ID='MM_0lb_SNR800_15hz_g40_43.RAW', FMTDAT='(8E13.5)'
 TRAMP=1., VOLUME=1. $END
  3.09983E+05  4.91282E+02  3.37440E+05  2.50319E+05  8.47240E+04  3.37719E+05 -1.32214E+05  2.50822E+05
 -1.90176E+05  8.28688E+04 -1.11431E+05 -3.27089E+04  1.14391E+03 -5.02365E+04  5.39791E+04 -4.03690E+02
  3.48942E+04  5.27039E+04 -1.68048E+04  7.53146E+04 -6.05267E+04  6.31954E+04 -8.36129E+04  3.19356E+04
 -8.03419E+04 -1.13113E+04 -5.68749E+04 -5.04985E+04 -1.49764E+04 -6.89413E+04  2.71112E+04 -4.49503E+04
  3.94599E+04  3.96974E+03  1.58916E+04  4.73306E+04 -3.40252E+04  4.65226E+04 -6.59394E+04 -5.93723E+02
 -5.30256E+04 -5.62109E+04 -6.63920E+03 -7.62564E+04  3.33943E+04 -5.41913E+04  4.73156E+04 -1.67487E+04
  4.25470E+04  1.11601E+04  3.12985E+04  2.50223E+04  1.58805E+04  2.85648E+04 -4.96207E+03  2.71411E+04
 -2.20505E+04  1.24598E+04 -1.86593E+04 -4.68811E+03  5.07452E+03 -7.50509E+03  2.18213E+04  1.14805E+04
  7.33268E+03  3.44263E+04 -3.13957E+04  3.49479E+04 -6.22933E+04  2.02311E+03 -5.60970E+04 -4.23153E+04
 -1.23839E+04 -6.19440E+04  3.90572E+04 -4.44672E+04  5.70588E+04 -2.15780E+03  3.29551E+04  3.15671E+04
 -6.30353E+03  3.47320E+04 -2.91411E+04  1.45045E+04 -2.91442E+04 -5.00450E+03 -1.58695E+04 -1.04267E+04
 -7.59163E+03 -1.22502E+04 -9.77127E+02 -1.73650E+04  7.31852E+03 -2.26404E+04  1.51618E+04 -1.35224E+04
  1.17025E+04  4.63957E+03 -7.22760E+03  1.30656E+04 -2.02321E+04 -3.57841E+03 -8.21747E+03 -3.22926E+04
  2.17810E+04 -4.21730E+04  4.65565E+04 -1.95748E+04  4.34481E+04  1.87964E+04  1.49926E+04  4.29328E+04
 -1.55617E+04  3.22465E+04 -2.44073E+04  1.32251E+03 -9.22898E+03 -2.73267E+04  2.06589E+04 -3.26315E+04
  3.99290E+04 -8.28484E+03  3.33976E+04  2.31670E+04  1.69626E+04  4.48348E+04 -7.98706E+03  4.76892E+04
 -3.02814E+04  3.19431E+04 -3.99018E+04  8.80405E+03 -4.07940E+04 -1.60599E+04 -2.24641E+04 -3.64729E+04
  7.24708E+03 -3.61126E+04  3.04329E+04 -1.37013E+04  2.81338E+04  1.08984E+04  3.35962E+03  1.83419E+04
 -1.32010E+04  7.77211E+03 -9.91516E+03 -7.88136E+03  6.09591E+03 -1.03940E+04  1.79092E+04  6.12286E+03
  1.28077E+04  2.17768E+04 -6.41108E+03  2.43807E+04 -2.21127E+04  1.06871E+04 -2.67744E+04 -5.45532E+03
 -1.89658E+04 -1.66288E+04 -7.42412E+03 -1.89385E+04  3.93417E+03 -1.72438E+04  1.40984E+04 -1.65782E+04
  2.38441E+04 -1.21804E+04  3.05305E+04  2.10897E+03  2.26400E+04  1.82306E+04  4.32109E+03  3.44002E+04
 -1.69981E+04  2.92354E+04 -2.69233E+04  9.98735E+03 -1.99427E+04 -1.04685E+04 -4.15206E+03 -1.38009E+04
  2.23762E+03 -3.59580E+03 -3.74810E+03  5.98731E+03 -1.48891E+04  5.18166E+03 -1.51405E+04 -6.25281E+03
 -9.48304E+03 -1.73738E+04  4.95432E+03 -2.14192E+04  1.40440E+04 -1.53834E+04  1.64980E+04 -1.43957E+03
  1.04626E+04  1.23008E+04 -1.37707E+03  1.75333E+04 -1.18402E+04  9.71254E+03 -1.74480E+04 -3.53742E+03
 -1.31554E+04 -1.58327E+04 -1.70745E+03 -2.14524E+04  9.62331E+03 -1.74334E+04  1.73987E+04 -8.37475E+03
  1.62600E+04  3.47414E+02  1.18380E+04  4.43984E+03  6.04690E+03  8.52425E+02  8.85893E+03 -1.48961E+03
  1.56543E+04  2.75053E+03  1.75742E+04  1.41717E+04  1.10531E+04  2.79168E+04 -2.95625E+03  3.10206E+04
 -1.82183E+04  2.43375E+04 -2.87300E+04  1.17051E+04 -2.98177E+04 -2.07909E+03 -2.48445E+04 -1.73920E+04
 -1.09036E+04 -2.41963E+04  8.41817E+03 -2.24784E+04  1.93426E+04 -1.18293E+04  1.78053E+04  4.72477E+03
  7.03542E+03  1.32850E+04 -7.96974E+03  1.16034E+04 -1.50817E+04  2.66433E+03 -1.15359E+04 -9.19819E+03
 -1.36711E+02 -1.40192E+04  7.28795E+03 -1.05452E+04  9.12996E+03 -1.25690E+03  2.02096E+03  5.91575E+03
 -6.29756E+03  1.93675E+03 -5.40378E+03 -5.15466E+03  4.25572E+01 -1.22975E+04  8.67922E+03 -1.23269E+04
  1.50156E+04 -6.27054E+03  1.57290E+04  2.74724E+03  1.32599E+04  1.20303E+04  6.15718E+03  1.77851E+04
 -2.56589E+03  1.95235E+04 -1.23873E+04  1.24453E+04 -1.38379E+04  3.18330E+03 -9.76068E+03 -2.97195E+03
 -4.91403E+03 -4.23642E+03 -6.57345E+02  1.41228E+03 -2.04032E+03  2.14448E+03 -4.49632E+03  3.98923E+03
 -9.53420E+03 -5.31629E+02 -1.01829E+04 -8.29032E+03 -4.11954E+03 -1.32744E+04  4.09689E+03 -1.01601E+04
  8.33623E+03 -4.47480E+03  6.16016E+03  2.63760E+03  4.55953E+02  3.72587E+03 -4.51698E+03 -2.40480E+02
 -4.44754E+03 -6.28801E+03 -7.82843E+02 -9.17094E+03  5.09655E+03 -9.68764E+03  1.23223E+04 -5.23195E+03
  1.44800E+04  1.12705E+03  1.10948E+04  8.29905E+03  2.10351E+03  1.14517E+04 -5.99597E+03  9.50676E+03
 -8.48203E+03  2.94075E+03 -4.36444E+03 -1.47993E+03  1.43635E+03 -2.37995E+03  5.40310E+03 -1.25917E+03
  5.04207E+03  4.00702E+03  1.39360E+03  7.60174E+03 -5.52185E+03  7.69140E+03 -9.61260E+03  2.14718E+03
 -6.47938E+03 -4.90889E+03  1.74063E+02 -8.12532E+03  5.07630E+03 -4.23109E+03  4.87969E+03  1.65889E+03
  9.16028E+02  4.73892E+03 -4.93004E+03  6.31874E+03 -7.13253E+03  2.99146E+03 -7.01591E+03 -2.27629E+03
 -4.11948E+03 -8.38575E+03  1.87816E+03 -9.71056E+03  7.82088E+03 -5.92624E+03  9.05883E+03  1.93681E+03
  5.79703E+03  7.28229E+03 -4.62850E+02  9.46390E+03 -6.41674E+03  5.29301E+03 -7.04415E+03 -6.35309E+02
 -6.74335E+03 -6.21524E+03 -1.42743E+03 -6.65572E+03  3.54656E+03 -5.80829E+03  3.85271E+03 -2.99062E+03
  3.44618E+03  5.04226E+02 -8.03036E+01  1.54797E+03  4.36716E+01 -1.41352E+03  8.12937E+02 -2.99591E+03
  5.77799E+03 -1.50628E+03  7.72454E+03  1.10140E+03  7.93592E+03  4.99135E+03  6.23242E+03  1.02778E+04
 -2.36190E+03  1.17432E+04 -1.07323E+04  8.81972E+03 -1.34564E+04  1.56875E+03 -1.06685E+04 -3.83125E+03
 -5.95474E+03 -8.85603E+03 -4.72392E+02 -7.17981E+03  3.03222E+03 -3.57129E+03  2.42202E+03 -2.77317E+03
  1.86556E+03 -2.01536E+03  2.58394E+03 -2.80021E+03  3.90252E+03 -1.97610E+03  4.60867E+03 -1.49886E+02
  5.70628E+03  1.35721E+03  2.00810E+03  4.83555E+03 -1.68850E+03  4.68898E+03 -5.85475E+03  3.98573E+03
 -7.05121E+03 -1.12709E+03 -3.69739E+03 -4.85295E+03  6.57902E+01 -7.47669E+03  4.44929E+03 -7.58935E+03
  7.61945E+03 -4.32370E+03  9.77440E+03  8.63511E+02  6.43330E+03  6.52875E+03  1.38040E+03  8.54001E+03
 -3.27585E+03  7.67306E+03 -4.63588E+03  2.18660E+03 -3.00277E+03 -1.32998E+03 -6.40572E+02 -6.56013E+02
 -5.62346E+02  2.26997E+02 -1.26783E+03  2.27485E+03 -3.24993E+03  1.13255E+03 -5.56189E+03 -7.34216E+02
 -2.52729E+03 -5.35183E+03  7.72422E+02 -6.80821E+03  4.03178E+03 -6.30078E+03  5.93408E+03 -1.69604E+03
  6.43492E+03  3.47769E+03  3.10541E+03  5.74203E+03 -1.10737E+03  6.51954E+03 -4.04942E+03  4.16911E+03
 -5.91002E+03  8.27277E+02 -5.01940E+03 -3.70880E+03 -3.61453E+02 -5.10898E+03  2.66478E+03 -4.05225E+03
  4.10904E+03 -1.70001E+03  2.73554E+03  1.23793E+03  7.95380E+02  2.04018E+03  9.63147E+02  7.23307E+02
  2.11872E+03  5.77791E+02  1.95357E+03  1.35142E+03  1.95474E+03  2.94959E+03  1.83560E+03  3.07896E+03
 -1.51688E+03  4.72152E+03 -3.90959E+03  5.42045E+03 -5.64500E+03  1.45508E+03 -6.83061E+03 -1.46451E+03
 -3.00857E+03 -5.98654E+03  1.19905E+03 -7.41725E+03  3.62302E+03 -4.35241E+03  5.29574E+03 -1.45025E+03
  4.21049E+03  2.53834E+03  7.92729E+02  3.62174E+03 -1.46838E+03  1.82062E+03 -2.38385E+03 -3.17759E+02
 -1.10607E+03 -2.67109E+03  1.38753E+03 -2.53390E+03  2.36374E+03 -1.24705E+03  2.09598E+03  5.78663E+02
  1.46048E+03  9.66409E+02  1.03704E+03  5.66122E+02 -2.85815E+02  8.47768E+02  1.95808E+03 -1.70605E+02
  5.85132E+02 -3.80061E+02  2.77004E+03  1.11274E+03  1.17888E+03  3.34523E+03 -6.68278E+02  4.44283E+03
 -2.76778E+03  2.50460E+03 -3.87008E+03  4.60806E+02 -3.45126E+03 -1.33048E+03 -7.93572E+02 -1.68816E+03
  7.57541E+02 -2.10592E+03  1.32571E+03 -1.32933E+03  1.11947E+03  1.52375E+03 -8.15397E+02  1.69461E+03
 -2.50518E+03  1.38101E+03 -2.28620E+03 -1.59386E+03 -1.28887E+03 -3.37415E+03  3.79992E+02 -3.01127E+03
  1.57961E+03 -1.18892E+03  1.87973E+03  6.00911E+01  2.20107E+03  6.68466E+02  5.89242E+02  1.81998E+03
 -5.88989E+02  3.37034E+02 -1.52274E+03 -8.13883E+02  6.55675E+02 -2.25810E+03  2.77927E+03 -1.73722E+03
  3.04105E+03  2.49109E+02  3.68960E+03  2.22366E+03  1.45682E+03  3.58352E+03 -9.69823E+02  3.45633E+03
 -2.91242E+03  1.31745E+03 -2.75805E+03 -4.65074E+02 -1.57180E+03 -2.27596E+03  6.39278E+02 -1.59521E+03
  2.48813E+03 -8.84807E+02  1.78184E+03  1.29123E+03  4.57490E+02  2.24623E+03  2.96547E+01  1.86087E+03
 -1.08604E+03  1.54445E+03 -5.66174E+02  4.14964E+02 -4.60569E+02  4.48597E+02 -6.59327E+02  8.12417E+02
 -8.49799E+02  1.73457E+03 -2.74734E+03  1.17405E+03 -3.50785E+03 -1.94461E+02 -4.00033E+03 -1.96881E+03
 -2.06219E+03 -4.48131E+03  8.54411E+02 -5.08121E+03  2.41640E+03 -4.60732E+03  4.94090E+03 -1.65756E+03
  4.59041E+03  3.61595E+02  2.43754E+03  2.92491E+03 -4.91810E+02  2.87997E+03 -1.47474E+03  2.56340E+03
 -1.98806E+03  1.23443E+03 -9.18667E+02 -2.16435E+02 -4.42869E+02 -4.24995E+01 -6.37608E+02 -2.10049E+02
 -1.25028E+03 -1.60634E+02 -1.15867E+03 -9.99735E+01  1.01267E+02 -7.56909E+02 -1.75901E+02 -1.59500E+03
  1.97712E+03 -9.45111E+02  1.70029E+03  3.32773E+02  2.40146E+03  2.05374E+03 -7.32601E+01  2.93077E+03
 -1.71757E+03  4.03402E+03 -3.45167E+03  2.06358E+03 -3.94642E+03 -4.86464E+02 -2.44836E+03 -2.48291E+03
 -1.47093E+03 -3.09050E+03  6.47443E+02 -2.61268E+03  1.89919E+03 -1.08489E+03  1.82377E+03  3.10817E+02
  1.38418E+03  6.34072E+02  4.27514E+01  7.73130E+02 -5.42159E+02  5.57584E+01 -1.19018E+01 -3.60158E+02
  1.08326E+03 -1.81109E+02  8.38717E+02  5.45491E+02  4.73399E+02  9.42309E+02  4.99877E+02  1.21258E+03
 -1.35037E+03  1.53393E+03 -1.53799E+03  1.96567E+02 -1.87947E+03 -7.87739E+02 -3.99420E+00 -2.31792E+03
  1.36554E+03 -1.99843E+03  1.57860E+03 -5.94511E+02  2.16354E+03  3.62530E+01  1.07041E+03  1.87022E+03
  6.39923E+02  1.62693E+03 -7.32587E+02  1.72601E+03 -9.41333E+02  1.30193E+03 -1.03277E+03  1.31994E+02
 -2.36260E+02 -2.37402E+02 -7.43366E+02  3.93140E+02 -1.24320E+03  2.23075E+01 -1.74351E+03 -5.62968E+02
 -1.62624E+03 -5.70320E+02 -3.24187E+02 -2.19522E+03  1.35523E+03 -2.75012E+03  1.67976E+03 -8.35483E+02
  1.79655E+03  1.46949E+02  6.06728E+02  1.19740E+03 -4.05462E+02  1.84369E+03 -9.68725E+02  1.39757E+03
