 $NMID ID='MM_0lb_SNR800_20hz_g60_100.RAW', FMTDAT='(8E13.5)'
 TRAMP=1., VOLUME=1. $END
  3.09817E+05  3.55661E+02  3.37391E+05  2.50387E+05  8.45543E+04  3.37615E+05 -1.32436E+05  2.50894E+05
 -1.89883E+05  8.28343E+04 -1.11434E+05 -3.29551E+04  1.19383E+03 -5.06858E+04  5.39031E+04  4.10780E+01
  3.52275E+04  5.26567E+04 -1.68117E+04  7.50660E+04 -6.06151E+04  6.33089E+04 -8.33616E+04  3.15357E+04
 -8.01081E+04 -1.14354E+04 -5.65991E+04 -5.07769E+04 -1.49018E+04 -6.89231E+04  2.72339E+04 -4.53628E+04
  3.95686E+04  3.55432E+03  1.56357E+04  4.72760E+04 -3.42774E+04  4.63760E+04 -6.56450E+04 -3.37523E+02
 -5.25655E+04 -5.63454E+04 -6.52837E+03 -7.60585E+04  3.33803E+04 -5.37876E+04  4.70166E+04 -1.70100E+04
  4.24378E+04  1.14891E+04  3.13702E+04  2.47875E+04  1.58963E+04  2.85377E+04 -4.74196E+03  2.70799E+04
 -2.18707E+04  1.28467E+04 -1.86217E+04 -4.78947E+03  4.95477E+03 -7.60478E+03  2.15093E+04  1.13291E+04
  7.28147E+03  3.39504E+04 -3.09421E+04  3.44983E+04 -6.19438E+04  1.85920E+03 -5.58231E+04 -4.18460E+04
 -1.22816E+04 -6.15491E+04  3.88428E+04 -4.38937E+04  5.63837E+04 -2.17094E+03  3.24718E+04  3.10500E+04
 -6.21321E+03  3.42117E+04 -2.89886E+04  1.42147E+04 -2.87295E+04 -5.15273E+03 -1.52031E+04 -1.04074E+04
 -7.51426E+03 -1.18086E+04 -9.50170E+02 -1.71450E+04  6.68779E+03 -2.26687E+04  1.52322E+04 -1.37831E+04
  1.17785E+04  4.56420E+03 -6.64770E+03  1.27924E+04 -1.99780E+04 -3.26370E+03 -7.98352E+03 -3.13271E+04
  2.13374E+04 -4.13065E+04  4.55682E+04 -1.89725E+04  4.26909E+04  1.86174E+04  1.44977E+04  4.22947E+04
 -1.53226E+04  3.14957E+04 -2.40186E+04  1.21443E+03 -8.54004E+03 -2.66547E+04  2.06144E+04 -3.17713E+04
  3.88872E+04 -7.69000E+03  3.25028E+04  2.27208E+04  1.61828E+04  4.34341E+04 -7.64265E+03  4.63284E+04
 -2.90319E+04  3.06237E+04 -3.85260E+04  8.61737E+03 -3.92427E+04 -1.54769E+04 -2.16249E+04 -3.49003E+04
  7.05604E+03 -3.50658E+04  2.97149E+04 -1.30064E+04  2.72953E+04  1.08670E+04  3.31246E+03  1.82537E+04
 -1.30026E+04  7.59855E+03 -9.87922E+03 -7.70254E+03  5.80054E+03 -1.00196E+04  1.73481E+04  6.39182E+03
  1.24672E+04  2.15923E+04 -6.45528E+03  2.36288E+04 -2.15970E+04  9.49169E+03 -2.53264E+04 -5.70713E+03
 -1.75983E+04 -1.66463E+04 -6.14927E+03 -1.71508E+04  3.80980E+03 -1.53332E+04  1.31615E+04 -1.49057E+04
  2.18457E+04 -1.17830E+04  2.87416E+04  1.38461E+03  2.15363E+04  1.70288E+04  4.02692E+03  3.27753E+04
 -1.65409E+04  2.79742E+04 -2.61350E+04  9.61150E+03 -1.97490E+04 -1.01437E+04 -3.91575E+03 -1.37632E+04
  2.40265E+03 -4.15534E+03 -2.90040E+03  5.67065E+03 -1.35384E+04  5.52194E+03 -1.36689E+04 -5.13900E+03
 -8.97595E+03 -1.60035E+04  4.60311E+03 -1.97160E+04  1.27867E+04 -1.43673E+04  1.47704E+04 -1.42751E+03
  9.13179E+03  1.12825E+04 -1.07615E+03  1.59580E+04 -1.04194E+04  9.08529E+03 -1.57080E+04 -3.45007E+03
 -1.16071E+04 -1.43819E+04 -1.47144E+03 -1.92261E+04  8.63707E+03 -1.53852E+04  1.62699E+04 -7.25921E+03
  1.46191E+04  5.36870E+02  1.05457E+04  3.85255E+03  5.17428E+03  4.56899E+02  7.78932E+03 -1.28843E+03
  1.41194E+04  2.65366E+03  1.49725E+04  1.27235E+04  9.15503E+03  2.49891E+04 -3.14936E+03  2.67743E+04
 -1.59312E+04  2.06760E+04 -2.46889E+04  9.74068E+03 -2.51181E+04 -1.92230E+03 -2.18934E+04 -1.45565E+04
 -1.00766E+04 -2.05846E+04  6.67884E+03 -1.90352E+04  1.66505E+04 -1.08998E+04  1.57344E+04  3.87628E+03
  6.53589E+03  1.13041E+04 -7.11450E+03  1.04179E+04 -1.33230E+04  2.35552E+03 -1.03802E+04 -8.05866E+03
 -1.53660E+02 -1.22728E+04  6.29372E+03 -9.73649E+03  8.05841E+03 -1.67832E+03  1.42893E+03  4.92230E+03
 -5.37405E+03  1.21411E+03 -3.53000E+03 -4.73896E+03  6.61495E+02 -1.01651E+04  7.69236E+03 -1.02919E+04
  1.22070E+04 -4.53690E+03  1.17426E+04  2.81048E+03  1.02021E+04  9.34848E+03  4.78820E+03  1.37514E+04
 -1.59447E+03  1.56899E+04 -9.48608E+03  9.92547E+03 -1.10273E+04  3.08280E+03 -8.49068E+03 -1.74938E+03
 -4.74188E+03 -3.34058E+03 -8.20515E+02  1.55602E+03 -1.76034E+03  2.02777E+03 -3.64200E+03  3.61867E+03
 -7.84774E+03 -4.92976E+02 -8.45804E+03 -7.19625E+03 -3.34628E+03 -1.14520E+04  3.53654E+03 -8.19117E+03
  7.12413E+03 -3.72618E+03  5.21550E+03  2.19934E+03  6.78380E+02  2.96412E+03 -3.43637E+03  6.02239E+01
 -3.51435E+03 -4.96532E+03 -9.16549E+02 -6.89419E+03  4.04710E+03 -7.87059E+03  9.50815E+03 -3.70737E+03
  1.12574E+04  3.26977E+02  8.34453E+03  5.99537E+03  1.74905E+03  8.50041E+03 -5.28372E+03  8.12875E+03
 -6.78998E+03  2.64835E+03 -3.57671E+03 -8.36514E+02  1.27238E+03 -1.70848E+03  4.92757E+03 -8.89387E+02
  4.06737E+03  3.49097E+03  1.25595E+03  6.21414E+03 -4.49616E+03  5.80021E+03 -7.55614E+03  1.75986E+03
 -4.44266E+03 -3.64153E+03  2.01035E+02 -6.21697E+03  3.41495E+03 -2.87921E+03  3.53358E+03  6.11888E+02
  4.36067E+02  3.16633E+03 -3.72861E+03  4.26989E+03 -4.62401E+03  2.27504E+03 -4.23910E+03 -9.21503E+02
 -3.06451E+03 -5.82329E+03  1.10230E+03 -6.58437E+03  5.67200E+03 -4.26090E+03  5.99572E+03  9.33837E+02
  4.42948E+03  4.82061E+03 -2.80907E+01  7.04825E+03 -4.66240E+03  4.07492E+03 -5.15516E+03 -4.31539E+02
 -5.56609E+03 -4.97906E+03 -1.20120E+03 -4.69480E+03  2.25825E+03 -4.46592E+03  2.93510E+03 -3.11521E+03
  2.64825E+03  1.40766E+02 -1.47950E+02  1.26995E+03  5.99764E+02  6.76464E+01  2.73387E+02 -1.44674E+03
  3.11264E+03 -4.12133E+02  4.47292E+03  7.25270E+02  4.82520E+03  2.64880E+03  4.97715E+03  6.44670E+03
 -9.73064E+02  7.57707E+03 -7.24012E+03  5.81052E+03 -8.95577E+03  7.49910E+02 -6.98301E+03 -2.12387E+03
 -3.78864E+03 -5.69773E+03 -4.87882E+02 -4.72107E+03  1.95515E+03 -1.65954E+03  1.63710E+03 -1.84738E+03
  1.12218E+03 -1.57117E+03  1.97760E+03 -2.20193E+03  3.21202E+03 -9.14423E+02  3.27116E+03  7.10943E+02
  4.15075E+03  1.08076E+03  9.43210E+02  2.83718E+03 -1.38609E+03  2.43820E+03 -4.03479E+03  2.35293E+03
 -4.41688E+03 -1.06775E+03 -1.67386E+03 -2.80555E+03  4.24213E+02 -4.53879E+03  2.43359E+03 -4.58000E+03
  4.46658E+03 -2.71835E+03  6.03260E+03  2.43598E+02  4.52120E+03  3.55966E+03  1.06403E+03  5.20603E+03
 -1.85882E+03  5.36256E+03 -2.72182E+03  1.98221E+03 -1.67833E+03 -1.09979E+03 -3.84320E+02 -4.89714E+02
 -1.93039E+02  3.43612E+02 -9.92055E+02  1.69182E+03 -2.51069E+03  9.19982E+02 -3.58482E+03 -3.02436E+02
 -8.74971E+02 -3.60746E+03  8.96414E+02 -3.94786E+03  2.18925E+03 -3.85898E+03  2.82988E+03 -8.69701E+02
  3.42436E+03  2.04879E+03  1.27314E+03  2.27580E+03 -7.46692E+02  3.48408E+03 -2.31077E+03  2.26014E+03
 -2.94034E+03  6.03453E+02 -2.78710E+03 -2.13738E+03  9.01281E+01 -2.56819E+03  1.21332E+03 -2.29059E+03
  2.48106E+03 -1.34507E+03  1.75287E+03  2.92989E+02  3.02509E+02  1.43753E+03  6.99254E+02  5.20576E+02
  1.45020E+03  5.86942E+02  1.16072E+03  1.22691E+03  6.48578E+02  1.92498E+03  1.39806E+03  1.40643E+03
 -7.77548E+02  2.24079E+03 -2.07852E+03  3.51976E+03 -2.22807E+03  1.10107E+03 -3.16476E+03  1.33457E+02
 -1.05448E+03 -2.92787E+03  6.25556E+02 -3.71073E+03  1.46556E+03 -1.84650E+03  2.46657E+03 -4.86277E+02
  2.01890E+03  1.34338E+03  2.85725E+02  1.37824E+03 -3.30724E+02  6.36911E+02 -7.55900E+02  1.76306E+01
 -6.86632E+02 -1.07958E+03  9.96360E+02 -8.27477E+02  1.09240E+03 -8.00293E+02  8.60386E+02 -1.33874E+01
  7.41975E+02  2.20774E+02  4.47077E+02 -2.88555E+02 -2.86343E+02  4.22493E+02  1.41785E+03 -4.36026E+01
 -3.78202E+02 -3.19706E+02  1.50449E+03  3.87512E+02  1.87725E+02  1.89266E+03 -1.66243E+02  2.47593E+03
 -1.37920E+03  9.18173E+02 -1.60334E+03 -3.30379E+01 -1.64124E+03 -1.96532E+02  1.42473E+02 -8.12951E+02
  3.60928E+02 -1.00894E+03  7.95250E+02 -5.96125E+02  2.67806E+02  1.25630E+03 -7.18570E+02  6.98260E+02
 -1.22346E+03  6.30178E+02 -7.32365E+02 -1.40951E+03 -3.69708E+02 -1.70759E+03 -1.19861E+02 -9.68919E+02
  2.61411E+01 -1.27277E+02  3.02287E+02  3.28952E+02  6.90699E+02 -3.93325E+02  1.62363E+02  1.10324E+03
 -1.04348E+02 -3.81967E+02 -8.99926E+02 -3.51786E+01  6.93740E+02 -6.24296E+02  1.35296E+03 -2.81819E+02
  7.31073E+02  1.47133E+02  2.06875E+03  4.00658E+02  1.20868E+03  8.39255E+02  1.09544E+02  1.21167E+03
 -9.60306E+02 -4.45752E+02 -7.68312E+02  8.89288E+01 -5.45774E+02 -8.74849E+02  4.13736E+02 -4.48642E+02
  9.80901E+02 -6.97860E+02  7.41544E+02  4.99106E+02  1.20488E+02  8.70408E+02  3.83214E+02  8.16095E+02
  1.32684E+02  9.51007E+02 -3.20497E+02  4.95512E+02  2.88634E+02  3.00989E+02 -5.68469E+02  5.03706E+02
 -3.56878E+02  8.54578E+02 -1.36579E+03  1.43449E+02 -1.17332E+03 -5.43582E+01 -1.78415E+03 -6.20472E+02
 -7.42634E+02 -1.70626E+03  4.20204E+02 -1.76626E+03  2.79162E+02 -1.84904E+03  1.89794E+03 -8.99927E+02
  1.52440E+03  1.89606E+00  7.21401E+02  9.46052E+02 -8.41872E+02  9.66540E+02 -6.69758E+02  7.45134E+02
 -5.41086E+02  6.42787E+02 -2.80592E+02 -5.64460E+01 -2.81192E+02  4.38567E+02 -7.63772E+02  2.21510E+02
 -1.07753E+03 -2.71430E+02 -6.44014E+02  6.95821E+00  4.61481E+02 -4.69964E+02 -4.65379E+02 -4.58707E+02
  1.14278E+03 -3.10768E+02 -5.16921E+01  1.18707E+02  6.63807E+02  8.81007E+02 -4.58449E+02  8.55198E+02
 -6.01658E+02  1.47027E+03 -1.02064E+03  8.44263E+02 -1.03918E+03  3.48505E+01 -3.35569E+02 -1.00165E+03
 -6.15226E+02 -7.96484E+02  2.51782E+01 -4.88459E+02  2.74344E+02 -3.34511E+02  3.78522E+02  1.09767E+02
  4.26271E+02  2.49947E+02 -6.32430E+00  1.71542E+02 -2.05702E+02  1.46443E+02 -2.44098E+02 -9.30963E+01
  1.55958E+02  1.51709E+02  4.68809E+01  5.32582E+02 -2.19638E+02  1.21480E+02  4.80663E+02  2.78269E+02
 -2.52771E+02  3.60546E+02 -1.88212E+02  2.54350E+02 -4.56255E+02 -9.57964E+01  2.62854E+02 -6.69795E+02
  2.32500E+02 -2.39164E+02 -7.56375E+01 -5.51290E+01  6.96655E+02 -7.67268E+02  2.54255E+02  3.32062E+02
  5.58659E+02  5.16071E+01  8.59405E+01  3.71186E+02 -9.94581E+00  5.05897E+02 -8.03512E+01  1.66063E+02
  1.13063E+00 -4.47752E+01 -3.65574E+02  4.24201E+01 -4.77215E+02 -8.30106E+01 -2.08387E+02 -2.75620E+02
 -5.50233E+02  6.92175E+02 -3.46835E+01 -6.73409E+02  6.50305E+02 -1.27729E+03  4.73263E+02 -2.70821E+02
  3.61610E+02  1.45124E+02 -6.63953E+02  2.99710E+01  3.71814E+01  4.00867E+02 -9.17641E+01  4.80248E+02
