 $NMID ID='MM_0lb_SNR800_11hz_g50_91.RAW', FMTDAT='(8E13.5)'
 TRAMP=1., VOLUME=1. $END
  3.09739E+05  4.16776E+02  3.37865E+05  2.50553E+05  8.47515E+04  3.38100E+05 -1.32583E+05  2.51234E+05
 -1.90623E+05  8.35982E+04 -1.12165E+05 -3.26441E+04  3.57936E+02 -5.04594E+04  5.41032E+04 -2.61377E+02
  3.53411E+04  5.31333E+04 -1.70176E+04  7.59811E+04 -6.10721E+04  6.41027E+04 -8.48353E+04  3.25092E+04
 -8.16836E+04 -1.15126E+04 -5.78951E+04 -5.20235E+04 -1.51896E+04 -7.03042E+04  2.77005E+04 -4.61851E+04
  4.06728E+04  3.57255E+03  1.64662E+04  4.80503E+04 -3.46143E+04  4.79758E+04 -6.76674E+04  7.07381E+01
 -5.42228E+04 -5.73238E+04 -7.28283E+03 -7.86427E+04  3.44441E+04 -5.62882E+04  4.93090E+04 -1.79340E+04
  4.46243E+04  1.15314E+04  3.24155E+04  2.61763E+04  1.61001E+04  3.01955E+04 -5.13528E+03  2.75597E+04
 -2.22235E+04  1.21745E+04 -1.82253E+04 -5.42504E+03  6.50472E+03 -7.28513E+03  2.21914E+04  1.32488E+04
  6.98760E+03  3.64503E+04 -3.29830E+04  3.63241E+04 -6.44274E+04  2.06784E+03 -5.80397E+04 -4.42273E+04
 -1.26038E+04 -6.46444E+04  4.08323E+04 -4.67154E+04  5.97666E+04 -2.44587E+03  3.54463E+04  3.35188E+04
 -5.94567E+03  3.80401E+04 -3.06886E+04  1.76539E+04 -3.21690E+04 -4.04951E+03 -1.80248E+04 -1.15369E+04
 -8.68371E+03 -1.41059E+04 -4.51183E+02 -1.88005E+04  8.24265E+03 -2.31993E+04  1.54072E+04 -1.27481E+04
  1.12361E+04  5.47987E+03 -9.49694E+03  1.30837E+04 -2.24626E+04 -5.92913E+03 -8.51359E+03 -3.62988E+04
  2.42628E+04 -4.54530E+04  5.06837E+04 -2.05977E+04  4.71593E+04  2.02201E+04  1.66245E+04  4.54562E+04
 -1.64621E+04  3.48512E+04 -2.64679E+04  2.44681E+03 -1.09962E+04 -2.88095E+04  2.15151E+04 -3.55746E+04
  4.34248E+04 -1.06629E+04  3.86188E+04  2.42592E+04  2.01482E+04  4.89018E+04 -8.19192E+03  5.35933E+04
 -3.36765E+04  3.64783E+04 -4.56421E+04  1.06040E+04 -4.56922E+04 -1.76531E+04 -2.53622E+04 -4.05800E+04
  7.34680E+03 -4.04449E+04  3.30680E+04 -1.63160E+04  3.11405E+04  1.08599E+04  4.83121E+03  2.04382E+04
 -1.38281E+04  8.92256E+03 -1.11042E+04 -7.40666E+03  5.92089E+03 -1.13492E+04  1.81154E+04  5.60673E+03
  1.44640E+04  2.21647E+04 -5.64902E+03  2.64461E+04 -2.30937E+04  1.32314E+04 -3.00264E+04 -3.79018E+03
 -2.35168E+04 -1.79983E+04 -1.02550E+04 -2.33970E+04  4.32593E+03 -2.33450E+04  1.84203E+04 -2.08011E+04
  2.94944E+04 -1.37006E+04  3.56968E+04  3.98504E+03  2.58177E+04  2.23786E+04  4.55471E+03  3.92357E+04
 -1.90465E+04  3.23631E+04 -2.92336E+04  1.11837E+04 -2.18853E+04 -1.03044E+04 -4.77280E+03 -1.29476E+04
  1.21136E+03 -1.82028E+03 -6.88066E+03  7.67460E+03 -1.87887E+04  5.04688E+03 -1.84803E+04 -7.91270E+03
 -1.10885E+04 -2.18152E+04  5.63350E+03 -2.55108E+04  1.73112E+04 -1.84261E+04  2.07017E+04 -1.76532E+03
  1.27879E+04  1.48998E+04 -1.08946E+03  2.11280E+04 -1.53418E+04  1.22279E+04 -2.15480E+04 -4.41655E+03
 -1.58727E+04 -1.92572E+04 -2.34589E+03 -2.60965E+04  1.19666E+04 -2.13921E+04  2.13581E+04 -1.06103E+04
  2.01967E+04  1.41775E+02  1.46833E+04  4.94428E+03  7.87869E+03  1.16427E+03  1.09092E+04 -2.17467E+03
  2.00847E+04  2.81831E+03  2.29968E+04  1.75135E+04  1.59643E+04  3.44186E+04 -2.28839E+03  4.01083E+04
 -2.35176E+04  3.28002E+04 -3.79523E+04  1.69324E+04 -3.99899E+04 -2.84225E+03 -3.25164E+04 -2.31137E+04
 -1.30367E+04 -3.33404E+04  1.19297E+04 -2.94101E+04  2.53661E+04 -1.41657E+04  2.22729E+04  7.01734E+03
  7.88099E+03  1.69803E+04 -1.06616E+04  1.44587E+04 -1.88550E+04  2.85024E+03 -1.43723E+04 -1.14726E+04
 -3.13562E+02 -1.75685E+04  9.31393E+03 -1.31439E+04  1.21772E+04 -1.47618E+03  2.81531E+03  7.88546E+03
 -7.97409E+03  3.56640E+03 -8.02305E+03 -6.47230E+03 -1.27527E+03 -1.63909E+04  1.07363E+04 -1.74467E+04
  2.04778E+04 -9.62433E+03  2.23794E+04  3.51866E+03  1.95112E+04  1.64469E+04  9.34793E+03  2.53762E+04
 -4.54994E+03  2.71420E+04 -1.76840E+04  1.67348E+04 -1.95382E+04  3.76542E+03 -1.33452E+04 -4.94366E+03
 -5.86788E+03 -6.16444E+03 -8.80114E+02  7.62152E+02 -2.39401E+03  3.39802E+03 -6.01918E+03  4.82715E+03
 -1.25896E+04 -9.06499E+02 -1.33337E+04 -1.05466E+04 -5.11750E+03 -1.74639E+04  5.72913E+03 -1.37667E+04
  1.13610E+04 -5.82838E+03  8.51140E+03  3.64594E+03 -4.84732E+01  5.35952E+03 -6.58600E+03 -1.25125E+01
 -6.96607E+03 -9.16466E+03 -9.70143E+02 -1.29670E+04  7.86665E+03 -1.41094E+04  1.75069E+04 -7.50864E+03
  2.03036E+04  2.13237E+03  1.51750E+04  1.19828E+04  3.05538E+03  1.63161E+04 -8.51343E+03  1.38283E+04
 -1.16321E+04  3.90678E+03 -5.68766E+03 -2.95482E+03  2.22013E+03 -3.78613E+03  7.47466E+03 -1.12111E+03
  6.48157E+03  5.78261E+03  1.45568E+03  1.09820E+04 -7.53577E+03  1.03543E+04 -1.35989E+04  2.78551E+03
 -9.30517E+03 -6.96043E+03  1.13423E+02 -1.15470E+04  7.16342E+03 -5.77124E+03  7.99306E+03  2.79258E+03
  1.50425E+03  8.29974E+03 -7.03942E+03  9.58601E+03 -1.14135E+04  4.48760E+03 -1.17461E+04 -4.02872E+03
 -6.78916E+03 -1.35232E+04  3.14828E+03 -1.49356E+04  1.33861E+04 -9.19560E+03  1.40392E+04  2.52481E+03
  8.54895E+03  1.13694E+04 -9.49538E+02  1.36545E+04 -9.89185E+03  7.35959E+03 -1.08001E+04 -9.69146E+02
 -9.41790E+03 -9.47283E+03 -1.89087E+03 -1.02181E+04  5.33652E+03 -8.39872E+03  6.17254E+03 -3.48535E+03
  4.23013E+03  1.66112E+03 -7.09316E+02  1.83718E+03 -2.78485E+02 -2.44749E+03  2.09486E+03 -6.05861E+03
  9.26294E+03 -3.73402E+03  1.30266E+04  1.64511E+03  1.26728E+04  8.91516E+03  8.87030E+03  1.72878E+04
 -4.38861E+03  1.97414E+04 -1.66104E+04  1.46437E+04 -2.14893E+04  2.80810E+03 -1.72504E+04 -7.35257E+03
 -8.87159E+03 -1.41640E+04 -5.72530E+02 -1.17145E+04  4.53425E+03 -6.56399E+03  4.32181E+03 -4.53857E+03
  3.58443E+03 -2.79587E+03  3.36611E+03 -3.76962E+03  5.16959E+03 -2.73758E+03  6.83114E+03 -6.17093E+02
  9.08717E+03  1.70357E+03  4.52928E+03  7.72175E+03 -2.03853E+03  8.80134E+03 -9.41402E+03  7.18643E+03
 -1.20224E+04 -1.18521E+03 -7.46357E+03 -8.24166E+03 -7.15332E+02 -1.28978E+04  7.07891E+03 -1.27722E+04
  1.31704E+04 -6.94856E+03  1.56227E+04  1.97398E+03  1.10054E+04  1.11117E+04  1.81495E+03  1.47586E+04
 -5.96056E+03  1.16449E+04 -8.31936E+03  4.13222E+03 -5.37596E+03 -1.70188E+03 -2.17644E+03 -1.54181E+03
 -1.59887E+03 -3.19900E+02 -1.87592E+03  2.47219E+03 -5.02288E+03  1.94337E+03 -8.20773E+03 -9.39369E+02
 -5.58284E+03 -8.05477E+03  5.97667E+01 -1.17389E+04  7.13519E+03 -1.06337E+04  1.14079E+04 -3.36233E+03
  1.12716E+04  6.03365E+03  5.12696E+03  1.05988E+04 -2.22271E+03  1.18595E+04 -8.18408E+03  7.23193E+03
 -1.09411E+04  5.82914E+02 -8.40949E+03 -7.09354E+03 -8.76300E+02 -9.67040E+03  5.11876E+03 -7.31983E+03
  7.41800E+03 -2.65670E+03  5.11838E+03  1.92449E+03  1.77700E+03  3.81909E+03  1.42128E+03  1.74103E+03
  2.57809E+03  1.11137E+03  3.28452E+03  1.30879E+03  3.28492E+03  4.50519E+03  3.01993E+03  6.11341E+03
 -2.12654E+03  9.40480E+03 -7.98719E+03  9.52539E+03 -1.15847E+04  2.70883E+03 -1.23785E+04 -4.30905E+03
 -5.40168E+03 -1.15409E+04  1.72924E+03 -1.29996E+04  7.09234E+03 -7.89940E+03  9.11546E+03 -2.42912E+03
  7.21368E+03  4.63377E+03  1.93750E+03  6.75704E+03 -3.01701E+03  4.28256E+03 -4.46015E+03 -2.72577E+02
 -2.07858E+03 -5.10839E+03  3.02449E+03 -5.23525E+03  4.72027E+03 -2.44479E+03  4.47509E+03  1.32134E+03
  2.92246E+03  2.11450E+03  9.31039E+02  1.75027E+03 -6.14777E+02  1.49442E+03  1.60320E+03 -6.50603E+02
  1.90981E+03 -2.14115E+02  4.86625E+03  1.86999E+03  2.39048E+03  5.94055E+03 -9.42774E+02  8.27139E+03
 -5.43695E+03  4.88916E+03 -7.16400E+03  1.28370E+03 -6.52099E+03 -2.36657E+03 -2.81374E+03 -4.41309E+03
  5.45915E+02 -4.56672E+03  3.19281E+03 -1.94732E+03  2.43757E+03  2.80684E+03 -1.06667E+03  3.82075E+03
 -5.15111E+03  2.51551E+03 -5.35402E+03 -2.90141E+03 -3.05697E+03 -6.22262E+03  7.30081E+02 -6.36721E+03
  3.73903E+03 -3.70168E+03  4.33802E+03 -7.96673E+02  3.85417E+03  1.26248E+03  8.41485E+02  3.15380E+03
 -2.16398E+03  7.86735E+02 -2.99844E+03 -2.05458E+03  1.19452E+03 -4.72015E+03  5.52884E+03 -3.84615E+03
  6.75344E+03  6.48771E+02  7.32497E+03  4.55189E+03  2.36848E+03  7.14235E+03 -2.71768E+03  6.85227E+03
 -6.07561E+03  2.73756E+03 -6.18306E+03 -9.85524E+02 -3.52657E+03 -4.67521E+03  1.13628E+03 -4.51631E+03
  4.89030E+03 -2.27973E+03  3.80447E+03  1.83450E+03  1.23918E+03  3.72192E+03 -6.44135E+02  3.58586E+03
 -1.41471E+03  2.57971E+03 -1.81046E+03  8.28345E+02 -5.35408E+02  8.03553E+02 -1.16663E+03  1.91670E+03
 -1.97854E+03  2.79037E+03 -4.93430E+03  2.31795E+03 -6.97073E+03  8.87404E+00 -8.45571E+03 -4.68846E+03
 -3.96470E+03 -9.54283E+03  2.05203E+03 -1.11126E+04  6.41586E+03 -8.57286E+03  1.02941E+04 -3.30332E+03
  9.80262E+03  1.74406E+03  5.83993E+03  6.67936E+03  1.52526E+02  7.35728E+03 -3.06372E+03  5.50691E+03
 -4.25944E+03  1.98379E+03 -2.64582E+03 -9.25666E+02 -9.73992E+02 -7.66531E+02 -4.73416E+02 -2.02495E+02
 -1.42703E+03  2.92895E+02 -1.89074E+03 -2.74720E+02 -4.53240E+02 -2.09275E+03 -7.40937E+01 -2.92244E+03
  3.25983E+03 -2.49564E+03  4.35144E+03  1.60753E+02  4.89030E+03  4.22468E+03  1.14181E+03  7.18111E+03
 -3.09434E+03  8.53042E+03 -7.53617E+03  4.84054E+03 -8.83664E+03 -7.68302E+02 -6.49727E+03 -4.85633E+03
 -2.75186E+03 -7.39749E+03  1.77950E+03 -7.00866E+03  4.52499E+03 -3.52974E+03  5.03557E+03 -1.33412E+02
  2.87876E+03  2.64424E+03 -5.94461E+02  2.10010E+03 -1.18956E+03 -3.42013E+01  1.46961E+01 -1.60763E+03
  2.21278E+03 -6.84810E+02  2.97691E+03  8.82825E+02  2.07171E+03  3.16003E+03  2.61466E+02  3.70868E+03
 -2.98247E+03  3.35938E+03 -4.63040E+03  4.03857E+02 -4.35509E+03 -3.61933E+03 -6.80538E+02 -5.96919E+03
  3.53490E+03 -4.68434E+03  5.24022E+03 -1.65417E+03  5.61115E+03  1.07967E+03  3.25085E+03  4.28120E+03
  9.33251E+02  4.75545E+03 -1.59721E+03  3.67347E+03 -3.22857E+03  2.11159E+03 -2.16286E+03  1.53977E+02
 -1.17585E+03  2.21215E+02 -1.77434E+03  5.91660E+02 -2.60106E+03  7.97886E+02 -3.56497E+03 -9.55462E+02
 -3.29295E+03 -2.00615E+03 -1.29772E+03 -4.75319E+03  2.16784E+03 -5.18430E+03  4.51868E+03 -2.38520E+03
  4.78825E+03  6.04476E+02  2.27497E+03  3.22568E+03 -1.63673E+02  4.57406E+03 -3.27674E+03  3.00459E+03
