 $NMID ID='MM_0lb_SNR800_17hz_g60_23.RAW', FMTDAT='(8E13.5)'
 TRAMP=1., VOLUME=1. $END
  3.10098E+05  4.36757E+02  3.37758E+05  2.50655E+05  8.46741E+04  3.38080E+05 -1.32347E+05  2.51117E+05
 -1.90421E+05  8.29152E+04 -1.11931E+05 -3.25910E+04  1.01555E+03 -5.03670E+04  5.38415E+04 -1.47959E+02
  3.52848E+04  5.28010E+04 -1.67535E+04  7.54417E+04 -6.06656E+04  6.37805E+04 -8.41168E+04  3.18057E+04
 -8.09453E+04 -1.12228E+04 -5.74267E+04 -5.11755E+04 -1.48253E+04 -6.92888E+04  2.74542E+04 -4.55865E+04
  4.00598E+04  3.72940E+03  1.60796E+04  4.77747E+04 -3.45562E+04  4.71999E+04 -6.65809E+04 -3.33405E+02
 -5.33114E+04 -5.68669E+04 -6.59590E+03 -7.69663E+04  3.39291E+04 -5.50411E+04  4.76799E+04 -1.72004E+04
  4.30898E+04  1.11271E+04  3.16067E+04  2.53356E+04  1.59926E+04  2.94331E+04 -5.07391E+03  2.73634E+04
 -2.18931E+04  1.25917E+04 -1.84787E+04 -4.84803E+03  5.60823E+03 -7.10252E+03  2.22998E+04  1.22227E+04
  7.44760E+03  3.52876E+04 -3.21967E+04  3.53358E+04 -6.28332E+04  2.19107E+03 -5.70604E+04 -4.22441E+04
 -1.23636E+04 -6.28850E+04  3.95033E+04 -4.51023E+04  5.77354E+04 -2.17868E+03  3.37385E+04  3.21457E+04
 -5.96931E+03  3.56568E+04 -2.99545E+04  1.54771E+04 -2.97136E+04 -4.29887E+03 -1.64054E+04 -1.05585E+04
 -8.13334E+03 -1.31119E+04 -6.86788E+02 -1.78167E+04  6.99852E+03 -2.27916E+04  1.52685E+04 -1.34551E+04
  1.15886E+04  5.01311E+03 -7.75601E+03  1.29437E+04 -2.10299E+04 -4.21274E+03 -8.25542E+03 -3.32627E+04
  2.23209E+04 -4.31860E+04  4.73954E+04 -1.95778E+04  4.42896E+04  1.92138E+04  1.54621E+04  4.36049E+04
 -1.55969E+04  3.29661E+04 -2.51292E+04  1.50285E+03 -9.29456E+03 -2.75322E+04  2.12130E+04 -3.31468E+04
  4.04220E+04 -8.73607E+03  3.46001E+04  2.35709E+04  1.73732E+04  4.54792E+04 -7.93353E+03  4.94222E+04
 -3.09705E+04  3.30581E+04 -4.13215E+04  9.15279E+03 -4.16980E+04 -1.62711E+04 -2.29308E+04 -3.74371E+04
  7.17138E+03 -3.68596E+04  3.08605E+04 -1.44267E+04  2.85473E+04  1.05638E+04  3.99638E+03  1.88936E+04
 -1.33034E+04  8.29776E+03 -1.02394E+04 -7.64646E+03  5.69351E+03 -1.06393E+04  1.79076E+04  6.18992E+03
  1.30424E+04  2.20118E+04 -5.89211E+03  2.45745E+04 -2.20638E+04  1.09934E+04 -2.73307E+04 -5.17782E+03
 -1.96640E+04 -1.72586E+04 -7.34290E+03 -1.96009E+04  3.76306E+03 -1.82917E+04  1.49630E+04 -1.72973E+04
  2.51050E+04 -1.24453E+04  3.13097E+04  2.28385E+03  2.31159E+04  1.91592E+04  4.29409E+03  3.52785E+04
 -1.71240E+04  2.97819E+04 -2.74557E+04  9.97138E+03 -2.03187E+04 -1.02896E+04 -4.40159E+03 -1.38265E+04
  2.01937E+03 -3.03607E+03 -4.09293E+03  6.31802E+03 -1.52089E+04  5.22850E+03 -1.55947E+04 -6.21523E+03
 -9.76278E+03 -1.77253E+04  4.69868E+03 -2.18597E+04  1.45980E+04 -1.58491E+04  1.71052E+04 -1.63528E+03
  1.07958E+04  1.23176E+04 -1.12933E+03  1.81288E+04 -1.20711E+04  1.02487E+04 -1.79908E+04 -3.91312E+03
 -1.33642E+04 -1.63421E+04 -1.67241E+03 -2.17009E+04  1.00134E+04 -1.76053E+04  1.81768E+04 -8.48956E+03
  1.66563E+04  4.75766E+02  1.21671E+04  4.25268E+03  6.24726E+03  1.00881E+03  8.95304E+03 -1.65506E+03
  1.59233E+04  2.85559E+03  1.77063E+04  1.40508E+04  1.12217E+04  2.86283E+04 -3.16765E+03  3.15177E+04
 -1.82743E+04  2.49461E+04 -2.94087E+04  1.22556E+04 -3.04459E+04 -2.28994E+03 -2.56282E+04 -1.74584E+04
 -1.13665E+04 -2.48906E+04  8.19428E+03 -2.29505E+04  1.94190E+04 -1.22814E+04  1.79366E+04  4.60929E+03
  7.22113E+03  1.33455E+04 -8.20764E+03  1.19953E+04 -1.54382E+04  2.49595E+03 -1.17665E+04 -9.34454E+03
 -4.35707E+02 -1.41366E+04  7.33016E+03 -1.08975E+04  9.22783E+03 -1.39977E+03  1.83394E+03  5.95911E+03
 -6.54772E+03  2.24119E+03 -4.96901E+03 -5.13438E+03 -5.27900E+01 -1.24986E+04  8.78752E+03 -1.24348E+04
  1.48721E+04 -6.31333E+03  1.54047E+04  2.87348E+03  1.35131E+04  1.15408E+04  6.09805E+03  1.78021E+04
 -2.74486E+03  1.99122E+04 -1.22847E+04  1.21700E+04 -1.43979E+04  3.39278E+03 -9.87016E+03 -2.79280E+03
 -5.05244E+03 -4.24188E+03 -1.00273E+03  1.33988E+03 -2.32711E+03  2.48291E+03 -4.64124E+03  3.76801E+03
 -9.73271E+03 -6.35873E+02 -1.01767E+04 -7.97525E+03 -3.88990E+03 -1.33664E+04  4.32732E+03 -1.01748E+04
  8.41973E+03 -4.66485E+03  6.09147E+03  2.63823E+03  4.30236E+02  3.68850E+03 -4.46951E+03 -1.57579E+02
 -4.24743E+03 -6.20436E+03 -1.18260E+03 -9.02457E+03  5.06074E+03 -9.94100E+03  1.19624E+04 -5.06170E+03
  1.41597E+04  1.10493E+03  1.08027E+04  8.14130E+03  1.97316E+03  1.07673E+04 -6.06789E+03  9.73868E+03
 -7.99844E+03  3.03142E+03 -4.30989E+03 -1.78379E+03  1.69695E+03 -2.50969E+03  5.38318E+03 -1.11196E+03
  4.98067E+03  4.19568E+03  1.17388E+03  7.98071E+03 -5.26713E+03  7.46155E+03 -9.53566E+03  2.27764E+03
 -6.35900E+03 -4.49269E+03 -1.49437E+01 -8.32529E+03  4.82735E+03 -4.01894E+03  4.57180E+03  1.37659E+03
  7.84054E+02  4.62469E+03 -4.98159E+03  5.95569E+03 -6.77950E+03  3.23511E+03 -6.28020E+03 -1.77889E+03
 -3.82120E+03 -7.56662E+03  1.64040E+03 -9.23230E+03  7.64389E+03 -5.82336E+03  8.23299E+03  1.53105E+03
  5.81670E+03  6.76126E+03 -9.75792E+01  8.86514E+03 -6.35281E+03  5.03585E+03 -6.58490E+03 -7.23349E+02
 -6.67641E+03 -6.13848E+03 -1.17516E+03 -6.24509E+03  3.40949E+03 -5.63906E+03  3.60655E+03 -3.19512E+03
  3.21416E+03  2.33216E+02  1.96542E+02  1.54981E+03  3.00961E+02 -8.21853E+02  5.08591E+02 -2.61765E+03
  5.07368E+03 -1.33442E+03  6.92731E+03  8.90665E+02  7.27236E+03  4.38521E+03  6.38567E+03  9.28928E+03
 -2.00451E+03  1.11517E+04 -9.89171E+03  8.53883E+03 -1.25456E+04  1.70026E+03 -9.98707E+03 -3.80543E+03
 -5.17280E+03 -8.03022E+03 -5.68386E+02 -6.86746E+03  2.64204E+03 -3.05206E+03  2.45711E+03 -2.69168E+03
  1.36834E+03 -1.55618E+03  2.31760E+03 -2.58987E+03  3.68487E+03 -1.57783E+03  4.22065E+03  1.48132E+02
  5.24555E+03  1.47662E+03  1.87928E+03  4.46444E+03 -1.72792E+03  3.81671E+03 -5.62282E+03  3.74723E+03
 -6.65034E+03 -1.18559E+03 -3.30620E+03 -4.20103E+03  2.68758E+01 -6.48981E+03  4.36671E+03 -6.96687E+03
  6.62706E+03 -3.82000E+03  8.34590E+03  5.05341E+02  6.01256E+03  5.48370E+03  1.15518E+03  7.70454E+03
 -2.93051E+03  6.88769E+03 -4.61573E+03  2.07398E+03 -2.69436E+03 -1.13800E+03 -6.88183E+02 -7.98223E+02
 -7.93658E+02  7.39767E+02 -1.20337E+03  2.41370E+03 -3.26858E+03  1.57492E+03 -4.86567E+03 -8.08036E+02
 -2.13147E+03 -4.61688E+03  4.18123E+02 -6.05166E+03  3.44018E+03 -5.62918E+03  4.93583E+03 -1.69146E+03
  5.40628E+03  3.09673E+03  2.56683E+03  4.59702E+03 -9.81145E+02  5.82688E+03 -3.61566E+03  3.67704E+03
 -4.97136E+03  7.09577E+02 -4.27236E+03 -3.21948E+03 -5.06323E+02 -4.77532E+03  2.21177E+03 -3.63017E+03
  3.85052E+03 -1.44968E+03  2.25849E+03  7.56393E+02  8.16440E+02  2.24580E+03  9.77851E+02  5.93221E+02
  1.61636E+03  6.92928E+02  1.38143E+03  1.28255E+03  1.41398E+03  2.68253E+03  1.41600E+03  2.66306E+03
 -1.56746E+03  4.22303E+03 -3.53118E+03  5.19500E+03 -4.42099E+03  1.44620E+03 -5.33946E+03 -1.16424E+03
 -2.29112E+03 -4.84807E+03  1.00789E+03 -6.03953E+03  2.66856E+03 -3.38552E+03  3.98090E+03 -1.30726E+03
  3.31404E+03  2.27755E+03  5.30711E+02  3.00755E+03 -1.08417E+03  1.54229E+03 -1.59983E+03 -2.78457E+02
 -8.64517E+02 -2.25001E+03  1.46450E+03 -2.09205E+03  2.04535E+03 -1.35180E+03  1.89450E+03  5.56944E+02
  1.13271E+03  7.38715E+02  8.00773E+02 -1.32436E+02 -2.78912E+02  7.71347E+02  1.54670E+03 -1.97783E+02
  1.88496E+02 -3.49168E+02  2.10077E+03  8.57131E+02  5.28258E+02  2.90147E+03 -6.14352E+02  3.46815E+03
 -2.19093E+03  1.43425E+03 -2.78890E+03  8.54782E+02 -2.77920E+03 -8.22499E+02 -4.18897E+02 -1.62951E+03
  3.74133E+02 -1.68421E+03  1.14801E+03 -9.33001E+02  8.26491E+02  1.41940E+03 -1.15730E+03  1.62598E+03
 -1.83911E+03  9.63414E+02 -1.53682E+03 -1.30663E+03 -1.05491E+03 -2.48716E+03  6.13330E+01 -2.09194E+03
  6.62688E+02 -1.03386E+03  1.17084E+03  1.64187E+02  1.70425E+03  2.77613E+02  7.85734E+02  1.54172E+03
 -6.78539E+02 -8.19039E+01 -1.06095E+03 -3.97556E+02  7.87549E+02 -1.23995E+03  2.10137E+03 -1.10398E+03
  2.16022E+03 -1.34142E+02  3.16960E+03  1.03910E+03  1.09013E+03  2.23759E+03 -9.51001E+02  2.53664E+03
 -1.95346E+03  7.62872E+02 -2.20017E+03 -4.29169E+02 -1.29641E+03 -1.66403E+03  4.16546E+02 -9.66410E+02
  1.78992E+03 -9.37668E+02  1.18695E+03  7.67738E+02  4.83266E+02  1.74376E+03  3.02143E+02  1.45447E+03
 -5.95514E+02  1.29339E+03 -7.23807E+02  3.76742E+01 -1.35218E+02  5.22100E+02 -7.73767E+02  4.52584E+02
 -7.38741E+02  1.17974E+03 -2.02184E+03  6.61993E+02 -2.42323E+03  2.83738E+02 -3.13568E+03 -1.31024E+03
 -1.37242E+03 -3.07805E+03  7.70014E+02 -3.49591E+03  1.68092E+03 -3.16248E+03  3.76653E+03 -1.24296E+03
  3.27311E+03  1.80783E+01  1.87415E+03  2.31531E+03 -3.05802E+02  1.98939E+03 -9.74959E+02  1.48255E+03
 -1.25134E+03  8.71422E+02 -6.58742E+02 -3.41407E+02 -5.11973E+02  3.52109E+02 -9.51769E+02 -1.05840E+02
 -1.10109E+03 -6.53760E+01 -7.57594E+02  7.73253E+01  1.68815E+02 -5.43783E+02 -1.33519E+01 -1.14443E+03
  1.47944E+03 -1.10213E+03  6.50543E+02  5.01639E+02  1.51705E+03  1.15039E+03 -2.83681E+02  1.68622E+03
 -1.35012E+03  2.85321E+03 -2.00833E+03  1.64819E+03 -2.49083E+03  9.70557E+00 -1.80548E+03 -1.60255E+03
 -1.04149E+03 -2.05284E+03  5.39787E+02 -2.02142E+03  1.04199E+03 -7.16318E+02  1.08980E+03  6.85127E+01
  9.65042E+02  2.43121E+02 -7.86236E+01  4.44207E+02 -5.60403E+02 -2.77585E+02 -2.88261E+02 -2.51317E+02
  5.61897E+02 -1.91542E+02  6.00347E+02  7.48219E+02  5.00629E+02  6.31241E+02  3.42346E+02  8.44123E+02
 -5.61051E+02  7.75334E+02 -1.07352E+03  9.31032E+01 -9.91937E+02 -5.40014E+02  2.12399E+01 -1.58544E+03
  6.19929E+02 -9.82290E+02  7.10609E+02 -2.27363E+02  1.29592E+03 -5.08541E+02  1.03537E+03  1.16700E+03
  3.77670E+02  9.44757E+02 -1.97895E+02  5.40897E+02 -5.37863E+02  6.14610E+02 -4.96047E+02  2.94070E+02
 -8.26529E+01 -2.14615E+02 -9.00193E+02  2.53621E+02 -5.94164E+02  4.48440E+02 -6.66931E+02 -1.31415E+02
 -1.33354E+03  1.59688E+02 -3.86793E+02 -1.30734E+03  1.11338E+03 -1.69565E+03  9.95654E+02 -3.30797E+02
  6.37437E+02  2.36249E+02 -1.48219E+01  3.43817E+02 -1.93635E+02  1.25734E+03 -8.63777E+02  7.51390E+02
