 $NMID ID='MM_0lb_SNR800_20hz_g45_58.RAW', FMTDAT='(8E13.5)'
 TRAMP=1., VOLUME=1. $END
  3.09994E+05  6.57826E+02  3.37322E+05  2.50294E+05  8.43201E+04  3.37064E+05 -1.32479E+05  2.49935E+05
 -1.89354E+05  8.23010E+04 -1.10631E+05 -3.30849E+04  1.93736E+03 -4.99793E+04  5.37535E+04  6.72551E+02
  3.49229E+04  5.28571E+04 -1.71147E+04  7.47168E+04 -6.01906E+04  6.22930E+04 -8.24088E+04  3.12325E+04
 -7.91486E+04 -1.09156E+04 -5.59435E+04 -4.99356E+04 -1.50837E+04 -6.78685E+04  2.64869E+04 -4.42177E+04
  3.85761E+04  4.12751E+03  1.53393E+04  4.67610E+04 -3.40311E+04  4.59864E+04 -6.47392E+04 -4.63825E+02
 -5.15439E+04 -5.56046E+04 -6.38536E+03 -7.44108E+04  3.28740E+04 -5.25827E+04  4.57772E+04 -1.58747E+04
  4.11033E+04  1.10066E+04  3.06269E+04  2.40074E+04  1.57104E+04  2.79213E+04 -4.48564E+03  2.67194E+04
 -2.14410E+04  1.29577E+04 -1.90715E+04 -3.91642E+03  3.75570E+03 -7.68866E+03  2.09510E+04  1.05376E+04
  7.64079E+03  3.26120E+04 -2.98474E+04  3.34516E+04 -6.02860E+04  2.28291E+03 -5.48781E+04 -4.05106E+04
 -1.25738E+04 -5.98542E+04  3.73123E+04 -4.29339E+04  5.47147E+04 -1.72270E+03  3.07078E+04  3.00312E+04
 -6.55755E+03  3.20515E+04 -2.79519E+04  1.23769E+04 -2.66182E+04 -5.64703E+03 -1.36167E+04 -9.61282E+03
 -6.94543E+03 -1.07515E+04 -1.15167E+03 -1.62366E+04  6.46492E+03 -2.24702E+04  1.48860E+04 -1.41544E+04
  1.25198E+04  3.77948E+03 -5.67214E+03  1.30724E+04 -1.87035E+04 -1.90318E+03 -8.00756E+03 -2.92818E+04
  2.00829E+04 -3.93985E+04  4.36971E+04 -1.81537E+04  4.10446E+04  1.78935E+04  1.38570E+04  4.08471E+04
 -1.51697E+04  3.03531E+04 -2.25651E+04  8.02259E+02 -7.64706E+03 -2.59450E+04  2.03187E+04 -3.02430E+04
  3.69346E+04 -6.86631E+03  3.02289E+04  2.25967E+04  1.46117E+04  4.12125E+04 -7.62941E+03  4.35276E+04
 -2.76637E+04  2.85917E+04 -3.55820E+04  7.97447E+03 -3.67295E+04 -1.41513E+04 -2.04590E+04 -3.32354E+04
  7.04382E+03 -3.31616E+04  2.83607E+04 -1.21641E+04  2.61891E+04  1.07522E+04  2.40727E+03  1.74695E+04
 -1.28078E+04  6.71473E+03 -9.27066E+03 -7.76752E+03  5.82113E+03 -9.70449E+03  1.69952E+04  6.53338E+03
  1.17134E+04  2.15717E+04 -6.86427E+03  2.29985E+04 -2.11290E+04  8.29166E+03 -2.40645E+04 -6.94019E+03
 -1.56168E+04 -1.59825E+04 -4.61039E+03 -1.54125E+04  3.48568E+03 -1.30341E+04  1.12682E+04 -1.32453E+04
  1.95527E+04 -1.11728E+04  2.68158E+04  5.48672E+02  2.03420E+04  1.49350E+04  3.92547E+03  3.11656E+04
 -1.54333E+04  2.66090E+04 -2.55834E+04  8.96105E+03 -1.90247E+04 -1.06365E+04 -3.58978E+03 -1.40627E+04
  2.85793E+03 -4.69060E+03 -1.94465E+03  4.98479E+03 -1.17992E+04  5.23896E+03 -1.24510E+04 -4.43812E+03
 -8.29272E+03 -1.42773E+04  4.36338E+03 -1.85274E+04  1.14814E+04 -1.29900E+04  1.34935E+04 -1.48065E+03
  8.44608E+03  9.98469E+03 -4.06639E+02  1.46435E+04 -9.20533E+03  8.20638E+03 -1.43038E+04 -3.38467E+03
 -1.06553E+04 -1.32550E+04 -1.33166E+03 -1.78311E+04  8.04939E+03 -1.39111E+04  1.50509E+04 -6.60863E+03
  1.35626E+04  8.26707E+02  9.74795E+03  3.73859E+03  4.45732E+03  1.99551E+02  6.83305E+03 -1.17945E+03
  1.25551E+04  2.74029E+03  1.33465E+04  1.20572E+04  8.13391E+03  2.29118E+04 -3.22010E+03  2.37967E+04
 -1.44811E+04  1.78394E+04 -2.20945E+04  8.42873E+03 -2.23405E+04 -1.74703E+03 -1.94103E+04 -1.27224E+04
 -9.68561E+03 -1.80549E+04  6.12422E+03 -1.75528E+04  1.49444E+04 -1.02212E+04  1.45736E+04  3.16462E+03
  6.38545E+03  1.03511E+04 -6.51617E+03  9.61019E+03 -1.25361E+04  2.76541E+03 -9.67541E+03 -7.37394E+03
 -2.01552E+02 -1.16972E+04  5.59250E+03 -8.80609E+03  7.09753E+03 -1.27781E+03  8.94500E+02  4.39375E+03
 -5.04807E+03  9.61638E+02 -2.92448E+03 -4.50408E+03  1.03404E+03 -9.06530E+03  7.54517E+03 -8.72737E+03
  1.08558E+04 -3.65242E+03  1.01237E+04  2.68613E+03  8.70196E+03  8.34198E+03  4.27785E+03  1.22981E+04
 -1.04405E+03  1.40806E+04 -8.38700E+03  9.06134E+03 -1.00293E+04  2.82167E+03 -7.53775E+03 -1.38136E+03
 -4.29110E+03 -2.76153E+03 -8.66272E+02  1.57556E+03 -2.22599E+03  1.92643E+03 -3.14220E+03  3.29474E+03
 -7.39956E+03 -4.79835E+02 -8.56918E+03 -6.61086E+03 -3.24645E+03 -1.06083E+04  3.13803E+03 -7.45807E+03
  6.32540E+03 -3.51193E+03  4.83508E+03  1.89223E+03  8.27328E+02  2.66756E+03 -3.02459E+03 -1.20556E+02
 -2.78755E+03 -4.56513E+03 -5.77124E+02 -6.22931E+03  3.35607E+03 -7.13515E+03  8.58165E+03 -3.50221E+03
  1.04431E+04  4.92149E+02  7.94859E+03  5.25178E+03  1.53239E+03  7.40356E+03 -4.72088E+03  7.45732E+03
 -6.29472E+03  2.63471E+03 -3.32355E+03 -9.93168E+02  1.39459E+03 -1.53908E+03  4.32920E+03 -9.02569E+02
  3.63689E+03  2.85842E+03  9.26702E+02  5.68274E+03 -3.91326E+03  5.92899E+03 -7.17020E+03  1.66460E+03
 -4.06960E+03 -3.09005E+03  3.71834E+02 -5.79876E+03  3.09832E+03 -2.87905E+03  3.11782E+03  5.54645E+02
  3.35877E+02  2.70537E+03 -3.71855E+03  3.91123E+03 -3.93202E+03  1.89395E+03 -3.64363E+03 -3.91656E+02
 -2.47814E+03 -4.96331E+03  7.37152E+02 -5.51722E+03  4.76982E+03 -3.84664E+03  5.36387E+03  7.31930E+02
  3.92147E+03  4.27411E+03  1.34439E+02  6.46341E+03 -4.49421E+03  3.92263E+03 -4.61603E+03 -4.46001E+02
 -5.18487E+03 -4.58014E+03 -1.36243E+03 -4.54650E+03  2.12464E+03 -4.16488E+03  2.26595E+03 -2.77139E+03
  2.66270E+03 -4.87766E+01  2.13739E+02  1.26408E+03  6.91454E+02  2.09998E+02 -1.09934E+01 -1.16198E+03
  3.04122E+03 -1.59734E+02  3.96780E+03  5.60260E+02  4.71827E+03  2.16989E+03  4.80137E+03  5.63293E+03
 -7.04242E+02  7.03624E+03 -6.79650E+03  5.24247E+03 -8.25736E+03  1.13353E+03 -6.19717E+03 -1.88571E+03
 -3.71033E+03 -5.73191E+03 -4.20342E+02 -4.27784E+03  1.90044E+03 -1.75991E+03  1.69035E+03 -2.07989E+03
  1.14071E+03 -1.27941E+03  1.95022E+03 -2.11518E+03  3.48314E+03 -1.03688E+03  2.81540E+03  5.39327E+02
  3.68431E+03  1.35213E+03  5.82679E+02  3.15561E+03 -1.53867E+03  2.33726E+03 -3.88724E+03  1.93611E+03
 -4.02247E+03 -1.22211E+03 -1.21220E+03 -2.68704E+03  4.86628E+02 -3.99788E+03  2.61763E+03 -4.51783E+03
  4.32064E+03 -2.96224E+03  5.40234E+03  3.16517E+02  4.35101E+03  3.19662E+03  1.02528E+03  5.19226E+03
 -1.45492E+03  4.98299E+03 -2.74391E+03  1.54582E+03 -1.23325E+03 -8.13982E+02 -2.88191E+02 -5.05504E+02
 -3.47958E+02  2.99631E+02 -8.89665E+02  1.84009E+03 -2.22407E+03  9.61135E+02 -3.63579E+03 -1.98146E+02
 -8.70751E+02 -3.45121E+03  8.62745E+02 -3.67055E+03  2.13595E+03 -3.41667E+03  2.75715E+03 -8.20491E+02
  3.14620E+03  1.89530E+03  1.49333E+03  2.24526E+03 -5.02842E+02  3.43304E+03 -2.03820E+03  2.05851E+03
 -3.01098E+03  4.08705E+02 -2.68940E+03 -1.92271E+03 -1.02215E+02 -2.49745E+03  1.39207E+03 -2.10712E+03
  2.32277E+03 -1.11859E+03  1.45800E+03  1.22952E+02  4.58163E+02  1.65307E+03  5.51878E+02  2.54001E+02
  1.53557E+03  5.13803E+02  1.00036E+03  7.95218E+02  7.78332E+02  1.93171E+03  1.35421E+03  1.17347E+03
 -1.07849E+03  2.28366E+03 -1.93547E+03  3.25874E+03 -2.06042E+03  1.22898E+03 -3.33607E+03  7.67800E+00
 -1.28639E+03 -2.64758E+03  6.17468E+02 -3.65463E+03  1.53016E+03 -1.87247E+03  2.38822E+03 -7.74346E+02
  1.89830E+03  1.30132E+03  3.95545E+02  1.83754E+03 -3.53384E+02  8.83518E+02 -5.32275E+02 -2.27710E+02
 -5.75035E+02 -1.14386E+03  1.24694E+03 -1.19920E+03  6.38174E+02 -8.96123E+02  8.73554E+02  5.09458E+02
  2.39060E+02  1.54556E+02  5.16698E+02 -3.56512E+02 -4.41244E+02  6.26775E+02  1.25875E+03 -4.48789E+01
 -2.88531E+02 -1.21582E+02  1.24435E+03  4.65690E+02  1.38614E+02  1.98351E+03 -3.86943E+02  2.39959E+03
 -1.31396E+03  7.20663E+02 -1.43436E+03  3.71929E+02 -1.68057E+03 -5.72789E+02 -4.44043E+01 -4.66852E+02
  1.66219E+02 -9.19659E+02  6.89262E+02 -6.68038E+02  4.40056E+02  9.95369E+02 -6.50072E+02  8.04417E+02
 -1.32695E+03  6.80823E+02 -7.52548E+02 -1.34470E+03 -5.78834E+02 -2.09922E+03 -1.70021E+02 -1.25106E+03
  3.25189E+02 -3.09797E+02  4.30344E+02  1.40542E+02  9.59993E+02 -5.54995E+02  2.52590E+02  1.04664E+03
  2.68152E+01  5.03893E+01 -6.46517E+02  4.81088E-01  7.30704E+02 -4.18656E+02  1.46750E+03 -9.15873E+02
  7.84257E+02  5.06344E+02  2.31911E+03  3.86433E+02  7.96769E+02  1.15647E+03  1.14195E+00  1.59350E+03
 -9.77525E+02 -2.70364E+01 -1.14304E+03 -1.11739E+01 -7.43288E+02 -1.05008E+03  4.45462E+01 -2.34612E+02
  1.11651E+03 -5.76848E+02  5.23969E+02  4.11165E+02  5.11075E+00  9.76160E+02  4.66078E+02  9.88655E+02
 -3.24091E+02  1.04262E+03 -3.98806E+02  1.59111E+02  2.07413E+02  3.21444E+02 -8.79322E+02  3.94206E+02
 -6.83662E+02  6.01812E+02 -1.23480E+03  2.28876E+02 -1.12052E+03  4.55436E+02 -2.06475E+03 -8.16210E+02
 -7.64332E+02 -1.63437E+03  3.76552E+02 -1.85473E+03  6.95914E+02 -1.61653E+03  1.98163E+03 -1.01304E+03
  1.57274E+03 -4.35526E+02  6.83249E+02  1.24806E+03 -6.13425E+02  7.15395E+02 -2.31638E+02  9.26627E+02
 -3.80812E+02  7.42505E+02 -5.98193E+02 -1.17274E+02 -4.41183E+02  6.39841E+02 -8.27807E+02 -5.37697E+01
 -9.98049E+02 -8.15848E-01 -9.87418E+02  1.66247E+01  5.35168E+02 -6.46693E+01 -3.50016E+02 -6.00583E+02
  1.22600E+03 -4.28072E+02  1.86533E+02  2.51493E+02  8.52935E+02  9.12885E+02 -7.88454E+02  8.75958E+02
 -5.41271E+02  1.67119E+03 -1.07010E+03  1.06962E+03 -1.32832E+03  1.85191E+02 -8.55840E+02 -9.38455E+02
 -3.69132E+02 -7.65625E+02  1.24688E+02 -5.99401E+02  5.29571E+02 -3.51632E+02  3.23552E+02  6.57278E+01
  4.22874E+02  2.07367E+02  1.04451E+02  2.09868E+02 -2.84580E+02 -7.95969E+01  8.93108E+01 -2.84312E+02
  2.06292E+02  3.83647E+02  2.59290E+02  4.19189E+02 -2.53962E+02  2.50827E+02  2.43715E+02  1.25136E+02
 -1.18903E+02  6.14958E+02 -4.88452E+02  4.62317E+01 -3.67763E+02 -2.35971E+02  8.90946E+01 -6.71156E+02
  1.12055E+02 -2.12874E+02  1.53073E+02  2.53655E+02  6.72969E+02 -5.53774E+02  5.04239E+02  6.42857E+02
  5.58509E+02  5.46911E+02  1.81380E+02  3.29939E+02 -5.63896E+02  5.24548E+02 -1.88206E+02  1.09600E+02
 -4.90613E+01 -1.37683E+02 -3.16395E+02 -4.40379E+01 -4.65693E+02 -1.88599E+02 -6.42654E+02 -1.60644E+02
 -7.82506E+02  1.53720E+02 -3.53602E+02 -3.86727E+02  5.10279E+02 -1.38566E+03  6.22764E+02  1.33995E+02
  1.58727E+02 -1.22232E+02 -5.60806E+02  2.66691E+01  9.14609E+01  6.57399E+02 -3.06781E+02  8.34512E+02
