 $NMID ID='MM_0lb_SNR800_8hz_g55_11.RAW', FMTDAT='(8E13.5)'
 TRAMP=1., VOLUME=1. $END
  3.09811E+05  5.04222E+02  3.37878E+05  2.50743E+05  8.47911E+04  3.38557E+05 -1.32351E+05  2.52035E+05
 -1.91394E+05  8.41238E+04 -1.13223E+05 -3.24267E+04  2.75427E+02 -5.08053E+04  5.36364E+04 -6.75936E+02
  3.54852E+04  5.30725E+04 -1.63613E+04  7.61704E+04 -6.14976E+04  6.49340E+04 -8.57325E+04  3.27409E+04
 -8.31075E+04 -1.16544E+04 -5.85866E+04 -5.27135E+04 -1.55621E+04 -7.15857E+04  2.86250E+04 -4.71309E+04
  4.14125E+04  3.95097E+03  1.69107E+04  4.89020E+04 -3.51140E+04  4.80191E+04 -6.89428E+04  3.66593E+01
 -5.51971E+04 -5.76781E+04 -7.20905E+03 -7.93024E+04  3.49156E+04 -5.74949E+04  5.06766E+04 -1.89117E+04
  4.56049E+04  1.16432E+04  3.37017E+04  2.67395E+04  1.57691E+04  3.08360E+04 -5.69608E+03  2.76466E+04
 -2.25004E+04  1.18952E+04 -1.77699E+04 -5.68692E+03  7.28940E+03 -7.04112E+03  2.37609E+04  1.35872E+04
  7.26132E+03  3.80814E+04 -3.45143E+04  3.78732E+04 -6.64015E+04  2.24261E+03 -5.93040E+04 -4.47967E+04
 -1.24824E+04 -6.64905E+04  4.21195E+04 -4.79801E+04  6.21746E+04 -2.65760E+03  3.77100E+04  3.47762E+04
 -5.35682E+03  4.01425E+04 -3.24672E+04  1.97441E+04 -3.44287E+04 -2.85302E+03 -1.99692E+04 -1.22661E+04
 -9.45270E+03 -1.56550E+04 -6.69148E+02 -2.01631E+04  8.56754E+03 -2.39759E+04  1.66304E+04 -1.22076E+04
  1.01652E+04  7.01903E+03 -1.15887E+04  1.27778E+04 -2.37382E+04 -7.08548E+03 -8.91237E+03 -3.84262E+04
  2.59794E+04 -4.79553E+04  5.28019E+04 -2.13675E+04  4.98514E+04  2.11075E+04  1.76016E+04  4.80713E+04
 -1.72136E+04  3.69133E+04 -2.83068E+04  2.42332E+03 -1.20052E+04 -3.01475E+04  2.24157E+04 -3.73802E+04
  4.57960E+04 -1.15917E+04  4.22620E+04  2.50966E+04  2.18598E+04  5.23244E+04 -8.36528E+03  5.78319E+04
 -3.64977E+04  3.94317E+04 -4.90394E+04  1.14107E+04 -4.89033E+04 -1.89119E+04 -2.71342E+04 -4.32164E+04
  8.08269E+03 -4.32301E+04  3.52909E+04 -1.81144E+04  3.33609E+04  1.09359E+04  5.50872E+03  2.10348E+04
 -1.36715E+04  1.02567E+04 -1.15046E+04 -7.49900E+03  6.20325E+03 -1.19732E+04  1.89725E+04  5.65924E+03
  1.52809E+04  2.26753E+04 -5.36161E+03  2.78622E+04 -2.41710E+04  1.50581E+04 -3.21768E+04 -2.47182E+03
 -2.67455E+04 -1.90391E+04 -1.26060E+04 -2.60747E+04  4.32133E+03 -2.79552E+04  2.12633E+04 -2.43735E+04
  3.40419E+04 -1.45882E+04  3.93531E+04  5.76600E+03  2.81110E+04  2.56148E+04  4.57649E+03  4.29463E+04
 -2.04308E+04  3.50928E+04 -3.12421E+04  1.22604E+04 -2.29655E+04 -9.86937E+03 -5.29338E+03 -1.28177E+04
  3.24482E+02 -8.88005E+02 -8.73265E+03  8.86180E+03 -2.20178E+04  4.85284E+03 -2.11504E+04 -1.04428E+04
 -1.28316E+04 -2.44970E+04  6.36953E+03 -2.89411E+04  2.01232E+04 -2.06091E+04  2.38671E+04 -1.51114E+03
  1.56283E+04  1.71714E+04 -1.22277E+03  2.46560E+04 -1.80471E+04  1.40887E+04 -2.48802E+04 -4.85721E+03
 -1.81189E+04 -2.18349E+04 -2.47663E+03 -2.95040E+04  1.35157E+04 -2.44262E+04  2.39900E+04 -1.27498E+04
  2.32416E+04  7.89107E+00  1.67549E+04  5.30801E+03  9.88907E+03  1.64812E+03  1.30285E+04 -2.20213E+03
  2.35693E+04  2.58156E+03  2.72083E+04  1.95921E+04  1.94597E+04  3.97057E+04 -2.85219E+03  4.75066E+04
 -2.67375E+04  4.00656E+04 -4.50339E+04  2.07781E+04 -4.83728E+04 -3.51271E+03 -3.87997E+04 -2.84148E+04
 -1.49226E+04 -4.00533E+04  1.40522E+04 -3.47939E+04  3.01402E+04 -1.65593E+04  2.57233E+04  8.83469E+03
  8.46181E+03  2.04915E+04 -1.26967E+04  1.70283E+04 -2.15603E+04  2.74282E+03 -1.63532E+04 -1.33670E+04
 -7.89352E+02 -2.07929E+04  1.09594E+04 -1.54308E+04  1.45469E+04 -1.26450E+03  3.63467E+03  9.08757E+03
 -9.47198E+03  4.63833E+03 -9.96263E+03 -6.82978E+03 -2.54989E+03 -1.95883E+04  1.28476E+04 -2.17346E+04
  2.52573E+04 -1.21159E+04  2.81845E+04  3.47860E+03  2.54104E+04  2.04961E+04  1.13921E+04  3.17879E+04
 -6.56720E+03  3.41750E+04 -2.23035E+04  2.08906E+04 -2.47991E+04  4.65943E+03 -1.72976E+04 -6.73309E+03
 -6.96524E+03 -7.81744E+03 -4.33456E+02  2.82889E+02 -2.98937E+03  3.84345E+03 -7.79836E+03  5.81523E+03
 -1.52821E+04 -1.01950E+03 -1.58091E+04 -1.27918E+04 -6.65194E+03 -2.07637E+04  6.44773E+03 -1.69860E+04
  1.40284E+04 -6.70205E+03  9.62441E+03  4.45516E+03 -6.72834E+02  7.35644E+03 -8.47989E+03  7.40699E+00
 -8.35599E+03 -1.11421E+04 -1.13879E+03 -1.68564E+04  9.81673E+03 -1.78134E+04  2.20926E+04 -9.86589E+03
  2.56495E+04  2.82861E+03  1.87238E+04  1.62498E+04  3.38320E+03  2.09575E+04 -1.03031E+04  1.69714E+04
 -1.37411E+04  4.35587E+03 -7.49247E+03 -4.05031E+03  2.62000E+03 -5.26742E+03  9.13057E+03 -1.30902E+03
  8.12637E+03  7.57830E+03  1.42985E+03  1.38154E+04 -9.75441E+03  1.32311E+04 -1.69775E+04  3.04414E+03
 -1.17140E+04 -9.07194E+03  2.88185E+02 -1.48645E+04  9.76994E+03 -7.65720E+03  1.06219E+04  3.89863E+03
  2.98429E+03  1.18142E+04 -8.98580E+03  1.28340E+04 -1.54457E+04  5.82853E+03 -1.57687E+04 -5.82905E+03
 -8.99968E+03 -1.80217E+04  4.55251E+03 -2.01793E+04  1.74516E+04 -1.19628E+04  1.85432E+04  3.34201E+03
  1.12308E+04  1.49405E+04 -1.86835E+03  1.74524E+04 -1.27090E+04  9.64707E+03 -1.46537E+04 -1.37002E+03
 -1.18708E+04 -1.14085E+04 -1.03036E+03 -1.37590E+04  7.26359E+03 -1.06583E+04  8.84228E+03 -4.02711E+03
  5.12698E+03  2.34999E+03 -1.18787E+03  2.24087E+03 -8.81582E+02 -3.75531E+03  3.15254E+03 -8.70718E+03
  1.33404E+04 -5.83240E+03  1.88698E+04  1.72248E+03  1.76649E+04  1.31324E+04  1.17002E+04  2.37869E+04
 -5.66345E+03  2.75009E+04 -2.26380E+04  2.01164E+04 -2.93266E+04  3.56240E+03 -2.34707E+04 -1.06424E+04
 -1.15495E+04 -1.93078E+04 -5.65989E+02 -1.64469E+04  5.46732E+03 -9.42828E+03  6.17165E+03 -5.65834E+03
  4.09776E+03 -3.49442E+03  4.19397E+03 -4.09424E+03  5.99493E+03 -4.32671E+03  8.60793E+03 -1.83261E+03
  1.25358E+04  2.72726E+03  7.17567E+03  1.09125E+04 -2.59014E+03  1.31370E+04 -1.32344E+04  1.02224E+04
 -1.67293E+04 -1.61793E+03 -1.13988E+04 -1.22319E+04 -1.91957E+03 -1.83071E+04  9.46609E+03 -1.83783E+04
  1.88732E+04 -1.01872E+04  2.23601E+04  3.01714E+03  1.54198E+04  1.62291E+04  2.00927E+03  2.02538E+04
 -8.31348E+03  1.63228E+04 -1.17561E+04  5.55071E+03 -8.91849E+03 -2.08352E+03 -3.90134E+03 -2.30975E+03
 -1.47846E+03 -1.93237E+02 -2.49396E+03  2.93922E+03 -7.29567E+03  2.84321E+03 -1.17375E+04 -2.22645E+03
 -8.23290E+03 -1.16350E+04 -5.14437E+02 -1.67071E+04  1.06547E+04 -1.59036E+04  1.73462E+04 -4.88187E+03
  1.70490E+04  8.13475E+03  7.96911E+03  1.56091E+04 -3.91361E+03  1.73877E+04 -1.21320E+04  1.06805E+04
 -1.65250E+04  3.06164E+02 -1.21715E+04 -1.06804E+04 -1.15758E+03 -1.42875E+04  6.99510E+03 -1.11851E+04
  1.10194E+04 -3.18368E+03  7.38099E+03  3.27551E+03  2.38208E+03  4.75815E+03  1.80322E+03  2.44193E+03
  3.34791E+03  1.29941E+03  4.22971E+03  2.02461E+03  4.93678E+03  6.41590E+03  4.81888E+03  9.69448E+03
 -3.60019E+03  1.41019E+04 -1.26756E+04  1.36932E+04 -1.84847E+04  3.42008E+03 -1.86174E+04 -8.39429E+03
 -8.57231E+03 -1.78587E+04  2.79870E+03 -1.94213E+04  1.10759E+04 -1.21908E+04  1.44056E+04 -3.22909E+03
  1.10178E+04  6.22053E+03  2.54747E+03  1.02875E+04 -5.11846E+03  6.50358E+03 -7.71705E+03 -8.33521E+02
 -3.68061E+03 -7.63592E+03  3.89320E+03 -8.00191E+03  7.63498E+03 -3.82624E+03  7.26111E+03  1.66284E+03
  4.37019E+03  3.99142E+03  2.04371E+03  3.68079E+03 -6.21203E+02  2.61795E+03  1.93480E+03 -9.77031E+02
  3.07867E+03 -7.07369E+02  7.41253E+03  2.95514E+03  3.87121E+03  9.38429E+03 -2.11730E+03  1.31408E+04
 -8.76223E+03  8.39564E+03 -1.18816E+04  2.45379E+03 -1.06381E+04 -3.85943E+03 -3.94131E+03 -7.50976E+03
  8.37053E+02 -7.18623E+03  5.18447E+03 -3.44880E+03  3.54827E+03  3.20722E+03 -1.83585E+03  5.97676E+03
 -7.36708E+03  3.31178E+03 -8.64625E+03 -4.04377E+03 -4.74443E+03 -9.78716E+03  1.26952E+03 -9.98213E+03
  6.62467E+03 -6.38188E+03  7.79145E+03 -7.57397E+02  5.93406E+03  3.29576E+03  9.02979E+02  5.36769E+03
 -3.58453E+03  1.92344E+03 -4.47830E+03 -3.48603E+03  1.44896E+03 -8.15455E+03  9.04271E+03 -6.43165E+03
  1.19317E+04  7.20044E+02  1.11022E+04  8.33670E+03  4.03266E+03  1.24823E+04 -4.61111E+03  1.20736E+04
 -1.01748E+04  5.12219E+03 -1.02606E+04 -1.54822E+03 -5.41531E+03 -7.73450E+03  1.91675E+03 -7.88989E+03
  7.46691E+03 -3.63365E+03  6.47008E+03  3.13416E+03  2.40140E+03  6.51041E+03 -1.07058E+03  5.69779E+03
 -3.41414E+03  3.79299E+03 -3.42222E+03  1.15627E+03 -9.34742E+02  9.81066E+02 -1.71175E+03  2.63210E+03
 -2.85431E+03  4.66899E+03 -8.16502E+03  4.30445E+03 -1.24833E+04  2.24248E+00 -1.34976E+04 -8.08856E+03
 -7.49416E+03 -1.64461E+04  2.81148E+03 -1.90144E+04  1.22133E+04 -1.46163E+04  1.78611E+04 -5.83966E+03
  1.65232E+04  3.78459E+03  1.03207E+04  1.15146E+04  1.50745E+03  1.28783E+04 -5.17245E+03  9.21225E+03
 -7.39128E+03  3.49649E+03 -4.78804E+03 -1.43028E+03 -1.47505E+03 -1.38071E+03 -4.66204E+02  3.87476E+02
 -2.18944E+03  2.30922E+02 -2.71718E+03 -1.26486E+02 -1.67782E+03 -3.39819E+03  2.50252E+02 -4.86209E+03
  5.48911E+03 -3.88213E+03  8.01249E+03 -2.66728E+02  9.17468E+03  6.90571E+03  2.25183E+03  1.30325E+04
 -6.12511E+03  1.44684E+04 -1.36944E+04  8.14553E+03 -1.59117E+04 -1.53987E+03 -1.18678E+04 -9.49558E+03
 -4.63277E+03 -1.34462E+04  3.64310E+03 -1.25486E+04  8.62906E+03 -6.55867E+03  8.45068E+03  6.45859E+02
  4.71123E+03  4.54462E+03 -5.32430E+02  3.59752E+03 -2.57765E+03 -2.62029E+02 -1.78484E+01 -2.90837E+03
  3.77965E+03 -1.99906E+03  5.60600E+03  1.60110E+03  3.44221E+03  5.30587E+03 -4.56165E+01  6.98595E+03
 -5.63798E+03  5.92363E+03 -9.05125E+03  1.15607E+03 -7.58348E+03 -6.25763E+03 -1.27350E+03 -1.11379E+04
  6.39426E+03 -9.12532E+03  1.05975E+04 -3.73609E+03  1.03965E+04  2.60420E+03  5.78017E+03  8.56344E+03
  1.19383E+03  8.79545E+03 -3.46003E+03  7.00764E+03 -5.62607E+03  3.88630E+03 -4.40962E+03  6.84780E+02
 -2.88577E+03 -4.44603E+02 -2.46775E+03  1.15801E+03 -4.72813E+03  1.56668E+03 -6.81893E+03 -1.28503E+03
 -6.56685E+03 -4.79369E+03 -2.17598E+03 -9.07806E+03  3.82398E+03 -8.92517E+03  8.14157E+03 -4.34330E+03
  8.86311E+03  1.06356E+03  5.07375E+03  6.51220E+03 -5.45522E+02  8.81870E+03 -6.64297E+03  5.43968E+03
