 $NMID ID='MM_0lb_SNR800_13hz_g50_88.RAW', FMTDAT='(8E13.5)'
 TRAMP=1., VOLUME=1. $END
  3.09892E+05  1.90734E+02  3.37492E+05  2.50525E+05  8.48075E+04  3.38102E+05 -1.32138E+05  2.51184E+05
 -1.90161E+05  8.32123E+04 -1.11882E+05 -3.24783E+04  9.62589E+02 -5.05297E+04  5.36202E+04  1.24954E+02
  3.54418E+04  5.31005E+04 -1.69429E+04  7.57117E+04 -6.09169E+04  6.37748E+04 -8.44319E+04  3.21935E+04
 -8.13922E+04 -1.12958E+04 -5.77095E+04 -5.11009E+04 -1.51083E+04 -7.00435E+04  2.74983E+04 -4.58107E+04
  4.02954E+04  3.93981E+03  1.63459E+04  4.79514E+04 -3.43043E+04  4.73678E+04 -6.69094E+04 -3.39326E+02
 -5.36179E+04 -5.71170E+04 -6.81050E+03 -7.72788E+04  3.42540E+04 -5.57001E+04  4.82754E+04 -1.76012E+04
  4.41517E+04  1.11704E+04  3.18823E+04  2.60008E+04  1.59491E+04  2.96047E+04 -5.01820E+03  2.71344E+04
 -2.24127E+04  1.23561E+04 -1.86371E+04 -5.15690E+03  6.15116E+03 -7.66692E+03  2.25943E+04  1.27823E+04
  7.03530E+03  3.55541E+04 -3.24859E+04  3.57615E+04 -6.36517E+04  2.05226E+03 -5.75818E+04 -4.32341E+04
 -1.24366E+04 -6.37536E+04  4.04129E+04 -4.58574E+04  5.88525E+04 -2.38588E+03  3.47143E+04  3.28704E+04
 -6.07650E+03  3.72136E+04 -3.07645E+04  1.63701E+04 -3.08730E+04 -4.19379E+03 -1.74606E+04 -1.08937E+04
 -8.22824E+03 -1.35203E+04 -4.74032E+02 -1.88536E+04  7.42589E+03 -2.31456E+04  1.55088E+04 -1.31582E+04
  1.13877E+04  5.78811E+03 -8.67097E+03  1.27423E+04 -2.16964E+04 -4.59929E+03 -8.41743E+03 -3.46738E+04
  2.33877E+04 -4.41996E+04  4.88419E+04 -1.99029E+04  4.57895E+04  1.98529E+04  1.60294E+04  4.51168E+04
 -1.60996E+04  3.37620E+04 -2.58727E+04  2.05905E+03 -1.06465E+04 -2.82973E+04  2.07967E+04 -3.46926E+04
  4.16224E+04 -9.67245E+03  3.65978E+04  2.41458E+04  1.85249E+04  4.71983E+04 -7.76774E+03  5.15300E+04
 -3.24200E+04  3.47038E+04 -4.34237E+04  1.00111E+04 -4.35080E+04 -1.68173E+04 -2.41363E+04 -3.86699E+04
  7.37463E+03 -3.86956E+04  3.20354E+04 -1.51851E+04  2.97717E+04  1.09341E+04  3.96506E+03  1.95452E+04
 -1.39672E+04  8.65667E+03 -1.04447E+04 -7.45035E+03  6.00966E+03 -1.06831E+04  1.85495E+04  6.06124E+03
  1.41868E+04  2.24039E+04 -5.64662E+03  2.55032E+04 -2.26888E+04  1.20997E+04 -2.90761E+04 -4.30569E+03
 -2.17602E+04 -1.73779E+04 -9.04734E+03 -2.16751E+04  4.16617E+03 -2.08786E+04  1.65288E+04 -1.91178E+04
  2.73278E+04 -1.30763E+04  3.35689E+04  3.36925E+03  2.43700E+04  2.09280E+04  4.25219E+03  3.72768E+04
 -1.85105E+04  3.09340E+04 -2.85928E+04  1.12051E+04 -2.13492E+04 -1.04436E+04 -4.54475E+03 -1.35551E+04
  1.39849E+03 -2.31397E+03 -5.23019E+03  7.03044E+03 -1.66758E+04  4.98173E+03 -1.73005E+04 -7.49885E+03
 -1.05065E+04 -1.97673E+04  5.58323E+03 -2.40917E+04  1.63563E+04 -1.71343E+04  1.91491E+04 -1.82233E+03
  1.20589E+04  1.35611E+04 -1.14782E+03  2.01102E+04 -1.39768E+04  1.14321E+04 -2.00417E+04 -3.66551E+03
 -1.46201E+04 -1.78673E+04 -1.76432E+03 -2.39844E+04  1.07338E+04 -1.98030E+04  2.00952E+04 -1.00275E+04
  1.86375E+04  3.96708E+02  1.33248E+04  4.44878E+03  6.98665E+03  8.66106E+02  1.01929E+04 -1.84136E+03
  1.83218E+04  2.73501E+03  2.03254E+04  1.55113E+04  1.38181E+04  3.20113E+04 -2.99403E+03  3.64750E+04
 -2.07973E+04  2.94645E+04 -3.42210E+04  1.49513E+04 -3.56869E+04 -2.72036E+03 -2.93506E+04 -2.06852E+04
 -1.27515E+04 -2.96460E+04  1.02296E+04 -2.61995E+04  2.26823E+04 -1.30812E+04  2.00176E+04  5.77238E+03
  7.44597E+03  1.51467E+04 -9.47886E+03  1.31967E+04 -1.65752E+04  2.38843E+03 -1.27281E+04 -1.03661E+04
 -3.17050E+02 -1.60844E+04  8.50701E+03 -1.18133E+04  1.08324E+04 -1.30033E+03  2.54011E+03  7.00557E+03
 -7.09386E+03  2.70388E+03 -6.62477E+03 -5.81171E+03 -7.25635E+02 -1.45010E+04  9.97101E+03 -1.51386E+04
  1.80931E+04 -8.20363E+03  1.96669E+04  3.05662E+03  1.73182E+04  1.41588E+04  7.74285E+03  2.22520E+04
 -3.58109E+03  2.37865E+04 -1.54091E+04  1.48963E+04 -1.68467E+04  3.51418E+03 -1.21426E+04 -3.96352E+03
 -5.54943E+03 -5.50921E+03 -6.97649E+02  7.24604E+02 -2.22384E+03  2.84119E+03 -5.83639E+03  4.51731E+03
 -1.17083E+04 -9.07222E+02 -1.16753E+04 -9.57749E+03 -4.70968E+03 -1.55397E+04  4.84417E+03 -1.22952E+04
  1.02992E+04 -5.06256E+03  7.66839E+03  3.12728E+03  1.14360E+02  4.27235E+03 -5.80671E+03 -1.57792E+02
 -5.77548E+03 -7.62349E+03 -7.72841E+02 -1.14888E+04  6.40406E+03 -1.22153E+04  1.52377E+04 -6.63274E+03
  1.77850E+04  1.63821E+03  1.31300E+04  1.03357E+04  2.54597E+03  1.38559E+04 -7.48378E+03  1.18442E+04
 -1.00639E+04  3.90743E+03 -5.25398E+03 -2.45224E+03  1.41885E+03 -3.42380E+03  6.24914E+03 -8.22908E+02
  6.06888E+03  4.98790E+03  9.79928E+02  9.63339E+03 -7.13938E+03  9.50616E+03 -1.15679E+04  2.41570E+03
 -7.85504E+03 -6.00559E+03  2.41271E+02 -1.01528E+04  6.27028E+03 -5.02322E+03  6.55582E+03  2.20860E+03
  1.44688E+03  6.85072E+03 -6.22862E+03  8.07129E+03 -9.27637E+03  4.06706E+03 -9.29588E+03 -3.06811E+03
 -5.54591E+03 -1.06787E+04  2.73104E+03 -1.26579E+04  1.04304E+04 -7.70281E+03  1.16770E+04  1.91384E+03
  7.07233E+03  9.38085E+03 -1.02551E+03  1.14273E+04 -8.44164E+03  6.27210E+03 -9.16591E+03 -1.02256E+03
 -8.14537E+03 -7.79861E+03 -1.60266E+03 -8.35663E+03  4.32587E+03 -6.96310E+03  5.11704E+03 -3.07255E+03
  3.86218E+03  1.18359E+03 -5.48642E+02  1.75007E+03  3.59627E+02 -1.88959E+03  1.38622E+03 -5.08257E+03
  7.49038E+03 -2.81441E+03  1.07342E+04  1.24021E+03  1.05130E+04  6.90825E+03  7.87522E+03  1.36966E+04
 -3.23192E+03  1.59044E+04 -1.36624E+04  1.19273E+04 -1.79003E+04  2.48080E+03 -1.41937E+04 -5.59227E+03
 -7.49192E+03 -1.14474E+04 -5.00780E+02 -9.68403E+03  3.53238E+03 -5.15932E+03  3.54368E+03 -3.47970E+03
  2.61269E+03 -2.13670E+03  3.10610E+03 -3.36564E+03  4.71153E+03 -2.43800E+03  5.57273E+03 -3.79401E+02
  7.42850E+03  1.73491E+03  3.52547E+03  6.35297E+03 -1.60113E+03  6.91517E+03 -7.67213E+03  5.57460E+03
 -9.37350E+03 -1.13057E+03 -5.40826E+03 -6.60256E+03 -4.33360E+02 -1.04142E+04  6.01116E+03 -9.93801E+03
  1.03107E+04 -6.22678E+03  1.27186E+04  1.30066E+03  8.79187E+03  8.51580E+03  1.31661E+03  1.14135E+04
 -4.35024E+03  9.87530E+03 -6.71060E+03  3.32316E+03 -3.93142E+03 -1.17638E+03 -1.55348E+03 -1.17828E+03
 -1.00883E+03 -8.41147E+00 -1.92449E+03  2.52235E+03 -4.31738E+03  1.68220E+03 -6.79985E+03 -8.66591E+02
 -4.36471E+03 -6.80056E+03  3.00386E+02 -9.00383E+03  5.74386E+03 -8.71384E+03  8.50326E+03 -2.48338E+03
  8.85078E+03  4.52045E+03  4.27170E+03  7.64881E+03 -1.92566E+03  9.32686E+03 -6.08015E+03  5.71968E+03
 -8.38688E+03  3.28558E+02 -6.92008E+03 -5.47108E+03 -4.64258E+02 -7.29611E+03  3.62686E+03 -5.40190E+03
  5.72845E+03 -1.90753E+03  3.76941E+03  1.50591E+03  1.35401E+03  2.80417E+03  1.00190E+03  1.16337E+03
  2.24086E+03  5.50793E+02  2.08200E+03  1.27326E+03  2.37858E+03  3.30418E+03  2.57465E+03  4.47277E+03
 -2.02291E+03  6.71121E+03 -6.20293E+03  7.32236E+03 -8.58011E+03  1.78533E+03 -8.67417E+03 -3.17851E+03
 -4.16729E+03 -8.61747E+03  1.20073E+03 -1.02563E+04  5.18549E+03 -5.72460E+03  7.19588E+03 -1.83593E+03
  5.48539E+03  3.69101E+03  1.40024E+03  5.13909E+03 -2.21353E+03  3.14275E+03 -3.40734E+03 -3.07605E+02
 -1.67039E+03 -3.64286E+03  2.37146E+03 -3.71265E+03  3.56667E+03 -1.50725E+03  3.27404E+03  8.60633E+02
  2.02348E+03  1.56206E+03  1.07439E+03  8.99081E+02 -6.70605E+02  1.58225E+03  1.26940E+03 -4.48318E+02
  1.16888E+03 -8.43974E+02  3.92995E+03  1.52983E+03  1.69650E+03  4.61255E+03 -7.99504E+02  6.12049E+03
 -3.94361E+03  3.54011E+03 -5.26559E+03  1.18356E+03 -4.93488E+03 -1.74010E+03 -1.66411E+03 -2.87220E+03
  6.83422E+02 -3.21982E+03  2.31558E+03 -1.51241E+03  1.68516E+03  1.82680E+03 -5.66761E+02  2.97050E+03
 -3.37782E+03  1.97471E+03 -3.67771E+03 -2.15051E+03 -2.36727E+03 -4.97876E+03  8.65369E+02 -4.71386E+03
  2.45883E+03 -2.05362E+03  3.14958E+03 -5.65438E+02  2.73399E+03  8.28818E+02  5.83027E+01  2.59049E+03
 -1.19907E+03  9.98397E+02 -1.86885E+03 -1.26926E+03  1.08437E+03 -3.08354E+03  4.04755E+03 -2.58793E+03
  4.91058E+03  3.10089E+02  5.38586E+03  3.38799E+03  1.96703E+03  5.46495E+03 -1.62142E+03  4.74347E+03
 -3.86518E+03  1.64120E+03 -4.34106E+03 -5.49346E+02 -2.37122E+03 -3.30108E+03  7.27849E+02 -2.75367E+03
  3.08845E+03 -1.53829E+03  2.84575E+03  1.49004E+03  4.05109E+02  3.01780E+03  1.57935E+01  2.57660E+03
 -1.24779E+03  1.81720E+03 -1.27269E+03  8.07378E+02 -5.83045E+02  4.05524E+02 -1.03318E+03  1.24642E+03
 -1.27136E+03  2.21998E+03 -3.65783E+03  1.80679E+03 -5.22418E+03  1.58979E+02 -5.95545E+03 -3.33709E+03
 -2.70416E+03 -6.85830E+03  1.42208E+03 -7.68967E+03  4.50763E+03 -6.52043E+03  7.47275E+03 -2.09558E+03
  6.44974E+03  1.27061E+03  3.75425E+03  4.54509E+03 -1.95802E+02  4.66188E+03 -1.99110E+03  3.94364E+03
 -2.90888E+03  1.55524E+03 -1.68052E+03 -7.09588E+02 -1.49392E+02 -1.56296E+02 -8.37289E+02  3.33489E+02
 -1.48615E+03  1.63762E+02 -1.48674E+03 -2.40450E+02  2.84814E+01 -9.97803E+02 -4.07869E+02 -1.78714E+03
  2.47024E+03 -2.04973E+03  2.63504E+03  2.56176E+02  3.59303E+03  2.63357E+03  5.56327E+02  4.49644E+03
 -2.15082E+03  5.96428E+03 -5.42464E+03  3.43195E+03 -5.98039E+03 -5.16295E+02 -4.47307E+03 -4.09849E+03
 -2.37339E+03 -4.58575E+03  1.21995E+03 -4.70727E+03  3.08334E+03 -2.58927E+03  3.25952E+03  1.72477E+02
  1.79251E+03  1.36084E+03 -3.09154E+02  1.02022E+03 -8.26812E+02 -8.49779E+01  1.94744E+01 -9.06571E+02
  1.63113E+03 -6.52778E+02  1.47532E+03  8.83559E+02  1.02204E+03  1.63773E+03  2.66569E+02  2.09946E+03
 -2.13247E+03  2.06300E+03 -2.80700E+03  5.13321E+02 -3.18987E+03 -2.03245E+03 -3.23936E+02 -3.95806E+03
  2.16783E+03 -3.39799E+03  3.20233E+03 -6.99735E+02  3.38785E+03  4.09666E+02  1.83447E+03  2.55190E+03
  2.63709E+02  2.86225E+03 -1.15408E+03  2.34344E+03 -1.86094E+03  1.20238E+03 -1.75875E+03  5.42169E+02
 -8.30353E+02 -6.99255E+01 -1.12381E+03  3.32693E+02 -1.53238E+03  5.00328E+02 -2.50256E+03 -4.24130E+02
 -2.58382E+03 -1.30625E+03 -6.90444E+02 -2.65619E+03  1.78371E+03 -3.43680E+03  2.45120E+03 -1.57416E+03
  3.17717E+03  3.93730E+02  1.11170E+03  1.86198E+03 -2.34104E+02  3.09430E+03 -2.06285E+03  1.89932E+03
