 $NMID ID='MM_0lb_SNR800_8hz_g45_37.RAW', FMTDAT='(8E13.5)'
 TRAMP=1., VOLUME=1. $END
  3.09727E+05  4.23348E+02  3.37558E+05  2.50649E+05  8.52176E+04  3.38590E+05 -1.32714E+05  2.52118E+05
 -1.90993E+05  8.39765E+04 -1.12611E+05 -3.27035E+04  3.77427E+02 -5.06762E+04  5.31652E+04 -6.17376E+02
  3.55755E+04  5.31154E+04 -1.62356E+04  7.62372E+04 -6.14932E+04  6.45004E+04 -8.55287E+04  3.28466E+04
 -8.22099E+04 -1.15268E+04 -5.82146E+04 -5.23626E+04 -1.51624E+04 -7.06874E+04  2.80261E+04 -4.71044E+04
  4.15717E+04  3.81501E+03  1.65033E+04  4.82318E+04 -3.50776E+04  4.84346E+04 -6.84709E+04  3.08272E+02
 -5.48455E+04 -5.79714E+04 -7.15079E+03 -7.92194E+04  3.48596E+04 -5.71673E+04  5.01352E+04 -1.83320E+04
  4.59042E+04  1.13867E+04  3.29517E+04  2.65783E+04  1.61831E+04  3.06328E+04 -6.08560E+03  2.73839E+04
 -2.28829E+04  1.20886E+04 -1.77854E+04 -5.85656E+03  7.24023E+03 -7.44135E+03  2.37101E+04  1.34811E+04
  7.09763E+03  3.76319E+04 -3.43860E+04  3.76051E+04 -6.56344E+04  2.11488E+03 -5.89850E+04 -4.46800E+04
 -1.22261E+04 -6.60208E+04  4.15687E+04 -4.76962E+04  6.17155E+04 -2.89241E+03  3.67505E+04  3.51047E+04
 -5.56161E+03  3.95607E+04 -3.16706E+04  1.89830E+04 -3.39768E+04 -3.39623E+03 -1.96273E+04 -1.20482E+04
 -9.62487E+03 -1.53720E+04 -5.16558E+02 -1.97992E+04  8.66375E+03 -2.39204E+04  1.59717E+04 -1.29124E+04
  1.02268E+04  6.18620E+03 -1.06556E+04  1.28401E+04 -2.38644E+04 -6.77068E+03 -8.62222E+03 -3.76246E+04
  2.55100E+04 -4.72487E+04  5.28493E+04 -2.09315E+04  4.90942E+04  2.07667E+04  1.79934E+04  4.76952E+04
 -1.69998E+04  3.63965E+04 -2.79520E+04  3.24732E+03 -1.18734E+04 -2.92954E+04  2.18623E+04 -3.67939E+04
  4.51187E+04 -1.11047E+04  4.09769E+04  2.49188E+04  2.13142E+04  5.16486E+04 -8.47595E+03  5.66802E+04
 -3.60615E+04  3.85910E+04 -4.79700E+04  1.13086E+04 -4.80536E+04 -1.87996E+04 -2.62653E+04 -4.26621E+04
  8.03037E+03 -4.27195E+04  3.48086E+04 -1.71140E+04  3.21941E+04  1.10481E+04  5.38877E+03  2.13141E+04
 -1.39900E+04  9.69816E+03 -1.13831E+04 -7.55254E+03  5.73875E+03 -1.17899E+04  1.88150E+04  5.55897E+03
  1.48795E+04  2.31504E+04 -4.80020E+03  2.70907E+04 -2.34804E+04  1.47762E+04 -3.20185E+04 -2.35637E+03
 -2.61300E+04 -1.82195E+04 -1.20775E+04 -2.50720E+04  4.47014E+03 -2.65657E+04  1.99205E+04 -2.33217E+04
  3.32046E+04 -1.45353E+04  3.82050E+04  4.72820E+03  2.76385E+04  2.50245E+04  4.53894E+03  4.18774E+04
 -1.99218E+04  3.42320E+04 -3.11342E+04  1.17448E+04 -2.27804E+04 -1.01168E+04 -4.84736E+03 -1.30857E+04
  6.12207E+02 -1.30614E+03 -8.00501E+03  8.51428E+03 -2.11416E+04  4.76032E+03 -2.04026E+04 -9.91602E+03
 -1.18719E+04 -2.42318E+04  6.26802E+03 -2.88675E+04  1.88674E+04 -1.98923E+04  2.33894E+04 -1.71327E+03
  1.47237E+04  1.63822E+04 -1.76187E+03  2.35584E+04 -1.72945E+04  1.35934E+04 -2.41570E+04 -4.86827E+03
 -1.76085E+04 -2.13094E+04 -2.80494E+03 -2.86728E+04  1.29731E+04 -2.37387E+04  2.34279E+04 -1.25302E+04
  2.24094E+04 -3.77376E+02  1.64128E+04  5.35580E+03  9.68502E+03  1.40837E+03  1.23534E+04 -2.29058E+03
  2.25922E+04  2.59119E+03  2.57877E+04  1.87475E+04  1.84524E+04  3.86595E+04 -2.52135E+03  4.55964E+04
 -2.60589E+04  3.85172E+04 -4.30272E+04  1.98257E+04 -4.63039E+04 -3.27153E+03 -3.70739E+04 -2.67048E+04
 -1.48953E+04 -3.82815E+04  1.40798E+04 -3.32754E+04  2.92712E+04 -1.54762E+04  2.45053E+04  7.92031E+03
  8.14555E+03  1.93815E+04 -1.20797E+04  1.57352E+04 -2.04122E+04  2.82695E+03 -1.59905E+04 -1.28819E+04
 -3.15551E+02 -1.99129E+04  1.08992E+04 -1.45014E+04  1.35426E+04 -1.40869E+03  3.66489E+03  8.51105E+03
 -9.27634E+03  4.50124E+03 -9.79145E+03 -7.32983E+03 -2.22375E+03 -1.87155E+04  1.24990E+04 -2.07111E+04
  2.41542E+04 -1.16329E+04  2.72321E+04  3.34663E+03  2.40881E+04  1.93834E+04  1.12061E+04  3.07595E+04
 -6.06026E+03  3.25147E+04 -2.08202E+04  1.99980E+04 -2.35583E+04  3.83982E+03 -1.62620E+04 -6.03454E+03
 -6.59530E+03 -7.55308E+03 -5.43535E+02  2.58597E+02 -3.02365E+03  3.29877E+03 -7.93540E+03  6.01308E+03
 -1.49152E+04 -1.13003E+03 -1.56309E+04 -1.25094E+04 -6.27283E+03 -1.97906E+04  6.62941E+03 -1.62100E+04
  1.30060E+04 -6.91659E+03  9.55742E+03  4.56302E+03 -2.91629E+02  6.71495E+03 -8.71657E+03  5.29148E+01
 -7.69844E+03 -1.04622E+04 -9.23682E+02 -1.61777E+04  9.08153E+03 -1.73035E+04  2.06963E+04 -9.32184E+03
  2.45794E+04  2.47866E+03  1.78462E+04  1.51584E+04  3.66664E+03  2.01808E+04 -9.84597E+03  1.60604E+04
 -1.31656E+04  4.31607E+03 -6.64577E+03 -3.62527E+03  2.45279E+03 -5.03219E+03  8.37301E+03 -1.01992E+03
  7.30915E+03  7.85537E+03  1.41813E+03  1.34246E+04 -9.43643E+03  1.24384E+04 -1.63338E+04  2.73974E+03
 -1.13346E+04 -8.40074E+03  1.22140E+02 -1.36296E+04  9.13600E+03 -7.11174E+03  1.00061E+04  3.78368E+03
  2.32997E+03  1.10857E+04 -8.41758E+03  1.22480E+04 -1.41351E+04  5.41268E+03 -1.47487E+04 -5.20767E+03
 -8.94649E+03 -1.71544E+04  4.31950E+03 -1.89002E+04  1.62730E+04 -1.12574E+04  1.82339E+04  3.69859E+03
  1.01939E+04  1.38742E+04 -1.62008E+03  1.67402E+04 -1.22866E+04  9.68643E+03 -1.34599E+04 -8.01373E+02
 -1.13913E+04 -1.11982E+04 -1.93737E+03 -1.25332E+04  6.98588E+03 -9.99971E+03  8.24113E+03 -3.65247E+03
  5.34972E+03  2.20992E+03 -1.21859E+03  1.85695E+03 -1.25338E+03 -3.57290E+03  2.80827E+03 -8.24285E+03
  1.21680E+04 -4.92815E+03  1.73412E+04  2.19625E+03  1.71592E+04  1.19410E+04  1.07500E+04  2.26539E+04
 -5.44059E+03  2.53641E+04 -2.11512E+04  1.90269E+04 -2.72941E+04  3.69437E+03 -2.24923E+04 -9.57753E+03
 -1.13154E+04 -1.84227E+04 -4.57053E+02 -1.54916E+04  5.37697E+03 -9.16510E+03  5.42470E+03 -5.75534E+03
  3.70927E+03 -3.00769E+03  4.19718E+03 -4.25138E+03  6.54100E+03 -3.95452E+03  8.62810E+03 -1.44085E+03
  1.15670E+04  2.63427E+03  6.12629E+03  9.69236E+03 -1.98499E+03  1.18198E+04 -1.22222E+04  8.98276E+03
 -1.56147E+04 -9.66364E+02 -1.06037E+04 -1.10232E+04 -1.35864E+03 -1.70177E+04  9.32199E+03 -1.67374E+04
  1.81845E+04 -9.27751E+03  2.08548E+04  3.05530E+03  1.45315E+04  1.47652E+04  2.30825E+03  1.96376E+04
 -7.94779E+03  1.53911E+04 -1.13468E+04  5.86837E+03 -7.38399E+03 -1.78301E+03 -3.30017E+03 -2.45078E+03
 -1.57303E+03  3.68244E+01 -2.71164E+03  3.26855E+03 -6.69376E+03  2.82638E+03 -1.10545E+04 -1.31652E+03
 -7.75455E+03 -1.11057E+04 -4.91225E+02 -1.62414E+04  1.03077E+04 -1.50140E+04  1.59202E+04 -4.82870E+03
  1.59645E+04  8.17796E+03  7.31662E+03  1.41146E+04 -2.88325E+03  1.62768E+04 -1.16634E+04  1.02789E+04
 -1.51990E+04  8.93843E+02 -1.17036E+04 -1.01430E+04 -1.40443E+03 -1.33130E+04  6.94490E+03 -1.01624E+04
  1.07333E+04 -3.08162E+03  7.16997E+03  2.88657E+03  3.11611E+03  5.13529E+03  1.11604E+03  2.57938E+03
  3.04988E+03  1.55644E+03  3.94000E+03  2.72303E+03  5.09083E+03  5.70569E+03  4.58582E+03  8.76911E+03
 -3.13451E+03  1.32436E+04 -1.12929E+04  1.25907E+04 -1.70219E+04  3.32873E+03 -1.76864E+04 -7.01510E+03
 -8.55560E+03 -1.65642E+04  2.47084E+03 -1.83932E+04  1.03751E+04 -1.14605E+04  1.38246E+04 -3.09447E+03
  1.02493E+04  5.91628E+03  2.47447E+03  9.64919E+03 -4.90150E+03  6.12649E+03 -6.94359E+03 -1.01454E+03
 -2.88006E+03 -7.12854E+03  3.73416E+03 -7.44768E+03  7.46090E+03 -3.81419E+03  7.12713E+03  1.72544E+03
  4.19282E+03  3.34516E+03  1.51470E+03  3.12136E+03 -8.98530E+02  2.28749E+03  2.04110E+03 -4.02563E+02
  3.06942E+03 -8.86840E+02  6.91932E+03  2.88695E+03  4.22022E+03  9.12424E+03 -1.14399E+03  1.21150E+04
 -8.09404E+03  7.88988E+03 -1.07511E+04  1.99857E+03 -1.01456E+04 -3.65636E+03 -3.43881E+03 -6.63708E+03
  9.64536E+02 -6.79729E+03  4.46363E+03 -3.16222E+03  3.86702E+03  3.10639E+03 -1.76243E+03  5.56570E+03
 -6.81264E+03  3.64989E+03 -8.29664E+03 -3.55042E+03 -4.32551E+03 -8.82682E+03  1.44887E+03 -9.59526E+03
  5.94987E+03 -5.78717E+03  6.93107E+03 -1.16667E+03  5.82799E+03  2.68903E+03  6.70054E+02  4.95170E+03
 -3.33259E+03  1.76541E+03 -4.17712E+03 -3.20443E+03  1.78589E+03 -7.68982E+03  8.12557E+03 -6.02705E+03
  1.13046E+04  9.12468E+02  1.04256E+04  7.47578E+03  3.27520E+03  1.14402E+04 -3.93414E+03  1.05704E+04
 -8.78894E+03  4.59565E+03 -9.49251E+03 -1.21433E+03 -5.14446E+03 -7.56786E+03  1.36055E+03 -7.08604E+03
  6.90959E+03 -3.99844E+03  6.17615E+03  3.18579E+03  2.01662E+03  6.01403E+03 -1.11145E+03  5.23037E+03
 -3.11421E+03  3.66903E+03 -2.86943E+03  9.03295E+02 -1.26716E+03  1.13195E+03 -1.69605E+03  2.36513E+03
 -2.85185E+03  4.40207E+03 -7.47720E+03  4.06728E+03 -1.10805E+04 -4.41149E+01 -1.31916E+04 -7.76468E+03
 -6.85432E+03 -1.52386E+04  2.64667E+03 -1.79304E+04  1.10876E+04 -1.38659E+04  1.67715E+04 -4.87513E+03
  1.57937E+04  2.93162E+03  9.22298E+03  1.02952E+04  4.93843E+02  1.23907E+04 -4.52837E+03  8.75021E+03
 -6.44623E+03  2.84126E+03 -4.12721E+03 -1.21354E+03 -1.52957E+03 -9.84428E+02 -5.46608E+02 -1.18107E+02
 -1.69202E+03  5.35520E+02 -2.99294E+03 -6.53065E+02 -1.53121E+03 -2.46037E+03  3.09185E+02 -4.46962E+03
  5.11007E+03 -4.19804E+03  7.10752E+03 -1.15543E+02  8.36464E+03  6.54459E+03  2.14132E+03  1.20666E+04
 -5.80838E+03  1.35307E+04 -1.27896E+04  8.18158E+03 -1.49029E+04 -9.93027E+02 -1.12364E+04 -8.85762E+03
 -4.33492E+03 -1.27990E+04  3.12796E+03 -1.12610E+04  7.85478E+03 -6.10256E+03  7.90371E+03  6.79236E+01
  4.36106E+03  3.88943E+03 -2.71255E+02  3.51161E+03 -2.24332E+03  1.34035E+02  5.77456E+02 -3.03986E+03
  4.11447E+03 -1.94311E+03  4.66609E+03  1.50312E+03  3.35142E+03  4.70412E+03  3.82499E+02  6.78946E+03
 -5.35270E+03  5.68554E+03 -8.54000E+03  5.79642E+02 -7.42055E+03 -6.14273E+03 -1.19751E+03 -1.05588E+04
  6.01456E+03 -9.13753E+03  9.56430E+03 -2.83946E+03  9.88995E+03  2.40577E+03  5.50923E+03  7.47358E+03
  1.07945E+03  8.43436E+03 -3.43806E+03  6.60950E+03 -4.95859E+03  3.83277E+03 -4.30448E+03  8.80728E+02
 -1.95140E+03 -7.00007E+02 -2.59218E+03  1.09776E+03 -4.00760E+03  1.32947E+03 -6.43127E+03 -1.19636E+03
 -6.43830E+03 -4.22476E+03 -1.82885E+03 -8.60397E+03  3.75035E+03 -8.46319E+03  7.36000E+03 -3.70619E+03
  8.21263E+03  1.51363E+03  4.51318E+03  5.59492E+03 -1.05039E+03  8.29829E+03 -6.71898E+03  5.21031E+03
