 $NMID ID='MM_0lb_SNR800_20hz_g50_58.RAW', FMTDAT='(8E13.5)'
 TRAMP=1., VOLUME=1. $END
  3.09708E+05  4.69322E+02  3.37198E+05  2.50679E+05  8.42411E+04  3.37601E+05 -1.32328E+05  2.50029E+05
 -1.89718E+05  8.22605E+04 -1.11075E+05 -3.25775E+04  1.47777E+03 -5.04551E+04  5.38027E+04  1.53977E+02
  3.50129E+04  5.29232E+04 -1.69552E+04  7.44724E+04 -6.02528E+04  6.25326E+04 -8.28741E+04  3.15032E+04
 -7.94761E+04 -1.14931E+04 -5.62077E+04 -5.00571E+04 -1.47657E+04 -6.78661E+04  2.68053E+04 -4.46757E+04
  3.88826E+04  3.99164E+03  1.53981E+04  4.72484E+04 -3.38999E+04  4.60669E+04 -6.52314E+04 -2.86590E+02
 -5.19405E+04 -5.58821E+04 -6.27414E+03 -7.49128E+04  3.30536E+04 -5.30018E+04  4.60613E+04 -1.60227E+04
  4.13110E+04  1.11255E+04  3.07666E+04  2.42376E+04  1.59516E+04  2.81525E+04 -4.46191E+03  2.65946E+04
 -2.15978E+04  1.29030E+04 -1.91510E+04 -4.37319E+03  4.12128E+03 -7.65749E+03  2.09911E+04  1.05107E+04
  7.71912E+03  3.28604E+04 -3.01138E+04  3.38743E+04 -6.06637E+04  2.06700E+03 -5.51685E+04 -4.06643E+04
 -1.21040E+04 -6.08122E+04  3.78838E+04 -4.29010E+04  5.49834E+04 -1.76234E+03  3.13449E+04  3.03150E+04
 -6.55649E+03  3.25355E+04 -2.83161E+04  1.30224E+04 -2.73120E+04 -5.56855E+03 -1.38820E+04 -9.79770E+03
 -7.26126E+03 -1.13644E+04 -1.05877E+03 -1.62754E+04  6.64888E+03 -2.24466E+04  1.49543E+04 -1.38731E+04
  1.22046E+04  4.09246E+03 -6.06109E+03  1.32197E+04 -1.90155E+04 -2.00308E+03 -8.30486E+03 -2.97952E+04
  2.03999E+04 -3.99322E+04  4.43281E+04 -1.83971E+04  4.15492E+04  1.81120E+04  1.38750E+04  4.11161E+04
 -1.51300E+04  3.08366E+04 -2.31181E+04  7.64082E+02 -7.91762E+03 -2.60508E+04  2.05402E+04 -3.08541E+04
  3.70528E+04 -7.12866E+03  3.06205E+04  2.24861E+04  1.48441E+04  4.18814E+04 -7.88336E+03  4.42763E+04
 -2.77033E+04  2.92652E+04 -3.65412E+04  7.99141E+03 -3.74609E+04 -1.46570E+04 -2.10361E+04 -3.38045E+04
  6.57596E+03 -3.34646E+04  2.87079E+04 -1.21989E+04  2.65819E+04  1.07708E+04  2.70370E+03  1.75713E+04
 -1.32941E+04  7.15965E+03 -9.26576E+03 -7.84327E+03  5.93169E+03 -9.64117E+03  1.71718E+04  6.64920E+03
  1.21089E+04  2.15561E+04 -6.76828E+03  2.31340E+04 -2.12092E+04  8.52865E+03 -2.46218E+04 -6.77286E+03
 -1.58106E+04 -1.62461E+04 -5.25145E+03 -1.58770E+04  3.48922E+03 -1.37815E+04  1.17130E+04 -1.39094E+04
  2.03587E+04 -1.14417E+04  2.72906E+04  9.67356E+02  2.07421E+04  1.59578E+04  4.11295E+03  3.17687E+04
 -1.56027E+04  2.70027E+04 -2.52437E+04  9.10872E+03 -1.92536E+04 -1.06869E+04 -4.02959E+03 -1.41135E+04
  2.75956E+03 -4.44661E+03 -2.31614E+03  5.23630E+03 -1.24232E+04  5.19947E+03 -1.28342E+04 -4.73936E+03
 -8.03544E+03 -1.47896E+04  4.26921E+03 -1.86558E+04  1.21245E+04 -1.34489E+04  1.40096E+04 -1.61458E+03
  8.36646E+03  1.04371E+04 -6.74973E+02  1.50328E+04 -9.59399E+03  8.60994E+03 -1.47293E+04 -3.01433E+03
 -1.11479E+04 -1.34003E+04 -1.36764E+03 -1.80328E+04  8.31306E+03 -1.47000E+04  1.54261E+04 -7.03443E+03
  1.40384E+04  9.13488E+02  1.02876E+04  3.74828E+03  4.83863E+03  5.44055E+02  7.13014E+03 -1.30945E+03
  1.32401E+04  2.53853E+03  1.38490E+04  1.20883E+04  8.33394E+03  2.37093E+04 -3.05178E+03  2.50615E+04
 -1.46207E+04  1.85028E+04 -2.30794E+04  8.71721E+03 -2.31877E+04 -1.72749E+03 -2.01267E+04 -1.33436E+04
 -9.41144E+03 -1.87346E+04  6.03604E+03 -1.78192E+04  1.54729E+04 -1.02423E+04  1.50040E+04  3.41315E+03
  6.44437E+03  1.06194E+04 -6.49379E+03  9.83529E+03 -1.30182E+04  2.41060E+03 -1.01793E+04 -7.50434E+03
  7.63162E+01 -1.17708E+04  5.89813E+03 -9.22007E+03  7.54144E+03 -1.41677E+03  1.26957E+03  4.56969E+03
 -4.94835E+03  1.05969E+03 -3.34415E+03 -4.33832E+03  8.64687E+02 -9.52774E+03  7.62362E+03 -8.96283E+03
  1.12716E+04 -4.12141E+03  1.04360E+04  2.89141E+03  9.11905E+03  8.77463E+03  4.38654E+03  1.26309E+04
 -1.16414E+03  1.49560E+04 -8.64316E+03  9.12789E+03 -1.02931E+04  3.10899E+03 -7.85123E+03 -1.38557E+03
 -4.32442E+03 -2.76155E+03 -8.35061E+02  1.38102E+03 -1.65958E+03  1.61458E+03 -3.55240E+03  3.29564E+03
 -7.49141E+03 -4.80238E+02 -8.19073E+03 -6.78823E+03 -3.23747E+03 -1.11127E+04  3.28372E+03 -7.80096E+03
  6.66069E+03 -3.60967E+03  4.71872E+03  1.92184E+03  5.97138E+02  2.95857E+03 -3.18032E+03 -3.28322E+01
 -2.85524E+03 -4.66963E+03 -9.31214E+02 -6.28884E+03  3.53182E+03 -7.35728E+03  9.07065E+03 -3.63051E+03
  1.05039E+04  6.60100E+02  8.10284E+03  5.37866E+03  1.80168E+03  7.54869E+03 -4.81506E+03  7.39176E+03
 -6.26536E+03  2.77490E+03 -3.30525E+03 -8.97817E+02  1.28394E+03 -1.76741E+03  4.26171E+03 -9.57777E+02
  3.71493E+03  2.63990E+03  1.08931E+03  5.53962E+03 -3.91532E+03  5.97851E+03 -7.24358E+03  1.72430E+03
 -4.30450E+03 -3.22299E+03  4.35703E+02 -5.88550E+03  3.27812E+03 -2.97403E+03  2.88232E+03  9.34159E+02
  3.09273E+02  2.70731E+03 -3.50962E+03  4.18964E+03 -4.16417E+03  1.99518E+03 -3.82669E+03 -8.58349E+02
 -2.58057E+03 -5.01899E+03  1.16752E+03 -6.09068E+03  5.33939E+03 -4.10418E+03  5.26513E+03  8.30351E+02
  4.20788E+03  4.47412E+03  3.77174E+02  6.50781E+03 -4.31270E+03  3.61826E+03 -4.40181E+03 -1.62744E+02
 -5.48148E+03 -4.74507E+03 -1.36850E+03 -4.42383E+03  2.16809E+03 -4.22049E+03  2.51309E+03 -2.82031E+03
  3.00083E+03  2.65329E+02  3.31540E+02  1.09272E+03  8.21754E+02 -6.32278E+01 -1.38835E+02 -1.20184E+03
  3.15105E+03 -5.37508E+02  4.45431E+03  5.91809E+02  4.78653E+03  2.62201E+03  4.86067E+03  5.77466E+03
 -8.65875E+02  7.26899E+03 -6.54820E+03  5.80613E+03 -8.58834E+03  1.05736E+03 -6.65982E+03 -1.95648E+03
 -3.73536E+03 -5.46216E+03 -4.50822E+02 -4.43485E+03  1.85261E+03 -1.46054E+03  1.44223E+03 -1.75123E+03
  8.89917E+02 -1.14397E+03  1.96395E+03 -2.19653E+03  3.23313E+03 -1.42032E+03  3.10771E+03  4.69501E+02
  3.83942E+03  1.12854E+03  7.20596E+02  2.90847E+03 -1.58776E+03  2.08729E+03 -3.74545E+03  1.85899E+03
 -4.10362E+03 -1.18617E+03 -1.37916E+03 -2.80871E+03  4.89342E+02 -3.88594E+03  2.73214E+03 -4.48481E+03
  4.27431E+03 -2.75672E+03  5.76890E+03 -1.17995E+02  4.20497E+03  3.40673E+03  1.08250E+03  5.19679E+03
 -1.89005E+03  5.15941E+03 -2.69896E+03  1.39952E+03 -1.41670E+03 -1.03727E+03 -2.55298E+02 -5.81424E+02
 -3.75043E+02  5.17467E+02 -1.16850E+03  1.60695E+03 -2.66098E+03  7.71442E+02 -3.84651E+03 -2.96604E+02
 -9.94816E+02 -3.71909E+03  8.76887E+02 -3.75305E+03  2.25082E+03 -3.59530E+03  2.72374E+03 -7.19009E+02
  3.39141E+03  2.07210E+03  1.19322E+03  2.58771E+03 -5.29562E+02  3.46520E+03 -1.71133E+03  2.06663E+03
 -2.88482E+03  7.18743E+02 -2.82870E+03 -2.05588E+03 -2.97130E+01 -2.75714E+03  1.16601E+03 -1.76791E+03
  2.19025E+03 -1.16542E+03  1.56093E+03  2.64526E+02  3.50399E+02  1.22386E+03  7.75618E+02  4.21473E+02
  1.44238E+03  5.63963E+02  1.00260E+03  8.37077E+02  9.37627E+02  2.12352E+03  1.37563E+03  1.21216E+03
 -1.19527E+03  2.13453E+03 -1.66193E+03  3.62399E+03 -1.96121E+03  1.20919E+03 -3.43893E+03 -1.31807E+02
 -1.10258E+03 -2.85583E+03  4.18094E+02 -3.82939E+03  1.40674E+03 -1.80499E+03  2.19909E+03 -4.79966E+02
  1.86909E+03  1.46689E+03  3.33547E+02  1.80456E+03 -6.63232E+02  5.39634E+02 -5.15130E+02  1.32742E+02
 -4.84124E+02 -1.24800E+03  1.10092E+03 -9.86180E+02  1.05683E+03 -8.20094E+02  9.64030E+02  3.16753E+02
  6.58065E+02  1.77257E+02  7.24897E+02 -3.49390E+02 -2.82446E+02  4.87899E+02  1.49610E+03 -5.84563E+01
 -2.78877E+02 -2.24336E+02  1.47080E+03  5.64645E+02 -2.50926E+02  1.84568E+03 -2.67733E+02  2.20775E+03
 -1.17784E+03  3.38236E+02 -1.51457E+03  1.63792E+02 -1.97955E+03 -6.34114E+02  1.21306E+02 -4.23013E+02
 -1.33421E+02 -9.10379E+02  9.76270E+02 -4.30745E+02  4.28362E+02  9.41963E+02 -5.59243E+02  1.02932E+03
 -1.27942E+03  8.42847E+02 -1.10570E+03 -1.25190E+03 -4.15375E+02 -1.66113E+03  1.63554E+02 -9.60377E+02
  6.13066E+01 -1.41091E+02  5.21173E+02 -5.51764E+01  1.03977E+03 -4.98143E+02  1.49013E+02  1.07574E+03
 -2.82057E+02  4.76592E+01 -6.19482E+02  1.01028E+02  5.49404E+02 -3.90114E+02  1.25325E+03 -6.63484E+02
  7.63389E+02 -1.00809E+02  2.20109E+03  2.53936E+02  8.99304E+02  9.30178E+02  3.90950E+01  1.20453E+03
 -9.97982E+02  1.36927E+02 -1.01488E+03 -2.29139E+02 -7.76430E+02 -9.19831E+02  1.46450E+02 -2.20879E+02
  1.32312E+03 -3.14376E+02  5.71685E+02  5.40877E+02  1.28939E+02  9.73673E+02  2.10119E+02  6.88332E+02
 -1.71659E+02  8.05593E+02 -2.11195E+02  1.43385E+02  4.92197E+01  2.04726E+02 -1.00280E+03  5.15961E+02
 -5.23052E+02  9.54190E+02 -1.52642E+03  5.10756E+02 -1.15759E+03 -2.73995E+01 -1.87271E+03 -6.47344E+02
 -8.49960E+02 -1.65782E+03  2.89932E+02 -2.03610E+03  5.71745E+02 -1.57671E+03  2.24301E+03 -1.06181E+03
  1.73231E+03 -3.80292E+02  8.37749E+02  1.24024E+03 -4.56275E+02  7.14362E+02 -9.57065E+02  1.04319E+03
 -8.38367E+02  6.04090E+02 -3.10178E+02 -2.65103E+02 -3.56243E+02  4.35448E+02 -7.24169E+02  2.56512E+02
 -1.15186E+03 -1.15444E+02 -1.00673E+03  1.01620E+02  3.33180E+02 -5.20263E+02 -3.57771E+02 -9.54476E+02
  1.35245E+03 -5.36758E+02  9.53472E+01  9.26307E+01  6.50482E+02  6.34867E+02 -6.33911E+02  7.88206E+02
 -6.55352E+02  1.52682E+03 -8.32387E+02  1.02156E+03 -1.24533E+03 -9.62085E+01 -1.03812E+03 -9.96976E+02
 -6.86484E+02 -6.94735E+02  2.05853E+02 -6.40429E+02  2.91257E+02 -3.85363E+02  4.59393E+02  6.27603E+01
  5.20187E+02  8.33129E+01  2.78127E+02  3.86565E+02 -3.29146E+02 -7.44333E+01  1.41950E+01 -4.02506E+01
  2.97402E+02  2.39279E+02  1.93830E+02  3.46051E+02  9.42204E+01  2.67349E+02  6.10352E+02  5.26113E+00
 -5.97016E+02  5.75784E+02 -3.76411E+02 -1.68996E+01 -5.05086E+02 -2.45718E+02  2.78103E+02 -8.50515E+02
  2.76367E+02 -3.19922E+02  1.49741E+02  3.05766E+02  6.93381E+02 -4.52889E+02  2.23231E+02  4.05579E+02
  4.99125E+02  4.06340E+02 -1.34384E+02  1.86475E+02 -2.58632E+02  4.37595E+02 -5.71055E+01  1.10944E+02
  9.79082E+01  1.77488E+01 -6.26786E+02  2.75327E+01 -5.06678E+02  1.23099E+02 -5.67653E+02 -3.09076E+02
 -1.07291E+03  3.82136E+02 -3.19232E+02 -7.14345E+02  8.03320E+02 -1.03723E+03  6.64375E+02 -3.59770E+01
  4.20858E+02  3.67243E+02 -4.09542E+02  6.70704E+01 -7.01563E+01  4.66271E+02 -1.09814E+02  5.11918E+02
