 $NMID ID='MM_0lb_SNR800_15hz_g40_4.RAW', FMTDAT='(8E13.5)'
 TRAMP=1., VOLUME=1. $END
  3.09909E+05  7.08383E+01  3.37251E+05  2.50614E+05  8.45995E+04  3.37591E+05 -1.32449E+05  2.50543E+05
 -1.89983E+05  8.28009E+04 -1.11501E+05 -3.28483E+04  1.14999E+03 -5.01715E+04  5.36717E+04  1.58565E+02
  3.53779E+04  5.28554E+04 -1.69076E+04  7.51721E+04 -6.01738E+04  6.32311E+04 -8.35132E+04  3.19160E+04
 -8.02681E+04 -1.12881E+04 -5.67757E+04 -5.06898E+04 -1.49227E+04 -6.90802E+04  2.74016E+04 -4.51644E+04
  3.95609E+04  3.83352E+03  1.58753E+04  4.75456E+04 -3.40479E+04  4.66858E+04 -6.64866E+04 -2.13270E+02
 -5.26883E+04 -5.63170E+04 -6.26136E+03 -7.61302E+04  3.34069E+04 -5.40091E+04  4.72695E+04 -1.69563E+04
  4.24290E+04  1.13337E+04  3.11310E+04  2.51680E+04  1.60573E+04  2.85826E+04 -4.91437E+03  2.69061E+04
 -2.20930E+04  1.27963E+04 -1.88168E+04 -4.74523E+03  5.10397E+03 -7.55164E+03  2.19490E+04  1.15608E+04
  7.13404E+03  3.40312E+04 -3.14013E+04  3.47318E+04 -6.21339E+04  2.25129E+03 -5.64063E+04 -4.20428E+04
 -1.24212E+04 -6.23170E+04  3.90726E+04 -4.46086E+04  5.69517E+04 -2.13351E+03  3.31123E+04  3.12923E+04
 -6.26101E+03  3.45176E+04 -2.92462E+04  1.50061E+04 -2.90437E+04 -4.67711E+03 -1.58186E+04 -1.05549E+04
 -7.75239E+03 -1.23628E+04 -1.03391E+03 -1.73723E+04  6.85739E+03 -2.26890E+04  1.51460E+04 -1.35028E+04
  1.15862E+04  4.75901E+03 -7.31773E+03  1.30470E+04 -2.03891E+04 -3.53753E+03 -7.85719E+03 -3.22059E+04
  2.17500E+04 -4.21382E+04  4.66865E+04 -1.91912E+04  4.35660E+04  1.87675E+04  1.51461E+04  4.27387E+04
 -1.57280E+04  3.22987E+04 -2.43440E+04  1.62334E+03 -9.01548E+03 -2.70906E+04  2.05015E+04 -3.27187E+04
  3.96494E+04 -8.23557E+03  3.36912E+04  2.32869E+04  1.70637E+04  4.45272E+04 -8.23915E+03  4.78403E+04
 -3.01818E+04  3.19341E+04 -3.95458E+04  9.16035E+03 -4.08427E+04 -1.58688E+04 -2.24078E+04 -3.61963E+04
  7.02954E+03 -3.63327E+04  3.05005E+04 -1.37462E+04  2.78562E+04  1.08175E+04  3.59050E+03  1.86136E+04
 -1.34488E+04  7.86663E+03 -9.94098E+03 -7.40682E+03  5.89218E+03 -1.06993E+04  1.76412E+04  6.48407E+03
  1.30394E+04  2.20448E+04 -6.41303E+03  2.44075E+04 -2.16534E+04  1.03751E+04 -2.69348E+04 -5.39728E+03
 -1.88731E+04 -1.69531E+04 -7.33766E+03 -1.88664E+04  3.98104E+03 -1.74904E+04  1.42188E+04 -1.61976E+04
  2.39210E+04 -1.21778E+04  3.05147E+04  2.20175E+03  2.23937E+04  1.79528E+04  4.15562E+03  3.45676E+04
 -1.69210E+04  2.93822E+04 -2.71208E+04  1.02752E+04 -2.01441E+04 -1.04000E+04 -4.32717E+03 -1.37686E+04
  2.22095E+03 -3.51278E+03 -3.83222E+03  6.24064E+03 -1.46232E+04  5.35054E+03 -1.48507E+04 -5.97156E+03
 -9.41099E+03 -1.76923E+04  4.92593E+03 -2.12837E+04  1.42684E+04 -1.51900E+04  1.63331E+04 -1.34037E+03
  1.00630E+04  1.23662E+04 -8.97672E+02  1.76825E+04 -1.20331E+04  9.69270E+03 -1.74000E+04 -4.00227E+03
 -1.28644E+04 -1.59774E+04 -1.81785E+03 -2.10919E+04  9.75324E+03 -1.73397E+04  1.79293E+04 -8.44162E+03
  1.64298E+04  3.23120E+02  1.16030E+04  4.19271E+03  6.17878E+03  5.07371E+02  8.74882E+03 -1.30320E+03
  1.58446E+04  2.67152E+03  1.74304E+04  1.37840E+04  1.08667E+04  2.79214E+04 -3.24153E+03  3.07125E+04
 -1.80785E+04  2.44461E+04 -2.87278E+04  1.21651E+04 -3.00225E+04 -2.21750E+03 -2.50145E+04 -1.69951E+04
 -1.09526E+04 -2.44000E+04  8.41032E+03 -2.22546E+04  1.94272E+04 -1.17590E+04  1.77205E+04  4.87583E+03
  7.12161E+03  1.28353E+04 -8.44272E+03  1.14490E+04 -1.49523E+04  2.60496E+03 -1.17027E+04 -9.18369E+03
 -2.77943E+01 -1.35205E+04  7.20328E+03 -1.07145E+04  9.37428E+03 -1.33217E+03  2.06809E+03  5.97833E+03
 -6.23028E+03  1.78951E+03 -5.21153E+03 -5.11586E+03  6.47323E+01 -1.19594E+04  8.86905E+03 -1.23573E+04
  1.49296E+04 -6.14269E+03  1.51919E+04  3.04014E+03  1.32169E+04  1.13667E+04  6.45172E+03  1.76470E+04
 -2.47840E+03  1.98686E+04 -1.22940E+04  1.23166E+04 -1.43212E+04  3.17816E+03 -1.01919E+04 -2.63966E+03
 -4.97272E+03 -4.14376E+03 -7.96576E+02  1.28694E+03 -1.95484E+03  2.26305E+03 -4.30772E+03  3.94786E+03
 -9.62457E+03 -4.23833E+02 -1.00591E+04 -8.46194E+03 -4.07114E+03 -1.37342E+04  4.18833E+03 -1.01103E+04
  8.84305E+03 -4.81696E+03  5.85435E+03  2.60220E+03  5.03055E+02  3.76410E+03 -4.47941E+03 -2.77510E+02
 -4.43669E+03 -6.21971E+03 -8.95864E+02 -8.96993E+03  4.97843E+03 -9.72905E+03  1.24816E+04 -4.94182E+03
  1.46343E+04  1.03621E+03  1.06638E+04  8.29603E+03  2.29717E+03  1.11155E+04 -6.56664E+03  1.00790E+04
 -8.23129E+03  3.15572E+03 -4.31417E+03 -1.61403E+03  1.48985E+03 -2.46422E+03  5.75083E+03 -1.17290E+03
  4.63710E+03  3.93744E+03  1.20109E+03  7.73962E+03 -5.85260E+03  8.01742E+03 -9.59967E+03  2.26732E+03
 -6.17499E+03 -4.61045E+03  2.79802E+02 -8.27524E+03  4.87469E+03 -3.96062E+03  4.65695E+03  1.51295E+03
  9.97112E+02  5.08494E+03 -5.16746E+03  6.45285E+03 -6.96414E+03  3.09342E+03 -6.70488E+03 -1.85929E+03
 -3.98161E+03 -8.38692E+03  2.00976E+03 -9.47349E+03  8.22559E+03 -6.28160E+03  8.70627E+03  1.36991E+03
  6.11764E+03  7.41257E+03 -2.57089E+02  8.80701E+03 -6.53763E+03  5.14338E+03 -7.05290E+03 -4.65764E+02
 -6.73016E+03 -6.30969E+03 -1.57642E+03 -6.54287E+03  3.12569E+03 -6.00690E+03  4.05983E+03 -3.16491E+03
  3.25888E+03  8.78323E+02 -1.05634E+02  1.40182E+03  1.85587E+01 -9.47368E+02  6.45600E+02 -3.34274E+03
  5.47181E+03 -1.87862E+03  7.79646E+03  1.01036E+03  8.05614E+03  4.76434E+03  6.32562E+03  1.02919E+04
 -2.14574E+03  1.20708E+04 -1.05515E+04  9.18838E+03 -1.38227E+04  1.63189E+03 -1.08701E+04 -4.12910E+03
 -5.61598E+03 -9.31508E+03 -6.05772E+02 -7.26353E+03  3.19154E+03 -3.36519E+03  2.54567E+03 -2.90654E+03
  1.62722E+03 -1.92230E+03  2.57228E+03 -2.85207E+03  4.06410E+03 -1.57860E+03  4.71042E+03  9.73409E+01
  5.98655E+03  1.55382E+03  2.19209E+03  4.67083E+03 -1.84393E+03  4.65362E+03 -5.89455E+03  3.96469E+03
 -7.18422E+03 -1.36913E+03 -3.53540E+03 -4.77854E+03  1.96353E+02 -7.16211E+03  4.53141E+03 -7.87620E+03
  7.45246E+03 -4.23120E+03  9.34988E+03  4.92868E+02  6.93600E+03  6.33493E+03  1.21682E+03  8.75081E+03
 -3.01023E+03  7.71541E+03 -5.15022E+03  2.72064E+03 -3.47546E+03 -1.26903E+03 -1.27003E+03 -1.20336E+03
 -7.76833E+02  2.20910E+02 -1.33237E+03  2.22688E+03 -3.09523E+03  1.31407E+03 -5.48185E+03 -6.95053E+02
 -3.12230E+03 -5.42322E+03  6.33358E+02 -6.96676E+03  4.15670E+03 -6.82249E+03  6.15908E+03 -2.11923E+03
  6.58480E+03  3.56558E+03  2.82547E+03  5.43903E+03 -1.38046E+03  6.66766E+03 -4.44933E+03  4.25740E+03
 -5.78968E+03  5.58796E+02 -4.90648E+03 -3.63500E+03 -2.73870E+02 -4.90052E+03  2.64156E+03 -3.89387E+03
  3.93218E+03 -1.82459E+03  2.98897E+03  9.62824E+02  6.36516E+02  2.14763E+03  1.04301E+03  8.09897E+02
  2.01365E+03  8.09338E+02  1.73804E+03  1.02579E+03  2.02634E+03  3.13652E+03  2.01514E+03  3.06700E+03
 -1.69202E+03  4.94063E+03 -4.26612E+03  5.47013E+03 -5.63786E+03  1.82445E+03 -6.65079E+03 -1.96542E+03
 -2.99547E+03 -6.06748E+03  1.18981E+03 -7.23273E+03  3.56954E+03 -4.46099E+03  4.85335E+03 -1.22571E+03
  4.09924E+03  2.38273E+03  6.89769E+02  3.44932E+03 -1.29903E+03  2.02115E+03 -2.36050E+03 -1.78370E+02
 -1.02118E+03 -2.53658E+03  1.96326E+03 -2.83778E+03  2.45539E+03 -1.31648E+03  2.52776E+03  6.83249E+02
  1.28261E+03  9.63550E+02  1.05065E+03  4.36955E+02 -4.12768E+02  9.14939E+02  1.57372E+03 -5.21609E+02
  5.32947E+02 -3.33498E+02  2.63543E+03  9.57439E+02  6.99479E+02  3.48434E+03 -5.61869E+02  4.31853E+03
 -2.71245E+03  2.57943E+03 -3.62181E+03  5.69903E+02 -3.61217E+03 -1.22889E+03 -7.82512E+02 -2.29056E+03
  3.53330E+02 -2.18811E+03  1.62203E+03 -1.02478E+03  1.17644E+03  1.44843E+03 -8.58022E+02  1.83797E+03
 -2.62417E+03  1.11314E+03 -2.55906E+03 -1.81932E+03 -1.03412E+03 -3.48039E+03  4.73308E+02 -2.97539E+03
  1.40578E+03 -1.74129E+03  2.04413E+03 -2.83096E+02  2.17224E+03  2.53608E+02  4.05330E+02  1.93448E+03
 -6.22729E+02  1.58654E+02 -1.38118E+03 -1.10353E+03  1.05280E+03 -1.98413E+03  2.90278E+03 -1.79831E+03
  2.99748E+03  3.24503E+02  4.61480E+03  2.02419E+03  1.63835E+03  3.44880E+03 -1.11839E+03  3.15336E+03
 -2.75761E+03  8.59492E+02 -2.93589E+03 -4.42656E+02 -1.77957E+03 -2.29858E+03  4.22154E+02 -1.93022E+03
  2.58916E+03 -8.08255E+02  1.76784E+03  1.03307E+03  5.93848E+02  2.36491E+03 -6.04009E+01  2.00469E+03
 -7.80814E+02  1.44798E+03 -5.65103E+02  3.06467E+02 -7.23086E+01  1.84068E+02 -8.68530E+02  8.00293E+02
 -9.35231E+02  1.51341E+03 -2.78203E+03  8.38440E+02 -3.43904E+03  2.87315E+02 -4.16361E+03 -1.82727E+03
 -2.24105E+03 -4.40547E+03  1.18391E+03 -5.13501E+03  2.47285E+03 -4.33486E+03  4.78041E+03 -1.97914E+03
  4.35460E+03  6.69313E+02  2.22543E+03  2.81903E+03 -2.94579E+01  2.93787E+03 -9.62808E+02  2.64543E+03
 -1.63741E+03  1.15057E+03 -1.20768E+03 -3.11750E+02 -4.40310E+02  4.55445E+01 -1.03413E+03  2.47956E+02
 -1.07855E+03  2.06109E+02 -1.28890E+03  3.34886E+01 -1.33298E+02 -5.77573E+02 -3.95804E+02 -1.31242E+03
  2.05092E+03 -9.14089E+02  1.50723E+03  5.70389E+01  2.27552E+03  1.75598E+03  2.77913E+02  2.90806E+03
 -1.71052E+03  4.15038E+03 -3.34819E+03  2.07194E+03 -3.75463E+03 -3.45691E+02 -2.89261E+03 -2.33481E+03
 -1.23239E+03 -3.13307E+03  5.43100E+02 -2.72592E+03  1.64980E+03 -1.39858E+03  1.46249E+03  3.73345E+02
  1.58801E+03  9.55223E+02  4.32849E+02  7.32702E+02 -8.85166E+02  2.51283E+02 -1.29420E+02 -4.12999E+02
  1.36354E+03  1.51117E+02  1.04059E+03  3.77184E+02  5.73069E+02  1.16002E+03  6.03164E+02  9.98363E+02
 -1.61429E+03  1.29518E+03 -1.44397E+03  4.32106E+02 -1.91090E+03 -1.16015E+03 -3.54286E+02 -2.81417E+03
  1.13973E+03 -1.84280E+03  1.69746E+03 -4.64781E+02  2.32638E+03 -5.67796E+01  1.10779E+03  1.85981E+03
  6.04744E+02  1.37344E+03 -5.75809E+02  1.76805E+03 -1.46659E+03  1.06205E+03 -9.51655E+02  1.38511E+02
 -3.18666E+02 -1.15847E+02 -8.12133E+02  3.07918E+02 -1.25527E+03  2.51936E+02 -1.60227E+03 -3.13291E+02
 -1.77418E+03 -2.42905E+02 -3.50853E+02 -1.94883E+03  1.22294E+03 -2.07396E+03  1.44983E+03 -8.52149E+02
  1.94946E+03  2.15449E+02  3.94217E+02  9.84231E+02 -1.50187E+02  1.90732E+03 -1.23086E+03  1.43844E+03
