 $NMID ID='MM_0lb_SNR800_16hz_g55_8.RAW', FMTDAT='(8E13.5)'
 TRAMP=1., VOLUME=1. $END
  3.09926E+05  9.74741E+01  3.37575E+05  2.50535E+05  8.47750E+04  3.37937E+05 -1.32540E+05  2.50910E+05
 -1.90174E+05  8.30475E+04 -1.11512E+05 -3.24843E+04  9.52849E+02 -5.03958E+04  5.37713E+04 -2.96515E+02
  3.52397E+04  5.27233E+04 -1.68897E+04  7.55414E+04 -6.07437E+04  6.32465E+04 -8.40146E+04  3.18283E+04
 -8.09421E+04 -1.12995E+04 -5.70356E+04 -5.10897E+04 -1.49777E+04 -6.96168E+04  2.73932E+04 -4.56881E+04
  3.98134E+04  4.04058E+03  1.61270E+04  4.77243E+04 -3.43918E+04  4.70052E+04 -6.64321E+04  5.30477E+01
 -5.31718E+04 -5.68773E+04 -6.79979E+03 -7.69829E+04  3.33922E+04 -5.48106E+04  4.77755E+04 -1.70805E+04
  4.29060E+04  1.11696E+04  3.16604E+04  2.51648E+04  1.60685E+04  2.95557E+04 -5.36964E+03  2.72650E+04
 -2.19260E+04  1.23888E+04 -1.86452E+04 -4.98769E+03  5.49282E+03 -7.34672E+03  2.23814E+04  1.19990E+04
  7.44697E+03  3.52686E+04 -3.18671E+04  3.53178E+04 -6.28807E+04  2.26026E+03 -5.67764E+04 -4.25068E+04
 -1.26076E+04 -6.28503E+04  3.91625E+04 -4.53158E+04  5.77837E+04 -2.16030E+03  3.35464E+04  3.21809E+04
 -6.15507E+03  3.55004E+04 -2.95630E+04  1.54392E+04 -2.98960E+04 -4.45234E+03 -1.66608E+04 -1.05371E+04
 -8.18743E+03 -1.28236E+04 -6.05290E+02 -1.76267E+04  7.31682E+03 -2.30048E+04  1.55096E+04 -1.37102E+04
  1.15180E+04  4.99621E+03 -7.80627E+03  1.30178E+04 -2.08953E+04 -3.76184E+03 -8.24637E+03 -3.32195E+04
  2.27590E+04 -4.30785E+04  4.75487E+04 -1.92353E+04  4.44766E+04  1.94452E+04  1.53441E+04  4.37736E+04
 -1.60795E+04  3.28424E+04 -2.50308E+04  1.66797E+03 -9.49120E+03 -2.75261E+04  2.07311E+04 -3.34874E+04
  4.04236E+04 -8.42055E+03  3.50432E+04  2.35917E+04  1.75277E+04  4.56496E+04 -7.99627E+03  4.90853E+04
 -3.09046E+04  3.33929E+04 -4.07723E+04  9.55378E+03 -4.16088E+04 -1.60052E+04 -2.30705E+04 -3.75608E+04
  7.09963E+03 -3.67401E+04  3.10257E+04 -1.45749E+04  2.86856E+04  1.08331E+04  3.68458E+03  1.87290E+04
 -1.33009E+04  8.27936E+03 -1.04829E+04 -7.88666E+03  5.78829E+03 -1.04299E+04  1.79317E+04  6.30881E+03
  1.31673E+04  2.20064E+04 -5.99467E+03  2.47426E+04 -2.20856E+04  1.11064E+04 -2.72306E+04 -5.38289E+03
 -1.97136E+04 -1.74233E+04 -7.87022E+03 -1.95882E+04  4.05767E+03 -1.81910E+04  1.51473E+04 -1.75799E+04
  2.48701E+04 -1.24640E+04  3.16406E+04  2.54015E+03  2.32519E+04  1.92554E+04  4.10122E+03  3.56618E+04
 -1.67933E+04  3.00188E+04 -2.76620E+04  1.00536E+04 -2.06366E+04 -1.04516E+04 -4.42840E+03 -1.34254E+04
  2.08365E+03 -3.13039E+03 -4.57882E+03  6.24553E+03 -1.54477E+04  5.45231E+03 -1.56009E+04 -6.50782E+03
 -9.99523E+03 -1.83304E+04  5.08569E+03 -2.22228E+04  1.45561E+04 -1.55495E+04  1.74558E+04 -1.36202E+03
  1.06907E+04  1.26109E+04 -1.20318E+03  1.79232E+04 -1.23408E+04  1.02661E+04 -1.81505E+04 -3.90526E+03
 -1.35862E+04 -1.62853E+04 -1.64920E+03 -2.20555E+04  1.00045E+04 -1.78575E+04  1.84552E+04 -8.86524E+03
  1.66246E+04  3.81414E+02  1.24085E+04  4.21438E+03  6.43812E+03  8.07320E+02  9.14106E+03 -1.22312E+03
  1.61280E+04  2.44897E+03  1.83631E+04  1.46451E+04  1.16291E+04  2.85351E+04 -2.83811E+03  3.21778E+04
 -1.88554E+04  2.55993E+04 -2.97312E+04  1.25439E+04 -3.11414E+04 -1.92329E+03 -2.55668E+04 -1.77409E+04
 -1.15674E+04 -2.52878E+04  8.50769E+03 -2.28762E+04  2.00082E+04 -1.22261E+04  1.81066E+04  5.08283E+03
  7.00501E+03  1.34713E+04 -8.37753E+03  1.20441E+04 -1.54644E+04  2.82074E+03 -1.15457E+04 -9.38716E+03
 -2.08895E+02 -1.43599E+04  7.46276E+03 -1.04872E+04  9.50093E+03 -1.23750E+03  2.05345E+03  5.96482E+03
 -6.41057E+03  2.04319E+03 -5.33456E+03 -5.37218E+03 -1.49500E+02 -1.24023E+04  8.85299E+03 -1.29408E+04
  1.54217E+04 -6.55907E+03  1.58383E+04  3.11876E+03  1.38117E+04  1.21763E+04  6.57585E+03  1.80497E+04
 -2.83225E+03  2.01490E+04 -1.27939E+04  1.26418E+04 -1.44991E+04  3.33620E+03 -1.01750E+04 -2.99497E+03
 -5.19423E+03 -4.40712E+03 -9.44346E+02  1.15543E+03 -2.35688E+03  2.42538E+03 -4.68390E+03  3.77302E+03
 -9.92321E+03 -4.44428E+02 -1.06236E+04 -8.42666E+03 -4.50742E+03 -1.35729E+04  4.13001E+03 -1.05686E+04
  8.70354E+03 -4.82380E+03  6.28611E+03  2.78711E+03  4.69468E+02  3.79020E+03 -4.84796E+03 -4.68527E+01
 -4.24875E+03 -6.53598E+03 -6.83696E+02 -9.58309E+03  5.14292E+03 -9.87897E+03  1.24072E+04 -5.36388E+03
  1.49817E+04  7.52474E+02  1.11038E+04  7.96262E+03  2.43346E+03  1.10260E+04 -6.53880E+03  1.00979E+04
 -8.45230E+03  3.31255E+03 -4.77812E+03 -1.93376E+03  1.83821E+03 -2.57291E+03  5.65800E+03 -1.13424E+03
  4.87029E+03  4.27136E+03  1.06928E+03  7.93608E+03 -5.70572E+03  7.69465E+03 -9.50182E+03  2.19589E+03
 -6.48961E+03 -4.58933E+03  4.92305E+02 -8.83182E+03  4.90796E+03 -4.17069E+03  5.09854E+03  1.47301E+03
  1.26803E+03  5.09485E+03 -5.39124E+03  6.16324E+03 -6.76057E+03  3.13951E+03 -6.88525E+03 -2.05565E+03
 -4.20587E+03 -8.62715E+03  2.04170E+03 -9.65987E+03  8.32255E+03 -6.26352E+03  9.17553E+03  1.62564E+03
  5.78655E+03  7.07567E+03  1.47273E+02  9.01990E+03 -6.66652E+03  5.43167E+03 -6.78897E+03 -5.12185E+02
 -6.62367E+03 -6.32159E+03 -1.33600E+03 -6.55883E+03  3.41022E+03 -5.89463E+03  3.88629E+03 -3.10594E+03
  3.63074E+03  3.93890E+02 -2.77857E+02  1.78724E+03  7.15786E+02 -9.51976E+02  7.57189E+02 -3.24321E+03
  5.74180E+03 -1.51333E+03  8.09930E+03  7.99021E+02  7.84532E+03  5.11446E+03  6.36042E+03  1.03773E+04
 -2.09547E+03  1.20903E+04 -1.06575E+04  9.00797E+03 -1.33483E+04  1.94954E+03 -1.03933E+04 -4.17412E+03
 -5.59653E+03 -8.64558E+03 -7.33510E+02 -7.02658E+03  2.95748E+03 -3.41748E+03  2.53412E+03 -2.85704E+03
  1.76317E+03 -1.95043E+03  2.67784E+03 -2.66391E+03  4.08313E+03 -2.07708E+03  4.78836E+03  9.19138E+01
  5.67962E+03  1.25744E+03  2.16715E+03  4.77870E+03 -2.06982E+03  4.52042E+03 -5.76800E+03  3.85730E+03
 -6.99047E+03 -9.64867E+02 -3.18512E+03 -4.71446E+03  2.41846E+02 -7.20206E+03  4.56828E+03 -7.65475E+03
  7.48919E+03 -4.31422E+03  9.01576E+03  7.47292E+02  6.55928E+03  6.19551E+03  1.58525E+03  8.26384E+03
 -2.97912E+03  7.57128E+03 -4.80958E+03  2.80878E+03 -3.07719E+03 -1.19831E+03 -8.91930E+02 -7.18825E+02
 -7.36280E+02  4.23364E+02 -1.08224E+03  2.08713E+03 -3.34161E+03  1.45105E+03 -5.30398E+03 -4.00000E+02
 -2.75125E+03 -5.01147E+03  5.21535E+02 -6.39120E+03  3.80398E+03 -6.22591E+03  5.96495E+03 -1.78568E+03
  6.04695E+03  3.28892E+03  2.72768E+03  5.06851E+03 -9.21886E+02  6.13750E+03 -4.29954E+03  4.01898E+03
 -5.63165E+03  6.13693E+02 -4.75213E+03 -3.58359E+03 -4.39180E+02 -5.10149E+03  2.60784E+03 -3.69894E+03
  3.95735E+03 -1.21357E+03  2.28034E+03  5.96682E+02  6.46275E+02  2.00141E+03  7.01176E+02  7.25790E+02
  1.82188E+03  9.65925E+02  1.62419E+03  1.45184E+03  1.72877E+03  2.70885E+03  1.97196E+03  3.24321E+03
 -1.46656E+03  4.79218E+03 -4.00500E+03  5.72344E+03 -5.28673E+03  1.51182E+03 -6.56839E+03 -1.58002E+03
 -2.87226E+03 -5.78581E+03  9.32518E+02 -6.84627E+03  3.06667E+03 -3.96632E+03  4.70429E+03 -1.34784E+03
  3.67266E+03  2.46825E+03  6.66915E+02  3.43259E+03 -1.46810E+03  2.00726E+03 -1.90083E+03 -1.83999E+02
 -1.18938E+03 -2.50442E+03  1.47278E+03 -2.29520E+03  2.20504E+03 -1.49357E+03  1.77649E+03  6.75438E+02
  1.42511E+03  6.11970E+02  1.11340E+03  3.29026E+02 -4.32122E+02  8.85165E+02  1.55664E+03 -2.36604E+02
  1.55973E+02 -5.79070E+02  2.38288E+03  7.53025E+02  1.04047E+03  3.45574E+03 -7.58941E+02  3.84224E+03
 -2.69058E+03  1.87870E+03 -3.25805E+03  6.49485E+02 -3.54187E+03 -1.09587E+03 -5.05835E+02 -1.65279E+03
  6.48514E+02 -1.83964E+03  1.43441E+03 -1.26149E+03  9.73828E+02  1.71503E+03 -8.14867E+02  1.59514E+03
 -2.40099E+03  6.99897E+02 -1.96655E+03 -1.74705E+03 -1.40703E+03 -3.35742E+03  3.47098E+02 -2.60394E+03
  1.26494E+03 -1.21976E+03  1.58393E+03 -1.41233E+02  1.85363E+03 -3.42274E+01  3.24653E+02  1.56874E+03
 -5.95804E+02  3.64518E+02 -1.55709E+03 -7.93130E+02  1.10251E+03 -1.77731E+03  2.86048E+03 -1.74053E+03
  2.53130E+03 -3.43489E+01  3.54226E+03  1.68549E+03  1.50158E+03  2.73998E+03 -7.48516E+02  2.96049E+03
 -2.17766E+03  5.40445E+02 -2.74205E+03 -6.05389E+02 -1.14618E+03 -1.97051E+03  5.90757E+02 -1.71936E+03
  2.23129E+03 -9.01955E+02  1.20656E+03  9.38357E+02  3.08744E+02  2.03922E+03  2.78141E+02  1.56476E+03
 -5.86083E+02  1.56349E+03 -8.16064E+02  2.89306E+02  6.55258E+01  5.82414E+02 -5.79304E+02  7.55981E+02
 -8.80049E+02  1.61067E+03 -2.47477E+03  8.79543E+02 -2.90723E+03  3.74741E+01 -3.65353E+03 -1.80059E+03
 -1.37765E+03 -4.00426E+03  9.42107E+02 -4.38519E+03  2.14205E+03 -3.96581E+03  4.26690E+03 -1.34281E+03
  4.01124E+03  1.87035E+02  2.30400E+03  2.59952E+03 -6.44766E+02  2.27642E+03 -1.43907E+03  2.16996E+03
 -1.88812E+03  1.12907E+03 -1.21499E+03 -5.99521E+02 -6.10608E+02 -2.59578E+01 -1.07718E+03  2.31433E+02
 -1.01781E+03  4.54961E+01 -8.60658E+02  8.40664E+01 -1.20794E+02 -7.22895E+02 -3.39576E+02 -1.69661E+03
  1.79371E+03 -1.00458E+03  1.16583E+03  5.23350E+02  2.02954E+03  1.70282E+03 -1.05075E+01  2.18221E+03
 -1.70367E+03  3.38647E+03 -2.45696E+03  1.99699E+03 -2.82966E+03 -6.43987E+02 -2.24429E+03 -1.88882E+03
 -1.50299E+03 -2.32140E+03  4.88608E+02 -2.36717E+03  1.32132E+03 -1.37007E+03  1.29803E+03  2.73108E+02
  1.10133E+03  5.79858E+02  1.07550E+02  9.95013E+02 -5.35661E+02  6.25460E+01 -1.60370E+02 -3.97343E+02
  7.64478E+02  3.79604E+02  4.87351E+02  5.17117E+02  2.63996E+02  7.77336E+02  5.37177E+02  1.10757E+03
 -1.08065E+03  1.18276E+03 -1.36189E+03  1.63964E+02 -1.30704E+03 -1.02650E+03 -1.79323E+02 -2.26023E+03
  9.09622E+02 -1.52350E+03  1.61430E+03 -3.69911E+02  1.58591E+03 -3.77378E+02  1.06003E+03  1.59023E+03
  6.18543E+02  1.33841E+03 -4.19789E+02  1.08156E+03 -1.10370E+03  9.58069E+02 -7.01243E+02 -1.96096E+01
 -9.14678E+01  2.65401E+01 -7.04352E+02  5.60770E+02 -6.50750E+02  2.98957E+02 -1.45215E+03 -2.92920E+02
 -1.47551E+03 -2.99448E+02 -4.05020E+02 -1.64433E+03  8.86381E+02 -2.31455E+03  1.16461E+03 -1.73633E+02
  1.34842E+03 -3.29932E+02  1.38816E+01  7.45194E+02 -2.27930E+01  1.60740E+03 -7.08998E+02  1.13578E+03
