 $NMID ID='MM_0lb_SNR800_19hz_g60_99.RAW', FMTDAT='(8E13.5)'
 TRAMP=1., VOLUME=1. $END
  3.09768E+05  3.98327E+02  3.37585E+05  2.50348E+05  8.44159E+04  3.37599E+05 -1.32715E+05  2.50349E+05
 -1.90102E+05  8.29432E+04 -1.11386E+05 -3.28114E+04  1.20890E+03 -5.05315E+04  5.39381E+04 -3.42894E+02
  3.52705E+04  5.29306E+04 -1.69176E+04  7.52602E+04 -6.06302E+04  6.35710E+04 -8.36554E+04  3.15573E+04
 -8.05131E+04 -1.14904E+04 -5.68348E+04 -5.10247E+04 -1.46009E+04 -6.91077E+04  2.72261E+04 -4.55665E+04
  3.98087E+04  4.07908E+03  1.60244E+04  4.77668E+04 -3.41613E+04  4.69303E+04 -6.59661E+04 -5.16423E+02
 -5.29145E+04 -5.65105E+04 -6.68372E+03 -7.63334E+04  3.37077E+04 -5.41657E+04  4.70107E+04 -1.68228E+04
  4.28070E+04  1.12682E+04  3.14757E+04  2.48372E+04  1.56543E+04  2.86950E+04 -5.05128E+03  2.70168E+04
 -2.19901E+04  1.23147E+04 -1.88758E+04 -4.68770E+03  4.88484E+03 -7.71335E+03  2.19300E+04  1.16143E+04
  7.37199E+03  3.42756E+04 -3.12330E+04  3.49405E+04 -6.19367E+04  2.04579E+03 -5.62778E+04 -4.17828E+04
 -1.23444E+04 -6.21995E+04  3.89962E+04 -4.41003E+04  5.67020E+04 -2.37517E+03  3.29122E+04  3.14274E+04
 -6.38825E+03  3.46516E+04 -2.90076E+04  1.46203E+04 -2.87583E+04 -4.73674E+03 -1.54567E+04 -1.02826E+04
 -7.62172E+03 -1.23518E+04 -1.27150E+03 -1.70769E+04  6.94347E+03 -2.27772E+04  1.53222E+04 -1.37372E+04
  1.19034E+04  4.75260E+03 -7.08019E+03  1.30448E+04 -2.00890E+04 -3.19761E+03 -8.23445E+03 -3.18632E+04
  2.18045E+04 -4.20786E+04  4.62270E+04 -1.92875E+04  4.33814E+04  1.89837E+04  1.47252E+04  4.28123E+04
 -1.54749E+04  3.21426E+04 -2.41427E+04  1.38302E+03 -9.07426E+03 -2.71055E+04  2.08748E+04 -3.24798E+04
  3.93635E+04 -7.89752E+03  3.30383E+04  2.32650E+04  1.66664E+04  4.39251E+04 -7.71478E+03  4.73847E+04
 -2.97148E+04  3.13174E+04 -3.93689E+04  8.76253E+03 -4.00294E+04 -1.56750E+04 -2.20228E+04 -3.56295E+04
  7.19154E+03 -3.59779E+04  3.01343E+04 -1.34240E+04  2.77156E+04  1.06334E+04  3.16911E+03  1.83922E+04
 -1.30405E+04  7.41536E+03 -9.90460E+03 -7.71826E+03  5.92859E+03 -1.01891E+04  1.73559E+04  6.31612E+03
  1.26565E+04  2.15361E+04 -6.69058E+03  2.39546E+04 -2.18873E+04  9.98331E+03 -2.62332E+04 -5.83153E+03
 -1.80508E+04 -1.69025E+04 -6.61899E+03 -1.79193E+04  4.04061E+03 -1.63690E+04  1.36550E+04 -1.56543E+04
  2.30074E+04 -1.20925E+04  2.95454E+04  1.65589E+03  2.21219E+04  1.73739E+04  4.21851E+03  3.35855E+04
 -1.63255E+04  2.84626E+04 -2.62649E+04  9.72290E+03 -2.00928E+04 -1.03053E+04 -4.17895E+03 -1.37613E+04
  2.36391E+03 -3.65506E+03 -3.23704E+03  6.03642E+03 -1.41168E+04  5.14195E+03 -1.45229E+04 -5.69040E+03
 -8.65285E+03 -1.65211E+04  4.62157E+03 -2.03222E+04  1.33928E+04 -1.50510E+04  1.56088E+04 -1.56941E+03
  9.89508E+03  1.16672E+04 -6.96143E+02  1.64524E+04 -1.11756E+04  9.12452E+03 -1.66868E+04 -3.76176E+03
 -1.22501E+04 -1.48778E+04 -1.44271E+03 -1.99924E+04  9.03792E+03 -1.61406E+04  1.70347E+04 -8.05609E+03
  1.55508E+04  4.34243E+02  1.13102E+04  3.91127E+03  5.54778E+03  5.63862E+02  8.32778E+03 -1.47867E+03
  1.49927E+04  2.41467E+03  1.59137E+04  1.32729E+04  1.01280E+04  2.61475E+04 -3.32751E+03  2.85464E+04
 -1.66199E+04  2.19629E+04 -2.62307E+04  1.06219E+04 -2.68571E+04 -1.85336E+03 -2.28385E+04 -1.54314E+04
 -1.05811E+04 -2.22615E+04  7.34231E+03 -2.04583E+04  1.75258E+04 -1.11720E+04  1.63632E+04  4.15921E+03
  6.80297E+03  1.17049E+04 -7.66354E+03  1.04810E+04 -1.39757E+04  2.45762E+03 -1.06717E+04 -8.42845E+03
 -2.30705E+02 -1.28291E+04  6.54724E+03 -9.58619E+03  8.38117E+03 -1.21547E+03  1.44049E+03  5.14602E+03
 -5.75388E+03  1.35179E+03 -4.23942E+03 -4.79463E+03  3.88616E+02 -1.07295E+04  8.31312E+03 -1.09887E+04
  1.28569E+04 -5.19941E+03  1.27523E+04  2.64973E+03  1.11985E+04  1.00511E+04  5.34141E+03  1.50172E+04
 -1.83832E+03  1.69409E+04 -1.05551E+04  1.08655E+04 -1.18776E+04  3.22464E+03 -9.07156E+03 -2.11658E+03
 -4.68089E+03 -3.29942E+03 -7.62356E+02  1.22786E+03 -2.19318E+03  2.13847E+03 -3.94402E+03  3.43048E+03
 -8.57624E+03 -5.34133E+02 -8.92956E+03 -7.39252E+03 -3.58959E+03 -1.20752E+04  3.59224E+03 -8.77221E+03
  7.48351E+03 -3.95259E+03  5.41237E+03  2.23169E+03  4.89481E+02  3.30905E+03 -3.81406E+03 -5.32603E+01
 -3.39394E+03 -5.83195E+03 -1.07415E+03 -7.62154E+03  4.23921E+03 -8.28495E+03  1.06046E+04 -4.23440E+03
  1.24032E+04  5.95257E+02  8.88572E+03  6.82903E+03  1.75091E+03  9.33947E+03 -5.43162E+03  8.93084E+03
 -7.23908E+03  3.09551E+03 -3.74981E+03 -1.12326E+03  1.37577E+03 -2.35129E+03  5.08610E+03 -1.24539E+03
  4.31695E+03  3.38880E+03  1.00447E+03  6.62307E+03 -4.45844E+03  6.63502E+03 -8.08500E+03  1.82156E+03
 -5.24244E+03 -4.09317E+03  2.13554E+02 -6.84424E+03  3.59815E+03 -3.42888E+03  3.77762E+03  8.06960E+02
  3.22117E+02  3.71463E+03 -4.38109E+03  5.23912E+03 -5.24949E+03  2.53544E+03 -4.81496E+03 -1.16479E+03
 -3.15466E+03 -6.25477E+03  1.33714E+03 -7.42824E+03  6.58455E+03 -4.88385E+03  6.70382E+03  1.34183E+03
  4.61021E+03  5.56078E+03  3.30860E+02  7.42162E+03 -5.37786E+03  4.29150E+03 -5.35610E+03 -5.61259E+02
 -5.82485E+03 -5.17924E+03 -1.46250E+03 -5.33164E+03  2.78276E+03 -4.54498E+03  2.93595E+03 -3.00116E+03
  2.88415E+03  3.19740E+02  2.45501E+02  1.18205E+03  7.23434E+02 -4.78230E+02 -8.31760E+00 -2.02822E+03
  3.70560E+03 -7.49543E+02  5.78293E+03  8.41166E+02  5.56602E+03  2.99835E+03  5.42599E+03  7.54521E+03
 -1.28091E+03  8.93328E+03 -7.90465E+03  6.78341E+03 -1.01951E+04  1.17742E+03 -8.14579E+03 -2.35273E+03
 -4.39971E+03 -6.36631E+03 -3.33798E+02 -5.24313E+03  2.32787E+03 -2.14675E+03  1.58401E+03 -2.20042E+03
  1.26850E+03 -1.54020E+03  2.05322E+03 -2.44199E+03  3.48424E+03 -1.31041E+03  3.84308E+03  4.45031E+02
  4.48723E+03  1.06367E+03  1.15497E+03  3.48090E+03 -1.35668E+03  2.71487E+03 -4.97251E+03  2.32465E+03
 -4.80879E+03 -8.98486E+02 -1.60556E+03 -3.36449E+03  3.99854E+02 -4.66686E+03  3.24861E+03 -5.28289E+03
  4.90454E+03 -3.29844E+03  6.74393E+03  3.04660E+02  4.87065E+03  4.35503E+03  1.23749E+03  5.99473E+03
 -2.14669E+03  5.84990E+03 -3.33495E+03  1.86861E+03 -1.76804E+03 -9.77319E+02 -6.13590E+02 -6.99364E+02
 -4.32841E+02  3.58707E+02 -8.94406E+02  1.94639E+03 -2.83065E+03  7.98746E+02 -4.09598E+03 -5.13210E+02
 -1.72762E+03 -4.16484E+03  9.33234E+02 -4.40292E+03  2.62944E+03 -4.45694E+03  3.55767E+03 -9.68437E+02
  4.08886E+03  2.21023E+03  1.69928E+03  3.15415E+03 -9.71275E+02  4.39887E+03 -2.66304E+03  2.65773E+03
 -3.85738E+03  6.46349E+02 -3.27622E+03 -2.16708E+03 -5.83872E+01 -3.18374E+03  1.56528E+03 -2.38130E+03
  2.55008E+03 -1.13896E+03  1.73512E+03  3.62018E+02  3.43388E+02  1.72880E+03  5.14631E+02  7.03085E+02
  1.55436E+03  7.94795E+02  1.31613E+03  9.19354E+02  8.10663E+02  2.23818E+03  1.33106E+03  1.68342E+03
 -1.23155E+03  2.82748E+03 -2.65941E+03  4.01497E+03 -2.51282E+03  8.50703E+02 -3.88624E+03 -3.71355E+02
 -1.64556E+03 -3.65099E+03  6.75310E+02 -4.50014E+03  1.59692E+03 -2.61863E+03  2.83107E+03 -7.87915E+02
  2.64702E+03  1.70465E+03  4.66515E+02  2.15576E+03 -2.97682E+02  1.31800E+03 -8.74538E+02 -1.81097E+02
 -7.55718E+02 -1.18124E+03  9.29799E+02 -1.47801E+03  1.15869E+03 -7.13928E+02  1.19006E+03  4.08249E+02
  6.43492E+02  2.91958E+02  5.97343E+02 -1.05164E+02 -1.48345E+02  7.13321E+02  1.58051E+03 -2.55599E+02
  1.14806E+02 -1.36742E+02  1.53084E+03  6.96890E+02 -4.58832E+01  2.23856E+03 -4.69788E+02  2.66084E+03
 -1.39840E+03  1.19879E+03 -1.84486E+03  2.73863E+02 -1.86433E+03 -8.01669E+02  1.04382E+01 -9.98524E+02
  3.00588E+02 -1.16234E+03  8.38414E+02 -4.90050E+02  3.98798E+02  1.30030E+03 -7.51875E+02  1.02413E+03
 -1.27013E+03  6.36070E+02 -1.08440E+03 -1.02479E+03 -6.81070E+02 -1.97281E+03  3.18693E+02 -1.26936E+03
  5.07902E+02 -3.67545E+02  5.71304E+02  4.11137E+01  1.34730E+03 -4.95619E+02  5.71711E+01  1.08079E+03
 -4.10101E+02  1.45255E+02 -6.96167E+02 -3.09803E+02  6.03642E+02 -9.15105E+02  1.70186E+03 -6.45224E+02
  1.18878E+03  2.15644E+02  2.63879E+03  4.86915E+02  1.06901E+03  1.50302E+03 -2.57456E+02  1.43790E+03
 -1.29102E+03 -2.06727E+02 -1.10209E+03 -3.27533E+02 -4.34145E+02 -1.15227E+03  1.93755E+02 -2.26313E+02
  1.23923E+03 -3.19214E+02  4.72954E+02  6.52104E+02  1.02521E+00  1.06265E+03  1.04553E+02  6.93546E+02
 -2.98622E+02  8.76580E+02 -4.98817E+02  3.24468E+02 -1.12808E+02  3.02750E+02 -7.37802E+02  2.61277E+02
 -5.36874E+02  6.88649E+02 -1.52397E+03  4.06848E+02 -1.33650E+03  2.72296E+02 -1.85735E+03 -1.00447E+03
 -1.19217E+03 -1.89237E+03  4.87230E+02 -2.47942E+03  9.84612E+02 -2.14635E+03  2.38933E+03 -9.78729E+02
  2.25917E+03 -1.43730E+01  1.15946E+03  1.29203E+03 -6.75313E+02  1.12442E+03 -5.27679E+02  8.33304E+02
 -6.57498E+02  7.66257E+02 -3.13380E+02 -6.57714E+01 -6.61715E+02  4.58198E+02 -7.65447E+02 -1.92361E+01
 -1.09698E+03  5.59487E-01 -7.44565E+02  1.11374E+01  1.18944E+02 -6.45606E+02 -4.19208E+02 -8.25894E+02
  9.93733E+02 -6.28313E+02  1.71519E+02  1.29836E+02  1.00592E+03  7.98843E+02 -4.63906E+02  1.09478E+03
 -5.18147E+02  2.03421E+03 -1.23684E+03  1.38098E+03 -1.11786E+03  2.05607E+01 -8.82153E+02 -8.35494E+02
 -9.48735E+02 -1.28870E+03  1.70165E+02 -9.70271E+02  5.46511E+02 -3.17298E+02  5.19317E+02  1.03222E+02
  6.41195E+02  1.42801E+02  1.16862E+02 -2.07584E+02 -1.55290E+02 -1.40385E+02 -5.44323E+01 -2.03625E+02
  2.69161E+02  2.84181E+02  1.80356E+02  5.75655E+02 -2.92506E+02  2.94361E+02  3.47982E+02 -1.19942E+02
 -2.08616E+02  4.76424E+02 -1.94243E+02  1.30796E+02 -4.76820E+02 -6.29450E+02 -6.23178E+01 -1.15266E+03
  3.68140E+02 -4.80212E+02  4.24928E+02 -2.94679E+02  6.16788E+02 -5.62900E+02  3.65199E+02  6.49071E+02
  1.48587E+02  4.93965E+02 -3.05869E+02  4.81102E+02 -5.06186E+02  3.02835E+02 -3.45856E+01 -1.50274E+01
  2.10535E+02 -2.20560E+02 -4.31921E+02  2.74299E+02 -5.21432E+02  1.00539E+01 -3.34773E+02 -3.29353E+02
 -9.80138E+02  3.24509E+02 -3.87599E+02 -4.12010E+02  6.77522E+02 -1.60190E+03  5.73663E+02 -3.51754E+01
  5.40092E+02  2.22615E+02 -3.00303E+02  2.10339E+02 -2.67559E+02  2.92580E+02 -4.90800E+01  5.93086E+02
