 $NMID ID='MM_0lb_SNR800_13hz_g60_17.RAW', FMTDAT='(8E13.5)'
 TRAMP=1., VOLUME=1. $END
  3.09747E+05  4.92113E+02  3.38112E+05  2.50683E+05  8.51174E+04  3.38192E+05 -1.32739E+05  2.51515E+05
 -1.90835E+05  8.32853E+04 -1.11989E+05 -3.22538E+04  7.04643E+02 -5.06224E+04  5.39092E+04 -2.55381E+02
  3.58302E+04  5.31420E+04 -1.66703E+04  7.54543E+04 -6.08901E+04  6.43310E+04 -8.50268E+04  3.23102E+04
 -8.20148E+04 -1.15815E+04 -5.77552E+04 -5.18287E+04 -1.51663E+04 -7.04360E+04  2.75939E+04 -4.61371E+04
  4.06068E+04  3.65847E+03  1.65538E+04  4.83702E+04 -3.47114E+04  4.78343E+04 -6.73366E+04  3.17913E+02
 -5.41576E+04 -5.75606E+04 -7.21805E+03 -7.81751E+04  3.43219E+04 -5.63384E+04  4.90030E+04 -1.79016E+04
  4.44063E+04  1.14138E+04  3.24992E+04  2.59122E+04  1.58582E+04  3.01180E+04 -5.48318E+03  2.75715E+04
 -2.22901E+04  1.19725E+04 -1.80753E+04 -5.29780E+03  6.20303E+03 -7.62584E+03  2.28486E+04  1.32131E+04
  6.99309E+03  3.62927E+04 -3.30450E+04  3.63550E+04 -6.48929E+04  2.15005E+03 -5.81376E+04 -4.39082E+04
 -1.25600E+04 -6.45470E+04  4.07354E+04 -4.65861E+04  6.01942E+04 -2.64123E+03  3.53899E+04  3.36354E+04
 -5.67321E+03  3.77497E+04 -3.07259E+04  1.72903E+04 -3.16567E+04 -3.74191E+03 -1.79723E+04 -1.15447E+04
 -8.96427E+03 -1.42168E+04 -7.19045E+02 -1.88950E+04  7.96232E+03 -2.33061E+04  1.54535E+04 -1.29074E+04
  1.05126E+04  5.78522E+03 -9.77501E+03  1.26718E+04 -2.21544E+04 -5.31683E+03 -8.51509E+03 -3.58733E+04
  2.42698E+04 -4.56889E+04  5.02921E+04 -2.02445E+04  4.67228E+04  2.04851E+04  1.65677E+04  4.60943E+04
 -1.62269E+04  3.50020E+04 -2.62692E+04  2.19119E+03 -1.08358E+04 -2.90300E+04  2.13378E+04 -3.56219E+04
  4.29672E+04 -1.00700E+04  3.78789E+04  2.44950E+04  1.96707E+04  4.88176E+04 -8.06868E+03  5.31975E+04
 -3.32397E+04  3.59257E+04 -4.43715E+04  1.03297E+04 -4.49609E+04 -1.77860E+04 -2.48363E+04 -3.96998E+04
  7.28404E+03 -4.00223E+04  3.29313E+04 -1.59947E+04  3.06991E+04  1.11038E+04  4.42169E+03  1.98937E+04
 -1.37761E+04  9.11030E+03 -1.06948E+04 -7.42454E+03  5.71382E+03 -1.10518E+04  1.82217E+04  5.88904E+03
  1.43441E+04  2.24763E+04 -5.59512E+03  2.59410E+04 -2.28532E+04  1.29102E+04 -2.95182E+04 -3.63518E+03
 -2.32128E+04 -1.80419E+04 -9.94157E+03 -2.29193E+04  4.04261E+03 -2.28417E+04  1.74442E+04 -2.05705E+04
  2.87656E+04 -1.33199E+04  3.51759E+04  3.84983E+03  2.54185E+04  2.19742E+04  4.86802E+03  3.86815E+04
 -1.87340E+04  3.24680E+04 -2.93753E+04  1.10355E+04 -2.15339E+04 -1.01440E+04 -4.88221E+03 -1.35167E+04
  1.42606E+03 -2.40809E+03 -6.27086E+03  7.34729E+03 -1.81662E+04  5.05487E+03 -1.80441E+04 -8.36090E+03
 -1.11919E+04 -2.10633E+04  5.81799E+03 -2.51304E+04  1.67215E+04 -1.80118E+04  2.04135E+04 -1.86353E+03
  1.27813E+04  1.44664E+04 -1.33797E+03  2.06712E+04 -1.44730E+04  1.18304E+04 -2.12889E+04 -4.42304E+03
 -1.54412E+04 -1.89828E+04 -2.00197E+03 -2.51995E+04  1.13625E+04 -2.12171E+04  2.09050E+04 -1.04569E+04
  1.97270E+04 -8.15783E+01  1.43049E+04  4.79588E+03  7.79740E+03  1.05183E+03  1.06627E+04 -1.90472E+03
  1.93578E+04  2.79731E+03  2.17723E+04  1.63472E+04  1.47916E+04  3.32237E+04 -2.41562E+03  3.85932E+04
 -2.22229E+04  3.13001E+04 -3.62174E+04  1.61443E+04 -3.79268E+04 -2.84700E+03 -3.15397E+04 -2.19006E+04
 -1.29244E+04 -3.15501E+04  1.10568E+04 -2.81195E+04  2.43039E+04 -1.37186E+04  2.14493E+04  6.11225E+03
  7.67843E+03  1.61539E+04 -1.02403E+04  1.39307E+04 -1.81150E+04  2.60547E+03 -1.33302E+04 -1.13899E+04
 -4.10687E+02 -1.67624E+04  8.99870E+03 -1.25684E+04  1.13764E+04 -1.19583E+03  2.58143E+03  7.36269E+03
 -7.68816E+03  3.32935E+03 -7.05903E+03 -6.14811E+03 -1.03079E+03 -1.55991E+04  1.07125E+04 -1.64828E+04
  1.93295E+04 -8.86319E+03  2.11544E+04  3.39148E+03  1.83257E+04  1.56948E+04  8.39131E+03  2.39872E+04
 -3.96516E+03  2.56853E+04 -1.67934E+04  1.61488E+04 -1.87427E+04  3.48162E+03 -1.27332E+04 -4.37647E+03
 -5.70917E+03 -5.80502E+03 -5.76944E+02  7.22732E+02 -2.83240E+03  3.09011E+03 -6.10073E+03  5.00953E+03
 -1.17347E+04 -8.19526E+02 -1.26794E+04 -1.02931E+04 -5.15571E+03 -1.65330E+04  5.41681E+03 -1.28198E+04
  1.10245E+04 -5.32601E+03  7.62114E+03  3.16702E+03  2.43079E+02  4.95449E+03 -6.37538E+03 -1.99958E+02
 -6.17430E+03 -8.32406E+03 -5.92683E+02 -1.27462E+04  7.30237E+03 -1.33895E+04  1.61507E+04 -6.73681E+03
  1.91421E+04  1.79124E+03  1.40952E+04  1.11618E+04  2.76672E+03  1.52627E+04 -7.61610E+03  1.24201E+04
 -1.05600E+04  3.69456E+03 -5.38270E+03 -2.61657E+03  2.01324E+03 -3.44612E+03  6.94565E+03 -1.07368E+03
  6.05157E+03  5.38025E+03  1.26897E+03  1.02511E+04 -7.15845E+03  9.94680E+03 -1.26639E+04  2.36656E+03
 -8.51737E+03 -6.46325E+03  3.27920E+02 -1.08436E+04  6.87169E+03 -5.42164E+03  6.95784E+03  2.88682E+03
  1.67721E+03  7.16616E+03 -6.77637E+03  8.67107E+03 -1.00844E+04  4.13983E+03 -1.05719E+04 -3.57721E+03
 -5.94433E+03 -1.18443E+04  2.66816E+03 -1.38630E+04  1.19139E+04 -8.05190E+03  1.24923E+04  2.44755E+03
  7.68888E+03  1.02418E+04 -1.00177E+03  1.24991E+04 -8.88231E+03  7.21509E+03 -9.61150E+03 -8.56329E+02
 -8.46247E+03 -8.43989E+03 -1.43696E+03 -9.07212E+03  4.81908E+03 -7.80606E+03  5.44832E+03 -3.48471E+03
  4.18672E+03  1.47217E+03 -6.64557E+02  1.61948E+03 -5.39762E+02 -2.08690E+03  1.51299E+03 -5.16494E+03
  8.00631E+03 -2.88908E+03  1.14277E+04  1.36533E+03  1.14111E+04  7.57819E+03  7.99885E+03  1.49077E+04
 -3.80747E+03  1.74395E+04 -1.49110E+04  1.30341E+04 -1.90683E+04  2.36762E+03 -1.54443E+04 -6.16518E+03
 -7.44490E+03 -1.23629E+04 -1.94872E+01 -1.05345E+04  3.85867E+03 -5.72566E+03  3.93967E+03 -3.80518E+03
  2.69115E+03 -2.56582E+03  3.28108E+03 -3.55856E+03  4.98317E+03 -2.64693E+03  5.95133E+03 -6.68680E+02
  7.95221E+03  1.88774E+03  3.72329E+03  6.71815E+03 -2.38804E+03  7.41798E+03 -8.21556E+03  6.10356E+03
 -1.05960E+04 -1.28499E+03 -6.24293E+03 -7.49870E+03 -2.89745E+02 -1.11379E+04  5.98613E+03 -1.12039E+04
  1.11661E+04 -6.06501E+03  1.36901E+04  1.40934E+03  9.24886E+03  9.40226E+03  1.75352E+03  1.23976E+04
 -5.06495E+03  1.01205E+04 -7.53872E+03  3.74887E+03 -4.56674E+03 -1.54924E+03 -1.78217E+03 -1.40322E+03
 -1.11230E+03  7.28344E+01 -1.63914E+03  2.72869E+03 -4.47669E+03  1.81788E+03 -7.20182E+03 -1.14961E+03
 -4.76192E+03 -7.23576E+03 -3.70383E+01 -1.00437E+04  6.01964E+03 -8.96400E+03  9.97541E+03 -2.68960E+03
  9.93273E+03  4.88808E+03  4.59856E+03  8.62826E+03 -1.95037E+03  1.00555E+04 -6.99956E+03  6.19530E+03
 -9.44752E+03  7.08012E+02 -7.22594E+03 -5.69330E+03 -7.69854E+02 -7.92992E+03  4.09485E+03 -5.90310E+03
  5.93052E+03 -1.99128E+03  4.19580E+03  1.56045E+03  1.46528E+03  3.14556E+03  1.08522E+03  1.55437E+03
  2.25242E+03  5.70082E+02  2.61905E+03  1.55173E+03  3.08099E+03  3.49012E+03  2.59896E+03  4.86917E+03
 -2.29355E+03  7.47128E+03 -6.38631E+03  7.99691E+03 -9.24586E+03  2.34682E+03 -9.78804E+03 -3.27718E+03
 -4.51749E+03 -9.58623E+03  1.33029E+03 -1.08744E+04  5.41020E+03 -6.55118E+03  7.93923E+03 -1.70508E+03
  5.90853E+03  3.64271E+03  1.29540E+03  5.26919E+03 -1.95014E+03  3.56219E+03 -3.43165E+03 -4.59287E+02
 -1.74783E+03 -3.83679E+03  2.33447E+03 -4.36966E+03  4.08035E+03 -2.25972E+03  3.65390E+03  1.09008E+03
  1.85310E+03  1.96398E+03  1.17841E+03  1.35798E+03 -9.61559E+02  1.46727E+03  1.65795E+03 -2.85707E+02
  1.02229E+03 -7.54407E+02  4.38273E+03  1.60591E+03  2.18788E+03  5.49676E+03 -9.52851E+02  6.59465E+03
 -4.59233E+03  4.24668E+03 -5.91227E+03  9.43071E+02 -5.01330E+03 -2.11892E+03 -1.83029E+03 -3.31807E+03
  7.14714E+02 -3.30493E+03  2.78781E+03 -1.54861E+03  1.91874E+03  1.97668E+03 -1.15712E+03  2.91027E+03
 -4.08782E+03  1.69853E+03 -3.98003E+03 -2.33693E+03 -2.12938E+03 -4.90163E+03  9.53698E+02 -4.68518E+03
  2.33099E+03 -2.65490E+03  3.42747E+03 -4.69436E+02  2.89565E+03  1.17395E+03  4.42139E+02  2.95556E+03
 -1.65846E+03  7.43868E+02 -2.28157E+03 -1.09672E+03  8.51606E+02 -3.49685E+03  4.49562E+03 -2.92260E+03
  4.75811E+03  2.04063E+02  6.00182E+03  3.40662E+03  1.93399E+03  5.18638E+03 -1.67981E+03  5.26434E+03
 -4.38355E+03  2.04695E+03 -4.30971E+03 -1.04400E+03 -2.62105E+03 -3.96133E+03  5.74358E+02 -3.31225E+03
  3.64740E+03 -1.91322E+03  2.91877E+03  1.95953E+03  9.79927E+02  3.05235E+03 -1.47706E+02  2.80400E+03
 -1.18423E+03  1.96373E+03 -1.40274E+03  4.15566E+02 -5.59728E+02  5.13901E+02 -1.05886E+03  8.43018E+02
 -1.36457E+03  2.58578E+03 -4.31737E+03  1.49354E+03 -5.39224E+03  1.95293E+02 -6.32733E+03 -3.75667E+03
 -3.14504E+03 -7.13168E+03  1.43192E+03 -8.15848E+03  4.48167E+03 -6.37569E+03  7.64066E+03 -2.72213E+03
  7.01407E+03  6.44745E+02  4.46690E+03  5.04591E+03 -2.34267E+01  5.44516E+03 -2.32749E+03  3.72119E+03
 -3.10983E+03  1.45631E+03 -1.87791E+03 -9.04101E+02 -7.29558E+02 -2.95354E+02 -3.00104E+02 -2.74409E+02
 -1.66164E+03  4.38678E+01 -1.74513E+03 -2.16329E+02 -2.10710E+02 -1.29536E+03 -2.07728E+02 -2.03453E+03
  2.99760E+03 -2.02773E+03  2.85391E+03  5.90569E+01  3.48534E+03  3.04738E+03  7.00771E+02  5.00337E+03
 -2.53187E+03  6.26385E+03 -5.48406E+03  3.54776E+03 -6.41532E+03 -2.05048E+02 -4.62667E+03 -3.86832E+03
 -2.30350E+03 -4.78334E+03  1.31129E+03 -4.86693E+03  2.73945E+03 -2.56237E+03  3.11224E+03  3.52327E+01
  1.87477E+03  1.27836E+03 -9.49235E+01  1.47935E+03 -1.22918E+03 -1.78515E+02 -3.70484E+01 -8.70000E+02
  1.26299E+03 -3.56687E+02  1.85916E+03  9.10997E+02  8.51541E+02  1.49478E+03  2.20400E+02  1.98205E+03
 -1.91456E+03  2.21317E+03 -2.70720E+03  4.27847E+02 -3.01918E+03 -2.21997E+03 -2.87631E+02 -4.09684E+03
  2.53203E+03 -3.18040E+03  3.61890E+03 -9.05173E+02  3.50581E+03  6.15880E+02  1.99928E+03  3.05944E+03
  5.86284E+02  2.81121E+03 -1.43845E+03  2.99355E+03 -1.95722E+03  1.68689E+03 -1.57085E+03  5.59414E+02
 -7.48253E+02 -2.49578E+02 -1.10501E+03  4.97132E+02 -1.61423E+03  4.87971E+02 -2.69477E+03 -6.57964E+02
 -2.52532E+03 -1.32542E+03 -8.44053E+02 -3.23564E+03  1.84699E+03 -3.45481E+03  2.92830E+03 -1.85919E+03
  3.01688E+03  1.55896E+02  1.11391E+03  2.10068E+03 -1.85025E+02  2.86802E+03 -2.28260E+03  2.19266E+03
