 $NMID ID='MM_0lb_SNR800_19hz_g55_2.RAW', FMTDAT='(8E13.5)'
 TRAMP=1., VOLUME=1. $END
  3.09963E+05  3.67708E+02  3.37250E+05  2.50571E+05  8.46275E+04  3.37603E+05 -1.32515E+05  2.50457E+05
 -1.89886E+05  8.26147E+04 -1.11184E+05 -3.24813E+04  1.26664E+03 -5.03381E+04  5.38235E+04  9.38079E+01
  3.50489E+04  5.28398E+04 -1.69634E+04  7.48855E+04 -6.04405E+04  6.31114E+04 -8.33329E+04  3.18024E+04
 -8.00968E+04 -1.11555E+04 -5.64087E+04 -5.05238E+04 -1.49874E+04 -6.85076E+04  2.68680E+04 -4.47772E+04
  3.96243E+04  3.87751E+03  1.56244E+04  4.75052E+04 -3.38875E+04  4.65880E+04 -6.56575E+04 -6.02573E+02
 -5.23451E+04 -5.62245E+04 -6.51348E+03 -7.59492E+04  3.34660E+04 -5.36937E+04  4.67586E+04 -1.66440E+04
  4.22647E+04  1.09897E+04  3.08931E+04  2.45469E+04  1.59786E+04  2.85556E+04 -4.79273E+03  2.69143E+04
 -2.20342E+04  1.25048E+04 -1.91332E+04 -4.37460E+03  4.80759E+03 -7.72515E+03  2.13706E+04  1.14871E+04
  7.21142E+03  3.40808E+04 -3.08735E+04  3.45596E+04 -6.16265E+04  2.37017E+03 -5.57558E+04 -4.18665E+04
 -1.24143E+04 -6.11145E+04  3.84394E+04 -4.38203E+04  5.64752E+04 -2.29311E+03  3.25427E+04  3.14890E+04
 -6.06194E+03  3.40432E+04 -2.87714E+04  1.40924E+04 -2.82894E+04 -5.32314E+03 -1.51618E+04 -1.04107E+04
 -7.45950E+03 -1.21100E+04 -1.04149E+03 -1.68799E+04  6.82889E+03 -2.23799E+04  1.52764E+04 -1.39405E+04
  1.19390E+04  4.61920E+03 -6.55537E+03  1.31649E+04 -1.98740E+04 -3.08464E+03 -8.31330E+03 -3.09476E+04
  2.14034E+04 -4.09161E+04  4.55422E+04 -1.87262E+04  4.26855E+04  1.87207E+04  1.48117E+04  4.21751E+04
 -1.55785E+04  3.14865E+04 -2.36959E+04  1.23048E+03 -8.37064E+03 -2.70434E+04  2.06776E+04 -3.17172E+04
  3.86702E+04 -7.56003E+03  3.25249E+04  2.30488E+04  1.59828E+04  4.32551E+04 -7.78883E+03  4.64414E+04
 -2.87628E+04  3.07926E+04 -3.82247E+04  8.27721E+03 -3.91850E+04 -1.55650E+04 -2.16158E+04 -3.50674E+04
  6.80871E+03 -3.45540E+04  2.97981E+04 -1.29620E+04  2.72738E+04  1.08135E+04  3.43208E+03  1.79170E+04
 -1.31266E+04  7.53032E+03 -9.85274E+03 -7.71844E+03  5.88673E+03 -1.01928E+04  1.72957E+04  6.42387E+03
  1.22750E+04  2.18155E+04 -6.58225E+03  2.33127E+04 -2.15921E+04  9.55005E+03 -2.57668E+04 -6.07508E+03
 -1.76190E+04 -1.67088E+04 -6.14484E+03 -1.75989E+04  3.70936E+03 -1.56544E+04  1.26075E+04 -1.49583E+04
  2.19544E+04 -1.17468E+04  2.87781E+04  1.39765E+03  2.17052E+04  1.69558E+04  4.07517E+03  3.32080E+04
 -1.63511E+04  2.80294E+04 -2.61165E+04  9.85636E+03 -2.01029E+04 -1.03448E+04 -4.07799E+03 -1.37710E+04
  2.44467E+03 -3.76742E+03 -2.76648E+03  5.44041E+03 -1.33210E+04  5.22438E+03 -1.34400E+04 -5.38601E+03
 -8.96195E+03 -1.60654E+04  4.32319E+03 -1.98149E+04  1.29837E+04 -1.41788E+04  1.51714E+04 -1.63298E+03
  9.13121E+03  1.13637E+04 -7.38338E+02  1.61627E+04 -1.03947E+04  9.03810E+03 -1.56895E+04 -3.54927E+03
 -1.19134E+04 -1.45704E+04 -1.51318E+03 -1.91849E+04  8.73352E+03 -1.54662E+04  1.64961E+04 -7.52429E+03
  1.49411E+04  6.35923E+02  1.07398E+04  4.06367E+03  5.39005E+03  7.73689E+02  7.81132E+03 -1.44921E+03
  1.42833E+04  2.56515E+03  1.53279E+04  1.30126E+04  9.53226E+03  2.53972E+04 -2.83379E+03  2.74118E+04
 -1.64727E+04  2.08569E+04 -2.49753E+04  1.00565E+04 -2.59507E+04 -1.86054E+03 -2.19063E+04 -1.46524E+04
 -1.01477E+04 -2.12877E+04  7.09568E+03 -1.94881E+04  1.69806E+04 -1.09520E+04  1.58960E+04  4.01759E+03
  6.69274E+03  1.15047E+04 -7.28696E+03  1.02943E+04 -1.34920E+04  2.61275E+03 -1.05347E+04 -8.07026E+03
  2.12348E+02 -1.27745E+04  6.38976E+03 -9.35521E+03  7.88305E+03 -1.53806E+03  1.57561E+03  5.16532E+03
 -5.67580E+03  1.46108E+03 -3.62884E+03 -4.55496E+03  4.98020E+02 -1.07667E+04  7.73148E+03 -1.02882E+04
  1.26586E+04 -5.12017E+03  1.25912E+04  2.98970E+03  1.06297E+04  9.84375E+03  5.12483E+03  1.46175E+04
 -1.74491E+03  1.61461E+04 -9.88164E+03  1.01946E+04 -1.14737E+04  3.12580E+03 -8.38513E+03 -1.90662E+03
 -4.75489E+03 -3.38290E+03 -8.18481E+02  1.35147E+03 -2.08581E+03  2.19895E+03 -3.66315E+03  3.73441E+03
 -8.26822E+03 -4.86615E+02 -9.08732E+03 -7.15683E+03 -3.50758E+03 -1.16940E+04  3.61608E+03 -8.94060E+03
  7.35853E+03 -3.84634E+03  5.29953E+03  2.42694E+03  5.42078E+02  2.98315E+03 -3.72459E+03 -1.88479E+02
 -3.83432E+03 -5.33998E+03 -8.12898E+02 -7.30668E+03  4.15830E+03 -8.03373E+03  9.81203E+03 -3.93850E+03
  1.19583E+04  5.14181E+02  8.68532E+03  6.53670E+03  1.56539E+03  8.79641E+03 -5.34077E+03  8.61627E+03
 -7.06969E+03  2.76544E+03 -3.58266E+03 -1.29536E+03  1.26715E+03 -1.91108E+03  4.92026E+03 -9.75152E+02
  3.80686E+03  3.37631E+03  1.03266E+03  6.27028E+03 -4.54556E+03  6.47399E+03 -7.82193E+03  1.84068E+03
 -4.97180E+03 -3.67048E+03  2.63038E+02 -6.61708E+03  3.69380E+03 -3.38164E+03  3.67882E+03  1.34731E+03
  2.30344E+02  3.24651E+03 -3.84860E+03  4.61546E+03 -4.65821E+03  2.13492E+03 -4.22345E+03 -9.42271E+02
 -2.97205E+03 -5.77855E+03  1.42444E+03 -6.91699E+03  6.06653E+03 -4.90348E+03  6.29323E+03  9.98666E+02
  4.54323E+03  5.44318E+03  2.90952E+01  7.23276E+03 -5.12454E+03  4.38474E+03 -5.29802E+03 -5.61768E+02
 -5.80133E+03 -5.11225E+03 -1.54419E+03 -4.89951E+03  2.71157E+03 -4.44453E+03  2.93718E+03 -2.68556E+03
  2.68690E+03  4.55724E+01  6.39249E+01  1.20906E+03  5.98365E+02 -1.10184E+02  3.37574E+02 -1.89001E+03
  3.79133E+03 -7.48222E+02  5.25155E+03  7.53035E+02  5.71263E+03  3.17674E+03  5.14702E+03  7.33551E+03
 -1.36267E+03  8.53829E+03 -7.50689E+03  6.46769E+03 -1.00422E+04  1.00153E+03 -7.80884E+03 -2.61477E+03
 -4.41390E+03 -6.16613E+03 -2.85474E+02 -5.24289E+03  2.17719E+03 -2.29048E+03  1.79140E+03 -1.98841E+03
  1.04998E+03 -1.54567E+03  2.05475E+03 -2.42559E+03  3.23721E+03 -1.50391E+03  3.58268E+03  4.65742E+02
  4.55295E+03  1.20713E+03  9.51670E+02  3.32460E+03 -1.31672E+03  2.77827E+03 -4.41468E+03  2.42864E+03
 -4.72129E+03 -1.10834E+03 -1.73593E+03 -3.54011E+03  2.76280E+02 -4.65385E+03  3.15080E+03 -5.25183E+03
  4.91535E+03 -2.98282E+03  6.37912E+03  6.75404E+01  4.81348E+03  3.94070E+03  1.07682E+03  5.83344E+03
 -2.03762E+03  5.70781E+03 -3.35344E+03  2.08524E+03 -1.97302E+03 -6.55519E+02 -4.01630E+02 -3.94334E+02
 -3.66058E+02  6.51417E+02 -1.15344E+03  1.96865E+03 -2.48352E+03  1.10689E+03 -3.92166E+03 -4.79673E+02
 -1.54306E+03 -3.99529E+03  1.02529E+03 -4.52661E+03  2.76344E+03 -3.97235E+03  3.49185E+03 -1.09420E+03
  3.89393E+03  2.18082E+03  1.65661E+03  2.99816E+03 -8.97573E+02  4.26753E+03 -2.43908E+03  2.63258E+03
 -3.53208E+03  7.11687E+02 -3.30082E+03 -2.36758E+03  8.70558E+00 -3.07921E+03  1.44823E+03 -2.09517E+03
  2.70243E+03 -1.25501E+03  1.62073E+03  4.16100E+02  3.62826E+02  1.28959E+03  1.04908E+03  2.92004E+02
  1.69796E+03  7.01943E+02  1.16032E+03  8.98650E+02  1.11545E+03  1.85992E+03  1.46189E+03  1.64164E+03
 -1.43132E+03  2.76231E+03 -2.41821E+03  3.92981E+03 -2.91783E+03  1.33924E+03 -3.95973E+03 -2.20051E+02
 -1.61416E+03 -3.33811E+03  6.38545E+02 -4.25418E+03  1.70216E+03 -2.56013E+03  2.89037E+03 -9.25723E+02
  2.37682E+03  1.69693E+03  3.13301E+02  2.31408E+03 -7.31632E+02  1.36422E+03 -7.99793E+02 -7.14991E+01
 -5.07753E+02 -1.36994E+03  1.53704E+03 -1.66648E+03  8.48144E+02 -9.81230E+02  1.00021E+03  4.18297E+02
  3.65707E+02  3.76209E+02  5.29226E+02 -6.24789E+02 -3.02621E+02  7.82965E+02  1.62904E+03 -3.81519E+02
 -1.08666E+02 -2.49570E+02  1.78124E+03  5.57751E+02  1.94417E+02  2.08759E+03 -5.92527E+01  2.82022E+03
 -1.45435E+03  1.16406E+03 -1.63311E+03  4.64032E+02 -1.83978E+03 -7.03454E+02 -2.57841E+02 -6.33553E+02
  3.96965E+02 -1.04326E+03  7.60191E+02 -1.16618E+03  5.09735E+02  9.19850E+02 -6.84887E+02  7.62204E+02
 -8.68843E+02  8.06144E+02 -1.22528E+03 -1.29386E+03 -5.42819E+02 -1.78368E+03  2.42786E+02 -1.45841E+03
  4.25906E+02 -6.17078E+02  8.95758E+02  2.37368E+02  8.76454E+02 -3.00676E+02  2.87603E+02  1.14784E+03
 -3.33034E+02 -3.46820E+01 -7.15434E+02 -3.07043E+02  5.59952E+02 -1.11863E+03  1.37822E+03 -6.11626E+02
  1.17473E+03  2.23775E+02  2.48372E+03  5.27351E+02  1.28191E+03  1.13936E+03 -2.36501E+02  1.68334E+03
 -1.26291E+03  2.73245E+02 -1.09977E+03 -8.19363E+01 -9.61890E+02 -1.40621E+03  4.09616E+02 -4.70753E+02
  1.32575E+03 -5.16334E+02  6.11839E+02  7.35806E+02 -1.12851E+02  1.38388E+03  4.07979E+02  1.13625E+03
 -4.16794E+02  1.30483E+03 -6.91600E+02 -5.32178E+01  2.85751E+01  4.52258E+02 -7.32353E+02  4.75003E+02
 -6.44354E+02  9.18562E+02 -1.53861E+03  5.95951E+02 -1.51298E+03  1.65123E+02 -2.31429E+03 -9.04211E+02
 -8.11392E+02 -2.02471E+03  5.06312E+02 -2.19187E+03  9.40540E+02 -2.28347E+03  2.55891E+03 -1.04473E+03
  2.17582E+03 -1.52983E+02  1.25030E+03  1.41881E+03 -5.32543E+02  1.05544E+03 -4.09527E+02  7.03971E+02
 -7.78439E+02  8.45961E+02 -3.21017E+02 -3.04865E+02 -3.83270E+02  3.60748E+02 -3.22578E+02 -5.83104E+01
 -1.19069E+03 -6.70397E+01 -9.29747E+02 -8.35410E+00  2.01840E+02 -5.99007E+02 -1.79071E+02 -6.57958E+02
  1.02761E+03 -7.12186E+02  1.28961E+02  4.07518E+02  7.89606E+02  8.47457E+02 -6.17772E+02  1.00239E+03
 -8.31398E+02  1.99176E+03 -1.70235E+03  1.13268E+03 -1.47179E+03 -1.41424E+02 -1.06562E+03 -8.73845E+02
 -9.38174E+02 -9.26292E+02  8.03876E+01 -9.54327E+02  3.34827E+02 -3.32146E+02  6.34498E+02 -1.08092E+02
  6.51878E+02  4.75905E+01  3.68778E+02  2.73273E+02 -1.88725E+02 -2.17422E+02 -1.07480E+02 -1.17552E+01
  5.92549E+02  1.74818E+02  2.27675E+02  6.11195E+02 -1.08136E+02  2.85495E+02  7.33083E+02 -6.11528E+01
 -2.77471E+02  5.88853E+02 -5.18832E+02  6.39997E+01 -6.63455E+02 -3.04917E+02  1.11720E+02 -1.01239E+03
  4.47558E+02 -4.18090E+02  2.41993E+02 -8.81081E+01  1.07937E+03 -8.36145E+02  1.18252E+02  7.57297E+02
  3.46327E+02  9.12630E+01 -1.84507E+01  4.35555E+02 -3.29709E+02  6.47762E+02 -2.19927E+02  2.03490E+02
 -3.17424E+02 -3.49234E+02 -5.98080E+02  3.97673E+02 -4.35684E+02  2.30533E+02 -6.04350E+02 -2.63339E+02
 -7.53221E+02  2.72378E+02 -4.43228E+02 -9.42014E+02  5.07160E+02 -1.36658E+03  5.13216E+02  4.18705E+01
  6.51952E+02  9.78933E+01 -5.71205E+02  1.78889E+02 -3.88210E+01  7.59518E+02 -1.71517E+02  2.41451E+02
