 $NMID ID='MM_0lb_SNR800_17hz_g50_88.RAW', FMTDAT='(8E13.5)'
 TRAMP=1., VOLUME=1. $END
  3.09772E+05  5.66738E+02  3.37390E+05  2.50409E+05  8.45448E+04  3.37771E+05 -1.32645E+05  2.50470E+05
 -1.89752E+05  8.29364E+04 -1.11055E+05 -3.31040E+04  1.41953E+03 -5.01689E+04  5.40670E+04 -1.65751E+02
  3.52606E+04  5.29846E+04 -1.69402E+04  7.51977E+04 -6.03197E+04  6.32951E+04 -8.35437E+04  3.18724E+04
 -8.02005E+04 -1.13577E+04 -5.65629E+04 -5.04783E+04 -1.49416E+04 -6.87599E+04  2.71971E+04 -4.54098E+04
  3.95905E+04  4.13208E+03  1.58265E+04  4.72726E+04 -3.41954E+04  4.68711E+04 -6.62980E+04 -5.85423E+02
 -5.25532E+04 -5.64575E+04 -6.55200E+03 -7.58963E+04  3.35133E+04 -5.41797E+04  4.67991E+04 -1.64629E+04
  4.24645E+04  1.11451E+04  3.12616E+04  2.51109E+04  1.59835E+04  2.86457E+04 -4.72317E+03  2.72181E+04
 -2.19745E+04  1.30322E+04 -1.88576E+04 -4.77974E+03  4.95524E+03 -7.26428E+03  2.15113E+04  1.15147E+04
  7.28657E+03  3.39324E+04 -3.13360E+04  3.44112E+04 -6.21250E+04  2.03963E+03 -5.61640E+04 -4.15650E+04
 -1.22443E+04 -6.21275E+04  3.88723E+04 -4.41078E+04  5.67698E+04 -2.17690E+03  3.28386E+04  3.14046E+04
 -6.37404E+03  3.43653E+04 -2.90739E+04  1.44538E+04 -2.87866E+04 -4.95694E+03 -1.54832E+04 -1.03519E+04
 -7.83982E+03 -1.22868E+04 -1.00890E+03 -1.75816E+04  7.31758E+03 -2.26933E+04  1.52679E+04 -1.38963E+04
  1.16607E+04  4.41632E+03 -7.21763E+03  1.32111E+04 -2.02928E+04 -3.16108E+03 -8.10953E+03 -3.19358E+04
  2.18089E+04 -4.17895E+04  4.57524E+04 -1.88353E+04  4.33043E+04  1.85465E+04  1.48828E+04  4.28353E+04
 -1.57404E+04  3.19261E+04 -2.40211E+04  1.51305E+03 -8.86800E+03 -2.70138E+04  2.07312E+04 -3.24567E+04
  3.92405E+04 -8.28713E+03  3.29914E+04  2.32656E+04  1.67576E+04  4.42592E+04 -7.76418E+03  4.75282E+04
 -2.96670E+04  3.15110E+04 -3.93187E+04  8.73221E+03 -4.00393E+04 -1.57483E+04 -2.19336E+04 -3.59178E+04
  6.80224E+03 -3.55148E+04  3.03184E+04 -1.35399E+04  2.80161E+04  1.09214E+04  3.32277E+03  1.80192E+04
 -1.35088E+04  7.56139E+03 -9.77414E+03 -7.22804E+03  6.02530E+03 -1.04501E+04  1.74981E+04  6.09037E+03
  1.25765E+04  2.17786E+04 -6.46992E+03  2.39069E+04 -2.17121E+04  1.02616E+04 -2.64303E+04 -5.68938E+03
 -1.82181E+04 -1.68042E+04 -6.81177E+03 -1.81949E+04  3.86981E+03 -1.65173E+04  1.36278E+04 -1.57154E+04
  2.31012E+04 -1.21705E+04  2.97107E+04  1.97557E+03  2.20705E+04  1.79470E+04  4.25473E+03  3.40241E+04
 -1.65485E+04  2.84378E+04 -2.65461E+04  1.01339E+04 -2.01440E+04 -1.03753E+04 -4.16614E+03 -1.37656E+04
  2.38660E+03 -3.72983E+03 -3.68340E+03  6.11989E+03 -1.41289E+04  5.19701E+03 -1.45219E+04 -5.87546E+03
 -9.15586E+03 -1.66933E+04  4.69183E+03 -2.06949E+04  1.36561E+04 -1.51796E+04  1.62064E+04 -1.40538E+03
  1.00235E+04  1.17856E+04 -8.57160E+02  1.73982E+04 -1.14897E+04  9.55701E+03 -1.66730E+04 -3.63339E+03
 -1.24996E+04 -1.52240E+04 -1.63452E+03 -2.06316E+04  9.29434E+03 -1.68143E+04  1.72708E+04 -7.93483E+03
  1.57005E+04  5.07199E+02  1.13784E+04  4.18453E+03  6.00334E+03  1.12853E+03  8.11998E+03 -1.34089E+03
  1.50453E+04  2.69713E+03  1.67493E+04  1.37357E+04  1.01134E+04  2.66255E+04 -3.01152E+03  2.93576E+04
 -1.70128E+04  2.31230E+04 -2.73579E+04  1.13055E+04 -2.81901E+04 -2.21813E+03 -2.38744E+04 -1.61705E+04
 -1.04990E+04 -2.30777E+04  7.88139E+03 -2.13076E+04  1.84644E+04 -1.14377E+04  1.66507E+04  4.42625E+03
  6.78449E+03  1.24231E+04 -7.48950E+03  1.10521E+04 -1.44841E+04  2.33337E+03 -1.10451E+04 -8.85625E+03
  2.24233E+02 -1.34728E+04  6.61462E+03 -9.91348E+03  8.76209E+03 -1.45882E+03  1.80170E+03  5.45433E+03
 -5.78981E+03  1.96663E+03 -4.76257E+03 -4.92283E+03  4.10702E+01 -1.12611E+04  8.22670E+03 -1.16744E+04
  1.38350E+04 -5.66444E+03  1.39430E+04  3.02993E+03  1.23288E+04  1.07854E+04  5.59744E+03  1.63962E+04
 -2.18577E+03  1.81008E+04 -1.10781E+04  1.17367E+04 -1.27939E+04  2.95318E+03 -9.43628E+03 -2.42906E+03
 -4.50282E+03 -3.63621E+03 -8.08431E+02  1.17308E+03 -1.93646E+03  2.28056E+03 -4.33259E+03  3.73454E+03
 -8.91287E+03 -7.02616E+02 -9.67002E+03 -7.78021E+03 -3.83735E+03 -1.27329E+04  3.70013E+03 -9.35759E+03
  8.32030E+03 -4.13825E+03  5.61143E+03  2.08242E+03  3.33844E+02  3.66346E+03 -4.13015E+03  9.31873E+01
 -3.87073E+03 -5.93411E+03 -9.83107E+02 -8.37928E+03  4.69813E+03 -9.00243E+03  1.10887E+04 -4.72465E+03
  1.35158E+04  6.76918E+02  1.00357E+04  7.54988E+03  1.69653E+03  1.03345E+04 -5.98023E+03  9.43650E+03
 -7.68089E+03  3.23405E+03 -3.83992E+03 -1.64395E+03  1.32626E+03 -2.21287E+03  5.09952E+03 -1.01160E+03
  4.67083E+03  3.74216E+03  1.24893E+03  7.34112E+03 -5.04258E+03  7.29543E+03 -9.00737E+03  1.74786E+03
 -5.54561E+03 -4.19009E+03  3.34364E+02 -7.69507E+03  4.33214E+03 -4.21417E+03  3.97774E+03  1.41321E+03
  8.89235E+02  4.21891E+03 -4.60628E+03  5.58340E+03 -5.99243E+03  2.85077E+03 -5.59568E+03 -1.82911E+03
 -3.52733E+03 -7.25204E+03  1.38067E+03 -8.23002E+03  7.10855E+03 -5.62308E+03  7.73664E+03  1.37094E+03
  5.42513E+03  6.54161E+03 -1.30253E+02  8.26603E+03 -5.66959E+03  5.02591E+03 -6.30617E+03 -4.09535E+02
 -6.29274E+03 -5.89052E+03 -1.82769E+03 -5.84029E+03  2.89841E+03 -5.59645E+03  3.63181E+03 -2.89072E+03
  3.25085E+03  3.05452E+02 -1.81995E+02  1.11818E+03  2.24884E+02 -5.83980E+02  4.52406E+02 -2.47450E+03
  4.89547E+03 -1.25231E+03  6.20898E+03  7.24844E+02  6.68912E+03  3.95787E+03  5.75118E+03  8.59802E+03
 -1.38616E+03  1.05927E+04 -9.19874E+03  8.01059E+03 -1.17282E+04  1.49115E+03 -9.22141E+03 -3.42619E+03
 -4.95028E+03 -7.41656E+03 -3.39444E+02 -6.30178E+03  2.63853E+03 -2.82941E+03  1.94336E+03 -2.36218E+03
  1.48734E+03 -1.61879E+03  2.19979E+03 -2.67862E+03  3.91819E+03 -1.46998E+03  4.14486E+03 -1.17554E+02
  5.26607E+03  1.40365E+03  1.66682E+03  4.05800E+03 -1.78093E+03  3.59085E+03 -5.46963E+03  3.36580E+03
 -5.83418E+03 -1.12024E+03 -2.75035E+03 -4.11079E+03  9.82595E-01 -6.10079E+03  3.69932E+03 -6.16884E+03
  6.27563E+03 -3.86393E+03  7.91093E+03  2.72186E+02  5.91387E+03  5.24388E+03  1.34218E+03  7.28726E+03
 -2.97202E+03  6.72369E+03 -3.95188E+03  2.01572E+03 -2.52829E+03 -7.78531E+02 -7.08054E+02 -5.35302E+02
 -5.46862E+02  3.56439E+02 -1.18455E+03  2.38682E+03 -2.68673E+03  1.34140E+03 -4.59010E+03 -4.45505E+02
 -2.29583E+03 -4.59064E+03  8.85104E+02 -5.65771E+03  3.49505E+03 -5.38309E+03  4.69777E+03 -1.14966E+03
  4.86984E+03  2.71911E+03  2.37579E+03  4.56142E+03 -9.81753E+02  5.61067E+03 -3.51451E+03  3.45979E+03
 -4.68054E+03  7.29048E+02 -4.17785E+03 -2.94603E+03 -1.63192E+02 -4.12946E+03  1.95938E+03 -3.26286E+03
  3.34406E+03 -1.72705E+03  1.91035E+03  8.99651E+02  4.94689E+02  1.69996E+03  7.41939E+02  8.54956E+02
  1.66919E+03  7.92880E+02  1.19312E+03  1.42874E+03  1.37659E+03  2.72399E+03  1.76769E+03  2.29674E+03
 -1.27717E+03  4.14879E+03 -3.15977E+03  4.80406E+03 -4.09370E+03  1.56534E+03 -5.45727E+03 -6.80298E+02
 -1.97270E+03 -4.67199E+03  8.16964E+02 -5.65135E+03  2.64665E+03 -3.27647E+03  3.82916E+03 -1.25819E+03
  2.85254E+03  2.39004E+03  2.66343E+02  2.82002E+03 -1.09775E+03  1.78634E+03 -1.50492E+03 -1.66263E+02
 -1.16571E+03 -2.16641E+03  1.43155E+03 -1.99790E+03  1.66607E+03 -1.08002E+03  1.68751E+03  2.90945E+02
  9.11705E+02  4.27605E+02  8.40890E+02 -6.16685E+00 -4.89587E+02  7.59520E+02  1.71238E+03 -3.37959E+02
  4.88960E+02 -2.20535E+02  2.00859E+03  8.12477E+02  6.12412E+02  2.73370E+03 -3.30908E+02  3.73994E+03
 -1.96962E+03  1.55301E+03 -2.86742E+03  5.50545E+02 -2.74643E+03 -7.87636E+02 -3.57463E+02 -1.44814E+03
  3.28508E+02 -1.82287E+03  9.83419E+02 -1.25640E+03  6.35853E+02  1.50927E+03 -8.15879E+02  1.40460E+03
 -2.01693E+03  6.95817E+02 -1.73712E+03 -1.46128E+03 -1.12510E+03 -2.67029E+03  5.64388E+02 -2.31254E+03
  7.85998E+02 -6.82979E+02  1.30711E+03  5.75032E+01  1.41724E+03  5.96643E+01  1.74898E+02  1.18064E+03
 -8.27257E+02 -5.20770E+01 -1.17122E+03 -7.23481E+02  7.17475E+02 -1.33851E+03  2.06324E+03 -1.22961E+03
  1.89822E+03  2.78288E+02  2.97342E+03  1.02072E+03  1.24010E+03  2.30917E+03 -4.62411E+02  2.60251E+03
 -1.97238E+03  3.93784E+02 -1.69685E+03 -8.15981E+01 -1.06078E+03 -1.83566E+03  5.44780E+02 -9.27622E+02
  1.63322E+03 -9.48785E+02  1.10317E+03  1.12808E+03  5.69828E+01  1.70204E+03  1.39999E+02  1.49756E+03
 -4.99964E+02  1.21872E+03 -5.50383E+02  2.42547E+02 -2.52256E+02  5.06126E+02 -1.02981E+03  5.44262E+02
 -7.87051E+02  1.19426E+03 -1.95330E+03  8.32665E+02 -2.28314E+03  2.53476E+02 -2.78762E+03 -1.12607E+03
 -1.61388E+03 -3.23094E+03  8.00466E+02 -3.63664E+03  1.50175E+03 -2.99398E+03  3.56011E+03 -1.07112E+03
  3.06106E+03  2.52275E+01  1.92645E+03  2.16831E+03 -3.26590E+02  1.75403E+03 -1.06676E+03  1.77071E+03
 -1.24138E+03  9.95982E+02 -7.48318E+02 -2.39754E+02 -5.17429E+02  3.87246E+01 -9.67826E+02  2.36698E+01
 -1.34909E+03 -2.71140E+02 -9.14203E+02 -1.52745E+02  3.37741E+02 -5.56849E+02 -3.86164E+02 -1.19841E+03
  1.56683E+03 -7.92855E+02  9.73441E+02  2.79928E+02  1.55462E+03  1.54570E+03 -3.63901E+02  2.00301E+03
 -1.10571E+03  2.84729E+03 -2.50912E+03  1.78270E+03 -2.47480E+03 -2.97227E+02 -1.82075E+03 -1.57621E+03
 -1.16368E+03 -2.17785E+03  3.21016E+01 -1.97574E+03  8.06037E+02 -8.32082E+02  1.10665E+03  3.39634E+02
  1.14696E+03  1.89470E+02  8.34695E-01  6.27221E+02 -6.62126E+02  1.22092E+02 -7.46320E+01 -4.44669E+02
  5.61611E+02  3.16415E+02  5.09069E+02  1.36517E+02  2.49461E+02  5.43604E+02  3.22254E+02  6.68594E+02
 -7.96411E+02  7.69364E+02 -1.17504E+03  4.03259E+01 -1.37711E+03 -7.24466E+02  9.14016E+01 -1.60471E+03
  9.84144E+02 -9.95638E+02  9.65352E+02 -4.25586E+01  1.36296E+03 -3.14426E+02  7.62674E+02  1.13847E+03
  4.62002E+02  1.01249E+03 -4.21416E+02  8.14541E+02 -8.03384E+02  8.21944E+02 -7.62029E+02  4.81688E+02
 -2.10798E+02 -3.27163E+02 -6.86314E+02  1.59041E+02 -8.91291E+02  2.90853E+02 -8.35876E+02 -4.82582E+02
 -1.28257E+03  8.89077E+01 -4.48937E+02 -1.17950E+03  6.46366E+02 -1.72998E+03  1.06528E+03 -3.00909E+02
  1.07572E+03  2.36938E+02 -1.78138E+02  5.20010E+02 -4.08719E+01  1.34987E+03 -6.41320E+02  1.14858E+03
