 $NMID ID='MM_0lb_SNR800_9hz_g40_75.RAW', FMTDAT='(8E13.5)'
 TRAMP=1., VOLUME=1. $END
  3.10018E+05  6.83550E+02  3.37895E+05  2.50536E+05  8.48418E+04  3.38594E+05 -1.32562E+05  2.51912E+05
 -1.90859E+05  8.39475E+04 -1.12362E+05 -3.22800E+04  6.22171E+02 -5.05804E+04  5.40706E+04 -4.10836E+02
  3.54059E+04  5.24581E+04 -1.67005E+04  7.58381E+04 -6.10683E+04  6.45122E+04 -8.47358E+04  3.24887E+04
 -8.24079E+04 -1.18675E+04 -5.81779E+04 -5.21398E+04 -1.53253E+04 -7.08953E+04  2.78152E+04 -4.67118E+04
  4.06463E+04  3.73123E+03  1.64205E+04  4.84542E+04 -3.50430E+04  4.80723E+04 -6.77416E+04  1.09798E+01
 -5.47031E+04 -5.77044E+04 -7.37895E+03 -7.85690E+04  3.48692E+04 -5.65450E+04  4.92341E+04 -1.77679E+04
  4.49258E+04  1.14032E+04  3.26571E+04  2.64392E+04  1.58304E+04  3.02947E+04 -5.81928E+03  2.77905E+04
 -2.25759E+04  1.20690E+04 -1.83864E+04 -5.93804E+03  6.47303E+03 -7.58159E+03  2.31673E+04  1.33232E+04
  6.92397E+03  3.69379E+04 -3.33890E+04  3.66341E+04 -6.55394E+04  2.46766E+03 -5.89631E+04 -4.44172E+04
 -1.24767E+04 -6.50644E+04  4.14241E+04 -4.72130E+04  6.08426E+04 -2.08005E+03  3.62815E+04  3.38843E+04
 -5.82453E+03  3.86604E+04 -3.12179E+04  1.81384E+04 -3.31361E+04 -3.54437E+03 -1.89339E+04 -1.18642E+04
 -9.19668E+03 -1.48323E+04 -5.86954E+02 -1.94205E+04  8.59775E+03 -2.33592E+04  1.57899E+04 -1.28914E+04
  1.05072E+04  5.86210E+03 -9.81691E+03  1.28090E+04 -2.29527E+04 -6.23592E+03 -8.43683E+03 -3.67657E+04
  2.47509E+04 -4.60999E+04  5.12548E+04 -2.04628E+04  4.80616E+04  2.06982E+04  1.69864E+04  4.68029E+04
 -1.64300E+04  3.59471E+04 -2.71983E+04  2.67197E+03 -1.09768E+04 -2.87946E+04  2.15290E+04 -3.66130E+04
  4.37256E+04 -1.06093E+04  3.93348E+04  2.42705E+04  2.04648E+04  4.98534E+04 -8.25359E+03  5.46485E+04
 -3.49260E+04  3.72724E+04 -4.63077E+04  1.09329E+04 -4.69044E+04 -1.81338E+04 -2.57134E+04 -4.13854E+04
  7.94483E+03 -4.10524E+04  3.36124E+04 -1.65526E+04  3.14263E+04  1.13150E+04  5.35711E+03  2.02596E+04
 -1.34031E+04  9.49746E+03 -1.11703E+04 -7.45791E+03  5.85487E+03 -1.14541E+04  1.84472E+04  5.74487E+03
  1.46845E+04  2.23904E+04 -5.42007E+03  2.64673E+04 -2.31559E+04  1.39469E+04 -3.10559E+04 -3.16437E+03
 -2.41856E+04 -1.80854E+04 -1.11115E+04 -2.38391E+04  3.88678E+03 -2.48573E+04  1.90998E+04 -2.24318E+04
  3.09872E+04 -1.40695E+04  3.69169E+04  4.55054E+03  2.62527E+04  2.37994E+04  4.41572E+03  3.99518E+04
 -1.96627E+04  3.30921E+04 -3.00153E+04  1.12244E+04 -2.23950E+04 -1.03274E+04 -4.57631E+03 -1.32001E+04
  1.04758E+03 -1.24474E+03 -6.93928E+03  8.00230E+03 -1.93912E+04  4.92694E+03 -2.00409E+04 -9.22173E+03
 -1.20759E+04 -2.27885E+04  6.40722E+03 -2.67790E+04  1.79314E+04 -1.93615E+04  2.17528E+04 -1.46383E+03
  1.41729E+04  1.57739E+04 -1.06926E+03  2.24496E+04 -1.60236E+04  1.30683E+04 -2.26314E+04 -4.88433E+03
 -1.66728E+04 -2.03461E+04 -2.02972E+03 -2.74464E+04  1.19069E+04 -2.25056E+04  2.27258E+04 -1.15993E+04
  2.14138E+04  1.13106E+02  1.57012E+04  5.12518E+03  8.14795E+03  1.08669E+03  1.19834E+04 -1.85510E+03
  2.11994E+04  3.23684E+03  2.43830E+04  1.74351E+04  1.66053E+04  3.69866E+04 -2.67816E+03  4.29007E+04
 -2.43620E+04  3.53334E+04 -3.99418E+04  1.80363E+04 -4.27691E+04 -3.52765E+03 -3.49995E+04 -2.50216E+04
 -1.38099E+04 -3.57925E+04  1.23985E+04 -3.11621E+04  2.67054E+04 -1.46602E+04  2.34443E+04  7.84274E+03
  7.99126E+03  1.77841E+04 -1.11800E+04  1.51528E+04 -1.97240E+04  2.51347E+03 -1.45334E+04 -1.23772E+04
 -4.18151E+02 -1.85645E+04  9.91621E+03 -1.37057E+04  1.29161E+04 -1.18988E+03  3.34108E+03  8.58271E+03
 -8.55277E+03  4.06355E+03 -8.82262E+03 -6.58628E+03 -1.90013E+03 -1.75353E+04  1.15718E+04 -1.90247E+04
  2.22119E+04 -1.04267E+04  2.46144E+04  3.13267E+03  2.18723E+04  1.76214E+04  1.02638E+04  2.75251E+04
 -5.47460E+03  2.99126E+04 -1.88035E+04  1.85052E+04 -2.15640E+04  3.94968E+03 -1.47146E+04 -5.78892E+03
 -6.45965E+03 -6.55755E+03 -5.62607E+02  6.26627E+02 -2.76597E+03  3.52133E+03 -7.03161E+03  4.69583E+03
 -1.36099E+04 -8.94437E+02 -1.44851E+04 -1.12792E+04 -5.69382E+03 -1.89964E+04  5.95419E+03 -1.52336E+04
  1.23008E+04 -6.02195E+03  8.67315E+03  3.83898E+03 -9.81152E+00  6.00614E+03 -7.63055E+03 -5.32456E+00
 -7.09884E+03 -1.00979E+04 -1.33828E+03 -1.48421E+04  8.52514E+03 -1.59387E+04  1.87345E+04 -8.62472E+03
  2.21887E+04  1.90770E+03  1.62314E+04  1.38132E+04  3.14102E+03  1.81718E+04 -8.78959E+03  1.50257E+04
 -1.24014E+04  4.36604E+03 -6.79342E+03 -3.13124E+03  2.26855E+03 -4.39251E+03  7.64438E+03 -1.29611E+03
  7.27448E+03  6.60744E+03  1.18812E+03  1.21050E+04 -9.12269E+03  1.14023E+04 -1.48753E+04  2.76265E+03
 -1.02566E+04 -7.80899E+03  3.86856E+02 -1.25991E+04  8.15826E+03 -6.67086E+03  8.66832E+03  3.27549E+03
  2.07241E+03  9.16391E+03 -7.71562E+03  1.07325E+04 -1.27589E+04  4.75083E+03 -1.30681E+04 -4.96828E+03
 -7.29286E+03 -1.50229E+04  3.72974E+03 -1.70611E+04  1.45712E+04 -1.00393E+04  1.57912E+04  3.05974E+03
  9.47195E+03  1.24558E+04 -1.54087E+03  1.51014E+04 -1.13731E+04  8.35338E+03 -1.16330E+04 -9.63422E+02
 -1.05402E+04 -9.91830E+03 -1.91999E+03 -1.13328E+04  6.36064E+03 -9.52250E+03  7.38457E+03 -3.50192E+03
  4.75840E+03  1.64897E+03 -9.95245E+02  1.89933E+03 -5.85334E+02 -2.83295E+03  2.46332E+03 -6.85994E+03
  1.08239E+04 -4.21303E+03  1.51437E+04  2.10517E+03  1.45247E+04  1.04755E+04  9.74584E+03  1.97966E+04
 -4.77948E+03  2.27342E+04 -1.87709E+04  1.66401E+04 -2.44939E+04  3.20367E+03 -1.98992E+04 -8.33548E+03
 -9.70981E+03 -1.61775E+04 -4.21169E+02 -1.38474E+04  5.30202E+03 -7.69173E+03  5.19198E+03 -4.97049E+03
  4.03109E+03 -2.84025E+03  3.85125E+03 -3.58548E+03  5.47328E+03 -3.51841E+03  7.44520E+03 -1.42370E+03
  1.01265E+04  2.37664E+03  5.66348E+03  8.84440E+03 -2.12645E+03  1.03432E+04 -1.03423E+04  8.17469E+03
 -1.37814E+04 -8.63755E+02 -8.67804E+03 -9.72977E+03 -9.42070E+02 -1.48964E+04  8.16221E+03 -1.49596E+04
  1.50853E+04 -8.19691E+03  1.84644E+04  2.36429E+03  1.26990E+04  1.29559E+04  2.08636E+03  1.69828E+04
 -7.10599E+03  1.39214E+04 -9.84639E+03  4.72058E+03 -6.57527E+03 -1.34141E+03 -2.26726E+03 -2.49780E+03
 -1.52665E+03 -1.02048E+02 -2.23105E+03  2.94379E+03 -5.82530E+03  2.50876E+03 -9.46753E+03 -1.47291E+03
 -6.85897E+03 -9.87547E+03  4.07590E+02 -1.36548E+04  8.44976E+03 -1.28986E+04  1.38567E+04 -3.78016E+03
  1.37597E+04  6.49803E+03  6.54386E+03  1.22845E+04 -2.80049E+03  1.38803E+04 -1.03634E+04  8.73428E+03
 -1.27204E+04  5.79111E+02 -9.96828E+03 -8.27626E+03 -9.48414E+02 -1.15612E+04  5.63958E+03 -9.10384E+03
  8.89952E+03 -2.40037E+03  5.88523E+03  2.29274E+03  2.25192E+03  4.15689E+03  1.27976E+03  1.38504E+03
  2.85779E+03  1.44198E+03  3.56828E+03  2.03536E+03  4.31382E+03  4.83725E+03  3.32902E+03  7.45221E+03
 -3.00816E+03  1.07935E+04 -9.84871E+03  1.06826E+04 -1.44313E+04  3.15952E+03 -1.46359E+04 -5.95734E+03
 -6.84544E+03 -1.44496E+04  2.19506E+03 -1.50408E+04  8.44107E+03 -9.70944E+03  1.12870E+04 -2.53660E+03
  9.18098E+03  4.80286E+03  1.75924E+03  8.20264E+03 -4.19646E+03  5.46067E+03 -5.56795E+03 -1.30231E+03
 -3.01544E+03 -5.84141E+03  3.25771E+03 -5.94964E+03  5.93405E+03 -3.21339E+03  5.47783E+03  1.34165E+03
  3.10797E+03  3.20273E+03  1.13286E+03  2.38868E+03 -1.16168E+03  2.11099E+03  1.78465E+03 -6.37686E+02
  2.35872E+03 -1.05021E+03  6.23285E+03  2.70647E+03  3.65244E+03  7.83364E+03 -9.95342E+02  9.78753E+03
 -7.14887E+03  6.65861E+03 -9.07249E+03  1.95439E+03 -8.09009E+03 -3.28592E+03 -3.16127E+03 -5.51394E+03
  6.04487E+02 -5.62166E+03  3.69229E+03 -2.72001E+03  3.29471E+03  2.60406E+03 -1.68013E+03  4.78533E+03
 -5.74692E+03  3.06825E+03 -6.57411E+03 -3.26643E+03 -4.07049E+03 -7.85091E+03  9.78216E+02 -7.97099E+03
  4.59466E+03 -4.30238E+03  5.94627E+03  3.26419E+01  5.18297E+03  1.83592E+03  8.55475E+02  4.56916E+03
 -3.25706E+03  1.29794E+03 -3.45217E+03 -2.50521E+03  1.33686E+03 -5.88312E+03  7.10315E+03 -5.15777E+03
  8.98805E+03  6.16667E+02  9.31547E+03  5.96758E+03  2.64483E+03  9.85188E+03 -3.48827E+03  9.33890E+03
 -7.38624E+03  3.81012E+03 -7.85089E+03 -1.60378E+03 -4.77961E+03 -6.17589E+03  1.17344E+03 -5.35167E+03
  5.63667E+03 -2.90245E+03  5.00323E+03  2.18869E+03  2.08850E+03  5.49890E+03 -6.42921E+02  4.41578E+03
 -2.41231E+03  2.70173E+03 -2.33720E+03  8.78861E+02 -1.51868E+03  9.84092E+02 -1.76777E+03  2.14736E+03
 -2.54421E+03  3.19056E+03 -6.51187E+03  3.37969E+03 -9.33556E+03  3.58263E+02 -1.07858E+04 -5.93995E+03
 -5.69006E+03 -1.24775E+04  2.25028E+03 -1.46124E+04  8.90032E+03 -1.11872E+04  1.34251E+04 -4.25965E+03
  1.30585E+04  2.84258E+03  7.82625E+03  8.84685E+03  8.08142E+02  9.50708E+03 -3.58828E+03  7.23340E+03
 -5.28655E+03  2.38148E+03 -3.20195E+03 -1.01115E+03 -1.38684E+03 -7.76878E+02 -4.49647E+02 -3.13130E+02
 -2.06975E+03  2.29793E+02 -2.23442E+03 -3.60655E+02 -7.68244E+02 -1.83645E+03  1.03229E+02 -3.51003E+03
  4.45840E+03 -3.01005E+03  5.71922E+03  2.46874E+01  6.87265E+03  5.00797E+03  1.61195E+03  1.01524E+04
 -4.99495E+03  1.09031E+04 -1.06546E+04  6.62136E+03 -1.18329E+04 -1.22097E+03 -8.88463E+03 -7.47941E+03
 -3.58797E+03 -1.01213E+04  2.41851E+03 -9.22607E+03  6.42269E+03 -4.95278E+03  6.29617E+03  2.92339E+02
  3.60436E+03  3.10753E+03 -7.96669E+01  2.87362E+03 -1.91561E+03  3.70324E+01  1.06453E+02 -1.89702E+03
  3.26768E+03 -1.20647E+03  3.95561E+03  1.17226E+03  2.52913E+03  3.67456E+03 -1.52570E+02  4.46796E+03
 -4.43090E+03  4.32225E+03 -6.39681E+03  3.38703E+02 -6.03955E+03 -4.27975E+03 -8.13858E+02 -8.21203E+03
  4.33980E+03 -6.90227E+03  7.60018E+03 -2.19586E+03  7.64911E+03  1.32472E+03  4.39367E+03  6.28501E+03
  1.21861E+03  6.38826E+03 -2.74503E+03  5.40697E+03 -4.07870E+03  3.21789E+03 -3.33104E+03  5.30301E+02
 -1.84477E+03  2.30611E+02 -1.97196E+03  6.55937E+02 -3.14862E+03  1.52780E+03 -5.23847E+03 -9.91093E+02
 -5.05291E+03 -3.50549E+03 -1.66038E+03 -6.61012E+03  3.08700E+03 -7.03115E+03  5.49201E+03 -3.24502E+03
  6.72271E+03  7.13873E+02  3.82464E+03  4.70204E+03 -4.09212E+02  6.78885E+03 -4.73968E+03  3.97607E+03
