 $NMID ID='MM_0lb_SNR800_11hz_g60_11.RAW', FMTDAT='(8E13.5)'
 TRAMP=1., VOLUME=1. $END
  3.09825E+05  2.58763E+02  3.37801E+05  2.50643E+05  8.46742E+04  3.38418E+05 -1.32841E+05  2.51741E+05
 -1.90635E+05  8.41647E+04 -1.12691E+05 -3.23993E+04  2.18265E+02 -5.09079E+04  5.35826E+04 -1.78135E+02
  3.52405E+04  5.27479E+04 -1.68445E+04  7.59010E+04 -6.11658E+04  6.44172E+04 -8.54845E+04  3.22046E+04
 -8.21157E+04 -1.14667E+04 -5.77112E+04 -5.22863E+04 -1.48069E+04 -7.07528E+04  2.83883E+04 -4.67316E+04
  4.14468E+04  3.56681E+03  1.65388E+04  4.85759E+04 -3.48407E+04  4.77781E+04 -6.80640E+04 -7.51253E+01
 -5.47419E+04 -5.76588E+04 -7.10983E+03 -7.89823E+04  3.49272E+04 -5.70085E+04  4.95267E+04 -1.82164E+04
  4.49732E+04  1.14805E+04  3.29071E+04  2.65578E+04  1.56346E+04  3.05650E+04 -5.75375E+03  2.76013E+04
 -2.27753E+04  1.20282E+04 -1.78735E+04 -5.66807E+03  7.08732E+03 -7.31307E+03  2.36450E+04  1.32418E+04
  6.85076E+03  3.73148E+04 -3.37238E+04  3.68260E+04 -6.53119E+04  2.13043E+03 -5.84053E+04 -4.41573E+04
 -1.23699E+04 -6.52337E+04  4.12293E+04 -4.74568E+04  6.09015E+04 -2.31438E+03  3.66890E+04  3.41306E+04
 -5.50572E+03  3.91481E+04 -3.15046E+04  1.86158E+04 -3.31696E+04 -3.53810E+03 -1.90473E+04 -1.19905E+04
 -9.12785E+03 -1.49087E+04 -5.23571E+02 -1.94503E+04  7.99165E+03 -2.34939E+04  1.57586E+04 -1.22713E+04
  1.07804E+04  6.36641E+03 -1.01203E+04  1.25641E+04 -2.31079E+04 -6.60256E+03 -8.94910E+03 -3.69359E+04
  2.46075E+04 -4.67619E+04  5.15661E+04 -2.05275E+04  4.82742E+04  2.05205E+04  1.69619E+04  4.64938E+04
 -1.64737E+04  3.57897E+04 -2.72449E+04  2.34633E+03 -1.14321E+04 -2.91496E+04  2.12582E+04 -3.65832E+04
  4.40367E+04 -1.04620E+04  3.98154E+04  2.47515E+04  2.08914E+04  5.05616E+04 -8.24353E+03  5.54865E+04
 -3.51337E+04  3.81133E+04 -4.68147E+04  1.08607E+04 -4.69781E+04 -1.81093E+04 -2.58142E+04 -4.14618E+04
  7.68169E+03 -4.17745E+04  3.38166E+04 -1.67534E+04  3.18212E+04  1.15256E+04  4.99524E+03  2.08898E+04
 -1.39795E+04  9.73557E+03 -1.12645E+04 -7.53530E+03  5.57782E+03 -1.12325E+04  1.83790E+04  5.48703E+03
  1.49517E+04  2.28889E+04 -5.11597E+03  2.69161E+04 -2.34484E+04  1.38466E+04 -3.10964E+04 -3.40216E+03
 -2.43246E+04 -1.80517E+04 -1.14262E+04 -2.45836E+04  4.42917E+03 -2.46027E+04  1.90150E+04 -2.20958E+04
  3.09296E+04 -1.39876E+04  3.71518E+04  4.51830E+03  2.67096E+04  2.36279E+04  4.29320E+03  4.08129E+04
 -1.91858E+04  3.33717E+04 -3.01571E+04  1.15594E+04 -2.21855E+04 -1.02873E+04 -4.89745E+03 -1.30452E+04
  1.07616E+03 -1.61752E+03 -7.04646E+03  8.29194E+03 -1.95529E+04  5.01205E+03 -1.94281E+04 -8.86866E+03
 -1.13506E+04 -2.27149E+04  6.01081E+03 -2.68043E+04  1.82392E+04 -1.94718E+04  2.17531E+04 -1.58977E+03
  1.39930E+04  1.57876E+04 -1.44961E+03  2.25606E+04 -1.59356E+04  1.29763E+04 -2.28454E+04 -4.63080E+03
 -1.65266E+04 -1.99684E+04 -2.38107E+03 -2.70531E+04  1.20315E+04 -2.25886E+04  2.25801E+04 -1.15096E+04
  2.13232E+04 -1.20953E+02  1.50426E+04  5.37883E+03  8.29898E+03  1.56877E+03  1.17088E+04 -2.29753E+03
  2.08121E+04  2.74462E+03  2.44428E+04  1.76108E+04  1.61815E+04  3.62736E+04 -2.60348E+03  4.25674E+04
 -2.47970E+04  3.52402E+04 -3.99617E+04  1.77874E+04 -4.24155E+04 -3.44128E+03 -3.45328E+04 -2.49299E+04
 -1.36158E+04 -3.52884E+04  1.21871E+04 -3.11931E+04  2.65316E+04 -1.47932E+04  2.33803E+04  7.25299E+03
  7.91717E+03  1.82635E+04 -1.12621E+04  1.53502E+04 -1.91814E+04  2.48173E+03 -1.46703E+04 -1.20324E+04
 -3.14164E+02 -1.82056E+04  9.90858E+03 -1.38915E+04  1.30520E+04 -1.36227E+03  3.23599E+03  8.49139E+03
 -8.35301E+03  3.71026E+03 -8.63842E+03 -6.62671E+03 -1.38036E+03 -1.70182E+04  1.14722E+04 -1.88422E+04
  2.17303E+04 -1.07479E+04  2.40663E+04  3.11114E+03  2.13376E+04  1.75757E+04  1.00458E+04  2.70532E+04
 -5.03289E+03  2.90910E+04 -1.89520E+04  1.77975E+04 -2.11976E+04  3.61393E+03 -1.43851E+04 -5.39894E+03
 -6.09020E+03 -6.67211E+03 -3.20167E+02  6.97973E+02 -2.47060E+03  3.32133E+03 -6.83787E+03  4.83199E+03
 -1.28622E+04 -7.25077E+02 -1.39099E+04 -1.15471E+04 -5.76558E+03 -1.82490E+04  6.23555E+03 -1.45262E+04
  1.17628E+04 -6.09808E+03  8.80875E+03  3.98743E+03 -1.52759E+02  5.77602E+03 -7.69548E+03 -2.24426E+02
 -6.98851E+03 -9.68624E+03 -9.16972E+02 -1.47040E+04  8.09536E+03 -1.51648E+04  1.86460E+04 -7.58887E+03
  2.18110E+04  2.26966E+03  1.59685E+04  1.29822E+04  2.60007E+03  1.76373E+04 -9.31617E+03  1.46884E+04
 -1.16372E+04  4.50915E+03 -6.07811E+03 -3.15410E+03  2.50557E+03 -3.83100E+03  8.01336E+03 -9.23489E+02
  6.66480E+03  6.51814E+03  1.36269E+03  1.20708E+04 -8.54890E+03  1.14279E+04 -1.43923E+04  2.74771E+03
 -9.71280E+03 -7.73515E+03  9.41279E+01 -1.27123E+04  7.85993E+03 -6.43192E+03  8.88900E+03  3.10392E+03
  1.99658E+03  8.90733E+03 -7.31568E+03  1.05080E+04 -1.21969E+04  4.45544E+03 -1.23874E+04 -4.53518E+03
 -7.69090E+03 -1.44388E+04  3.24808E+03 -1.64366E+04  1.40933E+04 -9.77867E+03  1.54508E+04  2.57163E+03
  9.00109E+03  1.19135E+04 -1.27126E+03  1.44412E+04 -1.05789E+04  8.08940E+03 -1.18792E+04 -1.65024E+03
 -9.93317E+03 -9.84623E+03 -1.44823E+03 -1.09453E+04  5.77099E+03 -8.47512E+03  6.78973E+03 -3.91141E+03
  4.65099E+03  2.30140E+03 -9.01314E+02  1.64516E+03 -8.41356E+02 -2.80079E+03  2.14889E+03 -6.67996E+03
  1.04920E+04 -3.94506E+03  1.42234E+04  1.71539E+03  1.37943E+04  9.45912E+03  9.25142E+03  1.82922E+04
 -4.33560E+03  2.09355E+04 -1.75253E+04  1.55751E+04 -2.29042E+04  2.86828E+03 -1.86119E+04 -8.08134E+03
 -9.33980E+03 -1.51367E+04 -4.03475E+02 -1.28093E+04  4.46208E+03 -6.85207E+03  4.24898E+03 -4.44383E+03
  3.31892E+03 -2.71024E+03  3.93851E+03 -3.75655E+03  5.69387E+03 -3.23724E+03  6.97847E+03 -1.21272E+03
  9.56775E+03  1.78995E+03  5.03786E+03  7.98452E+03 -2.02674E+03  9.73131E+03 -1.00550E+04  7.71519E+03
 -1.27853E+04 -1.30222E+03 -8.00061E+03 -8.92728E+03 -9.50987E+02 -1.36892E+04  7.46216E+03 -1.39437E+04
  1.43581E+04 -7.85246E+03  1.71724E+04  2.07925E+03  1.16772E+04  1.19534E+04  1.85544E+03  1.54798E+04
 -6.31055E+03  1.23568E+04 -8.80239E+03  4.33849E+03 -5.94498E+03 -1.74663E+03 -2.69722E+03 -1.67030E+03
 -1.28696E+03 -2.00631E+02 -1.69548E+03  2.59263E+03 -5.17604E+03  2.06044E+03 -9.08997E+03 -1.44933E+03
 -6.01593E+03 -9.01383E+03 -5.52945E+00 -1.28073E+04  7.98861E+03 -1.17207E+04  1.22637E+04 -3.55883E+03
  1.25158E+04  5.94099E+03  5.98628E+03  1.11981E+04 -2.53744E+03  1.28739E+04 -8.86851E+03  7.89933E+03
 -1.19342E+04  6.13441E+02 -9.39687E+03 -7.46089E+03 -7.61579E+02 -1.05247E+04  5.44900E+03 -7.75462E+03
  8.37290E+03 -2.68949E+03  5.66999E+03  1.96111E+03  1.74817E+03  3.97045E+03  1.30231E+03  2.00176E+03
  2.95042E+03  8.56622E+02  3.40895E+03  1.98466E+03  3.58066E+03  4.71331E+03  3.53413E+03  6.84527E+03
 -2.49626E+03  1.03081E+04 -8.67280E+03  1.00239E+04 -1.25422E+04  2.63299E+03 -1.35528E+04 -4.70186E+03
 -6.29863E+03 -1.24681E+04  1.72801E+03 -1.39530E+04  7.47694E+03 -8.74845E+03  1.02453E+04 -2.27682E+03
  8.14626E+03  4.82291E+03  2.10609E+03  7.21333E+03 -3.20087E+03  4.43907E+03 -5.07739E+03 -6.53424E+02
 -2.38585E+03 -5.45744E+03  2.87122E+03 -5.20518E+03  5.20039E+03 -3.01015E+03  5.10844E+03  1.15387E+03
  3.26837E+03  2.50424E+03  1.30370E+03  1.96936E+03 -9.69561E+02  1.71386E+03  1.62570E+03 -4.88942E+02
  1.97676E+03 -1.11665E+03  4.87014E+03  2.19724E+03  2.46281E+03  6.68090E+03 -1.10876E+03  8.95220E+03
 -5.91801E+03  5.63767E+03 -8.13514E+03  1.77526E+03 -7.57538E+03 -2.53963E+03 -2.69582E+03 -4.61183E+03
  8.06328E+02 -4.43263E+03  3.30573E+03 -2.31393E+03  2.87684E+03  2.57250E+03 -1.38461E+03  3.87921E+03
 -4.95221E+03  2.44727E+03 -5.65731E+03 -3.06511E+03 -3.15124E+03 -7.10442E+03  1.30356E+03 -6.50698E+03
  3.74952E+03 -4.03443E+03  4.63302E+03 -2.23346E+01  4.14004E+03  1.28853E+03  5.10134E+02  3.82827E+03
 -2.13642E+03  9.51861E+02 -3.08536E+03 -2.49986E+03  1.29950E+03 -5.22037E+03  5.76239E+03 -4.07467E+03
  7.49400E+03  4.41487E+02  7.62741E+03  5.27276E+03  2.81295E+03  7.77781E+03 -3.03489E+03  7.68317E+03
 -6.06222E+03  2.94780E+03 -6.98815E+03 -1.03747E+03 -3.53194E+03 -5.30998E+03  1.13365E+03 -4.48628E+03
  5.22160E+03 -2.49036E+03  3.94241E+03  2.19980E+03  1.04892E+03  4.29060E+03 -6.16369E+02  3.74241E+03
 -2.26870E+03  2.91198E+03 -1.99945E+03  6.77828E+02 -8.19500E+02  9.96438E+02 -1.00564E+03  1.40785E+03
 -2.36307E+03  2.94927E+03 -5.32007E+03  2.64048E+03 -7.51276E+03  1.03135E+02 -8.65397E+03 -5.41937E+03
 -4.54340E+03 -9.93829E+03  1.84976E+03 -1.17153E+04  7.01477E+03 -9.48228E+03  1.12304E+04 -3.66037E+03
  1.04214E+04  1.61583E+03  6.32659E+03  7.30078E+03  6.10687E+02  7.92372E+03 -3.12864E+03  6.01126E+03
 -4.54589E+03  2.33535E+03 -2.41486E+03 -1.22318E+03 -1.08914E+03 -6.24626E+02 -6.39883E+02 -3.92046E+01
 -1.38481E+03  1.46192E+02 -2.03125E+03 -3.01172E+02 -4.76997E+02 -2.20650E+03 -1.66607E+02 -3.19052E+03
  3.85325E+03 -2.26198E+03  4.39302E+03  1.09256E+02  5.27808E+03  4.39361E+03  1.46053E+03  8.13689E+03
 -3.55011E+03  8.91558E+03 -7.77708E+03  5.59956E+03 -9.24481E+03 -9.23435E+02 -6.68921E+03 -5.87517E+03
 -3.02265E+03 -7.89742E+03  1.81381E+03 -7.41353E+03  4.90842E+03 -3.43160E+03  4.85210E+03  5.42468E+02
  2.44155E+03  2.38855E+03 -2.25813E+02  2.19880E+03 -1.41175E+03 -1.46457E+02  1.35996E+02 -1.65590E+03
  2.64418E+03 -9.26386E+02  2.95926E+03  1.16978E+03  2.12363E+03  3.17355E+03  6.51961E+02  3.74814E+03
 -3.09236E+03  3.38447E+03 -5.15040E+03  8.52369E+02 -4.69816E+03 -3.58399E+03 -1.07058E+03 -6.23316E+03
  3.70994E+03 -5.62139E+03  5.43354E+03 -1.39994E+03  5.24304E+03  6.38750E+02  3.12662E+03  4.50446E+03
  4.19336E+02  5.01809E+03 -1.73254E+03  3.91728E+03 -2.97224E+03  2.57263E+03 -2.29568E+03  1.09163E+02
 -1.34017E+03 -3.04660E+02 -1.30122E+03  6.28380E+02 -2.63973E+03  7.46355E+02 -3.96152E+03 -1.08950E+03
 -3.88869E+03 -2.25210E+03 -9.71161E+02 -5.38191E+03  2.49937E+03 -5.59602E+03  4.45189E+03 -2.63596E+03
  4.91690E+03  5.50019E+02  2.35173E+03  3.12322E+03 -4.94767E+02  4.51622E+03 -3.97216E+03  3.07944E+03
