 $NMID ID='MM_0lb_SNR800_16hz_g45_82.RAW', FMTDAT='(8E13.5)'
 TRAMP=1., VOLUME=1. $END
  3.09682E+05  5.91844E+02  3.37629E+05  2.50330E+05  8.45984E+04  3.37818E+05 -1.32247E+05  2.50434E+05
 -1.89881E+05  8.27590E+04 -1.11668E+05 -3.29417E+04  1.18798E+03 -5.05238E+04  5.37873E+04  2.95717E+02
  3.51697E+04  5.27271E+04 -1.68195E+04  7.51924E+04 -6.04368E+04  6.31949E+04 -8.35562E+04  3.17946E+04
 -7.99814E+04 -1.11571E+04 -5.62745E+04 -5.07342E+04 -1.49985E+04 -6.88464E+04  2.70971E+04 -4.54066E+04
  3.94992E+04  3.77344E+03  1.60327E+04  4.74189E+04 -3.40304E+04  4.66668E+04 -6.60391E+04 -4.16973E+02
 -5.25787E+04 -5.62994E+04 -6.45738E+03 -7.60561E+04  3.34646E+04 -5.41295E+04  4.66439E+04 -1.68269E+04
  4.24839E+04  1.11686E+04  3.15685E+04  2.47464E+04  1.57382E+04  2.87224E+04 -4.66732E+03  2.69897E+04
 -2.19110E+04  1.27326E+04 -1.87353E+04 -4.52650E+03  4.69955E+03 -7.54616E+03  2.15750E+04  1.17092E+04
  7.41931E+03  3.41402E+04 -3.13524E+04  3.46861E+04 -6.21123E+04  2.07947E+03 -5.62011E+04 -4.20455E+04
 -1.25425E+04 -6.17934E+04  3.89830E+04 -4.45593E+04  5.66707E+04 -2.35483E+03  3.30749E+04  3.15155E+04
 -6.22508E+03  3.45040E+04 -2.92524E+04  1.44851E+04 -2.87311E+04 -5.08760E+03 -1.55425E+04 -1.03917E+04
 -7.77902E+03 -1.23934E+04 -7.22464E+02 -1.69586E+04  7.02104E+03 -2.29201E+04  1.49654E+04 -1.36890E+04
  1.18527E+04  4.69799E+03 -7.15061E+03  1.29776E+04 -2.03954E+04 -3.16972E+03 -8.30101E+03 -3.23042E+04
  2.14995E+04 -4.19167E+04  4.61202E+04 -1.93160E+04  4.33130E+04  1.90139E+04  1.48862E+04  4.27887E+04
 -1.59163E+04  3.22452E+04 -2.42507E+04  1.25004E+03 -9.21008E+03 -2.69564E+04  2.07804E+04 -3.23758E+04
  3.93476E+04 -8.08471E+03  3.31816E+04  2.33958E+04  1.67598E+04  4.43274E+04 -7.91931E+03  4.74524E+04
 -2.99002E+04  3.20410E+04 -3.94134E+04  8.99487E+03 -4.03130E+04 -1.55803E+04 -2.21670E+04 -3.58630E+04
  7.28089E+03 -3.58889E+04  3.03013E+04 -1.35592E+04  2.78236E+04  1.07499E+04  3.29676E+03  1.84870E+04
 -1.35225E+04  7.75558E+03 -9.95125E+03 -7.48041E+03  5.58809E+03 -1.04858E+04  1.76423E+04  6.33487E+03
  1.26766E+04  2.15092E+04 -6.40022E+03  2.41668E+04 -2.17424E+04  1.04571E+04 -2.63331E+04 -5.84882E+03
 -1.87402E+04 -1.67897E+04 -6.97097E+03 -1.84234E+04  3.62670E+03 -1.70154E+04  1.42955E+04 -1.63471E+04
  2.36415E+04 -1.20115E+04  2.99421E+04  2.00485E+03  2.25400E+04  1.80012E+04  3.88272E+03  3.42385E+04
 -1.66259E+04  2.88762E+04 -2.65764E+04  9.89711E+03 -2.02145E+04 -1.04071E+04 -4.16870E+03 -1.37835E+04
  2.16632E+03 -3.39558E+03 -3.77966E+03  5.98435E+03 -1.42358E+04  5.03787E+03 -1.46500E+04 -5.84214E+03
 -9.16191E+03 -1.68544E+04  4.80779E+03 -2.12167E+04  1.37900E+04 -1.52206E+04  1.64265E+04 -1.37956E+03
  9.80960E+03  1.21555E+04 -9.79068E+02  1.68923E+04 -1.16592E+04  9.88155E+03 -1.71598E+04 -3.75569E+03
 -1.27097E+04 -1.53379E+04 -1.78660E+03 -2.05954E+04  9.42652E+03 -1.67648E+04  1.74368E+04 -8.54447E+03
  1.60995E+04  3.24909E+02  1.15068E+04  4.20029E+03  6.11537E+03  6.41137E+02  8.62972E+03 -1.51203E+03
  1.53791E+04  2.86739E+03  1.69555E+04  1.36680E+04  1.09492E+04  2.73121E+04 -2.98267E+03  2.99587E+04
 -1.77973E+04  2.38337E+04 -2.80232E+04  1.16053E+04 -2.87978E+04 -2.15602E+03 -2.39835E+04 -1.66460E+04
 -1.06130E+04 -2.35952E+04  8.03711E+03 -2.17666E+04  1.88003E+04 -1.18414E+04  1.73694E+04  4.57798E+03
  6.99240E+03  1.24735E+04 -7.68401E+03  1.13859E+04 -1.47528E+04  2.52009E+03 -1.10730E+04 -8.80132E+03
  1.67061E+02 -1.39583E+04  7.07640E+03 -1.01848E+04  9.16762E+03 -1.06837E+03  1.52656E+03  5.66950E+03
 -5.98068E+03  1.67287E+03 -4.69963E+03 -5.29323E+03  1.14145E+02 -1.18178E+04  8.50119E+03 -1.19200E+04
  1.42764E+04 -5.73206E+03  1.47418E+04  2.63233E+03  1.27230E+04  1.12930E+04  5.85004E+03  1.66531E+04
 -2.45465E+03  1.90223E+04 -1.18349E+04  1.20077E+04 -1.31179E+04  3.22415E+03 -9.57475E+03 -2.45760E+03
 -4.69928E+03 -3.98741E+03 -8.06436E+02  1.14706E+03 -2.06498E+03  2.14387E+03 -4.20007E+03  3.91971E+03
 -9.41603E+03 -5.83032E+02 -9.81866E+03 -7.86514E+03 -3.69876E+03 -1.28108E+04  4.21848E+03 -9.76140E+03
  8.27881E+03 -4.10196E+03  5.95526E+03  2.46071E+03  5.71072E+02  3.71853E+03 -4.16723E+03  1.78909E+02
 -3.87624E+03 -6.02883E+03 -7.25404E+02 -8.92707E+03  5.02601E+03 -9.57353E+03  1.17346E+04 -4.86959E+03
  1.38254E+04  1.10702E+03  1.00789E+04  7.58458E+03  2.00315E+03  1.07002E+04 -5.93134E+03  9.55612E+03
 -8.12903E+03  3.41866E+03 -4.35355E+03 -1.86451E+03  1.45363E+03 -2.26896E+03  5.43858E+03 -1.00629E+03
  4.81376E+03  4.10742E+03  1.05072E+03  7.44424E+03 -5.14548E+03  7.30744E+03 -9.51224E+03  1.74090E+03
 -5.97882E+03 -4.40807E+03  3.10917E+02 -7.68006E+03  4.81360E+03 -4.10631E+03  4.53183E+03  1.25747E+03
  6.64963E+02  4.48715E+03 -4.84768E+03  5.82653E+03 -6.46935E+03  3.11704E+03 -6.21398E+03 -2.02755E+03
 -3.75603E+03 -7.60575E+03  1.64892E+03 -9.09226E+03  7.55998E+03 -5.98741E+03  8.40476E+03  1.38725E+03
  5.64748E+03  6.65447E+03  9.45613E+01  8.74250E+03 -6.10426E+03  4.95014E+03 -6.37779E+03 -4.30260E+02
 -6.39455E+03 -6.12256E+03 -1.81920E+03 -6.26735E+03  2.96348E+03 -5.69886E+03  3.65661E+03 -3.14913E+03
  3.33859E+03  6.99294E+02 -4.29470E+02  1.21467E+03  1.76750E+02 -6.96116E+02  6.22407E+02 -3.01531E+03
  5.11817E+03 -1.69545E+03  7.12083E+03  8.96503E+02  7.31013E+03  4.45230E+03  5.92916E+03  9.60768E+03
 -1.80469E+03  1.12224E+04 -9.75446E+03  8.63032E+03 -1.27297E+04  1.68501E+03 -1.00879E+04 -3.67555E+03
 -5.57765E+03 -8.32487E+03 -3.42209E+02 -6.77684E+03  2.60553E+03 -3.31159E+03  2.47583E+03 -2.60769E+03
  1.37658E+03 -1.52618E+03  2.19914E+03 -2.43294E+03  4.10502E+03 -1.75150E+03  4.48066E+03  2.98789E+02
  5.71965E+03  1.16431E+03  1.65645E+03  4.58496E+03 -1.65106E+03  3.94809E+03 -5.70552E+03  3.61237E+03
 -6.63437E+03 -1.18646E+03 -3.42552E+03 -4.48601E+03  3.38230E+02 -7.01975E+03  4.19787E+03 -7.22630E+03
  7.14526E+03 -4.19450E+03  9.05320E+03  7.68270E+02  6.34503E+03  5.80745E+03  1.21039E+03  8.28503E+03
 -2.74235E+03  7.18087E+03 -4.34573E+03  2.49080E+03 -3.08655E+03 -9.57511E+02 -1.16034E+03 -6.69103E+02
 -7.73027E+02  3.54574E+02 -1.49271E+03  2.24852E+03 -2.98262E+03  1.33431E+03 -4.74230E+03 -5.21122E+02
 -2.51499E+03 -5.08273E+03  5.24626E+02 -6.19631E+03  3.84636E+03 -5.89424E+03  5.28724E+03 -1.44476E+03
  5.42568E+03  3.08271E+03  2.81423E+03  5.01087E+03 -1.07526E+03  6.03759E+03 -4.14064E+03  3.58726E+03
 -5.29463E+03  6.62369E+02 -4.37039E+03 -3.29952E+03 -5.48828E+02 -4.77007E+03  2.23844E+03 -3.50109E+03
  3.60001E+03 -1.54212E+03  2.33897E+03  7.60175E+02  4.99297E+02  2.05790E+03  8.03826E+02  9.69452E+02
  1.58330E+03  6.19449E+02  1.56089E+03  1.25108E+03  1.71809E+03  2.66429E+03  1.93573E+03  2.89096E+03
 -1.75518E+03  4.27649E+03 -3.71987E+03  5.29493E+03 -4.88058E+03  1.37595E+03 -5.94670E+03 -1.33599E+03
 -2.54977E+03 -5.10770E+03  6.34862E+02 -6.46671E+03  2.73316E+03 -3.94653E+03  4.67180E+03 -1.50317E+03
  3.47666E+03  2.35367E+03  8.35203E+02  2.90771E+03 -1.39574E+03  1.81663E+03 -1.94201E+03 -4.31924E+02
 -6.58790E+02 -2.33084E+03  1.73882E+03 -2.24932E+03  2.22159E+03 -1.43840E+03  1.83636E+03  3.74975E+02
  1.24033E+03  7.71852E+02  9.37277E+02  1.50049E+02 -4.05536E+02  7.14886E+02  1.69111E+03 -2.17159E+02
  3.77977E+02 -4.49774E+02  2.63250E+03  1.01602E+03  7.18521E+02  3.12206E+03 -5.07680E+02  4.03917E+03
 -2.53882E+03  1.93043E+03 -3.14753E+03  5.03537E+02 -2.93821E+03 -1.24995E+03 -6.39523E+02 -2.01566E+03
  6.31239E+02 -1.95445E+03  1.03672E+03 -8.64365E+02  1.07801E+03  1.54083E+03 -9.44773E+02  1.91716E+03
 -2.42044E+03  1.09990E+03 -2.03639E+03 -1.44257E+03 -1.33239E+03 -2.89925E+03  5.14462E+02 -2.50211E+03
  1.00299E+03 -1.31420E+03  1.52030E+03  1.22955E+02  1.36765E+03  2.49374E+02  1.03803E+02  1.35223E+03
 -5.26581E+02  1.36025E+02 -1.36160E+03 -6.97970E+02  6.51943E+02 -1.48293E+03  2.38854E+03 -1.37580E+03
  2.37079E+03  3.40004E+02  3.41392E+03  1.39560E+03  1.66178E+03  2.55086E+03 -7.64048E+02  2.58152E+03
 -2.31795E+03  8.53598E+02 -2.25687E+03 -4.94702E+02 -1.15844E+03 -1.89337E+03  6.58300E+02 -1.24767E+03
  2.33983E+03 -1.02966E+03  1.45355E+03  9.29510E+02  1.47203E+02  2.10393E+03 -5.77999E+01  1.56402E+03
 -3.82369E+02  1.43843E+03 -8.31364E+02  2.73549E+02 -1.87913E+02  4.17628E+02 -1.11775E+03  6.52308E+02
 -8.29496E+02  1.21093E+03 -2.25389E+03  1.21646E+03 -2.78109E+03  5.88301E+01 -3.69686E+03 -1.62393E+03
 -1.85538E+03 -3.58433E+03  8.27080E+02 -4.44473E+03  1.77237E+03 -3.25794E+03  4.36168E+03 -1.30350E+03
  3.95660E+03  1.19400E+02  2.12512E+03  2.48925E+03 -2.56286E+02  2.52897E+03 -8.62092E+02  2.11482E+03
 -1.53560E+03  9.04382E+02 -1.00617E+03 -2.84509E+02 -5.20973E+02 -1.51581E+02 -1.03798E+03  8.63040E+01
 -1.38290E+03  3.18689E+02 -1.35566E+03 -2.72043E+02 -8.74929E+00 -9.65829E+02 -1.30789E+02 -1.27435E+03
  1.51441E+03 -7.68359E+02  1.01972E+03 -2.55694E+02  2.19492E+03  1.81769E+03 -8.65176E+01  2.58573E+03
 -1.59462E+03  3.46218E+03 -2.77257E+03  1.82618E+03 -3.22582E+03 -4.39163E+02 -2.47270E+03 -2.06145E+03
 -1.43469E+03 -2.28465E+03  6.41635E+02 -2.43732E+03  1.40339E+03 -7.85211E+02  1.55572E+03  2.61913E+02
  1.33990E+03  7.60854E+02  2.45437E+01  6.12227E+02 -7.41627E+02 -4.48971E+02 -3.27213E+00 -6.70718E+02
  6.96886E+02 -9.06163E+01  7.47757E+02  5.36588E+02  6.16415E+02  1.07080E+03  5.62260E+02  1.07878E+03
 -7.10669E+02  9.43983E+02 -1.21398E+03  1.18096E+02 -1.39747E+03 -8.52372E+02  1.92577E+02 -2.15014E+03
  1.27178E+03 -1.31021E+03  1.11348E+03 -9.18368E+01  1.83632E+03 -2.70104E+02  7.58003E+02  1.38796E+03
  3.27454E+02  1.18281E+03 -3.90027E+02  1.11360E+03 -8.65971E+02  6.83841E+02 -9.36341E+02  2.07737E+01
 -3.93924E+02 -1.25313E+02 -8.72650E+02 -8.97070E+01 -1.17505E+03  6.13135E+01 -1.47781E+03 -2.35553E+02
 -1.23905E+03 -1.59263E+02 -4.26366E+02 -1.54972E+03  8.16789E+02 -2.00871E+03  1.06039E+03 -5.09898E+02
  1.08297E+03  1.75533E+02  2.91906E+02  9.76641E+02 -2.63545E+01  1.51740E+03 -1.00402E+03  1.15160E+03
