 $NMID ID='MM_0lb_SNR800_8hz_g45_61.RAW', FMTDAT='(8E13.5)'
 TRAMP=1., VOLUME=1. $END
  3.09921E+05  6.03932E+02  3.37715E+05  2.50948E+05  8.49390E+04  3.38594E+05 -1.32460E+05  2.51908E+05
 -1.90963E+05  8.39209E+04 -1.12460E+05 -3.24538E+04  3.54390E+02 -5.09252E+04  5.38797E+04 -3.61957E+02
  3.56188E+04  5.29849E+04 -1.59930E+04  7.60726E+04 -6.13847E+04  6.42808E+04 -8.55921E+04  3.25014E+04
 -8.24294E+04 -1.19102E+04 -5.78946E+04 -5.26601E+04 -1.50479E+04 -7.11834E+04  2.79840E+04 -4.69778E+04
  4.14373E+04  3.59376E+03  1.64433E+04  4.84419E+04 -3.47292E+04  4.82540E+04 -6.77663E+04 -2.33069E+02
 -5.45909E+04 -5.76507E+04 -7.38249E+03 -7.92872E+04  3.47555E+04 -5.65350E+04  4.99313E+04 -1.85476E+04
  4.51759E+04  1.16087E+04  3.29415E+04  2.62906E+04  1.58243E+04  3.08250E+04 -5.89182E+03  2.74393E+04
 -2.26463E+04  1.22229E+04 -1.79333E+04 -5.62923E+03  7.48149E+03 -7.47606E+03  2.31554E+04  1.38412E+04
  7.32872E+03  3.76051E+04 -3.41532E+04  3.70677E+04 -6.59505E+04  1.92517E+03 -5.89398E+04 -4.46731E+04
 -1.25814E+04 -6.63005E+04  4.21962E+04 -4.77661E+04  6.17797E+04 -2.28603E+03  3.72852E+04  3.44385E+04
 -5.48688E+03  4.02831E+04 -3.18237E+04  1.90812E+04 -3.32459E+04 -3.39851E+03 -1.96860E+04 -1.23917E+04
 -9.39141E+03 -1.55379E+04 -3.59271E+02 -1.98064E+04  8.38050E+03 -2.34923E+04  1.63400E+04 -1.22274E+04
  1.04339E+04  6.05270E+03 -1.10168E+04  1.28752E+04 -2.37420E+04 -6.65730E+03 -8.63770E+03 -3.80185E+04
  2.53059E+04 -4.73557E+04  5.21916E+04 -2.08113E+04  4.92334E+04  2.11017E+04  1.75279E+04  4.76181E+04
 -1.68148E+04  3.67254E+04 -2.77701E+04  2.79381E+03 -1.19260E+04 -2.99133E+04  2.16481E+04 -3.71518E+04
  4.50241E+04 -1.12861E+04  4.05991E+04  2.50924E+04  2.18404E+04  5.17066E+04 -8.44275E+03  5.65447E+04
 -3.53091E+04  3.89931E+04 -4.80054E+04  1.10163E+04 -4.84042E+04 -1.91653E+04 -2.64765E+04 -4.23624E+04
  7.64986E+03 -4.26322E+04  3.44701E+04 -1.76072E+04  3.21244E+04  1.09207E+04  5.29011E+03  2.12442E+04
 -1.40378E+04  9.28986E+03 -1.08796E+04 -7.63797E+03  5.46689E+03 -1.14749E+04  1.91806E+04  5.39796E+03
  1.47856E+04  2.28076E+04 -5.23187E+03  2.70037E+04 -2.37862E+04  1.47293E+04 -3.16149E+04 -2.47241E+03
 -2.60005E+04 -1.83843E+04 -1.19394E+04 -2.56760E+04  4.61702E+03 -2.65167E+04  2.01478E+04 -2.36562E+04
  3.27067E+04 -1.45814E+04  3.85670E+04  5.26685E+03  2.69992E+04  2.45636E+04  4.61327E+03  4.17496E+04
 -1.97987E+04  3.43912E+04 -3.12876E+04  1.22180E+04 -2.24584E+04 -9.60688E+03 -4.80542E+03 -1.27765E+04
  2.07441E+02 -1.19803E+03 -8.26391E+03  8.75698E+03 -2.08653E+04  5.30932E+03 -2.06861E+04 -9.06329E+03
 -1.25157E+04 -2.38585E+04  6.21262E+03 -2.84141E+04  1.94204E+04 -2.01195E+04  2.29632E+04 -2.00219E+03
  1.48957E+04  1.63343E+04 -1.17744E+03  2.40305E+04 -1.73751E+04  1.37571E+04 -2.40864E+04 -5.11388E+03
 -1.76777E+04 -2.15250E+04 -2.31106E+03 -2.85561E+04  1.29898E+04 -2.38557E+04  2.34894E+04 -1.25054E+04
  2.24799E+04 -4.32289E+02  1.62437E+04  5.39534E+03  8.95757E+03  1.53927E+03  1.25310E+04 -1.99033E+03
  2.28168E+04  3.04109E+03  2.57172E+04  1.89223E+04  1.81593E+04  3.88649E+04 -2.49317E+03  4.56959E+04
 -2.61139E+04  3.81260E+04 -4.27785E+04  1.97191E+04 -4.63119E+04 -3.68488E+03 -3.72479E+04 -2.72365E+04
 -1.47654E+04 -3.85677E+04  1.35351E+04 -3.36364E+04  2.86243E+04 -1.58991E+04  2.47946E+04  7.92598E+03
  8.39381E+03  1.93080E+04 -1.19294E+04  1.64680E+04 -2.06703E+04  2.91343E+03 -1.57281E+04 -1.31695E+04
 -4.16356E+02 -2.01353E+04  1.08792E+04 -1.46207E+04  1.39678E+04 -1.27274E+03  3.49791E+03  9.46055E+03
 -9.26812E+03  4.96990E+03 -9.53421E+03 -7.04490E+03 -2.09633E+03 -1.87193E+04  1.22527E+04 -2.05203E+04
  2.37621E+04 -1.14761E+04  2.74758E+04  3.28295E+03  2.37609E+04  1.89778E+04  1.06883E+04  3.02712E+04
 -6.13168E+03  3.26176E+04 -2.10383E+04  2.03575E+04 -2.33053E+04  4.31105E+03 -1.58751E+04 -6.27755E+03
 -6.93835E+03 -7.98017E+03 -7.38431E+02  4.42978E+02 -3.01683E+03  3.32932E+03 -7.78491E+03  5.73648E+03
 -1.48923E+04 -1.72231E+03 -1.52105E+04 -1.22496E+04 -6.37312E+03 -2.03001E+04  7.04800E+03 -1.66127E+04
  1.30453E+04 -6.64851E+03  9.42447E+03  4.08062E+03 -5.31076E+02  6.44821E+03 -8.15845E+03 -1.67367E+02
 -8.25191E+03 -1.04350E+04 -1.37141E+03 -1.60520E+04  9.75494E+03 -1.71617E+04  2.12263E+04 -9.16600E+03
  2.42362E+04  2.59702E+03  1.73726E+04  1.53206E+04  3.35908E+03  1.98736E+04 -1.00757E+04  1.61349E+04
 -1.29962E+04  4.49083E+03 -6.66795E+03 -3.64088E+03  2.60939E+03 -4.65582E+03  8.64693E+03 -1.41761E+03
  8.11204E+03  7.14917E+03  1.27365E+03  1.28421E+04 -9.93915E+03  1.25486E+04 -1.65685E+04  2.72313E+03
 -1.12894E+04 -8.79779E+03  5.67985E+01 -1.45320E+04  9.25902E+03 -7.17456E+03  9.88799E+03  3.94003E+03
  2.90878E+03  1.05514E+04 -8.85971E+03  1.18405E+04 -1.43543E+04  5.66143E+03 -1.51205E+04 -5.43423E+03
 -8.84474E+03 -1.64560E+04  4.38518E+03 -1.89260E+04  1.64555E+04 -1.13132E+04  1.79025E+04  2.86032E+03
  1.05107E+04  1.42854E+04 -1.88983E+03  1.70685E+04 -1.22080E+04  9.43489E+03 -1.37343E+04 -1.51777E+03
 -1.12273E+04 -1.14780E+04 -1.93138E+03 -1.30998E+04  6.33989E+03 -1.01812E+04  8.32284E+03 -3.66798E+03
  5.38906E+03  2.19222E+03 -1.62743E+03  1.77800E+03 -8.44671E+02 -4.21054E+03  2.82922E+03 -8.13332E+03
  1.23016E+04 -5.45081E+03  1.70107E+04  2.08937E+03  1.66517E+04  1.20311E+04  1.04794E+04  2.22515E+04
 -5.13854E+03  2.59162E+04 -2.14699E+04  1.92401E+04 -2.74835E+04  3.61254E+03 -2.22513E+04 -9.78967E+03
 -1.10140E+04 -1.77649E+04 -1.12905E+02 -1.55674E+04  5.30609E+03 -8.95622E+03  5.37956E+03 -5.99605E+03
  3.98838E+03 -3.06926E+03  4.08662E+03 -4.12151E+03  6.40902E+03 -3.72111E+03  8.64515E+03 -1.80193E+03
  1.16717E+04  2.86122E+03  6.59421E+03  1.02035E+04 -2.15648E+03  1.23607E+04 -1.22955E+04  9.56386E+03
 -1.57660E+04 -1.29885E+03 -1.06286E+04 -1.11313E+04 -1.68978E+03 -1.69972E+04  9.23275E+03 -1.70200E+04
  1.80552E+04 -9.10416E+03  2.07253E+04  2.83603E+03  1.42456E+04  1.46783E+04  2.55143E+03  1.89641E+04
 -7.78571E+03  1.52744E+04 -1.15946E+04  5.06626E+03 -7.66943E+03 -1.99942E+03 -2.85371E+03 -2.55998E+03
 -1.68696E+03 -6.18830E+02 -2.40924E+03  2.89972E+03 -6.51176E+03  3.11269E+03 -1.08020E+04 -1.15693E+03
 -8.32895E+03 -1.09190E+04  1.22094E+01 -1.61873E+04  9.54450E+03 -1.49864E+04  1.65228E+04 -4.69425E+03
  1.58387E+04  8.10207E+03  7.66496E+03  1.45794E+04 -3.46631E+03  1.61853E+04 -1.17043E+04  1.00082E+04
 -1.52931E+04  4.43791E+02 -1.18324E+04 -9.79802E+03 -1.31110E+03 -1.40172E+04  7.05040E+03 -9.65189E+03
  1.02932E+04 -2.67958E+03  7.16999E+03  2.97883E+03  2.33012E+03  4.65213E+03  1.62329E+03  2.54874E+03
  2.71460E+03  1.27372E+03  4.06684E+03  2.17998E+03  4.56186E+03  5.38561E+03  4.28673E+03  9.23353E+03
 -3.20935E+03  1.27055E+04 -1.17848E+04  1.24470E+04 -1.72771E+04  3.05941E+03 -1.72466E+04 -7.07772E+03
 -8.54349E+03 -1.65204E+04  2.46210E+03 -1.83764E+04  1.03442E+04 -1.18553E+04  1.38327E+04 -3.00145E+03
  1.05152E+04  6.38985E+03  2.70517E+03  9.55284E+03 -5.09825E+03  5.93374E+03 -6.57293E+03 -8.54777E+02
 -3.12452E+03 -7.36530E+03  3.81856E+03 -7.56663E+03  6.93590E+03 -3.39714E+03  6.49451E+03  1.93445E+03
  3.97837E+03  3.44777E+03  1.70188E+03  2.96312E+03 -1.02362E+03  1.88083E+03  1.75704E+03 -3.32440E+02
  2.55740E+03 -1.01360E+03  6.76163E+03  3.23559E+03  4.55043E+03  8.70131E+03 -1.47238E+03  1.15253E+04
 -8.15038E+03  8.03897E+03 -1.07996E+04  1.85640E+03 -9.24494E+03 -3.98731E+03 -3.84667E+03 -6.60782E+03
  1.03037E+03 -6.43806E+03  4.52110E+03 -3.23673E+03  3.75617E+03  3.30031E+03 -1.63241E+03  5.45129E+03
 -6.96478E+03  2.94644E+03 -8.07724E+03 -4.23920E+03 -4.77411E+03 -9.41255E+03  1.12716E+03 -9.40999E+03
  5.44816E+03 -5.89818E+03  7.13688E+03 -3.80520E+02  5.50879E+03  2.47262E+03  1.01638E+03  5.48135E+03
 -3.20399E+03  1.24776E+03 -4.22945E+03 -3.57363E+03  1.78299E+03 -7.70177E+03  8.14951E+03 -6.19444E+03
  1.11415E+04  7.52314E+02  1.05457E+04  7.54657E+03  3.24680E+03  1.13723E+04 -3.92786E+03  1.08955E+04
 -9.38895E+03  4.97703E+03 -9.26254E+03 -1.31664E+03 -5.24701E+03 -7.46793E+03  1.86496E+03 -7.36577E+03
  6.79351E+03 -3.78320E+03  5.97428E+03  3.12719E+03  1.91814E+03  6.03464E+03 -1.25899E+03  5.56280E+03
 -2.95085E+03  3.09627E+03 -2.37580E+03  1.16295E+03 -1.37881E+03  9.53626E+02 -1.69008E+03  2.15670E+03
 -2.93305E+03  4.47265E+03 -7.27639E+03  4.26159E+03 -1.19101E+04  1.90738E+02 -1.31960E+04 -7.86271E+03
 -6.59126E+03 -1.51102E+04  3.20392E+03 -1.77074E+04  1.05933E+04 -1.35586E+04  1.64092E+04 -5.24986E+03
  1.54883E+04  3.62960E+03  9.85845E+03  1.06817E+04  9.26333E+02  1.24263E+04 -5.05407E+03  9.13589E+03
 -6.92846E+03  3.40565E+03 -4.60555E+03 -1.45568E+03 -1.15285E+03 -9.63026E+02 -6.96459E+02  1.86174E+02
 -2.12353E+03  2.99435E+02 -2.45699E+03 -2.91917E+02 -1.06144E+03 -2.91913E+03  9.67655E+01 -4.69971E+03
  4.96397E+03 -3.64706E+03  7.39623E+03 -4.16981E+01  8.46881E+03  6.35891E+03  2.50551E+03  1.21136E+04
 -5.72846E+03  1.33645E+04 -1.28298E+04  7.90781E+03 -1.46111E+04 -9.98130E+02 -1.10456E+04 -9.29597E+03
 -4.37872E+03 -1.28154E+04  3.42502E+03 -1.14291E+04  8.12741E+03 -6.32322E+03  8.42145E+03  4.04820E+02
  4.27417E+03  4.46145E+03 -5.98019E+02  3.77790E+03 -2.23648E+03 -9.23783E+01  1.69339E+02 -2.91936E+03
  3.66079E+03 -1.62175E+03  4.50874E+03  1.46593E+03  3.20877E+03  5.10715E+03  1.73743E+02  6.01413E+03
 -5.73878E+03  5.47930E+03 -8.05514E+03  8.09993E+02 -7.47152E+03 -5.60648E+03 -9.00428E+02 -1.05275E+04
  6.27750E+03 -8.73543E+03  9.71361E+03 -2.31507E+03  9.17166E+03  2.71219E+03  5.68036E+03  7.68967E+03
  8.05561E+02  8.03072E+03 -3.38856E+03  6.76425E+03 -5.28383E+03  3.29116E+03 -4.33985E+03  5.02894E+02
 -2.33280E+03 -1.35205E+02 -2.84231E+03  1.09683E+03 -4.39985E+03  1.60034E+03 -6.20737E+03 -1.51901E+03
 -6.20477E+03 -4.79412E+03 -1.80460E+03 -8.33489E+03  4.01212E+03 -9.19737E+03  7.00808E+03 -4.25524E+03
  8.28244E+03  1.04022E+03  4.92777E+03  6.29768E+03 -9.75187E+02  8.28763E+03 -6.26485E+03  5.58463E+03
