 $NMID ID='MM_0lb_SNR800_19hz_g50_53.RAW', FMTDAT='(8E13.5)'
 TRAMP=1., VOLUME=1. $END
  3.09882E+05  3.56882E+02  3.37420E+05  2.50394E+05  8.45981E+04  3.37334E+05 -1.32426E+05  2.50273E+05
 -1.89702E+05  8.24036E+04 -1.11310E+05 -3.29834E+04  1.51915E+03 -5.03395E+04  5.41677E+04  1.15062E+02
  3.50859E+04  5.27995E+04 -1.67853E+04  7.50215E+04 -6.02703E+04  6.27138E+04 -8.31174E+04  3.16398E+04
 -7.98124E+04 -1.13644E+04 -5.67664E+04 -5.02563E+04 -1.48213E+04 -6.83740E+04  2.69027E+04 -4.49720E+04
  3.89546E+04  4.04426E+03  1.59528E+04  4.69396E+04 -3.39175E+04  4.65124E+04 -6.52255E+04 -4.95335E+02
 -5.20064E+04 -5.57928E+04 -6.21506E+03 -7.53822E+04  3.33492E+04 -5.32374E+04  4.62574E+04 -1.63011E+04
  4.16146E+04  1.10295E+04  3.10577E+04  2.46571E+04  1.56479E+04  2.84475E+04 -4.61497E+03  2.67205E+04
 -2.17763E+04  1.27440E+04 -1.88770E+04 -4.31933E+03  4.54539E+03 -7.58963E+03  2.15012E+04  1.09962E+04
  7.45113E+03  3.37119E+04 -3.05658E+04  3.38956E+04 -6.12730E+04  2.44947E+03 -5.53157E+04 -4.12704E+04
 -1.22918E+04 -6.10124E+04  3.82615E+04 -4.34862E+04  5.56258E+04 -2.32854E+03  3.20719E+04  3.05812E+04
 -6.39774E+03  3.31193E+04 -2.84274E+04  1.34238E+04 -2.76679E+04 -5.40887E+03 -1.44797E+04 -1.01112E+04
 -7.43740E+03 -1.15914E+04 -1.09241E+03 -1.68131E+04  6.57403E+03 -2.23679E+04  1.50741E+04 -1.40360E+04
  1.24105E+04  4.27828E+03 -6.69892E+03  1.32429E+04 -1.93330E+04 -2.29347E+03 -8.03506E+03 -3.05858E+04
  2.08323E+04 -4.04891E+04  4.47855E+04 -1.85081E+04  4.20666E+04  1.85300E+04  1.45131E+04  4.16542E+04
 -1.50451E+04  3.12623E+04 -2.35197E+04  1.06243E+03 -8.30095E+03 -2.63160E+04  2.04703E+04 -3.09463E+04
  3.78428E+04 -7.50500E+03  3.16566E+04  2.26239E+04  1.53825E+04  4.26719E+04 -7.43731E+03  4.53009E+04
 -2.84154E+04  2.98637E+04 -3.71884E+04  8.29382E+03 -3.82695E+04 -1.51263E+04 -2.12013E+04 -3.42666E+04
  6.73411E+03 -3.43961E+04  2.91534E+04 -1.27400E+04  2.66552E+04  1.09013E+04  2.90494E+03  1.78922E+04
 -1.30869E+04  7.05560E+03 -9.68418E+03 -7.56961E+03  5.83088E+03 -9.96500E+03  1.72240E+04  6.53094E+03
  1.25136E+04  2.14660E+04 -6.54808E+03  2.33944E+04 -2.13831E+04  9.25999E+03 -2.51281E+04 -5.96910E+03
 -1.67850E+04 -1.64201E+04 -5.54287E+03 -1.69462E+04  3.66426E+03 -1.46688E+04  1.23131E+04 -1.44168E+04
  2.14106E+04 -1.17529E+04  2.80350E+04  7.81816E+02  2.08942E+04  1.63331E+04  4.12423E+03  3.25655E+04
 -1.59339E+04  2.77011E+04 -2.57874E+04  9.48206E+03 -1.95562E+04 -1.05236E+04 -4.16996E+03 -1.41649E+04
  2.50945E+03 -4.34663E+03 -2.68027E+03  5.14595E+03 -1.30317E+04  5.37669E+03 -1.33713E+04 -4.90787E+03
 -8.77972E+03 -1.56515E+04  4.70266E+03 -1.94356E+04  1.26636E+04 -1.40331E+04  1.45856E+04 -1.47182E+03
  8.96383E+03  1.07465E+04 -1.04590E+03  1.58375E+04 -1.01689E+04  8.90454E+03 -1.55044E+04 -3.38417E+03
 -1.17709E+04 -1.40212E+04 -1.38532E+03 -1.89630E+04  8.74237E+03 -1.50424E+04  1.60109E+04 -7.30202E+03
  1.45866E+04  7.01840E+02  1.03566E+04  4.08355E+03  5.27762E+03  7.69433E+02  7.20161E+03 -1.16158E+03
  1.39270E+04  2.42013E+03  1.44672E+04  1.23856E+04  8.93620E+03  2.46349E+04 -2.95932E+03  2.67371E+04
 -1.55860E+04  2.02010E+04 -2.42556E+04  9.56600E+03 -2.47143E+04 -1.90406E+03 -2.12104E+04 -1.41426E+04
 -1.01272E+04 -2.01486E+04  6.57158E+03 -1.87064E+04  1.63278E+04 -1.09263E+04  1.52946E+04  3.50206E+03
  6.73132E+03  1.10318E+04 -6.99237E+03  1.04301E+04 -1.34659E+04  2.62709E+03 -1.00358E+04 -7.80854E+03
 -2.74472E+02 -1.22494E+04  6.24996E+03 -9.10237E+03  7.97983E+03 -1.47501E+03  1.07144E+03  5.31933E+03
 -5.43231E+03  1.36375E+03 -3.81539E+03 -4.28404E+03  4.04519E+02 -9.89275E+03  7.83992E+03 -9.94744E+03
  1.17255E+04 -4.48401E+03  1.18226E+04  2.57576E+03  1.02149E+04  9.24226E+03  4.64311E+03  1.36628E+04
 -1.99195E+03  1.60051E+04 -9.26521E+03  9.81182E+03 -1.09612E+04  2.76868E+03 -8.13298E+03 -2.00664E+03
 -4.60311E+03 -3.23080E+03 -8.35817E+02  1.48228E+03 -1.90142E+03  1.84332E+03 -3.42854E+03  3.46972E+03
 -8.11559E+03 -5.13406E+02 -8.71552E+03 -7.27875E+03 -3.25938E+03 -1.12570E+04  3.54374E+03 -8.48338E+03
  7.04506E+03 -4.07265E+03  5.14579E+03  1.97722E+03  5.35944E+02  2.94776E+03 -3.52928E+03  3.39240E+01
 -3.50141E+03 -4.81151E+03 -4.65957E+02 -7.11214E+03  3.94508E+03 -7.60694E+03  9.95369E+03 -3.91733E+03
  1.16740E+04  8.09055E+02  8.43988E+03  6.07940E+03  2.18751E+03  8.43834E+03 -5.15533E+03  8.06286E+03
 -6.71277E+03  2.59709E+03 -3.35606E+03 -1.26491E+03  1.26925E+03 -1.78928E+03  4.83501E+03 -9.67959E+02
  4.12623E+03  3.22877E+03  1.24265E+03  6.33418E+03 -4.38642E+03  6.20953E+03 -7.49050E+03  1.78990E+03
 -4.87386E+03 -3.77410E+03 -3.84125E+00 -6.43049E+03  3.79054E+03 -3.12667E+03  3.62969E+03  1.14442E+03
  3.32127E+02  3.05936E+03 -3.90822E+03  4.76812E+03 -4.86870E+03  2.37358E+03 -4.03816E+03 -1.20202E+03
 -2.60336E+03 -5.70816E+03  9.20401E+02 -6.87343E+03  5.69711E+03 -4.43456E+03  6.16918E+03  9.51854E+02
  4.58207E+03  4.90989E+03 -7.93784E+01  7.05114E+03 -4.94685E+03  4.08014E+03 -5.14075E+03 -6.82096E+02
 -5.56427E+03 -5.02301E+03 -1.25712E+03 -4.73699E+03  2.36584E+03 -4.58987E+03  2.71108E+03 -2.82652E+03
  2.76212E+03  1.92984E+02  3.48128E+02  1.51309E+03  7.53032E+02 -1.70866E+02 -1.63895E+02 -1.68098E+03
  3.61184E+03 -4.45733E+02  5.05137E+03  4.53052E+02  5.18357E+03  2.83254E+03  5.14547E+03  6.95991E+03
 -1.41603E+03  8.09409E+03 -7.20402E+03  6.16652E+03 -9.61370E+03  1.11556E+03 -7.41609E+03 -2.49187E+03
 -4.07456E+03 -6.40009E+03 -4.60265E+02 -4.81503E+03  1.85090E+03 -2.05077E+03  1.73818E+03 -1.90945E+03
  1.17696E+03 -1.69889E+03  1.99328E+03 -2.25867E+03  3.41257E+03 -1.44946E+03  3.46610E+03  5.08104E+02
  4.29046E+03  8.81805E+02  9.60595E+02  3.41506E+03 -1.61996E+03  2.48554E+03 -4.27151E+03  2.34703E+03
 -4.66626E+03 -9.66944E+02 -1.60630E+03 -3.15602E+03  5.40429E+02 -4.67026E+03  2.84183E+03 -4.82568E+03
  4.84945E+03 -3.07552E+03  6.55410E+03  3.00679E+02  4.96911E+03  3.72057E+03  1.15573E+03  5.80729E+03
 -1.72738E+03  5.68781E+03 -3.41721E+03  2.01469E+03 -1.80051E+03 -1.04555E+03 -2.12196E+02 -3.81852E+02
 -3.15267E+02  5.96679E+02 -9.59990E+02  2.05858E+03 -2.31347E+03  1.00001E+03 -3.96661E+03 -3.95902E+02
 -1.20059E+03 -3.98244E+03  7.93457E+02 -4.38795E+03  2.69806E+03 -4.08741E+03  3.41200E+03 -1.35552E+03
  3.81235E+03  2.07643E+03  1.89557E+03  2.78421E+03 -1.00972E+03  4.04884E+03 -2.36590E+03  2.43991E+03
 -3.63929E+03  5.35979E+02 -3.42098E+03 -2.24027E+03 -2.18427E+02 -3.16161E+03  1.57450E+03 -2.29744E+03
  2.42990E+03 -1.19380E+03  1.42099E+03  4.46844E+02  4.48771E+02  1.67598E+03  9.54620E+02  3.74025E+02
  1.46860E+03  5.58082E+02  1.21588E+03  1.09686E+03  8.15555E+02  2.23813E+03  1.41010E+03  1.71566E+03
 -1.28720E+03  2.88567E+03 -2.41751E+03  3.84556E+03 -2.72809E+03  1.04350E+03 -3.81323E+03 -2.56205E+02
 -1.46807E+03 -3.29393E+03  7.00300E+02 -4.41233E+03  1.67336E+03 -2.35382E+03  2.64748E+03 -6.59640E+02
  2.44737E+03  1.49851E+03  4.83744E+02  1.72420E+03 -4.20672E+02  1.07491E+03 -1.04124E+03  1.60704E+02
 -6.14046E+02 -1.31210E+03  1.24877E+03 -1.37067E+03  1.12421E+03 -1.11416E+03  1.30874E+03  3.74087E+02
  4.40391E+02  2.25997E+02  8.36434E+02 -3.74980E+02  6.21713E+00  4.24084E+02  1.79187E+03 -2.15425E+02
  2.34688E+02 -2.53095E+02  1.65785E+03  5.54504E+02  2.37357E+02  2.46718E+03 -4.30397E+02  2.70785E+03
 -1.47361E+03  8.28433E+02 -1.85182E+03  4.92195E+02 -1.98897E+03 -5.72335E+02  9.07168E+01 -1.09342E+03
  3.19430E+02 -1.15315E+03  4.57222E+02 -5.22416E+02  3.05504E+02  1.02380E+03 -5.48406E+02  1.16484E+03
 -1.12862E+03  8.20008E+02 -1.02773E+03 -1.00334E+03 -7.29353E+02 -2.19103E+03  8.44868E+00 -1.19772E+03
  2.15813E+02 -6.15499E+02  8.65663E+02  1.72590E+02  1.31699E+03 -5.21273E+02  3.07994E+02  1.09556E+03
 -4.00587E+02 -8.84753E+01 -9.08354E+02 -4.62102E+02  6.15387E+02 -6.00308E+02  1.53573E+03 -7.51132E+02
  1.30000E+03  2.08014E+02  2.69634E+03  6.54962E+02  1.04996E+03  1.43120E+03 -7.57145E+01  1.46621E+03
 -1.18578E+03  1.09000E+02 -1.40672E+03 -7.59950E+01 -5.36930E+02 -1.52307E+03  2.49839E+01 -4.13404E+02
  1.54234E+03 -5.47072E+02  7.79842E+02  7.70044E+02 -1.78643E+01  1.06243E+03  1.27444E+02  9.96085E+02
 -5.86954E+02  1.05468E+03 -5.44792E+02  3.06606E+02  7.29342E+01  2.93947E+02 -8.27264E+02  2.94129E+02
 -7.14308E+02  9.92975E+02 -1.49147E+03  2.45502E+02 -1.32668E+03  3.16511E+02 -2.23150E+03 -8.02237E+02
 -6.31654E+02 -1.87303E+03  3.76473E+02 -2.27301E+03  1.10732E+03 -2.28756E+03  2.63502E+03 -7.74305E+02
  2.41203E+03 -1.23396E+02  7.89879E+02  1.25846E+03 -4.99963E+02  1.30150E+03 -5.01563E+02  9.96461E+02
 -8.71885E+02  6.50885E+02 -6.35293E+02 -6.52571E+01 -3.48698E+02  3.03573E+02 -5.78806E+02  8.41873E+01
 -7.82252E+02 -6.69300E+01 -7.82978E+02 -9.34598E+01  4.66732E+02 -6.55189E+02 -3.95684E+02 -7.27640E+02
  1.36017E+03 -6.13988E+02  1.78959E+02  3.96631E+02  1.10361E+03  7.58573E+02 -3.76979E+02  1.48023E+03
 -7.98699E+02  1.91797E+03 -1.26370E+03  1.18349E+03 -1.52307E+03 -3.37866E+01 -9.47409E+02 -9.98491E+02
 -8.62137E+02 -1.32191E+03  2.01517E+02 -1.19709E+03  6.77908E+02 -3.71472E+02  4.91574E+02  7.51414E+01
  5.67584E+02  2.80173E+02  5.48326E+01  1.56388E+02 -3.31371E+02 -4.21642E+01 -1.74050E+02 -1.96635E+02
  3.40033E+02  2.69726E+02  2.32119E+02  3.48574E+02 -6.03370E+01  4.04816E+02  2.36004E+02  5.30826E+00
 -4.01237E+02  4.28236E+02 -5.05627E+02  1.91235E+01 -7.61964E+02 -4.67733E+02  1.40297E+01 -8.21733E+02
  3.48479E+02 -5.93882E+01  4.10876E+02 -2.71491E+00  1.06856E+03 -8.29258E+02  1.62292E+02  6.89214E+02
  1.92219E+02  3.96538E+02 -2.73265E+02  3.91926E+02 -4.48653E+02  6.59103E+02 -1.78371E+02  2.63675E+02
  2.12821E+01 -7.69785E+01 -5.53442E+02  5.90049E+01 -6.28220E+02  1.62427E+02 -8.50098E+02 -6.30795E+01
 -9.97449E+02  4.45339E+02 -5.33849E+02 -6.74316E+02  6.31715E+02 -1.41388E+03  6.56770E+02 -3.85053E+02
  5.47066E+02  1.31941E+02 -4.00505E+02  1.50786E+02 -1.39747E+02  8.39414E+02 -4.05311E+02  5.41047E+02
