 $NMID ID='MM_0lb_SNR800_10hz_g60_62.RAW', FMTDAT='(8E13.5)'
 TRAMP=1., VOLUME=1. $END
  3.09785E+05  3.80865E+02  3.37934E+05  2.50504E+05  8.50031E+04  3.38325E+05 -1.32903E+05  2.51760E+05
 -1.91180E+05  8.41064E+04 -1.12802E+05 -3.23348E+04  1.88016E+02 -5.06348E+04  5.37183E+04 -4.44899E+02
  3.56613E+04  5.22692E+04 -1.68428E+04  7.59457E+04 -6.13428E+04  6.43122E+04 -8.55315E+04  3.24792E+04
 -8.20331E+04 -1.16797E+04 -5.84292E+04 -5.26706E+04 -1.53092E+04 -7.13202E+04  2.84288E+04 -4.68467E+04
  4.11667E+04  3.66023E+03  1.66669E+04  4.86476E+04 -3.46313E+04  4.82251E+04 -6.82472E+04  2.86117E+01
 -5.49006E+04 -5.79093E+04 -7.24520E+03 -7.88833E+04  3.48850E+04 -5.73057E+04  5.02681E+04 -1.84505E+04
  4.55866E+04  1.14015E+04  3.30192E+04  2.68478E+04  1.58861E+04  3.08718E+04 -6.04726E+03  2.76759E+04
 -2.23050E+04  1.19523E+04 -1.78261E+04 -5.99687E+03  7.16899E+03 -7.30492E+03  2.36720E+04  1.38484E+04
  6.89720E+03  3.73730E+04 -3.41619E+04  3.72902E+04 -6.59332E+04  2.07609E+03 -5.88395E+04 -4.46645E+04
 -1.26910E+04 -6.60927E+04  4.14674E+04 -4.74176E+04  6.16782E+04 -2.47757E+03  3.68482E+04  3.43068E+04
 -5.43234E+03  4.00416E+04 -3.15172E+04  1.91333E+04 -3.34887E+04 -3.27541E+03 -1.88409E+04 -1.21180E+04
 -9.62053E+03 -1.53411E+04 -4.43998E+02 -2.01149E+04  8.39874E+03 -2.35910E+04  1.61133E+04 -1.28134E+04
  1.01479E+04  6.37327E+03 -1.03412E+04  1.27147E+04 -2.30883E+04 -6.63968E+03 -8.88398E+03 -3.78687E+04
  2.55211E+04 -4.70911E+04  5.21957E+04 -2.10906E+04  4.88614E+04  2.08962E+04  1.73666E+04  4.71741E+04
 -1.68411E+04  3.66844E+04 -2.81261E+04  2.62383E+03 -1.19750E+04 -2.96849E+04  2.14572E+04 -3.68164E+04
  4.48105E+04 -1.09768E+04  4.08199E+04  2.49014E+04  2.12794E+04  5.11625E+04 -8.01048E+03  5.63672E+04
 -3.58149E+04  3.85447E+04 -4.76009E+04  1.08306E+04 -4.79052E+04 -1.87617E+04 -2.65111E+04 -4.24381E+04
  7.92021E+03 -4.23725E+04  3.45132E+04 -1.70425E+04  3.22957E+04  1.05974E+04  5.59932E+03  2.14156E+04
 -1.38013E+04  9.78759E+03 -1.11793E+04 -7.64128E+03  5.99584E+03 -1.15181E+04  1.86381E+04  5.70065E+03
  1.47930E+04  2.29439E+04 -5.09533E+03  2.72030E+04 -2.34550E+04  1.44347E+04 -3.18366E+04 -3.02116E+03
 -2.55670E+04 -1.81562E+04 -1.19305E+04 -2.52908E+04  4.32338E+03 -2.60164E+04  2.03590E+04 -2.32830E+04
  3.19458E+04 -1.45132E+04  3.80067E+04  5.08919E+03  2.75480E+04  2.44238E+04  4.47288E+03  4.16122E+04
 -1.96184E+04  3.37728E+04 -3.03160E+04  1.15998E+04 -2.24282E+04 -1.05960E+04 -4.78412E+03 -1.31734E+04
  9.26153E+02 -9.35520E+02 -7.73658E+03  8.40208E+03 -2.03606E+04  5.02131E+03 -1.98144E+04 -9.86573E+03
 -1.22718E+04 -2.35581E+04  6.28440E+03 -2.81380E+04  1.91802E+04 -2.00909E+04  2.25947E+04 -1.81626E+03
  1.43777E+04  1.61332E+04 -1.63396E+03  2.30750E+04 -1.65319E+04  1.32083E+04 -2.30210E+04 -4.75785E+03
 -1.73603E+04 -2.11720E+04 -1.94250E+03 -2.81634E+04  1.20996E+04 -2.29266E+04  2.33354E+04 -1.20248E+04
  2.23295E+04 -3.83604E+02  1.61156E+04  5.37342E+03  8.85050E+03  1.54897E+03  1.24311E+04 -2.23968E+03
  2.21313E+04  3.02523E+03  2.55211E+04  1.80063E+04  1.75830E+04  3.79483E+04 -2.64358E+03  4.41684E+04
 -2.51041E+04  3.74184E+04 -4.20988E+04  1.91404E+04 -4.43729E+04 -3.44081E+03 -3.64343E+04 -2.56319E+04
 -1.43865E+04 -3.74315E+04  1.34434E+04 -3.29729E+04  2.78302E+04 -1.53344E+04  2.44420E+04  7.92035E+03
  8.26630E+03  1.84279E+04 -1.16267E+04  1.57171E+04 -2.03611E+04  2.40982E+03 -1.55244E+04 -1.28726E+04
 -4.16762E+02 -1.94236E+04  1.00262E+04 -1.41980E+04  1.33481E+04 -1.44082E+03  3.56048E+03  8.89183E+03
 -8.58322E+03  3.98596E+03 -8.90335E+03 -7.02627E+03 -2.15930E+03 -1.81987E+04  1.21783E+04 -1.99025E+04
  2.28301E+04 -1.12149E+04  2.60671E+04  3.26701E+03  2.27442E+04  1.86090E+04  1.05070E+04  2.92192E+04
 -5.87772E+03  3.10221E+04 -1.99537E+04  1.91452E+04 -2.25010E+04  4.06155E+03 -1.51969E+04 -6.16580E+03
 -6.37491E+03 -7.54923E+03 -4.04653E+02  5.83190E+02 -3.05230E+03  3.19819E+03 -7.62641E+03  5.32370E+03
 -1.41847E+04 -1.01468E+03 -1.44474E+04 -1.18813E+04 -6.22341E+03 -1.95512E+04  5.91326E+03 -1.57074E+04
  1.30016E+04 -6.23360E+03  8.71073E+03  4.12353E+03 -1.15546E+02  6.35214E+03 -7.60737E+03 -3.44745E+01
 -7.50248E+03 -1.02754E+04 -8.65731E+02 -1.57671E+04  9.05667E+03 -1.62653E+04  1.98490E+04 -8.55600E+03
  2.34113E+04  2.43636E+03  1.69236E+04  1.42277E+04  3.31628E+03  1.86094E+04 -9.56381E+03  1.56962E+04
 -1.24556E+04  4.82583E+03 -6.83255E+03 -3.22579E+03  2.18272E+03 -4.77454E+03  8.24974E+03 -1.09283E+03
  7.00272E+03  6.73046E+03  1.28402E+03  1.24788E+04 -9.10909E+03  1.20415E+04 -1.55543E+04  2.97945E+03
 -1.06708E+04 -8.28955E+03  3.02689E+02 -1.36736E+04  8.49438E+03 -6.92886E+03  8.92956E+03  3.61667E+03
  2.41066E+03  1.01182E+04 -7.90481E+03  1.15140E+04 -1.35822E+04  4.91991E+03 -1.35901E+04 -4.91347E+03
 -7.64666E+03 -1.56442E+04  3.79052E+03 -1.82485E+04  1.53542E+04 -1.09558E+04  1.66293E+04  2.73566E+03
  9.76771E+03  1.30334E+04 -1.49552E+03  1.54143E+04 -1.12442E+04  8.89828E+03 -1.23432E+04 -1.39644E+03
 -1.08631E+04 -1.05517E+04 -1.76999E+03 -1.20727E+04  5.99353E+03 -9.52850E+03  7.36989E+03 -3.71351E+03
  4.91556E+03  2.20810E+03 -9.47534E+02  2.06676E+03 -9.07565E+02 -3.04395E+03  2.30492E+03 -7.54857E+03
  1.16716E+04 -4.92722E+03  1.60533E+04  2.11424E+03  1.54353E+04  1.05727E+04  1.01257E+04  2.05183E+04
 -4.55523E+03  2.33227E+04 -1.94812E+04  1.71646E+04 -2.49410E+04  3.55315E+03 -2.00910E+04 -8.75996E+03
 -1.01857E+04 -1.68475E+04 -5.24579E+02 -1.38851E+04  5.20347E+03 -7.76130E+03  5.05143E+03 -4.81226E+03
  3.84228E+03 -2.87426E+03  3.98247E+03 -3.56729E+03  5.83080E+03 -3.57016E+03  8.08518E+03 -1.38484E+03
  1.09273E+04  2.34361E+03  5.78603E+03  9.07153E+03 -2.33404E+03  1.11212E+04 -1.11237E+04  8.53770E+03
 -1.41789E+04 -1.54305E+03 -9.46315E+03 -9.77076E+03 -1.61367E+03 -1.52181E+04  8.51000E+03 -1.55113E+04
  1.61797E+04 -8.36032E+03  1.88335E+04  2.95238E+03  1.29245E+04  1.35340E+04  1.77680E+03  1.72613E+04
 -7.43790E+03  1.38216E+04 -1.01710E+04  4.76343E+03 -7.16280E+03 -1.42881E+03 -2.62813E+03 -2.22003E+03
 -1.49833E+03  9.89334E+01 -2.29356E+03  3.11017E+03 -5.83345E+03  2.64839E+03 -9.92724E+03 -1.26221E+03
 -7.03632E+03 -9.74399E+03  5.12956E+01 -1.43395E+04  8.82021E+03 -1.30333E+04  1.45769E+04 -4.18055E+03
  1.34869E+04  6.85504E+03  6.40122E+03  1.23416E+04 -2.60639E+03  1.43002E+04 -1.05278E+04  8.56446E+03
 -1.32416E+04  6.80074E+02 -1.05634E+04 -8.47971E+03 -1.13794E+03 -1.18760E+04  5.91676E+03 -8.49552E+03
  8.94418E+03 -2.69977E+03  6.16954E+03  2.22650E+03  2.12809E+03  4.27293E+03  1.55398E+03  1.66640E+03
  2.73930E+03  1.08726E+03  3.39919E+03  1.93504E+03  4.06790E+03  4.94110E+03  3.88968E+03  7.68994E+03
 -3.02991E+03  1.12263E+04 -9.89888E+03  1.11087E+04 -1.49018E+04  2.73721E+03 -1.51182E+04 -6.45280E+03
 -7.26402E+03 -1.43296E+04  2.30798E+03 -1.58587E+04  8.76390E+03 -9.94870E+03  1.12872E+04 -2.91475E+03
  8.91569E+03  5.37533E+03  2.07380E+03  8.35969E+03 -3.95130E+03  5.52128E+03 -5.60804E+03 -9.11541E+02
 -2.36312E+03 -5.83730E+03  3.60904E+03 -6.31844E+03  5.98321E+03 -2.90533E+03  6.07225E+03  1.00026E+03
  3.74510E+03  2.82814E+03  1.56814E+03  2.42772E+03 -9.16655E+02  1.87049E+03  1.74213E+03 -6.97376E+02
  2.10234E+03 -6.65365E+02  5.86914E+03  2.65340E+03  3.31231E+03  7.91114E+03 -1.14212E+03  1.00415E+04
 -7.09598E+03  6.89529E+03 -8.88127E+03  1.91815E+03 -8.42300E+03 -3.14273E+03 -3.22089E+03 -5.76120E+03
  1.08036E+03 -5.60271E+03  3.50086E+03 -2.55983E+03  2.89725E+03  2.52740E+03 -1.39239E+03  4.68900E+03
 -5.52655E+03  2.73501E+03 -6.89172E+03 -3.37982E+03 -3.75484E+03 -7.58546E+03  1.05344E+03 -7.99158E+03
  4.14039E+03 -4.16057E+03  5.90993E+03 -6.98243E+02  4.91005E+03  2.35277E+03  5.59343E+02  4.28408E+03
 -2.85334E+03  9.58654E+02 -3.66979E+03 -3.03649E+03  1.94948E+03 -6.24787E+03  7.10829E+03 -5.37554E+03
  8.85720E+03  4.27569E+02  8.47380E+03  6.30476E+03  2.86078E+03  9.40002E+03 -3.16439E+03  9.19958E+03
 -7.51200E+03  3.97768E+03 -7.82039E+03 -1.69954E+03 -4.54895E+03 -6.38662E+03  1.43757E+03 -5.39390E+03
  5.74179E+03 -2.66899E+03  4.74479E+03  2.61519E+03  1.97229E+03  5.23890E+03 -6.58508E+02  4.04101E+03
 -2.70253E+03  2.87425E+03 -2.36490E+03  1.10381E+03 -1.11303E+03  8.55080E+02 -1.66628E+03  1.95534E+03
 -1.94028E+03  3.92095E+03 -6.10501E+03  3.09626E+03 -9.24514E+03  3.12129E+02 -1.03563E+04 -6.35490E+03
 -4.96794E+03 -1.20222E+04  2.36788E+03 -1.40609E+04  8.79191E+03 -1.08743E+04  1.35398E+04 -4.26326E+03
  1.24670E+04  2.59284E+03  7.26396E+03  8.45131E+03  9.66695E+02  9.62606E+03 -3.92667E+03  7.08313E+03
 -5.58277E+03  3.10527E+03 -3.24386E+03 -1.09968E+03 -6.70523E+02 -8.86094E+02 -9.50027E+02 -3.56220E+02
 -1.93894E+03  1.82590E+02 -1.97800E+03 -5.15254E+02 -6.22478E+02 -2.23659E+03 -1.51194E+02 -3.23768E+03
  4.10478E+03 -2.86980E+03  5.82127E+03  1.85404E+02  6.60155E+03  5.07652E+03  1.78919E+03  9.22858E+03
 -4.43292E+03  1.05101E+04 -9.62710E+03  6.49499E+03 -1.13735E+04 -7.62134E+02 -8.64615E+03 -7.06708E+03
 -3.29373E+03 -9.46532E+03  2.36105E+03 -8.91124E+03  6.10822E+03 -4.37616E+03  5.74208E+03  4.01067E+02
  3.37646E+03  3.31497E+03 -1.92475E+02  3.11489E+03 -1.87534E+03 -4.60614E+02 -2.77068E+02 -1.92277E+03
  3.03316E+03 -1.15769E+03  3.51699E+03  8.74438E+02  2.22267E+03  3.89472E+03  1.82329E+01  4.85082E+03
 -4.12368E+03  4.27406E+03 -6.39097E+03  3.09624E+02 -5.66850E+03 -4.38512E+03 -6.73268E+02 -8.04434E+03
  4.45996E+03 -6.52712E+03  6.98576E+03 -2.07882E+03  6.97846E+03  1.52041E+03  4.30115E+03  5.74054E+03
  1.01817E+03  5.96525E+03 -2.34118E+03  4.75657E+03 -3.73292E+03  2.93651E+03 -3.09066E+03  3.57497E+02
 -1.80326E+03 -1.67300E+02 -1.38296E+03  7.47840E+02 -3.10264E+03  1.16995E+03 -4.62593E+03 -1.13458E+03
 -4.35508E+03 -3.16950E+03 -1.49995E+03 -6.00277E+03  2.72067E+03 -6.74455E+03  5.40663E+03 -3.30848E+03
  6.34193E+03  6.70341E+02  3.10852E+03  4.46222E+03 -4.06728E+02  5.93064E+03 -4.78755E+03  4.07085E+03
