 $NMID ID='MM_0lb_SNR800_16hz_g45_51.RAW', FMTDAT='(8E13.5)'
 TRAMP=1., VOLUME=1. $END
  3.09735E+05  4.43060E+02  3.37494E+05  2.50498E+05  8.45357E+04  3.37583E+05 -1.32661E+05  2.50594E+05
 -1.89843E+05  8.27409E+04 -1.11509E+05 -3.23926E+04  1.19639E+03 -5.04581E+04  5.37220E+04  2.93729E+02
  3.51650E+04  5.27275E+04 -1.67031E+04  7.52357E+04 -6.06332E+04  6.30339E+04 -8.36382E+04  3.15455E+04
 -8.01964E+04 -1.10750E+04 -5.69627E+04 -5.04480E+04 -1.52363E+04 -6.89016E+04  2.70461E+04 -4.53560E+04
  3.96787E+04  3.97160E+03  1.58445E+04  4.74157E+04 -3.41985E+04  4.67282E+04 -6.57922E+04 -3.17917E+02
 -5.23968E+04 -5.63345E+04 -6.47080E+03 -7.59216E+04  3.30501E+04 -5.40078E+04  4.71040E+04 -1.68240E+04
  4.23322E+04  1.11686E+04  3.11136E+04  2.50723E+04  1.59502E+04  2.85674E+04 -4.77350E+03  2.69917E+04
 -2.17609E+04  1.27419E+04 -1.89233E+04 -4.74515E+03  4.79304E+03 -7.71456E+03  2.18652E+04  1.15787E+04
  7.57744E+03  3.40556E+04 -3.11027E+04  3.45422E+04 -6.24202E+04  1.93683E+03 -5.59424E+04 -4.18155E+04
 -1.21395E+04 -6.19456E+04  3.89622E+04 -4.42370E+04  5.70427E+04 -2.21905E+03  3.31153E+04  3.15836E+04
 -6.15339E+03  3.45129E+04 -2.91300E+04  1.43350E+04 -2.87618E+04 -5.13545E+03 -1.56711E+04 -1.04258E+04
 -7.86288E+03 -1.22893E+04 -9.42457E+02 -1.72296E+04  6.89774E+03 -2.25446E+04  1.52194E+04 -1.35691E+04
  1.17492E+04  4.76251E+03 -7.12734E+03  1.30219E+04 -2.02353E+04 -3.35566E+03 -8.24941E+03 -3.22365E+04
  2.16342E+04 -4.17149E+04  4.63503E+04 -1.90154E+04  4.34025E+04  1.86305E+04  1.50927E+04  4.26844E+04
 -1.55294E+04  3.23176E+04 -2.41557E+04  1.27650E+03 -9.09920E+03 -2.69555E+04  2.08238E+04 -3.25692E+04
  3.93322E+04 -8.21999E+03  3.33868E+04  2.30364E+04  1.65429E+04  4.42275E+04 -7.56289E+03  4.75038E+04
 -2.97499E+04  3.16425E+04 -3.95654E+04  8.89894E+03 -4.04992E+04 -1.56215E+04 -2.23423E+04 -3.60503E+04
  7.03040E+03 -3.56740E+04  3.00188E+04 -1.36629E+04  2.76855E+04  1.08322E+04  3.50349E+03  1.85438E+04
 -1.33961E+04  7.69072E+03 -1.01468E+04 -7.37894E+03  5.74565E+03 -1.03826E+04  1.75441E+04  6.32188E+03
  1.30250E+04  2.20126E+04 -6.35261E+03  2.40460E+04 -2.20754E+04  1.04853E+04 -2.64096E+04 -5.57189E+03
 -1.85200E+04 -1.67855E+04 -6.94478E+03 -1.87404E+04  3.79449E+03 -1.68418E+04  1.37669E+04 -1.63275E+04
  2.33440E+04 -1.20479E+04  3.02642E+04  1.63371E+03  2.23594E+04  1.78436E+04  4.13603E+03  3.41820E+04
 -1.68693E+04  2.85453E+04 -2.65352E+04  9.89113E+03 -2.05299E+04 -1.04596E+04 -4.27683E+03 -1.36665E+04
  2.28943E+03 -3.05730E+03 -3.65922E+03  5.81505E+03 -1.44642E+04  5.35161E+03 -1.48523E+04 -5.90654E+03
 -9.30576E+03 -1.71284E+04  4.46605E+03 -2.09222E+04  1.39133E+04 -1.53493E+04  1.61923E+04 -1.68763E+03
  9.98029E+03  1.19816E+04 -1.18280E+03  1.72538E+04 -1.13068E+04  9.81428E+03 -1.72402E+04 -4.03785E+03
 -1.27887E+04 -1.52721E+04 -1.60801E+03 -2.08589E+04  9.21946E+03 -1.68359E+04  1.74694E+04 -7.98361E+03
  1.61640E+04  5.87896E+02  1.15184E+04  3.90994E+03  5.93407E+03  7.58148E+02  8.46734E+03 -1.46926E+03
  1.54650E+04  2.69860E+03  1.69457E+04  1.39913E+04  1.10053E+04  2.71793E+04 -3.28299E+03  3.03168E+04
 -1.79144E+04  2.34769E+04 -2.79444E+04  1.17762E+04 -2.88838E+04 -2.24792E+03 -2.43941E+04 -1.65722E+04
 -1.07851E+04 -2.34490E+04  8.24563E+03 -2.19012E+04  1.87657E+04 -1.17639E+04  1.71267E+04  4.59559E+03
  7.03212E+03  1.27713E+04 -7.94810E+03  1.15498E+04 -1.46915E+04  2.27554E+03 -1.12575E+04 -8.84517E+03
 -7.44839E+01 -1.37716E+04  6.99034E+03 -1.03792E+04  8.64687E+03 -1.31067E+03  1.73824E+03  5.48005E+03
 -6.34091E+03  1.87760E+03 -4.56953E+03 -5.06941E+03  2.86760E+02 -1.19706E+04  8.32150E+03 -1.18609E+04
  1.43659E+04 -5.94200E+03  1.48136E+04  3.19639E+03  1.28862E+04  1.11572E+04  6.05354E+03  1.70319E+04
 -2.62620E+03  1.88041E+04 -1.16850E+04  1.19612E+04 -1.33736E+04  3.21493E+03 -9.96579E+03 -2.55314E+03
 -4.94656E+03 -3.96279E+03 -5.43734E+02  1.33332E+03 -2.37281E+03  2.16815E+03 -4.15682E+03  3.78278E+03
 -9.18625E+03 -3.53507E+02 -9.91165E+03 -8.03762E+03 -3.96595E+03 -1.28700E+04  4.06657E+03 -9.93683E+03
  8.16291E+03 -4.20273E+03  6.07517E+03  2.65008E+03  3.51637E+02  3.50926E+03 -4.39472E+03 -5.11645E+01
 -4.06861E+03 -5.95912E+03 -8.62201E+02 -8.97687E+03  4.99213E+03 -9.39267E+03  1.18410E+04 -4.81621E+03
  1.36239E+04  1.10154E+03  1.03197E+04  7.60153E+03  2.19723E+03  1.05037E+04 -6.03385E+03  9.53292E+03
 -8.09659E+03  3.34765E+03 -4.02160E+03 -1.69511E+03  1.00625E+03 -2.58188E+03  5.13647E+03 -1.04503E+03
  4.89796E+03  3.93024E+03  6.91319E+02  7.46525E+03 -5.49063E+03  7.28926E+03 -9.04551E+03  2.04410E+03
 -6.14666E+03 -4.46252E+03  3.75453E+02 -8.09858E+03  4.85054E+03 -3.86214E+03  4.64262E+03  1.29418E+03
  8.89606E+02  4.40519E+03 -4.85563E+03  5.84502E+03 -6.34488E+03  2.56968E+03 -5.88663E+03 -1.83431E+03
 -3.93661E+03 -7.77989E+03  1.53501E+03 -9.07808E+03  7.54958E+03 -5.90150E+03  8.11518E+03  1.49823E+03
  5.71118E+03  6.63220E+03  4.59960E+00  8.61482E+03 -6.27716E+03  5.15338E+03 -6.35202E+03 -6.99695E+02
 -6.70369E+03 -6.37338E+03 -1.34234E+03 -6.20721E+03  3.26559E+03 -5.50774E+03  3.96913E+03 -3.17891E+03
  3.29535E+03  4.80350E+02 -6.90314E+01  1.38387E+03  3.49789E+02 -8.95125E+02  5.09654E+02 -2.77183E+03
  5.18906E+03 -1.28064E+03  7.13870E+03  8.00344E+02  7.11696E+03  4.62349E+03  6.20497E+03  9.57365E+03
 -1.87107E+03  1.10802E+04 -9.86497E+03  8.43327E+03 -1.25680E+04  1.53145E+03 -9.79939E+03 -3.72647E+03
 -4.85043E+03 -8.18201E+03 -3.94388E+02 -6.89710E+03  2.51716E+03 -3.18292E+03  2.14535E+03 -2.33083E+03
  1.78596E+03 -1.71395E+03  2.64933E+03 -2.86233E+03  3.98129E+03 -1.70667E+03  4.29899E+03  3.29269E+02
  5.51507E+03  1.51448E+03  1.67602E+03  4.49909E+03 -1.66436E+03  4.11261E+03 -5.61991E+03  3.70043E+03
 -6.66361E+03 -1.14108E+03 -3.11188E+03 -4.58536E+03 -3.57073E+01 -7.07962E+03  4.19023E+03 -7.19838E+03
  6.77138E+03 -3.99020E+03  8.76454E+03  4.62998E+02  6.72318E+03  6.03438E+03  1.28472E+03  7.73456E+03
 -3.08081E+03  7.30140E+03 -4.92620E+03  2.53450E+03 -2.84996E+03 -1.04345E+03 -1.13060E+03 -6.93679E+02
 -1.08084E+03  3.32633E+02 -1.07408E+03  2.03068E+03 -3.05612E+03  1.49196E+03 -5.23666E+03 -5.95930E+02
 -2.60728E+03 -5.15162E+03  5.88047E+02 -6.38401E+03  3.43851E+03 -5.93772E+03  5.56315E+03 -1.60045E+03
  5.76703E+03  3.04688E+03  2.44273E+03  4.78069E+03 -1.18839E+03  6.02168E+03 -3.96710E+03  3.61874E+03
 -5.53389E+03  6.72718E+02 -4.46786E+03 -3.56334E+03 -3.78703E+02 -4.61836E+03  2.45531E+03 -3.65202E+03
  3.70651E+03 -1.53552E+03  2.39510E+03  4.96932E+02  8.12205E+02  1.99804E+03  6.68243E+02  6.77769E+02
  1.89927E+03  4.27231E+02  1.64875E+03  1.19846E+03  1.62802E+03  2.72288E+03  1.97800E+03  2.56214E+03
 -1.48753E+03  4.35977E+03 -3.90492E+03  5.04280E+03 -5.10650E+03  1.72284E+03 -5.85403E+03 -1.36942E+03
 -2.51983E+03 -5.49877E+03  1.06988E+03 -6.40430E+03  2.68219E+03 -3.69521E+03  4.26393E+03 -1.51152E+03
  3.53461E+03  2.43424E+03  7.29157E+02  3.50833E+03 -1.22984E+03  1.67761E+03 -1.73313E+03 -4.41588E+02
 -9.82616E+02 -2.13844E+03  1.75795E+03 -2.03875E+03  1.93885E+03 -1.14361E+03  2.01947E+03  5.91909E+02
  1.06631E+03  4.22430E+02  9.43062E+02  4.49226E+01 -3.88088E+02  9.21618E+02  1.28976E+03 -4.67887E+02
  5.18336E+02 -3.83261E+02  2.57054E+03  8.22622E+02  6.36599E+02  3.40681E+03 -5.20513E+02  3.73643E+03
 -2.51953E+03  1.99004E+03 -3.25152E+03  4.17970E+02 -3.31308E+03 -1.38441E+03 -6.77372E+02 -1.78787E+03
  6.04174E+02 -1.86904E+03  1.30725E+03 -1.00606E+03  7.34837E+02  1.76639E+03 -7.21368E+02  1.61251E+03
 -2.09222E+03  1.27164E+03 -1.79697E+03 -1.69700E+03 -1.07611E+03 -2.72618E+03  3.99378E+02 -2.50546E+03
  8.97555E+02 -1.08611E+03  1.58346E+03 -6.70513E+01  1.72635E+03  2.89490E+02  2.87934E+02  1.71355E+03
 -7.49435E+02  1.45732E+02 -1.22439E+03 -6.46722E+02  5.64466E+02 -1.48911E+03  2.33777E+03 -1.57425E+03
  2.47661E+03  3.07054E+02  3.53712E+03  1.36073E+03  1.43719E+03  2.82485E+03 -6.92141E+02  2.83286E+03
 -2.25963E+03  7.44350E+02 -2.27063E+03 -2.98154E+02 -1.21930E+03 -1.96599E+03  6.49601E+02 -1.47908E+03
  2.14536E+03 -1.00938E+03  1.48016E+03  9.02164E+02  4.24686E+02  1.78307E+03  2.09855E+02  1.52649E+03
 -7.17432E+02  1.44438E+03 -5.31904E+02  4.75735E+02  3.51183E+01  3.27892E+02 -7.06214E+02  7.16684E+02
 -1.01232E+03  1.50483E+03 -2.38673E+03  9.59064E+02 -2.70694E+03  3.60560E+02 -3.71273E+03 -1.56025E+03
 -1.79616E+03 -3.55754E+03  8.63747E+02 -4.45799E+03  2.08097E+03 -3.69398E+03  4.15211E+03 -1.23477E+03
  3.71029E+03  4.32610E+02  2.10595E+03  2.70160E+03 -4.50580E+02  2.52939E+03 -1.25874E+03  2.19767E+03
 -1.52600E+03  8.30264E+02 -1.00178E+03 -4.21353E+02 -8.06813E+02 -1.15478E+02 -6.46688E+02 -5.78415E+00
 -1.30822E+03 -1.62288E+02 -1.09154E+03 -6.55969E+01  6.62066E+01 -7.24958E+02 -3.53395E+02 -1.23797E+03
  1.67677E+03 -8.08812E+02  8.49239E+02  1.65957E+02  2.03204E+03  1.60338E+03 -3.80720E+02  2.60745E+03
 -1.45346E+03  3.46615E+03 -2.44629E+03  2.09495E+03 -3.12022E+03 -4.47481E+02 -2.17600E+03 -2.29306E+03
 -1.38490E+03 -2.42468E+03  4.74703E+02 -2.32225E+03  1.33431E+03 -1.20128E+03  1.26850E+03  5.66995E+02
  8.82096E+02  7.99016E+02  1.08658E+02  6.93066E+02 -5.94206E+02 -1.80755E+02  1.33209E+02 -7.65456E+02
  1.04719E+03  4.72722E+00  9.30261E+02  2.88468E+02  4.59940E+02  1.13590E+03  2.22333E+02  9.56192E+02
 -1.01392E+03  1.18323E+03 -1.37647E+03  1.90796E+02 -1.29787E+03 -9.40223E+02  8.55693E+01 -1.95256E+03
  7.79278E+02 -1.66715E+03  1.64627E+03 -3.17126E+02  1.61158E+03 -6.20001E+02  8.89042E+02  1.23771E+03
  6.62870E+02  9.38240E+02 -6.09804E+02  1.27279E+03 -8.83150E+02  9.31388E+02 -7.27957E+02  9.29144E+01
 -2.00291E+02 -1.64636E+02 -7.01280E+02  1.85611E+02 -8.62377E+02  2.33814E+02 -1.42596E+03 -4.28176E+02
 -1.68683E+03 -3.28736E+02 -2.83225E+02 -1.10543E+03  1.00345E+03 -2.07934E+03  1.22039E+03 -4.93431E+02
  1.24726E+03  1.54632E+02  3.04935E+02  7.92021E+02 -3.58976E+02  1.39092E+03 -7.26220E+02  9.51582E+02
