 $NMID ID='MM_0lb_SNR800_19hz_g40_71.RAW', FMTDAT='(8E13.5)'
 TRAMP=1., VOLUME=1. $END
  3.09831E+05  3.72199E+02  3.37146E+05  2.50259E+05  8.40560E+04  3.37043E+05 -1.32490E+05  2.49605E+05
 -1.89459E+05  8.23745E+04 -1.10576E+05 -3.29647E+04  1.36667E+03 -5.03614E+04  5.42405E+04  3.52305E+02
  3.47582E+04  5.27277E+04 -1.67255E+04  7.48121E+04 -6.00959E+04  6.24702E+04 -8.25312E+04  3.12691E+04
 -7.90680E+04 -1.10632E+04 -5.58849E+04 -4.98176E+04 -1.48486E+04 -6.76288E+04  2.63859E+04 -4.43079E+04
  3.88095E+04  4.16203E+03  1.53819E+04  4.68513E+04 -3.38736E+04  4.55937E+04 -6.49709E+04 -8.92641E+02
 -5.14693E+04 -5.54368E+04 -6.02834E+03 -7.44092E+04  3.27382E+04 -5.25155E+04  4.56220E+04 -1.59586E+04
  4.09657E+04  1.12602E+04  3.01974E+04  2.39739E+04  1.57212E+04  2.80363E+04 -4.43496E+03  2.65524E+04
 -2.16127E+04  1.29568E+04 -1.91091E+04 -3.86147E+03  3.92087E+03 -7.58538E+03  2.08444E+04  1.04060E+04
  7.45764E+03  3.25614E+04 -3.01499E+04  3.33370E+04 -6.03088E+04  2.15453E+03 -5.47272E+04 -4.07966E+04
 -1.22490E+04 -5.96242E+04  3.78093E+04 -4.28495E+04  5.48880E+04 -1.81763E+03  3.13165E+04  2.98245E+04
 -6.62997E+03  3.20334E+04 -2.81817E+04  1.27041E+04 -2.68983E+04 -5.56313E+03 -1.36297E+04 -9.63266E+03
 -7.30395E+03 -1.08930E+04 -1.17975E+03 -1.61800E+04  6.07892E+03 -2.25410E+04  1.51765E+04 -1.40796E+04
  1.25503E+04  4.15837E+03 -5.55615E+03  1.29050E+04 -1.86102E+04 -1.84198E+03 -7.79923E+03 -2.93408E+04
  2.02431E+04 -3.94767E+04  4.36793E+04 -1.82567E+04  4.08707E+04  1.79968E+04  1.34625E+04  4.10403E+04
 -1.50645E+04  3.01068E+04 -2.24831E+04  1.08599E+03 -7.55564E+03 -2.58661E+04  2.03429E+04 -3.02632E+04
  3.69841E+04 -6.67496E+03  3.03804E+04  2.25876E+04  1.45410E+04  4.14773E+04 -7.52594E+03  4.39706E+04
 -2.76702E+04  2.90197E+04 -3.59603E+04  8.15320E+03 -3.71068E+04 -1.45550E+04 -2.06585E+04 -3.34938E+04
  6.89584E+03 -3.32149E+04  2.83098E+04 -1.20602E+04  2.61566E+04  1.07463E+04  2.73529E+03  1.72062E+04
 -1.30111E+04  6.83159E+03 -9.63507E+03 -7.68409E+03  5.79120E+03 -1.00307E+04  1.67620E+04  6.16414E+03
  1.20322E+04  2.15459E+04 -6.71655E+03  2.28178E+04 -2.10840E+04  8.49184E+03 -2.42848E+04 -6.74249E+03
 -1.57516E+04 -1.60271E+04 -4.61659E+03 -1.56901E+04  3.78565E+03 -1.31789E+04  1.17479E+04 -1.31029E+04
  1.97671E+04 -1.14636E+04  2.69925E+04  5.75239E+02  2.07439E+04  1.53899E+04  3.86463E+03  3.12013E+04
 -1.55638E+04  2.67135E+04 -2.54602E+04  9.23521E+03 -1.92686E+04 -1.05842E+04 -3.81769E+03 -1.39786E+04
  2.58921E+03 -4.45391E+03 -1.90265E+03  4.83598E+03 -1.18664E+04  5.12718E+03 -1.24407E+04 -4.38056E+03
 -8.33180E+03 -1.45389E+04  4.10396E+03 -1.83293E+04  1.20358E+04 -1.32432E+04  1.37448E+04 -1.42635E+03
  8.44916E+03  1.01015E+04 -8.69234E+02  1.49020E+04 -9.49869E+03  8.37508E+03 -1.45825E+04 -3.35406E+03
 -1.08412E+04 -1.35318E+04 -1.31891E+03 -1.82258E+04  8.10366E+03 -1.45378E+04  1.52408E+04 -6.90661E+03
  1.39781E+04  8.47700E+02  9.74181E+03  4.05458E+03  4.52124E+03  2.61318E+02  7.09549E+03 -1.17659E+03
  1.29593E+04  2.82975E+03  1.34790E+04  1.22804E+04  8.16131E+03  2.37692E+04 -3.01056E+03  2.47322E+04
 -1.48281E+04  1.85945E+04 -2.25500E+04  8.58833E+03 -2.30438E+04 -1.99579E+03 -1.99413E+04 -1.31788E+04
 -9.55891E+03 -1.88382E+04  6.17285E+03 -1.80639E+04  1.52887E+04 -1.04062E+04  1.49648E+04  3.55190E+03
  6.44826E+03  1.03006E+04 -6.77483E+03  9.84103E+03 -1.27328E+04  2.63088E+03 -1.00128E+04 -7.46449E+03
 -9.24714E+01 -1.18670E+04  5.83666E+03 -8.68262E+03  7.34748E+03 -1.33619E+03  8.77040E+02  4.91923E+03
 -5.31652E+03  9.52923E+02 -3.24091E+03 -4.34961E+03  8.14289E+02 -9.54943E+03  7.45952E+03 -9.16451E+03
  1.13437E+04 -4.33456E+03  1.04822E+04  2.78122E+03  9.24329E+03  8.80839E+03  4.44452E+03  1.27623E+04
 -1.35832E+03  1.46501E+04 -8.96738E+03  9.36392E+03 -1.04924E+04  3.00502E+03 -7.82393E+03 -1.70750E+03
 -4.07173E+03 -3.09387E+03 -1.00432E+03  1.78217E+03 -1.79781E+03  1.56063E+03 -3.10590E+03  3.41784E+03
 -7.58264E+03 -3.55627E+02 -8.23848E+03 -7.02140E+03 -3.29546E+03 -1.07524E+04  3.03404E+03 -7.77266E+03
  6.71232E+03 -3.72441E+03  5.04664E+03  1.85876E+03  7.78303E+02  2.61058E+03 -3.19915E+03 -1.51137E+02
 -3.05110E+03 -4.86343E+03 -7.66754E+02 -6.48491E+03  3.65401E+03 -7.19141E+03  9.05916E+03 -3.69358E+03
  1.07396E+04  4.02307E+02  8.02524E+03  5.65529E+03  1.66019E+03  8.00709E+03 -5.02030E+03  7.85869E+03
 -6.31212E+03  2.72714E+03 -3.25399E+03 -9.47179E+02  1.08489E+03 -1.73449E+03  4.69193E+03 -1.05292E+03
  3.98475E+03  3.09780E+03  8.05096E+02  5.95454E+03 -4.02532E+03  6.14414E+03 -7.37474E+03  1.61090E+03
 -4.44364E+03 -3.13093E+03  2.45131E+02 -6.32597E+03  3.34687E+03 -2.93682E+03  3.20763E+03  6.23368E+02
  3.36122E+02  2.83854E+03 -3.87838E+03  4.45499E+03 -4.23006E+03  2.20466E+03 -3.56976E+03 -5.70473E+02
 -2.73342E+03 -5.21459E+03  9.17769E+02 -6.41648E+03  5.35152E+03 -4.25452E+03  5.86551E+03  1.05826E+03
  4.14087E+03  5.00272E+03  2.16930E+02  6.77605E+03 -4.70324E+03  3.89186E+03 -4.68509E+03 -2.56157E+02
 -5.63549E+03 -4.78038E+03 -1.48866E+03 -4.55963E+03  2.61707E+03 -4.69548E+03  2.83620E+03 -2.92680E+03
  2.91458E+03  1.43241E+00 -1.61814E+01  1.32161E+03  3.97696E+02 -2.77025E+01 -4.19857E+01 -1.65637E+03
  3.34985E+03 -4.21687E+02  4.67390E+03  4.50364E+02  5.01924E+03  2.55647E+03  4.99530E+03  6.17756E+03
 -1.15609E+03  7.70933E+03 -7.13949E+03  6.01212E+03 -8.79580E+03  1.09305E+03 -6.74810E+03 -2.36118E+03
 -3.84078E+03 -6.13250E+03 -4.67788E+02 -4.93121E+03  1.85826E+03 -1.99506E+03  1.57836E+03 -1.92419E+03
  1.35951E+03 -1.32071E+03  2.10862E+03 -2.39755E+03  3.30947E+03 -1.07344E+03  3.35628E+03  3.87454E+02
  3.91089E+03  1.08534E+03  1.01682E+03  3.13517E+03 -1.53743E+03  2.12635E+03 -4.41945E+03  2.29267E+03
 -4.42383E+03 -6.51500E+02 -1.35245E+03 -2.92035E+03  5.10941E+02 -4.39719E+03  2.76125E+03 -4.88081E+03
  4.50715E+03 -2.89561E+03  5.93364E+03  2.28955E+02  4.44445E+03  3.57986E+03  9.07148E+02  5.57282E+03
 -2.21125E+03  5.63219E+03 -3.05634E+03  1.91373E+03 -1.75958E+03 -8.14468E+02 -3.07932E+02 -2.74317E+02
 -3.14476E+02  2.10178E+02 -1.10789E+03  1.78179E+03 -2.39434E+03  1.13172E+03 -3.94341E+03 -2.61481E+02
 -1.17131E+03 -3.96053E+03  9.43754E+02 -4.18011E+03  2.36706E+03 -3.86164E+03  3.04607E+03 -9.55257E+02
  3.60780E+03  2.35834E+03  1.70515E+03  2.87893E+03 -5.06037E+02  4.07453E+03 -2.60505E+03  2.39411E+03
 -3.50547E+03  6.76477E+02 -2.98023E+03 -2.04897E+03 -3.45012E+02 -2.96144E+03  1.12337E+03 -2.00005E+03
  2.43036E+03 -1.33258E+03  1.47397E+03  3.95584E+02  1.87311E+02  1.57415E+03  6.92662E+02  5.10622E+02
  1.57123E+03  7.05114E+02  1.06799E+03  1.19843E+03  6.58976E+02  2.30774E+03  1.27734E+03  1.30750E+03
 -1.10710E+03  2.61375E+03 -2.38937E+03  3.67134E+03 -2.38009E+03  9.45108E+02 -3.57032E+03 -1.04826E+02
 -1.40622E+03 -3.19864E+03  4.51564E+02 -4.26693E+03  1.78231E+03 -2.31603E+03  2.96933E+03 -9.43444E+02
  2.40367E+03  1.72419E+03  2.39080E+02  1.75014E+03 -6.31502E+02  1.08317E+03 -1.03913E+03 -1.15719E+02
 -1.37127E+02 -1.42163E+03  1.20079E+03 -1.34546E+03  1.02661E+03 -1.30468E+03  1.16849E+03  3.94686E+02
  6.54259E+02  1.94500E+02  5.67187E+02 -6.38649E+02 -3.81364E+02  6.16100E+02  1.71316E+03  1.03449E+02
  1.24032E+02  6.02737E+01  1.68871E+03  4.56639E+02  1.82025E+02  2.19336E+03 -1.90575E+02  2.66474E+03
 -1.38809E+03  8.95972E+02 -1.82247E+03  3.15365E+02 -1.88542E+03 -4.33360E+02  1.72349E+02 -8.60395E+02
  4.97089E+02 -1.14890E+03  8.33087E+02 -5.68678E+02  4.26787E+02  8.92263E+02 -5.66772E+02  9.28920E+02
 -1.16041E+03  6.57449E+02 -9.81322E+02 -1.33945E+03 -7.49515E+02 -1.98878E+03  1.53312E+02 -1.10333E+03
  7.32407E+02 -2.23971E+02  3.00676E+02  2.78387E+02  1.25721E+03 -2.58344E+02  1.68129E+02  9.59769E+02
 -3.78587E+02 -2.31253E+02 -9.98175E+02 -4.05275E+02  3.82824E+02 -7.93145E+02  1.63794E+03 -5.86225E+02
  1.09530E+03  1.27988E+02  2.55463E+03  8.23680E+02  1.43912E+03  1.34172E+03 -3.25538E+02  1.60459E+03
 -1.45255E+03  3.24814E+02 -1.45942E+03  5.40496E-01 -7.52712E+02 -1.30117E+03  4.22319E+02 -4.18545E+02
  1.24365E+03 -4.40635E+02  6.49814E+02  5.26685E+02 -1.62445E+02  1.29259E+03  4.80883E+02  9.97076E+02
 -3.78711E+02  1.06076E+03 -5.89931E+02  2.03618E+02 -6.98199E+01  6.31892E+02 -6.95447E+02  6.22476E+02
 -7.82478E+02  9.27243E+02 -1.72426E+03  1.12720E+02 -1.56208E+03  8.80689E+01 -2.16174E+03 -9.28760E+02
 -1.20060E+03 -2.06794E+03  3.13503E+02 -2.68425E+03  7.68519E+02 -2.40542E+03  2.63736E+03 -7.93773E+02
  2.36740E+03 -1.36644E+02  1.09698E+03  1.09827E+03 -6.08620E+02  1.08971E+03 -8.52429E+02  1.34929E+03
 -9.91332E+02  8.15335E+02 -6.16552E+02 -1.51168E+02 -2.76008E+02  1.11423E+02 -7.92867E+02  1.66429E+02
 -1.24820E+03 -9.29669E+01 -9.27812E+02 -5.50103E+01  2.49036E+02 -5.69160E+02 -4.89080E+02 -8.12731E+02
  1.13573E+03 -3.70807E+02  2.16332E+02  1.53569E+02  6.77271E+02  8.68692E+02 -6.07059E+02  1.23225E+03
 -8.28465E+02  2.20070E+03 -1.38854E+03  1.33923E+03 -1.94826E+03 -2.35784E+02 -1.03392E+03 -1.10778E+03
 -9.49872E+02 -1.22985E+03  2.41732E+02 -1.28161E+03  5.66771E+02 -5.42720E+02  4.25135E+02  2.44931E+01
  4.96270E+02  4.82333E+01  3.39943E+02  4.78463E+02 -3.73538E+02  1.25495E+02  3.67626E+01 -3.51401E+02
  4.55301E+02  5.30549E+02  4.18866E+02  3.38774E+02  1.50332E+02  2.47068E+02  3.67430E+02  2.00496E+02
 -5.21294E+02  6.07926E+02 -6.33025E+02  1.16282E+02 -4.69788E+02 -6.29491E+02  4.79929E+01 -9.26677E+02
  6.17966E+02 -7.64372E+02  2.87578E+02  5.49974E+01  8.19643E+02 -6.66010E+02  3.77441E+02  6.68746E+02
  6.76440E+02  4.35666E+02 -2.28735E+02  5.21324E+02 -5.81020E+02  6.34947E+02 -4.34008E+02  1.70344E+02
 -2.61080E+02 -2.04336E+02 -4.50614E+02  2.84207E+02 -5.03636E+02  3.36422E+00 -1.03692E+03 -2.66516E+02
 -1.07141E+03  2.34803E+02 -2.62048E+02 -9.13418E+02  6.66718E+02 -1.39082E+03  6.56630E+02 -4.99740E+02
  7.75609E+02 -3.42673E+01 -3.26106E+02  2.19515E+01 -1.01395E+02  8.94875E+02 -3.12615E+02  5.89570E+02
