 $NMID ID='MM_0lb_SNR800_13hz_g45_51.RAW', FMTDAT='(8E13.5)'
 TRAMP=1., VOLUME=1. $END
  3.09358E+05  1.98961E+02  3.37624E+05  2.50554E+05  8.43362E+04  3.38184E+05 -1.32114E+05  2.50673E+05
 -1.90292E+05  8.31572E+04 -1.11858E+05 -3.27502E+04  8.44458E+02 -5.06728E+04  5.36235E+04 -1.68335E+02
  3.55771E+04  5.25260E+04 -1.67112E+04  7.55586E+04 -6.07941E+04  6.36500E+04 -8.43006E+04  3.21495E+04
 -8.09860E+04 -1.14001E+04 -5.72988E+04 -5.12447E+04 -1.51098E+04 -6.96182E+04  2.75917E+04 -4.59835E+04
  3.98154E+04  4.02632E+03  1.61069E+04  4.76935E+04 -3.43193E+04  4.71716E+04 -6.69273E+04  1.56023E+01
 -5.34274E+04 -5.70866E+04 -6.75226E+03 -7.70543E+04  3.40669E+04 -5.50802E+04  4.82500E+04 -1.71906E+04
  4.34848E+04  1.14376E+04  3.19242E+04  2.54148E+04  1.58302E+04  2.93736E+04 -5.62413E+03  2.74361E+04
 -2.20019E+04  1.23949E+04 -1.83684E+04 -4.84670E+03  5.88887E+03 -7.67068E+03  2.24190E+04  1.23915E+04
  7.36537E+03  3.56028E+04 -3.23785E+04  3.58068E+04 -6.36255E+04  2.28114E+03 -5.72471E+04 -4.25719E+04
 -1.19761E+04 -6.34678E+04  3.96285E+04 -4.54047E+04  5.83014E+04 -2.22317E+03  3.42960E+04  3.23599E+04
 -5.82954E+03  3.65043E+04 -3.02140E+04  1.61616E+04 -3.07201E+04 -4.33621E+03 -1.67930E+04 -1.09418E+04
 -8.45518E+03 -1.33581E+04 -7.01153E+02 -1.80706E+04  7.37544E+03 -2.29925E+04  1.56702E+04 -1.29742E+04
  1.12511E+04  5.25286E+03 -8.31972E+03  1.30533E+04 -2.15404E+04 -4.43665E+03 -8.09210E+03 -3.37570E+04
  2.29945E+04 -4.33090E+04  4.82409E+04 -1.98246E+04  4.51644E+04  1.95852E+04  1.59638E+04  4.48427E+04
 -1.63852E+04  3.38134E+04 -2.58320E+04  1.97603E+03 -1.00136E+04 -2.78446E+04  2.12800E+04 -3.43506E+04
  4.11951E+04 -8.93659E+03  3.64093E+04  2.38603E+04  1.87128E+04  4.70788E+04 -8.14637E+03  5.01836E+04
 -3.21986E+04  3.45932E+04 -4.24819E+04  9.84487E+03 -4.30033E+04 -1.70257E+04 -2.37252E+04 -3.84924E+04
  7.22298E+03 -3.82441E+04  3.16855E+04 -1.51933E+04  2.94362E+04  1.08069E+04  4.22752E+03  1.93223E+04
 -1.34864E+04  8.42915E+03 -1.04625E+04 -7.49658E+03  5.96477E+03 -1.09901E+04  1.80279E+04  6.20036E+03
  1.34786E+04  2.19606E+04 -6.03906E+03  2.52938E+04 -2.26781E+04  1.21733E+04 -2.84676E+04 -4.74919E+03
 -2.10740E+04 -1.71625E+04 -9.02701E+03 -2.08523E+04  3.83194E+03 -1.99659E+04  1.61265E+04 -1.89648E+04
  2.68643E+04 -1.27186E+04  3.28850E+04  2.79687E+03  2.41553E+04  2.06033E+04  4.51578E+03  3.68833E+04
 -1.79362E+04  3.07894E+04 -2.81222E+04  1.07516E+04 -2.10632E+04 -1.02833E+04 -4.15648E+03 -1.32289E+04
  1.46853E+03 -2.45720E+03 -4.82659E+03  6.77532E+03 -1.65577E+04  5.18666E+03 -1.68136E+04 -7.20493E+03
 -1.04503E+04 -1.96136E+04  5.54646E+03 -2.31928E+04  1.57855E+04 -1.72740E+04  1.87343E+04 -1.68932E+03
  1.16091E+04  1.33328E+04 -1.00803E+03  1.93107E+04 -1.32702E+04  1.11347E+04 -1.95434E+04 -4.30433E+03
 -1.41002E+04 -1.77431E+04 -1.96639E+03 -2.35501E+04  1.06216E+04 -1.92723E+04  1.95585E+04 -9.69272E+03
  1.81961E+04  1.11293E+02  1.32603E+04  5.03472E+03  6.57677E+03  9.64642E+02  1.01094E+04 -1.75824E+03
  1.81740E+04  2.86339E+03  2.01003E+04  1.57591E+04  1.32570E+04  3.09926E+04 -2.72751E+03  3.55480E+04
 -2.03771E+04  2.88162E+04 -3.26230E+04  1.43260E+04 -3.49565E+04 -2.48175E+03 -2.84997E+04 -2.00859E+04
 -1.22644E+04 -2.84817E+04  9.87980E+03 -2.57404E+04  2.24344E+04 -1.28375E+04  1.98112E+04  5.76894E+03
  7.01413E+03  1.48596E+04 -8.99236E+03  1.30506E+04 -1.67454E+04  2.66938E+03 -1.29684E+04 -1.03103E+04
 -3.81869E+02 -1.59785E+04  7.82381E+03 -1.18981E+04  1.05456E+04 -1.50702E+03  2.23190E+03  6.64190E+03
 -7.01762E+03  2.78300E+03 -6.45187E+03 -5.64688E+03 -5.32821E+02 -1.37718E+04  9.69490E+03 -1.48277E+04
  1.74883E+04 -7.70867E+03  1.85003E+04  3.30594E+03  1.63908E+04  1.38686E+04  7.77274E+03  2.13059E+04
 -3.56308E+03  2.30693E+04 -1.47937E+04  1.44645E+04 -1.67797E+04  3.58770E+03 -1.19772E+04 -3.97328E+03
 -5.24847E+03 -5.24535E+03 -9.12995E+02  1.06822E+03 -2.33740E+03  2.53695E+03 -5.49998E+03  4.40165E+03
 -1.12866E+04 -5.75574E+02 -1.16473E+04 -9.49761E+03 -4.36083E+03 -1.51447E+04  5.16127E+03 -1.19535E+04
  9.37012E+03 -5.05072E+03  6.83381E+03  3.28587E+03 -1.03172E+01  4.18108E+03 -5.79577E+03 -4.12856E+02
 -5.09629E+03 -7.88132E+03 -8.23080E+02 -1.13497E+04  6.11704E+03 -1.19689E+04  1.47154E+04 -6.61199E+03
  1.73100E+04  1.43484E+03  1.26342E+04  1.02012E+04  2.57267E+03  1.37189E+04 -7.39614E+03  1.16492E+04
 -9.76846E+03  3.33051E+03 -4.92379E+03 -2.11761E+03  1.58879E+03 -2.90658E+03  6.72362E+03 -1.07910E+03
  5.47928E+03  5.32364E+03  1.39073E+03  8.98553E+03 -6.65766E+03  9.16521E+03 -1.13714E+04  2.60856E+03
 -7.77900E+03 -5.44478E+03  5.28460E+02 -1.00157E+04  6.01217E+03 -5.19136E+03  5.90190E+03  1.98027E+03
  1.44217E+03  6.36249E+03 -6.18562E+03  7.92769E+03 -9.15441E+03  3.67708E+03 -8.68909E+03 -2.75434E+03
 -5.00545E+03 -1.05717E+04  2.38422E+03 -1.21211E+04  1.02582E+04 -7.64924E+03  1.07034E+04  1.98307E+03
  6.90681E+03  8.94950E+03 -3.58355E+02  1.10623E+04 -7.75712E+03  6.44484E+03 -8.73194E+03 -9.67331E+02
 -8.04250E+03 -7.48805E+03 -1.73357E+03 -8.02253E+03  4.41239E+03 -6.78913E+03  5.21089E+03 -3.33141E+03
  3.69004E+03  6.26013E+02 -4.58726E+02  1.43978E+03 -2.55905E+02 -1.86376E+03  1.34781E+03 -4.33128E+03
  7.36127E+03 -2.67225E+03  1.03647E+04  1.07100E+03  1.03587E+04  6.35874E+03  7.63607E+03  1.37140E+04
 -2.75078E+03  1.53845E+04 -1.32003E+04  1.18354E+04 -1.70980E+04  2.09679E+03 -1.36674E+04 -5.49079E+03
 -6.75417E+03 -1.15324E+04 -4.27444E+02 -9.44600E+03  3.38520E+03 -4.96159E+03  3.05506E+03 -3.49772E+03
  2.16260E+03 -2.38801E+03  2.79249E+03 -2.82231E+03  4.84891E+03 -2.38035E+03  5.87397E+03 -6.58008E+02
  7.27724E+03  1.99124E+03  3.30975E+03  6.05460E+03 -1.97155E+03  6.74541E+03 -7.68015E+03  5.29724E+03
 -9.27580E+03 -1.02995E+03 -4.89843E+03 -6.41244E+03 -2.72265E+02 -9.92127E+03  5.84712E+03 -9.98116E+03
  9.95847E+03 -5.71052E+03  1.21712E+04  1.34130E+03  8.79933E+03  8.53231E+03  1.18839E+03  1.10867E+04
 -4.51526E+03  9.53756E+03 -6.27378E+03  3.14176E+03 -4.15980E+03 -1.22932E+03 -1.66799E+03 -1.33690E+03
 -9.31560E+02  4.15809E+02 -1.46725E+03  2.67779E+03 -4.03661E+03  1.65983E+03 -6.56028E+03 -3.70915E+02
 -4.15018E+03 -6.79469E+03  2.79422E+02 -8.80804E+03  5.70599E+03 -8.15793E+03  8.22096E+03 -2.29088E+03
  8.49595E+03  4.36633E+03  4.20476E+03  7.49431E+03 -1.83875E+03  8.90495E+03 -6.02313E+03  5.48447E+03
 -8.27926E+03  6.78324E+02 -6.76242E+03 -5.33999E+03 -4.79610E+02 -6.91160E+03  3.35161E+03 -5.20128E+03
  5.53054E+03 -1.65629E+03  3.65929E+03  1.56419E+03  1.11506E+03  2.74655E+03  9.90663E+02  1.19923E+03
  2.12006E+03  7.11749E+02  2.08109E+03  1.27250E+03  2.70027E+03  3.22173E+03  2.21757E+03  4.70105E+03
 -1.98105E+03  6.55816E+03 -5.84481E+03  7.36343E+03 -7.97983E+03  2.12361E+03 -8.65059E+03 -2.62218E+03
 -4.01820E+03 -8.53239E+03  1.55989E+03 -9.58244E+03  4.64853E+03 -5.89639E+03  7.12698E+03 -1.89428E+03
  5.09992E+03  3.59077E+03  1.34285E+03  4.91473E+03 -2.17353E+03  3.03461E+03 -3.11089E+03 -3.20599E+02
 -1.24327E+03 -3.60138E+03  2.36769E+03 -3.79210E+03  3.04217E+03 -2.02821E+03  2.98149E+03  6.35409E+02
  2.12345E+03  1.68256E+03  9.45381E+02  8.36677E+02 -4.46050E+02  1.28192E+03  1.48486E+03 -3.37412E+02
  9.97659E+02 -4.07012E+02  3.71847E+03  1.59019E+03  1.56846E+03  4.79094E+03 -6.12546E+02  6.31432E+03
 -3.75503E+03  3.49987E+03 -4.89025E+03  8.31664E+02 -4.66533E+03 -1.94257E+03 -1.32273E+03 -2.94139E+03
  3.75039E+02 -3.17665E+03  2.31155E+03 -1.78224E+03  1.75307E+03  1.74073E+03 -7.95487E+02  2.38110E+03
 -3.45048E+03  1.46951E+03 -3.63197E+03 -2.09272E+03 -1.77936E+03 -4.46746E+03  4.05480E+02 -4.48444E+03
  2.21554E+03 -2.25504E+03  3.14721E+03 -3.77945E+02  2.75974E+03  6.47538E+02  6.42061E+02  2.20341E+03
 -1.58546E+03  5.65345E+02 -2.05038E+03 -1.55457E+03  1.30313E+03 -3.17587E+03  4.36004E+03 -2.65981E+03
  4.61600E+03  8.74999E+02  5.36029E+03  2.70337E+03  1.90171E+03  5.12638E+03 -1.36363E+03  4.83688E+03
 -4.04830E+03  1.84948E+03 -4.31640E+03 -3.86802E+02 -2.20676E+03 -3.25416E+03  1.01147E+03 -2.84523E+03
  3.32065E+03 -1.36624E+03  2.68833E+03  1.70991E+03  4.63054E+02  2.95389E+03  4.65823E+01  2.58084E+03
 -1.50914E+03  1.90748E+03 -1.12281E+03  7.20134E+02 -4.82878E+02  4.39212E+02 -1.31731E+03  9.85852E+02
 -1.25657E+03  1.97796E+03 -3.52458E+03  1.82557E+03 -4.83315E+03  1.32018E+02 -5.87443E+03 -3.45507E+03
 -2.59142E+03 -6.46968E+03  1.19553E+03 -7.67768E+03  3.96690E+03 -6.05717E+03  7.16713E+03 -2.57941E+03
  6.48756E+03  1.00079E+03  3.92351E+03  4.22647E+03 -4.25874E+01  4.83379E+03 -2.25358E+03  3.84421E+03
 -2.90336E+03  1.44569E+03 -1.53800E+03 -2.70898E+02 -7.52915E+02 -2.55364E+02 -7.80395E+02 -9.64143E+01
 -1.11605E+03 -8.20491E+01 -1.58637E+03 -3.82058E+02 -1.14341E+02 -1.17322E+03 -5.27787E+00 -1.89774E+03
  2.57158E+03 -1.59805E+03  2.45378E+03  5.01736E+01  3.40791E+03  2.76212E+03  5.28057E+02  4.86316E+03
 -2.27792E+03  6.05876E+03 -4.75618E+03  3.55178E+03 -5.47834E+03 -4.59783E+02 -4.24242E+03 -3.60529E+03
 -2.13061E+03 -4.74331E+03  1.19275E+03 -3.90881E+03  2.87451E+03 -2.33349E+03  2.92949E+03  1.48002E+02
  1.85936E+03  1.66406E+03  1.37215E+01  1.48055E+03 -1.24746E+03 -1.97770E+02 -1.31455E+02 -9.93501E+02
  1.63942E+03 -5.02972E+02  1.57159E+03  7.40552E+02  1.17031E+03  1.89211E+03  6.48495E+02  1.83505E+03
 -2.21015E+03  2.09888E+03 -3.09172E+03  2.67454E+01 -2.71905E+03 -1.87623E+03 -3.88922E+01 -3.83621E+03
  1.87611E+03 -3.22664E+03  3.09031E+03 -8.66448E+02  3.29355E+03  3.83657E+02  1.66158E+03  2.95483E+03
  5.69065E+02  2.59845E+03 -1.18076E+03  2.41407E+03 -2.11137E+03  1.84852E+03 -1.51339E+03  5.35123E+02
 -6.99740E+02 -2.33762E+02 -1.05759E+03  2.02876E+02 -1.20590E+03  6.40865E+02 -2.36689E+03 -4.39722E+02
 -2.33987E+03 -1.25257E+03 -8.23535E+02 -3.04699E+03  1.13410E+03 -3.26275E+03  2.67949E+03 -1.26797E+03
  2.88347E+03  2.40864E+02  1.43504E+03  1.77303E+03 -3.52425E+02  2.72729E+03 -1.98151E+03  2.43518E+03
