 $NMID ID='MM_0lb_SNR800_13hz_g60_59.RAW', FMTDAT='(8E13.5)'
 TRAMP=1., VOLUME=1. $END
  3.10080E+05  1.17782E+01  3.38000E+05  2.50887E+05  8.48247E+04  3.38375E+05 -1.32672E+05  2.51639E+05
 -1.90837E+05  8.40038E+04 -1.12290E+05 -3.25025E+04  4.21506E+02 -5.09070E+04  5.37740E+04 -3.63870E+02
  3.51553E+04  5.27729E+04 -1.68764E+04  7.55914E+04 -6.13208E+04  6.41201E+04 -8.48122E+04  3.24164E+04
 -8.19441E+04 -1.16018E+04 -5.74668E+04 -5.17468E+04 -1.53331E+04 -7.06323E+04  2.75452E+04 -4.62987E+04
  4.07588E+04  3.67424E+03  1.61889E+04  4.81744E+04 -3.47495E+04  4.74540E+04 -6.74588E+04  8.46209E+01
 -5.42878E+04 -5.72590E+04 -7.01929E+03 -7.82234E+04  3.45078E+04 -5.62042E+04  4.90619E+04 -1.80934E+04
  4.47776E+04  1.13271E+04  3.25217E+04  2.63020E+04  1.60405E+04  2.99187E+04 -5.33786E+03  2.73869E+04
 -2.23636E+04  1.20724E+04 -1.80138E+04 -5.41077E+03  6.60449E+03 -7.65074E+03  2.29088E+04  1.28299E+04
  7.19673E+03  3.66080E+04 -3.25447E+04  3.63809E+04 -6.46833E+04  1.96506E+03 -5.79700E+04 -4.39363E+04
 -1.25112E+04 -6.45058E+04  4.11656E+04 -4.66053E+04  5.99344E+04 -2.65130E+03  3.58700E+04  3.35196E+04
 -5.58541E+03  3.78417E+04 -3.08950E+04  1.74782E+04 -3.20925E+04 -3.80361E+03 -1.79164E+04 -1.13761E+04
 -8.83946E+03 -1.42430E+04 -7.02404E+02 -1.90860E+04  7.89117E+03 -2.36153E+04  1.57447E+04 -1.33883E+04
  1.10305E+04  5.93801E+03 -9.34738E+03  1.30463E+04 -2.23199E+04 -5.68525E+03 -8.82269E+03 -3.55307E+04
  2.41176E+04 -4.50778E+04  5.00944E+04 -2.01487E+04  4.68739E+04  2.00983E+04  1.66449E+04  4.60509E+04
 -1.66157E+04  3.50445E+04 -2.66258E+04  1.99427E+03 -1.06097E+04 -2.88628E+04  2.14464E+04 -3.55603E+04
  4.26062E+04 -9.71607E+03  3.82425E+04  2.43566E+04  2.00220E+04  4.85324E+04 -8.04945E+03  5.31989E+04
 -3.37810E+04  3.60838E+04 -4.48671E+04  1.04889E+04 -4.52319E+04 -1.80065E+04 -2.46780E+04 -4.01029E+04
  7.27086E+03 -4.00344E+04  3.25969E+04 -1.58560E+04  3.05498E+04  1.11624E+04  4.62539E+03  1.99105E+04
 -1.36925E+04  9.04391E+03 -1.08019E+04 -7.63091E+03  5.56583E+03 -1.07690E+04  1.84697E+04  5.87233E+03
  1.39678E+04  2.27155E+04 -5.61186E+03  2.62185E+04 -2.27997E+04  1.29070E+04 -2.94746E+04 -3.83184E+03
 -2.28325E+04 -1.77935E+04 -9.97486E+03 -2.23696E+04  4.03782E+03 -2.25051E+04  1.77042E+04 -2.04637E+04
  2.92645E+04 -1.36215E+04  3.52209E+04  3.67841E+03  2.57375E+04  2.18347E+04  4.86408E+03  3.85994E+04
 -1.85482E+04  3.20026E+04 -2.88810E+04  1.12805E+04 -2.15282E+04 -9.88169E+03 -4.53417E+03 -1.31202E+04
  1.32250E+03 -2.02273E+03 -6.22721E+03  7.29248E+03 -1.76691E+04  4.87504E+03 -1.81515E+04 -7.93220E+03
 -1.11598E+04 -2.09455E+04  5.68512E+03 -2.53016E+04  1.67870E+04 -1.79250E+04  2.03641E+04 -1.36045E+03
  1.28665E+04  1.47135E+04 -1.33951E+03  2.09176E+04 -1.47799E+04  1.17766E+04 -2.11695E+04 -4.21659E+03
 -1.56411E+04 -1.89556E+04 -1.84855E+03 -2.54847E+04  1.15860E+04 -2.05714E+04  2.08854E+04 -1.06252E+04
  1.95705E+04  1.35959E+02  1.41980E+04  4.42000E+03  7.44341E+03  9.00985E+02  1.05790E+04 -1.75239E+03
  1.94889E+04  2.76296E+03  2.22069E+04  1.64801E+04  1.47467E+04  3.35744E+04 -2.99734E+03  3.88508E+04
 -2.24089E+04  3.14176E+04 -3.58234E+04  1.58574E+04 -3.81037E+04 -2.90543E+03 -3.12377E+04 -2.23726E+04
 -1.31386E+04 -3.18116E+04  1.11612E+04 -2.83632E+04  2.43285E+04 -1.39181E+04  2.14916E+04  6.10071E+03
  7.55925E+03  1.61744E+04 -1.00562E+04  1.38568E+04 -1.77812E+04  2.50482E+03 -1.35531E+04 -1.13200E+04
 -2.26404E+01 -1.70675E+04  8.63948E+03 -1.28412E+04  1.13659E+04 -1.39393E+03  2.74894E+03  7.14190E+03
 -7.34775E+03  3.06596E+03 -7.26874E+03 -6.12029E+03 -9.41521E+02 -1.54158E+04  1.03607E+04 -1.68175E+04
  1.91778E+04 -8.74648E+03  2.11112E+04  3.04406E+03  1.85441E+04  1.53424E+04  8.55201E+03  2.39991E+04
 -4.34567E+03  2.56732E+04 -1.63746E+04  1.59620E+04 -1.83733E+04  3.53848E+03 -1.26600E+04 -4.25931E+03
 -5.68800E+03 -6.19994E+03 -5.89803E+02  9.34105E+02 -2.31587E+03  3.20722E+03 -6.01582E+03  4.70227E+03
 -1.21604E+04 -9.62489E+02 -1.25855E+04 -1.02942E+04 -5.01142E+03 -1.64281E+04  5.08665E+03 -1.30498E+04
  1.10028E+04 -5.43572E+03  7.50244E+03  3.52271E+03 -1.54667E+02  5.17844E+03 -6.21209E+03 -3.47159E+01
 -5.70017E+03 -8.19408E+03 -8.15595E+02 -1.23529E+04  6.96569E+03 -1.30262E+04  1.59130E+04 -6.85105E+03
  1.90626E+04  1.81147E+03  1.39585E+04  1.14194E+04  2.69919E+03  1.55183E+04 -7.64997E+03  1.27272E+04
 -1.05440E+04  3.84343E+03 -5.41524E+03 -2.39021E+03  1.83304E+03 -3.29431E+03  6.97378E+03 -1.03749E+03
  6.14579E+03  5.48288E+03  1.07457E+03  1.02197E+04 -7.70365E+03  1.00337E+04 -1.25326E+04  2.69015E+03
 -8.73793E+03 -6.40971E+03  2.38630E+02 -1.09278E+04  7.03314E+03 -5.19499E+03  6.97472E+03  2.40568E+03
  1.72193E+03  7.48148E+03 -6.56844E+03  9.03579E+03 -1.04116E+04  3.91607E+03 -1.01858E+04 -3.33345E+03
 -6.23000E+03 -1.16870E+04  2.94140E+03 -1.35851E+04  1.18145E+04 -8.15399E+03  1.26227E+04  2.25872E+03
  7.92955E+03  9.88292E+03 -9.70997E+02  1.26881E+04 -8.99858E+03  7.01339E+03 -1.00016E+04 -8.31121E+02
 -8.91557E+03 -8.23629E+03 -1.63038E+03 -9.23577E+03  4.75775E+03 -7.19247E+03  5.76409E+03 -3.04540E+03
  4.06259E+03  1.47520E+03 -5.96543E+02  1.76884E+03 -2.34210E+02 -2.21131E+03  1.52303E+03 -5.05206E+03
  8.21164E+03 -3.03091E+03  1.17368E+04  1.24144E+03  1.14698E+04  7.87273E+03  7.97373E+03  1.47238E+04
 -3.26843E+03  1.75918E+04 -1.45489E+04  1.27619E+04 -1.87217E+04  2.10193E+03 -1.51852E+04 -6.24381E+03
 -7.62759E+03 -1.28607E+04 -3.56367E+01 -1.05403E+04  4.19804E+03 -5.57802E+03  3.48411E+03 -3.79371E+03
  2.55562E+03 -2.53061E+03  3.21445E+03 -3.24138E+03  4.87658E+03 -2.42688E+03  5.93659E+03 -7.47370E+02
  8.18412E+03  1.81375E+03  3.71512E+03  6.77374E+03 -2.14368E+03  7.47063E+03 -8.60945E+03  5.82482E+03
 -9.91092E+03 -9.87828E+02 -6.02677E+03 -7.61070E+03 -4.58893E+02 -1.09528E+04  6.21014E+03 -1.11107E+04
  1.10404E+04 -6.24914E+03  1.36904E+04  1.35629E+03  9.49437E+03  9.57184E+03  1.65292E+03  1.22202E+04
 -4.66043E+03  1.06199E+04 -7.13217E+03  3.72567E+03 -4.77746E+03 -1.59169E+03 -1.36923E+03 -1.29365E+03
 -1.10130E+03  2.74410E+02 -1.60054E+03  2.67640E+03 -4.25917E+03  1.81239E+03 -7.00822E+03 -6.99509E+02
 -4.97612E+03 -7.16913E+03  1.19889E+02 -9.90346E+03  6.13681E+03 -9.20914E+03  9.61278E+03 -2.89161E+03
  9.93557E+03  5.12281E+03  4.72513E+03  8.81748E+03 -2.25468E+03  9.88867E+03 -6.91355E+03  6.61518E+03
 -9.20601E+03  2.95946E+02 -7.65070E+03 -5.79549E+03 -9.74892E+02 -8.15360E+03  4.03987E+03 -6.52818E+03
  6.38517E+03 -2.09013E+03  3.93841E+03  1.54790E+03  1.61362E+03  3.06350E+03  1.04903E+03  1.38280E+03
  2.66726E+03  8.95282E+02  2.82120E+03  1.34371E+03  2.88025E+03  3.39269E+03  2.56564E+03  4.85854E+03
 -2.39952E+03  7.46148E+03 -6.37310E+03  7.97889E+03 -9.35058E+03  2.35017E+03 -9.94601E+03 -3.39951E+03
 -4.48230E+03 -9.15533E+03  1.20165E+03 -1.07025E+04  5.62908E+03 -6.57029E+03  7.73482E+03 -1.94377E+03
  5.99576E+03  3.89148E+03  1.21149E+03  5.48468E+03 -2.41856E+03  3.30676E+03 -3.35413E+03 -5.11366E+02
 -1.64398E+03 -4.03539E+03  2.42214E+03 -4.17614E+03  3.99151E+03 -2.18673E+03  3.42181E+03  7.69504E+02
  2.35755E+03  1.79532E+03  9.57664E+02  1.15560E+03 -6.49857E+02  1.39166E+03  1.94862E+03 -4.91861E+02
  1.15679E+03 -5.40273E+02  3.97632E+03  1.58864E+03  2.20726E+03  4.83816E+03 -8.28319E+02  6.63476E+03
 -4.37254E+03  3.75986E+03 -5.49280E+03  1.13538E+03 -5.35950E+03 -1.98385E+03 -1.57172E+03 -3.24793E+03
  6.62146E+02 -3.49296E+03  2.55981E+03 -1.42518E+03  2.14378E+03  2.17394E+03 -1.40309E+03  2.84432E+03
 -3.66216E+03  1.91809E+03 -3.99948E+03 -2.34843E+03 -2.06701E+03 -4.88591E+03  7.98853E+02 -4.90694E+03
  2.60159E+03 -2.99697E+03  3.14453E+03 -3.84683E+01  2.77551E+03  1.03040E+03  1.13975E+02  2.27714E+03
 -1.68433E+03  7.91160E+02 -2.12066E+03 -1.30042E+03  7.76625E+02 -3.33066E+03  4.41673E+03 -2.75494E+03
  5.45865E+03  4.46621E+02  5.73723E+03  3.34980E+03  1.88847E+03  5.48729E+03 -1.26432E+03  5.34785E+03
 -4.44789E+03  2.29575E+03 -4.47062E+03 -7.41755E+02 -2.50877E+03 -3.78434E+03  9.41047E+02 -3.14198E+03
  3.58515E+03 -1.74182E+03  3.03901E+03  1.45487E+03  9.73048E+02  3.13374E+03 -1.82089E+02  2.77190E+03
 -1.51751E+03  1.78615E+03 -1.44025E+03  6.83121E+02 -6.15594E+02  1.02023E+03 -1.32662E+03  1.21863E+03
 -1.34680E+03  2.20124E+03 -3.80089E+03  1.66067E+03 -5.07495E+03  1.79317E+02 -6.19902E+03 -3.20465E+03
 -3.18793E+03 -7.04559E+03  1.56578E+03 -8.19161E+03  4.70140E+03 -6.49602E+03  7.57347E+03 -2.50961E+03
  6.91436E+03  1.01361E+03  4.02320E+03  4.80984E+03  7.21609E+01  5.24317E+03 -2.39723E+03  4.12624E+03
 -3.17847E+03  1.48013E+03 -1.79556E+03 -9.11837E+02 -9.09408E+02 -2.34228E+02 -4.93245E+02  1.62338E+02
 -1.08267E+03  2.64682E+02 -1.52072E+03 -1.06044E+02 -4.55325E+02 -1.75152E+03 -5.27541E+01 -1.88970E+03
  2.85066E+03 -1.57602E+03  2.89237E+03  3.37710E+02  3.71850E+03  2.99566E+03  3.14383E+02  4.90792E+03
 -2.56162E+03  6.24345E+03 -5.30682E+03  3.77381E+03 -6.19059E+03  2.29957E+01 -4.40150E+03 -4.19192E+03
 -2.40425E+03 -5.39665E+03  1.14323E+03 -4.39113E+03  3.16224E+03 -2.68193E+03  3.15938E+03  6.46964E+02
  1.94194E+03  1.32448E+03 -1.02518E+02  1.38836E+03 -1.06387E+03 -1.22706E+02  2.80449E+01 -1.08072E+03
  1.71707E+03 -2.66422E+02  1.72373E+03  9.94731E+02  1.23445E+03  1.97309E+03 -1.60184E+02  2.40576E+03
 -2.08010E+03  1.76399E+03 -3.25065E+03  3.33109E+02 -2.91143E+03 -2.46847E+03 -2.32325E+02 -4.19594E+03
  2.34297E+03 -3.41981E+03  3.48594E+03 -8.88855E+02  3.91602E+03  3.64340E+02  2.06634E+03  2.90691E+03
  3.15232E+02  2.92642E+03 -9.89504E+02  2.53233E+03 -1.90099E+03  1.10185E+03 -1.36107E+03  3.54289E+02
 -7.07707E+02 -1.02409E+02 -1.12915E+03  9.10830E+02 -1.61980E+03  5.81187E+02 -2.59213E+03 -6.16169E+02
 -2.62740E+03 -1.13888E+03 -6.28189E+02 -2.94677E+03  1.93260E+03 -4.14251E+03  2.78136E+03 -1.40171E+03
  3.21209E+03  1.81787E+02  9.94601E+02  1.93401E+03 -3.59387E+02  3.10575E+03 -2.17508E+03  2.30178E+03
