 $NMID ID='MM_0lb_SNR800_20hz_g40_25.RAW', FMTDAT='(8E13.5)'
 TRAMP=1., VOLUME=1. $END
  3.09903E+05  3.73068E+02  3.37179E+05  2.50437E+05  8.42486E+04  3.36943E+05 -1.32439E+05  2.49868E+05
 -1.89228E+05  8.23154E+04 -1.10554E+05 -3.30585E+04  1.63168E+03 -5.02815E+04  5.40926E+04  5.86880E+02
  3.48962E+04  5.27334E+04 -1.70164E+04  7.44115E+04 -6.02509E+04  6.23285E+04 -8.24691E+04  3.11372E+04
 -7.90568E+04 -1.07859E+04 -5.55948E+04 -4.97049E+04 -1.47897E+04 -6.74435E+04  2.62278E+04 -4.43442E+04
  3.84559E+04  3.92813E+03  1.53512E+04  4.68183E+04 -3.38044E+04  4.54991E+04 -6.44791E+04 -6.73366E+02
 -5.12024E+04 -5.52931E+04 -5.94026E+03 -7.39912E+04  3.27549E+04 -5.21165E+04  4.51859E+04 -1.58814E+04
  4.06142E+04  1.10374E+04  3.02710E+04  2.40098E+04  1.54834E+04  2.73984E+04 -4.43893E+03  2.64388E+04
 -2.13882E+04  1.27380E+04 -1.94938E+04 -3.88774E+03  3.48861E+03 -7.75957E+03  2.04921E+04  1.01890E+04
  7.50591E+03  3.23249E+04 -2.95497E+04  3.32813E+04 -6.00273E+04  2.04656E+03 -5.41711E+04 -4.03604E+04
 -1.23840E+04 -5.98190E+04  3.71279E+04 -4.21190E+04  5.38465E+04 -1.59128E+03  3.06020E+04  2.94772E+04
 -6.98959E+03  3.12836E+04 -2.73646E+04  1.23008E+04 -2.63926E+04 -5.71234E+03 -1.29627E+04 -9.30272E+03
 -6.83403E+03 -1.02476E+04 -1.11421E+03 -1.58104E+04  6.33265E+03 -2.23619E+04  1.47118E+04 -1.41861E+04
  1.26195E+04  3.76404E+03 -5.22568E+03  1.30999E+04 -1.84092E+04 -1.42019E+03 -7.73544E+03 -2.87231E+04
  1.97027E+04 -3.90220E+04  4.30758E+04 -1.80624E+04  4.05676E+04  1.77559E+04  1.34626E+04  4.04680E+04
 -1.47844E+04  2.99672E+04 -2.22842E+04  7.22759E+02 -7.52004E+03 -2.57766E+04  2.03076E+04 -2.97327E+04
  3.63153E+04 -6.59704E+03  2.94392E+04  2.21948E+04  1.40359E+04  4.08183E+04 -7.80657E+03  4.28736E+04
 -2.69945E+04  2.79504E+04 -3.52359E+04  7.91654E+03 -3.64763E+04 -1.42884E+04 -2.02161E+04 -3.27226E+04
  6.52346E+03 -3.22445E+04  2.80673E+04 -1.17965E+04  2.58185E+04  1.07785E+04  2.41437E+03  1.70277E+04
 -1.27290E+04  6.89696E+03 -9.35294E+03 -7.56787E+03  6.21071E+03 -9.70313E+03  1.69014E+04  6.79161E+03
  1.18457E+04  2.14347E+04 -6.85025E+03  2.28682E+04 -2.10835E+04  8.09932E+03 -2.38582E+04 -7.02630E+03
 -1.51811E+04 -1.62350E+04 -4.42824E+03 -1.50856E+04  3.43770E+03 -1.23332E+04  1.10091E+04 -1.27183E+04
  1.93085E+04 -1.10235E+04  2.63266E+04  2.65098E+02  2.00429E+04  1.48679E+04  4.03294E+03  3.04306E+04
 -1.52037E+04  2.61997E+04 -2.47189E+04  8.95978E+03 -1.88942E+04 -1.07170E+04 -3.79612E+03 -1.41199E+04
  2.85876E+03 -4.64822E+03 -1.76049E+03  4.42218E+03 -1.15858E+04  5.50577E+03 -1.19155E+04 -3.95729E+03
 -8.03234E+03 -1.39076E+04  4.15462E+03 -1.75868E+04  1.14327E+04 -1.28521E+04  1.31639E+04 -1.45151E+03
  7.84093E+03  9.80018E+03 -8.01984E+02  1.42365E+04 -9.17699E+03  8.06166E+03 -1.37455E+04 -3.28392E+03
 -1.05926E+04 -1.27633E+04 -1.42809E+03 -1.71155E+04  7.85325E+03 -1.41002E+04  1.48844E+04 -6.35134E+03
  1.32627E+04  1.05895E+03  9.48328E+03  3.38531E+03  4.60382E+03  5.48357E+01  6.88979E+03 -1.50944E+03
  1.24980E+04  2.60895E+03  1.30073E+04  1.14784E+04  7.63582E+03  2.24992E+04 -3.29275E+03  2.37594E+04
 -1.40486E+04  1.73709E+04 -2.14463E+04  8.26240E+03 -2.16444E+04 -1.51695E+03 -1.91214E+04 -1.23073E+04
 -9.28374E+03 -1.75603E+04  5.61473E+03 -1.70546E+04  1.46390E+04 -1.01971E+04  1.42408E+04  2.86648E+03
  6.52746E+03  9.73082E+03 -6.31760E+03  9.52796E+03 -1.20629E+04  2.71569E+03 -9.43680E+03 -7.19196E+03
 -1.07643E+02 -1.15012E+04  5.63320E+03 -8.50333E+03  6.96775E+03 -1.20996E+03  1.12117E+03  4.48644E+03
 -5.16115E+03  8.33143E+02 -3.15373E+03 -4.02878E+03  1.18341E+03 -8.92173E+03  7.31589E+03 -8.52549E+03
  1.04322E+04 -3.67955E+03  9.93766E+03  2.65223E+03  8.55115E+03  8.21677E+03  4.46405E+03  1.16409E+04
 -8.93575E+02  1.37312E+04 -7.72061E+03  8.79430E+03 -9.56865E+03  2.80505E+03 -7.53518E+03 -1.35652E+03
 -4.39049E+03 -2.94194E+03 -7.51493E+02  1.93246E+03 -1.96366E+03  1.82703E+03 -2.90998E+03  3.04325E+03
 -7.10648E+03 -3.12015E+02 -7.95013E+03 -6.47941E+03 -3.41098E+03 -1.04429E+04  2.93003E+03 -7.64345E+03
  6.49036E+03 -3.66913E+03  4.58421E+03  1.75821E+03  8.59980E+02  2.82961E+03 -2.84519E+03 -1.92001E+02
 -2.89623E+03 -4.58165E+03 -5.37568E+02 -5.96155E+03  3.08561E+03 -6.86997E+03  8.62633E+03 -2.89295E+03
  1.01750E+04  3.04874E+02  7.60864E+03  4.71695E+03  1.61262E+03  7.21920E+03 -4.61659E+03  7.19947E+03
 -5.90466E+03  2.62924E+03 -3.02490E+03 -7.85140E+02  9.22977E+02 -1.51056E+03  4.25543E+03 -9.15518E+02
  3.61036E+03  3.07196E+03  9.47407E+02  5.61308E+03 -3.78807E+03  5.82939E+03 -6.85444E+03  1.93996E+03
 -4.08865E+03 -2.97240E+03  1.33092E+02 -6.10180E+03  3.10887E+03 -2.97965E+03  2.91340E+03  8.26569E+02
  1.84997E+02  2.32740E+03 -3.55398E+03  3.98548E+03 -3.96134E+03  2.27233E+03 -3.13084E+03 -6.99818E+02
 -2.22691E+03 -4.78348E+03  9.22458E+02 -5.46630E+03  4.76900E+03 -3.83780E+03  5.01973E+03  9.42273E+02
  4.17659E+03  4.37617E+03  2.13015E+02  6.20749E+03 -4.17946E+03  3.83161E+03 -4.42919E+03 -2.68934E+02
 -5.15663E+03 -4.17106E+03 -1.26190E+03 -4.45583E+03  1.85056E+03 -4.04003E+03  2.17165E+03 -2.68942E+03
  2.71075E+03 -1.97355E+02  2.73156E+02  1.18663E+03  8.54227E+02 -6.87167E+01  1.87424E+01 -1.09305E+03
  2.95557E+03 -3.44264E+02  3.77820E+03  5.21145E+02  4.39180E+03  2.00171E+03  4.86853E+03  5.81275E+03
 -8.35036E+02  6.77232E+03 -6.47512E+03  5.22245E+03 -8.24727E+03  6.14239E+02 -6.66747E+03 -2.09380E+03
 -3.68714E+03 -5.19566E+03 -5.70761E+02 -3.94018E+03  1.77889E+03 -1.48573E+03  1.45578E+03 -1.47091E+03
  9.32311E+02 -1.59105E+03  1.84219E+03 -2.23391E+03  3.16554E+03 -9.30075E+02  2.99583E+03  4.49195E+02
  3.86755E+03  8.82634E+02  5.75656E+02  2.81306E+03 -1.63164E+03  1.98377E+03 -3.62570E+03  2.05305E+03
 -4.06047E+03 -1.10564E+03 -1.14684E+03 -2.59054E+03  9.12355E+02 -3.79952E+03  2.61133E+03 -4.26732E+03
  3.74158E+03 -2.62680E+03  5.33572E+03  5.12166E+01  3.96105E+03  3.35014E+03  7.78504E+02  4.92274E+03
 -1.40209E+03  4.98849E+03 -2.86644E+03  1.40431E+03 -1.31558E+03 -1.01461E+03 -1.50992E+02 -4.34590E+02
 -3.10407E+02  3.57741E+02 -7.99780E+02  1.73570E+03 -2.24067E+03  1.07126E+03 -3.58641E+03 -3.54232E+02
 -1.03402E+03 -3.58235E+03  1.17427E+03 -3.68977E+03  2.11851E+03 -3.62050E+03  2.53690E+03 -8.13461E+02
  3.10156E+03  1.82112E+03  1.30280E+03  2.44799E+03 -6.07351E+02  3.51858E+03 -1.99130E+03  1.99001E+03
 -3.01313E+03  6.63575E+02 -2.80081E+03 -1.88030E+03 -2.31781E+02 -2.36235E+03  1.46707E+03 -1.95098E+03
  1.77798E+03 -1.01232E+03  1.33886E+03  4.02975E+02  5.21624E+02  1.20863E+03  1.15901E+03  6.55865E+02
  1.78717E+03  4.54241E+02  9.26976E+02  1.13731E+03  8.09713E+02  2.10773E+03  1.15021E+03  1.17156E+03
 -1.06543E+03  1.97309E+03 -1.75762E+03  3.41743E+03 -2.08586E+03  1.07813E+03 -3.17988E+03  2.94078E+01
 -1.38485E+03 -2.87999E+03  3.39609E+02 -3.61828E+03  1.58007E+03 -1.85095E+03  2.41040E+03 -8.24815E+02
  1.76861E+03  1.36241E+03  3.17863E+02  1.66819E+03 -4.73017E+02  7.97200E+02 -9.29122E+02 -1.83593E+02
 -3.69034E+02 -1.19369E+03  1.28583E+03 -1.28179E+03  8.92239E+02 -7.79208E+02  1.06405E+03  2.19137E+02
  3.33740E+02  1.52411E+02  7.20814E+02 -4.47562E+02 -5.25566E+01  7.92421E+02  1.48359E+03 -9.43525E+01
 -6.38173E+01 -1.19305E+02  1.28475E+03  4.63364E+02  1.30450E+02  1.95210E+03 -3.26854E+02  2.50938E+03
 -1.21968E+03  8.88127E+02 -1.60350E+03  4.57670E+02 -1.71691E+03 -5.75335E+02  1.13315E+02 -5.57458E+02
  2.91705E+02 -9.17368E+02  6.49905E+02 -5.94948E+02  7.91323E+02  1.19837E+03 -4.00454E+02  8.94336E+02
 -1.23099E+03  4.88863E+02 -7.84989E+02 -1.17061E+03 -2.89603E+02 -1.77088E+03  1.37722E+02 -1.17370E+03
  1.71636E+02 -6.30370E+01  3.21288E+02  3.71404E+02  9.23445E+02 -3.61626E+02  1.75082E+02  9.20220E+02
 -3.32932E+02 -6.95080E+01 -5.88432E+02 -5.80401E+01  6.34887E+02 -6.56959E+02  1.50109E+03 -5.85357E+02
  4.43501E+02  1.56893E+02  2.29175E+03  3.30637E+02  9.42909E+02  1.01837E+03 -2.75725E+01  1.33082E+03
 -9.00834E+02 -1.71342E+02 -1.00886E+03 -8.33319E+01 -8.35238E+02 -1.05653E+03  1.91646E+02 -3.19445E+02
  1.06168E+03 -3.33914E+02  4.08253E+02  4.85325E+02  2.52043E+02  1.21045E+03  2.63896E+02  1.26052E+03
 -5.97349E+01  9.71715E+02 -1.46184E+02 -7.03440E-02  2.55905E+02  4.23962E+02 -8.53381E+02  3.70419E+02
 -3.75761E+02  8.89832E+02 -1.56497E+03  3.08516E+02 -1.11265E+03  2.73815E+02 -2.03153E+03 -7.61955E+02
 -7.13794E+02 -1.81658E+03  6.54487E+02 -1.94295E+03  5.68107E+02 -2.04333E+03  2.02971E+03 -7.15054E+02
  1.63874E+03 -4.24212E+02  7.05604E+02  1.11573E+03 -7.33533E+02  7.41245E+02 -4.35034E+02  9.38849E+02
 -7.55102E+02  7.14967E+02 -3.89967E+02 -1.95048E+02 -2.93043E+02  2.13683E+02 -7.45746E+02 -3.62978E+00
 -1.10557E+03 -9.00866E+01 -8.82739E+02 -1.87490E+02  5.27111E+02 -3.72452E+02 -5.14101E+02 -6.89458E+02
  1.21650E+03 -4.32384E+02 -3.49403E+01 -1.94847E+01  6.46376E+02  8.72763E+02 -3.17404E+02  1.03867E+03
 -9.17782E+02  1.83506E+03 -1.05968E+03  1.02187E+03 -1.19139E+03 -3.53023E+02 -5.19667E+02 -1.13177E+03
 -7.98170E+02 -9.83564E+02  5.63279E+02 -9.89470E+02  4.02145E+02 -5.46022E+02  3.09858E+02 -1.53142E+01
  5.24334E+02  8.78608E+01  2.00094E+02  1.43739E+02 -3.52249E+02  2.72311E+02 -1.86145E+02  1.96746E+02
  1.93465E+02  2.02364E+02  1.28943E+02  2.23863E+02 -1.45453E+02  4.43288E+02  6.40110E+02  1.92462E+02
 -2.46158E+02  7.02562E+02 -2.00954E+02  2.51370E+02 -3.67641E+02 -4.64023E+02  4.82293E+01 -8.51790E+02
  7.68239E+01 -5.32447E+02  2.57611E+02  4.61179E+02  7.56638E+02 -6.53942E+02  2.79516E+02  7.71896E+02
  3.38864E+02  1.75606E+02 -2.02891E+02  4.73826E+02 -3.21027E+02  6.85777E+02 -3.08487E+01  2.48445E+02
 -9.30418E+01 -7.68274E-01 -5.64479E+02  2.05282E+02 -4.91624E+02  3.31303E+02 -7.20096E+02 -2.10588E+02
 -7.71116E+02  4.74962E+02 -3.79178E+02 -6.51259E+02  4.81352E+02 -1.45447E+03  5.27389E+02 -1.64043E+02
  5.76792E+02  2.81374E+01 -4.98843E+02 -6.68627E+01  4.56214E+01  7.40943E+02 -2.17474E+02  6.07284E+02
