 $NMID ID='MM_0lb_SNR800_20hz_g55_30.RAW', FMTDAT='(8E13.5)'
 TRAMP=1., VOLUME=1. $END
  3.09793E+05  3.62954E+02  3.37365E+05  2.50152E+05  8.43529E+04  3.37469E+05 -1.32381E+05  2.50368E+05
 -1.89907E+05  8.25645E+04 -1.10757E+05 -3.28560E+04  1.26014E+03 -5.04085E+04  5.37475E+04  2.00194E+02
  3.51433E+04  5.30401E+04 -1.69301E+04  7.49512E+04 -6.02767E+04  6.26181E+04 -8.30405E+04  3.13915E+04
 -7.98158E+04 -1.12526E+04 -5.64496E+04 -5.01801E+04 -1.49868E+04 -6.87417E+04  2.65823E+04 -4.50448E+04
  3.89754E+04  3.77565E+03  1.55479E+04  4.72852E+04 -3.39068E+04  4.62268E+04 -6.54101E+04 -5.60224E+02
 -5.20399E+04 -5.59803E+04 -6.60055E+03 -7.54801E+04  3.29486E+04 -5.35316E+04  4.63536E+04 -1.60272E+04
  4.18053E+04  1.08477E+04  3.09311E+04  2.44820E+04  1.57147E+04  2.85921E+04 -4.80324E+03  2.70024E+04
 -2.18533E+04  1.26991E+04 -1.90518E+04 -4.61479E+03  4.40938E+03 -7.39293E+03  2.13275E+04  1.08905E+04
  7.42728E+03  3.32586E+04 -3.07022E+04  3.40099E+04 -6.11166E+04  2.06760E+03 -5.53481E+04 -4.14009E+04
 -1.22213E+04 -6.08434E+04  3.80779E+04 -4.34480E+04  5.59321E+04 -1.84220E+03  3.18481E+04  3.08935E+04
 -6.59307E+03  3.32219E+04 -2.83608E+04  1.37848E+04 -2.75496E+04 -5.44391E+03 -1.45411E+04 -1.02312E+04
 -7.50121E+03 -1.15686E+04 -8.59720E+02 -1.66395E+04  6.86710E+03 -2.24306E+04  1.49003E+04 -1.37694E+04
  1.22800E+04  4.55360E+03 -6.39911E+03  1.30390E+04 -1.93218E+04 -2.42911E+03 -8.03177E+03 -3.04975E+04
  2.06955E+04 -4.05135E+04  4.49290E+04 -1.86641E+04  4.22043E+04  1.83029E+04  1.42356E+04  4.16082E+04
 -1.52171E+04  3.10476E+04 -2.34459E+04  1.05639E+03 -8.47945E+03 -2.62196E+04  2.06077E+04 -3.10609E+04
  3.79476E+04 -7.05881E+03  3.15745E+04  2.27728E+04  1.54114E+04  4.24778E+04 -7.96463E+03  4.50615E+04
 -2.83874E+04  3.01817E+04 -3.72761E+04  8.20511E+03 -3.83349E+04 -1.51883E+04 -2.11140E+04 -3.43902E+04
  6.99130E+03 -3.40845E+04  2.91898E+04 -1.26622E+04  2.68501E+04  1.09503E+04  3.09638E+03  1.75249E+04
 -1.29057E+04  7.23960E+03 -9.39354E+03 -7.59727E+03  5.94811E+03 -1.02693E+04  1.73406E+04  6.32907E+03
  1.23237E+04  2.15412E+04 -6.69726E+03  2.33324E+04 -2.12418E+04  9.24316E+03 -2.49907E+04 -6.21692E+03
 -1.68942E+04 -1.65241E+04 -5.82323E+03 -1.67618E+04  3.84982E+03 -1.47536E+04  1.24283E+04 -1.43385E+04
  2.10157E+04 -1.15535E+04  2.80025E+04  1.04886E+03  2.10494E+04  1.61757E+04  4.23271E+03  3.23177E+04
 -1.57785E+04  2.73283E+04 -2.58005E+04  9.29014E+03 -1.95490E+04 -1.02268E+04 -3.92704E+03 -1.38524E+04
  2.63499E+03 -4.17988E+03 -2.70068E+03  5.19151E+03 -1.30149E+04  5.18032E+03 -1.33245E+04 -4.99005E+03
 -8.73001E+03 -1.53748E+04  4.56120E+03 -1.88617E+04  1.24443E+04 -1.39270E+04  1.46053E+04 -1.42932E+03
  8.63874E+03  1.06273E+04 -9.40626E+02  1.51246E+04 -1.01449E+04  8.85527E+03 -1.52316E+04 -3.18823E+03
 -1.12301E+04 -1.39128E+04 -1.21321E+03 -1.85926E+04  8.68216E+03 -1.49998E+04  1.59645E+04 -6.84593E+03
  1.41926E+04  8.78282E+02  1.03795E+04  3.94287E+03  5.10195E+03  3.31234E+02  7.28694E+03 -1.23601E+03
  1.35124E+04  2.65828E+03  1.41962E+04  1.25230E+04  9.01400E+03  2.41100E+04 -3.24179E+03  2.58175E+04
 -1.51108E+04  1.96260E+04 -2.33783E+04  9.45052E+03 -2.44522E+04 -1.53784E+03 -2.06176E+04 -1.37233E+04
 -9.90745E+03 -1.97513E+04  6.49201E+03 -1.85327E+04  1.59599E+04 -1.07714E+04  1.51573E+04  3.53769E+03
  6.45573E+03  1.09717E+04 -6.93389E+03  1.03711E+04 -1.30911E+04  2.66037E+03 -1.00064E+04 -7.82037E+03
 -2.17188E+02 -1.19894E+04  5.84955E+03 -9.16180E+03  8.01646E+03 -1.28120E+03  1.18445E+03  4.58358E+03
 -5.31156E+03  1.10068E+03 -3.56639E+03 -4.66051E+03  7.99728E+02 -1.00180E+04  7.53068E+03 -9.58567E+03
  1.16409E+04 -4.25218E+03  1.12812E+04  2.82936E+03  9.84292E+03  9.05104E+03  4.58543E+03  1.32981E+04
 -1.45516E+03  1.51213E+04 -9.27661E+03  9.49235E+03 -1.09228E+04  2.80885E+03 -8.19366E+03 -1.46290E+03
 -4.36608E+03 -2.97978E+03 -1.00067E+03  1.66371E+03 -1.79149E+03  1.85631E+03 -3.54056E+03  3.31396E+03
 -7.93982E+03 -4.90776E+02 -8.07284E+03 -7.11289E+03 -3.35596E+03 -1.11124E+04  3.53460E+03 -8.14671E+03
  6.84660E+03 -3.78164E+03  5.25100E+03  1.85886E+03  6.85299E+02  3.04432E+03 -3.12510E+03  8.45133E+00
 -3.20452E+03 -4.82882E+03 -8.38099E+02 -7.08507E+03  3.62658E+03 -7.35095E+03  9.16086E+03 -3.87037E+03
  1.10612E+04  6.31010E+02  8.39685E+03  5.57073E+03  1.50333E+03  8.09658E+03 -4.99085E+03  7.78371E+03
 -6.49815E+03  2.51899E+03 -3.42282E+03 -9.60253E+02  1.32280E+03 -1.56063E+03  4.46937E+03 -1.01357E+03
  3.90037E+03  3.35264E+03  1.23270E+03  6.14159E+03 -4.16612E+03  5.87419E+03 -7.26404E+03  1.59041E+03
 -4.33615E+03 -3.28233E+03  5.41742E+02 -6.38847E+03  3.27719E+03 -3.05459E+03  3.08185E+03  7.38442E+02
  3.44665E+02  2.90267E+03 -3.57617E+03  4.38955E+03 -4.26639E+03  2.19008E+03 -3.85578E+03 -8.82951E+02
 -2.60486E+03 -5.40086E+03  8.37631E+02 -6.48863E+03  5.18272E+03 -4.09393E+03  6.02748E+03  9.10370E+02
  4.31400E+03  4.85633E+03  1.18434E+02  6.75909E+03 -4.57200E+03  3.97778E+03 -4.76887E+03 -5.18665E+02
 -5.45905E+03 -4.82572E+03 -1.40337E+03 -4.49971E+03  2.19447E+03 -4.30162E+03  2.82404E+03 -2.90648E+03
  2.46686E+03  9.14106E+01  1.00337E+02  1.19338E+03  4.87925E+02 -3.10814E+02 -1.50650E+02 -1.43072E+03
  3.00272E+03 -5.08899E+02  4.43645E+03  5.23139E+02  5.03309E+03  2.37023E+03  5.08858E+03  6.03400E+03
 -9.86112E+02  7.37478E+03 -6.89177E+03  5.61884E+03 -8.62775E+03  1.00709E+03 -6.77450E+03 -2.08070E+03
 -3.50772E+03 -5.70380E+03 -4.44668E+02 -4.07736E+03  1.99870E+03 -1.75152E+03  1.34166E+03 -1.98951E+03
  1.10926E+03 -1.30030E+03  1.78513E+03 -2.22896E+03  3.35961E+03 -1.18746E+03  3.40521E+03  8.24917E+02
  3.97678E+03  1.34120E+03  6.00500E+02  2.87918E+03 -1.67425E+03  2.11947E+03 -3.92081E+03  2.30757E+03
 -4.41282E+03 -8.31226E+02 -1.26864E+03 -2.64115E+03  5.62078E+02 -4.43557E+03  2.78838E+03 -4.43562E+03
  4.27269E+03 -3.00121E+03  5.66948E+03 -2.32670E+02  4.35154E+03  3.46601E+03  1.20789E+03  5.11259E+03
 -1.78973E+03  5.46545E+03 -2.58845E+03  1.67792E+03 -1.59659E+03 -9.58582E+02 -4.95185E+02 -3.81033E+02
 -2.93015E+02  4.79126E+02 -7.18694E+02  2.16976E+03 -2.47991E+03  1.19772E+03 -3.81967E+03 -2.13140E+02
 -1.33457E+03 -3.59885E+03  9.72684E+02 -4.13820E+03  2.17269E+03 -4.02129E+03  2.83291E+03 -1.12016E+03
  3.19190E+03  2.14645E+03  1.64238E+03  2.67632E+03 -6.69250E+02  3.57060E+03 -1.85879E+03  1.96574E+03
 -3.18308E+03  5.69526E+02 -2.94180E+03 -1.91221E+03 -1.30790E+02 -2.67856E+03  1.18367E+03 -1.74262E+03
  2.34438E+03 -1.08627E+03  1.55484E+03  7.63042E+01  1.92095E+02  1.43433E+03  6.91075E+02  2.29014E+02
  1.34514E+03  5.10460E+02  9.06154E+02  9.35598E+02  7.00050E+02  1.78075E+03  1.00914E+03  1.24625E+03
 -1.22394E+03  2.11750E+03 -1.87646E+03  3.59864E+03 -2.30480E+03  1.03864E+03 -3.49335E+03 -9.47409E+01
 -9.90988E+02 -2.76369E+03  3.68908E+02 -3.79956E+03  1.48500E+03 -2.03625E+03  2.46547E+03 -6.86864E+02
  2.03609E+03  1.29847E+03 -3.76949E+01  1.64478E+03 -5.19309E+02  9.49515E+02 -8.51932E+02 -2.93325E+01
 -4.49524E+02 -1.18289E+03  1.05908E+03 -9.75155E+02  1.10638E+03 -5.72275E+02  9.79132E+02  2.44574E+02
  6.09878E+02 -6.77826E+01  5.68798E+02 -2.56481E+02 -1.35400E+02  6.48600E+02  1.49754E+03 -2.08836E+02
 -1.26601E+02  1.20132E+01  1.59454E+03  6.77254E+02  1.24912E+02  1.78339E+03 -5.26615E+02  2.42167E+03
 -1.19719E+03  4.70465E+02 -1.47627E+03  2.67866E+02 -1.60622E+03 -5.55270E+02  1.39673E+02 -6.49234E+02
  3.93805E+02 -8.56723E+02  8.53487E+02 -8.66284E+02  2.25805E+02  1.10546E+03 -8.75643E+02  9.93299E+02
 -1.25232E+03  3.97848E+02 -7.05316E+02 -1.16531E+03 -4.07436E+02 -1.86703E+03  1.90194E+02 -1.07425E+03
  1.42154E+01 -2.63676E+02  3.54134E+02  1.95285E+02  1.27104E+03 -4.37354E+02  3.13339E+02  8.72703E+02
  7.15751E+01 -6.62768E+01 -8.84861E+02 -5.24769E+01  5.39182E+02 -5.88648E+02  1.33812E+03 -8.36731E+02
  8.85934E+02  3.08756E+00  2.24476E+03  2.67478E+02  1.13018E+03  1.24267E+03 -1.73074E+02  1.41489E+03
 -1.00734E+03  5.44395E+01 -8.69559E+02 -6.07640E+01 -4.30349E+02 -1.02864E+03 -4.07450E+01 -3.37691E+02
  1.19390E+03 -5.79302E+02  3.87994E+02  6.38641E+02  2.87687E+02  1.07491E+03  3.56687E+02  5.04326E+02
 -3.73950E+02  8.74202E+02 -4.65153E+02  8.72954E+01 -9.50086E+01  2.42775E+02 -6.18216E+02  3.57252E+02
 -3.05461E+02  9.06539E+02 -1.45334E+03  2.51817E+02 -1.12234E+03  3.04354E+02 -1.87712E+03 -5.82673E+02
 -6.76022E+02 -1.76417E+03  5.47128E+02 -2.20091E+03  7.08651E+02 -1.65749E+03  2.01634E+03 -8.99851E+02
  1.81657E+03 -2.31775E+02  8.49072E+02  1.13161E+03 -8.96024E+02  7.82910E+02 -4.03251E+02  8.24689E+02
 -5.83859E+02  4.90411E+02 -3.37470E+02 -1.29716E+02 -4.98238E+02  2.82276E+02 -6.43509E+02 -9.81684E+01
 -1.10965E+03 -1.39186E+02 -6.63460E+02  5.26800E+01  5.18885E+02 -3.82953E+02 -1.95281E+02 -6.90362E+02
  1.06039E+03 -7.75777E+02 -6.26466E+01  2.92865E+02  1.03518E+03  6.75643E+02 -6.80760E+02  8.84066E+02
 -5.50196E+02  1.75300E+03 -1.10015E+03  1.07630E+03 -1.03619E+03 -3.33926E+02 -8.78630E+02 -1.07189E+03
 -6.25022E+02 -1.02503E+03  1.55190E+02 -8.98480E+02  6.19107E+01 -4.03276E+02  4.14348E+02  2.29386E+02
  4.95409E+02  2.62613E+01  5.89718E+01 -6.85297E+00 -9.95194E+01 -8.01299E+01  5.67917E+01 -1.46715E+02
  2.90457E+02  3.48318E+02  3.31668E+02  3.32701E+02  4.66534E+01  1.67345E+02  6.82110E+02  9.98790E+01
 -3.27762E+02  4.76096E+02 -1.16482E+02  9.27680E+01 -5.26431E+02 -3.09652E+02 -4.88133E+01 -6.03100E+02
  4.67423E+02 -4.72695E+02  1.45807E+02  1.98411E+02  8.97942E+02 -9.01637E+02  3.26357E+02  3.65037E+02
  1.52119E+02  3.71857E+01  5.59974E+01  2.75714E+02 -3.86040E+02  4.07078E+02 -3.21181E+02 -1.66448E+01
 -2.21559E+02 -1.17455E+02 -2.98756E+02  1.80934E+02 -4.58944E+02  2.74662E+01 -6.42724E+02 -5.04057E+02
 -1.07385E+03  3.95864E+02 -1.81179E+02 -5.97129E+02  5.52510E+02 -1.10715E+03  3.38213E+02 -4.94919E+02
  3.45608E+02  2.05930E+02 -4.21054E+02  6.83324E+01 -1.29135E+02  4.79406E+02 -9.30457E+01  7.16499E+02
