 $NMID ID='MM_0lb_SNR800_10hz_g60_42.RAW', FMTDAT='(8E13.5)'
 TRAMP=1., VOLUME=1. $END
  3.09686E+05  2.87658E+02  3.37802E+05  2.50634E+05  8.48211E+04  3.38698E+05 -1.32631E+05  2.51974E+05
 -1.90730E+05  8.40223E+04 -1.12492E+05 -3.23363E+04  3.76566E+02 -5.04163E+04  5.35489E+04 -6.03345E+02
  3.53624E+04  5.32966E+04 -1.67806E+04  7.67628E+04 -6.12574E+04  6.43177E+04 -8.58045E+04  3.22312E+04
 -8.25661E+04 -1.17418E+04 -5.80535E+04 -5.24857E+04 -1.55274E+04 -7.13060E+04  2.83967E+04 -4.69605E+04
  4.17888E+04  3.70044E+03  1.69226E+04  4.84094E+04 -3.45775E+04  4.83004E+04 -6.84774E+04  1.57243E+02
 -5.47757E+04 -5.77024E+04 -7.46222E+03 -7.96636E+04  3.46710E+04 -5.73209E+04  4.98108E+04 -1.79843E+04
  4.51944E+04  1.13330E+04  3.28250E+04  2.70528E+04  1.58173E+04  3.07659E+04 -5.89604E+03  2.71946E+04
 -2.26169E+04  1.21224E+04 -1.77053E+04 -6.25372E+03  7.20259E+03 -7.44142E+03  2.36163E+04  1.38521E+04
  6.79160E+03  3.78012E+04 -3.38352E+04  3.73882E+04 -6.57448E+04  1.68516E+03 -5.89976E+04 -4.47408E+04
 -1.26865E+04 -6.56164E+04  4.14962E+04 -4.74611E+04  6.16426E+04 -2.55158E+03  3.66166E+04  3.47613E+04
 -5.61900E+03  3.97561E+04 -3.20377E+04  1.92172E+04 -3.37178E+04 -3.19586E+03 -1.93932E+04 -1.23902E+04
 -9.56334E+03 -1.50873E+04 -5.84322E+02 -1.99825E+04  8.54409E+03 -2.35765E+04  1.59971E+04 -1.25834E+04
  1.02899E+04  6.12507E+03 -1.09334E+04  1.27243E+04 -2.39424E+04 -6.59207E+03 -8.47817E+03 -3.77597E+04
  2.53794E+04 -4.63479E+04  5.21568E+04 -2.10257E+04  4.87755E+04  2.04094E+04  1.72982E+04  4.71201E+04
 -1.65505E+04  3.60064E+04 -2.76307E+04  2.61768E+03 -1.18498E+04 -2.93605E+04  2.15355E+04 -3.70957E+04
  4.44841E+04 -1.15624E+04  4.10659E+04  2.51176E+04  2.11678E+04  5.13820E+04 -8.25335E+03  5.64744E+04
 -3.57954E+04  3.84973E+04 -4.75783E+04  1.16351E+04 -4.78626E+04 -1.88994E+04 -2.60404E+04 -4.23487E+04
  8.03076E+03 -4.24043E+04  3.43676E+04 -1.74038E+04  3.23560E+04  1.14397E+04  5.27901E+03  2.13280E+04
 -1.39875E+04  9.92131E+03 -1.11923E+04 -7.37499E+03  5.57759E+03 -1.13264E+04  1.88264E+04  5.29884E+03
  1.51347E+04  2.25329E+04 -5.15610E+03  2.75143E+04 -2.36661E+04  1.42710E+04 -3.18540E+04 -2.75256E+03
 -2.57226E+04 -1.87229E+04 -1.15909E+04 -2.51119E+04  4.08843E+03 -2.58432E+04  1.97376E+04 -2.32107E+04
  3.22479E+04 -1.42362E+04  3.84479E+04  5.15653E+03  2.68236E+04  2.48176E+04  4.55019E+03  4.12734E+04
 -1.98947E+04  3.41485E+04 -3.03905E+04  1.16681E+04 -2.24668E+04 -1.00617E+04 -4.99213E+03 -1.27074E+04
  1.08829E+03 -1.29670E+03 -7.81741E+03  8.13188E+03 -2.02563E+04  5.18045E+03 -2.00382E+04 -1.01977E+04
 -1.21765E+04 -2.35634E+04  5.88450E+03 -2.80013E+04  1.88767E+04 -2.00748E+04  2.26895E+04 -1.98694E+03
  1.41853E+04  1.64222E+04 -1.42337E+03  2.31149E+04 -1.62318E+04  1.34263E+04 -2.40683E+04 -4.61306E+03
 -1.75345E+04 -2.09737E+04 -2.49306E+03 -2.83693E+04  1.26884E+04 -2.37588E+04  2.35113E+04 -1.23434E+04
  2.20998E+04  6.79879E+01  1.59643E+04  5.42885E+03  8.68311E+03  1.63158E+03  1.19597E+04 -2.17333E+03
  2.18658E+04  3.05467E+03  2.52446E+04  1.83553E+04  1.74566E+04  3.74650E+04 -2.75378E+03  4.42464E+04
 -2.53730E+04  3.70345E+04 -4.22277E+04  1.91926E+04 -4.43984E+04 -3.27629E+03 -3.64010E+04 -2.60843E+04
 -1.43228E+04 -3.72142E+04  1.29825E+04 -3.25319E+04  2.78502E+04 -1.54378E+04  2.41140E+04  7.92709E+03
  8.39973E+03  1.87641E+04 -1.15860E+04  1.56491E+04 -2.04400E+04  2.39290E+03 -1.56045E+04 -1.29267E+04
 -1.93601E+02 -1.93611E+04  1.03053E+04 -1.46742E+04  1.34579E+04 -1.12178E+03  3.37650E+03  8.96374E+03
 -8.86325E+03  4.12049E+03 -9.10983E+03 -6.92665E+03 -1.84168E+03 -1.84816E+04  1.19712E+04 -2.01676E+04
  2.32087E+04 -1.11313E+04  2.59685E+04  3.28743E+03  2.28543E+04  1.84712E+04  1.04123E+04  2.91158E+04
 -5.37938E+03  3.11837E+04 -2.01943E+04  1.93561E+04 -2.23748E+04  4.47149E+03 -1.50392E+04 -6.01881E+03
 -6.66709E+03 -7.33751E+03 -4.39250E+02  3.67840E+02 -2.82691E+03  3.19407E+03 -7.23019E+03  5.65096E+03
 -1.40810E+04 -6.65834E+02 -1.45806E+04 -1.15504E+04 -5.86544E+03 -1.93109E+04  6.24899E+03 -1.53766E+04
  1.31187E+04 -6.57587E+03  8.95214E+03  3.97683E+03 -3.82084E+02  5.88570E+03 -7.85563E+03 -5.40797E+01
 -7.69081E+03 -1.01077E+04 -1.38537E+03 -1.59734E+04  9.19583E+03 -1.63304E+04  2.00393E+04 -8.75175E+03
  2.32051E+04  2.34963E+03  1.70055E+04  1.41360E+04  3.49760E+03  1.86193E+04 -9.47382E+03  1.52917E+04
 -1.27556E+04  4.58161E+03 -6.82509E+03 -3.43705E+03  2.38591E+03 -4.48852E+03  8.51975E+03 -6.05793E+02
  7.35876E+03  6.85003E+03  1.49423E+03  1.24971E+04 -8.57513E+03  1.18468E+04 -1.56708E+04  2.95215E+03
 -1.05264E+04 -8.54459E+03 -1.93027E+02 -1.32969E+04  8.78217E+03 -6.62911E+03  9.33666E+03  3.41129E+03
  2.30116E+03  1.00071E+04 -8.13091E+03  1.19965E+04 -1.34943E+04  5.00485E+03 -1.42086E+04 -4.97538E+03
 -7.76298E+03 -1.55899E+04  4.07781E+03 -1.78572E+04  1.50886E+04 -1.07503E+04  1.68451E+04  2.65451E+03
  9.74432E+03  1.28263E+04 -1.22187E+03  1.59116E+04 -1.13579E+04  8.59009E+03 -1.23704E+04 -1.24632E+03
 -1.09127E+04 -1.03857E+04 -1.39349E+03 -1.18945E+04  6.08715E+03 -9.61529E+03  7.51585E+03 -3.43249E+03
  5.28098E+03  2.10083E+03 -1.03745E+03  1.94774E+03 -8.04013E+02 -2.93639E+03  2.77911E+03 -7.21218E+03
  1.12636E+04 -4.32403E+03  1.55903E+04  1.60424E+03  1.55071E+04  1.06209E+04  1.03746E+04  2.04955E+04
 -5.10272E+03  2.32367E+04 -1.91964E+04  1.73541E+04 -2.53363E+04  3.43092E+03 -2.00306E+04 -8.92561E+03
 -1.03074E+04 -1.63870E+04 -4.38886E+02 -1.39314E+04  5.23295E+03 -8.21862E+03  5.17986E+03 -5.11871E+03
  3.81090E+03 -3.49336E+03  3.94190E+03 -3.70553E+03  5.93929E+03 -3.61363E+03  8.19181E+03 -1.95209E+03
  1.06393E+04  2.59396E+03  5.37138E+03  9.17635E+03 -2.18388E+03  1.11500E+04 -1.12820E+04  8.56801E+03
 -1.37748E+04 -1.38696E+03 -9.71348E+03 -1.01037E+04 -1.45909E+03 -1.52328E+04  8.62430E+03 -1.53760E+04
  1.61260E+04 -8.56005E+03  1.89110E+04  2.65839E+03  1.30756E+04  1.32960E+04  2.29029E+03  1.75147E+04
 -6.88979E+03  1.41709E+04 -1.05268E+04  4.55117E+03 -6.90784E+03 -1.94669E+03 -2.60801E+03 -2.12703E+03
 -1.14970E+03  1.49415E+02 -2.07745E+03  2.92475E+03 -5.80657E+03  2.61557E+03 -9.86366E+03 -1.57822E+03
 -6.97898E+03 -9.76493E+03  2.79498E+02 -1.42199E+04  8.80562E+03 -1.33150E+04  1.41598E+04 -3.74636E+03
  1.42237E+04  6.85621E+03  6.56523E+03  1.25743E+04 -2.56609E+03  1.41573E+04 -1.02287E+04  9.21452E+03
 -1.31653E+04  2.83876E+02 -1.05152E+04 -8.16140E+03 -1.25201E+03 -1.23256E+04  6.44157E+03 -8.97758E+03
  9.15649E+03 -2.79874E+03  6.31784E+03  2.32284E+03  2.29915E+03  4.02182E+03  1.39538E+03  1.75047E+03
  3.31501E+03  1.14468E+03  3.56440E+03  1.60017E+03  4.30006E+03  4.95830E+03  3.56318E+03  7.36099E+03
 -2.74045E+03  1.12471E+04 -9.99906E+03  1.12760E+04 -1.46857E+04  3.10341E+03 -1.50872E+04 -6.10818E+03
 -7.25726E+03 -1.44770E+04  1.79324E+03 -1.58693E+04  8.67278E+03 -1.00702E+04  1.14322E+04 -2.60175E+03
  9.41046E+03  5.69573E+03  1.93242E+03  8.13639E+03 -4.19500E+03  5.37772E+03 -6.01853E+03 -7.23185E+02
 -2.63193E+03 -5.90368E+03  3.20629E+03 -6.69473E+03  5.80845E+03 -2.88750E+03  5.95121E+03  1.29336E+03
  3.22547E+03  2.85463E+03  1.54030E+03  2.78579E+03 -7.05071E+02  1.60485E+03  2.17744E+03 -9.05503E+02
  2.04214E+03 -6.34495E+02  5.32283E+03  1.91255E+03  3.59011E+03  7.64509E+03 -1.07069E+03  9.77622E+03
 -6.68242E+03  6.38896E+03 -8.76317E+03  1.66801E+03 -8.57295E+03 -2.94245E+03 -3.58344E+03 -5.79823E+03
  1.10794E+03 -5.89374E+03  3.49533E+03 -2.56615E+03  2.85949E+03  2.98759E+03 -1.26576E+03  5.05625E+03
 -5.55117E+03  2.47830E+03 -7.01943E+03 -2.98779E+03 -4.18797E+03 -7.62513E+03  1.18256E+03 -8.43614E+03
  4.88968E+03 -4.76849E+03  5.76655E+03 -4.75745E+02  4.76861E+03  2.28726E+03  9.52917E+02  4.04207E+03
 -3.16153E+03  1.35448E+03 -3.58433E+03 -2.95232E+03  1.38611E+03 -5.89705E+03  7.02219E+03 -5.11104E+03
  8.92308E+03  2.42612E+02  8.56897E+03  6.01563E+03  3.03353E+03  9.41222E+03 -3.21906E+03  8.85236E+03
 -7.80991E+03  3.65498E+03 -8.02823E+03 -1.08991E+03 -4.41647E+03 -6.22213E+03  1.43625E+03 -5.25611E+03
  5.79504E+03 -3.00981E+03  4.96050E+03  2.26821E+03  1.30080E+03  5.36088E+03 -8.59067E+02  4.61434E+03
 -2.29477E+03  2.72664E+03 -2.34213E+03  1.05745E+03 -8.66959E+02  1.26734E+03 -1.54690E+03  2.08743E+03
 -2.43544E+03  3.56353E+03 -6.36459E+03  3.30558E+03 -8.80348E+03  3.59253E+02 -1.08373E+04 -5.91451E+03
 -5.45980E+03 -1.20228E+04  2.13656E+03 -1.42897E+04  8.50981E+03 -1.08521E+04  1.33519E+04 -4.52460E+03
  1.29683E+04  2.41471E+03  7.57685E+03  8.33757E+03  2.74907E+02  9.41339E+03 -3.46107E+03  6.83992E+03
 -5.25118E+03  2.36472E+03 -3.60712E+03 -1.15850E+03 -1.14333E+03 -1.12275E+03 -4.32536E+02 -1.50068E+02
 -1.99340E+03  4.11626E+02 -2.06091E+03 -1.09970E+02 -6.19090E+02 -2.38522E+03  2.43356E+02 -3.49028E+03
  4.40567E+03 -2.92065E+03  5.84295E+03 -1.25249E+02  6.72884E+03  4.98632E+03  1.86415E+03  9.61850E+03
 -4.69955E+03  1.08200E+04 -9.85901E+03  6.33252E+03 -1.15677E+04 -1.20689E+03 -8.74134E+03 -7.30235E+03
 -3.65933E+03 -9.84180E+03  2.78923E+03 -8.77603E+03  6.22758E+03 -4.85289E+03  6.17767E+03 -3.47043E+01
  3.67779E+03  2.76631E+03 -2.73898E+02  2.69081E+03 -1.69567E+03 -1.03035E+02 -2.83551E+02 -2.13385E+03
  3.04293E+03 -1.31660E+03  3.81679E+03  1.57428E+03  2.15076E+03  3.70545E+03  3.55614E+02  4.49385E+03
 -4.28710E+03  4.46572E+03 -6.31194E+03  5.84096E+02 -5.58313E+03 -4.55078E+03 -1.06453E+03 -7.66253E+03
  4.53269E+03 -6.42434E+03  7.09715E+03 -2.07823E+03  7.17775E+03  1.38671E+03  3.99814E+03  5.75544E+03
  1.11978E+03  5.83854E+03 -2.39528E+03  4.94902E+03 -3.96107E+03  2.52101E+03 -3.59212E+03  6.37662E+02
 -2.02149E+03  2.00720E+01 -1.95153E+03  9.89797E+02 -3.12935E+03  1.11115E+03 -4.86402E+03 -1.18406E+03
 -4.61793E+03 -3.23985E+03 -1.42229E+03 -6.20008E+03  2.92637E+03 -6.23944E+03  5.63743E+03 -3.25569E+03
  5.85085E+03  8.34816E+02  3.07651E+03  4.29647E+03 -5.58491E+02  6.44903E+03 -4.36316E+03  4.03623E+03
