 $NMID ID='MM_0lb_SNR800_18hz_g40_75.RAW', FMTDAT='(8E13.5)'
 TRAMP=1., VOLUME=1. $END
  3.09789E+05  3.41632E+02  3.37205E+05  2.50212E+05  8.41364E+04  3.37375E+05 -1.32553E+05  2.50121E+05
 -1.89786E+05  8.22462E+04 -1.10980E+05 -3.25164E+04  1.28126E+03 -5.03852E+04  5.38282E+04  3.58886E+02
  3.51218E+04  5.28327E+04 -1.70581E+04  7.46170E+04 -6.04366E+04  6.26839E+04 -8.30028E+04  3.13098E+04
 -7.92457E+04 -1.11877E+04 -5.60812E+04 -5.01884E+04 -1.51218E+04 -6.80885E+04  2.64574E+04 -4.47795E+04
  3.87798E+04  3.86839E+03  1.55637E+04  4.67523E+04 -3.39483E+04  4.62205E+04 -6.50184E+04 -8.95263E+02
 -5.19070E+04 -5.57681E+04 -6.08510E+03 -7.46533E+04  3.29950E+04 -5.29145E+04  4.60424E+04 -1.59338E+04
  4.19774E+04  1.12847E+04  3.03053E+04  2.43192E+04  1.59215E+04  2.81855E+04 -4.73384E+03  2.65417E+04
 -2.15783E+04  1.30205E+04 -1.90932E+04 -4.19544E+03  3.98985E+03 -7.67138E+03  2.10950E+04  1.07494E+04
  7.42509E+03  3.31747E+04 -3.01689E+04  3.34708E+04 -6.10565E+04  2.41072E+03 -5.51913E+04 -4.09389E+04
 -1.23376E+04 -6.08198E+04  3.78920E+04 -4.31779E+04  5.52196E+04 -1.96170E+03  3.15534E+04  3.02846E+04
 -6.50568E+03  3.26280E+04 -2.81552E+04  1.29363E+04 -2.72828E+04 -5.42806E+03 -1.39845E+04 -9.98195E+03
 -7.04827E+03 -1.14632E+04 -1.14216E+03 -1.62617E+04  6.34031E+03 -2.25478E+04  1.49545E+04 -1.40088E+04
  1.20912E+04  4.07735E+03 -5.81516E+03  1.30535E+04 -1.92691E+04 -2.48557E+03 -7.69537E+03 -3.02588E+04
  2.09720E+04 -4.00522E+04  4.44694E+04 -1.85951E+04  4.17334E+04  1.78810E+04  1.41949E+04  4.13223E+04
 -1.52519E+04  3.06763E+04 -2.34475E+04  1.02573E+03 -8.05889E+03 -2.60990E+04  2.03823E+04 -3.09562E+04
  3.75028E+04 -7.10579E+03  3.11667E+04  2.26688E+04  1.50779E+04  4.21679E+04 -8.05447E+03  4.47423E+04
 -2.83964E+04  2.97070E+04 -3.68328E+04  8.34063E+03 -3.79881E+04 -1.47665E+04 -2.10711E+04 -3.42972E+04
  6.63557E+03 -3.40967E+04  2.88967E+04 -1.27052E+04  2.66638E+04  1.06964E+04  2.85172E+03  1.77222E+04
 -1.31019E+04  7.34292E+03 -9.32429E+03 -7.82035E+03  5.99755E+03 -9.99997E+03  1.71845E+04  6.47257E+03
  1.24112E+04  2.16642E+04 -6.64679E+03  2.32386E+04 -2.13328E+04  9.03091E+03 -2.50483E+04 -6.12713E+03
 -1.63153E+04 -1.63336E+04 -5.23288E+03 -1.65722E+04  3.74522E+03 -1.40994E+04  1.23284E+04 -1.41704E+04
  2.08344E+04 -1.15897E+04  2.81718E+04  1.08839E+03  2.08845E+04  1.62801E+04  4.07846E+03  3.20890E+04
 -1.61928E+04  2.74188E+04 -2.55334E+04  9.54054E+03 -1.98152E+04 -1.06865E+04 -3.76255E+03 -1.39888E+04
  2.48925E+03 -4.37411E+03 -2.57892E+03  4.82665E+03 -1.27825E+04  5.06011E+03 -1.31613E+04 -4.96477E+03
 -8.75808E+03 -1.52658E+04  4.41106E+03 -1.91389E+04  1.24263E+04 -1.39297E+04  1.41429E+04 -1.58749E+03
  8.94240E+03  1.06189E+04 -1.03041E+03  1.54662E+04 -9.85295E+03  8.86373E+03 -1.51312E+04 -3.70416E+03
 -1.13128E+04 -1.40789E+04 -1.03098E+03 -1.86245E+04  8.37639E+03 -1.51701E+04  1.61329E+04 -7.10545E+03
  1.44717E+04  3.95073E+02  1.03584E+04  3.96797E+03  5.12469E+03  6.67185E+02  7.33914E+03 -1.37615E+03
  1.35770E+04  2.62012E+03  1.44479E+04  1.28610E+04  8.90538E+03  2.43858E+04 -3.45611E+03  2.62665E+04
 -1.57136E+04  1.99101E+04 -2.42646E+04  9.36082E+03 -2.44203E+04 -1.83756E+03 -2.11822E+04 -1.42867E+04
 -9.98483E+03 -2.01667E+04  6.42413E+03 -1.86316E+04  1.63011E+04 -1.07322E+04  1.56687E+04  3.55116E+03
  6.60487E+03  1.10884E+04 -6.99752E+03  1.03507E+04 -1.31269E+04  2.52477E+03 -1.03128E+04 -7.99177E+03
 -4.08683E+02 -1.23190E+04  6.26975E+03 -9.47755E+03  7.77902E+03 -1.33659E+03  1.45447E+03  4.74770E+03
 -5.66669E+03  1.36434E+03 -3.60172E+03 -4.87984E+03  6.31725E+02 -1.00468E+04  7.54903E+03 -1.02452E+04
  1.21304E+04 -4.78382E+03  1.18765E+04  2.87080E+03  1.02618E+04  9.26674E+03  4.81429E+03  1.38145E+04
 -1.54830E+03  1.56307E+04 -9.67825E+03  1.00518E+04 -1.10611E+04  2.97115E+03 -8.42122E+03 -1.93633E+03
 -4.24381E+03 -3.37226E+03 -1.01509E+03  1.43751E+03 -1.93148E+03  2.06366E+03 -3.62292E+03  3.58812E+03
 -8.09656E+03 -3.09034E+02 -8.89398E+03 -7.35558E+03 -3.59185E+03 -1.12843E+04  3.31987E+03 -8.43146E+03
  7.35162E+03 -3.85460E+03  5.22251E+03  2.36083E+03  5.44494E+02  3.27952E+03 -3.57034E+03 -9.27256E+01
 -3.47417E+03 -5.10565E+03 -8.92191E+02 -7.34213E+03  3.82385E+03 -7.82831E+03  9.80544E+03 -4.08613E+03
  1.17739E+04  6.84246E+02  8.85452E+03  6.40434E+03  1.49734E+03  8.73136E+03 -5.35332E+03  8.16038E+03
 -6.96051E+03  2.84145E+03 -3.48235E+03 -1.38611E+03  1.31660E+03 -1.91440E+03  4.62716E+03 -7.48498E+02
  3.90740E+03  3.28728E+03  9.87588E+02  6.33824E+03 -4.69614E+03  6.47000E+03 -7.78269E+03  1.87585E+03
 -4.88551E+03 -3.59438E+03  9.60815E+01 -6.63808E+03  3.56567E+03 -3.32134E+03  3.54915E+03  1.04530E+03
  1.96681E+02  3.35685E+03 -3.97189E+03  4.87502E+03 -4.97888E+03  2.54034E+03 -4.59262E+03 -1.14133E+03
 -2.65192E+03 -6.02297E+03  1.02301E+03 -6.87039E+03  5.95334E+03 -4.70375E+03  6.34259E+03  1.06480E+03
  4.62807E+03  5.16934E+03 -6.54739E+01  7.14566E+03 -4.98085E+03  4.20585E+03 -5.30480E+03 -4.18715E+02
 -5.75040E+03 -5.06609E+03 -1.49353E+03 -5.18140E+03  2.68176E+03 -4.73893E+03  2.87917E+03 -3.05971E+03
  2.78499E+03  1.46613E+01  7.78445E+01  1.09051E+03  2.73919E+02 -1.07415E+02 -1.22769E+02 -1.98174E+03
  3.96972E+03 -5.86922E+02  5.21094E+03  8.57436E+02  5.52148E+03  3.15447E+03  5.32886E+03  7.13232E+03
 -1.37841E+03  8.38684E+03 -7.84711E+03  6.77484E+03 -1.00365E+04  1.54854E+03 -7.91634E+03 -2.79738E+03
 -4.46699E+03 -6.40205E+03 -6.10266E+02 -4.95065E+03  2.13187E+03 -2.22388E+03  1.62452E+03 -2.22363E+03
  1.16689E+03 -1.54525E+03  2.20681E+03 -2.36164E+03  3.46936E+03 -1.50099E+03  3.76729E+03  3.70220E+02
  4.65511E+03  1.14856E+03  1.24995E+03  3.41485E+03 -1.54115E+03  2.76373E+03 -4.49387E+03  2.65665E+03
 -5.12918E+03 -1.01012E+03 -1.67158E+03 -3.38162E+03  5.10355E+02 -4.86438E+03  3.35914E+03 -5.52930E+03
  5.24007E+03 -3.20882E+03  6.68331E+03  1.68652E+02  4.93838E+03  4.32288E+03  1.33885E+03  6.10601E+03
 -2.18915E+03  5.67363E+03 -3.54839E+03  2.07003E+03 -1.93598E+03 -8.72827E+02 -4.93761E+02 -1.84217E+02
 -6.41037E+02  4.20862E+02 -7.71672E+02  1.98010E+03 -2.49443E+03  1.03965E+03 -4.04324E+03 -5.52179E+02
 -1.68669E+03 -4.15803E+03  8.57673E+02 -4.87904E+03  2.67349E+03 -4.66886E+03  3.67288E+03 -1.11927E+03
  4.02885E+03  2.47907E+03  2.24792E+03  3.68706E+03 -1.06916E+03  4.65204E+03 -2.72335E+03  2.88381E+03
 -3.69735E+03  2.73739E+02 -3.78308E+03 -2.52410E+03 -3.67340E+02 -3.37909E+03  1.80221E+03 -2.59303E+03
  2.48603E+03 -1.40793E+03  1.92398E+03  7.06104E+02  4.34049E+02  1.65206E+03  1.02211E+03  5.32208E+02
  1.62235E+03  5.80598E+02  9.85667E+02  1.04081E+03  1.37901E+03  1.81803E+03  1.51376E+03  1.99041E+03
 -1.44027E+03  3.06777E+03 -2.77247E+03  4.19659E+03 -3.27719E+03  1.19040E+03 -4.12884E+03 -2.57633E+02
 -1.78856E+03 -3.84185E+03  4.25585E+02 -4.93581E+03  2.09786E+03 -2.81217E+03  3.65192E+03 -9.61043E+02
  2.41874E+03  1.79055E+03  2.13832E+02  2.53567E+03 -7.49643E+02  1.29925E+03 -1.09576E+03 -1.65747E+02
 -7.78873E+02 -1.43643E+03  1.44544E+03 -1.71178E+03  1.19107E+03 -8.01354E+02  1.26024E+03  3.78606E+02
  8.93114E+02  1.73389E+02  7.31905E+02 -2.50845E+02 -2.29985E+02  6.44336E+02  1.74559E+03 -3.62295E+02
 -6.01934E+01 -2.52540E+02  2.25544E+03  5.24289E+02  5.04581E+02  2.50723E+03 -1.70578E+02  3.19844E+03
 -1.84468E+03  1.34776E+03 -2.02082E+03  4.07208E+02 -2.50770E+03 -1.05628E+03 -3.93637E+02 -1.07025E+03
  1.69393E+02 -1.38665E+03  1.03607E+03 -7.49296E+02  8.32712E+02  1.32209E+03 -6.06852E+02  1.27752E+03
 -1.57818E+03  7.82371E+02 -1.29319E+03 -1.48036E+03 -7.59617E+02 -2.17952E+03  4.67194E+02 -1.62105E+03
  4.06456E+02 -7.25139E+02  8.00540E+02  1.15649E+02  1.41864E+03 -2.76120E+01  5.07995E+02  1.29954E+03
 -1.20632E+02  4.46040E+02 -1.27281E+03 -1.86580E+02  6.03162E+02 -8.07151E+02  2.11185E+03 -9.19817E+02
  1.21980E+03  3.28437E+02  2.97660E+03  7.88611E+02  1.18924E+03  1.90337E+03 -5.61455E+02  2.11366E+03
 -1.65716E+03  5.65106E+01 -1.99183E+03 -6.46334E+01 -7.35747E+02 -1.48770E+03  2.25914E+02 -7.89348E+02
  1.50788E+03 -8.81253E+02  8.72088E+02  4.60190E+02  1.34364E+02  1.57371E+03  1.83710E+02  1.26549E+03
 -3.17886E+02  1.11047E+03 -5.09844E+02  2.00009E+02  2.57129E+02  2.88372E+02 -5.51461E+02  7.22060E+02
 -5.83831E+02  6.71950E+02 -1.91539E+03  7.95587E+02 -1.97548E+03  5.69172E+01 -2.51946E+03 -1.08589E+03
 -1.13656E+03 -2.41345E+03  4.00980E+02 -3.16958E+03  1.38503E+03 -2.55294E+03  2.89527E+03 -1.06203E+03
  2.29484E+03 -7.57357E+01  1.44555E+03  1.61273E+03 -5.57585E+02  1.59437E+03 -5.84261E+02  1.31580E+03
 -1.10654E+03  8.01775E+02 -4.72085E+02 -1.85964E+02 -3.79745E+02  2.67206E+02 -6.22059E+02  2.53398E+02
 -1.16179E+03 -2.62080E+02 -1.02639E+03  1.43331E+02  1.97117E+02 -5.76086E+02 -3.63499E+02 -9.80758E+02
  1.29983E+03 -6.71947E+02  4.40248E+02 -7.80962E+01  1.06311E+03  1.21710E+03 -6.49736E+02  1.66722E+03
 -9.44856E+02  2.46501E+03 -2.01878E+03  1.57772E+03 -2.02890E+03 -1.01264E+00 -1.32630E+03 -1.35739E+03
 -1.05249E+03 -1.73800E+03  4.23927E+02 -1.47470E+03  6.48001E+02 -8.54830E+02  9.14322E+02  1.79752E+02
  7.15391E+02  2.65188E+02  1.11745E+02  4.16505E+02 -2.44212E+02 -1.15058E+02 -1.37550E+02  8.93803E+01
  6.04585E+02  3.30121E+02  3.12688E+02  6.21621E+02  7.02996E+01  4.29879E+02  4.92673E+02  6.07770E+02
 -6.35726E+02  9.27353E+02 -7.11624E+02  1.99696E+02 -1.00930E+03 -6.45381E+02  1.68177E+02 -1.28999E+03
  4.58635E+02 -1.00778E+03  7.92762E+02  1.96895E+02  1.19828E+03 -5.34952E+02  5.77156E+02  9.78942E+02
  5.26418E+02  8.53903E+02 -5.75741E+02  7.29118E+02 -4.57330E+02  5.37961E+02 -6.30284E+02  2.59701E+02
 -2.88258E+02 -7.74143E+01 -3.02986E+02  2.54738E+02 -6.89455E+02  2.71502E+02 -6.68783E+02 -4.94654E+02
 -1.12240E+03  1.64305E+02 -3.73973E+02 -1.14221E+03  9.04439E+02 -1.54010E+03  8.96455E+02 -4.41517E+02
  8.96696E+02  1.91001E+02 -1.11119E+02  3.58144E+02 -1.86033E+02  1.17626E+03 -4.39493E+02  9.54979E+02
