 $NMID ID='MM_0lb_SNR800_20hz_g50_30.RAW', FMTDAT='(8E13.5)'
 TRAMP=1., VOLUME=1. $END
  3.09942E+05  3.05277E+02  3.37527E+05  2.50386E+05  8.43005E+04  3.37410E+05 -1.32722E+05  2.50195E+05
 -1.89647E+05  8.24645E+04 -1.10989E+05 -3.29086E+04  1.53764E+03 -5.02739E+04  5.39184E+04  2.64290E+02
  3.50321E+04  5.28493E+04 -1.71467E+04  7.47055E+04 -6.00592E+04  6.25981E+04 -8.26968E+04  3.12172E+04
 -7.94018E+04 -1.11801E+04 -5.61033E+04 -4.97697E+04 -1.47884E+04 -6.82702E+04  2.61487E+04 -4.44520E+04
  3.87521E+04  3.76430E+03  1.55289E+04  4.70175E+04 -3.39297E+04  4.60908E+04 -6.51837E+04 -7.13895E+02
 -5.16514E+04 -5.58853E+04 -6.35771E+03 -7.45578E+04  3.30105E+04 -5.31907E+04  4.58010E+04 -1.61817E+04
  4.12636E+04  1.08891E+04  3.04105E+04  2.44249E+04  1.54028E+04  2.80558E+04 -4.58274E+03  2.66208E+04
 -2.15231E+04  1.27212E+04 -1.91148E+04 -3.96036E+03  4.03175E+03 -7.63899E+03  2.12739E+04  1.09492E+04
  7.39457E+03  3.29146E+04 -3.04005E+04  3.38179E+04 -6.05265E+04  2.24476E+03 -5.50215E+04 -4.09909E+04
 -1.21031E+04 -6.04208E+04  3.76742E+04 -4.30418E+04  5.48423E+04 -1.70303E+03  3.14541E+04  3.02978E+04
 -6.56709E+03  3.26042E+04 -2.83184E+04  1.28018E+04 -2.68642E+04 -5.42427E+03 -1.40429E+04 -1.00080E+04
 -7.28271E+03 -1.10673E+04 -8.32690E+02 -1.64136E+04  6.58395E+03 -2.23861E+04  1.50010E+04 -1.38896E+04
  1.21963E+04  4.06742E+03 -5.69364E+03  1.28327E+04 -1.87848E+04 -1.89815E+03 -8.09179E+03 -2.99439E+04
  2.05128E+04 -4.00621E+04  4.41383E+04 -1.84267E+04  4.15237E+04  1.80295E+04  1.42008E+04  4.13240E+04
 -1.52871E+04  3.09630E+04 -2.29441E+04  1.00584E+03 -8.01910E+03 -2.59188E+04  2.05916E+04 -3.08963E+04
  3.73770E+04 -6.71089E+03  3.05089E+04  2.24845E+04  1.49306E+04  4.16809E+04 -7.81406E+03  4.44292E+04
 -2.81768E+04  2.93452E+04 -3.65274E+04  7.88984E+03 -3.75880E+04 -1.48809E+04 -2.08701E+04 -3.37225E+04
  6.86013E+03 -3.35074E+04  2.86937E+04 -1.25912E+04  2.60857E+04  1.08595E+04  3.06013E+03  1.74943E+04
 -1.29881E+04  6.95616E+03 -9.55128E+03 -7.90543E+03  5.97343E+03 -9.85357E+03  1.70150E+04  6.35887E+03
  1.20146E+04  2.16302E+04 -6.83188E+03  2.29180E+04 -2.12000E+04  8.93317E+03 -2.44443E+04 -6.79023E+03
 -1.60119E+04 -1.62646E+04 -4.92524E+03 -1.62209E+04  3.65499E+03 -1.36747E+04  1.22716E+04 -1.35696E+04
  2.04495E+04 -1.14533E+04  2.71062E+04  8.79234E+02  2.06450E+04  1.55002E+04  4.09211E+03  3.16185E+04
 -1.59829E+04  2.68996E+04 -2.52992E+04  9.10901E+03 -1.95586E+04 -1.02178E+04 -3.88360E+03 -1.42116E+04
  2.92659E+03 -4.25172E+03 -2.28448E+03  5.00137E+03 -1.25050E+04  5.47325E+03 -1.26319E+04 -4.67650E+03
 -8.11536E+03 -1.47377E+04  4.54563E+03 -1.85980E+04  1.19651E+04 -1.34846E+04  1.39502E+04 -1.46281E+03
  8.14765E+03  1.02933E+04 -8.33895E+02  1.50475E+04 -9.55448E+03  8.43964E+03 -1.47641E+04 -3.15992E+03
 -1.11613E+04 -1.36932E+04 -1.22753E+03 -1.82554E+04  8.19713E+03 -1.47811E+04  1.56606E+04 -6.74985E+03
  1.39161E+04  9.70047E+02  9.85001E+03  3.71540E+03  4.90033E+03  6.49690E+02  7.17387E+03 -1.24576E+03
  1.32593E+04  2.72654E+03  1.36486E+04  1.22278E+04  8.40952E+03  2.39209E+04 -3.19906E+03  2.49540E+04
 -1.50162E+04  1.86650E+04 -2.28236E+04  9.07710E+03 -2.31883E+04 -1.75027E+03 -2.00513E+04 -1.31677E+04
 -9.94514E+03 -1.89903E+04  6.07293E+03 -1.78181E+04  1.53106E+04 -1.03091E+04  1.49077E+04  3.30321E+03
  6.53829E+03  1.08150E+04 -6.66185E+03  9.91678E+03 -1.26062E+04  2.95769E+03 -9.84390E+03 -7.71901E+03
  1.08263E+01 -1.18076E+04  5.89793E+03 -8.87252E+03  7.35260E+03 -1.28806E+03  1.37243E+03  4.83984E+03
 -5.31485E+03  8.71110E+02 -3.23739E+03 -4.51699E+03  8.02592E+02 -9.67688E+03  7.62446E+03 -9.06977E+03
  1.13993E+04 -4.24338E+03  1.06782E+04  2.74664E+03  9.15719E+03  8.70798E+03  4.40996E+03  1.24974E+04
 -9.91368E+02  1.44970E+04 -8.52972E+03  9.19115E+03 -1.01261E+04  2.80955E+03 -7.59265E+03 -1.55113E+03
 -4.41118E+03 -2.97747E+03 -7.52239E+02  1.46085E+03 -1.72062E+03  1.79408E+03 -3.16284E+03  3.43224E+03
 -7.66596E+03 -4.24285E+02 -8.49570E+03 -6.66731E+03 -3.38282E+03 -1.09573E+04  3.03482E+03 -7.94695E+03
  6.46846E+03 -3.38507E+03  5.07169E+03  2.10223E+03  5.53456E+02  2.76551E+03 -3.12170E+03 -1.97853E+02
 -3.28563E+03 -4.78983E+03 -6.95842E+02 -6.28516E+03  3.67005E+03 -7.36023E+03  9.05376E+03 -3.60341E+03
  1.04450E+04  5.02948E+02  7.89657E+03  5.33899E+03  1.67199E+03  7.77537E+03 -4.67706E+03  7.78064E+03
 -6.34620E+03  2.56423E+03 -3.14810E+03 -9.87142E+02  1.37659E+03 -1.54793E+03  4.23198E+03 -1.10475E+03
  3.78919E+03  2.90138E+03  1.03085E+03  5.82036E+03 -4.08959E+03  5.84433E+03 -7.16572E+03  1.84906E+03
 -4.22836E+03 -3.21057E+03  1.65249E+02 -6.03410E+03  3.02154E+03 -2.98558E+03  3.08469E+03  5.91698E+02
  3.53884E+02  2.87165E+03 -3.59637E+03  4.15578E+03 -4.29818E+03  2.19485E+03 -3.75029E+03 -1.02747E+03
 -2.32702E+03 -5.24814E+03  6.83888E+02 -6.07425E+03  4.89631E+03 -4.44179E+03  5.54644E+03  6.67965E+02
  4.19945E+03  4.50008E+03  3.70200E+02  6.16370E+03 -4.45219E+03  3.90326E+03 -4.50225E+03 -4.78246E+02
 -5.09923E+03 -4.81911E+03 -1.16928E+03 -4.43683E+03  2.38690E+03 -4.14254E+03  2.56007E+03 -3.03433E+03
  2.66848E+03  2.37879E+02  2.90808E+02  1.31167E+03  7.04699E+02  1.26462E+02 -7.35369E+01 -1.06035E+03
  3.21410E+03 -1.97023E+02  4.38629E+03  7.23752E+02  4.69227E+03  2.32365E+03  5.08942E+03  6.17093E+03
 -9.41032E+02  7.21375E+03 -6.79470E+03  5.35282E+03 -8.45508E+03  1.08394E+03 -6.74577E+03 -2.05295E+03
 -3.52989E+03 -5.64786E+03 -3.42821E+02 -4.21744E+03  1.99259E+03 -1.53799E+03  1.41658E+03 -1.84909E+03
  1.08833E+03 -1.65053E+03  1.94448E+03 -2.38763E+03  3.18614E+03 -9.16307E+02  3.21201E+03  6.24681E+02
  3.96006E+03  1.29622E+03  6.60184E+02  2.88856E+03 -1.48704E+03  2.10291E+03 -3.80372E+03  2.08208E+03
 -4.06090E+03 -9.94155E+02 -1.06766E+03 -2.93910E+03  5.13240E+02 -3.86255E+03  2.54919E+03 -4.20994E+03
  4.31689E+03 -2.63961E+03  5.74100E+03  4.99100E+01  4.16377E+03  3.12358E+03  8.04426E+02  5.24073E+03
 -1.78281E+03  5.07752E+03 -2.80482E+03  1.65582E+03 -1.19262E+03 -1.09773E+03 -3.47169E+02 -2.79753E+02
 -2.68730E+02  1.01914E+02 -8.20971E+02  1.74128E+03 -2.31149E+03  1.01340E+03 -3.57206E+03 -3.34878E+02
 -9.22154E+02 -3.64045E+03  1.06501E+03 -4.01827E+03  2.26259E+03 -3.83274E+03  2.54258E+03 -7.48610E+02
  3.32765E+03  2.22768E+03  1.56624E+03  2.44922E+03 -8.84751E+02  3.60813E+03 -2.02254E+03  2.20523E+03
 -2.78621E+03  5.49578E+02 -2.80114E+03 -1.78194E+03 -1.83771E+02 -2.87614E+03  1.21330E+03 -1.95761E+03
  2.16136E+03 -9.37698E+02  1.47524E+03  5.71293E+01  2.91764E+02  1.42500E+03  7.64071E+02  4.09943E+02
  1.80908E+03  3.53896E+02  1.03509E+03  9.39738E+02  7.38085E+02  1.97417E+03  1.34046E+03  1.19248E+03
 -1.19306E+03  2.41817E+03 -2.02990E+03  3.49135E+03 -2.02950E+03  1.18695E+03 -3.13780E+03 -2.68891E+02
 -1.26662E+03 -2.76460E+03  6.84604E+02 -3.84216E+03  1.46232E+03 -1.87543E+03  2.49766E+03 -6.21594E+02
  1.88321E+03  1.40668E+03  1.78294E+02  2.04218E+03 -4.20082E+02  1.24980E+03 -4.66380E+02 -1.94919E+02
 -3.91995E+02 -9.76534E+02  1.12128E+03 -1.01437E+03  8.00611E+02 -9.22291E+02  9.97885E+02  3.96356E+02
  6.66466E+02  1.75837E+02  6.27513E+02 -3.67584E+02 -4.56463E+02  4.19305E+02  1.52014E+03 -9.64464E+01
 -3.92009E+02  1.41308E+01  1.32138E+03  1.97422E+02  3.05545E+01  1.95396E+03 -2.13826E+02  2.25243E+03
 -1.11848E+03  4.49601E+02 -1.55030E+03  1.28672E+02 -1.69782E+03 -5.82643E+02  1.27128E+02 -5.18172E+02
  4.30469E+02 -1.06785E+03  6.62612E+02 -4.70528E+02  4.00940E+02  1.02363E+03 -6.50850E+02  1.00520E+03
 -1.11023E+03  5.54208E+02 -7.71615E+02 -1.08974E+03 -4.12190E+02 -1.50318E+03  2.71057E+02 -1.30576E+03
  4.33354E+02 -2.08176E+02  3.88331E+02  2.22958E+02  9.58108E+02 -1.45060E+02  4.28055E+02  9.03470E+02
  1.66659E+02  1.45304E+02 -7.55947E+02  3.22794E+01  6.74370E+02 -4.10038E+02  1.36599E+03 -6.93544E+02
  7.25236E+02  4.91004E+02  2.36862E+03  2.69956E+02  8.96489E+02  1.15927E+03 -4.34529E+01  1.38756E+03
 -1.22961E+03  6.20518E+01 -9.64153E+02 -8.23515E+01 -6.24998E+02 -1.04340E+03  2.99620E+02 -3.57308E+02
  1.05945E+03 -3.71219E+02  3.23869E+02  6.08109E+02  9.71991E+01  1.00861E+03  5.07528E+02  9.62734E+02
 -2.99430E+02  1.05090E+03 -5.46580E+02  2.49854E+02  2.23074E+02  3.49473E+02 -5.62115E+02  4.55479E+02
 -2.75244E+02  6.21362E+02 -1.63135E+03  1.00716E+02 -1.18992E+03  2.64670E+02 -1.93998E+03 -6.58464E+02
 -8.55361E+02 -1.61612E+03  6.65347E+02 -2.40953E+03  2.41532E+02 -2.01708E+03  1.96610E+03 -7.76349E+02
  1.86239E+03 -3.78958E+02  6.07579E+02  1.29885E+03 -8.30590E+02  1.12677E+03 -5.48742E+02  7.12324E+02
 -6.50113E+02  5.71116E+02 -3.33943E+02 -2.01640E+02 -6.21991E+02  1.70961E+02 -5.62415E+02  1.17113E+01
 -1.03696E+03 -2.12245E+02 -4.82553E+02  3.21050E+02  2.75078E+02 -3.36849E+02 -4.18076E+02 -5.84548E+02
  1.09974E+03 -5.74464E+02 -1.18206E+02  1.67499E+01  8.29672E+02  8.17151E+02 -5.85482E+02  9.52909E+02
 -6.74923E+02  1.86929E+03 -1.11561E+03  1.19018E+03 -1.37591E+03 -1.38849E+02 -3.27879E+02 -7.91648E+02
 -9.43464E+02 -7.74954E+02 -3.57709E+01 -5.37406E+02  2.13342E+02 -3.11468E+02  2.36961E+02 -3.22190E+01
  6.03673E+02  1.82513E+02  1.40633E+02  1.86356E+02 -3.08411E+02 -1.72998E+02  2.83843E+02  1.58765E+02
  2.30931E+02  2.17280E+02 -7.35960E+00  3.39142E+02  4.45740E+01  5.21706E+01  4.88948E+02  2.26341E+02
 -1.16711E+02  4.49852E+02 -1.14249E+02  1.44553E+02 -4.05243E+02 -5.21698E+01  2.45954E+02 -5.83496E+02
  4.19056E+02 -3.62129E+02  2.90886E+02  3.21161E+02  7.96032E+02 -9.24765E+02  4.64201E+02  6.12743E+02
  3.38113E+02  1.47035E+02 -2.50530E+02  3.70009E+02 -2.13059E+02  4.53416E+02 -9.48319E+01  3.28131E+02
 -1.50952E+01 -2.57479E+01 -5.26369E+02 -1.10123E+02 -3.26604E+02  2.08248E+02 -5.75389E+02 -2.22092E+02
 -8.86861E+02  4.75482E+02 -2.87102E+02 -4.95237E+02  5.82080E+02 -1.10834E+03  2.93473E+02 -1.31735E+02
  2.73200E+02 -1.94997E+02 -5.97500E+02  5.39380E+01  6.75839E+01  6.83008E+02 -2.98452E+02  7.25311E+02
