 $NMID ID='MM_0lb_SNR800_7hz_g55_55.RAW', FMTDAT='(8E13.5)'
 TRAMP=1., VOLUME=1. $END
  3.10030E+05  4.88330E+02  3.37820E+05  2.50856E+05  8.50962E+04  3.38626E+05 -1.32509E+05  2.52389E+05
 -1.91177E+05  8.40761E+04 -1.12868E+05 -3.21506E+04 -7.59914E+00 -5.07140E+04  5.37093E+04 -7.68982E+02
  3.57416E+04  5.23215E+04 -1.61234E+04  7.63387E+04 -6.11374E+04  6.48047E+04 -8.61134E+04  3.26742E+04
 -8.30450E+04 -1.22529E+04 -5.86513E+04 -5.30517E+04 -1.54516E+04 -7.16477E+04  2.84340E+04 -4.72182E+04
  4.12554E+04  3.40888E+03  1.72704E+04  4.86047E+04 -3.51496E+04  4.85274E+04 -6.90189E+04 -6.18659E+01
 -5.54063E+04 -5.84194E+04 -7.43029E+03 -7.98454E+04  3.54096E+04 -5.82323E+04  5.06487E+04 -1.86438E+04
  4.58074E+04  1.15201E+04  3.36204E+04  2.71962E+04  1.53764E+04  3.14815E+04 -6.22615E+03  2.77952E+04
 -2.23239E+04  1.16342E+04 -1.81094E+04 -6.27586E+03  7.68523E+03 -7.31830E+03  2.39926E+04  1.43727E+04
  6.92260E+03  3.84330E+04 -3.50984E+04  3.77276E+04 -6.72726E+04  2.16471E+03 -5.94103E+04 -4.48089E+04
 -1.27229E+04 -6.73885E+04  4.22838E+04 -4.82615E+04  6.26929E+04 -2.80880E+03  3.82139E+04  3.51220E+04
 -4.91423E+03  4.11431E+04 -3.25342E+04  1.96675E+04 -3.47292E+04 -3.12115E+03 -2.00512E+04 -1.23015E+04
 -1.03236E+04 -1.60716E+04 -1.97370E+02 -2.03564E+04  8.79752E+03 -2.35299E+04  1.61307E+04 -1.23256E+04
  1.03662E+04  6.72541E+03 -1.16779E+04  1.24211E+04 -2.47907E+04 -7.67838E+03 -8.84034E+03 -3.92273E+04
  2.63856E+04 -4.85224E+04  5.39412E+04 -2.11210E+04  5.07119E+04  2.14666E+04  1.80930E+04  4.87863E+04
 -1.70892E+04  3.78033E+04 -2.87291E+04  3.24438E+03 -1.24411E+04 -3.04230E+04  2.20330E+04 -3.87073E+04
  4.65242E+04 -1.17364E+04  4.26022E+04  2.56070E+04  2.26365E+04  5.34232E+04 -8.59453E+03  5.92613E+04
 -3.69611E+04  4.04737E+04 -5.04317E+04  1.14911E+04 -5.00377E+04 -1.93865E+04 -2.74416E+04 -4.46125E+04
  8.07562E+03 -4.41501E+04  3.55243E+04 -1.83730E+04  3.36143E+04  1.10568E+04  5.99852E+03  2.14629E+04
 -1.39765E+04  1.02849E+04 -1.18534E+04 -7.58376E+03  5.47239E+03 -1.23557E+04  1.91006E+04  5.01635E+03
  1.55334E+04  2.32654E+04 -5.25867E+03  2.83338E+04 -2.42194E+04  1.52081E+04 -3.35676E+04 -1.71125E+03
 -2.77480E+04 -1.91341E+04 -1.36379E+04 -2.74413E+04  4.16536E+03 -2.82999E+04  2.19356E+04 -2.52399E+04
  3.46819E+04 -1.48306E+04  4.06136E+04  5.92790E+03  2.89402E+04  2.66964E+04  4.56559E+03  4.36110E+04
 -2.13549E+04  3.57445E+04 -3.22435E+04  1.24234E+04 -2.29836E+04 -9.88171E+03 -5.37926E+03 -1.28098E+04
  1.19148E+02  2.17697E+01 -8.58095E+03  8.90287E+03 -2.23716E+04  5.02903E+03 -2.19999E+04 -1.05667E+04
 -1.32120E+04 -2.58718E+04  6.32797E+03 -3.05940E+04  2.07515E+04 -2.18713E+04  2.48942E+04 -2.17512E+03
  1.63005E+04  1.74626E+04 -1.55134E+03  2.53142E+04 -1.82896E+04  1.47747E+04 -2.59988E+04 -5.43253E+03
 -1.90981E+04 -2.27634E+04 -2.31636E+03 -3.10676E+04  1.38185E+04 -2.57149E+04  2.59552E+04 -1.33395E+04
  2.43133E+04 -4.27855E+02  1.78378E+04  5.29675E+03  9.43584E+03  1.60124E+03  1.41226E+04 -2.25551E+03
  2.45190E+04  2.98211E+03  2.87875E+04  2.03187E+04  1.95433E+04  4.13990E+04 -2.43567E+03  4.98212E+04
 -2.81363E+04  4.18231E+04 -4.70392E+04  2.18999E+04 -5.10064E+04 -3.73271E+03 -4.04076E+04 -2.99378E+04
 -1.60983E+04 -4.20879E+04  1.46878E+04 -3.69708E+04  3.14894E+04 -1.69791E+04  2.68850E+04  9.08503E+03
  9.19382E+03  2.12410E+04 -1.29993E+04  1.68326E+04 -2.22785E+04  2.44891E+03 -1.67650E+04 -1.44729E+04
 -6.59649E+02 -2.12193E+04  1.20618E+04 -1.59944E+04  1.55285E+04 -1.41896E+03  3.68690E+03  1.00581E+04
 -9.39413E+03  4.93927E+03 -1.12709E+04 -7.76949E+03 -2.45821E+03 -2.04601E+04  1.28433E+04 -2.32598E+04
  2.66611E+04 -1.29353E+04  3.06031E+04  3.30492E+03  2.72885E+04  2.14026E+04  1.24808E+04  3.37215E+04
 -6.56675E+03  3.63045E+04 -2.35611E+04  2.23399E+04 -2.60936E+04  4.22758E+03 -1.73612E+04 -7.49779E+03
 -7.16791E+03 -8.35291E+03 -4.35930E+02  1.07441E+02 -3.48047E+03  3.67959E+03 -8.63194E+03  6.41715E+03
 -1.63044E+04 -1.23193E+03 -1.77198E+04 -1.35074E+04 -6.26182E+03 -2.21823E+04  7.18084E+03 -1.84904E+04
  1.48301E+04 -7.28571E+03  1.04816E+04  4.55419E+03 -7.54749E+02  7.09926E+03 -9.61564E+03 -4.77078E+02
 -9.06488E+03 -1.16230E+04 -9.94110E+02 -1.81291E+04  1.06627E+04 -1.93859E+04  2.34299E+04 -1.05741E+04
  2.78537E+04  3.24903E+03  2.02888E+04  1.71684E+04  4.06879E+03  2.26997E+04 -1.08469E+04  1.81774E+04
 -1.50926E+04  5.10624E+03 -7.80009E+03 -4.05248E+03  2.99329E+03 -5.42814E+03  9.03756E+03 -1.46497E+03
  8.62178E+03  7.97758E+03  1.36204E+03  1.50140E+04 -1.04928E+04  1.42450E+04 -1.83915E+04  3.00151E+03
 -1.30956E+04 -9.91839E+03 -1.60933E+02 -1.56534E+04  1.00524E+04 -7.92134E+03  1.17552E+04  4.27743E+03
  3.32907E+03  1.24455E+04 -9.43145E+03  1.40325E+04 -1.71181E+04  6.20036E+03 -1.75428E+04 -6.02781E+03
 -9.88105E+03 -1.89383E+04  4.67131E+03 -2.17630E+04  1.85263E+04 -1.28669E+04  2.12313E+04  3.89753E+03
  1.19863E+04  1.64428E+04 -2.50187E+03  1.88861E+04 -1.41960E+04  1.01614E+04 -1.54274E+04 -1.24097E+03
 -1.27036E+04 -1.26143E+04 -2.04658E+03 -1.49743E+04  7.72992E+03 -1.15850E+04  9.50263E+03 -4.12203E+03
  5.98211E+03  2.87124E+03 -1.67728E+03  2.47242E+03 -9.01731E+02 -4.40790E+03  3.99507E+03 -9.40950E+03
  1.47933E+04 -6.09485E+03  2.01112E+04  2.57446E+03  1.92767E+04  1.32210E+04  1.17813E+04  2.59830E+04
 -6.25807E+03  3.02379E+04 -2.45831E+04  2.20333E+04 -3.23357E+04  4.47527E+03 -2.58827E+04 -1.19626E+04
 -1.28986E+04 -2.06081E+04 -5.14627E+02 -1.85773E+04  6.40380E+03 -1.06389E+04  6.23206E+03 -6.62081E+03
  5.19605E+03 -4.16623E+03  5.09183E+03 -4.26631E+03  6.82456E+03 -4.42644E+03  1.02182E+04 -2.05661E+03
  1.31232E+04  3.09294E+03  8.03395E+03  1.21297E+04 -2.43965E+03  1.46917E+04 -1.39279E+04  1.14634E+04
 -1.86773E+04 -2.00136E+03 -1.29260E+04 -1.31174E+04 -1.62416E+03 -2.01364E+04  1.09846E+04 -1.99720E+04
  2.07669E+04 -1.10603E+04  2.50544E+04  3.49388E+03  1.65652E+04  1.74698E+04  2.51413E+03  2.23295E+04
 -9.50531E+03  1.82255E+04 -1.34702E+04  6.50974E+03 -9.27421E+03 -1.98671E+03 -4.23720E+03 -2.93349E+03
 -2.01025E+03 -9.67216E+02 -3.24259E+03  3.49018E+03 -7.93219E+03  3.24427E+03 -1.28157E+04 -2.57531E+03
 -9.68453E+03 -1.24474E+04 -4.20606E+02 -1.87291E+04  1.17901E+04 -1.77389E+04  1.96300E+04 -5.56014E+03
  1.92391E+04  9.30205E+03  8.98670E+03  1.76924E+04 -3.65433E+03  1.95533E+04 -1.42428E+04  1.16242E+04
 -1.81811E+04  3.56661E+02 -1.38870E+04 -1.17807E+04 -1.61494E+03 -1.64702E+04  8.88085E+03 -1.20160E+04
  1.19720E+04 -3.83509E+03  8.65868E+03  3.36596E+03  3.05147E+03  5.70294E+03  1.64058E+03  2.40303E+03
  3.56817E+03  9.79884E+02  4.35530E+03  2.18094E+03  5.73527E+03  6.49561E+03  4.89339E+03  1.05810E+04
 -3.49742E+03  1.57211E+04 -1.38662E+04  1.49129E+04 -2.09907E+04  3.76886E+03 -2.09193E+04 -8.93269E+03
 -9.98714E+03 -1.99032E+04  2.74005E+03 -2.18708E+04  1.26237E+04 -1.45356E+04  1.61937E+04 -3.44232E+03
  1.27524E+04  7.92201E+03  2.87254E+03  1.17368E+04 -6.01721E+03  7.50511E+03 -8.52446E+03 -1.35401E+03
 -3.92244E+03 -8.42130E+03  4.64687E+03 -8.88471E+03  8.79086E+03 -4.32749E+03  8.37029E+03  1.82429E+03
  4.81526E+03  4.53704E+03  2.20576E+03  3.53779E+03 -1.10634E+03  2.54005E+03  2.35241E+03 -1.20165E+03
  3.41074E+03 -1.02836E+03  8.03994E+03  3.15669E+03  5.46780E+03  1.08164E+04 -2.11050E+03  1.44112E+04
 -1.00201E+04  9.31003E+03 -1.31411E+04  2.94446E+03 -1.23591E+04 -4.74725E+03 -4.86789E+03 -8.92171E+03
  1.22364E+03 -8.41553E+03  5.62191E+03 -3.70596E+03  4.24675E+03  3.84733E+03 -1.93953E+03  6.68889E+03
 -8.25696E+03  3.96943E+03 -1.01558E+04 -4.90025E+03 -5.81982E+03 -1.09034E+04  2.02491E+03 -1.17113E+04
  7.30078E+03 -7.36978E+03  8.85472E+03 -8.41833E+02  7.22488E+03  3.23882E+03  8.05261E+02  5.65712E+03
 -4.49529E+03  2.06456E+03 -5.49807E+03 -4.10383E+03  1.69002E+03 -1.00935E+04  1.03464E+04 -7.64860E+03
  1.38370E+04  1.05284E+03  1.27578E+04  9.71458E+03  3.95531E+03  1.45079E+04 -5.33909E+03  1.31672E+04
 -1.13316E+04  6.40771E+03 -1.23200E+04 -1.81608E+03 -6.43429E+03 -9.17093E+03  1.97125E+03 -8.72342E+03
  8.44490E+03 -4.37519E+03  7.09558E+03  3.26609E+03  2.40336E+03  7.57984E+03 -1.55992E+03  6.91682E+03
 -3.92110E+03  4.16474E+03 -3.44092E+03  1.12797E+03 -1.85099E+03  1.16846E+03 -2.08655E+03  3.02521E+03
 -3.12112E+03  5.23157E+03 -9.42049E+03  4.89814E+03 -1.42880E+04 -9.34256E+00 -1.56398E+04 -9.72371E+03
 -8.67261E+03 -1.92115E+04  3.90086E+03 -2.21162E+04  1.36148E+04 -1.74873E+04  2.07311E+04 -7.00647E+03
  1.98316E+04  4.54574E+03  1.16875E+04  1.31499E+04  1.59127E+03  1.53015E+04 -5.66956E+03  1.12726E+04
 -8.77634E+03  3.82704E+03 -5.55139E+03 -1.38567E+03 -1.98048E+03 -2.10073E+03 -5.08772E+02 -3.11469E+02
 -2.35002E+03  1.64490E+02 -2.68441E+03 -9.86970E+02 -1.76198E+03 -3.42702E+03  5.91415E+02 -5.28517E+03
  6.60487E+03 -5.24601E+03  9.90744E+03  2.11808E+01  1.07900E+04  8.03814E+03  3.24124E+03  1.50234E+04
 -6.77011E+03  1.70777E+04 -1.61209E+04  1.02303E+04 -1.89341E+04 -1.40757E+03 -1.45459E+04 -1.15758E+04
 -5.29465E+03 -1.64302E+04  4.31469E+03 -1.41129E+04  1.00212E+04 -8.05729E+03  1.04250E+04  3.82468E+02
  5.81030E+03  5.11681E+03 -5.04686E+02  4.28168E+03 -2.74527E+03 -5.70523E+02 -3.10091E+02 -3.95288E+03
  4.24660E+03 -2.46796E+03  6.39970E+03  1.71153E+03  4.37559E+03  6.21748E+03 -4.85792E+02  8.01816E+03
 -7.03862E+03  7.36818E+03 -1.08529E+04  4.30293E+02 -9.44591E+03 -7.69385E+03 -1.72476E+03 -1.30870E+04
  7.28807E+03 -1.14290E+04  1.30411E+04 -3.74092E+03  1.23472E+04  3.95960E+03  6.59974E+03  1.01228E+04
  1.17923E+03  1.08149E+04 -4.09972E+03  8.64375E+03 -7.12330E+03  4.87672E+03 -5.59866E+03  6.02780E+02
 -2.64885E+03 -4.05957E+02 -3.16515E+03  1.47227E+03 -5.78676E+03  1.88376E+03 -7.92208E+03 -1.72661E+03
 -8.04950E+03 -6.24797E+03 -1.71514E+03 -1.06241E+04  4.81995E+03 -1.16637E+04  9.68103E+03 -5.14635E+03
  1.04726E+04  1.85772E+03  6.54023E+03  7.98358E+03 -7.14184E+02  1.11452E+04 -8.35364E+03  6.70290E+03
