 $NMID ID='MM_0lb_SNR800_9hz_g60_31.RAW', FMTDAT='(8E13.5)'
 TRAMP=1., VOLUME=1. $END
  3.09682E+05  6.64343E+02  3.38083E+05  2.50814E+05  8.52454E+04  3.38371E+05 -1.32612E+05  2.51926E+05
 -1.90838E+05  8.40687E+04 -1.13142E+05 -3.22650E+04  1.97689E+02 -5.05752E+04  5.35689E+04 -6.06579E+02
  3.57416E+04  5.30583E+04 -1.65083E+04  7.61766E+04 -6.11472E+04  6.43217E+04 -8.55829E+04  3.29711E+04
 -8.28073E+04 -1.16598E+04 -5.83241E+04 -5.26042E+04 -1.51346E+04 -7.13589E+04  2.80374E+04 -4.68892E+04
  4.09953E+04  3.75129E+03  1.67456E+04  4.88547E+04 -3.51086E+04  4.89106E+04 -6.82200E+04  2.50184E+02
 -5.52557E+04 -5.80091E+04 -7.47276E+03 -7.92904E+04  3.51863E+04 -5.70894E+04  5.03195E+04 -1.82806E+04
  4.59803E+04  1.14310E+04  3.28436E+04  2.70178E+04  1.58871E+04  3.07958E+04 -6.36351E+03  2.79985E+04
 -2.24068E+04  1.20515E+04 -1.78023E+04 -5.81987E+03  7.67418E+03 -7.63999E+03  2.38936E+04  1.40174E+04
  6.79483E+03  3.79180E+04 -3.41534E+04  3.73128E+04 -6.64047E+04  2.11040E+03 -5.92060E+04 -4.50857E+04
 -1.27419E+04 -6.60976E+04  4.25758E+04 -4.85218E+04  6.16288E+04 -2.73472E+03  3.74392E+04  3.46523E+04
 -5.36841E+03  4.05307E+04 -3.22533E+04  1.92732E+04 -3.38398E+04 -3.48066E+03 -1.98990E+04 -1.26430E+04
 -9.59326E+03 -1.59679E+04 -2.09967E+02 -2.02096E+04  8.83318E+03 -2.40226E+04  1.58642E+04 -1.29676E+04
  1.01861E+04  6.65139E+03 -1.12496E+04  1.34426E+04 -2.39804E+04 -7.44016E+03 -8.59432E+03 -3.86633E+04
  2.59120E+04 -4.72521E+04  5.26505E+04 -2.12846E+04  4.93597E+04  2.10306E+04  1.76992E+04  4.77208E+04
 -1.65138E+04  3.68320E+04 -2.77508E+04  3.17144E+03 -1.21944E+04 -2.98217E+04  2.16878E+04 -3.78648E+04
  4.53081E+04 -1.12292E+04  4.13957E+04  2.48094E+04  2.20216E+04  5.18700E+04 -7.84463E+03  5.75197E+04
 -3.63227E+04  3.91994E+04 -4.87346E+04  1.13733E+04 -4.87057E+04 -1.87372E+04 -2.65507E+04 -4.29745E+04
  7.75960E+03 -4.34763E+04  3.45245E+04 -1.72552E+04  3.28539E+04  1.15979E+04  5.45458E+03  2.11739E+04
 -1.36973E+04  9.78301E+03 -1.14074E+04 -7.39088E+03  5.78275E+03 -1.13798E+04  1.89567E+04  5.48948E+03
  1.45644E+04  2.28152E+04 -5.23722E+03  2.75629E+04 -2.33502E+04  1.48895E+04 -3.24638E+04 -3.07164E+03
 -2.64370E+04 -1.82023E+04 -1.27973E+04 -2.62408E+04  4.19719E+03 -2.67893E+04  2.04630E+04 -2.42102E+04
  3.32349E+04 -1.47495E+04  3.92211E+04  5.50926E+03  2.80865E+04  2.52763E+04  4.84754E+03  4.22435E+04
 -2.02375E+04  3.45904E+04 -3.10791E+04  1.21256E+04 -2.25653E+04 -1.01789E+04 -4.94525E+03 -1.25260E+04
  6.52016E+02 -8.35357E+02 -8.24601E+03  8.78371E+03 -2.11811E+04  4.92554E+03 -2.08235E+04 -9.82227E+03
 -1.21844E+04 -2.45145E+04  5.87635E+03 -2.89188E+04  1.93712E+04 -2.06581E+04  2.36447E+04 -1.86612E+03
  1.50517E+04  1.69347E+04 -1.15244E+03  2.46252E+04 -1.71065E+04  1.37038E+04 -2.44861E+04 -5.12657E+03
 -1.81513E+04 -2.14381E+04 -2.08513E+03 -2.94317E+04  1.34241E+04 -2.45806E+04  2.39149E+04 -1.26346E+04
  2.29858E+04 -4.54172E+02  1.67258E+04  5.31345E+03  8.83509E+03  1.55048E+03  1.29724E+04 -1.99090E+03
  2.27369E+04  2.84226E+03  2.69741E+04  1.89436E+04  1.82995E+04  3.96104E+04 -2.64276E+03  4.64140E+04
 -2.64704E+04  3.83939E+04 -4.40325E+04  2.08573E+04 -4.70381E+04 -3.56589E+03 -3.78594E+04 -2.78708E+04
 -1.48299E+04 -3.89856E+04  1.42226E+04 -3.41969E+04  2.90236E+04 -1.54436E+04  2.53239E+04  8.48592E+03
  8.21390E+03  1.94192E+04 -1.23522E+04  1.60787E+04 -2.09282E+04  2.37571E+03 -1.56041E+04 -1.34465E+04
 -2.52888E+02 -2.02314E+04  1.08221E+04 -1.47913E+04  1.41370E+04 -1.54487E+03  4.01252E+03  9.02481E+03
 -9.06602E+03  4.28045E+03 -1.00626E+04 -7.40612E+03 -2.04556E+03 -1.91938E+04  1.23076E+04 -2.09467E+04
  2.39168E+04 -1.21594E+04  2.81381E+04  3.26473E+03  2.47466E+04  1.97305E+04  1.12449E+04  3.08742E+04
 -5.90416E+03  3.28048E+04 -2.20002E+04  2.04619E+04 -2.36420E+04  4.61528E+03 -1.62022E+04 -6.05353E+03
 -6.58496E+03 -7.99882E+03 -5.47790E+02  7.49948E+02 -2.36828E+03  3.81020E+03 -7.91473E+03  6.14963E+03
 -1.47219E+04 -1.09336E+03 -1.52561E+04 -1.22990E+04 -6.42356E+03 -1.98877E+04  6.83541E+03 -1.63648E+04
  1.34850E+04 -6.90530E+03  9.45932E+03  4.87015E+03 -5.14898E+02  6.44280E+03 -8.48227E+03  3.68010E+01
 -8.20924E+03 -1.06710E+04 -1.34088E+03 -1.65152E+04  1.00948E+04 -1.73722E+04  2.15747E+04 -9.34752E+03
  2.52147E+04  2.13378E+03  1.75899E+04  1.55215E+04  3.79233E+03  2.07928E+04 -1.00431E+04  1.64436E+04
 -1.31606E+04  4.45238E+03 -7.01947E+03 -3.46713E+03  2.03491E+03 -4.75841E+03  8.66778E+03 -1.19793E+03
  7.90528E+03  7.32509E+03  1.76020E+03  1.33946E+04 -9.87341E+03  1.29841E+04 -1.62908E+04  3.42211E+03
 -1.13108E+04 -8.62883E+03  2.06227E+02 -1.44460E+04  9.54923E+03 -7.12297E+03  1.00409E+04  4.05671E+03
  2.62310E+03  1.09366E+04 -8.78585E+03  1.23676E+04 -1.48405E+04  5.63824E+03 -1.49900E+04 -5.52567E+03
 -8.60781E+03 -1.69744E+04  4.53362E+03 -1.94792E+04  1.66426E+04 -1.18241E+04  1.80388E+04  3.54242E+03
  1.09838E+04  1.43715E+04 -1.58979E+03  1.69513E+04 -1.28754E+04  9.23360E+03 -1.37258E+04 -1.50199E+03
 -1.10802E+04 -1.14185E+04 -1.78848E+03 -1.26222E+04  7.09147E+03 -1.02406E+04  8.27738E+03 -3.82638E+03
  4.98048E+03  1.94322E+03 -1.15775E+03  2.08373E+03 -5.59194E+02 -3.53543E+03  2.78681E+03 -8.58876E+03
  1.24126E+04 -5.17247E+03  1.75147E+04  2.46473E+03  1.70798E+04  1.21494E+04  1.07568E+04  2.21888E+04
 -5.07609E+03  2.57293E+04 -2.11480E+04  1.91354E+04 -2.77459E+04  3.80041E+03 -2.25087E+04 -9.63201E+03
 -1.14639E+04 -1.83438E+04 -3.36945E+02 -1.59342E+04  5.72152E+03 -8.87605E+03  5.62563E+03 -5.56860E+03
  4.45866E+03 -3.59530E+03  3.51932E+03 -3.73754E+03  6.25160E+03 -4.13853E+03  9.00112E+03 -1.60576E+03
  1.16838E+04  2.48038E+03  6.50599E+03  1.02756E+04 -2.67835E+03  1.23684E+04 -1.19429E+04  9.47205E+03
 -1.61813E+04 -1.62077E+03 -1.05300E+04 -1.10066E+04 -1.49297E+03 -1.72004E+04  9.64567E+03 -1.69777E+04
  1.77576E+04 -9.43677E+03  2.11169E+04  3.53127E+03  1.45080E+04  1.49151E+04  2.36357E+03  1.92408E+04
 -7.88325E+03  1.54332E+04 -1.14720E+04  5.35129E+03 -8.07547E+03 -1.80093E+03 -3.53212E+03 -2.46072E+03
 -1.33516E+03 -2.30817E+02 -2.69329E+03  3.18842E+03 -6.25797E+03  2.63014E+03 -1.10217E+04 -1.51489E+03
 -7.78013E+03 -1.07939E+04 -3.69007E+02 -1.56941E+04  9.69039E+03 -1.46132E+04  1.56940E+04 -4.53090E+03
  1.58451E+04  7.87573E+03  7.65004E+03  1.43562E+04 -3.25781E+03  1.63687E+04 -1.22036E+04  1.01568E+04
 -1.52465E+04  6.21511E+02 -1.17901E+04 -9.83353E+03 -1.03455E+03 -1.30131E+04  7.11771E+03 -9.84311E+03
  1.03366E+04 -3.09334E+03  7.19493E+03  2.82637E+03  2.39265E+03  4.54341E+03  1.79500E+03  2.82768E+03
  2.65678E+03  9.52502E+02  4.13185E+03  1.94515E+03  4.88290E+03  5.12753E+03  3.86083E+03  8.76114E+03
 -3.19275E+03  1.31206E+04 -1.15367E+04  1.24973E+04 -1.66454E+04  2.99313E+03 -1.73026E+04 -7.07809E+03
 -8.37117E+03 -1.65114E+04  2.02838E+03 -1.81198E+04  9.95398E+03 -1.12297E+04  1.31721E+04 -3.38691E+03
  1.03069E+04  6.10289E+03  2.35309E+03  9.53169E+03 -4.40018E+03  6.03366E+03 -6.69020E+03 -1.00313E+03
 -3.24933E+03 -6.91767E+03  4.01234E+03 -6.96796E+03  6.50626E+03 -3.87874E+03  6.66793E+03  1.06722E+03
  3.84819E+03  3.24665E+03  1.56679E+03  2.88312E+03 -5.01472E+02  2.16040E+03  1.71950E+03 -1.07009E+03
  2.80561E+03 -8.27500E+02  6.58531E+03  2.55686E+03  4.32373E+03  8.74941E+03 -1.50826E+03  1.14324E+04
 -8.10943E+03  7.59759E+03 -1.08176E+04  2.51031E+03 -9.51196E+03 -3.94901E+03 -4.16490E+03 -6.55832E+03
  9.91418E+02 -6.47118E+03  3.92737E+03 -2.73914E+03  3.85511E+03  3.43641E+03 -1.34116E+03  5.67677E+03
 -6.56051E+03  3.36585E+03 -7.89406E+03 -3.70546E+03 -4.52142E+03 -8.79876E+03  1.28117E+03 -9.67714E+03
  5.43641E+03 -5.29446E+03  6.90570E+03 -7.35298E+02  5.49800E+03  2.53497E+03  1.28755E+03  4.46918E+03
 -3.31280E+03  1.31709E+03 -3.68781E+03 -3.26798E+03  1.09903E+03 -7.29573E+03  8.26961E+03 -5.76052E+03
  1.10704E+04  1.09421E+03  9.83863E+03  7.18334E+03  3.11968E+03  1.07537E+04 -3.72379E+03  1.04101E+04
 -8.72825E+03  4.33247E+03 -9.72185E+03 -1.39852E+03 -5.22338E+03 -6.82918E+03  1.82647E+03 -6.97081E+03
  6.57546E+03 -3.40814E+03  6.08540E+03  2.85349E+03  1.96562E+03  6.20154E+03 -9.16731E+02  5.03066E+03
 -2.99621E+03  3.68029E+03 -2.71206E+03  1.20896E+03 -1.20234E+03  1.17438E+03 -1.71003E+03  2.40617E+03
 -2.93677E+03  4.34224E+03 -6.98262E+03  3.66824E+03 -1.10874E+04  2.14974E+02 -1.20445E+04 -7.44474E+03
 -6.52611E+03 -1.40476E+04  2.75572E+03 -1.62927E+04  1.02095E+04 -1.29433E+04  1.56902E+04 -4.90414E+03
  1.43632E+04  3.07590E+03  8.99342E+03  9.96637E+03  9.44632E+02  1.16036E+04 -4.36445E+03  8.57915E+03
 -7.03802E+03  3.14312E+03 -4.17513E+03 -1.10432E+03 -1.40319E+03 -9.25254E+02 -8.24474E+02  5.62807E+01
 -1.64287E+03  4.34132E+02 -2.86861E+03 -9.48114E+02 -8.79979E+02 -2.92770E+03  8.23687E+01 -4.36751E+03
  4.79670E+03 -3.73765E+03  7.05088E+03  1.36327E+02  8.06851E+03  6.31257E+03  2.38716E+03  1.09029E+04
 -5.28372E+03  1.29114E+04 -1.23838E+04  7.53994E+03 -1.37538E+04 -1.26779E+03 -1.03422E+04 -8.49663E+03
 -4.26562E+03 -1.19119E+04  2.97083E+03 -1.08857E+04  7.33330E+03 -6.07647E+03  7.49833E+03  3.96906E+02
  3.99804E+03  3.55395E+03  3.02149E+00  2.93117E+03 -2.02260E+03 -5.07359E+01  1.89519E+02 -2.93096E+03
  3.45013E+03 -1.49105E+03  4.40140E+03  1.14350E+03  2.88503E+03  4.55928E+03  5.75470E+01  6.23653E+03
 -4.83651E+03  4.96281E+03 -7.63209E+03  3.35033E+02 -6.87207E+03 -5.50993E+03 -9.98435E+02 -9.35406E+03
  5.30170E+03 -7.87198E+03  8.93018E+03 -2.50194E+03  8.46804E+03  2.22710E+03  5.47330E+03  6.69140E+03
  9.77657E+02  7.67831E+03 -2.70052E+03  5.90338E+03 -5.10665E+03  3.18883E+03 -3.85213E+03  5.87947E+02
 -2.18563E+03 -1.76220E+02 -1.89434E+03  1.12629E+03 -4.09324E+03  1.00963E+03 -6.26933E+03 -8.90168E+02
 -5.51597E+03 -3.89496E+03 -1.54061E+03 -7.68675E+03  3.42782E+03 -8.01472E+03  6.76458E+03 -4.09323E+03
  7.62585E+03  8.51600E+02  4.59993E+03  5.54701E+03 -6.51020E+02  7.42665E+03 -5.68422E+03  4.81889E+03
