 $NMID ID='MM_0lb_SNR800_18hz_g55_49.RAW', FMTDAT='(8E13.5)'
 TRAMP=1., VOLUME=1. $END
  3.09795E+05  5.56153E+02  3.37602E+05  2.50568E+05  8.45475E+04  3.37646E+05 -1.32594E+05  2.50636E+05
 -1.89957E+05  8.28418E+04 -1.11384E+05 -3.28959E+04  8.76073E+02 -5.03113E+04  5.38883E+04 -7.40826E+01
  3.55443E+04  5.28504E+04 -1.70026E+04  7.53412E+04 -6.05985E+04  6.32100E+04 -8.35849E+04  3.19235E+04
 -8.04226E+04 -1.12369E+04 -5.69463E+04 -5.06903E+04 -1.49352E+04 -6.89665E+04  2.69566E+04 -4.53648E+04
  3.94314E+04  4.09769E+03  1.59887E+04  4.74385E+04 -3.40527E+04  4.68125E+04 -6.61430E+04 -5.58103E+02
 -5.26696E+04 -5.62824E+04 -6.31064E+03 -7.62198E+04  3.35670E+04 -5.40717E+04  4.72947E+04 -1.67680E+04
  4.23798E+04  1.14449E+04  3.16374E+04  2.49593E+04  1.60426E+04  2.87575E+04 -4.92785E+03  2.71128E+04
 -2.16319E+04  1.29572E+04 -1.90352E+04 -4.48627E+03  4.82102E+03 -7.50532E+03  2.15417E+04  1.20123E+04
  7.42046E+03  3.41305E+04 -3.12963E+04  3.47344E+04 -6.23821E+04  1.92691E+03 -5.58864E+04 -4.14605E+04
 -1.23426E+04 -6.16735E+04  3.88629E+04 -4.42084E+04  5.67614E+04 -1.93349E+03  3.26121E+04  3.13102E+04
 -6.41717E+03  3.45326E+04 -2.93273E+04  1.42492E+04 -2.88247E+04 -4.85609E+03 -1.53839E+04 -1.06134E+04
 -7.74616E+03 -1.20420E+04 -1.10847E+03 -1.71513E+04  6.83668E+03 -2.28930E+04  1.52982E+04 -1.40863E+04
  1.17041E+04  4.63338E+03 -6.70890E+03  1.32291E+04 -2.03193E+04 -3.24167E+03 -8.27845E+03 -3.20760E+04
  2.17132E+04 -4.17395E+04  4.62150E+04 -1.90661E+04  4.34389E+04  1.88244E+04  1.47053E+04  4.24564E+04
 -1.58223E+04  3.24706E+04 -2.41656E+04  1.18028E+03 -8.90452E+03 -2.71242E+04  2.07082E+04 -3.19300E+04
  3.91738E+04 -8.10400E+03  3.32033E+04  2.32778E+04  1.63407E+04  4.39217E+04 -7.82986E+03  4.70644E+04
 -2.96456E+04  3.12931E+04 -3.91817E+04  8.92843E+03 -4.00311E+04 -1.54717E+04 -2.21807E+04 -3.58350E+04
  7.27607E+03 -3.55531E+04  3.00139E+04 -1.35949E+04  2.75553E+04  1.08480E+04  3.37740E+03  1.87104E+04
 -1.30627E+04  7.78354E+03 -9.97253E+03 -7.58231E+03  6.04193E+03 -1.00714E+04  1.76766E+04  6.24235E+03
  1.29148E+04  2.17770E+04 -6.33098E+03  2.42267E+04 -2.20537E+04  9.96920E+03 -2.63395E+04 -5.76322E+03
 -1.80984E+04 -1.65797E+04 -6.75018E+03 -1.81108E+04  3.79260E+03 -1.65652E+04  1.36484E+04 -1.58261E+04
  2.28135E+04 -1.20679E+04  2.97984E+04  1.49181E+03  2.21459E+04  1.75144E+04  3.90105E+03  3.40775E+04
 -1.67140E+04  2.85390E+04 -2.66101E+04  9.86538E+03 -1.99020E+04 -1.02051E+04 -3.98050E+03 -1.36576E+04
  2.28406E+03 -3.57083E+03 -3.71365E+03  5.75235E+03 -1.38546E+04  5.46044E+03 -1.44431E+04 -5.55479E+03
 -9.14253E+03 -1.66728E+04  4.57533E+03 -2.06992E+04  1.34476E+04 -1.47318E+04  1.58294E+04 -1.66237E+03
  9.82100E+03  1.17997E+04 -9.41679E+02  1.66289E+04 -1.12829E+04  9.49478E+03 -1.64610E+04 -3.63538E+03
 -1.22018E+04 -1.50211E+04 -1.70971E+03 -2.01101E+04  9.09994E+03 -1.64425E+04  1.70637E+04 -7.67300E+03
  1.56367E+04  4.35244E+02  1.10531E+04  4.00487E+03  5.96388E+03  3.94427E+02  7.93021E+03 -1.39500E+03
  1.50189E+04  2.71979E+03  1.63732E+04  1.32418E+04  1.01690E+04  2.62188E+04 -2.99421E+03  2.87772E+04
 -1.70502E+04  2.25133E+04 -2.66074E+04  1.07273E+04 -2.72586E+04 -1.96368E+03 -2.32850E+04 -1.54375E+04
 -1.05325E+04 -2.27081E+04  7.38269E+03 -2.05141E+04  1.79715E+04 -1.13820E+04  1.69614E+04  4.20550E+03
  6.58468E+03  1.21893E+04 -7.78056E+03  1.12035E+04 -1.42085E+04  2.92949E+03 -1.09392E+04 -8.74889E+03
 -8.13517E+01 -1.34939E+04  6.79207E+03 -9.87406E+03  8.39754E+03 -1.47310E+03  1.58637E+03  5.82463E+03
 -6.04767E+03  1.56459E+03 -4.41852E+03 -4.83673E+03  3.58980E+02 -1.13202E+04  8.24146E+03 -1.13326E+04
  1.32931E+04 -5.58462E+03  1.33094E+04  2.78597E+03  1.16723E+04  1.05045E+04  5.42821E+03  1.56622E+04
 -2.17265E+03  1.73980E+04 -1.09308E+04  1.07873E+04 -1.23959E+04  2.98232E+03 -9.20006E+03 -2.25124E+03
 -5.03616E+03 -3.59688E+03 -9.34977E+02  1.14377E+03 -1.85930E+03  2.36416E+03 -4.09798E+03  3.79434E+03
 -8.99699E+03 -6.42458E+02 -9.05231E+03 -7.54020E+03 -4.00812E+03 -1.21078E+04  3.80357E+03 -9.45149E+03
  7.69252E+03 -4.02443E+03  5.68517E+03  2.62119E+03  6.30336E+02  3.19426E+03 -3.77460E+03 -1.56886E+02
 -3.68534E+03 -5.68149E+03 -8.85865E+02 -8.02047E+03  4.45314E+03 -8.82963E+03  1.07780E+04 -4.66295E+03
  1.26222E+04  8.23933E+02  9.41549E+03  6.62805E+03  2.07640E+03  9.68992E+03 -5.82455E+03  8.87104E+03
 -7.33982E+03  2.92148E+03 -3.73899E+03 -1.73219E+03  1.39960E+03 -1.94982E+03  5.09870E+03 -8.40886E+02
  4.40297E+03  3.80503E+03  1.23078E+03  7.15462E+03 -5.04516E+03  7.00938E+03 -8.35465E+03  1.80265E+03
 -5.62993E+03 -3.97352E+03  3.22344E+02 -7.34028E+03  4.26275E+03 -3.52243E+03  4.31248E+03  1.25826E+03
  8.26823E+02  3.78192E+03 -4.48407E+03  5.21678E+03 -5.46970E+03  2.60588E+03 -5.13804E+03 -1.30980E+03
 -3.36404E+03 -6.83815E+03  1.43009E+03 -7.68292E+03  6.96155E+03 -5.14986E+03  7.20581E+03  9.69487E+02
  5.01173E+03  5.92087E+03  2.35319E+01  7.90001E+03 -5.46767E+03  4.54143E+03 -6.09517E+03 -5.11772E+02
 -6.06752E+03 -5.64330E+03 -1.56225E+03 -5.47252E+03  2.66402E+03 -5.01462E+03  2.92005E+03 -2.82785E+03
  3.10725E+03  3.50175E+02  5.54516E+01  1.37979E+03  3.72878E+02 -4.95401E+02  2.15584E+02 -2.13576E+03
  4.47679E+03 -1.16292E+03  6.08626E+03  5.71828E+02  6.05697E+03  3.71800E+03  5.67163E+03  7.84071E+03
 -1.43911E+03  9.46391E+03 -8.67085E+03  7.30561E+03 -1.09890E+04  1.28947E+03 -8.52807E+03 -2.89639E+03
 -4.61819E+03 -7.24233E+03 -2.41227E+02 -5.95010E+03  2.20113E+03 -2.42084E+03  1.97134E+03 -2.20828E+03
  1.44924E+03 -1.79987E+03  2.13841E+03 -2.56026E+03  3.54557E+03 -1.61633E+03  3.85446E+03  6.24585E+02
  5.11224E+03  1.40737E+03  1.40205E+03  3.80354E+03 -1.22154E+03  3.11260E+03 -4.68296E+03  3.06303E+03
 -5.48975E+03 -1.12756E+03 -2.05834E+03 -3.70131E+03  2.77377E+02 -5.36251E+03  3.41632E+03 -5.94992E+03
  5.64538E+03 -3.67885E+03  7.64738E+03  3.29022E+02  5.47781E+03  4.91431E+03  9.91858E+02  6.53011E+03
 -2.38663E+03  6.35196E+03 -3.75972E+03  2.31586E+03 -2.28282E+03 -7.84712E+02 -5.78712E+02 -1.09741E+03
 -3.86967E+02  6.47075E+02 -8.33456E+02  2.17825E+03 -2.66586E+03  1.20945E+03 -4.53788E+03 -5.62959E+02
 -1.71347E+03 -4.53889E+03  8.43344E+02 -5.00326E+03  2.88054E+03 -4.84373E+03  4.17103E+03 -1.14659E+03
  4.48910E+03  2.21264E+03  2.14688E+03  3.65240E+03 -1.14463E+03  4.92423E+03 -3.13841E+03  2.88821E+03
 -4.47349E+03  4.81031E+02 -3.74481E+03 -2.67251E+03 -1.76911E+02 -3.61781E+03  1.64528E+03 -2.97614E+03
  2.95221E+03 -1.24618E+03  2.30912E+03  5.44249E+02  2.31612E+02  2.05704E+03  1.02238E+03  7.20624E+02
  1.52050E+03  6.14896E+02  1.24006E+03  1.22429E+03  1.24591E+03  2.44404E+03  1.41611E+03  1.80212E+03
 -1.33932E+03  3.17669E+03 -3.00582E+03  4.08468E+03 -3.50149E+03  1.17341E+03 -4.47709E+03 -4.04155E+02
 -2.08860E+03 -4.29360E+03  6.75658E+02 -5.32564E+03  2.22647E+03 -2.77006E+03  3.34715E+03 -7.09617E+02
  2.83918E+03  1.65882E+03  2.47526E+02  2.55711E+03 -7.51368E+02  1.49544E+03 -1.22489E+03 -2.47032E+02
 -6.55556E+02 -1.45931E+03  1.48109E+03 -1.75649E+03  1.57555E+03 -1.20915E+03  1.25396E+03  2.80608E+02
  9.66706E+02  7.62870E+02  7.79961E+02 -6.96904E+01 -2.21598E+02  9.39397E+02  1.52734E+03 -3.30823E+02
  1.07413E+02 -3.63859E+02  1.78977E+03  6.43843E+02  3.26947E+02  2.49797E+03 -2.95935E+02  3.23376E+03
 -1.83386E+03  1.17785E+03 -2.11788E+03  4.27676E+02 -2.39625E+03 -1.07300E+03 -3.62141E+02 -1.10484E+03
  6.21677E+02 -1.21067E+03  1.24443E+03 -7.12898E+02  6.22696E+02  1.12904E+03 -4.00776E+02  1.30209E+03
 -1.67383E+03  8.46498E+02 -1.43283E+03 -1.57882E+03 -1.17984E+03 -2.42733E+03  1.86964E+02 -1.86069E+03
  7.53734E+02 -4.61645E+02  6.18374E+02  3.00353E+02  1.37476E+03  1.58883E+02  3.15705E+02  1.34402E+03
 -1.49591E+02  4.76769E+01 -1.07728E+03  4.11681E+01  5.78375E+02 -1.07209E+03  1.92161E+03 -9.85779E+02
  1.30060E+03 -6.04965E+01  2.86851E+03  8.44575E+02  8.67632E+02  1.76757E+03 -3.59303E+02  2.09490E+03
 -1.52348E+03  5.98812E+02 -1.62756E+03 -3.67351E+01 -1.01223E+03 -1.49542E+03  5.96682E+02 -5.53094E+02
  1.47955E+03 -9.11835E+02  9.14342E+02  5.57078E+02  1.10158E+02  1.35668E+03 -1.07277E+01  1.27611E+03
 -1.39399E+02  1.17344E+03 -4.43329E+02  2.64655E+02  5.30385E+01  4.45982E+02 -8.03367E+02  4.37080E+02
 -5.82335E+02  9.71109E+02 -1.89183E+03  5.86630E+02 -2.02205E+03  3.52912E+02 -2.59297E+03 -1.13176E+03
 -9.92663E+02 -2.51917E+03  2.74350E+02 -2.96464E+03  1.14302E+03 -2.44699E+03  3.04698E+03 -1.01325E+03
  2.37430E+03 -1.76831E+02  1.33302E+03  1.58859E+03 -4.43675E+02  1.68931E+03 -5.37521E+02  1.60556E+03
 -1.02691E+03  8.30287E+02 -7.37198E+02 -1.84198E+02 -6.63927E+02  3.29607E+02 -5.18929E+02 -6.55736E+01
 -9.20364E+02  9.67968E+01 -1.10045E+03  1.44162E+02  2.06022E+01 -1.06509E+03 -5.42708E+02 -8.42880E+02
  1.20257E+03 -6.60095E+02  5.72405E+02 -8.12383E+01  1.22351E+03  8.73338E+02 -2.12947E+02  1.71168E+03
 -1.16422E+03  2.37634E+03 -1.86774E+03  1.21073E+03 -1.68032E+03 -3.22762E+02 -1.35715E+03 -1.31266E+03
 -1.07982E+03 -1.25079E+03  6.92288E+01 -1.28361E+03  5.14597E+02 -8.69169E+02  7.42715E+02  2.03385E+02
  4.38218E+02  3.82036E+02  2.02801E+02  6.26448E+02 -2.11081E+02 -4.60123E+01  5.98430E+01 -1.24650E+02
  7.30359E+02  2.35131E+02  7.14413E+01  6.03009E+02  4.96286E+01  4.18087E+02  7.95689E+02  3.19528E+02
 -6.81547E+02  6.14737E+02 -5.69096E+02  1.28615E+02 -1.17447E+03 -6.02473E+02 -1.26008E+02 -1.33297E+03
  4.67902E+02 -5.62869E+02  5.97519E+02 -1.74739E+02  9.38257E+02 -6.41321E+02  6.05112E+02  6.31566E+02
  5.16502E+01  7.38285E+02 -3.41281E+02  4.98320E+02 -5.55947E+02  4.85121E+01 -3.25756E+02  1.10533E+02
 -1.54834E+02 -1.25253E+01 -4.91141E+02  1.99853E+02 -4.90142E+02  4.36087E+02 -9.46229E+02 -4.92044E+02
 -1.27486E+03  5.24414E+02 -1.66947E+02 -9.97040E+02  4.54068E+02 -1.59570E+03  7.56403E+02 -2.25504E+02
  5.88860E+02  1.27781E+02 -3.17427E+02  3.42725E+02  5.01632E+01  8.27918E+02 -3.95195E+02  7.70009E+02
