 $NMID ID='MM_0lb_SNR800_17hz_g40_49.RAW', FMTDAT='(8E13.5)'
 TRAMP=1., VOLUME=1. $END
  3.09871E+05  3.81742E+02  3.37361E+05  2.50485E+05  8.44135E+04  3.37275E+05 -1.32402E+05  2.50255E+05
 -1.89643E+05  8.27212E+04 -1.10944E+05 -3.29741E+04  1.29910E+03 -5.02365E+04  5.39310E+04  2.88113E+02
  3.51865E+04  5.31264E+04 -1.69354E+04  7.48868E+04 -6.05953E+04  6.28691E+04 -8.31266E+04  3.15812E+04
 -7.98139E+04 -1.13653E+04 -5.64283E+04 -5.01640E+04 -1.47816E+04 -6.84522E+04  2.68137E+04 -4.48039E+04
  3.91689E+04  3.87559E+03  1.57365E+04  4.70031E+04 -3.41345E+04  4.62275E+04 -6.56350E+04 -5.23293E+02
 -5.18271E+04 -5.59745E+04 -6.44098E+03 -7.54838E+04  3.32341E+04 -5.33889E+04  4.63238E+04 -1.64051E+04
  4.17564E+04  1.13821E+04  3.06178E+04  2.41976E+04  1.59177E+04  2.84416E+04 -4.87014E+03  2.70124E+04
 -2.16151E+04  1.26931E+04 -1.89411E+04 -4.06876E+03  4.23607E+03 -7.75381E+03  2.14981E+04  1.11264E+04
  7.14003E+03  3.34059E+04 -3.07560E+04  3.39702E+04 -6.14038E+04  2.04618E+03 -5.58015E+04 -4.13464E+04
 -1.24657E+04 -6.10608E+04  3.84989E+04 -4.36539E+04  5.55161E+04 -2.16163E+03  3.20048E+04  3.09171E+04
 -6.21544E+03  3.36107E+04 -2.86247E+04  1.37910E+04 -2.78333E+04 -5.11434E+03 -1.47675E+04 -1.03166E+04
 -7.27301E+03 -1.17492E+04 -1.09350E+03 -1.69347E+04  6.48504E+03 -2.27259E+04  1.50285E+04 -1.36088E+04
  1.21311E+04  4.20513E+03 -6.23547E+03  1.32427E+04 -1.93060E+04 -2.78900E+03 -8.16367E+03 -3.07851E+04
  2.08987E+04 -4.08565E+04  4.50305E+04 -1.85918E+04  4.23838E+04  1.86853E+04  1.44165E+04  4.19857E+04
 -1.54136E+04  3.13319E+04 -2.34972E+04  1.11366E+03 -8.40973E+03 -2.66119E+04  2.01290E+04 -3.16882E+04
  3.83393E+04 -7.50233E+03  3.18929E+04  2.28583E+04  1.57747E+04  4.30105E+04 -7.84412E+03  4.58870E+04
 -2.91030E+04  3.04443E+04 -3.77550E+04  8.63016E+03 -3.90082E+04 -1.49830E+04 -2.17559E+04 -3.49226E+04
  6.70039E+03 -3.46040E+04  2.94068E+04 -1.27687E+04  2.70868E+04  1.06205E+04  3.32999E+03  1.80827E+04
 -1.33058E+04  7.42684E+03 -9.81018E+03 -7.78432E+03  5.98897E+03 -1.00800E+04  1.72120E+04  6.58910E+03
  1.23614E+04  2.14328E+04 -6.52766E+03  2.37783E+04 -2.13499E+04  9.24664E+03 -2.54169E+04 -6.17326E+03
 -1.70530E+04 -1.65377E+04 -5.69270E+03 -1.73036E+04  3.65990E+03 -1.54298E+04  1.28323E+04 -1.48139E+04
  2.19039E+04 -1.19098E+04  2.85790E+04  1.56900E+03  2.14545E+04  1.66967E+04  3.80469E+03  3.27940E+04
 -1.60716E+04  2.80478E+04 -2.62313E+04  9.61704E+03 -1.95168E+04 -1.05528E+04 -3.94233E+03 -1.41017E+04
  2.46946E+03 -4.04194E+03 -2.73346E+03  5.62090E+03 -1.32103E+04  5.35781E+03 -1.40192E+04 -5.16911E+03
 -8.63352E+03 -1.58312E+04  4.58473E+03 -1.98810E+04  1.27911E+04 -1.45561E+04  1.51982E+04 -1.56498E+03
  9.37326E+03  1.09557E+04 -9.81421E+02  1.60737E+04 -1.06908E+04  8.95197E+03 -1.56264E+04 -3.53708E+03
 -1.18037E+04 -1.47367E+04 -1.34714E+03 -1.95155E+04  8.82923E+03 -1.57454E+04  1.62877E+04 -7.47368E+03
  1.48689E+04  5.98058E+02  1.08901E+04  3.73228E+03  5.32045E+03  4.36546E+02  7.80733E+03 -1.16657E+03
  1.46549E+04  2.58987E+03  1.54434E+04  1.29705E+04  9.56722E+03  2.58067E+04 -3.28438E+03  2.76619E+04
 -1.62809E+04  2.13592E+04 -2.53938E+04  1.02196E+04 -2.61297E+04 -1.74637E+03 -2.24146E+04 -1.51958E+04
 -1.05660E+04 -2.16652E+04  7.21100E+03 -1.98725E+04  1.72303E+04 -1.08803E+04  1.61945E+04  4.04801E+03
  6.80620E+03  1.19592E+04 -7.36615E+03  1.06403E+04 -1.40705E+04  2.70683E+03 -1.07523E+04 -8.28685E+03
 -8.30832E+01 -1.29490E+04  6.39986E+03 -9.75461E+03  8.22283E+03 -1.51253E+03  1.51129E+03  4.99206E+03
 -5.77646E+03  1.51966E+03 -4.06821E+03 -4.69653E+03  5.48776E+02 -1.06216E+04  8.17816E+03 -1.08993E+04
  1.31432E+04 -5.19466E+03  1.29944E+04  3.06764E+03  1.11904E+04  1.01320E+04  4.96418E+03  1.49513E+04
 -1.92748E+03  1.69351E+04 -1.04718E+04  1.09276E+04 -1.17777E+04  3.12869E+03 -8.95716E+03 -2.15380E+03
 -4.58245E+03 -3.65609E+03 -5.99260E+02  1.61886E+03 -1.94080E+03  2.10901E+03 -3.74763E+03  3.75518E+03
 -8.45988E+03 -4.30293E+02 -9.08723E+03 -7.37862E+03 -3.58507E+03 -1.20228E+04  3.67773E+03 -8.93175E+03
  7.68894E+03 -3.81960E+03  5.72480E+03  2.23970E+03  7.48394E+02  3.36649E+03 -3.65547E+03 -1.04373E+02
 -3.50004E+03 -5.38301E+03 -6.20198E+02 -7.89921E+03  4.31723E+03 -8.39464E+03  1.07048E+04 -4.33377E+03
  1.25536E+04  8.45918E+02  9.61041E+03  6.53700E+03  1.97164E+03  9.35317E+03 -5.39671E+03  8.56604E+03
 -7.57555E+03  2.93637E+03 -4.15670E+03 -1.09429E+03  1.23552E+03 -1.92392E+03  5.02772E+03 -9.97276E+02
  4.60144E+03  3.71975E+03  1.12792E+03  6.97363E+03 -4.65814E+03  6.43528E+03 -8.37352E+03  1.80477E+03
 -5.43058E+03 -3.95963E+03  1.29328E+02 -7.18251E+03  4.19018E+03 -3.37701E+03  4.10264E+03  1.05076E+03
  5.83194E+02  3.71067E+03 -4.46611E+03  5.11737E+03 -5.44844E+03  2.42794E+03 -5.34993E+03 -1.21806E+03
 -3.31908E+03 -6.63793E+03  1.47719E+03 -7.69647E+03  6.67548E+03 -5.01790E+03  7.06424E+03  9.71279E+02
  5.26698E+03  5.74248E+03 -4.38335E+01  7.86115E+03 -5.43858E+03  4.47278E+03 -5.72964E+03 -4.33752E+02
 -6.09334E+03 -5.44561E+03 -1.12600E+03 -5.52786E+03  2.85953E+03 -4.96416E+03  3.11688E+03 -3.09712E+03
  2.83493E+03  4.77343E+02  1.38017E+02  1.19577E+03  5.24509E+02 -4.64977E+02  5.53043E+01 -2.24542E+03
  4.55930E+03 -9.50021E+02  5.95511E+03  7.20292E+02  6.21489E+03  3.76137E+03  5.36112E+03  8.25813E+03
 -1.73653E+03  9.86772E+03 -8.68613E+03  7.66154E+03 -1.08009E+04  1.48530E+03 -8.92559E+03 -3.04746E+03
 -4.43918E+03 -7.45066E+03 -3.42568E+02 -5.82329E+03  2.51935E+03 -2.44872E+03  2.03438E+03 -2.25781E+03
  1.37886E+03 -1.66455E+03  2.44970E+03 -2.26678E+03  3.54288E+03 -1.48780E+03  4.13270E+03  4.58598E+02
  4.71561E+03  1.09855E+03  1.58331E+03  3.74615E+03 -1.70456E+03  3.32539E+03 -5.05320E+03  3.11654E+03
 -5.45225E+03 -8.81984E+02 -2.51755E+03 -3.79852E+03  2.21748E+02 -5.75597E+03  3.47157E+03 -6.25963E+03
  5.95257E+03 -3.69236E+03  7.63724E+03  5.33348E+02  5.43594E+03  5.06573E+03  1.12479E+03  6.88122E+03
 -2.47525E+03  6.33218E+03 -3.92163E+03  2.08731E+03 -2.31604E+03 -1.07187E+03 -7.56789E+02 -6.86026E+02
 -5.11798E+02  4.20281E+02 -7.87635E+02  2.32191E+03 -3.00228E+03  1.14053E+03 -4.38706E+03 -5.09539E+02
 -2.22109E+03 -4.58391E+03  9.10011E+02 -5.63430E+03  3.03499E+03 -5.10778E+03  4.59176E+03 -1.32372E+03
  4.54538E+03  2.64533E+03  2.41411E+03  4.02703E+03 -8.78445E+02  5.26221E+03 -3.32021E+03  3.27097E+03
 -4.74328E+03  3.89620E+02 -3.52355E+03 -2.91266E+03 -3.44375E+02 -3.91858E+03  1.96988E+03 -2.96145E+03
  3.34971E+03 -1.49759E+03  2.16739E+03  7.94603E+02  6.16035E+02  1.71031E+03  8.64054E+02  7.32243E+02
  1.55852E+03  4.76484E+02  1.61589E+03  1.12997E+03  1.25744E+03  2.43093E+03  1.40904E+03  2.19796E+03
 -1.09656E+03  3.41314E+03 -2.85569E+03  4.50081E+03 -3.81179E+03  1.70117E+03 -4.92044E+03 -1.12413E+03
 -2.11290E+03 -4.44021E+03  7.91717E+02 -5.68016E+03  2.28072E+03 -3.11908E+03  3.82684E+03 -1.18621E+03
  3.16243E+03  2.32491E+03  4.82188E+02  2.34635E+03 -9.75243E+02  1.67557E+03 -1.46863E+03  7.77168E+01
 -7.19662E+02 -1.60216E+03  1.42629E+03 -1.65720E+03  1.64562E+03 -9.89250E+02  1.90154E+03  4.82907E+02
  1.03017E+03  6.90012E+02  5.84954E+02 -1.80551E+02 -4.25256E+02  7.31499E+02  1.50718E+03 -6.11132E+01
  9.29828E+01 -3.59180E+01  2.17654E+03  8.81387E+02  4.56716E+02  2.74280E+03 -2.04196E+02  3.51151E+03
 -1.77370E+03  1.22694E+03 -2.72677E+03  3.47485E+02 -2.67055E+03 -7.69546E+02 -1.45628E+02 -1.13693E+03
  5.94580E+02 -1.55980E+03  1.12900E+03 -7.17752E+02  5.36899E+02  1.54746E+03 -7.25700E+02  1.24819E+03
 -2.09931E+03  6.55703E+02 -1.61057E+03 -1.44957E+03 -8.74629E+02 -2.44902E+03  5.22575E+02 -2.24319E+03
  1.06619E+03 -1.01521E+03  1.03331E+03  7.70498E+01  1.59142E+03 -2.01429E+02  3.15074E+02  1.26662E+03
 -3.26604E+02  2.76327E+02 -1.22080E+03 -5.27858E+02  8.00126E+02 -1.12961E+03  2.00265E+03 -1.32672E+03
  1.50025E+03  4.24749E+02  3.11297E+03  1.08928E+03  1.21275E+03  1.89875E+03 -6.34601E+02  2.47332E+03
 -1.79582E+03  3.59048E+02 -2.07070E+03 -2.76927E+02 -1.19388E+03 -1.75043E+03  2.67352E+02 -8.21470E+02
  1.83634E+03 -8.88729E+02  1.07632E+03  9.12051E+02  5.00790E+02  1.56330E+03  2.24583E+01  1.34442E+03
 -3.35819E+02  1.42072E+03 -6.35438E+02  3.06434E+02 -1.43037E+02  4.34277E+02 -8.32862E+02  8.42291E+02
 -9.42265E+02  1.22176E+03 -2.22568E+03  8.61507E+02 -2.25002E+03 -1.50037E+02 -2.95304E+03 -1.55442E+03
 -1.35713E+03 -2.97667E+03  7.96215E+02 -3.74930E+03  1.64822E+03 -3.03979E+03  3.56868E+03 -1.13357E+03
  3.15082E+03 -2.54556E+01  1.84777E+03  2.27340E+03 -6.73643E+02  2.14150E+03 -1.09094E+03  1.80844E+03
 -1.16638E+03  1.08999E+03 -9.11875E+02 -3.23862E+02 -4.07722E+02  3.62875E+02 -6.98810E+02 -1.20179E+02
 -9.34731E+02  3.55499E+01 -8.95800E+02  1.71919E+02  2.56036E+02 -4.50444E+02 -4.60478E+02 -1.17670E+03
  1.59046E+03 -7.85539E+02  8.30193E+02  2.98757E+02  1.58391E+03  1.34344E+03 -2.17071E+02  2.05710E+03
 -1.13672E+03  2.92262E+03 -2.08904E+03  1.53132E+03 -2.47475E+03 -4.07620E+01 -1.68555E+03 -1.44272E+03
 -1.13730E+03 -1.86624E+03  4.64037E+02 -1.81511E+03  9.58437E+02 -1.17053E+03  1.21210E+03  3.27907E+02
  7.50192E+02  3.95780E+02  1.04085E+02  4.06150E+02 -7.05587E+02 -1.77906E+02  4.02102E+01 -4.17998E+02
  6.10715E+02  2.23039E+02  4.19684E+02  6.36128E+02  3.89780E+02  7.38694E+02  3.76559E+02  7.04352E+02
 -8.14616E+02  1.04949E+03 -7.20318E+02 -2.76857E+02 -1.21131E+03 -6.24554E+02  5.59061E+01 -1.78791E+03
  7.05310E+02 -1.37066E+03  1.08276E+03 -1.22643E+02  1.09208E+03 -4.10150E+02  9.55087E+02  1.35592E+03
  2.97825E+02  7.97763E+02 -1.44778E+02  1.06702E+03 -8.72204E+02  1.01825E+03 -6.33237E+02  1.45299E+02
  1.48070E+01 -1.30196E+02 -6.14553E+02  9.28728E+01 -1.08672E+03  2.66021E+02 -9.77245E+02 -5.21512E+02
 -1.15285E+03 -9.45960E+01 -4.11906E+02 -1.46039E+03  6.57897E+02 -1.99125E+03  9.66702E+02 -2.66327E+02
  1.24181E+03  1.07207E+02  1.12463E+02  4.97410E+02  3.48911E+01  9.19319E+02 -4.20505E+02  1.00908E+03
