 $NMID ID='MM_0lb_SNR800_12hz_g50_9.RAW', FMTDAT='(8E13.5)'
 TRAMP=1., VOLUME=1. $END
  3.09853E+05 -5.34443E+00  3.37477E+05  2.50433E+05  8.48856E+04  3.37970E+05 -1.32594E+05  2.51422E+05
 -1.90482E+05  8.32739E+04 -1.12031E+05 -3.23662E+04  6.83234E+02 -5.04205E+04  5.36417E+04 -5.15964E+02
  3.57962E+04  5.30011E+04 -1.68372E+04  7.57126E+04 -6.10868E+04  6.39697E+04 -8.44860E+04  3.25143E+04
 -8.18304E+04 -1.17026E+04 -5.79018E+04 -5.18250E+04 -1.50940E+04 -7.01812E+04  2.79795E+04 -4.62733E+04
  4.07846E+04  3.81114E+03  1.64731E+04  4.78982E+04 -3.42814E+04  4.75208E+04 -6.74656E+04 -1.75142E+02
 -5.40639E+04 -5.67917E+04 -6.91162E+03 -7.81942E+04  3.45166E+04 -5.61662E+04  4.88699E+04 -1.76520E+04
  4.42499E+04  1.16178E+04  3.26644E+04  2.60080E+04  1.58495E+04  2.97385E+04 -5.40723E+03  2.71586E+04
 -2.22396E+04  1.19721E+04 -1.81610E+04 -4.92865E+03  5.84610E+03 -7.28475E+03  2.31531E+04  1.31045E+04
  6.88045E+03  3.63380E+04 -3.27929E+04  3.65887E+04 -6.44999E+04  2.40091E+03 -5.75927E+04 -4.36257E+04
 -1.22833E+04 -6.39525E+04  4.06947E+04 -4.57616E+04  6.01327E+04 -2.16268E+03  3.52584E+04  3.33107E+04
 -6.00645E+03  3.73229E+04 -3.07616E+04  1.70694E+04 -3.10342E+04 -3.57915E+03 -1.77988E+04 -1.12563E+04
 -8.95637E+03 -1.40586E+04 -7.75930E+02 -1.88899E+04  7.94321E+03 -2.29675E+04  1.56098E+04 -1.29951E+04
  1.08613E+04  5.44847E+03 -9.52620E+03  1.29066E+04 -2.19161E+04 -5.24558E+03 -8.23921E+03 -3.56926E+04
  2.37621E+04 -4.49287E+04  4.97440E+04 -1.99657E+04  4.67029E+04  1.99943E+04  1.68948E+04  4.56001E+04
 -1.64297E+04  3.47203E+04 -2.58744E+04  1.90405E+03 -1.06916E+04 -2.85019E+04  2.14490E+04 -3.53505E+04
  4.31205E+04 -9.69483E+03  3.74617E+04  2.44085E+04  1.97017E+04  4.81200E+04 -8.60292E+03  5.24862E+04
 -3.29904E+04  3.59503E+04 -4.43507E+04  1.01146E+04 -4.46789E+04 -1.72620E+04 -2.48371E+04 -3.95424E+04
  7.52128E+03 -3.96195E+04  3.24353E+04 -1.59810E+04  3.05360E+04  1.11416E+04  4.37436E+03  2.00746E+04
 -1.34104E+04  9.05977E+03 -1.09634E+04 -7.60880E+03  5.67085E+03 -1.09635E+04  1.82751E+04  5.36912E+03
  1.41214E+04  2.24248E+04 -5.75919E+03  2.60583E+04 -2.27887E+04  1.25147E+04 -2.95378E+04 -4.17768E+03
 -2.25783E+04 -1.75865E+04 -9.87463E+03 -2.21419E+04  4.10047E+03 -2.20502E+04  1.77272E+04 -1.99782E+04
  2.85343E+04 -1.35789E+04  3.45334E+04  3.91824E+03  2.47418E+04  2.19852E+04  4.24796E+03  3.82353E+04
 -1.81890E+04  3.14245E+04 -2.93034E+04  1.07950E+04 -2.12686E+04 -1.01404E+04 -4.42183E+03 -1.32478E+04
  1.36184E+03 -1.98070E+03 -5.99543E+03  7.34966E+03 -1.77291E+04  4.88360E+03 -1.75547E+04 -7.94019E+03
 -1.10262E+04 -2.03634E+04  5.59416E+03 -2.51067E+04  1.67727E+04 -1.78024E+04  2.02023E+04 -1.66087E+03
  1.23649E+04  1.44052E+04 -1.31879E+03  2.04229E+04 -1.45277E+04  1.17021E+04 -2.09443E+04 -4.50692E+03
 -1.54954E+04 -1.87670E+04 -1.79805E+03 -2.49710E+04  1.08830E+04 -2.10984E+04  2.05824E+04 -1.03814E+04
  1.94364E+04  2.07608E+02  1.41149E+04  4.89817E+03  7.44247E+03  1.00875E+03  1.07058E+04 -1.98656E+03
  1.91751E+04  2.85597E+03  2.16394E+04  1.63522E+04  1.44127E+04  3.31615E+04 -2.89809E+03  3.81181E+04
 -2.20640E+04  3.09592E+04 -3.54349E+04  1.59847E+04 -3.77147E+04 -3.04271E+03 -3.11196E+04 -2.15839E+04
 -1.29281E+04 -3.14925E+04  1.08196E+04 -2.76184E+04  2.37914E+04 -1.37202E+04  2.12122E+04  6.29129E+03
  7.57248E+03  1.58787E+04 -1.01835E+04  1.38108E+04 -1.77890E+04  2.50431E+03 -1.35391E+04 -1.15059E+04
 -1.84908E+02 -1.72701E+04  9.16470E+03 -1.26688E+04  1.16440E+04 -1.68889E+03  2.58861E+03  7.25073E+03
 -7.39708E+03  3.14163E+03 -7.18602E+03 -6.12490E+03 -1.05801E+03 -1.53882E+04  1.03884E+04 -1.58724E+04
  1.94844E+04 -8.83842E+03  2.12995E+04  3.09096E+03  1.81256E+04  1.54239E+04  8.51960E+03  2.35313E+04
 -3.93604E+03  2.56365E+04 -1.63260E+04  1.57048E+04 -1.88507E+04  3.48375E+03 -1.30343E+04 -4.27277E+03
 -5.73806E+03 -5.71894E+03 -8.15227E+02  7.10648E+02 -2.49797E+03  3.09068E+03 -6.03977E+03  4.61667E+03
 -1.19947E+04 -6.74903E+02 -1.23130E+04 -1.01131E+04 -5.01291E+03 -1.65509E+04  5.35720E+03 -1.32577E+04
  1.11329E+04 -5.48397E+03  7.42888E+03  3.74044E+03  4.08621E+02  5.19097E+03 -6.18277E+03  9.61605E+01
 -5.94465E+03 -8.04123E+03 -8.86916E+02 -1.22819E+04  7.09415E+03 -1.32024E+04  1.63202E+04 -7.32973E+03
  1.89016E+04  2.10113E+03  1.40264E+04  1.13971E+04  2.84876E+03  1.48245E+04 -8.28145E+03  1.32119E+04
 -1.06364E+04  3.64484E+03 -5.41345E+03 -2.73381E+03  2.08559E+03 -3.71167E+03  7.13919E+03 -9.38773E+02
  5.82920E+03  5.59416E+03  1.06932E+03  1.03055E+04 -7.21223E+03  1.00294E+04 -1.26753E+04  2.85325E+03
 -8.71228E+03 -6.18663E+03  2.99094E+02 -1.10917E+04  6.95147E+03 -5.73193E+03  7.22983E+03  2.39190E+03
  1.54298E+03  7.32501E+03 -6.74244E+03  9.44155E+03 -1.00090E+04  4.15551E+03 -1.01921E+04 -3.19487E+03
 -6.15185E+03 -1.17334E+04  2.99438E+03 -1.38655E+04  1.15930E+04 -8.49844E+03  1.29120E+04  2.18690E+03
  7.86092E+03  1.01908E+04 -9.07558E+02  1.20988E+04 -8.99209E+03  6.93992E+03 -9.88111E+03 -1.18312E+03
 -8.56280E+03 -8.58069E+03 -1.62433E+03 -9.24173E+03  4.61050E+03 -7.53395E+03  5.96296E+03 -3.26862E+03
  4.01094E+03  1.10964E+03 -9.78178E+02  1.79345E+03 -3.64263E+00 -2.05330E+03  1.49850E+03 -5.36279E+03
  8.22651E+03 -3.38183E+03  1.15869E+04  1.55213E+03  1.16380E+04  7.86816E+03  8.24074E+03  1.56837E+04
 -3.43177E+03  1.79770E+04 -1.48697E+04  1.34055E+04 -1.95762E+04  2.32706E+03 -1.54315E+04 -6.38736E+03
 -7.78009E+03 -1.27245E+04 -3.80164E+02 -1.08757E+04  3.83532E+03 -5.93462E+03  3.84204E+03 -4.17444E+03
  2.60568E+03 -2.46159E+03  3.44430E+03 -3.21212E+03  4.83054E+03 -2.31093E+03  6.30627E+03 -7.19820E+02
  8.10651E+03  2.15106E+03  3.82672E+03  7.20512E+03 -1.74195E+03  8.10848E+03 -8.02609E+03  6.28062E+03
 -1.12261E+04 -1.25555E+03 -6.20943E+03 -7.58541E+03 -9.10634E+02 -1.08835E+04  6.30836E+03 -1.13196E+04
  1.18578E+04 -6.56284E+03  1.41356E+04  1.58500E+03  1.00178E+04  9.95743E+03  1.53392E+03  1.26418E+04
 -5.00881E+03  1.06825E+04 -7.11330E+03  3.43484E+03 -5.01021E+03 -1.31426E+03 -1.90904E+03 -1.64384E+03
 -9.59613E+02  4.81543E+02 -2.00437E+03  2.49552E+03 -4.68508E+03  1.89833E+03 -7.40256E+03 -8.87696E+02
 -5.04559E+03 -7.58185E+03  4.17773E+02 -1.02024E+04  6.44908E+03 -9.78037E+03  1.00137E+04 -2.53460E+03
  1.01181E+04  5.14636E+03  4.61340E+03  8.83224E+03 -2.00990E+03  1.03080E+04 -7.29417E+03  6.33673E+03
 -9.49205E+03  6.89405E+02 -7.48633E+03 -6.17956E+03 -6.67228E+02 -8.61219E+03  4.50258E+03 -6.38197E+03
  6.40139E+03 -2.33390E+03  4.33147E+03  1.49205E+03  1.23353E+03  3.43188E+03  1.43006E+03  1.07181E+03
  2.33029E+03  7.17615E+02  2.50070E+03  1.62043E+03  3.13749E+03  3.64187E+03  2.76658E+03  5.10483E+03
 -2.10609E+03  7.86019E+03 -6.97395E+03  8.61638E+03 -9.85087E+03  2.43492E+03 -1.05914E+04 -3.93440E+03
 -4.89191E+03 -9.85312E+03  1.74268E+03 -1.12951E+04  5.84300E+03 -7.07903E+03  8.38260E+03 -1.63454E+03
  6.79400E+03  4.03023E+03  1.58213E+03  5.78735E+03 -2.86898E+03  3.77993E+03 -3.81744E+03 -4.36219E+02
 -1.74386E+03 -4.23775E+03  2.45537E+03 -4.26905E+03  3.84500E+03 -2.39937E+03  3.84717E+03  1.09650E+03
  2.59382E+03  1.51015E+03  1.49766E+03  1.15931E+03 -5.41134E+02  1.68557E+03  1.49277E+03 -2.01734E+02
  1.23453E+03 -6.44829E+02  4.20546E+03  1.60068E+03  2.02365E+03  5.34832E+03 -9.82198E+02  7.09385E+03
 -4.88815E+03  4.78755E+03 -6.20964E+03  1.20784E+03 -5.45039E+03 -2.27906E+03 -1.82537E+03 -3.90963E+03
  6.23761E+02 -3.98413E+03  2.69773E+03 -1.68699E+03  1.86878E+03  1.92205E+03 -1.32908E+03  3.26826E+03
 -4.13835E+03  1.98560E+03 -4.29632E+03 -2.48255E+03 -2.79712E+03 -5.46846E+03  6.30393E+02 -5.01968E+03
  2.62968E+03 -2.89440E+03  3.90367E+03 -2.16686E+02  3.27920E+03  1.65879E+03  4.08582E+02  2.67749E+03
 -2.10293E+03  7.63640E+02 -2.25809E+03 -2.01389E+03  6.88075E+02 -3.60739E+03  4.66120E+03 -3.16735E+03
  5.45192E+03  5.86211E+02  6.18498E+03  3.95831E+03  2.11228E+03  6.13181E+03 -2.15356E+03  5.77730E+03
 -5.00442E+03  2.17859E+03 -5.41091E+03 -6.32804E+02 -2.85269E+03 -4.13890E+03  6.92161E+02 -3.70208E+03
  4.05769E+03 -1.59789E+03  3.21699E+03  1.56303E+03  1.14908E+03  3.13440E+03 -1.53183E+02  3.02202E+03
 -1.62135E+03  2.08789E+03 -1.58529E+03  6.12429E+02 -5.86533E+02  9.40160E+02 -1.42752E+03  1.51758E+03
 -1.42547E+03  2.51067E+03 -4.50137E+03  1.95127E+03 -5.91273E+03  1.13009E+02 -6.88070E+03 -4.02816E+03
 -3.48650E+03 -8.30555E+03  1.84474E+03 -9.41458E+03  5.42225E+03 -6.99824E+03  8.97936E+03 -2.87682E+03
  8.10171E+03  1.44451E+03  5.07316E+03  5.37073E+03  3.12342E+02  6.07716E+03 -2.53369E+03  4.47718E+03
 -3.53445E+03  1.97119E+03 -2.40122E+03 -6.05363E+02 -8.49205E+02 -1.79177E+02 -8.62168E+02 -3.47647E+02
 -1.67141E+03  6.66763E+02 -1.71503E+03  7.48159E+00 -5.55941E+02 -1.52816E+03 -3.71133E+01 -2.42356E+03
  3.11369E+03 -2.32448E+03  3.32311E+03  2.19366E+02  4.54385E+03  3.44845E+03  6.98744E+02  6.02640E+03
 -3.01018E+03  6.93123E+03 -6.11956E+03  4.15425E+03 -7.21054E+03 -3.13277E+02 -4.86299E+03 -4.61470E+03
 -2.54915E+03 -5.96307E+03  1.17328E+03 -5.16839E+03  3.50635E+03 -2.55453E+03  3.61571E+03  1.43783E+02
  2.32509E+03  1.94491E+03 -3.79838E+02  1.74202E+03 -1.08063E+03 -9.33994E+01 -1.85488E+02 -1.04420E+03
  1.67370E+03 -7.89410E+02  1.88451E+03  9.61222E+02  1.32389E+03  2.15980E+03  5.86755E+01  2.77070E+03
 -2.65494E+03  2.84311E+03 -3.68026E+03  3.83504E+01 -3.25795E+03 -2.84917E+03 -5.18977E+02 -4.45847E+03
  2.42940E+03 -4.14357E+03  4.12557E+03 -9.38900E+02  4.35808E+03  8.56539E+02  2.67236E+03  3.60633E+03
  9.28903E+02  3.43765E+03 -1.48011E+03  2.65849E+03 -2.34265E+03  1.91854E+03 -2.13224E+03  5.55363E+01
 -8.68442E+02 -3.08223E+02 -1.09564E+03  4.42177E+02 -1.94401E+03  7.19757E+02 -2.94787E+03 -7.44826E+02
 -2.92060E+03 -1.30995E+03 -1.26288E+03 -3.88645E+03  1.89627E+03 -4.25780E+03  3.63401E+03 -1.65525E+03
  3.88459E+03  6.66064E+02  1.67949E+03  2.63399E+03 -2.62159E+02  3.86486E+03 -2.65037E+03  2.70859E+03
