 $NMID ID='MM_0lb_SNR800_14hz_g60_17.RAW', FMTDAT='(8E13.5)'
 TRAMP=1., VOLUME=1. $END
  3.09574E+05  1.70624E+02  3.38020E+05  2.50891E+05  8.46843E+04  3.38076E+05 -1.32528E+05  2.51472E+05
 -1.90548E+05  8.32664E+04 -1.12058E+05 -3.27851E+04  8.52332E+02 -5.08521E+04  5.35905E+04 -5.82163E+02
  3.55423E+04  5.27674E+04 -1.67224E+04  7.57498E+04 -6.09209E+04  6.42388E+04 -8.44364E+04  3.23033E+04
 -8.14105E+04 -1.15202E+04 -5.73098E+04 -5.17859E+04 -1.50701E+04 -7.00321E+04  2.79350E+04 -4.60485E+04
  4.06364E+04  3.42287E+03  1.67238E+04  4.83344E+04 -3.43078E+04  4.76723E+04 -6.74906E+04  1.81254E+02
 -5.41804E+04 -5.69264E+04 -7.24266E+03 -7.77203E+04  3.41051E+04 -5.59922E+04  4.85779E+04 -1.79230E+04
  4.38998E+04  1.14812E+04  3.20731E+04  2.55605E+04  1.58344E+04  2.95770E+04 -5.48559E+03  2.76958E+04
 -2.22567E+04  1.22789E+04 -1.84064E+04 -5.00123E+03  5.96810E+03 -7.55791E+03  2.28939E+04  1.29491E+04
  7.28315E+03  3.60345E+04 -3.27351E+04  3.61495E+04 -6.43166E+04  2.29333E+03 -5.77787E+04 -4.32826E+04
 -1.25620E+04 -6.42921E+04  4.03755E+04 -4.63052E+04  5.92784E+04 -2.38543E+03  3.52258E+04  3.33977E+04
 -5.82864E+03  3.76654E+04 -3.08725E+04  1.70677E+04 -3.15416E+04 -3.89885E+03 -1.74403E+04 -1.12172E+04
 -8.88691E+03 -1.41140E+04 -4.75053E+02 -1.89598E+04  7.88056E+03 -2.34046E+04  1.56615E+04 -1.27948E+04
  1.10407E+04  5.68005E+03 -8.98979E+03  1.27574E+04 -2.18987E+04 -5.31104E+03 -8.32714E+03 -3.50867E+04
  2.39237E+04 -4.46996E+04  4.96895E+04 -2.01613E+04  4.62036E+04  1.96857E+04  1.60181E+04  4.52483E+04
 -1.60463E+04  3.41713E+04 -2.62061E+04  2.14456E+03 -1.02062E+04 -2.85183E+04  2.15105E+04 -3.48047E+04
  4.22378E+04 -9.58126E+03  3.73745E+04  2.42032E+04  1.93811E+04  4.79740E+04 -8.30357E+03  5.20731E+04
 -3.27772E+04  3.56139E+04 -4.35230E+04  1.04445E+04 -4.40395E+04 -1.72994E+04 -2.39301E+04 -3.96059E+04
  7.33815E+03 -3.89626E+04  3.24393E+04 -1.55883E+04  2.99115E+04  1.10839E+04  4.26835E+03  1.97389E+04
 -1.35220E+04  8.52262E+03 -1.04483E+04 -7.35286E+03  5.96313E+03 -1.11219E+04  1.83689E+04  5.74159E+03
  1.42299E+04  2.23195E+04 -5.71994E+03  2.56466E+04 -2.27020E+04  1.22607E+04 -2.90008E+04 -4.23367E+03
 -2.19455E+04 -1.74140E+04 -9.59408E+03 -2.21610E+04  4.16116E+03 -2.13697E+04  1.73007E+04 -1.93869E+04
  2.77692E+04 -1.32030E+04  3.45995E+04  3.21246E+03  2.49761E+04  2.14348E+04  4.68524E+03  3.77457E+04
 -1.84752E+04  3.14009E+04 -2.83667E+04  1.09074E+04 -2.13779E+04 -1.01169E+04 -4.27430E+03 -1.31458E+04
  1.36553E+03 -2.61085E+03 -5.86803E+03  6.95741E+03 -1.75776E+04  5.14312E+03 -1.76570E+04 -7.82886E+03
 -1.07360E+04 -2.01801E+04  5.74597E+03 -2.42840E+04  1.66317E+04 -1.74811E+04  1.96475E+04 -1.57011E+03
  1.18806E+04  1.37309E+04 -1.22665E+03  2.03541E+04 -1.40851E+04  1.17226E+04 -2.05006E+04 -4.35025E+03
 -1.50881E+04 -1.81413E+04 -2.19685E+03 -2.40612E+04  1.10272E+04 -2.02777E+04  1.98434E+04 -1.00424E+04
  1.87051E+04  2.46048E+02  1.34213E+04  4.24767E+03  7.17109E+03  1.11626E+03  1.03126E+04 -1.63453E+03
  1.85679E+04  2.97472E+03  2.09560E+04  1.58690E+04  1.37974E+04  3.17885E+04 -2.63210E+03  3.66032E+04
 -2.09249E+04  2.97168E+04 -3.44435E+04  1.50038E+04 -3.61929E+04 -2.66784E+03 -2.96981E+04 -2.07080E+04
 -1.28760E+04 -3.01069E+04  1.05368E+04 -2.66383E+04  2.29813E+04 -1.34956E+04  2.04044E+04  5.61002E+03
  7.35211E+03  1.52009E+04 -9.62200E+03  1.36048E+04 -1.72572E+04  2.50488E+03 -1.29129E+04 -1.09210E+04
 -3.76367E+02 -1.60192E+04  8.53545E+03 -1.20602E+04  1.11017E+04 -1.21287E+03  2.24109E+03  7.11330E+03
 -7.29061E+03  2.84155E+03 -6.71296E+03 -5.83546E+03 -5.54523E+02 -1.47389E+04  1.02293E+04 -1.54168E+04
  1.79055E+04 -8.27514E+03  1.96615E+04  2.81048E+03  1.68896E+04  1.45644E+04  8.19079E+03  2.24129E+04
 -3.91819E+03  2.46105E+04 -1.52914E+04  1.49395E+04 -1.73537E+04  3.50197E+03 -1.20023E+04 -4.27775E+03
 -5.71835E+03 -5.50078E+03 -7.60949E+02  1.02844E+03 -2.45165E+03  2.46690E+03 -5.50819E+03  4.98647E+03
 -1.14603E+04 -7.22796E+02 -1.20881E+04 -9.78175E+03 -4.85973E+03 -1.57466E+04  5.11247E+03 -1.23111E+04
  1.01971E+04 -5.32773E+03  7.16532E+03  3.15091E+03 -9.84984E+00  4.59868E+03 -5.61638E+03 -5.77649E+01
 -5.49692E+03 -7.89686E+03 -9.49902E+02 -1.16910E+04  6.58591E+03 -1.20436E+04  1.50670E+04 -6.86444E+03
  1.77286E+04  1.82812E+03  1.29274E+04  1.05787E+04  2.27038E+03  1.39527E+04 -7.49097E+03  1.18857E+04
 -9.63054E+03  3.62060E+03 -4.93994E+03 -2.23793E+03  1.85619E+03 -3.31452E+03  6.58816E+03 -1.07403E+03
  5.66667E+03  5.27170E+03  1.14233E+03  9.60814E+03 -6.90364E+03  9.47271E+03 -1.17378E+04  2.66995E+03
 -7.63601E+03 -6.04083E+03  6.21179E+02 -1.03611E+04  6.32691E+03 -5.04540E+03  6.39166E+03  2.08342E+03
  9.56392E+02  6.64682E+03 -6.07783E+03  8.27543E+03 -9.11141E+03  4.10109E+03 -8.94534E+03 -3.22026E+03
 -5.11300E+03 -1.05156E+04  2.36794E+03 -1.23386E+04  1.01596E+04 -7.59568E+03  1.14520E+04  1.67286E+03
  7.22412E+03  9.10704E+03 -1.06418E+03  1.15426E+04 -8.05459E+03  6.51866E+03 -8.86749E+03 -1.08394E+03
 -7.96364E+03 -7.80480E+03 -1.38491E+03 -8.44906E+03  4.16547E+03 -7.00520E+03  5.37096E+03 -3.01850E+03
  4.05646E+03  7.66566E+02 -3.93747E+02  1.46705E+03  1.46056E+02 -1.69459E+03  1.15435E+03 -4.79965E+03
  7.18121E+03 -2.67433E+03  1.04069E+04  1.33933E+03  1.02342E+04  7.15230E+03  7.68965E+03  1.35206E+04
 -3.33580E+03  1.56072E+04 -1.31140E+04  1.19268E+04 -1.69506E+04  2.48320E+03 -1.34453E+04 -5.40832E+03
 -6.79577E+03 -1.16360E+04 -6.18424E+02 -9.58490E+03  3.41543E+03 -5.07221E+03  3.38576E+03 -3.34438E+03
  2.15105E+03 -2.30106E+03  2.93187E+03 -2.80976E+03  4.53293E+03 -2.55314E+03  5.73361E+03 -2.16929E+02
  6.99159E+03  1.78072E+03  3.05436E+03  6.17324E+03 -2.05743E+03  6.88536E+03 -7.49442E+03  5.37116E+03
 -8.99085E+03 -8.97249E+02 -5.07484E+03 -6.43974E+03 -5.99526E+02 -9.61695E+03  5.56299E+03 -9.85424E+03
  9.95289E+03 -5.70652E+03  1.22432E+04  1.25191E+03  8.52362E+03  8.57021E+03  1.46379E+03  1.12098E+04
 -4.35670E+03  9.71666E+03 -6.50468E+03  3.26018E+03 -4.02367E+03 -1.34005E+03 -1.59447E+03 -1.41223E+03
 -9.68905E+02  4.24970E+02 -1.52148E+03  2.32785E+03 -4.01063E+03  1.80759E+03 -6.78958E+03 -1.02448E+03
 -3.92236E+03 -6.54955E+03  3.42611E+02 -8.82462E+03  5.31105E+03 -8.09503E+03  7.98893E+03 -2.27288E+03
  8.41388E+03  4.54527E+03  3.95339E+03  7.45875E+03 -1.93664E+03  8.53264E+03 -6.19622E+03  5.76399E+03
 -7.69482E+03  2.72031E+02 -6.23812E+03 -5.14011E+03 -5.54354E+02 -7.28754E+03  3.47076E+03 -5.10927E+03
  5.47274E+03 -1.76096E+03  3.68881E+03  1.07825E+03  1.01842E+03  2.47395E+03  7.74397E+02  1.11548E+03
  2.13465E+03  6.54581E+02  2.19124E+03  1.63566E+03  2.54808E+03  3.29980E+03  2.39985E+03  4.00113E+03
 -1.72583E+03  6.27992E+03 -5.77633E+03  7.27495E+03 -7.65370E+03  1.88495E+03 -8.61208E+03 -2.79435E+03
 -4.24668E+03 -8.11770E+03  1.68169E+03 -9.31638E+03  4.97056E+03 -5.54579E+03  6.43669E+03 -1.63914E+03
  5.17373E+03  3.30852E+03  1.20823E+03  5.11703E+03 -1.81393E+03  3.06514E+03 -3.01431E+03 -3.25108E+02
 -1.38183E+03 -3.35831E+03  1.99713E+03 -3.49044E+03  2.95216E+03 -1.88605E+03  3.46436E+03  6.62791E+02
  1.91129E+03  1.27583E+03  1.03584E+03  6.88453E+02 -5.58987E+02  1.38282E+03  1.78609E+03 -5.32738E+02
  9.20067E+02 -1.71513E+02  3.41423E+03  1.42450E+03  1.54789E+03  4.68022E+03 -4.13277E+02  6.12501E+03
 -3.67964E+03  3.09658E+03 -4.65364E+03  6.70366E+02 -4.59111E+03 -1.68398E+03 -1.35806E+03 -2.79484E+03
  4.77729E+02 -3.03713E+03  1.88403E+03 -1.60629E+03  1.31924E+03  1.86133E+03 -1.15725E+03  2.33194E+03
 -3.00760E+03  1.79081E+03 -2.95699E+03 -2.18337E+03 -1.88854E+03 -4.45232E+03  6.75839E+02 -4.15239E+03
  2.07476E+03 -2.14035E+03  2.82911E+03 -3.80632E+02  2.93103E+03  7.21639E+02  3.74322E+02  2.23259E+03
 -1.38458E+03  6.08686E+02 -1.89584E+03 -1.28960E+03  9.62502E+02 -2.73589E+03  3.55427E+03 -2.25531E+03
  4.07901E+03  1.66364E+02  5.08812E+03  2.72397E+03  1.35181E+03  4.63287E+03 -1.35157E+03  4.47447E+03
 -3.57606E+03  1.60994E+03 -3.87802E+03 -5.90180E+02 -1.70017E+03 -3.23184E+03  6.97469E+02 -2.33078E+03
  3.09094E+03 -1.00336E+03  2.23378E+03  1.16845E+03  4.70964E+02  2.75281E+03  8.63908E+01  2.40795E+03
 -1.09254E+03  1.98939E+03 -1.17168E+03  6.66058E+02 -4.35501E+02  4.62866E+02 -7.27103E+02  9.22219E+02
 -1.38499E+03  1.91262E+03 -3.13530E+03  1.30582E+03 -4.34192E+03  3.59562E+02 -5.04623E+03 -2.94584E+03
 -2.58362E+03 -6.25269E+03  1.29861E+03 -6.61093E+03  3.65748E+03 -5.45353E+03  6.64333E+03 -2.13335E+03
  6.04571E+03  6.34069E+02  3.82399E+03  4.25205E+03  2.89839E+01  4.31923E+03 -1.76342E+03  3.33541E+03
 -2.45534E+03  1.37201E+03 -1.89866E+03 -7.94522E+02 -6.90287E+02 -7.06196E+01 -8.49359E+02  7.42478E+01
 -1.38308E+03 -1.33292E+01 -1.29338E+03  1.44914E+02 -8.94742E+00 -1.23948E+03 -4.40916E+02 -1.89464E+03
  2.75752E+03 -1.24731E+03  2.38266E+03  1.67706E+02  2.97934E+03  2.47706E+03  4.18979E+02  3.91360E+03
 -2.08602E+03  4.81021E+03 -4.33442E+03  2.72595E+03 -4.96260E+03 -4.52176E+02 -3.57148E+03 -3.00686E+03
 -2.02098E+03 -4.01866E+03  1.02304E+03 -3.81904E+03  2.28389E+03 -2.39075E+03  2.47580E+03 -2.47654E+02
  1.55400E+03  1.25407E+03 -5.33040E+02  1.07255E+03 -7.97319E+02 -3.55763E+02 -5.44223E+00 -1.10131E+03
  1.19955E+03 -5.15516E+02  1.29098E+03  6.83915E+02  7.30293E+02  1.43662E+03  6.86868E+02  1.29574E+03
 -1.57802E+03  1.12725E+03 -2.35776E+03  3.73573E+02 -2.13392E+03 -2.10174E+03  3.36115E+02 -3.18049E+03
  1.56769E+03 -2.38427E+03  2.26566E+03 -6.11213E+02  2.77565E+03 -1.77550E+02  1.83247E+03  2.42027E+03
  6.53200E+02  2.35321E+03 -8.13516E+02  1.93945E+03 -1.35978E+03  1.27188E+03 -1.26800E+03  1.23485E+02
 -8.27913E+02 -2.26151E+01 -7.99964E+02  1.63380E+02 -1.00608E+03  3.86894E+02 -2.15709E+03 -1.71282E+02
 -1.94502E+03 -7.87476E+02 -1.13718E+03 -2.44508E+03  1.46057E+03 -2.94423E+03  2.14653E+03 -1.11085E+03
  2.34217E+03  5.62036E+02  9.06721E+02  1.18632E+03 -5.62623E+02  2.41756E+03 -1.59874E+03  1.80846E+03
