 $NMID ID='MM_0lb_SNR800_11hz_g40_67.RAW', FMTDAT='(8E13.5)'
 TRAMP=1., VOLUME=1. $END
  3.09828E+05  4.14316E+02  3.37872E+05  2.50756E+05  8.48374E+04  3.37940E+05 -1.32884E+05  2.51552E+05
 -1.90691E+05  8.38243E+04 -1.11937E+05 -3.25487E+04  4.10584E+02 -5.06767E+04  5.39037E+04  3.67808E+01
  3.54091E+04  5.30613E+04 -1.68713E+04  7.59321E+04 -6.12533E+04  6.38370E+04 -8.43315E+04  3.21616E+04
 -8.12319E+04 -1.17139E+04 -5.74674E+04 -5.20181E+04 -1.54017E+04 -6.97629E+04  2.80695E+04 -4.64479E+04
  4.04522E+04  3.64938E+03  1.63750E+04  4.79080E+04 -3.44344E+04  4.75347E+04 -6.72808E+04 -1.49330E+02
 -5.39282E+04 -5.75726E+04 -7.19353E+03 -7.80291E+04  3.44331E+04 -5.57599E+04  4.88172E+04 -1.72948E+04
  4.40132E+04  1.15367E+04  3.18141E+04  2.60840E+04  1.57950E+04  2.98893E+04 -5.28353E+03  2.75691E+04
 -2.23360E+04  1.25278E+04 -1.83024E+04 -5.32450E+03  6.45437E+03 -7.32602E+03  2.26963E+04  1.30152E+04
  7.27772E+03  3.60410E+04 -3.27019E+04  3.58798E+04 -6.42368E+04  2.18581E+03 -5.74968E+04 -4.34122E+04
 -1.21991E+04 -6.42171E+04  4.06094E+04 -4.61916E+04  5.96558E+04 -2.58835E+03  3.51415E+04  3.29780E+04
 -5.78946E+03  3.70889E+04 -3.10402E+04  1.70544E+04 -3.13336E+04 -4.27296E+03 -1.74789E+04 -1.11521E+04
 -8.63749E+03 -1.39355E+04 -6.61235E+02 -1.84392E+04  7.96835E+03 -2.35502E+04  1.56360E+04 -1.31093E+04
  1.08339E+04  5.40186E+03 -9.30939E+03  1.31926E+04 -2.20888E+04 -5.28397E+03 -8.36173E+03 -3.50863E+04
  2.38743E+04 -4.44699E+04  4.98316E+04 -2.01102E+04  4.65701E+04  1.97220E+04  1.62187E+04  4.55726E+04
 -1.59887E+04  3.44207E+04 -2.61397E+04  1.85218E+03 -1.03977E+04 -2.86020E+04  2.14896E+04 -3.49791E+04
  4.19833E+04 -9.86551E+03  3.73291E+04  2.46654E+04  1.92587E+04  4.83414E+04 -8.18574E+03  5.25332E+04
 -3.31046E+04  3.57279E+04 -4.39954E+04  9.95685E+03 -4.47048E+04 -1.74077E+04 -2.44512E+04 -3.95343E+04
  7.58461E+03 -3.96067E+04  3.21161E+04 -1.57628E+04  3.00862E+04  1.11604E+04  4.23914E+03  1.97444E+04
 -1.40983E+04  9.07988E+03 -1.05069E+04 -7.46751E+03  5.49005E+03 -1.13349E+04  1.84412E+04  5.59478E+03
  1.40138E+04  2.22159E+04 -6.07622E+03  2.61083E+04 -2.28190E+04  1.22883E+04 -2.95289E+04 -4.14179E+03
 -2.22252E+04 -1.78059E+04 -9.83270E+03 -2.20821E+04  3.83228E+03 -2.21455E+04  1.73736E+04 -2.01291E+04
  2.84359E+04 -1.32934E+04  3.45775E+04  3.78260E+03  2.48884E+04  2.16253E+04  4.41166E+03  3.81535E+04
 -1.83558E+04  3.20106E+04 -2.91088E+04  1.09154E+04 -2.11721E+04 -1.05777E+04 -4.57110E+03 -1.31663E+04
  1.75229E+03 -2.19744E+03 -5.94146E+03  7.21564E+03 -1.78686E+04  5.12800E+03 -1.77313E+04 -7.89524E+03
 -1.11607E+04 -2.08089E+04  5.47824E+03 -2.47797E+04  1.64835E+04 -1.77830E+04  1.93120E+04 -1.54570E+03
  1.25155E+04  1.42801E+04 -1.17044E+03  2.06492E+04 -1.47387E+04  1.21223E+04 -2.07571E+04 -4.33565E+03
 -1.58187E+04 -1.84781E+04 -1.79208E+03 -2.50177E+04  1.09751E+04 -2.01992E+04  2.07503E+04 -1.03536E+04
  1.92209E+04 -6.18358E+01  1.40113E+04  5.00870E+03  7.91035E+03  1.17743E+03  1.08222E+04 -1.68929E+03
  1.92768E+04  2.67334E+03  2.20060E+04  1.65693E+04  1.50667E+04  3.31886E+04 -3.09349E+03  3.81707E+04
 -2.21340E+04  3.13674E+04 -3.57634E+04  1.57172E+04 -3.82097E+04 -2.69582E+03 -3.11957E+04 -2.18050E+04
 -1.29986E+04 -3.13884E+04  1.06094E+04 -2.80629E+04  2.39813E+04 -1.39405E+04  2.12872E+04  6.70359E+03
  7.52721E+03  1.60282E+04 -1.01091E+04  1.35830E+04 -1.77840E+04  2.45086E+03 -1.36864E+04 -1.10637E+04
 -1.05429E+02 -1.71862E+04  8.86643E+03 -1.25673E+04  1.16286E+04 -1.46596E+03  2.64293E+03  7.29634E+03
 -7.57867E+03  3.17386E+03 -7.32790E+03 -6.28103E+03 -1.21125E+03 -1.54137E+04  1.04354E+04 -1.62666E+04
  1.90749E+04 -8.75456E+03  2.12773E+04  2.79121E+03  1.85695E+04  1.55599E+04  8.70876E+03  2.40801E+04
 -4.35796E+03  2.58105E+04 -1.64625E+04  1.60424E+04 -1.87593E+04  3.63039E+03 -1.30672E+04 -4.58881E+03
 -5.77664E+03 -5.93496E+03 -1.13352E+03  5.68868E+02 -2.62488E+03  2.85633E+03 -6.01048E+03  4.59539E+03
 -1.18535E+04 -1.12640E+03 -1.25359E+04 -1.02792E+04 -5.18862E+03 -1.67316E+04  5.14976E+03 -1.30039E+04
  1.10133E+04 -5.33673E+03  7.67464E+03  3.27295E+03 -1.18483E+02  5.50197E+03 -6.27935E+03 -2.83797E+02
 -6.15651E+03 -8.52931E+03 -1.01777E+03 -1.27383E+04  7.02953E+03 -1.33142E+04  1.67878E+04 -7.45096E+03
  1.94614E+04  1.76875E+03  1.41746E+04  1.18727E+04  2.53339E+03  1.58590E+04 -7.78612E+03  1.27882E+04
 -1.06703E+04  3.76848E+03 -5.62650E+03 -2.38996E+03  1.57948E+03 -3.59133E+03  7.40656E+03 -1.11058E+03
  6.31137E+03  5.61515E+03  1.00726E+03  1.03470E+04 -7.65386E+03  9.94026E+03 -1.30140E+04  2.31438E+03
 -8.69531E+03 -6.75402E+03  3.97060E+02 -1.12522E+04  6.82251E+03 -6.11124E+03  7.34624E+03  2.45758E+03
  1.69313E+03  7.36600E+03 -6.40928E+03  9.20497E+03 -1.05460E+04  4.00104E+03 -1.08954E+04 -3.56922E+03
 -6.42765E+03 -1.21765E+04  3.07324E+03 -1.42321E+04  1.18529E+04 -8.65035E+03  1.32711E+04  2.23593E+03
  7.98894E+03  1.02081E+04 -8.65645E+02  1.27125E+04 -9.41391E+03  6.92476E+03 -1.04088E+04 -1.12101E+03
 -8.81442E+03 -8.81902E+03 -1.48378E+03 -9.53583E+03  4.87458E+03 -7.62282E+03  5.76762E+03 -3.16667E+03
  4.32234E+03  1.34770E+03 -7.12877E+02  1.60160E+03 -1.62294E+02 -2.35446E+03  1.53935E+03 -5.53299E+03
  8.91400E+03 -3.43157E+03  1.24396E+04  1.34459E+03  1.20442E+04  7.99841E+03  8.45767E+03  1.63472E+04
 -3.80179E+03  1.83838E+04 -1.53600E+04  1.38299E+04 -1.97654E+04  2.68362E+03 -1.63133E+04 -6.87033E+03
 -8.49436E+03 -1.32823E+04 -5.20025E+02 -1.11720E+04  4.12042E+03 -5.93005E+03  4.40751E+03 -4.11859E+03
  2.99723E+03 -2.39189E+03  3.39956E+03 -3.48383E+03  5.14349E+03 -2.77791E+03  6.20105E+03 -9.32077E+02
  8.59832E+03  1.63552E+03  4.17203E+03  6.97124E+03 -1.92436E+03  8.30705E+03 -9.26062E+03  6.46837E+03
 -1.11196E+04 -1.09781E+03 -6.87805E+03 -7.84337E+03 -4.85550E+02 -1.21664E+04  7.20982E+03 -1.18751E+04
  1.22470E+04 -6.74302E+03  1.47150E+04  1.69508E+03  1.03758E+04  1.03547E+04  1.32528E+03  1.32840E+04
 -5.45995E+03  1.13061E+04 -7.91020E+03  3.87244E+03 -5.32488E+03 -1.50363E+03 -2.43309E+03 -1.64462E+03
 -1.26866E+03 -1.08957E+02 -1.91359E+03  2.45983E+03 -4.62641E+03  1.83572E+03 -7.93277E+03 -1.08540E+03
 -5.28988E+03 -8.35136E+03  2.17243E+02 -1.09018E+04  6.85935E+03 -1.04855E+04  1.07855E+04 -3.20566E+03
  1.06949E+04  5.43265E+03  5.11833E+03  9.51720E+03 -2.16016E+03  1.14445E+04 -7.74171E+03  6.92458E+03
 -1.00347E+04  4.13178E+02 -7.75128E+03 -6.21132E+03 -5.49857E+02 -8.91036E+03  4.48034E+03 -6.65372E+03
  6.79484E+03 -2.23609E+03  4.69264E+03  1.65300E+03  1.83171E+03  3.46462E+03  1.31043E+03  1.28836E+03
  2.32470E+03  8.32261E+02  2.65826E+03  2.12880E+03  3.06120E+03  3.94548E+03  2.98103E+03  5.73707E+03
 -2.34329E+03  8.44164E+03 -7.53870E+03  8.80343E+03 -1.07437E+04  2.28387E+03 -1.12602E+04 -4.04514E+03
 -5.24171E+03 -1.11053E+04  1.72032E+03 -1.20445E+04  6.55168E+03 -7.51010E+03  8.74406E+03 -2.29746E+03
  7.25821E+03  4.48619E+03  1.53381E+03  6.76025E+03 -2.99924E+03  3.74895E+03 -4.52031E+03 -3.31310E+02
 -2.22898E+03 -4.32855E+03  2.80355E+03 -4.69100E+03  4.81708E+03 -2.07981E+03  4.45634E+03  1.37178E+03
  2.80641E+03  2.31439E+03  7.93911E+02  1.67292E+03 -7.50758E+02  1.64460E+03  1.49187E+03 -5.51638E+02
  1.88855E+03 -8.17084E+02  4.60639E+03  1.78037E+03  2.41954E+03  5.48862E+03 -8.72386E+02  7.56606E+03
 -5.18151E+03  4.77592E+03 -6.68933E+03  1.15852E+03 -6.02116E+03 -2.39771E+03 -2.40183E+03 -4.39113E+03
  9.32675E+02 -4.04145E+03  2.78656E+03 -2.14758E+03  2.08343E+03  2.45571E+03 -1.30644E+03  3.71704E+03
 -4.60277E+03  2.33929E+03 -4.95156E+03 -2.63126E+03 -2.93350E+03 -5.98570E+03  1.12714E+03 -5.93355E+03
  3.24527E+03 -3.36887E+03  3.97848E+03  6.35787E+01  3.62416E+03  9.58354E+02  6.02775E+02  3.14415E+03
 -1.92609E+03  9.38033E+02 -2.79068E+03 -1.98815E+03  1.33791E+03 -4.32262E+03  5.36577E+03 -3.65970E+03
  6.13690E+03  4.21151E+02  6.68773E+03  4.50578E+03  2.12532E+03  6.71145E+03 -2.44041E+03  6.43758E+03
 -5.19164E+03  2.75705E+03 -5.87832E+03 -7.77998E+02 -3.33192E+03 -4.58863E+03  1.27636E+03 -3.76829E+03
  4.34974E+03 -2.24277E+03  3.35708E+03  2.19868E+03  1.08905E+03  3.99927E+03 -6.00438E+02  3.52378E+03
 -1.63680E+03  2.51576E+03 -1.74491E+03  8.69206E+02 -6.98937E+02  7.09210E+02 -1.61022E+03  1.36812E+03
 -1.80162E+03  2.65124E+03 -5.13740E+03  2.27868E+03 -6.39716E+03  4.78062E+02 -7.88567E+03 -4.17413E+03
 -3.96904E+03 -9.02155E+03  1.44429E+03 -1.01592E+04  6.12536E+03 -8.19742E+03  9.73876E+03 -2.84942E+03
  9.16514E+03  1.63771E+03  4.87883E+03  5.82788E+03  3.55773E+02  6.39165E+03 -2.52375E+03  5.23032E+03
 -3.83905E+03  1.82832E+03 -2.52884E+03 -3.16982E+02 -1.15077E+03 -4.78120E+02 -3.86933E+02  3.25319E+02
 -1.79480E+03  4.69931E+01 -1.62627E+03  2.00220E+02 -6.48740E+02 -1.55264E+03 -1.72651E+02 -2.54250E+03
  3.13797E+03 -2.43697E+03  4.10492E+03  1.35414E+02  4.87329E+03  3.85698E+03  1.09769E+03  6.88941E+03
 -3.54267E+03  8.02396E+03 -7.17210E+03  4.79958E+03 -7.81826E+03 -9.66096E+02 -6.42088E+03 -5.19128E+03
 -2.20869E+03 -7.13904E+03  1.58649E+03 -6.49152E+03  4.15767E+03 -3.30225E+03  4.39584E+03 -6.78945E+01
  2.60526E+03  2.09178E+03 -2.88406E+02  1.92829E+03 -1.36145E+03 -3.67529E+02 -8.82655E+01 -1.45260E+03
  2.07153E+03 -7.31313E+02  2.72388E+03  8.98098E+02  2.00026E+03  2.90717E+03  3.81205E+02  3.39540E+03
 -3.24977E+03  3.06290E+03 -4.37513E+03  4.06229E+02 -4.15418E+03 -2.91463E+03 -5.10607E+02 -5.47631E+03
  3.37177E+03 -4.80803E+03  4.99360E+03 -1.30678E+03  5.27511E+03  8.90792E+02  2.92733E+03  4.03803E+03
  8.69124E+02  4.20113E+03 -1.47525E+03  3.48283E+03 -2.90435E+03  1.99110E+03 -2.44895E+03  2.99252E+02
 -1.10645E+03 -2.55715E+02 -1.16851E+03  5.77666E+02 -2.40324E+03  5.72773E+02 -3.95551E+03 -6.11179E+02
 -3.70391E+03 -2.13209E+03 -9.77237E+02 -4.55409E+03  2.47164E+03 -4.82997E+03  4.14565E+03 -2.36447E+03
  4.08670E+03  4.44235E+02  2.19337E+03  3.11995E+03 -2.42794E+02  4.42896E+03 -3.22285E+03  2.71492E+03
