 $NMID ID='MM_0lb_SNR800_11hz_g40_91.RAW', FMTDAT='(8E13.5)'
 TRAMP=1., VOLUME=1. $END
  3.09602E+05  2.98280E+02  3.37839E+05  2.50378E+05  8.48445E+04  3.38085E+05 -1.32553E+05  2.51271E+05
 -1.90523E+05  8.32420E+04 -1.12159E+05 -3.26171E+04  3.86047E+02 -5.02950E+04  5.36639E+04 -3.49880E+02
  3.54006E+04  5.26703E+04 -1.69780E+04  7.58982E+04 -6.09325E+04  6.37155E+04 -8.46164E+04  3.20374E+04
 -8.14761E+04 -1.12394E+04 -5.74326E+04 -5.19279E+04 -1.50788E+04 -6.99850E+04  2.75405E+04 -4.60689E+04
  4.09726E+04  3.58006E+03  1.65679E+04  4.82730E+04 -3.45867E+04  4.72865E+04 -6.72699E+04  6.66147E+01
 -5.39121E+04 -5.70302E+04 -6.70743E+03 -7.76027E+04  3.42873E+04 -5.54800E+04  4.86212E+04 -1.75972E+04
  4.42865E+04  1.11904E+04  3.26905E+04  2.61587E+04  1.59244E+04  2.98358E+04 -5.21652E+03  2.73980E+04
 -2.21999E+04  1.24494E+04 -1.84302E+04 -5.10153E+03  6.23813E+03 -7.50849E+03  2.25801E+04  1.33285E+04
  7.10382E+03  3.60599E+04 -3.29305E+04  3.64517E+04 -6.40487E+04  2.25013E+03 -5.78074E+04 -4.36936E+04
 -1.22946E+04 -6.41042E+04  4.05596E+04 -4.61613E+04  5.94991E+04 -2.46138E+03  3.52790E+04  3.31293E+04
 -5.75483E+03  3.75391E+04 -3.05714E+04  1.69978E+04 -3.15850E+04 -4.04529E+03 -1.77544E+04 -1.12912E+04
 -8.58984E+03 -1.36876E+04 -5.46919E+02 -1.85562E+04  7.73483E+03 -2.34226E+04  1.55551E+04 -1.31628E+04
  1.13943E+04  5.49956E+03 -9.15867E+03  1.28246E+04 -2.19530E+04 -4.91918E+03 -8.13367E+03 -3.53085E+04
  2.36288E+04 -4.44467E+04  4.98194E+04 -2.00775E+04  4.66612E+04  1.99092E+04  1.63155E+04  4.54037E+04
 -1.63074E+04  3.45993E+04 -2.63772E+04  1.82331E+03 -1.03698E+04 -2.84732E+04  2.13400E+04 -3.49559E+04
  4.25663E+04 -9.99536E+03  3.73200E+04  2.44237E+04  1.96237E+04  4.85166E+04 -8.26421E+03  5.27733E+04
 -3.28247E+04  3.55001E+04 -4.41782E+04  1.00886E+04 -4.44043E+04 -1.74279E+04 -2.47649E+04 -3.95723E+04
  7.16078E+03 -3.92591E+04  3.29474E+04 -1.54292E+04  3.04351E+04  1.07713E+04  4.41077E+03  1.97767E+04
 -1.35651E+04  8.45228E+03 -1.07082E+04 -7.94369E+03  5.48692E+03 -1.11014E+04  1.82805E+04  5.91630E+03
  1.41675E+04  2.22004E+04 -5.59966E+03  2.60229E+04 -2.29032E+04  1.28335E+04 -2.93988E+04 -3.93157E+03
 -2.21534E+04 -1.76024E+04 -9.50573E+03 -2.19759E+04  4.24996E+03 -2.16861E+04  1.73192E+04 -1.96568E+04
  2.84437E+04 -1.30620E+04  3.46351E+04  3.67463E+03  2.48851E+04  2.15984E+04  4.30207E+03  3.85765E+04
 -1.86231E+04  3.18438E+04 -2.88578E+04  1.12552E+04 -2.17219E+04 -1.02096E+04 -4.62336E+03 -1.31211E+04
  1.62558E+03 -2.24834E+03 -6.02602E+03  7.34352E+03 -1.78621E+04  5.26883E+03 -1.78860E+04 -7.84337E+03
 -1.08865E+04 -2.04736E+04  5.58181E+03 -2.48365E+04  1.67168E+04 -1.78965E+04  1.95726E+04 -1.58966E+03
  1.25482E+04  1.41813E+04 -1.16972E+03  2.09412E+04 -1.45916E+04  1.21898E+04 -2.13541E+04 -4.41704E+03
 -1.52281E+04 -1.85197E+04 -1.71079E+03 -2.54547E+04  1.13037E+04 -2.03292E+04  2.05464E+04 -1.05492E+04
  1.97328E+04  5.82320E+01  1.42160E+04  4.86575E+03  7.28266E+03  1.48103E+03  1.06621E+04 -1.58883E+03
  1.96770E+04  2.83588E+03  2.20241E+04  1.65201E+04  1.48499E+04  3.31933E+04 -2.71795E+03  3.83523E+04
 -2.20696E+04  3.06766E+04 -3.60176E+04  1.57429E+04 -3.77827E+04 -2.66691E+03 -3.15417E+04 -2.22333E+04
 -1.31280E+04 -3.15055E+04  1.08833E+04 -2.82662E+04  2.38499E+04 -1.38842E+04  2.15126E+04  6.81214E+03
  7.66686E+03  1.61877E+04 -1.03044E+04  1.37695E+04 -1.80028E+04  2.64387E+03 -1.36180E+04 -1.13252E+04
 -2.43142E+02 -1.68213E+04  8.52973E+03 -1.25179E+04  1.14091E+04 -1.50033E+03  2.76709E+03  7.23004E+03
 -7.61940E+03  3.21074E+03 -6.88105E+03 -5.95855E+03 -7.65745E+02 -1.55995E+04  1.07362E+04 -1.67626E+04
  1.93504E+04 -8.76963E+03  2.13658E+04  2.89589E+03  1.85718E+04  1.55534E+04  8.31167E+03  2.39289E+04
 -4.38179E+03  2.62594E+04 -1.68916E+04  1.61898E+04 -1.85530E+04  3.83174E+03 -1.28719E+04 -4.60062E+03
 -5.81986E+03 -5.90329E+03 -9.26672E+02  9.35507E+02 -2.73505E+03  3.23229E+03 -6.20045E+03  4.72170E+03
 -1.18837E+04 -1.00366E+03 -1.24939E+04 -1.03872E+04 -5.41653E+03 -1.65219E+04  5.30896E+03 -1.34974E+04
  1.09090E+04 -5.72466E+03  7.71678E+03  3.19858E+03 -5.02213E+00  5.52404E+03 -6.44381E+03  1.18730E+02
 -6.37912E+03 -8.20870E+03 -8.27065E+02 -1.24824E+04  7.17402E+03 -1.35817E+04  1.64742E+04 -6.92155E+03
  1.92924E+04  1.92038E+03  1.41184E+04  1.14626E+04  2.33059E+03  1.53928E+04 -8.12217E+03  1.30194E+04
 -1.09889E+04  3.99770E+03 -5.39388E+03 -2.70525E+03  1.70573E+03 -3.57336E+03  6.97014E+03 -1.16825E+03
  6.10447E+03  5.82512E+03  1.07744E+03  1.03166E+04 -7.42170E+03  1.04667E+04 -1.30235E+04  2.39060E+03
 -8.60791E+03 -6.80416E+03  1.19418E+02 -1.11940E+04  6.76969E+03 -5.77036E+03  7.53884E+03  2.32733E+03
  1.55957E+03  7.69532E+03 -6.89366E+03  9.01237E+03 -1.05656E+04  3.95015E+03 -1.04216E+04 -3.64402E+03
 -6.29706E+03 -1.22678E+04  3.04812E+03 -1.39909E+04  1.19778E+04 -8.63855E+03  1.29751E+04  2.46205E+03
  7.98552E+03  1.05423E+04 -9.82139E+02  1.27327E+04 -9.40898E+03  6.97811E+03 -1.04938E+04 -7.96746E+02
 -8.72707E+03 -8.46930E+03 -1.45110E+03 -9.58304E+03  4.93087E+03 -7.97198E+03  6.01328E+03 -3.19506E+03
  4.15927E+03  1.73733E+03 -8.76409E+02  2.02060E+03 -6.44921E+02 -2.35028E+03  2.02489E+03 -5.59292E+03
  8.95491E+03 -3.82674E+03  1.25239E+04  1.77687E+03  1.17328E+04  8.62789E+03  8.41195E+03  1.60387E+04
 -3.71478E+03  1.86839E+04 -1.55157E+04  1.38148E+04 -2.01673E+04  2.70533E+03 -1.60930E+04 -6.73343E+03
 -8.12126E+03 -1.32351E+04 -4.62733E+02 -1.11438E+04  4.10771E+03 -6.03022E+03  3.75400E+03 -4.02804E+03
  2.88275E+03 -2.76454E+03  3.46590E+03 -3.51804E+03  4.87125E+03 -3.24087E+03  6.77953E+03 -6.66146E+02
  8.52796E+03  1.86927E+03  4.36896E+03  7.28529E+03 -2.08174E+03  8.17238E+03 -8.74227E+03  6.58780E+03
 -1.08516E+04 -1.32845E+03 -6.54121E+03 -7.62444E+03 -6.53383E+02 -1.18658E+04  6.75648E+03 -1.19605E+04
  1.24508E+04 -6.52602E+03  1.51492E+04  1.57848E+03  1.03707E+04  1.03636E+04  1.25500E+03  1.33738E+04
 -5.66586E+03  1.14715E+04 -7.67772E+03  4.07542E+03 -5.52403E+03 -1.39693E+03 -1.78648E+03 -1.50087E+03
 -1.50378E+03  1.98972E+02 -1.83433E+03  2.49009E+03 -4.92769E+03  1.69577E+03 -7.95287E+03 -1.33441E+03
 -5.13448E+03 -8.07944E+03  1.91747E+02 -1.10457E+04  6.88838E+03 -1.00310E+04  1.04420E+04 -3.20554E+03
  1.03390E+04  5.36999E+03  4.93863E+03  9.91926E+03 -2.20393E+03  1.10080E+04 -7.70370E+03  6.83292E+03
 -1.05336E+04  3.62224E+02 -8.17262E+03 -6.38402E+03 -9.15065E+02 -9.11186E+03  4.63245E+03 -6.96193E+03
  7.01710E+03 -2.26170E+03  4.85699E+03  1.55652E+03  1.75652E+03  3.54018E+03  1.12320E+03  1.33233E+03
  2.48822E+03  1.09258E+03  2.65651E+03  1.64752E+03  2.97980E+03  4.04648E+03  2.58359E+03  5.67976E+03
 -2.40209E+03  8.64753E+03 -7.53089E+03  8.87802E+03 -1.06695E+04  2.76258E+03 -1.10491E+04 -4.18387E+03
 -5.64846E+03 -1.04088E+04  1.70275E+03 -1.20448E+04  6.27626E+03 -7.57451E+03  8.65470E+03 -2.18823E+03
  6.84426E+03  4.45606E+03  1.85353E+03  6.51952E+03 -2.96649E+03  4.10579E+03 -4.34158E+03 -5.67766E+02
 -1.81281E+03 -4.38776E+03  2.82123E+03 -4.95696E+03  4.71677E+03 -2.48120E+03  4.07168E+03  7.57163E+02
  2.60722E+03  2.20239E+03  1.50047E+03  1.38856E+03 -5.86114E+02  1.69934E+03  1.57401E+03 -2.92340E+02
  1.17354E+03 -5.33658E+02  4.23909E+03  1.78456E+03  2.20551E+03  6.22770E+03 -9.55224E+02  7.34952E+03
 -5.35924E+03  4.50524E+03 -6.74229E+03  1.40649E+03 -6.19519E+03 -2.53564E+03 -2.43399E+03 -4.05790E+03
  9.16627E+02 -4.30901E+03  2.72626E+03 -1.79626E+03  2.37261E+03  2.26615E+03 -9.37277E+02  3.73727E+03
 -4.55961E+03  1.83332E+03 -4.72825E+03 -2.69131E+03 -2.74725E+03 -5.93383E+03  6.00701E+02 -6.13442E+03
  3.39073E+03 -3.47655E+03  4.24627E+03 -1.62764E+02  3.45947E+03  1.46891E+03  9.44528E+02  3.31790E+03
 -2.03121E+03  8.29822E+02 -2.38541E+03 -1.67652E+03  1.22395E+03 -3.97962E+03  5.54321E+03 -3.44892E+03
  6.50036E+03  7.42435E+02  6.70645E+03  4.34839E+03  2.21994E+03  6.39514E+03 -2.79740E+03  6.70646E+03
 -5.61179E+03  2.89343E+03 -5.62008E+03 -1.07005E+03 -3.22337E+03 -4.46583E+03  5.81015E+02 -4.13036E+03
  4.74508E+03 -2.35606E+03  3.55222E+03  1.91918E+03  1.21748E+03  3.63910E+03 -6.55051E+02  3.34276E+03
 -1.95825E+03  2.17089E+03 -2.00102E+03  5.33088E+02 -7.79307E+02  1.03831E+03 -1.40405E+03  1.40913E+03
 -1.33198E+03  2.41587E+03 -4.96412E+03  2.07056E+03 -6.64399E+03 -1.25418E+02 -7.59259E+03 -4.46211E+03
 -4.07305E+03 -8.89543E+03  1.88794E+03 -1.04651E+04  5.91889E+03 -8.28646E+03  9.82379E+03 -2.82246E+03
  9.55283E+03  1.72607E+03  5.73724E+03  6.10255E+03 -8.47590E+01  7.12305E+03 -2.42683E+03  5.42777E+03
 -3.78414E+03  1.98775E+03 -2.17500E+03 -7.94567E+02 -8.87223E+02 -7.84459E+02 -7.81540E+02 -1.97340E+02
 -1.37052E+03 -4.82220E+01 -1.49046E+03 -2.72344E+02 -5.12857E+02 -1.88642E+03  6.20871E+01 -2.54318E+03
  3.48217E+03 -2.26642E+03  4.16326E+03 -9.27502E+01  4.46268E+03  3.80043E+03  8.68270E+02  6.75787E+03
 -3.72090E+03  8.24649E+03 -7.39438E+03  4.80093E+03 -8.26210E+03 -8.01688E+02 -6.14704E+03 -5.38878E+03
 -2.78803E+03 -6.85370E+03  1.81573E+03 -6.06326E+03  4.35459E+03 -3.41040E+03  4.31422E+03  3.43658E+02
  2.70481E+03  2.33155E+03 -1.68928E+02  1.89678E+03 -1.28179E+03 -1.48632E+02 -1.38057E+02 -1.56067E+03
  1.81195E+03 -1.01254E+03  2.36026E+03  8.93377E+02  1.86590E+03  2.50471E+03  4.72254E+02  3.38732E+03
 -2.66522E+03  3.01794E+03 -4.21339E+03  1.57416E+01 -3.92982E+03 -3.37839E+03 -7.25227E+02 -5.72481E+03
  3.31080E+03 -4.60756E+03  5.00422E+03 -1.02567E+03  5.37306E+03  1.02023E+03  2.67933E+03  4.20622E+03
  7.52480E+02  4.07063E+03 -1.77765E+03  3.39453E+03 -2.88856E+03  1.85606E+03 -2.36133E+03  6.84835E+02
 -1.29314E+03  1.32522E+02 -1.88238E+03  7.45645E+02 -2.17785E+03  6.40347E+02 -3.31340E+03 -9.32372E+02
 -3.43518E+03 -2.06271E+03 -8.94442E+02 -4.21571E+03  1.73306E+03 -5.15863E+03  4.01581E+03 -2.07473E+03
  4.35357E+03  2.63913E+02  2.28168E+03  2.98232E+03 -3.26100E+02  4.56913E+03 -3.13831E+03  2.81737E+03
