 $NMID ID='MM_0lb_SNR800_16hz_g55_31.RAW', FMTDAT='(8E13.5)'
 TRAMP=1., VOLUME=1. $END
  3.09881E+05  9.13430E+01  3.37670E+05  2.50489E+05  8.46499E+04  3.37677E+05 -1.32432E+05  2.50923E+05
 -1.90187E+05  8.30532E+04 -1.11997E+05 -3.27923E+04  1.13615E+03 -5.04783E+04  5.36931E+04 -1.11441E+02
  3.53027E+04  5.29032E+04 -1.71032E+04  7.56054E+04 -6.05024E+04  6.39104E+04 -8.34998E+04  3.18218E+04
 -8.11306E+04 -1.12720E+04 -5.72489E+04 -5.11907E+04 -1.50072E+04 -6.93485E+04  2.73025E+04 -4.54879E+04
  3.99377E+04  3.95945E+03  1.60077E+04  4.74559E+04 -3.43692E+04  4.70720E+04 -6.63416E+04 -1.22214E+02
 -5.32192E+04 -5.65719E+04 -6.98135E+03 -7.69792E+04  3.36845E+04 -5.45555E+04  4.77406E+04 -1.71252E+04
  4.32452E+04  1.11089E+04  3.20519E+04  2.56068E+04  1.58881E+04  2.93366E+04 -5.25519E+03  2.71143E+04
 -2.21982E+04  1.26984E+04 -1.88390E+04 -4.57702E+03  5.21264E+03 -7.51015E+03  2.23184E+04  1.18570E+04
  7.30906E+03  3.48353E+04 -3.19913E+04  3.53695E+04 -6.28320E+04  2.15185E+03 -5.65742E+04 -4.24967E+04
 -1.24366E+04 -6.30180E+04  3.93559E+04 -4.47368E+04  5.77549E+04 -2.27498E+03  3.38427E+04  3.20663E+04
 -6.17028E+03  3.54956E+04 -2.99482E+04  1.56395E+04 -2.98422E+04 -4.54188E+03 -1.64470E+04 -1.09162E+04
 -8.25292E+03 -1.29577E+04 -5.26187E+02 -1.75523E+04  7.23480E+03 -2.29486E+04  1.54771E+04 -1.32778E+04
  1.15232E+04  4.85543E+03 -7.53864E+03  1.27871E+04 -2.07827E+04 -3.95305E+03 -8.27785E+03 -3.29613E+04
  2.24088E+04 -4.30166E+04  4.76803E+04 -1.94399E+04  4.44736E+04  1.94251E+04  1.53251E+04  4.34434E+04
 -1.59811E+04  3.29533E+04 -2.48689E+04  1.87902E+03 -9.31864E+03 -2.76695E+04  2.05853E+04 -3.32261E+04
  4.08647E+04 -8.76084E+03  3.48431E+04  2.36312E+04  1.77353E+04  4.57617E+04 -7.82758E+03  4.91866E+04
 -3.09260E+04  3.28529E+04 -4.10217E+04  9.46014E+03 -4.18522E+04 -1.59397E+04 -2.29278E+04 -3.70663E+04
  7.28978E+03 -3.70843E+04  3.09249E+04 -1.42637E+04  2.85607E+04  1.07900E+04  3.83525E+03  1.91115E+04
 -1.33034E+04  8.22319E+03 -1.00247E+04 -7.77548E+03  5.81782E+03 -1.04184E+04  1.79441E+04  5.90553E+03
  1.31783E+04  2.23130E+04 -5.95561E+03  2.46902E+04 -2.22995E+04  1.11451E+04 -2.72044E+04 -5.10788E+03
 -1.99818E+04 -1.70465E+04 -7.92973E+03 -1.99050E+04  4.11589E+03 -1.83165E+04  1.50088E+04 -1.74276E+04
  2.50367E+04 -1.24456E+04  3.18088E+04  2.42421E+03  2.31734E+04  1.92616E+04  4.34748E+03  3.52535E+04
 -1.71714E+04  2.95749E+04 -2.75705E+04  1.00995E+04 -2.06336E+04 -1.03433E+04 -4.24142E+03 -1.33048E+04
  2.20160E+03 -3.25990E+03 -4.31151E+03  6.40710E+03 -1.52875E+04  5.31216E+03 -1.56654E+04 -6.56584E+03
 -9.75941E+03 -1.80283E+04  4.95455E+03 -2.21337E+04  1.45405E+04 -1.59458E+04  1.71626E+04 -1.32628E+03
  1.07226E+04  1.24685E+04 -1.05437E+03  1.80238E+04 -1.25602E+04  1.02750E+04 -1.82555E+04 -4.05587E+03
 -1.31346E+04 -1.62887E+04 -1.81924E+03 -2.17901E+04  1.03754E+04 -1.79747E+04  1.83974E+04 -8.83735E+03
  1.67198E+04  2.46244E+02  1.23814E+04  4.20005E+03  6.22956E+03  8.80501E+02  8.87368E+03 -1.57294E+03
  1.67084E+04  2.72054E+03  1.82776E+04  1.46122E+04  1.18882E+04  2.86864E+04 -3.00982E+03  3.19268E+04
 -1.85888E+04  2.56216E+04 -2.96494E+04  1.30118E+04 -3.09916E+04 -2.11178E+03 -2.58993E+04 -1.80644E+04
 -1.15536E+04 -2.54117E+04  8.78590E+03 -2.32182E+04  1.99864E+04 -1.23632E+04  1.81800E+04  5.02860E+03
  7.01250E+03  1.37033E+04 -8.62278E+03  1.20302E+04 -1.49917E+04  2.71277E+03 -1.19434E+04 -9.23497E+03
 -2.74542E+02 -1.43565E+04  7.61825E+03 -1.09334E+04  9.55627E+03 -1.10038E+03  1.66293E+03  5.78076E+03
 -6.34298E+03  2.09875E+03 -5.13267E+03 -5.01338E+03 -2.06328E+02 -1.24376E+04  8.84023E+03 -1.31324E+04
  1.54977E+04 -6.78797E+03  1.61326E+04  2.97974E+03  1.36585E+04  1.20266E+04  6.62196E+03  1.81655E+04
 -2.89807E+03  1.99291E+04 -1.25801E+04  1.27432E+04 -1.45857E+04  3.17457E+03 -1.06468E+04 -3.33040E+03
 -5.27520E+03 -4.37716E+03 -7.96460E+02  9.06831E+02 -2.47648E+03  2.32815E+03 -4.56782E+03  4.31602E+03
 -9.67949E+03 -4.11294E+02 -1.03493E+04 -8.47201E+03 -4.28883E+03 -1.36521E+04  4.18489E+03 -1.03636E+04
  8.75804E+03 -4.66305E+03  6.22275E+03  2.69337E+03  2.22848E+02  3.88468E+03 -4.91963E+03 -1.19913E+02
 -4.67889E+03 -6.35666E+03 -7.11703E+02 -9.63033E+03  5.21216E+03 -1.00871E+04  1.26910E+04 -5.07940E+03
  1.48620E+04  1.23627E+03  1.12085E+04  8.31892E+03  2.10827E+03  1.15512E+04 -6.30899E+03  1.02232E+04
 -8.61261E+03  3.36022E+03 -4.34516E+03 -1.83255E+03  1.69068E+03 -2.41281E+03  5.82173E+03 -9.48367E+02
  5.05588E+03  4.44651E+03  1.44015E+03  8.00554E+03 -5.71971E+03  7.73334E+03 -9.78504E+03  1.94414E+03
 -6.35845E+03 -4.91591E+03  5.37316E+02 -8.11497E+03  4.95858E+03 -3.97580E+03  4.72174E+03  1.59530E+03
  8.96728E+02  5.21921E+03 -4.99880E+03  6.29116E+03 -6.77292E+03  2.71756E+03 -6.58434E+03 -2.22008E+03
 -4.03572E+03 -8.36747E+03  1.77088E+03 -9.69045E+03  8.44748E+03 -6.25308E+03  8.96732E+03  1.36307E+03
  5.85503E+03  7.27688E+03 -1.92274E+02  9.29557E+03 -6.69308E+03  5.39030E+03 -7.28911E+03 -8.09186E+02
 -6.95916E+03 -6.32875E+03 -1.56943E+03 -6.59548E+03  3.26867E+03 -6.10733E+03  4.12440E+03 -3.04235E+03
  3.45823E+03  5.05018E+02  1.02465E+02  1.71444E+03  3.24421E+02 -9.80328E+02  4.56218E+02 -3.08883E+03
  5.78982E+03 -1.60467E+03  7.64395E+03  9.48172E+02  7.83749E+03  4.77653E+03  6.54195E+03  1.02207E+04
 -1.95596E+03  1.19874E+04 -1.07770E+04  9.06821E+03 -1.34484E+04  1.33268E+03 -1.05951E+04 -4.14262E+03
 -5.61093E+03 -8.45568E+03 -5.36517E+02 -7.37336E+03  2.64785E+03 -3.72114E+03  2.57305E+03 -2.86671E+03
  1.85391E+03 -1.83916E+03  2.48550E+03 -2.52651E+03  3.97486E+03 -1.74062E+03  4.58057E+03  1.82490E+02
  5.63187E+03  1.34549E+03  2.49212E+03  4.55385E+03 -1.58584E+03  4.67846E+03 -5.88198E+03  3.82486E+03
 -7.31623E+03 -1.09204E+03 -3.64878E+03 -5.15202E+03  7.04000E+00 -7.18749E+03  4.29873E+03 -7.36522E+03
  7.48168E+03 -4.46183E+03  9.34756E+03  6.20887E+02  6.64256E+03  6.15397E+03  1.35826E+03  8.07612E+03
 -3.27412E+03  7.53683E+03 -4.99918E+03  2.57859E+03 -2.83564E+03 -1.36299E+03 -1.10811E+03 -9.53525E+02
 -6.00375E+02  4.25502E+02 -1.13287E+03  2.25877E+03 -3.11611E+03  1.35284E+03 -5.05000E+03 -4.75643E+02
 -2.92454E+03 -5.40061E+03  7.64820E+02 -6.71161E+03  3.90709E+03 -5.69412E+03  5.83544E+03 -1.71306E+03
  6.08202E+03  3.48935E+03  2.71463E+03  5.04440E+03 -1.25913E+03  6.68886E+03 -3.91889E+03  3.81729E+03
 -5.66959E+03  7.98253E+02 -4.96148E+03 -3.53816E+03 -4.76116E+02 -4.86580E+03  2.26685E+03 -3.74845E+03
  3.89503E+03 -1.59972E+03  2.68253E+03  8.98052E+02  7.53012E+02  1.92528E+03  7.54589E+02  9.94864E+02
  2.04247E+03  5.86795E+02  1.75751E+03  1.21124E+03  1.87515E+03  2.77159E+03  1.60343E+03  2.80093E+03
 -1.39902E+03  4.76567E+03 -3.88876E+03  5.34734E+03 -5.12113E+03  1.80474E+03 -6.10686E+03 -1.40979E+03
 -3.10656E+03 -5.86488E+03  9.03045E+02 -6.72031E+03  2.94944E+03 -3.82362E+03  4.64017E+03 -1.71512E+03
  3.81625E+03  2.43003E+03  7.99567E+02  3.35773E+03 -1.34429E+03  1.98502E+03 -1.79497E+03 -1.58057E+02
 -1.10330E+03 -2.66082E+03  1.74757E+03 -2.16254E+03  2.29044E+03 -1.55183E+03  2.22856E+03  5.41811E+02
  1.04077E+03  6.87955E+02  8.49094E+02  2.31010E+02 -4.70530E+02  9.64228E+02  1.94996E+03 -2.72883E+02
  2.45913E+02 -4.43691E+02  2.58710E+03  9.02247E+02  8.12750E+02  3.43034E+03 -5.88507E+02  4.30664E+03
 -2.37295E+03  1.97354E+03 -3.45141E+03  5.04940E+02 -3.22574E+03 -1.10932E+03 -7.02743E+02 -2.08216E+03
  4.02348E+02 -2.08475E+03  1.59020E+03 -1.05800E+03  1.07784E+03  1.27395E+03 -6.00409E+02  1.94982E+03
 -2.10088E+03  8.08268E+02 -1.81109E+03 -1.58446E+03 -1.05394E+03 -3.13243E+03  1.41012E+02 -2.48372E+03
  1.23295E+03 -1.10794E+03  1.61343E+03  5.09008E+01  2.20959E+03  2.88342E+02  4.60846E+02  1.81987E+03
 -9.46962E+02  3.39325E+02 -1.57069E+03 -9.42381E+02  9.40027E+02 -1.52531E+03  2.52177E+03 -1.40025E+03
  2.59132E+03  3.10781E+02  3.64610E+03  1.52531E+03  1.52896E+03  2.84143E+03 -9.15010E+02  2.99747E+03
 -2.41951E+03  1.11782E+03 -2.57350E+03 -1.84498E+02 -1.59319E+03 -2.07130E+03  6.73138E+02 -1.32962E+03
  2.16098E+03 -1.05918E+03  1.36861E+03  9.26404E+02  4.98072E+02  1.77276E+03  8.34832E+01  1.47482E+03
 -8.31124E+02  1.39473E+03 -6.26305E+02  1.94934E+02 -1.52208E+02  1.14791E+02 -1.10350E+03  8.34617E+02
 -8.46232E+02  1.36680E+03 -2.84648E+03  9.18851E+02 -2.56712E+03  7.65854E+01 -3.73452E+03 -1.42731E+03
 -1.46042E+03 -3.90284E+03  7.94568E+02 -4.35952E+03  2.49210E+03 -3.74850E+03  4.44806E+03 -1.82395E+03
  3.53256E+03  3.10114E+02  2.06764E+03  2.84761E+03 -2.56465E+02  2.67406E+03 -1.15956E+03  1.87784E+03
 -1.33170E+03  9.50741E+02 -8.07016E+02 -6.64776E+02 -4.37158E+02 -4.28472E+01 -3.32202E+02  2.47142E+02
 -9.94184E+02 -4.52774E+01 -1.08873E+03  1.33546E+02  2.87514E+02 -8.07270E+02 -3.95677E+02 -1.29993E+03
  1.77281E+03 -9.18906E+02  1.18434E+03  2.67590E+02  1.91413E+03  1.68697E+03 -2.22772E+01  2.48194E+03
 -1.21672E+03  3.64454E+03 -3.01643E+03  1.79156E+03 -3.03275E+03 -1.82862E+02 -2.11411E+03 -1.81062E+03
 -1.37337E+03 -2.50159E+03  5.78313E+02 -2.50608E+03  1.38206E+03 -1.07986E+03  1.55897E+03  2.81239E+01
  1.05186E+03  6.62211E+02 -1.39750E+02  8.93342E+02 -5.90148E+02 -2.14942E+02  6.08294E+01 -3.94043E+02
  5.84707E+02 -1.49297E+02  7.14438E+02  4.17810E+02  4.64965E+02  7.86276E+02  2.11045E+02  6.05998E+02
 -1.12393E+03  1.11342E+03 -1.10009E+03  6.26624E+01 -1.39175E+03 -9.02590E+02 -4.57340E+01 -2.13428E+03
  8.83799E+02 -1.39028E+03  1.34381E+03 -3.44557E+02  1.66415E+03 -2.54262E+02  8.66114E+02  1.20593E+03
  3.07817E+02  1.30881E+03 -5.49725E+02  1.19528E+03 -9.04482E+02  6.04702E+02 -9.17093E+02  3.58720E+02
 -2.90336E+02  1.28488E+02 -6.80470E+02  2.38503E+02 -1.09683E+03  1.42186E+02 -1.47604E+03 -5.31975E+02
 -1.46193E+03  1.37905E+02 -1.48051E+02 -1.48942E+03  1.25326E+03 -2.16329E+03  1.34989E+03 -4.11753E+02
  1.47656E+03  8.70927E+01 -1.44304E+02  6.10690E+02 -3.30582E+02  1.47960E+03 -1.08051E+03  1.36675E+03
