 $NMID ID='MM_0lb_SNR800_20hz_g45_53.RAW', FMTDAT='(8E13.5)'
 TRAMP=1., VOLUME=1. $END
  3.09868E+05  4.76867E+02  3.37087E+05  2.50168E+05  8.44581E+04  3.37099E+05 -1.32355E+05  2.50000E+05
 -1.89358E+05  8.21615E+04 -1.10644E+05 -3.26099E+04  1.93129E+03 -5.00792E+04  5.40893E+04  2.91335E+02
  3.49618E+04  5.25266E+04 -1.71916E+04  7.46244E+04 -5.99794E+04  6.26436E+04 -8.26542E+04  3.14553E+04
 -7.91060E+04 -1.10520E+04 -5.60031E+04 -4.95992E+04 -1.48869E+04 -6.79087E+04  2.66290E+04 -4.43043E+04
  3.86948E+04  3.79800E+03  1.54820E+04  4.66289E+04 -3.39311E+04  4.57375E+04 -6.48764E+04 -6.38429E+02
 -5.13864E+04 -5.56925E+04 -5.88590E+03 -7.44031E+04  3.29783E+04 -5.27314E+04  4.55779E+04 -1.58575E+04
  4.11524E+04  1.09535E+04  3.03863E+04  2.40467E+04  1.57964E+04  2.77874E+04 -4.31401E+03  2.66270E+04
 -2.16413E+04  1.29968E+04 -1.91715E+04 -3.85418E+03  3.71478E+03 -7.56467E+03  2.10614E+04  1.03897E+04
  7.47912E+03  3.23347E+04 -2.99510E+04  3.37448E+04 -6.03425E+04  2.08968E+03 -5.49372E+04 -4.06761E+04
 -1.23468E+04 -5.97290E+04  3.72842E+04 -4.26055E+04  5.46341E+04 -1.75046E+03  3.11416E+04  3.02981E+04
 -6.69642E+03  3.21459E+04 -2.77255E+04  1.23268E+04 -2.66668E+04 -5.73080E+03 -1.35988E+04 -9.89906E+03
 -7.14337E+03 -1.07619E+04 -9.09246E+02 -1.60347E+04  6.37210E+03 -2.23312E+04  1.49462E+04 -1.39535E+04
  1.25526E+04  4.05255E+03 -5.21428E+03  1.31098E+04 -1.87350E+04 -1.70785E+03 -7.88865E+03 -2.93497E+04
  2.03242E+04 -3.94240E+04  4.34806E+04 -1.83836E+04  4.08563E+04  1.78677E+04  1.39711E+04  4.06457E+04
 -1.51846E+04  3.00275E+04 -2.27876E+04  6.67358E+02 -7.42057E+03 -2.59214E+04  2.03088E+04 -3.04407E+04
  3.71398E+04 -6.81439E+03  3.01540E+04  2.22135E+04  1.45562E+04  4.12373E+04 -7.41882E+03  4.36003E+04
 -2.73214E+04  2.85619E+04 -3.57664E+04  7.72987E+03 -3.67848E+04 -1.45566E+04 -2.07061E+04 -3.30185E+04
  6.77795E+03 -3.26131E+04  2.83465E+04 -1.20719E+04  2.61321E+04  1.06719E+04  2.72594E+03  1.71757E+04
 -1.26459E+04  6.90995E+03 -9.42894E+03 -7.70899E+03  5.88868E+03 -9.90449E+03  1.71349E+04  6.67426E+03
  1.20060E+04  2.13824E+04 -6.76021E+03  2.27636E+04 -2.10307E+04  8.45500E+03 -2.39956E+04 -6.77743E+03
 -1.53993E+04 -1.60357E+04 -4.82244E+03 -1.59050E+04  3.41628E+03 -1.27974E+04  1.13691E+04 -1.31889E+04
  1.97804E+04 -1.14545E+04  2.65292E+04  5.65002E+02  2.03657E+04  1.49576E+04  4.15214E+03  3.11797E+04
 -1.55979E+04  2.64326E+04 -2.51207E+04  9.08737E+03 -1.92462E+04 -1.02398E+04 -3.94821E+03 -1.39437E+04
  2.80421E+03 -4.86184E+03 -2.10098E+03  4.95336E+03 -1.16311E+04  5.27022E+03 -1.22688E+04 -4.28059E+03
 -8.17408E+03 -1.43898E+04  4.21356E+03 -1.84057E+04  1.16575E+04 -1.32598E+04  1.34137E+04 -1.32154E+03
  8.23754E+03  9.94493E+03 -6.98263E+02  1.44944E+04 -9.49351E+03  8.26576E+03 -1.43898E+04 -3.29527E+03
 -1.07031E+04 -1.31003E+04 -1.25050E+03 -1.78830E+04  8.04406E+03 -1.40137E+04  1.51822E+04 -6.76868E+03
  1.34542E+04  7.12160E+02  9.67335E+03  3.34329E+03  4.72139E+03  3.47513E+02  6.85551E+03 -1.31546E+03
  1.27268E+04  2.70381E+03  1.33839E+04  1.20585E+04  8.18830E+03  2.29858E+04 -3.18652E+03  2.42203E+04
 -1.46218E+04  1.81947E+04 -2.21335E+04  8.37776E+03 -2.23148E+04 -1.59408E+03 -1.92391E+04 -1.25627E+04
 -9.59247E+03 -1.80785E+04  5.87403E+03 -1.71135E+04  1.50879E+04 -1.04247E+04  1.47705E+04  3.28467E+03
  6.20267E+03  1.03233E+04 -6.39181E+03  9.61082E+03 -1.23542E+04  2.64155E+03 -9.69526E+03 -7.47891E+03
 -2.11106E+02 -1.14306E+04  5.73568E+03 -8.94465E+03  7.00427E+03 -1.60067E+03  1.11494E+03  4.41793E+03
 -5.34933E+03  9.49501E+02 -3.15371E+03 -4.37448E+03  1.01610E+03 -9.10819E+03  7.20286E+03 -8.62698E+03
  1.09971E+04 -3.85620E+03  1.00824E+04  2.88360E+03  8.64416E+03  8.50097E+03  4.12505E+03  1.20729E+04
 -1.36089E+03  1.40353E+04 -8.42860E+03  8.79188E+03 -9.62582E+03  2.87610E+03 -7.55786E+03 -1.34856E+03
 -4.25778E+03 -2.91845E+03 -9.66401E+02  1.58621E+03 -1.77895E+03  1.80583E+03 -3.21465E+03  3.42877E+03
 -7.47580E+03 -4.32371E+02 -8.24414E+03 -6.69230E+03 -3.29934E+03 -1.04779E+04  3.21157E+03 -7.56414E+03
  6.53540E+03 -3.45254E+03  4.90272E+03  1.86356E+03  6.04236E+02  2.85126E+03 -2.61320E+03 -2.51636E+01
 -2.94650E+03 -4.76325E+03 -9.55950E+02 -6.18893E+03  3.04611E+03 -6.80626E+03  8.69664E+03 -3.41726E+03
  1.03541E+04  2.75709E+02  7.59630E+03  5.40832E+03  1.46932E+03  7.52748E+03 -4.75549E+03  7.56070E+03
 -6.12276E+03  2.38233E+03 -3.41385E+03 -1.15060E+03  1.09676E+03 -1.47952E+03  4.14474E+03 -1.03255E+03
  3.78270E+03  2.91834E+03  1.05136E+03  5.31695E+03 -3.88703E+03  5.83113E+03 -7.24571E+03  1.69078E+03
 -4.18190E+03 -2.88296E+03  3.10512E+02 -5.67090E+03  3.33612E+03 -2.79600E+03  2.91533E+03  6.08276E+02
  2.42788E+02  2.48669E+03 -3.64288E+03  3.89491E+03 -3.79256E+03  2.00517E+03 -3.43469E+03 -5.43929E+02
 -2.49711E+03 -4.91185E+03  9.37829E+02 -5.91452E+03  4.95071E+03 -3.99673E+03  5.44555E+03  6.78230E+02
  4.17217E+03  4.34146E+03  3.42097E+02  6.28180E+03 -4.53339E+03  3.76301E+03 -4.56197E+03 -4.94873E+02
 -5.20165E+03 -4.59031E+03 -1.50935E+03 -4.42540E+03  1.98032E+03 -4.30066E+03  2.17826E+03 -2.91331E+03
  2.69776E+03 -8.69915E+01  1.87852E+02  1.20104E+03  4.75425E+02 -3.76851E+01 -2.58479E+00 -1.21343E+03
  3.05735E+03 -4.76057E+02  4.09679E+03  3.88467E+02  4.61319E+03  2.27357E+03  4.75671E+03  5.95441E+03
 -8.71802E+02  6.84914E+03 -6.51206E+03  5.30622E+03 -8.27140E+03  1.20276E+03 -6.54700E+03 -1.87991E+03
 -3.51737E+03 -5.45440E+03 -3.46020E+02 -4.09414E+03  1.56326E+03 -1.62074E+03  1.29785E+03 -1.78528E+03
  9.60943E+02 -1.28800E+03  2.07993E+03 -2.18204E+03  3.06981E+03 -1.09824E+03  2.93994E+03  5.66160E+02
  4.11353E+03  9.57273E+02  6.63055E+02  2.62927E+03 -1.57998E+03  2.18503E+03 -3.77057E+03  2.08774E+03
 -3.85143E+03 -9.02155E+02 -8.64067E+02 -2.86051E+03  4.21592E+02 -3.74668E+03  2.50849E+03 -4.39580E+03
  4.25993E+03 -2.47023E+03  5.28509E+03 -9.33143E+01  4.22377E+03  3.40921E+03  1.39623E+03  4.83983E+03
 -1.64653E+03  5.19689E+03 -2.42547E+03  1.57377E+03 -1.50396E+03 -1.00796E+03 -4.74840E+02 -4.47278E+02
 -3.58171E+02  3.41324E+02 -9.06667E+02  1.98672E+03 -2.23887E+03  9.83148E+02 -3.72157E+03 -4.98639E+01
 -1.05479E+03 -3.49985E+03  8.03615E+02 -3.62632E+03  2.24955E+03 -3.50268E+03  2.77487E+03 -9.75942E+02
  3.27801E+03  1.96524E+03  1.36280E+03  2.58722E+03 -9.07667E+02  3.57443E+03 -1.88158E+03  1.86052E+03
 -2.95098E+03  6.84392E+02 -2.67020E+03 -1.64530E+03 -2.68806E+02 -2.36000E+03  1.40165E+03 -1.95687E+03
  1.86672E+03 -9.72412E+02  1.17928E+03  1.18364E+02  6.26032E+01  1.54452E+03  8.17803E+02  7.32023E+02
  1.35803E+03  5.17685E+02  9.34233E+02  8.09161E+02  8.95256E+02  1.88605E+03  1.19864E+03  1.36120E+03
 -8.03099E+02  2.61115E+03 -1.96501E+03  3.38582E+03 -2.10195E+03  1.09713E+03 -3.19051E+03 -7.45257E+01
 -1.14333E+03 -2.91751E+03  3.09915E+02 -3.46417E+03  1.10957E+03 -2.06992E+03  2.49137E+03 -9.71013E+02
  2.22988E+03  1.76298E+03  3.60627E+02  1.99678E+03 -3.74484E+02  8.52787E+02 -7.69867E+02 -1.60158E+02
 -1.55959E+02 -1.03393E+03  9.64057E+02 -1.31278E+03  7.12590E+02 -1.04544E+03  1.16227E+03  4.03540E+02
  5.89721E+02 -2.34867E+01  8.24321E+02 -7.07437E+02 -3.72391E+02  6.15967E+02  1.72400E+03 -3.34862E+02
 -2.97946E+02 -2.19054E+02  1.60860E+03  3.82245E+02 -8.31166E+01  1.98546E+03 -1.86167E+02  2.57784E+03
 -1.13153E+03  6.64118E+02 -1.69911E+03  3.32431E+02 -1.61294E+03 -5.68602E+02  1.40614E+02 -6.23221E+02
  5.01825E+02 -8.11996E+02  5.62457E+02 -5.05932E+02  2.72562E+02  1.24154E+03 -6.86682E+02  8.14324E+02
 -1.07734E+03  8.71710E+02 -6.48258E+02 -1.13282E+03 -3.48391E+02 -1.56283E+03  7.45431E+01 -1.02913E+03
  1.16663E+01 -4.87638E+02  3.46723E+02  3.54403E+02  1.03192E+03 -3.70273E+02  1.81595E+02  8.21159E+02
 -2.91630E+02 -4.16117E+01 -7.97976E+02 -2.15468E+02  5.40590E+02 -4.52259E+02  1.05253E+03 -6.30812E+02
  6.13254E+02  9.53998E+01  2.39159E+03  2.54789E+02  1.05734E+03  1.19467E+03 -1.15022E+02  1.27808E+03
 -1.18946E+03 -7.63849E+01 -8.44031E+02 -1.07096E+02 -5.76730E+02 -1.07886E+03  3.76000E+02 -4.60894E+02
  1.20792E+03 -5.74357E+02  5.45837E+02  4.97953E+02 -7.70108E+01  1.09608E+03  4.03080E+02  9.58437E+02
 -2.92904E+02  6.73905E+02 -1.66459E+02  3.04493E+02 -2.00106E+01  3.47543E+02 -4.65251E+02  3.27051E+02
 -5.58076E+02  7.23401E+02 -1.63215E+03  9.35986E+01 -1.09958E+03  7.98371E+01 -1.75152E+03 -6.41396E+02
 -8.16762E+02 -1.57412E+03  3.31337E+02 -2.14326E+03  6.67784E+02 -2.22914E+03  1.99323E+03 -9.41732E+02
  1.71118E+03 -1.94444E+02  9.11014E+02  9.81983E+02 -5.91093E+02  9.68448E+02 -9.51524E+02  7.64867E+02
 -6.46670E+02  6.43392E+02 -4.41938E+02 -4.57727E+01 -5.00381E+02  4.95279E+02 -7.35970E+02  1.93965E+02
 -1.08726E+03 -2.29412E+02 -7.89800E+02  1.08336E+02  3.44050E+02 -6.03126E+02 -2.25823E+02 -4.75281E+02
  7.40611E+02 -3.69262E+02 -6.08997E+01  7.16898E+01  7.09598E+02  4.37045E+02 -6.54098E+02  8.09170E+02
 -6.85443E+02  1.72103E+03 -1.23837E+03  9.06154E+02 -1.09590E+03 -1.98045E+02 -8.20696E+02 -9.43198E+02
 -7.77933E+02 -1.27491E+03 -1.92379E+01 -9.91744E+02  3.95676E+02 -3.10197E+02  2.06024E+02  6.70516E+01
  4.76595E+02  2.33541E+02  3.46733E+02  1.19335E+02 -4.61374E+02  1.77617E+02  8.25083E+01 -9.75228E+01
  7.19427E+02  3.71108E+02  8.70800E+01  3.65366E+02 -9.41477E+01  1.94959E+02  5.11313E+02 -7.25601E+01
 -4.46171E+02  3.26562E+02 -2.35124E+02  1.94468E+01 -5.76008E+02 -2.65791E+02  3.02455E+02 -9.43905E+02
  4.13427E+02 -3.53984E+02  7.25756E+01  2.66418E+02  8.25950E+02 -5.73043E+02  3.72828E+02  6.62217E+02
  3.90145E+02  3.09631E+02 -1.31543E+02  5.83145E+02 -1.06133E+02  4.99084E+02 -2.42104E+01  1.69781E+02
  2.15219E+02  1.59072E+01 -1.96391E+02  2.95467E+02 -2.66554E+02  2.82934E+02 -3.85668E+02 -1.41875E+02
 -9.20362E+02  3.56201E+02 -5.97102E+01 -5.52921E+02  4.50412E+02 -1.41871E+03  5.87172E+02 -2.10376E+02
  3.81545E+02  1.92425E+01 -7.12094E+02 -2.71721E+02 -1.64663E+02  7.88264E+02  8.65561E+01  4.14728E+02
