 $NMID ID='MM_0lb_SNR800_14hz_g55_53.RAW', FMTDAT='(8E13.5)'
 TRAMP=1., VOLUME=1. $END
  3.09726E+05  8.68806E+01  3.37681E+05  2.50756E+05  8.47069E+04  3.38044E+05 -1.32884E+05  2.51039E+05
 -1.90323E+05  8.33710E+04 -1.12095E+05 -3.30553E+04  8.51763E+02 -5.04142E+04  5.37421E+04 -4.36240E+01
  3.54842E+04  5.27834E+04 -1.68009E+04  7.55595E+04 -6.09778E+04  6.36252E+04 -8.42192E+04  3.21285E+04
 -8.13374E+04 -1.15047E+04 -5.72562E+04 -5.17806E+04 -1.51752E+04 -6.99403E+04  2.76187E+04 -4.62603E+04
  4.04521E+04  3.77082E+03  1.59877E+04  4.77715E+04 -3.44239E+04  4.74522E+04 -6.73159E+04 -3.74224E+02
 -5.36534E+04 -5.69254E+04 -6.71661E+03 -7.75276E+04  3.41707E+04 -5.52412E+04  4.84349E+04 -1.74846E+04
  4.38106E+04  1.12112E+04  3.20856E+04  2.57531E+04  1.61117E+04  2.94530E+04 -5.45448E+03  2.74704E+04
 -2.22987E+04  1.20833E+04 -1.87092E+04 -5.00107E+03  5.71177E+03 -7.44268E+03  2.23347E+04  1.26069E+04
  7.06466E+03  3.59408E+04 -3.25331E+04  3.55766E+04 -6.37797E+04  2.03623E+03 -5.74699E+04 -4.33120E+04
 -1.25958E+04 -6.35854E+04  4.00117E+04 -4.53878E+04  5.89504E+04 -2.01903E+03  3.50613E+04  3.32670E+04
 -6.10087E+03  3.66425E+04 -3.05238E+04  1.67640E+04 -3.07149E+04 -4.53769E+03 -1.70381E+04 -1.08965E+04
 -8.32971E+03 -1.37578E+04 -6.43138E+02 -1.85203E+04  7.96164E+03 -2.32223E+04  1.57330E+04 -1.31462E+04
  1.12350E+04  5.47987E+03 -8.53185E+03  1.30833E+04 -2.16760E+04 -4.84753E+03 -8.64896E+03 -3.44319E+04
  2.33404E+04 -4.39715E+04  4.87201E+04 -2.00586E+04  4.56200E+04  1.95058E+04  1.59943E+04  4.48376E+04
 -1.58580E+04  3.38779E+04 -2.56984E+04  2.05545E+03 -1.01320E+04 -2.84558E+04  2.10207E+04 -3.42109E+04
  4.21155E+04 -9.06572E+03  3.62069E+04  2.38563E+04  1.87255E+04  4.74637E+04 -8.22469E+03  5.16142E+04
 -3.22505E+04  3.44784E+04 -4.28174E+04  1.00927E+04 -4.33028E+04 -1.75941E+04 -2.38033E+04 -3.83907E+04
  7.61098E+03 -3.83748E+04  3.19440E+04 -1.51882E+04  2.95990E+04  1.10327E+04  3.94889E+03  1.93270E+04
 -1.34856E+04  8.57601E+03 -1.04611E+04 -7.64197E+03  5.91293E+03 -1.08573E+04  1.79548E+04  5.89117E+03
  1.32380E+04  2.24385E+04 -5.90463E+03  2.53725E+04 -2.28489E+04  1.19539E+04 -2.85382E+04 -4.61550E+03
 -2.13183E+04 -1.77383E+04 -8.98951E+03 -2.11799E+04  4.30096E+03 -2.04645E+04  1.64165E+04 -1.89410E+04
  2.69161E+04 -1.30033E+04  3.35114E+04  3.00169E+03  2.44984E+04  2.08659E+04  4.37738E+03  3.71677E+04
 -1.80558E+04  3.09395E+04 -2.82638E+04  1.06435E+04 -2.09227E+04 -1.01174E+04 -4.51836E+03 -1.33708E+04
  1.67926E+03 -2.76451E+03 -5.46048E+03  6.77740E+03 -1.67079E+04  5.51520E+03 -1.70061E+04 -7.10306E+03
 -1.02632E+04 -1.94256E+04  5.34028E+03 -2.36547E+04  1.58815E+04 -1.70895E+04  1.88543E+04 -1.70551E+03
  1.18691E+04  1.37614E+04 -1.02543E+03  1.94477E+04 -1.36310E+04  1.08673E+04 -2.01767E+04 -4.42957E+03
 -1.44329E+04 -1.78108E+04 -2.07144E+03 -2.36993E+04  1.11826E+04 -1.96474E+04  1.98293E+04 -9.47804E+03
  1.82646E+04  2.09572E+02  1.31157E+04  4.50882E+03  7.12066E+03  6.99389E+02  9.83848E+03 -1.57827E+03
  1.77498E+04  2.75694E+03  1.99414E+04  1.56512E+04  1.33788E+04  3.10486E+04 -2.89283E+03  3.57676E+04
 -2.04396E+04  2.83922E+04 -3.33231E+04  1.45071E+04 -3.51937E+04 -2.45879E+03 -2.88389E+04 -2.01380E+04
 -1.18952E+04 -2.85993E+04  1.02607E+04 -2.57685E+04  2.21150E+04 -1.32573E+04  1.99305E+04  5.80166E+03
  7.43147E+03  1.50364E+04 -9.36941E+03  1.29378E+04 -1.65625E+04  2.49619E+03 -1.28278E+04 -1.03418E+04
 -3.74859E+02 -1.61138E+04  8.05110E+03 -1.20607E+04  1.04577E+04 -1.78662E+03  2.44179E+03  6.99070E+03
 -7.05074E+03  2.78274E+03 -6.27656E+03 -5.63641E+03 -7.65111E+02 -1.42589E+04  9.88920E+03 -1.47467E+04
  1.74508E+04 -7.56099E+03  1.86572E+04  2.99912E+03  1.65271E+04  1.43523E+04  7.78909E+03  2.13845E+04
 -3.38733E+03  2.34454E+04 -1.51337E+04  1.43917E+04 -1.66541E+04  3.64166E+03 -1.15154E+04 -3.69003E+03
 -5.39689E+03 -5.38400E+03 -6.75032E+02  8.94508E+02 -2.41864E+03  2.65561E+03 -5.55435E+03  4.40482E+03
 -1.10490E+04 -9.55883E+02 -1.17419E+04 -9.32223E+03 -4.93863E+03 -1.51799E+04  5.15180E+03 -1.18133E+04
  1.00585E+04 -4.97111E+03  6.64322E+03  3.20532E+03  1.39162E+02  4.53961E+03 -5.51498E+03 -1.36998E+01
 -5.32204E+03 -7.36017E+03 -8.33095E+02 -1.11860E+04  6.22869E+03 -1.17741E+04  1.46249E+04 -6.20335E+03
  1.74129E+04  1.20538E+03  1.23543E+04  9.80848E+03  2.44131E+03  1.34192E+04 -7.17795E+03  1.16817E+04
 -9.41061E+03  4.05108E+03 -4.81132E+03 -2.32668E+03  1.66563E+03 -2.98684E+03  6.64690E+03 -8.83255E+02
  5.61740E+03  4.95108E+03  9.48728E+02  9.43576E+03 -6.70198E+03  8.88028E+03 -1.12309E+04  2.10037E+03
 -7.15629E+03 -5.67468E+03  2.14040E+02 -9.91431E+03  5.98318E+03 -5.17415E+03  6.00177E+03  2.14935E+03
  1.20704E+03  6.41396E+03 -6.13571E+03  7.50863E+03 -8.93797E+03  3.69740E+03 -8.55838E+03 -2.93727E+03
 -5.19030E+03 -1.05888E+04  2.45145E+03 -1.18031E+04  1.02762E+04 -7.37059E+03  1.10850E+04  2.15868E+03
  6.77432E+03  8.82374E+03 -5.37133E+02  1.10727E+04 -7.85715E+03  6.25515E+03 -8.29237E+03 -9.07625E+02
 -8.08534E+03 -7.16636E+03 -1.38221E+03 -8.16582E+03  4.20904E+03 -7.05756E+03  4.88410E+03 -3.16459E+03
  3.72537E+03  1.12246E+03 -5.19349E+02  1.48971E+03 -8.28673E+01 -1.37803E+03  1.40994E+03 -4.09659E+03
  7.12130E+03 -2.48622E+03  9.93934E+03  1.57733E+03  1.01042E+04  6.31971E+03  7.27657E+03  1.30148E+04
 -2.52978E+03  1.52714E+04 -1.27832E+04  1.10254E+04 -1.64396E+04  2.04634E+03 -1.31801E+04 -5.07615E+03
 -6.60578E+03 -1.06345E+04 -5.30837E+02 -8.58082E+03  3.39182E+03 -4.52985E+03  3.22794E+03 -3.21053E+03
  2.20324E+03 -2.37420E+03  2.73711E+03 -2.82416E+03  4.65315E+03 -2.30310E+03  5.25392E+03 -4.38959E+02
  7.08353E+03  1.76125E+03  3.00103E+03  5.85953E+03 -1.66388E+03  6.27640E+03 -7.41225E+03  5.01712E+03
 -8.49155E+03 -7.36963E+02 -5.01596E+03 -6.26664E+03 -1.88446E+02 -9.30116E+03  5.31698E+03 -9.07552E+03
  9.31094E+03 -5.48168E+03  1.18795E+04  1.40329E+03  8.44695E+03  7.79274E+03  1.41942E+03  1.05620E+04
 -4.47732E+03  9.43849E+03 -6.21501E+03  2.75152E+03 -4.05379E+03 -1.48614E+03 -1.55352E+03 -1.31481E+03
 -5.11976E+02 -1.74888E+02 -1.50340E+03  2.24683E+03 -3.96665E+03  1.37078E+03 -6.16031E+03 -7.64247E+02
 -3.79448E+03 -6.43276E+03  6.04168E+02 -8.29215E+03  5.03314E+03 -8.04054E+03  7.72829E+03 -2.53905E+03
  8.24018E+03  4.08520E+03  3.64623E+03  7.00921E+03 -1.54188E+03  8.44377E+03 -5.80853E+03  5.51980E+03
 -7.50386E+03  4.33992E+02 -6.16900E+03 -4.77486E+03 -8.95250E+02 -6.86498E+03  3.61909E+03 -4.97578E+03
  5.13825E+03 -1.60972E+03  3.47273E+03  1.39424E+03  1.27436E+03  2.52112E+03  1.41350E+03  1.09624E+03
  2.36274E+03  7.00606E+02  2.28808E+03  1.48375E+03  2.17507E+03  3.35138E+03  2.47163E+03  4.06513E+03
 -2.17869E+03  6.27506E+03 -5.38023E+03  6.71590E+03 -7.36016E+03  1.60680E+03 -8.29172E+03 -2.56408E+03
 -4.02353E+03 -8.06213E+03  1.48413E+03 -8.98281E+03  4.62480E+03 -5.61697E+03  6.70143E+03 -1.57263E+03
  4.94333E+03  2.95673E+03  7.06582E+02  4.39251E+03 -1.99987E+03  3.02761E+03 -2.92246E+03 -3.02601E+02
 -1.60637E+03 -3.39162E+03  2.05528E+03 -3.56859E+03  3.15782E+03 -1.59054E+03  3.04038E+03  7.11499E+02
  1.81299E+03  1.08649E+03  1.12408E+03  9.63969E+02 -4.97962E+02  1.13735E+03  1.51798E+03 -4.14075E+02
  8.45720E+02 -5.58991E+02  3.41440E+03  1.41197E+03  1.21150E+03  4.16661E+03 -5.45704E+02  5.40291E+03
 -3.58356E+03  3.11195E+03 -4.58060E+03  8.40601E+02 -4.19426E+03 -1.79497E+03 -9.84100E+02 -2.40234E+03
  8.88383E+02 -3.02750E+03  1.87961E+03 -9.99783E+02  1.57538E+03  1.85410E+03 -8.85011E+02  2.26451E+03
 -3.12490E+03  1.41906E+03 -3.21517E+03 -2.14865E+03 -1.61760E+03 -4.22876E+03  6.54153E+02 -3.91274E+03
  1.64865E+03 -2.22664E+03  2.56354E+03 -2.28860E+02  2.65797E+03  6.59236E+02  7.00063E+02  2.27273E+03
 -1.07347E+03  7.20953E+02 -2.05106E+03 -1.04828E+03  9.48055E+02 -2.62616E+03  3.74594E+03 -2.10933E+03
  4.15151E+03  1.83388E+02  4.76207E+03  2.53086E+03  2.00937E+03  4.22593E+03 -1.40454E+03  4.51243E+03
 -3.37302E+03  1.16790E+03 -3.87814E+03 -7.41303E+02 -2.15583E+03 -3.07348E+03  4.77108E+02 -2.33885E+03
  2.64124E+03 -1.54704E+03  2.35697E+03  1.48829E+03  5.18123E+02  2.59507E+03 -2.47980E+02  2.19633E+03
 -1.10471E+03  1.52228E+03 -1.34898E+03  3.55049E+02 -6.13102E+02  4.61114E+02 -8.11856E+02  1.25100E+03
 -1.50079E+03  1.96372E+03 -3.34719E+03  9.23665E+02 -4.16821E+03  2.19605E+02 -5.09154E+03 -2.88922E+03
 -2.43504E+03 -5.88309E+03  1.04923E+03 -6.62301E+03  3.43959E+03 -5.31449E+03  6.63824E+03 -1.98030E+03
  5.73717E+03  8.52307E+02  3.24958E+03  3.91504E+03 -2.06576E+01  4.00916E+03 -1.59032E+03  3.31329E+03
 -2.14213E+03  1.00295E+03 -1.54745E+03 -5.04069E+02 -7.14585E+02 -8.51255E+01 -7.09029E+02  1.19467E+02
 -1.28511E+03 -1.01910E+02 -1.11464E+03 -2.19064E+02 -2.16809E+02 -1.28552E+03  3.79402E+01 -1.86269E+03
  2.21814E+03 -1.52601E+03  2.32052E+03  2.84777E+02  2.74922E+03  2.31628E+03  2.36586E+02  3.90761E+03
 -2.04504E+03  5.08838E+03 -4.27764E+03  2.78141E+03 -4.83199E+03 -3.62971E+02 -3.54037E+03 -3.21732E+03
 -1.94307E+03 -4.39140E+03  8.78593E+02 -3.82564E+03  1.94863E+03 -1.96360E+03  2.35106E+03 -3.19063E+01
  1.40298E+03  1.02559E+03 -1.11943E+02  1.24118E+03 -8.88404E+02 -2.95828E+01 -1.21656E+02 -6.81258E+02
  1.14958E+03 -4.59651E+02  1.40387E+03  6.68508E+02  4.50657E+02  1.69852E+03  2.29165E+02  1.99895E+03
 -1.39232E+03  1.61903E+03 -2.49423E+03  1.49722E+02 -2.27249E+03 -1.74444E+03 -2.59483E+02 -2.82221E+03
  1.77483E+03 -2.41137E+03  2.82718E+03 -8.21867E+02  2.71632E+03 -1.67733E+02  1.54405E+03  2.33963E+03
  2.47754E+02  1.72638E+03 -7.99029E+02  1.99486E+03 -1.30935E+03  1.51110E+03 -1.08854E+03  2.82425E+02
 -7.36767E+02 -2.70114E+02 -9.88793E+02  5.33489E+02 -1.19907E+03  3.26653E+02 -1.76979E+03 -6.53437E+02
 -2.18742E+03 -1.10868E+03 -8.10931E+02 -2.27730E+03  1.25368E+03 -2.85794E+03  2.22025E+03 -1.16180E+03
  2.29839E+03  2.14193E+02  5.23816E+02  1.27838E+03 -1.43538E+01  2.48954E+03 -1.55021E+03  1.97856E+03
