 $NMID ID='MM_0lb_SNR800_17hz_g60_35.RAW', FMTDAT='(8E13.5)'
 TRAMP=1., VOLUME=1. $END
  3.09942E+05  3.05295E+02  3.37682E+05  2.50979E+05  8.45599E+04  3.37654E+05 -1.32630E+05  2.51227E+05
 -1.90145E+05  8.27651E+04 -1.12106E+05 -3.27098E+04  1.12655E+03 -5.05450E+04  5.37882E+04  1.26355E+02
  3.51631E+04  5.28997E+04 -1.68021E+04  7.53269E+04 -6.07269E+04  6.33249E+04 -8.41800E+04  3.19127E+04
 -8.09551E+04 -1.11981E+04 -5.69617E+04 -5.09732E+04 -1.46853E+04 -6.95270E+04  2.73897E+04 -4.56939E+04
  3.99307E+04  3.56362E+03  1.62708E+04  4.78099E+04 -3.42396E+04  4.72010E+04 -6.65468E+04 -1.09479E+02
 -5.33573E+04 -5.65265E+04 -6.66057E+03 -7.67799E+04  3.37375E+04 -5.46623E+04  4.76485E+04 -1.71349E+04
  4.31904E+04  1.14617E+04  3.17757E+04  2.53257E+04  1.61475E+04  2.94983E+04 -5.10980E+03  2.71464E+04
 -2.23290E+04  1.26131E+04 -1.86090E+04 -5.03838E+03  5.46686E+03 -7.65051E+03  2.23161E+04  1.18510E+04
  7.24089E+03  3.48266E+04 -3.19811E+04  3.53076E+04 -6.32420E+04  2.05009E+03 -5.66920E+04 -4.24018E+04
 -1.23612E+04 -6.26200E+04  3.99325E+04 -4.50754E+04  5.79942E+04 -2.20722E+03  3.36974E+04  3.17893E+04
 -6.13186E+03  3.57748E+04 -2.98114E+04  1.56691E+04 -3.02784E+04 -4.76376E+03 -1.62797E+04 -1.08174E+04
 -8.05445E+03 -1.30165E+04 -7.43511E+02 -1.79010E+04  7.30476E+03 -2.29620E+04  1.56377E+04 -1.31477E+04
  1.17777E+04  4.79148E+03 -7.82781E+03  1.30036E+04 -2.07491E+04 -4.10070E+03 -8.28028E+03 -3.32326E+04
  2.23184E+04 -4.31315E+04  4.74539E+04 -1.95072E+04  4.44803E+04  1.91451E+04  1.58386E+04  4.37588E+04
 -1.57898E+04  3.28016E+04 -2.50261E+04  1.43026E+03 -9.54891E+03 -2.74980E+04  2.09918E+04 -3.32530E+04
  4.06723E+04 -8.27632E+03  3.47167E+04  2.36256E+04  1.71717E+04  4.55202E+04 -8.16770E+03  4.92968E+04
 -3.10396E+04  3.28489E+04 -4.11166E+04  9.30253E+03 -4.15530E+04 -1.62370E+04 -2.28522E+04 -3.72090E+04
  7.19830E+03 -3.70935E+04  3.11780E+04 -1.41594E+04  2.89649E+04  1.08125E+04  3.73009E+03  1.89121E+04
 -1.31632E+04  8.05842E+03 -1.01048E+04 -7.75724E+03  6.02164E+03 -1.09830E+04  1.79218E+04  6.28750E+03
  1.33707E+04  2.18212E+04 -6.27761E+03  2.47059E+04 -2.24154E+04  1.09906E+04 -2.74309E+04 -5.24174E+03
 -1.96399E+04 -1.74133E+04 -7.71753E+03 -1.96064E+04  4.06060E+03 -1.84693E+04  1.49405E+04 -1.70905E+04
  2.49711E+04 -1.25936E+04  3.13504E+04  2.14669E+03  2.32239E+04  1.91919E+04  4.10283E+03  3.54111E+04
 -1.73129E+04  2.97326E+04 -2.73665E+04  1.01121E+04 -2.07185E+04 -1.03530E+04 -4.21606E+03 -1.34330E+04
  2.08688E+03 -3.00389E+03 -4.27666E+03  6.37785E+03 -1.54722E+04  5.30769E+03 -1.55955E+04 -6.19761E+03
 -9.59191E+03 -1.77907E+04  4.97265E+03 -2.19151E+04  1.44326E+04 -1.56468E+04  1.71396E+04 -1.52785E+03
  1.07359E+04  1.26646E+04 -7.71159E+02  1.81497E+04 -1.20764E+04  1.01983E+04 -1.80199E+04 -3.83297E+03
 -1.32587E+04 -1.60520E+04 -1.65469E+03 -2.18483E+04  9.75639E+03 -1.81310E+04  1.81593E+04 -8.75052E+03
  1.66196E+04  6.98715E+02  1.20164E+04  4.15456E+03  6.23745E+03  1.19912E+03  8.88737E+03 -1.57992E+03
  1.62338E+04  2.61769E+03  1.80286E+04  1.41737E+04  1.14555E+04  2.83444E+04 -2.85555E+03  3.16867E+04
 -1.85269E+04  2.48892E+04 -2.93378E+04  1.26248E+04 -3.03361E+04 -2.00801E+03 -2.53002E+04 -1.76629E+04
 -1.16806E+04 -2.50018E+04  8.57352E+03 -2.26331E+04  1.97444E+04 -1.17749E+04  1.79453E+04  4.91993E+03
  6.89711E+03  1.33917E+04 -8.35294E+03  1.17972E+04 -1.53082E+04  2.67720E+03 -1.16791E+04 -9.05209E+03
  1.00940E+02 -1.41628E+04  7.35398E+03 -1.06406E+04  9.03452E+03 -1.07846E+03  1.81356E+03  6.07056E+03
 -6.33365E+03  2.27408E+03 -5.19867E+03 -5.31115E+03 -8.62776E+01 -1.23720E+04  9.07290E+03 -1.25113E+04
  1.50869E+04 -6.19439E+03  1.55709E+04  2.97146E+03  1.35840E+04  1.19004E+04  6.19459E+03  1.76549E+04
 -2.89406E+03  1.95891E+04 -1.21205E+04  1.22563E+04 -1.37633E+04  3.03198E+03 -1.03757E+04 -3.28306E+03
 -4.80930E+03 -4.45212E+03 -7.90058E+02  1.42386E+03 -2.30049E+03  2.60066E+03 -4.54633E+03  4.02065E+03
 -9.48934E+03 -5.52496E+02 -1.03448E+04 -8.10257E+03 -3.82697E+03 -1.32739E+04  4.46771E+03 -1.01285E+04
  8.30407E+03 -4.65430E+03  6.26416E+03  2.92568E+03  7.54811E+01  3.94803E+03 -4.36980E+03  1.03170E+02
 -4.37308E+03 -6.41938E+03 -7.17095E+02 -9.06667E+03  4.87124E+03 -9.83223E+03  1.22338E+04 -4.97384E+03
  1.43985E+04  8.33855E+02  1.05167E+04  7.86158E+03  2.09155E+03  1.06834E+04 -6.19743E+03  9.64297E+03
 -8.11155E+03  3.17551E+03 -4.20091E+03 -1.80722E+03  1.65189E+03 -2.44118E+03  5.46095E+03 -8.90994E+02
  4.62071E+03  3.95593E+03  1.05921E+03  7.97917E+03 -5.39318E+03  7.57212E+03 -9.26900E+03  1.95711E+03
 -6.00341E+03 -4.56036E+03  1.94572E+02 -7.93371E+03  4.75033E+03 -4.05247E+03  4.57565E+03  1.35990E+03
  7.61161E+02  4.47930E+03 -4.95578E+03  6.22028E+03 -6.50905E+03  2.90138E+03 -6.54122E+03 -2.07037E+03
 -3.99899E+03 -7.91110E+03  1.94346E+03 -8.98015E+03  7.74222E+03 -5.72802E+03  8.39156E+03  1.44168E+03
  5.61833E+03  6.67486E+03 -4.31586E+02  8.80084E+03 -6.22025E+03  4.92241E+03 -6.33331E+03 -6.52671E+02
 -6.74732E+03 -6.39915E+03 -1.45258E+03 -5.92318E+03  2.77056E+03 -5.73446E+03  3.55021E+03 -2.79129E+03
  3.36699E+03  4.39044E+02 -2.50722E+02  1.69925E+03  6.08069E+02 -7.17902E+02  7.23922E+02 -2.93998E+03
  5.34296E+03 -1.55852E+03  7.35586E+03  1.12366E+03  7.33238E+03  4.59020E+03  6.37366E+03  9.42736E+03
 -1.70740E+03  1.14281E+04 -9.49410E+03  8.38322E+03 -1.28105E+04  1.32876E+03 -9.94053E+03 -3.75555E+03
 -5.31095E+03 -8.34841E+03 -5.64945E+02 -6.62459E+03  2.40678E+03 -3.25164E+03  2.30280E+03 -2.68122E+03
  1.82803E+03 -1.91903E+03  2.47471E+03 -2.63248E+03  3.98499E+03 -1.79621E+03  4.21847E+03 -5.20342E+00
  5.41021E+03  1.18943E+03  2.07752E+03  4.18854E+03 -1.37796E+03  4.46977E+03 -5.30996E+03  3.66565E+03
 -6.27058E+03 -1.20958E+03 -2.86154E+03 -4.57809E+03  1.11359E+02 -6.43143E+03  3.77348E+03 -7.02372E+03
  6.77916E+03 -4.26236E+03  8.68209E+03  7.79220E+02  6.31676E+03  5.47258E+03  1.42847E+03  7.65585E+03
 -2.74458E+03  6.84227E+03 -4.01174E+03  2.16282E+03 -2.47318E+03 -1.11141E+03 -1.10830E+03 -9.44800E+02
 -5.56686E+02  3.69205E+02 -1.02903E+03  2.09682E+03 -3.06144E+03  1.22495E+03 -4.92775E+03 -3.68547E+02
 -2.47077E+03 -5.03674E+03  6.28852E+02 -6.22339E+03  3.33701E+03 -5.59251E+03  5.32866E+03 -1.53858E+03
  5.54599E+03  3.40802E+03  2.53013E+03  4.50738E+03 -1.32159E+03  5.98559E+03 -3.67984E+03  3.57517E+03
 -5.28363E+03  7.54144E+02 -4.30679E+03 -3.29534E+03 -3.98413E+02 -4.51241E+03  2.27691E+03 -3.53894E+03
  3.63244E+03 -1.59105E+03  2.73059E+03  5.07108E+02  4.81554E+02  2.24900E+03  1.25915E+03  7.47273E+02
  1.79546E+03  5.86251E+02  1.39065E+03  1.24556E+03  1.48613E+03  2.37123E+03  1.74450E+03  2.42530E+03
 -1.75476E+03  3.97800E+03 -3.05854E+03  5.01589E+03 -4.28805E+03  1.58348E+03 -5.57302E+03 -1.36893E+03
 -2.39155E+03 -4.96926E+03  6.83600E+02 -6.01058E+03  3.06068E+03 -3.50746E+03  3.81707E+03 -1.34877E+03
  3.35874E+03  2.19167E+03  6.46244E+02  2.71644E+03 -1.08463E+03  1.71003E+03 -1.50304E+03 -2.54357E+02
 -8.69863E+02 -2.04604E+03  1.48974E+03 -2.00130E+03  1.66214E+03 -1.11820E+03  1.85233E+03  5.55223E+02
  1.45905E+03  5.33741E+02  6.94038E+02  3.66435E+02 -2.30018E+02  1.08757E+03  1.64914E+03 -4.17193E+02
  5.36286E+02 -3.48331E+02  1.96939E+03  5.96485E+02  5.41480E+02  2.78109E+03 -5.45300E+01  3.54779E+03
 -2.23416E+03  1.73873E+03 -3.08382E+03  4.15332E+02 -2.74175E+03 -1.01594E+03 -5.81268E+02 -1.39455E+03
  4.89466E+02 -1.51018E+03  1.32953E+03 -1.02158E+03  9.41017E+02  1.55053E+03 -8.00033E+02  1.62291E+03
 -2.04242E+03  9.53691E+02 -1.51178E+03 -1.85853E+03 -8.60472E+02 -2.86097E+03  2.36874E+02 -2.25968E+03
  6.32529E+02 -9.64389E+02  1.08467E+03  2.18778E+02  1.74129E+03  2.54432E+02  2.81302E+02  1.61270E+03
 -2.75669E+02  2.87593E+02 -8.65607E+02 -5.60260E+02  5.04965E+02 -1.37262E+03  2.11340E+03 -1.15269E+03
  1.92375E+03  2.05697E+02  3.28632E+03  9.16211E+02  1.02460E+03  2.35642E+03 -4.96623E+02  2.32227E+03
 -1.97830E+03  7.05671E+02 -1.80679E+03 -2.23931E+02 -1.18060E+03 -1.99088E+03  6.51398E+02 -8.40308E+02
  2.03244E+03 -8.50082E+02  1.22089E+03  7.78634E+02  3.33778E+02  1.74918E+03  2.38713E+01  1.13905E+03
 -5.95916E+02  1.26271E+03 -6.59706E+02  3.27814E+02 -1.72632E+01  3.86856E+02 -7.50674E+02  7.83080E+02
 -8.43067E+02  1.05625E+03 -2.47917E+03  7.50615E+02 -2.21792E+03  1.80597E+02 -2.83819E+03 -1.65973E+03
 -1.27175E+03 -3.25695E+03  8.44734E+02 -3.82015E+03  1.75237E+03 -3.06685E+03  3.46072E+03 -1.20363E+03
  3.27312E+03 -1.65443E+02  1.58748E+03  2.10496E+03 -5.43575E+02  2.00093E+03 -7.34630E+02  1.47170E+03
 -1.35499E+03  1.05105E+03 -8.49106E+02 -3.55658E+02 -6.44857E+02  2.32946E+02 -7.82625E+02 -1.31050E+02
 -1.29496E+03 -2.22526E+02 -8.29732E+02  2.50810E+01  4.79249E+02 -6.45994E+02 -3.90991E+02 -1.09341E+03
  1.63154E+03 -5.95400E+02  1.07029E+03  3.59490E+02  1.88051E+03  1.11761E+03 -2.43408E+02  2.12471E+03
 -9.27898E+02  2.85246E+03 -2.38825E+03  1.54829E+03 -2.35348E+03 -4.66870E+02 -1.76491E+03 -1.76029E+03
 -1.03707E+03 -1.94940E+03  3.24094E+02 -1.59853E+03  1.27987E+03 -9.98873E+02  1.26124E+03 -4.86190E+00
  1.08123E+03  5.20076E+02  1.60379E+02  3.91113E+02 -3.63406E+02 -2.71778E+02 -2.45917E+02 -2.05093E+02
  6.39187E+02 -3.75706E+02  3.82266E+02  3.38022E+02  1.65430E+02  6.50907E+02  4.73440E+02  6.88550E+02
 -8.13444E+02  1.15998E+03 -9.83637E+02  2.04454E+02 -1.01618E+03 -6.18892E+02  1.82482E+02 -1.50457E+03
  8.14275E+02 -8.40883E+02  6.89085E+02 -1.40661E+02  1.26353E+03 -3.83838E+02  5.56955E+02  9.68871E+02
  6.88413E+02  3.96846E+02 -3.39700E+02  8.30854E+02 -8.49876E+02  6.18120E+02 -4.75955E+02  1.74301E+02
 -4.18255E+02 -1.64856E+01 -3.09821E+02  2.24041E+02 -4.44109E+02  3.87337E+02 -1.07010E+03 -5.62930E+02
 -1.30171E+03 -2.55673E+01 -8.63911E+01 -1.01779E+03  8.27669E+02 -1.90458E+03  1.04038E+03 -4.25403E+02
  7.59616E+02  1.55584E+02  2.48451E+02  7.77260E+02 -1.56764E+02  1.04873E+03 -4.73879E+02  1.04069E+03
