 $NMID ID='MM_0lb_SNR800_18hz_g40_31.RAW', FMTDAT='(8E13.5)'
 TRAMP=1., VOLUME=1. $END
  3.09703E+05  4.73848E+02  3.37484E+05  2.50446E+05  8.43286E+04  3.37292E+05 -1.32502E+05  2.50099E+05
 -1.89635E+05  8.24929E+04 -1.10644E+05 -3.29855E+04  1.42638E+03 -5.02577E+04  5.41212E+04  5.61934E+02
  3.51094E+04  5.28275E+04 -1.71607E+04  7.49779E+04 -5.98458E+04  6.25867E+04 -8.27934E+04  3.13581E+04
 -7.93682E+04 -1.10133E+04 -5.59318E+04 -5.00533E+04 -1.47002E+04 -6.81505E+04  2.65697E+04 -4.45599E+04
  3.90258E+04  3.91973E+03  1.58096E+04  4.70493E+04 -3.39191E+04  4.60722E+04 -6.51858E+04 -6.25194E+02
 -5.19997E+04 -5.56399E+04 -6.28468E+03 -7.49160E+04  3.32127E+04 -5.29791E+04  4.59433E+04 -1.64422E+04
  4.16068E+04  1.09063E+04  3.03031E+04  2.43207E+04  1.57869E+04  2.83143E+04 -4.51443E+03  2.66186E+04
 -2.18709E+04  1.27853E+04 -1.91515E+04 -4.14142E+03  4.18286E+03 -7.51778E+03  2.11115E+04  1.07125E+04
  7.35833E+03  3.30768E+04 -3.03120E+04  3.35943E+04 -6.07280E+04  2.30696E+03 -5.51356E+04 -4.11348E+04
 -1.25009E+04 -6.04666E+04  3.80342E+04 -4.32766E+04  5.52924E+04 -2.13819E+03  3.17663E+04  3.01941E+04
 -6.42643E+03  3.27352E+04 -2.81882E+04  1.30942E+04 -2.72581E+04 -5.46465E+03 -1.40362E+04 -9.95850E+03
 -7.29718E+03 -1.13973E+04 -1.17368E+03 -1.67518E+04  6.65737E+03 -2.26832E+04  1.51163E+04 -1.39305E+04
  1.23749E+04  4.22678E+03 -5.89246E+03  1.31164E+04 -1.90017E+04 -2.32120E+03 -8.03408E+03 -2.99229E+04
  2.06258E+04 -4.03422E+04  4.45718E+04 -1.85237E+04  4.17956E+04  1.82797E+04  1.41115E+04  4.15228E+04
 -1.51497E+04  3.11521E+04 -2.34063E+04  9.72879E+02 -8.15807E+03 -2.62238E+04  2.04574E+04 -3.10588E+04
  3.78647E+04 -7.09173E+03  3.07993E+04  2.28568E+04  1.50846E+04  4.22132E+04 -8.01746E+03  4.47135E+04
 -2.79841E+04  2.96653E+04 -3.68028E+04  8.05005E+03 -3.79555E+04 -1.47598E+04 -2.10719E+04 -3.40970E+04
  7.01297E+03 -3.37459E+04  2.88761E+04 -1.26931E+04  2.69075E+04  1.08318E+04  3.19349E+03  1.76696E+04
 -1.31197E+04  7.31600E+03 -9.22004E+03 -7.74009E+03  5.81875E+03 -9.96259E+03  1.72970E+04  6.42888E+03
  1.21854E+04  2.15044E+04 -6.71263E+03  2.31299E+04 -2.14155E+04  9.07987E+03 -2.48611E+04 -6.48182E+03
 -1.64546E+04 -1.62003E+04 -5.24003E+03 -1.64662E+04  3.99361E+03 -1.45847E+04  1.25096E+04 -1.42075E+04
  2.09361E+04 -1.12737E+04  2.77196E+04  1.04595E+03  2.12299E+04  1.60246E+04  3.75085E+03  3.23385E+04
 -1.57104E+04  2.74237E+04 -2.57746E+04  9.22055E+03 -1.98003E+04 -1.02620E+04 -3.76081E+03 -1.39560E+04
  2.80773E+03 -4.09526E+03 -2.37706E+03  5.49545E+03 -1.28277E+04  5.26443E+03 -1.32837E+04 -4.54299E+03
 -8.56813E+03 -1.52355E+04  4.70068E+03 -1.90408E+04  1.25331E+04 -1.41245E+04  1.45826E+04 -1.38378E+03
  9.07911E+03  1.08055E+04 -7.30887E+02  1.55791E+04 -1.01634E+04  8.56614E+03 -1.53279E+04 -3.37160E+03
 -1.15001E+04 -1.39435E+04 -1.50297E+03 -1.91868E+04  8.53528E+03 -1.49044E+04  1.58563E+04 -6.92642E+03
  1.43229E+04  7.67508E+02  1.02418E+04  3.55913E+03  5.19031E+03  4.17096E+02  7.59859E+03 -1.52484E+03
  1.36083E+04  2.52274E+03  1.42608E+04  1.26211E+04  9.09973E+03  2.45915E+04 -3.08088E+03  2.64316E+04
 -1.55611E+04  2.00354E+04 -2.41732E+04  9.61980E+03 -2.46784E+04 -1.99218E+03 -2.12943E+04 -1.40469E+04
 -9.94757E+03 -2.05233E+04  6.75649E+03 -1.86131E+04  1.66184E+04 -1.08252E+04  1.56164E+04  3.55791E+03
  6.66204E+03  1.10971E+04 -6.90943E+03  1.05312E+04 -1.33900E+04  2.44222E+03 -9.95771E+03 -7.70683E+03
 -2.67171E+02 -1.24655E+04  6.01724E+03 -9.30650E+03  7.47188E+03 -1.29410E+03  1.37222E+03  4.85586E+03
 -5.40649E+03  1.48920E+03 -3.50693E+03 -4.77154E+03  8.36073E+02 -1.01380E+04  7.52259E+03 -1.00894E+04
  1.21005E+04 -4.58930E+03  1.17812E+04  2.73721E+03  1.01262E+04  9.30519E+03  4.80333E+03  1.39800E+04
 -1.66467E+03  1.57271E+04 -9.61295E+03  1.01814E+04 -1.12274E+04  2.89553E+03 -8.22732E+03 -1.70962E+03
 -4.63376E+03 -3.17734E+03 -6.71717E+02  1.38129E+03 -1.75887E+03  2.29565E+03 -3.47821E+03  3.23492E+03
 -7.65178E+03 -7.13762E+02 -8.92681E+03 -7.04932E+03 -3.42691E+03 -1.13756E+04  3.23490E+03 -8.48030E+03
  7.21924E+03 -4.03578E+03  5.41861E+03  2.11450E+03  6.24141E+02  2.92368E+03 -3.49868E+03 -2.15975E+02
 -3.34620E+03 -5.22790E+03 -8.19383E+02 -7.31459E+03  3.56234E+03 -7.77043E+03  9.56060E+03 -4.09565E+03
  1.14754E+04  4.27132E+02  8.81338E+03  6.13311E+03  1.68828E+03  8.70723E+03 -5.29230E+03  8.22629E+03
 -7.02987E+03  2.65781E+03 -3.72914E+03 -1.43532E+03  1.41905E+03 -1.73288E+03  4.57461E+03 -8.08086E+02
  4.20497E+03  3.39191E+03  9.83581E+02  6.28278E+03 -4.36044E+03  6.47166E+03 -7.87716E+03  1.76051E+03
 -4.62959E+03 -3.75091E+03  2.25890E+02 -6.67469E+03  3.76364E+03 -3.12766E+03  3.66138E+03  9.81297E+02
  3.68101E+02  3.43393E+03 -3.98073E+03  4.36476E+03 -5.03736E+03  2.27002E+03 -4.53912E+03 -1.17428E+03
 -2.93433E+03 -5.79666E+03  1.16882E+03 -7.26429E+03  5.89853E+03 -4.46876E+03  6.58065E+03  9.25463E+02
  4.63443E+03  5.34618E+03  1.06776E+02  7.19294E+03 -5.16417E+03  4.24835E+03 -5.32312E+03 -3.66600E+02
 -5.70973E+03 -5.15103E+03 -1.42133E+03 -5.12484E+03  2.57480E+03 -4.61418E+03  2.82056E+03 -2.86175E+03
  2.76359E+03  2.39320E+02 -4.27419E+02  1.17167E+03  7.64381E+02 -2.81055E+02  3.14277E+02 -1.71586E+03
  3.56785E+03 -7.07616E+02  5.22129E+03  8.16552E+02  5.61777E+03  2.87661E+03  5.26601E+03  7.27911E+03
 -1.26040E+03  8.64622E+03 -7.72394E+03  6.71247E+03 -9.98904E+03  1.29396E+03 -8.00966E+03 -2.67852E+03
 -4.20937E+03 -6.55920E+03 -1.96180E+02 -5.17517E+03  2.22773E+03 -1.99818E+03  1.70603E+03 -2.19222E+03
  1.10243E+03 -1.70588E+03  2.30975E+03 -2.14586E+03  3.62781E+03 -1.35583E+03  3.65966E+03  3.45789E+02
  4.51535E+03  1.22428E+03  1.28986E+03  3.58896E+03 -1.47329E+03  2.94944E+03 -4.20111E+03  2.64269E+03
 -5.12837E+03 -1.08099E+03 -1.77205E+03 -3.32343E+03  3.73598E+02 -5.05566E+03  3.27010E+03 -5.62342E+03
  5.25839E+03 -3.11616E+03  6.97743E+03  4.16580E+02  4.96517E+03  4.56200E+03  1.15781E+03  5.99320E+03
 -2.52476E+03  5.74557E+03 -3.56285E+03  1.77590E+03 -1.77046E+03 -1.10254E+03 -4.04896E+02 -6.15639E+02
 -2.76415E+02  2.87999E+02 -9.54802E+02  1.94903E+03 -2.54521E+03  1.11375E+03 -4.14879E+03 -2.02248E+02
 -1.66749E+03 -3.96691E+03  8.30575E+02 -4.86524E+03  2.87454E+03 -4.47491E+03  3.90428E+03 -1.10214E+03
  4.23046E+03  2.33706E+03  1.73799E+03  3.60014E+03 -7.37854E+02  4.54322E+03 -2.50869E+03  2.91683E+03
 -3.93040E+03  5.81781E+02 -3.46958E+03 -2.53091E+03 -1.19349E+02 -3.20920E+03  1.71606E+03 -2.43547E+03
  2.89076E+03 -1.44693E+03  2.08472E+03  5.54785E+02  6.56799E+02  1.71169E+03  8.98626E+02  3.69343E+02
  1.88845E+03  7.15631E+02  1.16203E+03  1.12689E+03  1.23709E+03  2.25051E+03  1.31601E+03  1.53439E+03
 -1.32223E+03  2.95757E+03 -2.52936E+03  4.28119E+03 -3.38276E+03  1.18680E+03 -3.96086E+03 -4.49680E+02
 -1.88854E+03 -3.88242E+03  7.52943E+02 -4.74846E+03  2.09039E+03 -2.74398E+03  3.35392E+03 -9.33663E+02
  2.50892E+03  1.70549E+03  5.08490E+02  2.56126E+03 -8.78575E+02  1.19784E+03 -9.57126E+02  4.62423E+01
 -8.53277E+02 -1.58090E+03  1.56853E+03 -1.42705E+03  1.44638E+03 -1.03610E+03  1.32566E+03  2.86673E+02
  6.51589E+02  3.74579E+02  8.40620E+02 -3.88418E+02 -6.49821E+01  7.90105E+02  1.71809E+03  1.78278E+02
  1.76640E+02 -3.44084E+02  1.95222E+03  8.94966E+02  1.48108E+02  2.42403E+03 -2.79655E+02  3.26950E+03
 -1.69733E+03  9.24831E+02 -2.26212E+03  3.93673E+02 -2.38332E+03 -6.14464E+02 -4.32296E+02 -1.11023E+03
  3.16385E+02 -1.43084E+03  9.35928E+02 -9.37744E+02  4.96640E+02  1.54387E+03 -1.05690E+03  1.02098E+03
 -1.32615E+03  6.00961E+02 -1.23707E+03 -1.33073E+03 -5.80273E+02 -2.22157E+03  3.20420E+02 -1.81134E+03
  5.66440E+02 -6.03734E+02  1.06162E+03  1.70557E+02  1.39359E+03  8.64608E+01  3.66668E+02  1.21319E+03
 -2.04971E+02 -6.18737E+00 -8.02274E+02 -2.01743E+02  7.64599E+02 -1.05565E+03  1.57685E+03 -7.69033E+02
  1.24934E+03  3.04323E+02  3.00995E+03  8.60576E+02  9.78877E+02  1.89565E+03 -1.74277E+02  1.92476E+03
 -1.40028E+03  1.80237E+02 -1.50811E+03 -1.40117E+02 -8.19476E+02 -1.15618E+03  1.63850E+02 -7.96317E+02
  1.62540E+03 -5.84932E+02  6.28376E+02  9.25638E+02  2.25844E+02  1.70890E+03  3.60164E+02  1.24249E+03
 -4.49945E+02  1.08907E+03 -2.64358E+02  3.37918E+02 -1.18129E+01  2.87850E+02 -5.60408E+02  5.47651E+02
 -9.06531E+02  9.15853E+02 -1.89708E+03  7.00182E+02 -1.97849E+03 -8.26810E+01 -2.67122E+03 -1.12797E+03
 -1.45693E+03 -2.29639E+03  7.92903E+02 -2.99232E+03  1.23571E+03 -2.74832E+03  2.87952E+03 -8.49772E+02
  2.81117E+03  1.52959E+02  1.34541E+03  1.90474E+03 -6.99193E+02  1.88104E+03 -1.07883E+03  1.27914E+03
 -1.03905E+03  1.06315E+03 -3.62546E+02 -3.74400E+02 -6.50885E+02  2.75388E+02 -5.88850E+02  2.42027E+01
 -1.39082E+03 -3.37125E+02 -9.51890E+02 -1.07504E+02  5.19029E+02 -4.94375E+02 -4.06771E+02 -9.12151E+02
  1.62805E+03 -9.52541E+02  5.43430E+02  1.16838E+02  1.12321E+03  1.04988E+03 -4.60500E+02  1.73619E+03
 -9.91742E+02  2.33858E+03 -1.95776E+03  1.44024E+03 -2.05037E+03 -5.82943E+02 -1.28509E+03 -1.28948E+03
 -1.09028E+03 -1.54497E+03  2.90066E+02 -1.26250E+03  6.36524E+02 -5.92764E+02  6.26416E+02  1.84459E+02
  9.48401E+02  5.03422E+02  9.77314E+01  7.17602E+02 -3.56298E+02  7.16569E+01 -8.27708E+01 -5.09850E+02
  5.03680E+02  3.84250E+02  4.14749E+02  6.72871E+02 -1.02393E+02  6.36284E+02  4.19495E+02  5.81528E+02
 -5.44916E+02  5.60710E+02 -6.58135E+02  1.49053E+02 -7.98608E+02 -4.78578E+02 -1.74689E+02 -1.43138E+03
  7.39202E+02 -8.46845E+02  5.57200E+02 -1.50527E+02  1.07351E+03 -2.19903E+02  4.27171E+02  8.97473E+02
  4.89262E+02  6.76544E+02 -7.22559E+01  7.32535E+02 -6.28164E+02  6.78656E+02 -5.94395E+02  6.03479E+01
 -4.05894E+02 -1.90889E+02 -7.34140E+02  1.12020E+02 -4.66372E+02  1.35387E+02 -1.02514E+03 -1.08840E+02
 -1.05334E+03  1.45449E+02 -3.33710E+02 -1.05949E+03  7.82513E+02 -1.91671E+03  9.62005E+02 -2.89336E+02
  1.13735E+03  4.32962E+01 -2.24504E+02  6.00589E+02  4.78084E+01  7.36142E+02 -4.31839E+02  8.49795E+02
