 $NMID ID='MM_0lb_SNR800_13hz_g40_6.RAW', FMTDAT='(8E13.5)'
 TRAMP=1., VOLUME=1. $END
  3.09809E+05  4.98945E+02  3.37658E+05  2.50632E+05  8.48130E+04  3.37985E+05 -1.32386E+05  2.51021E+05
 -1.90079E+05  8.32921E+04 -1.11656E+05 -3.24909E+04  1.08761E+03 -5.05560E+04  5.41633E+04 -1.58583E+02
  3.52787E+04  5.33819E+04 -1.71034E+04  7.54454E+04 -6.08437E+04  6.33898E+04 -8.41185E+04  3.20580E+04
 -8.08830E+04 -1.13479E+04 -5.70718E+04 -5.13645E+04 -1.48540E+04 -6.94380E+04  2.74269E+04 -4.54807E+04
  4.01628E+04  3.90217E+03  1.58922E+04  4.75435E+04 -3.43888E+04  4.67858E+04 -6.64677E+04 -1.01226E+02
 -5.36959E+04 -5.67461E+04 -7.29551E+03 -7.66429E+04  3.38102E+04 -5.48735E+04  4.74087E+04 -1.71887E+04
  4.32564E+04  1.12137E+04  3.16452E+04  2.52502E+04  1.59222E+04  2.95170E+04 -4.99880E+03  2.72779E+04
 -2.24846E+04  1.23907E+04 -1.89063E+04 -4.75923E+03  5.55421E+03 -7.55630E+03  2.23214E+04  1.25142E+04
  7.26649E+03  3.53814E+04 -3.20134E+04  3.55431E+04 -6.31513E+04  2.03040E+03 -5.68439E+04 -4.24776E+04
 -1.26090E+04 -6.32788E+04  3.98009E+04 -4.53033E+04  5.78120E+04 -2.05227E+03  3.39769E+04  3.23891E+04
 -6.05649E+03  3.60585E+04 -3.01157E+04  1.54908E+04 -3.01569E+04 -4.24406E+03 -1.63776E+04 -1.08916E+04
 -8.17066E+03 -1.32021E+04 -6.07484E+02 -1.80207E+04  7.21991E+03 -2.27726E+04  1.58658E+04 -1.34675E+04
  1.14369E+04  5.21068E+03 -7.98135E+03  1.31701E+04 -2.14372E+04 -4.38200E+03 -8.55725E+03 -3.35249E+04
  2.29443E+04 -4.31876E+04  4.77724E+04 -1.96411E+04  4.48613E+04  1.95839E+04  1.56065E+04  4.43199E+04
 -1.61659E+04  3.32640E+04 -2.54142E+04  2.08759E+03 -9.83204E+03 -2.77349E+04  2.08759E+04 -3.40143E+04
  4.08298E+04 -8.91429E+03  3.54953E+04  2.36939E+04  1.83738E+04  4.60921E+04 -8.09963E+03  5.04039E+04
 -3.17366E+04  3.32368E+04 -4.22716E+04  9.25119E+03 -4.29083E+04 -1.68516E+04 -2.35501E+04 -3.79340E+04
  7.17696E+03 -3.75939E+04  3.13888E+04 -1.47315E+04  2.92444E+04  1.07793E+04  4.05887E+03  1.89501E+04
 -1.33732E+04  8.41344E+03 -1.00998E+04 -7.74977E+03  5.83252E+03 -1.09137E+04  1.80914E+04  6.00113E+03
  1.33832E+04  2.19931E+04 -5.88570E+03  2.49582E+04 -2.28463E+04  1.15287E+04 -2.83244E+04 -4.69543E+03
 -2.06715E+04 -1.70068E+04 -8.24254E+03 -2.03000E+04  3.88592E+03 -1.97427E+04  1.56958E+04 -1.83187E+04
  2.61523E+04 -1.27305E+04  3.27542E+04  2.76055E+03  2.41819E+04  2.00978E+04  4.07615E+03  3.64557E+04
 -1.77636E+04  3.03066E+04 -2.79243E+04  1.04758E+04 -2.08101E+04 -1.00067E+04 -4.18838E+03 -1.34477E+04
  1.74443E+03 -2.98899E+03 -4.67536E+03  6.98868E+03 -1.61737E+04  5.38138E+03 -1.61647E+04 -6.77086E+03
 -1.03941E+04 -1.90345E+04  4.96025E+03 -2.29788E+04  1.53758E+04 -1.66638E+04  1.78437E+04 -1.47145E+03
  1.15814E+04  1.31703E+04 -1.15376E+03  1.90046E+04 -1.35672E+04  1.07223E+04 -1.92834E+04 -4.15999E+03
 -1.42581E+04 -1.71052E+04 -1.74353E+03 -2.33036E+04  1.06309E+04 -1.87749E+04  1.94407E+04 -9.63371E+03
  1.79505E+04  2.91284E+02  1.25565E+04  4.22598E+03  6.84612E+03  1.15823E+03  9.71027E+03 -2.14020E+03
  1.73438E+04  2.62572E+03  1.94098E+04  1.51843E+04  1.29134E+04  3.05498E+04 -2.89280E+03  3.47551E+04
 -1.98370E+04  2.75385E+04 -3.20963E+04  1.38958E+04 -3.36442E+04 -2.51189E+03 -2.79587E+04 -1.94268E+04
 -1.18571E+04 -2.77665E+04  9.86553E+03 -2.51853E+04  2.18893E+04 -1.26059E+04  1.92549E+04  5.57185E+03
  7.44835E+03  1.44153E+04 -9.19302E+03  1.24796E+04 -1.60590E+04  2.45370E+03 -1.25733E+04 -1.04006E+04
  1.78783E+00 -1.56999E+04  8.23283E+03 -1.18296E+04  1.01105E+04 -1.32354E+03  2.39198E+03  6.67817E+03
 -7.25936E+03  2.65741E+03 -5.82745E+03 -5.36729E+03 -8.58894E+02 -1.38311E+04  9.69848E+03 -1.42350E+04
  1.70234E+04 -7.21281E+03  1.78790E+04  2.92411E+03  1.55844E+04  1.36128E+04  7.58245E+03  2.06451E+04
 -3.52007E+03  2.28644E+04 -1.44410E+04  1.39366E+04 -1.62123E+04  3.36957E+03 -1.14174E+04 -3.64325E+03
 -5.55199E+03 -4.97940E+03 -6.40215E+02  1.01499E+03 -2.33057E+03  2.40513E+03 -5.05305E+03  4.49538E+03
 -1.05024E+04 -7.29971E+02 -1.10912E+04 -8.99184E+03 -4.72052E+03 -1.45869E+04  4.76511E+03 -1.15064E+04
  9.88197E+03 -5.11905E+03  6.95968E+03  3.17060E+03  4.77290E+02  4.28020E+03 -5.44835E+03 -2.05851E+02
 -5.52851E+03 -7.43047E+03 -7.98364E+02 -1.09572E+04  6.08727E+03 -1.16144E+04  1.43291E+04 -5.92246E+03
  1.66153E+04  1.20846E+03  1.23894E+04  9.76756E+03  2.37578E+03  1.31430E+04 -6.96788E+03  1.15502E+04
 -9.10636E+03  3.43837E+03 -4.99635E+03 -1.72660E+03  1.66979E+03 -2.83457E+03  6.13994E+03 -1.31122E+03
  5.30554E+03  4.68491E+03  1.15797E+03  9.19550E+03 -6.48190E+03  8.85821E+03 -1.10872E+04  2.20779E+03
 -7.39942E+03 -5.59776E+03  3.67010E+02 -9.64799E+03  5.73179E+03 -4.85059E+03  6.30135E+03  1.89274E+03
  1.03572E+03  6.20445E+03 -5.88648E+03  7.76402E+03 -8.54298E+03  3.31343E+03 -8.68571E+03 -2.78956E+03
 -5.38811E+03 -1.01532E+04  2.02704E+03 -1.18371E+04  1.00039E+04 -7.46411E+03  1.08802E+04  1.77844E+03
  6.85621E+03  8.96008E+03 -4.72988E+02  1.06677E+04 -8.04981E+03  6.16492E+03 -8.67742E+03 -9.12729E+02
 -7.96603E+03 -7.26894E+03 -1.46398E+03 -8.12904E+03  4.39476E+03 -6.79037E+03  4.94964E+03 -3.14715E+03
  3.75974E+03  1.07870E+03 -4.63477E+01  1.53273E+03 -6.70532E+01 -1.36956E+03  1.79318E+03 -4.19346E+03
  7.11680E+03 -2.40931E+03  1.01408E+04  1.37498E+03  9.91374E+03  6.47479E+03  7.59733E+03  1.27868E+04
 -2.72465E+03  1.50886E+04 -1.29799E+04  1.08103E+04 -1.64967E+04  2.36927E+03 -1.29551E+04 -5.35031E+03
 -6.50350E+03 -1.07332E+04 -3.47666E+02 -9.14888E+03  3.62398E+03 -4.30384E+03  3.15706E+03 -3.09131E+03
  2.01219E+03 -2.02369E+03  2.75231E+03 -2.96397E+03  4.50463E+03 -2.27601E+03  5.45703E+03 -5.55000E+02
  6.94181E+03  1.47751E+03  2.79813E+03  5.58208E+03 -2.26917E+03  6.42145E+03 -6.99901E+03  5.16325E+03
 -9.01215E+03 -1.09596E+03 -5.06792E+03 -5.86160E+03 -3.72185E+02 -9.50463E+03  5.69111E+03 -9.96225E+03
  9.57378E+03 -5.38888E+03  1.20310E+04  1.35291E+03  8.49141E+03  8.00438E+03  1.61601E+03  1.08133E+04
 -4.18639E+03  9.28048E+03 -6.05464E+03  3.34884E+03 -3.54505E+03 -9.06034E+02 -1.69446E+03 -1.30242E+03
 -1.03338E+03  1.02586E+02 -1.23141E+03  2.48695E+03 -3.93220E+03  1.45292E+03 -6.03570E+03 -6.60295E+02
 -3.93945E+03 -6.65821E+03  5.58466E+02 -8.77169E+03  5.12848E+03 -8.08349E+03  8.64755E+03 -2.62867E+03
  8.26936E+03  4.42724E+03  3.94304E+03  7.55391E+03 -1.62750E+03  8.22106E+03 -5.92684E+03  5.40222E+03
 -7.76705E+03  7.98374E+02 -6.30191E+03 -5.09927E+03 -3.19017E+02 -7.11576E+03  3.39543E+03 -4.92895E+03
  5.18715E+03 -1.89202E+03  3.21677E+03  9.60622E+02  1.20107E+03  2.68895E+03  9.55299E+02  9.55565E+02
  2.23097E+03  7.24480E+02  2.09924E+03  1.63943E+03  2.63884E+03  3.05447E+03  2.20776E+03  3.98249E+03
 -2.17456E+03  6.52996E+03 -5.76872E+03  7.17638E+03 -7.89069E+03  1.75463E+03 -8.66504E+03 -2.89540E+03
 -4.16445E+03 -8.26508E+03  1.28731E+03 -9.17386E+03  4.82434E+03 -5.45500E+03  6.91014E+03 -1.81786E+03
  5.64849E+03  3.11504E+03  9.32535E+02  4.45260E+03 -2.25280E+03  3.07232E+03 -3.19642E+03 -4.94327E+02
 -1.15821E+03 -3.47759E+03  2.29609E+03 -3.41359E+03  3.59934E+03 -1.56265E+03  3.28377E+03  4.12604E+02
  1.77505E+03  1.29569E+03  7.37304E+02  5.96837E+02 -5.94634E+02  8.26264E+02  1.41383E+03 -5.13050E+02
  1.04041E+03 -1.69796E+02  3.46820E+03  1.14607E+03  1.75888E+03  4.80457E+03 -9.42155E+02  5.82664E+03
 -3.98906E+03  3.34150E+03 -4.89508E+03  9.26987E+02 -4.60258E+03 -1.75411E+03 -1.62974E+03 -2.74236E+03
  7.97449E+02 -2.87735E+03  1.94944E+03 -1.54014E+03  1.66051E+03  2.04917E+03 -7.66087E+02  2.67229E+03
 -3.48101E+03  1.35952E+03 -3.47409E+03 -2.14199E+03 -1.82887E+03 -4.44569E+03  5.46117E+02 -4.09035E+03
  2.36849E+03 -2.33215E+03  2.87482E+03 -3.21559E+01  2.65768E+03  7.44461E+02  6.41896E+02  2.39037E+03
 -1.31611E+03  4.55448E+02 -1.90277E+03 -1.07642E+03  8.58157E+02 -3.10244E+03  3.51630E+03 -2.55783E+03
  4.39425E+03  4.23550E+02  5.45507E+03  2.77304E+03  1.73704E+03  4.81491E+03 -1.78852E+03  4.56903E+03
 -3.91506E+03  1.75923E+03 -4.04091E+03 -3.94247E+02 -2.25274E+03 -3.24904E+03  8.25168E+02 -2.61939E+03
  2.90325E+03 -1.49745E+03  2.42580E+03  1.34762E+03  6.38995E+02  3.13049E+03 -5.50151E+02  2.31585E+03
 -1.02249E+03  1.67024E+03 -1.19350E+03  6.45650E+02 -4.30034E+02  8.45539E+02 -1.32767E+03  1.18591E+03
 -1.11772E+03  2.09024E+03 -3.62803E+03  1.88744E+03 -4.83383E+03  3.24307E+02 -5.30080E+03 -3.17318E+03
 -2.93151E+03 -6.70299E+03  1.32151E+03 -7.70836E+03  4.24323E+03 -6.04540E+03  6.97637E+03 -2.13693E+03
  6.54466E+03  8.34783E+02  3.53748E+03  4.26490E+03 -4.10053E+01  4.75802E+03 -1.80496E+03  3.24485E+03
 -2.78293E+03  1.38096E+03 -1.27263E+03 -7.41462E+02 -7.91229E+02  1.09574E+00 -7.57187E+02 -1.28881E+02
 -1.35918E+03 -2.05482E+00 -1.24819E+03  4.21530E+01 -2.66154E+02 -1.22740E+03 -3.13760E+02 -1.80884E+03
  2.20582E+03 -1.59706E+03  2.32434E+03  7.62258E+01  3.25901E+03  2.62458E+03  4.73964E+02  4.68482E+03
 -2.36690E+03  5.58945E+03 -4.99125E+03  3.16487E+03 -5.48063E+03 -2.99157E+02 -3.84510E+03 -3.65177E+03
 -1.99542E+03 -4.52121E+03  1.18282E+03 -4.08873E+03  3.00315E+03 -2.04593E+03  3.02872E+03  6.54651E+01
  1.94531E+03  1.30723E+03 -2.65293E+02  1.16487E+03 -6.80836E+02 -2.40064E+02 -2.58560E+02 -1.18086E+03
  1.34897E+03 -7.83172E+02  1.57299E+03  7.80382E+02  1.38094E+03  2.09740E+03 -1.16847E+02  1.95165E+03
 -1.99723E+03  2.13378E+03 -2.87452E+03  3.05988E+02 -2.71209E+03 -1.69251E+03 -2.41087E+02 -3.86675E+03
  2.04152E+03 -2.67215E+03  3.26494E+03 -1.12385E+03  3.52011E+03  4.13900E+02  1.89613E+03  2.67454E+03
  7.95748E+02  2.93860E+03 -1.21739E+03  2.53970E+03 -1.83234E+03  1.22132E+03 -1.63846E+03 -3.35687E+01
 -7.13145E+02 -1.77089E+02 -1.15493E+03  5.35587E+02 -1.60566E+03  3.48604E+02 -2.23271E+03 -6.00257E+02
 -2.78035E+03 -1.23119E+03 -7.39248E+02 -3.21143E+03  1.30335E+03 -3.58070E+03  2.40364E+03 -1.37233E+03
  3.14385E+03  6.06494E+02  9.89179E+02  1.41262E+03 -2.01849E+02  3.04727E+03 -1.88075E+03  2.30409E+03
