 $NMID ID='MM_0lb_SNR800_17hz_g55_13.RAW', FMTDAT='(8E13.5)'
 TRAMP=1., VOLUME=1. $END
  3.09852E+05  1.40555E+02  3.37623E+05  2.50494E+05  8.46218E+04  3.37611E+05 -1.32660E+05  2.50705E+05
 -1.90127E+05  8.29480E+04 -1.11491E+05 -3.27892E+04  1.02598E+03 -5.04114E+04  5.40468E+04 -2.55452E+01
  3.55422E+04  5.27591E+04 -1.69045E+04  7.52203E+04 -6.05086E+04  6.33037E+04 -8.36513E+04  3.19128E+04
 -8.05511E+04 -1.13170E+04 -5.67803E+04 -5.11490E+04 -1.50877E+04 -6.90884E+04  2.74562E+04 -4.56627E+04
  3.98775E+04  4.04375E+03  1.60960E+04  4.76280E+04 -3.43105E+04  4.67378E+04 -6.63215E+04 -4.64949E+02
 -5.29854E+04 -5.65919E+04 -6.58313E+03 -7.63418E+04  3.36158E+04 -5.42566E+04  4.73584E+04 -1.69541E+04
  4.26034E+04  1.13043E+04  3.15686E+04  2.53736E+04  1.57832E+04  2.90016E+04 -5.04110E+03  2.73139E+04
 -2.16966E+04  1.23936E+04 -1.88370E+04 -4.94492E+03  5.08872E+03 -7.34602E+03  2.19597E+04  1.18328E+04
  7.13077E+03  3.46387E+04 -3.14138E+04  3.49112E+04 -6.24691E+04  2.18965E+03 -5.62610E+04 -4.22903E+04
 -1.26552E+04 -6.20363E+04  3.91353E+04 -4.47676E+04  5.74334E+04 -2.22306E+03  3.32868E+04  3.19196E+04
 -6.23212E+03  3.49420E+04 -2.93974E+04  1.51543E+04 -2.93760E+04 -4.49773E+03 -1.58106E+04 -1.08344E+04
 -7.68091E+03 -1.25534E+04 -8.95062E+02 -1.72500E+04  7.05157E+03 -2.32084E+04  1.51619E+04 -1.35787E+04
  1.15914E+04  4.73977E+03 -7.59661E+03  1.29063E+04 -2.05246E+04 -3.72787E+03 -8.52155E+03 -3.27705E+04
  2.20475E+04 -4.26951E+04  4.70435E+04 -1.92039E+04  4.38503E+04  1.89468E+04  1.53069E+04  4.32201E+04
 -1.56923E+04  3.24088E+04 -2.45617E+04  1.39353E+03 -9.07136E+03 -2.71920E+04  2.05593E+04 -3.28960E+04
  4.00301E+04 -8.40896E+03  3.39844E+04  2.34512E+04  1.71975E+04  4.50265E+04 -7.97056E+03  4.82735E+04
 -3.00834E+04  3.19812E+04 -4.02824E+04  9.17951E+03 -4.08015E+04 -1.58089E+04 -2.28220E+04 -3.64442E+04
  7.21675E+03 -3.62692E+04  3.10195E+04 -1.39642E+04  2.84177E+04  1.08865E+04  3.69947E+03  1.83872E+04
 -1.32593E+04  7.86944E+03 -1.02254E+04 -7.71340E+03  5.92449E+03 -1.06726E+04  1.75800E+04  6.06267E+03
  1.30479E+04  2.20787E+04 -6.10734E+03  2.40547E+04 -2.20721E+04  1.05802E+04 -2.64865E+04 -5.07928E+03
 -1.87388E+04 -1.70904E+04 -7.04943E+03 -1.89221E+04  3.88621E+03 -1.74137E+04  1.42370E+04 -1.65374E+04
  2.38449E+04 -1.24855E+04  3.04224E+04  2.18755E+03  2.27273E+04  1.81949E+04  4.26526E+03  3.46054E+04
 -1.68619E+04  2.91254E+04 -2.68248E+04  1.02677E+04 -2.02902E+04 -1.03137E+04 -4.17896E+03 -1.36484E+04
  2.37725E+03 -3.79042E+03 -3.93320E+03  5.93860E+03 -1.48285E+04  5.33401E+03 -1.49469E+04 -5.86154E+03
 -9.22187E+03 -1.72033E+04  4.68094E+03 -2.13212E+04  1.39562E+04 -1.53021E+04  1.65157E+04 -1.69579E+03
  9.95009E+03  1.18515E+04 -9.59714E+02  1.74534E+04 -1.21495E+04  9.70327E+03 -1.75745E+04 -3.60816E+03
 -1.30400E+04 -1.58743E+04 -1.44903E+03 -2.08371E+04  9.35648E+03 -1.71799E+04  1.75953E+04 -8.20962E+03
  1.62596E+04  6.29321E+02  1.15555E+04  3.95008E+03  6.02319E+03  8.02684E+02  8.69413E+03 -1.64470E+03
  1.57078E+04  2.79730E+03  1.69212E+04  1.38758E+04  1.09890E+04  2.74605E+04 -2.87680E+03  3.05461E+04
 -1.79275E+04  2.38579E+04 -2.79522E+04  1.16024E+04 -2.92530E+04 -2.23498E+03 -2.43299E+04 -1.65401E+04
 -1.11745E+04 -2.38839E+04  8.05583E+03 -2.18679E+04  1.90842E+04 -1.15723E+04  1.74728E+04  4.30808E+03
  7.03749E+03  1.27967E+04 -8.23961E+03  1.12722E+04 -1.46759E+04  2.82709E+03 -1.11633E+04 -9.26930E+03
 -1.64460E+02 -1.35900E+04  6.87078E+03 -1.02958E+04  8.91282E+03 -1.36867E+03  2.08017E+03  5.79963E+03
 -6.09676E+03  1.79215E+03 -4.83308E+03 -5.09350E+03  4.40513E+02 -1.15532E+04  8.64344E+03 -1.20432E+04
  1.45961E+04 -5.85024E+03  1.49937E+04  2.89636E+03  1.29267E+04  1.11438E+04  6.28152E+03  1.71704E+04
 -2.67825E+03  1.89357E+04 -1.18639E+04  1.18620E+04 -1.29609E+04  3.37656E+03 -9.85059E+03 -2.60473E+03
 -5.05630E+03 -3.97530E+03 -8.72756E+02  1.32040E+03 -1.66592E+03  2.33966E+03 -4.19755E+03  4.12199E+03
 -9.08236E+03 -6.35245E+02 -9.80440E+03 -8.22116E+03 -4.00725E+03 -1.31462E+04  4.05566E+03 -1.01312E+04
  8.41943E+03 -4.18461E+03  5.72531E+03  2.23814E+03  8.95691E+02  3.53107E+03 -4.34430E+03  8.08683E+01
 -4.06664E+03 -5.85156E+03 -9.73822E+02 -8.50097E+03  4.88049E+03 -9.65783E+03  1.12615E+04 -4.95063E+03
  1.36503E+04  1.07333E+03  1.02810E+04  7.46140E+03  1.90574E+03  1.07664E+04 -5.86371E+03  9.59529E+03
 -7.84962E+03  3.11179E+03 -4.00729E+03 -1.60038E+03  1.29307E+03 -2.25539E+03  5.18050E+03 -1.04405E+03
  4.63098E+03  4.04555E+03  8.45074E+02  7.32511E+03 -5.14629E+03  7.49031E+03 -9.32281E+03  2.02409E+03
 -5.72910E+03 -4.38482E+03  1.52784E+02 -7.71456E+03  4.46110E+03 -3.92482E+03  4.26530E+03  1.52174E+03
  8.04441E+02  4.32365E+03 -4.67385E+03  5.78439E+03 -6.35606E+03  2.89928E+03 -6.20613E+03 -1.63494E+03
 -3.77319E+03 -7.53966E+03  1.73046E+03 -8.81397E+03  7.52649E+03 -5.66049E+03  8.13723E+03  1.53249E+03
  5.32922E+03  6.41632E+03 -2.52796E+02  8.39042E+03 -5.72644E+03  5.08782E+03 -6.23105E+03 -5.74906E+02
 -6.40101E+03 -5.98434E+03 -1.53987E+03 -6.16540E+03  2.69467E+03 -5.47117E+03  3.54433E+03 -2.92772E+03
  2.98285E+03  4.48490E+02  2.89690E+02  1.22173E+03  5.48615E+02 -9.53736E+02  5.34308E+02 -2.79568E+03
  4.83140E+03 -1.52862E+03  6.89743E+03  8.08798E+02  6.99488E+03  3.84151E+03  5.86000E+03  9.48055E+03
 -1.69349E+03  1.07177E+04 -9.30642E+03  7.69042E+03 -1.22086E+04  1.54571E+03 -9.59740E+03 -3.65664E+03
 -5.11100E+03 -7.84366E+03 -4.06858E+02 -6.38967E+03  2.33434E+03 -3.05336E+03  2.25112E+03 -2.80084E+03
  1.59677E+03 -1.91910E+03  2.34152E+03 -2.47858E+03  3.67985E+03 -1.61172E+03  4.39713E+03 -9.18777E+01
  5.21393E+03  1.52342E+03  1.64373E+03  4.43507E+03 -1.48386E+03  3.87544E+03 -5.38057E+03  3.39332E+03
 -6.34753E+03 -1.05284E+03 -2.79411E+03 -4.27663E+03 -4.43972E+00 -6.25725E+03  3.88509E+03 -6.56230E+03
  7.12650E+03 -3.67810E+03  8.21316E+03  6.63687E+02  6.06672E+03  5.24388E+03  1.30214E+03  7.25704E+03
 -2.90519E+03  7.07105E+03 -4.28578E+03  2.24364E+03 -2.75939E+03 -1.18987E+03 -5.79539E+02 -9.39463E+02
 -7.06317E+02  4.56698E+02 -1.09807E+03  2.28422E+03 -3.07216E+03  1.31544E+03 -4.82812E+03 -2.18994E+02
 -2.52573E+03 -4.78442E+03  6.09470E+02 -5.90816E+03  3.28164E+03 -5.71974E+03  4.80530E+03 -1.62677E+03
  5.28804E+03  3.04979E+03  2.53692E+03  4.91764E+03 -9.09317E+02  5.68810E+03 -3.48477E+03  3.15691E+03
 -5.19675E+03  5.13075E+02 -4.35124E+03 -3.00339E+03 -2.17999E+02 -4.17826E+03  1.94599E+03 -3.32080E+03
  3.44625E+03 -1.56102E+03  1.90325E+03  7.06208E+02  8.07286E+02  1.95279E+03  7.96899E+02  6.02238E+02
  1.46548E+03  6.62275E+02  1.59644E+03  1.10472E+03  1.27605E+03  2.57134E+03  1.49773E+03  2.41427E+03
 -1.14223E+03  3.83148E+03 -3.27225E+03  5.04199E+03 -4.01777E+03  1.45494E+03 -5.44495E+03 -9.98987E+02
 -2.03979E+03 -4.58108E+03  1.03937E+03 -5.60433E+03  2.88863E+03 -3.24742E+03  4.02004E+03 -1.02155E+03
  3.31778E+03  1.98380E+03  6.39153E+02  2.90927E+03 -1.15220E+03  1.80788E+03 -1.71353E+03 -3.30599E+02
 -7.44266E+02 -1.86889E+03  1.38384E+03 -2.05905E+03  2.02182E+03 -9.76909E+02  1.67861E+03  2.97481E+02
  9.71727E+02  6.94061E+02  6.71018E+02  1.81189E+02 -3.49979E+02  7.22911E+02  1.61149E+03 -3.85284E+02
  5.37732E+02 -3.82283E+02  2.42470E+03  6.46386E+02  5.83763E+02  2.93542E+03 -2.81767E+02  3.41146E+03
 -1.88882E+03  1.27153E+03 -2.78705E+03  3.87195E+02 -2.53830E+03 -9.89172E+02 -8.50606E+02 -1.32057E+03
  3.20413E+02 -1.72578E+03  1.28836E+03 -9.10590E+02  8.91631E+02  1.25915E+03 -8.61587E+02  1.42562E+03
 -1.87314E+03  7.65593E+02 -1.58687E+03 -1.72860E+03 -1.23819E+03 -2.74267E+03  3.91190E+02 -1.82930E+03
  9.45578E+02 -9.92191E+02  1.26147E+03  1.44737E+02  1.63991E+03  2.42946E+02  2.32148E+02  1.45090E+03
 -4.62611E+02  1.18066E+02 -1.28466E+03 -4.24887E+02  8.58057E+02 -1.25048E+03  2.15760E+03 -8.23098E+02
  1.91371E+03  1.05654E+02  3.27766E+03  1.00615E+03  1.40933E+03  2.14370E+03 -5.69337E+02  2.55802E+03
 -2.10341E+03  6.04851E+02 -1.89557E+03 -1.86619E+02 -1.03875E+03 -1.57480E+03  3.46631E+02 -9.03642E+02
  1.99761E+03 -1.07068E+03  1.24401E+03  1.06263E+03  2.96332E+02  1.27567E+03  1.96388E+02  1.25261E+03
 -2.55929E+02  1.13016E+03 -5.72329E+02  1.18298E+02 -1.50086E+02  4.27809E+02 -8.70259E+02  8.70666E+02
 -7.83724E+02  1.38753E+03 -2.15042E+03  6.13733E+02 -2.32853E+03  1.42832E+01 -2.99171E+03 -1.52694E+03
 -1.33549E+03 -2.88680E+03  8.98812E+02 -3.69151E+03  1.65981E+03 -3.12323E+03  3.88211E+03 -1.17103E+03
  3.23395E+03  4.44316E+01  1.72444E+03  2.06003E+03 -5.30884E+02  1.88192E+03 -7.41636E+02  1.91935E+03
 -1.11222E+03  9.82026E+02 -6.31679E+02 -3.22193E+02 -7.57663E+02  1.54762E+02 -6.94270E+02  2.75195E+02
 -1.24448E+03 -1.02858E+02 -1.03573E+03 -2.92630E+01  2.85651E+02 -6.30408E+02 -1.77038E+02 -1.17975E+03
  1.19633E+03 -7.70901E+02  8.28035E+02  2.02317E+02  1.63368E+03  1.19671E+03 -3.06170E+02  1.96197E+03
 -1.19591E+03  2.92543E+03 -2.12358E+03  1.78989E+03 -2.47623E+03 -1.91390E+02 -1.87034E+03 -1.53797E+03
 -1.28039E+03 -1.90940E+03  3.47942E+02 -1.67911E+03  1.11079E+03 -9.27154E+02  1.17947E+03  3.09008E+02
  9.46714E+02  4.11340E+02  1.68400E+02  5.03097E+02 -5.94110E+02 -1.36283E+02 -8.28064E+01 -3.30243E+02
  5.37904E+02  1.30315E+02  5.56607E+02  5.72590E+02  4.07000E+02  9.27937E+02  5.74983E+02  9.16313E+02
 -8.16012E+02  8.72937E+02 -8.91687E+02  4.19433E+02 -1.27000E+03 -6.47366E+02  4.88843E+01 -1.67799E+03
  5.70962E+02 -1.02811E+03  9.79988E+02 -4.35827E+01  1.53956E+03 -4.62639E+02  8.46121E+02  1.18419E+03
  4.47229E+02  5.04678E+02 -5.26977E+02  5.91594E+02 -8.58144E+02  9.06793E+02 -6.98563E+02  9.17387E+01
 -2.73224E+02  8.39061E+01 -5.94360E+02  2.67171E+02 -6.23282E+02  6.30334E+02 -6.70191E+02 -5.14432E+02
 -1.14281E+03 -8.41039E+01 -1.48309E+02 -1.10289E+03  1.06658E+03 -1.95789E+03  1.01927E+03 -5.97610E+02
  8.80676E+02  5.26631E+00 -5.79871E+01  5.76062E+02 -1.37669E+02  1.14613E+03 -5.37531E+02  9.84012E+02
