 $NMID ID='MM_0lb_SNR800_11hz_g60_85.RAW', FMTDAT='(8E13.5)'
 TRAMP=1., VOLUME=1. $END
  3.09702E+05  4.84496E+02  3.37951E+05  2.50832E+05  8.49713E+04  3.38139E+05 -1.32673E+05  2.51545E+05
 -1.90625E+05  8.34932E+04 -1.12195E+05 -3.27407E+04  4.81906E+02 -5.05990E+04  5.41510E+04 -5.42750E+02
  3.51934E+04  5.26662E+04 -1.65227E+04  7.59271E+04 -6.15503E+04  6.44360E+04 -8.50006E+04  3.28109E+04
 -8.23099E+04 -1.16288E+04 -5.81606E+04 -5.25601E+04 -1.48090E+04 -7.09490E+04  2.78709E+04 -4.64494E+04
  4.11700E+04  3.71205E+03  1.68461E+04  4.88617E+04 -3.48027E+04  4.82516E+04 -6.80283E+04 -9.77710E+01
 -5.46720E+04 -5.76366E+04 -7.10416E+03 -7.89348E+04  3.43477E+04 -5.68989E+04  4.96237E+04 -1.82332E+04
  4.52439E+04  1.11924E+04  3.30214E+04  2.66589E+04  1.58605E+04  3.04514E+04 -6.12021E+03  2.77363E+04
 -2.27346E+04  1.21405E+04 -1.82985E+04 -5.66596E+03  6.75639E+03 -7.25129E+03  2.33493E+04  1.34465E+04
  7.29032E+03  3.73583E+04 -3.37661E+04  3.69473E+04 -6.56726E+04  2.04533E+03 -5.88042E+04 -4.46466E+04
 -1.27939E+04 -6.56904E+04  4.09813E+04 -4.70483E+04  6.10021E+04 -2.61667E+03  3.63489E+04  3.43802E+04
 -5.66808E+03  3.90159E+04 -3.13150E+04  1.86158E+04 -3.30900E+04 -3.84774E+03 -1.90042E+04 -1.19441E+04
 -9.19336E+03 -1.45654E+04 -2.90473E+02 -1.95481E+04  8.41927E+03 -2.32636E+04  1.57814E+04 -1.25598E+04
  1.04833E+04  6.30168E+03 -1.00199E+04  1.31792E+04 -2.31557E+04 -6.21765E+03 -8.27996E+03 -3.71560E+04
  2.47387E+04 -4.61603E+04  5.16272E+04 -2.06466E+04  4.79724E+04  2.05435E+04  1.69328E+04  4.69161E+04
 -1.68592E+04  3.57015E+04 -2.75864E+04  2.35165E+03 -1.13432E+04 -2.85833E+04  2.11065E+04 -3.66858E+04
  4.42302E+04 -1.04074E+04  3.96660E+04  2.48917E+04  2.10476E+04  5.02098E+04 -8.58138E+03  5.53934E+04
 -3.50904E+04  3.77838E+04 -4.67329E+04  1.09280E+04 -4.67022E+04 -1.78607E+04 -2.55896E+04 -4.14538E+04
  7.74738E+03 -4.15106E+04  3.38295E+04 -1.67759E+04  3.20935E+04  1.10271E+04  5.07444E+03  2.08900E+04
 -1.37122E+04  9.45808E+03 -1.11145E+04 -7.42115E+03  5.60336E+03 -1.15290E+04  1.87964E+04  5.69753E+03
  1.44134E+04  2.26458E+04 -5.32169E+03  2.66176E+04 -2.32899E+04  1.35751E+04 -3.09161E+04 -3.16262E+03
 -2.45884E+04 -1.81339E+04 -1.13744E+04 -2.43737E+04  4.61886E+03 -2.44544E+04  1.90057E+04 -2.26340E+04
  3.12518E+04 -1.40924E+04  3.72148E+04  4.35633E+03  2.68913E+04  2.35159E+04  4.36535E+03  4.02998E+04
 -1.92134E+04  3.36727E+04 -3.02171E+04  1.13815E+04 -2.23467E+04 -1.02814E+04 -4.81601E+03 -1.25470E+04
  6.05909E+02 -1.51011E+03 -7.25156E+03  8.21962E+03 -1.91998E+04  4.98887E+03 -1.95743E+04 -9.45968E+03
 -1.15240E+04 -2.32001E+04  5.90802E+03 -2.69645E+04  1.82295E+04 -1.90205E+04  2.17279E+04 -1.59556E+03
  1.39979E+04  1.56910E+04 -1.30853E+03  2.23530E+04 -1.63300E+04  1.29678E+04 -2.26161E+04 -4.83426E+03
 -1.64116E+04 -2.02262E+04 -1.98111E+03 -2.74007E+04  1.23881E+04 -2.29578E+04  2.24621E+04 -1.15445E+04
  2.12489E+04 -4.80761E+02  1.55089E+04  4.87392E+03  8.18989E+03  1.10440E+03  1.15495E+04 -2.18686E+03
  2.06436E+04  3.14566E+03  2.45307E+04  1.76465E+04  1.66291E+04  3.63132E+04 -2.81656E+03  4.22246E+04
 -2.38981E+04  3.49997E+04 -4.00684E+04  1.81500E+04 -4.26100E+04 -3.26735E+03 -3.43841E+04 -2.48840E+04
 -1.36922E+04 -3.50767E+04  1.25142E+04 -3.09933E+04  2.66413E+04 -1.45991E+04  2.31667E+04  7.54694E+03
  7.85698E+03  1.75449E+04 -1.08414E+04  1.53790E+04 -1.96666E+04  2.78791E+03 -1.46368E+04 -1.21691E+04
 -4.25305E+02 -1.86504E+04  1.01025E+04 -1.38839E+04  1.28129E+04 -1.17164E+03  3.10624E+03  7.99491E+03
 -8.33976E+03  4.03996E+03 -8.42694E+03 -6.82230E+03 -1.38520E+03 -1.71149E+04  1.14945E+04 -1.85098E+04
  2.17498E+04 -1.06272E+04  2.48759E+04  3.12715E+03  2.15980E+04  1.79335E+04  9.93736E+03  2.71914E+04
 -5.31175E+03  2.90703E+04 -1.91563E+04  1.82137E+04 -2.12088E+04  3.99063E+03 -1.47850E+04 -5.50262E+03
 -6.40850E+03 -6.35324E+03 -5.72875E+02  4.29363E+02 -2.55472E+03  3.32140E+03 -7.13673E+03  5.16471E+03
 -1.32105E+04 -1.16490E+03 -1.39246E+04 -1.13400E+04 -5.94642E+03 -1.82098E+04  6.36829E+03 -1.47351E+04
  1.19598E+04 -6.16654E+03  8.60843E+03  4.04753E+03 -2.66567E+02  5.86623E+03 -7.19906E+03 -2.21586E+02
 -6.81807E+03 -9.13300E+03 -8.83340E+02 -1.39837E+04  7.94527E+03 -1.50197E+04  1.85430E+04 -8.29930E+03
  2.20395E+04  2.14713E+03  1.59809E+04  1.36171E+04  3.08825E+03  1.74102E+04 -9.11006E+03  1.47223E+04
 -1.17519E+04  3.99849E+03 -6.11151E+03 -2.74379E+03  2.15961E+03 -4.36746E+03  7.99284E+03 -1.18280E+03
  6.39424E+03  6.43524E+03  9.86668E+02  1.17951E+04 -8.07752E+03  1.09798E+04 -1.44847E+04  2.80807E+03
 -9.81566E+03 -7.76679E+03  1.15805E+02 -1.23876E+04  7.94720E+03 -6.46782E+03  8.86822E+03  3.06965E+03
  2.14710E+03  9.02239E+03 -7.73285E+03  1.06643E+04 -1.21320E+04  4.95600E+03 -1.22590E+04 -4.19491E+03
 -7.03914E+03 -1.40072E+04  3.35167E+03 -1.62370E+04  1.38840E+04 -1.00127E+04  1.51142E+04  2.67323E+03
  9.15538E+03  1.20566E+04 -1.48457E+03  1.44414E+04 -1.04766E+04  8.32926E+03 -1.16736E+04 -9.36854E+02
 -1.00056E+04 -9.83759E+03 -1.61531E+03 -1.09511E+04  5.81853E+03 -8.73995E+03  6.80051E+03 -3.34168E+03
  4.74329E+03  1.69795E+03 -1.06738E+03  1.68397E+03 -6.43812E+02 -2.77651E+03  2.47977E+03 -6.59966E+03
  1.01240E+04 -3.90177E+03  1.42446E+04  1.73997E+03  1.38544E+04  9.75397E+03  9.36839E+03  1.85400E+04
 -4.34883E+03  2.10920E+04 -1.76697E+04  1.55164E+04 -2.29408E+04  2.85672E+03 -1.83617E+04 -8.07329E+03
 -9.33562E+03 -1.49388E+04 -2.46457E+02 -1.29195E+04  4.65313E+03 -7.39489E+03  4.27770E+03 -4.25037E+03
  3.48358E+03 -2.86045E+03  3.56926E+03 -3.45960E+03  5.54459E+03 -3.44008E+03  7.46338E+03 -8.61562E+02
  9.86786E+03  2.28845E+03  4.84365E+03  8.32258E+03 -1.97142E+03  9.50667E+03 -9.97587E+03  7.61711E+03
 -1.28677E+04 -1.10986E+03 -7.86995E+03 -8.69377E+03 -9.15853E+02 -1.38912E+04  7.68040E+03 -1.37473E+04
  1.41156E+04 -7.40103E+03  1.74663E+04  2.25721E+03  1.20029E+04  1.20073E+04  1.68140E+03  1.51921E+04
 -6.25040E+03  1.28888E+04 -9.27428E+03  4.44903E+03 -6.07650E+03 -1.22354E+03 -2.67732E+03 -1.95799E+03
 -1.13649E+03 -1.61450E+02 -2.16111E+03  2.67875E+03 -5.67856E+03  2.14472E+03 -9.15693E+03 -1.39880E+03
 -5.71956E+03 -8.92217E+03  2.77444E+01 -1.26752E+04  7.42350E+03 -1.18212E+04  1.26357E+04 -3.44520E+03
  1.24538E+04  5.94688E+03  5.80988E+03  1.12910E+04 -2.47470E+03  1.30356E+04 -9.13989E+03  7.98643E+03
 -1.15055E+04  6.53426E+02 -9.40627E+03 -8.10265E+03 -9.59022E+02 -1.04103E+04  5.51038E+03 -7.67947E+03
  7.74296E+03 -2.61425E+03  5.51115E+03  1.97941E+03  1.64483E+03  3.78506E+03  1.07291E+03  1.78620E+03
  2.94110E+03  8.79990E+02  3.43903E+03  1.79279E+03  3.86517E+03  4.64717E+03  3.35903E+03  6.91303E+03
 -2.63281E+03  9.79313E+03 -8.66854E+03  9.74392E+03 -1.26638E+04  2.61644E+03 -1.29428E+04 -5.33817E+03
 -6.28133E+03 -1.28008E+04  1.51873E+03 -1.39825E+04  7.37288E+03 -8.79735E+03  1.01238E+04 -2.37051E+03
  7.86757E+03  4.80378E+03  1.78978E+03  6.94809E+03 -3.83275E+03  4.45407E+03 -4.74503E+03 -7.68186E+02
 -1.95520E+03 -5.26222E+03  2.93066E+03 -5.30929E+03  5.40915E+03 -2.84456E+03  4.89943E+03  1.27482E+03
  2.72149E+03  2.40076E+03  1.36062E+03  1.93657E+03 -7.72619E+02  1.63582E+03  2.06129E+03 -7.31310E+02
  1.92890E+03 -8.80630E+02  5.20549E+03  2.02470E+03  2.91271E+03  6.74895E+03 -1.11722E+03  8.51599E+03
 -6.00704E+03  5.29562E+03 -7.97019E+03  1.20651E+03 -7.02049E+03 -2.44001E+03 -2.50116E+03 -4.61219E+03
  1.03315E+03 -4.65540E+03  3.18925E+03 -2.15710E+03  2.72839E+03  2.54920E+03 -1.18518E+03  4.07910E+03
 -5.22251E+03  2.41097E+03 -5.54801E+03 -3.03486E+03 -3.07172E+03 -6.82959E+03  1.05873E+03 -7.03181E+03
  4.07826E+03 -4.04210E+03  4.64367E+03 -7.26233E+02  4.73213E+03  1.42739E+03  5.38428E+02  3.44189E+03
 -2.25773E+03  7.37022E+02 -3.08671E+03 -2.04757E+03  1.31885E+03 -5.30026E+03  6.26387E+03 -4.39934E+03
  7.57778E+03  4.25845E+02  7.60306E+03  5.36888E+03  2.29316E+03  7.65589E+03 -2.52597E+03  7.89585E+03
 -6.21607E+03  2.82614E+03 -6.73140E+03 -1.06592E+03 -3.72869E+03 -5.49279E+03  1.11879E+03 -4.46997E+03
  5.11201E+03 -2.70778E+03  3.90618E+03  2.26675E+03  1.62973E+03  4.39075E+03 -6.12713E+02  3.89812E+03
 -1.68886E+03  2.79392E+03 -1.72364E+03  1.05554E+03 -6.54523E+02  2.94109E+02 -1.13223E+03  1.55311E+03
 -1.88665E+03  3.02479E+03 -5.53939E+03  3.11483E+03 -8.08129E+03  3.51453E+02 -9.13114E+03 -5.04970E+03
 -4.21127E+03 -9.92606E+03  1.70124E+03 -1.18468E+04  6.83400E+03 -9.51917E+03  1.13203E+04 -3.55327E+03
  1.00775E+04  1.89080E+03  5.87615E+03  7.02115E+03  5.32012E+02  8.08101E+03 -3.63963E+03  6.00399E+03
 -4.45198E+03  2.46070E+03 -2.84907E+03 -1.18425E+03 -5.31368E+02 -5.75594E+02 -8.63189E+02  2.59375E+02
 -1.86126E+03  1.80522E+02 -2.02848E+03 -2.96207E+02 -6.00515E+02 -2.14555E+03 -3.57921E+02 -3.25338E+03
  3.77627E+03 -2.70897E+03  4.38412E+03 -7.57746E+01  5.36201E+03  4.24908E+03  1.17711E+03  7.77468E+03
 -3.47323E+03  9.18432E+03 -8.21792E+03  4.98679E+03 -9.51778E+03 -6.52774E+02 -7.26621E+03 -5.76629E+03
 -3.31301E+03 -7.47588E+03  1.76339E+03 -7.41824E+03  5.03821E+03 -3.95823E+03  5.30567E+03  3.43739E+02
  2.70519E+03  2.82937E+03 -2.10111E+02  2.43257E+03 -1.52813E+03  7.20234E+01 -5.73608E+01 -1.53981E+03
  2.43019E+03 -9.54919E+02  3.14110E+03  1.15327E+03  1.95370E+03  3.05548E+03  4.58612E+01  3.84414E+03
 -3.40877E+03  3.43839E+03 -4.69238E+03  5.62858E+02 -4.35212E+03 -3.61808E+03 -6.37241E+02 -6.58842E+03
  3.59000E+03 -5.01804E+03  5.17196E+03 -1.72442E+03  5.63598E+03  1.03965E+03  3.32643E+03  4.50825E+03
  8.25122E+02  4.88167E+03 -2.17267E+03  3.86421E+03 -3.42896E+03  2.08152E+03 -2.38437E+03  4.44164E+02
 -1.27374E+03 -2.71453E+01 -1.47417E+03  6.08412E+02 -3.05457E+03  3.56733E+02 -3.50682E+03 -7.71659E+02
 -3.72630E+03 -2.32065E+03 -1.27439E+03 -5.06664E+03  2.40800E+03 -5.66562E+03  4.38705E+03 -2.58766E+03
  4.71215E+03  5.56347E+02  2.49548E+03  3.43661E+03 -2.96931E+02  4.42931E+03 -3.70047E+03  2.98787E+03
