 $NMID ID='MM_0lb_SNR800_11hz_g50_64.RAW', FMTDAT='(8E13.5)'
 TRAMP=1., VOLUME=1. $END
  3.09628E+05  5.33645E+02  3.37980E+05  2.50394E+05  8.46783E+04  3.38781E+05 -1.32660E+05  2.51643E+05
 -1.90484E+05  8.40204E+04 -1.12239E+05 -3.24123E+04  6.94121E+02 -5.03892E+04  5.34826E+04 -1.96254E+02
  3.58007E+04  5.27206E+04 -1.66601E+04  7.55899E+04 -6.11792E+04  6.41601E+04 -8.49341E+04  3.20476E+04
 -8.17884E+04 -1.13930E+04 -5.78174E+04 -5.18049E+04 -1.50875E+04 -7.02481E+04  2.79463E+04 -4.66386E+04
  4.05682E+04  3.71836E+03  1.66243E+04  4.79928E+04 -3.47311E+04  4.78115E+04 -6.72043E+04 -7.89255E+01
 -5.42679E+04 -5.75171E+04 -7.40526E+03 -7.79408E+04  3.46233E+04 -5.62112E+04  4.88955E+04 -1.80134E+04
  4.42065E+04  1.14374E+04  3.26428E+04  2.58604E+04  1.60506E+04  3.01871E+04 -5.87762E+03  2.76692E+04
 -2.23373E+04  1.19725E+04 -1.80236E+04 -5.66182E+03  6.67480E+03 -7.28358E+03  2.29454E+04  1.32204E+04
  6.89705E+03  3.66238E+04 -3.31208E+04  3.64136E+04 -6.52535E+04  1.92559E+03 -5.83595E+04 -4.36211E+04
 -1.27058E+04 -6.47001E+04  4.09925E+04 -4.65510E+04  6.01822E+04 -2.36664E+03  3.58864E+04  3.37089E+04
 -5.94149E+03  3.81754E+04 -3.11462E+04  1.79336E+04 -3.21728E+04 -3.61036E+03 -1.85111E+04 -1.15063E+04
 -8.89695E+03 -1.43196E+04 -5.31041E+02 -1.92054E+04  8.12704E+03 -2.35388E+04  1.58117E+04 -1.28573E+04
  1.06453E+04  5.64572E+03 -9.84810E+03  1.34036E+04 -2.27039E+04 -5.91331E+03 -8.52014E+03 -3.59887E+04
  2.42925E+04 -4.54342E+04  5.03669E+04 -2.05936E+04  4.73411E+04  2.01409E+04  1.67372E+04  4.62336E+04
 -1.64832E+04  3.46957E+04 -2.65297E+04  2.14514E+03 -1.08810E+04 -2.90741E+04  2.10991E+04 -3.57795E+04
  4.34888E+04 -1.06014E+04  3.85662E+04  2.45002E+04  2.03987E+04  4.89948E+04 -8.04655E+03  5.33459E+04
 -3.40986E+04  3.60392E+04 -4.57711E+04  1.07137E+04 -4.57951E+04 -1.77168E+04 -2.48333E+04 -4.06302E+04
  7.51774E+03 -4.01348E+04  3.28999E+04 -1.61470E+04  3.07812E+04  1.08416E+04  4.75520E+03  2.05279E+04
 -1.31319E+04  8.81074E+03 -1.08954E+04 -7.57555E+03  5.59275E+03 -1.09278E+04  1.81510E+04  5.75316E+03
  1.43380E+04  2.27123E+04 -5.72844E+03  2.65545E+04 -2.32141E+04  1.34463E+04 -3.03616E+04 -3.91247E+03
 -2.35221E+04 -1.80035E+04 -1.03822E+04 -2.32568E+04  4.39804E+03 -2.33747E+04  1.80194E+04 -2.13456E+04
  2.99761E+04 -1.36131E+04  3.58767E+04  4.21615E+03  2.54812E+04  2.24823E+04  4.19500E+03  3.95349E+04
 -1.88823E+04  3.24828E+04 -2.97262E+04  1.14160E+04 -2.17237E+04 -1.00427E+04 -4.92139E+03 -1.30359E+04
  7.34466E+02 -1.73332E+03 -6.95638E+03  7.74665E+03 -1.88049E+04  5.18438E+03 -1.86408E+04 -8.43304E+03
 -1.14775E+04 -2.15187E+04  5.24395E+03 -2.61121E+04  1.76545E+04 -1.83547E+04  2.06951E+04 -1.93282E+03
  1.31549E+04  1.48117E+04 -1.55216E+03  2.17125E+04 -1.50511E+04  1.22371E+04 -2.22472E+04 -4.27823E+03
 -1.60702E+04 -1.94789E+04 -2.09407E+03 -2.60376E+04  1.18245E+04 -2.15665E+04  2.16065E+04 -1.13212E+04
  2.03178E+04 -4.36516E+02  1.46632E+04  5.30602E+03  7.77765E+03  1.10476E+03  1.14151E+04 -1.96203E+03
  2.01974E+04  3.12863E+03  2.28067E+04  1.67366E+04  1.53218E+04  3.47735E+04 -2.73662E+03  3.97739E+04
 -2.30276E+04  3.30900E+04 -3.77733E+04  1.71047E+04 -4.00748E+04 -3.02228E+03 -3.26151E+04 -2.30391E+04
 -1.33376E+04 -3.33502E+04  1.13361E+04 -2.89439E+04  2.52641E+04 -1.41299E+04  2.20502E+04  7.28897E+03
  7.43521E+03  1.71340E+04 -1.03670E+04  1.43695E+04 -1.88071E+04  2.72140E+03 -1.45405E+04 -1.20417E+04
 -3.26489E+02 -1.75739E+04  9.66074E+03 -1.34119E+04  1.18952E+04 -1.41697E+03  2.76443E+03  7.79615E+03
 -7.84872E+03  3.55935E+03 -7.69296E+03 -6.65376E+03 -1.61697E+03 -1.61272E+04  1.12369E+04 -1.71773E+04
  2.03927E+04 -9.53895E+03  2.23678E+04  3.46754E+03  1.99120E+04  1.62936E+04  8.99106E+03  2.56195E+04
 -4.37155E+03  2.76999E+04 -1.78216E+04  1.67816E+04 -1.94828E+04  4.03642E+03 -1.33146E+04 -4.40678E+03
 -5.87514E+03 -6.25916E+03 -6.31652E+02  8.43134E+02 -2.77800E+03  2.89483E+03 -6.72333E+03  5.08918E+03
 -1.27747E+04 -1.01521E+03 -1.33048E+04 -1.05454E+04 -5.41155E+03 -1.75882E+04  6.04990E+03 -1.40133E+04
  1.12549E+04 -5.36939E+03  8.07355E+03  3.78445E+03  8.50145E+01  5.26406E+03 -6.67743E+03 -2.21837E+02
 -6.60674E+03 -8.63281E+03 -1.19674E+03 -1.35577E+04  7.56966E+03 -1.44249E+04  1.79732E+04 -8.01285E+03
  2.04505E+04  1.80104E+03  1.50300E+04  1.27513E+04  2.84720E+03  1.60109E+04 -8.41831E+03  1.33317E+04
 -1.13238E+04  4.44777E+03 -5.92586E+03 -2.98293E+03  1.97705E+03 -3.63351E+03  7.55511E+03 -1.08095E+03
  6.77315E+03  6.12955E+03  1.47642E+03  1.11468E+04 -8.14387E+03  1.04974E+04 -1.32128E+04  2.50851E+03
 -9.14608E+03 -6.99361E+03  1.17092E+02 -1.19015E+04  7.52756E+03 -5.86957E+03  7.84594E+03  2.80979E+03
  1.79629E+03  8.28053E+03 -7.23528E+03  9.76602E+03 -1.14574E+04  4.40169E+03 -1.12428E+04 -4.05951E+03
 -7.08302E+03 -1.37587E+04  3.10792E+03 -1.53244E+04  1.28687E+04 -9.12325E+03  1.41879E+04  2.13328E+03
  8.24156E+03  1.12012E+04 -1.06603E+03  1.36472E+04 -9.96900E+03  7.39703E+03 -1.06787E+04 -1.07843E+03
 -8.94218E+03 -8.83559E+03 -1.69167E+03 -1.02866E+04  5.63740E+03 -8.32877E+03  6.62162E+03 -3.61446E+03
  4.12243E+03  1.49539E+03 -9.72480E+02  1.90036E+03 -5.46073E+02 -2.79653E+03  2.63086E+03 -6.11201E+03
  9.14943E+03 -3.89449E+03  1.32149E+04  1.61722E+03  1.31679E+04  8.71454E+03  8.98295E+03  1.69828E+04
 -4.12037E+03  1.99248E+04 -1.66711E+04  1.45753E+04 -2.14785E+04  2.73649E+03 -1.71743E+04 -7.36379E+03
 -8.97872E+03 -1.42825E+04 -4.02852E+02 -1.21410E+04  4.23148E+03 -6.70445E+03  4.21042E+03 -4.22988E+03
  3.13519E+03 -3.03133E+03  3.47721E+03 -3.33978E+03  5.19935E+03 -2.98513E+03  6.93480E+03 -8.88307E+02
  8.76768E+03  2.29624E+03  4.95158E+03  7.69732E+03 -1.93609E+03  8.83987E+03 -9.34086E+03  7.28117E+03
 -1.20850E+04 -1.31243E+03 -7.28629E+03 -8.05073E+03 -8.30908E+02 -1.26596E+04  7.25035E+03 -1.27025E+04
  1.29745E+04 -7.26810E+03  1.56677E+04  1.70957E+03  1.09129E+04  1.12538E+04  1.92667E+03  1.46483E+04
 -5.73390E+03  1.18958E+04 -8.31263E+03  4.31457E+03 -5.62863E+03 -1.69052E+03 -2.67846E+03 -1.35797E+03
 -1.37097E+03 -1.02330E+02 -1.82201E+03  2.67680E+03 -5.43147E+03  1.75579E+03 -8.12239E+03 -1.38539E+03
 -5.66754E+03 -8.45105E+03 -1.72414E+02 -1.19287E+04  7.04893E+03 -1.07063E+04  1.12971E+04 -3.18643E+03
  1.15338E+04  5.37642E+03  5.34638E+03  1.01255E+04 -2.41471E+03  1.18049E+04 -8.00553E+03  7.37454E+03
 -1.10327E+04  4.86540E+02 -8.39819E+03 -7.07988E+03 -8.74621E+02 -9.59066E+03  5.11697E+03 -7.25655E+03
  7.30208E+03 -2.35197E+03  5.23641E+03  1.88409E+03  2.12609E+03  3.56399E+03  1.16912E+03  1.53742E+03
  2.07693E+03  9.74249E+02  2.60774E+03  1.93853E+03  2.73431E+03  4.45081E+03  2.88895E+03  6.10262E+03
 -2.50863E+03  9.05013E+03 -7.99797E+03  9.55997E+03 -1.13785E+04  2.26710E+03 -1.19504E+04 -4.55504E+03
 -5.81992E+03 -1.14013E+04  1.67826E+03 -1.30430E+04  7.06869E+03 -8.45949E+03  9.96871E+03 -2.50743E+03
  7.25642E+03  4.44369E+03  1.86677E+03  6.75704E+03 -3.02831E+03  4.49664E+03 -4.38980E+03 -5.06847E+02
 -2.07545E+03 -4.90704E+03  2.67076E+03 -4.95084E+03  4.56006E+03 -2.69781E+03  4.75354E+03  8.36740E+02
  3.10460E+03  2.36306E+03  1.13389E+03  1.36666E+03 -5.21630E+02  1.45588E+03  1.68543E+03 -5.62230E+02
  1.43912E+03 -4.73825E+02  4.97090E+03  1.78363E+03  2.16462E+03  6.57438E+03 -1.07570E+03  8.29206E+03
 -5.21381E+03  4.83935E+03 -7.28476E+03  1.56788E+03 -6.39724E+03 -2.65284E+03 -2.47564E+03 -4.25823E+03
  4.85558E+02 -4.42824E+03  3.15886E+03 -2.09912E+03  2.77862E+03  2.19600E+03 -1.20167E+03  3.61546E+03
 -4.70029E+03  2.06871E+03 -5.15492E+03 -2.78979E+03 -3.06116E+03 -6.43494E+03  8.81614E+02 -6.12134E+03
  3.41496E+03 -3.42888E+03  4.55860E+03 -4.48939E+02  3.81686E+03  1.44739E+03  2.94763E+02  3.36582E+03
 -2.12449E+03  1.08687E+03 -2.78388E+03 -2.27310E+03  1.04916E+03 -4.44214E+03  5.51510E+03 -3.63305E+03
  6.92958E+03  4.40853E+02  7.28813E+03  4.48408E+03  2.22306E+03  7.30386E+03 -2.24973E+03  6.87037E+03
 -6.17157E+03  2.63021E+03 -5.93603E+03 -5.19422E+02 -3.38266E+03 -4.67100E+03  1.21439E+03 -4.56471E+03
  4.37397E+03 -2.37985E+03  4.21026E+03  1.78280E+03  1.14149E+03  4.17484E+03 -6.35341E+02  3.66439E+03
 -1.91855E+03  2.31820E+03 -1.81938E+03  8.23148E+02 -9.41907E+02  5.93591E+02 -1.28978E+03  1.55398E+03
 -1.96444E+03  2.83937E+03 -5.18659E+03  2.45868E+03 -7.48404E+03 -5.20734E+01 -8.12426E+03 -4.57370E+03
 -4.17642E+03 -9.56323E+03  1.70134E+03 -1.11266E+04  6.90549E+03 -8.70527E+03  1.07816E+04 -3.07866E+03
  9.85914E+03  1.97789E+03  5.83674E+03  6.73475E+03  1.50518E+02  7.22066E+03 -2.94858E+03  5.52424E+03
 -4.33372E+03  2.07921E+03 -2.50065E+03 -7.69702E+02 -1.02710E+03 -6.11728E+02 -9.48866E+02  5.06246E+01
 -1.56625E+03  4.18163E+02 -1.97166E+03 -1.95467E+02 -3.19062E+02 -1.84540E+03 -7.43099E+01 -2.77490E+03
  3.50801E+03 -2.58727E+03  4.14154E+03  1.59132E+02  5.06732E+03  3.73864E+03  1.16875E+03  7.34958E+03
 -3.68820E+03  8.34144E+03 -7.37394E+03  4.71805E+03 -9.09850E+03 -7.82841E+02 -6.39350E+03 -5.44546E+03
 -3.13773E+03 -7.07000E+03  1.65440E+03 -6.65115E+03  4.56569E+03 -3.76180E+03  4.46413E+03  1.54249E+02
  2.85162E+03  2.23524E+03 -6.75053E+01  1.82096E+03 -1.33390E+03 -3.05890E+02 -2.27199E+02 -1.58830E+03
  2.11265E+03 -9.42706E+02  2.90526E+03  1.21119E+03  1.96368E+03  2.64257E+03  4.65430E+02  3.73205E+03
 -2.87454E+03  3.38764E+03 -4.59935E+03  2.02121E+02 -4.07861E+03 -3.38926E+03 -8.31265E+02 -5.96235E+03
  3.40566E+03 -4.75116E+03  5.44710E+03 -1.53860E+03  5.26600E+03  1.35080E+03  3.32444E+03  4.31221E+03
  6.89591E+02  4.62273E+03 -1.68321E+03  3.61877E+03 -2.77244E+03  2.00240E+03 -1.76312E+03  1.71034E+02
 -1.06759E+03 -3.96350E+02 -1.12744E+03  5.49723E+02 -2.95554E+03  8.88425E+02 -3.70134E+03 -7.71703E+02
 -3.13548E+03 -2.19352E+03 -1.42648E+03 -4.68048E+03  2.21922E+03 -5.20234E+03  4.27307E+03 -2.08347E+03
  4.46284E+03  1.49732E+02  2.36316E+03  2.98534E+03 -4.54922E+02  4.63629E+03 -3.19569E+03  3.38080E+03
