 $NMID ID='MM_0lb_SNR800_10hz_g50_80.RAW', FMTDAT='(8E13.5)'
 TRAMP=1., VOLUME=1. $END
  3.09659E+05  4.94707E+02  3.37795E+05  2.50929E+05  8.43815E+04  3.38422E+05 -1.32537E+05  2.51672E+05
 -1.90794E+05  8.38575E+04 -1.12619E+05 -3.28820E+04  5.53390E+02 -5.05094E+04  5.38244E+04 -2.45995E+02
  3.56224E+04  5.31800E+04 -1.68431E+04  7.63150E+04 -6.10122E+04  6.43634E+04 -8.49179E+04  3.23538E+04
 -8.19902E+04 -1.16859E+04 -5.81477E+04 -5.27153E+04 -1.50602E+04 -7.06749E+04  2.78290E+04 -4.65742E+04
  4.07571E+04  3.67004E+03  1.68123E+04  4.84714E+04 -3.48296E+04  4.82799E+04 -6.75362E+04  6.14354E+01
 -5.45189E+04 -5.75743E+04 -7.23850E+03 -7.85484E+04  3.42113E+04 -5.66540E+04  4.92818E+04 -1.77701E+04
  4.48941E+04  1.12001E+04  3.26075E+04  2.60657E+04  1.58525E+04  3.02632E+04 -5.91477E+03  2.77332E+04
 -2.24495E+04  1.21639E+04 -1.80702E+04 -5.64603E+03  7.01091E+03 -7.52400E+03  2.34178E+04  1.30253E+04
  7.05437E+03  3.65581E+04 -3.36976E+04  3.69648E+04 -6.54555E+04  2.18802E+03 -5.83574E+04 -4.39407E+04
 -1.25546E+04 -6.53911E+04  4.14233E+04 -4.66928E+04  6.04582E+04 -2.34298E+03  3.57818E+04  3.39049E+04
 -5.51330E+03  3.86289E+04 -3.13780E+04  1.79637E+04 -3.25737E+04 -3.64343E+03 -1.88272E+04 -1.19440E+04
 -9.41145E+03 -1.46440E+04 -6.63225E+02 -1.94316E+04  8.32176E+03 -2.38222E+04  1.58862E+04 -1.29351E+04
  1.07813E+04  6.34517E+03 -1.01784E+04  1.29484E+04 -2.26147E+04 -6.05345E+03 -8.23869E+03 -3.67969E+04
  2.43643E+04 -4.63632E+04  5.14250E+04 -2.05917E+04  4.80837E+04  2.07099E+04  1.73498E+04  4.66089E+04
 -1.65193E+04  3.55620E+04 -2.71974E+04  2.32764E+03 -1.09809E+04 -2.89452E+04  2.14251E+04 -3.59465E+04
  4.40162E+04 -1.04757E+04  3.91235E+04  2.47189E+04  2.08578E+04  5.00355E+04 -8.00010E+03  5.49610E+04
 -3.49228E+04  3.73989E+04 -4.62628E+04  1.10684E+04 -4.68466E+04 -1.82332E+04 -2.61064E+04 -4.16309E+04
  7.80230E+03 -4.09174E+04  3.34621E+04 -1.67270E+04  3.15007E+04  1.10075E+04  5.19031E+03  2.02894E+04
 -1.37454E+04  9.08060E+03 -1.10016E+04 -7.75818E+03  5.70605E+03 -1.12924E+04  1.84471E+04  5.66638E+03
  1.43704E+04  2.21751E+04 -5.41442E+03  2.63436E+04 -2.31402E+04  1.38473E+04 -3.02800E+04 -3.57181E+03
 -2.43379E+04 -1.79274E+04 -1.08605E+04 -2.42280E+04  4.28232E+03 -2.41906E+04  1.88391E+04 -2.22247E+04
  3.11867E+04 -1.42611E+04  3.68315E+04  4.22589E+03  2.67490E+04  2.33734E+04  4.50759E+03  4.01753E+04
 -1.92149E+04  3.32461E+04 -3.03368E+04  1.17828E+04 -2.19980E+04 -1.00956E+04 -4.54285E+03 -1.30270E+04
  9.61168E+02 -1.61892E+03 -7.30765E+03  7.74697E+03 -1.94413E+04  5.01708E+03 -1.97029E+04 -9.22524E+03
 -1.15672E+04 -2.25295E+04  5.80111E+03 -2.65879E+04  1.79028E+04 -1.90104E+04  2.17534E+04 -1.42793E+03
  1.39828E+04  1.56770E+04 -1.21527E+03  2.22714E+04 -1.58294E+04  1.31381E+04 -2.27678E+04 -4.24016E+03
 -1.65295E+04 -2.02096E+04 -1.99363E+03 -2.69581E+04  1.21367E+04 -2.26518E+04  2.24379E+04 -1.16621E+04
  2.11547E+04  3.05358E+01  1.52450E+04  5.09134E+03  8.36043E+03  9.87131E+02  1.16977E+04 -1.97839E+03
  2.11908E+04  2.92259E+03  2.41615E+04  1.80631E+04  1.65062E+04  3.62181E+04 -2.58044E+03  4.22670E+04
 -2.42467E+04  3.47267E+04 -3.98384E+04  1.81375E+04 -4.22666E+04 -3.21575E+03 -3.44462E+04 -2.47038E+04
 -1.39052E+04 -3.50764E+04  1.24980E+04 -3.09037E+04  2.64239E+04 -1.49322E+04  2.33162E+04  7.53472E+03
  8.08314E+03  1.77885E+04 -1.06918E+04  1.50886E+04 -1.92911E+04  2.51465E+03 -1.42596E+04 -1.21962E+04
 -4.22740E+02 -1.80745E+04  1.01364E+04 -1.38367E+04  1.26105E+04 -1.03750E+03  3.29723E+03  8.21458E+03
 -8.70178E+03  4.17130E+03 -8.43805E+03 -7.11350E+03 -1.91352E+03 -1.69981E+04  1.16542E+04 -1.89485E+04
  2.16579E+04 -1.02373E+04  2.37605E+04  3.24224E+03  2.15807E+04  1.77316E+04  1.00610E+04  2.72476E+04
 -4.94736E+03  2.94146E+04 -1.90316E+04  1.80343E+04 -2.11003E+04  3.78695E+03 -1.46335E+04 -5.16718E+03
 -6.28600E+03 -6.30459E+03 -1.04148E+03  7.93677E+01 -2.64250E+03  3.33484E+03 -7.23438E+03  5.18477E+03
 -1.38300E+04 -1.16658E+03 -1.41875E+04 -1.10645E+04 -6.07783E+03 -1.82343E+04  5.99968E+03 -1.48763E+04
  1.21571E+04 -6.60109E+03  9.06526E+03  4.00647E+03 -3.52848E+02  5.85618E+03 -7.25513E+03  5.15676E+01
 -7.01042E+03 -9.49496E+03 -8.68155E+02 -1.45716E+04  8.59528E+03 -1.54562E+04  1.89021E+04 -8.09541E+03
  2.20478E+04  2.50286E+03  1.61017E+04  1.34401E+04  3.22529E+03  1.74505E+04 -9.09503E+03  1.45815E+04
 -1.22206E+04  4.59146E+03 -6.42156E+03 -3.21767E+03  2.40729E+03 -4.10577E+03  7.74873E+03 -1.11185E+03
  7.22298E+03  6.57311E+03  1.33552E+03  1.14706E+04 -8.28943E+03  1.11431E+04 -1.43091E+04  2.77503E+03
 -1.05351E+04 -7.26689E+03  2.24330E+02 -1.26396E+04  8.15703E+03 -6.11116E+03  8.63565E+03  3.31188E+03
  1.95436E+03  9.25840E+03 -7.25530E+03  1.07823E+04 -1.21800E+04  4.85114E+03 -1.27755E+04 -4.45374E+03
 -7.26579E+03 -1.42309E+04  3.40416E+03 -1.64775E+04  1.42182E+04 -1.01735E+04  1.55374E+04  2.56818E+03
  9.22015E+03  1.20799E+04 -1.68960E+03  1.47012E+04 -1.06103E+04  8.07929E+03 -1.19732E+04 -1.19701E+03
 -1.02071E+04 -1.01222E+04 -1.72742E+03 -1.11548E+04  6.00153E+03 -9.38790E+03  7.14476E+03 -4.10907E+03
  4.69496E+03  2.04645E+03 -9.05138E+02  1.53189E+03 -8.61533E+02 -2.88811E+03  2.41631E+03 -6.91374E+03
  1.01330E+04 -4.42750E+03  1.42471E+04  1.70996E+03  1.41576E+04  1.00309E+04  9.52501E+03  1.91502E+04
 -4.37949E+03  2.21416E+04 -1.80481E+04  1.64761E+04 -2.35684E+04  3.18457E+03 -1.95512E+04 -7.97169E+03
 -9.47754E+03 -1.51264E+04 -1.42126E+02 -1.33380E+04  4.50946E+03 -7.69957E+03  4.22646E+03 -4.59754E+03
  3.65264E+03 -3.16608E+03  3.83534E+03 -3.67823E+03  5.83605E+03 -2.86749E+03  7.55901E+03 -1.23326E+03
  1.00176E+04  2.36161E+03  5.31221E+03  8.48981E+03 -2.01783E+03  1.00710E+04 -1.00517E+04  7.38504E+03
 -1.32432E+04 -1.49850E+03 -8.40291E+03 -9.39091E+03 -1.06077E+03 -1.41555E+04  7.90395E+03 -1.42956E+04
  1.47726E+04 -7.74380E+03  1.77647E+04  2.49263E+03  1.21801E+04  1.24838E+04  1.86394E+03  1.64316E+04
 -6.72618E+03  1.28919E+04 -9.62724E+03  4.19371E+03 -6.47064E+03 -1.86393E+03 -2.65175E+03 -1.99454E+03
 -1.45366E+03 -2.87121E+01 -1.89849E+03  3.01552E+03 -5.59045E+03  2.41003E+03 -9.36344E+03 -1.03917E+03
 -6.70122E+03 -9.21780E+03  3.84155E+02 -1.29922E+04  8.00290E+03 -1.17790E+04  1.29687E+04 -4.02627E+03
  1.31842E+04  6.24919E+03  6.05596E+03  1.16541E+04 -2.63948E+03  1.33058E+04 -9.88137E+03  8.52303E+03
 -1.22465E+04  5.30950E+02 -9.28771E+03 -8.12061E+03 -9.31797E+02 -1.10963E+04  5.80202E+03 -8.09075E+03
  8.25585E+03 -2.60357E+03  5.51025E+03  2.23146E+03  2.04826E+03  4.17901E+03  1.46684E+03  1.63781E+03
  2.39214E+03  7.42943E+02  3.38824E+03  1.86616E+03  3.80462E+03  4.86313E+03  3.14371E+03  7.21638E+03
 -2.98892E+03  1.06245E+04 -9.31046E+03  1.00537E+04 -1.31033E+04  2.82054E+03 -1.41089E+04 -5.69012E+03
 -6.26311E+03 -1.35771E+04  2.20527E+03 -1.47638E+04  7.89321E+03 -9.00677E+03  1.11007E+04 -2.91759E+03
  8.75122E+03  5.07150E+03  1.52687E+03  7.83599E+03 -3.49256E+03  4.66399E+03 -5.62653E+03 -8.59739E+02
 -2.49653E+03 -5.87991E+03  2.67152E+03 -5.96557E+03  5.62691E+03 -2.90179E+03  5.42837E+03  1.08879E+03
  3.34194E+03  2.89842E+03  1.48479E+03  2.21965E+03 -6.07124E+02  1.75588E+03  1.81102E+03 -5.58922E+02
  2.25069E+03 -6.98302E+02  5.32959E+03  1.94183E+03  2.92317E+03  7.53187E+03 -1.30583E+03  9.70825E+03
 -6.58661E+03  6.15631E+03 -8.30841E+03  1.57528E+03 -7.87202E+03 -3.09682E+03 -2.86044E+03 -5.27345E+03
  3.52056E+02 -5.06244E+03  3.21639E+03 -2.28258E+03  3.18747E+03  2.77805E+03 -1.55837E+03  4.50747E+03
 -5.72983E+03  2.63702E+03 -5.98336E+03 -2.88582E+03 -3.59429E+03 -7.32944E+03  1.07482E+03 -7.00370E+03
  4.23471E+03 -4.20686E+03  5.14065E+03 -5.04121E+02  4.48398E+03  1.98455E+03  4.06876E+02  3.92435E+03
 -2.33895E+03  8.36698E+02 -3.30582E+03 -2.28472E+03  1.43366E+03 -5.61849E+03  6.41406E+03 -4.84031E+03
  8.03061E+03  4.98843E+02  8.45881E+03  5.66455E+03  2.62430E+03  8.76998E+03 -2.67967E+03  8.20942E+03
 -6.94327E+03  3.64069E+03 -6.98509E+03 -1.22766E+03 -3.64231E+03 -5.63551E+03  1.12209E+03 -4.98754E+03
  5.35381E+03 -2.46082E+03  4.43405E+03  2.29017E+03  1.50096E+03  4.68699E+03 -5.87433E+02  4.04226E+03
 -1.91211E+03  3.10521E+03 -2.04516E+03  4.38974E+02 -8.79133E+02  7.68138E+02 -1.43658E+03  1.87536E+03
 -2.22092E+03  3.18062E+03 -5.96400E+03  3.15111E+03 -8.31722E+03  2.15336E+02 -9.46270E+03 -5.36943E+03
 -4.82741E+03 -1.12062E+04  2.34266E+03 -1.31582E+04  8.16789E+03 -1.02104E+04  1.21507E+04 -4.27606E+03
  1.15690E+04  2.22881E+03  6.86019E+03  7.73217E+03  4.91893E+02  8.31669E+03 -3.28360E+03  6.54464E+03
 -5.24866E+03  2.55230E+03 -3.33081E+03 -8.28868E+02 -1.26748E+03 -6.22280E+02 -6.76368E+02  3.07374E+01
 -2.04650E+03 -2.31323E+02 -2.04962E+03 -4.38351E+02 -4.51426E+02 -2.08427E+03  1.77463E+02 -3.21026E+03
  3.70975E+03 -2.79986E+03  4.84032E+03 -1.85288E+02  6.17978E+03  4.82902E+03  1.66388E+03  8.48199E+03
 -4.03809E+03  1.02761E+04 -9.20894E+03  5.66461E+03 -1.03257E+04 -9.21045E+02 -7.75330E+03 -6.59294E+03
 -3.28680E+03 -9.13376E+03  2.16750E+03 -7.87687E+03  5.38840E+03 -4.69504E+03  5.54014E+03  2.14955E+02
  3.22011E+03  3.01952E+03 -3.21640E+02  2.53703E+03 -1.74803E+03 -1.56221E+02  2.85015E+02 -2.04501E+03
  2.53668E+03 -1.42232E+03  3.44339E+03  1.13958E+03  2.43814E+03  3.23154E+03  1.72846E+02  4.58490E+03
 -3.54397E+03  4.02924E+03 -5.57590E+03  7.89564E+02 -5.27615E+03 -3.94995E+03 -9.69695E+02 -7.53787E+03
  4.05349E+03 -6.12172E+03  6.39041E+03 -2.45793E+03  6.62176E+03  1.26404E+03  3.74630E+03  5.57776E+03
  9.33072E+02  5.80144E+03 -1.96025E+03  4.28401E+03 -3.45534E+03  3.00331E+03 -2.95368E+03  2.42020E+02
 -1.54865E+03 -3.99101E+02 -1.71385E+03  7.08100E+02 -3.08050E+03  1.35922E+03 -4.21293E+03 -5.95465E+02
 -4.19516E+03 -3.16690E+03 -1.33213E+03 -5.79553E+03  2.80823E+03 -6.31783E+03  5.27478E+03 -3.14806E+03
  5.77804E+03  5.48949E+02  2.69697E+03  4.02728E+03 -2.37833E+02  6.34184E+03 -4.35649E+03  3.60320E+03
