 $NMID ID='MM_0lb_SNR800_18hz_g45_71.RAW', FMTDAT='(8E13.5)'
 TRAMP=1., VOLUME=1. $END
  3.09919E+05  2.83078E+02  3.37109E+05  2.50415E+05  8.42214E+04  3.37402E+05 -1.32077E+05  2.50322E+05
 -1.89876E+05  8.25340E+04 -1.10768E+05 -3.27361E+04  1.42061E+03 -5.03906E+04  5.40513E+04  1.83828E+02
  3.51222E+04  5.30811E+04 -1.70212E+04  7.49444E+04 -6.04243E+04  6.27977E+04 -8.29978E+04  3.16569E+04
 -7.95912E+04 -1.10033E+04 -5.64123E+04 -5.02632E+04 -1.49865E+04 -6.84284E+04  2.67076E+04 -4.46202E+04
  3.91718E+04  4.14040E+03  1.55623E+04  4.70063E+04 -3.39741E+04  4.60409E+04 -6.55745E+04 -2.50432E+02
 -5.18543E+04 -5.57324E+04 -6.42346E+03 -7.52282E+04  3.32895E+04 -5.32676E+04  4.61974E+04 -1.65751E+04
  4.15324E+04  1.11849E+04  3.07898E+04  2.43242E+04  1.59907E+04  2.82214E+04 -4.37120E+03  2.68449E+04
 -2.19106E+04  1.28798E+04 -1.89315E+04 -4.33113E+03  4.26253E+03 -7.48722E+03  2.10906E+04  1.09161E+04
  7.42558E+03  3.34668E+04 -3.03792E+04  3.42163E+04 -6.12399E+04  2.30097E+03 -5.51839E+04 -4.12340E+04
 -1.23574E+04 -6.07424E+04  3.82781E+04 -4.37721E+04  5.54822E+04 -1.89370E+03  3.22028E+04  3.07167E+04
 -6.61075E+03  3.33750E+04 -2.83400E+04  1.34787E+04 -2.77532E+04 -5.12650E+03 -1.42814E+04 -1.01182E+04
 -7.34753E+03 -1.16002E+04 -1.03551E+03 -1.65691E+04  6.66396E+03 -2.24690E+04  1.49033E+04 -1.36184E+04
  1.19812E+04  4.27039E+03 -6.19721E+03  1.29484E+04 -1.93321E+04 -2.44080E+03 -8.31150E+03 -3.03476E+04
  2.08399E+04 -4.05345E+04  4.46566E+04 -1.86262E+04  4.22953E+04  1.82605E+04  1.41069E+04  4.16346E+04
 -1.54903E+04  3.12606E+04 -2.34951E+04  7.18852E+02 -8.29506E+03 -2.64953E+04  2.04559E+04 -3.14029E+04
  3.80260E+04 -7.71947E+03  3.14153E+04  2.26499E+04  1.53263E+04  4.27973E+04 -7.57665E+03  4.52494E+04
 -2.83343E+04  3.00366E+04 -3.77289E+04  8.60476E+03 -3.85441E+04 -1.50807E+04 -2.12789E+04 -3.43693E+04
  6.52183E+03 -3.43026E+04  2.92614E+04 -1.27935E+04  2.70404E+04  1.09515E+04  3.19051E+03  1.78634E+04
 -1.29867E+04  7.16182E+03 -9.70742E+03 -7.65867E+03  6.00938E+03 -1.01525E+04  1.71532E+04  6.38401E+03
  1.24117E+04  2.17916E+04 -6.46117E+03  2.39082E+04 -2.14254E+04  9.66152E+03 -2.52045E+04 -5.86551E+03
 -1.68099E+04 -1.61787E+04 -5.81422E+03 -1.71487E+04  3.99100E+03 -1.48225E+04  1.26643E+04 -1.47897E+04
  2.12884E+04 -1.16340E+04  2.82411E+04  1.19186E+03  2.15357E+04  1.64017E+04  3.99589E+03  3.26300E+04
 -1.63820E+04  2.78729E+04 -2.59286E+04  9.60220E+03 -2.00371E+04 -1.03309E+04 -3.85461E+03 -1.38168E+04
  2.54007E+03 -4.05685E+03 -2.82014E+03  5.62608E+03 -1.32350E+04  5.06271E+03 -1.34755E+04 -5.07828E+03
 -8.89790E+03 -1.53613E+04  4.68042E+03 -1.95480E+04  1.27816E+04 -1.42621E+04  1.48888E+04 -1.40132E+03
  9.22576E+03  1.09702E+04 -1.01334E+03  1.58914E+04 -1.05558E+04  9.00324E+03 -1.56405E+04 -3.45272E+03
 -1.17217E+04 -1.42613E+04 -1.59493E+03 -1.93466E+04  8.75471E+03 -1.53269E+04  1.62603E+04 -7.35195E+03
  1.46430E+04  4.13133E+02  1.05173E+04  3.99776E+03  5.54756E+03  8.55786E+02  7.85490E+03 -1.23283E+03
  1.42643E+04  2.68048E+03  1.49667E+04  1.27868E+04  9.23065E+03  2.52819E+04 -3.05851E+03  2.69159E+04
 -1.61760E+04  2.04051E+04 -2.47371E+04  9.97911E+03 -2.55501E+04 -1.67934E+03 -2.16251E+04 -1.45588E+04
 -1.02246E+04 -2.08021E+04  6.95315E+03 -1.91629E+04  1.71219E+04 -1.08986E+04  1.58510E+04  4.10219E+03
  6.51300E+03  1.13981E+04 -7.36229E+03  1.07180E+04 -1.33902E+04  2.55486E+03 -1.04226E+04 -8.31161E+03
 -1.83840E+02 -1.25858E+04  6.28475E+03 -9.23276E+03  7.95488E+03 -1.01698E+03  1.22704E+03  4.82633E+03
 -5.69388E+03  1.58584E+03 -3.93430E+03 -4.72983E+03  8.30860E+02 -1.02310E+04  8.15108E+03 -1.01148E+04
  1.26713E+04 -4.74986E+03  1.24086E+04  2.70980E+03  1.07525E+04  9.75054E+03  5.04459E+03  1.42985E+04
 -1.66744E+03  1.62924E+04 -9.93731E+03  1.02429E+04 -1.15148E+04  3.11553E+03 -8.64780E+03 -1.89810E+03
 -4.59030E+03 -3.29418E+03 -1.02832E+03  1.64115E+03 -1.96708E+03  1.91805E+03 -3.73916E+03  3.77213E+03
 -8.07677E+03 -1.80354E+02 -8.73356E+03 -7.33060E+03 -3.66551E+03 -1.15793E+04  3.69205E+03 -8.85732E+03
  7.40831E+03 -4.07145E+03  5.45047E+03  1.95303E+03  5.27665E+02  3.04279E+03 -3.45747E+03 -7.52773E+00
 -3.55726E+03 -5.22229E+03 -7.81682E+02 -7.59132E+03  4.15256E+03 -8.02724E+03  9.99393E+03 -3.97539E+03
  1.18984E+04  8.03245E+02  9.08654E+03  6.30277E+03  1.81761E+03  9.09833E+03 -5.18103E+03  8.37756E+03
 -7.06333E+03  2.71062E+03 -3.38712E+03 -1.25695E+03  1.65082E+03 -2.07360E+03  4.77465E+03 -8.68262E+02
  4.30081E+03  3.34640E+03  1.04016E+03  6.38167E+03 -4.70215E+03  6.20912E+03 -7.93159E+03  2.07412E+03
 -5.07411E+03 -3.87936E+03  3.01377E+02 -6.81602E+03  3.47949E+03 -3.38615E+03  3.60008E+03  1.22696E+03
  7.19331E+02  3.54832E+03 -3.97894E+03  4.93220E+03 -5.00009E+03  2.75719E+03 -4.47891E+03 -1.09786E+03
 -2.90321E+03 -6.40441E+03  1.21154E+03 -7.23975E+03  6.06071E+03 -4.80922E+03  6.58602E+03  1.05141E+03
  4.49374E+03  5.59116E+03  3.41211E+02  7.47971E+03 -5.01971E+03  4.15255E+03 -5.57388E+03 -4.33233E+02
 -5.83448E+03 -5.26358E+03 -1.35405E+03 -5.35805E+03  2.62373E+03 -4.82813E+03  3.21280E+03 -2.74102E+03
  3.00139E+03  3.59877E+02  1.59053E+02  1.18421E+03  4.66377E+02 -2.34245E+02  3.31034E+02 -2.06726E+03
  3.86265E+03 -1.19854E+03  5.80577E+03  7.71152E+02  5.77282E+03  3.26000E+03  5.22477E+03  7.47180E+03
 -1.26035E+03  8.93651E+03 -7.92204E+03  6.71393E+03 -1.03089E+04  1.24168E+03 -8.11810E+03 -2.51104E+03
 -4.47731E+03 -6.73990E+03 -4.40523E+02 -5.40193E+03  2.06462E+03 -2.40646E+03  1.58902E+03 -2.01390E+03
  1.29793E+03 -1.48079E+03  1.84531E+03 -2.18243E+03  3.66138E+03 -1.25243E+03  3.83434E+03  5.48465E+02
  4.43608E+03  1.22366E+03  1.25599E+03  3.36749E+03 -1.61310E+03  2.74570E+03 -4.53836E+03  2.82559E+03
 -5.28552E+03 -1.07315E+03 -1.89507E+03 -3.48746E+03  4.73133E+02 -4.92714E+03  3.28107E+03 -5.50998E+03
  5.33613E+03 -3.27652E+03  7.22302E+03  6.94689E+01  4.78491E+03  4.59282E+03  1.30564E+03  6.16616E+03
 -2.39573E+03  6.19994E+03 -3.41804E+03  2.02688E+03 -2.12287E+03 -1.02877E+03 -3.51812E+02 -5.81168E+02
 -6.47982E+02  3.51018E+02 -7.53152E+02  1.95258E+03 -2.62677E+03  1.02701E+03 -4.45923E+03 -4.68574E+02
 -1.86038E+03 -4.40231E+03  6.98128E+02 -4.76063E+03  2.69996E+03 -4.76258E+03  3.96584E+03 -1.17864E+03
  4.19708E+03  2.60751E+03  1.74351E+03  3.33538E+03 -5.12693E+02  4.70181E+03 -2.80098E+03  2.94492E+03
 -4.20867E+03  6.76815E+02 -3.64812E+03 -2.27026E+03 -3.00527E+02 -2.99297E+03  1.52464E+03 -2.85435E+03
  2.85678E+03 -1.40786E+03  2.28658E+03  8.55548E+02  5.63642E+02  1.83308E+03  7.01892E+02  8.42573E+02
  1.67506E+03  4.36271E+02  1.25186E+03  8.51100E+02  1.28518E+03  2.21765E+03  1.39090E+03  1.76106E+03
 -1.35339E+03  3.41505E+03 -2.60715E+03  4.16539E+03 -3.06655E+03  1.17541E+03 -4.42360E+03 -5.40578E+02
 -1.94522E+03 -4.05469E+03  4.41723E+02 -4.97575E+03  1.89142E+03 -2.86183E+03  3.35860E+03 -7.87729E+02
  2.75763E+03  1.51902E+03  1.22280E+02  2.10361E+03 -6.32803E+02  1.31175E+03 -1.16601E+03 -1.88467E+02
 -4.96157E+02 -1.60223E+03  1.30341E+03 -1.73520E+03  1.33576E+03 -1.22028E+03  1.32807E+03  2.75156E+02
  8.36120E+02  3.92205E+02  6.80407E+02 -2.40610E+02 -2.92080E+02  7.31772E+02  1.41739E+03 -2.80648E+02
 -1.90352E+02 -4.95544E+02  1.92085E+03  8.60339E+02  9.44047E+01  2.54202E+03 -2.66657E+02  2.84559E+03
 -1.83888E+03  1.18814E+03 -2.34914E+03  3.28042E+02 -2.18894E+03 -8.80385E+02 -3.40554E+02 -1.30698E+03
  4.33960E+02 -1.14298E+03  8.53600E+02 -8.11731E+02  8.05780E+02  1.24971E+03 -4.49458E+02  1.12168E+03
 -1.72906E+03  8.13234E+02 -1.29329E+03 -1.19879E+03 -9.19957E+02 -2.19075E+03  2.16916E+02 -1.68350E+03
  3.76231E+02 -2.98855E+02  6.10796E+02  1.61264E+02  1.49395E+03  1.91917E+02  2.77029E+02  1.30296E+03
 -4.01632E+02  1.90590E+02 -1.24794E+03 -2.55311E+02  9.01731E+02 -1.29311E+03  1.83778E+03 -9.99849E+02
  1.29155E+03  3.56607E+02  2.65037E+03  8.34965E+02  1.10938E+03  1.86082E+03 -4.69680E+02  2.00791E+03
 -1.60327E+03  5.57901E+02 -1.42587E+03 -1.54920E+02 -8.19909E+02 -1.51001E+03  2.16516E+02 -7.90365E+02
  1.59048E+03 -8.07217E+02  9.94432E+02  7.07003E+02  1.60528E+02  1.23097E+03  1.71679E+01  1.36863E+03
 -4.43745E+02  1.11455E+03 -4.08260E+02  3.17864E+02  7.28498E+01  2.67528E+02 -5.48118E+02  4.44526E+02
 -7.91074E+02  1.00886E+03 -1.93493E+03  5.18623E+02 -1.92770E+03  8.90777E+01 -2.73023E+03 -1.15396E+03
 -1.40299E+03 -2.20532E+03  6.54903E+02 -3.14382E+03  1.11940E+03 -2.29006E+03  2.90275E+03 -8.39248E+02
  2.59417E+03 -1.46761E+02  1.13284E+03  1.55205E+03 -3.67837E+02  1.70323E+03 -7.90459E+02  1.46176E+03
 -9.56743E+02  8.85955E+02 -5.90825E+02 -1.90750E+02 -5.41864E+02  2.64369E+02 -6.39495E+02 -2.57530E+02
 -1.13936E+03  1.62205E+01 -7.81042E+02  1.33592E+02  7.68153E+01 -7.13602E+02 -4.50729E+02 -1.24955E+03
  1.20193E+03 -6.56041E+02  6.16460E+02  1.36593E+02  1.18243E+03  1.07758E+03 -4.40362E+02  1.63107E+03
 -1.00143E+03  2.50909E+03 -1.81947E+03  1.47809E+03 -1.73014E+03 -8.23026E+01 -1.35549E+03 -1.64844E+03
 -1.12901E+03 -1.58350E+03  3.63814E+02 -1.15727E+03  6.43940E+02 -5.71094E+02  7.16813E+02  2.96806E+02
  7.24290E+02  4.97345E+02  2.15333E+02  5.34439E+02 -3.23219E+02 -1.96235E+02 -1.63404E+02 -1.79477E+02
  7.27618E+02  4.57002E+01  4.89565E+02  5.77998E+02  1.58332E+02  5.48930E+02  7.11680E+02  4.87991E+02
 -7.15923E+02  4.50942E+02 -2.08115E+02  2.26100E+02 -7.74435E+02 -6.19323E+02  3.20280E+02 -1.27181E+03
  3.96962E+02 -6.75064E+02  4.66548E+02 -6.94262E+01  1.28927E+03 -3.51500E+02  4.44324E+02  7.68762E+02
  3.05155E+02  6.68829E+02 -2.09930E+02  8.18221E+02 -7.22084E+02  5.57867E+02 -4.05018E+02  3.15414E+02
 -3.58875E+00 -3.65991E+01 -5.81049E+02  3.06949E+02 -6.31062E+02  2.19909E+02 -7.48121E+02 -3.56157E+02
 -1.39551E+03  2.46707E+02 -2.62383E+02 -1.08788E+03  7.20079E+02 -1.39110E+03  9.47714E+02 -1.86166E+02
  8.15524E+02  2.29132E+02 -2.01280E+02  2.32857E+02  7.88158E+01  1.14503E+03 -2.43523E+02  7.01485E+02
