 $NMID ID='MM_0lb_SNR800_9hz_g50_97.RAW', FMTDAT='(8E13.5)'
 TRAMP=1., VOLUME=1. $END
  3.09879E+05  2.57833E+02  3.37748E+05  2.50528E+05  8.49409E+04  3.38380E+05 -1.33040E+05  2.51694E+05
 -1.90889E+05  8.35920E+04 -1.12598E+05 -3.22587E+04  1.58776E+02 -5.06537E+04  5.38703E+04 -6.96739E+02
  3.56651E+04  5.26831E+04 -1.64829E+04  7.59798E+04 -6.12759E+04  6.47944E+04 -8.55420E+04  3.25066E+04
 -8.22475E+04 -1.17888E+04 -5.85419E+04 -5.25742E+04 -1.50623E+04 -7.08992E+04  2.81253E+04 -4.70682E+04
  4.16562E+04  3.84463E+03  1.68737E+04  4.84470E+04 -3.48350E+04  4.83287E+04 -6.81568E+04  1.67600E+02
 -5.46227E+04 -5.77751E+04 -7.09923E+03 -7.91708E+04  3.48613E+04 -5.71523E+04  4.99009E+04 -1.80660E+04
  4.51480E+04  1.15804E+04  3.26525E+04  2.65760E+04  1.60227E+04  3.06788E+04 -6.10353E+03  2.79837E+04
 -2.26095E+04  1.22036E+04 -1.79605E+04 -5.28793E+03  6.99698E+03 -7.30133E+03  2.35421E+04  1.41666E+04
  7.01466E+03  3.72158E+04 -3.36064E+04  3.72899E+04 -6.59927E+04  2.26127E+03 -5.89895E+04 -4.42535E+04
 -1.24780E+04 -6.57568E+04  4.17309E+04 -4.71781E+04  6.15999E+04 -2.48083E+03  3.64939E+04  3.43245E+04
 -5.96868E+03  3.97610E+04 -3.17630E+04  1.84885E+04 -3.34181E+04 -3.42923E+03 -1.95248E+04 -1.19112E+04
 -9.90541E+03 -1.51810E+04 -6.24158E+02 -1.99002E+04  8.46257E+03 -2.36553E+04  1.58363E+04 -1.25459E+04
  1.05997E+04  5.89067E+03 -1.00682E+04  1.25960E+04 -2.32918E+04 -7.08064E+03 -8.72601E+03 -3.74029E+04
  2.53403E+04 -4.67633E+04  5.15935E+04 -2.11629E+04  4.89476E+04  2.11161E+04  1.74424E+04  4.71911E+04
 -1.62968E+04  3.63819E+04 -2.77442E+04  2.68371E+03 -1.13943E+04 -2.94039E+04  2.13843E+04 -3.71037E+04
  4.45496E+04 -1.14800E+04  4.03392E+04  2.49353E+04  2.14932E+04  5.10955E+04 -8.43399E+03  5.62117E+04
 -3.54484E+04  3.82814E+04 -4.75090E+04  1.06051E+04 -4.77144E+04 -1.87107E+04 -2.61030E+04 -4.17758E+04
  7.75746E+03 -4.21802E+04  3.39357E+04 -1.68369E+04  3.22045E+04  1.07202E+04  5.23305E+03  2.09156E+04
 -1.43717E+04  9.30310E+03 -1.12070E+04 -7.43683E+03  5.62476E+03 -1.16853E+04  1.85200E+04  5.86771E+03
  1.47671E+04  2.24479E+04 -4.86327E+03  2.70714E+04 -2.34352E+04  1.44148E+04 -3.18995E+04 -2.71828E+03
 -2.50258E+04 -1.84169E+04 -1.14345E+04 -2.46489E+04  4.28022E+03 -2.54190E+04  1.98652E+04 -2.32850E+04
  3.24727E+04 -1.40697E+04  3.77837E+04  4.83362E+03  2.72135E+04  2.44616E+04  4.36680E+03  4.15278E+04
 -1.97921E+04  3.40366E+04 -3.06938E+04  1.19229E+04 -2.24197E+04 -1.03820E+04 -5.31023E+03 -1.28698E+04
  7.47312E+02 -1.21214E+03 -7.49032E+03  8.17636E+03 -2.02832E+04  4.94146E+03 -2.03129E+04 -9.53730E+03
 -1.17137E+04 -2.34352E+04  6.27571E+03 -2.78000E+04  1.89881E+04 -1.96755E+04  2.25445E+04 -1.87802E+03
  1.43201E+04  1.59688E+04 -1.11493E+03  2.35477E+04 -1.67392E+04  1.35598E+04 -2.37479E+04 -4.81188E+03
 -1.75803E+04 -2.08243E+04 -2.08685E+03 -2.76633E+04  1.24880E+04 -2.32725E+04  2.32495E+04 -1.18441E+04
  2.19729E+04 -4.02916E+02  1.59795E+04  5.36257E+03  8.81205E+03  1.49081E+03  1.20878E+04 -2.21239E+03
  2.20829E+04  2.43492E+03  2.54846E+04  1.81513E+04  1.75667E+04  3.72229E+04 -2.54861E+03  4.42816E+04
 -2.55549E+04  3.75648E+04 -4.20396E+04  1.87004E+04 -4.43996E+04 -3.61762E+03 -3.62976E+04 -2.61414E+04
 -1.42520E+04 -3.73270E+04  1.30176E+04 -3.26275E+04  2.76097E+04 -1.53098E+04  2.42217E+04  7.85821E+03
  8.05947E+03  1.84214E+04 -1.14331E+04  1.57770E+04 -2.00327E+04  2.72831E+03 -1.55871E+04 -1.32816E+04
 -4.22121E+02 -1.95521E+04  1.07332E+04 -1.42269E+04  1.34832E+04 -1.38417E+03  3.65272E+03  9.14464E+03
 -8.90490E+03  4.72381E+03 -9.09002E+03 -7.16156E+03 -1.80333E+03 -1.82662E+04  1.17637E+04 -1.97671E+04
  2.32506E+04 -1.12777E+04  2.60170E+04  3.64762E+03  2.28077E+04  1.85914E+04  1.05134E+04  2.93036E+04
 -5.67097E+03  3.09039E+04 -2.06985E+04  1.93690E+04 -2.26935E+04  4.26672E+03 -1.51972E+04 -6.12311E+03
 -6.60529E+03 -7.38220E+03 -2.80361E+02  2.66338E+02 -3.20728E+03  3.62791E+03 -7.49076E+03  5.60760E+03
 -1.43413E+04 -7.58281E+02 -1.50868E+04 -1.17031E+04 -5.72184E+03 -1.94291E+04  6.11894E+03 -1.58308E+04
  1.27962E+04 -6.33158E+03  9.19962E+03  4.67287E+03 -4.21484E+02  5.81088E+03 -7.70905E+03  1.72926E+02
 -7.73862E+03 -9.83549E+03 -1.10320E+03 -1.53850E+04  8.88905E+03 -1.63134E+04  2.00535E+04 -8.97136E+03
  2.34723E+04  2.54219E+03  1.69877E+04  1.43339E+04  3.19356E+03  1.90216E+04 -9.55240E+03  1.55587E+04
 -1.26646E+04  4.65652E+03 -6.75661E+03 -3.33220E+03  1.98843E+03 -4.11374E+03  8.53499E+03 -1.31084E+03
  7.43302E+03  6.53132E+03  1.31320E+03  1.23300E+04 -9.43404E+03  1.21950E+04 -1.53545E+04  2.57543E+03
 -1.07049E+04 -8.37823E+03  5.29405E+02 -1.33905E+04  8.60572E+03 -6.92861E+03  9.30836E+03  3.00880E+03
  2.05429E+03  1.00600E+04 -8.29161E+03  1.14821E+04 -1.37128E+04  5.06272E+03 -1.38292E+04 -5.13878E+03
 -7.94392E+03 -1.56402E+04  4.01010E+03 -1.83501E+04  1.61137E+04 -1.05511E+04  1.67530E+04  3.29195E+03
  1.01844E+04  1.33294E+04 -1.41554E+03  1.55905E+04 -1.18594E+04  8.46866E+03 -1.29180E+04 -1.71879E+03
 -1.11469E+04 -1.03923E+04 -1.72830E+03 -1.18902E+04  6.69447E+03 -9.44022E+03  8.04917E+03 -3.75809E+03
  4.92805E+03  2.16791E+03 -1.23439E+03  2.08518E+03 -5.66862E+02 -3.44106E+03  2.09918E+03 -7.90969E+03
  1.18815E+04 -5.00568E+03  1.62425E+04  1.78483E+03  1.56136E+04  1.07534E+04  9.96907E+03  2.06584E+04
 -4.72793E+03  2.39654E+04 -1.99535E+04  1.81977E+04 -2.56758E+04  3.66750E+03 -2.09390E+04 -9.32690E+03
 -1.03134E+04 -1.69221E+04 -3.30872E+02 -1.48414E+04  4.81670E+03 -8.59894E+03  5.02899E+03 -5.16121E+03
  3.73514E+03 -3.68463E+03  3.94092E+03 -3.58366E+03  6.00079E+03 -3.64140E+03  7.94170E+03 -1.95589E+03
  1.08311E+04  2.46606E+03  5.98903E+03  9.73372E+03 -2.38346E+03  1.12899E+04 -1.17590E+04  9.07727E+03
 -1.48443E+04 -1.31617E+03 -9.65783E+03 -1.03519E+04 -1.31381E+03 -1.62310E+04  8.88440E+03 -1.62451E+04
  1.67299E+04 -8.25541E+03  1.97375E+04  2.46536E+03  1.36678E+04  1.38267E+04  1.96577E+03  1.80635E+04
 -7.68299E+03  1.42494E+04 -1.07043E+04  5.04588E+03 -7.27652E+03 -1.35701E+03 -2.88743E+03 -2.38983E+03
 -2.03418E+03 -1.15717E+02 -2.01417E+03  3.28597E+03 -6.36726E+03  2.57951E+03 -1.03580E+04 -1.62502E+03
 -7.11409E+03 -1.01514E+04 -9.79688E+01 -1.47934E+04  9.01465E+03 -1.39727E+04  1.47108E+04 -4.57818E+03
  1.48499E+04  6.93608E+03  7.03801E+03  1.29853E+04 -2.97290E+03  1.49203E+04 -1.03295E+04  9.51580E+03
 -1.38120E+04  3.73493E+02 -1.05047E+04 -8.84894E+03 -1.41692E+03 -1.24200E+04  6.53331E+03 -9.08801E+03
  9.36234E+03 -2.49576E+03  6.48386E+03  3.00411E+03  2.18391E+03  4.19754E+03  1.28361E+03  1.95255E+03
  2.91613E+03  1.15917E+03  3.50802E+03  2.07465E+03  4.64904E+03  5.20431E+03  3.98629E+03  8.22992E+03
 -3.00469E+03  1.15297E+04 -1.07500E+04  1.19455E+04 -1.51509E+04  3.27445E+03 -1.59681E+04 -6.59746E+03
 -7.46254E+03 -1.48731E+04  1.99605E+03 -1.65993E+04  9.34587E+03 -1.09325E+04  1.20194E+04 -2.54117E+03
  9.95376E+03  5.89441E+03  2.38894E+03  8.37352E+03 -4.36289E+03  5.91274E+03 -6.09539E+03 -8.07135E+02
 -2.60163E+03 -6.54382E+03  3.16053E+03 -6.85358E+03  6.31560E+03 -3.34067E+03  6.17613E+03  1.34238E+03
  3.65144E+03  2.98373E+03  1.21666E+03  2.72028E+03 -1.04096E+03  2.35510E+03  1.98474E+03 -5.69082E+02
  2.68554E+03 -1.16275E+03  6.31647E+03  2.87172E+03  3.59503E+03  8.01754E+03 -6.19669E+02  1.06758E+04
 -7.19961E+03  7.28113E+03 -9.86175E+03  1.99003E+03 -8.83537E+03 -3.12693E+03 -3.80395E+03 -6.16727E+03
  9.30874E+02 -6.24395E+03  3.81778E+03 -2.72008E+03  3.15282E+03  2.96108E+03 -1.62820E+03  4.85582E+03
 -6.63959E+03  3.07069E+03 -7.12106E+03 -3.39045E+03 -4.14542E+03 -7.95825E+03  1.29102E+03 -8.25315E+03
  5.18681E+03 -5.48686E+03  6.49400E+03 -7.84905E+02  5.10076E+03  2.00488E+03  7.12499E+02  4.46749E+03
 -3.16643E+03  1.47569E+03 -4.05477E+03 -3.42101E+03  1.38502E+03 -6.59096E+03  7.95537E+03 -5.13880E+03
  9.54203E+03  4.40759E+02  9.40696E+03  6.55793E+03  2.96455E+03  9.91456E+03 -3.57916E+03  9.46058E+03
 -8.18241E+03  4.33544E+03 -8.62944E+03 -1.47907E+03 -4.49168E+03 -6.33680E+03  1.63950E+03 -6.06757E+03
  6.05938E+03 -3.17082E+03  4.90721E+03  2.64021E+03  1.64967E+03  5.49901E+03 -5.49086E+02  4.87540E+03
 -2.58740E+03  3.18384E+03 -2.58832E+03  8.85800E+02 -1.28419E+03  1.17372E+03 -1.53715E+03  2.19149E+03
 -2.77463E+03  4.07297E+03 -7.09233E+03  3.30260E+03 -1.03106E+04  3.06132E+02 -1.08537E+04 -6.78961E+03
 -6.03277E+03 -1.37423E+04  3.07790E+03 -1.53097E+04  9.95599E+03 -1.20732E+04  1.48006E+04 -4.87380E+03
  1.37081E+04  2.85991E+03  8.79133E+03  9.35219E+03  9.08642E+02  1.03364E+04 -4.02760E+03  7.88142E+03
 -5.78141E+03  3.08901E+03 -3.81880E+03 -1.04009E+03 -1.01543E+03 -1.06824E+03 -2.33941E+02  4.01029E+01
 -1.58716E+03  2.11105E+02 -2.30421E+03 -9.61415E+02 -1.35622E+03 -2.33382E+03  1.89591E+01 -4.17002E+03
  4.92753E+03 -3.13769E+03  6.29085E+03  2.25591E+02  7.51190E+03  5.58989E+03  2.00791E+03  1.06502E+04
 -4.96621E+03  1.21220E+04 -1.09284E+04  7.62040E+03 -1.29894E+04 -1.28299E+03 -9.88996E+03 -7.87421E+03
 -4.23211E+03 -1.06371E+04  2.55035E+03 -9.69365E+03  6.97893E+03 -5.46190E+03  6.70040E+03 -8.47482E+01
  3.90800E+03  3.54906E+03  9.38624E+01  3.01210E+03 -2.35624E+03 -1.08473E+02  9.34966E+01 -2.47214E+03
  3.26755E+03 -1.51076E+03  4.07730E+03  1.40029E+03  3.05297E+03  4.08433E+03  9.98812E+01  5.44180E+03
 -4.86591E+03  5.20307E+03 -6.94589E+03  3.30812E+02 -6.46132E+03 -4.82626E+03 -9.84645E+02 -8.96437E+03
  5.22431E+03 -7.68425E+03  8.28952E+03 -2.20706E+03  8.50819E+03  1.72805E+03  4.58485E+03  6.50988E+03
  8.48531E+02  6.59423E+03 -2.37656E+03  5.94315E+03 -4.01590E+03  3.15203E+03 -3.40941E+03  4.36113E+02
 -2.14432E+03 -3.39167E+01 -1.95776E+03  6.19514E+02 -3.79670E+03  1.22510E+03 -5.42439E+03 -1.01767E+03
 -5.26592E+03 -3.55883E+03 -1.08236E+03 -6.98679E+03  3.09555E+03 -7.21973E+03  6.28468E+03 -3.23064E+03
  7.24458E+03  9.07631E+02  3.75370E+03  5.18064E+03 -1.64913E+02  6.73452E+03 -5.25803E+03  4.68288E+03
