 $NMID ID='MM_0lb_SNR800_20hz_g45_6.RAW', FMTDAT='(8E13.5)'
 TRAMP=1., VOLUME=1. $END
  3.09899E+05  2.87017E+02  3.37123E+05  2.50374E+05  8.42275E+04  3.37120E+05 -1.32386E+05  2.50104E+05
 -1.89579E+05  8.20242E+04 -1.10662E+05 -3.28081E+04  1.70799E+03 -5.01881E+04  5.39998E+04  4.27724E+02
  3.48177E+04  5.30152E+04 -1.71330E+04  7.49302E+04 -5.99795E+04  6.24379E+04 -8.26300E+04  3.14010E+04
 -7.91231E+04 -1.07706E+04 -5.60293E+04 -4.98366E+04 -1.50976E+04 -6.79060E+04  2.64857E+04 -4.48207E+04
  3.88921E+04  4.11247E+03  1.54484E+04  4.67981E+04 -3.36081E+04  4.58974E+04 -6.48262E+04 -6.97236E+02
 -5.15206E+04 -5.57881E+04 -5.82347E+03 -7.47522E+04  3.28740E+04 -5.24502E+04  4.55560E+04 -1.58668E+04
  4.08145E+04  1.10677E+04  3.02135E+04  2.40089E+04  1.58498E+04  2.76687E+04 -4.39775E+03  2.66781E+04
 -2.15816E+04  1.28692E+04 -1.96004E+04 -4.00861E+03  3.86444E+03 -7.59163E+03  2.07054E+04  1.05029E+04
  7.50841E+03  3.27283E+04 -2.99751E+04  3.36452E+04 -6.03619E+04  2.31447E+03 -5.48323E+04 -4.06549E+04
 -1.23802E+04 -6.02450E+04  3.74701E+04 -4.27063E+04  5.44432E+04 -1.93681E+03  3.11622E+04  2.98139E+04
 -6.80766E+03  3.20140E+04 -2.80220E+04  1.23717E+04 -2.65172E+04 -5.61131E+03 -1.34698E+04 -9.85643E+03
 -6.72804E+03 -1.10873E+04 -9.48425E+02 -1.59494E+04  6.33235E+03 -2.23671E+04  1.47282E+04 -1.41739E+04
  1.24324E+04  3.88777E+03 -5.49389E+03  1.29881E+04 -1.87111E+04 -1.73872E+03 -7.74855E+03 -2.92700E+04
  1.98249E+04 -3.93261E+04  4.35206E+04 -1.82703E+04  4.11110E+04  1.79011E+04  1.35989E+04  4.08079E+04
 -1.51898E+04  3.02398E+04 -2.26740E+04  8.93924E+02 -7.60095E+03 -2.59564E+04  2.04758E+04 -3.02057E+04
  3.69821E+04 -6.77680E+03  3.00680E+04  2.25624E+04  1.45092E+04  4.13655E+04 -7.83098E+03  4.33737E+04
 -2.74168E+04  2.85190E+04 -3.59418E+04  7.82202E+03 -3.68171E+04 -1.43803E+04 -2.06641E+04 -3.31126E+04
  6.67971E+03 -3.31865E+04  2.83558E+04 -1.20278E+04  2.61262E+04  1.07754E+04  2.81271E+03  1.72220E+04
 -1.27886E+04  6.89579E+03 -9.21627E+03 -7.87570E+03  5.98927E+03 -9.94330E+03  1.70385E+04  6.53657E+03
  1.18338E+04  2.13694E+04 -6.89035E+03  2.29590E+04 -2.11925E+04  8.31385E+03 -2.42886E+04 -6.84618E+03
 -1.55856E+04 -1.60027E+04 -4.84375E+03 -1.55077E+04  3.63902E+03 -1.27422E+04  1.14089E+04 -1.31039E+04
  1.95814E+04 -1.13537E+04  2.68739E+04  3.33317E+02  2.06513E+04  1.51649E+04  3.91149E+03  3.12668E+04
 -1.54960E+04  2.65298E+04 -2.52172E+04  9.22754E+03 -1.93601E+04 -1.05939E+04 -3.77525E+03 -1.42357E+04
  2.82910E+03 -4.72754E+03 -2.01359E+03  4.74244E+03 -1.21807E+04  5.27977E+03 -1.24451E+04 -4.44041E+03
 -8.09926E+03 -1.42827E+04  4.48634E+03 -1.83037E+04  1.17851E+04 -1.31769E+04  1.34348E+04 -1.40538E+03
  8.17720E+03  1.03214E+04 -5.73068E+02  1.46550E+04 -9.39600E+03  8.33911E+03 -1.43276E+04 -3.16782E+03
 -1.06416E+04 -1.32495E+04 -1.43554E+03 -1.79142E+04  7.96818E+03 -1.43005E+04  1.51692E+04 -6.46959E+03
  1.35906E+04  7.42861E+02  9.69917E+03  3.51158E+03  4.89373E+03  2.74758E+02  7.09459E+03 -1.15566E+03
  1.31959E+04  2.58947E+03  1.32089E+04  1.18603E+04  8.11260E+03  2.33074E+04 -3.32898E+03  2.41565E+04
 -1.46436E+04  1.78680E+04 -2.20625E+04  8.64826E+03 -2.23291E+04 -1.65649E+03 -1.94067E+04 -1.26943E+04
 -9.42898E+03 -1.80257E+04  5.78806E+03 -1.73476E+04  1.52026E+04 -1.04242E+04  1.44332E+04  3.10193E+03
  6.37982E+03  1.00861E+04 -6.33438E+03  9.59183E+03 -1.25740E+04  2.82887E+03 -9.78616E+03 -7.36348E+03
  1.09631E+00 -1.16210E+04  5.60170E+03 -8.83478E+03  7.03673E+03 -1.43038E+03  1.08995E+03  4.65165E+03
 -5.06155E+03  1.00705E+03 -3.03405E+03 -4.44484E+03  9.10076E+02 -9.00560E+03  7.44312E+03 -9.11339E+03
  1.06703E+04 -3.59419E+03  1.04110E+04  2.93481E+03  8.74721E+03  8.29849E+03  4.53140E+03  1.22931E+04
 -1.16065E+03  1.40173E+04 -8.49666E+03  9.03185E+03 -9.82158E+03  2.83268E+03 -7.41467E+03 -1.46665E+03
 -4.51196E+03 -2.94125E+03 -6.71273E+02  1.51981E+03 -1.93455E+03  1.68189E+03 -3.22823E+03  3.44206E+03
 -7.23242E+03 -2.79500E+02 -8.07986E+03 -6.57019E+03 -3.37367E+03 -1.06310E+04  3.10557E+03 -7.60890E+03
  6.64065E+03 -3.47827E+03  4.85471E+03  1.99560E+03  7.49523E+02  2.61335E+03 -2.66167E+03  1.51476E+02
 -2.86202E+03 -4.46777E+03 -9.36174E+02 -6.23020E+03  3.32325E+03 -6.89419E+03  8.55503E+03 -3.43960E+03
  1.04171E+04  6.36738E+02  7.87232E+03  5.43392E+03  1.60328E+03  7.48527E+03 -4.51274E+03  7.55230E+03
 -6.35722E+03  2.59110E+03 -3.05443E+03 -1.01607E+03  1.16171E+03 -1.44110E+03  4.39210E+03 -1.02401E+03
  3.79914E+03  2.90556E+03  9.97093E+02  5.75862E+03 -3.86552E+03  5.68151E+03 -7.14466E+03  1.81475E+03
 -4.33246E+03 -3.03722E+03  7.12448E+01 -5.80217E+03  3.12869E+03 -3.08396E+03  2.85435E+03  5.85821E+02
  3.09945E+02  2.57446E+03 -3.67561E+03  4.08331E+03 -4.20375E+03  1.92939E+03 -3.61010E+03 -7.54916E+02
 -2.57101E+03 -5.15209E+03  7.42884E+02 -5.92300E+03  4.84210E+03 -4.16702E+03  5.24286E+03  6.41051E+02
  3.84569E+03  4.59714E+03  3.07154E+02  6.38892E+03 -4.32006E+03  3.67719E+03 -4.49437E+03 -3.79522E+02
 -5.24723E+03 -4.45006E+03 -1.25007E+03 -4.11601E+03  2.39207E+03 -4.23603E+03  2.37959E+03 -2.73200E+03
  2.47576E+03  2.11152E+02 -1.64552E+02  1.49127E+03  6.02913E+02  1.40612E+02 -6.39454E+01 -1.31911E+03
  2.73296E+03 -1.15789E+02  4.00600E+03  3.91061E+02  4.56632E+03  2.50222E+03  4.94960E+03  5.67600E+03
 -8.70992E+02  6.79902E+03 -6.48590E+03  5.07154E+03 -8.40262E+03  7.56429E+02 -6.48975E+03 -1.87068E+03
 -3.69568E+03 -5.39193E+03 -6.69952E+02 -4.20239E+03  1.50847E+03 -1.53593E+03  1.43978E+03 -1.87260E+03
  8.65153E+02 -1.47222E+03  1.97842E+03 -2.27192E+03  3.37025E+03 -9.72600E+02  3.07696E+03  4.84041E+02
  3.77137E+03  9.45777E+02  5.34671E+02  3.08361E+03 -1.69809E+03  2.35818E+03 -4.00355E+03  2.25292E+03
 -4.06574E+03 -1.04501E+03 -9.52890E+02 -2.50700E+03  9.86381E+02 -4.20267E+03  2.66255E+03 -4.23393E+03
  4.18774E+03 -2.86113E+03  5.53295E+03  5.74606E+01  4.25357E+03  3.48113E+03  1.16164E+03  4.78197E+03
 -1.65832E+03  4.99947E+03 -2.72772E+03  1.40904E+03 -1.29943E+03 -8.04100E+02 -1.28851E+02 -5.62568E+02
 -4.99393E+02  5.23836E+02 -6.41431E+02  1.88123E+03 -2.29294E+03  1.01314E+03 -3.63698E+03 -2.36606E+02
 -1.05445E+03 -3.59575E+03  9.12782E+02 -4.09178E+03  2.18269E+03 -3.50695E+03  2.21709E+03 -7.17867E+02
  3.24072E+03  1.89362E+03  1.51569E+03  2.52691E+03 -4.91907E+02  3.68731E+03 -2.06691E+03  1.95299E+03
 -3.03041E+03  7.13998E+02 -2.87792E+03 -1.70382E+03 -9.69241E+01 -2.59920E+03  1.28304E+03 -2.19775E+03
  2.04939E+03 -1.38492E+03  1.42611E+03  3.83406E+02  2.59588E+02  1.60075E+03  8.18067E+02  3.46713E+02
  1.69873E+03  4.34883E+02  1.10635E+03  1.02731E+03  9.45628E+02  2.07269E+03  1.18693E+03  1.38535E+03
 -1.04187E+03  2.17612E+03 -1.66183E+03  3.44751E+03 -1.97193E+03  9.55701E+02 -3.20901E+03  8.50642E+01
 -1.36137E+03 -2.89588E+03  5.64309E+02 -3.76444E+03  1.61671E+03 -2.19493E+03  2.53279E+03 -7.81239E+02
  2.21096E+03  1.43954E+03  2.69952E+02  1.91739E+03 -4.95455E+02  9.20241E+02 -5.04380E+02 -8.13592E+01
 -2.79636E+02 -1.38454E+03  1.23725E+03 -9.76019E+02  9.13100E+02 -8.68107E+02  1.15523E+03  3.04061E+02
  4.80034E+02  2.21424E+02  7.93819E+02 -4.64301E+02 -6.26353E+01  3.52572E+02  1.60315E+03 -3.03904E+02
 -2.37001E+02 -2.61769E+02  1.34389E+03  5.29049E+02  2.22445E+02  2.06369E+03 -1.12033E+02  2.38663E+03
 -1.32369E+03  7.55742E+02 -1.66183E+03  1.32875E+02 -1.76318E+03 -8.22457E+02  3.86571E+01 -5.91994E+02
  5.99512E+02 -6.53628E+02  5.92664E+02 -8.27988E+02  4.42122E+02  9.56717E+02 -8.06567E+02  7.35551E+02
 -8.97802E+02  6.64108E+02 -7.82017E+02 -1.20928E+03 -4.16185E+02 -1.98071E+03 -8.44454E+01 -1.10848E+03
  2.56428E+02 -3.03797E+02  6.01047E+02  1.73443E+02  1.18749E+03 -3.87467E+02  2.32109E+02  1.09113E+03
 -7.35762E+01  6.23031E+01 -8.19154E+02 -1.40237E+02  6.70359E+02 -4.23233E+02  1.36954E+03 -6.90131E+02
  6.90378E+02  1.78048E+02  2.44597E+03  2.89443E+02  1.15338E+03  8.12264E+02  9.48678E+01  1.19489E+03
 -9.83686E+02 -5.44488E+01 -9.40895E+02 -1.38415E+02 -6.27153E+02 -9.57936E+02  2.41973E+02 -2.82293E+02
  1.05699E+03 -5.08370E+02  2.38755E+02  5.13604E+02  3.26929E+00  1.09342E+03  2.93030E+02  8.60706E+02
 -2.73423E+02  8.02040E+02 -4.09389E+02  8.98392E+01  1.81801E+02  3.75119E+02 -5.73835E+02  5.02373E+02
 -5.31979E+02  6.91418E+02 -1.34121E+03  2.00700E+02 -1.25803E+03  1.65903E+02 -1.68856E+03 -5.23941E+02
 -5.27719E+02 -1.63446E+03  3.69099E+02 -2.11611E+03  7.34473E+02 -1.87281E+03  2.14509E+03 -7.67147E+02
  1.72638E+03 -4.80091E+02  6.48271E+02  1.43694E+03 -5.92092E+02  1.07966E+03 -5.45996E+02  7.22204E+02
 -7.58235E+02  7.27620E+02 -3.76223E+02 -2.04715E+02 -3.27820E+02  1.11028E+02 -6.71627E+02  1.50131E+02
 -1.23277E+03 -1.21258E+02 -9.04618E+02 -1.82551E+02  4.67021E+02 -4.60551E+02 -6.15729E+02 -8.05379E+02
  1.11290E+03 -5.31702E+02  4.44560E+02  2.48159E+02  7.95536E+02  8.90828E+02 -3.25577E+02  1.01002E+03
 -6.49870E+02  1.63825E+03 -1.38707E+03  1.22930E+03 -1.23626E+03 -6.18951E+01 -6.80021E+02 -7.20375E+02
 -6.76978E+02 -9.45684E+02  2.53846E+02 -7.55939E+02  5.20999E+02 -2.36648E+02  1.01488E+02  1.94157E+02
  2.96654E+02 -1.68118E+01  2.82144E+02  3.22272E+02  5.54866E+01  9.80155E+01 -5.00494E+01 -2.50825E+02
  3.47999E+02  4.65531E+02  5.05973E+01  1.37019E+02  1.15005E+02  1.49214E+02  3.81957E+02  2.19024E+02
 -3.09735E+02  2.76078E+02 -2.97505E+02  3.49839E+02 -5.13582E+02 -1.15995E+02  1.69679E+02 -8.61408E+02
  1.33412E+02 -3.42647E+02  1.33573E+02  1.26132E+02  4.13975E+02 -6.45273E+02  2.56074E+02  3.68474E+02
  5.98991E+02  3.55216E+01  1.47844E+02  4.52138E+02 -6.14455E+02  6.02554E+02 -2.28742E+02  1.97490E+02
 -1.94406E+01  1.78345E+02 -5.85954E+02 -9.87473E+00 -5.66107E+02  3.69701E+02 -6.57333E+02 -4.49049E+01
 -8.58203E+02  2.17084E+02 -3.79317E+02 -7.19001E+02  5.38929E+02 -1.42815E+03  3.45657E+02 -2.90339E+02
  5.93378E+02 -1.80387E+02 -5.54925E+02 -8.15400E+00 -5.48551E+01  3.75693E+02 -1.98505E+02  5.13263E+02
