 $NMID ID='MM_0lb_SNR800_19hz_g45_45.RAW', FMTDAT='(8E13.5)'
 TRAMP=1., VOLUME=1. $END
  3.09914E+05  5.40341E+02  3.37116E+05  2.50765E+05  8.43711E+04  3.37481E+05 -1.32402E+05  2.50008E+05
 -1.89411E+05  8.25460E+04 -1.10942E+05 -3.25964E+04  1.54066E+03 -5.02660E+04  5.37160E+04  2.47858E+02
  3.52052E+04  5.26368E+04 -1.69175E+04  7.48658E+04 -5.99498E+04  6.27119E+04 -8.26487E+04  3.15605E+04
 -7.93420E+04 -1.09175E+04 -5.60260E+04 -5.01545E+04 -1.50073E+04 -6.79272E+04  2.68163E+04 -4.46212E+04
  3.88025E+04  3.93543E+03  1.54826E+04  4.66602E+04 -3.37566E+04  4.59973E+04 -6.49586E+04 -6.62642E+02
 -5.18229E+04 -5.55390E+04 -6.08364E+03 -7.48621E+04  3.28992E+04 -5.30052E+04  4.59729E+04 -1.64023E+04
  4.16066E+04  1.08870E+04  3.04872E+04  2.42045E+04  1.58771E+04  2.79849E+04 -4.66750E+03  2.68359E+04
 -2.19273E+04  1.29339E+04 -1.89952E+04 -4.04126E+03  4.00529E+03 -7.62321E+03  2.11851E+04  1.08584E+04
  7.50418E+03  3.31013E+04 -3.02393E+04  3.40493E+04 -6.07172E+04  1.87803E+03 -5.50147E+04 -4.11138E+04
 -1.22216E+04 -6.05546E+04  3.78907E+04 -4.29436E+04  5.48669E+04 -1.82064E+03  3.16932E+04  3.03803E+04
 -6.77425E+03  3.27106E+04 -2.80238E+04  1.30085E+04 -2.73500E+04 -5.20417E+03 -1.41716E+04 -9.94083E+03
 -7.04829E+03 -1.10263E+04 -9.44569E+02 -1.64601E+04  6.33946E+03 -2.26772E+04  1.50150E+04 -1.40743E+04
  1.24789E+04  4.12414E+03 -6.08518E+03  1.27274E+04 -1.90479E+04 -2.17829E+03 -7.90809E+03 -3.00939E+04
  2.09069E+04 -4.02090E+04  4.42186E+04 -1.87158E+04  4.15835E+04  1.81810E+04  1.42521E+04  4.15255E+04
 -1.52788E+04  3.06888E+04 -2.30073E+04  1.13326E+03 -8.25997E+03 -2.62541E+04  2.04319E+04 -3.08150E+04
  3.74708E+04 -7.13376E+03  3.08892E+04  2.23409E+04  1.49106E+04  4.21065E+04 -7.64636E+03  4.46764E+04
 -2.79300E+04  2.92438E+04 -3.67088E+04  8.16395E+03 -3.77523E+04 -1.49314E+04 -2.08101E+04 -3.36584E+04
  6.77300E+03 -3.37276E+04  2.87435E+04 -1.27428E+04  2.64518E+04  1.09581E+04  2.75016E+03  1.77929E+04
 -1.31254E+04  7.09293E+03 -9.34492E+03 -7.61785E+03  5.86195E+03 -1.02683E+04  1.71169E+04  6.64325E+03
  1.20090E+04  2.15372E+04 -6.48107E+03  2.32197E+04 -2.10905E+04  8.85002E+03 -2.46888E+04 -6.22309E+03
 -1.60693E+04 -1.61184E+04 -5.34481E+03 -1.61148E+04  3.86610E+03 -1.40509E+04  1.18161E+04 -1.36896E+04
  2.06231E+04 -1.13649E+04  2.79230E+04  7.41903E+02  2.12070E+04  1.59866E+04  3.93330E+03  3.19104E+04
 -1.57724E+04  2.73093E+04 -2.55698E+04  9.29396E+03 -1.93603E+04 -1.03349E+04 -3.84228E+03 -1.39614E+04
  3.01913E+03 -4.50104E+03 -2.25864E+03  5.12915E+03 -1.23721E+04  5.42022E+03 -1.30822E+04 -4.67522E+03
 -8.38330E+03 -1.49095E+04  4.45396E+03 -1.86967E+04  1.24541E+04 -1.36667E+04  1.40110E+04 -1.55683E+03
  8.75230E+03  1.04610E+04 -6.31223E+02  1.50732E+04 -1.00142E+04  8.68426E+03 -1.50525E+04 -3.17344E+03
 -1.12250E+04 -1.39328E+04 -1.51475E+03 -1.86312E+04  8.51074E+03 -1.49799E+04  1.55298E+04 -7.00666E+03
  1.39932E+04  8.72244E+02  1.01884E+04  3.78462E+03  5.09672E+03  5.95157E+02  7.45339E+03 -1.49411E+03
  1.32780E+04  2.59184E+03  1.38820E+04  1.24153E+04  8.38351E+03  2.40427E+04 -3.23843E+03  2.55933E+04
 -1.54777E+04  1.92942E+04 -2.35463E+04  8.89514E+03 -2.39829E+04 -1.54658E+03 -2.06151E+04 -1.36596E+04
 -9.74991E+03 -1.93956E+04  6.20716E+03 -1.84244E+04  1.58982E+04 -1.06311E+04  1.49717E+04  3.33639E+03
  6.49374E+03  1.06639E+04 -6.94287E+03  9.80589E+03 -1.30143E+04  2.52463E+03 -1.00508E+04 -7.36907E+03
  1.41825E+02 -1.20223E+04  5.82487E+03 -9.11705E+03  7.62897E+03 -1.62156E+03  1.18878E+03  4.66363E+03
 -5.57592E+03  1.32597E+03 -3.19914E+03 -4.32820E+03  8.06348E+02 -9.74474E+03  7.68287E+03 -9.63351E+03
  1.18368E+04 -4.32259E+03  1.12326E+04  2.87166E+03  9.66470E+03  8.89377E+03  4.76055E+03  1.31182E+04
 -1.61647E+03  1.50922E+04 -9.10965E+03  9.73075E+03 -1.04841E+04  2.93562E+03 -8.19376E+03 -1.63375E+03
 -4.54573E+03 -3.22589E+03 -7.64804E+02  1.62685E+03 -1.94513E+03  1.95391E+03 -3.26544E+03  3.26802E+03
 -7.53596E+03 -5.28002E+02 -8.21064E+03 -7.13348E+03 -3.32750E+03 -1.12337E+04  3.25397E+03 -8.01227E+03
  6.84836E+03 -3.88215E+03  5.14893E+03  1.90936E+03  6.50867E+02  2.64657E+03 -3.19253E+03 -1.64308E+02
 -3.24588E+03 -4.79496E+03 -5.85129E+02 -6.90639E+03  3.69492E+03 -7.53565E+03  9.42733E+03 -3.86412E+03
  1.13623E+04  4.66036E+02  8.28409E+03  5.92664E+03  1.47208E+03  7.87505E+03 -4.98373E+03  7.93115E+03
 -6.72798E+03  2.77316E+03 -3.16486E+03 -1.24734E+03  1.26768E+03 -1.69883E+03  4.69602E+03 -1.19300E+03
  4.08203E+03  3.18671E+03  9.60480E+02  5.98001E+03 -4.18958E+03  6.01953E+03 -7.41398E+03  1.70939E+03
 -4.50430E+03 -3.47677E+03  3.34974E+02 -6.22467E+03  3.71041E+03 -2.95094E+03  3.38305E+03  6.93678E+02
  5.38422E+02  3.14261E+03 -3.92952E+03  4.37453E+03 -4.26736E+03  2.28220E+03 -3.83217E+03 -1.17059E+03
 -2.72391E+03 -5.58391E+03  1.01877E+03 -6.58558E+03  5.27783E+03 -4.57963E+03  5.91982E+03  8.04098E+02
  4.60823E+03  5.23629E+03  2.13352E+02  7.00667E+03 -5.06055E+03  3.99979E+03 -5.19186E+03 -2.48169E+02
 -5.28830E+03 -5.06771E+03 -1.47461E+03 -4.64623E+03  2.52964E+03 -4.41987E+03  2.55433E+03 -2.94338E+03
  2.60538E+03  2.26013E+02  2.60156E+02  1.30046E+03  4.83410E+02 -1.76429E+02 -1.06237E+02 -1.69739E+03
  3.42753E+03 -3.33945E+02  5.13802E+03  7.02565E+02  5.21082E+03  2.82705E+03  4.89548E+03  6.78850E+03
 -1.12696E+03  7.83524E+03 -7.03635E+03  6.23813E+03 -9.15527E+03  1.09965E+03 -7.11784E+03 -2.39161E+03
 -3.70523E+03 -6.06818E+03 -4.72491E+02 -4.82203E+03  2.09547E+03 -1.62174E+03  1.54932E+03 -2.29727E+03
  1.29978E+03 -1.66589E+03  1.96111E+03 -2.39730E+03  3.36801E+03 -1.36935E+03  3.21183E+03  2.37427E+02
  3.97937E+03  1.04967E+03  1.02295E+03  3.33511E+03 -1.30333E+03  2.21851E+03 -4.26649E+03  2.55273E+03
 -4.60272E+03 -1.00037E+03 -1.54848E+03 -2.88147E+03  2.85555E+02 -4.58518E+03  3.07531E+03 -4.89724E+03
  4.71440E+03 -3.38474E+03  6.06933E+03 -6.89682E+00  4.67079E+03  4.01397E+03  1.00842E+03  5.63977E+03
 -2.07589E+03  5.42071E+03 -2.76638E+03  1.48792E+03 -1.87170E+03 -9.05713E+02 -6.66422E+02 -4.21980E+02
 -3.87573E+02  4.66543E+02 -9.34069E+02  2.00634E+03 -2.38547E+03  1.11182E+03 -3.57956E+03 -1.67516E+02
 -1.24967E+03 -3.86466E+03  8.26653E+02 -4.48440E+03  2.60985E+03 -3.89748E+03  3.19017E+03 -1.02919E+03
  3.70232E+03  2.42428E+03  1.54548E+03  3.33181E+03 -7.96516E+02  3.97962E+03 -2.18057E+03  2.37518E+03
 -3.35427E+03  5.41655E+02 -3.27035E+03 -2.42985E+03 -4.09484E+02 -2.90252E+03  1.22465E+03 -2.10461E+03
  2.48662E+03 -1.03673E+03  1.85946E+03  5.21916E+02  2.08903E+01  1.54498E+03  6.82047E+02  4.71238E+02
  1.52575E+03  3.04348E+02  1.24809E+03  1.15822E+03  9.89378E+02  2.24798E+03  1.41576E+03  1.58189E+03
 -1.14517E+03  2.90250E+03 -2.42353E+03  3.69862E+03 -2.51530E+03  1.22462E+03 -4.02833E+03 -3.51723E+02
 -1.44732E+03 -3.23345E+03  4.86975E+02 -4.22614E+03  1.50243E+03 -2.42286E+03  2.80774E+03 -7.21724E+02
  2.09098E+03  1.73532E+03  3.51000E+02  2.01717E+03 -5.77026E+02  1.03588E+03 -8.68231E+02  1.40699E+02
 -3.16614E+02 -1.41590E+03  1.19710E+03 -1.40857E+03  1.25187E+03 -9.25288E+02  1.14879E+03  4.91363E+02
  6.93460E+02  2.69962E+02  6.19775E+02 -2.42325E+01 -8.01071E+01  6.74981E+02  1.63789E+03  1.57025E+02
  1.81456E+02 -1.91001E+02  1.58987E+03  6.25276E+02  1.00015E+02  2.23146E+03 -1.64266E+02  2.53163E+03
 -1.29556E+03  7.89271E+02 -1.79470E+03  2.57898E+02 -1.82636E+03 -6.54705E+02 -8.57550E+01 -9.44306E+02
  4.89749E+02 -1.37331E+03  9.18212E+02 -6.88469E+02  4.32644E+02  1.10604E+03 -4.50269E+02  8.49416E+02
 -1.24402E+03  5.07411E+02 -1.15584E+03 -1.09883E+03 -7.06718E+02 -1.74672E+03 -7.14759E+01 -1.24515E+03
  3.15431E+02 -4.88814E+02  6.40134E+02  6.87424E+01  1.20330E+03 -3.63228E+02  1.89272E+02  9.82712E+02
 -2.66363E+02  4.42371E+01 -9.47138E+02 -2.30542E+02  5.84838E+02 -7.31146E+02  1.74714E+03 -6.14858E+02
  1.18060E+03  6.22133E+00  2.73662E+03  4.19884E+02  7.78261E+02  1.42013E+03 -2.34457E+02  1.72212E+03
 -1.11331E+03  1.95955E+02 -1.47332E+03 -1.55047E+02 -7.69011E+02 -9.32369E+02  1.74208E+02 -4.47916E+02
  1.41175E+03 -6.38877E+02  7.76236E+02  2.55550E+02  1.14811E+01  1.22174E+03  2.95103E+02  1.23125E+03
 -5.30734E+02  1.39473E+03 -5.45529E+02  1.79800E+02 -1.12422E+02  4.47417E+02 -8.28817E+02  5.29630E+02
 -6.83820E+02  7.56066E+02 -1.88489E+03  3.41068E+02 -1.56633E+03  9.02515E+01 -2.50955E+03 -9.17473E+02
 -8.27174E+02 -2.21137E+03  5.98891E+02 -2.50874E+03  8.36709E+02 -2.25248E+03  2.71971E+03 -6.95482E+02
  2.07169E+03 -1.52939E+02  1.39225E+03  1.20289E+03 -4.34858E+02  1.28014E+03 -4.17254E+02  9.20659E+02
 -9.44699E+02  4.65596E+02 -5.57432E+02 -1.56881E+02 -5.37075E+02  4.09005E+02 -2.49007E+02  2.79441E+02
 -1.07609E+03  4.15441E+00 -8.56393E+02  2.31843E+02  3.27159E+02 -1.68781E+02 -4.42355E+02 -5.93950E+02
  1.10976E+03 -4.58429E+02  3.35860E+02  1.48149E+02  1.04774E+03  9.80989E+02 -2.39746E+02  1.15181E+03
 -6.77091E+02  2.07261E+03 -1.20378E+03  8.90755E+02 -1.42080E+03 -4.51970E+02 -1.08086E+03 -1.00710E+03
 -7.88441E+02 -1.21927E+03  2.00329E+01 -9.90355E+02  4.60960E+02 -6.03720E+02  5.60900E+02  1.24706E+02
  5.26918E+02  1.46050E+02  2.93294E+02  2.99547E+02 -4.65591E+02 -1.40613E+01 -1.46478E+02 -2.24840E+02
  5.03696E+02  1.15476E+02  1.77020E+02  5.51847E+02 -2.08696E+02  4.71187E+02  7.40590E+02 -3.93763E+00
 -2.78061E+02  5.40003E+02 -6.26386E+02 -1.11642E+02 -5.85942E+02 -4.10011E+02  4.02557E+02 -1.03201E+03
  4.48098E+02 -6.38912E+02  2.67954E+02  1.79406E+02  9.08998E+02 -5.96977E+02  4.60073E+02  8.49792E+02
  5.88949E+02  3.94558E+02 -3.15893E+02  5.18201E+02 -5.16460E+02  3.72505E+02 -2.70494E+02  2.11329E+02
 -3.41945E+02 -4.65339E+02 -2.34807E+02  1.12709E+02 -3.87770E+02  1.65269E+02 -6.27002E+02 -2.12894E+02
 -1.07233E+03  3.53786E+02 -1.51033E+02 -6.69383E+02  8.55389E+02 -1.38529E+03  7.82710E+02  5.10381E+01
  6.65117E+02 -1.14166E+02 -4.65597E+02 -2.24554E+01 -1.49070E+02  7.04883E+02 -3.03069E+02  9.32476E+02
