 $NMID ID='MM_0lb_SNR800_15hz_g45_64.RAW', FMTDAT='(8E13.5)'
 TRAMP=1., VOLUME=1. $END
  3.09723E+05  2.60346E+02  3.37638E+05  2.50542E+05  8.47529E+04  3.37663E+05 -1.32501E+05  2.51148E+05
 -1.90072E+05  8.27277E+04 -1.11436E+05 -3.26989E+04  1.11530E+03 -5.03299E+04  5.37773E+04  5.54694E+01
  3.53339E+04  5.27923E+04 -1.69539E+04  7.52318E+04 -6.05775E+04  6.34652E+04 -8.36493E+04  3.18306E+04
 -8.04660E+04 -1.12568E+04 -5.69943E+04 -5.08661E+04 -1.51554E+04 -6.94637E+04  2.72040E+04 -4.52650E+04
  3.96096E+04  3.69843E+03  1.60526E+04  4.75211E+04 -3.38854E+04  4.68881E+04 -6.60325E+04 -3.40184E+02
 -5.30734E+04 -5.64708E+04 -6.48979E+03 -7.64775E+04  3.36653E+04 -5.43416E+04  4.72010E+04 -1.68858E+04
  4.29991E+04  1.12602E+04  3.18756E+04  2.53736E+04  1.58505E+04  2.91228E+04 -4.75518E+03  2.67828E+04
 -2.18927E+04  1.24474E+04 -1.85847E+04 -4.70412E+03  5.02714E+03 -7.38583E+03  2.21776E+04  1.20197E+04
  7.24244E+03  3.45590E+04 -3.15474E+04  3.48777E+04 -6.27426E+04  1.95206E+03 -5.65417E+04 -4.22248E+04
 -1.24587E+04 -6.23449E+04  3.93439E+04 -4.48522E+04  5.74400E+04 -2.32273E+03  3.34147E+04  3.17128E+04
 -6.19664E+03  3.48340E+04 -2.92729E+04  1.51339E+04 -2.94264E+04 -4.71211E+03 -1.58563E+04 -1.08457E+04
 -8.31053E+03 -1.26943E+04 -1.24687E+03 -1.74557E+04  7.06011E+03 -2.28451E+04  1.53076E+04 -1.33809E+04
  1.19334E+04  4.68407E+03 -7.47073E+03  1.27965E+04 -2.03696E+04 -3.63006E+03 -8.41317E+03 -3.24513E+04
  2.24489E+04 -4.25725E+04  4.70559E+04 -1.93997E+04  4.44438E+04  1.88058E+04  1.54057E+04  4.33587E+04
 -1.53604E+04  3.30714E+04 -2.46288E+04  1.42526E+03 -9.10109E+03 -2.73241E+04  2.08240E+04 -3.29718E+04
  3.99082E+04 -8.75401E+03  3.41510E+04  2.32824E+04  1.73671E+04  4.52031E+04 -7.82328E+03  4.85182E+04
 -3.06823E+04  3.27610E+04 -4.01931E+04  9.06931E+03 -4.12254E+04 -1.61057E+04 -2.25234E+04 -3.70303E+04
  7.22006E+03 -3.62575E+04  3.06456E+04 -1.43356E+04  2.82745E+04  1.08087E+04  3.65907E+03  1.86836E+04
 -1.33711E+04  7.97456E+03 -9.88276E+03 -7.60457E+03  5.96253E+03 -1.05340E+04  1.74674E+04  6.37560E+03
  1.28479E+04  2.16444E+04 -6.13534E+03  2.45144E+04 -2.23023E+04  1.05736E+04 -2.68059E+04 -5.32068E+03
 -1.92919E+04 -1.71227E+04 -7.47473E+03 -1.93099E+04  3.64816E+03 -1.80264E+04  1.48575E+04 -1.70213E+04
  2.45989E+04 -1.23031E+04  3.12075E+04  2.66886E+03  2.27992E+04  1.86485E+04  4.03128E+03  3.51659E+04
 -1.72127E+04  2.94447E+04 -2.72453E+04  1.03161E+04 -2.05635E+04 -1.03881E+04 -4.21701E+03 -1.34182E+04
  2.08425E+03 -3.27201E+03 -4.04445E+03  6.28649E+03 -1.51421E+04  5.18487E+03 -1.54342E+04 -6.25769E+03
 -9.70833E+03 -1.77255E+04  4.90891E+03 -2.18979E+04  1.43359E+04 -1.56740E+04  1.68972E+04 -1.56123E+03
  1.06955E+04  1.26040E+04 -8.50709E+02  1.81857E+04 -1.23892E+04  1.01826E+04 -1.76234E+04 -3.82651E+03
 -1.32031E+04 -1.58105E+04 -1.83998E+03 -2.18318E+04  9.62963E+03 -1.79413E+04  1.81951E+04 -8.49672E+03
  1.69200E+04  5.65262E+02  1.19821E+04  4.21147E+03  6.28986E+03  9.53131E+02  9.13835E+03 -1.60247E+03
  1.64389E+04  2.84633E+03  1.81036E+04  1.42962E+04  1.14924E+04  2.86423E+04 -2.83195E+03  3.19408E+04
 -1.87206E+04  2.52145E+04 -2.94204E+04  1.25156E+04 -3.04857E+04 -2.48428E+03 -2.53053E+04 -1.78201E+04
 -1.14116E+04 -2.51241E+04  8.69210E+03 -2.31266E+04  1.98239E+04 -1.23095E+04  1.81237E+04  4.70194E+03
  6.90918E+03  1.32138E+04 -8.34726E+03  1.21830E+04 -1.53243E+04  2.48725E+03 -1.18395E+04 -9.57308E+03
 -1.42037E+01 -1.43833E+04  7.51203E+03 -1.08486E+04  9.53335E+03 -1.23554E+03  2.15932E+03  5.93460E+03
 -6.60064E+03  2.23859E+03 -5.16470E+03 -5.29242E+03 -1.57966E+02 -1.25520E+04  9.18623E+03 -1.26331E+04
  1.54303E+04 -6.70937E+03  1.59662E+04  3.00222E+03  1.38338E+04  1.21108E+04  6.39184E+03  1.83484E+04
 -2.40858E+03  1.99498E+04 -1.26603E+04  1.26064E+04 -1.45117E+04  3.23130E+03 -1.03007E+04 -2.93616E+03
 -5.22547E+03 -4.66084E+03 -8.07256E+02  1.43637E+03 -2.28989E+03  2.23326E+03 -4.86156E+03  4.29761E+03
 -1.01985E+04 -7.18379E+02 -1.03455E+04 -8.41743E+03 -4.09245E+03 -1.36454E+04  4.12862E+03 -1.04361E+04
  8.67738E+03 -4.23129E+03  6.41734E+03  2.77151E+03  4.99311E+02  3.81707E+03 -4.87306E+03  3.43233E+01
 -4.22011E+03 -6.55307E+03 -8.10099E+02 -9.60159E+03  5.26413E+03 -1.02110E+04  1.28233E+04 -5.25371E+03
  1.50220E+04  1.17421E+03  1.09830E+04  8.33200E+03  1.93394E+03  1.15894E+04 -6.50774E+03  1.05151E+04
 -8.66013E+03  3.16880E+03 -4.28785E+03 -1.87564E+03  1.64037E+03 -2.80735E+03  5.83392E+03 -9.23258E+02
  5.34604E+03  4.39961E+03  1.13307E+03  7.99009E+03 -5.68026E+03  8.12074E+03 -9.79012E+03  2.28686E+03
 -6.73624E+03 -4.70975E+03  2.86748E+02 -8.61114E+03  5.14463E+03 -4.00288E+03  4.88196E+03  1.55026E+03
  9.99402E+02  5.20354E+03 -4.75947E+03  6.66573E+03 -7.37645E+03  3.06069E+03 -7.43123E+03 -2.11205E+03
 -4.21306E+03 -8.67561E+03  2.09066E+03 -1.01863E+04  8.39521E+03 -5.96946E+03  9.29828E+03  1.53390E+03
  6.19041E+03  7.34768E+03 -2.95533E+02  9.66367E+03 -6.75518E+03  5.41098E+03 -7.31239E+03 -6.52119E+02
 -6.94828E+03 -6.72563E+03 -1.66412E+03 -7.20099E+03  3.64133E+03 -5.96561E+03  4.32836E+03 -3.16775E+03
  3.30699E+03  9.72736E+02 -7.91978E+01  1.25617E+03  1.20110E+02 -9.69896E+02  9.31340E+02 -3.30718E+03
  5.82918E+03 -1.62026E+03  7.92917E+03  7.60005E+02  7.87847E+03  4.99053E+03  6.50596E+03  1.10531E+04
 -2.30217E+03  1.21976E+04 -1.07354E+04  9.18549E+03 -1.40404E+04  1.71051E+03 -1.12036E+04 -4.23743E+03
 -5.76384E+03 -9.21385E+03 -3.72813E+02 -7.19155E+03  2.76967E+03 -3.60983E+03  2.26327E+03 -2.45456E+03
  1.93375E+03 -1.81820E+03  2.61534E+03 -2.50918E+03  4.07184E+03 -1.92071E+03  4.59359E+03 -1.13021E+02
  6.35712E+03  1.53341E+03  2.26771E+03  4.93073E+03 -1.83762E+03  4.85617E+03 -6.20506E+03  4.09822E+03
 -7.53073E+03 -1.08149E+03 -3.66439E+03 -5.08461E+03  1.93563E+02 -7.76200E+03  4.44553E+03 -8.11406E+03
  7.86000E+03 -4.86123E+03  9.82616E+03  5.88293E+02  7.26229E+03  6.82927E+03  1.45631E+03  8.74094E+03
 -3.64908E+03  8.05284E+03 -5.42131E+03  2.68781E+03 -3.24884E+03 -1.15926E+03 -1.12863E+03 -1.16715E+03
 -4.42236E+02  6.35492E+02 -1.29353E+03  1.96187E+03 -3.55897E+03  1.60888E+03 -5.16037E+03 -7.21669E+02
 -2.77584E+03 -5.43657E+03  7.02385E+02 -6.89027E+03  4.07218E+03 -6.28815E+03  6.29102E+03 -1.82431E+03
  6.76730E+03  3.54372E+03  2.95852E+03  5.57192E+03 -1.36601E+03  6.37361E+03 -4.48697E+03  4.08163E+03
 -6.49306E+03  6.31008E+02 -5.28304E+03 -3.88836E+03 -3.80931E+02 -5.34030E+03  2.60574E+03 -3.98176E+03
  4.45007E+03 -2.01314E+03  2.92587E+03  1.07823E+03  9.29142E+02  2.39258E+03  8.48587E+02  6.18496E+02
  2.25332E+03  4.33669E+02  1.65193E+03  1.55931E+03  2.12690E+03  3.00609E+03  1.84884E+03  3.19487E+03
 -1.75510E+03  5.08875E+03 -4.48553E+03  5.81393E+03 -5.71999E+03  1.39086E+03 -6.89261E+03 -1.56286E+03
 -2.99574E+03 -6.28728E+03  9.59674E+02 -7.35460E+03  3.60704E+03 -4.29042E+03  5.23082E+03 -1.30997E+03
  4.25869E+03  2.78938E+03  9.55417E+02  3.77924E+03 -1.29028E+03  2.24750E+03 -2.17134E+03 -6.18050E+01
 -8.29747E+02 -2.77053E+03  1.80709E+03 -2.81751E+03  2.65131E+03 -1.47272E+03  2.13673E+03  6.89203E+02
  1.56028E+03  1.20093E+03  7.61174E+02  3.28470E+02 -2.99356E+02  8.13241E+02  1.45900E+03 -2.45324E+02
  3.02788E+02 -2.20181E+02  3.05123E+03  8.88821E+02  8.36508E+02  3.59562E+03 -4.63362E+02  4.33172E+03
 -2.78736E+03  2.39399E+03 -3.82568E+03  6.47386E+02 -3.80428E+03 -1.45213E+03 -9.27451E+02 -1.98956E+03
  2.49727E+02 -2.42788E+03  1.58137E+03 -9.94609E+02  1.20919E+03  1.69267E+03 -6.15399E+02  2.01537E+03
 -2.44476E+03  1.50537E+03 -2.36078E+03 -1.57357E+03 -1.49886E+03 -3.76103E+03  4.49797E+02 -3.27311E+03
  1.59397E+03 -1.51636E+03  2.10298E+03  9.72674E+01  2.29791E+03  5.85973E+02  1.55869E+02  1.75616E+03
 -8.31849E+02  2.30763E+02 -1.38967E+03 -8.29613E+02  7.61360E+02 -2.22365E+03  3.06815E+03 -1.67307E+03
  2.71074E+03  6.38760E+01  4.22211E+03  1.78328E+03  1.64625E+03  3.34291E+03 -1.17620E+03  3.58370E+03
 -2.67836E+03  1.02559E+03 -3.17903E+03 -3.26955E+01 -1.39299E+03 -2.30920E+03  8.86602E+02 -1.42225E+03
  2.38851E+03 -1.07886E+03  1.91465E+03  1.04180E+03  5.40177E+02  2.10868E+03 -2.44542E+02  1.94432E+03
 -6.61700E+02  1.73484E+03 -9.20801E+02  1.57670E+02  5.64488E+01  5.47508E+02 -5.38109E+02  9.14068E+02
 -7.73659E+02  1.58017E+03 -2.63843E+03  9.65757E+02 -3.18208E+03  3.79046E+02 -4.61618E+03 -2.39431E+03
 -2.23508E+03 -4.37628E+03  9.52659E+02 -5.49451E+03  2.40583E+03 -4.30063E+03  5.28447E+03 -1.89684E+03
  4.15458E+03  3.50090E+02  2.84833E+03  3.01475E+03 -4.62410E+02  3.21106E+03 -1.24116E+03  2.55765E+03
 -2.05210E+03  1.25673E+03 -1.01624E+03 -2.14406E+02 -7.07768E+02 -8.06959E+01 -5.52375E+02 -3.49715E+01
 -1.17316E+03  2.61648E+00 -1.14512E+03 -1.36569E+02 -4.24240E+01 -1.42588E+03 -3.15550E+02 -1.24768E+03
  1.99272E+03 -1.09186E+03  1.69636E+03  9.92688E+01  2.14372E+03  1.72969E+03 -2.49744E+02  3.29968E+03
 -1.60893E+03  4.10518E+03 -3.41944E+03  2.29904E+03 -3.69767E+03 -5.02311E+02 -2.71413E+03 -2.24268E+03
 -1.67461E+03 -3.02989E+03  5.91590E+02 -2.74073E+03  1.68776E+03 -1.46303E+03  1.75335E+03  2.85945E+02
  1.11085E+03  1.36919E+03 -1.20550E+02  7.43319E+02 -7.39579E+02 -5.87298E+01 -2.16934E+02 -5.08592E+02
  1.05871E+03 -2.29205E+01  1.12206E+03  6.94062E+02  6.20097E+02  1.09941E+03  1.49990E+02  1.50844E+03
 -1.32984E+03  1.23542E+03 -1.68349E+03  1.70512E+02 -1.75020E+03 -9.65049E+02  8.11365E+00 -2.66157E+03
  1.24605E+03 -1.84456E+03  1.57992E+03 -4.41408E+02  1.88133E+03 -1.32837E+02  1.14025E+03  1.76314E+03
  4.23495E+02  1.60481E+03 -6.26925E+02  1.52678E+03 -1.25038E+03  1.01697E+03 -1.06438E+03 -3.55230E+01
 -4.23960E+02  2.93231E+02 -8.91059E+02  4.77493E+02 -1.02128E+03  2.25650E+02 -1.73247E+03 -7.88672E+02
 -1.75866E+03 -4.37148E+02 -5.48885E+02 -1.96964E+03  1.09637E+03 -2.57952E+03  1.58117E+03 -9.01012E+02
  1.75453E+03  2.27952E+02  3.51531E+02  1.20616E+03  9.18002E+01  1.96678E+03 -1.21760E+03  1.38502E+03
