 $NMID ID='MM_0lb_SNR800_10hz_g55_9.RAW', FMTDAT='(8E13.5)'
 TRAMP=1., VOLUME=1. $END
  3.09641E+05  3.65310E+02  3.37931E+05  2.50594E+05  8.55265E+04  3.38504E+05 -1.32265E+05  2.51757E+05
 -1.91217E+05  8.41006E+04 -1.12539E+05 -3.21480E+04  6.31635E+02 -5.07455E+04  5.36766E+04 -4.72048E+02
  3.53415E+04  5.34391E+04 -1.63570E+04  7.59704E+04 -6.12930E+04  6.40633E+04 -8.54854E+04  3.29832E+04
 -8.21629E+04 -1.15659E+04 -5.80703E+04 -5.21800E+04 -1.47237E+04 -7.09133E+04  2.80873E+04 -4.66384E+04
  4.11146E+04  3.58710E+03  1.67183E+04  4.87196E+04 -3.50213E+04  4.78989E+04 -6.81926E+04  2.00865E+02
 -5.49277E+04 -5.79375E+04 -7.48867E+03 -7.90915E+04  3.47223E+04 -5.69352E+04  4.97575E+04 -1.83162E+04
  4.51497E+04  1.13955E+04  3.28580E+04  2.62170E+04  1.58929E+04  3.03895E+04 -5.76138E+03  2.76509E+04
 -2.25722E+04  1.14711E+04 -1.81865E+04 -5.82894E+03  6.92838E+03 -7.34515E+03  2.31565E+04  1.39506E+04
  7.06898E+03  3.73053E+04 -3.37227E+04  3.68883E+04 -6.57895E+04  2.31535E+03 -5.90546E+04 -4.47763E+04
 -1.25480E+04 -6.56693E+04  4.16113E+04 -4.69938E+04  6.10081E+04 -2.38611E+03  3.66337E+04  3.40037E+04
 -5.48201E+03  3.91284E+04 -3.15760E+04  1.85851E+04 -3.30388E+04 -3.76157E+03 -1.87664E+04 -1.16026E+04
 -9.41357E+03 -1.50203E+04 -2.42214E+02 -1.94438E+04  8.59460E+03 -2.35052E+04  1.59688E+04 -1.27182E+04
  1.07054E+04  6.09476E+03 -1.01198E+04  1.27354E+04 -2.30710E+04 -6.42940E+03 -8.61368E+03 -3.70667E+04
  2.50109E+04 -4.62571E+04  5.20493E+04 -2.08228E+04  4.88991E+04  2.05607E+04  1.74475E+04  4.71656E+04
 -1.68011E+04  3.56481E+04 -2.76387E+04  2.33454E+03 -1.16529E+04 -2.92041E+04  2.15439E+04 -3.68906E+04
  4.43240E+04 -1.07463E+04  3.98140E+04  2.48369E+04  2.08287E+04  5.07521E+04 -8.33735E+03  5.55888E+04
 -3.47743E+04  3.78066E+04 -4.70379E+04  1.09837E+04 -4.73793E+04 -1.83029E+04 -2.61665E+04 -4.18715E+04
  7.81653E+03 -4.19845E+04  3.41668E+04 -1.68124E+04  3.16348E+04  1.09450E+04  4.91382E+03  2.06775E+04
 -1.35567E+04  9.54228E+03 -1.15432E+04 -7.60443E+03  5.68226E+03 -1.15198E+04  1.87271E+04  5.71208E+03
  1.46093E+04  2.26915E+04 -5.73019E+03  2.67564E+04 -2.32729E+04  1.38060E+04 -3.13597E+04 -3.35292E+03
 -2.49136E+04 -1.81518E+04 -1.12426E+04 -2.49310E+04  3.93036E+03 -2.48349E+04  1.96848E+04 -2.24446E+04
  3.13641E+04 -1.42465E+04  3.75166E+04  4.53483E+03  2.65252E+04  2.42397E+04  4.61444E+03  4.07859E+04
 -1.96074E+04  3.35289E+04 -3.02738E+04  1.17144E+04 -2.18763E+04 -1.02061E+04 -4.87663E+03 -1.28142E+04
  7.94117E+02 -1.93051E+03 -7.34086E+03  8.15901E+03 -1.96972E+04  5.19207E+03 -2.01992E+04 -9.18837E+03
 -1.17214E+04 -2.27283E+04  6.04261E+03 -2.70097E+04  1.87281E+04 -1.95186E+04  2.24289E+04 -1.49341E+03
  1.41071E+04  1.56338E+04 -1.21133E+03  2.25885E+04 -1.58768E+04  1.27193E+04 -2.26068E+04 -4.88857E+03
 -1.68662E+04 -2.07277E+04 -2.08219E+03 -2.78963E+04  1.27004E+04 -2.26986E+04  2.30172E+04 -1.15930E+04
  2.15142E+04  2.80534E+01  1.56605E+04  5.18880E+03  8.47443E+03  1.17360E+03  1.17367E+04 -2.11553E+03
  2.15266E+04  3.23840E+03  2.49860E+04  1.86013E+04  1.67266E+04  3.72276E+04 -2.81807E+03  4.33407E+04
 -2.46777E+04  3.55248E+04 -4.04799E+04  1.83816E+04 -4.33143E+04 -3.57212E+03 -3.51364E+04 -2.50018E+04
 -1.44711E+04 -3.64403E+04  1.26723E+04 -3.14810E+04  2.72450E+04 -1.50722E+04  2.33081E+04  7.48250E+03
  8.00503E+03  1.81416E+04 -1.12456E+04  1.55382E+04 -1.94288E+04  2.42714E+03 -1.49643E+04 -1.25158E+04
 -2.23099E+02 -1.92084E+04  1.02099E+04 -1.41330E+04  1.30922E+04 -1.59862E+03  3.44200E+03  8.86100E+03
 -8.54418E+03  3.62346E+03 -8.96001E+03 -6.62083E+03 -1.76229E+03 -1.76738E+04  1.16838E+04 -1.93105E+04
  2.23519E+04 -1.11003E+04  2.52369E+04  3.62699E+03  2.23804E+04  1.81320E+04  1.01993E+04  2.83116E+04
 -5.21884E+03  3.00911E+04 -1.96915E+04  1.87154E+04 -2.19160E+04  3.65733E+03 -1.46422E+04 -5.50867E+03
 -6.08400E+03 -7.28912E+03 -7.09779E+02  5.35403E+02 -2.49964E+03  3.46484E+03 -6.91547E+03  5.25517E+03
 -1.38480E+04 -7.60862E+02 -1.43666E+04 -1.16691E+04 -5.69973E+03 -1.87935E+04  6.38135E+03 -1.49969E+04
  1.27483E+04 -5.94770E+03  9.02048E+03  3.83164E+03 -7.81301E+01  5.73887E+03 -7.68096E+03 -9.90748E+01
 -7.23593E+03 -9.79165E+03 -9.86891E+02 -1.46114E+04  8.86155E+03 -1.57219E+04  1.92835E+04 -8.57180E+03
  2.29275E+04  2.08875E+03  1.63881E+04  1.34396E+04  3.15135E+03  1.79900E+04 -9.82385E+03  1.46715E+04
 -1.26125E+04  4.31800E+03 -6.65605E+03 -3.21229E+03  2.27119E+03 -4.31990E+03  8.20475E+03 -1.19060E+03
  7.13778E+03  6.90487E+03  1.04575E+03  1.21919E+04 -8.76582E+03  1.16307E+04 -1.50466E+04  2.62927E+03
 -1.03964E+04 -7.76681E+03  3.90625E+02 -1.29109E+04  8.48169E+03 -6.98975E+03  9.06064E+03  3.23332E+03
  2.21762E+03  9.64870E+03 -7.59291E+03  1.09308E+04 -1.28881E+04  4.70230E+03 -1.33088E+04 -5.23992E+03
 -7.86474E+03 -1.51176E+04  4.01505E+03 -1.71459E+04  1.44839E+04 -1.04674E+04  1.59992E+04  2.91759E+03
  9.32011E+03  1.25707E+04 -1.41739E+03  1.53544E+04 -1.11096E+04  8.39438E+03 -1.21197E+04 -1.12644E+03
 -1.08360E+04 -9.99340E+03 -1.64879E+03 -1.13197E+04  5.95141E+03 -9.41459E+03  6.88437E+03 -3.72247E+03
  4.78641E+03  2.00154E+03 -1.08518E+03  2.17930E+03 -7.85715E+02 -3.17122E+03  2.53643E+03 -6.87406E+03
  1.06332E+04 -4.46759E+03  1.52365E+04  1.60834E+03  1.49223E+04  1.03052E+04  9.76633E+03  1.96586E+04
 -4.67099E+03  2.22676E+04 -1.89782E+04  1.69230E+04 -2.46521E+04  2.94605E+03 -1.94598E+04 -8.92271E+03
 -9.92742E+03 -1.62582E+04 -2.92239E+02 -1.36764E+04  4.81531E+03 -8.05143E+03  5.04746E+03 -4.64484E+03
  3.49850E+03 -2.77660E+03  3.75460E+03 -3.83805E+03  5.65500E+03 -3.07892E+03  7.41007E+03 -1.31199E+03
  1.00098E+04  2.26153E+03  5.14153E+03  8.63878E+03 -2.02442E+03  1.04739E+04 -1.07323E+04  8.25206E+03
 -1.35430E+04 -1.80318E+03 -8.65923E+03 -9.43783E+03 -8.67494E+02 -1.48323E+04  8.28917E+03 -1.47188E+04
  1.54052E+04 -8.14535E+03  1.80929E+04  2.64301E+03  1.26657E+04  1.25619E+04  2.22619E+03  1.65918E+04
 -6.67333E+03  1.34993E+04 -9.18644E+03  4.59162E+03 -6.68286E+03 -1.67220E+03 -2.79555E+03 -2.07179E+03
 -1.41950E+03  2.87951E+01 -2.29092E+03  2.98533E+03 -5.42151E+03  2.47948E+03 -9.82369E+03 -1.12307E+03
 -6.67151E+03 -9.41306E+03  2.59115E+02 -1.37816E+04  8.44592E+03 -1.23996E+04  1.33502E+04 -3.84818E+03
  1.38248E+04  6.46335E+03  6.36671E+03  1.23048E+04 -2.70685E+03  1.40183E+04 -1.00271E+04  8.91966E+03
 -1.28244E+04  5.62473E+02 -9.76334E+03 -8.55909E+03 -1.41697E+03 -1.18049E+04  5.79666E+03 -8.99478E+03
  8.62923E+03 -2.83554E+03  6.23444E+03  2.30450E+03  2.24530E+03  4.22362E+03  1.55391E+03  2.03984E+03
  2.77026E+03  1.20123E+03  3.50583E+03  1.69980E+03  3.85886E+03  4.73389E+03  3.68656E+03  7.72423E+03
 -2.84668E+03  1.08275E+04 -9.48421E+03  1.06979E+04 -1.39034E+04  2.98877E+03 -1.40639E+04 -5.81224E+03
 -7.25168E+03 -1.40015E+04  1.64841E+03 -1.51961E+04  8.37254E+03 -9.27861E+03  1.10317E+04 -2.74683E+03
  9.12304E+03  5.21526E+03  2.03116E+03  7.91308E+03 -3.96087E+03  5.24333E+03 -5.52114E+03 -4.74448E+02
 -2.48748E+03 -5.92770E+03  3.02926E+03 -6.25272E+03  5.77604E+03 -3.19056E+03  5.71521E+03  1.10468E+03
  3.13304E+03  2.76248E+03  1.48194E+03  2.12742E+03 -5.15736E+02  1.72187E+03  1.42177E+03 -1.10913E+02
  2.23616E+03 -8.13231E+02  5.68967E+03  2.43833E+03  3.14987E+03  7.50365E+03 -1.25026E+03  9.79716E+03
 -6.67963E+03  6.20375E+03 -8.84479E+03  1.74592E+03 -7.81761E+03 -3.19165E+03 -2.81110E+03 -5.36150E+03
  9.36437E+02 -5.45488E+03  3.26617E+03 -2.56372E+03  3.19972E+03  3.15746E+03 -1.81347E+03  4.24342E+03
 -5.72606E+03  2.71991E+03 -6.32438E+03 -3.47469E+03 -3.43246E+03 -7.41077E+03  1.13885E+03 -7.70389E+03
  4.04282E+03 -4.51889E+03  5.08467E+03 -4.35725E+02  4.67802E+03  1.80167E+03  4.73152E+02  4.35736E+03
 -2.78921E+03  8.96999E+02 -3.23539E+03 -2.42936E+03  1.46274E+03 -5.87308E+03  7.07982E+03 -4.54067E+03
  8.79138E+03  4.45961E+02  8.50624E+03  5.46856E+03  2.77513E+03  8.86079E+03 -2.95982E+03  8.42499E+03
 -7.36341E+03  3.87587E+03 -7.56575E+03 -1.31801E+03 -4.34650E+03 -6.16999E+03  1.30020E+03 -5.29001E+03
  5.32298E+03 -2.74865E+03  4.33042E+03  2.22219E+03  1.27566E+03  4.78639E+03 -4.77932E+02  4.26636E+03
 -2.29353E+03  2.73637E+03 -2.13054E+03  1.05938E+03 -1.03117E+03  1.08908E+03 -1.66442E+03  2.31555E+03
 -2.39761E+03  3.30388E+03 -6.16412E+03  2.94452E+03 -9.20599E+03  2.27583E+02 -1.00475E+04 -5.72067E+03
 -5.08116E+03 -1.16992E+04  2.31598E+03 -1.37148E+04  8.31112E+03 -1.05245E+04  1.27661E+04 -4.47993E+03
  1.19803E+04  2.24036E+03  7.42019E+03  7.66061E+03  8.93557E+02  9.04504E+03 -3.88955E+03  6.97143E+03
 -5.21863E+03  2.13808E+03 -3.13048E+03 -1.36005E+03 -1.11152E+03 -8.83407E+02 -2.37863E+02  2.50493E+01
 -1.33344E+03  3.86939E+02 -2.29041E+03 -3.38813E+02 -7.51787E+02 -2.32286E+03  1.70013E+01 -3.80314E+03
  4.22375E+03 -3.06083E+03  5.67329E+03  1.68537E+02  6.39813E+03  4.58494E+03  1.43421E+03  9.16754E+03
 -4.49252E+03  1.02226E+04 -9.68297E+03  6.12534E+03 -1.16135E+04 -9.46037E+02 -8.25881E+03 -6.42790E+03
 -3.57828E+03 -9.35757E+03  2.59551E+03 -7.91325E+03  6.04731E+03 -4.63835E+03  5.40146E+03  2.59371E+02
  3.04241E+03  2.87138E+03  2.07869E+02  2.47535E+03 -2.16533E+03 -1.73610E+02  1.96143E+02 -2.16136E+03
  2.55340E+03 -1.29239E+03  3.26680E+03  1.10837E+03  2.33023E+03  3.76689E+03  1.81890E+02  4.41002E+03
 -4.05663E+03  4.10535E+03 -6.09152E+03  3.55412E+02 -5.49015E+03 -4.70309E+03 -9.17787E+02 -7.94480E+03
  4.54092E+03 -6.51985E+03  6.80220E+03 -1.96834E+03  6.60136E+03  1.82397E+03  4.43525E+03  5.00665E+03
  1.05594E+03  6.08917E+03 -2.05853E+03  4.64210E+03 -3.85934E+03  2.83268E+03 -3.21076E+03  3.86930E+02
 -1.30835E+03 -2.64815E+02 -1.78472E+03  7.43454E+02 -3.35087E+03  8.68407E+02 -4.55303E+03 -6.15633E+02
 -4.10075E+03 -3.08522E+03 -1.45590E+03 -5.68005E+03  2.52118E+03 -6.42732E+03  5.37335E+03 -2.51700E+03
  6.07351E+03  7.19864E+02  3.25964E+03  4.30061E+03 -2.79739E+02  6.05770E+03 -4.53410E+03  3.99323E+03
