 $NMID ID='MM_0lb_SNR800_16hz_g60_27.RAW', FMTDAT='(8E13.5)'
 TRAMP=1., VOLUME=1. $END
  3.09845E+05  4.66777E+02  3.37615E+05  2.50607E+05  8.47993E+04  3.37888E+05 -1.32444E+05  2.51079E+05
 -1.90588E+05  8.33824E+04 -1.12125E+05 -3.27815E+04  6.10532E+02 -5.07392E+04  5.35825E+04 -2.52977E+02
  3.55096E+04  5.27236E+04 -1.68534E+04  7.54846E+04 -6.10347E+04  6.41235E+04 -8.41569E+04  3.22171E+04
 -8.09484E+04 -1.12267E+04 -5.73453E+04 -5.12021E+04 -1.52408E+04 -6.95352E+04  2.75138E+04 -4.58671E+04
  3.99135E+04  3.89967E+03  1.60572E+04  4.80238E+04 -3.44562E+04  4.70908E+04 -6.72456E+04  2.67017E+01
 -5.32705E+04 -5.68191E+04 -6.69106E+03 -7.75249E+04  3.38746E+04 -5.51445E+04  4.79548E+04 -1.76771E+04
  4.36014E+04  1.13864E+04  3.19793E+04  2.57800E+04  1.58061E+04  2.99177E+04 -5.22268E+03  2.72169E+04
 -2.21501E+04  1.25512E+04 -1.83942E+04 -5.04375E+03  5.74744E+03 -7.59597E+03  2.23074E+04  1.24717E+04
  7.34010E+03  3.54751E+04 -3.20303E+04  3.53986E+04 -6.36383E+04  1.95341E+03 -5.69536E+04 -4.29602E+04
 -1.25387E+04 -6.35406E+04  3.96660E+04 -4.53388E+04  5.82519E+04 -2.24748E+03  3.41317E+04  3.25356E+04
 -5.80753E+03  3.63081E+04 -3.03441E+04  1.60424E+04 -3.02725E+04 -4.43516E+03 -1.66300E+04 -1.11783E+04
 -8.47594E+03 -1.34581E+04 -6.46575E+02 -1.81934E+04  7.65997E+03 -2.30550E+04  1.56858E+04 -1.33601E+04
  1.14878E+04  5.28125E+03 -8.28944E+03  1.29451E+04 -2.12381E+04 -4.66845E+03 -8.37409E+03 -3.35968E+04
  2.30492E+04 -4.36709E+04  4.85177E+04 -1.96089E+04  4.50292E+04  1.91938E+04  1.59018E+04  4.40232E+04
 -1.57568E+04  3.36835E+04 -2.53092E+04  1.63520E+03 -9.94556E+03 -2.76771E+04  2.10393E+04 -3.38815E+04
  4.10593E+04 -8.94549E+03  3.54902E+04  2.35837E+04  1.80875E+04  4.64935E+04 -8.12010E+03  5.02072E+04
 -3.17441E+04  3.36889E+04 -4.21042E+04  9.45322E+03 -4.24629E+04 -1.67414E+04 -2.32810E+04 -3.78336E+04
  7.16087E+03 -3.76365E+04  3.15960E+04 -1.45566E+04  2.94210E+04  1.09871E+04  3.87274E+03  1.92005E+04
 -1.35215E+04  8.36385E+03 -1.05440E+04 -7.78501E+03  5.82307E+03 -1.06425E+04  1.78219E+04  6.19403E+03
  1.35543E+04  2.18553E+04 -5.94252E+03  2.49005E+04 -2.24453E+04  1.13342E+04 -2.78593E+04 -4.90366E+03
 -2.00976E+04 -1.73090E+04 -7.87550E+03 -2.04780E+04  4.06638E+03 -1.93257E+04  1.56916E+04 -1.81679E+04
  2.58774E+04 -1.29099E+04  3.20320E+04  2.47500E+03  2.34690E+04  1.99526E+04  4.37134E+03  3.60309E+04
 -1.80935E+04  3.02687E+04 -2.75280E+04  1.03885E+04 -2.10587E+04 -1.02301E+04 -4.17577E+03 -1.34182E+04
  1.27379E+03 -2.97039E+03 -4.87749E+03  6.46286E+03 -1.60578E+04  5.00365E+03 -1.61511E+04 -6.68077E+03
 -1.01025E+04 -1.85850E+04  5.26774E+03 -2.27347E+04  1.49479E+04 -1.63485E+04  1.76073E+04 -1.42107E+03
  1.14206E+04  1.29977E+04 -1.03040E+03  1.83630E+04 -1.26562E+04  1.06530E+04 -1.85893E+04 -3.97699E+03
 -1.34731E+04 -1.65795E+04 -1.77745E+03 -2.23996E+04  9.99627E+03 -1.83712E+04  1.90958E+04 -9.07621E+03
  1.73808E+04  1.96779E+02  1.27804E+04  4.41960E+03  6.55457E+03  6.58059E+02  9.27078E+03 -1.44066E+03
  1.69759E+04  2.94852E+03  1.89969E+04  1.46971E+04  1.23854E+04  2.96597E+04 -2.73820E+03  3.31355E+04
 -1.92890E+04  2.64332E+04 -3.05154E+04  1.29562E+04 -3.21548E+04 -2.40880E+03 -2.71179E+04 -1.85420E+04
 -1.17626E+04 -2.67256E+04  9.23724E+03 -2.40603E+04  2.05966E+04 -1.25673E+04  1.85570E+04  5.12626E+03
  7.02613E+03  1.39797E+04 -8.75136E+03  1.22620E+04 -1.58615E+04  2.42928E+03 -1.17659E+04 -9.70748E+03
 -3.42143E+02 -1.49089E+04  7.66613E+03 -1.12422E+04  9.84688E+03 -1.44265E+03  2.01115E+03  6.07685E+03
 -6.82153E+03  2.15276E+03 -5.74197E+03 -5.57200E+03 -3.92648E+01 -1.29438E+04  9.46884E+03 -1.35160E+04
  1.58480E+04 -6.83631E+03  1.65944E+04  3.12581E+03  1.45350E+04  1.27137E+04  6.78923E+03  1.91125E+04
 -2.93704E+03  2.12048E+04 -1.33186E+04  1.33840E+04 -1.48128E+04  3.15847E+03 -1.07555E+04 -3.29611E+03
 -5.30978E+03 -4.28406E+03 -7.24319E+02  1.00434E+03 -2.35265E+03  2.46100E+03 -4.81159E+03  4.08713E+03
 -1.02220E+04 -6.23354E+02 -1.05124E+04 -8.84022E+03 -4.44176E+03 -1.41422E+04  4.21062E+03 -1.07281E+04
  8.92244E+03 -4.69766E+03  6.79985E+03  2.46257E+03  3.23193E+02  4.19671E+03 -4.64676E+03 -2.12615E+01
 -4.74932E+03 -6.65470E+03 -8.48727E+02 -9.98939E+03  5.55479E+03 -1.08207E+04  1.28595E+04 -5.37705E+03
  1.51724E+04  1.29757E+03  1.16305E+04  8.71446E+03  2.04685E+03  1.18278E+04 -6.58876E+03  1.05823E+04
 -8.62472E+03  3.61089E+03 -4.41520E+03 -1.93190E+03  1.52394E+03 -2.40454E+03  5.98841E+03 -1.21587E+03
  5.42726E+03  4.58964E+03  1.18181E+03  8.09335E+03 -5.89280E+03  8.11783E+03 -1.02667E+04  2.44082E+03
 -6.78416E+03 -5.22750E+03  2.11665E+02 -8.54069E+03  5.16682E+03 -4.38390E+03  5.13049E+03  1.53829E+03
  9.67850E+02  5.18006E+03 -4.98383E+03  6.50326E+03 -7.39962E+03  3.40622E+03 -7.16663E+03 -2.20613E+03
 -4.35691E+03 -8.74336E+03  1.98522E+03 -1.01775E+04  8.71650E+03 -6.23094E+03  9.36809E+03  1.57932E+03
  6.38025E+03  7.37923E+03 -3.59485E+02  9.42012E+03 -6.98360E+03  5.07916E+03 -7.22521E+03 -7.40976E+02
 -7.02872E+03 -6.65751E+03 -1.48679E+03 -6.84978E+03  3.27197E+03 -5.90845E+03  4.53796E+03 -2.73994E+03
  3.37282E+03  8.73097E+02 -4.01554E+01  1.53188E+03  2.70576E+02 -9.66614E+02  6.96932E+02 -3.49308E+03
  5.83332E+03 -2.15716E+03  8.33435E+03  1.11310E+03  8.14366E+03  5.29036E+03  6.57084E+03  1.04911E+04
 -2.64037E+03  1.25610E+04 -1.07630E+04  9.54528E+03 -1.40973E+04  1.71343E+03 -1.14674E+04 -4.39523E+03
 -5.69622E+03 -9.09350E+03 -2.76108E+02 -7.42233E+03  2.83113E+03 -3.42733E+03  2.45187E+03 -2.83301E+03
  1.88299E+03 -2.15880E+03  2.95643E+03 -2.42515E+03  3.98214E+03 -1.97478E+03  4.82066E+03 -1.98657E+02
  6.13431E+03  1.47978E+03  2.43703E+03  4.78277E+03 -1.49197E+03  4.90995E+03 -5.93535E+03  3.69383E+03
 -7.25790E+03 -1.11151E+03 -3.53024E+03 -5.01502E+03  8.22568E+01 -7.75810E+03  4.33354E+03 -7.61757E+03
  7.57182E+03 -4.43870E+03  9.51598E+03  6.99136E+02  7.02678E+03  6.42052E+03  1.23011E+03  8.84945E+03
 -3.29819E+03  7.49832E+03 -5.09726E+03  2.50998E+03 -3.05366E+03 -1.19906E+03 -1.00261E+03 -1.39221E+03
 -7.73899E+02  1.60953E+02 -1.40235E+03  2.34211E+03 -3.38990E+03  1.40927E+03 -5.33939E+03 -5.87653E+02
 -2.76111E+03 -5.44964E+03  6.58291E+02 -6.80178E+03  4.12147E+03 -6.33718E+03  6.07958E+03 -1.84208E+03
  6.28482E+03  3.31966E+03  2.74168E+03  5.26822E+03 -1.28078E+03  6.33953E+03 -4.12619E+03  4.30582E+03
 -5.64042E+03  5.22924E+02 -4.84239E+03 -3.66262E+03 -4.65676E+02 -5.13432E+03  2.52992E+03 -4.01057E+03
  3.93259E+03 -1.52371E+03  2.42591E+03  1.07942E+03  8.03993E+02  2.05993E+03  1.19284E+03  9.65767E+02
  1.77503E+03  4.80458E+02  1.55229E+03  7.91790E+02  2.11897E+03  2.51138E+03  1.94196E+03  3.02047E+03
 -1.49913E+03  4.64391E+03 -4.10232E+03  5.74968E+03 -5.12093E+03  1.74250E+03 -6.47276E+03 -1.65261E+03
 -2.88083E+03 -5.89040E+03  6.86717E+02 -7.08189E+03  3.37256E+03 -3.94092E+03  4.96726E+03 -1.38062E+03
  3.98603E+03  2.42462E+03  9.68180E+02  3.47706E+03 -1.69254E+03  2.32719E+03 -1.91581E+03 -4.77745E+02
 -7.19882E+02 -2.52015E+03  1.83273E+03 -2.50523E+03  2.40433E+03 -1.27060E+03  1.94515E+03  5.81221E+02
  1.48815E+03  7.49155E+02  8.69042E+02  2.85196E+02 -3.35471E+02  8.47562E+02  1.76611E+03 -3.33266E+02
  5.26921E+02 -4.36943E+02  2.40683E+03  6.54115E+02  6.96967E+02  3.36165E+03 -3.27364E+02  4.36573E+03
 -2.53100E+03  2.12624E+03 -3.29637E+03  6.05993E+02 -3.07421E+03 -1.23186E+03 -6.91081E+02 -1.93173E+03
  3.59033E+02 -1.80877E+03  1.37613E+03 -1.09430E+03  1.27163E+03  1.27249E+03 -9.78703E+02  1.46268E+03
 -2.54565E+03  9.45624E+02 -2.10626E+03 -1.49805E+03 -1.24527E+03 -3.33185E+03  1.77232E+02 -2.72299E+03
  9.93306E+02 -1.40866E+03  1.67291E+03  1.09535E+02  2.06671E+03  1.24109E+02  2.72054E+02  1.72548E+03
 -8.57296E+02  5.09720E+01 -1.41888E+03 -7.35270E+02  9.24561E+02 -1.80257E+03  2.93229E+03 -1.61917E+03
  2.76642E+03  2.20909E+02  3.37879E+03  1.56587E+03  1.48977E+03  2.88972E+03 -7.29046E+02  3.02754E+03
 -2.04702E+03  8.64391E+02 -2.66027E+03 -3.94231E+02 -1.45295E+03 -2.22424E+03  5.48323E+02 -1.27572E+03
  2.12316E+03 -9.79519E+02  1.18273E+03  1.03454E+03  3.46259E+02  1.90523E+03  1.04681E+02  1.62087E+03
 -6.42927E+02  1.39717E+03 -9.54452E+02  3.97265E+02 -2.30898E+01  3.77982E+02 -7.34527E+02  7.04569E+02
 -9.70376E+02  1.28443E+03 -2.66291E+03  9.65325E+02 -2.79753E+03 -2.01242E+02 -3.52569E+03 -1.60209E+03
 -1.79996E+03 -3.72368E+03  5.29728E+02 -4.81263E+03  2.53553E+03 -3.58560E+03  4.21645E+03 -1.31654E+03
  3.60453E+03  5.04614E+02  2.25166E+03  2.99802E+03 -3.76898E+02  2.59537E+03 -1.09869E+03  2.11534E+03
 -2.02765E+03  1.32587E+03 -8.04690E+02 -2.39178E+02 -7.39918E+02  1.49904E+02 -7.20202E+02  5.21623E+01
 -1.12859E+03  9.12785E+01 -7.66581E+02  1.15040E+02  2.23244E+02 -9.22476E+02 -4.24415E+02 -1.09729E+03
  1.54175E+03 -8.88908E+02  1.15851E+03  2.66489E+02  2.13303E+03  1.66189E+03 -8.32892E+01  2.45133E+03
 -1.58854E+03  3.57428E+03 -2.78103E+03  1.87270E+03 -3.14320E+03 -1.57313E+02 -2.19247E+03 -2.02902E+03
 -1.16848E+03 -2.26699E+03  3.89652E+02 -2.10833E+03  1.62720E+03 -1.02042E+03  1.21173E+03  3.58364E+02
  1.10677E+03  8.60562E+02 -4.01918E+01  8.53825E+02 -7.64926E+02  3.43522E+01 -6.69001E+01 -3.88933E+02
  8.95387E+02 -9.04013E+00  6.96709E+02  4.60668E+02  6.62179E+02  7.71286E+02  1.30611E+02  7.92849E+02
 -1.07945E+03  1.48810E+03 -1.35050E+03  2.44750E+02 -1.55543E+03 -1.44460E+03 -1.07408E+02 -2.12667E+03
  1.16803E+03 -1.32767E+03  1.19088E+03 -1.37230E+02  1.79136E+03 -4.13104E+02  1.11444E+03  1.50371E+03
  1.44967E+02  1.31593E+03 -6.04759E+02  1.05643E+03 -6.76162E+02  8.97582E+02 -4.84399E+02  2.20876E+02
 -5.17579E+02 -2.57134E+01 -3.63403E+02 -1.12301E+02 -1.09673E+03  2.30097E+02 -1.16110E+03 -4.63515E+02
 -1.18838E+03 -1.20626E+02 -6.78151E+02 -1.41519E+03  8.11735E+02 -2.16224E+03  1.29702E+03 -5.18024E+02
  1.21276E+03  2.46634E+02  1.06874E+02  7.21258E+02 -1.81808E+02  1.53112E+03 -7.75304E+02  1.33006E+03
