 $NMID ID='MM_0lb_SNR800_17hz_g55_39.RAW', FMTDAT='(8E13.5)'
 TRAMP=1., VOLUME=1. $END
  3.10040E+05  2.45119E+02  3.37344E+05  2.50559E+05  8.44548E+04  3.37563E+05 -1.32657E+05  2.50688E+05
 -1.89926E+05  8.27666E+04 -1.11536E+05 -3.28095E+04  1.02624E+03 -5.04087E+04  5.37494E+04  6.08530E+00
  3.55937E+04  5.27369E+04 -1.70283E+04  7.50851E+04 -6.05173E+04  6.33175E+04 -8.36423E+04  3.17260E+04
 -8.05956E+04 -1.14621E+04 -5.68803E+04 -5.07470E+04 -1.50094E+04 -6.93724E+04  2.70947E+04 -4.54319E+04
  3.97470E+04  3.79560E+03  1.59752E+04  4.72652E+04 -3.44633E+04  4.64663E+04 -6.63349E+04 -4.72345E+02
 -5.31848E+04 -5.62082E+04 -6.86634E+03 -7.61991E+04  3.38567E+04 -5.45789E+04  4.74174E+04 -1.70037E+04
  4.26712E+04  1.11926E+04  3.13478E+04  2.54118E+04  1.59845E+04  2.89464E+04 -5.12441E+03  2.70169E+04
 -2.19882E+04  1.25685E+04 -1.88156E+04 -4.85353E+03  5.39525E+03 -7.60016E+03  2.20693E+04  1.18534E+04
  7.00699E+03  3.45170E+04 -3.13926E+04  3.50893E+04 -6.27634E+04  2.03058E+03 -5.65765E+04 -4.21361E+04
 -1.25285E+04 -6.25620E+04  3.94998E+04 -4.44569E+04  5.74071E+04 -1.92262E+03  3.35933E+04  3.17300E+04
 -6.14402E+03  3.50413E+04 -2.93889E+04  1.49267E+04 -2.90971E+04 -4.90206E+03 -1.57711E+04 -1.07515E+04
 -7.80346E+03 -1.24918E+04 -9.57057E+02 -1.73021E+04  7.29462E+03 -2.26873E+04  1.54001E+04 -1.35621E+04
  1.17577E+04  4.64076E+03 -7.40074E+03  1.27762E+04 -2.07257E+04 -3.81053E+03 -7.98741E+03 -3.25846E+04
  2.25094E+04 -4.22837E+04  4.68200E+04 -1.91005E+04  4.38453E+04  1.89357E+04  1.49528E+04  4.28485E+04
 -1.56625E+04  3.24366E+04 -2.46935E+04  1.60539E+03 -9.10823E+03 -2.68621E+04  2.09671E+04 -3.30120E+04
  4.01190E+04 -8.40450E+03  3.36301E+04  2.34035E+04  1.69083E+04  4.46432E+04 -7.60035E+03  4.83874E+04
 -3.05038E+04  3.23544E+04 -4.01870E+04  9.13445E+03 -4.06885E+04 -1.59956E+04 -2.26174E+04 -3.64985E+04
  7.25012E+03 -3.63186E+04  3.03454E+04 -1.40413E+04  2.82341E+04  1.06640E+04  3.63412E+03  1.88895E+04
 -1.32151E+04  7.83595E+03 -9.93106E+03 -7.79933E+03  5.93588E+03 -1.03642E+04  1.76954E+04  6.20670E+03
  1.29903E+04  2.18669E+04 -6.43915E+03  2.39215E+04 -2.20606E+04  1.04933E+04 -2.66045E+04 -5.41901E+03
 -1.90162E+04 -1.69561E+04 -7.19529E+03 -1.89227E+04  3.82130E+03 -1.75149E+04  1.41247E+04 -1.66307E+04
  2.36940E+04 -1.22035E+04  3.05352E+04  2.13174E+03  2.29485E+04  1.83642E+04  4.20792E+03  3.47385E+04
 -1.68106E+04  2.89109E+04 -2.68131E+04  9.72204E+03 -2.03666E+04 -1.05994E+04 -4.22184E+03 -1.36448E+04
  1.88089E+03 -3.23730E+03 -3.73415E+03  6.04432E+03 -1.43874E+04  5.20290E+03 -1.48029E+04 -6.13255E+03
 -9.34774E+03 -1.72624E+04  4.67690E+03 -2.09776E+04  1.42188E+04 -1.55610E+04  1.66686E+04 -1.60166E+03
  1.00646E+04  1.19405E+04 -8.34223E+02  1.70957E+04 -1.18716E+04  9.83914E+03 -1.72390E+04 -3.90492E+03
 -1.28730E+04 -1.56047E+04 -1.70540E+03 -2.11216E+04  9.32672E+03 -1.71961E+04  1.79108E+04 -8.27869E+03
  1.62891E+04  4.30743E+02  1.15916E+04  4.43351E+03  6.08356E+03  4.91536E+02  8.61509E+03 -1.30580E+03
  1.57671E+04  2.53797E+03  1.71098E+04  1.42110E+04  1.06249E+04  2.74044E+04 -3.24241E+03  3.07289E+04
 -1.77644E+04  2.40860E+04 -2.80534E+04  1.17678E+04 -2.91662E+04 -2.25180E+03 -2.46244E+04 -1.67013E+04
 -1.11154E+04 -2.39772E+04  8.20982E+03 -2.17834E+04  1.88640E+04 -1.21795E+04  1.75039E+04  4.58643E+03
  7.13234E+03  1.28809E+04 -7.95094E+03  1.15020E+04 -1.47766E+04  2.46779E+03 -1.16110E+04 -8.92597E+03
 -2.23825E+02 -1.38112E+04  7.08491E+03 -1.06281E+04  9.15044E+03 -1.35931E+03  1.77696E+03  5.43338E+03
 -6.14718E+03  1.97866E+03 -4.81193E+03 -5.05281E+03  2.41245E+02 -1.17207E+04  8.50323E+03 -1.17515E+04
  1.43003E+04 -5.80860E+03  1.48694E+04  2.87882E+03  1.28816E+04  1.12259E+04  6.03650E+03  1.70196E+04
 -2.37889E+03  1.88356E+04 -1.16528E+04  1.18948E+04 -1.32005E+04  2.90156E+03 -9.83245E+03 -2.82312E+03
 -4.89277E+03 -4.07528E+03 -4.37334E+02  1.34741E+03 -2.26743E+03  2.20273E+03 -4.44156E+03  4.20370E+03
 -9.20888E+03 -4.60889E+02 -1.00161E+04 -7.98418E+03 -3.96649E+03 -1.31080E+04  4.11632E+03 -9.64644E+03
  8.08054E+03 -4.45771E+03  6.02121E+03  2.44556E+03  4.07322E+02  3.54070E+03 -4.40278E+03  6.87848E+01
 -4.16321E+03 -6.01582E+03 -9.35084E+02 -8.33115E+03  4.74803E+03 -9.52586E+03  1.19625E+04 -4.62691E+03
  1.38997E+04  1.17897E+03  1.03319E+04  7.50115E+03  2.11906E+03  1.04468E+04 -6.01978E+03  9.53228E+03
 -8.11436E+03  3.32329E+03 -3.80188E+03 -1.36799E+03  1.41948E+03 -2.34060E+03  5.30476E+03 -1.34965E+03
  4.63849E+03  3.72940E+03  9.61645E+02  7.46667E+03 -5.29215E+03  7.42708E+03 -8.94652E+03  1.90514E+03
 -6.04799E+03 -4.49423E+03  2.91538E+02 -7.71113E+03  4.73558E+03 -4.00405E+03  4.29262E+03  1.51006E+03
  6.79693E+02  4.41757E+03 -4.63897E+03  5.81453E+03 -6.18802E+03  3.02036E+03 -5.82940E+03 -1.42944E+03
 -3.58400E+03 -7.54630E+03  1.76405E+03 -8.72131E+03  7.47110E+03 -5.75783E+03  8.47637E+03  1.33194E+03
  5.48778E+03  6.39061E+03 -1.96644E+02  8.55769E+03 -5.80734E+03  4.68426E+03 -6.52155E+03 -7.10993E+02
 -6.50009E+03 -5.95931E+03 -1.24166E+03 -6.06587E+03  3.15814E+03 -5.59315E+03  3.88527E+03 -3.02023E+03
  3.42801E+03  6.90559E+02 -2.81621E+02  1.52417E+03  1.79363E+02 -4.97081E+02  4.65873E+02 -2.89859E+03
  4.85572E+03 -1.14348E+03  6.83635E+03  7.39380E+02  6.98094E+03  4.20316E+03  5.86490E+03  9.30055E+03
 -1.67995E+03  1.05897E+04 -9.24299E+03  8.27902E+03 -1.20750E+04  1.35536E+03 -9.79754E+03 -3.37600E+03
 -5.06719E+03 -8.06477E+03 -3.63798E+02 -6.42203E+03  2.42757E+03 -3.46677E+03  2.27059E+03 -2.58693E+03
  1.45143E+03 -1.80189E+03  2.42179E+03 -2.71193E+03  3.82615E+03 -1.61873E+03  4.07013E+03  1.87270E+02
  5.27850E+03  1.40311E+03  1.75134E+03  4.31560E+03 -1.79546E+03  4.17329E+03 -5.43144E+03  3.50170E+03
 -6.49316E+03 -1.36677E+03 -3.00758E+03 -4.38744E+03  2.09555E+02 -6.65684E+03  4.03360E+03 -6.98579E+03
  6.56540E+03 -3.72190E+03  8.29265E+03  4.55564E+02  6.08312E+03  5.27900E+03  1.35762E+03  7.17887E+03
 -2.83514E+03  6.95101E+03 -3.91828E+03  2.31914E+03 -2.75964E+03 -1.13040E+03 -8.78382E+02 -7.80668E+02
 -6.17058E+02  2.42755E+02 -1.17978E+03  2.17468E+03 -2.53362E+03  1.28636E+03 -4.81389E+03 -7.45645E+02
 -2.13178E+03 -4.99560E+03  1.07747E+03 -5.69765E+03  3.34993E+03 -5.26134E+03  4.94149E+03 -1.22319E+03
  5.52712E+03  2.76349E+03  2.58167E+03  4.51496E+03 -1.14977E+03  5.61538E+03 -3.77474E+03  3.37676E+03
 -5.08152E+03  4.87783E+02 -4.19972E+03 -3.24676E+03 -3.00886E+02 -4.40255E+03  1.97589E+03 -3.25561E+03
  3.57866E+03 -1.29923E+03  2.09421E+03  5.79433E+02  6.19701E+02  2.10619E+03  9.40259E+02  7.30920E+02
  2.09526E+03  4.64013E+02  1.49792E+03  7.84637E+02  1.35872E+03  2.62094E+03  1.61784E+03  2.34781E+03
 -1.54360E+03  3.86493E+03 -3.40900E+03  4.69111E+03 -4.23000E+03  1.38257E+03 -5.34475E+03 -1.16937E+03
 -2.51243E+03 -4.93683E+03  5.47935E+02 -6.31398E+03  2.74183E+03 -3.69596E+03  4.08547E+03 -1.02449E+03
  3.23702E+03  2.06240E+03  8.27514E+02  2.77867E+03 -9.74160E+02  1.73113E+03 -1.62358E+03 -1.64259E+02
 -9.43323E+02 -2.02592E+03  1.45630E+03 -2.26537E+03  1.96544E+03 -1.22428E+03  1.84833E+03  5.65803E+02
  1.26753E+03  4.59001E+02  6.07458E+02  2.40585E+02 -4.82184E+02  7.48985E+02  1.23798E+03 -2.39983E+02
  4.91253E+02 -3.63077E+02  2.09776E+03  1.01445E+03  5.05384E+02  2.79042E+03 -3.04055E+02  3.63305E+03
 -2.22011E+03  1.43031E+03 -2.54305E+03  4.18341E+02 -2.63713E+03 -9.96118E+02 -1.61197E+02 -1.44168E+03
  5.59959E+02 -1.67887E+03  1.08483E+03 -8.19730E+02  6.45265E+02  1.38484E+03 -5.61602E+02  1.65861E+03
 -1.85913E+03  1.05169E+03 -2.02520E+03 -1.61310E+03 -1.22183E+03 -2.76739E+03  5.06296E+02 -2.26543E+03
  8.73720E+02 -8.98771E+02  1.15693E+03  1.04499E+02  1.59235E+03  1.26905E+02  6.73972E+02  1.42086E+03
 -4.62906E+02  9.73679E+01 -1.23823E+03 -5.08027E+02  7.89025E+02 -1.22579E+03  2.11046E+03 -1.27723E+03
  2.20442E+03  5.12092E+02  3.45930E+03  1.29787E+03  1.32632E+03  2.45124E+03 -8.24515E+02  2.40288E+03
 -2.18364E+03  3.71266E+02 -2.25308E+03 -3.22580E+02 -1.26492E+03 -1.67156E+03  2.18863E+02 -8.50184E+02
  1.91239E+03 -1.17554E+03  1.13327E+03  8.53898E+02  3.36602E+02  1.46236E+03  1.31942E+02  1.53334E+03
 -5.06147E+02  1.15497E+03 -8.80195E+02  1.68324E+02  4.99054E+01  4.15904E+02 -6.30734E+02  5.23984E+02
 -6.62597E+02  1.23028E+03 -2.12606E+03  6.89017E+02 -2.10054E+03  5.53797E+01 -2.76741E+03 -1.48923E+03
 -1.25813E+03 -2.87671E+03  8.57679E+02 -3.72261E+03  1.81047E+03 -3.17829E+03  3.61605E+03 -1.27045E+03
  3.09012E+03  2.05657E+02  1.59979E+03  1.64775E+03 -5.21523E+02  2.13289E+03 -1.01615E+03  1.59530E+03
 -1.18852E+03  8.69808E+02 -8.26961E+02 -1.21690E+02 -3.20476E+02 -1.89435E+01 -5.73862E+02 -1.57857E+02
 -1.29877E+03  1.29622E+02 -1.11454E+03  1.66261E+01  1.58176E+02 -6.99526E+02 -4.55241E+02 -9.94057E+02
  1.51086E+03 -8.60746E+02  7.10743E+02  7.49694E+01  1.49901E+03  1.45005E+03 -5.99649E+02  2.00330E+03
 -1.39156E+03  2.51677E+03 -2.45194E+03  1.54344E+03 -2.57310E+03 -1.14837E+02 -1.61971E+03 -1.33982E+03
 -9.29470E+02 -1.75945E+03  2.36933E+02 -1.80009E+03  8.92574E+02 -4.78873E+02  1.12882E+03  8.60620E+01
  8.73495E+02  3.71843E+02 -1.07437E+02  7.49807E+02 -6.21266E+02 -2.83784E+02  1.26453E+02 -2.02884E+02
  5.30440E+02  1.68766E+02  6.26165E+02  3.81036E+02  2.07052E+02  1.00000E+03  1.72858E+02  9.24197E+02
 -7.18018E+02  7.53395E+02 -9.83723E+02  1.72383E+02 -1.15479E+03 -5.76709E+02  9.62489E+01 -1.63980E+03
  6.91841E+02 -9.27645E+02  8.98277E+02 -2.78612E+02  9.93409E+02 -6.75911E+02  5.62188E+02  1.17081E+03
  4.96840E+02  9.67639E+02 -1.66818E+02  5.16182E+02 -7.76529E+02  7.83803E+02 -5.91941E+02  1.14918E+02
 -3.62894E+02 -1.91700E+02 -1.03485E+03  3.04389E+02 -7.07082E+02  1.31971E+02 -9.47719E+02 -2.69130E+02
 -1.23926E+03  1.73510E+02 -4.27701E+02 -1.22834E+03  9.54775E+02 -1.96866E+03  1.20617E+03 -3.67199E+02
  1.16116E+03 -1.08176E+00  8.44148E+01  4.20726E+02 -5.10308E+01  7.33744E+02 -9.56465E+02  1.05971E+03
