 $NMID ID='MM_0lb_SNR800_17hz_g50_77.RAW', FMTDAT='(8E13.5)'
 TRAMP=1., VOLUME=1. $END
  3.09932E+05  6.83619E+02  3.37403E+05  2.50553E+05  8.45259E+04  3.37736E+05 -1.32519E+05  2.50543E+05
 -1.90038E+05  8.25945E+04 -1.11287E+05 -3.28153E+04  9.88206E+02 -5.01927E+04  5.37639E+04  8.88378E+01
  3.53929E+04  5.31365E+04 -1.68352E+04  7.50630E+04 -6.05310E+04  6.30844E+04 -8.37166E+04  3.17829E+04
 -8.04179E+04 -1.13163E+04 -5.63795E+04 -5.08704E+04 -1.51429E+04 -6.90505E+04  2.68022E+04 -4.52704E+04
  3.95990E+04  4.01634E+03  1.58971E+04  4.73872E+04 -3.41150E+04  4.68525E+04 -6.60761E+04 -5.35939E+02
 -5.27662E+04 -5.64006E+04 -6.51584E+03 -7.61506E+04  3.35778E+04 -5.36628E+04  4.69250E+04 -1.68101E+04
  4.23303E+04  1.10156E+04  3.09660E+04  2.45966E+04  1.58776E+04  2.85616E+04 -5.07668E+03  2.68010E+04
 -2.22380E+04  1.25922E+04 -1.86210E+04 -4.77150E+03  4.99664E+03 -7.56884E+03  2.16167E+04  1.12518E+04
  7.29028E+03  3.39748E+04 -3.12372E+04  3.46740E+04 -6.23727E+04  2.31794E+03 -5.60717E+04 -4.16869E+04
 -1.21962E+04 -6.22306E+04  3.86271E+04 -4.40900E+04  5.66917E+04 -1.75586E+03  3.28184E+04  3.10784E+04
 -6.45082E+03  3.43883E+04 -2.88599E+04  1.42884E+04 -2.86525E+04 -5.03143E+03 -1.52005E+04 -1.07449E+04
 -7.64903E+03 -1.21608E+04 -1.04796E+03 -1.71666E+04  6.98461E+03 -2.25340E+04  1.50387E+04 -1.38980E+04
  1.19399E+04  4.84984E+03 -7.25165E+03  1.29943E+04 -2.01984E+04 -3.21759E+03 -8.34740E+03 -3.14911E+04
  2.17485E+04 -4.17865E+04  4.60903E+04 -1.92225E+04  4.31181E+04  1.88374E+04  1.48945E+04  4.26028E+04
 -1.55750E+04  3.22133E+04 -2.42315E+04  1.34931E+03 -8.85526E+03 -2.68595E+04  2.06437E+04 -3.20792E+04
  3.92537E+04 -7.97195E+03  3.29156E+04  2.29357E+04  1.64604E+04  4.41108E+04 -7.66653E+03  4.70230E+04
 -2.97322E+04  3.16080E+04 -3.92967E+04  8.89044E+03 -4.01108E+04 -1.57154E+04 -2.23246E+04 -3.59273E+04
  7.02643E+03 -3.54408E+04  2.99737E+04 -1.39091E+04  2.78530E+04  1.09254E+04  3.28114E+03  1.82627E+04
 -1.33397E+04  7.84072E+03 -9.76469E+03 -7.54151E+03  6.02264E+03 -1.02677E+04  1.75752E+04  6.61096E+03
  1.28547E+04  2.19958E+04 -6.50033E+03  2.39075E+04 -2.17374E+04  1.00030E+04 -2.63094E+04 -5.62803E+03
 -1.82654E+04 -1.67517E+04 -6.78746E+03 -1.84639E+04  3.77443E+03 -1.67281E+04  1.36183E+04 -1.60451E+04
  2.31607E+04 -1.21566E+04  2.99658E+04  1.79986E+03  2.24009E+04  1.78925E+04  4.25292E+03  3.38545E+04
 -1.67358E+04  2.86192E+04 -2.66434E+04  9.89629E+03 -2.02693E+04 -1.03523E+04 -4.09742E+03 -1.37642E+04
  2.27526E+03 -3.58896E+03 -3.34852E+03  5.98961E+03 -1.40406E+04  5.20325E+03 -1.47481E+04 -5.86203E+03
 -9.33361E+03 -1.69953E+04  4.92206E+03 -2.06015E+04  1.35276E+04 -1.49702E+04  1.60616E+04 -1.62041E+03
  9.47621E+03  1.16047E+04 -7.92005E+02  1.68163E+04 -1.15270E+04  9.74866E+03 -1.67170E+04 -3.85743E+03
 -1.24697E+04 -1.52049E+04 -1.79592E+03 -2.06007E+04  9.32584E+03 -1.69821E+04  1.71615E+04 -8.07589E+03
  1.57828E+04  4.39507E+02  1.13062E+04  4.12811E+03  5.70341E+03  6.69099E+02  8.25509E+03 -1.58547E+03
  1.52476E+04  2.61037E+03  1.62623E+04  1.33395E+04  1.03174E+04  2.67835E+04 -2.94002E+03  2.95200E+04
 -1.73055E+04  2.32140E+04 -2.71773E+04  1.13997E+04 -2.80043E+04 -2.09007E+03 -2.36342E+04 -1.62887E+04
 -1.08059E+04 -2.27223E+04  7.82700E+03 -2.10954E+04  1.85465E+04 -1.15270E+04  1.66677E+04  4.30715E+03
  6.87732E+03  1.24716E+04 -7.71987E+03  1.12427E+04 -1.45530E+04  2.49489E+03 -1.10250E+04 -9.15281E+03
 -1.03473E+01 -1.32037E+04  6.75115E+03 -1.00493E+04  8.68988E+03 -9.93247E+02  2.03995E+03  5.46368E+03
 -6.30078E+03  1.68425E+03 -4.52137E+03 -4.86316E+03  2.29847E+02 -1.12035E+04  8.42921E+03 -1.15405E+04
  1.38273E+04 -5.78693E+03  1.40066E+04  2.87098E+03  1.20210E+04  1.07964E+04  5.81554E+03  1.62511E+04
 -2.23331E+03  1.82580E+04 -1.14079E+04  1.10981E+04 -1.28834E+04  2.83238E+03 -9.51640E+03 -2.68321E+03
 -4.54199E+03 -3.74662E+03 -6.69568E+02  1.48110E+03 -2.26926E+03  2.40445E+03 -4.06441E+03  3.90836E+03
 -8.65723E+03 -6.70636E+02 -9.87308E+03 -8.22995E+03 -3.97842E+03 -1.27732E+04  4.12038E+03 -9.49433E+03
  7.84293E+03 -4.12629E+03  5.75956E+03  2.53523E+03  3.31265E+02  3.37227E+03 -3.88685E+03 -8.80317E+01
 -3.90988E+03 -5.77909E+03 -8.99100E+02 -8.32254E+03  4.51922E+03 -9.06082E+03  1.11949E+04 -4.88445E+03
  1.34941E+04  8.97802E+02  9.80436E+03  6.99017E+03  2.09511E+03  1.03598E+04 -5.98139E+03  9.04936E+03
 -7.75596E+03  2.80536E+03 -4.08438E+03 -1.91009E+03  1.43843E+03 -2.33282E+03  5.46155E+03 -1.18193E+03
  4.31918E+03  3.93431E+03  9.68770E+02  7.22719E+03 -5.00274E+03  7.16490E+03 -8.77218E+03  1.66475E+03
 -5.53203E+03 -4.42353E+03  1.73758E+02 -7.51314E+03  4.37178E+03 -3.61630E+03  4.17793E+03  1.34352E+03
  7.18756E+02  3.90105E+03 -4.50037E+03  5.61561E+03 -6.14877E+03  2.78496E+03 -5.62902E+03 -1.61943E+03
 -3.55691E+03 -7.37878E+03  1.69376E+03 -8.44435E+03  6.97738E+03 -5.48673E+03  7.60067E+03  1.26216E+03
  5.29018E+03  5.96811E+03 -1.22792E+02  8.30192E+03 -5.79680E+03  4.79862E+03 -6.56372E+03 -4.90147E+02
 -6.49765E+03 -5.69852E+03 -1.72670E+03 -5.72944E+03  2.73586E+03 -5.48602E+03  3.50533E+03 -2.91614E+03
  3.05741E+03  2.33957E+02 -2.77568E+02  1.20185E+03  1.93748E+02 -6.77347E+02  1.02431E+00 -2.53956E+03
  4.77769E+03 -1.23596E+03  6.55029E+03  7.36501E+02  6.61748E+03  4.30949E+03  6.11057E+03  8.61415E+03
 -1.67605E+03  1.03992E+04 -9.05505E+03  7.77642E+03 -1.16417E+04  1.15210E+03 -9.18698E+03 -3.35904E+03
 -5.07264E+03 -7.80955E+03 -5.33872E+02 -6.46566E+03  2.21141E+03 -2.98745E+03  2.21069E+03 -2.64565E+03
  1.60195E+03 -1.69419E+03  2.25612E+03 -2.21083E+03  3.76402E+03 -1.54504E+03  4.11278E+03  1.45937E+02
  5.11194E+03  1.43246E+03  1.58092E+03  4.11422E+03 -1.42936E+03  3.57946E+03 -5.16267E+03  3.18196E+03
 -6.03541E+03 -9.47945E+02 -2.48041E+03 -4.04523E+03  7.08417E+01 -6.19505E+03  3.84539E+03 -6.44531E+03
  6.36462E+03 -3.76505E+03  8.07792E+03  5.60595E+02  5.91059E+03  4.98383E+03  1.18325E+03  7.34380E+03
 -2.61376E+03  6.82571E+03 -4.40050E+03  2.19286E+03 -2.58462E+03 -9.57691E+02 -9.48212E+02 -8.91771E+02
 -4.37021E+02  2.92102E+02 -1.21536E+03  2.05221E+03 -3.05065E+03  1.24861E+03 -4.66405E+03 -4.63601E+02
 -2.19006E+03 -4.80333E+03  6.49572E+02 -5.55315E+03  3.35039E+03 -5.24580E+03  4.41306E+03 -1.41970E+03
  5.00373E+03  2.76813E+03  2.04171E+03  4.64648E+03 -9.81038E+02  5.34693E+03 -3.24310E+03  3.00366E+03
 -4.86279E+03  6.96449E+02 -4.29699E+03 -2.81266E+03 -1.08108E+02 -4.14263E+03  1.87297E+03 -3.16060E+03
  3.40507E+03 -1.53653E+03  2.12085E+03  7.66609E+02  6.93315E+02  2.09229E+03  7.84555E+02  5.63075E+02
  1.97228E+03  7.11778E+02  1.34139E+03  1.03831E+03  1.26311E+03  2.38630E+03  1.61655E+03  2.60392E+03
 -1.73320E+03  3.77389E+03 -3.09818E+03  4.79979E+03 -4.15235E+03  9.74728E+02 -5.17321E+03 -9.67653E+02
 -2.18335E+03 -4.69895E+03  6.40296E+02 -5.77213E+03  2.51152E+03 -3.27529E+03  4.11297E+03 -9.90660E+02
  3.33093E+03  2.09231E+03  5.50520E+02  3.08658E+03 -1.03869E+03  1.77840E+03 -1.57109E+03 -1.19706E+02
 -7.41144E+02 -1.84174E+03  1.64873E+03 -1.94465E+03  1.59986E+03 -1.11319E+03  1.71355E+03  5.19207E+02
  9.86082E+02  3.80061E+02  9.56877E+02 -2.61279E+02 -4.95593E+02  8.45176E+02  1.47669E+03 -3.60613E+02
  3.73040E+02 -2.43399E+02  2.14158E+03  6.14090E+02  2.89287E+02  2.60340E+03 -6.14080E+02  3.76915E+03
 -1.86729E+03  1.74944E+03 -2.75524E+03  5.84838E+02 -2.47511E+03 -1.05039E+03 -3.85332E+02 -1.56156E+03
  5.37262E+02 -1.56717E+03  9.98497E+02 -9.07144E+02  8.95386E+02  1.41928E+03 -1.08270E+03  1.17107E+03
 -1.85123E+03  8.14412E+02 -1.42761E+03 -1.63908E+03 -1.06117E+03 -2.65807E+03  6.71634E+02 -2.16236E+03
  7.01699E+02 -9.34590E+02  1.38325E+03 -1.07555E+02  1.55731E+03 -1.56520E+02  4.12692E+02  1.21497E+03
 -6.23536E+02  3.89285E+02 -1.00420E+03 -4.94315E+02  7.84864E+02 -1.32793E+03  1.98632E+03 -1.48598E+03
  1.99318E+03  2.98531E+02  3.15697E+03  1.25998E+03  1.26857E+03  2.11858E+03 -6.20154E+02  2.32830E+03
 -1.90288E+03  7.77895E+02 -1.97499E+03 -1.53440E+02 -1.17018E+03 -1.38341E+03  5.28990E+02 -9.43905E+02
  1.63251E+03 -9.43255E+02  8.77385E+02  9.85171E+02  2.30968E+02  1.53501E+03 -5.56206E+01  1.36541E+03
 -6.73750E+02  1.16833E+03 -7.78889E+02  2.18122E+02  1.14429E+02  4.41239E+02 -1.05968E+03  6.64401E+02
 -9.35512E+02  1.49896E+03 -1.96799E+03  6.48388E+02 -2.24888E+03  3.27455E+02 -3.09952E+03 -1.38878E+03
 -1.45706E+03 -2.84110E+03  5.25226E+02 -4.05035E+03  1.54773E+03 -2.87670E+03  3.40795E+03 -1.33141E+03
  2.99439E+03  1.65609E+01  1.67729E+03  1.96853E+03 -6.58806E+02  1.96562E+03 -8.11794E+02  1.47355E+03
 -1.31593E+03  1.11580E+03 -8.41240E+02 -3.54295E+02 -5.15238E+02  3.74453E+02 -9.18121E+02  2.27837E+01
 -1.06783E+03 -2.35044E+02 -6.93621E+02 -1.54007E+02  2.78855E+02 -4.52361E+02 -2.53496E+02 -1.07007E+03
  1.75262E+03 -5.02641E+02  5.44744E+02 -5.25901E+00  1.54801E+03  1.28474E+03 -9.98390E+01  1.93273E+03
 -1.26315E+03  2.79339E+03 -2.07571E+03  1.65292E+03 -2.27001E+03 -1.20791E+02 -1.98030E+03 -1.48062E+03
 -9.70019E+02 -1.80411E+03  4.61259E+02 -1.67535E+03  9.86794E+02 -8.33300E+02  7.06953E+02 -1.43210E+01
  8.30548E+02  3.39920E+02  4.89638E+01  4.43483E+02 -5.48775E+02 -9.10981E+00 -1.52132E+02 -4.74172E+02
  8.02220E+02  4.59336E+01  5.26578E+02  5.85772E+02  3.24957E+02  8.60630E+02  2.41479E+02  5.26192E+02
 -1.09345E+03  6.04578E+02 -1.03453E+03  3.26723E+01 -1.00109E+03 -7.26475E+02 -2.45594E+02 -1.69159E+03
  9.35070E+02 -9.62610E+02  1.00711E+03 -5.16226E+02  1.21539E+03 -6.49267E+02  5.08023E+02  1.54966E+03
  2.27457E+02  8.45459E+02 -1.43072E+02  6.90012E+02 -8.77091E+02  7.96323E+02 -5.01707E+02 -7.53070E+01
 -2.85097E+02 -9.67914E+00 -7.46053E+02  1.91225E+02 -9.21556E+02  3.08307E+02 -1.19885E+03 -3.18935E+02
 -1.32303E+03  4.65121E+01 -2.48711E+02 -1.21206E+03  5.91616E+02 -1.89306E+03  1.17995E+03 -3.55640E+02
  1.06543E+03 -1.21774E+02 -8.92987E+01  4.94104E+02  5.28145E+01  1.31257E+03 -5.63686E+02  7.15481E+02
