 $NMID ID='MM_0lb_SNR800_15hz_g50_5.RAW', FMTDAT='(8E13.5)'
 TRAMP=1., VOLUME=1. $END
  3.09707E+05  5.65184E+02  3.37736E+05  2.50666E+05  8.44713E+04  3.37718E+05 -1.32470E+05  2.50728E+05
 -1.90057E+05  8.31413E+04 -1.11692E+05 -3.25178E+04  1.02224E+03 -5.06049E+04  5.39176E+04  1.25495E+02
  3.57816E+04  5.24929E+04 -1.69717E+04  7.53395E+04 -6.07679E+04  6.35206E+04 -8.35932E+04  3.17854E+04
 -8.08949E+04 -1.10472E+04 -5.70894E+04 -5.10553E+04 -1.48440E+04 -6.93440E+04  2.71584E+04 -4.54569E+04
  3.99376E+04  3.85753E+03  1.62730E+04  4.76416E+04 -3.42762E+04  4.71437E+04 -6.64783E+04 -3.30284E+02
 -5.32467E+04 -5.66025E+04 -6.82794E+03 -7.66122E+04  3.38334E+04 -5.47573E+04  4.77246E+04 -1.73681E+04
  4.33012E+04  1.14073E+04  3.18476E+04  2.53204E+04  1.57433E+04  2.93396E+04 -5.29323E+03  2.73312E+04
 -2.21743E+04  1.23658E+04 -1.85991E+04 -4.76091E+03  5.27279E+03 -7.75535E+03  2.20461E+04  1.23394E+04
  7.22155E+03  3.48020E+04 -3.19043E+04  3.51694E+04 -6.28960E+04  2.25963E+03 -5.66208E+04 -4.26195E+04
 -1.24562E+04 -6.33296E+04  3.95854E+04 -4.49593E+04  5.81170E+04 -2.21650E+03  3.37283E+04  3.22574E+04
 -6.14530E+03  3.55464E+04 -2.97485E+04  1.57787E+04 -2.98194E+04 -4.63757E+03 -1.63952E+04 -1.05942E+04
 -8.14941E+03 -1.28590E+04 -6.86367E+02 -1.77213E+04  7.06004E+03 -2.31892E+04  1.54841E+04 -1.33601E+04
  1.13357E+04  5.18849E+03 -7.87432E+03  1.31286E+04 -2.06432E+04 -4.05861E+03 -8.34246E+03 -3.31185E+04
  2.25964E+04 -4.31934E+04  4.76602E+04 -1.94948E+04  4.43870E+04  1.94484E+04  1.51940E+04  4.35160E+04
 -1.61123E+04  3.31349E+04 -2.51670E+04  1.61522E+03 -9.44459E+03 -2.76507E+04  2.06538E+04 -3.38357E+04
  4.06502E+04 -8.79646E+03  3.50707E+04  2.37267E+04  1.78269E+04  4.58687E+04 -8.03353E+03  4.96188E+04
 -3.11144E+04  3.29365E+04 -4.13151E+04  9.21529E+03 -4.18600E+04 -1.61149E+04 -2.31293E+04 -3.71509E+04
  7.10119E+03 -3.73035E+04  3.10127E+04 -1.42027E+04  2.87244E+04  1.08566E+04  4.10687E+03  1.90242E+04
 -1.37304E+04  8.35222E+03 -1.00795E+04 -7.78880E+03  5.75168E+03 -1.07013E+04  1.77470E+04  5.89094E+03
  1.32004E+04  2.20049E+04 -6.09233E+03  2.47620E+04 -2.24212E+04  1.09724E+04 -2.73003E+04 -4.80047E+03
 -1.95820E+04 -1.72381E+04 -8.20058E+03 -1.95756E+04  4.20187E+03 -1.86339E+04  1.52465E+04 -1.76096E+04
  2.53364E+04 -1.26973E+04  3.17306E+04  2.65232E+03  2.37157E+04  1.91735E+04  4.16505E+03  3.56623E+04
 -1.71904E+04  3.00963E+04 -2.78057E+04  1.00637E+04 -2.08230E+04 -1.00986E+04 -4.30953E+03 -1.34703E+04
  1.70831E+03 -2.99840E+03 -4.68833E+03  6.47081E+03 -1.53730E+04  5.12869E+03 -1.56272E+04 -6.38556E+03
 -9.63275E+03 -1.82527E+04  4.93513E+03 -2.25112E+04  1.47826E+04 -1.60547E+04  1.74405E+04 -1.57166E+03
  1.07261E+04  1.27666E+04 -9.29542E+02  1.85109E+04 -1.28089E+04  1.01792E+04 -1.86093E+04 -4.01090E+03
 -1.33135E+04 -1.66662E+04 -1.58573E+03 -2.21916E+04  1.00870E+04 -1.84471E+04  1.87533E+04 -8.85640E+03
  1.71543E+04  3.07059E+02  1.22732E+04  4.18677E+03  6.46448E+03  9.18323E+02  9.38773E+03 -1.75197E+03
  1.65619E+04  2.58016E+03  1.83768E+04  1.48934E+04  1.21523E+04  2.90885E+04 -3.00744E+03  3.24309E+04
 -1.91484E+04  2.59250E+04 -3.02993E+04  1.31361E+04 -3.17854E+04 -2.50250E+03 -2.66693E+04 -1.83902E+04
 -1.15365E+04 -2.61695E+04  8.90261E+03 -2.38132E+04  2.03910E+04 -1.22013E+04  1.83175E+04  5.11743E+03
  7.01556E+03  1.37830E+04 -8.29277E+03  1.20557E+04 -1.55907E+04  2.69808E+03 -1.19537E+04 -9.36551E+03
 -1.07027E+02 -1.46231E+04  7.83281E+03 -1.10733E+04  9.91801E+03 -1.14362E+03  1.93361E+03  6.25147E+03
 -6.62545E+03  2.42911E+03 -5.43537E+03 -5.44750E+03 -3.76878E+02 -1.28656E+04  9.35117E+03 -1.30861E+04
  1.56564E+04 -6.88952E+03  1.62719E+04  2.90644E+03  1.45519E+04  1.24509E+04  6.72005E+03  1.90653E+04
 -2.76021E+03  2.08671E+04 -1.30813E+04  1.33630E+04 -1.48229E+04  3.47494E+03 -1.05404E+04 -2.96534E+03
 -5.21002E+03 -4.41562E+03 -6.59230E+02  1.14888E+03 -2.23449E+03  2.56632E+03 -4.87998E+03  4.39373E+03
 -9.73520E+03 -7.20146E+02 -1.05608E+04 -8.64584E+03 -4.28808E+03 -1.41205E+04  4.47964E+03 -1.07383E+04
  9.02272E+03 -4.65431E+03  6.43824E+03  3.12338E+03  1.22630E+02  4.18909E+03 -4.81459E+03 -3.18501E+02
 -4.65197E+03 -6.75436E+03 -9.83889E+02 -9.77026E+03  5.29137E+03 -1.05275E+04  1.28745E+04 -5.24119E+03
  1.54380E+04  1.01495E+03  1.17252E+04  8.55049E+03  2.16198E+03  1.18122E+04 -6.37968E+03  1.05273E+04
 -8.81915E+03  3.20508E+03 -4.67417E+03 -1.98880E+03  1.64954E+03 -2.72837E+03  5.71254E+03 -9.22021E+02
  5.36622E+03  4.41575E+03  1.19577E+03  8.21252E+03 -5.80809E+03  7.79437E+03 -1.01570E+04  2.01714E+03
 -6.82406E+03 -5.11482E+03  3.78441E+02 -8.85802E+03  5.29384E+03 -4.42682E+03  5.16329E+03  1.63063E+03
  9.79956E+02  5.31604E+03 -5.46449E+03  6.94042E+03 -7.61656E+03  3.16777E+03 -7.36070E+03 -2.33885E+03
 -4.49836E+03 -8.94352E+03  1.99306E+03 -1.01454E+04  8.85727E+03 -6.50704E+03  9.44816E+03  1.69445E+03
  6.36001E+03  7.69220E+03 -3.65510E+02  9.74572E+03 -6.89477E+03  5.32934E+03 -7.20215E+03 -6.83084E+02
 -7.31007E+03 -6.72987E+03 -1.36390E+03 -7.09225E+03  3.82962E+03 -5.98054E+03  4.22098E+03 -3.08409E+03
  3.52713E+03  9.04914E+02 -3.40697E+02  1.23044E+03  3.45146E+02 -1.22971E+03  8.08149E+02 -3.22533E+03
  5.88674E+03 -1.76159E+03  8.33884E+03  1.17363E+03  8.41611E+03  5.45587E+03  6.74531E+03  1.10096E+04
 -2.16952E+03  1.31144E+04 -1.10175E+04  9.78795E+03 -1.44304E+04  1.55199E+03 -1.15442E+04 -4.47822E+03
 -5.82927E+03 -9.72408E+03 -3.30376E+02 -7.69703E+03  3.09276E+03 -3.97293E+03  2.80621E+03 -2.97066E+03
  1.92300E+03 -2.00974E+03  2.59082E+03 -2.85808E+03  4.05395E+03 -1.99287E+03  5.08750E+03 -2.97801E+02
  6.14631E+03  1.40361E+03  2.49802E+03  5.04839E+03 -1.79134E+03  4.98848E+03 -6.22545E+03  4.21606E+03
 -7.32869E+03 -1.17389E+03 -4.00043E+03 -5.42223E+03 -2.69821E+01 -7.86518E+03  4.42960E+03 -8.25575E+03
  7.94140E+03 -4.82148E+03  9.77153E+03  9.04431E+02  7.04654E+03  6.63905E+03  1.20884E+03  9.37237E+03
 -3.37427E+03  8.15734E+03 -5.19395E+03  2.72774E+03 -3.29713E+03 -1.26189E+03 -1.17889E+03 -8.17204E+02
 -8.33513E+02  1.92227E+02 -1.33714E+03  2.11097E+03 -3.38800E+03  1.45990E+03 -5.82654E+03 -3.82485E+02
 -3.03606E+03 -5.72089E+03  7.55462E+02 -7.15805E+03  4.08879E+03 -6.69854E+03  6.38452E+03 -2.00279E+03
  6.55132E+03  3.39031E+03  3.26556E+03  5.87742E+03 -1.24658E+03  7.26915E+03 -4.74919E+03  4.48371E+03
 -6.44432E+03  9.04184E+02 -5.39168E+03 -4.03244E+03 -4.14553E+02 -5.38054E+03  2.78060E+03 -4.20698E+03
  4.55714E+03 -1.56118E+03  2.82585E+03  1.08031E+03  6.67794E+02  2.49252E+03  1.08699E+03  1.07969E+03
  2.00498E+03  6.09053E+02  1.93383E+03  1.41820E+03  2.02621E+03  2.71695E+03  2.11010E+03  3.21944E+03
 -1.89792E+03  5.12891E+03 -4.54382E+03  5.90387E+03 -5.96610E+03  1.82352E+03 -7.07049E+03 -1.62070E+03
 -3.55229E+03 -6.26099E+03  1.25615E+03 -7.60221E+03  3.87429E+03 -4.45898E+03  5.16722E+03 -1.21364E+03
  4.02916E+03  2.73237E+03  9.96352E+02  3.88224E+03 -1.40654E+03  2.16229E+03 -2.09482E+03 -3.24221E+01
 -1.04322E+03 -2.48020E+03  1.60023E+03 -2.71584E+03  2.58841E+03 -1.48648E+03  2.36546E+03  4.26382E+02
  1.45477E+03  7.43103E+02  1.08135E+03  3.39794E+02 -3.65826E+02  7.90264E+02  1.43580E+03 -5.91977E+02
  5.22624E+02 -1.82185E+02  2.77154E+03  1.05200E+03  1.04461E+03  3.92987E+03 -9.71659E+02  4.78839E+03
 -2.87674E+03  2.60806E+03 -3.87867E+03  8.72635E+02 -3.48933E+03 -1.51592E+03 -1.10051E+03 -2.28929E+03
  6.08037E+02 -2.34396E+03  1.70926E+03 -1.30466E+03  1.59571E+03  1.78430E+03 -1.02353E+03  1.99957E+03
 -2.80685E+03  1.21128E+03 -2.47999E+03 -1.79327E+03 -1.39910E+03 -3.25713E+03  3.46047E+02 -2.98054E+03
  1.37806E+03 -1.63756E+03  1.58467E+03  1.55851E+01  2.03752E+03  1.41841E+02  4.68949E+02  1.86240E+03
 -1.03260E+03  2.16082E+02 -1.67684E+03 -8.08599E+02  6.25767E+02 -2.14471E+03  2.68108E+03 -2.00048E+03
  3.06568E+03  4.35893E+02  4.08538E+03  2.27651E+03  1.42534E+03  3.60905E+03 -9.16700E+02  3.37221E+03
 -2.88999E+03  9.50839E+02 -2.92261E+03 -5.16194E+02 -1.79827E+03 -2.45250E+03  7.06553E+02 -2.10425E+03
  2.85713E+03 -8.95882E+02  1.68802E+03  8.84212E+02  3.27670E+02  1.91160E+03  1.92711E+01  2.01566E+03
 -8.20004E+02  1.61373E+03 -9.51898E+02  5.75938E+02 -4.41466E+02  5.69032E+02 -7.64056E+02  9.66168E+02
 -9.44899E+02  1.42149E+03 -2.72683E+03  1.14666E+03 -3.43659E+03  6.52466E+01 -3.90254E+03 -2.00188E+03
 -2.16889E+03 -4.42821E+03  1.10213E+03 -5.37300E+03  2.73178E+03 -4.30092E+03  5.03300E+03 -1.69134E+03
  4.93566E+03  2.69218E+02  2.48191E+03  3.26800E+03 -4.38027E+02  3.22723E+03 -1.40183E+03  2.59148E+03
 -1.78823E+03  1.33198E+03 -1.07017E+03 -4.15437E+02 -7.71020E+02 -1.55904E+02 -6.17623E+02  2.14517E+01
 -1.28210E+03  2.12728E+02 -1.07710E+03 -3.74899E+02 -1.95909E+02 -1.29090E+03 -2.26508E+02 -1.56613E+03
  1.97581E+03 -1.08403E+03  1.48375E+03  3.82087E+02  2.59467E+03  2.01794E+03  7.95238E+01  3.29692E+03
 -1.83207E+03  3.99198E+03 -3.42633E+03  2.42615E+03 -3.88759E+03 -1.31080E+02 -2.96359E+03 -2.48944E+03
 -1.61495E+03 -2.84620E+03  6.70391E+02 -2.93928E+03  1.74357E+03 -1.32763E+03  1.85035E+03  1.17996E+02
  1.33529E+03  1.14589E+03  1.48936E+02  1.02309E+03 -5.59421E+02  3.14181E+01 -1.86498E+02 -3.65633E+02
  5.45296E+02 -2.71347E+02  8.99523E+02  2.42464E+02  7.25419E+02  1.26766E+03  2.18406E+02  1.05515E+03
 -1.72798E+03  1.37945E+03 -1.56537E+03  1.60999E+02 -1.76729E+03 -1.15641E+03 -4.19910E+02 -2.54105E+03
  1.14985E+03 -1.96601E+03  1.95787E+03  1.71959E+01  2.26187E+03 -1.03591E+02  1.28080E+03  1.90585E+03
  2.16927E+02  1.72085E+03 -5.61490E+02  1.26735E+03 -1.44027E+03  1.04743E+03 -6.29093E+02  1.38234E+02
 -5.61959E+02 -2.06440E+02 -6.55643E+02  2.98094E+02 -1.40300E+03  6.93300E+01 -2.01072E+03 -1.75835E+02
 -1.77192E+03 -4.54301E+02 -6.88402E+02 -2.22340E+03  1.02200E+03 -2.28758E+03  1.62332E+03 -9.55694E+02
  1.76246E+03  3.57447E+02  3.99241E+02  9.54224E+02 -3.24929E+02  1.93982E+03 -1.16053E+03  1.42711E+03
