 $NMID ID='MM_0lb_SNR800_8hz_g40_33.RAW', FMTDAT='(8E13.5)'
 TRAMP=1., VOLUME=1. $END
  3.09797E+05  5.21971E+02  3.37831E+05  2.50830E+05  8.47653E+04  3.38802E+05 -1.32364E+05  2.51686E+05
 -1.90708E+05  8.39801E+04 -1.12542E+05 -3.25013E+04  3.79578E+02 -5.06146E+04  5.36873E+04 -6.21818E+02
  3.54373E+04  5.29337E+04 -1.70733E+04  7.58553E+04 -6.13630E+04  6.43997E+04 -8.53472E+04  3.28208E+04
 -8.25465E+04 -1.16667E+04 -5.83530E+04 -5.25196E+04 -1.50410E+04 -7.10083E+04  2.75373E+04 -4.64842E+04
  4.13338E+04  3.58850E+03  1.69145E+04  4.86288E+04 -3.51687E+04  4.81812E+04 -6.83379E+04  3.60915E+02
 -5.47679E+04 -5.84888E+04 -6.92265E+03 -7.90860E+04  3.48910E+04 -5.69634E+04  4.98022E+04 -1.83735E+04
  4.49910E+04  1.16973E+04  3.29132E+04  2.68837E+04  1.58830E+04  3.05333E+04 -5.49613E+03  2.78421E+04
 -2.25377E+04  1.16258E+04 -1.81337E+04 -5.70262E+03  7.11536E+03 -7.69925E+03  2.36454E+04  1.38873E+04
  7.00334E+03  3.75130E+04 -3.41153E+04  3.72402E+04 -6.58225E+04  2.12981E+03 -5.88466E+04 -4.46687E+04
 -1.27339E+04 -6.63358E+04  4.15914E+04 -4.79450E+04  6.13150E+04 -2.19888E+03  3.68290E+04  3.47501E+04
 -5.47584E+03  3.97007E+04 -3.17127E+04  1.87925E+04 -3.36189E+04 -3.24317E+03 -1.89118E+04 -1.21642E+04
 -9.43954E+03 -1.50279E+04 -3.84175E+02 -2.00128E+04  8.51281E+03 -2.33397E+04  1.57369E+04 -1.26708E+04
  1.09148E+04  6.59858E+03 -1.04578E+04  1.27723E+04 -2.33471E+04 -6.13041E+03 -8.72045E+03 -3.77057E+04
  2.50807E+04 -4.68182E+04  5.22007E+04 -2.11617E+04  4.85474E+04  2.06727E+04  1.69290E+04  4.72934E+04
 -1.68301E+04  3.59445E+04 -2.76544E+04  2.66607E+03 -1.18739E+04 -2.94446E+04  2.13311E+04 -3.71652E+04
  4.46310E+04 -1.07777E+04  4.07022E+04  2.47231E+04  2.17694E+04  5.12124E+04 -7.86399E+03  5.61861E+04
 -3.53826E+04  3.89320E+04 -4.74844E+04  1.14249E+04 -4.77001E+04 -1.81058E+04 -2.61594E+04 -4.20238E+04
  7.99675E+03 -4.21769E+04  3.43732E+04 -1.71925E+04  3.17213E+04  1.12797E+04  5.20591E+03  2.13000E+04
 -1.40678E+04  1.01709E+04 -1.13127E+04 -7.35479E+03  5.96044E+03 -1.13884E+04  1.87932E+04  4.90499E+03
  1.43559E+04  2.26583E+04 -5.29427E+03  2.70571E+04 -2.34349E+04  1.47604E+04 -3.23611E+04 -2.74027E+03
 -2.60165E+04 -1.84369E+04 -1.17638E+04 -2.44808E+04  4.16281E+03 -2.64025E+04  2.00600E+04 -2.30738E+04
  3.25266E+04 -1.41841E+04  3.86282E+04  5.24091E+03  2.74260E+04  2.47749E+04  4.42212E+03  4.16692E+04
 -1.98778E+04  3.42092E+04 -3.04726E+04  1.18707E+04 -2.25393E+04 -1.05817E+04 -5.43266E+03 -1.27540E+04
  8.45401E+02 -1.30676E+03 -7.73195E+03  8.50697E+03 -2.01939E+04  5.26567E+03 -2.06430E+04 -9.70682E+03
 -1.24452E+04 -2.39901E+04  6.50085E+03 -2.81587E+04  1.88889E+04 -1.96226E+04  2.31868E+04 -1.82604E+03
  1.50875E+04  1.64662E+04 -6.39089E+02  2.34262E+04 -1.68507E+04  1.36269E+04 -2.38380E+04 -4.77672E+03
 -1.72767E+04 -2.09056E+04 -1.99826E+03 -2.81842E+04  1.29337E+04 -2.35702E+04  2.31520E+04 -1.18895E+04
  2.17331E+04 -2.56705E+02  1.62443E+04  5.32243E+03  8.61638E+03  1.64380E+03  1.22763E+04 -2.08078E+03
  2.27142E+04  2.58445E+03  2.58051E+04  1.86813E+04  1.77285E+04  3.84441E+04 -2.87406E+03  4.50829E+04
 -2.58391E+04  3.75768E+04 -4.27351E+04  1.92953E+04 -4.52567E+04 -3.18487E+03 -3.68206E+04 -2.63441E+04
 -1.44923E+04 -3.81316E+04  1.30799E+04 -3.32668E+04  2.81746E+04 -1.57159E+04  2.41896E+04  7.71714E+03
  8.38894E+03  1.88356E+04 -1.19412E+04  1.55449E+04 -1.99523E+04  2.43870E+03 -1.55430E+04 -1.30427E+04
 -1.29119E+02 -1.95857E+04  1.02016E+04 -1.45245E+04  1.36508E+04 -1.25794E+03  3.64494E+03  8.78716E+03
 -9.08253E+03  3.89830E+03 -9.49373E+03 -7.27801E+03 -1.67694E+03 -1.85174E+04  1.18067E+04 -2.00773E+04
  2.37499E+04 -1.16528E+04  2.66754E+04  3.03982E+03  2.30874E+04  1.88179E+04  1.08414E+04  2.98222E+04
 -5.74639E+03  3.18521E+04 -2.08676E+04  1.96636E+04 -2.32864E+04  3.99614E+03 -1.57320E+04 -6.07602E+03
 -7.04893E+03 -7.20558E+03 -7.13504E+02  1.19912E+02 -2.67525E+03  3.42909E+03 -7.44363E+03  5.43570E+03
 -1.45118E+04 -8.31085E+02 -1.52170E+04 -1.20853E+04 -5.74874E+03 -1.95930E+04  6.57353E+03 -1.60880E+04
  1.29437E+04 -6.50552E+03  9.21122E+03  3.93105E+03 -3.45376E+02  6.47445E+03 -8.24249E+03 -3.78069E+02
 -7.96259E+03 -1.04995E+04 -1.08937E+03 -1.56815E+04  9.02979E+03 -1.70350E+04  2.08578E+04 -8.93862E+03
  2.38535E+04  2.61699E+03  1.76659E+04  1.46429E+04  3.65652E+03  1.95179E+04 -1.01669E+04  1.59486E+04
 -1.29131E+04  4.51204E+03 -6.41330E+03 -3.20797E+03  2.50110E+03 -4.75068E+03  8.27108E+03 -1.35841E+03
  7.83752E+03  7.55582E+03  1.81978E+03  1.29337E+04 -8.96465E+03  1.23526E+04 -1.60121E+04  2.83551E+03
 -1.12203E+04 -8.80066E+03 -9.08339E+01 -1.39763E+04  9.04640E+03 -7.45997E+03  9.49059E+03  3.78204E+03
  2.07661E+03  1.06686E+04 -8.25640E+03  1.15223E+04 -1.37665E+04  5.37955E+03 -1.46681E+04 -5.73305E+03
 -8.24702E+03 -1.65765E+04  4.10431E+03 -1.85620E+04  1.55272E+04 -1.11571E+04  1.74773E+04  3.17599E+03
  9.93938E+03  1.38232E+04 -1.50831E+03  1.62642E+04 -1.18764E+04  9.04834E+03 -1.32852E+04 -1.30338E+03
 -1.09494E+04 -1.06877E+04 -1.56763E+03 -1.26441E+04  6.29566E+03 -9.72401E+03  7.94520E+03 -3.93870E+03
  5.33756E+03  2.32093E+03 -1.01386E+03  2.24541E+03 -1.30685E+03 -3.55259E+03  2.94125E+03 -8.14861E+03
  1.20354E+04 -5.21005E+03  1.67712E+04  1.94425E+03  1.63636E+04  1.15203E+04  1.06308E+04  2.20442E+04
 -5.52846E+03  2.52298E+04 -2.08016E+04  1.85587E+04 -2.67928E+04  3.37416E+03 -2.17466E+04 -9.61556E+03
 -1.07612E+04 -1.75724E+04 -4.55517E+02 -1.56929E+04  5.66364E+03 -8.95823E+03  5.23324E+03 -5.43892E+03
  3.62694E+03 -3.38484E+03  3.97297E+03 -4.11699E+03  6.01547E+03 -3.57934E+03  8.17735E+03 -2.07835E+03
  1.11964E+04  2.44502E+03  6.27950E+03  9.86050E+03 -2.27895E+03  1.18050E+04 -1.18665E+04  9.20775E+03
 -1.53702E+04 -1.27264E+03 -1.01874E+04 -1.08680E+04 -1.16447E+03 -1.67035E+04  9.31787E+03 -1.64571E+04
  1.72256E+04 -9.27319E+03  2.05189E+04  3.07951E+03  1.39073E+04  1.40532E+04  2.12481E+03  1.87683E+04
 -8.04849E+03  1.50598E+04 -1.08146E+04  5.11807E+03 -7.72212E+03 -2.01961E+03 -3.10004E+03 -2.37771E+03
 -1.06539E+03 -1.85108E+02 -2.25780E+03  2.63608E+03 -6.46845E+03  2.54588E+03 -1.03639E+04 -1.77709E+03
 -7.46454E+03 -1.06589E+04 -3.03539E+02 -1.56933E+04  9.61055E+03 -1.46362E+04  1.53932E+04 -3.91446E+03
  1.60924E+04  7.71698E+03  7.07100E+03  1.44667E+04 -2.48635E+03  1.62454E+04 -1.14033E+04  9.52042E+03
 -1.49760E+04  9.19305E+02 -1.12201E+04 -9.38029E+03 -1.42414E+03 -1.31417E+04  6.65325E+03 -9.75441E+03
  1.01873E+04 -2.97285E+03  6.82872E+03  2.72342E+03  2.52757E+03  4.62663E+03  1.34510E+03  1.98633E+03
  2.42343E+03  1.55752E+03  4.04962E+03  1.95503E+03  4.49205E+03  5.47244E+03  4.16687E+03  8.31075E+03
 -3.14797E+03  1.22682E+04 -1.10694E+04  1.25869E+04 -1.62337E+04  3.14613E+03 -1.69025E+04 -6.63986E+03
 -8.47156E+03 -1.58661E+04  2.00032E+03 -1.77980E+04  9.74229E+03 -1.09448E+04  1.32125E+04 -3.10771E+03
  1.04735E+04  5.62763E+03  2.69095E+03  9.38197E+03 -4.64052E+03  6.01434E+03 -6.52879E+03 -6.87540E+02
 -3.40597E+03 -7.12113E+03  3.91134E+03 -7.14891E+03  7.22747E+03 -3.46827E+03  6.83534E+03  1.61393E+03
  4.08088E+03  3.92225E+03  1.77568E+03  2.75320E+03 -8.88689E+02  2.41335E+03  1.86662E+03 -6.97007E+02
  2.87907E+03 -5.84402E+02  6.40140E+03  2.72983E+03  4.02544E+03  8.60270E+03 -1.34848E+03  1.13806E+04
 -7.51190E+03  7.54600E+03 -1.00382E+04  1.89150E+03 -8.95472E+03 -3.68448E+03 -3.59352E+03 -6.32712E+03
  1.37595E+03 -6.27599E+03  4.37632E+03 -2.93741E+03  3.82378E+03  3.94755E+03 -1.65126E+03  5.62833E+03
 -6.97078E+03  3.60982E+03 -7.40651E+03 -4.08812E+03 -4.29913E+03 -9.02710E+03  1.34187E+03 -9.26415E+03
  5.50404E+03 -5.50498E+03  6.85334E+03 -7.37435E+02  5.70775E+03  2.55466E+03  5.59459E+02  4.32652E+03
 -2.99154E+03  1.77694E+03 -4.09934E+03 -3.53399E+03  1.53243E+03 -7.41363E+03  8.50334E+03 -6.47615E+03
  1.05662E+04  8.37911E+02  1.03413E+04  7.36240E+03  3.21227E+03  1.13015E+04 -3.64383E+03  1.01297E+04
 -8.84230E+03  4.36550E+03 -9.86149E+03 -1.49301E+03 -5.16020E+03 -6.85348E+03  1.24689E+03 -6.88872E+03
  7.08447E+03 -3.88630E+03  5.65017E+03  3.02662E+03  1.75593E+03  6.10852E+03 -5.72232E+02  4.95639E+03
 -3.03301E+03  3.42637E+03 -2.51920E+03  1.00642E+03 -1.15276E+03  1.01541E+03 -1.70900E+03  2.76737E+03
 -3.13088E+03  4.32764E+03 -7.24828E+03  3.88767E+03 -1.09385E+04  1.65840E+02 -1.25020E+04 -7.38175E+03
 -6.73493E+03 -1.48791E+04  3.45997E+03 -1.69634E+04  1.05461E+04 -1.30459E+04  1.60380E+04 -5.02000E+03
  1.49169E+04  3.16446E+03  8.78141E+03  1.06099E+04  1.14788E+03  1.13021E+04 -4.84144E+03  9.03728E+03
 -6.68238E+03  3.05191E+03 -4.09222E+03 -1.68545E+03 -1.39161E+03 -6.51575E+02 -3.69704E+02 -3.08957E+02
 -1.85727E+03  2.23935E+02 -2.37683E+03 -7.12715E+02 -7.91690E+02 -2.94717E+03  6.45014E+02 -4.40662E+03
  5.02890E+03 -3.79644E+03  6.86986E+03 -3.07990E+02  8.30826E+03  6.86538E+03  2.17145E+03  1.19118E+04
 -5.54476E+03  1.32789E+04 -1.21016E+04  8.13796E+03 -1.43422E+04 -8.56407E+02 -1.07687E+04 -9.34609E+03
 -4.27148E+03 -1.20151E+04  2.95017E+03 -1.11556E+04  7.61457E+03 -6.21729E+03  7.65877E+03 -1.31986E+02
  4.51778E+03  3.94297E+03 -1.32877E+01  3.58746E+03 -2.47684E+03 -3.80432E+02  1.70959E+01 -2.98270E+03
  3.63146E+03 -1.90430E+03  4.85443E+03  1.79725E+03  2.95682E+03  4.37548E+03  1.92708E+02  6.12869E+03
 -5.17956E+03  5.64997E+03 -7.98296E+03  5.75575E+02 -7.35394E+03 -6.13167E+03 -1.22944E+03 -9.82589E+03
  6.07435E+03 -8.31720E+03  8.93174E+03 -2.73970E+03  8.90462E+03  2.40891E+03  5.27911E+03  7.30258E+03
  1.26022E+03  8.11171E+03 -3.01952E+03  6.46024E+03 -5.43813E+03  3.32848E+03 -4.07884E+03  6.09264E+02
 -2.21106E+03 -3.93106E+01 -2.16389E+03  9.09901E+02 -4.24756E+03  1.05112E+03 -6.05485E+03 -1.09296E+03
 -5.97739E+03 -4.49155E+03 -1.59622E+03 -7.69993E+03  3.98815E+03 -8.05306E+03  7.01556E+03 -4.13409E+03
  8.14938E+03  9.93341E+02  4.56792E+03  5.86894E+03 -5.11916E+02  8.37149E+03 -5.77574E+03  5.15720E+03
