 $NMID ID='MM_0lb_SNR800_18hz_g45_34.RAW', FMTDAT='(8E13.5)'
 TRAMP=1., VOLUME=1. $END
  3.09750E+05  3.33339E+02  3.37084E+05  2.50294E+05  8.46962E+04  3.37339E+05 -1.32394E+05  2.50310E+05
 -1.89626E+05  8.24655E+04 -1.10692E+05 -3.28264E+04  1.14349E+03 -5.03312E+04  5.41621E+04  1.07973E+02
  3.49999E+04  5.27070E+04 -1.71811E+04  7.52123E+04 -6.05417E+04  6.26308E+04 -8.28260E+04  3.15935E+04
 -7.98648E+04 -1.14895E+04 -5.62748E+04 -5.02594E+04 -1.51054E+04 -6.87502E+04  2.68147E+04 -4.44899E+04
  3.90257E+04  3.53212E+03  1.54222E+04  4.71440E+04 -3.39134E+04  4.60570E+04 -6.54617E+04 -4.84456E+02
 -5.20415E+04 -5.56734E+04 -6.24134E+03 -7.51498E+04  3.30846E+04 -5.31796E+04  4.63850E+04 -1.61873E+04
  4.15001E+04  1.11284E+04  3.10452E+04  2.45019E+04  1.57621E+04  2.83585E+04 -4.66140E+03  2.68313E+04
 -2.16590E+04  1.27378E+04 -1.92754E+04 -4.14071E+03  4.24379E+03 -7.57667E+03  2.11735E+04  1.12262E+04
  7.39569E+03  3.35647E+04 -3.03385E+04  3.41521E+04 -6.14978E+04  2.47634E+03 -5.54697E+04 -4.11127E+04
 -1.21303E+04 -6.07457E+04  3.81208E+04 -4.32224E+04  5.54006E+04 -1.92447E+03  3.20817E+04  3.06845E+04
 -6.45736E+03  3.31857E+04 -2.83635E+04  1.36922E+04 -2.76515E+04 -5.01591E+03 -1.45750E+04 -1.00845E+04
 -7.40575E+03 -1.13637E+04 -9.57529E+02 -1.67075E+04  6.67302E+03 -2.26081E+04  1.51534E+04 -1.37741E+04
  1.20203E+04  4.26388E+03 -6.57220E+03  1.32336E+04 -1.93743E+04 -2.47041E+03 -8.06982E+03 -3.06517E+04
  2.09874E+04 -4.02601E+04  4.49241E+04 -1.84476E+04  4.18230E+04  1.85687E+04  1.44495E+04  4.16191E+04
 -1.55224E+04  3.10101E+04 -2.36457E+04  1.03110E+03 -8.08686E+03 -2.64027E+04  2.03374E+04 -3.13812E+04
  3.81995E+04 -7.48228E+03  3.20195E+04  2.29032E+04  1.55626E+04  4.30583E+04 -7.54668E+03  4.58382E+04
 -2.87945E+04  3.01193E+04 -3.75860E+04  8.29906E+03 -3.85518E+04 -1.50523E+04 -2.13897E+04 -3.47914E+04
  7.10714E+03 -3.40825E+04  2.94118E+04 -1.30058E+04  2.68807E+04  1.07259E+04  2.94631E+03  1.76295E+04
 -1.30170E+04  7.75203E+03 -9.62737E+03 -7.88912E+03  5.69396E+03 -1.01460E+04  1.72559E+04  6.27899E+03
  1.24335E+04  2.14609E+04 -6.55444E+03  2.34696E+04 -2.12881E+04  9.28310E+03 -2.52406E+04 -6.01021E+03
 -1.71094E+04 -1.64273E+04 -5.95374E+03 -1.71281E+04  3.84384E+03 -1.45657E+04  1.26244E+04 -1.42410E+04
  2.16175E+04 -1.16608E+04  2.83135E+04  1.01094E+03  2.14458E+04  1.63260E+04  4.10921E+03  3.26743E+04
 -1.60966E+04  2.76243E+04 -2.60517E+04  9.43775E+03 -1.98870E+04 -1.03509E+04 -4.00695E+03 -1.40240E+04
  2.60213E+03 -4.01602E+03 -2.65446E+03  5.51225E+03 -1.30539E+04  5.08558E+03 -1.36465E+04 -5.11663E+03
 -8.78285E+03 -1.59361E+04  4.55404E+03 -1.94611E+04  1.25734E+04 -1.41683E+04  1.46569E+04 -1.20337E+03
  9.27047E+03  1.08779E+04 -9.40617E+02  1.59328E+04 -1.06080E+04  8.48445E+03 -1.56021E+04 -3.49179E+03
 -1.17104E+04 -1.43328E+04 -1.46564E+03 -1.92413E+04  8.98471E+03 -1.56010E+04  1.60323E+04 -7.30448E+03
  1.49433E+04  8.23250E+02  1.07033E+04  3.78257E+03  5.09002E+03  5.20301E+02  7.72923E+03 -1.30020E+03
  1.38437E+04  2.56786E+03  1.50510E+04  1.28973E+04  9.43595E+03  2.51512E+04 -3.17062E+03  2.70911E+04
 -1.59027E+04  2.06722E+04 -2.48547E+04  9.71963E+03 -2.54099E+04 -2.06393E+03 -2.15690E+04 -1.45768E+04
 -1.03247E+04 -2.07189E+04  6.77344E+03 -1.93978E+04  1.68116E+04 -1.08614E+04  1.56642E+04  4.34680E+03
  6.48563E+03  1.16348E+04 -7.01864E+03  1.06928E+04 -1.34099E+04  2.60731E+03 -1.04984E+04 -7.94288E+03
 -1.27064E+02 -1.25084E+04  6.45548E+03 -9.44034E+03  8.30214E+03 -1.49483E+03  1.34876E+03  4.93225E+03
 -5.36185E+03  1.45935E+03 -4.00875E+03 -4.56915E+03  5.48695E+02 -1.03629E+04  8.05255E+03 -1.02310E+04
  1.26916E+04 -4.84534E+03  1.21197E+04  2.92173E+03  1.05673E+04  9.41551E+03  4.82955E+03  1.45728E+04
 -1.79002E+03  1.62548E+04 -9.92958E+03  1.01890E+04 -1.14808E+04  3.20696E+03 -8.70281E+03 -1.89574E+03
 -4.26784E+03 -3.32639E+03 -9.85119E+02  1.85021E+03 -1.93080E+03  1.92340E+03 -3.54130E+03  3.81717E+03
 -8.40664E+03 -6.86243E+02 -8.84869E+03 -7.32030E+03 -3.61016E+03 -1.15637E+04  3.75666E+03 -8.68443E+03
  7.15992E+03 -3.82669E+03  5.40802E+03  2.29585E+03  1.01381E+03  3.26352E+03 -3.48227E+03 -1.30287E+02
 -3.48858E+03 -5.36970E+03 -5.24250E+02 -7.33696E+03  4.17865E+03 -8.36383E+03  1.02174E+04 -4.18213E+03
  1.20271E+04  6.63862E+02  8.84031E+03  6.20111E+03  1.73239E+03  8.98253E+03 -5.55905E+03  8.44390E+03
 -7.03534E+03  3.02500E+03 -3.53951E+03 -1.02005E+03  1.37791E+03 -2.07482E+03  4.99028E+03 -1.13612E+03
  3.93685E+03  3.24867E+03  1.06491E+03  6.65375E+03 -4.58927E+03  6.53327E+03 -8.01981E+03  1.88741E+03
 -4.88679E+03 -3.43593E+03  2.64140E+02 -6.80823E+03  3.89276E+03 -3.53107E+03  3.70832E+03  9.08941E+02
  6.98619E+02  3.58668E+03 -4.29643E+03  5.06521E+03 -5.14729E+03  2.35308E+03 -4.61744E+03 -1.14515E+03
 -2.91062E+03 -6.06190E+03  1.09009E+03 -7.40156E+03  6.53126E+03 -4.63557E+03  6.64054E+03  1.08480E+03
  4.55002E+03  5.45916E+03  8.69175E+00  7.46407E+03 -5.28874E+03  4.28089E+03 -5.43655E+03 -3.44614E+02
 -5.76565E+03 -5.07836E+03 -1.27037E+03 -5.29884E+03  2.57842E+03 -4.92314E+03  2.78102E+03 -2.54654E+03
  2.83580E+03  4.48664E+02  1.87848E+02  1.19914E+03  4.54749E+02 -2.12673E+02  1.17699E+02 -1.96876E+03
  4.00819E+03 -6.68766E+02  5.58176E+03  5.32945E+02  5.74641E+03  3.21887E+03  5.27219E+03  7.31017E+03
 -1.46648E+03  8.65653E+03 -8.07471E+03  6.79052E+03 -1.01806E+04  1.30002E+03 -8.02976E+03 -2.73464E+03
 -4.51205E+03 -6.91771E+03 -3.58441E+02 -5.05397E+03  2.07485E+03 -2.40403E+03  1.89907E+03 -1.95710E+03
  1.36849E+03 -1.45769E+03  2.37682E+03 -2.14272E+03  3.60787E+03 -1.45742E+03  3.77492E+03  5.35337E+02
  4.79463E+03  1.07881E+03  1.23837E+03  3.67060E+03 -1.49720E+03  3.04886E+03 -4.64032E+03  2.75249E+03
 -5.08570E+03 -1.00128E+03 -1.77874E+03 -3.66272E+03  6.36843E+02 -5.22338E+03  3.35438E+03 -5.46807E+03
  5.42973E+03 -3.40935E+03  7.19474E+03  1.70243E+00  5.04778E+03  4.23020E+03  1.35481E+03  6.37314E+03
 -2.18565E+03  5.94904E+03 -3.78693E+03  1.79217E+03 -2.11109E+03 -1.01715E+03 -5.17544E+02 -5.98532E+02
 -5.69386E+02  5.36919E+02 -8.91483E+02  1.95614E+03 -2.63291E+03  1.12836E+03 -4.19880E+03 -3.01679E+02
 -1.43656E+03 -4.04231E+03  5.09161E+02 -4.56667E+03  2.83892E+03 -4.20346E+03  3.69210E+03 -1.00599E+03
  4.40941E+03  2.56542E+03  1.89434E+03  3.47000E+03 -6.16486E+02  4.56656E+03 -2.61642E+03  2.81814E+03
 -3.77203E+03  5.71962E+02 -3.39427E+03 -2.68878E+03 -1.59197E+02 -3.41882E+03  1.62377E+03 -2.68639E+03
  2.77120E+03 -1.37376E+03  1.67563E+03  4.75083E+02  6.43320E+02  1.69879E+03  7.29885E+02  4.95779E+02
  1.62516E+03  4.28683E+02  9.90644E+02  1.02312E+03  9.13281E+02  2.38230E+03  1.31159E+03  1.93758E+03
 -1.24021E+03  3.10283E+03 -2.63491E+03  4.10821E+03 -3.43311E+03  1.22976E+03 -4.53036E+03 -4.99060E+02
 -1.66617E+03 -3.98489E+03  8.30800E+02 -5.02626E+03  2.21209E+03 -2.67926E+03  3.55148E+03 -7.92094E+02
  2.68352E+03  2.14255E+03  6.25490E+02  2.32758E+03 -8.33609E+02  1.39778E+03 -1.05618E+03 -2.67829E+02
 -7.91865E+02 -1.63331E+03  1.08996E+03 -1.71161E+03  1.23873E+03 -1.15577E+03  1.23887E+03  9.22395E+00
  3.65339E+02  5.24492E+01  5.22459E+02 -9.65918E+01 -6.19565E+02  9.14492E+02  1.54457E+03 -1.67543E+02
 -4.65146E+01 -4.54237E+02  1.89000E+03  7.29047E+02  2.30696E+02  2.56095E+03 -2.10246E+02  2.93131E+03
 -1.56823E+03  1.01353E+03 -2.25176E+03  3.09524E+02 -2.35658E+03 -1.01040E+03 -2.67999E+02 -9.03062E+02
  4.59937E+02 -1.11549E+03  8.27502E+02 -8.03828E+02  8.93985E+02  1.26719E+03 -8.44429E+02  9.42598E+02
 -1.59584E+03  8.73867E+02 -1.14923E+03 -1.53314E+03 -7.05084E+02 -2.11684E+03  6.12244E+01 -2.05388E+03
  3.80529E+02 -5.24005E+02  6.35684E+02  2.04816E+02  1.37681E+03 -1.74226E+02  3.06861E+02  1.50949E+03
 -3.24167E+02  1.36573E+02 -1.02698E+03 -8.84048E+01  6.13803E+02 -1.17014E+03  1.79451E+03 -1.24960E+03
  1.43733E+03  3.18205E+02  2.95843E+03  9.34124E+02  9.27836E+02  1.75235E+03 -3.51258E+02  1.94560E+03
 -1.60555E+03  4.55736E+02 -1.58974E+03 -1.47622E+01 -7.58606E+02 -1.21435E+03  5.58028E+02 -8.22947E+02
  1.57226E+03 -7.82261E+02  1.02251E+03  8.21421E+02  1.12295E+02  1.51756E+03  3.55875E+02  1.24511E+03
 -4.93737E+02  9.06569E+02 -1.37142E+02  7.47991E+01 -2.59312E+02  6.65129E+02 -5.76725E+02  6.89863E+02
 -6.29131E+02  1.03041E+03 -1.73784E+03  5.36007E+02 -1.68274E+03  2.57908E+02 -2.31757E+03 -9.46178E+02
 -1.10111E+03 -2.62126E+03  6.48129E+02 -3.23185E+03  1.44321E+03 -2.65674E+03  3.00072E+03 -9.79834E+02
  2.66437E+03 -2.39342E+01  1.25741E+03  1.92091E+03 -5.26397E+02  1.45306E+03 -8.51828E+02  1.25787E+03
 -1.17815E+03  7.42830E+02 -4.73119E+02 -1.38550E+02 -6.64921E+02  4.39785E+01 -6.79613E+02  8.78246E+01
 -1.14002E+03 -2.78626E+01 -8.26887E+02 -3.45857E+02  3.09802E+02 -9.61421E+02 -4.18354E+02 -6.23695E+02
  1.41866E+03 -7.90341E+02  6.49454E+02  3.95983E+00  1.38800E+03  1.10928E+03 -3.43633E+02  1.29654E+03
 -9.16539E+02  2.24254E+03 -1.66202E+03  1.39987E+03 -1.93507E+03 -1.81087E+02 -1.48435E+03 -1.26438E+03
 -8.29744E+02 -1.59937E+03  3.14127E+02 -1.16301E+03  9.25310E+02 -8.00914E+02  5.71114E+02 -1.06834E+00
  6.92328E+02  4.08867E+02  1.33466E+02  3.03039E+02 -1.96213E+02  8.90636E+01 -1.30344E+02 -2.14420E+02
  5.16431E+02 -5.35323E+01  3.69460E+02  2.89288E+02 -1.43969E+01  4.51524E+02  3.21031E+02  2.23139E+02
 -6.28293E+02  6.55868E+02 -8.37520E+02  9.80606E+01 -9.62891E+02 -5.42303E+02 -7.14992E+00 -1.35640E+03
  5.45981E+02 -9.00499E+02  8.01988E+02 -2.76034E+02  1.08965E+03 -5.34615E+02  4.80500E+02  8.08605E+02
  3.58937E+02  7.05003E+02 -9.97566E+01  5.81593E+02 -8.17469E+02  4.71185E+02 -5.23020E+02 -1.21141E+02
 -1.81802E+01 -2.29285E+01 -6.65782E+02  2.87275E+02 -4.64218E+02  1.00892E+02 -1.04154E+03 -4.70469E+02
 -1.00775E+03  2.91711E+02 -1.28316E+02 -1.12968E+03  9.54754E+02 -1.74993E+03  6.60597E+02 -3.06157E+02
  5.95844E+02  1.98845E+02 -2.23352E+02  2.08653E+02  2.39908E+02  1.10063E+03 -3.68510E+02  7.66689E+02
