 $NMID ID='MM_0lb_SNR800_19hz_g40_8.RAW', FMTDAT='(8E13.5)'
 TRAMP=1., VOLUME=1. $END
  3.10095E+05  1.66479E+02  3.37111E+05  2.50350E+05  8.43906E+04  3.37020E+05 -1.32281E+05  2.49891E+05
 -1.89568E+05  8.19451E+04 -1.10506E+05 -3.27210E+04  1.76241E+03 -5.00519E+04  5.39084E+04  2.74923E+02
  3.48330E+04  5.28248E+04 -1.69146E+04  7.45637E+04 -6.00369E+04  6.23427E+04 -8.27208E+04  3.12106E+04
 -7.90070E+04 -1.10925E+04 -5.60181E+04 -4.97073E+04 -1.51957E+04 -6.72890E+04  2.63559E+04 -4.43320E+04
  3.88213E+04  4.04658E+03  1.55155E+04  4.69609E+04 -3.40488E+04  4.58721E+04 -6.50318E+04 -6.65809E+02
 -5.16177E+04 -5.55802E+04 -6.13263E+03 -7.45667E+04  3.27093E+04 -5.25802E+04  4.59038E+04 -1.59510E+04
  4.11387E+04  1.09316E+04  3.02559E+04  2.41323E+04  1.59308E+04  2.78965E+04 -4.31891E+03  2.62792E+04
 -2.14952E+04  1.27929E+04 -1.93172E+04 -4.24196E+03  4.07614E+03 -7.66168E+03  2.08544E+04  1.03881E+04
  7.75397E+03  3.26001E+04 -2.99988E+04  3.34037E+04 -6.04658E+04  2.20214E+03 -5.47991E+04 -4.06707E+04
 -1.23832E+04 -5.98425E+04  3.76451E+04 -4.28780E+04  5.43353E+04 -1.92597E+03  3.12809E+04  2.99155E+04
 -6.93568E+03  3.22760E+04 -2.78300E+04  1.26649E+04 -2.66965E+04 -5.61050E+03 -1.35361E+04 -9.88931E+03
 -6.96448E+03 -1.07340E+04 -8.29062E+02 -1.61380E+04  6.30348E+03 -2.24354E+04  1.48334E+04 -1.39333E+04
  1.24176E+04  4.02232E+03 -5.50044E+03  1.32084E+04 -1.87500E+04 -1.79588E+03 -8.02160E+03 -2.94298E+04
  2.01387E+04 -3.95020E+04  4.40661E+04 -1.83133E+04  4.08471E+04  1.77977E+04  1.37822E+04  4.09079E+04
 -1.53698E+04  3.04379E+04 -2.26304E+04  9.39554E+02 -7.77543E+03 -2.61135E+04  2.05190E+04 -3.02631E+04
  3.69663E+04 -6.74619E+03  2.99658E+04  2.22852E+04  1.46280E+04  4.13834E+04 -7.72355E+03  4.35479E+04
 -2.73146E+04  2.86766E+04 -3.61031E+04  8.35245E+03 -3.70238E+04 -1.46845E+04 -2.04433E+04 -3.30390E+04
  6.74508E+03 -3.30570E+04  2.84576E+04 -1.21944E+04  2.61234E+04  1.07144E+04  2.84541E+03  1.73596E+04
 -1.31004E+04  7.17641E+03 -9.38605E+03 -7.66888E+03  6.04363E+03 -9.71237E+03  1.72567E+04  6.61035E+03
  1.19275E+04  2.14581E+04 -6.82499E+03  2.30403E+04 -2.11056E+04  8.41128E+03 -2.47354E+04 -6.69455E+03
 -1.55927E+04 -1.61569E+04 -4.85226E+03 -1.57666E+04  3.68820E+03 -1.32909E+04  1.17535E+04 -1.33930E+04
  1.98382E+04 -1.14982E+04  2.71298E+04  5.33361E+02  2.08221E+04  1.54103E+04  4.26344E+03  3.11887E+04
 -1.55158E+04  2.66926E+04 -2.52890E+04  8.86858E+03 -1.90359E+04 -1.02985E+04 -3.83157E+03 -1.41941E+04
  2.89669E+03 -4.60058E+03 -2.46657E+03  4.97538E+03 -1.19533E+04  5.22474E+03 -1.25119E+04 -4.47768E+03
 -8.35558E+03 -1.47827E+04  4.38547E+03 -1.82579E+04  1.18215E+04 -1.33882E+04  1.36621E+04 -1.32304E+03
  8.33339E+03  1.02276E+04 -6.79801E+02  1.49040E+04 -9.56461E+03  8.39503E+03 -1.46493E+04 -3.06338E+03
 -1.11459E+04 -1.33167E+04 -1.36459E+03 -1.79600E+04  8.25401E+03 -1.43553E+04  1.53267E+04 -6.61798E+03
  1.40428E+04  8.40663E+02  1.00132E+04  3.80079E+03  4.98139E+03  7.34494E+02  7.28999E+03 -1.39823E+03
  1.28381E+04  2.73148E+03  1.35359E+04  1.21860E+04  8.19012E+03  2.34390E+04 -2.87501E+03  2.47965E+04
 -1.48659E+04  1.84644E+04 -2.27806E+04  8.90873E+03 -2.29668E+04 -1.50985E+03 -1.97706E+04 -1.31057E+04
 -9.49058E+03 -1.85019E+04  6.22608E+03 -1.78830E+04  1.58170E+04 -1.04818E+04  1.44799E+04  3.49898E+03
  6.38763E+03  1.03626E+04 -6.60361E+03  1.00371E+04 -1.27892E+04  2.78495E+03 -9.72577E+03 -7.77888E+03
  5.66594E+01 -1.15059E+04  6.02095E+03 -9.02244E+03  7.19724E+03 -1.33194E+03  1.45323E+03  4.48972E+03
 -5.38664E+03  1.03257E+03 -3.37718E+03 -4.43864E+03  7.83403E+02 -9.42981E+03  7.25282E+03 -9.21599E+03
  1.13725E+04 -4.08347E+03  1.09342E+04  2.62351E+03  9.30053E+03  8.97361E+03  4.46386E+03  1.26106E+04
 -1.32935E+03  1.46948E+04 -8.69547E+03  9.43616E+03 -1.02367E+04  2.97755E+03 -7.93406E+03 -1.69876E+03
 -4.49552E+03 -3.02910E+03 -7.97723E+02  1.48190E+03 -1.76510E+03  1.93496E+03 -3.20344E+03  3.15839E+03
 -7.32038E+03 -5.31470E+02 -8.44118E+03 -6.86363E+03 -3.44440E+03 -1.08028E+04  3.05750E+03 -8.00522E+03
  6.65175E+03 -3.58169E+03  4.93809E+03  1.81522E+03  7.95430E+02  2.76352E+03 -2.93219E+03 -8.18455E+01
 -3.12899E+03 -5.01175E+03 -9.44343E+02 -6.72229E+03  3.39983E+03 -7.18763E+03  9.38639E+03 -3.82978E+03
  1.07565E+04  6.02806E+02  8.32890E+03  5.70718E+03  1.90950E+03  7.64858E+03 -5.25429E+03  7.81219E+03
 -6.54881E+03  2.84128E+03 -3.32523E+03 -8.35214E+02  9.39317E+02 -1.99478E+03  4.47687E+03 -9.86300E+02
  3.79614E+03  3.32500E+03  1.17174E+03  5.95024E+03 -3.94575E+03  5.85866E+03 -7.54138E+03  1.43801E+03
 -4.57641E+03 -3.46647E+03  3.60682E+02 -6.40623E+03  3.21976E+03 -3.30662E+03  3.10214E+03  6.91011E+02
  6.27197E+02  2.80057E+03 -4.13770E+03  4.53194E+03 -4.07703E+03  1.64397E+03 -3.95537E+03 -9.90580E+02
 -2.70987E+03 -5.22291E+03  1.10458E+03 -6.41011E+03  5.09973E+03 -4.33877E+03  5.84266E+03  9.98479E+02
  4.30861E+03  4.75728E+03  3.37643E+02  6.82641E+03 -4.64052E+03  3.63727E+03 -4.65697E+03 -4.37327E+02
 -5.39654E+03 -4.79518E+03 -1.36351E+03 -4.43714E+03  2.41789E+03 -4.28681E+03  2.62169E+03 -2.65730E+03
  2.68593E+03  1.85196E+01  3.39910E+02  1.25943E+03  7.18492E+02  9.42614E+01  6.27453E+01 -1.57683E+03
  3.62229E+03 -6.07023E+02  4.80235E+03  7.21693E+02  4.92558E+03  2.42829E+03  5.18380E+03  6.32108E+03
 -1.26418E+03  7.54889E+03 -6.89440E+03  5.79715E+03 -8.99190E+03  1.04717E+03 -7.05887E+03 -2.41019E+03
 -3.91876E+03 -5.74316E+03 -3.91544E+02 -4.73189E+03  1.85657E+03 -1.79397E+03  1.25672E+03 -1.82297E+03
  1.15358E+03 -1.50934E+03  2.03802E+03 -2.23908E+03  3.60153E+03 -1.01141E+03  3.39046E+03  5.41863E+02
  3.82313E+03  1.21539E+03  1.06494E+03  3.22888E+03 -1.64233E+03  2.24371E+03 -4.04681E+03  2.36289E+03
 -4.46600E+03 -1.12710E+03 -1.51633E+03 -3.00153E+03  6.05249E+02 -4.54525E+03  3.01198E+03 -4.65877E+03
  4.37476E+03 -3.08124E+03  6.08966E+03  2.30108E+02  4.49951E+03  3.82161E+03  9.81076E+02  5.29333E+03
 -1.69601E+03  5.22635E+03 -3.03470E+03  1.63667E+03 -1.74884E+03 -8.75634E+02 -6.75005E+02 -5.21508E+02
 -5.38742E+02  5.18873E+02 -1.01799E+03  2.03691E+03 -2.50303E+03  7.19228E+02 -3.54228E+03  2.38699E+01
 -1.40129E+03 -3.72337E+03  1.15582E+03 -4.13432E+03  2.71488E+03 -3.83081E+03  3.18545E+03 -1.05569E+03
  3.60693E+03  2.20042E+03  1.77354E+03  2.73884E+03 -7.82955E+02  4.02624E+03 -2.47531E+03  2.37752E+03
 -3.30657E+03  3.44843E+02 -3.14991E+03 -2.39575E+03 -7.65692E+01 -2.87746E+03  1.38031E+03 -2.59594E+03
  2.41907E+03 -1.25448E+03  1.29517E+03  4.85800E+02  2.77959E+02  1.67408E+03  1.13827E+03  2.84525E+02
  1.74085E+03  7.94840E+02  9.51796E+02  9.06395E+02  1.20134E+03  1.96835E+03  1.39899E+03  1.23261E+03
 -1.25548E+03  2.61146E+03 -2.30256E+03  3.96550E+03 -2.56291E+03  1.14114E+03 -3.89014E+03  3.83514E+01
 -1.55223E+03 -3.30013E+03  5.13728E+02 -3.92104E+03  1.52961E+03 -1.90517E+03  2.60249E+03 -4.51521E+02
  2.42169E+03  1.65914E+03  3.15237E+02  2.00927E+03 -6.26628E+02  9.26969E+02 -6.82822E+02  3.37297E+01
 -6.12853E+02 -1.30869E+03  1.08335E+03 -1.41356E+03  1.24617E+03 -7.71890E+02  9.88230E+02  1.37152E+02
  8.90002E+02  3.91313E+02  7.49725E+02 -4.54564E+02 -1.05635E+02  6.31538E+02  1.63667E+03 -1.24847E+02
  6.47849E+01 -8.30664E+01  1.54954E+03  6.69337E+02  4.31772E+02  2.04348E+03 -4.52713E+02  2.49866E+03
 -1.84431E+03  8.27658E+02 -1.88737E+03  3.01719E+02 -2.05083E+03 -7.10602E+02 -1.22917E+02 -8.84080E+02
  4.41534E+02 -1.03543E+03  6.94121E+02 -7.33951E+02  2.70220E+02  1.29800E+03 -7.21854E+02  8.79161E+02
 -1.17516E+03  6.27864E+02 -1.20938E+03 -1.51397E+03 -9.70999E+02 -1.80718E+03  1.34267E+02 -1.56720E+03
  2.20852E+02 -3.77851E+02  6.95695E+02  2.33797E+02  1.38236E+03 -3.12471E+02  3.86464E+02  1.06826E+03
 -2.29948E+02  1.75869E+02 -1.03555E+03 -2.47069E+02  5.62203E+02 -7.16453E+02  1.63320E+03 -4.68926E+02
  1.18667E+03  2.99354E+02  2.54360E+03  1.32020E+02  8.98289E+02  1.46209E+03 -2.40771E+02  1.87822E+03
 -1.40843E+03  4.18492E+01 -1.43336E+03 -1.80396E+02 -8.23478E+02 -1.12880E+03  2.66018E+02 -4.51538E+02
  1.32381E+03 -4.57925E+02  5.59352E+02  6.99896E+02  1.91943E+02  1.13762E+03 -1.13495E+02  9.92646E+02
 -3.85530E+02  1.04564E+03 -4.48520E+02  4.28609E+02 -1.15130E+02  2.17084E+02 -8.22621E+02  4.53732E+02
 -3.46324E+02  1.06198E+03 -1.75885E+03  2.66989E+02 -1.60578E+03  3.54490E+02 -2.19964E+03 -9.75540E+02
 -1.04213E+03 -2.16877E+03  6.81142E+02 -2.44403E+03  1.12281E+03 -2.25525E+03  2.59715E+03 -1.04177E+03
  2.25452E+03 -8.41894E+01  1.24523E+03  1.15414E+03 -7.32565E+02  1.50302E+03 -8.39936E+02  9.79776E+02
 -1.01380E+03  9.40097E+02 -4.03873E+02 -2.10747E+02 -4.84665E+02  2.22321E+02 -7.85992E+02 -1.88602E+02
 -8.19472E+02 -1.32239E+02 -7.82330E+02  1.42801E+02  3.31113E+02 -4.01430E+02 -4.74037E+02 -8.69383E+02
  1.07743E+03 -4.76545E+02  2.23805E+02  1.53642E+02  1.16850E+03  8.14408E+02 -5.36428E+02  1.46375E+03
 -9.16682E+02  2.23950E+03 -1.39503E+03  1.32096E+03 -1.77348E+03 -3.19772E+02 -1.06120E+03 -9.75910E+02
 -7.63798E+02 -1.14682E+03  2.14613E+02 -8.53940E+02  6.09969E+02 -5.29732E+02  5.94640E+02  1.15658E+02
  6.21910E+02  2.84955E+02  1.62953E+02  3.37419E+02 -1.65289E+02 -7.74863E+01 -1.24421E+01 -1.56159E+02
  4.11733E+02  5.53403E+02  1.59980E+02  5.71260E+02 -1.24243E+01  4.68496E+02  5.40764E+02  4.68785E+02
 -7.60378E+02  5.41410E+02 -4.88934E+02  1.71555E+02 -5.66898E+02 -5.12973E+02  8.25844E+01 -1.12809E+03
  4.65034E+02 -6.67344E+02  3.17130E+02 -1.66346E+02  1.04317E+03 -6.48768E+02  2.84391E+02  7.38277E+02
  5.46017E+02  5.85581E+02 -6.29486E+01  2.81438E+02 -5.28998E+02  6.07324E+02 -2.44823E+02  1.37527E+02
  2.24026E+01 -4.72152E+02 -3.37459E+02 -6.86866E+01 -5.27241E+02  2.38761E+02 -5.63376E+02 -1.46430E+02
 -9.09956E+02  1.93780E+02 -3.81804E+02 -7.82337E+02  5.95186E+02 -1.30711E+03  8.45347E+02 -2.15478E+02
  6.24369E+02 -5.41271E+01  4.58296E+01  1.36892E+02  9.21072E+01  8.78633E+02 -1.05925E+02  4.81766E+02
