 $NMID ID='MM_0lb_SNR800_17hz_g40_19.RAW', FMTDAT='(8E13.5)'
 TRAMP=1., VOLUME=1. $END
  3.09851E+05 -3.27108E+01  3.37294E+05  2.50432E+05  8.41868E+04  3.37542E+05 -1.32612E+05  2.50346E+05
 -1.89538E+05  8.25927E+04 -1.11020E+05 -3.28677E+04  1.40902E+03 -5.02929E+04  5.40865E+04  2.13366E+02
  3.51387E+04  5.26941E+04 -1.68888E+04  7.49276E+04 -6.05542E+04  6.29692E+04 -8.30835E+04  3.15197E+04
 -7.96923E+04 -1.12010E+04 -5.60629E+04 -5.04132E+04 -1.50005E+04 -6.82191E+04  2.72945E+04 -4.49036E+04
  3.92522E+04  4.04342E+03  1.56407E+04  4.72798E+04 -3.39577E+04  4.62516E+04 -6.54434E+04 -6.64673E+02
 -5.20744E+04 -5.59835E+04 -6.37132E+03 -7.53716E+04  3.35617E+04 -5.36159E+04  4.63860E+04 -1.61938E+04
  4.16171E+04  1.12149E+04  3.08534E+04  2.46141E+04  1.55714E+04  2.83229E+04 -4.69418E+03  2.67527E+04
 -2.16902E+04  1.26972E+04 -1.89723E+04 -4.26171E+03  4.41921E+03 -7.95693E+03  2.13931E+04  1.10207E+04
  7.53110E+03  3.35634E+04 -3.03237E+04  3.41636E+04 -6.14739E+04  2.28442E+03 -5.56131E+04 -4.17971E+04
 -1.27048E+04 -6.10310E+04  3.84897E+04 -4.36031E+04  5.57635E+04 -1.96017E+03  3.21344E+04  3.09116E+04
 -6.50187E+03  3.31031E+04 -2.84760E+04  1.36052E+04 -2.79424E+04 -5.52584E+03 -1.45460E+04 -1.00212E+04
 -7.28851E+03 -1.17419E+04 -1.04166E+03 -1.68915E+04  6.55519E+03 -2.26216E+04  1.51676E+04 -1.38039E+04
  1.24740E+04  4.54679E+03 -6.39209E+03  1.29602E+04 -1.95434E+04 -2.83359E+03 -8.19889E+03 -3.06933E+04
  2.11513E+04 -4.06237E+04  4.54100E+04 -1.87831E+04  4.22296E+04  1.84603E+04  1.46044E+04  4.20320E+04
 -1.49974E+04  3.12670E+04 -2.37366E+04  1.19673E+03 -8.38676E+03 -2.67739E+04  2.03866E+04 -3.14308E+04
  3.83396E+04 -7.44685E+03  3.19545E+04  2.27714E+04  1.58898E+04  4.28981E+04 -7.51397E+03  4.57714E+04
 -2.87592E+04  3.04331E+04 -3.78673E+04  8.48666E+03 -3.89207E+04 -1.51202E+04 -2.14519E+04 -3.53831E+04
  6.82218E+03 -3.44031E+04  2.93082E+04 -1.30536E+04  2.72822E+04  1.06616E+04  3.02800E+03  1.80984E+04
 -1.28639E+04  7.64887E+03 -9.68291E+03 -7.67174E+03  5.86264E+03 -9.96779E+03  1.73806E+04  6.48578E+03
  1.23385E+04  2.16107E+04 -6.67971E+03  2.35598E+04 -2.16598E+04  9.67972E+03 -2.57103E+04 -6.04335E+03
 -1.73827E+04 -1.66813E+04 -5.80688E+03 -1.73714E+04  3.96255E+03 -1.50548E+04  1.26507E+04 -1.50196E+04
  2.16800E+04 -1.16340E+04  2.85412E+04  1.59073E+03  2.17037E+04  1.69149E+04  4.09638E+03  3.30846E+04
 -1.64132E+04  2.77088E+04 -2.60116E+04  9.78456E+03 -1.94987E+04 -1.05296E+04 -4.03191E+03 -1.35939E+04
  2.54555E+03 -3.99813E+03 -2.87201E+03  5.31497E+03 -1.33244E+04  5.14144E+03 -1.41049E+04 -5.23468E+03
 -9.12970E+03 -1.61272E+04  4.87362E+03 -1.99851E+04  1.30801E+04 -1.42687E+04  1.51011E+04 -1.45855E+03
  9.42664E+03  1.10019E+04 -9.32850E+02  1.60479E+04 -1.08513E+04  9.02277E+03 -1.59635E+04 -3.84268E+03
 -1.19119E+04 -1.45212E+04 -1.51433E+03 -1.96769E+04  9.02911E+03 -1.57152E+04  1.66813E+04 -7.52619E+03
  1.53346E+04  8.92974E+02  1.07268E+04  4.02750E+03  5.46938E+03  5.35921E+02  7.81469E+03 -1.36469E+03
  1.43876E+04  2.48682E+03  1.52443E+04  1.30726E+04  9.40225E+03  2.55712E+04 -3.23700E+03  2.78858E+04
 -1.62400E+04  2.13449E+04 -2.54821E+04  1.02508E+04 -2.61062E+04 -1.83632E+03 -2.23949E+04 -1.49367E+04
 -1.04118E+04 -2.11918E+04  7.08938E+03 -1.96834E+04  1.75521E+04 -1.10439E+04  1.61079E+04  4.21312E+03
  6.44391E+03  1.16434E+04 -7.38234E+03  1.09636E+04 -1.39049E+04  2.70163E+03 -1.06793E+04 -8.27808E+03
  2.98959E+01 -1.27289E+04  6.60123E+03 -9.64276E+03  8.11771E+03 -1.21010E+03  1.39343E+03  5.11772E+03
 -5.60243E+03  1.16240E+03 -3.92985E+03 -4.48973E+03  4.78794E+02 -1.08752E+04  8.34166E+03 -1.08116E+04
  1.31146E+04 -5.26996E+03  1.28443E+04  2.77497E+03  1.11018E+04  1.01215E+04  5.39630E+03  1.53911E+04
 -2.07954E+03  1.67505E+04 -1.03593E+04  1.07196E+04 -1.20165E+04  3.03911E+03 -8.48904E+03 -1.85787E+03
 -4.97911E+03 -3.49933E+03 -8.09473E+02  1.41189E+03 -1.98344E+03  2.15030E+03 -3.87228E+03  3.71635E+03
 -8.72973E+03 -5.12399E+02 -9.17161E+03 -7.48202E+03 -3.66147E+03 -1.20420E+04  3.67048E+03 -9.14269E+03
  7.84160E+03 -4.24950E+03  5.44781E+03  2.31115E+03  5.94749E+02  3.00168E+03 -3.77263E+03 -1.25091E+01
 -3.34827E+03 -5.49006E+03 -8.50983E+02 -7.60926E+03  3.95517E+03 -8.55948E+03  1.06608E+04 -4.24300E+03
  1.25713E+04  9.59434E+02  9.20826E+03  6.80325E+03  1.89777E+03  9.48972E+03 -5.43230E+03  8.89900E+03
 -7.26247E+03  2.92838E+03 -3.75710E+03 -1.55491E+03  1.44471E+03 -1.77032E+03  5.10363E+03 -9.61730E+02
  4.30044E+03  3.52839E+03  9.48882E+02  7.02980E+03 -4.62006E+03  6.91884E+03 -8.49130E+03  1.83729E+03
 -5.19244E+03 -3.96486E+03  4.26599E+02 -7.33401E+03  4.29717E+03 -3.72499E+03  3.96215E+03  9.69574E+02
  6.21608E+02  4.05616E+03 -4.52544E+03  5.20205E+03 -5.34733E+03  2.74582E+03 -5.27062E+03 -1.38170E+03
 -3.27489E+03 -6.83585E+03  1.48846E+03 -7.88624E+03  6.77296E+03 -5.06956E+03  7.17895E+03  1.20479E+03
  5.12342E+03  5.98171E+03  8.48127E+01  7.94318E+03 -5.42829E+03  4.27784E+03 -5.62643E+03 -2.97080E+02
 -5.92130E+03 -5.54503E+03 -1.21941E+03 -5.13480E+03  2.80803E+03 -5.07718E+03  3.29790E+03 -2.80545E+03
  3.04863E+03  6.04956E+02  2.58490E+01  1.08403E+03  4.58006E+02 -6.14496E+02  4.94580E+02 -2.22666E+03
  4.27795E+03 -1.16582E+03  6.11607E+03  7.08658E+02  6.37461E+03  3.65677E+03  5.92883E+03  8.00908E+03
 -1.59025E+03  9.73673E+03 -8.49303E+03  7.25896E+03 -1.09380E+04  1.55259E+03 -8.95049E+03 -2.92222E+03
 -4.63502E+03 -7.31353E+03 -3.44500E+02 -6.11703E+03  2.33328E+03 -2.37709E+03  2.10341E+03 -2.25633E+03
  1.45670E+03 -1.72310E+03  2.63664E+03 -2.32377E+03  3.64818E+03 -1.50780E+03  4.22178E+03  2.19427E+02
  5.05304E+03  1.23104E+03  1.57327E+03  4.04362E+03 -1.36894E+03  3.34654E+03 -4.97827E+03  2.97475E+03
 -5.83786E+03 -9.39392E+02 -2.44769E+03 -3.76755E+03  3.59210E+02 -5.84207E+03  3.59423E+03 -6.10950E+03
  6.03967E+03 -3.68708E+03  7.32890E+03  1.27367E+02  5.70020E+03  4.96803E+03  1.10177E+03  6.77200E+03
 -2.75959E+03  6.50697E+03 -3.71151E+03  2.20433E+03 -1.91097E+03 -9.31352E+02 -7.08329E+02 -8.23864E+02
 -3.51058E+02  2.08306E+02 -1.01805E+03  1.86551E+03 -2.69534E+03  1.26495E+03 -4.60368E+03 -8.44897E+02
 -1.96595E+03 -4.33146E+03  7.95568E+02 -5.70414E+03  3.22312E+03 -4.90063E+03  4.44086E+03 -1.22482E+03
  4.83108E+03  2.66565E+03  2.38897E+03  3.97113E+03 -9.14732E+02  5.00084E+03 -3.30014E+03  3.16700E+03
 -4.75749E+03  4.79906E+02 -4.00368E+03 -2.83743E+03 -3.68559E+02 -3.87665E+03  1.81761E+03 -2.87558E+03
  3.41311E+03 -1.42644E+03  2.11611E+03  6.74634E+02  6.75601E+02  1.85975E+03  9.70276E+02  6.47204E+02
  1.62947E+03  3.44997E+02  1.27515E+03  1.18278E+03  1.22868E+03  2.53089E+03  1.64048E+03  2.24503E+03
 -1.13093E+03  3.59602E+03 -3.16141E+03  4.53209E+03 -3.77238E+03  1.31584E+03 -4.91088E+03 -9.10844E+02
 -2.12030E+03 -4.38558E+03  6.46554E+02 -5.58033E+03  2.52044E+03 -3.19788E+03  3.50515E+03 -7.05320E+02
  2.96881E+03  2.13398E+03  6.27431E+02  2.93635E+03 -9.29321E+02  1.42813E+03 -1.38210E+03 -1.78479E+02
 -1.06480E+03 -1.85839E+03  1.41063E+03 -2.02983E+03  1.59576E+03 -1.11310E+03  1.43518E+03  4.81965E+02
  9.98772E+02  4.37087E+02  7.23351E+02  1.70871E+02 -4.56315E+02  1.08114E+03  1.82105E+03 -5.39541E+02
  2.12089E+02 -3.57496E+02  2.49316E+03  7.37435E+02  2.78092E+02  2.84708E+03 -7.35244E+02  3.30220E+03
 -2.19543E+03  1.53865E+03 -2.55189E+03  4.51079E+02 -3.03261E+03 -1.09001E+03 -2.21465E+02 -1.40065E+03
  4.01464E+02 -1.75735E+03  1.10834E+03 -7.82431E+02  9.93982E+02  1.22535E+03 -7.95440E+02  1.65964E+03
 -1.75905E+03  8.60496E+02 -1.55324E+03 -1.64294E+03 -1.02412E+03 -2.49113E+03  2.13308E+02 -2.09671E+03
  8.33302E+02 -1.23201E+03  1.36858E+03  3.04965E+02  1.55500E+03 -5.10047E+01  3.70640E+02  9.83497E+02
 -3.49655E+02  3.97622E+01 -1.21484E+03 -5.26685E+02  6.77229E+02 -1.32771E+03  2.02543E+03 -1.18826E+03
  1.58842E+03  3.03575E+02  3.29311E+03  1.26253E+03  1.01725E+03  2.09874E+03 -3.40433E+02  2.32937E+03
 -1.96473E+03  3.32284E+02 -2.33281E+03 -2.43266E+02 -1.08415E+03 -1.73361E+03  3.38051E+02 -1.01478E+03
  1.87612E+03 -1.10272E+03  8.79967E+02  7.73904E+02  2.31958E+02  1.37422E+03  2.33929E+02  1.26337E+03
 -3.88848E+02  1.43153E+03 -5.30153E+02  2.67711E+02  4.76519E+01  2.71961E+02 -1.00844E+03  6.75768E+02
 -6.91893E+02  1.15399E+03 -1.94406E+03  8.01121E+02 -2.34951E+03  2.44297E+02 -3.24575E+03 -1.52822E+03
 -1.38093E+03 -2.90139E+03  6.45107E+02 -3.67295E+03  1.23523E+03 -3.01365E+03  3.48221E+03 -1.31458E+03
  3.18861E+03  3.15401E+01  1.78780E+03  1.66468E+03 -5.41061E+02  1.87906E+03 -1.00524E+03  1.82812E+03
 -1.45585E+03  1.04085E+03 -7.44339E+02 -2.99087E+02 -2.61407E+02  1.57411E+02 -8.24936E+02 -3.74438E+01
 -1.12302E+03 -1.74264E+02 -1.03110E+03  4.54895E+01  5.06577E+02 -7.75380E+02 -3.62466E+02 -9.25581E+02
  1.54757E+03 -5.94767E+02  7.48712E+02  2.67144E+02  1.62581E+03  1.22352E+03 -7.33947E+01  1.78187E+03
 -1.16118E+03  2.94166E+03 -2.37917E+03  1.67740E+03 -2.08679E+03 -2.29283E+02 -1.76008E+03 -1.86879E+03
 -1.06432E+03 -1.80927E+03  6.25111E+02 -2.10258E+03  1.19184E+03 -5.83488E+02  1.21718E+03  6.70892E+01
  8.46897E+02  5.09369E+02 -4.22635E+01  4.85869E+02 -4.71976E+02  3.95911E+01 -1.68696E+02 -1.96046E+02
  6.67431E+02  1.57630E+02  3.29255E+02  4.94600E+02  8.48896E+00  5.80763E+02  4.32462E+02  5.96171E+02
 -9.11574E+02  1.10314E+03 -9.09024E+02  1.97204E+02 -1.11081E+03 -7.51808E+02 -5.85535E+01 -1.70582E+03
  8.99611E+02 -9.29282E+02  6.93893E+02 -2.30114E+02  1.57418E+03 -4.54009E+02  7.95772E+02  1.33793E+03
  3.71328E+02  9.54037E+02 -2.29213E+02  1.07328E+03 -8.03502E+02  7.45930E+02 -5.21386E+02  2.86354E+02
 -2.42447E+02  2.37488E+02 -3.98755E+02  7.59797E+01 -1.00441E+03  3.79488E+02 -7.98374E+02 -9.19931E+01
 -1.39526E+03  7.03085E+00 -4.29514E+02 -1.61129E+03  9.18378E+02 -1.85364E+03  1.05281E+03 -4.65841E+02
  1.29031E+03  4.92757E+01 -4.99278E+01  4.95202E+02  1.56611E+02  1.33763E+03 -6.81536E+02  6.44837E+02
