 $NMID ID='MM_0lb_SNR800_13hz_g40_47.RAW', FMTDAT='(8E13.5)'
 TRAMP=1., VOLUME=1. $END
  3.09828E+05  7.01948E+02  3.37689E+05  2.50559E+05  8.47911E+04  3.37977E+05 -1.32544E+05  2.50755E+05
 -1.90340E+05  8.33083E+04 -1.11713E+05 -3.26507E+04  1.01020E+03 -5.04431E+04  5.37087E+04 -7.76675E+01
  3.54619E+04  5.30281E+04 -1.69510E+04  7.53578E+04 -6.05321E+04  6.36998E+04 -8.42276E+04  3.19808E+04
 -8.07174E+04 -1.13810E+04 -5.72975E+04 -5.12039E+04 -1.53998E+04 -6.95752E+04  2.71339E+04 -4.55283E+04
  3.99861E+04  4.11044E+03  1.59054E+04  4.76108E+04 -3.44552E+04  4.70570E+04 -6.67778E+04 -2.14028E+02
 -5.33801E+04 -5.65784E+04 -7.02905E+03 -7.71272E+04  3.40065E+04 -5.48784E+04  4.79519E+04 -1.72640E+04
  4.33917E+04  1.14150E+04  3.16347E+04  2.51861E+04  1.55891E+04  2.91454E+04 -5.16173E+03  2.74387E+04
 -2.21751E+04  1.21201E+04 -1.85600E+04 -4.58142E+03  5.40636E+03 -7.69951E+03  2.23486E+04  1.22753E+04
  7.15380E+03  3.51317E+04 -3.21714E+04  3.53222E+04 -6.30195E+04  2.19834E+03 -5.67918E+04 -4.26037E+04
 -1.25468E+04 -6.29039E+04  3.99968E+04 -4.51209E+04  5.82400E+04 -2.15964E+03  3.38188E+04  3.24927E+04
 -6.17707E+03  3.65940E+04 -2.96784E+04  1.57776E+04 -3.04850E+04 -4.64276E+03 -1.67228E+04 -1.09517E+04
 -8.57962E+03 -1.34255E+04 -8.50613E+02 -1.83915E+04  7.40130E+03 -2.28633E+04  1.50404E+04 -1.33450E+04
  1.13979E+04  5.14766E+03 -7.95005E+03  1.29335E+04 -2.09699E+04 -4.48701E+03 -8.33420E+03 -3.34264E+04
  2.23737E+04 -4.36231E+04  4.83091E+04 -1.98449E+04  4.49795E+04  1.95119E+04  1.55589E+04  4.42726E+04
 -1.57401E+04  3.33693E+04 -2.54039E+04  1.83417E+03 -9.88035E+03 -2.80544E+04  2.09935E+04 -3.35106E+04
  4.09857E+04 -9.00393E+03  3.59046E+04  2.39189E+04  1.81574E+04  4.64825E+04 -7.90371E+03  4.98846E+04
 -3.14626E+04  3.38257E+04 -4.18042E+04  9.44778E+03 -4.25753E+04 -1.67280E+04 -2.33900E+04 -3.79095E+04
  7.54162E+03 -3.75497E+04  3.13565E+04 -1.46700E+04  2.93827E+04  1.09053E+04  3.90746E+03  1.90852E+04
 -1.34266E+04  8.25239E+03 -1.02523E+04 -7.21828E+03  5.82345E+03 -1.07914E+04  1.77661E+04  6.01684E+03
  1.35192E+04  2.19129E+04 -6.16032E+03  2.49823E+04 -2.25962E+04  1.17043E+04 -2.80348E+04 -4.81277E+03
 -2.05108E+04 -1.73014E+04 -8.52668E+03 -2.03942E+04  4.02719E+03 -1.98054E+04  1.55295E+04 -1.81053E+04
  2.63737E+04 -1.26778E+04  3.25763E+04  2.75512E+03  2.36098E+04  2.00486E+04  4.22577E+03  3.63794E+04
 -1.77822E+04  3.06335E+04 -2.81239E+04  1.02135E+04 -2.05323E+04 -1.01288E+04 -4.37293E+03 -1.36989E+04
  1.79226E+03 -2.71528E+03 -4.95771E+03  6.71738E+03 -1.61014E+04  5.36523E+03 -1.61965E+04 -7.26787E+03
 -1.03742E+04 -1.87145E+04  5.35322E+03 -2.31264E+04  1.51545E+04 -1.69643E+04  1.80283E+04 -1.85158E+03
  1.12984E+04  1.32451E+04 -9.14958E+02  1.90321E+04 -1.33150E+04  1.07948E+04 -1.91489E+04 -4.34315E+03
 -1.37833E+04 -1.73450E+04 -1.85230E+03 -2.30091E+04  1.01026E+04 -1.87512E+04  1.91621E+04 -9.22571E+03
  1.74497E+04  4.44192E+02  1.29515E+04  4.49420E+03  6.57106E+03  9.28438E+02  9.81137E+03 -1.69655E+03
  1.77740E+04  2.85519E+03  1.96591E+04  1.51867E+04  1.29065E+04  3.07543E+04 -3.11859E+03  3.42322E+04
 -1.98614E+04  2.73294E+04 -3.19493E+04  1.39651E+04 -3.37175E+04 -2.03381E+03 -2.80405E+04 -1.98346E+04
 -1.18986E+04 -2.74668E+04  9.44600E+03 -2.47928E+04  2.15481E+04 -1.31340E+04  1.96892E+04  5.63466E+03
  7.39258E+03  1.43558E+04 -8.93463E+03  1.25356E+04 -1.63872E+04  2.81554E+03 -1.25503E+04 -1.02684E+04
 -2.26451E+02 -1.57554E+04  8.02938E+03 -1.21822E+04  1.02759E+04 -1.45322E+03  2.65403E+03  6.77766E+03
 -7.16300E+03  2.87801E+03 -5.94500E+03 -5.48525E+03 -5.36261E+02 -1.35317E+04  9.62516E+03 -1.44508E+04
  1.70305E+04 -7.69313E+03  1.80127E+04  3.05421E+03  1.55006E+04  1.33241E+04  7.60653E+03  2.04464E+04
 -3.35997E+03  2.25605E+04 -1.42828E+04  1.42992E+04 -1.63163E+04  3.61896E+03 -1.13578E+04 -3.63169E+03
 -5.58800E+03 -5.12859E+03 -6.96646E+02  1.08846E+03 -2.26218E+03  2.54244E+03 -4.99613E+03  4.37470E+03
 -1.07204E+04 -4.37564E+02 -1.13146E+04 -9.06746E+03 -4.67598E+03 -1.49330E+04  4.80593E+03 -1.19609E+04
  9.33357E+03 -5.37001E+03  6.81231E+03  3.19119E+03  1.52212E+02  4.45912E+03 -5.65873E+03 -2.09200E+02
 -5.24559E+03 -7.54686E+03 -6.03368E+02 -1.02775E+04  6.12416E+03 -1.15857E+04  1.42029E+04 -6.05619E+03
  1.68710E+04  1.18202E+03  1.26719E+04  9.59494E+03  2.41505E+03  1.34458E+04 -6.95359E+03  1.15161E+04
 -9.28716E+03  3.52954E+03 -5.13430E+03 -2.11543E+03  1.78425E+03 -3.11497E+03  6.14248E+03 -1.01179E+03
  5.79030E+03  4.51642E+03  9.79426E+02  9.11710E+03 -6.46687E+03  8.59776E+03 -1.11430E+04  2.24250E+03
 -7.32151E+03 -5.81563E+03  3.50240E+02 -9.64908E+03  5.90264E+03 -4.99722E+03  6.04931E+03  2.10152E+03
  1.10958E+03  6.10406E+03 -5.72766E+03  7.82921E+03 -8.47634E+03  3.56768E+03 -8.59363E+03 -3.12636E+03
 -4.96562E+03 -9.98634E+03  2.72662E+03 -1.15681E+04  9.93521E+03 -7.53795E+03  1.11260E+04  2.18215E+03
  6.82732E+03  8.74415E+03 -6.51099E+02  1.10080E+04 -7.87754E+03  5.95018E+03 -8.39364E+03 -7.23505E+02
 -7.91092E+03 -7.44810E+03 -1.49450E+03 -8.08455E+03  4.16983E+03 -6.70521E+03  4.91548E+03 -3.02561E+03
  3.64421E+03  9.51764E+02 -3.37070E+02  1.75952E+03 -8.61254E+01 -1.55781E+03  1.44238E+03 -4.18456E+03
  6.82079E+03 -2.52812E+03  9.86994E+03  1.01637E+03  9.68827E+03  6.32187E+03  7.30846E+03  1.31450E+04
 -2.73400E+03  1.49616E+04 -1.25767E+04  1.11447E+04 -1.64503E+04  1.74033E+03 -1.30536E+04 -5.14963E+03
 -6.57041E+03 -1.09391E+04 -6.85694E+02 -9.17378E+03  3.19868E+03 -4.99038E+03  3.21577E+03 -3.56041E+03
  2.50116E+03 -2.14323E+03  3.29845E+03 -3.21010E+03  4.20282E+03 -2.23607E+03  5.39658E+03 -4.54808E+02
  7.04774E+03  2.16356E+03  2.76779E+03  6.02556E+03 -1.48609E+03  6.28353E+03 -7.55646E+03  5.18359E+03
 -8.69535E+03 -1.29575E+03 -5.11487E+03 -6.17048E+03 -2.38072E+02 -9.24517E+03  5.28972E+03 -9.44127E+03
  9.53960E+03 -5.50578E+03  1.20847E+04  1.16546E+03  8.10260E+03  8.09597E+03  1.64344E+03  1.07845E+04
 -4.25858E+03  9.60165E+03 -6.54118E+03  3.45186E+03 -4.09086E+03 -1.30663E+03 -1.25168E+03 -1.02482E+03
 -6.49930E+02  4.18031E+02 -1.70785E+03  2.34780E+03 -4.07720E+03  1.66552E+03 -6.46145E+03 -7.04957E+02
 -4.00295E+03 -6.74651E+03  4.10314E+02 -8.41503E+03  5.44162E+03 -8.13510E+03  8.11864E+03 -2.39795E+03
  8.52010E+03  4.04114E+03  3.76277E+03  7.21019E+03 -1.46167E+03  8.82918E+03 -5.85279E+03  5.11042E+03
 -7.74992E+03  5.40817E+02 -6.42325E+03 -5.21012E+03 -7.61625E+02 -7.06959E+03  4.07492E+03 -5.39855E+03
  5.50170E+03 -1.88960E+03  3.57585E+03  1.12036E+03  1.25648E+03  2.87300E+03  1.01581E+03  1.10190E+03
  1.86111E+03  7.45770E+02  2.38453E+03  1.37169E+03  2.77450E+03  3.37975E+03  2.48615E+03  4.31614E+03
 -1.70005E+03  6.26548E+03 -5.72581E+03  7.20266E+03 -8.11861E+03  2.15560E+03 -8.81917E+03 -2.33566E+03
 -3.91769E+03 -8.07545E+03  1.38101E+03 -9.23942E+03  4.74194E+03 -5.57415E+03  6.94599E+03 -1.63274E+03
  5.36343E+03  3.49050E+03  1.13568E+03  4.80950E+03 -2.15340E+03  3.09298E+03 -3.20505E+03 -5.30423E+02
 -1.36414E+03 -3.56288E+03  2.00803E+03 -3.51209E+03  3.27968E+03 -1.82214E+03  3.46638E+03  8.40394E+02
  1.71950E+03  1.55514E+03  1.00243E+03  1.18239E+03 -6.67190E+02  1.16967E+03  1.59629E+03 -1.42056E+02
  7.21992E+02 -4.12470E+02  3.18786E+03  1.54192E+03  1.36168E+03  4.54772E+03 -8.27718E+02  5.88660E+03
 -3.69125E+03  3.45143E+03 -4.81285E+03  9.87654E+02 -4.78805E+03 -1.93277E+03 -1.21848E+03 -2.95156E+03
  7.04841E+02 -3.09475E+03  1.94417E+03 -1.41535E+03  1.52311E+03  1.76484E+03 -6.32964E+02  2.90420E+03
 -3.45517E+03  1.61248E+03 -3.59907E+03 -2.17889E+03 -2.01880E+03 -4.65493E+03  4.76476E+02 -4.15721E+03
  2.25285E+03 -2.17669E+03  2.66573E+03 -9.71443E+01  2.93308E+03  7.91360E+02  3.73965E+02  2.41018E+03
 -1.23616E+03  2.84363E+02 -2.10269E+03 -1.32849E+03  9.12497E+02 -3.13052E+03  4.00437E+03 -2.62983E+03
  4.14306E+03  4.39295E+02  5.15306E+03  2.99355E+03  1.87497E+03  4.93198E+03 -1.52719E+03  4.67867E+03
 -4.14519E+03  1.60265E+03 -4.04315E+03 -6.81518E+02 -2.27908E+03 -3.21671E+03  9.40882E+02 -2.71252E+03
  3.72039E+03 -1.47100E+03  1.98630E+03  1.59415E+03  5.78171E+02  2.99364E+03 -3.96367E+02  2.65200E+03
 -1.10603E+03  1.81302E+03 -1.25411E+03  3.87257E+02 -4.10363E+02  5.67552E+02 -1.14660E+03  1.19945E+03
 -1.18628E+03  2.11010E+03 -3.92202E+03  1.71363E+03 -4.67271E+03  2.93273E+02 -5.99963E+03 -3.15888E+03
 -2.52164E+03 -6.12111E+03  1.14956E+03 -7.16025E+03  4.27809E+03 -5.77082E+03  6.79292E+03 -2.21716E+03
  6.40589E+03  9.88881E+02  3.83040E+03  4.44849E+03 -1.40873E+01  4.72758E+03 -1.76323E+03  3.64380E+03
 -2.50543E+03  1.22527E+03 -1.50464E+03 -5.23297E+02 -6.59185E+02 -2.10845E+02 -8.29513E+02 -3.45743E+01
 -1.31281E+03 -2.14472E+02 -1.44120E+03 -2.50011E+02 -4.20197E+01 -1.06467E+03 -1.85134E+02 -1.98225E+03
  2.45126E+03 -1.40289E+03  2.83750E+03  2.75212E+02  3.14512E+03  2.50805E+03  4.14276E+02  4.76259E+03
 -2.46293E+03  5.88067E+03 -5.00741E+03  3.42852E+03 -5.39393E+03 -4.35777E+02 -4.10609E+03 -3.35674E+03
 -1.95393E+03 -4.90057E+03  9.94869E+02 -4.12988E+03  2.90137E+03 -2.47451E+03  2.90337E+03  2.40822E+02
  2.04525E+03  1.65804E+03  1.12722E+02  1.62510E+03 -8.15112E+02 -1.18250E+02 -2.30902E+02 -1.01122E+03
  1.55893E+03 -4.50817E+02  1.99459E+03  8.12139E+02  1.18664E+03  1.83585E+03  4.41487E+02  2.39131E+03
 -2.10424E+03  2.17900E+03 -2.74238E+03  5.84572E+02 -2.96827E+03 -1.56548E+03 -3.02166E+02 -3.59195E+03
  1.93606E+03 -2.81618E+03  3.12736E+03 -7.72509E+02  3.37774E+03  2.34162E+02  1.88941E+03  2.76301E+03
  3.36675E+02  3.00004E+03 -1.17201E+03  2.23737E+03 -1.86784E+03  1.50026E+03 -1.48554E+03  3.90481E+02
 -6.38698E+02  3.66662E+01 -1.12713E+03  3.03924E+02 -1.77997E+03  6.15451E+02 -2.27214E+03 -6.20943E+02
 -2.43565E+03 -1.23547E+03 -4.97714E+02 -2.80243E+03  1.46945E+03 -3.56731E+03  2.74139E+03 -1.49028E+03
  2.76218E+03  4.92071E+02  9.20813E+02  1.88377E+03 -6.58310E+02  2.85947E+03 -2.21755E+03  2.01636E+03
