 $NMID ID='MM_0lb_SNR800_11hz_g55_89.RAW', FMTDAT='(8E13.5)'
 TRAMP=1., VOLUME=1. $END
  3.09814E+05  3.36778E+02  3.38070E+05  2.50576E+05  8.49362E+04  3.38553E+05 -1.32469E+05  2.51588E+05
 -1.90771E+05  8.37979E+04 -1.12383E+05 -3.23061E+04  5.52144E+02 -5.05814E+04  5.36023E+04 -7.59931E+02
  3.54497E+04  5.30753E+04 -1.66180E+04  7.60771E+04 -6.15602E+04  6.40100E+04 -8.50706E+04  3.20698E+04
 -8.20288E+04 -1.15072E+04 -5.81531E+04 -5.22604E+04 -1.50903E+04 -7.06545E+04  2.81868E+04 -4.64117E+04
  4.08405E+04  3.98535E+03  1.66441E+04  4.82832E+04 -3.44715E+04  4.76493E+04 -6.75337E+04 -1.37542E+01
 -5.44672E+04 -5.72269E+04 -7.20697E+03 -7.85080E+04  3.44474E+04 -5.59871E+04  4.92132E+04 -1.80704E+04
  4.45939E+04  1.16345E+04  3.28122E+04  2.65390E+04  1.58882E+04  3.02975E+04 -5.74611E+03  2.76825E+04
 -2.24718E+04  1.16820E+04 -1.82556E+04 -5.54766E+03  6.70611E+03 -7.47454E+03  2.33129E+04  1.32311E+04
  7.21193E+03  3.70751E+04 -3.32509E+04  3.68756E+04 -6.53971E+04  2.01791E+03 -5.83581E+04 -4.40891E+04
 -1.25358E+04 -6.54014E+04  4.11225E+04 -4.70741E+04  6.06242E+04 -2.72278E+03  3.61713E+04  3.34927E+04
 -5.79464E+03  3.85052E+04 -3.13565E+04  1.80247E+04 -3.25796E+04 -3.82190E+03 -1.84388E+04 -1.14485E+04
 -8.83898E+03 -1.48396E+04 -5.91897E+02 -1.89331E+04  7.93985E+03 -2.36402E+04  1.62029E+04 -1.29216E+04
  1.09500E+04  6.20181E+03 -1.01614E+04  1.26949E+04 -2.28534E+04 -6.23230E+03 -8.34132E+03 -3.66216E+04
  2.46662E+04 -4.60317E+04  5.11601E+04 -2.07669E+04  4.75496E+04  2.02711E+04  1.70435E+04  4.64292E+04
 -1.66424E+04  3.57255E+04 -2.72267E+04  2.38356E+03 -1.10505E+04 -2.90985E+04  2.12872E+04 -3.58700E+04
  4.37639E+04 -1.08740E+04  3.92025E+04  2.46181E+04  2.04037E+04  4.97872E+04 -8.08404E+03  5.42581E+04
 -3.44652E+04  3.70842E+04 -4.56279E+04  1.05649E+04 -4.57263E+04 -1.82680E+04 -2.53581E+04 -4.09074E+04
  7.89105E+03 -4.07690E+04  3.35551E+04 -1.62875E+04  3.10056E+04  1.14838E+04  4.68040E+03  2.04486E+04
 -1.35560E+04  9.55279E+03 -1.10523E+04 -7.08719E+03  5.93650E+03 -1.10685E+04  1.81301E+04  5.64430E+03
  1.46405E+04  2.24432E+04 -5.41827E+03  2.65869E+04 -2.32052E+04  1.33142E+04 -3.05287E+04 -3.11327E+03
 -2.38168E+04 -1.82746E+04 -1.05671E+04 -2.39902E+04  4.12174E+03 -2.40848E+04  1.84596E+04 -2.15687E+04
  3.04884E+04 -1.37774E+04  3.60395E+04  4.31350E+03  2.62229E+04  2.30710E+04  4.39614E+03  3.98866E+04
 -1.91725E+04  3.29581E+04 -2.99378E+04  1.15434E+04 -2.18305E+04 -1.05692E+04 -4.80786E+03 -1.27853E+04
  9.62086E+02 -1.53996E+03 -6.61562E+03  8.29412E+03 -1.92475E+04  5.07911E+03 -1.91903E+04 -8.70082E+03
 -1.13521E+04 -2.21868E+04  5.54552E+03 -2.63183E+04  1.75923E+04 -1.91431E+04  2.15931E+04 -1.47345E+03
  1.36454E+04  1.50477E+04 -1.30545E+03  2.20891E+04 -1.59607E+04  1.26865E+04 -2.22216E+04 -4.53127E+03
 -1.64476E+04 -1.97605E+04 -2.33903E+03 -2.65951E+04  1.22682E+04 -2.23135E+04  2.19118E+04 -1.14245E+04
  2.08333E+04 -3.76095E+02  1.53377E+04  4.88633E+03  8.11247E+03  1.39639E+03  1.14916E+04 -1.86321E+03
  2.08484E+04  2.84535E+03  2.33434E+04  1.73431E+04  1.59334E+04  3.52519E+04 -2.98561E+03  4.11146E+04
 -2.32773E+04  3.40458E+04 -3.83014E+04  1.74646E+04 -4.10346E+04 -2.84957E+03 -3.35509E+04 -2.40862E+04
 -1.32334E+04 -3.41211E+04  1.16682E+04 -3.00297E+04  2.58802E+04 -1.43684E+04  2.26763E+04  6.73648E+03
  7.91952E+03  1.71367E+04 -1.07361E+04  1.48069E+04 -1.85517E+04  2.91241E+03 -1.44911E+04 -1.18886E+04
 -6.95896E+02 -1.77303E+04  9.82319E+03 -1.32244E+04  1.22838E+04 -1.30494E+03  3.15811E+03  8.07216E+03
 -8.10135E+03  3.53619E+03 -8.50315E+03 -6.63654E+03 -1.17380E+03 -1.66682E+04  1.15305E+04 -1.82252E+04
  2.10658E+04 -1.04400E+04  2.30378E+04  3.26918E+03  2.07503E+04  1.65298E+04  9.19506E+03  2.69733E+04
 -4.58821E+03  2.82371E+04 -1.82926E+04  1.79519E+04 -2.02345E+04  3.53395E+03 -1.36983E+04 -5.09053E+03
 -6.36531E+03 -6.44646E+03 -8.77191E+02  4.27866E+02 -2.76078E+03  2.84418E+03 -6.73469E+03  5.08738E+03
 -1.32451E+04 -9.69584E+02 -1.34709E+04 -1.12400E+04 -5.71589E+03 -1.75280E+04  5.77760E+03 -1.43237E+04
  1.14752E+04 -6.10791E+03  7.85314E+03  3.64528E+03 -2.14056E+02  5.39585E+03 -6.88600E+03 -2.26222E+02
 -6.92801E+03 -8.94021E+03 -8.73173E+02 -1.37200E+04  7.95746E+03 -1.43011E+04  1.78993E+04 -7.93868E+03
  2.13071E+04  1.84507E+03  1.56523E+04  1.28156E+04  3.06640E+03  1.71157E+04 -8.61888E+03  1.41739E+04
 -1.12682E+04  3.92192E+03 -6.21196E+03 -3.04097E+03  2.28823E+03 -3.84654E+03  7.40512E+03 -8.43622E+02
  6.97427E+03  6.07212E+03  1.39746E+03  1.13990E+04 -8.26017E+03  1.09709E+04 -1.38119E+04  2.97221E+03
 -9.36619E+03 -7.31381E+03 -9.66607E+01 -1.19985E+04  7.74619E+03 -6.14957E+03  8.22069E+03  2.43116E+03
  1.72771E+03  8.53488E+03 -7.51298E+03  1.00538E+04 -1.16115E+04  4.52649E+03 -1.20587E+04 -4.75673E+03
 -6.57410E+03 -1.36557E+04  3.12158E+03 -1.60028E+04  1.35828E+04 -9.37777E+03  1.48454E+04  2.45264E+03
  8.81746E+03  1.16915E+04 -1.09205E+03  1.40278E+04 -1.00045E+04  8.06899E+03 -1.11631E+04 -1.12480E+03
 -9.60031E+03 -9.52165E+03 -1.81976E+03 -1.04168E+04  5.21677E+03 -8.45222E+03  6.90419E+03 -2.81923E+03
  4.50090E+03  1.49805E+03 -9.95291E+02  1.66496E+03 -3.70767E+02 -2.27438E+03  2.17677E+03 -5.85081E+03
  9.91499E+03 -3.88813E+03  1.38323E+04  1.47888E+03  1.33172E+04  9.26419E+03  9.09934E+03  1.77263E+04
 -4.34128E+03  2.02282E+04 -1.70485E+04  1.52732E+04 -2.23322E+04  2.72937E+03 -1.76285E+04 -7.85869E+03
 -9.15785E+03 -1.47774E+04 -2.27057E+02 -1.29540E+04  4.70407E+03 -6.75701E+03  4.01502E+03 -4.64243E+03
  3.25912E+03 -3.04869E+03  3.41226E+03 -3.32116E+03  5.67465E+03 -3.00046E+03  7.10640E+03 -1.38003E+03
  9.28324E+03  2.05404E+03  4.47225E+03  7.94668E+03 -2.30763E+03  9.25292E+03 -9.47046E+03  7.51754E+03
 -1.24593E+04 -1.24476E+03 -7.42761E+03 -8.62278E+03 -7.73681E+02 -1.33432E+04  7.70223E+03 -1.31194E+04
  1.37087E+04 -7.55811E+03  1.61872E+04  2.20745E+03  1.18730E+04  1.18174E+04  1.88269E+03  1.49916E+04
 -6.06477E+03  1.20897E+04 -8.93374E+03  4.19395E+03 -5.93277E+03 -1.55194E+03 -2.63111E+03 -1.69220E+03
 -1.27536E+03 -4.38580E+01 -2.24057E+03  2.90870E+03 -5.20848E+03  2.03717E+03 -8.60120E+03 -1.55791E+03
 -5.76248E+03 -8.41568E+03 -2.15939E+01 -1.21328E+04  7.54769E+03 -1.11535E+04  1.15781E+04 -3.61865E+03
  1.19392E+04  5.77884E+03  5.27746E+03  1.07702E+04 -2.44958E+03  1.21851E+04 -8.41024E+03  7.45811E+03
 -1.11357E+04  7.28633E+02 -8.78034E+03 -7.41867E+03 -9.56200E+02 -1.00732E+04  4.59788E+03 -7.64274E+03
  7.61494E+03 -2.72628E+03  5.43117E+03  2.03178E+03  1.53467E+03  3.46059E+03  1.44674E+03  1.54995E+03
  2.56259E+03  1.27448E+03  3.05771E+03  1.70013E+03  3.91250E+03  4.37226E+03  3.31639E+03  6.55403E+03
 -2.37952E+03  9.43080E+03 -8.43018E+03  9.74370E+03 -1.21869E+04  2.67286E+03 -1.26834E+04 -5.00240E+03
 -5.78185E+03 -1.22412E+04  1.93718E+03 -1.38269E+04  7.22534E+03 -8.48542E+03  1.00417E+04 -1.94039E+03
  7.60868E+03  4.55000E+03  1.90673E+03  6.88314E+03 -3.21404E+03  4.24668E+03 -4.92485E+03 -4.38073E+02
 -2.66666E+03 -4.93279E+03  2.98648E+03 -5.30561E+03  5.21535E+03 -2.58187E+03  4.66114E+03  1.25748E+03
  2.87106E+03  2.32570E+03  8.71846E+02  1.71225E+03 -3.18297E+02  1.32713E+03  1.65271E+03 -6.82655E+02
  1.60059E+03 -5.69012E+02  5.29523E+03  1.83788E+03  2.48482E+03  6.54168E+03 -1.12264E+03  8.61403E+03
 -5.94500E+03  5.28537E+03 -7.62220E+03  1.33884E+03 -6.86823E+03 -2.62200E+03 -2.70964E+03 -5.00370E+03
  5.97850E+02 -4.95813E+03  2.93751E+03 -2.30136E+03  2.63242E+03  2.15176E+03 -1.41679E+03  3.80427E+03
 -4.77243E+03  2.59951E+03 -5.40634E+03 -3.09359E+03 -3.51589E+03 -6.37841E+03  8.60897E+02 -6.81364E+03
  4.05679E+03 -3.49426E+03  4.54393E+03 -3.41541E+02  4.15852E+03  1.57611E+03  4.85836E+02  3.33992E+03
 -2.31786E+03  1.04357E+03 -3.35089E+03 -2.55889E+03  1.18177E+03 -5.06060E+03  5.14916E+03 -3.97205E+03
  7.10429E+03  2.69439E+02  7.28808E+03  4.76006E+03  2.52571E+03  7.94237E+03 -2.89154E+03  7.02426E+03
 -6.27906E+03  2.99880E+03 -6.49397E+03 -9.54404E+02 -3.48674E+03 -4.87423E+03  8.66551E+02 -4.19640E+03
  4.49585E+03 -2.04773E+03  3.36639E+03  2.19823E+03  1.30115E+03  3.86795E+03 -5.78735E+02  3.62167E+03
 -2.30952E+03  2.69259E+03 -1.58309E+03  8.31768E+02 -9.18949E+02  1.02565E+03 -1.21276E+03  1.61060E+03
 -1.91078E+03  2.81817E+03 -5.24549E+03  2.49084E+03 -7.09498E+03  1.83555E+02 -8.53317E+03 -4.96251E+03
 -4.40171E+03 -9.97867E+03  1.89022E+03 -1.11508E+04  6.95772E+03 -9.00039E+03  1.10296E+04 -3.61819E+03
  1.00511E+04  1.78066E+03  6.14600E+03  7.01084E+03 -8.64343E+01  7.59911E+03 -2.96149E+03  5.55045E+03
 -4.47975E+03  2.11130E+03 -2.58096E+03 -9.42290E+02 -5.46599E+02 -6.05606E+02 -5.99834E+02 -2.72469E+02
 -1.40359E+03 -3.97726E+00 -1.92127E+03 -6.20122E+00 -4.73174E+02 -1.76990E+03  4.91669E+01 -2.61142E+03
  3.29587E+03 -2.47769E+03  4.41981E+03 -2.52849E+02  5.28033E+03  3.89486E+03  1.05769E+03  7.40214E+03
 -3.70391E+03  9.12167E+03 -8.06113E+03  5.03977E+03 -8.96090E+03 -5.12778E+02 -6.57930E+03 -5.47936E+03
 -2.80721E+03 -7.51402E+03  2.19697E+03 -6.93247E+03  4.65361E+03 -3.68940E+03  4.55319E+03  1.23782E+02
  2.71396E+03  2.06762E+03  3.08515E+02  1.87793E+03 -1.71667E+03 -5.60506E+02  5.51647E+02 -1.68971E+03
  2.24178E+03 -8.46460E+02  2.87737E+03  1.18981E+03  1.59486E+03  2.62982E+03  3.06445E+02  3.74975E+03
 -2.97419E+03  3.38503E+03 -4.98895E+03  6.38650E+02 -4.55861E+03 -3.36831E+03 -6.81940E+02 -5.82395E+03
  3.35083E+03 -5.15323E+03  5.24012E+03 -1.49616E+03  5.49350E+03  1.11676E+03  3.15627E+03  4.73127E+03
  7.33905E+02  4.86794E+03 -1.66718E+03  3.93195E+03 -3.15242E+03  2.29418E+03 -2.57611E+03  1.39997E+02
 -1.30544E+03  8.83452E+01 -1.61262E+03  7.64052E+02 -2.04893E+03  1.22086E+03 -3.51771E+03 -7.24222E+02
 -3.50516E+03 -1.76209E+03 -1.13031E+03 -4.90712E+03  2.28947E+03 -5.35445E+03  3.96790E+03 -2.56897E+03
  4.78048E+03  2.34466E+02  2.23679E+03  3.37647E+03 -1.27792E+02  4.50260E+03 -3.59667E+03  3.05103E+03
