 $NMID ID='MM_0lb_SNR800_18hz_g50_31.RAW', FMTDAT='(8E13.5)'
 TRAMP=1., VOLUME=1. $END
  3.09733E+05  3.34490E+02  3.37223E+05  2.50416E+05  8.42490E+04  3.37528E+05 -1.32694E+05  2.50522E+05
 -1.89736E+05  8.25114E+04 -1.11176E+05 -3.29156E+04  1.43137E+03 -5.05065E+04  5.36978E+04  6.26871E+01
  3.48096E+04  5.27804E+04 -1.68301E+04  7.51776E+04 -6.04258E+04  6.29211E+04 -8.32356E+04  3.20001E+04
 -7.99457E+04 -1.11900E+04 -5.64322E+04 -5.03857E+04 -1.49308E+04 -6.84473E+04  2.71679E+04 -4.52740E+04
  3.95075E+04  4.08028E+03  1.55475E+04  4.72820E+04 -3.41309E+04  4.63581E+04 -6.58595E+04 -6.17981E+02
 -5.22127E+04 -5.60821E+04 -6.39823E+03 -7.56240E+04  3.33726E+04 -5.36516E+04  4.66410E+04 -1.65283E+04
  4.21052E+04  1.10195E+04  3.08509E+04  2.48078E+04  1.56649E+04  2.82810E+04 -4.57195E+03  2.68647E+04
 -2.19971E+04  1.28449E+04 -1.87990E+04 -4.17029E+03  4.56860E+03 -7.54014E+03  2.12559E+04  1.10516E+04
  7.36772E+03  3.35390E+04 -3.08082E+04  3.44470E+04 -6.15222E+04  2.18567E+03 -5.58445E+04 -4.17315E+04
 -1.23337E+04 -6.13299E+04  3.86780E+04 -4.38380E+04  5.60917E+04 -1.88851E+03  3.23482E+04  3.08707E+04
 -6.76945E+03  3.35678E+04 -2.87934E+04  1.40077E+04 -2.83162E+04 -5.14451E+03 -1.49104E+04 -1.03600E+04
 -7.65858E+03 -1.21964E+04 -1.05941E+03 -1.68754E+04  6.84323E+03 -2.28079E+04  1.50171E+04 -1.38056E+04
  1.17643E+04  4.67167E+03 -6.59394E+03  1.28882E+04 -1.96690E+04 -2.94502E+03 -7.86442E+03 -3.12354E+04
  2.10756E+04 -4.10769E+04  4.55512E+04 -1.87581E+04  4.27973E+04  1.84958E+04  1.43175E+04  4.23692E+04
 -1.54674E+04  3.15393E+04 -2.38116E+04  1.47775E+03 -8.66848E+03 -2.66614E+04  2.09484E+04 -3.19845E+04
  3.87843E+04 -7.59056E+03  3.23744E+04  2.29848E+04  1.58929E+04  4.33732E+04 -7.79600E+03  4.63223E+04
 -2.90867E+04  3.05508E+04 -3.83892E+04  8.45487E+03 -3.91814E+04 -1.54246E+04 -2.17420E+04 -3.50105E+04
  6.87710E+03 -3.49671E+04  2.93964E+04 -1.30179E+04  2.75864E+04  1.05130E+04  3.02762E+03  1.79752E+04
 -1.30895E+04  7.54017E+03 -9.61539E+03 -7.63828E+03  6.07673E+03 -1.02386E+04  1.74574E+04  6.41173E+03
  1.25343E+04  2.18085E+04 -6.65374E+03  2.40389E+04 -2.16398E+04  9.69452E+03 -2.55497E+04 -5.86339E+03
 -1.75289E+04 -1.66580E+04 -5.95016E+03 -1.75040E+04  3.78790E+03 -1.55621E+04  1.32083E+04 -1.51815E+04
  2.23151E+04 -1.17625E+04  2.89879E+04  1.60580E+03  2.17371E+04  1.71587E+04  4.05796E+03  3.33037E+04
 -1.63990E+04  2.83100E+04 -2.61286E+04  9.78997E+03 -1.97919E+04 -1.04532E+04 -4.06006E+03 -1.39804E+04
  2.60590E+03 -3.68112E+03 -2.89118E+03  5.35222E+03 -1.34123E+04  5.50932E+03 -1.38488E+04 -5.25866E+03
 -9.07957E+03 -1.62036E+04  4.61332E+03 -2.01253E+04  1.29444E+04 -1.45726E+04  1.54991E+04 -1.48289E+03
  9.22477E+03  1.11608E+04 -8.95775E+02  1.63494E+04 -1.06478E+04  9.31260E+03 -1.61934E+04 -3.69368E+03
 -1.19101E+04 -1.46006E+04 -1.22196E+03 -1.96959E+04  8.79088E+03 -1.61106E+04  1.66510E+04 -7.52268E+03
  1.49213E+04  5.53878E+02  1.09711E+04  4.21421E+03  5.13250E+03  9.04070E+02  7.77121E+03 -1.34733E+03
  1.45463E+04  2.49673E+03  1.55199E+04  1.33607E+04  9.70681E+03  2.57856E+04 -3.05942E+03  2.76870E+04
 -1.63033E+04  2.15154E+04 -2.56024E+04  1.03270E+04 -2.61846E+04 -1.69832E+03 -2.21508E+04 -1.50186E+04
 -1.01979E+04 -2.12048E+04  7.31438E+03 -2.02097E+04  1.75402E+04 -1.11163E+04  1.61016E+04  3.83911E+03
  6.68575E+03  1.19106E+04 -7.42876E+03  1.07908E+04 -1.38383E+04  2.65354E+03 -1.05452E+04 -8.31773E+03
 -3.97597E+01 -1.28273E+04  6.51811E+03 -1.00869E+04  8.01096E+03 -1.40837E+03  1.32001E+03  5.08555E+03
 -5.86526E+03  1.50705E+03 -4.08006E+03 -4.86784E+03  5.78986E+02 -1.07419E+04  7.91777E+03 -1.06923E+04
  1.29986E+04 -5.23196E+03  1.31379E+04  2.78517E+03  1.09236E+04  1.00654E+04  5.31514E+03  1.50252E+04
 -1.92038E+03  1.67172E+04 -1.04572E+04  1.06475E+04 -1.18923E+04  3.16881E+03 -8.80477E+03 -2.03687E+03
 -4.77323E+03 -3.38896E+03 -7.87970E+02  1.32631E+03 -1.86061E+03  2.01795E+03 -3.90086E+03  3.79712E+03
 -8.16014E+03 -5.25929E+02 -9.34127E+03 -7.71651E+03 -3.52113E+03 -1.19704E+04  3.76284E+03 -8.82487E+03
  7.59400E+03 -4.16060E+03  5.58085E+03  2.24092E+03  6.63103E+02  3.44838E+03 -3.74536E+03  3.88056E+02
 -3.76572E+03 -5.45982E+03 -7.53908E+02 -7.78277E+03  4.20962E+03 -8.29161E+03  1.04366E+04 -4.29567E+03
  1.24888E+04  8.01656E+02  8.99739E+03  6.55736E+03  1.62392E+03  9.57816E+03 -5.23499E+03  8.66911E+03
 -7.22317E+03  2.80639E+03 -3.75518E+03 -1.26828E+03  1.33505E+03 -1.96057E+03  4.89390E+03 -8.94404E+02
  4.33082E+03  3.51884E+03  1.05245E+03  6.95512E+03 -4.53291E+03  6.63567E+03 -8.36218E+03  1.52559E+03
 -5.38654E+03 -3.76498E+03  5.47526E+02 -7.18570E+03  3.57564E+03 -3.63303E+03  3.79734E+03  1.14578E+03
  5.78526E+02  3.60893E+03 -4.14156E+03  4.99974E+03 -5.20302E+03  2.45047E+03 -5.18858E+03 -1.45506E+03
 -3.33285E+03 -6.37795E+03  9.01541E+02 -7.94754E+03  6.48307E+03 -4.80248E+03  7.17304E+03  1.14581E+03
  4.94928E+03  5.45997E+03 -1.26059E+02  7.73130E+03 -5.74018E+03  4.32891E+03 -5.61910E+03 -5.79186E+02
 -6.13290E+03 -5.50059E+03 -1.36669E+03 -5.35066E+03  2.99967E+03 -4.78296E+03  2.91347E+03 -3.15062E+03
  2.98432E+03  2.90538E+02 -9.28457E+01  1.23207E+03  4.19726E+02  6.55420E+01  2.17768E+02 -2.13688E+03
  4.02465E+03 -7.00799E+02  5.83247E+03  1.01189E+03  5.89360E+03  3.32942E+03  5.49883E+03  7.82587E+03
 -1.02861E+03  8.99774E+03 -8.34354E+03  7.36618E+03 -1.06261E+04  1.37862E+03 -8.16713E+03 -2.58049E+03
 -4.48341E+03 -7.07917E+03 -2.49432E+02 -5.60393E+03  2.17134E+03 -2.47102E+03  1.86923E+03 -2.10147E+03
  1.35959E+03 -1.59667E+03  2.42361E+03 -2.60289E+03  3.80535E+03 -1.32225E+03  3.86292E+03  5.45014E+02
  4.54616E+03  1.14715E+03  1.38100E+03  3.77749E+03 -1.81912E+03  3.08098E+03 -4.46456E+03  2.90711E+03
 -5.32652E+03 -1.06830E+03 -2.33482E+03 -3.40383E+03  2.85618E+02 -5.31308E+03  3.36143E+03 -5.65879E+03
  5.70052E+03 -3.39757E+03  6.87161E+03  1.33325E+02  5.33356E+03  4.46631E+03  1.10060E+03  6.36137E+03
 -2.20430E+03  6.03236E+03 -3.65231E+03  2.12247E+03 -2.15226E+03 -9.95611E+02 -4.95763E+02 -5.85229E+02
 -6.41224E+02  5.66629E+02 -9.43842E+02  1.88306E+03 -2.52099E+03  1.23213E+03 -3.91158E+03 -3.66085E+02
 -1.80103E+03 -4.30566E+03  8.07258E+02 -4.95396E+03  3.24406E+03 -4.67201E+03  3.76806E+03 -1.25109E+03
  4.34294E+03  2.31612E+03  2.02540E+03  3.60849E+03 -9.89362E+02  4.96728E+03 -2.93098E+03  2.79998E+03
 -4.26966E+03  3.34851E+02 -3.47512E+03 -2.36594E+03 -2.08973E+02 -3.42442E+03  1.95368E+03 -2.77546E+03
  2.93585E+03 -1.31039E+03  1.80026E+03  4.63507E+01  6.99257E+02  1.55684E+03  6.36109E+02  4.29283E+02
  1.94783E+03  5.76775E+02  1.18338E+03  9.20219E+02  1.44155E+03  2.14306E+03  1.36350E+03  1.91915E+03
 -9.59633E+02  3.28979E+03 -2.66412E+03  4.42952E+03 -3.29137E+03  1.26281E+03 -4.42341E+03 -4.48836E+02
 -2.02917E+03 -4.11890E+03  6.99671E+02 -4.80368E+03  2.03862E+03 -2.62124E+03  3.59108E+03 -1.05239E+03
  2.52386E+03  2.10103E+03  4.96755E+02  2.42611E+03 -8.51256E+02  1.33690E+03 -1.13581E+03 -2.98750E+02
 -5.96472E+02 -1.60201E+03  1.18486E+03 -1.64731E+03  1.50726E+03 -8.70850E+02  1.18580E+03  3.70446E+02
  7.37100E+02  4.71686E+02  7.90346E+02 -3.45549E+02 -2.05735E+02  9.36418E+02  1.56231E+03 -7.92860E+01
  4.65388E+01 -3.09516E+02  1.65865E+03  6.27756E+02  3.22756E+02  2.50969E+03 -3.16814E+02  3.13655E+03
 -1.49961E+03  1.37427E+03 -2.02877E+03  6.04295E+02 -2.28927E+03 -1.02028E+03 -2.15220E+02 -1.36104E+03
  4.82355E+02 -1.03552E+03  8.45014E+02 -7.16016E+02  8.70677E+02  1.22258E+03 -6.67354E+02  1.31045E+03
 -1.68487E+03  1.07349E+03 -1.33197E+03 -1.41539E+03 -8.69913E+02 -2.37894E+03  3.10537E+01 -1.72054E+03
  3.80751E+02 -6.07932E+02  8.92292E+02  2.51061E+02  1.40754E+03 -1.95184E+02  3.64550E+02  9.19100E+02
 -6.45313E+02  1.41433E+02 -1.07557E+03 -3.51384E+02  7.01678E+02 -9.61243E+02  1.77651E+03 -8.68269E+02
  1.56592E+03  1.78519E+02  2.66208E+03  7.42938E+02  1.15412E+03  1.61495E+03 -1.26216E+02  1.96412E+03
 -1.74466E+03  2.22280E+02 -1.63546E+03  1.48545E+01 -9.53640E+02 -1.20027E+03  2.99657E+02 -9.37324E+02
  1.65792E+03 -4.34983E+02  7.41048E+02  1.20909E+03  4.04306E+02  1.47076E+03  2.74502E+02  1.39964E+03
 -4.34668E+02  1.37011E+03 -5.42377E+02  8.42687E+01  5.23541E+01  2.83443E+02 -7.63640E+02  4.16224E+02
 -5.07958E+02  1.17199E+03 -1.91319E+03  5.38653E+01 -1.83893E+03  1.83083E+02 -2.49455E+03 -9.31944E+02
 -1.39201E+03 -2.23937E+03  2.58568E+02 -2.83942E+03  9.10289E+02 -2.76036E+03  3.26631E+03 -1.14432E+03
  2.60548E+03 -8.33779E+01  1.37051E+03  1.87238E+03 -4.55219E+02  1.36344E+03 -6.42736E+02  1.57577E+03
 -1.03259E+03  1.04130E+03 -5.39078E+02 -2.73379E+02 -6.25294E+02  3.77099E+01 -6.77268E+02 -1.27614E+02
 -8.87881E+02  1.90498E+01 -6.23781E+02  1.03709E+02  3.04850E+02 -3.02794E+02 -2.49615E+02 -6.25828E+02
  1.27554E+03 -7.51373E+02  3.46666E+02  2.08663E+02  1.12635E+03  1.14504E+03 -3.66706E+02  1.72672E+03
 -1.14662E+03  2.63447E+03 -1.77974E+03  1.16806E+03 -2.03548E+03 -2.78908E+02 -1.27768E+03 -1.31191E+03
 -1.05740E+03 -1.47990E+03  3.38958E+02 -1.32964E+03  6.87824E+02 -6.31848E+02  9.14330E+02  2.71450E+02
  6.78122E+02  3.78313E+02 -3.40855E+01  6.08063E+02 -5.38995E+02 -3.15687E+01 -2.09845E+02 -3.18794E+02
  4.29502E+02  1.47478E+02  2.78332E+02  5.55387E+02  3.49333E+02  6.27053E+02  6.19313E+02  3.44601E+02
 -7.97747E+02  7.34951E+02 -4.32538E+02 -4.56251E+01 -9.95588E+02 -4.88992E+02  1.72047E+02 -1.25332E+03
  8.79059E+02 -8.38420E+02  5.91739E+02  6.85097E+01  8.91366E+02 -5.19430E+02  6.90160E+02  6.66913E+02
  4.46001E+02  3.57299E+02 -8.44623E+00  6.35300E+02 -5.65020E+02  7.59525E+02 -3.27799E+02  3.40653E+02
 -1.07089E+02 -1.67739E+02 -5.85820E+02 -8.26958E+01 -7.85750E+02  4.40977E+01 -1.13980E+03 -3.36086E+02
 -1.30934E+03  2.15062E+02 -3.19377E+02 -1.04797E+03  7.22907E+02 -1.71390E+03  7.06098E+02 -5.71382E+02
  7.56443E+02  2.54945E+02 -5.56375E+02  4.59775E+02 -1.29168E+02  5.61287E+02 -7.43772E+02  5.28250E+02
