 $NMID ID='MM_0lb_SNR800_18hz_g40_51.RAW', FMTDAT='(8E13.5)'
 TRAMP=1., VOLUME=1. $END
  3.09781E+05  5.03312E+02  3.37186E+05  2.50430E+05  8.44763E+04  3.37292E+05 -1.32197E+05  2.50242E+05
 -1.89500E+05  8.24628E+04 -1.10640E+05 -3.26707E+04  1.36960E+03 -5.03086E+04  5.41788E+04  3.24713E+02
  3.51438E+04  5.29641E+04 -1.72325E+04  7.46781E+04 -6.00437E+04  6.25144E+04 -8.28285E+04  3.13633E+04
 -7.92843E+04 -1.11870E+04 -5.61616E+04 -4.99944E+04 -1.48812E+04 -6.79480E+04  2.65980E+04 -4.46358E+04
  3.87690E+04  4.21767E+03  1.57134E+04  4.67098E+04 -3.38347E+04  4.61044E+04 -6.51758E+04 -5.24329E+02
 -5.15525E+04 -5.56608E+04 -6.41857E+03 -7.50958E+04  3.29294E+04 -5.28836E+04  4.58053E+04 -1.59740E+04
  4.12496E+04  1.08353E+04  3.03920E+04  2.40775E+04  1.58873E+04  2.80046E+04 -4.71371E+03  2.67518E+04
 -2.14947E+04  1.30272E+04 -1.92682E+04 -4.18842E+03  4.24802E+03 -7.72888E+03  2.12164E+04  1.08175E+04
  7.41371E+03  3.30066E+04 -3.04283E+04  3.38316E+04 -6.08686E+04  2.08239E+03 -5.48513E+04 -4.09034E+04
 -1.24429E+04 -6.03943E+04  3.80839E+04 -4.29750E+04  5.49586E+04 -2.09735E+03  3.15259E+04  3.02952E+04
 -6.71006E+03  3.28592E+04 -2.80803E+04  1.31624E+04 -2.74377E+04 -5.57455E+03 -1.41971E+04 -1.00821E+04
 -7.15079E+03 -1.11710E+04 -8.78217E+02 -1.63473E+04  6.61415E+03 -2.25846E+04  1.52027E+04 -1.36565E+04
  1.26971E+04  3.86337E+03 -6.17463E+03  1.29918E+04 -1.92047E+04 -2.25795E+03 -8.16022E+03 -3.00179E+04
  2.06497E+04 -4.00148E+04  4.41615E+04 -1.83696E+04  4.15753E+04  1.82973E+04  1.41669E+04  4.14780E+04
 -1.51400E+04  3.09296E+04 -2.30990E+04  9.40327E+02 -8.00018E+03 -2.61337E+04  2.01963E+04 -3.11136E+04
  3.75129E+04 -7.25075E+03  3.11364E+04  2.27578E+04  1.49607E+04  4.23898E+04 -7.64752E+03  4.45277E+04
 -2.82483E+04  2.93810E+04 -3.69409E+04  8.31118E+03 -3.78332E+04 -1.48355E+04 -2.12613E+04 -3.42534E+04
  6.97366E+03 -3.38848E+04  2.87893E+04 -1.25336E+04  2.66396E+04  1.08757E+04  2.84185E+03  1.75864E+04
 -1.30267E+04  7.37628E+03 -9.68555E+03 -7.54510E+03  6.04355E+03 -1.01540E+04  1.70918E+04  6.47594E+03
  1.20665E+04  2.17591E+04 -6.48108E+03  2.32921E+04 -2.13067E+04  8.85910E+03 -2.48420E+04 -6.19636E+03
 -1.63692E+04 -1.63138E+04 -5.39283E+03 -1.67335E+04  4.04655E+03 -1.46295E+04  1.24631E+04 -1.40605E+04
  2.08424E+04 -1.15496E+04  2.78508E+04  7.98367E+02  2.12230E+04  1.62282E+04  4.10716E+03  3.21137E+04
 -1.59683E+04  2.72628E+04 -2.59965E+04  9.50777E+03 -1.94840E+04 -1.05449E+04 -3.90525E+03 -1.40314E+04
  2.71592E+03 -4.23362E+03 -2.51476E+03  5.16220E+03 -1.28107E+04  5.19575E+03 -1.31164E+04 -4.90652E+03
 -8.33743E+03 -1.53393E+04  4.58610E+03 -1.93595E+04  1.26794E+04 -1.39314E+04  1.41806E+04 -1.39839E+03
  9.05924E+03  1.03103E+04 -7.65905E+02  1.57360E+04 -1.02119E+04  8.53484E+03 -1.48280E+04 -3.47197E+03
 -1.15428E+04 -1.40137E+04 -1.32056E+03 -1.88651E+04  8.11292E+03 -1.50755E+04  1.59136E+04 -6.99544E+03
  1.45802E+04  7.01487E+02  1.04297E+04  3.91111E+03  5.29947E+03  5.08633E+02  7.49313E+03 -1.35716E+03
  1.35559E+04  2.48450E+03  1.43026E+04  1.28006E+04  9.09219E+03  2.46845E+04 -3.04306E+03  2.61473E+04
 -1.54092E+04  1.99480E+04 -2.41919E+04  9.63131E+03 -2.45304E+04 -1.87555E+03 -2.11617E+04 -1.42202E+04
 -1.00393E+04 -2.00490E+04  6.71327E+03 -1.88735E+04  1.65040E+04 -1.09155E+04  1.56449E+04  3.52240E+03
  6.47771E+03  1.11365E+04 -7.37807E+03  1.01921E+04 -1.32917E+04  2.65675E+03 -1.01191E+04 -7.75422E+03
 -2.12224E+02 -1.20932E+04  5.94851E+03 -9.20706E+03  7.75829E+03 -1.33186E+03  1.45929E+03  4.60810E+03
 -5.55088E+03  1.21335E+03 -3.69432E+03 -4.67210E+03  8.14857E+02 -9.94826E+03  7.76096E+03 -1.00230E+04
  1.17960E+04 -4.63066E+03  1.14714E+04  2.74805E+03  1.01739E+04  9.10589E+03  4.34192E+03  1.38811E+04
 -1.47444E+03  1.58043E+04 -9.76418E+03  1.00360E+04 -1.10184E+04  2.83217E+03 -8.14763E+03 -1.77483E+03
 -4.62820E+03 -3.28113E+03 -5.94316E+02  1.65739E+03 -2.16966E+03  1.93670E+03 -3.44177E+03  3.61178E+03
 -7.98040E+03 -4.53384E+02 -8.78090E+03 -6.97942E+03 -3.71095E+03 -1.15052E+04  3.70498E+03 -8.27573E+03
  7.21773E+03 -3.67069E+03  5.39867E+03  2.24495E+03  5.13338E+02  3.09947E+03 -3.37868E+03 -4.50418E+01
 -3.68448E+03 -5.10320E+03 -7.59889E+02 -7.20786E+03  3.78362E+03 -7.75081E+03  9.65811E+03 -3.97489E+03
  1.17124E+04  5.37600E+02  8.78423E+03  6.27543E+03  1.81217E+03  8.59273E+03 -5.46517E+03  8.51471E+03
 -6.96913E+03  2.83337E+03 -3.65841E+03 -1.40328E+03  1.13637E+03 -1.90610E+03  4.76510E+03 -9.17424E+02
  4.02679E+03  3.42135E+03  1.37216E+03  6.37148E+03 -4.44002E+03  6.39006E+03 -7.86785E+03  1.81329E+03
 -4.85058E+03 -3.58179E+03  5.76070E+02 -6.70915E+03  3.63845E+03 -3.25413E+03  3.75744E+03  1.04194E+03
  2.41272E+02  3.27231E+03 -3.99966E+03  4.61646E+03 -5.15065E+03  2.19197E+03 -4.26045E+03 -1.17564E+03
 -2.65692E+03 -5.94099E+03  1.21691E+03 -7.09985E+03  6.02702E+03 -4.83177E+03  6.35131E+03  1.28716E+03
  4.71843E+03  5.35047E+03  9.39269E+00  7.55347E+03 -4.96249E+03  4.07454E+03 -5.26617E+03 -4.91867E+02
 -5.53927E+03 -5.02614E+03 -1.20583E+03 -4.95224E+03  2.45267E+03 -4.61022E+03  2.71015E+03 -2.85994E+03
  2.76258E+03  2.76301E+02 -4.98855E+01  1.34841E+03  5.76357E+02 -4.29363E+01 -3.73391E+01 -2.09175E+03
  4.15264E+03 -8.10311E+02  4.97295E+03  4.94896E+02  6.00475E+03  3.06074E+03  5.05502E+03  7.49546E+03
 -1.21838E+03  8.61487E+03 -7.86051E+03  6.69807E+03 -1.01329E+04  1.23873E+03 -7.78979E+03 -2.65170E+03
 -4.25666E+03 -6.72194E+03 -6.68315E+02 -4.99798E+03  2.28303E+03 -2.14360E+03  1.55359E+03 -2.28818E+03
  1.34941E+03 -1.68789E+03  2.07216E+03 -2.41564E+03  3.51436E+03 -1.37734E+03  3.78140E+03  4.72439E+02
  4.65987E+03  1.25566E+03  1.13082E+03  3.41034E+03 -1.63160E+03  2.76020E+03 -4.35423E+03  2.74925E+03
 -4.91134E+03 -9.51279E+02 -1.85205E+03 -3.42899E+03  2.32760E+02 -4.97891E+03  2.96744E+03 -5.52888E+03
  5.33339E+03 -3.24100E+03  6.86517E+03  1.73916E+02  4.91326E+03  4.27382E+03  7.23081E+02  6.12487E+03
 -2.42078E+03  5.92887E+03 -3.22981E+03  1.91296E+03 -2.14169E+03 -1.10277E+03 -1.50273E+02 -6.73974E+02
 -5.77834E+02  5.41372E+02 -1.05194E+03  2.00846E+03 -2.42534E+03  9.83788E+02 -4.30546E+03 -3.63637E+02
 -1.77453E+03 -4.15007E+03  6.56498E+02 -4.77545E+03  2.74802E+03 -4.50106E+03  3.54140E+03 -1.20612E+03
  4.06617E+03  2.50083E+03  1.98268E+03  3.20596E+03 -7.34952E+02  4.49092E+03 -3.02863E+03  2.83158E+03
 -3.79976E+03  8.14569E+02 -3.78654E+03 -2.47298E+03  1.37696E+01 -3.32237E+03  1.61220E+03 -2.37292E+03
  3.01448E+03 -1.44008E+03  1.92700E+03  2.14920E+02  5.49940E+02  1.89800E+03  9.28014E+02  5.64005E+02
  1.79232E+03  6.69049E+02  1.24469E+03  1.26794E+03  1.12058E+03  2.09235E+03  1.46149E+03  1.90691E+03
 -1.33929E+03  3.34671E+03 -2.63558E+03  4.11508E+03 -3.23124E+03  1.14147E+03 -4.49188E+03 -2.53596E+02
 -1.79092E+03 -3.82119E+03  5.37307E+02 -5.03963E+03  2.21610E+03 -2.78464E+03  2.86722E+03 -9.43507E+02
  2.62433E+03  1.78212E+03  2.14507E+02  2.45094E+03 -8.17856E+02  1.51525E+03 -1.25440E+03  1.70380E+02
 -5.66464E+02 -1.82856E+03  1.21636E+03 -1.56795E+03  1.46551E+03 -9.69292E+02  1.50069E+03  3.88574E+02
  8.80865E+02  3.35733E+02  8.43252E+02  1.25722E+02 -3.34976E+02  9.19351E+02  1.38486E+03 -4.88164E+01
 -7.63208E+01 -1.07950E+02  1.81738E+03  8.29074E+02 -2.61109E+01  2.21095E+03 -4.48050E+02  2.92656E+03
 -1.73603E+03  1.01624E+03 -2.07329E+03  4.83667E+02 -2.29967E+03 -7.80187E+02 -1.81409E+02 -9.32725E+02
  5.57160E+02 -1.35194E+03  1.07727E+03 -8.92178E+02  6.47149E+02  1.45320E+03 -4.92047E+02  1.01102E+03
 -1.48600E+03  1.01268E+03 -1.01090E+03 -1.28186E+03 -6.47364E+02 -2.41989E+03  8.09327E+01 -1.76655E+03
  6.05440E+02 -7.91970E+02  8.91176E+02  2.34767E+02  1.20311E+03  3.36004E+01  4.08901E+02  9.15330E+02
 -4.29906E+02 -7.23782E+01 -1.06867E+03 -3.51517E+02  2.66700E+02 -9.95831E+02  1.69386E+03 -1.09830E+03
  1.33708E+03  1.64493E+02  2.97523E+03  9.26595E+02  1.06792E+03  1.95329E+03 -1.19390E+02  2.14514E+03
 -1.83355E+03  3.87188E+02 -1.50491E+03 -3.50310E+02 -1.00352E+03 -1.62000E+03  3.36036E+02 -7.70611E+02
  1.65598E+03 -7.64280E+02  6.04892E+02  7.29222E+02 -3.19733E+01  1.45627E+03  3.18936E+02  8.59445E+02
 -4.36968E+02  1.04411E+03 -4.06938E+02  3.05727E+02 -2.24365E+02  3.28344E+02 -6.71711E+02  6.51990E+02
 -5.66654E+02  1.02780E+03 -1.95173E+03  5.83017E+02 -1.87543E+03 -1.53705E+02 -2.70846E+03 -1.05104E+03
 -1.15818E+03 -2.77782E+03  4.70637E+02 -3.17564E+03  1.42431E+03 -2.66954E+03  2.88712E+03 -1.27583E+03
  2.49316E+03  8.32055E+01  1.25325E+03  1.90017E+03 -6.25842E+02  1.46718E+03 -9.60040E+02  1.18008E+03
 -8.79074E+02  7.47263E+02 -5.41771E+02 -2.02597E+02 -5.17835E+02  2.19681E+02 -5.77453E+02  1.25153E+02
 -1.19619E+03 -6.27028E+01 -6.44881E+02  5.66004E+01  9.74726E+01 -4.61150E+02 -5.29961E+02 -9.43420E+02
  1.34409E+03 -7.07206E+02  5.90909E+02  1.46919E+02  1.17325E+03  1.34512E+03 -2.52342E+02  1.72999E+03
 -1.04922E+03  2.43911E+03 -1.69951E+03  1.55373E+03 -1.90777E+03 -2.26355E+02 -1.49093E+03 -1.56828E+03
 -8.92044E+02 -1.52121E+03  2.89498E+02 -1.45354E+03  7.09747E+02 -6.74918E+02  5.39578E+02  2.97166E+02
  6.49206E+02  5.76987E+02  7.19811E+01  2.77495E+02 -4.05511E+02 -7.93311E+01 -1.43329E+02 -3.19518E+02
  4.77076E+02  2.89715E+01  2.06227E+02  3.77902E+02  1.28410E+02  5.92820E+02  4.99117E+02  3.91495E+02
 -8.43975E+02  8.26420E+02 -6.74138E+02  7.86522E+01 -8.47932E+02 -7.32886E+02  2.69688E+00 -1.43360E+03
  3.00833E+02 -7.18248E+02  6.91173E+02 -3.20824E-01  1.10851E+03 -7.11079E+02  5.42427E+02  9.86134E+02
  2.61908E+02  7.71018E+02 -3.77217E+02  6.45893E+02 -8.20064E+02  5.45362E+02 -4.82423E+02  2.48444E+01
 -2.87219E+02 -6.30135E-01 -8.10421E+02  2.63551E+01 -6.46867E+02  3.44957E+02 -7.86544E+02 -8.76900E+01
 -1.32852E+03  1.18453E+02 -4.08518E+02 -8.49323E+02  9.77203E+02 -1.63129E+03  6.27709E+02 -4.03129E+02
  8.92466E+02  9.09319E+01 -3.97217E+02  3.50481E+02  2.37813E+02  9.87900E+02 -4.66499E+02  5.74617E+02
