 $NMID ID='MM_0lb_SNR800_16hz_g50_82.RAW', FMTDAT='(8E13.5)'
 TRAMP=1., VOLUME=1. $END
  3.09973E+05  3.12790E+02  3.37481E+05  2.50326E+05  8.41229E+04  3.37715E+05 -1.32688E+05  2.50659E+05
 -1.90002E+05  8.29625E+04 -1.11617E+05 -3.26347E+04  1.24742E+03 -5.01269E+04  5.35675E+04  1.01768E+02
  3.52865E+04  5.28502E+04 -1.66349E+04  7.54375E+04 -6.07167E+04  6.32224E+04 -8.36634E+04  3.16923E+04
 -8.05773E+04 -1.14733E+04 -5.70254E+04 -5.05883E+04 -1.52544E+04 -6.91156E+04  2.71732E+04 -4.54636E+04
  3.98059E+04  3.92102E+03  1.59868E+04  4.74071E+04 -3.41636E+04  4.68398E+04 -6.63844E+04 -4.07304E+02
 -5.30747E+04 -5.65195E+04 -6.64594E+03 -7.62666E+04  3.36066E+04 -5.41882E+04  4.72295E+04 -1.69241E+04
  4.25892E+04  1.14166E+04  3.12303E+04  2.51297E+04  1.59589E+04  2.91179E+04 -5.10254E+03  2.69712E+04
 -2.16877E+04  1.27733E+04 -1.87581E+04 -4.71642E+03  4.90140E+03 -7.48347E+03  2.21562E+04  1.17196E+04
  7.20866E+03  3.41582E+04 -3.14255E+04  3.48681E+04 -6.24545E+04  2.26668E+03 -5.68880E+04 -4.20814E+04
 -1.24551E+04 -6.24302E+04  3.90608E+04 -4.47990E+04  5.73621E+04 -2.24321E+03  3.35067E+04  3.15497E+04
 -6.13022E+03  3.52496E+04 -2.95740E+04  1.51490E+04 -2.96103E+04 -4.70373E+03 -1.60829E+04 -1.05990E+04
 -7.88184E+03 -1.24336E+04 -9.71933E+02 -1.76306E+04  7.19785E+03 -2.26679E+04  1.51894E+04 -1.34747E+04
  1.18660E+04  4.67135E+03 -7.34935E+03  1.30768E+04 -2.05851E+04 -3.52411E+03 -8.28030E+03 -3.24359E+04
  2.23006E+04 -4.23762E+04  4.67537E+04 -1.94028E+04  4.37256E+04  1.89199E+04  1.50969E+04  4.30511E+04
 -1.56054E+04  3.23939E+04 -2.46450E+04  1.62686E+03 -8.88962E+03 -2.72361E+04  2.07929E+04 -3.31570E+04
  3.97228E+04 -8.50910E+03  3.40703E+04  2.34239E+04  1.72082E+04  4.49680E+04 -7.80685E+03  4.82289E+04
 -3.02628E+04  3.24164E+04 -4.02036E+04  9.27470E+03 -4.08965E+04 -1.63248E+04 -2.26100E+04 -3.67065E+04
  7.14689E+03 -3.64275E+04  3.06512E+04 -1.39841E+04  2.86708E+04  1.09662E+04  3.95792E+03  1.87507E+04
 -1.35920E+04  8.19136E+03 -9.98321E+03 -7.69388E+03  5.90742E+03 -1.05327E+04  1.75983E+04  6.17873E+03
  1.31161E+04  2.14889E+04 -5.87885E+03  2.41651E+04 -2.16746E+04  1.05445E+04 -2.68674E+04 -5.58857E+03
 -1.91834E+04 -1.69229E+04 -7.23797E+03 -1.88324E+04  3.89961E+03 -1.77461E+04  1.44264E+04 -1.70055E+04
  2.40251E+04 -1.24827E+04  3.05416E+04  2.43099E+03  2.29061E+04  1.89483E+04  3.97360E+03  3.48059E+04
 -1.71433E+04  2.91565E+04 -2.71104E+04  9.75286E+03 -2.04584E+04 -1.00458E+04 -4.54994E+03 -1.39854E+04
  1.73748E+03 -3.14636E+03 -4.17690E+03  6.24063E+03 -1.47497E+04  5.17630E+03 -1.50639E+04 -6.32931E+03
 -9.58299E+03 -1.75224E+04  4.68808E+03 -2.15193E+04  1.40625E+04 -1.54603E+04  1.63889E+04 -1.61726E+03
  1.04666E+04  1.21733E+04 -8.64051E+02  1.76099E+04 -1.16015E+04  1.00788E+04 -1.76383E+04 -3.80667E+03
 -1.31939E+04 -1.61653E+04 -1.78868E+03 -2.11431E+04  9.83035E+03 -1.71625E+04  1.77004E+04 -8.70057E+03
  1.63876E+04  3.34151E+02  1.20301E+04  4.74117E+03  5.87219E+03  9.39881E+02  9.16552E+03 -1.28666E+03
  1.57307E+04  2.84883E+03  1.72322E+04  1.43102E+04  1.09650E+04  2.80109E+04 -2.67465E+03  3.09788E+04
 -1.83145E+04  2.44495E+04 -2.88033E+04  1.21975E+04 -2.99421E+04 -2.19182E+03 -2.49557E+04 -1.76087E+04
 -1.14052E+04 -2.43091E+04  8.44899E+03 -2.25704E+04  1.94881E+04 -1.19549E+04  1.78936E+04  4.40851E+03
  6.94558E+03  1.29380E+04 -8.02312E+03  1.15917E+04 -1.48023E+04  2.46665E+03 -1.13834E+04 -9.18260E+03
 -8.11444E+01 -1.42552E+04  7.09369E+03 -1.04492E+04  9.49801E+03 -1.48953E+03  1.78942E+03  5.72871E+03
 -6.64964E+03  1.98307E+03 -4.93407E+03 -5.07541E+03 -1.97618E+02 -1.21127E+04  8.88288E+03 -1.22622E+04
  1.46775E+04 -6.40180E+03  1.52935E+04  3.13755E+03  1.34760E+04  1.16630E+04  6.43676E+03  1.76315E+04
 -2.94135E+03  1.93616E+04 -1.19252E+04  1.19873E+04 -1.38842E+04  3.19861E+03 -9.95657E+03 -2.45918E+03
 -4.98554E+03 -4.19474E+03 -3.76396E+02  1.23525E+03 -2.24416E+03  2.58859E+03 -4.74199E+03  4.17962E+03
 -9.20103E+03 -6.52247E+02 -9.88101E+03 -8.36454E+03 -4.13409E+03 -1.33979E+04  4.01141E+03 -9.94040E+03
  8.68813E+03 -4.26983E+03  6.12412E+03  2.37289E+03  3.87949E+02  3.93995E+03 -4.53425E+03 -1.40587E+02
 -4.32931E+03 -6.06851E+03 -1.13125E+03 -9.13314E+03  5.03073E+03 -9.78480E+03  1.19815E+04 -4.94695E+03
  1.45647E+04  1.20234E+03  1.04737E+04  7.68409E+03  2.20943E+03  1.11433E+04 -6.24319E+03  9.73235E+03
 -8.09687E+03  3.14870E+03 -4.17375E+03 -1.64995E+03  1.37090E+03 -2.33338E+03  5.36846E+03 -7.39981E+02
  4.64731E+03  4.21138E+03  8.05051E+02  7.96062E+03 -5.46559E+03  7.49116E+03 -9.75290E+03  2.05204E+03
 -5.85035E+03 -4.52918E+03  1.30898E+02 -8.19907E+03  4.96849E+03 -4.04296E+03  4.77330E+03  1.55042E+03
  6.08601E+02  4.62665E+03 -5.12711E+03  6.09906E+03 -6.59878E+03  3.22438E+03 -6.65044E+03 -2.13074E+03
 -4.00574E+03 -8.05375E+03  1.65577E+03 -9.52902E+03  7.86200E+03 -6.05062E+03  8.31161E+03  1.56279E+03
  5.75120E+03  6.61835E+03 -3.14009E+02  8.84367E+03 -6.27590E+03  5.29365E+03 -6.77132E+03 -7.91893E+02
 -6.97617E+03 -6.13041E+03 -1.65118E+03 -6.39676E+03  3.19325E+03 -5.32830E+03  3.91577E+03 -3.09357E+03
  3.34243E+03  7.10772E+02 -7.70289E+01  1.54364E+03  3.85881E+02 -9.20984E+02  3.99037E+02 -2.59414E+03
  5.27798E+03 -1.54387E+03  7.71396E+03  1.00344E+03  7.51595E+03  4.55542E+03  6.49885E+03  9.91802E+03
 -1.83075E+03  1.15572E+04 -1.01633E+04  8.42416E+03 -1.29651E+04  1.66783E+03 -1.02868E+04 -3.86456E+03
 -5.36688E+03 -8.53316E+03 -3.14146E+02 -6.77547E+03  2.66607E+03 -3.15083E+03  2.42579E+03 -2.61052E+03
  1.55778E+03 -1.76377E+03  2.18527E+03 -2.69010E+03  4.09456E+03 -1.72739E+03  4.49450E+03  3.00345E+01
  5.76318E+03  8.89844E+02  1.83809E+03  4.61134E+03 -1.63117E+03  4.41197E+03 -5.90475E+03  3.96016E+03
 -6.85732E+03 -1.25932E+03 -3.54930E+03 -4.88558E+03  2.57950E+02 -6.96479E+03  4.12806E+03 -7.08459E+03
  7.01034E+03 -4.30593E+03  9.10441E+03  3.60462E+02  6.63785E+03  5.93082E+03  1.13055E+03  8.37241E+03
 -3.03196E+03  7.71373E+03 -4.57696E+03  2.51243E+03 -2.80887E+03 -1.08001E+03 -8.06253E+02 -9.62596E+02
 -8.55899E+02  5.90181E+02 -9.37270E+02  2.17349E+03 -3.08089E+03  1.51663E+03 -4.90603E+03 -5.59424E+02
 -2.40691E+03 -5.27141E+03  4.86568E+02 -6.56355E+03  3.64126E+03 -5.97497E+03  5.79526E+03 -1.75495E+03
  5.93677E+03  3.17816E+03  2.87475E+03  4.88653E+03 -1.33848E+03  6.24803E+03 -3.85224E+03  3.71913E+03
 -5.74344E+03  4.58657E+02 -4.73270E+03 -3.44962E+03 -2.82989E+02 -4.68367E+03  2.56893E+03 -3.21505E+03
  3.78040E+03 -1.72177E+03  2.49787E+03  7.45408E+02  7.28029E+02  2.16323E+03  8.91435E+02  4.91556E+02
  1.76042E+03  5.57514E+02  1.53857E+03  1.05835E+03  1.83267E+03  2.82695E+03  1.56514E+03  2.72305E+03
 -1.78115E+03  4.21398E+03 -3.54898E+03  5.11152E+03 -4.89391E+03  1.01968E+03 -6.13905E+03 -1.59810E+03
 -2.48105E+03 -5.42822E+03  6.78314E+02 -6.76791E+03  2.84766E+03 -3.99857E+03  4.49266E+03 -1.21714E+03
  3.85363E+03  2.53080E+03  5.20776E+02  3.27767E+03 -1.19952E+03  2.10632E+03 -2.06595E+03 -2.77982E+02
 -8.64961E+02 -2.07396E+03  1.65453E+03 -2.55103E+03  2.10366E+03 -1.46110E+03  2.03710E+03  5.80695E+02
  1.36074E+03  8.56071E+02  9.27195E+02  5.56420E+02 -6.14741E+02  9.70100E+02  1.63077E+03 -2.55638E+02
  2.78064E+02 -3.22058E+02  2.62600E+03  8.96521E+02  4.27499E+02  3.13613E+03 -2.79331E+02  4.45928E+03
 -2.45401E+03  1.93363E+03 -3.07449E+03  5.85891E+02 -3.11692E+03 -1.02724E+03 -6.56799E+02 -1.62215E+03
  5.05538E+02 -1.93960E+03  1.37793E+03 -9.13070E+02  1.02567E+03  1.19885E+03 -1.14961E+03  1.80183E+03
 -2.02065E+03  1.21445E+03 -1.85655E+03 -1.62869E+03 -1.02441E+03 -2.95360E+03  3.77685E+02 -2.77766E+03
  1.24197E+03 -1.29280E+03  1.53326E+03  6.39290E+01  2.17561E+03  2.48239E+02  5.91221E+02  1.74342E+03
 -7.62305E+02  2.03855E+02 -1.50383E+03 -8.05432E+02  1.03925E+03 -1.60807E+03  2.62360E+03 -1.78939E+03
  2.71313E+03  3.13294E+02  3.90033E+03  1.69210E+03  1.35543E+03  2.73116E+03 -6.65173E+02  2.95757E+03
 -2.30356E+03  6.15517E+02 -2.55390E+03 -4.30842E+02 -1.44303E+03 -2.26715E+03  2.00704E+02 -1.45557E+03
  2.23772E+03 -1.02407E+03  1.32100E+03  8.08632E+02  2.36288E+02  1.95041E+03 -4.41185E+01  1.70237E+03
 -9.25613E+02  1.79817E+03 -6.09686E+02  2.54958E+02 -3.63132E+02  4.93156E+02 -9.56358E+02  6.77537E+02
 -1.17462E+03  1.28701E+03 -2.38941E+03  5.75868E+02 -2.86600E+03  1.46770E+02 -3.37114E+03 -1.78986E+03
 -1.64187E+03 -3.89168E+03  8.16584E+02 -4.17931E+03  2.12288E+03 -3.88393E+03  4.12584E+03 -1.43642E+03
  3.95561E+03  8.60929E+01  2.13527E+03  2.43572E+03 -3.44816E+02  2.42800E+03 -1.16935E+03  2.20496E+03
 -1.92567E+03  9.14676E+02 -7.83344E+02 -4.48290E+02 -4.32482E+02  1.43316E+02 -6.22367E+02  4.33257E+01
 -1.05573E+03 -1.36587E+02 -9.44856E+02 -4.16222E+02  1.50336E+02 -8.65951E+02  2.94278E+01 -1.23846E+03
  1.60839E+03 -1.12379E+03  1.04914E+03  4.64670E+01  1.96669E+03  1.43415E+03 -2.44327E+02  2.61113E+03
 -1.29158E+03  3.40648E+03 -2.94473E+03  2.12099E+03 -3.33971E+03 -4.81871E+02 -2.04640E+03 -2.35032E+03
 -1.39145E+03 -2.41780E+03  8.01137E+02 -2.23410E+03  1.37034E+03 -8.98338E+02  1.73796E+03  7.42056E+01
  1.12900E+03  3.69656E+02 -1.43387E+01  5.54392E+02 -4.24058E+02  1.86241E+02  5.84648E+01 -2.16136E+02
  7.06938E+02 -9.11713E+01  6.95766E+02  4.30816E+02  4.31405E+02  4.80869E+02  3.29455E+02  7.01007E+02
 -9.89023E+02  1.01988E+03 -1.27473E+03  2.70334E+02 -1.28972E+03 -1.05693E+03  7.80965E+01 -2.12893E+03
  1.32599E+03 -1.24142E+03  1.51742E+03 -2.69402E+01  1.50874E+03 -2.95765E+02  9.05787E+02  1.24176E+03
  3.57120E+02  1.15251E+03 -4.76325E+02  9.57697E+02 -1.05322E+03  8.52126E+02 -6.82279E+02 -1.39306E+02
 -2.38733E+02  1.82742E+02 -7.52105E+02  1.24292E+02 -8.06996E+02  1.57219E+02 -1.17387E+03 -3.70606E+02
 -1.26991E+03 -3.83643E+01 -6.04259E+02 -1.47573E+03  7.90195E+02 -2.29653E+03  1.37009E+03 -6.29310E+02
  1.58725E+03  2.09343E+02  6.77817E+01  5.07113E+02 -2.80043E+02  1.47119E+03 -9.12603E+02  1.10241E+03
