 $NMID ID='MM_0lb_SNR800_18hz_g55_72.RAW', FMTDAT='(8E13.5)'
 TRAMP=1., VOLUME=1. $END
  3.09744E+05  4.25437E+02  3.37734E+05  2.50481E+05  8.45243E+04  3.37756E+05 -1.32296E+05  2.50597E+05
 -1.89714E+05  8.29590E+04 -1.11406E+05 -3.25927E+04  1.14703E+03 -5.01664E+04  5.37159E+04 -3.66990E+01
  3.51052E+04  5.28802E+04 -1.68175E+04  7.52215E+04 -6.04127E+04  6.31654E+04 -8.34982E+04  3.16204E+04
 -8.01628E+04 -1.12151E+04 -5.66509E+04 -5.08573E+04 -1.46713E+04 -6.90568E+04  2.70247E+04 -4.53977E+04
  3.96091E+04  3.83792E+03  1.58585E+04  4.75786E+04 -3.42067E+04  4.65690E+04 -6.58957E+04 -6.14006E+02
 -5.27242E+04 -5.65443E+04 -6.36926E+03 -7.60175E+04  3.34905E+04 -5.39363E+04  4.66304E+04 -1.66494E+04
  4.25316E+04  1.11114E+04  3.12603E+04  2.47449E+04  1.55825E+04  2.86587E+04 -5.18070E+03  2.69896E+04
 -2.17945E+04  1.24798E+04 -1.87305E+04 -4.59594E+03  5.18270E+03 -7.45901E+03  2.15121E+04  1.17690E+04
  7.33838E+03  3.43003E+04 -3.13483E+04  3.46203E+04 -6.22184E+04  2.14488E+03 -5.61207E+04 -4.17659E+04
 -1.23423E+04 -6.17310E+04  3.88357E+04 -4.41651E+04  5.64922E+04 -2.00841E+03  3.30919E+04  3.13235E+04
 -6.32269E+03  3.43825E+04 -2.92323E+04  1.46806E+04 -2.86801E+04 -4.71492E+03 -1.55829E+04 -1.05910E+04
 -7.80136E+03 -1.19165E+04 -8.06398E+02 -1.73923E+04  7.06142E+03 -2.26839E+04  1.51547E+04 -1.36628E+04
  1.17231E+04  4.61171E+03 -6.84938E+03  1.31041E+04 -2.01990E+04 -3.51525E+03 -8.09171E+03 -3.17551E+04
  2.16228E+04 -4.17898E+04  4.62070E+04 -1.90002E+04  4.34610E+04  1.88428E+04  1.46685E+04  4.26854E+04
 -1.54436E+04  3.17614E+04 -2.42007E+04  1.37457E+03 -8.74313E+03 -2.67696E+04  2.07440E+04 -3.24876E+04
  3.93894E+04 -7.78207E+03  3.29692E+04  2.31132E+04  1.66887E+04  4.39519E+04 -7.85061E+03  4.73118E+04
 -2.97879E+04  3.15538E+04 -3.91429E+04  8.79716E+03 -4.02303E+04 -1.57936E+04 -2.21873E+04 -3.58609E+04
  7.30285E+03 -3.53650E+04  2.98212E+04 -1.36881E+04  2.78145E+04  1.10970E+04  3.60139E+03  1.80459E+04
 -1.32881E+04  7.76044E+03 -9.70564E+03 -7.68366E+03  5.82416E+03 -1.02637E+04  1.73114E+04  6.36862E+03
  1.27352E+04  2.17079E+04 -6.31083E+03  2.39626E+04 -2.18655E+04  9.99224E+03 -2.64561E+04 -5.73610E+03
 -1.83066E+04 -1.67412E+04 -6.52418E+03 -1.84475E+04  3.79432E+03 -1.64477E+04  1.37271E+04 -1.58972E+04
  2.31455E+04 -1.19306E+04  2.97783E+04  1.64749E+03  2.22032E+04  1.76106E+04  4.00300E+03  3.37035E+04
 -1.68331E+04  2.85902E+04 -2.65236E+04  9.32203E+03 -2.01660E+04 -1.07332E+04 -4.04846E+03 -1.36251E+04
  2.35691E+03 -3.49427E+03 -3.39731E+03  5.72157E+03 -1.41089E+04  5.33307E+03 -1.44199E+04 -5.45776E+03
 -8.95530E+03 -1.65151E+04  4.90144E+03 -2.06901E+04  1.35144E+04 -1.45950E+04  1.57486E+04 -1.45236E+03
  9.68759E+03  1.16644E+04 -9.77222E+02  1.63664E+04 -1.13828E+04  9.24759E+03 -1.63960E+04 -3.81332E+03
 -1.25703E+04 -1.49267E+04 -1.67599E+03 -2.02946E+04  9.15173E+03 -1.64842E+04  1.69329E+04 -7.91961E+03
  1.53613E+04  6.29606E+02  1.12659E+04  4.10680E+03  5.42791E+03  7.02027E+02  8.22261E+03 -1.64944E+03
  1.50018E+04  2.38747E+03  1.61370E+04  1.32249E+04  1.01591E+04  2.64294E+04 -2.82676E+03  2.87977E+04
 -1.72094E+04  2.23386E+04 -2.67405E+04  1.12258E+04 -2.73870E+04 -1.78996E+03 -2.31069E+04 -1.57120E+04
 -1.06036E+04 -2.26486E+04  7.61167E+03 -2.09078E+04  1.82122E+04 -1.12423E+04  1.66909E+04  4.38006E+03
  6.49034E+03  1.20754E+04 -7.85648E+03  1.11399E+04 -1.41186E+04  2.61791E+03 -1.07724E+04 -8.84114E+03
 -2.33767E+01 -1.29936E+04  6.65376E+03 -9.99749E+03  8.62006E+03 -1.25686E+03  1.74159E+03  5.41366E+03
 -5.94131E+03  1.61157E+03 -4.19009E+03 -4.82238E+03  3.62649E+02 -1.12202E+04  8.37020E+03 -1.12860E+04
  1.33839E+04 -5.25309E+03  1.32126E+04  2.86531E+03  1.16796E+04  1.03933E+04  5.67664E+03  1.56135E+04
 -1.97391E+03  1.74110E+04 -1.09378E+04  1.12244E+04 -1.21443E+04  3.16064E+03 -9.24305E+03 -2.42846E+03
 -4.77114E+03 -3.61561E+03 -8.20996E+02  1.39002E+03 -2.00773E+03  2.30481E+03 -3.92898E+03  3.89004E+03
 -8.65823E+03 -3.77208E+02 -9.17308E+03 -7.71298E+03 -4.06756E+03 -1.22787E+04  3.59026E+03 -9.24656E+03
  7.67391E+03 -3.99458E+03  5.35923E+03  2.36005E+03  4.04612E+02  3.28258E+03 -3.56965E+03 -2.33504E+02
 -3.78057E+03 -5.55329E+03 -7.57837E+02 -8.23479E+03  4.46535E+03 -8.62545E+03  1.08692E+04 -4.35052E+03
  1.26638E+04  9.52948E+02  9.41717E+03  7.10048E+03  1.84443E+03  9.45423E+03 -5.62726E+03  8.73685E+03
 -7.59313E+03  2.99930E+03 -3.72048E+03 -1.37945E+03  1.44477E+03 -2.03817E+03  5.01626E+03 -8.87268E+02
  4.60990E+03  3.66651E+03  1.28217E+03  7.05866E+03 -4.64207E+03  6.63245E+03 -8.35864E+03  2.15708E+03
 -5.27955E+03 -4.18095E+03  1.66596E+02 -7.26122E+03  4.62531E+03 -3.32022E+03  3.93670E+03  1.24063E+03
  3.18585E+02  3.97394E+03 -4.56397E+03  5.14373E+03 -5.51010E+03  2.68007E+03 -5.34181E+03 -1.20079E+03
 -3.19683E+03 -6.78954E+03  1.47273E+03 -7.85811E+03  6.58941E+03 -5.02952E+03  7.12499E+03  1.29599E+03
  5.35759E+03  6.04752E+03 -1.69859E+01  8.09626E+03 -5.69936E+03  4.53519E+03 -5.67069E+03 -5.54966E+02
 -5.75611E+03 -5.65541E+03 -1.49340E+03 -5.26825E+03  2.66770E+03 -4.96477E+03  3.00679E+03 -3.12461E+03
  2.95476E+03  2.07772E+02  2.17979E+02  1.07187E+03  1.79463E+02 -6.00637E+02  4.62937E+02 -2.23087E+03
  4.15429E+03 -1.18996E+03  5.98619E+03  8.83319E+02  6.15224E+03  3.44467E+03  5.40409E+03  8.09772E+03
 -1.44180E+03  9.38799E+03 -8.60460E+03  7.09902E+03 -1.08802E+04  1.42571E+03 -8.82890E+03 -2.95142E+03
 -4.60656E+03 -6.90138E+03 -4.27588E+02 -5.56322E+03  2.34296E+03 -2.48688E+03  1.87003E+03 -2.44344E+03
  1.57082E+03 -1.56048E+03  2.12439E+03 -2.70780E+03  3.56126E+03 -1.59587E+03  4.09769E+03  5.51079E+02
  4.50345E+03  1.21173E+03  1.51898E+03  3.82441E+03 -1.88648E+03  3.11154E+03 -4.90953E+03  2.92088E+03
 -5.29109E+03 -1.25339E+03 -2.21039E+03 -3.85829E+03  6.41198E+02 -5.63498E+03  3.46715E+03 -5.88549E+03
  5.49404E+03 -3.48122E+03  7.21128E+03  9.13823E+01  5.74558E+03  4.58328E+03  1.23418E+03  6.62718E+03
 -2.31420E+03  6.18742E+03 -3.71932E+03  1.71040E+03 -2.07259E+03 -9.66788E+02 -6.53909E+02 -6.47804E+02
 -4.84377E+02  2.55872E+02 -7.82944E+02  2.01318E+03 -2.99293E+03  1.23219E+03 -4.24087E+03 -5.32831E+02
 -1.80445E+03 -4.55731E+03  7.83785E+02 -5.23130E+03  3.23515E+03 -4.39546E+03  3.74516E+03 -1.47345E+03
  4.76285E+03  2.46798E+03  2.26013E+03  3.77328E+03 -6.22386E+02  4.72744E+03 -2.99826E+03  3.05438E+03
 -4.21352E+03  4.67649E+02 -3.79337E+03 -2.56211E+03 -5.23071E+01 -3.49186E+03  1.67384E+03 -2.97825E+03
  2.88344E+03 -1.28916E+03  1.98365E+03  5.49315E+02  5.02679E+02  1.71770E+03  9.21261E+02  3.37881E+02
  1.55668E+03  6.38433E+02  1.17867E+03  9.38518E+02  1.21223E+03  2.25434E+03  1.37242E+03  2.13005E+03
 -1.48687E+03  3.05349E+03 -3.07843E+03  4.60096E+03 -3.35305E+03  1.28726E+03 -4.60584E+03 -6.66288E+02
 -1.60673E+03 -4.19195E+03  7.66185E+02 -5.14941E+03  2.04329E+03 -2.69764E+03  3.47004E+03 -1.25467E+03
  2.69185E+03  1.90929E+03  7.29267E+02  2.51691E+03 -6.42296E+02  1.54990E+03 -1.31057E+03 -1.88289E+02
 -6.26489E+02 -1.71011E+03  1.48914E+03 -1.51102E+03  1.44236E+03 -1.18607E+03  1.53860E+03  2.03835E+02
  8.94392E+02  5.06281E+02  6.03181E+02 -9.91758E+00 -2.32708E+02  9.26356E+02  1.61702E+03 -2.95730E+02
  1.39914E+02 -2.35475E+02  1.90940E+03  4.01209E+02  6.89586E+02  2.42103E+03 -2.76195E+02  3.34867E+03
 -1.87999E+03  1.28170E+03 -2.08498E+03  3.83713E+02 -2.31447E+03 -8.90643E+02 -3.75554E+02 -1.08853E+03
  1.69242E+02 -1.46256E+03  9.41162E+02 -8.98037E+02  7.74548E+02  1.28654E+03 -8.20765E+02  1.16630E+03
 -1.51469E+03  7.58647E+02 -1.23931E+03 -1.22544E+03 -8.64992E+02 -2.07429E+03  2.65950E+02 -1.86200E+03
  2.74282E+02 -7.13433E+02  1.00710E+03  4.38650E+01  1.33155E+03 -1.31310E+02  5.24124E+02  1.69974E+03
 -4.38107E+02 -2.58355E+02 -1.08178E+03 -2.39873E+02  8.27735E+02 -7.89789E+02  1.71053E+03 -8.95143E+02
  1.52862E+03  1.05020E+02  3.08497E+03  1.14919E+03  1.31743E+03  1.96397E+03 -6.54759E+02  1.72992E+03
 -1.62286E+03  2.27256E+02 -1.70177E+03 -3.75562E+02 -1.35227E+03 -1.55249E+03  2.84128E+02 -6.44499E+02
  1.47834E+03 -7.04805E+02  8.59430E+02  7.04144E+02  9.61354E+01  1.59890E+03 -5.49464E+01  9.20483E+02
 -3.59581E+02  1.42944E+03 -4.18556E+02  2.70909E+01 -8.32761E+01  2.37283E+02 -6.25121E+02  5.24502E+02
 -8.82705E+02  9.12919E+02 -2.14774E+03  4.08449E+02 -1.95014E+03  6.59946E+01 -2.64227E+03 -9.88281E+02
 -1.03332E+03 -2.58770E+03  5.07686E+02 -3.36803E+03  1.26762E+03 -2.97164E+03  2.95935E+03 -1.12154E+03
  2.83356E+03 -1.78338E+02  1.00985E+03  1.49709E+03 -4.43260E+02  1.60378E+03 -9.16469E+02  1.38725E+03
 -9.39029E+02  8.97808E+02 -4.57014E+02 -2.14003E+02 -4.58691E+02  2.16480E+02 -5.10785E+02  1.40665E+02
 -1.04152E+03 -1.33767E+02 -9.15345E+02  1.38145E+02  4.17787E+02 -5.91577E+02 -4.44317E+02 -1.05479E+03
  1.10345E+03 -6.66721E+02  4.46165E+02  3.08298E+02  1.48287E+03  1.25047E+03 -7.63322E+02  1.40391E+03
 -1.07673E+03  2.08190E+03 -1.60247E+03  1.21013E+03 -2.05948E+03 -1.91015E+02 -1.31133E+03 -1.46558E+03
 -9.99731E+02 -1.62534E+03  8.71672E+01 -1.32627E+03  4.63547E+02 -2.83539E+02  1.01879E+03  1.41268E+02
  9.26447E+02  2.36123E+02  1.13503E+01  4.80942E+02 -4.33808E+02 -2.90684E+02 -1.61778E+02 -3.13200E+02
  4.83802E+02  1.19844E+02  8.19446E+02  7.15213E+02  3.31260E+02  6.17793E+02  2.25868E+02  5.29227E+02
 -7.74723E+02  6.32229E+02 -5.60998E+02 -1.89876E+02 -7.79544E+02 -3.33322E+02  3.97443E+01 -9.93701E+02
  6.50834E+02 -1.00934E+03  6.82377E+02 -6.46827E+01  1.04444E+03 -7.36033E+02  5.99259E+02  9.43488E+02
  3.05398E+02  6.23714E+02 -3.77387E+02  5.39100E+02 -5.73870E+02  8.77720E+02 -3.27119E+02  1.71760E+02
 -1.34439E+02  9.70054E+00 -4.87680E+02 -1.06837E+02 -4.76833E+02 -1.26941E+02 -1.00558E+03 -3.28031E+02
 -6.63087E+02  5.03957E+02 -5.73707E+02 -7.61153E+02  5.56939E+02 -1.35445E+03  7.82765E+02 -2.01057E+02
  7.35481E+02  6.76325E+01 -3.83223E+02  3.03368E+02 -2.53357E+02  1.03516E+03 -2.70089E+02  8.01191E+02
