 $NMID ID='MM_0lb_SNR800_19hz_g55_25.RAW', FMTDAT='(8E13.5)'
 TRAMP=1., VOLUME=1. $END
  3.09639E+05  2.52669E+02  3.37335E+05  2.50339E+05  8.45967E+04  3.37301E+05 -1.32542E+05  2.50766E+05
 -1.90022E+05  8.25662E+04 -1.11358E+05 -3.28219E+04  1.21328E+03 -5.05075E+04  5.36280E+04 -1.52386E+02
  3.52935E+04  5.27289E+04 -1.67397E+04  7.49094E+04 -6.06358E+04  6.30521E+04 -8.34925E+04  3.17998E+04
 -8.01952E+04 -1.14186E+04 -5.65100E+04 -5.05276E+04 -1.48821E+04 -6.87525E+04  2.70920E+04 -4.50142E+04
  3.95293E+04  3.76158E+03  1.56349E+04  4.74768E+04 -3.40818E+04  4.64887E+04 -6.55960E+04 -3.98373E+02
 -5.22501E+04 -5.58863E+04 -6.43835E+03 -7.55607E+04  3.33932E+04 -5.37559E+04  4.69943E+04 -1.63673E+04
  4.23174E+04  1.10722E+04  3.11027E+04  2.48796E+04  1.58190E+04  2.88758E+04 -4.59847E+03  2.67648E+04
 -2.18934E+04  1.26108E+04 -1.88901E+04 -4.44286E+03  4.89627E+03 -7.62634E+03  2.15129E+04  1.14654E+04
  7.40088E+03  3.37340E+04 -3.07284E+04  3.44742E+04 -6.15306E+04  2.11459E+03 -5.58675E+04 -4.17727E+04
 -1.26385E+04 -6.14837E+04  3.86963E+04 -4.41101E+04  5.62694E+04 -1.93483E+03  3.25082E+04  3.11554E+04
 -6.39860E+03  3.35987E+04 -2.87537E+04  1.40088E+04 -2.82688E+04 -5.23134E+03 -1.50123E+04 -1.00997E+04
 -7.35696E+03 -1.19466E+04 -9.38067E+02 -1.67776E+04  6.83085E+03 -2.26733E+04  1.50034E+04 -1.37491E+04
  1.20214E+04  4.41896E+03 -7.17479E+03  1.32380E+04 -1.97784E+04 -2.92873E+03 -7.94436E+03 -3.11192E+04
  2.09429E+04 -4.09594E+04  4.56157E+04 -1.85674E+04  4.27026E+04  1.85134E+04  1.45984E+04  4.21815E+04
 -1.51924E+04  3.16183E+04 -2.40036E+04  1.16925E+03 -8.82366E+03 -2.67341E+04  2.06020E+04 -3.15049E+04
  3.85180E+04 -7.67463E+03  3.22335E+04  2.27668E+04  1.60378E+04  4.33453E+04 -7.95332E+03  4.63158E+04
 -2.88803E+04  3.07869E+04 -3.84033E+04  8.74441E+03 -3.89413E+04 -1.54336E+04 -2.12519E+04 -3.50895E+04
  6.74094E+03 -3.47424E+04  2.94840E+04 -1.29313E+04  2.74357E+04  1.11075E+04  3.01847E+03  1.79141E+04
 -1.32859E+04  7.72565E+03 -9.71319E+03 -7.77932E+03  5.94750E+03 -1.02872E+04  1.71769E+04  6.48365E+03
  1.25582E+04  2.18120E+04 -6.46794E+03  2.36457E+04 -2.15493E+04  9.69064E+03 -2.56751E+04 -5.79763E+03
 -1.74463E+04 -1.65636E+04 -6.10293E+03 -1.72830E+04  3.82734E+03 -1.55571E+04  1.29712E+04 -1.50763E+04
  2.21271E+04 -1.17476E+04  2.87180E+04  1.52114E+03  2.15031E+04  1.67823E+04  3.95038E+03  3.33285E+04
 -1.63707E+04  2.81138E+04 -2.59518E+04  9.80730E+03 -2.01780E+04 -1.02818E+04 -4.22793E+03 -1.39150E+04
  2.50071E+03 -4.16767E+03 -2.77276E+03  5.47128E+03 -1.34585E+04  5.25817E+03 -1.38409E+04 -4.98358E+03
 -8.78236E+03 -1.58252E+04  4.51678E+03 -1.97646E+04  1.31351E+04 -1.43767E+04  1.50742E+04 -1.40008E+03
  9.24094E+03  1.11763E+04 -6.24583E+02  1.60552E+04 -1.05745E+04  9.10026E+03 -1.60698E+04 -3.28488E+03
 -1.17253E+04 -1.45357E+04 -1.58549E+03 -1.93720E+04  8.56497E+03 -1.57859E+04  1.64960E+04 -7.52915E+03
  1.51002E+04  7.12119E+02  1.06659E+04  3.98781E+03  5.36471E+03  8.64974E+02  7.77100E+03 -1.42035E+03
  1.43102E+04  2.53377E+03  1.50755E+04  1.29070E+04  9.54644E+03  2.52741E+04 -3.08126E+03  2.72307E+04
 -1.60430E+04  2.11825E+04 -2.50360E+04  1.01490E+04 -2.56914E+04 -1.72628E+03 -2.20684E+04 -1.47194E+04
 -1.02328E+04 -2.12001E+04  7.13830E+03 -1.96215E+04  1.70693E+04 -1.11098E+04  1.61642E+04  3.74908E+03
  6.63346E+03  1.16512E+04 -7.33769E+03  1.07946E+04 -1.35642E+04  2.52010E+03 -1.05345E+04 -7.99475E+03
 -1.84702E+02 -1.25521E+04  6.48770E+03 -9.68949E+03  8.14616E+03 -1.31530E+03  1.40167E+03  5.52238E+03
 -5.80999E+03  1.35872E+03 -3.80129E+03 -4.31711E+03  6.38365E+02 -1.06214E+04  7.97511E+03 -1.03032E+04
  1.26395E+04 -4.91249E+03  1.24408E+04  2.76091E+03  1.01734E+04  9.41798E+03  5.24102E+03  1.44392E+04
 -1.67841E+03  1.63844E+04 -9.69707E+03  1.04069E+04 -1.16479E+04  3.02615E+03 -8.70759E+03 -1.82892E+03
 -4.61263E+03 -3.39234E+03 -7.19532E+02  1.35195E+03 -1.76171E+03  1.85637E+03 -3.53950E+03  3.52729E+03
 -8.28864E+03 -5.00240E+02 -8.91968E+03 -7.31312E+03 -3.49913E+03 -1.18651E+04  3.63323E+03 -8.72279E+03
  7.30547E+03 -3.93662E+03  5.36543E+03  2.27170E+03  4.86900E+02  3.15747E+03 -3.40637E+03 -2.00974E+02
 -3.63641E+03 -5.17978E+03 -7.27218E+02 -7.45517E+03  4.19438E+03 -7.95919E+03  9.88655E+03 -4.12907E+03
  1.16893E+04  5.58482E+02  9.00398E+03  6.33177E+03  1.71354E+03  8.48515E+03 -5.23076E+03  8.43468E+03
 -7.00386E+03  2.96142E+03 -3.40281E+03 -1.01601E+03  1.43332E+03 -2.11201E+03  4.57683E+03 -6.55637E+02
  4.22984E+03  3.50456E+03  1.17571E+03  6.27797E+03 -4.42886E+03  6.26791E+03 -7.92497E+03  1.83896E+03
 -4.97300E+03 -3.65381E+03  5.84730E+02 -6.79422E+03  3.68536E+03 -3.28413E+03  3.68201E+03  1.14681E+03
  5.64240E+02  3.25295E+03 -4.11833E+03  4.76108E+03 -4.80405E+03  2.24663E+03 -4.46003E+03 -1.32080E+03
 -2.86357E+03 -6.02755E+03  1.29441E+03 -6.71973E+03  5.88967E+03 -4.88139E+03  6.45326E+03  9.67427E+02
  4.71063E+03  5.20163E+03  2.20554E+02  7.45458E+03 -5.26522E+03  4.06510E+03 -5.46063E+03 -3.29534E+02
 -5.63540E+03 -5.14618E+03 -1.33026E+03 -5.01821E+03  2.77438E+03 -4.49818E+03  2.73441E+03 -2.97910E+03
  2.70441E+03  2.44320E+02 -7.97877E+01  1.34519E+03  7.48969E+02 -2.77215E+02  3.47845E+02 -1.96518E+03
  3.67661E+03 -7.08149E+02  5.15629E+03  8.78956E+02  5.48509E+03  2.88597E+03  5.43732E+03  7.33152E+03
 -1.52470E+03  8.33100E+03 -7.54901E+03  6.37921E+03 -9.77856E+03  1.17329E+03 -7.71304E+03 -2.52147E+03
 -4.27741E+03 -6.51247E+03 -7.67081E+02 -4.99504E+03  2.19599E+03 -2.25575E+03  1.61696E+03 -2.33744E+03
  1.37015E+03 -1.50366E+03  2.00056E+03 -2.14165E+03  3.68929E+03 -1.26978E+03  3.83404E+03  5.91046E+02
  4.18775E+03  9.58632E+02  1.25740E+03  3.19653E+03 -1.61401E+03  2.79170E+03 -4.50535E+03  2.47050E+03
 -4.90716E+03 -9.74463E+02 -1.57987E+03 -3.11163E+03  4.32871E+02 -4.82696E+03  3.17254E+03 -5.42103E+03
  4.91766E+03 -3.19202E+03  6.47592E+03  2.42502E+02  4.63084E+03  4.24984E+03  1.26777E+03  5.64948E+03
 -1.92444E+03  5.81997E+03 -3.08006E+03  1.98697E+03 -1.67282E+03 -9.99494E+02 -4.70355E+02 -6.14514E+02
 -5.32912E+02  4.68250E+02 -7.99958E+02  1.91943E+03 -2.74034E+03  1.07874E+03 -3.96527E+03 -3.42664E+02
 -1.48600E+03 -3.92259E+03  8.04570E+02 -4.68869E+03  2.44645E+03 -4.22730E+03  3.50637E+03 -1.11485E+03
  3.98373E+03  2.24734E+03  1.63571E+03  3.25499E+03 -7.35548E+02  4.43061E+03 -2.38297E+03  2.49190E+03
 -3.43572E+03  3.72997E+02 -3.01628E+03 -2.30892E+03 -1.14541E+02 -2.84248E+03  1.37093E+03 -2.40468E+03
  2.49154E+03 -1.14449E+03  1.48336E+03  3.05423E+02  5.21727E+02  1.35947E+03  1.14256E+03  6.26128E+02
  1.86151E+03  5.38010E+02  1.41619E+03  9.19549E+02  9.47789E+02  2.46407E+03  1.34041E+03  1.55135E+03
 -1.40458E+03  2.76560E+03 -2.21460E+03  3.81727E+03 -2.75957E+03  1.21113E+03 -3.83931E+03 -1.78069E+02
 -1.61501E+03 -3.59121E+03  4.66664E+02 -4.47103E+03  1.90434E+03 -2.11633E+03  2.92980E+03 -7.48724E+02
  2.24884E+03  1.84449E+03  5.95668E+02  2.16340E+03 -8.47840E+02  1.15333E+03 -8.78779E+02  7.77507E-01
 -6.36386E+02 -1.27155E+03  1.14050E+03 -1.39571E+03  1.35977E+03 -9.01468E+02  1.14925E+03  5.50458E+02
  8.63513E+02  2.05189E+02  5.17834E+02 -3.93350E+02 -2.01598E+00  8.95869E+02  1.65488E+03 -2.90337E+02
  4.76600E+01 -4.51300E+02  1.59594E+03  7.38222E+02  4.98697E+02  2.01217E+03 -2.25441E+02  2.97611E+03
 -1.43705E+03  1.07445E+03 -1.65468E+03  3.43141E+02 -1.99025E+03 -4.89615E+02 -4.33739E+01 -9.96086E+02
  2.15770E+02 -1.13096E+03  7.80683E+02 -6.97974E+02  6.11147E+02  1.30732E+03 -8.17434E+02  1.03245E+03
 -1.33525E+03  5.40082E+02 -7.16534E+02 -1.32619E+03 -7.64505E+02 -1.97770E+03  5.01898E+01 -1.33416E+03
  2.67825E+01 -7.22279E+02  5.01922E+02  4.16490E+02  1.28548E+03 -1.98118E+02  2.95899E+02  1.34134E+03
 -3.97677E+02 -6.69886E+01 -9.77313E+02 -2.39365E+02  7.63565E+02 -6.83216E+02  1.24033E+03 -1.05063E+03
  9.46207E+02  1.13364E+01  2.64031E+03  5.21628E+02  1.00391E+03  1.22454E+03 -3.36747E+02  1.31532E+03
 -1.34719E+03  1.60305E+02 -1.33011E+03 -6.15291E+01 -7.64315E+02 -1.15378E+03  3.05183E+02 -4.37844E+02
  1.27134E+03 -8.41254E+02  6.92515E+02  7.21751E+02  1.44267E+02  1.20045E+03  3.12104E+02  1.04331E+03
 -5.43048E+02  1.05657E+03 -1.59590E+02  3.55317E+02  5.57422E+00  1.76345E+02 -8.81724E+02  7.21693E+02
 -5.05273E+02  1.04799E+03 -1.62989E+03  5.88292E+02 -1.72568E+03  1.45991E+02 -2.42021E+03 -6.40887E+02
 -1.11791E+03 -2.07124E+03  3.44145E+02 -2.44404E+03  1.06418E+03 -2.17213E+03  2.62647E+03 -9.65954E+02
  1.96984E+03 -7.24513E+01  8.05216E+02  1.40358E+03 -5.87566E+02  1.16457E+03 -2.94943E+02  1.23494E+03
 -8.97612E+02  7.44132E+02 -7.27508E+02 -2.01609E+02 -2.26999E+02  4.95279E+02 -6.14870E+02  7.04456E+00
 -1.04168E+03  1.15027E+02 -7.16667E+02  1.57066E+02  3.23891E+02 -7.22733E+02 -2.90413E+02 -7.66749E+02
  8.85769E+02 -4.31565E+02  3.36849E+02 -7.52170E+01  8.62451E+02  9.13145E+02 -3.56189E+02  1.19426E+03
 -7.30296E+02  2.13048E+03 -1.48174E+03  9.59134E+02 -1.58462E+03 -3.00993E+02 -9.86251E+02 -1.33184E+03
 -8.21760E+02 -1.06569E+03  1.90304E+02 -9.08510E+02  6.90708E+02 -2.89214E+02  5.84144E+02  2.22179E+02
  7.74231E+02  1.14274E+02 -3.71698E+01  3.76761E+02 -1.85705E+02  2.87398E+02  8.54085E+01  6.52255E+01
  3.86255E+02  2.59745E+02 -2.30084E+01  4.66203E+02  1.38364E+02  2.44482E+02  4.24527E+02  8.44370E+01
 -3.44805E+02  4.17636E+02 -3.09678E+02  3.34479E+02 -6.92253E+02 -4.76010E+01  1.47542E+02 -8.97390E+02
  2.81325E+02 -5.80433E+02  1.90969E+02 -6.55813E+01  6.33014E+02 -5.27484E+02  4.87053E+02  6.09666E+02
  2.87522E+02  2.57375E+02 -2.29318E+00  4.35171E+02 -3.44255E+02  7.32931E+02 -7.00727E+01  1.76256E+01
  4.45532E+01 -4.04648E+02 -3.54646E+02  9.78280E+01 -3.71446E+02  9.63266E+01 -9.20618E+02  5.92817E+00
 -7.58558E+02  3.32116E+02 -4.86619E+02 -9.59748E+02  4.53576E+02 -1.13328E+03  7.70464E+02 -2.29838E+01
  6.96089E+02  3.80098E+02 -3.75475E+02 -5.25190E+01 -1.05755E+02  7.73988E+02 -1.76997E+02  4.52712E+02
