 $NMID ID='MM_0lb_SNR800_16hz_g50_59.RAW', FMTDAT='(8E13.5)'
 TRAMP=1., VOLUME=1. $END
  3.10020E+05  5.75647E+02  3.37505E+05  2.50748E+05  8.46207E+04  3.37595E+05 -1.32401E+05  2.50693E+05
 -1.90326E+05  8.27154E+04 -1.11426E+05 -3.25754E+04  9.19496E+02 -5.02254E+04  5.38703E+04 -1.98155E+02
  3.49371E+04  5.28018E+04 -1.67374E+04  7.51103E+04 -6.09055E+04  6.34312E+04 -8.39140E+04  3.19546E+04
 -8.04889E+04 -1.11798E+04 -5.69817E+04 -5.06750E+04 -1.50346E+04 -6.90353E+04  2.70407E+04 -4.53119E+04
  3.98579E+04  4.07147E+03  1.60746E+04  4.74670E+04 -3.41523E+04  4.68969E+04 -6.64172E+04 -2.88968E+02
 -5.28741E+04 -5.65444E+04 -6.39023E+03 -7.63542E+04  3.36601E+04 -5.43104E+04  4.74368E+04 -1.69799E+04
  4.28543E+04  1.13615E+04  3.15670E+04  2.51872E+04  1.56788E+04  2.90450E+04 -5.13343E+03  2.73504E+04
 -2.17051E+04  1.25954E+04 -1.89499E+04 -4.64780E+03  5.28203E+03 -7.40953E+03  2.19973E+04  1.20776E+04
  7.27158E+03  3.43543E+04 -3.14916E+04  3.46673E+04 -6.25915E+04  2.13775E+03 -5.61672E+04 -4.23587E+04
 -1.24248E+04 -6.23853E+04  3.92926E+04 -4.49340E+04  5.71004E+04 -2.20254E+03  3.34296E+04  3.15977E+04
 -6.66566E+03  3.48715E+04 -2.95488E+04  1.48640E+04 -2.92988E+04 -4.83618E+03 -1.60263E+04 -1.07327E+04
 -7.97535E+03 -1.25216E+04 -9.86807E+02 -1.74864E+04  7.52798E+03 -2.31147E+04  1.53209E+04 -1.35821E+04
  1.15990E+04  4.63266E+03 -7.57167E+03  1.30578E+04 -2.03675E+04 -3.77843E+03 -8.01670E+03 -3.24731E+04
  2.20157E+04 -4.23543E+04  4.67016E+04 -1.91220E+04  4.37195E+04  1.90906E+04  1.51051E+04  4.30398E+04
 -1.56875E+04  3.29177E+04 -2.46193E+04  1.34354E+03 -9.10486E+03 -2.73728E+04  2.04966E+04 -3.30315E+04
  3.98707E+04 -8.07015E+03  3.39429E+04  2.33275E+04  1.71531E+04  4.51115E+04 -7.56596E+03  4.83452E+04
 -3.05680E+04  3.24113E+04 -4.05483E+04  9.22583E+03 -4.11191E+04 -1.61079E+04 -2.27881E+04 -3.63777E+04
  7.18558E+03 -3.66554E+04  3.05521E+04 -1.40582E+04  2.82463E+04  1.06369E+04  3.69088E+03  1.88013E+04
 -1.32992E+04  7.80677E+03 -1.00878E+04 -7.59415E+03  5.91639E+03 -1.05872E+04  1.79476E+04  6.06589E+03
  1.30264E+04  2.23087E+04 -6.24289E+03  2.39908E+04 -2.19742E+04  1.03119E+04 -2.70394E+04 -5.70660E+03
 -1.91489E+04 -1.71104E+04 -7.20120E+03 -1.89379E+04  4.23329E+03 -1.75101E+04  1.46172E+04 -1.66040E+04
  2.44449E+04 -1.21217E+04  3.09972E+04  2.02092E+03  2.27570E+04  1.86096E+04  4.43324E+03  3.48028E+04
 -1.69599E+04  2.92750E+04 -2.71904E+04  9.97908E+03 -2.02782E+04 -1.04390E+04 -3.97023E+03 -1.37163E+04
  2.33013E+03 -3.17098E+03 -3.60857E+03  6.55789E+03 -1.50106E+04  5.12717E+03 -1.50248E+04 -5.94330E+03
 -9.31310E+03 -1.74935E+04  4.98786E+03 -2.14449E+04  1.41561E+04 -1.54295E+04  1.67581E+04 -1.59998E+03
  1.05205E+04  1.22523E+04 -8.63949E+02  1.77443E+04 -1.22524E+04  1.00987E+04 -1.72467E+04 -3.70734E+03
 -1.29722E+04 -1.60031E+04 -1.74563E+03 -2.15214E+04  9.91211E+03 -1.72985E+04  1.82254E+04 -8.38564E+03
  1.64891E+04  4.97541E+02  1.18894E+04  4.09074E+03  6.01049E+03  7.43721E+02  8.60906E+03 -1.47803E+03
  1.57612E+04  2.72799E+03  1.74368E+04  1.40879E+04  1.12429E+04  2.77290E+04 -3.19842E+03  3.07853E+04
 -1.78829E+04  2.46988E+04 -2.86901E+04  1.21291E+04 -2.99851E+04 -2.22427E+03 -2.50550E+04 -1.69392E+04
 -1.11356E+04 -2.47090E+04  8.22866E+03 -2.23443E+04  1.90941E+04 -1.20234E+04  1.79683E+04  4.54587E+03
  6.93572E+03  1.28242E+04 -8.28490E+03  1.17095E+04 -1.51853E+04  2.63999E+03 -1.13076E+04 -9.17550E+03
 -1.90718E+02 -1.40693E+04  7.28285E+03 -1.07431E+04  9.32505E+03 -1.39301E+03  1.55134E+03  5.81495E+03
 -6.14694E+03  1.74335E+03 -5.23164E+03 -4.87729E+03  1.05749E+01 -1.18994E+04  8.89831E+03 -1.25215E+04
  1.48937E+04 -6.23692E+03  1.52000E+04  2.86844E+03  1.34167E+04  1.14874E+04  6.24789E+03  1.76107E+04
 -2.41225E+03  1.94619E+04 -1.20849E+04  1.23719E+04 -1.38987E+04  3.02185E+03 -9.94844E+03 -2.94007E+03
 -5.00999E+03 -4.34670E+03 -8.49947E+02  1.46216E+03 -2.20588E+03  2.38320E+03 -4.38860E+03  4.00991E+03
 -9.24560E+03 -6.66359E+02 -1.04097E+04 -8.43000E+03 -4.16425E+03 -1.36010E+04  4.17200E+03 -1.01211E+04
  8.20866E+03 -4.43849E+03  6.02520E+03  2.88338E+03  9.06093E+01  3.88454E+03 -4.40427E+03 -3.40685E+02
 -4.48430E+03 -5.96608E+03 -7.89566E+02 -9.33599E+03  5.17703E+03 -9.90049E+03  1.23286E+04 -5.02216E+03
  1.42989E+04  8.09912E+02  1.05054E+04  7.94962E+03  2.40639E+03  1.08490E+04 -6.17350E+03  1.00015E+04
 -8.20063E+03  3.42280E+03 -4.16609E+03 -1.74972E+03  1.57121E+03 -2.08519E+03  5.30368E+03 -1.13685E+03
  5.00823E+03  4.31903E+03  1.01821E+03  7.62624E+03 -5.41607E+03  7.54615E+03 -9.56804E+03  1.74907E+03
 -6.16948E+03 -4.46902E+03  1.77630E+02 -8.07904E+03  4.79004E+03 -4.17219E+03  4.84359E+03  1.40758E+03
  7.57817E+02  4.94468E+03 -4.66568E+03  6.22007E+03 -6.60040E+03  2.62426E+03 -6.52708E+03 -1.73105E+03
 -3.86638E+03 -7.99499E+03  1.87509E+03 -9.45706E+03  8.05694E+03 -5.88502E+03  8.72992E+03  1.78099E+03
  5.91866E+03  7.10193E+03 -2.71706E+02  9.06573E+03 -6.38814E+03  4.95563E+03 -6.94478E+03 -5.24792E+02
 -7.01517E+03 -6.01885E+03 -1.50305E+03 -6.50619E+03  3.37576E+03 -5.79595E+03  3.71545E+03 -2.81691E+03
  3.26850E+03  6.55145E+02 -1.70007E+02  1.46566E+03  4.87777E+02 -9.53877E+02  4.73764E+02 -2.92262E+03
  5.41227E+03 -1.55595E+03  7.75781E+03  9.43597E+02  7.56529E+03  4.49816E+03  6.27098E+03  9.96395E+03
 -1.68694E+03  1.16470E+04 -9.96679E+03  8.49132E+03 -1.31385E+04  1.63455E+03 -1.01215E+04 -3.73704E+03
 -5.48840E+03 -8.41120E+03 -3.69248E+02 -6.91625E+03  2.77090E+03 -3.35202E+03  2.23331E+03 -2.66617E+03
  1.78092E+03 -2.03982E+03  2.73846E+03 -2.74777E+03  3.88147E+03 -1.43196E+03  4.50540E+03 -1.99280E+01
  5.58583E+03  1.30226E+03  2.01776E+03  4.44588E+03 -1.84393E+03  4.30445E+03 -5.62254E+03  3.81678E+03
 -6.89311E+03 -1.17395E+03 -3.25949E+03 -4.73306E+03 -2.05382E+01 -6.84825E+03  4.16556E+03 -7.31305E+03
  7.34113E+03 -4.33908E+03  9.14424E+03  7.33472E+02  6.71114E+03  5.82427E+03  1.24890E+03  8.28974E+03
 -3.07306E+03  7.35209E+03 -4.52551E+03  2.28343E+03 -2.91338E+03 -1.45956E+03 -9.57060E+02 -1.04249E+03
 -4.36435E+02  3.42911E+02 -1.47374E+03  2.08402E+03 -3.25194E+03  1.38924E+03 -5.20788E+03 -5.97823E+02
 -2.71699E+03 -5.12947E+03  1.17519E+03 -6.53264E+03  3.72985E+03 -6.02638E+03  5.60256E+03 -1.68724E+03
  5.76132E+03  3.50197E+03  2.58670E+03  5.00311E+03 -1.05732E+03  6.01447E+03 -4.43033E+03  4.23672E+03
 -5.00895E+03  5.26925E+02 -4.70545E+03 -3.53171E+03 -1.84104E+02 -4.94228E+03  2.02552E+03 -3.65815E+03
  3.81424E+03 -1.37664E+03  2.54386E+03  6.59761E+02  5.99903E+02  2.00063E+03  7.10331E+02  6.72223E+02
  2.00231E+03  3.53376E+02  1.43891E+03  1.41063E+03  1.49953E+03  2.95858E+03  1.72685E+03  2.61085E+03
 -1.29257E+03  4.24553E+03 -3.79676E+03  5.23001E+03 -4.99519E+03  1.55885E+03 -6.12512E+03 -1.49950E+03
 -2.54799E+03 -5.64010E+03  1.00149E+03 -6.36884E+03  3.23794E+03 -3.87660E+03  4.74629E+03 -1.08824E+03
  3.81696E+03  2.18517E+03  7.33702E+02  3.43126E+03 -1.67660E+03  2.20011E+03 -2.28099E+03 -1.41964E+02
 -1.09107E+03 -2.41139E+03  1.51443E+03 -2.08880E+03  2.11332E+03 -9.54494E+02  2.33219E+03  4.80822E+02
  1.54138E+03  1.01219E+03  9.49279E+02  2.73629E+02 -4.80350E+02  9.31555E+02  1.46095E+03 -2.31477E+02
  4.07854E+02 -2.37604E+02  2.43812E+03  6.84194E+02  9.12636E+02  3.41274E+03 -4.32182E+02  4.21079E+03
 -2.67473E+03  2.01760E+03 -3.25779E+03  8.70573E+02 -3.31886E+03 -1.31612E+03 -7.33593E+02 -1.67097E+03
  5.72714E+02 -1.89778E+03  1.41123E+03 -1.00465E+03  1.37984E+03  1.58108E+03 -7.78828E+02  1.75052E+03
 -2.30100E+03  8.64096E+02 -2.27697E+03 -1.91349E+03 -1.23086E+03 -3.13933E+03  4.87555E+02 -2.88216E+03
  1.03966E+03 -1.51985E+03  1.66318E+03 -9.15340E+01  1.99684E+03  2.74975E+02  7.14400E+02  1.78038E+03
 -7.42682E+02  8.92560E+01 -1.17834E+03 -5.11896E+02  7.67323E+02 -1.70926E+03  2.50592E+03 -1.62510E+03
  2.49750E+03  3.84172E+02  3.67627E+03  1.35996E+03  1.64102E+03  2.76930E+03 -8.79260E+02  2.64086E+03
 -2.45767E+03  7.33173E+02 -2.59952E+03 -3.86444E+02 -1.65949E+03 -2.01474E+03  7.18050E+01 -1.03534E+03
  1.98639E+03 -1.12069E+03  1.37161E+03  9.68602E+02  3.86787E+02  1.82971E+03  1.97493E+00  1.86153E+03
 -9.17148E+02  1.21248E+03 -8.33313E+02  5.00902E+02 -1.80767E+02  3.93524E+02 -1.22050E+03  8.21342E+02
 -8.04083E+02  1.28940E+03 -2.64805E+03  8.21809E+02 -2.68976E+03  7.09193E+01 -3.63721E+03 -1.74432E+03
 -1.82179E+03 -3.86783E+03  8.18017E+02 -4.57939E+03  2.25635E+03 -4.04446E+03  4.32915E+03 -1.68353E+03
  3.99413E+03  5.26931E+01  2.03232E+03  2.61590E+03 -3.03374E+02  2.78220E+03 -7.23625E+02  2.05336E+03
 -1.71436E+03  1.09285E+03 -7.24797E+02 -1.26003E+02 -4.32857E+02 -8.18960E+01 -6.20906E+02  1.94750E+01
 -1.26025E+03 -6.10382E+01 -1.21491E+03 -3.15041E+02  9.70517E+01 -8.83001E+02 -5.80613E+02 -1.13461E+03
  1.76653E+03 -9.11093E+02  9.22690E+02  1.34623E+02  1.97226E+03  1.56393E+03 -1.87405E+02  2.44018E+03
 -1.26014E+03  3.16896E+03 -3.02427E+03  2.32133E+03 -2.84861E+03 -4.63406E+02 -2.08336E+03 -1.99063E+03
 -1.37066E+03 -2.19502E+03  5.01540E+02 -2.24728E+03  1.38223E+03 -1.32462E+03  1.49780E+03  1.54170E+02
  7.93214E+02  7.80599E+02  2.88400E+02  7.16286E+02 -5.94345E+02 -7.51052E+01 -3.47000E+01 -7.80952E+02
  9.14480E+02  1.18792E+02  7.68967E+02  4.42012E+02  3.65223E+02  6.58580E+02  3.27176E+02  7.33638E+02
 -9.60271E+02  1.19162E+03 -1.14955E+03  2.27456E+02 -1.31002E+03 -9.21011E+02  8.47394E+01 -1.93098E+03
  1.05681E+03 -1.37769E+03  1.27761E+03 -3.31917E+02  1.71905E+03 -1.93960E+02  9.72784E+02  1.51292E+03
  5.91943E+02  1.14505E+03 -4.88702E+02  9.39038E+02 -9.66991E+02  8.61023E+02 -9.04291E+02  1.06929E+02
 -2.31349E+02 -1.98104E+02 -5.25557E+02  4.56777E+02 -1.05909E+03  4.74742E+02 -1.33704E+03 -3.94563E+02
 -1.63574E+03 -7.62757E+01 -4.28253E+02 -1.75411E+03  1.01495E+03 -2.27931E+03  1.41073E+03 -2.94363E+02
  1.30062E+03 -4.28283E+01  1.13309E+02  1.11785E+03  4.34697E+01  1.34359E+03 -9.97934E+02  9.20555E+02
