 $NMID ID='MM_0lb_SNR800_14hz_g50_14.RAW', FMTDAT='(8E13.5)'
 TRAMP=1., VOLUME=1. $END
  3.10218E+05  3.82812E+02  3.37717E+05  2.50586E+05  8.48551E+04  3.38105E+05 -1.32487E+05  2.50805E+05
 -1.90408E+05  8.29989E+04 -1.11634E+05 -3.28281E+04  8.79335E+02 -5.05148E+04  5.37811E+04 -8.99181E+01
  3.53741E+04  5.28136E+04 -1.63878E+04  7.53236E+04 -6.08676E+04  6.35330E+04 -8.40972E+04  3.20957E+04
 -8.10430E+04 -1.14476E+04 -5.72994E+04 -5.12940E+04 -1.50518E+04 -6.94530E+04  2.73633E+04 -4.59466E+04
  3.99432E+04  3.65823E+03  1.62986E+04  4.78041E+04 -3.45569E+04  4.72358E+04 -6.68671E+04 -9.62529E+01
 -5.34640E+04 -5.70069E+04 -6.63623E+03 -7.68805E+04  3.39567E+04 -5.50977E+04  4.82283E+04 -1.72624E+04
  4.35320E+04  1.11386E+04  3.17958E+04  2.57567E+04  1.58743E+04  2.93532E+04 -5.31914E+03  2.74542E+04
 -2.21868E+04  1.27485E+04 -1.85425E+04 -5.04408E+03  5.67435E+03 -7.65397E+03  2.23572E+04  1.27083E+04
  7.12072E+03  3.52717E+04 -3.21614E+04  3.54839E+04 -6.35889E+04  1.85174E+03 -5.69612E+04 -4.29847E+04
 -1.27273E+04 -6.34011E+04  3.95023E+04 -4.54461E+04  5.80201E+04 -2.15581E+03  3.41130E+04  3.26356E+04
 -6.36309E+03  3.61589E+04 -3.00357E+04  1.60523E+04 -3.02456E+04 -4.37433E+03 -1.67962E+04 -1.08114E+04
 -8.48757E+03 -1.31904E+04 -7.82426E+02 -1.82512E+04  7.65125E+03 -2.30202E+04  1.53008E+04 -1.34000E+04
  1.15687E+04  5.03710E+03 -8.26304E+03  1.30807E+04 -2.12192E+04 -4.41526E+03 -8.32369E+03 -3.38342E+04
  2.30279E+04 -4.34468E+04  4.81546E+04 -1.98880E+04  4.49476E+04  1.97276E+04  1.59423E+04  4.42862E+04
 -1.59503E+04  3.33119E+04 -2.55620E+04  1.83865E+03 -9.80654E+03 -2.79197E+04  2.06493E+04 -3.40806E+04
  4.14929E+04 -8.83380E+03  3.59306E+04  2.36886E+04  1.83004E+04  4.67368E+04 -8.11647E+03  5.04750E+04
 -3.16488E+04  3.37478E+04 -4.19454E+04  9.69512E+03 -4.28022E+04 -1.67046E+04 -2.36585E+04 -3.82752E+04
  6.83293E+03 -3.78214E+04  3.15437E+04 -1.47447E+04  2.94535E+04  1.08656E+04  4.11433E+03  1.91990E+04
 -1.37123E+04  7.99606E+03 -1.04400E+04 -7.44757E+03  5.65376E+03 -1.07295E+04  1.78374E+04  6.17018E+03
  1.33624E+04  2.22290E+04 -5.80016E+03  2.49916E+04 -2.24032E+04  1.18535E+04 -2.79903E+04 -4.89385E+03
 -2.08552E+04 -1.74027E+04 -8.47024E+03 -2.04985E+04  4.12261E+03 -1.99748E+04  1.55561E+04 -1.83541E+04
  2.63411E+04 -1.27869E+04  3.26898E+04  2.49020E+03  2.38470E+04  2.03967E+04  4.54883E+03  3.64325E+04
 -1.78527E+04  3.03055E+04 -2.80849E+04  1.02013E+04 -2.07105E+04 -1.01596E+04 -4.50016E+03 -1.34033E+04
  1.50103E+03 -2.67785E+03 -4.84994E+03  6.54508E+03 -1.61599E+04  5.26840E+03 -1.62945E+04 -6.97303E+03
 -9.96124E+03 -1.92016E+04  5.41657E+03 -2.33992E+04  1.57597E+04 -1.66036E+04  1.82308E+04 -1.30542E+03
  1.10953E+04  1.32869E+04 -1.10535E+03  1.93110E+04 -1.32398E+04  1.09711E+04 -1.93033E+04 -3.88876E+03
 -1.40456E+04 -1.71037E+04 -1.87744E+03 -2.28819E+04  1.03579E+04 -1.90432E+04  1.90812E+04 -9.46780E+03
  1.80493E+04  1.50269E+02  1.29473E+04  4.29115E+03  6.75632E+03  9.41617E+02  9.89509E+03 -1.83918E+03
  1.74452E+04  3.11724E+03  1.94534E+04  1.53296E+04  1.28544E+04  3.03002E+04 -3.15685E+03  3.44294E+04
 -1.99365E+04  2.72736E+04 -3.20321E+04  1.33825E+04 -3.32113E+04 -2.47429E+03 -2.78635E+04 -1.94362E+04
 -1.19253E+04 -2.78349E+04  9.34169E+03 -2.50903E+04  2.11894E+04 -1.27673E+04  1.94396E+04  5.21095E+03
  7.10851E+03  1.42480E+04 -8.95177E+03  1.27428E+04 -1.60691E+04  2.74715E+03 -1.23200E+04 -1.03146E+04
 -4.18568E+02 -1.52228E+04  8.12051E+03 -1.15518E+04  1.03269E+04 -1.21272E+03  2.25458E+03  6.41672E+03
 -6.99633E+03  2.57315E+03 -5.79024E+03 -5.50562E+03 -4.30143E+02 -1.36217E+04  9.47908E+03 -1.42000E+04
  1.68090E+04 -7.55283E+03  1.81067E+04  2.81490E+03  1.58812E+04  1.33934E+04  7.56473E+03  2.04854E+04
 -3.21924E+03  2.25192E+04 -1.39086E+04  1.37809E+04 -1.61665E+04  3.59937E+03 -1.14849E+04 -3.41822E+03
 -5.50234E+03 -4.95315E+03 -9.47269E+02  7.96180E+02 -2.10972E+03  2.68669E+03 -5.51794E+03  4.19765E+03
 -1.02522E+04 -7.12344E+02 -1.14482E+04 -8.98313E+03 -4.51570E+03 -1.50692E+04  4.52937E+03 -1.16137E+04
  9.70078E+03 -5.09762E+03  6.77685E+03  2.79462E+03  1.82718E+02  4.33955E+03 -5.06647E+03 -3.06604E+02
 -5.32356E+03 -7.14943E+03 -7.53816E+02 -1.06975E+04  6.06911E+03 -1.15609E+04  1.41593E+04 -6.36551E+03
  1.65941E+04  1.48012E+03  1.19483E+04  9.61636E+03  2.20432E+03  1.28575E+04 -7.20274E+03  1.10961E+04
 -9.31661E+03  3.32003E+03 -4.71111E+03 -2.16456E+03  1.80592E+03 -2.70918E+03  6.30233E+03 -1.35641E+03
  5.73497E+03  5.06816E+03  1.44453E+03  8.81094E+03 -6.13071E+03  8.75207E+03 -1.07909E+04  2.26867E+03
 -7.32374E+03 -5.59851E+03  5.57938E+02 -9.43691E+03  5.70844E+03 -4.91383E+03  5.81860E+03  1.91292E+03
  1.31993E+03  5.71602E+03 -5.75404E+03  7.72087E+03 -8.20769E+03  3.17586E+03 -8.42055E+03 -2.31460E+03
 -5.21735E+03 -1.01797E+04  2.26264E+03 -1.13633E+04  9.74110E+03 -7.01739E+03  1.04423E+04  1.93332E+03
  7.01226E+03  8.39346E+03 -9.17387E+01  1.06977E+04 -7.68322E+03  6.19567E+03 -8.10330E+03 -8.00982E+02
 -7.66716E+03 -7.36289E+03 -1.47817E+03 -7.41440E+03  3.96037E+03 -6.77490E+03  4.65098E+03 -3.43351E+03
  3.53997E+03  1.05883E+03 -4.14004E+02  1.61746E+03 -3.20244E+01 -1.20078E+03  1.41992E+03 -4.03765E+03
  6.43467E+03 -2.36474E+03  9.65244E+03  1.15095E+03  9.66225E+03  6.08891E+03  6.99377E+03  1.22898E+04
 -2.48436E+03  1.43478E+04 -1.23639E+04  1.06554E+04 -1.57854E+04  1.85693E+03 -1.28582E+04 -5.09152E+03
 -6.79354E+03 -1.02482E+04 -2.49715E+02 -8.55631E+03  3.24320E+03 -4.72114E+03  3.29351E+03 -3.30070E+03
  2.30033E+03 -2.21551E+03  2.73774E+03 -3.18642E+03  4.36581E+03 -1.93513E+03  5.30808E+03 -4.12542E+02
  6.70888E+03  1.66846E+03  2.67735E+03  5.66718E+03 -1.87590E+03  5.66938E+03 -7.01369E+03  4.70005E+03
 -8.54801E+03 -1.10244E+03 -4.72011E+03 -6.18907E+03 -1.73895E+02 -9.14658E+03  5.33073E+03 -9.40818E+03
  9.43002E+03 -5.24911E+03  1.13163E+04  1.10563E+03  8.19192E+03  7.73132E+03  1.46980E+03  1.00373E+04
 -3.79014E+03  8.91148E+03 -5.83603E+03  2.92273E+03 -3.92299E+03 -1.47222E+03 -1.13789E+03 -9.94295E+02
 -6.02780E+02  2.35068E+02 -1.31467E+03  2.28077E+03 -3.83271E+03  1.50671E+03 -6.22790E+03 -6.16020E+02
 -3.55256E+03 -6.46473E+03  7.70578E+02 -8.36709E+03  5.01378E+03 -7.97978E+03  7.35500E+03 -2.32361E+03
  8.02371E+03  4.16761E+03  3.53081E+03  6.93135E+03 -1.61314E+03  8.13300E+03 -5.63085E+03  4.86436E+03
 -7.35056E+03  7.58355E+02 -5.96716E+03 -4.51193E+03 -5.27132E+02 -6.25195E+03  3.08863E+03 -4.79894E+03
  4.99183E+03 -1.59957E+03  3.26963E+03  1.41643E+03  1.29617E+03  2.67538E+03  1.21257E+03  8.87461E+02
  1.94235E+03  6.75942E+02  2.03152E+03  1.52442E+03  2.17942E+03  3.72575E+03  2.30560E+03  4.03557E+03
 -1.95257E+03  6.25794E+03 -4.99001E+03  6.54071E+03 -7.04897E+03  1.85575E+03 -8.29236E+03 -2.47843E+03
 -3.69735E+03 -7.46592E+03  1.35779E+03 -8.72515E+03  4.42456E+03 -5.18833E+03  6.09324E+03 -1.69812E+03
  5.28119E+03  2.94167E+03  9.42724E+02  4.42560E+03 -1.86740E+03  2.36378E+03 -3.00319E+03 -2.72880E+02
 -1.53649E+03 -3.52508E+03  2.31714E+03 -2.91875E+03  3.35285E+03 -1.80570E+03  2.98137E+03  7.09337E+02
  1.54336E+03  1.18202E+03  9.69623E+02  8.64920E+02 -2.06236E+02  1.22063E+03  1.51376E+03 -6.60328E+02
  9.55475E+02 -5.57141E+02  3.44633E+03  1.13893E+03  1.50715E+03  4.19040E+03 -4.99094E+02  5.35659E+03
 -3.46696E+03  2.78620E+03 -4.57726E+03  6.75935E+02 -3.82766E+03 -1.55165E+03 -1.02914E+03 -2.75727E+03
  6.60466E+02 -2.42241E+03  1.92080E+03 -1.38643E+03  1.35451E+03  1.89781E+03 -7.91270E+02  2.37171E+03
 -2.47027E+03  1.36452E+03 -2.99723E+03 -2.20037E+03 -2.00868E+03 -3.82448E+03  6.22570E+02 -3.71747E+03
  1.85139E+03 -2.22375E+03  2.54277E+03 -6.44013E+01  2.32345E+03  7.05202E+02  6.33737E+02  2.26220E+03
 -1.18298E+03  5.07375E+02 -2.04382E+03 -9.31505E+02  7.39095E+02 -2.77508E+03  3.64951E+03 -1.99977E+03
  3.92784E+03  3.01155E+02  4.91506E+03  2.85640E+03  1.78903E+03  4.14369E+03 -9.65128E+02  4.18090E+03
 -3.44660E+03  1.35504E+03 -3.40114E+03 -6.17677E+02 -2.45623E+03 -2.85376E+03  9.48059E+02 -2.38217E+03
  2.94117E+03 -1.30442E+03  2.13604E+03  1.37033E+03  5.58954E+02  2.71981E+03 -3.78168E+02  2.22722E+03
 -6.40452E+02  1.73349E+03 -1.05855E+03  5.10042E+02 -6.97579E+02  3.95278E+02 -1.11151E+03  9.63606E+02
 -1.16616E+03  1.85572E+03 -3.10010E+03  1.65798E+03 -4.37501E+03  2.22385E+02 -4.91916E+03 -2.64552E+03
 -2.24114E+03 -5.61765E+03  9.88106E+02 -6.28146E+03  3.38338E+03 -5.08842E+03  6.18649E+03 -2.05352E+03
  5.44466E+03  4.21826E+02  3.24601E+03  3.56871E+03 -4.00411E+02  4.26277E+03 -1.66269E+03  3.18475E+03
 -2.51831E+03  1.40399E+03 -1.40082E+03 -3.45892E+02 -8.03004E+02 -1.08106E+02 -7.74898E+02  8.13883E+01
 -1.15069E+03 -1.51853E+02 -1.06793E+03 -4.83893E+01 -1.58664E+02 -8.15987E+02 -1.96480E+02 -1.77413E+03
  1.89627E+03 -1.50031E+03  2.16137E+03 -3.74823E+00  3.04769E+03  2.45111E+03 -1.36455E+01  3.71518E+03
 -2.06692E+03  4.83825E+03 -4.17247E+03  2.86669E+03 -4.79442E+03 -2.14921E+02 -3.40715E+03 -2.94270E+03
 -1.97356E+03 -3.85654E+03  1.11537E+03 -3.34160E+03  2.23942E+03 -1.63552E+03  2.68131E+03  2.05724E+02
  1.27635E+03  1.14673E+03 -2.41411E+02  9.99688E+02 -8.41598E+02 -2.81261E+01 -3.89635E+01 -9.48844E+02
  1.46456E+03 -3.40865E+02  1.08332E+03  8.88690E+02  6.08248E+02  1.12561E+03  2.71954E+02  1.77111E+03
 -2.04640E+03  1.86042E+03 -2.13742E+03  4.96005E+01 -2.29228E+03 -2.05273E+03 -4.34415E+02 -3.07061E+03
  1.70873E+03 -2.50625E+03  2.51568E+03 -6.59098E+02  2.91006E+03  1.92798E+02  1.52333E+03  2.47414E+03
  7.09357E+02  2.38608E+03 -1.11527E+03  1.96510E+03 -1.62212E+03  1.30979E+03 -1.52173E+03  1.69047E+02
 -6.45360E+02 -4.16963E+02 -6.52417E+02  3.17525E+02 -1.54589E+03  3.47924E+02 -1.65778E+03 -6.72897E+02
 -2.11661E+03 -5.84538E+02 -4.11561E+02 -2.16322E+03  1.49191E+03 -3.04557E+03  2.16196E+03 -1.16587E+03
  2.06139E+03  2.26308E+02  7.03593E+02  1.51343E+03 -1.34002E+02  2.07174E+03 -1.47759E+03  1.48655E+03
