 $NMID ID='MM_0lb_SNR800_16hz_g55_9.RAW', FMTDAT='(8E13.5)'
 TRAMP=1., VOLUME=1. $END
  3.09916E+05  5.40058E+02  3.37406E+05  2.50555E+05  8.45930E+04  3.37542E+05 -1.32430E+05  2.50695E+05
 -1.90545E+05  8.29784E+04 -1.11720E+05 -3.29513E+04  9.10313E+02 -5.04820E+04  5.38448E+04  1.25075E+02
  3.54457E+04  5.27891E+04 -1.68321E+04  7.53493E+04 -6.07726E+04  6.35577E+04 -8.37613E+04  3.21417E+04
 -8.09690E+04 -1.12292E+04 -5.69860E+04 -5.10371E+04 -1.50153E+04 -6.94375E+04  2.73707E+04 -4.56311E+04
  3.97547E+04  3.89172E+03  1.60875E+04  4.77050E+04 -3.43571E+04  4.74833E+04 -6.64336E+04 -3.74511E+02
 -5.31405E+04 -5.64418E+04 -6.69631E+03 -7.70041E+04  3.35887E+04 -5.48554E+04  4.77205E+04 -1.71874E+04
  4.33069E+04  1.10032E+04  3.14743E+04  2.51989E+04  1.58137E+04  2.92173E+04 -5.16429E+03  2.69194E+04
 -2.19974E+04  1.24915E+04 -1.85615E+04 -4.97229E+03  5.57166E+03 -7.35006E+03  2.20221E+04  1.19853E+04
  7.18440E+03  3.50810E+04 -3.17208E+04  3.51354E+04 -6.30532E+04  1.90302E+03 -5.67369E+04 -4.25198E+04
 -1.23407E+04 -6.28038E+04  3.96262E+04 -4.51515E+04  5.76537E+04 -2.11114E+03  3.36425E+04  3.24531E+04
 -6.22258E+03  3.56684E+04 -2.98220E+04  1.56877E+04 -2.96284E+04 -4.71422E+03 -1.66431E+04 -1.10874E+04
 -8.13572E+03 -1.29478E+04 -6.45344E+02 -1.80445E+04  7.39699E+03 -2.28448E+04  1.53524E+04 -1.35119E+04
  1.15568E+04  5.36273E+03 -7.63407E+03  1.30841E+04 -2.07708E+04 -3.92367E+03 -8.20641E+03 -3.26508E+04
  2.23761E+04 -4.27938E+04  4.75618E+04 -1.95759E+04  4.45418E+04  1.91438E+04  1.54936E+04  4.35791E+04
 -1.60888E+04  3.29834E+04 -2.48858E+04  1.82526E+03 -9.44615E+03 -2.74504E+04  2.09729E+04 -3.31965E+04
  4.02887E+04 -8.90281E+03  3.48325E+04  2.36394E+04  1.75907E+04  4.54117E+04 -8.04386E+03  4.91056E+04
 -3.10348E+04  3.29996E+04 -4.08879E+04  9.57221E+03 -4.14829E+04 -1.64781E+04 -2.30516E+04 -3.70426E+04
  6.95300E+03 -3.72228E+04  3.08086E+04 -1.44967E+04  2.85221E+04  1.09483E+04  3.80729E+03  1.84703E+04
 -1.34288E+04  7.89137E+03 -1.01938E+04 -7.51137E+03  5.74443E+03 -1.05970E+04  1.78958E+04  6.31244E+03
  1.34308E+04  2.21187E+04 -6.15517E+03  2.44169E+04 -2.19475E+04  1.10870E+04 -2.75227E+04 -4.86308E+03
 -1.93934E+04 -1.71419E+04 -7.35476E+03 -1.94814E+04  4.10667E+03 -1.85097E+04  1.47803E+04 -1.74624E+04
  2.51323E+04 -1.26752E+04  3.14753E+04  2.59384E+03  2.31279E+04  1.92211E+04  4.30322E+03  3.53662E+04
 -1.73730E+04  2.94756E+04 -2.73771E+04  1.01594E+04 -2.05474E+04 -1.02241E+04 -4.43074E+03 -1.36401E+04
  2.10498E+03 -3.20061E+03 -4.37870E+03  6.37969E+03 -1.53142E+04  5.28758E+03 -1.53596E+04 -6.38493E+03
 -9.68283E+03 -1.80494E+04  4.79899E+03 -2.21431E+04  1.46242E+04 -1.56989E+04  1.71960E+04 -1.59938E+03
  1.08231E+04  1.23541E+04 -1.14869E+03  1.84492E+04 -1.23445E+04  1.03849E+04 -1.78520E+04 -3.74936E+03
 -1.32929E+04 -1.64298E+04 -1.72080E+03 -2.21125E+04  1.00681E+04 -1.77779E+04  1.84904E+04 -8.45154E+03
  1.69656E+04  6.12138E+02  1.23498E+04  4.23531E+03  6.52086E+03  5.83769E+02  8.68481E+03 -1.51553E+03
  1.60365E+04  3.12896E+03  1.83831E+04  1.42645E+04  1.17228E+04  2.87715E+04 -2.71764E+03  3.17946E+04
 -1.87048E+04  2.54942E+04 -2.98271E+04  1.27427E+04 -3.09820E+04 -2.46010E+03 -2.58661E+04 -1.79421E+04
 -1.14917E+04 -2.53612E+04  8.52408E+03 -2.29761E+04  1.99073E+04 -1.25781E+04  1.82058E+04  5.12140E+03
  7.13598E+03  1.36368E+04 -8.41302E+03  1.20229E+04 -1.50534E+04  2.58590E+03 -1.17557E+04 -9.55684E+03
 -3.26599E+02 -1.45865E+04  7.23473E+03 -1.07297E+04  9.47621E+03 -1.18550E+03  1.95559E+03  5.88296E+03
 -6.81518E+03  2.13526E+03 -5.12337E+03 -5.40679E+03 -2.86490E+02 -1.26866E+04  9.13713E+03 -1.29513E+04
  1.53507E+04 -6.58003E+03  1.60582E+04  2.65734E+03  1.39766E+04  1.20577E+04  6.73022E+03  1.86157E+04
 -2.51661E+03  2.02829E+04 -1.26261E+04  1.24663E+04 -1.44113E+04  3.24226E+03 -1.04142E+04 -2.99812E+03
 -4.77442E+03 -4.38856E+03 -6.80026E+02  1.05873E+03 -2.45259E+03  2.55329E+03 -4.64554E+03  4.40092E+03
 -9.50242E+03 -7.46594E+02 -1.02014E+04 -8.62248E+03 -4.24236E+03 -1.34744E+04  4.43246E+03 -1.05080E+04
  8.42012E+03 -4.50726E+03  6.42901E+03  2.77338E+03  5.05410E+02  3.93325E+03 -4.42985E+03 -2.24854E+02
 -4.58693E+03 -6.34728E+03 -8.97236E+02 -9.44635E+03  5.37557E+03 -1.02612E+04  1.24744E+04 -5.40739E+03
  1.49265E+04  9.82296E+02  1.09869E+04  8.35497E+03  2.02138E+03  1.17613E+04 -6.61626E+03  1.01743E+04
 -8.29707E+03  2.99686E+03 -4.40676E+03 -1.71729E+03  1.43993E+03 -2.51673E+03  5.68137E+03 -8.91541E+02
  5.14556E+03  4.55248E+03  1.07318E+03  8.34444E+03 -5.50804E+03  7.68525E+03 -9.48716E+03  1.98977E+03
 -6.40947E+03 -4.75233E+03  3.60667E+02 -8.39325E+03  4.66927E+03 -4.06623E+03  5.00638E+03  1.54081E+03
  9.62578E+02  4.98754E+03 -5.17417E+03  6.61698E+03 -7.20344E+03  3.05931E+03 -6.68572E+03 -2.22964E+03
 -4.00188E+03 -8.23732E+03  1.86286E+03 -9.96334E+03  8.29575E+03 -5.88489E+03  8.86438E+03  1.72236E+03
  6.05106E+03  6.90907E+03 -2.41661E+02  9.35970E+03 -6.68183E+03  5.40771E+03 -7.14384E+03 -1.07772E+03
 -6.86032E+03 -6.32649E+03 -1.81144E+03 -6.86927E+03  3.66018E+03 -5.82810E+03  4.01394E+03 -3.18542E+03
  3.21839E+03  6.84311E+02 -4.93209E+02  1.48550E+03  2.93875E+02 -1.09237E+03  7.26507E+02 -3.01264E+03
  5.58231E+03 -1.67253E+03  7.61462E+03  8.26592E+02  8.27087E+03  5.11573E+03  6.21728E+03  1.02578E+04
 -1.98701E+03  1.20408E+04 -1.04976E+04  9.00120E+03 -1.31520E+04  1.58436E+03 -1.05993E+04 -4.16128E+03
 -5.21856E+03 -9.01111E+03 -5.26588E+02 -6.96497E+03  2.57046E+03 -3.53120E+03  2.67471E+03 -3.14492E+03
  1.82117E+03 -2.07538E+03  2.42316E+03 -2.66988E+03  3.84858E+03 -2.09089E+03  4.43267E+03 -1.02662E+02
  5.65311E+03  1.47390E+03  2.44981E+03  4.60417E+03 -1.67852E+03  4.72392E+03 -6.00735E+03  3.96525E+03
 -7.03194E+03 -1.38973E+03 -3.28397E+03 -4.88058E+03 -7.52500E+01 -7.07135E+03  4.26832E+03 -7.58326E+03
  7.39238E+03 -4.53479E+03  9.28833E+03  8.83284E+02  6.68821E+03  6.26056E+03  1.18983E+03  8.24842E+03
 -3.36926E+03  7.88573E+03 -5.05664E+03  2.53885E+03 -2.83545E+03 -1.20187E+03 -1.07059E+03 -8.93068E+02
 -6.80212E+02  2.42099E+02 -1.28363E+03  2.29669E+03 -3.42863E+03  1.06277E+03 -5.22722E+03 -5.52970E+02
 -2.65464E+03 -5.20697E+03  8.53052E+02 -6.44156E+03  3.92277E+03 -5.95487E+03  6.18013E+03 -1.70646E+03
  6.33178E+03  3.56070E+03  2.84594E+03  5.14304E+03 -1.20462E+03  6.26654E+03 -4.01751E+03  3.73839E+03
 -5.89853E+03  6.56274E+02 -4.45985E+03 -3.49510E+03 -4.99119E+02 -5.08863E+03  2.62218E+03 -3.65108E+03
  4.05809E+03 -1.62307E+03  2.39754E+03  9.27481E+02  8.80966E+02  2.50672E+03  7.99479E+02  7.58111E+02
  2.13114E+03  7.50517E+02  1.66364E+03  1.02038E+03  1.70863E+03  2.45681E+03  1.46866E+03  3.11753E+03
 -1.55268E+03  4.45340E+03 -3.84408E+03  5.30937E+03 -5.36773E+03  1.36996E+03 -6.21736E+03 -1.43034E+03
 -2.69568E+03 -5.54013E+03  7.95037E+02 -6.88734E+03  3.02428E+03 -3.87983E+03  4.68339E+03 -1.26161E+03
  3.74297E+03  2.59829E+03  5.10282E+02  3.44530E+03 -1.18871E+03  2.30049E+03 -1.74766E+03 -4.67547E+02
 -1.33318E+03 -2.45466E+03  1.33153E+03 -2.64950E+03  1.98998E+03 -1.16123E+03  2.12370E+03  7.40189E+02
  1.16866E+03  8.30905E+02  6.01810E+02  5.32008E+02 -3.12260E+02  1.06108E+03  1.42738E+03 -4.67391E+02
  2.60298E+02 -2.60718E+02  2.38872E+03  1.00970E+03  1.19482E+03  3.27143E+03 -6.92052E+02  4.03631E+03
 -2.74821E+03  1.86658E+03 -3.58785E+03  5.61985E+02 -3.24804E+03 -1.17731E+03 -5.86129E+02 -1.97966E+03
  2.96513E+02 -1.77328E+03  1.43588E+03 -9.41745E+02  1.12829E+03  1.51664E+03 -8.02709E+02  1.96914E+03
 -2.28697E+03  8.26868E+02 -1.91275E+03 -1.52522E+03 -1.14068E+03 -3.02168E+03  1.63517E+02 -2.64886E+03
  1.14449E+03 -1.63308E+03  1.54822E+03  3.63477E+02  2.02302E+03  1.52448E+02  4.85654E+02  1.77254E+03
 -7.26385E+02  6.40038E+01 -1.24403E+03 -5.22665E+02  7.03844E+02 -1.67519E+03  2.47126E+03 -1.44016E+03
  2.72895E+03  4.18023E+02  3.48787E+03  1.62583E+03  1.26711E+03  2.89785E+03 -1.00615E+03  2.71380E+03
 -2.40312E+03  1.00374E+03 -2.60790E+03 -2.83512E+02 -1.46535E+03 -1.97016E+03  4.52249E+02 -1.48301E+03
  2.43444E+03 -8.88501E+02  1.35491E+03  8.09936E+02  5.48883E+02  1.83988E+03  2.07210E+02  1.57812E+03
 -6.49005E+02  1.43098E+03 -8.23987E+02  1.90939E+02 -7.99815E+01  4.51327E+02 -9.74632E+02  4.91966E+02
 -1.05566E+03  1.66341E+03 -2.61077E+03  9.51753E+02 -2.81221E+03  3.86968E+02 -3.66996E+03 -1.74055E+03
 -1.82388E+03 -3.80233E+03  7.97146E+02 -4.62257E+03  2.32818E+03 -3.42791E+03  4.43428E+03 -1.58741E+03
  3.88008E+03  2.35022E+02  2.50894E+03  2.67391E+03 -6.19910E+02  2.43208E+03 -1.20464E+03  1.82000E+03
 -1.83777E+03  8.61828E+02 -7.67501E+02 -3.04686E+02 -7.41216E+02 -5.32642E+01 -6.32887E+02 -1.91790E+02
 -1.14013E+03  3.93726E+01 -1.13342E+03  1.89501E+02  1.42106E+02 -8.40379E+02 -6.21998E+01 -1.13880E+03
  1.54885E+03 -8.33608E+02  1.17883E+03  2.00040E+02  2.09544E+03  1.66471E+03 -1.25337E+02  2.57586E+03
 -1.17523E+03  3.53300E+03 -2.69870E+03  2.07997E+03 -3.09703E+03  8.60297E+01 -2.22970E+03 -2.08013E+03
 -1.20998E+03 -2.70902E+03  3.12303E+02 -2.42175E+03  1.14281E+03 -1.15835E+03  1.32802E+03  2.53587E+02
  9.67763E+02  4.18132E+02 -1.86102E+01  6.19916E+02 -5.48424E+02 -2.50532E+02  1.12899E+02 -4.42970E+02
  9.26398E+02 -1.08217E+01  3.66716E+02  6.41940E+02  1.67444E+02  9.60365E+02  3.34970E+02  1.14346E+03
 -9.60628E+02  1.30528E+03 -1.28280E+03  1.04500E+02 -1.43996E+03 -8.41715E+02  2.00972E+02 -1.95502E+03
  1.02701E+03 -1.48584E+03  1.59050E+03 -3.84415E+02  1.70326E+03 -2.68803E+02  7.50167E+02  1.45765E+03
  4.18167E+02  1.30364E+03 -2.40299E+02  8.74030E+02 -1.14208E+03  9.32934E+02 -9.06961E+02 -6.57547E+00
 -1.99994E+02 -8.21487E+00 -5.95529E+02  1.74962E+02 -8.91700E+02  1.99335E+02 -1.35137E+03 -3.54205E+02
 -1.67986E+03 -1.19794E+02 -5.35249E+02 -1.51892E+03  8.52472E+02 -2.34186E+03  1.20312E+03 -7.64793E+02
  1.58786E+03  2.72302E+02  7.89155E+01  7.48874E+02 -9.68775E+01  1.52045E+03 -9.11086E+02  1.09892E+03
