 $NMID ID='MM_0lb_SNR800_16hz_g45_34.RAW', FMTDAT='(8E13.5)'
 TRAMP=1., VOLUME=1. $END
  3.09797E+05  2.59871E+02  3.37490E+05  2.50594E+05  8.46134E+04  3.37700E+05 -1.32481E+05  2.50408E+05
 -1.89812E+05  8.28954E+04 -1.11198E+05 -3.28019E+04  1.29833E+03 -5.04981E+04  5.40104E+04 -6.50835E+01
  3.52190E+04  5.27927E+04 -1.71448E+04  7.50377E+04 -6.06983E+04  6.33326E+04 -8.36092E+04  3.17932E+04
 -8.00773E+04 -1.09263E+04 -5.66884E+04 -5.07518E+04 -1.49600E+04 -6.87734E+04  2.73377E+04 -4.54505E+04
  3.94408E+04  4.19574E+03  1.60147E+04  4.73091E+04 -3.40789E+04  4.62957E+04 -6.59967E+04 -7.83915E+02
 -5.25669E+04 -5.63753E+04 -6.68767E+03 -7.62747E+04  3.33216E+04 -5.41424E+04  4.71006E+04 -1.67356E+04
  4.23347E+04  1.12659E+04  3.14671E+04  2.48874E+04  1.58086E+04  2.87323E+04 -4.96977E+03  2.71310E+04
 -2.19781E+04  1.25884E+04 -1.89341E+04 -4.58806E+03  4.86423E+03 -7.44651E+03  2.17967E+04  1.14367E+04
  7.28076E+03  3.41438E+04 -3.14936E+04  3.48838E+04 -6.22344E+04  2.00798E+03 -5.59323E+04 -4.16821E+04
 -1.25729E+04 -6.19023E+04  3.90051E+04 -4.42799E+04  5.67246E+04 -1.95413E+03  3.28127E+04  3.10587E+04
 -6.12917E+03  3.44032E+04 -2.91509E+04  1.45397E+04 -2.86308E+04 -4.71987E+03 -1.54270E+04 -1.03242E+04
 -7.68490E+03 -1.21654E+04 -9.77039E+02 -1.73074E+04  7.21760E+03 -2.27107E+04  1.50311E+04 -1.34271E+04
  1.15273E+04  4.60811E+03 -7.23393E+03  1.30454E+04 -2.00078E+04 -3.65991E+03 -7.93516E+03 -3.18278E+04
  2.19631E+04 -4.19926E+04  4.61440E+04 -1.90850E+04  4.34802E+04  1.87097E+04  1.46518E+04  4.28920E+04
 -1.54001E+04  3.20485E+04 -2.41364E+04  1.43635E+03 -8.94305E+03 -2.68140E+04  2.06229E+04 -3.26584E+04
  3.94509E+04 -8.15120E+03  3.31719E+04  2.33549E+04  1.66813E+04  4.43274E+04 -8.07401E+03  4.73319E+04
 -2.99868E+04  3.14908E+04 -3.94916E+04  8.93658E+03 -3.98894E+04 -1.57597E+04 -2.21710E+04 -3.63376E+04
  7.03368E+03 -3.60925E+04  3.02038E+04 -1.37066E+04  2.78997E+04  1.05396E+04  3.53479E+03  1.84359E+04
 -1.31398E+04  7.67313E+03 -1.02211E+04 -7.33432E+03  5.87103E+03 -1.01692E+04  1.75300E+04  6.13586E+03
  1.29462E+04  2.19397E+04 -6.58461E+03  2.44538E+04 -2.19494E+04  1.01591E+04 -2.64581E+04 -5.87535E+03
 -1.86138E+04 -1.69570E+04 -7.02730E+03 -1.84613E+04  3.94498E+03 -1.65882E+04  1.40972E+04 -1.61885E+04
  2.36300E+04 -1.23502E+04  3.00366E+04  1.89599E+03  2.24179E+04  1.81130E+04  4.18549E+03  3.43552E+04
 -1.66795E+04  2.89236E+04 -2.66795E+04  1.00813E+04 -1.99349E+04 -1.06208E+04 -4.51119E+03 -1.38466E+04
  2.34230E+03 -3.50785E+03 -3.76155E+03  5.88641E+03 -1.43507E+04  5.37915E+03 -1.49670E+04 -5.95218E+03
 -9.29637E+03 -1.68496E+04  4.89276E+03 -2.09539E+04  1.39232E+04 -1.54920E+04  1.62011E+04 -1.34194E+03
  1.00261E+04  1.20937E+04 -1.02881E+03  1.73966E+04 -1.18848E+04  9.72456E+03 -1.72676E+04 -3.59394E+03
 -1.26768E+04 -1.55814E+04 -1.45133E+03 -2.06457E+04  9.40984E+03 -1.70793E+04  1.72173E+04 -8.33799E+03
  1.60950E+04  4.69093E+02  1.16756E+04  4.11237E+03  6.17114E+03  5.34854E+02  8.57885E+03 -1.52723E+03
  1.56580E+04  2.89815E+03  1.68833E+04  1.40554E+04  1.08760E+04  2.74741E+04 -3.28930E+03  3.00980E+04
 -1.76442E+04  2.36256E+04 -2.78972E+04  1.15189E+04 -2.89474E+04 -1.66287E+03 -2.42094E+04 -1.66431E+04
 -1.09469E+04 -2.36505E+04  8.02426E+03 -2.15662E+04  1.87487E+04 -1.16540E+04  1.72994E+04  4.48010E+03
  7.04025E+03  1.26279E+04 -8.06397E+03  1.11520E+04 -1.44805E+04  2.32132E+03 -1.10870E+04 -8.90943E+03
 -3.11647E+02 -1.37579E+04  6.77035E+03 -1.04484E+04  8.88676E+03 -1.29810E+03  1.87246E+03  5.56780E+03
 -6.09498E+03  2.04806E+03 -4.73154E+03 -5.01205E+03  4.46732E+02 -1.17726E+04  8.65812E+03 -1.20944E+04
  1.45291E+04 -6.10366E+03  1.46440E+04  2.86642E+03  1.26665E+04  1.13209E+04  6.00524E+03  1.68876E+04
 -2.43071E+03  1.89796E+04 -1.17946E+04  1.17379E+04 -1.32857E+04  2.62910E+03 -9.74427E+03 -2.80606E+03
 -4.86181E+03 -4.06931E+03 -6.50526E+02  1.58286E+03 -2.22722E+03  2.15663E+03 -4.44175E+03  3.80067E+03
 -9.25283E+03 -5.55306E+02 -9.82417E+03 -8.25750E+03 -4.30298E+03 -1.29476E+04  3.88116E+03 -9.70017E+03
  8.12890E+03 -4.40528E+03  6.00160E+03  2.48948E+03  5.11575E+02  3.56467E+03 -4.11490E+03 -4.11927E+01
 -3.95090E+03 -5.98952E+03 -6.64666E+02 -8.59734E+03  4.99860E+03 -9.35758E+03  1.18575E+04 -5.09443E+03
  1.37788E+04  9.34839E+02  1.01701E+04  7.73644E+03  2.11534E+03  1.05210E+04 -5.88472E+03  9.51780E+03
 -8.16418E+03  2.83853E+03 -3.99650E+03 -1.64265E+03  1.37686E+03 -2.23177E+03  5.51259E+03 -1.09825E+03
  4.71253E+03  3.98379E+03  1.06191E+03  7.50297E+03 -5.32392E+03  7.39231E+03 -9.06801E+03  1.82531E+03
 -5.73121E+03 -4.40908E+03  1.86729E+02 -7.81964E+03  4.53066E+03 -4.13716E+03  4.47983E+03  1.34054E+03
  7.22143E+02  4.68214E+03 -4.77207E+03  6.06601E+03 -6.32094E+03  2.98322E+03 -6.22154E+03 -1.66333E+03
 -3.81318E+03 -7.77083E+03  1.54079E+03 -8.98677E+03  7.53919E+03 -5.64462E+03  8.39665E+03  1.41827E+03
  5.57511E+03  6.79091E+03 -2.17735E+02  8.77095E+03 -6.33883E+03  5.15977E+03 -6.63812E+03 -9.73128E+02
 -6.73681E+03 -6.08836E+03 -1.44286E+03 -6.09593E+03  3.36481E+03 -5.57997E+03  3.36342E+03 -2.74436E+03
  3.46488E+03  5.92788E+02 -1.72067E+02  1.67775E+03  3.48113E+02 -6.74393E+02  4.06612E+02 -2.95525E+03
  5.19583E+03 -1.51990E+03  7.22202E+03  8.60805E+02  7.30123E+03  4.33882E+03  5.96595E+03  9.61973E+03
 -1.94655E+03  1.12268E+04 -9.80915E+03  8.59778E+03 -1.24260E+04  1.22800E+03 -9.94307E+03 -3.28068E+03
 -5.17598E+03 -8.50893E+03 -4.05475E+02 -6.70256E+03  2.77135E+03 -3.13411E+03  2.46766E+03 -2.64054E+03
  1.45536E+03 -1.79628E+03  2.42916E+03 -2.64690E+03  3.88726E+03 -2.00717E+03  4.05812E+03 -3.28411E+02
  5.52764E+03  1.54891E+03  1.85644E+03  4.51222E+03 -1.62223E+03  4.08197E+03 -5.38541E+03  3.42158E+03
 -6.60722E+03 -9.78654E+02 -2.88752E+03 -4.30640E+03  1.07372E+02 -6.84955E+03  3.98427E+03 -6.97096E+03
  7.03978E+03 -4.03189E+03  8.72679E+03  4.34595E+02  6.52827E+03  6.08978E+03  1.28463E+03  7.93036E+03
 -2.96799E+03  7.07437E+03 -4.41231E+03  2.51799E+03 -2.68672E+03 -1.00947E+03 -8.30059E+02 -9.33039E+02
 -6.29675E+02  2.00086E+02 -1.02043E+03  1.95202E+03 -3.03477E+03  1.45545E+03 -5.08424E+03 -4.81906E+02
 -2.59566E+03 -5.11846E+03  6.01600E+02 -6.26638E+03  3.55801E+03 -5.70542E+03  5.29955E+03 -1.69156E+03
  5.66193E+03  3.21798E+03  2.54438E+03  5.03665E+03 -1.01293E+03  6.24428E+03 -3.93072E+03  3.78103E+03
 -5.33147E+03  5.03323E+02 -4.41414E+03 -3.63551E+03 -3.25533E+02 -4.66785E+03  2.19335E+03 -3.68858E+03
  3.60946E+03 -1.67623E+03  2.24103E+03  8.59162E+02  7.86356E+02  2.01532E+03  8.47241E+02  7.01427E+02
  1.96467E+03  5.03632E+02  1.72700E+03  1.24085E+03  1.48121E+03  2.70310E+03  1.64105E+03  2.67135E+03
 -1.56565E+03  4.22195E+03 -3.60558E+03  5.35289E+03 -4.90894E+03  1.84664E+03 -6.04357E+03 -1.54464E+03
 -2.46769E+03 -5.33106E+03  1.11447E+03 -6.26170E+03  3.07575E+03 -3.64241E+03  4.49762E+03 -1.14232E+03
  3.54907E+03  2.41091E+03  6.67415E+02  3.12408E+03 -1.13869E+03  1.94277E+03 -1.79039E+03 -4.37991E+02
 -8.87911E+02 -2.38339E+03  1.60837E+03 -2.43565E+03  1.74513E+03 -1.12436E+03  2.06453E+03  1.59929E+02
  1.05312E+03  8.37302E+02  8.43802E+02  1.61528E+02 -2.89305E+02  9.75897E+02  1.74369E+03 -3.96055E+02
  2.61111E+02 -9.16845E+01  2.51921E+03  6.15292E+02  5.71738E+02  3.12515E+03 -4.57888E+02  3.83539E+03
 -2.44433E+03  1.81949E+03 -3.17138E+03  5.07096E+02 -2.71242E+03 -1.22579E+03 -7.99224E+02 -1.42154E+03
  5.43112E+02 -1.90991E+03  1.31557E+03 -8.62710E+02  9.68011E+02  1.26667E+03 -9.29862E+02  1.57879E+03
 -2.15254E+03  1.04167E+03 -2.20294E+03 -1.75620E+03 -1.26161E+03 -2.94098E+03  4.94533E+01 -2.52727E+03
  1.31489E+03 -1.15234E+03  1.21474E+03 -2.22914E+02  1.93432E+03  2.92377E+02  3.13864E+02  1.90384E+03
 -6.57137E+02  1.52410E+02 -1.28658E+03 -7.02881E+02  7.08413E+02 -1.85278E+03  2.48499E+03 -1.29551E+03
  2.47337E+03  3.82213E+02  3.66868E+03  1.68414E+03  1.31922E+03  2.72121E+03 -5.68237E+02  2.85608E+03
 -2.33382E+03  9.03611E+02 -2.35578E+03 -1.64012E+02 -1.39216E+03 -2.14789E+03  2.82963E+02 -1.30206E+03
  2.10486E+03 -9.16845E+02  1.42567E+03  9.63356E+02  2.41016E+02  1.74582E+03 -2.17907E+01  1.70804E+03
 -5.06910E+02  1.38943E+03 -7.96480E+02  2.96415E+02 -1.61414E+02  5.52896E+02 -6.72759E+02  7.33577E+02
 -7.11271E+02  1.50632E+03 -2.30861E+03  8.28678E+02 -2.92945E+03  1.98416E+02 -3.46999E+03 -1.50675E+03
 -1.78165E+03 -3.59494E+03  8.85453E+02 -4.20899E+03  2.06293E+03 -3.74683E+03  4.47741E+03 -1.64808E+03
  3.48107E+03  4.97984E+02  1.88523E+03  2.56692E+03 -3.57587E+02  2.79135E+03 -1.28213E+03  2.18138E+03
 -1.45932E+03  1.13062E+03 -8.43679E+02 -2.07636E+02 -9.92475E+02  1.07183E+02 -6.21854E+02 -1.23776E+02
 -1.18773E+03 -7.56387E+01 -1.10290E+03  1.52481E+02 -9.79072E+01 -7.51639E+02 -2.30108E+02 -1.21845E+03
  1.73840E+03 -8.25087E+02  1.36948E+03  1.93981E+02  1.87521E+03  1.35613E+03 -8.58672E+01  2.83048E+03
 -1.43024E+03  3.53812E+03 -2.41265E+03  2.06493E+03 -3.03785E+03 -4.84530E+02 -2.25214E+03 -1.87183E+03
 -1.28722E+03 -2.23404E+03  4.18834E+02 -1.80469E+03  1.43132E+03 -1.28932E+03  1.23919E+03  4.02373E+02
  8.92259E+02  6.69131E+02  9.45513E+01  5.05130E+02 -4.72938E+02 -9.12889E+00 -5.97950E+01 -4.12058E+02
  8.98474E+02  5.11025E+01  6.18834E+02  5.45892E+02  3.35680E+02  7.24644E+02  3.48061E+02  8.47446E+02
 -8.91007E+02  1.20495E+03 -1.28383E+03  2.99355E+02 -1.31293E+03 -8.56342E+02 -4.16671E+02 -2.06495E+03
  9.64001E+02 -1.55303E+03  1.23973E+03 -4.91598E+02  1.75090E+03 -1.23589E+02  1.07766E+03  1.53931E+03
  5.29167E+02  1.05265E+03 -3.36806E+02  9.50109E+02 -8.77601E+02  6.55917E+02 -9.39303E+02  1.05168E+02
 -4.51234E+02 -1.76477E+02 -5.04210E+02  2.81112E+02 -1.11219E+03  4.76814E+02 -1.29640E+03 -4.95650E+02
 -1.56510E+03 -1.86510E+02 -6.30499E+02 -1.48677E+03  1.05839E+03 -2.08610E+03  1.39335E+03 -2.60363E+02
  1.30206E+03 -1.16683E+02  2.98149E+02  5.76613E+02 -7.89654E+01  1.20823E+03 -9.52877E+02  1.13126E+03
