 $NMID ID='MM_0lb_SNR800_8hz_g55_32.RAW', FMTDAT='(8E13.5)'
 TRAMP=1., VOLUME=1. $END
  3.09956E+05  1.49697E+02  3.37815E+05  2.50962E+05  8.48531E+04  3.38765E+05 -1.32543E+05  2.52026E+05
 -1.91241E+05  8.42780E+04 -1.12709E+05 -3.24345E+04  2.12713E+02 -5.09850E+04  5.34184E+04 -7.38240E+02
  3.56795E+04  5.28958E+04 -1.63495E+04  7.62528E+04 -6.10069E+04  6.45492E+04 -8.55339E+04  3.26437E+04
 -8.31601E+04 -1.22263E+04 -5.88567E+04 -5.24267E+04 -1.51300E+04 -7.10350E+04  2.80057E+04 -4.70314E+04
  4.12944E+04  4.20210E+03  1.71545E+04  4.86630E+04 -3.48515E+04  4.84164E+04 -6.82977E+04 -6.17601E+01
 -5.54174E+04 -5.84495E+04 -7.69229E+03 -7.90047E+04  3.50230E+04 -5.77812E+04  5.03121E+04 -1.81759E+04
  4.55670E+04  1.17212E+04  3.34850E+04  2.71629E+04  1.64103E+04  3.12020E+04 -5.87803E+03  2.80537E+04
 -2.27275E+04  1.20779E+04 -1.78057E+04 -6.18228E+03  7.48445E+03 -7.70823E+03  2.38853E+04  1.42869E+04
  6.95778E+03  3.80858E+04 -3.47072E+04  3.73143E+04 -6.65873E+04  2.48733E+03 -5.91236E+04 -4.46563E+04
 -1.27258E+04 -6.62756E+04  4.22899E+04 -4.80503E+04  6.20822E+04 -2.60320E+03  3.74031E+04  3.51143E+04
 -5.42137E+03  4.06659E+04 -3.25062E+04  1.98058E+04 -3.42117E+04 -3.49204E+03 -1.97934E+04 -1.25318E+04
 -1.00140E+04 -1.59302E+04 -9.06025E+02 -2.01567E+04  8.84025E+03 -2.31914E+04  1.56966E+04 -1.25865E+04
  9.71594E+03  6.41302E+03 -1.09429E+04  1.25154E+04 -2.41935E+04 -7.45073E+03 -8.87892E+03 -3.84001E+04
  2.60390E+04 -4.78585E+04  5.31913E+04 -2.13539E+04  5.02819E+04  2.13877E+04  1.78297E+04  4.79784E+04
 -1.66961E+04  3.71285E+04 -2.88340E+04  2.90165E+03 -1.20334E+04 -2.98011E+04  2.17462E+04 -3.78587E+04
  4.51172E+04 -1.17776E+04  4.20572E+04  2.54409E+04  2.25950E+04  5.24359E+04 -8.51620E+03  5.80755E+04
 -3.64309E+04  3.93692E+04 -4.93120E+04  1.16533E+04 -4.91197E+04 -1.89627E+04 -2.66672E+04 -4.33501E+04
  7.85583E+03 -4.35055E+04  3.48156E+04 -1.77476E+04  3.33154E+04  1.10428E+04  5.54063E+03  2.11910E+04
 -1.38798E+04  1.01790E+04 -1.17258E+04 -7.24589E+03  5.32808E+03 -1.13787E+04  1.91040E+04  5.30753E+03
  1.56200E+04  2.30462E+04 -5.26254E+03  2.77526E+04 -2.39340E+04  1.52532E+04 -3.20836E+04 -2.28859E+03
 -2.69315E+04 -1.85669E+04 -1.26310E+04 -2.63916E+04  3.96927E+03 -2.72402E+04  2.10884E+04 -2.49585E+04
  3.43958E+04 -1.48021E+04  3.99964E+04  5.41365E+03  2.80377E+04  2.56247E+04  4.24566E+03  4.24631E+04
 -2.05530E+04  3.46769E+04 -3.14607E+04  1.22146E+04 -2.27873E+04 -9.85577E+03 -5.21478E+03 -1.25863E+04
  5.55027E+02 -7.59950E+02 -8.72028E+03  9.02057E+03 -2.16963E+04  5.24468E+03 -2.08127E+04 -1.00312E+04
 -1.27935E+04 -2.44038E+04  6.44874E+03 -2.91234E+04  1.98369E+04 -2.07641E+04  2.37363E+04 -1.52928E+03
  1.52221E+04  1.69535E+04 -1.52236E+03  2.44809E+04 -1.75316E+04  1.42204E+04 -2.49280E+04 -4.92537E+03
 -1.85749E+04 -2.18068E+04 -2.21271E+03 -2.96441E+04  1.31957E+04 -2.47205E+04  2.47687E+04 -1.27874E+04
  2.31731E+04 -6.70702E+02  1.68440E+04  5.94891E+03  9.67015E+03  1.14113E+03  1.30358E+04 -1.89348E+03
  2.32275E+04  2.83112E+03  2.71938E+04  1.90534E+04  1.89204E+04  3.99944E+04 -2.40188E+03  4.76293E+04
 -2.71354E+04  4.01129E+04 -4.47300E+04  2.09477E+04 -4.83841E+04 -3.72209E+03 -3.87539E+04 -2.88417E+04
 -1.50698E+04 -4.05602E+04  1.48368E+04 -3.46895E+04  2.98174E+04 -1.62804E+04  2.57902E+04  8.60492E+03
  8.52894E+03  2.01454E+04 -1.26782E+04  1.62459E+04 -2.14843E+04  2.91342E+03 -1.62353E+04 -1.36205E+04
 -7.53012E+02 -1.99914E+04  1.11984E+04 -1.54523E+04  1.40971E+04 -1.61218E+03  4.06252E+03  9.66116E+03
 -9.62895E+03  4.86030E+03 -1.01162E+04 -7.24057E+03 -2.50872E+03 -1.92452E+04  1.24980E+04 -2.12072E+04
  2.47434E+04 -1.21176E+04  2.86201E+04  3.49218E+03  2.53884E+04  2.01083E+04  1.15608E+04  3.18746E+04
 -6.53823E+03  3.35535E+04 -2.22219E+04  2.08804E+04 -2.48671E+04  4.16858E+03 -1.65085E+04 -6.60417E+03
 -6.73935E+03 -8.36264E+03 -7.86541E+02  2.43750E+02 -3.31809E+03  3.67914E+03 -8.33448E+03  5.49484E+03
 -1.49402E+04 -1.32344E+03 -1.63794E+04 -1.25974E+04 -6.54253E+03 -2.14998E+04  6.59403E+03 -1.68918E+04
  1.41375E+04 -7.03245E+03  9.83939E+03  5.08397E+03 -3.17146E+02  6.81686E+03 -8.99697E+03 -4.14747E+02
 -8.01423E+03 -1.10645E+04 -1.64221E+03 -1.73130E+04  1.01758E+04 -1.83302E+04  2.18007E+04 -1.00461E+04
  2.56503E+04  2.93577E+03  1.89682E+04  1.61960E+04  3.63041E+03  2.12086E+04 -1.04404E+04  1.66220E+04
 -1.36526E+04  4.77111E+03 -7.20462E+03 -3.74765E+03  2.55131E+03 -5.31459E+03  8.84197E+03 -6.63824E+02
  8.40895E+03  7.68735E+03  1.34644E+03  1.34534E+04 -1.00054E+04  1.33160E+04 -1.72828E+04  2.76497E+03
 -1.19391E+04 -9.18352E+03  2.78930E+02 -1.44773E+04  9.61083E+03 -7.65762E+03  1.05074E+04  3.86299E+03
  2.76258E+03  1.12874E+04 -9.36729E+03  1.28949E+04 -1.54492E+04  5.85447E+03 -1.56868E+04 -6.01117E+03
 -9.13131E+03 -1.76572E+04  4.67016E+03 -2.03836E+04  1.73816E+04 -1.24930E+04  1.94199E+04  2.96810E+03
  1.04892E+04  1.51203E+04 -1.65317E+03  1.77539E+04 -1.28836E+04  9.97999E+03 -1.44979E+04 -1.55807E+03
 -1.13196E+04 -1.20360E+04 -1.76516E+03 -1.31736E+04  6.99089E+03 -1.06732E+04  8.97192E+03 -4.03539E+03
  5.28980E+03  2.05624E+03 -1.47567E+03  2.17157E+03 -1.38128E+03 -4.01668E+03  3.36600E+03 -8.50786E+03
  1.32056E+04 -5.83537E+03  1.84595E+04  1.53071E+03  1.76041E+04  1.26095E+04  1.14036E+04  2.39330E+04
 -5.81970E+03  2.74051E+04 -2.28150E+04  2.04349E+04 -2.92181E+04  3.77699E+03 -2.37436E+04 -1.04616E+04
 -1.19485E+04 -1.89878E+04 -2.26269E+02 -1.67428E+04  6.15023E+03 -9.78539E+03  5.31682E+03 -5.67035E+03
  4.46821E+03 -3.23239E+03  4.41477E+03 -4.54623E+03  5.97348E+03 -4.22874E+03  8.90571E+03 -2.51355E+03
  1.21164E+04  2.30615E+03  6.68616E+03  1.06982E+04 -2.54998E+03  1.30090E+04 -1.29728E+04  9.87937E+03
 -1.68029E+04 -1.86370E+03 -1.08701E+04 -1.22027E+04 -1.79740E+03 -1.84504E+04  1.00497E+04 -1.83621E+04
  1.88779E+04 -9.97216E+03  2.21552E+04  3.07943E+03  1.56890E+04  1.60984E+04  2.37475E+03  2.04753E+04
 -8.85813E+03  1.63828E+04 -1.23085E+04  5.48547E+03 -8.34937E+03 -1.64505E+03 -3.23773E+03 -2.54883E+03
 -1.85352E+03 -5.54806E+02 -2.73883E+03  2.61881E+03 -7.39292E+03  2.67261E+03 -1.11547E+04 -1.29814E+03
 -8.49679E+03 -1.16794E+04 -4.73964E+01 -1.70898E+04  1.04759E+04 -1.58584E+04  1.72347E+04 -4.83602E+03
  1.65747E+04  8.39875E+03  7.97197E+03  1.57562E+04 -3.30822E+03  1.68779E+04 -1.22865E+04  1.12572E+04
 -1.66311E+04  6.59932E+02 -1.23665E+04 -1.10062E+04 -1.21031E+03 -1.44223E+04  7.59386E+03 -1.06318E+04
  1.12898E+04 -3.30806E+03  7.93596E+03  2.98819E+03  2.86850E+03  5.05503E+03  1.83007E+03  2.23961E+03
  3.54698E+03  1.33047E+03  4.03613E+03  2.13003E+03  5.32445E+03  5.44732E+03  4.17553E+03  9.21093E+03
 -3.12309E+03  1.42796E+04 -1.21194E+04  1.40612E+04 -1.87690E+04  3.50028E+03 -1.85127E+04 -7.68730E+03
 -8.89653E+03 -1.84294E+04  2.86382E+03 -1.94209E+04  1.12024E+04 -1.21956E+04  1.46383E+04 -3.11103E+03
  1.13301E+04  6.70865E+03  2.20407E+03  1.01311E+04 -4.96987E+03  6.69460E+03 -7.55471E+03 -1.16870E+03
 -3.99522E+03 -7.36451E+03  3.80894E+03 -8.24181E+03  7.79984E+03 -4.22599E+03  7.44764E+03  1.70013E+03
  4.80756E+03  3.28215E+03  1.85918E+03  3.20608E+03 -9.04120E+02  2.34081E+03  1.98134E+03 -6.91638E+02
  3.07445E+03 -1.00971E+03  7.21797E+03  2.80532E+03  4.29737E+03  9.06305E+03 -1.23617E+03  1.26326E+04
 -8.12233E+03  8.05121E+03 -1.20476E+04  2.17017E+03 -9.92168E+03 -4.15045E+03 -4.35287E+03 -7.35625E+03
  1.45850E+03 -7.31658E+03  4.66918E+03 -3.52351E+03  4.11744E+03  3.36169E+03 -2.31760E+03  6.08724E+03
 -7.67826E+03  3.60525E+03 -8.69068E+03 -4.33213E+03 -4.80840E+03 -1.01771E+04  1.51897E+03 -1.02340E+04
  6.33086E+03 -6.25244E+03  7.87915E+03 -1.10327E+03  6.01651E+03  2.92386E+03  7.92739E+02  5.28290E+03
 -3.67364E+03  1.98687E+03 -4.76487E+03 -3.59240E+03  1.48693E+03 -8.06697E+03  9.06172E+03 -6.49450E+03
  1.18464E+04  5.63155E+02  1.10765E+04  7.86098E+03  3.62865E+03  1.25769E+04 -4.55079E+03  1.14404E+04
 -9.66055E+03  4.83784E+03 -1.06015E+04 -1.30887E+03 -5.60800E+03 -8.00183E+03  1.94678E+03 -7.99245E+03
  7.64895E+03 -3.77645E+03  6.66212E+03  2.79806E+03  2.76510E+03  6.27272E+03 -1.33989E+03  6.07429E+03
 -3.35498E+03  4.10740E+03 -2.64487E+03  8.20106E+02 -1.66318E+03  1.15696E+03 -1.99278E+03  2.35518E+03
 -3.19700E+03  4.65268E+03 -8.18476E+03  4.26313E+03 -1.26286E+04  1.08122E+02 -1.37380E+04 -8.40836E+03
 -7.19305E+03 -1.62306E+04  3.13975E+03 -1.89841E+04  1.14347E+04 -1.43609E+04  1.78296E+04 -5.46929E+03
  1.66505E+04  3.76155E+03  1.05542E+04  1.15783E+04  1.06349E+03  1.28452E+04 -5.29332E+03  9.43011E+03
 -7.57876E+03  3.48383E+03 -4.25699E+03 -1.49620E+03 -1.53896E+03 -1.79630E+03 -4.93650E+02 -7.89305E+01
 -1.64456E+03  5.85940E+02 -2.36252E+03 -2.54706E+02 -1.38057E+03 -2.72292E+03 -5.65912E+01 -4.85515E+03
  5.99744E+03 -4.04810E+03  8.30719E+03  4.18726E+02  9.29493E+03  6.92075E+03  2.91043E+03  1.30095E+04
 -6.48619E+03  1.47034E+04 -1.40207E+04  8.80033E+03 -1.64407E+04 -1.35173E+03 -1.19490E+04 -9.32756E+03
 -5.07914E+03 -1.36443E+04  3.76297E+03 -1.23136E+04  8.84264E+03 -6.27870E+03  9.04126E+03  2.04684E+02
  4.86851E+03  3.72261E+03 -5.35160E+02  3.55017E+03 -2.53708E+03 -2.28199E+02  2.97915E+02 -3.11185E+03
  3.87701E+03 -2.11347E+03  5.34443E+03  1.24384E+03  3.92879E+03  4.73471E+03  2.07433E+02  7.02691E+03
 -5.85066E+03  6.15807E+03 -8.71565E+03  7.23474E+02 -7.83424E+03 -6.75208E+03 -1.44493E+03 -1.09990E+04
  6.08209E+03 -9.58425E+03  1.03883E+04 -3.03661E+03  1.04743E+04  2.74016E+03  5.98671E+03  8.32985E+03
  1.18403E+03  8.80111E+03 -3.33721E+03  7.45631E+03 -5.61067E+03  3.80719E+03 -4.54244E+03  5.88334E+02
 -2.27890E+03 -6.83363E+02 -2.18008E+03  1.17122E+03 -4.62691E+03  1.57857E+03 -6.77961E+03 -1.21907E+03
 -6.47240E+03 -4.40535E+03 -1.77411E+03 -8.62315E+03  3.77894E+03 -8.58312E+03  7.69842E+03 -4.30249E+03
  8.74900E+03  1.02178E+03  5.03825E+03  6.48185E+03 -5.41234E+02  9.34604E+03 -7.21194E+03  5.86746E+03
