 $NMID ID='MM_0lb_SNR800_11hz_g60_64.RAW', FMTDAT='(8E13.5)'
 TRAMP=1., VOLUME=1. $END
  3.09791E+05  5.04071E+02  3.38087E+05  2.50736E+05  8.50769E+04  3.38676E+05 -1.32912E+05  2.52068E+05
 -1.91007E+05  8.40162E+04 -1.12174E+05 -3.24001E+04  2.23530E+02 -5.02425E+04  5.35653E+04 -1.48648E+02
  3.56810E+04  5.27493E+04 -1.65584E+04  7.61572E+04 -6.13805E+04  6.44367E+04 -8.52927E+04  3.26540E+04
 -8.23442E+04 -1.21176E+04 -5.76760E+04 -5.23822E+04 -1.50766E+04 -7.06596E+04  2.81174E+04 -4.67904E+04
  4.08920E+04  3.72995E+03  1.68506E+04  4.85825E+04 -3.48584E+04  4.83103E+04 -6.81340E+04  1.66429E+02
 -5.48503E+04 -5.77503E+04 -7.37889E+03 -7.90012E+04  3.45909E+04 -5.65536E+04  4.95322E+04 -1.77855E+04
  4.54153E+04  1.12969E+04  3.27606E+04  2.63771E+04  1.58823E+04  3.05101E+04 -5.87142E+03  2.75679E+04
 -2.25385E+04  1.16454E+04 -1.79541E+04 -5.30820E+03  6.97610E+03 -7.24714E+03  2.35482E+04  1.37274E+04
  7.18002E+03  3.72975E+04 -3.36806E+04  3.70343E+04 -6.57792E+04  2.24185E+03 -5.86040E+04 -4.49956E+04
 -1.24378E+04 -6.53153E+04  4.12882E+04 -4.71412E+04  6.07524E+04 -2.39714E+03  3.63703E+04  3.43256E+04
 -5.54179E+03  3.92139E+04 -3.17310E+04  1.81779E+04 -3.29691E+04 -3.52144E+03 -1.92621E+04 -1.14985E+04
 -9.49763E+03 -1.44493E+04 -6.08906E+02 -1.96144E+04  8.40045E+03 -2.33598E+04  1.61404E+04 -1.27310E+04
  1.01745E+04  6.23588E+03 -9.98405E+03  1.28278E+04 -2.30864E+04 -6.35545E+03 -8.23163E+03 -3.68822E+04
  2.48506E+04 -4.66444E+04  5.14662E+04 -2.05014E+04  4.83696E+04  2.04046E+04  1.73511E+04  4.71804E+04
 -1.65010E+04  3.55539E+04 -2.72990E+04  2.38956E+03 -1.16755E+04 -2.93250E+04  2.13674E+04 -3.64340E+04
  4.42444E+04 -1.12094E+04  3.97379E+04  2.44275E+04  2.12634E+04  5.03644E+04 -8.44833E+03  5.53954E+04
 -3.47636E+04  3.75884E+04 -4.65761E+04  1.10138E+04 -4.68781E+04 -1.82126E+04 -2.55605E+04 -4.18095E+04
  7.72772E+03 -4.12123E+04  3.35469E+04 -1.70146E+04  3.20043E+04  1.08986E+04  5.16034E+03  2.08186E+04
 -1.40892E+04  9.63211E+03 -1.08156E+04 -7.14271E+03  5.52472E+03 -1.13993E+04  1.85694E+04  5.61466E+03
  1.47888E+04  2.28331E+04 -5.54278E+03  2.66555E+04 -2.34159E+04  1.40632E+04 -3.10560E+04 -2.88615E+03
 -2.46428E+04 -1.86442E+04 -1.15411E+04 -2.40122E+04  4.34906E+03 -2.47098E+04  1.92016E+04 -2.19002E+04
  3.11860E+04 -1.39002E+04  3.68585E+04  4.21658E+03  2.65141E+04  2.31295E+04  4.54815E+03  4.03645E+04
 -1.89956E+04  3.34720E+04 -3.01803E+04  1.17348E+04 -2.21206E+04 -1.06680E+04 -4.83620E+03 -1.27726E+04
  1.07850E+03 -1.39616E+03 -6.89465E+03  7.80429E+03 -1.96151E+04  5.63495E+03 -1.94925E+04 -9.66310E+03
 -1.16075E+04 -2.22759E+04  5.99306E+03 -2.71074E+04  1.86678E+04 -1.95019E+04  2.19096E+04 -1.83963E+03
  1.40233E+04  1.55545E+04 -1.38064E+03  2.25908E+04 -1.61798E+04  1.27199E+04 -2.29573E+04 -4.62115E+03
 -1.64639E+04 -1.98037E+04 -2.18377E+03 -2.69223E+04  1.22390E+04 -2.22413E+04  2.24269E+04 -1.15896E+04
  2.09862E+04 -5.97229E+01  1.51649E+04  5.14608E+03  8.29428E+03  1.06796E+03  1.13464E+04 -2.02108E+03
  2.10748E+04  3.01728E+03  2.47754E+04  1.77206E+04  1.67168E+04  3.62723E+04 -2.57003E+03  4.25416E+04
 -2.40882E+04  3.53492E+04 -4.02567E+04  1.82632E+04 -4.23221E+04 -2.94357E+03 -3.47707E+04 -2.51367E+04
 -1.40220E+04 -3.51694E+04  1.26166E+04 -3.11722E+04  2.66379E+04 -1.47012E+04  2.30187E+04  7.10687E+03
  8.07582E+03  1.75816E+04 -1.07523E+04  1.51166E+04 -1.93330E+04  2.58291E+03 -1.47938E+04 -1.21379E+04
 -7.81555E+00 -1.87941E+04  1.04330E+04 -1.39414E+04  1.25939E+04 -1.16147E+03  3.08781E+03  8.09314E+03
 -8.35797E+03  3.69682E+03 -8.40138E+03 -6.56086E+03 -1.56424E+03 -1.70114E+04  1.11236E+04 -1.84166E+04
  2.14605E+04 -1.03528E+04  2.45807E+04  3.46103E+03  2.13513E+04  1.75589E+04  9.96582E+03  2.73685E+04
 -4.77241E+03  2.92063E+04 -1.87462E+04  1.82253E+04 -2.13293E+04  3.85954E+03 -1.48800E+04 -5.35241E+03
 -5.97895E+03 -6.77803E+03 -9.60933E+02  2.75006E+02 -2.94841E+03  3.60189E+03 -7.00401E+03  4.84984E+03
 -1.36804E+04 -9.22936E+02 -1.37033E+04 -1.16000E+04 -5.75595E+03 -1.79899E+04  6.14214E+03 -1.46255E+04
  1.22366E+04 -6.34927E+03  8.67950E+03  4.00188E+03 -1.96262E+02  5.93776E+03 -6.81702E+03 -1.18757E+02
 -6.86219E+03 -9.23457E+03 -9.50329E+02 -1.43231E+04  8.60902E+03 -1.54154E+04  1.87206E+04 -8.47323E+03
  2.17980E+04  1.95916E+03  1.57780E+04  1.32473E+04  3.17072E+03  1.73845E+04 -8.95576E+03  1.45197E+04
 -1.15085E+04  4.17662E+03 -6.40977E+03 -3.31777E+03  1.57314E+03 -4.17435E+03  7.88412E+03 -9.32899E+02
  7.12222E+03  6.24975E+03  1.17711E+03  1.20099E+04 -8.23686E+03  1.09363E+04 -1.44571E+04  2.60983E+03
 -9.78602E+03 -7.22048E+03 -1.37123E+01 -1.26704E+04  7.92052E+03 -6.53988E+03  8.03371E+03  3.20149E+03
  2.43300E+03  8.85216E+03 -7.57488E+03  1.07918E+04 -1.23252E+04  4.78703E+03 -1.26753E+04 -4.60575E+03
 -7.20769E+03 -1.45143E+04  3.22827E+03 -1.62503E+04  1.41034E+04 -1.00874E+04  1.53337E+04  2.74241E+03
  9.41785E+03  1.18774E+04 -1.55106E+03  1.45762E+04 -1.08972E+04  8.04231E+03 -1.16192E+04 -1.33824E+03
 -9.91094E+03 -9.88160E+03 -1.51903E+03 -1.11463E+04  5.44971E+03 -9.00465E+03  6.55647E+03 -3.53719E+03
  4.54868E+03  1.74359E+03 -9.95795E+02  1.71260E+03 -4.45802E+02 -3.01288E+03  2.19628E+03 -6.55196E+03
  1.00056E+04 -4.14231E+03  1.43913E+04  1.57870E+03  1.41016E+04  9.37916E+03  9.11877E+03  1.86046E+04
 -4.44389E+03  2.12235E+04 -1.78465E+04  1.57925E+04 -2.29051E+04  3.00889E+03 -1.86523E+04 -8.01764E+03
 -9.19505E+03 -1.53982E+04 -5.78017E+02 -1.26145E+04  4.76389E+03 -7.25769E+03  4.60793E+03 -4.72157E+03
  3.43585E+03 -2.64819E+03  3.62302E+03 -3.89657E+03  5.21193E+03 -3.52478E+03  7.61643E+03 -1.31051E+03
  9.86868E+03  2.19508E+03  5.19059E+03  8.82219E+03 -1.93679E+03  9.79089E+03 -9.95793E+03  7.40824E+03
 -1.28051E+04 -1.19393E+03 -7.84341E+03 -8.78998E+03 -9.69250E+02 -1.36601E+04  7.49336E+03 -1.39497E+04
  1.41375E+04 -8.01880E+03  1.73745E+04  2.12585E+03  1.15995E+04  1.23813E+04  1.59910E+03  1.53126E+04
 -6.00620E+03  1.24946E+04 -8.89527E+03  4.37115E+03 -6.04745E+03 -1.89368E+03 -2.52806E+03 -2.07650E+03
 -1.51677E+03  8.70462E+01 -1.90039E+03  2.79570E+03 -5.54384E+03  1.93146E+03 -8.79421E+03 -1.38507E+03
 -6.10408E+03 -8.76603E+03  2.47442E+02 -1.23282E+04  7.85582E+03 -1.21689E+04  1.25135E+04 -3.68789E+03
  1.22757E+04  6.12793E+03  5.70428E+03  1.10364E+04 -2.76441E+03  1.30565E+04 -9.19547E+03  7.84772E+03
 -1.20851E+04  6.67970E+02 -9.24332E+03 -7.55073E+03 -9.88332E+02 -1.04590E+04  5.32785E+03 -7.39328E+03
  8.16552E+03 -2.45905E+03  5.74255E+03  2.26460E+03  1.91404E+03  3.32016E+03  1.46763E+03  1.90378E+03
  2.19440E+03  1.21036E+03  3.37886E+03  1.77243E+03  3.70301E+03  4.48360E+03  2.92232E+03  6.75346E+03
 -2.84742E+03  9.80060E+03 -8.68436E+03  1.00837E+04 -1.27876E+04  2.59291E+03 -1.32662E+04 -5.03407E+03
 -6.66070E+03 -1.24020E+04  1.88513E+03 -1.34721E+04  7.40931E+03 -8.77302E+03  1.01772E+04 -2.70380E+03
  8.06057E+03  4.60135E+03  1.85439E+03  7.21976E+03 -3.73034E+03  4.57598E+03 -5.04723E+03 -8.74777E+02
 -2.06409E+03 -5.06080E+03  3.42983E+03 -5.54501E+03  5.18371E+03 -2.83101E+03  4.99041E+03  9.04255E+02
  3.35075E+03  2.41569E+03  1.08006E+03  1.82871E+03 -4.07622E+02  1.57293E+03  1.76687E+03 -3.13076E+02
  1.85641E+03 -1.09727E+03  5.09357E+03  1.96839E+03  2.93311E+03  6.90620E+03 -8.83780E+02  8.74580E+03
 -5.49996E+03  5.65500E+03 -7.78653E+03  1.51607E+03 -7.18900E+03 -2.91235E+03 -2.51010E+03 -4.67112E+03
  9.97745E+02 -4.82005E+03  3.64753E+03 -2.18199E+03  2.79946E+03  2.63574E+03 -1.63417E+03  4.06932E+03
 -5.20329E+03  2.37242E+03 -5.64779E+03 -3.00192E+03 -3.32859E+03 -7.16057E+03  1.28832E+03 -6.89275E+03
  4.07816E+03 -3.59943E+03  4.54432E+03 -2.63556E+02  4.57531E+03  1.61931E+03  3.77240E+02  3.44702E+03
 -2.35085E+03  1.14715E+03 -3.12113E+03 -2.52010E+03  1.43080E+03 -4.58254E+03  6.21424E+03 -4.30967E+03
  7.11018E+03  6.67150E+02  7.59120E+03  5.20295E+03  2.42725E+03  8.19019E+03 -2.85253E+03  7.19593E+03
 -6.26443E+03  3.26979E+03 -6.73572E+03 -1.06708E+03 -3.32871E+03 -5.44126E+03  8.20318E+02 -4.67988E+03
  5.17021E+03 -2.56085E+03  3.97447E+03  2.08136E+03  1.37641E+03  4.46929E+03 -3.62831E+02  3.80381E+03
 -1.80288E+03  2.75881E+03 -1.87253E+03  1.06917E+03 -7.41304E+02  7.44395E+02 -1.23040E+03  1.51890E+03
 -2.18050E+03  2.93393E+03 -5.43308E+03  2.29444E+03 -7.72752E+03  3.21666E+01 -8.75339E+03 -4.79673E+03
 -4.48575E+03 -1.02474E+04  2.11162E+03 -1.16689E+04  7.04306E+03 -9.30564E+03  1.10820E+04 -3.69024E+03
  1.05735E+04  2.16054E+03  6.35254E+03  7.38095E+03  8.56064E+02  8.04492E+03 -2.94172E+03  5.98569E+03
 -4.28755E+03  2.36746E+03 -2.62269E+03 -1.02873E+03 -1.14095E+03 -4.80228E+02 -7.35730E+02  1.04788E+02
 -2.30201E+03 -7.48186E+01 -1.84923E+03 -4.26869E+02 -4.59116E+02 -2.05036E+03  1.38558E+02 -3.17819E+03
  3.62908E+03 -2.62924E+03  4.59719E+03  4.05755E+02  5.22061E+03  4.06979E+03  1.26769E+03  7.41343E+03
 -3.86266E+03  8.70746E+03 -8.16731E+03  5.27183E+03 -9.32189E+03 -8.91991E+02 -7.19966E+03 -5.92890E+03
 -3.21545E+03 -7.74382E+03  1.95563E+03 -7.22852E+03  4.82825E+03 -4.05820E+03  5.26152E+03 -1.26943E+02
  3.28177E+03  2.87281E+03 -2.17985E+02  2.10530E+03 -1.52973E+03 -4.99023E+01  1.32441E+02 -1.50041E+03
  2.38750E+03 -8.87878E+02  2.70320E+03  4.42180E+02  2.24820E+03  3.14293E+03  4.49528E+00  3.59537E+03
 -3.06653E+03  3.64912E+03 -4.70357E+03  9.09457E+01 -4.64517E+03 -3.57146E+03 -5.20045E+02 -5.99102E+03
  3.48705E+03 -4.95705E+03  5.44963E+03 -1.63598E+03  5.90504E+03  1.25209E+03  3.53166E+03  4.69538E+03
  8.60957E+02  5.01023E+03 -1.99810E+03  3.88759E+03 -3.28580E+03  2.33052E+03 -2.64484E+03  1.12414E+02
 -1.58980E+03 -2.26502E+02 -1.45113E+03  5.87600E+02 -2.85675E+03  5.53710E+02 -3.33290E+03 -7.53902E+02
 -3.70400E+03 -2.05958E+03 -6.69449E+02 -5.32490E+03  2.33688E+03 -5.45449E+03  4.40795E+03 -2.52133E+03
  4.90236E+03  6.24991E+02  2.27495E+03  3.44416E+03 -5.76424E+02  4.44715E+03 -3.68470E+03  3.28533E+03
