 $NMID ID='MM_0lb_SNR800_16hz_g50_37.RAW', FMTDAT='(8E13.5)'
 TRAMP=1., VOLUME=1. $END
  3.09513E+05  5.14307E+02  3.37833E+05  2.50530E+05  8.46798E+04  3.37518E+05 -1.33050E+05  2.50919E+05
 -1.90199E+05  8.27329E+04 -1.11610E+05 -3.26286E+04  1.19910E+03 -5.03435E+04  5.37296E+04 -8.54273E+01
  3.50996E+04  5.29686E+04 -1.71166E+04  7.51750E+04 -6.06699E+04  6.32076E+04 -8.31576E+04  3.16649E+04
 -8.04528E+04 -1.12801E+04 -5.69513E+04 -5.07768E+04 -1.51629E+04 -6.91909E+04  2.75330E+04 -4.56039E+04
  3.98760E+04  3.51368E+03  1.57922E+04  4.74549E+04 -3.41589E+04  4.66617E+04 -6.63104E+04 -4.93917E+02
 -5.28447E+04 -5.69633E+04 -6.64752E+03 -7.65158E+04  3.37372E+04 -5.45010E+04  4.72048E+04 -1.71079E+04
  4.25123E+04  1.13301E+04  3.13212E+04  2.51780E+04  1.56017E+04  2.92072E+04 -5.00239E+03  2.71656E+04
 -2.18611E+04  1.27131E+04 -1.89652E+04 -4.70596E+03  5.06054E+03 -7.50250E+03  2.22405E+04  1.19179E+04
  7.27038E+03  3.42004E+04 -3.17106E+04  3.49009E+04 -6.23629E+04  2.13973E+03 -5.66653E+04 -4.22234E+04
 -1.22895E+04 -6.21657E+04  3.90171E+04 -4.49336E+04  5.73719E+04 -2.11003E+03  3.31277E+04  3.19125E+04
 -6.35496E+03  3.50829E+04 -2.94360E+04  1.51263E+04 -2.93077E+04 -4.78191E+03 -1.57003E+04 -1.05837E+04
 -8.14061E+03 -1.24509E+04 -1.02866E+03 -1.77585E+04  7.33460E+03 -2.31383E+04  1.51231E+04 -1.33836E+04
  1.15588E+04  4.32439E+03 -7.55684E+03  1.28948E+04 -2.06120E+04 -3.70163E+03 -8.16256E+03 -3.22794E+04
  2.19773E+04 -4.22587E+04  4.66530E+04 -1.92897E+04  4.40216E+04  1.89171E+04  1.52378E+04  4.35332E+04
 -1.57908E+04  3.21836E+04 -2.45766E+04  1.86789E+03 -9.30720E+03 -2.72520E+04  2.07485E+04 -3.29929E+04
  3.99638E+04 -8.35882E+03  3.39140E+04  2.33195E+04  1.71010E+04  4.48338E+04 -7.82542E+03  4.84256E+04
 -3.04704E+04  3.19047E+04 -4.02637E+04  9.18289E+03 -4.09959E+04 -1.61019E+04 -2.26718E+04 -3.64012E+04
  7.37743E+03 -3.62517E+04  3.01919E+04 -1.39506E+04  2.81587E+04  1.09379E+04  3.68509E+03  1.84977E+04
 -1.32176E+04  7.95683E+03 -1.04110E+04 -7.77985E+03  5.75405E+03 -1.06316E+04  1.79774E+04  6.14415E+03
  1.29371E+04  2.20243E+04 -6.09692E+03  2.40663E+04 -2.20830E+04  1.05779E+04 -2.69137E+04 -5.52765E+03
 -1.91168E+04 -1.70529E+04 -7.30628E+03 -1.91351E+04  4.15546E+03 -1.79024E+04  1.43344E+04 -1.66836E+04
  2.41442E+04 -1.22505E+04  3.08524E+04  2.15424E+03  2.26016E+04  1.83440E+04  4.31826E+03  3.47678E+04
 -1.71796E+04  2.94642E+04 -2.70993E+04  1.00131E+04 -2.07010E+04 -1.02040E+04 -4.31726E+03 -1.34999E+04
  2.31622E+03 -3.31767E+03 -4.15798E+03  5.89157E+03 -1.48931E+04  4.88586E+03 -1.52298E+04 -6.09729E+03
 -9.68475E+03 -1.77009E+04  4.85620E+03 -2.19369E+04  1.43803E+04 -1.54583E+04  1.65160E+04 -1.66982E+03
  1.04169E+04  1.21956E+04 -1.18087E+03  1.78296E+04 -1.17851E+04  9.99651E+03 -1.78629E+04 -3.94554E+03
 -1.32218E+04 -1.61997E+04 -1.40283E+03 -2.13974E+04  9.78241E+03 -1.72812E+04  1.81706E+04 -8.19071E+03
  1.65197E+04  5.76532E+02  1.17581E+04  4.19196E+03  6.23099E+03  6.91841E+02  8.82813E+03 -1.51653E+03
  1.58769E+04  2.83802E+03  1.74696E+04  1.40672E+04  1.11952E+04  2.77621E+04 -3.07808E+03  3.10141E+04
 -1.81381E+04  2.41420E+04 -2.85910E+04  1.21111E+04 -3.00091E+04 -1.91899E+03 -2.48865E+04 -1.71073E+04
 -1.14212E+04 -2.44327E+04  8.33810E+03 -2.21608E+04  1.92870E+04 -1.20280E+04  1.75610E+04  4.72409E+03
  7.13183E+03  1.30129E+04 -8.10642E+03  1.18379E+04 -1.48842E+04  2.46294E+03 -1.14492E+04 -8.98358E+03
 -1.99607E+02 -1.39444E+04  7.01644E+03 -1.04959E+04  9.58445E+03 -1.35687E+03  1.85150E+03  5.76845E+03
 -6.26106E+03  1.87756E+03 -5.11393E+03 -5.16718E+03  4.55563E+01 -1.23231E+04  8.76077E+03 -1.23153E+04
  1.47321E+04 -6.10098E+03  1.55145E+04  3.25908E+03  1.34443E+04  1.15668E+04  5.98353E+03  1.75606E+04
 -2.28996E+03  1.93472E+04 -1.21860E+04  1.24099E+04 -1.37932E+04  3.35990E+03 -1.00532E+04 -2.75767E+03
 -4.97152E+03 -4.05302E+03 -5.98101E+02  9.53090E+02 -2.19016E+03  2.44710E+03 -4.49134E+03  3.88135E+03
 -9.46992E+03 -4.09512E+02 -1.02611E+04 -8.23715E+03 -4.09478E+03 -1.32894E+04  4.06031E+03 -1.03715E+04
  8.81275E+03 -4.31556E+03  5.81729E+03  2.53008E+03  6.81268E+02  3.92184E+03 -4.77033E+03 -2.67129E+02
 -4.42969E+03 -6.36654E+03 -7.66578E+02 -9.28747E+03  5.00657E+03 -9.79453E+03  1.22930E+04 -5.11614E+03
  1.43908E+04  1.16144E+03  1.08777E+04  7.84900E+03  1.89437E+03  1.07975E+04 -6.06146E+03  1.00403E+04
 -7.99867E+03  3.30540E+03 -4.14518E+03 -1.57381E+03  1.72539E+03 -2.21141E+03  5.70999E+03 -1.05433E+03
  4.80584E+03  4.19791E+03  1.34253E+03  7.56119E+03 -5.82087E+03  7.87005E+03 -9.58381E+03  2.06338E+03
 -6.03145E+03 -4.66167E+03  1.12455E+02 -7.99387E+03  4.81389E+03 -3.99633E+03  4.68994E+03  1.51017E+03
  8.62731E+02  4.78326E+03 -5.13392E+03  6.10849E+03 -6.79525E+03  2.89406E+03 -6.45272E+03 -2.03781E+03
 -3.89052E+03 -8.30191E+03  1.56753E+03 -9.10621E+03  7.89965E+03 -6.03077E+03  8.51658E+03  1.17523E+03
  5.70277E+03  6.81316E+03 -3.82447E+02  8.76535E+03 -6.26315E+03  5.25798E+03 -6.70672E+03 -1.67477E+02
 -6.76947E+03 -6.23565E+03 -1.33809E+03 -6.37460E+03  3.60082E+03 -5.60253E+03  3.84346E+03 -3.27643E+03
  2.98743E+03  8.16197E+02 -2.80572E+02  1.54528E+03  2.05313E+02 -9.87688E+02  7.02296E+02 -2.72693E+03
  5.53961E+03 -1.80812E+03  7.12726E+03  1.02477E+03  7.64317E+03  4.79651E+03  6.15171E+03  9.77942E+03
 -1.91539E+03  1.14526E+04 -9.87806E+03  8.54006E+03 -1.33458E+04  1.58472E+03 -1.03048E+04 -3.98099E+03
 -5.34204E+03 -8.53468E+03 -5.75019E+02 -6.86144E+03  2.65490E+03 -3.58479E+03  2.78832E+03 -2.78269E+03
  1.64171E+03 -1.89913E+03  2.36050E+03 -2.45883E+03  4.33847E+03 -1.83191E+03  4.51393E+03  2.70393E+02
  5.58416E+03  1.38468E+03  2.11252E+03  4.39066E+03 -1.32713E+03  4.21461E+03 -5.95365E+03  3.80511E+03
 -6.99924E+03 -1.10598E+03 -3.61608E+03 -4.66685E+03  7.18523E+00 -7.06685E+03  4.27902E+03 -7.32112E+03
  7.29560E+03 -4.49367E+03  9.10976E+03  4.64521E+02  6.56034E+03  6.00493E+03  1.07223E+03  8.20794E+03
 -3.13983E+03  7.27170E+03 -4.84783E+03  2.19036E+03 -3.11657E+03 -1.09080E+03 -1.12183E+03 -1.05480E+03
 -5.81183E+02  2.40610E+02 -1.12601E+03  1.91098E+03 -3.27567E+03  1.31319E+03 -5.20586E+03 -6.64720E+02
 -2.62777E+03 -4.97981E+03  7.24871E+02 -6.55538E+03  3.86763E+03 -5.76740E+03  5.55273E+03 -1.63743E+03
  5.71418E+03  3.58065E+03  2.79079E+03  5.07494E+03 -1.32019E+03  6.48382E+03 -3.94434E+03  3.78155E+03
 -5.56328E+03  5.48153E+02 -4.62799E+03 -3.73324E+03 -2.46855E+02 -4.83837E+03  2.66783E+03 -3.88189E+03
  3.70320E+03 -2.03584E+03  2.67658E+03  7.72037E+02  6.80998E+02  2.22560E+03  8.51766E+02  5.23332E+02
  1.75902E+03  4.60306E+02  1.73162E+03  1.04769E+03  1.75983E+03  2.74224E+03  1.78506E+03  2.68997E+03
 -1.24754E+03  4.35270E+03 -3.87063E+03  5.27569E+03 -5.16778E+03  1.71014E+03 -5.97543E+03 -1.38289E+03
 -2.74160E+03 -5.65390E+03  6.74156E+02 -6.96074E+03  3.12816E+03 -3.95180E+03  4.78383E+03 -1.32550E+03
  3.66065E+03  2.28659E+03  7.40404E+02  3.53612E+03 -1.06938E+03  1.74233E+03 -1.89581E+03 -4.30183E+02
 -7.63868E+02 -2.38281E+03  1.54724E+03 -2.28222E+03  2.07666E+03 -1.37233E+03  2.01867E+03  5.44043E+02
  1.09674E+03  8.07331E+02  8.99679E+02  2.08910E+02 -3.99599E+02  9.21946E+02  1.64608E+03 -5.51745E+02
  8.83238E+01 -3.81823E+02  2.62346E+03  9.17640E+02  5.41417E+02  3.38994E+03 -5.52154E+02  4.03223E+03
 -2.63236E+03  2.16925E+03 -3.47153E+03  6.06018E+02 -3.03570E+03 -1.00239E+03 -6.26943E+02 -1.49978E+03
  3.76927E+02 -1.99570E+03  1.32770E+03 -9.24092E+02  9.51843E+02  1.37854E+03 -8.27243E+02  1.82367E+03
 -2.46749E+03  1.25315E+03 -1.81243E+03 -1.88823E+03 -1.07257E+03 -2.85402E+03  3.96445E+02 -2.65761E+03
  1.12518E+03 -6.72223E+02  1.35325E+03  1.46533E-01  2.19311E+03  2.59189E+02  2.88973E+02  1.43703E+03
 -7.36834E+02  1.74148E+02 -1.37815E+03 -7.99884E+02  9.28005E+02 -1.55434E+03  2.28965E+03 -1.61767E+03
  2.13604E+03  1.05863E+02  3.71649E+03  1.52193E+03  1.46701E+03  2.90678E+03 -7.93987E+02  3.04650E+03
 -2.08538E+03  8.05107E+02 -2.30040E+03 -3.06217E+02 -1.30930E+03 -2.18610E+03  5.67726E+02 -1.23187E+03
  2.17115E+03 -1.18676E+03  1.46958E+03  1.03452E+03  3.25200E+02  2.02685E+03  1.54078E+02  1.66755E+03
 -8.10433E+02  1.52557E+03 -7.42457E+02  2.50933E+02 -1.73582E+02  6.47485E+02 -8.57496E+02  7.23394E+02
 -9.36227E+02  1.25170E+03 -2.36466E+03  9.45792E+02 -2.87690E+03  1.82478E+02 -3.54074E+03 -1.88622E+03
 -1.58959E+03 -3.84952E+03  9.53491E+02 -4.60605E+03  2.25747E+03 -3.63106E+03  4.58361E+03 -1.51623E+03
  3.85565E+03  4.49071E+02  2.13995E+03  2.63042E+03 -3.99066E+02  2.65229E+03 -1.14951E+03  2.32341E+03
 -1.83467E+03  1.12409E+03 -7.82342E+02 -2.80806E+02 -4.04018E+02  7.04522E+01 -6.49959E+02  1.05554E+02
 -1.12008E+03 -1.46556E+00 -8.59099E+02 -3.93524E+01  2.19305E+02 -8.69915E+02 -4.36633E+02 -8.67759E+02
  1.64133E+03 -1.08996E+03  1.25023E+03 -6.98385E+01  1.96760E+03  1.68927E+03 -1.72030E+02  2.71178E+03
 -1.60833E+03  3.18274E+03 -2.71925E+03  2.38724E+03 -2.92286E+03 -3.47743E+02 -2.24711E+03 -2.29827E+03
 -1.07719E+03 -2.37260E+03  2.68325E+02 -2.09501E+03  1.38870E+03 -1.15785E+03  1.18091E+03  1.96685E+02
  1.13772E+03  8.81130E+02  2.56493E+02  5.78045E+02 -5.10690E+02 -4.56935E+01  6.89041E+01 -5.47963E+02
  1.17532E+03 -2.27769E+02  6.67948E+02  4.27615E+02  2.40938E+02  9.07625E+02  3.50557E+02  7.00171E+02
 -1.09132E+03  9.96798E+02 -1.41488E+03  1.10893E+02 -1.64020E+03 -1.07383E+03 -3.10635E+02 -1.82727E+03
  1.28929E+03 -1.37820E+03  1.57569E+03 -1.55568E+02  1.58722E+03 -1.54860E+02  9.60394E+02  1.46323E+03
  5.90309E+02  1.21081E+03 -4.57415E+02  1.22883E+03 -8.94404E+02  8.32429E+02 -9.15575E+02  4.27248E+02
 -3.21882E+02  1.85912E+02 -5.07584E+02  2.97516E+02 -8.71947E+02  2.37066E+02 -1.19536E+03 -3.05978E+02
 -1.56326E+03 -1.74517E+02 -2.51423E+02 -1.19303E+03  9.79646E+02 -1.94467E+03  1.74454E+03 -3.91509E+02
  1.26658E+03  2.57868E+02  1.10221E+02  9.06836E+02 -1.88425E+02  1.66181E+03 -6.42818E+02  1.03086E+03
