 $NMID ID='MM_0lb_SNR800_14hz_g60_85.RAW', FMTDAT='(8E13.5)'
 TRAMP=1., VOLUME=1. $END
  3.10029E+05  4.87253E+02  3.37650E+05  2.50502E+05  8.48998E+04  3.38192E+05 -1.32595E+05  2.51415E+05
 -1.90657E+05  8.33415E+04 -1.12127E+05 -3.24171E+04  3.91882E+02 -5.05803E+04  5.38720E+04 -3.62736E+02
  3.58575E+04  5.28266E+04 -1.68385E+04  7.57578E+04 -6.09611E+04  6.41545E+04 -8.42286E+04  3.23026E+04
 -8.14943E+04 -1.16416E+04 -5.76795E+04 -5.18512E+04 -1.51511E+04 -7.03535E+04  2.79170E+04 -4.62663E+04
  4.05958E+04  3.51191E+03  1.61931E+04  4.81105E+04 -3.45259E+04  4.73755E+04 -6.74702E+04 -1.67657E+02
 -5.38926E+04 -5.72900E+04 -7.26499E+03 -7.78213E+04  3.45228E+04 -5.60624E+04  4.83863E+04 -1.74845E+04
  4.43319E+04  1.10691E+04  3.26184E+04  2.59819E+04  1.55807E+04  3.01471E+04 -5.42732E+03  2.74224E+04
 -2.18932E+04  1.22164E+04 -1.81818E+04 -5.42383E+03  6.35011E+03 -7.22740E+03  2.26833E+04  1.24296E+04
  7.20704E+03  3.61312E+04 -3.27034E+04  3.59373E+04 -6.43810E+04  2.02597E+03 -5.77312E+04 -4.36157E+04
 -1.24196E+04 -6.40230E+04  4.04022E+04 -4.57727E+04  5.93827E+04 -2.28954E+03  3.50221E+04  3.31251E+04
 -5.97223E+03  3.75645E+04 -3.03131E+04  1.68195E+04 -3.15785E+04 -4.25379E+03 -1.77906E+04 -1.15797E+04
 -8.81589E+03 -1.42064E+04 -3.88049E+02 -1.88232E+04  7.79260E+03 -2.34593E+04  1.60509E+04 -1.31281E+04
  1.09344E+04  5.34264E+03 -9.18369E+03  1.29834E+04 -2.19481E+04 -5.40080E+03 -8.39246E+03 -3.49794E+04
  2.37871E+04 -4.47818E+04  4.92371E+04 -2.00433E+04  4.62037E+04  2.01414E+04  1.61254E+04  4.51683E+04
 -1.62646E+04  3.42811E+04 -2.62993E+04  2.07028E+03 -1.07482E+04 -2.83391E+04  2.11125E+04 -3.50215E+04
  4.21695E+04 -9.65367E+03  3.71407E+04  2.41583E+04  1.91931E+04  4.80307E+04 -8.23604E+03  5.20004E+04
 -3.30781E+04  3.52351E+04 -4.38454E+04  1.02156E+04 -4.42001E+04 -1.72785E+04 -2.40707E+04 -3.94997E+04
  7.37159E+03 -3.91168E+04  3.22162E+04 -1.53095E+04  3.03228E+04  1.12357E+04  4.54030E+03  1.97109E+04
 -1.36483E+04  8.82453E+03 -1.07337E+04 -7.52950E+03  5.77288E+03 -1.10234E+04  1.83507E+04  5.74918E+03
  1.40039E+04  2.25657E+04 -5.66754E+03  2.57046E+04 -2.24856E+04  1.22359E+04 -2.91711E+04 -4.40906E+03
 -2.22507E+04 -1.78905E+04 -9.46350E+03 -2.14620E+04  4.23578E+03 -2.13265E+04  1.67119E+04 -1.98184E+04
  2.77385E+04 -1.32176E+04  3.41081E+04  3.23592E+03  2.47398E+04  2.15196E+04  4.31163E+03  3.79054E+04
 -1.85171E+04  3.12477E+04 -2.86856E+04  1.09226E+04 -2.13372E+04 -1.00258E+04 -4.73396E+03 -1.31427E+04
  1.29063E+03 -2.40767E+03 -5.79885E+03  7.21869E+03 -1.71192E+04  4.78753E+03 -1.73269E+04 -7.75396E+03
 -1.06062E+04 -2.01483E+04  5.73468E+03 -2.47765E+04  1.64391E+04 -1.73118E+04  1.93674E+04 -1.71210E+03
  1.23892E+04  1.39365E+04 -1.10926E+03  2.00109E+04 -1.40587E+04  1.14803E+04 -2.01372E+04 -4.32303E+03
 -1.50337E+04 -1.83346E+04 -1.92810E+03 -2.44179E+04  1.14621E+04 -2.01447E+04  2.03573E+04 -1.02250E+04
  1.87152E+04 -5.52708E+01  1.36702E+04  4.76727E+03  7.39876E+03  8.21975E+02  1.00856E+04 -2.08041E+03
  1.87424E+04  2.84026E+03  2.11031E+04  1.60139E+04  1.38004E+04  3.21925E+04 -2.97258E+03  3.65445E+04
 -2.09800E+04  3.02526E+04 -3.44703E+04  1.53791E+04 -3.63079E+04 -2.67856E+03 -2.97604E+04 -2.10659E+04
 -1.26105E+04 -2.96966E+04  1.04669E+04 -2.65998E+04  2.28111E+04 -1.36361E+04  2.02180E+04  5.90458E+03
  7.41193E+03  1.56097E+04 -9.59289E+03  1.35226E+04 -1.70924E+04  2.37425E+03 -1.28597E+04 -1.05858E+04
 -3.95150E+02 -1.61323E+04  8.44959E+03 -1.23742E+04  1.09612E+04 -1.31650E+03  2.59775E+03  7.08140E+03
 -7.21868E+03  3.48899E+03 -7.12641E+03 -6.08811E+03 -6.29008E+02 -1.45726E+04  1.03228E+04 -1.52584E+04
  1.83702E+04 -8.10686E+03  1.96773E+04  3.35770E+03  1.69653E+04  1.45523E+04  7.92497E+03  2.22305E+04
 -3.83683E+03  2.44737E+04 -1.55292E+04  1.50134E+04 -1.77009E+04  3.43534E+03 -1.20919E+04 -3.70119E+03
 -5.63214E+03 -5.38664E+03 -7.02135E+02  5.60891E+02 -2.28223E+03  2.37154E+03 -5.52338E+03  4.76012E+03
 -1.14267E+04 -7.66492E+02 -1.20090E+04 -9.15693E+03 -5.04067E+03 -1.56007E+04  4.98628E+03 -1.23269E+04
  1.03457E+04 -5.14763E+03  7.09155E+03  3.14297E+03  1.17858E+02  4.61831E+03 -5.92197E+03  2.86010E+02
 -5.61881E+03 -7.90030E+03 -1.08608E+03 -1.14348E+04  6.84505E+03 -1.19523E+04  1.50836E+04 -6.78182E+03
  1.76004E+04  1.65774E+03  1.29700E+04  1.02463E+04  2.39826E+03  1.42449E+04 -7.55107E+03  1.18750E+04
 -9.74198E+03  3.51169E+03 -5.19414E+03 -2.21223E+03  1.78168E+03 -3.34983E+03  6.65313E+03 -1.12807E+03
  5.78425E+03  5.21619E+03  1.14168E+03  9.36320E+03 -7.01235E+03  9.13008E+03 -1.18110E+04  2.33449E+03
 -7.89204E+03 -6.11441E+03  2.53404E+02 -9.95767E+03  6.29749E+03 -4.69009E+03  6.54999E+03  2.12160E+03
  1.08978E+03  6.64091E+03 -6.17955E+03  8.17449E+03 -9.14880E+03  3.64261E+03 -9.00895E+03 -3.03102E+03
 -5.27264E+03 -1.08559E+04  2.88793E+03 -1.19932E+04  1.07130E+04 -7.72170E+03  1.14360E+04  1.97080E+03
  7.09542E+03  9.35429E+03 -7.75808E+02  1.15244E+04 -7.95807E+03  6.24660E+03 -9.17863E+03 -7.02652E+02
 -8.32533E+03 -7.79713E+03 -1.52838E+03 -8.67472E+03  4.72045E+03 -7.12370E+03  5.25310E+03 -3.31260E+03
  4.00146E+03  1.00276E+03 -6.86308E+02  1.72921E+03  8.90885E+01 -1.63615E+03  1.35594E+03 -4.58318E+03
  7.25249E+03 -2.82788E+03  1.01483E+04  1.04107E+03  1.02947E+04  6.44566E+03  7.73236E+03  1.35662E+04
 -2.60478E+03  1.57205E+04 -1.33082E+04  1.18506E+04 -1.72743E+04  2.19441E+03 -1.37341E+04 -5.57207E+03
 -7.02551E+03 -1.17120E+04 -5.65585E+02 -9.36979E+03  3.84666E+03 -4.94823E+03  3.07919E+03 -3.26409E+03
  2.36836E+03 -2.28969E+03  3.09020E+03 -3.02184E+03  4.38490E+03 -2.54116E+03  5.37090E+03 -5.40064E+02
  7.46431E+03  1.67345E+03  3.20366E+03  6.05177E+03 -2.11052E+03  6.59786E+03 -7.40925E+03  5.11850E+03
 -9.13517E+03 -1.13347E+03 -5.24984E+03 -6.73510E+03 -3.34364E+02 -9.76327E+03  5.68208E+03 -1.03301E+04
  1.03666E+04 -5.54159E+03  1.23867E+04  1.24836E+03  8.83809E+03  8.55916E+03  1.69341E+03  1.11826E+04
 -4.40863E+03  9.54424E+03 -6.36036E+03  3.19581E+03 -4.22405E+03 -1.22655E+03 -1.60006E+03 -1.36502E+03
 -8.89521E+02  3.07798E+02 -1.42010E+03  2.48707E+03 -4.05673E+03  1.39182E+03 -6.59656E+03 -1.28361E+03
 -3.85102E+03 -6.48214E+03  7.16152E+02 -8.82012E+03  5.52823E+03 -8.11063E+03  8.12944E+03 -1.89701E+03
  8.42160E+03  4.33870E+03  3.95524E+03  7.21597E+03 -1.62777E+03  8.52801E+03 -6.00189E+03  5.41141E+03
 -8.12254E+03  6.25940E+02 -6.24876E+03 -4.97088E+03 -7.33364E+02 -6.90268E+03  3.45486E+03 -5.28048E+03
  5.63223E+03 -2.16583E+03  3.58050E+03  1.32221E+03  1.12207E+03  2.70350E+03  7.17355E+02  1.19349E+03
  1.80790E+03  4.77172E+02  2.42909E+03  1.19976E+03  2.29196E+03  3.31076E+03  2.42608E+03  4.30535E+03
 -1.95791E+03  6.40735E+03 -5.69822E+03  6.56577E+03 -7.86216E+03  1.64950E+03 -8.62335E+03 -2.98783E+03
 -3.96602E+03 -7.87815E+03  1.22729E+03 -9.21493E+03  4.78683E+03 -5.81700E+03  6.67747E+03 -1.85182E+03
  5.03263E+03  3.30582E+03  1.11704E+03  4.35285E+03 -2.24858E+03  2.39915E+03 -3.25807E+03 -7.76295E+02
 -1.41988E+03 -3.27814E+03  2.06601E+03 -3.53686E+03  3.22960E+03 -2.05352E+03  2.78452E+03  7.98494E+02
  2.15258E+03  1.27990E+03  7.87797E+02  9.37927E+02 -4.10297E+02  9.66838E+02  1.53941E+03 -2.55607E+02
  1.04196E+03 -5.85415E+02  3.25281E+03  1.09944E+03  1.65956E+03  4.56671E+03 -7.81373E+02  5.57199E+03
 -3.81186E+03  3.09227E+03 -4.75427E+03  1.03617E+03 -4.53659E+03 -1.90779E+03 -1.00822E+03 -2.84085E+03
  6.69821E+02 -3.23840E+03  2.12161E+03 -1.18925E+03  1.84368E+03  1.88995E+03 -8.83217E+02  2.40953E+03
 -3.08777E+03  1.48117E+03 -3.37938E+03 -2.02608E+03 -1.83531E+03 -4.16892E+03  6.88881E+02 -4.14210E+03
  2.07019E+03 -2.20797E+03  2.76402E+03  2.10272E+02  2.87153E+03  7.32291E+02  5.96785E+02  2.40538E+03
 -1.25160E+03  7.99495E+02 -2.10864E+03 -1.37163E+03  7.53331E+02 -2.61622E+03  3.53291E+03 -2.63426E+03
  3.85614E+03  4.01460E+02  4.89349E+03  2.88860E+03  1.45776E+03  4.75551E+03 -1.33756E+03  4.37405E+03
 -3.88120E+03  1.83326E+03 -3.88133E+03 -6.01440E+02 -1.85555E+03 -2.90938E+03  5.35330E+02 -2.37973E+03
  3.06936E+03 -1.30869E+03  2.06684E+03  1.13506E+03  8.70670E+02  2.29811E+03 -3.52166E+02  2.86245E+03
 -1.24491E+03  1.97509E+03 -9.19481E+02  3.35480E+02 -2.72275E+02  7.23135E+02 -1.00325E+03  1.19003E+03
 -1.26170E+03  1.64407E+03 -3.13417E+03  1.49492E+03 -4.08032E+03  6.83461E+01 -5.24587E+03 -2.69218E+03
 -2.54488E+03 -5.82730E+03  1.23751E+03 -6.80980E+03  3.80942E+03 -5.64530E+03  6.77329E+03 -2.09067E+03
  5.80642E+03  6.19082E+02  3.29664E+03  3.93341E+03 -3.92470E+02  4.00815E+03 -2.01192E+03  3.41101E+03
 -2.57991E+03  1.57487E+03 -1.27613E+03 -5.22636E+02 -8.83353E+02 -1.71899E+02 -5.82828E+02 -1.00648E+02
 -1.32167E+03  1.28283E+02 -1.35797E+03  7.15089E+01 -8.47056E+01 -1.40890E+03 -4.51689E+02 -1.83941E+03
  2.17009E+03 -1.90895E+03  2.11827E+03  5.54104E+02  2.69849E+03  2.44613E+03  4.26823E+02  3.97677E+03
 -2.04654E+03  4.92537E+03 -4.24413E+03  2.69926E+03 -5.01088E+03 -2.20971E+02 -3.70903E+03 -3.02552E+03
 -2.04069E+03 -3.96049E+03  8.76082E+02 -3.43138E+03  2.12866E+03 -1.76069E+03  2.59283E+03  2.08820E+02
  1.62223E+03  1.12713E+03 -1.69622E+00  1.27378E+03 -6.89123E+02  1.41333E+01 -2.96711E+02 -9.68908E+02
  1.06330E+03 -4.56859E+02  1.49684E+03  6.55765E+02  9.32192E+02  1.59519E+03  1.88860E+02  1.57834E+03
 -1.57569E+03  1.71431E+03 -2.41333E+03  2.93828E+02 -2.34098E+03 -1.78113E+03 -2.77981E+02 -3.36606E+03
  1.57293E+03 -2.78086E+03  2.44738E+03 -6.54883E+02  2.60769E+03 -3.62298E+02  1.26235E+03  2.51499E+03
  6.74311E+02  2.46089E+03 -7.59077E+02  1.89958E+03 -1.92103E+03  1.02747E+03 -1.28440E+03  1.56641E+02
 -5.18138E+02 -1.04188E+02 -9.49173E+02  4.94793E+02 -1.50928E+03  6.51380E+02 -2.00231E+03 -7.75565E+02
 -2.07715E+03 -9.21175E+02 -8.06008E+02 -2.70777E+03  1.55267E+03 -2.87329E+03  2.15374E+03 -9.56095E+02
  2.51320E+03 -1.82668E+01  9.00822E+02  1.14768E+03 -3.21669E+02  2.60139E+03 -1.49002E+03  1.86120E+03
