 $NMID ID='MM_0lb_SNR800_9hz_g45_59.RAW', FMTDAT='(8E13.5)'
 TRAMP=1., VOLUME=1. $END
  3.09847E+05  2.23384E+02  3.37950E+05  2.50927E+05  8.49598E+04  3.38410E+05 -1.32381E+05  2.52017E+05
 -1.90730E+05  8.35293E+04 -1.12600E+05 -3.21347E+04  2.71031E+02 -5.04766E+04  5.33953E+04 -8.21601E+02
  3.56270E+04  5.27933E+04 -1.66041E+04  7.61815E+04 -6.10962E+04  6.41938E+04 -8.52655E+04  3.26857E+04
 -8.23699E+04 -1.15811E+04 -5.82401E+04 -5.20171E+04 -1.50852E+04 -7.06128E+04  2.82930E+04 -4.67675E+04
  4.08978E+04  3.62626E+03  1.66649E+04  4.84282E+04 -3.47625E+04  4.82833E+04 -6.76372E+04  1.64005E+02
 -5.47949E+04 -5.77298E+04 -7.37522E+03 -7.84035E+04  3.47432E+04 -5.64104E+04  4.91385E+04 -1.82695E+04
  4.49078E+04  1.16241E+04  3.26556E+04  2.64494E+04  1.59750E+04  3.04258E+04 -5.52361E+03  2.74688E+04
 -2.25817E+04  1.25767E+04 -1.80473E+04 -5.50909E+03  6.55810E+03 -7.33149E+03  2.29872E+04  1.36695E+04
  6.86769E+03  3.69033E+04 -3.39125E+04  3.66162E+04 -6.52496E+04  1.94390E+03 -5.87208E+04 -4.43924E+04
 -1.29990E+04 -6.58675E+04  4.12610E+04 -4.72138E+04  6.07477E+04 -2.53975E+03  3.66510E+04  3.43072E+04
 -5.32206E+03  3.88421E+04 -3.17216E+04  1.83245E+04 -3.29815E+04 -3.61405E+03 -1.87054E+04 -1.19294E+04
 -9.49586E+03 -1.48238E+04 -5.15361E+02 -1.96483E+04  8.52127E+03 -2.40157E+04  1.54369E+04 -1.27914E+04
  1.05090E+04  6.09653E+03 -1.02067E+04  1.30611E+04 -2.31745E+04 -6.79347E+03 -8.59156E+03 -3.67322E+04
  2.51026E+04 -4.63108E+04  5.16894E+04 -2.10946E+04  4.83042E+04  2.08608E+04  1.74884E+04  4.68188E+04
 -1.66480E+04  3.56447E+04 -2.75423E+04  2.45540E+03 -1.14694E+04 -2.91846E+04  2.15502E+04 -3.64144E+04
  4.41983E+04 -1.11585E+04  3.98730E+04  2.49240E+04  2.06557E+04  5.08333E+04 -8.14152E+03  5.54158E+04
 -3.49335E+04  3.75215E+04 -4.68975E+04  1.04416E+04 -4.69207E+04 -1.85481E+04 -2.56980E+04 -4.17637E+04
  7.61317E+03 -4.16535E+04  3.37382E+04 -1.68836E+04  3.16494E+04  1.12245E+04  5.31240E+03  2.04696E+04
 -1.38767E+04  9.69361E+03 -1.12527E+04 -7.40633E+03  5.83794E+03 -1.14932E+04  1.87536E+04  5.26642E+03
  1.48217E+04  2.26848E+04 -4.91128E+03  2.69881E+04 -2.31676E+04  1.39405E+04 -3.10460E+04 -3.29737E+03
 -2.44935E+04 -1.85355E+04 -1.12371E+04 -2.46601E+04  4.30854E+03 -2.52353E+04  1.96278E+04 -2.23511E+04
  3.18094E+04 -1.37913E+04  3.72726E+04  4.43926E+03  2.67270E+04  2.37714E+04  4.44677E+03  4.06844E+04
 -2.01307E+04  3.33018E+04 -3.01146E+04  1.20064E+04 -2.27471E+04 -1.09226E+04 -4.76021E+03 -1.27987E+04
  9.50607E+02 -1.04584E+03 -7.65139E+03  8.15614E+03 -1.97667E+04  5.18837E+03 -2.01203E+04 -8.91253E+03
 -1.16028E+04 -2.31635E+04  6.23691E+03 -2.75664E+04  1.87364E+04 -1.99028E+04  2.27160E+04 -2.09783E+03
  1.45620E+04  1.57305E+04 -1.44549E+03  2.30967E+04 -1.61604E+04  1.30304E+04 -2.32693E+04 -4.56010E+03
 -1.69257E+04 -2.05003E+04 -2.13876E+03 -2.78626E+04  1.24506E+04 -2.29367E+04  2.28509E+04 -1.16558E+04
  2.16116E+04  3.51047E+01  1.54187E+04  5.18675E+03  8.51419E+03  1.03955E+03  1.14534E+04 -1.91952E+03
  2.14809E+04  2.34000E+03  2.49114E+04  1.77093E+04  1.69219E+04  3.68985E+04 -2.47142E+03  4.34549E+04
 -2.47201E+04  3.58797E+04 -4.09643E+04  1.84718E+04 -4.34668E+04 -3.17019E+03 -3.52926E+04 -2.55871E+04
 -1.40154E+04 -3.60246E+04  1.25593E+04 -3.20583E+04  2.72017E+04 -1.52020E+04  2.36918E+04  7.96116E+03
  8.24403E+03  1.77963E+04 -1.12979E+04  1.54088E+04 -1.96489E+04  2.68365E+03 -1.49804E+04 -1.25271E+04
 -3.31704E+02 -1.91643E+04  1.03686E+04 -1.40347E+04  1.29175E+04 -1.64970E+03  3.07942E+03  8.65381E+03
 -8.16973E+03  4.02867E+03 -8.85530E+03 -6.60763E+03 -1.68073E+03 -1.72682E+04  1.15379E+04 -1.94581E+04
  2.23552E+04 -1.10228E+04  2.55659E+04  3.61630E+03  2.23984E+04  1.77104E+04  1.03994E+04  2.86544E+04
 -5.35718E+03  2.97580E+04 -2.00230E+04  1.89825E+04 -2.18121E+04  3.87080E+03 -1.52528E+04 -5.97894E+03
 -5.97558E+03 -7.29124E+03 -5.68551E+02 -1.06580E+01 -2.88177E+03  3.18804E+03 -7.49116E+03  5.14594E+03
 -1.37987E+04 -1.11110E+03 -1.43114E+04 -1.15985E+04 -6.11483E+03 -1.89231E+04  6.21798E+03 -1.50889E+04
  1.23284E+04 -6.42132E+03  9.03556E+03  4.11675E+03 -6.27041E+02  6.03467E+03 -7.96812E+03 -8.30304E+01
 -7.42760E+03 -9.69774E+03 -1.44569E+03 -1.52360E+04  8.66256E+03 -1.57493E+04  1.96979E+04 -8.46081E+03
  2.32296E+04  2.30193E+03  1.65993E+04  1.40651E+04  3.33543E+03  1.86050E+04 -9.58013E+03  1.51467E+04
 -1.24883E+04  4.68671E+03 -6.19527E+03 -3.20609E+03  2.46038E+03 -4.46291E+03  8.49659E+03 -6.50391E+02
  7.04973E+03  6.91822E+03  8.29796E+02  1.22776E+04 -9.05079E+03  1.20785E+04 -1.52446E+04  2.67795E+03
 -1.05464E+04 -7.93312E+03 -1.68873E+01 -1.29056E+04  8.86635E+03 -6.66452E+03  9.11817E+03  2.95728E+03
  2.15065E+03  9.67882E+03 -7.65490E+03  1.11272E+04 -1.31096E+04  5.04472E+03 -1.31718E+04 -5.14753E+03
 -7.54510E+03 -1.54098E+04  3.51294E+03 -1.77936E+04  1.47265E+04 -1.02355E+04  1.65129E+04  2.98534E+03
  9.72985E+03  1.30213E+04 -1.59604E+03  1.54479E+04 -1.16584E+04  8.63927E+03 -1.24813E+04 -1.29541E+03
 -1.07880E+04 -1.06607E+04 -1.48778E+03 -1.17807E+04  6.32598E+03 -9.37567E+03  7.39767E+03 -3.57747E+03
  5.02467E+03  1.79844E+03 -1.03081E+03  2.16001E+03 -5.80326E+02 -3.36625E+03  2.43008E+03 -6.89856E+03
  1.09772E+04 -4.70089E+03  1.56443E+04  1.33060E+03  1.51386E+04  1.08317E+04  9.83697E+03  2.00105E+04
 -5.11502E+03  2.33785E+04 -1.89775E+04  1.68429E+04 -2.52437E+04  3.35020E+03 -2.02774E+04 -8.59914E+03
 -1.04289E+04 -1.65186E+04 -4.19277E+02 -1.41798E+04  5.41017E+03 -8.11708E+03  5.32962E+03 -4.83848E+03
  3.91268E+03 -2.74732E+03  4.13923E+03 -4.06777E+03  6.34747E+03 -3.26028E+03  8.10707E+03 -1.03383E+03
  1.07253E+04  2.38860E+03  5.81805E+03  9.14063E+03 -2.00423E+03  1.08933E+04 -1.10720E+04  8.33507E+03
 -1.41556E+04 -1.44021E+03 -9.03134E+03 -1.01687E+04 -1.50512E+03 -1.52990E+04  8.44021E+03 -1.50502E+04
  1.60472E+04 -8.43684E+03  1.89022E+04  2.83154E+03  1.28787E+04  1.31019E+04  2.38760E+03  1.69418E+04
 -7.09121E+03  1.39522E+04 -9.85634E+03  5.17083E+03 -7.26348E+03 -1.84746E+03 -2.76382E+03 -1.99159E+03
 -1.09876E+03  1.35814E+02 -2.79654E+03  3.02079E+03 -6.09931E+03  2.68054E+03 -1.01393E+04 -1.64819E+03
 -7.24628E+03 -9.81801E+03  1.12193E+02 -1.43438E+04  8.96312E+03 -1.30173E+04  1.42724E+04 -4.48717E+03
  1.43086E+04  6.89016E+03  7.26001E+03  1.29491E+04 -2.85867E+03  1.41449E+04 -1.02780E+04  9.16337E+03
 -1.34711E+04  5.87544E+02 -1.00880E+04 -8.72892E+03 -1.28047E+03 -1.20187E+04  6.04599E+03 -8.95818E+03
  9.08014E+03 -3.22741E+03  6.40142E+03  2.31628E+03  2.27619E+03  4.19642E+03  9.01833E+02  1.97106E+03
  2.56461E+03  1.05944E+03  3.56185E+03  1.92678E+03  5.08036E+03  5.13071E+03  3.98646E+03  7.37485E+03
 -2.87266E+03  1.19405E+04 -1.01800E+04  1.14687E+04 -1.50227E+04  3.25500E+03 -1.53378E+04 -6.00065E+03
 -7.01405E+03 -1.46484E+04  1.80919E+03 -1.57825E+04  8.60911E+03 -1.01792E+04  1.20913E+04 -2.53663E+03
  9.08220E+03  5.43787E+03  1.62978E+03  8.87252E+03 -3.92325E+03  5.34823E+03 -5.49502E+03 -1.09599E+03
 -2.84466E+03 -6.16929E+03  3.75583E+03 -6.41445E+03  5.92375E+03 -3.46315E+03  6.13263E+03  1.47652E+03
  3.59524E+03  2.81747E+03  1.53667E+03  2.53692E+03 -9.81053E+02  2.23419E+03  1.88642E+03 -6.51954E+02
  2.43501E+03 -8.78462E+02  5.78574E+03  2.25709E+03  3.48072E+03  7.70199E+03 -1.67359E+03  1.04669E+04
 -7.14978E+03  6.65277E+03 -9.72909E+03  2.17682E+03 -8.56620E+03 -3.30010E+03 -3.34350E+03 -6.28747E+03
  1.02044E+03 -5.76580E+03  3.80522E+03 -2.59359E+03  3.33209E+03  3.08516E+03 -1.33128E+03  4.66903E+03
 -5.83614E+03  2.79220E+03 -7.32891E+03 -3.76424E+03 -3.59293E+03 -8.44415E+03  1.37670E+03 -7.79067E+03
  4.79940E+03 -4.92100E+03  6.36876E+03 -7.35259E+02  4.78731E+03  2.11543E+03  8.82621E+02  4.21193E+03
 -3.08885E+03  1.22218E+03 -3.65785E+03 -2.62670E+03  1.51376E+03 -6.16182E+03  7.30657E+03 -5.10148E+03
  9.35096E+03  5.38371E+02  9.37722E+03  6.43545E+03  3.19340E+03  9.99835E+03 -3.54655E+03  8.96956E+03
 -8.37791E+03  4.05954E+03 -8.26544E+03 -1.64797E+03 -4.51844E+03 -6.33510E+03  1.88131E+03 -5.93079E+03
  5.74201E+03 -2.83082E+03  5.12513E+03  2.31867E+03  2.03421E+03  5.27150E+03 -2.89670E+02  4.59108E+03
 -2.36185E+03  3.26625E+03 -2.59154E+03  1.21051E+03 -1.18390E+03  1.03147E+03 -1.75492E+03  2.02238E+03
 -2.59202E+03  3.54784E+03 -6.11345E+03  3.65409E+03 -9.97864E+03  1.71088E+02 -1.10444E+04 -6.33569E+03
 -5.63297E+03 -1.26962E+04  2.73953E+03 -1.46842E+04  8.71977E+03 -1.17521E+04  1.38554E+04 -4.39093E+03
  1.33927E+04  2.54563E+03  7.97893E+03  8.83085E+03  7.53404E+02  1.02383E+04 -4.29321E+03  7.71365E+03
 -5.73338E+03  2.93413E+03 -3.20754E+03 -1.06366E+03 -1.52589E+03 -8.79921E+02 -4.39839E+02 -1.40706E+02
 -1.15407E+03  5.31351E+02 -2.50757E+03 -3.24108E+02 -9.42797E+02 -2.60927E+03  3.06084E+02 -3.50077E+03
  4.55919E+03 -3.32926E+03  6.04323E+03  7.05621E+01  7.02678E+03  5.74829E+03  2.37830E+03  9.94244E+03
 -4.82300E+03  1.13002E+04 -1.09107E+04  6.90437E+03 -1.24469E+04 -9.51317E+02 -8.95166E+03 -7.61883E+03
 -4.11261E+03 -1.01625E+04  2.32797E+03 -9.41932E+03  6.69739E+03 -5.14979E+03  6.73686E+03  6.73530E+02
  3.89783E+03  3.13328E+03 -7.36339E+00  2.77453E+03 -1.52102E+03  1.38138E+02  6.78840E+01 -2.12512E+03
  3.37708E+03 -1.61105E+03  4.17506E+03  1.29873E+03  2.53902E+03  4.07665E+03  3.74721E+02  5.13614E+03
 -4.18415E+03  4.59196E+03 -6.54853E+03  7.34702E+02 -6.24014E+03 -5.05170E+03 -8.14434E+02 -8.53888E+03
  4.89537E+03 -7.05389E+03  7.89979E+03 -1.98433E+03  8.23646E+03  1.86571E+03  4.46283E+03  6.52920E+03
  7.60252E+02  6.98968E+03 -2.96213E+03  5.79658E+03 -4.28454E+03  3.17812E+03 -4.03688E+03  6.09430E+02
 -1.65474E+03 -3.25425E+02 -1.95946E+03  9.04483E+02 -3.38156E+03  1.13992E+03 -5.31791E+03 -8.88585E+02
 -5.22122E+03 -3.50992E+03 -1.54212E+03 -7.28022E+03  3.42151E+03 -7.39653E+03  5.99867E+03 -3.27883E+03
  6.97232E+03  1.03140E+03  4.04509E+03  4.80673E+03 -7.59833E+02  6.81954E+03 -5.28011E+03  4.63981E+03
