 $NMID ID='MM_0lb_SNR800_7hz_g60_33.RAW', FMTDAT='(8E13.5)'
 TRAMP=1., VOLUME=1. $END
  3.09866E+05  4.03231E+02  3.38256E+05  2.50441E+05  8.47168E+04  3.38609E+05 -1.32701E+05  2.52705E+05
 -1.90842E+05  8.45127E+04 -1.13045E+05 -3.21040E+04  1.45451E+02 -5.08109E+04  5.38365E+04 -8.06209E+02
  3.55197E+04  5.24386E+04 -1.68218E+04  7.59324E+04 -6.18941E+04  6.48677E+04 -8.61473E+04  3.26570E+04
 -8.34301E+04 -1.19897E+04 -5.89433E+04 -5.30541E+04 -1.52009E+04 -7.21656E+04  2.79636E+04 -4.75316E+04
  4.14856E+04  3.75622E+03  1.71360E+04  4.85609E+04 -3.52416E+04  4.87691E+04 -6.88716E+04 -8.16640E+00
 -5.58929E+04 -5.80871E+04 -7.36592E+03 -7.99046E+04  3.51117E+04 -5.74786E+04  5.05715E+04 -1.89114E+04
  4.60665E+04  1.16810E+04  3.40011E+04  2.71596E+04  1.56381E+04  3.13691E+04 -6.20331E+03  2.81653E+04
 -2.29350E+04  1.22426E+04 -1.75492E+04 -6.24093E+03  7.37540E+03 -7.40244E+03  2.44741E+04  1.45754E+04
  6.53056E+03  3.84536E+04 -3.48361E+04  3.77963E+04 -6.67520E+04  2.54803E+03 -6.04460E+04 -4.52508E+04
 -1.30281E+04 -6.72145E+04  4.26564E+04 -4.87628E+04  6.28767E+04 -2.54215E+03  3.86815E+04  3.57592E+04
 -5.57572E+03  4.13963E+04 -3.34905E+04  2.05157E+04 -3.50933E+04 -3.42850E+03 -2.05625E+04 -1.18924E+04
 -1.05578E+04 -1.65096E+04 -2.76484E+02 -2.08574E+04  9.24235E+03 -2.39256E+04  1.61880E+04 -1.24146E+04
  9.65205E+03  7.21615E+03 -1.17170E+04  1.26507E+04 -2.51546E+04 -7.55399E+03 -8.74047E+03 -3.99070E+04
  2.64696E+04 -4.84566E+04  5.42035E+04 -2.20446E+04  5.05590E+04  2.14678E+04  1.78802E+04  4.83305E+04
 -1.72056E+04  3.74031E+04 -2.91919E+04  3.41857E+03 -1.30085E+04 -3.05573E+04  2.20629E+04 -3.89129E+04
  4.67789E+04 -1.25680E+04  4.36956E+04  2.57645E+04  2.38262E+04  5.35643E+04 -8.78434E+03  6.00387E+04
 -3.78260E+04  4.08217E+04 -5.10491E+04  1.22171E+04 -5.07535E+04 -1.97287E+04 -2.76388E+04 -4.49818E+04
  8.44758E+03 -4.48015E+04  3.58472E+04 -1.88027E+04  3.38529E+04  1.15501E+04  5.52573E+03  2.17063E+04
 -1.43276E+04  1.07463E+04 -1.14484E+04 -7.30819E+03  5.30753E+03 -1.16797E+04  1.91356E+04  5.38693E+03
  1.57018E+04  2.30316E+04 -4.88978E+03  2.86720E+04 -2.42985E+04  1.58560E+04 -3.41483E+04 -1.84366E+03
 -2.84388E+04 -1.90221E+04 -1.35367E+04 -2.76202E+04  4.49387E+03 -2.98479E+04  2.23849E+04 -2.60979E+04
  3.63044E+04 -1.49789E+04  4.12728E+04  5.88955E+03  2.90841E+04  2.72669E+04  4.39891E+03  4.41143E+04
 -2.11897E+04  3.64214E+04 -3.23908E+04  1.23636E+04 -2.34836E+04 -1.00733E+04 -5.34215E+03 -1.26549E+04
  4.51027E+02  1.31251E+02 -9.28962E+03  9.39445E+03 -2.28262E+04  5.52376E+03 -2.27224E+04 -1.12690E+04
 -1.32141E+04 -2.64584E+04  6.78675E+03 -3.05667E+04  2.07589E+04 -2.13287E+04  2.61976E+04 -2.59417E+03
  1.62641E+04  1.80568E+04 -1.57904E+03  2.60468E+04 -1.93069E+04  1.53187E+04 -2.64134E+04 -5.64595E+03
 -1.93058E+04 -2.32919E+04 -2.32549E+03 -3.14659E+04  1.39555E+04 -2.60949E+04  2.60254E+04 -1.35550E+04
  2.47964E+04 -4.20892E+02  1.76204E+04  5.86691E+03  1.01160E+04  1.72187E+03  1.39772E+04 -2.26570E+03
  2.47615E+04  3.08478E+03  2.95903E+04  2.06458E+04  2.03829E+04  4.23500E+04 -2.66954E+03  5.01682E+04
 -2.90695E+04  4.29725E+04 -4.82838E+04  2.27110E+04 -5.20168E+04 -4.01345E+03 -4.19655E+04 -3.06975E+04
 -1.58273E+04 -4.34442E+04  1.58169E+04 -3.77004E+04  3.18007E+04 -1.67367E+04  2.76822E+04  9.51724E+03
  8.92923E+03  2.18018E+04 -1.33008E+04  1.72755E+04 -2.29539E+04  2.36140E+03 -1.74973E+04 -1.48513E+04
 -1.70691E+02 -2.15684E+04  1.19450E+04 -1.62928E+04  1.57814E+04 -6.24285E+02  4.78689E+03  1.05466E+04
 -9.98719E+03  4.95081E+03 -1.10763E+04 -7.65704E+03 -2.98809E+03 -2.11982E+04  1.37302E+04 -2.32895E+04
  2.74814E+04 -1.34335E+04  3.16486E+04  3.81709E+03  2.74884E+04  2.17185E+04  1.28241E+04  3.52645E+04
 -6.82250E+03  3.71501E+04 -2.47318E+04  2.27743E+04 -2.73744E+04  4.03346E+03 -1.77786E+04 -7.37419E+03
 -6.92776E+03 -9.09383E+03 -5.25851E+02 -2.25036E+01 -3.29976E+03  4.43912E+03 -8.80477E+03  5.97009E+03
 -1.61254E+04 -1.24323E+03 -1.68879E+04 -1.32423E+04 -6.98850E+03 -2.23803E+04  7.65163E+03 -1.83904E+04
  1.53485E+04 -7.32584E+03  1.04703E+04  4.76568E+03 -3.46120E+02  6.88502E+03 -9.19707E+03 -1.72055E+02
 -9.26224E+03 -1.24601E+04 -1.54008E+03 -1.94077E+04  1.07716E+04 -2.00693E+04  2.45295E+04 -1.06118E+04
  2.80388E+04  3.57686E+03  2.05690E+04  1.76310E+04  3.70018E+03  2.32725E+04 -1.10843E+04  1.85068E+04
 -1.47798E+04  4.73112E+03 -7.82098E+03 -4.30059E+03  2.72767E+03 -5.66170E+03  9.48743E+03 -1.28675E+03
  8.86199E+03  8.60420E+03  1.36402E+03  1.57666E+04 -1.09009E+04  1.45505E+04 -1.83273E+04  3.70045E+03
 -1.30150E+04 -9.60099E+03  1.08194E+02 -1.63181E+04  1.06987E+04 -8.54496E+03  1.16034E+04  4.19087E+03
  2.66205E+03  1.29466E+04 -9.37986E+03  1.43740E+04 -1.74435E+04  6.67241E+03 -1.81578E+04 -6.53105E+03
 -1.01878E+04 -1.97208E+04  4.97320E+03 -2.29538E+04  1.98529E+04 -1.38416E+04  2.15204E+04  3.96430E+03
  1.22477E+04  1.69443E+04 -2.63601E+03  1.93731E+04 -1.44556E+04  1.07241E+04 -1.57636E+04 -2.13923E+03
 -1.27381E+04 -1.27784E+04 -2.32745E+03 -1.54501E+04  8.31133E+03 -1.18060E+04  9.81064E+03 -3.83252E+03
  6.40275E+03  2.97538E+03 -1.52981E+03  2.42800E+03 -1.36355E+03 -4.49564E+03  4.05363E+03 -1.00646E+04
  1.48104E+04 -6.47263E+03  2.11048E+04  2.82342E+03  2.08328E+04  1.46513E+04  1.23894E+04  2.68335E+04
 -6.64851E+03  3.09956E+04 -2.56156E+04  2.22698E+04 -3.28889E+04  4.88568E+03 -2.67774E+04 -1.20286E+04
 -1.31900E+04 -2.21427E+04 -5.53912E+01 -1.89646E+04  6.61460E+03 -1.10885E+04  6.42430E+03 -6.62222E+03
  5.30239E+03 -3.97875E+03  5.03756E+03 -4.90459E+03  6.85177E+03 -4.11002E+03  1.02361E+04 -2.12411E+03
  1.35174E+04  3.21374E+03  7.73274E+03  1.21163E+04 -2.42931E+03  1.53317E+04 -1.45490E+04  1.18802E+04
 -1.89235E+04 -1.43595E+03 -1.32301E+04 -1.34654E+04 -2.56475E+03 -2.08815E+04  1.12943E+04 -2.02163E+04
  2.15295E+04 -1.17701E+04  2.56404E+04  3.68890E+03  1.69760E+04  1.80835E+04  3.04017E+03  2.33616E+04
 -9.96425E+03  1.83876E+04 -1.40291E+04  6.88945E+03 -9.48970E+03 -2.25087E+03 -4.15889E+03 -2.91231E+03
 -1.73878E+03 -2.55251E+02 -3.23379E+03  4.22323E+03 -8.12503E+03  3.45392E+03 -1.34808E+04 -1.91471E+03
 -1.01424E+04 -1.32804E+04 -2.44365E+02 -1.94705E+04  1.16342E+04 -1.81444E+04  2.01394E+04 -5.75456E+03
  1.96793E+04  9.10208E+03  8.97238E+03  1.83126E+04 -4.14547E+03  1.98685E+04 -1.44814E+04  1.22899E+04
 -1.87744E+04  4.59479E+02 -1.48311E+04 -1.20694E+04 -1.34744E+03 -1.74113E+04  8.59740E+03 -1.26485E+04
  1.28126E+04 -3.28406E+03  8.55791E+03  3.41113E+03  2.84974E+03  5.78744E+03  1.89734E+03  2.60889E+03
  3.36723E+03  1.45957E+03  4.29037E+03  2.27756E+03  6.33470E+03  6.62321E+03  4.71945E+03  1.13078E+04
 -3.72990E+03  1.64569E+04 -1.41554E+04  1.58989E+04 -2.12970E+04  3.79265E+03 -2.13216E+04 -9.97601E+03
 -1.03751E+04 -2.10406E+04  3.28147E+03 -2.27282E+04  1.28168E+04 -1.48661E+04  1.75593E+04 -3.91385E+03
  1.35531E+04  7.45116E+03  3.28241E+03  1.18877E+04 -6.44105E+03  8.09715E+03 -8.62045E+03 -1.65661E+03
 -4.30476E+03 -9.41366E+03  4.74893E+03 -9.44231E+03  8.93226E+03 -4.31651E+03  9.59078E+03  1.93389E+03
  4.80141E+03  3.58405E+03  1.83169E+03  3.99234E+03 -1.14475E+03  2.84578E+03  1.23038E+03 -1.00686E+03
  3.62068E+03 -9.68217E+02  8.48771E+03  3.30138E+03  5.25758E+03  1.07494E+04 -2.46974E+03  1.50145E+04
 -1.02948E+04  9.75810E+03 -1.39408E+04  2.74451E+03 -1.26272E+04 -4.78376E+03 -5.43754E+03 -8.87279E+03
  1.27702E+03 -8.40239E+03  5.44407E+03 -3.91763E+03  4.73337E+03  4.55326E+03 -2.15089E+03  7.27129E+03
 -8.65836E+03  4.30381E+03 -1.08216E+04 -4.80332E+03 -6.08016E+03 -1.15058E+04  1.47904E+03 -1.21273E+04
  7.57132E+03 -7.54375E+03  9.35535E+03 -7.70584E+02  7.62396E+03  3.25413E+03  1.01812E+03  6.04301E+03
 -4.67959E+03  2.16388E+03 -5.58406E+03 -4.45486E+03  1.92981E+03 -9.78642E+03  1.05400E+04 -8.02274E+03
  1.44764E+04  1.26389E+03  1.33230E+04  9.95116E+03  4.14059E+03  1.48711E+04 -5.51531E+03  1.39853E+04
 -1.16560E+04  5.97367E+03 -1.29500E+04 -2.00976E+03 -6.93158E+03 -9.64517E+03  2.28499E+03 -9.48182E+03
  8.39779E+03 -4.21303E+03  8.01678E+03  4.37228E+03  2.25475E+03  7.74903E+03 -1.76168E+03  6.78532E+03
 -4.13607E+03  4.56213E+03 -3.68429E+03  1.77380E+03 -1.86694E+03  1.02889E+03 -2.08047E+03  3.10415E+03
 -3.65882E+03  5.34858E+03 -9.66275E+03  5.07971E+03 -1.45217E+04 -1.20088E+02 -1.59340E+04 -9.93495E+03
 -9.39557E+03 -2.02950E+04  3.87026E+03 -2.30253E+04  1.45633E+04 -1.70607E+04  2.17330E+04 -6.68678E+03
  2.05302E+04  4.62845E+03  1.27243E+04  1.36811E+04  1.50901E+03  1.60259E+04 -6.46789E+03  1.14055E+04
 -8.97354E+03  3.79090E+03 -6.03027E+03 -2.07665E+03 -1.77121E+03 -1.95716E+03 -1.00239E+03 -4.05910E+02
 -2.51706E+03  7.36849E+02 -3.54199E+03 -5.51382E+02 -9.94446E+02 -3.98658E+03  1.05185E+03 -5.78082E+03
  6.91112E+03 -5.36761E+03  1.00066E+04  1.06710E+02  1.08156E+04  8.55162E+03  3.59989E+03  1.60493E+04
 -7.63248E+03  1.80674E+04 -1.70101E+04  1.12351E+04 -1.98712E+04 -1.20478E+03 -1.52122E+04 -1.20432E+04
 -5.92516E+03 -1.68272E+04  4.09978E+03 -1.53274E+04  1.08046E+04 -8.45065E+03  1.11112E+04  7.19082E+02
  6.16859E+03  5.66136E+03 -5.74884E+02  4.64217E+03 -3.05389E+03 -5.89608E+02  3.60629E+02 -3.60853E+03
  5.05184E+03 -2.42634E+03  6.85135E+03  1.94388E+03  4.40586E+03  6.82153E+03 -6.19468E+02  9.05433E+03
 -7.19662E+03  7.54862E+03 -1.12342E+04  8.91457E+02 -9.87779E+03 -7.74996E+03 -1.61588E+03 -1.40673E+04
  7.99065E+03 -1.18418E+04  1.27750E+04 -3.46069E+03  1.30317E+04  3.80439E+03  7.88867E+03  1.08551E+04
  1.15499E+03  1.13621E+04 -4.88671E+03  9.08119E+03 -6.86988E+03  4.56763E+03 -6.30270E+03  5.35007E+02
 -3.35799E+03 -3.77708E+02 -2.89283E+03  2.13728E+03 -6.13641E+03  1.99891E+03 -8.83463E+03 -1.28500E+03
 -8.03902E+03 -7.05529E+03 -2.22355E+03 -1.14037E+04  4.92195E+03 -1.16570E+04  9.72982E+03 -5.65313E+03
  1.13498E+04  1.32155E+03  6.59450E+03  8.56751E+03 -7.03383E+02  1.23201E+04 -9.01458E+03  7.74923E+03
