 $NMID ID='MM_0lb_SNR800_15hz_g50_1.RAW', FMTDAT='(8E13.5)'
 TRAMP=1., VOLUME=1. $END
  3.09741E+05  6.35092E+02  3.37255E+05  2.50745E+05  8.49059E+04  3.37896E+05 -1.32499E+05  2.50888E+05
 -1.90440E+05  8.27048E+04 -1.11331E+05 -3.24737E+04  8.65563E+02 -5.04173E+04  5.39578E+04  7.93391E+01
  3.53199E+04  5.30191E+04 -1.64820E+04  7.52798E+04 -6.06085E+04  6.33237E+04 -8.39682E+04  3.19286E+04
 -8.04836E+04 -1.13468E+04 -5.67695E+04 -5.12470E+04 -1.46992E+04 -6.92954E+04  2.71398E+04 -4.57204E+04
  3.97661E+04  3.93183E+03  1.61747E+04  4.78243E+04 -3.41806E+04  4.72113E+04 -6.63335E+04 -3.09074E+02
 -5.33455E+04 -5.66134E+04 -6.88231E+03 -7.65365E+04  3.39453E+04 -5.46063E+04  4.75752E+04 -1.68844E+04
  4.28941E+04  1.15686E+04  3.16434E+04  2.55759E+04  1.59482E+04  2.92545E+04 -5.14514E+03  2.71890E+04
 -2.21920E+04  1.26402E+04 -1.87034E+04 -4.98759E+03  5.51107E+03 -7.66968E+03  2.19562E+04  1.22828E+04
  7.57350E+03  3.46272E+04 -3.17196E+04  3.52586E+04 -6.30276E+04  2.06734E+03 -5.66522E+04 -4.27385E+04
 -1.21987E+04 -6.27102E+04  3.93148E+04 -4.47859E+04  5.76370E+04 -2.39709E+03  3.41162E+04  3.23236E+04
 -6.32628E+03  3.52842E+04 -2.96878E+04  1.52173E+04 -2.98356E+04 -4.38453E+03 -1.63595E+04 -1.07042E+04
 -7.86465E+03 -1.28380E+04 -5.87632E+02 -1.79537E+04  7.28002E+03 -2.29940E+04  1.52623E+04 -1.35086E+04
  1.15747E+04  5.15987E+03 -8.13107E+03  1.26562E+04 -2.07758E+04 -3.67626E+03 -8.40908E+03 -3.32278E+04
  2.26399E+04 -4.27801E+04  4.73833E+04 -1.91620E+04  4.45616E+04  1.94592E+04  1.54945E+04  4.35617E+04
 -1.57752E+04  3.31992E+04 -2.48156E+04  1.44491E+03 -9.30699E+03 -2.76061E+04  2.09393E+04 -3.31810E+04
  4.06801E+04 -8.90751E+03  3.49848E+04  2.36900E+04  1.75541E+04  4.59710E+04 -7.88219E+03  4.92930E+04
 -3.09996E+04  3.30612E+04 -4.13149E+04  9.16189E+03 -4.16775E+04 -1.64246E+04 -2.32662E+04 -3.74707E+04
  7.20448E+03 -3.72576E+04  3.13007E+04 -1.42752E+04  2.87025E+04  1.10208E+04  3.73543E+03  1.85724E+04
 -1.31691E+04  8.05181E+03 -1.03762E+04 -7.59428E+03  5.84306E+03 -1.05508E+04  1.78469E+04  6.34025E+03
  1.32401E+04  2.21543E+04 -6.20758E+03  2.46452E+04 -2.19568E+04  1.14616E+04 -2.75216E+04 -4.88011E+03
 -2.01125E+04 -1.70459E+04 -7.72907E+03 -1.95871E+04  4.06055E+03 -1.88557E+04  1.54763E+04 -1.73070E+04
  2.51259E+04 -1.25052E+04  3.14579E+04  2.51382E+03  2.36109E+04  1.91249E+04  4.10134E+03  3.54446E+04
 -1.76884E+04  2.98081E+04 -2.76448E+04  9.97958E+03 -2.05014E+04 -1.04108E+04 -4.09487E+03 -1.36203E+04
  1.88881E+03 -2.94958E+03 -4.56108E+03  5.95778E+03 -1.54285E+04  5.00466E+03 -1.60864E+04 -6.37987E+03
 -9.71075E+03 -1.81770E+04  5.13683E+03 -2.23430E+04  1.48688E+04 -1.59976E+04  1.73538E+04 -1.34633E+03
  1.11054E+04  1.25698E+04 -8.94963E+02  1.82804E+04 -1.24619E+04  1.07722E+04 -1.84772E+04 -3.82881E+03
 -1.35802E+04 -1.66762E+04 -1.67924E+03 -2.21344E+04  1.02695E+04 -1.81049E+04  1.84024E+04 -8.92599E+03
  1.71484E+04  3.75922E+02  1.21559E+04  4.45158E+03  6.01044E+03  6.77945E+02  9.37887E+03 -1.65045E+03
  1.67982E+04  2.54637E+03  1.84973E+04  1.45160E+04  1.18846E+04  2.92438E+04 -3.21520E+03  3.27988E+04
 -1.90734E+04  2.61821E+04 -3.05073E+04  1.30343E+04 -3.15362E+04 -2.27679E+03 -2.65105E+04 -1.82369E+04
 -1.17042E+04 -2.59038E+04  9.13852E+03 -2.37531E+04  2.04863E+04 -1.26221E+04  1.82406E+04  5.18968E+03
  7.02173E+03  1.34178E+04 -8.46738E+03  1.23422E+04 -1.58164E+04  2.67298E+03 -1.18223E+04 -9.53199E+03
 -2.88184E+02 -1.45882E+04  7.59462E+03 -1.08128E+04  9.85484E+03 -1.47480E+03  2.27270E+03  6.36895E+03
 -6.70478E+03  2.23793E+03 -5.27812E+03 -5.29989E+03 -2.38813E+02 -1.26098E+04  9.16688E+03 -1.33248E+04
  1.60433E+04 -7.02400E+03  1.64447E+04  2.90697E+03  1.44193E+04  1.25318E+04  7.10455E+03  1.87716E+04
 -2.80301E+03  2.06268E+04 -1.29425E+04  1.32294E+04 -1.52480E+04  2.95087E+03 -1.06587E+04 -3.05859E+03
 -5.34625E+03 -4.64917E+03 -6.04688E+02  1.32369E+03 -2.09283E+03  2.48603E+03 -4.90097E+03  4.04377E+03
 -9.48844E+03 -8.96066E+02 -1.06230E+04 -8.41649E+03 -4.23608E+03 -1.38898E+04  4.50232E+03 -1.04097E+04
  9.10028E+03 -4.48153E+03  6.52224E+03  2.50618E+03  2.07830E+02  4.21621E+03 -4.92408E+03 -1.96365E+02
 -4.94711E+03 -6.83227E+03 -1.28257E+03 -9.78176E+03  5.48263E+03 -1.06451E+04  1.34198E+04 -5.46174E+03
  1.51390E+04  1.09449E+03  1.12102E+04  8.68687E+03  2.20750E+03  1.21898E+04 -6.53218E+03  1.04487E+04
 -8.48153E+03  3.50558E+03 -4.60215E+03 -1.79857E+03  1.40432E+03 -2.60341E+03  5.92893E+03 -8.88398E+02
  5.06569E+03  4.47390E+03  1.23152E+03  8.37106E+03 -6.02573E+03  7.97110E+03 -1.00377E+04  2.15834E+03
 -6.58358E+03 -4.91511E+03  8.46770E+01 -8.67606E+03  5.17462E+03 -4.52153E+03  5.32968E+03  1.79460E+03
  1.26600E+03  5.49535E+03 -5.48640E+03  6.68441E+03 -7.27974E+03  2.96688E+03 -7.35266E+03 -2.15100E+03
 -4.42347E+03 -8.68077E+03  2.03592E+03 -1.01577E+04  8.94006E+03 -6.49430E+03  9.59673E+03  1.43503E+03
  6.45756E+03  7.70099E+03 -6.27264E+02  9.75118E+03 -6.94000E+03  5.73562E+03 -7.47284E+03 -8.14506E+02
 -7.06688E+03 -6.26512E+03 -1.70264E+03 -7.02525E+03  3.83517E+03 -6.13135E+03  4.59986E+03 -3.30921E+03
  3.29774E+03  8.85023E+02  1.28212E+02  1.35205E+03  1.78191E+01 -1.11870E+03  6.41789E+02 -3.71526E+03
  6.12735E+03 -1.83813E+03  8.51405E+03  1.09218E+03  8.43170E+03  5.44942E+03  6.91217E+03  1.11387E+04
 -2.39017E+03  1.28818E+04 -1.13233E+04  9.53070E+03 -1.42408E+04  1.58866E+03 -1.16902E+04 -4.55026E+03
 -6.15549E+03 -9.34066E+03 -1.79395E+02 -7.68590E+03  2.88184E+03 -3.95686E+03  2.59229E+03 -2.78093E+03
  1.48080E+03 -1.76272E+03  2.53092E+03 -2.54875E+03  4.14769E+03 -1.87141E+03  4.71040E+03 -3.80378E+02
  6.08335E+03  1.33306E+03  2.38759E+03  5.26143E+03 -1.63863E+03  5.53745E+03 -6.21768E+03  4.51555E+03
 -7.46757E+03 -1.07380E+03 -4.14237E+03 -5.46215E+03  1.83799E+02 -8.08157E+03  4.37263E+03 -7.98051E+03
  8.16710E+03 -4.56576E+03  1.02302E+04  1.22571E+03  7.20592E+03  6.66232E+03  1.52962E+03  9.21973E+03
 -3.80937E+03  8.12244E+03 -5.34366E+03  2.71895E+03 -3.24018E+03 -1.35956E+03 -1.10271E+03 -8.06223E+02
 -5.29106E+02  1.07219E+02 -9.85193E+02  2.05490E+03 -3.45611E+03  1.45199E+03 -5.89070E+03 -5.03051E+02
 -3.02428E+03 -5.63534E+03  9.88143E+02 -7.21128E+03  4.33582E+03 -7.02616E+03  6.42157E+03 -1.85725E+03
  6.67809E+03  3.63522E+03  3.17865E+03  5.89449E+03 -1.62361E+03  6.93109E+03 -4.74235E+03  4.57915E+03
 -6.31798E+03  7.40481E+02 -5.11049E+03 -4.14140E+03 -5.85410E+02 -5.44619E+03  2.74154E+03 -4.22517E+03
  4.64373E+03 -1.73009E+03  3.04985E+03  9.83804E+02  6.76766E+02  2.22239E+03  9.62635E+02  8.77429E+02
  1.85374E+03  6.58089E+02  1.84411E+03  1.04224E+03  1.96397E+03  2.92868E+03  1.75649E+03  3.20828E+03
 -1.74953E+03  4.99804E+03 -4.68444E+03  5.74844E+03 -5.70794E+03  1.72606E+03 -6.82803E+03 -1.92726E+03
 -3.41931E+03 -6.53806E+03  1.07496E+03 -7.59265E+03  3.99894E+03 -4.47654E+03  5.40557E+03 -1.71821E+03
  4.27152E+03  2.43834E+03  9.19659E+02  3.73788E+03 -1.34680E+03  2.23580E+03 -2.38724E+03 -1.95800E+02
 -1.25262E+03 -2.86622E+03  1.75408E+03 -2.70460E+03  2.32915E+03 -1.46995E+03  2.45436E+03  6.19475E+02
  1.52934E+03  1.03852E+03  6.27591E+02  3.76372E+02 -5.62055E+02  9.19280E+02  1.42030E+03 -3.10289E+02
  9.27960E+02 -4.33960E+01  2.89129E+03  1.16253E+03  1.07751E+03  3.69126E+03 -6.20360E+02  4.78128E+03
 -3.01270E+03  2.55908E+03 -3.80689E+03  4.20628E+02 -3.36408E+03 -1.22133E+03 -5.05804E+02 -2.36005E+03
  6.85850E+02 -2.31904E+03  1.54649E+03 -1.33645E+03  1.24949E+03  1.33249E+03 -8.92582E+02  1.94603E+03
 -2.13921E+03  1.27136E+03 -2.59656E+03 -1.63257E+03 -1.23640E+03 -3.36225E+03  6.14626E+02 -3.24439E+03
  1.46844E+03 -1.61098E+03  2.23011E+03 -1.49363E+02  2.20342E+03  3.57061E+02  3.69934E+02  2.01696E+03
 -1.13373E+03  2.86663E+01 -1.34075E+03 -5.36352E+02  6.52944E+02 -1.72245E+03  2.86757E+03 -1.92643E+03
  3.21722E+03  1.15930E+02  4.46977E+03  2.04631E+03  1.78860E+03  3.67476E+03 -6.69770E+02  3.35701E+03
 -2.78527E+03  9.27320E+02 -2.92002E+03 -6.86660E+02 -1.53131E+03 -2.75988E+03  5.43384E+02 -1.90410E+03
  2.13416E+03 -1.06500E+03  1.33541E+03  1.01660E+03  5.28412E+02  2.33828E+03  2.94820E+01  1.95887E+03
 -5.64147E+02  1.61382E+03 -5.28753E+02  4.24246E+02 -3.11228E+02  1.87525E+02 -1.16299E+03  8.44971E+02
 -7.13058E+02  1.70113E+03 -2.75551E+03  1.04975E+03 -3.07889E+03  2.03314E+02 -4.34808E+03 -2.23642E+03
 -2.32374E+03 -4.63151E+03  1.25303E+03 -5.45958E+03  3.25855E+03 -4.37474E+03  5.40558E+03 -1.93250E+03
  4.52396E+03  1.64781E+02  2.54845E+03  3.13837E+03 -4.61634E+02  3.08218E+03 -1.04252E+03  2.63134E+03
 -2.03606E+03  8.95961E+02 -1.12100E+03 -5.80646E+02 -3.26400E+02 -1.73763E+02 -8.56239E+02 -1.51768E+00
 -1.51370E+03  1.22152E+02 -9.05551E+02 -9.12064E+00 -2.19046E+02 -9.82462E+02 -6.30498E+01 -1.75563E+03
  1.81778E+03 -1.07498E+03  1.50472E+03  2.99708E+02  2.53873E+03  2.21500E+03 -1.89368E+02  3.42064E+03
 -1.72698E+03  3.92224E+03 -3.60281E+03  2.19346E+03 -3.57786E+03 -1.62512E+02 -3.12781E+03 -2.65595E+03
 -1.38647E+03 -3.18870E+03  8.59951E+02 -3.02278E+03  1.56634E+03 -1.21769E+03  1.76072E+03  2.65458E+01
  1.06742E+03  8.71960E+02 -4.82460E+01  9.00342E+02 -7.25322E+02 -1.12346E+02 -1.11907E+02 -5.52045E+02
  8.69570E+02 -1.78008E+02  1.27819E+03  4.01147E+02  6.93934E+02  1.10043E+03  2.93071E+02  1.23113E+03
 -1.16885E+03  1.19414E+03 -1.79150E+03  1.56456E+02 -2.06477E+03 -1.12609E+03 -2.89420E+02 -2.55474E+03
  1.27147E+03 -1.90564E+03  2.16201E+03 -3.66078E+02  2.40642E+03  5.65811E+01  7.57010E+02  1.70498E+03
  6.18839E+02  1.82070E+03 -7.28939E+02  1.66813E+03 -1.07875E+03  1.10260E+03 -1.09520E+03  3.23913E+02
 -4.36165E+02 -8.32258E+00 -7.20215E+02  3.84004E+02 -1.57389E+03  1.95380E+02 -1.65033E+03 -1.66706E+02
 -1.76167E+03 -5.49378E+02 -6.28450E+02 -1.96976E+03  9.85670E+02 -2.54428E+03  1.61424E+03 -8.16616E+02
  2.00126E+03  1.32341E+02  4.79946E+02  1.11876E+03 -3.25309E+02  1.98340E+03 -1.22000E+03  1.67370E+03
