 $NMID ID='MM_0lb_SNR800_9hz_g50_7.RAW', FMTDAT='(8E13.5)'
 TRAMP=1., VOLUME=1. $END
  3.10057E+05  3.79682E+02  3.37567E+05  2.50713E+05  8.51112E+04  3.38507E+05 -1.32547E+05  2.51616E+05
 -1.90793E+05  8.35549E+04 -1.12802E+05 -3.25820E+04  2.13383E+02 -5.07003E+04  5.37145E+04 -9.80601E+01
  3.53958E+04  5.25708E+04 -1.66765E+04  7.60884E+04 -6.12985E+04  6.44482E+04 -8.51217E+04  3.21504E+04
 -8.24720E+04 -1.15010E+04 -5.81564E+04 -5.26610E+04 -1.48379E+04 -7.10805E+04  2.81100E+04 -4.66929E+04
  4.08961E+04  3.55071E+03  1.64200E+04  4.82687E+04 -3.47342E+04  4.81875E+04 -6.78700E+04  3.88939E+02
 -5.52667E+04 -5.78922E+04 -7.33365E+03 -7.90071E+04  3.45568E+04 -5.72739E+04  4.93614E+04 -1.83831E+04
  4.52956E+04  1.18063E+04  3.29611E+04  2.63128E+04  1.58843E+04  3.07340E+04 -6.29233E+03  2.74750E+04
 -2.26572E+04  1.23271E+04 -1.80126E+04 -5.68998E+03  6.96991E+03 -7.36667E+03  2.33272E+04  1.35546E+04
  7.28208E+03  3.74332E+04 -3.40160E+04  3.69083E+04 -6.59741E+04  2.24444E+03 -5.85016E+04 -4.41967E+04
 -1.28716E+04 -6.60938E+04  4.11900E+04 -4.74417E+04  6.13182E+04 -2.47461E+03  3.70181E+04  3.46336E+04
 -5.76303E+03  3.95340E+04 -3.17051E+04  1.85576E+04 -3.34014E+04 -3.61302E+03 -1.91101E+04 -1.19748E+04
 -9.15388E+03 -1.47463E+04 -5.37948E+02 -1.95906E+04  8.34930E+03 -2.34579E+04  1.57474E+04 -1.26698E+04
  1.07093E+04  6.02357E+03 -9.83217E+03  1.31790E+04 -2.35415E+04 -6.42317E+03 -8.62464E+03 -3.72965E+04
  2.50902E+04 -4.68436E+04  5.23780E+04 -2.11258E+04  4.83317E+04  2.05507E+04  1.70095E+04  4.71715E+04
 -1.68115E+04  3.61699E+04 -2.75981E+04  2.96386E+03 -1.19879E+04 -2.96826E+04  2.15481E+04 -3.64476E+04
  4.43238E+04 -1.08254E+04  4.03521E+04  2.45979E+04  2.14104E+04  5.13059E+04 -8.17800E+03  5.59686E+04
 -3.53712E+04  3.85362E+04 -4.76033E+04  1.07831E+04 -4.79555E+04 -1.82398E+04 -2.59670E+04 -4.20009E+04
  7.59279E+03 -4.20750E+04  3.40404E+04 -1.73530E+04  3.21101E+04  1.14558E+04  5.23927E+03  2.10612E+04
 -1.39652E+04  9.48496E+03 -1.14675E+04 -7.57192E+03  5.44264E+03 -1.15149E+04  1.87486E+04  5.54960E+03
  1.50794E+04  2.26264E+04 -5.39369E+03  2.72622E+04 -2.33189E+04  1.45036E+04 -3.13285E+04 -2.81148E+03
 -2.52055E+04 -1.86011E+04 -1.23271E+04 -2.49233E+04  4.93703E+03 -2.57979E+04  1.94711E+04 -2.30467E+04
  3.21502E+04 -1.42288E+04  3.81835E+04  5.20890E+03  2.74382E+04  2.43426E+04  4.62982E+03  4.10692E+04
 -1.99139E+04  3.38934E+04 -3.08428E+04  1.16225E+04 -2.26453E+04 -9.88437E+03 -4.68283E+03 -1.30319E+04
  6.41623E+02 -1.32114E+03 -7.45929E+03  8.40480E+03 -1.99290E+04  5.07995E+03 -2.01808E+04 -9.63834E+03
 -1.22482E+04 -2.32018E+04  6.52389E+03 -2.75242E+04  1.85996E+04 -1.98599E+04  2.29956E+04 -1.76392E+03
  1.46720E+04  1.58950E+04 -1.43953E+03  2.31577E+04 -1.65506E+04  1.32853E+04 -2.36274E+04 -4.49256E+03
 -1.71867E+04 -2.09520E+04 -1.48171E+03 -2.79224E+04  1.26585E+04 -2.36708E+04  2.32601E+04 -1.19509E+04
  2.19441E+04 -2.05067E+02  1.55359E+04  5.55265E+03  8.92431E+03  1.29156E+03  1.23861E+04 -2.29965E+03
  2.23484E+04  2.53958E+03  2.51943E+04  1.82233E+04  1.71032E+04  3.74663E+04 -2.41652E+03  4.45091E+04
 -2.54837E+04  3.70726E+04 -4.22197E+04  1.92571E+04 -4.43804E+04 -3.27140E+03 -3.62273E+04 -2.60717E+04
 -1.44638E+04 -3.74754E+04  1.30369E+04 -3.25570E+04  2.79391E+04 -1.53032E+04  2.41133E+04  8.05876E+03
  7.95956E+03  1.85855E+04 -1.17416E+04  1.56513E+04 -2.00372E+04  2.44627E+03 -1.48148E+04 -1.26263E+04
 -6.29107E+02 -1.93180E+04  1.03743E+04 -1.43964E+04  1.30939E+04 -1.54252E+03  3.20308E+03  8.74030E+03
 -8.83922E+03  3.80430E+03 -9.51544E+03 -7.07888E+03 -1.52748E+03 -1.75076E+04  1.17512E+04 -2.01330E+04
  2.28923E+04 -1.12068E+04  2.61360E+04  3.48228E+03  2.28046E+04  1.84910E+04  1.09586E+04  2.90225E+04
 -5.26987E+03  3.11313E+04 -2.04150E+04  1.98116E+04 -2.22875E+04  4.35738E+03 -1.53850E+04 -6.26736E+03
 -6.40534E+03 -6.90798E+03 -6.04157E+02  5.87476E+02 -2.74208E+03  3.68425E+03 -7.36166E+03  5.67020E+03
 -1.40987E+04 -9.05919E+02 -1.50963E+04 -1.12666E+04 -5.98778E+03 -1.97247E+04  6.05012E+03 -1.57688E+04
  1.28808E+04 -6.22155E+03  8.97156E+03  4.21774E+03 -2.80124E+02  6.37406E+03 -7.93591E+03 -2.45355E+02
 -6.98114E+03 -1.01091E+04 -6.60112E+02 -1.54884E+04  9.21121E+03 -1.62327E+04  2.00626E+04 -8.81704E+03
  2.34813E+04  2.77658E+03  1.70482E+04  1.44508E+04  3.54381E+03  1.89205E+04 -9.63717E+03  1.55647E+04
 -1.24796E+04  4.07984E+03 -6.66918E+03 -3.38675E+03  2.00217E+03 -4.46462E+03  8.23318E+03 -1.04070E+03
  7.28289E+03  6.89523E+03  1.00562E+03  1.25933E+04 -9.35570E+03  1.21073E+04 -1.57316E+04  2.93084E+03
 -1.08022E+04 -7.87143E+03  5.73746E+02 -1.38010E+04  8.64103E+03 -6.64913E+03  8.88369E+03  3.69175E+03
  2.10349E+03  1.05053E+04 -8.31138E+03  1.18713E+04 -1.31845E+04  5.46948E+03 -1.38866E+04 -5.12650E+03
 -8.08633E+03 -1.61614E+04  4.04826E+03 -1.82688E+04  1.56346E+04 -1.06081E+04  1.65477E+04  3.31140E+03
  1.02515E+04  1.31520E+04 -1.13657E+03  1.58159E+04 -1.13966E+04  9.11852E+03 -1.29706E+04 -1.54506E+03
 -1.06471E+04 -1.02169E+04 -2.05182E+03 -1.17657E+04  6.34698E+03 -9.70398E+03  7.45532E+03 -3.60067E+03
  4.90282E+03  2.12246E+03 -9.21456E+02  1.62729E+03 -8.62303E+02 -3.64508E+03  2.29770E+03 -7.77734E+03
  1.17316E+04 -4.79206E+03  1.61602E+04  1.58939E+03  1.55950E+04  1.09883E+04  1.01294E+04  2.08598E+04
 -4.85211E+03  2.37697E+04 -1.96175E+04  1.77239E+04 -2.55766E+04  3.36353E+03 -2.08259E+04 -8.85423E+03
 -1.02276E+04 -1.70187E+04 -2.57530E+02 -1.51901E+04  5.46919E+03 -8.35423E+03  5.23623E+03 -5.34771E+03
  3.88957E+03 -2.95162E+03  3.52008E+03 -3.88616E+03  5.88932E+03 -3.47979E+03  8.20406E+03 -1.28509E+03
  1.09095E+04  2.55733E+03  6.26440E+03  9.14741E+03 -2.40222E+03  1.17044E+04 -1.13546E+04  8.76194E+03
 -1.50161E+04 -1.37079E+03 -9.67576E+03 -1.04649E+04 -1.30044E+03 -1.58854E+04  8.91855E+03 -1.57256E+04
  1.66461E+04 -8.86679E+03  1.95900E+04  2.82298E+03  1.34318E+04  1.35709E+04  1.75556E+03  1.78987E+04
 -7.63356E+03  1.44268E+04 -1.03070E+04  5.14139E+03 -6.83623E+03 -1.61154E+03 -3.12530E+03 -2.17120E+03
 -1.20732E+03 -8.44246E+01 -2.38490E+03  2.99495E+03 -6.45982E+03  2.36651E+03 -1.02484E+04 -1.13857E+03
 -7.23587E+03 -1.02091E+04 -1.49546E+02 -1.46180E+04  9.15928E+03 -1.43751E+04  1.44346E+04 -4.55949E+03
  1.46803E+04  6.74024E+03  6.88636E+03  1.32683E+04 -3.07671E+03  1.50055E+04 -1.04629E+04  9.66470E+03
 -1.38525E+04  4.75295E+02 -1.06157E+04 -9.04242E+03 -1.15940E+03 -1.20202E+04  6.39429E+03 -9.26931E+03
  9.52142E+03 -3.01614E+03  6.29075E+03  3.00873E+03  2.33992E+03  4.40108E+03  1.45503E+03  2.04304E+03
  2.56364E+03  1.32937E+03  3.66718E+03  1.68199E+03  4.54550E+03  5.26550E+03  3.71991E+03  7.47840E+03
 -3.06706E+03  1.16143E+04 -1.04984E+04  1.14040E+04 -1.52017E+04  2.88118E+03 -1.56711E+04 -6.59035E+03
 -7.61923E+03 -1.48098E+04  2.60956E+03 -1.64466E+04  9.08899E+03 -1.05939E+04  1.25593E+04 -2.78505E+03
  9.59584E+03  5.42663E+03  2.27575E+03  8.63626E+03 -4.43913E+03  5.72622E+03 -6.42770E+03 -8.11868E+02
 -2.94154E+03 -6.76174E+03  3.57719E+03 -6.48728E+03  6.39857E+03 -3.06441E+03  6.13113E+03  1.47032E+03
  3.77587E+03  3.12380E+03  1.65944E+03  2.61132E+03 -5.35183E+02  2.12193E+03  1.79029E+03 -2.66169E+02
  2.40827E+03 -7.73427E+02  6.49284E+03  2.53027E+03  3.70292E+03  8.15080E+03 -1.29687E+03  1.09435E+04
 -7.20082E+03  7.06512E+03 -1.01146E+04  2.07211E+03 -8.92688E+03 -3.56920E+03 -3.18677E+03 -5.73966E+03
  8.61301E+02 -6.25319E+03  3.88257E+03 -2.78777E+03  3.47749E+03  2.68106E+03 -1.26094E+03  4.84047E+03
 -6.32569E+03  2.85685E+03 -7.07182E+03 -3.68974E+03 -4.14770E+03 -8.53134E+03  1.04920E+03 -8.58535E+03
  5.33557E+03 -4.80965E+03  6.16578E+03 -7.09865E+02  5.09476E+03  2.38615E+03  8.11927E+02  4.96255E+03
 -3.05382E+03  1.36223E+03 -3.62734E+03 -3.43644E+03  1.40101E+03 -6.98287E+03  7.61641E+03 -5.10871E+03
  1.00427E+04  5.38593E+02  9.47202E+03  6.72015E+03  3.25542E+03  1.02080E+04 -3.61772E+03  9.84341E+03
 -8.34523E+03  4.36415E+03 -8.41140E+03 -9.73519E+02 -5.05588E+03 -6.37382E+03  1.67738E+03 -6.45701E+03
  6.21068E+03 -2.89470E+03  5.49189E+03  2.91267E+03  2.15988E+03  5.67625E+03 -8.22414E+02  4.88911E+03
 -2.60081E+03  3.48895E+03 -2.48179E+03  1.21714E+03 -1.16613E+03  1.35202E+03 -2.03966E+03  2.12668E+03
 -2.48833E+03  4.06201E+03 -7.04170E+03  3.66670E+03 -1.00456E+04  5.08116E+02 -1.14574E+04 -6.63483E+03
 -5.62219E+03 -1.31372E+04  2.97058E+03 -1.58042E+04  9.62504E+03 -1.19795E+04  1.47157E+04 -4.82230E+03
  1.38678E+04  2.79035E+03  8.38756E+03  8.82642E+03  3.14712E+02  1.03021E+04 -4.21707E+03  7.55697E+03
 -6.00763E+03  2.87925E+03 -3.63751E+03 -1.21331E+03 -1.17515E+03 -1.32851E+03 -1.15819E+03 -4.14773E+02
 -1.73492E+03  3.03852E+02 -2.34178E+03 -6.48843E+02 -8.88373E+02 -2.69580E+03  5.47450E+01 -4.22091E+03
  4.52911E+03 -3.42089E+03  6.59019E+03 -2.53802E+02  7.41887E+03  5.38311E+03  1.99166E+03  1.06631E+04
 -5.13659E+03  1.21626E+04 -1.12913E+04  7.03175E+03 -1.29363E+04 -9.29170E+02 -9.69374E+03 -7.21860E+03
 -3.90880E+03 -1.10444E+04  2.61058E+03 -1.03447E+04  6.55722E+03 -5.39852E+03  7.14283E+03  4.01911E+02
  3.94013E+03  3.42912E+03 -3.71624E+02  3.22891E+03 -2.18529E+03 -6.59221E+01  2.27648E+02 -2.75082E+03
  3.46201E+03 -1.71899E+03  3.89077E+03  1.04945E+03  3.11320E+03  4.43935E+03  3.25945E+02  5.11205E+03
 -5.07246E+03  4.83088E+03 -6.97948E+03  4.50550E+02 -6.55773E+03 -4.89411E+03 -1.51136E+03 -8.84977E+03
  4.84568E+03 -7.39056E+03  8.09588E+03 -2.06005E+03  7.89620E+03  1.84538E+03  4.68003E+03  6.45832E+03
  4.95663E+02  7.02718E+03 -2.92816E+03  5.95532E+03 -4.54012E+03  3.06599E+03 -3.33546E+03  1.86640E+02
 -2.12582E+03 -2.77876E+02 -1.90744E+03  1.08203E+03 -3.58815E+03  1.14273E+03 -5.61307E+03 -1.31549E+03
 -5.06499E+03 -3.70497E+03 -1.58830E+03 -7.60474E+03  3.13516E+03 -7.85299E+03  6.12176E+03 -3.73574E+03
  7.23120E+03  1.14286E+03  3.69965E+03  5.15151E+03 -1.76699E+02  6.96408E+03 -5.57952E+03  4.21971E+03
