 $NMID ID='MM_0lb_SNR800_8hz_g60_3.RAW', FMTDAT='(8E13.5)'
 TRAMP=1., VOLUME=1. $END
  3.09939E+05  4.36343E+02  3.37921E+05  2.50860E+05  8.54325E+04  3.38790E+05 -1.32435E+05  2.52339E+05
 -1.91319E+05  8.43401E+04 -1.13256E+05 -3.21189E+04 -1.91877E+02 -5.09679E+04  5.36145E+04 -6.67119E+02
  3.58379E+04  5.28113E+04 -1.62855E+04  7.64573E+04 -6.12577E+04  6.52487E+04 -8.56835E+04  3.32192E+04
 -8.30079E+04 -1.17832E+04 -5.87334E+04 -5.32615E+04 -1.53721E+04 -7.15408E+04  2.81808E+04 -4.72957E+04
  4.16720E+04  3.90203E+03  1.72141E+04  4.85202E+04 -3.48170E+04  4.88242E+04 -6.84125E+04  4.94891E+02
 -5.51942E+04 -5.84635E+04 -7.70126E+03 -7.96606E+04  3.49448E+04 -5.77384E+04  5.06038E+04 -1.83737E+04
  4.57573E+04  1.15274E+04  3.33870E+04  2.68993E+04  1.58756E+04  3.11511E+04 -6.45780E+03  2.83746E+04
 -2.26090E+04  1.16446E+04 -1.78507E+04 -5.76854E+03  7.66684E+03 -7.88809E+03  2.39463E+04  1.42691E+04
  6.82870E+03  3.80668E+04 -3.41997E+04  3.78300E+04 -6.70770E+04  2.08352E+03 -5.94480E+04 -4.55434E+04
 -1.28662E+04 -6.71264E+04  4.24966E+04 -4.84225E+04  6.22197E+04 -2.89417E+03  3.79757E+04  3.54001E+04
 -5.08634E+03  4.09078E+04 -3.24996E+04  2.01298E+04 -3.48062E+04 -3.07825E+03 -2.03313E+04 -1.22423E+04
 -9.99430E+03 -1.59026E+04 -4.08177E+02 -2.00715E+04  9.14251E+03 -2.33843E+04  1.59120E+04 -1.27305E+04
  9.88389E+03  6.62329E+03 -1.14483E+04  1.28454E+04 -2.39703E+04 -7.23549E+03 -8.79840E+03 -3.92565E+04
  2.57986E+04 -4.84722E+04  5.37617E+04 -2.15972E+04  5.02351E+04  2.14692E+04  1.79461E+04  4.89569E+04
 -1.69854E+04  3.71124E+04 -2.88612E+04  3.14352E+03 -1.26975E+04 -3.06473E+04  2.18219E+04 -3.80875E+04
  4.63808E+04 -1.18681E+04  4.21835E+04  2.60081E+04  2.24828E+04  5.30427E+04 -8.85412E+03  5.82866E+04
 -3.71400E+04  4.04040E+04 -5.00992E+04  1.17788E+04 -4.97671E+04 -1.93433E+04 -2.70464E+04 -4.39105E+04
  8.41419E+03 -4.40338E+04  3.50991E+04 -1.78106E+04  3.34203E+04  1.10788E+04  5.71842E+03  2.13211E+04
 -1.39944E+04  1.02324E+04 -1.17095E+04 -7.37372E+03  6.10261E+03 -1.19882E+04  1.93655E+04  5.35613E+03
  1.53164E+04  2.28453E+04 -4.63034E+03  2.79198E+04 -2.40574E+04  1.54321E+04 -3.28840E+04 -2.39942E+03
 -2.72608E+04 -1.88698E+04 -1.27436E+04 -2.65915E+04  4.53678E+03 -2.81143E+04  2.14080E+04 -2.48612E+04
  3.46314E+04 -1.48023E+04  4.00866E+04  5.57159E+03  2.85059E+04  2.63308E+04  4.25399E+03  4.32567E+04
 -2.06166E+04  3.52044E+04 -3.13037E+04  1.25661E+04 -2.33587E+04 -1.06459E+04 -5.30904E+03 -1.28528E+04
  4.18721E+02 -5.71302E+02 -9.17601E+03  8.57897E+03 -2.20952E+04  5.04383E+03 -2.20299E+04 -1.03100E+04
 -1.23203E+04 -2.56093E+04  6.10503E+03 -2.98585E+04  2.03064E+04 -2.08887E+04  2.47963E+04 -1.72376E+03
  1.56979E+04  1.73820E+04 -1.51039E+03  2.49346E+04 -1.83310E+04  1.44407E+04 -2.57718E+04 -5.04189E+03
 -1.85857E+04 -2.28408E+04 -2.41728E+03 -3.02008E+04  1.35850E+04 -2.52160E+04  2.50598E+04 -1.32303E+04
  2.35559E+04 -3.55125E+02  1.72174E+04  5.02986E+03  9.78726E+03  1.51007E+03  1.31758E+04 -2.45380E+03
  2.38209E+04  3.03916E+03  2.77816E+04  1.89242E+04  1.91803E+04  4.02901E+04 -2.43316E+03  4.85796E+04
 -2.75219E+04  4.08213E+04 -4.56249E+04  2.11364E+04 -4.95841E+04 -3.37978E+03 -3.99302E+04 -2.90111E+04
 -1.56338E+04 -4.13482E+04  1.47189E+04 -3.55545E+04  3.07706E+04 -1.67285E+04  2.64389E+04  8.34724E+03
  8.16428E+03  2.05402E+04 -1.24324E+04  1.67720E+04 -2.21898E+04  2.41981E+03 -1.63232E+04 -1.44404E+04
 -5.83630E+01 -2.10652E+04  1.16433E+04 -1.59854E+04  1.47898E+04 -8.58039E+02  3.70912E+03  9.96975E+03
 -9.45329E+03  4.80687E+03 -1.05416E+04 -7.69913E+03 -2.74770E+03 -2.04037E+04  1.30295E+04 -2.23970E+04
  2.56256E+04 -1.27935E+04  3.01916E+04  3.58356E+03  2.62298E+04  2.08353E+04  1.20198E+04  3.26222E+04
 -6.90459E+03  3.48534E+04 -2.26918E+04  2.17914E+04 -2.57687E+04  4.33590E+03 -1.70550E+04 -6.32493E+03
 -7.55222E+03 -8.56490E+03 -4.79010E+02 -9.93078E+01 -3.18211E+03  3.64843E+03 -8.40678E+03  5.72445E+03
 -1.58957E+04 -1.26201E+03 -1.62907E+04 -1.29799E+04 -6.67951E+03 -2.15440E+04  7.33337E+03 -1.76172E+04
  1.40100E+04 -7.14040E+03  9.81012E+03  5.24261E+03 -3.41289E+02  7.13080E+03 -8.87311E+03  6.56936E+01
 -8.79731E+03 -1.11006E+04 -1.09876E+03 -1.76069E+04  1.07406E+04 -1.82931E+04  2.28588E+04 -1.00762E+04
  2.68061E+04  3.01509E+03  1.89271E+04  1.65566E+04  3.57840E+03  2.17911E+04 -1.01997E+04  1.76849E+04
 -1.40595E+04  5.19074E+03 -7.46093E+03 -3.84509E+03  2.53068E+03 -5.17889E+03  9.47993E+03 -8.17348E+02
  8.54037E+03  7.70003E+03  1.75071E+03  1.44146E+04 -1.04455E+04  1.38266E+04 -1.75972E+04  3.39837E+03
 -1.19412E+04 -9.22100E+03  1.23917E+02 -1.51256E+04  1.02831E+04 -7.84088E+03  1.11373E+04  3.49675E+03
  2.73068E+03  1.19126E+04 -9.55988E+03  1.33832E+04 -1.58995E+04  5.47723E+03 -1.65168E+04 -5.99706E+03
 -9.17356E+03 -1.84643E+04  4.81460E+03 -2.11076E+04  1.81305E+04 -1.25236E+04  1.93385E+04  2.76659E+03
  1.18254E+04  1.54704E+04 -1.99631E+03  1.82741E+04 -1.33343E+04  1.05667E+04 -1.51943E+04 -1.92785E+03
 -1.20050E+04 -1.19239E+04 -1.50761E+03 -1.40083E+04  7.54538E+03 -1.08773E+04  9.30076E+03 -3.52954E+03
  5.72945E+03  2.81790E+03 -1.68821E+03  2.23032E+03 -1.37816E+03 -4.13261E+03  3.61154E+03 -9.52257E+03
  1.37587E+04 -6.14790E+03  1.91049E+04  2.39538E+03  1.86551E+04  1.35407E+04  1.20825E+04  2.42267E+04
 -6.19958E+03  2.82244E+04 -2.33582E+04  2.11139E+04 -3.00254E+04  4.42684E+03 -2.42976E+04 -1.10589E+04
 -1.19797E+04 -1.97629E+04 -3.24972E+02 -1.72784E+04  6.41991E+03 -9.99772E+03  6.06247E+03 -6.55242E+03
  5.01066E+03 -3.19658E+03  4.32590E+03 -4.32314E+03  6.57716E+03 -4.48838E+03  9.40137E+03 -1.82262E+03
  1.26253E+04  3.39022E+03  7.29428E+03  1.14063E+04 -2.57157E+03  1.36511E+04 -1.35110E+04  1.08314E+04
 -1.74923E+04 -1.74928E+03 -1.18518E+04 -1.24597E+04 -1.59524E+03 -1.90945E+04  1.08137E+04 -1.89806E+04
  2.00988E+04 -1.02872E+04  2.34847E+04  3.55297E+03  1.59094E+04  1.68170E+04  2.24771E+03  2.14666E+04
 -9.08051E+03  1.75202E+04 -1.30441E+04  5.85447E+03 -8.72157E+03 -1.92963E+03 -3.72781E+03 -2.76442E+03
 -1.86740E+03 -5.54794E+02 -2.58338E+03  3.49411E+03 -7.48404E+03  2.96876E+03 -1.20906E+04 -1.82989E+03
 -8.75386E+03 -1.17337E+04 -6.54599E+02 -1.76987E+04  1.09053E+04 -1.61520E+04  1.79291E+04 -4.94776E+03
  1.74326E+04  8.45477E+03  8.18223E+03  1.60891E+04 -3.61687E+03  1.81764E+04 -1.33981E+04  1.09572E+04
 -1.71310E+04  2.48038E+02 -1.21018E+04 -1.12494E+04 -1.57293E+03 -1.50738E+04  7.63187E+03 -1.11537E+04
  1.16113E+04 -3.77916E+03  7.42840E+03  2.98666E+03  2.89589E+03  5.26488E+03  1.28065E+03  2.42121E+03
  3.27006E+03  9.24918E+02  4.58398E+03  2.22902E+03  5.75682E+03  5.45421E+03  4.87907E+03  9.36397E+03
 -3.65883E+03  1.45731E+04 -1.25970E+04  1.41960E+04 -1.91356E+04  3.55115E+03 -1.93664E+04 -7.86281E+03
 -9.68003E+03 -1.85777E+04  2.45845E+03 -2.05776E+04  1.13594E+04 -1.29135E+04  1.54707E+04 -3.75085E+03
  1.15721E+04  6.68105E+03  1.84212E+03  1.04617E+04 -5.03243E+03  6.74325E+03 -8.27951E+03 -1.01398E+03
 -3.56098E+03 -8.14878E+03  4.26813E+03 -8.25527E+03  7.81803E+03 -4.08797E+03  7.32697E+03  1.00312E+03
  4.53557E+03  4.12660E+03  1.75941E+03  3.07792E+03 -1.07326E+03  2.35899E+03  1.35134E+03 -5.93289E+02
  3.25327E+03 -8.28586E+02  7.18378E+03  3.22234E+03  4.71549E+03  9.95507E+03 -1.20831E+03  1.30375E+04
 -8.72143E+03  9.06301E+03 -1.23993E+04  2.82688E+03 -1.08394E+04 -4.71831E+03 -4.39912E+03 -7.45332E+03
  1.01144E+03 -7.95737E+03  4.81470E+03 -3.57846E+03  4.26230E+03  3.45485E+03 -1.48593E+03  6.16873E+03
 -8.17256E+03  3.54274E+03 -9.35185E+03 -4.33710E+03 -5.15485E+03 -1.04568E+04  1.49017E+03 -1.08491E+04
  6.73852E+03 -6.51519E+03  7.87796E+03 -8.20718E+02  6.74683E+03  3.09642E+03  6.06032E+02  5.57493E+03
 -3.62615E+03  1.94359E+03 -5.11013E+03 -3.93144E+03  1.70392E+03 -8.65279E+03  9.28507E+03 -7.01248E+03
  1.26124E+04  1.01556E+03  1.16286E+04  8.18383E+03  4.19369E+03  1.30705E+04 -4.72662E+03  1.18928E+04
 -1.06372E+04  5.25853E+03 -1.07257E+04 -1.99629E+03 -5.93607E+03 -7.77232E+03  1.69287E+03 -7.72157E+03
  7.53219E+03 -4.25081E+03  6.50325E+03  3.16417E+03  2.15218E+03  6.95871E+03 -1.22702E+03  6.33888E+03
 -3.52698E+03  3.76376E+03 -3.35023E+03  1.56271E+03 -1.26006E+03  1.11854E+03 -2.14253E+03  2.72896E+03
 -3.45887E+03  4.85941E+03 -8.46615E+03  4.16935E+03 -1.27681E+04  3.29765E+02 -1.41451E+04 -8.77751E+03
 -7.36160E+03 -1.72520E+04  3.23970E+03 -1.98486E+04  1.25160E+04 -1.55364E+04  1.89109E+04 -5.61542E+03
  1.74137E+04  3.77456E+03  1.07350E+04  1.19611E+04  1.03238E+03  1.37526E+04 -5.31809E+03  9.63231E+03
 -7.47653E+03  3.55879E+03 -4.62775E+03 -1.41195E+03 -1.31548E+03 -1.38669E+03 -4.77244E+02  3.16644E+02
 -2.49537E+03  6.76830E+02 -3.04239E+03 -7.65245E+02 -1.46717E+03 -3.34014E+03  2.83641E+02 -4.70799E+03
  6.08606E+03 -4.15534E+03  8.39081E+03  2.02138E+02  9.16705E+03  7.49123E+03  2.61792E+03  1.32771E+04
 -6.42343E+03  1.59225E+04 -1.45967E+04  8.60644E+03 -1.64931E+04 -1.72018E+03 -1.25065E+04 -1.05141E+04
 -5.42836E+03 -1.37059E+04  3.47884E+03 -1.30412E+04  9.16674E+03 -6.92312E+03  9.28630E+03  4.50580E+02
  4.86513E+03  4.59374E+03 -2.81362E+02  3.66116E+03 -2.89819E+03 -6.42169E+02  3.20430E+02 -3.52602E+03
  3.89216E+03 -2.59581E+03  5.19875E+03  1.53042E+03  3.50466E+03  5.73072E+03 -7.17956E+01  7.81843E+03
 -6.33078E+03  6.50012E+03 -8.76099E+03  6.96082E+02 -8.51888E+03 -7.01838E+03 -1.33612E+03 -1.18789E+04
  6.21230E+03 -9.84981E+03  1.07502E+04 -2.87024E+03  1.06277E+04  2.76198E+03  6.24969E+03  8.63531E+03
  7.30740E+02  9.46700E+03 -3.39025E+03  7.19344E+03 -5.88434E+03  3.81844E+03 -4.97655E+03  3.46549E+02
 -2.48736E+03 -1.10520E+02 -2.54357E+03  1.74126E+03 -4.43907E+03  1.63542E+03 -7.49097E+03 -1.33252E+03
 -6.80855E+03 -5.79423E+03 -2.11912E+03 -9.60232E+03  4.15842E+03 -9.06080E+03  8.38143E+03 -5.31124E+03
  9.19829E+03  1.57730E+03  5.18912E+03  6.87852E+03 -6.79465E+02  8.89414E+03 -6.83054E+03  5.99814E+03
