 $NMID ID='MM_0lb_SNR800_17hz_g45_45.RAW', FMTDAT='(8E13.5)'
 TRAMP=1., VOLUME=1. $END
  3.09470E+05  2.27718E+02  3.37604E+05  2.50499E+05  8.45428E+04  3.37688E+05 -1.32350E+05  2.50529E+05
 -1.89966E+05  8.28761E+04 -1.11096E+05 -3.26453E+04  1.30112E+03 -5.02136E+04  5.39485E+04  8.28289E+01
  3.50356E+04  5.28897E+04 -1.67291E+04  7.52963E+04 -6.00410E+04  6.29327E+04 -8.31030E+04  3.16971E+04
 -7.97041E+04 -1.11841E+04 -5.65283E+04 -5.05788E+04 -1.48587E+04 -6.88141E+04  2.67979E+04 -4.52760E+04
  3.92404E+04  3.70845E+03  1.58531E+04  4.75666E+04 -3.40218E+04  4.62292E+04 -6.56127E+04 -5.17185E+02
 -5.19744E+04 -5.60490E+04 -6.35590E+03 -7.58127E+04  3.33180E+04 -5.34760E+04  4.67187E+04 -1.68364E+04
  4.21616E+04  1.12566E+04  3.11351E+04  2.48564E+04  1.59311E+04  2.84745E+04 -4.72418E+03  2.71866E+04
 -2.16916E+04  1.28153E+04 -1.89512E+04 -4.16677E+03  4.84977E+03 -7.35332E+03  2.16296E+04  1.14169E+04
  7.30257E+03  3.34947E+04 -3.04766E+04  3.45041E+04 -6.19035E+04  2.12732E+03 -5.56508E+04 -4.15646E+04
 -1.23930E+04 -6.12673E+04  3.86925E+04 -4.40195E+04  5.59134E+04 -2.11402E+03  3.22538E+04  3.10169E+04
 -6.49890E+03  3.37690E+04 -2.89956E+04  1.38320E+04 -2.84823E+04 -5.18985E+03 -1.52806E+04 -1.04239E+04
 -7.79123E+03 -1.17637E+04 -8.61254E+02 -1.69245E+04  6.96634E+03 -2.26959E+04  1.50027E+04 -1.39342E+04
  1.20051E+04  4.45202E+03 -6.85753E+03  1.31190E+04 -1.99565E+04 -3.11859E+03 -8.14797E+03 -3.15040E+04
  2.12981E+04 -4.12995E+04  4.54135E+04 -1.86351E+04  4.27977E+04  1.85155E+04  1.43966E+04  4.23461E+04
 -1.56323E+04  3.17693E+04 -2.42058E+04  1.15199E+03 -8.97348E+03 -2.67709E+04  2.05862E+04 -3.21013E+04
  3.87466E+04 -7.75648E+03  3.25252E+04  2.30796E+04  1.60592E+04  4.35368E+04 -7.77903E+03  4.65459E+04
 -2.94180E+04  3.11572E+04 -3.85815E+04  8.66778E+03 -3.96124E+04 -1.55364E+04 -2.17385E+04 -3.53893E+04
  7.17586E+03 -3.52109E+04  2.97423E+04 -1.31038E+04  2.75164E+04  1.09293E+04  3.34556E+03  1.82679E+04
 -1.28550E+04  7.47612E+03 -9.78580E+03 -7.71984E+03  6.00627E+03 -9.87883E+03  1.73394E+04  6.19641E+03
  1.25867E+04  2.21274E+04 -6.18821E+03  2.36014E+04 -2.17347E+04  1.02182E+04 -2.57413E+04 -5.86552E+03
 -1.80281E+04 -1.67831E+04 -6.13816E+03 -1.77061E+04  3.59468E+03 -1.62488E+04  1.31372E+04 -1.52118E+04
  2.25718E+04 -1.21071E+04  2.91674E+04  1.56879E+03  2.15292E+04  1.72441E+04  4.16321E+03  3.33575E+04
 -1.66468E+04  2.83403E+04 -2.63977E+04  9.44568E+03 -1.96728E+04 -1.03060E+04 -4.32806E+03 -1.40324E+04
  2.44469E+03 -3.67009E+03 -3.39392E+03  6.02748E+03 -1.39644E+04  5.32210E+03 -1.41476E+04 -5.79249E+03
 -8.91862E+03 -1.63129E+04  4.49970E+03 -2.03400E+04  1.33170E+04 -1.47995E+04  1.55475E+04 -1.48296E+03
  9.48058E+03  1.12311E+04 -7.59546E+02  1.66114E+04 -1.10207E+04  9.30659E+03 -1.62924E+04 -3.42368E+03
 -1.18755E+04 -1.47235E+04 -1.51818E+03 -2.02307E+04  8.91182E+03 -1.61610E+04  1.68349E+04 -7.95034E+03
  1.52624E+04  5.22621E+02  1.10206E+04  3.87319E+03  5.61232E+03  5.46385E+02  8.01638E+03 -1.43984E+03
  1.47332E+04  2.76967E+03  1.58691E+04  1.32891E+04  9.99344E+03  2.64205E+04 -3.23738E+03  2.85450E+04
 -1.66742E+04  2.21618E+04 -2.61486E+04  1.06514E+04 -2.72373E+04 -2.07702E+03 -2.28609E+04 -1.52419E+04
 -1.05158E+04 -2.20966E+04  7.67711E+03 -2.03155E+04  1.78020E+04 -1.09558E+04  1.67439E+04  4.16754E+03
  6.75772E+03  1.20204E+04 -7.50066E+03  1.11220E+04 -1.40155E+04  2.54921E+03 -1.09222E+04 -8.38951E+03
 -9.23907E+01 -1.32340E+04  7.01948E+03 -9.87759E+03  8.37068E+03 -9.64563E+02  1.52499E+03  5.51713E+03
 -5.74907E+03  1.68349E+03 -4.12860E+03 -4.89434E+03  2.25880E+02 -1.09729E+04  8.36207E+03 -1.14899E+04
  1.31606E+04 -5.82372E+03  1.34663E+04  2.90757E+03  1.15110E+04  1.02857E+04  5.27206E+03  1.56254E+04
 -1.94582E+03  1.76921E+04 -1.05790E+04  1.11015E+04 -1.23992E+04  2.97478E+03 -9.33191E+03 -2.33334E+03
 -4.64653E+03 -3.81108E+03 -9.50132E+02  1.40357E+03 -2.11074E+03  2.02511E+03 -3.93351E+03  3.49134E+03
 -8.81344E+03 -4.66798E+02 -9.21584E+03 -7.64305E+03 -3.84702E+03 -1.24857E+04  3.75179E+03 -9.47194E+03
  7.71382E+03 -4.13474E+03  5.61851E+03  2.51950E+03  4.78154E+02  3.46232E+03 -3.60440E+03 -9.28282E+01
 -3.93812E+03 -5.64979E+03 -6.93506E+02 -8.01460E+03  4.68997E+03 -8.73025E+03  1.10223E+04 -4.59926E+03
  1.29337E+04  8.03848E+02  9.81563E+03  6.78699E+03  1.95100E+03  9.67692E+03 -5.55224E+03  9.04025E+03
 -7.47525E+03  2.96950E+03 -3.78700E+03 -1.51111E+03  1.52685E+03 -1.99000E+03  4.94192E+03 -1.07095E+03
  4.55158E+03  3.78715E+03  1.12924E+03  6.83692E+03 -4.77786E+03  6.90713E+03 -8.56194E+03  1.77211E+03
 -5.23853E+03 -3.91290E+03  4.47153E+02 -7.37671E+03  4.25348E+03 -3.75495E+03  3.86908E+03  1.32432E+03
  8.29861E+02  4.34156E+03 -4.60186E+03  5.47350E+03 -5.67535E+03  2.74025E+03 -5.34157E+03 -1.33544E+03
 -3.29168E+03 -6.87645E+03  1.69327E+03 -7.98232E+03  6.61640E+03 -5.40738E+03  7.25430E+03  1.00639E+03
  5.01100E+03  5.89248E+03  1.14546E+02  8.18815E+03 -5.68805E+03  4.59791E+03 -6.01113E+03 -2.63095E+02
 -6.26547E+03 -5.90418E+03 -1.47312E+03 -5.53277E+03  3.14304E+03 -5.22441E+03  3.20443E+03 -2.81734E+03
  2.54654E+03  3.68350E+02  2.65718E+01  1.25577E+03  5.19769E+02 -3.87494E+02  2.35411E+02 -1.95957E+03
  4.17848E+03 -9.61030E+02  6.30944E+03  9.65333E+02  6.23049E+03  3.93466E+03  5.70269E+03  8.36957E+03
 -1.46691E+03  9.62709E+03 -8.42745E+03  7.24733E+03 -1.11138E+04  1.34587E+03 -8.93166E+03 -3.09494E+03
 -4.75997E+03 -7.47509E+03 -8.20978E+01 -6.14722E+03  2.29706E+03 -2.81001E+03  2.04303E+03 -2.13951E+03
  1.31241E+03 -1.47013E+03  2.43177E+03 -2.51022E+03  3.48124E+03 -1.56866E+03  4.17655E+03  2.98817E+02
  5.07301E+03  1.31522E+03  1.53675E+03  3.95562E+03 -1.72507E+03  3.54718E+03 -5.01747E+03  3.19460E+03
 -5.73810E+03 -1.15592E+03 -2.87476E+03 -4.09455E+03  4.31166E+02 -5.88045E+03  3.91060E+03 -6.17578E+03
  6.26594E+03 -3.79676E+03  7.76184E+03  3.09287E+02  5.58863E+03  4.77811E+03  9.89929E+02  7.09161E+03
 -2.55979E+03  6.79681E+03 -3.82459E+03  2.30377E+03 -2.37024E+03 -7.98200E+02 -6.16096E+02 -9.29428E+02
 -4.99357E+02  3.39702E+02 -1.07690E+03  2.03227E+03 -2.84177E+03  1.09581E+03 -4.42060E+03 -7.47799E+02
 -2.38267E+03 -4.66427E+03  4.88928E+02 -5.46759E+03  3.35176E+03 -5.34681E+03  4.37771E+03 -1.28690E+03
  4.60268E+03  2.81966E+03  1.84191E+03  3.98982E+03 -1.22426E+03  5.50975E+03 -3.24991E+03  3.27533E+03
 -4.53979E+03  6.99532E+02 -3.97298E+03 -2.67053E+03 -3.26620E+02 -3.97038E+03  2.15424E+03 -2.84152E+03
  3.29977E+03 -1.46049E+03  1.93507E+03  6.00907E+02  5.15266E+02  1.91174E+03  6.07497E+02  5.82921E+02
  1.55376E+03  5.69614E+02  1.33197E+03  1.06827E+03  1.38307E+03  2.37658E+03  1.75654E+03  2.20420E+03
 -1.36143E+03  3.65361E+03 -3.02651E+03  4.69847E+03 -4.13956E+03  8.86346E+02 -5.36549E+03 -1.13990E+03
 -2.16087E+03 -4.83877E+03  9.70031E+02 -5.83628E+03  2.50799E+03 -3.26426E+03  3.79154E+03 -1.13330E+03
  2.98883E+03  2.19442E+03  5.61481E+02  2.67783E+03 -1.08765E+03  1.65850E+03 -1.37399E+03 -9.37479E+01
 -8.51400E+02 -2.09225E+03  1.56017E+03 -2.05617E+03  1.67604E+03 -7.36361E+02  1.70919E+03  2.54119E+02
  7.94239E+02  6.46254E+02  8.61567E+02  2.30104E+01 -5.97923E+02  9.78254E+02  1.50395E+03 -1.65504E+02
  2.10593E+02 -1.57874E+02  2.20851E+03  7.97740E+02  5.02113E+02  2.90854E+03 -2.85323E+02  3.66837E+03
 -2.21261E+03  1.53810E+03 -2.66893E+03  4.32231E+02 -2.53831E+03 -1.01535E+03 -3.19557E+02 -1.50214E+03
  3.39175E+02 -1.67942E+03  1.24600E+03 -4.83965E+02  8.88372E+02  1.65042E+03 -6.23663E+02  1.51180E+03
 -1.73835E+03  8.66039E+02 -1.80832E+03 -1.29182E+03 -1.12329E+03 -2.42492E+03  2.06571E+02 -2.20342E+03
  7.54513E+02 -1.04003E+03  1.11791E+03  1.66309E+02  1.77111E+03  1.45864E+02  2.74046E+02  1.50564E+03
 -4.93927E+02  3.03421E+00 -1.20884E+03 -3.04020E+02  5.15849E+02 -1.37376E+03  2.03593E+03 -1.29166E+03
  1.74005E+03  6.61813E+01  3.28893E+03  1.13697E+03  1.12191E+03  2.15657E+03 -3.18692E+02  2.49912E+03
 -1.76407E+03  7.17425E+02 -2.00342E+03  2.38926E+01 -1.15863E+03 -1.83721E+03  4.79941E+02 -8.81997E+02
  1.75073E+03 -8.96300E+02  1.04788E+03  9.11629E+02  4.64739E+02  1.74701E+03 -7.19398E+00  1.60306E+03
 -4.39874E+02  1.17065E+03 -7.17668E+02  4.44398E+02 -2.14507E+02  5.42888E+02 -8.88652E+02  4.41552E+02
 -7.01018E+02  1.33783E+03 -1.89871E+03  6.75189E+02 -2.19997E+03  6.65303E+01 -2.93557E+03 -1.42226E+03
 -1.23505E+03 -2.92045E+03  7.20383E+02 -3.75466E+03  1.55809E+03 -3.14869E+03  3.55337E+03 -1.20255E+03
  2.90456E+03  3.02212E+02  1.61381E+03  2.43289E+03 -2.91654E+02  1.90116E+03 -7.94273E+02  1.69602E+03
 -1.08001E+03  8.02064E+02 -7.36304E+02 -7.94857E+01 -2.64507E+02  2.43595E+02 -4.89060E+02  1.54396E+01
 -1.29368E+03 -1.86881E+02 -1.00807E+03 -1.10630E+02 -2.76123E+01 -6.75748E+02 -3.25979E+02 -1.01783E+03
  1.38876E+03 -9.65085E+02  7.56746E+02 -9.45003E+01  1.59135E+03  1.28440E+03 -4.89624E+02  2.18357E+03
 -1.10741E+03  2.90349E+03 -2.62947E+03  1.52108E+03 -2.25178E+03 -1.72162E+02 -1.84481E+03 -1.49740E+03
 -1.03159E+03 -2.00202E+03  1.65474E+02 -1.55590E+03  1.18685E+03 -8.50028E+02  1.00347E+03  7.31246E+01
  9.94885E+02  5.01602E+02 -9.99727E+01  4.32559E+02 -6.50165E+02  1.10341E+02 -4.12273E+01 -2.61119E+02
  4.86151E+02  5.52881E+01  4.50166E+02  4.65229E+02  1.70891E+02  8.67197E+02  3.77483E+02  5.42559E+02
 -4.85372E+02  9.51709E+02 -8.88935E+02  1.45327E+02 -8.20884E+02 -9.55620E+02 -1.73776E+02 -1.80849E+03
  5.32289E+02 -1.13834E+03  8.41444E+02 -2.75847E+02  1.31062E+03 -1.89988E+02  5.94099E+02  1.41324E+03
  4.57182E+02  8.31825E+02 -3.29409E+02  5.99494E+02 -8.56095E+02  7.03360E+02 -7.59714E+02  1.91339E+02
 -1.82805E+02 -5.31256E+01 -4.82793E+02  1.57259E+02 -7.78118E+02  1.47795E+02 -9.55212E+02 -1.78969E+02
 -1.25086E+03  2.52705E+02 -5.76028E+02 -1.29301E+03  8.94954E+02 -1.87702E+03  1.09330E+03 -4.17299E+02
  1.18150E+03  1.00289E+02 -7.75907E+01  5.39061E+02 -9.10283E+01  1.18219E+03 -5.74767E+02  9.46952E+02
