 $NMID ID='MM_0lb_SNR800_17hz_g55_59.RAW', FMTDAT='(8E13.5)'
 TRAMP=1., VOLUME=1. $END
  3.09778E+05  2.20232E+02  3.37250E+05  2.50494E+05  8.47256E+04  3.37777E+05 -1.32613E+05  2.50688E+05
 -1.90106E+05  8.31660E+04 -1.11534E+05 -3.26509E+04  1.25150E+03 -5.02114E+04  5.39799E+04  2.04670E+02
  3.56021E+04  5.29164E+04 -1.66785E+04  7.54557E+04 -6.07261E+04  6.32597E+04 -8.36183E+04  3.17454E+04
 -8.07215E+04 -1.13311E+04 -5.71242E+04 -5.08207E+04 -1.51514E+04 -6.91796E+04  2.73235E+04 -4.55325E+04
  3.98570E+04  4.03125E+03  1.57238E+04  4.73236E+04 -3.42285E+04  4.68390E+04 -6.63083E+04 -3.36645E+02
 -5.29209E+04 -5.66359E+04 -6.48119E+03 -7.61879E+04  3.36035E+04 -5.43611E+04  4.73121E+04 -1.69307E+04
  4.27179E+04  1.11068E+04  3.14399E+04  2.51524E+04  1.57352E+04  2.87469E+04 -4.72522E+03  2.71479E+04
 -2.19223E+04  1.27261E+04 -1.86400E+04 -4.80947E+03  5.10295E+03 -7.47640E+03  2.18441E+04  1.18613E+04
  7.29376E+03  3.46266E+04 -3.13362E+04  3.52019E+04 -6.27185E+04  2.34734E+03 -5.63235E+04 -4.22897E+04
 -1.25608E+04 -6.23757E+04  3.91832E+04 -4.47120E+04  5.72475E+04 -1.95238E+03  3.32345E+04  3.16144E+04
 -5.92223E+03  3.52069E+04 -2.97118E+04  1.52210E+04 -2.93489E+04 -4.99580E+03 -1.58581E+04 -1.08410E+04
 -7.98682E+03 -1.23369E+04 -9.06462E+02 -1.75888E+04  7.12600E+03 -2.29131E+04  1.50790E+04 -1.39026E+04
  1.18961E+04  4.72712E+03 -7.56978E+03  1.30836E+04 -2.07097E+04 -3.53974E+03 -7.97152E+03 -3.25568E+04
  2.18293E+04 -4.21844E+04  4.67210E+04 -1.91026E+04  4.37826E+04  1.89506E+04  1.52506E+04  4.30889E+04
 -1.56997E+04  3.23764E+04 -2.45797E+04  1.84112E+03 -9.24664E+03 -2.72588E+04  2.08186E+04 -3.27775E+04
  4.00319E+04 -8.34192E+03  3.39763E+04  2.31742E+04  1.70241E+04  4.48250E+04 -7.97820E+03  4.81537E+04
 -3.04905E+04  3.18320E+04 -4.01065E+04  9.21622E+03 -4.08871E+04 -1.60155E+04 -2.27850E+04 -3.65476E+04
  7.36559E+03 -3.59840E+04  3.03435E+04 -1.34153E+04  2.84807E+04  1.11427E+04  3.45563E+03  1.86544E+04
 -1.34621E+04  8.01133E+03 -9.92528E+03 -7.54373E+03  5.83086E+03 -1.03890E+04  1.74565E+04  6.30846E+03
  1.27825E+04  2.22380E+04 -6.59246E+03  2.42690E+04 -2.22428E+04  1.02939E+04 -2.68239E+04 -5.62980E+03
 -1.87926E+04 -1.69918E+04 -6.84792E+03 -1.86698E+04  4.04510E+03 -1.71362E+04  1.42685E+04 -1.64801E+04
  2.38458E+04 -1.23645E+04  3.03976E+04  1.99148E+03  2.26174E+04  1.86457E+04  4.22368E+03  3.44068E+04
 -1.68837E+04  2.92693E+04 -2.68642E+04  9.69038E+03 -2.02091E+04 -9.93826E+03 -4.22740E+03 -1.37361E+04
  2.21667E+03 -3.69469E+03 -3.96208E+03  5.91672E+03 -1.45902E+04  5.21526E+03 -1.48057E+04 -5.93771E+03
 -9.42150E+03 -1.76273E+04  4.64146E+03 -2.13122E+04  1.39776E+04 -1.54643E+04  1.63846E+04 -1.70784E+03
  1.00800E+04  1.20428E+04 -7.29703E+02  1.76278E+04 -1.17902E+04  9.94797E+03 -1.72727E+04 -3.33439E+03
 -1.29110E+04 -1.56684E+04 -1.78493E+03 -2.11189E+04  9.43381E+03 -1.73058E+04  1.74738E+04 -8.36247E+03
  1.63875E+04  5.90077E+02  1.13888E+04  4.02827E+03  5.79185E+03  8.26209E+02  8.57640E+03 -1.38822E+03
  1.56488E+04  2.44181E+03  1.68511E+04  1.37901E+04  1.11570E+04  2.73859E+04 -2.68671E+03  3.04977E+04
 -1.76829E+04  2.40032E+04 -2.82744E+04  1.19201E+04 -2.93334E+04 -1.98341E+03 -2.45117E+04 -1.67540E+04
 -1.09342E+04 -2.39364E+04  8.19060E+03 -2.20055E+04  1.91570E+04 -1.15919E+04  1.71037E+04  4.56378E+03
  6.71694E+03  1.28521E+04 -8.19939E+03  1.15329E+04 -1.45504E+04  2.63975E+03 -1.13022E+04 -9.01948E+03
 -3.23163E+02 -1.40330E+04  7.01877E+03 -1.04211E+04  8.97491E+03 -1.40987E+03  1.77318E+03  5.90508E+03
 -6.09685E+03  2.03184E+03 -4.60258E+03 -5.28778E+03 -3.54987E+00 -1.16531E+04  8.69040E+03 -1.19547E+04
  1.42663E+04 -6.03266E+03  1.46298E+04  2.77085E+03  1.25965E+04  1.15569E+04  6.05856E+03  1.68717E+04
 -2.47586E+03  1.88667E+04 -1.15391E+04  1.19798E+04 -1.35884E+04  3.08593E+03 -9.56093E+03 -2.49274E+03
 -4.90565E+03 -3.93320E+03 -1.12762E+03  1.45057E+03 -2.17664E+03  2.58617E+03 -4.34273E+03  3.80215E+03
 -9.21530E+03 -5.44677E+02 -9.74258E+03 -8.47754E+03 -4.07422E+03 -1.26734E+04  3.98365E+03 -9.99378E+03
  8.15265E+03 -4.15190E+03  5.90940E+03  2.46603E+03  4.90156E+02  3.41685E+03 -4.30849E+03 -1.40145E+02
 -4.15618E+03 -5.73939E+03 -8.35745E+02 -8.79297E+03  4.68241E+03 -9.39643E+03  1.18712E+04 -5.04968E+03
  1.38985E+04  9.46445E+02  1.02948E+04  7.55947E+03  2.11328E+03  1.04727E+04 -6.01611E+03  9.53503E+03
 -7.80635E+03  3.00010E+03 -3.77351E+03 -1.59967E+03  1.53338E+03 -2.13654E+03  5.40189E+03 -9.56650E+02
  4.55382E+03  3.94531E+03  1.00813E+03  7.39333E+03 -5.25762E+03  7.64357E+03 -9.48278E+03  2.08975E+03
 -6.01166E+03 -4.53242E+03  3.42200E+02 -7.78929E+03  4.44826E+03 -3.77100E+03  4.35150E+03  1.66592E+03
  4.90744E+02  4.58189E+03 -4.79876E+03  5.83087E+03 -6.20278E+03  2.93979E+03 -6.28767E+03 -1.89837E+03
 -3.72809E+03 -7.46388E+03  1.69483E+03 -9.16129E+03  7.35261E+03 -5.64381E+03  8.30571E+03  8.05641E+02
  5.43739E+03  6.50054E+03  2.21611E+02  8.46003E+03 -5.96701E+03  5.00248E+03 -6.26187E+03 -6.34633E+02
 -6.65680E+03 -5.92136E+03 -1.53588E+03 -5.92240E+03  3.14791E+03 -5.65732E+03  3.58110E+03 -2.93644E+03
  3.33035E+03  3.33192E+02  2.55040E+02  1.29555E+03  3.15736E+02 -6.91319E+02  4.35433E+02 -2.49688E+03
  4.94777E+03 -1.28401E+03  6.97006E+03  7.31735E+02  7.02477E+03  4.20947E+03  5.76930E+03  9.21354E+03
 -1.88632E+03  1.09538E+04 -9.40207E+03  8.05339E+03 -1.24117E+04  1.39677E+03 -9.81243E+03 -3.50601E+03
 -4.95932E+03 -7.95715E+03 -5.38737E+02 -6.04585E+03  2.58782E+03 -3.02445E+03  2.31865E+03 -2.32775E+03
  1.58797E+03 -1.90615E+03  2.38125E+03 -2.71937E+03  3.81718E+03 -1.55269E+03  4.20938E+03  3.61990E+02
  5.33155E+03  1.34487E+03  1.70010E+03  4.21566E+03 -1.84235E+03  3.70566E+03 -5.65555E+03  3.40103E+03
 -6.43593E+03 -1.03568E+03 -2.90767E+03 -3.98748E+03  1.23879E+02 -6.46863E+03  4.10797E+03 -6.82221E+03
  6.28399E+03 -3.85304E+03  8.27851E+03  4.81285E+02  5.89587E+03  5.60408E+03  1.35665E+03  7.15222E+03
 -2.99533E+03  6.95858E+03 -4.14974E+03  2.17937E+03 -2.50202E+03 -1.20404E+03 -7.92118E+02 -5.79587E+02
 -7.48365E+02  4.03164E+02 -9.68822E+02  2.04240E+03 -3.12032E+03  1.34699E+03 -5.05173E+03 -5.77362E+02
 -2.40081E+03 -4.71613E+03  1.02601E+03 -5.42159E+03  3.75944E+03 -5.18069E+03  4.76860E+03 -1.38560E+03
  5.05142E+03  2.84979E+03  2.54579E+03  4.30400E+03 -9.50275E+02  5.50426E+03 -3.43077E+03  3.77696E+03
 -4.43719E+03  5.53822E+02 -3.98247E+03 -3.09372E+03 -5.86050E+02 -4.00951E+03  2.43124E+03 -3.44945E+03
  3.31386E+03 -1.46036E+03  2.40187E+03  5.96509E+02  3.17214E+02  1.71097E+03  7.33458E+02  8.67813E+02
  1.68896E+03  5.51408E+02  1.39093E+03  1.11185E+03  1.64122E+03  2.55775E+03  1.59880E+03  2.74848E+03
 -1.49394E+03  3.65458E+03 -3.35597E+03  5.00597E+03 -4.17583E+03  9.83416E+02 -5.19995E+03 -1.03874E+03
 -2.20490E+03 -4.76222E+03  6.14525E+02 -5.92771E+03  2.35123E+03 -3.20580E+03  3.99194E+03 -1.31743E+03
  3.17939E+03  2.07314E+03  9.28424E+02  2.81256E+03 -1.05840E+03  1.97188E+03 -1.71898E+03  1.02773E+02
 -8.39400E+02 -2.35338E+03  1.30966E+03 -2.15493E+03  1.75151E+03 -1.03676E+03  1.98199E+03  4.83707E+02
  1.06975E+03  5.43773E+02  8.48215E+02  7.35123E+01 -4.80636E+02  8.47640E+02  1.62608E+03 -8.61649E+01
  4.43889E+02 -3.13123E+02  2.32753E+03  8.63556E+02  7.06713E+02  2.74626E+03 -2.85946E+02  3.82074E+03
 -2.18053E+03  1.70226E+03 -2.90620E+03  1.90706E+02 -2.76005E+03 -9.29541E+02 -4.62137E+02 -1.44936E+03
  6.20392E+02 -1.53553E+03  1.01215E+03 -9.01239E+02  1.06567E+03  1.30863E+03 -8.64740E+02  1.56123E+03
 -1.90530E+03  7.42587E+02 -1.38608E+03 -1.43671E+03 -1.06907E+03 -2.75032E+03  1.29035E+02 -1.97662E+03
  6.86678E+02 -6.31122E+02  1.00891E+03  4.24406E+01  1.56428E+03  2.58587E+02  2.72943E+02  1.37428E+03
 -5.07144E+02  1.67592E+02 -1.05007E+03 -3.49502E+02  6.53505E+02 -1.35225E+03  1.94208E+03 -1.39572E+03
  2.05204E+03  3.95444E+02  3.30014E+03  1.13588E+03  1.31382E+03  2.25240E+03 -6.38345E+02  2.59924E+03
 -2.03922E+03  6.60398E+02 -2.09693E+03 -2.60079E+02 -1.04694E+03 -1.86616E+03  4.03464E+02 -9.80270E+02
  1.88411E+03 -8.99690E+02  1.26496E+03  1.20458E+03  2.80190E+02  1.57791E+03 -9.23719E+01  1.30121E+03
 -6.96788E+02  1.16112E+03 -5.40008E+02  2.13027E+02 -1.18142E+02  2.61500E+02 -6.01343E+02  6.92389E+02
 -6.02671E+02  1.37281E+03 -2.18184E+03  7.74958E+02 -2.14835E+03  6.96904E+01 -2.63256E+03 -1.43979E+03
 -1.45081E+03 -2.93066E+03  7.75359E+02 -3.66305E+03  1.52775E+03 -3.11826E+03  3.75569E+03 -1.34654E+03
  3.12252E+03 -3.15350E+01  1.70500E+03  1.88698E+03 -7.27590E+02  2.00593E+03 -1.03709E+03  1.65385E+03
 -1.59042E+03  6.20252E+02 -5.80192E+02 -2.93107E+02 -2.76563E+02  2.25153E+02 -6.43310E+02  2.23634E+02
 -1.24721E+03  6.74191E+00 -6.44663E+02  1.37032E+02  1.00990E+01 -9.91786E+02 -2.37519E+02 -1.03972E+03
  1.55454E+03 -7.65630E+02  7.59180E+02  2.10203E+02  1.50354E+03  1.28649E+03 -2.01664E+02  1.97423E+03
 -1.39804E+03  2.88971E+03 -2.16692E+03  1.37519E+03 -2.46118E+03 -2.27281E+02 -1.48956E+03 -1.57274E+03
 -1.29378E+03 -2.01798E+03  2.25741E+02 -1.69472E+03  8.35062E+02 -7.80422E+02  1.11427E+03  1.41864E+02
  9.07596E+02  5.73267E+02  2.23380E+02  5.83155E+02 -5.76808E+02 -1.12920E+02  3.94384E+02 -3.46241E+02
  5.53965E+02 -4.83485E+01  6.82502E+02  3.39751E+02  2.35007E+02  6.79696E+02  5.30026E+02  6.04084E+02
 -1.03598E+03  8.94192E+02 -9.05764E+02 -2.88457E+01 -1.12921E+03 -5.18215E+02 -1.32168E+02 -1.32473E+03
  7.49495E+02 -9.09239E+02  9.54483E+02 -2.41456E+02  1.32362E+03 -4.36324E+02  5.82737E+02  1.11067E+03
  2.97892E+02  9.78730E+02 -4.68882E+02  7.54310E+02 -8.20357E+02  1.10734E+03 -4.15869E+02  2.38682E+02
 -1.41381E+02 -4.48676E+01 -3.63373E+02  2.88173E+02 -3.36107E+02  1.35588E+02 -8.27687E+02 -3.63562E+02
 -1.27685E+03 -8.36175E+01 -3.44040E+02 -1.26442E+03  1.07181E+03 -2.27405E+03  1.01396E+03 -3.31049E+02
  7.00730E+02  1.20232E+01 -2.58982E+02  3.87572E+02 -1.12693E+02  1.13845E+03 -4.28459E+02  7.87319E+02
