 $NMID ID='MM_0lb_SNR800_14hz_g40_16.RAW', FMTDAT='(8E13.5)'
 TRAMP=1., VOLUME=1. $END
  3.09674E+05  4.55359E+02  3.37927E+05  2.50503E+05  8.46305E+04  3.38016E+05 -1.32685E+05  2.50799E+05
 -1.90212E+05  8.29971E+04 -1.11682E+05 -3.27093E+04  1.00191E+03 -5.08427E+04  5.37491E+04 -2.59221E+02
  3.51191E+04  5.29065E+04 -1.67497E+04  7.51266E+04 -6.07081E+04  6.33381E+04 -8.36913E+04  3.17896E+04
 -8.04893E+04 -1.14248E+04 -5.69248E+04 -5.10722E+04 -1.52281E+04 -6.94308E+04  2.76469E+04 -4.54046E+04
  3.97225E+04  3.73322E+03  1.59853E+04  4.76045E+04 -3.42969E+04  4.68216E+04 -6.64340E+04 -2.20204E+02
 -5.28668E+04 -5.68295E+04 -6.89973E+03 -7.65673E+04  3.35011E+04 -5.45480E+04  4.76077E+04 -1.69441E+04
  4.28379E+04  1.10285E+04  3.15102E+04  2.52405E+04  1.54679E+04  2.90586E+04 -5.01184E+03  2.72803E+04
 -2.22011E+04  1.25573E+04 -1.89574E+04 -4.79429E+03  5.34335E+03 -7.46488E+03  2.21024E+04  1.18577E+04
  7.22531E+03  3.47476E+04 -3.18599E+04  3.50111E+04 -6.29717E+04  2.13925E+03 -5.66624E+04 -4.26934E+04
 -1.27286E+04 -6.26625E+04  3.91936E+04 -4.49558E+04  5.72395E+04 -1.98536E+03  3.36435E+04  3.20270E+04
 -6.30788E+03  3.51004E+04 -2.97039E+04  1.55375E+04 -2.96040E+04 -4.79992E+03 -1.60619E+04 -1.05513E+04
 -8.37580E+03 -1.26258E+04 -1.11390E+03 -1.74835E+04  7.55887E+03 -2.26699E+04  1.54822E+04 -1.33737E+04
  1.19422E+04  4.99201E+03 -7.79035E+03  1.30543E+04 -2.07294E+04 -4.02961E+03 -8.09408E+03 -3.29427E+04
  2.24176E+04 -4.24841E+04  4.73678E+04 -1.95147E+04  4.45319E+04  1.91903E+04  1.52941E+04  4.36376E+04
 -1.57713E+04  3.30321E+04 -2.49280E+04  1.84361E+03 -9.58668E+03 -2.70408E+04  2.10040E+04 -3.32887E+04
  4.01451E+04 -8.84728E+03  3.46674E+04  2.34677E+04  1.73910E+04  4.55744E+04 -7.76515E+03  4.87990E+04
 -3.07967E+04  3.26773E+04 -4.05885E+04  8.99367E+03 -4.15493E+04 -1.64337E+04 -2.28047E+04 -3.73517E+04
  7.30772E+03 -3.71460E+04  3.12602E+04 -1.40136E+04  2.85881E+04  1.09626E+04  3.93274E+03  1.90504E+04
 -1.35084E+04  8.43633E+03 -9.95511E+03 -7.48884E+03  5.56033E+03 -1.03474E+04  1.79072E+04  6.24060E+03
  1.30782E+04  2.18607E+04 -6.03012E+03  2.45423E+04 -2.24244E+04  1.10419E+04 -2.73504E+04 -5.20344E+03
 -1.94763E+04 -1.68499E+04 -7.75288E+03 -1.96380E+04  3.78294E+03 -1.87010E+04  1.49817E+04 -1.74484E+04
  2.51017E+04 -1.26014E+04  3.14376E+04  2.64138E+03  2.33792E+04  1.92656E+04  4.37894E+03  3.58921E+04
 -1.73759E+04  3.01575E+04 -2.73836E+04  1.01057E+04 -2.06060E+04 -1.03439E+04 -4.40539E+03 -1.36310E+04
  2.05548E+03 -3.02668E+03 -4.31360E+03  6.70295E+03 -1.53669E+04  5.35499E+03 -1.56283E+04 -6.28458E+03
 -9.90648E+03 -1.80552E+04  4.96145E+03 -2.23725E+04  1.47510E+04 -1.57953E+04  1.71692E+04 -1.45127E+03
  1.08858E+04  1.28399E+04 -1.02324E+03  1.83137E+04 -1.24918E+04  1.06039E+04 -1.80767E+04 -3.90045E+03
 -1.36045E+04 -1.63643E+04 -1.34537E+03 -2.23182E+04  9.90435E+03 -1.80739E+04  1.86836E+04 -8.92678E+03
  1.67087E+04  4.76874E+02  1.24836E+04  4.36243E+03  5.95637E+03  9.08193E+02  8.97145E+03 -1.78646E+03
  1.68275E+04  2.73503E+03  1.80158E+04  1.45920E+04  1.18931E+04  2.92094E+04 -2.76083E+03  3.24250E+04
 -1.89934E+04  2.61997E+04 -3.05628E+04  1.29537E+04 -3.15304E+04 -2.26494E+03 -2.62642E+04 -1.80737E+04
 -1.16286E+04 -2.60680E+04  8.99575E+03 -2.34751E+04  2.06205E+04 -1.25179E+04  1.85395E+04  4.92631E+03
  6.93598E+03  1.37181E+04 -8.63080E+03  1.21609E+04 -1.57757E+04  2.76953E+03 -1.18933E+04 -9.51568E+03
 -2.19522E+02 -1.49972E+04  7.59344E+03 -1.10366E+04  9.50149E+03 -1.40566E+03  2.25305E+03  6.32976E+03
 -6.93216E+03  2.35661E+03 -5.58031E+03 -5.16171E+03 -4.59554E+02 -1.28938E+04  9.00537E+03 -1.36663E+04
  1.57790E+04 -6.96754E+03  1.67660E+04  2.87122E+03  1.45552E+04  1.28992E+04  6.84110E+03  1.95246E+04
 -2.90721E+03  2.11115E+04 -1.27202E+04  1.32545E+04 -1.46309E+04  3.51228E+03 -1.09602E+04 -3.15607E+03
 -5.40689E+03 -4.65264E+03 -6.60009E+02  1.18568E+03 -2.12803E+03  2.59460E+03 -4.81611E+03  4.45199E+03
 -9.96254E+03 -5.46319E+02 -1.06421E+04 -8.89366E+03 -4.46061E+03 -1.39368E+04  4.83820E+03 -1.07604E+04
  9.15577E+03 -4.96414E+03  6.45290E+03  2.79764E+03  1.50569E+02  4.17098E+03 -5.06324E+03 -2.90347E+02
 -4.47605E+03 -6.64558E+03 -8.76811E+02 -9.96132E+03  5.55345E+03 -1.04996E+04  1.31419E+04 -5.48206E+03
  1.56611E+04  1.06572E+03  1.17446E+04  9.01888E+03  2.19316E+03  1.20105E+04 -6.61681E+03  1.08030E+04
 -8.83363E+03  3.29467E+03 -4.42038E+03 -1.71914E+03  1.61152E+03 -2.75219E+03  6.03617E+03 -1.05826E+03
  5.23237E+03  4.41369E+03  1.17760E+03  8.25239E+03 -5.86553E+03  8.29973E+03 -1.02383E+04  1.98444E+03
 -6.86896E+03 -5.17785E+03  2.88867E+02 -9.15519E+03  5.15660E+03 -4.40236E+03  5.41889E+03  1.87569E+03
  7.92360E+02  5.73883E+03 -5.32583E+03  7.08196E+03 -7.62178E+03  3.62747E+03 -7.65988E+03 -2.40299E+03
 -4.61506E+03 -9.01524E+03  1.93447E+03 -1.04407E+04  8.80064E+03 -6.73857E+03  9.65658E+03  1.67866E+03
  6.78159E+03  7.91970E+03 -3.89637E+02  1.00376E+04 -7.00177E+03  5.48116E+03 -7.70285E+03 -5.15549E+02
 -7.12071E+03 -6.83747E+03 -1.31238E+03 -7.36766E+03  3.81080E+03 -6.23363E+03  4.57260E+03 -2.98399E+03
  3.15861E+03  7.49251E+02 -2.20766E+02  1.22806E+03  5.75944E+01 -1.16860E+03  7.33473E+02 -3.86684E+03
  6.42765E+03 -2.01252E+03  8.73281E+03  1.05412E+03  8.69717E+03  5.72240E+03  6.59430E+03  1.12966E+04
 -2.37748E+03  1.35775E+04 -1.12590E+04  1.02854E+04 -1.46081E+04  1.79880E+03 -1.19273E+04 -4.44788E+03
 -6.32230E+03 -9.88380E+03 -5.20713E+02 -8.16761E+03  3.01328E+03 -3.71102E+03  2.95432E+03 -2.94516E+03
  1.93550E+03 -1.97735E+03  2.41704E+03 -2.78984E+03  4.33319E+03 -1.93683E+03  5.14737E+03 -2.07565E+02
  6.42802E+03  1.64548E+03  2.54968E+03  5.22849E+03 -1.99041E+03  5.36399E+03 -6.83354E+03  4.38346E+03
 -7.90030E+03 -9.92436E+02 -4.12882E+03 -5.41216E+03 -4.53975E+02 -8.55901E+03  4.73521E+03 -8.67390E+03
  8.73578E+03 -4.83507E+03  1.06298E+04  7.98356E+02  7.21317E+03  7.30804E+03  1.57128E+03  9.56244E+03
 -3.81938E+03  8.73827E+03 -5.71423E+03  2.78511E+03 -3.38213E+03 -1.16905E+03 -1.39000E+03 -1.11926E+03
 -5.70240E+02  4.89266E+02 -9.99431E+02  2.58728E+03 -3.54056E+03  1.38189E+03 -5.83537E+03 -8.89930E+02
 -3.52035E+03 -5.84133E+03  4.33842E+02 -7.62581E+03  4.85632E+03 -6.79729E+03  6.74534E+03 -1.84716E+03
  7.52568E+03  3.91932E+03  3.27008E+03  6.38239E+03 -1.46240E+03  7.83036E+03 -5.12109E+03  4.82912E+03
 -6.97876E+03  4.89690E+02 -5.72500E+03 -4.60210E+03 -6.03606E+02 -5.96708E+03  3.08605E+03 -4.65031E+03
  4.58494E+03 -1.80486E+03  3.14383E+03  8.08855E+02  1.28099E+03  2.54313E+03  8.52372E+02  1.02250E+03
  2.02543E+03  6.55232E+02  1.88326E+03  1.23696E+03  2.04236E+03  3.13789E+03  2.44446E+03  3.43149E+03
 -1.82550E+03  5.57454E+03 -4.79224E+03  6.40445E+03 -6.78432E+03  1.98142E+03 -7.43908E+03 -2.18447E+03
 -3.65581E+03 -6.85373E+03  1.19932E+03 -8.30019E+03  4.13946E+03 -4.77344E+03  5.99425E+03 -1.33752E+03
  4.66167E+03  3.08139E+03  9.42083E+02  4.11236E+03 -1.64974E+03  2.32565E+03 -2.61210E+03 -4.01724E+02
 -1.45988E+03 -3.19013E+03  1.82103E+03 -2.92068E+03  2.70209E+03 -1.96736E+03  2.52312E+03  5.87003E+02
  1.60549E+03  1.03503E+03  1.22596E+03  3.47263E+02 -4.16791E+02  1.10382E+03  1.85894E+03 -1.18717E+02
  6.49179E+02 -5.48000E+02  2.88599E+03  7.65875E+02  1.28748E+03  3.80618E+03 -8.07534E+02  5.37224E+03
 -3.11430E+03  2.76326E+03 -4.28747E+03  8.62662E+02 -3.84975E+03 -1.26749E+03 -9.59206E+02 -2.53892E+03
  3.11168E+02 -2.33208E+03  1.46863E+03 -1.11796E+03  1.64263E+03  1.59481E+03 -7.05189E+02  2.09635E+03
 -2.89725E+03  1.24808E+03 -2.81318E+03 -1.91530E+03 -1.45369E+03 -3.55402E+03  4.41179E+02 -3.75619E+03
  2.14154E+03 -1.73293E+03  2.26492E+03  8.35429E+01  2.51613E+03  5.40523E+02  5.05714E+02  2.16499E+03
 -1.45443E+03  8.01348E+02 -1.51309E+03 -9.17508E+02  8.94245E+02 -2.73030E+03  3.43681E+03 -1.84026E+03
  3.56596E+03  4.40335E+02  4.31308E+03  2.50097E+03  1.67702E+03  4.44224E+03 -1.33226E+03  3.94828E+03
 -3.35890E+03  1.44463E+03 -3.68555E+03 -6.58298E+01 -1.72123E+03 -2.83278E+03  4.78278E+02 -2.20095E+03
  2.86973E+03 -1.49285E+03  1.97164E+03  9.25806E+02  8.60615E+02  2.33543E+03 -5.69867E+01  2.11473E+03
 -1.03426E+03  1.75267E+03 -9.24904E+02  3.63678E+02 -3.41346E+02  2.36519E+02 -7.08642E+02  1.15917E+03
 -1.09028E+03  2.00385E+03 -2.89418E+03  1.45922E+03 -4.06781E+03  1.85046E+02 -4.57099E+03 -2.66316E+03
 -2.20303E+03 -5.14018E+03  1.18542E+03 -6.40273E+03  3.21444E+03 -5.09653E+03  5.93565E+03 -2.15398E+03
  5.22818E+03  6.55384E+02  3.53509E+03  3.46547E+03  8.34989E+01  3.85067E+03 -1.43281E+03  2.83876E+03
 -2.26952E+03  1.12473E+03 -1.23928E+03 -1.14437E+02 -4.64634E+02 -3.44849E+01 -5.35711E+02  1.10639E+02
 -1.60048E+03 -1.95082E+02 -1.02717E+03  3.90307E+01 -1.96682E+02 -9.91359E+02 -1.68369E+01 -1.50656E+03
  2.22834E+03 -1.10427E+03  2.12737E+03  4.42769E+02  2.84408E+03  2.46554E+03  5.84555E+02  3.66635E+03
 -1.97760E+03  4.93557E+03 -4.21178E+03  2.71904E+03 -4.94863E+03 -1.51544E+02 -3.16816E+03 -2.70042E+03
 -1.68326E+03 -3.53874E+03  8.04857E+02 -3.61041E+03  2.23160E+03 -2.02537E+03  2.51386E+03  2.44466E+02
  1.65737E+03  1.38685E+03 -3.17988E+02  1.30540E+03 -5.92910E+02  8.28577E+00 -1.57484E+02 -1.02539E+03
  9.62875E+02 -3.27018E+02  9.61337E+02  6.86141E+02  5.51516E+02  1.00682E+03  5.39968E+02  1.53993E+03
 -1.68682E+03  1.66355E+03 -1.98814E+03  2.27531E+02 -2.17694E+03 -1.79774E+03 -2.04913E+02 -3.13960E+03
  1.65317E+03 -2.71446E+03  2.18564E+03 -4.72355E+02  2.76646E+03  6.38624E+01  1.31625E+03  2.07591E+03
  4.95871E+02  2.09973E+03 -6.84811E+02  1.86938E+03 -1.45874E+03  1.15664E+03 -1.19222E+03  3.06374E+02
 -5.53405E+02 -2.91490E+02 -1.00177E+03  4.36610E+02 -1.35552E+03  3.16491E+02 -1.83971E+03 -7.81610E+02
 -1.96194E+03 -9.66667E+02 -5.49310E+02 -2.03825E+03  1.46186E+03 -2.89537E+03  2.03371E+03 -8.47863E+02
  2.59685E+03  2.78732E+02  5.22930E+02  1.39208E+03 -3.66129E+02  1.93698E+03 -1.52189E+03  1.50993E+03
