 $NMID ID='MM_0lb_SNR800_9hz_g60_25.RAW', FMTDAT='(8E13.5)'
 TRAMP=1., VOLUME=1. $END
  3.09931E+05  1.94366E+02  3.37675E+05  2.50547E+05  8.50103E+04  3.39215E+05 -1.32367E+05  2.52233E+05
 -1.91096E+05  8.41964E+04 -1.12627E+05 -3.25893E+04 -5.14398E+01 -5.10202E+04  5.36319E+04 -4.04865E+02
  3.57541E+04  5.27181E+04 -1.65897E+04  7.60962E+04 -6.13697E+04  6.48543E+04 -8.53189E+04  3.27072E+04
 -8.23771E+04 -1.19537E+04 -5.83093E+04 -5.24887E+04 -1.52294E+04 -7.17055E+04  2.82359E+04 -4.73845E+04
  4.11828E+04  3.55929E+03  1.70661E+04  4.89947E+04 -3.51728E+04  4.85640E+04 -6.88274E+04  4.82272E+02
 -5.49083E+04 -5.82204E+04 -7.95482E+03 -7.96308E+04  3.51358E+04 -5.77543E+04  4.98287E+04 -1.85690E+04
  4.60519E+04  1.18829E+04  3.34076E+04  2.73008E+04  1.53589E+04  3.08975E+04 -6.11550E+03  2.76970E+04
 -2.27117E+04  1.16134E+04 -1.77674E+04 -5.98782E+03  7.16695E+03 -7.34808E+03  2.41324E+04  1.42642E+04
  6.87673E+03  3.79498E+04 -3.45060E+04  3.78442E+04 -6.65380E+04  1.85440E+03 -5.89583E+04 -4.50814E+04
 -1.28038E+04 -6.67520E+04  4.22097E+04 -4.83915E+04  6.19834E+04 -2.88528E+03  3.71321E+04  3.51003E+04
 -5.67890E+03  4.00620E+04 -3.20984E+04  1.96523E+04 -3.37829E+04 -3.39583E+03 -1.99110E+04 -1.25048E+04
 -8.75099E+03 -1.51716E+04 -4.14996E+02 -2.01324E+04  8.60327E+03 -2.33644E+04  1.59842E+04 -1.29821E+04
  9.85516E+03  6.34813E+03 -1.06074E+04  1.29743E+04 -2.36682E+04 -7.34269E+03 -8.31313E+03 -3.84476E+04
  2.58059E+04 -4.77199E+04  5.30144E+04 -2.08620E+04  4.95798E+04  2.13022E+04  1.73770E+04  4.76355E+04
 -1.65041E+04  3.66829E+04 -2.84757E+04  2.48454E+03 -1.22949E+04 -2.99204E+04  2.17883E+04 -3.72939E+04
  4.52410E+04 -1.12574E+04  4.12820E+04  2.54745E+04  2.17729E+04  5.19068E+04 -8.26751E+03  5.72665E+04
 -3.63641E+04  3.90679E+04 -4.86737E+04  1.14826E+04 -4.89446E+04 -1.91764E+04 -2.69199E+04 -4.31671E+04
  7.87586E+03 -4.28889E+04  3.46897E+04 -1.77902E+04  3.23744E+04  1.10050E+04  4.97002E+03  2.13634E+04
 -1.38598E+04  1.01215E+04 -1.12405E+04 -7.53864E+03  5.86041E+03 -1.14635E+04  1.90632E+04  5.72634E+03
  1.52398E+04  2.25381E+04 -4.73919E+03  2.75257E+04 -2.37310E+04  1.47907E+04 -3.19805E+04 -3.01263E+03
 -2.66137E+04 -1.85539E+04 -1.24840E+04 -2.60408E+04  4.50517E+03 -2.74831E+04  2.06341E+04 -2.41649E+04
  3.33464E+04 -1.43750E+04  3.90686E+04  5.81691E+03  2.79276E+04  2.54894E+04  4.35903E+03  4.24804E+04
 -2.03859E+04  3.43722E+04 -3.07777E+04  1.24439E+04 -2.27062E+04 -1.06678E+04 -5.02268E+03 -1.28645E+04
  6.43743E+02 -5.39174E+02 -8.62719E+03  8.84724E+03 -2.11926E+04  4.65221E+03 -2.10624E+04 -1.01755E+04
 -1.25771E+04 -2.40331E+04  6.27173E+03 -2.90265E+04  1.95225E+04 -2.06111E+04  2.35879E+04 -1.83169E+03
  1.55126E+04  1.69419E+04 -1.20496E+03  2.42240E+04 -1.73506E+04  1.40294E+04 -2.44807E+04 -4.79289E+03
 -1.82589E+04 -2.17844E+04 -1.89130E+03 -2.90137E+04  1.31814E+04 -2.41450E+04  2.39464E+04 -1.29221E+04
  2.27567E+04 -5.14736E+02  1.63994E+04  5.38379E+03  9.07066E+03  1.64655E+03  1.29539E+04 -2.19026E+03
  2.31273E+04  2.64006E+03  2.69958E+04  1.86130E+04  1.83096E+04  3.91091E+04 -2.90215E+03  4.63104E+04
 -2.65230E+04  3.87460E+04 -4.38350E+04  2.03800E+04 -4.70722E+04 -3.58644E+03 -3.82187E+04 -2.75464E+04
 -1.51809E+04 -3.94250E+04  1.39861E+04 -3.45983E+04  2.90103E+04 -1.58618E+04  2.51639E+04  8.22438E+03
  8.31359E+03  1.93558E+04 -1.23360E+04  1.61804E+04 -2.09521E+04  2.61462E+03 -1.59540E+04 -1.34676E+04
 -4.85479E+02 -2.00125E+04  1.12508E+04 -1.46949E+04  1.38998E+04 -1.06329E+03  3.52008E+03  9.40593E+03
 -9.33534E+03  4.53504E+03 -9.49817E+03 -7.10055E+03 -1.97715E+03 -1.89674E+04  1.27846E+04 -2.11358E+04
  2.42789E+04 -1.22494E+04  2.74462E+04  2.79252E+03  2.45177E+04  1.97106E+04  1.10841E+04  3.10530E+04
 -6.10089E+03  3.30123E+04 -2.13460E+04  2.06285E+04 -2.40669E+04  3.32295E+03 -1.63503E+04 -6.36853E+03
 -6.75462E+03 -7.81168E+03 -1.03824E+03  2.04113E+02 -3.20719E+03  3.58346E+03 -7.93711E+03  5.63910E+03
 -1.51485E+04 -1.15574E+03 -1.57445E+04 -1.26738E+04 -6.53660E+03 -2.02066E+04  6.97687E+03 -1.66747E+04
  1.36792E+04 -7.02255E+03  9.61519E+03  4.31129E+03 -4.87564E+02  6.74150E+03 -8.74334E+03 -5.97500E+02
 -7.97302E+03 -1.07509E+04 -1.18822E+03 -1.63995E+04  9.49630E+03 -1.71390E+04  2.13744E+04 -9.65744E+03
  2.51960E+04  2.27848E+03  1.84055E+04  1.52515E+04  3.36461E+03  2.03960E+04 -9.98521E+03  1.60505E+04
 -1.37278E+04  4.71790E+03 -7.07497E+03 -3.83863E+03  1.99556E+03 -4.49124E+03  8.81526E+03 -1.20460E+03
  8.08545E+03  7.14580E+03  9.65760E+02  1.33644E+04 -9.80810E+03  1.26077E+04 -1.69568E+04  3.03606E+03
 -1.14645E+04 -8.65240E+03 -1.26618E+02 -1.44203E+04  9.37842E+03 -7.19186E+03  1.01642E+04  3.50952E+03
  2.22565E+03  1.04774E+04 -8.88036E+03  1.24909E+04 -1.44594E+04  5.64270E+03 -1.49834E+04 -5.34464E+03
 -8.32927E+03 -1.74679E+04  4.36411E+03 -1.96321E+04  1.61297E+04 -1.15095E+04  1.82018E+04  3.48001E+03
  1.08858E+04  1.45518E+04 -2.00286E+03  1.68589E+04 -1.21854E+04  9.45298E+03 -1.33760E+04 -1.41267E+03
 -1.13996E+04 -1.13935E+04 -1.98487E+03 -1.26956E+04  6.61095E+03 -9.85913E+03  8.37551E+03 -3.71078E+03
  5.19309E+03  2.28437E+03 -1.40866E+03  2.16659E+03 -1.22306E+03 -3.66173E+03  2.98304E+03 -8.31205E+03
  1.18334E+04 -5.93680E+03  1.71509E+04  1.73066E+03  1.70744E+04  1.22573E+04  1.07309E+04  2.23945E+04
 -5.03602E+03  2.59911E+04 -2.13957E+04  1.90730E+04 -2.76487E+04  3.46154E+03 -2.25213E+04 -9.93396E+03
 -1.10393E+04 -1.83187E+04 -6.03555E+02 -1.56118E+04  5.64703E+03 -8.81031E+03  5.53265E+03 -5.65479E+03
  3.85021E+03 -3.19411E+03  3.92047E+03 -4.05205E+03  6.08925E+03 -3.56937E+03  8.72468E+03 -1.72448E+03
  1.16864E+04  3.00260E+03  6.51763E+03  9.90389E+03 -2.63731E+03  1.23186E+04 -1.20963E+04  9.47298E+03
 -1.57516E+04 -1.24096E+03 -1.02627E+04 -1.08060E+04 -1.20611E+03 -1.74046E+04  9.01519E+03 -1.70410E+04
  1.82364E+04 -9.05761E+03  2.10456E+04  3.01133E+03  1.47164E+04  1.49157E+04  2.04565E+03  1.91932E+04
 -7.95164E+03  1.52273E+04 -1.14566E+04  5.44926E+03 -7.61714E+03 -1.76956E+03 -3.64108E+03 -2.03414E+03
 -1.51592E+03 -3.59269E+02 -2.69438E+03  3.19313E+03 -6.53705E+03  2.45134E+03 -1.07483E+04 -1.94570E+03
 -7.70883E+03 -1.03834E+04 -2.19584E+02 -1.56176E+04  9.26157E+03 -1.47540E+04  1.59794E+04 -4.49101E+03
  1.58600E+04  7.37342E+03  7.29555E+03  1.46986E+04 -3.27777E+03  1.61311E+04 -1.12125E+04  1.02067E+04
 -1.50219E+04  1.35360E+02 -1.18879E+04 -9.75086E+03 -8.94507E+02 -1.33406E+04  6.92805E+03 -9.84019E+03
  9.95446E+03 -2.82566E+03  6.97758E+03  2.97266E+03  2.46722E+03  4.83064E+03  1.62943E+03  2.34256E+03
  3.31557E+03  1.26958E+03  3.77066E+03  2.14867E+03  4.99715E+03  5.67822E+03  4.34699E+03  8.42445E+03
 -3.48302E+03  1.27572E+04 -1.16122E+04  1.25280E+04 -1.74764E+04  3.57240E+03 -1.67507E+04 -7.21495E+03
 -8.44095E+03 -1.66090E+04  2.36316E+03 -1.77519E+04  9.86932E+03 -1.13763E+04  1.34890E+04 -2.45135E+03
  1.03237E+04  6.01100E+03  2.62342E+03  9.39907E+03 -4.48961E+03  5.73882E+03 -6.48592E+03 -1.32161E+03
 -3.12822E+03 -6.74346E+03  3.92770E+03 -7.30151E+03  6.74235E+03 -3.83133E+03  6.42558E+03  1.64291E+03
  3.76138E+03  3.61269E+03  1.54382E+03  2.37428E+03 -8.03046E+02  2.63157E+03  1.49431E+03 -9.04549E+02
  2.58079E+03 -1.07042E+03  6.86013E+03  2.96112E+03  4.17300E+03  9.04091E+03 -1.16801E+03  1.11980E+04
 -7.69531E+03  7.56259E+03 -1.04300E+04  2.33716E+03 -9.19559E+03 -3.53285E+03 -3.34817E+03 -7.15678E+03
  8.08512E+02 -6.22113E+03  4.18718E+03 -2.94420E+03  3.76159E+03  3.30076E+03 -1.66137E+03  5.61009E+03
 -7.25891E+03  2.96278E+03 -7.83037E+03 -3.83926E+03 -4.41705E+03 -8.76950E+03  1.54232E+03 -9.29987E+03
  5.29735E+03 -5.93805E+03  7.03424E+03 -9.55534E+02  5.27151E+03  2.79464E+03  6.69574E+02  4.77878E+03
 -3.07941E+03  1.36064E+03 -4.19160E+03 -3.32262E+03  1.67505E+03 -7.43403E+03  7.99031E+03 -5.74482E+03
  1.05833E+04  6.35410E+02  1.01932E+04  7.17557E+03  3.60288E+03  1.09026E+04 -3.92124E+03  1.01992E+04
 -8.87885E+03  4.49404E+03 -9.80318E+03 -1.50336E+03 -5.29627E+03 -6.93360E+03  1.65357E+03 -6.60509E+03
  6.61922E+03 -3.39674E+03  5.70027E+03  2.62087E+03  1.88494E+03  6.29639E+03 -1.01927E+03  5.28086E+03
 -2.59981E+03  3.62347E+03 -2.88128E+03  1.35014E+03 -1.25167E+03  1.39342E+03 -1.42303E+03  1.75148E+03
 -2.43339E+03  3.77050E+03 -7.16550E+03  4.19423E+03 -1.10868E+04  3.93653E+02 -1.18228E+04 -7.66027E+03
 -6.59347E+03 -1.47914E+04  3.15304E+03 -1.67789E+04  1.03593E+04 -1.32375E+04  1.58612E+04 -4.82258E+03
  1.49439E+04  2.97916E+03  8.83987E+03  1.03134E+04  7.71784E+02  1.14551E+04 -4.34772E+03  8.51436E+03
 -6.55803E+03  3.38123E+03 -4.13970E+03 -1.66359E+03 -1.44130E+03 -1.35407E+03 -1.01632E+03 -3.76269E+02
 -1.96941E+03  3.03099E+02 -2.53237E+03 -6.37794E+02 -3.20366E+02 -2.59135E+03  5.89742E+01 -4.19126E+03
  5.46352E+03 -3.48095E+03  6.81429E+03  1.57421E+02  8.37994E+03  6.45203E+03  1.81212E+03  1.16140E+04
 -5.58095E+03  1.29976E+04 -1.23410E+04  7.76381E+03 -1.39391E+04 -9.28165E+02 -9.82758E+03 -8.68914E+03
 -4.22374E+03 -1.20365E+04  2.64064E+03 -1.07446E+04  7.18449E+03 -6.01509E+03  7.48334E+03  2.64676E+02
  4.06715E+03  3.71684E+03 -3.89743E+02  3.15868E+03 -2.26279E+03 -3.89058E+02  4.35297E+02 -2.46279E+03
  3.61211E+03 -1.84821E+03  4.61279E+03  1.17860E+03  3.04332E+03  4.47856E+03 -1.62711E+01  6.37394E+03
 -4.55392E+03  5.37498E+03 -7.51438E+03  6.23604E+02 -6.82592E+03 -5.09685E+03 -1.47008E+03 -1.00759E+04
  5.48639E+03 -7.93992E+03  8.54463E+03 -2.54371E+03  8.67907E+03  2.34628E+03  5.01053E+03  7.52968E+03
  1.09949E+03  7.69882E+03 -3.17269E+03  6.25441E+03 -4.81068E+03  3.24187E+03 -3.86487E+03  7.93009E+02
 -2.08022E+03 -2.80686E+02 -1.70743E+03  9.71320E+02 -4.13622E+03  1.55895E+03 -5.94010E+03 -8.92917E+02
 -5.30341E+03 -3.86760E+03 -2.08985E+03 -7.79491E+03  3.38726E+03 -8.17595E+03  6.53630E+03 -3.47254E+03
  7.29637E+03  1.28002E+03  4.21680E+03  5.62664E+03 -9.06751E+02  7.52299E+03 -5.79354E+03  5.33007E+03
