 $NMID ID='MM_0lb_SNR800_16hz_g55_67.RAW', FMTDAT='(8E13.5)'
 TRAMP=1., VOLUME=1. $END
  3.09506E+05  2.94880E+02  3.37511E+05  2.50754E+05  8.49081E+04  3.37797E+05 -1.32553E+05  2.50909E+05
 -1.90152E+05  8.30183E+04 -1.11652E+05 -3.24078E+04  8.88120E+02 -5.03770E+04  5.38795E+04 -2.28296E+02
  3.52352E+04  5.29385E+04 -1.68551E+04  7.55792E+04 -6.07718E+04  6.35160E+04 -8.38645E+04  3.17870E+04
 -8.07238E+04 -1.09827E+04 -5.73047E+04 -5.10546E+04 -1.48702E+04 -6.95132E+04  2.72639E+04 -4.54832E+04
  3.99243E+04  3.93140E+03  1.61876E+04  4.80121E+04 -3.41996E+04  4.70940E+04 -6.67428E+04 -4.43672E+02
 -5.31573E+04 -5.67432E+04 -6.61974E+03 -7.67888E+04  3.38726E+04 -5.48050E+04  4.74973E+04 -1.71602E+04
  4.32762E+04  1.12603E+04  3.17247E+04  2.53603E+04  1.56859E+04  2.93098E+04 -5.25495E+03  2.72126E+04
 -2.20115E+04  1.24042E+04 -1.87325E+04 -4.99346E+03  5.42587E+03 -7.57708E+03  2.20800E+04  1.22297E+04
  7.46839E+03  3.51336E+04 -3.18495E+04  3.52709E+04 -6.27611E+04  2.12570E+03 -5.69749E+04 -4.24063E+04
 -1.23728E+04 -6.28886E+04  3.95403E+04 -4.48858E+04  5.77094E+04 -2.18314E+03  3.37614E+04  3.20403E+04
 -6.02629E+03  3.56872E+04 -2.98339E+04  1.58443E+04 -2.97807E+04 -4.65093E+03 -1.62350E+04 -1.07466E+04
 -8.04141E+03 -1.27945E+04 -4.41740E+02 -1.78004E+04  7.29009E+03 -2.28992E+04  1.54989E+04 -1.34610E+04
  1.14336E+04  5.21372E+03 -7.83528E+03  1.28452E+04 -2.08112E+04 -4.17775E+03 -8.08964E+03 -3.29631E+04
  2.23160E+04 -4.26043E+04  4.76192E+04 -1.95544E+04  4.44264E+04  1.93227E+04  1.52545E+04  4.33867E+04
 -1.60045E+04  3.28992E+04 -2.49334E+04  1.60945E+03 -9.50703E+03 -2.75567E+04  2.10544E+04 -3.33269E+04
  4.04451E+04 -8.71065E+03  3.46590E+04  2.34478E+04  1.75172E+04  4.55976E+04 -7.77851E+03  4.91654E+04
 -3.10160E+04  3.29018E+04 -4.13425E+04  9.40307E+03 -4.15307E+04 -1.61173E+04 -2.29617E+04 -3.74773E+04
  7.06943E+03 -3.70502E+04  3.09351E+04 -1.42209E+04  2.84147E+04  1.06900E+04  3.78717E+03  1.91937E+04
 -1.34421E+04  8.06951E+03 -1.00803E+04 -7.65317E+03  5.71560E+03 -1.06110E+04  1.76956E+04  6.17385E+03
  1.30315E+04  2.21719E+04 -6.14178E+03  2.47281E+04 -2.19101E+04  1.12357E+04 -2.73159E+04 -4.92087E+03
 -1.96971E+04 -1.72860E+04 -7.87364E+03 -1.96382E+04  3.99530E+03 -1.86504E+04  1.49292E+04 -1.71667E+04
  2.48919E+04 -1.27165E+04  3.13405E+04  2.34296E+03  2.32097E+04  1.93175E+04  4.21747E+03  3.54364E+04
 -1.75256E+04  2.96900E+04 -2.73469E+04  1.03291E+04 -2.05956E+04 -1.01123E+04 -4.15405E+03 -1.35213E+04
  1.98628E+03 -3.25746E+03 -4.14416E+03  6.27558E+03 -1.51409E+04  5.07730E+03 -1.57033E+04 -6.29432E+03
 -9.58037E+03 -1.81708E+04  4.96967E+03 -2.20844E+04  1.41599E+04 -1.60692E+04  1.70944E+04 -1.68990E+03
  1.05510E+04  1.22862E+04 -1.02650E+03  1.80492E+04 -1.24533E+04  1.02183E+04 -1.81476E+04 -4.05509E+03
 -1.33877E+04 -1.61778E+04 -1.58969E+03 -2.18655E+04  9.62988E+03 -1.79559E+04  1.84690E+04 -8.56585E+03
  1.71524E+04  2.02027E+02  1.21979E+04  4.28260E+03  6.39147E+03  9.20212E+02  9.13467E+03 -1.16118E+03
  1.64352E+04  2.84740E+03  1.78838E+04  1.42512E+04  1.15249E+04  2.89081E+04 -3.02423E+03  3.21894E+04
 -1.84105E+04  2.55147E+04 -2.96611E+04  1.24615E+04 -3.09171E+04 -2.17362E+03 -2.59090E+04 -1.77909E+04
 -1.12678E+04 -2.53912E+04  8.67790E+03 -2.32207E+04  1.97980E+04 -1.24404E+04  1.80158E+04  4.55939E+03
  6.90631E+03  1.34001E+04 -8.46287E+03  1.22151E+04 -1.54612E+04  2.59384E+03 -1.14980E+04 -9.43354E+03
  2.20841E+01 -1.45170E+04  7.51248E+03 -1.10012E+04  9.52990E+03 -1.70432E+03  2.01012E+03  6.02775E+03
 -6.61264E+03  2.25089E+03 -5.06701E+03 -5.44591E+03 -2.78416E+01 -1.23294E+04  9.22979E+03 -1.31356E+04
  1.50906E+04 -6.37069E+03  1.61171E+04  2.93772E+03  1.41324E+04  1.21014E+04  6.55619E+03  1.84032E+04
 -3.05807E+03  2.03286E+04 -1.28952E+04  1.27934E+04 -1.43089E+04  3.20842E+03 -1.03397E+04 -2.96064E+03
 -5.02428E+03 -4.40545E+03 -9.56568E+02  9.86078E+02 -2.28692E+03  2.53610E+03 -4.59359E+03  4.22129E+03
 -9.75344E+03 -3.06171E+02 -1.05810E+04 -8.64042E+03 -4.22177E+03 -1.36280E+04  4.18429E+03 -1.04646E+04
  8.88377E+03 -4.46879E+03  6.33277E+03  2.78882E+03  7.38283E+02  3.94696E+03 -4.42915E+03 -5.61593E+01
 -4.71512E+03 -6.88788E+03 -8.63545E+02 -9.28253E+03  5.14356E+03 -1.00717E+04  1.28262E+04 -5.35051E+03
  1.48322E+04  1.19321E+03  1.09323E+04  8.23155E+03  2.41405E+03  1.11940E+04 -6.52472E+03  9.92863E+03
 -8.17829E+03  3.53085E+03 -4.11286E+03 -1.55647E+03  1.54981E+03 -2.57050E+03  6.00716E+03 -8.37953E+02
  5.17344E+03  4.42303E+03  1.41482E+03  7.82364E+03 -5.65345E+03  7.89444E+03 -9.47865E+03  1.96089E+03
 -6.42086E+03 -4.63974E+03  2.05569E+02 -8.50976E+03  4.89984E+03 -4.29372E+03  5.13072E+03  1.70148E+03
  8.00415E+02  4.92531E+03 -4.90764E+03  6.38663E+03 -7.18502E+03  3.03952E+03 -6.97304E+03 -1.71796E+03
 -4.07790E+03 -8.36358E+03  1.84807E+03 -1.01138E+04  8.18243E+03 -6.29847E+03  8.96552E+03  1.61351E+03
  5.84635E+03  7.22782E+03 -2.32399E+01  8.82167E+03 -6.90462E+03  5.24563E+03 -7.12604E+03 -5.31359E+02
 -6.91642E+03 -6.47409E+03 -1.33912E+03 -6.53108E+03  3.74889E+03 -5.87730E+03  4.41755E+03 -3.15230E+03
  3.28145E+03  6.91090E+02 -2.19561E+02  1.42207E+03 -3.86864E+00 -1.13166E+03  6.82962E+02 -3.27554E+03
  5.67181E+03 -1.74443E+03  7.78590E+03  9.07705E+02  7.76695E+03  4.97313E+03  6.64733E+03  1.00070E+04
 -2.39045E+03  1.23790E+04 -1.03715E+04  9.12234E+03 -1.33652E+04  1.70331E+03 -1.05840E+04 -3.88229E+03
 -5.51563E+03 -9.14681E+03 -3.02065E+02 -7.35258E+03  2.70387E+03 -3.92972E+03  2.40534E+03 -2.73568E+03
  1.76036E+03 -2.08503E+03  2.31312E+03 -2.37166E+03  3.86051E+03 -1.81059E+03  4.47966E+03  3.45159E+02
  5.83868E+03  1.51772E+03  2.07648E+03  4.65621E+03 -1.56686E+03  4.78801E+03 -5.76659E+03  3.85679E+03
 -6.79872E+03 -1.01697E+03 -3.53154E+03 -4.64114E+03  1.84042E+00 -7.01409E+03  4.41876E+03 -7.30523E+03
  7.51559E+03 -4.20502E+03  9.62981E+03  9.05702E+02  6.90416E+03  6.21138E+03  1.32277E+03  8.59082E+03
 -3.55151E+03  7.47282E+03 -4.77284E+03  2.47232E+03 -2.78114E+03 -1.36128E+03 -9.76595E+02 -9.21928E+02
 -3.68682E+02  9.16017E+01 -1.45086E+03  2.08732E+03 -3.13690E+03  1.43819E+03 -5.23926E+03 -8.70471E+02
 -2.65021E+03 -5.23427E+03  2.57276E+02 -6.42640E+03  3.92051E+03 -5.98313E+03  5.87415E+03 -1.71831E+03
  6.11616E+03  3.46765E+03  2.59657E+03  5.28545E+03 -1.16778E+03  6.05182E+03 -4.14584E+03  3.79717E+03
 -5.60796E+03  3.44884E+02 -4.69517E+03 -3.46026E+03 -3.82874E+02 -4.91367E+03  2.89140E+03 -3.98526E+03
  3.72426E+03 -1.80850E+03  2.48001E+03  8.21818E+02  8.34211E+02  2.53307E+03  7.51946E+02  8.08393E+02
  1.72697E+03  9.17444E+02  1.43502E+03  1.28199E+03  1.74961E+03  2.63639E+03  1.93218E+03  2.83223E+03
 -1.50672E+03  4.41459E+03 -4.06964E+03  5.34936E+03 -5.33718E+03  1.59430E+03 -6.12949E+03 -1.22249E+03
 -2.89964E+03 -5.74422E+03  9.65769E+02 -6.84135E+03  3.17815E+03 -3.89037E+03  4.85467E+03 -1.43318E+03
  3.44117E+03  2.55342E+03  3.01426E+02  3.61156E+03 -1.54673E+03  1.94546E+03 -1.93640E+03 -4.56252E+02
 -9.81979E+02 -2.39808E+03  1.52615E+03 -2.39175E+03  2.14088E+03 -1.45028E+03  2.19361E+03  9.53509E+02
  1.25224E+03  7.21134E+02  9.11104E+02  1.66412E+02 -1.49808E+02  1.02752E+03  1.56154E+03 -5.65038E+01
  4.90857E+02 -3.48512E+02  2.51028E+03  8.95795E+02  8.90077E+02  3.37064E+03 -2.83028E+02  4.35918E+03
 -2.56367E+03  1.84989E+03 -3.20417E+03  5.72448E+02 -3.29362E+03 -9.34244E+02 -3.20046E+02 -1.82820E+03
  6.40292E+02 -1.92187E+03  1.36206E+03 -1.04892E+03  9.69039E+02  1.69734E+03 -6.22904E+02  1.77316E+03
 -2.25885E+03  1.01637E+03 -2.16555E+03 -1.70684E+03 -1.01835E+03 -2.92521E+03  5.88743E+02 -2.65692E+03
  9.20759E+02 -1.19698E+03  1.59181E+03 -3.26598E+02  1.85315E+03  2.78724E+02  2.52850E+02  1.54995E+03
 -9.24161E+02  3.34682E+02 -1.35559E+03 -6.14254E+02  6.36386E+02 -1.78663E+03  2.51368E+03 -1.75564E+03
  2.45077E+03  3.34979E+02  3.43094E+03  1.56617E+03  1.17432E+03  2.87135E+03 -8.26054E+02  2.89137E+03
 -2.32862E+03  7.49115E+02 -2.60856E+03 -2.36959E+02 -1.43787E+03 -1.94519E+03  5.58396E+02 -1.41257E+03
  2.13913E+03 -1.20220E+03  1.28013E+03  5.72843E+02  2.51932E+01  2.12224E+03  1.55440E+02  1.85571E+03
 -5.96530E+02  1.38073E+03 -9.16439E+02  2.61903E+02 -3.67371E+02  2.97055E+02 -8.38396E+02  8.68831E+02
 -1.39800E+03  1.53467E+03 -2.47908E+03  9.05633E+02 -2.76755E+03 -4.92335E+01 -3.73854E+03 -1.59421E+03
 -1.85422E+03 -3.69050E+03  7.67298E+02 -4.33031E+03  2.22607E+03 -3.80234E+03  4.27700E+03 -1.80460E+03
  4.07102E+03  3.15592E+02  1.94335E+03  2.37179E+03 -5.90990E+02  2.56771E+03 -8.40377E+02  1.84536E+03
 -1.67731E+03  8.41199E+02 -1.03008E+03 -3.37091E+02 -4.41454E+02  1.77908E+02 -7.72906E+02 -1.58884E+01
 -1.36757E+03 -1.58124E+02 -1.04665E+03  5.20710E+01  1.70673E+02 -7.29869E+02 -2.32122E+02 -9.40038E+02
  1.56234E+03 -1.06096E+03  1.22972E+03  2.89101E+02  1.79897E+03  1.48777E+03 -9.76233E+01  2.49805E+03
 -1.35969E+03  3.43917E+03 -2.97288E+03  2.00799E+03 -2.88095E+03 -4.34898E+02 -2.30001E+03 -2.04673E+03
 -1.49424E+03 -2.58526E+03  7.18110E+02 -2.04645E+03  1.43643E+03 -1.25571E+03  1.37477E+03  4.29114E+02
  1.07234E+03  5.36676E+02  6.31396E+01  8.83484E+02 -5.31684E+02 -6.94499E+01  2.40894E+02 -4.53874E+02
  6.17262E+02  2.53367E+02  9.27017E+02  7.98494E+02  4.02601E+02  1.01872E+03  7.00631E+02  7.55908E+02
 -8.49029E+02  1.25405E+03 -1.18572E+03 -7.91265E+00 -1.30207E+03 -1.03784E+03 -2.95833E+02 -1.89802E+03
  9.15740E+02 -1.42204E+03  1.11829E+03 -4.33554E+02  1.55676E+03 -4.16632E+02  9.67243E+02  1.41106E+03
  6.95211E+02  1.30016E+03 -3.65695E+02  1.09370E+03 -1.02212E+03  1.40949E+03 -1.19879E+03  3.92337E+00
 -2.56829E+02 -3.54669E+02 -2.54772E+02  6.88964E+01 -9.89532E+02  7.74671E+01 -1.32188E+03 -5.58486E+02
 -1.45060E+03 -1.78323E+02 -4.52655E+02 -1.46038E+03  9.17594E+02 -2.19367E+03  1.19359E+03 -3.76687E+02
  1.24540E+03 -2.07356E+02  4.53433E+02  5.87431E+02 -1.63260E+02  1.41046E+03 -1.14482E+03  1.24236E+03
