 $NMID ID='MM_0lb_SNR800_15hz_g60_87.RAW', FMTDAT='(8E13.5)'
 TRAMP=1., VOLUME=1. $END
  3.10018E+05  4.22709E+02  3.37667E+05  2.50818E+05  8.48348E+04  3.38356E+05 -1.32709E+05  2.51416E+05
 -1.90543E+05  8.33586E+04 -1.11898E+05 -3.24344E+04  8.40706E+02 -5.03059E+04  5.37679E+04 -2.27382E+01
  3.53321E+04  5.27586E+04 -1.65793E+04  7.55361E+04 -6.08432E+04  6.37377E+04 -8.43896E+04  3.20014E+04
 -8.12716E+04 -1.13519E+04 -5.76121E+04 -5.14971E+04 -1.50361E+04 -6.98055E+04  2.73806E+04 -4.58107E+04
  4.02153E+04  3.82751E+03  1.65557E+04  4.80848E+04 -3.44455E+04  4.74491E+04 -6.73347E+04 -3.59335E+02
 -5.36801E+04 -5.70346E+04 -7.22487E+03 -7.75144E+04  3.41474E+04 -5.54551E+04  4.84092E+04 -1.73850E+04
  4.37495E+04  1.12916E+04  3.21218E+04  2.57174E+04  1.58265E+04  2.99041E+04 -5.33327E+03  2.74162E+04
 -2.22528E+04  1.23547E+04 -1.83925E+04 -5.34441E+03  5.69304E+03 -7.48732E+03  2.25588E+04  1.26390E+04
  7.31714E+03  3.56344E+04 -3.21256E+04  3.56482E+04 -6.39590E+04  2.14984E+03 -5.76992E+04 -4.31096E+04
 -1.24749E+04 -6.37019E+04  4.00108E+04 -4.56384E+04  5.90902E+04 -2.16649E+03  3.49715E+04  3.28034E+04
 -5.97107E+03  3.66513E+04 -3.00403E+04  1.62977E+04 -3.07041E+04 -4.46450E+03 -1.73504E+04 -1.13802E+04
 -8.59084E+03 -1.37050E+04 -5.99606E+02 -1.84846E+04  7.81610E+03 -2.28177E+04  1.58317E+04 -1.30300E+04
  1.11283E+04  5.25276E+03 -8.59280E+03  1.32911E+04 -2.15963E+04 -4.52093E+03 -8.44354E+03 -3.45848E+04
  2.33354E+04 -4.39367E+04  4.89886E+04 -1.98988E+04  4.55525E+04  1.99909E+04  1.63286E+04  4.48004E+04
 -1.60847E+04  3.38787E+04 -2.56463E+04  2.12257E+03 -1.01470E+04 -2.82087E+04  2.09746E+04 -3.41615E+04
  4.16231E+04 -9.39279E+03  3.63260E+04  2.39950E+04  1.85309E+04  4.73863E+04 -8.03092E+03  5.14095E+04
 -3.21256E+04  3.45077E+04 -4.28267E+04  9.67182E+03 -4.33465E+04 -1.72444E+04 -2.38761E+04 -3.83697E+04
  7.50680E+03 -3.84794E+04  3.20213E+04 -1.49314E+04  2.96440E+04  1.12783E+04  4.17597E+03  1.91281E+04
 -1.35176E+04  8.52577E+03 -1.05519E+04 -7.96464E+03  5.87836E+03 -1.08351E+04  1.80825E+04  6.20358E+03
  1.35352E+04  2.20775E+04 -5.77825E+03  2.51403E+04 -2.23755E+04  1.20686E+04 -2.85005E+04 -4.67879E+03
 -2.13527E+04 -1.70948E+04 -8.59404E+03 -2.12392E+04  4.08022E+03 -2.04261E+04  1.64003E+04 -1.88682E+04
  2.70208E+04 -1.27108E+04  3.33924E+04  2.96582E+03  2.43485E+04  2.05717E+04  4.35655E+03  3.71940E+04
 -1.80849E+04  3.07327E+04 -2.82233E+04  1.05769E+04 -2.12402E+04 -1.00559E+04 -4.12577E+03 -1.35529E+04
  1.40657E+03 -2.79517E+03 -5.18965E+03  6.88305E+03 -1.64442E+04  4.94844E+03 -1.66984E+04 -6.94372E+03
 -1.07056E+04 -1.91669E+04  5.31197E+03 -2.36850E+04  1.59004E+04 -1.66613E+04  1.86521E+04 -1.64132E+03
  1.14760E+04  1.34635E+04 -9.81723E+02  1.91527E+04 -1.37126E+04  1.10856E+04 -1.92158E+04 -4.03278E+03
 -1.43872E+04 -1.76034E+04 -1.74540E+03 -2.33654E+04  1.04789E+04 -1.89220E+04  1.92281E+04 -9.49017E+03
  1.81982E+04  2.94701E+02  1.29799E+04  4.35979E+03  6.83321E+03  9.14452E+02  9.88179E+03 -1.53136E+03
  1.76419E+04  2.54404E+03  1.98519E+04  1.53779E+04  1.29999E+04  3.08708E+04 -2.78086E+03  3.49534E+04
 -2.02376E+04  2.81687E+04 -3.25572E+04  1.42258E+04 -3.43237E+04 -2.34855E+03 -2.84173E+04 -1.97309E+04
 -1.21606E+04 -2.80006E+04  9.81053E+03 -2.52949E+04  2.19384E+04 -1.29447E+04  1.97241E+04  5.50412E+03
  7.43105E+03  1.42304E+04 -9.35330E+03  1.28024E+04 -1.63676E+04  2.64470E+03 -1.28318E+04 -1.00529E+04
 -1.94839E+02 -1.60348E+04  8.21268E+03 -1.14119E+04  1.01471E+04 -1.15252E+03  2.34115E+03  6.75171E+03
 -6.88901E+03  2.55948E+03 -6.00490E+03 -5.61551E+03 -5.43090E+02 -1.39376E+04  9.98310E+03 -1.44347E+04
  1.69555E+04 -7.10128E+03  1.83162E+04  3.10351E+03  1.55791E+04  1.33935E+04  7.53726E+03  2.06949E+04
 -3.44015E+03  2.24427E+04 -1.43109E+04  1.42799E+04 -1.62823E+04  3.36395E+03 -1.15977E+04 -3.39629E+03
 -5.48804E+03 -4.82690E+03 -7.49152E+02  1.04173E+03 -2.64126E+03  2.72787E+03 -5.37862E+03  4.86533E+03
 -1.06115E+04 -6.20251E+02 -1.11373E+04 -9.20639E+03 -4.46827E+03 -1.50543E+04  4.71150E+03 -1.14372E+04
  9.68629E+03 -4.78934E+03  6.72915E+03  3.13201E+03  3.37720E+02  4.16866E+03 -5.43762E+03 -2.16695E+02
 -5.21669E+03 -7.14280E+03 -8.41373E+02 -1.06382E+04  5.97617E+03 -1.09628E+04  1.41872E+04 -5.97302E+03
  1.65428E+04  1.31445E+03  1.21687E+04  9.27386E+03  2.24356E+03  1.27667E+04 -7.13449E+03  1.14490E+04
 -9.20892E+03  3.61644E+03 -4.69151E+03 -2.04634E+03  1.74673E+03 -3.28992E+03  6.26334E+03 -1.09166E+03
  5.55292E+03  4.98600E+03  1.09329E+03  8.89263E+03 -6.19452E+03  8.52496E+03 -1.06839E+04  1.75584E+03
 -7.22313E+03 -5.57050E+03  8.98981E+01 -9.16197E+03  5.58038E+03 -4.49965E+03  5.80784E+03  2.31042E+03
  1.09570E+03  6.10509E+03 -5.70848E+03  7.40272E+03 -8.13030E+03  3.52974E+03 -8.17214E+03 -2.63527E+03
 -4.77561E+03 -9.69517E+03  2.28193E+03 -1.10164E+04  9.78128E+03 -7.25546E+03  1.03117E+04  1.62823E+03
  6.59021E+03  8.28393E+03 -2.78652E+02  1.03501E+04 -7.18377E+03  6.15382E+03 -7.88326E+03 -1.10584E+03
 -7.49012E+03 -6.83257E+03 -1.34145E+03 -7.61576E+03  4.20051E+03 -6.45830E+03  4.74172E+03 -3.46331E+03
  3.66523E+03  1.18753E+03 -5.54470E+02  1.31176E+03  2.93472E+02 -1.34918E+03  1.08030E+03 -3.99811E+03
  6.92156E+03 -2.13265E+03  9.18418E+03  9.05243E+02  9.25101E+03  5.94533E+03  6.94416E+03  1.18857E+04
 -2.49488E+03  1.39343E+04 -1.20335E+04  1.06922E+04 -1.53214E+04  1.53233E+03 -1.23105E+04 -4.67885E+03
 -6.49984E+03 -1.05587E+04 -3.46766E+02 -8.52422E+03  3.22137E+03 -4.42659E+03  2.77455E+03 -3.35137E+03
  1.89724E+03 -2.18917E+03  2.83590E+03 -2.87458E+03  4.21655E+03 -1.96750E+03  5.34513E+03 -2.45295E+02
  6.65478E+03  1.77866E+03  2.84822E+03  5.37183E+03 -1.93729E+03  5.56147E+03 -6.94241E+03  4.37221E+03
 -8.06336E+03 -1.50032E+03 -4.31541E+03 -5.68468E+03 -4.10768E+02 -8.22101E+03  5.04558E+03 -9.03462E+03
  8.85129E+03 -4.84043E+03  1.10674E+04  1.21070E+03  7.84076E+03  7.23388E+03  1.65070E+03  1.00046E+04
 -4.11535E+03  8.49500E+03 -5.59063E+03  2.72389E+03 -3.70935E+03 -1.17433E+03 -1.43920E+03 -1.10302E+03
 -7.99674E+02  7.65762E+01 -8.96981E+02  2.42379E+03 -3.88044E+03  1.67593E+03 -5.89741E+03 -7.26876E+02
 -3.63176E+03 -6.04315E+03  2.76980E+02 -7.59588E+03  4.71344E+03 -7.13612E+03  7.05956E+03 -2.12199E+03
  7.54202E+03  3.84561E+03  3.32660E+03  6.41284E+03 -1.47765E+03  7.76898E+03 -4.97681E+03  4.65985E+03
 -7.09013E+03  5.26634E+02 -5.48695E+03 -4.11868E+03 -2.44653E+02 -5.82049E+03  3.04360E+03 -4.37363E+03
  4.89705E+03 -2.01679E+03  3.23068E+03  1.11256E+03  1.11964E+03  2.34350E+03  1.15204E+03  1.05552E+03
  1.96362E+03  8.65243E+02  2.05388E+03  1.46238E+03  2.14578E+03  2.91928E+03  2.06905E+03  3.74450E+03
 -1.76268E+03  5.53134E+03 -4.60948E+03  5.94854E+03 -6.66858E+03  2.06974E+03 -7.73607E+03 -2.15657E+03
 -3.45684E+03 -6.84567E+03  1.22053E+03 -8.08186E+03  4.34744E+03 -4.67604E+03  5.86332E+03 -1.58966E+03
  4.40890E+03  2.53098E+03  1.07473E+03  3.77783E+03 -2.01200E+03  2.64484E+03 -2.62650E+03 -4.92491E+02
 -1.20483E+03 -2.75775E+03  1.74939E+03 -3.01570E+03  2.92058E+03 -1.37895E+03  2.73153E+03  3.59740E+02
  1.47902E+03  9.96085E+02  8.58952E+02  3.44086E+02 -3.64516E+02  1.09647E+03  1.35185E+03 -3.21095E+02
  7.65529E+02 -5.18822E+02  2.79947E+03  8.96778E+02  8.70689E+02  4.02089E+03 -5.74654E+02  5.26274E+03
 -3.31697E+03  2.78877E+03 -4.05069E+03  6.92409E+02 -3.96332E+03 -1.42963E+03 -1.24486E+03 -2.33622E+03
  7.65710E+02 -2.73365E+03  1.42691E+03 -9.95054E+02  1.19480E+03  1.88137E+03 -7.10009E+02  2.19098E+03
 -2.45895E+03  1.33030E+03 -2.58831E+03 -1.86751E+03 -1.45440E+03 -3.67296E+03  6.01162E+02 -3.22823E+03
  1.71344E+03 -1.59615E+03  2.29671E+03 -6.24391E+01  2.12405E+03  5.06904E+02  2.61634E+02  1.83002E+03
 -1.07653E+03  3.73992E+02 -1.78739E+03 -6.86183E+02  8.04904E+02 -2.00329E+03  2.91128E+03 -2.02132E+03
  3.22075E+03  7.80428E+02  4.40961E+03  2.11883E+03  1.51603E+03  3.58999E+03 -1.30493E+03  3.59059E+03
 -2.83481E+03  1.21688E+03 -2.89887E+03 -2.60240E+02 -1.74141E+03 -2.55279E+03  3.45814E+02 -1.89635E+03
  2.63668E+03 -1.60485E+03  1.79688E+03  1.28540E+03  2.82058E+02  2.18347E+03 -1.03026E+02  2.09558E+03
 -8.31346E+02  1.66449E+03 -9.49926E+02  3.40827E+02 -2.28701E+02  5.16359E+02 -8.59589E+02  1.00064E+03
 -1.27546E+03  1.78651E+03 -2.82222E+03  8.86112E+02 -3.45801E+03  1.85055E+02 -4.29651E+03 -2.30668E+03
 -1.88162E+03 -4.98772E+03  9.72005E+02 -5.52907E+03  2.85216E+03 -4.45680E+03  5.31663E+03 -1.59224E+03
  4.85922E+03  5.57402E+02  2.83803E+03  3.11547E+03 -3.80168E+02  3.10558E+03 -1.56437E+03  2.54287E+03
 -2.04442E+03  1.21916E+03 -1.44061E+03 -2.06465E+02 -5.09103E+02  6.29455E+01 -4.11766E+02  2.53090E+02
 -1.21556E+03  1.13135E+02 -1.25311E+03 -1.50536E+02  2.10902E+01 -8.23461E+02  1.07415E+02 -1.57817E+03
  2.05262E+03 -1.09886E+03  1.75060E+03  1.07746E+02  2.20217E+03  2.03796E+03 -1.47286E+02  3.23281E+03
 -1.86249E+03  4.71165E+03 -3.30620E+03  2.08513E+03 -4.03360E+03 -2.22512E+02 -2.74069E+03 -2.41972E+03
 -1.45828E+03 -2.62108E+03  9.93150E+02 -2.78733E+03  1.80587E+03 -1.46117E+03  1.65253E+03  4.64485E+02
  1.20294E+03  1.12583E+03 -7.97302E+01  3.72420E+02 -6.18786E+02 -1.63009E+02  3.08129E+01 -6.65947E+02
  7.56056E+02 -7.20406E+01  1.09274E+03  2.32654E+02  5.28101E+02  1.15008E+03  3.97728E+02  1.17681E+03
 -1.59270E+03  1.48472E+03 -1.55460E+03  1.17824E+02 -1.99286E+03 -1.34271E+03 -1.70027E+02 -2.52156E+03
  1.30946E+03 -2.23195E+03  1.60738E+03 -5.49219E+02  2.20551E+03 -2.87301E+02  1.38037E+03  2.06402E+03
  5.74850E+02  1.80379E+03 -6.75637E+02  1.53626E+03 -1.25715E+03  1.17669E+03 -7.91262E+02 -4.74760E+01
 -4.88089E+02  1.48785E+02 -9.52580E+02  2.25371E+02 -1.14944E+03  5.64476E+02 -1.39439E+03 -3.00651E+02
 -1.81485E+03 -5.78967E+02 -4.38570E+02 -2.06370E+03  1.39229E+03 -2.31454E+03  1.81575E+03 -7.28532E+02
  1.86829E+03 -2.24522E+02  6.70383E+02  1.22591E+03 -8.93063E+01  1.97678E+03 -1.23223E+03  1.19948E+03
