 $NMID ID='MM_0lb_SNR800_9hz_g45_45.RAW', FMTDAT='(8E13.5)'
 TRAMP=1., VOLUME=1. $END
  3.09913E+05  4.03381E+02  3.37963E+05  2.51062E+05  8.45225E+04  3.38174E+05 -1.32577E+05  2.51774E+05
 -1.90546E+05  8.38296E+04 -1.12158E+05 -3.24655E+04  3.32361E+02 -5.04981E+04  5.40491E+04 -6.94447E+02
  3.56624E+04  5.29023E+04 -1.66791E+04  7.63033E+04 -6.09533E+04  6.43704E+04 -8.47896E+04  3.23157E+04
 -8.22310E+04 -1.17734E+04 -5.82864E+04 -5.23700E+04 -1.50453E+04 -7.09590E+04  2.75872E+04 -4.66701E+04
  4.07880E+04  3.16658E+03  1.67023E+04  4.84596E+04 -3.47470E+04  4.79138E+04 -6.77699E+04  2.45766E+02
 -5.48472E+04 -5.77510E+04 -6.99228E+03 -7.89530E+04  3.44495E+04 -5.68635E+04  4.94900E+04 -1.82605E+04
  4.50633E+04  1.11868E+04  3.27867E+04  2.61728E+04  1.64842E+04  3.05060E+04 -5.46809E+03  2.77383E+04
 -2.24300E+04  1.19920E+04 -1.82124E+04 -5.78556E+03  7.11010E+03 -7.24495E+03  2.30928E+04  1.35973E+04
  7.23941E+03  3.72774E+04 -3.38052E+04  3.67009E+04 -6.57774E+04  2.40521E+03 -5.85022E+04 -4.45998E+04
 -1.26713E+04 -6.54525E+04  4.18991E+04 -4.69712E+04  6.10046E+04 -2.64362E+03  3.67884E+04  3.44405E+04
 -5.31716E+03  3.92264E+04 -3.17557E+04  1.84943E+04 -3.32794E+04 -3.22908E+03 -1.90128E+04 -1.18355E+04
 -9.22617E+03 -1.51246E+04 -1.93007E+02 -1.93532E+04  8.38965E+03 -2.32220E+04  1.56207E+04 -1.26530E+04
  1.05412E+04  6.01551E+03 -1.06488E+04  1.28731E+04 -2.31207E+04 -6.19055E+03 -8.59726E+03 -3.71055E+04
  2.49113E+04 -4.63919E+04  5.15494E+04 -2.08945E+04  4.84174E+04  2.06628E+04  1.72448E+04  4.68970E+04
 -1.68796E+04  3.58909E+04 -2.75583E+04  2.29072E+03 -1.13529E+04 -2.93720E+04  2.16555E+04 -3.67004E+04
  4.42918E+04 -1.11006E+04  3.97605E+04  2.49842E+04  2.11279E+04  5.08636E+04 -8.37513E+03  5.52592E+04
 -3.51085E+04  3.75769E+04 -4.70469E+04  1.07778E+04 -4.76017E+04 -1.81060E+04 -2.55991E+04 -4.16091E+04
  7.93126E+03 -4.16841E+04  3.39062E+04 -1.71601E+04  3.15454E+04  1.12000E+04  5.07136E+03  2.11745E+04
 -1.39817E+04  9.42467E+03 -1.11129E+04 -7.67072E+03  5.76345E+03 -1.13019E+04  1.90424E+04  5.22543E+03
  1.43668E+04  2.25181E+04 -5.06514E+03  2.67962E+04 -2.36602E+04  1.39467E+04 -3.12416E+04 -3.06377E+03
 -2.47091E+04 -1.83477E+04 -1.15860E+04 -2.46034E+04  4.21092E+03 -2.48825E+04  1.92816E+04 -2.23639E+04
  3.13695E+04 -1.41230E+04  3.82241E+04  4.85350E+03  2.66974E+04  2.42616E+04  4.43421E+03  4.06856E+04
 -1.94549E+04  3.37012E+04 -3.04575E+04  1.16380E+04 -2.27563E+04 -1.02246E+04 -4.62311E+03 -1.30242E+04
  1.13461E+03 -1.06256E+03 -7.74017E+03  8.32055E+03 -1.96914E+04  5.03821E+03 -1.99799E+04 -9.50686E+03
 -1.15698E+04 -2.26278E+04  5.98377E+03 -2.71538E+04  1.81777E+04 -1.94463E+04  2.24059E+04 -1.65604E+03
  1.44320E+04  1.55543E+04 -1.38927E+03  2.29790E+04 -1.67809E+04  1.33004E+04 -2.33622E+04 -4.99919E+03
 -1.66725E+04 -2.04788E+04 -2.57564E+03 -2.74910E+04  1.22423E+04 -2.30098E+04  2.28151E+04 -1.18733E+04
  2.15722E+04 -1.37353E+02  1.55962E+04  5.44448E+03  8.94959E+03  1.59086E+03  1.17858E+04 -2.21593E+03
  2.16250E+04  2.96707E+03  2.49259E+04  1.82820E+04  1.67176E+04  3.71590E+04 -2.68058E+03  4.33473E+04
 -2.48053E+04  3.54994E+04 -4.09448E+04  1.86508E+04 -4.38206E+04 -3.19298E+03 -3.54707E+04 -2.51565E+04
 -1.38797E+04 -3.63567E+04  1.27239E+04 -3.18716E+04  2.75772E+04 -1.49055E+04  2.37790E+04  7.68042E+03
  8.07531E+03  1.81330E+04 -1.17674E+04  1.53453E+04 -1.95462E+04  2.11512E+03 -1.49147E+04 -1.29588E+04
 -5.18633E+02 -1.87424E+04  1.02490E+04 -1.40766E+04  1.31174E+04 -1.48064E+03  3.26126E+03  9.00039E+03
 -8.53292E+03  3.91049E+03 -8.89071E+03 -6.54751E+03 -2.17361E+03 -1.76271E+04  1.14223E+04 -1.91369E+04
  2.27379E+04 -1.07606E+04  2.55748E+04  3.33165E+03  2.22923E+04  1.76110E+04  1.08708E+04  2.84899E+04
 -5.66145E+03  3.03966E+04 -1.96671E+04  1.86694E+04 -2.21172E+04  4.09801E+03 -1.50510E+04 -5.68333E+03
 -6.02945E+03 -7.35832E+03 -3.70573E+02  3.49785E+02 -3.14175E+03  3.56582E+03 -7.71580E+03  5.34007E+03
 -1.42168E+04 -1.13225E+03 -1.44741E+04 -1.17427E+04 -5.91350E+03 -1.93343E+04  6.43147E+03 -1.52106E+04
  1.28636E+04 -6.07152E+03  9.25927E+03  3.91526E+03 -3.52554E+02  6.42225E+03 -7.92384E+03  1.55642E+02
 -7.51732E+03 -9.79699E+03 -5.83742E+02 -1.53219E+04  8.79368E+03 -1.54901E+04  1.94330E+04 -8.82837E+03
  2.28187E+04  2.50577E+03  1.70704E+04  1.39067E+04  3.26266E+03  1.89728E+04 -9.64831E+03  1.48402E+04
 -1.23551E+04  4.35750E+03 -6.62214E+03 -3.52343E+03  2.04289E+03 -4.27918E+03  7.90048E+03 -9.14181E+02
  7.14561E+03  6.64138E+03  1.19606E+03  1.21070E+04 -8.50012E+03  1.18249E+04 -1.53631E+04  2.83731E+03
 -1.04538E+04 -7.80572E+03  3.02222E+02 -1.32891E+04  8.47114E+03 -6.73526E+03  9.08147E+03  2.83641E+03
  2.46149E+03  1.00508E+04 -8.23460E+03  1.10012E+04 -1.30152E+04  4.99773E+03 -1.39429E+04 -4.71548E+03
 -7.80406E+03 -1.54114E+04  3.39430E+03 -1.76787E+04  1.49787E+04 -1.03298E+04  1.62952E+04  2.73778E+03
  9.92344E+03  1.29195E+04 -1.56647E+03  1.56150E+04 -1.11617E+04  8.62341E+03 -1.26555E+04 -1.20754E+03
 -1.07240E+04 -1.03332E+04 -1.72933E+03 -1.11128E+04  6.25082E+03 -9.52666E+03  7.42375E+03 -3.73263E+03
  4.97937E+03  1.85456E+03 -1.43826E+03  2.26669E+03 -9.70640E+02 -3.35786E+03  2.63781E+03 -7.29857E+03
  1.12684E+04 -4.75431E+03  1.56768E+04  2.20919E+03  1.50891E+04  1.08286E+04  1.00295E+04  2.03988E+04
 -4.74389E+03  2.32737E+04 -1.90706E+04  1.72358E+04 -2.52180E+04  3.53443E+03 -2.04946E+04 -8.20877E+03
 -1.01269E+04 -1.63377E+04 -3.76025E+02 -1.44764E+04  5.12346E+03 -8.37826E+03  5.33801E+03 -5.01437E+03
  4.00809E+03 -3.15188E+03  4.18344E+03 -3.87364E+03  5.58770E+03 -3.43405E+03  8.24323E+03 -1.58185E+03
  1.05911E+04  2.32153E+03  5.80022E+03  9.37614E+03 -2.19532E+03  1.08372E+04 -1.14437E+04  8.60485E+03
 -1.42957E+04 -1.31041E+03 -9.07924E+03 -9.83917E+03 -1.15600E+03 -1.54448E+04  8.26690E+03 -1.60283E+04
  1.62080E+04 -8.48840E+03  1.90174E+04  2.39311E+03  1.29052E+04  1.33982E+04  1.87581E+03  1.74857E+04
 -7.14146E+03  1.42856E+04 -1.00288E+04  4.49830E+03 -6.76851E+03 -1.46758E+03 -2.96616E+03 -1.89511E+03
 -1.25157E+03  1.55286E+02 -2.49856E+03  3.37278E+03 -6.02686E+03  1.91332E+03 -1.01382E+04 -1.46898E+03
 -7.26693E+03 -9.48305E+03 -9.91516E+01 -1.44986E+04  8.19377E+03 -1.32955E+04  1.41737E+04 -4.25167E+03
  1.42407E+04  6.85988E+03  6.48219E+03  1.28353E+04 -2.79568E+03  1.44009E+04 -1.03132E+04  9.15907E+03
 -1.34460E+04  6.27028E+02 -1.04602E+04 -8.65052E+03 -1.11657E+03 -1.17638E+04  6.51649E+03 -9.30594E+03
  9.10675E+03 -2.99058E+03  6.09667E+03  2.33032E+03  2.29049E+03  4.44740E+03  1.24173E+03  1.65600E+03
  2.79313E+03  1.26791E+03  3.26392E+03  2.31578E+03  3.92145E+03  5.29490E+03  3.60647E+03  7.82246E+03
 -2.95343E+03  1.14194E+04 -1.01669E+04  1.13793E+04 -1.47147E+04  2.96099E+03 -1.52570E+04 -6.17750E+03
 -7.19888E+03 -1.47306E+04  2.55388E+03 -1.56294E+04  8.90917E+03 -1.01507E+04  1.20411E+04 -2.88373E+03
  8.90182E+03  5.57773E+03  2.59192E+03  8.97027E+03 -3.97603E+03  5.78877E+03 -5.68502E+03 -1.01970E+03
 -2.50212E+03 -6.39843E+03  3.12227E+03 -5.99090E+03  5.79789E+03 -3.29432E+03  5.84555E+03  1.38981E+03
  3.64806E+03  2.98184E+03  9.40203E+02  2.62542E+03 -6.06860E+02  2.10614E+03  1.92729E+03 -5.13486E+02
  2.13606E+03 -6.13400E+02  5.90935E+03  2.33212E+03  3.09132E+03  7.96716E+03 -1.44078E+03  9.96882E+03
 -7.26375E+03  6.92792E+03 -9.03376E+03  2.07693E+03 -8.55759E+03 -3.42215E+03 -3.55966E+03 -5.36298E+03
  8.73492E+02 -5.74671E+03  3.25468E+03 -2.69500E+03  3.06484E+03  3.01407E+03 -1.75148E+03  4.41054E+03
 -6.06766E+03  2.61404E+03 -7.33589E+03 -3.24838E+03 -3.80256E+03 -8.10772E+03  1.52106E+03 -8.50432E+03
  4.63040E+03 -4.93830E+03  5.77117E+03 -7.48052E+02  4.58241E+03  2.35062E+03  5.45893E+02  3.94426E+03
 -2.96850E+03  1.60011E+03 -3.58184E+03 -2.78541E+03  1.29776E+03 -6.24734E+03  7.26988E+03 -4.78627E+03
  9.59567E+03  8.18070E+02  9.08676E+03  6.40086E+03  2.98984E+03  9.97652E+03 -3.58135E+03  9.34330E+03
 -8.00517E+03  4.12108E+03 -8.49304E+03 -1.46567E+03 -4.53719E+03 -6.38556E+03  1.80578E+03 -6.12148E+03
  6.18365E+03 -2.83029E+03  4.93430E+03  2.42266E+03  2.03225E+03  5.65480E+03 -9.05619E+02  4.79393E+03
 -2.70886E+03  3.09490E+03 -2.37551E+03  9.42588E+02 -1.30297E+03  1.01605E+03 -2.00570E+03  2.05901E+03
 -2.25796E+03  3.39251E+03 -6.60745E+03  3.13217E+03 -9.66661E+03  3.66721E+02 -1.11096E+04 -6.46497E+03
 -5.68129E+03 -1.31535E+04  2.97485E+03 -1.50770E+04  9.54704E+03 -1.14204E+04  1.36043E+04 -4.43024E+03
  1.32378E+04  2.81900E+03  8.23720E+03  8.82582E+03  5.13253E+02  1.00712E+04 -3.99685E+03  7.56214E+03
 -5.70468E+03  2.22551E+03 -3.58970E+03 -1.10096E+03 -1.31658E+03 -3.81335E+02 -6.20867E+02  9.00820E+01
 -1.72783E+03 -3.32039E+01 -1.98467E+03 -2.97822E+02 -9.97508E+02 -2.60238E+03  2.29377E+02 -3.70368E+03
  4.72210E+03 -3.12658E+03  6.27144E+03  1.87711E+02  6.99196E+03  5.39659E+03  1.71785E+03  9.95498E+03
 -4.62665E+03  1.15058E+04 -1.05740E+04  6.60395E+03 -1.25885E+04 -1.50691E+03 -9.60980E+03 -7.51806E+03
 -4.00105E+03 -1.03137E+04  3.00321E+03 -9.96604E+03  6.21062E+03 -5.07057E+03  7.17023E+03  1.12436E+02
  3.56333E+03  3.43338E+03 -4.59702E+02  3.15784E+03 -1.96177E+03 -2.49683E+02  5.28512E+02 -2.01898E+03
  3.18692E+03 -1.86564E+03  3.99902E+03  1.31660E+03  2.85676E+03  3.95465E+03 -3.41267E+02  5.19324E+03
 -4.43168E+03  4.75374E+03 -6.99208E+03  6.33102E+02 -6.48332E+03 -4.73633E+03 -1.04675E+03 -8.95458E+03
  4.96442E+03 -7.14135E+03  7.84286E+03 -2.30408E+03  7.87149E+03  1.86563E+03  4.52968E+03  6.21943E+03
  1.00860E+03  6.68613E+03 -2.92169E+03  5.48184E+03 -4.31293E+03  2.84810E+03 -3.58262E+03  3.55540E+02
 -2.12102E+03 -2.66731E+02 -1.57289E+03  1.18177E+03 -3.62446E+03  1.01718E+03 -5.38545E+03 -6.64203E+02
 -5.09176E+03 -3.42238E+03 -1.72719E+03 -6.84633E+03  3.22490E+03 -7.27187E+03  6.33557E+03 -3.33955E+03
  6.89604E+03  8.33021E+02  3.55764E+03  4.74793E+03 -1.15782E+01  6.93172E+03 -5.35136E+03  4.39675E+03
