 $NMID ID='MM_0lb_SNR800_20hz_g50_89.RAW', FMTDAT='(8E13.5)'
 TRAMP=1., VOLUME=1. $END
  3.09766E+05  5.42051E+02  3.37321E+05  2.50423E+05  8.45255E+04  3.37262E+05 -1.32171E+05  2.50189E+05
 -1.89570E+05  8.23609E+04 -1.11110E+05 -3.31222E+04  1.55958E+03 -5.02469E+04  5.39414E+04  3.52203E+02
  3.51276E+04  5.26905E+04 -1.67214E+04  7.49901E+04 -6.00658E+04  6.26352E+04 -8.28676E+04  3.15009E+04
 -7.95450E+04 -1.10609E+04 -5.61587E+04 -4.99168E+04 -1.46685E+04 -6.81725E+04  2.67113E+04 -4.46413E+04
  3.89317E+04  3.88042E+03  1.54616E+04  4.69352E+04 -3.38285E+04  4.59534E+04 -6.51730E+04 -4.80802E+02
 -5.19645E+04 -5.57382E+04 -6.05008E+03 -7.49555E+04  3.30632E+04 -5.26923E+04  4.60384E+04 -1.61275E+04
  4.14475E+04  1.10805E+04  3.06548E+04  2.40761E+04  1.59219E+04  2.79346E+04 -4.69965E+03  2.65497E+04
 -2.15061E+04  1.28820E+04 -1.91451E+04 -4.04277E+03  4.10386E+03 -7.58160E+03  2.10753E+04  1.08758E+04
  7.49149E+03  3.30271E+04 -3.05538E+04  3.36941E+04 -6.06933E+04  2.14340E+03 -5.51905E+04 -4.10519E+04
 -1.23325E+04 -6.06971E+04  3.77934E+04 -4.28957E+04  5.51874E+04 -1.85917E+03  3.17886E+04  3.04587E+04
 -6.62913E+03  3.23355E+04 -2.80733E+04  1.28238E+04 -2.74750E+04 -5.51772E+03 -1.40439E+04 -9.86626E+03
 -7.06709E+03 -1.11984E+04 -1.18343E+03 -1.63005E+04  6.39871E+03 -2.24872E+04  1.47339E+04 -1.39968E+04
  1.24932E+04  4.16763E+03 -5.89732E+03  1.29337E+04 -1.89904E+04 -2.10490E+03 -7.90636E+03 -2.98855E+04
  2.05142E+04 -3.97985E+04  4.42248E+04 -1.85002E+04  4.14714E+04  1.80077E+04  1.40148E+04  4.11900E+04
 -1.51778E+04  3.10283E+04 -2.31715E+04  1.02800E+03 -7.98151E+03 -2.61270E+04  2.05428E+04 -3.08775E+04
  3.73778E+04 -7.08910E+03  3.10035E+04  2.25172E+04  1.49005E+04  4.18703E+04 -7.57996E+03  4.44536E+04
 -2.80902E+04  2.92538E+04 -3.66753E+04  8.26535E+03 -3.78977E+04 -1.47663E+04 -2.11121E+04 -3.36261E+04
  6.97456E+03 -3.35042E+04  2.90310E+04 -1.24343E+04  2.64175E+04  1.09135E+04  2.77218E+03  1.75111E+04
 -1.28803E+04  7.13249E+03 -9.25850E+03 -7.65783E+03  6.03730E+03 -9.81261E+03  1.68846E+04  6.58374E+03
  1.23923E+04  2.13860E+04 -6.83166E+03  2.29601E+04 -2.11599E+04  8.71986E+03 -2.47315E+04 -6.56159E+03
 -1.62010E+04 -1.64854E+04 -5.18486E+03 -1.61106E+04  3.79981E+03 -1.38041E+04  1.18300E+04 -1.35462E+04
  2.02819E+04 -1.15085E+04  2.75414E+04  9.09311E+02  2.06222E+04  1.57407E+04  4.23090E+03  3.17903E+04
 -1.58073E+04  2.70920E+04 -2.55764E+04  9.18256E+03 -1.93219E+04 -1.05330E+04 -3.70089E+03 -1.41516E+04
  2.52524E+03 -4.34650E+03 -2.42885E+03  5.40711E+03 -1.23690E+04  5.51551E+03 -1.26823E+04 -4.65593E+03
 -8.42648E+03 -1.46124E+04  4.79061E+03 -1.84632E+04  1.20259E+04 -1.34518E+04  1.36924E+04 -1.59266E+03
  8.49073E+03  1.04524E+04 -7.84559E+02  1.50730E+04 -9.76431E+03  8.48397E+03 -1.46945E+04 -3.40208E+03
 -1.09684E+04 -1.36116E+04 -1.23890E+03 -1.82511E+04  8.29375E+03 -1.44426E+04  1.56835E+04 -6.86629E+03
  1.40085E+04  6.35525E+02  1.00027E+04  3.63220E+03  5.04609E+03  5.04139E+02  7.13170E+03 -1.25250E+03
  1.32543E+04  2.83375E+03  1.40390E+04  1.23144E+04  8.42711E+03  2.36400E+04 -2.95123E+03  2.50811E+04
 -1.49396E+04  1.89981E+04 -2.28030E+04  8.81803E+03 -2.30653E+04 -1.52238E+03 -1.97772E+04 -1.30213E+04
 -9.74292E+03 -1.87695E+04  6.10845E+03 -1.79149E+04  1.57796E+04 -1.03028E+04  1.48406E+04  3.20899E+03
  6.45658E+03  1.05439E+04 -6.75870E+03  9.99681E+03 -1.28375E+04  2.47368E+03 -9.75572E+03 -7.41853E+03
  1.54247E+02 -1.18255E+04  5.84086E+03 -9.20647E+03  7.15521E+03 -1.60837E+03  1.46843E+03  4.48831E+03
 -5.37327E+03  6.88291E+02 -3.13904E+03 -4.52384E+03  8.70051E+02 -9.48953E+03  7.47687E+03 -8.93080E+03
  1.10817E+04 -4.09848E+03  1.08268E+04  2.73075E+03  9.37834E+03  8.71917E+03  4.51330E+03  1.28892E+04
 -1.42128E+03  1.42526E+04 -8.77504E+03  9.21904E+03 -1.02700E+04  2.85577E+03 -7.69896E+03 -1.28305E+03
 -4.35469E+03 -3.13474E+03 -4.65745E+02  1.48266E+03 -1.90192E+03  1.95882E+03 -3.07274E+03  3.42873E+03
 -7.54341E+03 -5.33555E+02 -8.26057E+03 -6.60882E+03 -3.29589E+03 -1.09408E+04  3.48905E+03 -7.70343E+03
  6.39814E+03 -3.44162E+03  4.80307E+03  1.87124E+03  6.19104E+02  3.13534E+03 -3.20549E+03 -1.98815E+02
 -2.95124E+03 -4.70094E+03 -5.66586E+02 -6.36137E+03  3.74928E+03 -7.17751E+03  9.19333E+03 -3.53212E+03
  1.05851E+04  4.31976E+02  8.09343E+03  5.30998E+03  1.62306E+03  7.74333E+03 -5.02365E+03  7.62554E+03
 -6.75593E+03  2.44775E+03 -3.35484E+03 -1.10221E+03  1.15210E+03 -1.86345E+03  4.44112E+03 -1.25776E+03
  3.78589E+03  3.13900E+03  1.11826E+03  5.93360E+03 -4.21424E+03  5.91135E+03 -7.16379E+03  1.76283E+03
 -4.39233E+03 -3.00973E+03  4.14272E+02 -6.04893E+03  2.89446E+03 -3.00742E+03  2.87406E+03  7.20885E+02
  4.68067E+02  2.56414E+03 -3.77723E+03  4.23305E+03 -4.07965E+03  1.91180E+03 -3.62528E+03 -9.19612E+02
 -2.45207E+03 -5.02971E+03  6.65669E+02 -6.07216E+03  5.12285E+03 -3.92589E+03  5.69499E+03  9.24266E+02
  4.27485E+03  4.46354E+03  4.15271E+02  6.56331E+03 -4.39989E+03  3.85717E+03 -4.18580E+03 -2.51647E+02
 -5.40476E+03 -4.64816E+03 -1.44932E+03 -4.12899E+03  2.15778E+03 -4.06676E+03  2.35876E+03 -2.52311E+03
  2.45304E+03  1.47774E+02  1.08435E+02  1.19772E+03  7.80139E+02 -6.38716E+01 -3.85196E+01 -1.25918E+03
  3.04368E+03 -3.46746E+02  4.12767E+03  4.49646E+02  4.58752E+03  2.30762E+03  5.30876E+03  6.06094E+03
 -7.24830E+02  7.00522E+03 -6.96220E+03  5.81203E+03 -8.63827E+03  8.44190E+02 -6.46160E+03 -2.12761E+03
 -3.69961E+03 -5.60569E+03 -4.59402E+02 -4.29766E+03  1.74976E+03 -1.51376E+03  1.49588E+03 -2.04659E+03
  9.17153E+02 -1.54059E+03  1.96038E+03 -2.00752E+03  3.29737E+03 -1.00598E+03  3.35451E+03  8.78665E+02
  3.84340E+03  1.33014E+03  7.98465E+02  2.89086E+03 -1.40174E+03  2.25655E+03 -3.57225E+03  2.15386E+03
 -4.07566E+03 -1.00079E+03 -1.31104E+03 -2.92596E+03  7.80768E+02 -4.45099E+03  2.72141E+03 -4.50324E+03
  4.00666E+03 -2.54199E+03  5.76096E+03  2.06325E+02  4.19407E+03  3.56554E+03  1.12195E+03  5.13540E+03
 -1.74714E+03  5.42965E+03 -2.85308E+03  1.67208E+03 -1.26365E+03 -8.08850E+02 -9.22001E-01 -4.77964E+02
 -3.41787E+02  4.85395E+02 -6.08279E+02  1.76252E+03 -2.46441E+03  1.13207E+03 -3.70493E+03 -2.74860E+02
 -6.58084E+02 -3.57516E+03  1.04263E+03 -3.93369E+03  2.31962E+03 -3.43971E+03  2.70325E+03 -8.70341E+02
  3.30902E+03  2.10134E+03  1.49239E+03  2.68813E+03 -7.05781E+02  3.55509E+03 -2.11902E+03  2.60436E+03
 -3.07863E+03  8.14453E+02 -2.94740E+03 -1.76856E+03 -4.75190E+01 -2.39042E+03  1.26599E+03 -1.93703E+03
  2.19458E+03 -8.96035E+02  1.52336E+03  2.21755E+02  2.69622E+02  1.43004E+03  8.18978E+02  2.95945E+02
  1.61586E+03  5.29137E+02  7.73484E+02  1.11404E+03  8.42363E+02  2.10534E+03  1.15091E+03  1.23402E+03
 -1.11370E+03  2.35744E+03 -1.77464E+03  3.04135E+03 -2.28384E+03  1.12701E+03 -3.42103E+03 -2.50920E+02
 -1.25725E+03 -2.56037E+03  5.53616E+02 -3.84180E+03  1.55676E+03 -2.01036E+03  2.53440E+03 -5.57425E+02
  1.58888E+03  1.48987E+03  2.06858E+02  1.67113E+03 -4.39429E+02  1.05901E+03 -5.92846E+02  5.48391E+01
 -1.32929E+02 -1.07185E+03  1.04258E+03 -9.47905E+02  1.02144E+03 -9.49844E+02  1.11366E+03  1.37524E+02
  5.68658E+02  1.41495E+02  5.43123E+02 -4.66015E+02 -2.35681E+02  8.98209E+02  1.53516E+03 -1.99063E+02
 -3.27126E+02 -8.29289E+01  1.55075E+03  4.02475E+02 -8.70202E+01  2.18883E+03 -3.42998E+02  2.32282E+03
 -1.18488E+03  6.62284E+02 -1.37346E+03  1.25993E+02 -1.53031E+03 -4.88852E+02 -3.06913E+01 -2.47404E+02
  3.31670E+02 -9.50880E+02  7.86811E+02 -6.03803E+02  5.54391E+02  1.05708E+03 -6.21102E+02  7.47373E+02
 -1.42434E+03  7.32972E+02 -6.16694E+02 -1.04478E+03 -4.29681E+02 -1.98195E+03 -9.26814E+01 -1.38871E+03
  2.63804E+01 -3.48400E+02  5.97507E+02  1.88263E+02  9.33766E+02 -6.37845E+01  5.73884E+02  1.01651E+03
 -2.68324E+02 -1.14683E+02 -7.79127E+02 -2.81346E+02  7.99239E+02 -4.96272E+02  1.43968E+03 -5.72245E+02
  9.18026E+02  3.16477E+02  2.28244E+03  4.52004E+02  1.08076E+03  8.27628E+02 -1.63858E+02  1.39100E+03
 -9.45604E+02 -2.89180E+02 -1.10146E+03 -9.24599E+00 -5.26337E+02 -8.41386E+02  3.24162E+02 -2.41771E+02
  1.32310E+03 -6.98676E+02  4.91438E+02  3.80706E+02 -5.76907E+01  9.58948E+02  5.47204E+02  1.06086E+03
 -5.32827E+01  1.08506E+03 -3.63283E+02  1.27595E+02  2.15136E+02  2.23697E+02 -4.41490E+02  7.55717E+02
 -6.57737E+02  1.02376E+03 -1.71893E+03  2.13728E+02 -9.74782E+02  2.07834E+01 -1.87082E+03 -7.27997E+02
 -1.12810E+03 -1.65233E+03  4.28474E+02 -1.91766E+03  6.39307E+02 -1.76892E+03  2.01541E+03 -7.56774E+02
  2.08348E+03 -2.06214E+02  9.07420E+02  1.06696E+03 -8.29270E+02  1.12078E+03 -3.74969E+02  8.27320E+02
 -6.50257E+02  6.10990E+02 -4.63463E+02 -5.04328E+02 -3.42350E+02  2.54010E+02 -7.09130E+02 -5.64995E+01
 -9.11226E+02  1.64949E+02 -9.12642E+02 -9.73902E+00  4.91344E+02 -5.07652E+02 -5.13610E+02 -8.58611E+02
  1.20329E+03 -6.30942E+02  1.84104E+02  1.03117E+02  5.98229E+02  7.89559E+02 -7.21778E+02  7.85172E+02
 -5.44841E+02  1.78489E+03 -1.02334E+03  9.74578E+02 -1.12500E+03 -6.30203E+01 -9.72280E+02 -8.72238E+02
 -6.41991E+02 -7.19359E+02  2.35078E+02 -9.17968E+02  5.66523E+02 -2.18654E+02  6.56139E+02  4.86356E+01
  7.52050E+02  1.82602E+02  3.62421E+02  2.00019E+02 -3.83104E+02 -2.10154E+01 -1.95353E+02 -1.95020E+02
  3.86297E+02  3.06279E+02 -5.31036E+01  3.55092E+02 -1.67048E+02  2.44843E+01  3.67485E+02 -2.36277E+02
 -4.47666E+02  3.76573E+02 -1.47282E+02  2.20380E+02 -3.00305E+02 -2.45366E+02 -2.62764E+01 -8.15830E+02
  1.18908E+02 -1.62894E+02  5.78766E+01 -9.76000E+01  5.00504E+02 -7.33194E+02  3.18047E+02  4.36874E+02
  3.28829E+02  1.03729E+02 -1.52473E+02  4.65536E+02 -2.65132E+02  5.81110E+02  3.30388E+00 -5.13652E+01
  6.54627E+01 -5.12092E+01 -3.50537E+02  2.58530E+02 -4.54186E+02 -1.28801E+02 -3.91157E+02 -2.35298E+02
 -8.43575E+02  5.67043E+02 -4.66102E+01 -5.88793E+02  6.56851E+02 -1.25433E+03  5.25908E+02  7.60999E+01
  4.77187E+02  2.04688E+02 -6.44578E+02  1.39565E+02 -7.15155E+01  5.91455E+02 -2.38129E+02  5.42230E+02
