 $NMID ID='MM_0lb_SNR800_14hz_g40_86.RAW', FMTDAT='(8E13.5)'
 TRAMP=1., VOLUME=1. $END
  3.09724E+05  2.27788E+01  3.37526E+05  2.50614E+05  8.45425E+04  3.37718E+05 -1.32265E+05  2.50800E+05
 -1.90134E+05  8.27960E+04 -1.11638E+05 -3.25826E+04  8.74887E+02 -5.02990E+04  5.37363E+04  1.14207E+02
  3.55383E+04  5.29400E+04 -1.67784E+04  7.54385E+04 -6.07025E+04  6.31330E+04 -8.35851E+04  3.19636E+04
 -8.06240E+04 -1.08339E+04 -5.69676E+04 -5.11408E+04 -1.49934E+04 -6.91032E+04  2.74542E+04 -4.54501E+04
  3.96170E+04  3.89759E+03  1.62556E+04  4.77951E+04 -3.43954E+04  4.72061E+04 -6.63775E+04 -7.76021E+02
 -5.31304E+04 -5.67261E+04 -6.27097E+03 -7.62569E+04  3.38387E+04 -5.46075E+04  4.76432E+04 -1.69102E+04
  4.30919E+04  1.11774E+04  3.13223E+04  2.49097E+04  1.59090E+04  2.93285E+04 -5.30048E+03  2.73106E+04
 -2.22838E+04  1.28261E+04 -1.84443E+04 -4.89327E+03  5.67506E+03 -7.37948E+03  2.19820E+04  1.17618E+04
  7.27443E+03  3.48849E+04 -3.19115E+04  3.51663E+04 -6.28651E+04  2.21923E+03 -5.67069E+04 -4.23103E+04
 -1.23577E+04 -6.24533E+04  3.91217E+04 -4.47372E+04  5.73283E+04 -1.93091E+03  3.33968E+04  3.19143E+04
 -6.19890E+03  3.52125E+04 -2.94397E+04  1.54137E+04 -2.93569E+04 -4.57402E+03 -1.59216E+04 -1.09857E+04
 -8.06285E+03 -1.29130E+04 -7.95878E+02 -1.76873E+04  7.33015E+03 -2.30640E+04  1.53038E+04 -1.35741E+04
  1.16119E+04  4.64050E+03 -7.69679E+03  1.28586E+04 -2.06024E+04 -3.78950E+03 -8.17879E+03 -3.29100E+04
  2.24550E+04 -4.29696E+04  4.72030E+04 -1.94865E+04  4.44768E+04  1.88310E+04  1.50640E+04  4.34142E+04
 -1.57678E+04  3.27413E+04 -2.48179E+04  1.81728E+03 -9.10205E+03 -2.70825E+04  2.09910E+04 -3.31456E+04
  4.01149E+04 -8.98666E+03  3.47574E+04  2.34960E+04  1.72233E+04  4.55096E+04 -7.57968E+03  4.89979E+04
 -3.04430E+04  3.30872E+04 -4.09427E+04  9.37855E+03 -4.17007E+04 -1.59266E+04 -2.29888E+04 -3.71818E+04
  7.38458E+03 -3.69580E+04  3.10697E+04 -1.41575E+04  2.87099E+04  1.09611E+04  3.74707E+03  1.86788E+04
 -1.34813E+04  7.99910E+03 -1.04107E+04 -7.56069E+03  5.99432E+03 -1.06218E+04  1.76686E+04  6.15742E+03
  1.31370E+04  2.18740E+04 -5.95641E+03  2.48037E+04 -2.22462E+04  1.10468E+04 -2.74127E+04 -5.06079E+03
 -1.96984E+04 -1.71681E+04 -7.58373E+03 -1.96872E+04  3.85538E+03 -1.81351E+04  1.48250E+04 -1.74152E+04
  2.50000E+04 -1.27562E+04  3.15024E+04  2.15235E+03  2.32537E+04  1.89804E+04  4.08591E+03  3.56368E+04
 -1.74098E+04  2.98890E+04 -2.75980E+04  1.04683E+04 -2.06902E+04 -1.04166E+04 -4.19943E+03 -1.34233E+04
  1.87179E+03 -3.59765E+03 -4.40257E+03  6.65374E+03 -1.55436E+04  5.11986E+03 -1.59095E+04 -6.42523E+03
 -1.00477E+04 -1.80968E+04  5.12601E+03 -2.23891E+04  1.49028E+04 -1.58730E+04  1.73281E+04 -1.59929E+03
  1.06487E+04  1.23957E+04 -8.42284E+02  1.81802E+04 -1.25572E+04  1.03323E+04 -1.83550E+04 -3.61891E+03
 -1.31371E+04 -1.63735E+04 -2.19987E+03 -2.18774E+04  1.03795E+04 -1.82015E+04  1.84330E+04 -8.79998E+03
  1.72691E+04  6.44424E+02  1.25042E+04  4.34019E+03  6.67140E+03  6.50220E+02  8.67447E+03 -1.55304E+03
  1.68521E+04  2.80111E+03  1.82801E+04  1.46778E+04  1.20175E+04  2.90955E+04 -2.87648E+03  3.27677E+04
 -1.90635E+04  2.55925E+04 -3.02374E+04  1.30492E+04 -3.15124E+04 -2.35646E+03 -2.63094E+04 -1.80479E+04
 -1.16774E+04 -2.59700E+04  8.93021E+03 -2.37668E+04  2.01821E+04 -1.22851E+04  1.82426E+04  4.94514E+03
  7.24478E+03  1.41513E+04 -8.74820E+03  1.24312E+04 -1.56991E+04  2.66165E+03 -1.19260E+04 -9.54797E+03
 -1.69280E+02 -1.48104E+04  7.54915E+03 -1.13288E+04  9.87654E+03 -1.51184E+03  2.21352E+03  6.10315E+03
 -6.29491E+03  2.12826E+03 -5.86239E+03 -5.48173E+03 -3.93470E+02 -1.28272E+04  9.43950E+03 -1.37193E+04
  1.55542E+04 -6.97217E+03  1.66113E+04  2.92016E+03  1.45445E+04  1.24687E+04  7.02365E+03  1.89044E+04
 -2.81998E+03  2.11157E+04 -1.32043E+04  1.31154E+04 -1.48691E+04  3.25300E+03 -1.10636E+04 -3.17678E+03
 -4.93158E+03 -4.71994E+03 -6.96769E+02  1.02822E+03 -2.50643E+03  2.48006E+03 -4.62982E+03  4.19411E+03
 -1.02909E+04 -7.29637E+02 -1.10014E+04 -8.70317E+03 -4.16699E+03 -1.43381E+04  4.65940E+03 -1.10665E+04
  9.34866E+03 -4.58429E+03  6.47831E+03  2.71016E+03  2.12759E+02  4.06768E+03 -4.89668E+03  4.41514E+01
 -4.64323E+03 -6.89490E+03 -1.01471E+03 -1.01712E+04  5.84173E+03 -1.06072E+04  1.32774E+04 -5.27595E+03
  1.52747E+04  1.14643E+03  1.18730E+04  9.05965E+03  2.39348E+03  1.20636E+04 -6.61092E+03  1.07733E+04
 -8.92314E+03  3.47636E+03 -4.54099E+03 -1.77740E+03  1.48591E+03 -2.71332E+03  5.77194E+03 -1.44110E+03
  5.22352E+03  4.77370E+03  1.23764E+03  8.15879E+03 -6.08590E+03  8.12844E+03 -1.01033E+04  2.05891E+03
 -6.84591E+03 -4.79298E+03  3.12615E+02 -9.04889E+03  5.49040E+03 -4.29754E+03  5.36745E+03  1.84240E+03
  1.10678E+03  5.47856E+03 -5.33946E+03  6.81989E+03 -7.37137E+03  3.36789E+03 -7.38963E+03 -2.40048E+03
 -4.71567E+03 -9.25764E+03  1.90617E+03 -1.09319E+04  9.12876E+03 -6.61840E+03  9.71798E+03  1.30201E+03
  6.35905E+03  7.94641E+03 -7.81148E+02  9.90593E+03 -7.15923E+03  5.50088E+03 -7.95432E+03 -8.29783E+02
 -7.60076E+03 -6.77578E+03 -1.39364E+03 -6.96209E+03  4.13395E+03 -6.35521E+03  4.51739E+03 -3.04665E+03
  3.41090E+03  8.20937E+02 -3.42653E+02  1.59414E+03  2.01789E+02 -1.31722E+03  6.17181E+02 -3.67681E+03
  6.32625E+03 -2.23337E+03  8.87696E+03  1.09226E+03  9.01135E+03  5.43061E+03  6.99242E+03  1.15973E+04
 -2.55203E+03  1.32813E+04 -1.14456E+04  9.97177E+03 -1.48657E+04  1.87187E+03 -1.19947E+04 -4.95545E+03
 -6.10805E+03 -9.87002E+03 -2.88014E+02 -8.02876E+03  3.41685E+03 -4.40913E+03  2.54162E+03 -2.74054E+03
  1.88637E+03 -2.19561E+03  2.73674E+03 -2.69795E+03  4.33060E+03 -1.82215E+03  4.95973E+03 -1.74696E+02
  6.48406E+03  1.48097E+03  2.52532E+03  5.12185E+03 -1.86481E+03  5.71675E+03 -6.57353E+03  4.18312E+03
 -7.83948E+03 -1.09484E+03 -4.26158E+03 -5.41336E+03  7.26243E+01 -8.25914E+03  4.81303E+03 -8.39226E+03
  8.58710E+03 -4.99499E+03  1.06130E+04  1.05503E+03  7.62878E+03  7.21322E+03  1.53534E+03  9.89069E+03
 -3.88527E+03  8.38929E+03 -5.35057E+03  2.87995E+03 -3.43570E+03 -1.26597E+03 -1.21695E+03 -1.12735E+03
 -6.96966E+02  5.97449E+02 -1.67830E+03  2.41514E+03 -3.65958E+03  1.33547E+03 -5.94488E+03 -9.09166E+02
 -3.50591E+03 -5.93566E+03  4.17038E+02 -7.69197E+03  4.58352E+03 -7.22229E+03  6.92104E+03 -2.08873E+03
  7.17497E+03  3.71994E+03  3.33148E+03  6.38615E+03 -1.45570E+03  7.83450E+03 -5.23748E+03  4.56236E+03
 -6.91154E+03  3.33757E+02 -5.78259E+03 -4.35408E+03 -2.55920E+02 -5.79923E+03  2.86701E+03 -4.48621E+03
  4.56795E+03 -1.38253E+03  3.22614E+03  1.21173E+03  8.35532E+02  2.60254E+03  1.11443E+03  1.17951E+03
  2.06185E+03  1.04728E+03  1.81745E+03  1.28130E+03  2.17536E+03  3.09412E+03  1.90023E+03  3.40228E+03
 -1.92510E+03  5.46109E+03 -4.86903E+03  6.04697E+03 -6.51307E+03  1.45041E+03 -7.88083E+03 -2.11049E+03
 -3.47220E+03 -7.18459E+03  9.54776E+02 -8.32447E+03  4.01261E+03 -5.18511E+03  5.53372E+03 -1.60440E+03
  4.81096E+03  2.83466E+03  9.98016E+02  4.15613E+03 -1.59434E+03  2.45392E+03 -2.39403E+03 -2.53264E+02
 -1.27618E+03 -3.16775E+03  2.03398E+03 -3.15680E+03  2.69878E+03 -1.55831E+03  2.51643E+03  5.50106E+02
  1.57855E+03  1.29310E+03  1.19553E+03  3.95629E+02 -5.10642E+02  1.30636E+03  1.56677E+03 -7.40090E+02
  8.66285E+02 -5.32618E+02  2.94612E+03  1.31846E+03  1.21838E+03  4.21194E+03 -3.81900E+02  5.28817E+03
 -3.05937E+03  2.70367E+03 -4.19717E+03  8.92516E+02 -4.05842E+03 -1.76022E+03 -1.13515E+03 -2.40981E+03
  3.75964E+02 -2.81285E+03  2.01014E+03 -1.28015E+03  1.38126E+03  2.05757E+03 -9.67598E+02  2.36573E+03
 -2.77715E+03  1.66117E+03 -2.92583E+03 -1.81677E+03 -1.60683E+03 -3.48785E+03  5.58504E+02 -3.58966E+03
  1.70789E+03 -1.76310E+03  2.37074E+03  1.43776E+02  2.52395E+03  8.32948E+02  4.19909E+02  1.93855E+03
 -7.73538E+02  3.84331E+02 -1.59803E+03 -8.69569E+02  6.65557E+02 -2.46429E+03  3.35803E+03 -1.82956E+03
  3.39196E+03  2.70855E+02  4.57461E+03  2.35784E+03  1.46987E+03  4.06465E+03 -1.18195E+03  4.06759E+03
 -3.16278E+03  1.61022E+03 -3.53393E+03 -4.11534E+02 -1.87903E+03 -2.48528E+03  3.03515E+02 -1.72908E+03
  2.98977E+03 -1.14622E+03  2.14209E+03  1.03087E+03  6.46808E+02  2.83858E+03  6.64542E+01  2.17461E+03
 -1.20597E+03  2.26149E+03 -1.02798E+03  2.71863E+02 -4.02556E+02  5.79818E+02 -7.15432E+02  1.20816E+03
 -1.23128E+03  1.85980E+03 -2.93922E+03  1.15515E+03 -3.76193E+03 -3.96471E+01 -4.63548E+03 -2.82500E+03
 -2.25403E+03 -4.84776E+03  1.02474E+03 -6.31139E+03  3.31479E+03 -5.27041E+03  5.91551E+03 -1.80282E+03
  5.38316E+03  7.60179E+02  2.80102E+03  3.34262E+03 -2.47208E+02  3.99681E+03 -1.99141E+03  3.18763E+03
 -2.08331E+03  1.24316E+03 -1.69301E+03 -5.62990E+02 -8.28339E+02 -9.27098E+01 -8.37446E+02 -7.78925E+01
 -1.11051E+03  1.84049E+02 -1.28884E+03 -1.18218E+02 -7.18863E+00 -1.30654E+03 -3.12872E+02 -1.34848E+03
  2.19873E+03 -1.52154E+03  2.17990E+03  4.81767E+02  2.86332E+03  2.40192E+03  5.98888E+01  4.04137E+03
 -2.05087E+03  4.49088E+03 -3.71534E+03  2.58537E+03 -4.63791E+03 -4.91074E+02 -3.52113E+03 -3.05155E+03
 -1.60049E+03 -3.51786E+03  1.17376E+03 -3.49437E+03  2.14069E+03 -1.93302E+03  2.22224E+03 -2.48498E+02
  1.37340E+03  1.29617E+03 -7.07343E-01  9.68188E+02 -9.81976E+02 -6.88000E+01 -8.77850E+01 -8.13126E+02
  1.57778E+03 -2.71038E+02  1.12055E+03  7.46058E+02  7.93529E+02  8.90017E+02  3.11357E+02  1.64444E+03
 -1.76926E+03  1.60850E+03 -2.33696E+03  1.31867E+02 -1.87132E+03 -1.96798E+03 -3.79494E+02 -3.24683E+03
  1.56597E+03 -2.41178E+03  2.43305E+03 -2.54394E+02  2.53172E+03  3.50481E+02  1.18431E+03  2.13646E+03
  3.06844E+02  1.96448E+03 -8.64387E+02  1.74240E+03 -1.48880E+03  1.27360E+03 -1.34883E+03  2.67395E+02
 -5.39264E+02 -1.05333E+02 -9.84585E+02  4.64226E+02 -1.50625E+03  3.73425E+02 -1.92310E+03 -2.81862E+02
 -2.21317E+03 -7.24918E+02 -9.26963E+02 -2.34120E+03  1.00903E+03 -2.95836E+03  2.16631E+03 -1.22205E+03
  2.26781E+03  1.95423E+02  6.56703E+02  1.36900E+03 -2.10869E+02  2.41802E+03 -1.89790E+03  1.56626E+03
