 $NMID ID='MM_0lb_SNR800_11hz_g60_47.RAW', FMTDAT='(8E13.5)'
 TRAMP=1., VOLUME=1. $END
  3.10064E+05  6.90634E+02  3.37871E+05  2.50825E+05  8.47209E+04  3.38693E+05 -1.32325E+05  2.52005E+05
 -1.90860E+05  8.43426E+04 -1.12742E+05 -3.18996E+04  1.99460E+02 -5.01767E+04  5.37325E+04 -6.25907E+02
  3.54537E+04  5.29641E+04 -1.66573E+04  7.59104E+04 -6.09205E+04  6.42047E+04 -8.57754E+04  3.24686E+04
 -8.25802E+04 -1.18306E+04 -5.85580E+04 -5.24305E+04 -1.53353E+04 -7.09846E+04  2.77914E+04 -4.67461E+04
  4.11197E+04  3.56738E+03  1.72659E+04  4.82997E+04 -3.45628E+04  4.78826E+04 -6.79450E+04  3.30136E+02
 -5.46863E+04 -5.78331E+04 -7.43080E+03 -7.89656E+04  3.51568E+04 -5.67733E+04  4.98857E+04 -1.82168E+04
  4.48335E+04  1.13097E+04  3.27609E+04  2.63372E+04  1.59530E+04  3.03863E+04 -5.46892E+03  2.74184E+04
 -2.24061E+04  1.22155E+04 -1.77892E+04 -5.73716E+03  7.06623E+03 -7.57217E+03  2.34756E+04  1.35859E+04
  7.17778E+03  3.71832E+04 -3.38710E+04  3.66610E+04 -6.60126E+04  2.00703E+03 -5.83122E+04 -4.42834E+04
 -1.26621E+04 -6.55005E+04  4.15926E+04 -4.72324E+04  6.08588E+04 -2.44911E+03  3.66953E+04  3.44229E+04
 -5.55770E+03  3.91408E+04 -3.17118E+04  1.84021E+04 -3.30281E+04 -3.63587E+03 -1.90676E+04 -1.15891E+04
 -9.61435E+03 -1.52656E+04 -3.13042E+02 -1.96661E+04  8.12202E+03 -2.33593E+04  1.57442E+04 -1.28333E+04
  1.04455E+04  6.11060E+03 -1.05899E+04  1.30786E+04 -2.30365E+04 -6.40446E+03 -8.36528E+03 -3.71264E+04
  2.47551E+04 -4.60981E+04  5.15324E+04 -2.06617E+04  4.82274E+04  2.07250E+04  1.69521E+04  4.67630E+04
 -1.66945E+04  3.57829E+04 -2.75285E+04  2.72832E+03 -1.14538E+04 -2.93975E+04  2.15508E+04 -3.63312E+04
  4.42036E+04 -1.08364E+04  3.93789E+04  2.48902E+04  2.04352E+04  5.05095E+04 -8.09173E+03  5.51483E+04
 -3.48066E+04  3.75377E+04 -4.66717E+04  1.07538E+04 -4.71144E+04 -1.83561E+04 -2.57782E+04 -4.17781E+04
  7.85991E+03 -4.15961E+04  3.39726E+04 -1.67470E+04  3.15538E+04  1.11558E+04  5.15837E+03  2.06151E+04
 -1.39447E+04  9.50026E+03 -1.15140E+04 -7.48636E+03  5.66534E+03 -1.11461E+04  1.87845E+04  5.84015E+03
  1.46707E+04  2.25472E+04 -5.51480E+03  2.67723E+04 -2.31968E+04  1.38021E+04 -3.12932E+04 -3.54993E+03
 -2.49372E+04 -1.84390E+04 -1.12164E+04 -2.44067E+04  4.15978E+03 -2.45282E+04  1.93101E+04 -2.24896E+04
  3.09152E+04 -1.40550E+04  3.70686E+04  4.47856E+03  2.63505E+04  2.33849E+04  4.50767E+03  4.04634E+04
 -1.96967E+04  3.34740E+04 -2.98762E+04  1.17067E+04 -2.23777E+04 -1.04779E+04 -4.91100E+03 -1.31723E+04
  7.23401E+02 -1.58221E+03 -7.15672E+03  7.90536E+03 -1.98173E+04  5.53052E+03 -1.93953E+04 -9.22886E+03
 -1.16890E+04 -2.23582E+04  5.69809E+03 -2.74161E+04  1.82726E+04 -1.96678E+04  2.22921E+04 -1.46961E+03
  1.39373E+04  1.52353E+04 -1.15073E+03  2.26533E+04 -1.59004E+04  1.28807E+04 -2.26972E+04 -4.82055E+03
 -1.65270E+04 -2.02915E+04 -2.23861E+03 -2.70881E+04  1.24824E+04 -2.29966E+04  2.21967E+04 -1.17194E+04
  2.16893E+04 -1.52596E+02  1.54103E+04  4.87784E+03  8.84362E+03  6.00030E+02  1.12721E+04 -2.31189E+03
  2.12675E+04  3.03390E+03  2.43666E+04  1.74881E+04  1.62541E+04  3.63127E+04 -3.29940E+03  4.24679E+04
 -2.43551E+04  3.52815E+04 -4.00055E+04  1.80196E+04 -4.27207E+04 -3.15525E+03 -3.40969E+04 -2.48421E+04
 -1.39935E+04 -3.52850E+04  1.25124E+04 -3.09309E+04  2.66845E+04 -1.48916E+04  2.31853E+04  7.14315E+03
  7.93411E+03  1.79850E+04 -1.14056E+04  1.48783E+04 -1.91669E+04  2.55395E+03 -1.48823E+04 -1.21243E+04
 -7.14807E+00 -1.82977E+04  9.62263E+03 -1.36152E+04  1.29399E+04 -1.22806E+03  2.73066E+03  8.08154E+03
 -8.51161E+03  3.95178E+03 -8.59624E+03 -6.69249E+03 -1.62042E+03 -1.71173E+04  1.11518E+04 -1.87250E+04
  2.18401E+04 -1.03186E+04  2.43137E+04  3.13816E+03  2.16124E+04  1.70358E+04  9.70728E+03  2.71031E+04
 -5.15936E+03  2.92780E+04 -1.87735E+04  1.82315E+04 -2.13632E+04  4.06080E+03 -1.43378E+04 -5.23426E+03
 -6.39725E+03 -6.45148E+03 -5.04384E+02  4.26133E+02 -2.81857E+03  3.09605E+03 -6.61579E+03  4.91449E+03
 -1.36821E+04 -8.50574E+02 -1.43615E+04 -1.09495E+04 -5.84172E+03 -1.85336E+04  5.86114E+03 -1.48451E+04
  1.26494E+04 -6.10550E+03  8.82807E+03  3.77552E+03 -8.85090E+01  6.04102E+03 -7.21245E+03 -2.72517E+02
 -7.05522E+03 -9.20227E+03 -1.22880E+03 -1.44631E+04  8.33364E+03 -1.54301E+04  1.85040E+04 -8.03144E+03
  2.19241E+04  2.28556E+03  1.57779E+04  1.31451E+04  3.19437E+03  1.71846E+04 -8.85538E+03  1.42891E+04
 -1.15609E+04  4.19439E+03 -6.55368E+03 -3.06113E+03  2.03798E+03 -3.87943E+03  7.92904E+03 -9.42286E+02
  6.96609E+03  6.58866E+03  1.17615E+03  1.15699E+04 -8.46480E+03  1.11208E+04 -1.44095E+04  2.47955E+03
 -9.57347E+03 -7.61930E+03  3.04094E+01 -1.22695E+04  8.21756E+03 -6.34747E+03  8.64916E+03  2.88669E+03
  1.82029E+03  9.25640E+03 -7.57811E+03  1.06412E+04 -1.25037E+04  4.72233E+03 -1.24181E+04 -4.32372E+03
 -7.03025E+03 -1.42151E+04  3.75222E+03 -1.65729E+04  1.36408E+04 -9.89324E+03  1.55886E+04  2.58248E+03
  8.72148E+03  1.20924E+04 -1.44459E+03  1.45501E+04 -1.03675E+04  8.15327E+03 -1.16818E+04 -1.18970E+03
 -9.84692E+03 -9.67220E+03 -1.59878E+03 -1.08906E+04  5.65876E+03 -8.85557E+03  6.59657E+03 -3.45039E+03
  4.77038E+03  1.87612E+03 -9.40353E+02  1.52689E+03 -7.37137E+02 -3.02224E+03  2.16107E+03 -6.73900E+03
  1.01306E+04 -4.30002E+03  1.41498E+04  1.15833E+03  1.40846E+04  9.82794E+03  9.26498E+03  1.86240E+04
 -4.22416E+03  2.13360E+04 -1.78367E+04  1.56716E+04 -2.35287E+04  3.28654E+03 -1.82517E+04 -7.96265E+03
 -9.32972E+03 -1.50241E+04 -4.42680E+02 -1.32103E+04  4.54529E+03 -7.10145E+03  4.74223E+03 -4.84228E+03
  3.25801E+03 -2.92798E+03  3.82199E+03 -3.70065E+03  5.54860E+03 -3.40806E+03  7.19827E+03 -8.80562E+02
  9.64108E+03  2.41474E+03  5.28145E+03  8.14879E+03 -2.19963E+03  1.00285E+04 -1.02759E+04  7.31472E+03
 -1.30531E+04 -1.23701E+03 -7.81107E+03 -9.25918E+03 -9.74722E+02 -1.37652E+04  7.71053E+03 -1.38300E+04
  1.41216E+04 -7.74676E+03  1.70315E+04  2.08410E+03  1.21795E+04  1.20905E+04  1.56882E+03  1.55472E+04
 -6.41962E+03  1.27263E+04 -9.00635E+03  4.38222E+03 -6.05359E+03 -1.71565E+03 -2.41983E+03 -1.57738E+03
 -1.52310E+03  2.37689E+02 -1.75082E+03  2.49938E+03 -5.36361E+03  2.16604E+03 -9.00189E+03 -1.05771E+03
 -6.09937E+03 -8.91258E+03  7.07066E+01 -1.26277E+04  7.85055E+03 -1.15429E+04  1.25862E+04 -3.35664E+03
  1.24372E+04  6.23194E+03  5.65318E+03  1.14406E+04 -2.73859E+03  1.30563E+04 -8.94291E+03  7.82392E+03
 -1.19269E+04  3.09699E+02 -9.29995E+03 -7.68988E+03 -9.40720E+02 -1.03486E+04  5.49863E+03 -7.86166E+03
  7.99716E+03 -2.51009E+03  5.39099E+03  2.10376E+03  1.94516E+03  3.89930E+03  1.31574E+03  1.66203E+03
  2.44320E+03  9.00143E+02  2.72093E+03  1.21618E+03  3.56454E+03  4.80490E+03  3.51621E+03  7.03293E+03
 -2.56234E+03  9.44192E+03 -8.39687E+03  1.02220E+04 -1.25865E+04  2.45306E+03 -1.29785E+04 -4.96815E+03
 -6.13610E+03 -1.26961E+04  1.84198E+03 -1.36638E+04  7.44357E+03 -9.13786E+03  1.03829E+04 -2.39271E+03
  8.06024E+03  4.80285E+03  2.27353E+03  7.12012E+03 -3.13781E+03  4.54023E+03 -4.79789E+03 -7.64318E+02
 -2.13435E+03 -5.43749E+03  2.96065E+03 -5.74498E+03  4.73949E+03 -2.55212E+03  5.17129E+03  1.14126E+03
  3.22801E+03  2.75455E+03  1.37102E+03  1.89072E+03 -9.12865E+02  2.00171E+03  1.55618E+03 -3.55726E+02
  1.94111E+03 -8.11498E+02  5.17354E+03  1.96324E+03  2.66744E+03  6.76947E+03 -1.07752E+03  9.28339E+03
 -5.83911E+03  5.68080E+03 -8.10161E+03  1.50037E+03 -7.32959E+03 -2.81739E+03 -2.61702E+03 -4.80437E+03
  8.37712E+02 -4.54472E+03  3.23556E+03 -2.16528E+03  2.77454E+03  3.03332E+03 -1.64739E+03  4.41997E+03
 -5.08835E+03  2.44412E+03 -5.55809E+03 -2.84998E+03 -3.63967E+03 -6.75742E+03  1.03131E+03 -6.89081E+03
  3.83461E+03 -4.03847E+03  4.90059E+03 -1.11467E+02  4.01348E+03  1.59055E+03  7.07353E+02  3.52038E+03
 -2.92710E+03  8.31107E+02 -2.92538E+03 -2.27455E+03  1.32734E+03 -5.07707E+03  6.15205E+03 -4.01507E+03
  7.12696E+03  8.40027E+02  7.56825E+03  5.10080E+03  2.51890E+03  8.10470E+03 -2.76032E+03  7.14321E+03
 -6.14188E+03  3.11981E+03 -6.52703E+03 -1.00768E+03 -3.52391E+03 -5.00658E+03  9.72419E+02 -4.78000E+03
  4.75108E+03 -2.32027E+03  4.16302E+03  2.23942E+03  1.93467E+03  4.50971E+03 -4.37717E+02  3.99472E+03
 -1.84645E+03  2.60303E+03 -1.12211E+03  6.53675E+02 -8.94228E+02  4.02701E+02 -1.52669E+03  2.14825E+03
 -2.15303E+03  3.45929E+03 -5.74865E+03  2.21656E+03 -7.75104E+03  1.99166E+02 -8.59652E+03 -5.32292E+03
 -4.80569E+03 -1.02894E+04  2.20368E+03 -1.19578E+04  6.86916E+03 -9.46799E+03  1.12496E+04 -3.20453E+03
  1.04615E+04  1.87157E+03  6.37583E+03  6.94487E+03  6.53857E+02  8.24406E+03 -3.29603E+03  5.83329E+03
 -4.59989E+03  2.08434E+03 -2.87073E+03 -9.19968E+02 -6.41617E+02 -3.10411E+02 -9.83790E+02  1.28154E+02
 -1.67425E+03  8.77318E+01 -1.95472E+03 -6.22903E+02 -4.12998E+02 -2.08686E+03  1.69551E+02 -3.05929E+03
  3.94297E+03 -2.14237E+03  4.80004E+03 -5.96786E+00  5.56377E+03  4.47252E+03  1.07764E+03  7.89672E+03
 -3.91838E+03  8.84787E+03 -7.77416E+03  5.21881E+03 -9.12682E+03 -9.60970E+02 -7.42935E+03 -5.67503E+03
 -3.22679E+03 -7.85479E+03  1.94723E+03 -7.10986E+03  4.96360E+03 -4.21501E+03  4.78521E+03  3.77268E+01
  2.73434E+03  2.26169E+03 -1.78897E+02  2.50061E+03 -1.46151E+03  2.14196E+02  1.78151E+02 -2.04587E+03
  2.01498E+03 -1.13436E+03  3.16719E+03  1.25601E+03  1.42180E+03  3.19960E+03  6.91889E+02  3.62759E+03
 -3.24426E+03  3.34848E+03 -5.20405E+03  2.97241E+01 -4.40725E+03 -3.50433E+03 -1.99349E+02 -6.83214E+03
  3.35269E+03 -5.22120E+03  5.53234E+03 -1.58267E+03  5.69098E+03  1.07784E+03  3.82703E+03  4.62962E+03
  7.65560E+02  4.99354E+03 -1.64347E+03  3.62865E+03 -2.89023E+03  2.13965E+03 -2.39019E+03  2.22768E+02
 -1.28125E+03  1.45178E+02 -1.25031E+03  6.02984E+02 -2.69585E+03  7.62245E+02 -4.14927E+03 -1.01462E+03
 -4.14659E+03 -2.63213E+03 -8.33083E+02 -5.20195E+03  2.35622E+03 -5.37728E+03  4.21720E+03 -2.37895E+03
  4.89172E+03  3.81959E+02  1.94845E+03  3.45568E+03 -4.49916E+02  5.08485E+03 -3.90407E+03  2.98519E+03
