 $NMID ID='MM_0lb_SNR800_9hz_g60_55.RAW', FMTDAT='(8E13.5)'
 TRAMP=1., VOLUME=1. $END
  3.09335E+05  3.68465E+02  3.38177E+05  2.50594E+05  8.44805E+04  3.38718E+05 -1.32839E+05  2.52734E+05
 -1.90963E+05  8.39483E+04 -1.13152E+05 -3.24909E+04  3.67279E+02 -5.07031E+04  5.37252E+04 -3.38154E+02
  3.56792E+04  5.28509E+04 -1.66991E+04  7.61558E+04 -6.09157E+04  6.43990E+04 -8.52226E+04  3.25778E+04
 -8.27641E+04 -1.20529E+04 -5.87399E+04 -5.27377E+04 -1.49448E+04 -7.14075E+04  2.82676E+04 -4.70846E+04
  4.13255E+04  3.57713E+03  1.68592E+04  4.86582E+04 -3.51594E+04  4.81635E+04 -6.82044E+04  2.75116E+02
 -5.56082E+04 -5.79860E+04 -7.40749E+03 -7.92323E+04  3.49224E+04 -5.77418E+04  5.01575E+04 -1.86154E+04
  4.53754E+04  1.19426E+04  3.32050E+04  2.70262E+04  1.61314E+04  3.09553E+04 -6.14561E+03  2.79352E+04
 -2.28101E+04  1.15328E+04 -1.81213E+04 -5.89805E+03  7.50561E+03 -7.07752E+03  2.41166E+04  1.41017E+04
  6.88775E+03  3.82075E+04 -3.43892E+04  3.73114E+04 -6.64796E+04  2.34934E+03 -5.91688E+04 -4.48080E+04
 -1.26098E+04 -6.67662E+04  4.17084E+04 -4.85892E+04  6.19367E+04 -2.86078E+03  3.73425E+04  3.47528E+04
 -5.45065E+03  3.98377E+04 -3.25110E+04  1.91007E+04 -3.40156E+04 -3.11704E+03 -2.01501E+04 -1.17574E+04
 -9.67982E+03 -1.57487E+04 -5.64652E+02 -2.00345E+04  8.81493E+03 -2.36281E+04  1.62040E+04 -1.27340E+04
  1.07063E+04  6.40498E+03 -1.12532E+04  1.26545E+04 -2.40185E+04 -7.20191E+03 -8.63492E+03 -3.87133E+04
  2.57656E+04 -4.74702E+04  5.30250E+04 -2.13652E+04  4.94531E+04  2.14145E+04  1.78691E+04  4.77096E+04
 -1.69521E+04  3.72012E+04 -2.83495E+04  2.81247E+03 -1.23082E+04 -2.94806E+04  2.15532E+04 -3.76308E+04
  4.56794E+04 -1.14739E+04  4.14693E+04  2.50250E+04  2.20426E+04  5.21218E+04 -8.23981E+03  5.72114E+04
 -3.62916E+04  3.93468E+04 -4.85519E+04  1.17534E+04 -4.85877E+04 -1.90361E+04 -2.66112E+04 -4.27863E+04
  7.84888E+03 -4.29990E+04  3.44343E+04 -1.76897E+04  3.27581E+04  1.12227E+04  5.47703E+03  2.11080E+04
 -1.40655E+04  9.98904E+03 -1.15261E+04 -7.22815E+03  5.85501E+03 -1.14411E+04  1.90838E+04  5.36778E+03
  1.51247E+04  2.29906E+04 -4.95138E+03  2.74637E+04 -2.39200E+04  1.50888E+04 -3.21574E+04 -2.38736E+03
 -2.62065E+04 -1.87494E+04 -1.31028E+04 -2.63347E+04  4.57674E+03 -2.70519E+04  2.06465E+04 -2.43454E+04
  3.37495E+04 -1.48563E+04  3.94932E+04  5.77276E+03  2.76893E+04  2.51334E+04  4.50599E+03  4.23811E+04
 -1.99916E+04  3.45538E+04 -3.10298E+04  1.23505E+04 -2.26334E+04 -9.76518E+03 -5.17747E+03 -1.29898E+04
  6.97545E+02 -6.53385E+02 -8.05806E+03  8.90515E+03 -2.11043E+04  4.91604E+03 -2.09859E+04 -1.00420E+04
 -1.25253E+04 -2.47083E+04  6.09385E+03 -2.90593E+04  1.93298E+04 -2.03971E+04  2.34846E+04 -1.97871E+03
  1.54031E+04  1.68705E+04 -1.64455E+03  2.40915E+04 -1.69728E+04  1.41483E+04 -2.47561E+04 -5.13820E+03
 -1.81702E+04 -2.21851E+04 -2.33282E+03 -2.91524E+04  1.29169E+04 -2.43713E+04  2.37653E+04 -1.28052E+04
  2.29526E+04 -2.94001E+02  1.67769E+04  5.37935E+03  8.97644E+03  1.67848E+03  1.30664E+04 -2.39070E+03
  2.27723E+04  2.89342E+03  2.64188E+04  1.92111E+04  1.83361E+04  3.94604E+04 -2.68929E+03  4.61526E+04
 -2.63915E+04  3.86868E+04 -4.40061E+04  1.98362E+04 -4.67804E+04 -3.13179E+03 -3.80832E+04 -2.74230E+04
 -1.48098E+04 -3.91243E+04  1.39080E+04 -3.42866E+04  2.91157E+04 -1.59603E+04  2.54508E+04  8.36449E+03
  8.68629E+03  1.92388E+04 -1.24350E+04  1.65667E+04 -2.11823E+04  2.60086E+03 -1.59480E+04 -1.33192E+04
 -5.57617E+02 -2.02185E+04  1.08047E+04 -1.48125E+04  1.38564E+04 -1.23902E+03  3.78156E+03  9.07990E+03
 -9.14915E+03  4.42600E+03 -9.96334E+03 -7.34600E+03 -2.68648E+03 -1.92918E+04  1.25430E+04 -2.10761E+04
  2.44953E+04 -1.21756E+04  2.78589E+04  3.13271E+03  2.49530E+04  1.95424E+04  1.11037E+04  3.11404E+04
 -6.02129E+03  3.28592E+04 -2.15444E+04  2.10572E+04 -2.41582E+04  3.65855E+03 -1.64540E+04 -6.47770E+03
 -6.54795E+03 -7.71345E+03 -4.77576E+02  4.99475E+02 -3.04997E+03  3.48979E+03 -7.74432E+03  5.88405E+03
 -1.53560E+04 -8.40087E+02 -1.56142E+04 -1.22028E+04 -6.10567E+03 -2.03749E+04  6.78316E+03 -1.65709E+04
  1.33834E+04 -6.80039E+03  9.61630E+03  4.60278E+03 -3.39345E+02  6.67083E+03 -8.26052E+03 -4.69220E+02
 -8.22236E+03 -1.07148E+04 -1.18010E+03 -1.65933E+04  9.50652E+03 -1.69535E+04  2.13174E+04 -9.26506E+03
  2.50659E+04  2.33985E+03  1.84394E+04  1.52310E+04  3.33311E+03  2.00482E+04 -1.03987E+04  1.65833E+04
 -1.31335E+04  4.94300E+03 -6.64531E+03 -3.89684E+03  2.48905E+03 -4.89814E+03  8.53963E+03 -8.72654E+02
  7.64527E+03  7.54304E+03  1.04063E+03  1.32830E+04 -1.00462E+04  1.28722E+04 -1.67232E+04  2.72259E+03
 -1.15407E+04 -9.34232E+03  2.18293E+02 -1.40880E+04  9.40397E+03 -7.39212E+03  9.92748E+03  3.55161E+03
  2.41382E+03  1.09738E+04 -8.63055E+03  1.25189E+04 -1.48490E+04  5.51112E+03 -1.48555E+04 -5.64731E+03
 -8.48414E+03 -1.66614E+04  4.56614E+03 -1.96958E+04  1.65430E+04 -1.16016E+04  1.79585E+04  2.88556E+03
  1.09053E+04  1.45137E+04 -1.88183E+03  1.68222E+04 -1.26195E+04  8.97746E+03 -1.38233E+04 -1.45220E+03
 -1.12168E+04 -1.11156E+04 -2.00661E+03 -1.30935E+04  6.61234E+03 -1.04996E+04  7.95036E+03 -3.45595E+03
  5.17548E+03  2.37410E+03 -1.44933E+03  2.19259E+03 -3.90971E+02 -3.95827E+03  2.91992E+03 -8.13285E+03
  1.25607E+04 -5.06686E+03  1.72994E+04  2.26868E+03  1.68373E+04  1.25080E+04  1.10881E+04  2.24887E+04
 -5.22329E+03  2.60730E+04 -2.11337E+04  1.94041E+04 -2.77591E+04  3.73003E+03 -2.23695E+04 -1.00700E+04
 -1.08973E+04 -1.82320E+04 -4.72590E+02 -1.58530E+04  5.82276E+03 -8.84318E+03  5.69092E+03 -6.04172E+03
  4.12165E+03 -3.32202E+03  4.10533E+03 -3.85078E+03  6.16446E+03 -4.19513E+03  8.88994E+03 -1.81852E+03
  1.16542E+04  2.96140E+03  6.47621E+03  1.02345E+04 -1.97346E+03  1.19290E+04 -1.25602E+04  9.26603E+03
 -1.59383E+04 -1.53953E+03 -1.05255E+04 -1.05905E+04 -1.52746E+03 -1.72102E+04  9.42105E+03 -1.71835E+04
  1.81403E+04 -9.41586E+03  2.11626E+04  2.94162E+03  1.44669E+04  1.46648E+04  2.46983E+03  1.89526E+04
 -8.31568E+03  1.53661E+04 -1.08026E+04  5.12913E+03 -7.91928E+03 -1.52323E+03 -2.88959E+03 -2.38342E+03
 -1.60224E+03 -3.00249E+02 -2.37578E+03  2.85913E+03 -6.58921E+03  2.53989E+03 -1.09248E+04 -1.67999E+03
 -8.01751E+03 -1.11070E+04 -1.73996E+02 -1.53457E+04  9.64544E+03 -1.46727E+04  1.59145E+04 -4.40925E+03
  1.56187E+04  7.59471E+03  7.47995E+03  1.45218E+04 -3.22533E+03  1.55479E+04 -1.16187E+04  1.03426E+04
 -1.51288E+04  6.45481E+02 -1.14438E+04 -9.56596E+03 -1.13819E+03 -1.33640E+04  6.84280E+03 -1.01257E+04
  9.97540E+03 -3.27233E+03  6.57852E+03  2.75213E+03  2.69305E+03  4.86061E+03  1.31550E+03  1.77796E+03
  2.96445E+03  1.20833E+03  3.76108E+03  1.70437E+03  4.54533E+03  5.47702E+03  4.20267E+03  8.95886E+03
 -3.24534E+03  1.27120E+04 -1.14123E+04  1.25583E+04 -1.71331E+04  3.45293E+03 -1.71414E+04 -7.10202E+03
 -8.24665E+03 -1.66031E+04  2.29413E+03 -1.78651E+04  9.98312E+03 -1.12882E+04  1.35239E+04 -2.77930E+03
  1.02796E+04  6.27443E+03  2.54394E+03  9.72212E+03 -4.47037E+03  6.14452E+03 -6.60897E+03 -1.16335E+03
 -3.43286E+03 -7.06015E+03  3.63675E+03 -7.10081E+03  6.85534E+03 -3.51474E+03  6.47967E+03  1.09693E+03
  3.76493E+03  3.92748E+03  1.62844E+03  2.67883E+03 -1.09787E+03  2.35839E+03  1.88828E+03 -8.38133E+02
  2.59430E+03 -9.11703E+02  6.92359E+03  2.53673E+03  3.81045E+03  8.21274E+03 -1.29352E+03  1.16057E+04
 -7.99692E+03  7.68286E+03 -1.05136E+04  2.09759E+03 -9.50530E+03 -3.85519E+03 -3.35215E+03 -6.72051E+03
  1.04368E+03 -6.19529E+03  4.06892E+03 -2.77670E+03  3.55826E+03  3.38917E+03 -1.42003E+03  5.27308E+03
 -6.33291E+03  3.24242E+03 -7.66334E+03 -3.85994E+03 -4.43818E+03 -8.96387E+03  1.52274E+03 -9.02153E+03
  5.72604E+03 -5.72607E+03  6.83419E+03 -9.80637E+02  5.22276E+03  2.54689E+03  5.07453E+02  5.13623E+03
 -3.02174E+03  1.21845E+03 -4.00537E+03 -3.54415E+03  1.23615E+03 -7.16265E+03  7.76608E+03 -5.66149E+03
  1.04672E+04  9.30638E+02  1.04516E+04  7.33715E+03  3.19075E+03  1.10145E+04 -3.95716E+03  1.06809E+04
 -8.84110E+03  4.45539E+03 -9.61523E+03 -1.37672E+03 -5.05418E+03 -6.64466E+03  1.45570E+03 -6.37583E+03
  6.83637E+03 -2.86843E+03  5.62812E+03  2.91638E+03  1.75196E+03  5.78766E+03 -1.08934E+03  5.06235E+03
 -2.95546E+03  3.05313E+03 -2.52917E+03  1.49600E+03 -1.51684E+03  7.60716E+02 -1.58615E+03  2.27623E+03
 -3.04989E+03  3.90646E+03 -7.40499E+03  3.68688E+03 -1.09870E+04 -2.06822E+02 -1.24949E+04 -7.17266E+03
 -6.74733E+03 -1.47759E+04  2.84812E+03 -1.68050E+04  1.10058E+04 -1.29465E+04  1.58701E+04 -4.89934E+03
  1.49289E+04  2.88974E+03  9.27819E+03  1.02786E+04  1.47389E+03  1.13193E+04 -4.65854E+03  8.65415E+03
 -6.62799E+03  2.99752E+03 -3.91441E+03 -1.31432E+03 -1.12252E+03 -6.79357E+02 -1.11079E+03  1.70403E+02
 -1.86478E+03  2.50227E+02 -2.55674E+03 -3.82191E+02 -8.38936E+02 -2.59603E+03  5.18005E+01 -4.52216E+03
  5.14188E+03 -3.40253E+03  6.75378E+03  3.03326E+02  7.83716E+03  6.87295E+03  2.09330E+03  1.10106E+04
 -5.40396E+03  1.31735E+04 -1.19643E+04  7.59101E+03 -1.41201E+04 -7.00190E+02 -1.05050E+04 -8.43866E+03
 -4.45643E+03 -1.12750E+04  2.84371E+03 -1.10457E+04  7.47982E+03 -6.11809E+03  7.43943E+03  5.60419E+02
  3.97468E+03  3.76779E+03 -2.33930E+02  2.88020E+03 -1.89571E+03 -2.38420E+02  1.31647E+02 -2.72147E+03
  3.59658E+03 -1.51174E+03  4.83883E+03  1.62289E+03  3.55702E+03  4.25600E+03 -1.50277E+02  5.86805E+03
 -5.41844E+03  5.01886E+03 -7.88505E+03  9.12372E+02 -6.89432E+03 -5.41079E+03 -8.76030E+02 -9.47691E+03
  5.39649E+03 -7.89639E+03  8.93347E+03 -2.41552E+03  8.77453E+03  2.05658E+03  5.13388E+03  7.38010E+03
  1.10375E+03  7.99808E+03 -2.78388E+03  6.14686E+03 -4.90641E+03  3.66796E+03 -3.98843E+03  4.77295E+02
 -1.96186E+03 -6.27359E+02 -2.10105E+03  1.08469E+03 -4.30981E+03  1.26342E+03 -6.01884E+03 -1.05406E+03
 -5.56064E+03 -4.16325E+03 -1.71265E+03 -7.42480E+03  3.15782E+03 -7.93884E+03  6.57313E+03 -3.89699E+03
  7.02407E+03  7.48863E+02  4.48926E+03  5.45009E+03 -4.43429E+02  7.70320E+03 -5.66369E+03  5.02141E+03
