 $NMID ID='MM_0lb_SNR800_18hz_g40_82.RAW', FMTDAT='(8E13.5)'
 TRAMP=1., VOLUME=1. $END
  3.09724E+05  5.80657E+02  3.37423E+05  2.50304E+05  8.44242E+04  3.37131E+05 -1.32413E+05  2.50237E+05
 -1.89586E+05  8.22470E+04 -1.11037E+05 -3.27778E+04  1.47972E+03 -5.00902E+04  5.38804E+04  4.17676E+02
  3.50543E+04  5.29267E+04 -1.70419E+04  7.47902E+04 -6.02514E+04  6.27131E+04 -8.28241E+04  3.16244E+04
 -7.94841E+04 -1.12208E+04 -5.64337E+04 -4.99048E+04 -1.50339E+04 -6.79434E+04  2.66662E+04 -4.45864E+04
  3.89090E+04  3.98912E+03  1.53944E+04  4.71966E+04 -3.38666E+04  4.60989E+04 -6.51135E+04 -3.43106E+02
 -5.20388E+04 -5.59554E+04 -6.27825E+03 -7.49750E+04  3.28762E+04 -5.30628E+04  4.59388E+04 -1.59329E+04
  4.13318E+04  1.12709E+04  3.07860E+04  2.43003E+04  1.57532E+04  2.80220E+04 -4.60642E+03  2.65581E+04
 -2.15951E+04  1.25602E+04 -1.91134E+04 -4.16398E+03  4.28751E+03 -7.49238E+03  2.11848E+04  1.06038E+04
  7.53962E+03  3.30515E+04 -3.01181E+04  3.37324E+04 -6.08713E+04  2.25793E+03 -5.50410E+04 -4.11618E+04
 -1.24201E+04 -6.04341E+04  3.76648E+04 -4.29660E+04  5.51814E+04 -1.81935E+03  3.16982E+04  3.03840E+04
 -6.47610E+03  3.22915E+04 -2.81696E+04  1.33262E+04 -2.72491E+04 -5.52390E+03 -1.42718E+04 -9.79046E+03
 -6.97401E+03 -1.11219E+04 -1.02954E+03 -1.65839E+04  6.39918E+03 -2.25714E+04  1.48418E+04 -1.39699E+04
  1.22586E+04  4.19240E+03 -6.16503E+03  1.33182E+04 -1.91251E+04 -2.38329E+03 -7.95743E+03 -2.98195E+04
  2.07167E+04 -4.01962E+04  4.44528E+04 -1.85131E+04  4.17098E+04  1.83000E+04  1.44069E+04  4.16140E+04
 -1.52074E+04  3.11265E+04 -2.29985E+04  8.68801E+02 -8.20882E+03 -2.62730E+04  2.03270E+04 -3.10801E+04
  3.76560E+04 -7.05044E+03  3.10795E+04  2.24812E+04  1.50957E+04  4.20828E+04 -7.69075E+03  4.47955E+04
 -2.82022E+04  2.97982E+04 -3.68472E+04  8.35539E+03 -3.79530E+04 -1.52203E+04 -2.09876E+04 -3.42338E+04
  6.61278E+03 -3.36996E+04  2.91259E+04 -1.27297E+04  2.64671E+04  1.07096E+04  2.91190E+03  1.78571E+04
 -1.30482E+04  7.08154E+03 -9.50533E+03 -7.70331E+03  5.68125E+03 -1.00496E+04  1.75183E+04  6.41648E+03
  1.21524E+04  2.17727E+04 -6.68034E+03  2.31945E+04 -2.11636E+04  9.29719E+03 -2.48982E+04 -6.25292E+03
 -1.63668E+04 -1.63227E+04 -5.63249E+03 -1.63528E+04  3.71862E+03 -1.44726E+04  1.24561E+04 -1.42202E+04
  2.07977E+04 -1.16759E+04  2.76664E+04  1.30015E+03  2.12704E+04  1.60226E+04  3.89871E+03  3.19960E+04
 -1.62418E+04  2.71594E+04 -2.58296E+04  9.16071E+03 -1.94771E+04 -1.04771E+04 -4.21877E+03 -1.41041E+04
  2.79022E+03 -4.23799E+03 -2.55879E+03  5.24681E+03 -1.28964E+04  5.31636E+03 -1.33224E+04 -4.69675E+03
 -8.81200E+03 -1.52857E+04  4.46684E+03 -1.90657E+04  1.23544E+04 -1.38609E+04  1.46457E+04 -1.32294E+03
  8.72322E+03  1.06265E+04 -8.13100E+02  1.56384E+04 -1.03196E+04  8.50218E+03 -1.52355E+04 -3.36402E+03
 -1.15399E+04 -1.39970E+04 -1.20560E+03 -1.88248E+04  8.76151E+03 -1.52870E+04  1.59647E+04 -7.14234E+03
  1.44020E+04  1.00178E+03  1.03119E+04  4.00046E+03  5.06342E+03  2.95623E+02  7.32269E+03 -9.55004E+02
  1.37143E+04  2.46488E+03  1.44743E+04  1.24091E+04  8.81805E+03  2.45664E+04 -3.11952E+03  2.64260E+04
 -1.54823E+04  1.99795E+04 -2.44557E+04  9.59090E+03 -2.44450E+04 -1.53815E+03 -2.10820E+04 -1.40676E+04
 -1.01096E+04 -2.03078E+04  6.44047E+03 -1.87135E+04  1.62158E+04 -1.06536E+04  1.53044E+04  3.67435E+03
  6.75003E+03  1.11532E+04 -6.94711E+03  1.01336E+04 -1.30497E+04  2.76421E+03 -1.01415E+04 -7.77627E+03
 -3.10233E+02 -1.21886E+04  5.96948E+03 -9.26796E+03  8.01453E+03 -1.11527E+03  1.24493E+03  4.87599E+03
 -5.42896E+03  1.08625E+03 -3.47174E+03 -4.68126E+03  5.41867E+02 -1.00880E+04  7.55549E+03 -1.01962E+04
  1.20058E+04 -4.47074E+03  1.19100E+04  2.77359E+03  1.01380E+04  9.49798E+03  4.96360E+03  1.39088E+04
 -1.56908E+03  1.55744E+04 -9.42761E+03  1.02340E+04 -1.10300E+04  3.02378E+03 -8.15913E+03 -1.78888E+03
 -4.38457E+03 -3.11436E+03 -8.40841E+02  1.53812E+03 -1.89210E+03  2.02258E+03 -3.50978E+03  3.70657E+03
 -7.94625E+03 -6.28537E+02 -8.70598E+03 -7.16588E+03 -3.60844E+03 -1.16795E+04  3.63431E+03 -8.35042E+03
  7.04406E+03 -3.65705E+03  5.42621E+03  2.20572E+03  5.13406E+02  2.89091E+03 -3.22879E+03 -6.97521E+01
 -3.16847E+03 -4.97519E+03 -7.96801E+02 -7.02488E+03  3.52105E+03 -7.59428E+03  9.84977E+03 -3.92853E+03
  1.17772E+04  7.10704E+02  8.79305E+03  6.19905E+03  1.87269E+03  8.63459E+03 -5.18759E+03  8.12811E+03
 -7.10846E+03  2.71976E+03 -3.88885E+03 -1.17319E+03  1.33609E+03 -2.03241E+03  4.82096E+03 -1.11207E+03
  4.18795E+03  3.53079E+03  8.63049E+02  6.29796E+03 -4.55966E+03  6.70709E+03 -7.83093E+03  1.77725E+03
 -4.72003E+03 -3.62823E+03  3.34608E+02 -6.62007E+03  3.82746E+03 -3.12733E+03  3.60411E+03  1.11484E+03
  3.27024E+02  3.49444E+03 -4.15628E+03  4.78318E+03 -4.78364E+03  2.58392E+03 -4.78125E+03 -1.31497E+03
 -3.12252E+03 -5.70999E+03  1.38874E+03 -7.12506E+03  6.23651E+03 -4.75336E+03  6.53994E+03  9.27806E+02
  4.58953E+03  5.50013E+03  8.38601E+01  7.32109E+03 -4.93533E+03  4.18898E+03 -5.25805E+03 -5.03360E+02
 -5.76314E+03 -5.18255E+03 -1.23539E+03 -4.95708E+03  2.32623E+03 -4.54776E+03  2.56784E+03 -3.07964E+03
  2.55595E+03  3.30292E+02  1.62876E+02  1.40952E+03  5.05963E+02 -1.66922E+02  8.94877E+01 -1.92052E+03
  3.93711E+03 -8.83443E+02  5.30714E+03  7.64905E+02  5.63759E+03  3.17314E+03  5.27042E+03  7.19995E+03
 -1.15295E+03  8.61335E+03 -7.92673E+03  6.50127E+03 -1.01536E+04  1.14491E+03 -7.79852E+03 -2.70534E+03
 -4.28088E+03 -6.53670E+03 -4.71464E+02 -5.04444E+03  1.95344E+03 -2.27921E+03  1.67200E+03 -2.04307E+03
  1.23025E+03 -1.39398E+03  2.19040E+03 -2.55157E+03  3.50861E+03 -1.44915E+03  3.64871E+03  4.07247E+02
  4.55538E+03  1.00480E+03  1.09767E+03  3.35689E+03 -1.30181E+03  2.86408E+03 -4.21610E+03  2.87030E+03
 -5.09807E+03 -1.04415E+03 -2.05489E+03 -3.55669E+03  4.14731E+02 -5.01350E+03  3.36967E+03 -5.52097E+03
  5.23475E+03 -3.29981E+03  6.70844E+03  3.57883E+00  5.12227E+03  4.26163E+03  1.18401E+03  6.18136E+03
 -1.99632E+03  5.67319E+03 -3.58407E+03  1.73928E+03 -1.98412E+03 -9.15437E+02 -2.63822E+02 -5.87827E+02
 -4.53092E+02  3.56388E+02 -1.08119E+03  1.95597E+03 -2.33530E+03  9.95527E+02 -4.08846E+03 -5.87621E+02
 -1.68823E+03 -4.15436E+03  9.90688E+02 -5.08551E+03  2.66464E+03 -4.50011E+03  3.45317E+03 -1.10474E+03
  3.87209E+03  2.69748E+03  1.76677E+03  3.54209E+03 -6.65251E+02  4.37655E+03 -2.86353E+03  2.66871E+03
 -3.87792E+03  5.73594E+02 -3.43344E+03 -2.36512E+03  6.22456E+01 -3.36481E+03  1.68069E+03 -2.49597E+03
  2.87374E+03 -1.33607E+03  2.01584E+03  4.15011E+02  6.08256E+02  1.64127E+03  6.83137E+02  4.72525E+02
  1.61919E+03  6.93130E+02  1.09735E+03  8.52756E+02  1.42617E+03  2.45692E+03  1.27358E+03  1.60285E+03
 -1.37291E+03  2.85678E+03 -2.68403E+03  4.15133E+03 -3.24718E+03  1.48816E+03 -4.15564E+03 -4.79796E+02
 -1.90332E+03 -3.79406E+03  7.01665E+02 -4.98292E+03  2.15074E+03 -2.30301E+03  3.04845E+03 -1.24420E+03
  2.82433E+03  1.91403E+03  1.72200E+02  2.54402E+03 -8.69400E+02  1.22728E+03 -1.27901E+03 -3.80544E+01
 -7.31475E+02 -1.47433E+03  1.11355E+03 -1.57823E+03  1.32266E+03 -8.83279E+02  1.63467E+03  3.18425E+02
  5.90876E+02  2.77465E+02  6.73019E+02 -3.63353E+02 -2.68230E+02  5.63556E+02  1.70693E+03 -1.57459E+02
 -2.07140E+02 -1.09669E+02  1.89697E+03  7.49132E+02 -1.33993E+01  2.50988E+03 -4.77030E+02  3.15124E+03
 -1.46031E+03  1.18442E+03 -2.41381E+03  3.76159E+02 -2.05419E+03 -7.86407E+02  1.35696E+02 -1.07843E+03
  4.70906E+02 -1.34085E+03  1.08838E+03 -6.33127E+02  8.39041E+02  1.22458E+03 -6.87507E+02  1.35170E+03
 -1.66418E+03  5.52914E+02 -1.34088E+03 -1.18374E+03 -7.56334E+02 -2.39303E+03  2.52536E+02 -1.67685E+03
  5.61219E+02 -6.84224E+02  8.20349E+02  7.72030E+01  1.44500E+03 -2.67858E+02  2.64257E+02  1.24096E+03
 -3.97803E+02  1.93879E+02 -1.05388E+03 -2.33374E+02  3.88053E+02 -9.35937E+02  2.14491E+03 -9.56820E+02
  1.45405E+03  1.76180E+02  2.77267E+03  8.21282E+02  1.21693E+03  1.68203E+03 -3.41055E+02  1.83359E+03
 -1.64570E+03  5.11239E+02 -1.60964E+03  4.24526E+01 -9.71724E+02 -1.29315E+03  4.38314E+02 -7.97714E+02
  1.53779E+03 -7.02093E+02  7.62703E+02  4.12103E+02  1.77926E+02  1.52862E+03  3.40672E+02  1.08789E+03
 -2.48280E+02  1.15482E+03 -3.59439E+02  2.79238E+02 -1.18641E+02  2.65729E+02 -9.36497E+02  6.18971E+02
 -7.98297E+02  1.05401E+03 -1.81063E+03  6.24852E+02 -1.82639E+03  2.57883E+02 -2.59667E+03 -1.04007E+03
 -1.14150E+03 -2.50032E+03  3.54664E+02 -3.43385E+03  1.29585E+03 -2.56505E+03  3.02641E+03 -7.64543E+02
  2.90707E+03  1.45055E+02  1.15961E+03  1.96662E+03 -5.50711E+02  1.69419E+03 -8.81667E+02  1.26223E+03
 -1.08131E+03  6.75221E+02 -3.60582E+02 -3.14648E+02 -2.25258E+02  2.40033E+02 -6.64298E+02  7.98139E+01
 -1.02316E+03 -6.45397E+01 -1.01025E+03 -4.00921E+01  1.43677E+02 -6.30580E+02 -2.17880E+02 -7.70983E+02
  1.15093E+03 -6.76228E+02  6.62666E+02  1.03906E+02  1.42639E+03  1.24533E+03 -3.93933E+02  1.54266E+03
 -1.15552E+03  2.45110E+03 -1.94426E+03  1.38079E+03 -2.14022E+03 -1.18216E+02 -1.46045E+03 -1.45214E+03
 -9.75555E+02 -1.31992E+03  2.14593E+02 -1.59098E+03  5.82100E+02 -3.84019E+02  8.60659E+02  1.85845E+02
  5.98957E+02  3.90446E+02  1.55132E+02  4.13497E+02 -5.87111E+02 -3.81765E+02 -5.96342E+01 -3.11733E+02
  4.69621E+02  1.92649E+02  4.84217E+02  2.50962E+02  1.32885E+02  6.55321E+02  5.06777E+02  2.51946E+02
 -8.51579E+02  6.95389E+02 -8.02850E+02 -8.11899E+01 -9.73641E+02 -7.84137E+02 -1.87244E+02 -1.15398E+03
  7.05301E+02 -9.82923E+02  6.40160E+02 -2.88144E+01  1.24072E+03 -5.07833E+02  5.06064E+02  8.90746E+02
  3.18100E+02  8.75498E+02 -2.95295E+02  7.23301E+02 -3.92209E+02  6.01532E+02 -2.67901E+02  4.23707E+02
 -8.49490E+01  1.36609E+02 -4.05485E+02  2.01307E+02 -8.09942E+02  5.05594E+02 -6.76798E+02 -3.11824E+02
 -1.51493E+03  2.32393E+02 -1.81214E+02 -1.05397E+03  9.32104E+02 -1.66976E+03  9.42072E+02 -2.03644E+02
  1.10765E+03 -2.00984E+02 -1.66492E+02  2.33255E+02 -7.77954E+01  9.73988E+02 -7.40043E+02  7.87046E+02
