 $NMID ID='MM_0lb_SNR800_9hz_g40_2.RAW', FMTDAT='(8E13.5)'
 TRAMP=1., VOLUME=1. $END
  3.10038E+05  1.86806E+02  3.38202E+05  2.50836E+05  8.48240E+04  3.38343E+05 -1.32779E+05  2.51887E+05
 -1.90852E+05  8.37407E+04 -1.12279E+05 -3.24236E+04  4.48108E+02 -5.10625E+04  5.39857E+04 -4.84727E+02
  3.53981E+04  5.30478E+04 -1.68857E+04  7.57092E+04 -6.13578E+04  6.39439E+04 -8.48708E+04  3.24764E+04
 -8.21130E+04 -1.14534E+04 -5.80772E+04 -5.22058E+04 -1.50391E+04 -7.09964E+04  2.80529E+04 -4.64618E+04
  4.11524E+04  3.39179E+03  1.66319E+04  4.85988E+04 -3.47388E+04  4.80508E+04 -6.79329E+04  7.56282E+00
 -5.41265E+04 -5.76454E+04 -7.24959E+03 -7.90164E+04  3.45364E+04 -5.69223E+04  4.93851E+04 -1.79717E+04
  4.48922E+04  1.16038E+04  3.25078E+04  2.63624E+04  1.61945E+04  3.03095E+04 -5.74044E+03  2.75934E+04
 -2.23183E+04  1.18970E+04 -1.82777E+04 -5.56347E+03  6.93329E+03 -7.26147E+03  2.32983E+04  1.36151E+04
  7.32038E+03  3.65433E+04 -3.32174E+04  3.69335E+04 -6.55246E+04  1.76543E+03 -5.83848E+04 -4.41168E+04
 -1.24812E+04 -6.52531E+04  4.14697E+04 -4.71756E+04  6.02930E+04 -2.80853E+03  3.66112E+04  3.38899E+04
 -5.62536E+03  3.84223E+04 -3.14674E+04  1.82906E+04 -3.23465E+04 -4.07868E+03 -1.87162E+04 -1.17937E+04
 -9.12225E+03 -1.50030E+04 -6.79732E+02 -1.92262E+04  8.25089E+03 -2.35603E+04  1.53898E+04 -1.28875E+04
  1.05917E+04  6.08493E+03 -1.00722E+04  1.31251E+04 -2.32444E+04 -5.96870E+03 -8.72974E+03 -3.69853E+04
  2.48710E+04 -4.63618E+04  5.14454E+04 -2.03706E+04  4.82033E+04  2.07862E+04  1.68338E+04  4.64930E+04
 -1.62662E+04  3.56556E+04 -2.73415E+04  2.75371E+03 -1.10681E+04 -2.94290E+04  2.13489E+04 -3.65841E+04
  4.38116E+04 -1.08607E+04  3.94016E+04  2.49018E+04  2.06972E+04  5.03049E+04 -8.36691E+03  5.49040E+04
 -3.46426E+04  3.73391E+04 -4.62869E+04  1.07703E+04 -4.67290E+04 -1.79835E+04 -2.56411E+04 -4.13524E+04
  7.62518E+03 -4.17526E+04  3.36068E+04 -1.69435E+04  3.16003E+04  1.09567E+04  4.98203E+03  2.07195E+04
 -1.36917E+04  9.40986E+03 -1.15144E+04 -7.57917E+03  5.83456E+03 -1.11236E+04  1.86024E+04  5.55488E+03
  1.44987E+04  2.24707E+04 -5.58837E+03  2.65566E+04 -2.27738E+04  1.35364E+04 -3.06295E+04 -3.35929E+03
 -2.43302E+04 -1.83203E+04 -1.08680E+04 -2.44655E+04  4.23172E+03 -2.46051E+04  1.93994E+04 -2.19682E+04
  3.08429E+04 -1.38765E+04  3.69589E+04  4.96463E+03  2.64289E+04  2.32927E+04  4.09543E+03  4.02436E+04
 -1.93801E+04  3.32467E+04 -3.04212E+04  1.14633E+04 -2.17909E+04 -1.01873E+04 -4.58104E+03 -1.30410E+04
  9.30013E+02 -1.35870E+03 -7.06768E+03  8.12874E+03 -1.91552E+04  4.94906E+03 -1.90781E+04 -9.12025E+03
 -1.16693E+04 -2.20277E+04  5.46295E+03 -2.70896E+04  1.80136E+04 -1.92773E+04  2.17518E+04 -1.98335E+03
  1.39518E+04  1.57704E+04 -1.33698E+03  2.25773E+04 -1.60316E+04  1.28789E+04 -2.28063E+04 -4.46954E+03
 -1.66386E+04 -2.03088E+04 -2.49704E+03 -2.72035E+04  1.19830E+04 -2.22298E+04  2.23867E+04 -1.15265E+04
  2.10759E+04 -2.95683E+02  1.51750E+04  5.45573E+03  8.40762E+03  1.44420E+03  1.19336E+04 -2.10725E+03
  2.10928E+04  3.20629E+03  2.41368E+04  1.78915E+04  1.62811E+04  3.62054E+04 -2.76132E+03  4.23699E+04
 -2.45105E+04  3.53863E+04 -3.98308E+04  1.83277E+04 -4.26168E+04 -2.87874E+03 -3.50213E+04 -2.49503E+04
 -1.35835E+04 -3.55532E+04  1.23993E+04 -3.13544E+04  2.65233E+04 -1.49161E+04  2.34150E+04  7.25945E+03
  8.01126E+03  1.78890E+04 -1.11965E+04  1.51973E+04 -1.92359E+04  2.97491E+03 -1.46836E+04 -1.20546E+04
 -1.71143E+02 -1.90089E+04  1.00287E+04 -1.38219E+04  1.27548E+04 -1.49384E+03  3.49995E+03  8.29075E+03
 -8.63970E+03  3.39912E+03 -8.48195E+03 -6.62842E+03 -1.31284E+03 -1.74142E+04  1.14486E+04 -1.86684E+04
  2.19310E+04 -1.07266E+04  2.50879E+04  3.20114E+03  2.12518E+04  1.76233E+04  1.01080E+04  2.76227E+04
 -4.98648E+03  2.99996E+04 -1.92822E+04  1.86466E+04 -2.10603E+04  3.87089E+03 -1.43435E+04 -5.25097E+03
 -5.95298E+03 -7.08806E+03 -5.97377E+02  7.99752E+02 -3.02527E+03  3.41070E+03 -6.90878E+03  5.20867E+03
 -1.34151E+04 -1.13987E+03 -1.40970E+04 -1.14828E+04 -5.66938E+03 -1.86719E+04  5.82503E+03 -1.49998E+04
  1.19886E+04 -6.26675E+03  8.69220E+03  4.21899E+03 -2.67652E+02  6.00637E+03 -7.27960E+03 -1.02671E+02
 -7.23651E+03 -9.96968E+03 -9.02972E+02 -1.45704E+04  8.47020E+03 -1.56048E+04  1.92897E+04 -8.51200E+03
  2.22826E+04  2.70118E+03  1.63863E+04  1.35869E+04  3.18425E+03  1.82865E+04 -9.25493E+03  1.47730E+04
 -1.23011E+04  4.55675E+03 -6.47591E+03 -3.31981E+03  1.93094E+03 -4.44624E+03  7.92539E+03 -1.15178E+03
  6.88359E+03  6.66515E+03  1.16225E+03  1.19618E+04 -8.87748E+03  1.16239E+04 -1.49412E+04  3.13330E+03
 -1.02852E+04 -7.90130E+03  1.94316E+02 -1.30242E+04  8.00993E+03 -6.45033E+03  8.91599E+03  3.31115E+03
  2.31780E+03  9.23134E+03 -8.09297E+03  1.10903E+04 -1.34155E+04  5.01061E+03 -1.34531E+04 -4.84101E+03
 -7.41011E+03 -1.46105E+04  3.68682E+03 -1.70675E+04  1.44689E+04 -1.01191E+04  1.57825E+04  2.81925E+03
  9.69747E+03  1.28186E+04 -1.67636E+03  1.50904E+04 -1.09647E+04  8.15333E+03 -1.18780E+04 -1.16635E+03
 -1.02569E+04 -1.00469E+04 -1.75278E+03 -1.12938E+04  5.90196E+03 -8.96979E+03  7.28475E+03 -3.81610E+03
  4.73799E+03  2.12318E+03 -6.97953E+02  1.91871E+03 -7.82135E+02 -3.44511E+03  2.41654E+03 -7.14938E+03
  1.06898E+04 -4.49621E+03  1.49824E+04  1.56638E+03  1.45938E+04  1.04315E+04  9.77210E+03  2.00960E+04
 -4.63188E+03  2.29094E+04 -1.87505E+04  1.66595E+04 -2.43071E+04  3.09103E+03 -1.99233E+04 -8.50897E+03
 -9.83621E+03 -1.61905E+04 -5.72917E+02 -1.40807E+04  4.98891E+03 -7.94349E+03  5.01990E+03 -5.27604E+03
  3.81742E+03 -2.56118E+03  3.87236E+03 -4.01532E+03  5.75510E+03 -3.21766E+03  7.32764E+03 -1.34727E+03
  1.04697E+04  2.18465E+03  5.38290E+03  8.64693E+03 -2.44214E+03  1.04678E+04 -1.09850E+04  8.53661E+03
 -1.36491E+04 -1.41372E+03 -8.67672E+03 -1.02314E+04 -1.16304E+03 -1.47023E+04  8.54858E+03 -1.50104E+04
  1.52377E+04 -8.43735E+03  1.82656E+04  2.58736E+03  1.31177E+04  1.30449E+04  1.85298E+03  1.68573E+04
 -6.81907E+03  1.36307E+04 -9.75541E+03  4.88528E+03 -6.84910E+03 -1.72296E+03 -2.75424E+03 -1.52149E+03
 -1.30898E+03  2.02819E+02 -2.30603E+03  3.41640E+03 -5.88447E+03  2.64136E+03 -9.56316E+03 -1.54699E+03
 -6.88442E+03 -9.79748E+03  1.53948E+02 -1.39552E+04  8.22668E+03 -1.29851E+04  1.36817E+04 -3.95469E+03
  1.33689E+04  6.62977E+03  6.21008E+03  1.25298E+04 -2.77218E+03  1.41163E+04 -9.77327E+03  8.59316E+03
 -1.31971E+04  1.07805E+02 -1.00406E+04 -8.69528E+03 -1.40264E+03 -1.16372E+04  6.01880E+03 -8.64740E+03
  8.83654E+03 -2.97431E+03  6.15440E+03  2.34500E+03  2.16736E+03  4.47282E+03  1.61409E+03  1.80413E+03
  2.81283E+03  1.02890E+03  3.58036E+03  1.83372E+03  4.42489E+03  5.13745E+03  3.92546E+03  7.54724E+03
 -2.99464E+03  1.09977E+04 -9.58443E+03  1.11909E+04 -1.44194E+04  2.85922E+03 -1.47652E+04 -6.10789E+03
 -7.11276E+03 -1.38807E+04  1.79053E+03 -1.54177E+04  8.38544E+03 -9.91008E+03  1.16570E+04 -2.52380E+03
  8.92239E+03  5.35472E+03  2.02240E+03  8.41192E+03 -3.84818E+03  5.16183E+03 -5.51448E+03 -4.85282E+02
 -2.69734E+03 -6.06516E+03  3.31441E+03 -6.21906E+03  5.73254E+03 -2.96436E+03  5.98843E+03  1.37372E+03
  3.30150E+03  3.12382E+03  1.16955E+03  2.36886E+03 -7.98772E+02  1.92173E+03  1.82709E+03 -6.31289E+02
  2.56010E+03 -7.95874E+02  5.93300E+03  2.92318E+03  3.23215E+03  7.58171E+03 -1.52587E+03  9.70880E+03
 -7.34013E+03  6.30498E+03 -9.13290E+03  1.90715E+03 -8.20134E+03 -3.33849E+03 -3.06516E+03 -5.37178E+03
  9.02035E+02 -5.56395E+03  3.57974E+03 -2.79360E+03  3.27590E+03  2.73247E+03 -1.30498E+03  4.43924E+03
 -6.04019E+03  3.03359E+03 -6.51684E+03 -3.47671E+03 -3.60219E+03 -7.48550E+03  1.02250E+03 -8.12414E+03
  4.77420E+03 -4.80708E+03  5.69339E+03 -5.28331E+02  4.85112E+03  2.29207E+03  1.13764E+03  4.11234E+03
 -2.72755E+03  9.96327E+02 -3.63928E+03 -2.26196E+03  1.50023E+03 -5.96245E+03  7.07329E+03 -5.13861E+03
  8.72340E+03  4.96510E+02  9.10213E+03  6.29887E+03  2.42353E+03  9.53242E+03 -3.02813E+03  8.84337E+03
 -7.60000E+03  3.96460E+03 -7.66172E+03 -1.03488E+03 -4.39271E+03 -6.13521E+03  1.58770E+03 -5.86214E+03
  6.11543E+03 -3.04472E+03  4.71815E+03  2.23142E+03  1.72696E+03  5.43180E+03 -8.98990E+02  4.68714E+03
 -2.56364E+03  3.22499E+03 -2.63485E+03  1.09623E+03 -1.00633E+03  1.22608E+03 -1.69122E+03  1.66177E+03
 -2.16357E+03  3.58254E+03 -6.43824E+03  3.21892E+03 -9.17293E+03  4.99078E+02 -1.07388E+04 -6.34616E+03
 -5.09301E+03 -1.24062E+04  2.87979E+03 -1.43135E+04  8.78018E+03 -1.13582E+04  1.37990E+04 -4.60234E+03
  1.26720E+04  2.33051E+03  7.95912E+03  8.34804E+03  8.10257E+02  9.99456E+03 -3.97175E+03  7.21434E+03
 -5.62452E+03  2.83956E+03 -3.53735E+03 -1.24274E+03 -1.28459E+03 -7.23063E+02 -7.05094E+02 -7.95757E+01
 -1.89871E+03  6.72798E+01 -2.64712E+03 -2.08921E+02 -7.58932E+02 -1.90187E+03 -9.03257E+01 -3.79130E+03
  4.11792E+03 -2.75839E+03  6.30707E+03  2.14627E+02  6.69458E+03  5.14966E+03  1.96481E+03  9.84059E+03
 -4.80838E+03  1.10014E+04 -1.05188E+04  6.55924E+03 -1.18726E+04 -7.87764E+02 -8.89875E+03 -7.53813E+03
 -3.89380E+03 -1.01984E+04  2.54241E+03 -9.30305E+03  6.39453E+03 -5.55504E+03  6.53527E+03  2.25429E+02
  3.62675E+03  3.01367E+03 -5.18161E+02  2.72914E+03 -1.62694E+03 -4.81387E+02 -1.21580E+02 -2.52504E+03
  2.86468E+03 -1.38782E+03  4.11688E+03  1.56218E+03  2.72151E+03  3.98957E+03  3.30471E+00  5.03692E+03
 -4.78705E+03  4.40774E+03 -6.72630E+03  4.87431E+02 -5.80738E+03 -4.73146E+03 -1.03084E+03 -7.88307E+03
  4.30234E+03 -7.23678E+03  7.07941E+03 -2.12101E+03  7.59443E+03  2.16896E+03  4.67200E+03  6.01779E+03
  1.00611E+03  6.50993E+03 -2.40389E+03  5.39263E+03 -4.50810E+03  2.88416E+03 -3.45949E+03  7.62636E+01
 -1.82361E+03 -2.23224E+01 -2.01130E+03  1.25749E+03 -3.74516E+03  1.14224E+03 -5.36514E+03 -1.12835E+03
 -4.72202E+03 -3.03308E+03 -1.25467E+03 -6.73749E+03  3.12247E+03 -6.99974E+03  6.30130E+03 -3.41026E+03
  6.78271E+03  1.05968E+03  3.38917E+03  4.82801E+03 -1.18327E+02  6.36434E+03 -5.19818E+03  4.28657E+03
