 $NMID ID='MM_0lb_SNR800_8hz_g60_88.RAW', FMTDAT='(8E13.5)'
 TRAMP=1., VOLUME=1. $END
  3.09749E+05  5.01897E+02  3.37909E+05  2.51164E+05  8.46173E+04  3.38346E+05 -1.32810E+05  2.51661E+05
 -1.91325E+05  8.43894E+04 -1.12848E+05 -3.19033E+04  3.17218E+02 -5.08089E+04  5.35753E+04 -5.12464E+02
  3.52369E+04  5.27551E+04 -1.64375E+04  7.60910E+04 -6.13628E+04  6.51035E+04 -8.55381E+04  3.25685E+04
 -8.32815E+04 -1.20456E+04 -5.91774E+04 -5.24690E+04 -1.49792E+04 -7.19068E+04  2.83578E+04 -4.71845E+04
  4.12798E+04  3.83507E+03  1.69424E+04  4.90214E+04 -3.48059E+04  4.84907E+04 -6.82851E+04 -1.49585E+02
 -5.53105E+04 -5.82006E+04 -7.65800E+03 -7.99697E+04  3.47800E+04 -5.77698E+04  5.03803E+04 -1.87012E+04
  4.61119E+04  1.17159E+04  3.37283E+04  2.70594E+04  1.61169E+04  3.12318E+04 -6.32451E+03  2.81798E+04
 -2.26869E+04  1.18366E+04 -1.80575E+04 -6.29114E+03  7.29631E+03 -7.27978E+03  2.37692E+04  1.43409E+04
  7.07239E+03  3.82528E+04 -3.45084E+04  3.78870E+04 -6.68397E+04  2.20699E+03 -5.97294E+04 -4.50539E+04
 -1.27817E+04 -6.67645E+04  4.22223E+04 -4.84421E+04  6.25352E+04 -2.49434E+03  3.75396E+04  3.57285E+04
 -5.18919E+03  4.10465E+04 -3.27838E+04  2.00724E+04 -3.44178E+04 -3.20008E+03 -2.04268E+04 -1.25533E+04
 -9.89008E+03 -1.59847E+04 -6.84952E+02 -2.06171E+04  9.00083E+03 -2.41255E+04  1.62278E+04 -1.27280E+04
  1.00519E+04  6.98288E+03 -1.15040E+04  1.27667E+04 -2.44128E+04 -7.54562E+03 -8.45282E+03 -3.88227E+04
  2.60402E+04 -4.80659E+04  5.38595E+04 -2.17757E+04  5.00693E+04  2.09412E+04  1.78689E+04  4.81514E+04
 -1.66213E+04  3.71225E+04 -2.86359E+04  2.93803E+03 -1.24991E+04 -3.04053E+04  2.21796E+04 -3.80433E+04
  4.63249E+04 -1.23967E+04  4.27302E+04  2.55213E+04  2.29792E+04  5.27360E+04 -8.37374E+03  5.86436E+04
 -3.71351E+04  4.04389E+04 -4.95178E+04  1.17887E+04 -4.99740E+04 -1.93373E+04 -2.77769E+04 -4.38749E+04
  8.14041E+03 -4.37358E+04  3.53149E+04 -1.80424E+04  3.31520E+04  1.14557E+04  5.78468E+03  2.15614E+04
 -1.41002E+04  1.05370E+04 -1.19151E+04 -7.66021E+03  5.75702E+03 -1.16140E+04  1.91628E+04  5.43396E+03
  1.56415E+04  2.28470E+04 -5.01492E+03  2.83313E+04 -2.36450E+04  1.45525E+04 -3.33788E+04 -1.87474E+03
 -2.73895E+04 -1.88563E+04 -1.31771E+04 -2.68846E+04  4.75738E+03 -2.86090E+04  2.09467E+04 -2.50844E+04
  3.49006E+04 -1.50226E+04  4.06404E+04  5.52897E+03  2.89194E+04  2.64463E+04  4.36098E+03  4.33420E+04
 -2.05458E+04  3.55293E+04 -3.18748E+04  1.22088E+04 -2.34611E+04 -1.00953E+04 -5.13691E+03 -1.27108E+04
 -1.72776E+01 -3.24544E+02 -8.74888E+03  9.25896E+03 -2.19900E+04  5.21330E+03 -2.13711E+04 -1.03602E+04
 -1.25844E+04 -2.54578E+04  6.58422E+03 -2.97405E+04  2.03120E+04 -2.12009E+04  2.48533E+04 -1.41138E+03
  1.58752E+04  1.71062E+04 -9.27380E+02  2.50013E+04 -1.77750E+04  1.47545E+04 -2.58053E+04 -5.12566E+03
 -1.87859E+04 -2.26660E+04 -2.26383E+03 -2.96257E+04  1.38683E+04 -2.48430E+04  2.47070E+04 -1.33048E+04
  2.38273E+04 -3.72811E+02  1.73356E+04  5.32274E+03  9.96415E+03  1.90564E+03  1.34374E+04 -1.97935E+03
  2.45771E+04  2.57973E+03  2.81071E+04  1.94204E+04  1.88504E+04  4.07478E+04 -2.42471E+03  4.91085E+04
 -2.79305E+04  4.11560E+04 -4.62176E+04  2.18801E+04 -4.93969E+04 -3.59809E+03 -3.95884E+04 -2.88106E+04
 -1.56237E+04 -4.09920E+04  1.47854E+04 -3.56719E+04  3.08094E+04 -1.61725E+04  2.61226E+04  8.90171E+03
  8.57389E+03  2.03490E+04 -1.29600E+04  1.66308E+04 -2.18222E+04  1.95712E+03 -1.63765E+04 -1.41837E+04
 -5.17175E+02 -2.06761E+04  1.13167E+04 -1.55349E+04  1.44880E+04 -1.40290E+03  3.87752E+03  9.81253E+03
 -9.48665E+03  5.42389E+03 -1.04413E+04 -7.40593E+03 -2.87139E+03 -1.97515E+04  1.24483E+04 -2.19514E+04
  2.59473E+04 -1.25059E+04  3.01470E+04  3.55601E+03  2.62218E+04  2.07431E+04  1.22090E+04  3.31243E+04
 -6.60104E+03  3.50767E+04 -2.32000E+04  2.13829E+04 -2.55530E+04  3.98656E+03 -1.68010E+04 -7.02243E+03
 -7.07417E+03 -8.05223E+03 -1.04113E+03 -1.86222E+02 -2.76992E+03  3.69491E+03 -7.85577E+03  5.86003E+03
 -1.58818E+04 -1.02432E+03 -1.65085E+04 -1.31346E+04 -6.38705E+03 -2.16214E+04  7.20339E+03 -1.77763E+04
  1.44124E+04 -7.39447E+03  9.94040E+03  4.87264E+03 -9.53833E+02  7.66756E+03 -9.04913E+03 -2.80128E+02
 -8.69158E+03 -1.17909E+04 -8.95903E+02 -1.78344E+04  1.04460E+04 -1.84968E+04  2.28129E+04 -9.70157E+03
  2.66056E+04  2.71025E+03  1.93508E+04  1.67656E+04  3.64607E+03  2.16248E+04 -1.10025E+04  1.73561E+04
 -1.42571E+04  5.01610E+03 -7.64535E+03 -4.08176E+03  2.55200E+03 -5.20557E+03  9.24313E+03 -1.08874E+03
  8.22166E+03  7.79567E+03  1.08191E+03  1.43761E+04 -1.00727E+04  1.35246E+04 -1.73663E+04  2.86804E+03
 -1.23633E+04 -9.20029E+03  4.07783E+02 -1.53505E+04  9.82018E+03 -7.49503E+03  1.09228E+04  4.16926E+03
  2.71929E+03  1.19038E+04 -9.29573E+03  1.35578E+04 -1.64857E+04  5.84824E+03 -1.58410E+04 -6.20825E+03
 -9.26744E+03 -1.86329E+04  4.59068E+03 -2.06176E+04  1.78746E+04 -1.27227E+04  1.94880E+04  3.51050E+03
  1.12870E+04  1.54961E+04 -2.28818E+03  1.81907E+04 -1.36684E+04  1.03612E+04 -1.49549E+04 -1.39667E+03
 -1.19539E+04 -1.22688E+04 -2.37252E+03 -1.39177E+04  7.38741E+03 -1.09232E+04  8.83847E+03 -3.45220E+03
  5.33924E+03  2.44482E+03 -1.20636E+03  2.14805E+03 -1.42083E+03 -4.42988E+03  3.44694E+03 -9.01294E+03
  1.38858E+04 -6.14243E+03  1.92799E+04  2.12977E+03  1.81806E+04  1.36282E+04  1.16794E+04  2.42662E+04
 -6.11454E+03  2.77135E+04 -2.34874E+04  2.02383E+04 -3.03918E+04  4.09792E+03 -2.43120E+04 -1.12329E+04
 -1.24519E+04 -1.98839E+04 -3.68579E+02 -1.74394E+04  6.25776E+03 -1.00203E+04  6.70911E+03 -6.59626E+03
  4.65258E+03 -3.52436E+03  4.47819E+03 -4.44121E+03  6.24774E+03 -4.11458E+03  9.06314E+03 -2.04059E+03
  1.23015E+04  2.83254E+03  7.37804E+03  1.07964E+04 -2.33540E+03  1.40133E+04 -1.29246E+04  1.01975E+04
 -1.76286E+04 -1.33461E+03 -1.21533E+04 -1.22877E+04 -2.18154E+03 -1.94162E+04  9.94830E+03 -1.84856E+04
  1.96835E+04 -1.00688E+04  2.35020E+04  3.12380E+03  1.61494E+04  1.60944E+04  2.16632E+03  2.12826E+04
 -8.88769E+03  1.67585E+04 -1.23663E+04  5.89179E+03 -8.76201E+03 -1.53412E+03 -3.72745E+03 -2.57046E+03
 -1.76206E+03 -3.91384E+02 -3.00270E+03  3.07857E+03 -7.49596E+03  3.29896E+03 -1.20921E+04 -1.46606E+03
 -8.96474E+03 -1.23811E+04 -5.07824E+02 -1.75749E+04  1.09058E+04 -1.62949E+04  1.80467E+04 -5.35515E+03
  1.76504E+04  8.41727E+03  8.41114E+03  1.56454E+04 -3.79060E+03  1.83013E+04 -1.29302E+04  1.12288E+04
 -1.65211E+04  8.41595E+02 -1.28578E+04 -1.09764E+04 -1.35126E+03 -1.47793E+04  7.78366E+03 -1.15960E+04
  1.09284E+04 -3.39521E+03  7.65615E+03  3.07773E+03  2.92433E+03  5.10003E+03  1.49115E+03  2.58860E+03
  3.64660E+03  1.52865E+03  4.17682E+03  2.21727E+03  5.35643E+03  5.83061E+03  4.70230E+03  1.00133E+04
 -3.67338E+03  1.49213E+04 -1.29345E+04  1.40999E+04 -1.87532E+04  3.43009E+03 -1.95275E+04 -8.09618E+03
 -9.64618E+03 -1.86931E+04  2.73105E+03 -1.99421E+04  1.15809E+04 -1.31965E+04  1.50406E+04 -2.82288E+03
  1.18134E+04  6.69280E+03  2.91425E+03  1.10607E+04 -4.72930E+03  7.34788E+03 -7.78202E+03 -9.45449E+02
 -3.13225E+03 -7.85964E+03  4.71098E+03 -8.10056E+03  8.30191E+03 -3.79565E+03  7.79795E+03  1.94200E+03
  4.42781E+03  4.02996E+03  1.71983E+03  3.65522E+03 -1.00374E+03  2.72998E+03  1.72224E+03 -8.25577E+02
  3.59904E+03 -1.15317E+03  7.52617E+03  3.46465E+03  4.53431E+03  1.00811E+04 -1.41723E+03  1.30752E+04
 -8.97350E+03  9.19074E+03 -1.22335E+04  2.45236E+03 -1.04207E+04 -4.41538E+03 -4.72926E+03 -7.31961E+03
  1.03672E+03 -7.29831E+03  4.84190E+03 -3.39039E+03  4.43351E+03  3.70259E+03 -1.77718E+03  6.52653E+03
 -7.82305E+03  3.83486E+03 -9.56411E+03 -4.95146E+03 -5.42944E+03 -1.04802E+04  1.17253E+03 -1.07219E+04
  6.05137E+03 -6.67191E+03  7.79631E+03 -1.07753E+03  6.55323E+03  3.03354E+03  1.14039E+03  5.49220E+03
 -3.47172E+03  1.52412E+03 -4.53497E+03 -3.61416E+03  1.87338E+03 -8.11456E+03  9.36360E+03 -6.72011E+03
  1.26346E+04  1.21356E+03  1.15718E+04  8.68161E+03  3.76823E+03  1.27379E+04 -4.56156E+03  1.20904E+04
 -1.01487E+04  5.53212E+03 -1.12160E+04 -1.55465E+03 -5.99439E+03 -8.38618E+03  1.62175E+03 -8.28429E+03
  7.64118E+03 -3.60598E+03  6.74058E+03  2.93349E+03  2.61700E+03  7.02941E+03 -1.56717E+03  6.02362E+03
 -3.36532E+03  3.53578E+03 -3.39188E+03  1.49943E+03 -1.71757E+03  7.17652E+02 -2.01420E+03  2.53215E+03
 -3.10505E+03  4.44314E+03 -8.91814E+03  4.69768E+03 -1.29153E+04  1.81726E+02 -1.41236E+04 -8.74437E+03
 -7.75818E+03 -1.69128E+04  3.55309E+03 -1.95748E+04  1.22805E+04 -1.53358E+04  1.86372E+04 -5.25084E+03
  1.73888E+04  3.93700E+03  1.10558E+04  1.15933E+04  1.20986E+03  1.38456E+04 -5.61380E+03  1.01003E+04
 -7.06596E+03  3.56700E+03 -4.65763E+03 -1.52334E+03 -1.38302E+03 -1.32615E+03 -6.32809E+02 -2.31165E+02
 -1.95435E+03  5.24260E+02 -3.43031E+03 -5.72161E+02 -1.42256E+03 -3.38692E+03  9.84596E+01 -5.15661E+03
  5.82910E+03 -4.31256E+03  8.26650E+03 -4.23030E+02  9.59512E+03  7.17005E+03  2.63059E+03  1.33197E+04
 -6.62748E+03  1.54399E+04 -1.42355E+04  8.60189E+03 -1.63905E+04 -1.21888E+03 -1.23914E+04 -9.86832E+03
 -5.33806E+03 -1.43188E+04  3.31780E+03 -1.30800E+04  9.01348E+03 -7.12352E+03  9.38840E+03  7.88484E+02
  4.99955E+03  4.74717E+03 -3.87032E+02  3.87344E+03 -2.48680E+03 -2.36481E+02  2.65753E+02 -3.49468E+03
  4.28447E+03 -1.84499E+03  5.87365E+03  1.02849E+03  3.74295E+03  5.05944E+03  1.43255E+02  7.57388E+03
 -6.47075E+03  6.09990E+03 -9.23479E+03  1.06564E+03 -8.22265E+03 -7.22942E+03 -1.43823E+03 -1.13154E+04
  6.42238E+03 -9.71802E+03  1.07758E+04 -3.23294E+03  1.04573E+04  3.19273E+03  6.12659E+03  8.57294E+03
  1.41123E+03  9.19529E+03 -3.75877E+03  7.26392E+03 -5.87115E+03  4.08356E+03 -4.96961E+03  4.07628E+02
 -3.10168E+03 -3.96027E+02 -2.55589E+03  1.40419E+03 -4.81205E+03  1.89908E+03 -7.01516E+03 -1.72973E+03
 -6.60795E+03 -4.87795E+03 -1.93717E+03 -9.41068E+03  4.61857E+03 -9.67792E+03  8.17448E+03 -4.71868E+03
  9.10656E+03  1.09464E+03  5.51857E+03  6.95775E+03 -1.04832E+03  9.76814E+03 -7.18058E+03  6.09724E+03
