 $NMID ID='MM_0lb_SNR800_11hz_g45_32.RAW', FMTDAT='(8E13.5)'
 TRAMP=1., VOLUME=1. $END
  3.10021E+05  1.68356E+02  3.37577E+05  2.50876E+05  8.50864E+04  3.37960E+05 -1.32904E+05  2.51509E+05
 -1.90567E+05  8.36785E+04 -1.12220E+05 -3.25171E+04  6.62990E+02 -5.08954E+04  5.40765E+04 -2.31887E+02
  3.53581E+04  5.27242E+04 -1.66889E+04  7.55283E+04 -6.10287E+04  6.37398E+04 -8.45392E+04  3.23088E+04
 -8.17172E+04 -1.13658E+04 -5.73728E+04 -5.16919E+04 -1.52331E+04 -7.02685E+04  2.76776E+04 -4.62237E+04
  4.06089E+04  3.76252E+03  1.68493E+04  4.86111E+04 -3.44737E+04  4.76258E+04 -6.72259E+04 -4.75321E+01
 -5.41685E+04 -5.77487E+04 -7.05809E+03 -7.77056E+04  3.45053E+04 -5.59815E+04  4.89811E+04 -1.73919E+04
  4.39065E+04  1.14799E+04  3.25851E+04  2.58849E+04  1.58963E+04  3.00085E+04 -5.61929E+03  2.71018E+04
 -2.21910E+04  1.22404E+04 -1.83500E+04 -4.94158E+03  6.31508E+03 -7.27575E+03  2.26537E+04  1.27284E+04
  6.88381E+03  3.59069E+04 -3.29349E+04  3.63014E+04 -6.45791E+04  2.30503E+03 -5.77354E+04 -4.37988E+04
 -1.25616E+04 -6.43968E+04  4.02850E+04 -4.62666E+04  5.94908E+04 -2.51292E+03  3.51119E+04  3.34830E+04
 -5.69922E+03  3.75724E+04 -3.10253E+04  1.76505E+04 -3.15508E+04 -4.15607E+03 -1.78080E+04 -1.11326E+04
 -8.87895E+03 -1.39356E+04 -6.92260E+02 -1.85541E+04  7.98127E+03 -2.34237E+04  1.57395E+04 -1.30641E+04
  1.10569E+04  5.56371E+03 -9.28936E+03  1.28429E+04 -2.22661E+04 -5.63090E+03 -8.38697E+03 -3.53519E+04
  2.37781E+04 -4.52437E+04  4.98187E+04 -2.05390E+04  4.67281E+04  2.00820E+04  1.68679E+04  4.55017E+04
 -1.66754E+04  3.45610E+04 -2.63877E+04  2.03175E+03 -1.08535E+04 -2.90019E+04  2.10295E+04 -3.49577E+04
  4.31485E+04 -1.00384E+04  3.81908E+04  2.43432E+04  1.99943E+04  4.87852E+04 -7.90099E+03  5.31213E+04
 -3.36789E+04  3.57562E+04 -4.43860E+04  1.03200E+04 -4.53337E+04 -1.78559E+04 -2.44357E+04 -3.96340E+04
  7.92310E+03 -3.99309E+04  3.29031E+04 -1.58195E+04  3.03978E+04  1.10828E+04  4.74158E+03  1.99100E+04
 -1.39015E+04  8.85581E+03 -1.05707E+04 -7.82580E+03  5.89622E+03 -1.12055E+04  1.85462E+04  5.99285E+03
  1.40204E+04  2.23020E+04 -5.52747E+03  2.61068E+04 -2.25931E+04  1.29322E+04 -2.97590E+04 -3.66378E+03
 -2.29597E+04 -1.79455E+04 -9.90112E+03 -2.26800E+04  4.32489E+03 -2.26443E+04  1.76158E+04 -2.08309E+04
  2.91932E+04 -1.33124E+04  3.54667E+04  4.00445E+03  2.57780E+04  2.22976E+04  4.57219E+03  3.86170E+04
 -1.88447E+04  3.22060E+04 -2.92010E+04  1.09230E+04 -2.16386E+04 -1.02245E+04 -4.38471E+03 -1.32398E+04
  1.29695E+03 -1.94921E+03 -6.27317E+03  7.60837E+03 -1.81668E+04  5.24503E+03 -1.83560E+04 -8.12124E+03
 -1.09196E+04 -2.13143E+04  5.55274E+03 -2.58734E+04  1.71156E+04 -1.80036E+04  2.04282E+04 -1.60576E+03
  1.30644E+04  1.47353E+04 -1.21226E+03  2.12688E+04 -1.43773E+04  1.19845E+04 -2.13827E+04 -4.49674E+03
 -1.58519E+04 -1.88013E+04 -2.23768E+03 -2.52614E+04  1.17753E+04 -2.09479E+04  2.12270E+04 -1.05217E+04
  1.96780E+04  5.92115E+01  1.43377E+04  5.00364E+03  7.75012E+03  1.55855E+03  1.08757E+04 -1.63097E+03
  1.97197E+04  3.01118E+03  2.25614E+04  1.67448E+04  1.50815E+04  3.39143E+04 -2.98575E+03  3.88421E+04
 -2.23571E+04  3.18981E+04 -3.65653E+04  1.64434E+04 -3.91429E+04 -2.65088E+03 -3.20108E+04 -2.26010E+04
 -1.30946E+04 -3.20985E+04  1.14805E+04 -2.86552E+04  2.46148E+04 -1.36876E+04  2.17159E+04  6.60750E+03
  7.76250E+03  1.67775E+04 -1.02437E+04  1.42343E+04 -1.81529E+04  2.45563E+03 -1.36596E+04 -1.15134E+04
 -4.43884E+02 -1.76975E+04  9.16613E+03 -1.29420E+04  1.16641E+04 -1.19789E+03  2.75466E+03  7.74399E+03
 -7.67065E+03  3.35497E+03 -7.59304E+03 -6.35191E+03 -8.98147E+02 -1.54022E+04  1.03604E+04 -1.66063E+04
  1.93799E+04 -9.28133E+03  2.20035E+04  3.44128E+03  1.94914E+04  1.56578E+04  8.65562E+03  2.47934E+04
 -4.76392E+03  2.67780E+04 -1.71908E+04  1.68375E+04 -1.93235E+04  3.77425E+03 -1.33994E+04 -4.97177E+03
 -5.82242E+03 -6.10191E+03 -9.73533E+02  7.80679E+02 -2.82380E+03  3.35842E+03 -6.31908E+03  4.72859E+03
 -1.21657E+04 -7.40012E+02 -1.24668E+04 -1.03175E+04 -5.53301E+03 -1.69202E+04  5.59872E+03 -1.32354E+04
  1.11986E+04 -5.59764E+03  8.02579E+03  3.70279E+03 -2.64867E+02  5.12141E+03 -6.57061E+03 -8.88448E+01
 -6.47651E+03 -8.38848E+03 -1.00573E+03 -1.32578E+04  7.33795E+03 -1.36428E+04  1.70772E+04 -7.51738E+03
  1.97635E+04  1.71090E+03  1.45254E+04  1.18096E+04  2.84959E+03  1.57750E+04 -8.40688E+03  1.33428E+04
 -1.08270E+04  4.12718E+03 -5.84639E+03 -2.62638E+03  2.00010E+03 -4.05072E+03  7.38255E+03 -7.84653E+02
  6.40007E+03  5.79679E+03  6.03463E+02  1.08947E+04 -7.74637E+03  1.05947E+04 -1.31534E+04  2.45408E+03
 -9.28393E+03 -7.06002E+03  2.18016E+02 -1.14493E+04  7.59798E+03 -5.81086E+03  7.49871E+03  2.68470E+03
  1.77322E+03  7.97627E+03 -6.48533E+03  9.76418E+03 -1.09063E+04  4.33215E+03 -1.10293E+04 -3.75965E+03
 -6.67659E+03 -1.25921E+04  3.01242E+03 -1.45905E+04  1.24272E+04 -8.76559E+03  1.37165E+04  2.07131E+03
  7.99564E+03  1.09406E+04 -6.28985E+02  1.31893E+04 -9.60747E+03  7.26759E+03 -1.05774E+04 -8.34286E+02
 -9.30654E+03 -9.08450E+03 -1.79495E+03 -9.84615E+03  5.30203E+03 -8.09967E+03  5.78042E+03 -3.60400E+03
  3.82244E+03  1.37470E+03 -5.27785E+02  1.68882E+03 -2.40754E+02 -2.27876E+03  1.63706E+03 -5.46447E+03
  8.91230E+03 -3.39175E+03  1.23783E+04  1.46773E+03  1.23651E+04  8.78272E+03  8.83613E+03  1.67684E+04
 -3.84056E+03  1.89575E+04 -1.61561E+04  1.37561E+04 -2.08788E+04  2.84865E+03 -1.68298E+04 -7.03323E+03
 -8.55483E+03 -1.36346E+04 -4.99360E+02 -1.15969E+04  4.20906E+03 -6.49765E+03  4.00101E+03 -4.60625E+03
  2.86728E+03 -2.80040E+03  3.36460E+03 -3.22615E+03  5.07435E+03 -3.02290E+03  6.71234E+03 -1.03766E+03
  9.05740E+03  1.96198E+03  4.56722E+03  7.26821E+03 -2.11325E+03  8.42759E+03 -9.00062E+03  6.87062E+03
 -1.13150E+04 -1.11842E+03 -7.00178E+03 -8.26666E+03 -5.28331E+02 -1.24059E+04  6.99796E+03 -1.25253E+04
  1.28646E+04 -7.04862E+03  1.55015E+04  1.56816E+03  1.07043E+04  1.08950E+04  1.66990E+03  1.36636E+04
 -5.60929E+03  1.18541E+04 -7.88356E+03  3.84782E+03 -5.55946E+03 -1.34420E+03 -2.26020E+03 -1.55072E+03
 -1.26496E+03  1.32733E+02 -2.02116E+03  2.58758E+03 -5.08303E+03  1.52599E+03 -8.15786E+03 -1.26445E+03
 -5.49897E+03 -7.89318E+03  5.96902E+02 -1.11087E+04  6.77262E+03 -1.05684E+04  1.08413E+04 -3.19318E+03
  1.08535E+04  5.61176E+03  5.14434E+03  9.60245E+03 -1.98614E+03  1.15670E+04 -8.28022E+03  7.06528E+03
 -1.06631E+04  6.72739E+02 -7.99907E+03 -6.66555E+03 -8.87714E+02 -9.49652E+03  4.57045E+03 -6.99535E+03
  7.38244E+03 -2.50076E+03  4.94789E+03  1.67072E+03  1.60317E+03  3.36445E+03  9.92747E+02  1.47653E+03
  2.30073E+03  9.51523E+02  2.69494E+03  1.50155E+03  3.39214E+03  4.34665E+03  2.76125E+03  5.49601E+03
 -2.72330E+03  8.98379E+03 -8.10887E+03  9.18007E+03 -1.12202E+04  2.58067E+03 -1.17751E+04 -4.14911E+03
 -5.39644E+03 -1.09613E+04  1.46191E+03 -1.22910E+04  6.71856E+03 -7.83380E+03  9.15776E+03 -2.15392E+03
  7.15820E+03  3.95761E+03  1.44728E+03  6.35130E+03 -2.93447E+03  3.80750E+03 -4.88057E+03 -4.93858E+02
 -1.87355E+03 -4.48016E+03  2.71965E+03 -4.77544E+03  4.36836E+03 -2.24914E+03  4.28147E+03  9.42632E+02
  2.47508E+03  2.33455E+03  1.23973E+03  1.67945E+03 -5.92869E+02  1.45372E+03  1.70748E+03 -7.51834E+02
  1.74492E+03 -8.96512E+02  5.07893E+03  1.93711E+03  2.52923E+03  6.52977E+03 -8.78081E+02  7.87026E+03
 -5.26615E+03  5.07512E+03 -7.14821E+03  1.30127E+03 -6.53198E+03 -2.57773E+03 -2.26158E+03 -4.09386E+03
  4.75973E+02 -4.13512E+03  2.74719E+03 -2.42167E+03  2.27039E+03  2.11840E+03 -1.07369E+03  3.80846E+03
 -4.54650E+03  2.01614E+03 -5.16744E+03 -2.75518E+03 -2.89792E+03 -5.91489E+03  7.04151E+02 -6.10348E+03
  3.18098E+03 -3.47941E+03  4.25785E+03 -1.97892E+02  3.83292E+03  1.60005E+03  3.72235E+02  3.53926E+03
 -2.07934E+03  9.98767E+02 -2.85393E+03 -1.83853E+03  7.40597E+02 -4.75484E+03  5.45703E+03 -3.57210E+03
  6.60889E+03  2.74872E+02  6.85332E+03  4.35858E+03  2.31297E+03  7.17945E+03 -2.39836E+03  6.53118E+03
 -6.09704E+03  2.68723E+03 -5.91934E+03 -7.86422E+02 -3.09607E+03 -4.39622E+03  1.13486E+03 -4.55220E+03
  4.54497E+03 -2.22446E+03  3.73102E+03  1.86702E+03  1.44214E+03  4.02111E+03 -7.39849E+02  3.36850E+03
 -1.90419E+03  2.58640E+03 -1.78215E+03  8.67503E+02 -6.49289E+02  8.50967E+02 -1.45950E+03  1.65141E+03
 -1.54885E+03  3.05338E+03 -4.80030E+03  2.41423E+03 -6.50525E+03  4.64369E+02 -8.17548E+03 -4.52824E+03
 -3.95599E+03 -9.07527E+03  1.38031E+03 -1.07484E+04  6.34006E+03 -8.50594E+03  1.01065E+04 -3.09426E+03
  9.36463E+03  1.87773E+03  5.89968E+03  6.13613E+03  5.74304E+02  6.92821E+03 -2.78646E+03  5.07716E+03
 -4.23890E+03  2.11869E+03 -2.59394E+03 -5.00621E+02 -1.03667E+03 -6.69618E+02 -4.46915E+02  6.01110E+01
 -1.82506E+03  1.26729E+02 -1.61607E+03 -6.83020E+01 -8.37251E+02 -1.94997E+03  3.69947E+01 -2.96383E+03
  3.35818E+03 -2.45390E+03  4.09437E+03 -2.30518E+02  4.97216E+03  3.78539E+03  9.16039E+02  6.76275E+03
 -3.77056E+03  8.38708E+03 -7.54917E+03  4.69498E+03 -8.12404E+03 -2.86725E+02 -6.00083E+03 -5.34449E+03
 -2.48219E+03 -7.29242E+03  1.78545E+03 -6.77032E+03  4.47428E+03 -3.21238E+03  4.44545E+03  2.20711E+02
  2.69647E+03  2.53245E+03 -2.93709E+02  1.85444E+03 -1.72438E+03  9.14274E+01 -8.22103E+01 -1.67872E+03
  2.66322E+03 -8.26617E+02  2.56111E+03  8.24964E+02  1.32588E+03  2.77510E+03  1.19776E+02  3.20353E+03
 -3.20741E+03  2.94780E+03 -4.69653E+03  5.70974E+02 -3.85359E+03 -3.33454E+03 -8.24703E+02 -5.73295E+03
  3.11039E+03 -4.98297E+03  5.15575E+03 -1.22642E+03  5.12532E+03  9.20954E+02  3.16196E+03  4.12219E+03
  9.24917E+02  4.28735E+03 -1.60723E+03  3.76957E+03 -2.82360E+03  2.17572E+03 -2.57270E+03  7.36222E+01
 -1.14934E+03 -4.76324E+02 -1.43282E+03  5.47019E+02 -2.34068E+03  8.47979E+02 -3.50788E+03 -9.91413E+02
 -3.72644E+03 -1.92091E+03 -1.27132E+03 -4.59270E+03  1.93542E+03 -5.23842E+03  3.81083E+03 -2.55957E+03
  4.77127E+03  6.18500E+02  2.38275E+03  2.89056E+03 -1.97927E+02  4.47237E+03 -3.37182E+03  2.98643E+03
