 $NMID ID='MM_0lb_SNR800_7hz_g55_41.RAW', FMTDAT='(8E13.5)'
 TRAMP=1., VOLUME=1. $END
  3.10272E+05  4.21221E+02  3.38060E+05  2.50794E+05  8.49279E+04  3.38806E+05 -1.32754E+05  2.52208E+05
 -1.90725E+05  8.38597E+04 -1.12817E+05 -3.22863E+04 -4.26797E+02 -5.05237E+04  5.35228E+04 -8.84914E+02
  3.57366E+04  5.34937E+04 -1.66175E+04  7.56186E+04 -6.11118E+04  6.50049E+04 -8.58104E+04  3.28672E+04
 -8.33309E+04 -1.18034E+04 -5.90583E+04 -5.31782E+04 -1.53740E+04 -7.17115E+04  2.77635E+04 -4.73075E+04
  4.15809E+04  2.91635E+03  1.73910E+04  4.89654E+04 -3.52421E+04  4.86304E+04 -6.86324E+04  7.82413E+01
 -5.59816E+04 -5.81049E+04 -7.11616E+03 -8.04718E+04  3.51840E+04 -5.76752E+04  5.07310E+04 -1.85486E+04
  4.64983E+04  1.18334E+04  3.40869E+04  2.73066E+04  1.57501E+04  3.09912E+04 -6.29752E+03  2.76958E+04
 -2.22212E+04  1.20139E+04 -1.80399E+04 -6.96721E+03  7.91482E+03 -7.04873E+03  2.41506E+04  1.44841E+04
  7.29648E+03  3.78775E+04 -3.45495E+04  3.78968E+04 -6.72145E+04  2.02533E+03 -5.95687E+04 -4.52341E+04
 -1.23830E+04 -6.68755E+04  4.24418E+04 -4.85587E+04  6.28675E+04 -2.59326E+03  3.79866E+04  3.49771E+04
 -4.93998E+03  4.12039E+04 -3.24578E+04  1.97012E+04 -3.53340E+04 -3.11227E+03 -2.03935E+04 -1.24605E+04
 -9.83627E+03 -1.61934E+04 -1.81631E+02 -2.01490E+04  9.52340E+03 -2.39000E+04  1.60963E+04 -1.22487E+04
  9.85679E+03  6.69697E+03 -1.14563E+04  1.29137E+04 -2.43837E+04 -7.71649E+03 -8.61616E+03 -3.90650E+04
  2.61750E+04 -4.83654E+04  5.44131E+04 -2.11948E+04  5.02876E+04  2.13096E+04  1.80821E+04  4.82631E+04
 -1.67892E+04  3.77311E+04 -2.84801E+04  3.36635E+03 -1.28121E+04 -3.03753E+04  2.22411E+04 -3.82538E+04
  4.63284E+04 -1.18195E+04  4.28574E+04  2.56013E+04  2.27697E+04  5.33693E+04 -8.43606E+03  5.91530E+04
 -3.72073E+04  4.08164E+04 -5.05264E+04  1.15826E+04 -5.04469E+04 -1.94004E+04 -2.77978E+04 -4.42270E+04
  8.29766E+03 -4.40859E+04  3.53437E+04 -1.82764E+04  3.39363E+04  1.09365E+04  5.54718E+03  2.18043E+04
 -1.40299E+04  1.04944E+04 -1.16015E+04 -7.33384E+03  5.61966E+03 -1.19184E+04  1.94084E+04  5.13758E+03
  1.60676E+04  2.31005E+04 -4.84385E+03  2.80784E+04 -2.37799E+04  1.63637E+04 -3.32591E+04 -2.29061E+03
 -2.78958E+04 -1.91088E+04 -1.33701E+04 -2.71391E+04  4.60063E+03 -2.91458E+04  2.19929E+04 -2.48128E+04
  3.51865E+04 -1.53721E+04  4.08171E+04  5.60125E+03  2.86460E+04  2.68390E+04  4.32164E+03  4.33563E+04
 -2.09001E+04  3.58810E+04 -3.19657E+04  1.23538E+04 -2.35166E+04 -1.01985E+04 -5.16261E+03 -1.25830E+04
  4.36826E+02 -5.13610E+02 -8.75254E+03  9.15386E+03 -2.23458E+04  5.18754E+03 -2.23290E+04 -1.08558E+04
 -1.25621E+04 -2.60239E+04  6.22964E+03 -3.02715E+04  2.03583E+04 -2.09134E+04  2.50635E+04 -1.54621E+03
  1.62446E+04  1.79146E+04 -1.20820E+03  2.56117E+04 -1.83517E+04  1.45265E+04 -2.62862E+04 -4.96428E+03
 -1.93835E+04 -2.29895E+04 -2.45351E+03 -3.11072E+04  1.34072E+04 -2.57848E+04  2.51231E+04 -1.36572E+04
  2.40369E+04 -9.18966E+02  1.74242E+04  5.61886E+03  1.00758E+04  1.95330E+03  1.31937E+04 -2.45200E+03
  2.46623E+04  2.77447E+03  2.86279E+04  1.98921E+04  2.02312E+04  4.18630E+04 -2.79982E+03  4.94003E+04
 -2.78384E+04  4.18013E+04 -4.70253E+04  2.23113E+04 -5.03733E+04 -4.09409E+03 -4.07555E+04 -3.01859E+04
 -1.53862E+04 -4.23945E+04  1.49174E+04 -3.65807E+04  3.20156E+04 -1.68588E+04  2.66002E+04  9.15060E+03
  8.54167E+03  2.10155E+04 -1.37965E+04  1.69312E+04 -2.29157E+04  2.64975E+03 -1.70903E+04 -1.42328E+04
 -8.35908E+02 -2.17740E+04  1.18130E+04 -1.57279E+04  1.48191E+04 -1.18070E+03  4.45061E+03  9.98535E+03
 -1.01766E+04  4.88840E+03 -1.10449E+04 -7.98423E+03 -2.78246E+03 -2.04934E+04  1.30716E+04 -2.29791E+04
  2.62123E+04 -1.29608E+04  3.04350E+04  3.70820E+03  2.74222E+04  2.16945E+04  1.17604E+04  3.38086E+04
 -6.92086E+03  3.61124E+04 -2.41734E+04  2.23913E+04 -2.64679E+04  4.36473E+03 -1.74981E+04 -7.34101E+03
 -6.98231E+03 -9.03174E+03 -1.43920E+02 -2.12016E+01 -4.01745E+03  4.03264E+03 -8.89248E+03  5.97088E+03
 -1.60771E+04 -1.33368E+03 -1.66419E+04 -1.31921E+04 -7.18792E+03 -2.21662E+04  7.43619E+03 -1.83715E+04
  1.46628E+04 -7.27419E+03  1.04819E+04  5.14588E+03 -4.07927E+02  7.13859E+03 -8.93601E+03 -3.51582E+02
 -8.89604E+03 -1.16986E+04 -1.38570E+03 -1.86458E+04  1.05693E+04 -1.91932E+04  2.33144E+04 -1.06946E+04
  2.74756E+04  2.55677E+03  2.02401E+04  1.73933E+04  3.33173E+03  2.25209E+04 -1.06817E+04  1.81498E+04
 -1.42846E+04  5.00509E+03 -7.64086E+03 -4.07734E+03  2.34215E+03 -5.41346E+03  9.30500E+03 -1.15196E+03
  8.76201E+03  8.62166E+03  1.59277E+03  1.41421E+04 -1.07543E+04  1.37847E+04 -1.83130E+04  3.29122E+03
 -1.30016E+04 -1.01957E+04  4.89591E+01 -1.56048E+04  1.09084E+04 -8.00587E+03  1.09429E+04  4.12954E+03
  2.93397E+03  1.22741E+04 -9.63707E+03  1.36625E+04 -1.68846E+04  6.28133E+03 -1.77151E+04 -6.66456E+03
 -1.01087E+04 -1.92055E+04  4.99002E+03 -2.26059E+04  1.88231E+04 -1.29172E+04  2.05555E+04  3.84981E+03
  1.19926E+04  1.63307E+04 -2.16071E+03  1.87998E+04 -1.41589E+04  1.00397E+04 -1.52037E+04 -1.95329E+03
 -1.28761E+04 -1.27771E+04 -1.92870E+03 -1.46115E+04  8.14717E+03 -1.18341E+04  9.50962E+03 -3.87146E+03
  5.68337E+03  2.96192E+03 -1.26070E+03  2.40391E+03 -1.12803E+03 -4.51727E+03  3.51009E+03 -9.87461E+03
  1.46328E+04 -6.41993E+03  2.02936E+04  1.67872E+03  1.96174E+04  1.40285E+04  1.18908E+04  2.61952E+04
 -6.25229E+03  2.96975E+04 -2.42945E+04  2.19949E+04 -3.17708E+04  4.38040E+03 -2.58862E+04 -1.12197E+04
 -1.23111E+04 -2.10739E+04 -4.17676E+01 -1.83467E+04  6.65697E+03 -1.09523E+04  6.83561E+03 -6.05217E+03
  4.77017E+03 -3.90940E+03  4.73296E+03 -4.45861E+03  6.91765E+03 -4.20262E+03  1.01975E+04 -2.43391E+03
  1.33518E+04  3.11362E+03  7.64653E+03  1.18472E+04 -2.65652E+03  1.51711E+04 -1.33126E+04  1.12441E+04
 -1.86094E+04 -1.52809E+03 -1.26391E+04 -1.33542E+04 -2.20521E+03 -2.02037E+04  1.08182E+04 -2.01679E+04
  2.11431E+04 -1.09528E+04  2.44897E+04  3.29831E+03  1.68333E+04  1.79302E+04  2.55853E+03  2.23882E+04
 -9.57541E+03  1.79424E+04 -1.29237E+04  6.51279E+03 -9.90774E+03 -2.38029E+03 -4.57308E+03 -3.13628E+03
 -2.06787E+03 -7.40706E+02 -2.97360E+03  3.21228E+03 -7.79990E+03  3.00022E+03 -1.30075E+04 -1.81373E+03
 -9.71430E+03 -1.27557E+04  1.88300E+02 -1.89450E+04  1.15307E+04 -1.76442E+04  1.95844E+04 -5.54799E+03
  1.88832E+04  9.17932E+03  8.99564E+03  1.77182E+04 -4.00873E+03  1.94203E+04 -1.42768E+04  1.23800E+04
 -1.80963E+04  3.26463E+01 -1.36820E+04 -1.21122E+04 -1.43564E+03 -1.62723E+04  8.74132E+03 -1.17813E+04
  1.25753E+04 -3.92267E+03  8.46839E+03  3.93878E+03  3.19761E+03  5.23815E+03  1.60634E+03  2.61174E+03
  2.82540E+03  1.18530E+03  4.54060E+03  2.50558E+03  5.26176E+03  6.58405E+03  4.73135E+03  1.04196E+04
 -3.57033E+03  1.56223E+04 -1.40038E+04  1.50757E+04 -2.10453E+04  3.83802E+03 -2.06935E+04 -9.34932E+03
 -1.03720E+04 -1.99698E+04  2.85486E+03 -2.16646E+04  1.23731E+04 -1.44621E+04  1.62152E+04 -3.98101E+03
  1.27298E+04  7.40913E+03  2.99862E+03  1.15034E+04 -5.93730E+03  7.88069E+03 -8.75391E+03 -1.07135E+03
 -3.99349E+03 -8.91075E+03  4.69239E+03 -9.37837E+03  8.76618E+03 -4.62946E+03  8.09537E+03  2.15684E+03
  5.16339E+03  4.38817E+03  1.70149E+03  3.56920E+03 -7.48402E+02  2.43508E+03  1.87882E+03 -5.82272E+02
  3.48954E+03 -9.95950E+02  7.80639E+03  3.55461E+03  4.92389E+03  1.07410E+04 -1.74094E+03  1.47018E+04
 -9.81507E+03  9.81124E+03 -1.36653E+04  2.25893E+03 -1.14803E+04 -4.80013E+03 -4.91583E+03 -7.97465E+03
  1.10270E+03 -8.09596E+03  5.47299E+03 -4.10452E+03  4.81159E+03  3.98389E+03 -1.98160E+03  7.16846E+03
 -8.64995E+03  4.18581E+03 -1.00397E+04 -4.32292E+03 -6.06344E+03 -1.14211E+04  1.75614E+03 -1.20290E+04
  6.72627E+03 -7.47738E+03  8.70538E+03 -1.13592E+03  6.91225E+03  3.03630E+03  7.83361E+02  6.09865E+03
 -4.41843E+03  1.61922E+03 -5.27658E+03 -4.02780E+03  1.91774E+03 -9.10592E+03  1.04406E+04 -7.57402E+03
  1.34733E+04  5.98995E+02  1.27517E+04  9.37711E+03  3.76576E+03  1.41662E+04 -5.22937E+03  1.34432E+04
 -1.19161E+04  5.89478E+03 -1.18564E+04 -1.55124E+03 -6.43868E+03 -8.53542E+03  2.47734E+03 -8.46085E+03
  8.58113E+03 -4.14570E+03  7.39403E+03  3.40163E+03  2.18407E+03  7.64600E+03 -1.34561E+03  7.17480E+03
 -3.73752E+03  4.36561E+03 -3.27541E+03  1.37322E+03 -1.53289E+03  1.28158E+03 -2.04922E+03  3.08047E+03
 -3.55485E+03  5.49983E+03 -9.32976E+03  4.39152E+03 -1.44731E+04 -2.48876E+01 -1.55752E+04 -9.67301E+03
 -8.45507E+03 -1.90829E+04  3.51370E+03 -2.13819E+04  1.40982E+04 -1.68232E+04  2.09097E+04 -6.47814E+03
  1.95296E+04  4.43009E+03  1.19706E+04  1.35959E+04  1.32001E+03  1.51483E+04 -6.61487E+03  1.12551E+04
 -8.49795E+03  4.06946E+03 -5.26550E+03 -1.38937E+03 -1.22178E+03 -1.93814E+03 -6.01654E+02 -4.22581E+02
 -2.25515E+03  4.51182E+02 -3.51886E+03 -5.53930E+02 -1.06778E+03 -3.82492E+03  4.26030E+02 -5.49468E+03
  6.56827E+03 -5.31039E+03  9.16060E+03 -4.19008E+02  1.06981E+04  8.71583E+03  3.75697E+03  1.48232E+04
 -7.67922E+03  1.70924E+04 -1.64716E+04  1.00479E+04 -1.88930E+04 -1.33155E+03 -1.40565E+04 -1.14761E+04
 -5.82291E+03 -1.59334E+04  3.68075E+03 -1.47908E+04  1.04594E+04 -8.08672E+03  1.05440E+04  6.14000E+02
  5.56594E+03  5.23559E+03 -6.87594E+02  4.58896E+03 -2.83984E+03 -5.52223E+02 -3.54851E+01 -3.84203E+03
  4.59218E+03 -2.48806E+03  6.46939E+03  2.21948E+03  4.89674E+03  6.61272E+03 -1.97814E+02  8.60308E+03
 -6.97532E+03  7.14656E+03 -1.07983E+04  1.05398E+03 -9.31855E+03 -7.80791E+03 -1.39827E+03 -1.29555E+04
  7.58068E+03 -1.05992E+04  1.30054E+04 -3.66073E+03  1.21299E+04  3.57625E+03  7.11234E+03  9.77965E+03
  1.49173E+03  1.05002E+04 -4.20276E+03  9.03837E+03 -7.18413E+03  5.03207E+03 -5.94268E+03  4.62744E+02
 -2.89747E+03 -3.45298E+02 -2.85201E+03  1.19875E+03 -5.63850E+03  1.74722E+03 -7.99745E+03 -1.33216E+03
 -7.68382E+03 -6.11846E+03 -2.43249E+03 -1.07497E+04  5.29832E+03 -1.11116E+04  9.48904E+03 -5.12566E+03
  1.06967E+04  1.85097E+03  6.68968E+03  8.20504E+03 -4.60942E+02  1.11257E+04 -8.83963E+03  6.87903E+03
