 $NMID ID='MM_0lb_SNR800_12hz_g45_23.RAW', FMTDAT='(8E13.5)'
 TRAMP=1., VOLUME=1. $END
  3.10089E+05  2.67002E+02  3.37477E+05  2.50996E+05  8.48511E+04  3.37957E+05 -1.32646E+05  2.51131E+05
 -1.90328E+05  8.28191E+04 -1.11980E+05 -3.22074E+04  5.01388E+02 -5.05127E+04  5.39823E+04 -7.42941E+01
  3.48737E+04  5.26832E+04 -1.67053E+04  7.53755E+04 -6.08611E+04  6.39921E+04 -8.42703E+04  3.19218E+04
 -8.12488E+04 -1.15948E+04 -5.74855E+04 -5.12025E+04 -1.48633E+04 -6.99843E+04  2.76382E+04 -4.61654E+04
  4.02874E+04  3.63989E+03  1.62055E+04  4.83577E+04 -3.46465E+04  4.75678E+04 -6.71246E+04 -3.59224E+02
 -5.37204E+04 -5.72865E+04 -6.83958E+03 -7.77260E+04  3.42420E+04 -5.53808E+04  4.86099E+04 -1.73015E+04
  4.37046E+04  1.12686E+04  3.22654E+04  2.56841E+04  1.55038E+04  2.95779E+04 -5.42678E+03  2.76656E+04
 -2.23533E+04  1.23787E+04 -1.87559E+04 -5.24249E+03  6.06766E+03 -7.28059E+03  2.27464E+04  1.27637E+04
  7.56232E+03  3.60333E+04 -3.23292E+04  3.56663E+04 -6.38873E+04  2.14198E+03 -5.76565E+04 -4.33353E+04
 -1.26111E+04 -6.37544E+04  3.99283E+04 -4.59928E+04  5.90074E+04 -2.12879E+03  3.49073E+04  3.31988E+04
 -5.97787E+03  3.67306E+04 -3.03156E+04  1.68589E+04 -3.11889E+04 -4.43889E+03 -1.75765E+04 -1.11305E+04
 -8.55946E+03 -1.38536E+04 -8.54422E+02 -1.88372E+04  8.08517E+03 -2.31243E+04  1.54095E+04 -1.31168E+04
  1.12105E+04  5.37208E+03 -8.54365E+03  1.31181E+04 -2.18256E+04 -5.14154E+03 -8.15667E+03 -3.45204E+04
  2.33405E+04 -4.48024E+04  4.91773E+04 -1.98567E+04  4.61103E+04  1.98482E+04  1.60204E+04  4.50983E+04
 -1.61290E+04  3.46900E+04 -2.60528E+04  2.10563E+03 -1.04660E+04 -2.82768E+04  2.10401E+04 -3.44966E+04
  4.21980E+04 -9.64709E+03  3.68987E+04  2.43603E+04  1.89824E+04  4.76880E+04 -8.19093E+03  5.15038E+04
 -3.30021E+04  3.50990E+04 -4.38261E+04  1.00547E+04 -4.41552E+04 -1.73888E+04 -2.42808E+04 -3.89495E+04
  7.13214E+03 -3.88802E+04  3.22636E+04 -1.53002E+04  2.99528E+04  1.08364E+04  4.42271E+03  1.97277E+04
 -1.36819E+04  8.89550E+03 -1.04734E+04 -7.71002E+03  5.60808E+03 -1.11330E+04  1.82422E+04  6.01999E+03
  1.37322E+04  2.23701E+04 -5.32250E+03  2.58113E+04 -2.29038E+04  1.23635E+04 -2.92124E+04 -4.41462E+03
 -2.19328E+04 -1.75365E+04 -9.47897E+03 -2.18951E+04  4.25892E+03 -2.13471E+04  1.70747E+04 -1.98539E+04
  2.76475E+04 -1.30845E+04  3.41303E+04  3.27083E+03  2.47521E+04  2.11635E+04  3.98132E+03  3.77205E+04
 -1.84381E+04  3.12321E+04 -2.86795E+04  1.09486E+04 -2.13970E+04 -1.04130E+04 -4.33878E+03 -1.30346E+04
  9.82688E+02 -2.57376E+03 -5.60957E+03  6.85001E+03 -1.76410E+04  5.20479E+03 -1.76229E+04 -7.48524E+03
 -1.06459E+04 -2.00852E+04  5.34785E+03 -2.47128E+04  1.64188E+04 -1.74517E+04  1.96397E+04 -1.87766E+03
  1.22966E+04  1.41985E+04 -1.34739E+03  2.01410E+04 -1.42045E+04  1.14900E+04 -2.06360E+04 -4.13784E+03
 -1.51688E+04 -1.79433E+04 -2.05823E+03 -2.40502E+04  1.15318E+04 -2.02645E+04  2.01667E+04 -9.68612E+03
  1.92119E+04 -5.16339E+02  1.38049E+04  4.69635E+03  7.93995E+03  1.11541E+03  1.03778E+04 -1.43182E+03
  1.86753E+04  2.79130E+03  2.14960E+04  1.58835E+04  1.42163E+04  3.20818E+04 -2.78848E+03  3.69501E+04
 -2.13466E+04  3.02218E+04 -3.48842E+04  1.52497E+04 -3.64451E+04 -2.73518E+03 -3.02107E+04 -2.16600E+04
 -1.23851E+04 -3.01060E+04  1.07191E+04 -2.66400E+04  2.32291E+04 -1.36962E+04  2.09247E+04  6.07846E+03
  7.68778E+03  1.56410E+04 -9.30021E+03  1.37180E+04 -1.75904E+04  2.47765E+03 -1.33970E+04 -1.11132E+04
  1.71435E+02 -1.67413E+04  8.69369E+03 -1.21568E+04  1.12861E+04 -1.73059E+03  2.36853E+03  6.84435E+03
 -7.77414E+03  2.76150E+03 -6.81604E+03 -6.17817E+03 -9.04218E+02 -1.49272E+04  1.02118E+04 -1.58977E+04
  1.86381E+04 -8.77848E+03  2.05866E+04  3.06474E+03  1.73020E+04  1.49616E+04  8.29742E+03  2.28602E+04
 -3.70401E+03  2.46179E+04 -1.58943E+04  1.55368E+04 -1.76887E+04  3.50849E+03 -1.26289E+04 -3.98740E+03
 -5.70610E+03 -5.60354E+03 -8.69060E+02  8.24109E+02 -2.76817E+03  2.93300E+03 -5.81654E+03  4.53702E+03
 -1.16722E+04 -5.26948E+02 -1.21373E+04 -9.88326E+03 -5.43452E+03 -1.60659E+04  5.16468E+03 -1.24348E+04
  1.05727E+04 -5.53499E+03  7.24386E+03  3.06515E+03 -1.40940E+02  4.91525E+03 -6.23574E+03 -4.25552E+02
 -5.72772E+03 -8.05272E+03 -9.76429E+02 -1.18879E+04  6.74690E+03 -1.32006E+04  1.58580E+04 -6.93331E+03
  1.87801E+04  1.64919E+03  1.35907E+04  1.09127E+04  2.42783E+03  1.49385E+04 -7.64520E+03  1.22602E+04
 -1.02600E+04  3.67403E+03 -4.93802E+03 -2.25726E+03  2.08461E+03 -3.43452E+03  6.58870E+03 -7.74063E+02
  6.08657E+03  5.78629E+03  1.18177E+03  1.00366E+04 -6.93255E+03  9.61774E+03 -1.22307E+04  2.33384E+03
 -8.36185E+03 -6.15170E+03  1.16053E+02 -1.01089E+04  6.70183E+03 -5.36308E+03  6.66641E+03  2.16931E+03
  1.40082E+03  7.24325E+03 -6.61351E+03  8.61160E+03 -9.90601E+03  4.03736E+03 -9.98758E+03 -3.23638E+03
 -5.58374E+03 -1.16906E+04  2.77410E+03 -1.36022E+04  1.10201E+04 -8.21748E+03  1.21700E+04  2.07972E+03
  7.60226E+03  9.87575E+03 -8.35375E+02  1.22247E+04 -8.60291E+03  6.70631E+03 -9.36602E+03 -9.19686E+02
 -8.21995E+03 -7.62987E+03 -1.81841E+03 -9.09844E+03  5.01073E+03 -7.62099E+03  5.32830E+03 -3.63848E+03
  4.07574E+03  1.57746E+03 -4.78193E+02  1.89059E+03 -2.67298E+02 -2.10533E+03  1.52665E+03 -4.89905E+03
  8.07253E+03 -3.27660E+03  1.10604E+04  1.73866E+03  1.11207E+04  7.65418E+03  7.72456E+03  1.49218E+04
 -3.33992E+03  1.72889E+04 -1.45038E+04  1.29225E+04 -1.88522E+04  2.79494E+03 -1.50715E+04 -5.98903E+03
 -7.44201E+03 -1.20674E+04 -1.64586E+02 -1.05614E+04  3.87420E+03 -5.50094E+03  3.69991E+03 -3.91356E+03
  2.64721E+03 -2.27336E+03  2.95165E+03 -3.24220E+03  4.93262E+03 -2.51214E+03  5.94083E+03 -8.94862E+02
  8.01522E+03  1.65644E+03  3.90536E+03  6.74381E+03 -2.06384E+03  7.37972E+03 -8.24501E+03  5.96926E+03
 -1.03786E+04 -1.50142E+03 -6.36160E+03 -7.15577E+03 -4.84797E+02 -1.09644E+04  6.13910E+03 -1.06667E+04
  1.13039E+04 -6.27159E+03  1.38342E+04  1.63018E+03  9.61428E+03  9.52169E+03  1.48009E+03  1.22071E+04
 -4.91147E+03  1.06500E+04 -7.16889E+03  3.62953E+03 -4.74744E+03 -1.35936E+03 -2.19450E+03 -1.52898E+03
 -1.05192E+03  2.12043E+02 -1.49874E+03  2.48586E+03 -4.45133E+03  1.73167E+03 -6.90465E+03 -1.16511E+03
 -4.96171E+03 -6.87913E+03  3.74245E+02 -9.93823E+03  5.96719E+03 -9.45721E+03  9.49032E+03 -2.86238E+03
  9.93777E+03  5.03425E+03  4.30273E+03  8.76156E+03 -1.91471E+03  1.00093E+04 -6.85675E+03  6.16270E+03
 -9.35837E+03  6.03163E+02 -7.60449E+03 -5.97028E+03 -9.44456E+02 -7.97916E+03  4.07911E+03 -6.16501E+03
  6.14116E+03 -2.28312E+03  3.93946E+03  1.69445E+03  1.25170E+03  3.11219E+03  1.09921E+03  1.32538E+03
  2.23596E+03  9.10034E+02  2.42073E+03  1.80921E+03  2.92194E+03  3.61067E+03  2.41061E+03  5.12671E+03
 -2.13624E+03  7.50262E+03 -6.92685E+03  8.00339E+03 -9.80898E+03  2.27029E+03 -1.01200E+04 -3.77773E+03
 -4.69948E+03 -9.64156E+03  1.21786E+03 -1.11037E+04  5.64764E+03 -6.57064E+03  7.65965E+03 -2.03933E+03
  5.96068E+03  3.86330E+03  1.51879E+03  5.48673E+03 -2.22820E+03  3.75606E+03 -4.00305E+03 -2.92178E+02
 -1.92584E+03 -4.02088E+03  2.52667E+03 -4.23175E+03  4.00334E+03 -1.72818E+03  3.78551E+03  8.46684E+02
  2.22195E+03  1.91173E+03  1.26080E+03  1.00141E+03 -9.74975E+02  1.12197E+03  1.78607E+03 -3.66478E+02
  1.08808E+03 -5.73559E+02  4.00584E+03  1.47511E+03  2.16592E+03  4.92348E+03 -9.42205E+02  6.71620E+03
 -4.28148E+03  4.06799E+03 -5.89593E+03  1.32264E+03 -5.38685E+03 -2.16760E+03 -1.76962E+03 -3.10522E+03
  6.02658E+02 -4.05133E+03  2.45915E+03 -1.91880E+03  2.05008E+03  1.47090E+03 -1.34709E+03  3.37147E+03
 -3.96392E+03  1.95879E+03 -4.04250E+03 -2.32662E+03 -2.55088E+03 -5.26571E+03  5.22776E+02 -5.23066E+03
  2.58570E+03 -2.61766E+03  3.63477E+03 -2.27123E+02  3.23223E+03  1.30971E+03  5.26215E+02  2.85913E+03
 -1.56009E+03  3.73985E+02 -2.29870E+03 -1.59819E+03  3.69998E+02 -3.73398E+03  4.63030E+03 -3.22187E+03
  5.70273E+03  3.98136E+02  6.21541E+03  3.40745E+03  1.93281E+03  5.81069E+03 -1.91767E+03  5.88838E+03
 -4.76545E+03  2.50929E+03 -5.34735E+03 -6.18889E+02 -2.90465E+03 -3.91302E+03  1.09328E+03 -3.38223E+03
  4.08846E+03 -2.08844E+03  2.93314E+03  1.50116E+03  1.26836E+03  3.75479E+03 -3.83750E+02  3.15656E+03
 -1.29906E+03  2.16370E+03 -1.50957E+03  3.69402E+02 -5.20907E+02  8.49207E+02 -1.30740E+03  1.15204E+03
 -1.65872E+03  2.45337E+03 -3.97208E+03  1.83193E+03 -5.71046E+03  1.97581E+02 -6.67256E+03 -3.72022E+03
 -3.27291E+03 -7.74719E+03  1.48667E+03 -8.84944E+03  5.06106E+03 -7.53698E+03  8.56697E+03 -2.62598E+03
  7.65799E+03  1.45123E+03  4.78649E+03  5.30083E+03  1.31035E+01  6.17208E+03 -2.21890E+03  4.32582E+03
 -3.53475E+03  1.98908E+03 -2.06644E+03 -5.65831E+02 -7.45386E+02 -3.60954E+02 -5.21705E+02  2.37210E+02
 -1.47174E+03 -1.00465E+02 -1.40232E+03 -1.99345E+02 -3.04996E+02 -1.63309E+03 -4.33728E+02 -2.49019E+03
  2.95732E+03 -2.12334E+03  3.38969E+03  1.40995E+02  4.04055E+03  2.93007E+03  9.77074E+02  5.51856E+03
 -2.89159E+03  6.81072E+03 -6.36792E+03  4.02612E+03 -7.01263E+03 -4.54609E+02 -5.10528E+03 -4.41028E+03
 -2.34597E+03 -6.00184E+03  1.31921E+03 -5.25939E+03  3.42024E+03 -3.00923E+03  3.75437E+03 -4.41991E+01
  2.28499E+03  1.79349E+03  1.60557E+02  1.62125E+03 -1.14248E+03 -8.26595E+01  4.65621E+02 -1.35851E+03
  1.94273E+03 -4.39613E+02  2.27721E+03  5.73935E+02  1.30942E+03  2.09384E+03  3.06005E+02  2.82297E+03
 -2.63113E+03  2.74250E+03 -3.37451E+03  4.24708E+02 -3.26058E+03 -2.61872E+03 -1.67702E+02 -4.47538E+03
  2.76115E+03 -3.59838E+03  3.84744E+03 -1.00519E+03  4.26989E+03  1.46724E+02  2.24862E+03  3.35374E+03
  5.91287E+02  3.44647E+03 -1.42769E+03  2.82812E+03 -2.28718E+03  1.94471E+03 -1.92073E+03  2.57741E+02
 -6.37998E+02 -2.63934E+02 -1.24809E+03  4.62440E+02 -2.15382E+03  8.49421E+02 -3.06402E+03 -7.47846E+02
 -2.93666E+03 -1.46951E+03 -6.58113E+02 -3.63772E+03  1.66644E+03 -4.40225E+03  3.14264E+03 -1.44470E+03
  3.47121E+03  5.50274E+02  1.74322E+03  2.30085E+03 -2.84934E+02  3.81514E+03 -2.62371E+03  2.47968E+03
