 $NMID ID='MM_0lb_SNR800_20hz_g55_93.RAW', FMTDAT='(8E13.5)'
 TRAMP=1., VOLUME=1. $END
  3.09833E+05  5.60273E+02  3.37558E+05  2.50406E+05  8.44494E+04  3.37546E+05 -1.32476E+05  2.50434E+05
 -1.89920E+05  8.24885E+04 -1.11370E+05 -3.27269E+04  1.16966E+03 -5.03958E+04  5.40457E+04  1.71136E+02
  3.49710E+04  5.28844E+04 -1.68419E+04  7.50887E+04 -6.03780E+04  6.28837E+04 -8.33734E+04  3.18093E+04
 -7.95515E+04 -1.09382E+04 -5.64602E+04 -5.01319E+04 -1.51069E+04 -6.83977E+04  2.65611E+04 -4.51842E+04
  3.92864E+04  4.00873E+03  1.56450E+04  4.71536E+04 -3.38691E+04  4.65505E+04 -6.55200E+04 -5.30134E+02
 -5.20722E+04 -5.59919E+04 -6.47824E+03 -7.52469E+04  3.31919E+04 -5.31421E+04  4.65964E+04 -1.63383E+04
  4.18898E+04  1.09761E+04  3.06646E+04  2.46241E+04  1.57668E+04  2.84972E+04 -4.99258E+03  2.67874E+04
 -2.17767E+04  1.28021E+04 -1.90467E+04 -4.35186E+03  4.57503E+03 -7.65745E+03  2.16025E+04  1.10799E+04
  7.51372E+03  3.34901E+04 -3.07435E+04  3.41231E+04 -6.13536E+04  2.29130E+03 -5.52264E+04 -4.14963E+04
 -1.23894E+04 -6.08013E+04  3.80572E+04 -4.34967E+04  5.57866E+04 -2.21003E+03  3.21421E+04  3.07798E+04
 -6.72818E+03  3.33636E+04 -2.85513E+04  1.37217E+04 -2.78578E+04 -4.99975E+03 -1.43875E+04 -1.02397E+04
 -7.49475E+03 -1.14199E+04 -9.36678E+02 -1.67548E+04  6.53272E+03 -2.24867E+04  1.50078E+04 -1.39017E+04
  1.22815E+04  4.28456E+03 -6.32167E+03  1.32400E+04 -1.95623E+04 -2.55739E+03 -8.30207E+03 -3.03857E+04
  2.07666E+04 -4.06529E+04  4.48775E+04 -1.85753E+04  4.19530E+04  1.82369E+04  1.43630E+04  4.19470E+04
 -1.52782E+04  3.14035E+04 -2.33628E+04  9.74047E+02 -8.22104E+03 -2.62620E+04  2.05451E+04 -3.17423E+04
  3.79361E+04 -7.29407E+03  3.11468E+04  2.29603E+04  1.54264E+04  4.26003E+04 -7.69482E+03  4.54211E+04
 -2.84221E+04  2.98673E+04 -3.73765E+04  8.21638E+03 -3.82554E+04 -1.49602E+04 -2.14248E+04 -3.43895E+04
  7.08723E+03 -3.42972E+04  2.92055E+04 -1.25998E+04  2.68844E+04  1.05935E+04  2.70815E+03  1.76619E+04
 -1.30181E+04  7.27664E+03 -9.47730E+03 -7.83404E+03  6.08151E+03 -1.01539E+04  1.73607E+04  6.42384E+03
  1.24669E+04  2.15258E+04 -6.69132E+03  2.34162E+04 -2.15708E+04  8.88909E+03 -2.48396E+04 -6.27667E+03
 -1.63089E+04 -1.64640E+04 -5.80527E+03 -1.68198E+04  3.70496E+03 -1.45842E+04  1.22014E+04 -1.42746E+04
  2.10303E+04 -1.17291E+04  2.79770E+04  8.55616E+02  2.11742E+04  1.61528E+04  4.18331E+03  3.23188E+04
 -1.61313E+04  2.75012E+04 -2.56930E+04  9.67899E+03 -1.97246E+04 -1.03425E+04 -3.85827E+03 -1.36362E+04
  2.33780E+03 -4.40420E+03 -2.39255E+03  5.05082E+03 -1.26676E+04  5.12626E+03 -1.31303E+04 -4.78098E+03
 -8.72790E+03 -1.51546E+04  4.41378E+03 -1.91780E+04  1.25378E+04 -1.37016E+04  1.45045E+04 -1.67700E+03
  8.52448E+03  1.06938E+04 -7.80616E+02  1.54625E+04 -9.97090E+03  8.80416E+03 -1.51499E+04 -3.26754E+03
 -1.12384E+04 -1.37760E+04 -1.69148E+03 -1.87652E+04  8.43246E+03 -1.50386E+04  1.58829E+04 -7.04467E+03
  1.42838E+04  6.29800E+02  1.02278E+04  4.02961E+03  4.98205E+03  3.13055E+02  7.58640E+03 -1.46170E+03
  1.34688E+04  2.19302E+03  1.42469E+04  1.23897E+04  9.00042E+03  2.40685E+04 -2.92813E+03  2.58898E+04
 -1.57661E+04  1.97565E+04 -2.36843E+04  9.53680E+03 -2.42586E+04 -1.67170E+03 -2.08871E+04 -1.39866E+04
 -9.88733E+03 -1.95160E+04  6.58576E+03 -1.84292E+04  1.61713E+04 -1.08135E+04  1.51067E+04  3.47895E+03
  6.43718E+03  1.04556E+04 -6.82359E+03  1.02504E+04 -1.29630E+04  2.70241E+03 -9.95309E+03 -7.75338E+03
 -2.54903E+02 -1.20795E+04  5.52313E+03 -9.29914E+03  7.50033E+03 -1.31584E+03  1.57244E+03  4.82499E+03
 -5.25095E+03  1.31407E+03 -3.31436E+03 -4.57981E+03  1.00208E+03 -9.76689E+03  7.50122E+03 -9.55976E+03
  1.17157E+04 -4.37204E+03  1.15234E+04  2.90548E+03  9.71955E+03  9.03422E+03  4.62719E+03  1.32892E+04
 -1.34364E+03  1.53904E+04 -9.26015E+03  9.63218E+03 -1.05898E+04  2.88579E+03 -7.94470E+03 -1.47282E+03
 -4.31466E+03 -3.17700E+03 -1.10573E+03  1.71686E+03 -1.48281E+03  1.92308E+03 -3.41945E+03  3.61538E+03
 -7.90359E+03 -2.98796E+02 -8.38781E+03 -6.88473E+03 -3.38277E+03 -1.12260E+04  3.47924E+03 -8.09465E+03
  6.96745E+03 -3.53750E+03  5.18667E+03  1.93503E+03  5.90046E+02  3.07924E+03 -3.41866E+03 -1.40314E+02
 -3.12709E+03 -4.90855E+03 -8.78599E+02 -6.73266E+03  3.74085E+03 -7.56925E+03  9.32500E+03 -3.52413E+03
  1.11156E+04  7.91752E+02  8.53244E+03  5.81565E+03  1.62765E+03  7.88404E+03 -4.91239E+03  8.07951E+03
 -6.48985E+03  2.49752E+03 -3.25064E+03 -1.13181E+03  1.18401E+03 -1.76304E+03  4.61110E+03 -8.00776E+02
  3.96956E+03  3.17062E+03  1.00152E+03  5.97171E+03 -3.98980E+03  6.35681E+03 -7.23997E+03  1.94204E+03
 -4.81099E+03 -3.34585E+03  3.04011E+02 -6.04117E+03  3.35586E+03 -3.17987E+03  3.06146E+03  9.06864E+02
  4.31066E+02  2.86745E+03 -3.93115E+03  4.30841E+03 -4.46269E+03  2.27866E+03 -3.85817E+03 -6.79388E+02
 -2.77596E+03 -5.24345E+03  1.09289E+03 -6.67701E+03  5.56803E+03 -4.13029E+03  5.96507E+03  1.05937E+03
  4.15001E+03  4.92061E+03  1.20629E+02  6.49125E+03 -4.63075E+03  3.70451E+03 -4.76679E+03 -4.54183E+02
 -5.42318E+03 -4.75041E+03 -1.27195E+03 -4.51769E+03  2.15009E+03 -4.33340E+03  3.05393E+03 -2.96066E+03
  2.61793E+03  1.46406E+02  8.09702E+01  1.23571E+03  7.29492E+02 -3.86452E+02 -3.72341E+02 -1.45991E+03
  3.14726E+03 -4.27349E+02  4.40910E+03  6.66215E+02  4.80513E+03  2.68410E+03  4.98289E+03  6.21137E+03
 -1.08638E+03  7.27824E+03 -6.79497E+03  5.79715E+03 -8.87188E+03  9.94830E+02 -6.83147E+03 -1.93638E+03
 -3.90454E+03 -5.68849E+03 -6.79412E+02 -4.43254E+03  1.96489E+03 -1.79491E+03  1.43159E+03 -1.70692E+03
  1.30102E+03 -1.49301E+03  2.52973E+03 -2.14664E+03  3.38175E+03 -1.23171E+03  3.16478E+03  4.88750E+02
  4.09355E+03  1.04808E+03  7.39815E+02  3.22397E+03 -1.60230E+03  2.55903E+03 -3.92222E+03  2.18970E+03
 -3.87795E+03 -8.02925E+02 -1.25008E+03 -2.54793E+03  7.12212E+02 -4.51477E+03  2.89894E+03 -4.80220E+03
  4.36062E+03 -2.59077E+03  5.77872E+03 -4.32546E+01  4.15975E+03  3.45677E+03  1.02717E+03  5.10145E+03
 -1.97245E+03  5.40062E+03 -2.93718E+03  1.75648E+03 -1.66104E+03 -9.53604E+02 -3.26250E+02 -5.41784E+02
 -4.24843E+02  4.39030E+02 -1.03725E+03  1.69327E+03 -2.37973E+03  9.91247E+02 -3.53638E+03 -3.43139E+02
 -1.33272E+03 -3.40358E+03  7.24760E+02 -4.01327E+03  2.21469E+03 -3.74547E+03  3.11143E+03 -9.71537E+02
  3.42413E+03  2.10636E+03  1.17070E+03  2.51411E+03 -7.90476E+02  3.67612E+03 -2.21440E+03  2.24508E+03
 -3.16005E+03  4.51990E+02 -3.08493E+03 -1.97966E+03  9.61522E+01 -2.69674E+03  1.18156E+03 -1.81096E+03
  2.26294E+03 -1.18787E+03  1.37467E+03  4.00560E+02  4.34742E+02  1.30718E+03  7.30619E+02  4.33798E+02
  1.61549E+03  5.94699E+02  1.22878E+03  8.47163E+02  1.04622E+03  2.00951E+03  1.42965E+03  1.02352E+03
 -1.23884E+03  2.10301E+03 -1.78845E+03  3.24908E+03 -2.17359E+03  9.47387E+02 -3.45817E+03  3.81990E+01
 -1.42613E+03 -2.80065E+03  6.40269E+02 -3.80036E+03  1.28182E+03 -2.02483E+03  2.41261E+03 -7.39020E+02
  2.07402E+03  1.73801E+03  9.71325E+01  2.03109E+03 -4.10593E+02  6.71152E+02 -4.38584E+02  3.20196E+01
 -6.61776E+02 -1.02193E+03  1.12782E+03 -9.86586E+02  9.77364E+02 -1.02037E+03  1.17443E+03  3.00839E+01
  8.94261E+02 -3.51390E+01  7.96136E+02 -5.45493E+02 -6.43636E+01  5.29118E+02  1.63834E+03 -2.43254E+02
 -2.69766E+02  1.41379E+02  1.63185E+03  6.97309E+02  2.98816E+01  1.99632E+03 -4.72053E+02  2.14671E+03
 -1.00871E+03  4.37959E+02 -1.68690E+03  2.96853E+02 -1.42607E+03 -4.69860E+02  9.09485E+01 -7.90394E+02
  3.10983E+02 -8.81650E+02  9.78263E+02 -6.22061E+02  6.07910E+02  1.25227E+03 -6.26018E+02  7.87734E+02
 -1.24780E+03  2.42358E+02 -7.56252E+02 -1.12223E+03 -4.94054E+02 -1.65671E+03  4.55094E+01 -1.00823E+03
  4.33832E+02 -1.36092E+02  4.16935E+02  8.57559E+01  1.09520E+03 -2.59329E+01  3.98876E+02  1.01073E+03
 -2.52956E+02 -1.75994E+02 -7.33706E+02 -1.32471E+02  7.18166E+02 -2.21724E+02  1.25535E+03 -5.41588E+02
  8.06204E+02  5.23322E+01  2.36005E+03  5.52917E+02  9.33493E+02  9.15917E+02 -4.61680E+01  1.49485E+03
 -8.33870E+02  3.72780E+01 -1.13097E+03 -3.81412E+02 -7.71883E+02 -1.05600E+03  9.57504E+01 -7.73296E+01
  1.17725E+03 -7.52131E+02  6.11820E+02  5.16318E+02  2.29120E+02  9.25501E+02  3.52683E+02  9.53262E+02
 -1.57622E+02  7.71011E+02 -4.07388E+02  9.64789E+01  2.76802E+02  2.85172E+02 -7.89087E+02  4.80904E+02
 -7.10855E+02  9.76031E+02 -1.44113E+03  1.49464E+02 -1.13891E+03  3.51563E+02 -1.58627E+03 -5.96909E+02
 -7.52265E+02 -1.65277E+03  3.41276E+02 -2.37336E+03  4.44177E+02 -1.63356E+03  1.81630E+03 -7.40371E+02
  1.52234E+03 -3.13152E+02  5.79876E+02  1.02562E+03 -8.52058E+02  6.10140E+02 -3.95605E+02  4.62915E+02
 -7.56929E+02  5.49861E+02 -1.45448E+02 -1.94771E+02 -6.10625E+02  3.29112E+02 -7.28709E+02  1.89890E+02
 -1.07002E+03  4.82066E+01 -7.59236E+02 -2.77825E+00  3.67189E+02 -5.63985E+02 -1.94174E+02 -7.73038E+02
  1.12551E+03 -3.34104E+02  1.35115E+02  2.30829E+02  7.03349E+02  9.86767E+02 -7.60409E+02  7.34574E+02
 -9.28661E+02  1.80401E+03 -1.05261E+03  8.79176E+02 -1.05475E+03 -1.34983E+02 -6.64891E+02 -8.65183E+02
 -6.46295E+02 -8.47170E+02  1.54606E+02 -7.80135E+02  1.75455E+02 -2.49273E+02  4.71534E+02 -1.02748E+02
  4.90268E+02  8.83769E+01  4.09231E+02  2.72051E+02 -9.54694E+01 -2.22043E+02 -1.90328E+02 -4.97162E+01
  2.85097E+02  3.55031E+02 -6.21199E+01  5.36384E+02 -3.50778E+02  2.02451E+02  3.26079E+02 -9.89902E+01
 -3.79561E+02  1.91971E+02 -3.49829E+02  2.44797E+02 -5.63636E+02 -3.09992E+02  2.86067E+02 -9.08160E+02
  2.24954E+02 -1.66166E+02  1.71011E+02  3.80972E+01  5.22037E+02 -5.67361E+02  1.64448E+02  5.60742E+02
  4.79381E+02  2.62488E+02 -2.45133E+02  2.49248E+02 -2.95086E+02  2.55220E+02 -2.72774E+02 -1.59773E+02
 -2.24007E+02 -3.19733E+02 -5.75933E+02  2.57929E+02 -6.52079E+02  4.33939E+02 -3.95130E+02 -2.46841E+02
 -8.04188E+02  5.63680E+01 -2.41105E+02 -6.64320E+02  8.63197E+02 -9.51196E+02  5.08045E+02 -3.12532E+02
  4.14319E+02  1.37199E+02 -3.30114E+02 -2.44063E+01  1.62006E+02  6.72476E+02 -1.79231E+02  3.79708E+02
