 $NMID ID='MM_0lb_SNR800_17hz_g50_97.RAW', FMTDAT='(8E13.5)'
 TRAMP=1., VOLUME=1. $END
  3.09724E+05  5.33177E+02  3.37457E+05  2.50401E+05  8.43943E+04  3.37667E+05 -1.32425E+05  2.50584E+05
 -1.90113E+05  8.27219E+04 -1.11554E+05 -3.28243E+04  8.81443E+02 -5.00628E+04  5.36061E+04  1.62343E+02
  3.55266E+04  5.28566E+04 -1.69183E+04  7.49982E+04 -6.07101E+04  6.29798E+04 -8.35184E+04  3.17184E+04
 -7.99391E+04 -1.13992E+04 -5.66407E+04 -5.04978E+04 -1.47886E+04 -6.90157E+04  2.69475E+04 -4.51870E+04
  3.96934E+04  3.99061E+03  1.60729E+04  4.75061E+04 -3.42477E+04  4.66644E+04 -6.61055E+04 -3.12026E+02
 -5.27094E+04 -5.62764E+04 -6.54199E+03 -7.60524E+04  3.34866E+04 -5.40228E+04  4.69570E+04 -1.69507E+04
  4.26009E+04  1.09319E+04  3.09745E+04  2.47765E+04  1.57016E+04  2.88296E+04 -5.07456E+03  2.70512E+04
 -2.18569E+04  1.26734E+04 -1.89333E+04 -4.81325E+03  4.67715E+03 -7.47056E+03  2.16838E+04  1.14585E+04
  7.37481E+03  3.42303E+04 -3.11275E+04  3.44931E+04 -6.19861E+04  1.92892E+03 -5.59079E+04 -4.19927E+04
 -1.23855E+04 -6.17242E+04  3.90259E+04 -4.42091E+04  5.66169E+04 -2.07408E+03  3.29523E+04  3.13321E+04
 -6.46021E+03  3.43849E+04 -2.89200E+04  1.45605E+04 -2.89719E+04 -5.29015E+03 -1.53388E+04 -1.02989E+04
 -7.69070E+03 -1.19049E+04 -8.08454E+02 -1.71195E+04  7.02385E+03 -2.27245E+04  1.52505E+04 -1.38508E+04
  1.18761E+04  4.87076E+03 -7.23482E+03  1.28811E+04 -1.99581E+04 -3.26474E+03 -8.02514E+03 -3.17925E+04
  2.13769E+04 -4.17874E+04  4.62985E+04 -1.91890E+04  4.32812E+04  1.87626E+04  1.50629E+04  4.26796E+04
 -1.57689E+04  3.17142E+04 -2.44024E+04  1.45389E+03 -8.93722E+03 -2.69715E+04  2.10678E+04 -3.22527E+04
  3.92411E+04 -8.13365E+03  3.30058E+04  2.31086E+04  1.66082E+04  4.41344E+04 -8.02662E+03  4.72185E+04
 -2.93994E+04  3.15293E+04 -3.95168E+04  8.86788E+03 -4.00277E+04 -1.58061E+04 -2.24583E+04 -3.60499E+04
  7.07015E+03 -3.56466E+04  3.01167E+04 -1.35483E+04  2.78216E+04  1.08439E+04  3.27264E+03  1.85541E+04
 -1.32944E+04  7.80484E+03 -1.02793E+04 -7.47585E+03  5.87435E+03 -1.03273E+04  1.73156E+04  6.32821E+03
  1.28486E+04  2.19621E+04 -6.39465E+03  2.38392E+04 -2.18592E+04  9.95625E+03 -2.64744E+04 -5.71014E+03
 -1.83046E+04 -1.66092E+04 -6.68878E+03 -1.83240E+04  3.85384E+03 -1.66838E+04  1.35307E+04 -1.57907E+04
  2.34586E+04 -1.20350E+04  2.98991E+04  1.89859E+03  2.25523E+04  1.78061E+04  4.07917E+03  3.38022E+04
 -1.69180E+04  2.89546E+04 -2.67853E+04  9.81470E+03 -2.02513E+04 -1.03764E+04 -4.07609E+03 -1.37904E+04
  2.49904E+03 -3.72755E+03 -3.54312E+03  5.77922E+03 -1.45381E+04  5.12767E+03 -1.44225E+04 -5.77719E+03
 -9.20652E+03 -1.66621E+04  4.80404E+03 -2.08275E+04  1.35418E+04 -1.48592E+04  1.59740E+04 -1.51227E+03
  9.85943E+03  1.17908E+04 -1.00360E+03  1.71747E+04 -1.13362E+04  9.53121E+03 -1.68457E+04 -3.68773E+03
 -1.22501E+04 -1.51383E+04 -1.62469E+03 -2.05758E+04  9.29916E+03 -1.67604E+04  1.70249E+04 -7.80521E+03
  1.59823E+04  5.13196E+02  1.12749E+04  4.08554E+03  6.11655E+03  6.29919E+02  8.50907E+03 -1.46950E+03
  1.51173E+04  2.75847E+03  1.64452E+04  1.37925E+04  1.05404E+04  2.67006E+04 -3.09245E+03  2.90765E+04
 -1.75010E+04  2.30714E+04 -2.68780E+04  1.11810E+04 -2.82397E+04 -1.87648E+03 -2.38714E+04 -1.60038E+04
 -1.08316E+04 -2.30690E+04  7.71485E+03 -2.12613E+04  1.82691E+04 -1.15705E+04  1.69223E+04  4.24712E+03
  7.00335E+03  1.22769E+04 -7.96675E+03  1.09610E+04 -1.38711E+04  2.53267E+03 -1.10282E+04 -8.93777E+03
 -1.41714E+02 -1.32706E+04  6.83874E+03 -1.01899E+04  8.70900E+03 -1.47898E+03  1.72082E+03  5.46634E+03
 -5.94693E+03  1.95424E+03 -4.49938E+03 -4.95720E+03  3.73628E+02 -1.10615E+04  8.67770E+03 -1.15530E+04
  1.38786E+04 -5.57135E+03  1.41130E+04  3.07315E+03  1.21808E+04  1.06666E+04  5.68803E+03  1.63691E+04
 -2.24951E+03  1.80867E+04 -1.10399E+04  1.13969E+04 -1.30362E+04  3.39509E+03 -9.68968E+03 -2.58119E+03
 -4.72807E+03 -3.74016E+03 -8.14307E+02  1.26497E+03 -2.07841E+03  2.39648E+03 -3.97801E+03  3.72402E+03
 -8.61820E+03 -2.66079E+02 -9.54940E+03 -7.57004E+03 -3.80737E+03 -1.26793E+04  3.81935E+03 -9.51440E+03
  8.06450E+03 -4.27786E+03  6.00466E+03  2.65135E+03  2.10871E+02  3.54111E+03 -4.04568E+03 -1.44891E+02
 -4.02285E+03 -5.68199E+03 -7.71934E+02 -8.25678E+03  4.50625E+03 -8.98680E+03  1.11523E+04 -4.66300E+03
  1.33129E+04  7.50914E+02  9.58622E+03  7.12031E+03  1.90902E+03  9.95515E+03 -5.89742E+03  9.05876E+03
 -7.63976E+03  2.97246E+03 -3.87959E+03 -1.18167E+03  1.36797E+03 -1.91119E+03  5.26696E+03 -1.03317E+03
  4.68283E+03  4.16629E+03  9.47839E+02  7.17247E+03 -5.09175E+03  7.13870E+03 -9.06800E+03  1.82750E+03
 -5.47521E+03 -4.18347E+03  3.26023E+02 -7.50382E+03  4.43578E+03 -3.72981E+03  4.01268E+03  1.46351E+03
  7.05424E+02  4.47958E+03 -4.71854E+03  5.75192E+03 -5.75134E+03  2.96917E+03 -5.71986E+03 -1.37028E+03
 -3.46639E+03 -7.42176E+03  1.29318E+03 -8.52135E+03  7.09706E+03 -5.27807E+03  7.64840E+03  1.29129E+03
  5.12766E+03  6.38262E+03  3.77757E+01  8.17533E+03 -5.89006E+03  4.84530E+03 -6.37838E+03 -6.83952E+02
 -6.45910E+03 -5.63097E+03 -1.48404E+03 -5.80752E+03  3.20306E+03 -5.36569E+03  3.50117E+03 -2.98064E+03
  3.24859E+03  3.96880E+02  5.23567E+01  1.30623E+03  5.74909E+02 -6.21051E+02  5.21516E+02 -2.35219E+03
  4.56962E+03 -1.15554E+03  6.72207E+03  7.37280E+02  6.97983E+03  3.85936E+03  5.85719E+03  8.85882E+03
 -1.45072E+03  1.03505E+04 -9.45048E+03  7.69544E+03 -1.17431E+04  1.29157E+03 -9.07921E+03 -2.96001E+03
 -4.69120E+03 -7.56293E+03 -5.44650E+02 -6.17326E+03  2.52792E+03 -2.93512E+03  2.25870E+03 -2.51041E+03
  1.61365E+03 -1.83182E+03  2.23450E+03 -2.52651E+03  3.60611E+03 -1.63707E+03  4.12020E+03  2.02560E+02
  5.09895E+03  1.44319E+03  1.55477E+03  4.04526E+03 -1.40366E+03  3.64750E+03 -5.10541E+03  3.11442E+03
 -6.11582E+03 -1.14603E+03 -2.49653E+03 -4.22097E+03  1.26295E+02 -6.02987E+03  3.82903E+03 -6.66335E+03
  6.21340E+03 -3.66017E+03  8.04448E+03  4.87671E+02  5.87504E+03  5.40496E+03  1.28943E+03  7.33131E+03
 -2.49270E+03  6.88578E+03 -3.94565E+03  2.11196E+03 -2.49055E+03 -1.06690E+03 -7.17744E+02 -8.53955E+02
 -7.90267E+02  2.25973E+02 -1.02719E+03  2.09400E+03 -3.03368E+03  1.22007E+03 -4.70470E+03 -6.46127E+02
 -1.81583E+03 -4.64278E+03  6.27433E+02 -5.52937E+03  3.62832E+03 -5.32740E+03  4.57907E+03 -1.40763E+03
  4.94872E+03  2.87797E+03  2.43629E+03  4.54878E+03 -1.24727E+03  5.50992E+03 -3.31139E+03  3.20266E+03
 -4.89471E+03  6.45494E+02 -4.16293E+03 -3.03491E+03 -3.29023E+02 -3.76396E+03  2.07743E+03 -3.21560E+03
  3.37970E+03 -1.85654E+03  2.03525E+03  4.69569E+02  6.16350E+02  1.94460E+03  9.34746E+02  4.66934E+02
  1.71242E+03  4.96887E+02  1.36012E+03  1.00345E+03  1.43602E+03  2.25979E+03  1.68292E+03  2.34127E+03
 -1.32878E+03  3.99660E+03 -3.09484E+03  4.56762E+03 -4.20184E+03  1.72633E+03 -5.29429E+03 -8.96577E+02
 -2.21390E+03 -4.67997E+03  1.17472E+03 -5.97245E+03  2.57034E+03 -3.41290E+03  3.90392E+03 -1.26505E+03
  3.24201E+03  2.08512E+03  4.48710E+02  2.51012E+03 -1.23716E+03  1.36759E+03 -1.38653E+03 -7.78688E+00
 -9.23470E+02 -2.11208E+03  1.39845E+03 -1.97097E+03  1.87241E+03 -9.42862E+02  1.54170E+03  5.58044E+02
  1.12546E+03  5.38464E+02  8.61368E+02 -3.46884E+02 -4.64030E+02  8.81490E+02  1.70544E+03 -4.69878E+02
  9.60346E+01 -1.00663E+02  2.12626E+03  6.80127E+02  7.06717E+02  2.75568E+03 -5.92331E+02  3.48821E+03
 -1.85937E+03  1.49829E+03 -2.66938E+03  5.44124E+02 -2.66395E+03 -1.06721E+03 -6.73429E+02 -1.19697E+03
  4.07295E+02 -1.42156E+03  1.23921E+03 -7.15652E+02  9.04541E+02  1.28111E+03 -6.68834E+02  1.31725E+03
 -1.55792E+03  7.22353E+02 -1.62254E+03 -1.61301E+03 -1.19400E+03 -2.53960E+03  1.25464E+02 -2.06984E+03
  7.19827E+02 -8.39461E+02  9.69300E+02  4.19469E+01  1.84200E+03  1.93605E+02  3.76896E+02  1.63640E+03
 -5.41614E+02  2.00790E+01 -1.09600E+03 -5.54375E+02  1.02097E+03 -1.60225E+03  2.07857E+03 -1.22335E+03
  1.84158E+03  1.83447E+02  3.26921E+03  1.01174E+03  1.25795E+03  2.13638E+03 -5.03831E+02  2.32454E+03
 -1.99839E+03  5.31367E+02 -2.12177E+03 -2.07752E+02 -7.36069E+02 -1.45519E+03  2.43087E+02 -1.15819E+03
  1.62781E+03 -7.68408E+02  9.06821E+02  9.12914E+02  3.99002E+02  1.30176E+03  2.31339E+01  1.15320E+03
 -4.55441E+02  1.43405E+03 -5.41165E+02  1.41145E+02 -1.92347E+02  4.76608E+02 -6.35173E+02  6.99467E+02
 -5.31747E+02  1.25122E+03 -2.14407E+03  6.02274E+02 -2.00922E+03  2.81483E+02 -3.01147E+03 -1.38653E+03
 -1.38887E+03 -3.26662E+03  6.14314E+02 -3.64268E+03  1.51472E+03 -3.11891E+03  3.54024E+03 -1.31193E+03
  3.17829E+03 -1.18580E+02  1.71356E+03  2.20120E+03 -3.87564E+02  1.74712E+03 -9.26502E+02  1.69246E+03
 -1.33232E+03  1.18409E+03 -5.41320E+02 -2.71766E+02 -7.37795E+02  4.33612E+01 -6.31373E+02 -1.55102E+02
 -1.14014E+03 -1.57584E+01 -1.03247E+03 -2.04906E+01  1.45946E+02 -6.13627E+02 -3.65301E+02 -1.02297E+03
  1.63948E+03 -9.35921E+02  8.11437E+02  4.52069E+02  1.72531E+03  8.93715E+02 -1.59752E+02  2.25732E+03
 -1.20464E+03  2.99937E+03 -2.28734E+03  1.50637E+03 -2.16811E+03 -4.79078E+02 -1.67096E+03 -1.91759E+03
 -1.08963E+03 -2.00351E+03  3.68367E+02 -1.92074E+03  6.49333E+02 -9.33628E+02  1.21824E+03  1.42957E+02
  1.10821E+03  5.11706E+02  2.96251E+02  4.93451E+02 -4.13320E+02 -4.14471E+01  9.06231E+01 -3.40217E+02
  7.24888E+02  1.66049E+02  5.27650E+02  1.73510E+02 -3.79059E+01  3.52941E+02  3.34066E+02  4.40027E+02
 -9.03738E+02  6.51463E+02 -1.12785E+03  3.35688E+02 -1.05324E+03 -8.90266E+02 -1.09576E+02 -1.67416E+03
  6.57213E+02 -1.26462E+03  7.81170E+02 -7.28003E+01  1.46307E+03 -5.41071E+02  4.38354E+02  1.12189E+03
  5.56836E+02  5.58111E+02 -3.01323E+02  4.91570E+02 -8.63690E+02  7.08721E+02 -4.99535E+02  2.84018E+02
 -1.95697E+02  1.73274E+02 -4.79136E+02  1.29196E+02 -5.19313E+02  1.38335E+02 -1.04355E+03 -3.32995E+02
 -1.30260E+03  4.14553E+01 -3.20049E+02 -1.19083E+03  9.65192E+02 -1.92237E+03  9.12413E+02 -2.38862E+02
  1.09035E+03  2.60793E+02  4.58242E+01  3.90455E+02  1.25964E+02  9.22553E+02 -7.65709E+02  8.98863E+02
