 $NMID ID='MM_0lb_SNR800_17hz_g50_27.RAW', FMTDAT='(8E13.5)'
 TRAMP=1., VOLUME=1. $END
  3.09860E+05  2.38814E+02  3.37411E+05  2.50440E+05  8.46279E+04  3.37485E+05 -1.32621E+05  2.50430E+05
 -1.90214E+05  8.26006E+04 -1.11440E+05 -3.26761E+04  1.23005E+03 -5.02277E+04  5.36160E+04  5.53739E+01
  3.51424E+04  5.25214E+04 -1.68465E+04  7.50432E+04 -6.08363E+04  6.29069E+04 -8.33900E+04  3.16145E+04
 -8.00573E+04 -1.11996E+04 -5.66642E+04 -5.07568E+04 -1.50248E+04 -6.90180E+04  2.71313E+04 -4.51036E+04
  3.96364E+04  4.07465E+03  1.58493E+04  4.72510E+04 -3.36325E+04  4.69807E+04 -6.58763E+04 -5.91548E+02
 -5.26777E+04 -5.64084E+04 -6.32844E+03 -7.58546E+04  3.33165E+04 -5.36960E+04  4.67878E+04 -1.65509E+04
  4.24439E+04  1.10659E+04  3.14485E+04  2.50798E+04  1.61171E+04  2.88906E+04 -4.80551E+03  2.68773E+04
 -2.14912E+04  1.24513E+04 -1.92233E+04 -4.80934E+03  4.65245E+03 -7.75434E+03  2.18027E+04  1.16456E+04
  7.48199E+03  3.42240E+04 -3.10133E+04  3.47456E+04 -6.21001E+04  2.36247E+03 -5.60875E+04 -4.19878E+04
 -1.25031E+04 -6.22128E+04  3.90632E+04 -4.42361E+04  5.66162E+04 -2.04812E+03  3.28076E+04  3.15480E+04
 -6.27207E+03  3.45985E+04 -2.89619E+04  1.42657E+04 -2.88823E+04 -4.78511E+03 -1.51681E+04 -1.05137E+04
 -7.67216E+03 -1.23396E+04 -8.84693E+02 -1.73763E+04  7.18892E+03 -2.30032E+04  1.53600E+04 -1.36908E+04
  1.20359E+04  4.77297E+03 -7.12664E+03  1.29360E+04 -2.01530E+04 -3.17700E+03 -8.29468E+03 -3.17393E+04
  2.17608E+04 -4.16687E+04  4.62733E+04 -1.87184E+04  4.34588E+04  1.86455E+04  1.46350E+04  4.27441E+04
 -1.54361E+04  3.21076E+04 -2.44662E+04  1.39545E+03 -8.84821E+03 -2.71040E+04  2.05485E+04 -3.23059E+04
  3.92291E+04 -8.12065E+03  3.30980E+04  2.32354E+04  1.64909E+04  4.41981E+04 -7.86243E+03  4.73685E+04
 -2.96028E+04  3.14480E+04 -3.92291E+04  8.82191E+03 -4.00540E+04 -1.58232E+04 -2.22836E+04 -3.58395E+04
  7.10765E+03 -3.58856E+04  3.00792E+04 -1.37147E+04  2.77773E+04  1.09316E+04  3.77308E+03  1.84608E+04
 -1.34866E+04  7.78674E+03 -1.00308E+04 -7.79143E+03  6.21412E+03 -1.03362E+04  1.74255E+04  6.32941E+03
  1.27183E+04  2.16674E+04 -6.51538E+03  2.40546E+04 -2.17480E+04  1.02519E+04 -2.62446E+04 -5.77180E+03
 -1.86261E+04 -1.64352E+04 -6.79948E+03 -1.81680E+04  3.75809E+03 -1.64632E+04  1.38685E+04 -1.62589E+04
  2.33267E+04 -1.19015E+04  2.98343E+04  1.60673E+03  2.22501E+04  1.76754E+04  4.20351E+03  3.39125E+04
 -1.66924E+04  2.86141E+04 -2.66874E+04  9.87523E+03 -2.00546E+04 -1.04526E+04 -3.98262E+03 -1.37360E+04
  2.34616E+03 -3.63930E+03 -3.78698E+03  5.80856E+03 -1.42969E+04  5.48698E+03 -1.47333E+04 -5.91292E+03
 -9.23067E+03 -1.67938E+04  4.82791E+03 -2.06825E+04  1.36152E+04 -1.51846E+04  1.57789E+04 -1.33344E+03
  9.62119E+03  1.20681E+04 -6.75029E+02  1.69302E+04 -1.12973E+04  9.57408E+03 -1.69506E+04 -3.71813E+03
 -1.23865E+04 -1.54071E+04 -1.86186E+03 -2.05550E+04  9.34942E+03 -1.65873E+04  1.72499E+04 -8.07494E+03
  1.59261E+04  4.43424E+02  1.13747E+04  3.94654E+03  5.72559E+03  7.72004E+02  8.42675E+03 -1.72862E+03
  1.52746E+04  2.66464E+03  1.64356E+04  1.37368E+04  1.06576E+04  2.66984E+04 -2.96202E+03  2.93708E+04
 -1.71282E+04  2.29534E+04 -2.72797E+04  1.10341E+04 -2.82135E+04 -2.00272E+03 -2.38266E+04 -1.62216E+04
 -1.09978E+04 -2.26097E+04  7.61935E+03 -2.11693E+04  1.81528E+04 -1.17294E+04  1.68151E+04  4.22500E+03
  6.92210E+03  1.23146E+04 -7.83953E+03  1.12087E+04 -1.46835E+04  2.44102E+03 -1.11769E+04 -8.54186E+03
 -9.91943E+01 -1.33189E+04  6.92075E+03 -1.01204E+04  8.94364E+03 -1.12208E+03  1.79610E+03  5.63865E+03
 -6.10805E+03  1.99613E+03 -4.51503E+03 -5.28363E+03  4.80531E+02 -1.14820E+04  8.38537E+03 -1.14117E+04
  1.37547E+04 -5.60475E+03  1.42428E+04  2.87990E+03  1.20207E+04  1.09372E+04  5.78606E+03  1.60041E+04
 -2.04613E+03  1.80472E+04 -1.14112E+04  1.13560E+04 -1.26970E+04  3.12998E+03 -9.34994E+03 -2.65087E+03
 -4.94085E+03 -3.80575E+03 -7.51774E+02  1.32800E+03 -1.88181E+03  2.06106E+03 -4.25853E+03  3.80651E+03
 -9.13311E+03 -4.75578E+02 -9.55856E+03 -7.96269E+03 -3.84246E+03 -1.24838E+04  4.16289E+03 -9.55443E+03
  8.12697E+03 -4.34303E+03  5.80279E+03  2.31138E+03  3.30135E+02  3.37721E+03 -4.04645E+03 -8.39769E+01
 -3.79073E+03 -5.70442E+03 -6.19174E+02 -8.60461E+03  4.27980E+03 -9.01399E+03  1.13965E+04 -4.74458E+03
  1.32025E+04  8.90437E+02  1.02130E+04  7.28863E+03  2.06391E+03  1.00461E+04 -5.90592E+03  9.09955E+03
 -7.57065E+03  2.85876E+03 -3.54434E+03 -1.60822E+03  1.48973E+03 -2.02476E+03  5.05329E+03 -1.08444E+03
  4.46595E+03  3.84797E+03  1.12236E+03  6.89190E+03 -5.14144E+03  6.84233E+03 -8.93074E+03  2.02027E+03
 -5.38250E+03 -4.24394E+03  5.81983E+02 -7.20550E+03  4.47052E+03 -3.88121E+03  4.41413E+03  1.07190E+03
  7.33782E+02  4.14686E+03 -4.55511E+03  5.47831E+03 -6.15441E+03  2.59703E+03 -5.48636E+03 -1.78613E+03
 -3.59045E+03 -7.34925E+03  1.54965E+03 -8.53696E+03  7.34721E+03 -5.24633E+03  7.57929E+03  1.16582E+03
  5.25984E+03  6.22768E+03 -8.77547E+01  8.31158E+03 -5.68476E+03  4.58252E+03 -6.16460E+03 -5.56445E+02
 -6.27200E+03 -5.99218E+03 -1.36936E+03 -5.74008E+03  3.11618E+03 -4.95484E+03  3.56761E+03 -3.08167E+03
  3.13010E+03  6.20198E+02 -2.52567E+02  1.47044E+03  2.75094E+02 -7.47096E+02  5.28165E+02 -2.46521E+03
  4.97123E+03 -1.15390E+03  6.52532E+03  5.79692E+02  6.73108E+03  3.98019E+03  5.91355E+03  8.73641E+03
 -1.78419E+03  1.03086E+04 -8.88511E+03  7.90865E+03 -1.19395E+04  1.58049E+03 -9.34014E+03 -3.39696E+03
 -4.88667E+03 -7.56062E+03 -2.90243E+02 -6.27360E+03  2.27887E+03 -2.85238E+03  2.05530E+03 -2.19764E+03
  1.47903E+03 -1.39678E+03  2.46407E+03 -2.65241E+03  3.86598E+03 -1.60012E+03  3.94194E+03  6.58232E+01
  5.14696E+03  1.63408E+03  1.68163E+03  4.04768E+03 -1.62394E+03  3.75571E+03 -5.18666E+03  3.22739E+03
 -6.11862E+03 -9.57374E+02 -2.63007E+03 -4.20205E+03  1.02217E+02 -6.04829E+03  3.88551E+03 -6.28122E+03
  6.22417E+03 -4.13867E+03  8.07692E+03  7.47325E+02  5.92230E+03  5.28515E+03  1.47131E+03  7.29866E+03
 -2.89569E+03  6.78651E+03 -4.04000E+03  2.27822E+03 -2.44660E+03 -1.21029E+03 -6.40741E+02 -4.40529E+02
 -6.15887E+02  1.51463E+02 -1.36253E+03  2.41412E+03 -2.65385E+03  1.15912E+03 -4.45048E+03 -6.55004E+02
 -2.18748E+03 -4.42589E+03  7.67162E+02 -5.74825E+03  3.53384E+03 -5.38853E+03  4.66133E+03 -1.32287E+03
  5.19156E+03  2.99689E+03  2.43451E+03  4.29233E+03 -1.30264E+03  5.36533E+03 -3.62159E+03  3.15217E+03
 -4.89689E+03  2.92586E+02 -4.27788E+03 -2.86685E+03 -9.84660E+01 -3.90405E+03  2.08399E+03 -3.01144E+03
  3.29968E+03 -1.43211E+03  2.24545E+03  7.64389E+02  6.79210E+02  1.98667E+03  6.61719E+02  6.15000E+02
  1.77206E+03  2.47941E+02  1.48971E+03  1.01524E+03  1.17730E+03  2.46393E+03  1.47713E+03  2.17797E+03
 -1.35033E+03  3.74568E+03 -3.14982E+03  4.76095E+03 -4.12102E+03  1.79851E+03 -5.26518E+03 -8.91212E+02
 -2.19451E+03 -4.64273E+03  9.30298E+02 -5.61059E+03  2.49141E+03 -3.66044E+03  4.06344E+03 -6.83175E+02
  3.17283E+03  1.91439E+03  6.07986E+02  2.95584E+03 -1.07084E+03  1.65462E+03 -1.58551E+03 -8.66989E+01
 -7.60928E+02 -2.00407E+03  1.60320E+03 -2.04704E+03  1.58178E+03 -1.15587E+03  1.65441E+03  5.03857E+02
  1.01643E+03  7.84109E+02  6.23156E+02 -2.80128E+02 -1.93724E+02  1.09739E+03  1.70858E+03 -1.44293E+02
  2.25508E+02 -5.87161E+02  2.24330E+03  7.22720E+02  5.24588E+02  2.71664E+03 -4.17924E+02  3.61335E+03
 -2.10746E+03  1.61150E+03 -2.58484E+03  7.48477E+02 -2.61640E+03 -1.22848E+03 -3.42409E+02 -1.66571E+03
  3.78544E+02 -1.79245E+03  1.25723E+03 -9.77922E+02  8.41842E+02  1.03297E+03 -9.32774E+02  1.58023E+03
 -1.82642E+03  1.10118E+03 -1.50748E+03 -1.54330E+03 -9.20683E+02 -2.76966E+03 -6.95556E+01 -2.19697E+03
  5.44059E+02 -9.49237E+02  1.15624E+03  2.61324E+02  1.75668E+03  4.67427E+02  3.81228E+02  1.13953E+03
 -5.16149E+02 -8.65803E+01 -1.19576E+03 -4.93101E+02  4.45204E+02 -1.03774E+03  1.99402E+03 -1.04977E+03
  1.84151E+03  2.74388E+02  3.35442E+03  1.19200E+03  1.22805E+03  2.30126E+03 -3.55922E+02  2.40548E+03
 -2.05567E+03  6.47499E+02 -2.07352E+03 -1.30890E+02 -1.18481E+03 -1.58861E+03  2.10823E+02 -1.10337E+03
  1.71886E+03 -9.76983E+02  1.12283E+03  9.34517E+02  2.57248E+02  1.39203E+03  2.23208E+02  1.52868E+03
 -2.44377E+02  1.40645E+03 -5.96272E+02  2.19489E+02  2.14723E+01  4.44156E+02 -7.48424E+02  4.69149E+02
 -6.79721E+02  1.30218E+03 -2.08727E+03  6.85944E+02 -2.61716E+03  5.54045E+01 -2.91359E+03 -1.42302E+03
 -1.25818E+03 -3.12763E+03  6.51452E+02 -3.73501E+03  1.88085E+03 -3.03906E+03  3.69771E+03 -1.34447E+03
  3.32436E+03  9.80558E+00  1.76710E+03  1.94445E+03 -5.61127E+02  1.93161E+03 -6.63635E+02  1.59506E+03
 -1.30795E+03  7.33245E+02 -5.65037E+02 -3.72918E+01 -6.20872E+02  7.23132E+01 -6.28455E+02 -1.11551E+02
 -1.22085E+03 -1.35895E+02 -1.07753E+03  3.54464E+02  1.24819E+02 -6.89813E+02 -7.42026E+01 -1.12268E+03
  1.55294E+03 -7.89413E+02  5.47584E+02  1.28907E+02  1.47579E+03  1.38542E+03 -1.38353E+02  2.24072E+03
 -1.15765E+03  3.14769E+03 -2.29246E+03  1.69028E+03 -2.30264E+03  4.24621E+01 -1.72104E+03 -1.52203E+03
 -1.44503E+03 -1.95884E+03  1.62962E+02 -1.58815E+03  1.07715E+03 -1.08581E+03  7.92537E+02  2.63659E+02
  1.01122E+03  7.32220E+02  1.46826E+02  5.06392E+02 -6.02196E+02 -8.16944E+01 -1.56846E+02 -2.43375E+02
  7.40200E+02  2.58424E+01  3.44454E+02  3.24557E+02  1.20236E+02  7.94785E+02  2.01903E+02  5.83042E+02
 -7.01863E+02  8.50127E+02 -5.34019E+02  2.71425E+01 -1.18346E+03 -6.51051E+02 -3.33920E+01 -1.71798E+03
  8.56921E+02 -1.08007E+03  7.22387E+02 -5.54852E+01  1.22219E+03 -7.30681E+02  6.97492E+02  1.17109E+03
  3.85516E+02  9.96327E+02 -1.80287E+02  1.05405E+03 -5.49486E+02  6.82263E+02 -5.88215E+02 -3.48702E+00
 -5.64232E+02 -1.73214E+02 -5.38902E+02  3.69788E+01 -8.54673E+02  1.87246E+02 -1.34256E+03 -3.18459E+02
 -1.16667E+03 -1.54210E+02 -5.58745E+01 -1.21688E+03  6.70320E+02 -2.18186E+03  1.02058E+03 -1.70915E+02
  9.88635E+02  2.03974E+02  1.61846E+02  4.95165E+02  9.81761E+00  1.18127E+03 -5.80232E+02  9.36835E+02
