 $NMID ID='MM_0lb_SNR800_13hz_g60_36.RAW', FMTDAT='(8E13.5)'
 TRAMP=1., VOLUME=1. $END
  3.10046E+05  9.98629E+01  3.37671E+05  2.50743E+05  8.47842E+04  3.38376E+05 -1.32637E+05  2.51559E+05
 -1.90760E+05  8.36422E+04 -1.12109E+05 -3.27432E+04  4.35265E+02 -5.08913E+04  5.38527E+04 -1.18520E+02
  3.53281E+04  5.30607E+04 -1.68224E+04  7.58601E+04 -6.09199E+04  6.39884E+04 -8.47656E+04  3.21245E+04
 -8.17992E+04 -1.14884E+04 -5.77994E+04 -5.23883E+04 -1.54564E+04 -7.05371E+04  2.79085E+04 -4.62222E+04
  4.05679E+04  3.53206E+03  1.65207E+04  4.83374E+04 -3.45600E+04  4.79151E+04 -6.73687E+04 -1.96349E+02
 -5.39958E+04 -5.75997E+04 -7.21082E+03 -7.81763E+04  3.46088E+04 -5.57748E+04  4.89987E+04 -1.79511E+04
  4.46822E+04  1.17044E+04  3.24317E+04  2.62582E+04  1.62251E+04  2.99951E+04 -5.41801E+03  2.74969E+04
 -2.25754E+04  1.21563E+04 -1.83540E+04 -5.41907E+03  6.57890E+03 -7.35230E+03  2.31434E+04  1.32269E+04
  7.59235E+03  3.59267E+04 -3.28960E+04  3.61616E+04 -6.49759E+04  2.50610E+03 -5.79936E+04 -4.36548E+04
 -1.23919E+04 -6.44430E+04  4.03889E+04 -4.66369E+04  6.01202E+04 -2.52951E+03  3.52407E+04  3.36333E+04
 -5.61732E+03  3.78811E+04 -3.06086E+04  1.74326E+04 -3.19559E+04 -3.76600E+03 -1.79871E+04 -1.15263E+04
 -9.05463E+03 -1.44512E+04 -4.34995E+02 -1.88813E+04  8.29781E+03 -2.36591E+04  1.59315E+04 -1.29138E+04
  1.09072E+04  5.65873E+03 -9.34106E+03  1.29869E+04 -2.22459E+04 -5.76183E+03 -8.54754E+03 -3.58584E+04
  2.39263E+04 -4.51498E+04  5.01129E+04 -2.03092E+04  4.70390E+04  2.04695E+04  1.68980E+04  4.56199E+04
 -1.62698E+04  3.50024E+04 -2.65274E+04  1.91196E+03 -1.03201E+04 -2.86348E+04  2.12667E+04 -3.52768E+04
  4.29122E+04 -1.04597E+04  3.81247E+04  2.41512E+04  2.00849E+04  4.87277E+04 -8.03918E+03  5.32435E+04
 -3.36047E+04  3.60717E+04 -4.48744E+04  1.02225E+04 -4.49376E+04 -1.73816E+04 -2.50616E+04 -4.03836E+04
  7.54693E+03 -4.01754E+04  3.29435E+04 -1.60583E+04  3.06559E+04  1.06515E+04  4.79841E+03  2.00052E+04
 -1.36205E+04  8.97716E+03 -1.10445E+04 -7.38219E+03  5.48784E+03 -1.10810E+04  1.84501E+04  5.70789E+03
  1.39086E+04  2.23495E+04 -5.41266E+03  2.60509E+04 -2.28943E+04  1.32358E+04 -2.98324E+04 -3.91891E+03
 -2.33624E+04 -1.79900E+04 -1.00159E+04 -2.27957E+04  4.23763E+03 -2.25447E+04  1.77929E+04 -2.04382E+04
  2.91487E+04 -1.34767E+04  3.52299E+04  3.53030E+03  2.54572E+04  2.22610E+04  4.27619E+03  3.84561E+04
 -1.86207E+04  3.21106E+04 -2.92169E+04  1.12303E+04 -2.15106E+04 -1.01640E+04 -4.50256E+03 -1.32415E+04
  1.09766E+03 -2.28779E+03 -5.74350E+03  7.29116E+03 -1.82226E+04  5.54491E+03 -1.78157E+04 -8.16420E+03
 -1.10839E+04 -2.09120E+04  5.79189E+03 -2.50514E+04  1.66309E+04 -1.78840E+04  2.03267E+04 -1.91630E+03
  1.28238E+04  1.44600E+04 -1.35177E+03  2.07949E+04 -1.49167E+04  1.19329E+04 -2.10208E+04 -4.02264E+03
 -1.54465E+04 -1.91249E+04 -1.92306E+03 -2.54919E+04  1.13678E+04 -2.09224E+04  2.10442E+04 -1.05362E+04
  1.97097E+04 -8.41370E+01  1.37830E+04  4.93816E+03  7.90387E+03  8.63085E+02  1.07887E+04 -1.83043E+03
  1.96073E+04  2.79232E+03  2.22974E+04  1.63946E+04  1.49106E+04  3.36974E+04 -2.76116E+03  3.85756E+04
 -2.19684E+04  3.17295E+04 -3.56576E+04  1.66165E+04 -3.80142E+04 -2.80924E+03 -3.09249E+04 -2.19876E+04
 -1.29356E+04 -3.14550E+04  1.13264E+04 -2.80591E+04  2.42597E+04 -1.39609E+04  2.12868E+04  6.66821E+03
  7.28131E+03  1.62269E+04 -1.01704E+04  1.35428E+04 -1.78108E+04  2.74524E+03 -1.36762E+04 -1.17763E+04
 -2.72029E+02 -1.69229E+04  9.09762E+03 -1.26713E+04  1.13523E+04 -1.46039E+03  3.08991E+03  7.44539E+03
 -7.53729E+03  2.98477E+03 -7.40825E+03 -6.16664E+03 -1.06137E+03 -1.54039E+04  1.06236E+04 -1.63752E+04
  1.96762E+04 -9.08093E+03  2.13715E+04  3.14032E+03  1.84899E+04  1.52414E+04  8.69503E+03  2.40159E+04
 -4.21679E+03  2.59460E+04 -1.66303E+04  1.61113E+04 -1.84909E+04  3.65237E+03 -1.30541E+04 -4.22273E+03
 -5.66026E+03 -5.89664E+03 -4.61457E+02  7.18409E+02 -2.53198E+03  3.01499E+03 -5.96407E+03  4.74899E+03
 -1.19676E+04 -5.76827E+02 -1.25419E+04 -9.99240E+03 -5.04364E+03 -1.65088E+04  5.24429E+03 -1.31109E+04
  1.07584E+04 -5.55047E+03  7.70207E+03  3.47783E+03  1.75711E+02  5.06041E+03 -6.01052E+03 -2.46207E+02
 -6.26506E+03 -8.22225E+03 -1.20455E+03 -1.23587E+04  7.03580E+03 -1.32231E+04  1.58247E+04 -7.16257E+03
  1.92573E+04  1.78421E+03  1.41022E+04  1.15191E+04  2.66075E+03  1.49993E+04 -8.12473E+03  1.26894E+04
 -1.04389E+04  4.08904E+03 -5.29637E+03 -2.33163E+03  2.19080E+03 -3.13507E+03  6.76706E+03 -1.17830E+03
  6.06430E+03  5.71538E+03  1.20126E+03  1.02669E+04 -7.34364E+03  9.58675E+03 -1.26853E+04  2.71583E+03
 -8.33416E+03 -6.60334E+03  1.74235E+02 -1.09173E+04  6.73435E+03 -5.36264E+03  7.28819E+03  2.77294E+03
  1.35368E+03  7.42228E+03 -6.79218E+03  9.05373E+03 -1.00046E+04  3.76359E+03 -9.95934E+03 -3.78657E+03
 -5.63600E+03 -1.19253E+04  2.81783E+03 -1.38508E+04  1.18991E+04 -8.36008E+03  1.25813E+04  2.00839E+03
  7.81800E+03  1.02464E+04 -5.95198E+02  1.26704E+04 -8.54899E+03  6.81498E+03 -9.67882E+03 -7.92720E+02
 -8.57567E+03 -8.29794E+03 -1.67566E+03 -9.15394E+03  5.14467E+03 -7.70434E+03  5.59135E+03 -3.00044E+03
  4.25567E+03  1.52185E+03 -9.15908E+02  1.85708E+03 -2.13004E+01 -2.37717E+03  1.36291E+03 -4.94411E+03
  8.50466E+03 -3.14626E+03  1.17903E+04  1.32111E+03  1.14553E+04  7.50604E+03  8.15849E+03  1.53557E+04
 -3.37041E+03  1.73064E+04 -1.47398E+04  1.27784E+04 -1.87885E+04  2.34401E+03 -1.54557E+04 -6.15264E+03
 -7.44693E+03 -1.26972E+04 -4.72097E+02 -1.05408E+04  4.17614E+03 -6.08085E+03  3.81576E+03 -3.99357E+03
  2.56780E+03 -2.73203E+03  3.32362E+03 -3.63380E+03  4.92187E+03 -3.08177E+03  6.26278E+03 -4.76136E+02
  7.62577E+03  2.05753E+03  3.70686E+03  6.31965E+03 -2.32552E+03  7.68241E+03 -8.21439E+03  5.69200E+03
 -1.02179E+04 -1.19586E+03 -5.88535E+03 -7.07548E+03 -5.58178E+02 -1.09496E+04  6.36875E+03 -1.11000E+04
  1.13128E+04 -6.43038E+03  1.36581E+04  1.43257E+03  9.44519E+03  9.47668E+03  1.84418E+03  1.25864E+04
 -4.82353E+03  1.05732E+04 -7.29043E+03  3.69945E+03 -5.05621E+03 -1.41913E+03 -1.73984E+03 -1.35842E+03
 -1.09461E+03  9.93021E+01 -1.52997E+03  2.40024E+03 -4.34430E+03  1.80799E+03 -7.01230E+03 -1.05802E+03
 -4.55048E+03 -7.25278E+03  4.63502E+02 -1.02600E+04  5.94096E+03 -9.41228E+03  9.28054E+03 -2.60239E+03
  9.63365E+03  4.92366E+03  4.53390E+03  8.25896E+03 -1.98865E+03  9.87985E+03 -7.17591E+03  6.13601E+03
 -9.05510E+03  3.75290E+02 -7.32416E+03 -5.77330E+03 -8.77316E+02 -8.20378E+03  4.23841E+03 -5.91390E+03
  5.72634E+03 -1.94892E+03  4.39023E+03  1.57698E+03  1.42600E+03  3.19462E+03  1.29908E+03  1.09263E+03
  2.06697E+03  8.49461E+02  2.51402E+03  1.62315E+03  2.72448E+03  3.98601E+03  2.66070E+03  5.00553E+03
 -2.07260E+03  7.64314E+03 -6.37187E+03  8.01824E+03 -9.40311E+03  2.17201E+03 -9.79090E+03 -3.72198E+03
 -4.75187E+03 -9.59158E+03  1.55380E+03 -1.07547E+04  5.53129E+03 -6.51038E+03  7.73340E+03 -1.53803E+03
  6.29234E+03  3.72497E+03  1.15690E+03  5.53324E+03 -2.77158E+03  3.28669E+03 -3.47232E+03 -7.22388E+02
 -1.74639E+03 -3.79069E+03  2.39126E+03 -3.96482E+03  3.91865E+03 -1.91380E+03  3.55122E+03  7.68199E+02
  2.26149E+03  1.59433E+03  1.40554E+03  5.78175E+02 -4.35878E+02  1.59269E+03  1.49900E+03 -1.26276E+02
  9.30525E+02 -5.54362E+02  4.50308E+03  1.51587E+03  1.82940E+03  5.08104E+03 -8.05121E+02  6.16815E+03
 -4.41382E+03  3.88468E+03 -5.47715E+03  1.20832E+03 -5.04387E+03 -1.98139E+03 -1.75203E+03 -3.34315E+03
  2.96247E+02 -3.44758E+03  2.36360E+03 -1.63328E+03  2.05647E+03  1.98475E+03 -1.70430E+03  3.01227E+03
 -3.92786E+03  1.57887E+03 -3.74065E+03 -2.22637E+03 -2.14049E+03 -5.10048E+03  7.67383E+02 -4.65223E+03
  2.30784E+03 -2.65709E+03  3.35404E+03 -3.14624E+02  3.01234E+03  1.26201E+03  6.05650E+02  2.52481E+03
 -1.36994E+03  5.87650E+02 -2.21816E+03 -1.22915E+03  7.79809E+02 -3.39168E+03  4.85135E+03 -2.72930E+03
  5.14831E+03  5.18254E+02  5.74175E+03  3.10542E+03  2.22056E+03  5.53904E+03 -1.88164E+03  5.61311E+03
 -4.55692E+03  2.38276E+03 -4.70074E+03 -7.98721E+02 -2.46574E+03 -3.74011E+03  8.31660E+02 -3.14059E+03
  3.69715E+03 -2.13720E+03  2.90431E+03  1.68255E+03  8.77201E+02  3.11040E+03 -2.48974E+02  2.87937E+03
 -1.36206E+03  1.95349E+03 -8.95743E+02  5.05399E+02 -5.74516E+02  2.89581E+02 -8.84784E+02  1.01316E+03
 -1.64787E+03  2.01333E+03 -4.25660E+03  1.53649E+03 -5.19946E+03  5.10734E+02 -6.11575E+03 -3.37755E+03
 -2.99330E+03 -6.98911E+03  1.41265E+03 -8.52796E+03  5.08904E+03 -6.38751E+03  7.99523E+03 -2.45980E+03
  6.76351E+03  1.11507E+03  3.96197E+03  4.89702E+03  1.43958E+02  5.33502E+03 -2.02086E+03  4.07859E+03
 -3.09019E+03  1.48100E+03 -1.70976E+03 -3.03082E+02 -7.14607E+02 -1.39541E+02 -6.94726E+02  3.32318E+02
 -1.25642E+03  1.65277E+01 -1.21699E+03 -9.42699E+01 -5.48046E+02 -1.96004E+03 -2.22074E+02 -1.57621E+03
  2.45776E+03 -1.46755E+03  2.96190E+03 -3.02294E+01  3.55505E+03  3.07832E+03  5.40382E+02  5.31093E+03
 -2.67109E+03  6.35951E+03 -5.54793E+03  3.72919E+03 -6.50710E+03 -9.52894E+02 -4.37210E+03 -3.80641E+03
 -2.32087E+03 -4.96591E+03  1.33848E+03 -4.44028E+03  3.08567E+03 -1.95568E+03  3.23966E+03 -5.70652E+01
  1.94759E+03  1.51695E+03 -2.59357E+02  1.29262E+03 -9.78412E+02 -3.38283E+02 -1.71468E+02 -1.26739E+03
  1.63261E+03 -5.00144E+02  1.92231E+03  7.01335E+02  1.18899E+03  1.89438E+03  4.24776E+02  2.24406E+03
 -2.25412E+03  2.31729E+03 -2.93914E+03 -3.55432E+01 -2.88522E+03 -1.92539E+03 -1.66771E+02 -4.12972E+03
  2.31822E+03 -3.40023E+03  3.35944E+03 -8.38424E+02  3.52355E+03  4.60135E+02  1.97218E+03  3.01750E+03
  6.83099E+02  3.08188E+03 -1.08743E+03  2.59472E+03 -1.87483E+03  1.69914E+03 -1.46142E+03 -1.82466E+01
 -7.07666E+02 -3.47433E+02 -6.49054E+02  6.84590E+02 -1.86535E+03  8.28827E+02 -2.70296E+03 -3.90045E+02
 -2.83245E+03 -1.15483E+03 -5.47833E+02 -2.97241E+03  1.68805E+03 -3.68612E+03  2.95007E+03 -1.63364E+03
  2.97453E+03  5.26859E+02  1.43535E+03  1.83019E+03 -2.10289E+01  3.42766E+03 -1.89127E+03  1.97702E+03
