 $NMID ID='MM_0lb_SNR800_10hz_g50_8.RAW', FMTDAT='(8E13.5)'
 TRAMP=1., VOLUME=1. $END
  3.09476E+05  3.75791E+02  3.37885E+05  2.50361E+05  8.50155E+04  3.38626E+05 -1.32857E+05  2.51978E+05
 -1.91036E+05  8.33008E+04 -1.12454E+05 -3.23227E+04  1.22520E+02 -5.05705E+04  5.40193E+04 -1.04611E+02
  3.52305E+04  5.27967E+04 -1.70943E+04  7.64378E+04 -6.10786E+04  6.42557E+04 -8.48118E+04  3.22473E+04
 -8.23005E+04 -1.18223E+04 -5.79038E+04 -5.21650E+04 -1.54247E+04 -7.07657E+04  2.82886E+04 -4.67944E+04
  4.07618E+04  4.05165E+03  1.63911E+04  4.83724E+04 -3.47358E+04  4.79874E+04 -6.76240E+04 -3.89283E+01
 -5.43005E+04 -5.78021E+04 -7.34772E+03 -7.89027E+04  3.46029E+04 -5.64431E+04  4.92151E+04 -1.84935E+04
  4.46399E+04  1.17862E+04  3.25270E+04  2.65919E+04  1.59606E+04  3.02046E+04 -5.64573E+03  2.77927E+04
 -2.22266E+04  1.21966E+04 -1.81237E+04 -5.12798E+03  6.84346E+03 -7.56745E+03  2.32453E+04  1.32868E+04
  7.05869E+03  3.74872E+04 -3.34822E+04  3.66315E+04 -6.57050E+04  2.19021E+03 -5.84146E+04 -4.40853E+04
 -1.21713E+04 -6.49816E+04  4.14320E+04 -4.71447E+04  6.03982E+04 -2.72892E+03  3.64410E+04  3.38310E+04
 -5.50151E+03  3.87540E+04 -3.17131E+04  1.81732E+04 -3.28856E+04 -4.08550E+03 -1.82385E+04 -1.16967E+04
 -9.54973E+03 -1.46869E+04 -4.63049E+02 -1.96170E+04  8.35066E+03 -2.31252E+04  1.56601E+04 -1.28974E+04
  1.10116E+04  5.72067E+03 -9.95692E+03  1.29398E+04 -2.29507E+04 -6.32555E+03 -8.70462E+03 -3.66886E+04
  2.46229E+04 -4.63256E+04  5.13814E+04 -2.05918E+04  4.79902E+04  2.06042E+04  1.71734E+04  4.65871E+04
 -1.63378E+04  3.58023E+04 -2.69029E+04  2.42404E+03 -1.13757E+04 -2.89770E+04  2.13054E+04 -3.62045E+04
  4.36428E+04 -1.04831E+04  3.94450E+04  2.47211E+04  2.08444E+04  5.03480E+04 -8.09324E+03  5.49641E+04
 -3.47516E+04  3.67750E+04 -4.64598E+04  1.10035E+04 -4.67592E+04 -1.81794E+04 -2.52583E+04 -4.13088E+04
  7.79103E+03 -4.12470E+04  3.40530E+04 -1.65642E+04  3.15993E+04  1.15009E+04  4.84903E+03  2.07010E+04
 -1.35484E+04  9.29950E+03 -1.12435E+04 -7.52863E+03  5.75342E+03 -1.12224E+04  1.90296E+04  5.50967E+03
  1.47028E+04  2.29274E+04 -5.57449E+03  2.64622E+04 -2.28826E+04  1.36518E+04 -3.09120E+04 -3.56421E+03
 -2.45569E+04 -1.86075E+04 -1.09939E+04 -2.36638E+04  4.35254E+03 -2.46346E+04  1.86034E+04 -2.20544E+04
  3.09235E+04 -1.40077E+04  3.69012E+04  4.51798E+03  2.63602E+04  2.34046E+04  4.20139E+03  4.03472E+04
 -1.94392E+04  3.31592E+04 -3.00304E+04  1.18791E+04 -2.16612E+04 -1.04746E+04 -4.76895E+03 -1.28827E+04
  1.02049E+03 -1.60848E+03 -7.02133E+03  7.46868E+03 -1.96911E+04  5.04493E+03 -1.97485E+04 -8.74957E+03
 -1.16496E+04 -2.22107E+04  5.44316E+03 -2.70930E+04  1.77529E+04 -1.94184E+04  2.18765E+04 -2.03688E+03
  1.38138E+04  1.57435E+04 -1.44668E+03  2.22850E+04 -1.57674E+04  1.30161E+04 -2.25435E+04 -4.58183E+03
 -1.65023E+04 -2.00188E+04 -2.03563E+03 -2.68362E+04  1.25595E+04 -2.27648E+04  2.24629E+04 -1.14802E+04
  2.12110E+04 -1.29460E+02  1.51253E+04  5.18757E+03  8.62937E+03  1.42418E+03  1.15599E+04 -1.91982E+03
  2.12933E+04  2.73902E+03  2.43933E+04  1.74780E+04  1.62629E+04  3.62157E+04 -2.64955E+03  4.22438E+04
 -2.42600E+04  3.50261E+04 -3.96735E+04  1.80124E+04 -4.24234E+04 -3.02354E+03 -3.43953E+04 -2.46616E+04
 -1.37795E+04 -3.51573E+04  1.22541E+04 -3.06955E+04  2.65305E+04 -1.46564E+04  2.31754E+04  7.25901E+03
  7.99799E+03  1.72283E+04 -1.13154E+04  1.49045E+04 -1.95633E+04  2.58183E+03 -1.46149E+04 -1.17166E+04
 -7.78290E+02 -1.86188E+04  9.77855E+03 -1.35894E+04  1.27161E+04 -1.25679E+03  3.06833E+03  8.29386E+03
 -8.31002E+03  3.92478E+03 -8.30187E+03 -6.50217E+03 -1.62773E+03 -1.69606E+04  1.15686E+04 -1.79419E+04
  2.16138E+04 -1.01841E+04  2.41823E+04  3.44281E+03  2.11626E+04  1.72818E+04  9.96246E+03  2.74674E+04
 -5.24386E+03  2.90832E+04 -1.89262E+04  1.82359E+04 -2.10709E+04  3.77433E+03 -1.47486E+04 -5.38439E+03
 -6.12319E+03 -6.81263E+03 -6.17991E+02  6.39069E+02 -2.78611E+03  3.25669E+03 -6.89719E+03  4.94481E+03
 -1.34645E+04 -1.06433E+03 -1.39649E+04 -1.07484E+04 -5.71901E+03 -1.80407E+04  5.79280E+03 -1.45994E+04
  1.22390E+04 -6.32254E+03  8.56144E+03  4.19667E+03 -3.86171E+02  5.73816E+03 -7.32040E+03  3.44875E+01
 -6.76048E+03 -9.66932E+03 -1.05338E+03 -1.45447E+04  8.18051E+03 -1.54301E+04  1.90226E+04 -8.12229E+03
  2.20744E+04  2.48045E+03  1.55559E+04  1.33401E+04  3.38923E+03  1.73872E+04 -8.93396E+03  1.46113E+04
 -1.17482E+04  4.23711E+03 -6.38986E+03 -3.12778E+03  2.30986E+03 -4.18293E+03  7.84545E+03 -9.01800E+02
  6.68152E+03  6.41444E+03  1.16599E+03  1.17039E+04 -8.38479E+03  1.12742E+04 -1.44986E+04  2.22441E+03
 -9.96254E+03 -7.69328E+03  3.79687E+02 -1.24861E+04  8.27215E+03 -6.54104E+03  8.55310E+03  3.04958E+03
  1.57616E+03  8.76329E+03 -7.76652E+03  1.06150E+04 -1.19117E+04  4.53661E+03 -1.25062E+04 -4.88277E+03
 -7.26580E+03 -1.42836E+04  3.49483E+03 -1.70359E+04  1.37901E+04 -1.01483E+04  1.51128E+04  2.86097E+03
  9.26963E+03  1.17311E+04 -1.46941E+03  1.46103E+04 -1.09132E+04  8.17800E+03 -1.16559E+04 -1.32803E+03
 -9.95904E+03 -9.82661E+03 -1.87052E+03 -1.12606E+04  6.11155E+03 -9.14203E+03  6.92953E+03 -3.53367E+03
  4.71781E+03  1.56504E+03 -1.11608E+03  1.87107E+03 -6.47852E+02 -2.66562E+03  2.43129E+03 -6.65252E+03
  1.07285E+04 -4.30575E+03  1.47145E+04  1.99325E+03  1.41785E+04  1.01377E+04  9.72222E+03  1.87471E+04
 -4.78438E+03  2.17132E+04 -1.81994E+04  1.64638E+04 -2.36319E+04  3.05803E+03 -1.86801E+04 -8.29009E+03
 -9.53826E+03 -1.54499E+04 -5.26839E+02 -1.31721E+04  4.83970E+03 -7.25250E+03  4.78726E+03 -4.65563E+03
  3.48857E+03 -2.79778E+03  3.52702E+03 -3.97823E+03  5.36816E+03 -3.34176E+03  7.03799E+03 -1.03407E+03
  1.01353E+04  2.09588E+03  5.13382E+03  8.46579E+03 -1.98105E+03  1.00432E+04 -1.02412E+04  7.78239E+03
 -1.36957E+04 -9.45756E+02 -8.33771E+03 -8.87543E+03 -7.87775E+02 -1.41128E+04  7.57726E+03 -1.44632E+04
  1.46583E+04 -8.02879E+03  1.78062E+04  1.98144E+03  1.20726E+04  1.23386E+04  2.32390E+03  1.57175E+04
 -6.78677E+03  1.29731E+04 -9.36745E+03  4.71006E+03 -6.41639E+03 -1.59045E+03 -2.80188E+03 -2.05767E+03
 -1.83950E+03 -2.32624E+02 -2.12869E+03  2.83927E+03 -5.47758E+03  2.36057E+03 -8.97650E+03 -1.41103E+03
 -6.48574E+03 -9.20771E+03  5.22083E+02 -1.32884E+04  7.95240E+03 -1.23479E+04  1.33030E+04 -3.71840E+03
  1.32498E+04  6.71593E+03  6.28970E+03  1.18206E+04 -2.49755E+03  1.29697E+04 -9.28349E+03  8.03004E+03
 -1.22241E+04  2.34569E+02 -9.39351E+03 -8.24385E+03 -1.04614E+03 -1.10448E+04  5.80210E+03 -7.68553E+03
  8.34258E+03 -2.52607E+03  5.80703E+03  2.17671E+03  2.04166E+03  3.97766E+03  1.37783E+03  1.50684E+03
  2.25143E+03  9.42350E+02  3.25444E+03  1.59056E+03  3.94337E+03  5.08602E+03  3.28955E+03  7.06163E+03
 -2.84298E+03  1.03488E+04 -9.46546E+03  1.06417E+04 -1.38714E+04  2.97550E+03 -1.40169E+04 -5.38050E+03
 -6.83561E+03 -1.29091E+04  1.93085E+03 -1.43912E+04  8.25644E+03 -9.12067E+03  1.10797E+04 -2.50373E+03
  8.50798E+03  4.73447E+03  1.73644E+03  7.79749E+03 -3.91487E+03  5.00442E+03 -5.48911E+03 -7.40176E+02
 -2.71066E+03 -5.72043E+03  3.10355E+03 -6.17857E+03  5.57970E+03 -3.14141E+03  5.24662E+03  1.33023E+03
  2.77203E+03  2.15603E+03  7.37049E+02  1.83756E+03 -7.65952E+02  1.99916E+03  1.89395E+03 -2.94712E+02
  2.09008E+03 -9.56375E+02  5.57219E+03  2.42681E+03  3.39435E+03  7.30453E+03 -8.63415E+02  9.49065E+03
 -6.14782E+03  6.25265E+03 -8.64284E+03  1.84549E+03 -7.95890E+03 -2.72620E+03 -2.76092E+03 -5.19673E+03
  9.04448E+02 -4.67981E+03  3.58181E+03 -2.29454E+03  2.87869E+03  2.82572E+03 -1.38710E+03  3.89279E+03
 -5.69329E+03  2.62710E+03 -6.06743E+03 -3.26779E+03 -3.44695E+03 -7.42329E+03  9.59349E+02 -7.18384E+03
  4.30867E+03 -4.22348E+03  5.03737E+03 -2.26944E+02  4.44923E+03  1.92814E+03  5.21056E+02  3.95495E+03
 -2.25469E+03  9.84051E+02 -3.17320E+03 -2.73893E+03  1.43496E+03 -5.62989E+03  6.67809E+03 -4.70818E+03
  8.50734E+03  2.53353E+02  8.16794E+03  5.45469E+03  3.00023E+03  8.80074E+03 -3.13768E+03  8.25990E+03
 -6.94127E+03  3.36783E+03 -7.34738E+03 -1.21990E+03 -3.73518E+03 -5.47490E+03  1.59437E+03 -5.20952E+03
  5.73413E+03 -2.40900E+03  4.52803E+03  2.36880E+03  1.50570E+03  4.58119E+03 -4.99049E+02  4.03204E+03
 -1.85954E+03  2.71988E+03 -1.91634E+03  6.88205E+02 -9.26547E+02  7.60883E+02 -1.44838E+03  1.52390E+03
 -2.32146E+03  3.27324E+03 -6.04091E+03  2.90813E+03 -8.96362E+03  2.25858E+02 -9.69406E+03 -5.42342E+03
 -4.75157E+03 -1.11739E+04  2.02421E+03 -1.34612E+04  7.92943E+03 -1.00257E+04  1.23228E+04 -4.06608E+03
  1.15701E+04  2.47111E+03  6.87612E+03  7.93855E+03  7.09778E+02  9.12374E+03 -3.33341E+03  6.12517E+03
 -5.01628E+03  2.51578E+03 -3.08924E+03 -9.43691E+02 -1.07559E+03 -6.54377E+02 -4.29849E+02 -1.65749E+02
 -2.14246E+03 -5.98524E+01 -2.42014E+03 -2.01984E+01 -4.73028E+02 -2.21759E+03  3.16546E+02 -3.09405E+03
  4.10579E+03 -3.05916E+03  5.26285E+03 -1.71157E+02  6.35077E+03  4.57946E+03  1.62280E+03  8.58537E+03
 -4.08636E+03  9.71964E+03 -9.43515E+03  5.92764E+03 -1.05312E+04 -6.81605E+02 -8.01392E+03 -6.55446E+03
 -3.27450E+03 -8.85526E+03  2.48718E+03 -7.96466E+03  5.28498E+03 -4.65917E+03  5.95210E+03  3.10018E+02
  3.02069E+03  2.63232E+03 -4.81217E+02  2.62141E+03 -1.61898E+03 -1.68498E+02 -5.00114E+02 -1.62595E+03
  2.45027E+03 -1.29496E+03  3.07531E+03  9.91275E+02  2.49622E+03  3.66362E+03  1.57022E+02  4.21057E+03
 -4.13372E+03  3.99219E+03 -5.71234E+03  5.51542E+02 -5.37586E+03 -4.22902E+03 -7.55545E+02 -7.55874E+03
  4.29843E+03 -5.94423E+03  6.88359E+03 -1.76944E+03  6.64706E+03  1.35464E+03  3.75099E+03  5.61273E+03
  7.37196E+02  5.45293E+03 -2.39809E+03  4.57559E+03 -3.48443E+03  2.55450E+03 -3.09105E+03  1.54784E+02
 -1.37185E+03 -3.23980E+02 -1.75022E+03  8.76798E+02 -2.81049E+03  8.79899E+02 -4.28471E+03 -1.28510E+03
 -4.50253E+03 -3.05711E+03 -1.43849E+03 -5.69360E+03  2.40459E+03 -6.43030E+03  5.37091E+03 -2.93060E+03
  5.44635E+03  1.07654E+03  3.15716E+03  3.95935E+03 -2.70816E+02  5.46063E+03 -4.41891E+03  4.14032E+03
