 $NMID ID='MM_0lb_SNR800_19hz_g40_45.RAW', FMTDAT='(8E13.5)'
 TRAMP=1., VOLUME=1. $END
  3.09880E+05  4.60212E+02  3.37289E+05  2.50368E+05  8.44779E+04  3.37422E+05 -1.32307E+05  2.50162E+05
 -1.89483E+05  8.24155E+04 -1.10824E+05 -3.28012E+04  1.67501E+03 -5.01542E+04  5.41588E+04  2.97006E+02
  3.49783E+04  5.31323E+04 -1.67611E+04  7.44570E+04 -6.01254E+04  6.25606E+04 -8.23789E+04  3.12092E+04
 -7.89441E+04 -1.06086E+04 -5.59202E+04 -4.97041E+04 -1.45736E+04 -6.77269E+04  2.67644E+04 -4.45254E+04
  3.87968E+04  4.14915E+03  1.54345E+04  4.66444E+04 -3.38960E+04  4.60786E+04 -6.49208E+04 -4.01842E+02
 -5.12846E+04 -5.53827E+04 -6.26085E+03 -7.42488E+04  3.29285E+04 -5.21794E+04  4.55535E+04 -1.59389E+04
  4.08485E+04  1.13592E+04  3.04504E+04  2.41786E+04  1.58012E+04  2.76084E+04 -4.28207E+03  2.65128E+04
 -2.15249E+04  1.29338E+04 -1.92883E+04 -4.11248E+03  3.75631E+03 -7.40525E+03  2.08698E+04  1.03998E+04
  7.50901E+03  3.27079E+04 -2.99009E+04  3.36208E+04 -6.04257E+04  2.20589E+03 -5.49277E+04 -4.08319E+04
 -1.26452E+04 -6.02229E+04  3.77113E+04 -4.26991E+04  5.44948E+04 -1.80296E+03  3.10177E+04  3.02119E+04
 -6.82711E+03  3.19490E+04 -2.77763E+04  1.24168E+04 -2.67155E+04 -5.53378E+03 -1.37442E+04 -1.01382E+04
 -7.23972E+03 -1.10270E+04 -8.08603E+02 -1.61539E+04  6.56164E+03 -2.25266E+04  1.45618E+04 -1.43127E+04
  1.24864E+04  3.87651E+03 -5.76613E+03  1.30166E+04 -1.86460E+04 -1.91527E+03 -8.06402E+03 -2.94584E+04
  2.01188E+04 -3.98171E+04  4.35932E+04 -1.84480E+04  4.13251E+04  1.79255E+04  1.37793E+04  4.07947E+04
 -1.50395E+04  3.00378E+04 -2.28676E+04  9.45369E+02 -7.66798E+03 -2.57756E+04  2.03213E+04 -3.04898E+04
  3.68078E+04 -6.63457E+03  3.02227E+04  2.23098E+04  1.46667E+04  4.16019E+04 -7.68398E+03  4.36224E+04
 -2.73994E+04  2.89343E+04 -3.60942E+04  8.02647E+03 -3.72314E+04 -1.45319E+04 -2.06180E+04 -3.34627E+04
  6.66521E+03 -3.32765E+04  2.83853E+04 -1.24121E+04  2.63629E+04  1.06081E+04  2.80441E+03  1.73525E+04
 -1.25587E+04  7.03016E+03 -9.44989E+03 -7.76547E+03  5.85056E+03 -9.81034E+03  1.68779E+04  6.50725E+03
  1.19937E+04  2.15563E+04 -6.90194E+03  2.31761E+04 -2.09463E+04  8.65592E+03 -2.42709E+04 -6.62086E+03
 -1.56210E+04 -1.61298E+04 -5.08880E+03 -1.56635E+04  3.70550E+03 -1.32813E+04  1.13873E+04 -1.34189E+04
  1.99056E+04 -1.14862E+04  2.67560E+04  8.15911E+02  2.07483E+04  1.53682E+04  3.94474E+03  3.10987E+04
 -1.54571E+04  2.69200E+04 -2.54416E+04  9.11386E+03 -1.92493E+04 -1.06180E+04 -3.92045E+03 -1.39574E+04
  3.15973E+03 -4.40026E+03 -1.91822E+03  5.01345E+03 -1.24416E+04  5.06705E+03 -1.27217E+04 -4.39998E+03
 -8.41310E+03 -1.45806E+04  4.35788E+03 -1.85196E+04  1.19365E+04 -1.34369E+04  1.38660E+04 -1.33309E+03
  8.24488E+03  1.04361E+04 -9.68026E+02  1.50922E+04 -9.71503E+03  8.35279E+03 -1.44611E+04 -3.32392E+03
 -1.09418E+04 -1.34683E+04 -1.61680E+03 -1.80659E+04  8.15060E+03 -1.46454E+04  1.52876E+04 -6.90799E+03
  1.38749E+04  8.95339E+02  9.75383E+03  3.74374E+03  5.08893E+03  5.21739E+02  6.90227E+03 -1.11661E+03
  1.28697E+04  2.57734E+03  1.35669E+04  1.22849E+04  8.20106E+03  2.34255E+04 -3.32462E+03  2.48668E+04
 -1.49330E+04  1.89727E+04 -2.26957E+04  8.61507E+03 -2.29917E+04 -1.64895E+03 -2.00667E+04 -1.29589E+04
 -9.69956E+03 -1.87653E+04  6.12678E+03 -1.77217E+04  1.55435E+04 -1.04727E+04  1.44535E+04  3.34432E+03
  6.41280E+03  1.03896E+04 -6.49670E+03  1.01317E+04 -1.29490E+04  2.73615E+03 -9.91100E+03 -7.67741E+03
  3.05939E+01 -1.18589E+04  5.74831E+03 -9.08884E+03  7.32181E+03 -1.45039E+03  1.19202E+03  4.36212E+03
 -5.12579E+03  1.21750E+03 -3.36346E+03 -4.34275E+03  8.64248E+02 -9.49767E+03  7.69414E+03 -9.15059E+03
  1.15705E+04 -4.22595E+03  1.04544E+04  2.45900E+03  9.34346E+03  8.48076E+03  4.58035E+03  1.29518E+04
 -1.25864E+03  1.46186E+04 -8.58838E+03  9.51009E+03 -1.00964E+04  2.83728E+03 -7.87840E+03 -1.61316E+03
 -4.42772E+03 -2.67590E+03 -7.10188E+02  1.44423E+03 -2.01005E+03  1.88932E+03 -3.48830E+03  3.32788E+03
 -7.63435E+03 -4.39085E+02 -8.17249E+03 -6.92071E+03 -3.22497E+03 -1.09733E+04  3.30440E+03 -7.95406E+03
  6.74343E+03 -3.32077E+03  4.99506E+03  1.98240E+03  5.93793E+02  2.87769E+03 -3.18279E+03 -1.84255E+02
 -3.07787E+03 -5.12057E+03 -8.44493E+02 -6.66583E+03  3.66785E+03 -7.28766E+03  9.34744E+03 -3.61829E+03
  1.08971E+04  4.86401E+02  8.36295E+03  5.52118E+03  1.72693E+03  8.18745E+03 -5.16266E+03  7.70626E+03
 -6.34158E+03  2.81341E+03 -3.38626E+03 -9.38949E+02  1.28559E+03 -1.81024E+03  4.48247E+03 -9.03997E+02
  3.88942E+03  3.39823E+03  1.23722E+03  5.94175E+03 -4.02435E+03  6.12449E+03 -7.19391E+03  1.57075E+03
 -4.28012E+03 -3.55798E+03  1.05906E+02 -6.13362E+03  3.45819E+03 -3.00390E+03  3.03131E+03  7.39398E+02
  4.50499E+02  2.95729E+03 -3.66984E+03  4.40720E+03 -4.45689E+03  2.20766E+03 -3.89603E+03 -8.16598E+02
 -2.48746E+03 -5.23660E+03  9.79220E+02 -6.46817E+03  5.33912E+03 -4.39496E+03  5.67909E+03  1.10350E+03
  4.28048E+03  4.73883E+03  3.01926E+02  6.58787E+03 -4.22326E+03  4.05282E+03 -4.90135E+03 -5.13345E+02
 -5.35777E+03 -4.77062E+03 -1.42942E+03 -4.79710E+03  2.44744E+03 -4.57576E+03  2.59907E+03 -2.62835E+03
  2.67610E+03  3.46262E+01  8.30882E+01  1.26472E+03  1.00851E+03 -2.50688E+02  1.57688E+02 -1.33336E+03
  3.10957E+03 -6.94670E+02  4.65926E+03  6.88779E+02  5.25742E+03  2.69455E+03  4.94252E+03  6.34181E+03
 -1.15220E+03  7.64305E+03 -6.83930E+03  6.05705E+03 -9.24897E+03  8.73081E+02 -7.12184E+03 -2.21602E+03
 -3.79905E+03 -5.79959E+03 -3.50961E+02 -4.71880E+03  1.93228E+03 -1.70182E+03  1.69718E+03 -1.75572E+03
  1.29463E+03 -1.36036E+03  2.31550E+03 -2.23734E+03  3.42202E+03 -9.64735E+02  3.55719E+03  4.91319E+02
  4.28208E+03  1.16575E+03  1.10527E+03  3.19829E+03 -1.28828E+03  2.52033E+03 -3.96425E+03  1.99873E+03
 -4.49090E+03 -1.01989E+03 -1.55387E+03 -2.89022E+03  4.24933E+02 -4.03123E+03  2.84702E+03 -4.78672E+03
  4.60852E+03 -2.96084E+03  6.14174E+03  5.09992E+01  4.52764E+03  3.87058E+03  1.22373E+03  5.28880E+03
 -1.94410E+03  5.39139E+03 -2.78380E+03  1.81107E+03 -1.83481E+03 -7.84846E+02 -2.91149E+02 -4.96039E+02
 -4.96067E+02  3.99428E+02 -7.65569E+02  2.04622E+03 -2.00943E+03  1.06037E+03 -3.78205E+03 -8.45132E+01
 -1.44404E+03 -3.75333E+03  7.40164E+02 -4.07215E+03  2.52434E+03 -4.23019E+03  2.82575E+03 -9.70582E+02
  3.90849E+03  2.13240E+03  1.57595E+03  2.85407E+03 -7.50680E+02  4.03710E+03 -2.52426E+03  2.60415E+03
 -3.41097E+03  6.10224E+02 -3.02365E+03 -2.42307E+03 -9.87279E+01 -2.64987E+03  1.31558E+03 -2.22250E+03
  2.29871E+03 -1.09700E+03  1.69110E+03  3.03788E+02  6.09689E+02  1.36203E+03  4.94049E+02  3.03134E+02
  1.68468E+03  4.49510E+02  1.18438E+03  9.26178E+02  7.64851E+02  1.89372E+03  1.56326E+03  1.64129E+03
 -1.30437E+03  2.73868E+03 -2.29150E+03  3.79509E+03 -2.42078E+03  1.09366E+03 -3.79828E+03 -3.56931E+02
 -1.44613E+03 -3.38486E+03  6.44715E+02 -4.27261E+03  1.79381E+03 -2.10380E+03  2.70451E+03 -1.16963E+03
  2.27200E+03  1.55153E+03  3.55291E+02  2.01360E+03 -4.06591E+02  1.29101E+03 -8.41993E+02  1.37447E+02
 -4.59729E+02 -1.32640E+03  1.15347E+03 -1.09385E+03  1.23811E+03 -8.99106E+02  1.06694E+03  5.02493E+02
  6.95939E+02  1.71473E+02  8.08103E+02 -4.02521E+02 -2.80358E+02  8.13614E+02  1.50857E+03  4.25543E+01
 -1.20828E+02 -9.55703E+01  1.74315E+03  6.10918E+02  2.11794E+02  2.42084E+03 -2.56996E+02  2.53810E+03
 -1.52081E+03  8.55779E+02 -2.03495E+03  4.58147E+02 -1.92132E+03 -7.58562E+02  1.36112E+02 -7.60814E+02
  2.50258E+02 -1.19822E+03  1.01498E+03 -3.91090E+02  5.45170E+02  1.26913E+03 -7.83496E+02  1.21744E+03
 -1.40485E+03  4.25548E+02 -1.13021E+03 -1.36846E+03 -7.08733E+02 -1.89346E+03  1.48482E+02 -1.36676E+03
  5.04331E+02 -3.31611E+02  4.78303E+02  2.59184E+02  1.22584E+03 -6.26962E+01  1.69984E+02  9.96092E+02
 -2.75125E+02 -2.04651E+02 -7.73621E+02  1.34970E+02  6.38102E+02 -5.44740E+02  1.41668E+03 -8.48390E+02
  9.32802E+02  2.58037E+01  2.54409E+03  5.39703E+02  1.35707E+03  1.37583E+03 -4.13228E+01  1.55165E+03
 -1.47000E+03  1.26039E+01 -1.22043E+03 -3.43238E+01 -8.96164E+02 -8.80207E+02  1.30501E+02 -5.75156E+02
  1.35514E+03 -8.53180E+02  7.44303E+02  8.09429E+02  1.28233E+02  1.28174E+03  5.09300E+02  1.17386E+03
 -2.71685E+01  1.33303E+03 -6.11364E+02  2.41934E+02  1.24073E+02  4.04468E+02 -7.11155E+02  4.27620E+02
 -5.28349E+02  1.17959E+03 -1.71444E+03  2.77944E+02 -1.76307E+03  4.03624E+02 -2.01196E+03 -8.78923E+02
 -9.42628E+02 -2.12898E+03  4.31658E+02 -2.49289E+03  1.06699E+03 -2.19037E+03  2.46149E+03 -1.08785E+03
  2.11085E+03 -2.31213E+02  8.76213E+02  1.35394E+03 -4.89881E+02  1.42431E+03 -5.31127E+02  1.11347E+03
 -1.01514E+03  5.78529E+02 -2.71576E+02 -5.28593E+02 -7.38566E+02  1.64455E+02 -7.91526E+02  1.59802E+02
 -9.80435E+02  7.47984E+01 -9.15079E+02  4.36611E+01  2.02107E+02 -6.71486E+02 -1.73827E+02 -7.98628E+02
  1.22582E+03 -5.63438E+02  2.79121E+02  1.36303E+02  8.61090E+02  9.47059E+02 -6.20040E+02  1.36453E+03
 -1.01003E+03  1.98129E+03 -1.42907E+03  1.12196E+03 -1.38265E+03 -1.18226E+02 -1.02374E+03 -1.02831E+03
 -9.39672E+02 -1.13376E+03  3.28503E+02 -9.51530E+02  4.37256E+02 -5.56650E+02  2.66706E+02  2.64480E+02
  6.23566E+02  1.94151E+02  1.93964E+02  4.56746E+02 -4.32353E+02  7.20694E+00 -2.28394E+02 -2.92067E+02
  3.11070E+02  8.68856E+00  8.07450E+01  2.38396E+02  5.27187E+01  3.43099E+02  3.84361E+02  2.45542E+02
 -6.72200E+02  1.79578E+02 -4.16102E+02  2.66834E+02 -5.16074E+02 -6.82303E+02  4.68606E+01 -8.67216E+02
  6.42471E+02 -6.40742E+02  4.11270E+02 -1.80983E+02  9.93600E+02 -7.32154E+02  3.13597E+02  7.72692E+02
  3.07217E+02  4.68622E+02 -2.74024E+02  5.89030E+02 -7.23396E+02  3.78583E+02 -3.93980E+02  2.65394E+02
 -1.46664E+02 -1.10581E+02 -3.66748E+02 -2.69422E+01 -7.06759E+02  2.96106E+02 -7.17804E+02 -2.91802E+02
 -9.33037E+02  2.03645E+02 -1.21157E+02 -1.21207E+03  6.54385E+02 -1.64458E+03  7.27485E+02 -2.47078E+02
  6.54623E+02  5.43241E+01 -1.49101E+02  7.88181E+01  5.15274E+01  7.27661E+02 -2.22411E+02  8.93604E+02
