 $NMID ID='MM_0lb_SNR800_9hz_g50_34.RAW', FMTDAT='(8E13.5)'
 TRAMP=1., VOLUME=1. $END
  3.09145E+05  3.47902E+02  3.37929E+05  2.51051E+05  8.50542E+04  3.38217E+05 -1.32783E+05  2.51778E+05
 -1.90825E+05  8.38050E+04 -1.12670E+05 -3.25495E+04  3.70689E+02 -5.03333E+04  5.36483E+04 -3.54869E+02
  3.59778E+04  5.27980E+04 -1.64951E+04  7.61980E+04 -6.08209E+04  6.44232E+04 -8.50192E+04  3.19594E+04
 -8.25447E+04 -1.13232E+04 -5.83286E+04 -5.21410E+04 -1.46573E+04 -7.09753E+04  2.85224E+04 -4.68080E+04
  4.12175E+04  3.73145E+03  1.67351E+04  4.86817E+04 -3.46026E+04  4.84358E+04 -6.85032E+04 -3.02833E+02
 -5.47836E+04 -5.80187E+04 -7.50496E+03 -7.90162E+04  3.47719E+04 -5.70690E+04  4.98770E+04 -1.83424E+04
  4.51148E+04  1.14704E+04  3.34254E+04  2.63085E+04  1.55232E+04  3.06209E+04 -6.11937E+03  2.77246E+04
 -2.20273E+04  1.22670E+04 -1.76859E+04 -5.68187E+03  7.16563E+03 -7.35957E+03  2.31702E+04  1.36403E+04
  7.35198E+03  3.79441E+04 -3.37455E+04  3.68188E+04 -6.57736E+04  2.15246E+03 -5.88078E+04 -4.46321E+04
 -1.23006E+04 -6.58383E+04  4.16188E+04 -4.71694E+04  6.15287E+04 -2.54511E+03  3.67549E+04  3.45487E+04
 -5.54337E+03  3.97895E+04 -3.15996E+04  1.86387E+04 -3.33907E+04 -3.33416E+03 -1.92342E+04 -1.15766E+04
 -9.25735E+03 -1.51879E+04 -1.38816E+02 -1.96911E+04  8.40908E+03 -2.32862E+04  1.57021E+04 -1.25558E+04
  1.06569E+04  6.15788E+03 -1.04048E+04  1.30660E+04 -2.38314E+04 -6.41659E+03 -8.40484E+03 -3.73640E+04
  2.55212E+04 -4.70008E+04  5.21376E+04 -2.07800E+04  4.88045E+04  2.06107E+04  1.75292E+04  4.71118E+04
 -1.68259E+04  3.59250E+04 -2.77366E+04  2.65150E+03 -1.15620E+04 -2.92657E+04  2.15664E+04 -3.72378E+04
  4.50752E+04 -1.12246E+04  4.06479E+04  2.49276E+04  2.15850E+04  5.09908E+04 -7.99334E+03  5.56756E+04
 -3.51833E+04  3.81386E+04 -4.76903E+04  1.06325E+04 -4.77619E+04 -1.84233E+04 -2.63320E+04 -4.20037E+04
  7.91047E+03 -4.20187E+04  3.44173E+04 -1.71576E+04  3.19605E+04  1.08931E+04  5.05672E+03  2.11557E+04
 -1.40895E+04  9.46462E+03 -1.12316E+04 -7.77819E+03  5.81239E+03 -1.12942E+04  1.87329E+04  5.54961E+03
  1.47843E+04  2.27389E+04 -5.35521E+03  2.70337E+04 -2.34093E+04  1.42786E+04 -3.13977E+04 -3.18413E+03
 -2.53447E+04 -1.84301E+04 -1.12373E+04 -2.50924E+04  4.81000E+03 -2.59571E+04  1.94201E+04 -2.27821E+04
  3.19642E+04 -1.42353E+04  3.80514E+04  4.70568E+03  2.72606E+04  2.40631E+04  4.35081E+03  4.12896E+04
 -1.95535E+04  3.42021E+04 -3.06514E+04  1.20498E+04 -2.21694E+04 -1.00010E+04 -5.10320E+03 -1.31351E+04
  8.30293E+02 -1.19839E+03 -7.48163E+03  8.65854E+03 -2.04835E+04  5.25384E+03 -2.03738E+04 -9.45199E+03
 -1.18877E+04 -2.36156E+04  6.05648E+03 -2.78004E+04  1.87076E+04 -2.01560E+04  2.27374E+04 -1.67473E+03
  1.43961E+04  1.61096E+04 -1.04927E+03  2.27269E+04 -1.67484E+04  1.35605E+04 -2.38079E+04 -4.68047E+03
 -1.69966E+04 -2.08533E+04 -2.21998E+03 -2.82129E+04  1.28155E+04 -2.33124E+04  2.34068E+04 -1.24735E+04
  2.14763E+04 -3.59746E+02  1.54939E+04  5.29021E+03  8.70600E+03  1.51491E+03  1.22441E+04 -1.70447E+03
  2.24409E+04  2.96790E+03  2.54879E+04  1.82161E+04  1.71094E+04  3.74407E+04 -2.58045E+03  4.41399E+04
 -2.52868E+04  3.69303E+04 -4.14046E+04  1.89512E+04 -4.48433E+04 -3.34438E+03 -3.58485E+04 -2.61692E+04
 -1.47298E+04 -3.67054E+04  1.35835E+04 -3.25235E+04  2.77340E+04 -1.53559E+04  2.38286E+04  7.77520E+03
  8.15931E+03  1.83040E+04 -1.17905E+04  1.58582E+04 -2.01295E+04  2.25100E+03 -1.50999E+04 -1.28937E+04
  3.12220E+02 -1.92400E+04  1.02512E+04 -1.44214E+04  1.32621E+04 -1.10968E+03  3.87506E+03  9.09318E+03
 -8.51687E+03  4.36599E+03 -9.67409E+03 -6.99931E+03 -2.01471E+03 -1.84345E+04  1.17313E+04 -1.97487E+04
  2.30040E+04 -1.07608E+04  2.63248E+04  3.09405E+03  2.27730E+04  1.90741E+04  1.11794E+04  2.87539E+04
 -5.28944E+03  3.09791E+04 -2.03504E+04  1.93655E+04 -2.28909E+04  4.20996E+03 -1.57629E+04 -5.69777E+03
 -6.21416E+03 -7.62801E+03 -6.61695E+02  6.26591E+02 -2.93471E+03  3.36529E+03 -7.36210E+03  5.49285E+03
 -1.38322E+04 -1.00890E+03 -1.49509E+04 -1.17582E+04 -6.15762E+03 -1.93737E+04  6.49882E+03 -1.59348E+04
  1.31979E+04 -6.16454E+03  8.79934E+03  4.02942E+03 -4.24134E+02  6.13598E+03 -8.15971E+03 -3.11794E+02
 -7.48904E+03 -1.00352E+04 -9.85023E+02 -1.54425E+04  9.27483E+03 -1.61087E+04  1.97894E+04 -8.70433E+03
  2.32420E+04  2.37741E+03  1.64854E+04  1.38122E+04  3.83380E+03  1.90359E+04 -9.82387E+03  1.55442E+04
 -1.30172E+04  4.32189E+03 -6.87637E+03 -3.77633E+03  2.21959E+03 -4.48193E+03  8.33618E+03 -1.24982E+03
  7.18856E+03  6.91050E+03  9.75146E+02  1.28739E+04 -9.03676E+03  1.20694E+04 -1.54747E+04  2.78975E+03
 -1.11193E+04 -8.25004E+03 -3.06629E+02 -1.31719E+04  9.27405E+03 -6.89645E+03  9.34738E+03  2.92285E+03
  2.21748E+03  1.01212E+04 -8.08856E+03  1.15054E+04 -1.38582E+04  4.65715E+03 -1.40382E+04 -4.80245E+03
 -8.34936E+03 -1.58735E+04  3.91470E+03 -1.80351E+04  1.54779E+04 -1.08728E+04  1.69278E+04  2.81594E+03
  9.89923E+03  1.32521E+04 -1.33441E+03  1.57998E+04 -1.14968E+04  8.81194E+03 -1.28308E+04 -1.28381E+03
 -1.02863E+04 -1.03310E+04 -1.85108E+03 -1.16273E+04  6.24081E+03 -9.47308E+03  7.69913E+03 -3.58117E+03
  4.93872E+03  2.17992E+03 -7.85349E+02  2.03596E+03 -7.54052E+02 -3.79901E+03  2.74136E+03 -7.41826E+03
  1.14133E+04 -4.33771E+03  1.62718E+04  1.88359E+03  1.57572E+04  1.08120E+04  1.01743E+04  2.08344E+04
 -5.08539E+03  2.38073E+04 -1.97775E+04  1.77715E+04 -2.56864E+04  3.40983E+03 -2.06281E+04 -8.89655E+03
 -1.01990E+04 -1.71286E+04 -3.22932E+02 -1.47567E+04  5.33464E+03 -8.42401E+03  5.59587E+03 -5.51686E+03
  3.99960E+03 -3.17140E+03  3.86299E+03 -3.97779E+03  5.84956E+03 -3.58703E+03  8.10443E+03 -1.79014E+03
  1.07886E+04  2.81127E+03  5.77794E+03  9.51255E+03 -2.15148E+03  1.15857E+04 -1.16524E+04  8.26881E+03
 -1.45318E+04 -1.20166E+03 -9.51702E+03 -1.04733E+04 -1.32410E+03 -1.59025E+04  8.86602E+03 -1.56272E+04
  1.65857E+04 -8.80725E+03  1.95517E+04  3.01819E+03  1.32641E+04  1.39410E+04  1.82351E+03  1.82739E+04
 -7.08996E+03  1.44288E+04 -1.03388E+04  5.00233E+03 -7.29596E+03 -1.86384E+03 -2.81962E+03 -1.80929E+03
 -1.18838E+03  3.22213E+02 -2.05421E+03  3.15870E+03 -6.25092E+03  2.37003E+03 -9.74480E+03 -1.51494E+03
 -7.39263E+03 -1.00499E+04 -1.36246E+02 -1.47281E+04  9.26030E+03 -1.33179E+04  1.48693E+04 -4.39741E+03
  1.46753E+04  6.89275E+03  6.88527E+03  1.29906E+04 -2.96561E+03  1.48792E+04 -1.06277E+04  8.93326E+03
 -1.40979E+04  4.48759E+02 -1.10578E+04 -9.16792E+03 -1.19970E+03 -1.20413E+04  6.22951E+03 -9.06815E+03
  9.27076E+03 -3.17732E+03  6.49229E+03  2.62344E+03  2.24706E+03  4.43216E+03  1.79725E+03  1.82531E+03
  2.92133E+03  7.06723E+02  3.29270E+03  2.02757E+03  4.37575E+03  5.36941E+03  3.80114E+03  7.71996E+03
 -3.19299E+03  1.19060E+04 -1.05008E+04  1.17071E+04 -1.49170E+04  2.23763E+03 -1.56927E+04 -6.36453E+03
 -8.05685E+03 -1.52215E+04  2.41850E+03 -1.63623E+04  9.50506E+03 -1.02924E+04  1.21784E+04 -2.53799E+03
  9.17219E+03  5.93844E+03  2.13484E+03  8.83583E+03 -4.32003E+03  5.58775E+03 -6.12118E+03 -7.53596E+02
 -2.95260E+03 -6.60932E+03  3.64288E+03 -6.57081E+03  6.31431E+03 -3.43965E+03  5.51261E+03  1.58120E+03
  3.77006E+03  2.91476E+03  1.48036E+03  2.74554E+03 -9.47943E+02  2.18639E+03  1.66529E+03 -2.95727E+02
  2.62094E+03 -6.94572E+02  5.98931E+03  2.46899E+03  3.59856E+03  8.47264E+03 -1.30382E+03  1.07248E+04
 -7.18243E+03  7.04050E+03 -9.46676E+03  1.94857E+03 -8.53190E+03 -3.43868E+03 -3.53134E+03 -6.10630E+03
  9.14804E+02 -6.03297E+03  4.21530E+03 -2.63847E+03  3.33863E+03  2.65792E+03 -1.56682E+03  4.81313E+03
 -6.45841E+03  2.95255E+03 -6.88616E+03 -3.59855E+03 -3.92229E+03 -8.33596E+03  1.02100E+03 -8.40261E+03
  5.18232E+03 -5.05446E+03  5.82279E+03 -7.05611E+02  4.77594E+03  1.80367E+03  9.94716E+02  4.67398E+03
 -2.96167E+03  1.27201E+03 -3.55632E+03 -3.10649E+03  1.45786E+03 -6.65110E+03  7.37394E+03 -5.15688E+03
  9.17088E+03  1.02772E+03  9.41047E+03  6.98825E+03  3.22891E+03  9.78303E+03 -3.67613E+03  9.69417E+03
 -8.39565E+03  4.22675E+03 -8.57761E+03 -9.06508E+02 -4.66401E+03 -6.66494E+03  1.32788E+03 -6.08382E+03
  6.72652E+03 -2.71256E+03  5.51129E+03  2.12817E+03  1.60539E+03  5.87457E+03 -1.10525E+03  4.28428E+03
 -2.75479E+03  2.85307E+03 -2.71724E+03  1.20640E+03 -9.31583E+02  1.17543E+03 -1.94083E+03  2.40161E+03
 -2.20867E+03  4.25079E+03 -6.77054E+03  3.40424E+03 -1.02458E+04  1.40564E+02 -1.11831E+04 -6.43868E+03
 -5.83373E+03 -1.36065E+04  2.71722E+03 -1.55126E+04  9.58026E+03 -1.19013E+04  1.46473E+04 -4.35425E+03
  1.34044E+04  2.86816E+03  8.59432E+03  9.25237E+03  7.08646E+02  1.03505E+04 -4.34160E+03  7.78981E+03
 -5.68259E+03  2.78382E+03 -3.90681E+03 -1.02637E+03 -1.84291E+03 -1.00490E+03 -5.87470E+02 -5.13756E+02
 -1.80816E+03  4.31416E+02 -2.48710E+03 -2.71260E+02 -1.20064E+03 -2.17461E+03  1.53557E+02 -3.80348E+03
  4.53112E+03 -3.29293E+03  6.73696E+03  7.48263E+01  7.31083E+03  5.66560E+03  1.75840E+03  1.06191E+04
 -5.08598E+03  1.22561E+04 -1.10327E+04  6.79495E+03 -1.30117E+04 -7.94133E+02 -9.25810E+03 -7.88364E+03
 -3.98120E+03 -1.07403E+04  2.70066E+03 -1.01590E+04  6.92875E+03 -5.17798E+03  6.76357E+03  5.26441E+01
  4.21286E+03  3.58301E+03 -3.97938E+02  3.06087E+03 -2.29092E+03 -6.32896E+02  3.49239E+02 -2.93000E+03
  3.01342E+03 -1.33092E+03  4.49828E+03  1.40456E+03  2.71759E+03  4.19138E+03  1.02728E+02  5.65084E+03
 -4.84690E+03  4.70793E+03 -7.28253E+03  5.22343E+02 -6.65819E+03 -4.78070E+03 -1.02018E+03 -8.58146E+03
  4.83637E+03 -7.14166E+03  8.50777E+03 -2.17051E+03  8.55773E+03  1.95862E+03  5.13894E+03  6.28332E+03
  9.24048E+02  6.72591E+03 -2.84946E+03  5.68136E+03 -4.60583E+03  3.10028E+03 -3.56221E+03  1.52076E+02
 -2.13831E+03 -1.91815E+02 -1.96515E+03  7.95030E+02 -3.40416E+03  1.43731E+03 -5.49639E+03 -1.13528E+03
 -4.94654E+03 -3.69626E+03 -1.71780E+03 -7.35694E+03  3.23266E+03 -7.35702E+03  6.45806E+03 -3.50120E+03
  6.85219E+03  7.52936E+02  3.81623E+03  4.57030E+03 -1.85209E+02  7.24256E+03 -5.57102E+03  4.31907E+03
