 $NMID ID='MM_0lb_SNR800_8hz_g40_53.RAW', FMTDAT='(8E13.5)'
 TRAMP=1., VOLUME=1. $END
  3.09979E+05  5.27604E+02  3.37687E+05  2.50829E+05  8.50825E+04  3.38671E+05 -1.32624E+05  2.52033E+05
 -1.91153E+05  8.35860E+04 -1.12435E+05 -3.26466E+04  2.72599E+02 -5.06055E+04  5.34177E+04 -1.02969E+02
  3.57870E+04  5.33175E+04 -1.66709E+04  7.59971E+04 -6.12762E+04  6.44271E+04 -8.52084E+04  3.25111E+04
 -8.24250E+04 -1.17383E+04 -5.82243E+04 -5.23859E+04 -1.55666E+04 -7.12722E+04  2.84343E+04 -4.67964E+04
  4.08309E+04  3.99333E+03  1.68467E+04  4.88163E+04 -3.49443E+04  4.81647E+04 -6.78716E+04  2.96215E+02
 -5.46944E+04 -5.77318E+04 -7.55015E+03 -7.85636E+04  3.46283E+04 -5.66330E+04  4.99072E+04 -1.78277E+04
  4.57469E+04  1.21034E+04  3.25945E+04  2.64287E+04  1.55684E+04  3.07650E+04 -6.27758E+03  2.74908E+04
 -2.23784E+04  1.21455E+04 -1.80701E+04 -5.67950E+03  6.79944E+03 -7.34726E+03  2.33960E+04  1.43188E+04
  7.20050E+03  3.75477E+04 -3.42149E+04  3.70623E+04 -6.57229E+04  1.94151E+03 -5.91029E+04 -4.45283E+04
 -1.29653E+04 -6.62619E+04  4.15013E+04 -4.74921E+04  6.12332E+04 -2.58839E+03  3.68370E+04  3.45730E+04
 -5.05499E+03  3.92391E+04 -3.16998E+04  1.84536E+04 -3.33383E+04 -3.49196E+03 -1.91612E+04 -1.22243E+04
 -9.58541E+03 -1.47381E+04 -4.96869E+02 -1.97123E+04  8.52966E+03 -2.33304E+04  1.58178E+04 -1.26696E+04
  1.05373E+04  6.18327E+03 -1.05761E+04  1.28644E+04 -2.32431E+04 -6.33848E+03 -8.63405E+03 -3.73073E+04
  2.50308E+04 -4.72837E+04  5.19531E+04 -2.07215E+04  4.88514E+04  2.06844E+04  1.70838E+04  4.70119E+04
 -1.67890E+04  3.61219E+04 -2.79059E+04  2.65244E+03 -1.17778E+04 -2.90382E+04  2.11983E+04 -3.66460E+04
  4.48235E+04 -1.12094E+04  4.05917E+04  2.49024E+04  2.13152E+04  5.11355E+04 -8.68697E+03  5.66608E+04
 -3.56652E+04  3.83448E+04 -4.78772E+04  1.07381E+04 -4.74061E+04 -1.85271E+04 -2.59666E+04 -4.17511E+04
  7.62982E+03 -4.22281E+04  3.44406E+04 -1.72250E+04  3.22445E+04  1.11384E+04  4.84201E+03  2.09388E+04
 -1.38968E+04  9.47868E+03 -1.14062E+04 -7.04855E+03  5.46125E+03 -1.12681E+04  1.90456E+04  5.49127E+03
  1.49113E+04  2.27993E+04 -4.84517E+03  2.71403E+04 -2.36676E+04  1.46080E+04 -3.16259E+04 -2.82090E+03
 -2.56463E+04 -1.82948E+04 -1.13894E+04 -2.50316E+04  4.13186E+03 -2.56389E+04  1.97431E+04 -2.30629E+04
  3.21677E+04 -1.45190E+04  3.85866E+04  5.38386E+03  2.74159E+04  2.47690E+04  4.38697E+03  4.16989E+04
 -1.99483E+04  3.44183E+04 -3.04585E+04  1.14611E+04 -2.21478E+04 -1.03652E+04 -4.85619E+03 -1.31847E+04
  6.09620E+02 -1.27542E+03 -7.38048E+03  8.37482E+03 -2.04442E+04  5.00786E+03 -2.03175E+04 -9.42978E+03
 -1.22252E+04 -2.36934E+04  6.29524E+03 -2.81356E+04  1.87157E+04 -1.97601E+04  2.33149E+04 -1.72614E+03
  1.45302E+04  1.61137E+04 -9.88446E+02  2.34917E+04 -1.69855E+04  1.35985E+04 -2.39070E+04 -4.40145E+03
 -1.70658E+04 -2.09809E+04 -2.47462E+03 -2.84296E+04  1.27673E+04 -2.34337E+04  2.34007E+04 -1.23533E+04
  2.20985E+04 -6.05638E+02  1.60136E+04  5.23110E+03  8.57074E+03  1.63149E+03  1.22306E+04 -1.93886E+03
  2.22749E+04  2.73704E+03  2.58931E+04  1.83375E+04  1.77487E+04  3.76116E+04 -2.40925E+03  4.49870E+04
 -2.56737E+04  3.71382E+04 -4.22268E+04  1.93089E+04 -4.52833E+04 -2.92258E+03 -3.66140E+04 -2.65666E+04
 -1.45733E+04 -3.79246E+04  1.32234E+04 -3.31005E+04  2.84791E+04 -1.54361E+04  2.47075E+04  7.66431E+03
  8.72002E+03  1.90533E+04 -1.22282E+04  1.56112E+04 -2.00187E+04  2.41507E+03 -1.57401E+04 -1.29469E+04
 -2.44068E+02 -1.98016E+04  1.03911E+04 -1.42944E+04  1.33741E+04 -1.06343E+03  3.58025E+03  8.80133E+03
 -8.70602E+03  4.55254E+03 -9.58108E+03 -7.08877E+03 -2.10387E+03 -1.84013E+04  1.24419E+04 -2.01819E+04
  2.34107E+04 -1.15272E+04  2.66287E+04  3.60089E+03  2.37271E+04  1.88317E+04  1.09580E+04  2.97790E+04
 -5.68635E+03  3.13945E+04 -2.09164E+04  1.97195E+04 -2.29625E+04  3.69477E+03 -1.53646E+04 -5.96936E+03
 -6.64953E+03 -7.07660E+03 -8.96753E+02 -7.46212E+01 -3.34055E+03  3.86522E+03 -7.48556E+03  5.51627E+03
 -1.41101E+04 -9.89137E+02 -1.49474E+04 -1.20910E+04 -6.31685E+03 -1.96975E+04  6.64492E+03 -1.56960E+04
  1.32848E+04 -6.60960E+03  9.24153E+03  4.66845E+03 -4.29752E+02  6.46733E+03 -8.37542E+03  3.86200E+01
 -7.47152E+03 -1.04587E+04 -1.66455E+03 -1.60971E+04  9.18284E+03 -1.72026E+04  2.06370E+04 -9.04662E+03
  2.40391E+04  2.36301E+03  1.75247E+04  1.43402E+04  3.41122E+03  1.92803E+04 -1.00504E+04  1.61648E+04
 -1.28768E+04  4.51011E+03 -6.83187E+03 -3.56018E+03  2.26685E+03 -5.00962E+03  8.56972E+03 -4.81196E+02
  7.69314E+03  7.36532E+03  9.89279E+02  1.29517E+04 -9.02161E+03  1.21374E+04 -1.61836E+04  2.99651E+03
 -1.10925E+04 -8.85108E+03  4.10899E+02 -1.40825E+04  9.13269E+03 -7.28012E+03  9.65374E+03  3.17277E+03
  2.68755E+03  1.03893E+04 -8.63735E+03  1.18702E+04 -1.41680E+04  5.32207E+03 -1.44962E+04 -5.25740E+03
 -8.23438E+03 -1.65166E+04  3.94856E+03 -1.88633E+04  1.59229E+04 -1.13907E+04  1.71183E+04  2.94818E+03
  1.01865E+04  1.38884E+04 -1.83521E+03  1.61490E+04 -1.16875E+04  9.07532E+03 -1.33192E+04 -1.97321E+03
 -1.07708E+04 -1.09569E+04 -1.78196E+03 -1.28298E+04  6.77236E+03 -1.02145E+04  8.00900E+03 -3.23792E+03
  5.26145E+03  2.58896E+03 -1.35418E+03  1.93178E+03 -1.08473E+03 -3.42225E+03  3.06270E+03 -7.79101E+03
  1.20605E+04 -5.24646E+03  1.72149E+04  2.22298E+03  1.62713E+04  1.12234E+04  1.02741E+04  2.18812E+04
 -5.15015E+03  2.46381E+04 -2.05053E+04  1.83589E+04 -2.69236E+04  3.43242E+03 -2.15263E+04 -9.13820E+03
 -1.08901E+04 -1.73352E+04 -5.01227E+02 -1.49824E+04  5.23838E+03 -8.81931E+03  5.00417E+03 -5.29757E+03
  3.62106E+03 -3.19319E+03  3.65957E+03 -3.84380E+03  5.84471E+03 -3.75073E+03  8.40282E+03 -1.31288E+03
  1.17263E+04  2.78568E+03  6.17352E+03  9.96078E+03 -2.44931E+03  1.22292E+04 -1.21732E+04  8.59514E+03
 -1.50293E+04 -1.49595E+03 -1.00706E+04 -1.08217E+04 -1.37830E+03 -1.66035E+04  9.25794E+03 -1.66453E+04
  1.71016E+04 -9.54850E+03  2.05000E+04  3.02705E+03  1.40964E+04  1.47034E+04  2.19062E+03  1.86544E+04
 -8.01360E+03  1.50210E+04 -1.13864E+04  5.31572E+03 -7.68963E+03 -1.90767E+03 -2.85200E+03 -2.41208E+03
 -1.86996E+03 -3.48531E+02 -2.49588E+03  2.76042E+03 -6.31966E+03  2.34337E+03 -1.02840E+04 -1.29936E+03
 -8.18480E+03 -1.07775E+04  1.70039E+02 -1.55545E+04  9.97750E+03 -1.43961E+04  1.56861E+04 -4.55250E+03
  1.54646E+04  7.74436E+03  7.24008E+03  1.38609E+04 -3.17597E+03  1.53634E+04 -1.14573E+04  9.97717E+03
 -1.49961E+04  3.07423E+02 -1.12593E+04 -9.76388E+03 -1.41873E+03 -1.32466E+04  6.95738E+03 -9.88183E+03
  9.84646E+03 -3.06856E+03  6.71220E+03  2.69450E+03  2.40734E+03  5.09591E+03  1.25361E+03  2.11368E+03
  2.99214E+03  1.05626E+03  4.10801E+03  1.94144E+03  5.10995E+03  5.43140E+03  3.45542E+03  8.86962E+03
 -3.14492E+03  1.27698E+04 -1.10715E+04  1.21716E+04 -1.65812E+04  3.52524E+03 -1.69617E+04 -7.06778E+03
 -8.23685E+03 -1.62200E+04  2.39962E+03 -1.80640E+04  9.52704E+03 -1.14140E+04  1.30583E+04 -3.29527E+03
  1.04186E+04  5.95406E+03  2.26215E+03  9.36392E+03 -4.60948E+03  6.30589E+03 -6.56302E+03 -9.70560E+02
 -3.54533E+03 -7.11853E+03  3.84518E+03 -7.24834E+03  6.83939E+03 -3.37248E+03  6.15995E+03  1.30263E+03
  3.95164E+03  3.33835E+03  1.62551E+03  2.93758E+03 -9.95289E+02  2.68630E+03  1.88672E+03 -1.33446E+02
  2.16237E+03 -1.14513E+03  6.57645E+03  2.31860E+03  3.80903E+03  8.80009E+03 -1.62962E+03  1.09512E+04
 -7.64176E+03  7.68070E+03 -1.04679E+04  2.02494E+03 -9.51432E+03 -3.86612E+03 -3.53841E+03 -6.48715E+03
  6.92830E+02 -6.19790E+03  4.26390E+03 -3.01043E+03  3.88619E+03  2.71577E+03 -1.71750E+03  5.77274E+03
 -6.29744E+03  3.11824E+03 -8.37504E+03 -3.72320E+03 -4.53201E+03 -9.06361E+03  1.38237E+03 -9.08019E+03
  5.64595E+03 -5.78369E+03  6.77455E+03 -9.93433E+02  5.23192E+03  2.17993E+03  1.04521E+03  4.94617E+03
 -3.16401E+03  1.44678E+03 -4.16098E+03 -2.92848E+03  1.34244E+03 -7.31344E+03  8.15825E+03 -5.91228E+03
  1.04847E+04  1.16748E+03  9.94694E+03  7.07283E+03  3.13253E+03  1.12327E+04 -3.77395E+03  1.06043E+04
 -8.90353E+03  4.56346E+03 -9.68915E+03 -1.74913E+03 -5.10653E+03 -7.27755E+03  1.74847E+03 -6.95052E+03
  7.41082E+03 -3.15915E+03  5.81201E+03  2.93046E+03  2.03959E+03  6.13864E+03 -1.38632E+03  5.24275E+03
 -2.79153E+03  2.96729E+03 -2.67921E+03  1.25497E+03 -1.51609E+03  1.07433E+03 -1.99746E+03  2.18735E+03
 -3.04566E+03  3.99207E+03 -7.02715E+03  3.89596E+03 -1.11891E+04  5.16308E+02 -1.23885E+04 -7.09563E+03
 -6.70369E+03 -1.47383E+04  3.13478E+03 -1.66689E+04  1.05821E+04 -1.27196E+04  1.61562E+04 -5.34382E+03
  1.50322E+04  2.85133E+03  9.26675E+03  1.05065E+04  1.31249E+03  1.18348E+04 -4.49004E+03  8.83749E+03
 -6.58678E+03  2.83398E+03 -4.16701E+03 -1.46142E+03 -9.24278E+02 -1.24208E+03 -5.73071E+02 -2.36589E+02
 -1.95454E+03  5.32724E+02 -2.35530E+03 -4.74080E+02 -9.85979E+02 -2.75247E+03 -1.49242E+02 -4.25047E+03
  5.17884E+03 -4.05042E+03  7.35440E+03 -9.26451E+01  8.23104E+03  6.25382E+03  2.57923E+03  1.15335E+04
 -5.41014E+03  1.34207E+04 -1.23996E+04  7.81327E+03 -1.43678E+04 -6.20606E+02 -1.10174E+04 -8.90355E+03
 -4.16161E+03 -1.21500E+04  2.80836E+03 -1.10767E+04  7.64981E+03 -6.15612E+03  7.82034E+03 -1.33426E+02
  4.35603E+03  3.65549E+03 -5.78771E+02  3.78202E+03 -2.30919E+03  1.82798E+01  1.46531E+02 -2.53664E+03
  4.21313E+03 -2.18031E+03  4.52096E+03  1.74510E+03  3.22347E+03  4.71562E+03 -1.96107E+02  6.39252E+03
 -5.03131E+03  5.33051E+03 -8.08367E+03  7.62446E+02 -6.97205E+03 -5.86463E+03 -1.42955E+03 -1.01935E+04
  5.45451E+03 -7.87485E+03  9.16427E+03 -2.45037E+03  9.07374E+03  2.27011E+03  5.75721E+03  7.32677E+03
  8.58782E+02  8.01114E+03 -2.82238E+03  6.31335E+03 -5.28171E+03  3.87205E+03 -4.01336E+03  5.10642E+02
 -1.91703E+03 -3.22493E+02 -2.58114E+03  1.09796E+03 -4.40484E+03  1.64765E+03 -6.32795E+03 -1.27046E+03
 -6.21955E+03 -3.82207E+03 -1.97336E+03 -8.02556E+03  4.01575E+03 -8.59807E+03  6.94741E+03 -3.92062E+03
  8.11773E+03  1.23954E+03  4.62729E+03  5.75500E+03 -2.29587E+02  8.26148E+03 -6.07215E+03  5.33057E+03
