 $NMID ID='MM_0lb_SNR800_16hz_g55_95.RAW', FMTDAT='(8E13.5)'
 TRAMP=1., VOLUME=1. $END
  3.09976E+05  4.13688E+02  3.37609E+05  2.50406E+05  8.48452E+04  3.37784E+05 -1.32310E+05  2.50778E+05
 -1.90102E+05  8.32044E+04 -1.11406E+05 -3.26011E+04  9.36617E+02 -5.03941E+04  5.38327E+04 -1.33301E+02
  3.54453E+04  5.29001E+04 -1.67356E+04  7.52254E+04 -6.06820E+04  6.34297E+04 -8.40841E+04  3.22632E+04
 -8.08356E+04 -1.13493E+04 -5.70742E+04 -5.13821E+04 -1.48724E+04 -6.95275E+04  2.71477E+04 -4.60464E+04
  3.98313E+04  3.88729E+03  1.58430E+04  4.76217E+04 -3.44464E+04  4.73043E+04 -6.65806E+04 -2.64002E+02
 -5.35355E+04 -5.68683E+04 -6.54757E+03 -7.69451E+04  3.35116E+04 -5.46682E+04  4.78697E+04 -1.70374E+04
  4.29863E+04  1.11550E+04  3.16972E+04  2.49879E+04  1.58522E+04  2.90994E+04 -5.20995E+03  2.70737E+04
 -2.19947E+04  1.27867E+04 -1.86987E+04 -4.64531E+03  5.22519E+03 -7.64143E+03  2.23662E+04  1.21855E+04
  7.24746E+03  3.48478E+04 -3.17553E+04  3.52821E+04 -6.29375E+04  2.33906E+03 -5.67486E+04 -4.24841E+04
 -1.23537E+04 -6.29356E+04  3.96611E+04 -4.48177E+04  5.78446E+04 -2.15063E+03  3.39071E+04  3.20715E+04
 -6.00811E+03  3.55636E+04 -2.99067E+04  1.56372E+04 -3.00336E+04 -4.48169E+03 -1.62701E+04 -1.11509E+04
 -7.93635E+03 -1.28378E+04 -8.00674E+02 -1.77899E+04  7.39262E+03 -2.27715E+04  1.52087E+04 -1.35603E+04
  1.16592E+04  4.93329E+03 -7.94399E+03  1.28631E+04 -2.10153E+04 -4.20680E+03 -8.47613E+03 -3.30412E+04
  2.23831E+04 -4.30139E+04  4.72312E+04 -1.96100E+04  4.46223E+04  1.91401E+04  1.52431E+04  4.35472E+04
 -1.57784E+04  3.31850E+04 -2.49132E+04  1.56467E+03 -9.54465E+03 -2.74120E+04  2.10397E+04 -3.31672E+04
  4.02393E+04 -9.02978E+03  3.45876E+04  2.37045E+04  1.75562E+04  4.58900E+04 -7.85545E+03  4.94418E+04
 -3.07489E+04  3.29303E+04 -4.13426E+04  9.21594E+03 -4.13085E+04 -1.63123E+04 -2.30537E+04 -3.71257E+04
  7.16086E+03 -3.71923E+04  3.06772E+04 -1.41874E+04  2.85702E+04  1.10316E+04  3.89553E+03  1.89646E+04
 -1.34502E+04  8.12945E+03 -1.01087E+04 -7.62880E+03  5.87646E+03 -1.06261E+04  1.77571E+04  6.05395E+03
  1.29400E+04  2.19397E+04 -6.25849E+03  2.45485E+04 -2.23421E+04  1.09674E+04 -2.71887E+04 -5.04841E+03
 -1.96302E+04 -1.71172E+04 -7.74732E+03 -1.98603E+04  3.93999E+03 -1.85177E+04  1.48382E+04 -1.74557E+04
  2.48907E+04 -1.27036E+04  3.16432E+04  2.33672E+03  2.31368E+04  1.94632E+04  4.08681E+03  3.56561E+04
 -1.73009E+04  2.98157E+04 -2.74522E+04  1.02991E+04 -2.06715E+04 -1.04107E+04 -4.10127E+03 -1.34201E+04
  2.09825E+03 -2.82329E+03 -4.63697E+03  6.25251E+03 -1.56357E+04  5.12642E+03 -1.54433E+04 -6.42989E+03
 -9.84998E+03 -1.79940E+04  4.99934E+03 -2.22639E+04  1.49940E+04 -1.57991E+04  1.70635E+04 -1.28913E+03
  1.06257E+04  1.27757E+04 -8.51522E+02  1.81000E+04 -1.23818E+04  1.02534E+04 -1.79507E+04 -4.11360E+03
 -1.32927E+04 -1.61441E+04 -1.60382E+03 -2.20375E+04  9.96869E+03 -1.80913E+04  1.83270E+04 -9.06288E+03
  1.68688E+04  9.24840E+01  1.20643E+04  4.32595E+03  6.27156E+03  9.79796E+02  9.12199E+03 -1.58599E+03
  1.64759E+04  2.75520E+03  1.79424E+04  1.43610E+04  1.15606E+04  2.85866E+04 -2.75749E+03  3.20934E+04
 -1.88581E+04  2.55151E+04 -2.95782E+04  1.24518E+04 -3.11816E+04 -2.22527E+03 -2.57831E+04 -1.77040E+04
 -1.12144E+04 -2.53502E+04  8.69699E+03 -2.33393E+04  1.99903E+04 -1.21474E+04  1.81659E+04  5.17464E+03
  7.06203E+03  1.36237E+04 -8.42323E+03  1.21121E+04 -1.51697E+04  2.50830E+03 -1.15021E+04 -9.27218E+03
 -5.41859E+02 -1.47545E+04  7.28923E+03 -1.09777E+04  9.49914E+03 -1.58057E+03  2.14797E+03  5.96260E+03
 -6.41712E+03  2.25831E+03 -5.28900E+03 -5.63357E+03 -3.11095E+02 -1.19732E+04  9.12102E+03 -1.26601E+04
  1.55103E+04 -6.12742E+03  1.58369E+04  2.91190E+03  1.38820E+04  1.21559E+04  6.46001E+03  1.83015E+04
 -3.20267E+03  2.03813E+04 -1.29789E+04  1.26598E+04 -1.45111E+04  3.36159E+03 -1.04080E+04 -2.91056E+03
 -4.95550E+03 -4.50881E+03 -4.31396E+02  1.20052E+03 -1.97981E+03  2.47089E+03 -4.77206E+03  3.96709E+03
 -9.75935E+03 -4.16741E+02 -1.04491E+04 -8.66552E+03 -3.89773E+03 -1.37253E+04  4.00909E+03 -1.05352E+04
  8.99746E+03 -4.28658E+03  6.35999E+03  2.89906E+03  1.26321E+02  3.84001E+03 -4.53850E+03 -1.95554E+02
 -4.36093E+03 -6.39471E+03 -1.04057E+03 -9.50500E+03  5.28243E+03 -1.02280E+04  1.25125E+04 -5.13172E+03
  1.50280E+04  1.13494E+03  1.08759E+04  7.95488E+03  2.27502E+03  1.14685E+04 -6.42532E+03  1.02921E+04
 -8.24381E+03  3.24679E+03 -4.43949E+03 -2.21272E+03  1.69219E+03 -2.54827E+03  5.61836E+03 -1.09302E+03
  5.09591E+03  4.35448E+03  1.37655E+03  7.72339E+03 -5.55724E+03  7.89170E+03 -9.76844E+03  2.04635E+03
 -6.24913E+03 -4.70348E+03 -1.55083E+02 -8.39977E+03  4.90960E+03 -4.33844E+03  5.08987E+03  1.82205E+03
  7.16377E+02  4.97242E+03 -5.16085E+03  6.43177E+03 -6.97838E+03  3.05599E+03 -6.73515E+03 -2.15964E+03
 -4.44434E+03 -8.58991E+03  1.95059E+03 -9.96934E+03  8.35194E+03 -5.84812E+03  9.07030E+03  1.59953E+03
  5.94542E+03  7.40805E+03 -3.74523E+02  9.33674E+03 -6.76102E+03  5.19376E+03 -7.00945E+03 -4.09825E+02
 -7.00132E+03 -6.18956E+03 -1.41989E+03 -6.74691E+03  3.79412E+03 -5.55830E+03  4.26259E+03 -3.03745E+03
  3.44136E+03  7.32976E+02 -1.98034E+02  1.33156E+03  9.01866E+01 -1.07000E+03  7.76562E+02 -3.27676E+03
  5.70956E+03 -1.32725E+03  7.91757E+03  9.17014E+02  7.80423E+03  5.06365E+03  6.17485E+03  1.06775E+04
 -2.33707E+03  1.20966E+04 -1.02941E+04  8.93904E+03 -1.35059E+04  1.53500E+03 -1.06216E+04 -4.19627E+03
 -5.59318E+03 -8.90963E+03 -2.97502E+02 -7.55048E+03  2.48657E+03 -3.40889E+03  2.35541E+03 -2.82172E+03
  1.80549E+03 -1.86222E+03  2.54481E+03 -2.78186E+03  4.15752E+03 -2.00659E+03  4.45974E+03  2.04366E+00
  5.94026E+03  1.45402E+03  2.16920E+03  4.48331E+03 -1.86846E+03  4.71901E+03 -6.06990E+03  3.85121E+03
 -7.18906E+03 -1.07607E+03 -3.47124E+03 -4.89219E+03 -1.12925E+02 -7.32690E+03  4.41022E+03 -7.78333E+03
  7.54626E+03 -4.45634E+03  9.41535E+03  8.06216E+02  6.86287E+03  5.95855E+03  1.40862E+03  8.57312E+03
 -3.16804E+03  7.81479E+03 -4.63721E+03  2.61323E+03 -3.03630E+03 -9.86259E+02 -1.10637E+03 -8.34907E+02
 -4.46278E+02  1.29699E+02 -1.05881E+03  2.36185E+03 -3.18099E+03  1.43709E+03 -5.34199E+03 -5.61508E+02
 -2.58063E+03 -5.30493E+03  7.70598E+02 -6.79409E+03  3.71634E+03 -6.23970E+03  5.74125E+03 -1.80088E+03
  6.22008E+03  3.05725E+03  2.73412E+03  5.00749E+03 -9.51878E+02  6.50526E+03 -4.13523E+03  4.12828E+03
 -5.59305E+03  6.65862E+02 -4.71754E+03 -3.56709E+03 -9.20465E+01 -4.89933E+03  2.40643E+03 -3.62433E+03
  3.82918E+03 -1.62348E+03  2.52265E+03  8.45256E+02  9.89108E+02  2.10324E+03  1.02379E+03  8.25663E+02
  2.09984E+03  8.77957E+02  1.24516E+03  1.24110E+03  1.67539E+03  2.97428E+03  1.90462E+03  2.88931E+03
 -1.58919E+03  4.60490E+03 -4.30761E+03  5.54184E+03 -5.38290E+03  1.62099E+03 -6.24567E+03 -1.62781E+03
 -2.57306E+03 -5.52690E+03  9.44750E+02 -6.71253E+03  3.00136E+03 -3.71774E+03  4.57884E+03 -1.40890E+03
  3.76928E+03  2.54129E+03  9.09934E+02  3.35422E+03 -1.18979E+03  2.06811E+03 -1.87024E+03 -3.98809E+02
 -1.10036E+03 -2.44072E+03  1.71931E+03 -2.49326E+03  2.03966E+03 -1.22176E+03  2.14936E+03  5.04052E+02
  1.39736E+03  8.35177E+02  8.18393E+02  2.87518E+02 -2.67240E+02  8.43750E+02  1.44051E+03 -1.52515E+02
  4.56127E+02 -2.70038E+02  2.88298E+03  9.44745E+02  8.87863E+02  3.42532E+03 -5.30184E+02  4.29869E+03
 -2.58605E+03  2.06851E+03 -3.28717E+03  3.90497E+02 -3.13411E+03 -1.10211E+03 -8.47863E+02 -1.80846E+03
  6.05469E+02 -1.98112E+03  1.41794E+03 -8.15574E+02  6.75514E+02  1.24384E+03 -5.96546E+02  1.84626E+03
 -2.26280E+03  1.23923E+03 -2.16215E+03 -1.67384E+03 -1.39961E+03 -3.23774E+03  3.09320E+02 -2.48932E+03
  1.05459E+03 -1.50857E+03  1.54155E+03 -2.42807E+01  1.52358E+03  2.89161E+02  6.05091E+02  1.58253E+03
 -7.76432E+02  6.50442E+02 -1.47667E+03 -7.11248E+02  6.27709E+02 -1.68616E+03  2.36794E+03 -1.41984E+03
  2.05566E+03  6.71423E+01  3.69434E+03  1.18880E+03  1.51356E+03  2.84178E+03 -1.01094E+03  2.91841E+03
 -2.84782E+03  9.18702E+02 -2.58799E+03 -2.76484E+02 -1.42070E+03 -2.33042E+03  8.16196E+02 -1.51961E+03
  1.94410E+03 -1.18165E+03  1.39220E+03  1.07825E+03  3.80404E+02  1.87789E+03  3.59460E+02  1.71945E+03
 -4.69274E+02  1.15684E+03 -8.35116E+02  3.07020E+02 -6.25827E+01  6.21162E+02 -9.76375E+02  6.72314E+02
 -1.01713E+03  1.52831E+03 -2.29975E+03  8.75777E+02 -2.99508E+03  2.59882E+02 -3.62167E+03 -2.12969E+03
 -1.63170E+03 -3.51745E+03  8.07064E+02 -4.75534E+03  1.93746E+03 -3.71182E+03  4.35861E+03 -1.72676E+03
  4.05753E+03  2.05442E+02  2.34321E+03  2.78520E+03 -3.93961E+02  2.53311E+03 -8.69969E+02  2.30259E+03
 -1.63923E+03  1.07297E+03 -9.33102E+02 -3.90756E+02 -5.90241E+02  6.44432E+01 -4.29889E+02 -1.96508E+02
 -1.05558E+03 -1.48127E+02 -8.87902E+02  1.31833E+01  1.01988E+02 -9.62942E+02 -2.82443E+02 -9.04342E+02
  1.80416E+03 -1.00477E+03  9.64041E+02  5.85348E+01  2.04096E+03  1.33408E+03  1.26645E+02  2.57654E+03
 -1.18854E+03  3.32894E+03 -2.79140E+03  2.06138E+03 -3.09876E+03 -3.95878E+02 -2.11326E+03 -2.18913E+03
 -1.63984E+03 -2.37261E+03  5.23491E+02 -2.19705E+03  1.30027E+03 -9.29149E+02  1.26142E+03  1.15169E+02
  9.73801E+02  5.75080E+02  7.28712E+01  5.75303E+02 -8.48496E+02 -1.70481E+01  1.12791E+02 -5.45700E+02
  9.98415E+02 -1.33370E+01  9.55792E+02  4.07243E+02  3.82229E+02  1.06551E+03  2.74700E+02  8.79923E+02
 -1.29011E+03  9.82644E+02 -1.40836E+03  1.36679E+02 -1.31891E+03 -8.13350E+02  2.70747E+01 -2.13401E+03
  1.06174E+03 -1.31239E+03  1.41592E+03 -2.52937E+02  1.91038E+03 -4.22252E+02  9.35502E+02  1.16492E+03
  5.23385E+02  1.30119E+03 -2.08050E+02  1.13144E+03 -8.86234E+02  7.00831E+02 -8.05439E+02  3.54873E+02
 -5.66272E+02 -2.04456E+02 -5.28571E+02  4.54848E+02 -1.04183E+03  4.27565E+02 -1.23970E+03 -3.00950E+02
 -1.35295E+03  8.01138E+01 -4.39911E+02 -1.53306E+03  1.05276E+03 -1.99000E+03  1.05934E+03 -5.02494E+02
  1.37394E+03  8.21238E+01 -4.91168E+01  6.91032E+02 -1.75443E+02  1.67253E+03 -1.22976E+03  1.01774E+03
