 $NMID ID='MM_0lb_SNR800_9hz_g55_50.RAW', FMTDAT='(8E13.5)'
 TRAMP=1., VOLUME=1. $END
  3.09859E+05  9.43360E+01  3.37972E+05  2.50937E+05  8.50752E+04  3.38225E+05 -1.32606E+05  2.52043E+05
 -1.91004E+05  8.38430E+04 -1.12896E+05 -3.24063E+04  4.65793E+02 -5.05815E+04  5.39427E+04 -5.66200E+02
  3.57354E+04  5.27430E+04 -1.64815E+04  7.60402E+04 -6.15624E+04  6.43798E+04 -8.53622E+04  3.21702E+04
 -8.21623E+04 -1.14213E+04 -5.85989E+04 -5.20740E+04 -1.48941E+04 -7.09793E+04  2.81225E+04 -4.66074E+04
  4.14660E+04  3.75539E+03  1.71140E+04  4.83126E+04 -3.48843E+04  4.82113E+04 -6.82576E+04  4.29326E+02
 -5.51747E+04 -5.77644E+04 -7.46908E+03 -7.91435E+04  3.51169E+04 -5.73093E+04  4.98108E+04 -1.83848E+04
  4.56439E+04  1.18199E+04  3.30635E+04  2.70774E+04  1.54779E+04  3.06861E+04 -6.17278E+03  2.74104E+04
 -2.24982E+04  1.19243E+04 -1.82239E+04 -6.01432E+03  7.15423E+03 -7.75628E+03  2.39509E+04  1.41925E+04
  6.57558E+03  3.81939E+04 -3.41809E+04  3.66196E+04 -6.64441E+04  2.21005E+03 -5.88845E+04 -4.48182E+04
 -1.26897E+04 -6.61350E+04  4.18858E+04 -4.75570E+04  6.18330E+04 -2.33712E+03  3.71739E+04  3.49241E+04
 -5.26267E+03  3.93212E+04 -3.20459E+04  1.88547E+04 -3.36555E+04 -3.57475E+03 -1.95917E+04 -1.17321E+04
 -9.74492E+03 -1.51336E+04 -8.59840E+02 -2.03786E+04  8.52743E+03 -2.36745E+04  1.60825E+04 -1.26916E+04
  1.05335E+04  6.15123E+03 -1.05345E+04  1.26842E+04 -2.35808E+04 -6.84721E+03 -8.62779E+03 -3.76616E+04
  2.55227E+04 -4.74405E+04  5.21991E+04 -2.08324E+04  4.88573E+04  2.10451E+04  1.72393E+04  4.75257E+04
 -1.67546E+04  3.65731E+04 -2.76502E+04  2.74822E+03 -1.17038E+04 -2.97474E+04  2.14912E+04 -3.74201E+04
  4.48972E+04 -1.12361E+04  4.08648E+04  2.52234E+04  2.21756E+04  5.14702E+04 -8.14492E+03  5.69106E+04
 -3.55547E+04  3.90811E+04 -4.80567E+04  1.13607E+04 -4.78137E+04 -1.85730E+04 -2.65792E+04 -4.24975E+04
  8.36824E+03 -4.29523E+04  3.43264E+04 -1.72945E+04  3.22928E+04  1.12670E+04  5.61129E+03  2.07522E+04
 -1.39112E+04  9.78435E+03 -1.13024E+04 -7.46766E+03  5.24083E+03 -1.14320E+04  1.85830E+04  5.43284E+03
  1.50482E+04  2.29738E+04 -5.06261E+03  2.69193E+04 -2.36682E+04  1.44343E+04 -3.13944E+04 -2.74482E+03
 -2.58848E+04 -1.85510E+04 -1.19997E+04 -2.55676E+04  4.54811E+03 -2.66789E+04  1.99907E+04 -2.33180E+04
  3.30104E+04 -1.42332E+04  3.88318E+04  5.08314E+03  2.75112E+04  2.48149E+04  4.43370E+03  4.16606E+04
 -2.00270E+04  3.47459E+04 -3.09704E+04  1.21098E+04 -2.25977E+04 -1.00805E+04 -5.26565E+03 -1.25713E+04
  7.44623E+02 -1.21666E+03 -7.80825E+03  8.42415E+03 -2.05823E+04  5.20413E+03 -2.06333E+04 -1.01446E+04
 -1.21278E+04 -2.41366E+04  5.64834E+03 -2.82239E+04  1.90249E+04 -2.02341E+04  2.34088E+04 -1.79231E+03
  1.46873E+04  1.60813E+04 -1.20826E+03  2.34613E+04 -1.72477E+04  1.38830E+04 -2.44069E+04 -4.68450E+03
 -1.73876E+04 -2.11508E+04 -2.29838E+03 -2.82986E+04  1.28447E+04 -2.40119E+04  2.35120E+04 -1.26910E+04
  2.24708E+04 -4.11128E+02  1.62490E+04  5.18841E+03  9.03837E+03  1.73689E+03  1.26162E+04 -2.24328E+03
  2.29121E+04  2.86496E+03  2.61191E+04  1.85970E+04  1.83336E+04  3.82883E+04 -2.62765E+03  4.51548E+04
 -2.58998E+04  3.80018E+04 -4.26326E+04  1.92127E+04 -4.61044E+04 -3.54699E+03 -3.68816E+04 -2.66596E+04
 -1.46454E+04 -3.82472E+04  1.31938E+04 -3.35604E+04  2.82615E+04 -1.57199E+04  2.49224E+04  8.17644E+03
  8.05747E+03  1.91039E+04 -1.17414E+04  1.57073E+04 -2.05512E+04  2.38521E+03 -1.56337E+04 -1.32829E+04
 -4.93854E+02 -1.99234E+04  1.07331E+04 -1.46234E+04  1.40605E+04 -1.27488E+03  3.59634E+03  9.15921E+03
 -9.07047E+03  4.54897E+03 -9.75148E+03 -7.21556E+03 -2.41264E+03 -1.89682E+04  1.21295E+04 -2.07863E+04
  2.35980E+04 -1.13257E+04  2.68085E+04  3.42345E+03  2.34656E+04  1.87143E+04  1.11548E+04  3.04774E+04
 -5.98605E+03  3.18603E+04 -2.10508E+04  1.98471E+04 -2.32280E+04  4.17378E+03 -1.56322E+04 -5.93919E+03
 -6.77204E+03 -7.56832E+03 -5.20185E+02  6.92734E+02 -3.37174E+03  3.82363E+03 -7.49022E+03  5.69320E+03
 -1.46899E+04 -1.13464E+03 -1.48751E+04 -1.20978E+04 -6.30218E+03 -2.01199E+04  6.39552E+03 -1.58026E+04
  1.32349E+04 -6.63199E+03  9.34306E+03  4.44328E+03 -2.34061E+02  6.35060E+03 -8.46531E+03 -1.60544E+02
 -7.84998E+03 -1.02297E+04 -1.02331E+03 -1.62399E+04  9.60169E+03 -1.69216E+04  2.09039E+04 -8.59967E+03
  2.42287E+04  2.41708E+03  1.75370E+04  1.50047E+04  3.46910E+03  1.98954E+04 -9.92403E+03  1.62253E+04
 -1.29857E+04  4.30170E+03 -6.58080E+03 -3.57051E+03  2.36528E+03 -4.66862E+03  8.58095E+03 -9.87030E+02
  7.88818E+03  7.00711E+03  1.31630E+03  1.33038E+04 -9.64782E+03  1.22886E+04 -1.61710E+04  3.04317E+03
 -1.11517E+04 -8.23197E+03  1.90774E+02 -1.37285E+04  9.21868E+03 -7.07651E+03  9.93969E+03  3.75033E+03
  2.39904E+03  1.06725E+04 -8.69004E+03  1.23881E+04 -1.45213E+04  5.34302E+03 -1.46645E+04 -5.38713E+03
 -8.22933E+03 -1.67338E+04  4.19853E+03 -1.86901E+04  1.58116E+04 -1.09865E+04  1.74528E+04  3.01302E+03
  1.04896E+04  1.37197E+04 -1.97619E+03  1.61896E+04 -1.18400E+04  9.02762E+03 -1.30934E+04 -1.48842E+03
 -1.09236E+04 -1.06891E+04 -2.05641E+03 -1.25460E+04  6.60469E+03 -1.00691E+04  8.28791E+03 -3.42542E+03
  5.34508E+03  2.21637E+03 -1.13942E+03  2.32625E+03 -8.12097E+02 -3.42719E+03  3.04884E+03 -8.20582E+03
  1.18223E+04 -5.31029E+03  1.73312E+04  2.01363E+03  1.62290E+04  1.14345E+04  1.05833E+04  2.17780E+04
 -4.99329E+03  2.50618E+04 -2.09438E+04  1.85811E+04 -2.67008E+04  3.58235E+03 -2.15589E+04 -9.72988E+03
 -1.06928E+04 -1.73370E+04 -5.66474E+02 -1.48853E+04  5.34805E+03 -8.55822E+03  5.42579E+03 -5.84732E+03
  3.99710E+03 -3.27491E+03  3.73878E+03 -3.66317E+03  5.86910E+03 -3.89078E+03  8.41837E+03 -9.73140E+02
  1.10825E+04  2.18168E+03  5.72820E+03  9.42830E+03 -2.01829E+03  1.19148E+04 -1.14100E+04  9.04127E+03
 -1.49766E+04 -1.00911E+03 -9.68849E+03 -1.07977E+04 -1.68816E+03 -1.64875E+04  8.56430E+03 -1.64421E+04
  1.72802E+04 -9.04677E+03  2.00914E+04  2.82118E+03  1.37094E+04  1.42867E+04  2.03007E+03  1.82080E+04
 -8.03087E+03  1.47840E+04 -1.08768E+04  5.33036E+03 -7.21894E+03 -1.53763E+03 -3.09145E+03 -2.57230E+03
 -1.05705E+03 -2.42129E+02 -2.47516E+03  2.92608E+03 -6.30033E+03  2.39327E+03 -1.02549E+04 -1.55226E+03
 -8.02229E+03 -1.05733E+04 -2.88721E+02 -1.55298E+04  9.51775E+03 -1.37069E+04  1.50498E+04 -4.29083E+03
  1.52612E+04  7.50791E+03  6.90930E+03  1.36618E+04 -2.76299E+03  1.56583E+04 -1.12918E+04  9.89962E+03
 -1.41104E+04  6.70357E+02 -1.11287E+04 -9.57005E+03 -1.15673E+03 -1.31974E+04  6.70518E+03 -9.61589E+03
  9.32350E+03 -2.24847E+03  7.05585E+03  2.20975E+03  2.73692E+03  4.80121E+03  1.17698E+03  2.05412E+03
  2.52508E+03  1.13537E+03  3.51523E+03  1.69773E+03  4.65806E+03  5.62947E+03  3.92262E+03  8.47464E+03
 -3.27959E+03  1.24201E+04 -1.07388E+04  1.19752E+04 -1.65773E+04  3.13034E+03 -1.66040E+04 -6.80250E+03
 -7.63553E+03 -1.56964E+04  2.57449E+03 -1.70557E+04  9.67779E+03 -1.10608E+04  1.28425E+04 -2.60260E+03
  1.01286E+04  5.81230E+03  2.43343E+03  9.24503E+03 -4.53272E+03  5.90444E+03 -5.89314E+03 -9.89988E+02
 -2.84017E+03 -6.98020E+03  3.70650E+03 -6.76291E+03  6.43302E+03 -3.45322E+03  6.61482E+03  1.34881E+03
  3.83008E+03  3.11842E+03  1.90749E+03  2.83008E+03 -7.80809E+02  2.17772E+03  1.48872E+03 -6.31290E+02
  3.20347E+03 -9.58555E+02  6.42204E+03  2.59583E+03  3.64644E+03  8.27239E+03 -1.53865E+03  1.11730E+04
 -7.35612E+03  7.25892E+03 -1.01784E+04  2.23370E+03 -8.40533E+03 -3.49507E+03 -3.61035E+03 -6.65201E+03
  5.49720E+02 -6.18756E+03  3.92844E+03 -2.81038E+03  3.20879E+03  3.10750E+03 -1.74332E+03  4.91918E+03
 -6.40576E+03  2.85411E+03 -7.32895E+03 -3.80566E+03 -4.32941E+03 -8.67751E+03  1.01683E+03 -9.09747E+03
  5.34323E+03 -5.43698E+03  6.31643E+03 -1.06630E+03  5.37167E+03  2.74688E+03  1.20129E+03  4.96539E+03
 -2.88914E+03  1.15124E+03 -3.99200E+03 -3.10914E+03  1.65169E+03 -6.52992E+03  7.89286E+03 -5.36207E+03
  1.01708E+04  1.13895E+03  9.62241E+03  6.71557E+03  3.11596E+03  1.00599E+04 -3.98506E+03  1.02845E+04
 -8.77782E+03  4.29740E+03 -9.06438E+03 -1.25684E+03 -4.89894E+03 -6.46529E+03  1.71678E+03 -6.25283E+03
  6.51353E+03 -3.14186E+03  6.14853E+03  2.79166E+03  1.99483E+03  5.49124E+03 -8.75769E+02  5.28405E+03
 -2.93308E+03  3.37666E+03 -2.59967E+03  8.79804E+02 -1.08391E+03  8.73080E+02 -1.22672E+03  2.01417E+03
 -2.26654E+03  4.23470E+03 -6.86539E+03  3.94167E+03 -1.03952E+04  3.16131E+02 -1.14004E+04 -7.13166E+03
 -6.20290E+03 -1.40301E+04  2.71672E+03 -1.60913E+04  9.90339E+03 -1.21856E+04  1.53462E+04 -4.87003E+03
  1.40108E+04  2.69530E+03  8.84913E+03  9.79209E+03  5.42786E+02  1.10787E+04 -4.10809E+03  7.81889E+03
 -6.55220E+03  2.96277E+03 -3.68988E+03 -1.01922E+03 -7.91012E+02 -1.23841E+03 -7.31149E+02  3.29460E+02
 -1.94197E+03  3.42919E+02 -2.55141E+03 -4.28907E+02 -1.00347E+03 -2.41957E+03  2.26369E+02 -4.18073E+03
  5.04960E+03 -3.35664E+03  6.35463E+03 -1.57638E+02  7.50551E+03  6.19470E+03  1.99102E+03  1.08641E+04
 -5.40332E+03  1.24366E+04 -1.19965E+04  7.23257E+03 -1.34355E+04 -1.33401E+03 -1.01950E+04 -8.28641E+03
 -4.11235E+03 -1.13470E+04  3.08508E+03 -1.04265E+04  7.30344E+03 -5.57046E+03  7.48970E+03  1.33856E+02
  3.84983E+03  3.83596E+03 -3.27386E+02  3.39690E+03 -2.08867E+03 -3.51139E+02  1.24372E+02 -2.94026E+03
  3.20262E+03 -2.22012E+03  4.73684E+03  1.89686E+03  3.16344E+03  4.53454E+03 -2.96891E+01  5.81253E+03
 -4.77261E+03  5.07396E+03 -7.45841E+03  7.53307E+02 -6.64207E+03 -5.48864E+03 -1.22631E+03 -9.36225E+03
  5.47829E+03 -7.88761E+03  8.52032E+03 -2.41393E+03  8.76502E+03  1.45199E+03  4.45042E+03  6.74548E+03
  8.95398E+02  7.43412E+03 -2.77726E+03  5.88214E+03 -4.54619E+03  3.14953E+03 -3.82552E+03  5.71428E+02
 -2.04069E+03 -5.00045E+02 -2.27158E+03  1.05150E+03 -4.18880E+03  1.17710E+03 -5.79353E+03 -1.03008E+03
 -5.41204E+03 -3.92058E+03 -1.78515E+03 -7.54360E+03  3.18995E+03 -7.49660E+03  6.31016E+03 -3.54291E+03
  7.50924E+03  1.18567E+03  3.60980E+03  4.99956E+03 -4.29504E+02  7.36183E+03 -5.74455E+03  4.52750E+03
