 $NMID ID='MM_0lb_SNR800_18hz_g55_43.RAW', FMTDAT='(8E13.5)'
 TRAMP=1., VOLUME=1. $END
  3.09990E+05  4.47381E+02  3.37688E+05  2.50704E+05  8.45712E+04  3.37802E+05 -1.32321E+05  2.50373E+05
 -1.90404E+05  8.30179E+04 -1.11309E+05 -3.26957E+04  1.21394E+03 -5.03201E+04  5.36521E+04 -1.67029E+02
  3.52553E+04  5.27481E+04 -1.68667E+04  7.54725E+04 -6.04817E+04  6.31852E+04 -8.35714E+04  3.16640E+04
 -8.04398E+04 -1.13476E+04 -5.66990E+04 -5.06813E+04 -1.50131E+04 -6.89284E+04  2.71674E+04 -4.56445E+04
  3.94886E+04  3.94733E+03  1.58714E+04  4.76798E+04 -3.40183E+04  4.66280E+04 -6.60678E+04 -2.96149E+02
 -5.26369E+04 -5.63024E+04 -6.29995E+03 -7.60771E+04  3.35957E+04 -5.39802E+04  4.72420E+04 -1.64451E+04
  4.25948E+04  1.13333E+04  3.13694E+04  2.48682E+04  1.59209E+04  2.86477E+04 -4.88237E+03  2.69833E+04
 -2.18227E+04  1.24162E+04 -1.86512E+04 -4.73870E+03  4.73281E+03 -7.58585E+03  2.19315E+04  1.15360E+04
  7.09967E+03  3.41308E+04 -3.13288E+04  3.49176E+04 -6.20204E+04  1.81489E+03 -5.61469E+04 -4.18504E+04
 -1.24505E+04 -6.18963E+04  3.87498E+04 -4.40510E+04  5.65344E+04 -2.16219E+03  3.28274E+04  3.12274E+04
 -6.48058E+03  3.45803E+04 -2.90881E+04  1.45268E+04 -2.87284E+04 -4.80445E+03 -1.54773E+04 -1.06833E+04
 -7.86490E+03 -1.21876E+04 -6.98313E+02 -1.74181E+04  7.13460E+03 -2.28865E+04  1.50418E+04 -1.36423E+04
  1.19760E+04  4.79195E+03 -6.96193E+03  1.29091E+04 -2.01646E+04 -3.34964E+03 -8.39404E+03 -3.18874E+04
  2.16505E+04 -4.18443E+04  4.60674E+04 -1.90024E+04  4.33800E+04  1.86852E+04  1.50353E+04  4.24512E+04
 -1.56483E+04  3.21946E+04 -2.44151E+04  1.38674E+03 -8.78186E+03 -2.70716E+04  2.06131E+04 -3.20397E+04
  3.93781E+04 -8.00860E+03  3.35063E+04  2.28195E+04  1.65842E+04  4.43252E+04 -7.77703E+03  4.72080E+04
 -2.93646E+04  3.12934E+04 -3.92751E+04  8.88740E+03 -4.00415E+04 -1.55953E+04 -2.23366E+04 -3.57903E+04
  7.02173E+03 -3.55855E+04  2.99727E+04 -1.36297E+04  2.78991E+04  1.05208E+04  3.71447E+03  1.86408E+04
 -1.30910E+04  7.56344E+03 -9.84036E+03 -7.75320E+03  5.99582E+03 -1.03753E+04  1.75224E+04  6.24839E+03
  1.27514E+04  2.14250E+04 -6.33294E+03  2.39566E+04 -2.15988E+04  9.77201E+03 -2.60767E+04 -5.67374E+03
 -1.82946E+04 -1.67784E+04 -6.57998E+03 -1.78764E+04  3.53244E+03 -1.63592E+04  1.39065E+04 -1.59170E+04
  2.33017E+04 -1.23332E+04  2.96263E+04  1.54673E+03  2.21592E+04  1.76438E+04  4.21446E+03  3.38211E+04
 -1.64268E+04  2.83437E+04 -2.64834E+04  9.76558E+03 -2.00151E+04 -1.04261E+04 -4.08936E+03 -1.39026E+04
  2.44742E+03 -3.61641E+03 -3.15747E+03  5.76846E+03 -1.42125E+04  5.55432E+03 -1.43149E+04 -5.69467E+03
 -9.00875E+03 -1.64746E+04  4.44053E+03 -2.07395E+04  1.32940E+04 -1.44017E+04  1.60591E+04 -1.55495E+03
  1.00222E+04  1.18065E+04 -1.01641E+03  1.67661E+04 -1.16176E+04  9.46839E+03 -1.60669E+04 -3.75649E+03
 -1.21089E+04 -1.50037E+04 -1.49403E+03 -2.03197E+04  9.09393E+03 -1.64157E+04  1.70550E+04 -8.01116E+03
  1.57322E+04  3.93961E+02  1.12087E+04  4.40383E+03  5.60334E+03  4.55796E+02  8.32129E+03 -1.18150E+03
  1.51762E+04  2.73562E+03  1.62315E+04  1.34423E+04  1.05892E+04  2.64031E+04 -3.31779E+03  2.86862E+04
 -1.67161E+04  2.25462E+04 -2.63037E+04  1.10546E+04 -2.74899E+04 -2.19993E+03 -2.32990E+04 -1.58018E+04
 -1.06978E+04 -2.24159E+04  7.54478E+03 -2.08898E+04  1.79470E+04 -1.13526E+04  1.66349E+04  4.24215E+03
  6.78446E+03  1.23182E+04 -7.46384E+03  1.08795E+04 -1.40407E+04  2.63788E+03 -1.12637E+04 -8.41384E+03
 -1.70576E+02 -1.32331E+04  6.60707E+03 -9.87095E+03  8.68177E+03 -1.34991E+03  1.26368E+03  5.24561E+03
 -5.69696E+03  1.44259E+03 -4.46541E+03 -4.86592E+03  3.84012E+02 -1.11123E+04  8.29561E+03 -1.13251E+04
  1.31313E+04 -5.69709E+03  1.37635E+04  2.54436E+03  1.18051E+04  1.06133E+04  5.55409E+03  1.56414E+04
 -2.12172E+03  1.75296E+04 -1.05730E+04  1.13283E+04 -1.24084E+04  3.22487E+03 -9.17544E+03 -2.27520E+03
 -4.60956E+03 -3.80290E+03 -7.06299E+02  1.46286E+03 -1.95484E+03  2.12388E+03 -4.16918E+03  3.84275E+03
 -8.62399E+03 -6.55506E+02 -9.27559E+03 -7.55275E+03 -3.54257E+03 -1.24805E+04  3.80548E+03 -9.13943E+03
  7.45624E+03 -3.78889E+03  5.72862E+03  2.31279E+03  5.13973E+02  3.20380E+03 -3.97292E+03 -1.61150E+02
 -3.81474E+03 -5.42351E+03 -1.02225E+03 -7.94565E+03  4.25105E+03 -8.73675E+03  1.10279E+04 -4.44937E+03
  1.29543E+04  6.99911E+02  9.56904E+03  7.03695E+03  1.93672E+03  9.55322E+03 -5.77056E+03  8.79479E+03
 -7.56064E+03  2.94684E+03 -3.81168E+03 -1.52699E+03  1.54219E+03 -2.10049E+03  5.26415E+03 -9.66557E+02
  4.53725E+03  3.55453E+03  1.02954E+03  6.57748E+03 -4.77299E+03  6.58490E+03 -8.65465E+03  2.02397E+03
 -5.25419E+03 -4.09378E+03  4.79301E+02 -7.14083E+03  4.14538E+03 -3.52980E+03  3.78215E+03  1.31320E+03
  6.62199E+02  4.05250E+03 -4.72298E+03  5.27273E+03 -5.56395E+03  2.51631E+03 -5.26081E+03 -1.63253E+03
 -3.25467E+03 -6.63038E+03  1.39378E+03 -7.82862E+03  6.70274E+03 -5.16095E+03  7.20763E+03  1.00524E+03
  5.08363E+03  5.90901E+03 -9.11843E+01  8.01975E+03 -5.44801E+03  4.45991E+03 -5.68193E+03 -5.56582E+02
 -6.18269E+03 -5.49500E+03 -1.61775E+03 -5.55560E+03  2.94612E+03 -5.15325E+03  3.08369E+03 -2.84639E+03
  2.85574E+03  1.66926E+02  1.14462E+02  1.45393E+03  5.58572E+02 -5.98204E+02  2.33214E+02 -2.36102E+03
  4.15162E+03 -1.18252E+03  5.86512E+03  7.72249E+02  6.48534E+03  3.52657E+03  5.78750E+03  8.28671E+03
 -1.27940E+03  9.64720E+03 -8.55886E+03  7.18009E+03 -1.06005E+04  1.34704E+03 -8.60949E+03 -3.12135E+03
 -4.53668E+03 -7.21218E+03 -9.16007E+01 -5.62368E+03  2.21257E+03 -2.38873E+03  1.91564E+03 -2.43869E+03
  1.57162E+03 -1.51250E+03  2.27839E+03 -2.65737E+03  3.62646E+03 -1.51936E+03  4.18569E+03  4.49774E+02
  4.70916E+03  1.07530E+03  1.31309E+03  3.77255E+03 -1.34294E+03  3.38370E+03 -5.07440E+03  3.13975E+03
 -5.67582E+03 -8.18239E+02 -2.24582E+03 -3.72806E+03  2.75304E+02 -5.77082E+03  3.70774E+03 -5.83441E+03
  5.83385E+03 -3.39667E+03  7.09006E+03  3.82510E+02  5.33434E+03  4.52110E+03  1.00580E+03  6.57098E+03
 -2.34071E+03  6.43654E+03 -3.65121E+03  2.03995E+03 -2.28222E+03 -9.85307E+02 -5.21243E+02 -8.16341E+02
 -5.51718E+02  3.14465E+02 -1.19663E+03  2.03673E+03 -2.69498E+03  1.09619E+03 -4.34731E+03 -4.18534E+02
 -2.05358E+03 -4.16888E+03  6.11033E+02 -5.44550E+03  2.76518E+03 -4.93728E+03  4.17606E+03 -1.33110E+03
  4.59318E+03  2.66782E+03  1.89252E+03  3.70271E+03 -9.26213E+02  4.92683E+03 -3.03828E+03  2.82744E+03
 -4.16779E+03  5.79283E+02 -3.64189E+03 -2.60173E+03 -1.98970E+02 -3.42114E+03  1.78025E+03 -2.80369E+03
  2.97403E+03 -1.25987E+03  1.75447E+03  5.70199E+02  5.01035E+02  1.68402E+03  6.66762E+02  3.95454E+02
  1.86874E+03  1.97873E+02  1.31091E+03  9.65646E+02  1.03742E+03  2.55422E+03  1.49961E+03  1.80683E+03
 -1.21058E+03  3.15101E+03 -2.58236E+03  4.30343E+03 -3.09522E+03  1.15189E+03 -4.42088E+03 -5.33547E+02
 -1.78546E+03 -4.22116E+03  9.20934E+02 -5.29974E+03  2.21931E+03 -2.95047E+03  3.06572E+03 -1.20918E+03
  2.88569E+03  1.80344E+03  3.32212E+02  2.43908E+03 -8.13775E+02  1.18293E+03 -1.37365E+03 -9.70211E+01
 -6.24932E+02 -1.70208E+03  1.26232E+03 -1.71659E+03  1.34425E+03 -1.18354E+03  1.37975E+03  2.92565E+02
  7.63904E+02  3.39915E+02  6.63688E+02 -2.18634E+02 -4.46714E+02  8.35592E+02  1.66992E+03 -3.38367E+02
  5.16737E+01 -3.88915E+02  2.03768E+03  7.63869E+02  4.72731E+02  2.46493E+03 -4.08791E+02  3.12931E+03
 -1.90789E+03  1.40809E+03 -2.44613E+03  3.57566E+02 -2.41186E+03 -1.03834E+03 -2.59380E+02 -8.44231E+02
  6.52564E+02 -1.27022E+03  9.55217E+02 -6.21071E+02  5.69778E+02  1.37842E+03 -6.83833E+02  1.44838E+03
 -1.66642E+03  7.31093E+02 -1.10938E+03 -1.41668E+03 -6.82222E+02 -2.53616E+03  6.53018E+01 -1.54928E+03
  5.33777E+02 -7.01160E+02  9.27271E+02  1.64231E+02  1.38472E+03  1.37529E+01  4.01607E+02  1.23927E+03
 -2.78378E+02 -1.49385E+02 -7.18540E+02 -3.34505E+02  6.22635E+02 -9.21445E+02  1.95393E+03 -1.00254E+03
  1.43880E+03  6.32364E+02  2.88026E+03  8.86533E+02  1.08297E+03  1.52615E+03 -4.73233E+02  2.16805E+03
 -1.38294E+03  3.83756E+02 -1.59572E+03  4.80760E+01 -9.39955E+02 -1.59063E+03  5.11466E+02 -7.44317E+02
  1.53487E+03 -6.96117E+02  9.12210E+02  7.82726E+02  1.26292E+02  1.50955E+03  2.37760E+02  1.01455E+03
 -5.53454E+02  1.24522E+03 -6.15024E+02  4.44761E+02 -1.19177E+02  6.02676E+02 -7.95642E+02  7.54442E+02
 -5.89598E+02  1.02713E+03 -1.84952E+03  5.17266E+02 -1.78883E+03  8.90665E+01 -2.52090E+03 -1.18325E+03
 -1.20024E+03 -2.40391E+03  6.94648E+02 -2.85691E+03  1.08030E+03 -2.48007E+03  2.96590E+03 -9.63215E+02
  2.77100E+03 -3.41280E+02  1.12370E+03  1.67541E+03 -3.85289E+02  1.60605E+03 -6.56964E+02  1.42471E+03
 -1.25411E+03  5.12225E+02 -5.75417E+02 -4.29208E+02 -1.36237E+02  5.44662E+02 -6.34718E+02 -1.40363E+02
 -1.29375E+03  1.09305E+02 -1.02616E+03  3.75698E+02  1.54441E+02 -6.55577E+02 -1.77554E+02 -9.97376E+02
  1.33675E+03 -5.79040E+02  8.02692E+02  9.66816E+01  1.41606E+03  7.54613E+02 -4.67504E+02  1.04328E+03
 -8.96274E+02  2.44635E+03 -1.79059E+03  1.13711E+03 -1.66715E+03 -1.80273E+02 -1.11243E+03 -1.27616E+03
 -1.05356E+03 -1.67586E+03  4.79732E+02 -1.60355E+03  9.11827E+02 -4.83742E+02  7.46237E+02 -3.50186E+01
  6.52485E+02  4.39996E+02  1.56438E+01  3.28239E+02 -5.72556E+02  8.11553E+01  1.23084E+02 -1.20018E+02
  5.10622E+02  5.63906E+02  3.28412E+02  5.67757E+02  8.57081E+01  6.01288E+02  1.47509E+02  2.93501E+02
 -5.90625E+02  7.90745E+02 -8.19830E+02  6.48623E+01 -9.44203E+02 -6.07553E+02  8.11049E+01 -1.37580E+03
  3.99156E+02 -9.86527E+02  2.67160E+02  1.93652E+02  1.16656E+03 -3.97011E+02  4.07435E+02  9.47694E+02
  3.06104E+02  5.87795E+02 -5.68649E+02  3.44996E+02 -4.03506E+02  5.99382E+02 -3.36658E+02  4.92215E+01
  2.03867E+02  3.09222E+02 -3.82920E+02 -2.83065E+01 -3.96573E+02  3.02486E+02 -8.30678E+02 -1.81929E+02
 -9.61570E+02  2.29453E+02 -1.24087E+02 -8.16057E+02  5.31913E+02 -1.41370E+03  7.46396E+02 -3.16207E+02
  7.37890E+02  1.71137E+02 -1.85694E+02  3.42332E+02 -8.46421E+01  1.10664E+03 -3.73171E+02  4.68812E+02
