 $NMID ID='MM_0lb_SNR800_13hz_g55_11.RAW', FMTDAT='(8E13.5)'
 TRAMP=1., VOLUME=1. $END
  3.09746E+05  6.96017E+02  3.37520E+05  2.50629E+05  8.51068E+04  3.38087E+05 -1.32635E+05  2.50983E+05
 -1.90523E+05  8.34719E+04 -1.12071E+05 -3.24165E+04  6.95430E+02 -5.06929E+04  5.39013E+04  7.87836E+01
  3.53101E+04  5.28959E+04 -1.66874E+04  7.56598E+04 -6.08805E+04  6.38611E+04 -8.47576E+04  3.21770E+04
 -8.14054E+04 -1.18094E+04 -5.74405E+04 -5.14751E+04 -1.49761E+04 -7.00271E+04  2.77589E+04 -4.61972E+04
  4.05061E+04  3.53346E+03  1.65267E+04  4.77212E+04 -3.45319E+04  4.74769E+04 -6.75292E+04 -2.33736E+02
 -5.36685E+04 -5.71901E+04 -7.11234E+03 -7.78040E+04  3.42067E+04 -5.60078E+04  4.87048E+04 -1.77692E+04
  4.44630E+04  1.13505E+04  3.21935E+04  2.59091E+04  1.57201E+04  3.01221E+04 -5.67540E+03  2.75701E+04
 -2.21787E+04  1.22961E+04 -1.84436E+04 -5.04343E+03  6.25166E+03 -7.55450E+03  2.29132E+04  1.25008E+04
  7.04722E+03  3.61214E+04 -3.27067E+04  3.61395E+04 -6.41722E+04  1.99503E+03 -5.75922E+04 -4.36454E+04
 -1.26439E+04 -6.41065E+04  4.03233E+04 -4.62036E+04  5.94463E+04 -2.23875E+03  3.51010E+04  3.29619E+04
 -5.59112E+03  3.73681E+04 -3.05772E+04  1.71110E+04 -3.11708E+04 -4.13242E+03 -1.74877E+04 -1.13127E+04
 -8.64573E+03 -1.40583E+04 -6.85092E+02 -1.87065E+04  7.99834E+03 -2.32264E+04  1.58736E+04 -1.30425E+04
  1.11220E+04  5.65145E+03 -8.88421E+03  1.28492E+04 -2.21532E+04 -5.18141E+03 -8.71090E+03 -3.53388E+04
  2.35979E+04 -4.47336E+04  4.94071E+04 -2.00805E+04  4.64946E+04  1.98958E+04  1.64030E+04  4.50740E+04
 -1.63418E+04  3.43814E+04 -2.62991E+04  2.07254E+03 -1.07087E+04 -2.82218E+04  2.14825E+04 -3.50654E+04
  4.24034E+04 -9.48200E+03  3.72000E+04  2.38174E+04  1.91269E+04  4.81733E+04 -8.23435E+03  5.19950E+04
 -3.31361E+04  3.53472E+04 -4.41159E+04  1.02167E+04 -4.43691E+04 -1.71391E+04 -2.46988E+04 -3.92933E+04
  7.76467E+03 -3.95354E+04  3.24153E+04 -1.54921E+04  3.03886E+04  1.11444E+04  4.42730E+03  1.97062E+04
 -1.37546E+04  9.00149E+03 -1.09213E+04 -7.97804E+03  5.69253E+03 -1.11862E+04  1.80975E+04  6.07353E+03
  1.40267E+04  2.23203E+04 -5.71921E+03  2.60815E+04 -2.26926E+04  1.25078E+04 -2.90098E+04 -3.85325E+03
 -2.19407E+04 -1.75503E+04 -9.65475E+03 -2.19085E+04  3.90937E+03 -2.13533E+04  1.74651E+04 -1.98523E+04
  2.78089E+04 -1.31083E+04  3.41396E+04  3.74678E+03  2.50774E+04  2.13208E+04  4.10002E+03  3.78802E+04
 -1.86414E+04  3.17510E+04 -2.84451E+04  1.09183E+04 -2.14547E+04 -9.92130E+03 -4.49812E+03 -1.32939E+04
  1.77102E+03 -2.11127E+03 -5.61555E+03  7.12678E+03 -1.74112E+04  4.96814E+03 -1.74176E+04 -7.81334E+03
 -1.09812E+04 -2.03682E+04  5.89117E+03 -2.46978E+04  1.63202E+04 -1.76328E+04  1.93301E+04 -1.70641E+03
  1.26707E+04  1.40243E+04 -1.46761E+03  2.02987E+04 -1.40774E+04  1.15243E+04 -2.03444E+04 -4.22243E+03
 -1.49182E+04 -1.80379E+04 -1.74696E+03 -2.44430E+04  1.07176E+04 -2.03975E+04  2.03213E+04 -1.05057E+04
  1.90985E+04  2.58308E+02  1.39004E+04  4.70255E+03  7.62748E+03  1.02635E+03  1.04429E+04 -1.74733E+03
  1.86984E+04  3.02286E+03  2.11317E+04  1.63143E+04  1.43397E+04  3.25571E+04 -2.64640E+03  3.71312E+04
 -2.16479E+04  3.01116E+04 -3.50396E+04  1.55583E+04 -3.70543E+04 -2.47056E+03 -3.05077E+04 -2.14303E+04
 -1.24187E+04 -3.06267E+04  1.06414E+04 -2.71797E+04  2.36283E+04 -1.36163E+04  2.06965E+04  6.20508E+03
  7.45000E+03  1.56468E+04 -9.78686E+03  1.35020E+04 -1.74492E+04  2.60572E+03 -1.33132E+04 -1.10453E+04
 -1.70633E+02 -1.65699E+04  8.84185E+03 -1.26887E+04  1.12022E+04 -1.41162E+03  2.75386E+03  7.09485E+03
 -7.35341E+03  2.99994E+03 -6.74549E+03 -6.12836E+03 -6.67306E+02 -1.50916E+04  1.01841E+04 -1.59951E+04
  1.83246E+04 -8.62793E+03  2.02661E+04  2.86617E+03  1.77796E+04  1.50432E+04  8.51035E+03  2.29025E+04
 -3.89384E+03  2.46385E+04 -1.57165E+04  1.57415E+04 -1.77386E+04  3.64581E+03 -1.24159E+04 -4.37823E+03
 -5.73459E+03 -5.71085E+03 -6.54506E+02  1.02579E+03 -2.35424E+03  2.48688E+03 -5.74869E+03  4.64050E+03
 -1.16421E+04 -8.95799E+02 -1.23799E+04 -9.86026E+03 -4.94220E+03 -1.61304E+04  5.45718E+03 -1.25087E+04
  1.06896E+04 -5.39316E+03  7.49291E+03  3.17624E+03  5.39381E+01  5.23890E+03 -6.15787E+03  5.85218E+01
 -5.58993E+03 -7.98035E+03 -8.66707E+02 -1.19069E+04  7.22775E+03 -1.26272E+04  1.56287E+04 -6.66673E+03
  1.83465E+04  1.77372E+03  1.34599E+04  1.09463E+04  2.68423E+03  1.45184E+04 -7.94366E+03  1.26046E+04
 -9.98837E+03  3.73763E+03 -5.15470E+03 -2.51287E+03  2.03127E+03 -3.06498E+03  6.75325E+03 -7.61414E+02
  6.05575E+03  5.41874E+03  1.11975E+03  9.76350E+03 -7.02047E+03  9.66987E+03 -1.21735E+04  2.06665E+03
 -8.24663E+03 -5.90308E+03  4.66376E+02 -1.04961E+04  6.64656E+03 -5.05687E+03  6.52952E+03  2.56945E+03
  1.22896E+03  7.05238E+03 -6.19296E+03  8.51275E+03 -9.54005E+03  3.68135E+03 -9.88170E+03 -3.34993E+03
 -5.63028E+03 -1.12624E+04  2.79669E+03 -1.26900E+04  1.12240E+04 -8.09381E+03  1.24004E+04  1.86492E+03
  7.45710E+03  9.71893E+03 -5.21683E+02  1.19232E+04 -8.51842E+03  6.30562E+03 -9.44996E+03 -1.35486E+03
 -8.26599E+03 -7.98591E+03 -1.71330E+03 -8.79407E+03  4.53780E+03 -7.39097E+03  5.52786E+03 -3.20459E+03
  4.12855E+03  1.24308E+03 -4.96361E+02  1.44469E+03  4.79884E+01 -1.77342E+03  1.32988E+03 -4.77656E+03
  8.05279E+03 -2.71245E+03  1.11300E+04  1.53908E+03  1.09507E+04  7.21138E+03  7.85757E+03  1.42784E+04
 -3.03112E+03  1.70764E+04 -1.41253E+04  1.24965E+04 -1.81410E+04  2.70826E+03 -1.42922E+04 -5.82552E+03
 -7.30243E+03 -1.19833E+04 -1.74957E+02 -1.01506E+04  3.85145E+03 -5.33676E+03  3.53650E+03 -3.68875E+03
  2.46123E+03 -2.06036E+03  3.26070E+03 -3.40891E+03  4.89858E+03 -2.59867E+03  5.96797E+03 -3.78138E+02
  7.18021E+03  2.09594E+03  3.69310E+03  6.53457E+03 -1.65634E+03  6.85595E+03 -8.03168E+03  6.01843E+03
 -9.95745E+03 -7.87685E+02 -6.18724E+03 -7.07124E+03 -7.44178E+02 -1.02498E+04  5.88150E+03 -1.05763E+04
  1.10552E+04 -5.86320E+03  1.34495E+04  1.36228E+03  9.43956E+03  8.85727E+03  1.66243E+03  1.19616E+04
 -4.89744E+03  1.01535E+04 -7.05249E+03  3.47239E+03 -4.66387E+03 -1.38965E+03 -1.66521E+03 -1.30224E+03
 -9.98750E+02  4.06803E+02 -1.66741E+03  2.59855E+03 -4.38796E+03  1.85989E+03 -7.39716E+03 -1.00837E+03
 -4.26916E+03 -6.91254E+03  4.07214E+02 -9.61508E+03  5.74521E+03 -8.86883E+03  9.12294E+03 -2.88895E+03
  9.32809E+03  4.59406E+03  4.25217E+03  7.98461E+03 -1.69669E+03  9.46679E+03 -6.38383E+03  6.14410E+03
 -9.05023E+03  8.16486E+02 -6.97195E+03 -5.76653E+03 -5.81123E+02 -7.73123E+03  3.84776E+03 -5.43206E+03
  6.04762E+03 -2.18979E+03  4.09071E+03  1.65212E+03  1.50396E+03  3.04653E+03  9.84475E+02  1.15701E+03
  2.01398E+03  7.33634E+02  2.33761E+03  1.26245E+03  2.47757E+03  3.61237E+03  2.30190E+03  4.62516E+03
 -1.86551E+03  7.15560E+03 -6.18738E+03  7.65288E+03 -8.93209E+03  1.82331E+03 -9.47397E+03 -3.27700E+03
 -4.68187E+03 -8.87352E+03  1.28641E+03 -1.02741E+04  5.23865E+03 -5.98080E+03  7.57850E+03 -1.96281E+03
  5.95952E+03  3.71717E+03  1.43310E+03  5.53849E+03 -2.14635E+03  3.16445E+03 -3.55665E+03 -5.27987E+02
 -1.70116E+03 -3.76778E+03  2.00413E+03 -3.77795E+03  3.64769E+03 -2.10983E+03  3.41340E+03  8.84382E+02
  1.91943E+03  1.78778E+03  1.35277E+03  1.18813E+03 -4.26111E+02  1.01912E+03  1.60081E+03 -4.77442E+02
  1.11358E+03 -6.36688E+02  3.92245E+03  1.64728E+03  1.81868E+03  4.87582E+03 -7.94074E+02  6.64796E+03
 -4.16077E+03  4.03637E+03 -5.21835E+03  8.69894E+02 -5.17436E+03 -1.93406E+03 -1.31427E+03 -3.11157E+03
  8.68766E+02 -3.47731E+03  2.54387E+03 -1.54525E+03  1.93647E+03  2.11423E+03 -1.05297E+03  2.69267E+03
 -3.57143E+03  1.45914E+03 -4.05042E+03 -1.87991E+03 -2.52902E+03 -4.85464E+03  7.41510E+02 -4.72983E+03
  2.60483E+03 -2.47100E+03  3.23865E+03 -6.40650E+01  2.58257E+03  9.64713E+02  4.93757E+02  2.66313E+03
 -1.26960E+03  5.73885E+02 -2.28696E+03 -1.40274E+03  6.78094E+02 -3.41439E+03  4.76818E+03 -2.84836E+03
  4.85549E+03  1.07615E+02  5.52518E+03  2.98858E+03  2.11557E+03  5.43894E+03 -1.62403E+03  5.39771E+03
 -4.24208E+03  1.98300E+03 -4.75362E+03 -7.36296E+02 -2.56539E+03 -4.13102E+03  3.36322E+02 -2.87287E+03
  3.35937E+03 -1.59665E+03  2.59680E+03  1.65541E+03  7.79926E+02  2.95260E+03 -2.18764E+02  2.61648E+03
 -1.40141E+03  2.02357E+03 -1.46349E+03  6.33729E+02 -6.99174E+02  4.31385E+02 -1.08756E+03  1.29606E+03
 -1.48452E+03  2.25986E+03 -3.69851E+03  1.99527E+03 -5.24838E+03  3.64518E+01 -5.89960E+03 -3.46898E+03
 -2.98530E+03 -6.93556E+03  1.45840E+03 -8.03539E+03  4.42523E+03 -6.42660E+03  7.63948E+03 -2.60447E+03
  6.81367E+03  1.14602E+03  4.49691E+03  4.81933E+03  2.86120E+02  4.98539E+03 -1.96251E+03  3.95752E+03
 -2.46658E+03  1.55176E+03 -1.62823E+03 -7.20618E+02 -5.02849E+02 -1.48431E+02 -4.98585E+02  1.11315E+02
 -1.66850E+03 -2.45544E+01 -1.24773E+03 -1.60828E+02  7.50605E+01 -1.35424E+03 -2.42600E+02 -2.02155E+03
  2.64882E+03 -1.87908E+03  2.83870E+03  1.58495E+02  3.64516E+03  3.01064E+03  5.32577E+02  4.86583E+03
 -2.38618E+03  6.05748E+03 -5.43485E+03  3.32143E+03 -5.87422E+03 -5.12424E+02 -4.45154E+03 -3.93449E+03
 -2.48620E+03 -5.19073E+03  1.44945E+03 -4.75092E+03  3.18298E+03 -2.35879E+03  3.09608E+03  1.18331E+02
  1.95170E+03  1.19092E+03 -8.87484E-01  1.55211E+03 -1.36664E+03  1.08492E+01 -3.87486E+01 -1.17993E+03
  1.73035E+03 -5.39695E+02  1.35222E+03  7.40410E+02  1.15496E+03  1.83099E+03  2.73726E+02  2.32435E+03
 -2.35530E+03  2.21839E+03 -3.15206E+03 -4.15629E+00 -2.89391E+03 -2.11506E+03 -2.10974E+02 -4.27590E+03
  2.03711E+03 -3.04405E+03  3.53663E+03 -9.82602E+02  3.39726E+03  4.41837E+02  1.99640E+03  2.40628E+03
  6.71979E+02  2.47261E+03 -1.24491E+03  2.37523E+03 -2.01044E+03  1.39849E+03 -1.83253E+03  5.08503E+02
 -8.77845E+02 -1.92838E+02 -1.03680E+03  4.04224E+02 -1.69293E+03  7.68492E+02 -2.73972E+03 -6.58732E+02
 -2.36433E+03 -1.18173E+03 -6.07466E+02 -3.54829E+03  1.58441E+03 -3.61838E+03  2.84036E+03 -1.31284E+03
  2.60077E+03  1.89967E+02  1.24722E+03  1.93200E+03 -2.14601E+02  3.06687E+03 -1.98485E+03  1.98412E+03
