 $NMID ID='MM_0lb_SNR800_12hz_g55_99.RAW', FMTDAT='(8E13.5)'
 TRAMP=1., VOLUME=1. $END
  3.09956E+05  3.17267E+02  3.37888E+05  2.50894E+05  8.47171E+04  3.38165E+05 -1.32902E+05  2.51272E+05
 -1.90852E+05  8.35675E+04 -1.12323E+05 -3.22114E+04  5.21244E+02 -5.08539E+04  5.35327E+04 -3.56749E+02
  3.57286E+04  5.28252E+04 -1.65373E+04  7.55873E+04 -6.09592E+04  6.42338E+04 -8.49605E+04  3.21876E+04
 -8.16075E+04 -1.16459E+04 -5.76189E+04 -5.19306E+04 -1.52261E+04 -6.99903E+04  2.75343E+04 -4.63280E+04
  4.08350E+04  3.74997E+03  1.64260E+04  4.81523E+04 -3.51526E+04  4.77626E+04 -6.72009E+04 -1.26642E+02
 -5.40085E+04 -5.75216E+04 -7.02751E+03 -7.81965E+04  3.42880E+04 -5.58320E+04  4.87360E+04 -1.77229E+04
  4.46599E+04  1.14851E+04  3.24485E+04  2.62353E+04  1.59257E+04  3.00276E+04 -5.72432E+03  2.78753E+04
 -2.24004E+04  1.23847E+04 -1.82985E+04 -5.46117E+03  6.37699E+03 -7.79693E+03  2.31140E+04  1.35647E+04
  7.33555E+03  3.65942E+04 -3.29752E+04  3.62031E+04 -6.48778E+04  2.14543E+03 -5.81339E+04 -4.40132E+04
 -1.25262E+04 -6.47737E+04  4.08099E+04 -4.61034E+04  5.99761E+04 -2.40615E+03  3.58397E+04  3.34657E+04
 -5.53206E+03  3.76187E+04 -3.12391E+04  1.73863E+04 -3.19806E+04 -3.74459E+03 -1.82840E+04 -1.18181E+04
 -8.78013E+03 -1.41980E+04 -6.25979E+02 -1.90746E+04  8.31220E+03 -2.34066E+04  1.55043E+04 -1.27728E+04
  1.09506E+04  5.56792E+03 -9.37926E+03  1.27690E+04 -2.24953E+04 -5.44811E+03 -8.45861E+03 -3.62306E+04
  2.43421E+04 -4.57948E+04  5.02708E+04 -2.03157E+04  4.71965E+04  2.01107E+04  1.66562E+04  4.60059E+04
 -1.61885E+04  3.48410E+04 -2.66646E+04  2.32036E+03 -1.08174E+04 -2.88657E+04  2.16208E+04 -3.54378E+04
  4.29740E+04 -1.03363E+04  3.81623E+04  2.41613E+04  1.99409E+04  4.88225E+04 -8.24210E+03  5.34260E+04
 -3.35281E+04  3.64143E+04 -4.53269E+04  1.03329E+04 -4.53646E+04 -1.75295E+04 -2.50551E+04 -4.03638E+04
  7.48968E+03 -3.97941E+04  3.30498E+04 -1.62641E+04  3.11281E+04  1.14036E+04  4.55837E+03  1.99731E+04
 -1.36172E+04  8.93804E+03 -1.08831E+04 -7.73308E+03  5.64116E+03 -1.12139E+04  1.85108E+04  6.11807E+03
  1.41566E+04  2.24815E+04 -5.73135E+03  2.61472E+04 -2.33243E+04  1.29882E+04 -2.99366E+04 -3.84533E+03
 -2.31404E+04 -1.78358E+04 -1.00283E+04 -2.28217E+04  4.00303E+03 -2.30274E+04  1.78065E+04 -2.05936E+04
  2.94960E+04 -1.34259E+04  3.53313E+04  3.80178E+03  2.54867E+04  2.23845E+04  4.47783E+03  3.92500E+04
 -1.86524E+04  3.20947E+04 -2.92350E+04  1.11500E+04 -2.16012E+04 -1.03836E+04 -4.16413E+03 -1.29891E+04
  1.41472E+03 -1.94839E+03 -6.61231E+03  7.51222E+03 -1.79491E+04  5.05472E+03 -1.82249E+04 -8.22231E+03
 -1.12911E+04 -2.11413E+04  5.86920E+03 -2.56287E+04  1.68695E+04 -1.83086E+04  2.02604E+04 -2.00583E+03
  1.31325E+04  1.47757E+04 -1.33655E+03  2.12089E+04 -1.51318E+04  1.22062E+04 -2.14788E+04 -4.37477E+03
 -1.58233E+04 -1.90951E+04 -2.13293E+03 -2.59207E+04  1.19632E+04 -2.11177E+04  2.12190E+04 -1.07755E+04
  2.00811E+04  3.05002E+02  1.43809E+04  4.70261E+03  8.00283E+03  1.21385E+03  1.06003E+04 -1.80407E+03
  1.96197E+04  2.86722E+03  2.23134E+04  1.67763E+04  1.51101E+04  3.38541E+04 -2.84127E+03  3.91170E+04
 -2.24183E+04  3.18980E+04 -3.67502E+04  1.64803E+04 -3.91824E+04 -2.67505E+03 -3.18542E+04 -2.25113E+04
 -1.30783E+04 -3.24701E+04  1.08939E+04 -2.86811E+04  2.45187E+04 -1.41393E+04  2.17917E+04  6.36133E+03
  7.62828E+03  1.64802E+04 -1.01906E+04  1.41964E+04 -1.81025E+04  2.34603E+03 -1.37080E+04 -1.18695E+04
 -3.98475E+01 -1.70912E+04  9.22030E+03 -1.29937E+04  1.16474E+04 -1.08707E+03  2.90121E+03  7.84383E+03
 -7.63935E+03  3.31874E+03 -7.50549E+03 -6.18022E+03 -1.59667E+03 -1.59562E+04  1.08060E+04 -1.69229E+04
  1.94576E+04 -9.20154E+03  2.21955E+04  2.82861E+03  1.95127E+04  1.57721E+04  9.17442E+03  2.45544E+04
 -4.35868E+03  2.61809E+04 -1.69317E+04  1.62501E+04 -1.93051E+04  3.75510E+03 -1.34541E+04 -4.46793E+03
 -5.91131E+03 -6.15743E+03 -7.90375E+02  7.45570E+02 -2.72302E+03  3.09089E+03 -6.16734E+03  5.02955E+03
 -1.24103E+04 -7.01726E+02 -1.27941E+04 -1.02357E+04 -5.10632E+03 -1.70138E+04  5.64981E+03 -1.33851E+04
  1.11346E+04 -5.94254E+03  8.10242E+03  3.51914E+03  4.51617E+01  5.05433E+03 -6.42193E+03 -3.17824E+02
 -6.02583E+03 -8.77225E+03 -7.22597E+02 -1.27644E+04  7.33574E+03 -1.35966E+04  1.66821E+04 -6.86015E+03
  1.97095E+04  1.76060E+03  1.45966E+04  1.18430E+04  2.81866E+03  1.58404E+04 -7.86612E+03  1.29947E+04
 -1.06965E+04  3.92361E+03 -5.61718E+03 -2.94252E+03  1.98308E+03 -3.93528E+03  7.41186E+03 -9.45427E+02
  6.30731E+03  5.91596E+03  1.06459E+03  1.03076E+04 -7.74118E+03  1.01180E+04 -1.29872E+04  2.64931E+03
 -8.87416E+03 -6.76980E+03  2.44144E+02 -1.08894E+04  7.50102E+03 -5.31789E+03  7.28124E+03  2.83305E+03
  1.49574E+03  7.57945E+03 -6.70478E+03  9.17065E+03 -1.10684E+04  4.22703E+03 -1.09986E+04 -3.52039E+03
 -6.53891E+03 -1.24149E+04  3.23336E+03 -1.44674E+04  1.22361E+04 -8.79123E+03  1.34424E+04  2.38138E+03
  8.11041E+03  1.05378E+04 -1.04933E+03  1.28516E+04 -9.37497E+03  7.12355E+03 -1.04228E+04 -7.83165E+02
 -8.93168E+03 -8.54121E+03 -1.84157E+03 -9.49144E+03  5.09378E+03 -8.02518E+03  6.17676E+03 -3.42836E+03
  4.30826E+03  1.32581E+03 -4.83649E+02  1.83243E+03 -1.09927E+02 -2.41600E+03  1.63066E+03 -5.43618E+03
  8.91614E+03 -3.47468E+03  1.25163E+04  1.40058E+03  1.22991E+04  8.17962E+03  8.54696E+03  1.59571E+04
 -3.51185E+03  1.86879E+04 -1.55748E+04  1.36824E+04 -2.00623E+04  2.29455E+03 -1.60445E+04 -6.56154E+03
 -8.24590E+03 -1.28877E+04 -5.51575E+02 -1.09234E+04  4.26811E+03 -5.64253E+03  4.09525E+03 -4.21991E+03
  2.94669E+03 -2.57974E+03  3.24970E+03 -3.23815E+03  5.28181E+03 -2.36887E+03  6.63355E+03 -8.58676E+02
  8.53606E+03  2.06628E+03  3.96759E+03  7.12628E+03 -2.30215E+03  8.17465E+03 -8.90631E+03  6.37143E+03
 -1.09481E+04 -1.15563E+03 -6.69573E+03 -7.82242E+03 -5.90350E+02 -1.17915E+04  6.93275E+03 -1.17912E+04
  1.23644E+04 -6.47768E+03  1.48070E+04  1.78843E+03  1.03108E+04  1.00963E+04  1.85009E+03  1.36158E+04
 -5.44443E+03  1.10014E+04 -7.92772E+03  3.93444E+03 -5.31842E+03 -1.94310E+03 -2.04348E+03 -1.88742E+03
 -1.12457E+03 -6.67814E+01 -1.79921E+03  2.32865E+03 -5.00821E+03  2.01897E+03 -8.20628E+03 -8.78189E+02
 -5.26010E+03 -7.93872E+03  1.84755E+02 -1.10225E+04  6.45958E+03 -9.92246E+03  1.03719E+04 -3.03800E+03
  1.03843E+04  5.42733E+03  4.96344E+03  9.42996E+03 -2.22119E+03  1.07221E+04 -7.56241E+03  6.77730E+03
 -1.03253E+04  6.73401E+02 -7.75108E+03 -6.40060E+03 -7.58094E+02 -8.65976E+03  4.37046E+03 -6.87705E+03
  6.39718E+03 -2.25107E+03  4.37501E+03  1.74015E+03  1.58073E+03  3.53816E+03  1.28999E+03  1.48839E+03
  2.24259E+03  6.07120E+02  2.67949E+03  1.69069E+03  3.38459E+03  3.96714E+03  2.97463E+03  5.52440E+03
 -2.43328E+03  8.38106E+03 -7.39319E+03  8.56121E+03 -1.03077E+04  2.28130E+03 -1.11076E+04 -3.94576E+03
 -5.14593E+03 -1.03290E+04  1.64329E+03 -1.16344E+04  5.97437E+03 -7.51162E+03  8.51327E+03 -1.73760E+03
  6.63621E+03  3.67369E+03  1.54851E+03  6.08806E+03 -2.65574E+03  3.82791E+03 -4.05917E+03 -5.61546E+02
 -1.71481E+03 -4.34000E+03  2.48886E+03 -4.61284E+03  3.84608E+03 -2.21068E+03  3.93171E+03  8.26541E+02
  2.59967E+03  1.52859E+03  1.19937E+03  1.47675E+03 -6.78013E+02  1.62691E+03  1.63092E+03 -2.83434E+02
  1.44932E+03 -5.80984E+02  4.25947E+03  1.68197E+03  2.33389E+03  5.82307E+03 -9.73146E+02  6.92986E+03
 -5.12973E+03  4.66669E+03 -6.42466E+03  1.39090E+03 -5.92802E+03 -1.90216E+03 -2.25249E+03 -3.81556E+03
  8.01505E+02 -4.02736E+03  2.69224E+03 -2.07143E+03  1.88958E+03  1.96057E+03 -1.54552E+03  3.12460E+03
 -3.95370E+03  2.03532E+03 -4.60409E+03 -2.88583E+03 -2.62894E+03 -5.96415E+03  1.17151E+03 -5.33902E+03
  3.00971E+03 -2.57701E+03  4.08156E+03 -5.12082E+02  3.46157E+03  1.44950E+03  5.13379E+02  2.90610E+03
 -1.18444E+03  8.79276E+02 -2.81657E+03 -1.58122E+03  1.27254E+03 -4.12398E+03  4.89043E+03 -3.36870E+03
  5.80057E+03  4.64361E+02  6.27029E+03  4.11565E+03  2.24785E+03  6.63896E+03 -2.05030E+03  6.11888E+03
 -4.96477E+03  2.37969E+03 -5.26334E+03 -4.61367E+02 -2.90067E+03 -4.19895E+03  9.35377E+02 -3.34129E+03
  4.02904E+03 -2.21503E+03  3.54463E+03  1.75808E+03  1.13178E+03  3.52674E+03 -4.83974E+02  3.46225E+03
 -1.34731E+03  2.19706E+03 -1.71098E+03  6.61049E+02 -9.36551E+02  5.80049E+02 -7.94236E+02  1.38019E+03
 -1.63995E+03  2.60723E+03 -4.82521E+03  2.10176E+03 -5.61751E+03  1.17396E+02 -7.00082E+03 -3.97417E+03
 -3.57040E+03 -8.28011E+03  1.52887E+03 -9.51807E+03  5.67729E+03 -7.64351E+03  9.30193E+03 -2.98418E+03
  8.26874E+03  1.59539E+03  4.82500E+03  5.57876E+03  1.03798E+02  6.29252E+03 -2.63801E+03  4.52088E+03
 -3.64893E+03  1.72496E+03 -2.36848E+03 -5.47265E+02 -6.44243E+02 -8.91637E+02 -6.84517E+02  1.43476E+02
 -1.62504E+03  3.11122E+01 -1.52890E+03 -1.69158E+02 -1.87630E+02 -1.27014E+03 -2.07927E+02 -2.69377E+03
  2.79633E+03 -1.93939E+03  3.61182E+03 -2.88913E+01  4.30449E+03  3.50755E+03  1.01886E+03  5.92019E+03
 -2.98543E+03  7.21887E+03 -6.67103E+03  4.10542E+03 -7.34645E+03 -5.73507E+02 -5.64121E+03 -4.48674E+03
 -2.67586E+03 -6.01611E+03  1.37964E+03 -5.36874E+03  3.72145E+03 -2.84099E+03  3.79118E+03 -8.48190E+01
  2.52104E+03  1.69791E+03  2.74570E+02  1.47638E+03 -9.80980E+02  1.32776E+02 -1.55827E+02 -8.58932E+02
  2.05830E+03 -6.19835E+02  2.48238E+03  8.33024E+02  1.70134E+03  1.82658E+03  3.30015E+02  3.10613E+03
 -2.52045E+03  3.24086E+03 -3.52473E+03  5.46810E+02 -3.56827E+03 -2.65447E+03 -4.22705E+02 -4.83623E+03
  2.85389E+03 -3.67892E+03  4.28132E+03 -1.28021E+03  4.52684E+03  4.10091E+02  2.47258E+03  3.52131E+03
  8.11852E+02  3.92220E+03 -1.45782E+03  2.73900E+03 -2.54815E+03  1.67366E+03 -1.96828E+03  5.32527E+02
 -9.19408E+02 -4.44400E+02 -1.44898E+03  5.38377E+02 -2.34043E+03  1.75720E+02 -2.84306E+03 -5.70170E+02
 -3.12337E+03 -1.48075E+03 -1.11562E+03 -3.63906E+03  1.74380E+03 -4.53930E+03  3.62289E+03 -2.00998E+03
  3.42876E+03  5.15971E+02  1.64504E+03  2.55314E+03 -2.78575E+02  3.53375E+03 -2.96971E+03  2.41873E+03
