 $NMID ID='MM_0lb_SNR800_7hz_g40_50.RAW', FMTDAT='(8E13.5)'
 TRAMP=1., VOLUME=1. $END
  3.09944E+05  1.51882E+02  3.38026E+05  2.51091E+05  8.54424E+04  3.38375E+05 -1.32640E+05  2.52174E+05
 -1.90924E+05  8.37208E+04 -1.12886E+05 -3.23579E+04 -1.11328E+02 -5.03406E+04  5.33886E+04 -4.87566E+02
  3.54588E+04  5.27535E+04 -1.65093E+04  7.58039E+04 -6.10195E+04  6.47898E+04 -8.54677E+04  3.23917E+04
 -8.23166E+04 -1.19933E+04 -5.88575E+04 -5.28328E+04 -1.51851E+04 -7.11825E+04  2.80842E+04 -4.69944E+04
  4.14597E+04  3.87519E+03  1.70924E+04  4.84323E+04 -3.52529E+04  4.82753E+04 -6.86611E+04  1.05874E+02
 -5.50424E+04 -5.76956E+04 -7.36959E+03 -7.94163E+04  3.50943E+04 -5.75150E+04  5.03370E+04 -1.82415E+04
  4.51928E+04  1.17381E+04  3.34303E+04  2.71980E+04  1.57555E+04  3.05590E+04 -6.30225E+03  2.78310E+04
 -2.19150E+04  1.15355E+04 -1.77158E+04 -5.79109E+03  7.27724E+03 -7.41971E+03  2.34715E+04  1.41409E+04
  7.47373E+03  3.82622E+04 -3.43044E+04  3.73711E+04 -6.66108E+04  2.03973E+03 -5.95256E+04 -4.50329E+04
 -1.23743E+04 -6.67947E+04  4.21567E+04 -4.81605E+04  6.18173E+04 -2.80731E+03  3.70429E+04  3.51713E+04
 -5.33024E+03  4.02297E+04 -3.23577E+04  1.91616E+04 -3.43458E+04 -3.36713E+03 -2.00749E+04 -1.23863E+04
 -9.53762E+03 -1.59685E+04 -2.11140E+02 -2.01737E+04  8.71449E+03 -2.32985E+04  1.56159E+04 -1.24110E+04
  1.00368E+04  6.79411E+03 -1.02824E+04  1.30662E+04 -2.41652E+04 -6.99361E+03 -8.46078E+03 -3.81070E+04
  2.51264E+04 -4.74421E+04  5.30717E+04 -2.09666E+04  4.97021E+04  2.09229E+04  1.77441E+04  4.76966E+04
 -1.71877E+04  3.71419E+04 -2.86009E+04  2.68018E+03 -1.20689E+04 -2.98367E+04  2.18702E+04 -3.79920E+04
  4.55208E+04 -1.16152E+04  4.15581E+04  2.56430E+04  2.26715E+04  5.24748E+04 -8.01441E+03  5.76826E+04
 -3.60978E+04  3.98025E+04 -4.89272E+04  1.13533E+04 -4.86489E+04 -1.93191E+04 -2.66952E+04 -4.35678E+04
  8.01980E+03 -4.30946E+04  3.48131E+04 -1.78888E+04  3.28529E+04  1.13121E+04  5.44895E+03  2.13005E+04
 -1.38261E+04  9.81699E+03 -1.16088E+04 -7.58881E+03  5.30725E+03 -1.14938E+04  1.95513E+04  5.51564E+03
  1.53207E+04  2.29140E+04 -5.04424E+03  2.79368E+04 -2.41019E+04  1.52813E+04 -3.24642E+04 -2.60265E+03
 -2.60308E+04 -1.86367E+04 -1.26144E+04 -2.60847E+04  4.23025E+03 -2.74328E+04  2.06048E+04 -2.41732E+04
  3.39463E+04 -1.46694E+04  3.96790E+04  4.97538E+03  2.76801E+04  2.56367E+04  4.16918E+03  4.25719E+04
 -2.01515E+04  3.47174E+04 -3.11076E+04  1.21514E+04 -2.27913E+04 -1.00449E+04 -4.82609E+03 -1.29830E+04
  5.06973E+02 -1.07019E+03 -8.40028E+03  8.82834E+03 -2.10874E+04  5.07242E+03 -2.09675E+04 -1.00302E+04
 -1.25411E+04 -2.47585E+04  6.70227E+03 -2.90980E+04  1.99491E+04 -2.03345E+04  2.40944E+04 -2.20165E+03
  1.55327E+04  1.70911E+04 -1.50436E+03  2.41087E+04 -1.76862E+04  1.43321E+04 -2.46448E+04 -4.81860E+03
 -1.84695E+04 -2.17066E+04 -2.08898E+03 -2.94219E+04  1.27808E+04 -2.45246E+04  2.38378E+04 -1.28119E+04
  2.27897E+04 -6.54761E+02  1.70497E+04  5.47237E+03  9.72596E+03  1.46776E+03  1.27249E+04 -2.14365E+03
  2.39259E+04  3.09560E+03  2.71186E+04  1.92191E+04  1.87392E+04  3.98308E+04 -2.60192E+03  4.69426E+04
 -2.65341E+04  3.93162E+04 -4.44537E+04  2.03101E+04 -4.80732E+04 -3.23864E+03 -3.84874E+04 -2.83480E+04
 -1.54144E+04 -3.97565E+04  1.44377E+04 -3.49454E+04  2.99275E+04 -1.59193E+04  2.54300E+04  8.12189E+03
  8.57480E+03  1.95671E+04 -1.21564E+04  1.65550E+04 -2.15155E+04  3.06891E+03 -1.56968E+04 -1.39907E+04
  1.32798E+02 -2.05400E+04  1.11769E+04 -1.51451E+04  1.42713E+04 -1.39961E+03  3.87627E+03  9.23201E+03
 -8.79458E+03  4.61011E+03 -1.01340E+04 -7.20652E+03 -2.00833E+03 -1.94828E+04  1.31835E+04 -2.15450E+04
  2.50428E+04 -1.28684E+04  2.86644E+04  3.34163E+03  2.53950E+04  1.98656E+04  1.14794E+04  3.16403E+04
 -6.31699E+03  3.40251E+04 -2.18842E+04  2.12522E+04 -2.47121E+04  4.11666E+03 -1.66662E+04 -6.85636E+03
 -6.62880E+03 -7.59981E+03 -5.64952E+02  3.99606E+02 -3.01753E+03  3.79714E+03 -7.79694E+03  5.88746E+03
 -1.51451E+04 -8.64004E+02 -1.57745E+04 -1.26587E+04 -6.38391E+03 -2.05214E+04  6.86061E+03 -1.71076E+04
  1.36525E+04 -6.91055E+03  9.85073E+03  4.34797E+03 -3.10360E+02  6.75122E+03 -8.95745E+03 -6.57332E+01
 -8.76715E+03 -1.15613E+04 -9.18901E+02 -1.69358E+04  9.82349E+03 -1.81412E+04  2.19059E+04 -9.96743E+03
  2.58228E+04  2.81911E+03  1.86974E+04  1.57364E+04  3.61147E+03  2.11648E+04 -1.08807E+04  1.67359E+04
 -1.41611E+04  5.09470E+03 -7.64225E+03 -3.87638E+03  2.60342E+03 -5.27268E+03  9.28657E+03 -1.41141E+03
  8.18964E+03  7.88490E+03  7.48748E+02  1.38734E+04 -1.01284E+04  1.34605E+04 -1.72086E+04  3.17538E+03
 -1.20296E+04 -9.25768E+03  1.63861E+02 -1.52658E+04  1.01498E+04 -7.67581E+03  1.06360E+04  3.75280E+03
  2.72146E+03  1.14258E+04 -9.00203E+03  1.28936E+04 -1.55099E+04  6.00444E+03 -1.62922E+04 -5.81149E+03
 -8.86773E+03 -1.81755E+04  4.84224E+03 -2.04179E+04  1.79745E+04 -1.25313E+04  1.91194E+04  3.16663E+03
  1.14704E+04  1.53461E+04 -1.70581E+03  1.76069E+04 -1.34262E+04  9.47520E+03 -1.44020E+04 -1.46200E+03
 -1.16892E+04 -1.12537E+04 -1.94788E+03 -1.33792E+04  7.27068E+03 -1.05910E+04  8.87063E+03 -3.94443E+03
  5.38046E+03  2.65092E+03 -1.36504E+03  2.20610E+03 -6.97980E+02 -4.10013E+03  3.66821E+03 -8.63222E+03
  1.29504E+04 -5.65223E+03  1.84841E+04  1.86264E+03  1.83092E+04  1.27347E+04  1.08860E+04  2.37329E+04
 -5.70209E+03  2.76288E+04 -2.28759E+04  2.00766E+04 -2.96617E+04  4.20891E+03 -2.36369E+04 -1.05840E+04
 -1.16862E+04 -1.92860E+04 -1.17220E+02 -1.68141E+04  5.61015E+03 -9.86620E+03  5.64309E+03 -5.96509E+03
  4.62840E+03 -3.66579E+03  3.95574E+03 -4.10117E+03  6.20782E+03 -4.56437E+03  9.51580E+03 -1.49791E+03
  1.27207E+04  2.54163E+03  6.67718E+03  1.07070E+04 -2.23066E+03  1.36639E+04 -1.25714E+04  1.03330E+04
 -1.70051E+04 -1.06921E+03 -1.13083E+04 -1.23781E+04 -1.81325E+03 -1.87304E+04  9.54462E+03 -1.87077E+04
  1.92242E+04 -1.01652E+04  2.27715E+04  3.58866E+03  1.60684E+04  1.63824E+04  2.65948E+03  2.05087E+04
 -8.36334E+03  1.71549E+04 -1.20221E+04  6.12342E+03 -8.92750E+03 -1.86046E+03 -3.83903E+03 -2.75908E+03
 -1.73518E+03 -5.26742E+02 -2.56043E+03  2.80335E+03 -6.43066E+03  2.89076E+03 -1.13258E+04 -1.93492E+03
 -8.77241E+03 -1.14612E+04 -6.59723E+02 -1.72774E+04  1.07177E+04 -1.59758E+04  1.75319E+04 -5.24615E+03
  1.74179E+04  8.66435E+03  8.21794E+03  1.59603E+04 -3.56252E+03  1.77092E+04 -1.22716E+04  1.07916E+04
 -1.71599E+04  5.17195E+02 -1.26834E+04 -1.07400E+04 -1.45439E+03 -1.49887E+04  7.25110E+03 -1.09386E+04
  1.11228E+04 -2.90419E+03  7.91369E+03  2.93550E+03  2.81045E+03  4.85020E+03  1.26910E+03  3.10719E+03
  3.14300E+03  1.00561E+03  4.12002E+03  2.77680E+03  5.31306E+03  5.87698E+03  4.76163E+03  9.26433E+03
 -3.59311E+03  1.43695E+04 -1.27576E+04  1.36943E+04 -1.90971E+04  3.13511E+03 -1.91100E+04 -8.25013E+03
 -8.83062E+03 -1.90500E+04  2.78544E+03 -1.96010E+04  1.12186E+04 -1.28176E+04  1.53932E+04 -3.37576E+03
  1.17674E+04  6.94054E+03  2.13619E+03  1.07834E+04 -4.98891E+03  7.25636E+03 -7.74073E+03 -1.54675E+03
 -4.12246E+03 -8.12547E+03  4.20324E+03 -8.20941E+03  7.77294E+03 -3.91724E+03  7.53803E+03  1.94048E+03
  4.25240E+03  3.83848E+03  1.81225E+03  2.82478E+03 -7.34873E+02  2.44621E+03  1.55477E+03 -9.05874E+02
  3.20698E+03 -9.02065E+02  7.69947E+03  3.00482E+03  4.42334E+03  9.73280E+03 -1.37851E+03  1.29336E+04
 -9.10915E+03  9.40612E+03 -1.21902E+04  2.67228E+03 -1.06578E+04 -4.10798E+03 -4.51149E+03 -7.79872E+03
  6.89925E+02 -7.01688E+03  5.24220E+03 -3.55020E+03  4.51265E+03  3.41065E+03 -1.60296E+03  6.25806E+03
 -7.89459E+03  3.68730E+03 -9.39217E+03 -4.35041E+03 -5.37171E+03 -1.01170E+04  2.05674E+03 -1.02439E+04
  6.31743E+03 -6.33093E+03  7.85604E+03 -1.22180E+03  6.35469E+03  3.05768E+03  5.56739E+02  5.77113E+03
 -3.50736E+03  1.34515E+03 -4.70586E+03 -3.49528E+03  1.79877E+03 -7.77532E+03  9.28941E+03 -6.30799E+03
  1.28202E+04  9.78797E+02  1.19019E+04  8.44226E+03  3.75580E+03  1.29837E+04 -4.65273E+03  1.18008E+04
 -1.04236E+04  5.70157E+03 -1.07090E+04 -1.32162E+03 -5.56698E+03 -8.77102E+03  2.47961E+03 -8.65156E+03
  7.96256E+03 -4.17104E+03  7.03820E+03  3.39543E+03  1.93500E+03  6.82429E+03 -1.27849E+03  6.42230E+03
 -3.29176E+03  3.79328E+03 -3.19908E+03  1.62287E+03 -1.69451E+03  8.42049E+02 -2.23101E+03  2.48622E+03
 -3.65068E+03  5.27899E+03 -8.68357E+03  4.32834E+03 -1.31696E+04  6.50587E+02 -1.45126E+04 -9.08712E+03
 -7.55253E+03 -1.74290E+04  3.50250E+03 -2.00250E+04  1.23828E+04 -1.55900E+04  1.82735E+04 -5.20115E+03
  1.73909E+04  3.81356E+03  1.06027E+04  1.19408E+04  1.22071E+03  1.35831E+04 -5.71145E+03  1.04794E+04
 -7.54915E+03  4.18904E+03 -4.56123E+03 -1.99131E+03 -1.38207E+03 -1.27421E+03 -7.50959E+02  2.58767E+02
 -1.23505E+03  5.52573E+02 -2.55303E+03 -7.30682E+02 -1.31250E+03 -2.99456E+03  1.01560E+03 -5.26623E+03
  6.02780E+03 -4.21171E+03  8.67584E+03  9.81115E+01  9.83714E+03  7.22200E+03  2.79103E+03  1.40669E+04
 -6.95033E+03  1.60108E+04 -1.43945E+04  9.15319E+03 -1.65827E+04 -1.53996E+03 -1.28771E+04 -1.06270E+04
 -5.09396E+03 -1.43281E+04  3.91172E+03 -1.33958E+04  9.28658E+03 -7.52765E+03  9.34662E+03  1.09191E+02
  4.93644E+03  5.30710E+03 -2.54641E+02  4.09190E+03 -2.71146E+03 -1.73490E+02  3.34237E+02 -3.95180E+03
  4.53008E+03 -1.89716E+03  5.59579E+03  1.54055E+03  3.11541E+03  5.60697E+03 -9.48110E+01  7.51893E+03
 -6.60820E+03  6.44235E+03 -1.00762E+04  4.24870E+02 -8.21631E+03 -7.13293E+03 -1.96906E+03 -1.22589E+04
  6.23806E+03 -1.02094E+04  1.12381E+04 -3.15773E+03  1.09958E+04  3.23970E+03  6.21923E+03  8.73049E+03
  1.20726E+03  9.29550E+03 -3.58053E+03  7.36178E+03 -5.88458E+03  4.22724E+03 -5.05760E+03  1.49749E+02
 -3.24596E+03 -2.18825E+02 -2.89450E+03  1.48190E+03 -4.62095E+03  1.87123E+03 -7.25051E+03 -1.38062E+03
 -7.20157E+03 -6.15320E+03 -2.21430E+03 -9.89252E+03  4.54832E+03 -9.95915E+03  8.58178E+03 -5.32256E+03
  9.61527E+03  1.47529E+03  6.06739E+03  7.03632E+03 -8.37221E+02  1.00855E+04 -7.83193E+03  6.28316E+03
