 $NMID ID='MM_0lb_SNR800_8hz_g55_90.RAW', FMTDAT='(8E13.5)'
 TRAMP=1., VOLUME=1. $END
  3.09844E+05  7.58958E+02  3.37970E+05  2.50736E+05  8.45079E+04  3.38422E+05 -1.32412E+05  2.51946E+05
 -1.91210E+05  8.37000E+04 -1.12922E+05 -3.25586E+04  4.51734E+02 -5.12528E+04  5.35478E+04 -2.10605E+02
  3.59438E+04  5.31689E+04 -1.65782E+04  7.62951E+04 -6.15532E+04  6.44217E+04 -8.56287E+04  3.27449E+04
 -8.30681E+04 -1.13276E+04 -5.84082E+04 -5.27114E+04 -1.55959E+04 -7.14794E+04  2.81567E+04 -4.67793E+04
  4.16701E+04  3.58541E+03  1.69891E+04  4.92904E+04 -3.53004E+04  4.85069E+04 -6.85426E+04  9.26499E-01
 -5.55954E+04 -5.81121E+04 -7.33834E+03 -7.89427E+04  3.46094E+04 -5.76042E+04  5.05312E+04 -1.86942E+04
  4.56810E+04  1.14566E+04  3.34278E+04  2.67822E+04  1.58672E+04  3.09972E+04 -5.89470E+03  2.77215E+04
 -2.24840E+04  1.18878E+04 -1.76922E+04 -5.74419E+03  7.10238E+03 -7.61461E+03  2.36743E+04  1.44716E+04
  7.20906E+03  3.80748E+04 -3.44944E+04  3.79593E+04 -6.67565E+04  2.29827E+03 -5.92490E+04 -4.51301E+04
 -1.28665E+04 -6.66046E+04  4.20121E+04 -4.85330E+04  6.22467E+04 -2.52828E+03  3.70263E+04  3.45785E+04
 -5.64874E+03  4.07559E+04 -3.26404E+04  1.92886E+04 -3.41326E+04 -3.38352E+03 -2.03270E+04 -1.27360E+04
 -1.00269E+04 -1.57284E+04 -2.97578E+02 -2.03374E+04  8.46074E+03 -2.34248E+04  1.63392E+04 -1.18652E+04
  1.04320E+04  5.93666E+03 -1.14520E+04  1.27109E+04 -2.40392E+04 -6.95368E+03 -8.61195E+03 -3.88604E+04
  2.61566E+04 -4.76728E+04  5.35691E+04 -2.10969E+04  4.97193E+04  2.12206E+04  1.75490E+04  4.81424E+04
 -1.70458E+04  3.70345E+04 -2.83108E+04  2.89008E+03 -1.25163E+04 -3.04301E+04  2.13805E+04 -3.76984E+04
  4.57117E+04 -1.18179E+04  4.22308E+04  2.51154E+04  2.26971E+04  5.23421E+04 -8.56214E+03  5.81074E+04
 -3.67733E+04  3.98924E+04 -4.92338E+04  1.19003E+04 -4.89727E+04 -1.94720E+04 -2.72517E+04 -4.31575E+04
  8.07389E+03 -4.33530E+04  3.48540E+04 -1.75056E+04  3.26749E+04  1.08975E+04  5.70013E+03  2.16590E+04
 -1.42987E+04  1.03332E+04 -1.11603E+04 -7.48235E+03  5.51263E+03 -1.17804E+04  1.91505E+04  5.35544E+03
  1.48727E+04  2.32445E+04 -5.16617E+03  2.75928E+04 -2.35144E+04  1.52603E+04 -3.28608E+04 -2.50824E+03
 -2.66132E+04 -1.90354E+04 -1.27449E+04 -2.62125E+04  4.56875E+03 -2.79817E+04  2.14274E+04 -2.44436E+04
  3.37073E+04 -1.50259E+04  3.98633E+04  5.74991E+03  2.79594E+04  2.59962E+04  4.74048E+03  4.26376E+04
 -2.03464E+04  3.50199E+04 -3.15411E+04  1.22799E+04 -2.27076E+04 -1.01501E+04 -5.20384E+03 -1.25637E+04
  9.01010E+01 -4.77138E+02 -8.40143E+03  8.97297E+03 -2.14519E+04  5.16745E+03 -2.14438E+04 -1.04953E+04
 -1.22628E+04 -2.46523E+04  6.37599E+03 -2.92779E+04  1.95770E+04 -2.07834E+04  2.42731E+04 -2.12020E+03
  1.57801E+04  1.71243E+04 -1.27090E+03  2.47236E+04 -1.72232E+04  1.42564E+04 -2.51686E+04 -5.47423E+03
 -1.82478E+04 -2.20238E+04 -2.25649E+03 -2.98552E+04  1.31023E+04 -2.49020E+04  2.44361E+04 -1.28753E+04
  2.32214E+04 -1.36809E+02  1.66115E+04  5.72338E+03  1.01541E+04  1.84982E+03  1.29952E+04 -2.14899E+03
  2.32320E+04  2.52600E+03  2.72737E+04  1.89320E+04  1.88252E+04  3.99000E+04 -2.83040E+03  4.72395E+04
 -2.70527E+04  3.96045E+04 -4.48653E+04  2.09062E+04 -4.83477E+04 -3.36085E+03 -3.87550E+04 -2.85829E+04
 -1.53126E+04 -4.03733E+04  1.43248E+04 -3.51058E+04  3.00594E+04 -1.59032E+04  2.59853E+04  8.48280E+03
  8.21345E+03  2.01865E+04 -1.19990E+04  1.69363E+04 -2.13912E+04  2.62500E+03 -1.62846E+04 -1.36061E+04
 -5.38377E+02 -2.09250E+04  1.15942E+04 -1.55639E+04  1.44511E+04 -1.47787E+03  3.57495E+03  9.65684E+03
 -9.25239E+03  4.81289E+03 -1.03556E+04 -7.34725E+03 -2.04686E+03 -1.95279E+04  1.27449E+04 -2.19436E+04
  2.48359E+04 -1.24113E+04  2.86211E+04  3.45619E+03  2.54385E+04  2.03005E+04  1.17921E+04  3.22390E+04
 -6.19109E+03  3.40381E+04 -2.27206E+04  2.11781E+04 -2.47006E+04  4.11150E+03 -1.62280E+04 -6.85166E+03
 -7.05879E+03 -8.37293E+03 -1.13228E+03  2.79504E+02 -3.32886E+03  3.77871E+03 -8.21516E+03  5.48838E+03
 -1.55846E+04 -9.33833E+02 -1.55538E+04 -1.25989E+04 -6.33938E+03 -2.13171E+04  7.13970E+03 -1.71747E+04
  1.40615E+04 -6.92848E+03  1.00953E+04  4.49938E+03 -7.63146E+02  6.80950E+03 -8.77922E+03 -1.04609E+02
 -8.01704E+03 -1.10544E+04 -1.58605E+03 -1.72320E+04  1.02915E+04 -1.78425E+04  2.20088E+04 -9.74866E+03
  2.57858E+04  2.85297E+03  1.90824E+04  1.62848E+04  3.44660E+03  2.10039E+04 -1.02760E+04  1.69004E+04
 -1.41013E+04  4.39876E+03 -7.02523E+03 -3.56952E+03  2.04888E+03 -5.06529E+03  8.90455E+03 -1.40763E+03
  8.41397E+03  7.56761E+03  1.03766E+03  1.36825E+04 -1.05391E+04  1.34306E+04 -1.74812E+04  3.33289E+03
 -1.20284E+04 -8.94902E+03  2.43296E+02 -1.41352E+04  9.38692E+03 -7.81816E+03  1.05103E+04  4.17198E+03
  2.47295E+03  1.12210E+04 -8.81386E+03  1.32953E+04 -1.55659E+04  5.47444E+03 -1.61078E+04 -5.97337E+03
 -8.65536E+03 -1.82731E+04  4.42977E+03 -2.08269E+04  1.72799E+04 -1.16966E+04  1.93613E+04  3.30922E+03
  1.11506E+04  1.50764E+04 -2.19955E+03  1.73388E+04 -1.28131E+04  9.86021E+03 -1.43989E+04 -1.15967E+03
 -1.18969E+04 -1.15574E+04 -1.87080E+03 -1.33581E+04  6.91583E+03 -1.09443E+04  8.39249E+03 -3.84222E+03
  5.55336E+03  3.07453E+03 -1.66818E+03  2.07211E+03 -8.25891E+02 -4.08939E+03  3.11794E+03 -8.51720E+03
  1.30255E+04 -5.87742E+03  1.88076E+04  1.65113E+03  1.82722E+04  1.27067E+04  1.13076E+04  2.39952E+04
 -5.92680E+03  2.77468E+04 -2.22085E+04  2.00962E+04 -2.87984E+04  3.73707E+03 -2.35955E+04 -1.06261E+04
 -1.17301E+04 -1.94336E+04 -2.90295E+02 -1.68209E+04  5.61129E+03 -9.19514E+03  6.06639E+03 -5.91385E+03
  4.66954E+03 -3.88678E+03  4.71184E+03 -4.08453E+03  6.39175E+03 -4.13597E+03  8.82095E+03 -1.33705E+03
  1.20469E+04  2.69123E+03  7.17116E+03  1.06737E+04 -2.68430E+03  1.34694E+04 -1.27254E+04  9.98887E+03
 -1.70870E+04 -1.51656E+03 -1.09278E+04 -1.17740E+04 -2.09632E+03 -1.85081E+04  1.01661E+04 -1.85582E+04
  1.86737E+04 -9.60221E+03  2.20120E+04  2.91970E+03  1.52085E+04  1.58009E+04  2.31640E+03  2.05167E+04
 -8.62281E+03  1.62749E+04 -1.22748E+04  5.29928E+03 -8.67068E+03 -1.78635E+03 -3.88374E+03 -2.62589E+03
 -1.50865E+03 -1.56307E+02 -2.48414E+03  3.06250E+03 -6.98144E+03  2.88512E+03 -1.18279E+04 -1.91130E+03
 -8.78386E+03 -1.10656E+04 -2.81264E+02 -1.68374E+04  1.03078E+04 -1.57609E+04  1.74038E+04 -5.27408E+03
  1.68378E+04  8.61797E+03  7.91766E+03  1.58631E+04 -3.17706E+03  1.73497E+04 -1.24776E+04  1.09016E+04
 -1.66342E+04  5.58242E+02 -1.25535E+04 -1.06408E+04 -1.33850E+03 -1.48415E+04  7.71844E+03 -1.06802E+04
  1.08809E+04 -2.99311E+03  7.65208E+03  3.15040E+03  2.83089E+03  4.56616E+03  1.43921E+03  2.58314E+03
  3.13452E+03  1.32677E+03  4.46284E+03  1.98695E+03  5.17545E+03  5.86106E+03  4.54124E+03  9.08791E+03
 -3.23749E+03  1.35342E+04 -1.26955E+04  1.36463E+04 -1.82496E+04  3.23392E+03 -1.79112E+04 -7.73945E+03
 -8.88380E+03 -1.75906E+04  2.44085E+03 -1.87952E+04  1.10238E+04 -1.26035E+04  1.47582E+04 -3.56649E+03
  1.15629E+04  6.52239E+03  2.71816E+03  1.00941E+04 -4.93097E+03  6.71917E+03 -7.40688E+03 -1.17009E+03
 -3.80885E+03 -7.65370E+03  4.27368E+03 -8.14114E+03  7.53682E+03 -3.74026E+03  7.21860E+03  1.57379E+03
  4.19853E+03  4.00042E+03  1.59622E+03  2.93484E+03 -7.68357E+02  2.29099E+03  1.23284E+03 -5.99593E+02
  3.09767E+03 -1.03928E+03  6.85646E+03  2.69368E+03  4.24931E+03  9.22975E+03 -1.74556E+03  1.27564E+04
 -9.04157E+03  8.64638E+03 -1.14999E+04  2.18582E+03 -1.03028E+04 -4.68313E+03 -4.10137E+03 -7.47408E+03
  8.09454E+02 -6.89171E+03  4.34644E+03 -3.36204E+03  4.16555E+03  3.15642E+03 -1.58965E+03  6.16057E+03
 -7.65818E+03  3.51790E+03 -8.69511E+03 -4.21215E+03 -4.90983E+03 -1.03237E+04  1.67949E+03 -1.05188E+04
  5.97804E+03 -6.08513E+03  7.19087E+03 -1.06921E+03  6.21021E+03  3.14661E+03  8.11185E+02  5.06280E+03
 -4.04070E+03  1.87251E+03 -4.24990E+03 -3.75114E+03  1.50192E+03 -7.85476E+03  8.94649E+03 -6.06307E+03
  1.20393E+04  7.40057E+02  1.12293E+04  8.40378E+03  3.55026E+03  1.23034E+04 -3.94467E+03  1.20601E+04
 -9.63662E+03  4.96405E+03 -1.01210E+04 -1.80361E+03 -5.35277E+03 -7.94720E+03  1.64731E+03 -7.47226E+03
  7.46849E+03 -3.41780E+03  6.50512E+03  2.64409E+03  2.26932E+03  6.69078E+03 -1.15955E+03  5.78209E+03
 -2.98037E+03  3.64151E+03 -3.41829E+03  1.47324E+03 -1.75006E+03  1.02329E+03 -1.79691E+03  2.31656E+03
 -3.08826E+03  4.86848E+03 -7.82322E+03  4.13547E+03 -1.23406E+04  4.28192E+02 -1.37142E+04 -8.65463E+03
 -7.24486E+03 -1.65167E+04  3.07473E+03 -1.88218E+04  1.15486E+04 -1.46824E+04  1.75121E+04 -5.28309E+03
  1.69001E+04  3.64819E+03  1.05349E+04  1.11788E+04  1.27061E+03  1.30289E+04 -5.27544E+03  9.45631E+03
 -7.40200E+03  3.30316E+03 -4.72887E+03 -1.47199E+03 -1.59045E+03 -1.39153E+03 -4.08522E+02  2.81435E+02
 -1.58206E+03  5.71535E+02 -3.58969E+03 -2.04001E+02 -9.93871E+02 -3.23091E+03  4.18306E+02 -4.68804E+03
  5.75000E+03 -3.67044E+03  7.95932E+03  4.27038E+01  9.21160E+03  7.06074E+03  2.63153E+03  1.27552E+04
 -5.67260E+03  1.45572E+04 -1.37125E+04  9.06588E+03 -1.56731E+04 -1.21107E+03 -1.21158E+04 -9.54607E+03
 -5.22814E+03 -1.34633E+04  3.72137E+03 -1.23410E+04  8.23477E+03 -6.96549E+03  8.56091E+03  6.38011E+02
  4.80470E+03  4.81946E+03 -6.48256E+02  3.62839E+03 -2.21913E+03 -2.47813E+02  3.02743E+02 -3.45221E+03
  3.72955E+03 -2.10858E+03  5.34229E+03  1.81810E+03  3.67812E+03  5.13374E+03 -2.44687E+02  6.75388E+03
 -6.07825E+03  5.92396E+03 -8.74575E+03  2.67994E+02 -7.49037E+03 -6.41002E+03 -1.10996E+03 -1.12103E+04
  6.08581E+03 -9.41217E+03  1.04948E+04 -3.06058E+03  1.00847E+04  2.92295E+03  5.74242E+03  8.47939E+03
  1.32312E+03  8.90746E+03 -3.44596E+03  7.21971E+03 -5.70180E+03  3.66346E+03 -4.74848E+03  7.35055E+02
 -2.42342E+03 -1.49327E+02 -2.40820E+03  7.61530E+02 -5.17189E+03  1.34036E+03 -7.68500E+03 -1.41833E+03
 -6.29265E+03 -5.05550E+03 -1.91858E+03 -8.78396E+03  4.30240E+03 -9.12208E+03  8.41039E+03 -4.10200E+03
  9.11553E+03  1.44486E+03  5.21838E+03  6.44823E+03 -1.04668E+03  8.86783E+03 -7.01414E+03  5.58536E+03
