 $NMID ID='MM_0lb_SNR800_18hz_g40_87.RAW', FMTDAT='(8E13.5)'
 TRAMP=1., VOLUME=1. $END
  3.09727E+05  3.67264E+02  3.37329E+05  2.50145E+05  8.45024E+04  3.37388E+05 -1.32609E+05  2.50090E+05
 -1.89817E+05  8.25120E+04 -1.10710E+05 -3.29000E+04  1.67306E+03 -5.01530E+04  5.38019E+04  2.29357E+02
  3.51276E+04  5.27189E+04 -1.69652E+04  7.47661E+04 -6.01698E+04  6.26580E+04 -8.29879E+04  3.12547E+04
 -7.94308E+04 -1.12105E+04 -5.59167E+04 -5.00522E+04 -1.52013E+04 -6.80472E+04  2.66023E+04 -4.48070E+04
  3.89284E+04  3.97287E+03  1.56379E+04  4.68699E+04 -3.38480E+04  4.58783E+04 -6.52816E+04 -6.32933E+02
 -5.19168E+04 -5.58353E+04 -6.33123E+03 -7.48441E+04  3.30660E+04 -5.31187E+04  4.60871E+04 -1.59611E+04
  4.14842E+04  1.10430E+04  3.04461E+04  2.42177E+04  1.57813E+04  2.81862E+04 -4.58047E+03  2.67004E+04
 -2.15126E+04  1.29676E+04 -1.93349E+04 -4.00291E+03  4.18417E+03 -7.69674E+03  2.09760E+04  1.06833E+04
  7.43301E+03  3.29622E+04 -3.00708E+04  3.40387E+04 -6.05194E+04  2.25989E+03 -5.50251E+04 -4.11865E+04
 -1.24485E+04 -6.05029E+04  3.80120E+04 -4.31994E+04  5.52502E+04 -1.81162E+03  3.15061E+04  3.04305E+04
 -6.74956E+03  3.26520E+04 -2.81986E+04  1.29995E+04 -2.72064E+04 -5.47659E+03 -1.40723E+04 -1.00526E+04
 -7.29583E+03 -1.13513E+04 -1.33990E+03 -1.64153E+04  6.65572E+03 -2.24271E+04  1.49919E+04 -1.38478E+04
  1.23531E+04  3.90775E+03 -6.08480E+03  1.32708E+04 -1.89511E+04 -2.25879E+03 -8.28922E+03 -2.99204E+04
  2.05499E+04 -4.02505E+04  4.46290E+04 -1.83346E+04  4.15310E+04  1.81546E+04  1.39817E+04  4.15886E+04
 -1.52086E+04  3.06399E+04 -2.33040E+04  1.10411E+03 -8.22111E+03 -2.59141E+04  2.04366E+04 -3.09992E+04
  3.77905E+04 -7.43295E+03  3.10958E+04  2.27394E+04  1.50479E+04  4.24920E+04 -7.87113E+03  4.46725E+04
 -2.80429E+04  2.97872E+04 -3.71823E+04  8.34658E+03 -3.78762E+04 -1.46543E+04 -2.09893E+04 -3.42462E+04
  6.98715E+03 -3.40769E+04  2.89000E+04 -1.22849E+04  2.65586E+04  1.04542E+04  2.88516E+03  1.75632E+04
 -1.30329E+04  7.38336E+03 -9.46410E+03 -7.54370E+03  5.80389E+03 -1.01511E+04  1.72854E+04  6.21974E+03
  1.24067E+04  2.16562E+04 -6.65211E+03  2.29269E+04 -2.11129E+04  8.79748E+03 -2.45754E+04 -6.36370E+03
 -1.64536E+04 -1.61896E+04 -5.45547E+03 -1.64471E+04  3.40217E+03 -1.42093E+04  1.23663E+04 -1.41676E+04
  2.09900E+04 -1.17583E+04  2.80334E+04  1.21124E+03  2.09119E+04  1.60982E+04  4.11482E+03  3.21653E+04
 -1.59330E+04  2.72312E+04 -2.57466E+04  9.53427E+03 -1.97204E+04 -1.04298E+04 -4.08786E+03 -1.41948E+04
  2.76929E+03 -4.16319E+03 -2.50598E+03  5.47990E+03 -1.26347E+04  5.08847E+03 -1.32030E+04 -4.84924E+03
 -8.37213E+03 -1.55026E+04  4.38761E+03 -1.91662E+04  1.23054E+04 -1.38956E+04  1.45582E+04 -1.59753E+03
  8.85621E+03  1.06273E+04 -8.72005E+02  1.56228E+04 -1.01937E+04  8.97681E+03 -1.53058E+04 -3.09376E+03
 -1.12895E+04 -1.42517E+04 -1.59165E+03 -1.87957E+04  8.69109E+03 -1.52546E+04  1.57649E+04 -7.21501E+03
  1.42769E+04  6.64342E+02  1.02743E+04  3.82325E+03  5.13850E+03  6.02742E+02  7.49117E+03 -1.39764E+03
  1.35579E+04  2.64420E+03  1.45354E+04  1.30716E+04  8.70843E+03  2.44239E+04 -3.34867E+03  2.59659E+04
 -1.55248E+04  2.01274E+04 -2.39385E+04  9.32676E+03 -2.43916E+04 -1.63121E+03 -2.12150E+04 -1.43465E+04
 -1.02257E+04 -1.99727E+04  6.63110E+03 -1.86156E+04  1.68469E+04 -1.08453E+04  1.53872E+04  3.62025E+03
  6.50068E+03  1.10425E+04 -6.97385E+03  1.01616E+04 -1.32381E+04  2.75028E+03 -1.03221E+04 -8.11893E+03
  1.06787E+01 -1.22996E+04  5.98159E+03 -9.50483E+03  8.02284E+03 -1.24257E+03  1.34650E+03  4.86967E+03
 -5.29446E+03  1.21064E+03 -3.65407E+03 -4.53399E+03  7.80085E+02 -1.01490E+04  7.70810E+03 -1.01372E+04
  1.19263E+04 -4.72362E+03  1.18527E+04  2.64599E+03  1.03054E+04  9.39475E+03  4.83927E+03  1.36077E+04
 -1.52493E+03  1.58839E+04 -9.39124E+03  1.00082E+04 -1.11185E+04  2.81832E+03 -8.36341E+03 -1.70977E+03
 -4.53391E+03 -3.13224E+03 -5.67350E+02  1.61243E+03 -1.85923E+03  2.08079E+03 -3.40170E+03  3.42365E+03
 -8.02261E+03 -2.58364E+02 -9.16617E+03 -7.33648E+03 -3.56137E+03 -1.12803E+04  3.69988E+03 -8.78748E+03
  7.24090E+03 -3.55698E+03  5.22182E+03  2.19515E+03  7.80659E+02  3.09739E+03 -3.75611E+03  4.96613E+01
 -3.20754E+03 -5.24478E+03 -9.71724E+02 -7.38651E+03  3.85999E+03 -7.78232E+03  9.71748E+03 -4.04771E+03
  1.16373E+04  3.48012E+02  8.89881E+03  6.32578E+03  1.77175E+03  8.49589E+03 -5.21401E+03  8.17402E+03
 -6.97896E+03  2.77143E+03 -3.34298E+03 -1.28674E+03  1.12694E+03 -1.92154E+03  4.98800E+03 -8.30683E+02
  3.96382E+03  3.50799E+03  1.09414E+03  6.32015E+03 -4.49406E+03  6.41883E+03 -7.82067E+03  1.78900E+03
 -4.93136E+03 -3.79634E+03  3.85874E+02 -6.68811E+03  3.92432E+03 -3.29996E+03  3.36314E+03  1.01283E+03
  5.50788E+02  3.08826E+03 -3.97399E+03  4.70953E+03 -4.82834E+03  2.22802E+03 -4.48163E+03 -9.26751E+02
 -2.93640E+03 -6.11254E+03  1.14888E+03 -7.10908E+03  6.07588E+03 -4.56541E+03  6.16931E+03  1.31829E+03
  4.89516E+03  5.28646E+03  2.29461E+02  7.30492E+03 -5.04012E+03  4.60243E+03 -5.31890E+03 -3.33397E+02
 -5.80782E+03 -5.07811E+03 -1.54285E+03 -5.21311E+03  2.53506E+03 -4.67566E+03  2.87742E+03 -3.01589E+03
  2.84706E+03  6.44540E+02  2.10427E+02  1.21703E+03  5.54007E+02 -5.87497E+01  1.81637E+02 -1.92719E+03
  4.02308E+03 -7.07819E+02  5.41983E+03  4.97808E+02  5.45874E+03  3.16494E+03  5.15275E+03  7.18367E+03
 -1.21559E+03  8.41966E+03 -7.66059E+03  6.46059E+03 -9.99294E+03  1.19816E+03 -7.96894E+03 -2.50297E+03
 -4.28473E+03 -6.60564E+03 -1.76590E+02 -5.16436E+03  2.09910E+03 -2.01107E+03  1.88156E+03 -2.18191E+03
  1.18519E+03 -1.55218E+03  2.25607E+03 -2.41814E+03  3.69987E+03 -1.29242E+03  3.74281E+03  3.51100E+02
  4.66291E+03  1.00054E+03  1.01084E+03  3.76687E+03 -1.65816E+03  2.76486E+03 -4.67192E+03  2.58514E+03
 -5.26134E+03 -1.22801E+03 -1.76600E+03 -3.64203E+03  3.88921E+02 -5.00357E+03  3.23449E+03 -5.33725E+03
  5.28754E+03 -3.36941E+03  6.80371E+03  1.62658E+02  5.15691E+03  4.32657E+03  1.25797E+03  5.69105E+03
 -2.03883E+03  6.06083E+03 -3.35621E+03  1.77823E+03 -1.99626E+03 -1.10312E+03 -5.32987E+02 -4.59314E+02
 -4.18220E+02  1.96318E+02 -8.59215E+02  1.71324E+03 -2.50491E+03  1.17695E+03 -4.31822E+03 -4.74960E+02
 -1.55179E+03 -4.08285E+03  9.12036E+02 -4.78471E+03  2.75424E+03 -4.56539E+03  3.66846E+03 -1.05439E+03
  3.99153E+03  2.24010E+03  1.92425E+03  3.28564E+03 -7.26995E+02  4.46666E+03 -2.64163E+03  2.56605E+03
 -4.17305E+03  7.57965E+02 -3.55387E+03 -2.70871E+03 -2.91649E+02 -3.19051E+03  1.77058E+03 -2.46300E+03
  2.66803E+03 -1.37064E+03  1.94171E+03  7.10059E+02  4.55720E+02  1.55181E+03  1.03042E+03  4.76490E+02
  1.72474E+03  6.79232E+02  8.93812E+02  1.21435E+03  9.60866E+02  2.69105E+03  1.66726E+03  1.67889E+03
 -1.25289E+03  3.29883E+03 -2.78892E+03  4.32339E+03 -3.08201E+03  1.16816E+03 -4.28063E+03 -2.11027E+02
 -2.05593E+03 -3.58361E+03  5.91331E+02 -4.80354E+03  1.98610E+03 -2.74893E+03  3.21406E+03 -1.04470E+03
  2.74472E+03  1.97114E+03  4.30517E+02  2.39182E+03 -8.09142E+02  1.19179E+03 -9.96046E+02 -3.51122E+02
 -8.28752E+02 -1.65555E+03  1.37813E+03 -1.58845E+03  1.34018E+03 -7.99023E+02  1.21383E+03  3.66141E+02
  7.11011E+02  4.36912E+02  6.65493E+02 -3.38439E+02 -2.94520E+02  9.71735E+02  1.50477E+03 -3.13151E+02
  2.91148E+02 -2.64952E+02  1.88377E+03  4.98624E+02  2.43003E+02  2.16173E+03 -3.88604E+02  3.16659E+03
 -1.92746E+03  1.28634E+03 -1.77345E+03  4.21070E+02 -2.42536E+03 -7.41323E+02 -3.50124E+02 -1.17689E+03
  7.09178E+02 -9.30681E+02  1.06092E+03 -7.00691E+02  6.93788E+02  1.48479E+03 -5.59014E+02  1.21248E+03
 -1.79658E+03  4.67855E+02 -1.19090E+03 -1.38395E+03 -8.00903E+02 -2.41216E+03  4.66288E+02 -1.54399E+03
  5.88167E+02 -8.54228E+02  9.43810E+02  1.06516E+01  1.60564E+03  1.47263E+02  3.24641E+02  1.33339E+03
 -4.05330E+02  2.54005E+02 -8.12542E+02  1.10254E+00  7.70979E+02 -9.23762E+02  1.80604E+03 -9.01536E+02
  1.33132E+03  1.92688E+02  2.76387E+03  6.39484E+02  1.01871E+03  1.65227E+03 -4.03915E+02  2.22494E+03
 -1.61942E+03  3.08702E+02 -1.61577E+03 -3.08171E+02 -1.11548E+03 -1.11396E+03  2.07967E+02 -7.81623E+02
  1.79968E+03 -7.80149E+02  8.69046E+02  4.90321E+02  8.90490E+01  1.27477E+03  2.10414E+02  1.37979E+03
 -2.29368E+02  1.22920E+03 -4.95420E+02  3.65855E+02  1.16240E+02  4.51943E+02 -9.44019E+02  5.86123E+02
 -5.35713E+02  9.57719E+02 -1.48236E+03  4.63327E+02 -1.85180E+03  4.26598E+02 -2.77376E+03 -1.01818E+03
 -8.75068E+02 -2.41458E+03  3.76138E+02 -3.24022E+03  1.09789E+03 -2.72732E+03  2.88802E+03 -1.10051E+03
  2.43381E+03 -2.70946E+02  1.04406E+03  1.86978E+03 -5.16484E+02  1.36951E+03 -9.30199E+02  1.46891E+03
 -1.14531E+03  8.07789E+02 -2.69240E+02  1.08631E+01 -4.80257E+02  4.12766E+02 -6.59990E+02  3.75860E+01
 -1.12765E+03 -1.53032E+01 -1.00163E+03  1.23870E+02  3.71991E+02 -6.33258E+02 -1.63430E+02 -1.12497E+03
  1.17947E+03 -6.84365E+02  3.88781E+02 -1.54979E+02  1.65960E+03  1.05223E+03 -5.16474E+02  1.60106E+03
 -1.25933E+03  2.46616E+03 -1.81323E+03  1.52466E+03 -2.25142E+03 -3.76974E+02 -1.35607E+03 -1.27256E+03
 -9.29589E+02 -1.35211E+03  1.44767E+02 -1.56333E+03  5.21458E+02 -5.00729E+02  7.74915E+02  7.73857E+01
  7.55444E+02  2.04172E+02  1.12921E+02  6.74126E+02 -3.96416E+02 -2.16771E+02 -8.57074E+00 -2.67075E+02
  3.30973E+02  4.30499E+02  5.18431E+02  2.55030E+02 -3.09152E+01  5.15345E+02  5.15767E+02  2.70996E+02
 -5.28040E+02  8.68437E+02 -5.80667E+02  4.28305E+02 -7.20651E+02 -5.05054E+02 -6.01098E+00 -1.16833E+03
  9.41890E+02 -6.90094E+02  7.82887E+02 -5.84639E+01  7.48765E+02 -6.37226E+02  6.85128E+02  8.74330E+02
  1.62707E+02  6.22339E+02 -9.03061E+01  7.84763E+02 -2.96655E+02  8.11192E+02 -5.08455E+02 -1.05434E+02
 -2.58624E+01  3.62423E+01 -4.25021E+02  1.75944E+02 -4.87305E+02 -3.73236E+01 -7.79268E+02 -3.15171E+02
 -8.29524E+02  1.50326E+02 -2.06323E+02 -1.15623E+03  5.59273E+02 -1.43542E+03  8.84239E+02 -2.50638E+02
  9.59503E+02 -3.71431E+01 -1.91690E+02  3.44167E+02 -1.34871E+02  1.14284E+03 -4.57481E+02  9.92853E+02
