 $NMID ID='MM_0lb_SNR800_11hz_g55_61.RAW', FMTDAT='(8E13.5)'
 TRAMP=1., VOLUME=1. $END
  3.09838E+05  1.34240E+02  3.37723E+05  2.50488E+05  8.47483E+04  3.38370E+05 -1.32636E+05  2.51831E+05
 -1.90819E+05  8.34237E+04 -1.12208E+05 -3.25834E+04  5.48450E+02 -5.08602E+04  5.36394E+04 -3.74548E+02
  3.53750E+04  5.29386E+04 -1.66640E+04  7.57843E+04 -6.10005E+04  6.42525E+04 -8.50425E+04  3.25244E+04
 -8.21847E+04 -1.15310E+04 -5.79456E+04 -5.18108E+04 -1.49860E+04 -7.07135E+04  2.80513E+04 -4.68845E+04
  4.07318E+04  3.69788E+03  1.62920E+04  4.80252E+04 -3.49122E+04  4.80520E+04 -6.77438E+04 -6.58226E+01
 -5.46498E+04 -5.74854E+04 -7.08319E+03 -7.88566E+04  3.43730E+04 -5.65698E+04  4.99265E+04 -1.78085E+04
  4.47014E+04  1.17642E+04  3.26941E+04  2.62834E+04  1.60283E+04  3.04583E+04 -5.92660E+03  2.72930E+04
 -2.24339E+04  1.19212E+04 -1.82705E+04 -5.30804E+03  6.89077E+03 -7.16536E+03  2.29090E+04  1.35145E+04
  7.51322E+03  3.68339E+04 -3.33150E+04  3.65020E+04 -6.52984E+04  1.98686E+03 -5.82391E+04 -4.43607E+04
 -1.28563E+04 -6.52142E+04  4.10725E+04 -4.67900E+04  6.05238E+04 -2.55345E+03  3.60692E+04  3.39584E+04
 -5.55546E+03  3.83683E+04 -3.10120E+04  1.82010E+04 -3.27910E+04 -3.47878E+03 -1.85659E+04 -1.18402E+04
 -9.18308E+03 -1.48536E+04 -4.08136E+02 -1.91767E+04  7.94673E+03 -2.36975E+04  1.56944E+04 -1.25953E+04
  1.06433E+04  5.88096E+03 -1.02049E+04  1.28054E+04 -2.31046E+04 -6.20475E+03 -8.42190E+03 -3.64268E+04
  2.42166E+04 -4.64358E+04  5.11569E+04 -2.05956E+04  4.80105E+04  2.04156E+04  1.69912E+04  4.62942E+04
 -1.64244E+04  3.54855E+04 -2.68558E+04  2.45701E+03 -1.14353E+04 -2.87653E+04  2.12950E+04 -3.62772E+04
  4.35196E+04 -1.06601E+04  3.89517E+04  2.45130E+04  2.02436E+04  4.98674E+04 -8.19038E+03  5.47993E+04
 -3.40695E+04  3.65358E+04 -4.60222E+04  1.06434E+04 -4.60397E+04 -1.79343E+04 -2.54014E+04 -4.08491E+04
  7.58325E+03 -4.06564E+04  3.35782E+04 -1.63499E+04  3.11709E+04  1.12331E+04  5.09456E+03  2.01583E+04
 -1.36130E+04  9.08233E+03 -1.08082E+04 -7.71612E+03  6.13694E+03 -1.13940E+04  1.86241E+04  5.27394E+03
  1.43585E+04  2.27390E+04 -5.36529E+03  2.68430E+04 -2.31903E+04  1.40673E+04 -3.06367E+04 -3.67854E+03
 -2.41222E+04 -1.83446E+04 -1.06547E+04 -2.37304E+04  4.32422E+03 -2.42927E+04  1.86411E+04 -2.16802E+04
  3.08397E+04 -1.38057E+04  3.64659E+04  4.16298E+03  2.59459E+04  2.28294E+04  4.48134E+03  4.00100E+04
 -1.94788E+04  3.27857E+04 -3.01389E+04  1.11115E+04 -2.22449E+04 -1.00505E+04 -4.79960E+03 -1.30448E+04
  1.20777E+03 -1.68751E+03 -6.79041E+03  8.02921E+03 -1.90683E+04  5.02926E+03 -1.89945E+04 -8.49098E+03
 -1.13107E+04 -2.19898E+04  5.75885E+03 -2.62955E+04  1.77519E+04 -1.87753E+04  2.13764E+04 -1.77587E+03
  1.32917E+04  1.50081E+04 -1.34106E+03  2.18834E+04 -1.57149E+04  1.28462E+04 -2.21219E+04 -4.31985E+03
 -1.62228E+04 -1.95528E+04 -2.21025E+03 -2.63316E+04  1.19058E+04 -2.13999E+04  2.20379E+04 -1.11883E+04
  2.08589E+04  3.03041E+02  1.51873E+04  4.78432E+03  8.04838E+03  1.49921E+03  1.13206E+04 -1.97173E+03
  2.07719E+04  2.77331E+03  2.32447E+04  1.73301E+04  1.58191E+04  3.54392E+04 -2.77921E+03  4.11697E+04
 -2.35612E+04  3.41561E+04 -3.91314E+04  1.75821E+04 -4.10688E+04 -3.21028E+03 -3.38693E+04 -2.40360E+04
 -1.35438E+04 -3.40590E+04  1.18982E+04 -3.00823E+04  2.59801E+04 -1.46719E+04  2.29682E+04  7.04084E+03
  7.76720E+03  1.75270E+04 -1.05776E+04  1.43671E+04 -1.88701E+04  2.77982E+03 -1.45920E+04 -1.21047E+04
 -2.65589E+02 -1.83239E+04  1.00323E+04 -1.33851E+04  1.20459E+04 -8.48479E+02  2.78392E+03  8.52153E+03
 -8.40306E+03  3.72969E+03 -8.19823E+03 -6.45456E+03 -1.25532E+03 -1.70292E+04  1.09028E+04 -1.81935E+04
  2.09557E+04 -9.71153E+03  2.36317E+04  3.18713E+03  2.07705E+04  1.67640E+04  9.40181E+03  2.62063E+04
 -5.02054E+03  2.83434E+04 -1.83825E+04  1.75843E+04 -2.03430E+04  3.35552E+03 -1.41475E+04 -5.10067E+03
 -5.92860E+03 -6.87898E+03 -8.74153E+02  5.06331E+02 -2.63632E+03  3.34963E+03 -6.49600E+03  5.31484E+03
 -1.28994E+04 -1.09799E+03 -1.36312E+04 -1.07335E+04 -5.58835E+03 -1.77400E+04  6.01090E+03 -1.45088E+04
  1.17905E+04 -5.84611E+03  8.39044E+03  4.01859E+03 -3.34783E+02  5.91034E+03 -6.92047E+03 -3.11376E+02
 -6.60329E+03 -9.08902E+03 -1.05049E+03 -1.37287E+04  8.47044E+03 -1.43731E+04  1.79947E+04 -7.85688E+03
  2.12656E+04  2.19878E+03  1.55817E+04  1.28329E+04  3.15518E+03  1.66811E+04 -8.78997E+03  1.42531E+04
 -1.15193E+04  4.02578E+03 -5.71251E+03 -2.75245E+03  1.95978E+03 -3.91262E+03  7.54591E+03 -1.16208E+03
  6.66281E+03  6.15090E+03  1.08759E+03  1.15387E+04 -8.17082E+03  1.11153E+04 -1.39856E+04  2.70684E+03
 -9.92977E+03 -7.50532E+03  5.23712E+01 -1.20337E+04  7.78300E+03 -5.88733E+03  8.26926E+03  2.57257E+03
  1.48025E+03  8.54536E+03 -7.48124E+03  1.02230E+04 -1.16857E+04  4.66800E+03 -1.16810E+04 -3.89841E+03
 -6.88382E+03 -1.37813E+04  3.59152E+03 -1.59837E+04  1.35666E+04 -9.35007E+03  1.48313E+04  2.80398E+03
  8.67125E+03  1.16307E+04 -1.15329E+03  1.38889E+04 -1.00283E+04  7.72868E+03 -1.09491E+04 -1.12600E+03
 -9.86180E+03 -9.25651E+03 -1.26786E+03 -1.06427E+04  5.69605E+03 -8.52109E+03  6.43916E+03 -3.58701E+03
  3.99528E+03  1.72877E+03 -1.12564E+03  2.03726E+03 -5.87107E+02 -2.73577E+03  2.28243E+03 -6.23281E+03
  9.62403E+03 -3.84176E+03  1.38136E+04  2.06517E+03  1.35129E+04  9.36069E+03  8.94706E+03  1.81727E+04
 -3.83351E+03  2.03325E+04 -1.73571E+04  1.51720E+04 -2.23629E+04  2.57495E+03 -1.82622E+04 -7.91014E+03
 -9.02307E+03 -1.49931E+04 -7.39950E+02 -1.24360E+04  4.45220E+03 -6.78040E+03  4.20828E+03 -4.64665E+03
  2.92015E+03 -2.77480E+03  3.67027E+03 -3.49540E+03  4.94860E+03 -3.36907E+03  7.11424E+03 -8.27728E+02
  9.32187E+03  1.98765E+03  5.03616E+03  7.94554E+03 -2.14212E+03  9.63461E+03 -9.94414E+03  7.25626E+03
 -1.22870E+04 -1.23117E+03 -7.59509E+03 -8.80305E+03 -9.38193E+02 -1.32593E+04  7.31278E+03 -1.34904E+04
  1.38850E+04 -7.38867E+03  1.66151E+04  1.91863E+03  1.14651E+04  1.15470E+04  1.74220E+03  1.48768E+04
 -6.25484E+03  1.21607E+04 -8.57459E+03  4.47654E+03 -6.16237E+03 -1.59136E+03 -2.37104E+03 -2.10178E+03
 -1.10516E+03  1.33724E+02 -2.36631E+03  2.94927E+03 -5.11838E+03  2.28802E+03 -8.51543E+03 -1.12357E+03
 -5.91793E+03 -8.40975E+03  1.56538E+01 -1.20546E+04  7.34103E+03 -1.13508E+04  1.20347E+04 -2.95856E+03
  1.18253E+04  6.17928E+03  5.40018E+03  1.04798E+04 -2.35498E+03  1.24454E+04 -8.19643E+03  7.95123E+03
 -1.13104E+04  5.19056E+02 -8.95525E+03 -7.43204E+03 -4.86963E+02 -1.00055E+04  5.41810E+03 -7.46902E+03
  7.60002E+03 -2.64127E+03  5.40928E+03  2.08696E+03  1.97867E+03  3.41400E+03  8.82999E+02  1.53882E+03
  2.24986E+03  7.33962E+02  2.82723E+03  1.83893E+03  3.56640E+03  4.09662E+03  3.12625E+03  6.37016E+03
 -2.75101E+03  9.85479E+03 -8.10669E+03  9.79158E+03 -1.18571E+04  2.72058E+03 -1.25987E+04 -4.68624E+03
 -6.00132E+03 -1.17908E+04  1.61414E+03 -1.34249E+04  7.12220E+03 -8.37981E+03  1.00980E+04 -2.54996E+03
  7.67459E+03  4.85532E+03  1.59120E+03  7.04758E+03 -3.95895E+03  4.52895E+03 -4.78830E+03 -4.22574E+02
 -2.51324E+03 -4.93485E+03  2.90811E+03 -4.97793E+03  5.26536E+03 -2.63016E+03  5.14336E+03  1.38801E+03
  2.97570E+03  2.59351E+03  1.42175E+03  1.69027E+03 -7.65653E+02  1.79165E+03  1.56466E+03 -4.51906E+02
  1.77382E+03 -4.93768E+02  5.00212E+03  2.21377E+03  2.79850E+03  6.46111E+03 -8.13123E+02  8.47981E+03
 -5.64667E+03  5.27629E+03 -7.45321E+03  1.35999E+03 -6.53917E+03 -2.51118E+03 -2.64910E+03 -4.56022E+03
  7.37743E+02 -4.78982E+03  3.28293E+03 -2.38246E+03  2.31680E+03  2.70176E+03 -7.16571E+02  3.67137E+03
 -5.16754E+03  1.91227E+03 -5.34273E+03 -2.77908E+03 -3.32924E+03 -6.16414E+03  1.36568E+03 -6.65895E+03
  3.94762E+03 -4.01884E+03  4.86107E+03  3.40229E+01  3.91578E+03  1.85329E+03  8.56198E+02  3.53268E+03
 -2.16126E+03  1.05590E+03 -3.06345E+03 -2.43497E+03  1.11852E+03 -4.74725E+03  6.15005E+03 -3.90699E+03
  7.17999E+03  6.68180E+02  7.28320E+03  5.00238E+03  2.17279E+03  7.66846E+03 -2.43380E+03  7.27428E+03
 -6.03762E+03  2.92843E+03 -6.52368E+03 -9.50778E+02 -3.48462E+03 -5.04482E+03  1.03753E+03 -4.64382E+03
  5.14085E+03 -2.22766E+03  3.80719E+03  1.72626E+03  1.22703E+03  4.49206E+03 -3.92544E+02  3.97285E+03
 -1.62929E+03  2.41477E+03 -2.08359E+03  8.31071E+02 -5.89646E+02  1.15360E+03 -1.38661E+03  1.86577E+03
 -1.93835E+03  3.37297E+03 -5.23668E+03  2.52083E+03 -7.23359E+03 -5.52778E+01 -8.55658E+03 -5.09416E+03
 -4.39684E+03 -1.01134E+04  1.98340E+03 -1.15068E+04  6.99211E+03 -9.00594E+03  1.08850E+04 -3.52846E+03
  9.56052E+03  1.57858E+03  5.67512E+03  6.59526E+03  3.07483E+02  7.75721E+03 -2.89759E+03  5.66450E+03
 -4.18209E+03  2.19242E+03 -2.34540E+03 -1.23180E+03 -9.01959E+02 -6.73675E+02 -8.01686E+02 -8.54226E+01
 -1.20456E+03  2.66393E+02 -1.71348E+03 -4.65548E+02 -8.84340E+02 -1.83185E+03  2.82315E+00 -3.00443E+03
  3.47015E+03 -2.14398E+03  4.45324E+03  4.02590E+01  5.20438E+03  4.32570E+03  8.59129E+02  7.28415E+03
 -3.54116E+03  8.68115E+03 -7.74854E+03  5.12909E+03 -9.22781E+03 -7.58908E+02 -6.61764E+03 -5.41545E+03
 -2.77326E+03 -7.58548E+03  1.72593E+03 -7.02536E+03  4.99506E+03 -3.51946E+03  4.76102E+03  2.27511E+02
  2.88785E+03  2.28972E+03 -1.01176E+02  2.00177E+03 -1.53992E+03 -2.28775E+02 -2.63663E+02 -1.82820E+03
  2.37214E+03 -6.39294E+02  2.74492E+03  9.43415E+02  1.69514E+03  2.73060E+03 -8.01386E+01  3.65433E+03
 -3.13786E+03  3.17775E+03 -5.02408E+03  3.70734E+02 -4.11695E+03 -3.33776E+03 -9.21794E+02 -6.11303E+03
  3.20913E+03 -4.97239E+03  5.64205E+03 -1.63659E+03  5.74533E+03  1.07771E+03  2.92459E+03  4.60545E+03
  6.54937E+02  4.61359E+03 -1.82099E+03  4.26237E+03 -2.99725E+03  2.18921E+03 -2.83033E+03  5.01196E+02
 -1.46817E+03 -3.63821E+01 -1.92194E+03  9.51549E+02 -2.59035E+03  8.23228E+02 -3.62075E+03 -7.18213E+02
 -3.83019E+03 -2.45253E+03 -1.43255E+03 -5.15455E+03  2.30412E+03 -5.34176E+03  4.58322E+03 -2.07716E+03
  4.55870E+03  6.98062E+02  2.34310E+03  2.97341E+03 -1.31702E+02  4.93056E+03 -3.31864E+03  3.18203E+03
