 $NMID ID='MM_0lb_SNR800_18hz_g45_75.RAW', FMTDAT='(8E13.5)'
 TRAMP=1., VOLUME=1. $END
  3.09874E+05  3.56998E+02  3.37305E+05  2.50602E+05  8.42771E+04  3.37410E+05 -1.32605E+05  2.49856E+05
 -1.89721E+05  8.24465E+04 -1.10896E+05 -3.30586E+04  1.31481E+03 -5.03949E+04  5.40718E+04  7.56075E+01
  3.50336E+04  5.31209E+04 -1.70310E+04  7.50355E+04 -6.03760E+04  6.29301E+04 -8.30058E+04  3.14815E+04
 -7.95402E+04 -1.09009E+04 -5.64588E+04 -5.00795E+04 -1.49636E+04 -6.81157E+04  2.69366E+04 -4.48094E+04
  3.91706E+04  4.01590E+03  1.58285E+04  4.71200E+04 -3.40360E+04  4.62807E+04 -6.58556E+04 -5.28113E+02
 -5.19519E+04 -5.61276E+04 -6.29659E+03 -7.52623E+04  3.31875E+04 -5.34778E+04  4.65137E+04 -1.62046E+04
  4.15701E+04  1.13319E+04  3.10573E+04  2.46119E+04  1.57192E+04  2.81246E+04 -4.74852E+03  2.69973E+04
 -2.15491E+04  1.27721E+04 -1.93194E+04 -4.20405E+03  4.26464E+03 -7.47025E+03  2.13883E+04  1.09155E+04
  7.66305E+03  3.32934E+04 -3.06759E+04  3.39139E+04 -6.10705E+04  2.25887E+03 -5.55037E+04 -4.14719E+04
 -1.25285E+04 -6.07368E+04  3.79764E+04 -4.35034E+04  5.54658E+04 -1.71427E+03  3.21850E+04  3.02865E+04
 -6.34196E+03  3.31465E+04 -2.84020E+04  1.33910E+04 -2.76344E+04 -5.43009E+03 -1.44605E+04 -1.01683E+04
 -7.73971E+03 -1.15635E+04 -1.09224E+03 -1.66594E+04  6.84567E+03 -2.24146E+04  1.52105E+04 -1.38419E+04
  1.21078E+04  4.09801E+03 -6.27695E+03  1.28393E+04 -1.93627E+04 -2.56504E+03 -8.05901E+03 -3.05572E+04
  2.08205E+04 -4.08078E+04  4.48380E+04 -1.86667E+04  4.23409E+04  1.84409E+04  1.42296E+04  4.17734E+04
 -1.54306E+04  3.11350E+04 -2.37086E+04  1.04989E+03 -8.33938E+03 -2.67077E+04  2.06991E+04 -3.12347E+04
  3.84358E+04 -7.45833E+03  3.16639E+04  2.26360E+04  1.56597E+04  4.29591E+04 -7.51893E+03  4.53304E+04
 -2.88110E+04  3.01675E+04 -3.74186E+04  8.42190E+03 -3.87015E+04 -1.54219E+04 -2.13753E+04 -3.47030E+04
  6.98093E+03 -3.44088E+04  2.94352E+04 -1.29738E+04  2.68211E+04  1.06222E+04  2.80524E+03  1.77767E+04
 -1.30880E+04  7.01569E+03 -9.88579E+03 -7.42902E+03  5.79161E+03 -9.97711E+03  1.73986E+04  6.50747E+03
  1.23500E+04  2.17712E+04 -6.55631E+03  2.35157E+04 -2.14651E+04  9.43941E+03 -2.51253E+04 -6.23480E+03
 -1.69424E+04 -1.66618E+04 -5.82722E+03 -1.68596E+04  3.74877E+03 -1.49499E+04  1.27147E+04 -1.46800E+04
  2.16316E+04 -1.19888E+04  2.83196E+04  1.19938E+03  2.11986E+04  1.65361E+04  3.98365E+03  3.26610E+04
 -1.61518E+04  2.74771E+04 -2.60169E+04  9.59437E+03 -1.96650E+04 -1.04416E+04 -4.07395E+03 -1.37265E+04
  2.69836E+03 -3.90781E+03 -2.86499E+03  5.26626E+03 -1.29691E+04  5.16571E+03 -1.32751E+04 -5.16640E+03
 -8.75743E+03 -1.55545E+04  4.56706E+03 -1.95749E+04  1.28025E+04 -1.42402E+04  1.46894E+04 -1.28006E+03
  9.30645E+03  1.09722E+04 -9.88629E+02  1.62207E+04 -1.03035E+04  8.92423E+03 -1.55981E+04 -3.47570E+03
 -1.18057E+04 -1.44559E+04 -1.46341E+03 -1.94773E+04  8.74598E+03 -1.55724E+04  1.60878E+04 -7.50433E+03
  1.49402E+04  8.93164E+02  1.06408E+04  4.10447E+03  5.30223E+03  4.72816E+02  7.47733E+03 -1.41042E+03
  1.42163E+04  2.69024E+03  1.48819E+04  1.29460E+04  9.30037E+03  2.47458E+04 -3.16993E+03  2.70896E+04
 -1.61807E+04  2.07551E+04 -2.47977E+04  1.00181E+04 -2.54848E+04 -1.61322E+03 -2.19742E+04 -1.44160E+04
 -1.02148E+04 -2.08044E+04  7.19114E+03 -1.93887E+04  1.68446E+04 -1.11893E+04  1.58464E+04  3.70874E+03
  6.73730E+03  1.13802E+04 -7.26902E+03  1.06328E+04 -1.33364E+04  2.76204E+03 -1.05091E+04 -8.06725E+03
  1.05589E+01 -1.26031E+04  6.08995E+03 -9.50676E+03  8.09680E+03 -1.40888E+03  1.18583E+03  5.02456E+03
 -5.66503E+03  1.58733E+03 -3.74270E+03 -5.02970E+03  5.52876E+02 -1.02868E+04  8.18264E+03 -1.05223E+04
  1.27288E+04 -4.90102E+03  1.20679E+04  2.62160E+03  1.08708E+04  9.65355E+03  5.02720E+03  1.46480E+04
 -1.54843E+03  1.63315E+04 -9.79898E+03  1.03292E+04 -1.15560E+04  2.92394E+03 -8.51539E+03 -1.98842E+03
 -4.37711E+03 -3.08179E+03 -1.02435E+03  1.35249E+03 -2.04294E+03  2.16447E+03 -3.86267E+03  3.92112E+03
 -8.30187E+03 -5.63236E+02 -8.96907E+03 -7.24376E+03 -3.61896E+03 -1.12833E+04  3.65013E+03 -8.62430E+03
  7.52354E+03 -3.76342E+03  5.35098E+03  1.85135E+03  5.11416E+02  3.10895E+03 -3.77400E+03 -1.72954E+02
 -3.28682E+03 -5.25272E+03 -4.42526E+02 -7.51342E+03  4.14391E+03 -8.44931E+03  1.01998E+04 -4.26504E+03
  1.20036E+04  7.17669E+02  9.00205E+03  6.22683E+03  1.96949E+03  8.74216E+03 -5.31350E+03  8.51893E+03
 -6.95288E+03  2.85768E+03 -3.51712E+03 -1.26898E+03  1.33221E+03 -1.99445E+03  4.91880E+03 -1.05093E+03
  4.40428E+03  3.47743E+03  1.20245E+03  6.48346E+03 -4.47847E+03  6.52796E+03 -7.96669E+03  1.76126E+03
 -5.11754E+03 -3.70630E+03  3.82703E+02 -6.72994E+03  3.86573E+03 -3.51312E+03  3.67818E+03  4.93794E+02
  6.55667E+02  3.59393E+03 -4.24118E+03  4.91421E+03 -5.12382E+03  2.47082E+03 -4.57657E+03 -1.47370E+03
 -2.95246E+03 -6.25780E+03  1.61647E+03 -7.13529E+03  6.19969E+03 -4.60840E+03  6.95295E+03  1.14244E+03
  5.20069E+03  5.79410E+03  4.90011E+01  7.56288E+03 -5.04693E+03  4.51737E+03 -5.39857E+03 -4.69659E+02
 -6.12113E+03 -5.15786E+03 -1.37362E+03 -5.36772E+03  2.69901E+03 -5.03548E+03  2.90135E+03 -2.82937E+03
  2.93072E+03  1.38267E+02  4.89383E+01  1.02347E+03  2.49384E+02 -1.18934E+02  9.43183E+01 -1.93406E+03
  3.79843E+03 -7.09699E+02  5.21784E+03  4.52042E+02  6.01219E+03  3.10600E+03  5.25763E+03  7.15777E+03
 -1.25834E+03  8.87569E+03 -8.31298E+03  6.70808E+03 -1.03337E+04  1.17937E+03 -7.82881E+03 -2.73736E+03
 -4.48075E+03 -6.57760E+03 -2.45743E+02 -5.43241E+03  2.12537E+03 -2.28839E+03  1.71869E+03 -1.83336E+03
  1.24105E+03 -1.59640E+03  2.00273E+03 -2.31349E+03  3.43916E+03 -1.42277E+03  3.64190E+03  3.62392E+02
  4.73073E+03  1.41648E+03  1.18122E+03  3.48442E+03 -1.55583E+03  3.21430E+03 -4.60917E+03  2.64530E+03
 -5.19311E+03 -1.28731E+03 -1.99172E+03 -3.42968E+03  3.52183E+02 -5.06912E+03  3.48308E+03 -5.67152E+03
  5.37384E+03 -3.44301E+03  6.86355E+03 -1.39732E+01  5.13236E+03  4.48753E+03  1.31428E+03  6.41146E+03
 -2.35972E+03  5.82334E+03 -3.25417E+03  2.09277E+03 -1.97336E+03 -1.13840E+03 -6.13814E+02 -4.22198E+02
 -5.59654E+02  4.65923E+02 -8.58151E+02  1.99915E+03 -2.57499E+03  9.95967E+02 -3.94917E+03 -5.66333E+02
 -1.71953E+03 -4.20003E+03  9.15819E+02 -4.67835E+03  2.93738E+03 -4.79312E+03  3.73336E+03 -1.45605E+03
  4.36529E+03  2.77151E+03  1.82971E+03  3.40760E+03 -7.27698E+02  4.55198E+03 -2.83601E+03  2.68237E+03
 -4.10062E+03  7.81583E+02 -3.50626E+03 -2.72073E+03 -1.42779E+02 -3.25557E+03  1.86062E+03 -2.45857E+03
  2.76935E+03 -1.26575E+03  2.05068E+03  4.14291E+02  6.14447E+02  1.75847E+03  9.88543E+02  5.16896E+02
  1.44860E+03  2.31670E+02  1.21597E+03  9.60807E+02  1.32362E+03  2.03207E+03  1.14043E+03  1.86270E+03
 -1.30917E+03  3.15849E+03 -2.87648E+03  4.08466E+03 -3.25257E+03  1.26652E+03 -4.46200E+03 -2.97108E+02
 -2.01147E+03 -3.95750E+03  5.94144E+02 -4.77545E+03  2.29514E+03 -2.86300E+03  3.46860E+03 -8.66566E+02
  2.68578E+03  1.41026E+03  4.06700E+02  2.57780E+03 -6.24917E+02  1.22306E+03 -1.10530E+03 -6.61925E+01
 -8.79106E+02 -1.90191E+03  1.29469E+03 -1.42779E+03  1.35011E+03 -1.29589E+03  1.29294E+03  4.18919E+02
  7.64620E+02  2.29842E+02  8.68419E+02 -1.00371E+02 -4.16023E+02  5.87649E+02  1.32142E+03 -1.33294E+02
  1.17180E+02 -2.28622E+02  2.03901E+03  6.96907E+02  4.36431E+02  2.51420E+03 -2.53932E+02  2.94683E+03
 -1.72056E+03  1.28496E+03 -2.25494E+03  2.86668E+02 -1.85558E+03 -7.96351E+02 -1.97569E+02 -1.07720E+03
  5.91838E+02 -1.25674E+03  9.47815E+02 -1.04406E+03  6.65618E+02  1.30541E+03 -4.69947E+02  1.45937E+03
 -1.41475E+03  7.83291E+02 -1.36063E+03 -1.18549E+03 -7.59832E+02 -2.38359E+03  2.98930E+02 -1.86831E+03
  3.60827E+02 -2.82740E+02  1.14433E+03  1.27583E+02  1.29469E+03 -1.59236E+02  2.70358E+02  9.93370E+02
 -2.48488E+02 -1.68386E+02 -9.11070E+02 -2.64621E+02  4.13427E+02 -1.06174E+03  1.72399E+03 -1.02519E+03
  1.31899E+03  1.29895E+02  2.98767E+03  9.63875E+02  1.19472E+03  1.83439E+03 -5.32590E+02  2.29749E+03
 -1.59235E+03  2.89554E+02 -1.59812E+03 -2.05082E+02 -1.19392E+03 -1.50856E+03  2.53271E+02 -6.45269E+02
  1.38421E+03 -7.72403E+02  7.72850E+02  8.83639E+02  1.49112E+00  1.52242E+03  1.04687E+02  1.24639E+03
 -5.28361E+02  1.20905E+03 -5.91104E+02  3.78256E+02 -2.81477E+02  4.65275E+02 -1.00270E+03  5.30620E+02
 -8.22304E+02  9.52409E+02 -1.85808E+03  7.41739E+02 -1.78727E+03  2.64672E+02 -2.71953E+03 -9.00239E+02
 -1.24739E+03 -2.77342E+03  9.20356E+02 -2.79820E+03  1.31015E+03 -2.57272E+03  3.02680E+03 -1.48974E+03
  2.53349E+03 -2.67818E+02  1.31895E+03  1.73317E+03 -3.81890E+02  1.72441E+03 -7.90914E+02  1.41662E+03
 -7.79971E+02  6.84379E+02 -7.01374E+02  1.53524E+01 -5.70220E+02  5.11210E+01 -2.90538E+02  1.42838E+01
 -1.29578E+03 -5.10060E+00 -7.03005E+02  1.34729E+02  2.95875E+02 -6.56072E+02 -5.04700E+02 -8.81504E+02
  1.39444E+03 -7.46595E+02  3.39900E+02  1.32205E+02  1.16987E+03  8.21783E+02 -5.16777E+02  1.66383E+03
 -9.79464E+02  2.67533E+03 -2.06300E+03  1.53080E+03 -1.80704E+03 -3.13524E+02 -1.28552E+03 -1.49775E+03
 -7.12368E+02 -1.59731E+03  6.05920E+02 -1.36322E+03  6.14825E+02 -9.81737E+02  8.72751E+02  9.34198E+01
  7.31093E+02  1.70764E+02  1.89018E+02  5.12572E+02 -3.48981E+02 -1.11899E+02 -4.30686E+02 -2.77600E+02
  3.91438E+02  2.62988E+02  5.76485E+02  3.88309E+02  1.86298E+02  4.68915E+02  4.38902E+02  5.07464E+02
 -6.34765E+02  9.00927E+02 -6.62584E+02 -2.60540E+01 -9.51236E+02 -6.44174E+02 -9.10984E+01 -1.12397E+03
  5.40866E+02 -8.18077E+02  6.00093E+02  9.56528E+01  6.59767E+02 -6.53409E+02  6.87747E+02  5.08420E+02
  3.67048E+02  7.15919E+02 -3.07755E+02  7.38696E+02 -5.31226E+02  6.84143E+02 -3.30730E+02  1.73768E+01
  1.63397E+02 -2.42636E+01 -5.93459E+02 -1.84828E+02 -8.99640E+02 -4.81747E+01 -7.95063E+02 -5.96685E+02
 -9.85155E+02  1.33303E+02 -5.59044E+02 -1.17139E+03  4.25938E+02 -1.70602E+03  7.33735E+02 -5.61296E+02
  9.59950E+02  1.28523E+01 -1.70735E+02  3.23779E+02 -1.25758E+02  1.12199E+03 -4.82582E+02  6.61583E+02
