 $NMID ID='MM_0lb_SNR800_15hz_g60_10.RAW', FMTDAT='(8E13.5)'
 TRAMP=1., VOLUME=1. $END
  3.09803E+05  4.02119E+02  3.37877E+05  2.50745E+05  8.48392E+04  3.38242E+05 -1.32762E+05  2.51061E+05
 -1.90551E+05  8.32939E+04 -1.12340E+05 -3.23872E+04  8.60223E+02 -5.06578E+04  5.39607E+04 -3.39857E+02
  3.53299E+04  5.24217E+04 -1.67013E+04  7.55388E+04 -6.07251E+04  6.35505E+04 -8.46769E+04  3.18405E+04
 -8.13673E+04 -1.14916E+04 -5.74649E+04 -5.13616E+04 -1.49330E+04 -7.01176E+04  2.73975E+04 -4.57412E+04
  4.01662E+04  3.78486E+03  1.66617E+04  4.81686E+04 -3.46479E+04  4.74330E+04 -6.70798E+04 -1.87224E+01
 -5.38456E+04 -5.70711E+04 -7.00508E+03 -7.72401E+04  3.39772E+04 -5.53020E+04  4.79766E+04 -1.75544E+04
  4.37067E+04  1.10917E+04  3.19036E+04  2.56350E+04  1.59838E+04  2.95867E+04 -5.24829E+03  2.74532E+04
 -2.21651E+04  1.23166E+04 -1.85198E+04 -5.16907E+03  6.08891E+03 -7.30562E+03  2.26632E+04  1.26605E+04
  7.39762E+03  3.57138E+04 -3.22594E+04  3.59592E+04 -6.38724E+04  1.66792E+03 -5.74440E+04 -4.33331E+04
 -1.23648E+04 -6.36041E+04  4.01669E+04 -4.56131E+04  5.88686E+04 -2.21712E+03  3.44397E+04  3.31557E+04
 -6.09141E+03  3.67125E+04 -3.00199E+04  1.66629E+04 -3.06787E+04 -4.29982E+03 -1.73155E+04 -1.11284E+04
 -8.52752E+03 -1.35193E+04 -7.40340E+02 -1.83696E+04  7.64277E+03 -2.34158E+04  1.56350E+04 -1.31801E+04
  1.10654E+04  5.64104E+03 -8.81539E+03  1.31063E+04 -2.18327E+04 -4.75613E+03 -8.35316E+03 -3.45490E+04
  2.31471E+04 -4.42128E+04  4.88520E+04 -1.97009E+04  4.53433E+04  1.97932E+04  1.58621E+04  4.48725E+04
 -1.58943E+04  3.39462E+04 -2.56641E+04  1.84430E+03 -1.04558E+04 -2.84277E+04  2.11758E+04 -3.42692E+04
  4.16238E+04 -9.41644E+03  3.63476E+04  2.39185E+04  1.90200E+04  4.71662E+04 -8.04000E+03  5.14889E+04
 -3.18382E+04  3.45406E+04 -4.28135E+04  9.64898E+03 -4.33842E+04 -1.70996E+04 -2.38494E+04 -3.83936E+04
  7.65368E+03 -3.82970E+04  3.19125E+04 -1.52141E+04  2.95688E+04  1.10843E+04  4.39614E+03  1.95042E+04
 -1.36058E+04  8.46037E+03 -1.03187E+04 -7.88550E+03  5.74171E+03 -1.08355E+04  1.80355E+04  5.81954E+03
  1.34824E+04  2.24684E+04 -6.06053E+03  2.53302E+04 -2.27177E+04  1.18905E+04 -2.86192E+04 -4.57815E+03
 -2.12813E+04 -1.72869E+04 -8.71547E+03 -2.12275E+04  4.28601E+03 -2.05142E+04  1.63195E+04 -1.90712E+04
  2.69491E+04 -1.31448E+04  3.30762E+04  2.83715E+03  2.41562E+04  2.02796E+04  4.19153E+03  3.68139E+04
 -1.80988E+04  3.09228E+04 -2.81661E+04  1.04570E+04 -2.14169E+04 -1.03476E+04 -4.57604E+03 -1.31730E+04
  1.67036E+03 -2.66370E+03 -5.00595E+03  6.50109E+03 -1.67748E+04  5.19481E+03 -1.66780E+04 -7.31502E+03
 -1.05396E+04 -1.93134E+04  5.15612E+03 -2.34320E+04  1.53333E+04 -1.69526E+04  1.83044E+04 -1.51571E+03
  1.16887E+04  1.35024E+04 -1.02505E+03  1.94476E+04 -1.32761E+04  1.10176E+04 -1.95183E+04 -4.27878E+03
 -1.44123E+04 -1.75016E+04 -1.89199E+03 -2.33127E+04  1.05455E+04 -1.89952E+04  1.93028E+04 -9.53170E+03
  1.79420E+04  3.19394E+02  1.32505E+04  4.34605E+03  7.27585E+03  8.18467E+02  9.59140E+03 -1.58984E+03
  1.77457E+04  2.92867E+03  2.01511E+04  1.53892E+04  1.30840E+04  3.07672E+04 -2.61507E+03  3.46543E+04
 -2.02253E+04  2.83183E+04 -3.26376E+04  1.41279E+04 -3.40347E+04 -2.78289E+03 -2.83197E+04 -1.99509E+04
 -1.21052E+04 -2.83650E+04  9.38562E+03 -2.53070E+04  2.18968E+04 -1.30396E+04  1.95261E+04  5.43026E+03
  7.26558E+03  1.43558E+04 -9.20984E+03  1.25359E+04 -1.64573E+04  2.66958E+03 -1.24697E+04 -1.01292E+04
 -2.26031E+02 -1.56977E+04  8.11914E+03 -1.17558E+04  1.04421E+04 -1.21582E+03  2.61477E+03  6.60083E+03
 -6.88850E+03  2.80841E+03 -6.22762E+03 -5.35729E+03 -1.54130E+02 -1.39676E+04  9.44909E+03 -1.44717E+04
  1.67445E+04 -7.57476E+03  1.83575E+04  3.27956E+03  1.56865E+04  1.32412E+04  7.47287E+03  2.05667E+04
 -3.58487E+03  2.22061E+04 -1.46147E+04  1.41412E+04 -1.64659E+04  3.56637E+03 -1.16712E+04 -3.41734E+03
 -5.12332E+03 -5.08424E+03 -5.94516E+02  1.15943E+03 -2.19014E+03  2.65340E+03 -5.40358E+03  4.31030E+03
 -1.09549E+04 -7.89430E+02 -1.12377E+04 -9.15118E+03 -4.17177E+03 -1.49762E+04  4.60460E+03 -1.19290E+04
  9.79662E+03 -4.84750E+03  6.84086E+03  3.06002E+03  1.81000E+02  4.38367E+03 -5.60997E+03 -7.60521E+01
 -5.04156E+03 -7.15612E+03 -1.02564E+03 -1.08122E+04  6.13652E+03 -1.14909E+04  1.39851E+04 -6.09307E+03
  1.63599E+04  1.15931E+03  1.21502E+04  9.29140E+03  2.52568E+03  1.30480E+04 -6.74449E+03  1.11716E+04
 -9.20229E+03  3.58568E+03 -4.34465E+03 -2.00058E+03  1.67509E+03 -2.80532E+03  6.15449E+03 -7.93997E+02
  5.34420E+03  5.09026E+03  1.08873E+03  8.85544E+03 -6.30417E+03  8.80652E+03 -1.09325E+04  2.27736E+03
 -7.54795E+03 -5.59016E+03  5.58611E+02 -9.23924E+03  5.58463E+03 -4.83098E+03  5.81081E+03  2.01724E+03
  9.18590E+02  6.09810E+03 -5.79029E+03  7.69547E+03 -7.97950E+03  3.44151E+03 -8.15588E+03 -2.60056E+03
 -4.97384E+03 -9.97663E+03  2.26643E+03 -1.12561E+04  9.63683E+03 -7.00027E+03  1.04189E+04  1.69038E+03
  6.62154E+03  8.45097E+03 -4.76650E+02  1.04536E+04 -7.52858E+03  5.72630E+03 -7.84297E+03 -5.05289E+02
 -7.70459E+03 -7.11229E+03 -1.49269E+03 -7.58338E+03  3.74549E+03 -6.49775E+03  4.68164E+03 -3.42962E+03
  3.61368E+03  8.58408E+02 -5.68544E+01  1.66376E+03 -2.49919E+01 -1.72346E+03  1.01612E+03 -3.79782E+03
  6.74404E+03 -2.11859E+03  9.45634E+03  1.21486E+03  9.02812E+03  6.15781E+03  7.02794E+03  1.19370E+04
 -2.40299E+03  1.40310E+04 -1.20088E+04  1.03300E+04 -1.55447E+04  1.89794E+03 -1.22263E+04 -4.62049E+03
 -6.24182E+03 -1.01114E+04 -4.22905E+02 -8.40686E+03  3.07338E+03 -4.12841E+03  2.98376E+03 -3.24236E+03
  1.87099E+03 -2.05180E+03  2.56701E+03 -2.73595E+03  4.52176E+03 -2.43323E+03  5.23024E+03  4.52560E+01
  6.59352E+03  1.50005E+03  2.59274E+03  5.39091E+03 -1.90800E+03  5.85953E+03 -6.95212E+03  4.49329E+03
 -8.26597E+03 -9.61966E+02 -4.54704E+03 -5.57232E+03  1.87027E+02 -8.62632E+03  4.73495E+03 -8.48893E+03
  8.79181E+03 -5.03678E+03  1.08612E+04  1.15618E+03  8.02022E+03  7.22425E+03  1.55381E+03  9.89321E+03
 -3.95206E+03  8.57400E+03 -5.40095E+03  3.23586E+03 -3.69755E+03 -1.38203E+03 -1.60235E+03 -1.02012E+03
 -1.01977E+03  3.56719E+01 -1.48404E+03  2.18943E+03 -3.38013E+03  1.35335E+03 -5.87487E+03 -6.47204E+02
 -3.32894E+03 -6.22889E+03  3.52080E+02 -7.79292E+03  4.72785E+03 -6.88540E+03  6.52206E+03 -1.96229E+03
  7.49615E+03  3.79026E+03  3.37129E+03  6.07978E+03 -1.47258E+03  7.80230E+03 -5.04395E+03  4.74017E+03
 -6.93214E+03  4.18564E+02 -5.46570E+03 -4.70637E+03 -6.58257E+02 -5.80242E+03  2.94729E+03 -4.21298E+03
  4.50335E+03 -1.86304E+03  3.01021E+03  1.08110E+03  1.05914E+03  2.86163E+03  8.61679E+02  1.30896E+03
  1.91107E+03  5.85746E+02  1.85547E+03  1.30478E+03  2.11106E+03  3.33536E+03  2.04209E+03  3.53691E+03
 -1.93126E+03  5.39333E+03 -4.54125E+03  6.25976E+03 -6.98913E+03  1.58438E+03 -7.53557E+03 -2.34140E+03
 -3.22197E+03 -7.04073E+03  6.97226E+02 -8.03007E+03  4.09129E+03 -4.84984E+03  5.85650E+03 -1.45111E+03
  4.40111E+03  2.76996E+03  8.32840E+02  4.26524E+03 -1.71805E+03  2.57078E+03 -2.36274E+03 -4.69108E+02
 -1.24924E+03 -3.18081E+03  1.46002E+03 -3.00928E+03  2.52640E+03 -1.61831E+03  2.82494E+03  6.45946E+02
  1.37970E+03  1.21551E+03  1.07579E+03  2.91056E+02 -7.16757E+00  1.22036E+03  1.71561E+03 -2.34413E+02
  6.84675E+02 -2.34238E+02  2.96533E+03  1.04709E+03  1.27789E+03  3.90965E+03 -5.30278E+02  4.90389E+03
 -3.32575E+03  2.73354E+03 -4.29986E+03  9.46488E+02 -3.80871E+03 -1.40067E+03 -1.05392E+03 -1.94276E+03
  6.31183E+02 -2.27616E+03  1.97097E+03 -1.23161E+03  1.35454E+03  1.60360E+03 -8.34751E+02  2.08058E+03
 -2.98395E+03  1.25863E+03 -2.67561E+03 -1.91298E+03 -1.36974E+03 -3.74894E+03  3.27560E+02 -3.43844E+03
  1.88376E+03 -1.63408E+03  2.19307E+03  1.28699E+02  2.00042E+03  6.09723E+02  6.63797E+02  1.85108E+03
 -9.23472E+02  4.92357E+02 -1.72462E+03 -8.54660E+02  8.99098E+02 -2.30671E+03  3.06698E+03 -1.98113E+03
  3.39044E+03  2.00769E+02  4.40863E+03  2.21446E+03  1.29190E+03  3.72077E+03 -9.94153E+02  3.28263E+03
 -2.89213E+03  1.07561E+03 -2.97246E+03 -5.36664E+02 -1.76411E+03 -2.52293E+03  7.11683E+02 -1.56600E+03
  2.43089E+03 -1.18380E+03  1.97912E+03  1.12837E+03  6.19102E+02  2.36656E+03 -1.84944E+02  1.75671E+03
 -7.98473E+02  1.43880E+03 -9.36853E+02  3.75886E+02 -1.95684E+02  5.63815E+02 -8.11640E+02  7.37310E+02
 -5.71567E+02  1.70165E+03 -3.14760E+03  1.27200E+03 -3.56447E+03 -1.33326E+02 -4.42401E+03 -2.20172E+03
 -1.94268E+03 -4.61667E+03  1.44807E+03 -5.29533E+03  2.81216E+03 -4.61240E+03  5.41851E+03 -1.64070E+03
  4.50433E+03  8.11959E+02  2.62107E+03  3.03245E+03 -2.28413E+02  3.40654E+03 -1.35292E+03  2.62447E+03
 -2.14260E+03  1.11952E+03 -9.68900E+02 -4.19351E+02 -8.23238E+02 -3.86745E+01 -5.92711E+02  2.39424E+02
 -1.25288E+03 -4.78889E+01 -1.16385E+03  1.78720E+02 -4.08548E+02 -1.25312E+03 -1.38931E+01 -1.44316E+03
  1.83590E+03 -1.22356E+03  1.65765E+03  2.83805E+02  2.47002E+03  1.70497E+03  3.02626E-01  3.04994E+03
 -1.70979E+03  4.36377E+03 -3.51045E+03  1.99003E+03 -3.82042E+03 -4.32099E+02 -2.70684E+03 -2.33058E+03
 -1.77667E+03 -3.13320E+03  7.75520E+02 -2.88826E+03  1.82816E+03 -1.19272E+03  2.14960E+03  3.17125E+02
  1.41064E+03  1.02105E+03  8.29804E+01  1.12390E+03 -6.32905E+02 -3.32098E+02  1.66000E+02 -8.73848E+02
  1.18577E+03 -9.82476E+01  1.00268E+03  6.55732E+02  8.18041E+02  8.75167E+02  1.81468E+02  1.41413E+03
 -1.19858E+03  1.39198E+03 -1.91240E+03  2.02623E+02 -1.91313E+03 -1.32167E+03 -2.31897E+02 -2.53327E+03
  1.10032E+03 -1.82755E+03  1.83031E+03 -1.32514E+02  2.07288E+03 -1.15799E+02  1.09786E+03  1.69608E+03
  3.92482E+02  1.63971E+03 -7.25945E+02  1.39097E+03 -1.31577E+03  1.00259E+03 -9.12883E+02  1.06806E+02
 -4.82353E+02  1.22300E+02 -7.41576E+02  1.11239E+02 -1.33682E+03  1.04219E+01 -1.61847E+03 -2.43117E+02
 -1.92342E+03 -3.90923E+02 -8.36496E+02 -2.06061E+03  1.18204E+03 -2.87433E+03  1.79441E+03 -7.11803E+02
  1.83256E+03  3.01939E+02  3.25739E+02  8.11462E+02 -1.07824E+02  1.77514E+03 -1.02464E+03  1.71146E+03
