 $NMID ID='MM_0lb_SNR800_12hz_g40_81.RAW', FMTDAT='(8E13.5)'
 TRAMP=1., VOLUME=1. $END
  3.09830E+05  4.96204E+02  3.37842E+05  2.50648E+05  8.45803E+04  3.38176E+05 -1.32617E+05  2.51422E+05
 -1.90186E+05  8.34163E+04 -1.11498E+05 -3.27129E+04  6.89154E+02 -5.06993E+04  5.40725E+04  1.43021E+02
  3.55257E+04  5.29189E+04 -1.70299E+04  7.56537E+04 -6.09749E+04  6.35940E+04 -8.41557E+04  3.17966E+04
 -8.09126E+04 -1.14090E+04 -5.70881E+04 -5.17206E+04 -1.52077E+04 -6.94274E+04  2.73221E+04 -4.61259E+04
  4.04215E+04  4.01496E+03  1.63384E+04  4.77572E+04 -3.43379E+04  4.72672E+04 -6.73205E+04 -4.74409E+02
 -5.35863E+04 -5.68382E+04 -6.63224E+03 -7.70937E+04  3.42634E+04 -5.53541E+04  4.83469E+04 -1.75425E+04
  4.36932E+04  1.12837E+04  3.20293E+04  2.57319E+04  1.59990E+04  2.96489E+04 -5.12707E+03  2.69537E+04
 -2.22027E+04  1.22929E+04 -1.84526E+04 -5.38016E+03  6.01265E+03 -7.43255E+03  2.23372E+04  1.28816E+04
  7.44199E+03  3.54978E+04 -3.23411E+04  3.58892E+04 -6.40775E+04  2.07307E+03 -5.73562E+04 -4.29642E+04
 -1.24771E+04 -6.35385E+04  4.01078E+04 -4.58057E+04  5.89416E+04 -2.24689E+03  3.44114E+04  3.29353E+04
 -6.11823E+03  3.68263E+04 -3.02210E+04  1.63869E+04 -3.11326E+04 -4.26137E+03 -1.70621E+04 -1.10038E+04
 -8.33539E+03 -1.35911E+04 -7.80820E+02 -1.84700E+04  7.65685E+03 -2.28699E+04  1.52569E+04 -1.31969E+04
  1.15977E+04  5.48114E+03 -8.57250E+03  1.29185E+04 -2.13286E+04 -4.78490E+03 -8.01684E+03 -3.43236E+04
  2.32084E+04 -4.40648E+04  4.88597E+04 -1.98211E+04  4.56718E+04  1.94420E+04  1.61032E+04  4.45154E+04
 -1.60988E+04  3.38040E+04 -2.56674E+04  1.99761E+03 -1.00277E+04 -2.83851E+04  2.11653E+04 -3.45188E+04
  4.17036E+04 -9.68277E+03  3.62623E+04  2.40751E+04  1.87763E+04  4.73934E+04 -8.07582E+03  5.12222E+04
 -3.23128E+04  3.44645E+04 -4.31522E+04  1.00963E+04 -4.37639E+04 -1.75412E+04 -2.38655E+04 -3.86452E+04
  7.51619E+03 -3.88210E+04  3.22360E+04 -1.50384E+04  2.97287E+04  1.11686E+04  4.00550E+03  1.93919E+04
 -1.39164E+04  8.64479E+03 -1.06982E+04 -7.64527E+03  5.59844E+03 -1.09195E+04  1.81508E+04  5.71805E+03
  1.38563E+04  2.19421E+04 -5.89876E+03  2.55069E+04 -2.26263E+04  1.18976E+04 -2.88314E+04 -4.62868E+03
 -2.17743E+04 -1.75611E+04 -9.06437E+03 -2.15642E+04  3.85944E+03 -2.08147E+04  1.63758E+04 -1.93401E+04
  2.74746E+04 -1.28617E+04  3.36867E+04  3.31730E+03  2.43587E+04  2.09513E+04  4.34904E+03  3.73489E+04
 -1.82072E+04  3.12648E+04 -2.84511E+04  1.04277E+04 -2.12378E+04 -1.00146E+04 -4.38120E+03 -1.30920E+04
  1.77227E+03 -2.48592E+03 -5.73258E+03  7.05805E+03 -1.70686E+04  5.21073E+03 -1.69387E+04 -7.42934E+03
 -1.03688E+04 -2.00055E+04  5.26460E+03 -2.40091E+04  1.61698E+04 -1.74122E+04  1.89166E+04 -1.78955E+03
  1.20813E+04  1.36848E+04 -1.00253E+03  1.96553E+04 -1.37806E+04  1.13684E+04 -2.01932E+04 -4.50185E+03
 -1.48813E+04 -1.80274E+04 -1.66388E+03 -2.41713E+04  1.09387E+04 -1.96107E+04  2.02362E+04 -9.31505E+03
  1.87423E+04  2.23458E+02  1.32723E+04  4.56509E+03  7.40485E+03  1.10781E+03  1.00779E+04 -1.20100E+03
  1.85336E+04  2.57265E+03  2.05210E+04  1.57608E+04  1.37446E+04  3.17407E+04 -2.89722E+03  3.61136E+04
 -2.07855E+04  2.93884E+04 -3.39262E+04  1.46462E+04 -3.60128E+04 -2.37595E+03 -2.94487E+04 -2.08046E+04
 -1.22435E+04 -2.90941E+04  1.04106E+04 -2.61971E+04  2.30205E+04 -1.33811E+04  2.01047E+04  5.80848E+03
  7.53433E+03  1.50992E+04 -9.62415E+03  1.34913E+04 -1.72074E+04  2.67364E+03 -1.29402E+04 -1.06776E+04
 -6.19361E+01 -1.63578E+04  8.47963E+03 -1.25459E+04  1.06775E+04 -1.31959E+03  2.82556E+03  7.03312E+03
 -7.37135E+03  2.54879E+03 -6.64121E+03 -6.16234E+03 -9.05869E+02 -1.49111E+04  9.97720E+03 -1.53319E+04
  1.83745E+04 -8.21140E+03  1.94439E+04  2.93371E+03  1.70087E+04  1.41926E+04  7.68894E+03  2.22694E+04
 -3.84688E+03  2.42489E+04 -1.57300E+04  1.52371E+04 -1.73971E+04  3.57112E+03 -1.21769E+04 -3.89509E+03
 -5.42550E+03 -5.94038E+03 -1.07151E+03  9.76626E+02 -2.75910E+03  3.08790E+03 -5.50312E+03  4.33702E+03
 -1.15225E+04 -7.87574E+02 -1.21078E+04 -9.64720E+03 -4.88796E+03 -1.62087E+04  4.98505E+03 -1.22924E+04
  1.05157E+04 -5.21878E+03  7.68082E+03  3.18894E+03  5.82005E+01  4.67533E+03 -5.91078E+03 -1.75538E+02
 -5.90883E+03 -7.59156E+03 -1.06653E+03 -1.17580E+04  6.78610E+03 -1.24298E+04  1.52519E+04 -6.65899E+03
  1.83146E+04  1.65151E+03  1.31553E+04  1.06559E+04  2.28934E+03  1.45525E+04 -7.58966E+03  1.24864E+04
 -9.79624E+03  3.61767E+03 -5.12665E+03 -2.47211E+03  1.74537E+03 -3.05672E+03  6.59778E+03 -8.41929E+02
  5.83398E+03  5.60194E+03  1.33626E+03  9.71694E+03 -6.64717E+03  9.13501E+03 -1.19203E+04  2.35301E+03
 -8.20290E+03 -6.19437E+03  1.75599E+02 -1.02790E+04  6.61350E+03 -5.37683E+03  7.04796E+03  2.19545E+03
  1.18532E+03  6.97961E+03 -6.21376E+03  8.16561E+03 -9.60729E+03  4.11809E+03 -9.41910E+03 -3.26115E+03
 -5.46633E+03 -1.13697E+04  2.56447E+03 -1.29388E+04  1.10018E+04 -7.64035E+03  1.15261E+04  2.30527E+03
  7.42112E+03  9.62080E+03 -7.27240E+02  1.16258E+04 -8.66155E+03  7.10493E+03 -9.19311E+03 -8.67877E+02
 -8.50978E+03 -7.88738E+03 -1.36279E+03 -8.54786E+03  4.27475E+03 -7.31199E+03  5.55735E+03 -3.23885E+03
  3.77586E+03  1.12028E+03 -7.07607E+02  1.75473E+03 -2.98553E+02 -2.07509E+03  1.21207E+03 -4.66753E+03
  8.21154E+03 -2.84093E+03  1.12064E+04  1.31456E+03  1.09175E+04  7.26657E+03  7.66656E+03  1.46098E+04
 -3.27211E+03  1.68510E+04 -1.43310E+04  1.23463E+04 -1.79145E+04  2.23450E+03 -1.44387E+04 -5.95432E+03
 -7.19031E+03 -1.18723E+04 -3.60221E+02 -1.00015E+04  3.30062E+03 -5.18804E+03  3.48346E+03 -3.83910E+03
  2.67508E+03 -2.01083E+03  3.21544E+03 -3.02864E+03  4.77030E+03 -2.82045E+03  6.06363E+03 -4.89604E+02
  7.68296E+03  1.73360E+03  3.37009E+03  6.59478E+03 -2.01031E+03  6.77171E+03 -7.88273E+03  5.98342E+03
 -9.90566E+03 -1.27744E+03 -5.86362E+03 -7.19093E+03 -6.39280E+02 -1.07462E+04  5.91245E+03 -1.07305E+04
  1.08676E+04 -6.12371E+03  1.33134E+04  1.40269E+03  9.54707E+03  9.27435E+03  1.67283E+03  1.20138E+04
 -4.91883E+03  1.02749E+04 -6.87588E+03  3.50359E+03 -4.65632E+03 -1.44589E+03 -2.01723E+03 -1.17729E+03
 -6.03307E+02  3.56037E+01 -1.96743E+03  2.13331E+03 -4.31675E+03  1.73236E+03 -7.22366E+03 -8.11234E+02
 -4.19159E+03 -6.89397E+03  3.42488E+02 -9.64388E+03  5.67874E+03 -9.16293E+03  9.33063E+03 -2.73605E+03
  9.49524E+03  4.83279E+03  4.47956E+03  8.34859E+03 -1.88512E+03  9.79404E+03 -6.63453E+03  6.08853E+03
 -9.14027E+03  3.40440E+02 -7.04070E+03 -5.55664E+03 -6.18315E+02 -7.85232E+03  4.07558E+03 -6.05587E+03
  6.12202E+03 -2.02213E+03  3.99412E+03  1.79176E+03  1.83709E+03  2.98621E+03  1.11389E+03  1.48573E+03
  2.29513E+03  1.01902E+03  2.47722E+03  1.10238E+03  3.15844E+03  3.81422E+03  2.93003E+03  4.73775E+03
 -2.34286E+03  7.34298E+03 -6.21772E+03  8.36539E+03 -8.78343E+03  2.24862E+03 -9.61340E+03 -3.88576E+03
 -4.82114E+03 -9.42188E+03  1.61161E+03 -1.03007E+04  5.57679E+03 -6.45382E+03  7.77626E+03 -1.71865E+03
  5.83776E+03  3.67707E+03  1.31803E+03  5.80668E+03 -2.02922E+03  3.53790E+03 -3.68807E+03 -1.65700E+02
 -1.97606E+03 -4.02418E+03  2.79839E+03 -4.10423E+03  3.92971E+03 -1.95845E+03  3.78515E+03  7.31662E+02
  1.83232E+03  1.73677E+03  1.11593E+03  9.81542E+02 -4.61004E+02  1.53876E+03  1.75349E+03 -3.57333E+02
  1.14389E+03 -5.60253E+02  3.67569E+03  1.29945E+03  1.69339E+03  4.72849E+03 -2.47741E+02  6.72764E+03
 -4.41722E+03  3.76506E+03 -5.70346E+03  1.25508E+03 -5.04249E+03 -2.33227E+03 -1.64688E+03 -3.15911E+03
  9.18469E+02 -3.23143E+03  2.72919E+03 -1.76280E+03  2.19835E+03  1.99095E+03 -9.75863E+02  3.00757E+03
 -4.09885E+03  1.71185E+03 -4.16454E+03 -2.54575E+03 -2.29931E+03 -5.38076E+03  8.19130E+02 -5.18059E+03
  2.29325E+03 -2.68928E+03  3.42749E+03 -1.15078E+02  3.07741E+03  9.31285E+02  3.49414E+02  2.85346E+03
 -1.49496E+03  8.84732E+02 -2.69466E+03 -1.21005E+03  1.00190E+03 -3.75554E+03  4.16575E+03 -3.06581E+03
  5.29027E+03  4.38098E+02  5.78738E+03  3.71386E+03  1.98070E+03  5.74653E+03 -1.94482E+03  5.76410E+03
 -4.86587E+03  1.89540E+03 -5.11199E+03 -8.47984E+02 -2.74651E+03 -3.71198E+03  9.73164E+02 -3.23581E+03
  3.94192E+03 -1.58206E+03  2.93023E+03  1.67474E+03  1.17504E+03  3.29136E+03 -1.99515E+02  2.78264E+03
 -1.27785E+03  1.91780E+03 -1.29030E+03  5.66123E+02 -6.92160E+02  5.35876E+02 -9.15973E+02  1.31148E+03
 -1.55319E+03  2.46375E+03 -4.02634E+03  2.12853E+03 -5.85394E+03  9.34059E+01 -6.60723E+03 -3.51209E+03
 -3.30236E+03 -7.67531E+03  1.55840E+03 -9.08906E+03  5.10634E+03 -6.81811E+03  8.16027E+03 -2.71040E+03
  7.42704E+03  1.51120E+03  4.47844E+03  5.01248E+03  2.27321E+02  5.93102E+03 -2.48930E+03  4.13048E+03
 -3.02916E+03  1.69106E+03 -2.05377E+03 -7.62818E+02 -6.54719E+02 -3.68368E+02 -6.94023E+02 -1.83677E+02
 -1.32767E+03 -6.16816E+01 -1.47726E+03 -5.63865E+02 -3.44037E+02 -1.52568E+03 -5.91181E+02 -2.16645E+03
  2.89485E+03 -1.69792E+03  3.00966E+03 -5.10544E+00  4.05767E+03  3.43498E+03  1.08179E+03  5.97394E+03
 -2.76875E+03  6.77828E+03 -6.13454E+03  3.77510E+03 -6.94621E+03 -7.93983E+02 -5.04906E+03 -3.87721E+03
 -2.16921E+03 -5.55028E+03  1.40176E+03 -4.88548E+03  3.39229E+03 -2.78224E+03  3.63435E+03  1.97415E+02
  2.05344E+03  1.65113E+03 -3.42908E+02  1.73088E+03 -8.08397E+02 -1.58256E+02  2.05546E+02 -1.40038E+03
  1.86079E+03 -9.66405E+02  1.90455E+03  4.31969E+02  1.37277E+03  2.01499E+03  1.77890E+02  3.05754E+03
 -2.52286E+03  2.43433E+03 -3.46523E+03  6.33802E+02 -3.17141E+03 -3.03164E+03 -4.37292E+02 -4.66103E+03
  2.75678E+03 -3.91584E+03  3.70078E+03 -7.69711E+02  4.23784E+03  5.07093E+02  2.52518E+03  3.31468E+03
  9.60597E+02  3.09321E+03 -1.39804E+03  3.05691E+03 -2.38889E+03  1.73819E+03 -1.53200E+03  7.60895E+01
 -9.67872E+02 -2.25748E+02 -1.09411E+03  4.45629E+02 -1.81075E+03  7.37717E+02 -2.54135E+03 -4.76430E+02
 -3.12097E+03 -1.59408E+03 -8.90876E+02 -3.54875E+03  1.46484E+03 -4.15588E+03  3.39093E+03 -1.81749E+03
  3.53225E+03  4.22522E+02  1.49431E+03  2.29020E+03  2.46609E+01  3.55222E+03 -2.80930E+03  2.38100E+03
