 $NMID ID='MM_0lb_SNR800_9hz_g50_81.RAW', FMTDAT='(8E13.5)'
 TRAMP=1., VOLUME=1. $END
  3.09872E+05  3.13747E+02  3.37686E+05  2.50667E+05  8.51956E+04  3.38561E+05 -1.32871E+05  2.51803E+05
 -1.91009E+05  8.37612E+04 -1.12606E+05 -3.27909E+04 -7.90738E+01 -5.08574E+04  5.39097E+04 -7.89708E+02
  3.54990E+04  5.28558E+04 -1.67074E+04  7.60346E+04 -6.15808E+04  6.48047E+04 -8.50381E+04  3.27026E+04
 -8.25035E+04 -1.18784E+04 -5.81158E+04 -5.27838E+04 -1.53828E+04 -7.14580E+04  2.80641E+04 -4.71500E+04
  4.09044E+04  3.19176E+03  1.67509E+04  4.84629E+04 -3.45261E+04  4.79646E+04 -6.80530E+04  8.87651E+01
 -5.50960E+04 -5.73850E+04 -7.31010E+03 -7.90022E+04  3.44743E+04 -5.71089E+04  4.97203E+04 -1.81490E+04
  4.53178E+04  1.18143E+04  3.26617E+04  2.62918E+04  1.56739E+04  3.07895E+04 -5.90174E+03  2.76388E+04
 -2.19961E+04  1.21930E+04 -1.79111E+04 -5.87139E+03  6.72689E+03 -7.16842E+03  2.36475E+04  1.38798E+04
  7.14936E+03  3.80050E+04 -3.38027E+04  3.68416E+04 -6.62213E+04  2.05328E+03 -5.93204E+04 -4.47800E+04
 -1.27485E+04 -6.56505E+04  4.14032E+04 -4.76852E+04  6.08758E+04 -2.88617E+03  3.66366E+04  3.43462E+04
 -5.26810E+03  3.93170E+04 -3.20010E+04  1.80892E+04 -3.30533E+04 -3.59482E+03 -1.91107E+04 -1.21821E+04
 -9.40827E+03 -1.50073E+04 -1.76515E+02 -1.97418E+04  8.41730E+03 -2.37645E+04  1.59930E+04 -1.23365E+04
  1.08057E+04  6.06086E+03 -1.04041E+04  1.29718E+04 -2.33799E+04 -6.55819E+03 -8.88540E+03 -3.79644E+04
  2.52577E+04 -4.71017E+04  5.20820E+04 -2.11178E+04  4.87477E+04  2.10970E+04  1.73674E+04  4.71585E+04
 -1.65663E+04  3.58135E+04 -2.75370E+04  2.33675E+03 -1.17548E+04 -2.92798E+04  2.16050E+04 -3.68796E+04
  4.45715E+04 -1.06711E+04  4.02179E+04  2.50453E+04  2.14365E+04  5.08388E+04 -8.40805E+03  5.61130E+04
 -3.54822E+04  3.83420E+04 -4.74500E+04  1.10955E+04 -4.77563E+04 -1.85081E+04 -2.61452E+04 -4.22504E+04
  7.61966E+03 -4.22802E+04  3.43479E+04 -1.74649E+04  3.18156E+04  1.12659E+04  5.30481E+03  2.10402E+04
 -1.38420E+04  9.43674E+03 -1.15153E+04 -7.66773E+03  5.72236E+03 -1.12353E+04  1.89621E+04  5.25479E+03
  1.50461E+04  2.27993E+04 -5.22672E+03  2.69868E+04 -2.33812E+04  1.43407E+04 -3.16029E+04 -2.98912E+03
 -2.50050E+04 -1.82111E+04 -1.12300E+04 -2.50301E+04  3.90356E+03 -2.54350E+04  1.98442E+04 -2.28918E+04
  3.21059E+04 -1.40673E+04  3.80791E+04  4.89619E+03  2.70132E+04  2.42070E+04  4.34290E+03  4.11613E+04
 -1.97351E+04  3.38458E+04 -3.01889E+04  1.20652E+04 -2.24292E+04 -1.00828E+04 -5.24546E+03 -1.25322E+04
  6.08790E+02 -1.03758E+03 -7.47636E+03  8.48878E+03 -2.02959E+04  5.01920E+03 -1.99287E+04 -9.55051E+03
 -1.19940E+04 -2.30774E+04  6.38911E+03 -2.80340E+04  1.83979E+04 -1.99285E+04  2.27398E+04 -1.83081E+03
  1.43196E+04  1.62455E+04 -1.59245E+03  2.28410E+04 -1.65211E+04  1.33140E+04 -2.38581E+04 -4.85688E+03
 -1.72577E+04 -2.08677E+04 -2.42354E+03 -2.78213E+04  1.26643E+04 -2.33069E+04  2.30913E+04 -1.16282E+04
  2.22973E+04  1.01274E+00  1.59181E+04  4.70525E+03  9.02592E+03  1.31826E+03  1.24051E+04 -2.07543E+03
  2.18979E+04  2.57556E+03  2.54952E+04  1.80952E+04  1.75594E+04  3.75155E+04 -2.67183E+03  4.45997E+04
 -2.52613E+04  3.68591E+04 -4.20433E+04  1.95057E+04 -4.43486E+04 -3.04413E+03 -3.61215E+04 -2.59276E+04
 -1.44591E+04 -3.68003E+04  1.31490E+04 -3.30866E+04  2.82948E+04 -1.49970E+04  2.43339E+04  8.04314E+03
  8.39305E+03  1.84002E+04 -1.18801E+04  1.58027E+04 -2.03354E+04  2.59301E+03 -1.55541E+04 -1.31293E+04
 -3.01227E+02 -1.95637E+04  1.06964E+04 -1.45647E+04  1.33619E+04 -1.68070E+03  3.32487E+03  8.30711E+03
 -8.80708E+03  4.40961E+03 -9.28003E+03 -7.41806E+03 -2.14955E+03 -1.82234E+04  1.18476E+04 -1.98883E+04
  2.28832E+04 -1.15627E+04  2.60893E+04  3.25749E+03  2.28315E+04  1.87150E+04  1.07043E+04  2.89778E+04
 -5.34720E+03  3.12835E+04 -2.02758E+04  1.90062E+04 -2.24334E+04  4.10284E+03 -1.56525E+04 -5.95784E+03
 -6.38045E+03 -7.49851E+03 -4.50751E+02  8.02168E+02 -3.23412E+03  3.69982E+03 -7.17361E+03  5.46716E+03
 -1.40098E+04 -9.20173E+02 -1.44571E+04 -1.14365E+04 -6.13548E+03 -1.94461E+04  6.60080E+03 -1.58403E+04
  1.29581E+04 -6.24028E+03  8.83951E+03  4.27184E+03 -6.08964E+02  6.15466E+03 -7.81374E+03  1.55926E+02
 -7.23026E+03 -1.00608E+04 -1.31735E+03 -1.56079E+04  9.26496E+03 -1.62148E+04  1.98793E+04 -9.01384E+03
  2.34267E+04  2.82505E+03  1.71738E+04  1.42669E+04  3.20014E+03  1.92301E+04 -9.59855E+03  1.52412E+04
 -1.26714E+04  4.79251E+03 -6.53868E+03 -3.71224E+03  2.20211E+03 -4.20648E+03  8.41522E+03 -1.18078E+03
  7.44436E+03  6.99007E+03  1.29625E+03  1.26737E+04 -9.34694E+03  1.21014E+04 -1.51723E+04  3.05318E+03
 -1.03913E+04 -8.25497E+03  4.44912E+02 -1.34289E+04  8.46950E+03 -7.00600E+03  9.05456E+03  3.60136E+03
  2.14955E+03  9.91993E+03 -8.37568E+03  1.15397E+04 -1.36725E+04  5.34888E+03 -1.41602E+04 -5.01737E+03
 -8.32267E+03 -1.63298E+04  3.89418E+03 -1.77888E+04  1.53039E+04 -1.04713E+04  1.69511E+04  2.93617E+03
  9.92186E+03  1.30767E+04 -1.58656E+03  1.55672E+04 -1.17324E+04  9.28667E+03 -1.30715E+04 -1.18563E+03
 -1.08970E+04 -1.06097E+04 -1.89517E+03 -1.23854E+04  6.39911E+03 -9.36473E+03  8.03427E+03 -3.64244E+03
  4.95403E+03  1.84366E+03 -1.25029E+03  1.60921E+03 -1.13773E+03 -3.79057E+03  2.80080E+03 -7.27136E+03
  1.13338E+04 -4.69803E+03  1.65811E+04  1.43032E+03  1.57317E+04  1.09693E+04  1.03217E+04  2.07528E+04
 -4.79375E+03  2.36620E+04 -1.98481E+04  1.77780E+04 -2.60946E+04  3.44502E+03 -2.11301E+04 -9.38260E+03
 -1.02800E+04 -1.69982E+04 -5.36718E+02 -1.43857E+04  5.13505E+03 -8.16062E+03  5.04513E+03 -5.17396E+03
  3.99224E+03 -3.50423E+03  3.74221E+03 -4.19397E+03  5.76199E+03 -3.50819E+03  8.42642E+03 -1.70951E+03
  1.11186E+04  2.39749E+03  6.12071E+03  9.29451E+03 -2.51691E+03  1.18109E+04 -1.13691E+04  8.93301E+03
 -1.46486E+04 -1.67276E+03 -9.21672E+03 -1.04731E+04 -1.36679E+03 -1.56499E+04  8.75064E+03 -1.61892E+04
  1.62634E+04 -8.36133E+03  1.95145E+04  2.62867E+03  1.35808E+04  1.41438E+04  1.74033E+03  1.80082E+04
 -7.39708E+03  1.40957E+04 -9.82036E+03  4.85343E+03 -7.27816E+03 -1.90244E+03 -3.24073E+03 -2.30925E+03
 -1.49540E+03  5.88599E+01 -2.22169E+03  3.21021E+03 -5.80938E+03  2.61312E+03 -9.98118E+03 -1.52298E+03
 -7.55248E+03 -9.87273E+03 -5.32691E+01 -1.48376E+04  9.46651E+03 -1.35669E+04  1.50342E+04 -4.24170E+03
  1.50982E+04  6.75431E+03  6.73490E+03  1.33345E+04 -2.97590E+03  1.53456E+04 -1.05259E+04  8.97523E+03
 -1.40728E+04  8.03286E+02 -1.04971E+04 -9.31316E+03 -1.51716E+03 -1.24771E+04  6.31398E+03 -9.46195E+03
  9.18908E+03 -3.14838E+03  6.77504E+03  2.45136E+03  2.03759E+03  4.54972E+03  1.29723E+03  1.68851E+03
  2.72538E+03  9.11318E+02  3.79209E+03  1.86449E+03  4.42202E+03  5.29667E+03  3.59047E+03  7.89741E+03
 -3.08822E+03  1.18131E+04 -1.07279E+04  1.20622E+04 -1.48663E+04  3.09689E+03 -1.59294E+04 -6.47907E+03
 -7.58457E+03 -1.51011E+04  2.12682E+03 -1.62000E+04  9.02887E+03 -1.07942E+04  1.23871E+04 -3.12127E+03
  9.44789E+03  5.36007E+03  2.33196E+03  8.88191E+03 -4.28901E+03  5.50513E+03 -6.47692E+03 -1.17286E+03
 -2.94202E+03 -6.56021E+03  3.75362E+03 -6.69087E+03  6.39427E+03 -3.17961E+03  5.65480E+03  1.30710E+03
  3.60085E+03  3.25590E+03  1.41595E+03  2.64852E+03 -1.13670E+03  2.19997E+03  1.28507E+03 -7.78305E+02
  1.94868E+03 -6.28060E+02  6.07625E+03  2.21343E+03  3.80068E+03  8.17297E+03 -9.51042E+02  1.07044E+04
 -7.69641E+03  6.93422E+03 -9.73519E+03  2.05422E+03 -8.39344E+03 -3.81947E+03 -3.18844E+03 -5.84156E+03
  4.94187E+02 -6.17270E+03  4.04092E+03 -2.79339E+03  3.27950E+03  3.02137E+03 -1.63551E+03  5.13901E+03
 -6.11139E+03  2.96363E+03 -6.85207E+03 -3.48110E+03 -4.04098E+03 -8.45410E+03  1.42167E+03 -8.39700E+03
  5.04721E+03 -5.04026E+03  6.28032E+03 -3.48350E+02  5.66161E+03  1.96177E+03  6.73567E+02  4.61670E+03
 -2.92853E+03  1.04706E+03 -3.60669E+03 -2.91448E+03  1.52321E+03 -6.68071E+03  7.94418E+03 -5.30523E+03
  9.80164E+03  7.92067E+02  9.48177E+03  6.68215E+03  3.04384E+03  1.02962E+04 -3.38437E+03  9.70549E+03
 -7.75802E+03  3.82112E+03 -8.20033E+03 -1.30690E+03 -4.64591E+03 -7.15357E+03  1.70384E+03 -6.08430E+03
  5.97123E+03 -2.93880E+03  5.25270E+03  2.80610E+03  1.43558E+03  5.74305E+03 -8.59566E+02  5.29292E+03
 -2.70288E+03  2.80920E+03 -2.24179E+03  1.24693E+03 -1.20496E+03  4.08569E+02 -2.01416E+03  2.28936E+03
 -3.12972E+03  4.05871E+03 -6.93705E+03  3.39088E+03 -1.01027E+04 -9.35598E+00 -1.19654E+04 -6.54380E+03
 -6.34577E+03 -1.34085E+04  2.66434E+03 -1.53356E+04  9.40316E+03 -1.15262E+04  1.42884E+04 -4.69045E+03
  1.34939E+04  2.70302E+03  8.06101E+03  9.39891E+03  6.87757E+02  1.05144E+04 -4.13975E+03  7.92030E+03
 -5.73601E+03  3.04573E+03 -3.50908E+03 -1.47021E+03 -1.20935E+03 -1.14719E+03 -9.55377E+02  4.10970E+02
 -1.54053E+03  2.11798E+02 -2.28251E+03 -2.94141E+02 -1.48941E+03 -2.82357E+03  2.78287E+02 -4.01901E+03
  4.59569E+03 -3.09657E+03  6.15394E+03 -1.98535E+02  7.35227E+03  5.28461E+03  1.70983E+03  1.05951E+04
 -4.71152E+03  1.16632E+04 -1.10710E+04  6.90538E+03 -1.31268E+04 -6.94594E+02 -9.78362E+03 -7.71002E+03
 -4.46866E+03 -1.06922E+04  2.52184E+03 -1.02753E+04  6.53094E+03 -5.91577E+03  7.26809E+03 -9.29315E+01
  3.77203E+03  3.26741E+03 -3.90325E+02  2.56729E+03 -2.34728E+03 -1.91919E+02  1.06433E+02 -2.62146E+03
  3.11660E+03 -1.50916E+03  4.36456E+03  1.49160E+03  2.56682E+03  4.05786E+03  3.53101E+02  4.94734E+03
 -3.98674E+03  4.71072E+03 -6.95404E+03  2.14333E+02 -6.09443E+03 -5.02356E+03 -4.95191E+02 -8.76823E+03
  4.71483E+03 -7.41445E+03  8.30956E+03 -2.55407E+03  8.62185E+03  1.34476E+03  4.52122E+03  6.46737E+03
  1.28565E+03  6.90428E+03 -2.60881E+03  5.77543E+03 -4.33100E+03  3.15822E+03 -4.26436E+03  4.07371E+02
 -1.99079E+03 -3.64485E+02 -2.31688E+03  8.51948E+02 -3.77617E+03  1.44887E+03 -5.48073E+03 -1.29301E+03
 -5.28842E+03 -3.73858E+03 -1.38434E+03 -6.81163E+03  3.17767E+03 -7.05678E+03  6.45796E+03 -3.34421E+03
  7.40546E+03  9.96506E+02  4.06868E+03  4.93780E+03 -5.64147E+02  7.30380E+03 -5.31235E+03  4.31872E+03
