 $NMID ID='MM_0lb_SNR800_17hz_g60_85.RAW', FMTDAT='(8E13.5)'
 TRAMP=1., VOLUME=1. $END
  3.09624E+05  4.29221E+02  3.37944E+05  2.50849E+05  8.44483E+04  3.37981E+05 -1.32686E+05  2.51087E+05
 -1.90495E+05  8.31098E+04 -1.11678E+05 -3.24772E+04  9.92672E+02 -5.04824E+04  5.38956E+04 -6.76968E+01
  3.55041E+04  5.26847E+04 -1.68612E+04  7.54220E+04 -6.06910E+04  6.33304E+04 -8.41103E+04  3.19920E+04
 -8.09528E+04 -1.13002E+04 -5.71986E+04 -5.10357E+04 -1.52070E+04 -6.95844E+04  2.72065E+04 -4.55583E+04
  3.99913E+04  3.86607E+03  1.60262E+04  4.78897E+04 -3.43816E+04  4.71591E+04 -6.66344E+04 -3.17056E+02
 -5.33570E+04 -5.68270E+04 -6.83757E+03 -7.69907E+04  3.38017E+04 -5.50387E+04  4.76275E+04 -1.74512E+04
  4.35877E+04  1.12740E+04  3.19258E+04  2.54363E+04  1.55202E+04  2.91668E+04 -5.10256E+03  2.73230E+04
 -2.19570E+04  1.20988E+04 -1.84750E+04 -5.02351E+03  5.42752E+03 -7.58667E+03  2.23280E+04  1.19648E+04
  7.30160E+03  3.48643E+04 -3.19095E+04  3.52952E+04 -6.27344E+04  2.28231E+03 -5.64188E+04 -4.26962E+04
 -1.26334E+04 -6.29596E+04  3.97039E+04 -4.50767E+04  5.77433E+04 -2.26236E+03  3.37998E+04  3.20637E+04
 -6.32333E+03  3.55038E+04 -2.98364E+04  1.55574E+04 -2.97962E+04 -4.53701E+03 -1.65638E+04 -1.08335E+04
 -8.42353E+03 -1.29591E+04 -1.01965E+03 -1.78700E+04  7.77049E+03 -2.28432E+04  1.53311E+04 -1.31937E+04
  1.16086E+04  5.22557E+03 -7.94642E+03  1.29397E+04 -2.10536E+04 -3.96265E+03 -8.57211E+03 -3.30050E+04
  2.23947E+04 -4.30460E+04  4.75154E+04 -1.94879E+04  4.44969E+04  1.93772E+04  1.53667E+04  4.37381E+04
 -1.56410E+04  3.31533E+04 -2.49206E+04  1.54928E+03 -9.54352E+03 -2.75156E+04  2.08718E+04 -3.34520E+04
  4.03493E+04 -8.88464E+03  3.47774E+04  2.34251E+04  1.74807E+04  4.57115E+04 -7.96484E+03  4.91803E+04
 -3.10182E+04  3.28835E+04 -4.11544E+04  9.48872E+03 -4.17187E+04 -1.64325E+04 -2.29922E+04 -3.69954E+04
  7.23321E+03 -3.70018E+04  3.11884E+04 -1.42070E+04  2.86692E+04  1.09572E+04  3.84028E+03  1.89641E+04
 -1.31492E+04  8.14563E+03 -1.01680E+04 -7.68361E+03  5.88172E+03 -1.06252E+04  1.77836E+04  6.37822E+03
  1.31180E+04  2.20406E+04 -6.17377E+03  2.44148E+04 -2.22251E+04  1.08532E+04 -2.73082E+04 -5.09267E+03
 -1.96439E+04 -1.70203E+04 -7.81822E+03 -1.96696E+04  4.10126E+03 -1.82847E+04  1.50380E+04 -1.72983E+04
  2.48779E+04 -1.25909E+04  3.16105E+04  2.79058E+03  2.31131E+04  1.87560E+04  4.27286E+03  3.52917E+04
 -1.73415E+04  2.92999E+04 -2.73453E+04  9.97615E+03 -2.05011E+04 -1.02669E+04 -4.19486E+03 -1.33544E+04
  1.84762E+03 -3.26765E+03 -4.33612E+03  6.32648E+03 -1.52831E+04  4.96483E+03 -1.55369E+04 -6.46264E+03
 -9.62589E+03 -1.77157E+04  5.15540E+03 -2.18448E+04  1.45007E+04 -1.55889E+04  1.69212E+04 -1.51434E+03
  1.08918E+04  1.24983E+04 -1.08020E+03  1.81935E+04 -1.22719E+04  1.01130E+04 -1.77063E+04 -3.86527E+03
 -1.32460E+04 -1.60289E+04 -1.50261E+03 -2.17338E+04  9.47035E+03 -1.78014E+04  1.81632E+04 -8.86194E+03
  1.67077E+04  1.10133E+02  1.20980E+04  4.30675E+03  6.27341E+03  9.49654E+02  8.74572E+03 -1.33575E+03
  1.61218E+04  2.84575E+03  1.78515E+04  1.42235E+04  1.13576E+04  2.82585E+04 -2.87238E+03  3.16538E+04
 -1.84296E+04  2.50897E+04 -2.94241E+04  1.25175E+04 -3.06027E+04 -2.11445E+03 -2.53116E+04 -1.74136E+04
 -1.10504E+04 -2.48733E+04  8.53738E+03 -2.25883E+04  1.95506E+04 -1.20628E+04  1.80952E+04  4.94402E+03
  7.04923E+03  1.31633E+04 -8.27259E+03  1.18230E+04 -1.51850E+04  2.50570E+03 -1.16308E+04 -9.52684E+03
  2.29003E+01 -1.41577E+04  7.21392E+03 -1.06556E+04  9.54410E+03 -1.28799E+03  1.94399E+03  5.85633E+03
 -6.39966E+03  1.94095E+03 -4.99936E+03 -5.32910E+03 -2.51883E+02 -1.24617E+04  9.30413E+03 -1.24835E+04
  1.45484E+04 -6.27024E+03  1.54664E+04  2.84012E+03  1.32230E+04  1.19837E+04  6.65062E+03  1.75463E+04
 -2.81911E+03  1.97786E+04 -1.20914E+04  1.24087E+04 -1.39787E+04  3.23229E+03 -1.01392E+04 -2.81018E+03
 -4.82559E+03 -4.23849E+03 -6.61073E+02  1.11839E+03 -2.29018E+03  1.94426E+03 -4.57178E+03  3.98483E+03
 -9.42625E+03 -3.64819E+02 -1.02125E+04 -7.94981E+03 -4.18552E+03 -1.31381E+04  4.22062E+03 -9.88997E+03
  8.50351E+03 -4.39112E+03  5.77719E+03  2.50213E+03  5.21319E+02  3.54664E+03 -4.31157E+03 -1.33991E+02
 -4.55765E+03 -6.18232E+03 -9.19431E+02 -9.13506E+03  4.88862E+03 -9.85957E+03  1.21603E+04 -5.00531E+03
  1.43768E+04  8.36248E+02  1.03670E+04  8.12299E+03  2.13120E+03  1.08281E+04 -6.17574E+03  9.71495E+03
 -8.00289E+03  3.27058E+03 -4.19351E+03 -1.53057E+03  1.44456E+03 -2.46332E+03  5.58529E+03 -1.08437E+03
  4.74293E+03  3.47159E+03  1.06719E+03  7.43996E+03 -5.40099E+03  7.59532E+03 -9.35364E+03  2.13607E+03
 -6.01682E+03 -4.28784E+03  1.99426E+01 -7.94303E+03  4.69788E+03 -3.94741E+03  5.05559E+03  1.51493E+03
  6.05227E+02  4.18457E+03 -5.03331E+03  6.15603E+03 -6.56648E+03  2.87444E+03 -6.61030E+03 -2.03139E+03
 -3.95663E+03 -7.77228E+03  1.76848E+03 -9.21257E+03  8.22094E+03 -6.06066E+03  8.62902E+03  1.40170E+03
  5.54303E+03  6.73172E+03 -2.68914E+02  8.78941E+03 -6.55903E+03  4.86315E+03 -6.36452E+03 -6.40810E+02
 -6.57454E+03 -6.41993E+03 -1.47994E+03 -6.37538E+03  3.26538E+03 -5.53142E+03  3.85273E+03 -2.94446E+03
  3.39416E+03  4.50353E+02  4.91590E+01  1.46463E+03  4.29264E+02 -6.28080E+02  6.69831E+02 -2.83569E+03
  5.40644E+03 -1.58072E+03  7.66305E+03  9.14345E+02  7.17094E+03  4.28379E+03  6.28425E+03  9.52101E+03
 -1.95194E+03  1.10098E+04 -9.84659E+03  8.56309E+03 -1.23603E+04  1.85734E+03 -1.00905E+04 -3.50650E+03
 -4.96782E+03 -8.34397E+03 -5.82394E+02 -6.65916E+03  2.50067E+03 -3.27474E+03  2.57234E+03 -2.55595E+03
  1.63990E+03 -1.65334E+03  2.80130E+03 -2.35518E+03  3.68751E+03 -2.02586E+03  4.27865E+03  1.47203E+02
  5.40451E+03  1.21257E+03  1.89558E+03  4.31749E+03 -1.63201E+03  3.75009E+03 -5.55664E+03  3.54134E+03
 -6.71091E+03 -1.29931E+03 -2.86890E+03 -4.78290E+03  1.00308E+01 -6.55064E+03  3.96890E+03 -6.82209E+03
  6.98748E+03 -3.95966E+03  8.88768E+03  7.05521E+02  6.18346E+03  5.34257E+03  1.19453E+03  7.78143E+03
 -2.84979E+03  7.03214E+03 -4.37292E+03  2.50173E+03 -2.51099E+03 -9.20876E+02 -6.56529E+02 -8.25146E+02
 -4.94729E+02  3.46490E+02 -9.96295E+02  1.97937E+03 -3.06164E+03  1.36013E+03 -4.93484E+03 -6.92960E+02
 -2.16090E+03 -4.74881E+03  4.15368E+02 -6.01920E+03  3.42167E+03 -5.54576E+03  4.95449E+03 -1.91765E+03
  5.38812E+03  3.01477E+03  2.47669E+03  4.55337E+03 -1.01461E+03  5.70291E+03 -3.73274E+03  3.43399E+03
 -5.11515E+03  8.07156E+02 -4.23568E+03 -3.24466E+03 -3.36090E+02 -4.29077E+03  2.21263E+03 -2.97565E+03
  3.47834E+03 -1.51345E+03  2.27013E+03  9.23891E+02  6.80973E+02  2.00666E+03  6.65679E+02  8.08453E+02
  1.77130E+03  4.63501E+02  1.47836E+03  1.10212E+03  1.57336E+03  2.53307E+03  1.89180E+03  2.32710E+03
 -1.48090E+03  3.95115E+03 -3.74900E+03  5.00504E+03 -4.47125E+03  1.40588E+03 -5.51665E+03 -1.21325E+03
 -2.32615E+03 -5.01856E+03  6.18955E+02 -6.07265E+03  2.79392E+03 -3.74149E+03  4.14690E+03 -1.28746E+03
  3.34258E+03  2.14052E+03  6.65320E+02  2.95101E+03 -8.17767E+02  1.38213E+03 -1.81189E+03 -9.86354E+01
 -7.42910E+02 -1.81184E+03  1.39010E+03 -2.34357E+03  1.93031E+03 -1.13388E+03  1.79467E+03  2.66345E+02
  9.88328E+02  7.23288E+02  7.67485E+02 -1.12026E+02 -4.49807E+02  9.07068E+02  1.26001E+03 -1.96794E+02
  3.98999E+02 -4.48480E+01  2.00107E+03  7.56668E+02  4.01048E+02  3.02237E+03 -7.77294E+02  3.32758E+03
 -2.22193E+03  1.65833E+03 -2.83977E+03  5.82005E+02 -2.57360E+03 -1.12387E+03 -4.21709E+02 -1.53670E+03
  1.05472E+02 -1.87499E+03  1.21606E+03 -8.51015E+02  1.02051E+03  1.46929E+03 -8.33194E+02  1.43681E+03
 -2.12310E+03  8.08024E+02 -1.51122E+03 -1.89444E+03 -8.64096E+02 -2.63707E+03  1.53607E+02 -2.07595E+03
  1.19554E+03 -7.58668E+02  1.37424E+03  1.19053E+02  1.64519E+03  2.19371E+02  1.76825E+02  1.20080E+03
 -8.43573E+02  2.29531E+02 -1.32143E+03 -5.39744E+02  6.29585E+02 -9.84862E+02  2.07776E+03 -1.24380E+03
  2.33404E+03  4.66086E+02  3.33812E+03  1.20410E+03  1.29132E+03  2.34807E+03 -2.27561E+02  2.44761E+03
 -2.23617E+03  7.08997E+02 -1.71701E+03 -5.51573E+02 -1.36664E+03 -1.78906E+03  1.48340E+01 -1.17639E+03
  1.55535E+03 -7.23786E+02  1.30148E+03  8.64375E+02  3.17436E+02  1.57529E+03  1.51743E+02  1.41101E+03
 -8.07546E+02  1.17815E+03 -1.62946E+02  2.38083E+02 -7.41349E+01  4.30404E+02 -6.43667E+02  6.14850E+02
 -5.89772E+02  1.09918E+03 -2.20417E+03  9.45930E+02 -2.39224E+03 -6.99104E+01 -2.95093E+03 -1.49468E+03
 -1.49275E+03 -3.24005E+03  7.11081E+02 -3.55478E+03  1.23738E+03 -3.05280E+03  3.39157E+03 -1.10410E+03
  3.11513E+03  1.65969E+02  1.82520E+03  2.15607E+03 -4.94833E+02  2.06634E+03 -6.71848E+02  1.63120E+03
 -1.37218E+03  1.01620E+03 -5.99493E+02 -5.33946E+02 -8.28631E+02  1.80035E+02 -9.76047E+02  1.88232E+02
 -9.01382E+02  1.11551E+02 -9.11703E+02  1.79142E+02  1.78058E+02 -5.12067E+02 -6.05113E+02 -9.60768E+02
  1.58822E+03 -4.86002E+02  1.17829E+03  2.65683E+02  1.61648E+03  1.39072E+03  4.32222E-01  1.91666E+03
 -9.25403E+02  2.55640E+03 -1.83216E+03  1.78703E+03 -2.50707E+03 -3.06779E+02 -1.58195E+03 -1.47674E+03
 -9.56279E+02 -1.84257E+03  3.53897E+02 -1.78931E+03  1.41628E+03 -6.42982E+02  1.01924E+03  2.51485E+02
  9.65779E+02  5.43495E+02  1.00805E+02  4.79118E+02 -4.95102E+02 -8.87281E+01 -1.43976E+02 -2.37372E+02
  5.41864E+02  3.40659E+01  5.27950E+02  4.59826E+02  1.45547E+01  5.45955E+02  5.23480E+02  6.22476E+02
 -6.44880E+02  9.13972E+02 -1.06921E+03 -7.82306E+01 -1.21172E+03 -5.56708E+02 -1.81689E+02 -1.74121E+03
  9.36363E+02 -1.07837E+03  9.47170E+02 -2.99487E+02  1.27806E+03 -6.31817E+02  6.03584E+02  9.75887E+02
  5.84881E+02  1.06949E+03 -5.70833E+02  1.01618E+03 -7.45100E+02  6.20408E+02 -4.56562E+02  9.57063E+01
 -2.24028E+01  1.26211E+02 -5.94232E+02  3.06845E+02 -6.43663E+02  7.17672E+01 -1.26880E+03 -2.01411E+02
 -1.09439E+03 -1.01744E+02 -5.29106E+02 -1.42647E+03  8.19783E+02 -1.78168E+03  8.09712E+02 -2.73120E+02
  1.00344E+03 -8.69292E+01  7.57531E+01  4.55467E+02  1.96163E+02  1.11810E+03 -5.46730E+02  8.79540E+02
