 $NMID ID='MM_0lb_SNR800_17hz_g45_16.RAW', FMTDAT='(8E13.5)'
 TRAMP=1., VOLUME=1. $END
  3.09728E+05  3.51641E+02  3.37475E+05  2.50523E+05  8.45207E+04  3.37174E+05 -1.32345E+05  2.50398E+05
 -1.89780E+05  8.27126E+04 -1.11167E+05 -3.26587E+04  1.22501E+03 -5.03477E+04  5.39166E+04  1.23459E+02
  3.51738E+04  5.28175E+04 -1.67611E+04  7.50308E+04 -6.04880E+04  6.28084E+04 -8.31466E+04  3.18972E+04
 -8.00978E+04 -1.10343E+04 -5.64245E+04 -5.04909E+04 -1.51288E+04 -6.87160E+04  2.70305E+04 -4.51262E+04
  3.94484E+04  3.80727E+03  1.57570E+04  4.70168E+04 -3.41137E+04  4.65854E+04 -6.55059E+04 -2.76587E+02
 -5.24499E+04 -5.61007E+04 -6.38621E+03 -7.56592E+04  3.33654E+04 -5.33980E+04  4.67476E+04 -1.67405E+04
  4.18592E+04  1.10450E+04  3.12167E+04  2.47148E+04  1.59295E+04  2.84844E+04 -4.84684E+03  2.69916E+04
 -2.17665E+04  1.29134E+04 -1.92191E+04 -4.33409E+03  4.61712E+03 -7.18686E+03  2.15067E+04  1.16341E+04
  7.54765E+03  3.36938E+04 -3.10836E+04  3.43478E+04 -6.14759E+04  2.05293E+03 -5.55674E+04 -4.14242E+04
 -1.25242E+04 -6.13349E+04  3.87684E+04 -4.37764E+04  5.64056E+04 -1.97235E+03  3.25050E+04  3.11553E+04
 -6.61320E+03  3.37980E+04 -2.87394E+04  1.41104E+04 -2.80155E+04 -5.20433E+03 -1.52318E+04 -1.03714E+04
 -7.92950E+03 -1.17502E+04 -1.02756E+03 -1.67941E+04  6.87958E+03 -2.26818E+04  1.48782E+04 -1.39333E+04
  1.20212E+04  4.76261E+03 -6.73762E+03  1.30266E+04 -2.00268E+04 -3.07095E+03 -8.06235E+03 -3.13100E+04
  2.12355E+04 -4.13071E+04  4.56832E+04 -1.88175E+04  4.26163E+04  1.83859E+04  1.46358E+04  4.24686E+04
 -1.53997E+04  3.17998E+04 -2.37138E+04  1.10655E+03 -8.73832E+03 -2.66749E+04  2.07042E+04 -3.19125E+04
  3.88447E+04 -8.09022E+03  3.24941E+04  2.29071E+04  1.63706E+04  4.35091E+04 -7.77716E+03  4.64746E+04
 -2.92297E+04  3.06754E+04 -3.84697E+04  8.69162E+03 -3.94724E+04 -1.55437E+04 -2.19170E+04 -3.50953E+04
  7.14424E+03 -3.51208E+04  2.98135E+04 -1.31378E+04  2.73474E+04  1.05790E+04  3.48381E+03  1.81969E+04
 -1.28696E+04  7.80880E+03 -9.77393E+03 -7.76375E+03  5.80299E+03 -1.00785E+04  1.75101E+04  6.29857E+03
  1.29783E+04  2.16313E+04 -6.31766E+03  2.38478E+04 -2.13800E+04  9.71135E+03 -2.57946E+04 -6.04278E+03
 -1.76305E+04 -1.68998E+04 -6.01664E+03 -1.77958E+04  3.71929E+03 -1.60390E+04  1.32706E+04 -1.55419E+04
  2.21797E+04 -1.17647E+04  2.92742E+04  1.49962E+03  2.18671E+04  1.71415E+04  3.99545E+03  3.36067E+04
 -1.65466E+04  2.82703E+04 -2.65111E+04  9.69302E+03 -1.99534E+04 -1.03742E+04 -3.90540E+03 -1.39412E+04
  2.55683E+03 -4.06362E+03 -3.32947E+03  5.68647E+03 -1.36686E+04  4.89447E+03 -1.41315E+04 -5.45655E+03
 -9.35672E+03 -1.64150E+04  4.67739E+03 -2.02298E+04  1.33395E+04 -1.48245E+04  1.54211E+04 -1.48627E+03
  9.67506E+03  1.14193E+04 -8.90442E+02  1.63408E+04 -1.11066E+04  9.58373E+03 -1.62502E+04 -3.68074E+03
 -1.21954E+04 -1.45913E+04 -1.61791E+03 -1.99655E+04  8.96585E+03 -1.63334E+04  1.65767E+04 -7.96551E+03
  1.54721E+04  7.29777E+02  1.09612E+04  4.03782E+03  5.46655E+03  6.01557E+02  8.27661E+03 -1.41893E+03
  1.48563E+04  2.91737E+03  1.62306E+04  1.31610E+04  1.00403E+04  2.59071E+04 -2.81469E+03  2.83887E+04
 -1.70539E+04  2.20813E+04 -2.63036E+04  1.09504E+04 -2.70638E+04 -1.96165E+03 -2.31057E+04 -1.56846E+04
 -1.04702E+04 -2.24099E+04  7.24099E+03 -2.07499E+04  1.78795E+04 -1.12376E+04  1.67493E+04  4.33441E+03
  6.87276E+03  1.21106E+04 -7.49912E+03  1.07646E+04 -1.39975E+04  2.68229E+03 -1.07757E+04 -8.51920E+03
 -1.85401E+02 -1.31387E+04  6.64267E+03 -9.95653E+03  8.48340E+03 -1.52386E+03  1.44164E+03  5.40613E+03
 -5.81605E+03  1.56672E+03 -4.28814E+03 -4.56740E+03  3.34802E+02 -1.10245E+04  8.40593E+03 -1.11341E+04
  1.32597E+04 -5.34512E+03  1.33895E+04  2.94593E+03  1.15056E+04  1.03287E+04  5.46841E+03  1.56329E+04
 -2.23232E+03  1.75558E+04 -1.08258E+04  1.08837E+04 -1.24661E+04  2.84737E+03 -9.03025E+03 -2.56422E+03
 -4.45241E+03 -3.73750E+03 -1.19243E+03  1.14960E+03 -1.92560E+03  2.19027E+03 -4.21766E+03  3.59215E+03
 -8.79713E+03 -5.05195E+02 -9.62532E+03 -7.43332E+03 -3.56730E+03 -1.21103E+04  3.99731E+03 -9.21347E+03
  7.73820E+03 -4.07124E+03  5.66194E+03  2.35716E+03  7.71178E+02  3.09035E+03 -3.94148E+03 -3.57000E+01
 -3.66954E+03 -5.47081E+03 -6.84865E+02 -7.99880E+03  4.63997E+03 -9.00030E+03  1.07179E+04 -4.36150E+03
  1.29194E+04  7.37691E+02  9.71932E+03  6.96057E+03  2.21410E+03  9.57173E+03 -5.58046E+03  8.80485E+03
 -7.53755E+03  2.90138E+03 -3.74655E+03 -1.53275E+03  1.45851E+03 -2.14034E+03  5.12560E+03 -1.15831E+03
  4.26429E+03  3.92624E+03  1.31659E+03  7.11482E+03 -4.82300E+03  7.02194E+03 -8.72535E+03  2.02340E+03
 -5.48925E+03 -3.95693E+03  2.74125E+02 -7.15923E+03  3.94873E+03 -3.50420E+03  3.86590E+03  1.25745E+03
  5.62619E+02  4.27053E+03 -4.34120E+03  5.59954E+03 -5.93657E+03  2.58402E+03 -5.20905E+03 -1.41635E+03
 -3.44016E+03 -6.86529E+03  1.29267E+03 -8.34242E+03  7.04112E+03 -4.93801E+03  7.42670E+03  1.30473E+03
  5.09235E+03  6.20208E+03  2.31948E+02  8.32595E+03 -5.46484E+03  4.43866E+03 -5.99852E+03 -5.51124E+02
 -6.28078E+03 -5.69094E+03 -1.25833E+03 -5.81564E+03  2.88337E+03 -5.03632E+03  3.44653E+03 -2.80453E+03
  2.87947E+03  4.86441E+02 -9.43046E+01  1.10725E+03  2.03664E+02 -5.93886E+02  5.22365E+02 -2.60993E+03
  4.87334E+03 -1.48767E+03  6.36558E+03  7.87548E+02  6.57626E+03  3.71151E+03  5.81491E+03  8.51829E+03
 -1.65792E+03  9.78670E+03 -8.61765E+03  7.55987E+03 -1.15990E+04  1.30126E+03 -8.89955E+03 -3.06501E+03
 -4.72449E+03 -7.54570E+03 -1.63918E+02 -6.00755E+03  2.40709E+03 -2.80949E+03  2.08075E+03 -2.15618E+03
  1.45854E+03 -1.52658E+03  2.50909E+03 -2.61539E+03  3.50344E+03 -1.57145E+03  4.03744E+03 -4.69108E+01
  5.16096E+03  1.37761E+03  1.82532E+03  4.14124E+03 -1.64386E+03  3.74429E+03 -4.98842E+03  2.90579E+03
 -5.94033E+03 -1.18649E+03 -2.54015E+03 -3.95459E+03  4.06148E+02 -5.78871E+03  3.60624E+03 -6.15620E+03
  6.34389E+03 -3.43733E+03  7.86024E+03  3.84679E+02  5.59475E+03  5.15523E+03  1.14593E+03  7.06954E+03
 -2.26604E+03  6.46394E+03 -3.80999E+03  2.30584E+03 -2.28554E+03 -1.13680E+03 -6.33047E+02 -7.06049E+02
 -7.66441E+02  1.48067E+02 -1.07362E+03  2.20368E+03 -2.88970E+03  1.28892E+03 -4.46744E+03 -5.50759E+02
 -1.63200E+03 -4.41267E+03  6.42048E+02 -5.39898E+03  3.30448E+03 -4.98855E+03  4.27803E+03 -1.40250E+03
  5.20471E+03  2.68737E+03  2.07474E+03  4.20841E+03 -8.68043E+02  5.09056E+03 -3.17112E+03  2.98390E+03
 -4.54677E+03  4.88537E+02 -4.17420E+03 -3.29082E+03 -2.21213E+02 -4.05561E+03  1.97579E+03 -3.09155E+03
  3.11587E+03 -1.57836E+03  2.11480E+03  6.86112E+02  6.19877E+02  1.78415E+03  7.00138E+02  6.01144E+02
  1.86632E+03  6.98736E+02  1.60809E+03  1.13316E+03  1.20946E+03  2.70104E+03  1.42068E+03  2.25680E+03
 -1.62635E+03  3.71670E+03 -3.15712E+03  4.52582E+03 -4.17723E+03  1.80163E+03 -5.55593E+03 -1.15500E+03
 -2.23544E+03 -4.66383E+03  9.36688E+02 -5.58887E+03  2.52366E+03 -3.23325E+03  3.71452E+03 -1.04085E+03
  3.00221E+03  2.07725E+03  5.23815E+02  2.86924E+03 -9.01734E+02  1.40927E+03 -1.92914E+03 -2.94000E+02
 -9.79663E+02 -1.82099E+03  1.55259E+03 -2.10633E+03  1.72413E+03 -1.40998E+03  1.56945E+03  5.80145E+02
  9.95486E+02  4.28050E+02  8.73861E+02  1.32227E+02 -3.54682E+02  8.54894E+02  1.51407E+03 -1.09324E+02
  8.35084E+01 -2.18649E+02  2.01823E+03  8.20954E+02  7.57733E+02  2.55423E+03 -1.45096E+02  3.38433E+03
 -1.93371E+03  1.50814E+03 -2.37926E+03  3.70912E+02 -2.88847E+03 -7.46580E+02 -3.39534E+02 -1.24714E+03
  2.85423E+02 -1.39733E+03  1.49746E+03 -8.53573E+02  1.07824E+03  1.54620E+03 -8.00798E+02  1.34522E+03
 -1.84744E+03  9.18750E+02 -1.75765E+03 -1.40854E+03 -8.06097E+02 -2.76422E+03  4.09670E+02 -2.05381E+03
  5.41984E+02 -6.83931E+02  1.29149E+03  1.82469E+02  1.62865E+03 -1.04755E+02  4.05713E+02  1.55510E+03
 -5.25585E+02  2.36022E+02 -9.17003E+02 -6.98709E+02  6.98143E+02 -1.58142E+03  2.19354E+03 -9.14555E+02
  2.01208E+03  2.21317E+02  3.12669E+03  1.31276E+03  1.34231E+03  2.09578E+03 -4.88024E+02  2.52353E+03
 -2.06150E+03  5.87249E+02 -1.92408E+03 -3.28765E+02 -1.08351E+03 -1.60345E+03  5.59227E+02 -8.96993E+02
  2.23689E+03 -1.01649E+03  1.54140E+03  7.76749E+02  3.75322E+02  1.23338E+03  2.39304E+02  1.36977E+03
 -6.46689E+02  1.13745E+03 -3.32131E+02  3.14325E+02 -1.64227E+01  4.56298E+02 -5.00095E+02  5.69929E+02
 -8.18173E+02  1.57932E+03 -2.11841E+03  7.06693E+02 -2.04853E+03  3.34397E+02 -2.98213E+03 -1.35497E+03
 -1.25066E+03 -2.83542E+03  6.78788E+02 -3.40629E+03  1.56848E+03 -2.88238E+03  3.40365E+03 -1.55922E+03
  3.45730E+03 -8.64533E+01  1.90388E+03  1.93797E+03 -3.54178E+02  2.00453E+03 -8.97192E+02  1.41052E+03
 -1.28649E+03  1.11671E+03 -6.87650E+02 -3.54974E+02 -7.82052E+02  3.14345E+02 -4.92532E+02 -1.49591E+02
 -1.30316E+03 -1.55898E+02 -9.09175E+02  7.08069E+01  8.38332E+01 -6.54829E+02 -1.95872E+02 -8.86266E+02
  1.39175E+03 -7.80668E+02  5.45485E+02  3.35403E+02  1.39486E+03  1.29811E+03 -9.12933E+01  1.97178E+03
 -1.76489E+03  2.90626E+03 -2.16836E+03  1.63047E+03 -2.46534E+03 -8.00456E+01 -1.84228E+03 -1.88956E+03
 -1.23555E+03 -2.07645E+03  5.33230E+02 -1.58532E+03  1.05666E+03 -7.24893E+02  1.28209E+03  2.18234E+02
  7.92663E+02  3.91808E+02  2.29540E+02  6.38279E+02 -3.29787E+02 -3.12066E+02  1.76191E+02 -5.30130E+02
  8.54890E+02  1.84786E+02  4.32399E+02  5.82141E+02 -1.45605E+02  8.65291E+02  4.20585E+02  8.38232E+02
 -8.72320E+02  8.26477E+02 -1.31299E+03  1.01131E+02 -9.06338E+02 -7.92879E+02 -1.88035E+02 -1.70808E+03
  6.71557E+02 -1.19259E+03  1.21051E+03 -1.42647E+02  1.44462E+03 -4.43126E+02  6.40103E+02  1.38791E+03
  5.04723E+02  9.97485E+02 -6.11614E+02  8.30370E+02 -7.94662E+02  8.36716E+02 -6.36965E+02  6.94544E+01
 -3.33951E+02 -3.89056E+02 -5.11141E+02  2.21324E+02 -7.34422E+02 -7.97534E+00 -8.12460E+02 -2.30252E+02
 -1.29085E+03 -1.62343E+01 -1.77005E+02 -1.50187E+03  8.52041E+02 -1.86611E+03  9.02003E+02 -2.67324E+02
  1.03765E+03 -1.05584E+01  1.16274E+02  2.42665E+02  6.03119E+01  1.11366E+03 -5.55916E+02  9.09249E+02
