 $NMID ID='MM_0lb_SNR800_7hz_g50_51.RAW', FMTDAT='(8E13.5)'
 TRAMP=1., VOLUME=1. $END
  3.09380E+05  3.27409E+02  3.38114E+05  2.50925E+05  8.51687E+04  3.38554E+05 -1.32768E+05  2.51929E+05
 -1.90874E+05  8.38240E+04 -1.12531E+05 -3.21654E+04 -2.85977E+02 -5.05760E+04  5.38157E+04 -1.13054E+03
  3.56451E+04  5.30745E+04 -1.65670E+04  7.62587E+04 -6.13988E+04  6.46782E+04 -8.61088E+04  3.26401E+04
 -8.31386E+04 -1.16494E+04 -5.83330E+04 -5.24104E+04 -1.52916E+04 -7.12308E+04  2.82520E+04 -4.69321E+04
  4.13228E+04  3.58129E+03  1.76210E+04  4.84324E+04 -3.49310E+04  4.85799E+04 -6.87651E+04  5.30919E+02
 -5.52553E+04 -5.90865E+04 -7.54671E+03 -7.97384E+04  3.52054E+04 -5.73632E+04  5.04664E+04 -1.85244E+04
  4.60836E+04  1.15945E+04  3.33902E+04  2.69245E+04  1.58346E+04  3.10514E+04 -6.05502E+03  2.84594E+04
 -2.30442E+04  1.17453E+04 -1.78639E+04 -6.16789E+03  7.38516E+03 -7.00744E+03  2.34956E+04  1.43304E+04
  7.46670E+03  3.82866E+04 -3.49886E+04  3.80914E+04 -6.66170E+04  1.56486E+03 -5.94284E+04 -4.56159E+04
 -1.27718E+04 -6.70760E+04  4.23573E+04 -4.83071E+04  6.26658E+04 -2.80520E+03  3.76688E+04  3.47947E+04
 -5.34395E+03  4.07655E+04 -3.21022E+04  1.99570E+04 -3.44466E+04 -2.95712E+03 -2.04178E+04 -1.19683E+04
 -1.01369E+04 -1.56477E+04 -4.95508E+02 -2.02800E+04  9.02223E+03 -2.35421E+04  1.62566E+04 -1.24376E+04
  9.99381E+03  6.64716E+03 -1.14789E+04  1.26623E+04 -2.40652E+04 -7.67188E+03 -8.85716E+03 -3.90111E+04
  2.58566E+04 -4.82687E+04  5.35545E+04 -2.20621E+04  5.03051E+04  2.16666E+04  1.75393E+04  4.86337E+04
 -1.70063E+04  3.71159E+04 -2.85099E+04  3.00294E+03 -1.26362E+04 -2.96103E+04  2.17198E+04 -3.81399E+04
  4.61272E+04 -1.18488E+04  4.23044E+04  2.50573E+04  2.23200E+04  5.29505E+04 -8.35797E+03  5.85678E+04
 -3.67691E+04  3.98595E+04 -4.98184E+04  1.18589E+04 -5.01017E+04 -1.93901E+04 -2.67638E+04 -4.40198E+04
  8.32307E+03 -4.40846E+04  3.55080E+04 -1.83950E+04  3.33024E+04  1.12434E+04  5.65893E+03  2.16657E+04
 -1.40694E+04  1.03720E+04 -1.16401E+04 -7.68713E+03  5.51563E+03 -1.18665E+04  1.92872E+04  5.80568E+03
  1.58978E+04  2.26028E+04 -4.77961E+03  2.80612E+04 -2.39745E+04  1.50569E+04 -3.34912E+04 -2.13996E+03
 -2.74663E+04 -1.84924E+04 -1.29019E+04 -2.71122E+04  4.76222E+03 -2.79929E+04  2.16880E+04 -2.48260E+04
  3.46087E+04 -1.48058E+04  4.00113E+04  5.76172E+03  2.85916E+04  2.67971E+04  4.61417E+03  4.33561E+04
 -2.09880E+04  3.51670E+04 -3.20962E+04  1.20977E+04 -2.32713E+04 -1.02078E+04 -5.03256E+03 -1.30568E+04
  2.98392E+02 -2.73444E+02 -8.47780E+03  8.65402E+03 -2.22280E+04  5.15832E+03 -2.15533E+04 -1.06721E+04
 -1.28105E+04 -2.54366E+04  6.21590E+03 -2.97885E+04  2.10475E+04 -2.08698E+04  2.47689E+04 -1.74054E+03
  1.54715E+04  1.77140E+04 -1.35675E+03  2.47899E+04 -1.81329E+04  1.44670E+04 -2.59275E+04 -5.56276E+03
 -1.83352E+04 -2.26814E+04 -2.40042E+03 -3.01624E+04  1.39432E+04 -2.56575E+04  2.48487E+04 -1.34182E+04
  2.35650E+04 -7.02531E+02  1.74475E+04  5.29143E+03  1.01353E+04  1.64142E+03  1.36040E+04 -2.65859E+03
  2.40904E+04  2.96511E+03  2.79343E+04  1.93715E+04  1.97418E+04  4.09180E+04 -2.85223E+03  4.89736E+04
 -2.75965E+04  4.06298E+04 -4.66488E+04  2.13293E+04 -4.94025E+04 -3.61202E+03 -3.99650E+04 -2.93367E+04
 -1.58908E+04 -4.16022E+04  1.54458E+04 -3.57084E+04  3.05916E+04 -1.66534E+04  2.62154E+04  9.25807E+03
  8.78796E+03  2.06475E+04 -1.33155E+04  1.67668E+04 -2.20333E+04  2.41500E+03 -1.71893E+04 -1.38727E+04
 -5.77150E+02 -2.15099E+04  1.14512E+04 -1.55608E+04  1.47426E+04 -1.25226E+03  3.94954E+03  9.87622E+03
 -9.46452E+03  4.75818E+03 -1.10580E+04 -8.01025E+03 -2.27341E+03 -2.02275E+04  1.32780E+04 -2.26653E+04
  2.58528E+04 -1.25495E+04  2.97211E+04  3.31162E+03  2.62104E+04  2.11085E+04  1.20821E+04  3.28596E+04
 -6.91481E+03  3.50633E+04 -2.32299E+04  2.17962E+04 -2.56108E+04  4.29483E+03 -1.75098E+04 -7.48402E+03
 -7.33488E+03 -8.50539E+03 -8.00310E+02  2.28032E+02 -3.24289E+03  3.89708E+03 -8.97712E+03  6.06720E+03
 -1.57962E+04 -1.48936E+03 -1.62553E+04 -1.34389E+04 -6.70136E+03 -2.15013E+04  7.21630E+03 -1.78689E+04
  1.47437E+04 -7.53982E+03  1.06139E+04  4.81150E+03 -2.15072E+02  7.08833E+03 -8.96344E+03 -3.17702E+02
 -9.01062E+03 -1.18594E+04 -1.27966E+03 -1.80321E+04  1.06001E+04 -1.87904E+04  2.30971E+04 -1.03736E+04
  2.65695E+04  3.16901E+03  1.91747E+04  1.64715E+04  4.21659E+03  2.24471E+04 -1.08819E+04  1.79381E+04
 -1.43983E+04  5.02582E+03 -7.13072E+03 -4.05613E+03  2.31529E+03 -5.15196E+03  9.31747E+03 -1.06957E+03
  8.12652E+03  8.25001E+03  1.27107E+03  1.44475E+04 -1.02877E+04  1.36373E+04 -1.78630E+04  3.17464E+03
 -1.27111E+04 -9.76428E+03 -2.86883E+02 -1.55701E+04  9.70008E+03 -7.76161E+03  1.12195E+04  3.76441E+03
  2.44148E+03  1.24327E+04 -9.24658E+03  1.37402E+04 -1.63152E+04  6.13748E+03 -1.69373E+04 -6.06832E+03
 -9.35352E+03 -1.88491E+04  4.61791E+03 -2.15723E+04  1.83240E+04 -1.28954E+04  1.98093E+04  3.50685E+03
  1.15868E+04  1.55333E+04 -2.08438E+03  1.85497E+04 -1.31431E+04  1.03662E+04 -1.57515E+04 -1.86495E+03
 -1.24464E+04 -1.15371E+04 -1.99763E+03 -1.39836E+04  7.73760E+03 -1.12904E+04  9.25421E+03 -3.72709E+03
  5.63143E+03  2.70758E+03 -1.95636E+03  2.27676E+03 -1.36110E+03 -4.93506E+03  3.16918E+03 -9.58450E+03
  1.38603E+04 -6.01846E+03  1.96049E+04  2.50656E+03  1.92214E+04  1.35730E+04  1.13770E+04  2.54714E+04
 -6.20329E+03  2.90555E+04 -2.39592E+04  2.14285E+04 -3.12436E+04  4.31603E+03 -2.51648E+04 -1.09303E+04
 -1.29139E+04 -2.04233E+04 -7.63970E+02 -1.80365E+04  6.36042E+03 -1.04837E+04  5.95982E+03 -6.37590E+03
  5.03550E+03 -3.32110E+03  4.99793E+03 -4.35391E+03  6.98425E+03 -4.17756E+03  9.71919E+03 -1.85402E+03
  1.32805E+04  2.45124E+03  7.31202E+03  1.17547E+04 -2.34792E+03  1.39278E+04 -1.37554E+04  1.05597E+04
 -1.80364E+04 -1.18194E+03 -1.27776E+04 -1.28069E+04 -1.96790E+03 -1.95110E+04  1.04397E+04 -1.95471E+04
  2.06402E+04 -1.02411E+04  2.41685E+04  3.69669E+03  1.67638E+04  1.72217E+04  2.52828E+03  2.19369E+04
 -9.00207E+03  1.72033E+04 -1.33090E+04  6.14409E+03 -9.49805E+03 -2.00114E+03 -3.74252E+03 -2.38886E+03
 -1.40443E+03 -7.41695E+02 -3.06635E+03  3.60775E+03 -7.41157E+03  2.82551E+03 -1.21004E+04 -2.03345E+03
 -9.72813E+03 -1.24672E+04 -1.81834E+02 -1.82691E+04  1.18596E+04 -1.68853E+04  1.88647E+04 -5.75623E+03
  1.82766E+04  8.97888E+03  8.83672E+03  1.71266E+04 -3.50276E+03  1.95333E+04 -1.32807E+04  1.16793E+04
 -1.81333E+04  1.05593E+03 -1.28328E+04 -1.16616E+04 -1.20612E+03 -1.58357E+04  8.42919E+03 -1.20798E+04
  1.16208E+04 -3.69162E+03  8.19548E+03  3.24685E+03  2.45963E+03  5.46667E+03  1.22859E+03  2.41266E+03
  3.28096E+03  1.59419E+03  4.51105E+03  1.95349E+03  5.62028E+03  6.47570E+03  4.83006E+03  1.03080E+04
 -3.68684E+03  1.59124E+04 -1.34996E+04  1.48173E+04 -2.00055E+04  3.68150E+03 -2.01732E+04 -8.83019E+03
 -9.40448E+03 -1.91993E+04  2.83791E+03 -2.12379E+04  1.19558E+04 -1.35376E+04  1.59637E+04 -3.69763E+03
  1.18161E+04  6.91820E+03  3.08784E+03  1.11459E+04 -5.88144E+03  7.59425E+03 -8.24195E+03 -1.33695E+03
 -3.70325E+03 -8.29789E+03  4.50974E+03 -8.85901E+03  8.33750E+03 -4.23175E+03  8.57014E+03  2.18042E+03
  4.34354E+03  4.68734E+03  1.66796E+03  3.73535E+03 -1.09365E+03  2.64998E+03  1.60122E+03 -9.30450E+02
  3.62462E+03 -1.05557E+03  8.24213E+03  3.58341E+03  5.03629E+03  1.01238E+04 -2.04697E+03  1.36559E+04
 -9.86577E+03  9.43657E+03 -1.32265E+04  2.51294E+03 -1.13034E+04 -4.48753E+03 -4.96772E+03 -7.09185E+03
  1.30624E+03 -7.18513E+03  5.50724E+03 -3.83798E+03  4.40049E+03  3.54963E+03 -2.01723E+03  6.45458E+03
 -8.05278E+03  4.04867E+03 -9.38410E+03 -4.52820E+03 -5.50824E+03 -1.08265E+04  1.59105E+03 -1.10754E+04
  6.84064E+03 -6.89068E+03  8.08810E+03 -8.53305E+02  6.52730E+03  3.23949E+03  8.72979E+02  6.07528E+03
 -4.40322E+03  1.90817E+03 -4.72625E+03 -3.86165E+03  1.65593E+03 -9.21485E+03  9.92732E+03 -7.00765E+03
  1.28323E+04  7.38976E+02  1.21134E+04  9.13389E+03  4.33880E+03  1.36551E+04 -5.14421E+03  1.26979E+04
 -1.11454E+04  6.00855E+03 -1.15777E+04 -1.14762E+03 -6.34279E+03 -8.92530E+03  1.84752E+03 -8.86746E+03
  8.41664E+03 -4.00878E+03  7.23637E+03  3.72654E+03  2.84309E+03  7.09289E+03 -1.11958E+03  6.07326E+03
 -3.68291E+03  4.41524E+03 -2.96316E+03  1.47995E+03 -1.49593E+03  9.44355E+02 -1.74722E+03  3.02230E+03
 -3.31741E+03  4.70057E+03 -9.19761E+03  5.19400E+03 -1.44499E+04  2.91420E+02 -1.50938E+04 -9.14947E+03
 -8.14829E+03 -1.86909E+04  3.64765E+03 -2.11946E+04  1.32887E+04 -1.62596E+04  1.99765E+04 -6.04906E+03
  1.82588E+04  4.11497E+03  1.13170E+04  1.31403E+04  1.29870E+03  1.49251E+04 -5.87582E+03  1.08495E+04
 -8.03970E+03  4.03311E+03 -5.80990E+03 -2.39555E+03 -1.47785E+03 -1.85775E+03 -8.41472E+02  3.60106E+01
 -2.38046E+03  5.68169E+02 -2.72684E+03 -4.27155E+02 -1.90327E+03 -3.18730E+03  3.09229E+02 -5.73249E+03
  6.14100E+03 -4.60557E+03  9.60225E+03 -1.44538E+02  1.01694E+04  7.96711E+03  3.20333E+03  1.53708E+04
 -6.99006E+03  1.68165E+04 -1.59413E+04  9.54897E+03 -1.86139E+04 -1.63836E+03 -1.38321E+04 -1.16390E+04
 -5.39153E+03 -1.52417E+04  4.07006E+03 -1.37610E+04  9.45156E+03 -7.58424E+03  9.87837E+03  1.59924E+02
  5.78846E+03  5.17168E+03 -6.28320E+02  4.28937E+03 -2.50097E+03 -4.80518E+02  5.93105E+02 -3.21188E+03
  4.59722E+03 -2.24520E+03  5.83712E+03  1.96700E+03  4.03064E+03  5.78385E+03  2.65184E+02  8.12708E+03
 -6.39865E+03  6.86295E+03 -1.06092E+04  3.85691E+02 -9.71905E+03 -7.48287E+03 -1.61501E+03 -1.26874E+04
  6.97357E+03 -1.08465E+04  1.22500E+04 -3.44615E+03  1.18298E+04  3.49905E+03  6.80607E+03  9.16124E+03
  1.20635E+03  1.05591E+04 -3.94897E+03  7.92923E+03 -6.54121E+03  4.50892E+03 -5.78593E+03  6.38781E+02
 -2.72035E+03 -5.67241E+02 -2.40570E+03  1.08627E+03 -5.26023E+03  1.61537E+03 -8.03875E+03 -1.12041E+03
 -7.57873E+03 -6.05633E+03 -2.06046E+03 -1.04970E+04  4.32708E+03 -1.07895E+04  1.01056E+04 -5.63431E+03
  1.02839E+04  1.31774E+03  6.38899E+03  7.77242E+03 -8.72073E+02  1.04348E+04 -8.03141E+03  6.83227E+03
