 $NMID ID='MM_0lb_SNR800_18hz_g45_82.RAW', FMTDAT='(8E13.5)'
 TRAMP=1., VOLUME=1. $END
  3.09697E+05  5.44634E+02  3.37559E+05  2.50296E+05  8.45452E+04  3.36972E+05 -1.32401E+05  2.50557E+05
 -1.89428E+05  8.24253E+04 -1.11052E+05 -3.29925E+04  1.37601E+03 -5.02399E+04  5.39936E+04  2.90637E+02
  3.51589E+04  5.29827E+04 -1.69905E+04  7.49354E+04 -6.03538E+04  6.29141E+04 -8.32832E+04  3.17223E+04
 -7.98252E+04 -1.12541E+04 -5.62708E+04 -5.02368E+04 -1.51043E+04 -6.82495E+04  2.66202E+04 -4.47488E+04
  3.95233E+04  3.85770E+03  1.51485E+04  4.72032E+04 -3.38227E+04  4.63938E+04 -6.55127E+04 -4.90054E+02
 -5.20419E+04 -5.58478E+04 -6.34511E+03 -7.52795E+04  3.31580E+04 -5.32790E+04  4.63761E+04 -1.62010E+04
  4.15488E+04  1.10450E+04  3.08823E+04  2.45318E+04  1.57584E+04  2.82241E+04 -4.71929E+03  2.69037E+04
 -2.14223E+04  1.27162E+04 -1.90311E+04 -4.32451E+03  4.53776E+03 -7.74803E+03  2.10399E+04  1.08121E+04
  7.50265E+03  3.32143E+04 -3.07067E+04  3.39080E+04 -6.09669E+04  2.29021E+03 -5.55007E+04 -4.14839E+04
 -1.23037E+04 -6.10740E+04  3.81076E+04 -4.37489E+04  5.56748E+04 -1.88017E+03  3.20311E+04  3.08688E+04
 -6.43489E+03  3.33019E+04 -2.84735E+04  1.36871E+04 -2.78331E+04 -5.17894E+03 -1.45720E+04 -1.00574E+04
 -7.24588E+03 -1.16074E+04 -9.97708E+02 -1.67789E+04  6.78758E+03 -2.25934E+04  1.51312E+04 -1.39765E+04
  1.22582E+04  4.13832E+03 -6.57924E+03  1.27758E+04 -1.95493E+04 -2.55651E+03 -8.30268E+03 -3.05860E+04
  2.10227E+04 -4.06565E+04  4.47679E+04 -1.87271E+04  4.20165E+04  1.83705E+04  1.45806E+04  4.18203E+04
 -1.53263E+04  3.14493E+04 -2.36917E+04  1.26239E+03 -8.23089E+03 -2.62750E+04  2.06251E+04 -3.14424E+04
  3.82530E+04 -7.44855E+03  3.17922E+04  2.28922E+04  1.52731E+04  4.26015E+04 -7.76178E+03  4.55050E+04
 -2.86168E+04  3.00484E+04 -3.74499E+04  8.57685E+03 -3.86417E+04 -1.53296E+04 -2.13215E+04 -3.48308E+04
  7.02986E+03 -3.40686E+04  2.91387E+04 -1.28293E+04  2.67420E+04  1.06742E+04  3.06971E+03  1.76851E+04
 -1.30532E+04  7.38154E+03 -9.97514E+03 -7.72407E+03  5.98051E+03 -9.95121E+03  1.72722E+04  6.48823E+03
  1.26949E+04  2.15043E+04 -7.15202E+03  2.33706E+04 -2.15906E+04  9.57598E+03 -2.52979E+04 -6.14904E+03
 -1.69356E+04 -1.65652E+04 -5.87943E+03 -1.69114E+04  3.95018E+03 -1.48936E+04  1.25455E+04 -1.47723E+04
  2.14050E+04 -1.17543E+04  2.80534E+04  1.21979E+03  2.13725E+04  1.64848E+04  4.03819E+03  3.27238E+04
 -1.60585E+04  2.73889E+04 -2.60680E+04  9.33018E+03 -1.96850E+04 -1.04409E+04 -3.96051E+03 -1.39661E+04
  2.49809E+03 -3.95314E+03 -2.92629E+03  5.44656E+03 -1.31624E+04  5.29134E+03 -1.34345E+04 -4.94401E+03
 -8.96380E+03 -1.55443E+04  4.62692E+03 -1.94330E+04  1.28985E+04 -1.39996E+04  1.48841E+04 -1.38898E+03
  9.21847E+03  1.10735E+04 -7.28772E+02  1.60411E+04 -1.04560E+04  8.81896E+03 -1.55963E+04 -3.46773E+03
 -1.16601E+04 -1.44216E+04 -1.23164E+03 -1.91653E+04  8.84098E+03 -1.55805E+04  1.63261E+04 -7.24423E+03
  1.46763E+04  9.19138E+02  1.04272E+04  3.82444E+03  5.22855E+03  2.50977E+02  7.78098E+03 -1.39811E+03
  1.39746E+04  2.61087E+03  1.51240E+04  1.28635E+04  9.49867E+03  2.49207E+04 -3.08100E+03  2.73311E+04
 -1.61436E+04  2.05113E+04 -2.48679E+04  9.91646E+03 -2.55033E+04 -1.93359E+03 -2.19565E+04 -1.45417E+04
 -1.02499E+04 -2.08566E+04  7.03911E+03 -1.95789E+04  1.68989E+04 -1.11189E+04  1.59310E+04  3.58285E+03
  6.32048E+03  1.13744E+04 -7.03072E+03  1.04593E+04 -1.34997E+04  2.79294E+03 -1.07654E+04 -7.82935E+03
 -2.46357E+02 -1.27713E+04  6.41753E+03 -9.68004E+03  7.85281E+03 -1.44651E+03  1.52188E+03  5.03888E+03
 -5.67797E+03  1.61225E+03 -4.06192E+03 -5.02871E+03  8.63069E+02 -1.03108E+04  8.17012E+03 -1.00905E+04
  1.26745E+04 -4.71300E+03  1.22333E+04  2.62098E+03  1.06688E+04  9.55380E+03  5.23833E+03  1.44972E+04
 -1.42615E+03  1.63223E+04 -9.84105E+03  1.02275E+04 -1.12692E+04  3.09163E+03 -8.58013E+03 -1.83524E+03
 -4.41373E+03 -3.37289E+03 -9.00365E+02  1.53089E+03 -1.73939E+03  1.86001E+03 -3.55056E+03  3.68952E+03
 -8.25199E+03 -3.23047E+02 -8.65851E+03 -7.19069E+03 -3.56356E+03 -1.16863E+04  3.57401E+03 -8.39601E+03
  7.20009E+03 -3.97686E+03  5.39536E+03  2.31128E+03  7.30757E+02  2.86441E+03 -3.66836E+03 -2.83106E+02
 -3.15198E+03 -5.13277E+03 -9.16619E+02 -7.33128E+03  3.97264E+03 -8.23674E+03  1.01179E+04 -4.16251E+03
  1.20313E+04  7.80427E+02  8.73844E+03  6.51453E+03  1.50026E+03  8.86340E+03 -5.47084E+03  8.33817E+03
 -7.31782E+03  2.95915E+03 -3.62746E+03 -1.45283E+03  1.16802E+03 -1.94360E+03  4.96385E+03 -6.78875E+02
  4.33176E+03  3.71078E+03  1.02989E+03  6.28339E+03 -4.62182E+03  6.39402E+03 -8.06492E+03  1.79631E+03
 -5.11533E+03 -3.98877E+03  3.50860E+02 -6.70041E+03  3.79112E+03 -3.39420E+03  3.80380E+03  9.95460E+02
  7.53249E+02  3.71354E+03 -3.96495E+03  4.91422E+03 -4.96516E+03  2.70663E+03 -4.76057E+03 -1.51485E+03
 -2.98333E+03 -5.76718E+03  1.07664E+03 -7.29104E+03  6.23464E+03 -4.74278E+03  6.62859E+03  8.54971E+02
  4.54713E+03  5.20087E+03  1.19376E+02  7.20062E+03 -5.21125E+03  4.32796E+03 -5.49798E+03 -4.18938E+02
 -5.93021E+03 -5.19536E+03 -1.43939E+03 -5.18865E+03  2.65027E+03 -4.77452E+03  2.89319E+03 -2.89068E+03
  2.86261E+03  2.95408E+02 -1.30437E+02  1.45654E+03  9.09898E+02 -4.00233E+02  1.23761E+02 -1.97135E+03
  3.88006E+03 -8.97806E+02  5.57025E+03  7.07839E+02  5.61825E+03  3.27148E+03  5.24620E+03  7.38405E+03
 -1.23505E+03  8.98040E+03 -7.78595E+03  6.48107E+03 -1.04051E+04  1.11030E+03 -8.28448E+03 -2.44613E+03
 -4.78413E+03 -6.55355E+03 -1.33099E+02 -5.42250E+03  2.17005E+03 -2.40878E+03  1.72507E+03 -2.13437E+03
  1.30297E+03 -1.73022E+03  2.18585E+03 -2.16353E+03  3.69757E+03 -1.16046E+03  3.83585E+03  1.83245E+02
  4.69870E+03  1.20709E+03  9.85395E+02  3.58022E+03 -1.57389E+03  3.27499E+03 -4.55727E+03  2.89821E+03
 -5.17800E+03 -1.38476E+03 -1.73503E+03 -3.72861E+03  3.06512E+02 -5.35209E+03  3.41725E+03 -5.57392E+03
  5.50424E+03 -3.51517E+03  6.95246E+03  5.75383E+02  5.12929E+03  4.52319E+03  1.34758E+03  5.94578E+03
 -2.20378E+03  6.23858E+03 -3.20176E+03  1.91661E+03 -1.98095E+03 -1.12380E+03 -3.63809E+02 -6.51928E+02
 -6.79515E+02  2.84618E+02 -1.06800E+03  2.00100E+03 -2.66113E+03  1.17910E+03 -4.45724E+03 -4.43324E+02
 -1.81002E+03 -4.21239E+03  9.33809E+02 -4.76939E+03  3.09532E+03 -4.61504E+03  3.66775E+03 -1.18347E+03
  4.25819E+03  2.51924E+03  1.78758E+03  3.76871E+03 -1.24658E+03  4.84158E+03 -2.89151E+03  2.57886E+03
 -4.03124E+03  6.12545E+02 -3.28423E+03 -2.64717E+03 -1.39623E+02 -3.47957E+03  1.73563E+03 -2.51487E+03
  2.73569E+03 -1.16998E+03  1.75405E+03  3.22420E+02  5.15105E+02  1.67844E+03  1.17399E+03  4.42644E+02
  1.74677E+03  6.97629E+02  1.23291E+03  9.81239E+02  1.26985E+03  2.26078E+03  1.42024E+03  1.64549E+03
 -1.06331E+03  3.59678E+03 -2.85507E+03  4.46744E+03 -3.20900E+03  1.21810E+03 -4.50331E+03 -6.17516E+02
 -1.89442E+03 -3.90762E+03  5.54679E+02 -5.06062E+03  2.00582E+03 -2.73890E+03  3.44126E+03 -7.35984E+02
  2.73139E+03  2.13714E+03  2.25785E+02  2.77445E+03 -7.66344E+02  9.27584E+02 -1.14514E+03 -2.25196E+02
 -5.19568E+02 -1.76848E+03  1.37004E+03 -1.55165E+03  1.49417E+03 -9.64404E+02  1.39804E+03  3.20972E+02
  7.18742E+02  8.90786E+01  9.12776E+02 -2.43366E+02 -3.44806E+02  7.21436E+02  1.41427E+03 -4.22398E+02
 -2.82419E+01 -2.09618E+02  1.95030E+03  6.21376E+02  2.85228E+02  2.55227E+03 -2.42462E+02  2.94298E+03
 -1.81575E+03  1.04684E+03 -2.41801E+03  4.24121E+02 -2.34712E+03 -1.00951E+03 -3.34650E+02 -9.78908E+02
  2.50554E+02 -1.18089E+03  1.07899E+03 -6.41104E+02  8.67687E+02  1.34468E+03 -7.52242E+02  1.43568E+03
 -1.76589E+03  1.02250E+03 -1.27647E+03 -1.58662E+03 -8.37208E+02 -2.59581E+03  4.42494E+02 -1.79833E+03
  6.01366E+02 -7.34500E+02  8.71976E+02  3.55832E+02  1.26535E+03 -2.16882E+02  3.29293E+02  9.89885E+02
 -2.77362E+01  8.34803E+01 -1.05020E+03 -4.07437E+02  4.13500E+02 -1.16274E+03  2.09031E+03 -1.02182E+03
  1.37188E+03  2.51953E+02  2.76267E+03  7.14129E+02  1.03083E+03  1.95125E+03 -2.41830E+02  1.95141E+03
 -1.74483E+03  1.03924E+02 -1.61863E+03 -2.99792E+02 -8.86227E+02 -1.46869E+03  5.07757E+02 -7.16033E+02
  1.53605E+03 -5.75168E+02  8.04683E+02  7.91783E+02  5.20704E+02  1.51637E+03  1.49632E+02  1.27680E+03
 -1.14052E+02  1.38439E+03 -5.35319E+02  3.45597E+02 -3.55193E+01  5.92504E+02 -6.32661E+02  5.76101E+02
 -6.47752E+02  1.07499E+03 -1.77031E+03  5.95777E+02 -1.53440E+03 -2.99425E+01 -2.59201E+03 -1.14915E+03
 -1.18245E+03 -2.78211E+03  4.78961E+02 -2.95300E+03  1.06279E+03 -2.52712E+03  2.97185E+03 -9.85108E+02
  2.51040E+03 -9.31417E+01  1.34791E+03  2.00862E+03 -5.77898E+02  1.62943E+03 -6.40683E+02  1.52920E+03
 -1.13223E+03  8.38756E+02 -6.38122E+02 -2.40584E+02 -4.51511E+02  2.52380E+02 -5.23369E+02  1.16741E+02
 -1.51481E+03 -8.07691E+00 -8.34090E+02  2.90341E+02  2.82707E+02 -5.26735E+02 -4.63754E+02 -8.33135E+02
  1.27891E+03 -4.98645E+02  5.77037E+02  7.97664E+01  1.37136E+03  1.04062E+03 -2.02238E+02  1.35317E+03
 -1.08569E+03  2.21567E+03 -1.72052E+03  1.54303E+03 -1.81831E+03  6.04661E+01 -1.40765E+03 -1.58821E+03
 -7.93198E+02 -1.10625E+03  3.38095E+02 -1.25771E+03  7.94600E+02 -7.05963E+02  8.58129E+02  1.82561E+02
  5.72459E+02  5.26287E+02  1.74404E+02  4.66289E+02 -4.59060E+02  3.96389E-02 -7.70124E+01 -5.45530E+02
  6.65336E+02  8.32651E+01  5.56737E+02  3.50155E+02  3.03455E+02  4.94822E+02  5.97531E+02 -2.89823E+01
 -4.53025E+02  5.29298E+02 -6.93504E+02  1.69256E+02 -8.13104E+02 -6.13940E+02  2.24728E+02 -1.49307E+03
  7.33429E+02 -9.95922E+02  6.53017E+02  4.21579E+01  1.21987E+03 -5.37586E+02  5.91921E+02  6.87841E+02
  3.49032E+02  6.56343E+02 -4.35751E+00  5.80767E+02 -9.24882E+02  6.25163E+02 -5.63457E+02  3.34675E+01
 -3.14284E+02  2.31100E+02 -3.70784E+02 -1.65185E+02 -5.68359E+02  4.39238E+02 -7.90049E+02 -4.21441E+02
 -1.32410E+03  1.52124E+02 -5.45687E+02 -9.60852E+02  8.26034E+02 -1.40668E+03  8.96151E+02 -3.47573E+02
  7.47077E+02  1.18753E+02 -8.93260E+01  1.09470E+02  1.19175E+02  9.15158E+02 -4.54543E+02  7.43756E+02
