 $NMID ID='MM_0lb_SNR800_16hz_g45_15.RAW', FMTDAT='(8E13.5)'
 TRAMP=1., VOLUME=1. $END
  3.09710E+05  3.93299E+02  3.37150E+05  2.50545E+05  8.44878E+04  3.37688E+05 -1.32420E+05  2.50349E+05
 -1.89779E+05  8.27061E+04 -1.11297E+05 -3.28846E+04  8.71644E+02 -5.03619E+04  5.37196E+04  3.35406E+02
  3.49521E+04  5.29326E+04 -1.69316E+04  7.51740E+04 -6.05074E+04  6.29497E+04 -8.33675E+04  3.16618E+04
 -7.98963E+04 -1.12366E+04 -5.67185E+04 -5.07688E+04 -1.53603E+04 -6.90361E+04  2.68478E+04 -4.53025E+04
  3.92071E+04  3.71347E+03  1.61727E+04  4.74286E+04 -3.38332E+04  4.66584E+04 -6.56525E+04 -5.04479E+02
 -5.24689E+04 -5.62782E+04 -6.49312E+03 -7.64095E+04  3.34454E+04 -5.42371E+04  4.71284E+04 -1.66700E+04
  4.25200E+04  1.16027E+04  3.10245E+04  2.51781E+04  1.58349E+04  2.86798E+04 -5.06966E+03  2.68137E+04
 -2.20930E+04  1.26334E+04 -1.89497E+04 -4.80191E+03  4.97535E+03 -7.55817E+03  2.14281E+04  1.15728E+04
  7.04221E+03  3.40971E+04 -3.13864E+04  3.46857E+04 -6.23088E+04  2.21422E+03 -5.60122E+04 -4.21023E+04
 -1.23504E+04 -6.19796E+04  3.88680E+04 -4.40660E+04  5.67337E+04 -2.20134E+03  3.32212E+04  3.12328E+04
 -6.14911E+03  3.45267E+04 -2.91595E+04  1.45287E+04 -2.88354E+04 -4.56745E+03 -1.55136E+04 -1.02928E+04
 -8.01175E+03 -1.24359E+04 -1.02939E+03 -1.70461E+04  7.06074E+03 -2.28662E+04  1.54099E+04 -1.34611E+04
  1.18413E+04  4.55649E+03 -7.19112E+03  1.31939E+04 -2.00598E+04 -3.30421E+03 -8.17855E+03 -3.16349E+04
  2.16288E+04 -4.17183E+04  4.64986E+04 -1.90905E+04  4.35967E+04  1.85173E+04  1.50338E+04  4.28339E+04
 -1.54136E+04  3.18163E+04 -2.43785E+04  1.31879E+03 -8.93414E+03 -2.70877E+04  2.04592E+04 -3.24118E+04
  3.94466E+04 -8.13349E+03  3.32001E+04  2.30936E+04  1.64764E+04  4.45148E+04 -7.65699E+03  4.74007E+04
 -3.00638E+04  3.17759E+04 -3.94751E+04  9.08897E+03 -4.04635E+04 -1.58881E+04 -2.21742E+04 -3.59984E+04
  7.16690E+03 -3.59952E+04  3.00418E+04 -1.35935E+04  2.79281E+04  1.09017E+04  3.59777E+03  1.86243E+04
 -1.33374E+04  7.82808E+03 -9.99540E+03 -7.78528E+03  5.57717E+03 -1.06552E+04  1.77380E+04  6.27924E+03
  1.28915E+04  2.21150E+04 -6.14214E+03  2.41237E+04 -2.21173E+04  1.04422E+04 -2.64445E+04 -5.54320E+03
 -1.87633E+04 -1.69822E+04 -7.05665E+03 -1.86580E+04  3.88626E+03 -1.71778E+04  1.40094E+04 -1.62086E+04
  2.36691E+04 -1.21190E+04  3.01799E+04  1.83914E+03  2.24276E+04  1.79438E+04  3.97636E+03  3.45723E+04
 -1.70438E+04  2.88671E+04 -2.68022E+04  1.00627E+04 -2.02023E+04 -1.05406E+04 -4.23313E+03 -1.37846E+04
  2.23987E+03 -3.49858E+03 -3.74004E+03  6.01004E+03 -1.44875E+04  5.39199E+03 -1.47535E+04 -5.99684E+03
 -9.46715E+03 -1.68739E+04  4.96515E+03 -2.13874E+04  1.40227E+04 -1.52432E+04  1.60396E+04 -1.66354E+03
  1.03033E+04  1.16831E+04 -1.12821E+03  1.72893E+04 -1.16177E+04  9.63614E+03 -1.72230E+04 -3.47800E+03
 -1.29125E+04 -1.55977E+04 -1.57185E+03 -2.06852E+04  9.33184E+03 -1.67473E+04  1.74162E+04 -8.09329E+03
  1.59010E+04  4.96285E+02  1.15959E+04  4.21453E+03  6.07180E+03  5.72565E+02  8.38053E+03 -1.51963E+03
  1.56064E+04  2.86951E+03  1.69120E+04  1.37655E+04  1.06274E+04  2.73052E+04 -3.35236E+03  3.01175E+04
 -1.79283E+04  2.34029E+04 -2.80404E+04  1.17517E+04 -2.86850E+04 -1.84543E+03 -2.41020E+04 -1.67214E+04
 -1.09374E+04 -2.38543E+04  7.90879E+03 -2.16259E+04  1.88327E+04 -1.15360E+04  1.74730E+04  4.41690E+03
  7.07426E+03  1.27229E+04 -7.94034E+03  1.13559E+04 -1.46662E+04  2.77467E+03 -1.13093E+04 -8.93365E+03
 -5.88640E+01 -1.36720E+04  6.83455E+03 -1.03646E+04  8.86345E+03 -1.50951E+03  1.80758E+03  5.83329E+03
 -6.28047E+03  1.99759E+03 -4.68845E+03 -4.94059E+03 -7.24335E+01 -1.19388E+04  8.79013E+03 -1.18992E+04
  1.43698E+04 -5.62070E+03  1.46826E+04  2.96271E+03  1.27947E+04  1.11171E+04  6.08197E+03  1.68388E+04
 -2.39758E+03  1.89334E+04 -1.17709E+04  1.20471E+04 -1.31907E+04  3.16882E+03 -9.75557E+03 -2.54569E+03
 -4.96010E+03 -3.99273E+03 -8.17492E+02  1.28846E+03 -2.20185E+03  2.05133E+03 -4.30539E+03  4.00467E+03
 -9.11632E+03 -3.26426E+02 -1.00603E+04 -7.73756E+03 -4.14737E+03 -1.30886E+04  4.18719E+03 -9.87171E+03
  8.25385E+03 -4.03283E+03  6.24416E+03  2.39418E+03  4.73207E+02  3.75151E+03 -4.02429E+03 -8.65536E+01
 -4.19562E+03 -5.73354E+03 -7.30317E+02 -8.71325E+03  4.74957E+03 -9.56917E+03  1.18541E+04 -4.92273E+03
  1.37769E+04  1.03216E+03  1.02838E+04  7.37759E+03  1.78474E+03  1.07238E+04 -5.92536E+03  9.33239E+03
 -8.22823E+03  3.30969E+03 -4.08081E+03 -1.73773E+03  1.49382E+03 -2.17833E+03  5.46530E+03 -1.01778E+03
  4.50915E+03  4.12190E+03  1.14584E+03  7.41355E+03 -5.24113E+03  7.34169E+03 -9.47104E+03  1.91945E+03
 -6.07456E+03 -4.31205E+03  2.79569E+02 -7.75588E+03  4.63659E+03 -3.92995E+03  4.63003E+03  1.43846E+03
  7.55312E+02  4.74602E+03 -4.86058E+03  5.52632E+03 -6.21493E+03  3.29808E+03 -6.03258E+03 -1.76932E+03
 -3.57495E+03 -7.45205E+03  1.26113E+03 -9.27358E+03  7.77151E+03 -5.72333E+03  8.36106E+03  1.42057E+03
  5.82543E+03  6.92209E+03 -2.92793E+02  9.03693E+03 -6.18750E+03  5.16323E+03 -6.63414E+03 -5.60363E+02
 -6.53247E+03 -6.11513E+03 -1.62530E+03 -6.46755E+03  3.23071E+03 -5.57621E+03  3.79521E+03 -3.25476E+03
  2.91623E+03  6.46623E+02 -1.04227E+02  1.45288E+03  5.22794E+02 -8.16505E+02  5.84034E+02 -2.80245E+03
  5.23916E+03 -1.47045E+03  7.08361E+03  8.78940E+02  7.38334E+03  4.25863E+03  6.06260E+03  9.75016E+03
 -1.60324E+03  1.10056E+04 -9.65694E+03  8.30148E+03 -1.25619E+04  1.58623E+03 -9.84110E+03 -3.69081E+03
 -5.22907E+03 -8.18875E+03 -5.28322E+02 -6.90201E+03  2.74292E+03 -3.20160E+03  2.43449E+03 -2.58892E+03
  1.35459E+03 -1.91448E+03  2.21417E+03 -2.49296E+03  3.80745E+03 -1.51688E+03  3.98835E+03  1.74547E+02
  5.14180E+03  1.46605E+03  1.73556E+03  4.54735E+03 -1.50134E+03  4.16647E+03 -5.38375E+03  3.53545E+03
 -7.01184E+03 -1.00991E+03 -2.90954E+03 -4.73864E+03  8.97778E+01 -6.47655E+03  4.00800E+03 -6.92129E+03
  6.72261E+03 -4.22748E+03  8.75454E+03  4.29804E+02  6.13577E+03  5.78735E+03  1.28564E+03  7.71587E+03
 -2.66427E+03  7.22507E+03 -4.33428E+03  2.44549E+03 -2.76750E+03 -1.12750E+03 -7.90270E+02 -6.10208E+02
 -4.61641E+02  1.69408E+02 -1.00039E+03  2.08481E+03 -3.05970E+03  1.09813E+03 -5.16412E+03 -3.78113E+02
 -2.56543E+03 -5.04344E+03  7.30533E+02 -6.31100E+03  3.73973E+03 -5.82125E+03  5.35543E+03 -1.56192E+03
  5.75226E+03  3.10748E+03  2.43796E+03  5.01514E+03 -1.32140E+03  6.16439E+03 -4.01724E+03  3.51740E+03
 -5.31843E+03  6.58994E+02 -4.42769E+03 -3.84026E+03 -2.61981E+02 -4.52402E+03  2.50170E+03 -3.57439E+03
  3.79746E+03 -1.65457E+03  2.51184E+03  9.90374E+02  7.44086E+02  2.18621E+03  1.19926E+03  8.42573E+02
  1.89169E+03  7.71533E+02  1.51483E+03  1.30963E+03  1.50159E+03  2.46729E+03  1.62638E+03  2.73583E+03
 -1.26242E+03  4.63865E+03 -3.77388E+03  4.96964E+03 -5.29862E+03  1.30153E+03 -5.89936E+03 -1.08196E+03
 -2.56671E+03 -5.52234E+03  8.24362E+02 -6.41250E+03  3.00926E+03 -3.66541E+03  4.50476E+03 -1.24091E+03
  3.76079E+03  2.41402E+03  6.72042E+02  3.22301E+03 -1.48296E+03  1.73955E+03 -1.71210E+03 -6.43864E+01
 -8.38932E+02 -2.14259E+03  1.39871E+03 -2.56313E+03  2.12105E+03 -1.18941E+03  2.02508E+03  4.22772E+02
  1.48483E+03  5.66285E+02  8.69096E+02  2.25501E+02 -6.41218E+02  7.72806E+02  1.54718E+03 -5.69391E+02
  2.25668E+02 -5.52764E+02  2.54159E+03  5.74294E+02  4.09085E+02  3.19222E+03 -7.64152E+02  3.75050E+03
 -2.50813E+03  1.84762E+03 -3.29441E+03  5.09311E+02 -3.09725E+03 -1.27184E+03 -8.14899E+02 -1.52895E+03
  2.38237E+02 -1.89429E+03  1.22314E+03 -9.70063E+02  9.38541E+02  1.67074E+03 -1.03691E+03  1.35216E+03
 -2.38247E+03  1.10080E+03 -2.13702E+03 -1.60349E+03 -1.13953E+03 -3.31953E+03  3.81728E+02 -2.47450E+03
  1.27709E+03 -1.17395E+03  1.49435E+03 -2.01461E+02  1.91447E+03  1.89490E+02  4.27039E+02  1.48780E+03
 -4.91481E+02  1.27550E+02 -1.21502E+03 -7.11877E+02  9.34732E+02 -1.51181E+03  2.32771E+03 -1.39072E+03
  2.25222E+03  4.74651E+02  3.40711E+03  1.39548E+03  1.33932E+03  2.82437E+03 -8.60766E+02  2.92957E+03
 -2.11575E+03  8.50099E+02 -2.50059E+03 -2.74447E+02 -1.47703E+03 -2.11257E+03  3.37913E+02 -1.19333E+03
  2.25958E+03 -9.78489E+02  1.36342E+03  9.61136E+02  4.09225E+02  1.93788E+03 -1.25274E+02  1.44545E+03
 -9.10053E+02  1.49157E+03 -6.76050E+02  2.94415E+02 -1.02572E+02  5.81598E+02 -9.55602E+02  7.94444E+02
 -1.18310E+03  1.17951E+03 -2.39243E+03  7.33027E+02 -2.67386E+03  3.79632E+01 -3.61300E+03 -1.48423E+03
 -1.70097E+03 -3.83330E+03  7.09556E+02 -4.52892E+03  1.92723E+03 -3.20485E+03  4.19754E+03 -1.48106E+03
  3.89072E+03  1.92305E+02  2.06281E+03  2.48457E+03 -3.34797E+02  2.83817E+03 -6.08851E+02  1.84900E+03
 -1.79044E+03  1.29393E+03 -7.89972E+02 -4.39458E+02 -7.16532E+02 -1.59584E+01 -8.51600E+02 -1.45630E+02
 -1.23913E+03 -8.27271E+01 -1.31286E+03  8.34908E+01  3.12263E+02 -9.77627E+02 -4.68939E+02 -1.41681E+03
  1.34869E+03 -8.02081E+02  1.11061E+03  2.24390E+02  1.72049E+03  1.91267E+03  2.01697E+01  2.47877E+03
 -1.75546E+03  3.21394E+03 -2.89759E+03  1.91185E+03 -3.00679E+03 -6.95542E+01 -2.02351E+03 -2.01085E+03
 -1.26204E+03 -2.51080E+03  5.32350E+02 -2.18062E+03  1.33969E+03 -7.45862E+02  1.41672E+03  2.78651E+02
  1.23181E+03  6.76551E+02 -1.64076E+02  4.28593E+02 -5.11751E+02 -7.62042E+01  7.38405E-01 -3.75706E+02
  6.68297E+02  1.66751E+02  7.23441E+02  5.20163E+02  2.88003E+02  8.77940E+02  1.63155E+02  8.38191E+02
 -8.65616E+02  1.13365E+03 -1.26618E+03  3.49205E+02 -1.69784E+03 -8.69885E+02  6.63986E+01 -2.02918E+03
  9.33227E+02 -1.59968E+03  1.16322E+03  1.89665E+02  1.80427E+03 -5.99892E+02  8.31668E+02  1.52531E+03
  6.60293E+02  1.26021E+03 -5.30442E+02  1.10497E+03 -8.80915E+02  5.69542E+02 -7.41117E+02  1.00859E+02
 -3.05833E+02 -2.25373E+02 -6.54911E+02  2.20033E+02 -1.01012E+03  3.85811E+02 -1.28988E+03 -2.67512E+02
 -1.44387E+03 -1.02443E+02 -3.75067E+02 -1.85388E+03  1.41074E+03 -2.09680E+03  1.07670E+03 -2.44100E+02
  1.42334E+03  9.31249E+01  1.84627E+02  5.38693E+02 -1.35945E+02  1.47411E+03 -8.89905E+02  9.87717E+02
