 $NMID ID='MM_0lb_SNR800_12hz_g55_61.RAW', FMTDAT='(8E13.5)'
 TRAMP=1., VOLUME=1. $END
  3.09505E+05  4.01024E+02  3.38148E+05  2.50524E+05  8.47818E+04  3.38359E+05 -1.32712E+05  2.51353E+05
 -1.90756E+05  8.33121E+04 -1.12303E+05 -3.24366E+04  4.08397E+02 -5.09310E+04  5.39636E+04 -5.67797E+02
  3.56649E+04  5.28105E+04 -1.65140E+04  7.58807E+04 -6.09708E+04  6.42909E+04 -8.48444E+04  3.27415E+04
 -8.17515E+04 -1.13929E+04 -5.78687E+04 -5.20811E+04 -1.49161E+04 -7.03163E+04  2.75799E+04 -4.64185E+04
  4.09938E+04  3.50251E+03  1.66453E+04  4.84008E+04 -3.49471E+04  4.75752E+04 -6.75971E+04 -3.80979E+02
 -5.43751E+04 -5.75486E+04 -7.30727E+03 -7.78741E+04  3.39415E+04 -5.60481E+04  4.89589E+04 -1.78600E+04
  4.43850E+04  1.16295E+04  3.27189E+04  2.66478E+04  1.58318E+04  3.03422E+04 -5.45565E+03  2.74179E+04
 -2.23029E+04  1.20393E+04 -1.84693E+04 -5.22057E+03  6.61319E+03 -7.44664E+03  2.29621E+04  1.34163E+04
  7.03176E+03  3.67989E+04 -3.29704E+04  3.61353E+04 -6.48046E+04  1.84273E+03 -5.81023E+04 -4.35519E+04
 -1.26282E+04 -6.49404E+04  4.05293E+04 -4.65432E+04  5.96194E+04 -2.49273E+03  3.55232E+04  3.33524E+04
 -6.00736E+03  3.82118E+04 -3.11694E+04  1.71627E+04 -3.22075E+04 -3.93725E+03 -1.80888E+04 -1.15750E+04
 -8.97972E+03 -1.43168E+04 -6.34409E+02 -1.90406E+04  8.34714E+03 -2.29086E+04  1.55901E+04 -1.27192E+04
  1.09674E+04  5.70954E+03 -9.40426E+03  1.29305E+04 -2.25832E+04 -5.70128E+03 -8.49198E+03 -3.58153E+04
  2.42184E+04 -4.53681E+04  5.04589E+04 -2.04786E+04  4.68700E+04  1.99895E+04  1.68960E+04  4.59913E+04
 -1.63017E+04  3.48399E+04 -2.65645E+04  2.30658E+03 -1.08971E+04 -2.83960E+04  2.11148E+04 -3.58593E+04
  4.28918E+04 -9.85326E+03  3.83286E+04  2.42445E+04  2.00270E+04  4.90353E+04 -8.11018E+03  5.30655E+04
 -3.35188E+04  3.63775E+04 -4.50472E+04  1.06030E+04 -4.51332E+04 -1.76557E+04 -2.49226E+04 -4.00856E+04
  7.36834E+03 -4.01001E+04  3.29904E+04 -1.65359E+04  3.06091E+04  1.10105E+04  4.46482E+03  2.02010E+04
 -1.37131E+04  9.30655E+03 -1.07661E+04 -7.76581E+03  5.81693E+03 -1.09901E+04  1.84851E+04  5.70818E+03
  1.42556E+04  2.22950E+04 -5.27652E+03  2.63433E+04 -2.30887E+04  1.31107E+04 -2.97421E+04 -3.50458E+03
 -2.27447E+04 -1.83467E+04 -9.94634E+03 -2.29449E+04  4.20200E+03 -2.27352E+04  1.79939E+04 -2.09620E+04
  2.93653E+04 -1.37692E+04  3.54192E+04  3.93482E+03  2.53574E+04  2.20817E+04  4.04632E+03  3.88170E+04
 -1.85985E+04  3.24964E+04 -2.92831E+04  1.12584E+04 -2.17043E+04 -1.03146E+04 -4.65306E+03 -1.32167E+04
  1.11142E+03 -1.80430E+03 -6.40960E+03  7.69224E+03 -1.84790E+04  5.19953E+03 -1.83470E+04 -8.40040E+03
 -1.13372E+04 -2.13306E+04  5.60427E+03 -2.52560E+04  1.70666E+04 -1.80548E+04  2.08273E+04 -1.65050E+03
  1.30327E+04  1.44321E+04 -1.42787E+03  2.10157E+04 -1.47592E+04  1.22249E+04 -2.14531E+04 -4.53560E+03
 -1.55083E+04 -1.89671E+04 -2.02758E+03 -2.55329E+04  1.17070E+04 -2.09453E+04  2.14386E+04 -1.07435E+04
  1.98066E+04  3.71399E+01  1.43968E+04  4.64042E+03  7.62021E+03  1.23838E+03  1.05553E+04 -2.00972E+03
  1.96369E+04  2.89020E+03  2.25002E+04  1.68443E+04  1.49028E+04  3.38861E+04 -2.88781E+03  3.92767E+04
 -2.24216E+04  3.22427E+04 -3.72272E+04  1.64369E+04 -3.89778E+04 -2.75250E+03 -3.22344E+04 -2.24372E+04
 -1.27767E+04 -3.24880E+04  1.12746E+04 -2.87735E+04  2.44245E+04 -1.39974E+04  2.18342E+04  6.77966E+03
  7.77578E+03  1.62001E+04 -1.03103E+04  1.39125E+04 -1.79452E+04  2.36635E+03 -1.37895E+04 -1.12139E+04
 -5.86721E+02 -1.70760E+04  9.27035E+03 -1.30599E+04  1.16848E+04 -1.50191E+03  2.89840E+03  7.65452E+03
 -7.86710E+03  3.36649E+03 -7.71002E+03 -6.50631E+03 -1.08318E+03 -1.56208E+04  1.05538E+04 -1.68090E+04
  1.95508E+04 -8.90222E+03  2.17047E+04  3.25174E+03  1.88410E+04  1.55253E+04  9.17204E+03  2.45986E+04
 -4.50488E+03  2.65038E+04 -1.70939E+04  1.62718E+04 -1.93218E+04  3.77321E+03 -1.27623E+04 -4.69607E+03
 -5.99699E+03 -6.06316E+03 -6.45988E+02  1.07336E+03 -2.46526E+03  3.03884E+03 -5.90856E+03  4.46110E+03
 -1.23427E+04 -6.84466E+02 -1.26377E+04 -1.01799E+04 -5.26886E+03 -1.65083E+04  5.69227E+03 -1.37577E+04
  1.10781E+04 -5.59530E+03  8.13987E+03  3.47461E+03 -1.58691E+02  5.12910E+03 -6.45289E+03 -1.18862E+02
 -6.21158E+03 -8.60243E+03 -1.02978E+03 -1.32047E+04  7.46424E+03 -1.37647E+04  1.69667E+04 -7.11345E+03
  2.00938E+04  1.82042E+03  1.45033E+04  1.16423E+04  3.17695E+03  1.53604E+04 -8.33802E+03  1.31215E+04
 -1.05876E+04  3.90396E+03 -5.80503E+03 -2.54348E+03  1.88002E+03 -3.43797E+03  7.15928E+03 -9.02373E+02
  6.48394E+03  6.19708E+03  1.10008E+03  1.04889E+04 -7.28091E+03  1.01236E+04 -1.32655E+04  2.55258E+03
 -8.90479E+03 -6.63765E+03  1.94096E+02 -1.08738E+04  7.19117E+03 -5.72687E+03  7.45204E+03  2.51083E+03
  1.74768E+03  8.05470E+03 -6.64571E+03  9.10073E+03 -1.03967E+04  4.27546E+03 -1.08603E+04 -4.02379E+03
 -6.28395E+03 -1.26780E+04  3.08724E+03 -1.43779E+04  1.21438E+04 -8.59263E+03  1.32872E+04  2.47058E+03
  8.12337E+03  1.03482E+04 -8.62510E+02  1.27808E+04 -9.32409E+03  7.51975E+03 -1.03898E+04 -9.71728E+02
 -9.01660E+03 -8.55876E+03 -1.41071E+03 -9.88709E+03  5.15436E+03 -7.66284E+03  5.75991E+03 -3.54666E+03
  4.39377E+03  1.51087E+03 -4.54167E+02  1.69311E+03 -4.71591E+02 -2.45838E+03  1.54892E+03 -5.55332E+03
  9.07060E+03 -3.81836E+03  1.23542E+04  1.69764E+03  1.21899E+04  8.47403E+03  8.35346E+03  1.59793E+04
 -3.55326E+03  1.88195E+04 -1.56620E+04  1.38442E+04 -2.01080E+04  2.36115E+03 -1.63886E+04 -6.90173E+03
 -8.16831E+03 -1.33046E+04 -3.52300E+02 -1.11081E+04  4.13974E+03 -5.84894E+03  3.72296E+03 -4.11933E+03
  2.98447E+03 -2.65472E+03  3.38939E+03 -3.32545E+03  5.05451E+03 -2.81728E+03  6.43823E+03 -6.34652E+02
  8.44063E+03  2.08602E+03  3.93270E+03  7.17532E+03 -2.26653E+03  7.96057E+03 -8.68146E+03  6.74556E+03
 -1.15253E+04 -1.12838E+03 -6.84232E+03 -7.55371E+03 -9.47597E+02 -1.19723E+04  7.07080E+03 -1.15735E+04
  1.22791E+04 -6.54523E+03  1.46952E+04  1.52272E+03  1.01774E+04  1.03083E+04  1.56604E+03  1.36184E+04
 -5.63348E+03  1.14356E+04 -7.65455E+03  4.05538E+03 -5.20486E+03 -1.31945E+03 -2.08236E+03 -1.70464E+03
 -1.11545E+03  8.18440E+01 -1.83469E+03  3.09913E+03 -4.93185E+03  2.26707E+03 -7.66062E+03 -9.65089E+02
 -5.15954E+03 -7.90184E+03  5.06562E+02 -1.06356E+04  6.70469E+03 -9.84988E+03  1.05249E+04 -2.96292E+03
  1.03770E+04  5.20217E+03  5.12798E+03  9.49051E+03 -1.89604E+03  1.07570E+04 -7.53525E+03  6.96021E+03
 -1.00808E+04  4.58871E+02 -7.90584E+03 -6.72426E+03 -9.00810E+02 -8.94197E+03  4.59305E+03 -6.17654E+03
  6.80816E+03 -2.27669E+03  4.84748E+03  2.04938E+03  1.68350E+03  3.18230E+03  1.05715E+03  1.58592E+03
  2.27878E+03  1.25002E+03  2.92926E+03  1.38317E+03  3.53539E+03  3.97766E+03  3.00336E+03  5.77323E+03
 -2.41914E+03  8.55315E+03 -7.20282E+03  8.45304E+03 -1.04083E+04  2.21886E+03 -1.11342E+04 -4.22618E+03
 -5.33747E+03 -1.01040E+04  1.27448E+03 -1.17894E+04  6.04407E+03 -7.28077E+03  8.43651E+03 -1.91467E+03
  6.31540E+03  4.28103E+03  1.65586E+03  5.85021E+03 -2.47269E+03  3.86918E+03 -3.78040E+03 -4.49310E+02
 -1.77100E+03 -4.29223E+03  2.64835E+03 -4.55224E+03  4.01942E+03 -2.01229E+03  4.06174E+03  9.61609E+02
  2.42309E+03  2.11143E+03  1.28107E+03  1.35787E+03 -9.13373E+02  1.35789E+03  1.26749E+03 -5.94104E+02
  1.47368E+03 -4.65014E+02  4.32747E+03  1.88835E+03  1.72776E+03  5.38404E+03 -6.36071E+02  7.54525E+03
 -4.76603E+03  4.15621E+03 -6.17016E+03  1.27630E+03 -5.97888E+03 -2.31801E+03 -1.90455E+03 -3.70885E+03
  6.18017E+02 -3.62384E+03  2.49071E+03 -1.78934E+03  2.17531E+03  2.36442E+03 -1.45967E+03  3.34439E+03
 -4.01432E+03  2.03945E+03 -4.50479E+03 -2.26484E+03 -2.65945E+03 -5.74998E+03  8.40081E+02 -5.35215E+03
  2.82529E+03 -3.25659E+03  3.74195E+03 -3.39847E+02  3.32237E+03  9.98141E+02  3.44983E+02  2.91327E+03
 -1.57681E+03  8.59144E+02 -2.63982E+03 -1.59855E+03  1.32098E+03 -4.11100E+03  4.95223E+03 -3.43989E+03
  5.95298E+03  3.54369E+02  6.04266E+03  4.03371E+03  2.21626E+03  6.26225E+03 -2.26281E+03  6.27436E+03
 -5.17671E+03  2.14883E+03 -5.43558E+03 -7.40933E+02 -3.17424E+03 -3.95571E+03  8.23741E+02 -3.60002E+03
  3.86559E+03 -2.04672E+03  3.15718E+03  1.63380E+03  9.12433E+02  3.57308E+03 -3.84611E+02  3.19659E+03
 -1.99272E+03  2.10969E+03 -1.84957E+03  9.62327E+02 -7.84802E+02  6.33701E+02 -1.31553E+03  1.23376E+03
 -1.70004E+03  2.60130E+03 -4.64031E+03  2.06703E+03 -6.12391E+03  1.67705E+02 -7.46699E+03 -3.85897E+03
 -3.50803E+03 -8.18147E+03  1.92665E+03 -9.46481E+03  5.77955E+03 -7.48902E+03  9.24491E+03 -2.71290E+03
  8.33393E+03  1.15625E+03  5.01604E+03  5.44306E+03  2.77261E+02  6.18860E+03 -2.34704E+03  4.85557E+03
 -3.52565E+03  2.11609E+03 -2.25011E+03 -5.99125E+02 -7.89701E+02 -5.14972E+02 -5.94056E+02  3.34223E+01
 -1.55391E+03 -3.37084E+01 -1.80138E+03 -4.27193E+02 -4.55204E+02 -1.38190E+03  4.46082E+01 -2.56454E+03
  2.89836E+03 -2.02775E+03  3.56738E+03 -1.60559E+01  4.46943E+03  3.66801E+03  8.91376E+02  6.17613E+03
 -2.98423E+03  7.50830E+03 -6.38771E+03  4.23121E+03 -7.67214E+03 -7.28104E+02 -5.66497E+03 -4.61894E+03
 -2.17563E+03 -6.27143E+03  2.06333E+03 -5.53447E+03  3.53360E+03 -3.07674E+03  3.77180E+03 -1.83808E+02
  2.18444E+03  1.89879E+03 -3.09466E+02  1.64075E+03 -1.24283E+03  1.52104E+01 -1.75679E+02 -1.47319E+03
  2.03841E+03 -6.25710E+02  2.18993E+03  6.47395E+02  1.52710E+03  2.28952E+03  2.85356E+02  2.87116E+03
 -2.48058E+03  2.63833E+03 -3.70534E+03  3.11408E+02 -3.50206E+03 -2.77071E+03 -6.18288E+02 -5.17541E+03
  2.77748E+03 -3.81377E+03  4.35825E+03 -1.56912E+03  4.28391E+03  7.59072E+02  2.67698E+03  3.43382E+03
  9.45227E+02  3.58323E+03 -1.26378E+03  2.76663E+03 -2.14293E+03  1.83931E+03 -2.04831E+03  2.98530E+02
 -1.25532E+03 -1.22183E+02 -1.08296E+03  9.66911E+02 -2.03641E+03  6.82436E+02 -3.08052E+03 -3.36084E+02
 -3.22123E+03 -1.75572E+03 -1.02329E+03 -3.79166E+03  1.43879E+03 -4.30727E+03  3.46487E+03 -1.95633E+03
  3.92229E+03  2.52500E+02  1.68689E+03  2.37272E+03 -2.58111E+02  4.05295E+03 -2.65122E+03  2.33820E+03
