 $NMID ID='MM_0lb_SNR800_8hz_g60_2.RAW', FMTDAT='(8E13.5)'
 TRAMP=1., VOLUME=1. $END
  3.09910E+05  5.12037E+02  3.37845E+05  2.50933E+05  8.49003E+04  3.38707E+05 -1.33113E+05  2.52274E+05
 -1.91145E+05  8.40215E+04 -1.12665E+05 -3.23826E+04  6.86386E+00 -5.12359E+04  5.33713E+04 -5.91287E+02
  3.55689E+04  5.29675E+04 -1.66104E+04  7.64988E+04 -6.18697E+04  6.42857E+04 -8.57783E+04  3.28610E+04
 -8.28386E+04 -1.18704E+04 -5.83715E+04 -5.27951E+04 -1.53018E+04 -7.13057E+04  2.85986E+04 -4.70824E+04
  4.15329E+04  3.83990E+03  1.70640E+04  4.89180E+04 -3.53892E+04  4.83809E+04 -6.91219E+04  2.92788E+02
 -5.55509E+04 -5.82584E+04 -7.44356E+03 -7.94097E+04  3.49405E+04 -5.76538E+04  5.05041E+04 -1.85461E+04
  4.57930E+04  1.16573E+04  3.37045E+04  2.71898E+04  1.61709E+04  3.14266E+04 -6.52865E+03  2.80551E+04
 -2.23866E+04  1.17969E+04 -1.78627E+04 -6.02359E+03  7.83462E+03 -6.98710E+03  2.43045E+04  1.42482E+04
  6.67254E+03  3.87502E+04 -3.46662E+04  3.74448E+04 -6.65595E+04  1.98425E+03 -5.97215E+04 -4.56048E+04
 -1.27628E+04 -6.69633E+04  4.25231E+04 -4.76682E+04  6.21826E+04 -2.95498E+03  3.74818E+04  3.51208E+04
 -4.63044E+03  4.06936E+04 -3.31000E+04  1.96984E+04 -3.45526E+04 -2.97167E+03 -2.05084E+04 -1.23969E+04
 -1.01870E+04 -1.56904E+04 -3.44134E+02 -2.01282E+04  8.74465E+03 -2.38346E+04  1.61317E+04 -1.26532E+04
  1.01845E+04  6.80106E+03 -1.11177E+04  1.32058E+04 -2.41680E+04 -7.56191E+03 -8.59731E+03 -3.90067E+04
  2.67463E+04 -4.84043E+04  5.36096E+04 -2.12677E+04  4.99638E+04  2.12716E+04  1.80576E+04  4.86095E+04
 -1.73568E+04  3.72828E+04 -2.87086E+04  2.88674E+03 -1.24636E+04 -3.00166E+04  2.18249E+04 -3.80916E+04
  4.58097E+04 -1.21401E+04  4.24049E+04  2.52509E+04  2.27997E+04  5.29529E+04 -8.03909E+03  5.87414E+04
 -3.65049E+04  4.01099E+04 -4.98375E+04  1.19886E+04 -4.97339E+04 -1.94368E+04 -2.72360E+04 -4.33931E+04
  8.15678E+03 -4.39614E+04  3.52356E+04 -1.79726E+04  3.33940E+04  1.15653E+04  5.07472E+03  2.16490E+04
 -1.40776E+04  1.04538E+04 -1.20668E+04 -7.40641E+03  5.64658E+03 -1.17934E+04  1.86513E+04  5.46678E+03
  1.57247E+04  2.28936E+04 -5.39506E+03  2.76040E+04 -2.39630E+04  1.51630E+04 -3.28059E+04 -2.24142E+03
 -2.73206E+04 -1.88409E+04 -1.31125E+04 -2.60617E+04  4.63588E+03 -2.82323E+04  2.12301E+04 -2.51610E+04
  3.46593E+04 -1.49298E+04  4.03301E+04  5.79936E+03  2.83302E+04  2.66857E+04  4.67236E+03  4.32452E+04
 -2.06688E+04  3.55757E+04 -3.16433E+04  1.23481E+04 -2.29908E+04 -1.02298E+04 -4.83218E+03 -1.31261E+04
  4.57079E+02 -4.44283E+02 -8.41913E+03  9.02371E+03 -2.21091E+04  4.56046E+03 -2.19054E+04 -1.06877E+04
 -1.28371E+04 -2.53897E+04  6.73235E+03 -2.97420E+04  2.02190E+04 -2.10462E+04  2.44902E+04 -1.97544E+03
  1.56009E+04  1.73791E+04 -1.56857E+03  2.50179E+04 -1.80601E+04  1.44040E+04 -2.55369E+04 -4.89502E+03
 -1.81573E+04 -2.22020E+04 -2.76142E+03 -2.99126E+04  1.40336E+04 -2.58050E+04  2.49988E+04 -1.32111E+04
  2.40949E+04 -5.00793E+02  1.71574E+04  5.70156E+03  9.67071E+03  1.68960E+03  1.33714E+04 -2.14135E+03
  2.44890E+04  2.49738E+03  2.80713E+04  1.98125E+04  1.94588E+04  4.09039E+04 -2.31443E+03  4.85817E+04
 -2.75014E+04  4.09081E+04 -4.60676E+04  2.13732E+04 -4.96907E+04 -3.66247E+03 -4.03908E+04 -2.90165E+04
 -1.55401E+04 -4.15293E+04  1.44728E+04 -3.59527E+04  3.07834E+04 -1.66715E+04  2.65682E+04  9.20282E+03
  8.84937E+03  2.04177E+04 -1.26207E+04  1.65397E+04 -2.18925E+04  2.48351E+03 -1.64322E+04 -1.43550E+04
  1.71934E+02 -2.12726E+04  1.15520E+04 -1.58980E+04  1.49484E+04 -1.64392E+03  3.77879E+03  9.72130E+03
 -9.83903E+03  5.04788E+03 -1.04063E+04 -7.31226E+03 -2.28612E+03 -1.98546E+04  1.29514E+04 -2.22122E+04
  2.60992E+04 -1.29239E+04  2.98798E+04  3.46548E+03  2.60470E+04  2.09485E+04  1.24260E+04  3.30739E+04
 -6.55812E+03  3.47427E+04 -2.28472E+04  2.15410E+04 -2.57619E+04  4.25138E+03 -1.71783E+04 -7.23407E+03
 -7.75656E+03 -8.63902E+03 -8.96598E+02  5.01398E+02 -3.11059E+03  4.01535E+03 -8.31107E+03  6.24120E+03
 -1.58896E+04 -1.21241E+03 -1.63742E+04 -1.34650E+04 -6.64250E+03 -2.12800E+04  7.07436E+03 -1.73937E+04
  1.41915E+04 -7.24983E+03  1.02660E+04  4.95075E+03 -1.00474E+03  7.38864E+03 -9.07658E+03 -1.99393E+02
 -8.53719E+03 -1.10023E+04 -1.32295E+03 -1.77535E+04  1.04315E+04 -1.86613E+04  2.25355E+04 -9.76559E+03
  2.66673E+04  2.84522E+03  1.95205E+04  1.63320E+04  3.62672E+03  2.17192E+04 -1.05639E+04  1.72834E+04
 -1.38772E+04  4.84580E+03 -7.40951E+03 -3.91196E+03  2.55681E+03 -4.98218E+03  9.13462E+03 -8.94309E+02
  7.94204E+03  7.78325E+03  8.26681E+02  1.38206E+04 -1.03990E+04  1.34893E+04 -1.78390E+04  3.21353E+03
 -1.26266E+04 -9.44977E+03 -1.12582E+02 -1.51480E+04  1.04688E+04 -8.05813E+03  1.09654E+04  4.03401E+03
  3.02650E+03  1.14811E+04 -9.28056E+03  1.37254E+04 -1.60687E+04  5.57994E+03 -1.66220E+04 -6.14525E+03
 -9.64439E+03 -1.83421E+04  4.75140E+03 -2.07097E+04  1.78363E+04 -1.26941E+04  1.95534E+04  3.73235E+03
  1.17150E+04  1.53413E+04 -1.81276E+03  1.83890E+04 -1.41508E+04  1.03094E+04 -1.52510E+04 -1.34817E+03
 -1.18903E+04 -1.17438E+04 -1.93655E+03 -1.38788E+04  7.39603E+03 -1.08879E+04  9.31769E+03 -3.89473E+03
  5.11973E+03  2.71265E+03 -1.44472E+03  2.00932E+03 -7.99096E+02 -4.08525E+03  3.55635E+03 -8.92400E+03
  1.39672E+04 -5.95036E+03  1.91269E+04  2.36121E+03  1.83714E+04  1.34411E+04  1.15043E+04  2.44238E+04
 -5.58013E+03  2.80291E+04 -2.38561E+04  2.08045E+04 -2.99532E+04  3.76819E+03 -2.51425E+04 -1.09345E+04
 -1.24388E+04 -2.03955E+04 -2.46850E+02 -1.72476E+04  5.98237E+03 -9.90417E+03  6.27042E+03 -5.71583E+03
  4.83204E+03 -3.21077E+03  4.55142E+03 -4.45889E+03  7.08002E+03 -4.59889E+03  9.28759E+03 -1.80077E+03
  1.24004E+04  2.71791E+03  6.72268E+03  1.10462E+04 -2.37740E+03  1.36406E+04 -1.32200E+04  1.02086E+04
 -1.74761E+04 -1.63305E+03 -1.16429E+04 -1.25724E+04 -1.77513E+03 -1.89870E+04  1.06447E+04 -1.89975E+04
  1.96758E+04 -1.06381E+04  2.31016E+04  3.13499E+03  1.64491E+04  1.65339E+04  2.24531E+03  2.09981E+04
 -9.18427E+03  1.69105E+04 -1.27249E+04  5.81235E+03 -8.63489E+03 -1.79075E+03 -3.91695E+03 -2.85606E+03
 -1.69462E+03 -3.86553E+02 -2.52702E+03  3.21647E+03 -7.56490E+03  2.88082E+03 -1.14663E+04 -1.81752E+03
 -9.34053E+03 -1.18294E+04 -9.81288E+01 -1.80136E+04  1.04897E+04 -1.63258E+04  1.80551E+04 -5.25023E+03
  1.76868E+04  8.27873E+03  8.35635E+03  1.58104E+04 -2.83184E+03  1.82062E+04 -1.28969E+04  1.14822E+04
 -1.70549E+04  3.70123E+02 -1.29373E+04 -1.03770E+04 -1.42436E+03 -1.50131E+04  7.78348E+03 -1.10212E+04
  1.14568E+04 -3.12684E+03  7.75982E+03  3.44107E+03  3.05395E+03  5.59284E+03  1.14117E+03  2.83745E+03
  2.74342E+03  1.45333E+03  4.77848E+03  2.12376E+03  5.67715E+03  6.04152E+03  4.18425E+03  9.64765E+03
 -3.54168E+03  1.44863E+04 -1.24570E+04  1.41614E+04 -1.91956E+04  3.57099E+03 -1.96841E+04 -9.00411E+03
 -9.36214E+03 -1.83224E+04  2.33255E+03 -1.96928E+04  1.10646E+04 -1.31487E+04  1.46017E+04 -3.35830E+03
  1.19312E+04  7.25845E+03  2.60969E+03  1.07931E+04 -5.72647E+03  6.50331E+03 -8.11231E+03 -1.23416E+03
 -3.53108E+03 -7.86308E+03  4.14768E+03 -7.72609E+03  7.80077E+03 -4.02311E+03  7.64676E+03  1.98873E+03
  4.60771E+03  3.98779E+03  1.83584E+03  3.80889E+03 -1.02043E+03  2.77420E+03  1.50761E+03 -9.23965E+02
  3.60881E+03 -1.29414E+03  7.62981E+03  3.20637E+03  4.54714E+03  9.78604E+03 -1.70439E+03  1.31988E+04
 -9.11532E+03  8.62049E+03 -1.19329E+04  2.36406E+03 -1.07032E+04 -4.15859E+03 -4.29737E+03 -7.48658E+03
  8.47348E+02 -7.35466E+03  4.91641E+03 -3.40181E+03  4.39746E+03  3.24246E+03 -2.07593E+03  5.96406E+03
 -8.07079E+03  3.58552E+03 -9.16408E+03 -4.21610E+03 -5.31658E+03 -1.04262E+04  1.47639E+03 -1.09033E+04
  6.51192E+03 -6.75771E+03  7.90600E+03 -9.68328E+02  6.54884E+03  2.62101E+03  1.08806E+03  5.63403E+03
 -4.16054E+03  1.48848E+03 -4.47681E+03 -3.71116E+03  2.12944E+03 -8.26052E+03  9.83285E+03 -6.66748E+03
  1.29611E+04  8.70663E+02  1.18122E+04  8.50875E+03  3.43436E+03  1.30581E+04 -4.60128E+03  1.22710E+04
 -1.00874E+04  5.47850E+03 -1.11600E+04 -2.06736E+03 -5.95658E+03 -8.56733E+03  1.52703E+03 -8.06310E+03
  7.55123E+03 -3.43775E+03  6.47436E+03  2.89841E+03  2.19193E+03  7.04592E+03 -8.12906E+02  6.01567E+03
 -3.24924E+03  3.97013E+03 -2.85861E+03  1.17951E+03 -1.12528E+03  1.33481E+03 -1.77489E+03  2.78879E+03
 -3.22816E+03  4.73851E+03 -8.49259E+03  4.66825E+03 -1.28563E+04  1.74519E+02 -1.38674E+04 -8.13065E+03
 -7.69488E+03 -1.77753E+04  2.86278E+03 -1.93040E+04  1.25288E+04 -1.51242E+04  1.82734E+04 -5.78443E+03
  1.70858E+04  3.57847E+03  1.07848E+04  1.19759E+04  1.41001E+03  1.35305E+04 -5.31796E+03  1.01550E+04
 -7.93138E+03  3.18061E+03 -4.65724E+03 -1.63147E+03 -1.56616E+03 -1.61226E+03 -8.97829E+02 -2.23698E+02
 -2.25614E+03  4.69431E+02 -2.52816E+03 -4.75190E+02 -1.25961E+03 -3.02817E+03  7.07902E+02 -5.06300E+03
  6.09090E+03 -4.61962E+03  8.52290E+03  1.40142E+02  9.29936E+03  7.74113E+03  2.79750E+03  1.34894E+04
 -6.42844E+03  1.53582E+04 -1.47118E+04  8.99695E+03 -1.69191E+04 -1.73519E+03 -1.24359E+04 -1.05280E+04
 -4.98069E+03 -1.37626E+04  3.82615E+03 -1.25277E+04  9.17108E+03 -7.64742E+03  9.07049E+03 -9.71257E+01
  5.31934E+03  4.77218E+03 -5.29464E+02  3.52628E+03 -3.23423E+03 -2.22229E+02  1.55028E+02 -3.24239E+03
  3.85087E+03 -2.01158E+03  5.18477E+03  1.94358E+03  3.52675E+03  5.15031E+03  1.26451E+01  7.66156E+03
 -5.48614E+03  6.38928E+03 -9.60612E+03  3.18334E+02 -7.95888E+03 -6.31364E+03 -1.15986E+03 -1.19488E+04
  6.33862E+03 -9.90843E+03  1.11106E+04 -2.64745E+03  1.08386E+04  2.89648E+03  6.34322E+03  8.67331E+03
  1.01018E+03  9.00515E+03 -4.18910E+03  7.29133E+03 -6.45001E+03  4.49106E+03 -5.34826E+03  6.94081E+02
 -2.29122E+03 -3.78241E+01 -2.69848E+03  1.54692E+03 -4.73150E+03  1.48246E+03 -7.04817E+03 -1.30422E+03
 -6.88263E+03 -5.29471E+03 -2.58931E+03 -9.34074E+03  4.31020E+03 -1.00145E+04  8.12847E+03 -4.70144E+03
  9.37358E+03  1.29386E+03  5.17631E+03  6.69730E+03 -4.50099E+02  9.34818E+03 -7.30131E+03  5.89680E+03
