 $NMID ID='MM_0lb_SNR800_20hz_g60_88.RAW', FMTDAT='(8E13.5)'
 TRAMP=1., VOLUME=1. $END
  3.09786E+05  3.24411E+02  3.37379E+05  2.50467E+05  8.44926E+04  3.37750E+05 -1.32557E+05  2.50402E+05
 -1.90304E+05  8.27002E+04 -1.11183E+05 -3.27374E+04  1.25519E+03 -5.05042E+04  5.38175E+04 -2.90786E+02
  3.51412E+04  5.26817E+04 -1.70904E+04  7.53085E+04 -6.04247E+04  6.29873E+04 -8.38473E+04  3.16857E+04
 -8.04112E+04 -1.11918E+04 -5.67754E+04 -5.06122E+04 -1.48970E+04 -6.89436E+04  2.69911E+04 -4.51726E+04
  3.93921E+04  4.00653E+03  1.55795E+04  4.72785E+04 -3.40636E+04  4.65201E+04 -6.61138E+04 -3.98082E+02
 -5.27225E+04 -5.61993E+04 -6.24424E+03 -7.60881E+04  3.32652E+04 -5.40979E+04  4.68022E+04 -1.65787E+04
  4.23223E+04  1.14652E+04  3.09684E+04  2.46458E+04  1.60007E+04  2.85209E+04 -4.78721E+03  2.70044E+04
 -2.20808E+04  1.25750E+04 -1.86859E+04 -4.60840E+03  4.87155E+03 -7.58662E+03  2.15522E+04  1.15186E+04
  7.40207E+03  3.41020E+04 -3.10010E+04  3.48726E+04 -6.17554E+04  2.49293E+03 -5.59450E+04 -4.18211E+04
 -1.22140E+04 -6.16837E+04  3.86624E+04 -4.40440E+04  5.63421E+04 -2.00313E+03  3.27946E+04  3.12994E+04
 -6.33274E+03  3.40107E+04 -2.91207E+04  1.43441E+04 -2.83164E+04 -5.16770E+03 -1.54544E+04 -1.07135E+04
 -7.34798E+03 -1.21216E+04 -1.08137E+03 -1.69837E+04  6.93730E+03 -2.27574E+04  1.52374E+04 -1.35449E+04
  1.19346E+04  4.71185E+03 -6.83757E+03  1.28711E+04 -1.99394E+04 -2.96575E+03 -8.21388E+03 -3.11926E+04
  2.11961E+04 -4.11010E+04  4.53824E+04 -1.86434E+04  4.27477E+04  1.86090E+04  1.46690E+04  4.23572E+04
 -1.53616E+04  3.17914E+04 -2.41234E+04  1.15532E+03 -8.47333E+03 -2.70862E+04  2.08672E+04 -3.18978E+04
  3.86463E+04 -7.86882E+03  3.28758E+04  2.28309E+04  1.57826E+04  4.35206E+04 -8.00947E+03  4.65822E+04
 -2.91281E+04  3.06525E+04 -3.87176E+04  8.60777E+03 -3.92067E+04 -1.51490E+04 -2.14781E+04 -3.50882E+04
  6.92801E+03 -3.45507E+04  2.95664E+04 -1.31797E+04  2.71904E+04  1.07542E+04  3.38744E+03  1.81456E+04
 -1.31684E+04  7.32816E+03 -9.57669E+03 -7.74907E+03  5.98104E+03 -1.05180E+04  1.73233E+04  6.11736E+03
  1.24643E+04  2.14862E+04 -6.31107E+03  2.37158E+04 -2.15458E+04  9.66247E+03 -2.58373E+04 -6.26192E+03
 -1.74929E+04 -1.67218E+04 -6.21307E+03 -1.73550E+04  3.59894E+03 -1.54349E+04  1.29709E+04 -1.48089E+04
  2.16890E+04 -1.17880E+04  2.87342E+04  1.34798E+03  2.16852E+04  1.68248E+04  4.02211E+03  3.27307E+04
 -1.64476E+04  2.79039E+04 -2.59844E+04  9.58849E+03 -1.98854E+04 -1.03546E+04 -4.04151E+03 -1.36268E+04
  2.30353E+03 -4.05450E+03 -2.89361E+03  5.65603E+03 -1.33170E+04  5.41401E+03 -1.39197E+04 -4.96541E+03
 -8.40909E+03 -1.56737E+04  4.53220E+03 -1.97581E+04  1.29012E+04 -1.41202E+04  1.47711E+04 -1.61715E+03
  9.40089E+03  1.08125E+04 -8.89490E+02  1.60209E+04 -1.05943E+04  8.85835E+03 -1.54520E+04 -3.56514E+03
 -1.19590E+04 -1.45037E+04 -1.55497E+03 -1.93094E+04  8.90913E+03 -1.54623E+04  1.64219E+04 -7.47784E+03
  1.43489E+04  8.37419E+02  1.04365E+04  3.86084E+03  5.05123E+03  5.70042E+02  7.99919E+03 -1.32893E+03
  1.39143E+04  2.50774E+03  1.48288E+04  1.28168E+04  9.05525E+03  2.51642E+04 -2.96873E+03  2.67189E+04
 -1.59767E+04  2.07240E+04 -2.47789E+04  9.92834E+03 -2.54643E+04 -1.76996E+03 -2.16378E+04 -1.44660E+04
 -1.02117E+04 -2.07054E+04  6.75107E+03 -1.93827E+04  1.66447E+04 -1.08773E+04  1.55069E+04  3.84429E+03
  6.77753E+03  1.09909E+04 -7.19134E+03  1.04823E+04 -1.33995E+04  2.65924E+03 -1.05341E+04 -8.05373E+03
 -8.46369E+01 -1.23057E+04  6.31318E+03 -9.67099E+03  8.22186E+03 -1.79854E+03  1.32021E+03  5.07060E+03
 -5.79145E+03  1.34644E+03 -3.64458E+03 -4.76447E+03  6.96109E+02 -1.01316E+04  8.02527E+03 -1.00003E+04
  1.22429E+04 -4.82559E+03  1.20549E+04  2.70857E+03  1.02617E+04  9.77352E+03  4.92302E+03  1.40161E+04
 -1.44171E+03  1.59444E+04 -9.61218E+03  1.01847E+04 -1.11962E+04  2.99350E+03 -8.42518E+03 -1.73615E+03
 -4.53645E+03 -3.43493E+03 -8.81526E+02  1.44515E+03 -2.24893E+03  2.18568E+03 -3.64100E+03  3.60147E+03
 -8.17862E+03 -7.95040E+02 -8.87816E+03 -7.07253E+03 -3.28369E+03 -1.10819E+04  3.33965E+03 -8.33074E+03
  7.26129E+03 -3.54898E+03  5.06808E+03  1.87292E+03  4.61931E+02  3.24293E+03 -3.43510E+03 -1.76347E+01
 -3.25318E+03 -5.09649E+03 -4.87643E+02 -7.11885E+03  3.92512E+03 -7.66051E+03  9.72828E+03 -3.96886E+03
  1.13005E+04  7.89455E+02  8.57828E+03  5.79303E+03  1.64909E+03  8.39244E+03 -5.06971E+03  7.92833E+03
 -6.53364E+03  2.52338E+03 -3.68618E+03 -1.25038E+03  1.61574E+03 -1.75403E+03  4.59269E+03 -1.03203E+03
  4.11117E+03  3.07857E+03  1.06208E+03  6.11435E+03 -4.43321E+03  6.09941E+03 -7.68109E+03  1.62813E+03
 -4.83845E+03 -3.67505E+03  2.52107E+02 -6.21650E+03  3.34102E+03 -3.20345E+03  3.25924E+03  9.11384E+02
  4.74198E+02  3.23079E+03 -4.00108E+03  4.39985E+03 -4.34300E+03  2.35669E+03 -4.41364E+03 -1.04612E+03
 -2.62477E+03 -5.72516E+03  1.10959E+03 -6.46573E+03  5.75927E+03 -4.47814E+03  5.88473E+03  1.09650E+03
  4.58348E+03  4.98856E+03  2.21851E+02  6.85512E+03 -4.83576E+03  3.79829E+03 -4.93297E+03 -2.54176E+02
 -5.66036E+03 -4.73035E+03 -1.27809E+03 -4.62632E+03  2.24505E+03 -4.56731E+03  2.61001E+03 -2.61633E+03
  2.70018E+03  2.84046E+02  2.65157E+01  1.02024E+03  7.13506E+02  1.71808E+01  2.70141E+01 -1.26990E+03
  3.31345E+03 -5.35672E+02  4.56670E+03  5.72167E+02  5.03581E+03  2.64403E+03  4.87983E+03  6.25037E+03
 -1.03340E+03  7.54239E+03 -6.72905E+03  5.87933E+03 -8.94155E+03  9.71319E+02 -7.19734E+03 -2.15387E+03
 -3.99734E+03 -5.95670E+03 -6.42621E+02 -4.62715E+03  2.11812E+03 -1.79741E+03  1.79100E+03 -1.93474E+03
  1.14191E+03 -1.61038E+03  1.80453E+03 -2.16280E+03  3.41944E+03 -1.09785E+03  3.23123E+03  4.40758E+02
  4.13991E+03  1.22041E+03  9.09305E+02  3.14641E+03 -1.55737E+03  2.29676E+03 -4.11235E+03  1.95068E+03
 -4.36157E+03 -9.02325E+02 -1.26210E+03 -3.06762E+03  5.92422E+02 -4.30315E+03  2.64391E+03 -4.59104E+03
  4.50222E+03 -3.08643E+03  5.85303E+03  8.99659E+01  4.10499E+03  3.94381E+03  9.89228E+02  5.39979E+03
 -1.88104E+03  5.40960E+03 -2.98460E+03  1.62633E+03 -1.67641E+03 -8.67191E+02 -1.68379E+02 -2.97105E+02
  5.27197E+00  5.05183E+02 -7.53640E+02  1.90820E+03 -2.18551E+03  1.10837E+03 -3.56883E+03 -2.28899E+02
 -1.11146E+03 -3.60684E+03  1.00841E+03 -3.88554E+03  2.48620E+03 -3.76604E+03  2.70387E+03 -8.14608E+02
  3.17421E+03  2.22604E+03  1.49314E+03  2.89511E+03 -5.03151E+02  3.79951E+03 -2.16728E+03  2.32762E+03
 -3.15351E+03  4.51156E+02 -2.99228E+03 -1.77898E+03 -8.14374E+01 -2.42555E+03  1.12520E+03 -1.87631E+03
  2.20847E+03 -1.28671E+03  1.43741E+03  1.03815E+02  2.59426E+02  1.46327E+03  8.61224E+02  3.62621E+02
  1.66708E+03  4.98011E+02  8.17867E+02  1.11339E+03  8.25454E+02  2.02911E+03  1.42272E+03  1.44556E+03
 -1.40658E+03  2.15381E+03 -2.29753E+03  3.61779E+03 -1.98423E+03  1.25731E+03 -3.23815E+03  1.30730E+02
 -1.23535E+03 -2.99816E+03  6.05633E+02 -3.79688E+03  1.31989E+03 -2.00984E+03  2.46558E+03 -7.10026E+02
  2.17940E+03  1.15954E+03  4.66665E+02  1.57442E+03 -7.60569E+02  8.19264E+02 -6.16017E+02 -1.13227E+02
 -6.14682E+02 -1.31849E+03  1.07230E+03 -9.49894E+02  8.28724E+02 -9.44367E+02  9.15851E+02  3.60818E+02
  7.10396E+02 -1.19023E+02  1.00220E+03 -5.44746E+02 -2.61805E+02  9.39991E+02  1.48329E+03 -3.19811E+02
 -1.75119E+02 -3.08375E+02  1.60487E+03  6.42537E+02 -7.01555E+01  2.01490E+03 -4.63787E+02  2.19085E+03
 -1.33244E+03  6.80147E+02 -1.52540E+03  5.11664E+01 -1.61773E+03 -6.59169E+02 -2.17488E+02 -6.50715E+02
  2.73535E+02 -6.34124E+02  6.85473E+02 -9.13009E+02  3.88843E+02  1.25296E+03 -8.74515E+02  8.91447E+02
 -1.09247E+03  6.16554E+02 -5.27880E+02 -1.18594E+03 -3.53493E+02 -1.64586E+03 -8.44609E+00 -8.93628E+02
 -8.69165E+01 -2.34680E+02  5.37405E+02  4.32157E+02  8.47954E+02 -1.83868E+02  1.10108E+02  1.18227E+03
 -3.94810E+01 -6.41814E+01 -8.30212E+02  6.31585E+01  4.79567E+02 -6.36512E+02  1.49155E+03 -6.63460E+02
  8.34033E+02 -4.75662E+01  2.27653E+03  1.44381E+02  1.11911E+03  8.21802E+02 -2.44642E+02  1.23842E+03
 -8.72077E+02 -1.01483E+02 -1.03059E+03  8.64812E+01 -4.01489E+02 -8.70582E+02  2.66983E+02 -9.72545E+01
  1.11347E+03 -5.21265E+02  4.59014E+02  5.10463E+02  6.13692E+01  9.15526E+02  3.35302E+02  7.52979E+02
 -5.28733E+02  8.14910E+02 -3.64490E+02  5.48746E+01  2.08386E+02  2.35884E+02 -6.08420E+02  3.15024E+02
 -3.84770E+02  1.05002E+03 -1.33761E+03  1.53981E+02 -1.00711E+03  2.91598E+02 -1.57347E+03 -7.26223E+02
 -5.89531E+02 -1.40430E+03  2.01416E+02 -2.20354E+03  3.67576E+02 -1.58106E+03  1.97035E+03 -6.67755E+02
  1.98400E+03 -2.92297E+02  7.07459E+02  1.02330E+03 -6.06538E+02  8.62610E+02 -1.59626E+02  7.98054E+02
 -5.68846E+02  8.21128E+02 -9.58865E+01 -2.16088E+02 -4.54687E+02  2.74107E+02 -5.50183E+02  6.75132E+01
 -1.07533E+03 -5.77118E+00 -6.16448E+02  1.79928E+02  3.67815E+02 -6.54254E+02 -4.51678E+02 -6.10630E+02
  1.00538E+03 -4.48513E+02  3.68108E+02  3.01656E+02  3.82991E+02  4.85031E+02 -4.00696E+02  6.81978E+02
 -8.50090E+02  1.61237E+03 -9.23415E+02  8.37974E+02 -1.05300E+03 -7.35830E+01 -8.62183E+02 -7.50646E+02
 -7.83590E+02 -5.26436E+02  2.05427E+02 -5.98992E+02  3.30818E+02 -1.09310E+02  3.13775E+02  2.07841E+02
  5.86809E+02  1.69872E+02  2.08871E+02 -1.39695E+01 -4.31783E+02  2.11894E+01 -1.45658E+01 -1.99970E+02
  1.62124E+02  3.36547E+02  1.86155E+01  2.37560E+02 -2.98487E+02  2.79963E+02  3.10813E+02 -2.71721E+02
 -2.05485E+02  4.45334E+02  4.50958E+01  1.03277E+02 -4.38900E+02 -3.64522E+02  4.37415E+02 -6.51715E+02
  1.15803E+02 -8.73373E+01  4.15075E+01 -6.15318E+01  4.17245E+02 -7.31560E+02  3.67802E+02  6.02670E+02
  4.67808E+02  3.68969E+01 -8.28680E+01  1.29455E+01 -4.91187E+02  5.22830E+02 -1.33419E+02  3.64787E+02
 -1.46069E+02  1.68339E+02 -2.57299E+02  3.13082E+02 -3.20719E+02 -1.21832E+02 -2.78519E+02 -1.61365E+02
 -8.30001E+02  5.16116E+02 -1.73980E+02 -5.97433E+02  5.70381E+02 -9.49939E+02  4.72808E+02 -2.24043E+02
  4.94425E+02  1.69835E+02 -5.90072E+02 -1.08311E+02  1.68487E+01  6.67775E+02 -2.25729E+02  3.16846E+02
