 $NMID ID='MM_0lb_SNR800_14hz_g60_6.RAW', FMTDAT='(8E13.5)'
 TRAMP=1., VOLUME=1. $END
  3.09875E+05  1.20654E+02  3.37815E+05  2.50754E+05  8.48269E+04  3.38197E+05 -1.32601E+05  2.51177E+05
 -1.90808E+05  8.34492E+04 -1.12292E+05 -3.23887E+04  4.70094E+02 -5.07560E+04  5.35947E+04 -4.23970E+02
  3.57566E+04  5.28150E+04 -1.66396E+04  7.56165E+04 -6.08846E+04  6.39663E+04 -8.45238E+04  3.23562E+04
 -8.14819E+04 -1.15876E+04 -5.75429E+04 -5.18606E+04 -1.49072E+04 -7.02184E+04  2.80926E+04 -4.60621E+04
  4.01658E+04  3.83826E+03  1.63129E+04  4.82056E+04 -3.44390E+04  4.78683E+04 -6.71313E+04 -2.37637E+02
 -5.41728E+04 -5.73110E+04 -7.31262E+03 -7.75772E+04  3.40851E+04 -5.60302E+04  4.88626E+04 -1.78008E+04
  4.39735E+04  1.12614E+04  3.23332E+04  2.59211E+04  1.61762E+04  3.00312E+04 -5.56885E+03  2.73743E+04
 -2.19449E+04  1.19946E+04 -1.84168E+04 -5.23469E+03  5.90010E+03 -7.23757E+03  2.26247E+04  1.27203E+04
  6.88109E+03  3.59548E+04 -3.25508E+04  3.60953E+04 -6.42851E+04  2.09505E+03 -5.76615E+04 -4.34741E+04
 -1.26210E+04 -6.41160E+04  4.05333E+04 -4.59083E+04  5.91246E+04 -2.19454E+03  3.51986E+04  3.33633E+04
 -5.76678E+03  3.72832E+04 -3.07317E+04  1.69284E+04 -3.15876E+04 -4.26766E+03 -1.78274E+04 -1.13809E+04
 -8.51620E+03 -1.41928E+04 -6.73573E+02 -1.86268E+04  8.13960E+03 -2.30386E+04  1.55929E+04 -1.25852E+04
  1.09099E+04  5.14440E+03 -9.03554E+03  1.28733E+04 -2.19967E+04 -5.34852E+03 -8.64968E+03 -3.54476E+04
  2.37668E+04 -4.48399E+04  4.94772E+04 -1.97969E+04  4.61403E+04  1.99758E+04  1.60274E+04  4.55557E+04
 -1.62193E+04  3.41965E+04 -2.61843E+04  2.14280E+03 -1.04634E+04 -2.82471E+04  2.09134E+04 -3.45657E+04
  4.26246E+04 -9.93169E+03  3.72646E+04  2.42633E+04  1.93118E+04  4.79831E+04 -8.02609E+03  5.22178E+04
 -3.29874E+04  3.55296E+04 -4.37564E+04  1.01048E+04 -4.41571E+04 -1.73914E+04 -2.42666E+04 -3.91453E+04
  7.51605E+03 -3.91932E+04  3.22975E+04 -1.55563E+04  3.02921E+04  1.09992E+04  4.34079E+03  2.01514E+04
 -1.38363E+04  8.53068E+03 -1.03324E+04 -7.73794E+03  5.83818E+03 -1.09411E+04  1.86494E+04  5.67031E+03
  1.37599E+04  2.23806E+04 -5.97368E+03  2.59219E+04 -2.22471E+04  1.24202E+04 -2.90774E+04 -4.48835E+03
 -2.19318E+04 -1.79208E+04 -9.09593E+03 -2.19949E+04  4.03749E+03 -2.17486E+04  1.66640E+04 -1.97674E+04
  2.80413E+04 -1.31431E+04  3.41349E+04  3.26369E+03  2.49559E+04  2.11243E+04  4.49808E+03  3.80362E+04
 -1.80181E+04  3.13301E+04 -2.90519E+04  1.08139E+04 -2.07201E+04 -1.01670E+04 -4.50851E+03 -1.32207E+04
  1.31077E+03 -2.29282E+03 -5.65017E+03  6.69047E+03 -1.73828E+04  5.53915E+03 -1.73475E+04 -7.87296E+03
 -1.03241E+04 -2.00116E+04  5.62211E+03 -2.41772E+04  1.63922E+04 -1.73134E+04  1.95476E+04 -1.77075E+03
  1.22015E+04  1.35900E+04 -8.31888E+02  2.03755E+04 -1.42285E+04  1.16098E+04 -2.00584E+04 -4.05825E+03
 -1.49452E+04 -1.78399E+04 -1.68818E+03 -2.44699E+04  1.09045E+04 -1.98350E+04  2.00805E+04 -1.01339E+04
  1.87891E+04  3.75085E+02  1.35416E+04  4.65642E+03  7.30248E+03  8.19303E+02  1.01715E+04 -1.83817E+03
  1.84153E+04  2.86325E+03  2.10763E+04  1.57514E+04  1.40196E+04  3.21673E+04 -2.79740E+03  3.67304E+04
 -2.09483E+04  2.97717E+04 -3.44622E+04  1.49489E+04 -3.66029E+04 -2.55254E+03 -2.96326E+04 -2.10445E+04
 -1.22410E+04 -2.99269E+04  1.02662E+04 -2.70047E+04  2.31012E+04 -1.34095E+04  2.04467E+04  6.18744E+03
  7.28850E+03  1.54279E+04 -9.44518E+03  1.33865E+04 -1.74012E+04  2.59041E+03 -1.31279E+04 -1.08259E+04
 -2.37399E+01 -1.64522E+04  8.62020E+03 -1.20074E+04  1.08706E+04 -1.63001E+03  2.49518E+03  7.03759E+03
 -7.20371E+03  2.83840E+03 -6.62365E+03 -5.90119E+03 -6.16676E+02 -1.48003E+04  1.01733E+04 -1.51784E+04
  1.79821E+04 -8.23782E+03  1.97763E+04  3.15626E+03  1.72494E+04  1.42455E+04  7.86462E+03  2.24627E+04
 -3.70239E+03  2.37811E+04 -1.52433E+04  1.52225E+04 -1.70108E+04  3.68320E+03 -1.20517E+04 -3.88081E+03
 -5.65685E+03 -5.27680E+03 -7.84179E+02  6.09627E+02 -2.23741E+03  2.66133E+03 -5.50309E+03  4.72522E+03
 -1.09508E+04 -6.84987E+02 -1.18567E+04 -9.59935E+03 -4.67832E+03 -1.56551E+04  5.27076E+03 -1.19869E+04
  1.01265E+04 -5.07401E+03  7.38391E+03  3.30965E+03  2.50592E+02  4.62016E+03 -5.61950E+03 -3.57537E+02
 -5.76053E+03 -7.81334E+03 -9.12835E+02 -1.14581E+04  6.43074E+03 -1.23184E+04  1.51208E+04 -6.16911E+03
  1.76301E+04  1.93046E+03  1.27485E+04  1.01444E+04  2.70417E+03  1.39537E+04 -7.73910E+03  1.24030E+04
 -9.40295E+03  3.90885E+03 -5.48809E+03 -2.05792E+03  2.13724E+03 -2.87209E+03  6.98246E+03 -1.08433E+03
  5.80883E+03  5.25837E+03  9.91638E+02  9.35233E+03 -6.71478E+03  9.44982E+03 -1.18789E+04  2.48186E+03
 -8.09071E+03 -5.60166E+03  4.14182E+02 -9.77376E+03  6.15441E+03 -4.86970E+03  6.47925E+03  2.14321E+03
  1.04876E+03  6.63268E+03 -5.97455E+03  8.24797E+03 -9.34308E+03  3.58532E+03 -9.06213E+03 -3.34406E+03
 -5.41791E+03 -1.06596E+04  2.54868E+03 -1.20782E+04  1.04801E+04 -7.81307E+03  1.11206E+04  1.94126E+03
  7.32798E+03  8.90844E+03 -5.13932E+02  1.15694E+04 -8.35551E+03  6.14021E+03 -9.11079E+03 -8.03253E+02
 -7.86056E+03 -7.52046E+03 -1.62614E+03 -8.27362E+03  4.49627E+03 -6.89241E+03  5.04628E+03 -3.11642E+03
  4.07600E+03  1.31251E+03 -2.54659E+02  1.50522E+03  5.58075E+00 -1.87458E+03  1.28627E+03 -4.66156E+03
  7.37936E+03 -2.82721E+03  1.02649E+04  8.10485E+02  9.99191E+03  6.69305E+03  7.68261E+03  1.33769E+04
 -2.87857E+03  1.55644E+04 -1.33860E+04  1.16638E+04 -1.72051E+04  1.99808E+03 -1.35767E+04 -5.42681E+03
 -6.89271E+03 -1.10255E+04 -4.88022E+02 -9.69502E+03  3.74060E+03 -4.95177E+03  2.87691E+03 -3.52418E+03
  2.51830E+03 -2.22930E+03  2.71716E+03 -2.90367E+03  4.53126E+03 -2.08164E+03  6.03176E+03 -1.95863E+02
  7.21166E+03  1.45510E+03  3.18144E+03  5.93000E+03 -1.71918E+03  6.55555E+03 -7.42841E+03  5.18729E+03
 -9.52009E+03 -1.10897E+03 -5.23368E+03 -6.67873E+03 -4.24640E+02 -9.85954E+03  5.97128E+03 -9.75652E+03
  1.04367E+04 -5.59363E+03  1.25976E+04  9.18399E+02  8.53765E+03  8.42603E+03  1.53438E+03  1.09823E+04
 -4.42233E+03  9.53854E+03 -6.25144E+03  3.49745E+03 -4.19282E+03 -1.42050E+03 -1.83755E+03 -1.09158E+03
 -8.86755E+02 -7.23010E+01 -1.31427E+03  2.77164E+03 -4.24028E+03  1.74470E+03 -6.33698E+03 -6.96689E+02
 -3.81501E+03 -6.32281E+03  5.89251E+02 -8.30494E+03  5.18636E+03 -8.07047E+03  8.40103E+03 -2.46259E+03
  8.41073E+03  4.64179E+03  3.98240E+03  7.26816E+03 -1.48109E+03  8.88267E+03 -6.14558E+03  5.53582E+03
 -8.24092E+03  5.17250E+02 -6.38776E+03 -4.88704E+03 -4.43879E+02 -7.10579E+03  3.49908E+03 -5.28615E+03
  5.17421E+03 -2.08161E+03  3.75957E+03  1.27176E+03  1.29240E+03  2.92144E+03  1.11437E+03  1.58546E+03
  2.13447E+03  7.78370E+02  2.03305E+03  1.30509E+03  2.26818E+03  3.72206E+03  2.26635E+03  4.19031E+03
 -1.99919E+03  6.61984E+03 -5.60443E+03  7.48946E+03 -8.17447E+03  2.01918E+03 -8.77650E+03 -2.67092E+03
 -3.87944E+03 -8.36251E+03  1.22495E+03 -9.17831E+03  4.61024E+03 -5.51015E+03  6.73150E+03 -1.49582E+03
  5.25707E+03  3.31851E+03  1.10428E+03  4.62925E+03 -2.23327E+03  3.23478E+03 -3.01533E+03 -2.36793E+02
 -1.34101E+03 -3.34588E+03  2.10245E+03 -3.38281E+03  2.77432E+03 -1.82746E+03  3.40351E+03  8.22630E+02
  1.65382E+03  1.11239E+03  9.65149E+02  9.96563E+02 -1.90871E+02  1.17618E+03  2.01846E+03 -2.87159E+02
  1.16896E+03 -2.66762E+01  3.64363E+03  1.37221E+03  1.79393E+03  4.59055E+03 -7.73972E+02  5.72727E+03
 -3.86473E+03  3.19892E+03 -4.77298E+03  1.02264E+03 -4.45144E+03 -1.96722E+03 -1.36448E+03 -2.81822E+03
  3.51604E+02 -2.71605E+03  2.12104E+03 -1.74574E+03  1.59361E+03  2.18326E+03 -9.03857E+02  2.56530E+03
 -2.92013E+03  1.57783E+03 -3.35146E+03 -2.33148E+03 -2.13439E+03 -4.11784E+03  3.36463E+02 -3.68162E+03
  2.17495E+03 -2.33886E+03  2.43133E+03  3.30552E+02  2.43754E+03  8.25765E+02  4.46231E+02  2.29889E+03
 -1.04754E+03  4.85154E+02 -2.00952E+03 -8.56943E+02  8.08677E+02 -2.96607E+03  3.73250E+03 -2.40144E+03
  3.85476E+03  2.49713E+01  5.11062E+03  2.61632E+03  1.88331E+03  4.09929E+03 -1.33679E+03  4.32482E+03
 -3.72761E+03  1.48197E+03 -4.08297E+03 -6.29110E+02 -2.09570E+03 -3.18529E+03  8.42700E+02 -2.34212E+03
  3.12229E+03 -1.25571E+03  2.21023E+03  1.34761E+03  7.29132E+02  2.90013E+03 -2.04568E+02  2.49151E+03
 -1.01876E+03  1.90187E+03 -1.17384E+03  3.81010E+02 -2.87315E+02  5.47926E+02 -9.69290E+02  1.01845E+03
 -1.21681E+03  1.87377E+03 -3.32205E+03  1.44250E+03 -4.46733E+03  3.20114E+02 -5.19912E+03 -2.88265E+03
 -2.16193E+03 -5.65238E+03  1.22309E+03 -6.64581E+03  3.77657E+03 -5.47749E+03  6.57829E+03 -1.85734E+03
  5.73196E+03  6.80216E+02  3.48537E+03  3.65412E+03 -4.37553E+02  4.51312E+03 -1.85418E+03  3.24337E+03
 -2.74917E+03  1.00822E+03 -1.43176E+03 -4.18623E+02 -1.09139E+03 -9.36181E+01 -5.77176E+02  1.24688E+02
 -1.33184E+03 -2.22097E+02 -1.36590E+03 -1.73719E+02  1.74805E+01 -1.09311E+03 -2.03566E+02 -1.75770E+03
  2.50113E+03 -1.23173E+03  2.10682E+03  1.27848E+02  2.98098E+03  2.20690E+03  3.73337E+02  3.92668E+03
 -2.08863E+03  5.15843E+03 -4.35303E+03  3.15500E+03 -5.26639E+03 -3.91942E+02 -3.77142E+03 -3.05282E+03
 -2.05610E+03 -4.02998E+03  6.65598E+02 -3.63839E+03  2.55413E+03 -1.71809E+03  2.83347E+03  1.81872E+02
  1.58378E+03  1.03266E+03 -3.94667E+02  1.22218E+03 -1.04195E+03 -3.80980E+02  2.67694E+01 -8.16707E+02
  1.39990E+03  7.35206E+01  1.15315E+03  6.53378E+02  7.51085E+02  1.43889E+03  3.44926E+02  1.64783E+03
 -1.59455E+03  1.64504E+03 -2.46857E+03  4.93622E+02 -2.36692E+03 -1.58164E+03 -4.68821E+00 -3.18087E+03
  1.74073E+03 -2.53315E+03  2.66360E+03 -8.93073E+02  2.52681E+03  1.20430E+02  1.69768E+03  2.37443E+03
  3.93821E+02  2.15132E+03 -1.05836E+03  2.01225E+03 -1.35637E+03  1.17677E+03 -1.17689E+03  5.80837E+02
 -9.63663E+02 -3.29866E+02 -8.39078E+02  2.28295E+02 -1.34543E+03  4.64319E+02 -1.93593E+03 -4.57962E+02
 -2.60291E+03 -7.67685E+02 -5.65349E+02 -2.51961E+03  1.39887E+03 -3.22367E+03  2.31134E+03 -8.96374E+02
  2.46842E+03  1.02191E+02  6.60980E+02  1.61991E+03 -2.10920E+02  2.17606E+03 -1.73256E+03  1.69097E+03
