 $NMID ID='MM_0lb_SNR800_10hz_g40_8.RAW', FMTDAT='(8E13.5)'
 TRAMP=1., VOLUME=1. $END
  3.09865E+05  2.64471E+02  3.37745E+05  2.50668E+05  8.49368E+04  3.38258E+05 -1.32457E+05  2.51295E+05
 -1.90867E+05  8.34629E+04 -1.12014E+05 -3.24406E+04  7.32499E+02 -5.05556E+04  5.37751E+04 -2.86958E+02
  3.57999E+04  5.29684E+04 -1.67429E+04  7.58091E+04 -6.11279E+04  6.38105E+04 -8.47942E+04  3.20933E+04
 -8.16665E+04 -1.16709E+04 -5.78221E+04 -5.20761E+04 -1.51477E+04 -7.01684E+04  2.77141E+04 -4.63192E+04
  4.08018E+04  3.94954E+03  1.65618E+04  4.85523E+04 -3.47340E+04  4.77713E+04 -6.75531E+04 -2.01790E+02
 -5.44006E+04 -5.72518E+04 -6.82828E+03 -7.84596E+04  3.44061E+04 -5.61818E+04  4.90884E+04 -1.79006E+04
  4.43309E+04  1.14005E+04  3.24931E+04  2.61104E+04  1.59064E+04  3.02250E+04 -5.67349E+03  2.72012E+04
 -2.22728E+04  1.20357E+04 -1.82926E+04 -5.17914E+03  6.27688E+03 -7.35601E+03  2.28742E+04  1.28196E+04
  6.92590E+03  3.67332E+04 -3.30131E+04  3.65594E+04 -6.47628E+04  2.26596E+03 -5.80961E+04 -4.40180E+04
 -1.27282E+04 -6.49810E+04  4.08942E+04 -4.64591E+04  6.00639E+04 -1.92692E+03  3.56455E+04  3.35843E+04
 -5.87968E+03  3.80165E+04 -3.11318E+04  1.74177E+04 -3.17572E+04 -3.87621E+03 -1.82188E+04 -1.18220E+04
 -8.86599E+03 -1.41372E+04 -5.01259E+02 -1.87967E+04  7.83779E+03 -2.33587E+04  1.57998E+04 -1.28751E+04
  1.10692E+04  5.61177E+03 -9.70934E+03  1.30374E+04 -2.22820E+04 -5.44562E+03 -8.40120E+03 -3.59607E+04
  2.42396E+04 -4.56775E+04  5.03679E+04 -2.04578E+04  4.66920E+04  2.04133E+04  1.67093E+04  4.59864E+04
 -1.63135E+04  3.51202E+04 -2.66357E+04  2.27190E+03 -1.12157E+04 -2.87524E+04  2.10488E+04 -3.59717E+04
  4.33645E+04 -1.01508E+04  3.87185E+04  2.46221E+04  1.98390E+04  4.94330E+04 -8.48809E+03  5.35090E+04
 -3.40378E+04  3.64408E+04 -4.53586E+04  1.05345E+04 -4.55176E+04 -1.80355E+04 -2.54162E+04 -4.04418E+04
  7.68920E+03 -4.03618E+04  3.33988E+04 -1.61018E+04  3.13286E+04  1.10233E+04  4.70142E+03  2.01920E+04
 -1.37069E+04  9.34889E+03 -1.06250E+04 -7.32214E+03  5.48667E+03 -1.13610E+04  1.86212E+04  5.70622E+03
  1.45619E+04  2.24872E+04 -6.07834E+03  2.65182E+04 -2.30133E+04  1.30352E+04 -3.01165E+04 -3.49599E+03
 -2.37243E+04 -1.81892E+04 -1.02460E+04 -2.33651E+04  4.41342E+03 -2.31182E+04  1.78821E+04 -2.11709E+04
  2.98262E+04 -1.36440E+04  3.56333E+04  3.53625E+03  2.57660E+04  2.28581E+04  4.50071E+03  3.95109E+04
 -1.88691E+04  3.22881E+04 -2.97346E+04  1.13635E+04 -2.18223E+04 -1.02298E+04 -4.69265E+03 -1.31323E+04
  1.17411E+03 -1.85743E+03 -6.51554E+03  7.77653E+03 -1.89430E+04  5.20426E+03 -1.82387E+04 -8.86570E+03
 -1.12152E+04 -2.16795E+04  6.00663E+03 -2.55429E+04  1.74058E+04 -1.86300E+04  2.05991E+04 -1.57282E+03
  1.29522E+04  1.51262E+04 -1.18961E+03  2.17565E+04 -1.51761E+04  1.23125E+04 -2.18236E+04 -4.33259E+03
 -1.62146E+04 -1.94899E+04 -1.75952E+03 -2.60248E+04  1.22031E+04 -2.16235E+04  2.16100E+04 -1.14865E+04
  2.01815E+04  2.17645E+01  1.47469E+04  5.20172E+03  7.88296E+03  1.20082E+03  1.10810E+04 -1.83761E+03
  2.01685E+04  2.61344E+03  2.29868E+04  1.74061E+04  1.58935E+04  3.48279E+04 -2.76818E+03  4.04149E+04
 -2.32900E+04  3.30651E+04 -3.79906E+04  1.69790E+04 -4.00273E+04 -2.52142E+03 -3.27639E+04 -2.35696E+04
 -1.32892E+04 -3.34496E+04  1.14606E+04 -2.93672E+04  2.55405E+04 -1.41253E+04  2.24276E+04  6.92213E+03
  7.82028E+03  1.70001E+04 -1.05601E+04  1.45392E+04 -1.85090E+04  2.28224E+03 -1.39634E+04 -1.17388E+04
 -6.62232E+02 -1.76133E+04  9.50260E+03 -1.33995E+04  1.24184E+04 -1.31927E+03  2.94385E+03  7.72234E+03
 -7.92397E+03  3.58002E+03 -8.00527E+03 -6.53517E+03 -1.49843E+03 -1.62131E+04  1.10506E+04 -1.74069E+04
  2.04702E+04 -9.76744E+03  2.31436E+04  3.34549E+03  2.01186E+04  1.64796E+04  9.10472E+03  2.59923E+04
 -4.55515E+03  2.76433E+04 -1.78548E+04  1.73540E+04 -2.00203E+04  3.86046E+03 -1.41953E+04 -5.35567E+03
 -5.95755E+03 -6.47806E+03 -6.56552E+02  8.54031E+02 -2.48470E+03  3.02457E+03 -6.69501E+03  5.21284E+03
 -1.28930E+04 -6.10775E+02 -1.35294E+04 -1.09781E+04 -5.66194E+03 -1.73770E+04  6.14756E+03 -1.40639E+04
  1.13683E+04 -5.48653E+03  8.31503E+03  3.78813E+03 -3.74787E+02  5.28664E+03 -7.23362E+03 -3.17449E+02
 -6.37003E+03 -8.70768E+03 -1.16163E+03 -1.33755E+04  7.90985E+03 -1.48412E+04  1.81402E+04 -8.10112E+03
  2.05089E+04  1.97072E+03  1.52841E+04  1.22448E+04  2.77326E+03  1.66667E+04 -8.62718E+03  1.40516E+04
 -1.16728E+04  4.22246E+03 -5.79670E+03 -2.43107E+03  1.98664E+03 -3.63886E+03  7.43678E+03 -8.45357E+02
  6.70919E+03  6.44449E+03  1.00877E+03  1.11282E+04 -8.22460E+03  1.07677E+04 -1.32355E+04  2.47186E+03
 -9.70144E+03 -7.32479E+03 -7.04654E+01 -1.18495E+04  7.35539E+03 -5.90827E+03  8.12472E+03  2.84850E+03
  1.82652E+03  8.43086E+03 -6.97250E+03  1.02361E+04 -1.18222E+04  4.40182E+03 -1.15753E+04 -4.10734E+03
 -6.79604E+03 -1.36396E+04  3.49487E+03 -1.55100E+04  1.32954E+04 -9.58273E+03  1.42912E+04  2.64985E+03
  8.86210E+03  1.15503E+04 -1.27191E+03  1.36160E+04 -1.02309E+04  8.16454E+03 -1.09483E+04 -9.03607E+02
 -9.90170E+03 -9.09608E+03 -1.64568E+03 -1.04748E+04  5.51636E+03 -8.32533E+03  6.65276E+03 -3.35028E+03
  4.83119E+03  1.66268E+03 -9.85257E+02  1.58584E+03 -3.70851E+02 -2.62940E+03  2.30867E+03 -6.58239E+03
  9.91899E+03 -3.77811E+03  1.39360E+04  1.56153E+03  1.35753E+04  9.24571E+03  9.04874E+03  1.77243E+04
 -4.07655E+03  2.05023E+04 -1.70300E+04  1.50024E+04 -2.21446E+04  2.87110E+03 -1.75743E+04 -7.38013E+03
 -9.12353E+03 -1.43695E+04 -3.28887E+02 -1.25295E+04  4.49101E+03 -6.98458E+03  4.41145E+03 -4.71102E+03
  3.32999E+03 -2.77484E+03  3.54018E+03 -3.69206E+03  4.98237E+03 -3.23469E+03  7.18956E+03 -1.08836E+03
  9.07557E+03  2.11459E+03  4.72496E+03  8.00278E+03 -1.96865E+03  9.41984E+03 -9.70214E+03  7.15339E+03
 -1.21368E+04 -1.22574E+03 -7.49296E+03 -8.70571E+03 -1.06641E+03 -1.32471E+04  8.02094E+03 -1.34324E+04
  1.37598E+04 -7.86162E+03  1.65908E+04  2.21826E+03  1.13509E+04  1.17654E+04  1.95495E+03  1.52746E+04
 -6.26111E+03  1.24361E+04 -8.57969E+03  3.81193E+03 -6.07191E+03 -1.20393E+03 -2.63831E+03 -2.02159E+03
 -1.07418E+03 -1.82261E+02 -1.88820E+03  2.80373E+03 -5.17528E+03  2.57800E+03 -8.82519E+03 -1.07424E+03
 -6.34421E+03 -8.69972E+03  4.51812E+02 -1.21588E+04  7.68804E+03 -1.15918E+04  1.20661E+04 -3.06472E+03
  1.22046E+04  5.82571E+03  5.81861E+03  1.08462E+04 -2.32934E+03  1.24501E+04 -8.95004E+03  7.61125E+03
 -1.16937E+04  1.02471E+03 -8.76109E+03 -7.34062E+03 -1.08969E+03 -1.02294E+04  5.03147E+03 -7.43691E+03
  7.67129E+03 -2.71551E+03  5.70253E+03  1.94734E+03  2.09187E+03  3.62567E+03  1.38731E+03  1.54765E+03
  2.48041E+03  8.19409E+02  3.31762E+03  1.69354E+03  4.10954E+03  4.39780E+03  3.33125E+03  6.56540E+03
 -2.46347E+03  9.69507E+03 -8.45706E+03  1.00559E+04 -1.26880E+04  2.80726E+03 -1.29624E+04 -5.24530E+03
 -6.51217E+03 -1.23464E+04  1.80748E+03 -1.36608E+04  7.35228E+03 -8.69054E+03  1.02603E+04 -2.39639E+03
  7.94582E+03  4.85247E+03  1.55340E+03  7.02872E+03 -3.40913E+03  4.35131E+03 -4.95216E+03 -3.82953E+02
 -2.50914E+03 -5.41475E+03  3.00537E+03 -5.51509E+03  4.80089E+03 -3.25217E+03  5.01954E+03  7.29702E+02
  3.09386E+03  2.28370E+03  1.04349E+03  1.98682E+03 -7.41498E+02  1.61153E+03  1.73709E+03 -6.06854E+02
  1.94493E+03 -7.15181E+02  5.12789E+03  1.78719E+03  2.85481E+03  6.89811E+03 -8.32404E+02  8.65431E+03
 -5.93729E+03  5.83857E+03 -7.84323E+03  1.68187E+03 -7.28618E+03 -2.74147E+03 -2.33374E+03 -4.57537E+03
  1.05077E+03 -4.99784E+03  3.33281E+03 -2.26671E+03  2.65701E+03  2.77571E+03 -1.39074E+03  4.16984E+03
 -5.61690E+03  1.89346E+03 -5.73801E+03 -3.11417E+03 -3.21421E+03 -6.67292E+03  7.57889E+02 -6.69061E+03
  3.68421E+03 -4.32047E+03  4.80067E+03 -5.46683E+02  4.29311E+03  1.67298E+03  8.80575E+02  3.70172E+03
 -2.78488E+03  1.16541E+03 -3.12222E+03 -2.13865E+03  9.23835E+02 -5.21374E+03  6.07854E+03 -4.18843E+03
  7.30635E+03  3.03934E+02  7.80935E+03  5.04958E+03  2.98909E+03  8.23751E+03 -2.60826E+03  7.40500E+03
 -6.60361E+03  3.09708E+03 -6.92931E+03 -1.11130E+03 -3.72462E+03 -5.39863E+03  1.10902E+03 -5.14341E+03
  5.58986E+03 -2.62015E+03  3.77458E+03  2.04872E+03  1.41647E+03  4.10159E+03 -7.11207E+02  3.93281E+03
 -1.95918E+03  2.72767E+03 -2.06693E+03  6.45497E+02 -9.32106E+02  6.70267E+02 -1.46700E+03  1.47221E+03
 -1.96319E+03  3.10024E+03 -5.32690E+03  3.19458E+03 -8.32991E+03  1.21565E+02 -9.30272E+03 -5.35500E+03
 -4.54870E+03 -1.05321E+04  2.09944E+03 -1.17457E+04  7.37652E+03 -9.53161E+03  1.18030E+04 -3.63818E+03
  1.07034E+04  1.73214E+03  6.64430E+03  7.25949E+03  4.32947E+02  8.07419E+03 -3.39530E+03  6.15170E+03
 -4.93938E+03  2.23807E+03 -3.13876E+03 -8.43330E+02 -9.58423E+02 -6.35783E+02 -6.25930E+02 -1.67410E+02
 -1.59403E+03  7.92038E+01 -2.34245E+03 -5.76176E+02 -4.92399E+02 -1.95327E+03 -1.70989E+02 -2.98041E+03
  3.90600E+03 -2.55532E+03  4.69824E+03  3.59293E+02  5.63969E+03  4.64592E+03  1.46385E+03  8.24086E+03
 -3.80130E+03  9.58540E+03 -8.89360E+03  5.62801E+03 -9.93935E+03 -1.05423E+03 -7.23381E+03 -6.21035E+03
 -3.21147E+03 -8.59913E+03  2.24869E+03 -7.73983E+03  5.47740E+03 -4.55361E+03  5.24797E+03  3.66396E+02
  3.05910E+03  2.81775E+03 -3.47320E+02  2.67894E+03 -1.89724E+03 -3.49954E+02 -8.79300E+01 -1.84898E+03
  2.44309E+03 -1.26783E+03  3.34667E+03  7.98054E+02  2.19736E+03  3.12484E+03 -1.15495E+02  4.37557E+03
 -3.60467E+03  3.98541E+03 -5.69721E+03  2.92688E+02 -4.92904E+03 -3.77474E+03 -6.33973E+02 -6.79588E+03
  3.68259E+03 -5.89544E+03  6.36149E+03 -1.75960E+03  6.19948E+03  1.29859E+03  3.75415E+03  4.88449E+03
  9.90746E+02  5.27584E+03 -2.35550E+03  4.33790E+03 -3.38630E+03  2.30725E+03 -2.71513E+03  3.36917E+02
 -1.60034E+03 -3.76421E+02 -1.42129E+03  5.39445E+02 -3.16373E+03  1.03705E+03 -4.20646E+03 -9.43345E+02
 -4.28528E+03 -2.63952E+03 -1.27289E+03 -5.24947E+03  2.70544E+03 -6.09790E+03  4.65089E+03 -2.28155E+03
  5.63801E+03  7.34229E+02  2.99977E+03  3.30109E+03 -5.48579E+02  5.46539E+03 -4.09655E+03  4.12889E+03
