 $NMID ID='MM_0lb_SNR800_17hz_g50_15.RAW', FMTDAT='(8E13.5)'
 TRAMP=1., VOLUME=1. $END
  3.09475E+05  2.07530E+02  3.37431E+05  2.50630E+05  8.42784E+04  3.37732E+05 -1.32465E+05  2.50511E+05
 -1.90029E+05  8.26920E+04 -1.11606E+05 -3.27671E+04  1.52322E+03 -5.03188E+04  5.37996E+04  1.66593E+02
  3.51390E+04  5.28246E+04 -1.69638E+04  7.48937E+04 -6.02306E+04  6.32280E+04 -8.33920E+04  3.16177E+04
 -8.02523E+04 -1.13509E+04 -5.69197E+04 -5.06003E+04 -1.49906E+04 -6.91128E+04  2.70310E+04 -4.51077E+04
  3.95538E+04  3.82195E+03  1.55297E+04  4.73950E+04 -3.41505E+04  4.65639E+04 -6.57448E+04 -2.48790E+02
 -5.26224E+04 -5.64525E+04 -6.55719E+03 -7.60160E+04  3.34951E+04 -5.39720E+04  4.70106E+04 -1.65261E+04
  4.22467E+04  1.10312E+04  3.14331E+04  2.47544E+04  1.56561E+04  2.88308E+04 -4.91902E+03  2.70692E+04
 -2.19116E+04  1.25684E+04 -1.87606E+04 -4.38261E+03  4.90822E+03 -7.63419E+03  2.13610E+04  1.15316E+04
  7.15084E+03  3.43439E+04 -3.10749E+04  3.45527E+04 -6.21593E+04  2.01626E+03 -5.62548E+04 -4.19650E+04
 -1.24256E+04 -6.18392E+04  3.88005E+04 -4.41618E+04  5.66110E+04 -1.95133E+03  3.29246E+04  3.10309E+04
 -6.41420E+03  3.42635E+04 -2.90591E+04  1.46447E+04 -2.92293E+04 -4.95788E+03 -1.55301E+04 -1.05674E+04
 -7.75782E+03 -1.21466E+04 -7.54527E+02 -1.70933E+04  6.99416E+03 -2.26216E+04  1.51985E+04 -1.36008E+04
  1.20003E+04  4.73068E+03 -7.05775E+03  1.30164E+04 -2.02859E+04 -3.36083E+03 -8.04577E+03 -3.17573E+04
  2.16804E+04 -4.15595E+04  4.60248E+04 -1.94269E+04  4.35185E+04  1.86908E+04  1.46514E+04  4.25179E+04
 -1.55971E+04  3.18759E+04 -2.40350E+04  1.29290E+03 -9.08587E+03 -2.68768E+04  2.06152E+04 -3.24540E+04
  3.96785E+04 -8.07794E+03  3.31172E+04  2.30068E+04  1.65385E+04  4.41593E+04 -7.70058E+03  4.70673E+04
 -2.96454E+04  3.14089E+04 -3.93912E+04  9.02548E+03 -4.02139E+04 -1.56994E+04 -2.23327E+04 -3.59638E+04
  7.14829E+03 -3.57226E+04  3.01536E+04 -1.36300E+04  2.79055E+04  1.10092E+04  3.46953E+03  1.85221E+04
 -1.34281E+04  7.85491E+03 -9.86130E+03 -7.49750E+03  5.60548E+03 -1.04722E+04  1.73327E+04  6.18160E+03
  1.27436E+04  2.18016E+04 -6.43127E+03  2.41241E+04 -2.19596E+04  1.02321E+04 -2.63605E+04 -5.58982E+03
 -1.80509E+04 -1.68017E+04 -6.75840E+03 -1.80992E+04  3.67081E+03 -1.65625E+04  1.36064E+04 -1.59228E+04
  2.31882E+04 -1.19035E+04  2.98808E+04  1.66830E+03  2.20426E+04  1.78671E+04  3.93607E+03  3.40564E+04
 -1.67792E+04  2.86421E+04 -2.69492E+04  9.65999E+03 -2.01710E+04 -1.02603E+04 -4.02898E+03 -1.38604E+04
  2.34829E+03 -3.60120E+03 -3.68033E+03  5.97227E+03 -1.43384E+04  5.05619E+03 -1.44104E+04 -5.69442E+03
 -9.10177E+03 -1.68141E+04  4.90869E+03 -2.10717E+04  1.37704E+04 -1.51582E+04  1.59961E+04 -1.52805E+03
  9.96672E+03  1.16054E+04 -8.46043E+02  1.71355E+04 -1.13350E+04  9.83767E+03 -1.68895E+04 -3.53246E+03
 -1.23617E+04 -1.52743E+04 -1.51969E+03 -2.02664E+04  9.44118E+03 -1.63252E+04  1.72977E+04 -8.03165E+03
  1.58535E+04  6.55136E+02  1.11281E+04  4.06796E+03  5.73997E+03  6.91569E+02  8.55315E+03 -1.59309E+03
  1.52023E+04  2.85344E+03  1.66301E+04  1.35492E+04  1.02634E+04  2.70256E+04 -3.03124E+03  2.96400E+04
 -1.74455E+04  2.28756E+04 -2.73906E+04  1.12016E+04 -2.79614E+04 -1.88582E+03 -2.37090E+04 -1.61905E+04
 -1.06092E+04 -2.31016E+04  7.86938E+03 -2.08920E+04  1.83855E+04 -1.15865E+04  1.69191E+04  4.37437E+03
  7.18926E+03  1.23596E+04 -7.80524E+03  1.14003E+04 -1.43814E+04  2.61810E+03 -1.09045E+04 -8.69868E+03
 -1.19056E+01 -1.36274E+04  6.92885E+03 -1.03777E+04  8.85468E+03 -1.36826E+03  1.77416E+03  5.17005E+03
 -6.12245E+03  1.74968E+03 -4.32923E+03 -5.18998E+03  1.35748E+02 -1.13650E+04  8.53152E+03 -1.18508E+04
  1.41571E+04 -5.62871E+03  1.40872E+04  2.54806E+03  1.21677E+04  1.05539E+04  5.66640E+03  1.61553E+04
 -2.29131E+03  1.80484E+04 -1.13307E+04  1.15247E+04 -1.28290E+04  2.78558E+03 -9.42355E+03 -2.73005E+03
 -4.91677E+03 -3.57146E+03 -6.86329E+02  1.69056E+03 -1.92734E+03  2.24401E+03 -4.12984E+03  3.87082E+03
 -8.93709E+03 -4.64021E+02 -9.59056E+03 -8.02174E+03 -3.96414E+03 -1.26478E+04  3.94614E+03 -9.19401E+03
  8.07609E+03 -4.19966E+03  5.98412E+03  2.35607E+03  5.12655E+02  3.47990E+03 -4.16744E+03  9.80827E+00
 -4.01096E+03 -5.94934E+03 -7.15639E+02 -8.34190E+03  4.50517E+03 -9.08311E+03  1.11910E+04 -4.61002E+03
  1.35697E+04  9.78680E+02  9.86251E+03  7.33632E+03  2.05711E+03  9.81113E+03 -5.83367E+03  9.08944E+03
 -7.82256E+03  2.69537E+03 -3.81179E+03 -1.53168E+03  1.34052E+03 -2.34297E+03  5.32806E+03 -1.08575E+03
  4.78635E+03  3.95502E+03  1.07423E+03  6.97379E+03 -4.98299E+03  7.21163E+03 -8.82925E+03  1.51062E+03
 -5.52784E+03 -4.15646E+03  2.61799E+02 -7.43516E+03  4.31339E+03 -3.82256E+03  4.08395E+03  1.21255E+03
  6.85678E+02  3.81902E+03 -4.28288E+03  5.85905E+03 -6.12523E+03  2.53986E+03 -5.83787E+03 -1.34596E+03
 -3.83647E+03 -7.19608E+03  1.50824E+03 -8.42515E+03  7.26865E+03 -5.34542E+03  7.79400E+03  1.37669E+03
  5.42750E+03  6.34062E+03 -1.71983E+02  8.30101E+03 -5.86422E+03  4.68938E+03 -5.78777E+03 -7.15370E+02
 -6.36195E+03 -5.61097E+03 -1.64833E+03 -5.91171E+03  3.02884E+03 -5.08198E+03  3.44045E+03 -2.73935E+03
  3.14540E+03  2.69961E+02  8.53471E+01  1.26198E+03  5.63662E+02 -7.63012E+02  4.77079E+02 -2.59834E+03
  5.21216E+03 -1.29202E+03  6.19618E+03  1.02978E+03  6.53069E+03  3.85955E+03  5.92198E+03  8.60758E+03
 -1.60748E+03  1.05545E+04 -9.34217E+03  7.52084E+03 -1.17030E+04  1.58560E+03 -9.17898E+03 -3.31406E+03
 -4.84645E+03 -7.70784E+03 -5.02643E+02 -6.42117E+03  2.46801E+03 -2.78516E+03  2.20679E+03 -2.46802E+03
  1.34058E+03 -1.61321E+03  2.45556E+03 -2.65014E+03  3.68291E+03 -1.58878E+03  4.00258E+03  3.35297E+02
  5.20472E+03  1.16973E+03  1.52776E+03  4.25649E+03 -1.46591E+03  3.71754E+03 -4.98024E+03  3.21212E+03
 -5.88942E+03 -1.16313E+03 -2.79640E+03 -3.95589E+03  6.14945E+01 -6.28775E+03  3.59176E+03 -6.35698E+03
  6.25465E+03 -4.12671E+03  7.97468E+03  1.02840E+02  5.61705E+03  5.10154E+03  1.03682E+03  7.20912E+03
 -2.88423E+03  6.61052E+03 -3.75367E+03  2.34955E+03 -2.65489E+03 -1.01563E+03 -5.80466E+02 -8.44437E+02
 -5.35274E+02  5.05346E+02 -1.22874E+03  2.16143E+03 -2.79687E+03  1.33005E+03 -4.88066E+03 -1.99528E+02
 -2.21775E+03 -4.90255E+03  5.65621E+02 -5.55649E+03  3.26774E+03 -5.30221E+03  4.85176E+03 -1.34862E+03
  5.08956E+03  2.84181E+03  2.00345E+03  3.88995E+03 -1.16604E+03  5.19951E+03 -3.37465E+03  3.15448E+03
 -4.47567E+03  4.75006E+02 -4.09876E+03 -3.13362E+03 -3.19892E+02 -3.87433E+03  1.93922E+03 -3.26428E+03
  3.24367E+03 -1.44382E+03  2.29892E+03  6.11889E+02  7.47656E+02  2.09286E+03  9.35982E+02  6.61761E+02
  1.47653E+03  3.25652E+02  1.08958E+03  9.78380E+02  1.36233E+03  2.49686E+03  1.68026E+03  2.42210E+03
 -1.44445E+03  3.92284E+03 -3.19449E+03  4.55806E+03 -4.46115E+03  1.28369E+03 -5.47106E+03 -7.86365E+02
 -2.26891E+03 -4.69809E+03  6.84451E+02 -5.89462E+03  2.29245E+03 -3.09960E+03  3.77273E+03 -1.14793E+03
  3.14568E+03  2.21481E+03  5.89260E+02  2.78384E+03 -9.32599E+02  1.67050E+03 -1.55940E+03 -9.33352E+01
 -7.40167E+02 -1.85673E+03  1.26427E+03 -2.04459E+03  1.66543E+03 -1.20681E+03  1.61526E+03  5.38702E+02
  8.99230E+02  6.86523E+02  9.19939E+02  2.41049E+02 -5.02471E+02  1.01723E+03  1.47866E+03 -4.14114E+01
  1.29708E+02 -1.61335E+02  2.16240E+03  8.16594E+02  6.60865E+02  2.86540E+03 -5.93241E+02  3.70592E+03
 -2.18138E+03  1.85288E+03 -2.64907E+03  6.53120E+02 -2.37706E+03 -1.07176E+03 -4.38393E+02 -1.38864E+03
  2.79475E+02 -1.73118E+03  1.18703E+03 -1.11321E+03  4.35442E+02  1.50574E+03 -8.87774E+02  1.51719E+03
 -1.88930E+03  8.39287E+02 -2.12546E+03 -1.56983E+03 -1.04971E+03 -2.63624E+03  1.01569E+02 -2.34438E+03
  8.91677E+02 -6.67774E+02  1.06024E+03  3.30764E+02  1.61325E+03  1.12966E+02  2.08197E+02  1.31944E+03
 -5.85309E+02  3.42269E+02 -9.10420E+02 -3.25105E+02  8.87140E+02 -1.46400E+03  1.97463E+03 -1.19602E+03
  2.07209E+03  3.47473E+01  3.49056E+03  1.25867E+03  1.46474E+03  2.21692E+03 -4.68650E+02  2.16172E+03
 -2.02028E+03  3.56668E+02 -2.00324E+03 -2.95598E+02 -1.01312E+03 -1.68021E+03  4.92613E+02 -8.55643E+02
  1.85682E+03 -1.01176E+03  1.18913E+03  8.89238E+02  3.57363E+02  1.89009E+03  1.63532E+02  1.28725E+03
 -3.91920E+02  9.82546E+02 -7.07129E+02  2.67760E+02  8.71238E+00  1.16184E+02 -7.29986E+02  7.41424E+02
 -1.04213E+03  1.29947E+03 -2.05199E+03  7.27550E+02 -2.23461E+03  1.84572E+02 -3.04136E+03 -1.41294E+03
 -1.33288E+03 -3.03390E+03  4.92873E+02 -3.61835E+03  1.38211E+03 -2.99208E+03  3.41074E+03 -1.33121E+03
  3.49617E+03  3.57818E+01  1.93757E+03  2.02260E+03 -2.30335E+02  1.94534E+03 -1.12640E+03  1.88624E+03
 -1.35053E+03  1.10151E+03 -7.01890E+02 -3.92371E+02 -3.93995E+02  3.31583E+02 -5.38497E+02  8.18197E+01
 -1.18754E+03  3.43896E+01 -1.08871E+03  3.54338E+01  2.09316E+02 -7.16950E+02 -3.57940E+02 -1.08181E+03
  1.44170E+03 -7.71975E+02  8.23805E+02  2.20558E+02  1.27741E+03  1.49464E+03 -1.81694E+02  1.77222E+03
 -1.23516E+03  2.73835E+03 -2.17372E+03  1.86508E+03 -2.62283E+03 -2.46101E+02 -1.60291E+03 -1.54353E+03
 -9.05277E+02 -1.77174E+03  5.56603E+02 -1.77481E+03  9.28984E+02 -8.75632E+02  1.05028E+03  3.62973E+02
  9.17944E+02  5.21981E+02 -1.73798E+02  5.12461E+02 -3.93427E+02  5.36634E+01 -4.72022E+01 -5.16973E+02
  5.72474E+02 -2.20183E+01  5.98676E+02  6.75500E+02  1.55970E+02  8.33690E+02  2.29100E+02  5.18141E+02
 -8.25519E+02  8.07911E+02 -9.64788E+02  2.23967E+02 -1.00167E+03 -8.71534E+02 -1.41991E+02 -1.53313E+03
  8.75698E+02 -1.13092E+03  1.18861E+03 -2.44217E+02  1.49500E+03 -4.57820E+02  7.30302E+02  1.20458E+03
  4.58197E+02  7.55432E+02 -2.41640E+02  7.43727E+02 -9.98333E+02  9.39826E+02 -9.10482E+02  1.03274E+02
 -2.55850E+02 -3.37028E+02 -3.71952E+02  3.13268E+02 -7.22158E+02  2.73717E+02 -1.00959E+03 -1.48919E+02
 -1.37058E+03  1.45123E+01 -4.97488E+02 -1.05612E+03  7.57888E+02 -1.75347E+03  1.18654E+03 -6.71343E+02
  1.22990E+03  2.51768E+02  4.94656E+01  3.50071E+02 -4.19215E+01  1.30652E+03 -5.23887E+02  8.00590E+02
