 $NMID ID='MM_0lb_SNR800_10hz_g55_53.RAW', FMTDAT='(8E13.5)'
 TRAMP=1., VOLUME=1. $END
  3.09950E+05  1.98091E+02  3.37957E+05  2.50849E+05  8.50109E+04  3.38494E+05 -1.32841E+05  2.51832E+05
 -1.90756E+05  8.37566E+04 -1.12602E+05 -3.22906E+04  3.59996E+02 -5.06096E+04  5.36678E+04 -4.22277E+02
  3.55236E+04  5.29515E+04 -1.68566E+04  7.60171E+04 -6.11486E+04  6.39518E+04 -8.50641E+04  3.26559E+04
 -8.24502E+04 -1.16085E+04 -5.80466E+04 -5.25318E+04 -1.50778E+04 -7.11134E+04  2.83223E+04 -4.65937E+04
  4.10886E+04  3.80195E+03  1.70278E+04  4.87253E+04 -3.48041E+04  4.74591E+04 -6.77548E+04  2.02531E+02
 -5.45361E+04 -5.76660E+04 -6.93559E+03 -7.91988E+04  3.47507E+04 -5.71808E+04  5.01770E+04 -1.79282E+04
  4.49413E+04  1.16612E+04  3.27519E+04  2.63912E+04  1.62204E+04  3.05266E+04 -5.97959E+03  2.77382E+04
 -2.27297E+04  1.20445E+04 -1.85262E+04 -5.81247E+03  7.10162E+03 -7.33948E+03  2.37918E+04  1.36425E+04
  7.03017E+03  3.76033E+04 -3.36269E+04  3.66254E+04 -6.53802E+04  1.97075E+03 -5.90421E+04 -4.41868E+04
 -1.28388E+04 -6.56939E+04  4.12289E+04 -4.67394E+04  6.10371E+04 -2.59229E+03  3.64384E+04  3.40484E+04
 -5.53700E+03  3.91011E+04 -3.19246E+04  1.84746E+04 -3.30977E+04 -3.63609E+03 -1.92147E+04 -1.16940E+04
 -9.42620E+03 -1.49542E+04 -6.94029E+01 -1.96117E+04  8.65159E+03 -2.34897E+04  1.58294E+04 -1.25970E+04
  1.06511E+04  5.96346E+03 -1.01081E+04  1.28487E+04 -2.31922E+04 -6.83514E+03 -8.64995E+03 -3.69198E+04
  2.49302E+04 -4.67339E+04  5.19571E+04 -2.06291E+04  4.84368E+04  2.05245E+04  1.68860E+04  4.69838E+04
 -1.65389E+04  3.60786E+04 -2.76061E+04  2.15676E+03 -1.16723E+04 -2.93565E+04  2.18086E+04 -3.64203E+04
  4.44921E+04 -1.10372E+04  4.01648E+04  2.46170E+04  2.14937E+04  5.06053E+04 -8.56284E+03  5.58963E+04
 -3.53596E+04  3.76935E+04 -4.69788E+04  1.09952E+04 -4.73866E+04 -1.82007E+04 -2.62544E+04 -4.14866E+04
  7.74278E+03 -4.20611E+04  3.44757E+04 -1.68123E+04  3.17274E+04  1.09808E+04  5.04012E+03  2.05306E+04
 -1.38222E+04  9.16486E+03 -1.08679E+04 -7.54504E+03  5.94310E+03 -1.15051E+04  1.88144E+04  5.38504E+03
  1.47780E+04  2.27136E+04 -5.52925E+03  2.66628E+04 -2.33908E+04  1.37981E+04 -3.16693E+04 -2.66791E+03
 -2.49453E+04 -1.86012E+04 -1.13607E+04 -2.46825E+04  4.00926E+03 -2.52988E+04  1.92174E+04 -2.25268E+04
  3.14325E+04 -1.40632E+04  3.78404E+04  4.82769E+03  2.66283E+04  2.41098E+04  4.71466E+03  4.06358E+04
 -2.00017E+04  3.35791E+04 -3.02332E+04  1.16842E+04 -2.23080E+04 -1.01864E+04 -4.87962E+03 -1.28943E+04
  7.60341E+02 -1.19184E+03 -7.35886E+03  8.15078E+03 -1.99677E+04  5.15719E+03 -1.95453E+04 -9.19228E+03
 -1.18097E+04 -2.27741E+04  5.74547E+03 -2.72993E+04  1.83714E+04 -1.93100E+04  2.24970E+04 -1.40548E+03
  1.40010E+04  1.59700E+04 -1.23290E+03  2.29459E+04 -1.57928E+04  1.27017E+04 -2.31767E+04 -4.67446E+03
 -1.67703E+04 -2.03982E+04 -2.01914E+03 -2.79370E+04  1.21665E+04 -2.27795E+04  2.28795E+04 -1.16833E+04
  2.17221E+04  5.74998E+01  1.56286E+04  5.15269E+03  8.91961E+03  1.30301E+03  1.20863E+04 -2.23119E+03
  2.15542E+04  3.04990E+03  2.46967E+04  1.80539E+04  1.63944E+04  3.72436E+04 -2.49625E+03  4.33345E+04
 -2.47785E+04  3.65126E+04 -4.08201E+04  1.82282E+04 -4.35651E+04 -3.09214E+03 -3.51385E+04 -2.55689E+04
 -1.38275E+04 -3.58860E+04  1.25520E+04 -3.19669E+04  2.70392E+04 -1.49865E+04  2.38349E+04  7.59716E+03
  8.12137E+03  1.81914E+04 -1.10782E+04  1.52885E+04 -1.96040E+04  2.90964E+03 -1.49037E+04 -1.26926E+04
 -5.69431E+02 -1.87392E+04  1.02561E+04 -1.36452E+04  1.32441E+04 -1.14982E+03  3.34325E+03  8.65419E+03
 -8.34946E+03  4.06372E+03 -8.64624E+03 -6.46303E+03 -2.28934E+03 -1.77671E+04  1.14852E+04 -1.91552E+04
  2.21508E+04 -1.07196E+04  2.54203E+04  3.17062E+03  2.21078E+04  1.77846E+04  1.03029E+04  2.82282E+04
 -4.79853E+03  3.00888E+04 -1.94703E+04  1.83869E+04 -2.16615E+04  3.66187E+03 -1.50939E+04 -5.65925E+03
 -6.50633E+03 -7.14752E+03 -4.73407E+02  1.99734E+02 -3.21466E+03  3.21326E+03 -7.56706E+03  5.52448E+03
 -1.37727E+04 -8.30924E+02 -1.39406E+04 -1.17327E+04 -5.80256E+03 -1.89353E+04  6.67046E+03 -1.49799E+04
  1.24212E+04 -6.21484E+03  8.80183E+03  4.19531E+03 -4.62683E+02  6.28754E+03 -7.59206E+03 -2.64137E+02
 -7.09094E+03 -9.80389E+03 -1.36396E+03 -1.52749E+04  8.91067E+03 -1.57727E+04  1.94372E+04 -8.22647E+03
  2.24839E+04  2.05275E+03  1.66288E+04  1.38814E+04  2.57462E+03  1.81952E+04 -9.35453E+03  1.46533E+04
 -1.20449E+04  3.94286E+03 -6.06500E+03 -3.28815E+03  2.10921E+03 -4.30525E+03  7.97366E+03 -1.17297E+03
  6.80280E+03  6.41225E+03  1.30718E+03  1.22279E+04 -8.70506E+03  1.15943E+04 -1.48370E+04  2.43976E+03
 -1.02709E+04 -7.67802E+03  3.49418E+02 -1.30449E+04  8.10761E+03 -6.32451E+03  8.77838E+03  3.37106E+03
  1.80590E+03  9.54599E+03 -8.13632E+03  1.10814E+04 -1.29598E+04  4.93040E+03 -1.35159E+04 -4.87010E+03
 -7.81855E+03 -1.52604E+04  3.91453E+03 -1.72453E+04  1.48177E+04 -1.00692E+04  1.57904E+04  2.76538E+03
  9.84495E+03  1.30480E+04 -1.02899E+03  1.46180E+04 -1.14195E+04  8.31798E+03 -1.21581E+04 -9.64347E+02
 -1.01431E+04 -9.98665E+03 -1.57494E+03 -1.11852E+04  6.27206E+03 -9.30180E+03  7.34879E+03 -3.86488E+03
  4.53638E+03  2.03958E+03 -9.62011E+02  1.85900E+03 -3.29939E+02 -2.96451E+03  2.39969E+03 -6.72883E+03
  1.06093E+04 -4.59019E+03  1.52316E+04  1.44409E+03  1.49146E+04  1.05498E+04  9.89135E+03  1.96626E+04
 -4.75042E+03  2.19691E+04 -1.87523E+04  1.68577E+04 -2.43919E+04  3.01178E+03 -1.94550E+04 -8.15388E+03
 -9.87953E+03 -1.59139E+04  1.06736E+02 -1.38841E+04  4.93665E+03 -7.51266E+03  4.91025E+03 -5.01264E+03
  3.42432E+03 -3.23347E+03  3.69443E+03 -3.89584E+03  5.34679E+03 -3.74828E+03  7.69153E+03 -1.31593E+03
  9.65328E+03  2.37817E+03  5.61128E+03  8.90326E+03 -1.97955E+03  1.04568E+04 -1.06939E+04  8.11530E+03
 -1.37817E+04 -1.71397E+03 -8.67547E+03 -9.87959E+03 -8.99714E+02 -1.51049E+04  8.59829E+03 -1.47597E+04
  1.55142E+04 -8.25160E+03  1.83964E+04  2.61272E+03  1.24673E+04  1.27646E+04  1.93163E+03  1.65985E+04
 -6.62167E+03  1.37957E+04 -9.67635E+03  4.62251E+03 -6.65086E+03 -1.62432E+03 -2.80205E+03 -2.20992E+03
 -1.14935E+03  1.89563E+02 -2.65517E+03  3.06527E+03 -5.42053E+03  2.54655E+03 -9.35943E+03 -1.34458E+03
 -6.65699E+03 -9.46672E+03 -1.37293E+01 -1.35211E+04  8.49259E+03 -1.27400E+04  1.33697E+04 -3.82937E+03
  1.36472E+04  6.91818E+03  6.30335E+03  1.21746E+04 -2.70229E+03  1.36106E+04 -9.54688E+03  8.84508E+03
 -1.29733E+04  7.49073E+02 -1.03592E+04 -7.96909E+03 -1.16600E+03 -1.14048E+04  6.07539E+03 -8.40701E+03
  8.52740E+03 -2.41480E+03  5.89545E+03  2.67054E+03  1.80034E+03  4.03068E+03  1.49939E+03  1.93114E+03
  2.64764E+03  1.12641E+03  3.52611E+03  2.04854E+03  4.25002E+03  4.86015E+03  3.71883E+03  7.56034E+03
 -2.68257E+03  1.10847E+04 -9.78599E+03  1.09335E+04 -1.39890E+04  2.94972E+03 -1.42433E+04 -6.05341E+03
 -7.18894E+03 -1.36482E+04  2.15103E+03 -1.52292E+04  8.53781E+03 -9.16362E+03  1.15895E+04 -2.53194E+03
  8.95433E+03  5.59303E+03  1.91420E+03  7.99613E+03 -3.65799E+03  5.39852E+03 -5.39126E+03 -6.58212E+02
 -2.63383E+03 -5.91691E+03  3.12038E+03 -6.10206E+03  5.70481E+03 -3.11669E+03  5.38115E+03  1.54647E+03
  2.97931E+03  2.42537E+03  1.29788E+03  2.43761E+03 -8.33152E+02  1.72069E+03  1.51785E+03 -7.59551E+02
  2.04381E+03 -6.53997E+02  6.09783E+03  2.40261E+03  3.42289E+03  7.56391E+03 -1.20571E+03  9.55812E+03
 -6.60180E+03  6.41563E+03 -8.69445E+03  1.31394E+03 -8.02492E+03 -2.54372E+03 -3.09004E+03 -5.29160E+03
  1.19696E+03 -5.61399E+03  3.21814E+03 -2.57081E+03  3.00775E+03  2.46617E+03 -1.63645E+03  4.70234E+03
 -5.71991E+03  2.83992E+03 -6.34554E+03 -3.29251E+03 -3.84193E+03 -7.69758E+03  1.02875E+03 -7.75006E+03
  4.60818E+03 -4.42670E+03  5.47404E+03 -3.38062E+02  4.63771E+03  2.20600E+03  4.75686E+02  3.77941E+03
 -2.69324E+03  1.30825E+03 -3.44066E+03 -2.60460E+03  1.42423E+03 -5.92081E+03  6.94099E+03 -4.84340E+03
  8.39285E+03  6.07021E+02  8.40170E+03  5.61896E+03  2.74852E+03  9.36581E+03 -3.09775E+03  8.41044E+03
 -7.13651E+03  3.50556E+03 -7.87982E+03 -1.21551E+03 -4.13281E+03 -5.75826E+03  1.09893E+03 -5.26954E+03
  5.40471E+03 -2.27946E+03  4.14410E+03  2.44554E+03  1.64467E+03  4.91311E+03 -8.48236E+02  4.34435E+03
 -2.20782E+03  3.01683E+03 -1.98613E+03  9.62553E+02 -7.20741E+02  5.31299E+02 -1.37566E+03  1.95404E+03
 -2.32280E+03  3.38579E+03 -5.85339E+03  3.22008E+03 -9.04721E+03  2.31213E+02 -9.75868E+03 -6.14984E+03
 -5.37975E+03 -1.17053E+04  2.02027E+03 -1.32635E+04  8.19203E+03 -1.09086E+04  1.30903E+04 -4.11106E+03
  1.22784E+04  2.25360E+03  7.54425E+03  7.88692E+03  5.98501E+02  9.07826E+03 -3.45283E+03  7.03865E+03
 -5.13581E+03  2.46856E+03 -3.45623E+03 -1.01885E+03 -1.13693E+03 -9.78293E+02 -4.96037E+02 -1.25129E+02
 -1.99307E+03  5.44403E+02 -2.13842E+03 -2.67398E+02 -5.06463E+02 -2.45616E+03 -1.83806E+02 -3.18306E+03
  4.18886E+03 -3.08984E+03  5.02083E+03  2.41243E+02  5.63501E+03  4.65458E+03  1.52684E+03  8.64795E+03
 -4.32642E+03  1.05764E+04 -9.35068E+03  6.43139E+03 -1.12268E+04 -1.09437E+03 -8.00708E+03 -6.99506E+03
 -3.59443E+03 -9.46055E+03  2.60638E+03 -8.32241E+03  5.56902E+03 -4.46114E+03  5.82568E+03  2.04155E+02
  2.85695E+03  2.70898E+03 -5.73823E+02  2.55673E+03 -1.27919E+03  7.03249E+00 -2.61646E+02 -2.32544E+03
  2.68223E+03 -1.33850E+03  3.92827E+03  1.36693E+03  2.57986E+03  3.93581E+03  2.23829E+02  4.79523E+03
 -4.10070E+03  4.64069E+03 -6.11191E+03  3.78501E+02 -5.41508E+03 -4.07783E+03 -7.19874E+02 -7.49012E+03
  4.40332E+03 -6.36869E+03  6.77460E+03 -1.85384E+03  6.86051E+03  1.53608E+03  4.00179E+03  5.59835E+03
  8.51559E+02  6.03823E+03 -1.86330E+03  4.78927E+03 -3.93007E+03  2.46727E+03 -3.33844E+03  8.70324E+01
 -1.91548E+03 -4.60524E+01 -1.58715E+03  8.69955E+02 -3.03682E+03  1.51487E+03 -4.55541E+03 -5.59162E+02
 -4.21605E+03 -3.20644E+03 -1.33477E+03 -6.46264E+03  2.70924E+03 -6.33886E+03  5.07099E+03 -2.80946E+03
  6.00427E+03  8.11872E+02  2.92347E+03  4.05477E+03 -5.53866E+02  6.34050E+03 -4.20068E+03  3.85716E+03
