 $NMID ID='MM_0lb_SNR800_20hz_g55_36.RAW', FMTDAT='(8E13.5)'
 TRAMP=1., VOLUME=1. $END
  3.09722E+05  4.09396E+02  3.37223E+05  2.50336E+05  8.44646E+04  3.37388E+05 -1.32494E+05  2.50411E+05
 -1.89760E+05  8.25478E+04 -1.11309E+05 -3.27780E+04  1.34660E+03 -5.01260E+04  5.37083E+04  1.08102E+02
  3.53028E+04  5.29275E+04 -1.68812E+04  7.49341E+04 -6.02229E+04  6.27812E+04 -8.33009E+04  3.14490E+04
 -7.97990E+04 -1.11920E+04 -5.64931E+04 -5.04082E+04 -1.52216E+04 -6.84753E+04  2.67075E+04 -4.47209E+04
  3.92696E+04  4.03799E+03  1.57661E+04  4.71881E+04 -3.41175E+04  4.63591E+04 -6.55008E+04 -6.79934E+02
 -5.21498E+04 -5.57141E+04 -6.25698E+03 -7.53046E+04  3.33907E+04 -5.35573E+04  4.64441E+04 -1.64982E+04
  4.17930E+04  1.09205E+04  3.08501E+04  2.47169E+04  1.57280E+04  2.80646E+04 -4.78442E+03  2.69810E+04
 -2.18223E+04  1.29698E+04 -1.91812E+04 -4.23473E+03  4.49630E+03 -7.53600E+03  2.12900E+04  1.09515E+04
  7.36049E+03  3.32825E+04 -3.04650E+04  3.40648E+04 -6.13079E+04  2.25548E+03 -5.55485E+04 -4.14024E+04
 -1.24969E+04 -6.10035E+04  3.83808E+04 -4.36552E+04  5.57117E+04 -1.92477E+03  3.24307E+04  3.07525E+04
 -6.52071E+03  3.33612E+04 -2.83569E+04  1.38395E+04 -2.77089E+04 -5.23214E+03 -1.46502E+04 -1.00404E+04
 -7.45536E+03 -1.13935E+04 -1.14392E+03 -1.66345E+04  6.98120E+03 -2.24293E+04  1.49943E+04 -1.40061E+04
  1.22493E+04  4.50742E+03 -6.43470E+03  1.27121E+04 -1.94845E+04 -2.75000E+03 -7.93670E+03 -3.06087E+04
  2.10882E+04 -4.05186E+04  4.52076E+04 -1.88752E+04  4.19189E+04  1.86126E+04  1.43956E+04  4.18548E+04
 -1.53584E+04  3.09075E+04 -2.33069E+04  1.28400E+03 -8.28090E+03 -2.65804E+04  2.06549E+04 -3.12375E+04
  3.81628E+04 -7.37134E+03  3.16334E+04  2.28264E+04  1.52900E+04  4.23284E+04 -7.67939E+03  4.55479E+04
 -2.85961E+04  3.00088E+04 -3.73590E+04  8.15268E+03 -3.84677E+04 -1.49384E+04 -2.15487E+04 -3.43874E+04
  6.83681E+03 -3.42779E+04  2.90290E+04 -1.27883E+04  2.68763E+04  1.06369E+04  3.29276E+03  1.77602E+04
 -1.29928E+04  7.40728E+03 -9.50959E+03 -7.77725E+03  5.85702E+03 -9.86124E+03  1.72950E+04  6.81490E+03
  1.24194E+04  2.18472E+04 -6.59461E+03  2.35905E+04 -2.13400E+04  9.05581E+03 -2.54017E+04 -6.23567E+03
 -1.69189E+04 -1.61438E+04 -5.44228E+03 -1.66597E+04  3.76663E+03 -1.42218E+04  1.23819E+04 -1.44051E+04
  2.10307E+04 -1.15446E+04  2.79414E+04  1.07707E+03  2.12791E+04  1.59690E+04  4.14961E+03  3.20924E+04
 -1.59385E+04  2.74237E+04 -2.58336E+04  9.24933E+03 -1.97138E+04 -1.02741E+04 -3.72619E+03 -1.40456E+04
  2.71093E+03 -4.36750E+03 -2.50406E+03  5.10532E+03 -1.27535E+04  5.34976E+03 -1.30779E+04 -4.72864E+03
 -8.68718E+03 -1.54505E+04  4.41677E+03 -1.91685E+04  1.25898E+04 -1.39566E+04  1.43585E+04 -1.42213E+03
  8.91597E+03  1.06629E+04 -6.61560E+02  1.54450E+04 -9.98548E+03  8.77875E+03 -1.54675E+04 -3.40789E+03
 -1.13816E+04 -1.40272E+04 -1.43218E+03 -1.88256E+04  8.50644E+03 -1.49524E+04  1.58155E+04 -7.22431E+03
  1.44610E+04  5.62234E+02  1.03602E+04  3.85962E+03  5.19438E+03  3.06699E+02  7.31469E+03 -1.42672E+03
  1.35606E+04  2.77508E+03  1.44955E+04  1.27329E+04  8.80730E+03  2.40415E+04 -3.20922E+03  2.59307E+04
 -1.53410E+04  1.96234E+04 -2.39366E+04  9.39148E+03 -2.43106E+04 -1.86966E+03 -2.09326E+04 -1.38522E+04
 -9.95554E+03 -1.97053E+04  6.36551E+03 -1.85752E+04  1.61758E+04 -1.03125E+04  1.52210E+04  3.55438E+03
  6.60475E+03  1.09373E+04 -6.78748E+03  1.02453E+04 -1.29927E+04  2.65043E+03 -1.01838E+04 -7.70363E+03
 -3.91540E+01 -1.21590E+04  5.98290E+03 -9.24302E+03  7.69357E+03 -1.13427E+03  1.13936E+03  4.85465E+03
 -5.42184E+03  1.08235E+03 -3.52676E+03 -4.34938E+03  6.86328E+02 -9.95317E+03  7.59477E+03 -9.82703E+03
  1.19980E+04 -4.42163E+03  1.12756E+04  2.77470E+03  9.72138E+03  9.11558E+03  4.60998E+03  1.30246E+04
 -1.78474E+03  1.49634E+04 -9.19674E+03  9.51287E+03 -1.06930E+04  2.86258E+03 -7.90395E+03 -1.61187E+03
 -4.41718E+03 -2.99041E+03 -8.20594E+02  1.74148E+03 -1.99933E+03  1.74055E+03 -3.38861E+03  3.58228E+03
 -7.82983E+03 -6.01285E+02 -8.60184E+03 -6.99957E+03 -3.67208E+03 -1.10984E+04  3.56335E+03 -7.99201E+03
  6.77883E+03 -3.47786E+03  4.87022E+03  2.17701E+03  5.95199E+02  3.01157E+03 -3.08541E+03 -2.96962E+02
 -3.07602E+03 -4.75440E+03 -8.56183E+02 -6.94840E+03  3.72470E+03 -7.41352E+03  9.27689E+03 -3.67099E+03
  1.10672E+04  5.80090E+02  8.03072E+03  5.82879E+03  1.91243E+03  7.90917E+03 -4.92056E+03  7.63660E+03
 -6.66947E+03  2.41835E+03 -3.40897E+03 -1.02962E+03  1.26488E+03 -1.41900E+03  4.33160E+03 -7.97251E+02
  3.97658E+03  3.01620E+03  1.29200E+03  6.06663E+03 -4.08547E+03  6.14738E+03 -7.36843E+03  1.66727E+03
 -4.65341E+03 -3.22083E+03  3.92752E+02 -6.20540E+03  3.66619E+03 -3.15037E+03  3.18791E+03  9.73866E+02
  5.86041E+02  2.80445E+03 -3.90497E+03  4.30496E+03 -4.32452E+03  2.24354E+03 -3.89817E+03 -1.05870E+03
 -2.76634E+03 -5.22997E+03  1.28561E+03 -6.18028E+03  5.42135E+03 -4.27270E+03  5.90190E+03  8.01722E+02
  4.57413E+03  4.46556E+03  3.10170E+01  6.74483E+03 -4.98920E+03  3.84978E+03 -4.88302E+03 -4.12510E+02
 -5.47010E+03 -4.82652E+03 -1.11219E+03 -4.15535E+03  2.49497E+03 -4.29443E+03  2.54399E+03 -2.93859E+03
  2.53153E+03  1.52810E+02  1.22043E+02  1.20399E+03  6.92058E+02 -3.94267E+00 -2.78506E+02 -1.27055E+03
  3.41211E+03 -6.19264E+02  4.51205E+03  6.80396E+02  4.94823E+03  2.76080E+03  4.96619E+03  6.01066E+03
 -8.75844E+02  7.47516E+03 -6.98864E+03  5.48491E+03 -8.76873E+03  8.85141E+02 -6.80356E+03 -2.07358E+03
 -3.81674E+03 -5.57750E+03 -7.46998E+02 -4.59157E+03  2.02208E+03 -1.71858E+03  1.60398E+03 -1.94086E+03
  1.25590E+03 -1.43361E+03  1.89355E+03 -2.07286E+03  3.43581E+03 -1.30738E+03  3.26924E+03  4.23436E+02
  4.11393E+03  1.18542E+03  6.42452E+02  3.19623E+03 -1.17942E+03  2.07058E+03 -3.97921E+03  1.90626E+03
 -4.38493E+03 -1.10763E+03 -1.31854E+03 -2.87746E+03  7.87346E+02 -4.25288E+03  2.67336E+03 -4.53533E+03
  4.18809E+03 -2.95810E+03  5.63464E+03  4.02689E+01  4.27286E+03  3.77332E+03  8.19190E+02  4.91237E+03
 -1.60426E+03  5.05140E+03 -3.01588E+03  1.65834E+03 -1.47611E+03 -1.13953E+03 -2.84311E+02 -2.50109E+02
 -3.35857E+02  5.17565E+02 -9.79364E+02  1.56728E+03 -2.22217E+03  9.30767E+02 -3.68986E+03 -3.24417E+02
 -9.65140E+02 -3.56595E+03  1.01933E+03 -3.89204E+03  2.01651E+03 -3.81760E+03  2.55634E+03 -7.62417E+02
  3.24055E+03  1.98380E+03  1.46774E+03  2.53908E+03 -5.40084E+02  3.65219E+03 -2.27381E+03  2.05527E+03
 -3.23284E+03  6.57688E+02 -2.98825E+03 -2.28066E+03 -9.94328E+01 -2.52545E+03  1.31156E+03 -2.04287E+03
  2.27355E+03 -1.47428E+03  1.31334E+03  2.59311E+02  1.02134E+02  1.69214E+03  7.58407E+02  4.07043E+02
  1.54935E+03  5.19635E+02  1.12577E+03  1.02003E+03  1.01906E+03  2.18777E+03  1.21299E+03  1.39411E+03
 -1.49657E+03  2.41400E+03 -1.85892E+03  3.41728E+03 -2.24317E+03  1.02911E+03 -3.25862E+03  2.25350E+02
 -1.08537E+03 -2.66987E+03  4.84579E+02 -3.80982E+03  1.23514E+03 -1.70024E+03  2.15470E+03 -7.29697E+02
  1.77855E+03  1.19179E+03  1.32944E+02  2.04757E+03 -4.40516E+02  1.21955E+03 -3.51346E+02  3.20838E+02
 -1.40831E+02 -1.03279E+03  9.45473E+02 -8.66919E+02  9.32947E+02 -8.48012E+02  7.30196E+02  4.60494E+02
  6.33152E+02  5.96535E+01  7.19611E+02 -4.55794E+02 -3.87241E+02  5.77998E+02  1.50445E+03 -8.03324E+01
 -1.12534E+02 -4.83220E+02  1.42252E+03  2.14208E+02 -1.98154E+01  1.94097E+03  2.19162E+01  2.31989E+03
 -1.14002E+03  7.09805E+02 -1.63504E+03  2.81516E+02 -1.48689E+03 -7.43756E+02 -1.30550E+02 -6.17026E+02
  5.35135E+02 -7.59872E+02  7.82714E+02 -4.13468E+02  6.86659E+02  1.24431E+03 -7.35031E+02  1.02361E+03
 -1.12599E+03  6.59872E+02 -7.81040E+02 -1.00473E+03 -5.17403E+02 -1.71068E+03 -1.11786E+02 -1.02923E+03
  2.41747E+02 -1.95466E+02  5.13579E+02  2.80390E+02  1.20188E+03 -6.49667E+02  1.42967E+02  1.16315E+03
  1.20496E+02 -2.07080E+02 -5.92908E+02  1.21181E+02  5.67642E+02 -3.82551E+02  1.35348E+03 -6.91973E+02
  6.47582E+02  2.85657E+02  2.41527E+03  3.62711E+02  8.16889E+02  7.55668E+02  2.65384E+02  1.23721E+03
 -9.36308E+02 -1.44327E+02 -7.60746E+02 -1.25870E+02 -6.66641E+02 -1.24995E+03  4.99286E+02 -2.24814E+02
  1.38487E+03 -6.26165E+02  3.45223E+02  3.60537E+02 -1.78294E+02  1.03770E+03  2.70718E+02  7.99204E+02
  6.35988E+01  1.29259E+03 -5.12562E+02  2.09102E+02  2.59033E+02  2.29091E+02 -5.38884E+02  4.12308E+02
 -5.00952E+02  5.85562E+02 -1.34946E+03  3.89149E+02 -1.25178E+03  2.13625E+02 -1.54421E+03 -4.33836E+02
 -6.97246E+02 -1.77615E+03  5.17380E+02 -2.21620E+03  8.08538E+02 -2.02820E+03  2.13024E+03 -5.40895E+02
  1.81751E+03 -1.12277E+02  8.61943E+02  1.11074E+03 -6.24979E+02  1.21036E+03 -3.67281E+02  7.21609E+02
 -4.91146E+02  7.83745E+02 -3.76913E+02 -2.61203E+02 -4.87163E+02  1.56204E+02 -5.84201E+02  2.79876E+02
 -1.23454E+03  1.01116E+02 -7.86977E+02  5.62090E+01  1.90938E+02 -4.34268E+02 -3.00273E+02 -6.84167E+02
  1.03247E+03 -4.19645E+02  1.32081E+01  6.58872E+01  8.30577E+02  8.73145E+02 -6.57941E+02  8.90100E+02
 -6.36251E+02  1.76818E+03 -1.18382E+03  9.24891E+02 -1.28307E+03 -1.11028E+02 -7.63408E+02 -9.96800E+02
 -6.79336E+02 -7.03563E+02  3.04148E+02 -8.34549E+02  9.72934E+01 -3.52174E+02  2.18429E+02  2.66183E+02
  7.60691E+02  2.25773E+02  8.49913E+01  2.21186E+02 -2.27051E+02  6.85579E+01 -1.07164E+02  7.42189E+00
  2.72048E+02  1.94282E+02  1.51459E+02  4.43254E+02 -8.36012E+01  2.04782E+02  6.06154E+02  2.56042E+02
 -1.42146E+01  4.03484E+02 -3.88928E+02  1.39647E+02 -3.06484E+02 -4.03130E+02  2.38900E+02 -7.60252E+02
  4.80842E+02 -3.53113E+02  2.77383E+02  1.97796E+02  8.73879E+02 -8.45364E+02  1.92391E+02  5.31439E+02
  3.30802E+02 -6.85094E+01  8.70962E+01  3.50195E+02 -8.75900E+01  3.49495E+02 -2.78780E+02  1.12910E+02
  1.99946E+02 -8.61867E+01 -3.62998E+02  1.80930E+02 -4.76774E+02 -9.86382E+01 -3.21170E+02 -3.29374E+02
 -6.87649E+02  6.73718E+02 -1.17448E+02 -4.76763E+02  5.97006E+02 -8.72821E+02  6.99059E+02  1.21028E+02
  5.01789E+02  1.85915E+02 -5.72350E+02  7.43522E+01  1.25893E+02  2.61870E+02 -1.48429E+02  5.31683E+02
