 $NMID ID='MM_0lb_SNR800_10hz_g40_37.RAW', FMTDAT='(8E13.5)'
 TRAMP=1., VOLUME=1. $END
  3.09775E+05  6.13418E+02  3.37845E+05  2.50567E+05  8.47666E+04  3.38477E+05 -1.32477E+05  2.51408E+05
 -1.90814E+05  8.35559E+04 -1.11897E+05 -3.24273E+04  5.91789E+02 -5.03190E+04  5.42522E+04 -1.67606E+02
  3.58092E+04  5.29996E+04 -1.65756E+04  7.59209E+04 -6.07501E+04  6.39513E+04 -8.48363E+04  3.17026E+04
 -8.17362E+04 -1.15053E+04 -5.77690E+04 -5.15160E+04 -1.52032E+04 -7.02796E+04  2.76524E+04 -4.61251E+04
  4.06036E+04  3.80263E+03  1.66417E+04  4.83731E+04 -3.45327E+04  4.77386E+04 -6.74176E+04 -1.40407E+02
 -5.43098E+04 -5.74849E+04 -6.74605E+03 -7.82687E+04  3.45220E+04 -5.59994E+04  4.91887E+04 -1.76539E+04
  4.47276E+04  1.18022E+04  3.23983E+04  2.61384E+04  1.59537E+04  2.99862E+04 -5.46035E+03  2.75900E+04
 -2.23142E+04  1.18358E+04 -1.80915E+04 -5.30053E+03  6.34171E+03 -7.89704E+03  2.32124E+04  1.33266E+04
  7.15166E+03  3.63900E+04 -3.31626E+04  3.60245E+04 -6.51394E+04  2.04881E+03 -5.79626E+04 -4.41109E+04
 -1.31026E+04 -6.49002E+04  4.10550E+04 -4.64748E+04  6.02936E+04 -2.40413E+03  3.59934E+04  3.35107E+04
 -5.73569E+03  3.80076E+04 -3.08268E+04  1.74557E+04 -3.20447E+04 -3.90363E+03 -1.84504E+04 -1.16942E+04
 -9.07261E+03 -1.45528E+04 -6.49776E+02 -1.87358E+04  7.85270E+03 -2.34038E+04  1.59594E+04 -1.27554E+04
  1.08326E+04  5.70021E+03 -9.42975E+03  1.26633E+04 -2.26274E+04 -5.65605E+03 -8.79604E+03 -3.55820E+04
  2.44043E+04 -4.57538E+04  5.06986E+04 -2.05623E+04  4.72230E+04  2.00660E+04  1.68010E+04  4.58327E+04
 -1.63554E+04  3.52735E+04 -2.67423E+04  2.23103E+03 -1.11616E+04 -2.83520E+04  2.13685E+04 -3.58204E+04
  4.30379E+04 -1.02165E+04  3.81481E+04  2.45767E+04  1.99138E+04  4.91479E+04 -8.00398E+03  5.38756E+04
 -3.36527E+04  3.67033E+04 -4.52671E+04  1.02112E+04 -4.55607E+04 -1.77486E+04 -2.50321E+04 -4.02848E+04
  7.88121E+03 -4.04918E+04  3.30834E+04 -1.63391E+04  3.04657E+04  1.11143E+04  4.65681E+03  2.01046E+04
 -1.41542E+04  8.97971E+03 -1.08509E+04 -7.59854E+03  5.46588E+03 -1.13074E+04  1.80075E+04  5.46644E+03
  1.43023E+04  2.23490E+04 -6.08911E+03  2.63520E+04 -2.31774E+04  1.32965E+04 -3.03298E+04 -3.81242E+03
 -2.33686E+04 -1.83251E+04 -1.02477E+04 -2.31739E+04  4.38175E+03 -2.31739E+04  1.80603E+04 -2.11498E+04
  3.00275E+04 -1.38168E+04  3.57456E+04  4.07297E+03  2.58111E+04  2.25117E+04  4.45848E+03  3.96195E+04
 -1.89663E+04  3.24069E+04 -2.92230E+04  1.11160E+04 -2.16008E+04 -1.00173E+04 -4.45205E+03 -1.31379E+04
  1.08370E+03 -2.08415E+03 -6.38157E+03  7.78836E+03 -1.86905E+04  4.70480E+03 -1.87511E+04 -8.69415E+03
 -1.10806E+04 -2.12368E+04  5.97659E+03 -2.57139E+04  1.72725E+04 -1.87919E+04  2.08637E+04 -2.02668E+03
  1.32032E+04  1.49563E+04 -1.32556E+03  2.15792E+04 -1.52752E+04  1.25100E+04 -2.16165E+04 -4.43601E+03
 -1.61614E+04 -1.93471E+04 -2.37446E+03 -2.61105E+04  1.16216E+04 -2.18356E+04  2.17602E+04 -1.09960E+04
  2.01691E+04 -1.40130E+02  1.50270E+04  4.73653E+03  8.01488E+03  1.19776E+03  1.12152E+04 -2.01745E+03
  2.03056E+04  2.97379E+03  2.25254E+04  1.70263E+04  1.55611E+04  3.49708E+04 -2.56638E+03  4.01036E+04
 -2.30585E+04  3.32624E+04 -3.77641E+04  1.70815E+04 -3.98948E+04 -3.05474E+03 -3.32051E+04 -2.33988E+04
 -1.34570E+04 -3.34635E+04  1.18855E+04 -3.00979E+04  2.51719E+04 -1.43695E+04  2.21313E+04  7.02869E+03
  8.21772E+03  1.69892E+04 -1.05219E+04  1.44232E+04 -1.89309E+04  2.58661E+03 -1.43812E+04 -1.15981E+04
 -4.49806E+02 -1.81639E+04  9.21880E+03 -1.29819E+04  1.23440E+04 -7.49776E+02  3.01825E+03  7.95853E+03
 -7.78240E+03  3.41389E+03 -8.24963E+03 -6.55592E+03 -1.30368E+03 -1.61782E+04  1.12530E+04 -1.79756E+04
  2.07772E+04 -9.51922E+03  2.31722E+04  3.43926E+03  1.97453E+04  1.67643E+04  9.46902E+03  2.56724E+04
 -4.92823E+03  2.78865E+04 -1.78181E+04  1.72254E+04 -1.95668E+04  3.47092E+03 -1.38517E+04 -4.94864E+03
 -5.95593E+03 -6.05489E+03 -6.39974E+02  5.85634E+02 -2.79262E+03  3.51540E+03 -6.66207E+03  4.85173E+03
 -1.27062E+04 -1.03498E+03 -1.36547E+04 -1.08641E+04 -5.05171E+03 -1.72677E+04  5.69954E+03 -1.42777E+04
  1.17422E+04 -6.15185E+03  8.41358E+03  3.56962E+03 -1.34652E+02  5.61741E+03 -6.85169E+03  2.44054E+02
 -6.53624E+03 -9.14509E+03 -1.17058E+03 -1.35805E+04  8.16867E+03 -1.42995E+04  1.77644E+04 -8.18331E+03
  2.10650E+04  2.10944E+03  1.53224E+04  1.28096E+04  3.08404E+03  1.68355E+04 -8.38946E+03  1.37220E+04
 -1.11462E+04  4.18561E+03 -5.80174E+03 -3.34455E+03  2.37387E+03 -3.88225E+03  7.35542E+03 -8.16411E+02
  6.73863E+03  6.23126E+03  1.04922E+03  1.16565E+04 -8.04666E+03  1.08470E+04 -1.39036E+04  2.94541E+03
 -9.51626E+03 -7.40194E+03  4.65307E+02 -1.19536E+04  7.60493E+03 -6.00186E+03  8.12430E+03  2.55006E+03
  1.77035E+03  8.27975E+03 -6.99905E+03  9.77504E+03 -1.17218E+04  4.73385E+03 -1.16035E+04 -4.19277E+03
 -6.89082E+03 -1.33557E+04  3.01917E+03 -1.56312E+04  1.36872E+04 -9.56248E+03  1.43130E+04  2.67747E+03
  8.76364E+03  1.12977E+04 -1.25310E+03  1.37225E+04 -9.62204E+03  7.34691E+03 -1.10080E+04 -1.07032E+03
 -9.53373E+03 -9.12095E+03 -1.94207E+03 -1.04109E+04  5.66728E+03 -8.64456E+03  6.40370E+03 -3.09496E+03
  4.71952E+03  1.42145E+03 -1.23714E+03  1.57670E+03 -3.12974E+02 -2.50978E+03  2.28616E+03 -6.10531E+03
  9.70678E+03 -4.00681E+03  1.35591E+04  1.63553E+03  1.31571E+04  9.20358E+03  8.99172E+03  1.78475E+04
 -4.53890E+03  2.05324E+04 -1.70010E+04  1.54777E+04 -2.21389E+04  2.56914E+03 -1.81078E+04 -7.57806E+03
 -9.26189E+03 -1.44832E+04 -2.63767E+02 -1.25689E+04  4.76584E+03 -6.93544E+03  4.18174E+03 -4.37615E+03
  3.55064E+03 -2.67041E+03  3.11347E+03 -3.53918E+03  5.26719E+03 -3.19064E+03  7.34329E+03 -1.01783E+03
  9.24630E+03  2.09211E+03  4.76246E+03  7.93817E+03 -2.02989E+03  9.43996E+03 -9.97158E+03  7.11510E+03
 -1.27812E+04 -1.31428E+03 -7.72028E+03 -8.79120E+03 -9.45096E+02 -1.35794E+04  7.62641E+03 -1.34817E+04
  1.38598E+04 -7.57306E+03  1.63160E+04  2.00854E+03  1.16769E+04  1.16483E+04  1.81546E+03  1.51453E+04
 -6.30609E+03  1.21500E+04 -8.79858E+03  4.34564E+03 -5.96689E+03 -1.56294E+03 -2.75424E+03 -1.95830E+03
 -1.06704E+03 -4.19124E+01 -1.70427E+03  2.65692E+03 -5.30374E+03  2.13325E+03 -8.90258E+03 -8.97944E+02
 -5.69917E+03 -8.76723E+03  8.82327E+01 -1.29670E+04  7.11673E+03 -1.12533E+04  1.22555E+04 -3.85808E+03
  1.21062E+04  6.11662E+03  5.71735E+03  1.13128E+04 -2.49337E+03  1.23462E+04 -8.60736E+03  7.77568E+03
 -1.17850E+04  6.18280E+02 -8.83171E+03 -7.54494E+03 -9.55247E+02 -1.05013E+04  5.15184E+03 -7.32937E+03
  7.92573E+03 -2.60838E+03  5.35810E+03  2.16538E+03  1.85608E+03  3.46562E+03  1.17358E+03  1.81638E+03
  2.40518E+03  8.94190E+02  3.52216E+03  1.60660E+03  3.60066E+03  4.29608E+03  3.05492E+03  6.72542E+03
 -2.38407E+03  9.64667E+03 -8.44301E+03  1.00894E+04 -1.23354E+04  2.69172E+03 -1.30175E+04 -4.54499E+03
 -6.21927E+03 -1.26434E+04  2.09223E+03 -1.38693E+04  7.76987E+03 -8.78765E+03  1.04426E+04 -2.32145E+03
  7.59418E+03  4.62011E+03  1.79593E+03  7.55853E+03 -3.48219E+03  4.23243E+03 -5.17075E+03 -8.26957E+02
 -2.63643E+03 -5.37759E+03  3.18680E+03 -5.65370E+03  5.08202E+03 -2.90453E+03  5.34170E+03  1.38892E+03
  2.73877E+03  2.22650E+03  1.23762E+03  2.11606E+03 -1.01483E+03  1.49770E+03  1.44723E+03 -8.29936E+02
  2.03472E+03 -7.40586E+02  4.96372E+03  2.01807E+03  2.80341E+03  6.67252E+03 -1.11416E+03  8.59435E+03
 -5.88505E+03  5.40879E+03 -7.71466E+03  1.95738E+03 -7.11484E+03 -2.84957E+03 -2.55747E+03 -4.96649E+03
  5.32682E+02 -4.37045E+03  3.24005E+03 -2.27793E+03  2.96623E+03  2.57755E+03 -1.60670E+03  4.14507E+03
 -4.90315E+03  2.57867E+03 -5.59366E+03 -3.02320E+03 -3.63060E+03 -6.74413E+03  1.30059E+03 -7.18745E+03
  3.69924E+03 -3.78767E+03  4.53358E+03 -2.84689E+02  4.56773E+03  1.55551E+03  1.36257E+02  3.57751E+03
 -2.02787E+03  1.02510E+03 -2.96796E+03 -2.36192E+03  1.60142E+03 -4.98550E+03  5.68808E+03 -4.23498E+03
  7.77485E+03  2.18034E+02  8.08971E+03  4.78160E+03  2.37025E+03  8.30142E+03 -2.80429E+03  6.97775E+03
 -6.56928E+03  3.19404E+03 -6.83968E+03 -9.40371E+02 -3.64239E+03 -5.44389E+03  1.31684E+03 -4.74014E+03
  5.26280E+03 -2.67015E+03  4.43891E+03  1.77681E+03  1.51801E+03  4.76182E+03 -7.70518E+02  3.77378E+03
 -2.14873E+03  2.54576E+03 -1.85994E+03  6.39349E+02 -8.62735E+02  7.26357E+02 -1.30629E+03  1.89277E+03
 -2.61704E+03  2.99396E+03 -5.38107E+03  2.67557E+03 -8.07310E+03  1.58722E+02 -8.62336E+03 -5.10587E+03
 -4.81461E+03 -1.05885E+04  2.18697E+03 -1.28053E+04  7.20220E+03 -9.58338E+03  1.15052E+04 -3.91401E+03
  1.10638E+04  2.07257E+03  6.69327E+03  7.66989E+03  4.49924E+02  8.08233E+03 -2.86156E+03  6.50339E+03
 -4.74842E+03  2.07696E+03 -2.92567E+03 -8.56840E+02 -1.01113E+03 -9.51739E+02 -7.76608E+02 -3.92906E+02
 -1.30339E+03  5.32955E+02 -2.27134E+03 -3.44342E+02 -3.35978E+02 -2.04151E+03  3.51202E+02 -2.83247E+03
  3.68314E+03 -2.42678E+03  5.24600E+03 -1.38453E+02  5.69008E+03  4.58736E+03  1.17605E+03  8.16558E+03
 -4.03413E+03  9.37373E+03 -8.34890E+03  5.31283E+03 -9.80539E+03 -7.93583E+02 -7.33573E+03 -6.48689E+03
 -3.03743E+03 -8.40703E+03  2.37069E+03 -7.64768E+03  5.36718E+03 -3.87918E+03  5.28790E+03  1.31968E+02
  2.97610E+03  2.96958E+03 -3.56680E+02  2.20025E+03 -1.35991E+03  4.45556E+01 -3.89982E+01 -2.15357E+03
  2.77406E+03 -1.17257E+03  3.13973E+03  1.18195E+03  1.83774E+03  3.07747E+03  5.66177E+01  4.04133E+03
 -3.74070E+03  3.46223E+03 -5.70742E+03  2.61064E+02 -5.07908E+03 -4.15802E+03 -4.81562E+02 -6.86897E+03
  3.59264E+03 -5.49093E+03  6.14528E+03 -1.25627E+03  6.31853E+03  1.26853E+03  3.76458E+03  5.02881E+03
  5.72385E+02  5.72167E+03 -2.41596E+03  4.14079E+03 -3.47815E+03  2.32484E+03 -3.21970E+03  4.51244E+02
 -1.60632E+03 -4.56193E+02 -1.77085E+03  6.67557E+02 -2.57446E+03  7.66105E+02 -4.20863E+03 -9.12166E+02
 -3.91848E+03 -2.40434E+03 -8.75696E+02 -5.45588E+03  2.67210E+03 -5.83321E+03  4.87547E+03 -2.85165E+03
  5.17466E+03  5.63932E+02  2.46705E+03  3.87322E+03 -6.98698E+02  5.61165E+03 -4.03521E+03  3.31056E+03
