 $NMID ID='MM_0lb_SNR800_10hz_g40_49.RAW', FMTDAT='(8E13.5)'
 TRAMP=1., VOLUME=1. $END
  3.09986E+05  2.62056E+02  3.37482E+05  2.50530E+05  8.47670E+04  3.38259E+05 -1.32217E+05  2.51392E+05
 -1.90901E+05  8.38221E+04 -1.12283E+05 -3.22710E+04  8.51848E+02 -5.05961E+04  5.38570E+04 -7.71900E+02
  3.55639E+04  5.25707E+04 -1.67697E+04  7.59308E+04 -6.12345E+04  6.39557E+04 -8.48832E+04  3.23266E+04
 -8.21445E+04 -1.16695E+04 -5.81387E+04 -5.19803E+04 -1.49350E+04 -7.03671E+04  2.76601E+04 -4.61951E+04
  4.07300E+04  3.95982E+03  1.66888E+04  4.80867E+04 -3.48619E+04  4.78348E+04 -6.75053E+04  5.16354E+02
 -5.47052E+04 -5.76008E+04 -6.78888E+03 -7.80586E+04  3.45021E+04 -5.63978E+04  4.87760E+04 -1.77323E+04
  4.43672E+04  1.13626E+04  3.23279E+04  2.59643E+04  1.58237E+04  3.00599E+04 -5.38764E+03  2.77263E+04
 -2.24001E+04  1.21158E+04 -1.82737E+04 -5.54579E+03  6.31220E+03 -7.50397E+03  2.33360E+04  1.29391E+04
  7.65309E+03  3.64439E+04 -3.31872E+04  3.67149E+04 -6.49071E+04  1.88283E+03 -5.79259E+04 -4.38305E+04
 -1.25919E+04 -6.48447E+04  4.07077E+04 -4.62743E+04  5.98172E+04 -2.73345E+03  3.58413E+04  3.36250E+04
 -5.86787E+03  3.78405E+04 -3.13032E+04  1.75235E+04 -3.19773E+04 -3.38937E+03 -1.84226E+04 -1.15973E+04
 -9.03127E+03 -1.43615E+04 -3.52735E+02 -1.87799E+04  7.77941E+03 -2.35095E+04  1.57441E+04 -1.29326E+04
  1.09392E+04  5.84475E+03 -9.79421E+03  1.25450E+04 -2.22304E+04 -5.75890E+03 -8.29729E+03 -3.57730E+04
  2.44988E+04 -4.54330E+04  5.05721E+04 -2.02204E+04  4.74135E+04  1.97804E+04  1.68012E+04  4.56243E+04
 -1.62062E+04  3.47008E+04 -2.67282E+04  2.29120E+03 -1.06937E+04 -2.89315E+04  2.09865E+04 -3.57214E+04
  4.28349E+04 -1.00160E+04  3.84105E+04  2.51821E+04  2.01765E+04  4.90921E+04 -8.32322E+03  5.36575E+04
 -3.35878E+04  3.64517E+04 -4.57066E+04  1.06292E+04 -4.51285E+04 -1.77879E+04 -2.52804E+04 -4.02087E+04
  7.49475E+03 -4.00504E+04  3.32784E+04 -1.61831E+04  3.07785E+04  1.10878E+04  4.72336E+03  2.02365E+04
 -1.37306E+04  9.69773E+03 -1.09720E+04 -7.74647E+03  6.02945E+03 -1.10773E+04  1.86217E+04  5.92628E+03
  1.42881E+04  2.27547E+04 -5.73485E+03  2.63548E+04 -2.28628E+04  1.32861E+04 -3.02469E+04 -3.26914E+03
 -2.33543E+04 -1.78252E+04 -1.04110E+04 -2.31328E+04  4.14547E+03 -2.32054E+04  1.80204E+04 -2.10422E+04
  2.98250E+04 -1.35245E+04  3.56582E+04  3.87087E+03  2.59109E+04  2.23851E+04  4.26374E+03  3.94431E+04
 -1.93517E+04  3.24496E+04 -2.95971E+04  1.15160E+04 -2.18187E+04 -1.02840E+04 -5.02114E+03 -1.32927E+04
  1.24972E+03 -1.65146E+03 -6.40639E+03  7.22375E+03 -1.85367E+04  5.55597E+03 -1.88744E+04 -8.44001E+03
 -1.13232E+04 -2.17286E+04  5.59658E+03 -2.55863E+04  1.76639E+04 -1.85820E+04  2.07605E+04 -1.88506E+03
  1.32508E+04  1.52167E+04 -1.27425E+03  2.16381E+04 -1.53716E+04  1.24023E+04 -2.16101E+04 -4.79682E+03
 -1.62554E+04 -1.91226E+04 -2.10502E+03 -2.62499E+04  1.17719E+04 -2.15822E+04  2.16999E+04 -1.11408E+04
  2.02409E+04 -1.36700E+02  1.46012E+04  4.91958E+03  8.19485E+03  1.09146E+03  1.09912E+04 -1.75358E+03
  1.99661E+04  2.71590E+03  2.33164E+04  1.72131E+04  1.56824E+04  3.45893E+04 -2.65879E+03  4.03826E+04
 -2.33767E+04  3.30665E+04 -3.79964E+04  1.69063E+04 -4.02475E+04 -3.15692E+03 -3.33030E+04 -2.38065E+04
 -1.30916E+04 -3.37290E+04  1.17591E+04 -2.95083E+04  2.51554E+04 -1.42972E+04  2.21892E+04  6.61366E+03
  7.79291E+03  1.71385E+04 -1.11349E+04  1.46567E+04 -1.84929E+04  2.91189E+03 -1.42695E+04 -1.17648E+04
 -4.13681E+02 -1.78888E+04  9.51626E+03 -1.27950E+04  1.22315E+04 -1.25826E+03  2.94039E+03  7.96462E+03
 -8.27571E+03  3.36045E+03 -7.93224E+03 -6.30245E+03 -1.43886E+03 -1.65169E+04  1.09017E+04 -1.76118E+04
  2.05054E+04 -9.78694E+03  2.26893E+04  3.45516E+03  2.05559E+04  1.65355E+04  9.42357E+03  2.60494E+04
 -4.80109E+03  2.77454E+04 -1.77854E+04  1.76568E+04 -1.99284E+04  3.83325E+03 -1.36262E+04 -4.98605E+03
 -6.19630E+03 -6.42720E+03 -7.48225E+02  6.13476E+02 -2.71305E+03  3.34724E+03 -6.69038E+03  5.04016E+03
 -1.28187E+04 -1.03297E+03 -1.34142E+04 -1.08126E+04 -5.36976E+03 -1.75783E+04  5.37806E+03 -1.40790E+04
  1.13611E+04 -5.73090E+03  8.27896E+03  4.14737E+03  3.25441E+02  5.62429E+03 -6.71732E+03 -1.63789E+02
 -6.46079E+03 -8.90518E+03 -9.47335E+02 -1.36699E+04  8.02226E+03 -1.44578E+04  1.78465E+04 -7.78022E+03
  2.08512E+04  2.29340E+03  1.51970E+04  1.27599E+04  2.85266E+03  1.65470E+04 -8.66568E+03  1.37257E+04
 -1.14871E+04  4.37530E+03 -5.82673E+03 -3.69019E+03  1.99075E+03 -3.66292E+03  7.38781E+03 -1.11800E+03
  6.45622E+03  6.34325E+03  1.35171E+03  1.15773E+04 -8.00476E+03  1.08600E+04 -1.40760E+04  2.48360E+03
 -9.26434E+03 -7.25809E+03 -9.50289E+01 -1.20197E+04  7.45154E+03 -5.95057E+03  8.05130E+03  2.90131E+03
  1.81146E+03  8.69507E+03 -7.41991E+03  9.66923E+03 -1.16774E+04  4.51461E+03 -1.17025E+04 -4.05986E+03
 -6.55809E+03 -1.34275E+04  2.98719E+03 -1.54755E+04  1.32431E+04 -9.36250E+03  1.44768E+04  2.67186E+03
  8.74890E+03  1.11971E+04 -1.12362E+03  1.40371E+04 -1.00844E+04  7.63749E+03 -1.11315E+04 -9.42602E+02
 -9.99037E+03 -9.36213E+03 -1.70404E+03 -1.02900E+04  5.60712E+03 -8.50453E+03  6.94091E+03 -3.42831E+03
  4.44621E+03  1.76869E+03 -5.05391E+02  1.88705E+03 -4.35801E+02 -2.89483E+03  2.29509E+03 -5.97914E+03
  1.00646E+04 -3.78480E+03  1.40760E+04  1.02562E+03  1.34987E+04  9.26511E+03  8.58912E+03  1.77021E+04
 -4.11577E+03  2.03272E+04 -1.70908E+04  1.50739E+04 -2.25201E+04  2.79492E+03 -1.76304E+04 -7.95328E+03
 -9.09795E+03 -1.45485E+04 -6.13491E+02 -1.23056E+04  4.69947E+03 -6.70535E+03  4.05602E+03 -4.82645E+03
  2.93915E+03 -3.08016E+03  3.62726E+03 -3.65790E+03  5.58854E+03 -3.37212E+03  7.26654E+03 -1.21719E+03
  9.19923E+03  2.18335E+03  4.69396E+03  8.06649E+03 -2.01462E+03  9.53243E+03 -9.60485E+03  7.32525E+03
 -1.23792E+04 -1.20722E+03 -7.71070E+03 -8.76596E+03 -8.53057E+02 -1.32859E+04  7.13986E+03 -1.33634E+04
  1.35984E+04 -7.68124E+03  1.66972E+04  1.91519E+03  1.14562E+04  1.14859E+04  1.75341E+03  1.46894E+04
 -5.93224E+03  1.22465E+04 -9.13654E+03  4.45043E+03 -5.98059E+03 -1.56402E+03 -2.69314E+03 -1.78340E+03
 -1.23262E+03 -1.86585E+02 -1.67334E+03  2.55855E+03 -5.08867E+03  2.35012E+03 -8.77006E+03 -1.44257E+03
 -6.11147E+03 -8.71958E+03  8.53028E+01 -1.22251E+04  7.52157E+03 -1.12526E+04  1.20353E+04 -3.65203E+03
  1.17933E+04  5.78441E+03  5.63288E+03  1.10376E+04 -2.48424E+03  1.24400E+04 -8.60809E+03  7.71769E+03
 -1.13220E+04  7.44227E+02 -9.01573E+03 -7.20013E+03 -1.13431E+03 -9.92609E+03  5.23028E+03 -7.88645E+03
  7.79092E+03 -2.51597E+03  5.38174E+03  1.73987E+03  1.64861E+03  3.29449E+03  1.18346E+03  1.76870E+03
  2.67510E+03  8.57253E+02  2.83967E+03  1.63711E+03  3.64483E+03  4.71505E+03  3.14913E+03  6.43510E+03
 -2.67911E+03  9.76004E+03 -8.50833E+03  9.73754E+03 -1.23434E+04  2.74027E+03 -1.33066E+04 -4.88979E+03
 -6.05504E+03 -1.23890E+04  2.01971E+03 -1.34954E+04  7.44458E+03 -8.94967E+03  1.01348E+04 -2.04112E+03
  7.98107E+03  4.27673E+03  1.73562E+03  7.13656E+03 -3.77490E+03  4.64527E+03 -4.85917E+03 -7.91506E+02
 -2.57264E+03 -5.21117E+03  2.95030E+03 -5.38100E+03  5.31981E+03 -2.75192E+03  5.04430E+03  1.03356E+03
  2.90070E+03  2.23874E+03  1.24753E+03  1.76227E+03 -7.90567E+02  1.51731E+03  1.79595E+03 -7.22096E+02
  2.07967E+03 -7.85731E+02  5.13369E+03  2.10833E+03  2.51288E+03  6.67282E+03 -9.66784E+02  9.19846E+03
 -5.73957E+03  5.92152E+03 -7.85808E+03  1.91847E+03 -6.87992E+03 -2.92100E+03 -2.42027E+03 -4.91036E+03
  8.39199E+02 -5.00488E+03  3.03221E+03 -2.01238E+03  2.54784E+03  2.21904E+03 -1.08564E+03  3.90633E+03
 -4.89239E+03  2.39153E+03 -5.64629E+03 -3.21061E+03 -3.30870E+03 -7.12892E+03  6.55144E+02 -6.87778E+03
  3.79759E+03 -4.13040E+03  5.22290E+03 -5.43043E+02  3.97373E+03  1.69226E+03  6.23909E+02  3.68940E+03
 -2.08378E+03  9.64989E+02 -3.00968E+03 -2.18066E+03  1.21132E+03 -5.17476E+03  6.02663E+03 -4.21724E+03
  7.64466E+03  7.03792E+02  7.84947E+03  5.26109E+03  2.64164E+03  8.51222E+03 -2.95542E+03  7.79649E+03
 -6.74211E+03  3.37330E+03 -7.01964E+03 -1.20037E+03 -3.93730E+03 -5.50458E+03  1.47371E+03 -4.59875E+03
  5.20565E+03 -2.21903E+03  4.20181E+03  2.12200E+03  1.63770E+03  4.53805E+03 -4.05720E+02  3.67778E+03
 -1.95362E+03  2.34517E+03 -2.34131E+03  1.19060E+03 -5.48623E+02  1.33047E+03 -1.16841E+03  1.57463E+03
 -1.99526E+03  3.26257E+03 -5.49585E+03  2.77546E+03 -7.87692E+03  1.89225E+02 -9.18752E+03 -4.97143E+03
 -4.56564E+03 -1.07422E+04  1.99316E+03 -1.26826E+04  7.31684E+03 -9.71989E+03  1.16630E+04 -3.84812E+03
  1.08573E+04  2.43793E+03  6.65338E+03  7.02401E+03  3.12474E+02  7.98112E+03 -3.25793E+03  5.66099E+03
 -4.93814E+03  2.30227E+03 -3.03854E+03 -8.40657E+02 -1.07321E+03 -8.97379E+02 -6.22954E+02  6.23116E+01
 -1.34694E+03  4.30884E+02 -1.89846E+03 -5.31138E+02 -6.31466E+02 -1.95183E+03  1.96360E+02 -2.75906E+03
  3.32628E+03 -2.56189E+03  4.76372E+03  1.28522E+02  5.73012E+03  3.95124E+03  1.60319E+03  8.47873E+03
 -3.86677E+03  9.51950E+03 -9.04377E+03  5.78000E+03 -9.85132E+03 -1.15946E+03 -7.42683E+03 -6.01277E+03
 -2.91477E+03 -8.50769E+03  2.20916E+03 -7.55269E+03  5.29100E+03 -4.57461E+03  5.16663E+03  1.90237E+02
  2.58324E+03  2.53708E+03 -2.13777E+02  2.49962E+03 -1.59121E+03 -2.98730E+02 -1.72980E+02 -1.80126E+03
  2.72532E+03 -1.28269E+03  3.07810E+03  1.25603E+03  2.37836E+03  2.92678E+03  2.36309E+02  4.14202E+03
 -3.52694E+03  3.26319E+03 -5.64658E+03  3.12986E+02 -4.54057E+03 -3.91967E+03 -8.04707E+02 -6.60878E+03
  4.14588E+03 -5.51721E+03  6.19356E+03 -1.76760E+03  6.32820E+03  1.41083E+03  3.29043E+03  4.82842E+03
  6.18359E+02  5.46839E+03 -2.21651E+03  4.56488E+03 -3.10602E+03  2.08205E+03 -2.50035E+03  5.77043E+02
 -1.83643E+03  4.24522E+01 -1.18976E+03  7.44735E+02 -2.71672E+03  1.04637E+03 -3.80564E+03 -7.98043E+02
 -4.05041E+03 -2.92618E+03 -1.14840E+03 -5.73751E+03  2.65310E+03 -6.15425E+03  4.86399E+03 -2.58397E+03
  5.77154E+03  8.17640E+02  2.85929E+03  3.83878E+03 -4.38839E+02  5.18370E+03 -4.51005E+03  3.46055E+03
