 $NMID ID='MM_0lb_SNR800_20hz_g45_3.RAW', FMTDAT='(8E13.5)'
 TRAMP=1., VOLUME=1. $END
  3.10067E+05  4.01137E+02  3.37054E+05  2.50105E+05  8.40403E+04  3.37297E+05 -1.32195E+05  2.49778E+05
 -1.89481E+05  8.21447E+04 -1.10948E+05 -3.28529E+04  1.64245E+03 -5.02813E+04  5.42467E+04  1.69821E+02
  3.48791E+04  5.28093E+04 -1.68643E+04  7.49133E+04 -6.02857E+04  6.25730E+04 -8.26639E+04  3.13865E+04
 -7.91768E+04 -1.07515E+04 -5.56868E+04 -4.99646E+04 -1.49254E+04 -6.77125E+04  2.64623E+04 -4.45179E+04
  3.88198E+04  3.69573E+03  1.52084E+04  4.69173E+04 -3.37641E+04  4.57926E+04 -6.48905E+04 -7.11166E+02
 -5.14019E+04 -5.55706E+04 -6.30988E+03 -7.45160E+04  3.28536E+04 -5.25875E+04  4.57708E+04 -1.58949E+04
  4.11234E+04  1.09916E+04  3.02938E+04  2.42234E+04  1.58907E+04  2.75599E+04 -4.37689E+03  2.65289E+04
 -2.16883E+04  1.30681E+04 -1.91345E+04 -3.89063E+03  3.87258E+03 -7.65721E+03  2.07823E+04  1.03593E+04
  7.62180E+03  3.26895E+04 -2.99475E+04  3.33819E+04 -6.04242E+04  2.08713E+03 -5.49081E+04 -4.07206E+04
 -1.21697E+04 -5.96450E+04  3.77830E+04 -4.26807E+04  5.45660E+04 -1.78238E+03  3.13440E+04  2.98563E+04
 -6.69118E+03  3.19340E+04 -2.76519E+04  1.23271E+04 -2.67255E+04 -5.67623E+03 -1.35207E+04 -9.75820E+03
 -6.97083E+03 -1.08275E+04 -1.26110E+03 -1.61475E+04  6.37071E+03 -2.24079E+04  1.49342E+04 -1.41659E+04
  1.27142E+04  3.96496E+03 -5.59029E+03  1.32498E+04 -1.86055E+04 -1.90218E+03 -8.00785E+03 -2.89718E+04
  2.01018E+04 -3.94153E+04  4.35733E+04 -1.82865E+04  4.07583E+04  1.76634E+04  1.39678E+04  4.07165E+04
 -1.49238E+04  3.02093E+04 -2.28754E+04  7.60756E+02 -7.72627E+03 -2.59628E+04  2.02379E+04 -3.03393E+04
  3.69626E+04 -6.62384E+03  2.99449E+04  2.21230E+04  1.47780E+04  4.13376E+04 -7.78166E+03  4.35844E+04
 -2.75107E+04  2.84846E+04 -3.55826E+04  8.00679E+03 -3.68156E+04 -1.42222E+04 -2.03653E+04 -3.31839E+04
  6.80327E+03 -3.27316E+04  2.84646E+04 -1.20761E+04  2.61026E+04  1.06646E+04  2.55967E+03  1.71663E+04
 -1.29766E+04  6.91594E+03 -9.20518E+03 -7.56219E+03  6.00063E+03 -1.00165E+04  1.70902E+04  6.39575E+03
  1.17853E+04  2.16100E+04 -6.97289E+03  2.28838E+04 -2.10860E+04  8.47218E+03 -2.42178E+04 -7.05158E+03
 -1.57213E+04 -1.61585E+04 -4.67830E+03 -1.54438E+04  3.57206E+03 -1.29608E+04  1.15296E+04 -1.30228E+04
  1.97550E+04 -1.13843E+04  2.66255E+04  5.30833E+02  2.05319E+04  1.53356E+04  4.09955E+03  3.12275E+04
 -1.55282E+04  2.67584E+04 -2.51339E+04  9.01881E+03 -1.92646E+04 -1.05972E+04 -3.74142E+03 -1.41382E+04
  2.85062E+03 -4.40975E+03 -1.71546E+03  5.02591E+03 -1.19823E+04  5.60574E+03 -1.24110E+04 -4.07597E+03
 -8.06693E+03 -1.41372E+04  4.32403E+03 -1.80830E+04  1.16482E+04 -1.32414E+04  1.33346E+04 -1.30426E+03
  8.33600E+03  1.02080E+04 -8.96534E+02  1.44960E+04 -9.69644E+03  8.16610E+03 -1.43617E+04 -3.15964E+03
 -1.05803E+04 -1.31783E+04 -1.33027E+03 -1.79116E+04  7.85173E+03 -1.41071E+04  1.51333E+04 -6.56337E+03
  1.34098E+04  9.05513E+02  9.79575E+03  3.51712E+03  4.50704E+03  7.28176E+02  6.95782E+03 -1.52019E+03
  1.26352E+04  2.55213E+03  1.32285E+04  1.21132E+04  7.99470E+03  2.29897E+04 -3.21029E+03  2.44644E+04
 -1.44811E+04  1.81620E+04 -2.20380E+04  8.59117E+03 -2.23551E+04 -1.87441E+03 -1.94265E+04 -1.27109E+04
 -9.65081E+03 -1.81658E+04  5.76820E+03 -1.72941E+04  1.51105E+04 -1.01362E+04  1.44823E+04  3.25196E+03
  6.02239E+03  1.01611E+04 -6.46680E+03  9.83434E+03 -1.23266E+04  2.73789E+03 -9.52880E+03 -7.10139E+03
 -1.62222E+01 -1.12995E+04  5.72879E+03 -8.80695E+03  6.88943E+03 -1.29188E+03  1.23900E+03  4.38122E+03
 -5.06205E+03  8.85716E+02 -2.85877E+03 -4.09850E+03  1.01096E+03 -9.32079E+03  7.41765E+03 -8.86758E+03
  1.08927E+04 -3.72934E+03  1.01259E+04  2.43729E+03  8.57336E+03  8.43312E+03  4.55047E+03  1.21572E+04
 -9.79549E+02  1.41620E+04 -8.50883E+03  8.78974E+03 -9.93726E+03  3.06429E+03 -7.46688E+03 -1.59651E+03
 -4.52326E+03 -2.47929E+03 -1.02815E+03  1.65292E+03 -1.72861E+03  1.70920E+03 -3.15169E+03  3.45539E+03
 -7.15925E+03 -4.93351E+02 -8.24576E+03 -6.62862E+03 -3.30714E+03 -1.06052E+04  3.25023E+03 -7.50761E+03
  6.36006E+03 -3.54104E+03  4.70816E+03  1.74503E+03  8.58781E+02  2.56137E+03 -2.84788E+03 -5.39047E+01
 -2.62317E+03 -4.40155E+03 -7.87307E+02 -6.32492E+03  3.39005E+03 -6.97462E+03  8.76228E+03 -3.13467E+03
  1.02191E+04  6.68050E+02  7.61985E+03  5.27082E+03  1.48377E+03  7.36017E+03 -4.73233E+03  7.39192E+03
 -6.19723E+03  2.73204E+03 -3.01219E+03 -9.88304E+02  1.17221E+03 -1.48600E+03  4.31835E+03 -1.14006E+03
  3.54620E+03  3.09924E+03  1.19461E+03  5.65869E+03 -4.15516E+03  5.70420E+03 -7.03804E+03  1.85509E+03
 -4.18018E+03 -3.20982E+03  5.64137E+02 -6.16428E+03  2.83315E+03 -2.60864E+03  2.79032E+03  7.19750E+02
  4.22736E+01  2.60349E+03 -3.45085E+03  3.99627E+03 -3.87737E+03  2.03889E+03 -3.61309E+03 -6.50534E+02
 -2.43905E+03 -4.95414E+03  9.55656E+02 -5.75241E+03  4.86002E+03 -4.11483E+03  5.34351E+03  6.52668E+02
  3.90667E+03  4.35109E+03  4.42034E+02  6.45022E+03 -4.38854E+03  3.67412E+03 -4.48567E+03 -3.47088E+02
 -5.06091E+03 -4.51637E+03 -1.53251E+03 -4.41060E+03  1.96770E+03 -4.04306E+03  2.31795E+03 -2.99749E+03
  2.81914E+03  8.97755E+01  1.38894E+01  1.16515E+03  9.79873E+02  1.60478E+02 -2.08297E+02 -1.29072E+03
  3.22147E+03 -2.62222E+02  4.18241E+03  4.96676E+02  4.59180E+03  2.50076E+03  4.84870E+03  5.79899E+03
 -7.78046E+02  6.95893E+03 -6.36578E+03  5.49710E+03 -8.27294E+03  9.87914E+02 -6.49124E+03 -2.10607E+03
 -3.41036E+03 -5.33550E+03 -4.51192E+02 -4.12761E+03  1.72022E+03 -1.36187E+03  1.39155E+03 -1.90771E+03
  8.17029E+02 -1.33164E+03  2.14450E+03 -2.12627E+03  3.21411E+03 -1.10857E+03  3.27249E+03  7.79533E+02
  3.92387E+03  8.93022E+02  7.00527E+02  3.07517E+03 -1.43871E+03  2.20278E+03 -3.79476E+03  1.97680E+03
 -4.01991E+03 -8.97429E+02 -1.37272E+03 -2.56194E+03  3.22945E+02 -3.83437E+03  2.62986E+03 -4.25446E+03
  4.14631E+03 -2.72357E+03  5.53486E+03 -3.56809E+02  4.31618E+03  3.60057E+03  1.19982E+03  4.92126E+03
 -1.70874E+03  5.10514E+03 -2.55486E+03  1.63394E+03 -1.22992E+03 -1.22223E+03 -4.63122E+02 -2.85434E+02
 -3.35249E+01  4.09520E+02 -9.59703E+02  1.77133E+03 -2.39340E+03  9.19275E+02 -3.30880E+03 -2.49278E+02
 -1.10122E+03 -3.29633E+03  8.75927E+02 -3.75150E+03  2.03703E+03 -3.24154E+03  2.55038E+03 -7.44290E+02
  3.26078E+03  1.98387E+03  1.21733E+03  2.54610E+03 -5.21679E+02  3.28720E+03 -1.96102E+03  2.15994E+03
 -2.98309E+03  2.75590E+02 -2.82883E+03 -2.08641E+03  3.97442E+01 -2.40861E+03  1.26499E+03 -2.06636E+03
  2.29442E+03 -1.17254E+03  1.56912E+03  3.71129E+02  4.20994E+02  1.32660E+03  8.78989E+02  5.81580E+02
  1.56393E+03  5.38282E+02  8.18552E+02  1.01856E+03  9.74586E+02  2.09363E+03  1.16119E+03  9.60770E+02
 -1.07018E+03  2.28570E+03 -1.88869E+03  3.46748E+03 -1.94920E+03  1.10885E+03 -3.22488E+03 -8.58060E+01
 -1.00253E+03 -2.73558E+03  5.59026E+02 -3.73049E+03  1.40462E+03 -1.93263E+03  2.29541E+03 -9.23638E+02
  2.12147E+03  1.29850E+03  2.69548E+02  1.92973E+03 -6.01354E+02  1.22262E+03 -7.38980E+02  9.73816E+01
 -3.42165E+02 -1.02237E+03  1.05519E+03 -1.35386E+03  8.04101E+02 -8.60713E+02  1.07036E+03  1.48860E+02
  7.02329E+02  3.37845E+02  9.13178E+02 -2.59059E+02 -3.01227E+02  5.59559E+02  1.70120E+03 -9.81944E+00
 -2.78569E+02  9.76817E+01  1.27908E+03  2.87784E+02  5.38584E+01  2.06338E+03 -3.03700E+02  2.55726E+03
 -9.89725E+02  6.96543E+02 -1.25430E+03  2.82629E+02 -1.74700E+03 -5.47321E+02 -3.82957E+01 -8.43091E+02
  3.58445E+02 -9.51395E+02  8.90767E+02 -5.68395E+02  5.21939E+02  1.22310E+03 -5.14015E+02  9.93176E+02
 -8.69419E+02  6.57815E+02 -6.72688E+02 -1.21381E+03 -4.69170E+02 -1.59290E+03  1.33617E+01 -1.31871E+03
  3.40779E+02 -4.35794E+02  2.63561E+02  1.61224E+02  7.69090E+02 -2.62895E+02  4.99521E+02  8.87780E+02
 -1.55765E+02  1.79169E+02 -6.79737E+02  2.85548E+02  5.52833E+02 -2.52434E+02  1.52346E+03 -5.03148E+02
  6.63973E+02  1.87039E+02  2.44350E+03  1.98532E+02  9.38728E+02  1.18198E+03 -1.86617E+02  1.53213E+03
 -1.04501E+03  5.60265E+01 -9.26401E+02 -1.40169E+02 -7.65932E+02 -9.85656E+02  2.81280E+02 -5.47502E+02
  1.02330E+03 -4.98827E+02  4.74682E+02  9.27156E+02 -1.65050E+02  9.26848E+02  2.10957E+02  1.12010E+03
 -2.50465E+02  1.06266E+03 -2.73039E+01  1.68104E+01 -4.29870E+01  1.93239E+02 -6.95689E+02  5.43941E+02
 -5.54588E+02  7.03978E+02 -1.45776E+03  2.21485E+02 -1.31532E+03  8.38382E+01 -1.95005E+03 -8.22985E+02
 -7.41944E+02 -1.78690E+03  6.40787E+02 -2.15523E+03  4.79676E+02 -1.98289E+03  1.92529E+03 -1.04080E+03
  1.96889E+03 -3.78661E+02  5.77796E+02  9.84355E+02 -5.56251E+02  8.33588E+02 -5.51051E+02  9.00670E+02
 -7.84465E+02  4.84852E+02  1.58515E+02 -2.93332E+02 -1.93463E+02  4.47261E+02 -6.72977E+02 -2.36105E+01
 -9.25033E+02 -3.79292E+01 -7.54958E+02 -8.16529E+01  3.62298E+02 -7.40256E+02 -4.65589E+02 -6.48279E+02
  1.40425E+03 -2.62742E+02  2.11977E+02  2.32550E+02  8.60191E+02  7.38466E+02 -5.52555E+02  9.90676E+02
 -7.83720E+02  1.63065E+03 -1.04445E+03  1.11927E+03 -1.23294E+03  2.14863E+01 -8.24810E+02 -9.59329E+02
 -6.10483E+02 -9.54929E+02  9.94136E+01 -4.16540E+02  6.22752E+02 -2.92800E+02  2.99959E+02  6.18213E+01
  5.79970E+02  4.42732E+02  2.37157E+02  3.14841E+02 -2.01122E+02 -2.67143E+02 -2.41648E+02 -3.56014E+01
  4.69996E+02  3.11135E+02  1.94979E+02  3.67355E+02 -9.61373E+01  4.23759E+02  7.27228E+02 -1.78999E+02
 -4.94803E+02  3.33913E+02 -3.29517E+02  1.38349E+02 -7.69877E+02 -5.64179E+02  2.06073E+02 -1.01239E+03
  5.19428E+01 -2.47525E+02  4.15646E+02  2.72273E+02  5.44562E+02 -6.62539E+02  2.51848E+02  4.02083E+02
  3.93269E+02  2.23030E+02  8.69960E+01  1.75672E+02 -5.34624E+02  6.31660E+02 -1.12254E+02 -1.74412E+01
  3.04002E+01 -2.27192E+01 -3.53973E+02  1.55637E+02 -4.49052E+02  1.08741E+02 -6.25383E+02 -1.18775E+02
 -1.04628E+03  4.17562E+02 -3.32794E+02 -7.72123E+02  4.89624E+02 -1.25962E+03  5.91099E+02 -3.35471E+02
  5.64999E+02  1.86024E+02 -2.44513E+02 -4.34877E+01 -2.42510E+02  3.94251E+02 -5.22833E+01  3.68061E+02
