 $NMID ID='MM_0lb_SNR800_10hz_g55_55.RAW', FMTDAT='(8E13.5)'
 TRAMP=1., VOLUME=1. $END
  3.09754E+05  1.14097E+02  3.38059E+05  2.50892E+05  8.49497E+04  3.38405E+05 -1.33028E+05  2.51975E+05
 -1.91082E+05  8.36319E+04 -1.12685E+05 -3.25416E+04  3.21469E+02 -5.09615E+04  5.38128E+04 -6.53083E+02
  3.57965E+04  5.29148E+04 -1.63319E+04  7.62747E+04 -6.10472E+04  6.44617E+04 -8.50407E+04  3.23598E+04
 -8.20456E+04 -1.17962E+04 -5.81386E+04 -5.24408E+04 -1.49627E+04 -7.06324E+04  2.81489E+04 -4.71305E+04
  4.09106E+04  3.64352E+03  1.64082E+04  4.85482E+04 -3.46692E+04  4.81365E+04 -6.84155E+04 -2.05072E+02
 -5.46966E+04 -5.76376E+04 -7.15408E+03 -7.89583E+04  3.47664E+04 -5.70800E+04  4.96250E+04 -1.84678E+04
  4.50270E+04  1.17147E+04  3.25787E+04  2.66872E+04  1.59116E+04  3.02810E+04 -5.73731E+03  2.82268E+04
 -2.24400E+04  1.20943E+04 -1.79598E+04 -5.82718E+03  6.87329E+03 -7.40456E+03  2.34858E+04  1.39469E+04
  7.17545E+03  3.74658E+04 -3.34226E+04  3.66380E+04 -6.55701E+04  1.88936E+03 -5.87312E+04 -4.45379E+04
 -1.26225E+04 -6.56923E+04  4.14703E+04 -4.69862E+04  6.12884E+04 -2.37987E+03  3.63200E+04  3.42697E+04
 -5.87326E+03  3.88415E+04 -3.14092E+04  1.86404E+04 -3.32848E+04 -3.64710E+03 -1.93296E+04 -1.22422E+04
 -9.61489E+03 -1.48855E+04 -1.63198E+02 -1.97788E+04  8.14199E+03 -2.32650E+04  1.55179E+04 -1.24879E+04
  1.06935E+04  5.83821E+03 -1.03669E+04  1.27613E+04 -2.32402E+04 -6.38526E+03 -8.69434E+03 -3.70510E+04
  2.50283E+04 -4.72704E+04  5.14112E+04 -2.06275E+04  4.83122E+04  2.08761E+04  1.71463E+04  4.69866E+04
 -1.69027E+04  3.60114E+04 -2.75822E+04  2.37143E+03 -1.15683E+04 -2.95294E+04  2.16020E+04 -3.65321E+04
  4.44550E+04 -1.12734E+04  4.00777E+04  2.47748E+04  2.08408E+04  5.08446E+04 -8.53274E+03  5.56446E+04
 -3.50613E+04  3.79474E+04 -4.75227E+04  1.05271E+04 -4.73047E+04 -1.85540E+04 -2.62827E+04 -4.20299E+04
  7.97365E+03 -4.18683E+04  3.41279E+04 -1.67872E+04  3.19504E+04  1.11825E+04  5.08902E+03  2.02120E+04
 -1.38613E+04  9.58505E+03 -1.10908E+04 -7.67569E+03  5.64938E+03 -1.13782E+04  1.88711E+04  5.32868E+03
  1.47730E+04  2.25816E+04 -5.30385E+03  2.67168E+04 -2.34638E+04  1.40859E+04 -3.12842E+04 -3.30499E+03
 -2.48407E+04 -1.83858E+04 -1.13884E+04 -2.46003E+04  4.34255E+03 -2.54902E+04  1.90692E+04 -2.25210E+04
  3.14558E+04 -1.40845E+04  3.75005E+04  4.89015E+03  2.71704E+04  2.42891E+04  4.61747E+03  4.05976E+04
 -1.96619E+04  3.38350E+04 -3.04647E+04  1.16436E+04 -2.23305E+04 -1.01221E+04 -4.94504E+03 -1.29498E+04
  9.16743E+02 -1.27248E+03 -7.30470E+03  8.29712E+03 -2.01673E+04  5.12287E+03 -1.97543E+04 -9.50528E+03
 -1.16197E+04 -2.30242E+04  6.25080E+03 -2.78053E+04  1.84181E+04 -1.97102E+04  2.21587E+04 -1.77368E+03
  1.42601E+04  1.59499E+04 -1.27525E+03  2.23981E+04 -1.66363E+04  1.30859E+04 -2.30169E+04 -5.24338E+03
 -1.69895E+04 -2.05375E+04 -1.92760E+03 -2.77224E+04  1.23738E+04 -2.30939E+04  2.28888E+04 -1.16953E+04
  2.16928E+04 -2.37201E+02  1.58401E+04  5.41064E+03  8.70966E+03  1.53781E+03  1.15945E+04 -1.88417E+03
  2.17991E+04  3.00637E+03  2.50765E+04  1.79453E+04  1.69665E+04  3.67614E+04 -2.70063E+03  4.30208E+04
 -2.44982E+04  3.56422E+04 -4.06065E+04  1.87414E+04 -4.36681E+04 -3.30731E+03 -3.49438E+04 -2.56259E+04
 -1.39498E+04 -3.59138E+04  1.30116E+04 -3.16233E+04  2.70325E+04 -1.48172E+04  2.36020E+04  7.69419E+03
  7.82750E+03  1.80302E+04 -1.10057E+04  1.53525E+04 -1.96542E+04  2.34937E+03 -1.49348E+04 -1.25648E+04
 -4.66787E+01 -1.86543E+04  1.03476E+04 -1.36972E+04  1.31050E+04 -1.54963E+03  3.38084E+03  8.39031E+03
 -8.59994E+03  3.78571E+03 -8.87422E+03 -6.80743E+03 -1.42808E+03 -1.73493E+04  1.12320E+04 -1.93716E+04
  2.20051E+04 -1.07431E+04  2.52644E+04  3.27920E+03  2.23467E+04  1.78029E+04  1.03625E+04  2.84364E+04
 -5.29220E+03  3.01165E+04 -1.97588E+04  1.85327E+04 -2.18442E+04  3.82418E+03 -1.51758E+04 -5.76388E+03
 -6.19584E+03 -6.99868E+03 -6.36057E+02  6.31274E+02 -2.90539E+03  3.46569E+03 -7.15763E+03  5.47699E+03
 -1.42946E+04 -7.11173E+02 -1.41908E+04 -1.12562E+04 -5.74891E+03 -1.93626E+04  6.13956E+03 -1.50777E+04
  1.25264E+04 -5.85131E+03  8.94311E+03  3.73179E+03 -3.38959E+02  5.93302E+03 -7.08612E+03 -7.81183E+01
 -7.03880E+03 -9.53086E+03 -1.21807E+03 -1.50682E+04  8.48213E+03 -1.56706E+04  1.91808E+04 -8.28752E+03
  2.25991E+04  2.68386E+03  1.67656E+04  1.36916E+04  2.99410E+03  1.80106E+04 -9.00572E+03  1.51388E+04
 -1.21906E+04  4.42290E+03 -6.33538E+03 -2.80261E+03  2.40472E+03 -4.24800E+03  7.82638E+03 -8.76708E+02
  6.95694E+03  6.58507E+03  1.39928E+03  1.20774E+04 -8.43867E+03  1.16749E+04 -1.50370E+04  2.75881E+03
 -1.03720E+04 -8.27108E+03  3.89952E+02 -1.28908E+04  8.08656E+03 -6.46628E+03  8.90919E+03  2.93069E+03
  2.23322E+03  9.63299E+03 -7.68746E+03  1.08176E+04 -1.27741E+04  4.79546E+03 -1.32689E+04 -4.36214E+03
 -7.29430E+03 -1.45620E+04  3.66305E+03 -1.71531E+04  1.47380E+04 -9.91107E+03  1.61093E+04  2.73839E+03
  9.38563E+03  1.24800E+04 -1.64810E+03  1.52075E+04 -1.14782E+04  8.37962E+03 -1.18998E+04 -1.30058E+03
 -1.00489E+04 -9.96173E+03 -1.73738E+03 -1.17873E+04  6.04625E+03 -9.15278E+03  7.48941E+03 -3.37593E+03
  4.80000E+03  2.27333E+03 -1.21612E+03  2.18970E+03 -9.05294E+02 -3.00185E+03  2.59770E+03 -6.62390E+03
  1.05810E+04 -4.72094E+03  1.50522E+04  1.46535E+03  1.49123E+04  1.03304E+04  9.82227E+03  1.98316E+04
 -5.11190E+03  2.27054E+04 -1.83220E+04  1.65862E+04 -2.45530E+04  3.09599E+03 -1.94272E+04 -8.62101E+03
 -1.02173E+04 -1.65539E+04 -2.04050E+02 -1.34917E+04  4.98685E+03 -7.85407E+03  4.90653E+03 -4.72478E+03
  3.83580E+03 -2.89694E+03  3.53643E+03 -3.81354E+03  6.06422E+03 -3.04636E+03  7.44192E+03 -1.41702E+03
  1.00271E+04  2.45442E+03  5.38943E+03  8.78349E+03 -2.44060E+03  1.07156E+04 -1.09102E+04  8.44716E+03
 -1.35189E+04 -8.10701E+02 -8.76509E+03 -9.97378E+03 -1.25155E+03 -1.47958E+04  8.16347E+03 -1.47232E+04
  1.52442E+04 -8.83550E+03  1.85056E+04  2.47140E+03  1.24695E+04  1.31097E+04  2.26884E+03  1.68071E+04
 -6.87512E+03  1.35752E+04 -9.40103E+03  4.53229E+03 -6.82218E+03 -1.52410E+03 -2.60396E+03 -2.13018E+03
 -1.31101E+03 -3.35438E+02 -2.12968E+03  3.34928E+03 -5.43325E+03  2.71406E+03 -9.60138E+03 -1.13468E+03
 -6.52836E+03 -9.42737E+03 -2.10704E+02 -1.36781E+04  8.25852E+03 -1.28944E+04  1.35198E+04 -3.91772E+03
  1.36142E+04  6.61634E+03  6.27119E+03  1.23007E+04 -2.59103E+03  1.39140E+04 -9.50334E+03  8.66801E+03
 -1.28745E+04  5.85870E+02 -9.81155E+03 -8.36826E+03 -7.65140E+02 -1.13922E+04  5.71748E+03 -8.56365E+03
  8.83381E+03 -2.98293E+03  6.08179E+03  2.24359E+03  1.99568E+03  4.38479E+03  1.35931E+03  1.75791E+03
  3.00340E+03  1.30370E+03  3.33542E+03  1.79320E+03  3.96315E+03  4.67042E+03  3.33030E+03  6.66105E+03
 -2.62801E+03  1.06831E+04 -9.93166E+03  1.10366E+04 -1.38135E+04  2.77074E+03 -1.41761E+04 -5.65787E+03
 -6.99848E+03 -1.35182E+04  1.98804E+03 -1.50064E+04  8.64246E+03 -9.80636E+03  1.14587E+04 -2.19965E+03
  9.02991E+03  5.17732E+03  1.71208E+03  7.90290E+03 -4.00889E+03  5.16831E+03 -5.39321E+03 -2.95616E+02
 -2.39717E+03 -6.03151E+03  3.20846E+03 -6.13370E+03  5.66618E+03 -3.02694E+03  5.31298E+03  9.35354E+02
  2.89139E+03  2.34025E+03  9.95106E+02  1.95328E+03 -9.30917E+02  1.83512E+03  1.67995E+03 -4.82223E+02
  2.06389E+03 -8.17692E+02  5.76550E+03  2.27931E+03  2.85278E+03  7.27248E+03 -1.29938E+03  9.99798E+03
 -6.56734E+03  6.31534E+03 -8.47548E+03  1.96325E+03 -7.65248E+03 -2.86555E+03 -3.03395E+03 -5.36562E+03
  8.07172E+02 -5.55687E+03  3.94007E+03 -2.43289E+03  3.00714E+03  2.37048E+03 -1.33585E+03  4.62096E+03
 -6.03725E+03  2.92329E+03 -6.62363E+03 -3.22524E+03 -3.69985E+03 -7.47340E+03  1.24658E+03 -7.51209E+03
  4.24934E+03 -4.13730E+03  5.37038E+03 -7.56326E+02  4.36947E+03  1.96283E+03  7.44573E+02  4.19452E+03
 -2.43725E+03  1.19531E+03 -3.49558E+03 -2.47711E+03  1.17864E+03 -5.84542E+03  7.22537E+03 -4.84753E+03
  8.02364E+03  7.79494E+02  8.14005E+03  5.62587E+03  2.65826E+03  8.86427E+03 -2.98452E+03  8.72812E+03
 -7.19858E+03  3.23032E+03 -7.42884E+03 -1.05923E+03 -4.27342E+03 -5.99572E+03  1.18021E+03 -5.68483E+03
  5.46060E+03 -2.83544E+03  4.53804E+03  2.14708E+03  1.80284E+03  4.87801E+03 -9.26119E+02  4.14152E+03
 -1.73826E+03  2.89954E+03 -2.22110E+03  8.55850E+02 -1.50417E+03  1.14750E+03 -1.28200E+03  2.02156E+03
 -2.23381E+03  3.46816E+03 -6.18297E+03  3.14436E+03 -8.83360E+03  2.30817E+02 -1.01324E+04 -5.51249E+03
 -5.22222E+03 -1.17916E+04  2.20053E+03 -1.34137E+04  8.33452E+03 -1.04549E+04  1.29625E+04 -4.27279E+03
  1.19620E+04  2.44370E+03  7.29108E+03  8.35049E+03  5.74307E+02  9.05306E+03 -3.63922E+03  6.80786E+03
 -5.30102E+03  2.19996E+03 -3.25150E+03 -1.28176E+03 -1.21202E+03 -8.27176E+02 -5.52768E+02 -1.82076E+02
 -1.45111E+03  1.19338E+01 -2.08209E+03 -3.93882E+02 -5.26459E+02 -2.34304E+03 -1.08132E+01 -3.31788E+03
  4.08485E+03 -3.37177E+03  5.63541E+03  4.25555E+02  6.18230E+03  5.00906E+03  1.70609E+03  9.15977E+03
 -4.19708E+03  1.03621E+04 -9.71449E+03  5.63736E+03 -1.11519E+04 -8.15170E+02 -8.24575E+03 -7.01437E+03
 -3.78788E+03 -9.14526E+03  2.39142E+03 -8.71145E+03  5.60347E+03 -4.74835E+03  5.92373E+03  2.03473E+02
  3.33604E+03  2.94390E+03 -1.84273E+02  2.38877E+03 -1.89120E+03 -4.27076E+02  4.06501E+02 -2.19008E+03
  2.77689E+03 -9.80004E+02  3.59596E+03  6.64794E+02  2.26109E+03  3.59056E+03  7.16609E+02  4.47170E+03
 -4.42581E+03  4.07590E+03 -6.25240E+03  3.17468E+02 -5.13868E+03 -4.04561E+03 -1.20333E+03 -7.65543E+03
  4.32056E+03 -6.32776E+03  6.79341E+03 -1.81324E+03  7.12970E+03  1.77107E+03  3.94500E+03  5.23008E+03
  5.91242E+02  6.00829E+03 -2.59031E+03  5.34011E+03 -3.69460E+03  2.67394E+03 -3.24122E+03  2.96965E+02
 -1.73024E+03 -3.16651E+02 -1.80248E+03  8.92670E+02 -3.24005E+03  1.19323E+03 -4.54340E+03 -1.81252E+03
 -4.71096E+03 -2.92707E+03 -1.40505E+03 -6.08743E+03  2.56292E+03 -6.73004E+03  5.30244E+03 -2.88870E+03
  5.44107E+03  5.20015E+02  2.83181E+03  4.33269E+03 -2.60463E+02  5.77660E+03 -4.57541E+03  4.32220E+03
