 $NMID ID='MM_0lb_SNR800_10hz_g40_51.RAW', FMTDAT='(8E13.5)'
 TRAMP=1., VOLUME=1. $END
  3.09944E+05  1.51459E+02  3.38080E+05  2.50432E+05  8.49201E+04  3.38468E+05 -1.32481E+05  2.51313E+05
 -1.90358E+05  8.34608E+04 -1.12115E+05 -3.29439E+04  5.63135E+02 -5.07220E+04  5.39437E+04 -3.31893E+02
  3.54121E+04  5.25605E+04 -1.67182E+04  7.58127E+04 -6.07993E+04  6.40982E+04 -8.47196E+04  3.21637E+04
 -8.18601E+04 -1.15998E+04 -5.73993E+04 -5.19795E+04 -1.49997E+04 -7.06193E+04  2.74912E+04 -4.62918E+04
  4.06954E+04  3.45991E+03  1.62962E+04  4.82743E+04 -3.43210E+04  4.74657E+04 -6.77831E+04 -1.19498E+02
 -5.42440E+04 -5.74153E+04 -6.80535E+03 -7.80326E+04  3.42167E+04 -5.60818E+04  4.84401E+04 -1.78910E+04
  4.43752E+04  1.14332E+04  3.24521E+04  2.58805E+04  1.60239E+04  2.99548E+04 -5.92096E+03  2.71745E+04
 -2.24877E+04  1.23564E+04 -1.80812E+04 -5.18086E+03  6.46375E+03 -7.76392E+03  2.30652E+04  1.30747E+04
  7.27928E+03  3.64953E+04 -3.30745E+04  3.64774E+04 -6.46146E+04  2.10343E+03 -5.81831E+04 -4.37523E+04
 -1.26776E+04 -6.48883E+04  4.06296E+04 -4.65601E+04  6.02699E+04 -2.24559E+03  3.57032E+04  3.35475E+04
 -5.22725E+03  3.81297E+04 -3.11098E+04  1.73883E+04 -3.20480E+04 -4.04138E+03 -1.81628E+04 -1.15175E+04
 -8.91332E+03 -1.43419E+04 -5.38562E+02 -1.90762E+04  7.95773E+03 -2.35681E+04  1.57051E+04 -1.29686E+04
  1.03925E+04  5.71585E+03 -9.59107E+03  1.29112E+04 -2.24663E+04 -5.62364E+03 -8.85154E+03 -3.59838E+04
  2.40896E+04 -4.56082E+04  5.06235E+04 -1.99090E+04  4.71808E+04  2.03314E+04  1.64716E+04  4.58390E+04
 -1.66150E+04  3.49486E+04 -2.70299E+04  2.27931E+03 -1.08697E+04 -2.88816E+04  2.16434E+04 -3.57308E+04
  4.29115E+04 -1.03710E+04  3.85451E+04  2.45034E+04  2.01475E+04  4.93618E+04 -8.10449E+03  5.38183E+04
 -3.37321E+04  3.61180E+04 -4.54818E+04  1.07332E+04 -4.57146E+04 -1.77382E+04 -2.52519E+04 -4.05015E+04
  7.34754E+03 -4.05127E+04  3.28193E+04 -1.61840E+04  3.09259E+04  1.09033E+04  5.19752E+03  2.01606E+04
 -1.39442E+04  9.16504E+03 -1.08364E+04 -7.62031E+03  5.74740E+03 -1.10417E+04  1.82280E+04  5.53014E+03
  1.43879E+04  2.24565E+04 -5.29759E+03  2.60757E+04 -2.32439E+04  1.32276E+04 -3.02578E+04 -3.64639E+03
 -2.34755E+04 -1.80025E+04 -1.04412E+04 -2.31195E+04  4.24491E+03 -2.33514E+04  1.85713E+04 -2.05275E+04
  2.97900E+04 -1.38192E+04  3.58452E+04  3.87074E+03  2.56263E+04  2.29905E+04  4.45705E+03  3.92393E+04
 -1.90129E+04  3.24142E+04 -2.96487E+04  1.13481E+04 -2.17400E+04 -1.00878E+04 -4.84553E+03 -1.29659E+04
  1.27168E+03 -1.59942E+03 -6.86701E+03  7.37553E+03 -1.82996E+04  5.62587E+03 -1.84202E+04 -8.57099E+03
 -1.13035E+04 -2.17497E+04  5.61198E+03 -2.58682E+04  1.79799E+04 -1.82646E+04  2.07095E+04 -1.89999E+03
  1.32204E+04  1.49247E+04 -1.30719E+03  2.15251E+04 -1.50758E+04  1.21649E+04 -2.18687E+04 -4.59239E+03
 -1.58044E+04 -1.97377E+04 -1.79380E+03 -2.60299E+04  1.18362E+04 -2.15915E+04  2.17366E+04 -1.09074E+04
  2.04091E+04  1.52008E+01  1.47868E+04  4.81892E+03  7.93788E+03  9.98631E+02  1.13036E+04 -2.03139E+03
  2.01248E+04  2.75598E+03  2.27118E+04  1.69465E+04  1.55351E+04  3.49210E+04 -2.74474E+03  3.99995E+04
 -2.30192E+04  3.31579E+04 -3.77766E+04  1.67888E+04 -4.01322E+04 -2.66717E+03 -3.32734E+04 -2.32410E+04
 -1.33827E+04 -3.30999E+04  1.16949E+04 -2.96041E+04  2.57193E+04 -1.37834E+04  2.28221E+04  6.69879E+03
  7.84883E+03  1.66549E+04 -1.03732E+04  1.45276E+04 -1.88748E+04  2.65413E+03 -1.41497E+04 -1.18614E+04
 -1.97501E+01 -1.74602E+04  9.41272E+03 -1.26769E+04  1.19154E+04 -1.37654E+03  2.83050E+03  8.41870E+03
 -8.14835E+03  3.61461E+03 -7.79674E+03 -6.65922E+03 -1.26471E+03 -1.62345E+04  1.10234E+04 -1.71897E+04
  2.05334E+04 -9.68959E+03  2.33095E+04  3.14325E+03  2.01976E+04  1.66810E+04  8.84778E+03  2.57263E+04
 -4.63379E+03  2.76153E+04 -1.80462E+04  1.73778E+04 -1.99321E+04  3.68014E+03 -1.39709E+04 -5.10880E+03
 -6.27356E+03 -6.27801E+03 -4.83074E+02  3.24706E+02 -2.63305E+03  3.06416E+03 -6.41581E+03  5.43561E+03
 -1.27485E+04 -8.36182E+02 -1.31298E+04 -1.06925E+04 -5.58028E+03 -1.78289E+04  5.66545E+03 -1.42463E+04
  1.18965E+04 -5.99054E+03  8.84680E+03  3.87704E+03 -1.62887E+02  5.21250E+03 -7.23707E+03 -9.84502E+01
 -6.77154E+03 -9.03481E+03 -1.10345E+03 -1.36878E+04  7.76558E+03 -1.48340E+04  1.77375E+04 -7.65986E+03
  2.11440E+04  2.18511E+03  1.51738E+04  1.26213E+04  3.32212E+03  1.68937E+04 -8.67410E+03  1.39811E+04
 -1.15072E+04  3.76828E+03 -6.06517E+03 -2.97945E+03  2.13088E+03 -3.78378E+03  7.33607E+03 -8.14166E+02
  6.83798E+03  6.23794E+03  1.60724E+03  1.12243E+04 -7.76463E+03  1.05998E+04 -1.37530E+04  2.62223E+03
 -9.42051E+03 -7.13078E+03  2.28937E+02 -1.20330E+04  7.78534E+03 -5.91424E+03  8.07800E+03  2.48853E+03
  1.72814E+03  8.25858E+03 -7.32974E+03  1.01256E+04 -1.17892E+04  4.51593E+03 -1.18632E+04 -4.16062E+03
 -6.80075E+03 -1.36072E+04  3.19807E+03 -1.56594E+04  1.35581E+04 -9.49091E+03  1.43853E+04  2.59042E+03
  9.07036E+03  1.17556E+04 -1.23840E+03  1.41543E+04 -1.02240E+04  7.62379E+03 -1.09656E+04 -1.20007E+03
 -9.31570E+03 -9.34479E+03 -1.64312E+03 -1.01238E+04  5.40819E+03 -8.46000E+03  6.63716E+03 -3.61213E+03
  4.34274E+03  1.97327E+03 -6.49459E+02  1.83534E+03 -7.10127E+02 -2.90699E+03  1.80581E+03 -6.29562E+03
  9.63915E+03 -4.34970E+03  1.36522E+04  1.41752E+03  1.34990E+04  9.21138E+03  9.04557E+03  1.76319E+04
 -4.12795E+03  2.03451E+04 -1.69875E+04  1.51002E+04 -2.20110E+04  3.01868E+03 -1.74666E+04 -7.59233E+03
 -9.06678E+03 -1.45290E+04 -8.18078E+02 -1.24374E+04  4.76335E+03 -6.80682E+03  4.70120E+03 -4.76859E+03
  3.45613E+03 -2.78366E+03  3.78106E+03 -3.33622E+03  5.23175E+03 -3.01326E+03  7.16106E+03 -9.06087E+02
  9.43080E+03  2.51158E+03  4.54018E+03  8.16103E+03 -2.20743E+03  9.21379E+03 -1.01690E+04  7.33047E+03
 -1.23697E+04 -1.69489E+03 -7.97716E+03 -8.49666E+03 -6.01937E+02 -1.32468E+04  7.23453E+03 -1.34533E+04
  1.38242E+04 -7.26878E+03  1.66900E+04  2.21697E+03  1.14098E+04  1.15364E+04  2.02260E+03  1.54073E+04
 -5.83958E+03  1.24548E+04 -8.76411E+03  4.29324E+03 -6.15780E+03 -1.39563E+03 -2.19132E+03 -1.86020E+03
 -1.09726E+03  1.02918E+02 -1.73531E+03  2.82503E+03 -5.28632E+03  1.92335E+03 -9.26899E+03 -1.18875E+03
 -5.76820E+03 -8.76443E+03 -9.34921E+01 -1.23328E+04  7.62400E+03 -1.14945E+04  1.18884E+04 -3.62030E+03
  1.20371E+04  5.77820E+03  5.36002E+03  1.08928E+04 -2.36848E+03  1.25930E+04 -8.65851E+03  7.73333E+03
 -1.19080E+04  7.29707E+02 -8.94798E+03 -7.39421E+03 -1.05913E+03 -9.99749E+03  5.19659E+03 -7.59604E+03
  7.59828E+03 -2.57000E+03  5.22237E+03  2.00347E+03  2.09356E+03  3.71198E+03  1.20912E+03  1.61813E+03
  2.45189E+03  1.35409E+03  2.74295E+03  1.73114E+03  3.45849E+03  4.36468E+03  3.20156E+03  6.01189E+03
 -2.47769E+03  9.80141E+03 -8.61472E+03  9.96751E+03 -1.26676E+04  2.61823E+03 -1.30992E+04 -5.13896E+03
 -5.95568E+03 -1.22114E+04  1.74961E+03 -1.38324E+04  7.43373E+03 -8.45117E+03  1.00824E+04 -2.43118E+03
  7.69471E+03  4.56217E+03  2.21582E+03  7.24716E+03 -3.24721E+03  4.24230E+03 -4.94032E+03 -1.27149E+03
 -2.38230E+03 -5.12545E+03  2.77418E+03 -5.17703E+03  5.17877E+03 -2.59751E+03  5.02486E+03  1.06974E+03
  3.37444E+03  2.43977E+03  1.29075E+03  1.80900E+03 -7.70172E+02  1.71224E+03  1.24954E+03 -4.26457E+02
  1.91082E+03 -9.11694E+02  5.00626E+03  2.10289E+03  3.07564E+03  6.66958E+03 -9.27819E+02  9.03103E+03
 -5.42990E+03  5.71902E+03 -7.65078E+03  1.31579E+03 -7.69720E+03 -2.66032E+03 -2.43200E+03 -4.59636E+03
  5.74203E+02 -4.91043E+03  3.29315E+03 -2.70328E+03  2.99516E+03  2.58972E+03 -1.11219E+03  4.10589E+03
 -4.97140E+03  1.97480E+03 -5.97540E+03 -3.14899E+03 -3.31127E+03 -6.44476E+03  1.12264E+03 -6.63625E+03
  3.99013E+03 -4.35953E+03  4.86172E+03 -6.53429E+01  4.18330E+03  1.49146E+03  5.36502E+02  3.43111E+03
 -2.11674E+03  7.19831E+02 -3.13701E+03 -2.22440E+03  1.15659E+03 -5.11135E+03  6.28137E+03 -4.15766E+03
  7.67007E+03  5.95775E+02  8.24698E+03  5.10953E+03  2.64286E+03  8.07148E+03 -3.09088E+03  7.79384E+03
 -6.49805E+03  3.25546E+03 -6.64655E+03 -9.11740E+02 -3.70473E+03 -5.15198E+03  1.19834E+03 -4.54563E+03
  5.16128E+03 -2.49136E+03  4.45390E+03  2.28016E+03  1.08161E+03  4.64076E+03 -3.83760E+02  4.02474E+03
 -2.14668E+03  2.69981E+03 -1.74465E+03  6.24369E+02 -8.63326E+02  1.08543E+03 -1.35665E+03  1.67591E+03
 -2.05712E+03  3.03205E+03 -5.39264E+03  2.95882E+03 -8.03066E+03  2.81265E+02 -9.15275E+03 -5.06580E+03
 -4.47750E+03 -1.06220E+04  2.12279E+03 -1.23012E+04  7.22309E+03 -9.72405E+03  1.15479E+04 -4.11565E+03
  1.06417E+04  1.61966E+03  6.61837E+03  7.51232E+03  2.86023E+02  8.63108E+03 -3.36110E+03  6.15764E+03
 -4.17935E+03  2.23825E+03 -3.06434E+03 -8.97385E+02 -9.38573E+02 -8.80674E+02 -8.11483E+02 -2.94736E+02
 -1.88011E+03  3.95455E+02 -1.75772E+03 -5.33340E+02 -1.95658E+02 -1.84905E+03  2.59750E+02 -3.21633E+03
  3.85211E+03 -2.25563E+03  4.91120E+03  8.88836E+01  5.52108E+03  4.38802E+03  1.56483E+03  8.22735E+03
 -3.63197E+03  9.19412E+03 -8.45721E+03  5.38385E+03 -1.00708E+04 -6.49051E+02 -7.51863E+03 -6.36217E+03
 -3.31213E+03 -8.56788E+03  2.50049E+03 -7.72727E+03  5.42380E+03 -4.26606E+03  5.40372E+03  4.04600E+02
  2.97891E+03  2.82893E+03 -2.89854E+02  2.38313E+03 -1.62661E+03 -3.37611E+02  4.76106E+01 -1.45106E+03
  2.48037E+03 -1.17056E+03  3.17661E+03  1.07543E+03  1.93678E+03  3.61836E+03  4.23566E+02  4.18918E+03
 -3.59639E+03  3.71429E+03 -5.55508E+03  5.87718E+02 -4.98602E+03 -3.85808E+03 -5.94019E+02 -6.74999E+03
  4.06012E+03 -5.51447E+03  6.24337E+03 -1.86548E+03  6.22216E+03  1.35859E+03  3.69572E+03  4.94605E+03
  1.26543E+03  5.22172E+03 -2.01128E+03  3.97551E+03 -3.80286E+03  2.93753E+03 -3.07105E+03  4.59239E+02
 -1.52305E+03 -4.35067E+02 -1.95998E+03  4.29392E+02 -2.79468E+03  9.22795E+02 -4.56512E+03 -1.01756E+03
 -4.34341E+03 -2.73655E+03 -1.22819E+03 -5.50842E+03  2.41978E+03 -5.91269E+03  4.74864E+03 -2.53557E+03
  5.39257E+03  7.25899E+02  2.72910E+03  3.84753E+03 -3.87626E+02  5.39943E+03 -4.04857E+03  3.33891E+03
