 $NMID ID='MM_0lb_SNR800_8hz_g45_21.RAW', FMTDAT='(8E13.5)'
 TRAMP=1., VOLUME=1. $END
  3.09869E+05  3.34652E+02  3.37933E+05  2.50381E+05  8.47887E+04  3.38531E+05 -1.32506E+05  2.52210E+05
 -1.91136E+05  8.35079E+04 -1.12548E+05 -3.24299E+04  2.73935E+02 -5.05382E+04  5.36532E+04 -2.11161E+02
  3.55141E+04  5.25845E+04 -1.65130E+04  7.60750E+04 -6.18256E+04  6.46009E+04 -8.56259E+04  3.29996E+04
 -8.23111E+04 -1.22481E+04 -5.81494E+04 -5.26499E+04 -1.46989E+04 -7.14624E+04  2.83933E+04 -4.67303E+04
  4.10840E+04  3.89275E+03  1.63274E+04  4.85275E+04 -3.49787E+04  4.82823E+04 -6.77313E+04  2.89164E+02
 -5.53109E+04 -5.76547E+04 -7.22612E+03 -7.89429E+04  3.46753E+04 -5.73167E+04  4.99600E+04 -1.83409E+04
  4.56978E+04  1.13817E+04  3.29979E+04  2.67823E+04  1.60799E+04  3.05491E+04 -6.12059E+03  2.76586E+04
 -2.23181E+04  1.20118E+04 -1.80267E+04 -5.69056E+03  7.38608E+03 -7.66567E+03  2.34484E+04  1.39133E+04
  6.68864E+03  3.76973E+04 -3.36797E+04  3.71777E+04 -6.57730E+04  2.39690E+03 -5.86069E+04 -4.45300E+04
 -1.26822E+04 -6.62109E+04  4.18194E+04 -4.75739E+04  6.14562E+04 -2.58195E+03  3.70680E+04  3.45815E+04
 -5.21006E+03  3.94034E+04 -3.19778E+04  1.91918E+04 -3.31790E+04 -3.47412E+03 -1.93946E+04 -1.21213E+04
 -9.39339E+03 -1.52943E+04 -8.43625E+02 -2.00638E+04  8.72628E+03 -2.32818E+04  1.63706E+04 -1.27784E+04
  1.02296E+04  5.86335E+03 -1.03822E+04  1.25051E+04 -2.35630E+04 -6.80229E+03 -9.17947E+03 -3.78908E+04
  2.54781E+04 -4.73962E+04  5.29677E+04 -2.13416E+04  4.87501E+04  2.06892E+04  1.76335E+04  4.72587E+04
 -1.66438E+04  3.65827E+04 -2.81035E+04  2.47254E+03 -1.19719E+04 -2.99705E+04  2.14522E+04 -3.73334E+04
  4.48421E+04 -1.13079E+04  4.05824E+04  2.51580E+04  2.18964E+04  5.16960E+04 -8.60444E+03  5.68221E+04
 -3.58973E+04  3.92102E+04 -4.82002E+04  1.11445E+04 -4.80818E+04 -1.84170E+04 -2.65453E+04 -4.22176E+04
  8.04298E+03 -4.28516E+04  3.45224E+04 -1.76754E+04  3.26483E+04  1.12452E+04  5.28050E+03  2.07949E+04
 -1.38390E+04  9.76815E+03 -1.12372E+04 -7.77832E+03  5.89932E+03 -1.11754E+04  1.90518E+04  5.61863E+03
  1.47886E+04  2.27799E+04 -5.01249E+03  2.74730E+04 -2.33119E+04  1.45097E+04 -3.20507E+04 -2.61506E+03
 -2.59448E+04 -1.86344E+04 -1.20186E+04 -2.53824E+04  4.21870E+03 -2.68288E+04  2.01910E+04 -2.35292E+04
  3.26849E+04 -1.40043E+04  3.87965E+04  4.99124E+03  2.73140E+04  2.50451E+04  4.39089E+03  4.22561E+04
 -1.98991E+04  3.43051E+04 -3.07117E+04  1.24603E+04 -2.20254E+04 -1.02714E+04 -4.77537E+03 -1.26857E+04
  6.47077E+02 -9.08053E+02 -7.99250E+03  8.68884E+03 -2.06762E+04  5.06736E+03 -2.03348E+04 -9.09408E+03
 -1.20761E+04 -2.37775E+04  6.37585E+03 -2.82721E+04  1.94993E+04 -2.02270E+04  2.29248E+04 -1.69414E+03
  1.49872E+04  1.61536E+04 -1.39788E+03  2.32575E+04 -1.65187E+04  1.34688E+04 -2.38976E+04 -4.84943E+03
 -1.77954E+04 -2.14842E+04 -2.33912E+03 -2.80913E+04  1.27745E+04 -2.39134E+04  2.37086E+04 -1.23890E+04
  2.23831E+04 -1.05383E+02  1.67890E+04  5.61297E+03  9.39805E+03  1.46559E+03  1.29024E+04 -2.07876E+03
  2.25473E+04  2.87174E+03  2.62152E+04  1.88803E+04  1.76491E+04  3.83462E+04 -2.55521E+03  4.54994E+04
 -2.57182E+04  3.80628E+04 -4.30770E+04  1.97717E+04 -4.63473E+04 -3.04010E+03 -3.72407E+04 -2.71334E+04
 -1.44956E+04 -3.85563E+04  1.35325E+04 -3.38024E+04  2.90903E+04 -1.57674E+04  2.46529E+04  8.52984E+03
  8.45077E+03  1.95161E+04 -1.23286E+04  1.58124E+04 -2.09091E+04  2.44708E+03 -1.54035E+04 -1.32915E+04
 -2.88643E+02 -1.98453E+04  1.04859E+04 -1.45663E+04  1.38431E+04 -1.38221E+03  3.45242E+03  8.89278E+03
 -9.04966E+03  4.15475E+03 -9.86579E+03 -7.03715E+03 -2.28584E+03 -1.89843E+04  1.18982E+04 -2.06921E+04
  2.33004E+04 -1.22074E+04  2.72991E+04  3.31111E+03  2.38275E+04  1.92195E+04  1.08834E+04  3.01693E+04
 -6.07361E+03  3.24197E+04 -2.12422E+04  1.99997E+04 -2.34934E+04  3.39264E+03 -1.58305E+04 -6.67029E+03
 -6.84194E+03 -8.10418E+03 -5.81061E+02 -3.82877E+01 -2.69269E+03  3.39993E+03 -7.48792E+03  5.47616E+03
 -1.44016E+04 -1.24115E+03 -1.55120E+04 -1.21559E+04 -6.38492E+03 -2.01743E+04  6.56624E+03 -1.64818E+04
  1.34577E+04 -6.38026E+03  9.45050E+03  4.12121E+03 -2.05293E+02  6.26157E+03 -8.28955E+03 -3.08162E+02
 -8.04670E+03 -1.01547E+04 -8.34040E+02 -1.63617E+04  9.80917E+03 -1.72663E+04  2.06578E+04 -9.15692E+03
  2.41619E+04  2.58525E+03  1.80540E+04  1.54192E+04  3.33894E+03  1.93904E+04 -1.03690E+04  1.56114E+04
 -1.29766E+04  4.91045E+03 -6.79940E+03 -3.61486E+03  2.52771E+03 -4.04927E+03  8.65118E+03 -1.41298E+03
  7.51105E+03  7.14323E+03  1.14006E+03  1.34859E+04 -9.32960E+03  1.27897E+04 -1.62261E+04  3.11264E+03
 -1.12881E+04 -8.79793E+03  5.42142E+02 -1.36337E+04  9.48125E+03 -7.22079E+03  9.86665E+03  4.13539E+03
  2.32674E+03  1.09131E+04 -8.78340E+03  1.21829E+04 -1.43652E+04  5.36622E+03 -1.48276E+04 -5.16151E+03
 -8.34717E+03 -1.64964E+04  4.78897E+03 -1.96284E+04  1.60038E+04 -1.14501E+04  1.78243E+04  3.10455E+03
  1.09680E+04  1.40831E+04 -1.61534E+03  1.66140E+04 -1.19923E+04  9.39642E+03 -1.39968E+04 -1.23535E+03
 -1.14925E+04 -1.12446E+04 -2.08414E+03 -1.26693E+04  7.19969E+03 -1.00525E+04  8.46158E+03 -3.49538E+03
  5.65544E+03  1.86818E+03 -1.61341E+03  2.14621E+03 -1.02706E+03 -3.40455E+03  3.28575E+03 -8.14313E+03
  1.24958E+04 -5.29341E+03  1.74072E+04  1.99043E+03  1.65522E+04  1.21494E+04  1.06603E+04  2.26302E+04
 -5.61162E+03  2.50582E+04 -2.09204E+04  1.89559E+04 -2.75740E+04  3.24999E+03 -2.19764E+04 -9.63742E+03
 -1.13463E+04 -1.77447E+04 -3.80405E+02 -1.56108E+04  5.66132E+03 -8.65071E+03  5.63722E+03 -5.48938E+03
  4.31612E+03 -3.02852E+03  4.10082E+03 -4.00537E+03  5.62975E+03 -4.25320E+03  8.59661E+03 -1.81664E+03
  1.17983E+04  2.68549E+03  6.49335E+03  1.00493E+04 -2.81872E+03  1.22090E+04 -1.19674E+04  8.92918E+03
 -1.61476E+04 -1.63773E+03 -1.02534E+04 -1.11357E+04 -1.94343E+03 -1.70774E+04  9.34806E+03 -1.72195E+04
  1.78934E+04 -9.38760E+03  2.06575E+04  3.54941E+03  1.40652E+04  1.48441E+04  2.37140E+03  1.87915E+04
 -8.35416E+03  1.54848E+04 -1.11308E+04  5.50292E+03 -7.69911E+03 -1.95742E+03 -2.94485E+03 -2.46934E+03
 -1.50239E+03  8.65672E+01 -2.33442E+03  3.14542E+03 -6.73966E+03  2.29164E+03 -1.08174E+04 -1.97127E+03
 -7.56800E+03 -1.11521E+04  7.83101E+01 -1.58972E+04  9.66577E+03 -1.51401E+04  1.59230E+04 -4.97516E+03
  1.59384E+04  7.63784E+03  7.57565E+03  1.43828E+04 -3.61755E+03  1.60923E+04 -1.17218E+04  9.82700E+03
 -1.55233E+04  3.08148E+02 -1.17285E+04 -9.88690E+03 -1.48647E+03 -1.31236E+04  7.37975E+03 -9.92151E+03
  1.00133E+04 -3.30566E+03  7.36963E+03  2.83899E+03  2.75999E+03  4.60612E+03  1.90024E+03  2.34100E+03
  2.78724E+03  1.45657E+03  3.73799E+03  2.09227E+03  5.26254E+03  5.51498E+03  4.51259E+03  8.51374E+03
 -3.45738E+03  1.30424E+04 -1.16630E+04  1.29201E+04 -1.72616E+04  3.07513E+03 -1.73257E+04 -7.01571E+03
 -8.87423E+03 -1.66297E+04  2.64528E+03 -1.87926E+04  9.98334E+03 -1.14480E+04  1.36319E+04 -2.83251E+03
  1.09026E+04  5.90680E+03  2.30420E+03  9.48219E+03 -4.57686E+03  6.11177E+03 -6.93516E+03 -7.84396E+02
 -3.26244E+03 -7.33717E+03  4.07913E+03 -7.50062E+03  7.43618E+03 -3.65192E+03  7.11583E+03  1.31309E+03
  4.07925E+03  3.47569E+03  1.42162E+03  2.98805E+03 -9.25864E+02  2.29451E+03  1.63439E+03 -6.78395E+02
  2.86220E+03 -1.15832E+03  6.72899E+03  2.61896E+03  3.66773E+03  9.12271E+03 -1.62887E+03  1.18979E+04
 -7.81989E+03  7.99643E+03 -1.11140E+04  2.42545E+03 -9.44722E+03 -4.07933E+03 -3.63091E+03 -7.10050E+03
  8.52863E+02 -7.07554E+03  4.23750E+03 -2.98870E+03  4.23195E+03  3.27570E+03 -1.42128E+03  5.66144E+03
 -6.74838E+03  3.18436E+03 -8.15313E+03 -4.11821E+03 -4.55438E+03 -9.67706E+03  1.40138E+03 -9.93839E+03
  5.75754E+03 -5.94563E+03  7.24777E+03 -7.88206E+02  5.95370E+03  2.62933E+03  9.81263E+02  4.98835E+03
 -3.15471E+03  1.69862E+03 -3.83858E+03 -3.35471E+03  1.62528E+03 -7.74329E+03  8.63411E+03 -6.15431E+03
  1.07333E+04  1.14850E+03  1.02361E+04  7.69562E+03  3.44997E+03  1.13428E+04 -3.88109E+03  1.09724E+04
 -9.46338E+03  4.95867E+03 -9.41050E+03 -1.49251E+03 -5.50597E+03 -7.32658E+03  1.54051E+03 -7.09677E+03
  6.96387E+03 -3.46686E+03  5.81959E+03  2.92366E+03  1.97348E+03  6.18094E+03 -9.27522E+02  5.30339E+03
 -2.88306E+03  3.91268E+03 -2.99260E+03  1.32358E+03 -1.37976E+03  9.51011E+02 -1.63994E+03  2.10017E+03
 -3.28281E+03  4.45484E+03 -7.28248E+03  3.95702E+03 -1.16117E+04  3.81138E+02 -1.28978E+04 -7.14734E+03
 -6.82407E+03 -1.55649E+04  3.02965E+03 -1.74880E+04  1.12167E+04 -1.36352E+04  1.65930E+04 -5.33821E+03
  1.54269E+04  3.13806E+03  9.66520E+03  1.07912E+04  9.85573E+02  1.17755E+04 -4.66655E+03  8.92445E+03
 -6.60083E+03  3.03522E+03 -4.09850E+03 -1.40189E+03 -1.70037E+03 -4.60286E+02 -6.62106E+02 -4.82261E+02
 -1.82598E+03 -1.25012E+02 -2.55151E+03 -5.97111E+02 -4.62535E+02 -3.16377E+03  1.15767E+02 -3.84927E+03
  5.03940E+03 -3.87316E+03  7.84935E+03 -2.18076E+01  8.42994E+03  6.44481E+03  2.09631E+03  1.21844E+04
 -6.02376E+03  1.36135E+04 -1.28047E+04  8.22687E+03 -1.50007E+04 -9.90167E+02 -1.13996E+04 -9.04737E+03
 -4.26179E+03 -1.27583E+04  3.18397E+03 -1.15177E+04  7.71674E+03 -6.45472E+03  8.09571E+03  1.15283E+01
  4.36364E+03  4.12983E+03 -3.25474E+02  3.16129E+03 -2.17513E+03 -5.56342E-01  4.23032E+01 -2.41518E+03
  3.92297E+03 -1.95743E+03  5.14888E+03  1.61404E+03  3.67805E+03  4.73348E+03 -1.53325E-01  6.88002E+03
 -5.05550E+03  5.79037E+03 -7.96742E+03  6.11138E+02 -7.42992E+03 -6.35659E+03 -1.27473E+03 -1.04839E+04
  5.77327E+03 -8.80478E+03  9.50031E+03 -2.69100E+03  9.44520E+03  2.25737E+03  5.64921E+03  7.41527E+03
  1.32286E+03  8.17208E+03 -3.20050E+03  6.68862E+03 -5.18349E+03  3.95421E+03 -4.13368E+03  2.96302E+02
 -2.55273E+03 -3.35319E+02 -2.21630E+03  1.08273E+03 -4.32572E+03  1.43788E+03 -6.83267E+03 -1.30245E+03
 -6.14876E+03 -4.20896E+03 -1.57321E+03 -8.15225E+03  4.70346E+03 -8.71053E+03  7.33602E+03 -3.99679E+03
  8.22051E+03  8.43519E+02  4.57335E+03  6.35941E+03 -6.35425E+02  8.08396E+03 -6.52313E+03  5.20216E+03
