 $NMID ID='MM_0lb_SNR800_9hz_g60_62.RAW', FMTDAT='(8E13.5)'
 TRAMP=1., VOLUME=1. $END
  3.09537E+05  2.80368E+02  3.37905E+05  2.50730E+05  8.50084E+04  3.38402E+05 -1.32394E+05  2.52248E+05
 -1.91119E+05  8.39433E+04 -1.12669E+05 -3.23567E+04 -4.01772E+02 -5.03323E+04  5.33337E+04 -7.32511E+02
  3.55048E+04  5.28172E+04 -1.67921E+04  7.59307E+04 -6.14203E+04  6.46225E+04 -8.54881E+04  3.28238E+04
 -8.28159E+04 -1.20339E+04 -5.81994E+04 -5.27212E+04 -1.47933E+04 -7.12657E+04  2.82352E+04 -4.69466E+04
  4.15415E+04  3.85820E+03  1.62967E+04  4.87902E+04 -3.52760E+04  4.83003E+04 -6.86951E+04  1.65190E+02
 -5.53301E+04 -5.78232E+04 -7.68456E+03 -8.00822E+04  3.51042E+04 -5.76770E+04  5.03818E+04 -1.87004E+04
  4.57486E+04  1.18096E+04  3.33572E+04  2.66717E+04  1.61161E+04  3.11711E+04 -5.80735E+03  2.77751E+04
 -2.27050E+04  1.17500E+04 -1.77173E+04 -5.32906E+03  7.08604E+03 -7.28380E+03  2.34688E+04  1.42863E+04
  6.87892E+03  3.81200E+04 -3.42668E+04  3.79008E+04 -6.64287E+04  2.13519E+03 -5.96419E+04 -4.50557E+04
 -1.24062E+04 -6.61369E+04  4.27784E+04 -4.79582E+04  6.19492E+04 -2.28746E+03  3.70167E+04  3.49881E+04
 -5.31441E+03  4.02555E+04 -3.24034E+04  1.92642E+04 -3.37813E+04 -3.10917E+03 -1.96044E+04 -1.22729E+04
 -9.81745E+03 -1.52160E+04 -2.07828E+02 -2.00797E+04  8.31820E+03 -2.38011E+04  1.60796E+04 -1.23488E+04
  1.03187E+04  6.83870E+03 -1.10746E+04  1.29193E+04 -2.40849E+04 -7.01361E+03 -8.80285E+03 -3.78472E+04
  2.55482E+04 -4.77440E+04  5.28089E+04 -2.14228E+04  4.94094E+04  2.17157E+04  1.79122E+04  4.73879E+04
 -1.71148E+04  3.67343E+04 -2.80208E+04  2.67692E+03 -1.22775E+04 -3.00595E+04  2.17531E+04 -3.81688E+04
  4.55479E+04 -1.14676E+04  4.14419E+04  2.53262E+04  2.21885E+04  5.19813E+04 -8.14448E+03  5.74573E+04
 -3.60516E+04  3.97404E+04 -4.87165E+04  1.13942E+04 -4.87331E+04 -1.89032E+04 -2.67570E+04 -4.27016E+04
  8.15113E+03 -4.32997E+04  3.48750E+04 -1.77485E+04  3.24018E+04  1.12676E+04  5.77427E+03  2.12311E+04
 -1.39424E+04  1.05457E+04 -1.17303E+04 -7.88030E+03  5.64238E+03 -1.13745E+04  1.94232E+04  5.11431E+03
  1.52454E+04  2.25800E+04 -5.12697E+03  2.72756E+04 -2.37915E+04  1.52571E+04 -3.23253E+04 -2.50570E+03
 -2.61337E+04 -1.85379E+04 -1.22345E+04 -2.58397E+04  4.65949E+03 -2.71988E+04  2.10172E+04 -2.39198E+04
  3.32094E+04 -1.43826E+04  3.93304E+04  5.36427E+03  2.79685E+04  2.56623E+04  4.34224E+03  4.27398E+04
 -2.00012E+04  3.49508E+04 -3.10569E+04  1.20913E+04 -2.28011E+04 -1.01433E+04 -5.16365E+03 -1.23223E+04
  2.82122E+02 -8.91945E+02 -8.22852E+03  8.66662E+03 -2.13729E+04  4.98289E+03 -2.09447E+04 -1.02761E+04
 -1.24845E+04 -2.42354E+04  6.65241E+03 -2.86963E+04  1.96013E+04 -2.04429E+04  2.42124E+04 -1.72555E+03
  1.49648E+04  1.64641E+04 -1.29261E+03  2.42590E+04 -1.78148E+04  1.40526E+04 -2.42143E+04 -4.81244E+03
 -1.78522E+04 -2.16739E+04 -2.66004E+03 -2.90955E+04  1.33267E+04 -2.38826E+04  2.41735E+04 -1.26218E+04
  2.26102E+04 -1.99272E+02  1.61172E+04  5.40260E+03  9.40859E+03  1.50990E+03  1.29566E+04 -2.08572E+03
  2.30509E+04  2.47260E+03  2.68462E+04  1.87980E+04  1.83791E+04  3.90637E+04 -2.65692E+03  4.61108E+04
 -2.67681E+04  3.92717E+04 -4.36942E+04  2.00591E+04 -4.67139E+04 -3.21531E+03 -3.77009E+04 -2.78196E+04
 -1.50652E+04 -3.90132E+04  1.40120E+04 -3.41186E+04  2.96229E+04 -1.61158E+04  2.52453E+04  8.15067E+03
  8.06643E+03  1.93790E+04 -1.21040E+04  1.65539E+04 -2.08122E+04  2.47335E+03 -1.58406E+04 -1.34714E+04
 -1.18178E+02 -2.00412E+04  1.13281E+04 -1.49260E+04  1.41782E+04 -1.13183E+03  3.90391E+03  9.09191E+03
 -9.08677E+03  4.55265E+03 -9.88516E+03 -7.19046E+03 -2.41427E+03 -1.91408E+04  1.24738E+04 -2.07694E+04
  2.38186E+04 -1.22440E+04  2.77106E+04  3.34876E+03  2.47521E+04  1.96780E+04  1.11895E+04  3.08279E+04
 -6.43299E+03  3.29235E+04 -2.17954E+04  2.02478E+04 -2.38260E+04  4.08135E+03 -1.61120E+04 -6.53571E+03
 -7.39002E+03 -7.13592E+03 -5.31546E+02  4.24334E+02 -3.17504E+03  4.37719E+03 -7.83702E+03  5.89649E+03
 -1.51592E+04 -9.32008E+02 -1.55157E+04 -1.24554E+04 -6.44529E+03 -2.02689E+04  6.97855E+03 -1.62035E+04
  1.32920E+04 -6.97531E+03  1.00255E+04  4.33221E+03 -6.09508E+02  6.42649E+03 -8.56445E+03 -2.74173E+02
 -7.80538E+03 -1.10114E+04 -1.45264E+03 -1.67388E+04  9.48315E+03 -1.73341E+04  2.14213E+04 -9.80207E+03
  2.47655E+04  2.96268E+03  1.81949E+04  1.57061E+04  3.61093E+03  2.02806E+04 -1.01826E+04  1.64116E+04
 -1.29641E+04  4.78485E+03 -6.92122E+03 -3.87549E+03  2.80311E+03 -4.43679E+03  8.37370E+03 -1.02869E+03
  7.63279E+03  7.64934E+03  1.12478E+03  1.36304E+04 -9.73054E+03  1.29547E+04 -1.63310E+04  3.04472E+03
 -1.20286E+04 -8.68044E+03  1.89984E+02 -1.42577E+04  9.31680E+03 -7.27275E+03  1.03373E+04  3.87444E+03
  2.71212E+03  1.03930E+04 -9.08868E+03  1.25423E+04 -1.46983E+04  5.46321E+03 -1.55546E+04 -5.72750E+03
 -8.54409E+03 -1.68111E+04  4.14825E+03 -1.92970E+04  1.64623E+04 -1.12194E+04  1.81179E+04  3.19218E+03
  1.09091E+04  1.40724E+04 -1.81648E+03  1.68181E+04 -1.25323E+04  9.16746E+03 -1.39165E+04 -1.27907E+03
 -1.14295E+04 -1.08807E+04 -1.57011E+03 -1.29070E+04  6.79806E+03 -1.01554E+04  8.31844E+03 -3.83291E+03
  5.05704E+03  2.29902E+03 -1.35471E+03  1.94951E+03 -1.44398E+03 -3.55455E+03  2.90278E+03 -8.72829E+03
  1.24326E+04 -4.98988E+03  1.72855E+04  2.04304E+03  1.68984E+04  1.20220E+04  1.08976E+04  2.26848E+04
 -5.44689E+03  2.58781E+04 -2.17670E+04  1.90015E+04 -2.76419E+04  3.55795E+03 -2.22609E+04 -1.03762E+04
 -1.07744E+04 -1.80902E+04 -6.23091E+02 -1.53312E+04  5.66186E+03 -9.17285E+03  5.84614E+03 -5.57802E+03
  4.01561E+03 -3.25745E+03  4.08746E+03 -4.06969E+03  6.23762E+03 -3.80115E+03  8.44073E+03 -1.79735E+03
  1.10808E+04  2.73768E+03  6.49171E+03  9.98378E+03 -2.42826E+03  1.26352E+04 -1.23465E+04  9.34594E+03
 -1.60421E+04 -1.25494E+03 -1.01408E+04 -1.10512E+04 -1.42575E+03 -1.71980E+04  9.64673E+03 -1.74110E+04
  1.79248E+04 -9.34785E+03  2.09519E+04  3.22680E+03  1.42005E+04  1.46913E+04  2.01311E+03  1.91305E+04
 -7.65475E+03  1.57026E+04 -1.11898E+04  5.50874E+03 -7.81526E+03 -1.98209E+03 -3.14307E+03 -2.08234E+03
 -1.31120E+03  6.34634E-01 -2.33456E+03  2.87310E+03 -6.41269E+03  2.52602E+03 -1.09381E+04 -1.88695E+03
 -8.30876E+03 -1.06048E+04 -1.54099E+02 -1.58063E+04  9.53555E+03 -1.44021E+04  1.60282E+04 -4.69983E+03
  1.59783E+04  7.81217E+03  7.65740E+03  1.44305E+04 -3.54213E+03  1.59869E+04 -1.11723E+04  9.97236E+03
 -1.51191E+04  1.14882E+03 -1.14550E+04 -9.78810E+03 -9.47477E+02 -1.36257E+04  7.04366E+03 -1.00621E+04
  1.01187E+04 -3.09427E+03  6.94737E+03  3.14697E+03  2.79767E+03  4.41649E+03  1.35003E+03  2.00046E+03
  3.07974E+03  5.15566E+02  4.30283E+03  1.86514E+03  4.65538E+03  4.90687E+03  4.01136E+03  8.82846E+03
 -2.98304E+03  1.27051E+04 -1.14754E+04  1.29252E+04 -1.68931E+04  3.02113E+03 -1.73354E+04 -7.14752E+03
 -8.35739E+03 -1.63191E+04  2.82512E+03 -1.74754E+04  1.00897E+04 -1.18104E+04  1.29793E+04 -2.96763E+03
  1.04302E+04  6.18914E+03  2.27288E+03  9.25180E+03 -4.29051E+03  6.20594E+03 -6.73830E+03 -8.37924E+02
 -3.26146E+03 -7.05814E+03  4.16539E+03 -6.95400E+03  6.67981E+03 -3.55269E+03  6.93615E+03  1.81714E+03
  4.01799E+03  3.48986E+03  1.46248E+03  2.53242E+03 -9.01601E+02  2.07410E+03  1.79338E+03 -5.39994E+02
  2.87387E+03 -6.85555E+02  6.54857E+03  2.73184E+03  3.97863E+03  8.81787E+03 -1.09652E+03  1.11975E+04
 -8.28052E+03  7.72298E+03 -1.06125E+04  2.04648E+03 -9.39987E+03 -3.66404E+03 -4.01314E+03 -6.85099E+03
  6.24529E+02 -7.00452E+03  4.25933E+03 -3.06975E+03  3.69074E+03  3.10201E+03 -1.36314E+03  5.60859E+03
 -6.60318E+03  3.29584E+03 -7.93871E+03 -3.97531E+03 -4.45056E+03 -8.98052E+03  1.15592E+03 -9.45048E+03
  5.47834E+03 -5.02406E+03  6.95337E+03 -5.65827E+02  5.27507E+03  2.03928E+03  8.61138E+02  4.73379E+03
 -3.36685E+03  1.61619E+03 -4.00131E+03 -3.17934E+03  1.53310E+03 -7.25479E+03  8.24090E+03 -5.59427E+03
  1.07398E+04  9.55027E+02  1.00751E+04  7.00208E+03  3.32000E+03  1.11506E+04 -3.56858E+03  1.02069E+04
 -9.39754E+03  4.54421E+03 -9.26669E+03 -1.59101E+03 -5.20367E+03 -6.88108E+03  1.60526E+03 -6.98211E+03
  6.75487E+03 -3.13258E+03  5.96001E+03  2.96461E+03  2.39152E+03  6.32749E+03 -9.00732E+02  5.29534E+03
 -2.62283E+03  3.15294E+03 -2.47684E+03  8.58069E+02 -1.46042E+03  9.60188E+02 -1.93278E+03  1.86472E+03
 -2.90176E+03  4.20402E+03 -7.50363E+03  3.81106E+03 -1.09256E+04  8.22338E+01 -1.23454E+04 -7.32336E+03
 -6.28928E+03 -1.44525E+04  2.91462E+03 -1.66693E+04  1.05867E+04 -1.29290E+04  1.61588E+04 -5.10651E+03
  1.45253E+04  3.15588E+03  9.35267E+03  1.00017E+04  8.41997E+02  1.12486E+04 -4.01822E+03  8.50796E+03
 -6.11227E+03  3.20735E+03 -4.30564E+03 -1.35515E+03 -1.38276E+03 -1.19023E+03 -7.47672E+02 -3.43957E+02
 -1.69997E+03  1.37305E+02 -2.62132E+03 -1.17197E+02 -1.02737E+03 -3.00294E+03  3.14485E+02 -4.44571E+03
  5.14662E+03 -3.26170E+03  7.15478E+03 -1.44896E+01  7.93736E+03  6.18990E+03  2.59425E+03  1.13262E+04
 -5.17264E+03  1.28228E+04 -1.19251E+04  7.49410E+03 -1.37306E+04 -1.05898E+03 -1.01813E+04 -8.65524E+03
 -4.45903E+03 -1.20389E+04  2.69411E+03 -1.07374E+04  7.22099E+03 -5.81063E+03  7.44886E+03  4.40562E+02
  4.55630E+03  4.08166E+03 -5.02699E+02  3.35374E+03 -2.09673E+03 -4.85547E+01  1.91834E+02 -2.57164E+03
  3.59595E+03 -1.41643E+03  4.32479E+03  1.53674E+03  3.06446E+03  4.91365E+03  2.26479E+02  6.20173E+03
 -5.21522E+03  5.50435E+03 -7.89774E+03  7.83490E+02 -7.10252E+03 -5.24175E+03 -8.94356E+02 -9.45629E+03
  5.09383E+03 -7.94332E+03  9.05446E+03 -2.72634E+03  8.54444E+03  2.37799E+03  5.38258E+03  7.31073E+03
  9.75431E+02  7.51476E+03 -2.74965E+03  6.27092E+03 -4.94061E+03  3.47419E+03 -4.21782E+03  8.84526E+02
 -2.16885E+03 -1.85312E+02 -2.33221E+03  1.28428E+03 -3.60422E+03  1.61721E+03 -5.81715E+03 -1.09576E+03
 -5.53742E+03 -4.10885E+03 -1.14180E+03 -7.86987E+03  3.55919E+03 -8.23261E+03  6.83800E+03 -3.53082E+03
  7.90226E+03  1.06070E+03  4.11850E+03  5.66472E+03 -7.87733E+02  7.87106E+03 -5.95662E+03  4.97873E+03
