 $NMID ID='MM_0lb_SNR800_7hz_g40_65.RAW', FMTDAT='(8E13.5)'
 TRAMP=1., VOLUME=1. $END
  3.10045E+05  6.12494E+02  3.37812E+05  2.50621E+05  8.49282E+04  3.38514E+05 -1.32501E+05  2.51866E+05
 -1.90697E+05  8.42411E+04 -1.12711E+05 -3.23582E+04  2.41886E+00 -5.05336E+04  5.34889E+04 -6.80722E+02
  3.55936E+04  5.27286E+04 -1.68526E+04  7.62629E+04 -6.10727E+04  6.49287E+04 -8.53883E+04  3.25936E+04
 -8.26798E+04 -1.21038E+04 -5.89897E+04 -5.26375E+04 -1.54001E+04 -7.12793E+04  2.81701E+04 -4.67969E+04
  4.17734E+04  3.75611E+03  1.68115E+04  4.89287E+04 -3.46802E+04  4.85160E+04 -6.82822E+04  4.22977E+02
 -5.56993E+04 -5.82144E+04 -7.84482E+03 -7.88059E+04  3.49785E+04 -5.74321E+04  5.04993E+04 -1.83283E+04
  4.54475E+04  1.14139E+04  3.29811E+04  2.66394E+04  1.55269E+04  3.05729E+04 -6.84004E+03  2.77565E+04
 -2.26732E+04  1.19459E+04 -1.75163E+04 -5.99596E+03  7.19953E+03 -7.34646E+03  2.37924E+04  1.37759E+04
  7.51844E+03  3.81279E+04 -3.40676E+04  3.75220E+04 -6.66757E+04  1.82403E+03 -5.92067E+04 -4.48101E+04
 -1.25133E+04 -6.59437E+04  4.21807E+04 -4.77427E+04  6.19933E+04 -2.52073E+03  3.77311E+04  3.47085E+04
 -5.26511E+03  4.03347E+04 -3.21707E+04  1.93010E+04 -3.42755E+04 -3.52798E+03 -1.98143E+04 -1.24045E+04
 -9.97333E+03 -1.55708E+04 -2.01188E+02 -1.97584E+04  8.52416E+03 -2.37968E+04  1.61241E+04 -1.23418E+04
  9.84262E+03  6.14161E+03 -1.10616E+04  1.28577E+04 -2.35264E+04 -6.81467E+03 -8.53162E+03 -3.89439E+04
  2.54750E+04 -4.75359E+04  5.29176E+04 -2.13597E+04  4.93478E+04  2.14238E+04  1.79613E+04  4.75439E+04
 -1.69983E+04  3.69961E+04 -2.80847E+04  2.98413E+03 -1.23439E+04 -2.99863E+04  2.15723E+04 -3.82178E+04
  4.51048E+04 -1.19897E+04  4.16753E+04  2.52372E+04  2.19233E+04  5.25308E+04 -8.26204E+03  5.75285E+04
 -3.62340E+04  3.96918E+04 -4.90654E+04  1.14302E+04 -4.88615E+04 -1.90849E+04 -2.64441E+04 -4.27506E+04
  8.17474E+03 -4.36486E+04  3.46472E+04 -1.73926E+04  3.30096E+04  1.10470E+04  5.46834E+03  2.10514E+04
 -1.41416E+04  9.96545E+03 -1.15931E+04 -7.72234E+03  5.53012E+03 -1.15109E+04  1.94851E+04  5.59556E+03
  1.48360E+04  2.32379E+04 -5.19990E+03  2.78671E+04 -2.39643E+04  1.51941E+04 -3.25384E+04 -2.67288E+03
 -2.62656E+04 -1.85261E+04 -1.27526E+04 -2.66177E+04  4.25510E+03 -2.70691E+04  2.10761E+04 -2.40980E+04
  3.39283E+04 -1.47249E+04  3.94544E+04  5.47529E+03  2.79034E+04  2.54818E+04  4.43717E+03  4.24725E+04
 -2.06152E+04  3.48605E+04 -3.11847E+04  1.22056E+04 -2.28770E+04 -1.05833E+04 -4.87800E+03 -1.28588E+04
  5.18728E+02 -5.72978E+02 -8.77053E+03  9.16211E+03 -2.15250E+04  4.97246E+03 -2.12892E+04 -1.08340E+04
 -1.24231E+04 -2.44983E+04  6.29784E+03 -2.90150E+04  1.97174E+04 -2.03079E+04  2.38977E+04 -1.51350E+03
  1.50914E+04  1.69756E+04 -1.13355E+03  2.43790E+04 -1.77385E+04  1.42957E+04 -2.44732E+04 -4.80653E+03
 -1.82878E+04 -2.14421E+04 -2.40060E+03 -2.99204E+04  1.31972E+04 -2.46439E+04  2.47199E+04 -1.23924E+04
  2.31491E+04 -1.04104E+02  1.68907E+04  4.69336E+03  9.23120E+03  1.84542E+03  1.29648E+04 -2.63669E+03
  2.35417E+04  2.57686E+03  2.70499E+04  1.93047E+04  1.87936E+04  4.01492E+04 -2.44329E+03  4.75259E+04
 -2.62110E+04  3.92498E+04 -4.41546E+04  2.07093E+04 -4.83341E+04 -3.33810E+03 -3.85697E+04 -2.80293E+04
 -1.49962E+04 -4.04675E+04  1.43005E+04 -3.49110E+04  2.97536E+04 -1.59220E+04  2.57728E+04  8.25579E+03
  8.68018E+03  1.99138E+04 -1.24925E+04  1.66412E+04 -2.14832E+04  2.76451E+03 -1.61877E+04 -1.37241E+04
 -2.52046E+02 -2.07289E+04  1.11793E+04 -1.53474E+04  1.45541E+04 -9.44858E+02  4.06687E+03  9.56802E+03
 -9.34746E+03  4.49642E+03 -1.01045E+04 -7.04867E+03 -1.82843E+03 -1.92412E+04  1.28856E+04 -2.15179E+04
  2.48743E+04 -1.23023E+04  2.84260E+04  2.94311E+03  2.56669E+04  2.01625E+04  1.12682E+04  3.17258E+04
 -6.30114E+03  3.36750E+04 -2.28290E+04  2.10837E+04 -2.47263E+04  3.85736E+03 -1.67626E+04 -6.44122E+03
 -6.61147E+03 -8.21361E+03 -4.11421E+02  1.05508E+02 -2.77758E+03  3.69039E+03 -7.87797E+03  5.55389E+03
 -1.53856E+04 -1.17218E+03 -1.59531E+04 -1.27743E+04 -6.35192E+03 -2.04725E+04  6.63161E+03 -1.68953E+04
  1.38636E+04 -6.93690E+03  9.78177E+03  4.28131E+03 -8.49742E+02  7.25944E+03 -8.62614E+03 -8.68889E+01
 -8.23826E+03 -1.09930E+04 -1.05020E+03 -1.67578E+04  1.03335E+04 -1.80374E+04  2.20429E+04 -9.90447E+03
  2.61244E+04  2.95119E+03  1.85404E+04  1.60795E+04  3.79559E+03  2.09131E+04 -1.03925E+04  1.68082E+04
 -1.42715E+04  4.82154E+03 -7.18258E+03 -4.05441E+03  2.35791E+03 -4.92767E+03  8.83795E+03 -1.00817E+03
  8.57842E+03  8.02433E+03  1.34948E+03  1.38641E+04 -9.91894E+03  1.26172E+04 -1.66233E+04  2.65332E+03
 -1.17295E+04 -9.43118E+03  3.47955E+02 -1.46626E+04  9.63997E+03 -7.47676E+03  1.06413E+04  3.53007E+03
  3.25828E+03  1.13928E+04 -9.15842E+03  1.34358E+04 -1.52720E+04  5.46349E+03 -1.60003E+04 -5.71775E+03
 -9.17370E+03 -1.77359E+04  4.40144E+03 -2.09073E+04  1.79160E+04 -1.20525E+04  1.92641E+04  3.18720E+03
  1.11906E+04  1.50019E+04 -2.04226E+03  1.78937E+04 -1.30248E+04  9.45170E+03 -1.42098E+04 -1.50314E+03
 -1.21797E+04 -1.20703E+04 -1.93245E+03 -1.34070E+04  7.53053E+03 -1.06595E+04  8.96901E+03 -3.82518E+03
  5.52060E+03  2.47688E+03 -1.45818E+03  2.10643E+03 -1.56082E+03 -4.38641E+03  3.14387E+03 -8.92957E+03
  1.32443E+04 -6.01704E+03  1.87357E+04  1.99174E+03  1.79335E+04  1.29646E+04  1.15082E+04  2.39434E+04
 -5.94460E+03  2.74500E+04 -2.29470E+04  2.05202E+04 -2.94717E+04  3.96435E+03 -2.40245E+04 -1.04493E+04
 -1.13158E+04 -1.92494E+04 -8.25532E+02 -1.63583E+04  5.93995E+03 -9.54908E+03  5.54424E+03 -5.57284E+03
  4.81250E+03 -3.60829E+03  4.43810E+03 -4.00280E+03  6.12655E+03 -3.89175E+03  9.11018E+03 -2.27374E+03
  1.16286E+04  2.69201E+03  6.82392E+03  1.07345E+04 -2.64972E+03  1.34684E+04 -1.29849E+04  1.02571E+04
 -1.69237E+04 -1.26140E+03 -1.12160E+04 -1.20585E+04 -2.28068E+03 -1.87104E+04  9.93218E+03 -1.85192E+04
  1.95371E+04 -9.93752E+03  2.22888E+04  3.56056E+03  1.58903E+04  1.58645E+04  2.51034E+03  2.10668E+04
 -8.64106E+03  1.63898E+04 -1.17147E+04  5.96727E+03 -8.45327E+03 -2.23568E+03 -3.88983E+03 -2.38163E+03
 -1.61063E+03 -4.06352E+02 -2.57675E+03  3.17099E+03 -7.16586E+03  2.97553E+03 -1.14817E+04 -1.73244E+03
 -8.72961E+03 -1.22419E+04 -3.08250E+02 -1.75176E+04  1.11168E+04 -1.58884E+04  1.76645E+04 -5.00296E+03
  1.72085E+04  8.06715E+03  8.13744E+03  1.59872E+04 -3.54255E+03  1.80306E+04 -1.27049E+04  1.12744E+04
 -1.69442E+04  8.11544E+02 -1.27088E+04 -1.08391E+04 -2.03375E+03 -1.49212E+04  7.71365E+03 -1.15430E+04
  1.10113E+04 -3.12244E+03  7.59940E+03  3.38265E+03  2.52910E+03  5.00818E+03  1.44828E+03  2.49315E+03
  3.64181E+03  1.30787E+03  4.19118E+03  1.91404E+03  5.51851E+03  5.76271E+03  4.69444E+03  9.90034E+03
 -3.51361E+03  1.44148E+04 -1.26917E+04  1.38423E+04 -1.91568E+04  3.87215E+03 -1.91490E+04 -8.01499E+03
 -9.46183E+03 -1.81410E+04  2.75577E+03 -1.99595E+04  1.14594E+04 -1.25911E+04  1.50410E+04 -3.04242E+03
  1.14476E+04  6.69464E+03  2.29141E+03  1.06959E+04 -4.91710E+03  6.92179E+03 -7.58657E+03 -1.27144E+03
 -3.94592E+03 -8.00407E+03  4.29863E+03 -8.56739E+03  8.14115E+03 -4.04717E+03  8.01076E+03  1.47052E+03
  4.35824E+03  3.99382E+03  1.55220E+03  3.65816E+03 -6.71931E+02  2.35145E+03  1.44089E+03 -7.03675E+02
  2.50336E+03 -9.26880E+02  6.92035E+03  3.47450E+03  4.31620E+03  1.04453E+04 -1.53817E+03  1.29010E+04
 -8.95302E+03  8.95946E+03 -1.21755E+04  2.02967E+03 -1.08101E+04 -4.41689E+03 -4.45829E+03 -7.54426E+03
  1.10192E+03 -7.47087E+03  4.89817E+03 -3.47425E+03  3.96203E+03  3.87559E+03 -1.46710E+03  6.53747E+03
 -7.74177E+03  3.42450E+03 -8.86916E+03 -4.42614E+03 -5.07177E+03 -1.02942E+04  1.32793E+03 -1.09038E+04
  6.00371E+03 -6.15688E+03  7.72993E+03 -6.72932E+02  6.34864E+03  2.91447E+03  9.98432E+02  5.41439E+03
 -3.98155E+03  1.40955E+03 -4.56683E+03 -3.77340E+03  1.32923E+03 -8.38467E+03  9.52486E+03 -6.46596E+03
  1.21866E+04  1.00464E+03  1.17650E+04  8.68724E+03  3.59511E+03  1.31974E+04 -4.88767E+03  1.20918E+04
 -1.01239E+04  5.62407E+03 -1.13320E+04 -1.58535E+03 -6.13569E+03 -7.82446E+03  1.84535E+03 -8.24256E+03
  7.87218E+03 -3.96495E+03  6.60425E+03  3.31468E+03  2.43952E+03  7.09969E+03 -1.28999E+03  6.16675E+03
 -3.76728E+03  3.45134E+03 -3.14974E+03  1.14594E+03 -1.60814E+03  1.48710E+03 -1.65834E+03  3.00706E+03
 -3.00649E+03  5.03270E+03 -8.19127E+03  4.58060E+03 -1.34611E+04 -1.64543E+02 -1.46273E+04 -8.64892E+03
 -7.68597E+03 -1.69898E+04  3.50018E+03 -1.96662E+04  1.25651E+04 -1.55276E+04  1.89134E+04 -5.73511E+03
  1.71303E+04  3.79642E+03  1.14053E+04  1.17996E+04  1.54915E+03  1.40988E+04 -5.78783E+03  1.09566E+04
 -7.90601E+03  4.02167E+03 -4.55785E+03 -1.69037E+03 -1.26410E+03 -1.27982E+03 -1.05586E+03  8.95346E+01
 -2.55491E+03  4.38227E+02 -2.55433E+03 -6.74548E+02 -1.19196E+03 -3.07918E+03  4.99789E+02 -5.28657E+03
  5.64484E+03 -4.02173E+03  8.51627E+03  5.39014E+01  9.69585E+03  7.13642E+03  2.69996E+03  1.37811E+04
 -6.20548E+03  1.53155E+04 -1.48646E+04  9.13890E+03 -1.66905E+04 -1.40470E+03 -1.28624E+04 -1.03820E+04
 -5.70304E+03 -1.47030E+04  3.63983E+03 -1.35138E+04  9.26289E+03 -7.39180E+03  9.28055E+03  3.63528E+02
  5.03571E+03  4.74437E+03 -8.84474E+02  4.34827E+03 -2.26742E+03 -5.69615E+02  1.47378E+02 -3.50878E+03
  4.55863E+03 -1.71495E+03  5.81894E+03  2.03533E+03  3.92246E+03  5.26409E+03  2.17328E+01  7.68297E+03
 -6.28645E+03  6.64862E+03 -9.85549E+03  8.19438E+02 -8.56298E+03 -6.83930E+03 -1.41363E+03 -1.14983E+04
  7.24318E+03 -1.00353E+04  1.09303E+04 -2.95702E+03  1.08456E+04  3.15407E+03  6.56228E+03  8.05714E+03
  9.41189E+02  9.55154E+03 -4.07920E+03  7.60159E+03 -5.91856E+03  4.48522E+03 -5.15220E+03  6.57594E+02
 -2.38185E+03 -5.21803E+02 -2.84100E+03  1.41485E+03 -5.01437E+03  1.73492E+03 -7.48394E+03 -1.57426E+03
 -6.98175E+03 -5.47607E+03 -2.16366E+03 -9.62037E+03  4.51739E+03 -9.98463E+03  8.53942E+03 -5.09829E+03
  9.53245E+03  1.20043E+03  5.92421E+03  7.34122E+03 -8.34780E+02  9.66315E+03 -7.22880E+03  6.38756E+03
