 $NMID ID='MM_0lb_SNR800_10hz_g50_51.RAW', FMTDAT='(8E13.5)'
 TRAMP=1., VOLUME=1. $END
  3.10129E+05  2.72387E+02  3.37847E+05  2.50592E+05  8.46769E+04  3.38405E+05 -1.32819E+05  2.51609E+05
 -1.90855E+05  8.33237E+04 -1.12479E+05 -3.20199E+04  4.72634E+02 -5.10000E+04  5.37667E+04  2.36240E+01
  3.57155E+04  5.32089E+04 -1.69054E+04  7.58627E+04 -6.11442E+04  6.45228E+04 -8.48948E+04  3.24593E+04
 -8.20379E+04 -1.16005E+04 -5.82785E+04 -5.23632E+04 -1.51321E+04 -7.05991E+04  2.81337E+04 -4.68508E+04
  4.09501E+04  3.62830E+03  1.64652E+04  4.86573E+04 -3.51122E+04  4.82449E+04 -6.79831E+04 -2.58788E+02
 -5.45919E+04 -5.73689E+04 -6.93753E+03 -7.88136E+04  3.46239E+04 -5.66257E+04  4.91228E+04 -1.83230E+04
  4.50316E+04  1.10527E+04  3.23770E+04  2.64504E+04  1.59921E+04  3.05068E+04 -5.35014E+03  2.73045E+04
 -2.22468E+04  1.20999E+04 -1.81250E+04 -5.90592E+03  6.83205E+03 -7.60817E+03  2.32833E+04  1.35534E+04
  7.22008E+03  3.69377E+04 -3.33188E+04  3.66142E+04 -6.54388E+04  1.97566E+03 -5.84652E+04 -4.43138E+04
 -1.22134E+04 -6.51873E+04  4.09301E+04 -4.71974E+04  6.11770E+04 -2.63242E+03  3.60691E+04  3.39148E+04
 -5.65598E+03  3.88618E+04 -3.15856E+04  1.81550E+04 -3.27236E+04 -3.77142E+03 -1.87285E+04 -1.16353E+04
 -8.89387E+03 -1.45149E+04 -4.84693E+02 -1.94261E+04  8.14262E+03 -2.32987E+04  1.56145E+04 -1.24264E+04
  1.11838E+04  6.69772E+03 -1.02249E+04  1.25700E+04 -2.27782E+04 -5.96802E+03 -8.59415E+03 -3.66808E+04
  2.50517E+04 -4.61081E+04  5.13146E+04 -2.05493E+04  4.81826E+04  2.04638E+04  1.69201E+04  4.61583E+04
 -1.62677E+04  3.55449E+04 -2.68630E+04  2.58395E+03 -1.10753E+04 -2.89769E+04  2.18436E+04 -3.60133E+04
  4.38248E+04 -1.05399E+04  3.95902E+04  2.47076E+04  2.05137E+04  5.02411E+04 -8.02524E+03  5.48226E+04
 -3.42682E+04  3.72588E+04 -4.64582E+04  1.08274E+04 -4.67772E+04 -1.85343E+04 -2.57678E+04 -4.17536E+04
  7.62330E+03 -4.09796E+04  3.39320E+04 -1.68738E+04  3.14874E+04  1.07681E+04  4.93236E+03  2.07569E+04
 -1.37777E+04  9.18925E+03 -1.11855E+04 -7.50116E+03  5.60712E+03 -1.10538E+04  1.83913E+04  5.34467E+03
  1.49573E+04  2.29068E+04 -5.58969E+03  2.66681E+04 -2.28391E+04  1.37300E+04 -3.07473E+04 -3.13246E+03
 -2.44242E+04 -1.84604E+04 -1.10768E+04 -2.40644E+04  4.28588E+03 -2.45274E+04  1.91502E+04 -2.22444E+04
  3.13587E+04 -1.36306E+04  3.71159E+04  4.80816E+03  2.66558E+04  2.35216E+04  4.31613E+03  4.02542E+04
 -1.93592E+04  3.28286E+04 -3.02374E+04  1.18156E+04 -2.20555E+04 -1.02506E+04 -5.38795E+03 -1.28127E+04
  9.65435E+02 -1.29145E+03 -6.86340E+03  7.83963E+03 -1.95576E+04  4.84330E+03 -1.91313E+04 -8.81787E+03
 -1.15331E+04 -2.26596E+04  5.70120E+03 -2.66612E+04  1.80104E+04 -1.87464E+04  2.17173E+04 -1.85732E+03
  1.40173E+04  1.54322E+04 -1.33519E+03  2.23377E+04 -1.61160E+04  1.29928E+04 -2.26991E+04 -4.45919E+03
 -1.62640E+04 -2.02680E+04 -1.96035E+03 -2.67015E+04  1.20653E+04 -2.26783E+04  2.25022E+04 -1.13486E+04
  2.08904E+04 -1.90895E+02  1.48777E+04  4.94475E+03  8.45516E+03  1.41303E+03  1.16922E+04 -2.05309E+03
  2.12176E+04  2.87752E+03  2.44089E+04  1.73901E+04  1.65619E+04  3.64602E+04 -2.88959E+03  4.19331E+04
 -2.39593E+04  3.51523E+04 -3.96718E+04  1.79853E+04 -4.25256E+04 -2.92321E+03 -3.42120E+04 -2.47913E+04
 -1.42278E+04 -3.52284E+04  1.19768E+04 -3.07915E+04  2.65990E+04 -1.46338E+04  2.28928E+04  7.03416E+03
  8.11612E+03  1.77813E+04 -1.09785E+04  1.46005E+04 -1.92196E+04  2.86769E+03 -1.44097E+04 -1.21427E+04
 -5.73919E+02 -1.86835E+04  9.40126E+03 -1.37458E+04  1.29439E+04 -1.35567E+03  3.26818E+03  7.95367E+03
 -8.03029E+03  3.89891E+03 -8.57122E+03 -6.87818E+03 -1.48344E+03 -1.72526E+04  1.15999E+04 -1.84458E+04
  2.15897E+04 -1.05122E+04  2.43605E+04  3.11177E+03  2.13610E+04  1.78698E+04  1.00251E+04  2.71689E+04
 -5.52639E+03  2.93170E+04 -1.92066E+04  1.80821E+04 -2.07987E+04  3.71210E+03 -1.44889E+04 -5.48477E+03
 -6.21914E+03 -6.71212E+03 -6.00931E+02  5.47170E+02 -2.78294E+03  2.96590E+03 -7.11256E+03  5.33875E+03
 -1.36994E+04 -7.56435E+02 -1.41097E+04 -1.10568E+04 -5.41802E+03 -1.83513E+04  5.96105E+03 -1.47977E+04
  1.21937E+04 -5.93022E+03  8.53634E+03  3.64762E+03 -4.24379E+02  5.51462E+03 -7.55944E+03 -2.76118E+02
 -6.83996E+03 -9.25085E+03 -1.23384E+03 -1.43756E+04  8.54841E+03 -1.52597E+04  1.88724E+04 -8.30593E+03
  2.17831E+04  2.27410E+03  1.62862E+04  1.34797E+04  3.31527E+03  1.75875E+04 -8.87410E+03  1.45989E+04
 -1.18652E+04  4.04681E+03 -6.06041E+03 -3.49059E+03  2.03559E+03 -4.14902E+03  7.85126E+03 -9.04615E+02
  7.21037E+03  6.31589E+03  1.06963E+03  1.20291E+04 -8.49552E+03  1.10992E+04 -1.44259E+04  2.82890E+03
 -9.82454E+03 -7.72836E+03  2.64560E+02 -1.26394E+04  7.86287E+03 -6.07330E+03  8.55976E+03  2.76188E+03
  1.63664E+03  9.26885E+03 -7.41224E+03  1.05308E+04 -1.20613E+04  5.01197E+03 -1.27058E+04 -4.64972E+03
 -7.37875E+03 -1.44688E+04  3.56356E+03 -1.65260E+04  1.44085E+04 -9.90969E+03  1.53473E+04  2.52141E+03
  8.93165E+03  1.22341E+04 -1.20048E+03  1.47120E+04 -1.11460E+04  7.66982E+03 -1.19804E+04 -1.43937E+03
 -9.91260E+03 -9.65447E+03 -1.79620E+03 -1.14954E+04  5.74500E+03 -8.95651E+03  6.83382E+03 -3.93262E+03
  4.39037E+03  1.44707E+03 -9.93310E+02  1.82404E+03 -5.50181E+02 -2.89996E+03  2.13152E+03 -6.88336E+03
  1.04905E+04 -4.60133E+03  1.46408E+04  1.68933E+03  1.41211E+04  1.01813E+04  9.60255E+03  1.88822E+04
 -4.37736E+03  2.18770E+04 -1.79882E+04  1.59419E+04 -2.34485E+04  3.22854E+03 -1.93185E+04 -7.94684E+03
 -9.38864E+03 -1.54319E+04 -4.70491E+02 -1.32800E+04  5.16928E+03 -7.33421E+03  4.78050E+03 -4.96219E+03
  3.37156E+03 -3.20810E+03  3.65732E+03 -3.65223E+03  5.78056E+03 -3.05922E+03  7.45604E+03 -9.56370E+02
  9.56608E+03  2.28961E+03  5.19965E+03  8.24561E+03 -1.94398E+03  9.93034E+03 -1.00636E+04  7.35803E+03
 -1.33952E+04 -1.41883E+03 -8.25086E+03 -9.20641E+03 -1.12848E+03 -1.40785E+04  7.74418E+03 -1.40305E+04
  1.50685E+04 -7.91089E+03  1.77462E+04  2.27697E+03  1.23783E+04  1.25306E+04  1.66625E+03  1.60997E+04
 -6.61952E+03  1.32203E+04 -9.09778E+03  4.68774E+03 -6.09268E+03 -1.59429E+03 -2.60056E+03 -1.89548E+03
 -1.41148E+03 -1.65217E+00 -1.68106E+03  2.86638E+03 -5.53450E+03  2.44814E+03 -9.12742E+03 -1.25795E+03
 -6.24660E+03 -8.91719E+03 -5.63272E+01 -1.30362E+04  8.42580E+03 -1.24856E+04  1.31536E+04 -3.70533E+03
  1.30259E+04  6.31547E+03  6.39135E+03  1.13705E+04 -2.68055E+03  1.28364E+04 -9.48314E+03  8.33248E+03
 -1.23296E+04  8.68523E+02 -9.70068E+03 -8.32393E+03 -9.79918E+02 -1.11215E+04  5.69385E+03 -8.11697E+03
  8.15783E+03 -2.45585E+03  6.08187E+03  2.35650E+03  1.97657E+03  4.08194E+03  1.01818E+03  1.94481E+03
  2.67923E+03  1.37010E+03  3.29314E+03  1.70144E+03  3.88959E+03  4.48541E+03  3.49690E+03  7.05032E+03
 -2.53597E+03  1.04886E+04 -9.22827E+03  1.06989E+04 -1.34144E+04  2.47528E+03 -1.36227E+04 -5.66338E+03
 -6.60629E+03 -1.33717E+04  1.68955E+03 -1.44881E+04  8.15886E+03 -9.05096E+03  1.05237E+04 -2.91385E+03
  8.58758E+03  4.92131E+03  2.00243E+03  7.77994E+03 -3.42608E+03  5.02163E+03 -5.25228E+03 -7.68280E+02
 -2.45883E+03 -5.60419E+03  3.34871E+03 -5.98224E+03  5.23485E+03 -2.97738E+03  5.46387E+03  8.79156E+02
  2.96355E+03  2.69248E+03  1.14498E+03  2.43924E+03 -7.55642E+02  2.08328E+03  1.41446E+03 -3.78415E+02
  1.92579E+03 -4.42516E+02  5.76909E+03  2.38901E+03  2.97510E+03  7.07995E+03 -1.71017E+03  9.48599E+03
 -6.17449E+03  5.99890E+03 -8.52674E+03  1.71530E+03 -7.74071E+03 -3.01657E+03 -2.92333E+03 -4.86610E+03
  8.25846E+02 -5.09099E+03  3.27701E+03 -2.25093E+03  2.81158E+03  3.17044E+03 -1.01544E+03  4.38583E+03
 -5.55740E+03  2.70989E+03 -6.23705E+03 -2.97692E+03 -3.78077E+03 -7.23354E+03  1.42876E+03 -7.25710E+03
  4.44744E+03 -4.18175E+03  5.45452E+03 -6.77930E+02  4.16955E+03  1.56640E+03  1.08244E+03  3.82958E+03
 -2.15791E+03  1.42198E+03 -3.53320E+03 -2.14327E+03  1.26949E+03 -5.19379E+03  6.70677E+03 -4.70180E+03
  8.06372E+03  4.29657E+02  8.02725E+03  5.71337E+03  2.54667E+03  8.50311E+03 -2.97693E+03  7.82428E+03
 -7.14353E+03  3.43595E+03 -7.37178E+03 -1.04317E+03 -4.42296E+03 -5.76561E+03  1.54558E+03 -4.89068E+03
  5.17332E+03 -2.89885E+03  4.40723E+03  2.40387E+03  1.47890E+03  4.65293E+03 -8.67312E+02  4.25104E+03
 -2.09083E+03  2.68847E+03 -2.14744E+03  9.63938E+02 -1.12741E+03  1.07217E+03 -1.57087E+03  1.97686E+03
 -1.85877E+03  3.33888E+03 -6.00469E+03  3.03935E+03 -8.49784E+03  2.94456E+02 -9.77344E+03 -5.87140E+03
 -5.40308E+03 -1.10102E+04  2.14761E+03 -1.28802E+04  8.01463E+03 -1.01461E+04  1.25211E+04 -4.30442E+03
  1.18129E+04  2.28262E+03  6.93588E+03  7.92005E+03  3.85889E+02  8.79555E+03 -3.23023E+03  6.51798E+03
 -4.97441E+03  2.37898E+03 -3.43572E+03 -1.21508E+03 -5.48757E+02 -1.05330E+03 -8.02657E+02  6.46298E+01
 -1.92955E+03  3.28188E+02 -2.25888E+03 -4.58859E+02 -7.23441E+02 -2.23639E+03  1.56591E+02 -2.94038E+03
  3.99803E+03 -2.75493E+03  5.44780E+03  3.89406E+01  5.67807E+03  4.83448E+03  1.59306E+03  8.73655E+03
 -3.96243E+03  1.00628E+04 -9.19798E+03  5.83967E+03 -1.05679E+04 -7.80714E+02 -7.92768E+03 -6.56881E+03
 -3.67004E+03 -8.91366E+03  2.21922E+03 -8.15501E+03  5.24862E+03 -4.56911E+03  5.84994E+03  1.07082E+02
  3.48143E+03  2.63607E+03 -2.64046E+02  2.59497E+03 -1.54684E+03 -3.26379E+02 -3.71156E+02 -1.81695E+03
  2.66462E+03 -1.27005E+03  3.58284E+03  1.18479E+03  2.39496E+03  3.30187E+03 -4.08731E+01  4.58351E+03
 -3.87275E+03  3.80578E+03 -5.62092E+03  5.93279E+02 -4.96251E+03 -4.22532E+03 -7.09229E+02 -7.22370E+03
  3.94987E+03 -6.16898E+03  6.61144E+03 -1.93727E+03  6.68667E+03  1.74868E+03  3.67931E+03  5.38110E+03
  4.43893E+02  5.76441E+03 -2.37044E+03  4.45924E+03 -4.00702E+03  2.38163E+03 -3.36781E+03  5.52856E+01
 -1.95674E+03  3.82026E+01 -1.18761E+03  8.06416E+02 -3.44465E+03  7.18380E+02 -4.33118E+03 -9.60885E+02
 -4.36131E+03 -2.77580E+03 -1.55174E+03 -5.69181E+03  2.92546E+03 -5.92951E+03  5.20235E+03 -2.78575E+03
  5.65585E+03  8.39591E+02  3.03001E+03  4.07277E+03 -2.37336E+02  5.57290E+03 -4.34191E+03  3.99647E+03
