 $NMID ID='MM_0lb_SNR800_19hz_g55_8.RAW', FMTDAT='(8E13.5)'
 TRAMP=1., VOLUME=1. $END
  3.09953E+05  5.47292E+02  3.37538E+05  2.50436E+05  8.45653E+04  3.37385E+05 -1.32581E+05  2.50383E+05
 -1.89959E+05  8.24425E+04 -1.11491E+05 -3.27234E+04  9.20573E+02 -5.02385E+04  5.39467E+04  5.08167E+01
  3.50098E+04  5.27851E+04 -1.67916E+04  7.52137E+04 -6.06132E+04  6.27848E+04 -8.34416E+04  3.17644E+04
 -8.01638E+04 -1.13362E+04 -5.65549E+04 -5.05202E+04 -1.47148E+04 -6.88671E+04  2.68494E+04 -4.53298E+04
  3.94180E+04  3.84577E+03  1.59920E+04  4.72477E+04 -3.40725E+04  4.64563E+04 -6.60189E+04 -4.43442E+02
 -5.23589E+04 -5.62906E+04 -6.30046E+03 -7.57635E+04  3.34485E+04 -5.38839E+04  4.66666E+04 -1.66031E+04
  4.19842E+04  1.11416E+04  3.10002E+04  2.47167E+04  1.61626E+04  2.87798E+04 -4.99687E+03  2.69730E+04
 -2.17311E+04  1.26497E+04 -1.93466E+04 -4.41903E+03  4.74651E+03 -7.63291E+03  2.14671E+04  1.12394E+04
  7.45289E+03  3.36683E+04 -3.08463E+04  3.43322E+04 -6.16720E+04  2.06142E+03 -5.59119E+04 -4.15186E+04
 -1.24802E+04 -6.15912E+04  3.85114E+04 -4.38271E+04  5.63697E+04 -1.94018E+03  3.24208E+04  3.08709E+04
 -6.45919E+03  3.37179E+04 -2.91640E+04  1.39594E+04 -2.83908E+04 -5.26043E+03 -1.48801E+04 -1.06364E+04
 -7.63951E+03 -1.18907E+04 -7.16537E+02 -1.70092E+04  6.95774E+03 -2.27507E+04  1.53298E+04 -1.35600E+04
  1.21599E+04  4.36008E+03 -6.57638E+03  1.29503E+04 -1.94330E+04 -3.17443E+03 -8.05168E+03 -3.12471E+04
  2.15148E+04 -4.09711E+04  4.53557E+04 -1.89949E+04  4.29494E+04  1.86087E+04  1.44812E+04  4.23334E+04
 -1.55344E+04  3.16859E+04 -2.36556E+04  1.24649E+03 -9.01993E+03 -2.64497E+04  2.06155E+04 -3.17057E+04
  3.86680E+04 -7.40991E+03  3.22214E+04  2.30668E+04  1.57724E+04  4.34604E+04 -7.64023E+03  4.62918E+04
 -2.89900E+04  3.05409E+04 -3.81376E+04  8.38429E+03 -3.90586E+04 -1.52083E+04 -2.16880E+04 -3.51678E+04
  6.62653E+03 -3.49493E+04  2.97456E+04 -1.30596E+04  2.72704E+04  1.10893E+04  3.16993E+03  1.79208E+04
 -1.29720E+04  7.47976E+03 -9.69185E+03 -7.46903E+03  6.03377E+03 -9.90037E+03  1.74492E+04  6.34838E+03
  1.25472E+04  2.17074E+04 -6.74059E+03  2.36683E+04 -2.15203E+04  9.80174E+03 -2.57049E+04 -5.87987E+03
 -1.75313E+04 -1.65225E+04 -6.25713E+03 -1.73015E+04  3.85601E+03 -1.52890E+04  1.29922E+04 -1.49816E+04
  2.21319E+04 -1.17385E+04  2.86596E+04  1.41133E+03  2.16784E+04  1.71986E+04  3.96751E+03  3.29760E+04
 -1.62981E+04  2.82241E+04 -2.61207E+04  9.59273E+03 -1.96269E+04 -1.04033E+04 -4.08137E+03 -1.39147E+04
  2.44262E+03 -4.04097E+03 -2.77829E+03  5.36962E+03 -1.34999E+04  5.26208E+03 -1.35186E+04 -5.40877E+03
 -8.93373E+03 -1.58113E+04  4.51343E+03 -1.98509E+04  1.29438E+04 -1.41370E+04  1.49699E+04 -1.76620E+03
  9.50830E+03  1.11002E+04 -6.78622E+02  1.60726E+04 -1.04273E+04  8.98055E+03 -1.58233E+04 -3.34799E+03
 -1.20876E+04 -1.44813E+04 -1.39649E+03 -1.95036E+04  8.85614E+03 -1.60116E+04  1.66229E+04 -7.52423E+03
  1.48892E+04  4.48373E+02  1.07148E+04  3.96245E+03  5.43131E+03  5.12524E+02  7.60198E+03 -1.46673E+03
  1.43143E+04  2.67219E+03  1.51895E+04  1.31815E+04  9.25713E+03  2.52898E+04 -2.97864E+03  2.74835E+04
 -1.63745E+04  2.10957E+04 -2.52190E+04  1.00410E+04 -2.58778E+04 -1.90903E+03 -2.20067E+04 -1.49709E+04
 -1.02110E+04 -2.10917E+04  7.11165E+03 -1.98673E+04  1.70688E+04 -1.09280E+04  1.60879E+04  3.87488E+03
  6.68462E+03  1.14677E+04 -7.64747E+03  1.04503E+04 -1.35866E+04  2.33427E+03 -1.03348E+04 -8.27014E+03
 -2.05051E+02 -1.25761E+04  6.23724E+03 -9.56129E+03  8.11471E+03 -1.16078E+03  1.40622E+03  4.65077E+03
 -5.50730E+03  1.23861E+03 -3.77080E+03 -4.81495E+03  2.93218E+02 -1.01484E+04  7.91286E+03 -1.01672E+04
  1.28963E+04 -4.83271E+03  1.25249E+04  2.67124E+03  1.06670E+04  9.93153E+03  4.62259E+03  1.42771E+04
 -1.84731E+03  1.61804E+04 -9.91892E+03  1.02902E+04 -1.11683E+04  2.72558E+03 -8.53536E+03 -2.04563E+03
 -4.64660E+03 -3.46537E+03 -7.36291E+02  1.69712E+03 -1.86224E+03  1.92697E+03 -3.58639E+03  3.68714E+03
 -8.23769E+03 -2.83572E+02 -8.67646E+03 -7.28052E+03 -3.50994E+03 -1.14857E+04  3.54237E+03 -8.73652E+03
  7.33851E+03 -3.71933E+03  5.22473E+03  2.14427E+03  5.01018E+02  3.13409E+03 -3.71004E+03  6.04556E+01
 -3.23361E+03 -5.06802E+03 -8.11558E+02 -7.32930E+03  4.00385E+03 -7.83624E+03  1.01541E+04 -3.94995E+03
  1.19850E+04  7.38755E+02  8.75796E+03  6.17995E+03  1.70710E+03  9.01614E+03 -5.44410E+03  8.35291E+03
 -6.74746E+03  2.77338E+03 -3.23669E+03 -1.39978E+03  1.37914E+03 -2.00721E+03  4.88005E+03 -1.13427E+03
  4.02188E+03  3.49150E+03  1.33073E+03  6.26309E+03 -4.72140E+03  6.34227E+03 -7.71374E+03  1.72008E+03
 -4.88179E+03 -3.60809E+03  5.15250E+02 -6.78308E+03  3.93237E+03 -3.24325E+03  3.69829E+03  7.07214E+02
  3.10172E+02  3.19895E+03 -3.99727E+03  4.51698E+03 -4.81443E+03  2.28366E+03 -4.55716E+03 -1.38080E+03
 -3.00548E+03 -6.00612E+03  1.09251E+03 -6.91715E+03  6.12622E+03 -4.68072E+03  6.53893E+03  1.12172E+03
  4.54146E+03  5.08155E+03  4.61891E+02  7.14645E+03 -5.03212E+03  4.17615E+03 -5.41214E+03 -4.83004E+02
 -5.54906E+03 -5.21887E+03 -1.49261E+03 -5.09450E+03  2.57010E+03 -4.59899E+03  2.80539E+03 -3.09862E+03
  2.85993E+03  3.44217E+02  5.20984E+01  1.45089E+03  5.18455E+02 -9.64626E+01  3.80602E+02 -1.74640E+03
  3.72364E+03 -7.78650E+02  5.22355E+03  5.91260E+02  5.61151E+03  3.07527E+03  5.25312E+03  7.13600E+03
 -1.27882E+03  8.13419E+03 -7.81672E+03  6.43240E+03 -9.75276E+03  1.04203E+03 -7.88702E+03 -2.51689E+03
 -3.98212E+03 -6.58305E+03 -4.54734E+02 -5.06470E+03  2.01755E+03 -2.24248E+03  1.45351E+03 -2.02729E+03
  1.17688E+03 -1.70879E+03  2.22021E+03 -2.18599E+03  3.22938E+03 -1.30900E+03  3.50917E+03  3.95695E+02
  4.50632E+03  1.28495E+03  8.48627E+02  3.22689E+03 -1.80081E+03  2.79511E+03 -4.59494E+03  2.81784E+03
 -4.77580E+03 -1.14834E+03 -1.97478E+03 -3.17919E+03  3.17309E+02 -4.91110E+03  3.08965E+03 -5.36782E+03
  4.96894E+03 -3.20285E+03  6.66131E+03  6.08337E+01  4.70433E+03  3.69462E+03  1.23156E+03  5.97697E+03
 -2.14163E+03  5.92272E+03 -3.26090E+03  1.82373E+03 -1.79021E+03 -8.42191E+02 -3.98047E+02 -5.42403E+02
 -2.29588E+02  7.68631E+02 -1.13823E+03  2.04225E+03 -2.75009E+03  9.72080E+02 -4.02156E+03 -3.25293E+02
 -1.40670E+03 -3.67879E+03  7.93561E+02 -4.34485E+03  2.71317E+03 -4.06312E+03  3.52030E+03 -1.08231E+03
  3.84302E+03  2.40939E+03  1.67097E+03  3.13689E+03 -9.49711E+02  4.51470E+03 -2.34361E+03  2.52945E+03
 -3.47826E+03  6.37537E+02 -3.13087E+03 -2.42039E+03 -1.08143E+02 -3.18009E+03  1.43199E+03 -2.34647E+03
  2.50216E+03 -1.34904E+03  1.62883E+03  6.20976E+02  5.03541E+02  1.89170E+03  1.06073E+03  3.33881E+02
  1.50841E+03  3.38770E+02  1.36520E+03  9.63969E+02  1.17244E+03  2.17095E+03  1.03394E+03  1.77015E+03
 -9.30722E+02  2.68165E+03 -2.53522E+03  3.88931E+03 -2.66551E+03  1.07092E+03 -3.92200E+03 -1.34508E+02
 -1.55327E+03 -3.57569E+03  6.69132E+02 -4.49397E+03  1.93142E+03 -2.42142E+03  2.78786E+03 -7.45952E+02
  2.47384E+03  1.56260E+03  4.08404E+02  2.02407E+03 -7.10008E+02  1.26477E+03 -7.71451E+02  2.09155E+02
 -4.14652E+02 -1.50278E+03  1.33996E+03 -1.21502E+03  1.22880E+03 -1.00578E+03  1.14466E+03  4.69954E+02
  8.10756E+02  2.68585E+02  8.90038E+02 -3.93167E+02 -3.66794E+02  5.76091E+02  1.73791E+03 -5.99292E+02
  1.81682E+02 -3.21280E+02  1.83618E+03  5.54357E+02 -9.66506E+01  2.28525E+03 -1.74474E+02  2.63513E+03
 -1.47118E+03  8.44552E+02 -1.71352E+03 -3.98077E+01 -1.74785E+03 -4.19927E+02 -6.70417E+00 -7.02877E+02
  5.14614E+02 -1.07513E+03  8.48048E+02 -6.03994E+02  2.41462E+02  1.32583E+03 -7.73653E+02  7.80537E+02
 -1.33316E+03  7.97066E+02 -1.19531E+03 -1.19408E+03 -7.14369E+02 -1.82864E+03 -2.85082E+01 -1.50721E+03
  5.55685E+02 -4.67224E+02  5.41962E+02  2.43826E+02  1.11379E+03 -2.98454E+02  1.87599E+02  9.57899E+02
 -4.68371E+02  8.41449E+01 -9.71979E+02 -2.54092E+02  2.83121E+02 -8.14183E+02  1.21297E+03 -7.83480E+02
  7.81481E+02  1.11485E+02  2.86231E+03  3.99611E+02  7.21115E+02  1.21669E+03 -4.86901E+02  1.53758E+03
 -1.09479E+03  2.03016E+02 -1.23172E+03  3.69889E+01 -5.40513E+02 -1.20455E+03  6.40025E+01 -2.59495E+02
  1.01861E+03 -8.71321E+02  6.84892E+02  5.24597E+02  5.50209E+01  1.10849E+03  1.74923E+02  6.71999E+02
 -3.55106E+02  1.07729E+03 -6.46440E+02  8.95325E+01  1.43292E+02  6.16666E+02 -8.56141E+02  4.94893E+02
 -5.73182E+02  1.05619E+03 -1.65902E+03  5.92403E+02 -1.51646E+03  4.70467E+01 -2.64888E+03 -7.38226E+02
 -1.14989E+03 -1.85336E+03  4.00300E+02 -2.65307E+03  9.35766E+02 -2.12411E+03  2.65834E+03 -8.71267E+02
  2.00244E+03 -1.86607E+02  1.19577E+03  1.21584E+03 -9.82045E+02  1.14238E+03 -4.86672E+02  1.16613E+03
 -8.28829E+02  1.19294E+03 -3.98702E+02 -2.96358E+02 -5.15849E+02  3.23241E+02 -7.40524E+02 -1.30531E+02
 -1.10865E+03 -1.34274E+02 -9.08544E+02 -7.32546E+01  4.89418E+02 -5.66220E+02 -2.01807E+02 -6.92160E+02
  1.17081E+03 -2.81253E+02  1.35584E+02  2.92316E+02  1.02755E+03  9.34845E+02 -3.85516E+02  1.15627E+03
 -7.57107E+02  2.01411E+03 -1.33910E+03  1.20129E+03 -1.41267E+03 -3.39545E+02 -1.29679E+03 -1.06130E+03
 -5.78175E+02 -1.06729E+03  2.29336E+02 -9.30402E+02  4.91084E+02 -5.24396E+02  5.88895E+02  1.06832E+02
  7.64747E+02  3.47340E+02  2.54693E+02  1.59347E+02 -3.53645E+02 -2.56086E+02 -3.35925E+01 -5.20120E+02
  5.73137E+02  2.62124E+02  8.26026E+01  2.86651E+02  6.88549E+01  3.21717E+01  3.34200E+02  3.56671E+01
 -6.02122E+02  2.42020E+02 -1.96388E+02  9.22741E+01 -5.81643E+02 -4.43654E+02  2.84946E+02 -9.16534E+02
  4.79314E+02 -7.39979E+02  6.62451E+02  1.64970E+02  9.94498E+02 -7.36272E+02  2.98319E+02  5.21022E+02
  2.95744E+02  2.74726E+02  6.19344E+01  3.59400E+02 -5.29599E+02  6.46588E+02 -5.36904E+02  8.50945E+01
 -8.85961E+01  1.59918E+02 -2.00957E+02  8.03763E+01 -7.42757E+02  7.39051E+01 -5.22999E+02 -3.99202E+02
 -8.73480E+02  4.06500E+02 -1.75580E+02 -3.71567E+02  2.10096E+02 -1.55340E+03  4.88226E+02 -2.97045E+02
  6.67015E+02 -2.09587E+02 -3.40697E+02 -1.63416E+02  2.79559E+02  5.16104E+02 -4.25078E+02  5.12850E+02
