 $NMID ID='MM_0lb_SNR800_13hz_g60_53.RAW', FMTDAT='(8E13.5)'
 TRAMP=1., VOLUME=1. $END
  3.10126E+05  6.52347E+02  3.37602E+05  2.50656E+05  8.45838E+04  3.38053E+05 -1.32437E+05  2.51810E+05
 -1.90587E+05  8.36186E+04 -1.11870E+05 -3.23470E+04  8.59734E+01 -5.05438E+04  5.39167E+04 -4.39801E+02
  3.57994E+04  5.27604E+04 -1.67656E+04  7.60291E+04 -6.11977E+04  6.42088E+04 -8.48589E+04  3.23959E+04
 -8.18908E+04 -1.16514E+04 -5.77438E+04 -5.19760E+04 -1.50795E+04 -7.05625E+04  2.77284E+04 -4.65109E+04
  4.06339E+04  3.62817E+03  1.65197E+04  4.83687E+04 -3.46726E+04  4.76821E+04 -6.74400E+04 -2.75086E+02
 -5.39281E+04 -5.73645E+04 -6.98661E+03 -7.79090E+04  3.43371E+04 -5.63684E+04  4.90511E+04 -1.77342E+04
  4.45077E+04  1.17243E+04  3.27440E+04  2.56444E+04  1.63355E+04  3.01750E+04 -5.87787E+03  2.79873E+04
 -2.21914E+04  1.22641E+04 -1.83615E+04 -5.14850E+03  6.31824E+03 -7.71302E+03  2.29817E+04  1.29833E+04
  7.43285E+03  3.66768E+04 -3.33228E+04  3.65754E+04 -6.46662E+04  2.30648E+03 -5.78603E+04 -4.33906E+04
 -1.24674E+04 -6.45528E+04  4.07629E+04 -4.63606E+04  5.96971E+04 -2.54345E+03  3.55850E+04  3.35839E+04
 -5.59536E+03  3.77007E+04 -3.09308E+04  1.75826E+04 -3.15371E+04 -3.81830E+03 -1.81040E+04 -1.16576E+04
 -8.82575E+03 -1.44164E+04 -2.95763E+02 -1.90666E+04  8.01097E+03 -2.32561E+04  1.56066E+04 -1.27576E+04
  1.08000E+04  5.74367E+03 -9.60779E+03  1.22712E+04 -2.22651E+04 -5.77175E+03 -9.05282E+03 -3.59313E+04
  2.39495E+04 -4.52575E+04  5.01595E+04 -2.02054E+04  4.68316E+04  2.03464E+04  1.67567E+04  4.59587E+04
 -1.64733E+04  3.51719E+04 -2.68370E+04  2.22303E+03 -1.08703E+04 -2.84579E+04  2.10635E+04 -3.54605E+04
  4.27862E+04 -9.93173E+03  3.80083E+04  2.45469E+04  1.99304E+04  4.89665E+04 -8.14070E+03  5.32467E+04
 -3.36297E+04  3.61464E+04 -4.51137E+04  1.01073E+04 -4.50398E+04 -1.78628E+04 -2.46026E+04 -4.00834E+04
  7.28743E+03 -4.00308E+04  3.30297E+04 -1.57576E+04  3.06409E+04  1.09234E+04  4.50437E+03  2.01785E+04
 -1.38336E+04  8.74107E+03 -1.07347E+04 -7.43001E+03  5.52429E+03 -1.10523E+04  1.86659E+04  6.17583E+03
  1.41049E+04  2.23971E+04 -5.46066E+03  2.59452E+04 -2.31340E+04  1.26551E+04 -2.96017E+04 -4.01794E+03
 -2.30163E+04 -1.77011E+04 -1.03209E+04 -2.24992E+04  4.30203E+03 -2.23395E+04  1.78740E+04 -2.05224E+04
  2.85947E+04 -1.32884E+04  3.55001E+04  3.71358E+03  2.51739E+04  2.19882E+04  4.57363E+03  3.87578E+04
 -1.86920E+04  3.21335E+04 -2.90878E+04  1.12422E+04 -2.16058E+04 -1.02476E+04 -4.28534E+03 -1.33502E+04
  1.03880E+03 -2.29435E+03 -6.13752E+03  7.50841E+03 -1.81618E+04  5.16226E+03 -1.78767E+04 -8.16717E+03
 -1.08098E+04 -2.10168E+04  5.39093E+03 -2.53069E+04  1.65679E+04 -1.80489E+04  2.04267E+04 -1.66033E+03
  1.26719E+04  1.46355E+04 -9.48629E+02  2.09237E+04 -1.48597E+04  1.20835E+04 -2.11050E+04 -4.12616E+03
 -1.52374E+04 -1.86720E+04 -1.90006E+03 -2.49059E+04  1.14728E+04 -2.08420E+04  2.06238E+04 -1.04740E+04
  1.94971E+04 -9.85096E+00  1.43132E+04  4.56226E+03  7.39685E+03  1.12497E+03  1.05693E+04 -1.98672E+03
  1.92721E+04  3.09719E+03  2.20236E+04  1.66420E+04  1.45753E+04  3.35280E+04 -2.95537E+03  3.87435E+04
 -2.23066E+04  3.15929E+04 -3.63877E+04  1.58882E+04 -3.82445E+04 -2.90618E+03 -3.15373E+04 -2.20304E+04
 -1.31203E+04 -3.15564E+04  1.13007E+04 -2.81652E+04  2.45050E+04 -1.39105E+04  2.13853E+04  6.62629E+03
  7.59297E+03  1.61581E+04 -9.88217E+03  1.42365E+04 -1.82666E+04  2.64128E+03 -1.36616E+04 -1.13237E+04
 -1.59088E+02 -1.68850E+04  8.90672E+03 -1.25205E+04  1.17051E+04 -1.04909E+03  2.43563E+03  7.46602E+03
 -7.47490E+03  2.95705E+03 -7.20102E+03 -5.93120E+03 -1.04135E+03 -1.53283E+04  1.03544E+04 -1.64243E+04
  1.93549E+04 -9.11788E+03  2.12730E+04  3.29891E+03  1.90635E+04  1.55236E+04  8.62905E+03  2.38753E+04
 -4.22167E+03  2.56022E+04 -1.64809E+04  1.62379E+04 -1.83786E+04  3.51723E+03 -1.28849E+04 -4.75521E+03
 -5.72747E+03 -5.65943E+03 -7.29180E+02  1.01220E+03 -2.77668E+03  2.80846E+03 -5.97269E+03  5.03047E+03
 -1.20334E+04 -8.23186E+02 -1.27249E+04 -9.90671E+03 -4.77119E+03 -1.65524E+04  5.33543E+03 -1.33445E+04
  1.09063E+04 -5.20326E+03  7.97873E+03  3.54074E+03 -2.41202E+02  5.14671E+03 -6.22847E+03 -3.85501E+02
 -6.16995E+03 -8.09305E+03 -1.23998E+03 -1.25887E+04  7.15703E+03 -1.30817E+04  1.60639E+04 -7.16164E+03
  1.89343E+04  1.63119E+03  1.41940E+04  1.14770E+04  2.71940E+03  1.51944E+04 -7.93535E+03  1.28552E+04
 -1.06123E+04  4.13318E+03 -5.42729E+03 -2.98634E+03  1.83327E+03 -3.47187E+03  7.08551E+03 -1.02819E+03
  6.37167E+03  5.40548E+03  1.52741E+03  1.01443E+04 -7.38060E+03  9.72416E+03 -1.24855E+04  2.46424E+03
 -8.53545E+03 -6.38794E+03  2.46724E+02 -1.08042E+04  6.54244E+03 -5.57128E+03  7.09946E+03  2.53024E+03
  1.95808E+03  7.67208E+03 -6.54039E+03  9.25254E+03 -9.93658E+03  3.96839E+03 -1.03416E+04 -3.64440E+03
 -5.88381E+03 -1.20243E+04  2.92366E+03 -1.38637E+04  1.13968E+04 -8.60491E+03  1.25926E+04  2.20546E+03
  7.79981E+03  1.00373E+04 -9.07144E+02  1.23354E+04 -8.93604E+03  6.79026E+03 -9.59770E+03 -1.27687E+03
 -8.83769E+03 -8.57712E+03 -1.55488E+03 -9.08015E+03  4.81011E+03 -7.35999E+03  5.77442E+03 -3.33081E+03
  3.90315E+03  1.40952E+03 -5.70804E+02  1.76787E+03 -2.71611E+01 -1.74981E+03  1.76808E+03 -5.10643E+03
  8.22830E+03 -3.12198E+03  1.16469E+04  1.43983E+03  1.13770E+04  7.59554E+03  7.62473E+03  1.53099E+04
 -3.13134E+03  1.71745E+04 -1.47907E+04  1.27356E+04 -1.89513E+04  2.23995E+03 -1.51900E+04 -6.29938E+03
 -7.64846E+03 -1.25375E+04 -3.54672E+02 -1.03236E+04  3.85510E+03 -5.82004E+03  3.98822E+03 -3.91596E+03
  2.76880E+03 -2.55012E+03  3.24720E+03 -3.17861E+03  4.67529E+03 -2.32776E+03  6.06788E+03 -6.46298E+02
  7.86171E+03  1.81451E+03  3.80960E+03  6.74830E+03 -1.92074E+03  7.84172E+03 -8.39694E+03  6.01925E+03
 -1.03937E+04 -9.08550E+02 -6.15752E+03 -6.97359E+03 -5.33271E+02 -1.08438E+04  6.05130E+03 -1.07880E+04
  1.12700E+04 -6.34235E+03  1.38453E+04  1.66177E+03  9.54251E+03  9.53777E+03  1.37857E+03  1.22147E+04
 -5.09521E+03  1.04486E+04 -7.44575E+03  3.42623E+03 -4.56736E+03 -1.54043E+03 -1.80282E+03 -1.19950E+03
 -1.03669E+03 -1.51455E+02 -1.43027E+03  2.11638E+03 -3.94178E+03  1.85500E+03 -7.15606E+03 -1.14610E+03
 -4.53970E+03 -7.02632E+03  3.26336E+02 -1.03956E+04  5.91291E+03 -9.05756E+03  9.50866E+03 -2.88711E+03
  1.01049E+04  4.93338E+03  4.80873E+03  8.46946E+03 -1.70523E+03  1.00139E+04 -6.79495E+03  6.23877E+03
 -9.01468E+03  4.00672E+02 -7.28450E+03 -5.65729E+03 -5.81122E+02 -7.94675E+03  4.00150E+03 -5.89236E+03
  6.04083E+03 -2.26251E+03  4.26396E+03  1.82911E+03  1.27156E+03  3.09781E+03  1.09859E+03  1.25957E+03
  2.49190E+03  7.62482E+02  2.26614E+03  1.55403E+03  3.05869E+03  3.79856E+03  2.71102E+03  4.48974E+03
 -1.79138E+03  7.88844E+03 -6.26848E+03  8.25073E+03 -9.17802E+03  1.96645E+03 -9.99759E+03 -3.44797E+03
 -4.65376E+03 -9.33883E+03  1.23857E+03 -1.05897E+04  5.49133E+03 -6.47894E+03  7.71207E+03 -1.72230E+03
  6.43704E+03  3.49555E+03  1.18567E+03  5.74574E+03 -2.30531E+03  3.42861E+03 -3.60658E+03 -3.18176E+02
 -1.73516E+03 -4.06354E+03  2.57343E+03 -4.06449E+03  3.98495E+03 -2.16537E+03  3.71101E+03  9.72168E+02
  2.20971E+03  1.91785E+03  1.20372E+03  9.30543E+02 -6.58437E+02  1.27252E+03  1.90691E+03 -2.30764E+02
  1.40883E+03 -6.90552E+02  4.06646E+03  1.36453E+03  1.91119E+03  5.33337E+03 -7.23985E+02  6.39264E+03
 -4.49838E+03  4.02809E+03 -5.47633E+03  1.12795E+03 -5.13462E+03 -2.07258E+03 -1.62511E+03 -3.62950E+03
  8.14555E+02 -3.65896E+03  2.40345E+03 -1.72689E+03  2.01353E+03  2.14362E+03 -1.05863E+03  3.11159E+03
 -4.07014E+03  2.04025E+03 -3.92544E+03 -2.38647E+03 -2.17127E+03 -5.13174E+03  6.66819E+02 -4.67297E+03
  2.34103E+03 -2.86142E+03  3.27456E+03 -2.47475E+02  2.93620E+03  1.02476E+03  5.70140E+02  2.80259E+03
 -1.62611E+03  5.73702E+02 -2.22530E+03 -1.36134E+03  9.52253E+02 -3.53479E+03  4.68767E+03 -2.67840E+03
  5.21479E+03  3.71160E+02  5.81134E+03  3.25827E+03  1.79315E+03  5.58894E+03 -1.49056E+03  5.44445E+03
 -4.73461E+03  1.98024E+03 -4.99322E+03 -6.96256E+02 -2.57378E+03 -3.74665E+03  8.94426E+02 -3.06079E+03
  3.70212E+03 -1.76043E+03  3.04389E+03  1.60445E+03  8.40586E+02  3.02097E+03 -3.77686E+02  2.62543E+03
 -1.40463E+03  2.49911E+03 -1.26012E+03  5.17412E+02 -5.29064E+02  5.59414E+02 -1.19493E+03  1.30298E+03
 -1.71391E+03  2.04603E+03 -3.88077E+03  2.01480E+03 -4.98998E+03  3.62347E+02 -6.60317E+03 -3.51130E+03
 -3.19077E+03 -7.00725E+03  1.00034E+03 -8.21118E+03  4.76774E+03 -6.59944E+03  7.76560E+03 -2.28291E+03
  7.08910E+03  9.99766E+02  4.50774E+03  4.73662E+03  2.23964E+02  5.49311E+03 -1.86680E+03  3.79285E+03
 -3.10194E+03  1.69337E+03 -1.80242E+03 -4.81482E+02 -9.33575E+02 -3.66270E+02 -1.01299E+03 -8.49191E+01
 -1.47874E+03  2.32096E+02 -1.30174E+03 -3.56054E+02  1.82429E+02 -1.60481E+03 -1.34439E+02 -2.27825E+03
  2.78590E+03 -1.63750E+03  2.56500E+03  3.50796E+02  3.65754E+03  2.81742E+03  4.91590E+02  5.21315E+03
 -2.48352E+03  6.05216E+03 -5.48827E+03  3.48923E+03 -6.23585E+03 -7.17917E+02 -4.80939E+03 -4.01280E+03
 -2.18596E+03 -5.24186E+03  1.10571E+03 -4.72804E+03  3.07219E+03 -2.37050E+03  3.03668E+03  3.65219E+02
  2.28309E+03  1.29336E+03  4.44639E+01  1.08939E+03 -1.33046E+03 -2.14402E+02 -7.20143E+01 -1.06709E+03
  1.69660E+03 -1.59288E+02  1.56061E+03  9.38383E+02  1.23506E+03  1.79093E+03  1.55772E+02  2.48170E+03
 -1.89426E+03  2.41788E+03 -3.07602E+03  7.30088E+00 -2.89300E+03 -2.29390E+03 -2.67726E+02 -4.03180E+03
  2.16353E+03 -2.85528E+03  3.78776E+03 -8.70910E+02  3.63084E+03  2.73466E+02  1.98883E+03  2.99034E+03
  5.60655E+02  2.93574E+03 -1.19576E+03  2.28369E+03 -1.92569E+03  1.21523E+03 -1.79073E+03  5.68281E+01
 -2.92513E+02  1.30457E+01 -9.02442E+02  3.40629E+02 -1.93277E+03  3.39045E+02 -2.47261E+03 -6.49833E+02
 -2.65788E+03 -9.38329E+02 -4.99094E+02 -3.31706E+03  1.72191E+03 -3.80805E+03  2.83696E+03 -1.12348E+03
  2.91850E+03  4.36204E+02  1.27005E+03  2.18501E+03 -2.05900E+02  3.25836E+03 -2.03463E+03  2.21466E+03
