 $NMID ID='MM_0lb_SNR800_18hz_g50_5.RAW', FMTDAT='(8E13.5)'
 TRAMP=1., VOLUME=1. $END
  3.09783E+05  5.22845E+02  3.37518E+05  2.50747E+05  8.45695E+04  3.37530E+05 -1.32499E+05  2.50202E+05
 -1.89817E+05  8.27392E+04 -1.10879E+05 -3.29066E+04  1.03221E+03 -5.02579E+04  5.39884E+04  1.34426E+02
  3.54325E+04  5.28656E+04 -1.71596E+04  7.50434E+04 -6.00909E+04  6.28399E+04 -8.33683E+04  3.17523E+04
 -8.00453E+04 -1.11404E+04 -5.63878E+04 -5.01875E+04 -1.48981E+04 -6.86787E+04  2.70402E+04 -4.50407E+04
  3.90770E+04  4.01339E+03  1.57824E+04  4.75779E+04 -3.42512E+04  4.66570E+04 -6.55553E+04 -3.54165E+02
 -5.23282E+04 -5.62491E+04 -6.46528E+03 -7.56285E+04  3.34069E+04 -5.36184E+04  4.67784E+04 -1.67561E+04
  4.21398E+04  1.10590E+04  3.09677E+04  2.46271E+04  1.57384E+04  2.87216E+04 -4.71523E+03  2.66774E+04
 -2.15772E+04  1.26024E+04 -1.89070E+04 -4.35422E+03  4.33707E+03 -7.62275E+03  2.14012E+04  1.12045E+04
  7.33739E+03  3.37791E+04 -3.08892E+04  3.41375E+04 -6.17691E+04  1.92229E+03 -5.56250E+04 -4.16902E+04
 -1.22660E+04 -6.13125E+04  3.82034E+04 -4.41397E+04  5.60454E+04 -2.13127E+03  3.25060E+04  3.12171E+04
 -6.19126E+03  3.40143E+04 -2.87560E+04  1.41630E+04 -2.81767E+04 -5.20119E+03 -1.49928E+04 -1.03722E+04
 -7.69408E+03 -1.18719E+04 -7.24401E+02 -1.69911E+04  6.76728E+03 -2.24374E+04  1.51247E+04 -1.36208E+04
  1.21179E+04  4.62818E+03 -6.65111E+03  1.32194E+04 -1.95704E+04 -3.08809E+03 -7.77440E+03 -3.08926E+04
  2.14064E+04 -4.11741E+04  4.54374E+04 -1.89446E+04  4.25763E+04  1.84512E+04  1.46677E+04  4.22107E+04
 -1.53663E+04  3.15433E+04 -2.36389E+04  1.18705E+03 -8.40593E+03 -2.66586E+04  2.05923E+04 -3.18078E+04
  3.85732E+04 -7.56886E+03  3.22108E+04  2.29393E+04  1.60907E+04  4.33703E+04 -7.87456E+03  4.62861E+04
 -2.92809E+04  3.05725E+04 -3.85214E+04  8.70730E+03 -3.92747E+04 -1.56400E+04 -2.16522E+04 -3.54475E+04
  6.96273E+03 -3.50247E+04  2.96487E+04 -1.30500E+04  2.74693E+04  1.05932E+04  3.36701E+03  1.81369E+04
 -1.31000E+04  7.46625E+03 -9.65895E+03 -7.39107E+03  6.07100E+03 -1.00485E+04  1.71920E+04  6.12660E+03
  1.26596E+04  2.16210E+04 -6.40399E+03  2.36981E+04 -2.14441E+04  9.68093E+03 -2.56867E+04 -6.10779E+03
 -1.74109E+04 -1.65577E+04 -5.94501E+03 -1.74292E+04  3.88940E+03 -1.57386E+04  1.33389E+04 -1.52057E+04
  2.22243E+04 -1.19165E+04  2.87970E+04  1.21067E+03  2.18099E+04  1.72090E+04  4.10876E+03  3.29404E+04
 -1.64060E+04  2.81390E+04 -2.62930E+04  9.67584E+03 -1.97515E+04 -1.06162E+04 -4.22669E+03 -1.38408E+04
  2.37676E+03 -3.96636E+03 -3.01927E+03  5.83801E+03 -1.36830E+04  5.18682E+03 -1.38994E+04 -5.58941E+03
 -8.90221E+03 -1.61212E+04  4.73325E+03 -1.98090E+04  1.29810E+04 -1.45677E+04  1.54090E+04 -1.67848E+03
  9.38500E+03  1.13950E+04 -9.14290E+02  1.65337E+04 -1.07676E+04  9.17874E+03 -1.59957E+04 -3.58202E+03
 -1.20238E+04 -1.44531E+04 -1.57152E+03 -1.98993E+04  9.04131E+03 -1.58817E+04  1.62979E+04 -7.68325E+03
  1.49492E+04  4.55960E+02  1.08465E+04  4.06698E+03  5.59525E+03  6.09189E+02  7.91892E+03 -1.32768E+03
  1.43205E+04  2.75879E+03  1.56071E+04  1.29893E+04  9.71235E+03  2.56367E+04 -2.88043E+03  2.78171E+04
 -1.65322E+04  2.14337E+04 -2.58016E+04  1.04596E+04 -2.64780E+04 -1.88156E+03 -2.22857E+04 -1.50227E+04
 -1.04661E+04 -2.15414E+04  7.21798E+03 -1.98283E+04  1.72893E+04 -1.09590E+04  1.58976E+04  3.94079E+03
  6.46040E+03  1.14975E+04 -7.27435E+03  1.07964E+04 -1.37661E+04  2.80690E+03 -1.11716E+04 -8.24946E+03
 -3.61187E+01 -1.27854E+04  6.60856E+03 -9.87743E+03  8.19539E+03 -1.09416E+03  1.40688E+03  5.15962E+03
 -5.57835E+03  1.09737E+03 -4.20717E+03 -4.55287E+03  4.16492E+02 -1.06984E+04  8.14728E+03 -1.07476E+04
  1.28518E+04 -5.27565E+03  1.30949E+04  2.64598E+03  1.10899E+04  1.00816E+04  5.31246E+03  1.51741E+04
 -1.91973E+03  1.70455E+04 -1.06096E+04  1.05109E+04 -1.20664E+04  2.81477E+03 -8.59658E+03 -1.92336E+03
 -4.80430E+03 -3.46695E+03 -6.00897E+02  1.54237E+03 -1.96671E+03  2.11093E+03 -3.86794E+03  3.48311E+03
 -8.51500E+03 -3.72782E+02 -8.92185E+03 -7.34163E+03 -3.62524E+03 -1.20775E+04  3.85119E+03 -8.87657E+03
  7.41498E+03 -3.75374E+03  5.44428E+03  2.15448E+03  7.58694E+02  3.33756E+03 -3.49508E+03 -8.58780E+00
 -3.74748E+03 -5.48996E+03 -7.82951E+02 -7.72883E+03  4.26647E+03 -8.39039E+03  1.06269E+04 -4.29799E+03
  1.23537E+04  9.49428E+02  9.06896E+03  6.88870E+03  1.84624E+03  9.39456E+03 -5.22766E+03  8.73604E+03
 -7.21137E+03  2.99384E+03 -3.77896E+03 -1.35453E+03  1.34019E+03 -2.10286E+03  4.74671E+03 -1.07374E+03
  4.33731E+03  3.71747E+03  1.34982E+03  6.52394E+03 -4.72772E+03  6.61531E+03 -8.52974E+03  1.69612E+03
 -5.26340E+03 -3.76069E+03  4.20690E+02 -7.11678E+03  3.87565E+03 -3.43060E+03  3.93608E+03  1.28622E+03
  4.50750E+02  3.76050E+03 -4.09703E+03  5.02852E+03 -5.27149E+03  2.44009E+03 -5.00320E+03 -1.09461E+03
 -3.03836E+03 -6.52371E+03  1.51141E+03 -7.44873E+03  6.55848E+03 -4.72949E+03  6.81584E+03  1.06069E+03
  4.46802E+03  5.80103E+03 -4.55534E+01  7.71532E+03 -5.35060E+03  4.34812E+03 -5.59386E+03 -5.26295E+02
 -6.06832E+03 -5.05470E+03 -1.46003E+03 -5.44558E+03  2.50743E+03 -4.86151E+03  2.77754E+03 -2.84588E+03
  3.09959E+03  1.22115E+02  3.09397E+02  1.43234E+03  5.74413E+02 -4.00835E+02  1.29408E+02 -2.17359E+03
  4.26068E+03 -8.70774E+02  5.58770E+03  7.02612E+02  5.90060E+03  3.38091E+03  5.33012E+03  7.56600E+03
 -1.54979E+03  9.08431E+03 -8.39276E+03  7.17845E+03 -1.05271E+04  1.19453E+03 -8.28177E+03 -2.83116E+03
 -4.59352E+03 -7.00182E+03 -1.19138E+02 -5.73539E+03  2.08360E+03 -2.29249E+03  2.01254E+03 -2.18897E+03
  1.50745E+03 -1.60896E+03  2.31189E+03 -2.33147E+03  3.53374E+03 -1.51757E+03  3.50676E+03  4.81271E+02
  4.70436E+03  1.11621E+03  1.36289E+03  3.48450E+03 -1.62470E+03  3.45258E+03 -4.59141E+03  2.82523E+03
 -5.63471E+03 -1.02187E+03 -2.35340E+03 -3.74253E+03  3.18235E+02 -5.36119E+03  3.47122E+03 -5.69201E+03
  5.46408E+03 -3.56163E+03  7.14885E+03  4.79536E+02  5.24239E+03  4.59153E+03  1.05796E+03  6.66343E+03
 -2.19120E+03  6.42960E+03 -3.44165E+03  1.94512E+03 -2.16731E+03 -8.53573E+02 -6.07802E+02 -3.45067E+02
 -7.40648E+02  5.34015E+02 -9.97268E+02  1.93125E+03 -2.80253E+03  1.16590E+03 -4.32454E+03 -3.22815E+02
 -1.75755E+03 -4.09726E+03  9.98763E+02 -4.79159E+03  2.94625E+03 -4.67428E+03  3.98771E+03 -1.01899E+03
  4.22053E+03  2.47458E+03  2.15776E+03  3.60664E+03 -7.41661E+02  4.81018E+03 -3.15563E+03  2.90493E+03
 -4.26869E+03  5.58030E+02 -3.64502E+03 -2.56860E+03 -8.68015E+01 -3.29071E+03  1.86950E+03 -2.68435E+03
  2.78604E+03 -1.55002E+03  2.18396E+03  5.92458E+02  3.05244E+02  1.85458E+03  9.83071E+02  6.06360E+02
  1.96908E+03  3.33395E+02  1.22195E+03  9.12476E+02  1.21336E+03  2.39349E+03  1.61454E+03  1.76749E+03
 -1.45256E+03  2.97812E+03 -2.64425E+03  4.36863E+03 -3.23248E+03  1.10509E+03 -4.47436E+03 -7.60619E+02
 -1.48566E+03 -3.93472E+03  6.97309E+02 -5.10769E+03  2.14586E+03 -2.56345E+03  3.35109E+03 -9.69723E+02
  2.64599E+03  1.52308E+03  4.06909E+02  2.42689E+03 -1.02470E+03  1.41066E+03 -9.08639E+02 -9.29767E-01
 -7.19130E+02 -1.77445E+03  1.00463E+03 -1.62567E+03  1.40542E+03 -1.27291E+03  1.42588E+03  3.45795E+02
  7.46652E+02  3.44978E+02  6.29082E+02 -1.82264E+02 -1.95104E+02  7.94706E+02  1.43297E+03  1.28717E+01
 -1.75970E+01 -7.53302E+01  1.94259E+03  4.35374E+02  2.35966E+02  2.84020E+03 -6.59206E+02  3.04688E+03
 -1.64933E+03  1.18301E+03 -2.39623E+03  5.50431E+02 -2.05634E+03 -7.46774E+02 -1.25818E+02 -1.19079E+03
  5.22855E+02 -1.24605E+03  1.07520E+03 -6.36600E+02  8.88933E+02  1.30645E+03 -7.87493E+02  1.09622E+03
 -1.57887E+03  8.85927E+02 -1.55795E+03 -1.33105E+03 -7.55082E+02 -2.21333E+03  2.39400E+02 -1.67745E+03
  7.31179E+02 -7.64168E+02  9.05357E+02 -1.37149E+00  1.36163E+03 -4.14775E+01  3.23986E+02  1.08897E+03
 -4.44098E+02  1.38990E+02 -1.07723E+03 -2.49805E+02  5.18789E+02 -1.08695E+03  1.43945E+03 -1.21105E+03
  1.31164E+03  5.24255E+02  2.77805E+03  7.60486E+02  1.16287E+03  1.98591E+03 -3.32303E+02  1.87270E+03
 -1.49151E+03  6.86091E+02 -1.60201E+03  5.44142E+01 -9.85657E+02 -1.43505E+03  6.45654E+02 -6.16516E+02
  1.70480E+03 -6.07048E+02  1.05744E+03  5.20403E+02  5.94379E+01  1.48970E+03  5.49340E+02  1.35649E+03
 -6.20987E+02  8.61833E+02 -5.09535E+02  1.30400E+01  1.16483E+02  2.32210E+02 -7.99698E+02  5.19335E+02
 -7.09876E+02  1.14494E+03 -2.10846E+03  4.97143E+02 -1.95014E+03  2.57990E+01 -2.38896E+03 -1.10294E+03
 -1.30107E+03 -2.64014E+03  4.50027E+02 -3.09073E+03  1.08868E+03 -2.62840E+03  2.75455E+03 -9.89978E+02
  2.42874E+03  9.42878E+01  1.28318E+03  1.59261E+03 -4.84566E+02  1.45838E+03 -7.68166E+02  1.48851E+03
 -9.39395E+02  8.91090E+02 -6.94697E+02  1.91438E+02 -5.87565E+02 -5.35557E+01 -5.82571E+02 -6.33918E+01
 -1.13030E+03 -1.68957E+02 -1.09827E+03 -5.36826E+01  3.53337E+02 -9.33538E+02 -3.20428E+02 -8.95320E+02
  1.40578E+03 -6.65100E+02  6.26368E+02  1.02195E+02  9.51105E+02  1.01559E+03 -5.99389E+02  1.75834E+03
 -1.08383E+03  2.38476E+03 -1.83470E+03  1.63260E+03 -2.00002E+03  3.80680E+01 -1.40462E+03 -1.06681E+03
 -1.06089E+03 -1.51907E+03  6.61104E+01 -1.35684E+03  6.77941E+02 -7.26304E+02  9.81679E+02  2.63665E+02
  5.75751E+02  4.32068E+02 -7.64051E+01  5.77460E+02 -3.39735E+02  1.65030E+02 -9.66767E+01  5.73971E+01
  4.79714E+02  3.85330E+02  2.84754E+02  5.15861E+02  2.06722E+01  1.82764E+02  3.27878E+02  2.85428E+02
 -7.98815E+02  3.89254E+02 -5.45266E+02  1.95534E+02 -9.89171E+02 -6.25529E+02 -1.47026E+02 -1.20623E+03
  6.68981E+02 -7.99422E+02  8.19503E+02 -1.91493E+02  9.75136E+02 -2.66709E+02  3.22571E+02  1.01588E+03
  3.57306E+02  6.32116E+02 -2.03015E+02  6.69155E+02 -4.59910E+02  4.59579E+02 -4.95849E+02  1.10394E+02
  1.38297E+02  1.55637E+02 -4.97881E+02  1.53328E+02 -7.97165E+02 -4.43972E+01 -7.69874E+02 -1.70352E+02
 -9.31132E+02  3.04683E+02 -3.26618E+02 -1.02320E+03  7.64759E+02 -1.51629E+03  9.06729E+02 -2.38152E+02
  9.43689E+02  2.62407E+02 -2.79081E+02  3.35402E+02 -4.56574E+01  8.50578E+02 -4.90551E+02  9.68359E+02
