 $NMID ID='MM_0lb_SNR800_14hz_g60_78.RAW', FMTDAT='(8E13.5)'
 TRAMP=1., VOLUME=1. $END
  3.09844E+05  7.57797E+02  3.37514E+05  2.50614E+05  8.49655E+04  3.38310E+05 -1.32535E+05  2.51503E+05
 -1.90578E+05  8.30104E+04 -1.12313E+05 -3.27936E+04  1.06117E+03 -5.08595E+04  5.35825E+04 -1.80041E+02
  3.52782E+04  5.31215E+04 -1.66436E+04  7.56431E+04 -6.10364E+04  6.41305E+04 -8.46272E+04  3.20386E+04
 -8.17656E+04 -1.17049E+04 -5.73079E+04 -5.17422E+04 -1.49217E+04 -7.02376E+04  2.75555E+04 -4.59940E+04
  4.01899E+04  3.76814E+03  1.64993E+04  4.80631E+04 -3.43278E+04  4.73807E+04 -6.71723E+04 -4.01901E+00
 -5.41408E+04 -5.73563E+04 -6.97015E+03 -7.78564E+04  3.41261E+04 -5.58714E+04  4.89399E+04 -1.77910E+04
  4.42978E+04  1.12600E+04  3.22868E+04  2.58911E+04  1.58689E+04  2.97239E+04 -5.52535E+03  2.79076E+04
 -2.21761E+04  1.24412E+04 -1.82807E+04 -5.03006E+03  6.02381E+03 -7.31156E+03  2.27792E+04  1.31073E+04
  7.52711E+03  3.59780E+04 -3.28058E+04  3.60568E+04 -6.42911E+04  2.13224E+03 -5.79643E+04 -4.37077E+04
 -1.25443E+04 -6.41142E+04  4.03459E+04 -4.61705E+04  5.94428E+04 -2.10874E+03  3.52907E+04  3.32311E+04
 -5.98171E+03  3.72493E+04 -3.08254E+04  1.72669E+04 -3.14055E+04 -4.06529E+03 -1.79437E+04 -1.12552E+04
 -8.95578E+03 -1.42043E+04 -6.91870E+02 -1.88901E+04  7.79235E+03 -2.35150E+04  1.54490E+04 -1.30639E+04
  1.07752E+04  5.85750E+03 -8.81555E+03  1.28491E+04 -2.21694E+04 -5.54901E+03 -8.48518E+03 -3.49494E+04
  2.37215E+04 -4.48087E+04  4.95759E+04 -2.00651E+04  4.63983E+04  1.99102E+04  1.64088E+04  4.50181E+04
 -1.62593E+04  3.43893E+04 -2.60595E+04  2.25573E+03 -1.04616E+04 -2.86716E+04  2.11795E+04 -3.50982E+04
  4.24739E+04 -9.72057E+03  3.72847E+04  2.43238E+04  1.90528E+04  4.80374E+04 -7.78933E+03  5.20453E+04
 -3.29529E+04  3.53233E+04 -4.38712E+04  1.00834E+04 -4.45992E+04 -1.71314E+04 -2.42434E+04 -3.95256E+04
  7.58331E+03 -3.91855E+04  3.23637E+04 -1.53913E+04  3.00908E+04  1.09934E+04  4.26672E+03  1.95723E+04
 -1.33423E+04  8.82504E+03 -1.08611E+04 -7.72410E+03  5.81138E+03 -1.04805E+04  1.83058E+04  5.70177E+03
  1.39381E+04  2.24126E+04 -5.40414E+03  2.56625E+04 -2.25740E+04  1.26779E+04 -2.90804E+04 -4.56209E+03
 -2.17920E+04 -1.77785E+04 -9.31224E+03 -2.20177E+04  4.30839E+03 -2.14474E+04  1.69335E+04 -2.00374E+04
  2.79799E+04 -1.35213E+04  3.38957E+04  3.52235E+03  2.50270E+04  2.12539E+04  4.30290E+03  3.77529E+04
 -1.85095E+04  3.16401E+04 -2.89133E+04  1.08716E+04 -2.14482E+04 -1.04297E+04 -4.46568E+03 -1.30850E+04
  1.56790E+03 -2.18233E+03 -5.69517E+03  7.18250E+03 -1.74054E+04  4.88978E+03 -1.78447E+04 -7.55295E+03
 -1.07126E+04 -1.99972E+04  5.32752E+03 -2.46038E+04  1.62172E+04 -1.72889E+04  1.94354E+04 -1.53170E+03
  1.23178E+04  1.37494E+04 -1.27717E+03  1.99929E+04 -1.38800E+04  1.17992E+04 -2.01431E+04 -4.32547E+03
 -1.50223E+04 -1.79624E+04 -1.80974E+03 -2.41170E+04  1.11776E+04 -2.01165E+04  2.02411E+04 -1.02353E+04
  1.87618E+04  8.89957E+01  1.36484E+04  4.45883E+03  7.39543E+03  8.51060E+02  1.02809E+04 -1.60951E+03
  1.86724E+04  2.99710E+03  2.09459E+04  1.58050E+04  1.39235E+04  3.22538E+04 -2.98538E+03  3.66411E+04
 -2.13720E+04  2.94903E+04 -3.41361E+04  1.49451E+04 -3.63995E+04 -2.59403E+03 -2.96122E+04 -2.09672E+04
 -1.26026E+04 -2.95860E+04  1.03489E+04 -2.69287E+04  2.30119E+04 -1.32769E+04  2.01523E+04  6.03223E+03
  7.21397E+03  1.53161E+04 -9.83511E+03  1.34525E+04 -1.69915E+04  2.65219E+03 -1.34217E+04 -1.06131E+04
 -6.77957E+01 -1.63023E+04  8.59357E+03 -1.21514E+04  1.09113E+04 -1.32210E+03  2.95023E+03  6.91708E+03
 -7.45516E+03  2.81141E+03 -6.64516E+03 -6.10577E+03 -7.13377E+02 -1.46924E+04  1.02570E+04 -1.56213E+04
  1.80206E+04 -8.21663E+03  1.95908E+04  3.21428E+03  1.72172E+04  1.44514E+04  8.00814E+03  2.21530E+04
 -3.48153E+03  2.41341E+04 -1.53689E+04  1.48633E+04 -1.73758E+04  3.31335E+03 -1.22025E+04 -3.88733E+03
 -5.62932E+03 -5.44424E+03 -6.76524E+02  8.70330E+02 -2.65479E+03  2.57476E+03 -5.79209E+03  4.72323E+03
 -1.14108E+04 -9.30194E+02 -1.19759E+04 -9.81395E+03 -4.83234E+03 -1.58410E+04  4.92002E+03 -1.25388E+04
  9.97688E+03 -5.11931E+03  7.05473E+03  2.94761E+03  1.94116E+02  4.34138E+03 -5.68343E+03 -4.72886E+02
 -5.67341E+03 -7.51545E+03 -8.99264E+02 -1.16905E+04  6.70125E+03 -1.23003E+04  1.47819E+04 -6.27557E+03
  1.80098E+04  1.13912E+03  1.28262E+04  1.03613E+04  2.11998E+03  1.42942E+04 -7.32336E+03  1.18734E+04
 -1.00269E+04  3.55320E+03 -4.86207E+03 -2.22478E+03  1.62746E+03 -3.30339E+03  6.58021E+03 -1.26588E+03
  5.69104E+03  5.28090E+03  1.09602E+03  9.39574E+03 -6.57947E+03  8.99095E+03 -1.16914E+04  2.29695E+03
 -7.94712E+03 -6.29931E+03  1.79221E+02 -9.92756E+03  6.54806E+03 -5.08670E+03  6.21598E+03  2.27786E+03
  1.27751E+03  6.65912E+03 -6.28246E+03  7.79732E+03 -9.10841E+03  3.88137E+03 -9.35929E+03 -3.24775E+03
 -5.30447E+03 -1.08359E+04  2.63924E+03 -1.23346E+04  1.05885E+04 -7.57055E+03  1.13839E+04  1.92881E+03
  7.40533E+03  9.16664E+03 -6.95340E+02  1.12527E+04 -8.13006E+03  6.24251E+03 -8.66030E+03 -8.10211E+02
 -8.33763E+03 -7.51203E+03 -1.32900E+03 -8.18843E+03  4.21280E+03 -7.17743E+03  5.40462E+03 -3.38346E+03
  3.68480E+03  1.27703E+03 -1.20090E+02  1.85171E+03 -6.43933E+01 -1.94221E+03  1.38769E+03 -4.55975E+03
  7.30198E+03 -2.46938E+03  1.06146E+04  1.36432E+03  1.00459E+04  6.64557E+03  7.89600E+03  1.35485E+04
 -3.22342E+03  1.54268E+04 -1.31632E+04  1.19148E+04 -1.71257E+04  2.63152E+03 -1.38197E+04 -5.65814E+03
 -7.05396E+03 -1.11888E+04 -2.31027E+02 -9.67258E+03  3.57014E+03 -5.13659E+03  3.38120E+03 -3.52040E+03
  2.51726E+03 -2.26308E+03  3.16945E+03 -2.96205E+03  4.45405E+03 -2.35940E+03  5.20866E+03 -5.74573E+02
  7.14610E+03  1.86524E+03  3.01409E+03  6.06819E+03 -1.86389E+03  6.77830E+03 -7.35604E+03  5.27026E+03
 -8.97202E+03 -1.57057E+03 -4.98299E+03 -6.27825E+03 -5.86485E+02 -9.56059E+03  5.74983E+03 -9.55553E+03
  9.71945E+03 -5.48224E+03  1.23214E+04  1.20944E+03  8.55621E+03  8.25007E+03  1.55121E+03  1.11883E+04
 -4.14160E+03  9.45179E+03 -6.27144E+03  3.47013E+03 -3.97559E+03 -1.61281E+03 -1.87511E+03 -1.18751E+03
 -1.10838E+03  2.37925E+02 -1.69656E+03  2.43340E+03 -4.15688E+03  1.74550E+03 -6.61963E+03 -8.18508E+02
 -3.99550E+03 -6.51252E+03  4.97047E+02 -8.58422E+03  5.35633E+03 -8.32183E+03  8.37436E+03 -2.59933E+03
  8.30368E+03  4.22122E+03  3.76007E+03  7.36165E+03 -1.75712E+03  8.54958E+03 -6.08233E+03  5.27798E+03
 -7.90039E+03  5.08439E+02 -6.02131E+03 -5.19647E+03 -6.22784E+02 -6.77822E+03  3.44217E+03 -5.31212E+03
  5.30072E+03 -1.98880E+03  3.83810E+03  1.43596E+03  8.86179E+02  2.62959E+03  8.15236E+02  1.25157E+03
  1.86802E+03  8.34427E+02  2.24962E+03  1.49276E+03  2.17940E+03  3.75252E+03  2.23179E+03  4.25505E+03
 -2.10328E+03  6.54646E+03 -5.39433E+03  7.30947E+03 -7.76687E+03  2.02845E+03 -8.89285E+03 -2.91950E+03
 -3.87202E+03 -8.05479E+03  1.22898E+03 -9.40824E+03  4.89034E+03 -5.60525E+03  6.70781E+03 -1.64589E+03
  5.22038E+03  3.08599E+03  1.29012E+03  4.79991E+03 -1.96001E+03  3.08154E+03 -2.80392E+03 -1.35806E+02
 -1.46513E+03 -3.19418E+03  1.77212E+03 -3.63210E+03  3.29674E+03 -1.96583E+03  2.96244E+03  6.79287E+02
  1.90396E+03  1.41228E+03  8.92397E+02  9.98310E+02 -6.42019E+02  9.61999E+02  1.44882E+03 -4.41843E+02
  9.79067E+02 -6.60611E+01  3.38528E+03  1.46330E+03  8.53555E+02  4.74069E+03 -7.00811E+02  5.39196E+03
 -3.40634E+03  3.17022E+03 -4.73325E+03  1.11074E+03 -4.48218E+03 -1.80340E+03 -1.11432E+03 -2.83605E+03
  5.94125E+02 -2.76011E+03  2.03776E+03 -1.28541E+03  1.43259E+03  1.74193E+03 -1.07983E+03  2.54197E+03
 -3.08963E+03  1.37590E+03 -3.42909E+03 -2.34917E+03 -1.98654E+03 -4.68843E+03  4.91157E+02 -3.80514E+03
  1.89343E+03 -2.09987E+03  2.52275E+03  6.84024E+01  2.78410E+03  6.28163E+02  1.97798E+02  2.23594E+03
 -1.09128E+03  7.64127E+02 -1.82071E+03 -1.24873E+03  8.78881E+02 -2.71912E+03  3.57610E+03 -2.24125E+03
  4.29060E+03 -1.49061E+02  4.93042E+03  2.70671E+03  1.47994E+03  4.34829E+03 -1.42112E+03  4.23820E+03
 -3.41332E+03  1.39070E+03 -4.03654E+03 -7.30696E+02 -2.09090E+03 -2.99254E+03  5.46031E+02 -2.53503E+03
  2.95138E+03 -1.63936E+03  2.31870E+03  1.36526E+03  9.78092E+02  2.56001E+03 -1.40641E+02  2.34932E+03
 -1.02238E+03  1.57556E+03 -1.25892E+03  4.37868E+02 -3.14937E+02  7.10015E+02 -1.07951E+03  1.19632E+03
 -1.20734E+03  1.66502E+03 -3.47738E+03  1.56607E+03 -4.36252E+03  1.13360E+02 -5.31042E+03 -2.90122E+03
 -2.49618E+03 -5.64907E+03  1.04186E+03 -6.93119E+03  3.85789E+03 -5.33668E+03  6.58391E+03 -1.83179E+03
  5.96916E+03  1.06986E+03  3.30339E+03  3.82873E+03 -7.89988E+01  4.41341E+03 -1.64260E+03  3.31967E+03
 -2.34532E+03  1.50709E+03 -1.57332E+03 -9.73273E+01 -5.62462E+02 -1.09967E+02 -7.14526E+02  2.84585E+02
 -1.20451E+03 -1.34651E+01 -1.58625E+03 -3.77516E+02 -1.31973E+02 -1.21777E+03 -3.86909E+02 -1.83754E+03
  2.08506E+03 -1.30818E+03  2.24134E+03  1.70094E+02  2.87446E+03  2.64044E+03  4.92725E+02  3.93220E+03
 -2.30443E+03  5.08986E+03 -4.33346E+03  2.91927E+03 -5.11026E+03 -2.49998E+02 -3.78272E+03 -3.11542E+03
 -1.81630E+03 -4.23633E+03  9.10263E+02 -3.56370E+03  2.23403E+03 -1.82281E+03  2.44628E+03  1.96302E+02
  1.55154E+03  9.99942E+02 -1.94909E+02  9.34337E+02 -6.98657E+02 -3.84390E+02 -2.35809E+02 -1.05712E+03
  1.60882E+03 -2.19660E+02  1.63683E+03  6.88520E+02  7.71377E+02  1.43940E+03  3.43945E+02  1.94115E+03
 -1.56992E+03  1.61219E+03 -2.33527E+03 -6.51103E+01 -2.31171E+03 -1.63647E+03  8.96540E+01 -3.30827E+03
  1.68545E+03 -2.55988E+03  2.74697E+03 -6.34305E+02  2.29142E+03  1.53886E+02  1.27129E+03  2.33362E+03
  6.72809E+02  2.33640E+03 -8.13450E+02  1.92117E+03 -1.37597E+03  8.65871E+02 -9.62759E+02  1.05914E+02
 -4.06398E+02 -2.36244E+02 -8.25249E+02  2.84076E+02 -1.17781E+03  3.73531E+02 -1.92303E+03 -2.81702E+02
 -1.88208E+03 -5.83525E+02 -6.58885E+02 -2.44960E+03  1.58262E+03 -3.22314E+03  2.12450E+03 -1.05797E+03
  2.50961E+03  1.97535E+02  7.20263E+02  1.70830E+03 -1.57999E+02  2.49219E+03 -1.59584E+03  1.67261E+03
