 $NMID ID='MM_0lb_SNR800_7hz_g60_96.RAW', FMTDAT='(8E13.5)'
 TRAMP=1., VOLUME=1. $END
  3.09777E+05  3.93660E+02  3.38345E+05  2.50677E+05  8.49582E+04  3.38534E+05 -1.33122E+05  2.52391E+05
 -1.91266E+05  8.40782E+04 -1.12939E+05 -3.22267E+04 -8.41433E+01 -5.10461E+04  5.39200E+04 -7.51926E+02
  3.53188E+04  5.28418E+04 -1.68745E+04  7.65672E+04 -6.13970E+04  6.47767E+04 -8.63846E+04  3.32063E+04
 -8.30250E+04 -1.15970E+04 -5.85867E+04 -5.31300E+04 -1.53140E+04 -7.19376E+04  2.86354E+04 -4.71696E+04
  4.17525E+04  3.34155E+03  1.68706E+04  4.93192E+04 -3.54183E+04  4.89478E+04 -6.92160E+04  1.55455E+02
 -5.57755E+04 -5.80964E+04 -7.98565E+03 -8.01465E+04  3.56453E+04 -5.84882E+04  5.05248E+04 -1.90334E+04
  4.58934E+04  1.15880E+04  3.32302E+04  2.72659E+04  1.61698E+04  3.16633E+04 -6.38342E+03  2.80836E+04
 -2.30706E+04  1.19664E+04 -1.72840E+04 -6.11263E+03  8.16321E+03 -7.26661E+03  2.41341E+04  1.45853E+04
  7.28224E+03  3.88512E+04 -3.48969E+04  3.77237E+04 -6.75140E+04  2.36629E+03 -6.02335E+04 -4.56523E+04
 -1.28014E+04 -6.76440E+04  4.26642E+04 -4.86116E+04  6.30724E+04 -2.78753E+03  3.85288E+04  3.55913E+04
 -5.10659E+03  4.15802E+04 -3.28212E+04  2.07590E+04 -3.50620E+04 -2.88773E+03 -2.13210E+04 -1.24747E+04
 -1.01724E+04 -1.61675E+04 -2.40912E+02 -1.99749E+04  9.04496E+03 -2.28382E+04  1.60362E+04 -1.21644E+04
  9.97057E+03  6.80811E+03 -1.22489E+04  1.28853E+04 -2.42279E+04 -7.31197E+03 -8.50484E+03 -3.94616E+04
  2.69561E+04 -4.88638E+04  5.45021E+04 -2.15554E+04  5.05341E+04  2.15047E+04  1.84874E+04  4.89444E+04
 -1.72254E+04  3.71619E+04 -2.86845E+04  3.57297E+03 -1.25579E+04 -3.05154E+04  2.17818E+04 -3.87184E+04
  4.66878E+04 -1.22999E+04  4.31887E+04  2.56246E+04  2.32479E+04  5.35264E+04 -8.55376E+03  5.92849E+04
 -3.80160E+04  4.11387E+04 -5.05869E+04  1.22813E+04 -5.07600E+04 -1.96453E+04 -2.76755E+04 -4.48366E+04
  8.02547E+03 -4.44970E+04  3.57358E+04 -1.84288E+04  3.36191E+04  1.13892E+04  6.30996E+03  2.21017E+04
 -1.43378E+04  1.09746E+04 -1.14279E+04 -7.93825E+03  6.15834E+03 -1.16060E+04  1.91204E+04  5.00712E+03
  1.55966E+04  2.27639E+04 -4.54834E+03  2.82947E+04 -2.38432E+04  1.60543E+04 -3.35727E+04 -1.61269E+03
 -2.82482E+04 -1.92285E+04 -1.32699E+04 -2.77243E+04  4.84871E+03 -2.93333E+04  2.24816E+04 -2.58303E+04
  3.59362E+04 -1.52060E+04  4.14810E+04  6.38573E+03  2.91977E+04  2.69849E+04  4.52476E+03  4.43791E+04
 -2.11455E+04  3.61268E+04 -3.24107E+04  1.28442E+04 -2.34328E+04 -1.04430E+04 -5.10281E+03 -1.23062E+04
  3.41964E+02 -2.18845E+02 -9.35606E+03  9.12783E+03 -2.31972E+04  4.97054E+03 -2.32363E+04 -1.11405E+04
 -1.33471E+04 -2.60513E+04  6.34139E+03 -3.04967E+04  2.03874E+04 -2.15188E+04  2.56430E+04 -1.82987E+03
  1.64905E+04  1.79088E+04 -2.03113E+03  2.57241E+04 -1.89091E+04  1.49958E+04 -2.64867E+04 -5.45611E+03
 -1.90382E+04 -2.35217E+04 -2.22188E+03 -3.15855E+04  1.41471E+04 -2.61489E+04  2.49785E+04 -1.35057E+04
  2.42350E+04 -4.54913E+02  1.76963E+04  5.82452E+03  9.99841E+03  1.61402E+03  1.36075E+04 -2.13670E+03
  2.52233E+04  3.01417E+03  2.97239E+04  1.99858E+04  2.03759E+04  4.26544E+04 -2.58808E+03  5.00655E+04
 -2.89604E+04  4.30945E+04 -4.83234E+04  2.27267E+04 -5.21540E+04 -3.37906E+03 -4.16467E+04 -3.10854E+04
 -1.64922E+04 -4.29574E+04  1.55082E+04 -3.79309E+04  3.17936E+04 -1.71418E+04  2.76180E+04  9.21531E+03
  8.73940E+03  2.15566E+04 -1.28936E+04  1.74543E+04 -2.20022E+04  2.32448E+03 -1.73820E+04 -1.44896E+04
 -7.21209E+02 -2.17567E+04  1.20208E+04 -1.60521E+04  1.59549E+04 -1.37830E+03  4.34695E+03  1.01138E+04
 -9.62194E+03  4.95976E+03 -1.17854E+04 -7.66159E+03 -3.17458E+03 -2.08914E+04  1.33663E+04 -2.36439E+04
  2.70946E+04 -1.38812E+04  3.20149E+04  3.18330E+03  2.76878E+04  2.19261E+04  1.27534E+04  3.49536E+04
 -7.15433E+03  3.72408E+04 -2.44869E+04  2.27885E+04 -2.72194E+04  4.19869E+03 -1.82579E+04 -7.44922E+03
 -6.99627E+03 -8.89936E+03 -1.20879E+03  2.32325E+02 -3.16397E+03  4.55292E+03 -8.55970E+03  6.08658E+03
 -1.63945E+04 -1.55554E+03 -1.70845E+04 -1.33939E+04 -6.91862E+03 -2.26838E+04  7.77435E+03 -1.85786E+04
  1.52573E+04 -7.33633E+03  1.07060E+04  5.04346E+03 -6.50029E+02  7.40340E+03 -9.85945E+03  2.95666E+01
 -9.42069E+03 -1.20465E+04 -1.47808E+03 -1.93513E+04  1.09909E+04 -1.96194E+04  2.43603E+04 -1.05898E+04
  2.86043E+04  3.12978E+03  2.09515E+04  1.76053E+04  4.16776E+03  2.33789E+04 -1.18429E+04  1.86522E+04
 -1.45650E+04  4.82090E+03 -7.57701E+03 -4.24295E+03  2.48395E+03 -5.33457E+03  9.94542E+03 -1.14171E+03
  8.92547E+03  8.58310E+03  1.52144E+03  1.53867E+04 -1.10107E+04  1.50564E+04 -1.87495E+04  3.26003E+03
 -1.34929E+04 -9.82051E+03  5.70442E+02 -1.56466E+04  1.05508E+04 -8.26585E+03  1.18599E+04  3.98148E+03
  2.98686E+03  1.29415E+04 -9.86630E+03  1.45711E+04 -1.74541E+04  5.90464E+03 -1.78102E+04 -6.57649E+03
 -1.04931E+04 -2.00274E+04  5.78018E+03 -2.23556E+04  1.89117E+04 -1.38225E+04  2.12938E+04  4.05832E+03
  1.30591E+04  1.70526E+04 -2.21657E+03  1.94558E+04 -1.41734E+04  1.08913E+04 -1.57175E+04 -2.11169E+03
 -1.28473E+04 -1.25946E+04 -1.79006E+03 -1.51869E+04  8.19022E+03 -1.18641E+04  9.97055E+03 -3.79616E+03
  5.34967E+03  3.11535E+03 -1.22790E+03  2.37952E+03 -1.34991E+03 -4.97723E+03  3.83271E+03 -9.87836E+03
  1.45547E+04 -6.95550E+03  2.13100E+04  2.03178E+03  2.01642E+04  1.49780E+04  1.24625E+04  2.72030E+04
 -7.07097E+03  3.03337E+04 -2.52704E+04  2.26532E+04 -3.28921E+04  4.56209E+03 -2.66158E+04 -1.18572E+04
 -1.33632E+04 -2.16776E+04 -4.70001E+02 -1.92013E+04  6.62664E+03 -1.13057E+04  6.88243E+03 -7.15237E+03
  5.29234E+03 -3.81781E+03  4.79719E+03 -4.44797E+03  7.04734E+03 -5.00570E+03  1.01704E+04 -2.31997E+03
  1.34890E+04  3.41187E+03  7.94137E+03  1.26087E+04 -2.73376E+03  1.50499E+04 -1.48837E+04  1.15589E+04
 -1.95241E+04 -1.70087E+03 -1.30457E+04 -1.33643E+04 -2.54474E+03 -2.07399E+04  1.14199E+04 -2.06975E+04
  2.18352E+04 -1.10290E+04  2.55707E+04  3.34342E+03  1.75466E+04  1.82874E+04  2.43351E+03  2.31692E+04
 -1.01131E+04  1.87763E+04 -1.40145E+04  6.34940E+03 -8.91776E+03 -1.79236E+03 -3.85079E+03 -3.12280E+03
 -2.36088E+03 -5.79652E+02 -2.32719E+03  3.50271E+03 -8.15209E+03  3.12015E+03 -1.30979E+04 -1.99924E+03
 -9.81715E+03 -1.24363E+04 -7.07240E+02 -1.96241E+04  1.18602E+04 -1.75851E+04  2.01546E+04 -5.40166E+03
  1.97064E+04  9.38455E+03  9.56855E+03  1.81959E+04 -3.99994E+03  1.96611E+04 -1.48976E+04  1.24025E+04
 -1.85864E+04  2.28744E+02 -1.46610E+04 -1.22866E+04 -1.40208E+03 -1.69547E+04  8.98744E+03 -1.24404E+04
  1.30020E+04 -3.34943E+03  8.87125E+03  3.81856E+03  3.58306E+03  5.76445E+03  1.83938E+03  2.52131E+03
  3.43991E+03  1.64251E+03  4.67650E+03  2.28737E+03  6.09811E+03  6.57520E+03  4.94256E+03  1.05049E+04
 -4.09304E+03  1.62781E+04 -1.43585E+04  1.57802E+04 -2.15126E+04  4.12521E+03 -2.16117E+04 -9.86525E+03
 -1.05248E+04 -2.07205E+04  3.51213E+03 -2.23459E+04  1.26624E+04 -1.47081E+04  1.73084E+04 -4.04087E+03
  1.32283E+04  8.00261E+03  2.99773E+03  1.19524E+04 -6.75992E+03  7.50057E+03 -8.81706E+03 -1.58752E+03
 -4.25488E+03 -9.12396E+03  5.07907E+03 -8.92457E+03  8.52841E+03 -4.33856E+03  8.53665E+03  1.82133E+03
  5.03811E+03  4.98209E+03  1.63283E+03  4.12377E+03 -1.15054E+03  2.92639E+03  1.48075E+03 -1.24009E+03
  3.65136E+03 -7.78869E+02  8.28310E+03  3.05070E+03  5.31570E+03  1.12823E+04 -1.82543E+03  1.44741E+04
 -1.03641E+04  1.03172E+04 -1.44244E+04  2.90385E+03 -1.19624E+04 -4.76041E+03 -5.14992E+03 -8.66619E+03
  7.95867E+02 -8.69357E+03  5.54592E+03 -3.67569E+03  5.09746E+03  3.80367E+03 -2.01633E+03  7.27542E+03
 -8.77526E+03  4.04643E+03 -1.04194E+04 -4.69742E+03 -6.17610E+03 -1.14288E+04  1.55373E+03 -1.23266E+04
  7.30121E+03 -7.46125E+03  9.08533E+03 -1.05397E+03  7.03096E+03  3.54426E+03  8.72736E+02  6.67197E+03
 -4.46586E+03  1.77902E+03 -5.34528E+03 -4.18414E+03  1.80182E+03 -9.55669E+03  1.10170E+04 -7.52800E+03
  1.48237E+04  1.12549E+03  1.30727E+04  1.00836E+04  3.97766E+03  1.53305E+04 -5.67496E+03  1.38244E+04
 -1.22261E+04  6.30167E+03 -1.25129E+04 -2.38027E+03 -6.98187E+03 -9.31914E+03  2.57132E+03 -9.16957E+03
  8.91640E+03 -4.55015E+03  7.87653E+03  4.18851E+03  2.98171E+03  7.99610E+03 -1.50799E+03  7.15858E+03
 -3.80049E+03  4.69047E+03 -3.71350E+03  1.46976E+03 -1.80165E+03  9.54173E+02 -2.49138E+03  3.06360E+03
 -3.80072E+03  5.56387E+03 -9.79831E+03  5.29186E+03 -1.45956E+04 -2.75898E+01 -1.62690E+04 -9.97678E+03
 -8.82778E+03 -1.99844E+04  3.81124E+03 -2.28526E+04  1.49477E+04 -1.75589E+04  2.15910E+04 -6.51115E+03
  2.06573E+04  4.67385E+03  1.27008E+04  1.38439E+04  1.64315E+03  1.61363E+04 -6.45116E+03  1.14409E+04
 -9.10589E+03  3.73394E+03 -5.58862E+03 -1.73184E+03 -1.89261E+03 -1.92573E+03 -8.98890E+02 -6.55664E+02
 -2.44335E+03  5.24367E+02 -3.27700E+03 -4.83789E+01 -1.23522E+03 -3.86134E+03  5.19358E+02 -6.02766E+03
  6.80115E+03 -4.87504E+03  9.87836E+03  2.44772E+02  1.11130E+04  8.52715E+03  3.40692E+03  1.65449E+04
 -7.19266E+03  1.80078E+04 -1.70131E+04  1.09144E+04 -1.94445E+04 -1.96442E+03 -1.45494E+04 -1.16708E+04
 -6.27068E+03 -1.64900E+04  4.38418E+03 -1.56702E+04  1.08415E+04 -8.23054E+03  1.09601E+04  1.36212E+02
  5.91417E+03  5.78478E+03 -7.11728E+02  5.03429E+03 -2.64346E+03 -6.17001E+02 -8.40710E+01 -3.88651E+03
  5.09893E+03 -3.02149E+03  6.60721E+03  1.85958E+03  4.59912E+03  6.58883E+03 -2.00125E+02  8.46074E+03
 -7.28260E+03  7.55979E+03 -1.12058E+04  9.86281E+02 -9.38069E+03 -7.98442E+03 -2.14089E+03 -1.37799E+04
  8.23318E+03 -1.14977E+04  1.28813E+04 -4.08225E+03  1.29374E+04  3.63873E+03  7.56750E+03  1.00740E+04
  9.84154E+02  1.13731E+04 -4.59543E+03  9.16891E+03 -7.36095E+03  4.76473E+03 -6.05955E+03  8.25854E+02
 -2.88083E+03 -6.80681E+02 -3.26790E+03  1.46352E+03 -5.79270E+03  1.10891E+03 -9.04946E+03 -1.21101E+03
 -8.13371E+03 -6.29923E+03 -2.27457E+03 -1.11810E+04  5.06017E+03 -1.10332E+04  1.00481E+04 -5.69851E+03
  1.16275E+04  8.93473E+02  6.80511E+03  7.84280E+03 -9.33583E+02  1.13599E+04 -8.81294E+03  7.21836E+03
