 $NMID ID='MM_0lb_SNR800_9hz_g40_57.RAW', FMTDAT='(8E13.5)'
 TRAMP=1., VOLUME=1. $END
  3.09752E+05  4.62711E+02  3.37511E+05  2.50452E+05  8.51358E+04  3.38234E+05 -1.32308E+05  2.51504E+05
 -1.90320E+05  8.37475E+04 -1.12535E+05 -3.27181E+04  4.97508E+01 -5.09959E+04  5.39406E+04 -2.72142E+02
  3.55938E+04  5.27771E+04 -1.67681E+04  7.60299E+04 -6.10457E+04  6.40623E+04 -8.53390E+04  3.23387E+04
 -8.19199E+04 -1.19074E+04 -5.79076E+04 -5.23573E+04 -1.51303E+04 -7.08222E+04  2.82769E+04 -4.65143E+04
  4.08311E+04  3.45719E+03  1.64481E+04  4.83262E+04 -3.47533E+04  4.76701E+04 -6.78196E+04 -2.81497E+02
 -5.45630E+04 -5.75783E+04 -6.91569E+03 -7.90507E+04  3.44439E+04 -5.65538E+04  4.95800E+04 -1.81257E+04
  4.49288E+04  1.15938E+04  3.25897E+04  2.67320E+04  1.61684E+04  3.04695E+04 -5.78323E+03  2.78996E+04
 -2.25146E+04  1.23403E+04 -1.82510E+04 -5.75456E+03  6.22858E+03 -7.70002E+03  2.33859E+04  1.35247E+04
  7.21095E+03  3.73033E+04 -3.36346E+04  3.70136E+04 -6.52901E+04  1.99678E+03 -5.83147E+04 -4.44775E+04
 -1.24554E+04 -6.50491E+04  4.09033E+04 -4.70708E+04  6.04575E+04 -2.27076E+03  3.59424E+04  3.37653E+04
 -5.51404E+03  3.89794E+04 -3.16860E+04  1.83735E+04 -3.26383E+04 -3.52568E+03 -1.87879E+04 -1.18051E+04
 -9.38002E+03 -1.46398E+04 -4.96504E+02 -1.92118E+04  8.28316E+03 -2.33905E+04  1.60121E+04 -1.29409E+04
  1.01414E+04  6.00158E+03 -9.84706E+03  1.30086E+04 -2.27709E+04 -5.99270E+03 -8.64322E+03 -3.69183E+04
  2.46249E+04 -4.60132E+04  5.12474E+04 -2.07986E+04  4.84962E+04  2.06368E+04  1.68314E+04  4.68515E+04
 -1.63308E+04  3.61311E+04 -2.74333E+04  2.27432E+03 -1.12433E+04 -2.95259E+04  2.20379E+04 -3.64007E+04
  4.41319E+04 -1.07112E+04  3.96992E+04  2.49493E+04  2.06101E+04  5.03363E+04 -8.14663E+03  5.45712E+04
 -3.46444E+04  3.75415E+04 -4.66175E+04  1.06905E+04 -4.64094E+04 -1.79195E+04 -2.57041E+04 -4.07275E+04
  7.55516E+03 -4.14173E+04  3.37478E+04 -1.66473E+04  3.16915E+04  1.11104E+04  5.40321E+03  2.05904E+04
 -1.38852E+04  9.33237E+03 -1.11593E+04 -7.44924E+03  5.86855E+03 -1.10929E+04  1.82432E+04  5.28339E+03
  1.42799E+04  2.26853E+04 -5.40361E+03  2.70114E+04 -2.33935E+04  1.38278E+04 -3.08382E+04 -2.97009E+03
 -2.46346E+04 -1.79033E+04 -1.11965E+04 -2.41230E+04  4.65376E+03 -2.46246E+04  1.89046E+04 -2.23483E+04
  3.10285E+04 -1.39821E+04  3.67650E+04  4.54425E+03  2.62050E+04  2.40235E+04  4.64532E+03  4.08190E+04
 -1.93291E+04  3.33880E+04 -3.01710E+04  1.14293E+04 -2.24545E+04 -1.01391E+04 -4.90264E+03 -1.26777E+04
  9.81573E+02 -1.18851E+03 -7.08731E+03  8.15897E+03 -1.96592E+04  5.26070E+03 -1.94608E+04 -9.00576E+03
 -1.13688E+04 -2.27020E+04  6.27530E+03 -2.66960E+04  1.80228E+04 -1.94028E+04  2.18478E+04 -1.66935E+03
  1.40184E+04  1.58114E+04 -1.18816E+03  2.28259E+04 -1.54696E+04  1.27824E+04 -2.29711E+04 -4.55485E+03
 -1.66263E+04 -2.00862E+04 -1.80034E+03 -2.75123E+04  1.22151E+04 -2.24685E+04  2.25244E+04 -1.13434E+04
  2.14553E+04 -1.51122E+02  1.51613E+04  5.54505E+03  7.78627E+03  1.57231E+03  1.17205E+04 -2.10066E+03
  2.14261E+04  2.98321E+03  2.46134E+04  1.79055E+04  1.65816E+04  3.65751E+04 -2.66703E+03  4.28288E+04
 -2.43180E+04  3.52396E+04 -4.02313E+04  1.81275E+04 -4.26573E+04 -2.95273E+03 -3.44038E+04 -2.50353E+04
 -1.41025E+04 -3.55322E+04  1.23348E+04 -3.12923E+04  2.69518E+04 -1.48696E+04  2.32583E+04  7.29252E+03
  8.15074E+03  1.80559E+04 -1.13066E+04  1.51249E+04 -1.91741E+04  2.99771E+03 -1.43640E+04 -1.24448E+04
 -3.45461E+02 -1.85827E+04  1.00039E+04 -1.38315E+04  1.28230E+04 -9.92361E+02  3.00319E+03  8.53018E+03
 -8.19616E+03  3.90744E+03 -9.02054E+03 -6.96887E+03 -1.45829E+03 -1.73362E+04  1.17037E+04 -1.88467E+04
  2.18924E+04 -1.06178E+04  2.49848E+04  3.18002E+03  2.17514E+04  1.76765E+04  9.98276E+03  2.77349E+04
 -5.74441E+03  3.00470E+04 -1.89063E+04  1.87147E+04 -2.17679E+04  4.13385E+03 -1.47394E+04 -5.89741E+03
 -6.48928E+03 -6.60396E+03 -6.37263E+02  2.54669E+01 -3.05845E+03  3.28064E+03 -6.98362E+03  5.43553E+03
 -1.34755E+04 -6.51409E+02 -1.42623E+04 -1.10746E+04 -5.82892E+03 -1.88123E+04  6.09825E+03 -1.51582E+04
  1.19977E+04 -6.45326E+03  8.30649E+03  3.87950E+03 -2.00370E+02  5.90047E+03 -7.53504E+03 -3.37623E+02
 -6.68112E+03 -9.88697E+03 -1.19873E+03 -1.51223E+04  9.00226E+03 -1.56202E+04  1.90805E+04 -8.10588E+03
  2.22238E+04  2.44855E+03  1.62451E+04  1.35868E+04  3.27811E+03  1.78442E+04 -9.71973E+03  1.50483E+04
 -1.21048E+04  4.27665E+03 -6.18765E+03 -3.42128E+03  2.30016E+03 -4.40756E+03  8.13932E+03 -1.21856E+03
  7.08109E+03  6.75229E+03  1.17576E+03  1.24020E+04 -8.15381E+03  1.16795E+04 -1.46576E+04  2.98920E+03
 -1.03693E+04 -8.17955E+03 -1.01595E+02 -1.28279E+04  8.32465E+03 -6.72343E+03  8.81942E+03  2.82758E+03
  2.35620E+03  9.59400E+03 -7.58971E+03  1.08397E+04 -1.23435E+04  4.75428E+03 -1.33352E+04 -4.53653E+03
 -7.39749E+03 -1.50949E+04  3.80765E+03 -1.70234E+04  1.44896E+04 -1.02135E+04  1.59238E+04  2.53390E+03
  9.17437E+03  1.22575E+04 -1.57979E+03  1.49990E+04 -1.16167E+04  8.68335E+03 -1.20684E+04 -1.36025E+03
 -1.02932E+04 -9.93927E+03 -1.42318E+03 -1.14947E+04  6.13679E+03 -8.89588E+03  7.30686E+03 -3.72399E+03
  4.79029E+03  1.65526E+03 -1.01378E+03  1.76784E+03 -4.26201E+02 -3.11765E+03  2.38921E+03 -7.14391E+03
  1.05762E+04 -4.57105E+03  1.52787E+04  1.92834E+03  1.51131E+04  1.03621E+04  9.78704E+03  1.96531E+04
 -4.84885E+03  2.24224E+04 -1.85517E+04  1.67766E+04 -2.46251E+04  3.19795E+03 -1.97322E+04 -8.32171E+03
 -9.39680E+03 -1.63477E+04 -1.05023E+03 -1.38086E+04  5.26419E+03 -7.81308E+03  4.74987E+03 -4.81258E+03
  3.49703E+03 -2.96336E+03  4.01181E+03 -3.71825E+03  5.59907E+03 -3.45012E+03  7.96591E+03 -8.25358E+02
  1.00156E+04  3.19522E+03  5.43350E+03  8.95327E+03 -2.40253E+03  1.07298E+04 -1.05344E+04  8.40430E+03
 -1.41001E+04 -1.14216E+03 -9.08747E+03 -9.67432E+03 -1.35321E+03 -1.49493E+04  8.69845E+03 -1.47693E+04
  1.59798E+04 -8.14898E+03  1.84058E+04  2.65453E+03  1.25710E+04  1.28122E+04  1.86781E+03  1.65881E+04
 -6.96593E+03  1.34502E+04 -1.03586E+04  4.52458E+03 -6.68436E+03 -1.67823E+03 -3.24837E+03 -2.42291E+03
 -1.02292E+03 -2.30500E+02 -2.47012E+03  3.38946E+03 -5.89677E+03  2.18985E+03 -9.38443E+03 -1.23174E+03
 -6.56931E+03 -9.28706E+03  8.85014E+01 -1.37962E+04  8.77656E+03 -1.25409E+04  1.38162E+04 -4.21191E+03
  1.38615E+04  6.71406E+03  6.31431E+03  1.23358E+04 -3.09700E+03  1.41793E+04 -9.92534E+03  8.45328E+03
 -1.31929E+04  7.11668E+02 -1.04321E+04 -8.41852E+03 -1.10042E+03 -1.13335E+04  6.10399E+03 -8.55757E+03
  8.68132E+03 -2.64624E+03  5.85832E+03  2.49619E+03  2.25814E+03  4.06533E+03  1.40349E+03  1.61333E+03
  2.79712E+03  1.35425E+03  3.14927E+03  2.14496E+03  3.90547E+03  4.75010E+03  4.01264E+03  7.33898E+03
 -3.32098E+03  1.07617E+04 -9.85308E+03  1.13069E+04 -1.43332E+04  2.93083E+03 -1.46810E+04 -6.31738E+03
 -6.96752E+03 -1.37696E+04  1.93476E+03 -1.56008E+04  8.43175E+03 -9.53951E+03  1.14156E+04 -2.65707E+03
  9.10955E+03  5.08701E+03  1.79911E+03  8.43099E+03 -4.14077E+03  5.17517E+03 -6.02332E+03 -8.53140E+02
 -3.24827E+03 -6.00324E+03  2.99244E+03 -6.34575E+03  5.73942E+03 -3.26013E+03  6.08953E+03  1.47359E+03
  3.34623E+03  2.69339E+03  1.18625E+03  2.15762E+03 -1.12973E+03  1.80273E+03  1.81994E+03 -7.65360E+02
  1.90163E+03 -5.38679E+02  5.90494E+03  2.25559E+03  3.39285E+03  7.98351E+03 -1.00471E+03  9.57279E+03
 -6.28033E+03  6.73509E+03 -9.18972E+03  1.64448E+03 -8.34076E+03 -3.21201E+03 -2.91335E+03 -5.52082E+03
  9.10233E+02 -5.51547E+03  4.01908E+03 -2.96865E+03  2.86058E+03  2.95341E+03 -1.71018E+03  4.62785E+03
 -5.83905E+03  2.37614E+03 -6.99714E+03 -3.29740E+03 -3.94821E+03 -7.61461E+03  1.38736E+03 -7.69222E+03
  4.97546E+03 -4.71320E+03  5.57102E+03 -7.85041E+02  4.82566E+03  1.86470E+03  2.50360E+02  4.22000E+03
 -2.48525E+03  7.28407E+02 -3.48822E+03 -2.88192E+03  1.10345E+03 -5.84909E+03  7.23916E+03 -4.95466E+03
  9.08802E+03  8.31714E+02  8.41934E+03  6.30682E+03  2.73961E+03  9.53457E+03 -3.91077E+03  9.02726E+03
 -7.58686E+03  3.93846E+03 -7.92380E+03 -1.18190E+03 -3.96976E+03 -6.40794E+03  1.19471E+03 -5.61252E+03
  6.05233E+03 -2.89272E+03  5.33881E+03  2.38212E+03  1.44663E+03  5.50733E+03 -7.68722E+02  4.66039E+03
 -2.60639E+03  3.22251E+03 -2.18286E+03  9.04261E+02 -1.00692E+03  1.15140E+03 -1.63843E+03  1.92959E+03
 -2.51299E+03  3.70645E+03 -6.27131E+03  3.30850E+03 -9.57411E+03  4.02398E+02 -1.04381E+04 -6.36729E+03
 -5.63594E+03 -1.20920E+04  2.41321E+03 -1.44092E+04  8.99672E+03 -1.10443E+04  1.37855E+04 -4.77315E+03
  1.31105E+04  2.15243E+03  7.53581E+03  8.79730E+03  6.76575E+02  9.26323E+03 -3.85936E+03  7.42088E+03
 -5.60606E+03  2.56542E+03 -2.96985E+03 -1.04343E+03 -1.02750E+03 -1.28242E+03 -7.32378E+02 -4.63929E+02
 -1.75882E+03  2.47744E+02 -1.92851E+03 -3.35876E+02 -7.08214E+02 -2.26181E+03  4.40840E+02 -3.63121E+03
  4.70761E+03 -3.01999E+03  5.81131E+03  2.53232E+02  6.80054E+03  5.47061E+03  1.74947E+03  9.89981E+03
 -4.46134E+03  1.12453E+04 -1.04434E+04  6.85316E+03 -1.24979E+04 -5.54540E+02 -9.12599E+03 -7.22626E+03
 -3.63150E+03 -1.00058E+04  2.99975E+03 -9.11458E+03  6.37727E+03 -5.09015E+03  6.81699E+03  2.62203E+02
  3.99599E+03  3.73202E+03 -3.38015E+02  3.03205E+03 -1.80895E+03 -4.06024E+02  1.83185E+02 -2.49039E+03
  2.92078E+03 -1.60368E+03  3.90452E+03  1.31618E+03  2.38897E+03  3.87929E+03  6.19593E+02  5.20726E+03
 -4.50474E+03  4.42916E+03 -6.50187E+03  3.51019E+02 -5.74740E+03 -5.05216E+03 -9.62708E+02 -8.28732E+03
  4.73235E+03 -7.22748E+03  7.23421E+03 -2.09364E+03  7.59738E+03  1.82689E+03  4.03269E+03  6.17830E+03
  1.07546E+03  6.50409E+03 -2.97256E+03  5.45740E+03 -4.11320E+03  3.05355E+03 -3.40495E+03  1.13473E+02
 -1.63292E+03 -7.17485E+01 -1.97826E+03  8.54499E+02 -3.43730E+03  1.38515E+03 -5.36769E+03 -1.20707E+03
 -4.96011E+03 -3.46235E+03 -1.64830E+03 -6.51324E+03  3.09467E+03 -6.57934E+03  6.09199E+03 -3.32538E+03
  6.47275E+03  9.34989E+02  3.70420E+03  4.55594E+03 -5.39923E+02  6.61453E+03 -5.25185E+03  4.73981E+03
