 $NMID ID='MM_0lb_SNR800_15hz_g45_7.RAW', FMTDAT='(8E13.5)'
 TRAMP=1., VOLUME=1. $END
  3.09641E+05  3.41855E+02  3.37563E+05  2.50839E+05  8.46142E+04  3.37570E+05 -1.32562E+05  2.50610E+05
 -1.89911E+05  8.29571E+04 -1.11660E+05 -3.27805E+04  1.23548E+03 -5.05818E+04  5.40214E+04 -1.84364E+02
  3.51539E+04  5.28581E+04 -1.71809E+04  7.55068E+04 -6.04873E+04  6.30332E+04 -8.35271E+04  3.18965E+04
 -8.04584E+04 -1.11992E+04 -5.69235E+04 -5.10120E+04 -1.48386E+04 -6.94006E+04  2.73253E+04 -4.53739E+04
  3.98351E+04  3.83009E+03  1.61307E+04  4.74764E+04 -3.43054E+04  4.68815E+04 -6.62386E+04 -9.24645E+01
 -5.29347E+04 -5.68750E+04 -6.32718E+03 -7.63470E+04  3.37491E+04 -5.43146E+04  4.75047E+04 -1.69708E+04
  4.28546E+04  1.13597E+04  3.13899E+04  2.51778E+04  1.56736E+04  2.88311E+04 -5.25747E+03  2.72927E+04
 -2.18672E+04  1.23752E+04 -1.87991E+04 -4.87839E+03  5.12570E+03 -7.68389E+03  2.20787E+04  1.17962E+04
  7.14319E+03  3.43464E+04 -3.20216E+04  3.49080E+04 -6.23627E+04  1.91435E+03 -5.65990E+04 -4.22978E+04
 -1.23314E+04 -6.22964E+04  3.94632E+04 -4.47447E+04  5.73452E+04 -2.07049E+03  3.34755E+04  3.18518E+04
 -6.18037E+03  3.53833E+04 -2.94396E+04  1.51418E+04 -2.94851E+04 -5.07117E+03 -1.61062E+04 -1.09426E+04
 -8.08856E+03 -1.25868E+04 -9.37371E+02 -1.76218E+04  7.45227E+03 -2.28607E+04  1.56876E+04 -1.34650E+04
  1.15689E+04  4.61341E+03 -7.77206E+03  1.28656E+04 -2.04943E+04 -3.46553E+03 -8.16951E+03 -3.28360E+04
  2.23397E+04 -4.26088E+04  4.70224E+04 -1.89485E+04  4.41478E+04  1.91798E+04  1.54000E+04  4.35409E+04
 -1.59038E+04  3.28425E+04 -2.48818E+04  1.62484E+03 -9.37114E+03 -2.72953E+04  2.07212E+04 -3.31345E+04
  4.00627E+04 -8.50977E+03  3.43553E+04  2.36273E+04  1.72958E+04  4.53661E+04 -7.95918E+03  4.88408E+04
 -3.04278E+04  3.25084E+04 -4.03077E+04  9.43677E+03 -4.11197E+04 -1.62172E+04 -2.28202E+04 -3.66793E+04
  7.10189E+03 -3.66525E+04  3.05011E+04 -1.35861E+04  2.85088E+04  1.08681E+04  3.49673E+03  1.87291E+04
 -1.35337E+04  8.18355E+03 -9.95916E+03 -7.91573E+03  5.64800E+03 -1.02363E+04  1.77353E+04  6.17344E+03
  1.29707E+04  2.19607E+04 -6.14445E+03  2.45421E+04 -2.20452E+04  1.06625E+04 -2.69463E+04 -5.30251E+03
 -1.93095E+04 -1.68715E+04 -7.60717E+03 -1.95817E+04  4.17393E+03 -1.77050E+04  1.49971E+04 -1.70791E+04
  2.43653E+04 -1.21722E+04  3.08927E+04  2.08366E+03  2.32360E+04  1.88292E+04  4.16175E+03  3.50373E+04
 -1.72766E+04  2.94557E+04 -2.72791E+04  1.00091E+04 -2.06083E+04 -1.02279E+04 -3.96090E+03 -1.38467E+04
  1.95117E+03 -3.39182E+03 -4.27177E+03  6.18618E+03 -1.51213E+04  5.24141E+03 -1.54364E+04 -6.28412E+03
 -9.65834E+03 -1.74978E+04  4.76912E+03 -2.20578E+04  1.45906E+04 -1.57149E+04  1.72052E+04 -1.38129E+03
  1.08587E+04  1.25144E+04 -1.11095E+03  1.78185E+04 -1.21971E+04  1.02962E+04 -1.75440E+04 -3.63588E+03
 -1.32035E+04 -1.58702E+04 -1.67714E+03 -2.16327E+04  1.01317E+04 -1.77863E+04  1.82286E+04 -8.76821E+03
  1.66021E+04  2.85241E+02  1.21465E+04  4.08099E+03  6.34747E+03  5.86881E+02  8.81861E+03 -1.79300E+03
  1.60916E+04  2.45586E+03  1.78361E+04  1.43962E+04  1.13730E+04  2.86748E+04 -3.02653E+03  3.19579E+04
 -1.85807E+04  2.50454E+04 -2.93044E+04  1.27408E+04 -3.08639E+04 -2.19671E+03 -2.54808E+04 -1.78258E+04
 -1.09526E+04 -2.54719E+04  8.62246E+03 -2.28446E+04  1.98053E+04 -1.23926E+04  1.81314E+04  4.79900E+03
  7.20541E+03  1.31686E+04 -8.36979E+03  1.19878E+04 -1.53545E+04  2.84339E+03 -1.21275E+04 -9.42291E+03
 -1.25063E+02 -1.42470E+04  7.81699E+03 -1.08438E+04  9.30429E+03 -1.17491E+03  2.00785E+03  6.06296E+03
 -6.50208E+03  1.89537E+03 -5.23461E+03 -5.26287E+03 -2.29265E+01 -1.23004E+04  9.05137E+03 -1.30199E+04
  1.51342E+04 -6.51139E+03  1.60718E+04  2.72660E+03  1.40676E+04  1.18994E+04  6.16076E+03  1.84505E+04
 -2.86851E+03  2.00001E+04 -1.25799E+04  1.26723E+04 -1.43211E+04  3.03219E+03 -1.03108E+04 -3.17557E+03
 -5.15392E+03 -4.52819E+03 -6.58125E+02  1.03186E+03 -2.04282E+03  2.42759E+03 -4.73838E+03  3.97118E+03
 -9.78955E+03 -6.17893E+02 -1.04467E+04 -8.47561E+03 -4.22094E+03 -1.38804E+04  4.24788E+03 -1.01259E+04
  8.96811E+03 -4.57418E+03  6.37158E+03  2.74466E+03  6.36320E+02  3.96105E+03 -4.78021E+03  1.48048E+01
 -4.45171E+03 -6.58824E+03 -7.93276E+02 -9.42802E+03  5.43811E+03 -1.02222E+04  1.27720E+04 -5.47341E+03
  1.51041E+04  1.26834E+03  1.11578E+04  8.21897E+03  2.17440E+03  1.11385E+04 -6.40463E+03  1.02339E+04
 -8.39346E+03  3.33109E+03 -4.39669E+03 -1.87796E+03  1.49743E+03 -2.55712E+03  5.82757E+03 -9.58287E+02
  4.95169E+03  4.30757E+03  9.47754E+02  8.13104E+03 -5.64580E+03  8.18901E+03 -9.75915E+03  2.48862E+03
 -6.44428E+03 -4.92060E+03  1.62462E+02 -8.58210E+03  4.98043E+03 -4.44864E+03  4.94389E+03  1.62657E+03
  1.05362E+03  5.35739E+03 -4.90303E+03  6.62804E+03 -7.14214E+03  3.11967E+03 -6.98570E+03 -2.16984E+03
 -4.15733E+03 -8.50472E+03  1.75501E+03 -1.00695E+04  8.60871E+03 -6.30384E+03  8.91592E+03  1.79471E+03
  6.08160E+03  7.61702E+03 -1.45125E+02  9.54682E+03 -6.81765E+03  5.21241E+03 -7.16015E+03 -4.41453E+02
 -6.83282E+03 -6.60988E+03 -1.49706E+03 -6.62339E+03  3.38766E+03 -5.89059E+03  3.98707E+03 -3.34631E+03
  3.81659E+03  6.65815E+02 -1.28446E+02  1.53867E+03  1.93283E+02 -1.20356E+03  1.00440E+03 -3.36017E+03
  5.91706E+03 -1.48417E+03  7.93855E+03  7.86380E+02  8.18579E+03  4.79049E+03  6.36669E+03  1.07785E+04
 -2.07969E+03  1.23606E+04 -1.08872E+04  9.47334E+03 -1.40208E+04  1.40558E+03 -1.10479E+04 -4.38529E+03
 -5.82575E+03 -9.06814E+03 -1.27099E+02 -7.55489E+03  2.87890E+03 -3.73344E+03  2.50604E+03 -2.98881E+03
  1.63395E+03 -2.01017E+03  2.56129E+03 -2.73195E+03  4.07812E+03 -1.82099E+03  4.93809E+03  1.25868E+02
  5.92397E+03  1.76491E+03  2.49956E+03  4.92503E+03 -1.82043E+03  5.15514E+03 -6.00141E+03  4.25349E+03
 -7.44716E+03 -8.17999E+02 -3.97487E+03 -5.05061E+03 -3.33529E+01 -7.72065E+03  4.58460E+03 -8.04895E+03
  8.08343E+03 -4.57321E+03  9.71644E+03  9.39038E+02  7.09075E+03  6.45983E+03  1.56538E+03  8.86501E+03
 -3.46170E+03  7.85848E+03 -5.23979E+03  2.49998E+03 -3.23969E+03 -9.44001E+02 -1.01190E+03 -9.73234E+02
 -7.22665E+02  2.44266E+02 -8.95873E+02  2.18220E+03 -3.56925E+03  1.33988E+03 -5.34526E+03 -6.01603E+02
 -3.07761E+03 -5.49790E+03  4.40786E+02 -6.81670E+03  4.27884E+03 -6.63434E+03  6.28846E+03 -1.52799E+03
  6.91885E+03  3.70978E+03  3.07145E+03  5.55487E+03 -1.29186E+03  6.73509E+03 -4.79696E+03  4.04012E+03
 -6.26886E+03  4.35213E+02 -5.03793E+03 -3.97320E+03 -5.28675E+02 -5.32119E+03  2.55090E+03 -4.30057E+03
  4.18843E+03 -1.72618E+03  2.85034E+03  6.99915E+02  9.36114E+02  2.33448E+03  1.05030E+03  1.05052E+03
  1.68447E+03  8.21569E+02  1.70278E+03  1.54345E+03  1.47758E+03  2.87657E+03  1.96740E+03  3.38545E+03
 -1.58726E+03  4.97681E+03 -4.07681E+03  5.83606E+03 -5.74206E+03  1.74747E+03 -6.93326E+03 -1.68104E+03
 -2.81872E+03 -6.42530E+03  1.31545E+03 -7.59772E+03  3.65376E+03 -4.41269E+03  5.12333E+03 -1.62249E+03
  4.42024E+03  2.80239E+03  7.44809E+02  3.74398E+03 -1.53390E+03  2.41178E+03 -1.96842E+03 -5.35403E+02
 -1.30806E+03 -2.80244E+03  1.83405E+03 -2.85579E+03  2.38475E+03 -1.54987E+03  2.43898E+03  6.52582E+02
  1.18696E+03  1.12379E+03  9.78343E+02  4.48065E+02 -4.40122E+02  9.97951E+02  1.63293E+03 -3.07235E+02
  2.01454E+02 -4.26543E+02  2.67612E+03  8.28439E+02  1.19108E+03  3.54959E+03 -6.35176E+02  4.58949E+03
 -2.76238E+03  2.26779E+03 -3.54785E+03  7.42466E+02 -3.23897E+03 -1.21212E+03 -6.27385E+02 -2.00637E+03
  7.09968E+02 -2.27394E+03  1.72173E+03 -1.09697E+03  1.43051E+03  1.80957E+03 -8.80341E+02  1.77546E+03
 -2.55856E+03  1.02420E+03 -2.53110E+03 -1.79720E+03 -1.32985E+03 -3.40435E+03  4.35816E+02 -2.81205E+03
  1.36583E+03 -1.48255E+03  1.96093E+03  3.99086E+02  2.33958E+03  4.86897E+02  9.61849E+01  2.23418E+03
 -7.89761E+02  3.36944E+02 -1.44069E+03 -1.06669E+03  6.91876E+02 -2.05696E+03  2.79742E+03 -1.71221E+03
  2.87862E+03  3.56772E+02  3.95618E+03  1.61918E+03  1.45580E+03  3.16969E+03 -9.83697E+02  3.65864E+03
 -2.63689E+03  9.41783E+02 -2.98545E+03 -6.51263E+02 -1.56022E+03 -2.49335E+03  6.72431E+02 -1.91928E+03
  2.44805E+03 -1.15383E+03  1.86531E+03  1.20614E+03  3.92462E+02  1.85570E+03 -1.14483E+02  1.99634E+03
 -8.27819E+02  1.61125E+03 -8.68316E+02  4.12814E+02 -2.60440E+02  5.48336E+02 -8.15348E+02  9.66998E+02
 -9.31468E+02  1.59149E+03 -2.84454E+03  1.10338E+03 -3.38481E+03  9.13867E+01 -3.79965E+03 -1.91565E+03
 -2.01337E+03 -4.62930E+03  8.04874E+02 -5.34379E+03  2.67929E+03 -4.42834E+03  5.13122E+03 -1.78916E+03
  4.48177E+03  4.12368E+02  2.59782E+03  2.87245E+03 -2.64422E+02  3.16843E+03 -1.29848E+03  2.73972E+03
 -2.05694E+03  1.30865E+03 -1.22421E+03 -7.38943E+02 -7.20963E+02 -1.83607E+02 -6.88730E+02  6.62265E+01
 -1.50759E+03  5.90195E+01 -1.28862E+03 -6.09625E+00  1.81299E+02 -1.09278E+03 -7.10814E+02 -1.62408E+03
  2.14579E+03 -1.21208E+03  1.73224E+03  2.93589E+02  2.21574E+03  1.77911E+03  8.96183E+01  2.89232E+03
 -1.73913E+03  3.71672E+03 -3.55653E+03  2.29984E+03 -3.91166E+03 -3.46497E+02 -2.98232E+03 -2.43905E+03
 -1.70395E+03 -3.02291E+03  7.81360E+02 -2.51605E+03  1.55053E+03 -1.46337E+03  1.99001E+03  5.63933E+00
  1.34632E+03  9.39629E+02 -7.11069E+01  9.78817E+02 -7.97113E+02 -1.98227E+02 -2.04433E+02 -5.91272E+02
  1.20408E+03 -2.24363E+02  8.63708E+02  7.97678E+02  7.17175E+02  8.27837E+02  5.57537E+02  1.03735E+03
 -1.46417E+03  1.27644E+03 -1.78071E+03  2.35445E+02 -1.81042E+03 -1.28542E+03 -3.91015E+02 -2.57532E+03
  1.67843E+03 -2.00978E+03  2.22662E+03 -5.40874E+02  1.84045E+03 -1.92769E+02  9.15628E+02  1.78516E+03
  6.59248E+02  1.61247E+03 -4.66371E+02  1.18546E+03 -1.45379E+03  9.66835E+02 -9.00069E+02  1.39227E+02
 -2.77246E+02 -1.27801E+01 -5.42536E+02  7.55652E+01 -1.12406E+03  4.23337E+02 -1.35080E+03 -6.85649E+02
 -1.87449E+03 -3.29717E+02 -6.13707E+02 -1.66992E+03  1.10782E+03 -2.32048E+03  2.03104E+03 -8.08496E+02
  1.49471E+03  2.63846E+02  2.01977E+02  7.48632E+02 -4.74508E+02  1.74109E+03 -1.24910E+03  1.48734E+03
