 $NMID ID='MM_0lb_SNR800_20hz_g40_68.RAW', FMTDAT='(8E13.5)'
 TRAMP=1., VOLUME=1. $END
  3.09841E+05  4.66036E+02  3.37024E+05  2.49995E+05  8.45112E+04  3.36814E+05 -1.32334E+05  2.49839E+05
 -1.89657E+05  8.21653E+04 -1.10549E+05 -3.29740E+04  1.82833E+03 -5.00780E+04  5.37415E+04  2.04862E+02
  3.47408E+04  5.29573E+04 -1.70092E+04  7.44197E+04 -6.01537E+04  6.21396E+04 -8.25016E+04  3.09874E+04
 -7.85968E+04 -1.07926E+04 -5.58538E+04 -4.95708E+04 -1.47806E+04 -6.76337E+04  2.65325E+04 -4.43681E+04
  3.84703E+04  3.56594E+03  1.52072E+04  4.68496E+04 -3.37105E+04  4.57710E+04 -6.44666E+04 -8.49393E+02
 -5.14240E+04 -5.54499E+04 -5.78587E+03 -7.41742E+04  3.26488E+04 -5.20954E+04  4.53765E+04 -1.58981E+04
  4.05648E+04  1.08893E+04  3.00892E+04  2.37885E+04  1.58947E+04  2.76380E+04 -4.27053E+03  2.64046E+04
 -2.12035E+04  1.30988E+04 -1.97296E+04 -3.81954E+03  3.38906E+03 -7.55627E+03  2.04167E+04  1.03487E+04
  7.48166E+03  3.21286E+04 -2.94388E+04  3.30897E+04 -5.98180E+04  2.25641E+03 -5.45962E+04 -4.04978E+04
 -1.20372E+04 -5.95711E+04  3.71752E+04 -4.23085E+04  5.38497E+04 -1.93545E+03  3.08582E+04  2.95382E+04
 -6.75996E+03  3.12966E+04 -2.78402E+04  1.19076E+04 -2.61858E+04 -5.52958E+03 -1.29440E+04 -9.40641E+03
 -6.80156E+03 -1.04973E+04 -1.24587E+03 -1.60096E+04  6.15001E+03 -2.25820E+04  1.47632E+04 -1.39511E+04
  1.24918E+04  3.90636E+03 -4.95904E+03  1.30518E+04 -1.84940E+04 -1.44206E+03 -8.13420E+03 -2.87098E+04
  2.01072E+04 -3.92146E+04  4.29816E+04 -1.79735E+04  4.03502E+04  1.76738E+04  1.35830E+04  4.01828E+04
 -1.49586E+04  2.98841E+04 -2.24592E+04  6.51263E+02 -7.52580E+03 -2.57241E+04  2.01406E+04 -2.98140E+04
  3.64830E+04 -6.49293E+03  2.94860E+04  2.22087E+04  1.39431E+04  4.05456E+04 -7.50597E+03  4.25325E+04
 -2.69412E+04  2.78067E+04 -3.50957E+04  7.72520E+03 -3.62912E+04 -1.42167E+04 -2.01135E+04 -3.24489E+04
  6.37851E+03 -3.23640E+04  2.80562E+04 -1.17888E+04  2.56071E+04  1.06299E+04  2.34329E+03  1.70843E+04
 -1.28868E+04  6.72564E+03 -9.20787E+03 -7.76527E+03  6.01046E+03 -9.90971E+03  1.67685E+04  6.49993E+03
  1.16037E+04  2.15517E+04 -6.91543E+03  2.30487E+04 -2.09473E+04  8.05463E+03 -2.37198E+04 -7.00568E+03
 -1.50337E+04 -1.58537E+04 -4.20075E+03 -1.49448E+04  3.50803E+03 -1.25134E+04  1.12285E+04 -1.26473E+04
  1.93235E+04 -1.12709E+04  2.62436E+04  2.86355E+02  2.02966E+04  1.48687E+04  4.32007E+03  3.08758E+04
 -1.53746E+04  2.63218E+04 -2.48321E+04  8.91742E+03 -1.92718E+04 -1.04589E+04 -3.78052E+03 -1.40376E+04
  2.88993E+03 -4.89391E+03 -1.66587E+03  4.78880E+03 -1.16291E+04  5.21022E+03 -1.21229E+04 -4.15404E+03
 -8.00213E+03 -1.39196E+04  4.02476E+03 -1.79745E+04  1.13024E+04 -1.31378E+04  1.30164E+04 -1.24206E+03
  8.04033E+03  9.53733E+03 -5.96257E+02  1.43541E+04 -9.09526E+03  7.75125E+03 -1.38281E+04 -2.97939E+03
 -1.04787E+04 -1.30304E+04 -1.42553E+03 -1.72674E+04  7.97310E+03 -1.37882E+04  1.47646E+04 -6.24480E+03
  1.32652E+04  8.70734E+02  9.41557E+03  3.62239E+03  4.24676E+03  2.27517E+02  6.88185E+03 -1.07609E+03
  1.25780E+04  2.45935E+03  1.29384E+04  1.19089E+04  7.62376E+03  2.24430E+04 -3.21256E+03  2.34308E+04
 -1.41108E+04  1.75577E+04 -2.14288E+04  7.99134E+03 -2.17271E+04 -1.61462E+03 -1.88249E+04 -1.24051E+04
 -9.61117E+03 -1.75342E+04  5.63781E+03 -1.65499E+04  1.45980E+04 -1.00208E+04  1.40257E+04  2.87429E+03
  6.36661E+03  9.93822E+03 -6.43934E+03  9.47756E+03 -1.19572E+04  2.56495E+03 -9.57377E+03 -7.15154E+03
 -1.29767E+02 -1.11987E+04  5.55163E+03 -8.60224E+03  6.79226E+03 -1.46850E+03  1.06049E+03  4.18930E+03
 -5.15102E+03  7.48380E+02 -2.65992E+03 -4.08667E+03  1.02348E+03 -8.85258E+03  6.92780E+03 -8.62046E+03
  1.05846E+04 -3.69484E+03  1.00075E+04  2.48908E+03  8.53387E+03  7.98445E+03  4.08063E+03  1.15813E+04
 -1.26703E+03  1.37658E+04 -8.21657E+03  8.73604E+03 -9.68957E+03  2.82096E+03 -7.49883E+03 -1.60156E+03
 -4.24370E+03 -2.55316E+03 -8.14023E+02  1.48500E+03 -1.56984E+03  1.65725E+03 -3.01373E+03  3.16798E+03
 -6.94198E+03 -3.87766E+02 -7.96420E+03 -6.32590E+03 -3.10917E+03 -1.04732E+04  3.01806E+03 -7.53250E+03
  6.03644E+03 -3.37134E+03  4.41219E+03  1.99785E+03  7.10872E+02  2.48319E+03 -2.75030E+03 -9.42169E+01
 -2.78628E+03 -4.51598E+03 -6.59781E+02 -5.99720E+03  3.35153E+03 -6.76578E+03  8.46413E+03 -3.38393E+03
  1.01223E+04  2.84285E+02  7.71932E+03  5.00996E+03  1.49220E+03  7.32156E+03 -4.85470E+03  7.15384E+03
 -6.02014E+03  2.77764E+03 -3.24286E+03 -1.02437E+03  1.14833E+03 -1.48650E+03  4.22254E+03 -1.16150E+03
  3.95989E+03  2.44718E+03  1.07526E+03  5.58540E+03 -3.63540E+03  5.80021E+03 -6.83700E+03  1.57983E+03
 -4.01848E+03 -2.84555E+03  2.66378E+02 -5.75316E+03  3.08894E+03 -2.88285E+03  2.60427E+03  5.21458E+02
  3.65331E+02  2.65452E+03 -3.44854E+03  3.73007E+03 -3.49970E+03  2.12889E+03 -3.28170E+03 -7.86128E+02
 -2.32959E+03 -4.75544E+03  9.48191E+02 -5.66638E+03  4.90551E+03 -3.75671E+03  5.40354E+03  7.01912E+02
  4.11764E+03  4.29934E+03  5.34993E+02  6.15908E+03 -4.66976E+03  3.69346E+03 -4.38774E+03 -2.77086E+02
 -5.20230E+03 -4.25445E+03 -1.22748E+03 -4.08846E+03  2.07667E+03 -3.94138E+03  2.29083E+03 -2.81768E+03
  2.55257E+03 -1.18114E+02 -7.07104E+01  1.07280E+03  6.38186E+02 -1.29710E+02 -1.85397E+02 -1.27251E+03
  3.28299E+03 -3.71509E+02  4.26765E+03  9.34779E+02  4.42383E+03  2.52322E+03  4.76222E+03  5.37453E+03
 -8.45982E+02  6.78046E+03 -6.45285E+03  5.12458E+03 -8.11000E+03  7.86750E+02 -6.25613E+03 -2.12294E+03
 -3.57139E+03 -5.19467E+03 -5.65024E+02 -4.40113E+03  1.85542E+03 -1.62369E+03  1.24135E+03 -1.75890E+03
  9.81100E+02 -1.36523E+03  1.93247E+03 -2.24038E+03  3.17590E+03 -9.78599E+02  3.18214E+03  7.06417E+02
  3.80089E+03  1.29147E+03  8.74499E+02  3.15847E+03 -1.34742E+03  2.08772E+03 -3.60827E+03  2.00330E+03
 -3.79561E+03 -8.99726E+02 -1.00334E+03 -2.44668E+03  6.64230E+02 -3.92809E+03  2.93681E+03 -4.42348E+03
  3.97521E+03 -2.61187E+03  5.21661E+03  3.24070E+01  3.85106E+03  3.34518E+03  1.11496E+03  5.01778E+03
 -1.54127E+03  4.88216E+03 -2.67226E+03  1.57944E+03 -1.67749E+03 -9.30199E+02 -1.16698E+02 -2.50809E+02
 -3.60497E+02  1.94244E+02 -7.79418E+02  1.73303E+03 -2.28802E+03  8.66999E+02 -3.50371E+03 -2.77573E+02
 -9.46916E+02 -3.61823E+03  8.92177E+02 -3.73858E+03  2.02030E+03 -3.53983E+03  2.74003E+03 -9.54951E+02
  3.09660E+03  1.99140E+03  1.44020E+03  2.55377E+03 -6.22245E+02  3.69659E+03 -2.10327E+03  2.05038E+03
 -2.83324E+03  9.41975E+02 -2.90120E+03 -1.89771E+03  2.22778E+01 -2.19199E+03  9.55990E+02 -1.93717E+03
  2.14211E+03 -1.11045E+03  1.17286E+03  2.35761E+02  3.94478E+02  1.24527E+03  7.04681E+02  4.72806E+02
  1.55540E+03  5.20215E+02  1.00391E+03  1.01052E+03  6.89218E+02  1.71996E+03  1.31416E+03  9.47908E+02
 -9.77467E+02  2.21466E+03 -1.68316E+03  3.47621E+03 -1.99426E+03  1.22588E+03 -3.35687E+03  8.13337E+01
 -1.36443E+03 -2.82089E+03  5.05315E+02 -3.74590E+03  1.33261E+03 -1.60547E+03  2.53870E+03 -7.18111E+02
  2.09693E+03  1.42754E+03  4.70326E+02  1.68951E+03 -4.18493E+02  7.30203E+02 -5.81686E+02 -2.21778E+02
 -4.72300E+02 -1.10583E+03  9.89520E+02 -1.14245E+03  8.14936E+02 -7.61950E+02  1.00210E+03  3.20781E+02
  6.22289E+02  1.74986E+01  8.12815E+02 -5.68019E+02 -5.65049E+02  7.40437E+02  1.56977E+03 -1.36617E+02
 -1.14787E+02 -2.89724E+01  1.53025E+03  4.12307E+02  1.76859E+02  1.98487E+03 -3.15859E+02  2.38938E+03
 -1.20757E+03  6.21564E+02 -1.69864E+03  1.64537E+02 -2.11908E+03 -5.41400E+02 -1.64036E+01 -6.52406E+02
  3.43581E+02 -1.06578E+03  8.76846E+02 -5.85654E+02  4.75898E+02  1.41138E+03 -7.27473E+02  8.84529E+02
 -1.22964E+03  5.37652E+02 -6.56628E+02 -1.07629E+03 -6.34395E+02 -1.95443E+03  1.40094E+02 -9.70073E+02
  1.25292E+02 -4.46869E+02  2.77595E+02  2.12698E+02  8.56213E+02 -1.24464E+02  2.75427E+02  8.41722E+02
 -2.66297E+02 -5.32017E+01 -8.55879E+02  3.29746E+01  6.73377E+02 -3.81562E+02  1.03103E+03 -5.45707E+02
  6.23365E+02  1.32826E+02  2.26575E+03  4.60558E+02  9.76761E+02  1.16156E+03  6.98682E+01  1.29460E+03
 -1.07350E+03 -8.20067E+01 -1.26923E+03 -2.70739E+01 -5.58060E+02 -7.93793E+02  2.64565E+02 -1.46254E+02
  1.33381E+03 -3.69873E+02  2.96398E+02  5.66063E+02  1.94428E+02  1.08429E+03  2.51948E+02  8.83321E+02
 -1.42532E+02  1.01065E+03 -5.77730E+02  1.40834E+02  1.40750E+02  1.49344E+02 -7.64228E+02  4.55365E+02
 -3.98211E+02  9.01127E+02 -1.42400E+03  3.09980E+02 -9.85345E+02  1.07999E+02 -1.86711E+03 -7.72117E+02
 -7.68977E+02 -1.65319E+03  1.26424E+02 -2.05617E+03  8.34252E+02 -2.00560E+03  2.06610E+03 -1.05150E+03
  1.71434E+03 -2.73798E+02  8.73890E+02  1.19527E+03 -1.09095E+03  1.21581E+03 -4.65895E+02  1.04349E+03
 -7.72180E+02  6.53521E+02 -5.58671E+02 -1.06270E+02 -4.93178E+02  3.94150E+02 -5.11785E+02 -9.05368E+01
 -8.53605E+02  9.75344E+01 -1.03077E+03  2.67845E+02  3.08171E+02 -7.69777E+02 -5.13387E+02 -6.58655E+02
  1.13735E+03 -3.84431E+02  5.26315E+01  2.60912E+02  9.70469E+02  7.23792E+02 -6.39006E+02  9.60474E+02
 -8.53415E+02  2.07366E+03 -1.42884E+03  1.05940E+03 -1.00884E+03 -4.10365E+02 -7.52525E+02 -1.00172E+03
 -7.44562E+02 -1.11841E+03 -1.63025E+01 -8.77305E+02  3.31662E+02 -2.82113E+02  4.13044E+02  2.75439E+02
  6.08212E+02  2.93095E+02 -3.16116E+01  1.53741E+02 -3.02795E+02 -1.15484E+02 -8.08139E+01 -1.45349E+02
  2.22454E+02  6.06788E+01 -5.35930E+01  2.95827E+02 -1.83390E+02  3.45260E+02  4.18321E+02  2.54137E+02
 -1.94038E+02  3.25756E+02 -2.80717E+02 -9.34563E+01 -7.68083E+02 -3.97290E+02  4.18449E+02 -8.41767E+02
  5.27249E+02 -4.58517E+02  9.79973E+01  4.87882E+01  5.10535E+02 -8.96225E+02  8.92020E+01  5.37476E+02
  3.79991E+02  3.33133E+02 -2.42548E+01  3.85594E+02 -4.89480E+02  3.71011E+02 -3.87360E+02 -2.29157E+01
 -1.96387E+02 -1.17811E+02 -4.85869E+02  1.83329E+02 -3.96977E+02  1.85719E+02 -5.83962E+02 -4.12950E+02
 -9.34071E+02  4.77809E+02 -3.50131E+02 -6.24981E+02  5.17425E+02 -1.11070E+03  4.44622E+02 -1.66636E+02
  3.60878E+02  3.48689E+02 -2.06651E+02  5.01995E+01 -9.24491E+01  7.10072E+02 -3.56849E+02  6.20443E+02
