 $NMID ID='MM_0lb_SNR800_18hz_g60_2.RAW', FMTDAT='(8E13.5)'
 TRAMP=1., VOLUME=1. $END
  3.09915E+05  5.49551E+02  3.37571E+05  2.50586E+05  8.45572E+04  3.38021E+05 -1.32523E+05  2.50712E+05
 -1.90403E+05  8.28416E+04 -1.11691E+05 -3.24248E+04  1.01298E+03 -5.02168E+04  5.34797E+04 -9.66967E+01
  3.53315E+04  5.30118E+04 -1.67477E+04  7.51610E+04 -6.06603E+04  6.36561E+04 -8.37166E+04  3.18762E+04
 -8.07985E+04 -1.13469E+04 -5.70577E+04 -5.11175E+04 -1.50044E+04 -6.93138E+04  2.72243E+04 -4.55336E+04
  3.94717E+04  4.14430E+03  1.62486E+04  4.75650E+04 -3.42845E+04  4.68466E+04 -6.59519E+04 -3.42394E+02
 -5.29604E+04 -5.66452E+04 -6.43919E+03 -7.62658E+04  3.36458E+04 -5.43109E+04  4.73419E+04 -1.69827E+04
  4.31390E+04  1.11708E+04  3.13459E+04  2.50747E+04  1.56926E+04  2.89910E+04 -5.24291E+03  2.72019E+04
 -2.18075E+04  1.26426E+04 -1.87014E+04 -4.57600E+03  5.08172E+03 -7.55595E+03  2.17637E+04  1.19908E+04
  7.23113E+03  3.44267E+04 -3.15512E+04  3.49460E+04 -6.27212E+04  2.31227E+03 -5.67854E+04 -4.25470E+04
 -1.25728E+04 -6.23999E+04  3.91983E+04 -4.46761E+04  5.73641E+04 -2.04969E+03  3.33454E+04  3.16701E+04
 -6.01397E+03  3.50141E+04 -2.95440E+04  1.51413E+04 -2.95056E+04 -4.98614E+03 -1.63218E+04 -1.06330E+04
 -8.24521E+03 -1.25781E+04 -7.45712E+02 -1.77911E+04  7.39004E+03 -2.27408E+04  1.53142E+04 -1.35686E+04
  1.16881E+04  5.02485E+03 -7.56318E+03  1.26907E+04 -2.05018E+04 -3.77503E+03 -7.93877E+03 -3.23677E+04
  2.21193E+04 -4.22785E+04  4.68941E+04 -1.92400E+04  4.37643E+04  1.91045E+04  1.50434E+04  4.35273E+04
 -1.56841E+04  3.25318E+04 -2.47976E+04  1.63712E+03 -9.09964E+03 -2.72999E+04  2.07800E+04 -3.29912E+04
  3.99624E+04 -8.45657E+03  3.40676E+04  2.32922E+04  1.72885E+04  4.46990E+04 -7.89550E+03  4.82369E+04
 -3.01513E+04  3.24232E+04 -3.98196E+04  9.17562E+03 -4.08974E+04 -1.57833E+04 -2.24372E+04 -3.66837E+04
  7.16966E+03 -3.62378E+04  3.04238E+04 -1.39453E+04  2.81459E+04  1.08064E+04  3.73820E+03  1.85634E+04
 -1.33516E+04  7.91194E+03 -1.00592E+04 -7.58447E+03  5.66503E+03 -1.03612E+04  1.80876E+04  6.08742E+03
  1.30693E+04  2.18944E+04 -6.48818E+03  2.43248E+04 -2.19488E+04  1.03146E+04 -2.68096E+04 -5.61814E+03
 -1.90003E+04 -1.69645E+04 -6.98446E+03 -1.84536E+04  3.82976E+03 -1.74580E+04  1.42533E+04 -1.62669E+04
  2.37369E+04 -1.22767E+04  3.06310E+04  1.81645E+03  2.28374E+04  1.84793E+04  4.18375E+03  3.45852E+04
 -1.71439E+04  2.92024E+04 -2.70779E+04  1.00211E+04 -2.02806E+04 -1.02908E+04 -4.06103E+03 -1.37530E+04
  1.97252E+03 -3.50718E+03 -3.81151E+03  6.07232E+03 -1.48031E+04  5.41503E+03 -1.49077E+04 -5.90716E+03
 -9.43682E+03 -1.72021E+04  5.08867E+03 -2.13191E+04  1.38068E+04 -1.49892E+04  1.63742E+04 -1.51238E+03
  1.01139E+04  1.21432E+04 -1.05492E+03  1.74244E+04 -1.19347E+04  1.01385E+04 -1.69928E+04 -3.61306E+03
 -1.28675E+04 -1.58255E+04 -1.63905E+03 -2.08173E+04  9.58101E+03 -1.68658E+04  1.76464E+04 -8.06197E+03
  1.62601E+04  5.46704E+02  1.15473E+04  4.13760E+03  6.20292E+03  6.90374E+02  8.22200E+03 -1.15223E+03
  1.55694E+04  2.72372E+03  1.66257E+04  1.37964E+04  1.06064E+04  2.72050E+04 -2.91154E+03  2.98275E+04
 -1.76332E+04  2.33268E+04 -2.77063E+04  1.14620E+04 -2.90231E+04 -2.10529E+03 -2.40181E+04 -1.65858E+04
 -1.08449E+04 -2.35278E+04  8.07852E+03 -2.16188E+04  1.84128E+04 -1.16386E+04  1.70740E+04  4.21628E+03
  6.72209E+03  1.25884E+04 -7.65906E+03  1.14615E+04 -1.45203E+04  2.28151E+03 -1.11475E+04 -8.71749E+03
 -1.05774E+02 -1.34499E+04  6.99052E+03 -1.01019E+04  8.92072E+03 -1.16606E+03  1.97046E+03  5.64630E+03
 -5.95264E+03  1.68755E+03 -4.65036E+03 -5.08034E+03  2.87401E+02 -1.13373E+04  8.68713E+03 -1.17525E+04
  1.39836E+04 -5.58278E+03  1.43767E+04  2.92806E+03  1.24756E+04  1.08232E+04  6.00745E+03  1.63047E+04
 -2.45610E+03  1.84705E+04 -1.15470E+04  1.18307E+04 -1.27420E+04  3.13956E+03 -9.48879E+03 -2.33910E+03
 -4.54082E+03 -3.82345E+03 -9.29680E+02  1.31448E+03 -2.44734E+03  2.21857E+03 -4.37073E+03  3.79842E+03
 -8.73510E+03 -5.08708E+02 -9.78030E+03 -7.96975E+03 -3.90361E+03 -1.25896E+04  3.90018E+03 -9.59839E+03
  7.79772E+03 -3.92483E+03  5.67761E+03  2.53730E+03  2.43608E+02  3.43332E+03 -4.38890E+03  3.70325E+01
 -4.00231E+03 -6.29865E+03 -1.05244E+03 -8.42086E+03  4.63213E+03 -8.94392E+03  1.09929E+04 -4.83497E+03
  1.33024E+04  7.68804E+02  9.91143E+03  7.27587E+03  1.95939E+03  1.01621E+04 -5.63113E+03  9.22607E+03
 -7.58497E+03  3.08124E+03 -3.93513E+03 -1.30618E+03  1.40711E+03 -2.09729E+03  5.27319E+03 -9.42002E+02
  4.70676E+03  3.77651E+03  1.15892E+03  6.96761E+03 -5.06877E+03  6.85615E+03 -8.62954E+03  2.07252E+03
 -5.65428E+03 -4.40304E+03  2.19685E+02 -7.59920E+03  4.32681E+03 -3.42019E+03  4.26558E+03  1.28678E+03
  6.50360E+02  4.33476E+03 -4.29129E+03  5.52155E+03 -5.88079E+03  2.69253E+03 -5.24102E+03 -1.66365E+03
 -3.29263E+03 -6.74524E+03  1.28629E+03 -8.11758E+03  7.26634E+03 -5.32206E+03  7.58727E+03  1.05161E+03
  5.15353E+03  6.02331E+03 -1.63619E+02  8.06519E+03 -5.73840E+03  4.74532E+03 -5.74171E+03 -4.76757E+02
 -6.15189E+03 -5.88900E+03 -1.50665E+03 -5.53937E+03  2.87612E+03 -5.03743E+03  3.46541E+03 -2.88985E+03
  3.00957E+03  3.44435E+02 -1.57705E+02  1.26042E+03  3.57941E+02 -7.77328E+02  4.90365E+02 -2.61460E+03
  4.77869E+03 -1.34051E+03  6.06293E+03  8.20529E+02  6.27078E+03  3.81732E+03  5.40002E+03  8.40698E+03
 -1.74512E+03  9.58047E+03 -8.59590E+03  7.80605E+03 -1.13648E+04  1.30233E+03 -8.92025E+03 -3.17146E+03
 -4.50206E+03 -7.20154E+03 -4.21021E+02 -5.64152E+03  2.17552E+03 -2.59488E+03  2.15345E+03 -2.46205E+03
  1.35359E+03 -1.56341E+03  2.46189E+03 -2.32731E+03  3.75985E+03 -1.31072E+03  3.99438E+03  3.91256E+02
  4.96017E+03  1.36133E+03  1.70471E+03  3.73675E+03 -1.45779E+03  3.25135E+03 -5.01765E+03  3.03358E+03
 -5.61825E+03 -1.07553E+03 -2.45676E+03 -3.70208E+03  5.45392E+02 -5.78913E+03  3.55103E+03 -6.35405E+03
  5.63512E+03 -3.57627E+03  7.73183E+03  5.66237E+02  5.60962E+03  4.69714E+03  1.08952E+03  6.57333E+03
 -2.53636E+03  6.37099E+03 -3.81383E+03  2.18429E+03 -2.07364E+03 -8.71265E+02 -7.37121E+02 -8.07648E+02
 -4.21945E+02  8.05583E+02 -9.71914E+02  2.11435E+03 -2.61894E+03  1.52202E+03 -4.04873E+03 -2.53764E+02
 -1.87125E+03 -4.55039E+03  7.65155E+02 -5.27322E+03  3.05036E+03 -5.19254E+03  4.15716E+03 -9.97534E+02
  4.79095E+03  2.65000E+03  2.25877E+03  3.82600E+03 -7.20770E+02  4.92075E+03 -2.97729E+03  2.99820E+03
 -4.32239E+03  3.91351E+02 -3.70341E+03 -3.00318E+03 -1.95039E+02 -3.67946E+03  2.14238E+03 -2.95031E+03
  3.44654E+03 -1.52337E+03  2.19263E+03  5.17647E+02  3.12948E+02  1.60882E+03  7.33229E+02  7.86022E+02
  1.94227E+03  6.28841E+02  1.26694E+03  1.01392E+03  1.41602E+03  2.23717E+03  1.58891E+03  2.08870E+03
 -1.20060E+03  3.22852E+03 -2.71203E+03  4.66130E+03 -3.42268E+03  1.22977E+03 -4.71803E+03 -6.96313E+02
 -2.11999E+03 -4.20529E+03  7.59905E+02 -4.90890E+03  2.11776E+03 -2.92203E+03  3.43842E+03 -7.82690E+02
  2.81990E+03  1.91658E+03  2.79372E+02  2.48830E+03 -8.63145E+02  1.66726E+03 -9.07725E+02 -4.22300E+01
 -7.46438E+02 -1.89922E+03  1.32741E+03 -1.52436E+03  1.40972E+03 -9.75335E+02  1.38558E+03  4.23785E+02
  9.29618E+02  5.54324E+02  7.95231E+02 -2.39958E+02 -2.25834E+02  6.71243E+02  1.62612E+03 -1.52368E+02
 -1.48139E+02 -1.11863E+02  1.77364E+03  6.67037E+02  5.58404E+02  2.51427E+03 -4.16043E+02  2.87166E+03
 -2.15261E+03  1.12453E+03 -2.51247E+03  4.00252E+02 -2.05867E+03 -8.16248E+02 -1.62035E+02 -1.22859E+03
  3.58196E+02 -1.29608E+03  9.62745E+02 -8.88181E+02  7.76864E+02  1.29793E+03 -7.90741E+02  1.44616E+03
 -1.79739E+03  9.00729E+02 -1.27674E+03 -1.27068E+03 -7.32900E+02 -2.05225E+03  1.73468E+02 -1.69214E+03
  5.67237E+02 -4.12644E+02  9.70064E+02  1.14471E+02  1.44826E+03  2.34797E+02  1.91158E+01  1.51290E+03
 -5.30293E+02  9.44397E+01 -1.00738E+03 -4.68588E+02  6.71512E+02 -1.05891E+03  1.79939E+03 -7.70926E+02
  1.59785E+03  4.08287E+02  2.76416E+03  9.63400E+02  1.26942E+03  1.66228E+03 -2.75635E+02  1.91324E+03
 -1.79221E+03  5.01852E+02 -1.85877E+03  1.71195E+02 -9.49099E+02 -1.32171E+03  2.65748E+02 -4.38649E+02
  1.38383E+03 -5.41902E+02  7.47403E+02  7.64210E+02  3.21651E+02  1.41124E+03  3.36219E+02  9.62216E+02
 -2.28933E+02  1.08888E+03 -4.94305E+02  2.74008E+02  6.98784E+01  3.49902E+02 -5.44552E+02  4.14883E+02
 -6.35702E+02  1.31467E+03 -1.73552E+03  4.77870E+02 -1.83547E+03  4.28264E+02 -2.49470E+03 -1.19332E+03
 -1.22382E+03 -2.51456E+03  3.10477E+02 -3.24853E+03  1.03783E+03 -2.44577E+03  2.92854E+03 -9.91050E+02
  2.63109E+03 -8.39982E+01  1.21874E+03  1.49558E+03 -2.47811E+02  1.59463E+03 -6.54761E+02  1.26619E+03
 -9.45835E+02  8.23684E+02 -6.35975E+02 -1.46051E+02 -5.88271E+02  1.27458E+02 -8.06452E+02 -1.84189E+02
 -1.09925E+03  3.76425E+00 -1.14518E+03 -7.95892E+01  1.19170E+02 -4.67085E+02 -3.90776E+02 -7.38290E+02
  1.41707E+03 -4.67562E+02  4.86102E+02  3.86879E+02  1.34953E+03  1.08124E+03 -5.66973E+02  1.20202E+03
 -9.82128E+02  2.23675E+03 -1.59263E+03  1.21657E+03 -1.91963E+03 -9.42227E+01 -1.10602E+03 -1.18034E+03
 -1.25736E+03 -1.36442E+03  3.67004E+02 -8.51374E+02  6.05029E+02 -7.21378E+02  5.60681E+02  2.30036E+02
  5.33901E+02  4.26089E+02  1.86884E+02  6.21971E+02 -6.25876E+02  1.01034E+02 -1.77789E+02 -1.55798E+02
  4.96987E+02  1.75978E+02  1.88662E+02  4.78106E+02  6.89174E+01  4.49078E+02  3.14482E+02  2.27488E+02
 -4.88960E+02  6.87686E+02 -5.97464E+02  1.68187E+02 -7.90861E+02 -6.09510E+02  5.95959E+01 -1.41829E+03
  8.35488E+02 -9.12689E+02  5.35458E+02 -3.31822E+02  8.60167E+02 -5.99740E+02  3.95536E+02  8.79308E+02
  4.52705E+02  6.39546E+02 -3.95061E+02  6.03238E+02 -2.37924E+02  5.60787E+02 -2.76059E+02 -2.67563E+01
 -1.17138E+02  3.99623E+01 -4.48908E+02  1.10529E+02 -9.01864E+02  2.17105E+02 -7.41861E+02 -1.67811E+02
 -9.97091E+02  3.10783E+02 -2.04651E+02 -1.03980E+03  9.83488E+02 -1.49415E+03  9.73586E+02 -3.02966E+02
  8.76932E+02  1.19725E+02 -1.69325E+02  3.92669E+02 -8.07874E+01  7.16573E+02 -4.35781E+02  6.92578E+02
