 $NMID ID='MM_0lb_SNR800_10hz_g50_84.RAW', FMTDAT='(8E13.5)'
 TRAMP=1., VOLUME=1. $END
  3.09917E+05  3.34460E+02  3.37988E+05  2.50828E+05  8.49897E+04  3.38461E+05 -1.32598E+05  2.51824E+05
 -1.90452E+05  8.35803E+04 -1.12619E+05 -3.22299E+04  5.07474E+02 -5.07556E+04  5.35893E+04 -4.64022E+02
  3.54602E+04  5.28950E+04 -1.67136E+04  7.54472E+04 -6.13368E+04  6.41341E+04 -8.50381E+04  3.25995E+04
 -8.17911E+04 -1.15020E+04 -5.82033E+04 -5.21639E+04 -1.51733E+04 -7.05442E+04  2.79563E+04 -4.68873E+04
  4.09722E+04  3.53195E+03  1.66595E+04  4.86868E+04 -3.44060E+04  4.77540E+04 -6.78118E+04 -2.90264E+00
 -5.52015E+04 -5.73947E+04 -7.19727E+03 -7.86368E+04  3.45697E+04 -5.64770E+04  4.95363E+04 -1.77193E+04
  4.47803E+04  1.18674E+04  3.27793E+04  2.64591E+04  1.61539E+04  3.07418E+04 -5.99526E+03  2.79140E+04
 -2.24413E+04  1.20391E+04 -1.82496E+04 -5.51127E+03  6.82407E+03 -7.47810E+03  2.37106E+04  1.33740E+04
  7.20933E+03  3.69596E+04 -3.35836E+04  3.68190E+04 -6.54780E+04  2.05186E+03 -5.86499E+04 -4.43928E+04
 -1.22551E+04 -6.50987E+04  4.08862E+04 -4.70494E+04  6.07982E+04 -2.98237E+03  3.58972E+04  3.41046E+04
 -5.52751E+03  3.85508E+04 -3.12841E+04  1.81155E+04 -3.26233E+04 -3.60443E+03 -1.85391E+04 -1.14480E+04
 -9.15706E+03 -1.47183E+04 -6.94469E+02 -1.93259E+04  8.36363E+03 -2.34302E+04  1.56791E+04 -1.25069E+04
  1.07366E+04  6.12576E+03 -9.98003E+03  1.28887E+04 -2.28548E+04 -5.83805E+03 -8.98107E+03 -3.67401E+04
  2.45430E+04 -4.62701E+04  5.08894E+04 -2.07730E+04  4.79726E+04  2.06169E+04  1.70535E+04  4.61533E+04
 -1.65309E+04  3.52418E+04 -2.70449E+04  2.41127E+03 -1.13332E+04 -2.94023E+04  2.11808E+04 -3.60646E+04
  4.38952E+04 -1.06664E+04  3.94521E+04  2.43260E+04  2.07198E+04  5.01012E+04 -8.61438E+03  5.50775E+04
 -3.43998E+04  3.71774E+04 -4.64903E+04  1.08413E+04 -4.69805E+04 -1.82945E+04 -2.55558E+04 -4.12327E+04
  8.12758E+03 -4.12838E+04  3.35203E+04 -1.64828E+04  3.13593E+04  1.11750E+04  4.87355E+03  2.03671E+04
 -1.41287E+04  9.41902E+03 -1.10284E+04 -7.69813E+03  5.76597E+03 -1.11670E+04  1.87958E+04  5.61502E+03
  1.45927E+04  2.25789E+04 -5.42971E+03  2.70330E+04 -2.34004E+04  1.38399E+04 -3.10380E+04 -3.36357E+03
 -2.43099E+04 -1.78017E+04 -1.08961E+04 -2.44607E+04  4.05679E+03 -2.45992E+04  1.87543E+04 -2.17651E+04
  3.05397E+04 -1.34939E+04  3.68934E+04  4.63602E+03  2.62372E+04  2.32436E+04  4.05992E+03  4.04576E+04
 -1.92780E+04  3.33178E+04 -3.02723E+04  1.16093E+04 -2.20411E+04 -1.01484E+04 -4.70270E+03 -1.32451E+04
  8.82843E+02 -1.19402E+03 -6.58261E+03  7.65715E+03 -1.96304E+04  5.07537E+03 -1.93463E+04 -8.60315E+03
 -1.16947E+04 -2.21666E+04  5.73234E+03 -2.68077E+04  1.79583E+04 -1.90733E+04  2.20558E+04 -1.58963E+03
  1.41242E+04  1.59573E+04 -1.44734E+03  2.23410E+04 -1.59758E+04  1.30381E+04 -2.25806E+04 -4.55264E+03
 -1.65604E+04 -2.02932E+04 -2.08943E+03 -2.67231E+04  1.21106E+04 -2.21339E+04  2.23764E+04 -1.12135E+04
  2.09207E+04 -2.04269E+02  1.51019E+04  5.19403E+03  8.46743E+03  1.13749E+03  1.16102E+04 -1.38840E+03
  2.09121E+04  2.68289E+03  2.41883E+04  1.78595E+04  1.60830E+04  3.61587E+04 -2.43568E+03  4.22070E+04
 -2.41883E+04  3.47641E+04 -3.93288E+04  1.81049E+04 -4.24152E+04 -2.58119E+03 -3.49445E+04 -2.46312E+04
 -1.37527E+04 -3.50979E+04  1.22677E+04 -3.02006E+04  2.67142E+04 -1.48880E+04  2.28195E+04  7.22521E+03
  8.22973E+03  1.79476E+04 -1.10073E+04  1.48687E+04 -1.95432E+04  2.68686E+03 -1.49954E+04 -1.27305E+04
 -2.04467E+02 -1.86140E+04  9.91743E+03 -1.36205E+04  1.30823E+04 -9.48423E+02  3.02166E+03  8.10457E+03
 -7.97145E+03  4.07770E+03 -8.68912E+03 -6.64668E+03 -1.52310E+03 -1.70073E+04  1.14072E+04 -1.86866E+04
  2.18178E+04 -1.02593E+04  2.43078E+04  3.21728E+03  2.13039E+04  1.77339E+04  9.89522E+03  2.67453E+04
 -5.26004E+03  2.93687E+04 -1.89979E+04  1.82259E+04 -2.12688E+04  3.40484E+03 -1.43713E+04 -5.51607E+03
 -6.16257E+03 -7.30920E+03 -8.66866E+02  2.24312E+02 -2.76717E+03  3.29462E+03 -6.99912E+03  5.03937E+03
 -1.35755E+04 -8.41488E+02 -1.39435E+04 -1.11953E+04 -5.91578E+03 -1.85620E+04  6.05487E+03 -1.50652E+04
  1.23379E+04 -6.04751E+03  8.81159E+03  3.61522E+03 -1.69886E+02  5.89110E+03 -7.14653E+03 -2.90383E+02
 -6.98862E+03 -9.43085E+03 -1.33699E+03 -1.42760E+04  8.40755E+03 -1.53735E+04  1.87146E+04 -8.21391E+03
  2.20609E+04  2.31103E+03  1.60956E+04  1.32506E+04  3.13864E+03  1.77005E+04 -8.60462E+03  1.49412E+04
 -1.21030E+04  4.15749E+03 -5.95033E+03 -3.27728E+03  1.92751E+03 -3.94837E+03  7.99317E+03 -6.62837E+02
  6.87464E+03  6.50504E+03  1.06290E+03  1.16273E+04 -8.81619E+03  1.14786E+04 -1.46188E+04  2.74576E+03
 -1.00864E+04 -7.97739E+03  1.49339E+02 -1.26075E+04  8.07941E+03 -6.45863E+03  8.67470E+03  2.91525E+03
  2.10035E+03  9.23769E+03 -7.58834E+03  1.06080E+04 -1.25531E+04  4.93333E+03 -1.25542E+04 -4.48218E+03
 -7.41657E+03 -1.42946E+04  3.62128E+03 -1.67478E+04  1.42466E+04 -9.79402E+03  1.53973E+04  2.80163E+03
  9.47437E+03  1.22721E+04 -1.50502E+03  1.44224E+04 -1.07551E+04  8.03509E+03 -1.16527E+04 -9.93088E+02
 -1.00919E+04 -9.74455E+03 -1.71146E+03 -1.09044E+04  5.59109E+03 -8.91032E+03  7.39018E+03 -3.37632E+03
  4.76788E+03  1.88068E+03 -9.74570E+02  1.87604E+03 -5.61302E+02 -3.00835E+03  2.44875E+03 -7.06294E+03
  1.04745E+04 -4.39699E+03  1.48519E+04  1.44290E+03  1.42096E+04  9.77625E+03  9.76013E+03  1.87317E+04
 -4.72488E+03  2.21181E+04 -1.80465E+04  1.58135E+04 -2.33312E+04  2.81492E+03 -1.87429E+04 -8.07274E+03
 -9.02239E+03 -1.55426E+04 -2.66900E+02 -1.31273E+04  4.84152E+03 -7.38302E+03  4.64757E+03 -4.71468E+03
  3.38466E+03 -2.67559E+03  3.75783E+03 -3.55398E+03  5.63396E+03 -2.95741E+03  7.47059E+03 -1.10315E+03
  9.98893E+03  2.19120E+03  5.01065E+03  8.68402E+03 -2.24410E+03  9.83305E+03 -1.03084E+04  7.79105E+03
 -1.33955E+04 -9.72965E+02 -8.47827E+03 -9.11414E+03 -1.11190E+03 -1.43546E+04  7.95428E+03 -1.44233E+04
  1.49045E+04 -7.71867E+03  1.76497E+04  2.51362E+03  1.24704E+04  1.22676E+04  1.76664E+03  1.60206E+04
 -6.63160E+03  1.29499E+04 -9.50609E+03  4.69352E+03 -6.33089E+03 -1.57864E+03 -2.93289E+03 -2.06230E+03
 -1.43151E+03  6.02941E+01 -2.09772E+03  2.30001E+03 -5.41545E+03  2.05327E+03 -9.27774E+03 -1.41213E+03
 -6.34515E+03 -9.08302E+03  2.13880E+02 -1.31507E+04  7.98699E+03 -1.21622E+04  1.27651E+04 -3.59848E+03
  1.30637E+04  6.21513E+03  6.03901E+03  1.14240E+04 -2.89582E+03  1.33922E+04 -9.76864E+03  8.04239E+03
 -1.22901E+04  1.37255E+02 -9.38935E+03 -7.99965E+03 -8.95591E+02 -1.10592E+04  5.56344E+03 -8.04269E+03
  8.40360E+03 -2.85083E+03  5.86240E+03  2.19980E+03  2.21148E+03  4.04190E+03  1.80621E+03  1.76823E+03
  3.06987E+03  1.00749E+03  2.91264E+03  1.87556E+03  3.86274E+03  4.74307E+03  3.40557E+03  7.08403E+03
 -2.62118E+03  1.04942E+04 -9.40488E+03  1.04094E+04 -1.37774E+04  2.87591E+03 -1.39036E+04 -5.43273E+03
 -6.47413E+03 -1.35273E+04  1.89561E+03 -1.43687E+04  7.80343E+03 -9.19855E+03  1.07775E+04 -2.34841E+03
  8.59586E+03  4.98459E+03  1.96981E+03  7.79605E+03 -3.41334E+03  5.07378E+03 -5.16235E+03 -6.87491E+02
 -2.12107E+03 -5.53851E+03  2.94459E+03 -6.20814E+03  5.33854E+03 -2.65311E+03  5.14148E+03  1.34972E+03
  3.29515E+03  2.74465E+03  1.15012E+03  2.41610E+03 -1.22254E+03  1.73499E+03  1.76733E+03 -5.14168E+02
  1.62879E+03 -8.62232E+02  5.40015E+03  2.21332E+03  3.30520E+03  6.82816E+03 -1.48487E+03  9.20621E+03
 -6.52386E+03  5.94918E+03 -8.58391E+03  1.55662E+03 -7.75006E+03 -2.91067E+03 -2.95945E+03 -5.22193E+03
  9.26443E+02 -4.95260E+03  3.13537E+03 -2.27921E+03  3.04448E+03  2.35506E+03 -9.49066E+02  4.60622E+03
 -5.74082E+03  2.65200E+03 -5.90485E+03 -3.08601E+03 -3.88986E+03 -7.32782E+03  9.30081E+02 -7.12151E+03
  4.28015E+03 -4.28831E+03  5.48687E+03 -3.05425E+02  4.65320E+03  1.85819E+03  6.98805E+02  3.79666E+03
 -2.64809E+03  1.15318E+03 -2.99776E+03 -2.50857E+03  1.38895E+03 -5.57416E+03  6.59288E+03 -4.32025E+03
  8.31024E+03  7.92664E+02  7.86923E+03  5.76289E+03  2.65679E+03  8.49339E+03 -2.84116E+03  8.05982E+03
 -7.11408E+03  3.47512E+03 -7.08627E+03 -1.40720E+03 -3.62234E+03 -5.45100E+03  1.34435E+03 -5.08205E+03
  5.29752E+03 -2.93251E+03  4.35606E+03  2.27981E+03  1.32230E+03  4.87599E+03 -6.84422E+02  3.92783E+03
 -2.15953E+03  2.95405E+03 -1.66907E+03  5.94200E+02 -6.07780E+02  9.10025E+02 -1.58351E+03  1.92984E+03
 -2.06591E+03  3.35779E+03 -5.97076E+03  2.88975E+03 -8.50911E+03  1.71374E+02 -9.32448E+03 -5.62529E+03
 -4.95747E+03 -1.10847E+04  1.65973E+03 -1.32669E+04  7.78219E+03 -9.88900E+03  1.22695E+04 -4.07300E+03
  1.11641E+04  2.10977E+03  6.95362E+03  8.16077E+03  5.87600E+02  8.67890E+03 -3.53723E+03  6.38585E+03
 -5.15005E+03  2.76120E+03 -3.04909E+03 -1.08694E+03 -7.89540E+02 -6.89230E+02 -7.21744E+02  3.09165E+01
 -1.95678E+03 -4.12403E+00 -1.71284E+03 -5.22002E+02 -6.30678E+02 -2.22508E+03  4.22915E+02 -3.29064E+03
  4.10128E+03 -3.03602E+03  4.68757E+03  2.48071E+02  6.06008E+03  4.57448E+03  1.54088E+03  8.49661E+03
 -4.23565E+03  1.02551E+04 -9.15392E+03  6.12936E+03 -1.05888E+04 -1.13702E+03 -8.23793E+03 -6.70545E+03
 -3.02274E+03 -8.52259E+03  2.33954E+03 -8.08048E+03  5.71836E+03 -4.33576E+03  5.52318E+03  1.89719E+00
  2.87300E+03  2.97444E+03 -3.65640E+02  2.62516E+03 -1.62928E+03 -4.64465E+02 -2.66924E+02 -2.31767E+03
  2.53436E+03 -1.13573E+03  3.67136E+03  1.15022E+03  1.96194E+03  3.49259E+03  1.98582E+02  4.48723E+03
 -3.83331E+03  4.05043E+03 -5.52134E+03  4.85605E+02 -5.21826E+03 -4.21941E+03 -8.39589E+02 -6.99940E+03
  4.17206E+03 -6.36799E+03  6.40982E+03 -1.88541E+03  6.32323E+03  1.61770E+03  3.70866E+03  5.33273E+03
  8.60505E+02  5.67731E+03 -2.28464E+03  4.56202E+03 -3.43348E+03  2.44044E+03 -2.80617E+03  6.62444E+02
 -1.29349E+03 -3.26290E+02 -1.32155E+03  8.27746E+02 -2.86621E+03  1.10072E+03 -4.63693E+03 -1.19435E+03
 -4.18641E+03 -3.03289E+03 -1.18310E+03 -5.77846E+03  3.26416E+03 -6.15789E+03  5.01992E+03 -2.72369E+03
  5.44067E+03  6.06751E+02  3.24894E+03  4.18367E+03 -4.37052E+02  6.15445E+03 -4.42234E+03  3.58181E+03
