 $NMID ID='MM_0lb_SNR800_12hz_g55_5.RAW', FMTDAT='(8E13.5)'
 TRAMP=1., VOLUME=1. $END
  3.10079E+05  5.01525E+02  3.37520E+05  2.50653E+05  8.45722E+04  3.37958E+05 -1.33296E+05  2.51675E+05
 -1.90139E+05  8.35572E+04 -1.11851E+05 -3.25236E+04  5.38385E+02 -5.07137E+04  5.38304E+04 -4.79362E+02
  3.53854E+04  5.26447E+04 -1.68928E+04  7.56244E+04 -6.10658E+04  6.40952E+04 -8.46888E+04  3.23618E+04
 -8.17939E+04 -1.15313E+04 -5.78928E+04 -5.21169E+04 -1.47664E+04 -7.01858E+04  2.78669E+04 -4.61936E+04
  4.08536E+04  3.80107E+03  1.64536E+04  4.80014E+04 -3.46200E+04  4.77586E+04 -6.77798E+04 -2.32009E+02
 -5.44917E+04 -5.75208E+04 -7.07588E+03 -7.80630E+04  3.44355E+04 -5.62100E+04  4.89804E+04 -1.80266E+04
  4.40389E+04  1.16054E+04  3.25424E+04  2.59451E+04  1.59720E+04  3.02081E+04 -5.63160E+03  2.76681E+04
 -2.22304E+04  1.24153E+04 -1.84904E+04 -5.27578E+03  6.69337E+03 -7.51423E+03  2.29503E+04  1.31956E+04
  6.97111E+03  3.66913E+04 -3.33435E+04  3.64294E+04 -6.45150E+04  2.08799E+03 -5.82582E+04 -4.39666E+04
 -1.22676E+04 -6.47230E+04  4.06214E+04 -4.65296E+04  5.98736E+04 -2.36491E+03  3.55752E+04  3.37288E+04
 -5.75292E+03  3.79395E+04 -3.11652E+04  1.76642E+04 -3.17041E+04 -4.06783E+03 -1.81079E+04 -1.17897E+04
 -9.11183E+03 -1.40535E+04 -7.21730E+02 -1.87561E+04  7.75795E+03 -2.29815E+04  1.56413E+04 -1.30906E+04
  1.07288E+04  5.74797E+03 -9.63591E+03  1.27784E+04 -2.21754E+04 -5.76705E+03 -8.49699E+03 -3.57411E+04
  2.40155E+04 -4.52894E+04  5.05413E+04 -2.03328E+04  4.72160E+04  2.01953E+04  1.65609E+04  4.56333E+04
 -1.67324E+04  3.47205E+04 -2.67742E+04  2.23838E+03 -1.09396E+04 -2.87322E+04  2.15516E+04 -3.53625E+04
  4.27565E+04 -9.96374E+03  3.79814E+04  2.42658E+04  2.01095E+04  4.90028E+04 -8.30095E+03  5.34509E+04
 -3.37562E+04  3.60511E+04 -4.54154E+04  1.03457E+04 -4.52159E+04 -1.77030E+04 -2.48646E+04 -4.02425E+04
  7.63555E+03 -4.02026E+04  3.28236E+04 -1.59164E+04  3.08957E+04  1.11698E+04  4.23793E+03  1.98992E+04
 -1.35779E+04  9.10149E+03 -1.07077E+04 -7.62125E+03  5.83780E+03 -1.13596E+04  1.80894E+04  5.32890E+03
  1.42554E+04  2.25664E+04 -5.69473E+03  2.62212E+04 -2.28119E+04  1.31036E+04 -2.99891E+04 -4.07748E+03
 -2.31460E+04 -1.81444E+04 -9.96425E+03 -2.29486E+04  4.26720E+03 -2.27123E+04  1.79812E+04 -2.10068E+04
  2.93443E+04 -1.33843E+04  3.54869E+04  4.22518E+03  2.54768E+04  2.24674E+04  4.39919E+03  3.90482E+04
 -1.89246E+04  3.25001E+04 -2.94510E+04  1.13856E+04 -2.15802E+04 -1.02701E+04 -4.34155E+03 -1.31660E+04
  1.17532E+03 -2.38090E+03 -6.39857E+03  7.44455E+03 -1.83675E+04  5.13025E+03 -1.81337E+04 -8.43680E+03
 -1.11930E+04 -2.08374E+04  5.69296E+03 -2.54526E+04  1.68942E+04 -1.82102E+04  2.03544E+04 -1.82343E+03
  1.29533E+04  1.50220E+04 -1.36440E+03  2.09838E+04 -1.50833E+04  1.22178E+04 -2.13557E+04 -4.22760E+03
 -1.55701E+04 -1.90955E+04 -2.15674E+03 -2.56451E+04  1.15907E+04 -2.11236E+04  2.11242E+04 -1.10555E+04
  1.98977E+04  3.36221E+01  1.42942E+04  4.70071E+03  7.59743E+03  1.03459E+03  1.06472E+04 -1.87951E+03
  2.01593E+04  3.01543E+03  2.22737E+04  1.67446E+04  1.49604E+04  3.41921E+04 -3.10182E+03  3.90923E+04
 -2.27555E+04  3.20287E+04 -3.71637E+04  1.65317E+04 -3.89360E+04 -2.94161E+03 -3.22202E+04 -2.26806E+04
 -1.31266E+04 -3.24341E+04  1.13560E+04 -2.86530E+04  2.45716E+04 -1.41303E+04  2.18822E+04  6.50629E+03
  8.11668E+03  1.65169E+04 -1.01615E+04  1.44580E+04 -1.80643E+04  2.47497E+03 -1.36604E+04 -1.14840E+04
 -1.22549E+02 -1.72121E+04  9.20928E+03 -1.27546E+04  1.19924E+04 -1.24761E+03  2.91584E+03  7.61117E+03
 -7.94591E+03  3.62652E+03 -7.54237E+03 -6.47611E+03 -1.50606E+03 -1.55312E+04  1.07358E+04 -1.68153E+04
  1.94611E+04 -9.56063E+03  2.19272E+04  3.18411E+03  1.90494E+04  1.55286E+04  9.02820E+03  2.44136E+04
 -4.35270E+03  2.65936E+04 -1.68938E+04  1.62076E+04 -1.90492E+04  3.61146E+03 -1.32001E+04 -4.96137E+03
 -5.98337E+03 -5.89745E+03 -7.79395E+02  6.23536E+02 -2.67623E+03  2.86796E+03 -6.32908E+03  4.84425E+03
 -1.25884E+04 -6.72470E+02 -1.26744E+04 -1.06657E+04 -5.03884E+03 -1.70851E+04  5.20884E+03 -1.36735E+04
  1.12736E+04 -5.49585E+03  8.07106E+03  3.38764E+03  1.42233E+02  4.94534E+03 -6.57549E+03 -7.94936E+01
 -6.37073E+03 -8.55885E+03 -1.11620E+03 -1.29576E+04  7.55822E+03 -1.36915E+04  1.70934E+04 -7.37102E+03
  1.99364E+04  1.95079E+03  1.42739E+04  1.17501E+04  3.22986E+03  1.58625E+04 -8.27581E+03  1.34486E+04
 -1.09568E+04  3.97627E+03 -5.24747E+03 -2.94182E+03  1.76703E+03 -3.59468E+03  7.32921E+03 -1.05961E+03
  6.47045E+03  6.01106E+03  1.07115E+03  1.03331E+04 -7.63427E+03  9.80669E+03 -1.27645E+04  2.62602E+03
 -8.66763E+03 -6.81126E+03  2.37949E+02 -1.12844E+04  7.27629E+03 -5.98586E+03  7.40981E+03  2.73631E+03
  1.51097E+03  7.96911E+03 -7.05217E+03  9.15617E+03 -1.04670E+04  4.45807E+03 -1.02421E+04 -3.69563E+03
 -6.14199E+03 -1.24870E+04  3.16160E+03 -1.45793E+04  1.22099E+04 -8.86831E+03  1.33393E+04  2.19012E+03
  8.28697E+03  1.05693E+04 -9.45447E+02  1.27438E+04 -9.39911E+03  7.31302E+03 -9.81808E+03 -1.11543E+03
 -9.04387E+03 -8.33706E+03 -1.37040E+03 -9.42785E+03  4.83308E+03 -8.16250E+03  5.95216E+03 -3.24443E+03
  4.21509E+03  1.25788E+03 -4.30202E+02  1.56177E+03 -7.07422E+02 -2.41153E+03  1.69202E+03 -5.58188E+03
  8.45335E+03 -3.63273E+03  1.22357E+04  1.46472E+03  1.22182E+04  8.28005E+03  8.64189E+03  1.62265E+04
 -3.64326E+03  1.86357E+04 -1.56808E+04  1.36138E+04 -2.02875E+04  2.46530E+03 -1.59525E+04 -6.82654E+03
 -7.96211E+03 -1.35074E+04 -1.31537E+02 -1.12186E+04  3.96923E+03 -5.82912E+03  4.13264E+03 -4.22280E+03
  3.10922E+03 -2.32733E+03  3.21691E+03 -2.79044E+03  5.04610E+03 -2.76429E+03  6.43091E+03 -9.50085E+02
  8.42779E+03  1.52443E+03  4.35178E+03  7.18335E+03 -2.18322E+03  8.10550E+03 -8.66219E+03  6.59529E+03
 -1.14197E+04 -1.43666E+03 -6.63026E+03 -7.62390E+03 -4.28924E+02 -1.18356E+04  6.61287E+03 -1.15966E+04
  1.22743E+04 -6.69041E+03  1.48423E+04  1.57636E+03  1.02071E+04  1.02851E+04  1.63665E+03  1.34559E+04
 -5.42750E+03  1.09951E+04 -7.77475E+03  3.93631E+03 -5.12889E+03 -1.69637E+03 -2.09626E+03 -1.55688E+03
 -1.04496E+03  1.41790E+02 -1.79078E+03  2.41577E+03 -4.94532E+03  1.86595E+03 -7.91710E+03 -1.12992E+03
 -5.27310E+03 -8.07713E+03  1.64872E+02 -1.08335E+04  6.15036E+03 -9.86019E+03  1.05571E+04 -2.68915E+03
  1.03505E+04  5.21907E+03  5.08877E+03  9.20870E+03 -1.92095E+03  1.09982E+04 -7.46218E+03  6.74417E+03
 -1.00585E+04  4.71323E+02 -8.20826E+03 -6.66597E+03 -8.84840E+02 -9.06304E+03  4.64348E+03 -6.71514E+03
  6.59044E+03 -2.05991E+03  4.23661E+03  1.67585E+03  1.42550E+03  3.26425E+03  1.14588E+03  1.53381E+03
  2.47266E+03  1.04170E+03  2.34560E+03  1.52769E+03  3.08917E+03  3.89857E+03  2.84726E+03  5.17305E+03
 -2.09631E+03  8.25438E+03 -7.36221E+03  8.57334E+03 -1.03884E+04  1.96949E+03 -1.13117E+04 -4.14159E+03
 -5.24841E+03 -1.01139E+04  1.52629E+03 -1.19223E+04  6.10284E+03 -7.40481E+03  8.78370E+03 -2.00872E+03
  6.37111E+03  4.01703E+03  1.49011E+03  6.13011E+03 -2.67712E+03  3.93540E+03 -4.00781E+03 -6.17625E+02
 -1.79918E+03 -4.27637E+03  2.62202E+03 -4.52564E+03  3.96984E+03 -2.23991E+03  4.04650E+03  8.69735E+02
  2.68707E+03  1.91615E+03  8.99487E+02  1.56479E+03 -7.75628E+02  1.55114E+03  1.58911E+03  5.56042E+01
  1.48337E+03 -3.09011E+02  4.35990E+03  2.11645E+03  2.10250E+03  5.49946E+03 -1.10059E+03  7.31039E+03
 -4.81397E+03  4.88183E+03 -6.60798E+03  9.78047E+02 -5.98996E+03 -2.29206E+03 -2.41025E+03 -3.84868E+03
  5.25834E+02 -4.16900E+03  2.39643E+03 -1.85271E+03  2.40139E+03  2.46109E+03 -1.34762E+03  3.47555E+03
 -3.96270E+03  1.54628E+03 -4.60423E+03 -2.39417E+03 -2.49808E+03 -5.72212E+03  7.81982E+02 -5.28872E+03
  3.04358E+03 -2.88569E+03  3.75278E+03 -2.50685E+02  3.38109E+03  9.14584E+02  6.00048E+02  3.19654E+03
 -1.96510E+03  1.29169E+03 -2.53427E+03 -1.71414E+03  1.32630E+03 -4.28938E+03  4.97175E+03 -3.39943E+03
  6.12036E+03  3.13287E+02  6.37725E+03  4.41242E+03  2.22854E+03  6.30034E+03 -1.66861E+03  6.19823E+03
 -5.28184E+03  2.47692E+03 -5.21269E+03 -7.84503E+02 -2.83698E+03 -4.13450E+03  1.11520E+03 -3.91130E+03
  4.39391E+03 -2.22029E+03  3.12043E+03  1.71155E+03  8.59779E+02  3.73744E+03 -1.63329E+02  3.54950E+03
 -1.48195E+03  2.18861E+03 -1.68598E+03  6.35608E+02 -2.35967E+02  8.80704E+02 -1.22414E+03  1.56466E+03
 -1.24982E+03  2.85876E+03 -4.41632E+03  1.91824E+03 -6.09759E+03  1.41015E+02 -7.40942E+03 -4.27654E+03
 -3.69743E+03 -8.23018E+03  1.45890E+03 -9.33240E+03  5.28068E+03 -7.61197E+03  9.22447E+03 -3.08137E+03
  8.06032E+03  1.63362E+03  4.85522E+03  5.93486E+03 -1.35989E+02  6.29190E+03 -2.84951E+03  4.80417E+03
 -3.23624E+03  1.95606E+03 -2.49968E+03 -5.60074E+02 -8.67647E+02 -5.05226E+02 -7.17385E+02 -1.20728E+02
 -1.30329E+03  1.81354E+02 -1.54793E+03 -4.00072E+01 -1.96213E+02 -1.41972E+03 -1.46278E+02 -2.35577E+03
  3.22610E+03 -1.74250E+03  3.48688E+03  1.57437E+02  4.38395E+03  3.59951E+03  1.07958E+03  6.17632E+03
 -3.03373E+03  6.99778E+03 -6.27328E+03  4.58146E+03 -7.56391E+03 -4.74651E+02 -5.67373E+03 -4.86178E+03
 -2.68423E+03 -6.10227E+03  1.49170E+03 -5.38007E+03  3.91954E+03 -3.25779E+03  3.94545E+03  2.07387E+02
  2.25457E+03  1.56862E+03 -3.94230E+02  1.87945E+03 -1.32565E+03 -2.53398E+02 -1.85614E+02 -1.14877E+03
  2.03336E+03 -6.64052E+02  1.99432E+03  6.01782E+02  1.43469E+03  2.07275E+03  3.42854E+02  3.03710E+03
 -2.73940E+03  2.73106E+03 -4.07526E+03  3.36443E+02 -3.57154E+03 -2.93636E+03 -4.79950E+02 -5.01629E+03
  2.69320E+03 -4.09449E+03  4.41846E+03 -9.05536E+02  4.37048E+03  8.08480E+02  2.37072E+03  3.72328E+03
  9.61924E+02  3.69913E+03 -1.39479E+03  3.34776E+03 -2.42600E+03  1.56734E+03 -2.02745E+03  4.16672E+02
 -9.04878E+02 -3.33183E+01 -1.35345E+03  6.04757E+02 -2.12802E+03  6.18505E+02 -2.94835E+03 -5.66975E+02
 -2.75476E+03 -1.70341E+03 -1.12212E+03 -4.05375E+03  1.97662E+03 -4.41983E+03  3.43037E+03 -1.68299E+03
  4.07970E+03  5.93683E+02  2.02008E+03  2.61557E+03 -2.65021E+02  4.08095E+03 -2.80167E+03  2.39733E+03
