 $NMID ID='MM_0lb_SNR800_9hz_g55_3.RAW', FMTDAT='(8E13.5)'
 TRAMP=1., VOLUME=1. $END
  3.09816E+05  3.65523E+02  3.37652E+05  2.50756E+05  8.48012E+04  3.38703E+05 -1.32628E+05  2.52292E+05
 -1.90760E+05  8.38953E+04 -1.12566E+05 -3.24882E+04 -3.78843E+02 -5.07331E+04  5.35135E+04 -7.12023E+02
  3.56612E+04  5.30484E+04 -1.63660E+04  7.61432E+04 -6.18086E+04  6.45507E+04 -8.52683E+04  3.24353E+04
 -8.27495E+04 -1.17846E+04 -5.82104E+04 -5.29080E+04 -1.54978E+04 -7.14230E+04  2.80621E+04 -4.65175E+04
  4.09653E+04  3.86848E+03  1.64346E+04  4.85420E+04 -3.47129E+04  4.83381E+04 -6.79796E+04 -3.89059E+02
 -5.52484E+04 -5.78606E+04 -7.25782E+03 -7.94581E+04  3.46584E+04 -5.75169E+04  4.99692E+04 -1.85567E+04
  4.56630E+04  1.15502E+04  3.29951E+04  2.66790E+04  1.56946E+04  3.03235E+04 -6.03090E+03  2.79740E+04
 -2.22135E+04  1.20507E+04 -1.79280E+04 -5.59697E+03  7.03817E+03 -7.36585E+03  2.37891E+04  1.39332E+04
  6.95775E+03  3.80730E+04 -3.38340E+04  3.72423E+04 -6.58291E+04  1.93529E+03 -5.89097E+04 -4.51205E+04
 -1.23216E+04 -6.59579E+04  4.17661E+04 -4.77423E+04  6.14021E+04 -2.59907E+03  3.66946E+04  3.43303E+04
 -5.01020E+03  3.93176E+04 -3.19902E+04  1.91989E+04 -3.41900E+04 -3.64782E+03 -1.95128E+04 -1.22065E+04
 -9.37006E+03 -1.50335E+04 -5.08487E+02 -1.99376E+04  8.61036E+03 -2.35260E+04  1.64149E+04 -1.30275E+04
  1.04807E+04  6.56987E+03 -1.09542E+04  1.28441E+04 -2.37088E+04 -6.55462E+03 -8.61886E+03 -3.81459E+04
  2.55898E+04 -4.73378E+04  5.23348E+04 -2.09209E+04  4.89334E+04  2.07147E+04  1.71098E+04  4.76336E+04
 -1.69769E+04  3.63193E+04 -2.78400E+04  2.91529E+03 -1.17746E+04 -2.96198E+04  2.15188E+04 -3.74843E+04
  4.49207E+04 -1.15190E+04  4.11035E+04  2.54542E+04  2.17455E+04  5.11089E+04 -8.35835E+03  5.65913E+04
 -3.56419E+04  3.88938E+04 -4.76607E+04  1.09553E+04 -4.79912E+04 -1.88082E+04 -2.64552E+04 -4.25026E+04
  7.81369E+03 -4.27504E+04  3.41167E+04 -1.72265E+04  3.25414E+04  1.07016E+04  4.95681E+03  2.09281E+04
 -1.40787E+04  9.95732E+03 -1.14349E+04 -7.33737E+03  5.44827E+03 -1.13002E+04  1.89141E+04  5.49226E+03
  1.54137E+04  2.28829E+04 -4.67278E+03  2.74874E+04 -2.36906E+04  1.46740E+04 -3.18312E+04 -2.72952E+03
 -2.57783E+04 -1.82168E+04 -1.22977E+04 -2.55394E+04  4.71650E+03 -2.65296E+04  2.03016E+04 -2.33948E+04
  3.28346E+04 -1.41856E+04  3.81409E+04  5.39669E+03  2.74996E+04  2.48404E+04  4.25547E+03  4.13025E+04
 -2.02017E+04  3.43333E+04 -3.02944E+04  1.16402E+04 -2.24333E+04 -1.04903E+04 -5.06528E+03 -1.30914E+04
  9.82610E+02 -1.14875E+03 -7.88412E+03  8.14071E+03 -2.08803E+04  4.69524E+03 -2.03898E+04 -9.55861E+03
 -1.21173E+04 -2.35607E+04  6.21600E+03 -2.83926E+04  1.93080E+04 -2.01330E+04  2.31851E+04 -1.83881E+03
  1.49845E+04  1.65412E+04 -1.29335E+03  2.35939E+04 -1.69404E+04  1.35774E+04 -2.43478E+04 -4.78225E+03
 -1.75562E+04 -2.11570E+04 -2.41872E+03 -2.88543E+04  1.25348E+04 -2.39392E+04  2.34054E+04 -1.23183E+04
  2.20646E+04 -4.55197E+02  1.61771E+04  5.18655E+03  9.18625E+03  1.28534E+03  1.27283E+04 -1.95657E+03
  2.25583E+04  2.62837E+03  2.65194E+04  1.87982E+04  1.78585E+04  3.79711E+04 -2.55867E+03  4.48256E+04
 -2.55649E+04  3.75323E+04 -4.28183E+04  1.93415E+04 -4.55121E+04 -3.34215E+03 -3.69581E+04 -2.66249E+04
 -1.43952E+04 -3.80009E+04  1.37038E+04 -3.35157E+04  2.86380E+04 -1.54353E+04  2.42313E+04  8.00974E+03
  8.44420E+03  1.92744E+04 -1.17696E+04  1.58165E+04 -2.11020E+04  2.65767E+03 -1.55884E+04 -1.31368E+04
 -2.47607E+02 -1.98368E+04  1.07356E+04 -1.46210E+04  1.34776E+04 -1.29390E+03  3.55645E+03  8.96044E+03
 -8.79066E+03  4.25904E+03 -9.49194E+03 -7.14016E+03 -1.88441E+03 -1.83789E+04  1.22136E+04 -2.05433E+04
  2.34660E+04 -1.19724E+04  2.73400E+04  3.58038E+03  2.38153E+04  1.91101E+04  1.08596E+04  3.00540E+04
 -6.02887E+03  3.21558E+04 -2.14312E+04  2.00100E+04 -2.32325E+04  3.89516E+03 -1.58552E+04 -6.41960E+03
 -7.01455E+03 -7.79585E+03 -9.57221E+02  2.34828E+02 -3.08174E+03  3.92046E+03 -7.97788E+03  5.52958E+03
 -1.42243E+04 -3.91104E+02 -1.50915E+04 -1.19166E+04 -5.99797E+03 -1.98882E+04  6.44297E+03 -1.62517E+04
  1.34163E+04 -6.51650E+03  9.30966E+03  4.51587E+03 -2.82482E+02  6.52130E+03 -7.88087E+03 -2.26918E+02
 -7.76115E+03 -1.00662E+04 -1.09387E+03 -1.57415E+04  8.85420E+03 -1.68704E+04  2.03758E+04 -9.10536E+03
  2.43377E+04  2.64641E+03  1.77189E+04  1.47861E+04  3.84879E+03  1.97647E+04 -9.97595E+03  1.58915E+04
 -1.30582E+04  4.58513E+03 -6.69959E+03 -3.68300E+03  2.05600E+03 -4.83103E+03  8.01482E+03 -1.09970E+03
  7.46983E+03  7.28315E+03  1.54277E+03  1.34359E+04 -9.44368E+03  1.20504E+04 -1.61577E+04  2.62098E+03
 -1.09166E+04 -8.58522E+03 -1.80795E+01 -1.38270E+04  9.30363E+03 -6.96075E+03  9.73021E+03  3.84859E+03
  2.40073E+03  1.07549E+04 -8.14644E+03  1.21641E+04 -1.41099E+04  5.42900E+03 -1.44597E+04 -5.49812E+03
 -8.28111E+03 -1.67356E+04  4.32406E+03 -1.86155E+04  1.57282E+04 -1.11147E+04  1.76950E+04  3.41030E+03
  1.03108E+04  1.40433E+04 -1.91730E+03  1.59057E+04 -1.18507E+04  9.42505E+03 -1.33058E+04 -1.60567E+03
 -1.08834E+04 -1.09318E+04 -1.63469E+03 -1.26102E+04  6.42373E+03 -9.61238E+03  8.23907E+03 -3.93454E+03
  5.06252E+03  2.47441E+03 -1.23111E+03  2.08776E+03 -1.02279E+03 -3.87389E+03  3.05889E+03 -8.18134E+03
  1.21456E+04 -5.16798E+03  1.70071E+04  1.86145E+03  1.62813E+04  1.14752E+04  1.05077E+04  2.17202E+04
 -4.88237E+03  2.48465E+04 -2.02574E+04  1.84839E+04 -2.65696E+04  3.42348E+03 -2.13598E+04 -9.20617E+03
 -1.06505E+04 -1.78024E+04 -9.34705E+00 -1.50617E+04  5.53328E+03 -8.22966E+03  5.41107E+03 -5.12255E+03
  3.74931E+03 -2.90142E+03  4.31754E+03 -3.88655E+03  6.11933E+03 -3.47167E+03  8.64555E+03 -1.54870E+03
  1.10408E+04  2.71683E+03  5.75861E+03  9.94845E+03 -1.99170E+03  1.18500E+04 -1.16037E+04  9.14226E+03
 -1.56978E+04 -1.85317E+03 -9.92526E+03 -1.06352E+04 -1.12984E+03 -1.70936E+04  8.75911E+03 -1.66522E+04
  1.69406E+04 -8.84951E+03  2.02859E+04  3.21179E+03  1.40639E+04  1.43942E+04  2.27163E+03  1.85608E+04
 -7.55872E+03  1.52261E+04 -1.08868E+04  5.39543E+03 -6.82391E+03 -1.69796E+03 -3.41812E+03 -2.10567E+03
 -1.48992E+03 -1.65422E+02 -2.82050E+03  3.52261E+03 -6.21306E+03  2.40459E+03 -1.04515E+04 -1.54180E+03
 -7.30703E+03 -1.06048E+04  2.37865E+02 -1.53933E+04  9.73006E+03 -1.39666E+04  1.54773E+04 -4.35512E+03
  1.46052E+04  7.55947E+03  7.26159E+03  1.39731E+04 -2.95277E+03  1.57844E+04 -1.13468E+04  9.63437E+03
 -1.44931E+04 -3.15079E+00 -1.11262E+04 -9.17529E+03 -1.03368E+03 -1.29586E+04  6.28467E+03 -9.70306E+03
  9.96174E+03 -3.12259E+03  6.74558E+03  2.36845E+03  2.48255E+03  4.78784E+03  1.22994E+03  2.19052E+03
  2.62470E+03  1.14773E+03  3.91223E+03  2.18893E+03  4.81782E+03  5.28787E+03  4.37498E+03  8.05100E+03
 -2.97070E+03  1.22138E+04 -1.07858E+04  1.22079E+04 -1.55364E+04  3.12087E+03 -1.63142E+04 -7.37966E+03
 -7.75566E+03 -1.55857E+04  2.19676E+03 -1.73109E+04  9.47784E+03 -1.10941E+04  1.24792E+04 -2.57205E+03
  1.01245E+04  5.77412E+03  2.15861E+03  9.10550E+03 -4.29504E+03  5.63093E+03 -6.58172E+03 -8.70939E+02
 -3.21982E+03 -6.88919E+03  3.56418E+03 -7.05602E+03  6.77126E+03 -3.23981E+03  6.29765E+03  1.49068E+03
  3.73879E+03  3.18997E+03  1.67663E+03  2.53922E+03 -7.96830E+02  2.09628E+03  1.62477E+03 -4.21370E+02
  2.23350E+03 -8.96679E+02  6.12665E+03  2.33213E+03  3.83618E+03  8.47501E+03 -1.27236E+03  1.12978E+04
 -7.88216E+03  7.45497E+03 -1.02904E+04  1.86187E+03 -9.37036E+03 -3.63962E+03 -3.85251E+03 -6.38188E+03
  8.13470E+02 -6.62297E+03  3.85977E+03 -2.73911E+03  3.45054E+03  3.27629E+03 -1.53876E+03  5.43964E+03
 -7.03114E+03  3.07308E+03 -7.63276E+03 -3.44293E+03 -4.03878E+03 -8.62966E+03  1.18519E+03 -8.74265E+03
  5.78174E+03 -5.48419E+03  6.42585E+03 -9.20453E+02  4.89048E+03  2.48292E+03  8.32886E+02  4.90721E+03
 -3.11233E+03  1.20620E+03 -3.65323E+03 -3.17214E+03  1.38996E+03 -6.83619E+03  7.96385E+03 -5.41007E+03
  9.74870E+03  8.90759E+02  9.78795E+03  6.98337E+03  3.04704E+03  1.09150E+04 -4.04779E+03  1.00377E+04
 -8.45302E+03  4.47584E+03 -9.01937E+03 -1.22225E+03 -4.86640E+03 -6.31584E+03  1.53766E+03 -6.45408E+03
  6.55207E+03 -3.45172E+03  5.18806E+03  3.17345E+03  1.82590E+03  5.76390E+03 -7.31796E+02  5.15066E+03
 -2.58942E+03  3.42032E+03 -2.37913E+03  1.08912E+03 -1.42845E+03  9.18855E+02 -1.85290E+03  1.93649E+03
 -2.81183E+03  4.40622E+03 -7.30748E+03  3.83805E+03 -1.03066E+04 -1.08387E+02 -1.17996E+04 -6.67115E+03
 -6.16558E+03 -1.32579E+04  3.18348E+03 -1.59300E+04  9.89981E+03 -1.23351E+04  1.46268E+04 -4.66474E+03
  1.43551E+04  2.96330E+03  8.83430E+03  9.74292E+03  9.93781E+02  1.12448E+04 -4.73561E+03  8.12726E+03
 -6.24185E+03  2.63732E+03 -3.90248E+03 -1.04122E+03 -1.32073E+03 -1.09335E+03 -6.89057E+02 -1.73985E+02
 -1.96880E+03  1.00164E+02 -2.07741E+03 -3.10706E+02 -6.38171E+02 -2.53305E+03  4.92593E+01 -4.25180E+03
  4.68319E+03 -3.43610E+03  6.69105E+03 -5.68969E+02  7.60006E+03  5.65023E+03  2.15724E+03  1.09461E+04
 -5.16078E+03  1.22835E+04 -1.14580E+04  6.99302E+03 -1.35734E+04 -8.51771E+02 -9.77552E+03 -8.40187E+03
 -3.90784E+03 -1.12233E+04  3.08716E+03 -1.06045E+04  6.96435E+03 -5.54296E+03  7.43584E+03  3.27687E+02
  4.27842E+03  3.48976E+03 -2.47977E+02  3.21742E+03 -2.04074E+03 -3.46260E+02 -3.33507E+02 -2.74271E+03
  3.84428E+03 -1.55002E+03  4.18179E+03  1.54715E+03  3.08345E+03  4.51187E+03  6.25193E+01  5.81529E+03
 -4.79147E+03  4.87549E+03 -7.41865E+03  9.62167E+02 -6.37246E+03 -5.33602E+03 -9.51388E+02 -9.51381E+03
  5.21955E+03 -7.79443E+03  8.55681E+03 -2.71432E+03  8.34683E+03  2.00315E+03  4.89085E+03  6.45407E+03
  1.05856E+03  7.57035E+03 -3.16300E+03  5.72594E+03 -4.42680E+03  3.25430E+03 -3.63520E+03  5.31715E+02
 -1.94852E+03 -9.36383E+01 -2.52144E+03  1.37746E+03 -3.55597E+03  1.05713E+03 -5.68364E+03 -9.44050E+02
 -5.43010E+03 -3.59934E+03 -1.65951E+03 -7.44863E+03  3.83761E+03 -7.75831E+03  6.56073E+03 -3.56717E+03
  7.73559E+03  9.66861E+02  3.76361E+03  4.92755E+03 -8.70640E+02  7.33346E+03 -5.68051E+03  4.80809E+03
