 $NMID ID='MM_0lb_SNR800_20hz_g60_95.RAW', FMTDAT='(8E13.5)'
 TRAMP=1., VOLUME=1. $END
  3.09989E+05  5.50674E+02  3.37493E+05  2.50896E+05  8.44083E+04  3.37532E+05 -1.32627E+05  2.50716E+05
 -1.89917E+05  8.27454E+04 -1.11434E+05 -3.28042E+04  1.31773E+03 -5.04973E+04  5.39143E+04  6.66847E+01
  3.51479E+04  5.29851E+04 -1.69276E+04  7.49786E+04 -6.06160E+04  6.32468E+04 -8.31735E+04  3.17043E+04
 -8.02968E+04 -1.12803E+04 -5.69730E+04 -5.06432E+04 -1.48884E+04 -6.88227E+04  2.67887E+04 -4.52166E+04
  3.95430E+04  3.86779E+03  1.58037E+04  4.75235E+04 -3.43215E+04  4.64530E+04 -6.59436E+04 -4.51699E+02
 -5.25938E+04 -5.63604E+04 -6.21872E+03 -7.57247E+04  3.33625E+04 -5.39418E+04  4.69822E+04 -1.63153E+04
  4.23195E+04  1.09569E+04  3.12592E+04  2.46165E+04  1.57799E+04  2.84388E+04 -5.02035E+03  2.67483E+04
 -2.16890E+04  1.25387E+04 -1.90820E+04 -4.63380E+03  4.78072E+03 -7.56760E+03  2.15563E+04  1.14669E+04
  7.37126E+03  3.38204E+04 -3.11846E+04  3.44635E+04 -6.18446E+04  2.08483E+03 -5.57973E+04 -4.18685E+04
 -1.24278E+04 -6.16775E+04  3.87169E+04 -4.38992E+04  5.60922E+04 -2.12677E+03  3.25224E+04  3.10989E+04
 -6.47100E+03  3.39555E+04 -2.89192E+04  1.41655E+04 -2.84424E+04 -5.18913E+03 -1.49677E+04 -1.04987E+04
 -7.62810E+03 -1.19365E+04 -1.21327E+03 -1.69008E+04  6.89145E+03 -2.26868E+04  1.51789E+04 -1.38229E+04
  1.17599E+04  4.54088E+03 -6.57105E+03  1.29078E+04 -2.00441E+04 -3.26212E+03 -7.94607E+03 -3.11666E+04
  2.13462E+04 -4.14965E+04  4.56459E+04 -1.87885E+04  4.29878E+04  1.85638E+04  1.47266E+04  4.23518E+04
 -1.55087E+04  3.18028E+04 -2.40138E+04  1.21809E+03 -8.69706E+03 -2.66419E+04  2.05993E+04 -3.19946E+04
  3.86854E+04 -7.88452E+03  3.24696E+04  2.28615E+04  1.57541E+04  4.33980E+04 -7.90164E+03  4.62384E+04
 -2.89837E+04  3.06542E+04 -3.83743E+04  8.47279E+03 -3.93827E+04 -1.54467E+04 -2.17530E+04 -3.51750E+04
  6.74666E+03 -3.47466E+04  2.98042E+04 -1.32041E+04  2.72081E+04  1.08544E+04  3.38229E+03  1.79796E+04
 -1.32508E+04  7.39566E+03 -9.94895E+03 -7.75048E+03  6.01331E+03 -1.01455E+04  1.73978E+04  6.48345E+03
  1.27016E+04  2.18188E+04 -6.71126E+03  2.34523E+04 -2.15633E+04  9.77549E+03 -2.58077E+04 -6.02807E+03
 -1.75813E+04 -1.68083E+04 -6.05387E+03 -1.75022E+04  3.79288E+03 -1.54759E+04  1.32542E+04 -1.50081E+04
  2.19327E+04 -1.19396E+04  2.86808E+04  1.69412E+03  2.15895E+04  1.69610E+04  4.06703E+03  3.28089E+04
 -1.63187E+04  2.80226E+04 -2.60616E+04  9.74799E+03 -1.97985E+04 -1.05208E+04 -4.20204E+03 -1.38983E+04
  2.40337E+03 -4.15704E+03 -2.85920E+03  5.35577E+03 -1.35532E+04  5.23668E+03 -1.39046E+04 -5.00975E+03
 -8.69983E+03 -1.59518E+04  4.50733E+03 -1.98936E+04  1.25820E+04 -1.43468E+04  1.49202E+04 -1.46073E+03
  9.20699E+03  1.08023E+04 -1.06919E+03  1.60066E+04 -1.05995E+04  8.94434E+03 -1.56102E+04 -3.44253E+03
 -1.16466E+04 -1.41650E+04 -1.49656E+03 -1.94516E+04  8.90952E+03 -1.56156E+04  1.64615E+04 -7.28781E+03
  1.47952E+04  6.98344E+02  1.05975E+04  3.88120E+03  5.25382E+03  7.26274E+02  7.65807E+03 -1.29803E+03
  1.40703E+04  2.31908E+03  1.51349E+04  1.27914E+04  9.22107E+03  2.51457E+04 -3.27993E+03  2.68821E+04
 -1.61267E+04  2.06829E+04 -2.46146E+04  9.62243E+03 -2.51527E+04 -1.73937E+03 -2.16216E+04 -1.42433E+04
 -1.01725E+04 -2.05207E+04  6.71802E+03 -1.93187E+04  1.69286E+04 -1.07989E+04  1.56457E+04  3.70273E+03
  6.59262E+03  1.13534E+04 -7.23589E+03  1.05429E+04 -1.33114E+04  2.81397E+03 -1.05320E+04 -7.91837E+03
 -1.50855E+02 -1.24733E+04  6.46098E+03 -9.56184E+03  7.76283E+03 -1.36432E+03  1.36070E+03  4.64513E+03
 -5.59598E+03  1.23163E+03 -3.83795E+03 -4.80171E+03  7.57133E+02 -1.03280E+04  7.79774E+03 -1.00322E+04
  1.23455E+04 -4.68755E+03  1.19939E+04  2.57414E+03  1.01499E+04  9.32844E+03  4.75494E+03  1.41197E+04
 -1.62206E+03  1.59381E+04 -9.74734E+03  9.98422E+03 -1.10911E+04  2.78656E+03 -8.40813E+03 -1.90094E+03
 -4.33645E+03 -2.99397E+03 -8.21471E+02  1.40117E+03 -1.75472E+03  2.02509E+03 -3.72869E+03  3.55725E+03
 -7.78063E+03 -5.90841E+02 -8.53653E+03 -7.36712E+03 -3.54734E+03 -1.14489E+04  3.37903E+03 -8.24285E+03
  7.17509E+03 -3.78863E+03  5.21269E+03  2.17308E+03  5.83246E+02  2.90031E+03 -3.17745E+03 -1.73381E+02
 -3.15546E+03 -5.09417E+03 -6.84207E+02 -7.32977E+03  4.13612E+03 -8.01293E+03  9.87179E+03 -3.79507E+03
  1.13155E+04  6.14345E+02  8.49181E+03  5.98376E+03  1.61731E+03  8.10782E+03 -4.89777E+03  8.06141E+03
 -6.89073E+03  2.80449E+03 -3.49982E+03 -1.17125E+03  1.35714E+03 -1.74164E+03  4.63266E+03 -8.67627E+02
  3.80580E+03  3.26471E+03  1.05940E+03  6.05473E+03 -4.35942E+03  6.39255E+03 -7.56059E+03  1.74877E+03
 -4.46088E+03 -3.66845E+03  5.50030E+02 -6.37374E+03  3.61220E+03 -2.98401E+03  3.47903E+03  9.15442E+02
  2.18806E+02  2.94914E+03 -3.93348E+03  4.80719E+03 -4.42143E+03  2.34884E+03 -3.90840E+03 -9.29136E+02
 -2.34650E+03 -5.74861E+03  1.04528E+03 -6.72010E+03  5.63559E+03 -4.55432E+03  5.99162E+03  8.79250E+02
  4.37257E+03  5.04458E+03  3.41652E+02  6.91368E+03 -4.76263E+03  3.99997E+03 -4.87767E+03 -4.83565E+02
 -5.48328E+03 -5.02329E+03 -1.31541E+03 -4.85751E+03  2.34203E+03 -4.48185E+03  2.22941E+03 -3.08599E+03
  2.67349E+03 -1.42321E+00  2.08819E+02  1.23253E+03  6.51145E+02 -1.57153E+02 -8.39536E+01 -1.40133E+03
  3.44522E+03 -5.35996E+02  4.47444E+03  5.74998E+02  5.04498E+03  2.60412E+03  4.97942E+03  6.44185E+03
 -8.51492E+02  7.66012E+03 -6.86263E+03  6.12371E+03 -8.78797E+03  1.02763E+03 -6.91348E+03 -2.03841E+03
 -3.82958E+03 -5.79022E+03 -4.82977E+02 -4.50483E+03  1.73942E+03 -1.85339E+03  1.58382E+03 -1.95831E+03
  1.24639E+03 -1.35460E+03  2.09717E+03 -2.34659E+03  3.44663E+03 -1.18339E+03  3.21071E+03  4.70675E+02
  3.89164E+03  1.13603E+03  8.87257E+02  3.12500E+03 -1.46308E+03  2.38421E+03 -3.85527E+03  2.09347E+03
 -4.50890E+03 -7.26001E+02 -1.59023E+03 -2.79121E+03  3.90154E+02 -4.39512E+03  2.82445E+03 -4.93220E+03
  4.61120E+03 -2.82415E+03  5.78587E+03  2.22855E+02  4.52367E+03  3.92446E+03  1.15542E+03  5.37926E+03
 -1.85986E+03  5.36886E+03 -2.79928E+03  1.88362E+03 -1.63194E+03 -9.23653E+02 -1.96588E+02 -3.29300E+02
 -3.46097E+02  6.02505E+02 -8.55268E+02  2.09502E+03 -2.19618E+03  1.08691E+03 -3.73019E+03 -1.90604E+02
 -1.06652E+03 -3.45967E+03  9.78174E+02 -3.92014E+03  2.15010E+03 -3.67849E+03  2.72935E+03 -1.23460E+03
  3.47778E+03  1.94025E+03  1.39514E+03  2.63133E+03 -4.58214E+02  3.90928E+03 -1.95441E+03  2.39350E+03
 -2.90228E+03  6.16213E+02 -2.94023E+03 -2.07674E+03 -2.87498E+02 -2.44299E+03  1.36388E+03 -2.03113E+03
  2.21698E+03 -1.26851E+03  1.62818E+03  2.99476E+02  3.90160E+02  1.44053E+03  6.83008E+02  3.87572E+02
  1.58180E+03  4.72307E+02  9.81495E+02  9.25269E+02  8.28880E+02  2.15018E+03  1.23559E+03  1.30367E+03
 -1.26181E+03  2.34604E+03 -1.93027E+03  3.61653E+03 -1.86558E+03  9.40450E+02 -3.32149E+03  7.78269E+01
 -1.41324E+03 -2.86974E+03  3.16465E+02 -4.12504E+03  1.46344E+03 -1.98116E+03  2.26609E+03 -4.45087E+02
  2.08776E+03  1.40967E+03  4.21838E+02  1.66458E+03 -5.18584E+02  1.34829E+03 -8.31784E+02  1.14571E+02
 -5.65894E+02 -1.19210E+03  1.09521E+03 -1.25439E+03  9.15549E+02 -7.31413E+02  9.77652E+02  5.97832E+02
  6.58290E+02  1.36488E+02  8.43750E+02 -8.35542E+02 -3.29847E+02  5.83211E+02  1.61764E+03 -2.28370E+02
 -8.88395E+01 -2.94978E+02  1.58242E+03  4.43871E+02  2.54929E+02  1.86062E+03 -1.99900E+02  2.41076E+03
 -9.86348E+02  6.79873E+02 -1.62843E+03  8.44098E+01 -1.70500E+03 -5.75961E+02  1.80427E+02 -6.22241E+02
  4.49613E+02 -1.06344E+03  8.72824E+02 -4.94791E+02  2.15077E+02  1.14047E+03 -6.27155E+02  1.07022E+03
 -9.46427E+02  7.52293E+02 -5.01640E+02 -1.33249E+03 -2.07734E+02 -1.89658E+03 -1.77446E+01 -1.26178E+03
  1.49732E+02 -2.15091E+02  3.48002E+02  7.55103E+01  1.31606E+03 -3.66578E+02  4.32146E+02  7.91434E+02
 -2.39652E+02  1.11972E+02 -7.37174E+02 -5.13908E+01  6.32131E+02 -5.09944E+02  1.40297E+03 -5.72730E+02
  6.39665E+02  1.11369E+02  2.12506E+03  1.00679E+02  9.39100E+02  8.44762E+02 -3.78008E+01  1.28293E+03
 -9.26739E+02 -2.37114E+02 -1.30402E+03 -3.19565E+01 -5.84658E+02 -1.21341E+03  2.44885E+02 -2.27620E+02
  1.48642E+03 -5.01759E+02  5.81283E+02  5.86654E+02  6.94347E+01  8.65562E+02  2.87740E+02  1.24489E+03
 -1.85329E+02  1.14429E+03 -4.61338E+02  1.50181E+02  3.64922E+01  6.33856E+02 -7.82338E+02  6.42417E+02
 -6.03026E+02  8.99426E+02 -1.32323E+03  1.68148E+02 -1.04739E+03  6.63878E+01 -2.05962E+03 -5.39480E+02
 -7.53475E+02 -1.48924E+03  1.16704E+02 -1.96698E+03  4.29909E+02 -1.91024E+03  1.93386E+03 -4.64780E+02
  1.60329E+03 -2.62119E+02  3.44085E+02  1.25687E+03 -7.02922E+02  8.64094E+02 -6.62201E+02  9.12480E+02
 -5.94941E+02  6.02664E+02 -5.35156E+02  1.48422E+02 -5.26320E+02  3.51979E+02 -8.01343E+02  2.20695E+02
 -1.00553E+03 -7.62346E+01 -9.28244E+02  1.22402E+02  1.27654E+02 -6.22241E+02 -3.72348E+02 -7.62670E+02
  9.09755E+02 -3.52370E+02 -1.07783E+02  2.61100E+02  9.02931E+02  5.94831E+02 -7.04988E+02  6.77375E+02
 -5.68891E+02  1.46375E+03 -1.15863E+03  8.61807E+02 -1.07224E+03 -3.22427E+02 -7.08803E+02 -8.80977E+02
 -6.94182E+02 -7.55855E+02  2.63923E+02 -3.91092E+02  5.51490E+02 -3.39696E+02  2.62795E+02  1.85416E+02
  3.68974E+02  2.02018E+02  2.54807E+02  3.42339E+02 -1.54162E+02 -2.94631E+01 -2.87284E+02 -2.16043E+02
  4.28974E+02  2.00153E+02 -2.54065E+02  6.54276E+02 -1.73754E+01  2.83507E+02  5.91610E+02 -2.48218E+01
 -3.58705E+02  7.47334E+01 -1.26772E+02  3.14962E+02 -5.99119E+02 -2.28715E+02  1.38907E+02 -5.95533E+02
  1.93380E+02 -4.09505E+02  2.58826E+02  2.60608E+02  5.60438E+02 -4.32902E+02  1.95964E+02  2.31657E+02
  4.30348E+02  5.40278E+02  4.20082E+01  2.72463E+02 -3.36321E+02  2.48550E+02 -3.23964E+02  1.08346E+02
  8.49828E+01 -7.33209E+00 -4.46706E+02  6.06436E+01 -5.95126E+02  2.74615E+02 -5.46318E+02 -2.36116E+02
 -6.64096E+02  3.24976E+02 -5.02773E+02 -5.56438E+02  5.91474E+02 -1.19080E+03  3.97674E+02  1.51185E+01
  4.05663E+02  3.51218E+01 -7.49757E+02 -7.55980E+01 -2.79381E+01  3.26376E+02 -7.29473E+00  5.91539E+02
