 $NMID ID='MM_0lb_SNR800_8hz_g50_79.RAW', FMTDAT='(8E13.5)'
 TRAMP=1., VOLUME=1. $END
  3.09793E+05  1.48461E+02  3.38207E+05  2.50927E+05  8.50022E+04  3.38694E+05 -1.33097E+05  2.52427E+05
 -1.90645E+05  8.38227E+04 -1.13127E+05 -3.24061E+04  7.97098E+00 -5.10158E+04  5.38258E+04 -3.36950E+02
  3.55981E+04  5.32945E+04 -1.65433E+04  7.60084E+04 -6.12405E+04  6.46289E+04 -8.53622E+04  3.23331E+04
 -8.28803E+04 -1.17166E+04 -5.81345E+04 -5.26838E+04 -1.52858E+04 -7.11017E+04  2.85270E+04 -4.66508E+04
  4.15887E+04  3.71278E+03  1.72608E+04  4.88429E+04 -3.52809E+04  4.86052E+04 -6.85878E+04 -1.03294E+02
 -5.53153E+04 -5.81319E+04 -7.42748E+03 -7.94076E+04  3.49694E+04 -5.69973E+04  4.97663E+04 -1.83676E+04
  4.55410E+04  1.09014E+04  3.26506E+04  2.70211E+04  1.59859E+04  3.11727E+04 -5.99466E+03  2.77232E+04
 -2.27559E+04  1.19306E+04 -1.78963E+04 -5.75145E+03  7.46590E+03 -7.41427E+03  2.36690E+04  1.41714E+04
  7.20335E+03  3.79617E+04 -3.42248E+04  3.75507E+04 -6.64387E+04  1.83692E+03 -5.90655E+04 -4.46979E+04
 -1.25944E+04 -6.67882E+04  4.22974E+04 -4.76736E+04  6.21601E+04 -2.50784E+03  3.73570E+04  3.43396E+04
 -5.41127E+03  3.98595E+04 -3.24320E+04  1.92390E+04 -3.40370E+04 -3.23374E+03 -1.93631E+04 -1.20459E+04
 -1.00501E+04 -1.53971E+04 -1.42416E+02 -1.96918E+04  8.26154E+03 -2.34260E+04  1.59194E+04 -1.23107E+04
  1.04464E+04  6.60414E+03 -1.08821E+04  1.29841E+04 -2.36858E+04 -6.61786E+03 -8.62093E+03 -3.83065E+04
  2.51893E+04 -4.73194E+04  5.27405E+04 -2.08601E+04  4.96960E+04  2.07004E+04  1.73690E+04  4.78197E+04
 -1.66629E+04  3.65098E+04 -2.83051E+04  2.77333E+03 -1.22227E+04 -3.01732E+04  2.18513E+04 -3.76995E+04
  4.52160E+04 -1.18437E+04  4.15663E+04  2.52278E+04  2.16406E+04  5.16618E+04 -7.97958E+03  5.76481E+04
 -3.65019E+04  3.87268E+04 -4.85166E+04  1.13913E+04 -4.82521E+04 -1.86500E+04 -2.68136E+04 -4.30485E+04
  7.99135E+03 -4.28896E+04  3.49210E+04 -1.72885E+04  3.27817E+04  1.13944E+04  6.05407E+03  2.13484E+04
 -1.38438E+04  9.62324E+03 -1.14382E+04 -7.54336E+03  5.65473E+03 -1.16302E+04  1.89495E+04  5.44698E+03
  1.53082E+04  2.26755E+04 -5.30302E+03  2.73121E+04 -2.39953E+04  1.47829E+04 -3.20478E+04 -2.15580E+03
 -2.60056E+04 -1.88465E+04 -1.21989E+04 -2.59721E+04  4.10303E+03 -2.69038E+04  2.09050E+04 -2.38347E+04
  3.31252E+04 -1.44580E+04  3.88056E+04  5.28877E+03  2.79442E+04  2.53925E+04  4.54003E+03  4.23305E+04
 -2.02750E+04  3.52193E+04 -3.11870E+04  1.22397E+04 -2.28122E+04 -9.94033E+03 -4.51343E+03 -1.22961E+04
  7.39447E+02 -8.12735E+02 -8.27058E+03  8.98665E+03 -2.10426E+04  5.28663E+03 -2.09923E+04 -1.00562E+04
 -1.21380E+04 -2.42989E+04  6.21374E+03 -2.86161E+04  1.93226E+04 -2.04557E+04  2.37577E+04 -2.07895E+03
  1.50698E+04  1.66837E+04 -1.57135E+03  2.43865E+04 -1.76155E+04  1.41375E+04 -2.47130E+04 -4.96377E+03
 -1.77539E+04 -2.12351E+04 -2.42056E+03 -2.92097E+04  1.30358E+04 -2.42331E+04  2.37149E+04 -1.27702E+04
  2.27729E+04 -2.40357E+02  1.62858E+04  5.46207E+03  9.07634E+03  1.47084E+03  1.28128E+04 -1.75113E+03
  2.28709E+04  2.92873E+03  2.71698E+04  1.86616E+04  1.81735E+04  3.95046E+04 -2.86369E+03  4.66655E+04
 -2.58724E+04  3.87174E+04 -4.42166E+04  2.04401E+04 -4.71978E+04 -3.08244E+03 -3.79466E+04 -2.75437E+04
 -1.50536E+04 -3.93412E+04  1.41717E+04 -3.43431E+04  2.89400E+04 -1.56387E+04  2.56456E+04  8.21702E+03
  8.49031E+03  1.97170E+04 -1.21643E+04  1.60619E+04 -2.03843E+04  2.34072E+03 -1.54524E+04 -1.35583E+04
 -3.85373E+02 -2.00984E+04  1.07458E+04 -1.51890E+04  1.38529E+04 -1.28954E+03  4.04025E+03  8.91571E+03
 -9.26522E+03  4.47605E+03 -1.00807E+04 -7.32441E+03 -1.92943E+03 -1.90926E+04  1.22212E+04 -2.13049E+04
  2.46860E+04 -1.23353E+04  2.83849E+04  3.32011E+03  2.48669E+04  1.98443E+04  1.17686E+04  3.16191E+04
 -6.28627E+03  3.33973E+04 -2.18918E+04  2.04959E+04 -2.41235E+04  4.12758E+03 -1.66905E+04 -6.46689E+03
 -6.83478E+03 -7.52883E+03 -6.58505E+02 -8.05552E+01 -3.04395E+03  3.34019E+03 -8.39998E+03  5.60673E+03
 -1.50485E+04 -1.25364E+03 -1.55481E+04 -1.29164E+04 -6.35192E+03 -2.09173E+04  6.81995E+03 -1.66950E+04
  1.33933E+04 -6.23262E+03  9.65324E+03  4.63757E+03 -5.95999E+02  6.73131E+03 -8.49090E+03  2.70546E+02
 -7.97339E+03 -1.05052E+04 -1.16002E+03 -1.67277E+04  9.59501E+03 -1.83143E+04  2.16903E+04 -1.00356E+04
  2.50062E+04  2.47102E+03  1.81781E+04  1.54873E+04  3.17985E+03  2.09699E+04 -1.04359E+04  1.64050E+04
 -1.37042E+04  4.57794E+03 -7.20358E+03 -3.98634E+03  2.49411E+03 -4.72261E+03  8.96013E+03 -1.26210E+03
  8.05555E+03  7.30623E+03  1.11243E+03  1.38344E+04 -9.71217E+03  1.31936E+04 -1.69411E+04  3.25385E+03
 -1.18684E+04 -8.84730E+03  3.09288E+02 -1.44709E+04  9.35125E+03 -7.37782E+03  9.97518E+03  4.00461E+03
  2.89051E+03  1.07941E+04 -8.73983E+03  1.28722E+04 -1.49217E+04  5.12293E+03 -1.50152E+04 -5.83226E+03
 -8.31529E+03 -1.80680E+04  4.43773E+03 -1.95339E+04  1.64831E+04 -1.16914E+04  1.84331E+04  3.34567E+03
  1.05986E+04  1.46240E+04 -1.85320E+03  1.70589E+04 -1.27623E+04  9.20441E+03 -1.41239E+04 -1.55411E+03
 -1.14830E+04 -1.12729E+04 -1.93645E+03 -1.29668E+04  6.79836E+03 -1.06420E+04  8.28803E+03 -3.67450E+03
  5.65159E+03  2.65146E+03 -1.15873E+03  2.28916E+03 -1.22385E+03 -4.31443E+03  3.31176E+03 -8.64322E+03
  1.27500E+04 -5.33666E+03  1.77920E+04  1.72839E+03  1.72987E+04  1.26702E+04  1.06521E+04  2.29839E+04
 -5.55136E+03  2.68154E+04 -2.21177E+04  1.91383E+04 -2.81787E+04  3.17323E+03 -2.24234E+04 -1.02263E+04
 -1.12518E+04 -1.87714E+04 -1.35446E+02 -1.63328E+04  5.87385E+03 -9.53909E+03  6.14613E+03 -5.83212E+03
  3.95485E+03 -3.08427E+03  4.67584E+03 -4.47255E+03  6.21350E+03 -3.72265E+03  8.99230E+03 -1.68047E+03
  1.18081E+04  2.55033E+03  6.50568E+03  1.01517E+04 -2.42081E+03  1.27303E+04 -1.24198E+04  9.68694E+03
 -1.65936E+04 -1.56390E+03 -1.02239E+04 -1.16637E+04 -1.84709E+03 -1.79096E+04  9.80220E+03 -1.81795E+04
  1.79999E+04 -9.85835E+03  2.16582E+04  3.33596E+03  1.51028E+04  1.53659E+04  2.59047E+03  1.94159E+04
 -8.35888E+03  1.58824E+04 -1.14913E+04  5.63780E+03 -7.70394E+03 -1.50483E+03 -3.68002E+03 -2.81212E+03
 -1.48928E+03 -3.62071E+02 -2.17434E+03  3.10406E+03 -6.89861E+03  3.03199E+03 -1.08842E+04 -2.04465E+03
 -8.20574E+03 -1.10240E+04 -2.40110E+02 -1.67001E+04  1.02958E+04 -1.56068E+04  1.68228E+04 -4.90128E+03
  1.69083E+04  7.80854E+03  7.78790E+03  1.48257E+04 -3.46033E+03  1.65554E+04 -1.23610E+04  1.02653E+04
 -1.61678E+04  1.55808E+02 -1.19794E+04 -9.86722E+03 -1.64652E+03 -1.39745E+04  7.48693E+03 -1.01303E+04
  1.08450E+04 -3.26591E+03  7.82605E+03  3.34038E+03  2.47905E+03  4.63982E+03  1.72020E+03  2.33680E+03
  2.61453E+03  1.33958E+03  4.29572E+03  1.97761E+03  5.50536E+03  5.25830E+03  4.06333E+03  9.45493E+03
 -3.49398E+03  1.32356E+04 -1.16273E+04  1.35283E+04 -1.76349E+04  3.74036E+03 -1.77004E+04 -7.68188E+03
 -8.34382E+03 -1.71988E+04  2.69580E+03 -1.90495E+04  1.03323E+04 -1.20272E+04  1.38018E+04 -2.88587E+03
  1.09933E+04  6.29049E+03  2.60198E+03  1.00893E+04 -5.13145E+03  6.43749E+03 -7.23862E+03 -1.01530E+03
 -2.96806E+03 -7.02358E+03  3.77141E+03 -7.58493E+03  6.79192E+03 -3.50787E+03  6.91982E+03  1.38681E+03
  4.21114E+03  3.78489E+03  2.41920E+03  3.21517E+03 -1.20073E+03  2.49992E+03  1.19134E+03 -4.79832E+02
  2.52027E+03 -6.82927E+02  6.68520E+03  2.96061E+03  4.02074E+03  9.12930E+03 -1.31958E+03  1.19718E+04
 -8.65086E+03  8.30219E+03 -1.16448E+04  2.31173E+03 -9.66435E+03 -4.20017E+03 -3.93702E+03 -6.95360E+03
  6.14723E+02 -6.94878E+03  4.37108E+03 -3.30882E+03  3.86016E+03  3.17090E+03 -9.49998E+02  6.11096E+03
 -7.10055E+03  3.32399E+03 -8.37439E+03 -4.10961E+03 -4.80082E+03 -9.68647E+03  1.59228E+03 -9.85354E+03
  6.26026E+03 -6.07929E+03  7.15170E+03 -5.71160E+02  5.92535E+03  2.98079E+03  9.84823E+02  5.50299E+03
 -3.65608E+03  1.51947E+03 -4.56925E+03 -4.08965E+03  1.37568E+03 -7.69024E+03  8.98185E+03 -5.83977E+03
  1.14953E+04  8.94882E+02  1.05654E+04  7.81783E+03  3.65199E+03  1.18268E+04 -4.21614E+03  1.10998E+04
 -9.83058E+03  5.09338E+03 -1.00761E+04 -1.34387E+03 -5.62407E+03 -7.78721E+03  1.92583E+03 -7.42243E+03
  7.36485E+03 -3.38609E+03  6.37923E+03  3.16957E+03  2.37830E+03  6.30872E+03 -1.23988E+03  5.65574E+03
 -2.88390E+03  3.55028E+03 -2.71423E+03  8.94610E+02 -1.51066E+03  9.65752E+02 -2.00881E+03  2.13293E+03
 -2.99440E+03  4.61313E+03 -7.39050E+03  4.18926E+03 -1.19119E+04  3.67057E+02 -1.30005E+04 -7.86497E+03
 -7.03143E+03 -1.59360E+04  3.09723E+03 -1.80369E+04  1.10938E+04 -1.36726E+04  1.71720E+04 -5.48264E+03
  1.60377E+04  3.47709E+03  9.86635E+03  1.10658E+04  1.28151E+03  1.24647E+04 -4.85632E+03  9.42937E+03
 -6.95521E+03  3.72408E+03 -4.41846E+03 -1.06789E+03 -1.43562E+03 -1.16661E+03 -5.89024E+02  4.36297E+01
 -1.77894E+03  2.65674E+02 -2.38473E+03 -5.68738E+02 -1.43835E+03 -3.09105E+03  5.79994E+02 -4.31389E+03
  5.51906E+03 -3.85274E+03  7.90560E+03  5.21767E+02  8.66351E+03  6.72596E+03  1.94888E+03  1.24856E+04
 -5.92231E+03  1.40551E+04 -1.31664E+04  8.11261E+03 -1.54364E+04 -1.16476E+03 -1.12727E+04 -1.00577E+04
 -4.65270E+03 -1.28888E+04  3.07519E+03 -1.21534E+04  8.28737E+03 -6.43847E+03  8.31503E+03  3.49627E+02
  4.42759E+03  4.43135E+03 -8.02134E+02  3.21053E+03 -2.15291E+03 -3.51301E+02 -7.22517E+01 -2.69333E+03
  3.78302E+03 -2.00033E+03  5.02636E+03  1.58998E+03  3.68279E+03  4.79848E+03  2.98412E+02  6.81978E+03
 -5.50445E+03  5.99716E+03 -8.93683E+03  7.81604E+02 -7.73366E+03 -6.06494E+03 -1.67061E+03 -1.04279E+04
  5.98363E+03 -8.71335E+03  9.66527E+03 -2.70646E+03  9.81160E+03  2.58372E+03  5.85311E+03  7.53692E+03
  8.62388E+02  8.68576E+03 -3.53061E+03  7.07395E+03 -5.11376E+03  3.86355E+03 -4.50789E+03  6.93180E+02
 -2.65586E+03 -3.14393E+02 -2.57318E+03  1.27477E+03 -4.23205E+03  1.37756E+03 -6.63320E+03 -1.09283E+03
 -6.40711E+03 -4.81730E+03 -2.03365E+03 -8.55025E+03  3.93307E+03 -8.57214E+03  7.52780E+03 -4.77107E+03
  8.10706E+03  1.11294E+03  4.66655E+03  6.18957E+03 -7.25674E+02  8.89328E+03 -6.09874E+03  5.43302E+03
