 $NMID ID='MM_0lb_SNR800_13hz_g55_32.RAW', FMTDAT='(8E13.5)'
 TRAMP=1., VOLUME=1. $END
  3.09585E+05  2.90373E+02  3.37939E+05  2.50779E+05  8.46443E+04  3.38135E+05 -1.32623E+05  2.51580E+05
 -1.90371E+05  8.34770E+04 -1.11755E+05 -3.27391E+04  6.19650E+02 -5.03020E+04  5.36233E+04 -4.08765E+02
  3.53831E+04  5.30912E+04 -1.65726E+04  7.58642E+04 -6.05233E+04  6.39648E+04 -8.44875E+04  3.21341E+04
 -8.15343E+04 -1.16050E+04 -5.75242E+04 -5.14956E+04 -1.51441E+04 -7.03544E+04  2.78110E+04 -4.63710E+04
  4.02898E+04  3.63543E+03  1.66956E+04  4.80752E+04 -3.45968E+04  4.78060E+04 -6.75595E+04  7.43485E+01
 -5.41543E+04 -5.71329E+04 -7.14463E+03 -7.77553E+04  3.40526E+04 -5.57249E+04  4.83119E+04 -1.75234E+04
  4.44296E+04  1.12228E+04  3.21895E+04  2.56154E+04  1.59605E+04  2.98865E+04 -5.40863E+03  2.73318E+04
 -2.22058E+04  1.25281E+04 -1.82898E+04 -5.49963E+03  6.34965E+03 -7.50353E+03  2.23598E+04  1.27534E+04
  7.29941E+03  3.60754E+04 -3.26986E+04  3.62919E+04 -6.41229E+04  2.23422E+03 -5.77928E+04 -4.34945E+04
 -1.28887E+04 -6.42456E+04  4.06878E+04 -4.61504E+04  5.91169E+04 -2.28596E+03  3.50357E+04  3.31162E+04
 -6.22508E+03  3.75518E+04 -3.04623E+04  1.73923E+04 -3.15018E+04 -4.01919E+03 -1.75970E+04 -1.14791E+04
 -8.84007E+03 -1.36783E+04 -9.73084E+02 -1.83745E+04  8.00228E+03 -2.32416E+04  1.58867E+04 -1.33506E+04
  1.11629E+04  5.33177E+03 -9.02227E+03  1.25627E+04 -2.18898E+04 -5.19784E+03 -8.62754E+03 -3.53355E+04
  2.36148E+04 -4.47645E+04  4.95627E+04 -1.99358E+04  4.62903E+04  1.94616E+04  1.64860E+04  4.50845E+04
 -1.62773E+04  3.43049E+04 -2.61064E+04  1.82916E+03 -1.04451E+04 -2.83401E+04  2.11149E+04 -3.49787E+04
  4.23575E+04 -9.84716E+03  3.72072E+04  2.39173E+04  1.93879E+04  4.84994E+04 -7.92007E+03  5.23343E+04
 -3.31442E+04  3.56950E+04 -4.39834E+04  1.00598E+04 -4.45005E+04 -1.74846E+04 -2.44777E+04 -3.93786E+04
  7.55014E+03 -3.93408E+04  3.21820E+04 -1.55087E+04  2.98918E+04  1.07621E+04  4.29042E+03  1.96305E+04
 -1.39186E+04  9.27825E+03 -1.07598E+04 -7.19266E+03  5.83572E+03 -1.09173E+04  1.84192E+04  6.07022E+03
  1.38710E+04  2.21009E+04 -5.23827E+03  2.55327E+04 -2.29342E+04  1.24202E+04 -2.89990E+04 -4.66843E+03
 -2.19644E+04 -1.75685E+04 -9.55547E+03 -2.20252E+04  4.25188E+03 -2.16854E+04  1.71951E+04 -2.01605E+04
  2.81303E+04 -1.30562E+04  3.42718E+04  3.53280E+03  2.45346E+04  2.14212E+04  4.18486E+03  3.83353E+04
 -1.86560E+04  3.10699E+04 -2.89249E+04  1.07907E+04 -2.15568E+04 -1.01975E+04 -4.38784E+03 -1.36079E+04
  1.38543E+03 -2.27172E+03 -5.70172E+03  7.38511E+03 -1.74589E+04  5.21648E+03 -1.77715E+04 -7.99482E+03
 -1.10055E+04 -2.05664E+04  5.76092E+03 -2.46524E+04  1.66203E+04 -1.72985E+04  1.95675E+04 -1.96631E+03
  1.23624E+04  1.42422E+04 -1.39480E+03  2.04602E+04 -1.39828E+04  1.16226E+04 -2.06464E+04 -4.12699E+03
 -1.48832E+04 -1.85475E+04 -1.90890E+03 -2.45548E+04  1.06824E+04 -2.01216E+04  2.07433E+04 -1.00656E+04
  1.89269E+04  2.39605E+02  1.35718E+04  4.72655E+03  7.45789E+03  1.21811E+03  1.07326E+04 -1.65801E+03
  1.89634E+04  3.02248E+03  2.11376E+04  1.60464E+04  1.38452E+04  3.27036E+04 -2.88521E+03  3.71728E+04
 -2.14339E+04  3.02438E+04 -3.46958E+04  1.55744E+04 -3.69225E+04 -2.52527E+03 -3.05748E+04 -2.12613E+04
 -1.26985E+04 -3.04939E+04  1.06798E+04 -2.73413E+04  2.36848E+04 -1.34927E+04  2.04420E+04  6.13895E+03
  7.53238E+03  1.56475E+04 -9.76362E+03  1.33035E+04 -1.74898E+04  2.78142E+03 -1.31714E+04 -1.08023E+04
  1.79973E+02 -1.67276E+04  8.76833E+03 -1.22741E+04  1.12866E+04 -1.44873E+03  2.55866E+03  6.94128E+03
 -7.34937E+03  3.05813E+03 -7.18659E+03 -6.07122E+03 -1.14352E+03 -1.49150E+04  1.01160E+04 -1.54412E+04
  1.85359E+04 -8.36944E+03  1.99664E+04  2.85615E+03  1.80919E+04  1.46084E+04  8.02637E+03  2.28114E+04
 -3.82644E+03  2.49903E+04 -1.58020E+04  1.54551E+04 -1.80383E+04  3.46501E+03 -1.23876E+04 -4.14872E+03
 -5.59490E+03 -5.52543E+03 -9.27050E+02  6.13285E+02 -2.59116E+03  3.01111E+03 -5.71752E+03  4.76681E+03
 -1.16340E+04 -6.77893E+02 -1.19091E+04 -1.02284E+04 -5.34685E+03 -1.59766E+04  5.27675E+03 -1.24792E+04
  1.04690E+04 -5.25371E+03  7.42939E+03  3.47261E+03 -6.71398E+00  4.83591E+03 -5.84988E+03 -5.95480E+02
 -5.67109E+03 -7.95468E+03 -1.00059E+03 -1.20077E+04  6.67603E+03 -1.27301E+04  1.56357E+04 -6.60904E+03
  1.83556E+04  1.51843E+03  1.38680E+04  1.08009E+04  2.31825E+03  1.45327E+04 -7.73063E+03  1.22611E+04
 -1.01168E+04  3.87442E+03 -5.19064E+03 -2.38935E+03  1.95192E+03 -3.03612E+03  6.78548E+03 -8.18830E+02
  6.08732E+03  5.26612E+03  1.10470E+03  9.84839E+03 -6.95708E+03  9.40017E+03 -1.22980E+04  2.16655E+03
 -8.32134E+03 -6.31378E+03  2.75406E+02 -1.04714E+04  6.31828E+03 -5.51141E+03  6.80465E+03  2.39481E+03
  1.18628E+03  6.86287E+03 -6.45819E+03  8.31353E+03 -9.73141E+03  3.79775E+03 -9.58518E+03 -3.08281E+03
 -5.74421E+03 -1.12833E+04  2.53614E+03 -1.31660E+04  1.12330E+04 -8.17962E+03  1.21344E+04  2.25213E+03
  7.71972E+03  9.90224E+03 -6.59829E+02  1.19275E+04 -8.70767E+03  6.83748E+03 -9.66731E+03 -7.99334E+02
 -8.26295E+03 -8.20370E+03 -1.50948E+03 -8.52678E+03  4.79428E+03 -7.38965E+03  5.31967E+03 -3.22954E+03
  3.92027E+03  1.30578E+03 -5.80307E+02  1.79131E+03 -7.33495E+01 -2.24261E+03  1.37812E+03 -4.79829E+03
  7.65051E+03 -2.84373E+03  1.12313E+04  1.33533E+03  1.08050E+04  7.13210E+03  7.82853E+03  1.42957E+04
 -3.32476E+03  1.64706E+04 -1.39590E+04  1.18790E+04 -1.83441E+04  2.25808E+03 -1.42906E+04 -5.95993E+03
 -7.55186E+03 -1.24227E+04 -4.83624E+02 -9.97697E+03  3.68266E+03 -5.28801E+03  3.50462E+03 -3.55512E+03
  2.77532E+03 -2.33607E+03  2.78128E+03 -3.09948E+03  4.67862E+03 -2.78458E+03  6.08491E+03 -8.56490E+02
  7.80601E+03  1.48848E+03  3.58174E+03  6.51320E+03 -1.90503E+03  6.98085E+03 -7.95701E+03  5.71667E+03
 -9.85744E+03 -1.02240E+03 -5.92331E+03 -7.11642E+03 -6.00821E+02 -1.06185E+04  6.03400E+03 -1.08008E+04
  1.08922E+04 -5.85267E+03  1.27501E+04  1.67301E+03  9.19762E+03  9.04875E+03  1.68123E+03  1.18154E+04
 -4.75089E+03  1.00997E+04 -6.80508E+03  3.34428E+03 -4.56015E+03 -1.13542E+03 -1.73562E+03 -1.62435E+03
 -1.18368E+03  1.71481E+02 -1.50420E+03  2.63612E+03 -4.34347E+03  1.57380E+03 -6.95143E+03 -7.18467E+02
 -4.55466E+03 -7.15442E+03  3.55328E+02 -9.88021E+03  6.12980E+03 -8.97140E+03  8.94230E+03 -2.61356E+03
  9.20194E+03  4.78095E+03  4.56461E+03  7.89358E+03 -1.79429E+03  9.57808E+03 -6.50485E+03  5.98898E+03
 -8.86543E+03  8.87382E+02 -7.07074E+03 -5.47007E+03 -6.54369E+02 -7.37155E+03  3.64539E+03 -5.75865E+03
  6.34515E+03 -2.24576E+03  4.07912E+03  1.32178E+03  1.74404E+03  3.09508E+03  1.38464E+03  1.15964E+03
  2.56089E+03  8.94285E+02  1.88173E+03  1.29092E+03  2.81223E+03  3.54395E+03  2.78316E+03  4.71768E+03
 -1.86961E+03  7.05672E+03 -6.40039E+03  8.01524E+03 -8.92221E+03  2.23955E+03 -9.45204E+03 -3.55452E+03
 -4.41017E+03 -8.82744E+03  1.25244E+03 -9.99399E+03  5.30436E+03 -6.20222E+03  7.14901E+03 -1.71551E+03
  5.94978E+03  3.60312E+03  1.54340E+03  5.06128E+03 -2.37773E+03  3.04778E+03 -3.39879E+03 -7.19287E+02
 -1.58193E+03 -4.25787E+03  2.22003E+03 -3.83626E+03  3.53263E+03 -1.70465E+03  3.32806E+03  6.72540E+02
  2.23711E+03  1.80290E+03  1.03321E+03  1.20788E+03 -6.25538E+02  1.35600E+03  1.83135E+03 -2.79626E+02
  1.20762E+03 -3.83952E+02  3.58897E+03  1.25746E+03  1.63576E+03  4.93160E+03 -7.89970E+02  6.21177E+03
 -4.28712E+03  3.92346E+03 -5.62278E+03  8.80233E+02 -4.68081E+03 -1.91032E+03 -1.78004E+03 -3.35024E+03
  6.57747E+02 -3.25254E+03  1.91464E+03 -1.57936E+03  1.68058E+03  2.01090E+03 -9.05534E+02  2.87095E+03
 -3.62784E+03  1.78545E+03 -3.63658E+03 -2.51228E+03 -1.91620E+03 -4.88188E+03  3.56090E+02 -4.93174E+03
  2.35596E+03 -2.51985E+03  3.03063E+03 -1.22701E+02  3.05953E+03  8.66301E+02  5.61927E+02  2.50381E+03
 -1.30332E+03  4.98005E+02 -2.34851E+03 -1.23023E+03  9.62430E+02 -3.33927E+03  4.13497E+03 -2.85505E+03
  5.10363E+03  2.97772E+02  5.72343E+03  3.18290E+03  1.99836E+03  4.99326E+03 -1.72384E+03  4.98499E+03
 -4.09280E+03  2.21399E+03 -4.33510E+03 -1.11606E+03 -2.27906E+03 -3.66871E+03  8.37922E+02 -2.70879E+03
  3.31097E+03 -1.80168E+03  2.44768E+03  1.60101E+03  7.93661E+02  2.61617E+03 -3.05719E+02  2.69516E+03
 -1.04829E+03  1.83615E+03 -1.41224E+03  3.59284E+02 -3.93320E+02  6.10178E+02 -8.85937E+02  1.27832E+03
 -1.52653E+03  2.07900E+03 -3.78752E+03  1.84673E+03 -5.26278E+03  4.31805E+02 -5.68329E+03 -3.40743E+03
 -3.09728E+03 -6.92606E+03  1.58991E+03 -7.99146E+03  4.61583E+03 -6.33655E+03  7.79746E+03 -2.73213E+03
  7.04636E+03  9.33834E+02  4.14452E+03  4.80391E+03  2.28412E+02  4.94859E+03 -2.12928E+03  3.82749E+03
 -2.66062E+03  1.66623E+03 -2.02611E+03 -5.66242E+02 -7.17552E+02 -3.30907E+02 -5.60511E+02 -9.09434E+01
 -1.66406E+03  5.30549E+01 -1.42636E+03 -1.53060E+02 -3.80427E+02 -1.30895E+03 -2.47085E+02 -2.38123E+03
  2.59369E+03 -1.69877E+03  2.73504E+03  2.01049E+01  3.42100E+03  2.63361E+03  1.43611E+02  4.85335E+03
 -2.41696E+03  6.02632E+03 -5.22321E+03  3.20213E+03 -5.84784E+03 -6.09277E+02 -4.70851E+03 -3.76677E+03
 -2.28084E+03 -4.66609E+03  1.35086E+03 -4.21359E+03  3.25150E+03 -1.94471E+03  3.32393E+03  1.26299E+02
  1.77305E+03  1.74932E+03 -3.07265E+02  1.11576E+03 -8.91585E+02  6.27270E+01 -2.42498E+02 -1.13162E+03
  1.26694E+03 -6.23559E+02  1.86133E+03  9.42836E+02  1.17721E+03  2.00195E+03  3.65639E+02  2.20257E+03
 -2.06962E+03  1.99362E+03 -2.82679E+03  4.24776E+02 -2.56186E+03 -2.32028E+03 -1.17977E+02 -4.12731E+03
  2.51085E+03 -2.97642E+03  3.38599E+03 -6.64986E+02  3.77578E+03  4.78602E+02  2.12051E+03  2.83513E+03
  7.86387E+02  2.96844E+03 -1.26815E+03  2.47326E+03 -2.23357E+03  1.52862E+03 -1.50801E+03  1.58455E+02
 -1.13176E+03  1.66189E+01 -8.32357E+02  2.71676E+02 -1.65990E+03  4.16730E+02 -2.71629E+03 -5.83217E+02
 -2.64205E+03 -1.31277E+03 -4.04890E+02 -3.04439E+03  1.43229E+03 -3.61592E+03  2.76603E+03 -1.38174E+03
  2.72505E+03  5.93305E+02  1.34679E+03  1.91525E+03 -2.17098E+02  3.20564E+03 -2.02297E+03  2.19895E+03
