 $NMID ID='MM_0lb_SNR800_10hz_g60_45.RAW', FMTDAT='(8E13.5)'
 TRAMP=1., VOLUME=1. $END
  3.10018E+05  7.16788E+02  3.38334E+05  2.51121E+05  8.52970E+04  3.38583E+05 -1.32572E+05  2.52281E+05
 -1.90833E+05  8.40110E+04 -1.12976E+05 -3.24116E+04  1.10387E+02 -5.07911E+04  5.36862E+04 -8.59887E+02
  3.59130E+04  5.25441E+04 -1.72289E+04  7.62697E+04 -6.10800E+04  6.43988E+04 -8.53064E+04  3.24874E+04
 -8.25183E+04 -1.21376E+04 -5.88763E+04 -5.25270E+04 -1.51046E+04 -7.13871E+04  2.83769E+04 -4.69638E+04
  4.06787E+04  4.31457E+03  1.69423E+04  4.82512E+04 -3.51134E+04  4.82303E+04 -6.82813E+04 -9.79613E+01
 -5.52594E+04 -5.77101E+04 -7.37549E+03 -7.90044E+04  3.46262E+04 -5.71639E+04  4.98302E+04 -1.80233E+04
  4.53580E+04  1.15997E+04  3.28613E+04  2.67441E+04  1.60467E+04  3.08679E+04 -5.66852E+03  2.79464E+04
 -2.25926E+04  1.18173E+04 -1.79123E+04 -5.33622E+03  7.27879E+03 -7.49330E+03  2.38120E+04  1.35981E+04
  7.26442E+03  3.73213E+04 -3.39809E+04  3.76024E+04 -6.58044E+04  2.43017E+03 -5.90129E+04 -4.46988E+04
 -1.26810E+04 -6.59345E+04  4.19063E+04 -4.78107E+04  6.07792E+04 -2.58842E+03  3.67663E+04  3.45113E+04
 -5.82130E+03  3.96182E+04 -3.19314E+04  1.91020E+04 -3.37944E+04 -3.82463E+03 -1.93272E+04 -1.18353E+04
 -9.75541E+03 -1.53991E+04 -4.51956E+02 -1.95745E+04  8.33534E+03 -2.35183E+04  1.63345E+04 -1.25896E+04
  1.07192E+04  6.31216E+03 -1.06589E+04  1.29319E+04 -2.37629E+04 -6.52509E+03 -8.39595E+03 -3.73859E+04
  2.49769E+04 -4.67563E+04  5.23011E+04 -2.12261E+04  4.89563E+04  2.10015E+04  1.75267E+04  4.70215E+04
 -1.66184E+04  3.62856E+04 -2.78830E+04  2.45859E+03 -1.14463E+04 -2.91556E+04  2.16218E+04 -3.68052E+04
  4.42707E+04 -1.09619E+04  4.07232E+04  2.47857E+04  2.16013E+04  5.13423E+04 -8.05393E+03  5.70351E+04
 -3.57284E+04  3.83945E+04 -4.77096E+04  1.09740E+04 -4.77094E+04 -1.85422E+04 -2.64045E+04 -4.23756E+04
  7.97296E+03 -4.22331E+04  3.42501E+04 -1.72944E+04  3.21348E+04  1.15980E+04  5.56264E+03  2.08560E+04
 -1.40945E+04  9.92745E+03 -1.11302E+04 -7.61387E+03  5.57085E+03 -1.14359E+04  1.88107E+04  5.07860E+03
  1.49903E+04  2.23891E+04 -5.44093E+03  2.70709E+04 -2.38752E+04  1.45906E+04 -3.16810E+04 -2.92805E+03
 -2.55442E+04 -1.86721E+04 -1.21909E+04 -2.49675E+04  4.50497E+03 -2.56925E+04  2.00180E+04 -2.29367E+04
  3.25085E+04 -1.40044E+04  3.81906E+04  5.13588E+03  2.74342E+04  2.41245E+04  4.30754E+03  4.13266E+04
 -1.98541E+04  3.41367E+04 -3.05333E+04  1.18381E+04 -2.26160E+04 -1.03409E+04 -4.69188E+03 -1.32793E+04
  6.39516E+02 -1.13575E+03 -7.36277E+03  7.90344E+03 -2.05635E+04  4.71877E+03 -2.03017E+04 -9.38937E+03
 -1.19215E+04 -2.33582E+04  6.00563E+03 -2.78460E+04  1.87946E+04 -1.95238E+04  2.26342E+04 -1.93256E+03
  1.45929E+04  1.61040E+04 -1.18121E+03  2.30242E+04 -1.66985E+04  1.33682E+04 -2.38243E+04 -4.94201E+03
 -1.73706E+04 -2.14566E+04 -2.33784E+03 -2.80006E+04  1.29417E+04 -2.34325E+04  2.33442E+04 -1.23729E+04
  2.17890E+04 -2.40314E+02  1.62486E+04  5.10072E+03  8.66550E+03  1.21717E+03  1.23751E+04 -1.91481E+03
  2.16049E+04  3.10524E+03  2.55033E+04  1.79639E+04  1.75157E+04  3.76091E+04 -2.41392E+03  4.45527E+04
 -2.53253E+04  3.72968E+04 -4.23311E+04  1.89821E+04 -4.50080E+04 -3.17641E+03 -3.64113E+04 -2.60649E+04
 -1.45283E+04 -3.71247E+04  1.32003E+04 -3.25058E+04  2.76221E+04 -1.54475E+04  2.41798E+04  8.15738E+03
  8.31002E+03  1.88577E+04 -1.16778E+04  1.59183E+04 -2.00751E+04  2.52976E+03 -1.52241E+04 -1.28724E+04
 -7.69421E+02 -1.95275E+04  1.02257E+04 -1.40581E+04  1.31818E+04 -1.56532E+03  3.50305E+03  8.99982E+03
 -8.55961E+03  4.19488E+03 -9.27165E+03 -7.09100E+03 -2.09206E+03 -1.83445E+04  1.21862E+04 -1.98270E+04
  2.33316E+04 -1.07800E+04  2.59238E+04  3.20404E+03  2.28997E+04  1.84989E+04  1.06745E+04  2.87745E+04
 -5.80449E+03  3.15018E+04 -2.00623E+04  1.90985E+04 -2.23280E+04  4.18780E+03 -1.53669E+04 -5.91358E+03
 -6.55592E+03 -7.21544E+03 -3.55476E+02  3.61459E+01 -2.89223E+03  3.75253E+03 -7.29041E+03  5.60953E+03
 -1.44138E+04 -6.27772E+02 -1.49749E+04 -1.18972E+04 -5.81137E+03 -1.92710E+04  5.87061E+03 -1.57620E+04
  1.27621E+04 -6.11003E+03  9.18820E+03  4.20034E+03 -1.68023E+02  6.66352E+03 -7.94845E+03 -1.75299E+02
 -7.41703E+03 -9.71407E+03 -1.14768E+03 -1.50307E+04  8.88726E+03 -1.64829E+04  2.02359E+04 -8.99276E+03
  2.36976E+04  2.28652E+03  1.70136E+04  1.46244E+04  3.13508E+03  1.90012E+04 -1.00309E+04  1.52947E+04
 -1.24096E+04  3.97453E+03 -6.12680E+03 -3.24159E+03  2.27490E+03 -4.31445E+03  8.28617E+03 -9.98897E+02
  7.41853E+03  7.25587E+03  1.10759E+03  1.25616E+04 -9.17752E+03  1.20404E+04 -1.56344E+04  3.28420E+03
 -1.06741E+04 -7.94406E+03  1.00330E+02 -1.34231E+04  8.96137E+03 -7.03829E+03  9.03125E+03  3.37404E+03
  2.59831E+03  9.93708E+03 -7.82025E+03  1.15824E+04 -1.32216E+04  4.75614E+03 -1.38492E+04 -4.94217E+03
 -8.13662E+03 -1.54302E+04  4.00805E+03 -1.77735E+04  1.50913E+04 -1.11453E+04  1.67618E+04  2.74589E+03
  1.00905E+04  1.28513E+04 -1.30031E+03  1.54139E+04 -1.13557E+04  8.63061E+03 -1.27903E+04 -1.40200E+03
 -1.06465E+04 -1.02562E+04 -2.01013E+03 -1.16179E+04  6.20299E+03 -9.53262E+03  7.38931E+03 -3.51711E+03
  4.99510E+03  2.15426E+03 -8.84603E+02  1.98242E+03 -5.92261E+02 -3.38419E+03  2.99375E+03 -7.67747E+03
  1.14676E+04 -4.80307E+03  1.57971E+04  1.61691E+03  1.56398E+04  1.09750E+04  1.03030E+04  2.04862E+04
 -4.90693E+03  2.35932E+04 -1.92438E+04  1.73828E+04 -2.55548E+04  3.25848E+03 -2.03689E+04 -8.91769E+03
 -1.02863E+04 -1.63745E+04 -4.06392E+02 -1.41521E+04  5.40818E+03 -7.99426E+03  5.11404E+03 -4.91028E+03
  3.78661E+03 -3.07383E+03  3.71111E+03 -3.62199E+03  5.89076E+03 -3.37055E+03  8.14978E+03 -1.03315E+03
  1.03278E+04  2.43123E+03  6.09149E+03  9.45349E+03 -2.01800E+03  1.10437E+04 -1.07787E+04  8.33161E+03
 -1.43189E+04 -1.53653E+03 -9.11526E+03 -1.00736E+04 -1.34153E+03 -1.52820E+04  8.96354E+03 -1.58456E+04
  1.61467E+04 -8.68353E+03  1.90501E+04  2.63064E+03  1.27047E+04  1.37674E+04  2.09702E+03  1.73594E+04
 -7.24867E+03  1.40109E+04 -1.02350E+04  5.25567E+03 -7.11256E+03 -1.58744E+03 -3.16605E+03 -2.05049E+03
 -1.41122E+03  1.12306E+02 -2.54459E+03  2.69023E+03 -5.86175E+03  2.54007E+03 -9.93389E+03 -1.31254E+03
 -7.16620E+03 -9.91983E+03 -1.74202E+02 -1.43366E+04  8.93180E+03 -1.30155E+04  1.44500E+04 -3.99093E+03
  1.40189E+04  7.09954E+03  6.75509E+03  1.27623E+04 -2.83404E+03  1.46242E+04 -9.99434E+03  8.78589E+03
 -1.33528E+04  6.49891E+01 -1.06493E+04 -9.02407E+03 -1.32019E+03 -1.20436E+04  5.98477E+03 -9.38334E+03
  9.19461E+03 -3.17750E+03  6.45325E+03  2.04497E+03  1.92599E+03  4.27330E+03  1.03495E+03  2.26698E+03
  2.74071E+03  8.81492E+02  3.34289E+03  1.71432E+03  4.14569E+03  5.01288E+03  3.82621E+03  7.58449E+03
 -2.91198E+03  1.11889E+04 -9.82175E+03  1.10542E+04 -1.47366E+04  3.27606E+03 -1.51824E+04 -5.52016E+03
 -7.13425E+03 -1.46363E+04  2.29210E+03 -1.57534E+04  8.88103E+03 -9.95185E+03  1.20014E+04 -2.69012E+03
  9.09773E+03  5.28199E+03  2.00706E+03  8.25986E+03 -4.13010E+03  5.27574E+03 -5.68373E+03 -8.22721E+02
 -3.26231E+03 -6.05168E+03  3.25676E+03 -6.45205E+03  5.65821E+03 -3.18858E+03  5.84582E+03  1.02419E+03
  3.28723E+03  2.73959E+03  1.32241E+03  2.25014E+03 -1.12681E+03  1.94887E+03  1.48856E+03 -8.06785E+02
  2.11928E+03 -7.38991E+02  5.72342E+03  2.40759E+03  3.02700E+03  7.74961E+03 -1.58046E+03  1.03672E+04
 -6.76820E+03  6.90589E+03 -9.38725E+03  2.02466E+03 -8.04800E+03 -3.43804E+03 -3.12489E+03 -5.62543E+03
  7.44399E+02 -5.80276E+03  3.73991E+03 -2.50006E+03  3.01065E+03  2.41723E+03 -1.60404E+03  4.98192E+03
 -5.65657E+03  2.77359E+03 -6.72813E+03 -3.61468E+03 -3.43099E+03 -8.04608E+03  7.09315E+02 -8.02861E+03
  4.29085E+03 -4.54197E+03  5.75715E+03 -5.31417E+02  4.69913E+03  2.34789E+03  6.60147E+02  4.23582E+03
 -2.65666E+03  9.22772E+02 -3.39787E+03 -2.95877E+03  1.37883E+03 -6.09527E+03  7.19933E+03 -4.66891E+03
  8.85659E+03  5.68895E+02  8.74194E+03  6.37981E+03  2.51692E+03  9.25737E+03 -3.10854E+03  8.54229E+03
 -7.65216E+03  4.26912E+03 -8.13035E+03 -8.44326E+02 -4.07959E+03 -6.02358E+03  1.32526E+03 -5.66756E+03
  6.04543E+03 -2.46851E+03  5.03882E+03  2.50645E+03  1.57564E+03  5.40040E+03 -2.43668E+02  4.56772E+03
 -2.42156E+03  2.97326E+03 -2.12390E+03  6.64052E+02 -1.04497E+03  1.04427E+03 -1.61155E+03  2.06750E+03
 -2.39120E+03  3.56191E+03 -6.45053E+03  3.23690E+03 -9.24433E+03  3.40967E+02 -1.03143E+04 -5.97527E+03
 -5.05583E+03 -1.23280E+04  2.12246E+03 -1.41853E+04  8.91777E+03 -1.12044E+04  1.31498E+04 -3.94910E+03
  1.21918E+04  2.22126E+03  7.67689E+03  8.23627E+03  6.74983E+02  9.49464E+03 -3.96186E+03  6.79097E+03
 -5.24252E+03  2.95364E+03 -3.27617E+03 -1.19070E+03 -9.92966E+02 -8.83819E+02 -7.44964E+02 -1.24378E+02
 -1.81628E+03  1.28681E+02 -2.34279E+03 -8.51458E+02 -8.16157E+02 -2.21443E+03  5.04714E+01 -3.70719E+03
  4.42940E+03 -3.24426E+03  5.89827E+03  2.54660E+02  6.88340E+03  5.23870E+03  1.92341E+03  9.43598E+03
 -4.47770E+03  1.08818E+04 -1.00752E+04  5.95276E+03 -1.10314E+04 -6.38071E+02 -8.56227E+03 -6.78965E+03
 -3.33360E+03 -9.88913E+03  2.18140E+03 -9.20442E+03  6.12991E+03 -4.80404E+03  6.37230E+03  3.51676E+02
  3.47397E+03  3.03557E+03 -1.62858E+02  2.87356E+03 -1.84735E+03 -3.04891E+02  3.69293E+02 -2.53848E+03
  2.57216E+03 -1.51897E+03  3.52691E+03  1.65288E+03  2.52672E+03  3.69711E+03  7.70577E+01  4.86386E+03
 -4.36401E+03  4.04388E+03 -5.54497E+03  2.74471E+02 -5.06861E+03 -4.54656E+03 -4.23834E+02 -8.02100E+03
  4.34510E+03 -6.85403E+03  7.26819E+03 -1.76142E+03  7.10301E+03  1.68507E+03  4.63487E+03  5.70618E+03
  9.51370E+02  6.05740E+03 -1.95807E+03  5.30273E+03 -3.87946E+03  2.95165E+03 -2.47210E+03  3.52573E+02
 -1.66456E+03 -3.36023E+02 -1.65296E+03  8.54592E+02 -2.98281E+03  1.19935E+03 -5.18510E+03 -9.85038E+02
 -4.64130E+03 -2.83290E+03 -1.30850E+03 -6.66797E+03  3.00573E+03 -6.82165E+03  5.28074E+03 -2.69785E+03
  5.95148E+03  8.44875E+02  3.26282E+03  4.42936E+03 -5.96367E+02  6.07280E+03 -4.64234E+03  4.04051E+03
