 $NMID ID='MM_0lb_SNR800_14hz_g45_85.RAW', FMTDAT='(8E13.5)'
 TRAMP=1., VOLUME=1. $END
  3.09895E+05  4.39644E+02  3.37566E+05  2.50377E+05  8.45634E+04  3.37768E+05 -1.32514E+05  2.50683E+05
 -1.90188E+05  8.32624E+04 -1.11463E+05 -3.25626E+04  1.00893E+03 -5.04729E+04  5.36177E+04  1.27692E+01
  3.55653E+04  5.28347E+04 -1.70755E+04  7.55149E+04 -6.05843E+04  6.33572E+04 -8.39603E+04  3.22089E+04
 -8.07751E+04 -1.14726E+04 -5.67060E+04 -5.09697E+04 -1.49762E+04 -6.91779E+04  2.72125E+04 -4.56905E+04
  3.96503E+04  3.59810E+03  1.61191E+04  4.75724E+04 -3.40574E+04  4.71901E+04 -6.65884E+04 -7.47652E+01
 -5.32200E+04 -5.64649E+04 -7.17245E+03 -7.65685E+04  3.34304E+04 -5.46757E+04  4.77394E+04 -1.70655E+04
  4.31862E+04  1.14566E+04  3.16141E+04  2.56163E+04  1.55232E+04  2.93614E+04 -4.93345E+03  2.73492E+04
 -2.18015E+04  1.22592E+04 -1.86410E+04 -4.81399E+03  5.52326E+03 -7.42145E+03  2.21553E+04  1.22738E+04
  7.38533E+03  3.53799E+04 -3.21686E+04  3.53076E+04 -6.29538E+04  2.08072E+03 -5.70369E+04 -4.27725E+04
 -1.25154E+04 -6.29150E+04  3.96657E+04 -4.48769E+04  5.80498E+04 -2.13325E+03  3.38997E+04  3.24372E+04
 -6.06634E+03  3.61133E+04 -2.96993E+04  1.56720E+04 -3.04410E+04 -4.58541E+03 -1.66031E+04 -1.08617E+04
 -8.24967E+03 -1.28666E+04 -8.49795E+02 -1.75908E+04  7.17364E+03 -2.28550E+04  1.51476E+04 -1.34695E+04
  1.11944E+04  4.97577E+03 -8.20855E+03  1.28665E+04 -2.05923E+04 -4.32310E+03 -8.23184E+03 -3.30403E+04
  2.25481E+04 -4.32595E+04  4.80188E+04 -1.96819E+04  4.46295E+04  1.93342E+04  1.52667E+04  4.39571E+04
 -1.59013E+04  3.31825E+04 -2.47342E+04  1.61360E+03 -9.72872E+03 -2.75205E+04  2.07930E+04 -3.38585E+04
  4.10213E+04 -8.71386E+03  3.51498E+04  2.37987E+04  1.78295E+04  4.61193E+04 -7.99352E+03  4.96420E+04
 -3.10711E+04  3.32743E+04 -4.15726E+04  9.60723E+03 -4.23354E+04 -1.67288E+04 -2.33801E+04 -3.74316E+04
  7.46836E+03 -3.73135E+04  3.10837E+04 -1.46507E+04  2.90151E+04  1.10071E+04  4.00596E+03  1.90590E+04
 -1.36034E+04  8.35324E+03 -1.03853E+04 -7.71527E+03  5.98453E+03 -1.06464E+04  1.76116E+04  6.11170E+03
  1.31726E+04  2.21845E+04 -5.98164E+03  2.49188E+04 -2.22926E+04  1.12069E+04 -2.77929E+04 -5.09166E+03
 -2.01599E+04 -1.71544E+04 -7.88616E+03 -1.99188E+04  4.37508E+03 -1.91470E+04  1.56124E+04 -1.79836E+04
  2.54659E+04 -1.26957E+04  3.19474E+04  2.48711E+03  2.36116E+04  1.95012E+04  4.22817E+03  3.58309E+04
 -1.74326E+04  2.99961E+04 -2.78026E+04  1.01984E+04 -2.07028E+04 -1.05567E+04 -4.33452E+03 -1.32628E+04
  1.91148E+03 -3.14821E+03 -4.72634E+03  6.76277E+03 -1.57115E+04  5.10654E+03 -1.61821E+04 -6.80118E+03
 -9.96360E+03 -1.87570E+04  5.12098E+03 -2.29447E+04  1.50594E+04 -1.61608E+04  1.78086E+04 -1.74509E+03
  1.10560E+04  1.26321E+04 -1.26725E+03  1.86502E+04 -1.27589E+04  1.08332E+04 -1.87205E+04 -3.67158E+03
 -1.40762E+04 -1.67200E+04 -1.72460E+03 -2.23470E+04  1.03243E+04 -1.84879E+04  1.90581E+04 -9.14266E+03
  1.71899E+04  2.22833E+02  1.26422E+04  4.47744E+03  6.49221E+03  5.22300E+02  9.06558E+03 -1.87050E+03
  1.72448E+04  2.93643E+03  1.89405E+04  1.48225E+04  1.21607E+04  2.98694E+04 -2.72213E+03  3.32807E+04
 -1.94950E+04  2.65838E+04 -3.09790E+04  1.31094E+04 -3.25389E+04 -2.20082E+03 -2.70813E+04 -1.88756E+04
 -1.16030E+04 -2.70054E+04  9.64463E+03 -2.45863E+04  2.11008E+04 -1.25159E+04  1.90314E+04  5.61961E+03
  7.18952E+03  1.41044E+04 -8.74358E+03  1.25658E+04 -1.60658E+04  2.81210E+03 -1.20737E+04 -1.01254E+04
 -4.07998E+02 -1.48669E+04  7.85966E+03 -1.13598E+04  9.82740E+03 -1.50320E+03  2.05687E+03  6.40540E+03
 -6.59243E+03  2.17680E+03 -5.47336E+03 -5.37619E+03 -4.33956E+02 -1.32513E+04  9.49378E+03 -1.37800E+04
  1.63356E+04 -7.01218E+03  1.75485E+04  3.21970E+03  1.51476E+04  1.27880E+04  6.79156E+03  1.97729E+04
 -3.19258E+03  2.16074E+04 -1.37729E+04  1.36871E+04 -1.53309E+04  3.24306E+03 -1.11668E+04 -3.37284E+03
 -5.26142E+03 -4.88622E+03 -7.43117E+02  1.18712E+03 -2.43903E+03  2.68072E+03 -4.90324E+03  4.34848E+03
 -1.05637E+04 -5.80199E+02 -1.11693E+04 -8.65648E+03 -4.45397E+03 -1.44630E+04  4.90196E+03 -1.13287E+04
  9.19596E+03 -4.60775E+03  6.79556E+03  2.96577E+03  2.93734E+02  4.24162E+03 -5.34792E+03  7.92199E+01
 -4.79011E+03 -6.90135E+03 -7.49094E+02 -1.06364E+04  5.80039E+03 -1.12157E+04  1.36431E+04 -5.74159E+03
  1.61086E+04  1.21552E+03  1.18206E+04  9.05588E+03  2.26129E+03  1.23751E+04 -6.41265E+03  1.11268E+04
 -9.00624E+03  3.47315E+03 -4.75618E+03 -1.98238E+03  1.78782E+03 -2.82993E+03  6.09159E+03 -9.78996E+02
  5.33106E+03  4.67711E+03  1.19807E+03  8.63543E+03 -6.29148E+03  8.29090E+03 -1.04373E+04  2.25644E+03
 -6.82028E+03 -5.42957E+03  8.25824E+02 -8.84650E+03  5.64859E+03 -4.60434E+03  5.57329E+03  1.99089E+03
  1.16047E+03  5.66941E+03 -5.61466E+03  6.90197E+03 -7.64892E+03  3.19986E+03 -7.94860E+03 -2.50409E+03
 -4.69564E+03 -9.53652E+03  2.30861E+03 -1.09007E+04  9.50154E+03 -6.76853E+03  1.02191E+04  1.79420E+03
  6.41519E+03  8.31917E+03 -4.49433E+02  1.03122E+04 -7.71330E+03  5.83103E+03 -7.83461E+03 -7.01643E+02
 -7.36707E+03 -7.57616E+03 -1.49001E+03 -7.69538E+03  3.79461E+03 -6.99093E+03  4.49684E+03 -3.49757E+03
  3.54541E+03  9.43118E+02 -2.13521E+02  1.66011E+03  5.68288E+01 -1.16765E+03  1.18872E+03 -3.67091E+03
  6.94419E+03 -2.34203E+03  9.06060E+03  1.08146E+03  9.16051E+03  5.82521E+03  6.68620E+03  1.18030E+04
 -2.69345E+03  1.36238E+04 -1.21821E+04  1.04441E+04 -1.51209E+04  1.87785E+03 -1.22794E+04 -4.84543E+03
 -6.29407E+03 -9.93194E+03 -4.88796E+02 -8.30840E+03  3.31520E+03 -4.38264E+03  2.89902E+03 -3.20455E+03
  1.98044E+03 -2.04324E+03  2.72329E+03 -2.60225E+03  3.99795E+03 -2.22666E+03  5.11352E+03 -2.98707E+02
  6.54564E+03  1.77427E+03  3.08247E+03  5.41718E+03 -2.14168E+03  5.81923E+03 -6.65271E+03  4.69498E+03
 -8.40709E+03 -1.25477E+03 -4.59050E+03 -5.78048E+03 -2.57625E+02 -8.59555E+03  4.96670E+03 -8.76496E+03
  8.65428E+03 -5.10564E+03  1.10797E+04  8.54518E+02  7.80174E+03  7.53887E+03  1.55881E+03  9.91425E+03
 -4.13765E+03  8.90042E+03 -5.80598E+03  2.96135E+03 -3.42815E+03 -1.44036E+03 -1.53282E+03 -9.79738E+02
 -7.42674E+02  2.54952E+02 -1.58329E+03  2.30603E+03 -3.62168E+03  1.43701E+03 -5.90493E+03 -6.36807E+02
 -3.90412E+03 -6.37911E+03  6.63760E+02 -7.97245E+03  4.89393E+03 -7.42399E+03  7.04723E+03 -2.02535E+03
  7.51071E+03  4.01592E+03  3.38692E+03  6.75695E+03 -1.27352E+03  7.79887E+03 -5.03754E+03  4.86185E+03
 -7.43112E+03  5.97691E+02 -6.02651E+03 -4.81454E+03 -7.56818E+02 -6.14070E+03  3.08705E+03 -4.85202E+03
  4.84962E+03 -1.85364E+03  3.23854E+03  1.28897E+03  1.04365E+03  2.61464E+03  7.98668E+02  9.25549E+02
  2.14107E+03  7.40787E+02  2.06945E+03  1.12951E+03  1.91751E+03  3.02561E+03  1.84807E+03  3.81513E+03
 -1.72500E+03  5.78138E+03 -5.16494E+03  6.56729E+03 -6.90533E+03  1.59505E+03 -7.59333E+03 -2.36762E+03
 -3.74284E+03 -7.28354E+03  8.82902E+02 -8.46734E+03  4.15770E+03 -5.39842E+03  6.10475E+03 -1.73325E+03
  4.80410E+03  2.67301E+03  8.56339E+02  4.02028E+03 -1.76576E+03  2.45045E+03 -2.52253E+03 -4.34307E+02
 -1.33831E+03 -2.99575E+03  1.83674E+03 -3.24399E+03  2.90167E+03 -1.82001E+03  2.75709E+03  8.54437E+02
  1.76623E+03  1.11316E+03  1.02394E+03  5.58796E+02 -4.37358E+02  1.17037E+03  1.77127E+03 -1.66531E+02
  7.85374E+02 -5.30179E+02  3.24126E+03  1.17563E+03  1.35923E+03  4.00712E+03 -7.17653E+02  5.32534E+03
 -3.14692E+03  2.62588E+03 -4.26455E+03  9.54575E+02 -4.07026E+03 -1.21476E+03 -1.07217E+03 -2.12777E+03
  4.93247E+02 -2.54732E+03  1.83366E+03 -1.17783E+03  1.54036E+03  1.68081E+03 -9.14277E+02  2.10261E+03
 -2.86736E+03  1.30956E+03 -2.73519E+03 -1.93841E+03 -1.69646E+03 -3.99380E+03  4.92178E+02 -3.69461E+03
  1.82889E+03 -1.76587E+03  2.13333E+03 -4.62799E+02  2.23987E+03  3.91759E+02  2.98170E+02  2.42284E+03
 -1.26122E+03  2.89620E+02 -1.46298E+03 -7.68175E+02  6.63304E+02 -2.46522E+03  3.36237E+03 -2.41404E+03
  3.54474E+03  2.55625E+02  4.68130E+03  2.30589E+03  1.94160E+03  4.09515E+03 -1.43237E+03  3.98051E+03
 -3.09895E+03  1.81350E+03 -3.44351E+03 -6.37798E+02 -1.73698E+03 -2.53340E+03  4.42344E+02 -2.31917E+03
  2.90002E+03 -1.57823E+03  2.15580E+03  1.03506E+03  4.12222E+02  2.63254E+03  7.59236E+01  2.38154E+03
 -1.07300E+03  1.58381E+03 -1.08008E+03  3.15109E+02 -6.36359E+02  3.98313E+02 -1.01809E+03  8.70130E+02
 -1.42977E+03  1.81151E+03 -3.34454E+03  1.23978E+03 -3.66375E+03  3.25717E+02 -5.07220E+03 -2.63082E+03
 -2.59169E+03 -5.34601E+03  8.77466E+02 -6.57273E+03  3.54495E+03 -4.98315E+03  5.83566E+03 -2.19266E+03
  5.62568E+03  5.65133E+02  3.33713E+03  3.56113E+03 -1.43769E+02  4.02221E+03 -1.74241E+03  3.21838E+03
 -2.29076E+03  1.31317E+03 -1.20852E+03 -3.19160E+02 -4.98326E+02  2.54104E+01 -3.14971E+02 -3.14562E+02
 -1.03571E+03  4.57669E+01 -1.18439E+03 -1.35872E+01  1.48880E+02 -1.14480E+03 -3.01132E+02 -1.83334E+03
  2.28612E+03 -1.28769E+03  2.07943E+03  8.39681E+01  2.62779E+03  2.15060E+03  3.64621E+02  4.09821E+03
 -2.02699E+03  4.58325E+03 -3.98457E+03  3.01898E+03 -4.72008E+03 -4.95993E+02 -3.74274E+03 -2.77940E+03
 -1.57418E+03 -3.57052E+03  8.82721E+02 -3.59505E+03  2.21699E+03 -1.90949E+03  2.39082E+03  2.53543E+02
  1.81004E+03  9.83865E+02 -1.13138E+02  1.44756E+03 -7.05015E+02 -2.61405E+02 -8.45371E+01 -4.87661E+02
  1.34845E+03 -1.40149E+02  1.21928E+03  6.67302E+02  8.43634E+02  1.50726E+03  2.86615E+02  1.74446E+03
 -1.92239E+03  1.68318E+03 -2.36358E+03  4.08660E+02 -2.03678E+03 -1.64277E+03 -2.86469E+02 -3.14882E+03
  1.68577E+03 -2.58120E+03  2.29271E+03 -6.49510E+02  2.94710E+03  1.76559E+02  1.63599E+03  2.52928E+03
  3.57005E+02  2.33663E+03 -8.76558E+02  1.64432E+03 -1.44843E+03  1.37433E+03 -1.15699E+03  2.38207E+02
 -9.04794E+02 -3.43597E+02 -1.06442E+03  6.98353E+00 -1.44158E+03  5.39278E+02 -1.97544E+03 -2.65276E+02
 -2.19075E+03 -7.27593E+02 -7.10219E+02 -2.65444E+03  1.65095E+03 -3.11026E+03  2.20684E+03 -8.90874E+02
  2.03204E+03 -8.78529E+01  7.27626E+02  1.35398E+03 -2.53818E+01  2.45517E+03 -1.51234E+03  1.45228E+03
