 $NMID ID='MM_0lb_SNR800_11hz_g45_46.RAW', FMTDAT='(8E13.5)'
 TRAMP=1., VOLUME=1. $END
  3.10132E+05  4.43027E+02  3.37928E+05  2.50586E+05  8.49882E+04  3.38485E+05 -1.32412E+05  2.51507E+05
 -1.90782E+05  8.36429E+04 -1.11882E+05 -3.25143E+04  8.65212E+02 -5.11031E+04  5.35659E+04  7.84377E+01
  3.55918E+04  5.26524E+04 -1.67282E+04  7.59726E+04 -6.12487E+04  6.39295E+04 -8.48356E+04  3.23189E+04
 -8.15793E+04 -1.17981E+04 -5.77977E+04 -5.16750E+04 -1.51985E+04 -7.05393E+04  2.79045E+04 -4.61142E+04
  4.05851E+04  3.34901E+03  1.67649E+04  4.81473E+04 -3.47950E+04  4.76897E+04 -6.78456E+04  1.23101E+01
 -5.39255E+04 -5.72173E+04 -7.21771E+03 -7.79713E+04  3.42113E+04 -5.58813E+04  4.90343E+04 -1.76176E+04
  4.44669E+04  1.16810E+04  3.27827E+04  2.60159E+04  1.60642E+04  2.98642E+04 -5.70103E+03  2.77514E+04
 -2.21712E+04  1.24125E+04 -1.80037E+04 -5.26808E+03  6.18166E+03 -7.79345E+03  2.28205E+04  1.24506E+04
  7.43037E+03  3.63711E+04 -3.30244E+04  3.61814E+04 -6.46671E+04  2.31251E+03 -5.77652E+04 -4.34020E+04
 -1.25451E+04 -6.42904E+04  4.05141E+04 -4.64155E+04  5.96737E+04 -2.29256E+03  3.53353E+04  3.30234E+04
 -5.65860E+03  3.80122E+04 -3.10095E+04  1.72607E+04 -3.18346E+04 -3.62830E+03 -1.78625E+04 -1.14155E+04
 -9.27036E+03 -1.42243E+04 -8.44632E+02 -1.91070E+04  7.85936E+03 -2.32992E+04  1.57789E+04 -1.30029E+04
  1.10521E+04  5.59810E+03 -9.30067E+03  1.28517E+04 -2.24419E+04 -5.56338E+03 -8.53809E+03 -3.53325E+04
  2.38960E+04 -4.51121E+04  5.01578E+04 -2.00255E+04  4.67539E+04  2.01082E+04  1.64515E+04  4.59099E+04
 -1.62471E+04  3.49737E+04 -2.65457E+04  1.92846E+03 -1.08213E+04 -2.89208E+04  2.15575E+04 -3.55634E+04
  4.24693E+04 -1.00447E+04  3.82085E+04  2.45211E+04  1.96474E+04  4.86451E+04 -8.18843E+03  5.30870E+04
 -3.34204E+04  3.58022E+04 -4.50711E+04  1.06534E+04 -4.51924E+04 -1.76736E+04 -2.49421E+04 -3.99441E+04
  7.31406E+03 -3.98695E+04  3.29851E+04 -1.60036E+04  3.05699E+04  1.09353E+04  4.52002E+03  1.99916E+04
 -1.35019E+04  8.84865E+03 -1.07706E+04 -7.84813E+03  5.70713E+03 -1.06435E+04  1.84928E+04  5.74263E+03
  1.42755E+04  2.26773E+04 -5.59023E+03  2.61400E+04 -2.30838E+04  1.28402E+04 -2.96842E+04 -4.12587E+03
 -2.29816E+04 -1.80898E+04 -9.86297E+03 -2.24928E+04  3.95953E+03 -2.29461E+04  1.77578E+04 -2.06042E+04
  2.92773E+04 -1.34178E+04  3.52223E+04  4.01466E+03  2.53115E+04  2.19691E+04  4.46596E+03  3.85722E+04
 -1.93881E+04  3.18066E+04 -2.92504E+04  1.09208E+04 -2.15457E+04 -1.02409E+04 -4.59212E+03 -1.31972E+04
  1.36081E+03 -2.07541E+03 -6.28099E+03  7.38797E+03 -1.81072E+04  5.32976E+03 -1.80132E+04 -8.43610E+03
 -1.10075E+04 -2.10599E+04  5.17000E+03 -2.55218E+04  1.67446E+04 -1.81452E+04  2.05825E+04 -1.64200E+03
  1.27441E+04  1.49104E+04 -1.37910E+03  2.09583E+04 -1.46407E+04  1.22155E+04 -2.13480E+04 -4.89122E+03
 -1.54875E+04 -1.89115E+04 -2.08656E+03 -2.56132E+04  1.15042E+04 -2.09527E+04  2.10298E+04 -1.08785E+04
  1.98289E+04  7.76725E+01  1.39246E+04  4.96405E+03  8.15042E+03  1.29314E+03  1.04158E+04 -1.62489E+03
  1.95276E+04  2.69311E+03  2.20115E+04  1.63183E+04  1.51877E+04  3.35557E+04 -3.12337E+03  3.93052E+04
 -2.23778E+04  3.19197E+04 -3.64775E+04  1.59676E+04 -3.87261E+04 -2.91362E+03 -3.18965E+04 -2.26895E+04
 -1.32891E+04 -3.19670E+04  1.13308E+04 -2.84009E+04  2.44782E+04 -1.40496E+04  2.13861E+04  6.79681E+03
  7.70834E+03  1.64556E+04 -1.03178E+04  1.39115E+04 -1.82065E+04  2.50283E+03 -1.38800E+04 -1.14490E+04
 -3.24958E+02 -1.75414E+04  9.08531E+03 -1.27531E+04  1.19344E+04 -1.09451E+03  3.03187E+03  7.66255E+03
 -7.86509E+03  3.18877E+03 -7.61886E+03 -6.24986E+03 -1.44021E+03 -1.54988E+04  1.06560E+04 -1.69364E+04
  1.98044E+04 -9.41988E+03  2.15973E+04  3.26663E+03  1.92331E+04  1.58990E+04  9.10537E+03  2.42408E+04
 -4.02190E+03  2.69658E+04 -1.70893E+04  1.68250E+04 -1.89405E+04  3.43034E+03 -1.31477E+04 -4.51028E+03
 -5.79620E+03 -6.13521E+03 -6.82102E+02  7.11568E+02 -2.76062E+03  2.98703E+03 -6.29996E+03  4.72801E+03
 -1.24154E+04 -9.57366E+02 -1.30845E+04 -1.04907E+04 -5.10380E+03 -1.68461E+04  5.65854E+03 -1.39102E+04
  1.14754E+04 -6.11529E+03  7.40297E+03  3.84025E+03 -1.62825E+02  5.24890E+03 -6.65407E+03 -1.27785E+02
 -6.10264E+03 -8.67563E+03 -1.28139E+03 -1.26221E+04  7.68993E+03 -1.41031E+04  1.73294E+04 -7.39676E+03
  1.99406E+04  2.09687E+03  1.44167E+04  1.24236E+04  2.72547E+03  1.61438E+04 -8.40547E+03  1.35235E+04
 -1.07716E+04  4.24310E+03 -6.01823E+03 -3.01410E+03  1.98705E+03 -3.72761E+03  7.39510E+03 -1.30460E+03
  6.59077E+03  5.77510E+03  1.76557E+03  1.05706E+04 -7.83853E+03  1.02789E+04 -1.31630E+04  2.63229E+03
 -9.14604E+03 -6.85106E+03  3.23510E+02 -1.14091E+04  7.31310E+03 -5.78109E+03  7.73999E+03  2.72058E+03
  1.76034E+03  7.97946E+03 -6.61778E+03  9.41530E+03 -1.06512E+04  4.04195E+03 -1.06390E+04 -3.92265E+03
 -6.69374E+03 -1.30511E+04  2.98549E+03 -1.48059E+04  1.23370E+04 -8.81026E+03  1.35537E+04  2.30091E+03
  8.23194E+03  1.04464E+04 -9.71063E+02  1.30564E+04 -9.83445E+03  7.12303E+03 -1.05568E+04 -7.04318E+02
 -9.26032E+03 -8.72377E+03 -1.64896E+03 -1.00885E+04  5.36843E+03 -7.99407E+03  6.43200E+03 -3.47096E+03
  4.31056E+03  1.36460E+03 -8.95131E+02  1.48098E+03 -4.88102E+02 -2.39403E+03  1.85906E+03 -5.91952E+03
  8.86828E+03 -3.80746E+03  1.26183E+04  1.26585E+03  1.26233E+04  8.38572E+03  8.64478E+03  1.65336E+04
 -3.92908E+03  1.89762E+04 -1.59735E+04  1.44201E+04 -2.04630E+04  2.78685E+03 -1.69212E+04 -7.12229E+03
 -8.54375E+03 -1.35340E+04 -4.00555E+02 -1.14162E+04  4.08656E+03 -6.62413E+03  4.25989E+03 -4.32609E+03
  3.05239E+03 -2.55754E+03  3.28515E+03 -3.37856E+03  5.12105E+03 -2.78491E+03  6.45560E+03 -7.18530E+02
  8.65870E+03  2.18019E+03  4.64440E+03  7.36682E+03 -1.63418E+03  8.54184E+03 -8.95070E+03  6.38568E+03
 -1.13085E+04 -1.09620E+03 -6.80787E+03 -8.18370E+03 -5.94866E+02 -1.25569E+04  6.93477E+03 -1.20326E+04
  1.27604E+04 -6.68870E+03  1.51613E+04  1.69990E+03  1.03691E+04  1.07757E+04  1.70983E+03  1.40428E+04
 -6.12922E+03  1.17565E+04 -7.85651E+03  4.51889E+03 -5.64662E+03 -1.54618E+03 -2.07918E+03 -1.55150E+03
 -1.37869E+03  1.90910E+02 -2.06655E+03  2.97187E+03 -4.59039E+03  2.34106E+03 -8.01458E+03 -1.04417E+03
 -5.17661E+03 -7.85255E+03  1.36263E+02 -1.15700E+04  7.11126E+03 -1.05657E+04  1.11073E+04 -3.21474E+03
  1.07662E+04  5.28098E+03  5.15215E+03  9.70628E+03 -2.16437E+03  1.09142E+04 -8.15459E+03  6.52767E+03
 -1.05066E+04  7.07427E+02 -8.34068E+03 -6.38974E+03 -1.00929E+03 -9.25548E+03  4.89952E+03 -6.48199E+03
  7.17070E+03 -2.62863E+03  5.05117E+03  1.90873E+03  1.83067E+03  3.13847E+03  1.49512E+03  1.63927E+03
  2.60569E+03  8.47629E+02  2.71250E+03  1.36582E+03  3.03134E+03  4.05756E+03  3.14186E+03  6.11522E+03
 -2.64701E+03  8.74169E+03 -7.49634E+03  9.15573E+03 -1.13179E+04  2.95419E+03 -1.16086E+04 -4.33168E+03
 -5.35580E+03 -1.11266E+04  1.78392E+03 -1.23719E+04  6.44216E+03 -7.58874E+03  9.08782E+03 -1.94579E+03
  7.15168E+03  4.09044E+03  1.17161E+03  6.71716E+03 -2.74300E+03  4.47425E+03 -4.38555E+03 -6.23515E+02
 -1.81691E+03 -4.47173E+03  2.81703E+03 -4.79222E+03  4.89289E+03 -2.25906E+03  4.68306E+03  1.01507E+03
  2.44114E+03  2.19719E+03  1.06946E+03  1.45919E+03 -6.18292E+02  1.59790E+03  1.62364E+03 -3.21629E+02
  1.80714E+03 -7.36086E+02  4.72166E+03  2.08070E+03  2.79480E+03  6.23615E+03 -8.59542E+02  8.13964E+03
 -5.42711E+03  4.66397E+03 -7.06073E+03  1.58257E+03 -6.60010E+03 -2.24379E+03 -2.02346E+03 -4.37407E+03
  7.84590E+02 -4.43096E+03  2.68036E+03 -1.97978E+03  2.16073E+03  2.33836E+03 -1.07896E+03  3.23257E+03
 -4.49641E+03  2.38784E+03 -5.21772E+03 -2.47306E+03 -2.97908E+03 -5.95441E+03  6.96341E+02 -6.03951E+03
  3.56796E+03 -3.09019E+03  4.50081E+03 -3.83065E+02  3.68285E+03  1.27120E+03  6.75758E+02  3.23913E+03
 -2.06185E+03  1.09887E+03 -2.91459E+03 -2.21443E+03  1.04707E+03 -4.18962E+03  5.14790E+03 -3.89159E+03
  6.48918E+03  1.15394E+03  6.75197E+03  4.20249E+03  2.30935E+03  6.98347E+03 -2.22038E+03  6.72671E+03
 -5.92185E+03  2.89152E+03 -6.01924E+03 -7.02702E+02 -3.45798E+03 -4.43040E+03  9.84138E+02 -4.04698E+03
  4.94431E+03 -2.08147E+03  3.26513E+03  2.14845E+03  9.46022E+02  4.04914E+03 -8.06678E+01  3.46697E+03
 -1.51399E+03  2.41833E+03 -1.72466E+03  5.82382E+02 -6.79555E+02  5.37433E+02 -9.63796E+02  1.57300E+03
 -1.76636E+03  2.79924E+03 -4.71333E+03  2.40571E+03 -6.86167E+03 -1.20682E+02 -7.89823E+03 -4.38008E+03
 -4.05158E+03 -9.20492E+03  1.92395E+03 -1.07546E+04  6.57263E+03 -8.16100E+03  1.04047E+04 -3.06541E+03
  9.27968E+03  1.50694E+03  5.71650E+03  6.48663E+03  2.90354E+02  6.93737E+03 -2.53277E+03  5.82275E+03
 -3.79594E+03  2.22098E+03 -2.44461E+03 -6.50132E+02 -9.60357E+02 -6.46114E+02 -4.81388E+02 -2.23179E+02
 -1.63724E+03 -4.36885E+00 -1.80408E+03 -8.93206E+01 -1.96221E+02 -1.66267E+03 -3.11081E+02 -2.95694E+03
  2.86241E+03 -2.47483E+03  4.02528E+03  1.22020E+02  5.09007E+03  3.60641E+03  9.57760E+02  7.06056E+03
 -3.38431E+03  8.35893E+03 -7.15015E+03  5.18317E+03 -8.67242E+03 -6.00885E+02 -6.19245E+03 -5.19942E+03
 -2.73104E+03 -6.86614E+03  1.64370E+03 -6.70172E+03  4.36745E+03 -3.31157E+03  4.49906E+03 -9.15000E+01
  2.64557E+03  2.56570E+03 -2.77638E+02  1.96534E+03 -1.45621E+03  1.27651E+01 -6.71208E+01 -1.77264E+03
  2.61498E+03 -8.32434E+02  2.86090E+03  1.08971E+03  2.16538E+03  2.76314E+03  3.85643E+01  3.55824E+03
 -3.02088E+03  3.52843E+03 -4.45190E+03  4.60715E+02 -4.07434E+03 -3.25470E+03 -6.34202E+02 -5.77323E+03
  3.37988E+03 -4.85699E+03  4.91540E+03 -1.23575E+03  5.51576E+03  9.27438E+02  2.73700E+03  4.08115E+03
  1.00918E+03  4.40259E+03 -1.78372E+03  3.65917E+03 -2.74039E+03  2.06854E+03 -2.27751E+03  3.24796E+02
 -1.00042E+03 -9.66678E+01 -1.27599E+03  1.57666E+02 -2.52548E+03  7.39911E+02 -3.30879E+03 -9.94373E+02
 -3.61809E+03 -2.02837E+03 -1.27790E+03 -4.81677E+03  2.00452E+03 -5.17768E+03  4.28506E+03 -2.20434E+03
  4.68206E+03  6.26466E+02  2.25313E+03  3.14144E+03 -3.68891E+02  4.58448E+03 -3.19709E+03  3.62638E+03
