 $NMID ID='MM_0lb_SNR800_12hz_g55_34.RAW', FMTDAT='(8E13.5)'
 TRAMP=1., VOLUME=1. $END
  3.09649E+05  4.01051E+02  3.38032E+05  2.50996E+05  8.46302E+04  3.37905E+05 -1.32743E+05  2.51604E+05
 -1.90592E+05  8.37536E+04 -1.11966E+05 -3.27652E+04  5.89141E+02 -5.05557E+04  5.37915E+04 -4.04971E+02
  3.56173E+04  5.29740E+04 -1.65299E+04  7.55630E+04 -6.11736E+04  6.40130E+04 -8.47663E+04  3.25376E+04
 -8.15245E+04 -1.12147E+04 -5.74309E+04 -5.19800E+04 -1.49588E+04 -7.04144E+04  2.77914E+04 -4.64328E+04
  4.06258E+04  3.89846E+03  1.64283E+04  4.83191E+04 -3.44313E+04  4.78864E+04 -6.76725E+04 -2.12748E+01
 -5.44742E+04 -5.76622E+04 -7.19725E+03 -7.81061E+04  3.44651E+04 -5.63722E+04  4.92671E+04 -1.79806E+04
  4.45492E+04  1.14891E+04  3.24786E+04  2.58718E+04  1.62287E+04  3.00556E+04 -5.93281E+03  2.74372E+04
 -2.22454E+04  1.21185E+04 -1.82411E+04 -5.16581E+03  6.53596E+03 -7.59023E+03  2.30718E+04  1.32396E+04
  6.98602E+03  3.66945E+04 -3.30512E+04  3.64276E+04 -6.44860E+04  2.37511E+03 -5.79199E+04 -4.39925E+04
 -1.25421E+04 -6.44960E+04  4.09439E+04 -4.66364E+04  6.00670E+04 -2.57475E+03  3.55120E+04  3.32744E+04
 -5.75949E+03  3.78458E+04 -3.12108E+04  1.75233E+04 -3.19216E+04 -4.17272E+03 -1.82342E+04 -1.11654E+04
 -9.17592E+03 -1.41322E+04 -4.67577E+02 -1.86199E+04  8.30694E+03 -2.34714E+04  1.58324E+04 -1.31956E+04
  1.09940E+04  5.70594E+03 -9.64176E+03  1.30540E+04 -2.25458E+04 -5.66895E+03 -8.17754E+03 -3.55946E+04
  2.41519E+04 -4.51107E+04  5.04450E+04 -2.01584E+04  4.67509E+04  2.01015E+04  1.64810E+04  4.59821E+04
 -1.63759E+04  3.49077E+04 -2.65538E+04  1.78372E+03 -1.09259E+04 -2.87837E+04  2.14155E+04 -3.56680E+04
  4.29666E+04 -1.01213E+04  3.82916E+04  2.45041E+04  2.00367E+04  4.90289E+04 -8.33566E+03  5.35488E+04
 -3.35526E+04  3.65332E+04 -4.48596E+04  1.02288E+04 -4.51330E+04 -1.76135E+04 -2.52705E+04 -4.02844E+04
  7.52844E+03 -4.00443E+04  3.29376E+04 -1.62741E+04  3.09516E+04  1.08779E+04  4.61373E+03  2.04301E+04
 -1.38400E+04  8.43043E+03 -1.04655E+04 -7.98115E+03  5.53970E+03 -1.12910E+04  1.83803E+04  5.61288E+03
  1.42027E+04  2.23797E+04 -5.64121E+03  2.59898E+04 -2.27562E+04  1.30673E+04 -3.00103E+04 -3.47510E+03
 -2.32631E+04 -1.82027E+04 -1.00621E+04 -2.27294E+04  4.30368E+03 -2.28640E+04  1.78112E+04 -2.08257E+04
  2.91866E+04 -1.33760E+04  3.52872E+04  3.94512E+03  2.58784E+04  2.21510E+04  4.53030E+03  3.88905E+04
 -1.89038E+04  3.21672E+04 -2.92608E+04  1.14726E+04 -2.16378E+04 -1.01955E+04 -4.45991E+03 -1.31154E+04
  1.05353E+03 -2.43656E+03 -6.05148E+03  7.49176E+03 -1.85502E+04  5.19421E+03 -1.84033E+04 -8.18198E+03
 -1.13667E+04 -2.11427E+04  5.75951E+03 -2.57462E+04  1.65253E+04 -1.83823E+04  2.05638E+04 -1.62373E+03
  1.29915E+04  1.48588E+04 -1.24072E+03  2.10548E+04 -1.48906E+04  1.17613E+04 -2.16838E+04 -4.79952E+03
 -1.57739E+04 -1.89991E+04 -1.80078E+03 -2.55483E+04  1.15717E+04 -2.10155E+04  2.13628E+04 -1.10940E+04
  1.95997E+04 -8.10768E-01  1.45231E+04  4.76085E+03  7.84973E+03  1.14740E+03  1.07041E+04 -1.83494E+03
  1.98015E+04  2.61938E+03  2.23704E+04  1.69138E+04  1.49969E+04  3.39195E+04 -2.64888E+03  3.89966E+04
 -2.27675E+04  3.23335E+04 -3.70736E+04  1.67907E+04 -3.92315E+04 -2.95136E+03 -3.20734E+04 -2.24354E+04
 -1.30310E+04 -3.23779E+04  1.10297E+04 -2.87900E+04  2.47646E+04 -1.41707E+04  2.19167E+04  6.88956E+03
  7.91852E+03  1.61812E+04 -1.00390E+04  1.42283E+04 -1.78481E+04  2.46312E+03 -1.38297E+04 -1.16456E+04
 -3.35813E+02 -1.73918E+04  9.38845E+03 -1.26298E+04  1.17282E+04 -1.23225E+03  2.70273E+03  7.62715E+03
 -8.19358E+03  3.37986E+03 -7.56658E+03 -6.28692E+03 -1.18722E+03 -1.57279E+04  1.11073E+04 -1.67612E+04
  1.95484E+04 -9.17760E+03  2.20701E+04  3.32596E+03  1.91146E+04  1.59844E+04  9.00551E+03  2.43955E+04
 -4.27307E+03  2.67934E+04 -1.67378E+04  1.66162E+04 -1.91456E+04  3.75883E+03 -1.29398E+04 -4.82346E+03
 -5.98914E+03 -6.21249E+03 -7.84735E+02  9.32530E+02 -2.58087E+03  2.96364E+03 -6.04438E+03  4.94109E+03
 -1.26806E+04 -8.60486E+02 -1.32794E+04 -1.06168E+04 -5.18981E+03 -1.68092E+04  5.77843E+03 -1.32556E+04
  1.11792E+04 -5.73316E+03  7.98195E+03  3.59052E+03  1.28300E+02  5.32231E+03 -6.56404E+03 -2.73375E+02
 -6.05005E+03 -8.77025E+03 -6.65459E+02 -1.27616E+04  7.52919E+03 -1.38899E+04  1.66263E+04 -7.21157E+03
  1.93556E+04  1.97043E+03  1.45191E+04  1.18119E+04  2.94982E+03  1.55317E+04 -8.31884E+03  1.31878E+04
 -1.05022E+04  4.13196E+03 -5.57168E+03 -2.75874E+03  2.16475E+03 -3.80580E+03  7.00226E+03 -5.57805E+02
  6.17543E+03  5.56620E+03  1.10985E+03  1.05774E+04 -7.50826E+03  1.02793E+04 -1.29113E+04  2.50178E+03
 -8.90282E+03 -6.98922E+03  1.74361E+02 -1.14738E+04  7.38965E+03 -5.59654E+03  7.36052E+03  2.59602E+03
  1.59158E+03  8.18202E+03 -6.48711E+03  9.62002E+03 -1.04413E+04  4.23323E+03 -1.06069E+04 -3.72373E+03
 -6.23202E+03 -1.25130E+04  3.01764E+03 -1.44617E+04  1.22646E+04 -8.63452E+03  1.33542E+04  1.98661E+03
  8.22760E+03  1.07764E+04 -1.16960E+03  1.29147E+04 -9.41082E+03  7.22761E+03 -1.01216E+04 -1.09443E+03
 -8.82923E+03 -8.79829E+03 -1.43491E+03 -9.53618E+03  4.68229E+03 -8.15105E+03  6.03597E+03 -3.16075E+03
  4.08537E+03  1.54680E+03 -9.61220E+02  1.79740E+03 -5.30127E+02 -2.65812E+03  1.69277E+03 -5.69852E+03
  8.79599E+03 -3.30901E+03  1.20302E+04  1.55419E+03  1.22412E+04  8.08170E+03  8.31432E+03  1.57033E+04
 -3.40383E+03  1.87651E+04 -1.55291E+04  1.40918E+04 -2.00210E+04  2.58528E+03 -1.61266E+04 -6.55242E+03
 -7.99774E+03 -1.36298E+04 -4.11735E+02 -1.10405E+04  4.00446E+03 -6.14802E+03  3.81975E+03 -4.21506E+03
  2.96075E+03 -2.50329E+03  3.15211E+03 -3.50478E+03  5.10892E+03 -2.69065E+03  6.42535E+03 -7.07676E+02
  8.38130E+03  1.93812E+03  4.06360E+03  7.24578E+03 -2.23781E+03  8.36666E+03 -9.05773E+03  6.26774E+03
 -1.11074E+04 -1.40847E+03 -6.73486E+03 -7.66373E+03 -1.02244E+03 -1.18117E+04  6.64552E+03 -1.18954E+04
  1.21965E+04 -6.76680E+03  1.48486E+04  1.70030E+03  1.00678E+04  1.01095E+04  1.89802E+03  1.33578E+04
 -5.44159E+03  1.10491E+04 -7.86157E+03  3.78690E+03 -5.19620E+03 -1.39090E+03 -2.08914E+03 -1.89580E+03
 -1.11379E+03 -9.97446E+01 -2.01248E+03  2.58706E+03 -4.68399E+03  2.04052E+03 -7.90741E+03 -1.22250E+03
 -4.76969E+03 -7.83233E+03  1.26599E+02 -1.08900E+04  6.75767E+03 -1.00534E+04  1.06219E+04 -3.16850E+03
  1.09268E+04  5.40963E+03  4.83980E+03  9.11135E+03 -2.13145E+03  1.10633E+04 -7.47755E+03  6.59114E+03
 -1.03324E+04  3.15308E+02 -8.09218E+03 -6.51293E+03 -5.32972E+02 -8.97740E+03  4.69811E+03 -6.61892E+03
  6.98694E+03 -2.25446E+03  4.97170E+03  1.73024E+03  1.76244E+03  3.17068E+03  1.29576E+03  1.54247E+03
  2.14745E+03  1.10101E+03  2.34170E+03  1.58161E+03  2.95354E+03  3.84584E+03  2.93289E+03  5.15734E+03
 -2.57525E+03  8.23096E+03 -6.99579E+03  8.82352E+03 -1.04260E+04  2.33815E+03 -1.12834E+04 -4.45671E+03
 -5.00665E+03 -1.08016E+04  1.66527E+03 -1.18912E+04  6.10402E+03 -7.54252E+03  8.80784E+03 -2.06357E+03
  6.58708E+03  3.89259E+03  1.45282E+03  5.96289E+03 -2.60951E+03  3.65431E+03 -4.12521E+03 -9.06688E+02
 -2.06107E+03 -4.56331E+03  2.21332E+03 -4.29035E+03  4.10363E+03 -2.16843E+03  4.03777E+03  8.13847E+02
  2.22035E+03  1.88983E+03  1.69991E+03  1.42349E+03 -8.58660E+02  1.66002E+03  1.81578E+03 -3.84163E+02
  1.54753E+03 -6.51476E+02  4.40370E+03  1.82536E+03  2.33717E+03  5.47528E+03 -1.07583E+03  7.58852E+03
 -4.76603E+03  4.58718E+03 -6.36059E+03  1.20767E+03 -5.87640E+03 -2.05769E+03 -1.76993E+03 -3.73599E+03
  6.37428E+02 -3.93011E+03  2.12564E+03 -1.67087E+03  2.19287E+03  2.05390E+03 -1.00934E+03  3.35141E+03
 -4.33293E+03  1.64895E+03 -4.36301E+03 -2.65286E+03 -2.20108E+03 -5.80170E+03  9.43720E+02 -5.81460E+03
  2.94467E+03 -2.92071E+03  3.44597E+03 -4.67404E+02  3.52395E+03  1.09992E+03  2.81274E+02  3.02079E+03
 -1.81134E+03  7.65199E+02 -2.80326E+03 -1.61772E+03  1.22377E+03 -4.36860E+03  4.97954E+03 -3.47513E+03
  6.00686E+03  5.26808E+02  6.19704E+03  3.93484E+03  2.11667E+03  6.29040E+03 -1.85826E+03  6.24507E+03
 -5.06815E+03  2.44985E+03 -5.36911E+03 -5.34147E+02 -3.01462E+03 -3.94812E+03  1.10214E+03 -3.95064E+03
  4.05164E+03 -1.54470E+03  3.46811E+03  1.52301E+03  1.21764E+03  3.81247E+03 -3.65390E+02  3.22810E+03
 -1.53791E+03  2.18642E+03 -1.48081E+03  7.07157E+02 -6.38618E+02  5.67715E+02 -9.29922E+02  1.34087E+03
 -1.52471E+03  2.79062E+03 -4.75002E+03  2.28485E+03 -5.89972E+03  3.96575E+02 -7.11558E+03 -4.12360E+03
 -3.39862E+03 -7.82164E+03  1.32673E+03 -9.37632E+03  5.84714E+03 -7.72166E+03  9.16058E+03 -2.69438E+03
  8.14076E+03  1.33965E+03  4.95938E+03  5.83894E+03  1.74211E+02  6.41184E+03 -2.69206E+03  4.59069E+03
 -3.67123E+03  1.90135E+03 -2.34336E+03 -6.04704E+02 -9.05218E+02 -3.87216E+02 -8.75192E+02 -7.68683E+01
 -1.76823E+03  2.30124E+01 -1.53921E+03 -3.37421E+02 -4.10192E+02 -1.44453E+03  1.97822E+02 -2.57863E+03
  3.35750E+03 -1.63104E+03  3.51263E+03  2.95569E+02  4.38985E+03  3.69677E+03  5.88006E+02  6.08891E+03
 -3.22811E+03  7.48232E+03 -6.41199E+03  4.14938E+03 -7.39081E+03 -5.73749E+02 -5.13359E+03 -4.74433E+03
 -2.85840E+03 -5.88702E+03  1.70039E+03 -5.67583E+03  3.68420E+03 -3.25881E+03  3.99856E+03  3.86672E+02
  1.81784E+03  1.78176E+03 -2.42856E+02  1.54515E+03 -1.13220E+03  1.38322E+02  1.41474E+02 -1.39664E+03
  1.67079E+03 -1.86616E+02  2.23928E+03  7.27643E+02  1.59692E+03  2.25095E+03  3.31582E+02  3.11975E+03
 -2.72849E+03  2.85000E+03 -3.86916E+03  4.33597E+02 -3.56609E+03 -2.70264E+03 -3.69763E+02 -4.84538E+03
  3.06701E+03 -3.98424E+03  4.32793E+03 -1.17573E+03  4.24255E+03  7.82238E+02  2.66987E+03  3.62742E+03
  6.87047E+02  3.61305E+03 -1.85484E+03  3.02708E+03 -2.47127E+03  1.85558E+03 -1.71254E+03  3.21904E+02
 -1.24306E+03 -9.10308E+01 -1.21416E+03  2.72409E+02 -1.98451E+03  6.72088E+02 -3.14795E+03 -5.67147E+02
 -3.04618E+03 -1.68342E+03 -1.06977E+03 -3.64736E+03  2.21983E+03 -4.02006E+03  3.57799E+03 -1.81256E+03
  3.91620E+03  5.80033E+02  1.91109E+03  2.38887E+03 -5.71060E+02  4.17181E+03 -2.46413E+03  2.68550E+03
