 $NMID ID='MM_0lb_SNR800_11hz_g45_72.RAW', FMTDAT='(8E13.5)'
 TRAMP=1., VOLUME=1. $END
  3.09747E+05  6.56412E+02  3.37753E+05  2.50516E+05  8.49463E+04  3.38397E+05 -1.32881E+05  2.51536E+05
 -1.90866E+05  8.32595E+04 -1.12391E+05 -3.21456E+04  8.55938E+02 -5.02057E+04  5.38116E+04 -5.79798E+02
  3.56662E+04  5.26711E+04 -1.67399E+04  7.56658E+04 -6.07613E+04  6.40215E+04 -8.46351E+04  3.24618E+04
 -8.16662E+04 -1.16277E+04 -5.77280E+04 -5.16432E+04 -1.51145E+04 -7.02629E+04  2.75814E+04 -4.61884E+04
  4.05437E+04  3.86280E+03  1.66468E+04  4.77882E+04 -3.45804E+04  4.75741E+04 -6.71471E+04 -2.27128E+02
 -5.41906E+04 -5.75045E+04 -7.13358E+03 -7.81181E+04  3.43373E+04 -5.56937E+04  4.86482E+04 -1.76624E+04
  4.48391E+04  1.17907E+04  3.23786E+04  2.58583E+04  1.56551E+04  2.98627E+04 -5.39872E+03  2.71742E+04
 -2.22301E+04  1.21457E+04 -1.83146E+04 -5.34204E+03  6.13663E+03 -7.51737E+03  2.30076E+04  1.28794E+04
  7.34710E+03  3.65916E+04 -3.32839E+04  3.66483E+04 -6.48837E+04  2.15096E+03 -5.77366E+04 -4.33909E+04
 -1.24651E+04 -6.44289E+04  4.05878E+04 -4.61773E+04  5.93721E+04 -2.31051E+03  3.58246E+04  3.33610E+04
 -5.59846E+03  3.79010E+04 -3.08432E+04  1.74693E+04 -3.16694E+04 -4.25923E+03 -1.79411E+04 -1.14328E+04
 -8.92833E+03 -1.41907E+04 -8.34921E+02 -1.84890E+04  8.08187E+03 -2.34650E+04  1.52917E+04 -1.31384E+04
  1.09856E+04  5.55476E+03 -9.10215E+03  1.29327E+04 -2.23364E+04 -5.17166E+03 -8.49611E+03 -3.55367E+04
  2.39525E+04 -4.53770E+04  5.03719E+04 -2.03539E+04  4.66546E+04  2.02147E+04  1.63914E+04  4.59824E+04
 -1.64934E+04  3.49057E+04 -2.65000E+04  2.14086E+03 -1.06074E+04 -2.86564E+04  2.12439E+04 -3.54100E+04
  4.27889E+04 -9.97089E+03  3.80060E+04  2.43520E+04  1.97788E+04  4.86265E+04 -8.08132E+03  5.29524E+04
 -3.35023E+04  3.58034E+04 -4.47711E+04  1.03459E+04 -4.51018E+04 -1.74314E+04 -2.48173E+04 -3.96685E+04
  7.59942E+03 -4.01522E+04  3.30148E+04 -1.59349E+04  3.07978E+04  1.10931E+04  4.15495E+03  1.99654E+04
 -1.36364E+04  9.17399E+03 -1.05421E+04 -7.87556E+03  5.98920E+03 -1.07596E+04  1.82857E+04  5.85369E+03
  1.41902E+04  2.25336E+04 -5.63072E+03  2.59664E+04 -2.32140E+04  1.27589E+04 -2.93436E+04 -3.84839E+03
 -2.31428E+04 -1.79172E+04 -9.79590E+03 -2.26640E+04  4.44372E+03 -2.24912E+04  1.76374E+04 -2.02949E+04
  2.89748E+04 -1.36448E+04  3.50602E+04  3.84007E+03  2.53115E+04  2.23630E+04  4.73309E+03  3.88580E+04
 -1.88710E+04  3.20630E+04 -2.90077E+04  1.11702E+04 -2.18322E+04 -1.01784E+04 -4.77421E+03 -1.31852E+04
  9.61032E+02 -2.05264E+03 -6.15834E+03  7.41990E+03 -1.82232E+04  5.17570E+03 -1.80392E+04 -8.18126E+03
 -1.08940E+04 -2.08424E+04  5.61229E+03 -2.52467E+04  1.71381E+04 -1.80909E+04  2.03594E+04 -1.44946E+03
  1.28399E+04  1.46608E+04 -1.22744E+03  2.08946E+04 -1.49178E+04  1.19436E+04 -2.11819E+04 -4.61149E+03
 -1.60337E+04 -1.89909E+04 -1.84417E+03 -2.53962E+04  1.12457E+04 -2.07433E+04  2.11863E+04 -1.04553E+04
  2.02019E+04  2.17792E+02  1.43693E+04  4.77977E+03  7.88325E+03  1.02183E+03  1.05575E+04 -1.40982E+03
  1.97324E+04  3.01181E+03  2.23450E+04  1.67460E+04  1.46813E+04  3.38522E+04 -2.86305E+03  3.89704E+04
 -2.26533E+04  3.21719E+04 -3.69424E+04  1.61377E+04 -3.90430E+04 -2.90207E+03 -3.18301E+04 -2.26072E+04
 -1.28729E+04 -3.23445E+04  1.13167E+04 -2.89280E+04  2.47523E+04 -1.37716E+04  2.18240E+04  6.77552E+03
  7.91996E+03  1.67203E+04 -1.03197E+04  1.38152E+04 -1.83062E+04  2.72410E+03 -1.35820E+04 -1.11760E+04
 -2.42440E+02 -1.72664E+04  9.33094E+03 -1.28452E+04  1.18488E+04 -1.44600E+03  2.79596E+03  7.52088E+03
 -7.81359E+03  3.60957E+03 -7.82720E+03 -6.57486E+03 -1.12448E+03 -1.58524E+04  1.08478E+04 -1.68539E+04
  1.99897E+04 -9.19472E+03  2.19344E+04  3.09635E+03  1.92191E+04  1.62539E+04  8.90010E+03  2.47714E+04
 -4.28356E+03  2.67083E+04 -1.72198E+04  1.65730E+04 -1.91221E+04  3.62717E+03 -1.31342E+04 -4.96762E+03
 -5.99393E+03 -6.07817E+03 -6.26454E+02  7.18569E+02 -2.48270E+03  2.83375E+03 -5.95061E+03  4.77741E+03
 -1.23101E+04 -8.89199E+02 -1.29431E+04 -1.06617E+04 -5.16541E+03 -1.69318E+04  5.41115E+03 -1.35336E+04
  1.09550E+04 -5.63005E+03  8.04601E+03  3.29037E+03  3.25250E+02  5.51952E+03 -6.65646E+03  1.74136E+02
 -6.53104E+03 -8.49713E+03 -1.19242E+03 -1.28888E+04  7.45062E+03 -1.41740E+04  1.68744E+04 -7.07887E+03
  1.99134E+04  1.79978E+03  1.47399E+04  1.20796E+04  3.04369E+03  1.59816E+04 -8.65990E+03  1.34416E+04
 -1.08220E+04  4.22780E+03 -5.50204E+03 -2.81595E+03  1.97599E+03 -3.38363E+03  7.07333E+03 -1.13349E+03
  6.61834E+03  5.71822E+03  1.30243E+03  1.08767E+04 -8.04483E+03  1.00229E+04 -1.34411E+04  2.37188E+03
 -8.97093E+03 -6.90133E+03  3.76611E+02 -1.14608E+04  7.40030E+03 -5.66902E+03  7.64355E+03  2.76346E+03
  1.93167E+03  7.79939E+03 -7.01220E+03  9.32691E+03 -1.09387E+04  4.09650E+03 -1.12084E+04 -3.99201E+03
 -6.34955E+03 -1.26265E+04  2.84436E+03 -1.45459E+04  1.27364E+04 -8.94445E+03  1.34318E+04  2.54217E+03
  8.50402E+03  1.07849E+04 -1.14592E+03  1.32337E+04 -9.87016E+03  7.17968E+03 -1.00156E+04 -1.04737E+03
 -9.18971E+03 -8.66842E+03 -1.59909E+03 -9.68653E+03  5.49017E+03 -8.42173E+03  6.31585E+03 -3.19202E+03
  4.17378E+03  1.77830E+03 -1.08589E+03  2.01994E+03 -2.29812E+02 -2.42897E+03  1.96028E+03 -5.72905E+03
  8.82039E+03 -3.42073E+03  1.27021E+04  1.16620E+03  1.21904E+04  8.21943E+03  8.88678E+03  1.67515E+04
 -3.88097E+03  1.89412E+04 -1.55819E+04  1.41504E+04 -2.07551E+04  3.00644E+03 -1.67484E+04 -7.06897E+03
 -8.67963E+03 -1.35158E+04 -3.52097E+01 -1.14805E+04  4.22745E+03 -5.94012E+03  4.30203E+03 -4.48033E+03
  2.94708E+03 -2.79608E+03  3.51713E+03 -3.69744E+03  4.95004E+03 -3.06057E+03  6.46118E+03 -1.02622E+03
  8.57544E+03  1.94198E+03  4.44385E+03  7.35111E+03 -1.88192E+03  8.29266E+03 -9.33284E+03  6.45042E+03
 -1.15642E+04 -1.30311E+03 -6.79127E+03 -8.21332E+03 -1.12347E+03 -1.24047E+04  6.48940E+03 -1.23713E+04
  1.28008E+04 -6.77842E+03  1.50346E+04  1.79781E+03  1.09912E+04  1.07479E+04  1.98534E+03  1.39093E+04
 -5.54199E+03  1.15461E+04 -8.20627E+03  3.68249E+03 -5.46882E+03 -1.69524E+03 -2.41099E+03 -1.53266E+03
 -9.97361E+02 -2.80575E+02 -1.84222E+03  2.45297E+03 -5.01878E+03  2.07744E+03 -8.19643E+03 -1.22681E+03
 -5.46631E+03 -7.80922E+03  5.14992E+02 -1.11454E+04  6.80587E+03 -1.02757E+04  1.11534E+04 -3.03050E+03
  1.12482E+04  5.54053E+03  4.68263E+03  9.60136E+03 -1.92501E+03  1.14635E+04 -7.78865E+03  6.63766E+03
 -1.01493E+04  5.63930E+02 -8.06007E+03 -6.61638E+03 -1.15310E+03 -9.26986E+03  4.79270E+03 -6.65386E+03
  7.36708E+03 -2.29862E+03  4.92807E+03  1.84005E+03  2.08883E+03  3.17831E+03  9.30686E+02  1.46579E+03
  2.30696E+03  8.76216E+02  2.61316E+03  1.51365E+03  3.45683E+03  4.23320E+03  3.10867E+03  5.74952E+03
 -2.52810E+03  8.85723E+03 -7.69691E+03  9.30384E+03 -1.10354E+04  2.34934E+03 -1.18588E+04 -4.21063E+03
 -5.68680E+03 -1.12854E+04  1.87261E+03 -1.21234E+04  6.40922E+03 -7.81767E+03  9.00716E+03 -1.86835E+03
  7.24685E+03  4.57091E+03  1.57214E+03  6.30595E+03 -2.73803E+03  4.06406E+03 -4.17701E+03 -5.83063E+02
 -2.36525E+03 -4.70580E+03  2.59845E+03 -5.08711E+03  4.23907E+03 -2.23355E+03  4.83342E+03  8.85328E+02
  2.78364E+03  1.93053E+03  9.51426E+02  1.62422E+03 -6.20320E+02  1.46433E+03  1.36379E+03 -3.06021E+02
  1.59107E+03 -5.98496E+02  4.78228E+03  1.75463E+03  2.48990E+03  6.04910E+03 -1.20852E+03  7.93669E+03
 -5.24241E+03  5.09643E+03 -7.07944E+03  1.67884E+03 -6.32015E+03 -2.48740E+03 -2.19283E+03 -4.61063E+03
  8.74410E+02 -4.39840E+03  2.86513E+03 -2.05044E+03  2.00959E+03  2.16831E+03 -1.44181E+03  3.56736E+03
 -4.80699E+03  2.26439E+03 -4.94278E+03 -2.93391E+03 -2.74942E+03 -6.08004E+03  8.37603E+02 -6.25963E+03
  3.09621E+03 -3.21698E+03  3.89625E+03 -1.44560E+02  4.04314E+03  1.45832E+03  5.19663E+02  3.34128E+03
 -2.20572E+03  9.59431E+02 -2.68669E+03 -2.08203E+03  1.02751E+03 -4.57820E+03  5.31899E+03 -3.67775E+03
  6.64232E+03  1.05883E+03  6.95620E+03  4.17121E+03  2.03776E+03  6.64009E+03 -2.34299E+03  6.78933E+03
 -5.77723E+03  2.59901E+03 -6.11694E+03 -1.12313E+03 -3.35984E+03 -4.31462E+03  9.75532E+02 -4.01489E+03
  4.64865E+03 -2.08041E+03  3.51047E+03  2.07780E+03  1.20224E+03  3.90478E+03 -7.04097E+02  3.62064E+03
 -1.72909E+03  2.22675E+03 -1.70748E+03  5.20921E+02 -1.00080E+03  9.26468E+02 -1.46743E+03  1.35322E+03
 -1.81919E+03  2.80083E+03 -4.82465E+03  2.48067E+03 -6.76926E+03  2.31640E+02 -7.88365E+03 -4.86977E+03
 -3.94366E+03 -9.34435E+03  1.68372E+03 -1.03803E+04  6.47605E+03 -8.29696E+03  1.01247E+04 -3.07632E+03
  9.29307E+03  2.01875E+03  5.75901E+03  6.43213E+03  1.91329E+02  7.07261E+03 -3.09590E+03  5.17860E+03
 -3.99683E+03  1.92670E+03 -2.41647E+03 -6.76411E+02 -7.79516E+02 -6.56883E+02 -5.59634E+02 -1.74234E+02
 -1.72673E+03  2.90278E+02 -1.94809E+03 -1.87178E+01 -3.76847E+02 -1.67907E+03  9.02122E+01 -2.82333E+03
  3.23363E+03 -2.24562E+03  3.89688E+03  3.57406E+02  4.58544E+03  4.04066E+03  1.00601E+03  6.82100E+03
 -3.93323E+03  8.14483E+03 -7.44672E+03  4.58776E+03 -8.38037E+03 -9.46126E+02 -6.20254E+03 -5.22228E+03
 -2.51555E+03 -6.92117E+03  1.68612E+03 -6.41539E+03  4.36202E+03 -3.87604E+03  4.69519E+03  1.92127E+02
  2.54809E+03  2.37608E+03 -4.71112E+02  1.97588E+03 -1.29563E+03  1.77484E+02  9.64231E+01 -1.46239E+03
  2.42740E+03 -7.60974E+02  3.04901E+03  1.16767E+03  1.58510E+03  2.63544E+03  5.13888E+02  3.72160E+03
 -2.72551E+03  2.80144E+03 -4.47015E+03  4.38751E+02 -4.01578E+03 -3.25163E+03 -8.31916E+02 -5.65012E+03
  3.31158E+03 -4.95759E+03  4.81780E+03 -1.65749E+03  5.00735E+03  9.43015E+02  3.26392E+03  4.36098E+03
  8.31279E+02  4.10408E+03 -1.42837E+03  3.70903E+03 -2.86362E+03  2.05269E+03 -2.38665E+03  2.51599E+02
 -1.43148E+03  9.45890E+01 -1.21233E+03  7.18500E+02 -2.34688E+03  7.83842E+02 -3.34555E+03 -3.73458E+02
 -3.45666E+03 -2.35761E+03 -1.02340E+03 -4.41592E+03  2.28601E+03 -5.39423E+03  4.10808E+03 -2.09230E+03
  4.31292E+03  6.60347E+02  2.37669E+03  2.97889E+03 -4.29804E+02  4.66470E+03 -3.34111E+03  3.10496E+03
