 $NMID ID='MM_0lb_SNR800_12hz_g45_77.RAW', FMTDAT='(8E13.5)'
 TRAMP=1., VOLUME=1. $END
  3.09978E+05 -1.98693E+02  3.37580E+05  2.50386E+05  8.45481E+04  3.38165E+05 -1.32388E+05  2.51191E+05
 -1.90378E+05  8.33255E+04 -1.11937E+05 -3.26510E+04  5.87403E+02 -5.03145E+04  5.33704E+04 -4.69005E+02
  3.56876E+04  5.30674E+04 -1.66594E+04  7.55358E+04 -6.08885E+04  6.37240E+04 -8.45973E+04  3.20681E+04
 -8.12339E+04 -1.14346E+04 -5.74384E+04 -5.14704E+04 -1.51637E+04 -6.97289E+04  2.74726E+04 -4.60024E+04
  4.01456E+04  3.70885E+03  1.63277E+04  4.81475E+04 -3.46207E+04  4.78655E+04 -6.71862E+04 -2.25102E+02
 -5.39444E+04 -5.68210E+04 -6.73344E+03 -7.76085E+04  3.41105E+04 -5.57246E+04  4.85424E+04 -1.77508E+04
  4.40382E+04  1.12623E+04  3.22249E+04  2.57352E+04  1.58224E+04  2.98267E+04 -5.80621E+03  2.74569E+04
 -2.23900E+04  1.24103E+04 -1.83084E+04 -5.22844E+03  5.99212E+03 -7.44306E+03  2.26748E+04  1.26826E+04
  7.17017E+03  3.58095E+04 -3.26574E+04  3.58981E+04 -6.40644E+04  1.93530E+03 -5.74773E+04 -4.31334E+04
 -1.29671E+04 -6.39030E+04  4.02096E+04 -4.55784E+04  5.93632E+04 -2.41862E+03  3.47534E+04  3.28006E+04
 -5.84594E+03  3.71561E+04 -3.10414E+04  1.70321E+04 -3.13646E+04 -4.35812E+03 -1.76179E+04 -1.13038E+04
 -8.25312E+03 -1.38109E+04 -5.39956E+02 -1.83928E+04  7.82433E+03 -2.28551E+04  1.54897E+04 -1.31821E+04
  1.11797E+04  5.73099E+03 -8.74595E+03  1.30019E+04 -2.18002E+04 -4.85157E+03 -8.29711E+03 -3.47588E+04
  2.32909E+04 -4.43226E+04  4.89012E+04 -2.05320E+04  4.56160E+04  1.98700E+04  1.59580E+04  4.49680E+04
 -1.62210E+04  3.39874E+04 -2.61506E+04  2.07167E+03 -1.04720E+04 -2.85088E+04  2.08379E+04 -3.47755E+04
  4.20549E+04 -9.50112E+03  3.68925E+04  2.44589E+04  1.92729E+04  4.80132E+04 -8.18761E+03  5.21493E+04
 -3.26798E+04  3.52175E+04 -4.34876E+04  9.95091E+03 -4.39208E+04 -1.67512E+04 -2.42141E+04 -3.91896E+04
  7.46521E+03 -3.91616E+04  3.24368E+04 -1.54892E+04  3.01833E+04  1.07365E+04  4.39146E+03  1.99640E+04
 -1.31532E+04  8.74838E+03 -1.01837E+04 -7.39074E+03  5.66409E+03 -1.08311E+04  1.84639E+04  5.82849E+03
  1.38081E+04  2.21738E+04 -5.74801E+03  2.54289E+04 -2.27406E+04  1.21899E+04 -2.92433E+04 -4.18869E+03
 -2.20527E+04 -1.78589E+04 -9.28798E+03 -2.17541E+04  4.01407E+03 -2.17809E+04  1.68796E+04 -1.98396E+04
  2.77326E+04 -1.34968E+04  3.40632E+04  3.56823E+03  2.47875E+04  2.12001E+04  4.09333E+03  3.76254E+04
 -1.82433E+04  3.13298E+04 -2.87202E+04  1.10993E+04 -2.14624E+04 -1.03143E+04 -4.55757E+03 -1.29891E+04
  1.70708E+03 -2.04544E+03 -5.41643E+03  6.90331E+03 -1.74690E+04  5.40700E+03 -1.72030E+04 -7.44086E+03
 -1.07411E+04 -2.01785E+04  5.53953E+03 -2.45450E+04  1.65090E+04 -1.73289E+04  1.95738E+04 -1.47908E+03
  1.26361E+04  1.37766E+04 -1.19346E+03  2.04076E+04 -1.38744E+04  1.13311E+04 -2.05833E+04 -4.38178E+03
 -1.48218E+04 -1.83972E+04 -2.03599E+03 -2.48962E+04  1.10163E+04 -2.00602E+04  2.01541E+04 -1.01817E+04
  1.93801E+04  1.10309E+02  1.36457E+04  4.84431E+03  7.18925E+03  1.10708E+03  1.04828E+04 -1.57621E+03
  1.87285E+04  2.88918E+03  2.12280E+04  1.63228E+04  1.39343E+04  3.22840E+04 -2.82819E+03  3.72900E+04
 -2.15464E+04  3.02563E+04 -3.48308E+04  1.54358E+04 -3.68142E+04 -2.43878E+03 -3.02249E+04 -2.13854E+04
 -1.26686E+04 -3.05766E+04  1.06808E+04 -2.74397E+04  2.33832E+04 -1.35024E+04  2.05549E+04  6.16034E+03
  7.39060E+03  1.56253E+04 -9.81379E+03  1.34354E+04 -1.75744E+04  2.52503E+03 -1.31861E+04 -1.08174E+04
 -5.65435E+01 -1.65574E+04  8.71823E+03 -1.21151E+04  1.07729E+04 -1.39334E+03  2.57238E+03  7.44085E+03
 -7.49400E+03  3.06170E+03 -6.73817E+03 -5.90662E+03 -9.97695E+02 -1.51044E+04  1.05855E+04 -1.53923E+04
  1.84744E+04 -8.42950E+03  2.04272E+04  3.07079E+03  1.78230E+04  1.46550E+04  7.70018E+03  2.29117E+04
 -3.98535E+03  2.46219E+04 -1.58881E+04  1.55473E+04 -1.79090E+04  3.51330E+03 -1.24277E+04 -4.02066E+03
 -5.71133E+03 -5.35977E+03 -1.03381E+03  1.00698E+03 -2.46370E+03  2.63732E+03 -5.83623E+03  4.88678E+03
 -1.15882E+04 -8.59032E+02 -1.24589E+04 -9.99125E+03 -5.03159E+03 -1.58172E+04  5.05295E+03 -1.22957E+04
  1.05544E+04 -5.59701E+03  7.46390E+03  3.49568E+03 -4.68526E+01  4.84642E+03 -6.17579E+03 -3.38912E+02
 -5.98530E+03 -7.79265E+03 -9.90361E+02 -1.19955E+04  7.04107E+03 -1.25534E+04  1.58187E+04 -6.56285E+03
  1.86009E+04  1.57036E+03  1.38627E+04  1.10475E+04  2.57804E+03  1.47078E+04 -8.08529E+03  1.22794E+04
 -1.02588E+04  3.95148E+03 -4.92511E+03 -2.54844E+03  2.13546E+03 -3.30117E+03  6.73479E+03 -1.18723E+03
  6.31833E+03  5.45357E+03  8.67999E+02  1.00975E+04 -6.98159E+03  9.53729E+03 -1.21939E+04  2.63481E+03
 -8.35353E+03 -6.21309E+03 -3.33347E+02 -1.03603E+04  6.40580E+03 -4.98665E+03  6.74554E+03  2.46803E+03
  1.50155E+03  7.49687E+03 -6.66414E+03  8.87815E+03 -9.83744E+03  3.94447E+03 -1.00214E+04 -3.53947E+03
 -6.00796E+03 -1.15678E+04  3.07654E+03 -1.35560E+04  1.16286E+04 -8.42156E+03  1.23597E+04  2.24039E+03
  7.61151E+03  9.73508E+03 -7.65642E+02  1.22699E+04 -8.79429E+03  6.83687E+03 -9.36955E+03 -1.00567E+03
 -8.60837E+03 -8.13010E+03 -1.37402E+03 -8.94676E+03  4.71890E+03 -7.40753E+03  5.37964E+03 -3.50521E+03
  4.20873E+03  1.30243E+03 -5.45964E+02  1.32984E+03 -2.56879E+02 -1.76749E+03  1.65030E+03 -5.12163E+03
  8.04822E+03 -2.92155E+03  1.13469E+04  1.50471E+03  1.15045E+04  7.74618E+03  7.91324E+03  1.49402E+04
 -3.40233E+03  1.70126E+04 -1.44283E+04  1.29262E+04 -1.89795E+04  2.30026E+03 -1.48027E+04 -6.08813E+03
 -7.72884E+03 -1.22489E+04 -2.88704E+02 -1.02568E+04  3.75477E+03 -5.86211E+03  3.70737E+03 -4.03173E+03
  2.86694E+03 -2.01817E+03  2.94319E+03 -3.25614E+03  4.64803E+03 -2.54987E+03  6.08639E+03 -6.46464E+02
  7.88420E+03  1.79891E+03  3.57840E+03  7.06541E+03 -1.71832E+03  7.53954E+03 -8.42449E+03  6.08920E+03
 -1.04231E+04 -1.36888E+03 -6.07382E+03 -7.06253E+03 -4.57227E+02 -1.10819E+04  6.09640E+03 -1.11826E+04
  1.18126E+04 -6.17458E+03  1.35291E+04  1.79829E+03  9.54940E+03  9.22885E+03  1.65908E+03  1.22862E+04
 -5.12619E+03  1.06482E+04 -7.26713E+03  3.49627E+03 -4.72078E+03 -1.42039E+03 -1.90032E+03 -1.48759E+03
 -6.74426E+02 -2.33988E+02 -1.78971E+03  2.41838E+03 -4.46689E+03  1.41384E+03 -7.34217E+03 -8.45586E+02
 -4.67345E+03 -7.61730E+03  6.16271E+02 -1.00684E+04  6.43820E+03 -9.23020E+03  9.64051E+03 -2.58712E+03
  9.71954E+03  4.71594E+03  4.29243E+03  8.83460E+03 -1.89746E+03  1.01269E+04 -6.87830E+03  6.45066E+03
 -9.41881E+03  7.20960E+02 -7.50055E+03 -5.79937E+03 -7.12429E+02 -8.05472E+03  4.17418E+03 -5.82232E+03
  6.11120E+03 -2.06476E+03  4.16776E+03  1.56051E+03  1.54676E+03  3.31645E+03  8.99325E+02  1.21958E+03
  2.36517E+03  8.37481E+02  2.04003E+03  1.76083E+03  3.01793E+03  3.73038E+03  2.95015E+03  4.86630E+03
 -2.19556E+03  7.48916E+03 -6.69310E+03  8.16539E+03 -9.80866E+03  2.06871E+03 -1.06756E+04 -3.72329E+03
 -4.77124E+03 -9.38218E+03  1.69379E+03 -1.09964E+04  5.78121E+03 -6.46470E+03  8.18141E+03 -1.69555E+03
  6.19754E+03  3.68696E+03  1.47058E+03  5.79549E+03 -2.60835E+03  3.60663E+03 -3.75332E+03 -4.72436E+02
 -1.87878E+03 -4.27941E+03  2.33336E+03 -4.40004E+03  3.64107E+03 -2.05956E+03  3.71087E+03  8.13801E+02
  2.24325E+03  1.78548E+03  1.13673E+03  1.15704E+03 -4.21081E+02  1.14430E+03  1.68855E+03 -1.86332E+02
  1.48503E+03 -6.77287E+02  4.02409E+03  1.36861E+03  1.87450E+03  5.54197E+03 -1.01458E+03  6.83507E+03
 -4.19485E+03  4.10558E+03 -5.82205E+03  1.16547E+03 -5.45276E+03 -2.22235E+03 -1.76394E+03 -3.49449E+03
  7.61532E+02 -3.77597E+03  2.56008E+03 -1.69855E+03  2.37346E+03  1.92828E+03 -9.10470E+02  3.18863E+03
 -4.55090E+03  1.94303E+03 -4.09337E+03 -2.54984E+03 -2.21190E+03 -5.27449E+03  7.91177E+02 -4.99971E+03
  2.22129E+03 -2.91519E+03  3.62348E+03 -4.34879E+02  3.24200E+03  9.67190E+02  3.26650E+02  2.47105E+03
 -1.36532E+03  5.64151E+02 -2.33519E+03 -1.53651E+03  9.98388E+02 -3.52811E+03  4.56724E+03 -2.82763E+03
  5.45037E+03  1.95859E+02  6.44154E+03  3.58412E+03  2.22451E+03  5.86070E+03 -1.75919E+03  5.83332E+03
 -5.40442E+03  2.16262E+03 -4.71074E+03 -8.24826E+02 -2.88972E+03 -4.19135E+03  1.07458E+03 -3.71855E+03
  3.82927E+03 -1.95460E+03  3.27495E+03  1.90833E+03  1.20223E+03  3.41912E+03 -2.03139E+02  2.83924E+03
 -1.46674E+03  1.96815E+03 -1.59747E+03  6.87638E+02 -6.57503E+02  4.57583E+02 -1.42385E+03  1.42024E+03
 -1.44393E+03  2.29691E+03 -4.46370E+03  2.01071E+03 -5.84903E+03  3.42469E+02 -6.61170E+03 -3.78525E+03
 -3.58151E+03 -8.00628E+03  1.66306E+03 -8.99562E+03  5.11956E+03 -6.53525E+03  8.66259E+03 -2.79407E+03
  7.82164E+03  1.36576E+03  4.94379E+03  5.20423E+03  2.17180E+02  6.20227E+03 -2.42889E+03  4.24040E+03
 -3.44853E+03  1.54197E+03 -2.16259E+03 -7.40591E+02 -1.00700E+03 -1.50570E+02 -4.99320E+02 -1.16732E+02
 -1.49095E+03 -8.49435E+01 -1.62166E+03 -4.43415E+02 -3.21166E+02 -1.80561E+03 -2.66802E+01 -2.56198E+03
  3.16164E+03 -2.00590E+03  3.28377E+03  1.68808E+02  3.99082E+03  3.16784E+03  7.61200E+02  5.59765E+03
 -2.86315E+03  6.78577E+03 -5.74036E+03  3.82938E+03 -7.41640E+03 -4.31937E+02 -5.51729E+03 -4.65998E+03
 -2.32875E+03 -5.82706E+03  1.71084E+03 -5.35026E+03  3.60735E+03 -3.02981E+03  3.78903E+03  1.63549E+02
  2.28832E+03  1.92899E+03  1.46994E+02  1.62512E+03 -1.28725E+03  1.24069E+02  2.90669E+02 -1.51043E+03
  2.03317E+03 -4.99064E+02  2.08058E+03  8.10093E+02  1.64585E+03  2.63338E+03  2.21455E+02  2.94387E+03
 -2.57294E+03  2.48344E+03 -3.59186E+03  4.77725E+02 -3.10285E+03 -2.76542E+03 -3.03043E+02 -4.81339E+03
  2.68568E+03 -3.82910E+03  4.02783E+03 -9.35295E+02  4.37562E+03  1.49642E+02  2.58446E+03  3.70991E+03
  9.11714E+02  3.40098E+03 -1.22435E+03  2.68641E+03 -2.65452E+03  1.95172E+03 -2.06679E+03  4.71639E+02
 -9.78245E+02  5.85801E+00 -1.46574E+03  4.47253E+02 -1.98827E+03  7.36975E+02 -2.73824E+03 -5.86677E+02
 -3.02380E+03 -1.64469E+03 -8.72211E+02 -3.80996E+03  1.67685E+03 -4.32203E+03  3.56204E+03 -1.80956E+03
  3.83029E+03  7.16034E+02  1.66355E+03  2.45781E+03 -7.49393E+01  3.88728E+03 -2.56310E+03  2.43146E+03
