 $NMID ID='MM_0lb_SNR800_14hz_g50_65.RAW', FMTDAT='(8E13.5)'
 TRAMP=1., VOLUME=1. $END
  3.09629E+05  1.87183E+02  3.37609E+05  2.50912E+05  8.46398E+04  3.37820E+05 -1.32559E+05  2.50861E+05
 -1.90388E+05  8.33520E+04 -1.11809E+05 -3.24557E+04  9.16904E+02 -5.04301E+04  5.38831E+04 -4.58244E+02
  3.52297E+04  5.25846E+04 -1.65143E+04  7.57569E+04 -6.07681E+04  6.37605E+04 -8.43437E+04  3.22651E+04
 -8.10180E+04 -1.14692E+04 -5.71051E+04 -5.13494E+04 -1.52800E+04 -6.94784E+04  2.74722E+04 -4.58356E+04
  3.99889E+04  3.73390E+03  1.62094E+04  4.79762E+04 -3.43541E+04  4.71994E+04 -6.66607E+04 -3.01880E+02
 -5.36641E+04 -5.70026E+04 -6.74587E+03 -7.71186E+04  3.41406E+04 -5.53523E+04  4.79352E+04 -1.75373E+04
  4.33746E+04  1.14032E+04  3.18127E+04  2.53450E+04  1.57076E+04  2.92893E+04 -5.47002E+03  2.72447E+04
 -2.20808E+04  1.24196E+04 -1.84823E+04 -5.11757E+03  5.54184E+03 -7.46596E+03  2.21285E+04  1.24182E+04
  7.23227E+03  3.54373E+04 -3.20822E+04  3.54380E+04 -6.30543E+04  2.30908E+03 -5.73538E+04 -4.29141E+04
 -1.25881E+04 -6.32317E+04  3.94871E+04 -4.53348E+04  5.80992E+04 -1.98629E+03  3.46033E+04  3.23502E+04
 -5.68916E+03  3.61307E+04 -3.03931E+04  1.57746E+04 -3.04297E+04 -4.42566E+03 -1.68142E+04 -1.11907E+04
 -8.05952E+03 -1.33545E+04 -4.65434E+02 -1.81180E+04  7.38598E+03 -2.31201E+04  1.55536E+04 -1.32818E+04
  1.13538E+04  5.23180E+03 -8.23863E+03  1.29409E+04 -2.11791E+04 -4.45005E+03 -8.67654E+03 -3.38272E+04
  2.26189E+04 -4.33499E+04  4.84272E+04 -1.95018E+04  4.50926E+04  1.95866E+04  1.59611E+04  4.42208E+04
 -1.58450E+04  3.34967E+04 -2.53346E+04  1.93344E+03 -1.01544E+04 -2.78472E+04  2.07733E+04 -3.40469E+04
  4.10630E+04 -9.02907E+03  3.56753E+04  2.40096E+04  1.81331E+04  4.68608E+04 -7.84969E+03  5.02364E+04
 -3.17905E+04  3.40702E+04 -4.21618E+04  9.58192E+03 -4.28356E+04 -1.66181E+04 -2.36341E+04 -3.80288E+04
  7.42968E+03 -3.78222E+04  3.14804E+04 -1.47811E+04  2.92007E+04  1.07660E+04  4.11196E+03  1.91074E+04
 -1.31003E+04  8.43917E+03 -1.00025E+04 -7.57565E+03  5.66201E+03 -1.06251E+04  1.77968E+04  5.96652E+03
  1.34586E+04  2.20299E+04 -6.02679E+03  2.52658E+04 -2.25048E+04  1.16203E+04 -2.81928E+04 -4.36370E+03
 -2.06483E+04 -1.74061E+04 -8.62577E+03 -2.05408E+04  3.85176E+03 -1.99274E+04  1.60697E+04 -1.84431E+04
  2.62940E+04 -1.28962E+04  3.28692E+04  3.05320E+03  2.39808E+04  2.00789E+04  4.01444E+03  3.63872E+04
 -1.78026E+04  3.02986E+04 -2.78476E+04  1.05256E+04 -2.08090E+04 -1.02041E+04 -4.23604E+03 -1.32503E+04
  1.51522E+03 -2.97456E+03 -4.94565E+03  6.63757E+03 -1.61154E+04  5.08844E+03 -1.64825E+04 -6.94873E+03
 -1.01345E+04 -1.89607E+04  5.26110E+03 -2.30265E+04  1.52832E+04 -1.66129E+04  1.83769E+04 -1.65713E+03
  1.16371E+04  1.31173E+04 -1.33849E+03  1.89441E+04 -1.28322E+04  1.08894E+04 -1.87540E+04 -4.40988E+03
 -1.40592E+04 -1.75344E+04 -2.17389E+03 -2.31676E+04  1.05329E+04 -1.91827E+04  1.92775E+04 -9.26309E+03
  1.77723E+04  1.94831E+02  1.26921E+04  4.65745E+03  6.68815E+03  9.44623E+02  1.01050E+04 -1.86785E+03
  1.75298E+04  2.84892E+03  1.96871E+04  1.51843E+04  1.28689E+04  3.02628E+04 -3.07866E+03  3.47418E+04
 -1.97736E+04  2.79223E+04 -3.20810E+04  1.37576E+04 -3.36849E+04 -2.72842E+03 -2.81938E+04 -1.92990E+04
 -1.22788E+04 -2.77285E+04  9.63039E+03 -2.50222E+04  2.13929E+04 -1.25949E+04  1.93055E+04  5.34303E+03
  7.24284E+03  1.44642E+04 -9.06628E+03  1.27087E+04 -1.62641E+04  2.74419E+03 -1.26316E+04 -1.02124E+04
 -2.91315E+02 -1.56334E+04  7.79257E+03 -1.16432E+04  1.02839E+04 -1.48989E+03  2.28358E+03  6.83675E+03
 -6.46628E+03  2.30853E+03 -6.05609E+03 -5.53021E+03 -6.51644E+02 -1.37275E+04  9.69727E+03 -1.41568E+04
  1.68544E+04 -7.32067E+03  1.80982E+04  3.00615E+03  1.56197E+04  1.35978E+04  7.52666E+03  2.05172E+04
 -3.38468E+03  2.24369E+04 -1.41779E+04  1.42428E+04 -1.57373E+04  3.74415E+03 -1.14037E+04 -3.80359E+03
 -5.15810E+03 -4.87291E+03 -6.93709E+02  1.22583E+03 -2.13431E+03  2.36194E+03 -5.29923E+03  4.05665E+03
 -1.07200E+04 -6.51983E+02 -1.12906E+04 -9.03670E+03 -4.58810E+03 -1.50456E+04  4.61413E+03 -1.15052E+04
  9.69202E+03 -4.74615E+03  6.88607E+03  3.23911E+03  5.65507E+02  4.53875E+03 -5.26311E+03 -1.42799E+02
 -5.04460E+03 -7.35073E+03 -1.14381E+03 -1.05805E+04  6.00235E+03 -1.15012E+04  1.39723E+04 -5.97581E+03
  1.66261E+04  1.59770E+03  1.18779E+04  9.73033E+03  2.25175E+03  1.30639E+04 -7.23845E+03  1.13638E+04
 -9.43496E+03  3.35911E+03 -4.97873E+03 -2.41998E+03  1.76323E+03 -3.17638E+03  6.35721E+03 -8.43333E+02
  5.57521E+03  4.78602E+03  9.65617E+02  8.78700E+03 -6.22236E+03  8.98248E+03 -1.06460E+04  2.62621E+03
 -7.12134E+03 -5.17605E+03  2.45447E+02 -9.46739E+03  5.55038E+03 -4.64085E+03  5.70585E+03  1.67392E+03
  1.25109E+03  6.25235E+03 -5.60626E+03  7.61116E+03 -8.12380E+03  3.84003E+03 -8.19962E+03 -2.54378E+03
 -4.75692E+03 -1.00240E+04  2.43096E+03 -1.15626E+04  9.61930E+03 -7.08048E+03  1.06984E+04  1.88761E+03
  6.47669E+03  8.69396E+03 -6.06312E+02  1.05590E+04 -7.47764E+03  5.89669E+03 -8.29796E+03 -8.31955E+02
 -7.92833E+03 -7.35592E+03 -1.62078E+03 -7.66187E+03  4.35829E+03 -6.78016E+03  4.79962E+03 -3.19073E+03
  3.91142E+03  8.81339E+02 -4.74299E+02  1.15071E+03  1.30205E+02 -1.31307E+03  6.29609E+02 -4.01927E+03
  7.00082E+03 -2.55210E+03  9.39703E+03  1.39345E+03  9.42026E+03  6.26705E+03  6.95019E+03  1.25494E+04
 -2.58160E+03  1.44904E+04 -1.23468E+04  1.06456E+04 -1.59590E+04  2.06709E+03 -1.23970E+04 -5.09077E+03
 -6.42524E+03 -1.09802E+04 -3.74568E+02 -8.87558E+03  3.34829E+03 -4.35118E+03  3.01321E+03 -3.40942E+03
  2.10508E+03 -2.21684E+03  2.75442E+03 -2.77219E+03  4.71732E+03 -2.18461E+03  5.25531E+03 -5.79522E+01
  6.86486E+03  1.71982E+03  2.62917E+03  5.69371E+03 -2.09133E+03  6.04127E+03 -7.17867E+03  4.90932E+03
 -8.72424E+03 -1.20847E+03 -4.68522E+03 -5.92594E+03 -2.74277E+02 -9.11151E+03  5.11755E+03 -9.13438E+03
  9.21310E+03 -5.19282E+03  1.14112E+04  1.17300E+03  8.17045E+03  7.84391E+03  1.44834E+03  1.05194E+04
 -4.07266E+03  8.67032E+03 -5.91806E+03  2.86121E+03 -3.76269E+03 -1.07371E+03 -1.30653E+03 -9.52745E+02
 -1.03951E+03  2.67973E+02 -1.35197E+03  2.73032E+03 -3.97498E+03  1.27251E+03 -6.27993E+03 -6.31694E+02
 -3.67939E+03 -6.18559E+03  3.40700E+02 -8.13658E+03  4.97683E+03 -7.62209E+03  7.45981E+03 -2.27456E+03
  7.77860E+03  4.05098E+03  3.54424E+03  6.67845E+03 -1.62041E+03  7.87296E+03 -5.35875E+03  5.19987E+03
 -7.45533E+03  5.90570E+02 -5.70754E+03 -4.54594E+03 -4.06152E+02 -6.53714E+03  2.96658E+03 -4.57225E+03
  5.11366E+03 -1.95082E+03  3.44499E+03  1.18243E+03  9.26297E+02  2.70425E+03  1.45203E+03  1.18695E+03
  1.79687E+03  9.45210E+02  2.24162E+03  1.40190E+03  2.06509E+03  3.08466E+03  2.06366E+03  4.01411E+03
 -2.09470E+03  5.87778E+03 -5.05811E+03  6.63390E+03 -7.15155E+03  1.81819E+03 -7.81843E+03 -2.52970E+03
 -3.61469E+03 -7.35971E+03  1.32160E+03 -8.53504E+03  4.38074E+03 -5.65758E+03  6.09297E+03 -1.70840E+03
  4.74488E+03  2.99771E+03  8.55795E+02  4.41560E+03 -1.67154E+03  2.72237E+03 -2.66926E+03 -4.50546E+02
 -1.40897E+03 -3.46072E+03  2.05900E+03 -3.00004E+03  3.16441E+03 -1.81402E+03  2.80371E+03  1.07695E+03
  1.59213E+03  9.99636E+02  8.85049E+02  7.72937E+02 -7.72955E+02  1.17756E+03  1.60710E+03 -3.66931E+02
  1.16885E+03 -3.54292E+02  3.35145E+03  1.41373E+03  1.44242E+03  4.18653E+03 -4.75029E+02  5.38131E+03
 -3.38749E+03  3.22663E+03 -4.59802E+03  9.52310E+02 -4.55238E+03 -1.67904E+03 -1.44048E+03 -2.62112E+03
  5.60108E+02 -2.71242E+03  1.87861E+03 -1.21309E+03  1.30987E+03  1.84957E+03 -1.08821E+03  2.40312E+03
 -3.01525E+03  1.50722E+03 -2.89749E+03 -2.18480E+03 -1.79216E+03 -3.81983E+03  5.37048E+02 -3.67984E+03
  1.93874E+03 -2.08941E+03  2.56316E+03 -4.64398E+02  2.97638E+03  5.19794E+02  5.12332E+02  2.22268E+03
 -1.20055E+03  5.44876E+02 -1.63344E+03 -7.19870E+02  8.65231E+02 -2.58470E+03  3.17436E+03 -2.26225E+03
  4.03767E+03  4.76400E+02  4.80856E+03  2.27280E+03  1.66222E+03  4.28420E+03 -1.49804E+03  4.16713E+03
 -3.67783E+03  1.41852E+03 -3.68243E+03 -7.04865E+02 -1.98774E+03 -2.60198E+03  7.25234E+02 -2.18480E+03
  2.74860E+03 -1.60093E+03  2.46700E+03  1.11138E+03  5.05773E+02  2.62740E+03 -2.76100E+02  2.34842E+03
 -7.83586E+02  1.65171E+03 -1.37056E+03  5.24271E+02 -4.26783E+02  4.94339E+02 -9.93254E+02  1.24402E+03
 -1.29203E+03  1.96432E+03 -3.12243E+03  1.48794E+03 -3.73010E+03  8.77058E+01 -4.90139E+03 -2.86244E+03
 -2.30078E+03 -5.76045E+03  1.14020E+03 -6.33985E+03  3.19120E+03 -5.19170E+03  6.18925E+03 -2.12198E+03
  5.56507E+03  8.12015E+02  3.36162E+03  3.48147E+03  3.03893E+01  3.90254E+03 -1.74346E+03  3.07301E+03
 -2.48456E+03  1.21971E+03 -1.46145E+03 -7.58921E+02 -8.00452E+02  2.30327E+02 -5.39125E+02 -2.56921E+02
 -1.54978E+03 -2.12152E+02 -1.09939E+03 -6.96469E+01 -1.79877E+02 -1.02103E+03 -1.99256E+02 -1.73824E+03
  2.19000E+03 -1.51507E+03  2.03835E+03  5.57135E+01  2.63240E+03  2.07872E+03  2.29055E+02  4.22706E+03
 -2.20103E+03  4.67356E+03 -4.32703E+03  2.69788E+03 -4.87454E+03 -1.61394E+02 -3.62676E+03 -2.92611E+03
 -1.70336E+03 -4.01881E+03  6.73365E+02 -3.83206E+03  2.17853E+03 -1.92303E+03  2.49963E+03  4.14891E+02
  1.52873E+03  1.17268E+03 -1.45085E+02  1.11174E+03 -5.57962E+02  2.45528E+02 -4.53033E+02 -7.86842E+02
  1.18333E+03 -2.17697E+02  1.21731E+03  6.34249E+02  7.57528E+02  1.56630E+03  7.71374E+01  1.32257E+03
 -1.50963E+03  1.67011E+03 -2.27344E+03  3.27015E+02 -2.18064E+03 -1.83220E+03 -2.42937E+02 -3.15508E+03
  1.63370E+03 -2.45820E+03  2.48113E+03 -3.77505E+02  2.67201E+03  2.72503E+02  1.56810E+03  2.31530E+03
  8.64486E+02  2.16979E+03 -1.01294E+03  2.08533E+03 -1.48021E+03  1.34734E+03 -1.64654E+03  1.18854E+01
 -9.48810E+02 -2.83672E+02 -7.58838E+02  3.67240E+02 -1.14282E+03  7.73281E+01 -1.76873E+03 -1.51296E+02
 -1.91595E+03 -6.38329E+02 -7.26704E+02 -2.67907E+03  1.35513E+03 -2.83814E+03  2.18130E+03 -1.04374E+03
  2.29131E+03  2.45855E+02  6.39709E+02  1.30641E+03 -3.27128E+02  2.38618E+03 -1.48913E+03  1.92615E+03
