 $NMID ID='MM_0lb_SNR800_18hz_g45_35.RAW', FMTDAT='(8E13.5)'
 TRAMP=1., VOLUME=1. $END
  3.09904E+05  4.53326E+02  3.37414E+05  2.50380E+05  8.40978E+04  3.37170E+05 -1.32332E+05  2.50182E+05
 -1.89862E+05  8.25823E+04 -1.11106E+05 -3.30518E+04  1.82328E+03 -5.03326E+04  5.39821E+04  1.53863E+02
  3.53394E+04  5.28021E+04 -1.68169E+04  7.47468E+04 -6.02161E+04  6.28233E+04 -8.28744E+04  3.15068E+04
 -7.97065E+04 -1.13390E+04 -5.63490E+04 -5.01638E+04 -1.54561E+04 -6.83642E+04  2.67965E+04 -4.47822E+04
  3.89496E+04  3.89273E+03  1.57657E+04  4.70725E+04 -3.37347E+04  4.62604E+04 -6.53064E+04 -5.64751E+02
 -5.19588E+04 -5.60498E+04 -6.44835E+03 -7.54551E+04  3.31157E+04 -5.31723E+04  4.63564E+04 -1.66025E+04
  4.15177E+04  1.12356E+04  3.06893E+04  2.43351E+04  1.56937E+04  2.82893E+04 -4.51409E+03  2.69139E+04
 -2.17093E+04  1.27106E+04 -1.92131E+04 -4.64767E+03  4.33533E+03 -7.46854E+03  2.12129E+04  1.10775E+04
  7.20042E+03  3.32894E+04 -3.04540E+04  3.43229E+04 -6.11628E+04  2.21294E+03 -5.53626E+04 -4.12719E+04
 -1.23478E+04 -6.07712E+04  3.82996E+04 -4.34662E+04  5.54759E+04 -2.19513E+03  3.17996E+04  3.07766E+04
 -6.46804E+03  3.31510E+04 -2.86942E+04  1.34965E+04 -2.78056E+04 -5.20839E+03 -1.46040E+04 -1.00181E+04
 -7.50439E+03 -1.15130E+04 -1.09577E+03 -1.67695E+04  6.65994E+03 -2.25542E+04  1.49908E+04 -1.36276E+04
  1.21093E+04  4.17309E+03 -6.33113E+03  1.29823E+04 -1.93537E+04 -2.70593E+03 -8.23493E+03 -3.04503E+04
  2.07965E+04 -4.08762E+04  4.47068E+04 -1.88489E+04  4.21903E+04  1.83047E+04  1.41948E+04  4.16536E+04
 -1.51899E+04  3.11799E+04 -2.35180E+04  1.19683E+03 -8.33452E+03 -2.61322E+04  2.02367E+04 -3.12038E+04
  3.81486E+04 -7.38235E+03  3.18125E+04  2.25970E+04  1.51996E+04  4.28154E+04 -7.54562E+03  4.55287E+04
 -2.87270E+04  3.00414E+04 -3.75847E+04  8.72888E+03 -3.84062E+04 -1.52149E+04 -2.14189E+04 -3.45372E+04
  7.02119E+03 -3.42860E+04  2.91989E+04 -1.28154E+04  2.71708E+04  1.08281E+04  3.03389E+03  1.76195E+04
 -1.30525E+04  7.60827E+03 -9.42441E+03 -7.45517E+03  6.03621E+03 -1.02920E+04  1.71376E+04  6.49189E+03
  1.24893E+04  2.15711E+04 -6.53792E+03  2.35514E+04 -2.13929E+04  9.15513E+03 -2.53026E+04 -6.07711E+03
 -1.69125E+04 -1.63780E+04 -5.78139E+03 -1.70870E+04  3.88077E+03 -1.48898E+04  1.26902E+04 -1.47169E+04
  2.16200E+04 -1.20569E+04  2.81462E+04  8.74266E+02  2.14037E+04  1.65719E+04  4.00332E+03  3.26365E+04
 -1.61097E+04  2.76883E+04 -2.57230E+04  9.24164E+03 -1.97985E+04 -1.04911E+04 -3.99512E+03 -1.38586E+04
  2.55632E+03 -4.02128E+03 -2.75525E+03  5.38227E+03 -1.28889E+04  5.36948E+03 -1.34894E+04 -4.97848E+03
 -8.53146E+03 -1.56880E+04  4.59090E+03 -1.93787E+04  1.27616E+04 -1.41212E+04  1.48258E+04 -1.22886E+03
  9.00560E+03  1.10341E+04 -9.00104E+02  1.60734E+04 -1.06352E+04  8.92880E+03 -1.56123E+04 -3.34293E+03
 -1.16378E+04 -1.42846E+04 -1.46882E+03 -1.92849E+04  8.64213E+03 -1.56613E+04  1.63311E+04 -7.50787E+03
  1.46984E+04  9.05332E+02  1.06488E+04  3.85636E+03  5.19748E+03  3.60089E+02  7.75141E+03 -1.58213E+03
  1.40392E+04  2.61141E+03  1.50916E+04  1.28160E+04  9.39044E+03  2.49578E+04 -3.25974E+03  2.69312E+04
 -1.58408E+04  2.06486E+04 -2.47793E+04  9.71873E+03 -2.52706E+04 -1.98217E+03 -2.17607E+04 -1.43498E+04
 -1.01971E+04 -2.07398E+04  6.95552E+03 -1.91458E+04  1.70681E+04 -1.10360E+04  1.59012E+04  3.75248E+03
  6.32046E+03  1.13622E+04 -7.32875E+03  1.04973E+04 -1.35164E+04  2.50713E+03 -1.05869E+04 -8.17211E+03
 -4.17984E+01 -1.25210E+04  6.15460E+03 -9.75227E+03  7.89324E+03 -1.32532E+03  1.40585E+03  5.15308E+03
 -5.63218E+03  1.39336E+03 -3.56770E+03 -4.77051E+03  5.36179E+02 -1.02608E+04  7.85099E+03 -1.01950E+04
  1.25766E+04 -4.75374E+03  1.21029E+04  2.71185E+03  1.06714E+04  9.50936E+03  5.19939E+03  1.43630E+04
 -1.80524E+03  1.62749E+04 -9.83751E+03  1.01612E+04 -1.14310E+04  3.02241E+03 -8.63211E+03 -1.84551E+03
 -4.62828E+03 -3.23544E+03 -8.97175E+02  1.60387E+03 -2.12059E+03  1.68505E+03 -3.77884E+03  3.75546E+03
 -8.44632E+03 -3.89369E+02 -9.00407E+03 -7.04068E+03 -3.54064E+03 -1.17828E+04  3.61623E+03 -8.75332E+03
  7.33657E+03 -3.77402E+03  5.31566E+03  2.14671E+03  8.33969E+02  2.91664E+03 -3.57067E+03  1.36350E+02
 -3.23370E+03 -5.72420E+03 -9.83275E+02 -7.32138E+03  4.34859E+03 -8.04725E+03  1.02050E+04 -4.14906E+03
  1.20795E+04  8.23019E+02  8.99821E+03  6.35052E+03  1.86107E+03  8.76528E+03 -5.56812E+03  8.33951E+03
 -7.28464E+03  2.76364E+03 -3.56930E+03 -1.09677E+03  1.27787E+03 -1.85751E+03  4.85119E+03 -7.78611E+02
  3.95123E+03  3.68966E+03  1.24124E+03  6.78052E+03 -4.83978E+03  6.61631E+03 -8.10356E+03  1.82699E+03
 -5.00901E+03 -3.61057E+03  5.02293E+02 -6.94708E+03  3.86394E+03 -3.40248E+03  3.56924E+03  9.89459E+02
  5.56616E+02  3.41460E+03 -4.16882E+03  4.77080E+03 -5.24677E+03  2.59289E+03 -4.93739E+03 -1.38731E+03
 -2.80380E+03 -6.37909E+03  1.53967E+03 -7.53546E+03  6.11061E+03 -5.13287E+03  6.81870E+03  8.29391E+02
  4.86686E+03  5.35393E+03  1.32569E+02  7.35063E+03 -5.27656E+03  4.32538E+03 -5.36065E+03 -7.20150E+02
 -5.90440E+03 -5.37826E+03 -1.35995E+03 -5.07850E+03  2.25562E+03 -4.70075E+03  2.92676E+03 -3.08793E+03
  2.93911E+03  4.77834E+02 -2.81041E+01  1.12595E+03  7.86850E+02 -2.15619E+02  3.20432E+02 -1.91937E+03
  3.93909E+03 -8.23609E+02  5.76680E+03  4.35779E+02  5.76017E+03  3.07312E+03  5.42153E+03  7.35073E+03
 -1.25042E+03  9.02946E+03 -8.18453E+03  6.84936E+03 -1.01410E+04  1.17547E+03 -8.12892E+03 -2.61769E+03
 -4.31929E+03 -6.82511E+03 -4.68233E+02 -5.12294E+03  1.92014E+03 -2.34265E+03  1.77334E+03 -2.07669E+03
  1.59945E+03 -1.45018E+03  2.61478E+03 -2.38177E+03  3.53978E+03 -1.40430E+03  3.94272E+03  4.57408E+02
  4.32043E+03  9.87813E+02  1.42215E+03  3.42402E+03 -1.45564E+03  2.88863E+03 -4.60285E+03  2.72589E+03
 -5.06512E+03 -8.29511E+02 -1.92455E+03 -3.44093E+03  4.75259E+02 -5.65426E+03  3.30144E+03 -5.58544E+03
  5.29195E+03 -3.36097E+03  6.96818E+03  2.40674E+02  4.97398E+03  4.67672E+03  1.13920E+03  6.24064E+03
 -2.32237E+03  5.86874E+03 -3.51213E+03  1.75991E+03 -2.04789E+03 -1.07877E+03 -1.93616E+02 -3.09840E+02
 -6.88817E+02  5.36812E+02 -1.09250E+03  2.02682E+03 -2.53814E+03  1.05193E+03 -4.27045E+03 -3.75742E+02
 -1.55134E+03 -4.04223E+03  9.13022E+02 -5.11721E+03  2.82581E+03 -4.57597E+03  3.67755E+03 -1.16599E+03
  4.30378E+03  2.56479E+03  1.88933E+03  3.34307E+03 -9.27142E+02  4.58989E+03 -3.03569E+03  2.77654E+03
 -3.85763E+03  7.01440E+02 -3.58809E+03 -2.49089E+03 -1.32035E+02 -3.54535E+03  1.64258E+03 -2.58731E+03
  2.83370E+03 -1.34992E+03  1.72655E+03  3.63017E+02  2.20390E+02  1.69446E+03  1.04009E+03  7.55005E+02
  2.00240E+03  4.87809E+02  1.22657E+03  1.15893E+03  1.25216E+03  2.21068E+03  1.40892E+03  1.89797E+03
 -1.28218E+03  3.25878E+03 -2.68329E+03  4.15624E+03 -3.40415E+03  1.24623E+03 -4.43565E+03 -3.97792E+02
 -1.71073E+03 -3.97195E+03  5.79839E+02 -5.08761E+03  1.79783E+03 -2.75245E+03  3.45327E+03 -8.66994E+02
  2.49485E+03  1.65707E+03  5.99177E+02  2.67700E+03 -8.55480E+02  1.37911E+03 -9.33476E+02 -1.56806E+02
 -9.54219E+02 -1.39835E+03  1.37218E+03 -1.53747E+03  1.39154E+03 -1.12098E+03  1.54661E+03  2.37159E+02
  8.27017E+02  2.61906E+02  7.37610E+02 -3.66915E+01 -2.81403E+02  7.61964E+02  1.61216E+03 -1.87699E+02
  7.99198E+01 -1.06245E+02  1.84932E+03  8.71832E+02  3.11862E+02  2.38769E+03 -3.64373E+02  3.08955E+03
 -1.84447E+03  1.11870E+03 -2.23723E+03  3.23838E+02 -2.33319E+03 -8.71729E+02 -3.36438E+01 -1.07255E+03
  4.01659E+02 -1.27446E+03  8.64139E+02 -4.90838E+02  7.39882E+02  1.44559E+03 -6.56629E+02  1.04266E+03
 -1.68786E+03  7.53810E+02 -1.40852E+03 -1.34691E+03 -8.94834E+02 -2.12366E+03  3.61836E+02 -1.71369E+03
  4.61409E+02 -7.25137E+02  7.65713E+02  2.08417E+02  1.56146E+03  4.44228E+01  2.78689E+02  1.14580E+03
 -4.25356E+02  8.14637E+01 -9.83432E+02 -4.90706E+02  7.09500E+02 -7.63878E+02  1.61452E+03 -1.10360E+03
  1.44558E+03  2.18545E+02  2.82404E+03  5.44554E+02  1.17807E+03  1.74646E+03 -4.11353E+02  2.06007E+03
 -1.63937E+03  2.70100E+02 -1.68675E+03 -1.95823E+02 -7.57826E+02 -1.65337E+03  1.86125E+02 -6.67490E+02
  1.73467E+03 -7.99102E+02  6.48659E+02  6.44516E+02  2.77348E+02  1.30492E+03  3.00050E+01  1.10451E+03
 -3.35809E+02  1.28509E+03 -4.63636E+02  1.49966E+02  2.28588E+02  3.91810E+02 -6.46336E+02  4.94226E+02
 -7.22696E+02  9.37996E+02 -1.90583E+03  5.19090E+02 -2.08829E+03  1.22316E+02 -2.73471E+03 -1.18972E+03
 -1.16621E+03 -2.50873E+03  5.81102E+02 -3.11307E+03  1.19418E+03 -2.73780E+03  2.93978E+03 -1.32066E+03
  2.86752E+03  6.22868E+01  1.43994E+03  1.50926E+03 -4.38986E+02  1.25825E+03 -6.57806E+02  1.34870E+03
 -1.02669E+03  9.44216E+02 -6.30308E+02 -4.70631E+02 -3.87136E+02  2.36372E+02 -3.95689E+02  1.53298E-01
 -1.16751E+03 -3.74373E+01 -9.63178E+02 -5.27715E+01  2.91767E+02 -4.50104E+02 -6.99103E+02 -1.01075E+03
  1.20265E+03 -5.24931E+02  4.74119E+02  9.57321E+01  1.27357E+03  8.61242E+02 -3.17665E+02  1.53504E+03
 -1.04672E+03  2.38776E+03 -1.85491E+03  1.43990E+03 -2.15514E+03 -6.54386E+01 -1.60191E+03 -1.29090E+03
 -8.72568E+02 -1.60366E+03  2.13704E+02 -1.22310E+03  7.53949E+02 -7.11376E+02  9.95777E+02  5.79575E+01
  5.40345E+02  1.84048E+02  1.67798E+02  4.41732E+02 -1.85857E+02 -1.85301E+01  2.70510E+01 -6.61004E+01
  8.07724E+02  2.12663E+02  1.99103E+02  3.76407E+02  3.43861E+02  3.46549E+02  4.66013E+02  2.32013E+02
 -6.35091E+02  5.07413E+02 -6.33534E+02 -4.15991E+01 -8.90633E+02 -6.48879E+02 -2.70196E+02 -1.15455E+03
  5.22628E+02 -7.61760E+02  6.63608E+02 -1.78065E+02  9.34888E+02 -4.45474E+02  7.06536E+02  9.18394E+02
  3.12262E+02  6.43882E+02  2.39149E+01  7.53078E+02 -7.47784E+02  6.44533E+02 -4.80908E+02 -1.88133E+01
 -2.42711E+02 -1.15453E+02 -3.66808E+02  1.85190E+02 -8.09832E+02  1.16532E+02 -7.77345E+02 -3.88511E+02
 -1.22483E+03  2.07396E+01 -3.69540E+02 -1.03962E+03  6.95386E+02 -1.74326E+03  8.59877E+02 -6.15864E+02
  7.60674E+02  9.35912E+01 -4.16476E+02  1.83500E+02  2.50010E+01  1.11684E+03 -6.20105E+02  6.83159E+02
