 $NMID ID='MM_0lb_SNR800_16hz_g45_12.RAW', FMTDAT='(8E13.5)'
 TRAMP=1., VOLUME=1. $END
  3.10025E+05  1.91972E+02  3.37352E+05  2.50480E+05  8.45082E+04  3.37725E+05 -1.32576E+05  2.50554E+05
 -1.89957E+05  8.28900E+04 -1.11318E+05 -3.28366E+04  1.21033E+03 -5.04033E+04  5.38353E+04  3.05233E+02
  3.49862E+04  5.26380E+04 -1.68467E+04  7.50168E+04 -6.04422E+04  6.32033E+04 -8.36683E+04  3.17283E+04
 -8.03446E+04 -1.11252E+04 -5.65721E+04 -5.03232E+04 -1.48459E+04 -6.92735E+04  2.68445E+04 -4.51269E+04
  3.95442E+04  4.28155E+03  1.56487E+04  4.74674E+04 -3.40746E+04  4.65659E+04 -6.59117E+04 -2.28809E+02
 -5.24443E+04 -5.64262E+04 -6.43117E+03 -7.57247E+04  3.35634E+04 -5.40600E+04  4.68818E+04 -1.65601E+04
  4.22789E+04  1.14684E+04  3.13075E+04  2.46540E+04  1.56287E+04  2.87270E+04 -4.85824E+03  2.68432E+04
 -2.18940E+04  1.26539E+04 -1.90919E+04 -4.79315E+03  4.76631E+03 -7.54919E+03  2.17156E+04  1.16409E+04
  7.22872E+03  3.41361E+04 -3.11055E+04  3.46087E+04 -6.18507E+04  2.30824E+03 -5.59227E+04 -4.16573E+04
 -1.23284E+04 -6.18113E+04  3.89945E+04 -4.41826E+04  5.66677E+04 -2.05898E+03  3.27286E+04  3.15127E+04
 -6.43132E+03  3.47073E+04 -2.89980E+04  1.45765E+04 -2.89245E+04 -5.09965E+03 -1.55143E+04 -1.05528E+04
 -7.58640E+03 -1.24097E+04 -7.04069E+02 -1.71944E+04  6.80917E+03 -2.28976E+04  1.49979E+04 -1.35836E+04
  1.19949E+04  4.88636E+03 -7.03242E+03  1.30416E+04 -2.03340E+04 -3.35018E+03 -7.89289E+03 -3.18156E+04
  2.20799E+04 -4.17980E+04  4.63136E+04 -1.93396E+04  4.34606E+04  1.90353E+04  1.49085E+04  4.29749E+04
 -1.54526E+04  3.21697E+04 -2.43390E+04  1.62360E+03 -8.98202E+03 -2.68678E+04  2.06089E+04 -3.26959E+04
  3.95762E+04 -8.04632E+03  3.36513E+04  2.34356E+04  1.67613E+04  4.43083E+04 -7.87571E+03  4.76051E+04
 -2.98384E+04  3.13417E+04 -3.95633E+04  8.91199E+03 -4.03492E+04 -1.57969E+04 -2.26020E+04 -3.60261E+04
  7.30091E+03 -3.56068E+04  3.03995E+04 -1.35634E+04  2.82595E+04  1.11462E+04  3.27379E+03  1.83854E+04
 -1.33106E+04  8.00604E+03 -1.01501E+04 -7.85463E+03  5.75371E+03 -1.05277E+04  1.74902E+04  6.48318E+03
  1.26874E+04  2.15432E+04 -6.21473E+03  2.40701E+04 -2.17502E+04  1.01586E+04 -2.67595E+04 -5.38990E+03
 -1.86444E+04 -1.70529E+04 -6.55606E+03 -1.81774E+04  3.67790E+03 -1.66285E+04  1.37085E+04 -1.61340E+04
  2.34704E+04 -1.21413E+04  3.04588E+04  1.89480E+03  2.25406E+04  1.80082E+04  4.17552E+03  3.43125E+04
 -1.68679E+04  2.89088E+04 -2.67002E+04  9.79588E+03 -2.03558E+04 -1.02567E+04 -3.91404E+03 -1.38884E+04
  2.35796E+03 -3.32833E+03 -3.65209E+03  5.62237E+03 -1.43546E+04  5.14882E+03 -1.49805E+04 -5.93951E+03
 -9.48917E+03 -1.71353E+04  4.83299E+03 -2.09682E+04  1.38703E+04 -1.52109E+04  1.63922E+04 -1.47606E+03
  1.00727E+04  1.21045E+04 -7.97022E+02  1.72397E+04 -1.17871E+04  1.00616E+04 -1.74674E+04 -3.67431E+03
 -1.26823E+04 -1.53761E+04 -1.55060E+03 -2.06558E+04  9.43590E+03 -1.71116E+04  1.72612E+04 -8.06658E+03
  1.62790E+04  4.98831E+02  1.16565E+04  4.24771E+03  5.80008E+03  7.34073E+02  8.83423E+03 -1.33972E+03
  1.54934E+04  2.56340E+03  1.68406E+04  1.39902E+04  1.07365E+04  2.73822E+04 -3.14305E+03  2.98317E+04
 -1.76651E+04  2.33804E+04 -2.83142E+04  1.16760E+04 -2.89224E+04 -2.28707E+03 -2.45320E+04 -1.65930E+04
 -1.07443E+04 -2.36432E+04  7.72863E+03 -2.19130E+04  1.88241E+04 -1.19584E+04  1.72530E+04  4.36918E+03
  6.90708E+03  1.25747E+04 -7.92382E+03  1.16781E+04 -1.45426E+04  2.56412E+03 -1.14371E+04 -8.69539E+03
 -1.62099E+02 -1.37742E+04  6.73333E+03 -1.04620E+04  8.88130E+03 -1.36385E+03  1.66760E+03  5.58931E+03
 -6.09168E+03  1.70670E+03 -4.48827E+03 -5.01544E+03  1.22035E+02 -1.18413E+04  8.63422E+03 -1.18448E+04
  1.41048E+04 -6.00932E+03  1.43831E+04  2.67596E+03  1.28398E+04  1.12939E+04  6.06363E+03  1.68850E+04
 -2.26291E+03  1.88090E+04 -1.15211E+04  1.18655E+04 -1.33968E+04  2.99734E+03 -9.78071E+03 -2.75278E+03
 -4.76830E+03 -4.00402E+03 -8.45863E+02  1.37862E+03 -2.04683E+03  2.35369E+03 -4.34628E+03  3.80059E+03
 -9.20604E+03 -3.98710E+02 -9.80818E+03 -7.89246E+03 -4.10608E+03 -1.30569E+04  3.86915E+03 -9.78988E+03
  8.01087E+03 -4.51916E+03  6.08044E+03  2.44087E+03  2.12910E+02  3.61816E+03 -4.30037E+03 -1.91510E+02
 -4.03373E+03 -5.65960E+03 -6.60139E+02 -8.87164E+03  5.21045E+03 -9.41707E+03  1.18313E+04 -4.95105E+03
  1.38651E+04  6.90824E+02  1.03795E+04  7.22183E+03  1.89240E+03  1.06134E+04 -6.03305E+03  9.64517E+03
 -7.82038E+03  3.10894E+03 -4.38191E+03 -1.90509E+03  1.40824E+03 -2.65372E+03  5.50967E+03 -1.03313E+03
  4.79881E+03  4.19305E+03  1.27576E+03  7.54831E+03 -5.17568E+03  7.63134E+03 -9.36749E+03  1.90167E+03
 -5.77788E+03 -4.37530E+03  2.71800E+01 -7.94590E+03  4.66733E+03 -3.92509E+03  4.78324E+03  1.48790E+03
  7.32740E+02  4.38565E+03 -4.94779E+03  5.90509E+03 -5.90374E+03  2.91664E+03 -6.05269E+03 -1.71696E+03
 -3.53277E+03 -7.73716E+03  1.64870E+03 -9.00801E+03  7.69669E+03 -5.94977E+03  8.34359E+03  1.21274E+03
  5.35476E+03  6.73087E+03 -3.27983E+02  8.75020E+03 -6.47273E+03  4.95011E+03 -6.53516E+03 -7.34700E+02
 -6.86169E+03 -6.20001E+03 -1.37627E+03 -6.16038E+03  3.07521E+03 -5.49607E+03  3.64870E+03 -3.00692E+03
  3.11347E+03  6.20143E+02 -1.68649E+02  9.28316E+02  1.05061E+02 -5.07498E+02  6.37399E+02 -2.86617E+03
  4.99802E+03 -1.36393E+03  7.36296E+03  6.41433E+02  7.31709E+03  4.23200E+03  5.91753E+03  9.37510E+03
 -1.56056E+03  1.12927E+04 -9.76736E+03  8.37597E+03 -1.26098E+04  1.83643E+03 -1.02807E+04 -3.60358E+03
 -5.25815E+03 -8.38381E+03 -4.96274E+02 -6.77891E+03  2.74976E+03 -3.22083E+03  2.37881E+03 -2.75637E+03
  2.06041E+03 -1.67594E+03  2.47525E+03 -2.55574E+03  3.59536E+03 -1.75872E+03  4.56001E+03 -6.11991E+01
  5.56308E+03  1.37256E+03  1.74878E+03  4.59709E+03 -1.94280E+03  4.09341E+03 -5.55199E+03  3.72142E+03
 -6.30416E+03 -8.08433E+02 -2.95287E+03 -4.81806E+03  2.88083E+02 -6.46988E+03  4.09516E+03 -6.96950E+03
  6.95656E+03 -4.01800E+03  8.65847E+03  5.60147E+02  6.32512E+03  5.84430E+03  9.91110E+02  8.04772E+03
 -2.95838E+03  7.23197E+03 -4.66323E+03  2.30913E+03 -2.68007E+03 -9.54643E+02 -7.27160E+02 -7.56363E+02
 -4.51655E+02  5.06359E+02 -1.14556E+03  2.14073E+03 -2.87963E+03  1.09539E+03 -5.18918E+03 -7.28242E+02
 -2.24621E+03 -5.01443E+03  5.78940E+02 -6.15437E+03  3.95618E+03 -5.61488E+03  5.30850E+03 -1.70947E+03
  5.58424E+03  3.31538E+03  2.83914E+03  4.71939E+03 -1.14665E+03  5.89871E+03 -3.76492E+03  3.85700E+03
 -5.36924E+03  5.26122E+02 -4.51274E+03 -3.52583E+03 -1.24384E+02 -4.53794E+03  2.31814E+03 -3.62508E+03
  3.46462E+03 -1.35361E+03  2.47211E+03  8.04429E+02  3.75981E+02  2.05762E+03  8.81624E+02  9.40026E+02
  1.77683E+03  7.99494E+02  1.39944E+03  1.24256E+03  1.46624E+03  2.43631E+03  1.67494E+03  2.80658E+03
 -1.36870E+03  4.09554E+03 -3.44651E+03  5.36288E+03 -4.72899E+03  1.40225E+03 -6.10269E+03 -1.57200E+03
 -2.64704E+03 -5.48642E+03  7.95114E+02 -6.49067E+03  3.08898E+03 -3.71676E+03  4.37511E+03 -1.33870E+03
  3.62534E+03  2.25972E+03  7.04311E+02  3.10160E+03 -1.03894E+03  2.10015E+03 -1.90106E+03 -2.02603E+01
 -7.67940E+02 -2.18008E+03  1.69958E+03 -2.38521E+03  1.92348E+03 -1.45707E+03  2.13304E+03  5.50485E+02
  9.19924E+02  6.65664E+02  8.60037E+02  2.20180E+02 -3.79988E+02  1.00837E+03  1.35075E+03 -2.00282E+02
  4.29394E+02 -2.45454E+02  2.54610E+03  8.38758E+02  7.84816E+02  3.12197E+03 -5.56173E+02  4.08964E+03
 -2.42249E+03  1.96680E+03 -3.26816E+03  6.97592E+02 -3.08174E+03 -1.04274E+03 -8.66114E+02 -1.50700E+03
  4.23342E+02 -2.07392E+03  1.41490E+03 -1.19525E+03  1.01314E+03  1.37313E+03 -7.58445E+02  1.58690E+03
 -1.87189E+03  1.01574E+03 -2.31927E+03 -1.84283E+03 -1.11118E+03 -3.06147E+03  2.40967E+02 -2.75064E+03
  1.00183E+03 -1.06899E+03  1.54411E+03  1.27308E+02  1.82142E+03 -2.34604E+01  4.16345E+02  1.61320E+03
 -3.46617E+02  3.04666E+02 -1.34646E+03 -4.84583E+02  7.33356E+02 -1.60831E+03  2.50609E+03 -1.40938E+03
  2.44797E+03  1.90029E+02  3.88865E+03  1.60959E+03  1.47139E+03  2.67735E+03 -1.00381E+03  2.84648E+03
 -2.57289E+03  7.81690E+02 -2.49802E+03 -2.26742E+02 -1.50901E+03 -1.97618E+03  4.85165E+02 -1.11977E+03
  2.12292E+03 -9.99713E+02  1.23352E+03  8.34257E+02  4.61059E+02  1.77334E+03  1.31842E+02  1.68713E+03
 -6.69071E+02  9.87089E+02 -9.67833E+02  9.41655E+01 -6.91149E+01  3.09853E+02 -7.25913E+02  7.47235E+02
 -8.53730E+02  1.34590E+03 -2.48931E+03  8.86279E+02 -2.67115E+03  1.33318E+02 -3.84633E+03 -1.80445E+03
 -1.52300E+03 -3.64052E+03  7.99893E+02 -4.09375E+03  2.17452E+03 -3.71367E+03  4.47269E+03 -1.52051E+03
  4.09279E+03  3.84730E+01  2.05514E+03  2.34884E+03 -3.61843E+02  2.74126E+03 -1.21722E+03  1.90980E+03
 -1.65962E+03  8.02657E+02 -9.43166E+02 -5.61083E+02 -5.18187E+02  3.83662E+02 -6.65291E+02  1.29118E+02
 -1.39983E+03 -1.46170E+02 -1.01304E+03  1.05891E+02  1.90831E+02 -9.40068E+02 -1.16291E+02 -1.27808E+03
  1.75746E+03 -1.03748E+03  9.41756E+02  6.62928E+01  1.85313E+03  1.59276E+03 -1.91910E+02  2.21082E+03
 -1.36558E+03  3.33770E+03 -2.64168E+03  2.15838E+03 -2.91679E+03 -1.98208E+02 -2.46341E+03 -1.95800E+03
 -1.33663E+03 -2.39814E+03  5.41228E+02 -2.18944E+03  1.38676E+03 -1.13518E+03  1.42948E+03  2.17005E+01
  1.09717E+03  3.83071E+02  1.88260E+02  7.57570E+02 -5.59416E+02  3.25157E+01 -1.88164E+01 -4.37739E+02
  9.48029E+02  1.23226E+02  7.00973E+02  4.91379E+02  2.19853E+02  6.88852E+02  5.35390E+02  8.10627E+02
 -1.15540E+03  1.00508E+03 -1.50816E+03  3.05078E+02 -1.59906E+03 -1.16610E+03  2.02404E+02 -2.04971E+03
  1.06912E+03 -1.25210E+03  1.01755E+03 -5.11906E+01  1.80819E+03 -2.42825E+02  7.77618E+02  1.34130E+03
  4.90371E+02  1.19445E+03 -5.68161E+02  1.20882E+03 -1.14842E+03  5.21323E+02 -5.08135E+02  1.26648E+02
 -4.28859E+02 -3.29121E+02 -4.85675E+02  5.54511E+02 -1.00275E+03 -6.50223E+01 -1.36892E+03 -4.45310E+02
 -1.60761E+03 -1.83056E+01 -3.09484E+02 -1.45124E+03  9.03844E+02 -1.95921E+03  1.33599E+03 -8.41406E+02
  1.25139E+03  2.46688E+01 -2.50728E+01  3.56339E+02  4.74816E+01  1.27540E+03 -7.70874E+02  1.15811E+03
