 $NMID ID='MM_0lb_SNR800_16hz_g60_96.RAW', FMTDAT='(8E13.5)'
 TRAMP=1., VOLUME=1. $END
  3.09796E+05  7.02357E+01  3.37207E+05  2.50620E+05  8.44958E+04  3.38249E+05 -1.32450E+05  2.51412E+05
 -1.90380E+05  8.34856E+04 -1.11641E+05 -3.27758E+04  7.38408E+02 -5.01992E+04  5.36512E+04 -4.87822E+02
  3.53132E+04  5.29210E+04 -1.69922E+04  7.54819E+04 -6.08792E+04  6.38158E+04 -8.41663E+04  3.20832E+04
 -8.12404E+04 -1.14055E+04 -5.69943E+04 -5.14067E+04 -1.50574E+04 -6.95817E+04  2.74040E+04 -4.60729E+04
  4.00393E+04  3.89169E+03  1.62661E+04  4.77494E+04 -3.46197E+04  4.73082E+04 -6.70263E+04 -5.07800E+02
 -5.35032E+04 -5.68546E+04 -6.61276E+03 -7.71033E+04  3.38670E+04 -5.55117E+04  4.80132E+04 -1.73495E+04
  4.34443E+04  1.15734E+04  3.18521E+04  2.59056E+04  1.59256E+04  2.95951E+04 -5.31722E+03  2.72309E+04
 -2.19389E+04  1.24609E+04 -1.84672E+04 -5.24402E+03  5.58815E+03 -7.52714E+03  2.25345E+04  1.23681E+04
  7.13545E+03  3.56744E+04 -3.21601E+04  3.54931E+04 -6.34920E+04  2.09768E+03 -5.71271E+04 -4.32167E+04
 -1.26833E+04 -6.33912E+04  3.95390E+04 -4.52666E+04  5.80464E+04 -2.30217E+03  3.42924E+04  3.24270E+04
 -5.97882E+03  3.63444E+04 -3.03070E+04  1.59274E+04 -3.04238E+04 -4.33320E+03 -1.65091E+04 -1.10289E+04
 -8.59513E+03 -1.31268E+04 -6.91215E+02 -1.80576E+04  7.62183E+03 -2.29209E+04  1.50819E+04 -1.30346E+04
  1.15208E+04  5.37351E+03 -8.52534E+03  1.28420E+04 -2.12180E+04 -4.30714E+03 -8.49265E+03 -3.36652E+04
  2.27113E+04 -4.38763E+04  4.83340E+04 -1.98363E+04  4.50974E+04  1.92877E+04  1.54707E+04  4.42961E+04
 -1.60963E+04  3.32973E+04 -2.53071E+04  1.70867E+03 -9.93682E+03 -2.79141E+04  2.08625E+04 -3.39711E+04
  4.11613E+04 -9.10107E+03  3.55127E+04  2.37741E+04  1.85384E+04  4.65162E+04 -8.30218E+03  5.00137E+04
 -3.16236E+04  3.37978E+04 -4.17925E+04  9.59197E+03 -4.23824E+04 -1.65533E+04 -2.34306E+04 -3.80176E+04
  7.30872E+03 -3.78199E+04  3.15984E+04 -1.45306E+04  2.90248E+04  1.05852E+04  4.08883E+03  1.92195E+04
 -1.35726E+04  8.57231E+03 -1.03779E+04 -7.78787E+03  5.62390E+03 -1.08188E+04  1.79713E+04  6.08749E+03
  1.35302E+04  2.20574E+04 -6.16571E+03  2.49112E+04 -2.20745E+04  1.13500E+04 -2.79526E+04 -4.74913E+03
 -2.04265E+04 -1.72000E+04 -7.74653E+03 -2.02278E+04  3.92753E+03 -1.94743E+04  1.55192E+04 -1.79634E+04
  2.58022E+04 -1.30279E+04  3.25376E+04  2.44012E+03  2.36944E+04  1.95372E+04  4.33261E+03  3.61357E+04
 -1.76227E+04  3.02441E+04 -2.77034E+04  1.05944E+04 -2.05712E+04 -1.02293E+04 -4.24796E+03 -1.34668E+04
  1.66074E+03 -2.85758E+03 -4.76111E+03  6.32897E+03 -1.59116E+04  5.09287E+03 -1.61214E+04 -6.46047E+03
 -9.87459E+03 -1.84798E+04  4.89037E+03 -2.23886E+04  1.50482E+04 -1.62593E+04  1.79699E+04 -1.56954E+03
  1.11331E+04  1.28919E+04 -9.63093E+02  1.88472E+04 -1.27257E+04  1.09757E+04 -1.83528E+04 -3.80177E+03
 -1.36574E+04 -1.70858E+04 -1.89698E+03 -2.26266E+04  1.02025E+04 -1.82106E+04  1.87578E+04 -9.16453E+03
  1.73045E+04  4.14260E+02  1.24485E+04  4.44857E+03  6.74746E+03  7.77195E+02  9.43242E+03 -1.47582E+03
  1.67939E+04  2.57159E+03  1.92062E+04  1.47728E+04  1.22776E+04  2.93131E+04 -2.90741E+03  3.31848E+04
 -1.92618E+04  2.66340E+04 -3.06097E+04  1.34554E+04 -3.20062E+04 -2.49156E+03 -2.68074E+04 -1.87020E+04
 -1.16310E+04 -2.65083E+04  9.40461E+03 -2.42232E+04  2.08673E+04 -1.25428E+04  1.85278E+04  4.88622E+03
  7.15820E+03  1.39346E+04 -8.77079E+03  1.22586E+04 -1.59533E+04  2.51118E+03 -1.23821E+04 -9.59365E+03
 -2.83876E+01 -1.47033E+04  7.58786E+03 -1.11347E+04  9.86652E+03 -1.49040E+03  2.05637E+03  6.56830E+03
 -6.55050E+03  2.10707E+03 -5.64805E+03 -5.56039E+03 -2.54456E+02 -1.30652E+04  9.41658E+03 -1.34464E+04
  1.58172E+04 -6.96047E+03  1.67550E+04  3.01318E+03  1.46460E+04  1.25480E+04  6.86882E+03  1.91365E+04
 -2.63397E+03  2.12790E+04 -1.32938E+04  1.34088E+04 -1.49793E+04  3.12007E+03 -1.05241E+04 -3.29658E+03
 -5.37166E+03 -4.81480E+03 -9.70840E+02  1.27478E+03 -2.14817E+03  2.30394E+03 -4.68992E+03  4.17686E+03
 -1.03996E+04 -3.67445E+02 -1.10565E+04 -8.77564E+03 -4.54053E+03 -1.42390E+04  4.49602E+03 -1.08223E+04
  8.93342E+03 -4.66484E+03  6.46826E+03  2.83819E+03  3.67408E+02  4.40836E+03 -4.67322E+03 -4.45778E+02
 -4.72751E+03 -6.94620E+03 -7.12176E+02 -9.86063E+03  5.87642E+03 -1.08240E+04  1.31997E+04 -5.38211E+03
  1.54165E+04  9.07637E+02  1.13313E+04  8.49003E+03  2.30093E+03  1.16486E+04 -6.59298E+03  1.03320E+04
 -8.73002E+03  3.38828E+03 -4.51328E+03 -2.25829E+03  1.63144E+03 -2.76145E+03  5.94027E+03 -7.34081E+02
  5.19019E+03  4.14288E+03  1.25668E+03  8.25605E+03 -5.73439E+03  8.05143E+03 -9.73026E+03  2.27429E+03
 -6.72109E+03 -4.85977E+03  6.81403E+02 -8.55015E+03  5.17689E+03 -4.11399E+03  5.09553E+03  1.59924E+03
  8.63345E+02  5.27940E+03 -5.12520E+03  6.32279E+03 -7.28195E+03  3.04430E+03 -7.17822E+03 -2.38470E+03
 -4.20052E+03 -8.72027E+03  1.99738E+03 -1.01038E+04  8.78660E+03 -6.70351E+03  9.56638E+03  1.59009E+03
  6.30302E+03  7.57638E+03 -3.51652E+02  9.75239E+03 -6.87885E+03  5.40865E+03 -7.07663E+03 -4.83206E+02
 -7.33101E+03 -6.69867E+03 -1.44699E+03 -6.75176E+03  3.54181E+03 -5.85146E+03  4.18974E+03 -3.05439E+03
  3.55421E+03  6.22710E+02 -2.50749E+02  1.56729E+03  2.46652E+01 -1.18883E+03  6.46539E+02 -3.78768E+03
  5.71803E+03 -2.28810E+03  7.98338E+03  1.07441E+03  7.99023E+03  5.15884E+03  6.56756E+03  1.06998E+04
 -2.27299E+03  1.22634E+04 -1.07945E+04  9.37534E+03 -1.36631E+04  1.51668E+03 -1.11830E+04 -4.13487E+03
 -5.57625E+03 -9.17487E+03 -4.58237E+02 -7.49507E+03  2.99769E+03 -3.73329E+03  2.90284E+03 -3.08583E+03
  1.85418E+03 -1.63306E+03  2.39849E+03 -2.77257E+03  3.85834E+03 -1.91955E+03  4.50803E+03 -1.18864E+02
  5.83213E+03  1.53747E+03  2.51278E+03  4.60310E+03 -1.47869E+03  5.09807E+03 -6.06930E+03  4.04018E+03
 -7.33383E+03 -9.82758E+02 -3.79657E+03 -4.79543E+03  2.03942E+02 -7.58380E+03  4.71132E+03 -8.06236E+03
  7.97853E+03 -4.53911E+03  9.33800E+03  8.99420E+02  7.09191E+03  6.47636E+03  1.43710E+03  8.67763E+03
 -3.17066E+03  7.58071E+03 -4.93389E+03  2.57335E+03 -2.81728E+03 -1.19386E+03 -1.11249E+03 -6.86592E+02
 -3.78065E+02  3.93976E+02 -9.57037E+02  2.19597E+03 -3.51013E+03  1.48426E+03 -5.31047E+03 -8.24343E+02
 -2.93972E+03 -5.28193E+03  5.45837E+02 -6.88828E+03  4.26547E+03 -6.67016E+03  5.61026E+03 -1.95283E+03
  6.30061E+03  3.37703E+03  3.01392E+03  5.48090E+03 -1.20028E+03  6.49201E+03 -3.93310E+03  4.24419E+03
 -5.58383E+03  6.47675E+02 -5.15996E+03 -3.84614E+03 -6.51253E+02 -5.18332E+03  2.40205E+03 -4.12350E+03
  4.20497E+03 -1.62620E+03  2.58746E+03  1.19251E+03  1.04315E+03  2.42379E+03  8.95671E+02  4.81926E+02
  2.00456E+03  6.27099E+02  1.81366E+03  1.14302E+03  2.00564E+03  2.58957E+03  1.78271E+03  2.89476E+03
 -1.34648E+03  4.83009E+03 -4.07453E+03  5.66062E+03 -5.41462E+03  1.35267E+03 -6.32317E+03 -1.47144E+03
 -2.79513E+03 -5.69037E+03  9.88889E+02 -6.95442E+03  3.04606E+03 -4.14610E+03  4.85481E+03 -1.43332E+03
  3.88832E+03  2.44929E+03  6.58331E+02  3.25206E+03 -1.43120E+03  1.91144E+03 -2.12116E+03 -3.07928E+02
 -8.99506E+02 -2.69760E+03  1.72472E+03 -2.47281E+03  2.05266E+03 -1.48249E+03  2.39381E+03  6.84884E+02
  1.11708E+03  8.17576E+02  7.88243E+02  1.38262E+02 -6.48234E+02  1.10408E+03  1.60600E+03 -5.42857E+01
  2.46630E+02 -4.56129E+02  2.31577E+03  8.57030E+02  1.02577E+03  3.41424E+03 -4.20653E+02  3.95232E+03
 -2.36024E+03  2.23608E+03 -3.38367E+03  7.02281E+02 -3.50503E+03 -1.16906E+03 -6.71105E+02 -1.93022E+03
  4.59758E+02 -2.10144E+03  1.54677E+03 -1.11857E+03  1.09608E+03  1.31427E+03 -9.90735E+02  1.75329E+03
 -1.91115E+03  1.16354E+03 -2.26067E+03 -1.63364E+03 -1.35708E+03 -3.34093E+03  4.31451E+02 -2.54124E+03
  1.25195E+03 -1.38674E+03  1.81545E+03 -5.98680E+01  1.70355E+03  4.36022E+02  5.35678E+02  1.54645E+03
 -5.41629E+02  4.91633E+02 -1.29492E+03 -5.04600E+02  8.87181E+02 -1.75662E+03  2.73004E+03 -1.65872E+03
  2.60047E+03  4.94622E+02  3.78129E+03  1.70632E+03  1.23190E+03  2.64504E+03 -7.71337E+02  2.95684E+03
 -2.71673E+03  6.43151E+02 -2.82831E+03 -3.39517E+02 -1.41949E+03 -2.35374E+03  5.33137E+02 -1.46199E+03
  2.06896E+03 -8.23178E+02  1.37223E+03  1.00878E+03  4.62006E+02  1.95087E+03  2.34977E+02  1.83346E+03
 -1.08014E+03  1.34354E+03 -5.48477E+02  2.65498E+02 -2.71771E+02  4.16051E+02 -9.47872E+02  4.54179E+02
 -9.56546E+02  1.32197E+03 -2.42523E+03  1.02578E+03 -2.86509E+03  3.08726E+02 -3.56826E+03 -1.64513E+03
 -1.73686E+03 -4.02009E+03  5.71173E+02 -4.85811E+03  2.13960E+03 -3.45080E+03  4.25497E+03 -1.55526E+03
  3.82463E+03  7.10223E+01  2.19082E+03  2.41557E+03 -4.16902E+02  2.56349E+03 -1.24946E+03  2.00746E+03
 -1.57540E+03  1.41716E+03 -1.08272E+03 -1.45800E+02 -3.73380E+02  1.36425E+02 -3.36064E+02  7.11598E+01
 -1.01267E+03 -2.88672E+02 -1.19789E+03 -1.36944E+00  6.33874E+00 -1.10066E+03 -4.62406E+02 -1.34255E+03
  1.90895E+03 -6.45193E+02  8.93808E+02  1.92837E+01  1.73144E+03  1.38018E+03  1.56559E+02  2.46254E+03
 -1.44895E+03  3.32873E+03 -2.81544E+03  2.06544E+03 -2.77734E+03 -2.14011E+02 -2.07015E+03 -2.07271E+03
 -1.10114E+03 -2.56831E+03  5.94750E+02 -2.05053E+03  1.49633E+03 -1.10479E+03  1.32297E+03  5.26925E+01
  8.33827E+02  7.98893E+02  7.40117E+01  6.48356E+02 -6.92174E+02 -9.74855E+01 -1.71199E+02 -3.89141E+02
  8.57385E+02  1.93118E+02  7.45175E+02  6.85744E+02  4.43795E+02  9.87142E+02  6.44341E+02  1.13937E+03
 -9.90001E+02  1.16238E+03 -1.45885E+03  1.09899E+01 -1.32454E+03 -7.19377E+02 -8.27764E+01 -2.20718E+03
  9.53042E+02 -1.44980E+03  1.47837E+03 -3.31621E+02  1.75273E+03 -3.01920E+02  9.64474E+02  1.35120E+03
  6.51727E+02  7.72097E+02 -7.14308E+02  1.10413E+03 -1.04958E+03  1.01323E+03 -6.88919E+02  4.79412E+02
 -4.78179E+02  4.34195E+01 -6.51091E+02  1.81859E+02 -9.89889E+02  2.49689E+02 -1.34188E+03 -3.65196E+02
 -1.27427E+03 -7.86201E+00 -6.38780E+02 -1.55854E+03  8.21807E+02 -2.36481E+03  1.20981E+03 -6.68138E+02
  1.27078E+03  1.37040E+02  3.65644E+00  7.61884E+02 -1.55473E+02  1.60710E+03 -8.06071E+02  1.10384E+03
