 $NMID ID='MM_0lb_SNR800_14hz_g40_6.RAW', FMTDAT='(8E13.5)'
 TRAMP=1., VOLUME=1. $END
  3.10100E+05  4.21752E+02  3.37200E+05  2.50226E+05  8.45984E+04  3.37838E+05 -1.32617E+05  2.50799E+05
 -1.90384E+05  8.31706E+04 -1.11445E+05 -3.28052E+04  1.23369E+03 -5.05494E+04  5.38145E+04 -3.92359E+02
  3.54211E+04  5.29691E+04 -1.66969E+04  7.52289E+04 -6.03936E+04  6.34840E+04 -8.37161E+04  3.18681E+04
 -8.07226E+04 -1.14454E+04 -5.68211E+04 -5.07374E+04 -1.47118E+04 -6.92351E+04  2.71334E+04 -4.55317E+04
  3.99215E+04  3.92384E+03  1.58494E+04  4.74221E+04 -3.44792E+04  4.69452E+04 -6.65868E+04 -3.02134E+02
 -5.32150E+04 -5.64443E+04 -6.40882E+03 -7.64349E+04  3.37280E+04 -5.47638E+04  4.75136E+04 -1.67183E+04
  4.26461E+04  1.13021E+04  3.12569E+04  2.53384E+04  1.57363E+04  2.89675E+04 -5.30458E+03  2.71990E+04
 -2.19476E+04  1.27499E+04 -1.86991E+04 -4.74423E+03  5.20519E+03 -7.80616E+03  2.22091E+04  1.19545E+04
  7.51417E+03  3.44697E+04 -3.16376E+04  3.52792E+04 -6.26698E+04  2.03317E+03 -5.65285E+04 -4.24768E+04
 -1.24054E+04 -6.26379E+04  3.94795E+04 -4.47616E+04  5.72314E+04 -2.32054E+03  3.35231E+04  3.17324E+04
 -6.05763E+03  3.54336E+04 -2.96442E+04  1.53270E+04 -2.96104E+04 -4.47995E+03 -1.61605E+04 -1.08356E+04
 -8.27927E+03 -1.28160E+04 -1.02303E+03 -1.77028E+04  7.31634E+03 -2.26021E+04  1.52364E+04 -1.32826E+04
  1.17340E+04  5.15517E+03 -7.51508E+03  1.32122E+04 -2.07858E+04 -3.53669E+03 -8.14458E+03 -3.27663E+04
  2.23578E+04 -4.25167E+04  4.73424E+04 -1.95165E+04  4.43804E+04  1.92402E+04  1.53453E+04  4.35834E+04
 -1.60645E+04  3.27535E+04 -2.51389E+04  1.66157E+03 -9.45257E+03 -2.76473E+04  2.12731E+04 -3.31819E+04
  4.02622E+04 -8.45469E+03  3.44817E+04  2.35865E+04  1.73843E+04  4.53424E+04 -8.01054E+03  4.89642E+04
 -3.07983E+04  3.30186E+04 -4.09675E+04  9.17311E+03 -4.14153E+04 -1.62327E+04 -2.27494E+04 -3.71676E+04
  7.27877E+03 -3.70503E+04  3.07558E+04 -1.44465E+04  2.88931E+04  1.08255E+04  3.87586E+03  1.85279E+04
 -1.31890E+04  7.94808E+03 -1.03478E+04 -7.62192E+03  5.94305E+03 -1.07828E+04  1.80622E+04  5.87430E+03
  1.33684E+04  2.19366E+04 -6.21006E+03  2.45213E+04 -2.22099E+04  1.10620E+04 -2.74647E+04 -5.07680E+03
 -1.97183E+04 -1.69688E+04 -7.77277E+03 -1.97561E+04  3.89604E+03 -1.85931E+04  1.47819E+04 -1.72898E+04
  2.46938E+04 -1.23439E+04  3.15295E+04  2.47832E+03  2.33890E+04  1.91442E+04  4.23988E+03  3.55618E+04
 -1.72258E+04  2.96893E+04 -2.74641E+04  1.03664E+04 -2.04775E+04 -1.02802E+04 -4.24052E+03 -1.34080E+04
  1.96129E+03 -3.20248E+03 -4.77091E+03  6.25164E+03 -1.55775E+04  5.43896E+03 -1.60027E+04 -6.48437E+03
 -9.70083E+03 -1.81984E+04  5.23519E+03 -2.23185E+04  1.47303E+04 -1.57832E+04  1.77174E+04 -1.37441E+03
  1.09083E+04  1.26734E+04 -9.03255E+02  1.81815E+04 -1.25915E+04  1.02905E+04 -1.82509E+04 -3.86974E+03
 -1.34111E+04 -1.66404E+04 -1.67025E+03 -2.22033E+04  9.99023E+03 -1.79960E+04  1.86367E+04 -9.02184E+03
  1.71161E+04  1.37874E+02  1.20332E+04  4.38695E+03  6.74304E+03  6.18910E+02  9.28830E+03 -1.56369E+03
  1.64975E+04  2.62127E+03  1.85519E+04  1.45939E+04  1.18856E+04  2.91466E+04 -3.20532E+03  3.29091E+04
 -1.89187E+04  2.60549E+04 -3.01223E+04  1.28134E+04 -3.15907E+04 -2.55277E+03 -2.65905E+04 -1.81121E+04
 -1.15536E+04 -2.60763E+04  8.61457E+03 -2.34210E+04  2.05269E+04 -1.21536E+04  1.82818E+04  5.02277E+03
  7.27922E+03  1.37233E+04 -8.65990E+03  1.20546E+04 -1.56366E+04  2.73820E+03 -1.19645E+04 -9.68949E+03
 -3.75598E+02 -1.49576E+04  7.65269E+03 -1.08723E+04  9.76485E+03 -1.40901E+03  2.01179E+03  6.23226E+03
 -6.65710E+03  1.85477E+03 -5.31552E+03 -5.19121E+03 -2.31221E+02 -1.29047E+04  9.08506E+03 -1.31266E+04
  1.60979E+04 -6.73605E+03  1.66555E+04  3.07535E+03  1.47757E+04  1.26834E+04  6.64597E+03  1.89957E+04
 -2.76019E+03  2.11342E+04 -1.33842E+04  1.29596E+04 -1.52526E+04  3.22850E+03 -1.08228E+04 -3.37678E+03
 -5.10175E+03 -4.55436E+03 -7.83136E+02  1.11282E+03 -2.40416E+03  2.51866E+03 -4.65494E+03  3.90316E+03
 -1.00883E+04 -4.17392E+02 -1.05349E+04 -8.92552E+03 -4.21465E+03 -1.41451E+04  4.45153E+03 -1.08553E+04
  8.90055E+03 -4.89869E+03  6.74425E+03  3.01122E+03  5.81205E+02  3.94511E+03 -5.06637E+03  1.88952E+02
 -4.92573E+03 -6.54662E+03 -8.51701E+02 -9.94998E+03  5.70352E+03 -1.06498E+04  1.32466E+04 -5.33719E+03
  1.57540E+04  1.32107E+03  1.14392E+04  8.82754E+03  2.48674E+03  1.20955E+04 -6.73047E+03  1.06457E+04
 -8.63043E+03  3.32249E+03 -4.47291E+03 -1.85468E+03  1.72461E+03 -2.68036E+03  6.04844E+03 -1.00447E+03
  5.25132E+03  4.73791E+03  1.22913E+03  8.48712E+03 -6.01865E+03  8.21396E+03 -1.01320E+04  2.15948E+03
 -6.94365E+03 -4.91901E+03  1.21935E+02 -8.72246E+03  5.33333E+03 -4.76927E+03  5.34366E+03  1.59950E+03
  1.01854E+03  5.50571E+03 -5.41858E+03  7.07026E+03 -7.62243E+03  3.23349E+03 -7.78025E+03 -2.20248E+03
 -4.56357E+03 -9.47920E+03  1.88974E+03 -1.06148E+04  9.11745E+03 -6.66685E+03  9.93405E+03  1.62900E+03
  6.39692E+03  8.06429E+03 -3.44356E+02  1.02317E+04 -7.20913E+03  5.61720E+03 -7.88239E+03 -7.83542E+02
 -7.42810E+03 -6.66531E+03 -1.44160E+03 -7.19417E+03  3.69310E+03 -6.46573E+03  4.58564E+03 -3.00414E+03
  3.39558E+03  9.73623E+02 -4.73444E+02  1.35626E+03  7.06149E-02 -1.67521E+03  9.65463E+02 -3.64247E+03
  6.44185E+03 -2.24293E+03  8.75427E+03  8.21056E+02  8.65815E+03  5.84490E+03  7.10234E+03  1.16050E+04
 -2.45562E+03  1.32761E+04 -1.16876E+04  1.01878E+04 -1.47067E+04  2.24845E+03 -1.20241E+04 -4.43629E+03
 -6.14940E+03 -9.77726E+03 -1.84601E+02 -8.36919E+03  3.24929E+03 -4.28675E+03  2.59385E+03 -2.95459E+03
  2.18667E+03 -2.00652E+03  2.70179E+03 -2.86335E+03  4.29297E+03 -2.31131E+03  5.00853E+03 -2.16952E+02
  6.59552E+03  1.76499E+03  2.41689E+03  5.03812E+03 -1.64457E+03  5.25045E+03 -6.44793E+03  4.47367E+03
 -8.00273E+03 -1.15208E+03 -4.23492E+03 -5.78676E+03 -1.08917E+02 -8.33168E+03  5.11468E+03 -8.76778E+03
  8.50931E+03 -5.06218E+03  1.07732E+04  1.08694E+03  7.50289E+03  7.32282E+03  1.55749E+03  9.67877E+03
 -3.76616E+03  8.52808E+03 -5.72367E+03  2.94605E+03 -3.84817E+03 -1.11687E+03 -1.38943E+03 -1.10767E+03
 -6.38344E+02  1.64593E+02 -1.23645E+03  2.55386E+03 -3.72739E+03  1.15093E+03 -5.92487E+03 -6.59995E+02
 -3.26807E+03 -6.04805E+03  4.41008E+02 -7.53250E+03  4.39043E+03 -7.10891E+03  7.00426E+03 -2.27388E+03
  7.05134E+03  3.58093E+03  3.24413E+03  6.34662E+03 -1.58358E+03  7.35654E+03 -5.15650E+03  4.42565E+03
 -6.67892E+03  7.84838E+02 -5.73143E+03 -4.59246E+03 -5.72886E+02 -5.92119E+03  3.09657E+03 -4.56992E+03
  4.79022E+03 -1.75533E+03  3.05339E+03  1.12545E+03  1.06340E+03  2.57667E+03  9.85890E+02  9.56040E+02
  1.87907E+03  5.88706E+02  1.80028E+03  1.22893E+03  2.10035E+03  3.32979E+03  2.20468E+03  3.58500E+03
 -1.84975E+03  5.62159E+03 -5.03999E+03  6.17536E+03 -6.67651E+03  2.10506E+03 -7.32674E+03 -2.16711E+03
 -3.36551E+03 -7.02961E+03  7.25529E+02 -8.22778E+03  3.83854E+03 -4.83186E+03  5.83050E+03 -1.54376E+03
  4.56847E+03  3.20209E+03  1.17768E+03  3.92783E+03 -1.42556E+03  2.64337E+03 -2.64817E+03 -4.58809E+02
 -1.57995E+03 -3.20660E+03  2.06637E+03 -3.13811E+03  2.81155E+03 -1.67599E+03  2.90685E+03  6.10770E+02
  1.33638E+03  8.86593E+02  9.85654E+02  5.77055E+02 -4.52947E+02  1.07321E+03  1.96071E+03 -2.04600E+02
  8.62943E+02 -3.04222E+02  3.35652E+03  1.49240E+03  1.60264E+03  4.19950E+03 -4.05235E+02  5.08027E+03
 -3.26524E+03  2.84780E+03 -4.28244E+03  8.10381E+02 -3.89785E+03 -1.33768E+03 -1.34513E+03 -2.19018E+03
  7.73837E+02 -2.69697E+03  1.62510E+03 -1.51755E+03  1.49177E+03  1.73227E+03 -7.77106E+02  2.29669E+03
 -2.79128E+03  1.34481E+03 -3.01210E+03 -2.21354E+03 -1.58281E+03 -3.73990E+03  1.73787E+02 -3.56808E+03
  1.69252E+03 -1.78372E+03  2.29844E+03 -4.22680E+01  2.32138E+03  7.21050E+02  3.57001E+02  2.03556E+03
 -1.03183E+03  3.08779E+02 -1.74192E+03 -1.07237E+03  6.53806E+02 -2.33842E+03  3.10913E+03 -2.31068E+03
  3.62167E+03  2.84479E+01  4.32058E+03  2.38433E+03  1.97099E+03  3.93941E+03 -1.41147E+03  4.04854E+03
 -3.14450E+03  1.11901E+03 -3.90452E+03 -3.42921E+02 -1.88744E+03 -2.87857E+03  5.45004E+02 -1.93615E+03
  2.95747E+03 -1.28748E+03  1.94227E+03  1.25506E+03  7.86305E+02  2.60662E+03 -1.33441E+02  2.22524E+03
 -9.18356E+02  1.49535E+03 -1.21970E+03  3.53233E+02 -2.72082E+02  2.49637E+02 -8.19444E+02  7.70891E+02
 -1.48439E+03  2.01659E+03 -2.99275E+03  1.36981E+03 -4.01015E+03  2.96612E+01 -4.65360E+03 -2.33845E+03
 -1.89654E+03 -5.04942E+03  1.03398E+03 -6.36225E+03  3.50560E+03 -4.75405E+03  5.97330E+03 -1.88059E+03
  5.19540E+03  8.09736E+02  3.35455E+03  3.65343E+03  9.83613E+01  3.98793E+03 -1.67119E+03  3.02917E+03
 -2.49541E+03  1.40112E+03 -1.41287E+03 -7.32633E+02 -8.12756E+02  9.46587E+01 -4.95530E+02 -3.70004E+00
 -1.30147E+03 -1.37650E+02 -1.35561E+03 -1.92005E+02 -1.85393E+01 -1.01572E+03 -4.46720E+02 -1.58331E+03
  2.33876E+03 -1.28180E+03  1.86257E+03  5.21132E+01  2.63159E+03  1.91295E+03  1.49986E+02  3.83443E+03
 -2.18368E+03  4.80435E+03 -4.25926E+03  3.02644E+03 -4.71319E+03 -3.30540E+02 -3.71615E+03 -2.68637E+03
 -1.71656E+03 -4.02148E+03  8.61989E+02 -3.41878E+03  2.59035E+03 -2.13904E+03  2.41481E+03  2.30658E+02
  1.57451E+03  1.33667E+03 -2.41091E+02  8.30681E+02 -5.98853E+02  1.02917E+02  9.08373E+01 -7.95522E+02
  1.08978E+03 -1.19197E+02  1.60524E+03  8.38524E+02  7.21203E+02  1.28118E+03  4.86905E+02  1.55740E+03
 -2.19085E+03  1.78480E+03 -2.36608E+03  1.22031E+02 -2.21143E+03 -1.37091E+03 -1.24508E+02 -2.94656E+03
  1.64060E+03 -2.57533E+03  2.11374E+03 -5.75919E+02  2.42216E+03  2.08747E+02  1.44748E+03  2.14695E+03
  4.08471E+02  2.43144E+03 -1.01681E+03  1.60999E+03 -1.38083E+03  1.13279E+03 -1.31959E+03  1.02258E+02
 -4.71730E+02 -2.07399E+02 -6.60509E+02  8.04992E+01 -1.44652E+03  1.37091E+02 -1.96818E+03 -2.89004E+02
 -2.17792E+03 -6.82917E+02 -5.54273E+02 -2.17824E+03  1.18715E+03 -3.11410E+03  1.71908E+03 -1.07836E+03
  2.26812E+03  1.39670E+02  9.54806E+02  1.45519E+03 -3.06818E+02  2.41698E+03 -1.62947E+03  1.71394E+03
