 $NMID ID='MM_0lb_SNR800_18hz_g40_18.RAW', FMTDAT='(8E13.5)'
 TRAMP=1., VOLUME=1. $END
  3.09608E+05  4.68584E+02  3.37359E+05  2.50164E+05  8.41834E+04  3.37197E+05 -1.32017E+05  2.50074E+05
 -1.89522E+05  8.24216E+04 -1.10658E+05 -3.26151E+04  1.56959E+03 -5.03584E+04  5.41772E+04  4.75200E+02
  3.51103E+04  5.31163E+04 -1.70124E+04  7.50284E+04 -6.01854E+04  6.24813E+04 -8.28481E+04  3.11892E+04
 -7.95549E+04 -1.12154E+04 -5.61260E+04 -5.01838E+04 -1.50093E+04 -6.81694E+04  2.66473E+04 -4.46722E+04
  3.88832E+04  4.10154E+03  1.57791E+04  4.67531E+04 -3.36019E+04  4.59080E+04 -6.49472E+04 -7.58284E+02
 -5.18785E+04 -5.59564E+04 -6.32448E+03 -7.49208E+04  3.28106E+04 -5.30129E+04  4.62853E+04 -1.60151E+04
  4.14983E+04  1.10439E+04  3.02794E+04  2.42512E+04  1.55756E+04  2.78886E+04 -4.80762E+03  2.67006E+04
 -2.16566E+04  1.28054E+04 -1.92586E+04 -4.34388E+03  4.03594E+03 -7.65923E+03  2.11228E+04  1.08289E+04
  7.35590E+03  3.28074E+04 -3.02307E+04  3.38839E+04 -6.09142E+04  2.15683E+03 -5.48792E+04 -4.08532E+04
 -1.23989E+04 -6.05945E+04  3.81581E+04 -4.30871E+04  5.51470E+04 -1.75078E+03  3.15493E+04  3.04480E+04
 -6.49248E+03  3.28661E+04 -2.81837E+04  1.30341E+04 -2.75022E+04 -5.54956E+03 -1.41459E+04 -1.01480E+04
 -7.37930E+03 -1.12631E+04 -8.06725E+02 -1.64709E+04  6.44668E+03 -2.25512E+04  1.48664E+04 -1.39745E+04
  1.24496E+04  4.27882E+03 -5.74953E+03  1.29188E+04 -1.93512E+04 -2.34993E+03 -8.05011E+03 -3.00468E+04
  2.05824E+04 -4.01494E+04  4.45441E+04 -1.83239E+04  4.16015E+04  1.80370E+04  1.40251E+04  4.13516E+04
 -1.50922E+04  3.09549E+04 -2.32606E+04  1.00364E+03 -8.14692E+03 -2.60920E+04  2.05726E+04 -3.10745E+04
  3.77558E+04 -7.13365E+03  3.09946E+04  2.26082E+04  1.51565E+04  4.21798E+04 -7.61484E+03  4.46243E+04
 -2.79673E+04  2.96195E+04 -3.71156E+04  8.36125E+03 -3.79451E+04 -1.50081E+04 -2.09030E+04 -3.40419E+04
  6.82870E+03 -3.37302E+04  2.89454E+04 -1.25353E+04  2.66951E+04  1.07171E+04  2.72016E+03  1.76533E+04
 -1.30989E+04  7.38863E+03 -9.50245E+03 -7.96147E+03  6.16498E+03 -1.01763E+04  1.72087E+04  6.52267E+03
  1.22698E+04  2.15660E+04 -6.62017E+03  2.31641E+04 -2.15103E+04  9.17615E+03 -2.47626E+04 -6.46898E+03
 -1.65656E+04 -1.61806E+04 -5.63837E+03 -1.66355E+04  3.86122E+03 -1.42193E+04  1.20571E+04 -1.37425E+04
  2.10648E+04 -1.13703E+04  2.78595E+04  1.08378E+03  2.13394E+04  1.61487E+04  4.12390E+03  3.20426E+04
 -1.58742E+04  2.73260E+04 -2.56677E+04  9.03724E+03 -1.96940E+04 -1.05188E+04 -4.06373E+03 -1.40307E+04
  2.74681E+03 -4.33207E+03 -2.52348E+03  5.17332E+03 -1.27776E+04  5.29665E+03 -1.31904E+04 -4.77980E+03
 -8.54340E+03 -1.53335E+04  4.19624E+03 -1.92175E+04  1.28253E+04 -1.38587E+04  1.43203E+04 -1.66135E+03
  8.68167E+03  1.08311E+04 -7.47630E+02  1.54231E+04 -1.02536E+04  8.69900E+03 -1.53405E+04 -3.49051E+03
 -1.15280E+04 -1.43340E+04 -1.35535E+03 -1.89218E+04  8.27945E+03 -1.50898E+04  1.59606E+04 -7.45175E+03
  1.43674E+04  1.05619E+03  1.01765E+04  3.61806E+03  5.12247E+03  6.08629E+02  7.30289E+03 -1.03253E+03
  1.35574E+04  2.84593E+03  1.43418E+04  1.26538E+04  8.77631E+03  2.44632E+04 -3.09706E+03  2.61148E+04
 -1.56019E+04  2.00427E+04 -2.41662E+04  9.46542E+03 -2.44937E+04 -1.97008E+03 -2.11316E+04 -1.43806E+04
 -9.96923E+03 -2.00940E+04  6.83226E+03 -1.87903E+04  1.64818E+04 -1.07793E+04  1.53337E+04  3.78657E+03
  6.53727E+03  1.10506E+04 -6.90575E+03  1.02449E+04 -1.33317E+04  2.45418E+03 -1.03549E+04 -8.10903E+03
 -1.94585E+02 -1.23298E+04  6.01998E+03 -9.31382E+03  7.58090E+03 -1.57283E+03  1.50703E+03  4.79907E+03
 -5.40156E+03  1.10722E+03 -3.55559E+03 -4.77568E+03  1.00144E+03 -9.99997E+03  7.69109E+03 -1.00635E+04
  1.20894E+04 -4.50354E+03  1.18283E+04  3.01190E+03  1.01936E+04  9.37675E+03  4.87254E+03  1.39844E+04
 -1.68390E+03  1.56882E+04 -9.52692E+03  9.84194E+03 -1.11572E+04  3.13277E+03 -8.54238E+03 -1.80789E+03
 -4.61475E+03 -3.05312E+03 -7.85216E+02  1.43369E+03 -2.04418E+03  2.00372E+03 -3.57082E+03  3.49416E+03
 -8.25685E+03 -5.00839E+02 -8.58320E+03 -7.13842E+03 -3.59007E+03 -1.14114E+04  3.20712E+03 -8.33664E+03
  7.10311E+03 -3.67318E+03  5.48695E+03  2.12354E+03  6.56107E+02  2.82912E+03 -3.20372E+03  9.90489E+01
 -3.17634E+03 -5.25190E+03 -8.68788E+02 -7.31716E+03  3.93045E+03 -7.83750E+03  1.01001E+04 -3.86888E+03
  1.16934E+04  7.74173E+02  8.90095E+03  6.39810E+03  1.66806E+03  8.65210E+03 -5.26820E+03  8.12879E+03
 -6.87838E+03  2.85000E+03 -3.69078E+03 -1.26819E+03  1.14911E+03 -1.89211E+03  4.73757E+03 -8.32906E+02
  4.13466E+03  3.40682E+03  9.37074E+02  6.42417E+03 -4.45665E+03  6.60688E+03 -7.81318E+03  1.46175E+03
 -4.92805E+03 -3.42739E+03  5.76064E+02 -7.20863E+03  3.49780E+03 -3.20738E+03  3.49820E+03  9.84390E+02
  4.34639E+02  3.34170E+03 -4.13045E+03  4.65844E+03 -4.84098E+03  2.61808E+03 -4.62287E+03 -1.02257E+03
 -3.05592E+03 -6.18787E+03  1.14786E+03 -6.91889E+03  6.03484E+03 -4.38293E+03  6.36321E+03  8.54403E+02
  4.76040E+03  5.27622E+03 -6.69897E+01  7.19121E+03 -4.90173E+03  4.10089E+03 -5.17240E+03 -3.83030E+02
 -5.68205E+03 -5.29146E+03 -1.20281E+03 -5.19185E+03  2.62884E+03 -4.76210E+03  2.99173E+03 -2.80597E+03
  2.72513E+03  1.48082E+02  1.10556E+02  1.09067E+03  5.33549E+02 -5.09855E+02  1.28786E+02 -1.99808E+03
  3.95666E+03 -7.62776E+02  5.52471E+03  5.94814E+02  5.26102E+03  2.98242E+03  5.08106E+03  7.50101E+03
 -1.27703E+03  8.57582E+03 -7.53365E+03  6.84844E+03 -1.00667E+04  8.60787E+02 -7.91431E+03 -2.62819E+03
 -4.43435E+03 -6.50326E+03 -2.74062E+02 -5.08452E+03  2.33110E+03 -2.19826E+03  1.82280E+03 -2.10741E+03
  1.13111E+03 -1.36194E+03  1.96515E+03 -2.46973E+03  3.47443E+03 -1.35186E+03  3.74800E+03  6.19777E+02
  4.20857E+03  1.31811E+03  1.12356E+03  3.53232E+03 -1.69811E+03  2.92686E+03 -4.44154E+03  2.45288E+03
 -5.00355E+03 -8.24039E+02 -1.81994E+03 -3.47976E+03  3.23044E+02 -4.85568E+03  3.29900E+03 -5.32762E+03
  5.36185E+03 -3.32330E+03  6.72822E+03  3.16452E+02  4.78932E+03  4.51919E+03  1.27536E+03  6.21228E+03
 -2.25294E+03  5.67550E+03 -3.27058E+03  1.84502E+03 -1.93737E+03 -1.01157E+03 -3.89142E+02 -7.02003E+02
 -3.38433E+02  2.86673E+02 -9.89343E+02  1.88825E+03 -2.92528E+03  1.01698E+03 -4.10340E+03 -3.96298E+02
 -1.76426E+03 -4.23985E+03  8.53759E+02 -4.76396E+03  2.99327E+03 -4.70947E+03  3.51859E+03 -1.26806E+03
  3.94423E+03  2.67300E+03  1.82158E+03  3.48313E+03 -7.32528E+02  4.63157E+03 -2.60798E+03  2.44278E+03
 -3.74956E+03  6.50593E+02 -3.63987E+03 -2.13934E+03 -7.17328E+01 -3.07493E+03  1.31663E+03 -2.57987E+03
  2.67404E+03 -1.53026E+03  1.52233E+03  4.39316E+02  6.28793E+02  1.65502E+03  9.95556E+02  3.70536E+02
  1.95804E+03  6.31831E+02  1.18555E+03  9.45619E+02  1.11784E+03  2.33242E+03  1.54044E+03  1.92713E+03
 -1.47192E+03  3.11373E+03 -2.37993E+03  4.19288E+03 -3.22556E+03  1.17652E+03 -4.23800E+03 -5.29084E+02
 -1.56838E+03 -3.98726E+03  6.46116E+02 -4.84917E+03  2.09715E+03 -2.57016E+03  3.07988E+03 -7.97233E+02
  2.71384E+03  1.67966E+03  2.52378E+02  2.28571E+03 -9.17263E+02  1.40866E+03 -9.24834E+02 -1.71517E+02
 -7.64299E+02 -1.64793E+03  1.06743E+03 -1.46602E+03  1.46162E+03 -1.14631E+03  1.20084E+03  2.42086E+02
  7.49117E+02  4.03117E+02  6.88333E+02 -3.79197E+02 -3.82006E+02  7.97014E+02  1.67243E+03 -2.27283E+02
 -1.85804E+02 -4.40359E+02  1.88615E+03  5.09354E+02  2.51421E+02  2.38870E+03 -2.89307E+02  3.16426E+03
 -1.68492E+03  1.13074E+03 -2.13407E+03  3.80641E+02 -2.22155E+03 -7.84817E+02 -3.86139E+02 -1.11091E+03
  2.65237E+02 -1.51450E+03  1.00196E+03 -5.33900E+02  6.34534E+02  1.48674E+03 -8.63607E+02  1.39124E+03
 -1.54131E+03  7.40650E+02 -1.25307E+03 -1.44278E+03 -8.16417E+02 -2.18439E+03  1.53972E+02 -1.56358E+03
  5.16123E+02 -6.67086E+02  9.31922E+02 -6.95100E+01  1.24173E+03  9.41953E+01  5.02514E+02  1.08761E+03
 -4.06493E+02  1.27516E+02 -8.03314E+02 -2.87937E+02  7.23331E+02 -9.00534E+02  1.91331E+03 -9.47885E+02
  1.21095E+03  1.37741E+02  2.86654E+03  8.45712E+02  1.16770E+03  1.80555E+03 -3.45338E+02  1.88409E+03
 -1.54093E+03  2.66332E+02 -1.42921E+03 -1.35689E+02 -8.51197E+02 -1.38811E+03 -3.86776E+01 -6.65997E+02
  1.58783E+03 -7.22168E+02  9.19791E+02  7.03263E+02  3.75200E+02  1.43643E+03  1.42277E+02  1.50446E+03
 -4.96218E+02  9.62849E+02 -7.66944E+02  1.50819E+02  2.53319E+02  3.71372E+02 -6.25161E+02  6.54199E+02
 -7.92345E+02  1.11770E+03 -1.86882E+03  4.65532E+02 -2.06231E+03  3.72011E+01 -2.61495E+03 -9.25115E+02
 -1.30284E+03 -2.65251E+03  4.65453E+02 -3.09454E+03  1.04086E+03 -2.67450E+03  3.02301E+03 -8.52707E+02
  2.88122E+03  1.23909E+02  1.09139E+03  1.63480E+03 -8.29000E+02  1.53107E+03 -6.52406E+02  1.42469E+03
 -1.34302E+03  9.31997E+02 -6.04391E+02 -2.49110E+02 -3.83012E+02  1.14580E+02 -8.59862E+02 -1.61108E+02
 -1.09525E+03  2.25882E+02 -1.09024E+03 -2.49946E+02  2.15866E+02 -7.86871E+02 -3.31939E+02 -1.19315E+03
  1.40446E+03 -8.96454E+02  4.28030E+02  3.59728E+02  1.17681E+03  1.14026E+03 -5.00516E+02  1.26797E+03
 -1.04565E+03  2.36697E+03 -1.98216E+03  1.41994E+03 -1.80958E+03 -1.09573E+02 -1.24203E+03 -1.45596E+03
 -9.30114E+02 -1.54894E+03  4.13737E+02 -1.35891E+03  7.36646E+02 -5.07710E+02  8.88240E+02  1.34648E+02
  6.19458E+02  2.60372E+02 -3.54704E+01  3.48333E+02 -4.94320E+02 -2.39575E+02 -1.00854E+02 -2.77585E+02
  6.02278E+02  6.40757E+01  3.08145E+02  2.61039E+02  2.15634E+02  5.89705E+02  4.96183E+02  6.36031E+02
 -4.51220E+02  6.13801E+02 -6.53722E+02  3.12485E+02 -6.58086E+02 -6.20018E+02  6.35822E+01 -1.36834E+03
  7.20132E+02 -8.54866E+02  7.48259E+02 -2.81825E+02  1.01348E+03 -8.49562E+02  6.03557E+02  1.12110E+03
  6.11870E+02  4.99850E+02 -2.03635E+02  4.88737E+02 -6.39000E+02  4.31298E+02 -6.99649E+02 -5.44376E+01
 -1.35928E+02 -1.76984E+02 -4.86033E+02  1.11515E+02 -7.90312E+02  3.07622E+02 -8.43805E+02 -2.89866E+02
 -1.03954E+03 -2.45822E+01 -4.03959E+02 -9.30557E+02  6.43201E+02 -1.59262E+03  9.40413E+02 -3.33463E+00
  7.19805E+02  2.81647E+01  3.94565E+00  3.91548E+02 -1.87326E+02  8.61773E+02 -6.01583E+02  6.03184E+02
