 $NMID ID='MM_0lb_SNR800_13hz_g60_23.RAW', FMTDAT='(8E13.5)'
 TRAMP=1., VOLUME=1. $END
  3.09599E+05  4.01076E+02  3.37692E+05  2.50620E+05  8.46595E+04  3.38329E+05 -1.32631E+05  2.51823E+05
 -1.90744E+05  8.35938E+04 -1.12181E+05 -3.22050E+04  5.18973E+02 -5.03298E+04  5.38657E+04 -4.29467E+02
  3.54427E+04  5.28953E+04 -1.66836E+04  7.58019E+04 -6.10923E+04  6.39406E+04 -8.49919E+04  3.26318E+04
 -8.19031E+04 -1.17951E+04 -5.78640E+04 -5.20190E+04 -1.49193E+04 -7.04164E+04  2.81020E+04 -4.63964E+04
  4.05763E+04  3.66174E+03  1.65170E+04  4.81955E+04 -3.47124E+04  4.77360E+04 -6.74664E+04  6.69778E+01
 -5.39945E+04 -5.73785E+04 -7.04513E+03 -7.81965E+04  3.47022E+04 -5.63108E+04  4.87936E+04 -1.78106E+04
  4.46021E+04  1.13053E+04  3.25033E+04  2.61330E+04  1.56570E+04  3.03453E+04 -5.32151E+03  2.74313E+04
 -2.19395E+04  1.21050E+04 -1.86134E+04 -5.63503E+03  6.23723E+03 -7.53047E+03  2.31562E+04  1.30549E+04
  6.98385E+03  3.65669E+04 -3.31651E+04  3.61731E+04 -6.44423E+04  2.19938E+03 -5.78505E+04 -4.36525E+04
 -1.24508E+04 -6.45565E+04  4.05838E+04 -4.68210E+04  5.98272E+04 -2.03649E+03  3.54683E+04  3.38843E+04
 -5.48655E+03  3.80661E+04 -3.07769E+04  1.75512E+04 -3.18348E+04 -3.90341E+03 -1.83001E+04 -1.17796E+04
 -9.11916E+03 -1.44778E+04 -5.96096E+02 -1.89805E+04  7.74707E+03 -2.30618E+04  1.55830E+04 -1.26001E+04
  1.07565E+04  5.65290E+03 -9.57281E+03  1.28170E+04 -2.22511E+04 -5.85596E+03 -8.31576E+03 -3.57284E+04
  2.39084E+04 -4.55960E+04  5.04567E+04 -2.01898E+04  4.69073E+04  2.02354E+04  1.65473E+04  4.56950E+04
 -1.64746E+04  3.51106E+04 -2.67115E+04  2.23639E+03 -1.07781E+04 -2.87489E+04  2.15033E+04 -3.55830E+04
  4.30886E+04 -1.00386E+04  3.81970E+04  2.42270E+04  1.95222E+04  4.87845E+04 -8.26816E+03  5.34166E+04
 -3.37495E+04  3.58830E+04 -4.49534E+04  1.02236E+04 -4.50683E+04 -1.75437E+04 -2.48795E+04 -3.97318E+04
  7.67266E+03 -3.96639E+04  3.26725E+04 -1.60580E+04  3.04146E+04  1.13166E+04  4.83631E+03  2.01481E+04
 -1.36487E+04  9.30287E+03 -1.10918E+04 -7.58707E+03  5.70909E+03 -1.13381E+04  1.83678E+04  5.95487E+03
  1.44851E+04  2.29407E+04 -5.93345E+03  2.66553E+04 -2.28083E+04  1.26373E+04 -2.95944E+04 -3.75986E+03
 -2.28918E+04 -1.80843E+04 -1.00698E+04 -2.25936E+04  4.21318E+03 -2.27494E+04  1.76607E+04 -2.06917E+04
  2.92238E+04 -1.32869E+04  3.52688E+04  3.79434E+03  2.54161E+04  2.19321E+04  4.57204E+03  3.86905E+04
 -1.87909E+04  3.19492E+04 -2.93712E+04  1.11329E+04 -2.17684E+04 -1.03483E+04 -4.65928E+03 -1.31844E+04
  1.23944E+03 -2.15579E+03 -5.91730E+03  7.38213E+03 -1.78924E+04  4.97386E+03 -1.80196E+04 -8.10792E+03
 -1.10588E+04 -2.07430E+04  5.71632E+03 -2.50918E+04  1.68429E+04 -1.79905E+04  2.00172E+04 -1.34430E+03
  1.32108E+04  1.47372E+04 -8.89211E+02  2.09607E+04 -1.44298E+04  1.18553E+04 -2.09380E+04 -3.94617E+03
 -1.53539E+04 -1.88296E+04 -1.92567E+03 -2.52907E+04  1.13441E+04 -2.07832E+04  2.10805E+04 -1.03646E+04
  1.96281E+04  5.81529E+01  1.37496E+04  4.74268E+03  7.65354E+03  1.01831E+03  1.05172E+04 -1.82785E+03
  1.89650E+04  2.95317E+03  2.22729E+04  1.68480E+04  1.47698E+04  3.35975E+04 -2.77495E+03  3.82741E+04
 -2.20062E+04  3.14818E+04 -3.59472E+04  1.61543E+04 -3.85117E+04 -2.75102E+03 -3.10202E+04 -2.19105E+04
 -1.32120E+04 -3.14873E+04  1.11670E+04 -2.81051E+04  2.41920E+04 -1.34676E+04  2.13151E+04  6.28236E+03
  7.71400E+03  1.59010E+04 -1.00044E+04  1.43003E+04 -1.75705E+04  2.54729E+03 -1.35891E+04 -1.13052E+04
 -1.75887E+01 -1.66157E+04  9.21284E+03 -1.27283E+04  1.13022E+04 -1.49872E+03  2.60367E+03  7.70843E+03
 -7.52996E+03  3.69587E+03 -7.04505E+03 -6.06241E+03 -7.13909E+02 -1.52570E+04  1.04035E+04 -1.64683E+04
  1.89023E+04 -8.80970E+03  2.11354E+04  3.49009E+03  1.86780E+04  1.54832E+04  8.83536E+03  2.39139E+04
 -4.68412E+03  2.59975E+04 -1.64404E+04  1.61035E+04 -1.86541E+04  3.20269E+03 -1.28907E+04 -4.64003E+03
 -5.67860E+03 -5.76612E+03 -8.44443E+02  6.49335E+02 -2.85731E+03  2.92915E+03 -6.07747E+03  5.11984E+03
 -1.22092E+04 -1.01757E+03 -1.28826E+04 -1.01780E+04 -5.14226E+03 -1.65739E+04  5.17147E+03 -1.33037E+04
  1.09276E+04 -5.77451E+03  7.81372E+03  3.57445E+03 -4.04179E+00  5.32236E+03 -6.53643E+03  4.99179E+01
 -5.69958E+03 -8.46726E+03 -9.42893E+02 -1.24672E+04  6.91107E+03 -1.30319E+04  1.61192E+04 -7.18542E+03
  1.88994E+04  1.74638E+03  1.39675E+04  1.12843E+04  2.79905E+03  1.50800E+04 -8.02666E+03  1.26766E+04
 -1.04669E+04  3.98659E+03 -5.18366E+03 -2.38540E+03  1.75213E+03 -3.15157E+03  6.84853E+03 -1.35002E+03
  5.99525E+03  5.57495E+03  9.48206E+02  1.01187E+04 -7.20860E+03  9.90199E+03 -1.24024E+04  2.44033E+03
 -8.61000E+03 -6.29257E+03  3.95086E+02 -1.10947E+04  6.91070E+03 -5.43484E+03  7.13454E+03  2.47254E+03
  1.17394E+03  7.47865E+03 -6.31444E+03  8.86540E+03 -1.02408E+04  4.11807E+03 -1.03746E+04 -3.42890E+03
 -6.13074E+03 -1.17131E+04  2.93462E+03 -1.38270E+04  1.15536E+04 -8.38564E+03  1.23464E+04  1.95261E+03
  8.02735E+03  1.01763E+04 -7.11228E+02  1.24235E+04 -8.87543E+03  6.92573E+03 -9.80549E+03 -1.12614E+03
 -8.91406E+03 -8.23507E+03 -1.51675E+03 -9.62787E+03  4.58838E+03 -7.60143E+03  5.87301E+03 -3.36833E+03
  3.83263E+03  1.01376E+03 -6.97780E+02  1.90742E+03 -3.05381E+02 -1.98467E+03  1.59787E+03 -5.06252E+03
  8.43069E+03 -3.41583E+03  1.14086E+04  1.47161E+03  1.13413E+04  7.40219E+03  8.12399E+03  1.50772E+04
 -3.45725E+03  1.74507E+04 -1.46258E+04  1.28903E+04 -1.92211E+04  2.51194E+03 -1.52584E+04 -6.43776E+03
 -7.75839E+03 -1.25178E+04 -1.63303E+02 -1.06621E+04  3.75213E+03 -5.52574E+03  3.63882E+03 -4.10374E+03
  2.78754E+03 -2.60629E+03  3.26375E+03 -3.31581E+03  4.98859E+03 -2.71671E+03  6.23417E+03 -2.98026E+02
  7.71986E+03  2.08833E+03  4.11055E+03  6.78623E+03 -1.64039E+03  7.43348E+03 -8.30437E+03  5.94259E+03
 -1.01331E+04 -1.56263E+03 -5.93459E+03 -7.01372E+03 -4.19985E+02 -1.09839E+04  6.07801E+03 -1.10080E+04
  1.09407E+04 -6.35754E+03  1.39161E+04  1.49134E+03  9.71038E+03  9.36912E+03  1.35303E+03  1.24095E+04
 -4.90243E+03  1.08970E+04 -7.36627E+03  3.61218E+03 -4.56458E+03 -1.38007E+03 -1.73151E+03 -1.53442E+03
 -8.57967E+02 -8.86790E-01 -1.45954E+03  2.73930E+03 -4.52845E+03  1.90425E+03 -7.13084E+03 -9.40153E+02
 -4.63888E+03 -7.39983E+03  6.99447E+02 -1.01110E+04  6.35160E+03 -9.26753E+03  9.83084E+03 -3.06156E+03
  9.71178E+03  4.96401E+03  4.31768E+03  8.66054E+03 -2.39963E+03  9.89807E+03 -6.63904E+03  6.20364E+03
 -8.90211E+03  4.73456E+02 -7.51966E+03 -5.55589E+03 -6.99845E+02 -8.18378E+03  4.34072E+03 -5.95755E+03
  6.34182E+03 -1.94959E+03  4.16012E+03  1.36184E+03  1.70818E+03  2.99676E+03  1.12943E+03  1.28770E+03
  2.59194E+03  7.31802E+02  2.46224E+03  1.55345E+03  2.88021E+03  3.56592E+03  2.39039E+03  5.03712E+03
 -2.43701E+03  7.12933E+03 -6.55091E+03  8.16988E+03 -9.30574E+03  1.78548E+03 -9.89552E+03 -3.41607E+03
 -4.81389E+03 -9.19017E+03  1.36192E+03 -1.04643E+04  5.66942E+03 -6.68338E+03  7.64262E+03 -2.10191E+03
  5.93595E+03  3.73609E+03  1.35051E+03  5.58657E+03 -2.49312E+03  3.55137E+03 -3.56408E+03 -6.87286E+02
 -2.01746E+03 -4.03626E+03  2.06614E+03 -4.05737E+03  3.77151E+03 -2.45311E+03  3.60348E+03  9.19377E+02
  2.49060E+03  1.68064E+03  6.26637E+02  8.96688E+02 -5.22393E+02  1.39999E+03  1.51522E+03 -3.88274E+02
  1.08066E+03 -1.79030E+02  3.77861E+03  1.56782E+03  1.96941E+03  5.01293E+03 -6.95018E+02  6.72949E+03
 -4.20001E+03  3.82946E+03 -5.62304E+03  9.63933E+02 -5.27689E+03 -2.11630E+03 -1.93011E+03 -3.65730E+03
  7.87262E+02 -3.82942E+03  2.29159E+03 -1.91441E+03  1.86736E+03  2.17125E+03 -1.14751E+03  2.48530E+03
 -3.75733E+03  1.72949E+03 -3.96042E+03 -2.24924E+03 -2.00669E+03 -5.08897E+03  4.72493E+02 -4.95942E+03
  2.62468E+03 -2.94180E+03  3.36835E+03 -5.68097E+02  3.22903E+03  8.96564E+02  7.79411E+02  2.37105E+03
 -1.70717E+03  6.80880E+02 -2.25560E+03 -1.30447E+03  9.29226E+02 -3.42746E+03  4.50879E+03 -2.90547E+03
  5.07907E+03  3.49662E+02  5.49394E+03  3.54166E+03  1.58182E+03  5.41899E+03 -1.77467E+03  5.44163E+03
 -4.73693E+03  1.73947E+03 -4.57622E+03 -1.11819E+03 -2.64606E+03 -3.62581E+03  9.40743E+02 -2.67854E+03
  3.57030E+03 -1.41241E+03  2.79824E+03  1.64334E+03  9.27078E+02  3.15198E+03 -1.80748E+02  2.88471E+03
 -1.54743E+03  1.88412E+03 -1.35083E+03  6.69825E+02 -4.82556E+02  5.76048E+02 -1.04431E+03  1.18771E+03
 -1.66212E+03  2.12740E+03 -3.83417E+03  1.70938E+03 -5.01131E+03  1.34496E+02 -6.32241E+03 -4.03082E+03
 -3.17672E+03 -6.96557E+03  1.24035E+03 -8.22933E+03  4.25399E+03 -6.66405E+03  7.96281E+03 -2.33581E+03
  6.99439E+03  1.47503E+03  3.95004E+03  5.01304E+03 -6.43638E+01  5.06457E+03 -2.39413E+03  3.96977E+03
 -3.44410E+03  1.69898E+03 -1.82660E+03 -1.07750E+03 -8.39354E+02 -1.73975E+02 -5.64513E+02  2.55490E+02
 -1.28343E+03  3.12369E+02 -1.07391E+03  5.87234E+01 -5.65237E+02 -1.41311E+03 -1.32982E+02 -2.01824E+03
  2.90927E+03 -1.45399E+03  3.09525E+03  2.61036E+02  3.64178E+03  3.03472E+03  4.96471E+02  5.31155E+03
 -2.64080E+03  6.42628E+03 -5.49685E+03  3.88713E+03 -5.92082E+03 -1.84218E+02 -4.43867E+03 -4.06509E+03
 -2.10266E+03 -4.73256E+03  1.23445E+03 -4.91432E+03  3.22585E+03 -2.33764E+03  3.26821E+03  5.22780E+02
  2.18833E+03  1.70647E+03  1.49386E+02  1.51439E+03 -8.77661E+02 -3.13164E+02 -1.07432E+02 -1.18143E+03
  1.47068E+03 -6.17498E+02  1.72024E+03  6.71669E+02  1.24718E+03  1.98564E+03  2.37683E+02  2.36559E+03
 -1.79807E+03  2.43857E+03 -2.95223E+03  1.17960E+02 -3.13249E+03 -2.09963E+03 -1.95429E+02 -4.05884E+03
  2.31563E+03 -3.29966E+03  3.10667E+03 -1.16753E+03  3.34196E+03  3.88468E+02  2.11124E+03  2.77204E+03
  5.78606E+02  3.26875E+03 -9.54058E+02  2.26395E+03 -2.08198E+03  1.91002E+03 -1.69863E+03  2.87686E+02
 -6.35723E+02 -3.99892E+02 -6.92766E+02  6.01568E+02 -1.55554E+03  4.09952E+02 -2.44156E+03 -5.88904E+02
 -2.40128E+03 -8.41687E+02 -8.59127E+02 -2.96849E+03  1.79102E+03 -3.63410E+03  2.89652E+03 -1.36013E+03
  2.72797E+03  7.62643E+02  1.40364E+03  2.10390E+03 -3.44543E+02  3.03641E+03 -2.28105E+03  1.94752E+03
