 $NMID ID='MM_0lb_SNR800_19hz_g60_25.RAW', FMTDAT='(8E13.5)'
 TRAMP=1., VOLUME=1. $END
  3.09951E+05  3.01910E+02  3.37761E+05  2.50905E+05  8.45045E+04  3.37685E+05 -1.32238E+05  2.50820E+05
 -1.89940E+05  8.30631E+04 -1.11507E+05 -3.26714E+04  1.00475E+03 -5.06241E+04  5.39206E+04  1.77030E+02
  3.53012E+04  5.27736E+04 -1.69799E+04  7.50941E+04 -6.06515E+04  6.30959E+04 -8.39882E+04  3.18663E+04
 -8.02423E+04 -1.14436E+04 -5.66046E+04 -5.12245E+04 -1.47001E+04 -6.90893E+04  2.73211E+04 -4.56626E+04
  3.97995E+04  3.71449E+03  1.60006E+04  4.74430E+04 -3.40691E+04  4.68654E+04 -6.61957E+04 -3.43179E+02
 -5.28447E+04 -5.65004E+04 -6.46070E+03 -7.64679E+04  3.34160E+04 -5.43436E+04  4.71168E+04 -1.66464E+04
  4.25399E+04  1.13228E+04  3.15144E+04  2.50397E+04  1.59518E+04  2.89316E+04 -4.80798E+03  2.68242E+04
 -2.17655E+04  1.24379E+04 -1.88025E+04 -4.60692E+03  5.09151E+03 -7.46747E+03  2.17086E+04  1.14828E+04
  7.39523E+03  3.42945E+04 -3.12196E+04  3.48906E+04 -6.22460E+04  2.06256E+03 -5.62129E+04 -4.16886E+04
 -1.25289E+04 -6.19304E+04  3.91042E+04 -4.45036E+04  5.68159E+04 -1.98409E+03  3.27024E+04  3.13925E+04
 -6.35560E+03  3.47344E+04 -2.88964E+04  1.45345E+04 -2.88192E+04 -5.03036E+03 -1.52027E+04 -1.05882E+04
 -7.70944E+03 -1.26964E+04 -1.14547E+03 -1.74965E+04  7.10611E+03 -2.26180E+04  1.51141E+04 -1.38392E+04
  1.16306E+04  4.96580E+03 -7.00567E+03  1.30143E+04 -2.02407E+04 -3.21499E+03 -8.20636E+03 -3.15508E+04
  2.15554E+04 -4.18904E+04  4.65147E+04 -1.89938E+04  4.34435E+04  1.88804E+04  1.46499E+04  4.26315E+04
 -1.56151E+04  3.20554E+04 -2.42493E+04  1.71043E+03 -8.87387E+03 -2.69817E+04  2.05314E+04 -3.23690E+04
  3.93654E+04 -7.75529E+03  3.30592E+04  2.30894E+04  1.65469E+04  4.43111E+04 -7.90926E+03  4.69849E+04
 -2.96271E+04  3.15721E+04 -3.91553E+04  8.88422E+03 -3.99118E+04 -1.57717E+04 -2.24382E+04 -3.58742E+04
  6.94109E+03 -3.54028E+04  2.99284E+04 -1.36973E+04  2.77718E+04  1.07018E+04  3.34037E+03  1.82347E+04
 -1.34193E+04  7.85372E+03 -1.00205E+04 -7.59337E+03  6.04472E+03 -9.99283E+03  1.73900E+04  6.21300E+03
  1.28318E+04  2.16785E+04 -6.66378E+03  2.37557E+04 -2.18079E+04  9.87029E+03 -2.60746E+04 -5.92453E+03
 -1.80063E+04 -1.67309E+04 -6.49891E+03 -1.81872E+04  3.87264E+03 -1.63223E+04  1.34943E+04 -1.56112E+04
  2.29865E+04 -1.20588E+04  2.95649E+04  1.78900E+03  2.20397E+04  1.76982E+04  4.09579E+03  3.38029E+04
 -1.65651E+04  2.84445E+04 -2.64399E+04  9.88174E+03 -1.99970E+04 -1.03184E+04 -4.16894E+03 -1.38925E+04
  2.39258E+03 -3.89511E+03 -3.49989E+03  5.65088E+03 -1.39891E+04  5.17609E+03 -1.40258E+04 -5.93450E+03
 -9.15430E+03 -1.67560E+04  4.68978E+03 -2.03053E+04  1.34557E+04 -1.45639E+04  1.55822E+04 -1.48156E+03
  9.72958E+03  1.16057E+04 -8.36400E+02  1.66859E+04 -1.10877E+04  9.35141E+03 -1.63351E+04 -3.52546E+03
 -1.20307E+04 -1.47998E+04 -1.31851E+03 -2.00192E+04  9.29235E+03 -1.63015E+04  1.71830E+04 -7.79767E+03
  1.54116E+04  3.88073E+02  1.11807E+04  3.81017E+03  5.51775E+03  7.21027E+02  8.08141E+03 -1.56196E+03
  1.49134E+04  2.53571E+03  1.59333E+04  1.33049E+04  9.91237E+03  2.62065E+04 -3.17892E+03  2.83900E+04
 -1.68825E+04  2.21291E+04 -2.58911E+04  1.06031E+04 -2.71100E+04 -1.93744E+03 -2.30213E+04 -1.52682E+04
 -1.05343E+04 -2.21403E+04  7.34553E+03 -2.00708E+04  1.77069E+04 -1.12205E+04  1.60282E+04  4.43582E+03
  6.70604E+03  1.19216E+04 -7.44243E+03  1.11374E+04 -1.37248E+04  3.00128E+03 -1.10176E+04 -8.26823E+03
 -4.60980E+02 -1.27160E+04  6.52078E+03 -9.52745E+03  8.48711E+03 -1.35750E+03  1.76409E+03  5.50297E+03
 -5.76406E+03  1.37193E+03 -3.85988E+03 -5.00235E+03  3.68277E+02 -1.09993E+04  8.27795E+03 -1.08547E+04
  1.28959E+04 -5.26226E+03  1.30658E+04  2.77030E+03  1.16140E+04  1.00212E+04  5.36021E+03  1.52751E+04
 -2.07881E+03  1.69831E+04 -1.01652E+04  1.08070E+04 -1.20495E+04  3.18135E+03 -8.79020E+03 -2.14554E+03
 -4.58645E+03 -3.66956E+03 -6.04757E+02  1.60710E+03 -2.04508E+03  2.41405E+03 -3.94210E+03  3.88508E+03
 -8.57346E+03 -6.33666E+02 -9.23472E+03 -7.34785E+03 -3.55293E+03 -1.18449E+04  3.70613E+03 -8.57806E+03
  7.33942E+03 -4.02551E+03  5.52351E+03  2.33939E+03  7.10881E+02  3.23065E+03 -3.63430E+03 -1.49658E+02
 -3.52399E+03 -5.49765E+03 -8.99917E+02 -7.32760E+03  4.21891E+03 -8.31056E+03  1.04849E+04 -4.21603E+03
  1.26257E+04  6.53968E+02  8.98625E+03  6.63997E+03  1.63465E+03  9.13450E+03 -5.58408E+03  8.78040E+03
 -7.13065E+03  2.76696E+03 -3.55006E+03 -1.40672E+03  1.49558E+03 -2.07445E+03  4.73500E+03 -9.44234E+02
  4.18821E+03  3.41104E+03  1.09745E+03  6.63880E+03 -4.98891E+03  6.66471E+03 -8.19229E+03  2.03087E+03
 -5.39794E+03 -3.64262E+03  4.35391E+02 -6.71272E+03  3.50375E+03 -3.44048E+03  3.66552E+03  1.09690E+03
  5.12120E+02  3.63061E+03 -4.15103E+03  4.96716E+03 -5.00531E+03  2.20133E+03 -4.41285E+03 -1.38435E+03
 -3.09086E+03 -6.17802E+03  1.15107E+03 -7.62790E+03  6.12295E+03 -4.89943E+03  6.71130E+03  1.19281E+03
  4.67873E+03  5.52318E+03  2.28283E+02  7.44909E+03 -5.21877E+03  4.45104E+03 -5.49011E+03 -4.58149E+02
 -5.70308E+03 -5.31146E+03 -1.52480E+03 -5.22136E+03  2.71051E+03 -4.64218E+03  3.13759E+03 -2.95006E+03
  2.61786E+03  3.42879E+02  2.12726E+02  9.59592E+02  5.39329E+02 -3.43221E+02  2.39883E+02 -2.00883E+03
  3.90174E+03 -6.60120E+02  5.86849E+03  1.00009E+03  5.84874E+03  2.97194E+03  5.34801E+03  7.01522E+03
 -1.18712E+03  8.46180E+03 -7.96963E+03  6.70661E+03 -9.89538E+03  1.32564E+03 -7.84905E+03 -2.51981E+03
 -4.35847E+03 -6.92899E+03 -3.94003E+02 -5.51543E+03  1.99500E+03 -2.20290E+03  1.92727E+03 -2.17310E+03
  1.26296E+03 -1.43081E+03  2.28553E+03 -2.15161E+03  3.85634E+03 -1.43105E+03  3.67055E+03  2.78183E+02
  4.48557E+03  1.23101E+03  1.29254E+03  3.39081E+03 -1.63281E+03  2.78287E+03 -4.24671E+03  2.38308E+03
 -5.15519E+03 -1.08866E+03 -1.83965E+03 -3.44865E+03  5.28880E+02 -4.83906E+03  2.97040E+03 -5.29093E+03
  5.34922E+03 -3.42501E+03  6.66055E+03  1.67450E+02  4.92832E+03  4.48516E+03  1.06456E+03  5.76158E+03
 -2.22041E+03  6.27581E+03 -3.19425E+03  1.84739E+03 -1.75073E+03 -8.69314E+02 -4.41294E+02 -5.92644E+02
 -1.95070E+02  2.38011E+02 -8.66923E+02  1.92804E+03 -2.58922E+03  9.62072E+02 -4.19478E+03 -2.58777E+02
 -1.61525E+03 -4.13328E+03  9.24345E+02 -4.74843E+03  2.78037E+03 -4.49822E+03  3.64945E+03 -1.03821E+03
  4.04741E+03  2.16424E+03  1.64711E+03  3.29305E+03 -7.43212E+02  4.24686E+03 -2.36699E+03  2.86654E+03
 -3.77260E+03  6.70386E+02 -3.27659E+03 -2.41027E+03 -2.29494E+02 -3.10609E+03  1.37684E+03 -2.43686E+03
  2.65528E+03 -1.38410E+03  1.48812E+03  4.17431E+02  3.96974E+02  1.42350E+03  6.37681E+02  3.25551E+02
  1.87085E+03  3.22393E+02  1.28532E+03  1.06953E+03  1.01039E+03  2.26219E+03  1.38062E+03  1.54107E+03
 -1.35782E+03  2.91123E+03 -2.48696E+03  4.02858E+03 -2.70086E+03  1.30038E+03 -4.03444E+03 -2.23610E+01
 -1.76677E+03 -3.80316E+03  3.69786E+02 -4.40379E+03  1.99940E+03 -2.22910E+03  3.03816E+03 -9.79441E+02
  2.16271E+03  1.80694E+03  5.23494E+02  2.18181E+03 -8.06777E+02  1.12719E+03 -8.50535E+02 -1.43501E+02
 -6.24204E+02 -1.42545E+03  1.24472E+03 -1.22718E+03  1.14718E+03 -9.91533E+02  1.31016E+03  2.46834E+02
  5.63641E+02  7.49935E+01  6.56604E+02 -2.17185E+02 -6.49459E+02  8.98000E+02  1.61347E+03  4.59046E+01
 -1.81599E+02 -9.28829E+01  1.68867E+03  7.22818E+02  2.89197E+02  2.27258E+03 -2.49461E+02  2.60133E+03
 -1.33839E+03  9.52383E+02 -1.54806E+03  3.76440E+02 -1.91036E+03 -5.48944E+02 -1.52364E+02 -8.03888E+02
  3.16532E+02 -1.45925E+03  8.10203E+02 -5.89454E+02  2.19649E+02  1.38099E+03 -6.13270E+02  1.28223E+03
 -1.20772E+03  6.73596E+02 -1.00330E+03 -1.48924E+03 -5.94168E+02 -1.92468E+03  2.68566E+02 -1.46442E+03
  1.50496E+02 -4.98543E+02  4.51727E+02  1.08442E+02  1.32707E+03 -2.17208E+02  3.62795E+02  1.01141E+03
 -5.98835E+02  1.05659E+02 -8.61144E+02 -3.71600E+02  6.52946E+02 -8.48523E+02  1.56909E+03 -7.62904E+02
  8.09266E+02 -2.49781E+01  2.52467E+03  5.89223E+02  8.93213E+02  1.17974E+03 -3.76456E+02  1.67399E+03
 -1.23454E+03 -7.06457E+01 -1.63287E+03 -1.98034E+02 -7.13529E+02 -1.12876E+03  3.78572E+02 -3.46585E+02
  1.67444E+03 -6.80223E+02  8.46358E+02  6.06831E+02  2.55548E+02  1.16556E+03  5.35661E+00  9.72837E+02
 -4.30372E+02  1.00017E+03 -3.83180E+02 -9.57559E+00  2.25514E+02  4.34360E+02 -6.61348E+02  6.33558E+02
 -4.80045E+02  1.21632E+03 -1.76296E+03  3.06142E+02 -1.25169E+03  1.86299E+02 -2.21506E+03 -8.28892E+02
 -7.20491E+02 -2.13557E+03  6.25789E+02 -2.42121E+03  1.02324E+03 -2.12495E+03  2.30910E+03 -7.83429E+02
  2.05025E+03 -1.03009E+02  6.97383E+02  1.20742E+03 -5.58094E+02  1.03293E+03 -8.45538E+02  1.27692E+03
 -7.94037E+02  7.35705E+02 -1.93654E+02 -2.49772E+02 -3.75026E+02  5.90214E+02 -5.66691E+02  3.52089E+02
 -9.04525E+02 -3.37658E+02 -7.88849E+02 -1.32082E+02  2.91196E+02 -4.02790E+02 -4.47988E+02 -9.42730E+02
  1.04126E+03 -3.06843E+02  8.95343E+01  4.43843E+02  1.04629E+03  5.26536E+02 -4.18484E+02  9.74775E+02
 -1.06182E+03  1.97719E+03 -1.42600E+03  9.23035E+02 -1.48338E+03 -2.62967E+02 -8.44728E+02 -1.04259E+03
 -7.16361E+02 -9.15426E+02  5.89517E+01 -9.44297E+02  5.40765E+02 -4.34625E+02  3.74943E+02  1.09189E+02
  7.73008E+02  2.08499E+01 -2.31239E+02  2.35894E+02 -1.16579E+02 -1.80895E+02 -1.49488E+02 -1.29669E+02
  1.74169E+02  2.17295E+02  1.76884E+02  5.52326E+02 -1.00488E+02  3.96190E+02  4.74169E+02 -1.08212E+02
 -3.22929E+02  3.49242E+02 -6.85941E+02 -2.85558E+01 -6.22720E+02 -2.59897E+02  3.18633E+01 -6.86208E+02
  5.45531E+02 -3.87101E+02  5.17857E+02  1.31136E+02  6.67642E+02 -7.30833E+02  2.09120E+02  8.20483E+02
  4.80616E+02  3.31935E+02  3.92642E+01  3.60061E+02 -3.81873E+02  5.50859E+02 -8.01924E+01  1.69534E+01
 -2.74142E+02  1.10205E+02 -4.07564E+02  2.02255E+02 -6.44025E+02  1.04065E+02 -5.61900E+02 -4.07634E+02
 -8.61101E+02  4.66591E+02 -3.48355E+02 -1.07400E+03  5.28630E+02 -1.44336E+03  3.42604E+02 -4.99619E+00
  4.36769E+02 -1.80199E+01 -6.14239E+02  1.63066E+02 -2.07313E+01  6.58783E+02 -1.20154E+02  5.53142E+02
