 $NMID ID='MM_0lb_SNR800_20hz_g45_94.RAW', FMTDAT='(8E13.5)'
 TRAMP=1., VOLUME=1. $END
  3.09604E+05  3.14569E+02  3.37530E+05  2.50457E+05  8.43776E+04  3.37139E+05 -1.32358E+05  2.50127E+05
 -1.89622E+05  8.22124E+04 -1.10647E+05 -3.27260E+04  1.74279E+03 -5.01239E+04  5.42549E+04  4.90872E+02
  3.48373E+04  5.26791E+04 -1.70339E+04  7.46399E+04 -6.02907E+04  6.22427E+04 -8.25332E+04  3.12374E+04
 -7.92347E+04 -1.09603E+04 -5.60291E+04 -4.95188E+04 -1.49435E+04 -6.77902E+04  2.65853E+04 -4.46467E+04
  3.87544E+04  3.79817E+03  1.53287E+04  4.66155E+04 -3.35122E+04  4.58725E+04 -6.50270E+04 -6.96481E+02
 -5.13966E+04 -5.57641E+04 -5.99176E+03 -7.45994E+04  3.30897E+04 -5.26409E+04  4.57567E+04 -1.59912E+04
  4.10583E+04  1.10244E+04  3.03154E+04  2.43768E+04  1.56856E+04  2.78271E+04 -4.70946E+03  2.68210E+04
 -2.17984E+04  1.27972E+04 -1.91460E+04 -4.12290E+03  4.06391E+03 -7.44642E+03  2.11097E+04  1.06675E+04
  7.50000E+03  3.24531E+04 -3.01158E+04  3.35476E+04 -6.01515E+04  2.18044E+03 -5.46397E+04 -4.05807E+04
 -1.22194E+04 -5.98656E+04  3.78318E+04 -4.24782E+04  5.43652E+04 -1.80900E+03  3.11158E+04  2.97384E+04
 -6.51265E+03  3.22174E+04 -2.77653E+04  1.23599E+04 -2.68929E+04 -5.56545E+03 -1.35631E+04 -9.76500E+03
 -6.82764E+03 -1.07186E+04 -1.19333E+03 -1.60870E+04  6.33056E+03 -2.23794E+04  1.51058E+04 -1.41553E+04
  1.24833E+04  3.80685E+03 -5.50889E+03  1.30240E+04 -1.88390E+04 -1.76351E+03 -7.78251E+03 -2.93338E+04
  2.01095E+04 -3.92668E+04  4.34701E+04 -1.82737E+04  4.08465E+04  1.78723E+04  1.37933E+04  4.09490E+04
 -1.50485E+04  3.02563E+04 -2.28754E+04  8.81901E+02 -8.00679E+03 -2.59781E+04  2.04316E+04 -3.01761E+04
  3.68124E+04 -6.74530E+03  3.00701E+04  2.21915E+04  1.43450E+04  4.13139E+04 -7.45952E+03  4.35267E+04
 -2.74763E+04  2.85158E+04 -3.58928E+04  7.56347E+03 -3.68970E+04 -1.45903E+04 -2.03245E+04 -3.31277E+04
  6.52405E+03 -3.30341E+04  2.82135E+04 -1.20906E+04  2.62348E+04  1.07441E+04  2.51037E+03  1.72489E+04
 -1.29027E+04  6.67174E+03 -9.40469E+03 -8.00766E+03  6.22534E+03 -1.01404E+04  1.71816E+04  6.46032E+03
  1.15948E+04  2.14845E+04 -6.86993E+03  2.27008E+04 -2.10412E+04  8.50541E+03 -2.43211E+04 -6.80240E+03
 -1.56052E+04 -1.59476E+04 -4.80259E+03 -1.53769E+04  3.68220E+03 -1.31037E+04  1.12803E+04 -1.31517E+04
  1.92662E+04 -1.13576E+04  2.65139E+04  9.51747E+02  2.04030E+04  1.50458E+04  3.82690E+03  3.10519E+04
 -1.55834E+04  2.66091E+04 -2.50278E+04  8.83421E+03 -1.96334E+04 -1.03998E+04 -3.83291E+03 -1.43199E+04
  3.09741E+03 -4.70220E+03 -2.01982E+03  5.12045E+03 -1.18342E+04  5.41342E+03 -1.23165E+04 -4.32605E+03
 -8.06759E+03 -1.42394E+04  4.22354E+03 -1.80466E+04  1.18319E+04 -1.31128E+04  1.34929E+04 -1.47969E+03
  8.10904E+03  9.83381E+03 -7.41977E+02  1.48315E+04 -9.57522E+03  8.04316E+03 -1.44409E+04 -2.92349E+03
 -1.06812E+04 -1.32002E+04 -1.16822E+03 -1.76827E+04  7.96425E+03 -1.43981E+04  1.51509E+04 -6.41774E+03
  1.35126E+04  8.40874E+02  9.74541E+03  3.55912E+03  4.76984E+03  4.48564E+02  6.82130E+03 -1.21139E+03
  1.28018E+04  2.84578E+03  1.34075E+04  1.21808E+04  7.96455E+03  2.30657E+04 -3.05760E+03  2.42078E+04
 -1.45784E+04  1.83906E+04 -2.20165E+04  8.31827E+03 -2.21831E+04 -1.73550E+03 -1.95145E+04 -1.28516E+04
 -9.40637E+03 -1.83427E+04  5.91672E+03 -1.75375E+04  1.51071E+04 -1.02021E+04  1.46381E+04  3.20922E+03
  6.33108E+03  1.01042E+04 -6.64162E+03  9.68618E+03 -1.24849E+04  2.63810E+03 -9.67551E+03 -7.41092E+03
 -1.50603E+01 -1.13416E+04  5.58392E+03 -8.97558E+03  7.14476E+03 -1.35197E+03  1.11458E+03  4.43863E+03
 -5.16150E+03  8.25530E+02 -3.12025E+03 -4.18639E+03  7.41632E+02 -9.28035E+03  7.40903E+03 -8.88101E+03
  1.08052E+04 -3.81895E+03  1.02764E+04  2.61287E+03  8.69411E+03  8.09777E+03  4.10898E+03  1.23478E+04
 -1.12306E+03  1.38592E+04 -8.25170E+03  9.00104E+03 -9.50464E+03  2.72423E+03 -7.54707E+03 -1.41187E+03
 -4.36706E+03 -2.69116E+03 -8.74945E+02  1.49635E+03 -2.07888E+03  1.97411E+03 -3.20652E+03  3.39229E+03
 -7.28540E+03 -5.38927E+02 -7.98266E+03 -6.67300E+03 -3.12189E+03 -1.04367E+04  3.11559E+03 -7.47836E+03
  6.48380E+03 -3.18049E+03  5.11027E+03  1.87463E+03  7.97972E+02  2.68295E+03 -2.90849E+03  1.22617E+01
 -2.76081E+03 -4.71463E+03 -9.01565E+02 -6.39252E+03  3.61393E+03 -6.93200E+03  8.62141E+03 -3.47358E+03
  1.05039E+04  2.47898E+02  7.92046E+03  5.28837E+03  1.52712E+03  7.44254E+03 -4.82792E+03  7.56844E+03
 -6.45893E+03  2.56814E+03 -3.15861E+03 -7.40537E+02  1.19191E+03 -1.80497E+03  4.37350E+03 -1.18289E+03
  3.66061E+03  3.04182E+03  9.82575E+02  5.56969E+03 -3.84876E+03  5.76218E+03 -6.84524E+03  1.60783E+03
 -4.14506E+03 -3.23824E+03  3.72199E+02 -6.00038E+03  3.21291E+03 -2.97627E+03  2.70040E+03  6.02386E+02
 -1.52643E+01  2.69086E+03 -3.70888E+03  4.10358E+03 -3.95850E+03  2.08003E+03 -3.54777E+03 -7.09601E+02
 -2.38500E+03 -4.94106E+03  6.74447E+02 -5.70016E+03  5.33479E+03 -3.97476E+03  5.42636E+03  9.11625E+02
  4.12764E+03  4.53281E+03  5.06380E+02  6.34714E+03 -4.31781E+03  3.71680E+03 -4.32232E+03 -2.56433E+02
 -5.23425E+03 -4.27002E+03 -1.39447E+03 -4.40060E+03  2.07634E+03 -3.94604E+03  2.36213E+03 -2.62714E+03
  2.55249E+03  1.90725E+01  3.58637E+01  1.27979E+03  6.74809E+02  2.26477E+02 -1.62501E+02 -1.28110E+03
  3.20795E+03 -2.07427E+02  4.37046E+03  3.94991E+02  4.63937E+03  2.20469E+03  5.06392E+03  5.97901E+03
 -9.57037E+02  7.06248E+03 -6.31910E+03  5.23034E+03 -8.27123E+03  9.50953E+02 -6.50600E+03 -1.96750E+03
 -3.71604E+03 -5.43628E+03 -3.33803E+02 -4.58858E+03  1.90042E+03 -1.48834E+03  1.19896E+03 -1.82269E+03
  1.12910E+03 -1.58115E+03  1.78917E+03 -2.13339E+03  3.40186E+03 -1.20536E+03  3.23044E+03  5.20727E+02
  3.83310E+03  9.82527E+02  6.06818E+02  2.77206E+03 -1.55642E+03  2.03283E+03 -3.73186E+03  2.18529E+03
 -3.93421E+03 -9.32223E+02 -1.38034E+03 -2.57244E+03  5.18448E+02 -3.86618E+03  2.69352E+03 -4.55931E+03
  4.22140E+03 -2.74303E+03  5.63095E+03  6.26462E+01  4.14427E+03  3.28605E+03  1.07197E+03  5.06274E+03
 -1.64772E+03  5.27433E+03 -2.63586E+03  1.62216E+03 -1.63576E+03 -9.21248E+02 -2.16997E+02 -5.81962E+02
 -2.99375E+02  6.22288E+02 -8.30256E+02  1.52251E+03 -2.12606E+03  1.03901E+03 -3.72222E+03 -3.36284E+02
 -1.06546E+03 -3.57578E+03  8.80978E+02 -3.93664E+03  2.18170E+03 -3.78641E+03  2.66194E+03 -6.72361E+02
  3.29280E+03  2.02712E+03  1.38017E+03  2.70371E+03 -5.26268E+02  3.66065E+03 -2.02984E+03  2.25629E+03
 -3.02441E+03  7.94301E+02 -2.72935E+03 -2.03380E+03 -3.50267E+02 -2.36255E+03  1.05236E+03 -1.84256E+03
  2.21795E+03 -1.26425E+03  1.12962E+03  1.77450E+02  3.33670E+02  1.43433E+03  6.85603E+02  6.89112E+02
  1.50038E+03  6.17463E+02  1.01011E+03  9.59679E+02  8.03998E+02  1.84007E+03  1.12931E+03  1.20725E+03
 -1.09142E+03  2.27201E+03 -1.91702E+03  3.29661E+03 -1.99097E+03  1.15636E+03 -3.23511E+03 -6.45578E+01
 -1.36918E+03 -2.72076E+03  3.61657E+02 -3.81621E+03  1.21067E+03 -1.71510E+03  2.59471E+03 -8.07722E+02
  1.96168E+03  1.43258E+03  1.21819E+02  1.63465E+03 -4.89416E+02  6.75311E+02 -4.69548E+02  3.13805E+01
 -4.81345E+02 -1.09435E+03  1.20796E+03 -9.67357E+02  7.44906E+02 -9.64014E+02  8.01781E+02  3.05712E+02
  4.95350E+02 -1.21910E+02  8.33744E+02 -4.44403E+02 -2.23105E+02  5.31510E+02  1.36558E+03 -3.34518E+02
 -1.52079E+02 -2.93591E+02  1.37201E+03  5.03450E+02  2.68082E+01  2.02459E+03 -1.98162E+02  2.07853E+03
 -1.28065E+03  4.92275E+02 -1.45395E+03  2.09592E+02 -1.67245E+03 -5.97893E+02  3.48612E+01 -6.32747E+02
  3.39344E+02 -9.22531E+02  7.21240E+02 -7.49030E+02  5.43411E+02  1.22384E+03 -5.88332E+02  9.35139E+02
 -1.13542E+03  7.25182E+02 -7.78874E+02 -1.17939E+03 -6.10536E+02 -1.86556E+03  1.66304E+02 -1.07684E+03
  1.26865E+02 -2.81913E+02  4.15735E+02  1.19375E+02  1.17051E+03 -2.68509E+02  3.20064E+02  1.20031E+03
 -1.31928E+01  8.57838E+01 -8.98594E+02 -2.32690E+01  5.70019E+02 -3.89256E+02  1.46472E+03 -5.55697E+02
  5.82015E+02  1.88159E+01  2.01115E+03  4.23156E+02  1.07167E+03  8.99304E+02 -3.46809E+00  1.45781E+03
 -8.96452E+02 -9.90152E+01 -8.70044E+02 -2.37360E+02 -5.42644E+02 -1.16973E+03  4.19566E+02  1.17889E+02
  1.21103E+03 -4.76729E+02  3.70885E+02  4.81120E+02 -4.23257E+01  9.27251E+02  1.09558E+02  9.27865E+02
 -1.43697E+02  8.39572E+02 -1.27212E+02  3.06369E+01  3.94330E+02  5.04522E+02 -9.17878E+02  4.45208E+02
 -5.53428E+02  6.65606E+02 -1.52701E+03  4.67959E+02 -1.17780E+03  6.49609E+01 -1.91591E+03 -5.94592E+02
 -8.85041E+02 -1.42310E+03  4.77404E+02 -1.97998E+03  6.26355E+02 -1.94693E+03  1.88437E+03 -8.05886E+02
  1.76455E+03 -4.55175E+02  4.87769E+02  1.25666E+03 -7.78070E+02  8.44973E+02 -2.92471E+02  1.28551E+03
 -8.54321E+02  5.85709E+02 -6.29151E+02 -6.56838E+01 -9.40861E+01  2.86341E+02 -5.08914E+02  1.20291E+02
 -1.05178E+03 -1.18164E+02 -6.35292E+02  1.37070E+02  3.33224E+02 -5.43229E+02 -4.33519E+02 -6.53508E+02
  1.14975E+03 -5.44216E+02  1.27062E+02  2.29904E+02  9.13751E+02  1.05083E+03 -4.15567E+02  8.80970E+02
 -7.03301E+02  1.89767E+03 -1.10368E+03  1.01879E+03 -1.25142E+03  8.79646E+01 -9.38057E+02 -8.51427E+02
 -7.22833E+02 -9.25028E+02  1.25184E+02 -5.65998E+02  2.79225E+02 -4.42969E+02  3.08484E+02  2.67827E+02
  4.25678E+02  1.37842E+02  8.50753E+01  3.88621E+01 -2.34272E+01 -1.21459E+02 -1.03033E+02 -3.98108E+02
  3.20091E+02  3.19107E+02  2.73743E+01  5.12283E+02  7.35377E+01  5.36036E+02  6.19571E+02  6.51657E+01
 -3.88004E+02  5.36378E+02 -1.90463E+02  2.58606E+02 -4.92619E+02  1.24394E+02 -3.90124E+00 -1.01768E+03
  1.21223E+02 -3.17086E+02  4.57120E+02  7.61462E+00  6.34642E+02 -7.79234E+02  4.39499E+02  5.42467E+02
  3.38122E+02  4.00683E+02  8.14100E+00  4.71719E+02 -5.20260E+02  8.09736E+02 -1.14682E+02  7.34905E+01
  1.79790E+02 -2.33677E+02 -6.88201E+02  1.21135E-01 -5.78614E+02  8.89866E+01 -6.26704E+02 -3.19473E+02
 -9.49228E+02  4.57638E+02 -3.24825E+02 -5.11094E+02  5.41624E+02 -1.07859E+03  6.80937E+02 -1.90150E+02
  5.56704E+02 -8.41526E+00 -2.46701E+02  1.11255E+02 -9.29272E+01  8.27046E+02 -2.31834E+02  4.79820E+02
