 $NMID ID='MM_0lb_SNR800_19hz_g50_72.RAW', FMTDAT='(8E13.5)'
 TRAMP=1., VOLUME=1. $END
  3.09646E+05  2.15109E+02  3.37379E+05  2.50613E+05  8.42516E+04  3.37095E+05 -1.32220E+05  2.50344E+05
 -1.89920E+05  8.26433E+04 -1.10887E+05 -3.27582E+04  1.46586E+03 -5.02905E+04  5.41530E+04  4.52367E+02
  3.53442E+04  5.28534E+04 -1.68080E+04  7.50128E+04 -6.03628E+04  6.26631E+04 -8.32353E+04  3.16013E+04
 -7.98071E+04 -1.09004E+04 -5.64167E+04 -5.03604E+04 -1.46759E+04 -6.84494E+04  2.69218E+04 -4.48567E+04
  3.90574E+04  4.04352E+03  1.57373E+04  4.69830E+04 -3.43088E+04  4.61803E+04 -6.53921E+04 -4.24012E+02
 -5.18684E+04 -5.60476E+04 -6.07331E+03 -7.52750E+04  3.32505E+04 -5.34450E+04  4.60187E+04 -1.65048E+04
  4.16549E+04  1.10557E+04  3.09763E+04  2.44281E+04  1.60392E+04  2.83447E+04 -4.72764E+03  2.69750E+04
 -2.16181E+04  1.27380E+04 -1.89430E+04 -4.54686E+03  4.24483E+03 -7.48754E+03  2.12552E+04  1.10620E+04
  7.31696E+03  3.34078E+04 -3.03959E+04  3.39855E+04 -6.10377E+04  2.17377E+03 -5.50052E+04 -4.12548E+04
 -1.22573E+04 -6.08267E+04  3.81626E+04 -4.35679E+04  5.58533E+04 -1.80429E+03  3.18142E+04  3.08503E+04
 -6.75542E+03  3.32097E+04 -2.83989E+04  1.33773E+04 -2.76121E+04 -5.40503E+03 -1.47282E+04 -1.04008E+04
 -7.41765E+03 -1.13866E+04 -1.09708E+03 -1.67202E+04  7.03687E+03 -2.27466E+04  1.50670E+04 -1.40449E+04
  1.22489E+04  4.37319E+03 -6.32771E+03  1.31843E+04 -1.94162E+04 -2.58412E+03 -8.15659E+03 -3.06542E+04
  2.06901E+04 -4.04194E+04  4.47657E+04 -1.86194E+04  4.21930E+04  1.82778E+04  1.40454E+04  4.16182E+04
 -1.54761E+04  3.11646E+04 -2.34679E+04  1.04496E+03 -8.57214E+03 -2.67666E+04  2.03669E+04 -3.14210E+04
  3.80581E+04 -7.39720E+03  3.16428E+04  2.29252E+04  1.54580E+04  4.26569E+04 -7.68227E+03  4.53277E+04
 -2.85592E+04  2.98770E+04 -3.73445E+04  8.28210E+03 -3.84965E+04 -1.50601E+04 -2.12887E+04 -3.45041E+04
  6.92686E+03 -3.43427E+04  2.89875E+04 -1.26269E+04  2.69094E+04  1.07386E+04  3.20661E+03  1.77989E+04
 -1.30903E+04  7.52457E+03 -9.56199E+03 -7.57067E+03  5.84478E+03 -1.00523E+04  1.74459E+04  6.35032E+03
  1.23103E+04  2.18999E+04 -6.53112E+03  2.34011E+04 -2.15778E+04  9.07040E+03 -2.50611E+04 -6.13933E+03
 -1.68864E+04 -1.63573E+04 -5.61802E+03 -1.69545E+04  3.89044E+03 -1.44793E+04  1.25457E+04 -1.45025E+04
  2.12833E+04 -1.19890E+04  2.83369E+04  1.43687E+03  2.13315E+04  1.63556E+04  4.06728E+03  3.23096E+04
 -1.58642E+04  2.76356E+04 -2.58368E+04  9.45544E+03 -1.96839E+04 -1.03009E+04 -3.73471E+03 -1.38646E+04
  2.85939E+03 -3.96972E+03 -2.47010E+03  5.32786E+03 -1.26792E+04  5.40092E+03 -1.32589E+04 -4.89180E+03
 -8.65405E+03 -1.53352E+04  4.26345E+03 -1.93956E+04  1.26771E+04 -1.40006E+04  1.43791E+04 -1.62364E+03
  9.27323E+03  1.08900E+04 -8.79384E+02  1.56277E+04 -1.02603E+04  8.69184E+03 -1.52691E+04 -3.36405E+03
 -1.13667E+04 -1.41916E+04 -1.52464E+03 -1.92554E+04  8.44591E+03 -1.52264E+04  1.61054E+04 -7.13186E+03
  1.44678E+04  7.55207E+02  1.02832E+04  3.48872E+03  4.97675E+03  3.65408E+02  7.67923E+03 -1.02208E+03
  1.37220E+04  2.65749E+03  1.46518E+04  1.23138E+04  9.09597E+03  2.45808E+04 -3.11928E+03  2.62777E+04
 -1.54851E+04  1.98961E+04 -2.42639E+04  9.31960E+03 -2.46265E+04 -1.74344E+03 -2.11740E+04 -1.42135E+04
 -1.00711E+04 -2.02768E+04  6.67546E+03 -1.91230E+04  1.65091E+04 -1.07552E+04  1.52481E+04  3.55190E+03
  6.67040E+03  1.08423E+04 -6.75465E+03  1.00616E+04 -1.34546E+04  2.93610E+03 -1.01494E+04 -7.99285E+03
 -1.57521E+02 -1.22331E+04  6.53080E+03 -9.40709E+03  7.77519E+03 -1.29231E+03  1.53542E+03  4.83315E+03
 -5.49278E+03  1.10614E+03 -3.62584E+03 -4.66594E+03  8.32466E+02 -1.00809E+04  7.61960E+03 -1.00284E+04
  1.21951E+04 -4.48078E+03  1.18671E+04  2.95550E+03  1.00392E+04  9.52340E+03  4.86918E+03  1.35062E+04
 -1.37012E+03  1.56803E+04 -9.36926E+03  1.03567E+04 -1.09275E+04  2.86610E+03 -8.22908E+03 -1.53357E+03
 -4.32042E+03 -3.49120E+03 -8.79602E+02  1.44441E+03 -1.88075E+03  1.95888E+03 -3.53148E+03  3.31521E+03
 -7.96782E+03 -6.42163E+02 -8.65905E+03 -7.04225E+03 -3.29019E+03 -1.15053E+04  3.52680E+03 -8.18267E+03
  6.91666E+03 -3.60375E+03  5.06186E+03  2.25426E+03  6.21746E+02  2.87610E+03 -3.31916E+03 -2.89650E+02
 -3.50595E+03 -5.01920E+03 -8.09903E+02 -7.05357E+03  3.89973E+03 -7.92419E+03  9.67146E+03 -4.02635E+03
  1.13956E+04  4.97454E+02  8.55415E+03  6.06550E+03  1.56809E+03  8.21340E+03 -5.18662E+03  8.24320E+03
 -6.52443E+03  2.82139E+03 -3.51194E+03 -1.17376E+03  1.24415E+03 -1.89447E+03  4.61424E+03 -7.21481E+02
  3.71589E+03  3.12508E+03  1.17259E+03  6.21104E+03 -4.19805E+03  6.22556E+03 -7.93099E+03  1.86777E+03
 -4.72598E+03 -3.64570E+03  3.04143E+01 -6.50599E+03  3.31598E+03 -3.22416E+03  3.33404E+03  7.50928E+02
  3.08331E+02  3.20121E+03 -3.92524E+03  4.50910E+03 -4.69223E+03  2.37076E+03 -4.04961E+03 -9.89192E+02
 -2.91837E+03 -5.86261E+03  1.38903E+03 -6.70868E+03  5.70980E+03 -4.76252E+03  6.36192E+03  7.83143E+02
  4.42801E+03  5.05309E+03  1.22084E+02  6.97486E+03 -4.61819E+03  4.31283E+03 -5.03814E+03 -3.82150E+02
 -5.60680E+03 -4.81814E+03 -1.33102E+03 -4.88384E+03  2.70299E+03 -4.78285E+03  3.06873E+03 -2.91403E+03
  2.62963E+03  3.67814E+02  1.98311E+02  1.07671E+03  8.16601E+02 -4.95109E+01  2.33131E+02 -1.83466E+03
  3.89119E+03 -6.52241E+02  4.98550E+03  7.07382E+02  5.14496E+03  2.76692E+03  5.36815E+03  6.64906E+03
 -9.56160E+02  7.78041E+03 -7.21724E+03  5.86031E+03 -9.51631E+03  1.26135E+03 -7.59438E+03 -2.50751E+03
 -3.68405E+03 -6.24330E+03 -3.02049E+02 -4.68891E+03  2.01876E+03 -1.83897E+03  1.64068E+03 -2.07027E+03
  1.02484E+03 -1.59024E+03  2.33233E+03 -2.31965E+03  3.60673E+03 -1.27618E+03  3.61814E+03  6.42044E+02
  4.04032E+03  1.30929E+03  9.50866E+02  3.32935E+03 -1.50796E+03  2.57041E+03 -4.23240E+03  2.56590E+03
 -4.84435E+03 -9.99147E+02 -1.66239E+03 -3.36351E+03  5.34210E+02 -4.61969E+03  2.91968E+03 -4.85616E+03
  4.68287E+03 -3.20700E+03  6.15875E+03  7.26007E+01  4.90857E+03  4.03082E+03  1.25390E+03  5.47138E+03
 -1.93761E+03  5.55034E+03 -3.09778E+03  1.78712E+03 -1.91771E+03 -1.13527E+03 -2.14620E+02 -5.30572E+02
 -4.71474E+02  1.92518E+02 -8.94862E+02  1.82484E+03 -2.60462E+03  1.09392E+03 -3.65389E+03 -1.85829E+02
 -1.56703E+03 -3.92260E+03  8.53078E+02 -4.17132E+03  2.63294E+03 -4.24503E+03  3.33766E+03 -1.07461E+03
  3.69184E+03  2.19641E+03  1.71131E+03  3.01782E+03 -6.41152E+02  4.05681E+03 -2.32910E+03  2.33623E+03
 -3.64836E+03  5.52828E+02 -3.09365E+03 -2.35039E+03 -1.61024E+02 -2.96425E+03  1.62097E+03 -2.34159E+03
  2.58386E+03 -1.42865E+03  1.88869E+03  7.28123E+02  3.36344E+02  1.57623E+03  8.46872E+02  3.81300E+02
  1.41441E+03  4.32478E+02  1.27336E+03  6.25886E+02  9.84946E+02  2.21700E+03  1.28807E+03  1.49738E+03
 -1.50764E+03  2.56613E+03 -2.36182E+03  3.78374E+03 -2.87761E+03  1.00101E+03 -3.96133E+03 -7.09082E+01
 -1.40692E+03 -3.27207E+03  6.18733E+02 -4.44375E+03  1.75686E+03 -2.25066E+03  2.65224E+03 -8.57817E+02
  2.37056E+03  1.43150E+03  4.27154E+02  2.16737E+03 -4.09773E+02  1.20252E+03 -1.10322E+03 -1.89063E+02
 -7.61314E+02 -1.27913E+03  1.23127E+03 -1.32533E+03  1.41305E+03 -9.82150E+02  1.10815E+03  6.62827E+02
  4.01022E+02  3.11165E+02  6.10352E+02 -1.72810E+02 -2.19704E+02  6.15286E+02  1.64143E+03 -4.49546E+02
 -1.36658E+02 -2.75225E+02  1.71359E+03  9.61941E+02  3.95731E+02  2.24884E+03 -3.71998E+02  2.64187E+03
 -1.60890E+03  1.02956E+03 -1.86042E+03  2.85164E+02 -1.94498E+03 -6.49435E+02  2.05215E+02 -7.12591E+02
  3.65581E+02 -1.23331E+03  6.29607E+02 -5.39639E+02  4.83816E+02  1.14932E+03 -1.01781E+03  1.09468E+03
 -1.44672E+03  6.65326E+02 -9.54481E+02 -1.19589E+03 -3.01210E+02 -2.10339E+03  3.28422E+02 -1.48849E+03
  2.71200E+02 -2.51007E+02  4.98335E+02  1.15584E+02  8.49815E+02 -1.65157E+02  5.69334E+02  1.16081E+03
 -2.83813E+02 -6.38426E+01 -7.97631E+02 -2.55391E+01  7.04741E+02 -7.56947E+02  1.87443E+03 -6.93684E+02
  1.11347E+03  1.27265E+02  2.43687E+03  5.05978E+02  1.15540E+03  1.37358E+03 -2.02287E+02  1.26082E+03
 -1.36409E+03 -2.85089E+01 -1.04936E+03  1.44460E+01 -6.62798E+02 -1.22831E+03  2.36655E+02 -1.05873E+02
  1.53680E+03 -5.12394E+02  4.36400E+02  6.49804E+02 -4.72336E+01  1.12068E+03  2.21669E+02  8.57381E+02
 -3.85205E+02  1.06770E+03 -3.79275E+02 -2.26593E+02  6.48066E+00  3.67231E+02 -5.99551E+02  7.43095E+02
 -5.18841E+02  1.01332E+03 -1.57039E+03  2.39255E+02 -1.44192E+03  6.91866E+01 -2.19887E+03 -9.14720E+02
 -7.53989E+02 -1.75328E+03  5.45135E+02 -2.46844E+03  8.32739E+02 -1.99887E+03  2.77908E+03 -6.99855E+02
  2.03469E+03 -1.82903E+02  9.64051E+02  1.36737E+03 -5.17060E+02  1.24872E+03 -4.77932E+02  9.35305E+02
 -7.46768E+02  8.00633E+02 -3.36802E+02 -5.57296E+02 -3.38594E+02  5.25888E+02 -6.48027E+02  1.04290E+01
 -1.08932E+03  3.09252E+01 -5.90525E+02 -1.62017E+02  2.19755E+02 -8.03669E+02 -3.18754E+02 -7.00582E+02
  1.29509E+03 -8.44671E+02  2.66398E+02 -1.74065E+01  8.95338E+02  8.25614E+02 -5.30929E+02  8.72495E+02
 -9.28833E+02  2.05440E+03 -1.51336E+03  1.12396E+03 -1.74635E+03 -3.27499E+02 -9.65569E+02 -1.12469E+03
 -9.99732E+02 -9.40892E+02  7.17983E+01 -6.84075E+02  3.99337E+02 -5.25815E+02  4.30742E+02  4.77798E+02
  5.27451E+02  1.46095E+02  9.88130E+01  3.04776E+02 -1.86553E+02  6.32337E+00 -7.26974E+01 -3.13291E+01
  5.39885E+02  2.03851E+02  2.52051E+02  4.48937E+02  1.45813E+02  3.70519E+02  4.44326E+02  1.49969E+02
 -3.31918E+02  3.48461E+02 -5.43522E+02  1.75680E+02 -6.31067E+02 -4.57050E+02  2.41762E+01 -1.16918E+03
  2.64231E+02 -5.75004E+02  2.07071E+02 -2.17796E+02  8.65457E+02 -5.69037E+02  2.12870E+02  8.10489E+02
  1.40515E+02  4.34065E+02 -2.67874E+02  6.62913E+02 -4.73924E+02  6.45380E+02 -2.04941E+02  1.72213E+02
 -1.79322E+02  6.36224E+01 -3.74871E+02  1.23834E+02 -3.85535E+02 -1.21451E+02 -5.62780E+02 -3.30590E+02
 -5.97996E+02  6.06829E+02 -2.52498E+02 -7.87375E+02  5.36167E+02 -1.56607E+03  5.98880E+02  8.38227E+00
  4.62298E+02 -1.61888E+02 -4.74351E+02  2.19236E+02  4.29810E+01  6.34084E+02 -1.93383E+02  6.97558E+02
