 $NMID ID='MM_0lb_SNR800_16hz_g50_30.RAW', FMTDAT='(8E13.5)'
 TRAMP=1., VOLUME=1. $END
  3.09684E+05  5.60208E+02  3.37538E+05  2.50629E+05  8.43893E+04  3.37701E+05 -1.32476E+05  2.50699E+05
 -1.89750E+05  8.28093E+04 -1.11217E+05 -3.26326E+04  7.71904E+02 -5.06036E+04  5.36443E+04  1.17606E+02
  3.50954E+04  5.28975E+04 -1.71591E+04  7.52009E+04 -6.09567E+04  6.30356E+04 -8.37127E+04  3.17255E+04
 -8.07509E+04 -1.13699E+04 -5.65607E+04 -5.08544E+04 -1.50342E+04 -6.90070E+04  2.71435E+04 -4.55499E+04
  3.97302E+04  4.05080E+03  1.60691E+04  4.77049E+04 -3.43201E+04  4.67984E+04 -6.63089E+04 -4.08749E+02
 -5.29782E+04 -5.66335E+04 -6.57502E+03 -7.67464E+04  3.35571E+04 -5.46589E+04  4.72800E+04 -1.67492E+04
  4.29107E+04  1.12992E+04  3.17739E+04  2.51671E+04  1.56560E+04  2.91050E+04 -5.19755E+03  2.67751E+04
 -2.22238E+04  1.24968E+04 -1.86853E+04 -4.56357E+03  5.22685E+03 -7.70580E+03  2.19367E+04  1.17181E+04
  7.25683E+03  3.44024E+04 -3.16658E+04  3.49694E+04 -6.22878E+04  2.27508E+03 -5.65905E+04 -4.22035E+04
 -1.24518E+04 -6.24811E+04  3.91918E+04 -4.48134E+04  5.74289E+04 -2.06108E+03  3.32386E+04  3.13781E+04
 -6.12169E+03  3.47849E+04 -2.93076E+04  1.50579E+04 -2.95493E+04 -4.86577E+03 -1.60099E+04 -1.06256E+04
 -7.97922E+03 -1.25194E+04 -7.09088E+02 -1.75645E+04  7.11709E+03 -2.27350E+04  1.52186E+04 -1.35807E+04
  1.18721E+04  5.01763E+03 -7.30979E+03  1.28218E+04 -2.05912E+04 -3.82113E+03 -8.28420E+03 -3.24069E+04
  2.21296E+04 -4.23259E+04  4.67585E+04 -1.92911E+04  4.37968E+04  1.89734E+04  1.52063E+04  4.30595E+04
 -1.56971E+04  3.25639E+04 -2.45209E+04  1.36328E+03 -9.33139E+03 -2.73773E+04  2.09095E+04 -3.24630E+04
  3.97666E+04 -8.44008E+03  3.41021E+04  2.33496E+04  1.72519E+04  4.48942E+04 -7.88492E+03  4.83293E+04
 -3.08561E+04  3.22588E+04 -3.97282E+04  9.28318E+03 -4.09159E+04 -1.59765E+04 -2.27568E+04 -3.68542E+04
  6.97447E+03 -3.65264E+04  3.06910E+04 -1.39730E+04  2.83017E+04  1.08793E+04  3.65885E+03  1.85687E+04
 -1.32338E+04  8.01419E+03 -1.02932E+04 -7.88281E+03  6.17152E+03 -1.05430E+04  1.77477E+04  6.12378E+03
  1.28896E+04  2.21259E+04 -6.22480E+03  2.42553E+04 -2.19767E+04  1.06896E+04 -2.69999E+04 -5.19134E+03
 -1.91833E+04 -1.67723E+04 -7.13022E+03 -1.88386E+04  4.04790E+03 -1.78444E+04  1.43372E+04 -1.69550E+04
  2.39361E+04 -1.25797E+04  3.07027E+04  1.96910E+03  2.27789E+04  1.85692E+04  4.24867E+03  3.50063E+04
 -1.71089E+04  2.93553E+04 -2.72165E+04  9.78204E+03 -2.04877E+04 -1.05794E+04 -4.31849E+03 -1.35571E+04
  2.12007E+03 -3.46187E+03 -3.98443E+03  6.19526E+03 -1.47145E+04  5.13487E+03 -1.49073E+04 -6.15938E+03
 -9.40366E+03 -1.78232E+04  4.66940E+03 -2.15930E+04  1.41825E+04 -1.53367E+04  1.65179E+04 -1.49654E+03
  1.04063E+04  1.18462E+04 -9.94875E+02  1.77187E+04 -1.21318E+04  9.89463E+03 -1.76200E+04 -3.73785E+03
 -1.32146E+04 -1.58128E+04 -1.73437E+03 -2.12046E+04  9.61580E+03 -1.76306E+04  1.78941E+04 -8.49934E+03
  1.67354E+04  6.98424E+02  1.17240E+04  4.13146E+03  6.20470E+03  6.66396E+02  8.93382E+03 -1.54905E+03
  1.60954E+04  2.69363E+03  1.75108E+04  1.43104E+04  1.11633E+04  2.79204E+04 -3.05119E+03  3.05445E+04
 -1.82358E+04  2.43227E+04 -2.87724E+04  1.22535E+04 -3.00935E+04 -1.88233E+03 -2.48729E+04 -1.72926E+04
 -1.12305E+04 -2.46383E+04  8.54902E+03 -2.26468E+04  1.91115E+04 -1.20219E+04  1.76132E+04  4.49355E+03
  6.61649E+03  1.28031E+04 -8.31133E+03  1.17621E+04 -1.47338E+04  2.65018E+03 -1.18242E+04 -9.02377E+03
  1.73521E+02 -1.39852E+04  6.93905E+03 -1.04620E+04  9.09178E+03 -1.43016E+03  1.91558E+03  5.74446E+03
 -6.44369E+03  2.20045E+03 -5.15197E+03 -5.06924E+03 -2.82305E+01 -1.21549E+04  8.85800E+03 -1.25591E+04
  1.49104E+04 -6.22544E+03  1.55344E+04  2.80799E+03  1.30352E+04  1.16174E+04  6.01451E+03  1.77082E+04
 -2.45685E+03  1.94363E+04 -1.22781E+04  1.20523E+04 -1.39934E+04  3.11628E+03 -1.01943E+04 -2.99784E+03
 -5.05045E+03 -4.20376E+03 -3.22052E+02  1.31265E+03 -2.28568E+03  2.35562E+03 -4.70109E+03  3.95333E+03
 -9.45322E+03 -5.43461E+02 -1.03063E+04 -8.43858E+03 -4.22070E+03 -1.34524E+04  4.22777E+03 -9.98186E+03
  8.51905E+03 -4.32728E+03  6.39519E+03  2.52766E+03  6.82723E+02  3.73369E+03 -4.31012E+03 -3.39536E+02
 -4.49116E+03 -6.49804E+03 -6.25346E+02 -9.23873E+03  5.33590E+03 -9.74919E+03  1.21735E+04 -4.89799E+03
  1.44689E+04  1.00552E+03  1.06440E+04  8.16876E+03  2.01648E+03  1.12592E+04 -6.28605E+03  1.01457E+04
 -8.26742E+03  3.21244E+03 -4.10833E+03 -2.07072E+03  1.51851E+03 -2.34620E+03  5.60948E+03 -1.23197E+03
  4.88327E+03  4.09130E+03  1.06847E+03  7.72061E+03 -5.48524E+03  7.93630E+03 -9.43094E+03  1.99184E+03
 -5.89344E+03 -4.37651E+03  3.11234E+02 -8.30494E+03  4.87735E+03 -3.84718E+03  5.07672E+03  1.58623E+03
  7.08355E+02  4.83526E+03 -5.14438E+03  6.29134E+03 -6.88864E+03  2.86733E+03 -6.44259E+03 -2.05125E+03
 -3.69859E+03 -8.04866E+03  1.65524E+03 -9.38897E+03  8.08558E+03 -5.90808E+03  8.62987E+03  1.57257E+03
  5.64378E+03  6.96232E+03 -3.28447E+02  9.09930E+03 -6.47409E+03  4.76235E+03 -6.85323E+03 -6.21067E+02
 -7.23707E+03 -6.31740E+03 -1.61298E+03 -6.19430E+03  3.24416E+03 -5.56748E+03  3.77947E+03 -2.95877E+03
  3.35372E+03  6.76106E+02  6.14148E+01  1.31425E+03  2.81149E+02 -6.34828E+02  6.63651E+02 -3.16421E+03
  5.65755E+03 -1.51323E+03  7.40440E+03  7.84751E+02  7.67445E+03  4.44749E+03  6.12279E+03  1.00583E+04
 -2.08758E+03  1.15251E+04 -9.98918E+03  8.71435E+03 -1.29745E+04  1.62134E+03 -1.04102E+04 -3.70210E+03
 -5.07331E+03 -8.56559E+03 -4.94638E+02 -6.87904E+03  2.74375E+03 -3.29100E+03  2.11729E+03 -2.56608E+03
  1.73988E+03 -1.58881E+03  2.45539E+03 -2.76505E+03  3.80352E+03 -1.71514E+03  4.29609E+03  2.20057E+02
  5.76843E+03  1.45641E+03  1.92408E+03  4.47770E+03 -1.48534E+03  4.53493E+03 -5.87736E+03  3.88568E+03
 -6.71181E+03 -9.54894E+02 -2.95114E+03 -4.59593E+03  2.38995E+02 -6.81970E+03  4.33072E+03 -7.13140E+03
  7.14295E+03 -4.33562E+03  8.85479E+03  8.24813E+02  6.65208E+03  5.98687E+03  1.36482E+03  8.01573E+03
 -3.02388E+03  7.60652E+03 -4.35648E+03  2.40984E+03 -2.83812E+03 -1.02188E+03 -1.01250E+03 -6.74360E+02
 -6.90582E+02  2.45543E+02 -1.09334E+03  2.24390E+03 -3.11191E+03  1.38916E+03 -5.40884E+03 -3.76341E+02
 -2.72285E+03 -4.89343E+03  5.59150E+02 -6.58682E+03  4.01595E+03 -5.97213E+03  5.62936E+03 -1.75753E+03
  5.73015E+03  2.81421E+03  2.51130E+03  4.99698E+03 -9.40167E+02  6.15005E+03 -4.06988E+03  3.79649E+03
 -5.87935E+03  5.98256E+02 -4.56093E+03 -3.43835E+03 -3.71320E+02 -4.74059E+03  2.48570E+03 -3.60249E+03
  4.11316E+03 -1.60903E+03  2.29754E+03  8.68122E+02  7.34601E+02  1.97518E+03  8.70709E+02  8.28442E+02
  1.71116E+03  6.69337E+02  1.41298E+03  1.01396E+03  1.38978E+03  2.65672E+03  1.83621E+03  2.58057E+03
 -1.31310E+03  4.40311E+03 -3.82842E+03  5.20999E+03 -5.06418E+03  1.62578E+03 -6.32772E+03 -1.33230E+03
 -2.81561E+03 -5.54783E+03  8.59575E+02 -6.88814E+03  3.13216E+03 -3.80052E+03  4.46249E+03 -1.42075E+03
  3.67163E+03  2.13573E+03  7.15828E+02  3.30751E+03 -1.35061E+03  2.03023E+03 -1.58179E+03 -3.48585E+02
 -1.13105E+03 -2.08357E+03  1.51789E+03 -2.39470E+03  2.25669E+03 -1.35638E+03  2.23094E+03  3.59249E+02
  1.41594E+03  5.70399E+02  7.46888E+02  4.47748E+02 -3.83841E+02  9.31109E+02  1.38379E+03 -7.37875E+02
  3.35297E+02 -4.95672E+02  2.30790E+03  8.42181E+02  9.57573E+02  2.88636E+03 -6.32566E+02  4.01966E+03
 -2.41419E+03  1.69237E+03 -3.23087E+03  8.82558E+02 -3.34992E+03 -1.49978E+03 -6.65370E+02 -1.82967E+03
  1.87411E+02 -1.98742E+03  1.83480E+03 -9.76360E+02  8.71278E+02  1.46711E+03 -8.67389E+02  1.57266E+03
 -2.12168E+03  9.07657E+02 -2.19578E+03 -1.68132E+03 -1.19111E+03 -2.89288E+03  8.04760E+01 -2.84478E+03
  1.13307E+03 -1.04445E+03  1.49186E+03  4.94763E-01  1.94358E+03  2.74340E+02  2.94573E+02  1.82042E+03
 -7.98658E+02  1.89509E+01 -1.44062E+03 -3.44090E+02  1.04864E+03 -1.67042E+03  2.82369E+03 -1.57673E+03
  2.05627E+03  4.54614E+02  4.06917E+03  1.40280E+03  1.12183E+03  2.70310E+03 -7.21393E+02  2.83356E+03
 -2.27387E+03  7.98549E+02 -2.53329E+03 -5.88131E+02 -1.46118E+03 -2.12309E+03  2.40853E+02 -1.39656E+03
  1.88579E+03 -8.74961E+02  1.48459E+03  9.25763E+02  2.48528E+02  2.25778E+03  2.00195E+02  1.72086E+03
 -6.31799E+02  1.20493E+03 -1.08695E+03  1.94891E+02 -2.77619E+02  6.19660E+02 -8.18885E+02  5.51911E+02
 -8.21811E+02  1.46243E+03 -2.50700E+03  9.08054E+02 -2.99088E+03  3.01967E+02 -3.60104E+03 -1.82340E+03
 -1.79148E+03 -3.67431E+03  9.24822E+02 -4.34301E+03  2.02732E+03 -3.58041E+03  4.09316E+03 -1.66783E+03
  3.94867E+03  4.36009E+01  2.13425E+03  2.35719E+03 -2.70978E+02  2.63039E+03 -9.27558E+02  2.18253E+03
 -1.49743E+03  9.79340E+02 -6.97299E+02 -3.29099E+02 -7.07933E+02  2.71693E+02 -7.64386E+02  3.36932E+01
 -1.10670E+03 -9.58368E+01 -1.00237E+03  1.52184E+02 -6.87038E+01 -9.23387E+02 -1.22949E+02 -1.32287E+03
  1.52622E+03 -1.05194E+03  1.06335E+03  1.42078E+02  2.20829E+03  1.51246E+03 -2.18744E+02  2.72990E+03
 -1.60204E+03  3.22483E+03 -2.55010E+03  2.13520E+03 -3.15880E+03 -1.40006E+02 -2.26507E+03 -2.22706E+03
 -1.20803E+03 -2.49807E+03  4.50576E+02 -2.21822E+03  1.71772E+03 -1.14448E+03  1.34503E+03  2.18630E+02
  9.82394E+02  3.60597E+02  2.33019E+01  4.71291E+02 -6.84471E+02  7.17717E+01 -1.21358E+02 -4.80411E+02
  9.88491E+02 -3.03693E+02  6.34930E+02  6.82049E+02  5.66605E+02  1.18275E+03  4.59364E+02  9.44874E+02
 -8.59563E+02  1.11831E+03 -1.06087E+03 -8.22422E+01 -1.60583E+03 -9.06899E+02  1.95396E+02 -1.91006E+03
  1.10093E+03 -1.69664E+03  1.46134E+03 -1.33507E+02  1.71243E+03 -1.72796E+02  1.04795E+03  1.36829E+03
  7.68393E+02  1.42556E+03 -6.56599E+02  8.65367E+02 -1.10680E+03  9.65909E+02 -6.36088E+02  9.09337E+01
 -2.16076E+02  8.57566E+01 -6.34051E+02  4.12874E+02 -1.21369E+03  4.24193E+02 -1.40289E+03 -3.32135E+02
 -1.59332E+03  1.92562E+01 -6.95739E+02 -1.38671E+03  1.16314E+03 -2.02503E+03  1.44198E+03 -6.44734E+02
  1.35264E+03  2.39507E+02  1.73214E+02  6.51475E+02 -1.42424E+02  1.28029E+03 -9.17795E+02  7.53105E+02
