 $NMID ID='MM_0lb_SNR800_8hz_g50_85.RAW', FMTDAT='(8E13.5)'
 TRAMP=1., VOLUME=1. $END
  3.09933E+05  3.74529E+02  3.37817E+05  2.50678E+05  8.49419E+04  3.38814E+05 -1.32751E+05  2.51596E+05
 -1.90977E+05  8.39207E+04 -1.12427E+05 -3.24596E+04  5.58104E+02 -5.06986E+04  5.35822E+04 -5.79291E+02
  3.63749E+04  5.27811E+04 -1.66878E+04  7.61808E+04 -6.15843E+04  6.45305E+04 -8.53904E+04  3.22898E+04
 -8.25018E+04 -1.16529E+04 -5.86312E+04 -5.22955E+04 -1.50471E+04 -7.18599E+04  2.83704E+04 -4.70890E+04
  4.15798E+04  4.22897E+03  1.66792E+04  4.87729E+04 -3.48780E+04  4.84909E+04 -6.82018E+04  2.60835E+02
 -5.51255E+04 -5.83456E+04 -7.62108E+03 -7.95773E+04  3.51965E+04 -5.74590E+04  5.00290E+04 -1.88760E+04
  4.61075E+04  1.19066E+04  3.30863E+04  2.70083E+04  1.59426E+04  3.08784E+04 -6.10778E+03  2.82497E+04
 -2.25858E+04  1.21355E+04 -1.83009E+04 -5.25825E+03  7.27747E+03 -7.49397E+03  2.37424E+04  1.43628E+04
  7.28926E+03  3.85483E+04 -3.40260E+04  3.75807E+04 -6.63131E+04  2.37279E+03 -5.91556E+04 -4.50688E+04
 -1.28443E+04 -6.62462E+04  4.21069E+04 -4.75566E+04  6.16109E+04 -2.72679E+03  3.68828E+04  3.44256E+04
 -5.47114E+03  4.01515E+04 -3.22735E+04  1.94685E+04 -3.34742E+04 -2.90942E+03 -1.98220E+04 -1.21798E+04
 -9.88765E+03 -1.57955E+04 -2.00685E+02 -1.99685E+04  8.36975E+03 -2.37959E+04  1.56341E+04 -1.22742E+04
  1.05017E+04  6.02058E+03 -1.05831E+04  1.29956E+04 -2.35702E+04 -6.96303E+03 -9.14650E+03 -3.79060E+04
  2.53910E+04 -4.81363E+04  5.30600E+04 -2.11613E+04  4.91849E+04  2.06018E+04  1.73600E+04  4.78267E+04
 -1.65638E+04  3.64919E+04 -2.78498E+04  2.54132E+03 -1.21114E+04 -3.01366E+04  2.14605E+04 -3.77587E+04
  4.51722E+04 -1.10693E+04  4.13196E+04  2.47971E+04  2.20747E+04  5.13761E+04 -8.76579E+03  5.73681E+04
 -3.56664E+04  3.93081E+04 -4.87744E+04  1.15994E+04 -4.82585E+04 -1.92379E+04 -2.66330E+04 -4.23505E+04
  7.62978E+03 -4.30519E+04  3.47550E+04 -1.74086E+04  3.29202E+04  1.12358E+04  5.43081E+03  2.11659E+04
 -1.42763E+04  1.01183E+04 -1.16939E+04 -7.56890E+03  5.73212E+03 -1.17848E+04  1.91243E+04  5.61322E+03
  1.50790E+04  2.25640E+04 -4.87659E+03  2.74211E+04 -2.42072E+04  1.54549E+04 -3.21035E+04 -2.69247E+03
 -2.64305E+04 -1.87909E+04 -1.27163E+04 -2.56851E+04  4.66908E+03 -2.69956E+04  2.05766E+04 -2.37866E+04
  3.30358E+04 -1.42379E+04  3.94873E+04  5.09741E+03  2.76903E+04  2.54711E+04  4.19575E+03  4.26910E+04
 -2.04013E+04  3.48753E+04 -3.11773E+04  1.20725E+04 -2.27137E+04 -1.02053E+04 -5.34477E+03 -1.32088E+04
  7.16299E+02 -8.67552E+02 -8.05651E+03  8.73235E+03 -2.09800E+04  5.27048E+03 -2.10849E+04 -9.88714E+03
 -1.27119E+04 -2.40744E+04  6.28790E+03 -2.91058E+04  1.92393E+04 -2.05637E+04  2.37704E+04 -1.52120E+03
  1.50196E+04  1.67903E+04 -9.91676E+02  2.41426E+04 -1.72140E+04  1.32618E+04 -2.47981E+04 -4.75961E+03
 -1.78208E+04 -2.17429E+04 -1.90129E+03 -2.92482E+04  1.28828E+04 -2.46553E+04  2.41469E+04 -1.25970E+04
  2.30696E+04 -7.99477E+02  1.64574E+04  5.03614E+03  9.17599E+03  1.62873E+03  1.29795E+04 -2.33509E+03
  2.32466E+04  3.30857E+03  2.66044E+04  1.83180E+04  1.84234E+04  3.91638E+04 -2.74745E+03  4.63562E+04
 -2.69900E+04  3.87908E+04 -4.36838E+04  2.02438E+04 -4.74841E+04 -3.43674E+03 -3.80587E+04 -2.73576E+04
 -1.48769E+04 -3.96106E+04  1.36494E+04 -3.43530E+04  2.96005E+04 -1.58522E+04  2.49512E+04  8.27008E+03
  8.56892E+03  2.02486E+04 -1.19396E+04  1.66186E+04 -2.07352E+04  2.64410E+03 -1.61681E+04 -1.34995E+04
 -6.20361E+02 -2.02596E+04  1.10298E+04 -1.52622E+04  1.42248E+04 -1.29330E+03  3.43998E+03  9.05087E+03
 -8.91208E+03  4.38707E+03 -1.02184E+04 -6.98876E+03 -1.85652E+03 -1.89080E+04  1.22353E+04 -2.10204E+04
  2.41744E+04 -1.20380E+04  2.78937E+04  3.44668E+03  2.46999E+04  1.95632E+04  1.14937E+04  3.12742E+04
 -6.11522E+03  3.33228E+04 -2.18653E+04  2.05498E+04 -2.42069E+04  4.19266E+03 -1.63421E+04 -6.21463E+03
 -6.94300E+03 -7.84768E+03 -4.48804E+02  2.69260E+02 -3.40227E+03  3.85897E+03 -7.80158E+03  5.90533E+03
 -1.48470E+04 -1.27938E+03 -1.54805E+04 -1.23322E+04 -6.21426E+03 -2.08255E+04  6.76097E+03 -1.64279E+04
  1.36778E+04 -6.51661E+03  9.40437E+03  4.75084E+03 -6.66942E+02  6.48673E+03 -8.31614E+03 -3.63733E+01
 -8.29543E+03 -1.11305E+04 -9.04550E+02 -1.67113E+04  9.54485E+03 -1.73367E+04  2.18067E+04 -9.17391E+03
  2.47855E+04  3.16498E+03  1.81284E+04  1.53675E+04  3.77794E+03  2.06009E+04 -1.02325E+04  1.60726E+04
 -1.39841E+04  4.67539E+03 -7.28990E+03 -3.96027E+03  1.82420E+03 -4.75517E+03  8.48971E+03 -1.45441E+03
  8.38122E+03  7.18997E+03  8.75022E+02  1.39003E+04 -9.97434E+03  1.24744E+04 -1.67264E+04  2.89218E+03
 -1.14393E+04 -8.83214E+03 -5.20408E+01 -1.45575E+04  9.38562E+03 -7.62701E+03  1.04770E+04  3.85552E+03
  2.46381E+03  1.10772E+04 -8.63686E+03  1.25899E+04 -1.46502E+04  5.64672E+03 -1.54358E+04 -5.60753E+03
 -8.81919E+03 -1.72705E+04  4.20599E+03 -2.01849E+04  1.70424E+04 -1.14343E+04  1.81821E+04  3.53384E+03
  1.09444E+04  1.43996E+04 -1.75233E+03  1.70674E+04 -1.24073E+04  9.27788E+03 -1.41119E+04 -1.50519E+03
 -1.19808E+04 -1.12068E+04 -1.79176E+03 -1.30099E+04  6.89778E+03 -1.01792E+04  8.48053E+03 -3.96235E+03
  5.25439E+03  2.30730E+03 -1.11017E+03  1.94563E+03 -1.22602E+03 -3.54810E+03  3.14987E+03 -8.46759E+03
  1.27295E+04 -5.20869E+03  1.80495E+04  2.14948E+03  1.71220E+04  1.21659E+04  1.07917E+04  2.31556E+04
 -5.54632E+03  2.63763E+04 -2.18523E+04  1.93677E+04 -2.83483E+04  3.62678E+03 -2.26356E+04 -9.73764E+03
 -1.14401E+04 -1.84302E+04 -4.12258E+02 -1.63073E+04  5.23183E+03 -9.30920E+03  5.85032E+03 -5.79690E+03
  3.94502E+03 -3.49756E+03  4.23967E+03 -4.02923E+03  6.27371E+03 -3.98095E+03  9.02940E+03 -1.53353E+03
  1.18436E+04  2.26039E+03  6.57611E+03  1.06496E+04 -2.38545E+03  1.27955E+04 -1.27796E+04  9.57627E+03
 -1.59658E+04 -1.30940E+03 -1.07987E+04 -1.12282E+04 -1.50765E+03 -1.78361E+04  9.38702E+03 -1.79936E+04
  1.83189E+04 -9.29853E+03  2.20785E+04  3.08235E+03  1.45005E+04  1.50759E+04  2.60024E+03  1.97709E+04
 -7.88497E+03  1.57230E+04 -1.17337E+04  5.40155E+03 -8.01159E+03 -1.67161E+03 -3.37769E+03 -2.69335E+03
 -1.99747E+03 -1.43081E+02 -2.18040E+03  3.35952E+03 -6.86347E+03  2.18689E+03 -1.08808E+04 -1.66674E+03
 -8.41115E+03 -1.11448E+04 -2.97764E+02 -1.58797E+04  9.98193E+03 -1.53227E+04  1.67908E+04 -4.41545E+03
  1.66879E+04  7.71174E+03  8.11756E+03  1.43451E+04 -3.91292E+03  1.68007E+04 -1.24434E+04  1.00355E+04
 -1.59835E+04  2.55083E+02 -1.18921E+04 -1.00144E+04 -1.25318E+03 -1.40432E+04  7.62297E+03 -1.05160E+04
  1.03241E+04 -2.98607E+03  6.94747E+03  3.03440E+03  2.39582E+03  4.71838E+03  1.69961E+03  2.08112E+03
  2.97172E+03  1.29019E+03  4.16259E+03  1.62855E+03  5.42575E+03  5.26165E+03  4.14294E+03  9.31524E+03
 -3.31380E+03  1.32731E+04 -1.17338E+04  1.33521E+04 -1.74869E+04  3.37364E+03 -1.77373E+04 -7.69489E+03
 -8.18504E+03 -1.71783E+04  2.58665E+03 -1.89628E+04  1.08592E+04 -1.21393E+04  1.46973E+04 -3.30370E+03
  1.09619E+04  6.58701E+03  2.14591E+03  1.02065E+04 -4.89066E+03  6.46023E+03 -7.34489E+03 -8.09787E+02
 -3.75750E+03 -7.92960E+03  4.19848E+03 -7.38364E+03  7.54973E+03 -3.64795E+03  6.72295E+03  1.31721E+03
  4.05627E+03  3.39541E+03  1.39903E+03  3.02993E+03 -6.38556E+02  2.44428E+03  1.97884E+03 -5.05118E+02
  3.10422E+03 -8.69018E+02  7.22916E+03  3.29233E+03  4.17768E+03  9.53129E+03 -1.41465E+03  1.20476E+04
 -7.92273E+03  7.88527E+03 -1.12142E+04  2.36428E+03 -9.87704E+03 -4.00625E+03 -4.04074E+03 -6.55227E+03
  6.67481E+02 -6.99019E+03  4.01374E+03 -3.00837E+03  3.87430E+03  3.21040E+03 -1.53219E+03  5.85917E+03
 -7.59612E+03  3.49033E+03 -8.50378E+03 -3.74039E+03 -4.85994E+03 -9.77585E+03  1.63178E+03 -9.96584E+03
  5.97131E+03 -5.58077E+03  7.65839E+03 -1.27626E+03  6.09543E+03  2.77041E+03  5.83615E+02  5.13761E+03
 -3.19383E+03  1.33984E+03 -3.90446E+03 -3.77031E+03  1.33881E+03 -7.74428E+03  8.76336E+03 -6.41922E+03
  1.13202E+04  4.52502E+02  1.06352E+04  7.63782E+03  3.38768E+03  1.23866E+04 -4.32940E+03  1.10522E+04
 -9.64919E+03  4.76935E+03 -1.03594E+04 -1.46598E+03 -5.50288E+03 -7.42691E+03  1.46625E+03 -7.29310E+03
  7.18119E+03 -3.48083E+03  6.18072E+03  2.97745E+03  2.29548E+03  6.52310E+03 -1.28814E+03  5.87961E+03
 -2.83422E+03  3.55136E+03 -2.42811E+03  9.74599E+02 -1.26863E+03  8.96403E+02 -1.80668E+03  2.33067E+03
 -2.92880E+03  4.37383E+03 -7.76922E+03  3.97161E+03 -1.14401E+04  4.91744E+02 -1.33725E+04 -8.02199E+03
 -7.02626E+03 -1.55797E+04  2.74210E+03 -1.80660E+04  1.16697E+04 -1.43540E+04  1.72705E+04 -5.17121E+03
  1.57022E+04  3.74347E+03  9.97027E+03  1.11411E+04  8.10187E+02  1.21009E+04 -4.55666E+03  9.32122E+03
 -6.74955E+03  3.40428E+03 -4.18668E+03 -1.10272E+03 -1.78970E+03 -1.28000E+03 -3.82152E+02 -1.27633E+02
 -1.88611E+03  5.49974E+02 -2.70569E+03 -9.64171E+02 -1.25654E+03 -2.89430E+03  5.01859E+02 -4.77335E+03
  5.61074E+03 -4.12232E+03  7.58331E+03  6.09072E+02  8.82391E+03  6.74883E+03  2.29218E+03  1.27933E+04
 -5.80379E+03  1.39898E+04 -1.33732E+04  8.14411E+03 -1.55395E+04 -1.35408E+03 -1.16320E+04 -9.44013E+03
 -4.68881E+03 -1.30535E+04  3.28025E+03 -1.19816E+04  8.31131E+03 -6.17856E+03  8.28397E+03 -3.91962E+01
  4.18445E+03  4.55800E+03 -4.98612E+02  3.68122E+03 -2.34449E+03  9.43407E+00  2.46951E+02 -3.61106E+03
  4.21491E+03 -1.96052E+03  4.97135E+03  1.53605E+03  3.64070E+03  5.08322E+03  2.59031E+01  6.79260E+03
 -5.44085E+03  6.25618E+03 -8.70760E+03  5.71335E+02 -7.72397E+03 -6.06154E+03 -1.22931E+03 -1.07884E+04
  6.21133E+03 -9.23114E+03  1.00416E+04 -2.54383E+03  1.00907E+04  2.42002E+03  5.80264E+03  7.83343E+03
  1.08156E+03  8.82997E+03 -3.25764E+03  6.74553E+03 -5.61451E+03  3.81204E+03 -4.90538E+03  1.22084E+02
 -2.46459E+03 -8.18818E+01 -2.42676E+03  1.48214E+03 -4.91664E+03  1.39906E+03 -6.78476E+03 -1.02085E+03
 -6.43997E+03 -4.77129E+03 -1.71281E+03 -8.62033E+03  3.87446E+03 -9.39755E+03  7.49004E+03 -4.21474E+03
  8.80158E+03  7.05730E+02  4.96045E+03  6.24131E+03 -4.02602E+02  8.88970E+03 -6.65015E+03  5.56459E+03
