 $NMID ID='MM_0lb_SNR800_13hz_g50_87.RAW', FMTDAT='(8E13.5)'
 TRAMP=1., VOLUME=1. $END
  3.09776E+05  3.76955E+02  3.37828E+05  2.50371E+05  8.49185E+04  3.38101E+05 -1.32473E+05  2.51486E+05
 -1.90628E+05  8.32137E+04 -1.11629E+05 -3.26403E+04  7.72130E+02 -5.06328E+04  5.40756E+04 -2.08119E+02
  3.53012E+04  5.29818E+04 -1.66907E+04  7.54761E+04 -6.09076E+04  6.36140E+04 -8.46092E+04  3.20634E+04
 -8.16370E+04 -1.15178E+04 -5.76442E+04 -5.15228E+04 -1.52546E+04 -6.97296E+04  2.76395E+04 -4.62423E+04
  4.02772E+04  3.73264E+03  1.61768E+04  4.80824E+04 -3.44811E+04  4.72477E+04 -6.69759E+04 -4.10911E+02
 -5.35742E+04 -5.70714E+04 -6.84174E+03 -7.72221E+04  3.39310E+04 -5.56570E+04  4.83602E+04 -1.78160E+04
  4.38932E+04  1.16973E+04  3.17765E+04  2.57077E+04  1.60117E+04  2.98144E+04 -5.02969E+03  2.73061E+04
 -2.21119E+04  1.24601E+04 -1.82008E+04 -5.35792E+03  6.01166E+03 -7.35951E+03  2.26540E+04  1.23674E+04
  6.83146E+03  3.56556E+04 -3.23329E+04  3.57089E+04 -6.38587E+04  2.26574E+03 -5.77920E+04 -4.33877E+04
 -1.23561E+04 -6.37079E+04  3.96909E+04 -4.56166E+04  5.86503E+04 -1.90270E+03  3.50025E+04  3.27235E+04
 -6.04720E+03  3.69365E+04 -3.07867E+04  1.66431E+04 -3.08090E+04 -4.07063E+03 -1.74044E+04 -1.12471E+04
 -8.71511E+03 -1.36526E+04 -7.16971E+02 -1.86427E+04  7.54944E+03 -2.31647E+04  1.54951E+04 -1.33275E+04
  1.10972E+04  5.58665E+03 -8.62447E+03  1.25760E+04 -2.19110E+04 -4.80969E+03 -8.28782E+03 -3.43647E+04
  2.32560E+04 -4.41283E+04  4.88994E+04 -1.95892E+04  4.60205E+04  1.96697E+04  1.57717E+04  4.45778E+04
 -1.61647E+04  3.41313E+04 -2.57027E+04  2.25527E+03 -1.03877E+04 -2.81930E+04  2.10953E+04 -3.46488E+04
  4.19644E+04 -9.70773E+03  3.67105E+04  2.37474E+04  1.89283E+04  4.75343E+04 -7.79241E+03  5.12187E+04
 -3.27239E+04  3.45427E+04 -4.32899E+04  9.62484E+03 -4.40049E+04 -1.72001E+04 -2.42573E+04 -3.90756E+04
  7.44592E+03 -3.87337E+04  3.18453E+04 -1.50956E+04  2.95930E+04  1.08973E+04  4.12509E+03  1.93755E+04
 -1.36517E+04  8.69137E+03 -1.04911E+04 -7.75427E+03  5.92786E+03 -1.06827E+04  1.79745E+04  5.97441E+03
  1.36643E+04  2.20767E+04 -6.05538E+03  2.56282E+04 -2.25131E+04  1.23503E+04 -2.88997E+04 -4.60708E+03
 -2.16656E+04 -1.75834E+04 -9.37618E+03 -2.16164E+04  3.85659E+03 -2.07007E+04  1.66706E+04 -1.93827E+04
  2.73865E+04 -1.33807E+04  3.36762E+04  3.00348E+03  2.49156E+04  2.05560E+04  4.26603E+03  3.74434E+04
 -1.83392E+04  3.12272E+04 -2.84823E+04  1.06147E+04 -2.09322E+04 -1.02896E+04 -4.63054E+03 -1.35478E+04
  1.66267E+03 -2.58956E+03 -5.28663E+03  6.85626E+03 -1.72327E+04  5.11391E+03 -1.73304E+04 -7.79559E+03
 -1.04862E+04 -1.99971E+04  5.36304E+03 -2.40955E+04  1.60427E+04 -1.71010E+04  1.90819E+04 -1.25618E+03
  1.20371E+04  1.36045E+04 -1.27038E+03  1.99091E+04 -1.37883E+04  1.12514E+04 -1.97858E+04 -4.07811E+03
 -1.44376E+04 -1.78843E+04 -1.87658E+03 -2.41619E+04  1.06371E+04 -1.98371E+04  2.01563E+04 -9.90031E+03
  1.85117E+04  4.28725E+02  1.33190E+04  4.73550E+03  7.23207E+03  1.06942E+03  9.98631E+03 -1.67871E+03
  1.84090E+04  2.87330E+03  2.04899E+04  1.59370E+04  1.36156E+04  3.15436E+04 -3.14438E+03  3.62825E+04
 -2.07054E+04  2.91916E+04 -3.41861E+04  1.47545E+04 -3.56641E+04 -3.00310E+03 -2.95732E+04 -2.08559E+04
 -1.23965E+04 -2.92969E+04  1.02621E+04 -2.65874E+04  2.27051E+04 -1.32440E+04  2.02655E+04  5.84938E+03
  7.09596E+03  1.52946E+04 -9.39010E+03  1.32171E+04 -1.72393E+04  2.61166E+03 -1.29713E+04 -1.03192E+04
 -2.32486E+02 -1.61486E+04  8.94356E+03 -1.17572E+04  1.09697E+04 -1.30531E+03  2.35362E+03  6.80379E+03
 -7.31491E+03  3.01531E+03 -6.60902E+03 -5.80449E+03 -8.89488E+02 -1.45545E+04  9.87800E+03 -1.52897E+04
  1.83299E+04 -8.36590E+03  1.95272E+04  3.03430E+03  1.69359E+04  1.43764E+04  7.75309E+03  2.19164E+04
 -3.78129E+03  2.41118E+04 -1.53059E+04  1.49888E+04 -1.70335E+04  3.33007E+03 -1.20610E+04 -4.17620E+03
 -5.65189E+03 -5.18848E+03 -8.13954E+02  1.12570E+03 -2.51269E+03  2.42666E+03 -5.87345E+03  4.16619E+03
 -1.11806E+04 -6.65695E+02 -1.20944E+04 -9.74262E+03 -4.65331E+03 -1.54888E+04  4.90102E+03 -1.22552E+04
  1.01716E+04 -5.33066E+03  7.51552E+03  3.10369E+03  2.40900E+02  4.62730E+03 -5.53860E+03 -1.52615E+02
 -5.56529E+03 -7.99876E+03 -1.39970E+03 -1.18912E+04  6.57951E+03 -1.20614E+04  1.53971E+04 -6.20618E+03
  1.79347E+04  1.32151E+03  1.28907E+04  1.04998E+04  2.23932E+03  1.41791E+04 -7.02460E+03  1.19376E+04
 -9.84646E+03  3.39152E+03 -5.00728E+03 -2.31852E+03  1.90910E+03 -2.98268E+03  6.52128E+03 -1.02606E+03
  5.91290E+03  5.25954E+03  1.21314E+03  9.66401E+03 -6.59039E+03  9.22553E+03 -1.19759E+04  2.27003E+03
 -7.64690E+03 -5.52947E+03  1.48915E+02 -9.99330E+03  6.56005E+03 -4.88032E+03  6.49740E+03  2.44061E+03
  8.75999E+02  6.73057E+03 -5.93850E+03  8.22800E+03 -8.92029E+03  3.73903E+03 -9.29913E+03 -2.94342E+03
 -5.25413E+03 -1.09632E+04  2.58393E+03 -1.24341E+04  1.07862E+04 -7.82456E+03  1.18013E+04  1.98684E+03
  7.25193E+03  9.33816E+03 -7.10295E+02  1.17063E+04 -8.37679E+03  6.13284E+03 -9.01205E+03 -9.73906E+02
 -8.21559E+03 -7.94763E+03 -1.53922E+03 -8.59079E+03  4.40825E+03 -7.25820E+03  5.17101E+03 -3.21927E+03
  3.83214E+03  1.05318E+03 -5.70417E+02  1.86012E+03 -3.02795E+02 -1.59357E+03  1.50186E+03 -4.57094E+03
  7.74214E+03 -2.93907E+03  1.04977E+04  1.04796E+03  1.05587E+04  6.68735E+03  7.84330E+03  1.39785E+04
 -3.06239E+03  1.57657E+04 -1.38250E+04  1.18704E+04 -1.75105E+04  2.19160E+03 -1.42014E+04 -5.31809E+03
 -7.30196E+03 -1.15378E+04 -5.40914E+02 -9.60548E+03  3.59800E+03 -4.89844E+03  3.21386E+03 -3.87382E+03
  2.53747E+03 -2.18830E+03  3.00665E+03 -3.18416E+03  4.66621E+03 -2.20708E+03  6.02028E+03 -2.94149E+02
  7.71716E+03  1.83859E+03  3.40948E+03  5.98270E+03 -1.84682E+03  7.08952E+03 -8.06116E+03  5.24213E+03
 -9.62145E+03 -1.14458E+03 -5.42871E+03 -6.78477E+03 -1.16401E+02 -1.01130E+04  5.67145E+03 -1.01607E+04
  1.08109E+04 -5.51396E+03  1.28411E+04  1.34153E+03  9.10817E+03  8.62457E+03  1.93863E+03  1.12120E+04
 -4.57666E+03  1.00176E+04 -6.79328E+03  3.47662E+03 -4.42913E+03 -1.53946E+03 -1.82667E+03 -1.28857E+03
 -9.82463E+02  2.17587E+02 -1.25015E+03  2.34027E+03 -4.30936E+03  2.10092E+03 -6.99918E+03 -9.36515E+02
 -4.23644E+03 -7.00941E+03  3.89637E+02 -9.03137E+03  5.70574E+03 -8.70759E+03  8.71423E+03 -2.56227E+03
  8.85922E+03  4.36367E+03  4.42620E+03  8.20897E+03 -1.64731E+03  9.54333E+03 -6.47114E+03  5.76638E+03
 -8.48025E+03  4.88287E+02 -6.55485E+03 -5.46528E+03 -6.48432E+02 -7.36164E+03  3.52523E+03 -5.48043E+03
  5.72302E+03 -2.17178E+03  3.66700E+03  1.30620E+03  1.02001E+03  2.85879E+03  1.02678E+03  1.11129E+03
  2.06884E+03  9.96742E+02  2.23099E+03  1.39102E+03  2.62178E+03  3.31565E+03  2.43550E+03  4.14280E+03
 -2.21857E+03  7.24093E+03 -5.85933E+03  7.29911E+03 -8.59915E+03  2.17832E+03 -9.43146E+03 -3.14024E+03
 -4.63555E+03 -8.83047E+03  1.16202E+03 -1.00373E+04  4.81289E+03 -6.12478E+03  7.23565E+03 -1.52160E+03
  5.26770E+03  3.82307E+03  1.17763E+03  5.13328E+03 -2.65353E+03  2.70862E+03 -3.13017E+03 -5.19311E+02
 -1.82439E+03 -3.57240E+03  2.37056E+03 -3.96611E+03  3.70423E+03 -1.72687E+03  3.13933E+03  5.47630E+02
  2.04092E+03  1.64675E+03  1.15799E+03  1.25032E+03 -7.06892E+02  1.38915E+03  1.71304E+03 -6.03832E+02
  9.28467E+02 -9.26722E+02  3.54968E+03  1.42326E+03  1.79109E+03  5.08700E+03 -9.82436E+02  5.97409E+03
 -4.02101E+03  3.45324E+03 -5.64335E+03  1.04138E+03 -4.93491E+03 -2.05587E+03 -1.37223E+03 -2.95202E+03
  5.89572E+02 -3.25928E+03  2.50087E+03 -1.61532E+03  1.80506E+03  1.75441E+03 -1.05645E+03  2.68827E+03
 -3.55557E+03  1.55035E+03 -3.76513E+03 -2.15273E+03 -2.09681E+03 -4.71733E+03  4.76235E+02 -4.45250E+03
  2.32207E+03 -2.60419E+03  2.93540E+03 -8.11679E+01  2.80088E+03  8.91047E+02  7.57194E+01  2.21116E+03
 -1.31432E+03  5.31185E+02 -2.11396E+03 -1.33089E+03  1.01631E+03 -3.30399E+03  3.99024E+03 -2.76064E+03
  4.66698E+03  1.01488E+02  5.53166E+03  3.27116E+03  1.94767E+03  5.01855E+03 -1.70643E+03  5.20765E+03
 -4.03697E+03  1.82285E+03 -4.36186E+03 -7.15594E+02 -2.20824E+03 -3.46850E+03  8.59260E+02 -2.98482E+03
  3.29211E+03 -2.21402E+03  2.68543E+03  1.17767E+03  4.98484E+02  3.08332E+03 -8.88609E+01  2.72321E+03
 -1.32885E+03  2.03785E+03 -1.63400E+03  6.54220E+02 -6.51557E+02  5.38743E+02 -8.17796E+02  1.21051E+03
 -1.53463E+03  2.10055E+03 -4.03057E+03  1.61181E+03 -4.88903E+03  1.49002E+02 -5.74497E+03 -3.16548E+03
 -3.19301E+03 -6.62090E+03  1.30580E+03 -7.40179E+03  4.41900E+03 -6.02583E+03  6.95318E+03 -2.43931E+03
  6.51823E+03  1.31702E+03  4.27615E+03  4.71112E+03 -3.61950E+02  4.84188E+03 -2.05482E+03  3.68630E+03
 -2.82757E+03  1.37538E+03 -1.60406E+03 -3.13017E+02 -7.40958E+02 -2.07245E+02 -7.59089E+02 -1.09564E+02
 -1.17453E+03  1.60421E+02 -1.41521E+03 -1.24314E+02  1.08546E+02 -1.40849E+03  4.71874E+01 -1.99463E+03
  2.40764E+03 -1.60536E+03  2.89395E+03  2.94861E+02  3.32955E+03  2.72090E+03  6.13365E+02  4.70204E+03
 -2.41517E+03  5.77886E+03 -4.89048E+03  3.38502E+03 -5.53089E+03 -8.55642E+02 -4.66411E+03 -3.95213E+03
 -2.25151E+03 -4.70712E+03  1.34125E+03 -4.44509E+03  2.60817E+03 -2.43990E+03  2.72438E+03  2.33601E+02
  1.85265E+03  1.59100E+03 -7.59331E+01  1.11656E+03 -1.09128E+03 -3.39292E+01 -7.06317E+01 -9.72307E+02
  1.54937E+03 -4.47233E+02  1.83628E+03  5.44450E+02  1.12483E+03  1.72819E+03  4.89246E+02  2.24872E+03
 -1.98375E+03  1.98994E+03 -2.92744E+03  2.83197E+02 -3.01679E+03 -2.07393E+03 -3.01313E+02 -4.14682E+03
  2.31291E+03 -3.18191E+03  3.28736E+03 -4.55223E+02  3.71738E+03  4.00170E+02  2.11177E+03  2.98225E+03
  8.80564E+02  2.92787E+03 -1.22784E+03  2.31539E+03 -1.73173E+03  1.40257E+03 -1.55855E+03  5.07049E+02
 -1.01905E+03 -2.03888E+02 -9.42864E+02  4.10879E+02 -1.35684E+03  3.91175E+02 -2.13833E+03 -3.64388E+02
 -2.48002E+03 -1.21852E+03 -8.48811E+02 -3.21202E+03  1.65513E+03 -3.56937E+03  2.51776E+03 -1.01438E+03
  2.89408E+03  2.55935E+02  1.06908E+03  1.88765E+03 -1.06453E+01  3.04874E+03 -2.35552E+03  2.09485E+03
