 $NMID ID='MM_0lb_SNR800_13hz_g45_58.RAW', FMTDAT='(8E13.5)'
 TRAMP=1., VOLUME=1. $END
  3.10248E+05  5.24851E+02  3.37647E+05  2.50414E+05  8.46979E+04  3.38055E+05 -1.32507E+05  2.50944E+05
 -1.90031E+05  8.31619E+04 -1.11569E+05 -3.28400E+04  1.09362E+03 -5.03703E+04  5.36669E+04 -3.42046E+02
  3.55632E+04  5.30328E+04 -1.69398E+04  7.55300E+04 -6.08402E+04  6.31406E+04 -8.43699E+04  3.19201E+04
 -8.08897E+04 -1.13786E+04 -5.73677E+04 -5.13837E+04 -1.50811E+04 -6.97237E+04  2.76938E+04 -4.58667E+04
  4.03579E+04  3.92211E+03  1.63005E+04  4.78076E+04 -3.41876E+04  4.72836E+04 -6.66225E+04 -1.73260E+02
 -5.34329E+04 -5.70241E+04 -6.88037E+03 -7.72017E+04  3.40486E+04 -5.49936E+04  4.81819E+04 -1.69334E+04
  4.34956E+04  1.14550E+04  3.19003E+04  2.54828E+04  1.58436E+04  2.94322E+04 -5.13946E+03  2.74717E+04
 -2.22631E+04  1.19857E+04 -1.87348E+04 -5.32433E+03  5.74169E+03 -7.46251E+03  2.23195E+04  1.24395E+04
  7.47864E+03  3.53301E+04 -3.22725E+04  3.55656E+04 -6.30686E+04  2.05765E+03 -5.71113E+04 -4.31456E+04
 -1.22288E+04 -6.34762E+04  4.02804E+04 -4.55127E+04  5.85560E+04 -2.32287E+03  3.42695E+04  3.26572E+04
 -6.06740E+03  3.64381E+04 -2.98698E+04  1.63436E+04 -3.08949E+04 -4.48859E+03 -1.69715E+04 -1.13787E+04
 -8.37508E+03 -1.31229E+04 -8.04479E+02 -1.82316E+04  7.44734E+03 -2.30016E+04  1.53033E+04 -1.33013E+04
  1.15389E+04  5.33214E+03 -8.41166E+03  1.31427E+04 -2.13399E+04 -4.46706E+03 -8.46964E+03 -3.40429E+04
  2.31209E+04 -4.38140E+04  4.84259E+04 -1.97474E+04  4.54438E+04  1.95265E+04  1.57772E+04  4.45262E+04
 -1.60501E+04  3.35467E+04 -2.59079E+04  1.91051E+03 -9.95461E+03 -2.80418E+04  2.11132E+04 -3.39833E+04
  4.11674E+04 -9.12264E+03  3.60924E+04  2.37280E+04  1.82751E+04  4.67662E+04 -7.99838E+03  5.08022E+04
 -3.19476E+04  3.39861E+04 -4.24280E+04  9.88643E+03 -4.29042E+04 -1.68683E+04 -2.38114E+04 -3.83349E+04
  7.28841E+03 -3.80249E+04  3.16222E+04 -1.48689E+04  2.94757E+04  1.10204E+04  4.09650E+03  1.93865E+04
 -1.35912E+04  8.59738E+03 -1.04646E+04 -7.69748E+03  5.73844E+03 -1.07169E+04  1.78507E+04  5.66089E+03
  1.37432E+04  2.24514E+04 -5.81638E+03  2.51237E+04 -2.25888E+04  1.17829E+04 -2.83441E+04 -4.49185E+03
 -2.12847E+04 -1.75840E+04 -8.51582E+03 -2.12430E+04  3.85985E+03 -2.03230E+04  1.61620E+04 -1.87882E+04
  2.66273E+04 -1.31032E+04  3.34278E+04  3.22627E+03  2.43386E+04  2.04311E+04  4.35905E+03  3.66204E+04
 -1.80350E+04  3.09266E+04 -2.79596E+04  1.05274E+04 -2.10850E+04 -1.02303E+04 -4.36015E+03 -1.31715E+04
  1.65582E+03 -2.48267E+03 -4.76547E+03  6.49289E+03 -1.63223E+04  4.96196E+03 -1.67917E+04 -7.40601E+03
 -1.04497E+04 -1.94676E+04  5.28735E+03 -2.36958E+04  1.55011E+04 -1.68751E+04  1.85831E+04 -1.43615E+03
  1.16624E+04  1.34649E+04 -8.96795E+02  1.90342E+04 -1.32292E+04  1.14534E+04 -1.97564E+04 -3.95875E+03
 -1.46752E+04 -1.73636E+04 -1.68809E+03 -2.35980E+04  1.06991E+04 -1.92501E+04  1.98033E+04 -9.40185E+03
  1.84765E+04  1.83185E+02  1.33894E+04  4.80137E+03  6.76836E+03  1.31268E+03  9.54599E+03 -1.98808E+03
  1.77860E+04  3.02169E+03  1.97940E+04  1.54509E+04  1.30907E+04  3.09787E+04 -2.79822E+03  3.48937E+04
 -2.05585E+04  2.85484E+04 -3.27424E+04  1.41449E+04 -3.43398E+04 -2.49748E+03 -2.84741E+04 -1.99820E+04
 -1.23613E+04 -2.84505E+04  1.01077E+04 -2.55546E+04  2.23440E+04 -1.27588E+04  2.00045E+04  5.77284E+03
  7.27827E+03  1.49517E+04 -9.34649E+03  1.28888E+04 -1.66778E+04  2.60285E+03 -1.27993E+04 -1.04526E+04
 -1.56676E+02 -1.58371E+04  8.30737E+03 -1.16852E+04  1.04682E+04 -1.35226E+03  2.59301E+03  6.87507E+03
 -6.94354E+03  2.97423E+03 -6.31103E+03 -5.46479E+03 -8.39772E+02 -1.37396E+04  9.78642E+03 -1.46957E+04
  1.74084E+04 -7.87411E+03  1.90303E+04  2.98622E+03  1.62597E+04  1.40230E+04  7.69329E+03  2.15790E+04
 -3.62187E+03  2.29785E+04 -1.46030E+04  1.44852E+04 -1.69749E+04  3.38237E+03 -1.14816E+04 -3.79059E+03
 -5.47585E+03 -5.18477E+03 -4.15754E+02  1.12519E+03 -2.22450E+03  2.66434E+03 -5.39775E+03  4.53975E+03
 -1.09687E+04 -8.34046E+02 -1.15007E+04 -9.43379E+03 -4.76291E+03 -1.50829E+04  4.76342E+03 -1.18437E+04
  9.91197E+03 -4.82429E+03  7.01073E+03  3.32294E+03  1.79125E+02  4.54651E+03 -5.43557E+03 -2.89787E+01
 -5.33697E+03 -7.37305E+03 -9.63385E+02 -1.11604E+04  6.40247E+03 -1.19270E+04  1.49622E+04 -6.20008E+03
  1.74080E+04  1.31375E+03  1.28797E+04  9.90916E+03  2.38536E+03  1.38252E+04 -7.63467E+03  1.17229E+04
 -9.75143E+03  3.64260E+03 -5.18300E+03 -2.16541E+03  1.50605E+03 -3.07170E+03  6.48653E+03 -1.06324E+03
  5.56246E+03  5.20300E+03  1.05287E+03  9.27904E+03 -6.72529E+03  8.92230E+03 -1.10867E+04  2.12063E+03
 -7.65578E+03 -5.58218E+03 -3.35149E+00 -9.81764E+03  6.14254E+03 -4.87005E+03  6.21290E+03  2.04866E+03
  1.35025E+03  6.34618E+03 -6.05394E+03  7.85543E+03 -9.02607E+03  3.25047E+03 -8.89375E+03 -2.89157E+03
 -5.00907E+03 -1.04460E+04  2.45166E+03 -1.22588E+04  1.05609E+04 -7.47564E+03  1.10159E+04  1.68650E+03
  6.87722E+03  8.99579E+03 -5.66617E+02  1.10067E+04 -8.56077E+03  6.42895E+03 -8.79336E+03 -9.50433E+02
 -7.95968E+03 -7.58019E+03 -1.51567E+03 -7.94536E+03  4.22141E+03 -6.95404E+03  5.18750E+03 -3.35076E+03
  3.81826E+03  1.00634E+03 -5.69801E+02  1.58555E+03  1.05994E+02 -1.73437E+03  1.27572E+03 -4.32504E+03
  7.17967E+03 -2.52568E+03  9.97886E+03  7.24861E+02  1.04669E+04  6.23173E+03  7.70967E+03  1.33264E+04
 -2.99580E+03  1.51397E+04 -1.33731E+04  1.16910E+04 -1.70737E+04  1.89463E+03 -1.35773E+04 -5.51146E+03
 -7.01451E+03 -1.13569E+04 -2.47519E+02 -9.44758E+03  3.49003E+03 -4.82199E+03  3.01160E+03 -3.70562E+03
  2.34405E+03 -2.29919E+03  2.63097E+03 -2.99356E+03  4.64544E+03 -2.38633E+03  5.36718E+03 -1.98713E+02
  7.60584E+03  1.98060E+03  3.20900E+03  6.11967E+03 -1.52089E+03  6.64032E+03 -7.38734E+03  5.35631E+03
 -9.23913E+03 -1.10833E+03 -5.04939E+03 -6.17863E+03 -4.77214E+02 -9.66987E+03  5.61800E+03 -1.00857E+04
  9.97045E+03 -5.53384E+03  1.22074E+04  1.55638E+03  8.68398E+03  8.24600E+03  1.58206E+03  1.12428E+04
 -4.43542E+03  9.38932E+03 -6.39593E+03  3.34159E+03 -4.24019E+03 -1.18313E+03 -1.51057E+03 -1.50839E+03
 -9.87999E+02  2.86981E+01 -1.55598E+03  2.26058E+03 -4.29630E+03  1.68631E+03 -6.76235E+03 -7.48757E+02
 -3.91045E+03 -6.55543E+03  4.26854E+02 -9.19683E+03  5.54431E+03 -8.51344E+03  8.24825E+03 -2.26762E+03
  8.55471E+03  4.26421E+03  4.19392E+03  7.76914E+03 -1.41285E+03  9.00774E+03 -6.04544E+03  5.50497E+03
 -7.81827E+03  6.47674E+02 -6.46022E+03 -4.83185E+03 -6.38841E+02 -7.03418E+03  3.72325E+03 -5.20659E+03
  5.71735E+03 -1.84312E+03  4.06074E+03  1.30081E+03  9.74336E+02  3.02512E+03  1.09235E+03  1.19543E+03
  2.08430E+03  6.85815E+02  2.30798E+03  1.16741E+03  2.34257E+03  3.47287E+03  2.40904E+03  4.18976E+03
 -2.06769E+03  6.67046E+03 -5.93802E+03  7.31212E+03 -8.35202E+03  2.03275E+03 -8.74585E+03 -2.94338E+03
 -3.99605E+03 -8.46915E+03  1.19403E+03 -9.50858E+03  5.02386E+03 -5.78945E+03  6.77884E+03 -1.75443E+03
  5.34111E+03  3.07207E+03  1.00245E+03  4.88113E+03 -2.11182E+03  2.78698E+03 -3.07787E+03 -1.46580E+02
 -1.63317E+03 -3.74674E+03  2.34773E+03 -3.57543E+03  3.26633E+03 -2.05466E+03  3.49459E+03  4.91589E+02
  2.14007E+03  1.43179E+03  8.99460E+02  8.14224E+02 -7.79350E+02  1.36904E+03  1.11320E+03 -4.93528E+02
  9.92751E+02 -3.85208E+02  3.70820E+03  1.40843E+03  1.66755E+03  4.50591E+03 -7.65548E+02  6.17012E+03
 -4.07215E+03  3.48452E+03 -4.88846E+03  9.83704E+02 -5.11485E+03 -1.62749E+03 -1.28680E+03 -2.89144E+03
  4.24916E+02 -3.08003E+03  1.91518E+03 -1.62910E+03  2.03789E+03  1.83569E+03 -1.22210E+03  2.39039E+03
 -3.55044E+03  1.58145E+03 -3.65766E+03 -2.09288E+03 -2.03770E+03 -4.75920E+03  2.78850E+02 -4.21220E+03
  2.38236E+03 -2.19297E+03  3.04416E+03 -4.21607E+02  2.90772E+03  8.59071E+02  6.89222E+02  2.53452E+03
 -1.33385E+03  3.44222E+02 -1.70824E+03 -1.50044E+03  9.87446E+02 -3.04867E+03  4.13050E+03 -2.56088E+03
  4.43126E+03  2.56649E+02  5.14884E+03  3.39527E+03  1.76201E+03  5.00841E+03 -1.42260E+03  5.00002E+03
 -4.16475E+03  1.56226E+03 -4.36242E+03 -4.56190E+02 -2.59271E+03 -3.29805E+03  6.46725E+02 -2.75365E+03
  3.17304E+03 -1.57032E+03  2.47984E+03  1.42932E+03  1.06816E+03  2.95106E+03 -1.46210E+02  2.44556E+03
 -1.23302E+03  1.61399E+03 -1.57632E+03  4.47213E+02 -2.34952E+02  7.15667E+02 -9.22111E+02  1.58703E+03
 -1.33019E+03  2.21258E+03 -3.56994E+03  1.80037E+03 -4.73572E+03  3.55147E+02 -5.29680E+03 -3.02390E+03
 -3.02928E+03 -6.27269E+03  1.38668E+03 -7.00648E+03  4.06156E+03 -6.07217E+03  7.07174E+03 -2.19125E+03
  6.54402E+03  1.21994E+03  3.86275E+03  4.47559E+03 -1.46975E+01  4.99534E+03 -2.02092E+03  3.59692E+03
 -2.67793E+03  1.49626E+03 -1.64377E+03 -6.19319E+02 -8.00068E+02 -2.08614E+02 -8.93924E+02  8.05674E+01
 -1.30635E+03  1.68675E+02 -1.63670E+03 -2.40123E+02 -2.33532E+02 -1.05549E+03 -6.14876E+01 -2.00160E+03
  2.75779E+03 -1.59029E+03  2.61492E+03  3.44587E+02  3.57799E+03  2.99238E+03  5.91904E+02  5.01038E+03
 -2.67168E+03  5.81252E+03 -5.14440E+03  3.28329E+03 -5.58014E+03 -5.79190E+02 -3.97005E+03 -3.91099E+03
 -2.26222E+03 -4.81913E+03  1.64579E+03 -4.11891E+03  2.87809E+03 -2.27183E+03  3.06058E+03  1.75868E+02
  2.14603E+03  1.71702E+03 -1.46679E+02  1.33132E+03 -1.25574E+03 -3.31024E+02 -7.08023E-01 -8.05480E+02
  1.50112E+03 -3.78440E+02  1.68421E+03  9.13172E+02  1.00356E+03  1.77654E+03  1.18203E+02  2.17767E+03
 -1.89118E+03  1.93136E+03 -2.36579E+03  2.38012E+02 -2.39267E+03 -2.06801E+03 -3.56433E+02 -3.87120E+03
  1.87836E+03 -3.11998E+03  3.54256E+03 -6.02939E+02  3.69080E+03 -1.53158E+01  1.94402E+03  3.00429E+03
  8.75553E+02  2.46982E+03 -1.04076E+03  2.04840E+03 -1.69366E+03  1.52105E+03 -1.69859E+03  6.57737E+01
 -7.08098E+02 -2.04260E+02 -8.70479E+02  3.94832E+02 -2.03660E+03  5.48002E+02 -2.22981E+03 -2.35961E+02
 -2.31695E+03 -1.05066E+03 -5.96331E+02 -3.40733E+03  1.45169E+03 -3.86660E+03  2.63605E+03 -1.48107E+03
  2.82115E+03  3.42103E+02  9.97973E+02  1.82131E+03 -3.51794E-01  2.91428E+03 -1.93368E+03  1.97566E+03
