 $NMID ID='MM_0lb_SNR800_16hz_g50_88.RAW', FMTDAT='(8E13.5)'
 TRAMP=1., VOLUME=1. $END
  3.09691E+05  4.28482E+02  3.37604E+05  2.50616E+05  8.47354E+04  3.37699E+05 -1.32689E+05  2.50682E+05
 -1.89889E+05  8.26608E+04 -1.11643E+05 -3.30845E+04  6.94238E+02 -5.03011E+04  5.35265E+04 -5.70265E+01
  3.50750E+04  5.29711E+04 -1.69828E+04  7.51271E+04 -6.07793E+04  6.33182E+04 -8.35955E+04  3.19321E+04
 -8.06744E+04 -1.13166E+04 -5.69406E+04 -5.09317E+04 -1.49580E+04 -6.91083E+04  2.74702E+04 -4.55099E+04
  3.96958E+04  3.94376E+03  1.60300E+04  4.75190E+04 -3.42413E+04  4.70150E+04 -6.63538E+04 -2.22109E+02
 -5.27802E+04 -5.64591E+04 -6.65993E+03 -7.61937E+04  3.38169E+04 -5.42739E+04  4.71931E+04 -1.68310E+04
  4.26697E+04  1.10704E+04  3.14669E+04  2.49048E+04  1.60693E+04  2.86273E+04 -4.90157E+03  2.70262E+04
 -2.19382E+04  1.23514E+04 -1.87563E+04 -4.37858E+03  5.09087E+03 -7.45014E+03  2.18895E+04  1.18408E+04
  7.49424E+03  3.45974E+04 -3.12514E+04  3.46726E+04 -6.27914E+04  2.35815E+03 -5.63999E+04 -4.23151E+04
 -1.21049E+04 -6.22986E+04  3.93792E+04 -4.46997E+04  5.70426E+04 -2.10667E+03  3.32106E+04  3.16659E+04
 -6.31974E+03  3.49727E+04 -2.93052E+04  1.50146E+04 -2.97593E+04 -4.91621E+03 -1.57106E+04 -1.05587E+04
 -8.20620E+03 -1.27230E+04 -8.83069E+02 -1.74465E+04  6.94725E+03 -2.29220E+04  1.52550E+04 -1.37183E+04
  1.16366E+04  4.77763E+03 -7.45866E+03  1.31558E+04 -2.04758E+04 -3.46118E+03 -8.14189E+03 -3.26247E+04
  2.20801E+04 -4.23182E+04  4.68653E+04 -1.91905E+04  4.39479E+04  1.88859E+04  1.51477E+04  4.30932E+04
 -1.56533E+04  3.26175E+04 -2.43623E+04  1.60363E+03 -9.25998E+03 -2.71724E+04  2.07241E+04 -3.30909E+04
  3.99788E+04 -8.38353E+03  3.38680E+04  2.34725E+04  1.69591E+04  4.54433E+04 -8.06199E+03  4.86080E+04
 -3.03961E+04  3.22131E+04 -4.00303E+04  9.26623E+03 -4.11729E+04 -1.58274E+04 -2.26445E+04 -3.63443E+04
  7.17868E+03 -3.64368E+04  3.09007E+04 -1.39331E+04  2.83497E+04  1.08122E+04  3.50092E+03  1.90424E+04
 -1.33237E+04  8.01893E+03 -1.01003E+04 -7.75084E+03  5.83520E+03 -1.03457E+04  1.75454E+04  6.30461E+03
  1.30050E+04  2.18431E+04 -6.42595E+03  2.44071E+04 -2.18484E+04  1.05063E+04 -2.68506E+04 -5.59094E+03
 -1.91978E+04 -1.68948E+04 -7.36959E+03 -1.89815E+04  3.82249E+03 -1.78774E+04  1.45629E+04 -1.65425E+04
  2.42015E+04 -1.25059E+04  3.07989E+04  2.33405E+03  2.29350E+04  1.84087E+04  4.30577E+03  3.48725E+04
 -1.70120E+04  2.91262E+04 -2.72347E+04  1.01805E+04 -2.02360E+04 -1.04043E+04 -4.07817E+03 -1.33827E+04
  2.03500E+03 -3.29461E+03 -4.06086E+03  6.42875E+03 -1.48022E+04  4.94463E+03 -1.52286E+04 -6.31568E+03
 -9.57879E+03 -1.72288E+04  4.73483E+03 -2.13202E+04  1.40355E+04 -1.56734E+04  1.69092E+04 -1.80897E+03
  1.04358E+04  1.21389E+04 -1.20503E+03  1.78098E+04 -1.20256E+04  9.84550E+03 -1.73057E+04 -3.97804E+03
 -1.28992E+04 -1.58174E+04 -1.82074E+03 -2.12983E+04  9.81668E+03 -1.71938E+04  1.79955E+04 -8.70452E+03
  1.62568E+04  5.06529E+02  1.16765E+04  4.17871E+03  5.69780E+03  6.70675E+02  8.89060E+03 -1.64106E+03
  1.58942E+04  3.07748E+03  1.75161E+04  1.38701E+04  1.14319E+04  2.79573E+04 -3.01071E+03  3.09961E+04
 -1.80156E+04  2.44814E+04 -2.87331E+04  1.19572E+04 -2.98883E+04 -2.07731E+03 -2.51220E+04 -1.74529E+04
 -1.12653E+04 -2.46816E+04  8.45933E+03 -2.23952E+04  1.91176E+04 -1.20089E+04  1.76925E+04  4.54949E+03
  7.01506E+03  1.29634E+04 -8.31476E+03  1.17046E+04 -1.45749E+04  2.63928E+03 -1.13349E+04 -9.26114E+03
 -1.43387E+02 -1.43362E+04  7.18678E+03 -1.08434E+04  9.15451E+03 -1.37959E+03  2.00024E+03  5.79230E+03
 -6.18415E+03  1.84499E+03 -5.00872E+03 -5.13412E+03  1.33230E+02 -1.20869E+04  8.62399E+03 -1.24132E+04
  1.46829E+04 -6.29906E+03  1.52685E+04  2.87055E+03  1.32446E+04  1.19398E+04  6.53737E+03  1.73418E+04
 -2.22556E+03  1.96099E+04 -1.22708E+04  1.22046E+04 -1.41918E+04  3.03172E+03 -9.99209E+03 -2.49357E+03
 -5.11910E+03 -4.08818E+03 -1.00884E+03  1.49962E+03 -2.27318E+03  2.14703E+03 -4.63559E+03  3.99558E+03
 -9.50193E+03 -4.29873E+02 -9.97817E+03 -8.30125E+03 -4.25818E+03 -1.35535E+04  4.09716E+03 -9.67751E+03
  8.32713E+03 -4.25052E+03  6.21565E+03  2.97575E+03  3.79273E+02  3.86188E+03 -4.48682E+03  1.50349E+02
 -4.61469E+03 -6.39572E+03 -6.61770E+02 -9.13123E+03  4.89080E+03 -9.81305E+03  1.18907E+04 -4.84005E+03
  1.44201E+04  6.68982E+02  1.02910E+04  7.98027E+03  1.94615E+03  1.09110E+04 -6.33306E+03  9.59911E+03
 -8.22827E+03  3.13795E+03 -3.96223E+03 -1.60980E+03  1.35674E+03 -2.23486E+03  5.54662E+03 -8.93139E+02
  4.97945E+03  4.13866E+03  9.50250E+02  7.62501E+03 -5.52461E+03  7.42833E+03 -9.35036E+03  2.34714E+03
 -6.17227E+03 -4.78175E+03  4.20259E+02 -7.91428E+03  4.84254E+03 -4.26319E+03  4.61688E+03  1.66891E+03
  6.01024E+02  4.39158E+03 -4.80222E+03  6.18550E+03 -6.81517E+03  2.92545E+03 -6.61080E+03 -2.02699E+03
 -3.98242E+03 -8.21507E+03  1.95643E+03 -9.27945E+03  8.25224E+03 -6.05888E+03  8.72802E+03  1.25088E+03
  5.95827E+03  6.80543E+03 -3.61825E+02  8.99942E+03 -6.48022E+03  5.16948E+03 -6.90600E+03 -4.99027E+02
 -6.66837E+03 -6.32504E+03 -1.65769E+03 -6.34481E+03  3.29771E+03 -5.36388E+03  3.74768E+03 -3.11914E+03
  3.04145E+03  5.75171E+02 -3.18175E+02  1.34665E+03  6.31149E+02 -5.54724E+02  6.85575E+02 -3.11230E+03
  5.18239E+03 -1.59938E+03  7.39053E+03  7.55301E+02  7.38180E+03  4.88452E+03  6.21414E+03  9.80211E+03
 -1.95636E+03  1.16605E+04 -9.94341E+03  8.62262E+03 -1.31599E+04  1.62527E+03 -1.04804E+04 -3.60639E+03
 -5.29240E+03 -8.20946E+03 -4.20722E+02 -7.19813E+03  2.62349E+03 -3.47272E+03  2.39377E+03 -2.84247E+03
  1.58106E+03 -1.87135E+03  2.87041E+03 -2.66704E+03  3.69850E+03 -1.66253E+03  4.48295E+03  8.40851E+01
  5.52114E+03  1.80156E+03  2.00768E+03  4.50857E+03 -1.63829E+03  4.58399E+03 -5.94268E+03  3.66823E+03
 -7.00378E+03 -1.13112E+03 -3.17504E+03 -4.71673E+03  8.23175E+01 -7.04225E+03  4.03327E+03 -7.17902E+03
  7.43250E+03 -4.23066E+03  9.24892E+03  8.96521E+02  6.52155E+03  6.05147E+03  1.23631E+03  7.82555E+03
 -3.21906E+03  7.20460E+03 -4.87673E+03  2.45527E+03 -2.66476E+03 -1.29841E+03 -1.25070E+03 -8.56794E+02
 -8.12691E+02  3.91059E+02 -1.16524E+03  1.95239E+03 -3.24809E+03  1.21936E+03 -5.10288E+03 -7.18788E+02
 -2.35181E+03 -5.30614E+03  6.34012E+02 -6.06317E+03  3.72555E+03 -5.94268E+03  5.50833E+03 -1.67097E+03
  5.61892E+03  3.22943E+03  2.79317E+03  4.84454E+03 -1.23762E+03  6.20366E+03 -4.16283E+03  3.96860E+03
 -5.35119E+03  7.06674E+02 -4.67152E+03 -3.40051E+03 -3.22575E+02 -4.89663E+03  2.56134E+03 -3.80750E+03
  3.75347E+03 -1.58295E+03  2.49903E+03  9.29988E+02  6.81995E+02  1.78910E+03  7.37721E+02  7.93959E+02
  1.65732E+03  9.26774E+02  1.52277E+03  1.13297E+03  1.51765E+03  2.81473E+03  1.92674E+03  2.84457E+03
 -1.62718E+03  4.10977E+03 -3.49756E+03  5.19848E+03 -5.23166E+03  1.65487E+03 -6.06301E+03 -1.09360E+03
 -2.70271E+03 -5.42355E+03  1.13940E+03 -6.61354E+03  3.08952E+03 -3.92639E+03  4.58901E+03 -1.08134E+03
  3.68017E+03  2.55722E+03  5.68806E+02  3.19868E+03 -1.47965E+03  1.94216E+03 -1.86599E+03 -3.68401E+02
 -8.41195E+02 -2.16449E+03  1.19629E+03 -2.34226E+03  2.15792E+03 -1.57053E+03  1.91770E+03  4.45233E+02
  1.16674E+03  7.24732E+02  1.01498E+03  1.36950E+02 -5.35911E+02  1.22571E+03  1.38614E+03 -3.16441E+02
  3.41141E+02 -7.21787E+02  2.34339E+03  8.56384E+02  7.26839E+02  3.20585E+03 -3.80988E+02  4.21923E+03
 -2.37856E+03  1.82236E+03 -3.30849E+03  7.03993E+02 -3.00548E+03 -9.40463E+02 -7.01961E+02 -1.54896E+03
  7.33887E+02 -2.01184E+03  1.22341E+03 -9.45234E+02  1.17826E+03  1.47834E+03 -9.44833E+02  1.58474E+03
 -2.06900E+03  1.14059E+03 -2.07742E+03 -1.40529E+03 -1.08363E+03 -3.08212E+03  3.99870E+02 -2.30716E+03
  1.16998E+03 -1.53040E+03  1.68039E+03  2.05415E+02  2.00739E+03  2.33820E+02  3.15749E+02  1.65904E+03
 -9.55521E+02  4.70076E+02 -1.21980E+03 -4.06807E+02  8.12237E+02 -1.57339E+03  2.64790E+03 -1.66794E+03
  2.39080E+03  2.43241E+02  3.43605E+03  1.69222E+03  1.52475E+03  2.64326E+03 -8.60336E+02  3.05780E+03
 -2.40967E+03  5.57214E+02 -2.27817E+03 -1.58262E+02 -1.36195E+03 -1.93110E+03  8.21219E+02 -1.44560E+03
  2.08879E+03 -9.97144E+02  1.47066E+03  5.97133E+02  3.28364E+02  2.04918E+03  2.16092E+02  1.73600E+03
 -9.33167E+02  1.43823E+03 -3.19994E+02  1.51083E+02  9.84709E+01  5.28665E+02 -8.26925E+02  6.94378E+02
 -8.34108E+02  1.31132E+03 -2.49146E+03  1.10489E+03 -2.85602E+03  1.96659E+02 -3.67279E+03 -1.75160E+03
 -1.66740E+03 -3.60841E+03  8.16315E+02 -4.43093E+03  2.09882E+03 -3.95477E+03  4.23760E+03 -1.36656E+03
  3.78891E+03  1.61448E+02  2.04397E+03  2.66452E+03 -2.07758E+02  2.91118E+03 -1.22796E+03  2.03956E+03
 -1.58149E+03  7.34384E+02 -1.16951E+03 -3.49010E+02 -4.41072E+02  3.21462E+02 -5.98830E+02 -2.76644E+02
 -1.35433E+03 -1.36673E+02 -1.09275E+03 -7.35143E+01  4.49252E+02 -7.52984E+02 -3.57217E+02 -1.37229E+03
  1.58217E+03 -9.33137E+02  9.81142E+02  2.22121E+02  1.89358E+03  1.50383E+03 -5.69813E+01  2.46371E+03
 -1.23332E+03  3.15186E+03 -2.61703E+03  1.96690E+03 -3.16493E+03 -4.59698E+02 -2.38574E+03 -2.24719E+03
 -1.34897E+03 -2.58531E+03  5.66337E+02 -2.06438E+03  1.64910E+03 -1.25687E+03  1.40145E+03  2.08335E+02
  1.26425E+03  6.98863E+02  3.02715E+02  5.61439E+02 -6.31246E+02 -8.45666E+01 -1.20790E+02 -5.65631E+02
  8.04497E+02  1.19838E+02  8.25009E+02  3.82640E+02  3.57108E+02  1.13443E+03  3.60155E+02  1.11779E+03
 -1.30498E+03  9.64221E+02 -9.94820E+02  1.71013E+02 -1.52676E+03 -8.86039E+02 -3.12848E+02 -2.01696E+03
  8.85210E+02 -1.14061E+03  1.28999E+03 -3.16381E+02  1.74766E+03 -2.55420E+02  6.60470E+02  1.47457E+03
  4.91879E+02  1.04319E+03 -7.12794E+02  1.20867E+03 -1.06062E+03  7.63456E+02 -8.64105E+02  3.15001E+02
 -5.21130E+02 -4.86271E+02 -7.22039E+02  9.67630E+01 -1.22925E+03  9.32106E+01 -1.23775E+03 -6.15636E+02
 -1.23641E+03  1.05488E+01 -6.52573E+02 -1.81356E+03  1.06265E+03 -2.16555E+03  1.22991E+03 -8.29766E+02
  1.03181E+03  6.14956E+01  1.82020E+02  8.41324E+02 -1.32271E+02  1.56850E+03 -6.61881E+02  1.00135E+03
