 $NMID ID='MM_0lb_SNR800_17hz_g50_31.RAW', FMTDAT='(8E13.5)'
 TRAMP=1., VOLUME=1. $END
  3.09888E+05  5.15293E+02  3.37709E+05  2.50339E+05  8.46346E+04  3.37507E+05 -1.32505E+05  2.50423E+05
 -1.90152E+05  8.27703E+04 -1.11221E+05 -3.28913E+04  1.45439E+03 -5.02314E+04  5.36735E+04  3.52477E+01
  3.51669E+04  5.30403E+04 -1.69203E+04  7.52048E+04 -6.03407E+04  6.32243E+04 -8.33103E+04  3.14478E+04
 -8.01237E+04 -1.11696E+04 -5.67221E+04 -5.09311E+04 -1.48602E+04 -6.87097E+04  2.70251E+04 -4.52856E+04
  3.94926E+04  3.96790E+03  1.62457E+04  4.74585E+04 -3.39044E+04  4.68686E+04 -6.61036E+04 -2.65009E+02
 -5.25577E+04 -5.60509E+04 -6.67610E+03 -7.61948E+04  3.34243E+04 -5.38285E+04  4.72578E+04 -1.67465E+04
  4.23132E+04  1.13164E+04  3.11819E+04  2.50621E+04  1.58074E+04  2.87208E+04 -4.96629E+03  2.68831E+04
 -2.18500E+04  1.27355E+04 -1.91043E+04 -4.57615E+03  4.84459E+03 -7.43101E+03  2.18784E+04  1.16059E+04
  7.43154E+03  3.41176E+04 -3.12162E+04  3.46647E+04 -6.23037E+04  2.03496E+03 -5.63148E+04 -4.17618E+04
 -1.23864E+04 -6.17933E+04  3.89650E+04 -4.41183E+04  5.67061E+04 -1.95585E+03  3.30630E+04  3.16123E+04
 -6.19604E+03  3.44312E+04 -2.91517E+04  1.46695E+04 -2.85882E+04 -5.22444E+03 -1.55361E+04 -1.05245E+04
 -7.59853E+03 -1.20282E+04 -1.01338E+03 -1.72222E+04  7.00176E+03 -2.27200E+04  1.50440E+04 -1.36984E+04
  1.19784E+04  4.66982E+03 -7.07207E+03  1.29220E+04 -2.00624E+04 -3.46378E+03 -8.29669E+03 -3.16975E+04
  2.16324E+04 -4.18489E+04  4.62816E+04 -1.90499E+04  4.33384E+04  1.86340E+04  1.48746E+04  4.27193E+04
 -1.57999E+04  3.22250E+04 -2.43091E+04  1.53412E+03 -8.63590E+03 -2.70296E+04  2.09396E+04 -3.23313E+04
  3.91863E+04 -8.10988E+03  3.30461E+04  2.30826E+04  1.63950E+04  4.42153E+04 -7.80041E+03  4.71603E+04
 -2.98657E+04  3.16057E+04 -3.92000E+04  8.94747E+03 -4.00730E+04 -1.59978E+04 -2.23432E+04 -3.57825E+04
  7.09536E+03 -3.55350E+04  3.00785E+04 -1.35318E+04  2.76061E+04  1.10321E+04  3.44714E+03  1.81686E+04
 -1.32149E+04  7.85013E+03 -1.01808E+04 -7.82126E+03  5.99330E+03 -1.04070E+04  1.75782E+04  6.26393E+03
  1.26810E+04  2.19749E+04 -6.70123E+03  2.40656E+04 -2.15657E+04  1.01267E+04 -2.61329E+04 -5.63690E+03
 -1.84141E+04 -1.66599E+04 -6.64384E+03 -1.83975E+04  3.92401E+03 -1.65422E+04  1.35378E+04 -1.63623E+04
  2.32842E+04 -1.20861E+04  2.98946E+04  1.92925E+03  2.22417E+04  1.77720E+04  4.29250E+03  3.40669E+04
 -1.67498E+04  2.87724E+04 -2.65137E+04  1.00540E+04 -2.02168E+04 -1.05958E+04 -4.15691E+03 -1.36864E+04
  2.09469E+03 -3.60528E+03 -3.50396E+03  5.61247E+03 -1.41716E+04  5.29813E+03 -1.42647E+04 -5.74409E+03
 -8.89795E+03 -1.69624E+04  4.95285E+03 -2.08801E+04  1.35358E+04 -1.51046E+04  1.61917E+04 -1.29398E+03
  9.74404E+03  1.16905E+04 -7.40523E+02  1.72324E+04 -1.10202E+04  9.76551E+03 -1.66278E+04 -3.38200E+03
 -1.22059E+04 -1.53425E+04 -1.39500E+03 -2.06675E+04  9.09019E+03 -1.66233E+04  1.73837E+04 -8.03114E+03
  1.55536E+04  3.14085E+02  1.13542E+04  3.98127E+03  5.82423E+03  4.90874E+02  8.41892E+03 -1.53448E+03
  1.50124E+04  2.78148E+03  1.65928E+04  1.36579E+04  1.03996E+04  2.68745E+04 -2.87607E+03  2.92596E+04
 -1.73606E+04  2.29796E+04 -2.69672E+04  1.11310E+04 -2.78373E+04 -2.36184E+03 -2.36064E+04 -1.61008E+04
 -1.08286E+04 -2.28128E+04  7.74701E+03 -2.11989E+04  1.81781E+04 -1.16223E+04  1.68830E+04  4.57524E+03
  6.98697E+03  1.22637E+04 -7.53459E+03  1.12376E+04 -1.42155E+04  2.52205E+03 -1.11693E+04 -8.62358E+03
 -2.27921E+02 -1.36309E+04  6.85927E+03 -1.01307E+04  8.93314E+03 -1.40210E+03  1.86330E+03  5.47844E+03
 -6.21490E+03  1.58098E+03 -4.57736E+03 -5.18716E+03  1.91354E+01 -1.12465E+04  8.57634E+03 -1.13778E+04
  1.39604E+04 -5.70211E+03  1.42540E+04  2.73897E+03  1.23028E+04  1.08189E+04  5.72631E+03  1.62857E+04
 -2.29063E+03  1.81480E+04 -1.16096E+04  1.16628E+04 -1.28270E+04  2.97020E+03 -8.97762E+03 -2.40720E+03
 -4.81906E+03 -3.81067E+03 -9.18913E+02  1.40336E+03 -2.03481E+03  2.02428E+03 -4.14058E+03  3.66809E+03
 -8.97031E+03 -3.69342E+02 -9.38295E+03 -7.98615E+03 -4.18267E+03 -1.27133E+04  3.96676E+03 -9.58989E+03
  8.04855E+03 -4.09674E+03  5.71476E+03  2.37497E+03  5.25077E+02  3.38908E+03 -4.20666E+03 -2.63439E+02
 -3.79050E+03 -5.71574E+03 -8.01127E+02 -8.34300E+03  4.58924E+03 -9.02375E+03  1.13187E+04 -4.43521E+03
  1.32943E+04  8.63447E+02  9.76458E+03  7.45470E+03  2.04552E+03  1.01249E+04 -5.98585E+03  9.18278E+03
 -7.68537E+03  3.08005E+03 -4.18974E+03 -1.38770E+03  1.02120E+03 -2.25378E+03  5.29083E+03 -8.49744E+02
  4.51625E+03  3.82087E+03  1.01667E+03  7.22432E+03 -5.01946E+03  7.24198E+03 -8.79541E+03  2.01446E+03
 -5.52495E+03 -4.11314E+03  4.98609E+02 -7.58334E+03  4.46333E+03 -3.87123E+03  4.28535E+03  1.22891E+03
  7.71660E+02  4.13366E+03 -4.45018E+03  5.60905E+03 -5.95094E+03  2.67144E+03 -5.88312E+03 -1.42904E+03
 -3.41870E+03 -7.16758E+03  1.36418E+03 -8.36130E+03  7.11588E+03 -5.46200E+03  7.70255E+03  1.28241E+03
  5.61079E+03  6.13364E+03 -4.25883E+01  8.17806E+03 -6.03995E+03  4.79175E+03 -6.21748E+03 -5.81831E+02
 -6.36173E+03 -5.69732E+03 -1.57296E+03 -5.80659E+03  2.88943E+03 -5.28053E+03  3.47383E+03 -3.28529E+03
  3.21929E+03  5.13280E+02 -3.78633E+02  1.37408E+03  2.46280E+02 -8.91603E+02  5.14776E+02 -2.59973E+03
  4.71803E+03 -1.41275E+03  6.76947E+03  9.83758E+02  7.00634E+03  4.07198E+03  5.65354E+03  8.85265E+03
 -1.73195E+03  1.00484E+04 -9.39052E+03  7.63645E+03 -1.16020E+04  1.31857E+03 -8.97033E+03 -3.38697E+03
 -4.86664E+03 -8.04757E+03 -3.16275E+02 -6.22171E+03  2.69560E+03 -3.06159E+03  2.23292E+03 -2.33897E+03
  1.46846E+03 -1.61243E+03  2.68907E+03 -2.56421E+03  4.21292E+03 -1.45957E+03  3.82212E+03  1.63258E+02
  4.97053E+03  1.18281E+03  1.66355E+03  4.08194E+03 -1.51816E+03  3.96901E+03 -5.46969E+03  3.31427E+03
 -6.08817E+03 -7.77226E+02 -2.58599E+03 -4.02372E+03  4.34396E+02 -6.28949E+03  3.77132E+03 -6.61393E+03
  6.35280E+03 -3.74362E+03  8.10563E+03  5.32066E+02  5.69870E+03  5.33715E+03  1.38960E+03  7.28296E+03
 -2.80438E+03  6.56003E+03 -4.14159E+03  1.98993E+03 -2.73598E+03 -1.18112E+03 -8.85547E+02 -6.84717E+02
 -4.56271E+02  2.79472E+02 -1.11080E+03  2.04074E+03 -3.17507E+03  1.48131E+03 -4.64193E+03 -4.51045E+02
 -2.15034E+03 -4.65278E+03  6.46804E+02 -5.57772E+03  3.32830E+03 -5.44494E+03  4.80902E+03 -1.04991E+03
  5.00999E+03  2.98984E+03  2.27366E+03  4.21002E+03 -1.23984E+03  5.37450E+03 -3.37315E+03  3.36594E+03
 -4.73911E+03  7.03199E+02 -4.02132E+03 -3.12969E+03 -1.47481E+02 -3.96518E+03  2.01718E+03 -3.14086E+03
  3.32449E+03 -1.51906E+03  2.18443E+03  7.21988E+02  5.84817E+02  2.02820E+03  8.10343E+02  7.27085E+02
  2.08788E+03  6.21781E+02  1.28353E+03  9.97919E+02  1.41866E+03  2.62979E+03  1.72215E+03  2.32696E+03
 -1.64842E+03  3.94624E+03 -3.27739E+03  4.95253E+03 -4.19891E+03  1.70535E+03 -5.11785E+03 -8.92731E+02
 -2.41631E+03 -4.57465E+03  7.56205E+02 -5.70367E+03  2.58828E+03 -3.28702E+03  3.85551E+03 -1.14513E+03
  2.98018E+03  2.09213E+03  3.78453E+02  2.97158E+03 -9.56152E+02  1.78831E+03 -1.45910E+03 -2.15421E+02
 -6.50010E+02 -1.94676E+03  1.74298E+03 -1.86680E+03  1.84215E+03 -1.13903E+03  1.74483E+03  2.82326E+02
  1.01552E+03  4.77365E+02  9.39813E+02 -1.78557E+02 -6.22984E+02  8.58173E+02  1.68265E+03 -3.20623E+02
 -7.40855E+01 -1.41617E+02  2.20832E+03  9.57393E+02  6.73533E+02  2.97690E+03 -3.56890E+02  3.34259E+03
 -2.30773E+03  1.43268E+03 -2.74667E+03  3.47816E+02 -2.69924E+03 -8.26087E+02 -3.52138E+02 -1.49591E+03
  3.69498E+02 -1.24382E+03  1.41291E+03 -7.63529E+02  9.75875E+02  1.58920E+03 -8.65522E+02  1.40229E+03
 -2.07934E+03  9.85738E+02 -1.53568E+03 -1.32007E+03 -1.14221E+03 -2.54740E+03  2.45011E+02 -2.34756E+03
  8.26948E+02 -8.47952E+02  9.44294E+02  2.53507E+02  1.71802E+03 -1.68065E+02  4.89654E+02  1.50797E+03
 -6.14865E+02  2.73321E+02 -1.26010E+03 -4.40467E+02  5.71908E+02 -1.41290E+03  1.99732E+03 -1.30265E+03
  1.95619E+03  2.45440E+02  3.45490E+03  1.24958E+03  9.57075E+02  2.32003E+03 -4.49562E+02  2.53484E+03
 -2.07510E+03  8.12220E+02 -1.93568E+03 -2.36530E+02 -9.14303E+02 -1.59708E+03  6.09702E+02 -1.02776E+03
  1.67982E+03 -9.15082E+02  1.22064E+03  5.83581E+02  1.47853E+02  1.32016E+03  1.92175E+02  1.48190E+03
 -3.84833E+02  1.18283E+03 -6.44268E+02  6.48265E+02 -2.15104E+02  2.60193E+02 -5.18073E+02  7.77697E+02
 -6.97415E+02  1.05313E+03 -2.17166E+03  7.26889E+02 -2.25192E+03  8.24509E+01 -3.08518E+03 -1.27527E+03
 -1.31689E+03 -3.24505E+03  6.95490E+02 -3.83297E+03  1.75889E+03 -3.07245E+03  3.74073E+03 -1.43342E+03
  3.13451E+03  3.30620E+01  1.84791E+03  1.93316E+03 -4.73397E+02  1.96446E+03 -1.09569E+03  1.88475E+03
 -1.21134E+03  9.60837E+02 -8.36149E+02 -3.31610E+02 -6.39029E+02  1.72143E+02 -6.54080E+02  3.78763E+02
 -1.44623E+03 -1.05265E+02 -7.84056E+02  1.32351E+02  1.45606E+02 -6.59073E+02 -1.28307E+02 -1.13343E+03
  1.37021E+03 -5.76033E+02  9.67669E+02  3.82744E+02  1.26281E+03  1.17983E+03 -4.53595E+02  1.76537E+03
 -1.10084E+03  3.15379E+03 -2.18253E+03  1.75767E+03 -2.46104E+03 -1.87886E+02 -1.50741E+03 -1.95135E+03
 -9.78529E+02 -1.99723E+03  7.35150E+02 -2.09525E+03  9.70149E+02 -8.52912E+02  9.18263E+02  9.84913E+01
  8.43127E+02  4.00773E+02 -1.15400E+02  9.00560E+02 -5.09956E+02 -1.52346E+02  2.65826E+00 -2.01155E+02
  5.02787E+02  1.61371E+02  4.77952E+02  3.67966E+02  3.28709E+02  6.21466E+02  5.43972E+02  5.96282E+02
 -8.23378E+02  7.34919E+02 -1.04413E+03 -5.24266E+01 -9.35699E+02 -7.24380E+02  3.60555E+02 -1.63744E+03
  4.96148E+02 -1.29804E+03  8.35080E+02 -7.36125E+01  1.26797E+03 -2.87279E+02  5.12226E+02  1.00076E+03
  3.90384E+02  8.15864E+02 -2.25224E+02  9.88937E+02 -8.16572E+02  6.10342E+02 -4.74845E+02  3.82612E+02
 -4.04565E+02 -1.92751E+01 -5.13350E+02  2.81914E+02 -8.33344E+02  2.83063E+02 -6.03833E+02 -1.60664E+02
 -1.41999E+03 -2.46826E+02 -2.75239E+02 -1.47167E+03  6.38519E+02 -1.99035E+03  9.84565E+02 -3.37145E+02
  1.29033E+03  7.86924E+01  3.61375E+01  8.84450E+02  5.38677E+01  9.69562E+02 -4.87736E+02  1.04604E+03
