 $NMID ID='MM_0lb_SNR800_19hz_g40_79.RAW', FMTDAT='(8E13.5)'
 TRAMP=1., VOLUME=1. $END
  3.09714E+05  5.86073E+02  3.37195E+05  2.50133E+05  8.42001E+04  3.37001E+05 -1.32474E+05  2.50058E+05
 -1.89743E+05  8.21144E+04 -1.10920E+05 -3.27430E+04  1.62685E+03 -5.02638E+04  5.39478E+04  2.99273E+02
  3.51155E+04  5.28444E+04 -1.66743E+04  7.44564E+04 -6.02069E+04  6.23554E+04 -8.29258E+04  3.11366E+04
 -7.91948E+04 -1.06764E+04 -5.57816E+04 -4.98413E+04 -1.48297E+04 -6.76584E+04  2.65876E+04 -4.43250E+04
  3.86879E+04  3.94426E+03  1.52064E+04  4.67546E+04 -3.36788E+04  4.57939E+04 -6.50029E+04 -8.05819E+02
 -5.15647E+04 -5.54953E+04 -6.37155E+03 -7.46107E+04  3.29013E+04 -5.24627E+04  4.56854E+04 -1.61122E+04
  4.09024E+04  1.06829E+04  3.02564E+04  2.43031E+04  1.53170E+04  2.78807E+04 -4.48496E+03  2.65566E+04
 -2.17784E+04  1.26969E+04 -1.95611E+04 -3.88883E+03  3.96105E+03 -7.34367E+03  2.09228E+04  1.05617E+04
  7.39782E+03  3.27446E+04 -2.97059E+04  3.36119E+04 -6.02474E+04  2.33279E+03 -5.48150E+04 -4.06641E+04
 -1.23801E+04 -6.00903E+04  3.76394E+04 -4.25957E+04  5.48514E+04 -1.64098E+03  3.10996E+04  2.98446E+04
 -6.51803E+03  3.23929E+04 -2.78892E+04  1.26392E+04 -2.65349E+04 -5.62710E+03 -1.38878E+04 -9.62446E+03
 -6.93306E+03 -1.06435E+04 -9.71535E+02 -1.61973E+04  6.50860E+03 -2.26646E+04  1.47471E+04 -1.40379E+04
  1.25142E+04  3.87979E+03 -5.46723E+03  1.31686E+04 -1.87236E+04 -1.89130E+03 -7.93685E+03 -2.94192E+04
  2.02474E+04 -3.95537E+04  4.35881E+04 -1.81684E+04  4.08349E+04  1.79825E+04  1.40888E+04  4.10982E+04
 -1.50215E+04  3.02496E+04 -2.28958E+04  7.47466E+02 -7.65422E+03 -2.58494E+04  2.03925E+04 -3.04781E+04
  3.68085E+04 -6.76317E+03  3.03178E+04  2.24774E+04  1.44615E+04  4.14198E+04 -7.85434E+03  4.36908E+04
 -2.75521E+04  2.84500E+04 -3.60148E+04  8.12243E+03 -3.70212E+04 -1.45438E+04 -2.07293E+04 -3.33287E+04
  6.77466E+03 -3.31602E+04  2.86797E+04 -1.20939E+04  2.62851E+04  1.06143E+04  2.67343E+03  1.75003E+04
 -1.28156E+04  6.86173E+03 -9.40453E+03 -7.75663E+03  6.05759E+03 -1.00075E+04  1.70596E+04  6.67425E+03
  1.19248E+04  2.14601E+04 -6.93681E+03  2.27502E+04 -2.13270E+04  8.39492E+03 -2.41857E+04 -6.84359E+03
 -1.55623E+04 -1.63452E+04 -5.03370E+03 -1.58270E+04  3.85429E+03 -1.33715E+04  1.17508E+04 -1.33759E+04
  2.01430E+04 -1.13829E+04  2.69102E+04  6.99384E+02  2.03143E+04  1.52650E+04  3.94905E+03  3.15303E+04
 -1.55091E+04  2.69423E+04 -2.51680E+04  9.18724E+03 -1.94318E+04 -1.06339E+04 -3.87654E+03 -1.39625E+04
  2.87479E+03 -4.32963E+03 -2.04874E+03  4.88025E+03 -1.22683E+04  5.20553E+03 -1.27806E+04 -4.40424E+03
 -8.21939E+03 -1.45137E+04  4.54360E+03 -1.86071E+04  1.18681E+04 -1.34094E+04  1.38660E+04 -1.44693E+03
  8.35972E+03  1.00181E+04 -7.71096E+02  1.48972E+04 -9.49563E+03  8.38952E+03 -1.45965E+04 -3.37977E+03
 -1.09240E+04 -1.34705E+04 -1.40403E+03 -1.80632E+04  8.34389E+03 -1.43750E+04  1.52237E+04 -6.70130E+03
  1.36392E+04  7.56123E+02  9.91025E+03  3.71166E+03  4.92074E+03  4.03042E+02  7.07241E+03 -1.13983E+03
  1.28177E+04  2.31662E+03  1.33764E+04  1.19729E+04  8.14002E+03  2.34183E+04 -3.18358E+03  2.50358E+04
 -1.49081E+04  1.88312E+04 -2.26054E+04  8.69792E+03 -2.30855E+04 -1.27015E+03 -1.98766E+04 -1.30830E+04
 -9.83837E+03 -1.87009E+04  5.90816E+03 -1.77458E+04  1.55597E+04 -1.02659E+04  1.47863E+04  2.99130E+03
  6.34744E+03  1.06574E+04 -6.74365E+03  1.00796E+04 -1.27888E+04  2.51000E+03 -9.91271E+03 -7.65171E+03
 -2.47220E+02 -1.15516E+04  5.77707E+03 -8.98195E+03  7.55998E+03 -1.46614E+03  1.23640E+03  4.60231E+03
 -5.39883E+03  1.10902E+03 -3.09528E+03 -4.19745E+03  7.50729E+02 -9.40458E+03  7.57465E+03 -9.29257E+03
  1.13394E+04 -4.13653E+03  1.09330E+04  2.81918E+03  9.39245E+03  8.87431E+03  4.70852E+03  1.31488E+04
 -1.43344E+03  1.47552E+04 -8.86556E+03  9.22710E+03 -1.01887E+04  3.02564E+03 -7.85004E+03 -1.56596E+03
 -4.23591E+03 -3.16949E+03 -9.07204E+02  1.70519E+03 -1.96586E+03  1.72879E+03 -3.10260E+03  3.49094E+03
 -7.65216E+03 -6.65355E+02 -8.30212E+03 -6.95612E+03 -3.56014E+03 -1.07849E+04  3.30853E+03 -7.76276E+03
  6.77216E+03 -3.51565E+03  5.11877E+03  2.01873E+03  6.90602E+02  2.86692E+03 -3.02335E+03 -2.40381E+02
 -2.93612E+03 -4.96502E+03 -7.72328E+02 -6.51100E+03  3.55094E+03 -7.45250E+03  9.00471E+03 -3.72860E+03
  1.08782E+04  3.70183E+02  8.02710E+03  5.58946E+03  1.98839E+03  7.91179E+03 -4.95316E+03  7.87527E+03
 -6.65330E+03  2.84988E+03 -3.42606E+03 -1.00557E+03  1.47352E+03 -1.45412E+03  4.51721E+03 -7.05182E+02
  4.17394E+03  3.03994E+03  9.12989E+02  5.83399E+03 -4.28285E+03  6.08498E+03 -7.31092E+03  1.69571E+03
 -4.43329E+03 -3.27235E+03  1.55186E+02 -6.25990E+03  3.08516E+03 -3.06381E+03  3.12875E+03  1.04963E+03
  4.23604E+02  2.59898E+03 -3.86878E+03  4.20991E+03 -4.27928E+03  2.32719E+03 -4.01424E+03 -8.60792E+02
 -2.25459E+03 -5.42405E+03  9.41237E+02 -6.18724E+03  5.20453E+03 -4.16125E+03  5.77644E+03  6.89825E+02
  4.14930E+03  4.94748E+03  2.24198E+02  6.83347E+03 -4.55539E+03  3.89992E+03 -4.82509E+03 -2.68013E+02
 -5.46306E+03 -4.88098E+03 -1.18644E+03 -4.43784E+03  2.25373E+03 -4.38451E+03  2.60912E+03 -2.91003E+03
  2.82931E+03  2.07111E+02  7.26241E+01  1.25280E+03  5.67334E+02 -3.50441E+01 -8.22288E+01 -1.68239E+03
  3.29474E+03 -3.56492E+02  4.71386E+03  6.61159E+02  4.91158E+03  2.83675E+03  5.01128E+03  6.31968E+03
 -1.09338E+03  7.48771E+03 -6.91290E+03  5.96047E+03 -9.05690E+03  9.26655E+02 -6.88439E+03 -2.11053E+03
 -3.99131E+03 -5.93697E+03 -4.52481E+02 -4.53435E+03  2.00679E+03 -1.47358E+03  1.34361E+03 -2.05443E+03
  1.27530E+03 -1.28950E+03  2.02427E+03 -2.50667E+03  3.31545E+03 -1.12343E+03  3.29685E+03  5.58696E+02
  4.37675E+03  1.03917E+03  1.01691E+03  3.24957E+03 -1.51840E+03  2.55633E+03 -4.18096E+03  2.28848E+03
 -4.42706E+03 -1.05757E+03 -1.36493E+03 -3.18390E+03  5.82802E+02 -4.62324E+03  2.77351E+03 -4.81084E+03
  4.54368E+03 -3.00294E+03  6.14557E+03  1.42278E+02  4.25697E+03  3.62114E+03  1.04568E+03  5.14116E+03
 -2.04023E+03  5.37365E+03 -3.21403E+03  1.85335E+03 -1.75600E+03 -1.07897E+03 -3.38850E+02 -1.67324E+02
 -4.81191E+02  4.34695E+02 -8.92494E+02  2.09268E+03 -2.33935E+03  8.56767E+02 -3.84543E+03 -3.70401E+02
 -1.19242E+03 -3.79166E+03  6.12861E+02 -4.22666E+03  2.41685E+03 -3.96464E+03  3.16524E+03 -8.91077E+02
  3.57823E+03  2.10099E+03  1.56501E+03  2.92882E+03 -2.74823E+02  4.02532E+03 -2.38465E+03  2.80139E+03
 -3.36023E+03  6.98496E+02 -2.91752E+03 -1.83593E+03 -2.57234E+02 -2.70726E+03  1.46055E+03 -2.15087E+03
  2.69363E+03 -1.27250E+03  1.35986E+03  5.66080E+02  3.34477E+02  1.38475E+03  1.06754E+03  5.73366E+02
  1.50800E+03  4.87225E+02  9.65444E+02  9.39993E+02  9.78781E+02  2.27676E+03  1.55124E+03  1.39398E+03
 -1.14958E+03  2.54691E+03 -2.03653E+03  3.77056E+03 -2.58377E+03  9.50356E+02 -4.02253E+03 -2.97666E+02
 -1.20796E+03 -3.45776E+03  5.58609E+02 -4.37835E+03  1.35365E+03 -2.26372E+03  2.97992E+03 -8.32606E+02
  2.32347E+03  1.65077E+03  1.60438E+02  1.95582E+03 -5.58074E+02  9.97460E+02 -8.36609E+02 -1.38822E+02
 -5.85986E+02 -1.48789E+03  1.06331E+03 -1.48547E+03  1.16565E+03 -9.30103E+02  1.17714E+03  2.50970E+02
  7.87670E+02  2.22309E+02  9.48067E+02 -2.80950E+02 -3.56455E+02  6.24017E+02  1.71595E+03 -2.36403E+02
 -1.62414E+02 -4.45183E+02  1.57720E+03  5.67455E+02  8.43556E+01  2.34745E+03 -8.54748E+01  2.71276E+03
 -1.29926E+03  1.06340E+03 -1.54277E+03  1.89404E+02 -2.14129E+03 -5.79035E+02 -2.05658E+02 -9.00546E+02
  2.42771E+02 -1.18372E+03  7.78658E+02 -4.99855E+02  5.73427E+02  1.21502E+03 -7.17790E+02  1.14806E+03
 -1.51565E+03  8.94778E+02 -1.02882E+03 -1.30530E+03 -6.54289E+02 -1.91518E+03  3.49198E+01 -1.36768E+03
  3.88359E+02 -3.50658E+02  3.82809E+02  2.68296E+02  1.17786E+03 -1.05046E+02  4.37803E+02  9.11147E+02
  9.04325E+01 -1.72616E+02 -9.11199E+02 -5.39668E+01  6.08221E+02 -8.14755E+02  1.56235E+03 -1.01448E+03
  1.06066E+03  3.93843E+02  2.67384E+03  7.47529E+02  1.05699E+03  1.40070E+03 -3.48694E+02  1.46992E+03
 -1.65310E+03 -4.31196E+01 -1.20381E+03 -7.34882E+01 -6.93889E+02 -1.21341E+03  8.48150E+01 -3.62096E+02
  1.28409E+03 -6.98739E+02  5.01801E+02  7.07258E+02  4.92605E+02  8.54972E+02  4.12845E+02  8.98404E+02
 -5.20243E+02  1.11350E+03 -3.12493E+02  3.43438E+02 -4.75155E+01  5.53515E+02 -8.69633E+02  6.27099E+02
 -5.18320E+02  1.01447E+03 -1.61004E+03  6.19490E+02 -1.53871E+03  1.58175E+02 -2.17749E+03 -9.25340E+02
 -1.03518E+03 -1.88132E+03  3.07831E+02 -2.70245E+03  6.24868E+02 -2.13619E+03  2.37135E+03 -7.20264E+02
  2.31921E+03 -1.01470E+02  1.05385E+03  1.41379E+03 -5.25934E+02  1.53478E+03 -7.07900E+02  1.11169E+03
 -8.88180E+02  8.19785E+02 -3.95912E+02 -3.65779E+02 -5.25079E+02  3.45315E+02 -5.76071E+02  1.40760E+01
 -1.10492E+03 -2.97923E+01 -9.22955E+02 -2.27866E+01  3.92046E+02 -8.80282E+02 -3.41690E+02 -9.79771E+02
  1.21329E+03 -5.42234E+02 -2.26450E+01 -2.40748E+01  1.08421E+03  9.10067E+02 -5.38982E+02  1.28285E+03
 -7.10581E+02  2.02534E+03 -1.37072E+03  1.34544E+03 -1.54015E+03  4.27250E+00 -1.09620E+03 -1.32396E+03
 -9.39761E+02 -9.92958E+02  4.79857E+02 -1.11957E+03  2.39766E+02 -5.65798E+02  5.67928E+02  1.80929E+02
  7.36006E+02  3.98463E+02 -9.53016E+01  1.58023E+02 -3.29995E+02  1.74147E+02 -1.59999E+02 -3.04827E+02
  5.27901E+02  3.50718E+02  1.20665E+02  5.03402E+02 -1.87917E+02  3.68385E+02  6.21973E+02  2.07245E+02
 -3.64705E+02  5.45971E+02 -4.39981E+02  3.97614E+02 -5.98007E+02 -3.67308E+02 -1.00058E+01 -9.12616E+02
  2.99035E+02 -4.59064E+02  3.45615E+02 -9.39484E+01  1.09640E+03 -5.82719E+02  5.48880E+02  6.15106E+02
  5.23491E+02  5.89880E+02  3.44057E+01  5.90769E+02 -5.28660E+02  6.36861E+02 -6.41018E+02 -1.22403E+01
 -2.27045E+02 -6.16178E+01 -6.68448E+02 -2.34832E+02 -6.08203E+02  5.15872E+01 -6.57727E+02 -1.37763E+02
 -1.16366E+03  3.86686E+02 -3.96429E+02 -8.93343E+02  7.36616E+02 -1.39411E+03  6.92179E+02 -9.06375E+01
  7.55674E+02  8.40986E+01 -4.10850E+01  3.28195E+02  1.38860E+02  7.29543E+02 -2.42628E+02  6.43689E+02
