 $NMID ID='MM_0lb_SNR800_9hz_g55_34.RAW', FMTDAT='(8E13.5)'
 TRAMP=1., VOLUME=1. $END
  3.10212E+05  5.47732E+02  3.37988E+05  2.50721E+05  8.52061E+04  3.38738E+05 -1.32395E+05  2.51898E+05
 -1.90594E+05  8.40726E+04 -1.12234E+05 -3.24254E+04  4.40939E+02 -5.05933E+04  5.36254E+04 -5.26656E+02
  3.57115E+04  5.30078E+04 -1.64351E+04  7.63497E+04 -6.14438E+04  6.40831E+04 -8.51559E+04  3.27602E+04
 -8.26092E+04 -1.18182E+04 -5.81242E+04 -5.27095E+04 -1.53147E+04 -7.09015E+04  2.83392E+04 -4.69544E+04
  4.12830E+04  3.69943E+03  1.69972E+04  4.84913E+04 -3.49506E+04  4.85076E+04 -6.83128E+04 -1.65895E+01
 -5.47526E+04 -5.80903E+04 -7.10941E+03 -7.93196E+04  3.46099E+04 -5.73526E+04  5.01659E+04 -1.86534E+04
  4.52674E+04  1.13350E+04  3.30869E+04  2.68447E+04  1.57918E+04  3.03100E+04 -5.63240E+03  2.80033E+04
 -2.24950E+04  1.17275E+04 -1.78998E+04 -5.58518E+03  7.09798E+03 -7.23162E+03  2.37599E+04  1.41465E+04
  7.23827E+03  3.76465E+04 -3.39122E+04  3.74181E+04 -6.59597E+04  2.31098E+03 -5.89979E+04 -4.43793E+04
 -1.28022E+04 -6.60146E+04  4.18985E+04 -4.74660E+04  6.15594E+04 -3.10118E+03  3.68966E+04  3.47165E+04
 -5.47557E+03  3.98881E+04 -3.16725E+04  1.89709E+04 -3.35780E+04 -3.67826E+03 -1.94912E+04 -1.21243E+04
 -9.71147E+03 -1.51670E+04 -3.46367E+02 -2.00304E+04  8.40086E+03 -2.40875E+04  1.62393E+04 -1.29296E+04
  1.01349E+04  6.35354E+03 -1.04943E+04  1.28166E+04 -2.35829E+04 -6.74649E+03 -8.27864E+03 -3.80642E+04
  2.53259E+04 -4.66985E+04  5.20870E+04 -2.12050E+04  4.93364E+04  2.08253E+04  1.72638E+04  4.72653E+04
 -1.67483E+04  3.63342E+04 -2.81250E+04  2.55287E+03 -1.19520E+04 -2.99190E+04  2.19577E+04 -3.74827E+04
  4.49478E+04 -1.15816E+04  4.09838E+04  2.49332E+04  2.16576E+04  5.14569E+04 -8.24452E+03  5.64444E+04
 -3.62674E+04  3.82793E+04 -4.81111E+04  1.15338E+04 -4.85313E+04 -1.86992E+04 -2.64750E+04 -4.27684E+04
  7.95610E+03 -4.27051E+04  3.44792E+04 -1.73586E+04  3.23233E+04  1.09571E+04  5.60786E+03  2.08104E+04
 -1.39198E+04  9.95056E+03 -1.18219E+04 -7.70634E+03  5.35680E+03 -1.18243E+04  1.90080E+04  5.51570E+03
  1.54429E+04  2.28339E+04 -5.10449E+03  2.71569E+04 -2.35392E+04  1.48711E+04 -3.19809E+04 -2.48922E+03
 -2.60071E+04 -1.85706E+04 -1.22299E+04 -2.53688E+04  4.49805E+03 -2.61848E+04  2.01890E+04 -2.35686E+04
  3.26959E+04 -1.44132E+04  3.86401E+04  4.99457E+03  2.71872E+04  2.45361E+04  4.47877E+03  4.20001E+04
 -1.99050E+04  3.45518E+04 -3.06829E+04  1.22309E+04 -2.25843E+04 -1.02218E+04 -5.11205E+03 -1.26927E+04
  3.83998E+02 -1.08058E+03 -7.76395E+03  8.27734E+03 -2.06410E+04  4.79249E+03 -2.06545E+04 -1.00742E+04
 -1.19046E+04 -2.40216E+04  6.46632E+03 -2.82819E+04  1.90466E+04 -2.03558E+04  2.27828E+04 -2.29779E+03
  1.51190E+04  1.61016E+04 -1.41834E+03  2.36700E+04 -1.68251E+04  1.37180E+04 -2.39048E+04 -5.61571E+03
 -1.74969E+04 -2.17684E+04 -2.19245E+03 -2.84043E+04  1.26894E+04 -2.39401E+04  2.34294E+04 -1.19624E+04
  2.27511E+04 -5.97286E+02  1.64308E+04  5.60924E+03  9.46571E+03  1.45000E+03  1.22998E+04 -2.08220E+03
  2.25109E+04  2.72749E+03  2.65552E+04  1.85099E+04  1.80148E+04  3.84061E+04 -2.98707E+03  4.50936E+04
 -2.59678E+04  3.81969E+04 -4.26738E+04  1.98221E+04 -4.60357E+04 -3.62958E+03 -3.68790E+04 -2.67490E+04
 -1.45763E+04 -3.84762E+04  1.34881E+04 -3.36020E+04  2.85138E+04 -1.57827E+04  2.46289E+04  8.10179E+03
  8.37617E+03  1.90063E+04 -1.22104E+04  1.62511E+04 -2.03629E+04  2.54450E+03 -1.54923E+04 -1.34292E+04
 -3.61412E+02 -1.96477E+04  1.06179E+04 -1.46385E+04  1.39402E+04 -9.05059E+02  3.47702E+03  9.08999E+03
 -8.73422E+03  4.30263E+03 -9.48322E+03 -7.01885E+03 -2.12388E+03 -1.84275E+04  1.21857E+04 -2.05928E+04
  2.33740E+04 -1.16373E+04  2.68251E+04  3.75472E+03  2.38393E+04  1.91809E+04  1.09516E+04  2.98182E+04
 -5.90344E+03  3.18505E+04 -2.09376E+04  1.99816E+04 -2.29511E+04  4.19701E+03 -1.55929E+04 -6.20966E+03
 -6.48197E+03 -7.25645E+03 -6.57634E+02  6.44582E+02 -2.57363E+03  3.87075E+03 -7.42556E+03  5.72302E+03
 -1.42999E+04 -7.54047E+02 -1.53520E+04 -1.17631E+04 -5.70474E+03 -1.97244E+04  6.86895E+03 -1.59412E+04
  1.33499E+04 -6.75363E+03  9.57955E+03  4.66909E+03 -2.58048E+02  6.41968E+03 -8.18466E+03 -6.09449E+02
 -7.85754E+03 -1.03648E+04 -1.38168E+03 -1.56709E+04  9.34724E+03 -1.64755E+04  2.08691E+04 -8.70681E+03
  2.44885E+04  2.31034E+03  1.73545E+04  1.44652E+04  3.58080E+03  1.94978E+04 -9.83912E+03  1.58087E+04
 -1.32568E+04  4.32798E+03 -6.50221E+03 -3.62715E+03  2.24557E+03 -4.49081E+03  8.69200E+03 -1.02737E+03
  8.07177E+03  7.12362E+03  9.13478E+02  1.27973E+04 -9.50850E+03  1.21642E+04 -1.62020E+04  2.69946E+03
 -1.08950E+04 -8.67453E+03  4.19384E+02 -1.37773E+04  8.95247E+03 -6.88832E+03  9.56803E+03  3.36282E+03
  2.12216E+03  1.04552E+04 -8.43302E+03  1.24055E+04 -1.41566E+04  5.37779E+03 -1.45494E+04 -5.82318E+03
 -8.46631E+03 -1.66173E+04  3.91195E+03 -1.88322E+04  1.60882E+04 -1.11719E+04  1.73285E+04  2.87218E+03
  1.01614E+04  1.34332E+04 -1.72049E+03  1.62126E+04 -1.18524E+04  9.48648E+03 -1.32209E+04 -1.09973E+03
 -1.10794E+04 -1.13616E+04 -1.67180E+03 -1.25224E+04  6.70920E+03 -9.32155E+03  7.78118E+03 -3.53525E+03
  5.03837E+03  2.19086E+03 -1.15489E+03  1.89545E+03 -1.03960E+03 -4.03293E+03  2.95556E+03 -7.92738E+03
  1.20349E+04 -5.12241E+03  1.71313E+04  2.17478E+03  1.62139E+04  1.16602E+04  1.04743E+04  2.16755E+04
 -5.03345E+03  2.47496E+04 -2.05295E+04  1.81454E+04 -2.66318E+04  3.08458E+03 -2.12242E+04 -9.57320E+03
 -1.02019E+04 -1.73531E+04 -2.46875E+02 -1.53086E+04  5.21040E+03 -8.92170E+03  5.34752E+03 -5.18036E+03
  4.22128E+03 -3.49407E+03  4.07869E+03 -4.13566E+03  5.80570E+03 -3.74579E+03  8.64237E+03 -1.33032E+03
  1.12314E+04  2.93649E+03  6.21815E+03  9.66654E+03 -2.53388E+03  1.15293E+04 -1.18479E+04  8.83660E+03
 -1.52801E+04 -9.98084E+02 -1.00796E+04 -1.07131E+04 -1.31916E+03 -1.68383E+04  9.05625E+03 -1.64585E+04
  1.73809E+04 -9.01409E+03  1.99604E+04  2.77541E+03  1.46003E+04  1.42531E+04  1.93622E+03  1.81430E+04
 -7.65863E+03  1.45015E+04 -1.06231E+04  5.28962E+03 -7.49200E+03 -1.75430E+03 -3.05461E+03 -2.30690E+03
 -1.21588E+03 -4.50388E+02 -2.41026E+03  2.76648E+03 -6.72572E+03  2.48753E+03 -1.06217E+04 -1.30743E+03
 -7.68263E+03 -1.03210E+04 -7.22687E+02 -1.48961E+04  9.26679E+03 -1.37237E+04  1.55053E+04 -4.69220E+03
  1.51980E+04  7.32407E+03  7.23852E+03  1.41453E+04 -2.91487E+03  1.55825E+04 -1.12320E+04  9.59353E+03
 -1.47289E+04  5.45937E+02 -1.11271E+04 -9.16317E+03 -1.21295E+03 -1.33765E+04  6.68572E+03 -9.58253E+03
  9.98435E+03 -2.77774E+03  6.82277E+03  2.85834E+03  2.35596E+03  4.48242E+03  1.24122E+03  2.32144E+03
  2.80360E+03  7.99044E+02  3.68607E+03  1.94369E+03  4.58812E+03  5.22171E+03  3.84583E+03  8.22501E+03
 -2.89493E+03  1.20043E+04 -1.11582E+04  1.24415E+04 -1.60205E+04  3.50697E+03 -1.60760E+04 -6.78272E+03
 -7.90894E+03 -1.54589E+04  2.44023E+03 -1.70264E+04  9.88227E+03 -1.09366E+04  1.27544E+04 -2.83625E+03
  9.96855E+03  5.74157E+03  2.25596E+03  9.04529E+03 -4.38910E+03  5.66755E+03 -6.81716E+03 -1.30632E+03
 -2.77495E+03 -6.83188E+03  3.74570E+03 -6.86005E+03  6.56235E+03 -3.60737E+03  6.50882E+03  1.59621E+03
  3.93763E+03  3.55238E+03  8.88978E+02  2.55114E+03 -8.79504E+02  2.51172E+03  2.06800E+03 -5.60196E+02
  2.24987E+03 -7.63950E+02  6.23047E+03  2.15590E+03  3.77395E+03  8.46697E+03 -1.22780E+03  1.08107E+04
 -7.51951E+03  6.86559E+03 -9.94897E+03  2.11910E+03 -9.30701E+03 -3.74676E+03 -3.51127E+03 -6.41286E+03
  7.88165E+02 -6.20190E+03  4.05183E+03 -2.98270E+03  3.58182E+03  3.12352E+03 -1.59234E+03  4.97234E+03
 -6.44490E+03  2.57080E+03 -7.65103E+03 -3.48971E+03 -4.26644E+03 -8.56116E+03  1.15284E+03 -8.80257E+03
  5.61846E+03 -5.57291E+03  6.33587E+03 -5.13660E+02  5.27372E+03  2.37809E+03  9.01410E+02  5.23950E+03
 -3.08502E+03  1.51039E+03 -4.09452E+03 -3.23363E+03  1.54810E+03 -6.68168E+03  7.89013E+03 -5.37052E+03
  1.03057E+04  8.99985E+02  9.54346E+03  6.94311E+03  3.29755E+03  1.05653E+04 -3.76654E+03  9.63774E+03
 -8.82046E+03  4.45656E+03 -8.71311E+03 -1.49942E+03 -4.95719E+03 -7.02144E+03  1.50657E+03 -6.64774E+03
  6.54899E+03 -3.20026E+03  5.96394E+03  2.87416E+03  2.06303E+03  5.41158E+03 -8.10623E+02  5.11108E+03
 -2.73302E+03  3.28120E+03 -2.53991E+03  1.07475E+03 -1.11923E+03  1.38214E+03 -1.80340E+03  2.09583E+03
 -2.31240E+03  4.13075E+03 -7.17584E+03  3.78500E+03 -1.02100E+04  4.97075E+01 -1.16916E+04 -6.85222E+03
 -6.25952E+03 -1.37944E+04  2.96774E+03 -1.58893E+04  9.73231E+03 -1.25727E+04  1.50284E+04 -4.87999E+03
  1.42449E+04  2.75416E+03  8.42942E+03  9.53823E+03  9.43536E+02  1.07156E+04 -4.52806E+03  7.61971E+03
 -6.24150E+03  2.81349E+03 -3.78151E+03 -1.27483E+03 -1.43741E+03 -1.00740E+03 -5.09168E+02 -2.91867E+02
 -1.72147E+03  4.50560E+02 -2.47972E+03 -3.24065E+02 -8.33037E+02 -2.76089E+03  5.05304E+02 -4.06340E+03
  4.91331E+03 -3.29933E+03  6.51703E+03  1.65744E+01  7.59345E+03  5.69401E+03  1.87704E+03  1.09748E+04
 -5.23790E+03  1.26934E+04 -1.18633E+04  6.97125E+03 -1.29392E+04 -1.12482E+03 -9.77596E+03 -8.06031E+03
 -4.13448E+03 -1.13597E+04  2.80668E+03 -9.99096E+03  6.90545E+03 -5.32867E+03  7.22703E+03  2.02727E+02
  3.87035E+03  3.57043E+03 -1.18443E+02  3.20493E+03 -2.38905E+03  9.78623E+01 -1.13504E+02 -2.94962E+03
  3.76422E+03 -1.89902E+03  4.11565E+03  1.11272E+03  3.01856E+03  4.24171E+03  3.24872E+02  5.98134E+03
 -5.09665E+03  4.96345E+03 -7.33964E+03  5.49866E+02 -6.74310E+03 -4.85793E+03 -4.81515E+02 -8.83224E+03
  4.91081E+03 -7.59329E+03  8.82474E+03 -2.27498E+03  8.54254E+03  2.35217E+03  4.97539E+03  6.47342E+03
  7.71060E+02  7.14227E+03 -2.52600E+03  5.45413E+03 -4.81471E+03  3.53693E+03 -3.68940E+03  4.85199E+02
 -1.92916E+03 -2.78780E+02 -2.07062E+03  9.48848E+02 -3.61016E+03  1.30624E+03 -5.78296E+03 -1.47541E+03
 -5.13034E+03 -3.81821E+03 -1.63664E+03 -7.14300E+03  3.22376E+03 -7.77471E+03  6.65929E+03 -3.54477E+03
  7.23042E+03  1.08242E+03  4.13012E+03  5.48938E+03 -7.69145E+02  7.42801E+03 -5.72476E+03  5.27502E+03
