 $NMID ID='MM_0lb_SNR800_11hz_g40_36.RAW', FMTDAT='(8E13.5)'
 TRAMP=1., VOLUME=1. $END
  3.09811E+05  4.12396E+02  3.37366E+05  2.50539E+05  8.48688E+04  3.37921E+05 -1.32840E+05  2.51773E+05
 -1.90409E+05  8.32040E+04 -1.11864E+05 -3.26473E+04  7.00109E+02 -5.06472E+04  5.39855E+04  1.15225E+02
  3.54126E+04  5.29810E+04 -1.65475E+04  7.60283E+04 -6.10103E+04  6.40702E+04 -8.43679E+04  3.21781E+04
 -8.13897E+04 -1.14357E+04 -5.75208E+04 -5.17389E+04 -1.49031E+04 -7.01241E+04  2.76370E+04 -4.60979E+04
  4.05708E+04  3.65871E+03  1.66349E+04  4.79461E+04 -3.47903E+04  4.80885E+04 -6.74516E+04 -1.89425E+02
 -5.39727E+04 -5.68276E+04 -6.81264E+03 -7.77895E+04  3.39840E+04 -5.59045E+04  4.86996E+04 -1.79638E+04
  4.39032E+04  1.14304E+04  3.20964E+04  2.59057E+04  1.59990E+04  3.00162E+04 -5.35031E+03  2.74471E+04
 -2.22057E+04  1.19522E+04 -1.84334E+04 -5.12465E+03  5.92452E+03 -7.81504E+03  2.29493E+04  1.27864E+04
  7.31778E+03  3.58311E+04 -3.27920E+04  3.57864E+04 -6.42054E+04  2.29649E+03 -5.75951E+04 -4.36151E+04
 -1.21809E+04 -6.45316E+04  4.05688E+04 -4.60875E+04  5.92337E+04 -2.05622E+03  3.48525E+04  3.32945E+04
 -5.84758E+03  3.70325E+04 -3.06369E+04  1.69742E+04 -3.16595E+04 -4.20158E+03 -1.72764E+04 -1.09594E+04
 -8.71441E+03 -1.40462E+04 -4.12959E+02 -1.85416E+04  7.64637E+03 -2.31078E+04  1.56209E+04 -1.29751E+04
  1.11503E+04  5.69131E+03 -9.61745E+03  1.30343E+04 -2.17917E+04 -5.36011E+03 -8.83594E+03 -3.50494E+04
  2.36402E+04 -4.45372E+04  4.93751E+04 -2.01493E+04  4.63775E+04  2.01944E+04  1.63367E+04  4.52844E+04
 -1.63125E+04  3.45688E+04 -2.63390E+04  2.31091E+03 -1.03828E+04 -2.83808E+04  2.12068E+04 -3.49937E+04
  4.23529E+04 -1.01960E+04  3.76903E+04  2.43128E+04  1.92740E+04  4.81288E+04 -8.24192E+03  5.25404E+04
 -3.25850E+04  3.50472E+04 -4.43183E+04  1.03886E+04 -4.44620E+04 -1.75512E+04 -2.48842E+04 -3.97715E+04
  7.22537E+03 -3.94842E+04  3.25328E+04 -1.56932E+04  3.05211E+04  1.11250E+04  4.37927E+03  2.00502E+04
 -1.35883E+04  8.99163E+03 -1.06918E+04 -7.77193E+03  5.74582E+03 -1.11315E+04  1.84689E+04  5.99038E+03
  1.40780E+04  2.21969E+04 -5.52992E+03  2.58744E+04 -2.28850E+04  1.26836E+04 -2.96647E+04 -4.16011E+03
 -2.21555E+04 -1.75727E+04 -9.52903E+03 -2.20876E+04  4.46223E+03 -2.22337E+04  1.74648E+04 -2.01016E+04
  2.86583E+04 -1.34321E+04  3.46934E+04  3.57085E+03  2.52109E+04  2.18973E+04  4.71479E+03  3.85542E+04
 -1.84657E+04  3.16786E+04 -2.92792E+04  1.08653E+04 -2.14779E+04 -1.03266E+04 -4.24184E+03 -1.33434E+04
  1.58284E+03 -1.72828E+03 -5.68928E+03  7.40212E+03 -1.81378E+04  5.13960E+03 -1.78661E+04 -8.06093E+03
 -1.06950E+04 -2.07189E+04  5.66876E+03 -2.48099E+04  1.68609E+04 -1.82235E+04  1.99718E+04 -2.13010E+03
  1.24758E+04  1.41027E+04 -1.00787E+03  2.08297E+04 -1.46672E+04  1.21303E+04 -2.12579E+04 -4.36383E+03
 -1.55033E+04 -1.86893E+04 -2.08346E+03 -2.48467E+04  1.13077E+04 -2.06095E+04  2.08348E+04 -1.02579E+04
  1.93324E+04  1.49509E+02  1.43861E+04  4.72292E+03  7.72135E+03  1.21546E+03  1.07848E+04 -1.93792E+03
  1.93980E+04  3.03923E+03  2.16813E+04  1.62692E+04  1.47883E+04  3.30285E+04 -2.79696E+03  3.83983E+04
 -2.19519E+04  3.12118E+04 -3.55309E+04  1.61971E+04 -3.79509E+04 -2.98291E+03 -3.09357E+04 -2.22662E+04
 -1.27913E+04 -3.12973E+04  1.08459E+04 -2.78449E+04  2.42340E+04 -1.37695E+04  2.12244E+04  6.40649E+03
  7.51121E+03  1.62432E+04 -1.01963E+04  1.37413E+04 -1.79378E+04  2.58783E+03 -1.35832E+04 -1.13140E+04
 -2.09318E+02 -1.69148E+04  8.95301E+03 -1.27392E+04  1.13535E+04 -1.39582E+03  3.12883E+03  7.67418E+03
 -7.39120E+03  3.10522E+03 -7.24622E+03 -6.18640E+03 -5.62811E+02 -1.52051E+04  1.06629E+04 -1.65893E+04
  1.91467E+04 -9.60705E+03  2.15254E+04  3.26583E+03  1.87634E+04  1.52244E+04  8.59923E+03  2.40643E+04
 -4.14847E+03  2.58328E+04 -1.66727E+04  1.62658E+04 -1.85221E+04  3.58769E+03 -1.29317E+04 -4.58599E+03
 -5.71269E+03 -5.98953E+03 -7.06807E+02  1.22886E+03 -2.67661E+03  2.98324E+03 -5.92720E+03  4.89706E+03
 -1.23181E+04 -1.09265E+03 -1.24735E+04 -1.03428E+04 -5.30992E+03 -1.68106E+04  5.38154E+03 -1.32149E+04
  1.11366E+04 -5.46099E+03  7.57916E+03  3.53473E+03 -9.89768E+01  4.96156E+03 -6.37909E+03 -1.24264E+01
 -6.20552E+03 -8.04469E+03 -1.09120E+03 -1.23578E+04  7.17928E+03 -1.37056E+04  1.65055E+04 -7.26961E+03
  1.93686E+04  2.03728E+03  1.41165E+04  1.14750E+04  2.65360E+03  1.55102E+04 -8.27686E+03  1.34164E+04
 -1.05972E+04  4.02042E+03 -5.41672E+03 -2.72009E+03  1.84713E+03 -3.95308E+03  7.08780E+03 -9.73920E+02
  6.20672E+03  5.89804E+03  1.17784E+03  1.04805E+04 -7.44430E+03  1.01576E+04 -1.28222E+04  2.26554E+03
 -8.94240E+03 -6.72502E+03  4.70698E+02 -1.09322E+04  7.20720E+03 -5.58134E+03  7.20363E+03  2.73936E+03
  1.44202E+03  7.64255E+03 -6.88056E+03  9.26668E+03 -1.03079E+04  4.00482E+03 -1.06346E+04 -3.72359E+03
 -6.08541E+03 -1.20780E+04  3.19456E+03 -1.44355E+04  1.23105E+04 -9.02127E+03  1.33061E+04  2.24956E+03
  7.72036E+03  1.03357E+04 -9.85717E+02  1.25483E+04 -9.47739E+03  7.03733E+03 -1.03426E+04 -1.32663E+03
 -9.18215E+03 -8.64604E+03 -1.86228E+03 -9.79036E+03  4.75660E+03 -7.50725E+03  5.95257E+03 -3.72452E+03
  4.45648E+03  1.51884E+03 -6.33918E+02  1.54013E+03 -2.16344E+02 -2.39416E+03  1.82515E+03 -5.55451E+03
  8.57730E+03 -3.65022E+03  1.24634E+04  1.39098E+03  1.21077E+04  7.80938E+03  8.44681E+03  1.59360E+04
 -3.64555E+03  1.82948E+04 -1.51711E+04  1.39365E+04 -1.98274E+04  2.57881E+03 -1.59963E+04 -6.77210E+03
 -8.28433E+03 -1.32887E+04 -1.34654E+01 -1.09140E+04  3.80480E+03 -6.01673E+03  3.90972E+03 -3.80964E+03
  2.94560E+03 -2.30690E+03  3.39726E+03 -3.57813E+03  4.95099E+03 -3.00085E+03  6.66837E+03 -7.33838E+02
  8.47875E+03  2.14804E+03  4.05804E+03  7.34225E+03 -2.00504E+03  8.02271E+03 -9.19224E+03  6.12975E+03
 -1.15131E+04 -1.17970E+03 -6.66723E+03 -7.98439E+03 -7.40176E+02 -1.19431E+04  6.93699E+03 -1.20404E+04
  1.21803E+04 -6.92853E+03  1.49719E+04  1.94111E+03  1.04804E+04  1.01177E+04  1.55287E+03  1.33722E+04
 -5.65807E+03  1.14338E+04 -7.89929E+03  3.89623E+03 -5.22140E+03 -1.30379E+03 -2.45019E+03 -1.89773E+03
 -1.10561E+03  3.22165E+01 -1.60388E+03  2.87736E+03 -4.91560E+03  2.05932E+03 -7.71805E+03 -1.01480E+03
 -5.57711E+03 -7.88413E+03  2.97926E+02 -1.11242E+04  6.90457E+03 -1.01679E+04  1.03817E+04 -2.98650E+03
  1.10219E+04  5.37107E+03  5.21255E+03  9.55099E+03 -2.27345E+03  1.12421E+04 -7.93578E+03  6.87903E+03
 -1.04671E+04 -3.36420E+00 -8.32397E+03 -6.48227E+03 -5.09210E+02 -9.02905E+03  4.71786E+03 -6.93779E+03
  6.96962E+03 -2.38327E+03  4.83748E+03  1.81606E+03  1.23521E+03  3.45346E+03  1.03495E+03  1.32829E+03
  2.18724E+03  9.03762E+02  2.29451E+03  1.56919E+03  3.49770E+03  4.02413E+03  2.68276E+03  5.38235E+03
 -2.49001E+03  8.61263E+03 -7.73504E+03  9.01757E+03 -1.09823E+04  2.84073E+03 -1.09111E+04 -4.21330E+03
 -5.26965E+03 -1.02347E+04  1.25388E+03 -1.20783E+04  6.54919E+03 -7.75250E+03  8.51696E+03 -2.17955E+03
  7.00948E+03  4.12625E+03  1.27082E+03  6.24782E+03 -3.09175E+03  3.77645E+03 -4.53800E+03 -4.82983E+02
 -2.08980E+03 -4.63782E+03  2.48113E+03 -4.69153E+03  4.69888E+03 -2.24044E+03  4.54865E+03  9.72120E+02
  2.43304E+03  2.25969E+03  1.09201E+03  1.33517E+03 -6.35651E+02  1.96774E+03  1.57943E+03 -5.33929E+02
  1.40495E+03 -7.30262E+02  4.68888E+03  2.04862E+03  2.32816E+03  5.96045E+03 -7.70832E+02  7.82541E+03
 -5.07862E+03  4.58160E+03 -6.79844E+03  1.45321E+03 -6.12054E+03 -2.72270E+03 -2.46121E+03 -3.94884E+03
  3.65100E+02 -4.20110E+03  2.88470E+03 -2.19114E+03  2.47942E+03  2.31674E+03 -9.14282E+02  3.69912E+03
 -4.47281E+03  2.00546E+03 -5.33070E+03 -2.60190E+03 -2.52781E+03 -5.94397E+03  3.48822E+02 -5.77560E+03
  3.44191E+03 -3.18347E+03  4.55539E+03 -3.45861E+02  3.62243E+03  1.39896E+03  7.58947E+02  3.53514E+03
 -1.86309E+03  1.33672E+03 -2.87107E+03 -2.06304E+03  8.89091E+02 -4.01434E+03  4.88532E+03 -3.65088E+03
  6.76624E+03  5.36839E+02  6.67543E+03  4.23455E+03  2.24793E+03  6.78957E+03 -2.45989E+03  6.41821E+03
 -5.81151E+03  2.47942E+03 -5.57466E+03 -1.03286E+03 -3.18019E+03 -4.53073E+03  1.35071E+03 -3.56587E+03
  4.38706E+03 -1.89760E+03  3.67075E+03  1.93213E+03  1.16535E+03  3.72375E+03 -2.23575E+02  3.36482E+03
 -1.22206E+03  2.34379E+03 -1.61872E+03  7.09294E+02 -7.39900E+02  8.79226E+02 -1.39305E+03  1.11203E+03
 -1.99158E+03  2.76146E+03 -4.75932E+03  2.41165E+03 -6.59762E+03  7.48640E+01 -7.54117E+03 -4.44567E+03
 -4.09710E+03 -8.74862E+03  1.93696E+03 -1.04453E+04  5.92274E+03 -8.44182E+03  9.79857E+03 -3.09645E+03
  8.60995E+03  1.74033E+03  5.54698E+03  6.05345E+03  4.29911E+02  6.91017E+03 -2.92275E+03  5.11359E+03
 -3.85564E+03  1.98258E+03 -2.21802E+03 -1.19987E+03 -1.07531E+03 -6.99914E+02 -7.23005E+02  5.31042E+01
 -1.51867E+03  3.10404E+02 -1.48438E+03 -6.54645E+01 -3.49996E+02 -1.66497E+03 -2.27699E+02 -2.89116E+03
  3.54254E+03 -2.11683E+03  4.11590E+03  5.99361E+01  5.06002E+03  3.65419E+03  8.73885E+02  6.40165E+03
 -3.30132E+03  7.88917E+03 -7.26967E+03  4.29609E+03 -8.56223E+03 -6.61948E+02 -5.80161E+03 -4.83043E+03
 -2.80772E+03 -6.75570E+03  1.26901E+03 -6.07820E+03  4.15737E+03 -3.61099E+03  4.47911E+03  3.58335E-01
  2.54263E+03  2.02992E+03  9.26510E+01  1.78436E+03 -1.37221E+03 -1.47862E+02 -3.91259E+01 -1.59085E+03
  2.17344E+03 -7.99261E+02  2.82507E+03  9.79989E+02  1.80081E+03  3.15341E+03  3.82866E+02  3.56742E+03
 -2.80026E+03  2.95165E+03 -4.15609E+03  3.68576E+02 -3.86620E+03 -3.38171E+03 -5.55438E+02 -5.60520E+03
  2.97423E+03 -4.44460E+03  4.77301E+03 -1.37872E+03  5.16880E+03  9.00778E+02  2.87132E+03  4.12406E+03
  1.02350E+03  4.21032E+03 -1.89233E+03  3.37330E+03 -2.48846E+03  2.19698E+03 -2.42359E+03  1.60265E+02
 -1.17756E+03  2.10476E+02 -1.06060E+03  5.63061E+02 -2.27004E+03  5.71949E+02 -3.46282E+03 -7.72617E+02
 -3.64754E+03 -1.78918E+03 -1.32230E+03 -4.77791E+03  2.11282E+03 -4.98917E+03  4.07605E+03 -2.13025E+03
  4.33774E+03  7.26851E+02  2.22381E+03  3.08486E+03 -2.43698E+02  3.94623E+03 -3.46357E+03  2.99155E+03
