 $NMID ID='MM_0lb_SNR800_18hz_g45_64.RAW', FMTDAT='(8E13.5)'
 TRAMP=1., VOLUME=1. $END
  3.09843E+05  4.73425E+02  3.37209E+05  2.50458E+05  8.43582E+04  3.37361E+05 -1.32432E+05  2.50345E+05
 -1.89698E+05  8.27151E+04 -1.10895E+05 -3.29152E+04  1.46637E+03 -5.02820E+04  5.38060E+04  2.18077E+01
  3.49574E+04  5.28860E+04 -1.67431E+04  7.50210E+04 -6.01279E+04  6.27686E+04 -8.30296E+04  3.16978E+04
 -7.98788E+04 -1.09049E+04 -5.62189E+04 -5.02602E+04 -1.50991E+04 -6.84940E+04  2.67209E+04 -4.47638E+04
  3.92207E+04  3.71520E+03  1.53929E+04  4.71707E+04 -3.38428E+04  4.63742E+04 -6.53690E+04 -3.81481E+02
 -5.19676E+04 -5.60246E+04 -6.40634E+03 -7.50605E+04  3.32679E+04 -5.31125E+04  4.62659E+04 -1.64211E+04
  4.17162E+04  1.12576E+04  3.03055E+04  2.42901E+04  1.59530E+04  2.83745E+04 -4.76512E+03  2.67761E+04
 -2.17688E+04  1.28824E+04 -1.91154E+04 -4.26602E+03  4.28980E+03 -7.63957E+03  2.15107E+04  1.09720E+04
  7.23919E+03  3.32770E+04 -3.05543E+04  3.43646E+04 -6.12334E+04  1.99287E+03 -5.54751E+04 -4.13046E+04
 -1.23716E+04 -6.12292E+04  3.78146E+04 -4.35437E+04  5.58031E+04 -2.05596E+03  3.20682E+04  3.04874E+04
 -6.66394E+03  3.32370E+04 -2.85424E+04  1.32756E+04 -2.77608E+04 -5.27599E+03 -1.44862E+04 -9.94314E+03
 -7.47761E+03 -1.16056E+04 -9.79616E+02 -1.69535E+04  6.55265E+03 -2.24499E+04  1.52589E+04 -1.39434E+04
  1.22602E+04  4.13339E+03 -6.33408E+03  1.29362E+04 -1.92245E+04 -2.58415E+03 -7.97106E+03 -3.06275E+04
  2.07958E+04 -4.05868E+04  4.48165E+04 -1.84162E+04  4.21749E+04  1.84281E+04  1.45376E+04  4.18906E+04
 -1.52496E+04  3.12112E+04 -2.39550E+04  1.29291E+03 -8.04575E+03 -2.63547E+04  2.07055E+04 -3.14598E+04
  3.83627E+04 -7.55190E+03  3.16632E+04  2.26774E+04  1.57533E+04  4.25452E+04 -7.63371E+03  4.58278E+04
 -2.87941E+04  3.01260E+04 -3.76882E+04  8.32119E+03 -3.84163E+04 -1.53327E+04 -2.11589E+04 -3.46078E+04
  6.82308E+03 -3.47422E+04  2.95168E+04 -1.29135E+04  2.72241E+04  1.06362E+04  3.01891E+03  1.81233E+04
 -1.31748E+04  7.19449E+03 -9.65711E+03 -7.73152E+03  5.92448E+03 -1.02279E+04  1.72041E+04  6.56566E+03
  1.25690E+04  2.17016E+04 -6.59621E+03  2.31108E+04 -2.16218E+04  9.37272E+03 -2.51064E+04 -6.21573E+03
 -1.68256E+04 -1.63989E+04 -5.50620E+03 -1.67995E+04  3.84810E+03 -1.50018E+04  1.25215E+04 -1.46592E+04
  2.15840E+04 -1.15309E+04  2.82373E+04  1.08225E+03  2.14289E+04  1.65710E+04  3.97021E+03  3.27127E+04
 -1.60663E+04  2.78257E+04 -2.63044E+04  9.85935E+03 -1.96139E+04 -1.05535E+04 -3.90991E+03 -1.41471E+04
  2.50535E+03 -3.99792E+03 -2.81777E+03  5.49903E+03 -1.30446E+04  5.13009E+03 -1.35148E+04 -5.08840E+03
 -8.59862E+03 -1.58246E+04  4.54805E+03 -1.97234E+04  1.27375E+04 -1.39527E+04  1.44977E+04 -1.42663E+03
  9.13593E+03  1.09869E+04 -8.87033E+02  1.56979E+04 -1.06174E+04  8.93199E+03 -1.57356E+04 -3.60884E+03
 -1.18444E+04 -1.41485E+04 -1.42258E+03 -1.93451E+04  8.69376E+03 -1.55473E+04  1.63017E+04 -7.51250E+03
  1.49175E+04  9.34073E+02  1.05773E+04  3.94933E+03  5.28712E+03  5.06643E+02  7.90139E+03 -1.66780E+03
  1.40697E+04  2.64325E+03  1.50502E+04  1.29461E+04  9.13713E+03  2.51387E+04 -3.14925E+03  2.69699E+04
 -1.61071E+04  2.04985E+04 -2.47306E+04  9.88598E+03 -2.54425E+04 -1.72558E+03 -2.15908E+04 -1.44718E+04
 -1.02835E+04 -2.07205E+04  7.21174E+03 -1.92890E+04  1.69547E+04 -1.09547E+04  1.55669E+04  3.89007E+03
  6.52586E+03  1.13778E+04 -7.20568E+03  1.04785E+04 -1.35311E+04  2.52824E+03 -1.03064E+04 -8.00457E+03
 -1.44558E+02 -1.24858E+04  6.26318E+03 -9.80894E+03  7.87485E+03 -1.69758E+03  1.26373E+03  4.81131E+03
 -5.49109E+03  1.29160E+03 -3.77410E+03 -4.59917E+03  4.17794E+02 -1.04597E+04  7.69613E+03 -1.01895E+04
  1.26859E+04 -4.84388E+03  1.22947E+04  2.78878E+03  1.06781E+04  9.63824E+03  5.26538E+03  1.44390E+04
 -1.73354E+03  1.60454E+04 -9.91174E+03  1.02762E+04 -1.12613E+04  3.04636E+03 -8.54658E+03 -1.95971E+03
 -4.65449E+03 -3.24390E+03 -9.39383E+02  1.39910E+03 -1.83553E+03  2.21290E+03 -3.47523E+03  3.57709E+03
 -8.05231E+03 -4.31903E+02 -8.85092E+03 -7.17920E+03 -3.81638E+03 -1.15466E+04  3.58977E+03 -8.63659E+03
  7.31238E+03 -3.85663E+03  5.39201E+03  2.20799E+03  6.43480E+02  3.39121E+03 -3.39198E+03 -4.32898E+01
 -3.50538E+03 -5.52258E+03 -7.60987E+02 -7.55869E+03  4.12244E+03 -8.23664E+03  1.00535E+04 -4.22826E+03
  1.21610E+04  6.83553E+02  9.03078E+03  6.35210E+03  1.70568E+03  8.89248E+03 -5.17202E+03  8.38872E+03
 -6.89025E+03  2.89035E+03 -3.55601E+03 -1.47960E+03  1.72665E+03 -2.05457E+03  4.96566E+03 -9.44551E+02
  4.23874E+03  3.62577E+03  1.01348E+03  6.69656E+03 -4.62163E+03  6.54479E+03 -7.88265E+03  2.08916E+03
 -4.89417E+03 -3.99168E+03  5.86583E+02 -6.95819E+03  3.67359E+03 -3.56030E+03  3.91131E+03  1.16531E+03
  5.96442E+02  3.65697E+03 -4.04038E+03  5.03216E+03 -5.06275E+03  2.24496E+03 -4.75974E+03 -1.25604E+03
 -3.03089E+03 -6.27883E+03  1.26421E+03 -7.27516E+03  5.96063E+03 -4.73535E+03  6.67304E+03  1.13954E+03
  4.67646E+03  5.48435E+03  2.18755E+02  7.50098E+03 -5.27209E+03  4.14584E+03 -5.52186E+03 -3.10036E+02
 -5.71704E+03 -5.31034E+03 -1.53889E+03 -5.12731E+03  2.71775E+03 -4.57099E+03  2.93551E+03 -2.93485E+03
  2.85991E+03  2.71290E+02 -5.74908E+01  1.27616E+03  3.47720E+02 -1.77762E+02  1.05182E+02 -1.99876E+03
  3.98112E+03 -7.07542E+02  5.51561E+03  5.63527E+02  6.25089E+03  3.24245E+03  5.73221E+03  7.43565E+03
 -1.60933E+03  8.98372E+03 -8.18003E+03  6.61754E+03 -1.02634E+04  1.25110E+03 -8.07619E+03 -2.73016E+03
 -4.51002E+03 -6.81808E+03 -4.40884E+02 -5.51207E+03  2.20000E+03 -2.52577E+03  1.94322E+03 -2.25418E+03
  1.24562E+03 -1.55910E+03  2.10392E+03 -2.34343E+03  3.49103E+03 -1.39641E+03  3.75688E+03  3.19901E+02
  4.77317E+03  1.24860E+03  1.49373E+03  3.43976E+03 -1.39047E+03  3.03769E+03 -4.61255E+03  2.63119E+03
 -5.30408E+03 -9.63634E+02 -1.68102E+03 -3.15906E+03  5.39836E+02 -5.23765E+03  3.37015E+03 -5.75341E+03
  5.33180E+03 -3.33939E+03  7.04283E+03  6.14212E+02  4.95678E+03  4.53436E+03  1.17272E+03  6.30138E+03
 -2.24695E+03  5.62221E+03 -3.32477E+03  2.17690E+03 -2.19496E+03 -1.19317E+03 -7.02995E+02 -6.39069E+02
 -1.26464E+02  4.76396E+02 -8.01554E+02  2.11772E+03 -2.79118E+03  1.10674E+03 -4.12834E+03 -1.96761E+02
 -1.67374E+03 -4.28187E+03  8.88331E+02 -4.77849E+03  2.90352E+03 -4.61347E+03  3.87655E+03 -1.29496E+03
  4.25173E+03  2.46623E+03  1.66558E+03  3.44595E+03 -9.41857E+02  4.44170E+03 -2.61823E+03  2.80909E+03
 -3.83665E+03  6.26377E+02 -3.72848E+03 -2.55018E+03 -7.79163E+01 -3.40995E+03  1.83028E+03 -2.75386E+03
  3.00122E+03 -1.54758E+03  2.19207E+03  4.66470E+02  5.93821E+02  1.89093E+03  9.73102E+02  5.25961E+02
  1.83311E+03  4.06282E+02  1.40767E+03  1.11164E+03  1.19621E+03  1.99654E+03  1.46465E+03  1.79812E+03
 -1.27608E+03  3.18792E+03 -2.80743E+03  4.23554E+03 -3.30029E+03  1.20191E+03 -4.61405E+03 -6.16342E+02
 -2.00995E+03 -3.61788E+03  7.33791E+02 -4.95748E+03  2.08079E+03 -2.70574E+03  3.48947E+03 -8.35187E+02
  2.66820E+03  1.68977E+03  4.30606E+02  2.37376E+03 -6.29257E+02  1.20549E+03 -1.18704E+03 -1.09944E+02
 -6.85074E+02 -1.60057E+03  1.22782E+03 -1.61188E+03  1.50298E+03 -1.02858E+03  1.34881E+03  3.17689E+02
  8.24607E+02  4.19301E+02  8.50306E+02 -1.02555E+02 -1.16725E+02  1.00136E+03  1.61433E+03 -1.79986E+02
  1.54872E+02 -8.60751E+01  1.75169E+03  7.05278E+02  4.22839E+02  2.48524E+03 -3.80199E+02  3.03935E+03
 -1.68700E+03  1.07971E+03 -2.10576E+03  6.62944E+02 -2.45923E+03 -8.41077E+02 -2.11615E+02 -1.00694E+03
  3.03717E+02 -1.20922E+03  7.98487E+02 -9.86148E+02  7.18304E+02  1.05873E+03 -6.01572E+02  1.44893E+03
 -1.29528E+03  7.27172E+02 -1.48196E+03 -1.46285E+03 -9.48126E+02 -2.22715E+03  1.77545E+02 -1.90551E+03
  5.96132E+02 -4.02713E+02  8.73641E+02  8.92567E+01  9.94319E+02 -1.97197E+02  4.70232E+02  1.04101E+03
 -6.58690E+02  1.85637E+02 -9.93983E+02 -1.36622E+02  4.94408E+02 -1.01976E+03  1.84534E+03 -9.93498E+02
  1.62669E+03  2.07455E+02  2.79819E+03  6.67644E+02  1.24246E+03  1.87612E+03 -3.84831E+02  1.94727E+03
 -1.52369E+03  2.50567E+02 -1.67475E+03 -2.76604E+01 -7.66414E+02 -1.44465E+03  2.75266E+02 -4.91102E+02
  1.68136E+03 -7.21117E+02  7.45939E+02  7.43483E+02 -1.73428E+01  1.33579E+03  3.42871E+02  1.08725E+03
 -4.32280E+02  1.13955E+03 -8.03335E+02  2.28408E+02  1.92625E+02  5.24471E+02 -6.85198E+02  6.62455E+02
 -3.65327E+02  8.14886E+02 -1.82298E+03  7.98544E+02 -1.65188E+03  3.33937E+02 -2.61939E+03 -1.12695E+03
 -1.16994E+03 -2.46280E+03  2.58850E+02 -3.26474E+03  1.26808E+03 -2.75133E+03  2.74102E+03 -1.03991E+03
  2.48052E+03 -1.96130E+02  1.29719E+03  1.61732E+03 -5.31579E+02  1.42451E+03 -6.61962E+02  1.57635E+03
 -1.01547E+03  5.49301E+02 -7.27492E+02 -4.33652E+02 -7.74981E+02  2.18751E+02 -8.43235E+02 -2.70569E+02
 -1.35886E+03 -1.99487E+02 -1.08350E+03  5.30808E+00  1.26001E+02 -4.45046E+02 -4.46754E+02 -8.05095E+02
  1.00759E+03 -7.03497E+02  7.49254E+02  1.42904E+02  1.07144E+03  1.14085E+03 -9.21001E+01  1.55983E+03
 -1.00658E+03  2.38773E+03 -1.86282E+03  1.35296E+03 -1.73493E+03 -1.04462E+02 -1.23885E+03 -1.27611E+03
 -8.47462E+02 -1.41655E+03  3.94302E+02 -1.46138E+03  7.29502E+02 -8.41011E+02  1.15913E+03  1.49601E+02
  8.70357E+02  2.65127E+02  3.17568E+01  4.19914E+02 -4.48853E+02 -1.34229E+02 -1.00783E+02 -2.02511E+02
  5.84729E+02  3.58037E+02  3.41459E+02  6.27534E+02  2.73732E+02  3.64485E+02  6.48947E+02  3.68611E+02
 -6.31372E+02  6.78162E+02 -7.91455E+02  2.34899E+02 -9.06685E+02 -4.48569E+02  1.55075E+02 -1.39286E+03
  7.23456E+02 -9.94841E+02  8.17246E+02 -1.52226E+02  8.88705E+02 -4.74110E+02  4.03893E+02  9.61677E+02
  7.00564E+02  5.01231E+02 -1.48564E+02  6.75724E+02 -4.76461E+02  7.53534E+02 -5.30470E+02 -1.26267E+02
 -3.14385E+02 -1.03998E+02 -4.75249E+02  1.41317E+02 -5.44186E+02  5.42564E+01 -5.51409E+02 -9.14142E+01
 -1.17885E+03  4.29837E+01 -5.05918E+02 -9.56133E+02  6.31577E+02 -1.83750E+03  5.17100E+02 -1.93389E+02
  8.72701E+02  2.47142E+02 -1.62789E+02  2.40253E+02 -1.15503E+01  8.49733E+02 -4.33347E+02  8.91571E+02
