 $NMID ID='MM_0lb_SNR800_14hz_g50_47.RAW', FMTDAT='(8E13.5)'
 TRAMP=1., VOLUME=1. $END
  3.10035E+05  4.89437E+02  3.37766E+05  2.50424E+05  8.47451E+04  3.38102E+05 -1.32422E+05  2.51237E+05
 -1.90106E+05  8.31229E+04 -1.11936E+05 -3.28498E+04  9.58907E+02 -5.06880E+04  5.40569E+04 -2.58933E+02
  3.53030E+04  5.27318E+04 -1.68845E+04  7.55388E+04 -6.08181E+04  6.33982E+04 -8.42661E+04  3.21121E+04
 -8.09992E+04 -1.15217E+04 -5.73810E+04 -5.13751E+04 -1.48123E+04 -6.95021E+04  2.75804E+04 -4.58072E+04
  4.00734E+04  3.87631E+03  1.61201E+04  4.78804E+04 -3.44564E+04  4.71098E+04 -6.69641E+04 -1.52239E+02
 -5.33779E+04 -5.68107E+04 -6.94788E+03 -7.69516E+04  3.38567E+04 -5.51107E+04  4.79927E+04 -1.72620E+04
  4.34092E+04  1.14270E+04  3.19036E+04  2.54884E+04  1.60771E+04  2.97188E+04 -5.25613E+03  2.71108E+04
 -2.19503E+04  1.25385E+04 -1.81840E+04 -4.91539E+03  5.79490E+03 -7.51156E+03  2.24710E+04  1.23383E+04
  7.41466E+03  3.54518E+04 -3.23993E+04  3.54148E+04 -6.33654E+04  1.93368E+03 -5.73551E+04 -4.31204E+04
 -1.25157E+04 -6.35984E+04  3.96528E+04 -4.52247E+04  5.82198E+04 -2.54300E+03  3.43485E+04  3.27238E+04
 -6.00729E+03  3.63742E+04 -3.00938E+04  1.64557E+04 -2.99672E+04 -4.53862E+03 -1.69712E+04 -1.13107E+04
 -8.47412E+03 -1.32219E+04 -6.89415E+02 -1.83379E+04  7.53042E+03 -2.29619E+04  1.56218E+04 -1.33169E+04
  1.13886E+04  5.26711E+03 -8.60716E+03  1.31055E+04 -2.14316E+04 -4.55222E+03 -8.34285E+03 -3.42479E+04
  2.27924E+04 -4.36153E+04  4.82171E+04 -1.96537E+04  4.51975E+04  1.98100E+04  1.55420E+04  4.44076E+04
 -1.62286E+04  3.34391E+04 -2.57676E+04  1.85602E+03 -1.00586E+04 -2.77185E+04  2.10331E+04 -3.36683E+04
  4.14333E+04 -9.43291E+03  3.57979E+04  2.39286E+04  1.82736E+04  4.65552E+04 -8.00566E+03  5.02280E+04
 -3.18073E+04  3.39031E+04 -4.24218E+04  9.41376E+03 -4.29072E+04 -1.66829E+04 -2.36150E+04 -3.82208E+04
  7.45721E+03 -3.81322E+04  3.18307E+04 -1.48655E+04  2.93566E+04  1.09061E+04  3.96907E+03  1.93443E+04
 -1.37325E+04  8.71132E+03 -1.07051E+04 -7.55397E+03  5.79349E+03 -1.06387E+04  1.79705E+04  6.05642E+03
  1.34860E+04  2.21209E+04 -5.95414E+03  2.49963E+04 -2.21453E+04  1.18165E+04 -2.80993E+04 -4.60149E+03
 -2.10196E+04 -1.75156E+04 -8.33679E+03 -2.05759E+04  4.01550E+03 -1.95906E+04  1.58284E+04 -1.86223E+04
  2.64741E+04 -1.29914E+04  3.29175E+04  2.94765E+03  2.40913E+04  2.01429E+04  4.23122E+03  3.64996E+04
 -1.76677E+04  3.05272E+04 -2.79750E+04  1.05113E+04 -2.09748E+04 -1.03778E+04 -4.56946E+03 -1.35733E+04
  1.67467E+03 -2.64880E+03 -4.96755E+03  6.54566E+03 -1.67086E+04  5.62551E+03 -1.64596E+04 -7.46860E+03
 -1.01889E+04 -1.90717E+04  4.79142E+03 -2.29598E+04  1.54631E+04 -1.67933E+04  1.84123E+04 -1.66628E+03
  1.14677E+04  1.30942E+04 -1.07664E+03  1.92519E+04 -1.33275E+04  1.07240E+04 -1.92774E+04 -4.24604E+03
 -1.42197E+04 -1.72097E+04 -1.97415E+03 -2.33072E+04  1.06415E+04 -1.89519E+04  1.93726E+04 -9.38593E+03
  1.76482E+04  5.40900E+01  1.29229E+04  4.34516E+03  6.91227E+03  1.07303E+03  9.48208E+03 -1.80698E+03
  1.74138E+04  2.89067E+03  1.94501E+04  1.50984E+04  1.25035E+04  3.04767E+04 -3.08618E+03  3.45262E+04
 -1.99536E+04  2.77508E+04 -3.21860E+04  1.40363E+04 -3.38039E+04 -2.33994E+03 -2.81731E+04 -1.95316E+04
 -1.19762E+04 -2.77840E+04  9.80078E+03 -2.51460E+04  2.15197E+04 -1.28956E+04  1.95236E+04  5.40068E+03
  7.16155E+03  1.48746E+04 -8.99393E+03  1.24842E+04 -1.63729E+04  2.37050E+03 -1.24446E+04 -1.00575E+04
 -8.54770E+01 -1.53622E+04  7.79921E+03 -1.13244E+04  1.02401E+04 -1.16692E+03  2.15229E+03  6.62864E+03
 -6.86493E+03  2.69514E+03 -6.53458E+03 -5.51465E+03 -6.74591E+02 -1.34636E+04  9.62280E+03 -1.41520E+04
  1.69223E+04 -7.27712E+03  1.79341E+04  2.93083E+03  1.57882E+04  1.33791E+04  7.25765E+03  2.02574E+04
 -3.24447E+03  2.22489E+04 -1.38973E+04  1.39848E+04 -1.63729E+04  3.58784E+03 -1.11582E+04 -3.62941E+03
 -5.22864E+03 -4.94913E+03 -8.45892E+02  1.02436E+03 -2.28641E+03  2.73942E+03 -4.79271E+03  4.25748E+03
 -1.03033E+04 -5.99853E+02 -1.10698E+04 -8.90161E+03 -4.38497E+03 -1.49844E+04  4.46438E+03 -1.14070E+04
  9.58702E+03 -4.78412E+03  7.23774E+03  2.93958E+03  2.88784E+02  4.31575E+03 -5.29711E+03 -1.59020E+02
 -5.38668E+03 -7.10398E+03 -1.22183E+03 -1.08141E+04  6.16464E+03 -1.11092E+04  1.41643E+04 -6.17624E+03
  1.67029E+04  1.27778E+03  1.23305E+04  9.39709E+03  2.24073E+03  1.30601E+04 -7.06029E+03  1.10886E+04
 -9.20334E+03  3.68891E+03 -4.73136E+03 -1.96708E+03  1.60265E+03 -2.60270E+03  6.12016E+03 -1.10471E+03
  5.59019E+03  4.69909E+03  1.20263E+03  9.07253E+03 -6.20290E+03  8.79346E+03 -1.08809E+04  2.35451E+03
 -7.64118E+03 -5.50543E+03  1.74299E+02 -9.31505E+03  5.62029E+03 -4.72508E+03  5.81299E+03  2.21361E+03
  9.80207E+02  5.81943E+03 -5.97223E+03  7.31471E+03 -8.29406E+03  3.63553E+03 -8.33345E+03 -2.80046E+03
 -5.12270E+03 -1.02308E+04  2.19620E+03 -1.15818E+04  9.96919E+03 -7.11010E+03  1.10089E+04  1.48596E+03
  6.70140E+03  8.24673E+03 -7.43800E+02  1.04052E+04 -7.55693E+03  5.73444E+03 -8.13783E+03 -7.11821E+02
 -7.59208E+03 -7.34701E+03 -1.76538E+03 -7.93426E+03  4.16987E+03 -6.96828E+03  4.74867E+03 -3.11491E+03
  3.34568E+03  1.04994E+03 -7.32290E+01  1.56214E+03  6.11314E+01 -1.41180E+03  1.23194E+03 -3.89435E+03
  6.87220E+03 -2.21448E+03  9.28136E+03  1.38772E+03  9.62235E+03  6.19221E+03  7.19073E+03  1.23027E+04
 -2.77561E+03  1.42165E+04 -1.24235E+04  1.08740E+04 -1.58661E+04  2.07118E+03 -1.28299E+04 -4.83967E+03
 -6.79820E+03 -1.03701E+04 -2.20864E+02 -8.86147E+03  3.09938E+03 -4.54616E+03  3.23297E+03 -3.37952E+03
  1.85482E+03 -2.18313E+03  2.91341E+03 -3.28632E+03  4.27670E+03 -2.35712E+03  5.41488E+03 -2.34431E+02
  7.00090E+03  1.73476E+03  2.91433E+03  5.62400E+03 -1.65305E+03  5.78429E+03 -6.97024E+03  4.80725E+03
 -8.48943E+03 -9.98739E+02 -4.52098E+03 -5.96563E+03 -9.55432E+01 -9.09895E+03  5.12914E+03 -9.42930E+03
  9.62190E+03 -5.40486E+03  1.11391E+04  1.29367E+03  8.17637E+03  7.13684E+03  1.23519E+03  1.02887E+04
 -4.46320E+03  8.98284E+03 -5.90116E+03  2.90098E+03 -3.89228E+03 -1.43811E+03 -1.33187E+03 -1.25671E+03
 -7.61946E+02  2.36173E+02 -1.63165E+03  2.06708E+03 -3.62078E+03  1.38043E+03 -6.20751E+03 -6.45753E+02
 -3.51267E+03 -6.21500E+03  3.28525E+02 -7.99798E+03  4.86857E+03 -7.82728E+03  7.63782E+03 -2.15096E+03
  7.94818E+03  3.79653E+03  3.53955E+03  6.93733E+03 -1.85935E+03  8.37459E+03 -5.26576E+03  4.77658E+03
 -7.12486E+03  7.81588E+02 -5.95417E+03 -4.53294E+03 -4.96164E+02 -6.25742E+03  3.53012E+03 -4.95361E+03
  4.98226E+03 -1.92163E+03  3.14725E+03  1.17842E+03  1.18268E+03  2.74664E+03  8.69123E+02  1.22421E+03
  2.47271E+03  5.88058E+02  2.31444E+03  1.39301E+03  2.16493E+03  3.30370E+03  2.22192E+03  3.68634E+03
 -1.84793E+03  6.09730E+03 -4.97356E+03  6.90153E+03 -7.16598E+03  2.07233E+03 -8.03935E+03 -2.23679E+03
 -3.76970E+03 -7.98859E+03  1.31870E+03 -8.61593E+03  3.97191E+03 -5.31303E+03  6.19888E+03 -1.20990E+03
  4.71714E+03  3.17795E+03  8.62159E+02  4.50963E+03 -1.75792E+03  2.55064E+03 -2.48792E+03 -6.11084E+02
 -1.70671E+03 -3.41679E+03  2.12940E+03 -3.18213E+03  2.78394E+03 -1.73811E+03  2.98716E+03  7.85500E+02
  1.59807E+03  1.14502E+03  6.44212E+02  7.05163E+02 -6.38316E+02  1.10340E+03  1.74479E+03 -1.52896E+02
  7.95944E+02 -3.32324E+02  3.38769E+03  1.11046E+03  1.11435E+03  4.19752E+03 -4.76689E+02  5.57650E+03
 -3.31628E+03  3.01643E+03 -4.50035E+03  7.56258E+02 -4.35007E+03 -1.52898E+03 -9.09285E+02 -2.58338E+03
  6.82847E+02 -2.93854E+03  2.13264E+03 -1.52369E+03  1.34101E+03  1.80616E+03 -1.16633E+03  2.29475E+03
 -3.40114E+03  1.17437E+03 -3.25039E+03 -1.76410E+03 -1.97048E+03 -3.96822E+03  1.05624E+03 -3.53699E+03
  1.96319E+03 -1.91325E+03  2.45178E+03 -1.52695E+02  2.59863E+03  4.54236E+02  4.59924E+02  2.35557E+03
 -1.05549E+03  4.13318E+02 -1.62407E+03 -9.04597E+02  5.04018E+02 -2.56854E+03  3.19710E+03 -2.44179E+03
  3.57580E+03  5.20870E+02  4.84454E+03  2.73954E+03  1.55567E+03  4.29214E+03 -1.27548E+03  3.98080E+03
 -3.58188E+03  1.20927E+03 -3.76698E+03 -4.97446E+02 -2.11927E+03 -2.72684E+03  5.87480E+02 -2.09725E+03
  3.14504E+03 -1.38868E+03  2.08934E+03  1.42758E+03  8.92199E+02  2.51765E+03 -4.54253E+01  2.43553E+03
 -9.42020E+02  1.50635E+03 -1.34147E+03  8.30554E+02 -2.67944E+02  4.44065E+02 -9.89084E+02  1.30609E+03
 -1.60570E+03  1.85775E+03 -2.88399E+03  1.08574E+03 -4.23460E+03  2.84873E+01 -4.94185E+03 -2.69552E+03
 -2.62986E+03 -5.35573E+03  1.30757E+03 -6.35652E+03  3.60941E+03 -4.94629E+03  6.25224E+03 -2.02369E+03
  5.98448E+03  3.63298E+02  3.07887E+03  3.86523E+03 -5.04895E+02  4.20245E+03 -1.79896E+03  3.43698E+03
 -2.35175E+03  1.44574E+03 -1.40494E+03 -5.26140E+02 -7.98409E+02 -4.64226E+02 -5.71715E+02 -2.29501E+02
 -1.13789E+03 -1.05218E+02 -1.16591E+03  4.55667E+01 -8.57983E+01 -1.14332E+03 -8.76756E+01 -1.37143E+03
  2.12754E+03 -1.25617E+03  2.15932E+03  1.94478E+02  2.94673E+03  2.07765E+03  2.37514E+02  4.01169E+03
 -2.19140E+03  4.65323E+03 -4.34009E+03  2.79547E+03 -4.60032E+03 -4.01323E+02 -3.52962E+03 -3.05932E+03
 -1.23165E+03 -4.27855E+03  1.01080E+03 -3.73917E+03  2.21861E+03 -2.05038E+03  2.31298E+03  4.42393E+02
  1.72798E+03  1.15007E+03  1.07982E+02  1.00601E+03 -7.49476E+02 -7.44779E+00 -5.50612E+01 -9.10622E+02
  1.12522E+03 -4.89088E+02  1.27940E+03  5.84208E+02  7.30500E+02  1.69101E+03  2.33956E+02  1.58234E+03
 -1.73849E+03  1.81624E+03 -2.13095E+03  4.96768E+02 -2.42180E+03 -1.56436E+03 -1.09875E+02 -3.19577E+03
  1.66125E+03 -2.44552E+03  2.33609E+03 -8.48899E+02  2.78251E+03  5.22983E+02  1.61398E+03  2.16167E+03
  9.69941E+02  2.05991E+03 -7.17847E+02  1.93356E+03 -1.52527E+03  1.01565E+03 -1.22503E+03 -5.82365E+01
 -6.15518E+02 -4.92335E+01 -7.89122E+02  5.36279E+02 -1.39450E+03  2.49318E+02 -1.44598E+03 -3.93308E+02
 -1.84815E+03 -5.87042E+02 -4.44572E+02 -2.32526E+03  1.49863E+03 -2.68999E+03  2.08865E+03 -8.98902E+02
  2.32060E+03  7.31980E+01  6.04337E+02  1.35675E+03 -1.21635E+02  2.36478E+03 -2.03579E+03  1.57514E+03
