 $NMID ID='MM_0lb_SNR800_14hz_g40_22.RAW', FMTDAT='(8E13.5)'
 TRAMP=1., VOLUME=1. $END
  3.09748E+05  2.93554E+02  3.37484E+05  2.50374E+05  8.45703E+04  3.37638E+05 -1.32505E+05  2.50727E+05
 -1.89937E+05  8.30213E+04 -1.11594E+05 -3.26254E+04  1.13353E+03 -5.06006E+04  5.38256E+04 -2.67603E+02
  3.53487E+04  5.26702E+04 -1.69922E+04  7.52554E+04 -6.08176E+04  6.33795E+04 -8.39700E+04  3.16894E+04
 -8.04850E+04 -1.11081E+04 -5.71197E+04 -5.10683E+04 -1.51668E+04 -6.91344E+04  2.70609E+04 -4.56016E+04
  3.97622E+04  3.95186E+03  1.60189E+04  4.75461E+04 -3.43591E+04  4.66803E+04 -6.61264E+04 -2.43768E+02
 -5.33044E+04 -5.64930E+04 -7.03016E+03 -7.64756E+04  3.36773E+04 -5.43098E+04  4.74957E+04 -1.70733E+04
  4.29362E+04  1.15743E+04  3.17164E+04  2.51685E+04  1.59804E+04  2.91398E+04 -4.87313E+03  2.71661E+04
 -2.20387E+04  1.24677E+04 -1.87552E+04 -4.61912E+03  5.29804E+03 -7.35288E+03  2.19963E+04  1.20467E+04
  7.07278E+03  3.49456E+04 -3.15955E+04  3.49933E+04 -6.28507E+04  2.38254E+03 -5.64385E+04 -4.27760E+04
 -1.25015E+04 -6.26659E+04  3.90094E+04 -4.48582E+04  5.72743E+04 -1.89839E+03  3.35520E+04  3.19563E+04
 -6.28077E+03  3.51348E+04 -2.93525E+04  1.53827E+04 -2.98072E+04 -4.68698E+03 -1.61580E+04 -1.07353E+04
 -8.07306E+03 -1.27142E+04 -8.42364E+02 -1.77148E+04  7.40615E+03 -2.25607E+04  1.52737E+04 -1.33898E+04
  1.18125E+04  4.84165E+03 -7.58930E+03  1.32556E+04 -2.03733E+04 -3.70926E+03 -8.30675E+03 -3.30821E+04
  2.21924E+04 -4.25517E+04  4.73123E+04 -1.92721E+04  4.43860E+04  1.88591E+04  1.52450E+04  4.31359E+04
 -1.59066E+04  3.27978E+04 -2.49232E+04  1.63127E+03 -9.59052E+03 -2.72774E+04  2.08149E+04 -3.31414E+04
  4.01349E+04 -8.52370E+03  3.44378E+04  2.35741E+04  1.71952E+04  4.55695E+04 -7.97047E+03  4.87334E+04
 -3.07160E+04  3.30001E+04 -4.08168E+04  9.11613E+03 -4.14348E+04 -1.61953E+04 -2.32309E+04 -3.70443E+04
  7.15973E+03 -3.71277E+04  3.08670E+04 -1.41842E+04  2.87503E+04  1.07114E+04  3.81419E+03  1.90581E+04
 -1.35524E+04  8.26049E+03 -1.04130E+04 -7.31124E+03  5.72106E+03 -1.05025E+04  1.75774E+04  6.08979E+03
  1.29647E+04  2.18624E+04 -6.02196E+03  2.45557E+04 -2.20497E+04  1.08285E+04 -2.73984E+04 -5.36368E+03
 -1.98581E+04 -1.68102E+04 -7.89959E+03 -1.98052E+04  4.15337E+03 -1.88439E+04  1.53193E+04 -1.75035E+04
  2.50910E+04 -1.24958E+04  3.18595E+04  2.41434E+03  2.32867E+04  1.92001E+04  4.47542E+03  3.53720E+04
 -1.76953E+04  2.98710E+04 -2.76387E+04  1.02477E+04 -2.05370E+04 -1.02688E+04 -4.25497E+03 -1.37275E+04
  1.95737E+03 -3.00306E+03 -4.36568E+03  6.48790E+03 -1.53130E+04  5.04375E+03 -1.56132E+04 -6.19117E+03
 -9.81700E+03 -1.80727E+04  4.99308E+03 -2.21169E+04  1.48059E+04 -1.59963E+04  1.73757E+04 -1.82985E+03
  1.07977E+04  1.28964E+04 -1.26844E+03  1.83574E+04 -1.22538E+04  1.03104E+04 -1.81036E+04 -4.00493E+03
 -1.32859E+04 -1.67678E+04 -1.97287E+03 -2.21431E+04  9.96762E+03 -1.80383E+04  1.83465E+04 -9.19035E+03
  1.70236E+04  3.96124E+02  1.23964E+04  4.25780E+03  6.42942E+03  7.49161E+02  9.05132E+03 -1.48970E+03
  1.69455E+04  2.64187E+03  1.82991E+04  1.51533E+04  1.20592E+04  2.89208E+04 -2.80154E+03  3.26025E+04
 -1.91772E+04  2.62996E+04 -3.04692E+04  1.29663E+04 -3.16651E+04 -2.19853E+03 -2.63590E+04 -1.80125E+04
 -1.16717E+04 -2.64488E+04  9.01398E+03 -2.34370E+04  2.05546E+04 -1.22772E+04  1.83948E+04  5.04424E+03
  6.93574E+03  1.37903E+04 -8.42696E+03  1.21161E+04 -1.57054E+04  2.51019E+03 -1.21778E+04 -9.46986E+03
 -2.82343E+02 -1.47763E+04  7.56791E+03 -1.07882E+04  9.66633E+03 -1.12980E+03  2.32251E+03  5.97055E+03
 -6.63937E+03  2.25932E+03 -5.64050E+03 -5.50216E+03 -3.17631E+02 -1.27589E+04  9.27746E+03 -1.33180E+04
  1.56164E+04 -7.16702E+03  1.64194E+04  3.11996E+03  1.46858E+04  1.25173E+04  6.72886E+03  1.90071E+04
 -2.92512E+03  2.08616E+04 -1.32844E+04  1.32129E+04 -1.52484E+04  3.25492E+03 -1.07620E+04 -3.06516E+03
 -5.37053E+03 -4.84626E+03 -6.27395E+02  1.08350E+03 -2.48032E+03  2.75403E+03 -4.58037E+03  4.02420E+03
 -1.02410E+04 -7.41705E+02 -1.08480E+04 -9.01666E+03 -4.29936E+03 -1.40013E+04  4.22705E+03 -1.07262E+04
  8.80980E+03 -4.92114E+03  6.70143E+03  3.10057E+03  1.90888E+02  4.04431E+03 -4.97475E+03 -2.33169E+01
 -4.71289E+03 -6.70625E+03 -8.15693E+02 -1.01394E+04  5.50770E+03 -1.10439E+04  1.31121E+04 -5.42844E+03
  1.57075E+04  1.43041E+03  1.15467E+04  8.75130E+03  2.24994E+03  1.20408E+04 -7.00270E+03  1.06279E+04
 -8.73278E+03  3.37192E+03 -4.29955E+03 -1.96133E+03  1.75903E+03 -2.95363E+03  5.87613E+03 -9.22475E+02
  5.16908E+03  4.63267E+03  1.13554E+03  8.38243E+03 -6.10961E+03  8.02537E+03 -1.03501E+04  2.18134E+03
 -6.96019E+03 -4.98222E+03  1.91677E+02 -8.64968E+03  5.51032E+03 -4.47623E+03  5.18092E+03  1.57624E+03
  1.02486E+03  5.84372E+03 -5.44403E+03  6.83655E+03 -7.57900E+03  3.44212E+03 -7.66373E+03 -2.68022E+03
 -4.94249E+03 -9.09189E+03  1.91631E+03 -1.04523E+04  8.89102E+03 -6.36518E+03  9.76056E+03  1.44031E+03
  6.29340E+03  7.89640E+03 -5.69133E+02  9.76267E+03 -7.10099E+03  5.92487E+03 -7.97899E+03 -7.95245E+02
 -7.35093E+03 -6.58861E+03 -1.74801E+03 -7.14590E+03  3.46917E+03 -6.40598E+03  4.76818E+03 -3.36904E+03
  3.51694E+03  8.96593E+02 -1.24353E+02  1.29972E+03  3.75724E+02 -1.27358E+03  1.24654E+03 -3.76635E+03
  6.41000E+03 -2.26379E+03  8.86584E+03  9.53570E+02  8.68310E+03  5.49755E+03  6.91845E+03  1.13860E+04
 -2.54852E+03  1.34333E+04 -1.16488E+04  1.02215E+04 -1.50242E+04  1.68398E+03 -1.20730E+04 -4.29197E+03
 -5.91930E+03 -9.79492E+03 -3.02066E+02 -8.24514E+03  2.91856E+03 -4.11077E+03  2.88198E+03 -2.62048E+03
  2.01459E+03 -1.98288E+03  2.84857E+03 -2.77843E+03  3.88499E+03 -2.07531E+03  5.15469E+03 -1.55814E+02
  6.22082E+03  1.23188E+03  2.88439E+03  5.39894E+03 -1.74634E+03  5.41348E+03 -6.84133E+03  4.45810E+03
 -8.05550E+03 -1.01754E+03 -4.43691E+03 -5.65674E+03 -1.37871E+02 -8.36850E+03  5.24285E+03 -8.50399E+03
  8.55727E+03 -5.13518E+03  1.07132E+04  7.21320E+02  7.67198E+03  7.36598E+03  1.30106E+03  9.53141E+03
 -3.86202E+03  8.19402E+03 -5.30679E+03  2.43653E+03 -3.57823E+03 -1.34811E+03 -1.48307E+03 -1.18895E+03
 -8.56743E+02  8.48028E+01 -1.15293E+03  2.59046E+03 -3.44448E+03  1.37376E+03 -6.05469E+03 -4.98512E+02
 -3.52034E+03 -5.98490E+03  3.41930E+02 -7.96928E+03  5.03598E+03 -7.14739E+03  7.05220E+03 -2.07860E+03
  7.76144E+03  3.74572E+03  3.38348E+03  6.03783E+03 -1.34687E+03  7.53029E+03 -5.15874E+03  4.62626E+03
 -7.24268E+03  2.16308E+02 -5.74804E+03 -4.59446E+03 -4.20361E+02 -5.86351E+03  3.17708E+03 -4.36694E+03
  4.63837E+03 -1.79941E+03  2.98193E+03  1.26309E+03  7.50219E+02  2.29312E+03  7.93586E+02  1.08077E+03
  2.00560E+03  1.09383E+03  2.27011E+03  1.25637E+03  2.14334E+03  3.26746E+03  2.04739E+03  3.67295E+03
 -1.85602E+03  5.53640E+03 -4.77976E+03  6.11342E+03 -6.62478E+03  2.20067E+03 -7.48841E+03 -2.29969E+03
 -3.54541E+03 -7.01357E+03  1.12016E+03 -8.10106E+03  3.80418E+03 -4.94212E+03  5.82082E+03 -1.38988E+03
  4.75345E+03  2.58520E+03  9.27453E+02  4.13446E+03 -1.88818E+03  2.54970E+03 -2.66848E+03 -4.62398E+02
 -1.31373E+03 -2.89137E+03  2.10221E+03 -3.07370E+03  3.03671E+03 -1.66396E+03  2.76322E+03  6.88682E+02
  1.47401E+03  1.25923E+03  1.04679E+03  5.16150E+02 -4.53538E+02  1.15084E+03  1.57545E+03 -4.98821E+02
  5.58248E+02 -6.17198E+02  3.05407E+03  1.18228E+03  1.33681E+03  4.00424E+03 -4.25344E+02  5.05519E+03
 -3.54473E+03  2.65443E+03 -4.14895E+03  7.90845E+02 -3.97870E+03 -1.62896E+03 -1.12321E+03 -2.54428E+03
  2.71684E+02 -2.53542E+03  1.84884E+03 -1.38080E+03  1.30494E+03  1.84507E+03 -1.16782E+03  2.19416E+03
 -2.67588E+03  1.47204E+03 -2.82727E+03 -1.74459E+03 -1.77348E+03 -3.65596E+03  4.17428E+02 -3.58655E+03
  2.09264E+03 -1.89393E+03  2.13810E+03 -5.20670E+01  2.23768E+03  3.37358E+02  3.12594E+02  1.82665E+03
 -1.29639E+03  5.41790E+02 -1.87301E+03 -9.45684E+02  5.64063E+02 -2.33756E+03  3.34742E+03 -2.23267E+03
  3.79462E+03  4.24166E+02  4.39334E+03  2.10925E+03  1.52256E+03  4.25661E+03 -1.48985E+03  4.06664E+03
 -2.95817E+03  1.55945E+03 -3.49496E+03 -5.05421E+02 -1.56044E+03 -2.65794E+03  6.54716E+02 -2.07923E+03
  2.69193E+03 -1.34937E+03  2.03532E+03  1.04367E+03  6.50871E+02  2.64036E+03 -1.52271E+02  1.91652E+03
 -9.58417E+02  1.80642E+03 -1.11537E+03  2.52593E+02 -2.13165E+02  7.37278E+02 -1.14750E+03  8.33718E+02
 -1.60139E+03  1.71234E+03 -3.14803E+03  1.40364E+03 -3.80609E+03 -9.84454E+01 -4.74549E+03 -2.30553E+03
 -2.63718E+03 -5.70615E+03  1.10214E+03 -6.59814E+03  3.17134E+03 -5.09596E+03  5.85265E+03 -1.63051E+03
  5.25034E+03  7.50513E+02  3.17172E+03  3.70550E+03 -4.14342E+02  3.67804E+03 -1.46594E+03  3.00569E+03
 -2.25750E+03  1.23422E+03 -1.46482E+03 -5.27626E+02 -3.13433E+02  2.46933E+02 -8.15926E+02  1.13801E+02
 -1.22930E+03 -2.41289E+02 -1.10241E+03 -6.74285E+01  2.60020E+01 -8.96026E+02 -5.33500E+02 -1.56730E+03
  2.27389E+03 -1.11931E+03  2.11430E+03  2.92511E+02  2.88289E+03  2.33846E+03  4.73593E+01  3.84859E+03
 -1.70292E+03  4.61670E+03 -4.27169E+03  2.65550E+03 -4.52990E+03 -4.55084E+02 -3.14124E+03 -3.07650E+03
 -1.72796E+03 -3.91380E+03  9.64090E+02 -3.51002E+03  2.38377E+03 -2.06525E+03  2.04000E+03  2.85762E+02
  1.57003E+03  1.03265E+03 -2.25411E+02  9.03395E+02 -4.53744E+02 -4.95575E+01 -3.83449E+01 -8.97108E+02
  1.29205E+03 -1.73059E+01  1.15717E+03  5.67540E+02  7.29171E+02  1.31684E+03  6.64241E+01  1.43142E+03
 -1.89400E+03  1.70823E+03 -2.20977E+03  3.88038E+02 -2.29106E+03 -1.55586E+03 -3.20244E+02 -3.31190E+03
  1.59593E+03 -2.53293E+03  2.36222E+03 -7.10440E+02  2.82380E+03 -1.39319E+02  1.29303E+03  2.03680E+03
  6.71678E+02  2.18410E+03 -9.80770E+02  1.83456E+03 -1.46769E+03  1.34577E+03 -1.14246E+03  1.22273E+01
 -1.17128E+02 -8.44424E+01 -6.72641E+02  5.02105E+02 -1.44880E+03  4.56629E+02 -1.66283E+03 -2.87667E+02
 -2.19881E+03 -7.68728E+02 -9.24622E+02 -2.36923E+03  1.33356E+03 -2.92817E+03  2.08652E+03 -1.09746E+03
  2.39721E+03  5.01393E+02  6.09396E+02  1.40992E+03 -4.90966E+02  2.24104E+03 -1.44602E+03  1.38136E+03
