 $NMID ID='MM_0lb_SNR800_10hz_g45_27.RAW', FMTDAT='(8E13.5)'
 TRAMP=1., VOLUME=1. $END
  3.09636E+05  6.77681E+02  3.37891E+05  2.50838E+05  8.46694E+04  3.38432E+05 -1.32569E+05  2.51730E+05
 -1.90797E+05  8.38406E+04 -1.12137E+05 -3.25667E+04  4.71746E+02 -5.07938E+04  5.38986E+04 -4.91086E+02
  3.57957E+04  5.30649E+04 -1.66186E+04  7.58446E+04 -6.11111E+04  6.38648E+04 -8.50468E+04  3.23167E+04
 -8.15192E+04 -1.14374E+04 -5.75405E+04 -5.20915E+04 -1.54660E+04 -7.05699E+04  2.79129E+04 -4.61991E+04
  4.08876E+04  3.38915E+03  1.66009E+04  4.78779E+04 -3.46213E+04  4.79015E+04 -6.76119E+04 -7.38390E+01
 -5.45641E+04 -5.75680E+04 -6.81235E+03 -7.82557E+04  3.45237E+04 -5.67189E+04  4.88047E+04 -1.78519E+04
  4.44576E+04  1.16242E+04  3.24609E+04  2.57318E+04  1.54111E+04  3.02317E+04 -5.58987E+03  2.74234E+04
 -2.23819E+04  1.22290E+04 -1.81865E+04 -5.43421E+03  6.77621E+03 -7.58548E+03  2.31695E+04  1.38388E+04
  6.97330E+03  3.66917E+04 -3.32209E+04  3.68463E+04 -6.52350E+04  2.29010E+03 -5.81465E+04 -4.41057E+04
 -1.26976E+04 -6.46618E+04  4.11024E+04 -4.65844E+04  6.00430E+04 -2.39863E+03  3.59595E+04  3.36974E+04
 -5.38386E+03  3.81946E+04 -3.13252E+04  1.75572E+04 -3.27445E+04 -3.80037E+03 -1.84359E+04 -1.18469E+04
 -8.71520E+03 -1.49243E+04 -3.51859E+02 -1.89703E+04  8.33251E+03 -2.32879E+04  1.58207E+04 -1.28044E+04
  1.07257E+04  6.17664E+03 -1.01059E+04  1.26823E+04 -2.32193E+04 -6.11000E+03 -8.64021E+03 -3.62699E+04
  2.44397E+04 -4.57943E+04  5.06057E+04 -2.06085E+04  4.74223E+04  2.00669E+04  1.67347E+04  4.62458E+04
 -1.64194E+04  3.53300E+04 -2.67149E+04  2.61734E+03 -1.16495E+04 -2.89976E+04  2.15626E+04 -3.65093E+04
  4.33804E+04 -1.05628E+04  3.88570E+04  2.47980E+04  2.01002E+04  4.93784E+04 -8.28979E+03  5.41679E+04
 -3.40310E+04  3.67391E+04 -4.59253E+04  1.05496E+04 -4.63200E+04 -1.83180E+04 -2.53217E+04 -4.06203E+04
  7.82734E+03 -4.08884E+04  3.33837E+04 -1.64664E+04  3.14096E+04  1.13736E+04  4.76370E+03  2.01742E+04
 -1.36749E+04  9.15373E+03 -1.10850E+04 -7.58549E+03  5.50066E+03 -1.10793E+04  1.83723E+04  5.59632E+03
  1.46214E+04  2.23952E+04 -5.05251E+03  2.67136E+04 -2.30837E+04  1.31411E+04 -3.02280E+04 -3.94689E+03
 -2.37165E+04 -1.80938E+04 -1.07429E+04 -2.37312E+04  4.06971E+03 -2.39053E+04  1.87327E+04 -2.16450E+04
  3.00283E+04 -1.40271E+04  3.65760E+04  4.38092E+03  2.61642E+04  2.36576E+04  4.46583E+03  3.98781E+04
 -1.92031E+04  3.27735E+04 -2.95742E+04  1.13294E+04 -2.21259E+04 -1.01349E+04 -5.15526E+03 -1.30432E+04
  1.24360E+03 -1.40180E+03 -6.82002E+03  7.54168E+03 -1.90312E+04  4.99108E+03 -1.89680E+04 -8.77676E+03
 -1.14853E+04 -2.22531E+04  5.97331E+03 -2.66840E+04  1.78636E+04 -1.88455E+04  2.14883E+04 -1.46824E+03
  1.38121E+04  1.52334E+04 -1.45971E+03  2.18262E+04 -1.57774E+04  1.28098E+04 -2.23924E+04 -4.47936E+03
 -1.61755E+04 -1.95756E+04 -2.02138E+03 -2.62183E+04  1.19857E+04 -2.17789E+04  2.20646E+04 -1.11079E+04
  2.09053E+04  8.75052E+01  1.49245E+04  4.93180E+03  8.18017E+03  9.37055E+02  1.15699E+04 -1.97369E+03
  2.07876E+04  2.73610E+03  2.36789E+04  1.75262E+04  1.59984E+04  3.55380E+04 -2.58214E+03  4.12676E+04
 -2.38921E+04  3.42121E+04 -3.86492E+04  1.73299E+04 -4.13462E+04 -2.79527E+03 -3.41027E+04 -2.41705E+04
 -1.40039E+04 -3.43166E+04  1.19957E+04 -3.03765E+04  2.56956E+04 -1.45619E+04  2.29121E+04  7.26613E+03
  7.93749E+03  1.74448E+04 -1.04606E+04  1.44709E+04 -1.88802E+04  2.61252E+03 -1.44505E+04 -1.23624E+04
 -3.85049E+02 -1.82569E+04  9.61888E+03 -1.33610E+04  1.23086E+04 -1.17785E+03  2.84018E+03  8.17363E+03
 -8.38489E+03  3.79055E+03 -8.38665E+03 -6.80831E+03 -1.42854E+03 -1.66848E+04  1.11662E+04 -1.80603E+04
  2.12052E+04 -9.89721E+03  2.34507E+04  3.57555E+03  2.04728E+04  1.68494E+04  9.28816E+03  2.66737E+04
 -4.68882E+03  2.82049E+04 -1.86311E+04  1.76892E+04 -2.07372E+04  3.75232E+03 -1.41432E+04 -5.32819E+03
 -6.24439E+03 -6.92608E+03 -6.17067E+02  5.96303E+02 -2.83878E+03  3.43678E+03 -6.39493E+03  5.35757E+03
 -1.29186E+04 -9.98825E+02 -1.34561E+04 -1.13666E+04 -5.55377E+03 -1.80570E+04  5.77342E+03 -1.47710E+04
  1.16545E+04 -5.79842E+03  8.29346E+03  4.20664E+03 -1.93369E+02  5.72038E+03 -6.96846E+03 -9.77487E+01
 -6.54581E+03 -8.95634E+03 -1.04062E+03 -1.42337E+04  7.84086E+03 -1.49474E+04  1.81622E+04 -8.17589E+03
  2.17538E+04  2.01831E+03  1.53567E+04  1.28054E+04  3.12514E+03  1.70261E+04 -9.10402E+03  1.43944E+04
 -1.14375E+04  4.09795E+03 -6.22197E+03 -3.05227E+03  1.87966E+03 -4.20130E+03  7.72856E+03 -1.14034E+03
  6.87380E+03  6.28624E+03  1.28275E+03  1.15738E+04 -8.36915E+03  1.15319E+04 -1.44360E+04  2.23644E+03
 -9.39737E+03 -7.81698E+03 -2.00349E+02 -1.22572E+04  7.91780E+03 -6.25353E+03  8.40456E+03  3.07773E+03
  1.84218E+03  8.88302E+03 -7.72224E+03  1.04502E+04 -1.14303E+04  4.51107E+03 -1.25222E+04 -4.31153E+03
 -7.08318E+03 -1.42560E+04  3.64111E+03 -1.60843E+04  1.37172E+04 -9.72601E+03  1.46085E+04  2.19192E+03
  9.07209E+03  1.16904E+04 -1.32736E+03  1.38924E+04 -1.03648E+04  7.77946E+03 -1.15778E+04 -8.88487E+02
 -9.72885E+03 -9.07213E+03 -1.80020E+03 -1.04589E+04  5.81661E+03 -8.73419E+03  6.82365E+03 -3.50486E+03
  4.57578E+03  1.83067E+03 -1.23492E+03  1.81622E+03 -1.05739E+03 -3.16976E+03  1.92319E+03 -6.07150E+03
  1.03981E+04 -4.01555E+03  1.39637E+04  1.29664E+03  1.38888E+04  9.72971E+03  9.50064E+03  1.80853E+04
 -4.35290E+03  2.07852E+04 -1.73068E+04  1.53850E+04 -2.28055E+04  2.75948E+03 -1.83967E+04 -7.95769E+03
 -8.99647E+03 -1.51730E+04 -3.23283E+02 -1.28950E+04  4.41661E+03 -6.95353E+03  5.07824E+03 -4.89494E+03
  3.63545E+03 -2.74780E+03  3.80892E+03 -3.98623E+03  5.45563E+03 -3.18814E+03  7.27188E+03 -8.22843E+02
  9.69025E+03  2.11549E+03  5.07344E+03  8.01822E+03 -1.85977E+03  9.69244E+03 -9.92112E+03  7.30926E+03
 -1.28390E+04 -1.42891E+03 -8.08263E+03 -8.69812E+03 -1.31818E+03 -1.38779E+04  7.79884E+03 -1.36258E+04
  1.46730E+04 -7.36130E+03  1.66288E+04  2.67399E+03  1.18899E+04  1.21406E+04  2.02701E+03  1.56931E+04
 -6.74586E+03  1.27674E+04 -9.02763E+03  4.18482E+03 -5.95100E+03 -1.70985E+03 -2.42444E+03 -1.69297E+03
 -9.85352E+02 -2.31247E+02 -1.96716E+03  2.52249E+03 -5.44748E+03  2.15486E+03 -9.09810E+03 -1.49407E+03
 -6.42597E+03 -9.05799E+03  6.70631E+01 -1.28667E+04  7.92908E+03 -1.14254E+04  1.27076E+04 -3.52120E+03
  1.25448E+04  6.07266E+03  5.92348E+03  1.09907E+04 -2.68756E+03  1.33707E+04 -9.07727E+03  7.85545E+03
 -1.17676E+04  2.18590E+02 -9.37179E+03 -7.52660E+03 -9.13144E+02 -1.03731E+04  5.73903E+03 -7.64262E+03
  8.39469E+03 -2.47304E+03  6.02874E+03  1.98089E+03  1.99860E+03  3.99971E+03  1.37892E+03  1.82762E+03
  2.32899E+03  8.51829E+02  3.30515E+03  2.06285E+03  3.83548E+03  4.50698E+03  3.55568E+03  6.43074E+03
 -2.67585E+03  9.83715E+03 -8.71576E+03  1.00793E+04 -1.31639E+04  2.44756E+03 -1.36021E+04 -5.25442E+03
 -6.55138E+03 -1.27223E+04  1.76796E+03 -1.36663E+04  7.54180E+03 -8.62267E+03  1.01785E+04 -2.39639E+03
  7.69721E+03  4.84849E+03  2.14148E+03  7.49566E+03 -3.61816E+03  4.78983E+03 -5.15478E+03 -7.60178E+02
 -2.31256E+03 -5.68350E+03  3.26977E+03 -5.93195E+03  5.26861E+03 -2.75207E+03  5.21962E+03  9.40255E+02
  3.14918E+03  2.35298E+03  1.04013E+03  1.72211E+03 -2.82493E+02  2.15168E+03  1.32997E+03 -6.26917E+02
  2.08549E+03 -8.02363E+02  5.42856E+03  1.99044E+03  2.46567E+03  6.87752E+03 -1.34975E+03  8.92765E+03
 -6.07071E+03  5.72721E+03 -8.32586E+03  1.90915E+03 -7.35728E+03 -2.65531E+03 -3.00169E+03 -5.04032E+03
  8.37867E+02 -5.37197E+03  3.04189E+03 -2.47937E+03  2.85974E+03  2.24724E+03 -1.24185E+03  4.15733E+03
 -4.91923E+03  2.41879E+03 -6.26922E+03 -2.77553E+03 -3.74424E+03 -6.84896E+03  1.23094E+03 -6.58238E+03
  3.77536E+03 -4.32367E+03  4.82107E+03 -1.20225E+02  4.46396E+03  1.85171E+03  1.00019E+03  3.78235E+03
 -2.43434E+03  1.35746E+03 -3.02779E+03 -2.58526E+03  9.98969E+02 -5.70561E+03  6.53177E+03 -4.09160E+03
  7.82848E+03  5.69896E+02  8.38697E+03  5.50620E+03  2.39339E+03  8.23928E+03 -2.84411E+03  8.05277E+03
 -6.60874E+03  2.95053E+03 -7.00041E+03 -1.39698E+03 -3.90382E+03 -5.45332E+03  1.17701E+03 -4.76327E+03
  5.37548E+03 -2.58754E+03  4.44558E+03  2.53237E+03  1.58515E+03  4.59011E+03 -5.31371E+02  3.71814E+03
 -2.07227E+03  2.89428E+03 -1.98382E+03  1.05797E+03 -1.05935E+03  7.91467E+02 -8.79063E+02  1.74370E+03
 -2.00398E+03  3.20586E+03 -5.75128E+03  3.13300E+03 -7.85801E+03  2.75030E+02 -9.00499E+03 -5.54834E+03
 -5.37397E+03 -1.07552E+04  2.03750E+03 -1.28005E+04  7.71030E+03 -9.78673E+03  1.20302E+04 -3.93415E+03
  1.08458E+04  2.36866E+03  6.55223E+03  7.82910E+03  2.49048E+02  8.59909E+03 -3.39005E+03  6.14292E+03
 -4.56942E+03  2.48607E+03 -2.99583E+03 -1.39168E+03 -1.15746E+03 -3.27518E+02 -4.49123E+02  1.42824E+02
 -1.52745E+03  3.86529E+02 -1.93210E+03 -2.87890E+02 -5.74333E+02 -2.29972E+03 -4.03190E+01 -3.28406E+03
  3.72033E+03 -2.52277E+03  5.05465E+03  3.75960E+02  6.22840E+03  4.62756E+03  1.15173E+03  8.27038E+03
 -3.77879E+03  9.56913E+03 -8.75907E+03  5.63397E+03 -1.05004E+04 -8.63209E+02 -7.75251E+03 -6.18372E+03
 -3.50054E+03 -8.67766E+03  2.04131E+03 -7.50399E+03  4.85173E+03 -4.20998E+03  5.11609E+03  2.07704E+02
  2.93919E+03  2.80573E+03 -3.18589E+02  1.80759E+03 -1.39758E+03  1.12265E+02  8.84260E+01 -2.04411E+03
  2.57501E+03 -1.05350E+03  3.09724E+03  1.46634E+03  2.10186E+03  2.72406E+03  2.80239E+02  3.86091E+03
 -3.13952E+03  3.57857E+03 -5.45098E+03  4.01076E+02 -4.88830E+03 -3.98836E+03 -5.86382E+02 -6.78466E+03
  3.60969E+03 -5.62327E+03  6.45219E+03 -1.71481E+03  6.38870E+03  1.51037E+03  3.88810E+03  5.04772E+03
  9.65051E+02  5.33449E+03 -1.83128E+03  4.74909E+03 -3.84399E+03  2.62550E+03 -2.73843E+03  3.54883E+02
 -1.72510E+03 -3.66323E+02 -2.06626E+03  1.29279E+03 -2.75159E+03  9.79658E+02 -4.21088E+03 -8.37823E+02
 -4.24435E+03 -2.94807E+03 -1.41369E+03 -5.61576E+03  2.67924E+03 -6.55519E+03  4.99248E+03 -2.80618E+03
  5.55369E+03  7.14903E+02  2.62787E+03  3.90156E+03 -8.01644E+02  5.29943E+03 -4.03655E+03  3.50022E+03
