 $NMID ID='MM_0lb_SNR800_11hz_g60_89.RAW', FMTDAT='(8E13.5)'
 TRAMP=1., VOLUME=1. $END
  3.10039E+05  4.54884E+02  3.37548E+05  2.50429E+05  8.47574E+04  3.38617E+05 -1.33035E+05  2.52114E+05
 -1.91104E+05  8.39407E+04 -1.12887E+05 -3.24446E+04  3.44801E+02 -5.05792E+04  5.41166E+04 -5.24276E+02
  3.56836E+04  5.29250E+04 -1.63235E+04  7.60092E+04 -6.13683E+04  6.43310E+04 -8.51763E+04  3.26268E+04
 -8.21304E+04 -1.21210E+04 -5.82751E+04 -5.24524E+04 -1.47577E+04 -7.03591E+04  2.79752E+04 -4.71545E+04
  4.10107E+04  3.44875E+03  1.64346E+04  4.86195E+04 -3.47977E+04  4.84917E+04 -6.77181E+04  3.87578E+02
 -5.45648E+04 -5.77363E+04 -7.27467E+03 -7.89015E+04  3.46479E+04 -5.72290E+04  4.96258E+04 -1.84535E+04
  4.49933E+04  1.12943E+04  3.31914E+04  2.64737E+04  1.53971E+04  3.07699E+04 -5.89062E+03  2.75300E+04
 -2.28439E+04  1.16283E+04 -1.82500E+04 -5.60357E+03  6.83262E+03 -7.66631E+03  2.34115E+04  1.37322E+04
  7.08022E+03  3.77589E+04 -3.37717E+04  3.69942E+04 -6.54043E+04  1.90266E+03 -5.85857E+04 -4.42668E+04
 -1.24140E+04 -6.52116E+04  4.17224E+04 -4.70629E+04  6.07852E+04 -2.43179E+03  3.63627E+04  3.38653E+04
 -5.57596E+03  3.88002E+04 -3.14033E+04  1.83096E+04 -3.26874E+04 -3.46028E+03 -1.86440E+04 -1.17985E+04
 -9.47348E+03 -1.51793E+04 -4.29562E+02 -1.92588E+04  8.55134E+03 -2.32910E+04  1.60363E+04 -1.22592E+04
  1.07861E+04  5.98728E+03 -1.02097E+04  1.28805E+04 -2.31612E+04 -6.26414E+03 -8.78184E+03 -3.73767E+04
  2.46537E+04 -4.64184E+04  5.16573E+04 -2.07309E+04  4.79859E+04  2.03302E+04  1.68578E+04  4.70385E+04
 -1.65803E+04  3.55510E+04 -2.73509E+04  2.32171E+03 -1.16007E+04 -2.94889E+04  2.15198E+04 -3.66011E+04
  4.44049E+04 -1.07368E+04  3.95957E+04  2.44611E+04  2.09241E+04  5.05553E+04 -8.18256E+03  5.52978E+04
 -3.51929E+04  3.73499E+04 -4.64792E+04  1.05607E+04 -4.69681E+04 -1.83308E+04 -2.57716E+04 -4.17444E+04
  7.76838E+03 -4.12803E+04  3.34035E+04 -1.65776E+04  3.17027E+04  1.12229E+04  4.97368E+03  2.06662E+04
 -1.36099E+04  9.73683E+03 -1.10594E+04 -7.42470E+03  5.70043E+03 -1.09626E+04  1.89074E+04  5.67632E+03
  1.46145E+04  2.24485E+04 -5.18610E+03  2.68772E+04 -2.34590E+04  1.39142E+04 -3.10522E+04 -3.43083E+03
 -2.44798E+04 -1.78955E+04 -1.12182E+04 -2.40596E+04  4.62127E+03 -2.49467E+04  1.91417E+04 -2.21905E+04
  3.09641E+04 -1.37365E+04  3.75050E+04  4.53829E+03  2.68207E+04  2.35877E+04  4.11333E+03  4.08143E+04
 -1.94463E+04  3.33979E+04 -3.01349E+04  1.14531E+04 -2.21812E+04 -1.02209E+04 -4.91927E+03 -1.27271E+04
  1.07900E+03 -1.54683E+03 -7.08149E+03  7.89079E+03 -1.97046E+04  4.93562E+03 -1.93499E+04 -8.82576E+03
 -1.16476E+04 -2.28427E+04  5.80748E+03 -2.70503E+04  1.83526E+04 -1.91295E+04  2.18159E+04 -1.92192E+03
  1.36861E+04  1.57331E+04 -1.16851E+03  2.28284E+04 -1.62375E+04  1.28043E+04 -2.29126E+04 -4.77910E+03
 -1.66957E+04 -2.06524E+04 -1.86376E+03 -2.72678E+04  1.20809E+04 -2.26405E+04  2.25187E+04 -1.14871E+04
  2.13426E+04 -9.53942E+01  1.55444E+04  5.20649E+03  8.46102E+03  1.24077E+03  1.13830E+04 -1.64139E+03
  2.12538E+04  2.82810E+03  2.44706E+04  1.75546E+04  1.62424E+04  3.62365E+04 -2.95254E+03  4.22900E+04
 -2.40000E+04  3.50245E+04 -3.98275E+04  1.81463E+04 -4.21863E+04 -3.28155E+03 -3.43347E+04 -2.45553E+04
 -1.40185E+04 -3.53704E+04  1.26384E+04 -3.12827E+04  2.64520E+04 -1.46975E+04  2.33081E+04  7.58761E+03
  7.81307E+03  1.78082E+04 -1.08521E+04  1.46890E+04 -1.93662E+04  3.16962E+03 -1.42766E+04 -1.24074E+04
 -2.67277E+02 -1.87426E+04  1.00018E+04 -1.37160E+04  1.27035E+04 -1.43271E+03  3.59640E+03  8.61750E+03
 -8.33798E+03  3.73694E+03 -8.58720E+03 -7.21319E+03 -1.47073E+03 -1.65779E+04  1.14364E+04 -1.87633E+04
  2.14964E+04 -1.05126E+04  2.41768E+04  3.20254E+03  2.13982E+04  1.74757E+04  1.00033E+04  2.70946E+04
 -5.12019E+03  2.92191E+04 -1.94026E+04  1.79141E+04 -2.09288E+04  4.17324E+03 -1.47698E+04 -5.35052E+03
 -6.54066E+03 -6.59268E+03 -5.85048E+02  8.09957E+02 -2.99612E+03  2.95745E+03 -7.02869E+03  5.20388E+03
 -1.38583E+04 -1.12171E+03 -1.39997E+04 -1.10892E+04 -5.98535E+03 -1.83309E+04  5.67667E+03 -1.45779E+04
  1.23808E+04 -5.67388E+03  8.63777E+03  3.83973E+03 -2.64842E+02  6.13593E+03 -7.42775E+03 -6.34849E+01
 -7.05655E+03 -9.65090E+03 -1.42077E+03 -1.45411E+04  8.09836E+03 -1.55747E+04  1.89850E+04 -8.43497E+03
  2.17791E+04  1.86187E+03  1.59160E+04  1.32924E+04  3.12189E+03  1.77760E+04 -9.20975E+03  1.45209E+04
 -1.19814E+04  4.13384E+03 -5.84955E+03 -3.21628E+03  2.07756E+03 -4.08550E+03  7.79076E+03 -7.89076E+02
  6.71273E+03  6.77893E+03  7.42526E+02  1.14130E+04 -8.63700E+03  1.13249E+04 -1.42991E+04  2.77966E+03
 -9.94995E+03 -7.56749E+03  7.98560E+01 -1.25966E+04  7.93838E+03 -6.65696E+03  8.48923E+03  3.05465E+03
  1.96932E+03  9.44569E+03 -7.43619E+03  1.06269E+04 -1.23895E+04  4.90229E+03 -1.23384E+04 -4.54389E+03
 -7.21713E+03 -1.43740E+04  3.58489E+03 -1.67572E+04  1.42516E+04 -9.88891E+03  1.54406E+04  2.46511E+03
  9.13610E+03  1.20804E+04 -1.44291E+03  1.45239E+04 -1.05029E+04  8.26726E+03 -1.16647E+04 -1.06298E+03
 -9.86440E+03 -9.84146E+03 -1.34106E+03 -1.06182E+04  5.80414E+03 -8.94735E+03  7.09591E+03 -3.12232E+03
  4.56300E+03  1.53000E+03 -9.98907E+02  1.52542E+03 -7.25418E+02 -3.18932E+03  1.95721E+03 -6.40069E+03
  9.93054E+03 -4.03506E+03  1.39223E+04  1.98189E+03  1.37795E+04  9.75990E+03  9.42275E+03  1.83608E+04
 -4.25858E+03  2.13085E+04 -1.77258E+04  1.59019E+04 -2.31498E+04  3.06146E+03 -1.89146E+04 -8.16730E+03
 -9.74491E+03 -1.52781E+04 -2.20813E+02 -1.31902E+04  4.55612E+03 -6.87900E+03  4.72241E+03 -4.88795E+03
  3.45884E+03 -2.96376E+03  4.03272E+03 -3.82982E+03  5.26038E+03 -3.22536E+03  7.30944E+03 -9.65887E+02
  9.60570E+03  2.31439E+03  5.20642E+03  8.13391E+03 -1.73380E+03  9.78907E+03 -1.00606E+04  7.62582E+03
 -1.28914E+04 -1.09430E+03 -7.71492E+03 -9.12271E+03 -7.75109E+02 -1.37832E+04  7.55130E+03 -1.40502E+04
  1.43373E+04 -7.91351E+03  1.72279E+04  2.10283E+03  1.18313E+04  1.22153E+04  2.47807E+03  1.53102E+04
 -6.03437E+03  1.27643E+04 -9.28817E+03  4.64861E+03 -6.15772E+03 -1.97504E+03 -2.53260E+03 -1.93825E+03
 -1.17138E+03 -6.62813E+01 -2.00158E+03  2.85203E+03 -5.40145E+03  2.20714E+03 -8.84622E+03 -1.08071E+03
 -5.92967E+03 -8.75753E+03  2.43396E+01 -1.28074E+04  7.68766E+03 -1.20430E+04  1.23746E+04 -3.66084E+03
  1.24581E+04  5.97795E+03  5.89809E+03  1.11973E+04 -2.65140E+03  1.27731E+04 -9.35163E+03  7.69403E+03
 -1.20430E+04  3.15632E+02 -9.17589E+03 -7.30764E+03 -1.00293E+03 -1.03034E+04  5.51660E+03 -7.87517E+03
  8.07473E+03 -2.68130E+03  5.48017E+03  2.19164E+03  2.23739E+03  3.75221E+03  1.41592E+03  1.51040E+03
  2.39388E+03  1.11152E+03  3.10816E+03  2.05310E+03  3.45257E+03  4.26223E+03  3.24085E+03  6.45219E+03
 -2.71692E+03  9.82713E+03 -8.64763E+03  1.00144E+04 -1.30141E+04  2.78216E+03 -1.33040E+04 -4.89607E+03
 -6.12186E+03 -1.27789E+04  2.25419E+03 -1.35475E+04  7.47758E+03 -8.58360E+03  1.02718E+04 -2.26935E+03
  8.00563E+03  4.63554E+03  1.69402E+03  7.18516E+03 -3.13363E+03  4.33820E+03 -4.76184E+03 -1.01154E+03
 -2.48287E+03 -5.37579E+03  2.98780E+03 -5.31689E+03  5.19197E+03 -2.43173E+03  4.65206E+03  8.72920E+02
  3.21441E+03  2.38940E+03  1.37623E+03  2.05649E+03 -6.90724E+02  2.04754E+03  1.42556E+03 -3.60446E+02
  1.87926E+03 -6.88047E+02  5.15170E+03  1.85008E+03  2.90601E+03  6.47248E+03 -8.95702E+02  8.55578E+03
 -5.90897E+03  5.53778E+03 -7.71815E+03  1.80546E+03 -7.12217E+03 -3.06248E+03 -2.69796E+03 -4.55120E+03
  8.05615E+02 -4.83471E+03  3.22333E+03 -2.33693E+03  3.10374E+03  2.35585E+03 -1.22425E+03  3.75907E+03
 -4.95471E+03  2.31584E+03 -5.63834E+03 -2.87665E+03 -2.98295E+03 -6.95133E+03  8.25905E+02 -6.79005E+03
  4.04679E+03 -3.84337E+03  4.76609E+03 -8.59096E+01  3.92563E+03  1.30559E+03  4.73626E+02  3.45618E+03
 -2.40455E+03  1.22957E+03 -3.30363E+03 -2.36516E+03  1.31975E+03 -4.99762E+03  6.09774E+03 -3.87486E+03
  7.51079E+03  2.65179E+02  7.87305E+03  4.99971E+03  2.51834E+03  8.10188E+03 -2.69512E+03  7.36362E+03
 -6.10381E+03  3.08454E+03 -6.84868E+03 -1.08005E+03 -3.66755E+03 -5.38536E+03  6.25236E+02 -4.92417E+03
  4.73284E+03 -2.43224E+03  3.75793E+03  2.15176E+03  1.27878E+03  4.30106E+03 -3.14296E+02  3.70879E+03
 -2.16276E+03  2.60354E+03 -1.61372E+03  9.27092E+02 -1.06527E+03  9.33152E+02 -1.25426E+03  1.46887E+03
 -2.41810E+03  3.06115E+03 -5.44321E+03  2.42984E+03 -7.97110E+03  1.28857E+02 -8.65893E+03 -5.00603E+03
 -4.67373E+03 -9.97035E+03  2.10676E+03 -1.19500E+04  7.20414E+03 -9.46723E+03  1.13899E+04 -3.67825E+03
  1.05553E+04  1.73247E+03  6.18011E+03  7.23065E+03  4.41829E+02  7.90135E+03 -3.36681E+03  5.96135E+03
 -4.73390E+03  2.29401E+03 -2.69652E+03 -5.00821E+02 -6.69159E+02 -7.09107E+02 -9.59679E+02  5.76010E+00
 -1.34517E+03  1.33199E+01 -1.63791E+03 -1.43406E+02 -4.68180E+02 -1.96337E+03  2.89192E+02 -3.20466E+03
  3.89672E+03 -2.71339E+03  5.02858E+03  1.70206E+02  5.33219E+03  4.14617E+03  1.36549E+03  7.69023E+03
 -3.75303E+03  8.99444E+03 -8.15535E+03  5.36385E+03 -9.42074E+03 -5.36182E+02 -7.05269E+03 -5.66296E+03
 -2.96599E+03 -7.85911E+03  2.10112E+03 -6.75784E+03  4.92833E+03 -4.10268E+03  4.94847E+03  1.94067E+02
  2.87569E+03  2.43973E+03 -1.29824E+02  2.32522E+03 -1.69307E+03  2.32088E+01 -4.06258E+02 -1.90961E+03
  2.74448E+03 -9.92915E+02  3.17382E+03  9.72194E+02  1.63240E+03  3.32073E+03  1.44043E+02  3.96191E+03
 -3.20887E+03  3.85599E+03 -5.00114E+03  3.58222E+02 -4.62344E+03 -3.19813E+03 -4.10213E+02 -6.56009E+03
  3.45930E+03 -4.75014E+03  5.68695E+03 -1.86586E+03  5.65547E+03  1.17779E+03  3.25906E+03  4.66463E+03
  9.40105E+02  4.73648E+03 -1.97639E+03  3.85468E+03 -3.26623E+03  2.13016E+03 -2.72710E+03  3.88489E+02
 -1.66214E+03 -8.60088E+01 -1.54690E+03  5.46990E+02 -2.36493E+03  9.11404E+02 -3.72659E+03 -8.50715E+02
 -3.58236E+03 -2.21856E+03 -1.17599E+03 -5.18281E+03  2.34818E+03 -5.94470E+03  4.18735E+03 -2.47641E+03
  4.59864E+03  8.26336E+02  2.40786E+03  3.25779E+03 -3.62550E+02  5.09362E+03 -4.03424E+03  3.65951E+03
