 $NMID ID='MM_0lb_SNR800_15hz_g60_59.RAW', FMTDAT='(8E13.5)'
 TRAMP=1., VOLUME=1. $END
  3.10087E+05  2.96203E+02  3.37808E+05  2.50840E+05  8.48051E+04  3.38234E+05 -1.32805E+05  2.51123E+05
 -1.90313E+05  8.30397E+04 -1.11875E+05 -3.26336E+04  4.50415E+02 -5.03295E+04  5.34984E+04 -3.43872E+02
  3.52142E+04  5.30173E+04 -1.64911E+04  7.55636E+04 -6.08703E+04  6.37139E+04 -8.45371E+04  3.20876E+04
 -8.14561E+04 -1.16710E+04 -5.71944E+04 -5.15184E+04 -1.52268E+04 -6.97119E+04  2.75234E+04 -4.60322E+04
  4.01202E+04  3.76673E+03  1.64266E+04  4.79667E+04 -3.42475E+04  4.76538E+04 -6.69349E+04 -1.42594E+02
 -5.36912E+04 -5.72637E+04 -6.79318E+03 -7.75173E+04  3.40225E+04 -5.56714E+04  4.85238E+04 -1.76720E+04
  4.37655E+04  1.14030E+04  3.21829E+04  2.58218E+04  1.58806E+04  2.97299E+04 -5.36398E+03  2.70870E+04
 -2.21240E+04  1.26304E+04 -1.82430E+04 -4.93730E+03  5.54357E+03 -7.58879E+03  2.26038E+04  1.24634E+04
  6.92197E+03  3.60034E+04 -3.28363E+04  3.56506E+04 -6.42332E+04  2.24036E+03 -5.73702E+04 -4.32181E+04
 -1.22937E+04 -6.36833E+04  4.01563E+04 -4.59493E+04  5.85594E+04 -2.48680E+03  3.50267E+04  3.29572E+04
 -5.85665E+03  3.68246E+04 -3.03233E+04  1.63628E+04 -3.09593E+04 -4.68834E+03 -1.73360E+04 -1.07859E+04
 -8.40535E+03 -1.37753E+04 -6.01257E+02 -1.84519E+04  7.38981E+03 -2.26857E+04  1.53764E+04 -1.30940E+04
  1.09650E+04  5.36057E+03 -8.65199E+03  1.28614E+04 -2.18517E+04 -4.48806E+03 -8.01040E+03 -3.41445E+04
  2.30126E+04 -4.40096E+04  4.88960E+04 -1.98733E+04  4.55129E+04  1.97280E+04  1.59296E+04  4.48276E+04
 -1.60759E+04  3.35943E+04 -2.55222E+04  2.03911E+03 -1.00565E+04 -2.79202E+04  2.10541E+04 -3.40925E+04
  4.15607E+04 -9.57059E+03  3.64536E+04  2.39648E+04  1.85877E+04  4.71992E+04 -8.12022E+03  5.13906E+04
 -3.23423E+04  3.43669E+04 -4.30685E+04  9.61128E+03 -4.32047E+04 -1.72593E+04 -2.38347E+04 -3.85189E+04
  7.40304E+03 -3.86198E+04  3.18860E+04 -1.53241E+04  2.96985E+04  1.09135E+04  4.28009E+03  1.92181E+04
 -1.31279E+04  8.69973E+03 -1.03360E+04 -7.43741E+03  5.53570E+03 -1.04953E+04  1.84055E+04  5.74096E+03
  1.36117E+04  2.20351E+04 -6.00112E+03  2.52126E+04 -2.27049E+04  1.19978E+04 -2.87452E+04 -4.39451E+03
 -2.11823E+04 -1.72501E+04 -8.75836E+03 -2.07644E+04  3.93385E+03 -2.03806E+04  1.63793E+04 -1.89477E+04
  2.72222E+04 -1.29537E+04  3.32953E+04  3.15858E+03  2.41760E+04  2.07018E+04  4.18809E+03  3.68933E+04
 -1.79519E+04  3.07574E+04 -2.83254E+04  1.06137E+04 -2.12421E+04 -1.04184E+04 -4.59341E+03 -1.30555E+04
  1.49429E+03 -2.75825E+03 -4.94353E+03  6.80775E+03 -1.68521E+04  5.08580E+03 -1.68665E+04 -7.63688E+03
 -1.02447E+04 -1.92473E+04  5.35893E+03 -2.40885E+04  1.54164E+04 -1.67714E+04  1.84569E+04 -1.69386E+03
  1.15351E+04  1.36209E+04 -1.15197E+03  1.94122E+04 -1.30727E+04  1.08038E+04 -1.95953E+04 -4.08080E+03
 -1.43317E+04 -1.75078E+04 -1.73198E+03 -2.33901E+04  1.05857E+04 -1.94699E+04  1.94767E+04 -9.58321E+03
  1.81403E+04  3.74050E+02  1.24310E+04  4.66566E+03  6.70047E+03  9.40243E+02  9.81069E+03 -1.84744E+03
  1.75953E+04  2.73016E+03  1.98632E+04  1.55043E+04  1.32042E+04  3.07505E+04 -2.57857E+03  3.45695E+04
 -2.01450E+04  2.81108E+04 -3.25829E+04  1.41208E+04 -3.40005E+04 -2.60640E+03 -2.80858E+04 -1.95741E+04
 -1.18947E+04 -2.82542E+04  9.72708E+03 -2.53719E+04  2.18572E+04 -1.26950E+04  1.97221E+04  5.51127E+03
  7.65023E+03  1.49795E+04 -8.97943E+03  1.33024E+04 -1.63146E+04  2.42279E+03 -1.28031E+04 -1.02042E+04
 -4.82804E+01 -1.54632E+04  8.05771E+03 -1.18211E+04  1.03919E+04 -1.36451E+03  2.63443E+03  6.55136E+03
 -6.97225E+03  2.51544E+03 -6.23605E+03 -6.09645E+03 -5.26113E+02 -1.38767E+04  9.56529E+03 -1.46600E+04
  1.71796E+04 -7.57227E+03  1.81486E+04  2.89471E+03  1.58650E+04  1.36342E+04  7.54831E+03  2.08786E+04
 -3.26990E+03  2.23650E+04 -1.44419E+04  1.44146E+04 -1.64832E+04  3.28128E+03 -1.17677E+04 -3.59290E+03
 -5.45349E+03 -4.91341E+03 -7.68671E+02  1.12937E+03 -2.37694E+03  2.55345E+03 -5.40181E+03  4.45752E+03
 -1.07362E+04 -4.90747E+02 -1.16158E+04 -9.03013E+03 -4.59317E+03 -1.48556E+04  4.97649E+03 -1.12642E+04
  9.69907E+03 -4.66731E+03  6.97916E+03  2.94023E+03  1.71691E+02  4.40282E+03 -5.27461E+03 -1.13090E+02
 -5.31855E+03 -7.21161E+03 -9.28049E+02 -1.10602E+04  5.90772E+03 -1.15348E+04  1.40802E+04 -6.03609E+03
  1.66275E+04  1.12106E+03  1.21834E+04  9.65235E+03  2.47222E+03  1.29570E+04 -6.94953E+03  1.10992E+04
 -9.36831E+03  3.41925E+03 -4.71070E+03 -2.24920E+03  1.71494E+03 -3.19711E+03  6.18602E+03 -7.77057E+02
  5.38049E+03  4.59815E+03  1.12890E+03  8.66256E+03 -6.29144E+03  8.89656E+03 -1.10148E+04  1.76578E+03
 -7.39110E+03 -5.53779E+03  9.23577E+01 -9.38577E+03  5.63343E+03 -5.13774E+03  5.71675E+03  1.91231E+03
  1.04819E+03  6.06978E+03 -5.63573E+03  7.18732E+03 -8.27035E+03  3.26443E+03 -8.10927E+03 -2.58192E+03
 -4.96722E+03 -9.61367E+03  2.17140E+03 -1.13390E+04  9.76734E+03 -6.74299E+03  1.01752E+04  1.81514E+03
  6.64639E+03  8.48579E+03 -4.97593E+02  1.04186E+04 -7.61738E+03  5.98698E+03 -8.05456E+03 -6.40977E+02
 -7.36336E+03 -7.18028E+03 -1.75448E+03 -7.32645E+03  3.60808E+03 -6.29812E+03  4.78368E+03 -3.17096E+03
  3.32274E+03  9.14396E+02 -6.04546E+02  1.66626E+03  3.52461E+02 -1.41665E+03  7.50205E+02 -4.07683E+03
  6.64047E+03 -2.42453E+03  8.97670E+03  1.39250E+03  9.37065E+03  5.84607E+03  7.18292E+03  1.20208E+04
 -2.59401E+03  1.39739E+04 -1.21137E+04  1.04680E+04 -1.56493E+04  1.90320E+03 -1.24424E+04 -4.76704E+03
 -6.48184E+03 -1.00926E+04 -4.81451E+02 -8.56029E+03  3.16268E+03 -4.27767E+03  2.77021E+03 -3.17013E+03
  2.04839E+03 -1.98030E+03  2.99272E+03 -2.70973E+03  4.40443E+03 -2.19892E+03  5.37093E+03 -1.85865E+02
  6.76005E+03  1.70601E+03  2.46567E+03  5.55725E+03 -1.89426E+03  6.02932E+03 -6.98133E+03  4.45908E+03
 -8.36086E+03 -9.99418E+02 -4.64995E+03 -5.82981E+03 -2.32340E+01 -8.53597E+03  5.22663E+03 -8.80155E+03
  8.77566E+03 -5.09189E+03  1.11995E+04  8.86885E+02  7.67088E+03  7.13798E+03  1.11643E+03  9.84648E+03
 -4.23600E+03  8.60344E+03 -5.54664E+03  2.80655E+03 -3.26829E+03 -1.08852E+03 -1.08268E+03 -1.12153E+03
 -7.36334E+02  2.42136E+02 -1.28770E+03  2.47073E+03 -3.69613E+03  1.56753E+03 -5.93228E+03 -7.41203E+02
 -2.98383E+03 -6.02537E+03  4.87788E+02 -7.84326E+03  4.63942E+03 -7.46051E+03  7.28169E+03 -2.41168E+03
  7.46784E+03  3.85566E+03  3.26107E+03  6.14628E+03 -1.58673E+03  7.68181E+03 -5.11201E+03  4.80817E+03
 -6.88018E+03  6.77376E+02 -5.56132E+03 -4.75424E+03 -3.44785E+02 -6.05851E+03  3.06813E+03 -4.47960E+03
  4.43184E+03 -1.63344E+03  3.15514E+03  1.15740E+03  7.48870E+02  2.34617E+03  1.14788E+03  6.58561E+02
  1.95080E+03  9.31523E+02  1.95600E+03  1.55417E+03  2.05503E+03  2.97654E+03  2.08884E+03  3.34239E+03
 -1.87194E+03  5.40360E+03 -5.00836E+03  6.25109E+03 -6.69917E+03  1.50310E+03 -7.57513E+03 -2.16103E+03
 -3.23064E+03 -6.96510E+03  1.24742E+03 -8.20581E+03  3.74744E+03 -4.94924E+03  5.87615E+03 -1.31112E+03
  4.42018E+03  2.78558E+03  7.11503E+02  3.85959E+03 -1.85895E+03  2.46592E+03 -2.86359E+03 -5.73631E+02
 -1.25134E+03 -2.75098E+03  1.96257E+03 -2.87976E+03  2.14492E+03 -1.67864E+03  2.55419E+03  3.82538E+02
  1.62604E+03  1.16438E+03  8.44281E+02  6.62104E+02 -3.99111E+02  1.01662E+03  1.62489E+03 -4.85708E+02
  7.24156E+02 -2.58583E+02  2.87896E+03  1.44842E+03  1.20536E+03  4.07449E+03 -9.31720E+02  4.96067E+03
 -3.04639E+03  2.30059E+03 -3.99812E+03  8.31635E+02 -3.95764E+03 -9.77870E+02 -7.93303E+02 -1.90104E+03
  2.55827E+02 -2.89798E+03  1.74275E+03 -1.41360E+03  1.18793E+03  1.58958E+03 -9.00713E+02  2.03085E+03
 -2.70195E+03  1.17299E+03 -2.86030E+03 -1.92464E+03 -1.50864E+03 -3.90900E+03  5.59777E+02 -3.36315E+03
  1.74834E+03 -1.44021E+03  1.99373E+03 -9.92652E+01  2.21511E+03  5.96932E+02  3.96380E+02  1.78538E+03
 -8.62145E+02  1.82472E+02 -1.65295E+03 -9.54702E+02  8.67273E+02 -2.20211E+03  3.28149E+03 -1.97815E+03
  3.16447E+03  5.50236E+02  4.53104E+03  2.34019E+03  1.59158E+03  3.87604E+03 -1.31617E+03  3.26958E+03
 -3.01049E+03  1.34736E+03 -3.13793E+03 -5.09391E+02 -1.83718E+03 -2.49298E+03  3.84789E+02 -1.95189E+03
  2.55291E+03 -9.67795E+02  1.82490E+03  1.01803E+03  7.86282E+02  2.49722E+03  8.49642E+01  1.99426E+03
 -9.94757E+02  1.68399E+03 -8.10537E+02  1.47703E+01 -8.34841E+01  7.99866E+02 -5.94257E+02  1.02507E+03
 -1.05288E+03  1.28830E+03 -2.70260E+03  1.24457E+03 -3.42985E+03  2.95081E+02 -4.34919E+03 -2.57930E+03
 -2.06892E+03 -4.46717E+03  1.06725E+03 -5.53531E+03  2.93457E+03 -4.58325E+03  5.17666E+03 -1.51217E+03
  4.60386E+03  5.54739E+02  2.76485E+03  3.25688E+03 -1.37288E+02  3.44419E+03 -1.25400E+03  2.99479E+03
 -1.81850E+03  1.61279E+03 -9.22801E+02 -1.57368E+02 -4.44137E+02 -1.62700E+02 -7.05380E+02  8.63557E+01
 -1.19760E+03 -9.27322E+01 -9.21575E+02 -2.21499E+01 -1.16284E+02 -1.20760E+03 -2.92309E+02 -1.47675E+03
  1.91315E+03 -9.86849E+02  1.60132E+03  2.36881E-01  2.37051E+03  2.20182E+03  4.12416E+01  2.89963E+03
 -1.71427E+03  4.05751E+03 -3.76436E+03  2.55357E+03 -4.07685E+03 -1.80528E+02 -2.80052E+03 -2.39123E+03
 -1.59695E+03 -3.13182E+03  4.73470E+02 -2.89907E+03  2.04076E+03 -1.63859E+03  2.32878E+03  8.92581E+01
  1.31882E+03  6.82275E+02  3.24771E+01  7.02032E+02 -7.87766E+02 -2.62949E+02  3.92058E+01 -4.55110E+02
  9.26382E+02  1.61770E+02  1.15741E+03  8.11858E+02  3.06724E+02  1.01432E+03  4.22116E+02  1.18551E+03
 -1.34580E+03  1.66860E+03 -1.90990E+03  6.17146E+01 -1.93614E+03 -9.17582E+02  1.95422E+02 -2.54184E+03
  1.24129E+03 -1.85529E+03  1.86657E+03 -5.40651E+02  2.33372E+03 -3.19396E+02  1.30131E+03  2.05984E+03
  4.82876E+02  1.66190E+03 -6.99653E+02  1.25613E+03 -1.56243E+03  1.13438E+03 -1.08577E+03  1.91010E+02
 -5.58358E+02  1.01862E+01 -5.61159E+02  3.21330E+02 -8.75453E+02  4.85931E+02 -1.54133E+03 -3.01418E+02
 -1.82178E+03 -1.93149E+02 -4.50564E+02 -1.77732E+03  1.05129E+03 -2.46025E+03  1.56385E+03 -5.60459E+02
  1.95120E+03  2.25783E+02  4.34884E+02  8.23801E+02 -1.81507E+02  1.80160E+03 -9.71896E+02  1.33139E+03
