 $NMID ID='MM_0lb_SNR800_18hz_g60_48.RAW', FMTDAT='(8E13.5)'
 TRAMP=1., VOLUME=1. $END
  3.10096E+05  3.48379E+02  3.37378E+05  2.50371E+05  8.44623E+04  3.37706E+05 -1.32446E+05  2.50962E+05
 -1.90071E+05  8.30866E+04 -1.11824E+05 -3.24587E+04  8.78934E+02 -5.06822E+04  5.38953E+04  1.26523E+02
  3.53311E+04  5.26734E+04 -1.64905E+04  7.52640E+04 -6.05381E+04  6.37131E+04 -8.38026E+04  3.20704E+04
 -8.07334E+04 -1.12539E+04 -5.71754E+04 -5.07704E+04 -1.51957E+04 -6.92399E+04  2.70510E+04 -4.54966E+04
  3.98290E+04  3.92367E+03  1.59929E+04  4.78380E+04 -3.41125E+04  4.70713E+04 -6.64321E+04 -3.93316E+02
 -5.28558E+04 -5.68647E+04 -6.57640E+03 -7.64553E+04  3.37491E+04 -5.42772E+04  4.76255E+04 -1.69346E+04
  4.28767E+04  1.12764E+04  3.13574E+04  2.51942E+04  1.54730E+04  2.87864E+04 -4.91051E+03  2.70326E+04
 -2.23090E+04  1.22905E+04 -1.90347E+04 -4.97083E+03  5.12935E+03 -7.46518E+03  2.20017E+04  1.18664E+04
  7.15910E+03  3.48271E+04 -3.17138E+04  3.50410E+04 -6.26847E+04  2.01266E+03 -5.64127E+04 -4.19714E+04
 -1.26245E+04 -6.23831E+04  3.91123E+04 -4.47949E+04  5.71948E+04 -2.20668E+03  3.32159E+04  3.19879E+04
 -5.91399E+03  3.49469E+04 -2.94452E+04  1.47651E+04 -2.94713E+04 -4.97348E+03 -1.60239E+04 -1.09249E+04
 -7.93486E+03 -1.23547E+04 -9.49673E+02 -1.77018E+04  7.37108E+03 -2.28966E+04  1.54406E+04 -1.35296E+04
  1.15605E+04  4.96622E+03 -7.43725E+03  1.29472E+04 -2.06012E+04 -3.90910E+03 -8.22134E+03 -3.27832E+04
  2.21593E+04 -4.23561E+04  4.68704E+04 -1.92027E+04  4.40717E+04  1.90186E+04  1.52699E+04  4.34588E+04
 -1.55571E+04  3.25443E+04 -2.45703E+04  1.57370E+03 -9.45316E+03 -2.74034E+04  2.05385E+04 -3.28191E+04
  3.98868E+04 -8.37936E+03  3.40306E+04  2.34483E+04  1.72408E+04  4.51044E+04 -7.80215E+03  4.79514E+04
 -3.03003E+04  3.23986E+04 -4.04104E+04  9.08886E+03 -4.08682E+04 -1.59886E+04 -2.24641E+04 -3.64849E+04
  7.33120E+03 -3.62813E+04  3.06398E+04 -1.38490E+04  2.82840E+04  1.11369E+04  3.57615E+03  1.84509E+04
 -1.33293E+04  7.78482E+03 -9.93990E+03 -7.71493E+03  6.08149E+03 -1.03466E+04  1.76319E+04  6.10170E+03
  1.29875E+04  2.18733E+04 -6.52263E+03  2.42814E+04 -2.18289E+04  1.02420E+04 -2.68766E+04 -5.79736E+03
 -1.89604E+04 -1.69342E+04 -7.10366E+03 -1.85085E+04  3.86754E+03 -1.75142E+04  1.41900E+04 -1.65546E+04
  2.38383E+04 -1.22793E+04  3.04508E+04  2.14432E+03  2.26460E+04  1.82053E+04  4.32512E+03  3.44458E+04
 -1.66756E+04  2.91754E+04 -2.68260E+04  1.01597E+04 -2.02993E+04 -1.03615E+04 -4.27513E+03 -1.35905E+04
  2.21824E+03 -3.25888E+03 -4.01499E+03  5.96605E+03 -1.47738E+04  5.28300E+03 -1.49915E+04 -6.12073E+03
 -9.23622E+03 -1.71943E+04  4.95202E+03 -2.12360E+04  1.38491E+04 -1.56491E+04  1.64801E+04 -1.20267E+03
  9.79100E+03  1.19305E+04 -5.82056E+02  1.73776E+04 -1.18107E+04  9.77511E+03 -1.71485E+04 -3.87728E+03
 -1.26138E+04 -1.57743E+04 -1.30718E+03 -2.09474E+04  9.66758E+03 -1.71623E+04  1.75156E+04 -8.32650E+03
  1.62520E+04  6.40130E+02  1.13202E+04  3.91673E+03  6.23060E+03  9.31080E+02  8.65018E+03 -1.50042E+03
  1.54072E+04  2.45818E+03  1.68900E+04  1.38830E+04  1.05748E+04  2.72753E+04 -2.86203E+03  3.00653E+04
 -1.75802E+04  2.39019E+04 -2.76496E+04  1.13709E+04 -2.86021E+04 -2.14033E+03 -2.39813E+04 -1.66648E+04
 -1.06723E+04 -2.35839E+04  7.85564E+03 -2.14240E+04  1.89752E+04 -1.18568E+04  1.75031E+04  4.41197E+03
  6.94227E+03  1.25686E+04 -7.60019E+03  1.11996E+04 -1.45181E+04  2.73432E+03 -1.09974E+04 -8.93494E+03
  3.65067E+01 -1.33902E+04  6.73549E+03 -1.01868E+04  8.68451E+03 -1.13429E+03  1.94961E+03  5.66397E+03
 -6.32525E+03  1.76298E+03 -4.62175E+03 -5.17012E+03  1.76073E+02 -1.15032E+04  8.77599E+03 -1.17056E+04
  1.40612E+04 -5.81502E+03  1.44420E+04  3.16509E+03  1.23488E+04  1.08007E+04  6.00279E+03  1.62769E+04
 -2.20303E+03  1.82955E+04 -1.14708E+04  1.16706E+04 -1.28238E+04  3.12948E+03 -9.27718E+03 -2.32393E+03
 -4.83375E+03 -4.19656E+03 -1.04191E+03  1.38766E+03 -2.28618E+03  2.25419E+03 -4.14534E+03  3.95043E+03
 -9.01446E+03 -6.70412E+02 -9.43598E+03 -7.85960E+03 -3.54551E+03 -1.24967E+04  4.07293E+03 -9.74320E+03
  8.04697E+03 -4.22645E+03  5.93914E+03  2.37629E+03  2.29578E+02  3.71254E+03 -4.22938E+03  8.58600E+01
 -4.07695E+03 -5.99911E+03 -9.41427E+02 -8.06424E+03  4.65996E+03 -9.19494E+03  1.12999E+04 -4.59246E+03
  1.34336E+04  9.25260E+02  9.95629E+03  7.45680E+03  1.76008E+03  9.79567E+03 -5.94998E+03  9.25627E+03
 -7.62551E+03  2.98562E+03 -3.98561E+03 -1.38328E+03  1.43529E+03 -2.32588E+03  5.03404E+03 -1.06235E+03
  4.37781E+03  3.66765E+03  7.43314E+02  7.07748E+03 -4.84913E+03  7.06075E+03 -8.72805E+03  2.01865E+03
 -5.65937E+03 -4.22327E+03  3.83563E+02 -7.41317E+03  4.48882E+03 -3.60170E+03  4.26170E+03  1.27008E+03
  8.98367E+02  4.17771E+03 -4.73780E+03  5.47358E+03 -5.93079E+03  2.48941E+03 -5.56333E+03 -1.39300E+03
 -3.53816E+03 -7.11795E+03  1.74154E+03 -8.50044E+03  7.02695E+03 -5.08464E+03  7.43515E+03  1.07392E+03
  5.20919E+03  5.93831E+03 -3.46635E+01  8.06690E+03 -5.95616E+03  5.00183E+03 -5.79571E+03 -5.48448E+02
 -6.38354E+03 -5.55804E+03 -1.53753E+03 -5.66027E+03  2.97950E+03 -5.00580E+03  3.10633E+03 -3.15487E+03
  2.99770E+03  6.49046E+02 -1.96119E+02  1.37696E+03  3.21367E+02 -5.21052E+02  6.57847E+02 -2.31557E+03
  4.49447E+03 -1.18666E+03  6.28507E+03  7.28593E+02  6.30704E+03  3.59991E+03  5.77346E+03  8.59503E+03
 -1.67211E+03  9.84064E+03 -8.81746E+03  7.42683E+03 -1.09859E+04  1.34022E+03 -8.73571E+03 -2.97538E+03
 -4.41572E+03 -7.38810E+03 -3.38474E+02 -5.83290E+03  2.55498E+03 -2.78333E+03  1.73149E+03 -2.49101E+03
  1.37589E+03 -1.44208E+03  2.23215E+03 -2.47818E+03  3.59580E+03 -1.84700E+03  3.81185E+03  3.14363E+02
  4.87088E+03  1.36864E+03  1.62353E+03  3.88831E+03 -1.69305E+03  3.57044E+03 -5.05488E+03  3.02507E+03
 -5.65590E+03 -9.54025E+02 -2.40589E+03 -3.93590E+03  1.19482E+02 -5.87080E+03  3.66715E+03 -6.04588E+03
  5.83180E+03 -3.55175E+03  7.54013E+03  3.68114E+02  5.34166E+03  4.76234E+03  1.17302E+03  6.74685E+03
 -2.51859E+03  6.36130E+03 -3.86889E+03  2.13857E+03 -2.27087E+03 -8.72833E+02 -7.98799E+02 -6.32445E+02
 -7.08332E+02  3.95725E+02 -1.09619E+03  2.03045E+03 -2.68467E+03  1.15454E+03 -4.52336E+03 -2.79361E+02
 -1.73351E+03 -4.51231E+03  7.50246E+02 -5.36629E+03  3.07926E+03 -4.97662E+03  4.31379E+03 -1.22433E+03
  4.96109E+03  2.82538E+03  2.32111E+03  4.17027E+03 -1.03279E+03  4.96689E+03 -3.03249E+03  3.01057E+03
 -4.32336E+03  7.81644E+02 -3.66605E+03 -2.61975E+03 -2.93080E+02 -3.46158E+03  2.02231E+03 -3.10188E+03
  3.25177E+03 -1.37333E+03  1.70358E+03  5.84964E+02  7.43249E+02  1.75237E+03  5.55349E+02  4.74622E+02
  1.53768E+03  5.30397E+02  1.52315E+03  8.65575E+02  1.05800E+03  2.17575E+03  1.76502E+03  1.86211E+03
 -1.30867E+03  3.19622E+03 -2.73573E+03  4.30289E+03 -3.64415E+03  1.19893E+03 -4.61990E+03 -7.15262E+02
 -2.00566E+03 -4.24696E+03  6.58188E+02 -5.11997E+03  2.48514E+03 -3.16599E+03  3.49870E+03 -1.07635E+03
  2.87339E+03  2.06625E+03  6.33280E+02  2.63894E+03 -1.07391E+03  1.30023E+03 -1.26223E+03  1.01065E+02
 -5.19554E+02 -1.81818E+03  1.32581E+03 -1.49095E+03  1.73519E+03 -1.14534E+03  1.55169E+03  3.76542E+02
  8.48447E+02  2.98148E+02  6.93209E+02 -3.35518E+02 -4.84951E+01  6.94347E+02  1.62690E+03 -4.20441E+02
  4.90248E+01 -8.40098E+01  1.93400E+03  7.31892E+02  8.67312E+01  2.65147E+03 -4.56587E+02  3.00913E+03
 -1.60596E+03  9.77336E+02 -2.23043E+03  6.19216E+02 -2.20108E+03 -8.68006E+02 -9.46484E+01 -1.08779E+03
  4.44359E+02 -1.48483E+03  9.92946E+02 -8.31964E+02  9.06225E+02  1.37901E+03 -7.65309E+02  1.19492E+03
 -1.56139E+03  7.06186E+02 -1.23470E+03 -9.05062E+02 -8.30457E+02 -2.27626E+03  2.52593E+02 -1.96852E+03
  1.46620E+02 -7.14793E+02  8.70305E+02  4.11113E+02  1.44414E+03 -3.94353E+01  4.42584E+02  1.17826E+03
 -3.75897E+02  1.45603E+02 -1.03067E+03 -4.40907E+02  4.02640E+02 -9.03743E+02  1.83020E+03 -8.13524E+02
  1.61828E+03 -6.43222E+01  2.74246E+03  8.50050E+02  1.03300E+03  1.91948E+03 -4.28799E+02  1.88267E+03
 -1.57461E+03  4.69817E+02 -1.82194E+03 -2.02396E+02 -7.39063E+02 -1.34494E+03  3.39260E+02 -7.36573E+02
  1.50211E+03 -5.80409E+02  7.56370E+02  8.77738E+02  3.46207E+02  1.08614E+03  1.15231E+02  1.09267E+03
 -3.29834E+02  1.06271E+03 -4.98589E+02  2.04111E+02  2.45246E+02  2.16140E+02 -6.41580E+02  7.70626E+02
 -7.15588E+02  1.08902E+03 -1.94129E+03  6.74752E+02 -1.89412E+03  7.15534E+01 -2.75155E+03 -1.10932E+03
 -1.13449E+03 -2.54143E+03  3.99566E+02 -3.09150E+03  1.11461E+03 -2.57744E+03  2.79648E+03 -9.61083E+02
  2.61211E+03 -7.95691E+01  1.49516E+03  1.78699E+03 -4.07053E+02  1.62945E+03 -2.31291E+02  1.14741E+03
 -1.10004E+03  8.67493E+02 -6.82650E+02 -1.47346E+02 -6.09148E+02  5.83145E+02 -5.35094E+02 -4.28013E+01
 -1.30115E+03 -1.38628E+02 -1.05504E+03 -1.12718E+02  4.09375E+02 -2.86146E+02 -3.99276E+02 -8.40676E+02
  1.24443E+03 -8.52626E+02  7.71745E+02  5.44452E+02  1.24860E+03  6.60781E+02 -5.30191E+02  1.44467E+03
 -9.59461E+02  2.56280E+03 -1.52950E+03  1.33308E+03 -2.02725E+03 -2.15806E+02 -1.41965E+03 -1.35267E+03
 -1.09070E+03 -1.46935E+03  2.45907E+02 -1.25270E+03  7.93777E+02 -7.36882E+02  6.09062E+02  6.51225E+00
  6.34444E+02  4.17124E+02 -1.60480E+02  4.63618E+02 -3.52853E+02 -8.63474E+01 -1.75654E+02 -5.97488E+01
  5.31544E+02  1.48324E+02  4.44781E+02  7.28488E+02  6.70413E+01  4.39332E+02  5.78041E+02  4.03269E+02
 -4.27673E+02  5.31690E+02 -9.23159E+02  1.32375E+02 -9.76842E+02 -2.99913E+02  1.14601E+02 -9.98741E+02
  7.65806E+02 -5.61720E+02  6.84041E+02 -2.05598E+01  8.14018E+02 -6.44802E+02  1.60048E+02  5.75472E+02
  2.75036E+02  7.17826E+02 -2.42340E+02  5.93003E+02 -6.36177E+02  6.89204E+02 -5.53339E+02  2.23183E+02
 -1.86076E+02 -1.29119E+02 -2.39217E+02  2.15678E+02 -5.94397E+02  3.19014E+02 -6.16193E+02 -6.04143E+02
 -1.26317E+03  4.54859E+02 -5.36756E+02 -1.02893E+03  6.17007E+02 -1.23428E+03  5.79669E+02  5.87219E+01
  7.88222E+02  5.70587E+02 -1.69852E+02  4.07417E+02 -1.17195E+02  8.35725E+02 -2.61963E+02  8.20525E+02
