 $NMID ID='MM_0lb_SNR800_15hz_g60_25.RAW', FMTDAT='(8E13.5)'
 TRAMP=1., VOLUME=1. $END
  3.10094E+05  3.58875E+02  3.37594E+05  2.50810E+05  8.45347E+04  3.38289E+05 -1.32706E+05  2.51364E+05
 -1.90837E+05  8.34553E+04 -1.12041E+05 -3.28270E+04  5.51854E+02 -5.05925E+04  5.35532E+04 -4.03707E+02
  3.55155E+04  5.29610E+04 -1.67098E+04  7.54170E+04 -6.09561E+04  6.36360E+04 -8.45030E+04  3.19496E+04
 -8.15417E+04 -1.14121E+04 -5.74877E+04 -5.15979E+04 -1.50834E+04 -7.01947E+04  2.73761E+04 -4.58470E+04
  4.03316E+04  3.74416E+03  1.62419E+04  4.77313E+04 -3.45814E+04  4.74261E+04 -6.71088E+04 -4.89816E+02
 -5.40113E+04 -5.73712E+04 -6.78786E+03 -7.73968E+04  3.39309E+04 -5.56136E+04  4.83951E+04 -1.79730E+04
  4.33528E+04  1.13905E+04  3.22540E+04  2.56661E+04  1.57036E+04  2.96142E+04 -5.18346E+03  2.71556E+04
 -2.21742E+04  1.23310E+04 -1.81934E+04 -5.08667E+03  6.06618E+03 -7.30251E+03  2.25398E+04  1.24794E+04
  6.87555E+03  3.56757E+04 -3.25569E+04  3.57569E+04 -6.38833E+04  1.85640E+03 -5.72706E+04 -4.29814E+04
 -1.25938E+04 -6.35842E+04  4.03702E+04 -4.57658E+04  5.90021E+04 -1.98823E+03  3.45399E+04  3.24345E+04
 -5.77903E+03  3.67980E+04 -2.99450E+04  1.63227E+04 -3.09989E+04 -4.41924E+03 -1.71639E+04 -1.11001E+04
 -8.86008E+03 -1.36233E+04 -4.57023E+02 -1.79401E+04  7.63952E+03 -2.31645E+04  1.54081E+04 -1.32002E+04
  1.13180E+04  5.33200E+03 -8.81414E+03  1.29967E+04 -2.12794E+04 -4.62896E+03 -8.36852E+03 -3.43365E+04
  2.31421E+04 -4.42143E+04  4.89663E+04 -1.98313E+04  4.54787E+04  1.97276E+04  1.59441E+04  4.48507E+04
 -1.58254E+04  3.37133E+04 -2.55636E+04  1.82210E+03 -9.77858E+03 -2.79927E+04  2.14826E+04 -3.43468E+04
  4.17983E+04 -9.38573E+03  3.65935E+04  2.38849E+04  1.83915E+04  4.70524E+04 -7.95405E+03  5.12062E+04
 -3.20792E+04  3.44847E+04 -4.28108E+04  9.81679E+03 -4.33703E+04 -1.71718E+04 -2.41355E+04 -3.83886E+04
  7.88222E+03 -3.83725E+04  3.18714E+04 -1.51419E+04  2.94930E+04  1.11618E+04  4.46782E+03  1.93713E+04
 -1.35449E+04  8.47920E+03 -1.00639E+04 -7.64376E+03  6.00192E+03 -1.07733E+04  1.81529E+04  5.88580E+03
  1.40507E+04  2.21785E+04 -5.69221E+03  2.55689E+04 -2.24892E+04  1.20919E+04 -2.82636E+04 -4.86767E+03
 -2.12378E+04 -1.74153E+04 -8.82776E+03 -2.09511E+04  4.20838E+03 -2.03517E+04  1.62038E+04 -1.88695E+04
  2.66918E+04 -1.30295E+04  3.31497E+04  2.95007E+03  2.43191E+04  2.05380E+04  4.34313E+03  3.69583E+04
 -1.80434E+04  3.06415E+04 -2.80459E+04  1.09998E+04 -2.10253E+04 -1.04316E+04 -4.68601E+03 -1.33234E+04
  1.78838E+03 -2.61697E+03 -5.11553E+03  7.02607E+03 -1.65650E+04  5.44486E+03 -1.66335E+04 -7.27518E+03
 -1.03671E+04 -1.94017E+04  5.46255E+03 -2.35489E+04  1.57992E+04 -1.66601E+04  1.85522E+04 -1.76829E+03
  1.16775E+04  1.33576E+04 -1.17490E+03  1.93971E+04 -1.35697E+04  1.10168E+04 -1.95216E+04 -3.79439E+03
 -1.44503E+04 -1.74725E+04 -2.18666E+03 -2.32572E+04  1.03514E+04 -1.91164E+04  1.96244E+04 -9.79348E+03
  1.79671E+04 -2.21923E+02  1.29021E+04  4.55046E+03  7.25460E+03  8.66289E+02  9.68030E+03 -1.51518E+03
  1.80549E+04  2.54514E+03  1.97483E+04  1.51384E+04  1.30204E+04  3.08350E+04 -3.00116E+03  3.48541E+04
 -2.03727E+04  2.83254E+04 -3.27827E+04  1.39353E+04 -3.45685E+04 -2.58153E+03 -2.79531E+04 -1.98100E+04
 -1.19244E+04 -2.83657E+04  9.55787E+03 -2.52775E+04  2.18448E+04 -1.29431E+04  1.96733E+04  5.32177E+03
  6.91088E+03  1.46509E+04 -9.14096E+03  1.31077E+04 -1.65312E+04  2.72947E+03 -1.27735E+04 -1.02163E+04
 -1.63421E+02 -1.54216E+04  8.35777E+03 -1.17453E+04  1.03999E+04 -1.42053E+03  2.07522E+03  6.84642E+03
 -6.92114E+03  2.65193E+03 -6.04217E+03 -5.65431E+03 -5.91646E+02 -1.37404E+04  9.76192E+03 -1.44187E+04
  1.69984E+04 -7.32131E+03  1.83898E+04  3.06929E+03  1.59357E+04  1.34185E+04  7.73162E+03  2.07589E+04
 -3.25944E+03  2.25406E+04 -1.45879E+04  1.42268E+04 -1.61476E+04  3.40843E+03 -1.13717E+04 -3.67483E+03
 -5.24497E+03 -4.90459E+03 -7.34620E+02  1.21360E+03 -2.75131E+03  2.63074E+03 -5.06736E+03  4.20778E+03
 -1.07292E+04 -9.16098E+02 -1.13976E+04 -8.87294E+03 -4.39278E+03 -1.45527E+04  4.75469E+03 -1.14565E+04
  9.49568E+03 -4.89271E+03  6.87031E+03  3.03158E+03  1.96902E+02  4.34439E+03 -5.45428E+03 -1.82406E+02
 -5.30464E+03 -7.15268E+03 -9.16345E+02 -1.04789E+04  5.99296E+03 -1.14804E+04  1.39638E+04 -5.95962E+03
  1.65551E+04  1.14658E+03  1.20720E+04  9.70540E+03  2.17429E+03  1.29598E+04 -7.04704E+03  1.13781E+04
 -9.32399E+03  3.47999E+03 -4.88751E+03 -1.82662E+03  1.76582E+03 -2.79378E+03  6.35931E+03 -8.46336E+02
  5.24769E+03  4.86506E+03  7.97084E+02  8.71373E+03 -6.14571E+03  8.70289E+03 -1.07460E+04  2.27091E+03
 -7.05398E+03 -5.46090E+03  5.11751E+01 -9.36362E+03  5.66039E+03 -4.52422E+03  5.65990E+03  1.94908E+03
  1.07078E+03  5.50006E+03 -5.76531E+03  7.36569E+03 -8.34513E+03  3.41311E+03 -8.15655E+03 -2.79184E+03
 -4.86626E+03 -9.87549E+03  2.30155E+03 -1.11171E+04  9.74881E+03 -7.19954E+03  1.06178E+04  1.98700E+03
  6.51462E+03  8.23793E+03 -5.43295E+02  1.03375E+04 -7.50782E+03  5.89831E+03 -8.02435E+03 -6.61049E+02
 -7.86147E+03 -7.06234E+03 -1.65264E+03 -7.38683E+03  3.89040E+03 -6.45784E+03  4.96379E+03 -3.20547E+03
  3.76435E+03  1.23770E+03 -1.62803E+02  1.47530E+03  1.11577E+02 -1.34818E+03  1.30015E+03 -3.82983E+03
  6.53137E+03 -2.32003E+03  9.26484E+03  1.33302E+03  9.09176E+03  5.92690E+03  6.99885E+03  1.20839E+04
 -2.46669E+03  1.41077E+04 -1.19963E+04  1.06636E+04 -1.57992E+04  1.88077E+03 -1.24484E+04 -4.86024E+03
 -6.28997E+03 -9.99432E+03 -6.30961E+02 -8.65699E+03  3.31019E+03 -4.39205E+03  2.73846E+03 -3.14414E+03
  2.64913E+03 -2.29943E+03  2.92780E+03 -2.70865E+03  4.23415E+03 -2.23112E+03  5.06478E+03 -1.78929E+02
  6.21211E+03  1.68107E+03  2.65484E+03  5.42040E+03 -2.09995E+03  5.88339E+03 -6.64465E+03  4.63019E+03
 -8.17355E+03 -1.36904E+03 -4.55430E+03 -5.32136E+03 -2.70904E+02 -8.26697E+03  4.81185E+03 -8.66414E+03
  9.03136E+03 -4.86276E+03  1.06579E+04  1.17319E+03  7.42940E+03  7.27088E+03  1.15472E+03  9.86275E+03
 -3.97869E+03  8.47934E+03 -5.47005E+03  2.97298E+03 -3.64625E+03 -1.28786E+03 -1.14257E+03 -1.03547E+03
 -7.07132E+02  1.30412E+02 -1.25338E+03  2.49665E+03 -3.82257E+03  1.58181E+03 -6.35031E+03 -9.22421E+02
 -3.43468E+03 -6.01267E+03  4.37694E+02 -7.78296E+03  4.63463E+03 -7.36857E+03  6.89773E+03 -1.74394E+03
  7.49563E+03  3.81176E+03  3.14766E+03  6.62312E+03 -1.68926E+03  7.50012E+03 -5.06297E+03  4.74621E+03
 -6.56167E+03  4.14924E+02 -5.74986E+03 -4.40626E+03 -3.85458E+02 -6.07649E+03  2.75073E+03 -4.30385E+03
  4.49071E+03 -1.69186E+03  3.00934E+03  1.03995E+03  6.07031E+02  2.54723E+03  1.33671E+03  9.38906E+02
  1.88832E+03  7.28771E+02  2.01792E+03  1.13933E+03  1.85219E+03  3.18407E+03  2.30267E+03  3.62814E+03
 -1.84290E+03  5.61386E+03 -4.94024E+03  6.20607E+03 -6.55785E+03  1.88855E+03 -6.92187E+03 -2.19945E+03
 -3.57453E+03 -6.90598E+03  1.04965E+03 -8.09249E+03  3.55714E+03 -4.62965E+03  5.37139E+03 -1.58290E+03
  4.35546E+03  2.58803E+03  1.26616E+03  4.18189E+03 -1.78794E+03  2.59673E+03 -2.30646E+03 -3.98561E+02
 -1.19414E+03 -2.86536E+03  1.81790E+03 -2.80008E+03  2.75753E+03 -1.54735E+03  2.30766E+03  4.54312E+02
  1.38346E+03  1.05296E+03  7.60762E+02  7.43479E+02 -3.30347E+02  1.35843E+03  1.59122E+03 -5.10559E+02
  7.62524E+02 -3.86430E+02  3.07917E+03  1.22329E+03  1.34933E+03  3.80239E+03 -4.90272E+02  4.85559E+03
 -3.12020E+03  2.76041E+03 -4.04938E+03  8.81471E+02 -3.75518E+03 -1.62335E+03 -1.09226E+03 -1.98828E+03
  4.89730E+02 -2.46339E+03  1.72275E+03 -1.40721E+03  1.39701E+03  2.10069E+03 -7.99125E+02  2.10694E+03
 -2.66452E+03  1.55225E+03 -2.98708E+03 -1.77099E+03 -1.56671E+03 -3.84720E+03  1.17236E+02 -3.27014E+03
  1.20504E+03 -1.81674E+03  2.32734E+03 -6.36965E+01  2.32926E+03  6.35043E+02  1.97124E+02  2.21931E+03
 -1.29964E+03  3.68215E+02 -1.71808E+03 -9.40953E+02  6.95250E+02 -2.24156E+03  2.79514E+03 -1.96873E+03
  3.28817E+03  1.30404E+02  4.51246E+03  2.51150E+03  1.52402E+03  3.92564E+03 -9.74112E+02  3.89695E+03
 -2.87840E+03  1.46743E+03 -3.16471E+03 -4.38749E+02 -1.79353E+03 -2.74250E+03  7.91146E+02 -1.96997E+03
  2.78158E+03 -1.08117E+03  2.00577E+03  1.07971E+03  4.59092E+02  2.08792E+03 -1.25378E+02  2.00801E+03
 -8.80611E+02  1.37321E+03 -9.80486E+02  4.05318E+02 -1.62762E+02  7.46213E+02 -9.72774E+02  1.20260E+03
 -8.83698E+02  1.69803E+03 -2.66751E+03  1.32894E+03 -3.61953E+03  1.43656E+02 -4.07718E+03 -2.52173E+03
 -2.15076E+03 -4.59508E+03  1.01328E+03 -5.46890E+03  3.10669E+03 -4.45055E+03  5.34976E+03 -1.67586E+03
  4.73500E+03  5.29218E+02  2.92971E+03  3.40464E+03 -1.72797E+02  3.49068E+03 -1.45030E+03  2.78941E+03
 -1.93476E+03  1.28913E+03 -1.00396E+03 -4.18899E+02 -4.25781E+02 -2.71206E+01 -5.63814E+02 -2.38798E+02
 -1.30160E+03  9.78922E+01 -1.10334E+03  2.07457E+02  3.31321E+02 -1.03474E+03 -4.50408E+02 -1.71008E+03
  1.93015E+03 -1.09555E+03  1.40065E+03  2.24889E+01  2.69716E+03  1.97435E+03  1.58606E+02  3.12700E+03
 -1.77040E+03  4.25550E+03 -3.41355E+03  2.04030E+03 -3.93387E+03 -1.73792E+00 -2.60401E+03 -2.36956E+03
 -1.36614E+03 -3.22874E+03  8.89611E+02 -3.00528E+03  1.77284E+03 -1.50865E+03  1.72279E+03  2.81580E+02
  1.11678E+03  7.40876E+02 -5.23451E+01  5.58164E+02 -7.94837E+02 -1.49594E+02 -9.23202E+01 -7.36833E+02
  1.16423E+03  8.90256E+01  9.65346E+02  7.86619E+02  8.10191E+02  1.11122E+03  1.31799E+02  9.66205E+02
 -1.42051E+03  1.51573E+03 -1.69806E+03  3.18878E+02 -1.82186E+03 -1.17787E+03  1.14913E+02 -2.49221E+03
  1.10859E+03 -2.13552E+03  1.48712E+03 -2.38841E+02  1.92879E+03 -3.06718E+02  1.26536E+03  2.07919E+03
  3.89586E+02  1.66962E+03 -8.67952E+02  1.32290E+03 -1.21010E+03  9.74395E+02 -9.63228E+02 -5.47950E+01
 -4.60791E+02 -1.63055E+01 -5.20170E+02  4.54407E+02 -1.04114E+03  6.34004E+02 -1.75933E+03 -5.78223E+02
 -1.73789E+03 -6.45164E+02 -7.22346E+02 -1.95591E+03  8.62211E+02 -2.61870E+03  2.07529E+03 -8.31322E+02
  1.53188E+03  1.75139E+02  3.14570E+02  8.71359E+02 -7.91495E+01  1.73475E+03 -1.26597E+03  1.27466E+03
