 $NMID ID='MM_0lb_SNR800_18hz_g45_52.RAW', FMTDAT='(8E13.5)'
 TRAMP=1., VOLUME=1. $END
  3.09723E+05  2.07786E+02  3.37290E+05  2.50548E+05  8.43465E+04  3.37500E+05 -1.32488E+05  2.50206E+05
 -1.89449E+05  8.24243E+04 -1.11257E+05 -3.29296E+04  1.42304E+03 -5.01465E+04  5.40962E+04  5.48724E+01
  3.50822E+04  5.23492E+04 -1.68436E+04  7.48297E+04 -6.04385E+04  6.31324E+04 -8.30774E+04  3.15695E+04
 -7.95976E+04 -1.12313E+04 -5.62990E+04 -5.03122E+04 -1.49589E+04 -6.85077E+04  2.65698E+04 -4.50686E+04
  3.91632E+04  3.94453E+03  1.56154E+04  4.70720E+04 -3.39114E+04  4.62066E+04 -6.52959E+04 -5.58197E+02
 -5.20481E+04 -5.59540E+04 -6.38561E+03 -7.51278E+04  3.30437E+04 -5.35700E+04  4.63747E+04 -1.65386E+04
  4.17730E+04  1.09585E+04  3.08214E+04  2.45317E+04  1.58859E+04  2.82340E+04 -4.53384E+03  2.69240E+04
 -2.18155E+04  1.26285E+04 -1.91357E+04 -4.19247E+03  4.36043E+03 -7.71990E+03  2.13418E+04  1.10566E+04
  7.46656E+03  3.33899E+04 -3.05719E+04  3.38141E+04 -6.11142E+04  2.20446E+03 -5.52920E+04 -4.15414E+04
 -1.23734E+04 -6.10851E+04  3.84358E+04 -4.34287E+04  5.55290E+04 -1.91869E+03  3.19362E+04  3.05349E+04
 -6.53789E+03  3.32505E+04 -2.83840E+04  1.35310E+04 -2.75603E+04 -5.37316E+03 -1.47103E+04 -1.01186E+04
 -7.59448E+03 -1.14870E+04 -9.07314E+02 -1.68011E+04  6.79647E+03 -2.27260E+04  1.52738E+04 -1.42400E+04
  1.19737E+04  4.06409E+03 -6.33895E+03  1.30668E+04 -1.95947E+04 -2.69904E+03 -7.94313E+03 -3.07619E+04
  2.09206E+04 -4.05570E+04  4.49800E+04 -1.88950E+04  4.22310E+04  1.83157E+04  1.42548E+04  4.16309E+04
 -1.56538E+04  3.14236E+04 -2.36527E+04  1.16864E+03 -8.26773E+03 -2.63590E+04  2.01297E+04 -3.14637E+04
  3.82722E+04 -7.58888E+03  3.16520E+04  2.27327E+04  1.57049E+04  4.27691E+04 -7.68533E+03  4.55964E+04
 -2.87762E+04  3.00725E+04 -3.77471E+04  8.49441E+03 -3.86824E+04 -1.51753E+04 -2.15017E+04 -3.44922E+04
  6.87815E+03 -3.43364E+04  2.91328E+04 -1.27685E+04  2.69552E+04  1.04707E+04  3.45009E+03  1.79944E+04
 -1.30972E+04  7.44653E+03 -9.79237E+03 -7.72921E+03  5.85891E+03 -1.01798E+04  1.71847E+04  6.62271E+03
  1.24463E+04  2.16647E+04 -6.61249E+03  2.34853E+04 -2.14574E+04  9.23921E+03 -2.51883E+04 -5.92152E+03
 -1.67465E+04 -1.66965E+04 -5.64452E+03 -1.68212E+04  4.06159E+03 -1.51556E+04  1.26431E+04 -1.46112E+04
  2.13658E+04 -1.16486E+04  2.83796E+04  1.16815E+03  2.13595E+04  1.63596E+04  4.30145E+03  3.28695E+04
 -1.61199E+04  2.76596E+04 -2.60128E+04  9.83720E+03 -1.97769E+04 -1.02940E+04 -4.06477E+03 -1.39654E+04
  2.72727E+03 -3.97292E+03 -2.71087E+03  5.49508E+03 -1.30243E+04  5.02582E+03 -1.37756E+04 -5.31742E+03
 -8.79539E+03 -1.56119E+04  4.47492E+03 -1.98961E+04  1.27429E+04 -1.42141E+04  1.48029E+04 -1.14678E+03
  9.05184E+03  1.08686E+04 -8.07714E+02  1.62478E+04 -1.03975E+04  8.76997E+03 -1.56813E+04 -3.64467E+03
 -1.15234E+04 -1.43215E+04 -1.85246E+03 -1.93975E+04  8.81792E+03 -1.56243E+04  1.62794E+04 -7.35747E+03
  1.46913E+04  5.55144E+02  1.03807E+04  3.57146E+03  5.31769E+03  5.36088E+02  7.52639E+03 -1.47918E+03
  1.39758E+04  2.74246E+03  1.49931E+04  1.27133E+04  9.24152E+03  2.49273E+04 -3.15785E+03  2.69682E+04
 -1.61244E+04  2.06931E+04 -2.47168E+04  9.94636E+03 -2.53071E+04 -1.89611E+03 -2.16575E+04 -1.44943E+04
 -1.00860E+04 -2.08443E+04  6.75624E+03 -1.94283E+04  1.68369E+04 -1.10515E+04  1.56832E+04  4.11708E+03
  6.33647E+03  1.15197E+04 -7.38299E+03  1.06661E+04 -1.36262E+04  2.66534E+03 -1.05484E+04 -7.95364E+03
 -2.59661E+02 -1.24921E+04  6.10840E+03 -9.61643E+03  8.19080E+03 -1.37543E+03  1.48695E+03  5.15279E+03
 -5.75723E+03  1.31577E+03 -3.73931E+03 -4.81417E+03  6.35378E+02 -1.06088E+04  8.04099E+03 -1.01718E+04
  1.25330E+04 -4.87882E+03  1.24200E+04  2.70765E+03  1.06603E+04  9.50424E+03  4.96151E+03  1.45712E+04
 -1.63882E+03  1.66244E+04 -9.79234E+03  1.01647E+04 -1.14306E+04  3.10484E+03 -8.56123E+03 -2.27211E+03
 -4.55561E+03 -3.36509E+03 -7.42229E+02  1.50255E+03 -1.98070E+03  1.97596E+03 -3.33401E+03  3.41758E+03
 -8.24588E+03 -4.78776E+02 -9.04666E+03 -7.27738E+03 -3.60268E+03 -1.16013E+04  3.53701E+03 -8.60432E+03
  7.39273E+03 -3.83227E+03  5.37952E+03  2.34849E+03  6.19275E+02  3.04745E+03 -3.37691E+03 -1.04299E+02
 -3.57488E+03 -5.48180E+03 -7.71166E+02 -7.48808E+03  4.09255E+03 -8.22679E+03  9.99201E+03 -3.96977E+03
  1.21382E+04  6.76418E+02  8.81594E+03  6.10798E+03  2.02917E+03  9.07600E+03 -5.56941E+03  8.13783E+03
 -7.14293E+03  3.24154E+03 -3.55797E+03 -1.24055E+03  1.32545E+03 -1.81933E+03  4.55811E+03 -8.71713E+02
  4.19858E+03  3.56999E+03  1.03102E+03  6.34828E+03 -4.62325E+03  6.43674E+03 -8.09765E+03  1.61311E+03
 -4.97899E+03 -3.92952E+03  3.39193E+02 -6.74145E+03  3.71531E+03 -3.20096E+03  3.75192E+03  8.53484E+02
  8.59122E+02  3.47809E+03 -4.30734E+03  4.78625E+03 -5.12297E+03  2.46899E+03 -4.72183E+03 -9.32274E+02
 -2.76999E+03 -5.86730E+03  1.57099E+03 -7.37153E+03  6.11789E+03 -4.70570E+03  6.76544E+03  8.14014E+02
  4.26497E+03  5.52106E+03  1.61003E+02  7.33706E+03 -5.26279E+03  4.29356E+03 -5.53393E+03 -6.05225E+02
 -5.99510E+03 -5.41156E+03 -1.43555E+03 -5.36974E+03  2.98236E+03 -4.79678E+03  2.82014E+03 -2.85484E+03
  3.04766E+03  3.01898E+02 -1.93302E+02  1.27530E+03  3.97208E+02 -4.07775E+02  1.02785E+02 -2.39188E+03
  4.02077E+03 -9.92299E+02  5.46514E+03  7.03543E+02  5.81503E+03  3.32578E+03  5.27734E+03  7.72658E+03
 -1.58442E+03  8.94344E+03 -7.98115E+03  6.94042E+03 -1.00067E+04  1.17399E+03 -8.15113E+03 -2.33483E+03
 -4.34898E+03 -6.86897E+03 -2.93840E+02 -5.48095E+03  2.31835E+03 -2.47271E+03  1.44264E+03 -2.33808E+03
  1.12574E+03 -1.50737E+03  2.15581E+03 -2.28621E+03  3.64251E+03 -1.43238E+03  3.60517E+03  6.70748E+02
  4.62740E+03  1.26711E+03  1.37258E+03  3.45257E+03 -1.65635E+03  3.02348E+03 -4.52668E+03  2.86088E+03
 -5.05315E+03 -1.00278E+03 -1.80048E+03 -3.60489E+03  3.56602E+02 -5.14339E+03  3.32447E+03 -5.43960E+03
  5.31772E+03 -3.34052E+03  6.84937E+03  1.82267E+02  4.99857E+03  4.26534E+03  1.33924E+03  6.31705E+03
 -2.07538E+03  5.58676E+03 -3.47206E+03  1.75581E+03 -2.08610E+03 -9.59718E+02 -7.95248E+02 -7.97842E+02
 -2.74208E+02  1.86121E+02 -9.72158E+02  2.13296E+03 -2.66604E+03  1.02990E+03 -4.02947E+03 -2.20050E+02
 -1.48944E+03 -4.60673E+03  8.32312E+02 -4.69439E+03  2.71563E+03 -4.69160E+03  3.68379E+03 -1.45593E+03
  4.28301E+03  2.64310E+03  1.58363E+03  3.44423E+03 -6.67883E+02  4.47079E+03 -2.60501E+03  2.76362E+03
 -3.75741E+03  6.76507E+02 -3.60065E+03 -2.59841E+03 -6.67813E+01 -3.17382E+03  1.65080E+03 -2.60233E+03
  2.85709E+03 -1.51547E+03  1.93050E+03  7.71067E+02  3.71794E+02  1.75477E+03  9.07717E+02  4.74688E+02
  1.58155E+03  6.32462E+02  1.14465E+03  1.06055E+03  9.40848E+02  2.13062E+03  1.46048E+03  1.84874E+03
 -1.22790E+03  3.15009E+03 -2.54972E+03  4.04026E+03 -3.21346E+03  1.39860E+03 -4.41526E+03 -6.17791E+02
 -1.69433E+03 -3.79489E+03  3.45878E+02 -5.02570E+03  1.94120E+03 -2.69121E+03  3.40133E+03 -1.09330E+03
  2.56125E+03  2.06545E+03  4.03049E+02  2.69563E+03 -6.67575E+02  1.10110E+03 -1.19109E+03 -2.34427E+02
 -7.10493E+02 -1.50898E+03  1.35743E+03 -1.47644E+03  1.50862E+03 -9.26060E+02  1.56973E+03  5.16359E+02
  9.73090E+02  3.39948E+02  7.98422E+02  7.75895E+00 -4.90628E+02  7.28403E+02  1.42323E+03 -3.76117E+00
  1.57161E+02 -2.23152E+02  1.89509E+03  6.10643E+02  8.81853E+01  2.30078E+03 -2.53083E+02  3.06474E+03
 -1.63189E+03  1.18258E+03 -2.02582E+03  5.32168E+02 -2.44847E+03 -5.58696E+02 -6.69250E+01 -1.03273E+03
  4.08443E+02 -1.26274E+03  9.46618E+02 -9.95856E+02  5.16274E+02  1.12513E+03 -9.21087E+02  1.35775E+03
 -1.84786E+03  1.21431E+03 -1.22186E+03 -1.42696E+03 -9.86853E+02 -2.45829E+03  3.20151E+02 -1.51224E+03
  5.13868E+02 -7.81167E+02  1.03672E+03  6.24479E+01  1.43506E+03 -2.38408E+02  4.75762E+02  1.24541E+03
 -1.25908E+02 -8.09217E+01 -1.03124E+03 -3.99836E+02  5.80079E+02 -8.99546E+02  1.56739E+03 -9.83887E+02
  1.37198E+03  3.03767E+02  2.70841E+03  7.40040E+02  1.20756E+03  1.89921E+03 -5.71826E+02  2.00301E+03
 -1.64637E+03  5.10398E+02 -1.61661E+03 -1.54093E+02 -1.06179E+03 -1.39319E+03  2.93549E+02 -7.58795E+02
  1.70472E+03 -7.98566E+02  1.00316E+03  5.43626E+02  2.70303E+02  1.38839E+03  1.21671E+02  1.03238E+03
 -4.91348E+02  1.28587E+03 -4.08926E+02  2.72050E+02 -1.29755E+02  4.69430E+02 -8.16944E+02  5.13760E+02
 -4.83979E+02  1.05976E+03 -1.91213E+03  4.21216E+02 -1.83795E+03  2.25889E+02 -2.56675E+03 -1.06310E+03
 -1.17115E+03 -2.62807E+03  4.06129E+02 -2.73514E+03  1.22492E+03 -2.91638E+03  2.96829E+03 -1.18814E+03
  2.55442E+03  6.29594E+01  1.25848E+03  1.61645E+03 -4.90199E+02  1.66708E+03 -7.60293E+02  1.27425E+03
 -1.09236E+03  9.31182E+02 -8.02447E+02 -1.48236E+02 -5.75667E+02  3.15836E+02 -7.52549E+02  2.64062E+02
 -1.36381E+03  2.67638E+02 -1.02580E+03  1.82597E+02  2.06831E+02 -3.18753E+02 -3.86308E+02 -8.37389E+02
  1.35956E+03 -6.45797E+02  3.85268E+02  8.52592E+01  1.33867E+03  1.20336E+03 -3.89726E+02  1.36349E+03
 -1.28852E+03  2.46738E+03 -1.52433E+03  1.66643E+03 -2.18699E+03 -1.92146E+02 -1.44294E+03 -1.34781E+03
 -8.03555E+02 -1.57323E+03  2.87714E+02 -1.59300E+03  7.19671E+02 -7.05223E+02  7.29830E+02  3.53900E+02
  8.34487E+02  5.88778E+02  7.20045E+01  5.51087E+02 -3.05556E+02 -1.12218E+02 -7.21206E+01 -4.85040E+02
  4.46769E+02  1.49221E+02  3.86167E+01  5.67641E+02  1.12248E+02  7.81954E+02  4.34048E+02  5.26577E+02
 -1.02528E+03  7.11117E+02 -4.08085E+02 -3.16955E+01 -9.75637E+02 -7.47244E+02  3.19186E+01 -1.08861E+03
  6.42103E+02 -6.98949E+02  5.49647E+02 -5.92262E+01  9.90287E+02 -4.49108E+02  3.46112E+02  6.66871E+02
  2.54434E+02  5.55773E+02 -3.07455E+02  6.48971E+02 -4.60056E+02  9.95703E+02 -3.89316E+02 -1.97211E+02
 -3.92580E+02 -1.87753E+02 -5.52994E+02  3.41543E+02 -4.90446E+02  4.06278E+01 -6.05521E+02 -2.59701E+02
 -1.27917E+03  3.46239E+02 -5.73161E+02 -1.12033E+03  6.45100E+02 -1.58044E+03  8.57523E+02 -5.79547E+02
  6.62407E+02  5.94497E+01 -3.40418E+02  4.69402E+02  7.67917E+01  9.03129E+02 -2.50793E+02  7.53430E+02
