 $NMID ID='MM_0lb_SNR800_15hz_g45_48.RAW', FMTDAT='(8E13.5)'
 TRAMP=1., VOLUME=1. $END
  3.09633E+05  4.70846E+02  3.37680E+05  2.50529E+05  8.45926E+04  3.37475E+05 -1.32427E+05  2.50810E+05
 -1.90248E+05  8.29194E+04 -1.11542E+05 -3.25198E+04  1.40876E+03 -5.01879E+04  5.37632E+04  1.79111E+01
  3.50346E+04  5.27764E+04 -1.67889E+04  7.53943E+04 -6.06895E+04  6.31991E+04 -8.37110E+04  3.17938E+04
 -8.04867E+04 -1.09389E+04 -5.71357E+04 -5.09589E+04 -1.50748E+04 -6.92361E+04  2.71886E+04 -4.53231E+04
  3.96217E+04  3.95775E+03  1.60288E+04  4.76573E+04 -3.42028E+04  4.70240E+04 -6.63156E+04 -3.83013E+02
 -5.27543E+04 -5.68632E+04 -6.38587E+03 -7.60653E+04  3.36444E+04 -5.44187E+04  4.72463E+04 -1.70067E+04
  4.30197E+04  1.13145E+04  3.13031E+04  2.48977E+04  1.57873E+04  2.89580E+04 -4.99356E+03  2.69249E+04
 -2.21753E+04  1.27247E+04 -1.89488E+04 -5.06531E+03  5.16987E+03 -7.23970E+03  2.19609E+04  1.17023E+04
  7.20074E+03  3.46502E+04 -3.14552E+04  3.50806E+04 -6.24633E+04  2.37385E+03 -5.64084E+04 -4.21830E+04
 -1.23675E+04 -6.26779E+04  3.91546E+04 -4.45937E+04  5.75764E+04 -2.25608E+03  3.33877E+04  3.18048E+04
 -6.17704E+03  3.51697E+04 -2.95623E+04  1.52820E+04 -2.93363E+04 -4.88999E+03 -1.59363E+04 -1.10027E+04
 -7.72969E+03 -1.28266E+04 -9.50452E+02 -1.74374E+04  7.37666E+03 -2.30170E+04  1.53092E+04 -1.33351E+04
  1.17652E+04  4.92746E+03 -7.78663E+03  1.30033E+04 -2.06428E+04 -3.72512E+03 -8.33955E+03 -3.28272E+04
  2.19025E+04 -4.26081E+04  4.69744E+04 -1.90963E+04  4.41960E+04  1.90154E+04  1.52598E+04  4.32039E+04
 -1.59423E+04  3.23468E+04 -2.48480E+04  1.49483E+03 -9.33053E+03 -2.74011E+04  2.08173E+04 -3.30838E+04
  3.99815E+04 -8.69544E+03  3.42216E+04  2.35938E+04  1.70657E+04  4.50584E+04 -8.09320E+03  4.87476E+04
 -3.07039E+04  3.22988E+04 -4.02801E+04  9.13291E+03 -4.09536E+04 -1.60783E+04 -2.23343E+04 -3.68451E+04
  7.37278E+03 -3.67475E+04  3.08757E+04 -1.40061E+04  2.83411E+04  1.06503E+04  3.47948E+03  1.86149E+04
 -1.36086E+04  8.11349E+03 -1.00564E+04 -7.88167E+03  5.82732E+03 -1.04002E+04  1.76839E+04  6.27015E+03
  1.33256E+04  2.19060E+04 -6.13110E+03  2.48070E+04 -2.19512E+04  1.06277E+04 -2.68231E+04 -5.02303E+03
 -1.95136E+04 -1.68623E+04 -7.69665E+03 -1.95050E+04  3.95427E+03 -1.77087E+04  1.45604E+04 -1.71254E+04
  2.45517E+04 -1.23813E+04  3.12130E+04  2.27344E+03  2.28108E+04  1.90190E+04  4.11546E+03  3.48134E+04
 -1.73405E+04  2.89927E+04 -2.75021E+04  1.01389E+04 -2.05184E+04 -1.02689E+04 -4.24217E+03 -1.35823E+04
  2.32146E+03 -2.86359E+03 -4.36734E+03  6.26423E+03 -1.53772E+04  5.09373E+03 -1.54282E+04 -6.41595E+03
 -9.60497E+03 -1.80290E+04  5.07132E+03 -2.20125E+04  1.40787E+04 -1.58155E+04  1.65169E+04 -1.64181E+03
  1.08088E+04  1.23019E+04 -8.83134E+02  1.81465E+04 -1.24321E+04  1.02150E+04 -1.78958E+04 -3.84216E+03
 -1.34125E+04 -1.61718E+04 -1.41698E+03 -2.18434E+04  9.56044E+03 -1.74933E+04  1.84283E+04 -8.41426E+03
  1.67211E+04  5.00825E+02  1.20250E+04  4.33141E+03  6.10376E+03  9.84887E+02  8.99511E+03 -1.21792E+03
  1.63199E+04  2.68317E+03  1.79037E+04  1.45871E+04  1.11682E+04  2.84660E+04 -2.90555E+03  3.18689E+04
 -1.86210E+04  2.53902E+04 -2.91603E+04  1.22465E+04 -3.05826E+04 -2.18988E+03 -2.57754E+04 -1.75898E+04
 -1.12716E+04 -2.53210E+04  8.54400E+03 -2.31107E+04  2.00349E+04 -1.19887E+04  1.80087E+04  4.75761E+03
  7.06331E+03  1.30739E+04 -8.46059E+03  1.18485E+04 -1.54240E+04  2.69516E+03 -1.15489E+04 -9.36975E+03
 -9.45052E+01 -1.45605E+04  7.23357E+03 -1.09445E+04  9.44534E+03 -1.13187E+03  1.91482E+03  5.79486E+03
 -6.66556E+03  2.15390E+03 -5.35911E+03 -5.17972E+03 -1.39086E+01 -1.21284E+04  9.16415E+03 -1.26671E+04
  1.52613E+04 -6.58438E+03  1.61062E+04  2.90050E+03  1.39132E+04  1.15700E+04  6.68432E+03  1.85563E+04
 -2.68490E+03  2.02821E+04 -1.27742E+04  1.28167E+04 -1.47206E+04  3.32703E+03 -1.05462E+04 -2.87214E+03
 -4.83385E+03 -4.10420E+03 -8.26248E+02  9.50664E+02 -2.50802E+03  2.45290E+03 -4.56362E+03  4.05915E+03
 -9.78479E+03 -6.90827E+02 -1.06643E+04 -8.24283E+03 -4.11819E+03 -1.35311E+04  4.18919E+03 -1.06191E+04
  9.00377E+03 -4.73898E+03  6.23947E+03  2.66337E+03  6.54483E+02  4.00102E+03 -4.71561E+03 -1.15053E+02
 -4.77830E+03 -6.83449E+03 -7.90398E+02 -9.51959E+03  5.50938E+03 -9.97071E+03  1.27191E+04 -5.20332E+03
  1.49830E+04  1.03493E+03  1.09537E+04  8.42816E+03  2.06935E+03  1.13035E+04 -6.44330E+03  1.00595E+04
 -8.12082E+03  3.06230E+03 -4.30471E+03 -1.85983E+03  1.46827E+03 -2.70639E+03  5.76294E+03 -9.91106E+02
  4.87981E+03  4.20640E+03  1.15898E+03  7.86697E+03 -5.48288E+03  8.18566E+03 -1.00232E+04  2.00794E+03
 -6.15855E+03 -4.60136E+03  3.12760E+02 -8.47073E+03  5.02353E+03 -4.41695E+03  4.73420E+03  1.88721E+03
  7.33675E+02  5.16633E+03 -5.25320E+03  6.51119E+03 -7.22646E+03  3.24907E+03 -7.02703E+03 -2.12826E+03
 -4.28518E+03 -8.68487E+03  2.04643E+03 -9.83814E+03  8.57905E+03 -6.50514E+03  8.93776E+03  1.37371E+03
  5.93233E+03  7.45520E+03 -4.84452E+02  9.09094E+03 -6.69127E+03  5.30881E+03 -7.31711E+03 -7.93496E+02
 -6.99314E+03 -6.51522E+03 -1.26444E+03 -6.86135E+03  3.43953E+03 -5.88863E+03  4.06529E+03 -3.04843E+03
  3.48929E+03  6.31626E+02 -1.98368E+02  1.51709E+03  3.60363E+02 -9.41608E+02  8.27426E+02 -3.20911E+03
  5.61677E+03 -1.93905E+03  7.67539E+03  1.04340E+03  8.06928E+03  5.17008E+03  6.64621E+03  1.08223E+04
 -1.95724E+03  1.23936E+04 -1.09690E+04  9.49526E+03 -1.39728E+04  1.43540E+03 -1.12710E+04 -4.30799E+03
 -5.77055E+03 -9.17966E+03 -6.09518E+02 -7.54706E+03  2.95765E+03 -3.73130E+03  2.58013E+03 -2.74043E+03
  2.01853E+03 -2.07742E+03  2.54577E+03 -2.81874E+03  3.86592E+03 -1.67755E+03  4.79709E+03 -7.54419E+01
  6.48855E+03  1.71465E+03  2.29057E+03  5.08355E+03 -1.86271E+03  5.20675E+03 -6.03333E+03  4.14465E+03
 -7.38444E+03 -1.16789E+03 -3.59498E+03 -5.15190E+03  6.53169E+01 -7.50099E+03  4.59283E+03 -7.79379E+03
  8.14827E+03 -4.27278E+03  9.88061E+03  1.11743E+03  7.17346E+03  6.80647E+03  1.34125E+03  8.93524E+03
 -3.57797E+03  7.70851E+03 -5.20725E+03  2.29522E+03 -3.37736E+03 -1.50073E+03 -1.06394E+03 -7.97612E+02
 -6.40577E+02  1.25164E+02 -1.14198E+03  2.20254E+03 -3.34119E+03  1.51325E+03 -5.82779E+03 -6.65469E+02
 -2.96595E+03 -5.36629E+03  4.52179E+02 -6.75448E+03  4.05085E+03 -6.73771E+03  6.19150E+03 -2.09423E+03
  6.83829E+03  3.60281E+03  2.85310E+03  5.58365E+03 -1.29766E+03  6.98525E+03 -4.61392E+03  4.29416E+03
 -6.17296E+03  4.84397E+02 -4.63543E+03 -3.95923E+03 -6.45813E+02 -5.15439E+03  2.70996E+03 -4.16249E+03
  4.18814E+03 -1.45514E+03  2.99905E+03  1.06655E+03  8.52979E+02  2.11778E+03  9.37442E+02  8.99309E+02
  1.86339E+03  4.61882E+02  1.62654E+03  1.02590E+03  2.01223E+03  2.76980E+03  1.96368E+03  3.54575E+03
 -1.59137E+03  4.90689E+03 -4.47501E+03  5.77323E+03 -6.09538E+03  1.46976E+03 -6.49201E+03 -1.60153E+03
 -2.80402E+03 -6.06188E+03  7.17728E+02 -7.54532E+03  3.56381E+03 -4.43530E+03  4.98523E+03 -1.12948E+03
  4.19798E+03  2.80952E+03  7.78113E+02  3.60371E+03 -1.62902E+03  2.27457E+03 -2.10036E+03 -7.27850E+01
 -1.15954E+03 -2.42301E+03  1.67513E+03 -3.04853E+03  2.55345E+03 -1.39702E+03  2.29582E+03  5.84324E+02
  1.56029E+03  1.02961E+03  7.68163E+02  5.95717E+02 -7.35637E+02  9.65583E+02  1.53143E+03 -4.40763E+02
  5.95768E+02 -1.59029E+02  2.58946E+03  8.15249E+02  9.23967E+02  3.65725E+03 -6.05659E+02  4.79176E+03
 -2.97328E+03  2.24942E+03 -3.75002E+03  7.65493E+02 -3.82412E+03 -1.27057E+03 -1.17103E+03 -1.89968E+03
  5.75466E+02 -2.21778E+03  1.47399E+03 -1.37892E+03  1.30974E+03  1.66961E+03 -7.44463E+02  2.36417E+03
 -2.61178E+03  1.40913E+03 -2.54308E+03 -1.93670E+03 -1.42733E+03 -3.51340E+03  3.09123E+02 -2.90561E+03
  1.71506E+03 -1.15628E+03  1.62935E+03 -1.43109E+02  2.14114E+03  3.81237E+02  2.38136E+02  1.82639E+03
 -1.01693E+03  2.79387E+02 -1.55694E+03 -8.48620E+02  7.74561E+02 -1.89952E+03  2.93030E+03 -2.02873E+03
  2.86742E+03  3.25983E+02  4.24038E+03  1.89935E+03  1.45052E+03  3.31464E+03 -8.54933E+02  3.25242E+03
 -2.78594E+03  1.16796E+03 -2.70149E+03 -1.68761E+02 -1.74625E+03 -2.72184E+03  5.37093E+02 -1.77828E+03
  2.53390E+03 -1.14049E+03  1.54691E+03  9.03404E+02  3.41455E+02  2.46258E+03 -1.87091E+02  1.75916E+03
 -9.08274E+02  1.63328E+03 -9.41603E+02  3.61542E+02 -1.13111E+01  6.81019E+02 -9.35735E+02  7.76109E+02
 -9.63184E+02  1.74571E+03 -2.61926E+03  8.05557E+02 -3.41972E+03  2.37498E+02 -4.08507E+03 -1.97083E+03
 -2.07551E+03 -4.70015E+03  9.66337E+02 -5.06887E+03  2.81302E+03 -4.31282E+03  5.03170E+03 -1.90711E+03
  4.54175E+03  5.38745E+02  2.46561E+03  2.95019E+03 -3.68157E+02  3.43448E+03 -1.20661E+03  2.18171E+03
 -1.75863E+03  1.06660E+03 -1.33672E+03 -3.73593E+02 -5.48660E+02 -6.06186E+01 -5.65685E+02 -1.21151E+02
 -1.37256E+03  5.98309E+01 -1.29076E+03 -1.05287E+02 -1.58038E+02 -8.65519E+02 -6.87229E+01 -1.45050E+03
  1.87032E+03 -1.02101E+03  1.64757E+03  1.92299E+02  2.32602E+03  1.94644E+03  2.01361E+00  3.21010E+03
 -1.54433E+03  4.03425E+03 -3.43985E+03  2.29602E+03 -3.91022E+03 -3.08780E+02 -2.74431E+03 -2.40998E+03
 -1.46431E+03 -3.06143E+03  9.30015E+02 -2.72993E+03  1.78493E+03 -1.18433E+03  1.73354E+03  4.10693E+02
  1.56186E+03  1.04547E+03 -1.67599E+02  1.14992E+03 -7.07390E+02  7.68763E+01  2.39939E+02 -4.31109E+02
  9.28753E+02  9.57404E+01  9.38928E+02  6.21671E+02  4.41678E+02  1.07468E+03  5.26420E+02  1.29250E+03
 -1.38186E+03  1.49568E+03 -1.74366E+03  2.31369E+02 -1.37517E+03 -1.26490E+03 -1.30442E+02 -2.69319E+03
  1.34091E+03 -1.93190E+03  2.02710E+03 -6.33915E+02  2.09652E+03 -2.36048E+02  8.89059E+02  2.16518E+03
  5.84453E+02  1.67517E+03 -8.20396E+02  1.51344E+03 -1.21411E+03  1.01130E+03 -1.02660E+03  2.76466E+02
 -6.39747E+02 -2.75983E+02 -8.21941E+02  3.86536E+02 -1.32781E+03  3.02363E+02 -1.57367E+03 -5.37380E+02
 -2.13971E+03 -6.89345E+02 -5.29969E+02 -1.97051E+03  1.22418E+03 -2.80202E+03  1.90767E+03 -9.68319E+02
  1.73873E+03  2.83583E+02  2.90531E+02  1.02991E+03 -1.01755E+02  1.81478E+03 -1.21694E+03  1.41276E+03
