 $NMID ID='MM_0lb_SNR800_20hz_g50_2.RAW', FMTDAT='(8E13.5)'
 TRAMP=1., VOLUME=1. $END
  3.09898E+05  5.45578E+02  3.37091E+05  2.50321E+05  8.42212E+04  3.37273E+05 -1.32369E+05  2.50427E+05
 -1.89778E+05  8.25747E+04 -1.10875E+05 -3.30430E+04  1.70865E+03 -4.99327E+04  5.37953E+04  3.24968E+02
  3.52212E+04  5.28689E+04 -1.71383E+04  7.49918E+04 -6.04361E+04  6.24161E+04 -8.30508E+04  3.12173E+04
 -7.96521E+04 -1.11996E+04 -5.60492E+04 -5.00884E+04 -1.48620E+04 -6.79882E+04  2.64231E+04 -4.49729E+04
  3.88246E+04  4.09466E+03  1.53747E+04  4.69852E+04 -3.38658E+04  4.59506E+04 -6.51035E+04 -5.14936E+02
 -5.16364E+04 -5.59652E+04 -6.01562E+03 -7.48752E+04  3.31140E+04 -5.28436E+04  4.61461E+04 -1.61157E+04
  4.12740E+04  1.12082E+04  3.06396E+04  2.42685E+04  1.58528E+04  2.80617E+04 -4.63496E+03  2.68619E+04
 -2.16408E+04  1.29688E+04 -1.92995E+04 -4.32600E+03  4.14839E+03 -7.52169E+03  2.09446E+04  1.05247E+04
  7.30635E+03  3.29046E+04 -3.01119E+04  3.36221E+04 -6.06312E+04  1.96842E+03 -5.49736E+04 -4.10147E+04
 -1.23743E+04 -6.06272E+04  3.78550E+04 -4.31505E+04  5.49184E+04 -2.12466E+03  3.13548E+04  3.04529E+04
 -6.64716E+03  3.26045E+04 -2.81443E+04  1.28928E+04 -2.73444E+04 -5.70998E+03 -1.38540E+04 -1.00073E+04
 -7.14962E+03 -1.10904E+04 -1.04006E+03 -1.63899E+04  6.41168E+03 -2.23189E+04  1.48885E+04 -1.40458E+04
  1.23211E+04  4.21330E+03 -5.82486E+03  1.30495E+04 -1.91072E+04 -2.31627E+03 -7.84742E+03 -2.98074E+04
  2.04822E+04 -4.01844E+04  4.41427E+04 -1.84842E+04  4.15175E+04  1.80637E+04  1.40108E+04  4.12292E+04
 -1.51905E+04  3.08417E+04 -2.27421E+04  9.20991E+02 -7.98444E+03 -2.63111E+04  2.03550E+04 -3.07000E+04
  3.73384E+04 -7.05922E+03  3.06718E+04  2.25504E+04  1.51509E+04  4.18448E+04 -7.67944E+03  4.43880E+04
 -2.79834E+04  2.89214E+04 -3.64423E+04  8.07747E+03 -3.73690E+04 -1.48502E+04 -2.09545E+04 -3.37295E+04
  6.89825E+03 -3.36496E+04  2.87631E+04 -1.20877E+04  2.64354E+04  1.08662E+04  2.68715E+03  1.76329E+04
 -1.28808E+04  6.80495E+03 -9.41523E+03 -7.64907E+03  6.27047E+03 -1.00763E+04  1.70234E+04  6.62628E+03
  1.25333E+04  2.14931E+04 -6.97040E+03  2.31089E+04 -2.13176E+04  8.53881E+03 -2.45552E+04 -6.36214E+03
 -1.58668E+04 -1.61786E+04 -5.24158E+03 -1.60963E+04  3.65838E+03 -1.36743E+04  1.18858E+04 -1.37424E+04
  2.05812E+04 -1.13468E+04  2.71541E+04  7.46999E+02  2.09405E+04  1.55696E+04  4.10936E+03  3.17233E+04
 -1.59139E+04  2.67523E+04 -2.53490E+04  9.08879E+03 -1.93918E+04 -1.03782E+04 -3.82172E+03 -1.41260E+04
  2.61746E+03 -4.35699E+03 -2.34667E+03  5.20855E+03 -1.23672E+04  5.31611E+03 -1.28044E+04 -4.50221E+03
 -8.34556E+03 -1.49408E+04  4.36588E+03 -1.85746E+04  1.19669E+04 -1.34601E+04  1.39972E+04 -1.47756E+03
  8.47794E+03  1.05285E+04 -9.77771E+02  1.51070E+04 -9.59455E+03  8.48261E+03 -1.47760E+04 -3.43340E+03
 -1.07497E+04 -1.37052E+04 -1.43779E+03 -1.86860E+04  8.16974E+03 -1.44781E+04  1.55576E+04 -6.81152E+03
  1.39698E+04  7.60361E+02  9.95171E+03  3.80384E+03  4.76412E+03  3.37344E+02  7.12968E+03 -1.18062E+03
  1.30322E+04  2.72391E+03  1.36473E+04  1.19323E+04  8.44874E+03  2.34110E+04 -2.89922E+03  2.50925E+04
 -1.48572E+04  1.90276E+04 -2.26777E+04  8.80905E+03 -2.33326E+04 -1.87689E+03 -2.01504E+04 -1.33012E+04
 -9.75167E+03 -1.89360E+04  6.15164E+03 -1.77714E+04  1.56635E+04 -1.04064E+04  1.47226E+04  3.51030E+03
  6.35192E+03  1.04006E+04 -6.53042E+03  1.00381E+04 -1.25769E+04  2.69122E+03 -9.83080E+03 -7.86149E+03
  2.06249E+02 -1.18632E+04  5.73464E+03 -9.02056E+03  7.45878E+03 -1.51698E+03  1.23303E+03  4.60433E+03
 -5.29417E+03  7.88531E+02 -3.00858E+03 -4.27946E+03  9.72228E+02 -9.30662E+03  7.34801E+03 -9.36089E+03
  1.12591E+04 -4.14106E+03  1.05470E+04  2.63809E+03  9.14862E+03  8.85675E+03  4.61476E+03  1.26863E+04
 -1.63245E+03  1.46098E+04 -8.67401E+03  9.52102E+03 -1.02041E+04  2.93445E+03 -8.01772E+03 -1.50617E+03
 -4.31923E+03 -3.13010E+03 -8.25200E+02  1.68102E+03 -2.01632E+03  1.49288E+03 -3.28624E+03  3.28433E+03
 -7.49589E+03 -5.37793E+02 -8.13783E+03 -6.81908E+03 -3.49217E+03 -1.09049E+04  3.13424E+03 -7.93252E+03
  6.35594E+03 -3.34559E+03  4.91174E+03  2.18128E+03  6.54671E+02  3.13702E+03 -3.06587E+03 -2.22021E+02
 -2.96933E+03 -4.79401E+03 -7.55434E+02 -6.58076E+03  3.47588E+03 -7.14059E+03  9.13285E+03 -3.46872E+03
  1.09007E+04  2.14077E+02  8.14661E+03  5.50489E+03  1.79324E+03  7.61745E+03 -5.01754E+03  7.62084E+03
 -6.38795E+03  2.56317E+03 -3.45153E+03 -1.15473E+03  1.14714E+03 -1.61008E+03  4.45571E+03 -9.69368E+02
  3.88960E+03  3.10144E+03  9.19442E+02  5.73739E+03 -3.86838E+03  5.78728E+03 -7.30096E+03  1.87375E+03
 -4.25113E+03 -3.32133E+03  1.72125E+02 -5.94232E+03  3.39773E+03 -2.78826E+03  3.04768E+03  8.22998E+02
  3.90468E+02  2.81734E+03 -3.77324E+03  4.03877E+03 -4.05976E+03  2.12525E+03 -3.59014E+03 -5.84779E+02
 -2.29772E+03 -5.08864E+03  1.07829E+03 -6.15931E+03  4.94784E+03 -4.09839E+03  5.52671E+03  7.44716E+02
  4.21880E+03  4.52466E+03  1.44343E+02  6.56199E+03 -4.68105E+03  3.93986E+03 -4.50625E+03 -2.65630E+02
 -5.20469E+03 -4.49792E+03 -1.43479E+03 -4.70623E+03  2.25421E+03 -4.40467E+03  2.56752E+03 -2.86431E+03
  2.46981E+03 -1.47806E+02  1.56983E+02  1.10231E+03  6.73692E+02  1.41899E+02 -1.61470E+01 -1.32557E+03
  3.32323E+03 -2.32375E+02  4.46979E+03  7.17680E+02  4.54438E+03  2.45372E+03  4.98697E+03  6.14439E+03
 -9.92458E+02  7.28086E+03 -6.58625E+03  5.70189E+03 -8.76681E+03  1.24228E+03 -6.60637E+03 -2.04832E+03
 -3.73586E+03 -5.33800E+03 -7.24342E+02 -4.29886E+03  1.79796E+03 -1.65820E+03  1.27033E+03 -1.91396E+03
  1.10372E+03 -1.46316E+03  2.04884E+03 -2.37606E+03  3.49537E+03 -1.08987E+03  3.29342E+03  3.46480E+02
  4.01786E+03  1.17863E+03  7.80366E+02  2.85132E+03 -1.35369E+03  2.12062E+03 -4.06014E+03  2.14019E+03
 -4.06571E+03 -9.21043E+02 -1.30434E+03 -2.83411E+03  4.48118E+02 -4.10520E+03  2.88224E+03 -4.42992E+03
  4.17262E+03 -2.94167E+03  5.73916E+03  3.90566E+02  4.13606E+03  3.43776E+03  1.00096E+03  4.98225E+03
 -1.45647E+03  5.21128E+03 -2.81952E+03  1.42441E+03 -1.42051E+03 -8.69820E+02 -3.28570E+02 -5.99979E+02
  2.65071E+01  7.93464E+02 -1.08777E+03  1.77822E+03 -1.99437E+03  9.62726E+02 -3.75313E+03 -3.27600E+02
 -1.06531E+03 -3.71556E+03  1.01907E+03 -3.78407E+03  1.88594E+03 -3.69097E+03  2.58293E+03 -7.81709E+02
  3.11177E+03  2.16914E+03  1.32284E+03  2.77582E+03 -5.87406E+02  3.71220E+03 -2.04824E+03  2.15963E+03
 -3.28190E+03  5.94815E+02 -2.91207E+03 -1.92128E+03 -5.76231E+01 -2.39508E+03  1.21857E+03 -2.11334E+03
  2.13778E+03 -1.20383E+03  1.25989E+03  1.81609E+02  4.34426E+02  1.63015E+03  6.97837E+02  3.14453E+02
  1.80562E+03  7.31259E+02  9.63394E+02  9.91723E+02  8.63645E+02  1.99979E+03  1.01772E+03  1.26603E+03
 -1.24557E+03  2.42363E+03 -1.85786E+03  3.24422E+03 -1.84287E+03  1.14344E+03 -3.38019E+03 -1.48298E+00
 -1.43341E+03 -2.64391E+03  5.16692E+02 -3.90481E+03  1.48953E+03 -1.87658E+03  2.14678E+03 -8.33526E+02
  1.76703E+03  1.26061E+03  2.37607E+02  1.91407E+03 -7.06167E+02  9.10882E+02 -5.80145E+02 -4.78753E+01
 -4.07114E+02 -1.03173E+03  1.11677E+03 -1.29370E+03  6.97937E+02 -8.18060E+02  1.16281E+03  2.60119E+02
  3.30607E+02  2.69563E+02  9.15157E+02 -3.35508E+02 -2.66572E+02  5.75761E+02  1.32356E+03 -4.81807E+01
 -1.24948E+02 -2.43659E+02  1.30810E+03  3.49636E+02  2.90159E+01  1.86193E+03 -5.78513E+02  2.33201E+03
 -1.21697E+03  7.90457E+02 -1.64773E+03  2.19508E+02 -1.60315E+03 -7.00316E+02 -4.23774E+01 -3.25894E+02
  2.65215E+02 -7.69200E+02  6.85285E+02 -4.93233E+02  2.33910E+02  1.18768E+03 -7.59390E+02  7.46186E+02
 -1.18282E+03  5.79645E+02 -7.03655E+02 -1.21460E+03 -3.66057E+02 -1.65842E+03  1.31801E+02 -1.03000E+03
  3.24906E+02  2.23332E+01  4.78221E+02  1.48911E+02  1.16361E+03 -3.70317E+02  2.94308E+02  1.07406E+03
 -9.80633E+01 -2.53286E+02 -6.22391E+02 -2.23325E+01  4.46584E+02 -3.85165E+02  1.01206E+03 -6.14914E+02
  4.88752E+02  6.06379E+01  2.31983E+03  2.09986E+02  1.19801E+03  9.37145E+02 -2.40513E+01  1.23975E+03
 -1.01821E+03 -4.96563E+01 -1.22237E+03 -1.83481E+02 -4.68051E+02 -9.46217E+02  2.92561E+02 -4.93378E+02
  1.22870E+03 -4.61808E+02  3.71090E+02  4.80413E+02  1.57443E+02  1.07624E+03  5.00258E+02  8.92273E+02
 -2.10702E+01  1.22821E+03 -2.77748E+02  2.86063E+02  1.34721E+02  3.51944E+02 -6.93908E+02  1.57262E+02
 -5.12996E+02  7.71760E+02 -1.32769E+03  1.96627E+02 -1.20304E+03  3.14823E+02 -1.82785E+03 -6.62859E+02
 -8.67612E+02 -1.66847E+03  4.97344E+02 -2.12063E+03  5.66984E+02 -1.97407E+03  2.14632E+03 -6.92007E+02
  1.54330E+03 -3.38791E+02  4.71222E+02  1.06867E+03 -5.71520E+02  9.16960E+02 -6.10350E+02  8.70751E+02
 -5.51153E+02  3.95593E+02 -2.86452E+02 -1.98170E+02 -5.63189E+02  4.44565E+02 -6.44005E+02  2.41642E+02
 -1.09990E+03 -2.59264E+02 -8.16980E+02  9.41743E+01  2.90620E+02 -3.02397E+02 -3.50583E+02 -6.50103E+02
  9.37507E+02 -4.00810E+02  1.39078E+02  1.13305E+02  7.89960E+02  6.98383E+02 -3.68880E+02  8.34016E+02
 -8.48083E+02  1.76414E+03 -1.27891E+03  1.08023E+03 -9.78290E+02 -1.05759E+02 -8.01091E+02 -1.04046E+03
 -6.52902E+02 -5.91865E+02  1.71485E+01 -6.20377E+02  1.58148E+02 -3.71767E+02  1.79908E+02  2.27242E+01
  6.26877E+02  3.81388E+02  8.41065E+01  1.55429E+02 -1.32680E+02 -2.50828E+01 -1.11927E+02  2.04803E+02
  1.30243E+02  5.54597E+02 -5.52187E+01  3.23899E+02 -9.25881E+00 -7.51470E+00  4.68335E+02  2.32261E+01
 -2.33423E+02  3.40095E+02 -5.41828E+02  2.76048E+02 -5.78999E+02 -8.08569E+01 -2.42922E+01 -8.49003E+02
  1.09089E+02 -3.52501E+02  2.13049E+01 -4.09249E+01  5.68579E+02 -9.16117E+02  3.05182E+02  4.14223E+02
  5.05989E+02  2.09611E+02  1.83505E+02  3.52786E+02 -4.18161E+02  6.69212E+02 -6.77722E+01  4.25970E+02
  4.28540E+01 -2.65555E+02 -4.94102E+02  1.98585E+02 -3.48803E+02  1.35074E+02 -4.59428E+02 -2.75712E+01
 -9.64426E+02  6.09918E+02 -2.38823E+02 -6.94598E+02  7.33294E+02 -1.38529E+03  5.84013E+02 -1.21645E+02
  2.13986E+02 -1.50255E+02 -4.41328E+02  1.78009E+02 -1.19114E+02  5.75713E+02 -2.12699E+02  4.27970E+02
