 $NMID ID='MM_0lb_SNR800_12hz_g45_10.RAW', FMTDAT='(8E13.5)'
 TRAMP=1., VOLUME=1. $END
  3.09868E+05  5.39495E+00  3.37744E+05  2.50457E+05  8.43975E+04  3.37933E+05 -1.32982E+05  2.51414E+05
 -1.90433E+05  8.32828E+04 -1.11884E+05 -3.25701E+04  4.57282E+02 -5.03962E+04  5.35572E+04 -3.18696E+02
  3.55904E+04  5.29188E+04 -1.67543E+04  7.56603E+04 -6.09059E+04  6.37959E+04 -8.42095E+04  3.20158E+04
 -8.12333E+04 -1.16328E+04 -5.77353E+04 -5.17101E+04 -1.51762E+04 -6.98995E+04  2.77640E+04 -4.59598E+04
  4.02966E+04  3.98570E+03  1.64188E+04  4.81769E+04 -3.44914E+04  4.74453E+04 -6.70469E+04 -2.90735E+02
 -5.34395E+04 -5.69573E+04 -6.76841E+03 -7.73813E+04  3.38106E+04 -5.54744E+04  4.85573E+04 -1.77556E+04
  4.40989E+04  1.12243E+04  3.20582E+04  2.60310E+04  1.62267E+04  2.96245E+04 -5.22923E+03  2.71133E+04
 -2.22316E+04  1.23038E+04 -1.84141E+04 -5.26347E+03  5.97780E+03 -7.51999E+03  2.27571E+04  1.23840E+04
  7.25983E+03  3.58212E+04 -3.26325E+04  3.61254E+04 -6.41000E+04  2.17550E+03 -5.76133E+04 -4.35020E+04
 -1.24288E+04 -6.40677E+04  4.02476E+04 -4.57870E+04  5.89934E+04 -2.51306E+03  3.47613E+04  3.28752E+04
 -5.96411E+03  3.68711E+04 -3.01871E+04  1.66809E+04 -3.11190E+04 -4.02918E+03 -1.75068E+04 -1.12808E+04
 -8.43892E+03 -1.38144E+04 -1.00054E+03 -1.86882E+04  7.59529E+03 -2.25020E+04  1.55979E+04 -1.29844E+04
  1.12039E+04  5.31606E+03 -8.81244E+03  1.29681E+04 -2.22118E+04 -5.01139E+03 -8.44988E+03 -3.49615E+04
  2.32734E+04 -4.46855E+04  4.92652E+04 -1.97950E+04  4.56406E+04  1.97114E+04  1.60694E+04  4.52524E+04
 -1.61151E+04  3.39532E+04 -2.57709E+04  2.15802E+03 -1.02938E+04 -2.81754E+04  2.12357E+04 -3.47659E+04
  4.22078E+04 -9.88134E+03  3.71147E+04  2.40443E+04  1.87737E+04  4.77032E+04 -7.94780E+03  5.17944E+04
 -3.26627E+04  3.51731E+04 -4.36369E+04  1.02913E+04 -4.40829E+04 -1.74058E+04 -2.45154E+04 -3.88567E+04
  7.38652E+03 -3.90870E+04  3.21914E+04 -1.55833E+04  3.02417E+04  1.09524E+04  4.13094E+03  1.95918E+04
 -1.38204E+04  8.87923E+03 -1.03626E+04 -7.56694E+03  5.98664E+03 -1.07605E+04  1.81034E+04  5.88720E+03
  1.39313E+04  2.23333E+04 -5.76110E+03  2.54598E+04 -2.25541E+04  1.21403E+04 -2.89742E+04 -4.38043E+03
 -2.20237E+04 -1.78335E+04 -9.18552E+03 -2.18923E+04  4.15181E+03 -2.13722E+04  1.67687E+04 -1.97037E+04
  2.78061E+04 -1.32293E+04  3.43133E+04  3.63195E+03  2.48889E+04  2.14022E+04  4.18416E+03  3.76400E+04
 -1.81770E+04  3.13419E+04 -2.87985E+04  1.08326E+04 -2.17344E+04 -1.02892E+04 -4.76488E+03 -1.35034E+04
  1.28565E+03 -2.18672E+03 -5.93180E+03  7.05158E+03 -1.72576E+04  5.18329E+03 -1.73903E+04 -7.75557E+03
 -1.06802E+04 -2.01918E+04  5.39542E+03 -2.40277E+04  1.63179E+04 -1.75182E+04  1.92381E+04 -1.36201E+03
  1.21677E+04  1.41154E+04 -1.06008E+03  2.01498E+04 -1.38801E+04  1.17628E+04 -2.03015E+04 -3.97941E+03
 -1.48379E+04 -1.84781E+04 -1.81351E+03 -2.41784E+04  1.12188E+04 -2.05332E+04  2.04204E+04 -9.88760E+03
  1.88486E+04  4.92693E+01  1.38042E+04  4.78004E+03  7.36056E+03  9.36771E+02  1.03134E+04 -1.72261E+03
  1.86173E+04  2.53403E+03  2.11210E+04  1.59128E+04  1.37684E+04  3.19473E+04 -2.83360E+03  3.71821E+04
 -2.13037E+04  3.03027E+04 -3.48775E+04  1.52736E+04 -3.67136E+04 -2.63407E+03 -3.02593E+04 -2.12461E+04
 -1.26527E+04 -3.02824E+04  1.07530E+04 -2.68315E+04  2.29636E+04 -1.35987E+04  2.07689E+04  6.49195E+03
  7.50862E+03  1.54262E+04 -9.69816E+03  1.36222E+04 -1.73867E+04  2.61755E+03 -1.32368E+04 -1.09238E+04
 -2.44391E+02 -1.67363E+04  9.13799E+03 -1.24017E+04  1.14248E+04 -1.03324E+03  2.38206E+03  7.23693E+03
 -7.69437E+03  2.91017E+03 -7.11219E+03 -6.28407E+03 -1.01903E+03 -1.48299E+04  1.02935E+04 -1.56990E+04
  1.84422E+04 -8.53722E+03  2.04882E+04  2.96021E+03  1.76540E+04  1.47692E+04  8.28811E+03  2.30277E+04
 -4.17017E+03  2.48278E+04 -1.57240E+04  1.54054E+04 -1.79414E+04  3.34096E+03 -1.21996E+04 -4.44257E+03
 -5.74287E+03 -5.75615E+03 -1.91515E+02  9.81632E+02 -2.63153E+03  3.20848E+03 -5.96862E+03  4.90234E+03
 -1.18079E+04 -9.55282E+02 -1.23177E+04 -9.56147E+03 -4.77252E+03 -1.62317E+04  5.06805E+03 -1.26343E+04
  1.05087E+04 -5.09605E+03  7.80010E+03  3.17950E+03  2.18876E+02  5.05957E+03 -6.10280E+03  1.01412E+02
 -5.47969E+03 -7.89197E+03 -1.03997E+03 -1.19634E+04  6.71569E+03 -1.30032E+04  1.59517E+04 -6.76842E+03
  1.85429E+04  1.76643E+03  1.34426E+04  1.11486E+04  2.98635E+03  1.46371E+04 -7.79394E+03  1.25113E+04
 -1.00174E+04  3.29579E+03 -5.21649E+03 -2.30162E+03  1.74535E+03 -3.75537E+03  6.68399E+03 -1.03199E+03
  6.17907E+03  5.24871E+03  9.89687E+02  9.83327E+03 -7.28586E+03  9.53826E+03 -1.25308E+04  2.57825E+03
 -8.09772E+03 -6.23545E+03  3.12681E+02 -1.06573E+04  6.94838E+03 -5.69448E+03  7.06498E+03  2.25507E+03
  1.34407E+03  7.23175E+03 -6.19590E+03  8.65262E+03 -9.77781E+03  3.95799E+03 -1.01579E+04 -3.42927E+03
 -5.87191E+03 -1.15725E+04  2.79573E+03 -1.34235E+04  1.13636E+04 -8.20039E+03  1.22307E+04  2.15384E+03
  7.81682E+03  9.81984E+03 -3.92813E+02  1.21009E+04 -8.79816E+03  7.09733E+03 -9.53722E+03 -9.63739E+02
 -8.47371E+03 -8.23553E+03 -1.58626E+03 -8.61510E+03  4.79725E+03 -7.51610E+03  5.56880E+03 -2.96845E+03
  3.98149E+03  1.21462E+03 -2.54483E+02  1.89362E+03 -3.04170E+02 -2.35431E+03  1.43989E+03 -4.96097E+03
  7.77332E+03 -2.82726E+03  1.13068E+04  1.27673E+03  1.11984E+04  7.73053E+03  7.81867E+03  1.48473E+04
 -3.45663E+03  1.71035E+04 -1.44541E+04  1.28180E+04 -1.84841E+04  2.22388E+03 -1.50923E+04 -5.88183E+03
 -7.83172E+03 -1.27407E+04 -2.00291E+02 -1.04169E+04  3.88921E+03 -5.35229E+03  3.57862E+03 -3.82300E+03
  2.87125E+03 -2.52554E+03  3.27360E+03 -3.34394E+03  4.83083E+03 -2.48427E+03  5.83999E+03 -7.96728E+02
  7.80087E+03  1.66540E+03  3.58777E+03  6.40773E+03 -1.92812E+03  7.40040E+03 -8.46209E+03  6.11568E+03
 -1.06171E+04 -1.18883E+03 -5.87446E+03 -7.25336E+03 -3.73596E+02 -1.09419E+04  6.15508E+03 -1.10302E+04
  1.15408E+04 -6.23814E+03  1.39422E+04  1.65267E+03  9.77912E+03  9.30746E+03  1.56635E+03  1.22495E+04
 -5.06483E+03  1.04377E+04 -7.29726E+03  3.32066E+03 -4.49834E+03 -1.46644E+03 -2.20800E+03 -1.32466E+03
 -9.28941E+02  3.66115E+02 -1.40811E+03  2.68396E+03 -4.85535E+03  2.00876E+03 -7.29700E+03 -1.00118E+03
 -4.83083E+03 -7.21515E+03  7.23665E+02 -9.73806E+03  6.19072E+03 -9.72266E+03  9.47248E+03 -2.96812E+03
  9.66639E+03  4.61914E+03  4.36004E+03  8.69952E+03 -2.09821E+03  1.01793E+04 -6.85325E+03  6.52208E+03
 -9.13191E+03  3.17917E+02 -7.31311E+03 -5.93655E+03 -8.26455E+02 -8.15698E+03  4.27655E+03 -6.04644E+03
  6.30568E+03 -2.17363E+03  4.23889E+03  1.53998E+03  1.44594E+03  3.01955E+03  1.01375E+03  1.21256E+03
  2.24317E+03  7.99089E+02  2.58551E+03  1.59881E+03  2.83651E+03  3.89945E+03  2.76097E+03  5.34989E+03
 -1.83740E+03  7.76703E+03 -6.81757E+03  8.37136E+03 -9.29827E+03  2.06002E+03 -1.00781E+04 -3.95954E+03
 -4.81653E+03 -1.01181E+04  1.60838E+03 -1.11601E+04  5.86911E+03 -6.77134E+03  7.59591E+03 -1.70225E+03
  6.20892E+03  3.79947E+03  1.36906E+03  5.54346E+03 -3.09019E+03  3.68346E+03 -3.82271E+03 -4.79294E+02
 -1.50595E+03 -4.37588E+03  2.19346E+03 -4.31782E+03  3.75516E+03 -2.04125E+03  3.69413E+03  7.08812E+02
  2.16591E+03  1.84793E+03  1.42030E+03  1.02761E+03 -5.94316E+02  1.83178E+03  1.81445E+03 -3.92101E+02
  9.63337E+02 -6.43442E+02  4.02362E+03  1.80309E+03  2.21717E+03  5.38256E+03 -8.26865E+02  6.63493E+03
 -4.47914E+03  4.09897E+03 -6.05420E+03  1.03033E+03 -5.71558E+03 -2.30972E+03 -1.77387E+03 -3.65026E+03
  8.39292E+02 -3.45968E+03  2.44225E+03 -1.89765E+03  1.87416E+03  2.07710E+03 -1.29533E+03  3.00508E+03
 -3.95569E+03  2.02329E+03 -4.28339E+03 -2.55046E+03 -2.17063E+03 -5.26424E+03  6.19641E+02 -5.10288E+03
  2.85479E+03 -2.69301E+03  3.43253E+03 -4.75762E+02  3.29556E+03  1.12421E+03  6.48070E+02  3.03287E+03
 -1.78750E+03  7.34353E+02 -2.29515E+03 -1.74443E+03  8.38359E+02 -3.58072E+03  4.66222E+03 -2.84149E+03
  5.52736E+03  6.61859E+02  5.99329E+03  3.94062E+03  2.08187E+03  5.91932E+03 -1.91053E+03  5.93554E+03
 -5.11751E+03  2.44639E+03 -5.16713E+03 -6.19895E+02 -2.79132E+03 -3.55908E+03  1.19105E+03 -3.21638E+03
  3.61842E+03 -1.74982E+03  2.92208E+03  1.40064E+03  8.88107E+02  3.51519E+03 -5.69365E+02  3.00867E+03
 -1.53225E+03  2.56834E+03 -1.47570E+03  4.44169E+02 -5.47235E+02  2.34816E+02 -1.17098E+03  1.18014E+03
 -1.41398E+03  2.49827E+03 -4.12896E+03  2.37973E+03 -5.81972E+03  3.44804E+02 -6.49462E+03 -3.93285E+03
 -3.27933E+03 -7.77301E+03  1.49492E+03 -9.27064E+03  5.44727E+03 -6.97583E+03  8.64270E+03 -2.87070E+03
  7.94840E+03  1.20703E+03  4.66503E+03  5.57751E+03 -2.07499E+02  5.86931E+03 -2.24977E+03  4.05995E+03
 -3.12328E+03  1.34666E+03 -2.51765E+03 -5.66999E+02 -1.00142E+03 -7.21405E+02 -5.97497E+02  8.60545E+01
 -1.42732E+03  1.40889E+02 -1.69528E+03 -3.46203E+02 -1.54041E+02 -1.79135E+03  2.13309E+02 -2.43074E+03
  2.74593E+03 -2.10705E+03  3.18461E+03  2.82283E+02  3.86249E+03  3.19097E+03  3.94815E+02  5.84504E+03
 -3.00286E+03  6.83526E+03 -6.16892E+03  3.99486E+03 -7.14732E+03 -5.36007E+02 -5.04341E+03 -4.14567E+03
 -2.17459E+03 -5.71122E+03  1.42047E+03 -5.44543E+03  3.46962E+03 -2.70853E+03  3.66138E+03  3.36873E+02
  2.36973E+03  1.78668E+03 -1.42560E+01  1.64587E+03 -1.14197E+03 -1.82029E+02 -2.09573E+01 -1.16764E+03
  2.02259E+03 -5.47992E+02  1.89318E+03  1.03579E+03  9.04447E+02  2.34002E+03  3.02744E+02  2.77791E+03
 -2.68945E+03  2.48274E+03 -3.57930E+03  3.76653E+02 -3.47878E+03 -2.88173E+03 -4.69015E+02 -4.33948E+03
  2.25693E+03 -4.14150E+03  3.94591E+03 -1.07070E+03  4.63631E+03  4.16116E+02  2.32643E+03  3.16529E+03
  4.91500E+02  3.29025E+03 -1.14378E+03  2.65648E+03 -2.14175E+03  1.88759E+03 -1.92513E+03  1.80021E+02
 -1.08896E+03 -1.02692E+02 -1.00092E+03  3.35069E+02 -1.87786E+03  6.21683E+02 -3.31811E+03 -5.50492E+02
 -2.85877E+03 -1.63810E+03 -1.07384E+03 -3.86814E+03  2.07432E+03 -4.03512E+03  3.24711E+03 -1.65133E+03
  3.64466E+03  5.04885E+02  1.33256E+03  2.29845E+03 -2.59148E+02  3.81772E+03 -2.66724E+03  2.35928E+03
