 $NMID ID='MM_0lb_SNR800_9hz_g50_60.RAW', FMTDAT='(8E13.5)'
 TRAMP=1., VOLUME=1. $END
  3.09968E+05  4.73655E+02  3.37721E+05  2.50686E+05  8.52476E+04  3.38413E+05 -1.32861E+05  2.51749E+05
 -1.91218E+05  8.36794E+04 -1.12380E+05 -3.23309E+04  4.33322E+02 -5.01548E+04  5.36497E+04 -4.27190E+02
  3.58936E+04  5.25961E+04 -1.67410E+04  7.58073E+04 -6.12002E+04  6.42542E+04 -8.49721E+04  3.24442E+04
 -8.27856E+04 -1.17142E+04 -5.83792E+04 -5.23733E+04 -1.48522E+04 -7.09815E+04  2.81103E+04 -4.64124E+04
  4.12675E+04  3.78024E+03  1.67452E+04  4.82136E+04 -3.43774E+04  4.84343E+04 -6.81125E+04  3.51706E+01
 -5.44032E+04 -5.72565E+04 -7.22514E+03 -7.89660E+04  3.42335E+04 -5.67883E+04  4.99504E+04 -1.80913E+04
  4.53205E+04  1.17678E+04  3.25743E+04  2.69140E+04  1.58641E+04  3.06880E+04 -5.95308E+03  2.76862E+04
 -2.26204E+04  1.18215E+04 -1.79196E+04 -5.43833E+03  7.30801E+03 -7.49382E+03  2.37845E+04  1.35910E+04
  6.95034E+03  3.74872E+04 -3.39993E+04  3.72207E+04 -6.59041E+04  2.58238E+03 -5.84913E+04 -4.44349E+04
 -1.26656E+04 -6.53989E+04  4.12957E+04 -4.72653E+04  6.12054E+04 -2.51945E+03  3.64516E+04  3.46291E+04
 -5.82927E+03  3.93688E+04 -3.19684E+04  1.85489E+04 -3.30870E+04 -3.59946E+03 -1.91333E+04 -1.24129E+04
 -9.99777E+03 -1.51898E+04 -4.32973E+02 -1.97227E+04  8.68929E+03 -2.28639E+04  1.58895E+04 -1.25124E+04
  1.08874E+04  5.92456E+03 -1.06516E+04  1.27430E+04 -2.35409E+04 -6.80933E+03 -9.30752E+03 -3.73568E+04
  2.50096E+04 -4.70239E+04  5.18016E+04 -2.11359E+04  4.86758E+04  2.06706E+04  1.73575E+04  4.70926E+04
 -1.68939E+04  3.61731E+04 -2.74238E+04  2.69412E+03 -1.18216E+04 -2.94312E+04  2.15343E+04 -3.68636E+04
  4.45558E+04 -1.10889E+04  4.04281E+04  2.49360E+04  2.16220E+04  5.10793E+04 -8.45565E+03  5.61300E+04
 -3.55238E+04  3.82794E+04 -4.75684E+04  1.08660E+04 -4.74091E+04 -1.86620E+04 -2.57188E+04 -4.25782E+04
  7.82300E+03 -4.23215E+04  3.44316E+04 -1.68672E+04  3.21852E+04  1.15454E+04  5.30168E+03  2.09419E+04
 -1.38564E+04  9.56948E+03 -1.13418E+04 -7.13260E+03  5.91330E+03 -1.16576E+04  1.86396E+04  5.79313E+03
  1.45931E+04  2.30691E+04 -5.57913E+03  2.72561E+04 -2.31308E+04  1.40606E+04 -3.15090E+04 -2.78726E+03
 -2.56106E+04 -1.84409E+04 -1.16924E+04 -2.54884E+04  4.55451E+03 -2.55586E+04  1.99765E+04 -2.28302E+04
  3.18355E+04 -1.40923E+04  3.80473E+04  4.77157E+03  2.72288E+04  2.46045E+04  4.43161E+03  4.11478E+04
 -1.98738E+04  3.35986E+04 -3.01440E+04  1.21735E+04 -2.24910E+04 -1.01983E+04 -4.62541E+03 -1.30567E+04
  3.83184E+02 -1.53773E+03 -7.67734E+03  8.69325E+03 -2.02980E+04  4.99106E+03 -2.00601E+04 -9.71429E+03
 -1.24342E+04 -2.36329E+04  6.00410E+03 -2.76818E+04  1.87711E+04 -1.94656E+04  2.24709E+04 -1.74866E+03
  1.49386E+04  1.58492E+04 -1.38153E+03  2.33606E+04 -1.61313E+04  1.32592E+04 -2.34213E+04 -4.71974E+03
 -1.70885E+04 -2.07788E+04 -2.65352E+03 -2.80263E+04  1.23983E+04 -2.34031E+04  2.31806E+04 -1.18551E+04
  2.16715E+04 -4.94407E+02  1.59641E+04  5.38829E+03  8.83759E+03  1.48287E+03  1.21635E+04 -1.92826E+03
  2.21324E+04  3.19986E+03  2.53527E+04  1.86687E+04  1.72454E+04  3.74492E+04 -2.65837E+03  4.42413E+04
 -2.50686E+04  3.71799E+04 -4.16508E+04  1.91820E+04 -4.44581E+04 -3.19772E+03 -3.63833E+04 -2.59843E+04
 -1.42744E+04 -3.74682E+04  1.32676E+04 -3.26690E+04  2.83238E+04 -1.49990E+04  2.39712E+04  7.52303E+03
  7.94484E+03  1.86342E+04 -1.17213E+04  1.57471E+04 -1.99095E+04  2.36516E+03 -1.54726E+04 -1.32061E+04
 -4.62426E+02 -1.95268E+04  1.07532E+04 -1.42879E+04  1.35840E+04 -1.47730E+03  3.64246E+03  8.64381E+03
 -8.80308E+03  4.36878E+03 -9.27362E+03 -6.94712E+03 -1.80539E+03 -1.81554E+04  1.20655E+04 -1.96099E+04
  2.32167E+04 -1.12772E+04  2.62970E+04  3.72388E+03  2.29643E+04  1.84395E+04  1.05327E+04  2.89885E+04
 -5.77274E+03  3.09424E+04 -2.04199E+04  1.94591E+04 -2.27271E+04  4.14086E+03 -1.55645E+04 -5.91863E+03
 -6.09569E+03 -7.19132E+03 -6.38837E+02  5.45099E+01 -3.06219E+03  3.35760E+03 -7.32366E+03  5.19100E+03
 -1.43323E+04 -1.04871E+03 -1.46698E+04 -1.19828E+04 -6.04569E+03 -1.93469E+04  6.70555E+03 -1.57631E+04
  1.28239E+04 -6.61326E+03  9.04055E+03  4.31689E+03 -3.64769E+02  6.04494E+03 -7.96617E+03  2.71515E+01
 -7.29862E+03 -1.01827E+04 -8.71883E+02 -1.54505E+04  8.90571E+03 -1.65110E+04  1.99183E+04 -8.99435E+03
  2.35864E+04  2.13829E+03  1.67677E+04  1.42768E+04  3.37019E+03  1.87156E+04 -9.69042E+03  1.56220E+04
 -1.25650E+04  4.40185E+03 -6.77081E+03 -3.23350E+03  1.72774E+03 -4.43071E+03  8.14931E+03 -1.13686E+03
  7.55925E+03  7.17674E+03  1.20347E+03  1.27428E+04 -8.96874E+03  1.22918E+04 -1.58257E+04  2.44245E+03
 -1.04316E+04 -8.37971E+03  1.82415E+02 -1.36268E+04  8.51883E+03 -6.83938E+03  9.61586E+03  3.18966E+03
  2.09292E+03  1.00049E+04 -8.00507E+03  1.15311E+04 -1.36587E+04  5.63739E+03 -1.38376E+04 -5.06140E+03
 -7.81505E+03 -1.61190E+04  4.09095E+03 -1.86604E+04  1.57514E+04 -1.11045E+04  1.65940E+04  2.91608E+03
  1.00651E+04  1.35307E+04 -1.66992E+03  1.60295E+04 -1.18071E+04  8.98102E+03 -1.28003E+04 -1.54165E+03
 -1.08545E+04 -1.02805E+04 -1.60100E+03 -1.19866E+04  6.04968E+03 -9.79158E+03  7.76084E+03 -3.66568E+03
  5.01858E+03  1.91267E+03 -1.30985E+03  1.69516E+03 -8.69670E+02 -3.26194E+03  2.43104E+03 -7.33690E+03
  1.13582E+04 -4.87076E+03  1.63088E+04  1.93720E+03  1.54488E+04  1.13156E+04  1.01367E+04  2.13305E+04
 -4.86645E+03  2.41429E+04 -2.00191E+04  1.75551E+04 -2.61314E+04  3.18776E+03 -2.08395E+04 -9.30993E+03
 -1.01201E+04 -1.70750E+04 -4.87013E+02 -1.47706E+04  5.41096E+03 -8.00230E+03  5.01781E+03 -4.87339E+03
  3.78382E+03 -2.88917E+03  4.15778E+03 -3.88999E+03  5.90333E+03 -3.55244E+03  8.00213E+03 -1.59376E+03
  1.08009E+04  2.58472E+03  5.93834E+03  9.47379E+03 -2.30726E+03  1.11605E+04 -1.08854E+04  8.94589E+03
 -1.48916E+04 -1.27294E+03 -8.95496E+03 -1.01623E+04 -1.53514E+03 -1.59421E+04  8.53368E+03 -1.61257E+04
  1.68218E+04 -8.75193E+03  1.97860E+04  2.76608E+03  1.34257E+04  1.35626E+04  2.02809E+03  1.77405E+04
 -7.64638E+03  1.43592E+04 -1.04507E+04  5.23082E+03 -7.50993E+03 -2.22534E+03 -2.91866E+03 -2.05550E+03
 -1.36055E+03 -2.55927E+02 -2.67958E+03  3.20219E+03 -5.91747E+03  2.19548E+03 -1.01418E+04 -1.52713E+03
 -7.27663E+03 -1.03246E+04 -2.00338E+02 -1.46051E+04  9.37140E+03 -1.39342E+04  1.52165E+04 -4.21589E+03
  1.47925E+04  7.31258E+03  6.55542E+03  1.38180E+04 -2.65871E+03  1.50026E+04 -1.06990E+04  9.14089E+03
 -1.37467E+04  1.41125E+02 -1.06799E+04 -9.91122E+03 -8.61171E+02 -1.21529E+04  6.51981E+03 -9.27850E+03
  9.06932E+03 -3.07134E+03  6.34895E+03  2.24984E+03  2.23080E+03  4.58486E+03  1.49802E+03  2.28198E+03
  2.60661E+03  1.35860E+03  3.69687E+03  1.77004E+03  4.37970E+03  5.46154E+03  3.70925E+03  8.15241E+03
 -2.84949E+03  1.20669E+04 -1.05072E+04  1.19241E+04 -1.52779E+04  2.96332E+03 -1.61192E+04 -6.62742E+03
 -7.61734E+03 -1.50387E+04  1.99088E+03 -1.65343E+04  9.21448E+03 -1.05401E+04  1.20916E+04 -2.84279E+03
  9.69410E+03  4.85534E+03  2.07654E+03  8.58708E+03 -4.00349E+03  6.04775E+03 -5.66383E+03 -9.20324E+02
 -2.75122E+03 -6.53577E+03  3.16192E+03 -6.85299E+03  6.30963E+03 -3.02933E+03  6.25793E+03  1.26843E+03
  3.62990E+03  2.90215E+03  1.17963E+03  2.93886E+03 -8.90957E+02  2.40339E+03  1.60103E+03 -6.11990E+02
  2.72787E+03 -1.19523E+03  6.45963E+03  2.50030E+03  3.55729E+03  8.28481E+03 -1.69309E+03  1.09065E+04
 -7.27772E+03  7.41591E+03 -1.01700E+04  1.70148E+03 -8.80558E+03 -3.33605E+03 -3.41730E+03 -6.09210E+03
  1.02215E+03 -5.66883E+03  3.57661E+03 -2.99655E+03  2.95685E+03  2.65566E+03 -1.30911E+03  4.85133E+03
 -6.37077E+03  2.93128E+03 -7.22603E+03 -3.85919E+03 -4.23713E+03 -8.88946E+03  1.08293E+03 -8.41916E+03
  5.22092E+03 -5.18501E+03  6.72460E+03 -6.20786E+02  5.29442E+03  2.17881E+03  9.73566E+02  4.41099E+03
 -2.88415E+03  8.38576E+02 -3.75037E+03 -3.01235E+03  1.51736E+03 -6.74382E+03  7.67263E+03 -5.63671E+03
  9.48343E+03  6.42710E+02  9.35284E+03  6.97357E+03  3.21359E+03  1.01265E+04 -3.71663E+03  9.30616E+03
 -8.83862E+03  4.47515E+03 -8.70480E+03 -1.18500E+03 -4.35924E+03 -6.73189E+03  1.23403E+03 -6.33278E+03
  6.05450E+03 -2.92543E+03  5.51276E+03  2.90251E+03  1.98069E+03  5.15610E+03 -7.07459E+02  4.95137E+03
 -2.83724E+03  2.88765E+03 -2.28041E+03  1.03443E+03 -1.06152E+03  8.35355E+02 -1.58152E+03  2.07245E+03
 -2.45535E+03  4.10879E+03 -6.81457E+03  3.45098E+03 -9.83222E+03  4.39826E+02 -1.12321E+04 -6.38027E+03
 -5.69187E+03 -1.32949E+04  2.73949E+03 -1.53505E+04  9.79238E+03 -1.16856E+04  1.47170E+04 -4.46302E+03
  1.36189E+04  2.57244E+03  8.51907E+03  9.28478E+03  9.34412E+02  1.05036E+04 -4.33687E+03  7.64513E+03
 -5.74919E+03  3.05331E+03 -3.94150E+03 -7.23968E+02 -1.06913E+03 -9.89947E+02 -3.55673E+02 -3.37847E+02
 -1.98651E+03  3.44534E+02 -2.35521E+03 -5.62450E+02 -1.27680E+03 -2.39759E+03  2.92134E+02 -4.12681E+03
  4.42168E+03 -3.05079E+03  6.23642E+03 -1.18514E+02  7.12261E+03  5.69372E+03  2.41663E+03  1.03365E+04
 -4.86937E+03  1.17356E+04 -1.12770E+04  6.46193E+03 -1.28714E+04 -9.89268E+02 -9.43342E+03 -7.82889E+03
 -4.45503E+03 -1.03933E+04  3.01084E+03 -9.55426E+03  6.71575E+03 -5.47263E+03  7.00309E+03  3.37727E+02
  3.53295E+03  3.50391E+03 -2.82291E+02  3.28596E+03 -2.28542E+03 -2.59015E+02 -1.74410E+02 -2.46909E+03
  3.15197E+03 -1.29001E+03  4.44254E+03  1.25814E+03  3.46376E+03  3.93849E+03  1.08490E+02  5.01549E+03
 -4.48622E+03  4.72437E+03 -7.35719E+03  2.04178E+02 -6.18294E+03 -5.12057E+03 -1.00109E+03 -8.94692E+03
  4.94377E+03 -7.56701E+03  8.12839E+03 -1.93084E+03  8.48967E+03  1.96080E+03  4.15116E+03  6.57760E+03
  7.64983E+02  7.22057E+03 -2.84979E+03  5.61708E+03 -4.64327E+03  3.15879E+03 -3.79701E+03  3.35930E+02
 -1.63259E+03 -8.66726E+01 -2.45341E+03  7.77015E+02 -3.74199E+03  1.04686E+03 -5.11362E+03 -1.05363E+03
 -4.99657E+03 -3.70769E+03 -1.62916E+03 -7.05319E+03  3.22843E+03 -7.21425E+03  6.07106E+03 -3.79749E+03
  7.04599E+03  1.18565E+03  3.32710E+03  5.33177E+03 -5.79366E+02  6.74670E+03 -5.76797E+03  4.95307E+03
