 $NMID ID='MM_0lb_SNR800_20hz_g50_72.RAW', FMTDAT='(8E13.5)'
 TRAMP=1., VOLUME=1. $END
  3.09890E+05  6.34328E+02  3.37272E+05  2.50177E+05  8.45360E+04  3.37242E+05 -1.32580E+05  2.50148E+05
 -1.89766E+05  8.24253E+04 -1.10988E+05 -3.28494E+04  1.40301E+03 -5.04190E+04  5.35816E+04  2.42053E+02
  3.49120E+04  5.28325E+04 -1.69469E+04  7.50143E+04 -6.02390E+04  6.25385E+04 -8.30095E+04  3.14345E+04
 -7.95482E+04 -1.13141E+04 -5.62137E+04 -5.04834E+04 -1.46497E+04 -6.81533E+04  2.69010E+04 -4.45815E+04
  3.90607E+04  4.15680E+03  1.53913E+04  4.70394E+04 -3.37143E+04  4.59299E+04 -6.51516E+04 -7.16759E+02
 -5.17189E+04 -5.58245E+04 -6.31187E+03 -7.49469E+04  3.30161E+04 -5.31766E+04  4.59900E+04 -1.63206E+04
  4.13133E+04  1.08435E+04  3.04995E+04  2.40933E+04  1.55932E+04  2.82039E+04 -4.46188E+03  2.66536E+04
 -2.14999E+04  1.28488E+04 -1.91772E+04 -3.91509E+03  4.01275E+03 -7.64365E+03  2.13540E+04  1.08361E+04
  7.60160E+03  3.27462E+04 -3.03455E+04  3.37676E+04 -6.08955E+04  2.33223E+03 -5.51344E+04 -4.10794E+04
 -1.22370E+04 -6.06777E+04  3.78682E+04 -4.31854E+04  5.50976E+04 -2.09849E+03  3.15191E+04  3.04206E+04
 -6.68079E+03  3.23204E+04 -2.80066E+04  1.27785E+04 -2.73233E+04 -5.54431E+03 -1.42072E+04 -9.80376E+03
 -7.03532E+03 -1.10612E+04 -9.50353E+02 -1.62223E+04  6.48774E+03 -2.26329E+04  1.49328E+04 -1.41867E+04
  1.23964E+04  4.27807E+03 -5.87845E+03  1.28245E+04 -1.89713E+04 -2.15013E+03 -8.08995E+03 -3.00375E+04
  2.04803E+04 -4.00971E+04  4.41253E+04 -1.85477E+04  4.14223E+04  1.80965E+04  1.38692E+04  4.10697E+04
 -1.52110E+04  3.06202E+04 -2.31761E+04  9.36764E+02 -7.59477E+03 -2.57234E+04  2.03999E+04 -3.08777E+04
  3.74339E+04 -6.96772E+03  3.07185E+04  2.26410E+04  1.51704E+04  4.19300E+04 -7.85219E+03  4.41530E+04
 -2.79683E+04  2.92010E+04 -3.64685E+04  7.98596E+03 -3.75124E+04 -1.47688E+04 -2.08311E+04 -3.35202E+04
  6.83843E+03 -3.35046E+04  2.89672E+04 -1.22578E+04  2.61774E+04  1.05236E+04  2.84480E+03  1.73113E+04
 -1.30212E+04  6.81676E+03 -9.44188E+03 -7.84914E+03  6.28379E+03 -1.02194E+04  1.70737E+04  6.34454E+03
  1.19339E+04  2.13003E+04 -7.00891E+03  2.32215E+04 -2.12852E+04  9.01511E+03 -2.47067E+04 -6.63017E+03
 -1.60397E+04 -1.60362E+04 -5.20513E+03 -1.61156E+04  3.84362E+03 -1.39701E+04  1.20985E+04 -1.33944E+04
  2.04578E+04 -1.13600E+04  2.73121E+04  9.05743E+02  2.06550E+04  1.57004E+04  3.95942E+03  3.17708E+04
 -1.56687E+04  2.73055E+04 -2.52529E+04  9.19188E+03 -1.95078E+04 -1.03799E+04 -4.00417E+03 -1.39917E+04
  2.62448E+03 -4.16167E+03 -2.31602E+03  5.20117E+03 -1.25617E+04  5.29961E+03 -1.31135E+04 -4.73875E+03
 -8.44310E+03 -1.49722E+04  4.08204E+03 -1.85922E+04  1.19769E+04 -1.32981E+04  1.38826E+04 -1.18517E+03
  8.35410E+03  1.01029E+04 -1.06315E+03  1.51468E+04 -9.89320E+03  8.43463E+03 -1.46981E+04 -3.24276E+03
 -1.12481E+04 -1.35291E+04 -1.61086E+03 -1.81631E+04  7.99805E+03 -1.45907E+04  1.54936E+04 -6.85913E+03
  1.39089E+04  7.87952E+02  9.91149E+03  3.92053E+03  4.98580E+03  5.97407E+02  7.06878E+03 -1.44124E+03
  1.31627E+04  2.71427E+03  1.37535E+04  1.23254E+04  8.52475E+03  2.36351E+04 -3.18069E+03  2.47910E+04
 -1.46956E+04  1.89793E+04 -2.29711E+04  8.92850E+03 -2.31873E+04 -1.73924E+03 -1.99659E+04 -1.31669E+04
 -9.72965E+03 -1.88591E+04  6.23006E+03 -1.79075E+04  1.56928E+04 -1.04750E+04  1.48364E+04  3.63609E+03
  6.20786E+03  1.06669E+04 -6.45341E+03  9.95451E+03 -1.26331E+04  2.70574E+03 -1.00124E+04 -7.69699E+03
 -2.93684E+00 -1.20268E+04  5.84984E+03 -8.86065E+03  7.45319E+03 -1.30287E+03  1.17139E+03  4.66074E+03
 -5.38270E+03  8.99463E+02 -3.19037E+03 -4.38270E+03  1.01177E+03 -9.45872E+03  7.29647E+03 -9.17155E+03
  1.14181E+04 -4.27462E+03  1.08855E+04  2.77101E+03  9.18101E+03  8.81792E+03  4.48717E+03  1.28145E+04
 -1.23900E+03  1.45712E+04 -8.82156E+03  9.34992E+03 -1.01740E+04  2.69649E+03 -7.61883E+03 -1.57787E+03
 -4.20916E+03 -2.81455E+03 -8.55197E+02  1.98429E+03 -1.88280E+03  2.02530E+03 -3.41027E+03  3.51153E+03
 -7.45566E+03 -3.20717E+02 -8.24259E+03 -6.64580E+03 -3.47780E+03 -1.10194E+04  3.24342E+03 -7.84043E+03
  6.65110E+03 -3.67541E+03  4.90553E+03  2.15046E+03  6.43716E+02  2.65106E+03 -2.98847E+03  5.45824E+01
 -3.04513E+03 -4.76234E+03 -9.14689E+02 -6.37810E+03  3.37365E+03 -7.10322E+03  8.96269E+03 -3.65717E+03
  1.09571E+04  1.14585E+02  8.11279E+03  5.26176E+03  1.41733E+03  7.41174E+03 -4.65112E+03  7.71139E+03
 -6.08276E+03  2.80855E+03 -3.22383E+03 -9.29110E+02  1.37237E+03 -1.48446E+03  4.63971E+03 -1.05047E+03
  3.96681E+03  3.11808E+03  1.08832E+03  5.63228E+03 -3.98671E+03  6.04564E+03 -7.29650E+03  2.00381E+03
 -4.17381E+03 -3.46749E+03  1.23485E+02 -6.07299E+03  3.26631E+03 -3.15740E+03  3.07476E+03  7.00227E+02
  4.79697E+02  2.75172E+03 -3.81939E+03  4.08611E+03 -4.04925E+03  2.33588E+03 -3.37529E+03 -7.43263E+02
 -2.62544E+03 -5.07300E+03  1.06355E+03 -5.98046E+03  5.18239E+03 -3.81390E+03  5.40622E+03  6.40623E+02
  4.21607E+03  4.54218E+03  1.30055E+02  6.57117E+03 -4.29307E+03  3.77183E+03 -4.56177E+03 -2.95636E+02
 -5.24709E+03 -4.74545E+03 -1.55057E+03 -4.52796E+03  2.23107E+03 -4.32064E+03  2.51761E+03 -2.88211E+03
  2.75575E+03  9.21205E+01 -9.81205E+01  1.16777E+03  7.42414E+02  1.39306E+01 -1.08592E+02 -1.29463E+03
  3.39824E+03 -1.22052E+02  4.14843E+03  5.48869E+02  4.83963E+03  2.47356E+03  5.05370E+03  6.00724E+03
 -8.39156E+02  7.15872E+03 -6.76170E+03  5.59967E+03 -8.81818E+03  1.07081E+03 -6.54941E+03 -1.99380E+03
 -3.58378E+03 -5.68608E+03 -5.75438E+02 -4.17868E+03  2.01250E+03 -1.64580E+03  1.72842E+03 -1.87129E+03
  1.02544E+03 -1.34950E+03  1.86681E+03 -2.02323E+03  3.38969E+03 -1.12438E+03  3.11358E+03  6.83040E+02
  3.91646E+03  8.39640E+02  6.45506E+02  2.81001E+03 -1.29028E+03  2.15264E+03 -3.98682E+03  2.29138E+03
 -4.15617E+03 -1.26839E+03 -1.21780E+03 -2.91928E+03  6.99711E+02 -4.10920E+03  2.64400E+03 -4.11227E+03
  4.30206E+03 -2.60765E+03  5.37702E+03  9.83374E+01  4.00188E+03  3.19307E+03  1.17049E+03  4.93294E+03
 -1.41407E+03  5.29470E+03 -2.93293E+03  1.50408E+03 -1.37728E+03 -8.44240E+02 -9.20912E+01 -3.80288E+02
 -1.72996E+02  4.42865E+02 -7.62217E+02  2.13940E+03 -2.33143E+03  8.65770E+02 -3.52757E+03 -2.44368E+02
 -1.21483E+03 -3.63276E+03  8.53129E+02 -3.85949E+03  2.23596E+03 -3.82055E+03  2.66502E+03 -9.79161E+02
  3.32191E+03  2.21260E+03  1.36299E+03  2.31930E+03 -6.54355E+02  3.66978E+03 -2.13916E+03  2.16166E+03
 -3.09008E+03  5.14084E+02 -3.03518E+03 -2.23010E+03 -1.31931E+02 -2.76730E+03  1.11586E+03 -2.09565E+03
  2.11466E+03 -1.26946E+03  1.53075E+03  4.44026E+02  3.97204E+02  1.51254E+03  4.60192E+02  2.88455E+01
  1.53962E+03  4.35945E+02  1.09317E+03  1.14743E+03  7.88401E+02  1.92297E+03  1.34525E+03  1.36896E+03
 -1.00741E+03  2.41528E+03 -1.83976E+03  3.35953E+03 -2.27869E+03  1.08358E+03 -3.38563E+03  6.73406E+01
 -1.34870E+03 -2.58929E+03  4.76734E+02 -3.71749E+03  1.34573E+03 -1.96003E+03  2.23411E+03 -7.52101E+02
  1.80224E+03  1.22091E+03  3.41054E+02  1.91518E+03 -5.92782E+02  1.08613E+03 -4.90951E+02 -2.25931E+00
 -6.02801E+02 -1.40697E+03  1.02990E+03 -1.20510E+03  8.77984E+02 -6.53444E+02  7.22332E+02  3.10489E+02
  4.48084E+02  5.03214E+01  6.68651E+02 -5.78174E+02 -1.38560E+01  7.69672E+02  1.36018E+03 -1.29034E+02
 -1.11117E+02 -2.62302E+02  1.46480E+03  2.54863E+02  3.36593E+02  1.93874E+03 -6.05223E+02  2.34966E+03
 -9.92772E+02  6.72090E+02 -1.58906E+03  2.30876E+02 -1.55791E+03 -3.55997E+02  3.33738E+02 -8.48324E+02
  3.42726E+02 -9.62295E+02  8.64841E+02 -5.88115E+02  5.04439E+02  1.32466E+03 -7.04886E+02  7.69386E+02
 -1.17037E+03  5.92787E+02 -9.32482E+02 -1.11529E+03 -3.46777E+02 -1.51663E+03  2.22662E+02 -8.21663E+02
  8.09221E+01 -3.56675E+02  3.85081E+02  3.03847E+02  1.19987E+03 -7.66341E+01  2.12829E+02  7.55108E+02
 -3.03016E+02  5.32526E+01 -5.95428E+02 -6.76387E+01  6.03044E+02 -4.93038E+02  1.33465E+03 -7.53991E+02
  5.62647E+02 -7.66520E+00  2.24105E+03  1.68875E+02  8.15486E+02  9.88691E+02  2.59210E+02  1.38369E+03
 -1.33798E+03 -1.76893E+02 -9.99005E+02 -1.28003E+02 -7.00259E+02 -1.19275E+03  2.21986E+02 -6.02980E+01
  1.08624E+03 -5.61228E+02  6.59980E+02  6.26521E+02  1.60848E+02  1.19877E+03  4.73336E+02  1.05999E+03
 -3.18132E+02  1.13818E+03 -2.49147E+02 -1.40670E+02  1.74901E+02  3.06320E+02 -6.91331E+02  6.26842E+02
 -3.38529E+02  7.33963E+02 -1.55431E+03  1.52738E+02 -9.64975E+02  1.43587E+02 -1.87952E+03 -6.63698E+02
 -1.05764E+03 -1.34133E+03  6.16640E+02 -1.89195E+03  4.76315E+02 -1.93659E+03  2.16688E+03 -6.75908E+02
  1.65470E+03 -2.50303E+02  8.07934E+02  1.13230E+03 -6.10749E+02  1.13324E+03 -3.69461E+02  1.00976E+03
 -7.25233E+02  6.34737E+02 -2.32388E+02 -2.80177E+01 -5.55006E+02  5.08827E+02 -7.41420E+02 -2.16453E+02
 -1.23040E+03 -4.13164E+02 -6.97368E+02 -2.54718E+01  4.94660E+02 -5.03622E+00 -1.79954E+02 -6.19129E+02
  1.14751E+03 -4.48239E+02 -4.26470E+01  4.80014E+01  8.09548E+02  9.29565E+02 -5.91343E+02  1.10224E+03
 -8.90706E+02  1.74607E+03 -1.26537E+03  8.55744E+02 -1.20141E+03 -4.23238E+02 -1.04185E+03 -1.08790E+03
 -5.67863E+02 -8.68059E+02 -1.40411E+01 -6.33484E+02  3.78090E+02 -1.41757E+02  4.33294E+02 -2.51670E+02
  3.80621E+02  1.28331E+02  1.04913E+02  2.23035E+02 -1.33033E+02  1.06936E+02 -1.40067E+02 -7.99415E+01
  8.31031E+01  3.41102E+02 -6.37876E+01  8.18892E+02 -1.01112E+02  2.82835E+02  5.01480E+02 -3.48159E+01
 -3.17096E+02  3.47697E+02 -5.36670E+02  9.03437E+01 -4.79216E+02 -1.44331E+02  2.42730E+02 -9.13068E+02
  6.33188E+01 -3.59299E+02  2.13809E+02 -9.19984E+01  4.36298E+02 -5.97621E+02  5.92811E+02  3.98871E+02
  6.04782E+02  1.07879E+02  7.61924E+01  3.19973E+02 -3.05125E+02  2.21679E+02 -1.19882E+02 -3.23115E+00
  1.46321E+02 -1.70653E+02 -3.20946E+02  7.98870E+01 -4.94938E+02  1.18275E+02 -6.87493E+02 -2.69178E+02
 -8.18672E+02  3.08546E+02 -4.92592E+01 -6.14765E+02  9.21370E+02 -1.09178E+03  4.00414E+02 -1.92832E+02
  5.58953E+02  3.33479E+02 -4.07042E+02 -7.14726E+01 -1.00665E+02  5.75513E+02 -8.09265E+01  3.12237E+02
