 $NMID ID='MM_0lb_SNR800_7hz_g45_44.RAW', FMTDAT='(8E13.5)'
 TRAMP=1., VOLUME=1. $END
  3.10277E+05  1.79195E+02  3.37947E+05  2.51029E+05  8.47184E+04  3.38580E+05 -1.32633E+05  2.52041E+05
 -1.91120E+05  8.38323E+04 -1.13169E+05 -3.25365E+04 -4.18719E+01 -5.05558E+04  5.39024E+04 -5.41474E+02
  3.57189E+04  5.24604E+04 -1.66172E+04  7.63244E+04 -6.13394E+04  6.44946E+04 -8.56460E+04  3.29695E+04
 -8.23698E+04 -1.14664E+04 -5.82312E+04 -5.28216E+04 -1.51443E+04 -7.19096E+04  2.84384E+04 -4.70037E+04
  4.11929E+04  4.10368E+03  1.71556E+04  4.88608E+04 -3.49984E+04  4.86066E+04 -6.83964E+04  1.97993E+02
 -5.56248E+04 -5.82807E+04 -7.43061E+03 -7.97121E+04  3.48401E+04 -5.71296E+04  5.03384E+04 -1.86375E+04
  4.60064E+04  1.16701E+04  3.33270E+04  2.69467E+04  1.58597E+04  3.08659E+04 -6.14099E+03  2.81797E+04
 -2.28717E+04  1.10922E+04 -1.78890E+04 -6.25675E+03  7.51095E+03 -7.23383E+03  2.39484E+04  1.39273E+04
  6.43012E+03  3.84961E+04 -3.44301E+04  3.79610E+04 -6.67845E+04  2.35999E+03 -5.96191E+04 -4.48906E+04
 -1.27191E+04 -6.68487E+04  4.24970E+04 -4.81311E+04  6.21992E+04 -2.91612E+03  3.79027E+04  3.51853E+04
 -4.99745E+03  4.02937E+04 -3.24201E+04  1.99869E+04 -3.44628E+04 -3.35519E+03 -2.00183E+04 -1.19603E+04
 -1.01539E+04 -1.55626E+04 -4.30031E+02 -2.03094E+04  9.37526E+03 -2.39113E+04  1.62183E+04 -1.20509E+04
  1.01546E+04  6.10595E+03 -1.10065E+04  1.25635E+04 -2.44733E+04 -7.56108E+03 -8.96192E+03 -3.89162E+04
  2.61486E+04 -4.84108E+04  5.31979E+04 -2.13225E+04  4.99224E+04  2.13194E+04  1.79975E+04  4.77700E+04
 -1.69184E+04  3.73757E+04 -2.85958E+04  2.81564E+03 -1.20573E+04 -3.01646E+04  2.18663E+04 -3.75449E+04
  4.60563E+04 -1.14460E+04  4.21901E+04  2.55628E+04  2.23427E+04  5.25551E+04 -8.50464E+03  5.83005E+04
 -3.68262E+04  3.98575E+04 -4.93419E+04  1.13098E+04 -4.89073E+04 -1.89072E+04 -2.69518E+04 -4.36488E+04
  8.12209E+03 -4.29316E+04  3.54806E+04 -1.80100E+04  3.29420E+04  1.14654E+04  5.69469E+03  2.13742E+04
 -1.41059E+04  1.00404E+04 -1.19141E+04 -7.19740E+03  5.83058E+03 -1.17165E+04  1.90295E+04  5.64325E+03
  1.50535E+04  2.30857E+04 -5.18167E+03  2.81491E+04 -2.37630E+04  1.45202E+04 -3.27003E+04 -2.19120E+03
 -2.70426E+04 -1.90331E+04 -1.29462E+04 -2.66050E+04  4.47413E+03 -2.73285E+04  2.12611E+04 -2.45434E+04
  3.39896E+04 -1.44870E+04  3.98380E+04  5.50624E+03  2.82336E+04  2.58270E+04  4.26570E+03  4.28354E+04
 -2.05793E+04  3.51632E+04 -3.12884E+04  1.18922E+04 -2.31687E+04 -9.61023E+03 -4.97464E+03 -1.29048E+04
  3.03255E+02 -6.26344E+02 -8.65108E+03  8.61504E+03 -2.21140E+04  4.97346E+03 -2.11742E+04 -1.03940E+04
 -1.24882E+04 -2.47409E+04  6.49962E+03 -2.92153E+04  2.00074E+04 -2.12894E+04  2.45971E+04 -1.97216E+03
  1.55576E+04  1.69305E+04 -1.52221E+03  2.49175E+04 -1.80434E+04  1.44052E+04 -2.52782E+04 -4.67907E+03
 -1.86681E+04 -2.18644E+04 -2.55012E+03 -2.99453E+04  1.30188E+04 -2.45662E+04  2.42569E+04 -1.30645E+04
  2.40890E+04 -3.17201E+02  1.74617E+04  5.52956E+03  9.41750E+03  1.24306E+03  1.33516E+04 -2.29193E+03
  2.44984E+04  3.19434E+03  2.78500E+04  1.96991E+04  1.92813E+04  4.02616E+04 -2.58691E+03  4.79762E+04
 -2.69549E+04  4.02608E+04 -4.50940E+04  2.11511E+04 -4.88181E+04 -3.32479E+03 -3.91324E+04 -2.87023E+04
 -1.55103E+04 -4.08370E+04  1.45547E+04 -3.52515E+04  3.05074E+04 -1.61519E+04  2.62646E+04  9.18368E+03
  9.05544E+03  1.99031E+04 -1.22985E+04  1.64217E+04 -2.11383E+04  2.35620E+03 -1.62185E+04 -1.38668E+04
 -5.42797E+02 -2.05433E+04  1.09780E+04 -1.50271E+04  1.47564E+04 -9.14475E+02  3.82586E+03  9.36722E+03
 -9.59542E+03  4.90137E+03 -9.92269E+03 -7.99527E+03 -2.63648E+03 -2.01989E+04  1.30803E+04 -2.19740E+04
  2.53259E+04 -1.25691E+04  2.96702E+04  3.52221E+03  2.56584E+04  2.06062E+04  1.21845E+04  3.27544E+04
 -6.76303E+03  3.47552E+04 -2.26776E+04  2.17448E+04 -2.51990E+04  3.58743E+03 -1.70923E+04 -6.83088E+03
 -6.94955E+03 -7.78279E+03 -7.91022E+02 -2.25451E+02 -2.83613E+03  4.01747E+03 -8.52224E+03  5.99504E+03
 -1.53642E+04 -9.09144E+02 -1.60869E+04 -1.31810E+04 -6.96039E+03 -2.14977E+04  6.94469E+03 -1.73821E+04
  1.41918E+04 -6.93103E+03  1.01536E+04  4.80530E+03 -7.23880E+02  7.06908E+03 -9.14844E+03  3.10076E+02
 -8.73273E+03 -1.15051E+04 -1.34459E+03 -1.73830E+04  1.03520E+04 -1.83426E+04  2.23348E+04 -9.75878E+03
  2.59948E+04  2.80070E+03  1.93713E+04  1.66682E+04  3.60084E+03  2.17036E+04 -1.08572E+04  1.73398E+04
 -1.40778E+04  4.89402E+03 -7.41400E+03 -3.98886E+03  2.64622E+03 -5.39066E+03  9.23565E+03 -1.30329E+03
  8.03129E+03  7.83310E+03  1.58073E+03  1.38423E+04 -1.04111E+04  1.29036E+04 -1.76615E+04  2.77653E+03
 -1.19258E+04 -9.54885E+03 -2.11016E+02 -1.53744E+04  9.92486E+03 -7.39646E+03  1.05651E+04  4.08033E+03
  2.72612E+03  1.11734E+04 -9.22275E+03  1.33856E+04 -1.57716E+04  5.81546E+03 -1.64285E+04 -5.97372E+03
 -9.06672E+03 -1.84816E+04  4.61024E+03 -2.17710E+04  1.78247E+04 -1.21166E+04  1.93541E+04  3.88898E+03
  1.18018E+04  1.51333E+04 -1.55278E+03  1.79587E+04 -1.34989E+04  9.88017E+03 -1.46670E+04 -1.28259E+03
 -1.23601E+04 -1.19953E+04 -1.78880E+03 -1.39368E+04  7.84628E+03 -1.08748E+04  8.87209E+03 -3.89715E+03
  5.11897E+03  2.53657E+03 -1.33773E+03  1.79864E+03 -1.20912E+03 -3.86087E+03  3.63275E+03 -9.58620E+03
  1.35481E+04 -6.50350E+03  1.91645E+04  1.97830E+03  1.86341E+04  1.36346E+04  1.11576E+04  2.46655E+04
 -6.02615E+03  2.82240E+04 -2.34517E+04  2.08105E+04 -3.06044E+04  3.93900E+03 -2.41821E+04 -1.09428E+04
 -1.19394E+04 -1.96656E+04  3.49878E+01 -1.73321E+04  6.28590E+03 -1.00831E+04  6.39943E+03 -6.38915E+03
  4.85664E+03 -3.50757E+03  4.79912E+03 -4.13132E+03  6.70953E+03 -4.57203E+03  9.35337E+03 -1.95558E+03
  1.25143E+04  2.57229E+03  6.78961E+03  1.12339E+04 -2.15775E+03  1.37950E+04 -1.34147E+04  1.00312E+04
 -1.74531E+04 -1.39978E+03 -1.16316E+04 -1.23883E+04 -1.87075E+03 -1.93048E+04  1.04385E+04 -1.88952E+04
  2.01625E+04 -1.03444E+04  2.36985E+04  3.60691E+03  1.57441E+04  1.68802E+04  2.59256E+03  2.16440E+04
 -9.20117E+03  1.64766E+04 -1.28662E+04  6.14536E+03 -8.70607E+03 -2.05616E+03 -3.67319E+03 -2.33195E+03
 -1.54475E+03 -2.79502E+02 -2.57258E+03  3.69091E+03 -6.99412E+03  2.43628E+03 -1.18816E+04 -2.01880E+03
 -9.08374E+03 -1.20143E+04 -2.02065E+02 -1.79150E+04  1.07640E+04 -1.64507E+04  1.82993E+04 -5.09185E+03
  1.76282E+04  8.56418E+03  8.19486E+03  1.65947E+04 -3.90823E+03  1.81339E+04 -1.29242E+04  1.13481E+04
 -1.69717E+04  4.91981E+02 -1.28171E+04 -1.11813E+04 -1.38947E+03 -1.51455E+04  7.96183E+03 -1.12049E+04
  1.18775E+04 -3.44118E+03  7.96178E+03  3.24319E+03  2.99094E+03  5.03369E+03  1.47986E+03  2.45916E+03
  3.11217E+03  1.55597E+03  4.41319E+03  2.31843E+03  5.42139E+03  6.05476E+03  4.48444E+03  1.03532E+04
 -3.44521E+03  1.43823E+04 -1.34270E+04  1.40375E+04 -1.93332E+04  3.60094E+03 -1.98155E+04 -8.62536E+03
 -9.54344E+03 -1.90217E+04  2.56045E+03 -2.08030E+04  1.17027E+04 -1.28941E+04  1.51161E+04 -3.28669E+03
  1.19707E+04  7.01405E+03  2.74912E+03  1.10987E+04 -5.33166E+03  6.88813E+03 -8.33510E+03 -1.14923E+03
 -3.95076E+03 -8.68308E+03  4.71111E+03 -8.65445E+03  8.07711E+03 -3.73872E+03  8.06717E+03  1.80074E+03
  5.08315E+03  4.57727E+03  1.40852E+03  2.90515E+03 -1.50635E+03  2.65162E+03  1.74836E+03 -6.04510E+02
  3.47754E+03 -1.14646E+03  7.94632E+03  3.11178E+03  4.74650E+03  1.03093E+04 -1.62289E+03  1.30814E+04
 -9.71624E+03  9.05278E+03 -1.28158E+04  2.51016E+03 -1.05849E+04 -4.09906E+03 -4.20212E+03 -7.36485E+03
  1.09752E+03 -6.99915E+03  5.02078E+03 -3.41270E+03  4.09270E+03  3.63723E+03 -1.72904E+03  6.22315E+03
 -8.20511E+03  3.81670E+03 -9.21085E+03 -4.42612E+03 -5.02041E+03 -1.07309E+04  1.46862E+03 -1.09933E+04
  6.52221E+03 -6.74399E+03  8.60761E+03 -9.56447E+02  6.21589E+03  3.08141E+03  5.97122E+02  5.37650E+03
 -3.98422E+03  1.47432E+03 -5.15299E+03 -3.81998E+03  1.87289E+03 -8.63851E+03  9.53750E+03 -6.87801E+03
  1.26131E+04  9.05371E+02  1.15809E+04  9.11215E+03  3.92095E+03  1.35634E+04 -4.78676E+03  1.20270E+04
 -1.08572E+04  5.92320E+03 -1.10464E+04 -1.43885E+03 -6.07204E+03 -8.58840E+03  1.93549E+03 -8.36606E+03
  8.15840E+03 -4.03999E+03  6.71154E+03  3.45672E+03  2.65825E+03  6.79491E+03 -1.34387E+03  6.06136E+03
 -3.65865E+03  3.84565E+03 -2.75684E+03  1.45318E+03 -1.58110E+03  1.42296E+03 -2.14307E+03  2.83530E+03
 -3.79260E+03  4.69306E+03 -8.69329E+03  5.05489E+03 -1.33721E+04 -2.75201E+01 -1.47819E+04 -9.01999E+03
 -8.36615E+03 -1.82131E+04  3.32090E+03 -2.03767E+04  1.31237E+04 -1.62944E+04  1.99400E+04 -6.40369E+03
  1.85805E+04  4.23741E+03  1.15266E+04  1.25339E+04  1.29697E+03  1.38885E+04 -5.84240E+03  1.03766E+04
 -7.50859E+03  3.98919E+03 -4.53756E+03 -1.86821E+03 -1.62507E+03 -1.69350E+03 -2.68173E+02  2.21523E+01
 -1.93533E+03  2.41567E+02 -2.86208E+03 -3.31294E+02 -1.17678E+03 -3.34345E+03  5.64992E+02 -5.23901E+03
  6.30959E+03 -4.58579E+03  8.19838E+03 -3.44669E+02  9.96204E+03  7.67793E+03  2.73937E+03  1.42656E+04
 -6.60676E+03  1.62375E+04 -1.52893E+04  9.75752E+03 -1.78846E+04 -1.69031E+03 -1.28811E+04 -1.11120E+04
 -5.44550E+03 -1.47684E+04  3.69343E+03 -1.36017E+04  9.87777E+03 -7.37973E+03  9.96267E+03  4.84945E+02
  5.48001E+03  5.22719E+03 -1.18256E+03  4.01679E+03 -2.68417E+03 -1.80071E+02  8.26887E+02 -3.39521E+03
  4.73886E+03 -2.21545E+03  6.10891E+03  1.34826E+03  4.19496E+03  5.95973E+03 -9.56897E+00  7.84391E+03
 -6.42971E+03  6.62533E+03 -1.02735E+04  4.66067E+02 -8.68551E+03 -7.04940E+03 -1.09916E+03 -1.20719E+04
  6.92229E+03 -1.06242E+04  1.19586E+04 -3.03761E+03  1.13607E+04  2.96941E+03  6.53119E+03  8.90944E+03
  7.54673E+02  9.37972E+03 -4.23095E+03  7.66450E+03 -6.11975E+03  5.02641E+03 -5.12496E+03  5.80095E+02
 -2.50532E+03 -4.80667E+01 -2.68892E+03  8.06868E+02 -5.09945E+03  1.87542E+03 -8.13251E+03 -1.17035E+03
 -7.34452E+03 -5.47898E+03 -2.07147E+03 -9.91147E+03  4.46863E+03 -1.00660E+04  8.99940E+03 -4.72125E+03
  1.01167E+04  1.50942E+03  5.79743E+03  7.06686E+03 -8.77978E+02  1.03532E+04 -8.01133E+03  6.49770E+03
