 $NMID ID='MM_0lb_SNR800_14hz_g60_62.RAW', FMTDAT='(8E13.5)'
 TRAMP=1., VOLUME=1. $END
  3.09802E+05  3.40676E+02  3.37999E+05  2.50580E+05  8.50030E+04  3.38300E+05 -1.32567E+05  2.51771E+05
 -1.90453E+05  8.31539E+04 -1.12062E+05 -3.25832E+04  7.39253E+02 -5.01397E+04  5.35993E+04 -2.64393E+02
  3.51070E+04  5.27215E+04 -1.64409E+04  7.53826E+04 -6.08897E+04  6.36785E+04 -8.45874E+04  3.24532E+04
 -8.16172E+04 -1.16172E+04 -5.75330E+04 -5.19802E+04 -1.52441E+04 -7.01916E+04  2.77018E+04 -4.61514E+04
  4.05737E+04  3.65073E+03  1.63995E+04  4.83692E+04 -3.46183E+04  4.74905E+04 -6.72334E+04 -2.00974E+02
 -5.40998E+04 -5.72577E+04 -7.07938E+03 -7.76914E+04  3.42287E+04 -5.58326E+04  4.84195E+04 -1.78133E+04
  4.40985E+04  1.15106E+04  3.21738E+04  2.59518E+04  1.57917E+04  2.99786E+04 -5.52286E+03  2.73586E+04
 -2.23936E+04  1.23089E+04 -1.80426E+04 -5.53779E+03  6.05751E+03 -7.64916E+03  2.25854E+04  1.29183E+04
  7.02634E+03  3.64848E+04 -3.26338E+04  3.59962E+04 -6.42898E+04  2.22035E+03 -5.80918E+04 -4.34683E+04
 -1.25838E+04 -6.42115E+04  4.01082E+04 -4.64390E+04  5.91901E+04 -2.19426E+03  3.48927E+04  3.30535E+04
 -5.79618E+03  3.75362E+04 -3.07114E+04  1.71869E+04 -3.16280E+04 -4.12967E+03 -1.79308E+04 -1.13261E+04
 -8.59389E+03 -1.36852E+04 -4.47103E+02 -1.86946E+04  7.74789E+03 -2.33506E+04  1.57722E+04 -1.32253E+04
  1.10437E+04  5.42411E+03 -8.99626E+03  1.28929E+04 -2.22663E+04 -5.26993E+03 -8.43972E+03 -3.50725E+04
  2.36561E+04 -4.47934E+04  4.94874E+04 -2.01936E+04  4.66898E+04  1.96586E+04  1.66114E+04  4.51398E+04
 -1.59447E+04  3.45380E+04 -2.59852E+04  2.42141E+03 -1.02069E+04 -2.84353E+04  2.12390E+04 -3.50650E+04
  4.24053E+04 -9.81039E+03  3.70212E+04  2.41489E+04  1.93329E+04  4.78970E+04 -8.52800E+03  5.21363E+04
 -3.30501E+04  3.48979E+04 -4.38233E+04  9.82573E+03 -4.43296E+04 -1.70061E+04 -2.45235E+04 -3.94024E+04
  7.51187E+03 -3.95423E+04  3.22987E+04 -1.56486E+04  3.03469E+04  1.11044E+04  4.50851E+03  1.99488E+04
 -1.37386E+04  8.87429E+03 -1.05104E+04 -7.66248E+03  5.81654E+03 -1.10592E+04  1.82662E+04  5.87525E+03
  1.36581E+04  2.21874E+04 -5.67152E+03  2.62394E+04 -2.22426E+04  1.22579E+04 -2.92110E+04 -4.23556E+03
 -2.22248E+04 -1.75656E+04 -9.49127E+03 -2.17784E+04  4.03119E+03 -2.11711E+04  1.70630E+04 -1.93828E+04
  2.77219E+04 -1.36251E+04  3.43734E+04  3.77996E+03  2.51808E+04  2.12242E+04  4.25674E+03  3.79333E+04
 -1.83803E+04  3.13963E+04 -2.87349E+04  1.10188E+04 -2.14900E+04 -1.02271E+04 -4.53240E+03 -1.30608E+04
  1.56908E+03 -2.16169E+03 -5.54002E+03  7.09967E+03 -1.71945E+04  5.15783E+03 -1.76024E+04 -8.08765E+03
 -1.04004E+04 -2.01893E+04  5.53996E+03 -2.41667E+04  1.64469E+04 -1.73633E+04  1.94636E+04 -1.66855E+03
  1.23979E+04  1.38350E+04 -9.52658E+02  2.02445E+04 -1.41409E+04  1.14149E+04 -2.02206E+04 -4.09303E+03
 -1.50807E+04 -1.85406E+04 -1.84663E+03 -2.41909E+04  1.10049E+04 -2.00633E+04  2.01344E+04 -1.03348E+04
  1.87889E+04  2.69856E+02  1.37337E+04  4.66246E+03  7.28900E+03  1.18140E+03  1.03154E+04 -2.13047E+03
  1.86586E+04  2.61491E+03  2.09717E+04  1.58896E+04  1.37246E+04  3.21915E+04 -2.72529E+03  3.66435E+04
 -2.13518E+04  2.99799E+04 -3.44172E+04  1.52933E+04 -3.58302E+04 -2.62991E+03 -2.95307E+04 -2.05686E+04
 -1.22731E+04 -3.01597E+04  1.06717E+04 -2.66405E+04  2.28587E+04 -1.35467E+04  2.07386E+04  6.26859E+03
  7.66086E+03  1.51923E+04 -9.72391E+03  1.34115E+04 -1.70389E+04  2.58021E+03 -1.29173E+04 -1.09079E+04
 -2.42732E+02 -1.64149E+04  8.52071E+03 -1.19958E+04  1.07551E+04 -1.44372E+03  2.58216E+03  7.18697E+03
 -7.54688E+03  3.10980E+03 -6.83177E+03 -6.09572E+03 -9.20407E+02 -1.45643E+04  9.87966E+03 -1.56604E+04
  1.79355E+04 -8.29899E+03  1.95953E+04  2.82533E+03  1.72001E+04  1.43106E+04  7.83893E+03  2.21793E+04
 -3.82254E+03  2.41399E+04 -1.55309E+04  1.51735E+04 -1.69078E+04  3.83743E+03 -1.22949E+04 -4.05284E+03
 -5.60951E+03 -5.19506E+03 -6.88043E+02  7.10554E+02 -2.48369E+03  2.74010E+03 -5.65833E+03  4.58873E+03
 -1.10807E+04 -8.23055E+02 -1.17175E+04 -9.55989E+03 -4.96368E+03 -1.57222E+04  5.08670E+03 -1.22562E+04
  1.00816E+04 -5.29651E+03  7.58727E+03  3.59184E+03  4.28677E+02  4.87655E+03 -5.87741E+03 -7.82760E+01
 -5.35949E+03 -7.77263E+03 -8.42659E+02 -1.16916E+04  6.36814E+03 -1.23770E+04  1.49584E+04 -6.25869E+03
  1.77059E+04  1.41878E+03  1.27126E+04  1.03941E+04  2.64438E+03  1.41220E+04 -7.72130E+03  1.19715E+04
 -9.95997E+03  3.82784E+03 -5.05817E+03 -2.62394E+03  1.94480E+03 -3.06042E+03  6.33964E+03 -1.21251E+03
  5.89946E+03  5.41944E+03  1.01505E+03  9.43795E+03 -6.75654E+03  9.00397E+03 -1.16990E+04  2.45393E+03
 -8.09753E+03 -6.00716E+03  9.76270E+01 -9.95818E+03  6.35474E+03 -5.15174E+03  6.48198E+03  1.92774E+03
  1.38668E+03  6.41070E+03 -5.80094E+03  7.86121E+03 -9.37493E+03  3.96926E+03 -9.02672E+03 -3.16046E+03
 -5.50738E+03 -1.10048E+04  3.03999E+03 -1.24347E+04  1.06480E+04 -7.31943E+03  1.13067E+04  1.86619E+03
  7.08325E+03  9.09489E+03 -1.08472E+03  1.13855E+04 -8.36495E+03  6.56812E+03 -9.04831E+03 -6.33088E+02
 -8.17989E+03 -7.83965E+03 -1.66689E+03 -8.50613E+03  4.36182E+03 -7.13905E+03  5.48289E+03 -3.14987E+03
  3.77127E+03  1.04876E+03 -9.65387E+02  1.60256E+03 -2.06990E+02 -1.68978E+03  1.31052E+03 -4.48877E+03
  7.35175E+03 -2.75652E+03  1.05573E+04  1.10475E+03  9.98639E+03  6.80275E+03  7.69635E+03  1.35990E+04
 -2.70923E+03  1.57094E+04 -1.32661E+04  1.15136E+04 -1.73128E+04  2.06533E+03 -1.36982E+04 -5.59126E+03
 -7.30042E+03 -1.10741E+04 -1.18373E+02 -9.53752E+03  3.77064E+03 -5.07988E+03  3.27820E+03 -3.60659E+03
  2.32706E+03 -2.55989E+03  2.98755E+03 -2.80386E+03  4.79199E+03 -2.30190E+03  5.81415E+03 -4.73336E+02
  7.08252E+03  1.58976E+03  3.45741E+03  6.21980E+03 -1.64946E+03  6.67077E+03 -7.51092E+03  4.90733E+03
 -9.10913E+03 -1.20022E+03 -5.31197E+03 -6.62874E+03 -2.50821E+02 -9.77537E+03  5.46549E+03 -9.98675E+03
  9.99650E+03 -5.67056E+03  1.23997E+04  1.49720E+03  8.53421E+03  8.29816E+03  1.43374E+03  1.09089E+04
 -4.60019E+03  9.44966E+03 -6.55183E+03  3.34460E+03 -4.44209E+03 -1.48261E+03 -1.67244E+03 -1.45830E+03
 -8.52531E+02  3.75704E+02 -1.73842E+03  2.18793E+03 -4.22398E+03  1.80076E+03 -6.67174E+03 -6.17351E+02
 -3.91266E+03 -6.72951E+03  5.94193E+02 -8.68983E+03  5.31844E+03 -8.44064E+03  8.10610E+03 -2.12894E+03
  8.57768E+03  4.22835E+03  4.10579E+03  7.68945E+03 -1.68930E+03  8.75270E+03 -5.91347E+03  5.51286E+03
 -7.89928E+03  4.88174E+02 -6.26638E+03 -5.31823E+03 -4.54730E+02 -6.77696E+03  3.45325E+03 -5.25087E+03
  5.53552E+03 -1.97405E+03  3.75623E+03  1.15140E+03  1.01992E+03  2.88973E+03  1.00058E+03  8.48553E+02
  2.13351E+03  9.42019E+02  2.37094E+03  1.81803E+03  2.55874E+03  3.50898E+03  2.64462E+03  4.36383E+03
 -2.17777E+03  6.46115E+03 -5.60427E+03  7.42164E+03 -7.71793E+03  1.99553E+03 -8.50242E+03 -2.71344E+03
 -4.03418E+03 -7.81994E+03  1.06021E+03 -9.15380E+03  4.55271E+03 -5.46532E+03  6.65113E+03 -1.46408E+03
  4.97883E+03  3.31105E+03  8.40845E+02  4.94158E+03 -2.21250E+03  2.77720E+03 -3.00863E+03 -2.92107E+02
 -1.23508E+03 -3.12817E+03  1.92900E+03 -3.32979E+03  3.13127E+03 -1.60181E+03  3.13718E+03  6.95736E+02
  2.11215E+03  1.37541E+03  1.14751E+03  1.00599E+03 -5.00817E+02  1.23689E+03  1.70455E+03 -1.89714E+02
  8.24212E+02 -6.94010E+02  3.30101E+03  1.49457E+03  1.48754E+03  4.20656E+03 -1.05163E+03  5.62093E+03
 -3.51924E+03  3.16054E+03 -4.58803E+03  9.81323E+02 -4.80861E+03 -1.59490E+03 -1.44798E+03 -2.48449E+03
  8.45216E+02 -2.95901E+03  1.84214E+03 -1.51477E+03  1.57493E+03  1.68656E+03 -1.18812E+03  2.40817E+03
 -3.08685E+03  1.34952E+03 -3.65403E+03 -1.90473E+03 -2.31747E+03 -4.16397E+03  6.81722E+02 -4.06075E+03
  1.92238E+03 -2.14348E+03  2.71255E+03 -4.20266E+00  2.80461E+03  6.68117E+02  3.26582E+02  2.48881E+03
 -1.03644E+03  8.05003E+02 -1.83952E+03 -1.21246E+03  8.59113E+02 -2.61862E+03  3.71862E+03 -2.43465E+03
  4.12752E+03  4.09567E+02  4.61438E+03  2.64810E+03  1.81940E+03  4.53637E+03 -1.61015E+03  4.38063E+03
 -3.60543E+03  1.54642E+03 -4.02634E+03 -6.16046E+02 -1.78061E+03 -3.19062E+03  5.52919E+02 -2.21114E+03
  3.24451E+03 -1.58776E+03  2.28426E+03  1.30617E+03  5.98051E+02  2.85164E+03  1.13019E+02  2.30964E+03
 -1.21618E+03  1.70686E+03 -9.06892E+02  4.03945E+02 -3.79747E+02  7.91172E+02 -1.05177E+03  9.09572E+02
 -9.77499E+02  2.33394E+03 -3.42460E+03  1.52634E+03 -4.28976E+03 -1.45970E+01 -5.19574E+03 -2.97208E+03
 -2.59587E+03 -5.83117E+03  1.11139E+03 -6.41529E+03  3.73807E+03 -5.33744E+03  6.32500E+03 -2.08423E+03
  5.62324E+03  7.81042E+02  3.60835E+03  3.91095E+03 -4.42302E+02  4.47944E+03 -1.59272E+03  3.22345E+03
 -2.32330E+03  1.46726E+03 -1.53483E+03 -1.00731E+03 -6.34934E+02 -3.25170E+02 -6.25593E+02 -2.37096E+01
 -1.21837E+03  2.26773E+02 -1.37942E+03  2.80988E+02 -2.09574E+02 -1.36992E+03 -1.95638E+02 -1.57132E+03
  2.55803E+03 -1.53214E+03  2.18434E+03  3.05852E+02  3.09336E+03  2.13688E+03  3.79080E+02  4.07683E+03
 -2.00794E+03  5.03782E+03 -4.20499E+03  2.84555E+03 -4.90483E+03 -4.75949E+02 -3.67277E+03 -3.25991E+03
 -1.67518E+03 -3.78579E+03  9.35675E+02 -3.65163E+03  2.92490E+03 -2.06628E+03  2.34949E+03  4.04204E+02
  1.36207E+03  1.20993E+03  4.76660E+01  9.72923E+02 -7.21501E+02  2.68795E+02 -2.53386E+01 -8.29474E+02
  1.27469E+03 -2.27354E+02  1.30122E+03  4.35788E+02  8.83568E+02  1.74755E+03  3.65030E+02  1.59684E+03
 -1.56564E+03  2.03061E+03 -2.56761E+03  3.83659E+01 -2.06672E+03 -1.91384E+03 -7.84722E+01 -3.13677E+03
  1.44943E+03 -2.43278E+03  2.62539E+03 -4.27516E+02  2.67580E+03  2.33136E+02  1.61445E+03  2.11280E+03
  3.04695E+02  2.01045E+03 -1.12891E+03  1.93824E+03 -1.45928E+03  1.34678E+03 -1.34470E+03 -2.68268E+01
 -6.80335E+02 -2.39121E+02 -8.08829E+02  3.95517E+02 -1.38722E+03  2.31689E+02 -1.83178E+03 -5.88634E+02
 -2.47025E+03 -7.42064E+02 -6.58163E+02 -2.35368E+03  1.81461E+03 -2.91397E+03  2.08877E+03 -1.12968E+03
  2.16759E+03  2.45205E+02  9.34734E+02  1.28849E+03 -3.13530E+02  2.70244E+03 -1.40692E+03  1.65415E+03
