 $NMID ID='MM_0lb_SNR800_13hz_g45_40.RAW', FMTDAT='(8E13.5)'
 TRAMP=1., VOLUME=1. $END
  3.10062E+05  4.34728E+02  3.37704E+05  2.50481E+05  8.50603E+04  3.38026E+05 -1.32549E+05  2.51111E+05
 -1.90156E+05  8.30281E+04 -1.11829E+05 -3.29739E+04  8.61290E+02 -5.03610E+04  5.38531E+04 -2.92456E+02
  3.48189E+04  5.27388E+04 -1.66298E+04  7.55405E+04 -6.06969E+04  6.34721E+04 -8.42343E+04  3.18753E+04
 -8.13848E+04 -1.13858E+04 -5.74477E+04 -5.12853E+04 -1.48366E+04 -6.98159E+04  2.71711E+04 -4.59069E+04
  4.03238E+04  3.66619E+03  1.63097E+04  4.80684E+04 -3.40589E+04  4.70673E+04 -6.67963E+04 -1.19870E+02
 -5.36732E+04 -5.66511E+04 -7.17483E+03 -7.72480E+04  3.39777E+04 -5.51755E+04  4.80513E+04 -1.71186E+04
  4.37446E+04  1.13879E+04  3.18773E+04  2.55567E+04  1.58326E+04  2.97542E+04 -5.13055E+03  2.73021E+04
 -2.20990E+04  1.25439E+04 -1.82776E+04 -4.94542E+03  5.48246E+03 -7.22357E+03  2.23553E+04  1.27337E+04
  7.17393E+03  3.55856E+04 -3.22669E+04  3.56073E+04 -6.35745E+04  2.08535E+03 -5.70787E+04 -4.30018E+04
 -1.25012E+04 -6.36107E+04  3.98563E+04 -4.56459E+04  5.87449E+04 -2.25569E+03  3.43539E+04  3.27128E+04
 -6.00646E+03  3.65881E+04 -3.01389E+04  1.62322E+04 -3.07295E+04 -4.48606E+03 -1.67945E+04 -1.12215E+04
 -8.76522E+03 -1.35761E+04 -5.17597E+02 -1.81449E+04  7.67467E+03 -2.28240E+04  1.54825E+04 -1.30224E+04
  1.13671E+04  4.89368E+03 -8.24953E+03  1.28577E+04 -2.14014E+04 -4.57901E+03 -8.21242E+03 -3.42177E+04
  2.30014E+04 -4.36231E+04  4.83975E+04 -1.97234E+04  4.54178E+04  1.95922E+04  1.58005E+04  4.46362E+04
 -1.61653E+04  3.38371E+04 -2.55659E+04  1.90511E+03 -9.74913E+03 -2.77909E+04  2.07882E+04 -3.43282E+04
  4.10944E+04 -9.41002E+03  3.60486E+04  2.38751E+04  1.85295E+04  4.69675E+04 -8.21597E+03  5.05451E+04
 -3.18248E+04  3.40405E+04 -4.26174E+04  9.93181E+03 -4.33086E+04 -1.67616E+04 -2.40251E+04 -3.84798E+04
  7.31545E+03 -3.81789E+04  3.17456E+04 -1.48584E+04  2.96662E+04  1.08775E+04  4.51378E+03  1.95043E+04
 -1.35648E+04  8.55119E+03 -1.04300E+04 -7.78726E+03  6.16782E+03 -1.10032E+04  1.79355E+04  6.06027E+03
  1.33770E+04  2.24452E+04 -5.74783E+03  2.48803E+04 -2.25199E+04  1.16753E+04 -2.81670E+04 -4.61136E+03
 -2.10790E+04 -1.76473E+04 -8.83278E+03 -2.06366E+04  4.25393E+03 -2.04058E+04  1.62482E+04 -1.89294E+04
  2.68918E+04 -1.29722E+04  3.28661E+04  2.91069E+03  2.41931E+04  2.05527E+04  4.16247E+03  3.67773E+04
 -1.78684E+04  3.08789E+04 -2.81627E+04  1.07885E+04 -2.13437E+04 -1.02889E+04 -4.63269E+03 -1.33426E+04
  1.68581E+03 -2.60854E+03 -4.97633E+03  6.81211E+03 -1.64742E+04  5.44640E+03 -1.67589E+04 -7.25214E+03
 -1.05144E+04 -1.90217E+04  5.39616E+03 -2.34913E+04  1.54096E+04 -1.68354E+04  1.83921E+04 -1.57097E+03
  1.17585E+04  1.32986E+04 -1.09755E+03  1.94016E+04 -1.34750E+04  1.12040E+04 -1.91376E+04 -4.01675E+03
 -1.42261E+04 -1.70730E+04 -1.67054E+03 -2.33042E+04  1.06543E+04 -1.93331E+04  1.97074E+04 -9.34857E+03
  1.80463E+04  6.10457E+02  1.31903E+04  4.40825E+03  6.93578E+03  1.01754E+03  9.97145E+03 -2.00080E+03
  1.78978E+04  3.13289E+03  2.00299E+04  1.57217E+04  1.33580E+04  3.11877E+04 -2.78083E+03  3.53515E+04
 -2.07690E+04  2.84503E+04 -3.27121E+04  1.42372E+04 -3.46683E+04 -2.18013E+03 -2.84768E+04 -2.00232E+04
 -1.19566E+04 -2.86260E+04  9.90951E+03 -2.59873E+04  2.21080E+04 -1.28575E+04  1.98776E+04  5.38417E+03
  7.44630E+03  1.47757E+04 -9.37152E+03  1.31756E+04 -1.66723E+04  2.38908E+03 -1.28199E+04 -1.01526E+04
 -3.16807E+02 -1.62150E+04  7.97254E+03 -1.17752E+04  1.03211E+04 -1.11094E+03  2.56969E+03  6.85525E+03
 -7.30425E+03  2.90939E+03 -6.23051E+03 -5.88253E+03 -4.51327E+02 -1.40260E+04  9.75111E+03 -1.45230E+04
  1.72183E+04 -7.36613E+03  1.87581E+04  3.09827E+03  1.68818E+04  1.37664E+04  7.25539E+03  2.11640E+04
 -3.59324E+03  2.30615E+04 -1.49781E+04  1.44123E+04 -1.64828E+04  3.33824E+03 -1.15167E+04 -3.69598E+03
 -5.47202E+03 -5.34642E+03 -8.56804E+02  6.72859E+02 -2.26528E+03  2.64055E+03 -5.32442E+03  4.41032E+03
 -1.09647E+04 -3.63830E+02 -1.14668E+04 -9.75536E+03 -4.72776E+03 -1.48202E+04  4.72443E+03 -1.19636E+04
  1.00821E+04 -5.10517E+03  6.96847E+03  3.35841E+03  2.15571E+02  4.85435E+03 -5.82446E+03  1.16938E+02
 -5.16275E+03 -7.21158E+03 -8.43798E+02 -1.09300E+04  6.45405E+03 -1.18448E+04  1.46051E+04 -6.34267E+03
  1.71630E+04  1.45086E+03  1.24155E+04  1.00575E+04  2.69505E+03  1.36086E+04 -7.24801E+03  1.15918E+04
 -9.43592E+03  3.34662E+03 -4.97511E+03 -2.51937E+03  1.94790E+03 -2.99416E+03  6.25726E+03 -7.73288E+02
  5.60419E+03  5.24881E+03  1.05952E+03  9.05429E+03 -6.64417E+03  9.18364E+03 -1.16414E+04  2.28956E+03
 -7.74215E+03 -5.87081E+03 -1.24081E+02 -9.73501E+03  6.00088E+03 -5.13958E+03  6.12161E+03  2.36710E+03
  1.19191E+03  6.57696E+03 -6.15446E+03  7.93921E+03 -8.89234E+03  3.47001E+03 -8.61584E+03 -2.75047E+03
 -5.10335E+03 -1.07045E+04  2.34913E+03 -1.21828E+04  1.03387E+04 -7.27027E+03  1.12641E+04  1.82546E+03
  6.86659E+03  9.14278E+03 -5.93546E+02  1.11067E+04 -8.09049E+03  6.03296E+03 -8.91673E+03 -9.12084E+02
 -8.13998E+03 -7.46198E+03 -1.54841E+03 -8.62276E+03  4.07804E+03 -7.18243E+03  5.12781E+03 -3.36937E+03
  3.65702E+03  1.09915E+03 -5.22980E+02  1.87053E+03  5.09511E+01 -1.62209E+03  1.07383E+03 -4.56220E+03
  7.61337E+03 -2.43604E+03  1.03155E+04  1.13902E+03  1.00663E+04  6.72425E+03  7.17672E+03  1.33565E+04
 -2.96854E+03  1.54135E+04 -1.33295E+04  1.15367E+04 -1.69665E+04  2.25759E+03 -1.34043E+04 -5.53661E+03
 -7.04320E+03 -1.12920E+04 -6.58477E+02 -9.14373E+03  3.65690E+03 -5.09498E+03  3.13369E+03 -3.32961E+03
  2.55287E+03 -2.25658E+03  3.04242E+03 -2.83524E+03  4.29162E+03 -2.53317E+03  5.52488E+03 -3.59928E+02
  7.20969E+03  1.85517E+03  3.88013E+03  6.36304E+03 -1.89903E+03  6.52457E+03 -7.22354E+03  5.38598E+03
 -9.59278E+03 -1.16172E+03 -5.28078E+03 -6.29271E+03 -3.61732E+02 -9.92749E+03  5.66767E+03 -9.85741E+03
  1.00198E+04 -5.90230E+03  1.24385E+04  1.08890E+03  8.56556E+03  8.50410E+03  1.86138E+03  1.09583E+04
 -4.57859E+03  9.23665E+03 -6.45194E+03  3.39596E+03 -4.26305E+03 -1.41851E+03 -1.59690E+03 -1.19129E+03
 -8.52345E+02  7.80391E+01 -1.64917E+03  2.39268E+03 -4.24463E+03  2.12582E+03 -6.43860E+03 -5.94673E+02
 -3.75262E+03 -6.84458E+03  6.06581E+02 -9.23081E+03  5.77560E+03 -8.34440E+03  8.30419E+03 -2.44365E+03
  8.73727E+03  4.32898E+03  4.21058E+03  7.47599E+03 -1.70718E+03  8.97849E+03 -6.12818E+03  5.42860E+03
 -8.16022E+03  5.02306E+02 -6.40332E+03 -4.72561E+03 -7.09214E+02 -6.98168E+03  3.40584E+03 -5.12534E+03
  5.42531E+03 -1.90935E+03  3.67746E+03  1.16451E+03  1.47165E+03  2.77188E+03  1.02840E+03  1.04954E+03
  2.22391E+03  1.07806E+03  1.88838E+03  1.22811E+03  2.54676E+03  3.25787E+03  2.57045E+03  4.07905E+03
 -2.13728E+03  6.56535E+03 -5.97752E+03  7.08231E+03 -8.44600E+03  2.28453E+03 -9.12705E+03 -2.58555E+03
 -4.35998E+03 -8.31391E+03  1.14682E+03 -9.60144E+03  5.02381E+03 -5.94062E+03  6.67954E+03 -1.75223E+03
  5.39742E+03  3.39328E+03  9.51626E+02  5.15125E+03 -2.07939E+03  3.02775E+03 -3.20661E+03 -4.48029E+02
 -1.54383E+03 -3.50594E+03  2.34500E+03 -3.71990E+03  3.30160E+03 -1.95363E+03  3.55357E+03  5.24963E+02
  1.82209E+03  1.63682E+03  1.22046E+03  7.68331E+02 -4.57263E+02  1.07064E+03  1.45197E+03 -1.13183E+02
  1.13643E+03 -4.43608E+02  3.40671E+03  1.54318E+03  1.57333E+03  4.72933E+03 -6.94402E+02  5.72618E+03
 -3.98468E+03  3.33628E+03 -4.96248E+03  9.60910E+02 -4.87632E+03 -1.89059E+03 -1.53673E+03 -3.04288E+03
  5.70415E+02 -3.11511E+03  1.96967E+03 -1.37561E+03  1.97105E+03  2.06593E+03 -1.35296E+03  2.68024E+03
 -3.36388E+03  1.95009E+03 -3.90938E+03 -2.30858E+03 -1.57663E+03 -4.25626E+03  2.70352E+02 -4.66781E+03
  2.30466E+03 -2.26626E+03  2.76459E+03 -3.18918E+02  2.83624E+03  9.95002E+02 -1.45320E+02  2.42434E+03
 -1.20153E+03  6.30435E+02 -2.20690E+03 -1.34639E+03  7.74612E+02 -3.12358E+03  4.42613E+03 -2.85594E+03
  5.06929E+03  5.55663E+02  5.06775E+03  3.15568E+03  2.14599E+03  4.92208E+03 -1.32538E+03  4.84006E+03
 -4.06849E+03  1.83272E+03 -3.85081E+03 -3.54163E+02 -2.34509E+03 -3.35518E+03  8.90300E+02 -2.59447E+03
  3.18987E+03 -1.65964E+03  2.62915E+03  1.60465E+03  5.22566E+02  2.79912E+03 -7.30198E+01  2.85889E+03
 -1.16185E+03  1.75977E+03 -1.10762E+03  8.01539E+02 -4.95165E+02  6.33415E+02 -1.01740E+03  1.06375E+03
 -1.54721E+03  2.01811E+03 -3.45402E+03  1.63770E+03 -4.72096E+03 -1.63740E+01 -6.00787E+03 -2.79779E+03
 -3.00546E+03 -6.45507E+03  1.51164E+03 -7.80313E+03  4.33768E+03 -5.95911E+03  7.46917E+03 -2.45169E+03
  6.31962E+03  1.23175E+03  3.99955E+03  4.20940E+03  1.80633E+02  4.82988E+03 -1.90346E+03  3.57207E+03
 -2.85609E+03  1.83223E+03 -1.57746E+03 -7.40174E+02 -7.63960E+02 -1.44430E+02 -5.01333E+02  1.03406E+02
 -1.28321E+03  1.28482E+02 -1.48101E+03 -3.89612E+02 -9.36365E+01 -1.44132E+03 -3.01251E+02 -1.89554E+03
  2.56851E+03 -1.50018E+03  2.26323E+03 -4.30314E+01  3.43750E+03  2.77776E+03  6.09555E+02  4.67837E+03
 -2.24602E+03  5.63845E+03 -5.18084E+03  3.49709E+03 -5.45446E+03 -4.95076E+02 -4.17875E+03 -3.57245E+03
 -2.20228E+03 -4.47738E+03  1.30683E+03 -4.32763E+03  2.74175E+03 -2.08159E+03  2.72927E+03 -1.16279E+01
  1.70725E+03  1.04774E+03 -2.91498E+02  1.37777E+03 -9.50609E+02  4.97355E+01 -9.96847E+01 -9.95945E+02
  1.87198E+03 -1.77397E+02  1.74362E+03  8.02260E+02  6.63050E+02  1.65220E+03 -3.27163E+01  1.84508E+03
 -1.94907E+03  2.16119E+03 -2.73213E+03  3.49567E+02 -2.93646E+03 -2.30520E+03 -4.91338E+02 -3.92484E+03
  1.73603E+03 -3.00040E+03  3.12050E+03 -6.81365E+02  3.50296E+03  1.72609E+02  1.77340E+03  2.49134E+03
  5.60466E+02  2.71454E+03 -8.56167E+02  2.25696E+03 -1.86585E+03  1.49318E+03 -1.14738E+03  3.56707E+02
 -1.10608E+03 -2.09590E+01 -1.11139E+03  5.62302E+02 -1.30415E+03  7.85635E+02 -2.33789E+03 -2.74163E+02
 -2.55337E+03 -9.90393E+02 -7.02952E+02 -3.30481E+03  1.76318E+03 -3.51488E+03  2.54790E+03 -1.38844E+03
  2.70539E+03  3.66904E+02  1.19615E+03  1.85754E+03 -2.17984E+02  3.07992E+03 -2.35569E+03  1.70449E+03
