 $NMID ID='MM_0lb_SNR800_9hz_g45_21.RAW', FMTDAT='(8E13.5)'
 TRAMP=1., VOLUME=1. $END
  3.10063E+05  2.35544E+02  3.37346E+05  2.50777E+05  8.47208E+04  3.38017E+05 -1.32920E+05  2.51817E+05
 -1.90459E+05  8.36289E+04 -1.12472E+05 -3.24636E+04  3.70194E+02 -5.09299E+04  5.38853E+04 -6.63984E+02
  3.58611E+04  5.27558E+04 -1.67338E+04  7.59982E+04 -6.10738E+04  6.44876E+04 -8.50308E+04  3.23877E+04
 -8.22068E+04 -1.17688E+04 -5.80706E+04 -5.20526E+04 -1.52299E+04 -7.10785E+04  2.80374E+04 -4.67368E+04
  4.06509E+04  3.57252E+03  1.66304E+04  4.84579E+04 -3.47981E+04  4.80712E+04 -6.80752E+04  9.28007E+01
 -5.47023E+04 -5.75344E+04 -7.27557E+03 -7.87154E+04  3.46216E+04 -5.69445E+04  5.00217E+04 -1.80621E+04
  4.50752E+04  1.14436E+04  3.24764E+04  2.65638E+04  1.59055E+04  3.09099E+04 -5.72983E+03  2.78991E+04
 -2.24128E+04  1.19061E+04 -1.80068E+04 -5.60993E+03  6.92565E+03 -7.45066E+03  2.34219E+04  1.35784E+04
  6.84101E+03  3.70875E+04 -3.38218E+04  3.69221E+04 -6.56907E+04  2.38260E+03 -5.86618E+04 -4.41558E+04
 -1.25359E+04 -6.53376E+04  4.12706E+04 -4.72765E+04  6.09663E+04 -2.19604E+03  3.66540E+04  3.43666E+04
 -5.43927E+03  3.88961E+04 -3.16249E+04  1.79897E+04 -3.31785E+04 -3.62226E+03 -1.92405E+04 -1.18804E+04
 -9.54258E+03 -1.50580E+04 -4.44443E+02 -1.95285E+04  8.20423E+03 -2.34446E+04  1.58082E+04 -1.26513E+04
  1.06649E+04  5.89260E+03 -9.95994E+03  1.25834E+04 -2.35214E+04 -6.87866E+03 -8.59643E+03 -3.70002E+04
  2.51336E+04 -4.64052E+04  5.15686E+04 -2.07207E+04  4.86161E+04  2.07242E+04  1.72531E+04  4.67334E+04
 -1.68484E+04  3.58239E+04 -2.68830E+04  2.53784E+03 -1.16866E+04 -2.94613E+04  2.16213E+04 -3.67372E+04
  4.46271E+04 -1.08847E+04  3.98987E+04  2.50724E+04  2.09905E+04  5.07213E+04 -7.95072E+03  5.54636E+04
 -3.50531E+04  3.80567E+04 -4.70109E+04  1.11466E+04 -4.67753E+04 -1.84843E+04 -2.57764E+04 -4.17271E+04
  7.79484E+03 -4.15895E+04  3.34648E+04 -1.73656E+04  3.21969E+04  1.13143E+04  5.27328E+03  2.08187E+04
 -1.40682E+04  1.00974E+04 -1.11088E+04 -7.56557E+03  5.74925E+03 -1.14161E+04  1.84851E+04  5.81402E+03
  1.45321E+04  2.28891E+04 -4.97187E+03  2.63327E+04 -2.39990E+04  1.40180E+04 -3.12981E+04 -3.03590E+03
 -2.47497E+04 -1.83681E+04 -1.15351E+04 -2.46723E+04  3.90401E+03 -2.49352E+04  1.93621E+04 -2.23758E+04
  3.18009E+04 -1.39843E+04  3.75124E+04  4.47547E+03  2.69437E+04  2.41737E+04  4.55534E+03  4.08540E+04
 -1.96026E+04  3.38578E+04 -3.05559E+04  1.21258E+04 -2.24261E+04 -1.01047E+04 -4.76917E+03 -1.32389E+04
  6.97594E+02 -1.17232E+03 -7.13626E+03  8.13722E+03 -1.96993E+04  5.32214E+03 -1.96045E+04 -9.28116E+03
 -1.15649E+04 -2.26998E+04  5.67560E+03 -2.73412E+04  1.86249E+04 -1.96898E+04  2.26427E+04 -1.67539E+03
  1.44775E+04  1.58300E+04 -1.17660E+03  2.27865E+04 -1.62963E+04  1.29552E+04 -2.36628E+04 -4.55285E+03
 -1.71530E+04 -2.05930E+04 -2.07894E+03 -2.76258E+04  1.26260E+04 -2.30137E+04  2.29567E+04 -1.22259E+04
  2.12004E+04 -2.19180E+02  1.57674E+04  4.87245E+03  8.57249E+03  1.88956E+03  1.18500E+04 -2.27667E+03
  2.15253E+04  2.58519E+03  2.50481E+04  1.79707E+04  1.70842E+04  3.73476E+04 -2.82599E+03  4.33381E+04
 -2.46774E+04  3.60525E+04 -4.09323E+04  1.83523E+04 -4.37369E+04 -3.17778E+03 -3.53289E+04 -2.52759E+04
 -1.39384E+04 -3.64956E+04  1.25558E+04 -3.19982E+04  2.72165E+04 -1.51878E+04  2.35843E+04  7.67370E+03
  8.36562E+03  1.84292E+04 -1.11324E+04  1.51816E+04 -1.95152E+04  2.56269E+03 -1.46169E+04 -1.29929E+04
 -2.87943E+02 -1.89264E+04  1.04401E+04 -1.40509E+04  1.34860E+04 -1.51476E+03  2.93541E+03  8.33393E+03
 -8.31921E+03  3.91118E+03 -9.09419E+03 -6.54557E+03 -1.77370E+03 -1.75647E+04  1.18339E+04 -1.92473E+04
  2.29772E+04 -1.06311E+04  2.53893E+04  3.32190E+03  2.25723E+04  1.83707E+04  1.06563E+04  2.77919E+04
 -5.82518E+03  3.00570E+04 -1.98841E+04  1.94969E+04 -2.19347E+04  3.63808E+03 -1.47648E+04 -5.57522E+03
 -6.30745E+03 -7.47706E+03 -7.50170E+02  8.58518E+02 -2.97274E+03  3.44940E+03 -7.27862E+03  5.18234E+03
 -1.38647E+04 -7.72768E+02 -1.47603E+04 -1.14731E+04 -6.05392E+03 -1.91770E+04  6.23199E+03 -1.52312E+04
  1.27799E+04 -6.47133E+03  8.75866E+03  4.31558E+03 -2.39083E+02  5.83920E+03 -7.28238E+03 -4.13960E+02
 -7.55501E+03 -1.02998E+04 -8.95544E+02 -1.51482E+04  8.94294E+03 -1.59267E+04  1.92947E+04 -8.85833E+03
  2.29600E+04  2.14132E+03  1.67599E+04  1.37255E+04  3.60072E+03  1.85824E+04 -9.64562E+03  1.53810E+04
 -1.24199E+04  4.79493E+03 -6.48333E+03 -3.73596E+03  2.17031E+03 -4.37076E+03  8.14139E+03 -1.00719E+03
  6.94635E+03  6.81701E+03  1.11598E+03  1.23680E+04 -8.63679E+03  1.16208E+04 -1.55916E+04  3.08224E+03
 -1.03816E+04 -8.13004E+03 -1.20281E+01 -1.32376E+04  8.37279E+03 -6.61806E+03  8.74702E+03  3.18239E+03
  2.11839E+03  9.75236E+03 -8.53736E+03  1.16125E+04 -1.33373E+04  4.98439E+03 -1.30286E+04 -4.68210E+03
 -7.86444E+03 -1.52336E+04  3.75532E+03 -1.74654E+04  1.47342E+04 -1.09505E+04  1.61667E+04  2.56306E+03
  9.73904E+03  1.28551E+04 -1.50190E+03  1.53279E+04 -1.11021E+04  8.94736E+03 -1.27786E+04 -1.20930E+03
 -1.02356E+04 -9.98615E+03 -1.55102E+03 -1.16988E+04  6.49791E+03 -9.40383E+03  7.54634E+03 -3.71272E+03
  4.82987E+03  1.99691E+03 -1.02031E+03  2.32921E+03 -6.52238E+02 -3.57824E+03  2.22504E+03 -7.23272E+03
  1.13697E+04 -5.06295E+03  1.58055E+04  1.66204E+03  1.54098E+04  1.05165E+04  9.79466E+03  2.04274E+04
 -4.81944E+03  2.31277E+04 -1.94809E+04  1.71981E+04 -2.50319E+04  2.86650E+03 -2.01212E+04 -8.84579E+03
 -9.67879E+03 -1.66996E+04 -4.36779E+02 -1.39781E+04  5.04334E+03 -8.18583E+03  4.76144E+03 -5.10778E+03
  4.23969E+03 -3.03736E+03  3.82619E+03 -4.11900E+03  5.53242E+03 -3.68627E+03  8.05923E+03 -1.34155E+03
  1.03420E+04  2.34849E+03  5.60165E+03  9.01542E+03 -2.37194E+03  1.08874E+04 -1.07874E+04  8.67015E+03
 -1.45739E+04 -1.39180E+03 -9.05105E+03 -1.01675E+04 -1.22350E+03 -1.53150E+04  8.22632E+03 -1.50264E+04
  1.63431E+04 -8.46336E+03  1.88115E+04  2.99698E+03  1.30777E+04  1.33323E+04  1.94964E+03  1.72633E+04
 -6.86931E+03  1.40578E+04 -1.04004E+04  4.99187E+03 -6.48887E+03 -1.88406E+03 -2.77819E+03 -2.33166E+03
 -1.75895E+03 -3.04704E+02 -2.48377E+03  2.67743E+03 -6.06586E+03  2.40291E+03 -1.00693E+04 -1.07348E+03
 -7.00236E+03 -9.69956E+03  1.38883E+02 -1.42433E+04  8.67426E+03 -1.32316E+04  1.42138E+04 -4.03629E+03
  1.42474E+04  6.86737E+03  6.66321E+03  1.25890E+04 -3.22241E+03  1.43754E+04 -1.04456E+04  9.51550E+03
 -1.37769E+04  7.27416E+02 -1.06205E+04 -8.89052E+03 -1.53325E+03 -1.18754E+04  5.89408E+03 -8.64428E+03
  9.51684E+03 -3.23984E+03  6.54172E+03  2.51967E+03  2.07913E+03  4.33541E+03  1.40430E+03  2.31118E+03
  2.39471E+03  1.24399E+03  3.63064E+03  2.09523E+03  3.99804E+03  4.92219E+03  4.20385E+03  8.01931E+03
 -3.09703E+03  1.12268E+04 -1.07827E+04  1.10072E+04 -1.49341E+04  2.85612E+03 -1.50984E+04 -6.37105E+03
 -7.12968E+03 -1.45396E+04  2.19310E+03 -1.65296E+04  8.87491E+03 -1.01033E+04  1.15387E+04 -2.78600E+03
  9.25067E+03  5.50282E+03  2.00557E+03  8.74592E+03 -3.84199E+03  5.69741E+03 -5.72324E+03 -7.99277E+02
 -2.79852E+03 -6.29181E+03  3.21043E+03 -6.56750E+03  6.26314E+03 -3.01281E+03  5.64986E+03  1.61086E+03
  3.43371E+03  2.91443E+03  1.61602E+03  2.67365E+03 -2.50345E+02  1.86233E+03  1.60035E+03 -6.40677E+02
  2.28604E+03 -6.65279E+02  5.77276E+03  2.47613E+03  3.13502E+03  7.67844E+03 -1.23480E+03  1.04003E+04
 -7.06543E+03  6.67520E+03 -9.48549E+03  1.92471E+03 -8.53778E+03 -3.65271E+03 -3.29520E+03 -6.11055E+03
  1.26714E+03 -5.84517E+03  3.68678E+03 -2.70793E+03  3.11155E+03  2.75336E+03 -1.35733E+03  4.52243E+03
 -6.12241E+03  2.48123E+03 -6.60157E+03 -3.69774E+03 -3.95803E+03 -8.17931E+03  1.19441E+03 -8.11751E+03
  4.48407E+03 -4.93328E+03  6.03448E+03 -5.83919E+02  4.64416E+03  1.72688E+03  5.70257E+02  4.07556E+03
 -2.60127E+03  1.04002E+03 -3.85651E+03 -3.17059E+03  1.32083E+03 -6.13195E+03  7.32763E+03 -5.15191E+03
  9.34167E+03  8.36014E+02  9.58548E+03  6.36077E+03  2.87550E+03  1.00357E+04 -3.20443E+03  9.84051E+03
 -8.30934E+03  3.59146E+03 -7.87146E+03 -1.27023E+03 -4.45054E+03 -6.60652E+03  1.74309E+03 -5.71199E+03
  6.06582E+03 -2.97398E+03  4.79866E+03  2.70770E+03  1.85296E+03  5.45299E+03 -6.30830E+02  4.65867E+03
 -2.00754E+03  3.11247E+03 -2.42993E+03  1.13610E+03 -8.71830E+02  1.14701E+03 -1.28156E+03  1.76952E+03
 -2.76462E+03  3.91707E+03 -6.63136E+03  3.32910E+03 -1.00362E+04  2.05559E+02 -1.08157E+04 -6.39037E+03
 -5.37055E+03 -1.28337E+04  2.76123E+03 -1.50112E+04  9.05442E+03 -1.15407E+04  1.41497E+04 -4.50873E+03
  1.30801E+04  2.57245E+03  8.20361E+03  8.91545E+03  9.04928E+02  1.05829E+04 -4.21741E+03  7.31985E+03
 -5.69795E+03  2.79537E+03 -3.66964E+03 -1.59642E+03 -1.37128E+03 -6.10271E+02 -7.21765E+02 -2.15081E+01
 -2.03151E+03  3.10864E+02 -2.25261E+03 -2.77553E+02 -4.55280E+02 -2.37348E+03  2.46499E+01 -3.70060E+03
  4.54755E+03 -2.85832E+03  6.09637E+03 -1.53087E+02  7.12541E+03  5.78713E+03  2.17719E+03  9.72959E+03
 -4.89157E+03  1.13270E+04 -1.06385E+04  6.54505E+03 -1.22688E+04 -9.43294E+02 -9.58810E+03 -7.87967E+03
 -3.94892E+03 -1.06597E+04  2.97156E+03 -9.22443E+03  6.18688E+03 -5.33502E+03  6.73480E+03  7.02639E+01
  3.76272E+03  2.95990E+03 -1.94043E+02  2.70224E+03 -2.06082E+03  4.17661E+01 -2.24861E+02 -2.52929E+03
  3.29180E+03 -1.44386E+03  3.99434E+03  1.24363E+03  2.75718E+03  4.26247E+03  4.54171E+02  5.31959E+03
 -4.63610E+03  5.12016E+03 -6.95868E+03  3.68132E+02 -6.02314E+03 -4.69337E+03 -8.12261E+02 -8.31466E+03
  5.06093E+03 -6.88978E+03  7.41019E+03 -2.14267E+03  7.83381E+03  1.62481E+03  4.39608E+03  6.27012E+03
  6.84892E+02  6.85824E+03 -2.59155E+03  5.21729E+03 -4.57301E+03  3.19546E+03 -3.42494E+03  6.71705E+02
 -2.15765E+03 -1.74436E+02 -1.97728E+03  9.39974E+02 -3.89694E+03  1.03362E+03 -4.93746E+03 -1.26584E+03
 -4.93952E+03 -3.55392E+03 -1.62326E+03 -7.04496E+03  3.10216E+03 -7.59912E+03  5.80815E+03 -3.55611E+03
  6.78603E+03  1.22160E+03  3.54220E+03  4.79871E+03 -6.22953E+02  6.98813E+03 -5.28984E+03  4.64632E+03
