 $NMID ID='MM_0lb_SNR800_13hz_g60_47.RAW', FMTDAT='(8E13.5)'
 TRAMP=1., VOLUME=1. $END
  3.09550E+05  4.84284E+02  3.37512E+05  2.50864E+05  8.47450E+04  3.38017E+05 -1.32612E+05  2.51573E+05
 -1.90501E+05  8.36974E+04 -1.12480E+05 -3.23995E+04  4.94318E+02 -5.04916E+04  5.38181E+04 -7.68022E+01
  3.53704E+04  5.25072E+04 -1.68743E+04  7.56591E+04 -6.08116E+04  6.42429E+04 -8.49591E+04  3.19779E+04
 -8.17929E+04 -1.14386E+04 -5.76216E+04 -5.21534E+04 -1.49335E+04 -7.04743E+04  2.82827E+04 -4.64252E+04
  4.06917E+04  3.69515E+03  1.65842E+04  4.80858E+04 -3.44598E+04  4.78655E+04 -6.78399E+04  1.53393E+02
 -5.43023E+04 -5.72406E+04 -7.07867E+03 -7.81894E+04  3.43158E+04 -5.61744E+04  4.88986E+04 -1.79626E+04
  4.44849E+04  1.14161E+04  3.26417E+04  2.59824E+04  1.58300E+04  3.00071E+04 -5.63991E+03  2.73637E+04
 -2.20484E+04  1.23594E+04 -1.81746E+04 -5.38114E+03  6.78895E+03 -7.20663E+03  2.30571E+04  1.30750E+04
  6.88267E+03  3.63259E+04 -3.32013E+04  3.62175E+04 -6.49641E+04  2.16305E+03 -5.81489E+04 -4.40015E+04
 -1.28163E+04 -6.47110E+04  4.08423E+04 -4.64744E+04  5.98252E+04 -2.44968E+03  3.56179E+04  3.33224E+04
 -5.70045E+03  3.78242E+04 -3.11477E+04  1.76704E+04 -3.20647E+04 -3.60416E+03 -1.77964E+04 -1.13432E+04
 -8.62799E+03 -1.40834E+04 -6.75983E+02 -1.88732E+04  8.08510E+03 -2.32081E+04  1.58646E+04 -1.29634E+04
  1.09993E+04  5.59975E+03 -9.56143E+03  1.29784E+04 -2.22281E+04 -5.56204E+03 -8.45203E+03 -3.56307E+04
  2.37658E+04 -4.51571E+04  4.99970E+04 -2.05015E+04  4.71075E+04  2.00511E+04  1.68964E+04  4.54215E+04
 -1.62919E+04  3.47567E+04 -2.64923E+04  2.46954E+03 -1.09253E+04 -2.87040E+04  2.13403E+04 -3.57265E+04
  4.31558E+04 -9.76971E+03  3.80558E+04  2.42754E+04  1.99852E+04  4.87849E+04 -8.07794E+03  5.32812E+04
 -3.37072E+04  3.62933E+04 -4.50086E+04  1.02500E+04 -4.55280E+04 -1.73475E+04 -2.48587E+04 -4.01199E+04
  7.53836E+03 -4.04504E+04  3.29742E+04 -1.55642E+04  3.10813E+04  1.10323E+04  4.61540E+03  2.03307E+04
 -1.38044E+04  9.11096E+03 -1.09081E+04 -7.39012E+03  5.89967E+03 -1.09762E+04  1.85608E+04  5.62002E+03
  1.39210E+04  2.22239E+04 -5.29910E+03  2.60914E+04 -2.29407E+04  1.31532E+04 -3.00495E+04 -3.93432E+03
 -2.29692E+04 -1.75714E+04 -9.89935E+03 -2.25923E+04  4.03915E+03 -2.24573E+04  1.77987E+04 -2.05029E+04
  2.87025E+04 -1.35007E+04  3.51133E+04  3.99056E+03  2.55144E+04  2.22275E+04  4.48977E+03  3.85573E+04
 -1.85908E+04  3.21467E+04 -2.90610E+04  1.12987E+04 -2.16250E+04 -1.04039E+04 -4.68526E+03 -1.33590E+04
  9.83530E+02 -1.88234E+03 -6.13791E+03  7.46139E+03 -1.83328E+04  4.99490E+03 -1.80936E+04 -8.52383E+03
 -1.11235E+04 -2.08519E+04  5.68677E+03 -2.51945E+04  1.68503E+04 -1.78726E+04  2.03972E+04 -1.65885E+03
  1.27117E+04  1.44457E+04 -1.20100E+03  2.08607E+04 -1.44944E+04  1.19872E+04 -2.09809E+04 -4.61978E+03
 -1.56041E+04 -1.88160E+04 -1.97161E+03 -2.52935E+04  1.12423E+04 -2.07272E+04  2.04998E+04 -1.08298E+04
  1.97816E+04  5.11539E+01  1.40971E+04  4.36002E+03  7.52758E+03  9.75144E+02  1.04465E+04 -1.89770E+03
  1.93964E+04  2.66391E+03  2.18591E+04  1.64866E+04  1.47456E+04  3.35318E+04 -2.56996E+03  3.86706E+04
 -2.23413E+04  3.13661E+04 -3.57684E+04  1.60859E+04 -3.81123E+04 -2.98558E+03 -3.12998E+04 -2.23247E+04
 -1.31819E+04 -3.15336E+04  1.12516E+04 -2.82029E+04  2.41760E+04 -1.40197E+04  2.16796E+04  6.33306E+03
  7.40753E+03  1.64341E+04 -1.05676E+04  1.35954E+04 -1.77949E+04  2.49953E+03 -1.35383E+04 -1.12530E+04
 -1.61709E+02 -1.73304E+04  9.40826E+03 -1.25722E+04  1.12070E+04 -1.39826E+03  2.92593E+03  7.31899E+03
 -7.50172E+03  3.05893E+03 -7.05644E+03 -6.16168E+03 -1.03240E+03 -1.52693E+04  1.05780E+04 -1.65508E+04
  1.91062E+04 -9.06701E+03  2.12668E+04  3.24483E+03  1.82433E+04  1.53495E+04  8.75315E+03  2.35862E+04
 -4.29406E+03  2.55237E+04 -1.67273E+04  1.61846E+04 -1.86049E+04  3.70406E+03 -1.28833E+04 -4.42325E+03
 -5.98210E+03 -5.33673E+03 -6.19759E+02  1.26503E+03 -2.60154E+03  2.91123E+03 -6.13430E+03  4.30318E+03
 -1.21106E+04 -9.53318E+02 -1.25666E+04 -9.89956E+03 -5.16391E+03 -1.63963E+04  5.32756E+03 -1.30554E+04
  1.06546E+04 -5.54437E+03  7.81492E+03  3.73459E+03  1.71788E+02  5.05800E+03 -6.14134E+03 -2.64722E+02
 -6.25556E+03 -8.18926E+03 -8.60675E+02 -1.25347E+04  7.25442E+03 -1.31526E+04  1.64850E+04 -7.07019E+03
  1.92816E+04  1.82450E+03  1.38108E+04  1.16134E+04  2.20981E+03  1.50598E+04 -8.30500E+03  1.26175E+04
 -1.03142E+04  4.37295E+03 -5.29167E+03 -2.59612E+03  1.89828E+03 -3.17790E+03  6.97193E+03 -9.75164E+02
  5.91354E+03  5.36027E+03  1.39384E+03  1.02971E+04 -6.98804E+03  9.85952E+03 -1.24930E+04  2.49399E+03
 -8.87330E+03 -6.22490E+03  1.28912E+02 -1.09399E+04  6.74607E+03 -5.40272E+03  6.79949E+03  2.14442E+03
  1.62549E+03  7.51237E+03 -6.47240E+03  9.11209E+03 -9.92850E+03  3.65109E+03 -1.03220E+04 -3.45534E+03
 -5.79038E+03 -1.17272E+04  2.85890E+03 -1.38514E+04  1.15380E+04 -8.22873E+03  1.26995E+04  2.02538E+03
  7.55078E+03  1.02459E+04 -9.07469E+02  1.21313E+04 -8.97797E+03  6.95110E+03 -9.60405E+03 -6.99373E+02
 -8.86357E+03 -8.06890E+03 -1.66654E+03 -9.21073E+03  4.86145E+03 -7.46037E+03  5.57677E+03 -3.37056E+03
  4.01604E+03  1.43740E+03 -6.28170E+02  1.77445E+03 -3.42136E+02 -2.09975E+03  1.40796E+03 -4.87078E+03
  8.15634E+03 -3.09188E+03  1.15823E+04  1.15305E+03  1.16925E+04  7.66393E+03  8.22355E+03  1.52874E+04
 -3.28006E+03  1.74537E+04 -1.46616E+04  1.29597E+04 -1.92388E+04  2.71808E+03 -1.47830E+04 -6.37302E+03
 -7.98102E+03 -1.22630E+04 -3.24688E+02 -1.03400E+04  3.85264E+03 -5.76231E+03  3.30715E+03 -3.87691E+03
  3.02092E+03 -2.35135E+03  3.36972E+03 -3.14601E+03  4.66949E+03 -2.28202E+03  6.13737E+03 -2.56135E+02
  8.07342E+03  1.75950E+03  3.65115E+03  6.77961E+03 -1.92973E+03  7.45998E+03 -8.42451E+03  6.05362E+03
 -1.03426E+04 -1.24933E+03 -6.03087E+03 -7.34365E+03 -8.72079E+02 -1.10408E+04  6.29672E+03 -1.13034E+04
  1.11869E+04 -6.20813E+03  1.38223E+04  1.49937E+03  9.08626E+03  9.79926E+03  1.50320E+03  1.25099E+04
 -4.57123E+03  1.04094E+04 -6.93325E+03  3.61184E+03 -4.49105E+03 -1.25783E+03 -1.86773E+03 -1.42852E+03
 -7.24217E+02 -2.01862E+01 -1.72809E+03  2.34236E+03 -4.78892E+03  1.55065E+03 -7.37395E+03 -8.81971E+02
 -4.74227E+03 -7.16228E+03  5.33754E+02 -1.00876E+04  6.59080E+03 -9.24448E+03  9.78175E+03 -2.33044E+03
  9.62645E+03  5.01020E+03  4.48426E+03  8.73123E+03 -1.85725E+03  1.02019E+04 -7.07939E+03  6.40119E+03
 -9.21537E+03  5.97505E+02 -7.41822E+03 -5.90796E+03 -7.02510E+02 -8.30581E+03  3.77937E+03 -5.86653E+03
  6.37210E+03 -2.14436E+03  4.13930E+03  1.43872E+03  1.31851E+03  2.85572E+03  1.02982E+03  1.23942E+03
  2.07626E+03  8.99976E+02  2.26892E+03  1.79182E+03  2.77034E+03  3.57644E+03  2.73655E+03  4.78753E+03
 -2.13370E+03  7.09723E+03 -6.40022E+03  8.17185E+03 -9.57760E+03  2.04294E+03 -1.02409E+04 -3.42640E+03
 -4.54234E+03 -9.44480E+03  1.35887E+03 -1.05679E+04  6.01404E+03 -6.93694E+03  7.61653E+03 -1.93876E+03
  6.24686E+03  3.74722E+03  1.19286E+03  5.65128E+03 -2.72428E+03  3.28356E+03 -3.52803E+03 -4.27476E+02
 -1.90879E+03 -3.73552E+03  2.75726E+03 -3.86226E+03  3.79905E+03 -2.34788E+03  3.55376E+03  1.01878E+03
  2.25193E+03  1.81911E+03  1.40509E+03  1.35389E+03 -8.88435E+02  1.41486E+03  1.87283E+03 -6.14864E+02
  1.17710E+03 -3.86341E+02  3.97043E+03  1.53224E+03  1.69568E+03  4.96154E+03 -6.51070E+02  6.71595E+03
 -4.31523E+03  4.02378E+03 -5.67325E+03  9.57161E+02 -5.14364E+03 -2.21522E+03 -1.66582E+03 -3.65126E+03
  7.56266E+02 -3.65472E+03  2.29649E+03 -1.35115E+03  1.86833E+03  1.87603E+03 -8.99657E+02  2.99291E+03
 -3.61054E+03  1.71809E+03 -3.89638E+03 -2.48411E+03 -2.19822E+03 -4.90431E+03  9.81672E+02 -4.50006E+03
  2.53445E+03 -2.57516E+03  3.32632E+03  2.44576E+02  3.20793E+03  8.69915E+02  4.43512E+02  2.80644E+03
 -1.64708E+03  8.16788E+02 -2.11707E+03 -1.69976E+03  6.90356E+02 -3.44851E+03  4.41653E+03 -2.84917E+03
  5.09421E+03  3.46381E+02  5.90956E+03  3.14226E+03  1.90622E+03  5.69008E+03 -1.69971E+03  5.59683E+03
 -4.36956E+03  2.25552E+03 -4.50780E+03 -6.05906E+02 -2.54478E+03 -3.91972E+03  7.82545E+02 -2.79902E+03
  3.70106E+03 -1.64446E+03  2.45565E+03  1.83578E+03  7.40575E+02  3.25950E+03 -3.34649E+02  2.65915E+03
 -1.52917E+03  2.18372E+03 -1.52718E+03  6.76404E+02 -4.24815E+02  8.44549E+02 -1.29399E+03  8.45282E+02
 -1.22589E+03  2.04723E+03 -4.19968E+03  1.57774E+03 -5.35211E+03  1.69215E+02 -5.91509E+03 -3.33135E+03
 -3.24398E+03 -7.36190E+03  1.69526E+03 -8.35701E+03  4.73830E+03 -6.50128E+03  7.54104E+03 -2.61151E+03
  7.20185E+03  1.27892E+03  4.45243E+03  4.80003E+03  3.82394E+02  5.35508E+03 -2.31483E+03  3.97679E+03
 -2.96325E+03  1.66752E+03 -1.82091E+03 -7.06912E+02 -1.13640E+03 -8.40706E+01 -6.53717E+02 -1.03326E+02
 -1.14164E+03  3.03965E+02 -1.58325E+03 -9.26860E-01  3.66121E+01 -1.02747E+03 -2.59703E+02 -2.17006E+03
  3.00883E+03 -1.54493E+03  2.93623E+03 -2.02282E+02  3.64209E+03  3.23462E+03  3.76074E+02  4.92931E+03
 -2.34205E+03  6.13046E+03 -5.39513E+03  3.47521E+03 -6.16413E+03 -9.12512E+02 -4.42263E+03 -3.89542E+03
 -2.30534E+03 -5.29133E+03  1.29057E+03 -4.56921E+03  2.84991E+03 -2.26273E+03  2.93311E+03  2.25923E+02
  2.03857E+03  1.35560E+03 -3.20209E+02  1.16525E+03 -9.52367E+02 -1.04784E+02  2.15571E+02 -9.36052E+02
  1.74967E+03 -4.81634E+02  1.64350E+03  7.36824E+02  1.42850E+03  1.97418E+03  3.32758E+02  1.98119E+03
 -2.04606E+03  2.07392E+03 -3.08377E+03  6.73511E+02 -2.87082E+03 -2.06421E+03 -2.98185E+02 -3.94939E+03
  2.22357E+03 -3.08107E+03  3.44473E+03 -1.00397E+03  3.51582E+03  5.03735E+01  2.39733E+03  2.86514E+03
  8.17558E+02  2.98257E+03 -1.52822E+03  2.65309E+03 -2.13936E+03  1.69148E+03 -1.57804E+03  3.81778E+02
 -4.85095E+02 -1.23273E+01 -6.99075E+02  4.78745E+02 -1.76394E+03  4.12183E+02 -2.41476E+03 -4.79895E+02
 -2.47435E+03 -1.04245E+03 -8.00912E+02 -3.04400E+03  9.28750E+02 -3.51137E+03  2.83720E+03 -1.56016E+03
  3.01732E+03  5.44811E+02  1.10152E+03  1.94278E+03 -3.98469E+01  3.29986E+03 -2.00485E+03  2.23394E+03
