 $NMID ID='MM_0lb_SNR800_20hz_g40_5.RAW', FMTDAT='(8E13.5)'
 TRAMP=1., VOLUME=1. $END
  3.09831E+05  6.83512E+02  3.37112E+05  2.50267E+05  8.44927E+04  3.37073E+05 -1.32375E+05  2.49901E+05
 -1.89115E+05  8.21300E+04 -1.10489E+05 -3.27969E+04  1.89109E+03 -5.01913E+04  5.38082E+04  9.29773E+01
  3.49886E+04  5.27423E+04 -1.69839E+04  7.46298E+04 -6.01819E+04  6.19245E+04 -8.22799E+04  3.12204E+04
 -7.87641E+04 -1.09166E+04 -5.56215E+04 -4.93746E+04 -1.48061E+04 -6.72507E+04  2.64972E+04 -4.44892E+04
  3.85876E+04  3.93582E+03  1.52991E+04  4.67168E+04 -3.37851E+04  4.57489E+04 -6.47328E+04 -7.27893E+02
 -5.11509E+04 -5.56847E+04 -5.65820E+03 -7.41179E+04  3.29061E+04 -5.22570E+04  4.52826E+04 -1.58245E+04
  4.06552E+04  1.08611E+04  3.01077E+04  2.37299E+04  1.56985E+04  2.76280E+04 -4.25222E+03  2.64677E+04
 -2.13065E+04  1.27902E+04 -1.94331E+04 -3.85686E+03  3.53135E+03 -7.87407E+03  2.05794E+04  1.03056E+04
  7.45311E+03  3.21707E+04 -2.94552E+04  3.33667E+04 -5.97967E+04  2.32978E+03 -5.44499E+04 -4.05175E+04
 -1.23995E+04 -5.94493E+04  3.70015E+04 -4.22449E+04  5.39429E+04 -1.89020E+03  3.06267E+04  2.95812E+04
 -6.77130E+03  3.16812E+04 -2.74759E+04  1.20071E+04 -2.62680E+04 -5.75062E+03 -1.30983E+04 -9.66754E+03
 -6.71889E+03 -1.04367E+04 -1.00375E+03 -1.59771E+04  6.25832E+03 -2.24708E+04  1.48541E+04 -1.45286E+04
  1.27297E+04  3.77717E+03 -5.16329E+03  1.30616E+04 -1.82044E+04 -1.68907E+03 -8.05558E+03 -2.87158E+04
  2.00311E+04 -3.89399E+04  4.32710E+04 -1.79860E+04  4.05840E+04  1.76815E+04  1.35382E+04  4.03153E+04
 -1.49475E+04  2.98306E+04 -2.25027E+04  8.15879E+02 -7.31385E+03 -2.56750E+04  2.03015E+04 -3.00621E+04
  3.66726E+04 -6.66728E+03  2.93533E+04  2.23775E+04  1.38962E+04  4.03995E+04 -7.75513E+03  4.27502E+04
 -2.69671E+04  2.81318E+04 -3.52025E+04  7.92713E+03 -3.63399E+04 -1.42095E+04 -2.02399E+04 -3.28273E+04
  6.75703E+03 -3.26088E+04  2.80599E+04 -1.19323E+04  2.59079E+04  1.04807E+04  2.50546E+03  1.70559E+04
 -1.28216E+04  6.96430E+03 -9.26166E+03 -7.48024E+03  6.13422E+03 -9.83296E+03  1.66710E+04  6.75719E+03
  1.19223E+04  2.10838E+04 -6.91909E+03  2.26273E+04 -2.08838E+04  7.97983E+03 -2.37115E+04 -6.94420E+03
 -1.49403E+04 -1.60061E+04 -4.39825E+03 -1.51397E+04  3.49795E+03 -1.25254E+04  1.11163E+04 -1.25806E+04
  1.92083E+04 -1.09903E+04  2.59579E+04  5.36342E+02  2.01511E+04  1.49747E+04  4.04043E+03  3.07212E+04
 -1.53361E+04  2.62657E+04 -2.48604E+04  8.87781E+03 -1.90622E+04 -1.03610E+04 -3.83138E+03 -1.42341E+04
  3.20025E+03 -4.78248E+03 -1.77630E+03  4.68098E+03 -1.13149E+04  5.38080E+03 -1.22392E+04 -4.15767E+03
 -7.91581E+03 -1.41063E+04  4.25475E+03 -1.74940E+04  1.13723E+04 -1.29336E+04  1.30045E+04 -1.32228E+03
  7.89246E+03  9.74343E+03 -6.17482E+02  1.43948E+04 -9.37605E+03  7.67396E+03 -1.40707E+04 -3.08287E+03
 -1.04147E+04 -1.30201E+04 -1.06642E+03 -1.72670E+04  7.78480E+03 -1.38161E+04  1.49226E+04 -6.46857E+03
  1.31308E+04  1.06218E+03  9.87581E+03  3.58526E+03  4.84246E+03  3.23091E+02  6.92326E+03 -1.11382E+03
  1.24092E+04  2.84961E+03  1.28126E+04  1.15161E+04  7.55370E+03  2.22251E+04 -3.33090E+03  2.33501E+04
 -1.40554E+04  1.73841E+04 -2.16027E+04  7.93908E+03 -2.18454E+04 -1.62592E+03 -1.89999E+04 -1.23906E+04
 -9.36722E+03 -1.76351E+04  5.58612E+03 -1.68101E+04  1.45860E+04 -1.01132E+04  1.44011E+04  3.05108E+03
  6.21521E+03  9.85116E+03 -6.23190E+03  9.22435E+03 -1.22702E+04  2.58716E+03 -9.70560E+03 -7.19293E+03
 -8.96128E+01 -1.11473E+04  5.19087E+03 -8.87134E+03  7.19720E+03 -1.52584E+03  1.05734E+03  4.67168E+03
 -5.17053E+03  1.01487E+03 -2.64891E+03 -4.48714E+03  1.46740E+03 -8.86977E+03  7.05098E+03 -8.46843E+03
  1.06516E+04 -3.82356E+03  1.00415E+04  2.59327E+03  8.40945E+03  7.89447E+03  4.39365E+03  1.18815E+04
 -9.32379E+02  1.36309E+04 -7.67772E+03  8.95442E+03 -9.30623E+03  2.84670E+03 -7.33945E+03 -1.09965E+03
 -4.16146E+03 -2.69790E+03 -1.12293E+03  1.53236E+03 -1.87232E+03  1.72236E+03 -3.24486E+03  3.24092E+03
 -7.00050E+03 -3.41935E+02 -7.66768E+03 -6.43016E+03 -3.18385E+03 -1.02675E+04  3.20690E+03 -7.44913E+03
  6.31404E+03 -3.34967E+03  4.79883E+03  1.64961E+03  8.42314E+02  2.41305E+03 -2.89322E+03 -1.07979E+01
 -2.70576E+03 -4.56530E+03 -5.92303E+02 -6.13651E+03  3.06312E+03 -6.65551E+03  8.46216E+03 -3.41049E+03
  1.00568E+04  2.68691E+02  7.65855E+03  4.90686E+03  1.52372E+03  7.08203E+03 -4.55583E+03  7.42071E+03
 -6.22703E+03  2.35325E+03 -3.07169E+03 -8.83854E+02  1.23319E+03 -1.54410E+03  4.53670E+03 -1.22416E+03
  3.65829E+03  2.96980E+03  1.12017E+03  5.53292E+03 -3.96585E+03  5.67726E+03 -6.96837E+03  1.77823E+03
 -4.23571E+03 -2.95689E+03  2.60629E+02 -5.64139E+03  2.92820E+03 -2.89054E+03  2.91317E+03  7.49916E+02
  2.45097E+02  2.24120E+03 -3.54112E+03  3.97986E+03 -3.59125E+03  1.91881E+03 -3.20771E+03 -7.92267E+02
 -2.21376E+03 -4.83527E+03  1.03182E+03 -5.64744E+03  4.86784E+03 -3.92327E+03  5.42577E+03  5.40194E+02
  3.89432E+03  4.28103E+03  2.56627E+02  6.23152E+03 -4.25637E+03  3.74243E+03 -4.54485E+03 -2.86354E+02
 -5.06646E+03 -4.61186E+03 -1.51220E+03 -4.06254E+03  2.01822E+03 -4.24691E+03  2.21092E+03 -2.62934E+03
  2.69736E+03  4.39661E+01  2.48814E+02  1.28462E+03  9.19043E+02  1.23658E+02 -4.58778E+02 -1.26684E+03
  3.00821E+03 -1.35437E+02  4.09328E+03  7.36521E+02  4.22229E+03  2.06430E+03  4.73086E+03  5.45381E+03
 -1.12842E+03  6.71808E+03 -6.43411E+03  5.18012E+03 -7.92480E+03  9.72330E+02 -6.25766E+03 -1.67018E+03
 -3.58350E+03 -5.39709E+03 -4.44214E+02 -3.99289E+03  1.70415E+03 -1.32598E+03  1.38498E+03 -1.67239E+03
  1.06251E+03 -1.33268E+03  1.90839E+03 -2.02543E+03  3.09502E+03 -9.34067E+02  3.20562E+03  4.85438E+02
  3.87367E+03  1.07589E+03  7.49665E+02  2.69234E+03 -1.38733E+03  1.93981E+03 -3.59466E+03  1.71809E+03
 -3.64356E+03 -1.02151E+03 -9.27920E+02 -2.73713E+03  5.78847E+02 -3.98389E+03  2.65520E+03 -4.19224E+03
  3.99806E+03 -2.57052E+03  5.74266E+03  1.31931E+02  4.13427E+03  3.27220E+03  1.03376E+03  4.80613E+03
 -1.73883E+03  5.02172E+03 -2.72796E+03  1.71518E+03 -1.61832E+03 -6.76858E+02  4.38400E+01 -4.01304E+02
 -3.08809E+02  2.90387E+02 -8.08677E+02  1.61656E+03 -2.11684E+03  9.47382E+02 -3.59148E+03 -2.14680E+02
 -9.40854E+02 -3.60978E+03  1.01848E+03 -3.79665E+03  2.35950E+03 -3.47032E+03  2.39084E+03 -9.27511E+02
  3.22223E+03  1.83031E+03  1.20656E+03  2.45252E+03 -7.81421E+02  3.40011E+03 -2.12346E+03  1.99344E+03
 -2.55956E+03  5.41641E+02 -2.87761E+03 -2.03484E+03 -1.88693E+01 -2.32486E+03  1.16707E+03 -1.94708E+03
  2.15765E+03 -1.30204E+03  1.05665E+03  2.91902E+02  4.47151E+02  1.36132E+03  1.04112E+03  1.93087E+02
  1.44540E+03  4.56925E+02  1.10418E+03  8.15256E+02  8.74777E+02  1.47210E+03  1.02079E+03  1.21897E+03
 -1.31220E+03  2.27187E+03 -1.69689E+03  3.51876E+03 -1.81108E+03  1.22716E+03 -3.29100E+03  9.12265E+01
 -1.07792E+03 -2.63778E+03  3.75292E+02 -3.84258E+03  1.47042E+03 -1.88939E+03  2.25886E+03 -8.75564E+02
  1.87282E+03  1.70149E+03  3.10350E+02  1.47465E+03 -6.22208E+02  9.40909E+02 -8.01875E+02  4.12040E+01
 -3.33853E+02 -1.21781E+03  7.59076E+02 -9.64861E+02  1.03769E+03 -4.54565E+02  6.29826E+02  4.44846E+02
  4.22311E+02 -2.49571E+01  6.38116E+02 -2.38996E+02 -5.97149E+02  5.06792E+02  1.64060E+03 -7.85493E+01
 -1.99108E+02 -1.67567E+02  1.69253E+03  5.15283E+02  1.27298E+02  1.78377E+03 -1.83805E+02  2.02472E+03
 -1.28096E+03  8.21687E+02 -1.58975E+03  2.06390E+02 -1.51060E+03 -8.66659E+02  4.23550E+01 -6.01735E+02
  2.82505E+02 -9.00226E+02  8.11585E+02 -3.61533E+02  6.30359E+02  1.14900E+03 -5.82890E+02  1.06575E+03
 -8.80377E+02  4.29240E+02 -7.69881E+02 -1.11215E+03 -4.45024E+02 -1.65772E+03  1.45130E+02 -1.10870E+03
  2.03052E+02 -2.98516E+02  3.32334E+02 -1.18470E+01  1.12998E+03 -2.14093E+02  3.77536E+02  9.05367E+02
 -1.60578E+02  2.61725E+02 -9.83792E+02  3.33420E+01  6.38930E+02 -6.69821E+02  1.28783E+03 -5.13169E+02
  7.67246E+02  5.19026E+02  2.25249E+03  2.61488E+02  8.63708E+02  1.16093E+03 -6.86215E+01  1.33665E+03
 -8.45277E+02  1.16226E+02 -1.21318E+03 -2.19031E+02 -3.33821E+02 -1.22458E+03  3.27499E+02 -2.92427E+02
  1.08389E+03 -5.50271E+02  4.53419E+02  8.68725E+02  1.06002E+02  1.03118E+03  6.10023E+02  1.02495E+03
 -2.53936E+02  1.04307E+03 -2.11963E+02  2.04480E+02  5.59044E+01  2.88583E+02 -7.08300E+02  3.88293E+02
 -3.52821E+02  1.01539E+03 -1.51057E+03  4.96994E+02 -1.20598E+03  1.73599E+02 -2.12877E+03 -7.22147E+02
 -8.72036E+02 -1.77843E+03  3.72233E+02 -2.06368E+03  7.73863E+02 -2.08419E+03  2.06053E+03 -9.30662E+02
  1.92168E+03 -2.84539E+02  6.09686E+02  1.17298E+03 -6.24680E+02  1.12670E+03 -4.55853E+02  8.56588E+02
 -5.94630E+02  6.56686E+02 -3.08578E+02 -4.33247E+02 -4.53797E+02  3.40268E+02 -6.98098E+02  2.37126E+02
 -1.06508E+03 -1.97011E+02 -9.52648E+02  1.20912E+02  4.35477E+02 -2.55545E+02 -5.08655E+02 -6.41848E+02
  1.22211E+03 -4.86133E+02  2.07871E+02  4.91409E+01  8.44795E+02  6.29180E+02 -4.02969E+02  9.18416E+02
 -7.52146E+02  1.90846E+03 -1.05924E+03  1.06057E+03 -1.28440E+03 -2.07861E+02 -7.70697E+02 -8.48548E+02
 -8.19859E+02 -7.73282E+02  1.25543E+02 -6.86148E+02  2.57432E+02 -4.27133E+02  3.89106E+02 -4.85863E+00
  7.07672E+02  2.58391E+02 -2.11521E+02 -1.55247E+02 -2.35402E+02 -8.67344E+01  4.10761E+01  8.66250E+01
  2.46936E+02  1.00754E+02 -1.74146E+02  3.07434E+02 -4.45113E+01  7.21527E+01  3.52763E+02  1.69662E+02
 -5.23644E+02  3.32749E+02 -7.31701E+01  8.06547E+01 -4.80909E+02 -4.54526E+02  3.24160E+01 -9.39964E+02
  4.68311E+02 -3.60576E+02  2.67040E+02  1.01083E+02  4.58030E+02 -4.74612E+02  2.05591E+02  5.64208E+02
  4.57984E+02  3.90841E+02 -6.29333E-01  4.02850E+02 -6.24307E+02  2.90892E+02 -3.25838E+02  9.12369E+01
 -1.01471E+01 -1.05481E+02 -4.05858E+02  1.44255E+02 -5.19652E+02  2.41636E+01 -8.24859E+02 -1.23837E+02
 -8.85523E+02  4.17268E+02 -3.66293E+02 -5.45846E+02  4.03345E+02 -1.17490E+03  4.14360E+02 -1.87956E+02
  7.39295E+02 -1.15360E+02 -3.80952E+02 -1.31565E+02 -1.83454E+02  7.08540E+02  1.24598E+01  4.17402E+02
