 $NMID ID='MM_0lb_SNR800_8hz_g60_66.RAW', FMTDAT='(8E13.5)'
 TRAMP=1., VOLUME=1. $END
  3.09929E+05  3.89101E+02  3.38059E+05  2.50416E+05  8.54707E+04  3.39310E+05 -1.32748E+05  2.52112E+05
 -1.91087E+05  8.38088E+04 -1.13061E+05 -3.19263E+04 -7.48390E+01 -5.06387E+04  5.36386E+04 -4.51740E+02
  3.62739E+04  5.32866E+04 -1.66694E+04  7.56830E+04 -6.19886E+04  6.48587E+04 -8.55829E+04  3.26088E+04
 -8.29866E+04 -1.18868E+04 -5.81979E+04 -5.31938E+04 -1.50289E+04 -7.12487E+04  2.82165E+04 -4.73034E+04
  4.13875E+04  3.26662E+03  1.68225E+04  4.89454E+04 -3.48018E+04  4.82437E+04 -6.87321E+04  1.96252E+02
 -5.51154E+04 -5.80783E+04 -7.88076E+03 -8.00735E+04  3.52766E+04 -5.77411E+04  5.06705E+04 -1.84875E+04
  4.61720E+04  1.10753E+04  3.31586E+04  2.72381E+04  1.58212E+04  3.11091E+04 -6.08948E+03  2.75614E+04
 -2.26819E+04  1.14268E+04 -1.82152E+04 -6.48457E+03  7.72730E+03 -7.50032E+03  2.42049E+04  1.44979E+04
  6.68414E+03  3.82519E+04 -3.42256E+04  3.78951E+04 -6.66471E+04  2.01099E+03 -5.94105E+04 -4.52157E+04
 -1.26122E+04 -6.67608E+04  4.23618E+04 -4.85122E+04  6.22281E+04 -2.43335E+03  3.78814E+04  3.51043E+04
 -5.68680E+03  4.05656E+04 -3.30060E+04  2.03345E+04 -3.47806E+04 -2.90584E+03 -2.03156E+04 -1.21232E+04
 -9.92908E+03 -1.59401E+04 -5.27437E+02 -2.02722E+04  9.02152E+03 -2.34552E+04  1.60767E+04 -1.25194E+04
  9.99594E+03  6.59413E+03 -1.12185E+04  1.32182E+04 -2.43691E+04 -7.94047E+03 -9.10803E+03 -3.91636E+04
  2.65069E+04 -4.82930E+04  5.35175E+04 -2.10416E+04  4.99679E+04  2.13499E+04  1.79518E+04  4.83752E+04
 -1.71853E+04  3.72864E+04 -2.85716E+04  2.71294E+03 -1.23707E+04 -3.04615E+04  2.18723E+04 -3.86386E+04
  4.61295E+04 -1.14653E+04  4.24450E+04  2.56450E+04  2.28285E+04  5.27584E+04 -8.47973E+03  5.80470E+04
 -3.70943E+04  4.02445E+04 -4.96094E+04  1.15750E+04 -4.94811E+04 -1.92798E+04 -2.73051E+04 -4.38189E+04
  7.93919E+03 -4.41895E+04  3.50876E+04 -1.78631E+04  3.30828E+04  1.14530E+04  5.68939E+03  2.17638E+04
 -1.40901E+04  1.02227E+04 -1.15994E+04 -7.37861E+03  5.99612E+03 -1.16859E+04  1.92063E+04  5.30034E+03
  1.60163E+04  2.31580E+04 -4.93348E+03  2.82455E+04 -2.34283E+04  1.58592E+04 -3.29929E+04 -2.27940E+03
 -2.73498E+04 -1.92420E+04 -1.27875E+04 -2.66452E+04  4.53187E+03 -2.80319E+04  2.18111E+04 -2.47301E+04
  3.44189E+04 -1.48518E+04  4.02096E+04  5.85364E+03  2.83983E+04  2.63984E+04  4.74278E+03  4.36646E+04
 -2.10708E+04  3.50484E+04 -3.13679E+04  1.25303E+04 -2.32470E+04 -1.01513E+04 -4.91939E+03 -1.29707E+04
  2.30625E+02 -4.83991E+01 -8.64549E+03  9.32923E+03 -2.24543E+04  5.29508E+03 -2.16103E+04 -1.03448E+04
 -1.27910E+04 -2.49122E+04  6.71292E+03 -2.95353E+04  2.02784E+04 -2.10238E+04  2.47749E+04 -2.13624E+03
  1.57013E+04  1.73640E+04 -1.80945E+03  2.51445E+04 -1.80397E+04  1.47297E+04 -2.54964E+04 -5.18563E+03
 -1.88157E+04 -2.25941E+04 -2.37845E+03 -3.03643E+04  1.33037E+04 -2.55465E+04  2.51022E+04 -1.33200E+04
  2.34369E+04 -1.94265E+02  1.69787E+04  5.42112E+03  9.82575E+03  1.93562E+03  1.33764E+04 -2.20514E+03
  2.43720E+04  2.67777E+03  2.80004E+04  1.95029E+04  1.87970E+04  4.07824E+04 -2.63243E+03  4.86591E+04
 -2.75088E+04  4.12764E+04 -4.64067E+04  2.15141E+04 -4.98082E+04 -3.49213E+03 -3.97631E+04 -2.94384E+04
 -1.53571E+04 -4.13208E+04  1.48629E+04 -3.58291E+04  3.06699E+04 -1.66609E+04  2.63509E+04  8.77080E+03
  8.60221E+03  2.03591E+04 -1.25450E+04  1.67891E+04 -2.19221E+04  3.20497E+03 -1.60497E+04 -1.39603E+04
 -5.90282E+02 -2.07470E+04  1.13168E+04 -1.52423E+04  1.47110E+04 -1.63071E+03  4.20946E+03  9.97797E+03
 -9.64961E+03  4.63345E+03 -1.05905E+04 -7.73182E+03 -2.29521E+03 -2.03894E+04  1.28881E+04 -2.23899E+04
  2.60017E+04 -1.28609E+04  2.99718E+04  3.69535E+03  2.63996E+04  2.09622E+04  1.20894E+04  3.26483E+04
 -6.49427E+03  3.50195E+04 -2.31869E+04  2.16783E+04 -2.53370E+04  4.45256E+03 -1.71981E+04 -7.17449E+03
 -7.13116E+03 -8.30764E+03 -4.79586E+02  6.05966E+02 -2.88833E+03  3.43564E+03 -8.23756E+03  6.10545E+03
 -1.61558E+04 -1.04093E+03 -1.65046E+04 -1.28641E+04 -6.78460E+03 -2.10723E+04  6.94406E+03 -1.77638E+04
  1.40605E+04 -7.27147E+03  9.76342E+03  5.00605E+03 -6.10529E+02  7.00732E+03 -8.90574E+03 -7.36720E+01
 -8.11194E+03 -1.14643E+04 -1.14835E+03 -1.80930E+04  9.92632E+03 -1.89164E+04  2.25451E+04 -9.91853E+03
  2.66974E+04  2.67960E+03  1.94088E+04  1.70101E+04  3.57810E+03  2.14293E+04 -1.05693E+04  1.79641E+04
 -1.42995E+04  4.67903E+03 -7.25210E+03 -3.84836E+03  2.08258E+03 -5.19026E+03  9.64871E+03 -1.06624E+03
  8.37445E+03  8.07287E+03  1.39235E+03  1.43835E+04 -1.02555E+04  1.34716E+04 -1.74165E+04  3.13244E+03
 -1.26557E+04 -9.63095E+03 -1.83915E+00 -1.56110E+04  1.02100E+04 -7.45503E+03  1.11917E+04  3.99476E+03
  2.64508E+03  1.14886E+04 -9.48799E+03  1.40053E+04 -1.62805E+04  6.17674E+03 -1.67599E+04 -6.19993E+03
 -9.66968E+03 -1.85605E+04  5.18168E+03 -2.08277E+04  1.82716E+04 -1.22967E+04  2.00301E+04  3.58919E+03
  1.10783E+04  1.53785E+04 -2.16658E+03  1.78072E+04 -1.32388E+04  1.00000E+04 -1.46676E+04 -1.43611E+03
 -1.21097E+04 -1.21537E+04 -1.76865E+03 -1.43552E+04  7.43240E+03 -1.07478E+04  9.07611E+03 -3.85516E+03
  5.83432E+03  2.70586E+03 -1.76351E+03  2.15501E+03 -1.25993E+03 -4.33759E+03  3.41679E+03 -8.71464E+03
  1.37339E+04 -6.19284E+03  1.93834E+04  2.22897E+03  1.86881E+04  1.33204E+04  1.15137E+04  2.48650E+04
 -5.69117E+03  2.83493E+04 -2.37142E+04  2.06271E+04 -3.03281E+04  4.74412E+03 -2.43995E+04 -1.08395E+04
 -1.24073E+04 -1.96657E+04 -7.35131E+02 -1.70466E+04  5.83426E+03 -9.51818E+03  6.54118E+03 -6.04691E+03
  4.63533E+03 -3.59899E+03  4.78811E+03 -4.23421E+03  6.42396E+03 -4.31336E+03  9.11283E+03 -2.03342E+03
  1.23613E+04  3.26406E+03  7.11970E+03  1.11965E+04 -2.24824E+03  1.37363E+04 -1.32046E+04  1.05306E+04
 -1.76264E+04 -1.50329E+03 -1.12974E+04 -1.18907E+04 -1.87597E+03 -1.89340E+04  1.04275E+04 -1.85072E+04
  2.01845E+04 -1.05203E+04  2.30210E+04  3.55912E+03  1.59733E+04  1.66763E+04  2.16895E+03  2.11586E+04
 -9.18944E+03  1.70793E+04 -1.26628E+04  6.04789E+03 -8.64881E+03 -2.19711E+03 -3.65202E+03 -2.92033E+03
 -1.85207E+03 -7.30722E+02 -2.77521E+03  2.78268E+03 -6.87903E+03  2.59727E+03 -1.18227E+04 -1.86428E+03
 -8.83584E+03 -1.20653E+04 -1.84953E+02 -1.75014E+04  1.11674E+04 -1.65138E+04  1.82283E+04 -5.31824E+03
  1.74610E+04  8.65774E+03  8.49622E+03  1.65515E+04 -3.37295E+03  1.77034E+04 -1.28835E+04  1.12671E+04
 -1.68776E+04  5.62616E+02 -1.31039E+04 -1.08414E+04 -1.79420E+03 -1.49352E+04  8.26752E+03 -1.11442E+04
  1.14556E+04 -3.27075E+03  8.27193E+03  3.13751E+03  2.83306E+03  5.23522E+03  1.68262E+03  2.48368E+03
  3.17987E+03  1.32814E+03  4.51273E+03  2.30265E+03  5.43489E+03  6.18978E+03  4.63793E+03  9.88249E+03
 -3.23122E+03  1.44911E+04 -1.30400E+04  1.38510E+04 -1.92761E+04  3.63247E+03 -1.93509E+04 -8.51261E+03
 -9.57822E+03 -1.84566E+04  2.43737E+03 -2.00209E+04  1.16629E+04 -1.27024E+04  1.53654E+04 -3.64288E+03
  1.19290E+04  6.71852E+03  2.42876E+03  1.06522E+04 -5.50312E+03  6.53858E+03 -7.42448E+03 -1.13842E+03
 -3.50293E+03 -7.86374E+03  3.91252E+03 -8.29359E+03  7.84991E+03 -4.27075E+03  7.62721E+03  1.78207E+03
  4.34611E+03  3.86410E+03  1.97544E+03  3.80304E+03 -8.70901E+02  2.16319E+03  1.31487E+03 -6.96092E+02
  3.07498E+03 -1.22248E+03  7.70957E+03  2.81139E+03  4.43543E+03  9.70241E+03 -1.68722E+03  1.34924E+04
 -8.97340E+03  8.78017E+03 -1.27879E+04  2.53882E+03 -1.07194E+04 -4.37224E+03 -4.73377E+03 -7.62353E+03
  1.25015E+03 -7.59588E+03  4.65928E+03 -3.36894E+03  4.50953E+03  3.96150E+03 -1.75567E+03  6.24937E+03
 -7.59435E+03  4.02897E+03 -9.24446E+03 -4.22188E+03 -5.31456E+03 -1.01288E+04  1.21182E+03 -1.07514E+04
  6.66196E+03 -6.61188E+03  8.20576E+03 -1.00078E+03  6.35975E+03  3.00145E+03  6.93257E+02  5.34579E+03
 -3.85160E+03  1.49682E+03 -4.85539E+03 -3.71733E+03  1.50368E+03 -8.21054E+03  9.24197E+03 -6.58275E+03
  1.26686E+04  6.02703E+02  1.10663E+04  8.62634E+03  3.64132E+03  1.28746E+04 -4.58382E+03  1.21087E+04
 -1.03451E+04  4.93806E+03 -1.09001E+04 -1.63964E+03 -6.08391E+03 -7.95085E+03  2.01974E+03 -7.94116E+03
  7.60151E+03 -3.85916E+03  6.89064E+03  3.29963E+03  2.49592E+03  7.26347E+03 -1.22887E+03  5.82280E+03
 -3.56385E+03  3.98862E+03 -3.07941E+03  9.96251E+02 -1.40652E+03  1.22904E+03 -2.32994E+03  2.85591E+03
 -3.55255E+03  4.89295E+03 -8.36674E+03  4.33214E+03 -1.29147E+04  1.66308E+02 -1.44218E+04 -8.95404E+03
 -7.53515E+03 -1.68634E+04  3.24706E+03 -1.95377E+04  1.22392E+04 -1.47367E+04  1.84119E+04 -6.18447E+03
  1.73496E+04  3.96736E+03  1.08680E+04  1.20410E+04  1.14669E+03  1.36372E+04 -5.53597E+03  1.00061E+04
 -7.47075E+03  3.21625E+03 -4.55016E+03 -1.40118E+03 -1.83287E+03 -1.04426E+03 -4.80345E+02  1.10136E+02
 -2.00117E+03  5.03373E+02 -2.95926E+03 -1.44630E+02 -1.05956E+03 -3.06801E+03  2.16980E+02 -5.00070E+03
  5.79261E+03 -4.65286E+03  8.28577E+03  4.39680E+02  9.17206E+03  7.04210E+03  2.52904E+03  1.34657E+04
 -6.60766E+03  1.49012E+04 -1.46744E+04  8.42975E+03 -1.67337E+04 -1.06338E+03 -1.25718E+04 -1.00930E+04
 -5.30676E+03 -1.39297E+04  3.31230E+03 -1.26825E+04  8.94657E+03 -7.40004E+03  9.47010E+03  8.55232E+02
  4.73656E+03  4.54883E+03 -1.05182E+03  3.61573E+03 -2.57307E+03 -4.14982E+02  4.12435E+02 -3.27997E+03
  4.39914E+03 -1.80498E+03  5.67581E+03  1.75804E+03  3.81501E+03  5.32263E+03  4.91905E+02  7.56928E+03
 -6.00096E+03  6.78022E+03 -9.80713E+03  1.77917E+02 -8.39478E+03 -6.65333E+03 -1.74196E+03 -1.17190E+04
  6.59468E+03 -9.68425E+03  1.07791E+04 -2.82506E+03  1.08674E+04  3.12351E+03  6.42289E+03  8.30018E+03
  1.47918E+03  9.77367E+03 -3.30751E+03  7.28533E+03 -5.96560E+03  3.97623E+03 -5.19357E+03  2.85056E+02
 -2.63066E+03 -1.07233E+02 -2.34508E+03  9.72631E+02 -4.94292E+03  1.86556E+03 -7.17583E+03 -1.56067E+03
 -6.83357E+03 -5.07046E+03 -2.20126E+03 -9.71778E+03  4.02816E+03 -9.11315E+03  8.23284E+03 -4.83461E+03
  9.21838E+03  1.81017E+03  5.64892E+03  6.83666E+03 -1.19894E+03  9.43656E+03 -7.22872E+03  6.25008E+03
