 $NMID ID='MM_0lb_SNR800_15hz_g50_42.RAW', FMTDAT='(8E13.5)'
 TRAMP=1., VOLUME=1. $END
  3.09796E+05  3.78314E+02  3.37594E+05  2.50912E+05  8.47071E+04  3.37854E+05 -1.32276E+05  2.50949E+05
 -1.90312E+05  8.30879E+04 -1.11579E+05 -3.23740E+04  9.46525E+02 -5.06685E+04  5.36679E+04 -1.76016E+02
  3.56296E+04  5.28041E+04 -1.66203E+04  7.54444E+04 -6.09171E+04  6.35198E+04 -8.40526E+04  3.19033E+04
 -8.07705E+04 -1.13280E+04 -5.70161E+04 -5.13620E+04 -1.52955E+04 -6.92887E+04  2.73575E+04 -4.57290E+04
  4.01099E+04  3.78552E+03  1.60066E+04  4.74655E+04 -3.43916E+04  4.73451E+04 -6.65060E+04 -2.21559E+02
 -5.31833E+04 -5.69426E+04 -6.64204E+03 -7.64811E+04  3.37267E+04 -5.48556E+04  4.77016E+04 -1.71559E+04
  4.34650E+04  1.10813E+04  3.18859E+04  2.54204E+04  1.55749E+04  2.91958E+04 -4.79602E+03  2.74905E+04
 -2.21726E+04  1.22770E+04 -1.86938E+04 -4.83060E+03  5.47771E+03 -7.55543E+03  2.22977E+04  1.21711E+04
  7.36617E+03  3.48705E+04 -3.17412E+04  3.54897E+04 -6.31340E+04  2.29592E+03 -5.67917E+04 -4.25584E+04
 -1.24760E+04 -6.28898E+04  3.95133E+04 -4.47412E+04  5.78109E+04 -2.16328E+03  3.41280E+04  3.21402E+04
 -5.87733E+03  3.58439E+04 -2.97197E+04  1.58081E+04 -2.98760E+04 -4.62033E+03 -1.63742E+04 -1.11012E+04
 -8.18695E+03 -1.27061E+04 -5.31180E+02 -1.78408E+04  7.23191E+03 -2.28918E+04  1.54027E+04 -1.33691E+04
  1.16619E+04  4.95276E+03 -8.08776E+03  1.30458E+04 -2.07333E+04 -3.93997E+03 -8.13056E+03 -3.33386E+04
  2.28727E+04 -4.32536E+04  4.76534E+04 -1.95814E+04  4.46507E+04  1.92201E+04  1.54933E+04  4.34561E+04
 -1.55819E+04  3.31670E+04 -2.49638E+04  1.61604E+03 -9.58942E+03 -2.77093E+04  2.08326E+04 -3.35276E+04
  4.06102E+04 -8.90650E+03  3.49542E+04  2.36372E+04  1.75215E+04  4.54775E+04 -8.13575E+03  4.92357E+04
 -3.13231E+04  3.31633E+04 -4.13958E+04  9.16780E+03 -4.17311E+04 -1.63693E+04 -2.31103E+04 -3.78677E+04
  7.47569E+03 -3.73095E+04  3.10103E+04 -1.47956E+04  2.89312E+04  1.09210E+04  3.76517E+03  1.88454E+04
 -1.32615E+04  7.89669E+03 -1.04417E+04 -7.40808E+03  5.79238E+03 -1.07856E+04  1.77090E+04  5.94687E+03
  1.31981E+04  2.22878E+04 -6.23593E+03  2.46818E+04 -2.22135E+04  1.11181E+04 -2.74218E+04 -5.18328E+03
 -2.01488E+04 -1.68543E+04 -7.60649E+03 -1.97752E+04  4.19077E+03 -1.86514E+04  1.50681E+04 -1.75827E+04
  2.53771E+04 -1.26039E+04  3.17020E+04  2.68113E+03  2.36169E+04  1.94962E+04  4.44957E+03  3.57087E+04
 -1.75212E+04  2.98029E+04 -2.75347E+04  9.99398E+03 -2.06768E+04 -1.04640E+04 -4.27345E+03 -1.35406E+04
  1.82010E+03 -2.89790E+03 -4.58386E+03  6.49153E+03 -1.57270E+04  5.27310E+03 -1.58785E+04 -6.66669E+03
 -1.01910E+04 -1.81213E+04  5.14665E+03 -2.25103E+04  1.50276E+04 -1.61082E+04  1.74858E+04 -1.17581E+03
  1.07364E+04  1.26739E+04 -9.71900E+02  1.83442E+04 -1.24265E+04  1.03084E+04 -1.85008E+04 -3.82289E+03
 -1.34066E+04 -1.65326E+04 -1.82976E+03 -2.18959E+04  1.00135E+04 -1.82423E+04  1.85871E+04 -8.85825E+03
  1.70258E+04  1.87256E+02  1.24850E+04  4.13427E+03  6.14269E+03  1.03683E+03  9.14741E+03 -1.39245E+03
  1.67624E+04  2.83630E+03  1.82762E+04  1.47615E+04  1.19314E+04  2.92235E+04 -3.07819E+03  3.23819E+04
 -1.90456E+04  2.60480E+04 -3.04283E+04  1.29203E+04 -3.21567E+04 -2.35006E+03 -2.60167E+04 -1.81515E+04
 -1.18358E+04 -2.61481E+04  8.93530E+03 -2.35039E+04  2.01426E+04 -1.22636E+04  1.86654E+04  5.11237E+03
  7.10403E+03  1.38068E+04 -8.58134E+03  1.20975E+04 -1.56431E+04  2.83686E+03 -1.22500E+04 -9.77714E+03
 -1.42860E+02 -1.47411E+04  7.46569E+03 -1.10005E+04  9.98530E+03 -1.15401E+03  2.23632E+03  6.17601E+03
 -6.60858E+03  2.44960E+03 -5.52256E+03 -5.25088E+03 -1.61761E+02 -1.24767E+04  8.89939E+03 -1.35058E+04
  1.56620E+04 -6.46643E+03  1.68205E+04  2.93819E+03  1.42139E+04  1.25436E+04  6.74630E+03  1.90646E+04
 -2.79862E+03  2.09299E+04 -1.29834E+04  1.28543E+04 -1.48734E+04  3.69627E+03 -1.04787E+04 -3.32408E+03
 -4.89223E+03 -4.57071E+03 -9.16205E+02  1.21061E+03 -2.79387E+03  2.33346E+03 -4.77729E+03  4.21117E+03
 -9.96240E+03 -5.12248E+02 -1.07650E+04 -8.51853E+03 -4.25711E+03 -1.40948E+04  4.23095E+03 -1.07007E+04
  9.08032E+03 -4.60348E+03  6.39813E+03  2.94487E+03  4.59493E+02  4.30215E+03 -4.83959E+03 -1.05047E+02
 -4.76116E+03 -6.66289E+03 -7.86020E+02 -1.00443E+04  5.62651E+03 -1.06668E+04  1.29673E+04 -5.45943E+03
  1.52351E+04  1.21572E+03  1.11036E+04  8.62761E+03  2.30983E+03  1.19871E+04 -6.81648E+03  1.05711E+04
 -8.74440E+03  3.40388E+03 -4.30438E+03 -1.88181E+03  1.72404E+03 -2.37448E+03  5.76571E+03 -7.93316E+02
  5.08701E+03  4.33577E+03  1.09632E+03  8.20395E+03 -5.68538E+03  8.12070E+03 -1.01633E+04  2.18572E+03
 -6.61437E+03 -4.94196E+03  5.02370E+02 -8.81074E+03  5.37625E+03 -4.45474E+03  4.98223E+03  1.70416E+03
  7.73358E+02  5.17744E+03 -5.21431E+03  7.09187E+03 -7.64110E+03  3.23290E+03 -7.12330E+03 -2.37398E+03
 -4.61314E+03 -8.99692E+03  1.96865E+03 -1.00729E+04  8.85645E+03 -6.64397E+03  9.47490E+03  1.33560E+03
  6.04207E+03  7.59029E+03 -3.27860E+02  9.98359E+03 -7.09020E+03  5.62184E+03 -7.36558E+03 -5.30894E+02
 -7.18446E+03 -6.65732E+03 -1.69578E+03 -7.09103E+03  3.26249E+03 -6.07375E+03  4.36259E+03 -2.89729E+03
  3.70758E+03  8.30262E+02 -2.87737E+02  1.31347E+03 -1.32464E+01 -9.02324E+02  9.63383E+02 -3.57886E+03
  6.29181E+03 -1.83380E+03  8.13016E+03  9.49935E+02  8.50722E+03  5.36004E+03  6.63221E+03  1.12574E+04
 -2.05504E+03  1.30636E+04 -1.13800E+04  9.68204E+03 -1.47733E+04  1.83074E+03 -1.15505E+04 -4.37407E+03
 -5.71976E+03 -9.58617E+03 -4.22474E+01 -7.92032E+03  3.01655E+03 -4.07780E+03  2.82472E+03 -2.81742E+03
  2.07306E+03 -1.97203E+03  2.62682E+03 -3.03896E+03  4.32209E+03 -1.85851E+03  5.18165E+03 -1.51345E+02
  6.21433E+03  1.78258E+03  2.35304E+03  5.12396E+03 -1.73823E+03  5.53035E+03 -6.56381E+03  4.31809E+03
 -7.77967E+03 -8.69309E+02 -3.82611E+03 -5.27215E+03  1.12212E+02 -7.99393E+03  4.87637E+03 -8.19462E+03
  8.10059E+03 -4.81466E+03  9.99779E+03  8.93873E+02  7.04936E+03  6.72425E+03  1.29427E+03  9.18977E+03
 -3.56767E+03  8.17893E+03 -5.35111E+03  2.83377E+03 -3.35790E+03 -1.12550E+03 -1.01574E+03 -1.16728E+03
 -6.95723E+02  3.93060E+02 -1.20987E+03  2.11311E+03 -3.57571E+03  1.28029E+03 -5.44437E+03 -7.15388E+02
 -3.16176E+03 -5.64793E+03  6.69830E+02 -6.97617E+03  4.33161E+03 -6.91890E+03  6.72005E+03 -1.87342E+03
  6.55719E+03  3.51574E+03  3.44659E+03  5.89302E+03 -1.15389E+03  7.03415E+03 -4.72288E+03  4.54008E+03
 -6.28404E+03  5.83958E+02 -5.34925E+03 -4.43214E+03 -4.60087E+02 -5.40285E+03  2.78199E+03 -4.26827E+03
  4.35178E+03 -1.58894E+03  2.99935E+03  1.37450E+03  1.10485E+03  2.29874E+03  9.99976E+02  1.16257E+03
  2.04003E+03  6.53834E+02  1.56979E+03  1.39712E+03  1.75981E+03  3.14472E+03  2.37359E+03  3.34058E+03
 -1.63657E+03  5.12827E+03 -4.36195E+03  6.15770E+03 -6.08709E+03  1.93372E+03 -7.05530E+03 -2.13323E+03
 -3.36907E+03 -6.74858E+03  1.26429E+03 -7.62628E+03  3.78934E+03 -4.50749E+03  5.21323E+03 -1.33739E+03
  4.51158E+03  2.79666E+03  6.68437E+02  3.67243E+03 -1.70209E+03  2.35935E+03 -2.35384E+03 -2.44797E+02
 -1.07837E+03 -2.53004E+03  1.65755E+03 -2.73833E+03  2.44782E+03 -1.54684E+03  2.56871E+03  5.79640E+02
  1.49196E+03  8.20220E+02  7.48771E+02  3.18569E+02 -1.39932E+02  1.08249E+03  1.40328E+03 -1.63538E+02
  3.86161E+02 -3.83235E+02  2.89534E+03  1.33828E+03  7.89874E+02  3.87392E+03 -5.88918E+02  4.66491E+03
 -2.98945E+03  2.83196E+03 -3.44387E+03  6.42643E+02 -3.43956E+03 -1.23660E+03 -1.12613E+03 -2.02863E+03
  4.79370E+02 -2.30147E+03  1.84474E+03 -1.07405E+03  9.96523E+02  1.42934E+03 -1.02621E+03  1.84348E+03
 -2.33462E+03  1.17939E+03 -2.55902E+03 -1.66347E+03 -1.52307E+03 -3.34697E+03  2.78415E+02 -3.02837E+03
  1.66774E+03 -1.58979E+03  2.01937E+03 -1.19868E+02  2.06949E+03  3.87774E+02  4.33333E+02  1.98230E+03
 -9.32712E+02  4.22787E+02 -1.98095E+03 -6.95056E+02  9.91417E+02 -2.24915E+03  3.18247E+03 -2.09315E+03
  2.89712E+03  3.50527E+02  4.08236E+03  1.89827E+03  1.83565E+03  3.82696E+03 -8.74054E+02  3.15831E+03
 -3.30506E+03  1.05483E+03 -3.05580E+03 -3.94893E+02 -1.67230E+03 -2.55807E+03  6.32226E+02 -1.81477E+03
  2.71264E+03 -1.05249E+03  1.75723E+03  1.03723E+03  3.98963E+02  2.15874E+03  4.87844E+01  1.99543E+03
 -5.58500E+02  1.48778E+03 -9.63332E+02  3.48017E+02 -1.61935E+02  6.35553E+02 -8.62992E+02  1.07088E+03
 -1.06267E+03  1.72633E+03 -2.85081E+03  1.05339E+03 -3.59299E+03  3.64433E+02 -4.14961E+03 -2.15196E+03
 -2.07060E+03 -4.63115E+03  9.41348E+02 -5.28308E+03  2.92128E+03 -4.20102E+03  5.02401E+03 -1.80775E+03
  4.62738E+03  7.37538E+02  2.34065E+03  3.11167E+03 -6.68156E+01  3.31573E+03 -1.38884E+03  2.56929E+03
 -1.67434E+03  9.42573E+02 -1.14044E+03 -4.91600E+02 -4.92335E+02  2.59657E+02 -7.65105E+02 -1.80480E+02
 -1.09011E+03 -2.42272E+01 -9.70087E+02  5.97625E+01  2.09878E+02 -9.02148E+02 -1.48090E+02 -1.68445E+03
  1.95649E+03 -1.12436E+03  1.66610E+03  8.58717E+01  2.34249E+03  1.78133E+03  1.37849E+02  3.25534E+03
 -1.62852E+03  4.26175E+03 -3.17106E+03  2.17591E+03 -3.79011E+03 -4.60978E+02 -2.91344E+03 -2.39539E+03
 -1.74195E+03 -3.08302E+03  4.90441E+02 -2.94552E+03  1.59968E+03 -1.48584E+03  1.79611E+03  2.41809E+02
  1.49143E+03  8.11771E+02  5.11316E+00  9.36332E+02 -6.58432E+02  1.73534E+02 -1.73729E+02 -8.73895E+02
  8.03436E+02 -2.17015E+02  1.06181E+03  5.34227E+02  6.84874E+02  1.32420E+03  5.78765E+02  1.15878E+03
 -1.11827E+03  1.42478E+03 -1.98090E+03  3.37421E+01 -1.85480E+03 -1.34050E+03  4.87629E+01 -2.34596E+03
  1.25616E+03 -1.82069E+03  1.90122E+03 -4.32353E+02  1.89657E+03 -2.76707E+01  1.27531E+03  1.71668E+03
  3.90898E+02  1.68572E+03 -4.90281E+02  1.18013E+03 -1.40753E+03  1.35653E+03 -7.97030E+02  3.67640E+02
 -7.26732E+02 -6.68072E+01 -7.57038E+02  5.90442E+02 -8.86354E+02  3.72268E+02 -1.58765E+03 -3.94682E+02
 -1.76726E+03 -3.71104E+02 -6.52709E+02 -1.97598E+03  1.06139E+03 -2.51126E+03  1.46939E+03 -1.05612E+03
  1.66217E+03  5.25914E+02  5.84643E+02  1.00232E+03 -1.80706E+02  1.51958E+03 -1.20412E+03  1.10272E+03
