 $NMID ID='MM_0lb_SNR800_7hz_g45_97.RAW', FMTDAT='(8E13.5)'
 TRAMP=1., VOLUME=1. $END
  3.09912E+05 -7.67436E+00  3.38283E+05  2.51114E+05  8.49262E+04  3.38422E+05 -1.32597E+05  2.52506E+05
 -1.91217E+05  8.40710E+04 -1.12692E+05 -3.21357E+04  5.08245E+02 -5.06505E+04  5.34740E+04 -7.99620E+02
  3.58458E+04  5.30339E+04 -1.66482E+04  7.60517E+04 -6.11477E+04  6.48705E+04 -8.62272E+04  3.26708E+04
 -8.28824E+04 -1.16525E+04 -5.83801E+04 -5.27333E+04 -1.50589E+04 -7.16654E+04  2.80082E+04 -4.72717E+04
  4.14776E+04  3.57406E+03  1.70754E+04  4.86121E+04 -3.47540E+04  4.87962E+04 -6.84927E+04 -2.09921E+02
 -5.54665E+04 -5.82145E+04 -7.38000E+03 -7.95675E+04  3.50090E+04 -5.74037E+04  5.00698E+04 -1.88431E+04
  4.60201E+04  1.15894E+04  3.32492E+04  2.71509E+04  1.58356E+04  3.13514E+04 -5.75107E+03  2.82998E+04
 -2.30704E+04  1.20247E+04 -1.79448E+04 -6.12895E+03  7.65666E+03 -7.59932E+03  2.35685E+04  1.40756E+04
  7.09089E+03  3.85390E+04 -3.42390E+04  3.75561E+04 -6.65567E+04  2.09518E+03 -5.92905E+04 -4.54429E+04
 -1.26744E+04 -6.67073E+04  4.19002E+04 -4.80826E+04  6.18705E+04 -2.50430E+03  3.77745E+04  3.52600E+04
 -5.08143E+03  4.04720E+04 -3.22386E+04  2.02756E+04 -3.42188E+04 -3.26157E+03 -2.01443E+04 -1.23592E+04
 -1.02490E+04 -1.53698E+04 -4.32061E+02 -2.04835E+04  8.57558E+03 -2.37838E+04  1.64031E+04 -1.19778E+04
  9.82089E+03  6.49444E+03 -1.14637E+04  1.25303E+04 -2.40174E+04 -7.10900E+03 -8.65574E+03 -3.82715E+04
  2.59964E+04 -4.83335E+04  5.33774E+04 -2.17559E+04  4.96458E+04  2.14521E+04  1.81156E+04  4.79778E+04
 -1.69877E+04  3.71256E+04 -2.79017E+04  3.23957E+03 -1.24315E+04 -3.04751E+04  2.15974E+04 -3.78865E+04
  4.58725E+04 -1.16725E+04  4.22662E+04  2.51624E+04  2.24241E+04  5.24902E+04 -8.14713E+03  5.80710E+04
 -3.62938E+04  3.97679E+04 -4.92682E+04  1.17341E+04 -4.93173E+04 -1.89739E+04 -2.67843E+04 -4.37721E+04
  7.86089E+03 -4.38323E+04  3.47576E+04 -1.76075E+04  3.33555E+04  1.13844E+04  5.56378E+03  2.14194E+04
 -1.40738E+04  1.03427E+04 -1.15581E+04 -7.86758E+03  5.35123E+03 -1.19798E+04  1.88516E+04  5.55588E+03
  1.53239E+04  2.28125E+04 -5.10645E+03  2.77899E+04 -2.33994E+04  1.53234E+04 -3.22737E+04 -1.99409E+03
 -2.63583E+04 -1.85242E+04 -1.30969E+04 -2.64423E+04  4.14580E+03 -2.82898E+04  2.08917E+04 -2.43890E+04
  3.42332E+04 -1.52811E+04  3.98117E+04  5.50655E+03  2.78974E+04  2.56638E+04  4.57191E+03  4.29779E+04
 -2.03604E+04  3.51464E+04 -3.15486E+04  1.20577E+04 -2.33562E+04 -1.03856E+04 -5.26134E+03 -1.27494E+04
  7.17399E+02 -3.82681E+02 -8.27765E+03  8.97252E+03 -2.16921E+04  5.06637E+03 -2.12028E+04 -1.05115E+04
 -1.27557E+04 -2.49749E+04  6.35325E+03 -2.95123E+04  2.03963E+04 -2.07221E+04  2.41546E+04 -1.63755E+03
  1.52256E+04  1.69414E+04 -1.49312E+03  2.43844E+04 -1.78568E+04  1.45673E+04 -2.50958E+04 -5.11617E+03
 -1.83777E+04 -2.17101E+04 -2.02272E+03 -2.95118E+04  1.28854E+04 -2.49253E+04  2.47210E+04 -1.30238E+04
  2.34008E+04 -5.92042E+02  1.65541E+04  5.68997E+03  9.72637E+03  1.29513E+03  1.30361E+04 -2.07960E+03
  2.39430E+04  3.08309E+03  2.75445E+04  1.97852E+04  1.89620E+04  4.03668E+04 -2.14472E+03  4.76600E+04
 -2.73428E+04  4.04785E+04 -4.55692E+04  2.12802E+04 -4.92735E+04 -3.60786E+03 -3.92289E+04 -2.89505E+04
 -1.49079E+04 -4.03346E+04  1.43411E+04 -3.55519E+04  3.04732E+04 -1.61994E+04  2.60487E+04  8.84572E+03
  9.08326E+03  2.03583E+04 -1.26526E+04  1.66393E+04 -2.18695E+04  2.95632E+03 -1.67382E+04 -1.39294E+04
 -1.01854E+02 -2.10180E+04  1.12131E+04 -1.52507E+04  1.45375E+04 -9.68310E+02  3.91020E+03  9.28003E+03
 -9.14054E+03  4.78054E+03 -9.94989E+03 -7.89337E+03 -2.33208E+03 -1.99883E+04  1.23051E+04 -2.15881E+04
  2.53020E+04 -1.31209E+04  2.94745E+04  3.63437E+03  2.57012E+04  2.05579E+04  1.18333E+04  3.22818E+04
 -6.85179E+03  3.44582E+04 -2.31207E+04  2.16235E+04 -2.52864E+04  4.36385E+03 -1.70884E+04 -6.67368E+03
 -7.04159E+03 -8.13303E+03 -6.26682E+02 -2.68358E+02 -2.96132E+03  4.04729E+03 -8.47817E+03  5.67684E+03
 -1.56367E+04 -1.10786E+03 -1.64729E+04 -1.26698E+04 -6.47904E+03 -2.13378E+04  6.68529E+03 -1.75179E+04
  1.43735E+04 -6.96195E+03  9.88828E+03  4.59610E+03 -5.63324E+02  7.09187E+03 -9.22741E+03 -1.90648E+01
 -8.22149E+03 -1.06081E+04 -1.22511E+03 -1.76196E+04  1.05467E+04 -1.82242E+04  2.24417E+04 -9.97145E+03
  2.62489E+04  2.51924E+03  1.87959E+04  1.62304E+04  3.62388E+03  2.14707E+04 -1.03432E+04  1.71518E+04
 -1.39943E+04  4.97738E+03 -7.23039E+03 -4.37197E+03  2.47197E+03 -5.22897E+03  9.06829E+03 -1.15786E+03
  8.47382E+03  8.53835E+03  1.04123E+03  1.37606E+04 -1.04377E+04  1.34273E+04 -1.75044E+04  2.88772E+03
 -1.19938E+04 -9.55513E+03  2.25461E+02 -1.50564E+04  1.00309E+04 -7.08167E+03  1.05836E+04  3.58952E+03
  2.49600E+03  1.15121E+04 -9.42924E+03  1.33976E+04 -1.59332E+04  6.06913E+03 -1.65423E+04 -6.20882E+03
 -9.57905E+03 -1.82382E+04  4.44178E+03 -2.13415E+04  1.78552E+04 -1.24384E+04  1.93827E+04  3.65677E+03
  1.12646E+04  1.52631E+04 -2.17679E+03  1.85336E+04 -1.27994E+04  1.02994E+04 -1.53372E+04 -1.49971E+03
 -1.22957E+04 -1.20658E+04 -1.93424E+03 -1.36071E+04  7.30528E+03 -1.07699E+04  9.24132E+03 -3.84164E+03
  5.82701E+03  2.36702E+03 -1.53794E+03  2.32037E+03 -1.30832E+03 -4.36235E+03  3.54589E+03 -9.26121E+03
  1.34757E+04 -5.70531E+03  1.89010E+04  1.95235E+03  1.85284E+04  1.33500E+04  1.14502E+04  2.45236E+04
 -5.87769E+03  2.85753E+04 -2.33689E+04  2.07063E+04 -2.99369E+04  4.04988E+03 -2.46006E+04 -1.06743E+04
 -1.20216E+04 -2.00763E+04 -6.29481E+02 -1.71864E+04  6.59519E+03 -1.01081E+04  5.98185E+03 -6.39200E+03
  4.35288E+03 -3.69182E+03  4.29825E+03 -4.47448E+03  6.77832E+03 -4.19077E+03  9.51511E+03 -2.11357E+03
  1.25423E+04  2.41982E+03  7.50072E+03  1.11589E+04 -2.65963E+03  1.39618E+04 -1.32520E+04  1.05547E+04
 -1.76550E+04 -1.67398E+03 -1.20186E+04 -1.23157E+04 -1.72967E+03 -1.88665E+04  9.99869E+03 -1.85411E+04
  1.99316E+04 -1.06273E+04  2.32574E+04  3.14631E+03  1.58210E+04  1.66639E+04  2.28596E+03  2.17746E+04
 -9.33129E+03  1.71583E+04 -1.23145E+04  5.77478E+03 -8.83350E+03 -2.28056E+03 -3.53953E+03 -2.69900E+03
 -1.45495E+03 -7.62366E+02 -2.89160E+03  3.57052E+03 -7.31645E+03  3.18550E+03 -1.17651E+04 -1.51880E+03
 -8.79893E+03 -1.18847E+04  1.53635E+02 -1.74491E+04  1.11653E+04 -1.67115E+04  1.83178E+04 -5.81359E+03
  1.77905E+04  8.36639E+03  8.70941E+03  1.62067E+04 -3.51452E+03  1.79779E+04 -1.35539E+04  1.12382E+04
 -1.76914E+04  5.27492E+02 -1.29543E+04 -1.07901E+04 -1.86286E+03 -1.55188E+04  8.26820E+03 -1.16733E+04
  1.14811E+04 -3.25174E+03  7.72711E+03  3.11937E+03  2.60710E+03  5.16649E+03  1.49985E+03  2.36962E+03
  3.49249E+03  1.40003E+03  4.32955E+03  2.25931E+03  5.12164E+03  5.60383E+03  4.75227E+03  1.00311E+04
 -3.57832E+03  1.50936E+04 -1.32079E+04  1.38305E+04 -1.92050E+04  3.52017E+03 -1.95578E+04 -8.00344E+03
 -9.24214E+03 -1.89012E+04  2.63233E+03 -2.01958E+04  1.12667E+04 -1.34415E+04  1.51550E+04 -3.71502E+03
  1.22575E+04  7.10828E+03  2.41530E+03  1.07247E+04 -5.78446E+03  7.37641E+03 -7.78256E+03 -8.66040E+02
 -3.64317E+03 -8.25695E+03  4.36677E+03 -8.54155E+03  7.53550E+03 -3.66440E+03  7.82756E+03  2.12152E+03
  4.48110E+03  4.13621E+03  1.85722E+03  3.49449E+03 -1.02575E+03  2.58076E+03  1.73858E+03 -8.72536E+02
  3.37700E+03 -8.16359E+02  7.43678E+03  3.24144E+03  4.71951E+03  1.04508E+04 -1.73550E+03  1.34063E+04
 -9.33658E+03  9.52436E+03 -1.27420E+04  2.53104E+03 -1.08534E+04 -4.13456E+03 -4.52352E+03 -7.69696E+03
  6.93349E+02 -7.39295E+03  5.12415E+03 -3.03695E+03  4.43571E+03  3.77442E+03 -1.80296E+03  6.64305E+03
 -8.35755E+03  3.90308E+03 -9.22121E+03 -4.53627E+03 -5.36055E+03 -1.00755E+04  1.33094E+03 -1.09798E+04
  7.00027E+03 -6.42603E+03  8.13448E+03 -1.12904E+03  6.14719E+03  3.02283E+03  1.51610E+03  5.77152E+03
 -4.11842E+03  1.97161E+03 -5.33556E+03 -4.03899E+03  1.83995E+03 -8.97863E+03  9.62001E+03 -6.81720E+03
  1.31059E+04  4.97136E+02  1.20728E+04  8.69493E+03  4.09935E+03  1.35362E+04 -5.02975E+03  1.21876E+04
 -1.08481E+04  5.25839E+03 -1.12934E+04 -1.41732E+03 -6.79339E+03 -8.61148E+03  2.02585E+03 -8.64501E+03
  8.08174E+03 -3.83369E+03  7.36193E+03  3.26456E+03  2.36273E+03  7.59950E+03 -1.70778E+03  6.16519E+03
 -3.49754E+03  3.42708E+03 -3.18845E+03  1.21750E+03 -1.26198E+03  1.81824E+03 -2.15550E+03  2.88914E+03
 -3.47945E+03  4.92994E+03 -8.42153E+03  4.45308E+03 -1.35196E+04  1.27061E+02 -1.43898E+04 -9.02902E+03
 -7.84606E+03 -1.78507E+04  3.29146E+03 -2.07840E+04  1.26454E+04 -1.57131E+04  1.94043E+04 -5.88036E+03
  1.82218E+04  4.12918E+03  1.14360E+04  1.28161E+04  1.75455E+03  1.42204E+04 -5.57712E+03  1.08429E+04
 -7.68299E+03  3.70933E+03 -5.10300E+03 -1.39857E+03 -1.76866E+03 -1.53737E+03 -3.34906E+02 -2.09916E+02
 -2.49301E+03  2.43368E+02 -2.89946E+03 -5.04138E+02 -1.16932E+03 -3.15175E+03  4.22604E+02 -5.31918E+03
  5.69469E+03 -4.42604E+03  8.44638E+03 -6.40606E+01  1.01804E+04  8.12389E+03  2.66859E+03  1.43786E+04
 -6.54111E+03  1.58418E+04 -1.51208E+04  9.28532E+03 -1.73976E+04 -1.73194E+03 -1.29031E+04 -1.10654E+04
 -5.81087E+03 -1.51166E+04  3.93892E+03 -1.37911E+04  9.61787E+03 -7.82216E+03  9.61950E+03  2.55678E+02
  5.03519E+03  5.06327E+03 -1.09905E+03  3.96791E+03 -2.99999E+03 -7.11203E+01  1.22510E+02 -3.23683E+03
  4.54587E+03 -2.40873E+03  5.92283E+03  2.12760E+03  3.87063E+03  5.84217E+03 -3.07669E+01  8.01032E+03
 -6.41367E+03  7.59032E+03 -1.03156E+04  1.31083E+03 -9.12123E+03 -7.09534E+03 -1.62098E+03 -1.19407E+04
  7.48334E+03 -1.02467E+04  1.15560E+04 -3.22971E+03  1.16105E+04  3.10491E+03  7.12207E+03  9.56502E+03
  9.34506E+02  1.01931E+04 -3.87300E+03  7.84694E+03 -6.40026E+03  4.49340E+03 -5.41175E+03  2.84643E+02
 -2.70216E+03 -1.32522E+02 -2.41740E+03  1.23632E+03 -4.79870E+03  1.81179E+03 -7.38299E+03 -1.11237E+03
 -7.53487E+03 -5.77912E+03 -2.13927E+03 -9.95184E+03  4.04694E+03 -1.08766E+04  8.87540E+03 -5.16088E+03
  1.05439E+04  1.53968E+03  5.57333E+03  7.12560E+03 -8.92353E+02  1.01151E+04 -8.31726E+03  6.15310E+03
