 $NMID ID='MM_0lb_SNR800_12hz_g50_15.RAW', FMTDAT='(8E13.5)'
 TRAMP=1., VOLUME=1. $END
  3.10040E+05  5.02760E+02  3.37577E+05  2.50616E+05  8.51699E+04  3.38440E+05 -1.32815E+05  2.51225E+05
 -1.90444E+05  8.34232E+04 -1.12108E+05 -3.23015E+04  6.29430E+02 -5.08063E+04  5.39723E+04 -1.99337E+02
  3.58319E+04  5.28204E+04 -1.68640E+04  7.53826E+04 -6.09374E+04  6.40218E+04 -8.46878E+04  3.22365E+04
 -8.16526E+04 -1.14659E+04 -5.74802E+04 -5.17835E+04 -1.54248E+04 -7.00647E+04  2.77918E+04 -4.57554E+04
  4.05082E+04  3.75940E+03  1.66582E+04  4.81246E+04 -3.44342E+04  4.77718E+04 -6.74811E+04 -1.09055E+02
 -5.42749E+04 -5.75433E+04 -6.90829E+03 -7.80729E+04  3.43956E+04 -5.53060E+04  4.87334E+04 -1.74099E+04
  4.41131E+04  1.14051E+04  3.27781E+04  2.57222E+04  1.56670E+04  3.00833E+04 -5.48706E+03  2.74168E+04
 -2.23352E+04  1.22122E+04 -1.82535E+04 -5.39217E+03  6.00411E+03 -7.48462E+03  2.32849E+04  1.28192E+04
  7.05850E+03  3.59377E+04 -3.25541E+04  3.63708E+04 -6.42902E+04  1.92260E+03 -5.78843E+04 -4.36784E+04
 -1.26090E+04 -6.41529E+04  4.05266E+04 -4.61190E+04  5.93471E+04 -2.16852E+03  3.50201E+04  3.31261E+04
 -5.81970E+03  3.75267E+04 -3.08330E+04  1.67514E+04 -3.16902E+04 -3.88834E+03 -1.77860E+04 -1.12813E+04
 -8.67746E+03 -1.37690E+04 -2.15035E+02 -1.86067E+04  8.16042E+03 -2.30809E+04  1.56951E+04 -1.31399E+04
  1.12221E+04  5.56175E+03 -8.98025E+03  1.29372E+04 -2.22554E+04 -5.08291E+03 -8.47245E+03 -3.51817E+04
  2.39899E+04 -4.50842E+04  4.97502E+04 -2.02070E+04  4.71108E+04  1.98807E+04  1.63592E+04  4.52851E+04
 -1.58922E+04  3.44900E+04 -2.60443E+04  2.12417E+03 -1.05646E+04 -2.89542E+04  2.14993E+04 -3.53041E+04
  4.30614E+04 -9.68374E+03  3.77222E+04  2.43196E+04  1.94977E+04  4.77479E+04 -8.33870E+03  5.24183E+04
 -3.34060E+04  3.52755E+04 -4.41760E+04  1.00988E+04 -4.48254E+04 -1.76470E+04 -2.43617E+04 -3.95469E+04
  7.55759E+03 -3.94344E+04  3.25497E+04 -1.58235E+04  3.06325E+04  1.08593E+04  4.55055E+03  1.99675E+04
 -1.33107E+04  8.83308E+03 -1.06360E+04 -6.97377E+03  5.95052E+03 -1.09886E+04  1.82374E+04  5.83236E+03
  1.40403E+04  2.22838E+04 -5.68666E+03  2.59632E+04 -2.24957E+04  1.27570E+04 -2.97462E+04 -3.79050E+03
 -2.28010E+04 -1.77640E+04 -9.55521E+03 -2.21026E+04  4.22719E+03 -2.25466E+04  1.72291E+04 -2.03012E+04
  2.84074E+04 -1.34106E+04  3.47079E+04  3.52216E+03  2.51722E+04  2.21191E+04  4.39237E+03  3.83255E+04
 -1.87579E+04  3.23774E+04 -2.87133E+04  1.06831E+04 -2.16060E+04 -1.02620E+04 -4.51846E+03 -1.33706E+04
  1.35462E+03 -2.37240E+03 -5.84465E+03  7.41693E+03 -1.76354E+04  4.90668E+03 -1.78148E+04 -7.85158E+03
 -1.08407E+04 -2.08925E+04  5.53799E+03 -2.47873E+04  1.67904E+04 -1.75736E+04  1.97621E+04 -1.74710E+03
  1.24593E+04  1.46385E+04 -1.09079E+03  2.03819E+04 -1.49225E+04  1.16653E+04 -2.10270E+04 -4.44666E+03
 -1.54436E+04 -1.85956E+04 -1.69849E+03 -2.47395E+04  1.11419E+04 -2.04183E+04  2.10067E+04 -1.06356E+04
  1.98274E+04 -2.45024E+02  1.39457E+04  5.08760E+03  7.59264E+03  1.21819E+03  1.04987E+04 -2.09661E+03
  1.94298E+04  2.70414E+03  2.13861E+04  1.63766E+04  1.44773E+04  3.31706E+04 -2.63601E+03  3.83768E+04
 -2.22171E+04  3.12945E+04 -3.59049E+04  1.58004E+04 -3.77685E+04 -2.79099E+03 -3.08906E+04 -2.22132E+04
 -1.25881E+04 -3.14576E+04  1.11085E+04 -2.78579E+04  2.39522E+04 -1.38664E+04  2.13029E+04  6.31320E+03
  7.41804E+03  1.58967E+04 -1.03435E+04  1.38306E+04 -1.77623E+04  2.92300E+03 -1.38139E+04 -1.10363E+04
 -2.92596E+02 -1.67420E+04  9.40654E+03 -1.28190E+04  1.15112E+04 -1.13220E+03  2.62294E+03  7.18929E+03
 -7.73318E+03  3.09374E+03 -7.05836E+03 -5.74982E+03 -1.18563E+03 -1.54310E+04  1.04738E+04 -1.62400E+04
  1.92872E+04 -8.90324E+03  2.09955E+04  3.26578E+03  1.84442E+04  1.51917E+04  8.73606E+03  2.37070E+04
 -4.62680E+03  2.55208E+04 -1.64418E+04  1.58461E+04 -1.87652E+04  3.58990E+03 -1.27657E+04 -4.32401E+03
 -5.77903E+03 -5.54783E+03 -7.83825E+02  7.87465E+02 -2.42398E+03  3.14780E+03 -6.05262E+03  4.51237E+03
 -1.20342E+04 -4.93529E+02 -1.24105E+04 -1.00219E+04 -5.05090E+03 -1.62971E+04  4.96419E+03 -1.30703E+04
  1.07140E+04 -5.51629E+03  7.83479E+03  3.29157E+03  6.02341E+01  4.93632E+03 -6.30373E+03  1.21815E+02
 -6.16971E+03 -8.08112E+03 -9.12001E+02 -1.26333E+04  7.26385E+03 -1.30313E+04  1.64866E+04 -7.25220E+03
  1.94366E+04  2.07494E+03  1.38699E+04  1.15797E+04  2.50883E+03  1.53984E+04 -7.91781E+03  1.27342E+04
 -1.04690E+04  3.90401E+03 -5.90109E+03 -2.74750E+03  1.80443E+03 -3.42197E+03  6.98721E+03 -7.22751E+02
  6.02256E+03  5.40005E+03  7.74460E+02  1.00269E+04 -7.28442E+03  1.02137E+04 -1.28765E+04  2.64299E+03
 -8.61787E+03 -6.59911E+03 -7.48526E+01 -1.10256E+04  6.91635E+03 -5.27519E+03  7.05338E+03  2.40737E+03
  1.73588E+03  7.26299E+03 -6.65812E+03  8.81290E+03 -1.02209E+04  3.88668E+03 -1.01590E+04 -3.74447E+03
 -6.20942E+03 -1.22566E+04  3.21397E+03 -1.35699E+04  1.16602E+04 -8.49571E+03  1.28486E+04  2.42541E+03
  7.99766E+03  1.04811E+04 -1.02846E+03  1.24765E+04 -9.09563E+03  6.70899E+03 -9.77652E+03 -5.08268E+02
 -8.86011E+03 -8.22607E+03 -1.84947E+03 -9.17503E+03  4.93627E+03 -8.01948E+03  5.74347E+03 -3.22132E+03
  4.16564E+03  1.48098E+03 -7.46700E+02  1.78516E+03 -1.92913E+02 -2.11625E+03  1.53957E+03 -5.27200E+03
  8.73310E+03 -3.18986E+03  1.19306E+04  1.28240E+03  1.15713E+04  7.71998E+03  7.89116E+03  1.54592E+04
 -3.30594E+03  1.81968E+04 -1.50165E+04  1.29983E+04 -1.94100E+04  2.62099E+03 -1.57931E+04 -6.55124E+03
 -7.89520E+03 -1.30051E+04 -6.10822E+02 -1.09247E+04  3.90075E+03 -6.03849E+03  3.67430E+03 -4.18997E+03
  2.66474E+03 -2.36970E+03  3.22379E+03 -3.17939E+03  5.12621E+03 -2.43309E+03  6.35749E+03 -1.06622E+03
  8.19211E+03  1.99456E+03  4.22659E+03  6.76483E+03 -1.74469E+03  7.88740E+03 -8.65267E+03  5.93280E+03
 -1.07828E+04 -1.41401E+03 -6.27544E+03 -7.68982E+03 -2.57403E+02 -1.15477E+04  6.55598E+03 -1.16129E+04
  1.14329E+04 -6.58233E+03  1.43217E+04  1.88884E+03  1.01170E+04  1.01302E+04  1.76583E+03  1.27720E+04
 -5.21690E+03  1.10634E+04 -7.45317E+03  4.03323E+03 -4.99410E+03 -1.39285E+03 -2.14439E+03 -1.84724E+03
 -1.09092E+03  2.45099E+02 -1.43343E+03  2.09260E+03 -4.65655E+03  1.80038E+03 -7.28809E+03 -1.12808E+03
 -4.80562E+03 -7.63274E+03  2.00729E+01 -1.06026E+04  6.38375E+03 -9.73770E+03  1.00646E+04 -3.29575E+03
  1.00880E+04  5.04269E+03  5.26198E+03  8.61474E+03 -2.26378E+03  1.05440E+04 -7.37122E+03  6.29956E+03
 -9.32960E+03  3.80690E+02 -7.79624E+03 -6.57021E+03 -5.78241E+02 -8.61527E+03  4.36116E+03 -6.40308E+03
  6.59276E+03 -2.50456E+03  4.29038E+03  1.39955E+03  1.39982E+03  3.09609E+03  1.03179E+03  1.45747E+03
  2.27342E+03  8.06317E+02  2.63040E+03  1.67198E+03  2.94348E+03  3.67616E+03  2.54019E+03  5.27846E+03
 -2.09395E+03  8.23095E+03 -6.83010E+03  8.15122E+03 -1.00352E+04  2.01750E+03 -1.06783E+04 -3.88368E+03
 -4.68492E+03 -9.89161E+03  1.12876E+03 -1.11752E+04  6.12401E+03 -7.11654E+03  8.10992E+03 -2.01764E+03
  6.40759E+03  4.05281E+03  1.64123E+03  5.76787E+03 -2.99822E+03  3.59246E+03 -3.89360E+03 -3.23347E+02
 -1.95807E+03 -4.24583E+03  2.78789E+03 -4.52900E+03  4.15836E+03 -2.15235E+03  3.93414E+03  8.31527E+02
  2.14034E+03  1.94670E+03  1.26014E+03  1.52365E+03 -5.94508E+02  1.28433E+03  1.62411E+03 -7.05396E+02
  1.35728E+03 -4.13918E+02  4.25567E+03  1.78336E+03  1.73538E+03  5.58120E+03 -8.45257E+02  7.20786E+03
 -4.60624E+03  4.51264E+03 -6.44899E+03  1.19711E+03 -5.59827E+03 -2.36064E+03 -2.07208E+03 -3.57566E+03
  6.49800E+02 -4.06341E+03  2.59584E+03 -1.89184E+03  1.84753E+03  2.13201E+03 -9.89521E+02  2.98202E+03
 -4.12227E+03  1.72942E+03 -4.07407E+03 -2.43708E+03 -2.50057E+03 -5.59692E+03  7.84105E+02 -5.49917E+03
  3.11153E+03 -2.93358E+03  3.60403E+03 -2.65964E+02  3.47539E+03  1.14289E+03  3.00554E+02  2.90392E+03
 -1.70508E+03  7.95910E+02 -2.47947E+03 -1.64446E+03  1.20848E+03 -4.22595E+03  4.58117E+03 -3.57079E+03
  5.90733E+03  3.77299E+02  6.47266E+03  4.00415E+03  2.12878E+03  6.19942E+03 -2.10202E+03  5.83799E+03
 -5.15410E+03  2.37773E+03 -5.06381E+03 -6.65556E+02 -2.76901E+03 -4.05991E+03  1.26456E+03 -3.61701E+03
  3.79296E+03 -1.61359E+03  3.25349E+03  1.65620E+03  9.26452E+02  3.44572E+03 -1.64017E+02  3.10212E+03
 -1.60590E+03  2.16991E+03 -1.24978E+03  5.30976E+02 -8.64687E+02  7.39981E+02 -1.11197E+03  1.71875E+03
 -1.53196E+03  2.48021E+03 -4.09432E+03  1.57230E+03 -6.03396E+03  3.54886E+02 -7.01155E+03 -3.88195E+03
 -3.47772E+03 -7.69741E+03  1.69709E+03 -8.81272E+03  5.53496E+03 -7.40840E+03  8.86774E+03 -2.71546E+03
  8.05721E+03  1.42074E+03  4.30277E+03  5.57378E+03 -2.18536E+02  5.85626E+03 -2.52539E+03  4.74900E+03
 -3.48328E+03  1.77398E+03 -1.99061E+03 -5.47839E+02 -8.71394E+02 -1.69875E+02 -9.84907E+02 -3.19349E+02
 -1.60238E+03 -1.32906E+02 -1.67300E+03 -9.66355E+01 -2.35697E+02 -1.53502E+03 -6.22388E-01 -2.29953E+03
  2.75275E+03 -2.11425E+03  3.29624E+03  1.15172E+02  4.24569E+03  3.41536E+03  9.26730E+02  6.03708E+03
 -3.43043E+03  7.16435E+03 -6.14040E+03  3.89282E+03 -7.07827E+03 -7.06887E+02 -5.24668E+03 -4.33719E+03
 -2.28986E+03 -5.94576E+03  1.66529E+03 -5.31504E+03  3.87101E+03 -2.98392E+03  3.70018E+03  3.90410E+02
  2.50422E+03  1.78666E+03 -2.16955E+02  1.60989E+03 -1.09305E+03 -4.00631E+02 -1.23337E+02 -9.79679E+02
  1.81975E+03 -7.82090E+02  2.09630E+03  9.56944E+02  1.46816E+03  2.21965E+03  1.71468E+02  2.70931E+03
 -2.46256E+03  2.37839E+03 -3.68702E+03  3.64022E+02 -3.52759E+03 -2.54334E+03 -7.41887E+02 -4.75984E+03
  2.47648E+03 -3.98401E+03  4.15620E+03 -1.06903E+03  4.14292E+03  5.65281E+02  2.43583E+03  3.15845E+03
  6.67995E+02  3.59873E+03 -1.13082E+03  2.95732E+03 -2.13599E+03  2.06370E+03 -2.05231E+03  2.46295E+02
 -1.26875E+03 -1.61429E+02 -1.13819E+03  6.95103E+02 -1.67413E+03  6.35866E+02 -2.63207E+03 -7.74448E+02
 -3.41351E+03 -1.72790E+03 -8.93842E+02 -3.54465E+03  1.84003E+03 -4.42896E+03  3.37119E+03 -2.03367E+03
  3.78117E+03  6.40520E+02  1.36848E+03  2.36838E+03 -2.54044E+02  3.50722E+03 -2.47497E+03  2.70769E+03
