 $NMID ID='MM_0lb_SNR800_9hz_g55_27.RAW', FMTDAT='(8E13.5)'
 TRAMP=1., VOLUME=1. $END
  3.09303E+05  2.96327E+02  3.38227E+05  2.50801E+05  8.52944E+04  3.38606E+05 -1.32790E+05  2.51926E+05
 -1.90974E+05  8.41239E+04 -1.12290E+05 -3.21810E+04  1.83645E+02 -5.04319E+04  5.37608E+04 -5.89767E+02
  3.54448E+04  5.30958E+04 -1.65179E+04  7.60992E+04 -6.14973E+04  6.43051E+04 -8.54500E+04  3.27174E+04
 -8.25482E+04 -1.14530E+04 -5.82283E+04 -5.22279E+04 -1.53779E+04 -7.11236E+04  2.79296E+04 -4.65893E+04
  4.11105E+04  3.68823E+03  1.66757E+04  4.87694E+04 -3.47911E+04  4.86944E+04 -6.81576E+04  4.81420E+02
 -5.51594E+04 -5.81530E+04 -7.31923E+03 -7.91945E+04  3.49138E+04 -5.66520E+04  4.98772E+04 -1.84603E+04
  4.52917E+04  1.16458E+04  3.28870E+04  2.63598E+04  1.58485E+04  3.04563E+04 -5.77125E+03  2.77860E+04
 -2.22841E+04  1.15250E+04 -1.79596E+04 -5.94772E+03  7.04442E+03 -7.39940E+03  2.38665E+04  1.42400E+04
  6.97820E+03  3.77826E+04 -3.39087E+04  3.75690E+04 -6.57146E+04  2.34292E+03 -5.91398E+04 -4.47246E+04
 -1.26068E+04 -6.68051E+04  4.14867E+04 -4.77744E+04  6.16153E+04 -2.51337E+03  3.73418E+04  3.46387E+04
 -5.29229E+03  3.97122E+04 -3.21957E+04  1.94953E+04 -3.36782E+04 -3.21432E+03 -1.96103E+04 -1.20854E+04
 -9.81104E+03 -1.54365E+04 -7.48199E+02 -1.95367E+04  8.75993E+03 -2.35565E+04  1.55839E+04 -1.27154E+04
  1.02815E+04  6.43362E+03 -1.03163E+04  1.26100E+04 -2.33321E+04 -6.55735E+03 -8.64811E+03 -3.77376E+04
  2.54981E+04 -4.74328E+04  5.25225E+04 -2.12103E+04  4.88615E+04  2.11286E+04  1.75775E+04  4.73359E+04
 -1.69445E+04  3.63990E+04 -2.73599E+04  2.66140E+03 -1.20549E+04 -2.94028E+04  2.14803E+04 -3.70946E+04
  4.44729E+04 -1.11717E+04  4.06682E+04  2.53604E+04  2.17197E+04  5.20971E+04 -8.09307E+03  5.69398E+04
 -3.54244E+04  3.87589E+04 -4.83690E+04  1.12283E+04 -4.82048E+04 -1.90606E+04 -2.59267E+04 -4.22800E+04
  7.78335E+03 -4.22786E+04  3.46203E+04 -1.72385E+04  3.24207E+04  1.10688E+04  5.17603E+03  2.10688E+04
 -1.38630E+04  9.99728E+03 -1.13939E+04 -7.57088E+03  5.21764E+03 -1.14545E+04  1.85607E+04  5.36511E+03
  1.54188E+04  2.25469E+04 -5.23133E+03  2.73298E+04 -2.34944E+04  1.49847E+04 -3.17568E+04 -2.81427E+03
 -2.56597E+04 -1.83699E+04 -1.22729E+04 -2.56435E+04  4.63495E+03 -2.64177E+04  2.02492E+04 -2.37425E+04
  3.28644E+04 -1.44968E+04  3.86057E+04  5.06108E+03  2.71848E+04  2.49571E+04  4.41779E+03  4.19965E+04
 -2.05949E+04  3.45010E+04 -3.09251E+04  1.20530E+04 -2.29499E+04 -1.03729E+04 -5.08406E+03 -1.26913E+04
  1.02265E+03 -9.17294E+02 -8.18159E+03  8.65792E+03 -2.07144E+04  4.96011E+03 -2.02577E+04 -9.67714E+03
 -1.18098E+04 -2.37470E+04  6.26126E+03 -2.85117E+04  1.89975E+04 -1.98659E+04  2.28454E+04 -2.07028E+03
  1.46413E+04  1.64049E+04 -1.71615E+03  2.38479E+04 -1.68541E+04  1.33697E+04 -2.36849E+04 -5.09179E+03
 -1.77821E+04 -2.14081E+04 -2.31169E+03 -2.81978E+04  1.31423E+04 -2.38246E+04  2.35476E+04 -1.24159E+04
  2.25088E+04 -1.09159E+02  1.61395E+04  5.64701E+03  8.87831E+03  1.69278E+03  1.24747E+04 -2.32060E+03
  2.26176E+04  2.84755E+03  2.62598E+04  1.85118E+04  1.81608E+04  3.84792E+04 -2.55263E+03  4.50119E+04
 -2.56105E+04  3.81009E+04 -4.27974E+04  1.94614E+04 -4.60892E+04 -3.44941E+03 -3.72945E+04 -2.67694E+04
 -1.45028E+04 -3.79885E+04  1.33319E+04 -3.37684E+04  2.86184E+04 -1.57276E+04  2.46316E+04  7.60424E+03
  7.83577E+03  1.89284E+04 -1.17634E+04  1.61568E+04 -2.07995E+04  2.74576E+03 -1.54851E+04 -1.31723E+04
 -3.16143E+02 -2.04043E+04  1.06978E+04 -1.46166E+04  1.36346E+04 -1.40717E+03  3.70307E+03  8.73775E+03
 -8.96881E+03  4.50384E+03 -9.41667E+03 -6.99670E+03 -1.92512E+03 -1.84526E+04  1.21667E+04 -2.05795E+04
  2.32443E+04 -1.20376E+04  2.69571E+04  3.85792E+03  2.37820E+04  1.88143E+04  1.10046E+04  3.01419E+04
 -5.92757E+03  3.17629E+04 -2.10078E+04  1.96310E+04 -2.34094E+04  3.85541E+03 -1.57349E+04 -6.42536E+03
 -6.16137E+03 -7.84380E+03 -8.00642E+02  3.31614E+02 -2.88351E+03  3.73000E+03 -7.57485E+03  5.65777E+03
 -1.48554E+04 -6.89477E+02 -1.50712E+04 -1.21736E+04 -6.39783E+03 -1.96460E+04  6.53669E+03 -1.64392E+04
  1.33708E+04 -6.46273E+03  9.65075E+03  4.37956E+03 -5.25445E+02  6.73591E+03 -7.65250E+03 -1.05545E+01
 -7.61797E+03 -1.02265E+04 -1.27259E+03 -1.58517E+04  8.72980E+03 -1.70324E+04  2.06214E+04 -8.84324E+03
  2.46762E+04  2.47280E+03  1.76010E+04  1.48682E+04  3.10346E+03  1.96844E+04 -9.63216E+03  1.57302E+04
 -1.29937E+04  4.64433E+03 -6.74349E+03 -3.62745E+03  2.39673E+03 -4.77290E+03  8.65584E+03 -1.17313E+03
  7.81560E+03  7.23877E+03  8.94736E+02  1.29098E+04 -9.54561E+03  1.24375E+04 -1.55252E+04  2.81940E+03
 -1.12838E+04 -8.38875E+03  1.45554E+02 -1.37319E+04  9.20397E+03 -7.11443E+03  9.77517E+03  3.39445E+03
  2.35046E+03  1.12787E+04 -8.25603E+03  1.21750E+04 -1.40101E+04  5.48672E+03 -1.44406E+04 -4.91127E+03
 -8.25977E+03 -1.64366E+04  4.43524E+03 -1.86569E+04  1.59709E+04 -1.17265E+04  1.78368E+04  2.50788E+03
  1.02305E+04  1.36647E+04 -1.79622E+03  1.66834E+04 -1.21388E+04  8.80046E+03 -1.31775E+04 -1.24557E+03
 -1.08952E+04 -1.09811E+04 -1.93620E+03 -1.26597E+04  6.60864E+03 -9.85335E+03  8.03196E+03 -3.16941E+03
  5.37457E+03  2.04730E+03 -1.10916E+03  2.02173E+03 -7.49993E+02 -3.37275E+03  2.89801E+03 -8.11482E+03
  1.19277E+04 -5.08780E+03  1.69718E+04  1.86423E+03  1.62967E+04  1.16004E+04  1.03124E+04  2.20321E+04
 -5.51216E+03  2.43473E+04 -2.06290E+04  1.83837E+04 -2.65361E+04  3.17708E+03 -2.14219E+04 -9.65948E+03
 -1.07634E+04 -1.73578E+04 -1.87885E+02 -1.50326E+04  5.78141E+03 -8.49208E+03  5.51053E+03 -5.56752E+03
  3.86972E+03 -2.95212E+03  3.80076E+03 -4.35297E+03  5.76040E+03 -3.67609E+03  8.10556E+03 -1.78065E+03
  1.12151E+04  2.20683E+03  6.17323E+03  9.55521E+03 -2.14369E+03  1.15798E+04 -1.16319E+04  8.40517E+03
 -1.50918E+04 -1.45243E+03 -1.02543E+04 -1.09223E+04 -1.27505E+03 -1.68950E+04  9.07415E+03 -1.67018E+04
  1.70947E+04 -8.79985E+03  2.07616E+04  2.85997E+03  1.38708E+04  1.45346E+04  2.28596E+03  1.83124E+04
 -7.89097E+03  1.49144E+04 -1.09617E+04  5.18463E+03 -7.48082E+03 -1.54996E+03 -2.54952E+03 -2.07948E+03
 -1.44948E+03 -3.80821E+02 -2.15959E+03  2.88071E+03 -6.58246E+03  2.33837E+03 -1.06989E+04 -1.34373E+03
 -7.71237E+03 -1.08380E+04 -1.00204E+02 -1.54190E+04  9.53917E+03 -1.43855E+04  1.52723E+04 -3.97410E+03
  1.51768E+04  7.17142E+03  6.61515E+03  1.41274E+04 -3.64208E+03  1.55636E+04 -1.10180E+04  9.51263E+03
 -1.41354E+04  5.77716E+02 -1.09457E+04 -9.55581E+03 -1.25872E+03 -1.31110E+04  6.77471E+03 -9.92251E+03
  9.38712E+03 -3.16620E+03  6.46349E+03  2.81222E+03  1.89854E+03  4.47014E+03  1.14367E+03  2.33742E+03
  2.85475E+03  8.59194E+02  3.91622E+03  2.06620E+03  4.32038E+03  5.25707E+03  3.59378E+03  8.28161E+03
 -3.39927E+03  1.23956E+04 -1.07856E+04  1.16998E+04 -1.56798E+04  2.61778E+03 -1.64999E+04 -6.69151E+03
 -7.74799E+03 -1.60483E+04  2.36624E+03 -1.72029E+04  9.62181E+03 -1.10154E+04  1.31314E+04 -2.53599E+03
  9.27492E+03  6.30183E+03  1.94084E+03  8.58349E+03 -4.74058E+03  6.05081E+03 -6.24906E+03 -1.09282E+03
 -3.15841E+03 -6.90848E+03  3.51935E+03 -6.60158E+03  6.59274E+03 -3.41863E+03  6.26435E+03  1.61354E+03
  3.76892E+03  3.24147E+03  1.65346E+03  2.56781E+03 -9.27096E+02  2.07493E+03  1.67135E+03 -7.14742E+02
  2.71799E+03 -6.15071E+02  6.27596E+03  2.34159E+03  3.78504E+03  8.58390E+03 -1.58822E+03  1.09024E+04
 -7.43962E+03  7.49033E+03 -9.86365E+03  2.22150E+03 -9.24428E+03 -3.72959E+03 -3.47940E+03 -6.20400E+03
  1.09926E+03 -6.27047E+03  3.86108E+03 -2.84457E+03  3.87118E+03  2.85722E+03 -1.93665E+03  5.43855E+03
 -6.53118E+03  3.00386E+03 -7.54742E+03 -3.75039E+03 -4.39979E+03 -8.92300E+03  1.31192E+03 -8.83688E+03
  5.15926E+03 -5.23981E+03  6.92605E+03 -2.91443E+02  5.19527E+03  2.16971E+03  9.70400E+02  4.58923E+03
 -3.16746E+03  1.86016E+03 -3.98462E+03 -3.38909E+03  1.63899E+03 -7.18212E+03  7.89024E+03 -5.26477E+03
  9.84638E+03  7.14170E+02  9.71157E+03  7.18983E+03  3.17016E+03  1.04373E+04 -3.95327E+03  9.65834E+03
 -8.70339E+03  4.55310E+03 -8.81229E+03 -1.54153E+03 -4.68923E+03 -6.63384E+03  1.63721E+03 -6.51864E+03
  6.72528E+03 -3.00287E+03  4.84231E+03  2.78783E+03  1.95994E+03  6.01609E+03 -1.25387E+03  5.26272E+03
 -2.82382E+03  3.05421E+03 -2.29688E+03  1.07926E+03 -9.13567E+02  1.09934E+03 -1.68566E+03  1.94722E+03
 -2.71580E+03  4.11661E+03 -6.88694E+03  3.53579E+03 -1.05544E+04  5.71787E+02 -1.17222E+04 -7.11618E+03
 -6.14845E+03 -1.37838E+04  2.66191E+03 -1.63840E+04  9.97722E+03 -1.22253E+04  1.52793E+04 -4.62329E+03
  1.39850E+04  2.82211E+03  8.29342E+03  1.00608E+04  9.33146E+02  1.07731E+04 -4.14107E+03  8.44994E+03
 -6.11363E+03  3.53748E+03 -4.05628E+03 -1.16884E+03 -1.01456E+03 -7.56971E+02 -8.30109E+02 -3.68350E+02
 -1.99703E+03  1.84965E+01 -2.11827E+03 -4.34220E+02 -9.57740E+02 -2.30317E+03  2.83667E+02 -4.21654E+03
  4.65117E+03 -3.33125E+03  6.47226E+03  2.51469E+02  7.52399E+03  5.73316E+03  2.20374E+03  1.07979E+04
 -5.01582E+03  1.19695E+04 -1.17279E+04  7.04068E+03 -1.32656E+04 -1.17735E+03 -1.00954E+04 -7.80704E+03
 -4.19860E+03 -1.13466E+04  2.86421E+03 -1.04557E+04  7.21760E+03 -5.40540E+03  7.25347E+03  3.65728E+02
  3.75855E+03  3.93722E+03 -7.35131E+02  3.21427E+03 -1.86532E+03 -7.94703E+01  3.40650E+02 -2.36052E+03
  3.56832E+03 -1.75833E+03  4.18012E+03  1.67184E+03  2.91686E+03  4.23992E+03  8.07994E+01  5.22792E+03
 -4.97964E+03  5.15343E+03 -7.29659E+03  3.46350E+02 -6.44951E+03 -4.65426E+03 -1.08577E+03 -9.21358E+03
  5.13888E+03 -7.57852E+03  8.44661E+03 -2.24638E+03  8.28270E+03  2.27295E+03  5.00736E+03  6.90302E+03
  1.21931E+03  7.52220E+03 -2.51204E+03  5.94476E+03 -4.94807E+03  3.25544E+03 -3.72762E+03  1.47529E+02
 -2.17925E+03 -1.78368E+02 -2.38286E+03  1.30080E+03 -3.86257E+03  1.18757E+03 -5.74995E+03 -9.76030E+02
 -5.46175E+03 -3.95012E+03 -1.27952E+03 -7.70623E+03  3.26980E+03 -7.50121E+03  6.55814E+03 -3.82419E+03
  7.16577E+03  1.28641E+03  4.08720E+03  5.43743E+03 -5.29323E+02  7.56620E+03 -5.68713E+03  4.89460E+03
