 $NMID ID='MM_0lb_SNR800_14hz_g40_4.RAW', FMTDAT='(8E13.5)'
 TRAMP=1., VOLUME=1. $END
  3.09896E+05  2.59308E+02  3.37680E+05  2.50826E+05  8.46859E+04  3.37739E+05 -1.32379E+05  2.50603E+05
 -1.90010E+05  8.29829E+04 -1.11779E+05 -3.26174E+04  1.07561E+03 -5.04830E+04  5.38463E+04  8.07200E+01
  3.53304E+04  5.30085E+04 -1.68129E+04  7.54400E+04 -6.07918E+04  6.30070E+04 -8.39595E+04  3.16454E+04
 -8.07003E+04 -1.13940E+04 -5.69982E+04 -5.10116E+04 -1.50014E+04 -6.92473E+04  2.73188E+04 -4.54432E+04
  3.98934E+04  3.82385E+03  1.55345E+04  4.74141E+04 -3.43612E+04  4.68174E+04 -6.62703E+04 -3.35696E+02
 -5.27365E+04 -5.65230E+04 -6.61943E+03 -7.63764E+04  3.38761E+04 -5.43137E+04  4.73206E+04 -1.69859E+04
  4.29221E+04  1.14766E+04  3.16504E+04  2.51073E+04  1.58304E+04  2.89476E+04 -5.17149E+03  2.70347E+04
 -2.17058E+04  1.23411E+04 -1.89198E+04 -5.06402E+03  5.25879E+03 -7.30932E+03  2.22609E+04  1.20184E+04
  7.24920E+03  3.47656E+04 -3.15435E+04  3.50438E+04 -6.26477E+04  1.96376E+03 -5.66487E+04 -4.23927E+04
 -1.24119E+04 -6.25689E+04  3.94894E+04 -4.47185E+04  5.77945E+04 -2.19411E+03  3.34182E+04  3.17642E+04
 -6.12288E+03  3.51106E+04 -2.96541E+04  1.50299E+04 -2.94473E+04 -4.68397E+03 -1.61545E+04 -1.11006E+04
 -8.09824E+03 -1.24387E+04 -7.10448E+02 -1.77937E+04  7.28629E+03 -2.29698E+04  1.51900E+04 -1.36105E+04
  1.14495E+04  5.22917E+03 -7.97597E+03  1.32017E+04 -2.07636E+04 -3.95514E+03 -8.24599E+03 -3.30490E+04
  2.27538E+04 -4.28664E+04  4.72720E+04 -1.93103E+04  4.42888E+04  1.88257E+04  1.50128E+04  4.35864E+04
 -1.58675E+04  3.25104E+04 -2.47059E+04  1.57642E+03 -9.52116E+03 -2.77915E+04  2.09635E+04 -3.30689E+04
  4.05152E+04 -8.69514E+03  3.45873E+04  2.36705E+04  1.76025E+04  4.59775E+04 -7.89608E+03  4.90708E+04
 -3.08125E+04  3.26547E+04 -4.08154E+04  9.55177E+03 -4.15628E+04 -1.59974E+04 -2.26587E+04 -3.72353E+04
  7.59535E+03 -3.71798E+04  3.08695E+04 -1.41720E+04  2.86279E+04  1.09981E+04  3.62079E+03  1.88190E+04
 -1.34414E+04  7.86168E+03 -1.02399E+04 -7.73535E+03  6.28512E+03 -1.05028E+04  1.80472E+04  6.39187E+03
  1.32725E+04  2.19938E+04 -5.83296E+03  2.51006E+04 -2.21304E+04  1.06509E+04 -2.72066E+04 -5.09931E+03
 -1.96499E+04 -1.69570E+04 -7.80170E+03 -1.96682E+04  4.24890E+03 -1.84315E+04  1.50051E+04 -1.72076E+04
  2.51076E+04 -1.24684E+04  3.16078E+04  2.60927E+03  2.31516E+04  1.90870E+04  4.55515E+03  3.55474E+04
 -1.76231E+04  2.95901E+04 -2.74228E+04  1.01755E+04 -2.08514E+04 -1.04732E+04 -4.00684E+03 -1.34314E+04
  1.97933E+03 -3.23604E+03 -4.36542E+03  6.13737E+03 -1.54895E+04  5.14692E+03 -1.59368E+04 -6.58788E+03
 -9.48768E+03 -1.85822E+04  4.67016E+03 -2.22919E+04  1.49443E+04 -1.62153E+04  1.73921E+04 -1.74664E+03
  1.07356E+04  1.25015E+04 -7.51872E+02  1.84864E+04 -1.25736E+04  1.04859E+04 -1.82519E+04 -4.01605E+03
 -1.36610E+04 -1.66534E+04 -1.46837E+03 -2.18778E+04  9.90071E+03 -1.78595E+04  1.86448E+04 -9.01786E+03
  1.66769E+04  9.21289E+00  1.25131E+04  4.16668E+03  6.49419E+03  5.54269E+02  9.32321E+03 -1.66634E+03
  1.67028E+04  3.09715E+03  1.84854E+04  1.45060E+04  1.18412E+04  2.91174E+04 -3.19086E+03  3.29764E+04
 -1.87388E+04  2.60892E+04 -3.00449E+04  1.30981E+04 -3.17050E+04 -2.31865E+03 -2.66568E+04 -1.81447E+04
 -1.14789E+04 -2.57119E+04  8.99481E+03 -2.34358E+04  2.04084E+04 -1.21701E+04  1.83653E+04  5.08992E+03
  7.10952E+03  1.36156E+04 -8.53335E+03  1.21498E+04 -1.56496E+04  2.77605E+03 -1.17951E+04 -9.37542E+03
 -1.57439E+02 -1.50971E+04  7.83043E+03 -1.12685E+04  9.68441E+03 -1.09838E+03  2.18765E+03  6.32018E+03
 -6.69467E+03  2.31518E+03 -5.47531E+03 -5.33024E+03 -1.02887E+02 -1.30658E+04  9.44601E+03 -1.34311E+04
  1.57839E+04 -6.90330E+03  1.69296E+04  2.87220E+03  1.48099E+04  1.24788E+04  6.65484E+03  1.90595E+04
 -2.94445E+03  2.10816E+04 -1.30560E+04  1.30264E+04 -1.50883E+04  3.41347E+03 -1.06942E+04 -3.09430E+03
 -5.19423E+03 -4.53880E+03 -7.24439E+02  1.22406E+03 -2.02847E+03  2.63691E+03 -5.11414E+03  4.34428E+03
 -9.84723E+03 -6.82796E+02 -1.08762E+04 -8.55616E+03 -4.47135E+03 -1.42339E+04  4.59581E+03 -1.08737E+04
  9.03068E+03 -4.60878E+03  6.73474E+03  2.81087E+03  2.52997E+02  4.04221E+03 -4.89668E+03 -3.78120E+02
 -4.50942E+03 -6.95171E+03 -9.63117E+02 -9.73407E+03  5.54810E+03 -1.06366E+04  1.31985E+04 -5.65675E+03
  1.55902E+04  1.00571E+03  1.15495E+04  8.89209E+03  2.19397E+03  1.19095E+04 -6.74340E+03  1.07170E+04
 -8.52739E+03  3.51418E+03 -4.38770E+03 -1.90780E+03  1.53692E+03 -3.00172E+03  5.92035E+03 -1.11199E+03
  5.14190E+03  4.70019E+03  1.11714E+03  8.47268E+03 -6.13158E+03  8.25717E+03 -1.02152E+04  2.12147E+03
 -6.38379E+03 -5.18329E+03  2.35893E+02 -8.85322E+03  5.22633E+03 -4.29472E+03  5.47001E+03  1.79598E+03
  1.26556E+03  5.50615E+03 -5.60165E+03  7.17501E+03 -7.74501E+03  3.08408E+03 -7.18152E+03 -2.35450E+03
 -4.50258E+03 -8.85434E+03  2.29554E+03 -1.07036E+04  8.90852E+03 -6.47914E+03  9.77273E+03  1.54362E+03
  6.07378E+03  7.90106E+03 -2.51855E+02  9.74923E+03 -7.45065E+03  6.02637E+03 -7.62037E+03 -6.26555E+02
 -7.34418E+03 -6.52521E+03 -1.68930E+03 -7.27056E+03  3.58189E+03 -6.40859E+03  4.35058E+03 -3.15542E+03
  3.27567E+03  9.82223E+02 -3.23262E+02  1.53509E+03  8.04522E+01 -1.21067E+03  9.77048E+02 -3.78123E+03
  6.21838E+03 -2.36179E+03  8.80394E+03  1.31226E+03  8.96133E+03  5.22302E+03  6.89797E+03  1.13562E+04
 -2.39858E+03  1.34604E+04 -1.16471E+04  9.79882E+03 -1.50748E+04  2.00198E+03 -1.16101E+04 -4.94538E+03
 -6.08132E+03 -9.64605E+03 -3.86792E+02 -8.31829E+03  3.14140E+03 -3.99334E+03  2.57944E+03 -3.19478E+03
  2.18750E+03 -1.63274E+03  2.76252E+03 -3.04366E+03  4.20460E+03 -1.76011E+03  4.96987E+03  5.04019E+00
  6.29649E+03  1.52506E+03  2.65983E+03  5.69610E+03 -1.94815E+03  5.77645E+03 -6.56690E+03  4.50713E+03
 -8.02812E+03 -1.11984E+03 -4.28763E+03 -5.46511E+03 -4.14711E+02 -8.34403E+03  4.85279E+03 -8.69467E+03
  8.17829E+03 -4.92438E+03  1.05723E+04  9.82232E+02  7.53845E+03  6.99707E+03  1.08624E+03  9.61074E+03
 -3.19260E+03  8.47648E+03 -5.36161E+03  2.91516E+03 -3.17037E+03 -1.34706E+03 -1.19357E+03 -1.39405E+03
 -8.36628E+02  9.98812E+00 -1.30018E+03  2.47224E+03 -3.62696E+03  1.88576E+03 -5.99864E+03 -5.62290E+02
 -3.48076E+03 -5.96018E+03  6.54817E+02 -7.48617E+03  4.51373E+03 -7.16702E+03  7.06932E+03 -2.07477E+03
  6.93310E+03  3.90817E+03  3.44016E+03  6.45435E+03 -1.29115E+03  7.81830E+03 -4.96019E+03  5.02221E+03
 -7.02236E+03  8.45163E+02 -5.75661E+03 -4.44255E+03 -7.26633E+02 -5.85861E+03  2.90016E+03 -4.41254E+03
  4.54566E+03 -1.67246E+03  3.32362E+03  9.31185E+02  9.84421E+02  2.56279E+03  1.20548E+03  1.08145E+03
  2.10889E+03  8.33916E+02  1.74527E+03  1.35543E+03  2.00055E+03  3.00181E+03  1.94256E+03  3.45288E+03
 -2.03691E+03  5.53714E+03 -4.97866E+03  6.50057E+03 -6.53176E+03  1.59190E+03 -7.71244E+03 -2.13105E+03
 -3.80685E+03 -6.96021E+03  1.16331E+03 -8.01549E+03  3.83959E+03 -4.75582E+03  5.66315E+03 -1.46183E+03
  4.36714E+03  2.86612E+03  8.66417E+02  4.35895E+03 -1.80822E+03  2.55599E+03 -2.40874E+03 -2.89495E+02
 -1.10609E+03 -3.02327E+03  2.12408E+03 -3.01099E+03  2.73142E+03 -1.54168E+03  2.44168E+03  7.59294E+02
  1.50165E+03  1.15464E+03  1.41259E+03  5.55732E+02 -4.04095E+02  1.15722E+03  1.69753E+03  6.58373E+01
  8.80670E+02 -2.28966E+02  3.12540E+03  1.10954E+03  1.21725E+03  3.72667E+03 -4.53911E+02  5.19418E+03
 -3.15987E+03  2.68452E+03 -4.00763E+03  9.42523E+02 -3.71727E+03 -1.54088E+03 -1.23892E+03 -2.13819E+03
  6.12965E+02 -2.13308E+03  1.76275E+03 -1.14805E+03  1.34867E+03  1.81551E+03 -1.13942E+03  1.94070E+03
 -2.70524E+03  1.20525E+03 -2.94859E+03 -1.77661E+03 -1.84330E+03 -3.86699E+03  4.95712E+02 -3.46493E+03
  1.91640E+03 -1.78973E+03  2.52367E+03 -1.22009E+01  2.43296E+03  5.13464E+02  3.73108E+02  2.08486E+03
 -9.89290E+02  3.24301E+02 -1.67177E+03 -9.53253E+02  1.04433E+03 -2.45916E+03  3.53367E+03 -2.10988E+03
  3.59384E+03  5.22226E+02  4.75371E+03  2.49315E+03  1.43742E+03  3.83777E+03 -1.32630E+03  3.63655E+03
 -3.24615E+03  1.06159E+03 -3.18292E+03 -6.83688E+02 -1.76397E+03 -2.89565E+03  3.53963E+02 -2.24529E+03
  2.90605E+03 -1.51354E+03  1.78946E+03  1.19880E+03  6.82387E+02  2.39416E+03 -2.84856E+02  2.06696E+03
 -9.96920E+02  1.59587E+03 -1.19191E+03  1.20090E+02 -2.87463E+02  4.36416E+02 -9.11693E+02  8.54649E+02
 -1.34688E+03  1.73114E+03 -2.82866E+03  1.25552E+03 -4.03690E+03  2.12076E+02 -4.63206E+03 -2.54965E+03
 -2.05585E+03 -5.51528E+03  1.01503E+03 -5.93262E+03  3.26306E+03 -4.79093E+03  5.94178E+03 -2.00970E+03
  5.35215E+03  5.45108E+02  3.10031E+03  3.25731E+03 -2.48723E+02  3.49297E+03 -1.55124E+03  3.46993E+03
 -2.16798E+03  1.23321E+03 -9.66406E+02 -4.41282E+02 -5.58682E+02 -8.28895E+01 -7.73711E+02 -2.67846E+02
 -1.31733E+03 -1.67988E+02 -1.34854E+03 -3.95848E+01  2.62964E+02 -1.03735E+03 -6.93449E+01 -1.56011E+03
  2.37241E+03 -1.39749E+03  1.50469E+03  2.11184E+02  2.62882E+03  2.46191E+03 -1.22367E+02  3.76008E+03
 -2.01216E+03  4.92010E+03 -3.99688E+03  2.51188E+03 -4.39165E+03 -2.64058E+02 -3.29848E+03 -2.88268E+03
 -1.69046E+03 -3.63399E+03  8.73626E+02 -3.77898E+03  2.24399E+03 -1.62570E+03  2.44388E+03 -1.94000E+01
  1.34578E+03  1.07948E+03  1.09565E+02  1.08494E+03 -9.78698E+02  8.69491E+01 -2.30758E+02 -9.79485E+02
  1.33671E+03 -3.43948E+02  9.65301E+02  7.13245E+02  6.28613E+02  1.28177E+03  1.10257E+02  1.67007E+03
 -1.65137E+03  1.89922E+03 -2.10082E+03  2.38781E+02 -2.37164E+03 -1.73887E+03 -8.78262E+01 -3.27888E+03
  1.80262E+03 -2.54370E+03  2.27149E+03 -7.25857E+02  2.80680E+03  6.40951E+01  1.56229E+03  2.33289E+03
  8.73046E+02  2.05220E+03 -8.83745E+02  1.31759E+03 -1.88320E+03  9.35345E+02 -1.31727E+03  2.61272E+02
 -5.46025E+02 -1.93157E+02 -7.39571E+02  1.80800E+02 -8.33764E+02  4.56278E+02 -1.92195E+03 -4.83704E+02
 -2.13424E+03 -4.94234E+02 -5.30153E+02 -2.34404E+03  1.49764E+03 -2.76855E+03  2.05682E+03 -1.03269E+03
  2.27053E+03  3.22583E+02  6.38364E+02  1.26992E+03 -2.48619E+02  2.38624E+03 -1.94695E+03  1.78325E+03
