 $NMID ID='MM_0lb_SNR800_8hz_g60_41.RAW', FMTDAT='(8E13.5)'
 TRAMP=1., VOLUME=1. $END
  3.09734E+05  5.45016E+02  3.37905E+05  2.51067E+05  8.50804E+04  3.38545E+05 -1.32934E+05  2.51899E+05
 -1.91131E+05  8.44482E+04 -1.13095E+05 -3.21510E+04  2.72880E+02 -5.11330E+04  5.37599E+04 -8.42805E+02
  3.57503E+04  5.29432E+04 -1.63392E+04  7.62022E+04 -6.17392E+04  6.51855E+04 -8.55726E+04  3.25353E+04
 -8.31511E+04 -1.22212E+04 -5.88533E+04 -5.29171E+04 -1.54075E+04 -7.12113E+04  2.89166E+04 -4.68309E+04
  4.16171E+04  3.84238E+03  1.69588E+04  4.89553E+04 -3.52581E+04  4.90029E+04 -6.87893E+04  2.85694E+02
 -5.55123E+04 -5.83072E+04 -7.74536E+03 -7.97283E+04  3.52649E+04 -5.77556E+04  5.06047E+04 -1.86365E+04
  4.60729E+04  1.14608E+04  3.36926E+04  2.70407E+04  1.59156E+04  3.12376E+04 -6.35706E+03  2.81360E+04
 -2.28563E+04  1.18840E+04 -1.79045E+04 -5.77790E+03  7.77679E+03 -7.29556E+03  2.39735E+04  1.45496E+04
  6.79518E+03  3.82509E+04 -3.47710E+04  3.80914E+04 -6.72261E+04  2.57142E+03 -5.99416E+04 -4.54490E+04
 -1.26151E+04 -6.68968E+04  4.24549E+04 -4.86767E+04  6.24490E+04 -2.36476E+03  3.76338E+04  3.50873E+04
 -5.40074E+03  4.08985E+04 -3.29163E+04  1.99245E+04 -3.46762E+04 -3.07041E+03 -2.02621E+04 -1.23987E+04
 -9.82996E+03 -1.54188E+04 -1.62599E+02 -2.03889E+04  8.50692E+03 -2.37297E+04  1.61124E+04 -1.20338E+04
  9.93289E+03  5.95402E+03 -1.19083E+04  1.25361E+04 -2.43398E+04 -7.38502E+03 -8.58486E+03 -3.86789E+04
  2.63346E+04 -4.86724E+04  5.35037E+04 -2.12065E+04  5.01677E+04  2.13831E+04  1.78347E+04  4.82672E+04
 -1.72706E+04  3.74332E+04 -2.88536E+04  3.04467E+03 -1.25002E+04 -2.99180E+04  2.17503E+04 -3.80091E+04
  4.56034E+04 -1.21143E+04  4.23154E+04  2.52667E+04  2.26587E+04  5.29641E+04 -8.46988E+03  5.85202E+04
 -3.70611E+04  4.00737E+04 -4.97168E+04  1.17966E+04 -4.97685E+04 -1.92383E+04 -2.74148E+04 -4.35259E+04
  7.65423E+03 -4.38445E+04  3.55869E+04 -1.81454E+04  3.32574E+04  1.11315E+04  6.32821E+03  2.14058E+04
 -1.38902E+04  1.01103E+04 -1.13976E+04 -7.25622E+03  5.65196E+03 -1.16697E+04  1.96961E+04  5.00424E+03
  1.52546E+04  2.27824E+04 -4.97246E+03  2.78231E+04 -2.38782E+04  1.53620E+04 -3.28987E+04 -2.06613E+03
 -2.74829E+04 -1.90041E+04 -1.29497E+04 -2.68516E+04  4.16313E+03 -2.83022E+04  2.14844E+04 -2.47192E+04
  3.49785E+04 -1.47569E+04  4.00255E+04  5.76176E+03  2.84981E+04  2.62140E+04  4.50522E+03  4.32709E+04
 -2.11008E+04  3.58625E+04 -3.16388E+04  1.26605E+04 -2.26901E+04 -1.00420E+04 -5.27810E+03 -1.26697E+04
  4.18810E+02 -2.72660E+02 -9.42951E+03  9.09382E+03 -2.19120E+04  5.00497E+03 -2.15522E+04 -1.05977E+04
 -1.25546E+04 -2.51916E+04  6.27011E+03 -2.96665E+04  2.04176E+04 -2.12720E+04  2.47545E+04 -1.85348E+03
  1.61038E+04  1.72984E+04 -1.71330E+03  2.48401E+04 -1.88430E+04  1.42382E+04 -2.56369E+04 -5.00083E+03
 -1.82579E+04 -2.25659E+04 -2.72238E+03 -2.98534E+04  1.38544E+04 -2.51267E+04  2.53144E+04 -1.31533E+04
  2.41716E+04 -6.82446E+02  1.71440E+04  5.91895E+03  9.95483E+03  1.64320E+03  1.33535E+04 -2.56696E+03
  2.42944E+04  2.44361E+03  2.78648E+04  1.98802E+04  1.91852E+04  4.12349E+04 -2.74351E+03  4.89080E+04
 -2.73812E+04  4.13510E+04 -4.62964E+04  2.13885E+04 -4.94448E+04 -4.02934E+03 -3.96593E+04 -2.90005E+04
 -1.52033E+04 -4.13076E+04  1.45003E+04 -3.59117E+04  3.08272E+04 -1.64311E+04  2.67707E+04  8.82107E+03
  8.30805E+03  2.06146E+04 -1.29034E+04  1.70072E+04 -2.16635E+04  2.55806E+03 -1.62380E+04 -1.43277E+04
 -5.84343E+02 -2.11161E+04  1.18195E+04 -1.53828E+04  1.45880E+04 -1.49595E+03  4.06626E+03  9.88081E+03
 -9.79944E+03  5.19790E+03 -1.03650E+04 -7.34843E+03 -2.74752E+03 -2.02367E+04  1.26119E+04 -2.20265E+04
  2.57686E+04 -1.28421E+04  2.97144E+04  3.78249E+03  2.57973E+04  2.05295E+04  1.19425E+04  3.27350E+04
 -6.65105E+03  3.49280E+04 -2.30986E+04  2.15834E+04 -2.54056E+04  4.01739E+03 -1.71079E+04 -6.71965E+03
 -7.01453E+03 -8.27534E+03 -4.93930E+02 -2.46616E+02 -3.02634E+03  4.00942E+03 -8.54987E+03  5.96922E+03
 -1.59516E+04 -1.09685E+03 -1.66396E+04 -1.32091E+04 -6.30665E+03 -2.11896E+04  7.20412E+03 -1.76991E+04
  1.43533E+04 -7.31712E+03  1.00981E+04  4.25166E+03 -4.10865E+02  7.19600E+03 -9.17055E+03 -5.85321E+00
 -8.81300E+03 -1.16677E+04 -1.33043E+03 -1.72685E+04  1.01107E+04 -1.82673E+04  2.24360E+04 -9.86173E+03
  2.67062E+04  2.97314E+03  1.92986E+04  1.66038E+04  3.89798E+03  2.19872E+04 -1.07053E+04  1.74722E+04
 -1.42207E+04  5.00960E+03 -7.49647E+03 -3.71563E+03  2.34366E+03 -5.06197E+03  9.18635E+03 -8.29459E+02
  8.26347E+03  8.23483E+03  1.25232E+03  1.43717E+04 -1.00480E+04  1.32370E+04 -1.69477E+04  3.57210E+03
 -1.23843E+04 -9.58880E+03  2.09499E+02 -1.51667E+04  9.88566E+03 -7.76636E+03  1.11385E+04  4.29640E+03
  2.60942E+03  1.18002E+04 -9.43530E+03  1.33235E+04 -1.57817E+04  5.39748E+03 -1.65072E+04 -6.11935E+03
 -9.32308E+03 -1.84167E+04  4.49560E+03 -2.12929E+04  1.82088E+04 -1.23828E+04  1.95118E+04  3.33069E+03
  1.14631E+04  1.55172E+04 -2.21765E+03  1.85762E+04 -1.34712E+04  1.02474E+04 -1.47086E+04 -1.54745E+03
 -1.19460E+04 -1.18247E+04 -1.93150E+03 -1.36568E+04  7.37109E+03 -1.08548E+04  9.20952E+03 -3.34419E+03
  5.22236E+03  2.72610E+03 -1.57865E+03  1.98524E+03 -1.16364E+03 -4.19889E+03  3.47877E+03 -9.02681E+03
  1.36171E+04 -5.86058E+03  1.93821E+04  2.20874E+03  1.82377E+04  1.40453E+04  1.14144E+04  2.46250E+04
 -5.71249E+03  2.84332E+04 -2.35328E+04  2.10624E+04 -3.04437E+04  3.47801E+03 -2.46779E+04 -1.10399E+04
 -1.22651E+04 -1.98039E+04 -4.51403E+02 -1.70510E+04  5.93453E+03 -9.88618E+03  6.41194E+03 -6.52581E+03
  4.46334E+03 -3.75663E+03  4.52789E+03 -4.61702E+03  6.54663E+03 -4.39228E+03  9.23522E+03 -2.21954E+03
  1.24511E+04  3.30381E+03  6.91528E+03  1.09068E+04 -2.52461E+03  1.41358E+04 -1.36278E+04  1.04507E+04
 -1.74906E+04 -1.77699E+03 -1.15524E+04 -1.24229E+04 -1.89582E+03 -1.91129E+04  1.02895E+04 -1.91092E+04
  1.98299E+04 -1.03160E+04  2.32325E+04  3.50103E+03  1.60937E+04  1.68179E+04  2.16823E+03  2.13434E+04
 -9.31349E+03  1.69149E+04 -1.26164E+04  6.32449E+03 -8.61107E+03 -1.94824E+03 -3.60677E+03 -2.53067E+03
 -1.84269E+03 -8.04253E+02 -3.60893E+03  3.36306E+03 -7.65841E+03  2.82026E+03 -1.24316E+04 -1.92538E+03
 -8.83013E+03 -1.19874E+04 -4.32724E+02 -1.72856E+04  1.06796E+04 -1.62194E+04  1.79741E+04 -4.88900E+03
  1.79769E+04  8.91600E+03  8.59338E+03  1.60635E+04 -3.11834E+03  1.85466E+04 -1.28347E+04  1.12222E+04
 -1.71218E+04  6.22916E+02 -1.26494E+04 -1.02992E+04 -1.48343E+03 -1.49458E+04  8.05136E+03 -1.08940E+04
  1.16144E+04 -3.33282E+03  7.84785E+03  2.86270E+03  3.02171E+03  4.99730E+03  1.40526E+03  2.65202E+03
  2.96149E+03  1.27789E+03  4.47961E+03  2.43803E+03  5.86552E+03  5.85365E+03  4.28050E+03  9.97465E+03
 -3.37444E+03  1.45954E+04 -1.27726E+04  1.41590E+04 -1.95415E+04  3.32866E+03 -1.91982E+04 -8.42330E+03
 -9.20608E+03 -1.88910E+04  2.56193E+03 -2.02957E+04  1.12266E+04 -1.34534E+04  1.50621E+04 -3.38769E+03
  1.20820E+04  6.74907E+03  2.91947E+03  1.08901E+04 -5.61015E+03  6.91254E+03 -7.57536E+03 -1.37980E+03
 -3.72445E+03 -8.43152E+03  4.01900E+03 -8.57258E+03  7.72294E+03 -4.35337E+03  7.53356E+03  1.61294E+03
  4.83197E+03  4.04225E+03  1.39518E+03  3.38456E+03 -9.66656E+02  2.46345E+03  1.80265E+03 -2.31491E+02
  2.85846E+03 -1.07404E+03  7.85033E+03  2.95603E+03  4.69861E+03  1.02097E+04 -1.82429E+03  1.33153E+04
 -8.71924E+03  8.92101E+03 -1.18568E+04  2.61446E+03 -1.07553E+04 -4.38763E+03 -4.14460E+03 -7.45370E+03
  1.25991E+03 -7.14023E+03  4.91309E+03 -3.64032E+03  3.90187E+03  3.86711E+03 -1.70440E+03  6.32690E+03
 -7.83367E+03  3.51071E+03 -9.01348E+03 -4.23867E+03 -5.23468E+03 -9.78492E+03  1.81652E+03 -1.06773E+04
  6.24039E+03 -6.58889E+03  7.48262E+03 -1.08570E+03  6.91235E+03  3.07709E+03  5.99086E+02  5.36348E+03
 -3.82043E+03  1.69583E+03 -4.79215E+03 -4.23561E+03  1.82921E+03 -8.91385E+03  9.42558E+03 -6.77843E+03
  1.21495E+04  8.12470E+02  1.17815E+04  8.15570E+03  3.58584E+03  1.27960E+04 -4.76626E+03  1.21815E+04
 -1.05445E+04  5.42876E+03 -1.10756E+04 -1.48386E+03 -6.02071E+03 -8.12851E+03  1.87973E+03 -8.00732E+03
  7.78783E+03 -3.72619E+03  6.77863E+03  3.59878E+03  2.12786E+03  7.00027E+03 -1.22382E+03  6.04325E+03
 -3.67326E+03  3.67696E+03 -3.17414E+03  1.18267E+03 -1.16881E+03  1.12977E+03 -2.22574E+03  2.68409E+03
 -3.68749E+03  4.77386E+03 -8.10862E+03  4.83546E+03 -1.32448E+04  1.02512E+03 -1.46694E+04 -8.87325E+03
 -7.32569E+03 -1.69925E+04  3.38791E+03 -1.95185E+04  1.26886E+04 -1.52159E+04  1.85222E+04 -5.82093E+03
  1.75364E+04  4.06164E+03  1.06289E+04  1.19416E+04  1.30409E+03  1.33585E+04 -5.78238E+03  9.95676E+03
 -7.30577E+03  3.23789E+03 -4.91348E+03 -1.43027E+03 -1.14322E+03 -8.51988E+02 -8.13259E+02 -3.08749E+02
 -2.52513E+03  6.08072E+02 -2.65098E+03 -6.15196E+02 -1.05398E+03 -3.35530E+03  2.40936E+02 -5.00400E+03
  5.26900E+03 -4.32352E+03  8.40928E+03 -6.93295E+01  9.83567E+03  7.43516E+03  3.23521E+03  1.38678E+04
 -6.40820E+03  1.51143E+04 -1.46614E+04  8.80454E+03 -1.66247E+04 -1.39048E+03 -1.24992E+04 -1.05960E+04
 -5.26912E+03 -1.41850E+04  3.89003E+03 -1.26267E+04  9.11914E+03 -7.17146E+03  9.40350E+03  3.03856E+02
  4.81033E+03  4.55619E+03 -1.63246E+02  3.85190E+03 -2.90206E+03 -2.12692E+02  1.72509E+02 -3.35466E+03
  4.41230E+03 -2.41121E+03  5.46934E+03  1.63770E+03  3.84370E+03  5.10241E+03  6.60966E+01  7.41215E+03
 -6.15119E+03  6.24379E+03 -9.14133E+03  8.63957E+02 -8.13642E+03 -6.49320E+03 -1.34975E+03 -1.20731E+04
  6.56444E+03 -9.81498E+03  1.14451E+04 -3.20650E+03  1.03378E+04  2.74829E+03  6.09515E+03  8.76949E+03
  1.40985E+03  9.15057E+03 -3.81617E+03  7.33114E+03 -5.81924E+03  4.48811E+03 -4.86140E+03  4.35391E+02
 -2.51329E+03 -7.27288E+02 -2.70370E+03  1.24414E+03 -4.86101E+03  1.42643E+03 -6.78715E+03 -1.53051E+03
 -6.91736E+03 -5.04539E+03 -1.74232E+03 -9.70263E+03  4.34404E+03 -9.89970E+03  8.56594E+03 -3.96740E+03
  9.23013E+03  1.01338E+03  5.66822E+03  7.04237E+03 -7.06479E+02  9.62181E+03 -6.95588E+03  5.87260E+03
