 $NMID ID='MM_0lb_SNR800_19hz_g40_46.RAW', FMTDAT='(8E13.5)'
 TRAMP=1., VOLUME=1. $END
  3.09970E+05  2.55413E+02  3.37436E+05  2.50211E+05  8.40435E+04  3.36761E+05 -1.32187E+05  2.49975E+05
 -1.89429E+05  8.22008E+04 -1.10416E+05 -3.30113E+04  1.62042E+03 -5.01891E+04  5.40798E+04  1.68241E+02
  3.49038E+04  5.29216E+04 -1.69667E+04  7.43064E+04 -6.01091E+04  6.23183E+04 -8.24023E+04  3.12803E+04
 -7.90824E+04 -1.09913E+04 -5.57265E+04 -4.96892E+04 -1.51006E+04 -6.77537E+04  2.62385E+04 -4.46100E+04
  3.87921E+04  4.08539E+03  1.55329E+04  4.67569E+04 -3.36706E+04  4.58449E+04 -6.49163E+04 -7.89083E+02
 -5.13066E+04 -5.56980E+04 -6.11939E+03 -7.47960E+04  3.28952E+04 -5.27382E+04  4.54850E+04 -1.59193E+04
  4.08927E+04  1.09617E+04  3.03139E+04  2.37967E+04  1.57957E+04  2.79489E+04 -4.45053E+03  2.65919E+04
 -2.14866E+04  1.30387E+04 -1.92759E+04 -3.87603E+03  3.91465E+03 -7.76319E+03  2.07564E+04  1.05729E+04
  7.40107E+03  3.25480E+04 -3.01812E+04  3.32899E+04 -6.02898E+04  2.35533E+03 -5.46978E+04 -4.06522E+04
 -1.23780E+04 -5.99328E+04  3.76789E+04 -4.25896E+04  5.46882E+04 -1.97911E+03  3.11970E+04  3.01306E+04
 -6.77082E+03  3.21516E+04 -2.81617E+04  1.25244E+04 -2.68092E+04 -5.62818E+03 -1.35723E+04 -9.66342E+03
 -7.09483E+03 -1.09857E+04 -1.13945E+03 -1.60678E+04  6.31305E+03 -2.26055E+04  1.47458E+04 -1.42128E+04
  1.27320E+04  3.80359E+03 -5.63527E+03  1.29662E+04 -1.91031E+04 -1.96267E+03 -7.35769E+03 -2.95955E+04
  2.01205E+04 -3.95514E+04  4.39320E+04 -1.83783E+04  4.10645E+04  1.78485E+04  1.40623E+04  4.09395E+04
 -1.52254E+04  3.02938E+04 -2.29654E+04  6.38964E+02 -7.52623E+03 -2.57868E+04  2.02069E+04 -3.03818E+04
  3.70865E+04 -7.11852E+03  3.00768E+04  2.25807E+04  1.49569E+04  4.14127E+04 -7.67629E+03  4.37033E+04
 -2.74808E+04  2.87918E+04 -3.58227E+04  7.90740E+03 -3.74377E+04 -1.45609E+04 -2.05996E+04 -3.34666E+04
  6.49167E+03 -3.31976E+04  2.84992E+04 -1.21053E+04  2.61665E+04  1.09926E+04  2.53243E+03  1.73759E+04
 -1.29290E+04  6.94945E+03 -9.43086E+03 -7.60557E+03  6.21168E+03 -9.92884E+03  1.70180E+04  6.56480E+03
  1.19680E+04  2.16847E+04 -6.98410E+03  2.30936E+04 -2.14715E+04  8.39513E+03 -2.43369E+04 -6.72890E+03
 -1.57511E+04 -1.61838E+04 -4.91239E+03 -1.55243E+04  3.61370E+03 -1.34769E+04  1.14658E+04 -1.32449E+04
  2.00411E+04 -1.13976E+04  2.70767E+04  8.29670E+02  2.04671E+04  1.55773E+04  4.06588E+03  3.12001E+04
 -1.58663E+04  2.68584E+04 -2.51131E+04  9.24833E+03 -1.92886E+04 -1.05327E+04 -3.90088E+03 -1.39313E+04
  2.86753E+03 -4.52485E+03 -1.96011E+03  4.81081E+03 -1.18576E+04  5.22489E+03 -1.24605E+04 -4.64438E+03
 -8.37775E+03 -1.46850E+04  4.07441E+03 -1.82617E+04  1.17426E+04 -1.32415E+04  1.38153E+04 -1.21931E+03
  8.51586E+03  1.03973E+04 -5.13447E+02  1.49517E+04 -9.66450E+03  8.27233E+03 -1.46116E+04 -3.38027E+03
 -1.10036E+04 -1.33492E+04 -1.25840E+03 -1.84291E+04  8.39304E+03 -1.43203E+04  1.55438E+04 -6.57054E+03
  1.38934E+04  1.12729E+03  9.96674E+03  3.49832E+03  4.79636E+03  3.91865E+02  7.02759E+03 -1.42116E+03
  1.31118E+04  2.77267E+03  1.35007E+04  1.20066E+04  8.21134E+03  2.32034E+04 -3.07006E+03  2.47580E+04
 -1.47552E+04  1.84900E+04 -2.26778E+04  8.76449E+03 -2.31281E+04 -1.37046E+03 -2.01172E+04 -1.31335E+04
 -9.61481E+03 -1.88868E+04  6.21797E+03 -1.75295E+04  1.52684E+04 -1.04485E+04  1.46717E+04  3.20125E+03
  6.37024E+03  1.03162E+04 -6.69671E+03  1.01191E+04 -1.25303E+04  2.69984E+03 -9.91260E+03 -7.50297E+03
 -1.56106E+02 -1.18169E+04  5.68378E+03 -9.05045E+03  7.40190E+03 -1.46951E+03  1.35870E+03  4.69322E+03
 -5.34163E+03  1.20150E+03 -3.10101E+03 -4.37018E+03  9.66867E+02 -9.48341E+03  7.51905E+03 -9.22784E+03
  1.13165E+04 -4.09187E+03  1.07837E+04  2.57664E+03  9.33474E+03  8.42483E+03  4.42635E+03  1.27921E+04
 -1.15300E+03  1.47058E+04 -8.63908E+03  9.38043E+03 -1.02540E+04  2.90217E+03 -7.92524E+03 -1.69791E+03
 -4.28909E+03 -3.08491E+03 -9.96004E+02  1.57223E+03 -1.69443E+03  1.82064E+03 -3.37398E+03  3.64606E+03
 -7.73822E+03 -3.54986E+02 -8.40855E+03 -7.02344E+03 -3.39869E+03 -1.10035E+04  3.42156E+03 -8.02986E+03
  6.92116E+03 -3.71037E+03  5.13355E+03  1.90064E+03  8.63026E+02  2.66331E+03 -3.17647E+03 -2.42724E+02
 -2.92485E+03 -4.50638E+03 -6.24865E+02 -6.48236E+03  3.41748E+03 -6.99560E+03  8.83670E+03 -3.58777E+03
  1.06613E+04  6.96534E+02  8.10696E+03  5.37494E+03  1.93922E+03  7.88428E+03 -4.93311E+03  7.71818E+03
 -6.48671E+03  2.36771E+03 -2.98769E+03 -1.15723E+03  1.26748E+03 -1.85775E+03  4.45717E+03 -1.10766E+03
  3.77744E+03  3.01259E+03  9.68569E+02  5.62856E+03 -3.99373E+03  6.11928E+03 -7.56602E+03  1.54145E+03
 -4.57780E+03 -3.39576E+03  4.93152E+02 -6.42772E+03  3.47893E+03 -2.88448E+03  3.15291E+03  7.20886E+02
  5.78779E+02  2.94520E+03 -3.73294E+03  4.49682E+03 -4.34920E+03  2.14871E+03 -3.85690E+03 -7.00966E+02
 -2.70432E+03 -5.41443E+03  1.01756E+03 -6.28380E+03  5.44745E+03 -4.35435E+03  6.19976E+03  9.68819E+02
  4.22867E+03  4.72111E+03  9.45202E+01  6.76857E+03 -4.45259E+03  4.13237E+03 -4.66694E+03 -4.44916E+02
 -5.19035E+03 -4.91228E+03 -1.33407E+03 -4.51981E+03  2.54838E+03 -4.65622E+03  2.78593E+03 -2.88413E+03
  2.57878E+03  2.76424E+02  1.73503E+02  1.31449E+03  5.94968E+02 -1.71649E+02 -1.40163E+00 -1.60963E+03
  3.37731E+03 -5.65880E+02  4.49019E+03  6.22180E+02  5.18710E+03  2.68154E+03  5.11983E+03  6.59182E+03
 -1.07910E+03  7.50237E+03 -7.08044E+03  5.78990E+03 -9.05145E+03  9.68931E+02 -7.02864E+03 -2.24910E+03
 -4.01307E+03 -5.93130E+03 -3.43445E+02 -4.69859E+03  2.20393E+03 -1.64035E+03  1.50083E+03 -1.92081E+03
  1.03130E+03 -1.36011E+03  1.96442E+03 -2.06048E+03  3.20058E+03 -1.15805E+03  3.51954E+03  4.86741E+02
  4.33875E+03  1.16387E+03  9.32904E+02  3.21089E+03 -1.51207E+03  2.55767E+03 -4.06152E+03  2.29165E+03
 -4.24758E+03 -1.15235E+03 -1.42564E+03 -3.09158E+03  5.55719E+02 -4.51269E+03  3.05223E+03 -5.08489E+03
  4.35914E+03 -2.86799E+03  5.91754E+03 -5.27040E+01  4.44440E+03  3.73153E+03  1.23199E+03  5.46112E+03
 -1.94996E+03  5.18900E+03 -2.88956E+03  1.85587E+03 -1.59022E+03 -7.19829E+02 -1.84786E+02 -5.25099E+02
 -2.57722E+02  4.72689E+02 -8.02718E+02  1.83482E+03 -2.37053E+03  8.06023E+02 -3.84027E+03 -2.82241E+02
 -1.23433E+03 -3.86388E+03  1.02312E+03 -4.34856E+03  2.46079E+03 -3.96947E+03  3.21099E+03 -1.01986E+03
  3.71214E+03  2.14856E+03  1.56125E+03  2.93539E+03 -5.89428E+02  3.92203E+03 -2.27622E+03  2.35580E+03
 -3.51471E+03  5.20813E+02 -3.04901E+03 -2.42612E+03 -6.17673E+01 -2.76182E+03  1.54445E+03 -2.14893E+03
  2.34109E+03 -1.07762E+03  1.52599E+03  8.33910E+01  2.64034E+02  1.53407E+03  7.98465E+02  3.30763E+02
  1.55415E+03  3.89572E+02  9.12813E+02  8.64911E+02  1.22880E+03  1.93804E+03  1.16811E+03  1.39971E+03
 -1.42959E+03  2.33494E+03 -1.90632E+03  3.93895E+03 -2.89532E+03  1.26887E+03 -3.69791E+03 -1.65665E+02
 -1.19666E+03 -3.31892E+03  6.37400E+02 -4.31729E+03  1.62990E+03 -2.42134E+03  2.83170E+03 -7.03891E+02
  2.40075E+03  1.53662E+03  3.14189E+02  1.89669E+03 -6.39501E+02  1.20388E+03 -7.49487E+02  2.62180E+02
 -5.36325E+02 -1.66260E+03  1.06750E+03 -1.27211E+03  1.14019E+03 -8.23705E+02  1.28030E+03  5.49007E+01
  8.96147E+02  1.62854E+01  8.98194E+02 -2.48895E+02 -1.70936E+02  6.22161E+02  1.36680E+03 -7.07287E+01
 -2.32874E+02 -3.06228E+02  1.68976E+03  7.37646E+02  3.57094E+02  2.19450E+03 -2.29665E+02  2.65566E+03
 -1.32962E+03  9.64856E+02 -1.98407E+03  3.83369E+02 -1.97134E+03 -8.68952E+02 -1.16005E+02 -7.94285E+02
  3.21756E+02 -1.03728E+03  4.95845E+02 -5.68122E+02  6.96872E+02  1.01041E+03 -6.59140E+02  1.10098E+03
 -1.31094E+03  8.89836E+02 -1.04752E+03 -1.51033E+03 -5.53210E+02 -2.18274E+03  1.10694E+02 -1.34867E+03
  4.55181E+02 -5.27681E+02  8.56357E+02  1.78475E+02  1.55950E+03 -4.11223E+02  3.61953E+02  7.34068E+02
 -2.78017E+02  4.55065E+01 -8.32896E+02 -9.45807E+01  5.91344E+02 -5.49889E+02  1.34187E+03 -6.88755E+02
  1.05369E+03  2.82472E+02  2.71059E+03  5.59003E+02  1.12917E+03  1.47995E+03 -4.92739E+02  1.74550E+03
 -1.54254E+03  2.68987E+02 -1.12976E+03 -5.69338E+01 -6.58729E+02 -1.26712E+03  5.60976E+02 -3.17063E+02
  1.28491E+03 -6.90912E+02  8.13676E+02  3.30988E+02  2.93600E+02  1.38421E+03  3.65247E+02  9.32179E+02
 -1.14724E+02  1.19559E+03 -4.34581E+02  4.50990E+02  4.86828E+01  4.95015E+02 -5.99193E+02  6.22926E+02
 -7.11810E+02  9.79624E+02 -1.76387E+03  2.76303E+02 -1.59583E+03  1.07367E+02 -2.05450E+03 -6.00686E+02
 -9.30632E+02 -1.90514E+03  5.75044E+02 -2.48129E+03  8.22001E+02 -2.18129E+03  2.64447E+03 -8.93122E+02
  2.19339E+03 -2.20206E+02  1.18680E+03  1.28505E+03 -6.95057E+02  1.24337E+03 -7.26762E+02  1.07223E+03
 -7.51837E+02  8.26143E+02 -5.00592E+02 -2.35332E+02 -3.86824E+02  2.16367E+02 -4.35880E+02 -8.03289E+01
 -1.08632E+03  4.55245E+01 -8.01136E+02  1.36320E+02  3.36104E+02 -5.50634E+02 -4.12709E+02 -9.55460E+02
  1.37858E+03 -3.88870E+02  3.20508E+02  5.15789E+01  1.09579E+03  7.68424E+02 -3.51014E+02  1.35791E+03
 -6.93886E+02  1.77620E+03 -1.27987E+03  1.16188E+03 -1.46330E+03 -2.05434E+02 -8.89316E+02 -1.15783E+03
 -8.90400E+02 -1.07116E+03  2.97513E+02 -1.02359E+03  5.05064E+02 -3.17675E+02  4.89444E+02  4.43556E+01
  7.38746E+02  3.39873E+02 -1.05116E+02  9.05563E+01 -2.79998E+02  1.54049E+01 -5.48968E+00 -3.84222E+02
  4.62524E+02  3.84609E+02  6.31430E+02  7.57858E+02  2.34355E+02  2.00703E+02  2.67090E+02  3.18573E+02
 -4.97315E+02  7.71870E+02 -6.44085E+02  2.32091E+02 -5.01044E+02 -3.62486E+02  2.21114E+02 -7.69711E+02
  4.62512E+02 -6.34324E+02  4.02744E+02 -6.42661E+01  1.03865E+03 -4.30281E+02  5.09449E+02  8.77788E+02
  4.22119E+02  3.89835E+02 -5.26260E+00  1.80697E+02 -4.08857E+02  4.16527E+02 -5.22909E+02  2.59036E+02
  1.32952E+02  7.25474E+01 -4.42153E+02  9.58059E-01 -5.23882E+02 -6.45466E+01 -6.23936E+02 -4.08542E+02
 -1.07724E+03  2.90218E+02 -3.63730E+02 -5.25485E+02  7.73562E+02 -1.47448E+03  8.05590E+02 -2.26903E+02
  8.03010E+02 -2.50415E+02 -3.35406E+02  2.00944E+02 -2.57795E+02  8.29870E+02 -2.58854E+02  7.21925E+02
