 $NMID ID='MM_0lb_SNR800_19hz_g50_26.RAW', FMTDAT='(8E13.5)'
 TRAMP=1., VOLUME=1. $END
  3.10084E+05  3.55537E+02  3.37363E+05  2.50647E+05  8.45889E+04  3.37539E+05 -1.32329E+05  2.50055E+05
 -1.89874E+05  8.27399E+04 -1.11194E+05 -3.28390E+04  1.51104E+03 -5.04737E+04  5.39874E+04  2.06375E+02
  3.47352E+04  5.27397E+04 -1.69186E+04  7.49200E+04 -6.04414E+04  6.28220E+04 -8.31425E+04  3.14929E+04
 -7.95838E+04 -1.10667E+04 -5.60408E+04 -5.00623E+04 -1.46725E+04 -6.82199E+04  2.65277E+04 -4.47951E+04
  3.92576E+04  3.68850E+03  1.55857E+04  4.71364E+04 -3.38154E+04  4.62844E+04 -6.56937E+04 -7.29602E+02
 -5.21181E+04 -5.60072E+04 -6.35300E+03 -7.48368E+04  3.31555E+04 -5.33388E+04  4.63168E+04 -1.62338E+04
  4.18847E+04  1.12017E+04  3.08726E+04  2.44237E+04  1.54572E+04  2.81940E+04 -4.68697E+03  2.68141E+04
 -2.17363E+04  1.28152E+04 -1.90173E+04 -4.41967E+03  4.39681E+03 -7.62343E+03  2.11662E+04  1.12706E+04
  7.42852E+03  3.37319E+04 -3.07597E+04  3.43208E+04 -6.12952E+04  2.02262E+03 -5.57456E+04 -4.12277E+04
 -1.23421E+04 -6.09956E+04  3.82577E+04 -4.32660E+04  5.54553E+04 -1.91032E+03  3.21420E+04  3.07460E+04
 -6.50624E+03  3.33319E+04 -2.85724E+04  1.35068E+04 -2.75289E+04 -5.41905E+03 -1.44236E+04 -1.00367E+04
 -7.41675E+03 -1.17101E+04 -8.11981E+02 -1.68813E+04  6.67249E+03 -2.27409E+04  1.51142E+04 -1.39311E+04
  1.22568E+04  4.03978E+03 -6.48995E+03  1.29663E+04 -1.96018E+04 -2.34220E+03 -7.79898E+03 -3.04820E+04
  2.08833E+04 -4.06785E+04  4.50762E+04 -1.87634E+04  4.20512E+04  1.82483E+04  1.42156E+04  4.18278E+04
 -1.52646E+04  3.12481E+04 -2.33461E+04  9.36192E+02 -8.28558E+03 -2.66010E+04  2.05505E+04 -3.13695E+04
  3.81065E+04 -7.21800E+03  3.15339E+04  2.27999E+04  1.53835E+04  4.28471E+04 -7.74131E+03  4.50985E+04
 -2.85250E+04  3.02354E+04 -3.76477E+04  8.04252E+03 -3.83732E+04 -1.48783E+04 -2.12107E+04 -3.45820E+04
  6.98221E+03 -3.40167E+04  2.92797E+04 -1.24349E+04  2.69303E+04  1.06353E+04  2.97745E+03  1.75925E+04
 -1.30596E+04  7.19416E+03 -9.64251E+03 -7.50467E+03  6.12354E+03 -1.02045E+04  1.73784E+04  6.20817E+03
  1.22251E+04  2.17576E+04 -6.43893E+03  2.34052E+04 -2.14086E+04  9.13624E+03 -2.53155E+04 -6.18522E+03
 -1.66985E+04 -1.59411E+04 -5.36450E+03 -1.69045E+04  3.70517E+03 -1.47003E+04  1.24341E+04 -1.45171E+04
  2.13695E+04 -1.17815E+04  2.81285E+04  9.38514E+02  2.13038E+04  1.62412E+04  4.21836E+03  3.25048E+04
 -1.63042E+04  2.74125E+04 -2.60331E+04  9.59837E+03 -1.94805E+04 -1.02644E+04 -3.91993E+03 -1.42190E+04
  3.05302E+03 -4.21458E+03 -2.47827E+03  5.30558E+03 -1.30158E+04  5.33747E+03 -1.34453E+04 -5.21052E+03
 -8.31259E+03 -1.56251E+04  4.56341E+03 -1.90162E+04  1.27249E+04 -1.39652E+04  1.46025E+04 -1.48040E+03
  8.77246E+03  1.06755E+04 -5.01889E+02  1.56709E+04 -1.02415E+04  8.74325E+03 -1.51436E+04 -3.25864E+03
 -1.17813E+04 -1.39835E+04 -1.59726E+03 -1.88862E+04  8.53985E+03 -1.54079E+04  1.62759E+04 -7.29672E+03
  1.46045E+04  6.81167E+02  1.04657E+04  3.46189E+03  5.04846E+03  6.00754E+02  7.23050E+03 -1.41917E+03
  1.37608E+04  2.80683E+03  1.45531E+04  1.25778E+04  9.16251E+03  2.47258E+04 -3.23286E+03  2.62504E+04
 -1.55361E+04  2.00329E+04 -2.41017E+04  9.42709E+03 -2.45706E+04 -1.56946E+03 -2.12323E+04 -1.40949E+04
 -1.01653E+04 -2.04517E+04  6.44882E+03 -1.91213E+04  1.63612E+04 -1.07358E+04  1.53387E+04  3.49964E+03
  6.59818E+03  1.10847E+04 -6.91877E+03  1.04188E+04 -1.33250E+04  2.43406E+03 -1.02472E+04 -7.85061E+03
  1.35463E+02 -1.21307E+04  5.95149E+03 -9.27964E+03  7.74506E+03 -1.31633E+03  1.59114E+03  4.86610E+03
 -5.36381E+03  1.25110E+03 -3.64624E+03 -4.33179E+03  6.14144E+02 -9.89869E+03  7.77560E+03 -1.01431E+04
  1.24046E+04 -4.70642E+03  1.15414E+04  3.02001E+03  1.02660E+04  9.43795E+03  4.97973E+03  1.37051E+04
 -1.78843E+03  1.53612E+04 -9.48895E+03  1.02630E+04 -1.09955E+04  3.15693E+03 -8.17111E+03 -2.09021E+03
 -4.36131E+03 -3.20784E+03 -6.04350E+02  1.58009E+03 -2.15902E+03  1.85894E+03 -3.72381E+03  3.53495E+03
 -7.84827E+03 -4.76641E+02 -8.63137E+03 -7.11864E+03 -3.52791E+03 -1.16262E+04  3.48800E+03 -8.31898E+03
  7.20357E+03 -3.72376E+03  5.24509E+03  2.19876E+03  6.75392E+02  2.74940E+03 -3.40253E+03 -1.92748E+02
 -3.25560E+03 -5.26057E+03 -7.46028E+02 -7.04328E+03  3.77985E+03 -7.81647E+03  9.71689E+03 -3.94936E+03
  1.13793E+04  7.36284E+02  8.46226E+03  5.66775E+03  1.97900E+03  8.17620E+03 -4.97344E+03  8.28143E+03
 -6.91154E+03  2.78469E+03 -3.56771E+03 -1.25147E+03  1.51146E+03 -1.70950E+03  4.77594E+03 -8.49701E+02
  3.83119E+03  3.19013E+03  1.17674E+03  6.15542E+03 -4.34471E+03  6.19746E+03 -7.78878E+03  1.73245E+03
 -4.48279E+03 -3.63259E+03  6.28429E+01 -6.41596E+03  3.58973E+03 -3.25477E+03  3.26772E+03  6.45407E+02
  3.82491E+02  3.04018E+03 -4.14804E+03  4.73562E+03 -4.70530E+03  2.44058E+03 -4.24124E+03 -8.88073E+02
 -2.87346E+03 -5.78936E+03  1.14258E+03 -6.89314E+03  5.70298E+03 -4.68869E+03  6.22918E+03  9.70952E+02
  4.58567E+03  4.97362E+03  6.48759E+01  7.16474E+03 -5.03481E+03  4.18460E+03 -5.07653E+03 -1.18193E+02
 -5.58100E+03 -5.16550E+03 -1.45208E+03 -4.83458E+03  2.51855E+03 -4.61212E+03  2.97490E+03 -2.74529E+03
  2.87647E+03  1.87311E+02  3.92245E+01  1.06178E+03  5.29181E+02 -1.85032E+02  1.47803E+02 -1.77503E+03
  3.60894E+03 -6.82921E+02  5.07060E+03  4.76991E+02  5.14150E+03  2.91631E+03  4.93917E+03  6.84900E+03
 -9.89312E+02  8.28077E+03 -7.21241E+03  6.22317E+03 -9.63312E+03  1.49462E+03 -7.29875E+03 -2.31572E+03
 -3.83760E+03 -6.25595E+03 -4.16776E+02 -4.88481E+03  1.91749E+03 -1.88040E+03  1.74350E+03 -2.01175E+03
  1.26937E+03 -1.39816E+03  2.13243E+03 -2.55998E+03  3.42279E+03 -1.06155E+03  3.34061E+03  4.42258E+02
  4.49472E+03  1.22775E+03  9.77668E+02  3.24597E+03 -1.33487E+03  2.22824E+03 -4.12482E+03  2.47948E+03
 -4.81605E+03 -1.01360E+03 -1.48123E+03 -3.37468E+03  4.05079E+02 -4.74159E+03  2.86192E+03 -5.06876E+03
  4.74666E+03 -3.16047E+03  6.12708E+03  1.80375E+02  4.53292E+03  4.11496E+03  1.02945E+03  5.66613E+03
 -2.08650E+03  5.62475E+03 -3.20815E+03  1.62918E+03 -1.39150E+03 -8.37851E+02 -5.00816E+02 -3.23156E+02
 -5.76371E+02  6.66804E+02 -9.62058E+02  1.73490E+03 -2.35452E+03  1.18103E+03 -3.69641E+03 -4.28959E+02
 -1.36256E+03 -4.02283E+03  9.78023E+02 -4.54092E+03  2.23919E+03 -4.30130E+03  2.96487E+03 -1.02884E+03
  3.83063E+03  2.18257E+03  1.71413E+03  3.01778E+03 -5.42801E+02  4.16339E+03 -2.47690E+03  2.47745E+03
 -3.43555E+03  8.17327E+02 -3.04693E+03 -2.09274E+03 -1.04495E+02 -2.91773E+03  1.42602E+03 -1.96720E+03
  2.38670E+03 -1.36369E+03  1.74148E+03  5.52921E+02  4.24148E+02  1.57642E+03  5.69800E+02  4.84312E+02
  1.32072E+03  5.60202E+02  9.39295E+02  7.69458E+02  7.96433E+02  2.24091E+03  1.36026E+03  1.77330E+03
 -1.52696E+03  2.72018E+03 -2.23476E+03  3.51345E+03 -2.82005E+03  8.65039E+02 -3.87709E+03 -9.55875E+01
 -1.41778E+03 -3.42142E+03  3.46531E+02 -4.34574E+03  1.84996E+03 -2.27746E+03  2.87879E+03 -9.27030E+02
  2.23310E+03  1.40540E+03  2.82566E+02  2.28405E+03 -5.62532E+02  1.19279E+03 -8.26164E+02  1.35912E+02
 -4.29579E+02 -1.41292E+03  1.32104E+03 -1.43026E+03  1.52715E+03 -6.51761E+02  1.23329E+03  5.31008E+02
  1.03536E+03  1.18802E+02  8.12519E+02 -3.06996E+02 -3.37747E+02  8.61361E+02  1.72457E+03 -2.60280E+02
 -3.32949E+01 -4.20040E+02  1.78689E+03  4.01272E+02  1.05512E+01  2.38267E+03 -2.59075E+02  2.64717E+03
 -1.59503E+03  1.00747E+03 -1.45484E+03  2.08782E+02 -1.83507E+03 -6.72571E+02 -1.85950E+02 -9.51370E+02
  1.97108E+02 -1.19916E+03  9.38619E+02 -9.01651E+02  3.87548E+02  1.55738E+03 -5.77246E+02  7.30997E+02
 -1.33121E+03  7.20859E+02 -9.53037E+02 -1.17809E+03 -5.99025E+02 -2.06772E+03  1.38499E+02 -9.89994E+02
  3.20261E+02 -3.69160E+02  5.30282E+02  2.86066E+02  1.21403E+03 -2.11899E+02  3.23153E+02  8.50640E+02
 -2.50519E+02  1.51536E+02 -9.18727E+02 -7.13127E+01  8.43770E+02 -7.97738E+02  1.65539E+03 -7.14068E+02
  1.08630E+03  3.79698E+02  2.77896E+03  6.67735E+02  9.17134E+02  1.45599E+03 -1.44666E+02  1.39888E+03
 -1.20768E+03  1.77032E+02 -1.30655E+03 -3.16231E+02 -7.96670E+02 -1.35241E+03  4.06397E+02 -2.64345E+02
  1.40562E+03 -6.68078E+02  4.30981E+02  7.32276E+02  1.00582E+02  1.22511E+03  2.47226E+02  1.11260E+03
 -2.39641E+02  1.17524E+03 -4.30033E+02  1.10692E+02  4.66999E+01  3.23088E+02 -6.93544E+02  6.56460E+02
 -6.86211E+02  9.07000E+02 -1.63045E+03  2.24558E+02 -1.30874E+03  2.91510E+02 -2.20979E+03 -9.13164E+02
 -8.39750E+02 -1.97831E+03  3.52462E+02 -2.45291E+03  8.06543E+02 -2.07560E+03  2.44500E+03 -8.27080E+02
  2.10972E+03 -1.56210E+02  1.07786E+03  1.34951E+03 -5.39390E+02  1.18159E+03 -6.49680E+02  1.50903E+03
 -6.64938E+02  5.84761E+02 -4.53948E+02 -8.97494E+01 -4.62035E+02  3.41986E+02 -5.06084E+02 -3.22933E+01
 -1.27382E+03 -2.50460E+02 -6.87656E+02  2.56900E+02  3.42121E+02 -2.42073E+02 -5.50382E+02 -5.67750E+02
  9.16492E+02 -6.40095E+02  1.47459E+02  2.89592E+02  9.46500E+02  8.71451E+02 -3.26458E+02  1.04492E+03
 -7.31389E+02  1.97093E+03 -1.67140E+03  1.14823E+03 -1.52579E+03 -2.14210E+02 -1.11702E+03 -9.99219E+02
 -6.84263E+02 -1.34723E+03  3.58642E+02 -1.03822E+03  4.10965E+02 -4.30496E+02  3.35137E+02  2.26522E+02
  3.33368E+02  3.51871E+01  3.13488E+01  4.14024E+02 -2.92693E+02 -2.29933E+02  1.92702E+02 -3.78610E+02
  3.40285E+02  2.80475E+02  4.15186E+02  5.45646E+02 -2.56418E+02  5.91047E+02  9.26060E+01  4.54754E+02
 -7.28927E+02  2.37418E+02 -6.67339E+02  1.04077E+02 -5.79193E+02 -3.54393E+02  1.61827E+02 -1.21061E+03
  3.25364E+02 -4.28146E+02  1.13479E+02 -1.26557E+02  9.09142E+02 -7.06029E+02  1.51838E+02  4.73972E+02
  7.38637E+02  3.75702E+02  1.60262E+02  6.17764E+02 -3.82050E+02  8.42350E+02 -3.74135E+02  2.75702E+02
 -1.04318E+02 -1.18806E+02 -3.33368E+02  3.45793E+02 -3.72210E+02 -7.45790E+01 -6.40249E+02 -9.14106E+01
 -9.08389E+02  3.66667E+02 -3.85510E+02 -9.92119E+02  6.32936E+02 -1.45984E+03  8.71077E+02 -3.00924E+02
  7.55417E+02 -8.39004E+01 -3.76166E+02  1.60183E+02  1.65515E+02  8.30773E+02  1.65430E+02  5.21547E+02
