 $NMID ID='MM_0lb_SNR800_12hz_g60_82.RAW', FMTDAT='(8E13.5)'
 TRAMP=1., VOLUME=1. $END
  3.09471E+05  5.86852E+02  3.37508E+05  2.50710E+05  8.49880E+04  3.38370E+05 -1.32925E+05  2.51437E+05
 -1.90641E+05  8.35437E+04 -1.12321E+05 -3.21151E+04  1.24406E+02 -5.04005E+04  5.34110E+04 -4.83317E+02
  3.55970E+04  5.24558E+04 -1.67291E+04  7.60997E+04 -6.10147E+04  6.42687E+04 -8.50913E+04  3.26636E+04
 -8.21207E+04 -1.14978E+04 -5.82049E+04 -5.22828E+04 -1.50072E+04 -7.08849E+04  2.79201E+04 -4.65632E+04
  4.08968E+04  3.63299E+03  1.70731E+04  4.84205E+04 -3.48759E+04  4.78790E+04 -6.78509E+04  1.17187E+02
 -5.45906E+04 -5.78336E+04 -7.12660E+03 -7.85416E+04  3.44820E+04 -5.66710E+04  4.95367E+04 -1.84615E+04
  4.46019E+04  1.18418E+04  3.29133E+04  2.61588E+04  1.58843E+04  3.03812E+04 -6.06098E+03  2.80305E+04
 -2.21792E+04  1.19812E+04 -1.81040E+04 -5.37136E+03  6.62490E+03 -6.93624E+03  2.31766E+04  1.33367E+04
  7.08093E+03  3.67337E+04 -3.32444E+04  3.65998E+04 -6.54722E+04  2.18449E+03 -5.84356E+04 -4.36354E+04
 -1.25184E+04 -6.47930E+04  4.12178E+04 -4.67721E+04  6.01196E+04 -2.39054E+03  3.60701E+04  3.39662E+04
 -5.40413E+03  3.86057E+04 -3.16819E+04  1.77851E+04 -3.27836E+04 -3.92924E+03 -1.85615E+04 -1.18545E+04
 -9.09653E+03 -1.43052E+04 -8.52552E+02 -1.90383E+04  8.22083E+03 -2.33523E+04  1.58645E+04 -1.31474E+04
  1.09508E+04  5.96938E+03 -9.97790E+03  1.31658E+04 -2.28075E+04 -6.04799E+03 -7.94158E+03 -3.66150E+04
  2.39945E+04 -4.59140E+04  5.09666E+04 -2.03871E+04  4.74976E+04  2.05996E+04  1.70182E+04  4.59905E+04
 -1.63229E+04  3.55774E+04 -2.70165E+04  2.58349E+03 -1.12259E+04 -2.92093E+04  2.15512E+04 -3.59828E+04
  4.31788E+04 -1.03423E+04  3.87701E+04  2.44037E+04  2.07072E+04  4.96709E+04 -8.05418E+03  5.42232E+04
 -3.43523E+04  3.68406E+04 -4.58887E+04  1.05551E+04 -4.57441E+04 -1.80204E+04 -2.53982E+04 -4.08187E+04
  7.69039E+03 -4.08082E+04  3.32057E+04 -1.64961E+04  3.11379E+04  1.10974E+04  4.76215E+03  2.02388E+04
 -1.39405E+04  9.24663E+03 -1.08809E+04 -7.47301E+03  5.75317E+03 -1.09953E+04  1.83838E+04  5.84749E+03
  1.46525E+04  2.30206E+04 -5.49999E+03  2.63413E+04 -2.31091E+04  1.29588E+04 -3.05452E+04 -3.85556E+03
 -2.39687E+04 -1.80455E+04 -1.05167E+04 -2.38826E+04  4.43867E+03 -2.35632E+04  1.85967E+04 -2.14475E+04
  3.03506E+04 -1.40201E+04  3.65208E+04  4.28973E+03  2.58466E+04  2.31800E+04  4.15657E+03  3.96647E+04
 -1.90281E+04  3.27252E+04 -2.93904E+04  1.13221E+04 -2.19022E+04 -1.02387E+04 -4.47691E+03 -1.29504E+04
  1.31780E+03 -1.54052E+03 -6.59172E+03  7.68769E+03 -1.87430E+04  4.83007E+03 -1.87906E+04 -9.18746E+03
 -1.15079E+04 -2.17991E+04  5.57868E+03 -2.61219E+04  1.73639E+04 -1.83650E+04  2.13325E+04 -1.63447E+03
  1.33811E+04  1.49480E+04 -1.13685E+03  2.17130E+04 -1.56068E+04  1.25763E+04 -2.16317E+04 -4.62163E+03
 -1.63796E+04 -1.96566E+04 -1.55655E+03 -2.62689E+04  1.14782E+04 -2.16845E+04  2.18828E+04 -1.08695E+04
  2.03792E+04  1.60100E+02  1.44994E+04  5.06379E+03  8.03206E+03  1.62579E+03  1.12854E+04 -1.73739E+03
  2.03448E+04  2.79220E+03  2.34341E+04  1.73744E+04  1.58279E+04  3.51127E+04 -2.74825E+03  4.07853E+04
 -2.30530E+04  3.33475E+04 -3.78384E+04  1.71321E+04 -4.02436E+04 -2.83004E+03 -3.28495E+04 -2.34461E+04
 -1.33428E+04 -3.35119E+04  1.15803E+04 -2.95484E+04  2.55382E+04 -1.44952E+04  2.21971E+04  6.86676E+03
  7.80003E+03  1.70552E+04 -1.04883E+04  1.45282E+04 -1.84011E+04  2.57001E+03 -1.40987E+04 -1.17622E+04
 -2.07051E+02 -1.74478E+04  9.13695E+03 -1.29526E+04  1.22028E+04 -1.52281E+03  2.97301E+03  7.79793E+03
 -8.01068E+03  3.41357E+03 -7.96925E+03 -5.94287E+03 -1.43618E+03 -1.62735E+04  1.05709E+04 -1.77104E+04
  2.04541E+04 -9.43306E+03  2.28229E+04  3.45331E+03  1.95098E+04  1.62421E+04  9.40366E+03  2.59201E+04
 -4.23248E+03  2.75853E+04 -1.78552E+04  1.72525E+04 -1.96736E+04  3.96738E+03 -1.36500E+04 -5.00127E+03
 -6.02261E+03 -6.01347E+03 -4.66168E+02  5.12969E+02 -2.31542E+03  3.19287E+03 -6.29474E+03  5.02409E+03
 -1.24512E+04 -6.38959E+02 -1.30857E+04 -1.08089E+04 -5.40547E+03 -1.75016E+04  5.62156E+03 -1.37623E+04
  1.12781E+04 -5.92131E+03  7.96854E+03  3.82831E+03 -7.55880E+01  5.46768E+03 -6.82927E+03 -1.67007E+02
 -6.56371E+03 -8.89122E+03 -1.12488E+03 -1.31293E+04  8.23137E+03 -1.41534E+04  1.75809E+04 -7.59073E+03
  2.03076E+04  2.11467E+03  1.52966E+04  1.21184E+04  2.77589E+03  1.60535E+04 -8.31682E+03  1.36167E+04
 -1.13680E+04  3.89010E+03 -5.71425E+03 -3.10719E+03  1.97967E+03 -3.85284E+03  7.81465E+03 -1.08769E+03
  6.55681E+03  5.99542E+03  1.26753E+03  1.09684E+04 -7.94808E+03  1.03596E+04 -1.35529E+04  2.63533E+03
 -9.41284E+03 -7.05144E+03  3.94466E+02 -1.17842E+04  7.64416E+03 -5.62394E+03  7.64944E+03  3.05375E+03
  1.68395E+03  8.12722E+03 -6.95949E+03  9.53876E+03 -1.14355E+04  4.19211E+03 -1.13860E+04 -4.12135E+03
 -6.85989E+03 -1.30380E+04  3.12332E+03 -1.51098E+04  1.27283E+04 -9.08430E+03  1.39489E+04  2.27895E+03
  8.19947E+03  1.11878E+04 -1.23236E+03  1.36031E+04 -9.55108E+03  7.45675E+03 -1.05837E+04 -1.06804E+03
 -8.73666E+03 -9.05091E+03 -1.48817E+03 -1.00813E+04  4.88353E+03 -8.18640E+03  6.51008E+03 -3.43317E+03
  4.38906E+03  1.66821E+03 -9.32670E+02  1.81313E+03 -9.89154E+01 -2.23638E+03  1.87645E+03 -6.10128E+03
  9.16608E+03 -3.87345E+03  1.29094E+04  1.60616E+03  1.25534E+04  8.53792E+03  8.83554E+03  1.69589E+04
 -3.50788E+03  1.93747E+04 -1.61526E+04  1.42587E+04 -2.09395E+04  3.11244E+03 -1.68014E+04 -7.48476E+03
 -8.57574E+03 -1.39340E+04 -2.36252E+02 -1.18487E+04  4.26614E+03 -6.30502E+03  4.32626E+03 -4.35926E+03
  3.06348E+03 -2.22875E+03  3.45589E+03 -3.42267E+03  4.99039E+03 -2.69110E+03  6.28417E+03 -8.95533E+02
  8.58801E+03  2.07900E+03  4.32708E+03  7.39731E+03 -2.12934E+03  8.64644E+03 -9.31924E+03  6.64280E+03
 -1.15137E+04 -9.51588E+02 -6.85996E+03 -8.08864E+03 -8.11146E+02 -1.23613E+04  6.91856E+03 -1.24370E+04
  1.29321E+04 -7.13638E+03  1.51488E+04  1.93181E+03  1.05475E+04  1.07694E+04  1.92909E+03  1.41284E+04
 -5.84027E+03  1.10064E+04 -7.94254E+03  3.94118E+03 -5.54664E+03 -1.60404E+03 -2.07936E+03 -1.45388E+03
 -1.28244E+03  2.30298E+02 -1.87377E+03  2.73636E+03 -5.23392E+03  1.97768E+03 -7.96887E+03 -1.14488E+03
 -5.47477E+03 -8.17938E+03  5.41466E+01 -1.12866E+04  6.94640E+03 -1.05479E+04  1.08669E+04 -3.19772E+03
  1.08394E+04  5.29716E+03  5.02751E+03  9.80853E+03 -2.74290E+03  1.11914E+04 -7.90186E+03  7.05579E+03
 -1.02148E+04  3.63744E+02 -8.30051E+03 -7.06641E+03 -9.75267E+02 -9.05944E+03  5.11656E+03 -6.55883E+03
  6.91520E+03 -2.23291E+03  4.86106E+03  2.09089E+03  1.76793E+03  3.29575E+03  1.29569E+03  1.43076E+03
  2.12153E+03  8.33909E+02  2.54748E+03  1.66890E+03  3.12420E+03  4.23379E+03  3.00616E+03  5.83920E+03
 -2.16170E+03  8.52889E+03 -7.44849E+03  9.23629E+03 -1.08303E+04  2.45826E+03 -1.11969E+04 -4.69039E+03
 -5.07705E+03 -1.10048E+04  1.61515E+03 -1.20370E+04  6.24103E+03 -7.36035E+03  8.84763E+03 -1.78909E+03
  7.08381E+03  4.51593E+03  1.77790E+03  6.18085E+03 -2.95986E+03  4.31619E+03 -3.92198E+03 -3.40341E+02
 -1.73277E+03 -4.79073E+03  2.64994E+03 -4.61158E+03  4.39983E+03 -2.60926E+03  4.20792E+03  5.40933E+02
  2.32021E+03  1.86235E+03  1.09883E+03  1.54846E+03 -6.32469E+02  1.74954E+03  1.75898E+03 -9.44083E+02
  1.60016E+03 -6.98275E+02  4.35705E+03  1.92385E+03  2.07236E+03  5.98331E+03 -1.16805E+03  7.77960E+03
 -4.87151E+03  4.82338E+03 -6.87142E+03  1.25285E+03 -5.93486E+03 -2.41834E+03 -1.96259E+03 -3.95984E+03
  6.93317E+02 -4.18731E+03  3.04577E+03 -1.73742E+03  2.35060E+03  2.59530E+03 -1.25000E+03  3.56604E+03
 -4.45418E+03  2.19981E+03 -4.69378E+03 -2.53397E+03 -2.83553E+03 -5.80075E+03  9.65956E+02 -5.60899E+03
  3.16335E+03 -3.25727E+03  4.14241E+03 -5.78882E+01  3.32307E+03  1.57757E+03  7.77940E+02  3.06222E+03
 -2.17387E+03  7.08396E+02 -2.30444E+03 -1.69635E+03  1.34417E+03 -4.13645E+03  5.27266E+03 -3.30097E+03
  6.32981E+03  6.47141E+02  6.73126E+03  4.37032E+03  2.08557E+03  6.38166E+03 -1.91503E+03  6.35175E+03
 -5.24976E+03  2.31903E+03 -5.43968E+03 -6.76667E+02 -2.93743E+03 -4.42567E+03  1.25632E+03 -3.63380E+03
  4.31947E+03 -1.96591E+03  3.60968E+03  1.73540E+03  1.09217E+03  3.68898E+03 -4.03639E+02  3.34437E+03
 -1.50115E+03  2.34334E+03 -1.65204E+03  9.61692E+02 -5.91271E+02  4.24946E+02 -1.02621E+03  1.25684E+03
 -1.59512E+03  2.82893E+03 -4.68097E+03  1.92051E+03 -6.04991E+03  6.62799E+01 -7.39209E+03 -4.39068E+03
 -3.76923E+03 -8.53766E+03  1.91440E+03 -9.49107E+03  5.58973E+03 -7.77316E+03  9.19355E+03 -3.02233E+03
  8.56537E+03  1.46696E+03  5.13042E+03  5.83483E+03  1.12455E+02  6.44460E+03 -2.70459E+03  4.73144E+03
 -3.72436E+03  2.20687E+03 -2.40464E+03 -9.44858E+02 -1.05392E+03 -2.67546E+02 -3.90475E+02  3.37970E+01
 -1.40961E+03  5.94092E+01 -1.32283E+03 -1.67772E+02 -5.08107E+02 -1.58371E+03  2.32036E+02 -2.28776E+03
  3.41417E+03 -2.22638E+03  3.57740E+03  5.08566E+01  4.61506E+03  3.56179E+03  9.73458E+02  6.52116E+03
 -3.43352E+03  7.66216E+03 -6.72404E+03  4.19780E+03 -7.91604E+03 -3.70107E+02 -5.73748E+03 -4.56663E+03
 -2.55189E+03 -6.40322E+03  1.41606E+03 -5.76258E+03  3.85281E+03 -3.23957E+03  3.53170E+03  4.40104E+02
  2.38445E+03  2.33692E+03  5.24502E+01  1.91785E+03 -7.77562E+02  3.35974E+02  1.15515E+02 -1.44193E+03
  1.86587E+03 -6.08785E+02  2.21661E+03  1.06951E+03  1.20560E+03  2.91090E+03  3.82660E+02  3.22437E+03
 -2.63977E+03  2.63184E+03 -3.77896E+03  5.12202E+02 -3.50808E+03 -2.61742E+03 -2.48365E+02 -5.42255E+03
  2.49160E+03 -4.20381E+03  4.61791E+03 -1.49203E+03  4.69044E+03  1.17739E+03  3.08427E+03  3.49648E+03
  8.52763E+01  3.95270E+03 -1.51585E+03  2.87101E+03 -2.58341E+03  1.71811E+03 -2.30364E+03  1.33707E+02
 -1.25742E+03 -1.16968E+02 -1.50959E+03  5.44855E+02 -2.18590E+03  7.77912E+02 -2.86429E+03 -5.27120E+02
 -3.11699E+03 -1.73363E+03 -1.05267E+03 -3.96008E+03  1.81580E+03 -4.36418E+03  3.46056E+03 -1.95739E+03
  4.10015E+03  2.62791E+02  1.62881E+03  2.62480E+03 -1.80859E+02  3.90343E+03 -2.60452E+03  2.31779E+03
