 $NMID ID='MM_0lb_SNR800_15hz_g55_82.RAW', FMTDAT='(8E13.5)'
 TRAMP=1., VOLUME=1. $END
  3.09870E+05  5.36828E+02  3.37524E+05  2.50688E+05  8.47560E+04  3.38099E+05 -1.32389E+05  2.51185E+05
 -1.90424E+05  8.32809E+04 -1.11663E+05 -3.28258E+04  1.07999E+03 -5.02934E+04  5.40502E+04 -1.74372E+02
  3.51163E+04  5.27723E+04 -1.66213E+04  7.53762E+04 -6.07910E+04  6.35341E+04 -8.43019E+04  3.21189E+04
 -8.09645E+04 -1.12781E+04 -5.74690E+04 -5.11594E+04 -1.51286E+04 -6.97033E+04  2.74142E+04 -4.59836E+04
  3.98572E+04  3.81192E+03  1.61664E+04  4.80698E+04 -3.42271E+04  4.72799E+04 -6.67756E+04 -3.59288E+02
 -5.35056E+04 -5.69009E+04 -6.64916E+03 -7.72107E+04  3.40766E+04 -5.47990E+04  4.77956E+04 -1.73216E+04
  4.36582E+04  1.12231E+04  3.16707E+04  2.57018E+04  1.57785E+04  2.92113E+04 -5.16140E+03  2.74057E+04
 -2.21865E+04  1.25448E+04 -1.87001E+04 -4.86836E+03  5.62267E+03 -7.53938E+03  2.24771E+04  1.22432E+04
  7.08787E+03  3.53381E+04 -3.21726E+04  3.56878E+04 -6.36973E+04  2.12306E+03 -5.71906E+04 -4.30314E+04
 -1.24326E+04 -6.35264E+04  3.98141E+04 -4.55400E+04  5.80370E+04 -2.36404E+03  3.43655E+04  3.24206E+04
 -6.31207E+03  3.61749E+04 -3.02173E+04  1.58406E+04 -3.04849E+04 -4.49074E+03 -1.65479E+04 -1.11435E+04
 -8.26226E+03 -1.33678E+04 -7.36814E+02 -1.81322E+04  7.53569E+03 -2.27846E+04  1.54264E+04 -1.33398E+04
  1.13021E+04  5.17139E+03 -7.99540E+03  1.29438E+04 -2.12911E+04 -4.48437E+03 -8.34700E+03 -3.37601E+04
  2.28202E+04 -4.31442E+04  4.79752E+04 -1.95039E+04  4.49293E+04  1.94773E+04  1.54512E+04  4.42537E+04
 -1.59017E+04  3.37358E+04 -2.51517E+04  2.01244E+03 -9.85281E+03 -2.77162E+04  2.10314E+04 -3.40642E+04
  4.13442E+04 -9.16993E+03  3.54369E+04  2.39928E+04  1.83744E+04  4.62527E+04 -7.92480E+03  5.02596E+04
 -3.17068E+04  3.35255E+04 -4.19116E+04  9.63818E+03 -4.25608E+04 -1.66033E+04 -2.33935E+04 -3.78028E+04
  7.30723E+03 -3.79931E+04  3.14200E+04 -1.44567E+04  2.93619E+04  1.11536E+04  4.12461E+03  1.91759E+04
 -1.35431E+04  8.32814E+03 -1.03421E+04 -7.50515E+03  5.94192E+03 -1.07330E+04  1.77104E+04  6.09432E+03
  1.35876E+04  2.17336E+04 -5.88360E+03  2.52917E+04 -2.23452E+04  1.15796E+04 -2.79480E+04 -5.17809E+03
 -2.06173E+04 -1.71557E+04 -8.23991E+03 -2.02911E+04  3.95524E+03 -1.95971E+04  1.55007E+04 -1.81542E+04
  2.58881E+04 -1.29039E+04  3.24609E+04  2.54413E+03  2.40485E+04  2.01215E+04  4.23744E+03  3.64775E+04
 -1.78353E+04  3.03372E+04 -2.77286E+04  1.03350E+04 -2.12280E+04 -1.03131E+04 -4.19958E+03 -1.31871E+04
  1.64612E+03 -2.87864E+03 -4.67187E+03  6.70561E+03 -1.59765E+04  5.11807E+03 -1.63204E+04 -6.96600E+03
 -1.00814E+04 -1.85052E+04  4.86704E+03 -2.31387E+04  1.51742E+04 -1.65971E+04  1.76715E+04 -1.49568E+03
  1.10771E+04  1.31200E+04 -9.76924E+02  1.88403E+04 -1.29685E+04  1.05895E+04 -1.89191E+04 -3.87891E+03
 -1.39061E+04 -1.71635E+04 -1.50311E+03 -2.27413E+04  1.04410E+04 -1.86409E+04  1.91118E+04 -9.17026E+03
  1.74848E+04  2.08336E+02  1.26550E+04  4.24367E+03  6.42107E+03  1.08705E+03  9.52081E+03 -1.63821E+03
  1.70537E+04  2.66922E+03  1.90136E+04  1.49266E+04  1.21742E+04  2.98167E+04 -2.86948E+03  3.39674E+04
 -1.96570E+04  2.68724E+04 -3.13641E+04  1.36057E+04 -3.29568E+04 -2.21225E+03 -2.75405E+04 -1.89370E+04
 -1.16559E+04 -2.68821E+04  9.34393E+03 -2.42867E+04  2.15683E+04 -1.25058E+04  1.87889E+04  5.43918E+03
  7.43922E+03  1.43728E+04 -8.82232E+03  1.26193E+04 -1.59699E+04  2.81005E+03 -1.25702E+04 -9.91502E+03
 -2.96380E+02 -1.53135E+04  7.80498E+03 -1.11566E+04  9.98178E+03 -1.27600E+03  2.36464E+03  6.42184E+03
 -6.55935E+03  2.55055E+03 -5.68945E+03 -5.26914E+03 -3.90372E+02 -1.32025E+04  9.42863E+03 -1.37136E+04
  1.66414E+04 -7.31147E+03  1.72552E+04  3.36876E+03  1.53769E+04  1.27696E+04  6.99865E+03  1.98674E+04
 -3.53103E+03  2.17517E+04 -1.35575E+04  1.36404E+04 -1.54797E+04  3.46976E+03 -1.09427E+04 -3.59233E+03
 -5.24169E+03 -5.04401E+03 -7.00146E+02  1.29420E+03 -2.09376E+03  2.38580E+03 -4.95620E+03  4.26767E+03
 -1.03577E+04 -6.26254E+02 -1.12587E+04 -8.77614E+03 -4.43113E+03 -1.45379E+04  4.57245E+03 -1.08304E+04
  9.02056E+03 -4.87000E+03  6.50672E+03  3.08822E+03  5.69518E+02  3.91290E+03 -4.90364E+03  4.31234E+01
 -4.95820E+03 -6.88993E+03 -1.14367E+03 -1.02994E+04  5.47465E+03 -1.08745E+04  1.37617E+04 -5.84152E+03
  1.57282E+04  1.61428E+03  1.18490E+04  9.24568E+03  2.33051E+03  1.23746E+04 -6.60178E+03  1.06768E+04
 -8.93421E+03  3.63953E+03 -4.81470E+03 -2.26038E+03  1.75385E+03 -3.16021E+03  6.10984E+03 -9.07109E+02
  5.23848E+03  4.54167E+03  1.21935E+03  8.39034E+03 -5.89824E+03  8.46862E+03 -1.07194E+04  2.19458E+03
 -6.67890E+03 -5.48953E+03  4.31483E+01 -9.18208E+03  5.70941E+03 -4.52946E+03  5.42611E+03  1.59690E+03
  1.23219E+03  5.97578E+03 -5.51150E+03  7.00610E+03 -8.02003E+03  3.38496E+03 -7.48659E+03 -2.63042E+03
 -4.92056E+03 -9.16644E+03  1.99419E+03 -1.08628E+04  9.11343E+03 -6.68716E+03  9.87471E+03  1.87628E+03
  6.59862E+03  8.17035E+03 -2.57283E+02  9.96897E+03 -7.29998E+03  5.59294E+03 -7.83671E+03 -7.82678E+02
 -7.52043E+03 -6.94765E+03 -1.66533E+03 -7.60368E+03  4.00976E+03 -6.49998E+03  4.27090E+03 -2.96778E+03
  3.45299E+03  1.09776E+03 -3.95372E+02  1.21211E+03  4.32862E+01 -1.30532E+03  9.85123E+02 -4.04562E+03
  6.04226E+03 -1.93382E+03  8.70207E+03  1.01144E+03  9.02626E+03  5.63769E+03  6.85114E+03  1.15346E+04
 -2.26334E+03  1.32682E+04 -1.17489E+04  9.66495E+03 -1.49832E+04  2.00370E+03 -1.20623E+04 -4.71681E+03
 -6.37665E+03 -9.76268E+03 -2.11843E+02 -8.12145E+03  3.20026E+03 -3.92821E+03  2.64731E+03 -2.92323E+03
  1.77915E+03 -1.78199E+03  2.49961E+03 -2.82667E+03  4.16035E+03 -1.75754E+03  5.02198E+03 -3.51052E+02
  6.29210E+03  1.52397E+03  2.43914E+03  5.40085E+03 -1.68039E+03  5.37110E+03 -6.53748E+03  4.58278E+03
 -7.80915E+03 -1.33968E+03 -4.41867E+03 -5.64241E+03 -2.08064E+01 -8.14926E+03  4.75672E+03 -8.11418E+03
  8.60854E+03 -4.86924E+03  1.02100E+04  1.09088E+03  7.38961E+03  7.09762E+03  1.57125E+03  9.33832E+03
 -3.80813E+03  8.36782E+03 -5.38404E+03  2.73950E+03 -3.63094E+03 -1.37250E+03 -1.52075E+03 -7.28221E+02
 -6.25885E+02  5.89040E+01 -1.32453E+03  2.15310E+03 -3.66760E+03  1.36654E+03 -5.86591E+03 -8.38654E+02
 -2.99086E+03 -5.98514E+03  3.51187E+02 -7.63860E+03  4.49655E+03 -7.00571E+03  6.66500E+03 -1.90772E+03
  7.05364E+03  3.67428E+03  3.07946E+03  6.05008E+03 -1.43926E+03  7.49769E+03 -4.89337E+03  4.81806E+03
 -6.68406E+03  6.38318E+02 -4.98765E+03 -4.21044E+03 -6.49717E+02 -5.80314E+03  2.99606E+03 -4.52223E+03
  4.60438E+03 -1.69592E+03  3.01135E+03  9.96116E+02  7.89077E+02  1.81415E+03  1.04522E+03  7.61366E+02
  2.13363E+03  5.88560E+02  1.78208E+03  1.16532E+03  1.88240E+03  2.90187E+03  1.79497E+03  3.18721E+03
 -1.93259E+03  5.31222E+03 -4.51193E+03  5.98960E+03 -6.44768E+03  1.82131E+03 -7.10251E+03 -1.72381E+03
 -3.21778E+03 -6.81307E+03  1.37211E+03 -7.84371E+03  3.78700E+03 -4.50117E+03  5.40119E+03 -1.36432E+03
  4.45053E+03  2.80414E+03  5.14184E+02  3.69946E+03 -1.61671E+03  2.29066E+03 -2.13633E+03 -2.60489E+02
 -1.23088E+03 -3.22498E+03  1.86502E+03 -2.79852E+03  2.66601E+03 -1.34748E+03  2.62448E+03  6.24593E+02
  1.54841E+03  1.14398E+03  9.12708E+02  4.85587E+02 -3.82778E+02  1.11743E+03  1.38490E+03 -1.55671E+02
  4.55587E+02 -6.70312E+02  3.10253E+03  1.12164E+03  1.07343E+03  3.67403E+03 -5.19802E+02  4.70583E+03
 -3.03651E+03  2.47322E+03 -3.84610E+03  7.58964E+02 -3.88824E+03 -1.62860E+03 -7.51263E+02 -2.04799E+03
  5.13588E+02 -2.42725E+03  1.58836E+03 -1.32727E+03  1.26356E+03  1.55594E+03 -8.13898E+02  1.98957E+03
 -2.63299E+03  1.26549E+03 -2.82766E+03 -1.75601E+03 -1.64030E+03 -3.52705E+03  5.83183E+02 -3.10969E+03
  1.76905E+03 -1.59068E+03  2.12044E+03 -1.87503E+02  2.53592E+03  4.66437E+02  2.37533E+02  1.90632E+03
 -9.43693E+02  2.95603E+02 -1.57522E+03 -6.16625E+02  1.00642E+03 -2.03463E+03  2.79397E+03 -1.67376E+03
  3.03230E+03  2.95516E+02  4.14504E+03  1.96955E+03  1.65397E+03  3.55487E+03 -1.02498E+03  3.57324E+03
 -3.16335E+03  1.18096E+03 -2.91226E+03 -4.31836E+02 -1.68042E+03 -2.28485E+03  7.62017E+02 -1.69747E+03
  2.52628E+03 -1.02257E+03  1.74502E+03  9.24050E+02  6.06324E+02  2.25302E+03 -6.04584E+01  1.95193E+03
 -7.65165E+02  1.86343E+03 -1.02478E+03  3.14977E+02 -2.26658E+02  6.37632E+02 -1.11787E+03  8.65849E+02
 -8.71167E+02  1.64025E+03 -3.00166E+03  1.05478E+03 -3.52286E+03 -9.65122E+01 -4.13685E+03 -2.32211E+03
 -2.34664E+03 -4.83539E+03  1.35108E+03 -5.38715E+03  2.56311E+03 -4.38662E+03  5.06809E+03 -1.95030E+03
  4.50089E+03  3.00219E+02  2.75989E+03  3.14702E+03 -2.17388E+02  3.04399E+03 -1.49492E+03  2.67725E+03
 -1.97945E+03  1.13369E+03 -1.17985E+03 -4.97199E+02 -7.21345E+02 -1.63487E+02 -6.73479E+02  1.83838E+02
 -1.24307E+03  2.08936E+01 -9.79525E+02  6.96000E+01  3.83736E+01 -1.24985E+03 -5.67454E+02 -1.54691E+03
  1.94531E+03 -1.12109E+03  1.53766E+03  3.63452E+02  2.13116E+03  2.00812E+03  3.06807E+02  2.93184E+03
 -1.64812E+03  3.81090E+03 -3.27091E+03  2.31385E+03 -3.62457E+03 -5.95392E+02 -2.77253E+03 -2.96196E+03
 -1.53617E+03 -3.20431E+03  6.81023E+02 -2.66774E+03  1.86144E+03 -1.57887E+03  1.57102E+03  1.79137E+02
  1.24032E+03  8.49424E+02 -1.30444E+02  1.12673E+03 -7.76977E+02  2.08746E+02  2.09415E+02 -1.00034E+03
  7.58642E+02 -3.03341E+02  8.27562E+02  7.36881E+02  3.78551E+02  1.07174E+03  5.46194E+02  1.26483E+03
 -1.37171E+03  1.14816E+03 -1.63650E+03  8.73319E+00 -2.10858E+03 -1.39424E+03  8.05949E+01 -2.68503E+03
  1.17975E+03 -1.94961E+03  1.82907E+03 -8.71569E+01  2.04439E+03 -3.01113E+02  1.19735E+03  1.96221E+03
  4.78980E+02  1.64920E+03 -4.09402E+02  1.51873E+03 -1.20797E+03  9.82842E+02 -8.92621E+02 -6.40860E+01
 -5.34457E+02  1.02877E+02 -7.71546E+02  3.64783E+02 -1.06770E+03  2.52505E+02 -1.51078E+03 -5.15917E+02
 -1.87646E+03 -4.45289E+02 -3.05553E+02 -2.22445E+03  8.94602E+02 -2.51379E+03  1.75503E+03 -9.06580E+02
  1.88624E+03  3.41553E+02  2.36568E+02  1.28777E+03  4.06656E+01  1.69570E+03 -9.72277E+02  1.00337E+03
