 $NMID ID='MM_0lb_SNR800_15hz_g60_62.RAW', FMTDAT='(8E13.5)'
 TRAMP=1., VOLUME=1. $END
  3.09805E+05  3.45779E+02  3.37527E+05  2.50431E+05  8.48061E+04  3.38306E+05 -1.32426E+05  2.51482E+05
 -1.90226E+05  8.29801E+04 -1.11987E+05 -3.24958E+04  8.58814E+02 -5.06944E+04  5.36943E+04 -5.32769E+02
  3.55256E+04  5.28534E+04 -1.62824E+04  7.55897E+04 -6.08198E+04  6.36362E+04 -8.43491E+04  3.22976E+04
 -8.16027E+04 -1.17851E+04 -5.76596E+04 -5.15328E+04 -1.49155E+04 -7.00155E+04  2.75899E+04 -4.60109E+04
  4.03700E+04  3.84853E+03  1.60422E+04  4.77420E+04 -3.42100E+04  4.78633E+04 -6.69414E+04 -1.91676E+02
 -5.38475E+04 -5.68977E+04 -6.80633E+03 -7.74646E+04  3.43323E+04 -5.54688E+04  4.84763E+04 -1.76748E+04
  4.40181E+04  1.17029E+04  3.19239E+04  2.59286E+04  1.61318E+04  2.98731E+04 -5.46334E+03  2.70096E+04
 -2.21434E+04  1.20915E+04 -1.85101E+04 -5.25392E+03  5.96449E+03 -7.53504E+03  2.24657E+04  1.26072E+04
  7.02830E+03  3.58725E+04 -3.22628E+04  3.58237E+04 -6.40811E+04  2.03329E+03 -5.75368E+04 -4.35049E+04
 -1.24790E+04 -6.37317E+04  3.98170E+04 -4.55572E+04  5.88896E+04 -2.31091E+03  3.48675E+04  3.26378E+04
 -5.91744E+03  3.67168E+04 -3.06015E+04  1.62955E+04 -3.09619E+04 -4.14960E+03 -1.72855E+04 -1.12699E+04
 -8.47452E+03 -1.36322E+04 -4.56564E+02 -1.84171E+04  7.66976E+03 -2.32710E+04  1.55218E+04 -1.32493E+04
  1.13352E+04  5.32025E+03 -8.68461E+03  1.27517E+04 -2.15485E+04 -4.99303E+03 -8.32924E+03 -3.44392E+04
  2.35554E+04 -4.38310E+04  4.91363E+04 -1.97437E+04  4.56713E+04  1.95438E+04  1.62205E+04  4.48637E+04
 -1.61510E+04  3.36661E+04 -2.56524E+04  2.24198E+03 -9.94516E+03 -2.81198E+04  2.12695E+04 -3.46072E+04
  4.18099E+04 -9.54869E+03  3.62624E+04  2.38605E+04  1.89963E+04  4.71876E+04 -8.23690E+03  5.11757E+04
 -3.21234E+04  3.44317E+04 -4.25769E+04  9.80180E+03 -4.33196E+04 -1.71514E+04 -2.37768E+04 -3.86574E+04
  7.41822E+03 -3.83349E+04  3.18725E+04 -1.51572E+04  2.96507E+04  1.09885E+04  4.59279E+03  1.94774E+04
 -1.38479E+04  8.67842E+03 -1.04219E+04 -7.92213E+03  5.96047E+03 -1.07526E+04  1.79096E+04  6.16204E+03
  1.35411E+04  2.22333E+04 -6.11900E+03  2.54159E+04 -2.23122E+04  1.18576E+04 -2.85398E+04 -4.55494E+03
 -2.13117E+04 -1.76303E+04 -8.71610E+03 -2.10582E+04  4.06379E+03 -2.05253E+04  1.64372E+04 -1.88242E+04
  2.67806E+04 -1.25180E+04  3.34841E+04  3.23252E+03  2.41088E+04  2.05585E+04  4.30681E+03  3.69517E+04
 -1.75162E+04  3.09113E+04 -2.82079E+04  1.04803E+04 -2.10181E+04 -1.02232E+04 -4.36399E+03 -1.34711E+04
  1.50494E+03 -2.51358E+03 -5.06985E+03  6.85313E+03 -1.62881E+04  5.19971E+03 -1.65377E+04 -7.18425E+03
 -1.05417E+04 -1.91235E+04  5.45737E+03 -2.33255E+04  1.57290E+04 -1.69615E+04  1.85511E+04 -1.74650E+03
  1.16108E+04  1.32843E+04 -1.29374E+03  1.93954E+04 -1.34122E+04  1.07918E+04 -1.95931E+04 -4.18908E+03
 -1.42682E+04 -1.74886E+04 -1.38102E+03 -2.35555E+04  1.06975E+04 -1.94669E+04  1.97354E+04 -9.33274E+03
  1.81922E+04  2.20077E+02  1.30921E+04  4.27379E+03  6.98634E+03  8.36418E+02  1.01724E+04 -1.72258E+03
  1.78942E+04  2.60756E+03  2.02113E+04  1.52425E+04  1.32119E+04  3.08243E+04 -3.21017E+03  3.47902E+04
 -2.05461E+04  2.80032E+04 -3.25855E+04  1.40805E+04 -3.41585E+04 -2.55298E+03 -2.81280E+04 -1.96987E+04
 -1.21424E+04 -2.80415E+04  9.62379E+03 -2.53990E+04  2.19648E+04 -1.30112E+04  1.94125E+04  5.46827E+03
  7.49396E+03  1.43163E+04 -9.13712E+03  1.26766E+04 -1.65078E+04  2.80448E+03 -1.24240E+04 -1.01851E+04
 -1.11440E+02 -1.55593E+04  8.37551E+03 -1.20335E+04  1.03976E+04 -1.44970E+03  2.31421E+03  6.79839E+03
 -6.94088E+03  2.54689E+03 -6.09083E+03 -5.36042E+03 -3.06956E+02 -1.33577E+04  9.49345E+03 -1.43545E+04
  1.69160E+04 -7.74449E+03  1.79819E+04  2.95220E+03  1.58629E+04  1.34840E+04  7.54338E+03  2.07368E+04
 -3.45362E+03  2.25444E+04 -1.43713E+04  1.41127E+04 -1.61000E+04  3.62939E+03 -1.13567E+04 -3.64797E+03
 -5.06900E+03 -5.16361E+03 -7.07903E+02  8.88655E+02 -2.31978E+03  2.78373E+03 -4.84776E+03  4.38467E+03
 -1.06278E+04 -4.92991E+02 -1.10514E+04 -9.35154E+03 -4.39821E+03 -1.49193E+04  4.70786E+03 -1.15830E+04
  9.84505E+03 -4.81987E+03  6.63047E+03  3.05648E+03  4.65922E+02  4.32832E+03 -5.50278E+03 -2.22121E+02
 -5.25502E+03 -7.32992E+03 -8.96450E+02 -1.08308E+04  6.04606E+03 -1.14543E+04  1.40817E+04 -6.01334E+03
  1.62385E+04  1.59881E+03  1.25092E+04  9.46226E+03  2.60014E+03  1.27666E+04 -7.27727E+03  1.11639E+04
 -9.29714E+03  3.53595E+03 -4.79792E+03 -2.13458E+03  1.62322E+03 -3.16089E+03  5.98283E+03 -1.05859E+03
  5.37141E+03  4.99984E+03  1.07741E+03  8.88801E+03 -6.47171E+03  8.68494E+03 -1.06066E+04  2.40977E+03
 -7.30394E+03 -5.48718E+03  6.74485E+02 -9.35962E+03  5.86852E+03 -4.89184E+03  5.54785E+03  1.89938E+03
  1.03586E+03  5.90389E+03 -5.63631E+03  7.20324E+03 -8.22029E+03  3.54329E+03 -8.35105E+03 -2.27753E+03
 -4.85989E+03 -9.57453E+03  2.40533E+03 -1.12505E+04  9.49048E+03 -7.08596E+03  1.01199E+04  1.61678E+03
  6.76315E+03  8.47687E+03 -7.60368E+02  1.08291E+04 -7.56069E+03  5.80212E+03 -8.14758E+03 -8.43436E+02
 -7.65280E+03 -6.95402E+03 -1.38736E+03 -7.71247E+03  4.16595E+03 -6.48977E+03  4.68537E+03 -3.31074E+03
  3.60751E+03  9.05494E+02 -9.37335E+01  1.41613E+03  2.26998E+02 -1.64208E+03  1.01413E+03 -3.91020E+03
  6.59587E+03 -2.29593E+03  9.45726E+03  1.10429E+03  9.20180E+03  5.57181E+03  7.44122E+03  1.23060E+04
 -2.66972E+03  1.38456E+04 -1.19742E+04  1.03294E+04 -1.55462E+04  1.79693E+03 -1.23951E+04 -4.93327E+03
 -6.29096E+03 -1.00154E+04 -6.54031E+02 -8.63205E+03  3.02427E+03 -4.01557E+03  3.12373E+03 -3.43510E+03
  2.10509E+03 -1.97615E+03  2.90746E+03 -2.91321E+03  4.64144E+03 -2.16144E+03  4.90060E+03 -3.01576E+02
  6.57517E+03  1.85657E+03  2.72381E+03  5.42942E+03 -1.96618E+03  5.57926E+03 -6.76957E+03  4.58097E+03
 -8.54412E+03 -1.08619E+03 -4.59172E+03 -5.40353E+03 -1.18551E+02 -8.67493E+03  5.03851E+03 -8.86061E+03
  8.91113E+03 -4.74150E+03  1.09488E+04  9.48784E+02  7.93177E+03  7.43302E+03  1.63544E+03  9.69862E+03
 -3.68680E+03  8.59557E+03 -5.62739E+03  3.01056E+03 -3.89865E+03 -1.20361E+03 -1.24869E+03 -9.05082E+02
 -6.66966E+02  2.69873E+02 -1.30734E+03  2.31693E+03 -3.75280E+03  1.51109E+03 -6.09233E+03 -8.40031E+02
 -3.06160E+03 -5.99057E+03  8.70615E+02 -7.83710E+03  4.90756E+03 -7.18921E+03  7.19147E+03 -1.89297E+03
  7.34703E+03  3.96250E+03  3.48203E+03  6.30095E+03 -1.67474E+03  7.88305E+03 -5.33851E+03  4.64266E+03
 -6.70119E+03  5.39995E+02 -5.71404E+03 -4.34909E+03 -5.08492E+02 -5.81746E+03  2.91921E+03 -4.80475E+03
  4.65378E+03 -1.54021E+03  3.05634E+03  1.24202E+03  1.14736E+03  2.53296E+03  1.04650E+03  8.79913E+02
  1.75990E+03  7.75855E+02  1.87724E+03  1.27305E+03  1.89832E+03  2.92788E+03  1.97943E+03  3.57908E+03
 -1.58666E+03  5.11935E+03 -4.73282E+03  6.42575E+03 -6.59083E+03  1.62222E+03 -7.76750E+03 -2.10773E+03
 -3.35119E+03 -6.86392E+03  1.28919E+03 -7.88082E+03  4.03656E+03 -5.07144E+03  5.84498E+03 -1.28592E+03
  4.32997E+03  2.71578E+03  9.59981E+02  4.10324E+03 -1.50973E+03  2.58343E+03 -2.44160E+03 -3.64742E+02
 -1.35300E+03 -3.09297E+03  2.14809E+03 -3.09688E+03  2.36135E+03 -1.74579E+03  3.00225E+03  4.82680E+02
  1.69904E+03  9.09940E+02  8.87858E+02  5.82636E+02 -5.02979E+02  9.25139E+02  1.51487E+03 -2.28665E+02
  7.51328E+02 -5.01521E+02  2.84397E+03  1.15616E+03  1.32018E+03  3.89874E+03 -8.24064E+02  4.87833E+03
 -3.26729E+03  2.74334E+03 -3.75563E+03  6.63482E+02 -3.65996E+03 -1.41858E+03 -7.62832E+02 -2.42620E+03
  7.40865E+02 -2.45702E+03  1.83731E+03 -1.27522E+03  1.33308E+03  1.80660E+03 -7.80383E+02  2.50636E+03
 -2.62615E+03  1.29834E+03 -2.27054E+03 -1.61174E+03 -1.50278E+03 -3.78998E+03  5.76927E+02 -3.44137E+03
  1.56539E+03 -1.53294E+03  2.18244E+03 -3.06532E+01  2.44051E+03  2.83298E+02  3.18841E+02  2.06160E+03
 -1.08029E+03  5.86856E+02 -1.34756E+03 -8.53237E+02  7.41494E+02 -1.99096E+03  3.29925E+03 -1.62469E+03
  3.34034E+03  1.93766E+02  4.33178E+03  2.18973E+03  1.76022E+03  3.87272E+03 -8.30968E+02  3.93338E+03
 -3.15211E+03  1.40715E+03 -3.06712E+03 -6.11291E+02 -1.50615E+03 -2.58207E+03  8.75696E+02 -1.69047E+03
  2.66798E+03 -1.27055E+03  1.80421E+03  1.06871E+03  4.16572E+02  2.23315E+03 -2.08395E+02  2.15770E+03
 -8.31160E+02  1.51125E+03 -9.97483E+02  2.19598E+02 -5.65670E+02  1.53067E+02 -7.25830E+02  7.96710E+02
 -1.19088E+03  1.15735E+03 -3.12848E+03  1.16939E+03 -3.50347E+03  2.46955E+02 -4.47140E+03 -2.17026E+03
 -1.99859E+03 -4.79066E+03  1.06981E+03 -5.77131E+03  2.60828E+03 -4.31198E+03  5.45404E+03 -1.94603E+03
  4.68401E+03  2.03349E+02  2.74470E+03  2.95408E+03 -2.52053E+02  3.30156E+03 -1.46204E+03  2.58701E+03
 -2.25606E+03  1.34695E+03 -9.52380E+02 -3.66271E+02 -5.48688E+02  1.38887E+02 -7.09435E+02 -6.46051E+01
 -1.08847E+03 -1.85342E+02 -1.19274E+03 -1.62099E+02  1.09082E+02 -8.20934E+02 -2.73161E+02 -1.45684E+03
  2.03027E+03 -1.19971E+03  1.54449E+03 -1.61305E+02  2.44292E+03  1.81696E+03 -1.47292E+02  3.53314E+03
 -1.91316E+03  4.13407E+03 -3.23612E+03  2.56395E+03 -3.93303E+03 -2.08009E+02 -2.68276E+03 -2.38749E+03
 -1.86812E+03 -2.92084E+03  8.55209E+02 -2.74150E+03  2.11331E+03 -1.60078E+03  1.74997E+03  4.94025E+02
  1.29471E+03  7.49126E+02  5.83118E+01  9.15876E+02 -1.61867E+02 -2.84343E+02  2.13314E+02 -8.67526E+02
  1.09943E+03 -7.47882E+01  1.00291E+03  3.44495E+02  6.66215E+02  1.30417E+03  6.95129E+02  1.44317E+03
 -1.35568E+03  1.39221E+03 -1.92001E+03  5.60698E+01 -1.71519E+03 -1.33927E+03 -3.50830E+02 -2.12768E+03
  1.29237E+03 -1.96736E+03  1.86744E+03 -4.37427E+02  2.27687E+03 -2.40902E+02  9.17883E+02  1.84003E+03
  7.29531E+02  1.85631E+03 -6.71598E+02  1.19280E+03 -1.03621E+03  7.35797E+02 -1.10549E+03  3.14359E+02
 -4.19942E+02 -2.57425E+00 -1.02190E+03  4.22993E+02 -1.45405E+03  6.63637E+02 -1.84995E+03 -4.36945E+02
 -2.01239E+03 -2.68536E+02 -5.92562E+02 -1.99966E+03  1.07021E+03 -2.79159E+03  1.72057E+03 -9.68790E+02
  1.72676E+03  3.59661E+02  5.41165E+02  8.58135E+02 -1.12044E+01  1.62525E+03 -1.33864E+03  1.47588E+03
