 $NMID ID='MM_0lb_SNR800_17hz_g50_19.RAW', FMTDAT='(8E13.5)'
 TRAMP=1., VOLUME=1. $END
  3.09766E+05  4.92779E+02  3.37564E+05  2.50168E+05  8.48911E+04  3.37524E+05 -1.32385E+05  2.50908E+05
 -1.90198E+05  8.29711E+04 -1.11638E+05 -3.30589E+04  9.62656E+02 -5.05083E+04  5.38287E+04 -8.15745E+01
  3.52348E+04  5.26804E+04 -1.71659E+04  7.50822E+04 -6.05500E+04  6.29287E+04 -8.35557E+04  3.17105E+04
 -8.00956E+04 -1.14017E+04 -5.66759E+04 -5.06722E+04 -1.49553E+04 -6.89086E+04  2.70879E+04 -4.53310E+04
  3.93817E+04  4.02076E+03  1.57087E+04  4.75822E+04 -3.44613E+04  4.66949E+04 -6.57765E+04 -2.78339E+02
 -5.26793E+04 -5.63088E+04 -6.39253E+03 -7.57955E+04  3.35416E+04 -5.41902E+04  4.70005E+04 -1.66656E+04
  4.23567E+04  1.14724E+04  3.12814E+04  2.49012E+04  1.57365E+04  2.88250E+04 -4.93949E+03  2.70836E+04
 -2.17897E+04  1.27936E+04 -1.88009E+04 -4.42890E+03  4.81010E+03 -7.53035E+03  2.16892E+04  1.14568E+04
  7.24103E+03  3.41140E+04 -3.09408E+04  3.45453E+04 -6.23304E+04  1.96936E+03 -5.58543E+04 -4.19877E+04
 -1.20953E+04 -6.19110E+04  3.91051E+04 -4.42712E+04  5.69293E+04 -2.11917E+03  3.28975E+04  3.11816E+04
 -6.35673E+03  3.45854E+04 -2.92919E+04  1.45000E+04 -2.86524E+04 -4.81367E+03 -1.54979E+04 -1.05377E+04
 -7.79185E+03 -1.21231E+04 -9.62925E+02 -1.72331E+04  6.79455E+03 -2.25173E+04  1.51826E+04 -1.35510E+04
  1.17850E+04  4.64691E+03 -6.99254E+03  1.30965E+04 -1.98903E+04 -3.28345E+03 -8.14269E+03 -3.19609E+04
  2.16495E+04 -4.16192E+04  4.64570E+04 -1.89134E+04  4.33210E+04  1.87581E+04  1.50043E+04  4.24531E+04
 -1.57151E+04  3.21977E+04 -2.39404E+04  1.09349E+03 -8.73218E+03 -2.69794E+04  2.06212E+04 -3.21581E+04
  3.93338E+04 -7.97494E+03  3.30440E+04  2.35345E+04  1.66492E+04  4.42870E+04 -7.85470E+03  4.72014E+04
 -3.00046E+04  3.12962E+04 -3.93468E+04  9.11370E+03 -4.00175E+04 -1.57924E+04 -2.22859E+04 -3.58446E+04
  7.10892E+03 -3.57627E+04  2.99781E+04 -1.35051E+04  2.78140E+04  1.09079E+04  3.26607E+03  1.82959E+04
 -1.35012E+04  7.67807E+03 -9.82306E+03 -7.67806E+03  5.82644E+03 -1.00464E+04  1.74325E+04  6.21513E+03
  1.28387E+04  2.18455E+04 -6.37841E+03  2.39536E+04 -2.20537E+04  1.00748E+04 -2.64450E+04 -5.95139E+03
 -1.82225E+04 -1.67236E+04 -6.86636E+03 -1.83338E+04  4.00648E+03 -1.65985E+04  1.37301E+04 -1.60967E+04
  2.32439E+04 -1.22745E+04  2.97840E+04  1.75834E+03  2.20844E+04  1.79720E+04  3.73635E+03  3.41965E+04
 -1.65465E+04  2.89451E+04 -2.64513E+04  9.74441E+03 -1.99632E+04 -1.03817E+04 -4.03161E+03 -1.38611E+04
  2.62607E+03 -3.27733E+03 -3.29442E+03  5.80069E+03 -1.39819E+04  5.19388E+03 -1.46579E+04 -5.64134E+03
 -9.07146E+03 -1.69941E+04  4.94204E+03 -2.05628E+04  1.40071E+04 -1.50479E+04  1.59936E+04 -1.43839E+03
  9.84276E+03  1.16935E+04 -9.16986E+02  1.70346E+04 -1.14544E+04  9.93559E+03 -1.70370E+04 -3.82125E+03
 -1.22728E+04 -1.54466E+04 -1.71092E+03 -2.04948E+04  9.37298E+03 -1.64497E+04  1.73485E+04 -8.18951E+03
  1.58566E+04  6.79527E+02  1.13474E+04  3.74532E+03  5.59564E+03  3.74232E+02  8.07880E+03 -1.58449E+03
  1.50346E+04  2.58534E+03  1.67185E+04  1.36686E+04  1.04515E+04  2.67209E+04 -2.93384E+03  2.94891E+04
 -1.73423E+04  2.30461E+04 -2.72703E+04  1.11489E+04 -2.83301E+04 -2.21112E+03 -2.34866E+04 -1.61438E+04
 -1.05858E+04 -2.28835E+04  7.51053E+03 -2.11434E+04  1.83643E+04 -1.16994E+04  1.69706E+04  4.34626E+03
  6.65700E+03  1.24389E+04 -7.78121E+03  1.11498E+04 -1.45333E+04  2.72645E+03 -1.11646E+04 -8.82515E+03
  1.60315E+02 -1.33580E+04  7.07546E+03 -1.00350E+04  8.79027E+03 -1.34122E+03  1.95732E+03  5.57923E+03
 -6.08400E+03  1.72593E+03 -4.40775E+03 -4.74043E+03  3.59359E+02 -1.12086E+04  8.03448E+03 -1.15871E+04
  1.38968E+04 -5.64356E+03  1.41249E+04  2.90978E+03  1.21620E+04  1.07857E+04  5.59881E+03  1.63038E+04
 -2.20548E+03  1.82024E+04 -1.13359E+04  1.14879E+04 -1.27071E+04  3.18170E+03 -9.69752E+03 -2.57355E+03
 -4.89097E+03 -4.22265E+03 -7.92799E+02  1.44313E+03 -2.07558E+03  2.09120E+03 -4.21784E+03  3.99046E+03
 -9.04587E+03 -4.97077E+02 -9.63983E+03 -7.63697E+03 -4.38955E+03 -1.26748E+04  4.15550E+03 -9.32729E+03
  7.80006E+03 -4.36924E+03  6.02448E+03  2.76048E+03  4.52427E+02  3.69426E+03 -4.07998E+03 -1.04902E+02
 -3.82125E+03 -5.83128E+03 -9.41503E+02 -8.70133E+03  4.49348E+03 -9.04064E+03  1.12209E+04 -4.49276E+03
  1.32697E+04  8.83547E+02  9.99722E+03  6.95433E+03  2.14410E+03  1.00922E+04 -5.75602E+03  9.18486E+03
 -7.56583E+03  2.81184E+03 -4.05627E+03 -1.56513E+03  1.53358E+03 -2.45110E+03  5.36803E+03 -9.73948E+02
  4.58599E+03  4.10298E+03  1.41194E+03  7.19565E+03 -5.12664E+03  7.09426E+03 -8.91108E+03  2.06795E+03
 -5.47279E+03 -4.40238E+03  3.36342E+02 -7.60400E+03  4.23229E+03 -3.86600E+03  4.46093E+03  1.52799E+03
  5.16261E+02  4.33714E+03 -4.38364E+03  5.82030E+03 -5.92265E+03  2.73030E+03 -5.62625E+03 -1.62048E+03
 -3.46363E+03 -7.11608E+03  1.49134E+03 -8.27235E+03  7.33556E+03 -5.32770E+03  7.53917E+03  1.04051E+03
  5.31603E+03  6.23958E+03 -8.30819E+01  8.34139E+03 -5.95643E+03  5.04305E+03 -6.29839E+03 -7.29043E+02
 -6.27512E+03 -5.85867E+03 -1.72975E+03 -5.87342E+03  3.09508E+03 -5.08078E+03  3.43242E+03 -2.74735E+03
  3.00475E+03  3.95219E+02 -1.49843E+02  1.29221E+03  3.16235E+02 -6.77579E+02  2.86821E+02 -2.68382E+03
  4.84502E+03 -1.35604E+03  6.60673E+03  8.64915E+02  6.72955E+03  4.01616E+03  5.80568E+03  8.89415E+03
 -1.94889E+03  1.02210E+04 -9.05822E+03  7.61344E+03 -1.17728E+04  1.30777E+03 -9.39085E+03 -3.22976E+03
 -5.07691E+03 -7.86844E+03 -3.13676E+02 -5.87359E+03  2.51592E+03 -2.64236E+03  2.22508E+03 -2.55356E+03
  1.56140E+03 -1.56672E+03  2.42202E+03 -2.25836E+03  3.67858E+03 -1.78852E+03  4.02929E+03  1.26440E+02
  5.04411E+03  1.37426E+03  1.71864E+03  4.23613E+03 -1.39906E+03  3.96695E+03 -5.16702E+03  3.53199E+03
 -5.92931E+03 -1.22225E+03 -2.56963E+03 -3.97798E+03  2.99420E+02 -5.92514E+03  3.74711E+03 -6.64521E+03
  6.16096E+03 -4.11441E+03  7.79720E+03  7.32363E+02  5.92659E+03  5.24478E+03  1.49630E+03  7.13699E+03
 -2.83444E+03  6.83995E+03 -4.24779E+03  2.26809E+03 -2.41885E+03 -1.12829E+03 -6.58745E+02 -6.33038E+02
 -6.07864E+02  2.43279E+02 -1.06586E+03  1.85218E+03 -3.15152E+03  1.26339E+03 -4.93798E+03 -5.81054E+02
 -2.10759E+03 -4.71267E+03  6.66541E+02 -5.80765E+03  3.40261E+03 -5.40323E+03  4.71962E+03 -1.58594E+03
  5.05757E+03  3.02109E+03  2.45147E+03  4.19917E+03 -9.89272E+02  5.19826E+03 -3.04850E+03  3.20492E+03
 -4.43693E+03  7.18377E+02 -3.99245E+03 -2.89383E+03 -2.89842E+02 -3.92394E+03  1.96119E+03 -3.11171E+03
  3.39576E+03 -1.29649E+03  2.23055E+03  6.58389E+02  5.33740E+02  2.19896E+03  7.36416E+02  4.86221E+02
  1.90923E+03  6.41186E+02  1.48760E+03  1.00707E+03  1.31330E+03  2.86036E+03  1.49532E+03  2.23335E+03
 -1.47422E+03  3.72828E+03 -3.18183E+03  4.78533E+03 -4.14028E+03  1.24468E+03 -5.05906E+03 -1.10415E+03
 -2.14446E+03 -4.50830E+03  8.62846E+02 -5.83720E+03  2.53847E+03 -3.30483E+03  4.08760E+03 -1.10512E+03
  3.34441E+03  2.06442E+03  7.48609E+02  3.18901E+03 -9.03454E+02  1.29948E+03 -1.54411E+03 -6.02333E+01
 -8.53143E+02 -1.92890E+03  1.53704E+03 -2.04141E+03  1.58064E+03 -1.17978E+03  1.86218E+03  3.86050E+02
  1.17553E+03  6.08411E+02  8.51715E+02 -2.33663E+02 -3.97203E+02  8.37589E+02  1.37890E+03 -1.95318E+02
  1.84462E+02 -5.24971E+02  2.24301E+03  6.92792E+02  4.21712E+02  2.74956E+03 -6.20625E+02  3.54248E+03
 -2.31851E+03  1.83121E+03 -2.80760E+03  2.23444E+02 -2.70915E+03 -9.73768E+02 -5.13747E+02 -1.16459E+03
  3.35709E+02 -1.60913E+03  9.15128E+02 -1.04838E+03  9.53470E+02  1.28981E+03 -8.17376E+02  1.21946E+03
 -1.72210E+03  1.02107E+03 -1.48741E+03 -1.34826E+03 -8.49269E+02 -2.55307E+03  3.14978E+02 -2.04697E+03
  8.64140E+02 -9.75321E+02  1.21174E+03  3.82068E+02  1.69748E+03  4.39907E+02  2.28560E+02  1.77980E+03
 -6.40011E+02 -9.57622E+01 -1.13537E+03 -3.32392E+02  6.33462E+02 -1.21375E+03  2.17450E+03 -1.54827E+03
  2.08380E+03  4.21078E+02  3.17617E+03  1.42505E+03  1.54915E+03  2.10571E+03 -3.83468E+02  2.19921E+03
 -1.91940E+03  7.24675E+02 -2.24863E+03 -3.09479E+02 -1.02698E+03 -1.80648E+03  3.88179E+02 -9.12577E+02
  1.81775E+03 -7.56678E+02  1.10082E+03  8.77336E+02 -5.21267E+01  1.48301E+03  1.25499E+02  1.62922E+03
 -1.59806E+02  1.41139E+03 -6.03070E+02  1.70483E+02 -1.58093E+02  5.83484E+02 -7.10692E+02  6.87733E+02
 -8.77612E+02  1.02591E+03 -2.10647E+03  5.64368E+02 -2.29862E+03  1.28418E+02 -3.14132E+03 -1.39263E+03
 -1.32027E+03 -3.32500E+03  7.83502E+02 -3.73217E+03  1.64996E+03 -3.28344E+03  3.60653E+03 -1.16382E+03
  3.26735E+03  1.34651E+02  1.83610E+03  2.02516E+03 -4.76836E+02  1.99361E+03 -8.36132E+02  2.03718E+03
 -1.09785E+03  7.40173E+02 -8.22191E+02 -4.47302E+02 -6.67779E+02  2.84258E+02 -4.98745E+02 -1.09094E+02
 -1.14894E+03 -5.20975E+02 -1.06177E+03  1.08567E+02  1.12184E+02 -6.57600E+02 -5.26648E+02 -1.03347E+03
  1.14986E+03 -8.86675E+02  8.57363E+02  2.12429E+02  1.41316E+03  1.49373E+03 -1.28655E+02  2.06614E+03
 -9.57078E+02  2.86625E+03 -2.08780E+03  1.48275E+03 -2.34204E+03 -3.36720E+02 -1.62830E+03 -1.73226E+03
 -9.04473E+02 -1.62393E+03  3.94238E+02 -1.76560E+03  1.20826E+03 -9.72154E+02  1.16938E+03  4.98550E+02
  7.64239E+02  3.45788E+02 -9.44224E+01  3.81221E+02 -4.63568E+02 -1.30563E+02  1.09292E+02 -3.17691E+02
  4.29541E+02  1.65479E+02  6.21475E+02  6.21016E+02  2.06820E+02  7.29820E+02  6.31507E+02  5.26454E+02
 -6.51287E+02  8.44464E+02 -7.78923E+02  6.68736E+01 -1.04221E+03 -7.73133E+02 -1.37862E+02 -1.37010E+03
  1.00544E+03 -1.01836E+03  9.39714E+02 -1.54997E+02  1.22502E+03 -4.84765E+02  7.16134E+02  1.04933E+03
  4.04381E+02  8.25183E+02  8.20298E+01  1.08702E+03 -8.03104E+02  7.44808E+02 -6.52195E+02  3.79383E+02
 -1.50472E+02 -2.06527E+02 -4.49141E+02  1.20416E+02 -8.03617E+02  1.55870E+02 -8.92124E+02 -1.60408E+02
 -1.24046E+03  5.11997E+01 -3.86370E+02 -1.30524E+03  5.23226E+02 -1.84736E+03  1.08089E+03 -2.67346E+02
  1.10071E+03  4.14261E+02 -1.40761E+02  4.60439E+02  1.11359E+02  1.40335E+03 -6.29040E+02  9.90713E+02
