 $NMID ID='MM_0lb_SNR800_12hz_g50_29.RAW', FMTDAT='(8E13.5)'
 TRAMP=1., VOLUME=1. $END
  3.09946E+05  9.31364E+01  3.37819E+05  2.50397E+05  8.49372E+04  3.38490E+05 -1.32773E+05  2.51598E+05
 -1.90720E+05  8.35551E+04 -1.12231E+05 -3.27002E+04  4.09622E+02 -5.05250E+04  5.36801E+04 -4.78891E+02
  3.54209E+04  5.28469E+04 -1.68080E+04  7.57526E+04 -6.10409E+04  6.39540E+04 -8.44901E+04  3.22982E+04
 -8.17700E+04 -1.13078E+04 -5.73707E+04 -5.18774E+04 -1.52199E+04 -7.01075E+04  2.77194E+04 -4.63356E+04
  4.06415E+04  3.96153E+03  1.62333E+04  4.84348E+04 -3.48708E+04  4.74901E+04 -6.72426E+04 -9.91389E+01
 -5.41073E+04 -5.70872E+04 -6.78831E+03 -7.77189E+04  3.42192E+04 -5.56327E+04  4.89850E+04 -1.79186E+04
  4.39258E+04  1.11635E+04  3.22661E+04  2.61630E+04  1.58931E+04  3.00015E+04 -5.46800E+03  2.74865E+04
 -2.20115E+04  1.20118E+04 -1.82551E+04 -5.33139E+03  6.35030E+03 -7.39850E+03  2.25228E+04  1.28076E+04
  6.92625E+03  3.60261E+04 -3.26146E+04  3.59353E+04 -6.44854E+04  2.07660E+03 -5.79074E+04 -4.33423E+04
 -1.23679E+04 -6.42925E+04  4.04015E+04 -4.59081E+04  5.94535E+04 -2.62763E+03  3.53908E+04  3.34132E+04
 -5.73356E+03  3.73578E+04 -3.08989E+04  1.68716E+04 -3.16153E+04 -4.15859E+03 -1.78516E+04 -1.14871E+04
 -8.74912E+03 -1.39614E+04 -5.45849E+02 -1.86478E+04  7.98196E+03 -2.33162E+04  1.57148E+04 -1.28775E+04
  1.10489E+04  5.55380E+03 -9.00178E+03  1.28348E+04 -2.24584E+04 -5.25075E+03 -8.42865E+03 -3.53303E+04
  2.39563E+04 -4.47470E+04  4.98410E+04 -2.01961E+04  4.67321E+04  2.00760E+04  1.64718E+04  4.56364E+04
 -1.59933E+04  3.44413E+04 -2.60784E+04  2.06388E+03 -1.06786E+04 -2.86450E+04  2.12909E+04 -3.51174E+04
  4.28418E+04 -9.98142E+03  3.72371E+04  2.40223E+04  1.96904E+04  4.83228E+04 -8.20824E+03  5.23859E+04
 -3.30465E+04  3.55094E+04 -4.41528E+04  1.05709E+04 -4.46183E+04 -1.74576E+04 -2.44190E+04 -3.96470E+04
  7.33764E+03 -3.96901E+04  3.27243E+04 -1.56359E+04  3.02246E+04  1.09651E+04  4.22081E+03  1.96955E+04
 -1.36577E+04  8.87065E+03 -1.04259E+04 -7.56734E+03  5.64607E+03 -1.08681E+04  1.83873E+04  5.97789E+03
  1.38615E+04  2.27451E+04 -5.69535E+03  2.59591E+04 -2.28788E+04  1.24979E+04 -2.93899E+04 -4.19715E+03
 -2.23979E+04 -1.76591E+04 -9.51006E+03 -2.27238E+04  4.32778E+03 -2.25010E+04  1.73424E+04 -2.01080E+04
  2.85887E+04 -1.29812E+04  3.47199E+04  3.76333E+03  2.52108E+04  2.18574E+04  4.00097E+03  3.82985E+04
 -1.88626E+04  3.16862E+04 -2.88911E+04  1.09006E+04 -2.15601E+04 -1.00516E+04 -4.55335E+03 -1.31870E+04
  1.18053E+03 -2.29098E+03 -6.25722E+03  7.66311E+03 -1.75720E+04  5.20439E+03 -1.79528E+04 -8.03100E+03
 -1.05213E+04 -2.08087E+04  5.36267E+03 -2.49392E+04  1.66437E+04 -1.81176E+04  1.98123E+04 -1.76551E+03
  1.26797E+04  1.45618E+04 -1.04834E+03  2.06136E+04 -1.42848E+04  1.17306E+04 -2.08554E+04 -4.18888E+03
 -1.52472E+04 -1.87952E+04 -2.00958E+03 -2.46445E+04  1.12597E+04 -2.06078E+04  2.06852E+04 -1.01459E+04
  1.94528E+04 -1.66117E+01  1.37258E+04  4.73411E+03  7.70231E+03  9.54010E+02  1.04445E+04 -1.25482E+03
  1.91376E+04  2.59098E+03  2.17395E+04  1.60652E+04  1.45163E+04  3.28529E+04 -2.65713E+03  3.81740E+04
 -2.20266E+04  3.11948E+04 -3.60747E+04  1.58175E+04 -3.78864E+04 -2.66755E+03 -3.08018E+04 -2.21041E+04
 -1.30902E+04 -3.09699E+04  1.11569E+04 -2.78541E+04  2.41100E+04 -1.39788E+04  2.12561E+04  6.20443E+03
  7.55341E+03  1.61154E+04 -1.01591E+04  1.37765E+04 -1.75198E+04  2.35949E+03 -1.33154E+04 -1.11784E+04
 -5.21515E+01 -1.69277E+04  8.70508E+03 -1.27447E+04  1.15365E+04 -1.18476E+03  2.47477E+03  7.04920E+03
 -7.40338E+03  3.44693E+03 -7.48339E+03 -5.86118E+03 -9.75094E+02 -1.52705E+04  1.05069E+04 -1.60935E+04
  1.92894E+04 -8.78744E+03  2.06949E+04  2.94374E+03  1.84094E+04  1.53593E+04  8.51920E+03  2.33599E+04
 -3.77880E+03  2.57885E+04 -1.61510E+04  1.59234E+04 -1.84842E+04  3.58826E+03 -1.29304E+04 -4.30886E+03
 -5.88317E+03 -5.61774E+03 -5.23778E+02  7.71284E+02 -2.53254E+03  2.68693E+03 -5.93411E+03  4.68054E+03
 -1.21729E+04 -5.95198E+02 -1.24679E+04 -1.03558E+04 -5.42140E+03 -1.66469E+04  5.35354E+03 -1.29596E+04
  1.10747E+04 -5.25361E+03  7.84917E+03  3.98947E+03  9.89813E+01  5.23851E+03 -6.07839E+03 -2.26855E+02
 -6.30818E+03 -8.00493E+03 -1.22898E+03 -1.24022E+04  7.35507E+03 -1.31682E+04  1.62329E+04 -7.03041E+03
  1.92496E+04  1.61557E+03  1.40635E+04  1.15565E+04  2.46201E+03  1.54173E+04 -7.84152E+03  1.28281E+04
 -1.04601E+04  4.10203E+03 -5.27302E+03 -2.70787E+03  1.97169E+03 -3.66153E+03  6.88895E+03 -1.05431E+03
  6.11148E+03  5.57913E+03  1.17597E+03  1.05096E+04 -7.63564E+03  1.01496E+04 -1.22480E+04  2.32466E+03
 -8.37338E+03 -6.71260E+03  2.96599E+02 -1.10838E+04  6.86169E+03 -6.06061E+03  7.07977E+03  2.67157E+03
  1.49655E+03  7.52285E+03 -6.42856E+03  8.67651E+03 -1.03817E+04  4.20199E+03 -1.06943E+04 -3.47912E+03
 -6.34231E+03 -1.23099E+04  2.75067E+03 -1.39326E+04  1.14924E+04 -8.16430E+03  1.25650E+04  2.29575E+03
  8.11324E+03  1.01083E+04 -8.96045E+02  1.20878E+04 -9.31089E+03  6.90450E+03 -9.72414E+03 -9.49995E+02
 -8.32590E+03 -7.98995E+03 -1.51162E+03 -9.25221E+03  5.13338E+03 -7.64208E+03  5.87694E+03 -3.18303E+03
  3.99841E+03  1.48642E+03 -1.04203E+03  1.72599E+03 -5.69148E+02 -2.03674E+03  1.82593E+03 -5.60759E+03
  8.58780E+03 -3.10907E+03  1.17176E+04  1.39759E+03  1.13136E+04  7.77130E+03  8.43178E+03  1.55067E+04
 -3.14940E+03  1.75500E+04 -1.49373E+04  1.35416E+04 -1.95751E+04  2.34243E+03 -1.56010E+04 -6.51624E+03
 -7.59530E+03 -1.28656E+04 -3.80379E+02 -1.10025E+04  3.93464E+03 -5.86499E+03  3.80944E+03 -3.78183E+03
  2.98074E+03 -2.18081E+03  3.17680E+03 -3.15107E+03  4.99501E+03 -2.77463E+03  6.18053E+03 -5.37350E+02
  8.30340E+03  1.82653E+03  3.98300E+03  6.89640E+03 -1.75890E+03  7.73740E+03 -8.32664E+03  5.97370E+03
 -1.09031E+04 -1.39940E+03 -6.50915E+03 -7.64101E+03 -6.02458E+02 -1.13320E+04  6.63207E+03 -1.13511E+04
  1.16893E+04 -6.32515E+03  1.42400E+04  1.75980E+03  1.00076E+04  9.69954E+03  1.35878E+03  1.27873E+04
 -5.31117E+03  1.06266E+04 -7.35950E+03  3.53140E+03 -4.83196E+03 -1.62470E+03 -2.36819E+03 -1.23840E+03
 -9.60377E+02  2.71119E+02 -1.74140E+03  2.50102E+03 -4.61398E+03  2.03323E+03 -7.77110E+03 -1.26501E+03
 -5.04509E+03 -7.33816E+03  4.73355E+02 -1.05441E+04  6.36436E+03 -9.35345E+03  9.98243E+03 -2.75057E+03
  1.02084E+04  5.24715E+03  4.66899E+03  9.04612E+03 -1.93384E+03  1.05395E+04 -6.85844E+03  6.82867E+03
 -9.27952E+03  4.04432E+02 -7.53930E+03 -6.38929E+03 -6.62054E+02 -8.62577E+03  4.25578E+03 -6.56600E+03
  6.60437E+03 -2.51130E+03  4.55292E+03  1.69639E+03  1.60616E+03  3.01905E+03  1.39064E+03  1.40826E+03
  2.50756E+03  7.95188E+02  2.37059E+03  1.46522E+03  3.22028E+03  4.19094E+03  2.62837E+03  5.39180E+03
 -2.04446E+03  7.82728E+03 -6.96409E+03  8.37341E+03 -1.01006E+04  2.56491E+03 -1.10414E+04 -4.19660E+03
 -4.82724E+03 -9.95071E+03  1.32361E+03 -1.09807E+04  5.80413E+03 -6.99528E+03  8.24307E+03 -1.71167E+03
  6.77378E+03  3.89028E+03  1.27568E+03  5.78178E+03 -2.69685E+03  3.33408E+03 -3.69565E+03 -4.57803E+02
 -1.77830E+03 -4.28723E+03  2.52937E+03 -4.46257E+03  4.09209E+03 -2.66568E+03  3.75451E+03  7.04761E+02
  2.22645E+03  1.76681E+03  1.08587E+03  1.10963E+03 -8.26454E+02  1.36582E+03  1.50483E+03 -6.57296E+02
  1.49347E+03 -7.71155E+02  4.41599E+03  1.46527E+03  1.98666E+03  5.18878E+03 -8.63645E+02  6.97926E+03
 -4.24461E+03  4.46093E+03 -6.27398E+03  7.27869E+02 -5.93879E+03 -2.11817E+03 -1.78520E+03 -3.74528E+03
  7.14794E+02 -3.82611E+03  2.86184E+03 -2.04532E+03  1.83664E+03  2.00922E+03 -1.15533E+03  2.93733E+03
 -4.16426E+03  1.98679E+03 -4.18129E+03 -2.31638E+03 -2.72755E+03 -5.27660E+03  1.06413E+03 -5.41655E+03
  3.09500E+03 -2.91731E+03  3.43600E+03 -2.65933E+02  3.39271E+03  1.31830E+03  5.44943E+02  2.91320E+03
 -1.70028E+03  6.42411E+02 -2.53065E+03 -2.00790E+03  7.38289E+02 -3.80942E+03  4.43758E+03 -3.21044E+03
  5.73170E+03  6.83267E+02  6.45948E+03  3.65607E+03  2.31217E+03  6.58970E+03 -1.78268E+03  5.56785E+03
 -4.81723E+03  2.68098E+03 -5.50439E+03 -8.39561E+02 -2.67441E+03 -4.10031E+03  1.19094E+03 -3.20519E+03
  4.16671E+03 -1.74494E+03  3.02072E+03  1.78618E+03  9.55221E+02  3.17701E+03 -1.39561E+02  2.91343E+03
 -1.14247E+03  2.05117E+03 -1.47875E+03  6.64432E+02 -2.91418E+02  5.58361E+02 -1.47732E+03  1.19911E+03
 -1.63313E+03  2.71297E+03 -4.12444E+03  2.01704E+03 -5.95026E+03  1.98808E+02 -7.11175E+03 -4.01843E+03
 -3.50790E+03 -7.76508E+03  1.80442E+03 -9.18433E+03  5.41628E+03 -7.49546E+03  8.99911E+03 -2.90454E+03
  8.01173E+03  1.15428E+03  5.04954E+03  5.55364E+03  1.01143E+02  5.89838E+03 -2.39874E+03  4.60562E+03
 -3.30290E+03  1.69424E+03 -2.17330E+03 -6.54494E+02 -8.53240E+02 -3.15460E+02 -5.55608E+02 -1.22746E+02
 -1.74279E+03  3.73468E+01 -1.26849E+03 -6.09178E+02 -2.23219E+02 -1.53604E+03  1.32779E+02 -2.35432E+03
  2.92300E+03 -2.00491E+03  3.23909E+03  1.68250E+02  4.36311E+03  3.41976E+03  7.21820E+02  5.71654E+03
 -2.87143E+03  7.07485E+03 -6.28922E+03  4.37981E+03 -7.24449E+03 -3.32080E+02 -5.34902E+03 -4.58367E+03
 -2.48116E+03 -5.89246E+03  1.40691E+03 -5.46687E+03  3.72831E+03 -2.90469E+03  4.07525E+03  1.87733E+02
  2.25733E+03  1.60257E+03  9.90494E+01  1.66412E+03 -1.19790E+03 -1.76346E+02  1.83109E+01 -6.30546E+02
  1.50204E+03 -7.87713E+02  2.35151E+03  9.67455E+02  1.39332E+03  2.09958E+03  4.23325E+02  2.68247E+03
 -2.66736E+03  2.58000E+03 -3.65287E+03  5.37663E+02 -3.68701E+03 -2.82394E+03 -5.27852E+02 -5.05731E+03
  2.58707E+03 -4.01843E+03  4.12749E+03 -9.59410E+02  4.08722E+03  7.42306E+02  2.42645E+03  3.70185E+03
  9.91698E+02  3.42192E+03 -1.28768E+03  3.20729E+03 -2.31648E+03  1.68908E+03 -2.16599E+03  5.18701E+01
 -9.49823E+02 -9.43334E+01 -1.27591E+03  4.34630E+02 -2.04324E+03  6.99299E+02 -3.27500E+03 -6.83809E+02
 -3.17786E+03 -1.82325E+03 -7.44218E+02 -4.01613E+03  1.85095E+03 -4.50868E+03  3.59113E+03 -1.89678E+03
  3.61165E+03  5.55623E+02  1.41621E+03  2.30636E+03 -2.87762E+02  3.77348E+03 -2.70038E+03  2.36935E+03
