 $NMID ID='MM_0lb_SNR800_16hz_g45_6.RAW', FMTDAT='(8E13.5)'
 TRAMP=1., VOLUME=1. $END
  3.09699E+05  5.41257E+02  3.37496E+05  2.50647E+05  8.41505E+04  3.37556E+05 -1.32495E+05  2.50714E+05
 -1.89901E+05  8.27159E+04 -1.11233E+05 -3.30247E+04  1.13943E+03 -5.03911E+04  5.39759E+04  1.04288E+02
  3.54804E+04  5.27982E+04 -1.67436E+04  7.49490E+04 -6.05355E+04  6.29689E+04 -8.35810E+04  3.14005E+04
 -8.04590E+04 -1.15102E+04 -5.66074E+04 -5.08774E+04 -1.49262E+04 -6.89013E+04  2.71022E+04 -4.52993E+04
  3.96139E+04  3.81262E+03  1.58329E+04  4.75582E+04 -3.40836E+04  4.69122E+04 -6.59112E+04 -4.91812E+02
 -5.22502E+04 -5.62764E+04 -6.39033E+03 -7.59822E+04  3.35965E+04 -5.42879E+04  4.69635E+04 -1.65206E+04
  4.26022E+04  1.13522E+04  3.12524E+04  2.51523E+04  1.60002E+04  2.88848E+04 -4.85160E+03  2.67645E+04
 -2.19550E+04  1.23307E+04 -1.87028E+04 -4.60701E+03  4.72653E+03 -7.57723E+03  2.17665E+04  1.12353E+04
  7.36046E+03  3.40447E+04 -3.12843E+04  3.46927E+04 -6.22679E+04  1.90370E+03 -5.61857E+04 -4.18166E+04
 -1.24440E+04 -6.16909E+04  3.91289E+04 -4.41567E+04  5.64412E+04 -2.21919E+03  3.31647E+04  3.14277E+04
 -6.29481E+03  3.45108E+04 -2.89698E+04  1.45277E+04 -2.87741E+04 -4.77243E+03 -1.54416E+04 -1.02918E+04
 -7.51312E+03 -1.22307E+04 -9.26403E+02 -1.74307E+04  6.82314E+03 -2.28871E+04  1.52408E+04 -1.38361E+04
  1.19726E+04  4.62319E+03 -7.01133E+03  1.27301E+04 -2.01181E+04 -3.32302E+03 -8.04777E+03 -3.22228E+04
  2.18441E+04 -4.18862E+04  4.63955E+04 -1.90467E+04  4.34207E+04  1.89851E+04  1.51499E+04  4.31968E+04
 -1.56152E+04  3.18748E+04 -2.41675E+04  1.57350E+03 -8.95863E+03 -2.68543E+04  2.07999E+04 -3.24334E+04
  3.92075E+04 -8.01318E+03  3.32698E+04  2.30940E+04  1.64139E+04  4.46898E+04 -8.09987E+03  4.76107E+04
 -2.98600E+04  3.14761E+04 -3.96776E+04  8.95002E+03 -4.02159E+04 -1.58597E+04 -2.21317E+04 -3.60378E+04
  7.14129E+03 -3.55477E+04  3.01195E+04 -1.38528E+04  2.81045E+04  1.06941E+04  3.37343E+03  1.80735E+04
 -1.33814E+04  7.63435E+03 -1.00349E+04 -7.64651E+03  5.85365E+03 -1.02425E+04  1.74598E+04  6.57580E+03
  1.26915E+04  2.19360E+04 -6.38349E+03  2.42912E+04 -2.17817E+04  1.03987E+04 -2.61633E+04 -5.35957E+03
 -1.85741E+04 -1.68834E+04 -6.56422E+03 -1.83884E+04  4.04374E+03 -1.68745E+04  1.40086E+04 -1.64044E+04
  2.36018E+04 -1.19744E+04  3.01403E+04  1.64442E+03  2.24089E+04  1.79725E+04  4.14672E+03  3.43896E+04
 -1.68783E+04  2.88059E+04 -2.67678E+04  1.01348E+04 -2.02667E+04 -1.02775E+04 -4.39919E+03 -1.37481E+04
  2.25577E+03 -3.42571E+03 -3.50190E+03  6.11073E+03 -1.44345E+04  5.13175E+03 -1.48728E+04 -5.59339E+03
 -9.43584E+03 -1.71582E+04  5.00290E+03 -2.11482E+04  1.40164E+04 -1.52277E+04  1.60451E+04 -1.32637E+03
  1.01092E+04  1.18309E+04 -1.06930E+03  1.72792E+04 -1.14652E+04  9.63808E+03 -1.74173E+04 -3.68392E+03
 -1.26489E+04 -1.55777E+04 -1.67338E+03 -2.07572E+04  9.21791E+03 -1.72015E+04  1.73879E+04 -8.10487E+03
  1.59842E+04  4.55875E+02  1.14290E+04  3.92424E+03  5.97892E+03  7.01674E+02  8.74779E+03 -1.45595E+03
  1.55584E+04  2.81667E+03  1.68374E+04  1.39100E+04  1.08559E+04  2.71531E+04 -3.21937E+03  3.00761E+04
 -1.78646E+04  2.35893E+04 -2.81064E+04  1.14153E+04 -2.87852E+04 -2.27677E+03 -2.43123E+04 -1.65650E+04
 -1.05973E+04 -2.38522E+04  8.10484E+03 -2.17984E+04  1.88326E+04 -1.18551E+04  1.69560E+04  4.52353E+03
  7.20925E+03  1.25314E+04 -8.04729E+03  1.15122E+04 -1.48380E+04  2.44184E+03 -1.11593E+04 -9.03853E+03
 -2.46337E+02 -1.37068E+04  7.03570E+03 -1.04798E+04  8.88234E+03 -1.31856E+03  1.74008E+03  5.93425E+03
 -6.25238E+03  1.62647E+03 -4.78560E+03 -5.10875E+03  3.88961E+01 -1.18768E+04  8.42309E+03 -1.21937E+04
  1.42765E+04 -5.94918E+03  1.49258E+04  3.18884E+03  1.27069E+04  1.10510E+04  5.87662E+03  1.67674E+04
 -2.32046E+03  1.88286E+04 -1.17207E+04  1.18912E+04 -1.32069E+04  3.25478E+03 -9.78442E+03 -2.79310E+03
 -5.09933E+03 -3.82373E+03 -6.76764E+02  1.53383E+03 -2.31790E+03  2.25561E+03 -4.36549E+03  4.03398E+03
 -9.14545E+03 -6.06669E+02 -9.97510E+03 -8.03975E+03 -4.05329E+03 -1.29438E+04  3.95916E+03 -9.82688E+03
  7.87316E+03 -4.16022E+03  5.76411E+03  2.37068E+03  2.17133E+02  3.26744E+03 -4.27276E+03 -2.90260E+02
 -4.05561E+03 -6.25540E+03 -5.43362E+02 -8.92444E+03  4.76352E+03 -9.31649E+03  1.18918E+04 -4.78664E+03
  1.38816E+04  6.88310E+02  1.02591E+04  7.71889E+03  1.87681E+03  1.08206E+04 -6.07018E+03  9.53369E+03
 -7.93884E+03  3.43160E+03 -4.20035E+03 -1.62031E+03  1.31183E+03 -2.39902E+03  5.44319E+03 -7.33426E+02
  4.65885E+03  3.80468E+03  9.98684E+02  7.72818E+03 -5.34649E+03  7.37946E+03 -9.69963E+03  1.93622E+03
 -5.76049E+03 -4.42697E+03  4.56154E+02 -7.79062E+03  4.71111E+03 -3.74382E+03  4.49604E+03  1.65505E+03
  7.55951E+02  4.60212E+03 -4.87262E+03  5.72077E+03 -6.21100E+03  3.00362E+03 -6.26634E+03 -1.71306E+03
 -3.48863E+03 -7.58996E+03  1.65058E+03 -8.71886E+03  7.63023E+03 -5.43361E+03  8.35647E+03  1.35297E+03
  5.80003E+03  6.78599E+03 -2.90236E+02  8.56738E+03 -6.21972E+03  5.05571E+03 -6.47770E+03 -5.06228E+02
 -6.34141E+03 -6.18473E+03 -1.33582E+03 -6.27141E+03  3.25196E+03 -5.65722E+03  3.85521E+03 -2.84544E+03
  3.30076E+03  2.19978E+02 -7.54716E+01  1.18559E+03  2.87942E+02 -8.32730E+02  7.30253E+02 -2.78798E+03
  5.17308E+03 -1.58662E+03  7.17799E+03  9.05727E+02  7.40027E+03  4.41191E+03  5.93023E+03  9.33860E+03
 -1.92310E+03  1.12481E+04 -9.61252E+03  8.37971E+03 -1.24684E+04  1.64156E+03 -9.85079E+03 -3.59233E+03
 -5.25284E+03 -8.28682E+03 -4.20481E+02 -6.90990E+03  2.66835E+03 -3.02508E+03  2.12579E+03 -2.93500E+03
  1.59117E+03 -1.76984E+03  2.33712E+03 -2.69112E+03  3.85411E+03 -2.10982E+03  4.23538E+03 -1.47573E+02
  5.25553E+03  1.50211E+03  2.05467E+03  4.59520E+03 -1.64682E+03  3.97042E+03 -5.70059E+03  3.53824E+03
 -6.62648E+03 -9.58360E+02 -2.89218E+03 -4.44090E+03  1.91767E+02 -6.64177E+03  4.01165E+03 -6.83266E+03
  7.00081E+03 -4.30351E+03  8.64841E+03  7.85247E+02  6.06306E+03  5.74146E+03  1.32940E+03  8.03494E+03
 -2.89403E+03  7.33827E+03 -4.39920E+03  2.30494E+03 -3.00218E+03 -1.15460E+03 -8.78108E+02 -6.05523E+02
 -5.82955E+02  4.84325E+02 -1.25671E+03  1.81772E+03 -2.93600E+03  1.09528E+03 -5.02883E+03 -1.79877E+02
 -2.57224E+03 -4.76137E+03  9.54687E+02 -6.11397E+03  3.90923E+03 -6.02244E+03  5.11623E+03 -9.52778E+02
  5.52229E+03  2.90069E+03  2.63452E+03  5.02303E+03 -1.02597E+03  6.04585E+03 -3.78947E+03  3.87262E+03
 -5.09806E+03  4.71222E+02 -4.13226E+03 -3.56415E+03 -3.14552E+02 -4.47581E+03  2.28040E+03 -3.67850E+03
  3.82033E+03 -1.69799E+03  2.45446E+03  1.08589E+03  5.72931E+02  2.05934E+03  1.14216E+03  7.29401E+02
  1.88654E+03  8.46412E+02  1.33582E+03  1.39155E+03  1.70910E+03  2.75812E+03  1.80803E+03  3.09249E+03
 -1.79137E+03  4.31566E+03 -3.50042E+03  5.21766E+03 -5.12127E+03  1.49358E+03 -6.08989E+03 -1.08511E+03
 -2.41629E+03 -5.30992E+03  9.53416E+02 -6.44147E+03  2.88402E+03 -3.63230E+03  4.60047E+03 -1.16295E+03
  3.21157E+03  2.05756E+03  4.06918E+02  3.06525E+03 -1.14132E+03  2.11745E+03 -1.65245E+03 -8.05976E+01
 -8.41695E+02 -2.46374E+03  1.67437E+03 -2.24695E+03  2.00399E+03 -1.28974E+03  2.24406E+03  5.28724E+02
  1.11564E+03  9.68891E+02  1.10354E+03 -1.29691E+01 -1.51865E+02  1.02446E+03  1.38352E+03 -1.89936E+02
  1.06011E+02 -4.47461E+02  2.64244E+03  7.85539E+02  9.34385E+02  3.28990E+03 -4.39454E+02  3.80897E+03
 -2.36769E+03  2.05320E+03 -2.91403E+03  6.64699E+02 -2.95016E+03 -1.20731E+03 -5.32094E+02 -1.57934E+03
  2.97723E+02 -1.84497E+03  9.63995E+02 -9.87746E+02  7.62370E+02  1.34856E+03 -8.79631E+02  1.70986E+03
 -2.12632E+03  1.31102E+03 -2.06103E+03 -1.65718E+03 -1.23291E+03 -3.20743E+03  2.05802E+02 -2.53606E+03
  1.22667E+03 -1.40565E+03  1.31048E+03 -1.55113E+02  1.87371E+03 -3.21528E+01  3.94851E+02  1.23974E+03
 -9.79018E+02 -8.31341E+01 -1.33875E+03 -3.45881E+02  8.28091E+02 -1.70731E+03  2.47171E+03 -1.55914E+03
  2.47145E+03  1.41182E+02  3.50106E+03  1.18518E+03  1.29387E+03  2.84293E+03 -1.01495E+03  2.79413E+03
 -2.33149E+03  5.32114E+02 -2.46148E+03 -3.47718E+02 -1.22956E+03 -1.89896E+03  6.22520E+02 -1.12276E+03
  2.15863E+03 -1.08970E+03  1.48997E+03  1.06237E+03  3.32086E+02  1.91887E+03 -3.20538E+02  1.66766E+03
 -4.61746E+02  1.53096E+03 -9.62169E+02  4.26460E+02 -4.01344E+01  4.06034E+02 -9.70116E+02  8.61838E+02
 -8.35268E+02  1.24667E+03 -2.28148E+03  1.07140E+03 -2.45178E+03  5.34413E+01 -3.50046E+03 -1.83402E+03
 -1.70595E+03 -3.78909E+03  6.61035E+02 -4.47837E+03  2.24549E+03 -3.84458E+03  4.14991E+03 -1.45922E+03
  3.71061E+03 -2.16183E+01  2.13197E+03  2.38009E+03 -5.35811E+02  2.66013E+03 -1.22773E+03  2.18713E+03
 -1.51232E+03  1.12154E+03 -1.19913E+03 -5.90059E+02 -8.37537E+02  2.22099E+02 -7.53442E+02 -1.62878E+02
 -1.02194E+03 -1.08590E+02 -1.04045E+03  1.20491E+02  1.15928E+01 -1.08457E+03 -3.80440E+02 -1.42345E+03
  1.77233E+03 -8.63803E+02  1.12359E+03  1.62629E+02  1.87565E+03  1.70448E+03  1.33854E+01  2.36081E+03
 -1.12489E+03  3.72206E+03 -2.65407E+03  1.90613E+03 -2.95492E+03 -2.91825E+02 -2.02215E+03 -1.81722E+03
 -1.06760E+03 -2.13998E+03  3.87552E+02 -2.17157E+03  1.31049E+03 -1.63729E+03  1.38068E+03 -1.00539E+01
  1.20642E+03  3.80586E+02  1.70934E+02  8.61121E+02 -6.42748E+02 -1.58130E+02 -2.84845E+01 -4.51760E+02
  7.24974E+02  3.54334E+02  4.65101E+02  6.93055E+02  4.03616E+02  7.52460E+02  3.87886E+02  8.94843E+02
 -1.00734E+03  8.59778E+02 -9.79059E+02  2.45158E+02 -1.43466E+03 -7.45910E+02  4.35057E+01 -1.59912E+03
  1.05841E+03 -1.26753E+03  1.64747E+03 -2.71783E+02  1.71109E+03 -1.16304E+02  7.15532E+02  1.55910E+03
  6.68226E+02  1.40633E+03 -5.87316E+02  1.04618E+03 -1.01701E+03  6.92781E+02 -7.00101E+02  1.45340E+02
 -3.86674E+01 -8.43262E+01 -6.74657E+02  2.15525E+02 -7.73934E+02  3.35636E+02 -1.14515E+03 -3.41803E+02
 -1.37692E+03 -1.92450E+02 -3.44176E+02 -1.27876E+03  1.13531E+03 -2.30616E+03  1.32588E+03 -4.28382E+02
  1.35581E+03  2.39928E+02  2.72004E+02  7.11574E+02 -8.98079E+01  1.68932E+03 -1.11221E+03  1.15421E+03
