 $NMID ID='MM_0lb_SNR800_15hz_g50_19.RAW', FMTDAT='(8E13.5)'
 TRAMP=1., VOLUME=1. $END
  3.09986E+05  3.89402E+02  3.37541E+05  2.50555E+05  8.44945E+04  3.37778E+05 -1.32248E+05  2.51051E+05
 -1.90440E+05  8.30651E+04 -1.11756E+05 -3.23998E+04  9.28434E+02 -5.04486E+04  5.34922E+04 -1.09084E+02
  3.55978E+04  5.28039E+04 -1.66295E+04  7.53632E+04 -6.04791E+04  6.34752E+04 -8.39258E+04  3.18625E+04
 -8.07961E+04 -1.15146E+04 -5.69437E+04 -5.10119E+04 -1.48828E+04 -6.93769E+04  2.73850E+04 -4.57414E+04
  3.98432E+04  3.75689E+03  1.60315E+04  4.79570E+04 -3.41880E+04  4.71118E+04 -6.66869E+04 -3.32664E+02
 -5.30212E+04 -5.61086E+04 -6.67680E+03 -7.64847E+04  3.39475E+04 -5.49547E+04  4.76226E+04 -1.71885E+04
  4.30795E+04  1.14248E+04  3.16268E+04  2.52843E+04  1.55978E+04  2.92639E+04 -5.11097E+03  2.73671E+04
 -2.20621E+04  1.25501E+04 -1.86562E+04 -4.69927E+03  5.44816E+03 -7.42733E+03  2.22124E+04  1.20724E+04
  7.29675E+03  3.51362E+04 -3.20597E+04  3.53193E+04 -6.27901E+04  2.44292E+03 -5.64033E+04 -4.25163E+04
 -1.24967E+04 -6.29872E+04  3.92917E+04 -4.51186E+04  5.77232E+04 -2.06175E+03  3.39222E+04  3.21865E+04
 -5.87697E+03  3.56584E+04 -2.96617E+04  1.56785E+04 -2.98567E+04 -4.87418E+03 -1.63275E+04 -1.07366E+04
 -8.11316E+03 -1.27334E+04 -5.43177E+02 -1.79257E+04  7.43513E+03 -2.28948E+04  1.53192E+04 -1.31024E+04
  1.17525E+04  4.97698E+03 -7.70665E+03  1.29321E+04 -2.06854E+04 -4.13852E+03 -8.49077E+03 -3.30850E+04
  2.24629E+04 -4.29072E+04  4.75079E+04 -1.95705E+04  4.43843E+04  1.92765E+04  1.53728E+04  4.36225E+04
 -1.59927E+04  3.29007E+04 -2.53162E+04  1.72655E+03 -9.17365E+03 -2.78784E+04  2.08133E+04 -3.32704E+04
  4.05302E+04 -8.76102E+03  3.49698E+04  2.35041E+04  1.76155E+04  4.58552E+04 -8.02668E+03  4.96288E+04
 -3.09480E+04  3.31966E+04 -4.12145E+04  9.59278E+03 -4.18852E+04 -1.64037E+04 -2.27863E+04 -3.76053E+04
  7.23268E+03 -3.74437E+04  3.09829E+04 -1.44018E+04  2.87168E+04  1.07635E+04  3.78268E+03  1.90787E+04
 -1.35189E+04  8.16949E+03 -1.04252E+04 -7.66651E+03  5.92320E+03 -1.05925E+04  1.78519E+04  6.28395E+03
  1.32338E+04  2.19156E+04 -6.20682E+03  2.49263E+04 -2.21625E+04  1.10157E+04 -2.76399E+04 -5.13350E+03
 -2.03532E+04 -1.71087E+04 -7.85716E+03 -1.98437E+04  4.08970E+03 -1.85773E+04  1.50844E+04 -1.73626E+04
  2.53460E+04 -1.23462E+04  3.16590E+04  2.78280E+03  2.32353E+04  1.92329E+04  4.42520E+03  3.57234E+04
 -1.71825E+04  2.97356E+04 -2.75199E+04  1.06027E+04 -2.05253E+04 -1.01225E+04 -4.25449E+03 -1.33609E+04
  2.08168E+03 -3.13773E+03 -4.53798E+03  6.68828E+03 -1.58448E+04  4.98240E+03 -1.58474E+04 -6.59253E+03
 -9.93389E+03 -1.81307E+04  5.29776E+03 -2.21983E+04  1.46466E+04 -1.64148E+04  1.77117E+04 -1.52304E+03
  1.06570E+04  1.26092E+04 -1.33105E+03  1.83465E+04 -1.23998E+04  1.03222E+04 -1.86011E+04 -3.77633E+03
 -1.33303E+04 -1.69308E+04 -1.82196E+03 -2.20403E+04  1.00705E+04 -1.78619E+04  1.85079E+04 -9.19480E+03
  1.70039E+04  3.57180E+02  1.21881E+04  4.49062E+03  6.55424E+03  7.65754E+02  9.26928E+03 -1.59461E+03
  1.68081E+04  2.90066E+03  1.84432E+04  1.45080E+04  1.17808E+04  2.93771E+04 -2.88573E+03  3.24524E+04
 -1.90419E+04  2.61074E+04 -3.00830E+04  1.30174E+04 -3.15507E+04 -2.01173E+03 -2.66454E+04 -1.83986E+04
 -1.19890E+04 -2.62061E+04  8.66523E+03 -2.37271E+04  2.05995E+04 -1.23410E+04  1.84436E+04  5.12674E+03
  6.88885E+03  1.40033E+04 -8.56881E+03  1.23149E+04 -1.56924E+04  2.51089E+03 -1.20349E+04 -9.54618E+03
 -2.22730E+02 -1.48490E+04  7.60503E+03 -1.12709E+04  9.87295E+03 -1.19897E+03  2.09333E+03  6.43071E+03
 -6.72631E+03  2.24247E+03 -5.42379E+03 -5.37110E+03 -6.13330E+01 -1.27658E+04  9.00418E+03 -1.34236E+04
  1.59855E+04 -6.70415E+03  1.66158E+04  2.94343E+03  1.41948E+04  1.24965E+04  7.08846E+03  1.90262E+04
 -2.72014E+03  2.08354E+04 -1.33380E+04  1.30461E+04 -1.50431E+04  3.11257E+03 -1.06002E+04 -3.07584E+03
 -4.91439E+03 -4.56437E+03 -9.74920E+02  1.13276E+03 -2.10203E+03  2.66751E+03 -4.87522E+03  4.11158E+03
 -9.70258E+03 -8.15965E+02 -1.07678E+04 -8.82720E+03 -4.52819E+03 -1.42731E+04  4.59949E+03 -1.08141E+04
  8.96246E+03 -4.50570E+03  6.64589E+03  2.85642E+03  4.76014E+02  4.00559E+03 -4.61173E+03 -3.63279E+02
 -4.65407E+03 -6.66723E+03 -6.70553E+02 -9.98704E+03  5.70036E+03 -1.04811E+04  1.32428E+04 -5.77502E+03
  1.53858E+04  1.04538E+03  1.15123E+04  8.41501E+03  2.16020E+03  1.18263E+04 -6.67844E+03  1.05742E+04
 -8.57489E+03  3.33774E+03 -4.44218E+03 -1.91277E+03  1.46268E+03 -2.78098E+03  5.70023E+03 -9.81398E+02
  5.23798E+03  4.43469E+03  1.08233E+03  8.43519E+03 -6.02909E+03  8.22707E+03 -1.01364E+04  1.95642E+03
 -6.83852E+03 -4.91161E+03  3.51613E+01 -8.86899E+03  5.69652E+03 -4.45704E+03  5.30162E+03  2.08710E+03
  9.36699E+02  5.60444E+03 -5.32487E+03  6.87714E+03 -7.57526E+03  2.78881E+03 -7.28086E+03 -2.47024E+03
 -4.67077E+03 -8.68652E+03  2.13161E+03 -1.05219E+04  8.95726E+03 -6.31117E+03  9.14305E+03  1.67459E+03
  6.39320E+03  7.36986E+03 -5.12142E+02  9.82399E+03 -7.32007E+03  5.37561E+03 -7.62826E+03 -9.09347E+02
 -7.03111E+03 -6.72299E+03 -1.39299E+03 -6.80214E+03  3.46413E+03 -6.10518E+03  3.99821E+03 -3.28313E+03
  3.61690E+03  9.10137E+02 -5.45905E+02  1.42735E+03  2.35670E+01 -1.05803E+03  9.25276E+02 -3.82162E+03
  6.12586E+03 -1.96094E+03  8.40244E+03  8.57030E+02  8.46023E+03  5.16144E+03  6.53905E+03  1.10310E+04
 -2.23096E+03  1.29817E+04 -1.11653E+04  9.55256E+03 -1.42594E+04  2.10683E+03 -1.15193E+04 -4.12952E+03
 -6.12612E+03 -9.48385E+03 -7.09009E+02 -8.27714E+03  3.03827E+03 -3.92873E+03  2.85732E+03 -2.95781E+03
  2.12817E+03 -1.78259E+03  2.82094E+03 -2.63489E+03  4.15837E+03 -2.32818E+03  4.60042E+03 -1.77009E+02
  6.19611E+03  1.45138E+03  2.25864E+03  4.89128E+03 -1.75934E+03  5.12001E+03 -6.64224E+03  3.98241E+03
 -7.24781E+03 -1.32221E+03 -3.56115E+03 -5.38007E+03  1.21351E+02 -7.96489E+03  4.62672E+03 -8.12226E+03
  8.34066E+03 -5.11160E+03  1.00880E+04  5.37656E+02  7.25129E+03  7.29696E+03  1.44062E+03  8.83737E+03
 -3.47508E+03  8.05705E+03 -5.47199E+03  2.81600E+03 -3.37358E+03 -1.32452E+03 -1.14672E+03 -9.62080E+02
 -8.57908E+02  2.34804E+02 -1.18140E+03  1.95569E+03 -3.33154E+03  1.33167E+03 -5.45679E+03 -7.56249E+02
 -3.05992E+03 -5.51671E+03  4.01802E+02 -7.34096E+03  4.15150E+03 -6.67764E+03  6.73470E+03 -2.17409E+03
  6.70929E+03  3.57101E+03  3.23553E+03  5.78779E+03 -1.44730E+03  7.04339E+03 -4.30888E+03  4.15238E+03
 -6.06653E+03  5.98200E+02 -5.46405E+03 -4.01959E+03 -4.99713E+02 -5.93706E+03  3.15167E+03 -4.15408E+03
  4.61743E+03 -1.72076E+03  3.08713E+03  9.18481E+02  1.05813E+03  2.26258E+03  8.24090E+02  7.20014E+02
  1.94782E+03  9.89101E+02  1.85099E+03  9.90679E+02  1.90463E+03  3.17648E+03  1.87765E+03  3.26726E+03
 -1.68187E+03  5.21357E+03 -4.48407E+03  5.50156E+03 -6.01843E+03  1.41541E+03 -7.05580E+03 -1.67849E+03
 -3.10294E+03 -6.55957E+03  1.04405E+03 -7.55593E+03  3.69160E+03 -4.61624E+03  5.13750E+03 -1.10719E+03
  4.13380E+03  2.82538E+03  8.00696E+02  3.79860E+03 -1.49675E+03  2.30971E+03 -2.26849E+03 -1.38048E+02
 -1.42162E+03 -3.05106E+03  1.77243E+03 -2.66727E+03  2.31761E+03 -1.63159E+03  2.28138E+03  5.25156E+02
  9.76910E+02  9.47135E+02  1.09292E+03  3.18901E+02 -3.02780E+02  1.26287E+03  1.49678E+03 -5.39574E+01
  8.30381E+02 -2.38598E+02  2.71410E+03  1.04162E+03  1.25298E+03  3.88435E+03 -3.71533E+02  4.70034E+03
 -3.01487E+03  2.37328E+03 -3.92246E+03  6.59426E+02 -3.82432E+03 -1.25825E+03 -1.11870E+03 -1.93050E+03
  6.21432E+02 -2.31599E+03  1.44121E+03 -1.24507E+03  1.47390E+03  1.86363E+03 -1.22936E+03  1.83199E+03
 -2.69668E+03  1.49086E+03 -2.73472E+03 -1.61963E+03 -1.71177E+03 -3.76184E+03  6.38659E+02 -3.13284E+03
  1.73161E+03 -1.54297E+03  2.18325E+03 -1.62546E+02  2.22180E+03  5.13882E+02  4.53926E+02  2.16230E+03
 -8.38577E+02  3.79159E+02 -1.50135E+03 -8.46006E+02  1.00096E+03 -2.19641E+03  2.78658E+03 -1.82710E+03
  3.18613E+03  4.19121E+01  4.19936E+03  1.99597E+03  1.36877E+03  3.62502E+03 -1.01631E+03  3.61497E+03
 -3.11968E+03  1.19185E+03 -3.06876E+03 -5.90022E+02 -1.66950E+03 -2.51222E+03  3.59600E+02 -1.94421E+03
  2.57307E+03 -1.49134E+03  2.07262E+03  9.96000E+02  3.78990E+02  2.54239E+03 -1.06520E+02  1.95216E+03
 -6.86128E+02  1.82636E+03 -7.19330E+02  5.13676E+02 -5.26511E+02  5.68081E+02 -1.32000E+03  9.57639E+02
 -1.02158E+03  1.53257E+03 -2.83476E+03  1.25831E+03 -3.43666E+03  4.74877E+01 -4.27188E+03 -2.23748E+03
 -2.00057E+03 -4.78640E+03  6.91388E+02 -5.39386E+03  2.63856E+03 -4.31104E+03  4.94913E+03 -1.63110E+03
  4.55267E+03  4.09141E+02  2.80954E+03  2.94119E+03 -6.52231E+02  3.34347E+03 -1.53146E+03  2.83251E+03
 -2.04841E+03  1.28329E+03 -9.56488E+02 -5.90478E+02 -4.93976E+02  1.18620E+02 -9.72254E+02  7.30926E+01
 -1.26935E+03  1.18030E+02 -1.04771E+03 -1.16531E+02 -8.28132E+00 -9.58268E+02 -1.57983E+02 -1.37531E+03
  1.64997E+03 -1.39256E+03  1.57571E+03  3.73933E+01  2.27320E+03  1.79724E+03 -1.96177E+02  3.29488E+03
 -1.58988E+03  4.15878E+03 -3.34936E+03  2.10118E+03 -3.75988E+03  1.00769E+02 -2.66855E+03 -2.46302E+03
 -1.73664E+03 -3.25469E+03  8.77997E+02 -2.52403E+03  1.55689E+03 -1.52425E+03  1.62981E+03  1.69134E+02
  1.34905E+03  8.12964E+02  2.52926E+01  8.64378E+02 -7.18667E+02 -2.34155E+02 -6.25981E+01 -5.05211E+02
  8.21736E+02 -7.39567E+01  8.93212E+02  9.46940E+02  7.80583E+02  1.17014E+03  4.54320E+02  1.44096E+03
 -1.30007E+03  1.11084E+03 -1.98066E+03  9.56585E+01 -1.68352E+03 -1.41345E+03  2.53051E+01 -2.16075E+03
  1.24114E+03 -2.15639E+03  1.82049E+03 -2.54864E+02  2.23572E+03  3.57511E+02  1.14642E+03  2.02146E+03
  6.14555E+02  1.51360E+03 -6.48231E+02  1.59373E+03 -1.12445E+03  8.81658E+02 -7.95645E+02  9.85964E+01
 -1.84236E+02 -6.42973E+00 -6.80440E+02  1.04703E+02 -1.24988E+03  4.51325E+02 -1.40876E+03 -2.49044E+02
 -1.88795E+03 -2.61383E+02 -7.21128E+02 -1.69704E+03  1.23302E+03 -2.85362E+03  1.47004E+03 -7.82911E+02
  1.84583E+03  3.20064E+02  3.09644E+02  9.90299E+02 -3.42491E+02  1.89561E+03 -1.08804E+03  1.29001E+03
