 $NMID ID='MM_0lb_SNR800_14hz_g40_28.RAW', FMTDAT='(8E13.5)'
 TRAMP=1., VOLUME=1. $END
  3.09912E+05  2.23162E+02  3.37274E+05  2.50428E+05  8.45294E+04  3.37774E+05 -1.32544E+05  2.51262E+05
 -1.90039E+05  8.28722E+04 -1.11581E+05 -3.27630E+04  1.39561E+03 -5.03684E+04  5.38920E+04 -8.84204E+01
  3.50777E+04  5.29215E+04 -1.67704E+04  7.51524E+04 -6.08877E+04  6.33311E+04 -8.40361E+04  3.18974E+04
 -8.04995E+04 -1.10991E+04 -5.70073E+04 -5.07248E+04 -1.47796E+04 -6.91124E+04  2.71777E+04 -4.54970E+04
  3.97698E+04  3.69350E+03  1.61023E+04  4.78598E+04 -3.43944E+04  4.66868E+04 -6.63340E+04 -8.27137E+01
 -5.29593E+04 -5.67126E+04 -6.58307E+03 -7.66559E+04  3.34081E+04 -5.45877E+04  4.75413E+04 -1.69153E+04
  4.31440E+04  1.12699E+04  3.14485E+04  2.52416E+04  1.61072E+04  2.86616E+04 -4.99654E+03  2.68204E+04
 -2.19004E+04  1.27944E+04 -1.88423E+04 -4.57720E+03  5.42798E+03 -7.46236E+03  2.21016E+04  1.20786E+04
  7.30641E+03  3.49512E+04 -3.17120E+04  3.50164E+04 -6.29691E+04  1.76197E+03 -5.67349E+04 -4.24237E+04
 -1.23071E+04 -6.26157E+04  3.95940E+04 -4.47354E+04  5.75167E+04 -2.12849E+03  3.36071E+04  3.19335E+04
 -6.31822E+03  3.54538E+04 -2.95391E+04  1.51023E+04 -2.95897E+04 -4.78848E+03 -1.59085E+04 -1.07708E+04
 -8.03147E+03 -1.26819E+04 -8.57390E+02 -1.78951E+04  7.02207E+03 -2.28834E+04  1.53466E+04 -1.33696E+04
  1.20353E+04  5.06392E+03 -7.62288E+03  1.26077E+04 -2.07013E+04 -3.74559E+03 -8.27636E+03 -3.26235E+04
  2.24662E+04 -4.25620E+04  4.69351E+04 -1.93833E+04  4.42943E+04  1.91842E+04  1.54175E+04  4.35661E+04
 -1.60385E+04  3.28824E+04 -2.50271E+04  1.27841E+03 -9.36202E+03 -2.75001E+04  2.08551E+04 -3.30984E+04
  4.04880E+04 -8.67600E+03  3.44915E+04  2.35685E+04  1.74548E+04  4.53484E+04 -7.93595E+03  4.91692E+04
 -3.09654E+04  3.25181E+04 -4.08281E+04  8.98144E+03 -4.14695E+04 -1.61182E+04 -2.31132E+04 -3.68840E+04
  7.10379E+03 -3.70873E+04  3.08469E+04 -1.41469E+04  2.86507E+04  1.09186E+04  3.78116E+03  1.88491E+04
 -1.33626E+04  8.39132E+03 -1.04084E+04 -7.68764E+03  5.53247E+03 -1.05084E+04  1.76330E+04  6.16094E+03
  1.29787E+04  2.18068E+04 -6.26420E+03  2.46730E+04 -2.19524E+04  1.09193E+04 -2.77193E+04 -5.22578E+03
 -1.96895E+04 -1.71287E+04 -7.55525E+03 -1.96862E+04  3.93492E+03 -1.86234E+04  1.48953E+04 -1.73480E+04
  2.48884E+04 -1.25728E+04  3.15987E+04  2.47421E+03  2.29338E+04  1.95207E+04  4.00461E+03  3.55949E+04
 -1.73977E+04  2.96427E+04 -2.74750E+04  1.05134E+04 -2.04175E+04 -1.03263E+04 -4.21420E+03 -1.35249E+04
  2.08044E+03 -3.40251E+03 -4.26897E+03  6.76535E+03 -1.55618E+04  5.22272E+03 -1.54963E+04 -6.46564E+03
 -1.00642E+04 -1.81888E+04  5.19173E+03 -2.23077E+04  1.47996E+04 -1.59407E+04  1.74296E+04 -1.61126E+03
  1.06322E+04  1.25085E+04 -1.15415E+03  1.83794E+04 -1.21420E+04  1.02005E+04 -1.81045E+04 -3.88211E+03
 -1.32961E+04 -1.62816E+04 -1.83437E+03 -2.22023E+04  9.95342E+03 -1.81454E+04  1.86793E+04 -8.72430E+03
  1.71385E+04  2.30015E+02  1.23224E+04  4.36441E+03  6.48810E+03  7.83323E+02  9.05326E+03 -1.62228E+03
  1.67394E+04  2.59850E+03  1.83061E+04  1.46317E+04  1.20727E+04  2.92943E+04 -2.77365E+03  3.27873E+04
 -1.91653E+04  2.59767E+04 -3.03500E+04  1.26460E+04 -3.17775E+04 -2.26738E+03 -2.65280E+04 -1.84971E+04
 -1.17563E+04 -2.62540E+04  8.89322E+03 -2.37501E+04  2.05891E+04 -1.23142E+04  1.84302E+04  4.99866E+03
  7.32698E+03  1.34012E+04 -8.28120E+03  1.19531E+04 -1.55587E+04  2.79657E+03 -1.20689E+04 -9.42975E+03
 -2.71264E+02 -1.47224E+04  7.87048E+03 -1.13100E+04  9.99793E+03 -1.42772E+03  2.23840E+03  6.17604E+03
 -6.49121E+03  2.38789E+03 -5.32843E+03 -5.39510E+03 -1.51379E+02 -1.28878E+04  9.26524E+03 -1.34511E+04
  1.57810E+04 -6.97101E+03  1.65972E+04  2.55110E+03  1.45650E+04  1.26057E+04  7.23593E+03  1.92887E+04
 -2.65138E+03  2.11146E+04 -1.33067E+04  1.32499E+04 -1.49671E+04  3.32669E+03 -1.08731E+04 -2.95288E+03
 -5.22353E+03 -4.76879E+03 -6.26252E+02  1.11615E+03 -2.51009E+03  2.59576E+03 -4.90104E+03  4.31529E+03
 -9.97732E+03 -7.26209E+02 -1.07463E+04 -8.92638E+03 -4.46403E+03 -1.41874E+04  4.65014E+03 -1.08578E+04
  9.15048E+03 -4.58453E+03  6.73111E+03  3.02094E+03  2.98495E+02  4.06410E+03 -5.13332E+03 -1.90507E+02
 -4.85291E+03 -7.06432E+03 -7.57192E+02 -1.01168E+04  5.76943E+03 -1.05591E+04  1.32420E+04 -5.46959E+03
  1.57324E+04  1.37971E+03  1.13553E+04  8.90636E+03  2.26481E+03  1.20785E+04 -6.49654E+03  1.05971E+04
 -9.07885E+03  3.56812E+03 -4.19890E+03 -1.81529E+03  1.61746E+03 -2.81427E+03  6.10575E+03 -1.24983E+03
  5.22879E+03  4.54980E+03  1.18052E+03  8.83222E+03 -6.17958E+03  8.12697E+03 -1.06123E+04  2.53029E+03
 -6.88665E+03 -5.02168E+03  2.58119E+02 -8.97105E+03  5.32176E+03 -4.55860E+03  5.30068E+03  1.98243E+03
  1.13351E+03  5.71561E+03 -5.36504E+03  6.82846E+03 -7.77386E+03  3.25522E+03 -7.34548E+03 -2.32281E+03
 -4.44607E+03 -9.19332E+03  2.24092E+03 -1.05796E+04  9.17145E+03 -6.58072E+03  9.96229E+03  1.46278E+03
  6.68367E+03  7.63691E+03 -5.35932E+02  9.84400E+03 -7.21798E+03  5.77681E+03 -7.61317E+03 -7.07358E+02
 -7.68397E+03 -6.84115E+03 -1.36219E+03 -7.15191E+03  3.63272E+03 -6.29555E+03  4.82475E+03 -3.16999E+03
  3.32731E+03  9.12163E+02 -4.04998E+02  1.53378E+03  2.08266E+02 -1.19162E+03  1.10811E+03 -3.63396E+03
  6.44906E+03 -2.12111E+03  8.48207E+03  8.01267E+02  8.83359E+03  5.51059E+03  6.89755E+03  1.13065E+04
 -2.55474E+03  1.32930E+04 -1.15034E+04  9.81867E+03 -1.48744E+04  1.97748E+03 -1.17709E+04 -4.51395E+03
 -6.03477E+03 -9.95388E+03 -4.02065E+02 -8.32674E+03  3.23894E+03 -4.21024E+03  2.89494E+03 -3.13841E+03
  2.18264E+03 -2.23244E+03  2.69043E+03 -2.89115E+03  4.69813E+03 -2.01692E+03  5.15506E+03  1.45272E+01
  6.48087E+03  1.63256E+03  2.36581E+03  5.51277E+03 -1.69862E+03  5.52709E+03 -6.41070E+03  4.36879E+03
 -7.96306E+03 -1.03644E+03 -4.24470E+03 -5.64477E+03 -2.79958E+02 -8.19065E+03  5.07627E+03 -8.59327E+03
  8.62834E+03 -4.98366E+03  1.07555E+04  9.64700E+02  7.31686E+03  7.05207E+03  1.42330E+03  9.76488E+03
 -3.81871E+03  8.56490E+03 -5.58700E+03  2.65309E+03 -3.31499E+03 -1.18874E+03 -1.18275E+03 -6.12558E+02
 -7.90161E+02  2.72103E+02 -1.33080E+03  2.40049E+03 -3.31045E+03  1.30524E+03 -6.03786E+03 -7.86146E+02
 -3.20510E+03 -5.79578E+03  6.97337E+02 -7.70920E+03  4.71062E+03 -7.33711E+03  6.93222E+03 -2.12564E+03
  6.82535E+03  3.60890E+03  3.45446E+03  6.31510E+03 -1.67625E+03  7.71020E+03 -4.93494E+03  4.55153E+03
 -6.85156E+03  7.05558E+02 -5.55703E+03 -4.36752E+03 -5.94356E+02 -6.07808E+03  3.34713E+03 -4.59047E+03
  4.45874E+03 -1.80285E+03  2.98125E+03  9.13621E+02  1.09388E+03  2.35404E+03  1.30431E+03  7.82586E+02
  1.96916E+03  5.23888E+02  1.81927E+03  1.45270E+03  2.03778E+03  2.93332E+03  2.23432E+03  3.51983E+03
 -2.08372E+03  5.74705E+03 -4.74708E+03  6.33472E+03 -6.65780E+03  1.39612E+03 -7.28962E+03 -2.07483E+03
 -3.42518E+03 -6.87564E+03  1.05593E+03 -8.23986E+03  4.18761E+03 -4.77240E+03  6.03896E+03 -1.90560E+03
  4.69445E+03  2.95131E+03  1.05937E+03  4.26100E+03 -1.70627E+03  2.41516E+03 -2.50601E+03 -2.48235E+02
 -1.27161E+03 -2.81818E+03  1.76726E+03 -3.20294E+03  2.88076E+03 -1.65134E+03  2.72849E+03  5.04329E+02
  1.60482E+03  1.10130E+03  1.17860E+03  4.80909E+02 -3.97895E+02  1.20095E+03  1.69473E+03 -3.98072E+02
  7.89260E+02 -4.50629E+02  3.11107E+03  1.11421E+03  9.63556E+02  3.94794E+03 -5.14134E+02  4.91782E+03
 -3.25389E+03  2.74442E+03 -4.23606E+03  7.90134E+02 -3.90146E+03 -1.75790E+03 -1.10116E+03 -2.39416E+03
  4.63532E+02 -2.65832E+03  1.72156E+03 -1.50215E+03  1.43362E+03  1.56302E+03 -8.38126E+02  2.19847E+03
 -2.82429E+03  1.47097E+03 -2.97936E+03 -1.91286E+03 -1.75258E+03 -3.64170E+03  2.70734E+02 -3.78551E+03
  1.78646E+03 -1.92771E+03  2.41366E+03 -9.98521E+01  2.17996E+03  5.96444E+02  3.36553E+02  2.16921E+03
 -1.04291E+03  2.83035E+02 -1.79722E+03 -9.40080E+02  5.92711E+02 -2.26040E+03  3.21392E+03 -1.89228E+03
  3.88017E+03  3.51256E+02  4.57112E+03  2.09165E+03  1.42900E+03  4.09741E+03 -1.41550E+03  4.05661E+03
 -3.26544E+03  1.53401E+03 -3.52422E+03 -4.52565E+02 -1.95445E+03 -2.61522E+03  8.42210E+02 -2.22267E+03
  2.54430E+03 -1.29711E+03  1.85571E+03  1.00735E+03  8.61266E+02  2.73696E+03  6.06331E+01  2.01209E+03
 -1.18161E+03  1.65152E+03 -1.32016E+03  2.36889E+02 -3.22432E+02  4.93159E+02 -1.04417E+03  9.36306E+02
 -1.11191E+03  1.95407E+03 -3.02350E+03  1.40794E+03 -3.85413E+03  2.90073E+02 -4.89207E+03 -2.33048E+03
 -2.16322E+03 -5.20379E+03  1.00482E+03 -6.21796E+03  3.29880E+03 -5.10113E+03  5.96037E+03 -2.08410E+03
  5.25487E+03  4.35736E+02  3.05198E+03  3.58649E+03 -8.05829E+01  3.68756E+03 -1.34334E+03  2.88570E+03
 -2.42530E+03  1.41606E+03 -1.47752E+03 -5.44332E+02 -9.01354E+02  9.55954E+01 -9.03537E+02 -4.30599E+01
 -1.34024E+03  4.20226E+01 -1.57834E+03  2.07622E+02 -7.75644E+00 -1.33384E+03 -1.36902E+02 -1.51917E+03
  2.22496E+03 -1.52000E+03  2.08672E+03 -6.95937E+01  2.70950E+03  2.42501E+03  3.36442E+02  4.11228E+03
 -1.87362E+03  4.64383E+03 -4.17459E+03  2.97910E+03 -4.60418E+03 -7.05542E+02 -3.35371E+03 -3.13564E+03
 -1.66154E+03 -3.63279E+03  9.38140E+02 -3.50018E+03  2.35363E+03 -1.69135E+03  2.09262E+03  1.01988E+02
  1.42770E+03  1.10141E+03  1.34667E+02  8.84826E+02 -8.71633E+02 -1.01973E+02  2.47848E+01 -9.31229E+02
  9.03733E+02 -2.55033E+02  1.23496E+03  4.65575E+02  7.13189E+02  1.24421E+03  3.07135E+02  1.50092E+03
 -1.57982E+03  1.91491E+03 -2.26543E+03  7.33612E+01 -2.14445E+03 -1.91277E+03 -4.85957E+02 -3.11992E+03
  1.80779E+03 -2.17191E+03  2.32773E+03 -8.75085E+02  2.67048E+03 -1.30811E+01  1.26249E+03  2.10014E+03
  6.92840E+02  2.24129E+03 -8.60287E+02  1.72619E+03 -1.31018E+03  1.05039E+03 -1.18785E+03  4.43123E+01
 -2.11330E+02 -4.15515E+02 -8.58306E+02  1.84570E+02 -1.36351E+03  2.51853E+02 -1.59662E+03 -6.96151E+02
 -1.93589E+03 -6.37606E+02 -3.33641E+02 -2.71642E+03  1.46818E+03 -3.10701E+03  2.35660E+03 -1.14331E+03
  2.11817E+03  1.46577E+02  8.97755E+02  1.18189E+03 -3.22180E+02  2.68050E+03 -1.35057E+03  1.72905E+03
