 $NMID ID='MM_0lb_SNR800_13hz_g55_62.RAW', FMTDAT='(8E13.5)'
 TRAMP=1., VOLUME=1. $END
  3.09613E+05  2.17088E+02  3.37849E+05  2.50583E+05  8.51020E+04  3.38433E+05 -1.32484E+05  2.51287E+05
 -1.90341E+05  8.34106E+04 -1.12075E+05 -3.26957E+04  7.44774E+02 -5.05682E+04  5.38004E+04 -3.86164E+02
  3.53074E+04  5.26726E+04 -1.68689E+04  7.55228E+04 -6.07331E+04  6.39230E+04 -8.46731E+04  3.24113E+04
 -8.12079E+04 -1.12250E+04 -5.76715E+04 -5.17975E+04 -1.50046E+04 -7.00004E+04  2.75994E+04 -4.63381E+04
  4.06628E+04  3.64480E+03  1.62517E+04  4.82716E+04 -3.44285E+04  4.78237E+04 -6.72569E+04 -3.00897E+02
 -5.39685E+04 -5.75046E+04 -6.98002E+03 -7.78589E+04  3.41729E+04 -5.57603E+04  4.86092E+04 -1.77908E+04
  4.39478E+04  1.15038E+04  3.22605E+04  2.58948E+04  1.58260E+04  3.01004E+04 -5.23852E+03  2.72294E+04
 -2.20870E+04  1.19328E+04 -1.84271E+04 -5.63410E+03  6.04259E+03 -7.30229E+03  2.27784E+04  1.28063E+04
  7.29916E+03  3.61565E+04 -3.31897E+04  3.61683E+04 -6.43966E+04  2.54631E+03 -5.74826E+04 -4.33940E+04
 -1.22110E+04 -6.40383E+04  4.02834E+04 -4.58925E+04  5.95632E+04 -2.46568E+03  3.50853E+04  3.29102E+04
 -5.60604E+03  3.75608E+04 -3.05159E+04  1.72694E+04 -3.17509E+04 -4.22183E+03 -1.78428E+04 -1.09066E+04
 -8.94321E+03 -1.38642E+04 -6.52468E+02 -1.90217E+04  8.09119E+03 -2.29777E+04  1.57079E+04 -1.26659E+04
  1.09603E+04  5.18388E+03 -9.25142E+03  1.30256E+04 -2.16751E+04 -5.09283E+03 -8.45580E+03 -3.49489E+04
  2.37759E+04 -4.51124E+04  4.92773E+04 -2.03746E+04  4.63469E+04  1.97400E+04  1.66498E+04  4.50637E+04
 -1.64908E+04  3.42505E+04 -2.64374E+04  2.25382E+03 -1.05872E+04 -2.84691E+04  2.15019E+04 -3.53175E+04
  4.24862E+04 -1.00276E+04  3.72586E+04  2.39491E+04  1.94169E+04  4.78816E+04 -8.15036E+03  5.22871E+04
 -3.30984E+04  3.54318E+04 -4.39085E+04  9.89708E+03 -4.40524E+04 -1.73150E+04 -2.43331E+04 -3.95747E+04
  7.38174E+03 -3.96223E+04  3.25003E+04 -1.56438E+04  3.02911E+04  1.10047E+04  4.49329E+03  1.98856E+04
 -1.37677E+04  9.14153E+03 -1.07412E+04 -7.67893E+03  5.66344E+03 -1.08791E+04  1.84844E+04  5.88167E+03
  1.40065E+04  2.24755E+04 -5.68622E+03  2.59285E+04 -2.31086E+04  1.22550E+04 -2.95551E+04 -4.37892E+03
 -2.21194E+04 -1.77120E+04 -9.50531E+03 -2.21854E+04  4.49446E+03 -2.18375E+04  1.71072E+04 -1.96772E+04
  2.85167E+04 -1.28876E+04  3.41748E+04  3.57094E+03  2.49270E+04  2.13243E+04  4.23022E+03  3.82137E+04
 -1.86801E+04  3.15069E+04 -2.90487E+04  1.07595E+04 -2.13395E+04 -1.03008E+04 -4.55137E+03 -1.31730E+04
  1.56332E+03 -2.32075E+03 -5.44050E+03  7.31127E+03 -1.76437E+04  5.01309E+03 -1.78287E+04 -7.99088E+03
 -1.10874E+04 -2.01785E+04  5.58598E+03 -2.44175E+04  1.62977E+04 -1.75891E+04  1.96214E+04 -1.69733E+03
  1.24789E+04  1.40589E+04 -1.24167E+03  2.05826E+04 -1.43695E+04  1.17451E+04 -2.04509E+04 -4.31297E+03
 -1.51294E+04 -1.80930E+04 -1.78449E+03 -2.47390E+04  1.14370E+04 -2.04101E+04  2.03165E+04 -1.01950E+04
  1.86976E+04  2.62586E+02  1.35478E+04  4.76413E+03  7.28255E+03  1.23461E+03  1.03806E+04 -1.28608E+03
  1.89524E+04  2.95899E+03  2.14425E+04  1.60634E+04  1.43531E+04  3.27237E+04 -2.70819E+03  3.75291E+04
 -2.13304E+04  3.03624E+04 -3.48843E+04  1.51053E+04 -3.71038E+04 -2.71052E+03 -3.01986E+04 -2.15594E+04
 -1.22070E+04 -3.03387E+04  1.10276E+04 -2.71735E+04  2.36296E+04 -1.36929E+04  2.10732E+04  6.20631E+03
  7.49630E+03  1.56130E+04 -9.78700E+03  1.33394E+04 -1.72966E+04  2.62646E+03 -1.33828E+04 -1.08902E+04
 -8.23599E+01 -1.65940E+04  8.46923E+03 -1.20864E+04  1.10912E+04 -1.51271E+03  2.62251E+03  7.18665E+03
 -7.52269E+03  3.25081E+03 -6.89169E+03 -5.81761E+03 -7.42065E+02 -1.46366E+04  1.04509E+04 -1.57275E+04
  1.86252E+04 -8.33025E+03  2.04548E+04  3.22130E+03  1.79311E+04  1.46551E+04  8.42379E+03  2.31201E+04
 -3.95972E+03  2.48879E+04 -1.57360E+04  1.53240E+04 -1.78440E+04  3.81916E+03 -1.25770E+04 -4.16834E+03
 -5.65231E+03 -5.62389E+03 -6.67168E+02  9.84322E+02 -2.55251E+03  2.88889E+03 -5.86835E+03  4.50903E+03
 -1.18624E+04 -1.01217E+03 -1.24242E+04 -9.97743E+03 -5.01212E+03 -1.60820E+04  4.90256E+03 -1.27276E+04
  1.04031E+04 -5.11054E+03  7.62662E+03  3.35644E+03 -6.41647E+01  5.18205E+03 -5.94865E+03 -8.74846E+01
 -5.91680E+03 -8.08419E+03 -8.84735E+02 -1.18219E+04  6.96520E+03 -1.26307E+04  1.57355E+04 -6.70526E+03
  1.84665E+04  1.92811E+03  1.35277E+04  1.04762E+04  2.88972E+03  1.48244E+04 -7.96488E+03  1.20297E+04
 -9.94482E+03  3.78533E+03 -5.32977E+03 -2.66362E+03  1.89969E+03 -3.36359E+03  6.69175E+03 -9.69805E+02
  6.28796E+03  5.38628E+03  1.07932E+03  9.83420E+03 -7.08556E+03  9.31218E+03 -1.19181E+04  2.24818E+03
 -7.81056E+03 -6.23161E+03  3.37908E+02 -1.05610E+04  6.46290E+03 -5.18441E+03  6.89718E+03  2.46178E+03
  1.17057E+03  6.71592E+03 -6.31229E+03  8.72209E+03 -9.70585E+03  3.62814E+03 -9.72047E+03 -3.49673E+03
 -5.67298E+03 -1.13041E+04  2.75321E+03 -1.29772E+04  1.11413E+04 -8.14826E+03  1.25846E+04  1.90032E+03
  7.47296E+03  9.60507E+03 -1.04094E+03  1.17283E+04 -8.59077E+03  6.76713E+03 -9.33284E+03 -7.66864E+02
 -8.50509E+03 -8.24854E+03 -1.65904E+03 -8.89958E+03  4.79281E+03 -7.09998E+03  5.45437E+03 -3.18669E+03
  3.93906E+03  1.37871E+03 -7.07051E+02  1.59180E+03 -1.37188E+02 -2.14937E+03  1.69431E+03 -4.98624E+03
  8.06870E+03 -3.00472E+03  1.08281E+04  1.29849E+03  1.09081E+04  7.17331E+03  7.78072E+03  1.43110E+04
 -3.30692E+03  1.67895E+04 -1.39928E+04  1.22409E+04 -1.84063E+04  2.24561E+03 -1.47219E+04 -5.94688E+03
 -7.51539E+03 -1.22842E+04 -5.49885E+02 -9.86282E+03  3.61682E+03 -5.56957E+03  3.48963E+03 -3.50160E+03
  2.64821E+03 -2.25467E+03  3.16572E+03 -3.11703E+03  5.01693E+03 -2.47118E+03  5.72987E+03 -6.07161E+02
  7.72036E+03  1.71269E+03  3.34405E+03  6.47484E+03 -2.14431E+03  7.17556E+03 -8.11186E+03  5.85272E+03
 -9.97821E+03 -1.11862E+03 -5.59719E+03 -6.71832E+03 -6.25545E+02 -1.03925E+04  6.28047E+03 -1.06493E+04
  1.11413E+04 -5.97558E+03  1.31269E+04  1.59841E+03  9.19204E+03  9.35145E+03  1.53670E+03  1.20381E+04
 -4.58148E+03  1.01306E+04 -7.25402E+03  3.36152E+03 -4.52740E+03 -1.40030E+03 -1.88840E+03 -1.56062E+03
 -1.08838E+03  3.16249E+02 -1.45491E+03  2.58276E+03 -4.74264E+03  1.50058E+03 -7.44577E+03 -1.10211E+03
 -4.40512E+03 -7.22355E+03  1.97125E+02 -9.54170E+03  5.83407E+03 -8.80613E+03  9.37112E+03 -2.35413E+03
  9.46889E+03  4.69091E+03  4.22479E+03  8.50477E+03 -1.49423E+03  9.49182E+03 -6.47169E+03  6.11391E+03
 -8.76919E+03  3.44027E+02 -6.88056E+03 -5.80507E+03 -2.64097E+02 -7.52049E+03  4.14768E+03 -5.64972E+03
  6.10832E+03 -1.92724E+03  3.64097E+03  1.34995E+03  1.24697E+03  2.97414E+03  1.02101E+03  1.13835E+03
  2.24108E+03  1.08854E+03  2.26316E+03  1.34339E+03  2.84592E+03  3.46560E+03  2.22251E+03  4.44741E+03
 -2.40075E+03  7.09838E+03 -6.00581E+03  7.76580E+03 -8.76571E+03  2.18123E+03 -9.54832E+03 -3.18695E+03
 -4.52461E+03 -8.95082E+03  1.48538E+03 -1.03514E+04  5.51749E+03 -6.45738E+03  7.42394E+03 -1.57379E+03
  5.90263E+03  3.78913E+03  8.38101E+02  5.39512E+03 -2.26426E+03  3.19306E+03 -3.63795E+03 -5.04317E+02
 -1.72231E+03 -3.76478E+03  2.28541E+03 -3.79954E+03  3.44095E+03 -1.73339E+03  3.60795E+03  7.74909E+02
  2.31747E+03  1.49993E+03  9.91240E+02  1.13563E+03 -2.77867E+02  9.92207E+02  1.45074E+03 -5.04100E+02
  1.38684E+03 -5.53774E+02  3.68666E+03  1.81203E+03  1.59476E+03  5.31832E+03 -7.06965E+02  6.25752E+03
 -4.16432E+03  3.73646E+03 -5.36618E+03  1.12660E+03 -5.01070E+03 -1.83562E+03 -1.69061E+03 -3.12074E+03
  3.78717E+02 -3.72091E+03  2.19841E+03 -1.43120E+03  1.70556E+03  1.90783E+03 -1.28304E+03  2.91621E+03
 -3.54504E+03  1.58760E+03 -3.69494E+03 -2.22850E+03 -2.35508E+03 -4.83896E+03  3.73718E+02 -4.74172E+03
  2.40255E+03 -2.82158E+03  3.11995E+03 -4.24901E+02  2.81555E+03  5.52703E+02  4.29895E+02  2.64121E+03
 -1.73531E+03  4.82334E+02 -2.41606E+03 -9.79280E+02  7.98175E+02 -3.29554E+03  4.00387E+03 -3.04430E+03
  4.61734E+03  9.29582E+02  5.36580E+03  3.30876E+03  2.12695E+03  5.21523E+03 -1.59832E+03  5.13931E+03
 -4.29725E+03  1.54638E+03 -4.22354E+03 -2.75232E+02 -2.19733E+03 -3.01574E+03  7.19714E+02 -2.58943E+03
  3.49103E+03 -1.95543E+03  2.51046E+03  1.54610E+03  9.29589E+02  3.01132E+03 -2.77819E+02  2.37698E+03
 -1.08269E+03  2.25646E+03 -1.51835E+03  4.97278E+02 -6.07848E+02  8.66189E+02 -1.57801E+03  1.52961E+03
 -1.57725E+03  2.30100E+03 -3.99607E+03  1.76008E+03 -5.25426E+03  2.53563E+02 -5.86078E+03 -3.15794E+03
 -3.00893E+03 -6.99470E+03  1.25265E+03 -7.83373E+03  4.63296E+03 -6.26438E+03  7.85238E+03 -2.53039E+03
  7.02904E+03  9.66471E+02  4.21609E+03  4.68906E+03 -8.12423E+01  5.48853E+03 -1.88128E+03  3.87179E+03
 -3.00962E+03  1.50449E+03 -1.69414E+03 -5.09122E+02 -8.50308E+02 -3.07085E+02 -5.15810E+02  2.56464E+02
 -1.42801E+03 -1.86431E+02 -1.40009E+03 -1.04911E+02 -6.04325E+01 -1.23199E+03  1.72002E+02 -2.00378E+03
  2.47380E+03 -1.70383E+03  2.90234E+03  4.55742E+01  3.46969E+03  2.87787E+03  5.33264E+01  5.02310E+03
 -2.50348E+03  6.09094E+03 -5.11066E+03  3.61736E+03 -6.54428E+03 -4.94612E+02 -4.78564E+03 -3.69362E+03
 -1.81131E+03 -4.84433E+03  1.41243E+03 -4.56227E+03  2.93163E+03 -2.57591E+03  3.03969E+03 -1.94072E+02
  2.19855E+03  1.72501E+03 -2.54875E+02  1.50007E+03 -9.39425E+02  1.03408E+02 -2.66578E+02 -1.10195E+03
  1.79417E+03 -2.27134E+02  1.96010E+03  6.89535E+02  1.08761E+03  1.83869E+03  1.42542E+02  2.18384E+03
 -1.89097E+03  1.76174E+03 -2.96558E+03  2.47639E+02 -2.77595E+03 -2.37431E+03 -1.96510E+02 -3.93882E+03
  1.95963E+03 -2.84198E+03  2.99530E+03 -9.12262E+02  3.80384E+03  3.38146E+02  2.04536E+03  2.87436E+03
  6.06794E+02  2.99192E+03 -9.69121E+02  2.33551E+03 -1.54937E+03  1.68973E+03 -1.50611E+03  1.98522E+02
 -8.61669E+02 -1.28331E+02 -1.04787E+03  3.36754E+02 -1.75842E+03  6.59606E+02 -2.30155E+03 -4.73837E+02
 -2.76263E+03 -1.06740E+03 -6.31377E+02 -3.24805E+03  1.90040E+03 -3.60258E+03  2.42631E+03 -1.21031E+03
  3.05967E+03  3.90974E+02  1.14650E+03  1.80962E+03 -2.66394E+02  3.03124E+03 -2.05527E+03  1.94073E+03
