 $NMID ID='MM_0lb_SNR800_11hz_g50_55.RAW', FMTDAT='(8E13.5)'
 TRAMP=1., VOLUME=1. $END
  3.09778E+05  4.00279E+02  3.37780E+05  2.50470E+05  8.51193E+04  3.38199E+05 -1.32562E+05  2.51442E+05
 -1.90555E+05  8.34693E+04 -1.12475E+05 -3.25228E+04  6.79968E+02 -5.05336E+04  5.34794E+04 -5.51707E+02
  3.54264E+04  5.30345E+04 -1.64247E+04  7.58484E+04 -6.10625E+04  6.42036E+04 -8.50914E+04  3.25749E+04
 -8.17956E+04 -1.18079E+04 -5.77798E+04 -5.19120E+04 -1.50948E+04 -7.03150E+04  2.78064E+04 -4.63571E+04
  4.07564E+04  3.78969E+03  1.65489E+04  4.82078E+04 -3.46445E+04  4.83429E+04 -6.77725E+04 -6.13968E+01
 -5.43862E+04 -5.75280E+04 -6.89542E+03 -7.83851E+04  3.46588E+04 -5.63930E+04  4.88186E+04 -1.80349E+04
  4.45298E+04  1.17130E+04  3.21636E+04  2.61904E+04  1.59762E+04  3.00306E+04 -5.86713E+03  2.75150E+04
 -2.22900E+04  1.19522E+04 -1.81891E+04 -5.65364E+03  6.19607E+03 -8.00587E+03  2.32798E+04  1.34909E+04
  6.81648E+03  3.63689E+04 -3.30486E+04  3.62080E+04 -6.50391E+04  2.04573E+03 -5.81480E+04 -4.41632E+04
 -1.26563E+04 -6.47281E+04  4.10358E+04 -4.66740E+04  6.03625E+04 -2.31189E+03  3.58482E+04  3.35204E+04
 -5.61208E+03  3.81692E+04 -3.07811E+04  1.74805E+04 -3.20363E+04 -3.97023E+03 -1.81382E+04 -1.14146E+04
 -9.17069E+03 -1.46146E+04 -4.03250E+02 -1.90254E+04  8.17603E+03 -2.31388E+04  1.60675E+04 -1.26233E+04
  1.07402E+04  5.93410E+03 -9.61200E+03  1.26239E+04 -2.26594E+04 -6.03110E+03 -8.40220E+03 -3.61715E+04
  2.39902E+04 -4.55166E+04  5.06473E+04 -2.02386E+04  4.74216E+04  2.06917E+04  1.66302E+04  4.59304E+04
 -1.67130E+04  3.52766E+04 -2.69655E+04  2.39787E+03 -1.07794E+04 -2.90263E+04  2.16076E+04 -3.54885E+04
  4.31788E+04 -1.04227E+04  3.82768E+04  2.44162E+04  2.00928E+04  4.94756E+04 -8.36371E+03  5.37686E+04
 -3.36019E+04  3.65579E+04 -4.52120E+04  1.02508E+04 -4.55863E+04 -1.78529E+04 -2.55231E+04 -4.05486E+04
  7.42273E+03 -4.03124E+04  3.33919E+04 -1.63551E+04  3.06560E+04  1.11525E+04  4.50265E+03  2.02478E+04
 -1.32229E+04  9.04924E+03 -1.07135E+04 -7.26310E+03  5.66408E+03 -1.12329E+04  1.87108E+04  6.15154E+03
  1.39204E+04  2.27098E+04 -5.22905E+03  2.62826E+04 -2.29077E+04  1.29279E+04 -3.01739E+04 -3.79105E+03
 -2.31389E+04 -1.80573E+04 -1.02785E+04 -2.30201E+04  4.07301E+03 -2.31811E+04  1.83206E+04 -2.11748E+04
  2.93647E+04 -1.38678E+04  3.55998E+04  3.95776E+03  2.58049E+04  2.26993E+04  4.19818E+03  3.92757E+04
 -1.91217E+04  3.23785E+04 -2.95283E+04  1.11821E+04 -2.16095E+04 -1.04718E+04 -4.99823E+03 -1.28812E+04
  1.64414E+03 -1.92044E+03 -6.28680E+03  7.58949E+03 -1.89139E+04  4.93651E+03 -1.87690E+04 -8.53835E+03
 -1.12626E+04 -2.15373E+04  5.84055E+03 -2.57244E+04  1.72176E+04 -1.80818E+04  2.05613E+04 -1.87602E+03
  1.32265E+04  1.47953E+04 -1.14420E+03  2.18582E+04 -1.51919E+04  1.20093E+04 -2.20530E+04 -4.54840E+03
 -1.58058E+04 -1.91990E+04 -2.06728E+03 -2.58570E+04  1.17245E+04 -2.15149E+04  2.14319E+04 -1.10793E+04
  2.04176E+04 -2.12382E+02  1.46996E+04  4.92799E+03  7.74001E+03  1.17262E+03  1.09633E+04 -1.91205E+03
  2.02007E+04  3.11452E+03  2.28226E+04  1.72387E+04  1.51771E+04  3.47627E+04 -2.85151E+03  3.99701E+04
 -2.30420E+04  3.29729E+04 -3.77316E+04  1.67133E+04 -4.01690E+04 -3.00969E+03 -3.24958E+04 -2.34844E+04
 -1.35439E+04 -3.33450E+04  1.17225E+04 -2.89860E+04  2.50589E+04 -1.42798E+04  2.21287E+04  7.02640E+03
  7.45703E+03  1.68522E+04 -1.04776E+04  1.43587E+04 -1.84279E+04  2.68476E+03 -1.41060E+04 -1.17497E+04
 -3.38310E+02 -1.74413E+04  9.23703E+03 -1.32103E+04  1.17908E+04 -1.12958E+03  2.91818E+03  7.99239E+03
 -7.80668E+03  3.59940E+03 -7.77244E+03 -6.60132E+03 -1.41323E+03 -1.59808E+04  1.07925E+04 -1.79608E+04
  2.03177E+04 -9.60779E+03  2.27562E+04  3.21589E+03  2.00291E+04  1.64065E+04  9.28806E+03  2.55477E+04
 -4.71883E+03  2.76027E+04 -1.78082E+04  1.66598E+04 -2.00002E+04  3.79490E+03 -1.34864E+04 -4.83956E+03
 -5.85237E+03 -6.27803E+03 -7.27641E+02  4.39564E+02 -2.43367E+03  3.10499E+03 -6.37284E+03  4.98389E+03
 -1.24855E+04 -7.98352E+02 -1.31179E+04 -1.07342E+04 -5.47429E+03 -1.74717E+04  5.78098E+03 -1.38288E+04
  1.16814E+04 -5.63278E+03  8.04889E+03  3.80240E+03 -2.38375E+02  5.38058E+03 -6.95373E+03  4.85656E+01
 -6.63393E+03 -8.62121E+03 -9.74540E+02 -1.32963E+04  7.41760E+03 -1.43490E+04  1.70593E+04 -7.26505E+03
  2.01785E+04  1.71613E+03  1.50561E+04  1.21909E+04  2.93935E+03  1.64214E+04 -8.69773E+03  1.36424E+04
 -1.09216E+04  4.07852E+03 -5.98458E+03 -2.76802E+03  1.69216E+03 -3.75855E+03  7.37349E+03 -8.89480E+02
  6.65714E+03  6.33759E+03  1.05628E+03  1.08725E+04 -7.45394E+03  1.07229E+04 -1.35003E+04  2.54063E+03
 -9.12575E+03 -6.83406E+03  1.93735E+02 -1.18929E+04  7.61650E+03 -5.79622E+03  7.73407E+03  2.38375E+03
  1.62382E+03  8.10912E+03 -7.02282E+03  9.62653E+03 -1.12496E+04  4.43656E+03 -1.15808E+04 -4.05055E+03
 -6.89019E+03 -1.32025E+04  2.87735E+03 -1.50142E+04  1.31418E+04 -9.15003E+03  1.38797E+04  2.57199E+03
  8.77917E+03  1.10573E+04 -1.25253E+03  1.33937E+04 -9.72541E+03  7.66040E+03 -1.09567E+04 -1.19628E+03
 -9.35498E+03 -8.64984E+03 -1.53192E+03 -1.02724E+04  5.64617E+03 -8.08013E+03  6.37772E+03 -3.44554E+03
  4.52196E+03  1.59391E+03 -8.11260E+02  1.41448E+03 -1.90414E+02 -2.73585E+03  2.06286E+03 -6.35983E+03
  9.26464E+03 -3.80804E+03  1.31043E+04  1.26422E+03  1.32233E+04  8.74695E+03  8.90039E+03  1.72876E+04
 -3.49794E+03  2.00823E+04 -1.66734E+04  1.45414E+04 -2.11249E+04  2.87329E+03 -1.71450E+04 -7.18202E+03
 -8.49032E+03 -1.42073E+04 -6.57494E+02 -1.18132E+04  3.89531E+03 -6.30102E+03  3.92634E+03 -4.20414E+03
  2.92303E+03 -2.52739E+03  3.76240E+03 -3.59980E+03  5.15285E+03 -3.12238E+03  6.65255E+03 -1.10251E+03
  8.90939E+03  2.38843E+03  4.82901E+03  7.69866E+03 -2.30961E+03  8.80229E+03 -9.39044E+03  6.86041E+03
 -1.20961E+04 -1.47318E+03 -7.37479E+03 -8.55738E+03 -6.48633E+02 -1.23326E+04  7.56683E+03 -1.27156E+04
  1.35940E+04 -6.86190E+03  1.58241E+04  1.99150E+03  1.11461E+04  1.11737E+04  1.78648E+03  1.44569E+04
 -6.14465E+03  1.20267E+04 -8.56219E+03  4.10825E+03 -5.84144E+03 -1.27317E+03 -2.15614E+03 -1.80104E+03
 -1.25650E+03  7.99129E+01 -1.86137E+03  2.51038E+03 -5.13391E+03  1.91944E+03 -8.39236E+03 -1.17030E+03
 -5.80258E+03 -8.12301E+03  1.00653E+02 -1.17611E+04  7.24198E+03 -1.10040E+04  1.16368E+04 -3.08901E+03
  1.15448E+04  5.53350E+03  5.14681E+03  1.07693E+04 -2.43613E+03  1.18507E+04 -8.27408E+03  7.37898E+03
 -1.04709E+04  7.01252E+02 -8.53614E+03 -7.11099E+03 -7.84222E+02 -9.78753E+03  4.87140E+03 -7.05608E+03
  7.40253E+03 -2.51071E+03  5.01151E+03  1.86288E+03  1.83483E+03  3.34522E+03  1.28748E+03  1.87427E+03
  2.52559E+03  8.50110E+02  3.22971E+03  1.69828E+03  3.43504E+03  4.07539E+03  3.00085E+03  5.93419E+03
 -2.56148E+03  8.93868E+03 -7.92820E+03  9.44785E+03 -1.14095E+04  2.33024E+03 -1.22158E+04 -4.06563E+03
 -5.59213E+03 -1.16519E+04  1.84588E+03 -1.27442E+04  7.03654E+03 -8.07634E+03  9.67408E+03 -2.04482E+03
  7.57680E+03  4.73838E+03  1.49755E+03  6.56015E+03 -3.55551E+03  3.97299E+03 -4.27650E+03 -6.11414E+02
 -2.35049E+03 -4.64422E+03  2.69120E+03 -5.13390E+03  5.12872E+03 -2.36522E+03  4.60044E+03  7.80247E+02
  2.67418E+03  2.04742E+03  1.30991E+03  1.98170E+03 -4.81990E+02  1.47628E+03  1.79219E+03 -5.57037E+02
  1.83168E+03 -3.64431E+02  4.71029E+03  2.08021E+03  2.39968E+03  6.16339E+03 -1.16149E+03  8.18187E+03
 -5.43837E+03  5.39760E+03 -7.20025E+03  1.92132E+03 -6.53903E+03 -2.57057E+03 -2.55775E+03 -4.28831E+03
  5.04286E+02 -4.13969E+03  3.32742E+03 -2.11438E+03  2.31411E+03  2.46211E+03 -9.08702E+02  3.84383E+03
 -4.76657E+03  2.22448E+03 -5.07741E+03 -2.85334E+03 -3.13663E+03 -6.71012E+03  1.21813E+03 -6.04737E+03
  3.52850E+03 -3.35014E+03  4.45946E+03 -1.87512E+02  3.62612E+03  1.25915E+03  9.13108E+02  3.72290E+03
 -2.29522E+03  8.61218E+02 -3.09748E+03 -2.15820E+03  9.84281E+02 -4.75738E+03  5.62374E+03 -3.98283E+03
  6.56182E+03  3.59698E+02  6.95569E+03  4.46381E+03  2.52740E+03  7.31229E+03 -2.40815E+03  7.01556E+03
 -5.90905E+03  2.80511E+03 -6.31586E+03 -7.81009E+02 -3.12567E+03 -4.76591E+03  1.25668E+03 -4.17451E+03
  4.18420E+03 -2.30266E+03  3.67282E+03  2.26826E+03  1.34992E+03  3.96060E+03 -6.53759E+02  3.91272E+03
 -2.20798E+03  2.88091E+03 -2.10657E+03  6.87401E+02 -7.22964E+02  7.86283E+02 -9.66302E+02  1.35412E+03
 -2.24663E+03  2.87543E+03 -5.21301E+03  2.48715E+03 -7.14018E+03  5.03561E+02 -8.49672E+03 -4.78591E+03
 -4.47711E+03 -9.54848E+03  1.96161E+03 -1.07565E+04  6.74796E+03 -8.63679E+03  1.01719E+04 -3.56324E+03
  1.00634E+04  1.95325E+03  5.76449E+03  6.41626E+03  5.23052E+02  7.21132E+03 -3.28059E+03  5.38986E+03
 -4.58256E+03  2.12059E+03 -2.46309E+03 -7.45108E+02 -1.19182E+03 -6.29381E+02 -7.56279E+02  1.99091E+02
 -1.51102E+03  2.60890E+02 -1.92378E+03 -4.28007E+02 -3.64667E+02 -1.95116E+03  2.44723E+02 -2.79562E+03
  3.18957E+03 -2.16402E+03  4.35213E+03 -2.49007E+02  4.89064E+03  3.89106E+03  1.09703E+03  7.40140E+03
 -3.58187E+03  8.42213E+03 -7.75703E+03  4.66611E+03 -8.81485E+03 -1.06784E+03 -6.69933E+03 -5.74983E+03
 -3.02539E+03 -7.32261E+03  1.84954E+03 -6.59010E+03  4.52656E+03 -3.30049E+03  4.59157E+03  3.04917E+02
  2.69867E+03  2.51379E+03  3.01617E+02  2.21265E+03 -1.58911E+03 -3.99503E+01 -7.78632E+01 -1.67377E+03
  2.29690E+03 -5.58979E+02  2.75728E+03  9.06001E+02  1.96362E+03  2.92283E+03  3.74362E+02  3.30227E+03
 -2.99291E+03  3.23544E+03 -4.78143E+03  4.86889E+02 -4.36722E+03 -3.51484E+03 -6.70581E+02 -5.93185E+03
  3.09654E+03 -4.82000E+03  5.00953E+03 -1.29338E+03  5.19141E+03  8.46423E+02  3.12043E+03  4.52693E+03
  1.03737E+03  4.52093E+03 -1.38077E+03  3.92049E+03 -2.84499E+03  2.20742E+03 -2.53448E+03  9.39106E+01
 -1.33183E+03 -3.49617E+02 -1.56046E+03  5.29803E+02 -2.58518E+03  1.16357E+03 -3.60731E+03 -9.21754E+02
 -3.62217E+03 -1.89781E+03 -1.18100E+03 -4.97385E+03  2.34600E+03 -5.05468E+03  3.92116E+03 -2.45926E+03
  4.33485E+03 -9.42238E+01  2.39062E+03  2.89420E+03 -6.41501E+02  4.61342E+03 -3.45101E+03  3.01180E+03
