 $NMID ID='MM_0lb_SNR800_17hz_g40_50.RAW', FMTDAT='(8E13.5)'
 TRAMP=1., VOLUME=1. $END
  3.09842E+05  4.61250E+02  3.37173E+05  2.50364E+05  8.41315E+04  3.37284E+05 -1.32416E+05  2.50589E+05
 -1.89668E+05  8.23144E+04 -1.11096E+05 -3.30262E+04  1.63634E+03 -5.01670E+04  5.36036E+04  3.16392E+02
  3.53997E+04  5.31157E+04 -1.67011E+04  7.47497E+04 -6.03199E+04  6.27199E+04 -8.31251E+04  3.16249E+04
 -7.97995E+04 -1.11688E+04 -5.60501E+04 -5.02553E+04 -1.51963E+04 -6.82126E+04  2.67551E+04 -4.50695E+04
  3.89938E+04  3.86809E+03  1.58548E+04  4.70350E+04 -3.41570E+04  4.61274E+04 -6.55762E+04 -3.89938E+02
 -5.19106E+04 -5.59261E+04 -6.05322E+03 -7.55159E+04  3.32187E+04 -5.32799E+04  4.63362E+04 -1.65386E+04
  4.15132E+04  1.09820E+04  3.08949E+04  2.47447E+04  1.57714E+04  2.84366E+04 -4.62263E+03  2.68519E+04
 -2.17441E+04  1.25646E+04 -1.89134E+04 -4.29384E+03  4.46477E+03 -7.62471E+03  2.11574E+04  1.09568E+04
  7.23391E+03  3.33895E+04 -3.05138E+04  3.39348E+04 -6.14340E+04  2.37936E+03 -5.53765E+04 -4.10435E+04
 -1.24248E+04 -6.11124E+04  3.81230E+04 -4.34660E+04  5.58364E+04 -2.13123E+03  3.21351E+04  3.08381E+04
 -6.41472E+03  3.36337E+04 -2.84340E+04  1.37011E+04 -2.76269E+04 -5.32806E+03 -1.45087E+04 -1.02116E+04
 -7.45288E+03 -1.16921E+04 -1.01988E+03 -1.66911E+04  6.73423E+03 -2.27634E+04  1.50898E+04 -1.37017E+04
  1.19197E+04  4.38533E+03 -6.49324E+03  1.36120E+04 -1.93782E+04 -2.63464E+03 -8.10898E+03 -3.08756E+04
  2.10178E+04 -4.08817E+04  4.51209E+04 -1.87109E+04  4.20460E+04  1.83252E+04  1.45312E+04  4.20268E+04
 -1.52217E+04  3.12319E+04 -2.38546E+04  1.21733E+03 -8.49286E+03 -2.64913E+04  2.02043E+04 -3.17078E+04
  3.82858E+04 -7.51724E+03  3.22071E+04  2.28259E+04  1.57383E+04  4.27537E+04 -7.73709E+03  4.55883E+04
 -2.91151E+04  3.04063E+04 -3.79490E+04  8.44401E+03 -3.88956E+04 -1.53481E+04 -2.18260E+04 -3.51246E+04
  7.27439E+03 -3.43082E+04  2.97234E+04 -1.26859E+04  2.74420E+04  1.06735E+04  3.12637E+03  1.80490E+04
 -1.32230E+04  7.30650E+03 -9.77564E+03 -7.41009E+03  5.75858E+03 -1.04417E+04  1.72793E+04  6.50011E+03
  1.25226E+04  2.14986E+04 -6.78621E+03  2.39454E+04 -2.16109E+04  9.19614E+03 -2.55395E+04 -6.12042E+03
 -1.70199E+04 -1.64300E+04 -5.98402E+03 -1.71004E+04  3.71174E+03 -1.51164E+04  1.28005E+04 -1.47384E+04
  2.20765E+04 -1.18539E+04  2.84451E+04  1.49008E+03  2.16942E+04  1.69035E+04  4.21599E+03  3.28438E+04
 -1.62739E+04  2.80397E+04 -2.58999E+04  9.63601E+03 -1.98870E+04 -1.01979E+04 -4.01259E+03 -1.37798E+04
  2.56915E+03 -4.16546E+03 -2.95729E+03  5.57087E+03 -1.33415E+04  5.13622E+03 -1.39974E+04 -5.00416E+03
 -8.61009E+03 -1.61731E+04  4.62926E+03 -1.98105E+04  1.31220E+04 -1.43274E+04  1.51422E+04 -1.66951E+03
  9.25913E+03  1.11100E+04 -7.45347E+02  1.60789E+04 -1.05407E+04  9.10563E+03 -1.59218E+04 -3.63986E+03
 -1.20457E+04 -1.45669E+04 -1.50730E+03 -1.94363E+04  8.80816E+03 -1.59446E+04  1.63864E+04 -7.35381E+03
  1.49580E+04  2.47613E+02  1.08570E+04  3.74942E+03  5.10858E+03  8.94039E+02  7.63739E+03 -1.47929E+03
  1.43435E+04  2.78109E+03  1.54703E+04  1.32285E+04  9.93340E+03  2.54413E+04 -3.24519E+03  2.75911E+04
 -1.63198E+04  2.13604E+04 -2.54154E+04  1.02838E+04 -2.61458E+04 -1.86282E+03 -2.22395E+04 -1.47056E+04
 -1.02826E+04 -2.14852E+04  7.18153E+03 -1.99785E+04  1.73958E+04 -1.13137E+04  1.60400E+04  3.85571E+03
  6.67021E+03  1.18201E+04 -7.26422E+03  1.09045E+04 -1.39112E+04  2.74805E+03 -1.05144E+04 -8.18104E+03
  2.05225E+01 -1.26838E+04  6.50325E+03 -1.01965E+04  8.17457E+03 -1.43189E+03  1.45178E+03  4.93596E+03
 -5.84805E+03  1.50051E+03 -3.93425E+03 -4.48549E+03  2.15943E+02 -1.09998E+04  8.18772E+03 -1.06653E+04
  1.30541E+04 -4.70703E+03  1.30023E+04  2.89071E+03  1.13643E+04  1.01549E+04  5.52865E+03  1.50735E+04
 -1.94941E+03  1.70517E+04 -1.03174E+04  1.08027E+04 -1.18323E+04  2.94291E+03 -9.28449E+03 -2.12342E+03
 -4.56614E+03 -3.38259E+03 -7.89338E+02  1.21659E+03 -2.22245E+03  2.13618E+03 -3.78592E+03  3.73284E+03
 -8.40428E+03 -5.50897E+02 -9.41351E+03 -7.69356E+03 -3.86458E+03 -1.20203E+04  3.66869E+03 -8.85040E+03
  7.84771E+03 -4.08249E+03  5.45171E+03  2.01912E+03  6.69492E+02  3.36580E+03 -3.49712E+03  1.59885E+01
 -3.66858E+03 -5.59605E+03 -5.59068E+02 -7.66789E+03  4.01033E+03 -8.44524E+03  1.06312E+04 -4.22961E+03
  1.26605E+04  7.34686E+02  9.39043E+03  6.76456E+03  1.52864E+03  8.98092E+03 -5.51193E+03  8.50427E+03
 -7.34403E+03  2.79401E+03 -3.66293E+03 -1.34669E+03  1.44633E+03 -1.82332E+03  5.17557E+03 -1.21918E+03
  4.40772E+03  3.55794E+03  1.09744E+03  6.97122E+03 -4.52446E+03  6.79378E+03 -8.42220E+03  2.08470E+03
 -5.34879E+03 -4.06457E+03  2.72274E+02 -7.11966E+03  3.79447E+03 -3.44628E+03  4.00965E+03  1.30999E+03
  4.94408E+02  3.92025E+03 -4.44172E+03  5.55305E+03 -5.73816E+03  2.77275E+03 -5.16996E+03 -1.53172E+03
 -3.34701E+03 -6.31557E+03  1.41759E+03 -7.66279E+03  6.47181E+03 -5.17982E+03  7.03712E+03  1.36180E+03
  5.02705E+03  5.80590E+03  3.71999E+01  8.09104E+03 -5.53940E+03  4.53626E+03 -5.97927E+03 -5.64223E+02
 -5.95939E+03 -5.60102E+03 -1.55631E+03 -5.87911E+03  2.69450E+03 -5.33792E+03  3.34279E+03 -3.04965E+03
  2.87988E+03  1.71822E+02  1.74349E+01  1.39155E+03  5.92535E+02 -5.12989E+02  5.13202E+02 -2.02269E+03
  4.51334E+03 -9.10647E+02  6.19740E+03  6.24243E+02  6.10529E+03  3.68363E+03  5.39858E+03  7.94545E+03
 -1.34587E+03  9.58711E+03 -8.31065E+03  7.25405E+03 -1.09237E+04  1.24336E+03 -8.65131E+03 -3.02797E+03
 -4.80170E+03 -7.29468E+03 -4.97402E+02 -6.07764E+03  2.57611E+03 -2.59424E+03  1.78157E+03 -2.25017E+03
  1.33952E+03 -1.45863E+03  2.15871E+03 -2.35588E+03  3.44481E+03 -1.51408E+03  4.19045E+03  5.23619E+02
  4.53748E+03  1.20461E+03  1.65251E+03  3.76194E+03 -1.44445E+03  3.62436E+03 -4.87635E+03  3.26569E+03
 -5.51033E+03 -1.06539E+03 -2.26903E+03 -3.89611E+03  2.72884E+02 -5.49447E+03  3.66192E+03 -6.04239E+03
  5.97647E+03 -3.92335E+03  7.40660E+03  3.42723E+02  5.57417E+03  4.61763E+03  1.37932E+03  6.92411E+03
 -2.34024E+03  6.24716E+03 -3.84410E+03  2.40171E+03 -1.98266E+03 -1.15824E+03 -7.04151E+02 -7.97435E+02
 -7.76435E+02  4.20328E+02 -9.78113E+02  1.99075E+03 -2.94652E+03  1.18120E+03 -4.44490E+03 -4.05515E+02
 -2.08167E+03 -4.87984E+03  7.55036E+02 -5.17595E+03  3.25556E+03 -4.92954E+03  4.35237E+03 -1.24987E+03
  4.93824E+03  2.96147E+03  2.07557E+03  3.96798E+03 -1.09677E+03  5.21842E+03 -3.09149E+03  3.17572E+03
 -4.34807E+03  7.24109E+02 -4.07196E+03 -2.60990E+03 -4.38809E+02 -3.74088E+03  2.25468E+03 -2.88011E+03
  3.21100E+03 -1.48952E+03  1.91211E+03  5.47713E+02  5.96064E+02  1.95771E+03  9.86522E+02  8.01432E+02
  1.88578E+03  3.27413E+02  1.47054E+03  1.07273E+03  1.68336E+03  2.28155E+03  1.36690E+03  2.36401E+03
 -1.35265E+03  3.62367E+03 -3.15848E+03  4.66568E+03 -3.87864E+03  1.27575E+03 -4.99483E+03 -7.13885E+02
 -1.92624E+03 -4.60580E+03  6.25881E+02 -5.68877E+03  2.49675E+03 -2.99846E+03  3.51451E+03 -1.28815E+03
  3.12164E+03  2.26680E+03  4.98920E+02  2.87911E+03 -9.18115E+02  1.38369E+03 -1.28829E+03 -2.06189E+02
 -5.59523E+02 -1.77045E+03  1.30817E+03 -2.16599E+03  1.64374E+03 -1.30841E+03  1.64023E+03  4.11229E+02
  5.90439E+02  4.36315E+02  1.00709E+03 -1.33512E+02 -4.31492E+02  5.78772E+02  1.54153E+03 -2.22513E+02
  7.06503E+01 -3.57208E+02  2.37629E+03  6.85307E+02  6.79784E+02  3.00003E+03 -5.55210E+02  3.29551E+03
 -1.98253E+03  1.50500E+03 -2.47739E+03  4.18980E+02 -2.89363E+03 -7.49873E+02 -3.19830E+02 -1.29615E+03
  5.06031E+02 -1.51091E+03  1.32330E+03 -9.55481E+02  8.27905E+02  1.48462E+03 -7.11548E+02  1.52974E+03
 -2.24465E+03  6.61344E+02 -1.56946E+03 -1.65558E+03 -1.01317E+03 -2.63149E+03 -6.60577E+01 -1.77768E+03
  8.71011E+02 -8.36902E+02  1.09247E+03 -1.04129E+02  1.80410E+03  1.26054E+02  6.02183E+02  1.21861E+03
 -3.64739E+02  1.37698E+02 -1.04752E+03 -2.56625E+02  6.74858E+02 -1.26527E+03  2.11605E+03 -1.46274E+03
  1.97410E+03  4.25272E+01  3.17696E+03  1.21683E+03  1.29416E+03  2.07579E+03 -4.78743E+02  2.46394E+03
 -1.90820E+03  6.70080E+02 -1.95844E+03 -2.19074E+02 -1.08778E+03 -1.73225E+03  3.59056E+02 -1.12446E+03
  1.56821E+03 -6.64594E+02  7.91385E+02  8.80300E+02  4.28278E+00  1.68134E+03  4.07625E+02  1.53271E+03
 -4.74468E+02  1.30183E+03 -5.20523E+02  7.01716E+01  1.94764E+02  3.83929E+02 -5.84241E+02  4.99617E+02
 -5.08849E+02  1.48039E+03 -2.35215E+03  8.10634E+02 -2.41985E+03  2.63507E+02 -3.25249E+03 -1.41978E+03
 -1.38542E+03 -2.98248E+03  7.23282E+02 -3.57506E+03  1.77784E+03 -3.13864E+03  3.67229E+03 -1.27021E+03
  2.87248E+03  5.23200E+00  1.64151E+03  1.90478E+03 -2.56695E+02  2.12481E+03 -7.90511E+02  1.59449E+03
 -1.31603E+03  9.71717E+02 -7.40225E+02  6.77745E+00 -4.53730E+02  3.41332E+02 -7.39457E+02  1.45146E+01
 -1.01199E+03 -2.33561E+02 -9.65644E+02 -9.95775E+01  2.21009E+02 -5.64519E+02 -2.01573E+02 -8.97494E+02
  1.61821E+03 -8.69732E+02  9.52987E+02  3.07392E+01  1.24935E+03  1.35777E+03 -2.75177E+02  2.11707E+03
 -1.13991E+03  2.68261E+03 -2.32175E+03  1.88779E+03 -2.25763E+03 -3.64772E+02 -1.67962E+03 -1.65469E+03
 -7.54050E+02 -1.72056E+03  7.12081E+02 -1.79057E+03  1.02302E+03 -1.00173E+03  9.01512E+02  1.36190E+02
  7.97565E+02  8.19807E+02  2.22411E+01  5.73118E+02 -3.64284E+02  1.05400E+02  8.79407E+01 -4.05330E+02
  7.31712E+02 -9.90229E+01  3.26383E+02  5.90314E+02  4.86926E+01  8.60922E+02  2.56377E+02  7.51338E+02
 -8.94926E+02  7.90457E+02 -7.59532E+02 -6.09448E+01 -1.00587E+03 -6.50929E+02  2.00363E+01 -1.46390E+03
  7.76759E+02 -1.27710E+03  8.57619E+02 -2.43291E+01  1.40595E+03 -3.17804E+02  9.56093E+02  1.20585E+03
  3.64124E+02  8.40030E+02 -2.52448E+02  8.29179E+02 -7.69298E+02  8.13038E+02 -4.37581E+02  1.29006E+02
 -5.56113E+02  7.53810E+01 -5.18624E+02 -1.23379E+02 -8.06252E+02  4.25086E+02 -1.10134E+03 -3.18672E+02
 -1.20696E+03 -7.42242E+01 -4.79229E+02 -1.41770E+03  9.45628E+02 -1.87479E+03  8.92133E+02 -4.78062E+02
  9.81075E+02 -1.56033E+02  2.91816E+01  1.77088E+02  3.19193E+02  1.12405E+03 -6.31906E+02  8.30948E+02
