 $NMID ID='MM_0lb_SNR800_12hz_g50_38.RAW', FMTDAT='(8E13.5)'
 TRAMP=1., VOLUME=1. $END
  3.09607E+05  4.50447E+02  3.38105E+05  2.50465E+05  8.46092E+04  3.38221E+05 -1.32665E+05  2.51310E+05
 -1.90746E+05  8.33874E+04 -1.11694E+05 -3.25448E+04  4.51272E+02 -5.06974E+04  5.38255E+04 -4.89580E+01
  3.51993E+04  5.27275E+04 -1.68591E+04  7.57519E+04 -6.11239E+04  6.38356E+04 -8.47288E+04  3.22351E+04
 -8.17079E+04 -1.15819E+04 -5.79279E+04 -5.16631E+04 -1.55187E+04 -7.00601E+04  2.80391E+04 -4.61927E+04
  4.03029E+04  3.82243E+03  1.63936E+04  4.80631E+04 -3.45464E+04  4.76496E+04 -6.74552E+04 -1.36667E+02
 -5.40250E+04 -5.71564E+04 -7.29242E+03 -7.78305E+04  3.41292E+04 -5.56622E+04  4.84792E+04 -1.78150E+04
  4.44338E+04  1.13691E+04  3.23152E+04  2.60378E+04  1.59401E+04  2.98879E+04 -5.56765E+03  2.74295E+04
 -2.21338E+04  1.22158E+04 -1.85986E+04 -4.83503E+03  6.20632E+03 -7.68611E+03  2.29546E+04  1.27977E+04
  7.20793E+03  3.60161E+04 -3.29285E+04  3.64539E+04 -6.44083E+04  2.51851E+03 -5.76796E+04 -4.34125E+04
 -1.26104E+04 -6.40997E+04  4.06478E+04 -4.61813E+04  5.93721E+04 -2.20858E+03  3.56272E+04  3.31636E+04
 -5.88098E+03  3.74321E+04 -3.06865E+04  1.71104E+04 -3.10501E+04 -3.85270E+03 -1.78715E+04 -1.12984E+04
 -8.70190E+03 -1.37281E+04 -7.27918E+02 -1.89514E+04  7.93514E+03 -2.33192E+04  1.55392E+04 -1.29024E+04
  1.11447E+04  5.52522E+03 -9.37770E+03  1.30132E+04 -2.20562E+04 -5.39821E+03 -8.26018E+03 -3.56226E+04
  2.40936E+04 -4.45919E+04  4.94838E+04 -2.00823E+04  4.65635E+04  2.01000E+04  1.66279E+04  4.56283E+04
 -1.61941E+04  3.44488E+04 -2.65571E+04  2.11767E+03 -1.03939E+04 -2.88009E+04  2.13496E+04 -3.51240E+04
  4.24696E+04 -9.98085E+03  3.78120E+04  2.45859E+04  1.95904E+04  4.82015E+04 -8.12902E+03  5.25311E+04
 -3.31386E+04  3.55186E+04 -4.42061E+04  1.04048E+04 -4.47789E+04 -1.72319E+04 -2.48106E+04 -3.96516E+04
  7.71198E+03 -3.96439E+04  3.28422E+04 -1.52920E+04  3.03677E+04  1.10701E+04  4.86730E+03  1.96918E+04
 -1.35844E+04  8.49481E+03 -1.04533E+04 -7.53960E+03  5.81666E+03 -1.08927E+04  1.80272E+04  5.95604E+03
  1.41865E+04  2.22762E+04 -5.77686E+03  2.56732E+04 -2.26714E+04  1.26915E+04 -2.94274E+04 -3.70119E+03
 -2.21721E+04 -1.75831E+04 -9.66487E+03 -2.22428E+04  3.88648E+03 -2.16751E+04  1.73472E+04 -1.98910E+04
  2.85489E+04 -1.33973E+04  3.46608E+04  3.66149E+03  2.51246E+04  2.18760E+04  4.10851E+03  3.87115E+04
 -1.86051E+04  3.18555E+04 -2.89208E+04  1.10265E+04 -2.16390E+04 -1.01580E+04 -4.28254E+03 -1.31624E+04
  1.19012E+03 -1.82039E+03 -6.01328E+03  7.14743E+03 -1.76721E+04  5.40152E+03 -1.76768E+04 -8.25417E+03
 -1.09110E+04 -2.03123E+04  5.32451E+03 -2.48081E+04  1.71227E+04 -1.79257E+04  2.00134E+04 -1.57499E+03
  1.27234E+04  1.43547E+04 -9.70024E+02  2.04687E+04 -1.45750E+04  1.19613E+04 -2.08537E+04 -4.42710E+03
 -1.53273E+04 -1.87954E+04 -2.08900E+03 -2.48560E+04  1.16407E+04 -2.08271E+04  2.09763E+04 -1.01615E+04
  1.98060E+04  1.70707E+02  1.43462E+04  4.86078E+03  7.85486E+03  9.07731E+02  1.06512E+04 -1.97503E+03
  1.94197E+04  2.63087E+03  2.13489E+04  1.63494E+04  1.45368E+04  3.32921E+04 -2.95129E+03  3.81766E+04
 -2.15321E+04  3.12992E+04 -3.54957E+04  1.58614E+04 -3.79855E+04 -2.70915E+03 -3.08634E+04 -2.20512E+04
 -1.30034E+04 -3.15100E+04  1.08482E+04 -2.78736E+04  2.37374E+04 -1.39776E+04  2.06595E+04  6.20016E+03
  7.48560E+03  1.59294E+04 -1.01001E+04  1.38853E+04 -1.74619E+04  2.51441E+03 -1.36630E+04 -1.11752E+04
 -4.38285E+02 -1.69736E+04  8.93534E+03 -1.26114E+04  1.14030E+04 -1.33833E+03  2.88861E+03  7.62854E+03
 -7.57612E+03  3.17701E+03 -7.26545E+03 -6.38469E+03 -8.80124E+02 -1.56857E+04  1.04270E+04 -1.63814E+04
  1.90023E+04 -8.97410E+03  2.07123E+04  3.05866E+03  1.83868E+04  1.47808E+04  8.45519E+03  2.37712E+04
 -4.47990E+03  2.60150E+04 -1.63318E+04  1.57386E+04 -1.84811E+04  3.32055E+03 -1.27431E+04 -4.42345E+03
 -5.93261E+03 -5.88496E+03 -5.86144E+02  9.32275E+02 -2.52199E+03  2.91739E+03 -6.08520E+03  4.85609E+03
 -1.20555E+04 -6.47859E+02 -1.28497E+04 -1.05637E+04 -5.06440E+03 -1.63562E+04  5.26287E+03 -1.31773E+04
  1.06297E+04 -5.44070E+03  7.96068E+03  2.94283E+03 -3.96123E+01  4.87161E+03 -6.39713E+03 -2.63616E+02
 -6.25405E+03 -7.91499E+03 -7.73897E+02 -1.21267E+04  7.32320E+03 -1.30400E+04  1.62912E+04 -6.91776E+03
  1.89943E+04  1.84446E+03  1.35979E+04  1.11769E+04  2.66754E+03  1.50097E+04 -8.04667E+03  1.29395E+04
 -1.03556E+04  3.60489E+03 -5.38107E+03 -2.64236E+03  1.60863E+03 -3.33661E+03  6.83636E+03 -1.22075E+03
  6.16726E+03  5.69838E+03  1.16052E+03  9.98615E+03 -6.90699E+03  9.88109E+03 -1.26558E+04  2.59686E+03
 -8.69070E+03 -6.49777E+03  1.43109E+02 -1.09466E+04  6.66412E+03 -5.35585E+03  6.95525E+03  2.45004E+03
  1.41196E+03  8.11477E+03 -6.75230E+03  9.16875E+03 -1.04285E+04  4.17702E+03 -1.03869E+04 -3.01422E+03
 -6.08185E+03 -1.22013E+04  2.95222E+03 -1.39162E+04  1.20203E+04 -8.22931E+03  1.26288E+04  1.59558E+03
  7.73395E+03  1.02232E+04 -7.63335E+02  1.26148E+04 -9.07744E+03  6.96078E+03 -9.78651E+03 -7.68317E+02
 -8.68312E+03 -8.54255E+03 -1.97224E+03 -9.45204E+03  4.34354E+03 -7.83112E+03  5.75433E+03 -3.59377E+03
  4.22259E+03  1.14534E+03 -8.16629E+02  1.67933E+03 -5.29379E+02 -1.91510E+03  1.46251E+03 -5.49372E+03
  8.47245E+03 -3.30744E+03  1.19649E+04  1.68829E+03  1.16514E+04  8.15953E+03  7.97697E+03  1.55336E+04
 -3.54989E+03  1.77404E+04 -1.49883E+04  1.31197E+04 -1.93201E+04  2.41530E+03 -1.56615E+04 -6.29173E+03
 -8.07672E+03 -1.26536E+04 -5.44224E+02 -1.09756E+04  3.85936E+03 -5.96906E+03  4.24247E+03 -3.92202E+03
  2.54418E+03 -2.29306E+03  3.31948E+03 -3.17798E+03  4.85594E+03 -2.66175E+03  6.14157E+03 -6.54875E+02
  8.30002E+03  1.58636E+03  4.01710E+03  6.78058E+03 -1.89198E+03  8.10549E+03 -8.72245E+03  6.56141E+03
 -1.09027E+04 -1.24159E+03 -6.30280E+03 -7.42455E+03 -3.40376E+02 -1.15685E+04  6.60306E+03 -1.17179E+04
  1.17147E+04 -6.42315E+03  1.39562E+04  1.82214E+03  9.76051E+03  9.20740E+03  1.54521E+03  1.26537E+04
 -4.94387E+03  1.06966E+04 -7.66724E+03  3.72060E+03 -4.87634E+03 -1.46226E+03 -1.93880E+03 -1.58084E+03
 -1.29123E+03  1.38131E+02 -1.59152E+03  2.79752E+03 -4.58702E+03  1.84733E+03 -7.40763E+03 -9.59442E+02
 -5.12398E+03 -7.58343E+03  2.81121E+02 -1.01375E+04  6.34889E+03 -9.50753E+03  9.86668E+03 -3.22378E+03
  9.88265E+03  5.32536E+03  5.11663E+03  8.88901E+03 -2.11329E+03  1.07146E+04 -7.34247E+03  6.62149E+03
 -9.53616E+03  7.87797E+02 -7.39066E+03 -6.05183E+03 -5.08605E+02 -8.23567E+03  4.27008E+03 -6.45026E+03
  6.33576E+03 -2.11113E+03  4.60593E+03  2.00413E+03  1.35824E+03  3.56720E+03  1.26428E+03  1.39179E+03
  2.70257E+03  8.00332E+02  2.41121E+03  1.75509E+03  2.88911E+03  3.80961E+03  2.33066E+03  5.09219E+03
 -2.19904E+03  8.04783E+03 -7.06885E+03  8.54801E+03 -9.89731E+03  2.31771E+03 -1.06601E+04 -3.77735E+03
 -5.15870E+03 -9.97351E+03  1.84742E+03 -1.09937E+04  6.42900E+03 -7.20420E+03  8.25022E+03 -2.12078E+03
  6.48499E+03  4.20680E+03  1.27633E+03  6.19844E+03 -2.56531E+03  3.59759E+03 -3.88682E+03 -5.73759E+02
 -1.86483E+03 -4.23352E+03  2.49036E+03 -4.22710E+03  4.27125E+03 -2.58201E+03  3.94297E+03  4.72619E+02
  2.27003E+03  2.14205E+03  1.00726E+03  1.61696E+03 -4.62907E+02  1.74562E+03  1.64481E+03 -1.94380E+02
  1.47713E+03 -6.52518E+02  4.08300E+03  1.52814E+03  2.24127E+03  5.30750E+03 -8.64116E+02  6.99353E+03
 -4.73275E+03  4.46844E+03 -6.15825E+03  1.27585E+03 -5.58660E+03 -2.21989E+03 -1.73274E+03 -3.99068E+03
  7.71353E+02 -3.84862E+03  2.65544E+03 -1.49926E+03  2.03059E+03  2.33858E+03 -1.03341E+03  3.23133E+03
 -4.15672E+03  2.16114E+03 -4.36402E+03 -2.36929E+03 -2.62686E+03 -5.65139E+03  9.65668E+02 -5.50907E+03
  3.06814E+03 -2.98587E+03  3.85138E+03 -3.10713E+02  3.44783E+03  1.53844E+03  6.45809E+02  2.86287E+03
 -1.82983E+03  4.62674E+02 -2.38865E+03 -1.80222E+03  1.18216E+03 -3.60241E+03  4.64736E+03 -3.27379E+03
  5.99615E+03  5.80519E+02  6.11235E+03  3.60377E+03  1.78894E+03  6.03079E+03 -2.14138E+03  5.69893E+03
 -4.89318E+03  2.35822E+03 -5.07234E+03 -8.82959E+02 -2.73019E+03 -4.04279E+03  8.89902E+02 -3.60122E+03
  4.07215E+03 -1.95108E+03  2.92454E+03  1.45413E+03  8.73973E+02  3.40196E+03 -3.94625E+02  2.97295E+03
 -1.44465E+03  2.17233E+03 -1.78052E+03  5.69816E+02 -8.00335E+02  7.38681E+02 -1.11315E+03  1.38997E+03
 -1.58875E+03  2.52611E+03 -4.31107E+03  1.92386E+03 -6.03443E+03  3.16992E+02 -6.68515E+03 -3.84022E+03
 -3.43806E+03 -7.72928E+03  1.79098E+03 -9.11042E+03  5.05184E+03 -7.11643E+03  8.72300E+03 -2.79320E+03
  8.19264E+03  1.33860E+03  5.03935E+03  5.72751E+03  7.08549E+01  6.28379E+03 -2.19389E+03  4.65137E+03
 -3.41414E+03  1.78690E+03 -1.93392E+03 -6.56908E+02 -8.36796E+02 -2.91686E+02 -6.74110E+02 -1.08940E+02
 -1.57575E+03  1.74394E+02 -1.54827E+03 -4.72294E+02 -4.16149E+02 -1.63065E+03  6.40265E+01 -2.66865E+03
  3.07419E+03 -2.03237E+03  3.33791E+03  3.23963E+02  4.16284E+03  3.31246E+03  8.79804E+02  5.90213E+03
 -3.01372E+03  6.83762E+03 -6.45174E+03  3.71165E+03 -7.29981E+03 -5.33653E+02 -5.22132E+03 -4.52482E+03
 -2.61076E+03 -5.78386E+03  1.41324E+03 -5.27719E+03  3.79607E+03 -2.79039E+03  3.63646E+03  2.89282E+01
  2.19078E+03  1.82561E+03 -2.07712E+02  1.95769E+03 -1.10344E+03 -1.80975E+02 -1.36994E+02 -1.18045E+03
  1.62357E+03 -4.60580E+02  2.57378E+03  9.66704E+02  1.37288E+03  2.05699E+03  2.50324E+02  2.55702E+03
 -2.61083E+03  2.55809E+03 -3.64410E+03  4.06241E+02 -3.44432E+03 -2.78572E+03 -6.89693E+02 -5.02817E+03
  3.31569E+03 -4.15526E+03  4.07039E+03 -9.64450E+02  4.17465E+03  6.44188E+02  2.56376E+03  3.61814E+03
  6.66281E+02  3.76034E+03 -1.40959E+03  2.90131E+03 -2.33333E+03  1.78633E+03 -1.77298E+03  7.87923E+01
 -1.02942E+03 -7.47183E+01 -1.17537E+03  5.20107E+01 -2.44564E+03  6.30911E+02 -2.70166E+03 -9.91309E+02
 -3.16405E+03 -1.74632E+03 -1.12364E+03 -3.59173E+03  2.18233E+03 -4.45828E+03  3.30763E+03 -1.58561E+03
  3.68559E+03  3.85240E+02  1.63248E+03  2.86990E+03 -3.56228E+02  3.82237E+03 -2.42114E+03  2.56318E+03
