 $NMID ID='MM_0lb_SNR800_20hz_g50_34.RAW', FMTDAT='(8E13.5)'
 TRAMP=1., VOLUME=1. $END
  3.09755E+05  2.13475E+02  3.37205E+05  2.50524E+05  8.43971E+04  3.37405E+05 -1.32491E+05  2.50132E+05
 -1.89465E+05  8.23285E+04 -1.11090E+05 -3.28631E+04  1.56068E+03 -5.03007E+04  5.38307E+04  1.68504E+02
  3.49918E+04  5.31152E+04 -1.69960E+04  7.47136E+04 -6.01814E+04  6.24700E+04 -8.27377E+04  3.14952E+04
 -7.94022E+04 -1.12058E+04 -5.61521E+04 -5.02321E+04 -1.50095E+04 -6.81360E+04  2.69619E+04 -4.45581E+04
  3.89032E+04  3.86182E+03  1.54346E+04  4.68686E+04 -3.38673E+04  4.61665E+04 -6.50395E+04 -5.44648E+02
 -5.16108E+04 -5.56018E+04 -6.31328E+03 -7.49451E+04  3.28870E+04 -5.29483E+04  4.62424E+04 -1.62847E+04
  4.11588E+04  1.10253E+04  3.05585E+04  2.40016E+04  1.55908E+04  2.83979E+04 -4.60556E+03  2.68820E+04
 -2.13219E+04  1.28713E+04 -1.89396E+04 -4.30954E+03  4.18387E+03 -7.65422E+03  2.12698E+04  1.05602E+04
  7.44763E+03  3.29600E+04 -3.02124E+04  3.37037E+04 -6.08683E+04  1.97279E+03 -5.49217E+04 -4.07898E+04
 -1.23128E+04 -6.04840E+04  3.78912E+04 -4.29164E+04  5.50798E+04 -1.86627E+03  3.15080E+04  3.03308E+04
 -6.69746E+03  3.25252E+04 -2.81824E+04  1.28453E+04 -2.73129E+04 -5.51710E+03 -1.42186E+04 -1.01475E+04
 -7.11417E+03 -1.13912E+04 -9.29341E+02 -1.62790E+04  6.33785E+03 -2.25852E+04  1.51468E+04 -1.41230E+04
  1.22819E+04  4.30275E+03 -5.68416E+03  1.30212E+04 -1.89379E+04 -2.25768E+03 -8.32410E+03 -2.98765E+04
  2.02983E+04 -3.99437E+04  4.42857E+04 -1.84325E+04  4.14113E+04  1.79523E+04  1.38851E+04  4.14170E+04
 -1.50469E+04  3.06068E+04 -2.32020E+04  1.10575E+03 -7.95105E+03 -2.62401E+04  2.03367E+04 -3.04846E+04
  3.77000E+04 -7.16906E+03  3.08186E+04  2.24894E+04  1.48921E+04  4.18420E+04 -7.80003E+03  4.43490E+04
 -2.78797E+04  2.91848E+04 -3.65452E+04  8.03561E+03 -3.77240E+04 -1.46811E+04 -2.09052E+04 -3.36085E+04
  6.59369E+03 -3.36020E+04  2.88229E+04 -1.20541E+04  2.64540E+04  1.06443E+04  2.89031E+03  1.73908E+04
 -1.31472E+04  6.84824E+03 -9.48678E+03 -7.91948E+03  5.97367E+03 -1.00737E+04  1.69411E+04  6.51655E+03
  1.20056E+04  2.12890E+04 -6.79219E+03  2.31044E+04 -2.13216E+04  8.77975E+03 -2.44149E+04 -6.52052E+03
 -1.61434E+04 -1.62811E+04 -5.22450E+03 -1.61195E+04  3.73480E+03 -1.38714E+04  1.19338E+04 -1.36320E+04
  2.05269E+04 -1.13036E+04  2.72118E+04  9.29533E+02  2.09616E+04  1.58119E+04  4.06587E+03  3.19729E+04
 -1.54619E+04  2.72321E+04 -2.55529E+04  9.46230E+03 -1.94667E+04 -1.03785E+04 -4.03425E+03 -1.41779E+04
  2.80738E+03 -4.33597E+03 -2.12230E+03  5.19797E+03 -1.21498E+04  5.16932E+03 -1.25342E+04 -4.34654E+03
 -8.03820E+03 -1.45995E+04  4.48643E+03 -1.87140E+04  1.22295E+04 -1.35659E+04  1.38207E+04 -1.13298E+03
  8.38783E+03  1.02808E+04 -8.17819E+02  1.51069E+04 -9.66225E+03  8.50932E+03 -1.47414E+04 -3.44243E+03
 -1.13354E+04 -1.34176E+04 -1.00252E+03 -1.85479E+04  8.65602E+03 -1.47092E+04  1.56256E+04 -6.89419E+03
  1.39252E+04  5.73080E+02  9.70743E+03  3.51231E+03  4.85239E+03  4.89252E+02  7.08222E+03 -1.32805E+03
  1.29822E+04  2.58600E+03  1.36099E+04  1.23017E+04  8.43672E+03  2.34878E+04 -3.09831E+03  2.50985E+04
 -1.49845E+04  1.88454E+04 -2.26706E+04  8.93671E+03 -2.31947E+04 -1.70085E+03 -1.98019E+04 -1.32365E+04
 -9.75365E+03 -1.91348E+04  6.19568E+03 -1.78029E+04  1.58628E+04 -1.03385E+04  1.46121E+04  3.20160E+03
  6.56128E+03  1.04649E+04 -6.83167E+03  9.87747E+03 -1.27933E+04  2.73461E+03 -9.78144E+03 -7.35366E+03
  9.12072E+01 -1.18616E+04  5.54486E+03 -8.95329E+03  7.38862E+03 -1.50540E+03  1.25636E+03  4.54473E+03
 -5.45664E+03  9.49193E+02 -3.34056E+03 -4.23501E+03  7.31067E+02 -9.53567E+03  7.49844E+03 -9.22929E+03
  1.11557E+04 -3.88384E+03  1.06988E+04  2.66894E+03  9.38303E+03  8.79141E+03  4.48242E+03  1.27019E+04
 -1.35469E+03  1.44297E+04 -8.64258E+03  9.45856E+03 -9.97564E+03  2.79807E+03 -7.80104E+03 -1.37008E+03
 -4.52841E+03 -2.98630E+03 -1.02364E+03  1.65204E+03 -1.90504E+03  1.98718E+03 -3.63853E+03  3.64590E+03
 -7.14771E+03 -4.95419E+02 -8.37159E+03 -6.77430E+03 -3.31908E+03 -1.09250E+04  3.20862E+03 -7.90780E+03
  6.53159E+03 -3.29726E+03  4.96550E+03  2.00788E+03  6.68168E+02  2.91536E+03 -3.02259E+03 -9.56541E+01
 -3.03956E+03 -4.70778E+03 -8.60695E+02 -6.34888E+03  3.54044E+03 -7.02701E+03  9.18586E+03 -3.35651E+03
  1.05980E+04  5.38213E+02  8.08978E+03  5.52777E+03  1.58794E+03  7.40836E+03 -4.92767E+03  7.70541E+03
 -6.33233E+03  2.83298E+03 -3.42461E+03 -9.88432E+02  1.27001E+03 -1.80066E+03  4.31005E+03 -9.00332E+02
  3.80826E+03  3.14984E+03  1.00067E+03  5.92441E+03 -3.81942E+03  5.87604E+03 -7.35358E+03  1.60920E+03
 -4.50661E+03 -3.14843E+03  3.89750E+02 -5.91888E+03  3.41132E+03 -3.11339E+03  2.70783E+03  6.74716E+02
  1.38674E+02  2.83621E+03 -3.50773E+03  4.07170E+03 -3.93321E+03  2.03312E+03 -3.77579E+03 -6.11451E+02
 -2.47435E+03 -5.30430E+03  9.76240E+02 -6.15563E+03  5.37173E+03 -3.88741E+03  5.65217E+03  7.43688E+02
  4.32247E+03  4.62965E+03  3.70644E+01  6.47652E+03 -4.46952E+03  3.75011E+03 -4.36695E+03 -4.08646E+02
 -5.45141E+03 -4.61831E+03 -1.46861E+03 -4.45944E+03  2.44088E+03 -4.54118E+03  2.72437E+03 -3.04569E+03
  2.76093E+03  2.12847E+02  3.03785E+02  1.14411E+03  7.40588E+02  1.25447E+02 -1.01875E+02 -1.36835E+03
  3.37103E+03 -7.40347E+00  4.66943E+03  7.38413E+02  4.85496E+03  2.14977E+03  4.84343E+03  5.98163E+03
 -1.05574E+03  6.96416E+03 -6.33415E+03  5.54102E+03 -8.54237E+03  1.06965E+03 -6.72097E+03 -2.17664E+03
 -3.81062E+03 -5.83650E+03 -4.14591E+02 -4.14929E+03  1.97865E+03 -1.63214E+03  1.42863E+03 -1.79826E+03
  1.09037E+03 -1.17648E+03  2.05555E+03 -2.27103E+03  3.43300E+03 -1.00666E+03  3.33199E+03  6.60748E+02
  4.03017E+03  1.06117E+03  7.25067E+02  2.86971E+03 -1.76763E+03  2.12225E+03 -3.99827E+03  2.38044E+03
 -3.92737E+03 -1.02336E+03 -1.20230E+03 -2.88861E+03  5.38766E+02 -4.04549E+03  2.89099E+03 -4.59803E+03
  4.09921E+03 -3.07218E+03  5.77494E+03  1.05750E+02  4.22913E+03  3.20150E+03  1.14592E+03  5.12206E+03
 -1.71913E+03  5.11791E+03 -2.67829E+03  1.60981E+03 -1.63976E+03 -1.07992E+03 -3.90188E+02 -3.75817E+02
 -6.94176E+02  4.20535E+02 -1.29021E+03  2.20897E+03 -2.28593E+03  6.64475E+02 -3.71006E+03 -3.10189E+02
 -9.87357E+02 -3.52249E+03  1.05289E+03 -3.77074E+03  2.23246E+03 -3.59805E+03  2.64563E+03 -8.67947E+02
  3.17526E+03  1.98228E+03  1.59981E+03  2.50088E+03 -7.19179E+02  3.72295E+03 -1.90299E+03  2.12678E+03
 -3.23164E+03  7.63089E+02 -3.06451E+03 -1.99347E+03 -1.47598E+02 -2.53549E+03  1.06928E+03 -1.93597E+03
  2.11195E+03 -1.09510E+03  1.33854E+03  9.41025E+01  2.12108E+02  1.44224E+03  1.02561E+03  4.86931E+02
  1.42486E+03  3.57143E+02  9.18455E+02  1.00671E+03  8.03815E+02  1.86423E+03  1.14050E+03  1.14543E+03
 -1.37485E+03  2.10690E+03 -1.92180E+03  3.48571E+03 -2.13826E+03  1.08298E+03 -3.26698E+03 -9.90725E+01
 -1.44854E+03 -2.63609E+03  6.39117E+02 -3.78739E+03  1.50378E+03 -1.96306E+03  2.25930E+03 -1.01508E+03
  1.95818E+03  1.70708E+03  1.52003E+02  1.81728E+03 -6.49466E+02  9.04421E+02 -6.04209E+02 -9.80996E+01
 -7.17909E+02 -1.07120E+03  8.80608E+02 -1.31912E+03  9.20706E+02 -9.26716E+02  8.69982E+02  3.53883E+02
  4.66417E+02 -2.37264E+01  4.97282E+02 -4.97250E+02 -4.44436E+02  5.21632E+02  1.37609E+03 -3.86314E+02
 -1.98447E+02 -1.12662E+02  1.37230E+03  5.04711E+02 -4.10720E+01  1.88487E+03 -7.10946E+02  2.37897E+03
 -1.38433E+03  5.05993E+02 -1.86156E+03  2.09648E+02 -1.70775E+03 -4.85975E+02 -5.43085E+00 -5.35091E+02
  2.91373E+02 -7.14623E+02  8.91221E+02 -5.16600E+02  3.16487E+02  1.04915E+03 -7.99166E+02  7.36764E+02
 -1.20791E+03  6.25690E+02 -6.65685E+02 -1.18054E+03 -4.83238E+02 -1.62969E+03 -5.64111E+00 -1.34963E+03
  7.61568E+01 -3.35611E+02  9.47452E+01  3.72762E+02  9.66480E+02 -3.47021E+02  2.78268E+02  9.32222E+02
 -2.08540E+02  6.17795E+01 -7.78763E+02 -5.10183E+01  5.05210E+02 -4.17063E+02  1.28140E+03 -5.85742E+02
  4.23388E+02  1.89922E+02  1.95040E+03  1.95297E+02  1.03811E+03  1.02105E+03 -2.48743E+02  1.21739E+03
 -1.05245E+03 -2.93595E+00 -9.00182E+02  1.19395E+02 -5.07286E+02 -7.91768E+02 -6.61696E+01 -2.29904E+02
  1.21341E+03 -5.87414E+02  2.30916E+02  5.65375E+02  1.16997E+02  7.55548E+02  1.34702E+02  7.59258E+02
 -1.33141E+02  1.05224E+03 -6.95212E+02  2.72741E+02  2.94063E+02  6.11918E+02 -4.28660E+02  2.95484E+02
 -4.39135E+02  6.93367E+02 -1.48731E+03  2.23661E+02 -1.19166E+03  2.12226E+02 -1.93659E+03 -5.77221E+02
 -7.77141E+02 -1.78813E+03  2.93443E+02 -1.92935E+03  6.09220E+02 -2.15728E+03  2.16115E+03 -1.02848E+03
  1.83748E+03 -4.51837E+02  7.20895E+02  1.16342E+03 -7.88211E+02  1.06775E+03 -3.11921E+02  9.70783E+02
 -7.81659E+02  5.25289E+02 -3.77985E+02  1.41346E+02 -5.78933E+02  1.85371E+02 -8.15545E+02  6.27690E+01
 -1.27530E+03 -1.82580E+02 -8.51260E+02  2.03874E+02  2.96395E+02 -6.47729E+02 -3.77214E+02 -4.70546E+02
  9.77081E+02 -3.72552E+02 -5.45106E+01  1.00063E+02  5.89649E+02  8.11624E+02 -6.96360E+02  8.22522E+02
 -8.50529E+02  1.63031E+03 -1.44196E+03  9.10909E+02 -1.06994E+03 -2.43172E+02 -8.94251E+02 -1.01700E+03
 -7.84827E+02 -9.53790E+02  5.36892E+01 -8.65755E+02  3.98089E+02 -2.80271E+02  4.97660E+02  2.04424E+02
  2.73075E+02  4.25050E+02  1.20479E+02  1.49931E+02 -2.19376E+02 -4.79789E+01 -3.95399E+01 -1.89494E+02
  5.11319E+02  2.57570E+02  2.81209E+00  3.62680E+02 -9.47748E+01  2.23679E+02  4.63345E+02  3.05513E+01
 -5.00490E+02  3.56348E+02 -3.46036E+02  1.06752E+02 -6.47327E+02 -2.18116E+02  4.10802E+01 -7.43419E+02
  4.28436E+02 -3.53333E+02  1.91973E+02 -7.93846E+01  5.56522E+02 -7.27627E+02  2.16170E+02  6.56360E+02
  1.36298E+02  1.85045E+02  1.46759E+01  1.97482E+02 -3.54013E+02  4.58197E+02 -2.47624E+02  2.33417E+02
 -1.06145E+02  1.91188E+02 -5.52076E+02 -1.28561E+02 -5.71388E+02 -1.56799E+01 -6.46427E+02 -4.19945E+02
 -8.18190E+02  2.70348E+02 -4.22205E+02 -7.34305E+02  5.95032E+02 -1.33931E+03  4.38224E+02 -1.88726E+02
  1.73181E+02 -1.12608E+02 -4.84378E+02 -2.97262E+02 -1.53381E+02  6.11866E+02 -3.75070E+02  5.59404E+02
