 $NMID ID='MM_0lb_SNR800_14hz_g50_17.RAW', FMTDAT='(8E13.5)'
 TRAMP=1., VOLUME=1. $END
  3.10137E+05  3.30114E+02  3.37720E+05  2.50455E+05  8.48805E+04  3.37972E+05 -1.32764E+05  2.50745E+05
 -1.90179E+05  8.31005E+04 -1.11987E+05 -3.25678E+04  9.94361E+02 -5.03849E+04  5.38942E+04  2.04126E+01
  3.55707E+04  5.28310E+04 -1.65541E+04  7.56242E+04 -6.08500E+04  6.36587E+04 -8.42221E+04  3.21301E+04
 -8.10600E+04 -1.14771E+04 -5.66802E+04 -5.14954E+04 -1.47594E+04 -6.96885E+04  2.73615E+04 -4.56338E+04
  3.99667E+04  3.82176E+03  1.61227E+04  4.78857E+04 -3.43103E+04  4.75307E+04 -6.66532E+04 -7.89396E+01
 -5.34961E+04 -5.70036E+04 -6.74892E+03 -7.69484E+04  3.41468E+04 -5.51415E+04  4.78360E+04 -1.72804E+04
  4.36346E+04  1.15077E+04  3.14956E+04  2.54715E+04  1.58064E+04  2.96488E+04 -4.88533E+03  2.73113E+04
 -2.21053E+04  1.22905E+04 -1.84499E+04 -5.10562E+03  5.30680E+03 -7.34415E+03  2.22162E+04  1.22413E+04
  7.10001E+03  3.51332E+04 -3.22736E+04  3.55315E+04 -6.34227E+04  2.05322E+03 -5.70523E+04 -4.27787E+04
 -1.27781E+04 -6.33587E+04  3.98771E+04 -4.51565E+04  5.81711E+04 -2.27556E+03  3.42072E+04  3.25431E+04
 -6.43260E+03  3.62201E+04 -2.98787E+04  1.60165E+04 -3.03086E+04 -4.32730E+03 -1.69873E+04 -1.09946E+04
 -8.23208E+03 -1.32995E+04 -5.50888E+02 -1.83886E+04  7.35740E+03 -2.33018E+04  1.52046E+04 -1.29715E+04
  1.15380E+04  5.17039E+03 -8.17642E+03  1.28276E+04 -2.13613E+04 -4.61271E+03 -8.51222E+03 -3.37220E+04
  2.27722E+04 -4.36249E+04  4.83212E+04 -1.98709E+04  4.53913E+04  1.97808E+04  1.57841E+04  4.40978E+04
 -1.61990E+04  3.33263E+04 -2.53311E+04  1.85864E+03 -1.00732E+04 -2.77339E+04  2.10864E+04 -3.38253E+04
  4.12472E+04 -9.01811E+03  3.57803E+04  2.40531E+04  1.82754E+04  4.69228E+04 -8.04645E+03  5.06503E+04
 -3.16424E+04  3.39740E+04 -4.22518E+04  9.55251E+03 -4.27759E+04 -1.65994E+04 -2.36217E+04 -3.81961E+04
  7.44055E+03 -3.77103E+04  3.19633E+04 -1.49254E+04  2.94442E+04  1.10635E+04  4.21480E+03  1.93785E+04
 -1.38017E+04  8.44081E+03 -1.02421E+04 -7.55238E+03  5.98650E+03 -1.07819E+04  1.80247E+04  5.98132E+03
  1.37670E+04  2.20705E+04 -5.84048E+03  2.48593E+04 -2.25534E+04  1.15987E+04 -2.79941E+04 -4.59711E+03
 -2.13106E+04 -1.74090E+04 -8.34755E+03 -2.05227E+04  4.11598E+03 -1.99211E+04  1.60012E+04 -1.80726E+04
  2.64154E+04 -1.30157E+04  3.27936E+04  2.84205E+03  2.39663E+04  2.01107E+04  4.20476E+03  3.65505E+04
 -1.75177E+04  3.06233E+04 -2.80872E+04  1.05444E+04 -2.08679E+04 -1.05853E+04 -4.65949E+03 -1.32799E+04
  1.77480E+03 -2.95001E+03 -5.19646E+03  6.78220E+03 -1.62611E+04  4.90220E+03 -1.64567E+04 -7.00038E+03
 -1.02096E+04 -1.89822E+04  5.23843E+03 -2.31468E+04  1.56922E+04 -1.66262E+04  1.82190E+04 -1.55858E+03
  1.15388E+04  1.32368E+04 -9.92326E+02  1.92531E+04 -1.33541E+04  1.07902E+04 -1.89148E+04 -3.88741E+03
 -1.42060E+04 -1.72549E+04 -1.69627E+03 -2.28502E+04  1.03564E+04 -1.89094E+04  1.94756E+04 -9.36679E+03
  1.79089E+04  2.77212E+02  1.26693E+04  4.43099E+03  7.03705E+03  8.63981E+02  9.59130E+03 -1.58031E+03
  1.76723E+04  2.94542E+03  1.94744E+04  1.50800E+04  1.28082E+04  3.06007E+04 -2.75996E+03  3.45636E+04
 -1.99469E+04  2.75290E+04 -3.24517E+04  1.38375E+04 -3.37823E+04 -2.41293E+03 -2.78197E+04 -1.93530E+04
 -1.20361E+04 -2.76519E+04  9.30984E+03 -2.49068E+04  2.19007E+04 -1.23826E+04  1.94376E+04  5.48494E+03
  7.17296E+03  1.44882E+04 -9.19560E+03  1.25972E+04 -1.65355E+04  2.59569E+03 -1.24024E+04 -1.00047E+04
 -1.77412E+02 -1.54260E+04  7.96392E+03 -1.16397E+04  1.02519E+04 -1.46993E+03  2.01272E+03  6.90509E+03
 -7.23582E+03  2.87394E+03 -5.67641E+03 -5.57188E+03 -5.64153E+01 -1.32925E+04  9.80878E+03 -1.43390E+04
  1.66579E+04 -7.28173E+03  1.80124E+04  2.88689E+03  1.58609E+04  1.33454E+04  7.12835E+03  2.00731E+04
 -3.09432E+03  2.21520E+04 -1.41990E+04  1.38818E+04 -1.58858E+04  3.45360E+03 -1.12002E+04 -3.59373E+03
 -5.72480E+03 -4.99406E+03 -7.36033E+02  1.25518E+03 -2.59973E+03  2.72726E+03 -5.10193E+03  3.82647E+03
 -1.05197E+04 -5.82355E+02 -1.13293E+04 -9.37309E+03 -4.56054E+03 -1.50956E+04  4.80099E+03 -1.14075E+04
  9.53293E+03 -5.11777E+03  6.73913E+03  3.13400E+03  3.35666E+02  4.06738E+03 -5.22484E+03 -1.43094E+02
 -5.28438E+03 -7.36044E+03 -8.73108E+02 -1.09590E+04  6.02868E+03 -1.14861E+04  1.39476E+04 -5.66759E+03
  1.64851E+04  1.30547E+03  1.19984E+04  9.76026E+03  2.28715E+03  1.30251E+04 -7.19154E+03  1.10501E+04
 -9.56156E+03  3.65809E+03 -4.99918E+03 -2.36079E+03  1.38484E+03 -2.81493E+03  6.42357E+03 -1.25942E+03
  5.35904E+03  4.65208E+03  1.27079E+03  8.83392E+03 -6.27647E+03  8.39446E+03 -1.11353E+04  2.41662E+03
 -7.32324E+03 -5.39997E+03  3.11281E+02 -9.42749E+03  5.89305E+03 -4.65866E+03  5.81907E+03  2.00109E+03
  1.34707E+03  6.10890E+03 -5.56629E+03  7.49953E+03 -8.25032E+03  3.21743E+03 -8.09162E+03 -2.49949E+03
 -4.84741E+03 -9.66976E+03  2.26339E+03 -1.13957E+04  9.57688E+03 -6.94319E+03  1.04880E+04  1.78685E+03
  6.82935E+03  8.19155E+03 -9.57006E+02  1.03743E+04 -7.44864E+03  6.20649E+03 -8.17528E+03 -6.33292E+02
 -7.57447E+03 -7.16992E+03 -1.70237E+03 -7.71645E+03  3.73492E+03 -6.88871E+03  4.84237E+03 -3.02273E+03
  3.64470E+03  7.27479E+02 -3.48420E+02  1.34776E+03  8.53980E+01 -1.57774E+03  1.09312E+03 -4.00994E+03
  6.60391E+03 -2.15602E+03  9.35090E+03  1.42136E+03  9.53218E+03  6.18864E+03  7.11591E+03  1.22787E+04
 -2.70997E+03  1.43748E+04 -1.26480E+04  1.06931E+04 -1.59735E+04  2.07170E+03 -1.27301E+04 -5.13891E+03
 -6.58502E+03 -1.02268E+04 -3.29802E+02 -8.79338E+03  3.45484E+03 -4.40380E+03  3.09890E+03 -2.98690E+03
  2.29468E+03 -2.32481E+03  2.75750E+03 -3.00055E+03  4.34219E+03 -2.26396E+03  5.27682E+03 -3.99328E+02
  6.94790E+03  1.31659E+03  2.63089E+03  5.57969E+03 -1.81884E+03  6.35813E+03 -7.15740E+03  4.59205E+03
 -8.31952E+03 -1.22819E+03 -4.60659E+03 -5.93436E+03 -4.70703E+02 -9.17832E+03  5.23413E+03 -9.13656E+03
  9.41897E+03 -5.32218E+03  1.14061E+04  1.10424E+03  7.92217E+03  7.72752E+03  1.48448E+03  1.00402E+04
 -4.07457E+03  9.21717E+03 -5.53779E+03  2.94544E+03 -3.93324E+03 -1.46053E+03 -1.61673E+03 -9.97473E+02
 -4.24125E+02  9.67695E+01 -1.72956E+03  2.43828E+03 -3.75225E+03  1.62821E+03 -6.51609E+03 -1.03523E+03
 -3.77789E+03 -6.08201E+03  2.54967E+02 -8.24874E+03  5.04164E+03 -7.63745E+03  7.51061E+03 -2.28460E+03
  7.85068E+03  4.09846E+03  3.65178E+03  6.89316E+03 -1.59805E+03  8.34134E+03 -5.51077E+03  5.25546E+03
 -7.33840E+03  7.29383E+02 -6.09467E+03 -4.41010E+03 -6.76608E+02 -6.35583E+03  3.29992E+03 -4.92672E+03
  4.86792E+03 -1.79818E+03  3.62676E+03  1.29204E+03  5.66867E+02  2.36810E+03  7.45368E+02  1.13056E+03
  2.21530E+03  6.06488E+02  2.12500E+03  1.64010E+03  2.24245E+03  3.01699E+03  2.43968E+03  4.02664E+03
 -1.78272E+03  5.90212E+03 -5.02768E+03  6.73836E+03 -7.23731E+03  2.20495E+03 -8.28634E+03 -2.22888E+03
 -3.78978E+03 -7.58293E+03  1.15628E+03 -8.45738E+03  4.45298E+03 -5.53291E+03  6.02897E+03 -1.51233E+03
  4.80097E+03  3.00155E+03  1.18754E+03  4.58312E+03 -1.76890E+03  2.59671E+03 -2.94119E+03 -4.24986E+02
 -1.16988E+03 -3.27412E+03  2.23443E+03 -3.15537E+03  2.87808E+03 -1.86651E+03  2.98306E+03  4.37957E+02
  1.96459E+03  1.19691E+03  8.72765E+02  7.89695E+02 -5.02639E+02  1.11084E+03  1.61884E+03 -2.93734E+02
  4.07323E+02 -2.83134E+02  3.11061E+03  1.17781E+03  1.74018E+03  4.09912E+03 -8.69577E+02  5.25618E+03
 -3.51129E+03  3.04286E+03 -4.51548E+03  8.18916E+02 -4.46279E+03 -1.77280E+03 -1.31846E+03 -2.70692E+03
  3.48029E+02 -2.82066E+03  2.27728E+03 -1.34567E+03  1.11021E+03  1.86996E+03 -1.18611E+03  2.13288E+03
 -2.88665E+03  1.29706E+03 -3.17046E+03 -2.24273E+03 -1.68711E+03 -3.96483E+03  4.25123E+02 -3.61998E+03
  2.03897E+03 -1.93765E+03  2.72074E+03 -3.44170E+01  2.60077E+03  6.92148E+02  2.94403E+02  2.04126E+03
 -1.18910E+03  5.73322E+02 -1.87226E+03 -1.03611E+03  5.58657E+02 -2.62776E+03  3.61936E+03 -2.24020E+03
  3.89515E+03  2.09355E+02  5.03647E+03  2.49552E+03  1.78531E+03  4.24277E+03 -1.39016E+03  3.99660E+03
 -3.45116E+03  1.33097E+03 -3.33184E+03 -2.84474E+02 -1.87743E+03 -3.05803E+03  6.87625E+02 -2.29496E+03
  3.03733E+03 -1.58647E+03  2.13621E+03  1.32007E+03  6.32712E+02  2.41160E+03 -9.95931E+01  2.10195E+03
 -8.41300E+02  1.72639E+03 -1.19633E+03  5.08088E+02 -2.01276E+02  5.76444E+02 -9.25075E+02  9.68591E+02
 -1.54390E+03  1.95365E+03 -3.19390E+03  1.39934E+03 -4.04052E+03  1.12602E+02 -4.96420E+03 -2.58424E+03
 -2.43904E+03 -5.65287E+03  1.35459E+03 -6.31609E+03  3.77791E+03 -5.25781E+03  6.15275E+03 -2.41843E+03
  5.56856E+03  8.05761E+02  3.48033E+03  3.87020E+03  1.53142E+02  3.86332E+03 -1.73427E+03  3.22900E+03
 -2.08500E+03  1.16915E+03 -1.45270E+03 -3.56517E+02 -5.85089E+02  4.08876E+01 -5.48291E+02  5.98544E+01
 -1.44764E+03 -1.41373E+02 -1.34077E+03 -2.14028E+02  1.45636E+00 -1.38503E+03 -1.27481E+02 -1.67350E+03
  2.03996E+03 -1.52835E+03  2.02376E+03 -8.56523E+01  3.09082E+03  2.41808E+03  3.60081E+02  4.15783E+03
 -2.36157E+03  5.13393E+03 -4.43835E+03  3.19282E+03 -4.55967E+03 -4.25815E+02 -3.55344E+03 -2.83480E+03
 -1.54823E+03 -4.17437E+03  9.38208E+02 -3.75317E+03  2.09964E+03 -1.99470E+03  2.71424E+03  2.04751E+02
  1.19197E+03  1.42379E+03 -2.06010E+01  7.07600E+02 -1.05930E+03  1.36020E+02  2.58366E+02 -8.33072E+02
  1.21332E+03 -6.13101E+02  1.14527E+03  8.77156E+02  6.98638E+02  1.64013E+03  5.34472E+02  1.81958E+03
 -1.50766E+03  1.97170E+03 -2.30995E+03  4.70458E+02 -2.38089E+03 -1.66099E+03 -1.48899E+02 -3.20767E+03
  1.99151E+03 -2.59493E+03  2.09478E+03 -1.97223E+02  2.86086E+03  3.08032E+01  1.38516E+03  2.27649E+03
  6.69306E+02  2.19596E+03 -7.88571E+02  1.63875E+03 -1.47886E+03  1.32040E+03 -1.12359E+03  3.09385E+02
 -4.95472E+02  4.74593E+01 -1.12985E+03 -4.88337E+01 -1.27329E+03  1.96738E+02 -1.84461E+03 -3.56791E+02
 -1.89231E+03 -6.72718E+02 -7.94197E+02 -2.55701E+03  1.29487E+03 -2.94395E+03  2.37056E+03 -1.06230E+03
  2.51647E+03  2.51136E+02  7.15132E+02  1.24031E+03 -4.20391E+02  2.49031E+03 -1.67731E+03  1.69143E+03
