 $NMID ID='MM_0lb_SNR800_11hz_g60_53.RAW', FMTDAT='(8E13.5)'
 TRAMP=1., VOLUME=1. $END
  3.10091E+05  2.02393E+02  3.37959E+05  2.50854E+05  8.48893E+04  3.38365E+05 -1.32921E+05  2.52047E+05
 -1.90597E+05  8.40441E+04 -1.12828E+05 -3.22056E+04  6.03247E+02 -5.07287E+04  5.36211E+04 -4.13142E+02
  3.56979E+04  5.26732E+04 -1.65671E+04  7.58537E+04 -6.08259E+04  6.46996E+04 -8.50753E+04  3.26793E+04
 -8.24825E+04 -1.15069E+04 -5.76499E+04 -5.22910E+04 -1.49862E+04 -7.10209E+04  2.83960E+04 -4.67708E+04
  4.09380E+04  3.67363E+03  1.65304E+04  4.87523E+04 -3.47479E+04  4.79409E+04 -6.79459E+04 -1.61744E+02
 -5.47655E+04 -5.81532E+04 -7.16130E+03 -7.88861E+04  3.47824E+04 -5.65966E+04  4.97962E+04 -1.84679E+04
  4.51730E+04  1.15803E+04  3.29140E+04  2.63054E+04  1.59984E+04  3.02369E+04 -5.42029E+03  2.76403E+04
 -2.22446E+04  1.21175E+04 -1.83055E+04 -5.48784E+03  7.24157E+03 -7.52607E+03  2.37248E+04  1.35824E+04
  7.40376E+03  3.73345E+04 -3.35136E+04  3.69376E+04 -6.58056E+04  2.24233E+03 -5.84968E+04 -4.47089E+04
 -1.28167E+04 -6.57583E+04  4.14297E+04 -4.69805E+04  6.08601E+04 -2.37957E+03  3.65868E+04  3.40474E+04
 -5.98408E+03  3.89763E+04 -3.17493E+04  1.86631E+04 -3.33585E+04 -3.62783E+03 -1.86623E+04 -1.18077E+04
 -9.56402E+03 -1.49448E+04 -7.62532E+02 -1.97465E+04  7.81420E+03 -2.32915E+04  1.58526E+04 -1.25880E+04
  1.05494E+04  6.34743E+03 -1.00375E+04  1.22879E+04 -2.29463E+04 -6.53287E+03 -8.49745E+03 -3.67945E+04
  2.52839E+04 -4.61454E+04  5.18624E+04 -2.09526E+04  4.83058E+04  2.06493E+04  1.71715E+04  4.66815E+04
 -1.65679E+04  3.60012E+04 -2.74657E+04  2.77365E+03 -1.16815E+04 -2.95872E+04  2.12633E+04 -3.67570E+04
  4.38287E+04 -1.07180E+04  4.01208E+04  2.45683E+04  2.10254E+04  5.05122E+04 -8.36617E+03  5.54732E+04
 -3.48428E+04  3.76181E+04 -4.68795E+04  1.11217E+04 -4.67363E+04 -1.81756E+04 -2.59106E+04 -4.16187E+04
  7.92110E+03 -4.14635E+04  3.38962E+04 -1.68429E+04  3.19711E+04  1.12327E+04  5.08404E+03  2.07362E+04
 -1.36933E+04  9.41161E+03 -1.11457E+04 -7.70978E+03  5.75822E+03 -1.16361E+04  1.90503E+04  6.01401E+03
  1.46557E+04  2.29461E+04 -5.52299E+03  2.67991E+04 -2.32453E+04  1.42279E+04 -3.12794E+04 -3.10838E+03
 -2.44860E+04 -1.81566E+04 -1.12289E+04 -2.44245E+04  4.27462E+03 -2.50007E+04  1.92706E+04 -2.24231E+04
  3.12290E+04 -1.37487E+04  3.72073E+04  4.78527E+03  2.68008E+04  2.35885E+04  4.13904E+03  4.00797E+04
 -1.93516E+04  3.33215E+04 -2.99061E+04  1.14090E+04 -2.22901E+04 -1.00914E+04 -4.92991E+03 -1.29997E+04
  8.58738E+02 -1.25293E+03 -7.26002E+03  8.25629E+03 -1.97755E+04  4.96513E+03 -1.94977E+04 -8.96870E+03
 -1.18538E+04 -2.22691E+04  5.73851E+03 -2.70755E+04  1.80345E+04 -1.97240E+04  2.16284E+04 -1.93326E+03
  1.40815E+04  1.56272E+04 -1.21925E+03  2.26795E+04 -1.60920E+04  1.28467E+04 -2.31549E+04 -4.78008E+03
 -1.67539E+04 -2.02632E+04 -1.86063E+03 -2.73186E+04  1.22371E+04 -2.25761E+04  2.22720E+04 -1.17727E+04
  2.14241E+04 -4.60102E+02  1.53285E+04  5.02430E+03  8.48371E+03  1.21950E+03  1.15009E+04 -2.53090E+03
  2.12272E+04  3.05556E+03  2.39718E+04  1.79846E+04  1.64019E+04  3.62850E+04 -2.26257E+03  4.21303E+04
 -2.43270E+04  3.52820E+04 -4.02284E+04  1.82223E+04 -4.27874E+04 -3.34106E+03 -3.46443E+04 -2.51041E+04
 -1.39328E+04 -3.54693E+04  1.26554E+04 -3.09562E+04  2.67770E+04 -1.49813E+04  2.29894E+04  7.34844E+03
  8.00916E+03  1.79591E+04 -1.10441E+04  1.48973E+04 -1.95590E+04  2.10184E+03 -1.46377E+04 -1.23854E+04
 -4.01489E+02 -1.83900E+04  9.95038E+03 -1.38051E+04  1.26547E+04 -1.66747E+03  3.19775E+03  8.36240E+03
 -8.36379E+03  3.91244E+03 -8.56957E+03 -6.85075E+03 -1.65286E+03 -1.69233E+04  1.14597E+04 -1.88221E+04
  2.17641E+04 -1.04054E+04  2.45270E+04  3.48624E+03  2.13863E+04  1.71966E+04  9.62842E+03  2.71439E+04
 -4.90202E+03  2.95891E+04 -1.91841E+04  1.80143E+04 -2.08483E+04  3.61789E+03 -1.46506E+04 -5.29127E+03
 -6.22357E+03 -6.45974E+03 -6.00740E+02  2.45234E+02 -2.87933E+03  3.54140E+03 -6.95893E+03  5.09783E+03
 -1.34431E+04 -9.38617E+02 -1.38119E+04 -1.15643E+04 -5.59804E+03 -1.82767E+04  6.04699E+03 -1.49470E+04
  1.21175E+04 -6.19710E+03  8.28890E+03  4.06892E+03 -3.74289E+02  5.80515E+03 -7.32533E+03 -1.77584E+02
 -6.50052E+03 -9.14066E+03 -9.44414E+02 -1.43605E+04  8.50454E+03 -1.54993E+04  1.87618E+04 -8.46815E+03
  2.16224E+04  2.27570E+03  1.62436E+04  1.32521E+04  2.93722E+03  1.76037E+04 -9.33893E+03  1.44074E+04
 -1.17755E+04  4.29779E+03 -6.17493E+03 -2.92811E+03  2.24252E+03 -4.43788E+03  7.70706E+03 -9.93118E+02
  6.94458E+03  6.54504E+03  1.26075E+03  1.14463E+04 -8.35884E+03  1.13103E+04 -1.43033E+04  2.48294E+03
 -9.70171E+03 -7.61198E+03 -1.48364E+02 -1.21113E+04  7.86344E+03 -6.72109E+03  8.33906E+03  3.03825E+03
  1.74971E+03  9.06222E+03 -7.36323E+03  1.06515E+04 -1.26248E+04  4.60173E+03 -1.24369E+04 -4.20319E+03
 -7.05331E+03 -1.41193E+04  3.28063E+03 -1.63870E+04  1.39065E+04 -1.00239E+04  1.51909E+04  2.42901E+03
  8.89253E+03  1.22250E+04 -9.57614E+02  1.45626E+04 -1.07587E+04  8.19183E+03 -1.13867E+04 -1.23518E+03
 -1.01792E+04 -9.71639E+03 -1.71843E+03 -1.09603E+04  5.65739E+03 -8.69714E+03  6.92609E+03 -3.56512E+03
  4.65649E+03  2.04263E+03 -9.68378E+02  1.97373E+03 -3.47724E+02 -2.94690E+03  2.08185E+03 -6.78667E+03
  1.03892E+04 -4.37282E+03  1.45912E+04  1.81098E+03  1.42855E+04  9.69854E+03  9.21008E+03  1.82313E+04
 -4.20188E+03  2.11933E+04 -1.78226E+04  1.56614E+04 -2.29097E+04  2.70266E+03 -1.83698E+04 -8.10219E+03
 -9.50409E+03 -1.52867E+04 -6.62228E+02 -1.29241E+04  4.46330E+03 -6.97736E+03  4.57777E+03 -4.53553E+03
  3.31639E+03 -2.81435E+03  3.93204E+03 -3.73098E+03  5.18683E+03 -3.06106E+03  7.29462E+03 -1.38752E+03
  9.69561E+03  2.49785E+03  5.25748E+03  8.73112E+03 -2.26973E+03  9.88492E+03 -1.00455E+04  7.66854E+03
 -1.32450E+04 -8.31140E+02 -8.26659E+03 -9.02851E+03 -7.87216E+02 -1.37735E+04  7.46491E+03 -1.36298E+04
  1.42256E+04 -7.75272E+03  1.69681E+04  2.29720E+03  1.20631E+04  1.17436E+04  2.08965E+03  1.56149E+04
 -6.64137E+03  1.27829E+04 -8.86281E+03  4.82578E+03 -6.10838E+03 -1.57730E+03 -2.72876E+03 -2.05151E+03
 -1.07479E+03 -2.24598E+02 -2.06092E+03  2.79555E+03 -5.50457E+03  2.01683E+03 -8.92472E+03 -9.57952E+02
 -6.38544E+03 -8.87869E+03 -6.63401E+00 -1.26693E+04  8.08522E+03 -1.16063E+04  1.25774E+04 -3.82798E+03
  1.22885E+04  6.23225E+03  5.36180E+03  1.12854E+04 -2.44243E+03  1.25643E+04 -9.03381E+03  8.04404E+03
 -1.16056E+04  5.75668E+02 -9.49385E+03 -7.68924E+03 -7.96884E+02 -1.04994E+04  5.53229E+03 -7.74295E+03
  8.04736E+03 -2.55266E+03  5.45505E+03  2.39302E+03  1.70811E+03  3.56228E+03  1.26950E+03  1.58689E+03
  2.72835E+03  9.61517E+02  3.19432E+03  1.64791E+03  3.91815E+03  4.67293E+03  3.39594E+03  6.70514E+03
 -2.79668E+03  9.39346E+03 -9.13172E+03  1.05144E+04 -1.26092E+04  2.66726E+03 -1.28261E+04 -5.17565E+03
 -5.81261E+03 -1.21869E+04  1.87882E+03 -1.39927E+04  7.43185E+03 -8.99384E+03  1.01028E+04 -2.50409E+03
  8.29460E+03  4.29183E+03  1.55327E+03  7.26776E+03 -3.96193E+03  4.89944E+03 -5.45990E+03 -5.92863E+02
 -2.60307E+03 -5.13328E+03  2.78002E+03 -5.57215E+03  5.37216E+03 -2.55424E+03  4.88263E+03  1.34533E+03
  2.79814E+03  2.48831E+03  1.17126E+03  1.96244E+03 -4.51581E+02  1.50387E+03  1.74775E+03 -2.77773E+02
  1.96271E+03 -6.28936E+02  4.78177E+03  1.79600E+03  2.62444E+03  6.87514E+03 -8.63598E+02  8.66945E+03
 -5.72151E+03  5.70590E+03 -8.12125E+03  1.78691E+03 -7.14746E+03 -2.68337E+03 -2.65336E+03 -4.99978E+03
  6.75865E+02 -4.67599E+03  3.24587E+03 -2.21371E+03  2.69839E+03  2.66069E+03 -1.32954E+03  4.19019E+03
 -5.42790E+03  2.42890E+03 -5.72400E+03 -3.07539E+03 -3.27313E+03 -6.56588E+03  1.24151E+03 -6.86751E+03
  3.66510E+03 -4.02189E+03  5.06950E+03 -4.85537E+02  3.76160E+03  1.82811E+03  7.95914E+02  3.73064E+03
 -2.14338E+03  1.23059E+03 -3.01213E+03 -2.08238E+03  1.56528E+03 -5.14818E+03  6.10432E+03 -4.02632E+03
  7.67983E+03  1.05375E+03  7.71308E+03  4.88262E+03  2.56605E+03  8.28783E+03 -2.70219E+03  7.41153E+03
 -6.40727E+03  3.36101E+03 -6.43123E+03 -8.55958E+02 -3.78227E+03 -5.16357E+03  1.35740E+03 -4.53372E+03
  4.84290E+03 -2.28114E+03  4.03699E+03  2.26944E+03  1.04994E+03  4.16268E+03 -3.20179E+02  3.65885E+03
 -1.90327E+03  2.28800E+03 -1.80079E+03  5.61538E+02 -6.18055E+02  8.80575E+02 -1.29594E+03  1.00897E+03
 -1.92347E+03  3.15252E+03 -5.42570E+03  2.79988E+03 -7.76373E+03  1.80155E+02 -7.99684E+03 -5.28679E+03
 -4.33855E+03 -1.05322E+04  2.42639E+03 -1.19770E+04  7.21455E+03 -9.24989E+03  1.15774E+04 -3.44581E+03
  9.93495E+03  2.10571E+03  6.19134E+03  7.13749E+03  7.20179E+02  8.19248E+03 -2.91356E+03  5.89223E+03
 -4.68027E+03  1.94386E+03 -3.01943E+03 -1.15726E+03 -1.08985E+03 -4.76006E+02 -9.31994E+02 -1.65692E+02
 -1.70886E+03  2.35047E+02 -1.50985E+03 -1.16108E+02 -5.04329E+02 -1.94570E+03  2.80978E+02 -2.61138E+03
  3.62278E+03 -2.36737E+03  4.63481E+03  3.65910E+01  5.48577E+03  4.17235E+03  1.44830E+03  7.96339E+03
 -3.94285E+03  9.37397E+03 -8.21560E+03  5.54192E+03 -9.32352E+03 -8.62307E+02 -7.06313E+03 -5.55443E+03
 -3.24412E+03 -7.82712E+03  1.97376E+03 -7.17879E+03  4.76807E+03 -3.50410E+03  5.00722E+03  2.22383E+01
  3.17135E+03  2.65398E+03 -2.32965E+02  2.23832E+03 -1.56528E+03 -6.22658E+02  6.58215E+01 -1.75396E+03
  2.39543E+03 -1.09084E+03  2.82602E+03  1.29962E+03  1.88598E+03  3.08672E+03  2.42674E+02  3.95127E+03
 -3.31131E+03  3.53653E+03 -4.76904E+03  1.67128E+02 -4.74382E+03 -3.78744E+03 -6.03412E+02 -6.52151E+03
  3.66681E+03 -5.16557E+03  5.44375E+03 -1.34984E+03  5.89381E+03  1.12868E+03  3.25051E+03  4.68997E+03
  6.90950E+02  4.73196E+03 -2.22773E+03  3.75858E+03 -2.99220E+03  1.98056E+03 -2.56073E+03  2.67720E+02
 -1.26010E+03 -5.75474E+02 -1.49930E+03  8.04387E+02 -2.65469E+03  1.11027E+03 -3.63818E+03 -6.69272E+02
 -3.62187E+03 -1.90048E+03 -8.73951E+02 -5.14299E+03  2.31747E+03 -5.46860E+03  4.38957E+03 -2.43429E+03
  4.76638E+03  5.95980E+02  2.45693E+03  3.63686E+03 -6.42320E+02  4.93186E+03 -3.39248E+03  3.28506E+03
