 $NMID ID='MM_0lb_SNR800_16hz_g60_74.RAW', FMTDAT='(8E13.5)'
 TRAMP=1., VOLUME=1. $END
  3.09709E+05  4.53784E+02  3.37932E+05  2.50597E+05  8.46040E+04  3.37935E+05 -1.32480E+05  2.50897E+05
 -1.90285E+05  8.33358E+04 -1.11703E+05 -3.24513E+04  6.23356E+02 -5.07121E+04  5.39227E+04 -2.01267E+02
  3.54646E+04  5.30276E+04 -1.66267E+04  7.57643E+04 -6.11303E+04  6.34796E+04 -8.41236E+04  3.20850E+04
 -8.10135E+04 -1.12388E+04 -5.73894E+04 -5.16063E+04 -1.47237E+04 -6.97079E+04  2.74663E+04 -4.56552E+04
  3.98995E+04  3.81863E+03  1.63586E+04  4.79824E+04 -3.43814E+04  4.73955E+04 -6.67045E+04 -2.75374E+02
 -5.34538E+04 -5.68466E+04 -6.76159E+03 -7.68128E+04  3.34142E+04 -5.48588E+04  4.77781E+04 -1.73861E+04
  4.34940E+04  1.10465E+04  3.19941E+04  2.54821E+04  1.59152E+04  2.95906E+04 -5.79392E+03  2.73047E+04
 -2.20138E+04  1.22457E+04 -1.84775E+04 -5.14873E+03  5.65609E+03 -7.35392E+03  2.24299E+04  1.23377E+04
  7.70963E+03  3.52850E+04 -3.18754E+04  3.53324E+04 -6.35447E+04  2.26012E+03 -5.69572E+04 -4.28311E+04
 -1.26213E+04 -6.32399E+04  4.00298E+04 -4.55667E+04  5.85245E+04 -2.25703E+03  3.40017E+04  3.26391E+04
 -5.84077E+03  3.62767E+04 -3.03607E+04  1.60137E+04 -3.05187E+04 -4.30572E+03 -1.70013E+04 -1.11545E+04
 -8.20137E+03 -1.32356E+04 -5.95591E+02 -1.81601E+04  7.37554E+03 -2.33087E+04  1.56488E+04 -1.32505E+04
  1.16145E+04  5.17143E+03 -8.17163E+03  1.29914E+04 -2.12090E+04 -4.31038E+03 -8.55488E+03 -3.37332E+04
  2.27734E+04 -4.34284E+04  4.81482E+04 -1.97913E+04  4.51240E+04  1.94511E+04  1.57925E+04  4.41891E+04
 -1.57202E+04  3.33900E+04 -2.53188E+04  1.84908E+03 -9.72029E+03 -2.78860E+04  2.09924E+04 -3.39343E+04
  4.12009E+04 -9.23602E+03  3.55413E+04  2.35904E+04  1.81158E+04  4.65692E+04 -7.97817E+03  5.04563E+04
 -3.15410E+04  3.36889E+04 -4.20756E+04  9.21590E+03 -4.26460E+04 -1.64650E+04 -2.34426E+04 -3.77855E+04
  7.25731E+03 -3.76960E+04  3.17152E+04 -1.50090E+04  2.90527E+04  1.11028E+04  3.89733E+03  1.92153E+04
 -1.35949E+04  8.03678E+03 -1.05631E+04 -7.46184E+03  6.13580E+03 -1.05020E+04  1.79340E+04  6.09248E+03
  1.34713E+04  2.22179E+04 -5.92696E+03  2.50318E+04 -2.26481E+04  1.15195E+04 -2.76081E+04 -4.88396E+03
 -2.05050E+04 -1.73047E+04 -8.14883E+03 -2.00432E+04  3.90764E+03 -1.90020E+04  1.57319E+04 -1.81607E+04
  2.58014E+04 -1.27044E+04  3.23989E+04  2.97973E+03  2.36258E+04  1.98305E+04  4.28760E+03  3.60796E+04
 -1.74371E+04  3.01226E+04 -2.76363E+04  1.05054E+04 -2.08082E+04 -1.03171E+04 -4.39721E+03 -1.33961E+04
  1.71618E+03 -2.81381E+03 -4.87933E+03  6.44811E+03 -1.59761E+04  4.93249E+03 -1.61088E+04 -6.73488E+03
 -9.93039E+03 -1.87384E+04  4.97057E+03 -2.28459E+04  1.47891E+04 -1.63239E+04  1.79018E+04 -1.17864E+03
  1.10034E+04  1.28645E+04 -9.93485E+02  1.84697E+04 -1.27521E+04  1.08904E+04 -1.88854E+04 -3.99061E+03
 -1.38549E+04 -1.67375E+04 -1.38878E+03 -2.25783E+04  1.00157E+04 -1.86177E+04  1.88407E+04 -9.45977E+03
  1.75202E+04  3.93201E+02  1.24831E+04  4.31716E+03  6.73665E+03  6.63218E+02  9.04218E+03 -1.57899E+03
  1.72554E+04  2.80686E+03  1.88532E+04  1.47266E+04  1.23344E+04  2.97148E+04 -2.74137E+03  3.29194E+04
 -1.93935E+04  2.60915E+04 -3.10081E+04  1.33412E+04 -3.22707E+04 -2.19840E+03 -2.68459E+04 -1.86680E+04
 -1.15188E+04 -2.66256E+04  8.79830E+03 -2.38491E+04  2.06821E+04 -1.24988E+04  1.84614E+04  5.23296E+03
  7.01741E+03  1.38477E+04 -8.72085E+03  1.21118E+04 -1.56333E+04  2.72484E+03 -1.23805E+04 -9.52891E+03
 -2.24011E+02 -1.51579E+04  7.48474E+03 -1.10422E+04  9.88890E+03 -1.33777E+03  1.94903E+03  6.14035E+03
 -6.78429E+03  2.10707E+03 -5.75974E+03 -5.20074E+03 -2.41933E+02 -1.29677E+04  9.19707E+03 -1.38736E+04
  1.56597E+04 -7.21672E+03  1.71082E+04  2.97338E+03  1.48612E+04  1.29128E+04  7.13150E+03  1.91291E+04
 -3.10508E+03  2.10798E+04 -1.32148E+04  1.32826E+04 -1.50809E+04  3.29298E+03 -1.07430E+04 -3.36935E+03
 -5.01649E+03 -4.63755E+03 -6.36381E+02  8.72342E+02 -2.19719E+03  2.44500E+03 -4.95217E+03  4.12168E+03
 -9.95887E+03 -7.22824E+02 -1.08034E+04 -8.59270E+03 -4.26306E+03 -1.39264E+04  4.62381E+03 -1.04851E+04
  9.11752E+03 -4.91622E+03  6.44678E+03  2.82274E+03  1.79496E+02  3.92642E+03 -4.81611E+03 -3.36934E+02
 -4.61472E+03 -6.84010E+03 -7.18833E+02 -9.70992E+03  5.51704E+03 -1.05313E+04  1.33267E+04 -5.72556E+03
  1.53333E+04  1.40306E+03  1.09924E+04  8.58927E+03  2.27810E+03  1.21145E+04 -6.36348E+03  1.03923E+04
 -8.83128E+03  3.25081E+03 -4.53682E+03 -1.71686E+03  1.63377E+03 -2.46178E+03  5.88377E+03 -8.28951E+02
  4.95554E+03  4.27268E+03  1.20755E+03  8.30476E+03 -5.42273E+03  8.28899E+03 -1.00632E+04  2.20775E+03
 -6.42083E+03 -5.09976E+03  5.57216E+02 -8.64946E+03  5.26311E+03 -4.19839E+03  5.23590E+03  1.69952E+03
  1.07398E+03  5.16953E+03 -5.53624E+03  6.91347E+03 -7.54836E+03  3.09967E+03 -6.98159E+03 -2.40186E+03
 -4.41087E+03 -8.80374E+03  2.23076E+03 -1.00763E+04  8.72381E+03 -6.56773E+03  9.47041E+03  1.55776E+03
  6.40875E+03  7.80693E+03 -2.30746E+02  9.59510E+03 -6.97177E+03  5.76403E+03 -7.14729E+03 -5.15435E+02
 -7.34012E+03 -6.46336E+03 -1.53948E+03 -6.73787E+03  3.87877E+03 -5.98577E+03  4.22955E+03 -3.00080E+03
  3.46968E+03  7.60593E+02 -2.32377E+02  1.77719E+03  1.07574E+02 -1.10276E+03  7.62693E+02 -3.47706E+03
  6.06386E+03 -1.57089E+03  7.88291E+03  9.42962E+02  8.45490E+03  5.03800E+03  6.47199E+03  1.05724E+04
 -2.40366E+03  1.26964E+04 -1.08336E+04  9.13922E+03 -1.38621E+04  1.62536E+03 -1.12033E+04 -4.24404E+03
 -5.49937E+03 -9.09259E+03 -3.48170E+02 -7.34669E+03  3.07575E+03 -3.69681E+03  2.79806E+03 -3.11252E+03
  1.98589E+03 -2.21883E+03  2.43272E+03 -2.89777E+03  3.94085E+03 -1.83376E+03  4.96447E+03  2.21548E+02
  6.18332E+03  1.12200E+03  2.49992E+03  4.82269E+03 -1.68754E+03  4.72384E+03 -6.14802E+03  3.95249E+03
 -7.15538E+03 -1.01308E+03 -3.49957E+03 -5.06160E+03  1.53093E+02 -7.41540E+03  4.52897E+03 -7.80570E+03
  7.85863E+03 -4.30519E+03  9.29252E+03  9.40412E+02  6.91620E+03  6.13997E+03  1.22623E+03  8.30726E+03
 -3.32417E+03  7.76200E+03 -4.69240E+03  2.72282E+03 -3.15338E+03 -1.12814E+03 -1.20906E+03 -9.02421E+02
 -5.78262E+02  4.97508E+01 -1.31729E+03  2.04194E+03 -3.34662E+03  1.24625E+03 -5.48301E+03 -5.49190E+02
 -2.88818E+03 -5.26037E+03  3.61689E+02 -7.08199E+03  4.40630E+03 -6.37288E+03  5.92626E+03 -1.85154E+03
  6.42930E+03  3.67385E+03  2.82877E+03  5.24066E+03 -1.04172E+03  6.60444E+03 -4.11658E+03  4.29310E+03
 -6.30441E+03  4.79829E+02 -4.88596E+03 -3.89385E+03 -3.75772E+02 -5.05176E+03  2.65870E+03 -3.71173E+03
  3.88345E+03 -1.59948E+03  2.58867E+03  9.71004E+02  6.70725E+02  2.47557E+03  1.23427E+03  7.81210E+02
  2.04668E+03  7.29243E+02  1.92544E+03  1.34424E+03  1.90116E+03  3.00753E+03  1.98545E+03  2.74292E+03
 -1.35347E+03  4.94563E+03 -3.93187E+03  5.47294E+03 -5.74225E+03  1.77703E+03 -6.37765E+03 -1.55981E+03
 -2.84603E+03 -6.17103E+03  9.38764E+02 -6.79153E+03  3.30887E+03 -3.97519E+03  4.89024E+03 -1.26770E+03
  3.74223E+03  2.33651E+03  8.60364E+02  3.33225E+03 -1.40835E+03  2.26627E+03 -2.01056E+03 -3.41457E+02
 -1.32724E+03 -2.56310E+03  1.71923E+03 -2.44101E+03  2.31652E+03 -1.52779E+03  2.24487E+03  7.03396E+02
  1.52358E+03  9.73597E+02  1.03272E+03  1.94702E+02 -2.61672E+02  1.09090E+03  1.48662E+03 -2.42327E+02
  3.50406E+02 -5.11295E+02  2.57488E+03  1.04474E+03  9.15129E+02  3.47334E+03 -5.17778E+02  4.31555E+03
 -2.85995E+03  2.17535E+03 -3.40657E+03  5.98579E+02 -3.25941E+03 -1.16749E+03 -7.92277E+02 -1.62839E+03
  4.79125E+02 -1.89231E+03  1.60689E+03 -1.18028E+03  8.92736E+02  1.62615E+03 -8.58710E+02  1.90644E+03
 -2.32078E+03  8.34501E+02 -2.27644E+03 -1.42745E+03 -1.36009E+03 -3.10864E+03  4.05677E+02 -2.31197E+03
  1.38044E+03 -1.33317E+03  1.80568E+03 -1.20550E+02  1.70072E+03  3.43800E+02  4.74778E+02  1.68821E+03
 -6.81814E+02  1.14542E+02 -1.24579E+03 -8.16813E+02  8.94147E+02 -1.41867E+03  2.55319E+03 -1.41592E+03
  2.43713E+03  4.77076E+02  3.88045E+03  1.53522E+03  1.51613E+03  2.99082E+03 -7.90137E+02  2.83488E+03
 -2.40801E+03  5.54918E+02 -2.67391E+03 -2.10119E+02 -1.30203E+03 -2.21861E+03  3.63650E+02 -1.60153E+03
  2.21148E+03 -9.53729E+02  1.57178E+03  7.77445E+02  6.57579E+02  1.85593E+03 -9.28641E+01  1.75206E+03
 -6.05915E+02  1.15370E+03 -5.95888E+02  4.61584E+02  3.81940E+01  4.36836E+02 -8.29963E+02  6.17721E+02
 -9.00057E+02  1.37160E+03 -2.84420E+03  7.35060E+02 -3.04330E+03  2.87584E+02 -3.67069E+03 -1.74784E+03
 -1.74285E+03 -3.70950E+03  7.69847E+02 -4.49962E+03  2.21734E+03 -3.73283E+03  4.40522E+03 -1.42516E+03
  3.92081E+03  2.68670E+02  2.32551E+03  2.71979E+03 -5.92062E+02  2.59019E+03 -1.17296E+03  2.06878E+03
 -1.13796E+03  6.96659E+02 -1.01510E+03 -5.40202E+02 -8.35731E+02  1.81752E+01 -7.07846E+02  4.17069E+01
 -1.13701E+03 -6.77263E+01 -9.78723E+02  1.60826E+01  1.05620E+02 -6.97276E+02 -1.68653E+02 -1.30384E+03
  1.29467E+03 -8.94901E+02  1.18922E+03  3.52562E+01  1.80583E+03  1.40114E+03 -2.92852E+02  2.34806E+03
 -1.56296E+03  3.63547E+03 -2.84961E+03  2.01465E+03 -3.07223E+03 -8.51471E+01 -2.30848E+03 -2.33076E+03
 -1.13116E+03 -2.24017E+03  6.60666E+02 -2.17028E+03  1.25677E+03 -1.00805E+03  1.40551E+03 -1.51035E+02
  9.90638E+02  6.79087E+02 -5.88390E+01  4.25004E+02 -6.66497E+02 -4.19790E+01  2.19495E+02 -7.15169E+02
  6.86388E+02  2.65085E+01  8.62131E+02  7.61640E+02  6.37571E+02  1.13400E+03  4.83862E+02  6.81476E+02
 -1.14612E+03  1.03771E+03 -1.07095E+03  1.84889E+02 -1.41288E+03 -1.37157E+03  8.13127E+00 -1.90882E+03
  9.61729E+02 -1.27860E+03  1.35049E+03 -7.21440E+01  1.67911E+03 -1.43082E+02  1.34850E+03  1.23782E+03
  5.97981E+02  1.21099E+03 -6.25095E+02  1.07099E+03 -1.24616E+03  6.31475E+02 -5.73332E+02  5.91758E+01
  1.95318E+01 -3.47797E+02 -4.85934E+02  2.22190E+02 -9.96221E+02  3.56906E+02 -9.99995E+02 -3.97741E+02
 -1.28275E+03 -1.12982E+02 -7.30953E+02 -1.74036E+03  1.03450E+03 -2.19030E+03  9.84359E+02 -4.32386E+02
  1.13408E+03  1.92259E+02  7.28492E+01  6.99125E+02 -8.06602E+01  1.63428E+03 -1.03726E+03  9.81187E+02
