 $NMID ID='MM_0lb_SNR800_16hz_g50_58.RAW', FMTDAT='(8E13.5)'
 TRAMP=1., VOLUME=1. $END
  3.09772E+05  3.77423E+02  3.37474E+05  2.50569E+05  8.47795E+04  3.37738E+05 -1.32796E+05  2.50797E+05
 -1.90180E+05  8.28250E+04 -1.11128E+05 -3.25883E+04  1.12314E+03 -5.05088E+04  5.43445E+04  1.22774E+02
  3.53578E+04  5.28792E+04 -1.68388E+04  7.52003E+04 -6.05376E+04  6.34290E+04 -8.35639E+04  3.14348E+04
 -8.07379E+04 -1.13831E+04 -5.67315E+04 -5.07494E+04 -1.51673E+04 -6.92713E+04  2.74103E+04 -4.53803E+04
  3.96557E+04  3.94598E+03  1.60585E+04  4.76895E+04 -3.40343E+04  4.68671E+04 -6.61377E+04 -2.41286E+02
 -5.31225E+04 -5.64196E+04 -6.87233E+03 -7.63842E+04  3.36235E+04 -5.43917E+04  4.74368E+04 -1.70214E+04
  4.27590E+04  1.12172E+04  3.13942E+04  2.52420E+04  1.57522E+04  2.90165E+04 -5.19861E+03  2.71855E+04
 -2.22342E+04  1.28461E+04 -1.86215E+04 -4.73291E+03  5.27971E+03 -7.41566E+03  2.20500E+04  1.17051E+04
  7.49902E+03  3.43891E+04 -3.14430E+04  3.49701E+04 -6.25356E+04  2.24098E+03 -5.66095E+04 -4.22585E+04
 -1.26444E+04 -6.24429E+04  3.93282E+04 -4.46494E+04  5.72863E+04 -2.20233E+03  3.33825E+04  3.16652E+04
 -6.29650E+03  3.50597E+04 -2.93357E+04  1.47331E+04 -2.90509E+04 -4.77909E+03 -1.60804E+04 -1.07351E+04
 -7.91133E+03 -1.24866E+04 -1.12041E+03 -1.73964E+04  7.33594E+03 -2.31059E+04  1.51693E+04 -1.36103E+04
  1.17671E+04  5.01566E+03 -7.56305E+03  1.27260E+04 -2.06910E+04 -3.52721E+03 -8.55564E+03 -3.24442E+04
  2.21332E+04 -4.24066E+04  4.68531E+04 -1.89597E+04  4.39012E+04  1.92236E+04  1.52461E+04  4.31925E+04
 -1.55748E+04  3.23380E+04 -2.44559E+04  1.56511E+03 -9.35014E+03 -2.71438E+04  2.06959E+04 -3.26298E+04
  3.98290E+04 -8.17057E+03  3.38275E+04  2.33972E+04  1.71497E+04  4.48127E+04 -7.95150E+03  4.82226E+04
 -3.07281E+04  3.22233E+04 -4.02976E+04  9.08189E+03 -4.09987E+04 -1.61632E+04 -2.26356E+04 -3.63480E+04
  7.10699E+03 -3.62468E+04  3.04477E+04 -1.38660E+04  2.82691E+04  1.11683E+04  3.58714E+03  1.84179E+04
 -1.33930E+04  8.01414E+03 -1.00057E+04 -7.54347E+03  5.99191E+03 -1.04227E+04  1.70589E+04  5.90478E+03
  1.30105E+04  2.20257E+04 -6.17031E+03  2.40891E+04 -2.21181E+04  1.08039E+04 -2.69926E+04 -5.41772E+03
 -1.90289E+04 -1.71286E+04 -7.21685E+03 -1.88715E+04  3.84856E+03 -1.74663E+04  1.44318E+04 -1.67645E+04
  2.42428E+04 -1.26123E+04  3.04742E+04  2.19916E+03  2.27459E+04  1.87157E+04  4.14602E+03  3.48875E+04
 -1.66762E+04  2.92985E+04 -2.68389E+04  1.03377E+04 -2.04838E+04 -1.03751E+04 -4.08098E+03 -1.34657E+04
  2.10877E+03 -3.59543E+03 -4.22379E+03  6.15935E+03 -1.48730E+04  5.36445E+03 -1.54235E+04 -6.16885E+03
 -9.44543E+03 -1.74966E+04  5.18037E+03 -2.14128E+04  1.40875E+04 -1.55145E+04  1.67141E+04 -1.28758E+03
  1.03172E+04  1.17808E+04 -8.45738E+02  1.74518E+04 -1.18696E+04  1.01509E+04 -1.73243E+04 -3.98267E+03
 -1.27615E+04 -1.58932E+04 -1.63100E+03 -2.15871E+04  9.31102E+03 -1.71505E+04  1.78304E+04 -8.24260E+03
  1.63241E+04  3.39167E+02  1.18964E+04  4.30475E+03  5.93758E+03  8.14269E+02  9.14330E+03 -1.46935E+03
  1.56183E+04  2.87305E+03  1.74911E+04  1.40425E+04  1.11681E+04  2.78494E+04 -2.93621E+03  3.09365E+04
 -1.79541E+04  2.42907E+04 -2.84833E+04  1.21746E+04 -2.99913E+04 -2.21655E+03 -2.50824E+04 -1.73037E+04
 -1.09985E+04 -2.47801E+04  8.14374E+03 -2.23011E+04  1.91487E+04 -1.22865E+04  1.74084E+04  4.61643E+03
  6.90077E+03  1.28461E+04 -8.34629E+03  1.16816E+04 -1.48997E+04  2.50690E+03 -1.15352E+04 -9.19835E+03
 -2.98240E+02 -1.44566E+04  7.15732E+03 -1.04557E+04  9.04817E+03 -1.37331E+03  1.88752E+03  5.79841E+03
 -6.38553E+03  1.98892E+03 -4.77911E+03 -5.12316E+03 -1.30435E+02 -1.20809E+04  8.79860E+03 -1.22783E+04
  1.47758E+04 -6.18441E+03  1.54324E+04  2.77336E+03  1.34061E+04  1.15695E+04  6.18251E+03  1.76766E+04
 -2.50670E+03  1.92961E+04 -1.18738E+04  1.22402E+04 -1.40814E+04  3.37504E+03 -1.00034E+04 -2.54473E+03
 -4.83974E+03 -4.18933E+03 -7.36408E+02  1.37144E+03 -2.22989E+03  2.45332E+03 -4.55522E+03  3.82335E+03
 -9.50520E+03 -7.19428E+02 -1.02015E+04 -8.21997E+03 -4.32041E+03 -1.32042E+04  4.07137E+03 -9.83836E+03
  8.51809E+03 -4.59790E+03  6.15330E+03  2.56592E+03  3.14414E+02  3.79057E+03 -4.49484E+03  8.75929E+01
 -4.07661E+03 -6.15359E+03 -6.96894E+02 -9.09025E+03  5.15749E+03 -9.86082E+03  1.23232E+04 -4.98256E+03
  1.42222E+04  1.05007E+03  1.03457E+04  7.98483E+03  2.22878E+03  1.10323E+04 -5.97122E+03  9.87634E+03
 -7.83183E+03  2.92459E+03 -4.08929E+03 -1.49960E+03  1.57531E+03 -2.48541E+03  5.49530E+03 -9.35533E+02
  5.21882E+03  4.21697E+03  1.20885E+03  8.01395E+03 -5.48893E+03  7.44946E+03 -9.48679E+03  2.05008E+03
 -6.27276E+03 -4.62319E+03  9.36847E+01 -8.24013E+03  4.65734E+03 -4.05417E+03  4.64512E+03  1.39125E+03
  7.63863E+02  4.54336E+03 -4.96702E+03  6.13302E+03 -6.56221E+03  3.16962E+03 -6.29836E+03 -2.05509E+03
 -3.76411E+03 -8.09648E+03  1.54815E+03 -9.20184E+03  8.01714E+03 -5.94878E+03  8.43437E+03  1.49427E+03
  5.44283E+03  7.24619E+03 -3.04339E+02  9.15318E+03 -6.64777E+03  5.10700E+03 -6.64177E+03 -6.02671E+02
 -6.90518E+03 -6.51460E+03 -1.40057E+03 -6.39781E+03  3.55875E+03 -5.78860E+03  3.77581E+03 -3.10601E+03
  3.31465E+03  2.36806E+02 -1.71638E+02  1.54205E+03  1.45020E+02 -9.64301E+02  7.46562E+02 -3.07076E+03
  5.44679E+03 -1.66015E+03  7.71458E+03  1.17237E+03  7.52801E+03  4.67570E+03  6.34544E+03  9.90505E+03
 -2.04473E+03  1.14817E+04 -1.02003E+04  8.49702E+03 -1.29233E+04  1.28537E+03 -1.03133E+04 -3.98061E+03
 -5.24385E+03 -8.66267E+03 -4.55633E+02 -6.85149E+03  2.75376E+03 -3.46115E+03  2.43506E+03 -2.48169E+03
  1.83437E+03 -1.61490E+03  2.61015E+03 -2.82003E+03  3.73170E+03 -1.92137E+03  4.74845E+03 -3.86640E+01
  5.58126E+03  1.38547E+03  2.13788E+03  4.36313E+03 -1.55010E+03  4.64397E+03 -6.06946E+03  3.77518E+03
 -6.82074E+03 -9.06919E+02 -3.03698E+03 -4.39387E+03 -9.29309E+01 -6.58403E+03  4.05919E+03 -7.20909E+03
  7.08582E+03 -4.12402E+03  9.06213E+03  6.32192E+02  6.64082E+03  6.02680E+03  1.29942E+03  8.25237E+03
 -3.01947E+03  7.04110E+03 -4.43238E+03  2.41408E+03 -2.65357E+03 -1.11458E+03 -9.74244E+02 -9.74851E+02
 -8.17788E+02  2.27363E+02 -9.52006E+02  2.05931E+03 -3.11914E+03  1.39032E+03 -5.14662E+03 -7.85327E+02
 -2.46655E+03 -5.07262E+03  8.12047E+02 -6.43527E+03  3.67293E+03 -6.34036E+03  5.58290E+03 -1.82406E+03
  5.89948E+03  3.03738E+03  2.53678E+03  5.20937E+03 -1.18631E+03  6.35463E+03 -4.27101E+03  3.69345E+03
 -5.35341E+03  4.37538E+02 -4.66603E+03 -3.64810E+03 -5.79148E+02 -4.85824E+03  2.52484E+03 -3.75151E+03
  3.82542E+03 -1.62819E+03  2.51811E+03  7.99399E+02  7.38322E+02  2.28124E+03  8.69996E+02  5.39360E+02
  1.79294E+03  5.62497E+02  1.60818E+03  1.10934E+03  1.95352E+03  2.68002E+03  1.88883E+03  2.77608E+03
 -1.46603E+03  4.66211E+03 -3.77581E+03  5.48988E+03 -4.90201E+03  1.59558E+03 -6.02378E+03 -1.22990E+03
 -2.19837E+03 -5.63159E+03  5.91885E+02 -6.58999E+03  3.02162E+03 -3.97598E+03  4.77478E+03 -9.30285E+02
  3.41607E+03  2.30663E+03  5.35867E+02  3.15472E+03 -1.39477E+03  1.83847E+03 -2.11083E+03 -3.24233E+02
 -8.00668E+02 -2.21636E+03  1.76472E+03 -2.48130E+03  2.04356E+03 -9.84284E+02  2.18880E+03  5.63395E+02
  1.16880E+03  5.44744E+02  7.26673E+02  6.59960E+01 -4.29103E+02  9.74585E+02  1.59729E+03 -8.81979E+00
  4.51952E+02 -4.22131E+02  2.75134E+03  6.99564E+02  9.58030E+02  3.14061E+03 -6.08741E+02  3.97597E+03
 -2.70959E+03  1.98012E+03 -2.98801E+03  3.92031E+02 -3.09049E+03 -1.07921E+03 -7.69010E+02 -1.80439E+03
  6.52715E+02 -1.83765E+03  1.42321E+03 -9.78582E+02  1.10951E+03  1.48068E+03 -6.90434E+02  1.95951E+03
 -2.24271E+03  1.01158E+03 -1.88029E+03 -1.71274E+03 -1.23938E+03 -3.19197E+03  2.71894E+02 -2.74139E+03
  1.60293E+03 -8.29119E+02  1.47613E+03 -1.45890E+02  2.10043E+03  2.21259E+02  3.17682E+02  1.63684E+03
 -7.41561E+02  2.32322E+02 -1.61112E+03 -2.60376E+02  7.07069E+02 -1.66420E+03  2.57057E+03 -1.67778E+03
  2.47254E+03  3.11709E+02  3.66975E+03  1.55985E+03  1.48258E+03  2.64980E+03 -6.11283E+02  3.03901E+03
 -2.34720E+03  4.14546E+02 -2.68408E+03 -3.38585E+02 -1.31859E+03 -1.91656E+03  5.51506E+02 -1.42146E+03
  2.05258E+03 -8.65140E+02  1.64446E+03  7.74693E+02  6.70744E+02  2.08399E+03  4.05817E+02  1.61896E+03
 -5.99466E+02  1.25940E+03 -7.75798E+02  4.70305E+02 -1.64873E+02  5.30961E+02 -7.42809E+02  1.03564E+03
 -1.11127E+03  1.43562E+03 -2.58420E+03  8.75207E+02 -2.58187E+03  3.38640E+02 -3.79481E+03 -1.73091E+03
 -1.61518E+03 -3.55262E+03  5.61460E+02 -4.67885E+03  2.21816E+03 -3.62258E+03  4.28528E+03 -1.18651E+03
  3.90199E+03  2.45955E+02  1.84915E+03  2.61010E+03 -6.05034E+02  2.89466E+03 -9.82727E+02  1.88867E+03
 -1.46081E+03  9.65360E+02 -6.08373E+02 -6.98688E+01 -6.57119E+02  1.10742E+02 -7.04597E+02  2.56035E+01
 -1.11886E+03  1.17188E+02 -1.10560E+03 -1.06490E+02  3.84123E+02 -7.28458E+02  5.67655E+01 -1.17765E+03
  1.70996E+03 -9.59776E+02  1.07468E+03  1.94608E+02  1.87073E+03  1.67228E+03 -1.28797E+02  2.47379E+03
 -1.38593E+03  3.48366E+03 -2.77337E+03  2.24329E+03 -2.80806E+03 -3.35420E+02 -2.24555E+03 -2.00213E+03
 -1.05643E+03 -2.93794E+03  5.61659E+02 -2.31971E+03  1.16185E+03 -1.13033E+03  1.28856E+03  3.13996E+01
  1.07819E+03  5.29026E+02 -1.76784E+02  7.76253E+02 -5.66522E+02  6.08643E+01  1.49181E+02 -2.63404E+02
  7.54548E+02  1.55707E+02  6.28806E+02  9.25590E+02  2.61552E+02  1.02426E+03  4.99243E+02  1.07734E+03
 -1.12357E+03  1.06126E+03 -1.15955E+03  3.64292E+02 -1.36212E+03 -9.40716E+02 -2.12192E+02 -2.15237E+03
  8.36062E+02 -1.53386E+03  1.24466E+03 -1.76123E+02  1.93130E+03 -6.19501E+02  1.00489E+03  1.54367E+03
  6.78795E+02  1.35730E+03 -2.57167E+02  1.07632E+03 -1.12091E+03  9.60002E+02 -7.73026E+02  2.22560E+02
 -3.47463E+02 -8.96013E+01 -5.99541E+02  5.32591E+02 -8.81843E+02  2.65287E+02 -1.45625E+03 -2.37180E+02
 -1.43312E+03 -4.36045E+02 -2.09192E+02 -1.57302E+03  1.07827E+03 -2.08894E+03  1.24659E+03 -7.24851E+02
  1.60392E+03  2.70435E+01  3.40640E+02  7.52987E+02 -3.20276E+02  1.35028E+03 -8.65112E+02  1.39370E+03
