 $NMID ID='MM_0lb_SNR800_12hz_g50_69.RAW', FMTDAT='(8E13.5)'
 TRAMP=1., VOLUME=1. $END
  3.09446E+05  2.51656E+02  3.37638E+05  2.50446E+05  8.47714E+04  3.38095E+05 -1.32617E+05  2.51307E+05
 -1.90358E+05  8.31667E+04 -1.11994E+05 -3.24419E+04  6.33685E+02 -5.07779E+04  5.40192E+04 -3.66765E+02
  3.54058E+04  5.29867E+04 -1.65105E+04  7.56269E+04 -6.06442E+04  6.37678E+04 -8.44802E+04  3.23333E+04
 -8.16963E+04 -1.15787E+04 -5.76568E+04 -5.19951E+04 -1.46887E+04 -7.01491E+04  2.76287E+04 -4.58239E+04
  4.05466E+04  3.85070E+03  1.59317E+04  4.84726E+04 -3.49037E+04  4.74446E+04 -6.71373E+04 -1.60375E+02
 -5.41026E+04 -5.72166E+04 -6.59521E+03 -7.79263E+04  3.41197E+04 -5.62569E+04  4.85248E+04 -1.74424E+04
  4.40233E+04  1.14415E+04  3.24092E+04  2.58468E+04  1.59366E+04  2.96830E+04 -5.15092E+03  2.76177E+04
 -2.22002E+04  1.22432E+04 -1.84186E+04 -5.38807E+03  6.09315E+03 -7.30755E+03  2.30915E+04  1.30359E+04
  7.32488E+03  3.63821E+04 -3.29906E+04  3.64204E+04 -6.42434E+04  2.28089E+03 -5.75783E+04 -4.36472E+04
 -1.29166E+04 -6.44203E+04  4.07433E+04 -4.60349E+04  5.94478E+04 -2.25967E+03  3.51523E+04  3.29944E+04
 -5.89531E+03  3.75329E+04 -3.08952E+04  1.70224E+04 -3.16597E+04 -4.04256E+03 -1.77769E+04 -1.11840E+04
 -8.86448E+03 -1.41001E+04 -7.33038E+02 -1.83703E+04  7.81937E+03 -2.31628E+04  1.54858E+04 -1.30227E+04
  1.09375E+04  5.27837E+03 -9.25565E+03  1.28681E+04 -2.22832E+04 -5.28583E+03 -8.56595E+03 -3.51514E+04
  2.42820E+04 -4.45026E+04  4.94092E+04 -2.04420E+04  4.67183E+04  1.99996E+04  1.62921E+04  4.53244E+04
 -1.59839E+04  3.48167E+04 -2.62572E+04  2.07873E+03 -1.03744E+04 -2.84211E+04  2.10922E+04 -3.49863E+04
  4.25267E+04 -9.59456E+03  3.74547E+04  2.43534E+04  1.93800E+04  4.86370E+04 -8.21151E+03  5.29362E+04
 -3.32348E+04  3.57560E+04 -4.43466E+04  1.02671E+04 -4.48394E+04 -1.69986E+04 -2.47374E+04 -3.94331E+04
  7.74877E+03 -3.95758E+04  3.25821E+04 -1.58904E+04  3.03715E+04  1.10156E+04  4.45333E+03  1.95391E+04
 -1.36615E+04  8.69071E+03 -1.05677E+04 -7.43581E+03  5.65586E+03 -1.11592E+04  1.85761E+04  5.87145E+03
  1.40545E+04  2.25653E+04 -5.46140E+03  2.58083E+04 -2.28920E+04  1.26684E+04 -2.93269E+04 -3.95182E+03
 -2.25243E+04 -1.76399E+04 -9.71237E+03 -2.20450E+04  4.14837E+03 -2.20248E+04  1.75237E+04 -1.99637E+04
  2.85063E+04 -1.35513E+04  3.47499E+04  3.66745E+03  2.53432E+04  2.17933E+04  4.15106E+03  3.84162E+04
 -1.84714E+04  3.13671E+04 -2.88923E+04  1.10976E+04 -2.14981E+04 -1.08534E+04 -4.67105E+03 -1.32811E+04
  1.69237E+03 -2.29224E+03 -5.93089E+03  7.68606E+03 -1.75212E+04  4.98179E+03 -1.79499E+04 -8.16387E+03
 -1.08852E+04 -2.08905E+04  5.80303E+03 -2.48208E+04  1.64074E+04 -1.76842E+04  1.96856E+04 -1.63526E+03
  1.26420E+04  1.40027E+04 -1.33895E+03  2.03618E+04 -1.42095E+04  1.17731E+04 -2.05718E+04 -4.50281E+03
 -1.50077E+04 -1.87314E+04 -2.38757E+03 -2.49794E+04  1.14719E+04 -2.07791E+04  2.08412E+04 -1.04492E+04
  1.92893E+04  1.87288E+02  1.38025E+04  4.47710E+03  7.79916E+03  1.29591E+03  1.04159E+04 -1.51538E+03
  1.92847E+04  3.03442E+03  2.14924E+04  1.64375E+04  1.44185E+04  3.30051E+04 -2.59201E+03  3.86096E+04
 -2.21290E+04  3.12437E+04 -3.59643E+04  1.60205E+04 -3.78125E+04 -2.50975E+03 -3.11781E+04 -2.18847E+04
 -1.29613E+04 -3.12694E+04  1.09234E+04 -2.79522E+04  2.39777E+04 -1.37891E+04  2.11978E+04  5.98322E+03
  7.68817E+03  1.62268E+04 -1.02626E+04  1.37267E+04 -1.76139E+04  2.72595E+03 -1.32422E+04 -1.11257E+04
 -1.22896E+01 -1.67330E+04  8.93135E+03 -1.26701E+04  1.15001E+04 -9.15471E+02  2.99932E+03  7.43741E+03
 -7.54687E+03  2.90598E+03 -7.46120E+03 -6.14048E+03 -7.52891E+02 -1.52059E+04  1.05885E+04 -1.63613E+04
  1.86109E+04 -8.79207E+03  2.12396E+04  3.20207E+03  1.80135E+04  1.53816E+04  8.62947E+03  2.39374E+04
 -4.27140E+03  2.57131E+04 -1.63953E+04  1.59005E+04 -1.82593E+04  3.82468E+03 -1.28069E+04 -4.22041E+03
 -6.03060E+03 -5.74819E+03 -4.71938E+02  8.80031E+02 -2.76351E+03  2.87639E+03 -6.02800E+03  5.05940E+03
 -1.20768E+04 -6.27307E+02 -1.24116E+04 -1.04437E+04 -4.87315E+03 -1.64717E+04  5.29941E+03 -1.28412E+04
  1.10200E+04 -5.64027E+03  7.79390E+03  3.66345E+03  1.73117E-01  4.90347E+03 -6.35637E+03 -4.63318E+02
 -5.99818E+03 -8.20014E+03 -1.11748E+03 -1.25135E+04  6.93543E+03 -1.30569E+04  1.63302E+04 -7.07436E+03
  1.91040E+04  1.74368E+03  1.40180E+04  1.16858E+04  2.59713E+03  1.54313E+04 -7.85025E+03  1.27390E+04
 -1.05717E+04  3.66916E+03 -5.21202E+03 -2.48746E+03  2.07069E+03 -3.62832E+03  6.95029E+03 -1.28488E+03
  6.21012E+03  5.53985E+03  1.15753E+03  1.01900E+04 -7.48740E+03  1.00554E+04 -1.28747E+04  2.22679E+03
 -8.65792E+03 -6.63532E+03  5.68838E+01 -1.08524E+04  6.75910E+03 -5.40693E+03  7.11849E+03  2.17994E+03
  1.42525E+03  7.35905E+03 -6.80740E+03  9.38733E+03 -1.04701E+04  4.08005E+03 -1.03218E+04 -3.50970E+03
 -5.81430E+03 -1.22171E+04  3.01856E+03 -1.38047E+04  1.17244E+04 -8.11282E+03  1.28826E+04  2.23814E+03
  7.70868E+03  1.02995E+04 -8.97910E+02  1.28004E+04 -8.99282E+03  6.96646E+03 -1.03616E+04 -1.19108E+03
 -8.57229E+03 -8.43641E+03 -1.60980E+03 -9.31489E+03  4.80517E+03 -7.70620E+03  6.14383E+03 -3.34459E+03
  4.23074E+03  1.24326E+03 -7.52208E+02  1.47099E+03 -1.80863E+02 -2.13773E+03  1.60088E+03 -5.12679E+03
  8.48946E+03 -3.31690E+03  1.16765E+04  1.70391E+03  1.16708E+04  8.05737E+03  8.23360E+03  1.53688E+04
 -3.41627E+03  1.76840E+04 -1.50980E+04  1.32946E+04 -1.92071E+04  2.51830E+03 -1.56843E+04 -6.41479E+03
 -8.36120E+03 -1.27096E+04 -5.87511E+02 -1.10547E+04  3.94178E+03 -5.83272E+03  3.78728E+03 -3.76141E+03
  2.79643E+03 -2.54111E+03  3.43000E+03 -3.33989E+03  4.82747E+03 -2.36163E+03  6.30027E+03 -7.51313E+02
  8.42093E+03  2.16012E+03  3.81998E+03  7.10558E+03 -2.26362E+03  7.78294E+03 -8.70570E+03  6.05160E+03
 -1.09045E+04 -1.28833E+03 -6.40104E+03 -7.28664E+03 -6.21365E+02 -1.09988E+04  6.62754E+03 -1.14764E+04
  1.16633E+04 -6.41570E+03  1.41829E+04  1.46339E+03  1.01889E+04  9.99470E+03  1.62943E+03  1.29408E+04
 -5.36531E+03  1.11513E+04 -7.39222E+03  3.55906E+03 -4.93868E+03 -1.55368E+03 -2.19312E+03 -1.45019E+03
 -1.21552E+03  1.93347E+02 -1.73430E+03  2.42428E+03 -4.49932E+03  1.62487E+03 -7.87952E+03 -1.09742E+03
 -5.21703E+03 -7.65419E+03  1.92439E+02 -1.05325E+04  6.80512E+03 -9.82732E+03  9.64553E+03 -3.02338E+03
  1.05099E+04  5.15990E+03  4.73022E+03  9.01211E+03 -1.94404E+03  1.01741E+04 -7.23416E+03  6.27925E+03
 -9.80348E+03  4.48282E+02 -7.48812E+03 -5.87220E+03 -1.09994E+03 -8.47622E+03  4.11632E+03 -6.02322E+03
  6.43525E+03 -2.41881E+03  4.40020E+03  1.51414E+03  1.30971E+03  3.13718E+03  1.08451E+03  1.62839E+03
  2.11946E+03  6.37373E+02  2.59851E+03  1.50173E+03  2.97186E+03  3.79168E+03  2.54511E+03  5.26483E+03
 -2.24841E+03  7.91103E+03 -6.87778E+03  8.59784E+03 -9.74332E+03  2.16618E+03 -1.04364E+04 -3.92125E+03
 -4.97920E+03 -1.01449E+04  1.24294E+03 -1.12274E+04  5.75651E+03 -7.18033E+03  8.30241E+03 -2.02490E+03
  6.29978E+03  3.78881E+03  1.48973E+03  6.13573E+03 -2.86213E+03  3.74453E+03 -3.94208E+03 -3.11927E+02
 -2.05061E+03 -4.55318E+03  2.56114E+03 -4.64037E+03  3.80871E+03 -2.12443E+03  3.78513E+03  7.46126E+02
  2.32793E+03  1.88032E+03  1.07505E+03  1.46561E+03 -4.13643E+02  1.19361E+03  1.55145E+03 -6.47058E+02
  1.56759E+03 -7.31696E+02  4.39746E+03  1.44625E+03  1.97192E+03  4.99413E+03 -7.49615E+02  6.95225E+03
 -4.41168E+03  4.46035E+03 -6.02945E+03  1.20741E+03 -5.83175E+03 -2.14824E+03 -1.92897E+03 -3.66580E+03
  1.13487E+03 -3.68860E+03  2.35572E+03 -1.77130E+03  1.93413E+03  2.29708E+03 -6.89748E+02  3.14605E+03
 -3.99501E+03  2.34990E+03 -4.47129E+03 -2.27721E+03 -2.25891E+03 -5.23320E+03  6.22376E+02 -5.02859E+03
  3.04611E+03 -2.85673E+03  3.77418E+03 -1.72717E+02  3.17178E+03  1.30488E+03  8.00094E+02  2.79101E+03
 -1.78755E+03  7.63450E+02 -2.76976E+03 -1.75268E+03  1.14105E+03 -3.82900E+03  4.87126E+03 -2.89599E+03
  6.13399E+03  2.78592E+02  6.11849E+03  3.88014E+03  2.31064E+03  6.20391E+03 -1.78944E+03  5.74225E+03
 -5.07942E+03  2.07581E+03 -5.28274E+03 -8.68457E+02 -2.83791E+03 -4.24000E+03  8.69804E+02 -3.05044E+03
  3.85542E+03 -2.01641E+03  2.99085E+03  1.51995E+03  9.24688E+02  3.12193E+03 -4.99809E+02  3.10669E+03
 -1.82695E+03  2.35164E+03 -1.62277E+03  7.07313E+02 -6.87870E+02  5.53303E+02 -1.08486E+03  1.58993E+03
 -1.67311E+03  2.75324E+03 -4.53656E+03  1.97016E+03 -6.00336E+03  1.64192E+02 -6.54482E+03 -3.75540E+03
 -3.57070E+03 -8.01010E+03  1.79815E+03 -9.28358E+03  5.30613E+03 -7.23890E+03  8.83065E+03 -2.52869E+03
  7.98948E+03  1.47558E+03  4.96276E+03  5.70697E+03 -2.24411E+02  5.99878E+03 -2.65311E+03  4.78338E+03
 -3.71805E+03  1.70212E+03 -2.06355E+03 -1.31731E+03 -7.33726E+02 -4.54173E+02 -6.74772E+02  1.11876E+02
 -1.39833E+03 -1.48147E+02 -1.54528E+03 -2.45598E+02 -2.68821E+02 -1.37972E+03  9.79791E+01 -2.01342E+03
  3.14374E+03 -2.15939E+03  3.34807E+03  9.01036E+01  4.42777E+03  3.15186E+03  9.75151E+02  5.76551E+03
 -3.05442E+03  7.12302E+03 -6.42042E+03  3.95948E+03 -7.38028E+03 -4.79842E+02 -5.36489E+03 -4.65047E+03
 -2.43556E+03 -5.59186E+03  1.64859E+03 -5.44336E+03  3.58307E+03 -3.01529E+03  3.55421E+03  9.46077E+01
  2.42685E+03  1.79242E+03 -7.75449E+01  1.53894E+03 -1.43990E+03 -3.35162E+01  9.53481E+01 -1.18181E+03
  1.76967E+03 -7.70846E+02  2.13828E+03  6.77356E+02  1.09196E+03  1.89738E+03  2.03591E+02  2.86696E+03
 -2.90463E+03  2.68836E+03 -4.10671E+03  4.89580E+02 -3.53005E+03 -2.41159E+03 -1.35545E+02 -4.69285E+03
  2.73261E+03 -4.08795E+03  4.31216E+03 -1.05677E+03  4.38516E+03  6.39581E+02  2.39259E+03  3.58122E+03
  8.41411E+02  3.43248E+03 -1.43452E+03  2.97020E+03 -2.08886E+03  1.87049E+03 -1.75652E+03  1.17049E+02
 -8.46300E+02 -1.64821E+02 -1.02810E+03  3.82837E+02 -2.27313E+03  7.92288E+02 -2.92668E+03 -5.87759E+02
 -3.11634E+03 -1.73146E+03 -1.02754E+03 -3.64079E+03  1.73726E+03 -4.28447E+03  3.03711E+03 -1.44796E+03
  3.77943E+03  4.29065E+02  1.56000E+03  3.00057E+03 -1.13677E+02  3.81677E+03 -2.72875E+03  2.79334E+03
