 $NMID ID='MM_0lb_SNR800_18hz_g60_62.RAW', FMTDAT='(8E13.5)'
 TRAMP=1., VOLUME=1. $END
  3.09773E+05  5.77202E+02  3.37610E+05  2.50663E+05  8.49844E+04  3.37852E+05 -1.32522E+05  2.50737E+05
 -1.90249E+05  8.29813E+04 -1.11403E+05 -3.25661E+04  8.14102E+02 -5.04994E+04  5.37396E+04  8.12913E+01
  3.49211E+04  5.27188E+04 -1.67050E+04  7.56756E+04 -6.07635E+04  6.33109E+04 -8.38948E+04  3.18493E+04
 -8.07879E+04 -1.14496E+04 -5.68257E+04 -5.08005E+04 -1.49380E+04 -6.94510E+04  2.69506E+04 -4.56457E+04
  3.95964E+04  3.66669E+03  1.60061E+04  4.74705E+04 -3.42080E+04  4.69290E+04 -6.64114E+04 -1.76226E+02
 -5.33026E+04 -5.66698E+04 -6.73819E+03 -7.65904E+04  3.38344E+04 -5.44846E+04  4.72836E+04 -1.69788E+04
  4.28084E+04  1.11135E+04  3.15798E+04  2.52877E+04  1.58506E+04  2.88660E+04 -5.16636E+03  2.68582E+04
 -2.22039E+04  1.23944E+04 -1.87707E+04 -4.83618E+03  5.28589E+03 -7.11026E+03  2.18432E+04  1.19774E+04
  7.44961E+03  3.47896E+04 -3.15441E+04  3.51164E+04 -6.29668E+04  2.06597E+03 -5.62973E+04 -4.22701E+04
 -1.20767E+04 -6.24072E+04  3.96227E+04 -4.45827E+04  5.72457E+04 -2.21300E+03  3.34213E+04  3.16032E+04
 -6.18154E+03  3.50485E+04 -2.93518E+04  1.54217E+04 -2.93699E+04 -4.78743E+03 -1.61076E+04 -1.05527E+04
 -8.05964E+03 -1.23102E+04 -7.84800E+02 -1.75101E+04  7.36495E+03 -2.28489E+04  1.50515E+04 -1.35957E+04
  1.16814E+04  4.65593E+03 -7.80896E+03  1.29068E+04 -2.06427E+04 -3.81425E+03 -7.98867E+03 -3.24149E+04
  2.20773E+04 -4.21407E+04  4.67594E+04 -1.92010E+04  4.39314E+04  1.90016E+04  1.52247E+04  4.34573E+04
 -1.57647E+04  3.25276E+04 -2.44068E+04  1.66606E+03 -8.99237E+03 -2.70619E+04  2.08200E+04 -3.29517E+04
  3.99008E+04 -8.24483E+03  3.40679E+04  2.34961E+04  1.72112E+04  4.51696E+04 -8.05443E+03  4.81203E+04
 -3.02774E+04  3.21439E+04 -3.99349E+04  9.18885E+03 -4.07569E+04 -1.59813E+04 -2.27741E+04 -3.67434E+04
  7.12938E+03 -3.62035E+04  3.06509E+04 -1.39493E+04  2.84033E+04  1.10833E+04  3.69024E+03  1.84927E+04
 -1.32823E+04  7.97638E+03 -1.01789E+04 -7.73014E+03  5.70978E+03 -1.03457E+04  1.77547E+04  6.27521E+03
  1.29915E+04  2.19838E+04 -6.19937E+03  2.42224E+04 -2.21078E+04  1.03713E+04 -2.67324E+04 -5.66654E+03
 -1.88114E+04 -1.69975E+04 -7.34972E+03 -1.87404E+04  3.85011E+03 -1.74733E+04  1.42653E+04 -1.67531E+04
  2.40298E+04 -1.26508E+04  3.02660E+04  1.83651E+03  2.27754E+04  1.84969E+04  4.28235E+03  3.47200E+04
 -1.72728E+04  2.91775E+04 -2.70708E+04  9.86556E+03 -2.03215E+04 -1.02492E+04 -4.32706E+03 -1.35526E+04
  2.43675E+03 -3.48847E+03 -3.67193E+03  5.81950E+03 -1.46833E+04  5.18216E+03 -1.52375E+04 -6.17858E+03
 -9.18805E+03 -1.72602E+04  4.98278E+03 -2.11461E+04  1.40196E+04 -1.52566E+04  1.64667E+04 -1.51454E+03
  1.02564E+04  1.20770E+04 -1.17214E+03  1.75570E+04 -1.14982E+04  9.59183E+03 -1.69193E+04 -3.67200E+03
 -1.26530E+04 -1.54293E+04 -1.80997E+03 -2.10253E+04  9.20821E+03 -1.69850E+04  1.76443E+04 -8.34281E+03
  1.58522E+04  3.43093E+02  1.15968E+04  4.01829E+03  5.83700E+03  8.45299E+02  8.39152E+03 -1.56428E+03
  1.55354E+04  3.04032E+03  1.67257E+04  1.40593E+04  1.09117E+04  2.74172E+04 -2.80959E+03  2.99764E+04
 -1.78120E+04  2.37480E+04 -2.76103E+04  1.15761E+04 -2.88005E+04 -2.11386E+03 -2.42106E+04 -1.62956E+04
 -1.09435E+04 -2.35047E+04  7.91649E+03 -2.16880E+04  1.85042E+04 -1.17767E+04  1.71772E+04  4.54769E+03
  6.93269E+03  1.26084E+04 -7.81223E+03  1.14444E+04 -1.44770E+04  2.41357E+03 -1.10627E+04 -9.02415E+03
  1.69238E+02 -1.37668E+04  6.94362E+03 -1.01187E+04  9.00757E+03 -1.63801E+03  1.70065E+03  5.67294E+03
 -6.09050E+03  1.39747E+03 -4.59242E+03 -5.04750E+03  3.15063E+02 -1.12546E+04  8.60848E+03 -1.14697E+04
  1.39863E+04 -5.85485E+03  1.44703E+04  3.04304E+03  1.21827E+04  1.07610E+04  5.98919E+03  1.65293E+04
 -2.68666E+03  1.80261E+04 -1.13061E+04  1.16780E+04 -1.32612E+04  3.18542E+03 -9.56427E+03 -2.63635E+03
 -4.47107E+03 -4.03654E+03 -7.97788E+02  1.13687E+03 -2.43985E+03  2.10934E+03 -4.06755E+03  3.88466E+03
 -9.04123E+03 -5.27607E+02 -9.96466E+03 -7.95853E+03 -3.86704E+03 -1.28659E+04  3.81888E+03 -9.36887E+03
  8.12425E+03 -4.05936E+03  5.82449E+03  2.47942E+03  4.34091E+02  3.46643E+03 -3.84581E+03  8.98433E+01
 -3.90363E+03 -5.95887E+03 -4.03643E+02 -8.57655E+03  4.60305E+03 -8.84999E+03  1.09832E+04 -4.81582E+03
  1.31902E+04  7.42085E+02  9.78574E+03  7.22605E+03  1.78213E+03  1.01959E+04 -5.67457E+03  9.32747E+03
 -7.59820E+03  2.89954E+03 -3.98982E+03 -1.60371E+03  1.72791E+03 -2.18079E+03  5.14004E+03 -8.98424E+02
  4.55950E+03  3.86589E+03  1.07789E+03  7.05212E+03 -5.01715E+03  7.08344E+03 -8.79071E+03  2.17784E+03
 -5.41190E+03 -4.06420E+03  4.60340E+02 -7.50232E+03  4.36620E+03 -3.58746E+03  4.32160E+03  1.53287E+03
  5.10806E+02  3.90666E+03 -4.69934E+03  5.42307E+03 -5.77931E+03  3.00555E+03 -5.47480E+03 -1.57155E+03
 -3.80695E+03 -7.23061E+03  1.41602E+03 -8.43051E+03  7.06917E+03 -5.20627E+03  7.53701E+03  9.64992E+02
  5.27493E+03  6.12831E+03  1.65313E+02  8.20342E+03 -5.43002E+03  4.50359E+03 -5.99808E+03 -7.08422E+02
 -6.14859E+03 -5.58034E+03 -1.17330E+03 -5.52402E+03  2.93973E+03 -5.20015E+03  3.30343E+03 -2.91959E+03
  2.92815E+03  8.51034E+02 -3.10579E+02  1.38005E+03  2.21567E+02 -5.69842E+02  3.67820E+02 -2.34549E+03
  4.59380E+03 -1.35518E+03  6.25576E+03  9.51378E+02  6.37327E+03  3.55001E+03  5.73002E+03  8.40425E+03
 -1.53253E+03  9.99369E+03 -8.83253E+03  7.23789E+03 -1.11356E+04  1.35522E+03 -8.87228E+03 -3.02405E+03
 -4.69464E+03 -7.57632E+03 -4.14176E+02 -5.80973E+03  2.24778E+03 -2.60932E+03  2.07200E+03 -2.45440E+03
  1.29129E+03 -1.62853E+03  2.37875E+03 -2.27852E+03  3.83120E+03 -1.43402E+03  3.91421E+03  2.59724E+02
  4.96671E+03  1.32926E+03  1.67400E+03  3.94631E+03 -1.67561E+03  3.93501E+03 -5.19657E+03  2.77999E+03
 -5.62731E+03 -9.99097E+02 -2.50357E+03 -4.15063E+03  3.75200E+02 -5.98943E+03  3.62894E+03 -5.98600E+03
  5.93408E+03 -3.72634E+03  7.57348E+03  3.47814E+02  5.85156E+03  4.87727E+03  1.09219E+03  6.97099E+03
 -2.49637E+03  6.66488E+03 -3.65025E+03  2.20005E+03 -2.44919E+03 -1.33811E+03 -8.27535E+02 -8.07460E+02
 -1.82179E+02  2.21300E+02 -1.26846E+03  1.93482E+03 -2.55792E+03  1.07238E+03 -4.32781E+03 -2.62668E+02
 -2.04482E+03 -4.38096E+03  1.06886E+03 -5.21748E+03  3.20320E+03 -4.81834E+03  4.21587E+03 -1.33328E+03
  5.14232E+03  2.94797E+03  1.89541E+03  3.72999E+03 -7.67994E+02  5.01582E+03 -3.09537E+03  2.83441E+03
 -4.41707E+03  4.48547E+02 -3.73261E+03 -2.56198E+03 -3.37917E+02 -3.47117E+03  2.09669E+03 -2.75245E+03
  3.22989E+03 -1.34556E+03  2.15257E+03  7.35809E+02  5.15018E+02  1.54586E+03  1.03449E+03  5.11818E+02
  1.82558E+03  6.05048E+02  1.45958E+03  1.24009E+03  1.35188E+03  2.59861E+03  1.44028E+03  2.04054E+03
 -1.21343E+03  3.44657E+03 -2.77008E+03  4.25935E+03 -3.42526E+03  9.72229E+02 -4.52927E+03 -1.01906E+03
 -1.80716E+03 -4.10819E+03  7.19015E+02 -5.28989E+03  2.48186E+03 -2.99600E+03  3.48528E+03 -1.21452E+03
  2.75054E+03  2.01400E+03  4.33465E+02  2.59858E+03 -9.26830E+02  1.44118E+03 -1.32513E+03 -1.32500E+02
 -6.00080E+02 -1.63817E+03  1.15725E+03 -1.48638E+03  1.34807E+03 -1.07482E+03  1.63458E+03  2.36540E+02
  1.24470E+03  3.24797E+02  4.60016E+02 -2.88259E+02 -7.26766E+02  9.59493E+02  1.44984E+03 -4.53069E+01
  2.08549E+02 -3.31537E+01  2.03664E+03  3.98949E+02  4.76808E+02  2.53113E+03 -3.22131E+00  3.14511E+03
 -1.84325E+03  1.27875E+03 -2.15643E+03  3.24424E+02 -2.27655E+03 -8.14309E+02 -5.37292E+01 -1.18218E+03
  3.40827E+02 -1.09240E+03  9.48066E+02 -9.10320E+02  5.05134E+02  1.25225E+03 -7.38165E+02  1.05896E+03
 -1.60570E+03  8.42610E+02 -1.36969E+03 -1.63767E+03 -7.09476E+02 -2.28838E+03  1.83155E+02 -1.72744E+03
  6.63236E+02 -5.33055E+02  7.07907E+02  1.25559E+02  1.44630E+03  1.05359E+02  4.98362E+02  1.22464E+03
 -2.42248E+02  4.03823E+02 -8.98349E+02 -2.77415E+02  7.63042E+02 -1.27378E+03  1.86853E+03 -9.93772E+02
  1.54317E+03  4.23662E+02  3.07219E+03  8.79764E+02  1.20282E+03  1.96665E+03 -9.60734E+01  2.20906E+03
 -1.46264E+03  1.86288E+02 -1.72039E+03  7.67615E+01 -8.94939E+02 -1.69744E+03  3.67515E+02 -6.87411E+02
  1.53880E+03 -9.07457E+02  1.14471E+03  9.00206E+02  1.84750E+02  1.45617E+03  2.60546E+02  1.17944E+03
 -1.98547E+02  1.43752E+03 -7.56813E+02  5.54555E+02  1.64375E+02  4.11188E+02 -8.11323E+02  6.21090E+02
 -4.82985E+02  8.55323E+02 -1.66696E+03  5.50292E+02 -1.80370E+03  2.33462E+02 -2.41813E+03 -8.23267E+02
 -1.08223E+03 -2.73172E+03  6.54150E+02 -3.32199E+03  9.48630E+02 -2.85431E+03  3.21000E+03 -1.03480E+03
  2.71304E+03 -3.89863E+02  1.29955E+03  1.33628E+03 -4.84449E+02  1.49214E+03 -6.86753E+02  1.48613E+03
 -1.03041E+03  7.56474E+02 -7.55921E+02 -2.55002E+02 -5.34414E+02  5.17134E+02 -4.69755E+02  1.16590E+01
 -1.15265E+03 -1.51135E+02 -7.99313E+02 -2.93738E+02  2.30906E+02 -5.55195E+02 -2.25782E+00 -1.22189E+03
  1.33411E+03 -5.36625E+02  8.30844E+02  1.95326E+02  9.92610E+02  9.98048E+02 -2.32716E+02  1.46323E+03
 -1.19845E+03  2.15029E+03 -1.77720E+03  1.38380E+03 -1.87781E+03 -2.25153E+02 -1.49906E+03 -1.02513E+03
 -1.04348E+03 -1.28148E+03  6.92332E+01 -1.62299E+03  5.92216E+02 -4.62557E+02  6.37769E+02  2.29263E+01
  6.93080E+02  9.31090E+01 -1.12142E+02  3.06485E+02 -7.00057E+02 -5.85404E+01  9.60737E+00 -4.68632E+02
  7.18672E+02  5.81302E+01  4.03165E+02  4.48448E+02  4.05538E+00  3.10566E+02  5.74697E+01  3.88541E+02
 -4.52494E+02  7.30947E+02 -3.13875E+02  1.12826E+02 -8.68310E+02 -5.97021E+02  1.91300E+01 -1.07666E+03
  3.53187E+02 -8.46424E+02  4.27764E+02  1.01061E+02  7.70825E+02 -3.62198E+02  2.97444E+02  8.61872E+02
  3.52733E+02  5.12241E+02 -5.63995E+02  6.56073E+02 -4.82107E+02  6.86978E+02 -3.91590E+02  2.04059E+02
 -2.60677E+02  7.18845E+01 -2.95305E+02  3.51263E+02 -4.87404E+02  6.21953E+01 -9.20036E+02 -3.30835E+02
 -1.12721E+03  2.87822E+02 -6.89986E+02 -9.81050E+02  4.02436E+02 -1.44560E+03  6.43349E+02 -1.44080E+02
  6.93723E+02  5.14352E+01 -2.26314E+02  1.10029E+02 -1.52391E+01  5.83900E+02 -4.13073E+02  5.32435E+02
