 $NMID ID='MM_0lb_SNR800_7hz_g60_5.RAW', FMTDAT='(8E13.5)'
 TRAMP=1., VOLUME=1. $END
  3.09592E+05  2.83817E+02  3.37773E+05  2.51234E+05  8.51234E+04  3.39047E+05 -1.32937E+05  2.52658E+05
 -1.91075E+05  8.42614E+04 -1.13272E+05 -3.21008E+04  2.26832E+02 -5.09716E+04  5.37356E+04 -9.64791E+02
  3.59606E+04  5.29407E+04 -1.66417E+04  7.70857E+04 -6.11254E+04  6.49945E+04 -8.59654E+04  3.27244E+04
 -8.30162E+04 -1.21031E+04 -5.88568E+04 -5.30430E+04 -1.51805E+04 -7.21248E+04  2.82315E+04 -4.70291E+04
  4.17131E+04  3.17522E+03  1.70794E+04  4.92061E+04 -3.45890E+04  4.90384E+04 -6.90382E+04  1.93295E+02
 -5.57077E+04 -5.85624E+04 -8.01343E+03 -8.01327E+04  3.56812E+04 -5.81388E+04  5.07394E+04 -1.87993E+04
  4.63877E+04  1.19626E+04  3.38172E+04  2.72457E+04  1.61196E+04  3.16943E+04 -6.29491E+03  2.81540E+04
 -2.27836E+04  1.19214E+04 -1.75285E+04 -5.89025E+03  7.99026E+03 -7.09551E+03  2.42614E+04  1.53998E+04
  7.46533E+03  3.88135E+04 -3.49493E+04  3.78730E+04 -6.66484E+04  1.82143E+03 -5.94835E+04 -4.58932E+04
 -1.28652E+04 -6.71583E+04  4.29213E+04 -4.90561E+04  6.30800E+04 -2.81957E+03  3.84786E+04  3.52021E+04
 -4.92297E+03  4.12635E+04 -3.30313E+04  2.02866E+04 -3.52251E+04 -2.77645E+03 -2.10218E+04 -1.27187E+04
 -9.99740E+03 -1.63270E+04 -4.14363E+02 -2.07428E+04  8.95244E+03 -2.39280E+04  1.63227E+04 -1.16242E+04
  9.81796E+03  6.98301E+03 -1.20683E+04  1.32844E+04 -2.46671E+04 -8.14523E+03 -8.73359E+03 -3.94637E+04
  2.68665E+04 -4.90225E+04  5.44217E+04 -2.16025E+04  5.11683E+04  2.11359E+04  1.83534E+04  4.85118E+04
 -1.78536E+04  3.79729E+04 -2.91143E+04  3.16785E+03 -1.29634E+04 -3.03707E+04  2.22267E+04 -3.85095E+04
  4.64969E+04 -1.19265E+04  4.32708E+04  2.59508E+04  2.33081E+04  5.39276E+04 -8.33839E+03  5.96923E+04
 -3.76876E+04  4.11890E+04 -5.07251E+04  1.21629E+04 -5.08211E+04 -1.97613E+04 -2.74122E+04 -4.50655E+04
  8.36367E+03 -4.43323E+04  3.59979E+04 -1.89434E+04  3.38426E+04  1.10025E+04  5.88036E+03  2.19396E+04
 -1.39944E+04  1.06701E+04 -1.17586E+04 -7.84093E+03  5.77351E+03 -1.18334E+04  1.97101E+04  5.33318E+03
  1.56127E+04  2.31481E+04 -4.98328E+03  2.85721E+04 -2.40786E+04  1.62556E+04 -3.39201E+04 -1.98982E+03
 -2.80486E+04 -1.89484E+04 -1.38143E+04 -2.78092E+04  4.78543E+03 -2.95210E+04  2.26185E+04 -2.55134E+04
  3.59364E+04 -1.53679E+04  4.13371E+04  6.08805E+03  2.87911E+04  2.73259E+04  4.72372E+03  4.45660E+04
 -2.12532E+04  3.60393E+04 -3.22634E+04  1.23254E+04 -2.30273E+04 -1.05611E+04 -5.36398E+03 -1.28403E+04
 -5.05600E+00 -3.30053E+02 -9.39686E+03  9.26351E+03 -2.28355E+04  4.64994E+03 -2.25842E+04 -1.11872E+04
 -1.27806E+04 -2.59253E+04  6.60323E+03 -3.05748E+04  2.08636E+04 -2.17100E+04  2.53679E+04 -2.01910E+03
  1.58614E+04  1.80434E+04 -1.27166E+03  2.56849E+04 -1.87216E+04  1.52891E+04 -2.62435E+04 -5.16877E+03
 -1.91051E+04 -2.30867E+04 -2.41086E+03 -3.14537E+04  1.41442E+04 -2.63626E+04  2.55973E+04 -1.41147E+04
  2.43006E+04 -6.49495E+02  1.79884E+04  5.55456E+03  9.59213E+03  1.35116E+03  1.42575E+04 -2.71039E+03
  2.43920E+04  2.39337E+03  2.97144E+04  2.00887E+04  2.08886E+04  4.24944E+04 -1.98306E+03  5.11036E+04
 -2.89023E+04  4.35118E+04 -4.85844E+04  2.26260E+04 -5.19257E+04 -3.64280E+03 -4.17513E+04 -3.09358E+04
 -1.56376E+04 -4.35245E+04  1.55596E+04 -3.71074E+04  3.22349E+04 -1.73199E+04  2.72351E+04  9.11987E+03
  8.90088E+03  2.17190E+04 -1.28146E+04  1.70208E+04 -2.26976E+04  2.41482E+03 -1.69158E+04 -1.48462E+04
 -8.35457E+02 -2.26660E+04  1.25415E+04 -1.58211E+04  1.54183E+04 -1.27900E+03  4.16921E+03  9.98114E+03
 -1.00214E+04  5.40915E+03 -1.10767E+04 -8.12810E+03 -2.95688E+03 -2.07487E+04  1.40547E+04 -2.35342E+04
  2.77568E+04 -1.34795E+04  3.16851E+04  3.51205E+03  2.81114E+04  2.18720E+04  1.28003E+04  3.50237E+04
 -7.20173E+03  3.67981E+04 -2.46631E+04  2.29116E+04 -2.68355E+04  4.11088E+03 -1.84717E+04 -7.15957E+03
 -7.31831E+03 -8.81746E+03 -2.61192E+02 -5.08658E+01 -2.95598E+03  4.09205E+03 -9.19508E+03  6.16233E+03
 -1.67109E+04 -1.45923E+03 -1.74437E+04 -1.38437E+04 -7.38585E+03 -2.26518E+04  7.78408E+03 -1.86390E+04
  1.53155E+04 -7.41690E+03  1.08613E+04  5.32243E+03 -1.46871E+02  7.49476E+03 -9.94703E+03 -1.52329E+02
 -9.00607E+03 -1.26076E+04 -1.10567E+03 -1.90176E+04  1.10431E+04 -1.92629E+04  2.43669E+04 -1.12717E+04
  2.88071E+04  3.51456E+03  2.05944E+04  1.73010E+04  4.15196E+03  2.32205E+04 -1.14582E+04  1.83201E+04
 -1.52455E+04  4.77789E+03 -7.54262E+03 -4.60210E+03  2.89664E+03 -5.69051E+03  9.89457E+03 -1.08939E+03
  9.27948E+03  8.52963E+03  1.17435E+03  1.54042E+04 -1.16757E+04  1.44791E+04 -1.91983E+04  3.19360E+03
 -1.31635E+04 -1.03985E+04  5.84821E+02 -1.63452E+04  1.08984E+04 -8.39145E+03  1.13419E+04  4.63200E+03
  2.95241E+03  1.25245E+04 -9.89377E+03  1.47616E+04 -1.73079E+04  5.82872E+03 -1.76487E+04 -6.70714E+03
 -1.04108E+04 -2.02892E+04  5.04468E+03 -2.29515E+04  1.90471E+04 -1.31529E+04  2.15428E+04  3.89780E+03
  1.26248E+04  1.71191E+04 -2.05368E+03  1.92007E+04 -1.47320E+04  1.07647E+04 -1.58192E+04 -1.35263E+03
 -1.28325E+04 -1.29623E+04 -1.57538E+03 -1.53963E+04  8.04033E+03 -1.14054E+04  1.00630E+04 -4.31689E+03
  5.83608E+03  3.10413E+03 -1.53559E+03  1.98020E+03 -1.11412E+03 -5.00632E+03  3.81075E+03 -1.02294E+04
  1.53578E+04 -6.86386E+03  2.06662E+04  2.08292E+03  2.03308E+04  1.45870E+04  1.22313E+04  2.64782E+04
 -6.97185E+03  3.10781E+04 -2.52124E+04  2.24671E+04 -3.28934E+04  4.51177E+03 -2.66127E+04 -1.19835E+04
 -1.33634E+04 -2.21627E+04 -5.51374E+02 -1.86724E+04  6.24040E+03 -1.07600E+04  7.08150E+03 -6.59930E+03
  4.74713E+03 -4.12390E+03  5.08046E+03 -4.45050E+03  6.93896E+03 -4.46133E+03  1.03322E+04 -2.64152E+03
  1.37877E+04  2.96604E+03  7.80924E+03  1.21872E+04 -2.75213E+03  1.53011E+04 -1.43965E+04  1.13723E+04
 -1.95644E+04 -1.92895E+03 -1.31264E+04 -1.29434E+04 -1.94013E+03 -2.04320E+04  1.13244E+04 -2.06657E+04
  2.15557E+04 -1.13040E+04  2.55907E+04  4.09201E+03  1.80278E+04  1.76922E+04  2.38469E+03  2.36059E+04
 -9.75821E+03  1.84344E+04 -1.39017E+04  6.75626E+03 -9.66751E+03 -1.99277E+03 -3.76935E+03 -3.13906E+03
 -1.50821E+03 -3.33672E+02 -2.60479E+03  3.62915E+03 -7.96166E+03  3.09469E+03 -1.28103E+04 -1.87569E+03
 -9.74539E+03 -1.34976E+04 -4.42922E+02 -1.98490E+04  1.20303E+04 -1.78601E+04  2.01008E+04 -6.12865E+03
  2.00441E+04  9.12741E+03  9.62277E+03  1.82004E+04 -4.03334E+03  2.00489E+04 -1.47375E+04  1.25381E+04
 -1.87748E+04  5.40381E+02 -1.37723E+04 -1.25116E+04 -2.19258E+03 -1.68019E+04  8.33699E+03 -1.23354E+04
  1.26524E+04 -3.73197E+03  8.79384E+03  3.90986E+03  3.48138E+03  5.77968E+03  1.84867E+03  3.14954E+03
  2.99338E+03  1.77315E+03  5.07158E+03  2.63910E+03  6.23013E+03  6.33978E+03  5.37447E+03  1.10732E+04
 -3.63046E+03  1.62309E+04 -1.47939E+04  1.58017E+04 -2.16248E+04  4.04711E+03 -2.18777E+04 -9.55929E+03
 -1.09288E+04 -2.11158E+04  3.30795E+03 -2.25413E+04  1.27002E+04 -1.46373E+04  1.74103E+04 -3.06591E+03
  1.27025E+04  7.80791E+03  2.84079E+03  1.20939E+04 -6.18521E+03  7.90288E+03 -8.92928E+03 -1.18787E+03
 -4.34122E+03 -9.03097E+03  4.61762E+03 -9.23960E+03  9.15190E+03 -4.34475E+03  8.72806E+03  1.93787E+03
  5.62589E+03  4.72569E+03  1.69876E+03  3.79172E+03 -1.14151E+03  3.07725E+03  1.94874E+03 -8.32770E+02
  4.00505E+03 -1.34397E+03  7.89820E+03  3.29471E+03  5.43814E+03  1.12357E+04 -1.94953E+03  1.43583E+04
 -1.01747E+04  1.05458E+04 -1.35343E+04  2.86509E+03 -1.20673E+04 -5.14123E+03 -5.22636E+03 -9.01208E+03
  1.49733E+03 -8.85386E+03  6.04650E+03 -3.76090E+03  5.00539E+03  4.04791E+03 -1.85386E+03  7.58150E+03
 -8.81322E+03  3.99883E+03 -1.06984E+04 -5.08235E+03 -6.14664E+03 -1.15095E+04  1.61944E+03 -1.24276E+04
  7.64304E+03 -6.98919E+03  9.10262E+03 -1.53802E+03  7.33709E+03  3.56214E+03  1.06092E+03  6.10294E+03
 -4.48958E+03  2.18479E+03 -5.21371E+03 -4.50846E+03  2.26435E+03 -9.97500E+03  1.02684E+04 -7.88994E+03
  1.40772E+04  7.79694E+02  1.32763E+04  1.06117E+04  4.03417E+03  1.46932E+04 -5.15239E+03  1.40050E+04
 -1.20153E+04  6.37039E+03 -1.23560E+04 -1.54283E+03 -7.19492E+03 -9.36094E+03  2.29005E+03 -9.53537E+03
  8.71987E+03 -4.78782E+03  7.72654E+03  3.97556E+03  2.22297E+03  7.77144E+03 -1.06118E+03  7.44464E+03
 -3.73356E+03  4.19489E+03 -3.85151E+03  1.77158E+03 -2.26116E+03  1.48252E+03 -2.08146E+03  2.79209E+03
 -3.75727E+03  5.14042E+03 -9.41251E+03  5.53189E+03 -1.50308E+04  2.58970E+02 -1.68328E+04 -1.04283E+04
 -8.42541E+03 -1.98173E+04  3.81602E+03 -2.29204E+04  1.40146E+04 -1.77080E+04  2.17396E+04 -6.46115E+03
  2.05960E+04  4.46194E+03  1.31464E+04  1.41583E+04  1.34206E+03  1.54393E+04 -6.42250E+03  1.23788E+04
 -9.27872E+03  4.87268E+03 -5.68902E+03 -2.39745E+03 -1.41209E+03 -1.74372E+03 -5.26803E+02  5.13476E+01
 -2.00602E+03  4.73750E+02 -3.04399E+03 -2.28238E+02 -9.56418E+02 -3.27709E+03  1.09343E+02 -5.86349E+03
  6.53192E+03 -4.49101E+03  9.46338E+03  2.44771E+02  1.12961E+04  8.28438E+03  3.30565E+03  1.64126E+04
 -7.25051E+03  1.80845E+04 -1.76415E+04  1.01862E+04 -1.96583E+04 -1.53262E+03 -1.47128E+04 -1.21065E+04
 -5.98447E+03 -1.67868E+04  3.68091E+03 -1.53943E+04  1.08612E+04 -9.17914E+03  1.04221E+04  4.35058E+02
  5.84572E+03  5.52640E+03 -9.04377E+02  4.53076E+03 -3.28146E+03 -6.85391E+02 -3.03126E+01 -3.65166E+03
  5.17286E+03 -2.68767E+03  6.02399E+03  2.08902E+03  4.86686E+03  6.43039E+03 -6.50747E+02  8.98419E+03
 -7.46976E+03  7.66818E+03 -1.18411E+04  9.81700E+02 -1.00493E+04 -8.22885E+03 -1.97633E+03 -1.36699E+04
  7.96074E+03 -1.14440E+04  1.33268E+04 -3.91754E+03  1.32874E+04  3.64028E+03  8.00982E+03  1.01616E+04
  1.68114E+03  1.11602E+04 -4.30782E+03  8.82750E+03 -7.00946E+03  4.89438E+03 -6.49749E+03  5.19773E+02
 -3.40632E+03 -8.30784E+02 -2.82454E+03  1.66757E+03 -5.33180E+03  2.02900E+03 -8.97882E+03 -1.78347E+03
 -8.24169E+03 -5.90994E+03 -2.48943E+03 -1.11190E+04  4.94335E+03 -1.17221E+04  9.76459E+03 -5.91821E+03
  1.13575E+04  1.48862E+03  6.64792E+03  8.25724E+03 -4.01545E+02  1.14431E+04 -9.23940E+03  7.52841E+03
