 $NMID ID='MM_0lb_SNR800_15hz_g60_45.RAW', FMTDAT='(8E13.5)'
 TRAMP=1., VOLUME=1. $END
  3.09488E+05  3.61349E+02  3.37499E+05  2.50752E+05  8.48464E+04  3.38269E+05 -1.32837E+05  2.51356E+05
 -1.90506E+05  8.32814E+04 -1.11912E+05 -3.27706E+04  6.15955E+02 -5.04506E+04  5.36273E+04  7.46390E+01
  3.50323E+04  5.28205E+04 -1.65772E+04  7.55817E+04 -6.10345E+04  6.35430E+04 -8.44102E+04  3.21261E+04
 -8.14802E+04 -1.14564E+04 -5.78726E+04 -5.15847E+04 -1.49583E+04 -6.98157E+04  2.76258E+04 -4.59859E+04
  3.99859E+04  4.07581E+03  1.60405E+04  4.79300E+04 -3.44514E+04  4.73620E+04 -6.67859E+04 -1.02518E+02
 -5.38430E+04 -5.68552E+04 -7.09122E+03 -7.73622E+04  3.37332E+04 -5.58746E+04  4.84435E+04 -1.76845E+04
  4.37801E+04  1.11156E+04  3.21293E+04  2.56773E+04  1.59441E+04  2.96392E+04 -5.37337E+03  2.75331E+04
 -2.22807E+04  1.24505E+04 -1.85916E+04 -4.99763E+03  6.00798E+03 -7.29594E+03  2.27820E+04  1.25181E+04
  7.06322E+03  3.57844E+04 -3.26726E+04  3.55216E+04 -6.38683E+04  2.33776E+03 -5.72787E+04 -4.30873E+04
 -1.26260E+04 -6.39011E+04  4.01661E+04 -4.58483E+04  5.87706E+04 -2.42011E+03  3.48608E+04  3.28211E+04
 -5.96177E+03  3.64557E+04 -3.02454E+04  1.65356E+04 -3.10465E+04 -4.19321E+03 -1.71609E+04 -1.11290E+04
 -8.35607E+03 -1.36366E+04 -6.78020E+02 -1.83829E+04  7.79950E+03 -2.28201E+04  1.55531E+04 -1.34716E+04
  1.11022E+04  5.53368E+03 -8.64800E+03  1.29997E+04 -2.13814E+04 -4.94605E+03 -8.33414E+03 -3.43637E+04
  2.34215E+04 -4.39038E+04  4.87111E+04 -1.97334E+04  4.53572E+04  1.96922E+04  1.58924E+04  4.46827E+04
 -1.59653E+04  3.40448E+04 -2.57063E+04  1.73003E+03 -1.00724E+04 -2.79366E+04  2.12366E+04 -3.39605E+04
  4.18165E+04 -9.13206E+03  3.64382E+04  2.37998E+04  1.88958E+04  4.72385E+04 -8.31715E+03  5.13115E+04
 -3.21263E+04  3.45216E+04 -4.25539E+04  9.97125E+03 -4.34161E+04 -1.68618E+04 -2.40626E+04 -3.86712E+04
  7.35818E+03 -3.83634E+04  3.20859E+04 -1.51604E+04  2.96690E+04  1.09778E+04  4.07368E+03  1.95781E+04
 -1.30951E+04  8.43043E+03 -1.07573E+04 -7.65590E+03  5.91844E+03 -1.07915E+04  1.80670E+04  5.91189E+03
  1.37460E+04  2.20689E+04 -5.85209E+03  2.53058E+04 -2.25177E+04  1.19155E+04 -2.87805E+04 -4.55334E+03
 -2.10728E+04 -1.73592E+04 -8.45205E+03 -2.12105E+04  4.17756E+03 -2.03325E+04  1.66081E+04 -1.88634E+04
  2.68334E+04 -1.28363E+04  3.34164E+04  3.34954E+03  2.45855E+04  2.06793E+04  4.29970E+03  3.70044E+04
 -1.78147E+04  3.10434E+04 -2.85787E+04  1.05156E+04 -2.10355E+04 -1.03900E+04 -4.45264E+03 -1.33110E+04
  1.76617E+03 -2.90612E+03 -5.08214E+03  6.85396E+03 -1.65044E+04  5.22557E+03 -1.70070E+04 -7.48300E+03
 -1.06045E+04 -1.94397E+04  5.05469E+03 -2.36572E+04  1.55871E+04 -1.66051E+04  1.86016E+04 -1.93872E+03
  1.16482E+04  1.31990E+04 -9.16040E+02  1.92754E+04 -1.31591E+04  1.11036E+04 -1.95386E+04 -3.88995E+03
 -1.42875E+04 -1.74615E+04 -1.77541E+03 -2.32820E+04  1.06349E+04 -1.94594E+04  1.95387E+04 -9.65200E+03
  1.82014E+04 -1.59025E+02  1.29364E+04  4.54888E+03  7.14380E+03  1.15617E+03  9.82369E+03 -1.36604E+03
  1.76119E+04  2.66387E+03  1.97944E+04  1.54467E+04  1.30525E+04  3.08292E+04 -2.63421E+03  3.47328E+04
 -2.05471E+04  2.83105E+04 -3.27562E+04  1.39884E+04 -3.39193E+04 -2.27717E+03 -2.80534E+04 -1.96526E+04
 -1.24378E+04 -2.84431E+04  9.80659E+03 -2.53689E+04  2.16099E+04 -1.30129E+04  1.96906E+04  5.52104E+03
  6.98825E+03  1.47886E+04 -9.25125E+03  1.28510E+04 -1.63672E+04  2.65572E+03 -1.23640E+04 -1.04497E+04
 -4.08364E+02 -1.53083E+04  8.04584E+03 -1.15130E+04  1.05456E+04 -1.07350E+03  2.11203E+03  6.51856E+03
 -7.22742E+03  2.61727E+03 -5.94941E+03 -5.71635E+03 -7.48695E+02 -1.37339E+04  9.61881E+03 -1.44053E+04
  1.72202E+04 -7.69163E+03  1.79911E+04  3.08640E+03  1.57697E+04  1.34105E+04  7.33221E+03  2.08139E+04
 -3.34282E+03  2.25291E+04 -1.39868E+04  1.41442E+04 -1.61641E+04  3.33374E+03 -1.15435E+04 -3.72117E+03
 -5.23192E+03 -4.87790E+03 -8.20896E+02  8.49201E+02 -2.31274E+03  2.69286E+03 -5.16545E+03  4.34990E+03
 -1.05360E+04 -5.69562E+02 -1.14614E+04 -9.03573E+03 -4.39965E+03 -1.48200E+04  4.67739E+03 -1.18506E+04
  9.46021E+03 -4.67392E+03  6.75861E+03  3.01959E+03  4.05700E+02  4.38405E+03 -5.14218E+03 -4.36347E+02
 -5.19650E+03 -6.94216E+03 -6.55439E+02 -1.07494E+04  5.97562E+03 -1.13898E+04  1.37222E+04 -6.00060E+03
  1.67695E+04  1.36253E+03  1.22697E+04  9.47243E+03  2.40723E+03  1.28695E+04 -7.22989E+03  1.14856E+04
 -9.05755E+03  3.63935E+03 -4.87154E+03 -2.01744E+03  1.46480E+03 -3.02958E+03  6.08524E+03 -1.15412E+03
  5.20986E+03  5.00375E+03  1.14723E+03  8.87093E+03 -6.38752E+03  8.47948E+03 -1.10226E+04  2.09051E+03
 -7.36394E+03 -5.37008E+03  2.07434E+02 -9.50143E+03  5.92827E+03 -4.74470E+03  5.95695E+03  1.83235E+03
  1.15060E+03  6.10959E+03 -5.51765E+03  7.18035E+03 -8.30436E+03  3.67336E+03 -7.68011E+03 -2.42224E+03
 -4.75933E+03 -9.67984E+03  1.93137E+03 -1.16518E+04  9.48588E+03 -6.96253E+03  1.01417E+04  1.68224E+03
  6.53556E+03  8.20058E+03 -4.74477E+02  1.04520E+04 -7.30668E+03  6.05416E+03 -8.04177E+03 -8.66086E+02
 -7.72742E+03 -7.07765E+03 -1.45175E+03 -7.81561E+03  3.62369E+03 -6.54510E+03  4.68264E+03 -2.87721E+03
  3.72841E+03  8.72372E+02 -6.79505E+02  1.08224E+03  3.43694E+02 -1.19632E+03  1.00644E+03 -3.63723E+03
  6.45047E+03 -2.17310E+03  9.09163E+03  1.06901E+03  9.13422E+03  5.87073E+03  7.06187E+03  1.21693E+04
 -2.63098E+03  1.38869E+04 -1.20955E+04  1.05970E+04 -1.53417E+04  1.98729E+03 -1.26167E+04 -4.72176E+03
 -6.40795E+03 -1.03858E+04 -3.76403E+02 -8.29899E+03  3.36348E+03 -4.50041E+03  2.97231E+03 -3.33851E+03
  1.80896E+03 -1.97861E+03  2.99559E+03 -3.19988E+03  4.28365E+03 -2.03906E+03  5.23807E+03 -3.03566E+02
  6.90044E+03  1.67226E+03  2.49420E+03  5.39290E+03 -1.60060E+03  5.67667E+03 -6.64822E+03  4.69430E+03
 -8.41406E+03 -9.73237E+02 -4.66289E+03 -5.84657E+03 -1.99698E+02 -8.79990E+03  5.02412E+03 -8.89255E+03
  8.88624E+03 -5.09833E+03  1.09359E+04  9.85353E+02  7.79244E+03  7.43421E+03  1.38276E+03  9.71716E+03
 -3.97250E+03  8.39927E+03 -5.57851E+03  3.01776E+03 -3.72995E+03 -9.54438E+02 -1.26467E+03 -1.03023E+03
 -5.32159E+02  1.89914E+01 -1.34679E+03  2.07448E+03 -3.44835E+03  1.58879E+03 -5.72908E+03 -7.21717E+02
 -3.32666E+03 -5.92316E+03  9.25477E+02 -7.81460E+03  4.45910E+03 -7.13902E+03  7.13665E+03 -1.89219E+03
  7.50752E+03  3.85733E+03  3.48627E+03  6.38443E+03 -1.36172E+03  7.49068E+03 -5.38129E+03  4.90778E+03
 -7.03435E+03  6.65904E+02 -5.75667E+03 -4.35111E+03 -6.60656E+02 -5.98410E+03  3.05545E+03 -4.62847E+03
  4.81081E+03 -1.98604E+03  3.19339E+03  1.27374E+03  1.25246E+03  2.45644E+03  1.26026E+03  1.22408E+03
  1.84463E+03  1.04477E+03  2.15075E+03  1.07212E+03  2.10332E+03  3.23128E+03  2.32648E+03  3.81643E+03
 -2.02927E+03  5.57306E+03 -4.98653E+03  6.19144E+03 -6.68994E+03  1.84355E+03 -7.40107E+03 -2.16943E+03
 -3.43887E+03 -6.86940E+03  1.32602E+03 -7.82170E+03  3.94651E+03 -4.93590E+03  6.18413E+03 -1.64518E+03
  4.28714E+03  2.67966E+03  1.02269E+03  4.15107E+03 -1.62947E+03  2.55300E+03 -2.38016E+03 -4.19553E+02
 -1.03462E+03 -2.86793E+03  2.22872E+03 -2.99187E+03  2.73638E+03 -1.77176E+03  2.59991E+03  5.26784E+02
  1.44725E+03  1.09197E+03  1.04480E+03  3.43716E+02 -5.76130E+02  1.11437E+03  1.73732E+03 -1.41322E+02
  7.60121E+02 -3.33847E+02  3.00237E+03  1.42388E+03  1.15199E+03  3.99213E+03 -5.97875E+02  4.82116E+03
 -3.36307E+03  2.43148E+03 -4.25654E+03  6.90102E+02 -3.68005E+03 -1.65212E+03 -9.84908E+02 -2.20551E+03
  7.08855E+02 -2.32721E+03  1.50327E+03 -1.22825E+03  1.35613E+03  1.70456E+03 -9.21045E+02  2.07522E+03
 -2.57957E+03  1.27447E+03 -2.86229E+03 -1.87319E+03 -1.20653E+03 -3.90364E+03  2.89846E+02 -3.10219E+03
  1.98068E+03 -1.67517E+03  2.08289E+03  5.02646E+01  1.90705E+03  3.36420E+02  3.59915E+02  2.08790E+03
 -7.72058E+02  5.28586E+02 -1.71515E+03 -7.39143E+02  9.62338E+02 -2.24963E+03  3.27314E+03 -2.28827E+03
  3.20016E+03  2.55540E+02  4.09212E+03  1.79238E+03  1.51794E+03  4.04328E+03 -9.43947E+02  3.57394E+03
 -2.96734E+03  1.20326E+03 -3.14457E+03 -4.22840E+02 -1.76160E+03 -2.57174E+03  6.43321E+02 -1.98123E+03
  2.30304E+03 -1.02092E+03  2.29209E+03  1.18362E+03  5.05869E+02  2.38994E+03 -4.27007E+02  2.08098E+03
 -6.28826E+02  1.72176E+03 -6.42768E+02  7.03221E+02 -2.59026E+02  7.95548E+02 -8.79799E+02  9.05522E+02
 -1.09527E+03  1.85714E+03 -3.04946E+03  9.23486E+02 -3.36054E+03  8.25813E+01 -3.98125E+03 -2.36103E+03
 -2.27237E+03 -4.67478E+03  5.88727E+02 -5.47476E+03  2.78890E+03 -4.46592E+03  5.15450E+03 -1.68080E+03
  4.80205E+03  5.21270E+02  2.67694E+03  3.21494E+03 -5.49688E+02  3.17226E+03 -1.53089E+03  2.44921E+03
 -2.04875E+03  1.46483E+03 -1.10769E+03 -2.85610E+02 -2.96977E+02 -2.19869E+02 -7.03332E+02  6.52849E+01
 -1.46382E+03  7.46684E+01 -9.01540E+02  9.54027E+01 -9.21812E+01 -9.61897E+02 -1.50633E+02 -1.46981E+03
  2.10405E+03 -8.66067E+02  1.41267E+03  1.26360E+02  2.28745E+03  1.92023E+03 -6.02807E+01  2.92843E+03
 -1.49161E+03  4.11996E+03 -3.23667E+03  2.35560E+03 -3.89586E+03 -4.08994E+02 -3.10011E+03 -2.45766E+03
 -1.39432E+03 -3.12876E+03  1.02166E+03 -2.85468E+03  2.07751E+03 -1.37680E+03  1.61758E+03  1.35603E+02
  1.30201E+03  6.04445E+02  2.75264E+02  1.04747E+03 -1.97754E+02  1.69275E+01  2.65895E+01 -7.60550E+02
  1.03162E+03  2.53168E+02  1.04959E+03  6.27091E+02  1.03474E+03  9.17182E+02  3.46851E+02  1.25455E+03
 -1.32752E+03  1.29629E+03 -1.56546E+03  1.12408E+02 -1.71715E+03 -1.27925E+03 -4.45259E+02 -2.37832E+03
  1.25439E+03 -1.70068E+03  1.88782E+03 -3.67988E+02  2.26957E+03  3.70675E+00  1.02555E+03  1.63455E+03
  3.07983E+02  1.72605E+03 -6.83482E+02  1.38307E+03 -1.36193E+03  1.27939E+03 -7.05553E+02  2.11282E+02
 -6.39675E+02 -7.23815E+01 -5.08931E+02  4.07518E+02 -8.50266E+02  4.46848E+02 -1.49323E+03 -5.68413E+02
 -1.36541E+03 -3.98266E+02 -4.34871E+02 -2.07065E+03  9.35838E+02 -2.71692E+03  1.73519E+03 -8.36683E+02
  1.66728E+03 -6.83760E+01  6.36742E+02  1.22150E+03 -5.03372E+02  1.80122E+03 -1.24652E+03  1.46479E+03
