 $NMID ID='MM_0lb_SNR800_12hz_g55_48.RAW', FMTDAT='(8E13.5)'
 TRAMP=1., VOLUME=1. $END
  3.09957E+05  4.30540E+02  3.37796E+05  2.50978E+05  8.48080E+04  3.38107E+05 -1.32706E+05  2.51505E+05
 -1.90597E+05  8.34327E+04 -1.12113E+05 -3.25843E+04  5.64514E+02 -5.04483E+04  5.39413E+04 -2.86912E+02
  3.56168E+04  5.30478E+04 -1.69632E+04  7.55323E+04 -6.14599E+04  6.41494E+04 -8.48356E+04  3.21996E+04
 -8.15878E+04 -1.16092E+04 -5.77429E+04 -5.17905E+04 -1.49751E+04 -7.01781E+04  2.74743E+04 -4.62075E+04
  4.05781E+04  3.78140E+03  1.64501E+04  4.80720E+04 -3.43882E+04  4.77509E+04 -6.75710E+04  1.98638E+02
 -5.45544E+04 -5.76433E+04 -7.28625E+03 -7.82306E+04  3.43838E+04 -5.59241E+04  4.90099E+04 -1.76180E+04
  4.43396E+04  1.13229E+04  3.24510E+04  2.62468E+04  1.59923E+04  3.00899E+04 -5.53920E+03  2.75468E+04
 -2.22746E+04  1.23078E+04 -1.82011E+04 -5.36185E+03  6.35429E+03 -7.39531E+03  2.29807E+04  1.31860E+04
  7.16460E+03  3.65000E+04 -3.26596E+04  3.65039E+04 -6.47236E+04  2.33907E+03 -5.80243E+04 -4.36342E+04
 -1.27219E+04 -6.48404E+04  4.09146E+04 -4.67322E+04  6.00909E+04 -2.50121E+03  3.59118E+04  3.34954E+04
 -5.88670E+03  3.82420E+04 -3.12864E+04  1.75369E+04 -3.21354E+04 -3.80289E+03 -1.83148E+04 -1.13660E+04
 -8.98870E+03 -1.43970E+04 -6.07971E+02 -1.88083E+04  8.14450E+03 -2.33749E+04  1.55642E+04 -1.28123E+04
  1.08119E+04  5.34194E+03 -9.48142E+03  1.30205E+04 -2.24102E+04 -5.68445E+03 -8.33444E+03 -3.56322E+04
  2.41290E+04 -4.54058E+04  5.00710E+04 -2.04847E+04  4.70927E+04  2.02042E+04  1.62056E+04  4.55865E+04
 -1.62795E+04  3.47572E+04 -2.63448E+04  2.11013E+03 -1.08174E+04 -2.87276E+04  2.15100E+04 -3.56379E+04
  4.31975E+04 -1.00193E+04  3.82519E+04  2.46779E+04  2.00766E+04  4.92047E+04 -8.19702E+03  5.33640E+04
 -3.36580E+04  3.60765E+04 -4.49482E+04  1.05657E+04 -4.53292E+04 -1.75738E+04 -2.48383E+04 -4.01786E+04
  7.61847E+03 -4.02648E+04  3.27634E+04 -1.58962E+04  3.08675E+04  1.12253E+04  4.39689E+03  1.97802E+04
 -1.36817E+04  8.97965E+03 -1.06855E+04 -7.87087E+03  5.56729E+03 -1.10574E+04  1.84640E+04  5.72219E+03
  1.43925E+04  2.26213E+04 -5.45227E+03  2.58639E+04 -2.27053E+04  1.29633E+04 -2.99138E+04 -3.92881E+03
 -2.29325E+04 -1.75054E+04 -1.00608E+04 -2.29149E+04  4.77601E+03 -2.29187E+04  1.77245E+04 -2.06457E+04
  2.93321E+04 -1.35452E+04  3.56562E+04  3.88568E+03  2.52847E+04  2.21232E+04  4.55185E+03  3.88850E+04
 -1.88726E+04  3.22659E+04 -2.95307E+04  1.12972E+04 -2.16285E+04 -1.02350E+04 -4.47788E+03 -1.30556E+04
  1.23392E+03 -1.98747E+03 -6.19940E+03  7.51807E+03 -1.86907E+04  4.85263E+03 -1.78645E+04 -8.58938E+03
 -1.10777E+04 -2.12349E+04  5.73810E+03 -2.55302E+04  1.72183E+04 -1.82168E+04  2.02499E+04 -1.61342E+03
  1.28637E+04  1.46628E+04 -1.34554E+03  2.10495E+04 -1.45549E+04  1.16963E+04 -2.16058E+04 -4.35548E+03
 -1.55282E+04 -1.94261E+04 -1.86516E+03 -2.56474E+04  1.14564E+04 -2.07176E+04  2.13309E+04 -1.08607E+04
  2.00555E+04 -1.11465E+02  1.42602E+04  4.90805E+03  7.84970E+03  1.25121E+03  1.08432E+04 -2.21543E+03
  2.04018E+04  3.17634E+03  2.25444E+04  1.69733E+04  1.48878E+04  3.40248E+04 -2.84738E+03  3.89633E+04
 -2.26276E+04  3.22166E+04 -3.68182E+04  1.66091E+04 -3.88846E+04 -2.62730E+03 -3.19933E+04 -2.28054E+04
 -1.31165E+04 -3.23565E+04  1.13188E+04 -2.87946E+04  2.46446E+04 -1.37370E+04  2.15334E+04  6.50344E+03
  7.58179E+03  1.65387E+04 -1.01307E+04  1.37759E+04 -1.81925E+04  2.46716E+03 -1.38763E+04 -1.16650E+04
 -9.49715E+01 -1.72774E+04  8.84521E+03 -1.29794E+04  1.15956E+04 -9.66266E+02  2.99883E+03  7.90749E+03
 -7.34606E+03  3.02315E+03 -7.50711E+03 -6.30190E+03 -1.29890E+03 -1.58380E+04  1.09096E+04 -1.66874E+04
  1.96549E+04 -9.28034E+03  2.17159E+04  3.10479E+03  1.91757E+04  1.56191E+04  8.93025E+03  2.41469E+04
 -4.57589E+03  2.65521E+04 -1.72841E+04  1.65314E+04 -1.91296E+04  3.61098E+03 -1.28854E+04 -4.72028E+03
 -5.76737E+03 -6.22333E+03 -7.22703E+02  4.52790E+02 -2.52237E+03  3.06772E+03 -6.21243E+03  4.88209E+03
 -1.19057E+04 -8.06970E+02 -1.31066E+04 -1.03457E+04 -5.27763E+03 -1.69203E+04  5.31734E+03 -1.33545E+04
  1.12630E+04 -5.80733E+03  7.94884E+03  3.54979E+03  1.85442E+02  5.24939E+03 -6.38428E+03 -4.62291E+02
 -6.31157E+03 -8.57463E+03 -5.92053E+02 -1.30761E+04  7.58631E+03 -1.40581E+04  1.66584E+04 -7.07012E+03
  1.98222E+04  2.00910E+03  1.44805E+04  1.19411E+04  2.63175E+03  1.52671E+04 -8.66058E+03  1.30288E+04
 -1.07524E+04  3.93932E+03 -5.67850E+03 -2.85446E+03  1.59947E+03 -3.82086E+03  7.41121E+03 -5.96559E+02
  6.51960E+03  5.82656E+03  1.10564E+03  1.04731E+04 -7.65301E+03  1.01747E+04 -1.30785E+04  2.37301E+03
 -8.69305E+03 -6.88936E+03  2.19630E+01 -1.12357E+04  6.96092E+03 -5.75256E+03  7.18267E+03  2.45353E+03
  1.58217E+03  7.71594E+03 -6.97983E+03  9.48910E+03 -9.95677E+03  4.50178E+03 -1.11826E+04 -3.72475E+03
 -6.42106E+03 -1.23983E+04  2.85011E+03 -1.46488E+04  1.19624E+04 -8.83302E+03  1.35602E+04  1.92971E+03
  8.05717E+03  1.07160E+04 -1.37153E+03  1.29556E+04 -9.40306E+03  7.38428E+03 -1.03491E+04 -1.10025E+03
 -8.98239E+03 -8.86621E+03 -1.74908E+03 -9.33795E+03  4.63209E+03 -7.92178E+03  5.85163E+03 -3.20761E+03
  3.97240E+03  1.38571E+03 -5.47427E+02  1.77588E+03 -4.39218E+02 -2.20383E+03  1.69660E+03 -5.36056E+03
  8.92446E+03 -3.39538E+03  1.22922E+04  1.31688E+03  1.22880E+04  8.19316E+03  8.41836E+03  1.59503E+04
 -3.56585E+03  1.87300E+04 -1.53935E+04  1.42242E+04 -2.03030E+04  2.47679E+03 -1.60902E+04 -6.65230E+03
 -7.86162E+03 -1.32463E+04 -2.43074E+02 -1.10692E+04  3.94023E+03 -6.37370E+03  3.91340E+03 -4.09967E+03
  2.72296E+03 -2.46454E+03  2.90932E+03 -3.25703E+03  4.72830E+03 -2.73423E+03  6.27134E+03 -7.16054E+02
  8.67149E+03  1.76530E+03  3.87760E+03  7.09902E+03 -2.08477E+03  8.44277E+03 -8.78729E+03  6.09151E+03
 -1.10371E+04 -1.34633E+03 -6.75459E+03 -7.78116E+03 -7.55452E+02 -1.17452E+04  6.83587E+03 -1.21209E+04
  1.23617E+04 -6.49817E+03  1.44673E+04  1.75263E+03  1.01580E+04  1.01317E+04  1.37566E+03  1.31067E+04
 -5.27362E+03  1.13431E+04 -7.65773E+03  3.71289E+03 -5.06956E+03 -1.24600E+03 -2.09365E+03 -1.68240E+03
 -1.00077E+03  6.08279E+01 -1.96341E+03  2.56499E+03 -4.54475E+03  1.62432E+03 -7.78457E+03 -1.08805E+03
 -4.97002E+03 -7.66727E+03  3.69350E+02 -1.05377E+04  6.38584E+03 -1.02719E+04  1.03603E+04 -3.04864E+03
  1.07174E+04  5.19901E+03  4.99305E+03  9.30554E+03 -2.03341E+03  1.07718E+04 -7.61249E+03  6.62706E+03
 -9.87028E+03  3.78566E+02 -8.25183E+03 -6.21423E+03 -6.86766E+02 -8.88804E+03  4.29905E+03 -6.62000E+03
  6.77000E+03 -1.99059E+03  4.68286E+03  2.03280E+03  1.18138E+03  3.60763E+03  1.27074E+03  1.66532E+03
  2.04793E+03  9.41960E+02  2.39955E+03  1.82008E+03  2.70405E+03  4.37801E+03  2.64123E+03  5.49356E+03
 -2.18860E+03  8.35220E+03 -7.39506E+03  8.64070E+03 -1.04739E+04  2.60679E+03 -1.13608E+04 -4.16735E+03
 -5.15474E+03 -1.04493E+04  1.41703E+03 -1.18636E+04  6.36439E+03 -7.40376E+03  8.83413E+03 -2.13550E+03
  6.79404E+03  4.25397E+03  1.31469E+03  6.01179E+03 -2.67647E+03  3.67577E+03 -4.00398E+03 -6.48245E+02
 -1.89030E+03 -4.45592E+03  2.61786E+03 -4.19795E+03  4.02403E+03 -2.23510E+03  3.95926E+03  6.43640E+02
  2.62480E+03  2.01381E+03  1.17761E+03  1.74584E+03 -4.33156E+02  1.36185E+03  1.67265E+03 -6.47705E+02
  1.51863E+03 -1.42150E+02  4.00123E+03  1.73235E+03  2.39568E+03  5.74164E+03 -9.71470E+02  7.06280E+03
 -4.68399E+03  4.27008E+03 -6.51327E+03  1.23128E+03 -6.05919E+03 -2.50469E+03 -2.01342E+03 -3.33737E+03
  4.49898E+02 -3.62287E+03  2.66862E+03 -1.76243E+03  2.34581E+03  2.61045E+03 -1.00716E+03  3.20524E+03
 -4.20775E+03  1.91260E+03 -4.25639E+03 -2.40584E+03 -2.31594E+03 -5.67030E+03  4.72096E+02 -5.23717E+03
  3.08473E+03 -3.02166E+03  4.22840E+03 -3.30387E+02  3.55437E+03  9.88984E+02  6.90727E+02  3.06162E+03
 -2.25008E+03  9.52396E+02 -2.46012E+03 -1.62072E+03  9.99484E+02 -3.79880E+03  4.69620E+03 -3.27482E+03
  5.97094E+03  5.59305E+02  6.40200E+03  4.18960E+03  2.37877E+03  6.50887E+03 -2.59549E+03  6.10481E+03
 -4.89859E+03  2.80951E+03 -5.33125E+03 -8.42833E+02 -3.25246E+03 -3.95722E+03  1.16664E+03 -3.53366E+03
  3.98626E+03 -1.74069E+03  2.91392E+03  1.91521E+03  9.66825E+02  3.59205E+03 -5.78432E+02  3.25616E+03
 -1.87080E+03  2.24392E+03 -1.58642E+03  7.19108E+02 -5.41614E+02  9.43917E+02 -9.89466E+02  1.16001E+03
 -1.60643E+03  2.59439E+03 -4.46649E+03  2.01997E+03 -6.26172E+03  5.04328E+01 -7.21809E+03 -3.95476E+03
 -3.44863E+03 -8.11763E+03  1.48657E+03 -9.60283E+03  5.69405E+03 -7.97558E+03  9.00553E+03 -3.11230E+03
  8.66590E+03  1.63610E+03  5.01812E+03  5.87616E+03  2.98289E+02  5.99852E+03 -3.02528E+03  4.76505E+03
 -3.64350E+03  2.07839E+03 -2.30337E+03 -5.10502E+02 -6.62283E+02 -4.64419E+02 -9.43816E+02 -1.44732E+02
 -1.29255E+03 -1.94630E+02 -1.38022E+03 -6.40135E+01 -7.04347E+02 -1.77661E+03 -1.31436E+02 -2.50240E+03
  3.33293E+03 -2.39178E+03  3.24930E+03  2.34990E+02  4.18391E+03  3.32671E+03  9.17925E+02  6.12837E+03
 -3.05071E+03  7.25524E+03 -6.32916E+03  4.55562E+03 -7.37347E+03 -4.13298E+02 -5.33373E+03 -4.86668E+03
 -2.10956E+03 -6.12535E+03  1.35298E+03 -5.76322E+03  3.73312E+03 -3.27694E+03  3.77204E+03  1.10916E+02
  1.81638E+03  1.91772E+03  2.73827E+02  1.31937E+03 -1.08572E+03  1.30651E+02 -3.99090E+01 -1.35201E+03
  1.93948E+03 -8.08890E+02  2.04112E+03  1.01707E+03  1.72748E+03  1.95681E+03 -9.70902E+01  2.98367E+03
 -2.45822E+03  2.49856E+03 -3.86516E+03  2.25548E+02 -3.69207E+03 -3.08622E+03 -5.78420E+02 -4.46835E+03
  2.87241E+03 -4.00108E+03  4.27144E+03 -1.24563E+03  4.44452E+03  8.00101E+02  2.79251E+03  3.73126E+03
  6.77598E+02  3.32630E+03 -1.47698E+03  3.07902E+03 -2.21388E+03  1.74694E+03 -1.76191E+03  4.76524E+02
 -6.94193E+02 -7.98951E+01 -1.10661E+03  3.49940E+02 -2.02392E+03  5.68365E+02 -2.87794E+03 -6.86121E+02
 -2.82635E+03 -1.61970E+03 -9.09665E+02 -3.75883E+03  2.18204E+03 -4.15282E+03  2.95476E+03 -1.95892E+03
  3.91052E+03  6.03638E+02  1.90156E+03  2.95721E+03 -4.48431E+02  3.81395E+03 -2.36879E+03  2.47582E+03
