 $NMID ID='MM_0lb_SNR800_11hz_g60_82.RAW', FMTDAT='(8E13.5)'
 TRAMP=1., VOLUME=1. $END
  3.09937E+05  7.56451E+02  3.38049E+05  2.50659E+05  8.46062E+04  3.38641E+05 -1.32469E+05  2.51975E+05
 -1.91211E+05  8.38114E+04 -1.12253E+05 -3.26224E+04  5.79107E+02 -5.11117E+04  5.36005E+04 -4.30604E+02
  3.56473E+04  5.27703E+04 -1.66752E+04  7.63909E+04 -6.12555E+04  6.42848E+04 -8.51589E+04  3.23074E+04
 -8.22294E+04 -1.16428E+04 -5.80034E+04 -5.24304E+04 -1.54665E+04 -7.07086E+04  2.83212E+04 -4.67901E+04
  4.10007E+04  3.69929E+03  1.67372E+04  4.84146E+04 -3.48868E+04  4.82157E+04 -6.82589E+04  3.93745E+01
 -5.48644E+04 -5.78687E+04 -7.26291E+03 -7.87902E+04  3.50158E+04 -5.68092E+04  4.93515E+04 -1.82060E+04
  4.52936E+04  1.16926E+04  3.31034E+04  2.65900E+04  1.60689E+04  3.06049E+04 -5.73546E+03  2.74716E+04
 -2.22202E+04  1.25683E+04 -1.81885E+04 -5.91429E+03  7.03981E+03 -7.31408E+03  2.31967E+04  1.35527E+04
  6.73738E+03  3.72513E+04 -3.40080E+04  3.69726E+04 -6.57972E+04  2.01109E+03 -5.83763E+04 -4.38687E+04
 -1.28295E+04 -6.53291E+04  4.10626E+04 -4.75140E+04  6.09835E+04 -2.37189E+03  3.64685E+04  3.42329E+04
 -5.51865E+03  3.89146E+04 -3.18958E+04  1.84169E+04 -3.34757E+04 -3.73557E+03 -1.87938E+04 -1.18246E+04
 -9.36022E+03 -1.47535E+04 -1.03672E+02 -1.94632E+04  8.35417E+03 -2.34030E+04  1.61465E+04 -1.29463E+04
  1.08458E+04  6.05368E+03 -1.01505E+04  1.32361E+04 -2.32895E+04 -6.29704E+03 -8.54541E+03 -3.69615E+04
  2.45144E+04 -4.66511E+04  5.12981E+04 -2.08386E+04  4.81465E+04  2.07223E+04  1.71467E+04  4.73423E+04
 -1.68278E+04  3.56597E+04 -2.73678E+04  2.42446E+03 -1.12949E+04 -2.92955E+04  2.12386E+04 -3.67483E+04
  4.41053E+04 -1.06675E+04  3.96615E+04  2.49423E+04  2.09928E+04  5.04302E+04 -8.40014E+03  5.51167E+04
 -3.50170E+04  3.80727E+04 -4.63478E+04  1.10328E+04 -4.71225E+04 -1.85305E+04 -2.58499E+04 -4.16430E+04
  7.64123E+03 -4.16327E+04  3.37916E+04 -1.72139E+04  3.14806E+04  1.11406E+04  5.29859E+03  2.05637E+04
 -1.38816E+04  9.52615E+03 -1.09750E+04 -7.79048E+03  5.80693E+03 -1.15304E+04  1.87383E+04  5.97380E+03
  1.45936E+04  2.24436E+04 -5.26393E+03  2.69514E+04 -2.33519E+04  1.35412E+04 -3.13527E+04 -3.38128E+03
 -2.46271E+04 -1.85755E+04 -1.12136E+04 -2.46718E+04  4.18901E+03 -2.46973E+04  1.92106E+04 -2.23667E+04
  3.12794E+04 -1.40945E+04  3.71358E+04  4.38724E+03  2.66079E+04  2.37419E+04  4.30939E+03  4.09716E+04
 -1.94576E+04  3.30322E+04 -2.99065E+04  1.16687E+04 -2.23293E+04 -1.00441E+04 -5.13045E+03 -1.30060E+04
  7.82730E+02 -1.37660E+03 -7.05039E+03  7.99930E+03 -1.96458E+04  5.09228E+03 -1.93720E+04 -9.01965E+03
 -1.17500E+04 -2.27160E+04  6.32238E+03 -2.69371E+04  1.84146E+04 -1.94252E+04  2.18012E+04 -1.70806E+03
  1.40023E+04  1.55172E+04 -1.22079E+03  2.23983E+04 -1.60111E+04  1.32888E+04 -2.28911E+04 -4.56516E+03
 -1.65322E+04 -2.02752E+04 -2.25923E+03 -2.70771E+04  1.19637E+04 -2.26550E+04  2.23412E+04 -1.14767E+04
  2.15917E+04 -2.72981E+02  1.51652E+04  5.14582E+03  8.62452E+03  1.59383E+03  1.15836E+04 -2.13407E+03
  2.12686E+04  2.63589E+03  2.47501E+04  1.79486E+04  1.63118E+04  3.59819E+04 -3.05620E+03  4.23339E+04
 -2.43334E+04  3.51806E+04 -3.99191E+04  1.81596E+04 -4.23209E+04 -3.11132E+03 -3.44032E+04 -2.46742E+04
 -1.36976E+04 -3.54128E+04  1.24295E+04 -3.08337E+04  2.62883E+04 -1.46548E+04  2.32201E+04  7.56248E+03
  7.96715E+03  1.79217E+04 -1.11403E+04  1.51509E+04 -1.92453E+04  2.54969E+03 -1.42170E+04 -1.23331E+04
  1.11857E+02 -1.86764E+04  1.02025E+04 -1.40523E+04  1.27171E+04 -1.35218E+03  3.04874E+03  8.57629E+03
 -8.43672E+03  4.01542E+03 -8.52215E+03 -7.05260E+03 -1.31074E+03 -1.71117E+04  1.14465E+04 -1.85511E+04
  2.18086E+04 -1.02191E+04  2.44908E+04  3.29484E+03  2.19967E+04  1.72148E+04  9.70978E+03  2.73740E+04
 -5.14977E+03  2.91250E+04 -1.91148E+04  1.82657E+04 -2.12231E+04  3.45054E+03 -1.44078E+04 -5.38844E+03
 -6.04473E+03 -6.74707E+03 -8.48412E+02  4.05467E+02 -2.80092E+03  3.11511E+03 -6.50715E+03  5.19332E+03
 -1.35932E+04 -8.00592E+02 -1.41867E+04 -1.12452E+04 -5.77524E+03 -1.83161E+04  6.41574E+03 -1.48150E+04
  1.21197E+04 -6.27808E+03  8.45269E+03  4.26132E+03 -2.71178E+02  5.75253E+03 -7.34583E+03 -5.96592E+02
 -6.72738E+03 -9.70183E+03 -1.14442E+03 -1.44155E+04  8.43848E+03 -1.53606E+04  1.85320E+04 -8.21552E+03
  2.20117E+04  2.26285E+03  1.61682E+04  1.30309E+04  2.83618E+03  1.75711E+04 -8.85302E+03  1.43346E+04
 -1.15110E+04  3.84252E+03 -6.00473E+03 -2.81437E+03  1.97741E+03 -4.08527E+03  8.16132E+03 -1.20977E+03
  7.14436E+03  6.74910E+03  1.11339E+03  1.18306E+04 -8.53815E+03  1.12600E+04 -1.48432E+04  2.75138E+03
 -1.02853E+04 -7.45161E+03  2.60647E+02 -1.25378E+04  8.32233E+03 -6.56989E+03  8.46057E+03  3.08182E+03
  2.50026E+03  9.03061E+03 -7.64451E+03  1.06472E+04 -1.21759E+04  4.77297E+03 -1.25561E+04 -4.40476E+03
 -7.29320E+03 -1.42913E+04  3.41432E+03 -1.64204E+04  1.43229E+04 -9.86947E+03  1.54761E+04  2.90933E+03
  8.83402E+03  1.20132E+04 -9.60614E+02  1.46304E+04 -1.09111E+04  8.15474E+03 -1.13993E+04 -5.70996E+02
 -9.97048E+03 -9.44631E+03 -1.56446E+03 -1.07855E+04  5.69255E+03 -8.78249E+03  6.99961E+03 -3.88361E+03
  4.73615E+03  2.46580E+03 -1.09510E+03  2.14367E+03 -4.78287E+02 -2.86285E+03  2.29870E+03 -6.66885E+03
  1.05209E+04 -4.27464E+03  1.39029E+04  1.44738E+03  1.36387E+04  9.78402E+03  9.19615E+03  1.83899E+04
 -4.46643E+03  2.15410E+04 -1.75686E+04  1.55812E+04 -2.30525E+04  2.89682E+03 -1.84897E+04 -7.63604E+03
 -9.50027E+03 -1.51563E+04 -1.43909E+02 -1.30497E+04  4.94111E+03 -7.30323E+03  4.57389E+03 -4.40749E+03
  3.32579E+03 -2.80471E+03  3.66004E+03 -3.89252E+03  5.55742E+03 -3.24707E+03  7.23811E+03 -9.30854E+02
  9.61807E+03  2.17209E+03  4.54515E+03  8.69793E+03 -2.09758E+03  9.45622E+03 -9.67203E+03  7.57375E+03
 -1.27895E+04 -1.37152E+03 -7.81557E+03 -8.76876E+03 -9.52158E+02 -1.33178E+04  7.81835E+03 -1.37816E+04
  1.41976E+04 -7.70643E+03  1.73311E+04  2.52699E+03  1.16570E+04  1.17959E+04  1.92252E+03  1.54002E+04
 -6.34528E+03  1.27658E+04 -8.88901E+03  3.88118E+03 -6.08112E+03 -1.86885E+03 -2.28910E+03 -1.89883E+03
 -1.12769E+03 -1.50059E+02 -2.39308E+03  2.30805E+03 -5.24132E+03  2.34508E+03 -9.11754E+03 -1.26622E+03
 -6.01888E+03 -9.08080E+03  2.60875E+02 -1.31552E+04  7.67180E+03 -1.17940E+04  1.20319E+04 -3.60397E+03
  1.25909E+04  5.88356E+03  5.63359E+03  1.10030E+04 -2.38372E+03  1.25936E+04 -9.24700E+03  7.95341E+03
 -1.17857E+04  6.16267E+02 -9.17795E+03 -7.51995E+03 -1.31969E+03 -1.06244E+04  5.59729E+03 -8.00208E+03
  8.11962E+03 -2.77557E+03  5.60962E+03  1.99167E+03  2.13707E+03  3.82591E+03  8.70061E+02  1.66956E+03
  2.51117E+03  1.06004E+03  3.16610E+03  1.96978E+03  3.81335E+03  4.50170E+03  3.07660E+03  6.41914E+03
 -2.46561E+03  9.60105E+03 -9.08216E+03  1.02460E+04 -1.26920E+04  2.61449E+03 -1.33409E+04 -4.98754E+03
 -6.11870E+03 -1.23508E+04  1.67508E+03 -1.40451E+04  7.70559E+03 -8.61467E+03  1.03613E+04 -2.52349E+03
  7.90148E+03  5.03810E+03  2.00513E+03  7.12989E+03 -3.23093E+03  4.03570E+03 -5.06042E+03 -8.92997E+02
 -2.51142E+03 -5.09444E+03  2.95583E+03 -5.77729E+03  4.98321E+03 -2.43410E+03  4.94932E+03  6.97787E+02
  2.95515E+03  2.62739E+03  1.55859E+03  1.65376E+03 -6.02593E+02  1.57070E+03  1.66218E+03 -4.66906E+02
  1.70438E+03 -1.01391E+03  5.08390E+03  2.11077E+03  2.68269E+03  6.94183E+03 -1.31852E+03  8.95677E+03
 -5.78615E+03  5.56797E+03 -8.08961E+03  1.42397E+03 -6.86690E+03 -2.48914E+03 -2.72008E+03 -4.83074E+03
  8.64192E+02 -5.05173E+03  3.22727E+03 -1.82896E+03  2.67521E+03  2.49948E+03 -1.51874E+03  4.28979E+03
 -5.04146E+03  2.49326E+03 -5.55637E+03 -3.12763E+03 -3.36204E+03 -6.66647E+03  1.12244E+03 -6.70069E+03
  4.09699E+03 -3.93545E+03  4.99277E+03 -5.38851E+02  4.33073E+03  1.44524E+03  5.70993E+02  3.77170E+03
 -2.33673E+03  8.27802E+02 -2.80246E+03 -2.29989E+03  8.82347E+02 -4.88890E+03  6.08187E+03 -4.38358E+03
  7.17393E+03  4.61793E+02  7.62141E+03  4.76222E+03  2.52371E+03  7.97456E+03 -2.51606E+03  7.65193E+03
 -6.47603E+03  3.54163E+03 -6.48209E+03 -9.18766E+02 -3.66725E+03 -5.02186E+03  1.69139E+03 -4.51920E+03
  4.76761E+03 -2.34955E+03  4.20557E+03  2.20641E+03  1.62363E+03  4.33255E+03 -4.52692E+02  3.71844E+03
 -1.61423E+03  2.62583E+03 -2.15714E+03  9.11256E+02 -9.37167E+02  1.00279E+03 -1.29679E+03  1.39187E+03
 -1.93629E+03  2.87235E+03 -5.36430E+03  3.14468E+03 -7.24675E+03  4.64492E+02 -8.96510E+03 -5.04752E+03
 -4.61570E+03 -9.91738E+03  2.02241E+03 -1.20785E+04  7.11599E+03 -9.24152E+03  1.15215E+04 -3.74269E+03
  1.05625E+04  2.16387E+03  6.46576E+03  7.27753E+03  2.54222E+02  7.86860E+03 -3.01126E+03  5.84711E+03
 -4.50728E+03  2.00851E+03 -2.65309E+03 -1.18901E+03 -1.07909E+03 -8.56134E+02 -8.84708E+02  1.33496E+02
 -1.68376E+03  3.88439E+02 -1.95879E+03 -6.77933E+01 -1.60394E+02 -2.04085E+03  3.51916E+02 -2.94193E+03
  3.81354E+03 -2.39161E+03  4.95287E+03  7.90245E+01  5.39006E+03  4.23344E+03  1.33840E+03  7.75873E+03
 -3.76431E+03  9.03478E+03 -8.62168E+03  4.85297E+03 -9.40453E+03 -7.77601E+02 -7.05823E+03 -5.57509E+03
 -3.15079E+03 -8.23273E+03  1.82858E+03 -6.99431E+03  5.19457E+03 -3.40923E+03  5.18946E+03  1.59100E+02
  2.66803E+03  2.59003E+03 -2.46205E+02  2.20069E+03 -1.33104E+03 -4.77581E+02  2.58145E+02 -1.47130E+03
  2.16259E+03 -7.06593E+02  3.15696E+03  1.16294E+03  2.05005E+03  2.87213E+03  1.00946E+02  3.51959E+03
 -3.26380E+03  3.36963E+03 -4.97091E+03  2.06135E+02 -4.36294E+03 -3.62435E+03 -8.07245E+02 -6.05169E+03
  3.84680E+03 -4.97883E+03  5.86427E+03 -1.56544E+03  5.61316E+03  1.13802E+03  3.21347E+03  4.86211E+03
  7.74461E+02  4.96218E+03 -1.95610E+03  3.98752E+03 -3.04405E+03  2.40319E+03 -2.52991E+03  7.65689E+02
 -1.47284E+03 -5.89393E+02 -1.36257E+03  2.81881E+02 -2.64620E+03  6.70686E+02 -4.03119E+03 -8.87630E+02
 -3.88661E+03 -2.40034E+03 -1.02079E+03 -5.02786E+03  2.48922E+03 -5.52945E+03  4.32288E+03 -2.50731E+03
  4.85099E+03  6.18714E+02  2.31657E+03  3.43236E+03 -2.99808E+02  4.92119E+03 -3.72922E+03  3.24657E+03
