 $NMID ID='MM_0lb_SNR800_14hz_g40_10.RAW', FMTDAT='(8E13.5)'
 TRAMP=1., VOLUME=1. $END
  3.10110E+05  4.98090E+02  3.37412E+05  2.50801E+05  8.46833E+04  3.37638E+05 -1.32397E+05  2.50746E+05
 -1.90331E+05  8.28472E+04 -1.11564E+05 -3.30522E+04  1.09657E+03 -5.00096E+04  5.39389E+04 -1.05401E+02
  3.56125E+04  5.31919E+04 -1.68053E+04  7.54401E+04 -6.06113E+04  6.30224E+04 -8.38538E+04  3.20861E+04
 -8.05315E+04 -1.10428E+04 -5.68947E+04 -5.09966E+04 -1.49718E+04 -6.91841E+04  2.72928E+04 -4.56401E+04
  3.97603E+04  3.64772E+03  1.60800E+04  4.77868E+04 -3.44824E+04  4.70998E+04 -6.63117E+04 -2.97902E+02
 -5.28851E+04 -5.67344E+04 -6.58969E+03 -7.65630E+04  3.37421E+04 -5.43815E+04  4.73498E+04 -1.70997E+04
  4.30390E+04  1.11449E+04  3.17322E+04  2.49413E+04  1.60284E+04  2.88217E+04 -4.96291E+03  2.70341E+04
 -2.21854E+04  1.22097E+04 -1.86163E+04 -4.69957E+03  5.45211E+03 -7.56094E+03  2.18854E+04  1.20900E+04
  7.37813E+03  3.45013E+04 -3.16588E+04  3.49515E+04 -6.26551E+04  1.99214E+03 -5.64641E+04 -4.26011E+04
 -1.25163E+04 -6.24943E+04  3.97955E+04 -4.46838E+04  5.75984E+04 -2.21029E+03  3.34766E+04  3.19521E+04
 -6.03955E+03  3.52642E+04 -2.96191E+04  1.51076E+04 -2.95323E+04 -5.19218E+03 -1.61301E+04 -1.06712E+04
 -8.00311E+03 -1.28535E+04 -5.00932E+02 -1.76190E+04  7.24405E+03 -2.28588E+04  1.51173E+04 -1.32581E+04
  1.17443E+04  4.73790E+03 -7.75846E+03  1.31237E+04 -2.06324E+04 -3.82955E+03 -8.06971E+03 -3.29882E+04
  2.23957E+04 -4.26629E+04  4.71585E+04 -1.89968E+04  4.42452E+04  1.90731E+04  1.52128E+04  4.36022E+04
 -1.58541E+04  3.29216E+04 -2.49611E+04  1.61212E+03 -9.45423E+03 -2.74470E+04  2.09385E+04 -3.30693E+04
  4.02465E+04 -8.71999E+03  3.45434E+04  2.35235E+04  1.70243E+04  4.56202E+04 -8.01333E+03  4.88301E+04
 -3.09247E+04  3.24924E+04 -4.07595E+04  9.21008E+03 -4.18561E+04 -1.62166E+04 -2.32218E+04 -3.72641E+04
  7.18972E+03 -3.68859E+04  3.10759E+04 -1.44662E+04  2.86743E+04  1.06742E+04  3.93944E+03  1.90173E+04
 -1.32417E+04  8.17601E+03 -1.03886E+04 -7.36529E+03  6.00274E+03 -1.03471E+04  1.79813E+04  5.97726E+03
  1.35177E+04  2.18546E+04 -6.40683E+03  2.48378E+04 -2.21386E+04  1.10806E+04 -2.75567E+04 -4.82404E+03
 -1.98857E+04 -1.70566E+04 -7.75451E+03 -1.97111E+04  3.87505E+03 -1.88017E+04  1.49126E+04 -1.71096E+04
  2.52580E+04 -1.23581E+04  3.17325E+04  2.54487E+03  2.35131E+04  1.90503E+04  3.93134E+03  3.53510E+04
 -1.75585E+04  2.98407E+04 -2.74149E+04  1.02388E+04 -2.07790E+04 -1.03674E+04 -4.02840E+03 -1.32991E+04
  1.99044E+03 -2.97176E+03 -4.31221E+03  6.33360E+03 -1.52714E+04  5.25825E+03 -1.55913E+04 -6.61978E+03
 -9.71423E+03 -1.83137E+04  4.94147E+03 -2.19039E+04  1.49830E+04 -1.59592E+04  1.73189E+04 -1.68962E+03
  1.06892E+04  1.26504E+04 -5.56693E+02  1.79291E+04 -1.26737E+04  1.05249E+04 -1.82244E+04 -3.86497E+03
 -1.36247E+04 -1.63265E+04 -1.78468E+03 -2.23909E+04  1.02067E+04 -1.77544E+04  1.84896E+04 -8.73851E+03
  1.72052E+04  3.99352E+02  1.23031E+04  4.43822E+03  6.14117E+03  1.13726E+03  9.34801E+03 -1.55434E+03
  1.67877E+04  2.68024E+03  1.82455E+04  1.46231E+04  1.17655E+04  2.90854E+04 -3.07689E+03  3.26228E+04
 -1.89226E+04  2.56454E+04 -3.03970E+04  1.29420E+04 -3.17454E+04 -2.43487E+03 -2.64132E+04 -1.83756E+04
 -1.13551E+04 -2.58378E+04  9.14020E+03 -2.34946E+04  2.05426E+04 -1.27273E+04  1.83226E+04  5.15418E+03
  6.82611E+03  1.39205E+04 -8.67738E+03  1.23668E+04 -1.56077E+04  2.46796E+03 -1.22181E+04 -9.82884E+03
 -8.49883E+01 -1.49147E+04  7.34978E+03 -1.10984E+04  9.64195E+03 -1.46018E+03  2.13448E+03  6.02596E+03
 -6.78026E+03  2.32163E+03 -5.60201E+03 -5.47195E+03 -3.27793E+02 -1.27742E+04  9.29247E+03 -1.32472E+04
  1.56638E+04 -6.50157E+03  1.67773E+04  2.86705E+03  1.47642E+04  1.25322E+04  6.81725E+03  1.90468E+04
 -2.88630E+03  2.10381E+04 -1.32069E+04  1.34007E+04 -1.50398E+04  3.57195E+03 -1.06522E+04 -3.43446E+03
 -5.10043E+03 -4.42208E+03 -7.72513E+02  1.28967E+03 -2.20773E+03  2.57278E+03 -4.90755E+03  4.07729E+03
 -1.02581E+04 -8.19727E+02 -1.05418E+04 -8.97323E+03 -4.32279E+03 -1.41787E+04  4.28175E+03 -1.10288E+04
  8.93876E+03 -4.65178E+03  6.52461E+03  3.03756E+03  2.12997E+02  3.79386E+03 -4.91731E+03  1.41890E+02
 -4.82508E+03 -6.82448E+03 -1.26486E+03 -9.95200E+03  5.60857E+03 -1.07071E+04  1.30739E+04 -5.38637E+03
  1.57107E+04  1.32318E+03  1.13911E+04  8.91981E+03  2.40984E+03  1.20450E+04 -6.65181E+03  1.04757E+04
 -8.69062E+03  3.50343E+03 -4.73128E+03 -1.72981E+03  1.69242E+03 -2.79223E+03  5.63871E+03 -1.13799E+03
  5.39149E+03  4.64800E+03  9.94344E+02  8.59239E+03 -5.80175E+03  8.01605E+03 -1.06873E+04  2.28523E+03
 -6.80827E+03 -4.98497E+03  3.36389E+02 -8.81317E+03  5.32740E+03 -4.60805E+03  5.53032E+03  1.52982E+03
  1.02081E+03  5.36817E+03 -5.77124E+03  7.17912E+03 -7.58720E+03  3.32189E+03 -7.63750E+03 -2.44833E+03
 -4.78156E+03 -9.18384E+03  2.32145E+03 -1.08346E+04  9.01348E+03 -6.75204E+03  1.01242E+04  1.55900E+03
  6.46929E+03  7.91976E+03 -3.26246E+02  9.92640E+03 -7.32216E+03  5.79436E+03 -7.64076E+03 -6.86151E+02
 -7.42336E+03 -6.86770E+03 -1.54409E+03 -7.50081E+03  3.78944E+03 -5.95508E+03  4.32202E+03 -3.19801E+03
  3.31868E+03  8.67307E+02 -3.01212E+02  1.65053E+03  3.26823E+02 -1.30739E+03  1.12419E+03 -3.70462E+03
  6.42498E+03 -2.05057E+03  8.98291E+03  9.05885E+02  8.56549E+03  5.66490E+03  7.01225E+03  1.17852E+04
 -2.08932E+03  1.37335E+04 -1.18224E+04  9.94229E+03 -1.51092E+04  2.02881E+03 -1.19690E+04 -4.59987E+03
 -6.11726E+03 -9.59506E+03 -3.80910E+02 -8.19638E+03  3.22859E+03 -3.71840E+03  2.83603E+03 -3.19096E+03
  2.08795E+03 -2.05115E+03  2.21045E+03 -2.89810E+03  4.14663E+03 -1.88490E+03  5.12850E+03 -5.89772E+02
  6.07170E+03  1.74925E+03  2.73652E+03  5.44255E+03 -1.88303E+03  5.47327E+03 -6.46571E+03  4.66967E+03
 -8.18044E+03 -1.09373E+03 -4.26224E+03 -5.64580E+03 -3.16939E+02 -8.29577E+03  4.68054E+03 -8.65159E+03
  8.44975E+03 -5.09174E+03  1.06150E+04  6.84161E+02  7.57169E+03  7.34949E+03  1.44405E+03  9.63094E+03
 -3.62293E+03  8.31471E+03 -5.39474E+03  2.99396E+03 -3.47712E+03 -1.18891E+03 -1.45164E+03 -1.09644E+03
 -3.86088E+02  1.73874E+02 -1.29090E+03  2.24719E+03 -3.81886E+03  1.54206E+03 -5.95451E+03 -5.80272E+02
 -3.26819E+03 -5.64458E+03  4.88414E+02 -7.98718E+03  4.94474E+03 -7.00816E+03  7.09820E+03 -1.93803E+03
  7.27143E+03  4.12561E+03  3.38214E+03  6.49228E+03 -1.46151E+03  7.58823E+03 -4.98683E+03  4.70599E+03
 -6.85917E+03  3.43939E+02 -5.63756E+03 -4.38025E+03 -3.11897E+02 -5.90022E+03  2.87390E+03 -4.36479E+03
  4.74242E+03 -1.88988E+03  3.22606E+03  1.19850E+03  1.14201E+03  2.02199E+03  9.40916E+02  7.54392E+02
  1.89811E+03  6.75557E+02  1.92519E+03  1.32023E+03  2.03538E+03  2.88580E+03  2.30002E+03  3.42531E+03
 -1.88760E+03  5.57688E+03 -4.72143E+03  6.51922E+03 -7.10487E+03  2.08485E+03 -7.52436E+03 -2.34135E+03
 -3.61296E+03 -6.95858E+03  1.11432E+03 -8.17155E+03  3.83538E+03 -4.93571E+03  5.62112E+03 -1.48476E+03
  4.53822E+03  2.65563E+03  9.26630E+02  3.95712E+03 -1.99965E+03  2.88949E+03 -2.60100E+03 -1.25457E+02
 -1.42839E+03 -2.83158E+03  1.85424E+03 -2.57049E+03  2.74096E+03 -1.57228E+03  2.87911E+03  7.21882E+02
  1.62614E+03  1.10618E+03  1.11573E+03  6.39308E+02 -4.92203E+02  1.18077E+03  1.58488E+03 -3.13177E+02
  6.83691E+02 -3.85696E+02  3.08821E+03  9.39803E+02  1.24236E+03  4.07311E+03 -8.20246E+02  5.00112E+03
 -3.15787E+03  2.87409E+03 -4.31545E+03  7.95508E+02 -3.68332E+03 -1.41965E+03 -1.01608E+03 -2.24452E+03
  8.97822E+02 -2.53229E+03  2.07823E+03 -1.31045E+03  1.36610E+03  1.49691E+03 -7.24239E+02  2.24401E+03
 -2.91722E+03  1.42341E+03 -3.00276E+03 -1.95608E+03 -1.59677E+03 -4.13722E+03 -3.65515E+01 -3.61545E+03
  1.50630E+03 -1.72480E+03  2.14211E+03 -3.64746E+01  2.27458E+03  7.28697E+02  7.47983E+02  2.24783E+03
 -1.29676E+03  5.70696E+02 -2.08944E+03 -1.02076E+03  9.74989E+02 -2.38216E+03  3.18510E+03 -2.09753E+03
  3.44282E+03  6.94210E+02  4.62785E+03  2.23827E+03  1.45931E+03  3.76227E+03 -1.34856E+03  3.99626E+03
 -3.69460E+03  1.09109E+03 -3.17323E+03 -5.63527E+02 -1.84625E+03 -2.80107E+03  7.24850E+02 -1.98313E+03
  2.69124E+03 -1.02632E+03  1.90392E+03  1.55988E+03  4.88631E+02  2.71141E+03 -2.30239E+01  2.51743E+03
 -1.04893E+03  1.43897E+03 -7.80666E+02  5.97265E+02 -1.44712E+02  3.30460E+02 -7.55363E+02  9.13565E+02
 -1.07092E+03  1.65023E+03 -3.14683E+03  1.07541E+03 -3.95861E+03  1.00867E+02 -5.02951E+03 -2.56727E+03
 -2.29950E+03 -5.21726E+03  1.28861E+03 -6.47313E+03  3.42701E+03 -4.76661E+03  6.11627E+03 -1.92936E+03
  5.50640E+03  5.70552E+02  3.22366E+03  3.47957E+03 -2.39873E+02  3.47986E+03 -1.74903E+03  3.15420E+03
 -2.15828E+03  1.52735E+03 -1.36601E+03 -4.99902E+02 -5.11429E+02 -8.05124E+01 -6.35855E+02 -3.28965E+01
 -1.51116E+03  5.89102E+01 -1.29542E+03  2.67019E+02 -1.64477E+01 -1.17669E+03 -2.77969E+02 -1.63120E+03
  1.98931E+03 -1.41170E+03  1.84284E+03  5.91630E+00  2.59887E+03  2.15104E+03  5.87980E+02  3.42942E+03
 -2.01090E+03  4.55392E+03 -3.84520E+03  2.61716E+03 -4.67720E+03 -3.93336E+02 -3.33580E+03 -3.06434E+03
 -1.55616E+03 -3.69925E+03  7.91571E+02 -3.21532E+03  1.91286E+03 -1.80357E+03  2.08761E+03  4.03013E+02
  1.42210E+03  9.90661E+02  1.00985E+00  1.08691E+03 -4.35680E+02 -1.10316E+02  3.12839E+02 -7.96080E+02
  1.17480E+03 -1.42532E+02  1.41147E+03  5.67285E+02  6.81354E+02  1.68697E+03  8.91741E+01  1.44971E+03
 -1.69925E+03  1.37466E+03 -2.51231E+03  4.44216E+02 -2.10150E+03 -1.39264E+03 -1.55509E+02 -3.08915E+03
  1.49459E+03 -2.12156E+03  2.40238E+03 -4.23671E+02  2.84811E+03  5.06854E+01  1.62943E+03  2.06162E+03
  1.66961E+02  2.09905E+03 -9.45194E+02  2.02308E+03 -1.55757E+03  9.95241E+02 -1.30038E+03  2.95102E+02
 -4.36760E+02 -2.41815E+02 -6.74907E+02  6.42974E+02 -1.71128E+03  5.38878E+02 -1.99889E+03 -3.99811E+02
 -2.05298E+03 -6.21178E+02 -6.28992E+02 -2.52518E+03  1.31956E+03 -2.63694E+03  1.98747E+03 -1.06617E+03
  2.25347E+03  3.63494E+02  8.07069E+02  1.14018E+03 -2.55413E+02  2.36512E+03 -1.53605E+03  1.42945E+03
