 $NMID ID='MM_0lb_SNR800_18hz_g40_3.RAW', FMTDAT='(8E13.5)'
 TRAMP=1., VOLUME=1. $END
  3.09495E+05  3.18468E+02  3.37245E+05  2.50372E+05  8.41227E+04  3.37066E+05 -1.32303E+05  2.49940E+05
 -1.89523E+05  8.23781E+04 -1.10483E+05 -3.27966E+04  1.42879E+03 -5.01179E+04  5.40898E+04  2.40731E+02
  3.51109E+04  5.28855E+04 -1.68912E+04  7.47058E+04 -6.00574E+04  6.24647E+04 -8.31461E+04  3.14219E+04
 -7.94025E+04 -1.08290E+04 -5.59183E+04 -4.99851E+04 -1.50778E+04 -6.82878E+04  2.70561E+04 -4.45013E+04
  3.90746E+04  3.88066E+03  1.53223E+04  4.70318E+04 -3.40248E+04  4.60468E+04 -6.52514E+04 -5.41672E+02
 -5.18097E+04 -5.59974E+04 -6.01867E+03 -7.46436E+04  3.30727E+04 -5.29450E+04  4.59154E+04 -1.61004E+04
  4.13346E+04  1.10137E+04  3.06220E+04  2.44485E+04  1.57977E+04  2.80831E+04 -4.76714E+03  2.66981E+04
 -2.17766E+04  1.27697E+04 -1.91888E+04 -4.12604E+03  4.33152E+03 -7.59323E+03  2.10214E+04  1.06449E+04
  7.56027E+03  3.29726E+04 -3.00565E+04  3.39071E+04 -6.09535E+04  2.28958E+03 -5.53228E+04 -4.08155E+04
 -1.22972E+04 -6.05986E+04  3.77784E+04 -4.31362E+04  5.50191E+04 -1.98027E+03  3.17269E+04  3.02143E+04
 -6.79937E+03  3.26390E+04 -2.80893E+04  1.31335E+04 -2.71837E+04 -5.72414E+03 -1.39184E+04 -9.82861E+03
 -7.27721E+03 -1.12671E+04 -9.16366E+02 -1.65349E+04  6.40061E+03 -2.23478E+04  1.47667E+04 -1.39825E+04
  1.23859E+04  4.01199E+03 -6.36662E+03  1.29482E+04 -1.90463E+04 -2.43457E+03 -7.78814E+03 -3.01171E+04
  2.09419E+04 -4.04774E+04  4.43585E+04 -1.83689E+04  4.18245E+04  1.83892E+04  1.41409E+04  4.14770E+04
 -1.54447E+04  3.07922E+04 -2.30982E+04  7.46975E+02 -8.08020E+03 -2.62763E+04  2.04798E+04 -3.10231E+04
  3.79103E+04 -6.99944E+03  3.10034E+04  2.28057E+04  1.49211E+04  4.23045E+04 -7.79547E+03  4.45555E+04
 -2.82753E+04  2.96707E+04 -3.69483E+04  8.40175E+03 -3.80457E+04 -1.50570E+04 -2.10473E+04 -3.40554E+04
  6.73701E+03 -3.37374E+04  2.91093E+04 -1.23049E+04  2.67456E+04  1.08548E+04  2.89467E+03  1.76289E+04
 -1.30398E+04  7.26201E+03 -9.63248E+03 -7.67177E+03  6.19132E+03 -1.01521E+04  1.75177E+04  6.53497E+03
  1.24147E+04  2.15903E+04 -6.80851E+03  2.33653E+04 -2.13091E+04  8.94809E+03 -2.48163E+04 -6.39552E+03
 -1.63698E+04 -1.63218E+04 -5.58561E+03 -1.63406E+04  3.68635E+03 -1.42121E+04  1.22346E+04 -1.40723E+04
  2.07990E+04 -1.14619E+04  2.79054E+04  9.00822E+02  2.12896E+04  1.57790E+04  4.27218E+03  3.21198E+04
 -1.58347E+04  2.74129E+04 -2.55589E+04  9.13411E+03 -1.94560E+04 -1.06211E+04 -3.80188E+03 -1.36540E+04
  2.54218E+03 -4.14224E+03 -2.61638E+03  5.19734E+03 -1.25178E+04  5.30505E+03 -1.33686E+04 -4.74996E+03
 -8.40755E+03 -1.50517E+04  4.59324E+03 -1.89953E+04  1.25361E+04 -1.35879E+04  1.43588E+04 -1.27522E+03
  9.23003E+03  1.08497E+04 -8.11974E+02  1.54882E+04 -1.02780E+04  8.64415E+03 -1.51402E+04 -3.23770E+03
 -1.15583E+04 -1.39096E+04 -1.23642E+03 -1.88227E+04  8.37194E+03 -1.51432E+04  1.60065E+04 -7.34993E+03
  1.43318E+04  4.20722E+02  1.02641E+04  3.58784E+03  5.19146E+03  7.09626E+02  7.51371E+03 -1.44128E+03
  1.35449E+04  2.68678E+03  1.45535E+04  1.26217E+04  9.05102E+03  2.45573E+04 -3.04867E+03  2.60727E+04
 -1.55843E+04  1.99977E+04 -2.40968E+04  9.34206E+03 -2.47124E+04 -1.79866E+03 -2.09598E+04 -1.40539E+04
 -9.90360E+03 -1.99623E+04  6.74009E+03 -1.89989E+04  1.65466E+04 -1.07024E+04  1.56342E+04  3.56326E+03
  6.77454E+03  1.10773E+04 -6.80549E+03  1.01097E+04 -1.29951E+04  2.47767E+03 -1.01218E+04 -7.87248E+03
 -1.23960E+02 -1.22779E+04  6.06635E+03 -9.42963E+03  7.58818E+03 -1.50577E+03  1.48105E+03  5.05419E+03
 -5.38126E+03  1.11735E+03 -3.82509E+03 -4.38593E+03  5.76044E+02 -1.00476E+04  7.98353E+03 -1.00743E+04
  1.17975E+04 -4.43054E+03  1.17427E+04  2.80329E+03  1.04661E+04  9.30413E+03  4.77781E+03  1.39287E+04
 -1.75799E+03  1.57452E+04 -9.65211E+03  1.01409E+04 -1.09085E+04  3.01594E+03 -8.31507E+03 -1.87469E+03
 -4.50565E+03 -3.30570E+03 -6.00316E+02  1.42854E+03 -1.91611E+03  1.94003E+03 -3.55429E+03  3.72185E+03
 -7.89221E+03 -6.16034E+02 -8.62395E+03 -6.94949E+03 -3.47343E+03 -1.14986E+04  3.47813E+03 -8.42502E+03
  7.11333E+03 -3.69211E+03  5.18348E+03  1.80040E+03  6.47532E+02  3.14346E+03 -3.51040E+03 -3.14630E+02
 -3.36757E+03 -4.98219E+03 -7.93453E+02 -7.44540E+03  3.87159E+03 -7.71075E+03  9.78087E+03 -3.89180E+03
  1.17000E+04  5.87084E+02  8.95218E+03  5.89107E+03  1.90226E+03  8.50720E+03 -5.13848E+03  8.06038E+03
 -6.85632E+03  2.72513E+03 -3.59966E+03 -1.34133E+03  1.23205E+03 -1.81544E+03  4.91055E+03 -9.40126E+02
  4.09276E+03  3.00945E+03  1.22198E+03  6.22680E+03 -4.57179E+03  6.16850E+03 -7.92461E+03  1.97218E+03
 -4.71993E+03 -3.77695E+03  2.90741E+02 -6.59969E+03  3.53182E+03 -3.23892E+03  3.91960E+03  1.17099E+03
  3.80041E+02  3.47444E+03 -4.41650E+03  4.74714E+03 -5.13447E+03  2.41590E+03 -4.34817E+03 -9.38065E+02
 -2.70356E+03 -5.70862E+03  1.33521E+03 -6.93753E+03  6.21726E+03 -4.68140E+03  6.28445E+03  1.07809E+03
  4.39745E+03  5.25236E+03  1.60067E+02  7.06787E+03 -5.02773E+03  3.95100E+03 -5.42665E+03 -4.49401E+01
 -5.70844E+03 -4.93844E+03 -1.32305E+03 -5.03324E+03  2.61890E+03 -4.57020E+03  2.97738E+03 -3.12351E+03
  2.84125E+03  2.22054E+02 -5.15806E+01  1.38641E+03  2.19279E+02 -2.04381E+02  6.05450E+01 -2.05600E+03
  3.78850E+03 -1.11204E+03  5.26444E+03  7.89593E+02  5.99475E+03  3.22151E+03  5.38808E+03  7.37029E+03
 -1.25906E+03  8.39207E+03 -8.03687E+03  6.60188E+03 -1.00385E+04  1.01580E+03 -8.04485E+03 -2.67861E+03
 -4.17873E+03 -6.95032E+03 -2.22292E+02 -5.07934E+03  2.20145E+03 -2.35047E+03  1.69402E+03 -2.24827E+03
  1.27834E+03 -1.52040E+03  2.27111E+03 -2.31394E+03  3.85033E+03 -1.18343E+03  3.75156E+03  4.53512E+02
  4.61440E+03  9.93798E+02  1.28720E+03  3.50066E+03 -1.78180E+03  2.85264E+03 -4.37286E+03  2.79501E+03
 -5.24727E+03 -8.65630E+02 -1.94633E+03 -3.11765E+03  4.92452E+02 -5.07311E+03  3.35255E+03 -5.56032E+03
  5.21393E+03 -3.17081E+03  6.63385E+03  3.59554E+01  4.87365E+03  4.21103E+03  1.28413E+03  6.07184E+03
 -1.96158E+03  6.02015E+03 -3.33979E+03  2.03858E+03 -1.96455E+03 -8.17839E+02 -6.10180E+02 -4.73669E+02
 -4.78589E+02  5.79039E+02 -8.97034E+02  2.13610E+03 -2.40597E+03  1.06818E+03 -4.14569E+03 -6.92677E+02
 -1.81593E+03 -3.95515E+03  7.90286E+02 -4.67181E+03  2.56428E+03 -4.68598E+03  3.78695E+03 -1.26733E+03
  4.02872E+03  2.38445E+03  2.08800E+03  3.44903E+03 -6.90216E+02  4.61254E+03 -2.90818E+03  2.72826E+03
 -4.09054E+03  4.41194E+02 -3.41775E+03 -2.57509E+03 -9.45151E+01 -3.23987E+03  1.72058E+03 -2.71248E+03
  2.77993E+03 -1.23661E+03  1.68598E+03  2.55997E+02  5.54502E+02  1.71213E+03  9.36869E+02  6.66502E+02
  1.76369E+03  4.01616E+02  1.17868E+03  1.07170E+03  9.30197E+02  2.49808E+03  1.25626E+03  1.88568E+03
 -1.16879E+03  3.13183E+03 -2.43109E+03  4.11431E+03 -3.11944E+03  1.10856E+03 -4.52193E+03 -7.25365E+02
 -1.73957E+03 -3.71416E+03  6.43443E+02 -5.13874E+03  2.05214E+03 -2.43238E+03  3.29092E+03 -1.02271E+03
  2.46201E+03  1.99766E+03  5.11284E+02  2.31858E+03 -5.40952E+02  1.36680E+03 -1.22015E+03  5.58498E+01
 -5.33852E+02 -1.58720E+03  1.39042E+03 -1.66829E+03  1.57305E+03 -9.02704E+02  1.40875E+03  3.36525E+02
  6.76619E+02  4.39731E+02  8.21789E+02 -3.27106E+02 -3.42314E+02  4.76100E+02  1.64545E+03 -1.40331E+02
  4.06717E+01  1.04075E+02  1.98191E+03  4.40790E+02  4.10057E+02  2.33666E+03 -3.02593E+02  3.12579E+03
 -1.95960E+03  1.24851E+03 -2.17430E+03  4.53618E+02 -2.28457E+03 -6.12867E+02  3.39653E+01 -8.80117E+02
  1.84762E+02 -1.28731E+03  8.70015E+02 -8.50513E+02  6.26605E+02  1.16674E+03 -7.02558E+02  1.18582E+03
 -1.63220E+03  7.24736E+02 -1.15078E+03 -1.18874E+03 -7.62410E+02 -2.46177E+03  1.65587E+02 -1.91732E+03
  7.74971E+02 -6.08477E+02  8.76079E+02  2.74289E+02  1.40013E+03 -2.57804E+02  2.63024E+02  1.09925E+03
 -4.16755E+02  2.73373E+02 -9.34849E+02 -1.50838E+02  8.73087E+02 -7.57392E+02  1.70448E+03 -1.17073E+03
  1.28179E+03  2.68583E+02  2.89206E+03  8.75170E+02  1.16195E+03  1.79903E+03 -3.77324E+02  1.98104E+03
 -1.87551E+03  2.31020E+02 -1.45394E+03 -1.93769E+02 -7.80652E+02 -1.46356E+03  1.12226E+02 -7.94652E+02
  1.47753E+03 -5.99009E+02  8.16857E+02  6.36095E+02  2.11016E+02  1.47217E+03  1.60282E+02  1.03814E+03
 -5.20291E+02  1.37971E+03 -4.73315E+02  2.78512E+02 -3.13322E+02  5.85486E+02 -9.03500E+02  5.78554E+02
 -7.97427E+02  1.11524E+03 -1.85413E+03  2.39637E+02 -1.99205E+03  2.79342E+02 -2.72076E+03 -9.69647E+02
 -1.10033E+03 -2.65560E+03  6.24027E+02 -3.25085E+03  1.23733E+03 -2.46171E+03  3.03856E+03 -1.08514E+03
  2.20066E+03 -1.81033E+02  1.21843E+03  1.72615E+03 -6.68288E+02  1.68460E+03 -4.44711E+02  1.47753E+03
 -1.04136E+03  9.30747E+02 -7.93673E+02  3.64761E+01 -4.86500E+02  2.54682E+02 -8.48912E+02  3.94589E+01
 -1.11875E+03 -1.37490E+02 -9.32185E+02  1.45710E+02  2.44951E+02 -7.38935E+02 -3.58210E+02 -7.98663E+02
  1.32389E+03 -6.83209E+02  6.70807E+02  1.87400E+02  1.34254E+03  1.11908E+03 -3.24948E+02  1.55639E+03
 -1.03640E+03  2.18023E+03 -1.74836E+03  1.28402E+03 -1.66984E+03 -3.25905E+02 -1.26195E+03 -1.45724E+03
 -9.66818E+02 -1.49320E+03  5.99607E+02 -1.22499E+03  7.72048E+02 -4.95331E+02  8.66381E+02 -7.75530E+01
  7.78937E+02  3.99714E+02  2.88832E+02  3.05486E+02 -4.24505E+02  2.12420E+02 -5.91927E+01 -2.45378E+02
  5.51074E+02 -1.17158E+01  3.86149E+02  4.89709E+02  1.07051E+00  3.34321E+02  4.35145E+02  3.62987E+02
 -8.18156E+02  8.65292E+02 -5.74626E+02  2.49079E+02 -9.94037E+02 -5.35088E+02  8.52598E+01 -1.31783E+03
  7.59564E+02 -7.26013E+02  6.44149E+02  1.21434E+02  1.16441E+03 -5.28755E+02  3.59575E+02  9.15180E+02
  2.09780E+02  3.33704E+02 -2.87478E+02  8.06097E+02 -1.15880E+03  6.52771E+02 -5.59654E+02  8.49288E+01
 -4.58008E+01 -2.92310E+02 -5.51043E+02  2.39350E+02 -5.65120E+02  5.84533E+01 -8.04929E+02 -4.51202E+02
 -1.19963E+03  1.18032E+02 -4.71588E+02 -1.07717E+03  9.15802E+02 -1.67482E+03  5.91859E+02 -1.95466E+02
  9.31096E+02  1.31964E+02 -5.03040E+02  3.65672E+02  1.50800E+01  6.71880E+02 -6.34747E+02  6.58496E+02
