 $NMID ID='MM_0lb_SNR800_10hz_g45_42.RAW', FMTDAT='(8E13.5)'
 TRAMP=1., VOLUME=1. $END
  3.09812E+05  5.68916E+02  3.37575E+05  2.50643E+05  8.47020E+04  3.37733E+05 -1.32762E+05  2.51584E+05
 -1.90716E+05  8.29593E+04 -1.12641E+05 -3.26128E+04  3.39708E+02 -5.05202E+04  5.36443E+04  1.72808E+02
  3.55598E+04  5.31694E+04 -1.66371E+04  7.57606E+04 -6.10342E+04  6.41692E+04 -8.48085E+04  3.25922E+04
 -8.19410E+04 -1.12972E+04 -5.77170E+04 -5.18381E+04 -1.50729E+04 -7.04199E+04  2.79965E+04 -4.67766E+04
  4.09502E+04  3.56212E+03  1.66977E+04  4.84079E+04 -3.44449E+04  4.76124E+04 -6.74388E+04  2.97087E+02
 -5.47228E+04 -5.77377E+04 -7.20620E+03 -7.82930E+04  3.45546E+04 -5.63425E+04  4.90504E+04 -1.77986E+04
  4.46351E+04  1.13046E+04  3.26802E+04  2.62235E+04  1.57669E+04  3.00419E+04 -5.67046E+03  2.75609E+04
 -2.21837E+04  1.22781E+04 -1.81393E+04 -5.46509E+03  6.63123E+03 -7.46817E+03  2.33047E+04  1.29434E+04
  7.12427E+03  3.69070E+04 -3.35749E+04  3.62793E+04 -6.51826E+04  2.01835E+03 -5.80907E+04 -4.37202E+04
 -1.23953E+04 -6.52395E+04  4.12530E+04 -4.69219E+04  6.01079E+04 -2.70286E+03  3.60654E+04  3.39790E+04
 -5.92663E+03  3.82516E+04 -3.14139E+04  1.77500E+04 -3.25269E+04 -3.78726E+03 -1.81691E+04 -1.14927E+04
 -9.06347E+03 -1.45593E+04 -4.58425E+02 -1.91061E+04  8.24147E+03 -2.33135E+04  1.56233E+04 -1.33031E+04
  1.06004E+04  6.31743E+03 -9.72107E+03  1.26210E+04 -2.28497E+04 -5.94380E+03 -8.48553E+03 -3.62857E+04
  2.40944E+04 -4.56949E+04  5.09155E+04 -2.03568E+04  4.76737E+04  2.06532E+04  1.71738E+04  4.63064E+04
 -1.63651E+04  3.50727E+04 -2.67520E+04  2.52628E+03 -1.11160E+04 -2.90446E+04  2.13492E+04 -3.58105E+04
  4.33903E+04 -1.05944E+04  3.88832E+04  2.41187E+04  2.03022E+04  5.00583E+04 -8.30020E+03  5.40771E+04
 -3.41863E+04  3.68570E+04 -4.59920E+04  1.08594E+04 -4.61947E+04 -1.81408E+04 -2.51702E+04 -4.09057E+04
  8.27237E+03 -4.05982E+04  3.33123E+04 -1.63380E+04  3.15133E+04  1.08381E+04  4.92075E+03  1.99887E+04
 -1.34677E+04  9.52159E+03 -1.11108E+04 -7.54196E+03  5.78580E+03 -1.11638E+04  1.87011E+04  5.60508E+03
  1.46101E+04  2.23150E+04 -5.47467E+03  2.66184E+04 -2.31556E+04  1.36140E+04 -3.07908E+04 -3.45553E+03
 -2.36687E+04 -1.82474E+04 -1.01864E+04 -2.31376E+04  4.33581E+03 -2.37684E+04  1.89083E+04 -2.10250E+04
  3.04782E+04 -1.39814E+04  3.63050E+04  3.96256E+03  2.57282E+04  2.30870E+04  4.04671E+03  3.97219E+04
 -1.91067E+04  3.28616E+04 -2.99551E+04  1.12713E+04 -2.18831E+04 -1.02339E+04 -4.56130E+03 -1.29885E+04
  9.79856E+02 -1.68030E+03 -6.64679E+03  7.72352E+03 -1.87716E+04  5.24867E+03 -1.88141E+04 -8.77776E+03
 -1.10431E+04 -2.22388E+04  5.89103E+03 -2.63975E+04  1.76501E+04 -1.87832E+04  2.07503E+04 -1.48549E+03
  1.33687E+04  1.51325E+04 -1.10646E+03  2.21773E+04 -1.58174E+04  1.24610E+04 -2.21634E+04 -4.81261E+03
 -1.65411E+04 -1.99241E+04 -2.40163E+03 -2.64327E+04  1.19820E+04 -2.16518E+04  2.20255E+04 -1.14540E+04
  2.02400E+04  2.77028E+01  1.50759E+04  5.26667E+03  8.48471E+03  1.25789E+03  1.18810E+04 -2.04551E+03
  2.06862E+04  2.82647E+03  2.34123E+04  1.75827E+04  1.59225E+04  3.50938E+04 -2.47808E+03  4.13632E+04
 -2.33707E+04  3.41237E+04 -3.89166E+04  1.76867E+04 -4.12343E+04 -2.69051E+03 -3.37434E+04 -2.40916E+04
 -1.34071E+04 -3.42442E+04  1.18128E+04 -3.07002E+04  2.62074E+04 -1.44421E+04  2.25972E+04  6.98578E+03
  7.74621E+03  1.73001E+04 -1.08869E+04  1.47261E+04 -1.88900E+04  2.65850E+03 -1.42694E+04 -1.20686E+04
 -5.41388E+02 -1.83307E+04  9.92967E+03 -1.35877E+04  1.23027E+04 -1.50946E+03  3.24665E+03  8.36091E+03
 -8.01635E+03  3.91009E+03 -8.53066E+03 -6.63712E+03 -1.43370E+03 -1.68286E+04  1.14728E+04 -1.78832E+04
  2.09030E+04 -1.00915E+04  2.37071E+04  3.38803E+03  2.02468E+04  1.70990E+04  9.70171E+03  2.63884E+04
 -4.83669E+03  2.83753E+04 -1.88859E+04  1.77016E+04 -2.01736E+04  3.58514E+03 -1.45591E+04 -5.19263E+03
 -6.19803E+03 -6.95506E+03 -6.13159E+02  5.50960E+02 -2.93988E+03  3.22227E+03 -7.05456E+03  5.15398E+03
 -1.28882E+04 -1.14063E+03 -1.35264E+04 -1.08845E+04 -5.45943E+03 -1.77665E+04  6.25165E+03 -1.46674E+04
  1.18156E+04 -6.24504E+03  8.15498E+03  3.92353E+03 -4.59696E+02  5.40730E+03 -7.13552E+03  6.03716E+01
 -6.50562E+03 -9.61296E+03 -8.80787E+02 -1.40864E+04  8.22045E+03 -1.46818E+04  1.82574E+04 -8.03943E+03
  2.12567E+04  2.43947E+03  1.58706E+04  1.28593E+04  2.75779E+03  1.72096E+04 -8.77145E+03  1.43428E+04
 -1.17422E+04  4.11464E+03 -5.92390E+03 -3.04661E+03  2.03918E+03 -3.91670E+03  7.74425E+03 -8.87375E+02
  6.81384E+03  6.43081E+03  1.40938E+03  1.13675E+04 -8.44571E+03  1.09774E+04 -1.42351E+04  2.43614E+03
 -9.67005E+03 -7.37714E+03  3.88084E+02 -1.23659E+04  7.54875E+03 -6.42397E+03  8.01843E+03  2.98039E+03
  1.84075E+03  8.88224E+03 -7.32373E+03  1.06904E+04 -1.20524E+04  4.75692E+03 -1.23194E+04 -4.13512E+03
 -7.40246E+03 -1.37886E+04  3.22576E+03 -1.62135E+04  1.35691E+04 -9.83650E+03  1.48963E+04  2.63000E+03
  8.81143E+03  1.20378E+04 -1.55216E+03  1.46855E+04 -1.06560E+04  7.64939E+03 -1.14028E+04 -1.36993E+03
 -9.75328E+03 -9.93127E+03 -1.82471E+03 -1.09669E+04  5.91668E+03 -8.57448E+03  6.57774E+03 -3.30916E+03
  4.27511E+03  1.96341E+03 -1.02482E+03  1.56732E+03 -1.64575E+02 -2.76484E+03  2.09595E+03 -6.56462E+03
  1.00912E+04 -3.59738E+03  1.41954E+04  1.60655E+03  1.38321E+04  9.32301E+03  9.47802E+03  1.84448E+04
 -4.07243E+03  2.08971E+04 -1.74207E+04  1.54623E+04 -2.24806E+04  2.70220E+03 -1.81872E+04 -8.03860E+03
 -9.50475E+03 -1.52686E+04 -4.54405E+02 -1.26793E+04  4.36682E+03 -7.30118E+03  4.43154E+03 -4.26863E+03
  3.23981E+03 -2.88009E+03  3.50426E+03 -3.42843E+03  5.20910E+03 -3.33841E+03  7.52237E+03 -5.53915E+02
  9.57745E+03  2.37159E+03  5.21000E+03  8.08937E+03 -2.37048E+03  9.58489E+03 -1.02497E+04  7.57785E+03
 -1.26988E+04 -1.47597E+03 -7.75943E+03 -9.00481E+03 -1.20604E+03 -1.36463E+04  7.74853E+03 -1.37893E+04
  1.41871E+04 -7.91800E+03  1.70053E+04  2.47840E+03  1.19786E+04  1.21070E+04  2.24043E+03  1.53735E+04
 -6.66740E+03  1.26879E+04 -8.68879E+03  4.45097E+03 -6.11110E+03 -1.91066E+03 -2.43200E+03 -2.07485E+03
 -1.32902E+03 -2.42269E+01 -2.31669E+03  2.80351E+03 -5.29721E+03  1.94340E+03 -8.83729E+03 -1.11749E+03
 -6.13150E+03 -8.88249E+03 -2.40540E+02 -1.26754E+04  7.67246E+03 -1.17322E+04  1.23304E+04 -3.43532E+03
  1.27329E+04  5.80725E+03  5.83479E+03  1.12635E+04 -2.22962E+03  1.29234E+04 -9.22004E+03  8.20938E+03
 -1.22675E+04  1.03415E+03 -8.89055E+03 -7.49572E+03 -1.20056E+03 -1.03618E+04  5.38259E+03 -7.93156E+03
  8.13363E+03 -2.89431E+03  5.55844E+03  2.08134E+03  1.69299E+03  3.35997E+03  1.36858E+03  2.13769E+03
  2.76709E+03  8.15737E+02  3.26911E+03  1.64583E+03  3.70730E+03  4.26550E+03  3.32395E+03  6.78309E+03
 -2.47928E+03  9.92927E+03 -8.67144E+03  9.99791E+03 -1.26782E+04  2.57044E+03 -1.34865E+04 -5.20590E+03
 -6.20855E+03 -1.27672E+04  1.87698E+03 -1.45050E+04  7.92402E+03 -8.82317E+03  1.05698E+04 -2.35873E+03
  8.16168E+03  4.88198E+03  1.58728E+03  7.32088E+03 -3.59350E+03  4.57602E+03 -4.98091E+03 -8.61160E+02
 -2.52768E+03 -5.59873E+03  2.89235E+03 -5.48789E+03  5.34937E+03 -2.90166E+03  4.85769E+03  1.24517E+03
  2.94363E+03  2.64929E+03  1.47483E+03  2.07806E+03 -5.84445E+02  1.80648E+03  1.91635E+03 -4.86872E+02
  2.07698E+03 -5.63417E+02  4.98816E+03  2.15507E+03  2.76178E+03  6.83541E+03 -1.16310E+03  9.43439E+03
 -5.63672E+03  5.74853E+03 -8.15312E+03  1.98623E+03 -6.82816E+03 -2.55450E+03 -2.77549E+03 -4.98202E+03
  8.14491E+02 -4.99830E+03  3.68198E+03 -2.24787E+03  3.02194E+03  2.76045E+03 -1.43702E+03  4.17061E+03
 -5.63961E+03  2.63272E+03 -5.80877E+03 -3.19583E+03 -3.63079E+03 -6.97440E+03  1.40117E+03 -7.32363E+03
  4.10166E+03 -4.04637E+03  5.27360E+03 -3.87607E+02  4.02067E+03  1.61140E+03  3.53852E+02  3.70366E+03
 -2.42202E+03  9.84115E+02 -3.24298E+03 -2.38029E+03  1.15432E+03 -5.23756E+03  6.15818E+03 -4.37892E+03
  7.77658E+03  5.31025E+02  8.05813E+03  5.71259E+03  2.30605E+03  7.98118E+03 -2.62203E+03  7.82706E+03
 -6.79721E+03  3.05160E+03 -6.88269E+03 -1.31358E+03 -3.89420E+03 -5.75811E+03  1.33019E+03 -4.74620E+03
  5.24803E+03 -2.32016E+03  4.11381E+03  2.45146E+03  1.40058E+03  4.66258E+03 -7.51424E+02  3.85541E+03
 -2.44745E+03  2.97976E+03 -1.95861E+03  7.82835E+02 -1.26915E+03  5.88313E+02 -1.14030E+03  1.69142E+03
 -2.19467E+03  3.04610E+03 -5.84130E+03  3.00444E+03 -8.45476E+03  2.86823E+02 -9.31773E+03 -5.26578E+03
 -4.86615E+03 -1.09585E+04  2.13401E+03 -1.30941E+04  7.53012E+03 -9.67191E+03  1.18354E+04 -3.72245E+03
  1.11062E+04  2.49430E+03  6.85246E+03  7.75967E+03  4.89595E+02  8.56834E+03 -3.19992E+03  6.50943E+03
 -5.00652E+03  2.80044E+03 -2.72259E+03 -8.94891E+02 -1.44820E+03 -3.59034E+02 -6.80581E+02 -1.16059E+02
 -2.01967E+03 -1.10061E+01 -1.48827E+03 -3.98154E+02 -4.87974E+02 -2.05442E+03 -3.74416E+01 -2.91313E+03
  3.80101E+03 -2.77412E+03  4.99157E+03 -6.81806E+01  6.03537E+03  4.64244E+03  1.46296E+03  8.44616E+03
 -3.67195E+03  1.02155E+04 -9.22785E+03  5.51763E+03 -1.02175E+04 -1.02801E+03 -7.61240E+03 -6.25742E+03
 -3.51612E+03 -8.43786E+03  2.22707E+03 -7.93228E+03  5.13504E+03 -3.94629E+03  5.40789E+03 -1.85748E+00
  3.21744E+03  2.97336E+03 -5.68323E+02  2.20426E+03 -1.46511E+03 -4.71863E+02  2.00926E+02 -2.09358E+03
  2.63041E+03 -1.07700E+03  3.11014E+03  1.09053E+03  1.98110E+03  3.14855E+03  8.71920E+01  4.37881E+03
 -3.84470E+03  3.71660E+03 -5.48910E+03  4.53004E+02 -4.81964E+03 -3.97981E+03 -7.73375E+02 -7.04429E+03
  3.88728E+03 -5.97469E+03  6.19538E+03 -1.66780E+03  6.52243E+03  1.12426E+03  3.42453E+03  5.35998E+03
  5.79479E+02  5.61756E+03 -2.66444E+03  4.46448E+03 -3.30441E+03  2.72754E+03 -2.62948E+03  7.66513E+02
 -1.18047E+03 -3.07832E+02 -1.76012E+03  1.03987E+03 -3.04037E+03  1.30806E+03 -4.18519E+03 -1.00326E+03
 -4.44946E+03 -2.70820E+03 -1.59831E+03 -5.51203E+03  2.92971E+03 -6.25401E+03  4.97319E+03 -2.50722E+03
  5.25912E+03  8.04718E+02  3.21119E+03  3.75036E+03 -3.45914E+02  5.32811E+03 -4.17974E+03  4.01681E+03
