 $NMID ID='MM_0lb_SNR800_15hz_g40_42.RAW', FMTDAT='(8E13.5)'
 TRAMP=1., VOLUME=1. $END
  3.09675E+05  3.64436E+02  3.37533E+05  2.50432E+05  8.43222E+04  3.37864E+05 -1.32681E+05  2.50775E+05
 -1.90061E+05  8.28517E+04 -1.11438E+05 -3.27530E+04  8.99912E+02 -5.04031E+04  5.40018E+04  8.24830E+01
  3.52531E+04  5.24816E+04 -1.67871E+04  7.51696E+04 -6.05157E+04  6.32727E+04 -8.36738E+04  3.16066E+04
 -8.04141E+04 -1.14634E+04 -5.65957E+04 -5.06880E+04 -1.48701E+04 -6.89041E+04  2.70289E+04 -4.52835E+04
  3.96205E+04  3.78868E+03  1.57722E+04  4.74053E+04 -3.40227E+04  4.70522E+04 -6.61741E+04 -5.14767E+02
 -5.29186E+04 -5.61038E+04 -6.59254E+03 -7.60843E+04  3.34638E+04 -5.41050E+04  4.68913E+04 -1.69825E+04
  4.27643E+04  1.12246E+04  3.11517E+04  2.48164E+04  1.55944E+04  2.89459E+04 -4.89171E+03  2.69590E+04
 -2.18544E+04  1.25640E+04 -1.86336E+04 -4.75937E+03  4.83486E+03 -7.35928E+03  2.17582E+04  1.19079E+04
  7.19030E+03  3.45379E+04 -3.12556E+04  3.47600E+04 -6.21069E+04  2.28668E+03 -5.60392E+04 -4.19535E+04
 -1.24338E+04 -6.19865E+04  3.87902E+04 -4.41582E+04  5.70425E+04 -1.76983E+03  3.32222E+04  3.14924E+04
 -6.13301E+03  3.48918E+04 -2.93117E+04  1.46749E+04 -2.92485E+04 -4.61834E+03 -1.56040E+04 -1.05702E+04
 -8.02173E+03 -1.22482E+04 -1.34185E+03 -1.72770E+04  7.01910E+03 -2.26777E+04  1.50985E+04 -1.37587E+04
  1.19942E+04  4.77232E+03 -7.54177E+03  1.30755E+04 -2.03717E+04 -3.59446E+03 -8.30785E+03 -3.19233E+04
  2.16232E+04 -4.25131E+04  4.64319E+04 -1.90799E+04  4.35308E+04  1.90700E+04  1.49268E+04  4.27594E+04
 -1.56455E+04  3.21854E+04 -2.47079E+04  1.41496E+03 -8.99036E+03 -2.70152E+04  2.09066E+04 -3.24575E+04
  3.97819E+04 -8.10405E+03  3.37417E+04  2.35734E+04  1.71477E+04  4.45401E+04 -8.12757E+03  4.77843E+04
 -3.03284E+04  3.19767E+04 -3.99107E+04  8.95001E+03 -4.05166E+04 -1.59069E+04 -2.23036E+04 -3.59689E+04
  7.17914E+03 -3.60522E+04  3.04836E+04 -1.38055E+04  2.79718E+04  1.06535E+04  3.24930E+03  1.84623E+04
 -1.31043E+04  8.01367E+03 -1.02549E+04 -7.49256E+03  5.86572E+03 -1.02784E+04  1.77907E+04  6.24567E+03
  1.32961E+04  2.20480E+04 -6.48986E+03  2.42664E+04 -2.18304E+04  1.05786E+04 -2.69662E+04 -5.24790E+03
 -1.87589E+04 -1.73063E+04 -7.13407E+03 -1.90321E+04  4.11095E+03 -1.74939E+04  1.47170E+04 -1.63404E+04
  2.38586E+04 -1.23526E+04  3.06954E+04  1.91579E+03  2.25414E+04  1.85750E+04  4.16235E+03  3.48073E+04
 -1.68384E+04  2.89786E+04 -2.70932E+04  9.78524E+03 -2.01358E+04 -1.02492E+04 -4.09039E+03 -1.36145E+04
  2.20611E+03 -3.33112E+03 -3.88031E+03  6.15073E+03 -1.49041E+04  5.28900E+03 -1.49126E+04 -6.14288E+03
 -9.81989E+03 -1.75039E+04  4.83549E+03 -2.14001E+04  1.42606E+04 -1.57203E+04  1.65390E+04 -1.79576E+03
  1.03193E+04  1.21003E+04 -1.08178E+03  1.77286E+04 -1.16402E+04  1.00156E+04 -1.74222E+04 -3.72293E+03
 -1.30200E+04 -1.60821E+04 -1.52242E+03 -2.14091E+04  9.57591E+03 -1.71538E+04  1.78716E+04 -8.49435E+03
  1.64990E+04  6.01947E+02  1.15301E+04  4.06717E+03  6.12287E+03  5.93771E+02  8.89656E+03 -1.45446E+03
  1.60062E+04  2.56846E+03  1.74613E+04  1.42366E+04  1.13430E+04  2.75502E+04 -2.98623E+03  3.07712E+04
 -1.80272E+04  2.43712E+04 -2.85486E+04  1.20351E+04 -2.99753E+04 -2.34396E+03 -2.53300E+04 -1.69776E+04
 -1.11879E+04 -2.45373E+04  8.21924E+03 -2.23261E+04  1.94747E+04 -1.21110E+04  1.78285E+04  4.83254E+03
  6.98582E+03  1.28851E+04 -8.13072E+03  1.14519E+04 -1.49490E+04  2.61843E+03 -1.15061E+04 -9.22883E+03
 -4.20812E+01 -1.43773E+04  7.34947E+03 -1.05536E+04  9.04774E+03 -1.33401E+03  1.77173E+03  6.09561E+03
 -6.62118E+03  2.01283E+03 -5.15587E+03 -5.05402E+03  1.73369E+02 -1.21165E+04  8.95932E+03 -1.24512E+04
  1.46605E+04 -6.36345E+03  1.54886E+04  2.97520E+03  1.30995E+04  1.18862E+04  6.48258E+03  1.75772E+04
 -2.58286E+03  1.94900E+04 -1.19097E+04  1.22342E+04 -1.41440E+04  3.07361E+03 -9.88814E+03 -2.50248E+03
 -4.82746E+03 -4.23588E+03 -8.75231E+02  1.12625E+03 -2.00942E+03  2.59256E+03 -4.21365E+03  3.93827E+03
 -9.49536E+03 -3.58985E+02 -1.03531E+04 -8.16451E+03 -4.22397E+03 -1.37682E+04  3.97297E+03 -1.00838E+04
  8.64749E+03 -4.23643E+03  5.87968E+03  2.75517E+03  5.28076E+02  3.72084E+03 -4.41117E+03 -1.31224E+02
 -4.56693E+03 -6.15408E+03 -6.83764E+02 -9.14638E+03  4.81654E+03 -1.01597E+04  1.21550E+04 -4.97892E+03
  1.44129E+04  1.09370E+03  1.09320E+04  8.47510E+03  2.14789E+03  1.11943E+04 -6.47808E+03  9.89186E+03
 -8.11052E+03  3.16226E+03 -4.28587E+03 -1.72250E+03  1.57452E+03 -2.54578E+03  5.44959E+03 -5.86163E+02
  4.83677E+03  4.32348E+03  1.17409E+03  7.98133E+03 -5.58588E+03  7.77236E+03 -9.44527E+03  2.02067E+03
 -6.37604E+03 -4.90786E+03  4.00244E+02 -8.18637E+03  4.85624E+03 -4.03213E+03  4.99422E+03  1.49463E+03
  1.07080E+03  4.97393E+03 -5.00556E+03  6.16041E+03 -7.21721E+03  2.99292E+03 -6.68639E+03 -2.06069E+03
 -3.77902E+03 -8.28344E+03  1.63020E+03 -9.29085E+03  8.08023E+03 -6.16842E+03  8.76070E+03  1.62837E+03
  5.71857E+03  6.95190E+03 -9.21980E+01  9.31502E+03 -6.60746E+03  5.23642E+03 -6.86105E+03 -4.35097E+02
 -6.93005E+03 -6.22224E+03 -1.40168E+03 -6.41715E+03  3.33090E+03 -5.49686E+03  4.33914E+03 -2.95257E+03
  3.20348E+03  4.66454E+02  2.09428E+01  1.50227E+03  4.99582E+02 -1.04657E+03  7.86952E+02 -3.23724E+03
  5.73688E+03 -1.70265E+03  7.68770E+03  9.58275E+02  7.93924E+03  4.80271E+03  6.53015E+03  1.02062E+04
 -1.87268E+03  1.17837E+04 -1.03033E+04  8.77327E+03 -1.34090E+04  1.71915E+03 -1.05635E+04 -4.00822E+03
 -5.50542E+03 -9.03705E+03 -2.24533E+02 -7.42242E+03  2.74568E+03 -3.64653E+03  2.41005E+03 -2.79953E+03
  2.00545E+03 -1.94172E+03  2.41540E+03 -2.52927E+03  4.13214E+03 -2.00252E+03  4.73102E+03  2.26087E+02
  5.74271E+03  1.45561E+03  2.30319E+03  4.80660E+03 -1.64807E+03  4.60806E+03 -5.94227E+03  4.19816E+03
 -7.12618E+03 -1.02195E+03 -3.53592E+03 -4.89313E+03 -1.24844E+02 -7.23118E+03  4.60271E+03 -7.80880E+03
  7.40523E+03 -4.59536E+03  9.45836E+03  8.05095E+02  6.72597E+03  6.25880E+03  1.36656E+03  8.43170E+03
 -3.14768E+03  7.64694E+03 -5.16348E+03  2.78365E+03 -2.99800E+03 -1.03565E+03 -1.19108E+03 -9.40611E+02
 -5.69120E+02  1.12273E+02 -1.11943E+03  2.21096E+03 -3.56050E+03  1.47402E+03 -5.75746E+03 -5.29942E+02
 -2.65131E+03 -5.46481E+03  3.45140E+02 -6.79343E+03  4.31192E+03 -6.57662E+03  5.84864E+03 -1.61605E+03
  6.29355E+03  3.61500E+03  2.78900E+03  5.62936E+03 -1.24232E+03  6.69823E+03 -4.44046E+03  4.13597E+03
 -6.08803E+03  4.45748E+02 -4.79169E+03 -3.82300E+03 -5.17021E+02 -5.54522E+03  2.84263E+03 -3.81399E+03
  3.85396E+03 -1.50065E+03  2.75603E+03  9.47930E+02  8.94638E+02  2.24818E+03  1.04410E+03  7.02252E+02
  2.10193E+03  8.98223E+02  1.91932E+03  1.16230E+03  1.77131E+03  3.04669E+03  1.98918E+03  3.14000E+03
 -1.75343E+03  4.96234E+03 -4.34608E+03  5.59115E+03 -5.64697E+03  1.85420E+03 -6.73393E+03 -1.83894E+03
 -3.04261E+03 -6.11939E+03  8.12767E+02 -7.34984E+03  3.43887E+03 -4.13979E+03  4.94450E+03 -1.25624E+03
  3.86742E+03  2.22895E+03  1.23135E+03  3.78176E+03 -1.42457E+03  2.18999E+03 -2.41209E+03 -4.90507E+02
 -1.03223E+03 -2.51228E+03  1.75947E+03 -2.47788E+03  2.08331E+03 -1.42141E+03  2.13480E+03  7.92928E+02
  1.18570E+03  8.87399E+02  9.41512E+02  2.48383E+02 -2.44566E+02  9.83342E+02  1.55215E+03 -3.36073E+02
  3.47303E+02 -3.47040E+02  2.74123E+03  1.06315E+03  8.69677E+02  3.55494E+03 -5.46178E+02  4.50154E+03
 -2.82982E+03  2.35352E+03 -3.77740E+03  5.79932E+02 -3.12046E+03 -1.30970E+03 -1.08403E+03 -1.92158E+03
  3.13677E+02 -2.27363E+03  1.38299E+03 -1.22972E+03  1.45132E+03  1.34160E+03 -8.84117E+02  1.76203E+03
 -2.65926E+03  1.55675E+03 -2.38145E+03 -1.76305E+03 -1.38029E+03 -3.69754E+03  4.18629E+02 -2.79153E+03
  1.64192E+03 -1.34473E+03  1.86023E+03  3.38316E+00  2.39071E+03  2.37610E+02  6.19160E+02  1.99064E+03
 -6.91225E+02  3.02487E+02 -1.40199E+03 -7.45729E+02  6.70309E+02 -1.93605E+03  2.86272E+03 -1.97846E+03
  2.84705E+03  3.28832E+02  4.15221E+03  1.76337E+03  1.21391E+03  3.35337E+03 -7.55604E+02  3.47387E+03
 -2.65630E+03  9.96032E+02 -3.01110E+03 -3.41928E+02 -1.65022E+03 -2.55643E+03  8.61730E+02 -1.90077E+03
  2.25237E+03 -8.23865E+02  1.75261E+03  1.31729E+03  5.00483E+02  2.17619E+03  1.12469E+01  1.62780E+03
 -8.42492E+02  1.12443E+03 -1.16710E+03  2.88173E+02 -3.37189E+02  3.00248E+02 -9.15003E+02  7.02393E+02
 -1.40746E+03  1.78754E+03 -2.83383E+03  1.11554E+03 -3.54724E+03 -1.73982E+01 -4.52254E+03 -2.00372E+03
 -2.18362E+03 -4.42037E+03  7.45890E+02 -5.55273E+03  2.73623E+03 -4.14924E+03  5.08737E+03 -1.61870E+03
  4.47521E+03  3.69676E+02  2.44665E+03  2.95948E+03 -6.78589E+01  2.85803E+03 -1.08130E+03  2.46560E+03
 -1.35186E+03  1.17631E+03 -1.10474E+03 -3.25640E+02 -1.85605E+02  1.19784E+02 -7.79986E+02  3.17520E+02
 -1.25275E+03 -4.05900E+00 -1.04470E+03  1.14488E+02  5.42307E+01 -1.06085E+03 -3.33322E+02 -1.55446E+03
  1.96130E+03 -1.13291E+03  1.44568E+03  1.33072E+02  1.97128E+03  2.11530E+03  9.55063E+01  2.89168E+03
 -1.67082E+03  3.86055E+03 -3.21474E+03  2.16435E+03 -3.76126E+03 -4.88169E+02 -2.88134E+03 -2.36968E+03
 -1.35784E+03 -3.00340E+03  5.57356E+02 -2.51337E+03  1.84583E+03 -1.29487E+03  1.62539E+03  2.10213E+02
  9.63170E+02  8.31381E+02  1.87367E+02  1.00852E+03 -6.06053E+02  1.59310E+00 -3.71609E+02 -3.04049E+02
  1.12265E+03  1.45292E+00  9.56187E+02  4.37739E+02  5.77106E+02  1.02937E+03  6.07434E+02  1.31898E+03
 -1.46937E+03  1.26902E+03 -1.74060E+03 -2.28912E+01 -1.53869E+03 -1.22130E+03 -3.18506E+01 -2.61043E+03
  1.28321E+03 -2.26442E+03  1.94391E+03 -4.24002E+02  2.05428E+03 -3.46824E+01  1.23678E+03  1.60261E+03
  6.11796E+02  1.36417E+03 -1.03065E+03  1.43826E+03 -1.09781E+03  8.33537E+02 -8.61119E+02  4.96160E+02
 -4.59032E+02 -2.53129E+02 -5.75906E+02  3.18985E+02 -1.26705E+03  2.32380E+02 -1.37796E+03 -5.30716E+02
 -1.55269E+03 -5.29991E+02 -3.76251E+02 -1.99587E+03  9.04834E+02 -2.52690E+03  1.82487E+03 -8.05870E+02
  1.79451E+03  3.20355E+02 -2.00712E+01  1.13085E+03 -1.58401E+02  1.91301E+03 -1.23282E+03  1.71274E+03
