 $NMID ID='MM_0lb_SNR800_19hz_g45_54.RAW', FMTDAT='(8E13.5)'
 TRAMP=1., VOLUME=1. $END
  3.09755E+05  1.85272E+02  3.37511E+05  2.50138E+05  8.42305E+04  3.37109E+05 -1.32635E+05  2.50055E+05
 -1.89747E+05  8.23891E+04 -1.10963E+05 -3.27840E+04  1.30753E+03 -5.02560E+04  5.37458E+04 -4.22608E+01
  3.49800E+04  5.29610E+04 -1.68880E+04  7.47678E+04 -6.03614E+04  6.25084E+04 -8.23989E+04  3.13542E+04
 -7.90928E+04 -1.09613E+04 -5.60747E+04 -5.01204E+04 -1.48660E+04 -6.79951E+04  2.63479E+04 -4.46856E+04
  3.90121E+04  3.94290E+03  1.54471E+04  4.67420E+04 -3.40274E+04  4.59436E+04 -6.51347E+04 -3.58052E+02
 -5.17546E+04 -5.56016E+04 -6.03960E+03 -7.51002E+04  3.29889E+04 -5.26833E+04  4.62501E+04 -1.60264E+04
  4.11670E+04  1.11523E+04  3.07846E+04  2.44302E+04  1.60268E+04  2.80553E+04 -4.80244E+03  2.69469E+04
 -2.17329E+04  1.28716E+04 -1.94030E+04 -3.97384E+03  3.94501E+03 -7.48255E+03  2.08551E+04  1.07915E+04
  7.43626E+03  3.30682E+04 -3.00198E+04  3.37310E+04 -6.09066E+04  2.10804E+03 -5.50824E+04 -4.09774E+04
 -1.23045E+04 -6.05250E+04  3.79618E+04 -4.30671E+04  5.50580E+04 -2.02583E+03  3.14443E+04  3.00157E+04
 -6.69603E+03  3.23637E+04 -2.82914E+04  1.30877E+04 -2.72731E+04 -5.62121E+03 -1.41380E+04 -9.85802E+03
 -7.33541E+03 -1.14037E+04 -1.18027E+03 -1.63179E+04  6.37580E+03 -2.25266E+04  1.49105E+04 -1.38749E+04
  1.22091E+04  4.29720E+03 -5.87553E+03  1.30437E+04 -1.92919E+04 -2.36085E+03 -8.03595E+03 -2.98591E+04
  2.07514E+04 -4.01538E+04  4.43527E+04 -1.86984E+04  4.14369E+04  1.80604E+04  1.37962E+04  4.13591E+04
 -1.50682E+04  3.06409E+04 -2.33422E+04  1.19825E+03 -7.87218E+03 -2.61866E+04  2.05572E+04 -3.05793E+04
  3.76953E+04 -6.86924E+03  3.06668E+04  2.27058E+04  1.49768E+04  4.19132E+04 -7.67943E+03  4.43304E+04
 -2.81582E+04  2.91316E+04 -3.65072E+04  8.01125E+03 -3.78807E+04 -1.50127E+04 -2.11610E+04 -3.38244E+04
  7.07488E+03 -3.36432E+04  2.86599E+04 -1.24285E+04  2.65556E+04  1.04609E+04  2.77597E+03  1.74392E+04
 -1.29228E+04  7.07056E+03 -9.56970E+03 -7.65990E+03  5.74635E+03 -1.01619E+04  1.72644E+04  6.32564E+03
  1.19777E+04  2.14579E+04 -6.68236E+03  2.29590E+04 -2.14957E+04  8.82123E+03 -2.46921E+04 -6.48804E+03
 -1.59004E+04 -1.62356E+04 -5.19056E+03 -1.62189E+04  3.88887E+03 -1.39659E+04  1.19226E+04 -1.37109E+04
  2.06331E+04 -1.14894E+04  2.75702E+04  1.07239E+03  2.11299E+04  1.59824E+04  4.18034E+03  3.17976E+04
 -1.59189E+04  2.71786E+04 -2.55495E+04  9.35153E+03 -1.97169E+04 -1.02052E+04 -4.20402E+03 -1.39744E+04
  2.73417E+03 -4.62986E+03 -2.19208E+03  5.26301E+03 -1.22402E+04  5.48725E+03 -1.29389E+04 -4.47948E+03
 -8.46278E+03 -1.52349E+04  4.37731E+03 -1.90347E+04  1.21492E+04 -1.36575E+04  1.38673E+04 -1.32714E+03
  8.66805E+03  1.05907E+04 -7.71694E+02  1.54768E+04 -9.91127E+03  8.36837E+03 -1.48510E+04 -3.47707E+03
 -1.13686E+04 -1.40042E+04 -1.41126E+03 -1.85922E+04  8.43201E+03 -1.48945E+04  1.56124E+04 -7.00025E+03
  1.41094E+04  5.25030E+02  9.90563E+03  3.77989E+03  4.94252E+03  4.51381E+02  7.35588E+03 -1.15511E+03
  1.34608E+04  2.64523E+03  1.38733E+04  1.23582E+04  8.72035E+03  2.39400E+04 -3.36105E+03  2.54289E+04
 -1.54901E+04  1.92576E+04 -2.32423E+04  9.13635E+03 -2.38905E+04 -1.54900E+03 -2.03926E+04 -1.33355E+04
 -9.83777E+03 -1.93500E+04  6.38792E+03 -1.81363E+04  1.63471E+04 -1.07150E+04  1.50089E+04  3.46705E+03
  6.47482E+03  1.07123E+04 -7.02627E+03  9.91551E+03 -1.29238E+04  2.73324E+03 -1.02313E+04 -7.87452E+03
 -3.25155E+02 -1.17133E+04  5.70208E+03 -9.07386E+03  7.40757E+03 -1.27279E+03  1.31165E+03  4.55658E+03
 -5.26248E+03  1.08247E+03 -3.24024E+03 -4.34429E+03  5.72860E+02 -9.77864E+03  7.51775E+03 -9.30940E+03
  1.17120E+04 -4.19320E+03  1.11832E+04  2.51426E+03  9.35374E+03  9.01349E+03  4.53891E+03  1.30187E+04
 -1.63452E+03  1.51580E+04 -9.14393E+03  9.67033E+03 -1.05474E+04  3.16679E+03 -8.00055E+03 -1.73326E+03
 -4.40680E+03 -2.98512E+03 -7.24728E+02  1.50982E+03 -1.69698E+03  1.96761E+03 -3.72920E+03  3.54571E+03
 -7.74596E+03 -5.51546E+02 -8.27030E+03 -7.14204E+03 -3.77367E+03 -1.09631E+04  3.27534E+03 -8.24013E+03
  6.99412E+03 -3.49972E+03  5.01969E+03  2.07658E+03  8.28909E+02  2.92796E+03 -3.26343E+03 -2.83909E+02
 -3.17830E+03 -5.02913E+03 -4.93693E+02 -6.79145E+03  3.73688E+03 -7.36890E+03  9.52415E+03 -3.51962E+03
  1.10260E+04  4.07667E+02  8.23853E+03  5.70045E+03  1.80563E+03  8.24364E+03 -5.16123E+03  7.73655E+03
 -6.65249E+03  2.61622E+03 -3.48706E+03 -1.21892E+03  1.35254E+03 -1.68010E+03  4.44113E+03 -1.18956E+03
  3.94579E+03  3.13552E+03  1.06542E+03  6.02026E+03 -4.43977E+03  5.98268E+03 -7.38518E+03  1.54328E+03
 -4.54094E+03 -3.49528E+03  2.85839E+02 -6.77514E+03  3.49190E+03 -3.33219E+03  3.48991E+03  9.52544E+02
  6.11132E+02  3.21947E+03 -3.89392E+03  4.34402E+03 -4.07335E+03  2.33975E+03 -4.17451E+03 -9.01072E+02
 -2.72100E+03 -5.67342E+03  9.73484E+02 -6.72860E+03  5.32768E+03 -4.37898E+03  5.65350E+03  1.01497E+03
  4.23123E+03  4.73698E+03  1.09178E+02  7.18084E+03 -4.58200E+03  4.24993E+03 -5.06482E+03 -3.22753E+02
 -5.60997E+03 -4.84726E+03 -1.62506E+03 -4.52550E+03  2.40485E+03 -4.30645E+03  2.79279E+03 -3.06893E+03
  2.85339E+03  1.62683E+02  1.62872E+02  1.25236E+03  6.59317E+02 -1.85667E+02 -1.91827E+02 -1.51671E+03
  3.76920E+03 -3.16217E+02  4.99400E+03  3.47958E+02  5.20931E+03  2.73948E+03  4.92460E+03  6.42766E+03
 -9.99742E+02  7.64891E+03 -7.32352E+03  5.81368E+03 -9.41696E+03  1.08885E+03 -7.38181E+03 -2.33298E+03
 -3.93938E+03 -6.13001E+03 -6.35516E+02 -5.07458E+03  1.95127E+03 -1.82373E+03  1.52722E+03 -1.90453E+03
  1.50125E+03 -1.22436E+03  1.91367E+03 -2.43115E+03  3.51248E+03 -1.31400E+03  3.31183E+03  4.76825E+02
  4.19370E+03  1.01021E+03  8.38421E+02  3.12474E+03 -1.32089E+03  2.47331E+03 -4.03027E+03  2.36967E+03
 -4.54422E+03 -6.91615E+02 -1.63638E+03 -2.80324E+03  5.26620E+02 -4.67942E+03  3.03340E+03 -5.19953E+03
  4.55275E+03 -3.02607E+03  5.91279E+03  3.40235E+01  4.50602E+03  3.73699E+03  1.27900E+03  5.55080E+03
 -1.74885E+03  5.29161E+03 -3.29918E+03  1.64029E+03 -1.76514E+03 -7.11743E+02 -3.86199E+02 -2.22412E+02
 -4.26397E+02  6.98399E+02 -8.90758E+02  1.81418E+03 -2.43322E+03  8.22912E+02 -3.77516E+03 -1.33511E+02
 -1.41872E+03 -3.75957E+03  9.40577E+02 -4.50573E+03  2.64440E+03 -3.86925E+03  2.83155E+03 -1.13472E+03
  3.85480E+03  2.07102E+03  1.64730E+03  2.83811E+03 -7.20162E+02  4.17909E+03 -2.30161E+03  2.35837E+03
 -3.49462E+03  6.04183E+02 -3.26229E+03 -2.08064E+03 -1.90727E+02 -2.69954E+03  1.45761E+03 -2.11883E+03
  2.40547E+03 -1.32837E+03  1.41019E+03  6.21058E+02  2.24439E+02  1.78466E+03  7.28645E+02  4.74451E+02
  1.49050E+03  7.16406E+02  9.46619E+02  9.90523E+02  1.19972E+03  2.13099E+03  1.48473E+03  1.67335E+03
 -1.39067E+03  2.89133E+03 -2.32068E+03  3.78746E+03 -2.73968E+03  1.01863E+03 -3.92086E+03 -2.13367E+02
 -1.41924E+03 -3.04497E+03  6.53352E+02 -4.17027E+03  1.69067E+03 -2.42961E+03  2.59654E+03 -9.52717E+02
  2.24195E+03  1.72769E+03  2.08280E+02  2.12258E+03 -5.76367E+02  1.02526E+03 -8.82397E+02 -1.82867E+02
 -6.42706E+02 -1.41172E+03  1.10931E+03 -1.38007E+03  1.09426E+03 -8.66520E+02  1.03292E+03  4.53355E+02
  5.72585E+02  3.50660E+02  6.60686E+02 -1.01298E+02 -1.11367E+02  5.00403E+02  1.23532E+03 -7.01803E+01
  6.28814E+01 -2.07370E+02  1.53381E+03  6.47389E+02  2.08534E+02  2.09373E+03 -2.91807E+02  2.57476E+03
 -1.63074E+03  9.31983E+02 -1.65416E+03  1.38761E+02 -2.07557E+03 -6.30663E+02 -3.28064E+02 -7.24260E+02
  7.61847E+02 -1.07500E+03  1.05860E+03 -6.03292E+02  6.05082E+02  1.01416E+03 -8.20734E+02  1.01331E+03
 -1.47521E+03  9.94163E+02 -1.03435E+03 -1.12208E+03 -4.59107E+02 -1.80243E+03  7.24753E+01 -1.52641E+03
  2.20356E+02 -3.43067E+02  8.05803E+02  2.03982E+02  1.29681E+03 -1.53704E+02  6.59152E+01  1.07263E+03
 -7.23422E+02  2.73236E+01 -6.05697E+02 -3.80108E+02  6.73844E+02 -7.11253E+02  1.36654E+03 -6.32099E+02
  9.12792E+02  4.03029E+02  2.52676E+03  4.02974E+02  1.12241E+03  1.64248E+03 -2.35921E+02  1.58572E+03
 -1.12853E+03  1.12573E+01 -1.31303E+03 -6.23417E+01 -9.89898E+02 -1.10221E+03  3.71492E+02 -2.28544E+02
  1.33149E+03 -7.27546E+02  8.39428E+02  4.47271E+02  6.16567E+01  1.20654E+03  1.25616E+02  9.26760E+02
 -3.77521E+02  1.28839E+03 -4.14822E+02  2.35475E+02 -3.03963E+01  5.12968E+02 -5.10192E+02  6.45152E+02
 -6.83086E+02  7.25476E+02 -1.55074E+03  2.55931E+02 -1.56592E+03  3.94489E+02 -2.13700E+03 -9.65852E+02
 -1.09466E+03 -1.93963E+03  3.20827E+02 -2.59462E+03  8.52403E+02 -2.12306E+03  2.59411E+03 -6.58929E+02
  2.24916E+03 -1.76721E+02  1.22794E+03  1.38079E+03 -5.44970E+02  1.39263E+03 -3.68474E+02  1.09729E+03
 -5.52819E+02  6.35862E+02 -6.38673E+02 -2.20453E+02 -6.93178E+02  1.62659E+02 -7.28462E+02  7.43553E+01
 -1.13686E+03  7.19155E+01 -1.05438E+03  1.97692E+02  3.31076E+02 -6.51442E+02 -5.88879E+02 -9.42724E+02
  1.27906E+03 -4.40626E+02  1.34413E+02  1.85591E+02  1.10087E+03  7.34204E+02 -3.37671E+02  1.21912E+03
 -9.70066E+02  2.05169E+03 -1.50575E+03  9.97548E+02 -1.75516E+03 -1.04816E+02 -1.10799E+03 -1.14492E+03
 -8.10154E+02 -1.05827E+03  2.05497E+01 -1.16125E+03  3.75004E+02 -6.23592E+02  6.62575E+02  3.46340E+01
  6.28844E+02  3.75619E+01  9.62423E+01  2.46626E+02 -1.63473E+02 -1.51011E+02 -1.97313E+02 -3.70753E+02
  3.14959E+02 -4.23975E+02 -1.01652E+01  3.56109E+02 -2.81832E+02  4.67237E+02  4.00652E+02  2.55252E+02
 -4.75056E+02  5.11789E+02 -2.43506E+02  2.74501E+02 -8.36965E+02 -2.77931E+02 -1.62781E+02 -8.35565E+02
  2.91127E+02 -7.30593E+02  6.06748E+02 -1.56932E+02  1.12216E+03 -7.16840E+02  2.56295E+02  4.86023E+02
  4.12544E+02  5.35213E+02 -2.25614E+01  4.72838E+02 -3.20626E+02  5.17193E+02 -2.94910E+02  3.87223E+02
 -6.73195E+01 -1.13713E+02 -2.49175E+02  3.82314E+02 -6.05410E+02  4.10001E+01 -7.36100E+02 -1.45274E+02
 -1.02194E+03  1.53802E+02 -6.26153E+02 -8.71168E+02  8.48907E+02 -1.63011E+03  6.47641E+02 -2.73700E+02
  8.62276E+02 -3.73983E+00 -4.15132E+02  1.01755E+02 -2.03213E+02  9.39319E+02 -3.75568E+02  6.00641E+02
