 $NMID ID='MM_0lb_SNR800_18hz_g50_58.RAW', FMTDAT='(8E13.5)'
 TRAMP=1., VOLUME=1. $END
  3.09689E+05  3.24346E+02  3.37424E+05  2.50591E+05  8.45530E+04  3.37420E+05 -1.32472E+05  2.50429E+05
 -1.89759E+05  8.27203E+04 -1.11133E+05 -3.27624E+04  1.39575E+03 -4.99368E+04  5.38187E+04  8.88758E+01
  3.54773E+04  5.26929E+04 -1.68308E+04  7.49319E+04 -6.03060E+04  6.28249E+04 -8.33957E+04  3.17843E+04
 -7.99675E+04 -1.13124E+04 -5.66619E+04 -5.04575E+04 -1.49195E+04 -6.85253E+04  2.67699E+04 -4.49810E+04
  3.92827E+04  4.11802E+03  1.57037E+04  4.70846E+04 -3.41087E+04  4.66526E+04 -6.54080E+04 -5.95281E+02
 -5.23937E+04 -5.63007E+04 -6.28544E+03 -7.54893E+04  3.31630E+04 -5.38130E+04  4.67625E+04 -1.64812E+04
  4.17776E+04  1.10448E+04  3.10038E+04  2.47838E+04  1.58571E+04  2.83446E+04 -5.03281E+03  2.67811E+04
 -2.18816E+04  1.26450E+04 -1.90518E+04 -4.09337E+03  4.71940E+03 -7.51576E+03  2.15360E+04  1.13515E+04
  7.40067E+03  3.37719E+04 -3.07138E+04  3.44381E+04 -6.16406E+04  2.30915E+03 -5.57066E+04 -4.17703E+04
 -1.25174E+04 -6.14156E+04  3.85999E+04 -4.39968E+04  5.58798E+04 -1.77394E+03  3.22058E+04  3.09162E+04
 -6.35578E+03  3.39656E+04 -2.87400E+04  1.36268E+04 -2.82802E+04 -4.86634E+03 -1.47573E+04 -1.02299E+04
 -7.46420E+03 -1.17608E+04 -8.67771E+02 -1.70332E+04  6.82966E+03 -2.28691E+04  1.49932E+04 -1.38107E+04
  1.20345E+04  4.48657E+03 -6.66090E+03  1.28615E+04 -1.97897E+04 -2.68428E+03 -8.08709E+03 -3.11379E+04
  2.11926E+04 -4.13530E+04  4.57065E+04 -1.87269E+04  4.27037E+04  1.87871E+04  1.44690E+04  4.24017E+04
 -1.53034E+04  3.15373E+04 -2.39217E+04  1.32268E+03 -8.49802E+03 -2.68375E+04  2.06996E+04 -3.17554E+04
  3.87069E+04 -7.59086E+03  3.22854E+04  2.29605E+04  1.60569E+04  4.34468E+04 -8.06387E+03  4.61811E+04
 -2.91117E+04  3.06375E+04 -3.81965E+04  8.27926E+03 -3.91056E+04 -1.53838E+04 -2.18196E+04 -3.52405E+04
  7.03044E+03 -3.49997E+04  2.96246E+04 -1.29436E+04  2.77103E+04  1.07779E+04  3.00835E+03  1.82732E+04
 -1.33141E+04  7.42189E+03 -9.79546E+03 -7.95080E+03  5.78919E+03 -1.01913E+04  1.73452E+04  6.42046E+03
  1.25777E+04  2.20423E+04 -6.63568E+03  2.39491E+04 -2.16367E+04  9.70860E+03 -2.56749E+04 -5.98067E+03
 -1.74657E+04 -1.67113E+04 -6.09664E+03 -1.78253E+04  3.88662E+03 -1.58260E+04  1.31953E+04 -1.50065E+04
  2.20202E+04 -1.17032E+04  2.90159E+04  1.61408E+03  2.15878E+04  1.71229E+04  4.10540E+03  3.30531E+04
 -1.65088E+04  2.79197E+04 -2.63829E+04  9.60337E+03 -1.99180E+04 -1.04050E+04 -4.26550E+03 -1.39003E+04
  2.37527E+03 -4.01852E+03 -3.01701E+03  5.96554E+03 -1.37082E+04  5.07788E+03 -1.43366E+04 -4.96438E+03
 -8.95069E+03 -1.60479E+04  4.75924E+03 -2.01640E+04  1.30887E+04 -1.44642E+04  1.52194E+04 -1.70933E+03
  9.32350E+03  1.11031E+04 -7.36937E+02  1.62346E+04 -1.08987E+04  9.08621E+03 -1.61476E+04 -3.60670E+03
 -1.23087E+04 -1.46925E+04 -1.46914E+03 -1.95490E+04  8.95385E+03 -1.61300E+04  1.65985E+04 -7.64558E+03
  1.47063E+04  8.39471E+02  1.07740E+04  3.90989E+03  5.42944E+03  5.11698E+02  7.78405E+03 -1.24660E+03
  1.44304E+04  2.89403E+03  1.57109E+04  1.30751E+04  9.72069E+03  2.58245E+04 -3.00242E+03  2.78196E+04
 -1.64585E+04  2.14566E+04 -2.54839E+04  1.03450E+04 -2.62297E+04 -1.80318E+03 -2.24636E+04 -1.52892E+04
 -1.05214E+04 -2.17563E+04  7.09377E+03 -2.01166E+04  1.75808E+04 -1.10891E+04  1.60234E+04  3.90084E+03
  6.58642E+03  1.16277E+04 -7.54354E+03  1.08682E+04 -1.40180E+04  2.43527E+03 -1.06419E+04 -8.48815E+03
 -1.45574E+02 -1.28381E+04  6.29171E+03 -9.86997E+03  8.38123E+03 -1.03657E+03  1.43647E+03  5.21789E+03
 -5.77429E+03  1.43824E+03 -4.02580E+03 -4.79115E+03  4.34591E+02 -1.09940E+04  8.15489E+03 -1.06643E+04
  1.29859E+04 -4.97197E+03  1.29590E+04  2.86407E+03  1.10545E+04  1.00753E+04  5.27168E+03  1.52420E+04
 -2.01906E+03  1.68017E+04 -1.02122E+04  1.07551E+04 -1.20622E+04  3.13132E+03 -8.61417E+03 -2.30812E+03
 -4.65914E+03 -3.69246E+03 -8.01550E+02  1.60255E+03 -1.81815E+03  2.05633E+03 -3.71685E+03  3.66475E+03
 -8.40323E+03 -4.92001E+02 -9.29193E+03 -7.29177E+03 -3.80472E+03 -1.23093E+04  3.61821E+03 -9.22726E+03
  7.33178E+03 -3.97729E+03  5.45564E+03  2.34216E+03  6.04729E+02  3.20184E+03 -3.54821E+03 -2.28267E+02
 -3.51584E+03 -5.33760E+03 -6.40572E+02 -7.63988E+03  4.27128E+03 -8.14002E+03  1.04761E+04 -4.33737E+03
  1.24407E+04  8.41347E+02  9.29018E+03  6.50200E+03  1.82012E+03  9.10320E+03 -5.61143E+03  8.63801E+03
 -7.45389E+03  2.75333E+03 -3.87130E+03 -1.12809E+03  1.54795E+03 -2.02007E+03  5.05933E+03 -1.39022E+03
  4.29752E+03  3.71384E+03  1.04352E+03  6.84273E+03 -4.57771E+03  6.84753E+03 -8.47195E+03  1.73808E+03
 -5.47987E+03 -4.11675E+03  4.19695E+02 -7.08924E+03  4.11540E+03 -3.39137E+03  3.90497E+03  1.12828E+03
  6.20317E+02  3.42917E+03 -4.16296E+03  5.00964E+03 -5.11735E+03  2.46614E+03 -4.73686E+03 -1.37494E+03
 -3.20957E+03 -6.66155E+03  1.30956E+03 -7.70289E+03  6.38152E+03 -4.90035E+03  6.95341E+03  1.06519E+03
  4.87613E+03  5.79303E+03 -1.03761E+02  7.46903E+03 -5.27002E+03  4.55153E+03 -5.46844E+03 -1.47681E+02
 -5.98735E+03 -5.56959E+03 -1.42308E+03 -5.46954E+03  2.64776E+03 -4.86509E+03  2.99274E+03 -2.76710E+03
  2.90412E+03 -1.04479E+02  1.10944E+02  1.46123E+03  4.51059E+02 -6.97456E+02  3.48033E+02 -2.13805E+03
  4.20989E+03 -6.53701E+02  5.89754E+03  8.02623E+02  5.82123E+03  3.46570E+03  5.40767E+03  7.94832E+03
 -1.29946E+03  9.12105E+03 -8.25981E+03  7.10696E+03 -1.03008E+04  1.21420E+03 -8.20600E+03 -3.17478E+03
 -4.21704E+03 -7.10461E+03 -3.06020E+02 -5.88099E+03  2.25219E+03 -2.38058E+03  1.66691E+03 -2.24339E+03
  1.28296E+03 -1.52939E+03  1.96003E+03 -2.38308E+03  3.48985E+03 -1.56305E+03  3.74758E+03  5.16612E+02
  4.70628E+03  1.33487E+03  1.30276E+03  3.67334E+03 -1.56973E+03  2.89431E+03 -4.61600E+03  2.89997E+03
 -5.27156E+03 -9.97170E+02 -1.78062E+03 -3.58673E+03  6.52893E+02 -5.49330E+03  3.44628E+03 -5.61237E+03
  5.68286E+03 -3.64722E+03  7.19639E+03  5.66558E+02  5.23727E+03  4.71788E+03  1.08716E+03  6.60951E+03
 -2.00753E+03  6.27283E+03 -3.70795E+03  1.81308E+03 -1.88209E+03 -1.01315E+03 -1.29329E+02 -5.37445E+02
 -4.73938E+02  3.70445E+02 -1.00822E+03  1.92166E+03 -2.76011E+03  1.11994E+03 -4.47334E+03 -2.11243E+02
 -1.75586E+03 -4.28110E+03  9.55794E+02 -4.88473E+03  2.96907E+03 -4.86269E+03  3.83400E+03 -1.55543E+03
  4.30257E+03  2.37866E+03  2.13679E+03  3.65638E+03 -9.53082E+02  4.83934E+03 -2.90306E+03  2.87357E+03
 -4.21677E+03  5.43199E+02 -3.34110E+03 -2.67582E+03 -4.09554E+02 -3.40124E+03  1.51344E+03 -2.65365E+03
  2.98802E+03 -1.06941E+03  1.61926E+03  5.18586E+02  5.39327E+02  1.71446E+03  1.06473E+03  2.39236E+02
  1.84632E+03  4.37101E+02  1.56384E+03  1.18188E+03  1.21548E+03  2.10781E+03  1.62400E+03  1.71797E+03
 -1.14610E+03  3.22195E+03 -2.75780E+03  4.35841E+03 -3.26602E+03  1.42488E+03 -4.71274E+03 -5.59468E+02
 -1.88321E+03 -4.21135E+03  3.82699E+02 -5.06905E+03  1.90794E+03 -2.67208E+03  3.37353E+03 -9.77178E+02
  2.74871E+03  1.82023E+03  5.59040E+02  2.52069E+03 -1.07801E+03  1.22259E+03 -1.04086E+03  4.33529E+01
 -7.47192E+02 -1.67127E+03  1.58990E+03 -1.75692E+03  1.53654E+03 -1.09206E+03  1.43716E+03  2.94506E+02
  7.83654E+02  3.80380E+02  8.36613E+02 -1.37800E+02 -4.37556E+02  6.27206E+02  1.67346E+03 -7.27606E+01
  4.52413E+01  2.27363E+01  1.92623E+03  6.64958E+02  3.01052E+02  2.31955E+03 -4.81099E+02  2.93233E+03
 -1.89246E+03  1.03401E+03 -1.98237E+03  4.63941E+02 -2.45766E+03 -1.10731E+03 -2.47078E+02 -1.13788E+03
  7.44426E+02 -1.40664E+03  1.02848E+03 -6.80438E+02  6.23236E+02  1.12389E+03 -8.28807E+02  1.27516E+03
 -1.60554E+03  7.63461E+02 -1.29463E+03 -1.37332E+03 -8.29913E+02 -2.29678E+03  1.64441E+02 -1.68135E+03
  7.90251E+02 -6.93837E+02  8.15883E+02  1.44343E+02  1.44467E+03  4.31405E+01  1.53912E+02  1.03384E+03
 -2.09088E+02  1.66088E+02 -9.38118E+02 -4.34975E+02  7.09988E+02 -9.49144E+02  2.01590E+03 -1.12730E+03
  1.34654E+03  3.31547E+02  2.96018E+03  1.14386E+03  1.07847E+03  1.53548E+03 -3.34863E+02  2.07041E+03
 -1.43978E+03  3.10150E+02 -1.70180E+03 -5.63603E+02 -9.20535E+02 -1.64159E+03  3.73333E+02 -7.35220E+02
  1.38825E+03 -5.93026E+02  1.08284E+03  6.72081E+02  4.83406E+02  1.64161E+03  4.18660E+02  1.34386E+03
 -2.34637E+02  1.13937E+03 -4.09150E+02  3.08865E+02  2.66748E+01  4.93158E+02 -8.38143E+02  6.91670E+02
 -7.15092E+02  1.33637E+03 -1.96638E+03  4.14373E+02 -1.79987E+03  2.21293E+01 -2.65629E+03 -1.02515E+03
 -9.52329E+02 -2.63888E+03  8.17869E+02 -2.67044E+03  1.18230E+03 -2.55439E+03  2.97917E+03 -1.08679E+03
  2.86652E+03 -1.64635E+02  1.55399E+03  1.61276E+03 -5.18552E+02  1.58604E+03 -6.96317E+02  1.36313E+03
 -9.11523E+02  7.49754E+02 -7.51504E+02 -3.34507E+02 -3.30024E+02  1.31446E+02 -6.99405E+02  9.64153E+01
 -1.00558E+03 -3.20165E+02 -9.87512E+02  6.44590E+01  3.05753E+02 -4.54647E+02 -4.00840E+02 -8.64040E+02
  1.42183E+03 -6.54856E+02  6.36193E+02  1.24414E+02  1.30108E+03  8.73016E+02 -3.72626E+02  1.26196E+03
 -9.81452E+02  2.51975E+03 -2.06569E+03  1.65095E+03 -2.01442E+03 -1.82514E+02 -1.39166E+03 -1.50170E+03
 -8.59757E+02 -1.28528E+03  1.04226E+02 -1.08802E+03  9.85769E+02 -6.37259E+02  8.80068E+02  2.07929E+02
  7.15341E+02  4.12048E+02  1.03432E+02  4.03073E+02 -5.30082E+02 -2.04759E+02 -7.40068E+01 -2.14020E+02
  3.80387E+02  6.69174E+01  2.18088E+02  1.61820E+02  1.04525E+02  5.72026E+02  5.30824E+02  2.90881E+01
 -6.03870E+02  6.34183E+02 -7.25476E+02  7.76371E+01 -1.10669E+03 -4.97638E+02  4.68656E+01 -1.08440E+03
  5.32954E+02 -8.36860E+02  4.29221E+02 -1.33905E+02  8.07472E+02 -3.72678E+02  3.44763E+02  8.53688E+02
  5.58718E+02  5.80966E+02 -3.18286E+02  5.74755E+02 -5.55331E+02  7.42196E+02 -4.05208E+02  3.86842E+01
 -4.19502E+02  7.09807E+01 -4.75747E+02  7.82237E+01 -6.75643E+02 -6.94533E+01 -8.91098E+02  2.50574E+02
 -1.03623E+03  2.56414E+02 -4.20591E+02 -7.54087E+02  5.47136E+02 -1.76047E+03  7.40516E+02 -2.70983E+02
  7.86554E+02  4.38351E+01 -1.93284E+02  1.98757E+02 -2.37410E+02  8.95015E+02 -6.42266E+02  9.95367E+02
