 $NMID ID='MM_0lb_SNR800_7hz_g45_59.RAW', FMTDAT='(8E13.5)'
 TRAMP=1., VOLUME=1. $END
  3.10160E+05  1.68307E+02  3.38192E+05  2.51115E+05  8.49337E+04  3.38240E+05 -1.32792E+05  2.52447E+05
 -1.91135E+05  8.38867E+04 -1.13009E+05 -3.22241E+04  4.62337E+02 -5.07882E+04  5.35244E+04 -1.82951E+02
  3.55550E+04  5.32928E+04 -1.63720E+04  7.62646E+04 -6.14477E+04  6.44622E+04 -8.53183E+04  3.25024E+04
 -8.29538E+04 -1.17855E+04 -5.84697E+04 -5.30888E+04 -1.52214E+04 -7.12534E+04  2.80802E+04 -4.69914E+04
  4.14621E+04  3.59728E+03  1.70237E+04  4.89544E+04 -3.49692E+04  4.80174E+04 -6.87608E+04  5.70798E+01
 -5.56440E+04 -5.80920E+04 -7.39804E+03 -7.94273E+04  3.54643E+04 -5.68966E+04  5.01881E+04 -1.86331E+04
  4.54562E+04  1.18136E+04  3.33525E+04  2.66962E+04  1.55347E+04  3.12405E+04 -6.41291E+03  2.80226E+04
 -2.29712E+04  1.21487E+04 -1.79460E+04 -6.04443E+03  7.79699E+03 -7.83349E+03  2.43126E+04  1.41366E+04
  7.25493E+03  3.79865E+04 -3.43384E+04  3.80195E+04 -6.67159E+04  2.13494E+03 -5.96402E+04 -4.56097E+04
 -1.29281E+04 -6.71677E+04  4.22208E+04 -4.78923E+04  6.25551E+04 -2.57024E+03  3.71832E+04  3.52958E+04
 -5.56848E+03  4.01145E+04 -3.22705E+04  1.94875E+04 -3.41716E+04 -3.14705E+03 -2.02628E+04 -1.20613E+04
 -9.93237E+03 -1.59176E+04 -1.13108E+02 -2.04585E+04  8.75373E+03 -2.37563E+04  1.59109E+04 -1.24639E+04
  1.02214E+04  6.83543E+03 -1.14055E+04  1.28693E+04 -2.47223E+04 -7.41410E+03 -9.05765E+03 -3.86674E+04
  2.55866E+04 -4.78374E+04  5.32153E+04 -2.15192E+04  4.95405E+04  2.13658E+04  1.75739E+04  4.78501E+04
 -1.69602E+04  3.72937E+04 -2.81017E+04  2.97492E+03 -1.24827E+04 -2.99872E+04  2.13713E+04 -3.75608E+04
  4.58385E+04 -1.17873E+04  4.17126E+04  2.53404E+04  2.19446E+04  5.27122E+04 -8.20756E+03  5.79105E+04
 -3.65270E+04  4.00318E+04 -4.94281E+04  1.15018E+04 -4.93027E+04 -1.89864E+04 -2.65950E+04 -4.35491E+04
  7.88600E+03 -4.35455E+04  3.54440E+04 -1.79114E+04  3.32254E+04  1.11534E+04  5.63662E+03  2.11121E+04
 -1.38739E+04  1.00303E+04 -1.14027E+04 -7.73875E+03  5.53732E+03 -1.18878E+04  1.91941E+04  5.26028E+03
  1.53012E+04  2.29396E+04 -5.11368E+03  2.79327E+04 -2.36465E+04  1.54044E+04 -3.27691E+04 -2.46967E+03
 -2.69210E+04 -1.91384E+04 -1.28493E+04 -2.60620E+04  4.69615E+03 -2.74931E+04  2.15447E+04 -2.46093E+04
  3.42542E+04 -1.51438E+04  3.99678E+04  5.74281E+03  2.84092E+04  2.58544E+04  4.63665E+03  4.32467E+04
 -2.01891E+04  3.49037E+04 -3.12830E+04  1.23122E+04 -2.33481E+04 -1.00652E+04 -5.23408E+03 -1.29301E+04
  9.38405E+01 -8.48412E+02 -8.12819E+03  8.99331E+03 -2.17008E+04  4.79012E+03 -2.19047E+04 -1.06452E+04
 -1.26700E+04 -2.45181E+04  6.86054E+03 -2.92949E+04  1.96596E+04 -2.08747E+04  2.37409E+04 -1.97431E+03
  1.56716E+04  1.72389E+04 -1.24829E+03  2.47870E+04 -1.74817E+04  1.44165E+04 -2.51976E+04 -5.03846E+03
 -1.78629E+04 -2.26771E+04 -2.31747E+03 -2.95748E+04  1.32386E+04 -2.49224E+04  2.41768E+04 -1.30078E+04
  2.37803E+04 -2.84267E+02  1.74715E+04  5.61426E+03  9.50849E+03  1.37151E+03  1.32531E+04 -2.10022E+03
  2.36767E+04  2.85302E+03  2.74311E+04  1.94445E+04  1.92168E+04  3.99494E+04 -2.57972E+03  4.75390E+04
 -2.72467E+04  3.99950E+04 -4.53964E+04  2.10358E+04 -4.91467E+04 -3.12964E+03 -3.87534E+04 -2.88479E+04
 -1.54922E+04 -4.08018E+04  1.46583E+04 -3.49573E+04  3.04615E+04 -1.64534E+04  2.62109E+04  8.72660E+03
  8.64762E+03  2.05995E+04 -1.22851E+04  1.66678E+04 -2.13173E+04  2.32748E+03 -1.64228E+04 -1.37387E+04
 -3.19999E+02 -2.07904E+04  1.14975E+04 -1.53886E+04  1.43355E+04 -1.26616E+03  3.72396E+03  1.04370E+04
 -9.60092E+03  5.10476E+03 -1.04790E+04 -7.65705E+03 -2.47034E+03 -1.98413E+04  1.27195E+04 -2.20572E+04
  2.48715E+04 -1.26441E+04  2.90012E+04  3.74446E+03  2.58381E+04  2.07451E+04  1.17832E+04  3.24781E+04
 -6.90682E+03  3.48044E+04 -2.28551E+04  2.12183E+04 -2.51079E+04  4.16743E+03 -1.71606E+04 -6.71881E+03
 -6.71299E+03 -8.71599E+03 -3.47816E+02 -2.73297E+02 -2.95620E+03  4.17503E+03 -8.25252E+03  5.77565E+03
 -1.59115E+04 -1.22264E+03 -1.64212E+04 -1.30917E+04 -6.34352E+03 -2.09790E+04  7.30568E+03 -1.75496E+04
  1.41149E+04 -6.72183E+03  9.81471E+03  4.67026E+03 -3.52871E+02  6.83397E+03 -9.37713E+03 -2.94900E+02
 -8.19944E+03 -1.10353E+04 -1.17342E+03 -1.76535E+04  1.07832E+04 -1.86553E+04  2.25429E+04 -9.79609E+03
  2.65814E+04  2.50361E+03  1.93786E+04  1.59371E+04  3.48492E+03  2.16090E+04 -1.06177E+04  1.70118E+04
 -1.44636E+04  4.63845E+03 -7.43507E+03 -3.76260E+03  2.56774E+03 -5.21369E+03  9.01046E+03 -9.67225E+02
  8.42530E+03  8.38265E+03  1.52628E+03  1.47235E+04 -1.00761E+04  1.38739E+04 -1.73118E+04  3.52704E+03
 -1.26074E+04 -9.15718E+03 -9.22064E+01 -1.53481E+04  1.02892E+04 -7.54736E+03  1.04579E+04  3.51152E+03
  2.40205E+03  1.15298E+04 -9.28387E+03  1.29219E+04 -1.57315E+04  6.26896E+03 -1.64073E+04 -6.14897E+03
 -9.32403E+03 -1.83702E+04  4.63038E+03 -2.16714E+04  1.78761E+04 -1.24192E+04  1.96240E+04  3.48498E+03
  1.18159E+04  1.51854E+04 -1.75010E+03  1.81587E+04 -1.35557E+04  1.05653E+04 -1.49216E+04 -1.39778E+03
 -1.19921E+04 -1.18070E+04 -1.88500E+03 -1.36989E+04  7.74735E+03 -1.07985E+04  9.14748E+03 -4.17128E+03
  5.35274E+03  2.84964E+03 -1.06722E+03  2.10292E+03 -1.32757E+03 -4.06453E+03  3.37795E+03 -9.17958E+03
  1.36315E+04 -6.50015E+03  1.88288E+04  2.38829E+03  1.83667E+04  1.31510E+04  1.15224E+04  2.48792E+04
 -6.22886E+03  2.81874E+04 -2.30316E+04  2.09645E+04 -3.03279E+04  4.31309E+03 -2.41344E+04 -1.07809E+04
 -1.19312E+04 -2.00542E+04 -3.31247E+02 -1.71062E+04  5.58308E+03 -9.99640E+03  5.91659E+03 -6.16462E+03
  4.60514E+03 -3.52966E+03  4.26631E+03 -4.40141E+03  6.95357E+03 -4.97678E+03  9.39004E+03 -2.42033E+03
  1.20301E+04  2.51228E+03  6.61083E+03  1.12935E+04 -2.13039E+03  1.33805E+04 -1.35408E+04  1.03290E+04
 -1.72960E+04 -1.28454E+03 -1.16948E+04 -1.21627E+04 -1.80513E+03 -1.93487E+04  9.85695E+03 -1.90374E+04
  1.93994E+04 -9.88702E+03  2.34070E+04  3.10010E+03  1.60580E+04  1.67476E+04  2.06821E+03  2.13338E+04
 -9.06682E+03  1.71373E+04 -1.26950E+04  5.93795E+03 -8.56000E+03 -1.75708E+03 -3.70792E+03 -2.89328E+03
 -1.45037E+03 -2.62240E+02 -3.05809E+03  3.33850E+03 -6.92313E+03  2.92210E+03 -1.22378E+04 -1.90287E+03
 -8.93355E+03 -1.19918E+04 -4.88829E+02 -1.81656E+04  1.08436E+04 -1.63809E+04  1.78850E+04 -5.07328E+03
  1.82222E+04  8.02952E+03  8.41399E+03  1.63813E+04 -3.63644E+03  1.82810E+04 -1.29899E+04  1.15496E+04
 -1.77939E+04  2.86796E+02 -1.30945E+04 -1.13008E+04 -1.79023E+03 -1.55743E+04  7.91341E+03 -1.16248E+04
  1.18311E+04 -3.24244E+03  7.99800E+03  2.99776E+03  2.77782E+03  5.12820E+03  1.86194E+03  2.70977E+03
  3.62025E+03  1.27793E+03  4.43074E+03  1.92042E+03  5.40881E+03  6.11205E+03  4.07930E+03  1.02862E+04
 -3.51568E+03  1.48395E+04 -1.32449E+04  1.43003E+04 -1.98392E+04  3.72282E+03 -1.98688E+04 -8.28768E+03
 -9.42435E+03 -1.87709E+04  3.19925E+03 -2.00376E+04  1.20287E+04 -1.31035E+04  1.55146E+04 -3.47154E+03
  1.19220E+04  7.38916E+03  2.10324E+03  1.10829E+04 -5.14030E+03  7.06464E+03 -7.93292E+03 -1.41873E+03
 -3.89808E+03 -8.00257E+03  4.37329E+03 -8.88523E+03  8.48346E+03 -3.95105E+03  7.49048E+03  1.90051E+03
  4.39582E+03  3.86724E+03  1.60044E+03  3.23428E+03 -1.24988E+03  2.87356E+03  1.29093E+03 -7.77571E+02
  3.55852E+03 -1.15866E+03  7.54920E+03  3.35872E+03  4.37762E+03  9.53844E+03 -1.92197E+03  1.34436E+04
 -9.63340E+03  9.39357E+03 -1.29126E+04  2.57459E+03 -1.09592E+04 -3.90703E+03 -4.94401E+03 -8.13019E+03
  1.06574E+03 -7.83918E+03  4.93095E+03 -3.52995E+03  4.30211E+03  3.91408E+03 -1.93218E+03  6.37267E+03
 -7.94118E+03  4.05310E+03 -8.89115E+03 -4.46012E+03 -5.21967E+03 -1.10164E+04  1.51674E+03 -1.09488E+04
  6.64006E+03 -6.82500E+03  8.96001E+03 -1.22773E+03  6.81510E+03  2.94631E+03  7.42368E+02  5.54598E+03
 -3.97405E+03  2.14629E+03 -4.51148E+03 -3.80283E+03  1.58998E+03 -8.54162E+03  9.57640E+03 -6.70290E+03
  1.33654E+04  1.11095E+03  1.18748E+04  8.73040E+03  3.71266E+03  1.28692E+04 -4.66986E+03  1.26947E+04
 -1.12605E+04  5.62982E+03 -1.11797E+04 -1.34788E+03 -5.88049E+03 -8.26643E+03  2.21057E+03 -8.37248E+03
  8.32565E+03 -4.04889E+03  7.17926E+03  3.19066E+03  2.21571E+03  6.86111E+03 -1.04351E+03  6.55746E+03
 -3.44194E+03  3.78266E+03 -2.91581E+03  1.38096E+03 -1.48661E+03  1.12158E+03 -2.15072E+03  2.76492E+03
 -3.53836E+03  5.23785E+03 -8.49605E+03  4.41219E+03 -1.29856E+04 -2.46174E+02 -1.53650E+04 -8.94773E+03
 -7.44615E+03 -1.79876E+04  3.34021E+03 -2.04657E+04  1.26820E+04 -1.55324E+04  1.94798E+04 -5.86991E+03
  1.82365E+04  3.91989E+03  1.12120E+04  1.25098E+04  1.70069E+03  1.44249E+04 -5.34304E+03  1.07022E+04
 -8.60711E+03  3.67036E+03 -5.07817E+03 -2.34348E+03 -2.26382E+03 -1.64815E+03 -9.18619E+02 -1.80786E+02
 -2.03574E+03  6.46113E+02 -2.75877E+03 -9.78166E+02 -1.34680E+03 -2.95194E+03  5.03991E+02 -5.01991E+03
  5.73258E+03 -4.85932E+03  8.92155E+03 -1.30751E+02  9.54647E+03  7.21303E+03  3.40998E+03  1.45429E+04
 -6.74236E+03  1.58704E+04 -1.53676E+04  1.00197E+04 -1.77068E+04 -1.59938E+03 -1.35439E+04 -1.07847E+04
 -5.33017E+03 -1.44741E+04  3.51120E+03 -1.36192E+04  9.42875E+03 -7.72754E+03  9.35074E+03  4.87517E+02
  5.29967E+03  4.95283E+03 -5.13709E+02  3.99894E+03 -2.40612E+03 -6.65489E+02  8.47021E+01 -3.83768E+03
  4.65938E+03 -2.14741E+03  5.76579E+03  1.85018E+03  3.81860E+03  6.15246E+03  3.55167E+01  7.65259E+03
 -6.25045E+03  6.44954E+03 -9.98713E+03  7.53163E+02 -8.97054E+03 -6.94438E+03 -1.15833E+03 -1.23605E+04
  7.44938E+03 -1.03978E+04  1.17092E+04 -3.03750E+03  1.14024E+04  3.18130E+03  6.99699E+03  9.16174E+03
  1.51526E+03  1.01651E+04 -4.09412E+03  7.55533E+03 -6.28474E+03  4.63143E+03 -5.35286E+03  8.42422E+02
 -3.10020E+03 -1.50135E+02 -2.85404E+03  1.29561E+03 -5.31589E+03  1.49120E+03 -7.56947E+03 -1.46345E+03
 -7.54191E+03 -5.73626E+03 -2.23961E+03 -1.00562E+04  4.74302E+03 -1.02986E+04  8.92634E+03 -5.09330E+03
  9.94266E+03  1.12862E+03  5.73571E+03  7.33728E+03 -1.18232E+03  1.02052E+04 -7.87959E+03  6.28494E+03
