 $NMID ID='MM_0lb_SNR800_19hz_g60_43.RAW', FMTDAT='(8E13.5)'
 TRAMP=1., VOLUME=1. $END
  3.09713E+05  4.60565E+01  3.37459E+05  2.50270E+05  8.47466E+04  3.37609E+05 -1.32754E+05  2.50635E+05
 -1.90100E+05  8.26641E+04 -1.11468E+05 -3.25049E+04  1.12998E+03 -5.03498E+04  5.38011E+04 -2.29434E+02
  3.54832E+04  5.27821E+04 -1.68830E+04  7.55221E+04 -6.05782E+04  6.33686E+04 -8.35350E+04  3.17965E+04
 -8.02416E+04 -1.13400E+04 -5.68401E+04 -5.11363E+04 -1.50375E+04 -6.90179E+04  2.72477E+04 -4.56065E+04
  3.95136E+04  3.84517E+03  1.59786E+04  4.77843E+04 -3.38598E+04  4.66032E+04 -6.60937E+04 -4.38866E+02
 -5.30660E+04 -5.64374E+04 -6.69712E+03 -7.61624E+04  3.35135E+04 -5.42216E+04  4.71615E+04 -1.70119E+04
  4.26290E+04  1.11633E+04  3.11725E+04  2.49430E+04  1.57104E+04  2.88616E+04 -4.99365E+03  2.69805E+04
 -2.21522E+04  1.26530E+04 -1.87887E+04 -4.65092E+03  4.71822E+03 -7.53756E+03  2.19392E+04  1.16997E+04
  7.50630E+03  3.40602E+04 -3.11200E+04  3.49876E+04 -6.19785E+04  2.25680E+03 -5.63239E+04 -4.22316E+04
 -1.27724E+04 -6.20278E+04  3.90863E+04 -4.44257E+04  5.67726E+04 -2.10442E+03  3.29551E+04  3.13965E+04
 -6.23503E+03  3.46299E+04 -2.94210E+04  1.46679E+04 -2.89792E+04 -5.02183E+03 -1.55507E+04 -1.04026E+04
 -7.67216E+03 -1.22480E+04 -7.22980E+02 -1.72292E+04  6.91036E+03 -2.28417E+04  1.53664E+04 -1.34439E+04
  1.17420E+04  4.47939E+03 -7.19445E+03  1.30220E+04 -2.02159E+04 -3.23358E+03 -8.01416E+03 -3.17614E+04
  2.16699E+04 -4.16567E+04  4.64354E+04 -1.88365E+04  4.33147E+04  1.85935E+04  1.49858E+04  4.28462E+04
 -1.57015E+04  3.21323E+04 -2.43252E+04  1.65556E+03 -8.71771E+03 -2.71529E+04  2.06861E+04 -3.22599E+04
  3.90722E+04 -7.68565E+03  3.32515E+04  2.29892E+04  1.64536E+04  4.42511E+04 -7.72320E+03  4.72883E+04
 -2.96088E+04  3.14031E+04 -3.91989E+04  8.64617E+03 -3.98885E+04 -1.54511E+04 -2.23167E+04 -3.58412E+04
  6.91778E+03 -3.55749E+04  3.01508E+04 -1.33535E+04  2.77793E+04  1.07822E+04  3.16051E+03  1.85234E+04
 -1.31726E+04  7.52889E+03 -1.00103E+04 -7.67385E+03  5.68705E+03 -1.02663E+04  1.76939E+04  6.20466E+03
  1.26949E+04  2.18827E+04 -6.33046E+03  2.39416E+04 -2.18423E+04  9.76653E+03 -2.59308E+04 -5.75437E+03
 -1.82038E+04 -1.67053E+04 -6.56364E+03 -1.80917E+04  3.66814E+03 -1.62404E+04  1.34688E+04 -1.57289E+04
  2.25629E+04 -1.21899E+04  2.98782E+04  1.63643E+03  2.22442E+04  1.75158E+04  4.14101E+03  3.36086E+04
 -1.64346E+04  2.86319E+04 -2.64206E+04  9.53322E+03 -1.99535E+04 -1.05120E+04 -4.14921E+03 -1.34703E+04
  2.31942E+03 -3.65792E+03 -3.25241E+03  5.79266E+03 -1.39930E+04  5.12648E+03 -1.42976E+04 -5.24252E+03
 -9.03399E+03 -1.66022E+04  4.97714E+03 -2.05042E+04  1.35266E+04 -1.48047E+04  1.56722E+04 -1.06047E+03
  9.57020E+03  1.13800E+04 -8.33711E+02  1.66544E+04 -1.12541E+04  9.54415E+03 -1.64458E+04 -3.72538E+03
 -1.24830E+04 -1.46286E+04 -1.80312E+03 -2.01091E+04  9.02699E+03 -1.62853E+04  1.69690E+04 -7.84023E+03
  1.53903E+04  7.28685E+02  1.09362E+04  3.90426E+03  5.69963E+03  5.92580E+02  8.27326E+03 -1.37900E+03
  1.44062E+04  2.79207E+03  1.58204E+04  1.34880E+04  1.00487E+04  2.58981E+04 -2.96443E+03  2.83381E+04
 -1.67895E+04  2.21478E+04 -2.63098E+04  1.07153E+04 -2.68524E+04 -1.99901E+03 -2.29232E+04 -1.53137E+04
 -1.08254E+04 -2.20782E+04  7.42467E+03 -2.03798E+04  1.75354E+04 -1.13130E+04  1.63664E+04  3.75855E+03
  6.85938E+03  1.16936E+04 -7.38258E+03  1.08671E+04 -1.38945E+04  2.65032E+03 -1.09159E+04 -8.69510E+03
 -1.06783E+02 -1.28318E+04  6.65972E+03 -1.00874E+04  8.28985E+03 -1.36362E+03  1.54677E+03  5.17755E+03
 -5.59648E+03  1.70085E+03 -3.86836E+03 -4.77980E+03  3.69059E+02 -1.10009E+04  8.26162E+03 -1.08434E+04
  1.28155E+04 -5.11371E+03  1.30966E+04  3.14823E+03  1.14156E+04  1.01482E+04  5.30835E+03  1.50274E+04
 -1.69006E+03  1.68587E+04 -1.06439E+04  1.10260E+04 -1.19161E+04  3.23122E+03 -9.30292E+03 -1.86537E+03
 -4.42014E+03 -3.32266E+03 -6.59783E+02  1.42781E+03 -1.97464E+03  2.08432E+03 -4.11870E+03  3.61888E+03
 -8.46494E+03 -5.24749E+02 -9.10135E+03 -7.49881E+03 -3.85213E+03 -1.18653E+04  3.63579E+03 -8.71037E+03
  7.50258E+03 -3.91070E+03  5.46671E+03  2.34504E+03  4.89381E+02  2.99020E+03 -3.41138E+03 -1.86433E+02
 -3.81243E+03 -5.64266E+03 -8.67513E+02 -7.54769E+03  4.16576E+03 -8.26644E+03  1.06766E+04 -4.29476E+03
  1.21768E+04  7.05258E+02  9.08172E+03  6.36493E+03  2.08546E+03  9.12189E+03 -5.49478E+03  8.38067E+03
 -7.04440E+03  2.67569E+03 -3.69585E+03 -1.14496E+03  1.38938E+03 -2.19299E+03  5.12092E+03 -9.56587E+02
  4.31778E+03  3.45434E+03  1.19987E+03  6.74718E+03 -4.47638E+03  6.77503E+03 -8.32663E+03  1.63959E+03
 -5.09778E+03 -3.66609E+03  2.05313E+02 -6.81562E+03  3.77281E+03 -3.26087E+03  3.96627E+03  1.20865E+03
  7.24894E+02  3.59910E+03 -4.04240E+03  4.82069E+03 -5.06642E+03  2.46250E+03 -4.66939E+03 -1.10629E+03
 -2.98071E+03 -6.27909E+03  1.19959E+03 -7.40957E+03  6.08618E+03 -4.69081E+03  6.60296E+03  1.30019E+03
  4.69696E+03  5.28708E+03  1.34254E+02  7.54432E+03 -5.32463E+03  4.05903E+03 -5.33027E+03 -3.28887E+02
 -5.98673E+03 -5.36094E+03 -1.51128E+03 -5.12370E+03  2.84278E+03 -4.78554E+03  3.29629E+03 -2.66066E+03
  2.74340E+03  2.37478E+02  3.83828E+02  1.51469E+03  6.82522E+02 -3.39193E+02  9.51416E+01 -2.01620E+03
  3.99563E+03 -1.06136E+03  5.38136E+03  6.73859E+02  5.40721E+03  3.53873E+03  5.35142E+03  7.31119E+03
 -1.23768E+03  8.81089E+03 -7.65585E+03  6.84221E+03 -1.00644E+04  1.16004E+03 -7.80536E+03 -2.78176E+03
 -4.32935E+03 -6.73750E+03 -3.81111E+02 -5.17394E+03  2.21377E+03 -2.22094E+03  1.80180E+03 -2.15357E+03
  1.16036E+03 -1.52458E+03  2.06502E+03 -2.39127E+03  3.51402E+03 -1.31807E+03  3.79209E+03  3.09496E+02
  4.64209E+03  9.83125E+02  1.29163E+03  3.54962E+03 -1.29371E+03  2.66254E+03 -4.53276E+03  2.43968E+03
 -4.96913E+03 -1.15205E+03 -1.81173E+03 -3.29094E+03  4.31104E+02 -4.76883E+03  3.25791E+03 -5.42098E+03
  4.90511E+03 -3.27150E+03  6.59503E+03 -1.21312E+02  5.06854E+03  4.44209E+03  1.11092E+03  5.86858E+03
 -2.02328E+03  5.93772E+03 -3.36021E+03  1.91360E+03 -2.11523E+03 -1.26286E+03 -4.91887E+02 -5.60334E+02
 -5.50334E+02  5.16944E+02 -1.02810E+03  1.88410E+03 -2.55094E+03  1.22479E+03 -3.91076E+03 -5.73043E+02
 -1.71179E+03 -4.06211E+03  8.85310E+02 -4.60183E+03  3.04041E+03 -4.33910E+03  3.54933E+03 -1.11128E+03
  3.92293E+03  2.62495E+03  1.65460E+03  3.02524E+03 -7.72552E+02  3.94486E+03 -2.57462E+03  2.66276E+03
 -3.61296E+03  5.85837E+02 -3.51942E+03 -2.28401E+03  5.87668E+01 -3.10758E+03  1.59238E+03 -2.42600E+03
  2.59781E+03 -1.22790E+03  1.61370E+03  4.59344E+02  3.00963E+02  1.53016E+03  7.85413E+02  7.13139E+02
  1.13997E+03  5.57073E+02  1.08358E+03  9.89649E+02  1.05334E+03  2.09702E+03  1.50220E+03  1.41189E+03
 -1.23528E+03  2.83298E+03 -2.27034E+03  4.12820E+03 -2.64101E+03  1.09828E+03 -3.96187E+03 -5.23757E+02
 -1.42005E+03 -3.64323E+03  4.29343E+02 -4.54136E+03  1.38463E+03 -2.21543E+03  2.87153E+03 -7.58041E+02
  2.21776E+03  1.74819E+03  4.04890E+02  2.35618E+03 -7.28996E+02  1.24558E+03 -1.03626E+03 -1.35241E+02
 -6.74256E+02 -1.45561E+03  1.22033E+03 -1.41295E+03  1.16559E+03 -9.08461E+02  1.15610E+03  4.48569E+02
  7.89922E+02  3.13413E+02  6.81690E+02 -2.41773E+02 -5.66503E+02  6.56575E+02  1.50497E+03  9.10723E+01
  1.16223E+02 -1.72866E+02  1.86592E+03  6.13442E+02  4.46498E+02  2.01052E+03 -5.72899E+01  2.59771E+03
 -1.42840E+03  7.42984E+02 -1.72062E+03  4.12964E+02 -2.07502E+03 -7.31996E+02 -6.34540E+01 -7.33856E+02
  3.39894E+02 -1.23614E+03  9.06613E+02 -7.45924E+02  5.79121E+02  1.40474E+03 -5.32422E+02  1.03959E+03
 -1.10988E+03  3.51104E+02 -9.89399E+02 -1.27738E+03 -5.15824E+02 -2.09779E+03  1.87574E+02 -1.58461E+03
  1.70938E+02 -7.19292E+02  6.83140E+02 -6.10761E+01  1.32584E+03 -1.49356E+02  3.82683E+02  1.11856E+03
 -3.41169E+02  8.39653E+01 -1.06840E+03 -2.69443E+01  3.65006E+02 -6.85566E+02  1.77090E+03 -7.34495E+02
  8.88653E+02  2.07687E+02  2.53247E+03  4.81888E+02  1.07844E+03  1.77646E+03 -1.22237E+02  1.56850E+03
 -1.37385E+03 -1.16340E+01 -1.65602E+03 -3.26352E+01 -8.69558E+02 -1.19869E+03  2.62661E+02 -3.13406E+02
  1.32116E+03 -7.98684E+02  5.77319E+02  8.69869E+02  1.33368E+02  1.04231E+03  4.14813E+02  1.08684E+03
 -1.75025E+02  1.04635E+03 -3.58153E+02  2.84260E+02  9.08779E+01  7.17094E+02 -9.55653E+02  6.02921E+02
 -7.06762E+02  8.67057E+02 -1.56572E+03  4.04516E+02 -1.42163E+03  1.00249E+02 -2.18283E+03 -8.32376E+02
 -7.37868E+02 -1.89625E+03  6.26186E+02 -2.53867E+03  6.04865E+02 -2.11386E+03  2.24913E+03 -7.05980E+02
  2.04172E+03 -3.35390E+01  7.66848E+02  1.35391E+03 -5.16379E+02  1.15009E+03 -6.15832E+02  9.45723E+02
 -1.04303E+03  7.40531E+02 -3.12695E+02 -9.71942E+01 -3.98865E+02  5.39057E+02 -4.66988E+02  1.56422E+02
 -9.73414E+02 -1.91550E+01 -9.22926E+02 -2.36754E+01  3.36058E+02 -5.61409E+02 -4.46903E+02 -1.03902E+03
  9.68376E+02 -5.42877E+02  1.07920E+02  1.28289E+02  1.14155E+03  9.67452E+02 -4.83473E+02  1.28468E+03
 -9.24039E+02  1.92694E+03 -1.39030E+03  1.21922E+03 -1.38859E+03 -3.45470E+01 -7.91380E+02 -9.41551E+02
 -8.20104E+02 -8.98176E+02  3.42021E+02 -1.10641E+03  4.43263E+02 -4.27065E+02  6.95884E+02  2.07775E+02
  6.96534E+02  1.20120E+02 -3.32990E+01  2.38538E+02 -4.20001E+02  7.32700E+01  1.89995E+02 -7.75366E+01
  3.60059E+02  5.66733E+02  2.37813E+02  4.44020E+02 -1.37997E+02  4.70935E+02  4.36714E+02  2.41249E+02
 -5.97220E+02  5.62420E+02 -3.50179E+02  1.78097E+02 -1.04715E+03 -2.05974E+02 -2.65703E+01 -7.10044E+02
  1.10097E+02 -3.97253E+02  3.12306E+02 -1.09576E+02  5.38194E+02 -6.35892E+02  4.60733E+02  7.27593E+02
  6.68396E+02  5.32016E+02 -1.03106E+02  2.77623E+02 -5.33116E+02  5.41908E+02 -4.84603E+02  3.12596E+02
  6.34450E+00 -1.08508E+01 -3.86763E+02  1.76507E+02 -3.85261E+02  4.60114E+01 -6.25355E+02 -1.25345E+02
 -1.00538E+03  4.90127E+02 -2.85105E+02 -7.26195E+02  5.35927E+02 -1.14381E+03  5.43499E+02 -2.90546E+01
  5.42459E+02 -1.32739E+02 -4.14012E+02  2.76357E+02 -5.15337E+02  6.41664E+02 -1.44737E+02  5.46734E+02
