 $NMID ID='MM_0lb_SNR800_14hz_g40_48.RAW', FMTDAT='(8E13.5)'
 TRAMP=1., VOLUME=1. $END
  3.10098E+05  5.02330E+02  3.37413E+05  2.50184E+05  8.46521E+04  3.37794E+05 -1.32579E+05  2.50816E+05
 -1.89692E+05  8.31028E+04 -1.11504E+05 -3.23900E+04  9.22716E+02 -5.03269E+04  5.38714E+04 -1.19781E+02
  3.52757E+04  5.26710E+04 -1.68566E+04  7.54181E+04 -6.05059E+04  6.32024E+04 -8.39000E+04  3.18436E+04
 -8.06053E+04 -1.12827E+04 -5.68962E+04 -5.13257E+04 -1.50666E+04 -6.90625E+04  2.72159E+04 -4.53055E+04
  4.01021E+04  3.77124E+03  1.61894E+04  4.78218E+04 -3.44501E+04  4.66584E+04 -6.63695E+04 -3.70102E+01
 -5.30786E+04 -5.69390E+04 -6.49056E+03 -7.66105E+04  3.38410E+04 -5.46083E+04  4.75217E+04 -1.69871E+04
  4.27527E+04  1.11197E+04  3.18542E+04  2.52483E+04  1.55546E+04  2.91427E+04 -5.28228E+03  2.70622E+04
 -2.19213E+04  1.26582E+04 -1.84475E+04 -4.69470E+03  4.99841E+03 -7.31591E+03  2.20358E+04  1.19174E+04
  7.18310E+03  3.49197E+04 -3.14780E+04  3.50753E+04 -6.26166E+04  2.21253E+03 -5.65663E+04 -4.23270E+04
 -1.26347E+04 -6.27167E+04  3.94387E+04 -4.49148E+04  5.74559E+04 -1.91487E+03  3.36471E+04  3.19586E+04
 -5.76546E+03  3.55090E+04 -2.95489E+04  1.51110E+04 -2.97178E+04 -4.85147E+03 -1.60676E+04 -1.08601E+04
 -7.86401E+03 -1.26830E+04 -6.97382E+02 -1.77605E+04  7.31621E+03 -2.28672E+04  1.54200E+04 -1.34119E+04
  1.19356E+04  5.18779E+03 -7.55908E+03  1.30822E+04 -2.07232E+04 -4.10229E+03 -8.06583E+03 -3.29609E+04
  2.25324E+04 -4.31207E+04  4.72514E+04 -1.91373E+04  4.43716E+04  1.90607E+04  1.50801E+04  4.33957E+04
 -1.54767E+04  3.28748E+04 -2.46899E+04  1.67130E+03 -9.35615E+03 -2.75638E+04  2.09123E+04 -3.34828E+04
  4.01019E+04 -8.57553E+03  3.41417E+04  2.35424E+04  1.75746E+04  4.54231E+04 -8.06807E+03  4.90681E+04
 -3.05511E+04  3.30752E+04 -4.06762E+04  9.37941E+03 -4.14070E+04 -1.61297E+04 -2.28059E+04 -3.70720E+04
  7.00798E+03 -3.70437E+04  3.06768E+04 -1.41985E+04  2.86331E+04  1.11062E+04  3.75296E+03  1.86622E+04
 -1.33080E+04  8.16343E+03 -1.02178E+04 -7.91954E+03  5.88728E+03 -1.04923E+04  1.78081E+04  6.30389E+03
  1.33464E+04  2.19003E+04 -6.24995E+03  2.47537E+04 -2.22509E+04  1.13142E+04 -2.70176E+04 -5.52860E+03
 -1.95521E+04 -1.70615E+04 -7.66555E+03 -1.97136E+04  3.85301E+03 -1.84267E+04  1.47261E+04 -1.73164E+04
  2.52611E+04 -1.21308E+04  3.15628E+04  2.43906E+03  2.30425E+04  1.91161E+04  3.88490E+03  3.52945E+04
 -1.72396E+04  3.01989E+04 -2.73022E+04  1.02227E+04 -2.02406E+04 -1.01747E+04 -4.22270E+03 -1.36292E+04
  1.61603E+03 -3.10401E+03 -4.45254E+03  6.70434E+03 -1.53209E+04  5.05783E+03 -1.55458E+04 -6.38545E+03
 -9.74788E+03 -1.78061E+04  4.74863E+03 -2.23020E+04  1.46216E+04 -1.58898E+04  1.69637E+04 -1.58162E+03
  1.06220E+04  1.25632E+04 -1.53448E+03  1.82911E+04 -1.23592E+04  1.00866E+04 -1.84233E+04 -3.70472E+03
 -1.37922E+04 -1.65231E+04 -1.43846E+03 -2.23652E+04  9.93360E+03 -1.80913E+04  1.82907E+04 -8.94564E+03
  1.68724E+04  5.54518E+02  1.21621E+04  4.41162E+03  6.59389E+03  8.05439E+02  9.18716E+03 -1.55493E+03
  1.69256E+04  2.75792E+03  1.82037E+04  1.47275E+04  1.19003E+04  2.89165E+04 -3.07689E+03  3.25326E+04
 -1.86240E+04  2.61769E+04 -3.02323E+04  1.28674E+04 -3.18610E+04 -2.17641E+03 -2.61000E+04 -1.81430E+04
 -1.16980E+04 -2.60922E+04  8.76510E+03 -2.36689E+04  2.00554E+04 -1.22065E+04  1.85528E+04  5.04842E+03
  7.04512E+03  1.34901E+04 -8.55837E+03  1.24646E+04 -1.55882E+04  2.62224E+03 -1.19031E+04 -9.86385E+03
  1.75343E+02 -1.47660E+04  7.68799E+03 -1.09307E+04  9.50017E+03 -1.32714E+03  1.99727E+03  6.18422E+03
 -6.69603E+03  2.18075E+03 -5.80666E+03 -5.37614E+03 -1.80389E+02 -1.26719E+04  9.04116E+03 -1.33328E+04
  1.58145E+04 -7.00816E+03  1.68794E+04  3.08133E+03  1.45697E+04  1.26908E+04  6.67618E+03  1.91407E+04
 -3.31931E+03  2.10604E+04 -1.33113E+04  1.31260E+04 -1.50022E+04  3.14464E+03 -1.07390E+04 -3.18145E+03
 -5.15939E+03 -4.53671E+03 -3.92594E+02  1.01274E+03 -2.30435E+03  2.34544E+03 -5.11834E+03  3.97690E+03
 -9.89502E+03 -8.32194E+02 -1.07830E+04 -8.84291E+03 -4.40078E+03 -1.39559E+04  4.60436E+03 -1.09196E+04
  9.13373E+03 -4.43317E+03  6.52722E+03  2.92703E+03  2.80604E+02  3.94660E+03 -4.90970E+03 -1.83454E+02
 -4.52819E+03 -6.90575E+03 -9.68095E+02 -9.88533E+03  5.71765E+03 -1.08836E+04  1.31477E+04 -5.39029E+03
  1.55693E+04  1.11097E+03  1.15518E+04  8.55625E+03  2.30873E+03  1.22979E+04 -6.76329E+03  1.06121E+04
 -8.81685E+03  3.34637E+03 -4.57556E+03 -1.78822E+03  1.62776E+03 -2.72342E+03  5.87915E+03 -1.02756E+03
  5.18767E+03  4.45818E+03  1.20946E+03  8.33548E+03 -5.80460E+03  8.19323E+03 -1.06471E+04  1.81158E+03
 -7.02870E+03 -5.37806E+03  5.37448E+02 -8.95130E+03  5.59918E+03 -4.51288E+03  5.35176E+03  1.93367E+03
  1.02358E+03  5.59239E+03 -5.71425E+03  6.77992E+03 -7.82058E+03  3.30796E+03 -7.58911E+03 -2.32611E+03
 -4.63358E+03 -9.15030E+03  2.07025E+03 -1.10486E+04  9.13962E+03 -6.73408E+03  9.68913E+03  1.67946E+03
  6.04186E+03  8.05145E+03 -3.15554E+02  9.90649E+03 -6.80643E+03  5.70113E+03 -7.69922E+03 -9.08009E+02
 -7.22536E+03 -6.77860E+03 -1.69626E+03 -7.02935E+03  3.74031E+03 -6.31784E+03  4.64694E+03 -3.34407E+03
  3.57702E+03  7.54941E+02 -7.82688E+01  1.53108E+03  1.72875E+02 -1.39414E+03  1.01673E+03 -3.97598E+03
  6.29511E+03 -1.89807E+03  8.65542E+03  1.04437E+03  8.75213E+03  5.77558E+03  6.71706E+03  1.16762E+04
 -2.35819E+03  1.34292E+04 -1.16793E+04  1.01461E+04 -1.47224E+04  1.73271E+03 -1.19718E+04 -4.80641E+03
 -6.28747E+03 -9.79321E+03 -5.98460E+02 -8.23320E+03  3.09974E+03 -4.28756E+03  2.74065E+03 -3.17052E+03
  2.15826E+03 -2.22812E+03  2.94068E+03 -2.78174E+03  4.44733E+03 -1.91592E+03  4.90243E+03 -1.57737E+02
  6.45325E+03  1.61989E+03  2.45673E+03  5.44835E+03 -1.96313E+03  5.52826E+03 -6.44407E+03  4.28021E+03
 -8.13121E+03 -1.27672E+03 -3.90296E+03 -5.59398E+03 -3.17415E+01 -8.67599E+03  4.82868E+03 -8.62762E+03
  8.73256E+03 -4.94363E+03  1.05123E+04  1.02372E+03  7.40447E+03  7.18561E+03  1.38766E+03  9.60928E+03
 -3.78740E+03  8.55457E+03 -5.23665E+03  2.98878E+03 -3.73776E+03 -1.38735E+03 -1.02750E+03 -9.68505E+02
 -7.66400E+02  3.52302E+02 -1.28178E+03  2.27258E+03 -3.74235E+03  1.73384E+03 -5.65761E+03 -7.67846E+02
 -3.25482E+03 -5.77099E+03  7.43794E+02 -7.64697E+03  4.56255E+03 -7.21469E+03  7.11132E+03 -2.07581E+03
  7.07507E+03  3.83583E+03  3.32510E+03  6.11599E+03 -1.41371E+03  7.47705E+03 -4.82574E+03  4.69434E+03
 -6.67848E+03  4.79888E+02 -5.58942E+03 -4.91693E+03 -6.31697E+02 -5.72376E+03  3.03830E+03 -4.60348E+03
  4.47897E+03 -1.72511E+03  3.54121E+03  1.32997E+03  8.69350E+02  2.59223E+03  1.00512E+03  1.06219E+03
  1.92435E+03  7.70022E+02  1.87512E+03  1.40280E+03  2.18078E+03  3.05887E+03  2.18752E+03  3.55956E+03
 -2.02516E+03  5.62181E+03 -5.13764E+03  6.51919E+03 -6.92678E+03  1.87836E+03 -7.72800E+03 -2.16005E+03
 -3.53684E+03 -6.80828E+03  1.10382E+03 -8.38662E+03  4.11642E+03 -5.07735E+03  5.92606E+03 -1.07071E+03
  4.52616E+03  3.28047E+03  9.05093E+02  4.20348E+03 -1.60342E+03  2.56967E+03 -2.67556E+03 -6.59755E+02
 -1.31437E+03 -3.22381E+03  1.73579E+03 -3.04883E+03  2.52827E+03 -1.65203E+03  2.85255E+03  9.68657E+02
  1.72288E+03  9.73864E+02  1.04642E+03  7.14391E+02 -4.00492E+02  9.27845E+02  1.69100E+03 -2.38938E+02
  5.27019E+02 -5.72320E+02  2.87141E+03  9.18176E+02  1.19694E+03  3.93431E+03 -6.14629E+02  5.28723E+03
 -3.48657E+03  2.77276E+03 -4.55838E+03  8.41704E+02 -3.69037E+03 -1.72489E+03 -1.29912E+03 -2.40015E+03
  6.38710E+02 -2.56639E+03  1.63145E+03 -1.12523E+03  1.13797E+03  1.83048E+03 -6.21723E+02  2.23188E+03
 -2.85944E+03  1.55823E+03 -2.92186E+03 -2.11691E+03 -1.37867E+03 -3.80713E+03  7.94033E+02 -3.55821E+03
  1.92491E+03 -1.83793E+03  2.06991E+03  6.33547E+01  2.45089E+03  6.89679E+02  1.48601E+02  2.11150E+03
 -1.02795E+03  4.98357E+02 -1.71004E+03 -1.06291E+03  7.83790E+02 -2.45623E+03  3.53946E+03 -2.11915E+03
  3.64323E+03  4.72932E+02  4.73319E+03  2.06607E+03  1.96126E+03  3.77078E+03 -1.58109E+03  4.00352E+03
 -3.53713E+03  1.20750E+03 -3.30103E+03 -5.07043E+02 -1.78933E+03 -2.89858E+03  7.57988E+02 -2.29297E+03
  2.72140E+03 -1.33912E+03  2.03202E+03  1.23351E+03  8.04508E+02  2.07015E+03 -5.03009E+01  2.08198E+03
 -1.02916E+03  1.96216E+03 -9.20073E+02  4.96065E+02 -4.04371E+02  6.83269E+02 -9.08470E+02  1.18878E+03
 -1.06542E+03  1.74151E+03 -2.97990E+03  1.31240E+03 -4.19358E+03  7.19413E+01 -4.78384E+03 -2.52365E+03
 -2.33771E+03 -5.02826E+03  1.10448E+03 -6.07509E+03  3.47578E+03 -4.85758E+03  5.96123E+03 -1.96866E+03
  5.52935E+03  4.33138E+02  2.86393E+03  3.88937E+03 -1.39817E+02  3.78245E+03 -1.45231E+03  2.92120E+03
 -2.36369E+03  1.48218E+03 -1.21117E+03 -6.79438E+02 -6.20222E+02 -4.31879E+01 -6.26207E+02 -1.95398E+02
 -1.19840E+03  8.84213E+01 -1.01959E+03 -1.11801E+01  3.35858E+00 -1.34706E+03 -3.08021E+02 -1.78808E+03
  2.43054E+03 -1.35963E+03  2.01785E+03  1.53958E+02  2.85907E+03  2.23149E+03 -2.81909E+02  3.83089E+03
 -2.11763E+03  4.75824E+03 -4.18768E+03  2.63263E+03 -4.65537E+03 -2.43819E+02 -3.26526E+03 -2.79643E+03
 -1.55651E+03 -3.57810E+03  1.07977E+03 -3.66349E+03  2.18997E+03 -1.91647E+03  2.39469E+03  3.55294E+02
  1.45143E+03  1.26994E+03  4.10958E+01  9.55607E+02 -9.68999E+02  1.24603E+01  4.72813E+01 -1.04169E+03
  1.39204E+03 -2.74502E+02  1.15534E+03  4.32229E+02  4.05077E+02  1.32159E+03  1.82110E+02  1.77379E+03
 -1.51347E+03  1.73874E+03 -2.20394E+03  1.94736E+02 -2.07961E+03 -1.64196E+03 -1.57998E+02 -3.07654E+03
  1.44019E+03 -2.38862E+03  2.10444E+03 -5.63844E+02  2.58410E+03  4.90832E+02  1.52698E+03  2.23265E+03
  5.98111E+02  2.15708E+03 -8.38122E+02  1.94491E+03 -1.22085E+03  1.23154E+03 -1.17429E+03 -5.41034E+01
 -5.88614E+02 -1.37606E+02 -9.22444E+02  3.15334E+02 -1.62874E+03  5.91941E+01 -2.07261E+03 -7.15375E+02
 -1.80941E+03 -6.53965E+02 -9.50397E+02 -2.57538E+03  1.04994E+03 -2.83245E+03  2.25575E+03 -1.20074E+03
  2.40470E+03 -3.73936E+01  8.66296E+02  1.50968E+03 -2.54489E+02  2.38893E+03 -1.82442E+03  1.36573E+03
