 $NMID ID='MM_0lb_SNR800_14hz_g50_36.RAW', FMTDAT='(8E13.5)'
 TRAMP=1., VOLUME=1. $END
  3.09662E+05  3.89902E+02  3.37582E+05  2.50730E+05  8.46784E+04  3.38224E+05 -1.32733E+05  2.50852E+05
 -1.90149E+05  8.29539E+04 -1.11405E+05 -3.29397E+04  6.45108E+02 -5.04087E+04  5.36071E+04 -3.17634E+02
  3.53302E+04  5.28234E+04 -1.65295E+04  7.54553E+04 -6.04578E+04  6.32002E+04 -8.41139E+04  3.17703E+04
 -8.07463E+04 -1.16009E+04 -5.73062E+04 -5.14690E+04 -1.51117E+04 -6.97991E+04  2.75153E+04 -4.59367E+04
  4.00498E+04  3.91868E+03  1.61896E+04  4.79070E+04 -3.45635E+04  4.72589E+04 -6.67571E+04 -1.30891E+02
 -5.34212E+04 -5.66204E+04 -6.68420E+03 -7.70606E+04  3.39802E+04 -5.52649E+04  4.81063E+04 -1.77756E+04
  4.33520E+04  1.13023E+04  3.19979E+04  2.56855E+04  1.60797E+04  2.90792E+04 -5.30353E+03  2.76140E+04
 -2.21122E+04  1.24314E+04 -1.84976E+04 -4.93866E+03  5.41203E+03 -7.37181E+03  2.23480E+04  1.23007E+04
  7.23445E+03  3.54106E+04 -3.19080E+04  3.56768E+04 -6.36381E+04  2.10789E+03 -5.71539E+04 -4.31871E+04
 -1.24276E+04 -6.31839E+04  3.98906E+04 -4.52670E+04  5.81720E+04 -2.24979E+03  3.40660E+04  3.22722E+04
 -6.28895E+03  3.61099E+04 -3.03820E+04  1.60192E+04 -3.05802E+04 -4.39088E+03 -1.69573E+04 -1.09118E+04
 -8.42837E+03 -1.31898E+04 -5.85027E+02 -1.81057E+04  7.52451E+03 -2.32834E+04  1.54797E+04 -1.32492E+04
  1.13920E+04  5.39607E+03 -8.41169E+03  1.29313E+04 -2.12675E+04 -4.33186E+03 -8.38703E+03 -3.38774E+04
  2.32138E+04 -4.35696E+04  4.84175E+04 -1.98894E+04  4.50376E+04  1.95599E+04  1.56405E+04  4.41571E+04
 -1.64804E+04  3.32832E+04 -2.52831E+04  1.79032E+03 -9.85294E+03 -2.78782E+04  2.07326E+04 -3.37642E+04
  4.08933E+04 -9.05802E+03  3.54433E+04  2.36149E+04  1.81805E+04  4.68067E+04 -8.00778E+03  5.07966E+04
 -3.16382E+04  3.40697E+04 -4.22189E+04  9.61541E+03 -4.26486E+04 -1.66609E+04 -2.32578E+04 -3.83539E+04
  7.39467E+03 -3.76661E+04  3.13301E+04 -1.48588E+04  2.93557E+04  1.12805E+04  4.16819E+03  1.88214E+04
 -1.37877E+04  8.52235E+03 -1.04785E+04 -7.47159E+03  5.95963E+03 -1.04948E+04  1.82337E+04  5.61579E+03
  1.35403E+04  2.24336E+04 -6.09085E+03  2.52862E+04 -2.22633E+04  1.17156E+04 -2.80782E+04 -4.76903E+03
 -2.06852E+04 -1.72560E+04 -8.47063E+03 -2.05354E+04  4.09985E+03 -1.97183E+04  1.57643E+04 -1.85937E+04
  2.62845E+04 -1.29235E+04  3.27142E+04  2.86318E+03  2.39072E+04  1.98436E+04  4.38287E+03  3.65005E+04
 -1.77843E+04  3.04644E+04 -2.82176E+04  1.06551E+04 -2.08049E+04 -1.04159E+04 -4.39542E+03 -1.35266E+04
  1.55680E+03 -3.00830E+03 -4.83467E+03  6.77818E+03 -1.61283E+04  4.97987E+03 -1.64292E+04 -7.19415E+03
 -9.87470E+03 -1.88030E+04  5.11409E+03 -2.30505E+04  1.52270E+04 -1.68252E+04  1.85157E+04 -1.63592E+03
  1.10879E+04  1.32206E+04 -1.05730E+03  1.94664E+04 -1.29432E+04  1.06406E+04 -1.91853E+04 -4.15628E+03
 -1.38783E+04 -1.71980E+04 -1.87064E+03 -2.30745E+04  1.05730E+04 -1.90751E+04  1.92638E+04 -9.15186E+03
  1.80010E+04  1.06180E+02  1.31278E+04  4.10133E+03  6.66203E+03  1.06699E+03  9.69121E+03 -1.58932E+03
  1.77609E+04  2.76150E+03  1.93243E+04  1.52360E+04  1.28234E+04  3.03482E+04 -3.29186E+03  3.43069E+04
 -2.02844E+04  2.76135E+04 -3.19897E+04  1.39462E+04 -3.37010E+04 -2.22832E+03 -2.78798E+04 -1.94218E+04
 -1.22626E+04 -2.76703E+04  9.54109E+03 -2.50445E+04  2.16628E+04 -1.28701E+04  1.94730E+04  5.78798E+03
  7.40175E+03  1.44542E+04 -9.52113E+03  1.27290E+04 -1.61778E+04  2.48605E+03 -1.25571E+04 -1.01841E+04
 -3.05390E+02 -1.53518E+04  8.16695E+03 -1.14482E+04  1.01291E+04 -1.11897E+03  2.22697E+03  6.41272E+03
 -7.09316E+03  2.62217E+03 -6.06515E+03 -5.64540E+03 -6.79198E+02 -1.35872E+04  9.79303E+03 -1.43935E+04
  1.68203E+04 -7.44613E+03  1.81215E+04  2.76958E+03  1.56887E+04  1.34184E+04  7.27214E+03  2.05940E+04
 -3.16792E+03  2.21620E+04 -1.41327E+04  1.39748E+04 -1.58890E+04  3.43893E+03 -1.13807E+04 -3.38202E+03
 -5.47855E+03 -4.93253E+03 -7.00446E+02  9.45534E+02 -2.30520E+03  2.58951E+03 -5.06268E+03  4.27080E+03
 -1.07238E+04 -9.68556E+02 -1.13452E+04 -9.05489E+03 -4.63126E+03 -1.48121E+04  4.68125E+03 -1.14698E+04
  9.64774E+03 -4.62534E+03  6.80620E+03  2.73320E+03  5.91098E+02  4.13055E+03 -5.06511E+03 -1.31658E+02
 -5.04581E+03 -7.29360E+03 -1.07688E+03 -1.05798E+04  6.02882E+03 -1.16825E+04  1.38572E+04 -5.92114E+03
  1.65250E+04  1.68308E+03  1.18638E+04  9.57370E+03  2.34164E+03  1.27941E+04 -6.90726E+03  1.09589E+04
 -9.20929E+03  3.30495E+03 -4.80104E+03 -2.02297E+03  2.15489E+03 -3.14578E+03  6.08773E+03 -9.32037E+02
  5.51369E+03  4.82960E+03  1.21954E+03  8.54953E+03 -6.27513E+03  8.71572E+03 -1.10984E+04  1.96648E+03
 -6.89546E+03 -5.63832E+03  4.23367E+02 -9.40989E+03  5.65892E+03 -4.64648E+03  6.11460E+03  2.03023E+03
  1.22218E+03  6.09796E+03 -5.37332E+03  7.53529E+03 -8.32914E+03  3.69731E+03 -7.81664E+03 -2.94589E+03
 -5.10357E+03 -9.82211E+03  2.05380E+03 -1.16489E+04  9.98066E+03 -7.37680E+03  1.06001E+04  1.64413E+03
  6.73544E+03  8.53846E+03 -5.22467E+02  1.06211E+04 -7.37487E+03  5.60947E+03 -8.39957E+03 -9.47653E+02
 -7.69136E+03 -7.34631E+03 -1.54742E+03 -7.90137E+03  3.96950E+03 -6.61692E+03  4.89588E+03 -3.27149E+03
  3.52683E+03  1.00845E+03 -3.12837E+02  1.47162E+03 -2.16752E+01 -1.81421E+03  1.07626E+03 -3.95097E+03
  6.74017E+03 -2.48306E+03  9.39804E+03  9.64061E+02  9.51529E+03  5.83191E+03  6.84717E+03  1.23318E+04
 -2.77763E+03  1.44981E+04 -1.22465E+04  1.09462E+04 -1.58848E+04  2.04339E+03 -1.25979E+04 -5.46374E+03
 -6.56457E+03 -1.03827E+04 -5.16224E+02 -8.63353E+03  3.41734E+03 -4.13000E+03  2.72833E+03 -3.43263E+03
  2.49646E+03 -2.08765E+03  2.87360E+03 -2.71823E+03  4.38107E+03 -2.16848E+03  5.17769E+03 -2.65955E+02
  7.15795E+03  1.45488E+03  2.86594E+03  5.88256E+03 -1.70862E+03  5.96385E+03 -6.98108E+03  4.86652E+03
 -8.77148E+03 -1.52732E+03 -4.39344E+03 -5.91621E+03 -4.51167E+02 -8.93019E+03  5.35205E+03 -9.27922E+03
  8.95507E+03 -5.35547E+03  1.10490E+04  8.91760E+02  7.72406E+03  7.72608E+03  1.62546E+03  1.04269E+04
 -4.25686E+03  9.24372E+03 -5.97091E+03  2.96527E+03 -3.84525E+03 -1.41575E+03 -1.23389E+03 -1.03741E+03
 -7.66597E+02  8.97816E+01 -1.68957E+03  2.11887E+03 -3.48991E+03  1.24225E+03 -6.12008E+03 -5.16498E+02
 -3.47335E+03 -6.30056E+03  2.91179E+02 -8.23621E+03  5.04261E+03 -7.55682E+03  7.76740E+03 -2.16048E+03
  7.59105E+03  3.75151E+03  3.60664E+03  6.67831E+03 -1.59637E+03  7.93929E+03 -5.61425E+03  4.71487E+03
 -7.29553E+03  5.30729E+02 -6.04839E+03 -4.50756E+03 -6.29498E+02 -6.51304E+03  3.40240E+03 -5.06943E+03
  4.73927E+03 -1.82512E+03  3.42122E+03  1.19185E+03  1.50503E+03  2.41997E+03  1.07216E+03  1.18259E+03
  2.03744E+03  1.03040E+03  2.00133E+03  1.60328E+03  2.28802E+03  3.28652E+03  2.42250E+03  3.87516E+03
 -1.62549E+03  5.89626E+03 -5.13521E+03  6.87247E+03 -7.18827E+03  1.70086E+03 -8.04984E+03 -2.60757E+03
 -3.69675E+03 -7.58362E+03  1.06981E+03 -8.86118E+03  4.48507E+03 -5.20968E+03  6.08288E+03 -1.31410E+03
  4.76841E+03  3.01777E+03  6.94771E+02  4.33129E+03 -1.74494E+03  2.96517E+03 -2.66986E+03 -2.99060E+02
 -1.60908E+03 -3.12615E+03  1.78789E+03 -3.05984E+03  2.95321E+03 -1.78610E+03  3.24231E+03  7.06613E+02
  1.52850E+03  1.02704E+03  1.07897E+03  4.00879E+02 -2.78802E+02  9.07960E+02  1.83658E+03 -4.02278E+02
  9.42951E+02 -5.20437E+02  2.97917E+03  1.18916E+03  1.35399E+03  4.22367E+03 -5.49674E+02  5.26711E+03
 -3.15755E+03  2.91101E+03 -4.54515E+03  6.22963E+02 -4.46141E+03 -1.53767E+03 -1.13343E+03 -2.51906E+03
  6.70742E+02 -2.71756E+03  1.86007E+03 -1.17158E+03  1.80878E+03  1.99937E+03 -1.00962E+03  2.60597E+03
 -2.78026E+03  1.28276E+03 -2.87550E+03 -1.98096E+03 -1.93051E+03 -3.99106E+03  5.92905E+02 -3.86626E+03
  1.77706E+03 -1.92102E+03  2.47369E+03  2.08997E+02  2.49835E+03  5.32502E+02  1.86352E+02  2.32218E+03
 -1.17518E+03  4.47678E+02 -1.72154E+03 -1.00740E+03  8.58635E+02 -2.80220E+03  3.47038E+03 -2.25698E+03
  3.73248E+03  5.24083E+02  4.66886E+03  2.65207E+03  1.34620E+03  4.48809E+03 -1.20595E+03  4.29257E+03
 -3.68183E+03  1.28579E+03 -3.78256E+03 -6.71099E+02 -1.99392E+03 -2.77367E+03  4.32369E+02 -2.04788E+03
  2.84603E+03 -1.52637E+03  2.15318E+03  1.73991E+03  6.07869E+02  2.45081E+03  1.16490E+02  2.35128E+03
 -1.31919E+03  1.66616E+03 -7.76852E+02  2.58944E+02 -7.66770E+02  5.41399E+02 -8.26693E+02  1.09110E+03
 -1.21008E+03  1.87336E+03 -3.23627E+03  1.35156E+03 -4.32246E+03  4.38207E+02 -5.19891E+03 -2.75573E+03
 -2.41955E+03 -5.42522E+03  8.68779E+02 -6.31927E+03  3.61693E+03 -4.94008E+03  6.20647E+03 -1.91323E+03
  5.81007E+03  7.27975E+02  3.48039E+03  3.55568E+03 -3.56230E+02  4.21812E+03 -1.60846E+03  3.21216E+03
 -2.17467E+03  1.70806E+03 -1.26744E+03 -4.46620E+02 -6.55505E+02 -1.37563E+01 -8.27239E+02  1.08439E+02
 -1.78731E+03  7.10162E+01 -1.16404E+03 -8.71828E+01  1.75298E+02 -1.14511E+03 -2.12560E+02 -1.97741E+03
  2.25730E+03 -1.28014E+03  1.93918E+03  2.93608E+02  3.02521E+03  2.34959E+03  3.53507E+02  4.13688E+03
 -1.99295E+03  4.89423E+03 -4.12972E+03  2.60679E+03 -4.38341E+03 -2.41432E+02 -3.31890E+03 -2.87381E+03
 -1.78044E+03 -3.93197E+03  8.64055E+02 -3.59620E+03  2.39109E+03 -1.88563E+03  2.16319E+03  2.31178E+02
  1.47751E+03  1.13051E+03 -5.58266E+01  1.12046E+03 -7.55752E+02  4.06078E+01  1.82810E+01 -8.36121E+02
  1.19996E+03 -2.06541E+02  1.23992E+03  5.52812E+02  7.43249E+02  1.51374E+03  4.35786E+02  1.76136E+03
 -1.40929E+03  1.76603E+03 -2.08923E+03  1.63346E+02 -2.31495E+03 -1.51626E+03 -1.48629E+02 -2.95962E+03
  1.52294E+03 -2.67797E+03  2.35633E+03 -4.95066E+02  2.62835E+03  2.69069E+02  1.54559E+03  2.18426E+03
  5.37380E+02  1.80580E+03 -1.03422E+03  1.93235E+03 -1.80425E+03  1.26602E+03 -1.05648E+03  1.05759E+02
 -4.85057E+02 -1.20386E+02 -7.24462E+02  3.59543E+02 -1.58705E+03  4.91947E+02 -1.89294E+03 -6.14696E+02
 -2.22792E+03 -1.11121E+03 -8.94535E+02 -2.55252E+03  1.30946E+03 -2.93935E+03  2.05513E+03 -7.96119E+02
  2.03324E+03  2.30812E+02  6.70046E+02  1.38336E+03 -3.55341E+02  2.57016E+03 -1.41539E+03  1.46365E+03
