 $NMID ID='MM_0lb_SNR800_15hz_g55_56.RAW', FMTDAT='(8E13.5)'
 TRAMP=1., VOLUME=1. $END
  3.09596E+05  4.98444E+02  3.37817E+05  2.50646E+05  8.43737E+04  3.37932E+05 -1.32385E+05  2.51285E+05
 -1.90303E+05  8.32394E+04 -1.11963E+05 -3.29273E+04  9.50181E+02 -5.05006E+04  5.38294E+04 -1.71001E+02
  3.53273E+04  5.24278E+04 -1.67541E+04  7.57664E+04 -6.06382E+04  6.33432E+04 -8.42058E+04  3.19242E+04
 -8.10234E+04 -1.15784E+04 -5.69979E+04 -5.12718E+04 -1.53398E+04 -6.95949E+04  2.73772E+04 -4.60221E+04
  4.01371E+04  4.00741E+03  1.61014E+04  4.78135E+04 -3.42927E+04  4.71448E+04 -6.67475E+04  1.35438E+02
 -5.33817E+04 -5.66947E+04 -6.80598E+03 -7.71885E+04  3.37683E+04 -5.54254E+04  4.79825E+04 -1.73226E+04
  4.33772E+04  1.13736E+04  3.18766E+04  2.49807E+04  1.56568E+04  2.95136E+04 -5.33877E+03  2.74344E+04
 -2.21357E+04  1.24871E+04 -1.87597E+04 -5.03871E+03  5.50684E+03 -7.52311E+03  2.22560E+04  1.25994E+04
  7.27916E+03  3.56052E+04 -3.23019E+04  3.52490E+04 -6.33488E+04  2.48823E+03 -5.72128E+04 -4.28187E+04
 -1.25931E+04 -6.33410E+04  3.97935E+04 -4.52669E+04  5.78343E+04 -2.25013E+03  3.44005E+04  3.25266E+04
 -6.03459E+03  3.63849E+04 -3.00483E+04  1.62370E+04 -3.06628E+04 -4.38998E+03 -1.66263E+04 -1.09873E+04
 -8.65524E+03 -1.32809E+04 -4.92344E+02 -1.82463E+04  7.61383E+03 -2.30565E+04  1.51902E+04 -1.35590E+04
  1.15812E+04  5.16559E+03 -8.45454E+03  1.31822E+04 -2.11129E+04 -4.29861E+03 -8.32462E+03 -3.34850E+04
  2.27206E+04 -4.35021E+04  4.80797E+04 -1.96006E+04  4.49092E+04  1.94943E+04  1.56058E+04  4.39140E+04
 -1.58094E+04  3.32667E+04 -2.50362E+04  1.98434E+03 -9.81880E+03 -2.77475E+04  2.10868E+04 -3.36702E+04
  4.11854E+04 -9.12138E+03  3.57766E+04  2.40840E+04  1.79388E+04  4.63558E+04 -7.94768E+03  5.01041E+04
 -3.16444E+04  3.36303E+04 -4.21181E+04  9.90928E+03 -4.24624E+04 -1.64779E+04 -2.35145E+04 -3.80011E+04
  7.64508E+03 -3.79328E+04  3.15154E+04 -1.43659E+04  2.89866E+04  1.10576E+04  3.94873E+03  1.91381E+04
 -1.31742E+04  8.64491E+03 -1.04343E+04 -7.46469E+03  5.88020E+03 -1.08621E+04  1.78730E+04  5.79345E+03
  1.34067E+04  2.22347E+04 -6.13775E+03  2.51893E+04 -2.22766E+04  1.12689E+04 -2.78849E+04 -4.98455E+03
 -2.03970E+04 -1.75059E+04 -8.19649E+03 -2.02921E+04  4.55498E+03 -1.94557E+04  1.57792E+04 -1.83502E+04
  2.55717E+04 -1.24530E+04  3.24423E+04  2.61523E+03  2.37157E+04  1.98741E+04  4.06175E+03  3.62974E+04
 -1.77793E+04  3.02677E+04 -2.78344E+04  1.01648E+04 -2.07879E+04 -1.02667E+04 -4.56440E+03 -1.35857E+04
  2.09135E+03 -2.76129E+03 -4.89626E+03  6.76710E+03 -1.61967E+04  4.95779E+03 -1.62183E+04 -6.80674E+03
 -9.83808E+03 -1.90399E+04  5.48206E+03 -2.30514E+04  1.49683E+04 -1.66011E+04  1.76912E+04 -1.39466E+03
  1.10727E+04  1.30603E+04 -1.10590E+03  1.88117E+04 -1.28295E+04  1.02951E+04 -1.86950E+04 -4.14901E+03
 -1.38685E+04 -1.70264E+04 -1.72453E+03 -2.28003E+04  1.02241E+04 -1.90079E+04  1.90697E+04 -9.10838E+03
  1.77385E+04  3.86787E+02  1.28783E+04  4.03440E+03  6.75639E+03  1.13580E+03  9.50867E+03 -1.54678E+03
  1.71705E+04  2.75776E+03  1.90600E+04  1.47607E+04  1.25248E+04  3.00549E+04 -2.82406E+03  3.37639E+04
 -1.95932E+04  2.69500E+04 -3.16934E+04  1.32513E+04 -3.30251E+04 -2.46233E+03 -2.73871E+04 -1.87723E+04
 -1.17429E+04 -2.70488E+04  9.39689E+03 -2.45450E+04  2.10777E+04 -1.23936E+04  1.90817E+04  5.41161E+03
  7.10796E+03  1.38423E+04 -8.88087E+03  1.24943E+04 -1.59978E+04  2.42422E+03 -1.23767E+04 -9.81871E+03
 -1.75605E+02 -1.49543E+04  8.00961E+03 -1.13943E+04  9.98045E+03 -1.20172E+03  2.17840E+03  6.53924E+03
 -7.05142E+03  2.38564E+03 -6.02848E+03 -5.66966E+03 -6.60121E+02 -1.30927E+04  9.53572E+03 -1.36893E+04
  1.64104E+04 -6.90926E+03  1.73773E+04  3.22579E+03  1.49810E+04  1.26803E+04  6.99591E+03  1.96742E+04
 -3.33977E+03  2.16643E+04 -1.36176E+04  1.35248E+04 -1.55572E+04  3.22254E+03 -1.13074E+04 -3.54899E+03
 -5.40241E+03 -4.94220E+03 -8.37214E+02  1.07054E+03 -2.25568E+03  2.26654E+03 -5.08501E+03  4.10588E+03
 -1.03986E+04 -6.68734E+02 -1.09315E+04 -8.86483E+03 -4.38391E+03 -1.43382E+04  4.55350E+03 -1.11271E+04
  9.17262E+03 -4.71221E+03  6.55789E+03  3.07590E+03  4.06877E+02  4.45524E+03 -4.93897E+03  9.28365E+01
 -4.89731E+03 -6.86671E+03 -1.05494E+03 -1.03222E+04  5.90233E+03 -1.10625E+04  1.34802E+04 -5.96732E+03
  1.58648E+04  1.42280E+03  1.17026E+04  9.16280E+03  1.91961E+03  1.22257E+04 -7.07793E+03  1.10395E+04
 -8.88233E+03  3.66648E+03 -4.60884E+03 -1.89286E+03  1.61262E+03 -2.94937E+03  6.23765E+03 -8.76644E+02
  5.33346E+03  4.64238E+03  1.24518E+03  8.61509E+03 -6.29027E+03  8.35667E+03 -1.04945E+04  2.16190E+03
 -6.64009E+03 -5.30089E+03 -2.01409E+01 -9.05525E+03  5.15596E+03 -4.83361E+03  5.20994E+03  1.69271E+03
  9.55527E+02  5.67982E+03 -5.58693E+03  7.26520E+03 -7.72951E+03  3.40314E+03 -8.10309E+03 -2.67701E+03
 -4.85069E+03 -9.29064E+03  2.31467E+03 -1.09407E+04  8.99754E+03 -6.59114E+03  9.68734E+03  1.80436E+03
  6.24032E+03  7.98472E+03 -5.28810E+02  1.00052E+04 -7.17964E+03  6.02187E+03 -7.65078E+03 -6.98080E+02
 -7.58129E+03 -6.85046E+03 -1.53513E+03 -7.05108E+03  3.78192E+03 -6.17760E+03  4.43637E+03 -3.22710E+03
  3.82842E+03  8.02198E+02 -5.92217E+02  1.37985E+03  1.50993E+02 -1.34234E+03  1.02963E+03 -3.52261E+03
  6.39274E+03 -2.01099E+03  8.80882E+03  9.32729E+02  8.94067E+03  5.77069E+03  6.77087E+03  1.13969E+04
 -2.49404E+03  1.35750E+04 -1.16271E+04  1.00101E+04 -1.50021E+04  1.88138E+03 -1.16972E+04 -4.77484E+03
 -6.26366E+03 -1.00018E+04 -7.26575E+02 -7.97063E+03  3.25879E+03 -4.04203E+03  2.63562E+03 -2.95773E+03
  1.98268E+03 -1.98305E+03  2.48703E+03 -2.89147E+03  4.06095E+03 -2.15422E+03  5.05806E+03 -4.12874E+02
  6.29400E+03  1.56502E+03  2.65885E+03  5.32565E+03 -1.85807E+03  5.57781E+03 -6.59784E+03  4.38613E+03
 -8.06279E+03 -1.08542E+03 -4.54254E+03 -5.49875E+03  7.89587E+01 -8.13392E+03  4.94826E+03 -8.72874E+03
  8.68461E+03 -5.07492E+03  1.00730E+04  1.25250E+03  7.44199E+03  6.95847E+03  1.76300E+03  9.57518E+03
 -3.86496E+03  8.49222E+03 -5.48674E+03  2.81817E+03 -3.44901E+03 -1.19778E+03 -1.43258E+03 -8.42216E+02
 -3.25502E+02  1.92085E+02 -1.03566E+03  2.38430E+03 -3.69600E+03  1.53276E+03 -5.83535E+03 -1.00008E+03
 -3.02334E+03 -5.47553E+03  4.37764E+02 -7.58013E+03  4.30413E+03 -7.14216E+03  6.54482E+03 -1.95609E+03
  7.29979E+03  3.50024E+03  3.27381E+03  6.36029E+03 -1.19667E+03  7.48391E+03 -5.37075E+03  4.62017E+03
 -7.06599E+03  9.16093E+02 -5.39313E+03 -4.21697E+03 -4.83819E+02 -5.89314E+03  3.01385E+03 -4.22710E+03
  4.61136E+03 -1.73203E+03  3.26209E+03  9.63928E+02  8.15643E+02  2.62822E+03  1.04510E+03  1.10745E+03
  2.00223E+03  4.36655E+02  1.91646E+03  1.41391E+03  2.04104E+03  3.13243E+03  1.81330E+03  3.33702E+03
 -1.70628E+03  5.10971E+03 -4.62729E+03  5.91898E+03 -6.16456E+03  1.76538E+03 -7.40472E+03 -2.04315E+03
 -3.16603E+03 -6.96639E+03  9.41684E+02 -7.64510E+03  3.97606E+03 -4.51004E+03  5.40779E+03 -1.42344E+03
  4.34003E+03  2.81088E+03  6.90217E+02  3.96646E+03 -1.41379E+03  2.34605E+03 -2.41702E+03 -3.02481E+02
 -1.13270E+03 -2.62788E+03  2.12434E+03 -2.67918E+03  2.53522E+03 -1.64974E+03  2.49670E+03  7.68873E+02
  1.66615E+03  1.35879E+03  9.39241E+02  2.32752E+02 -4.90122E+02  8.45750E+02  1.66130E+03 -9.49199E+01
  4.99206E+02 -2.12676E+02  2.86508E+03  9.89178E+02  1.25171E+03  3.71861E+03 -7.63628E+02  5.03680E+03
 -3.04548E+03  2.80043E+03 -3.94187E+03  7.88427E+02 -3.71444E+03 -1.23372E+03 -1.09935E+03 -1.92330E+03
  6.90972E+02 -2.61850E+03  1.59029E+03 -1.16061E+03  1.38460E+03  1.59712E+03 -8.89942E+02  1.92478E+03
 -2.46831E+03  9.73426E+02 -2.82693E+03 -1.63572E+03 -1.58048E+03 -3.49884E+03  4.37207E+02 -3.20917E+03
  1.54051E+03 -1.60456E+03  1.70279E+03  1.12689E+01  2.40459E+03  5.78989E+02  6.42219E+02  1.64998E+03
 -9.83884E+02  4.04190E+02 -1.76554E+03 -8.87570E+02  6.72819E+02 -2.26370E+03  2.99241E+03 -1.76554E+03
  3.32359E+03  6.17999E+02  4.06099E+03  2.21801E+03  1.54939E+03  3.47130E+03 -1.20562E+03  3.46316E+03
 -2.89437E+03  1.25638E+03 -3.04819E+03 -2.75631E+02 -1.45748E+03 -2.63594E+03  4.66098E+02 -1.88327E+03
  2.40414E+03 -1.32307E+03  1.96293E+03  1.31746E+03  3.88115E+02  2.33611E+03 -9.73045E+01  1.83133E+03
 -1.05879E+03  1.58204E+03 -9.49565E+02  4.19777E+02 -2.75469E+02  3.77236E+02 -1.00951E+03  9.34378E+02
 -1.20572E+03  1.80070E+03 -3.11362E+03  1.11797E+03 -3.48676E+03  1.71410E+02 -4.10088E+03 -2.24841E+03
 -2.25699E+03 -4.37025E+03  8.35626E+02 -5.45393E+03  2.76606E+03 -4.62696E+03  5.43441E+03 -1.88200E+03
  4.72611E+03  6.12321E+02  2.61682E+03  3.27166E+03 -1.20004E+02  3.26739E+03 -1.55430E+03  2.79340E+03
 -1.76798E+03  1.06658E+03 -1.00057E+03 -1.27435E+02 -5.75836E+02  1.05903E+02 -5.21387E+02  5.80667E+01
 -1.11206E+03  9.76132E+01 -1.47121E+03 -2.81598E+01  4.40065E+01 -1.50682E+03  4.25567E+01 -1.38068E+03
  2.29303E+03 -8.61665E+02  1.65696E+03  1.27089E+02  2.29861E+03  1.93754E+03 -4.27941E+01  3.47845E+03
 -1.97185E+03  4.27663E+03 -3.59593E+03  2.30731E+03 -3.80185E+03 -1.83083E+02 -2.72634E+03 -2.42873E+03
 -1.43415E+03 -3.06958E+03  6.39973E+02 -2.84344E+03  1.85228E+03 -1.51154E+03  1.92796E+03  3.48758E+02
  1.25382E+03  1.07592E+03  1.74954E+02  7.49607E+02 -4.67888E+02  4.15757E+01 -1.06259E+02 -5.59462E+02
  1.16389E+03  2.76063E+01  8.16996E+02  4.04368E+02  7.02739E+02  1.18452E+03  3.92941E+02  1.00831E+03
 -1.13689E+03  1.06754E+03 -1.73367E+03  2.28867E+02 -1.75897E+03 -1.59623E+03  2.53622E+02 -2.40041E+03
  1.17164E+03 -1.91440E+03  1.60847E+03 -3.69619E+02  2.14364E+03 -2.68360E+02  1.40417E+03  1.97868E+03
  7.48860E+02  1.77844E+03 -6.41903E+02  1.53027E+03 -1.22957E+03  8.39021E+02 -9.10540E+02  2.48193E+02
 -3.87268E+02 -3.51648E+01 -4.37099E+02  3.68702E+02 -1.10179E+03  1.54230E+02 -1.41015E+03 -4.44461E+02
 -1.50173E+03 -2.50216E+02 -5.65735E+02 -1.79641E+03  1.20348E+03 -2.29602E+03  1.44685E+03 -9.13456E+02
  1.76685E+03  3.18466E+02  3.88934E+02  1.16558E+03  5.79451E+01  1.92076E+03 -1.05013E+03  1.28651E+03
