 $NMID ID='MM_0lb_SNR800_15hz_g60_46.RAW', FMTDAT='(8E13.5)'
 TRAMP=1., VOLUME=1. $END
  3.09657E+05  2.72369E+02  3.37824E+05  2.50613E+05  8.48645E+04  3.38107E+05 -1.32623E+05  2.51351E+05
 -1.90597E+05  8.34218E+04 -1.12458E+05 -3.27915E+04  5.46517E+02 -5.04073E+04  5.39480E+04 -1.14715E+02
  3.52545E+04  5.29765E+04 -1.70299E+04  7.57886E+04 -6.06412E+04  6.36477E+04 -8.41887E+04  3.21183E+04
 -8.13603E+04 -1.16416E+04 -5.72527E+04 -5.15081E+04 -1.48625E+04 -6.99990E+04  2.74207E+04 -4.62487E+04
  4.03511E+04  3.51346E+03  1.64346E+04  4.79966E+04 -3.42389E+04  4.71764E+04 -6.71608E+04 -2.28880E+02
 -5.38924E+04 -5.72599E+04 -7.11217E+03 -7.74658E+04  3.39825E+04 -5.58897E+04  4.82124E+04 -1.77204E+04
  4.37335E+04  1.11514E+04  3.20798E+04  2.59746E+04  1.60128E+04  2.97446E+04 -5.57855E+03  2.75673E+04
 -2.21551E+04  1.21053E+04 -1.87755E+04 -5.23609E+03  5.85776E+03 -7.30605E+03  2.27906E+04  1.29150E+04
  7.29203E+03  3.53602E+04 -3.25347E+04  3.60126E+04 -6.41333E+04  2.07331E+03 -5.73586E+04 -4.32726E+04
 -1.27475E+04 -6.37799E+04  4.03150E+04 -4.62458E+04  5.88283E+04 -2.28866E+03  3.47728E+04  3.30492E+04
 -6.00247E+03  3.68401E+04 -3.05313E+04  1.68311E+04 -3.07774E+04 -4.31626E+03 -1.72836E+04 -1.11650E+04
 -8.51429E+03 -1.34811E+04 -5.36872E+02 -1.84610E+04  7.73351E+03 -2.31279E+04  1.55751E+04 -1.32253E+04
  1.11277E+04  5.35277E+03 -8.57877E+03  1.28797E+04 -2.17894E+04 -4.97219E+03 -8.78920E+03 -3.41844E+04
  2.33135E+04 -4.38589E+04  4.90829E+04 -1.98321E+04  4.55850E+04  1.98317E+04  1.61408E+04  4.47238E+04
 -1.61022E+04  3.39705E+04 -2.60407E+04  2.11457E+03 -1.03627E+04 -2.82073E+04  2.08576E+04 -3.43416E+04
  4.16112E+04 -9.33304E+03  3.64270E+04  2.37119E+04  1.86466E+04  4.70967E+04 -8.43391E+03  5.15695E+04
 -3.23433E+04  3.41823E+04 -4.30625E+04  9.68192E+03 -4.31828E+04 -1.67794E+04 -2.36048E+04 -3.87033E+04
  7.32794E+03 -3.82278E+04  3.18816E+04 -1.51188E+04  2.98042E+04  1.09918E+04  4.04889E+03  1.92291E+04
 -1.37919E+04  8.62528E+03 -1.04679E+04 -7.52373E+03  5.65405E+03 -1.07800E+04  1.81186E+04  5.85447E+03
  1.37067E+04  2.21534E+04 -6.22490E+03  2.52433E+04 -2.24240E+04  1.16256E+04 -2.87183E+04 -4.57610E+03
 -2.09457E+04 -1.75453E+04 -9.08828E+03 -2.09092E+04  4.10622E+03 -2.04225E+04  1.62792E+04 -1.89036E+04
  2.70473E+04 -1.28712E+04  3.33279E+04  2.75721E+03  2.41923E+04  2.05849E+04  4.51056E+03  3.68888E+04
 -1.79544E+04  3.07225E+04 -2.82127E+04  1.05842E+04 -2.10111E+04 -1.03947E+04 -4.54896E+03 -1.37040E+04
  2.02533E+03 -2.46797E+03 -5.21193E+03  6.65163E+03 -1.66275E+04  4.91659E+03 -1.63164E+04 -7.21820E+03
 -1.02610E+04 -1.90953E+04  5.22628E+03 -2.34308E+04  1.57893E+04 -1.66897E+04  1.88213E+04 -1.52175E+03
  1.18373E+04  1.35283E+04 -1.41674E+03  1.94794E+04 -1.34996E+04  1.10783E+04 -1.94023E+04 -4.20082E+03
 -1.44845E+04 -1.76541E+04 -1.55067E+03 -2.34645E+04  1.03299E+04 -1.93651E+04  1.96146E+04 -9.53278E+03
  1.80074E+04  2.99736E+02  1.29657E+04  4.59774E+03  7.09395E+03  7.90261E+02  9.70376E+03 -1.94937E+03
  1.76850E+04  2.62934E+03  1.97189E+04  1.53253E+04  1.27492E+04  3.07328E+04 -2.69217E+03  3.48344E+04
 -2.01466E+04  2.81907E+04 -3.25585E+04  1.42136E+04 -3.39136E+04 -2.36986E+03 -2.83323E+04 -1.99371E+04
 -1.18096E+04 -2.82209E+04  9.84321E+03 -2.54220E+04  2.21715E+04 -1.28424E+04  1.95783E+04  5.35842E+03
  7.27154E+03  1.46013E+04 -9.25494E+03  1.26220E+04 -1.62631E+04  2.74484E+03 -1.28009E+04 -9.80685E+03
  1.29496E+02 -1.55592E+04  7.85695E+03 -1.15035E+04  1.03540E+04 -1.43533E+03  2.41467E+03  6.76949E+03
 -6.72646E+03  2.71455E+03 -6.17519E+03 -5.78008E+03 -6.02610E+02 -1.36093E+04  9.67582E+03 -1.44891E+04
  1.69417E+04 -7.36599E+03  1.83874E+04  2.93117E+03  1.59922E+04  1.34071E+04  7.14487E+03  2.04926E+04
 -3.37242E+03  2.27892E+04 -1.46043E+04  1.41182E+04 -1.61473E+04  3.24427E+03 -1.12957E+04 -3.49692E+03
 -5.29999E+03 -4.97713E+03 -6.32317E+02  1.16499E+03 -2.28408E+03  2.77119E+03 -5.39444E+03  4.19643E+03
 -1.04636E+04 -7.01412E+02 -1.11608E+04 -9.06850E+03 -4.63933E+03 -1.43837E+04  4.74592E+03 -1.16021E+04
  9.76576E+03 -5.02192E+03  6.93609E+03  2.98883E+03  2.21844E+02  4.42258E+03 -5.18550E+03 -1.74262E+01
 -4.90939E+03 -7.39721E+03 -1.10777E+03 -1.06234E+04  5.99881E+03 -1.13873E+04  1.42099E+04 -5.96382E+03
  1.65970E+04  1.18415E+03  1.22661E+04  9.66899E+03  2.31928E+03  1.28572E+04 -7.12789E+03  1.12257E+04
 -9.38545E+03  3.47085E+03 -4.64660E+03 -2.10632E+03  1.42468E+03 -2.89953E+03  6.35123E+03 -1.14150E+03
  5.22003E+03  4.83820E+03  1.13744E+03  8.74995E+03 -6.37159E+03  8.46549E+03 -1.11584E+04  2.29690E+03
 -7.51425E+03 -5.46154E+03  3.29848E+02 -9.34836E+03  5.63496E+03 -4.63458E+03  5.87306E+03  1.92328E+03
  1.05097E+03  5.67443E+03 -5.70545E+03  7.15921E+03 -8.29382E+03  3.35655E+03 -8.10635E+03 -3.08082E+03
 -5.06055E+03 -9.68163E+03  2.05970E+03 -1.09700E+04  9.95126E+03 -6.96932E+03  1.06687E+04  1.75910E+03
  6.91861E+03  8.25861E+03 -4.74544E+02  1.04154E+04 -7.56219E+03  5.88113E+03 -8.03986E+03 -5.82262E+02
 -7.44392E+03 -7.28021E+03 -1.70590E+03 -7.78292E+03  3.90825E+03 -6.63367E+03  4.72543E+03 -2.95523E+03
  3.66063E+03  1.14925E+03 -3.89797E+02  1.49909E+03 -5.95355E+00 -1.47513E+03  8.03648E+02 -4.00847E+03
  6.81764E+03 -2.26953E+03  9.24627E+03  1.01161E+03  9.16986E+03  6.09233E+03  6.97238E+03  1.23252E+04
 -2.48841E+03  1.41682E+04 -1.21611E+04  1.05779E+04 -1.52935E+04  2.21775E+03 -1.20769E+04 -4.60597E+03
 -6.59962E+03 -1.00888E+04 -3.18015E+02 -8.26030E+03  3.43709E+03 -4.41608E+03  3.03065E+03 -3.17560E+03
  1.93143E+03 -2.03338E+03  2.83780E+03 -2.84095E+03  4.14194E+03 -2.20828E+03  5.23464E+03 -3.39033E+02
  6.46407E+03  1.46730E+03  2.36216E+03  5.31202E+03 -1.72815E+03  5.55541E+03 -6.93153E+03  4.84749E+03
 -8.23795E+03 -1.08052E+03 -4.50299E+03 -5.53765E+03 -4.59083E+02 -8.28700E+03  5.16055E+03 -8.82070E+03
  8.65061E+03 -4.97044E+03  1.09953E+04  1.04837E+03  7.73776E+03  7.29862E+03  1.61042E+03  9.84125E+03
 -4.01026E+03  8.73845E+03 -5.64800E+03  3.13764E+03 -3.27900E+03 -1.37333E+03 -1.51079E+03 -1.20303E+03
 -8.10020E+02  4.23504E+02 -1.34285E+03  2.01191E+03 -3.76110E+03  1.34787E+03 -5.80844E+03 -6.97686E+02
 -3.52214E+03 -6.13691E+03  4.56498E+02 -7.91923E+03  4.76318E+03 -7.41778E+03  7.24896E+03 -2.16528E+03
  7.05030E+03  4.07353E+03  3.37754E+03  6.45305E+03 -1.15643E+03  7.99280E+03 -5.03435E+03  4.84650E+03
 -6.82604E+03  4.45444E+02 -5.47330E+03 -4.32693E+03 -4.86715E+02 -6.29846E+03  3.24646E+03 -4.62302E+03
  4.79880E+03 -1.98587E+03  3.21030E+03  1.16216E+03  1.10396E+03  2.44048E+03  8.12465E+02  1.09823E+03
  1.80639E+03  6.27802E+02  1.66404E+03  1.28878E+03  2.13499E+03  3.21703E+03  2.13781E+03  3.37745E+03
 -1.92244E+03  5.48750E+03 -4.62459E+03  6.48209E+03 -6.65294E+03  1.61835E+03 -7.35785E+03 -2.14310E+03
 -3.14716E+03 -6.53408E+03  1.16973E+03 -8.08651E+03  3.85926E+03 -5.19354E+03  5.53376E+03 -1.40103E+03
  4.25883E+03  2.98019E+03  1.02013E+03  4.34244E+03 -1.68428E+03  2.94107E+03 -2.67464E+03 -4.22606E+02
 -1.45713E+03 -2.69107E+03  1.91858E+03 -3.03397E+03  2.45965E+03 -1.70569E+03  2.95640E+03  2.14745E+02
  1.56459E+03  8.02322E+02  8.78968E+02  5.92999E+02 -1.47112E+02  1.20177E+03  1.54760E+03 -3.92964E+02
  6.30949E+02 -4.92042E+02  2.91737E+03  9.47010E+02  1.13905E+03  3.57392E+03 -5.81737E+02  5.04558E+03
 -2.77525E+03  2.64874E+03 -4.16551E+03  4.48009E+02 -3.91706E+03 -1.10447E+03 -1.09120E+03 -2.06688E+03
  8.54610E+02 -2.43986E+03  1.83821E+03 -1.61102E+03  1.30274E+03  1.80737E+03 -6.58612E+02  1.55877E+03
 -2.57970E+03  1.40029E+03 -2.68930E+03 -1.60668E+03 -1.58296E+03 -3.66372E+03  6.44279E+02 -3.15073E+03
  1.46446E+03 -1.75115E+03  2.42946E+03 -1.00026E+02  2.08464E+03  4.86883E+02  3.85941E+02  1.96914E+03
 -1.18200E+03  3.94523E+02 -1.87345E+03 -4.66445E+02  8.21846E+02 -1.91530E+03  3.24590E+03 -1.57385E+03
  2.94215E+03 -2.33956E+01  4.34422E+03  2.21870E+03  1.35221E+03  3.65669E+03 -8.15742E+02  3.44965E+03
 -3.03120E+03  1.31241E+03 -3.11487E+03 -4.46396E+02 -1.87682E+03 -2.31805E+03  4.58092E+02 -1.80159E+03
  2.62471E+03 -1.03006E+03  2.04324E+03  1.48295E+03  5.04679E+02  2.17694E+03  3.74920E+02  2.00230E+03
 -8.49142E+02  1.56925E+03 -1.10636E+03  5.17619E+02 -3.23779E+02  3.50030E+02 -1.05878E+03  8.52516E+02
 -1.21914E+03  1.62632E+03 -2.56312E+03  1.14167E+03 -3.61852E+03  1.77096E+02 -4.35427E+03 -2.38353E+03
 -1.90564E+03 -4.82977E+03  1.11830E+03 -5.84370E+03  2.73495E+03 -4.59953E+03  5.12921E+03 -1.62899E+03
  5.02259E+03  4.04234E+02  2.66460E+03  3.09901E+03 -2.37552E+02  3.28996E+03 -1.48405E+03  2.68685E+03
 -2.10714E+03  1.23016E+03 -1.14334E+03 -5.58196E+02 -9.18336E+02 -1.01739E+02 -6.46332E+02  1.99225E+02
 -1.71138E+03  9.78840E+01 -1.21885E+03 -1.25905E+02  3.52811E+01 -1.00498E+03 -1.07263E+02 -1.71676E+03
  1.88317E+03 -1.16201E+03  1.59916E+03 -3.74745E+01  2.44424E+03  2.28424E+03 -2.57643E+02  3.23749E+03
 -1.87086E+03  4.44083E+03 -3.59685E+03  2.37430E+03 -4.07012E+03 -4.33555E+02 -2.78728E+03 -2.37922E+03
 -1.46861E+03 -3.20992E+03  7.12438E+02 -3.01342E+03  1.82765E+03 -1.28364E+03  1.64722E+03  1.11580E+02
  1.19388E+03  9.17367E+02  1.75783E+02  8.64405E+02 -9.73221E+02 -2.00734E+02  1.66338E+02 -9.87783E+02
  1.37901E+03 -1.72852E+02  1.03047E+03  8.16586E+02  7.99242E+02  1.49989E+03  4.73438E+02  1.50135E+03
 -1.27103E+03  1.46092E+03 -1.52033E+03  2.17734E+01 -1.80461E+03 -1.55797E+03 -8.14397E+01 -2.61946E+03
  1.18391E+03 -1.84734E+03  1.83998E+03 -5.83877E+02  2.21376E+03 -4.63602E+02  1.38756E+03  1.90015E+03
  6.87410E+02  1.52426E+03 -6.58634E+02  1.60385E+03 -1.51567E+03  8.96277E+02 -8.01215E+02  2.94511E+02
 -1.91560E+02  1.50941E+02 -9.83876E+02  9.03614E+01 -1.09482E+03  1.69559E+02 -1.42131E+03 -4.71612E+02
 -1.93533E+03 -4.16648E+02 -1.81515E+02 -2.08566E+03  1.15443E+03 -2.65581E+03  1.73403E+03 -5.02534E+02
  1.79382E+03  4.48777E+02  1.50033E+02  1.16277E+03 -2.68828E+02  1.99710E+03 -1.29152E+03  1.63027E+03
