 $NMID ID='MM_0lb_SNR800_14hz_g50_29.RAW', FMTDAT='(8E13.5)'
 TRAMP=1., VOLUME=1. $END
  3.10031E+05  2.22558E+02  3.37614E+05  2.50395E+05  8.44177E+04  3.37993E+05 -1.32359E+05  2.51236E+05
 -1.90495E+05  8.27821E+04 -1.11885E+05 -3.24598E+04  6.98146E+02 -5.07911E+04  5.38712E+04 -5.29226E+02
  3.52878E+04  5.28221E+04 -1.66584E+04  7.53836E+04 -6.08557E+04  6.32741E+04 -8.42154E+04  3.21738E+04
 -8.09614E+04 -1.12708E+04 -5.69487E+04 -5.12674E+04 -1.51551E+04 -6.96551E+04  2.75547E+04 -4.57035E+04
  3.99930E+04  3.68450E+03  1.61470E+04  4.77815E+04 -3.44132E+04  4.67627E+04 -6.68703E+04 -2.51299E+02
 -5.38827E+04 -5.67541E+04 -6.77673E+03 -7.70717E+04  3.39549E+04 -5.50750E+04  4.81130E+04 -1.74033E+04
  4.32545E+04  1.10986E+04  3.17388E+04  2.53796E+04  1.58760E+04  2.94819E+04 -5.45571E+03  2.73084E+04
 -2.21549E+04  1.24648E+04 -1.86142E+04 -4.98918E+03  5.81126E+03 -7.52380E+03  2.26843E+04  1.22981E+04
  7.36587E+03  3.52188E+04 -3.21276E+04  3.54612E+04 -6.37589E+04  2.26316E+03 -5.67585E+04 -4.29248E+04
 -1.25946E+04 -6.31536E+04  4.00058E+04 -4.55569E+04  5.84015E+04 -2.42221E+03  3.42494E+04  3.24993E+04
 -6.11635E+03  3.60856E+04 -2.98587E+04  1.64744E+04 -3.04770E+04 -4.50577E+03 -1.69035E+04 -1.11555E+04
 -8.36125E+03 -1.33779E+04 -7.84456E+02 -1.84601E+04  7.53833E+03 -2.31445E+04  1.52370E+04 -1.32845E+04
  1.12418E+04  5.55031E+03 -8.47025E+03  1.30744E+04 -2.09771E+04 -4.44876E+03 -8.31521E+03 -3.37908E+04
  2.25294E+04 -4.34544E+04  4.84841E+04 -1.99691E+04  4.54940E+04  1.92878E+04  1.55380E+04  4.42189E+04
 -1.63275E+04  3.33423E+04 -2.55898E+04  1.77269E+03 -9.75704E+03 -2.81447E+04  2.09841E+04 -3.38137E+04
  4.12737E+04 -9.23286E+03  3.58148E+04  2.36806E+04  1.81226E+04  4.66163E+04 -8.23800E+03  5.03832E+04
 -3.16219E+04  3.40349E+04 -4.22383E+04  9.61831E+03 -4.29197E+04 -1.65699E+04 -2.37058E+04 -3.81923E+04
  7.30882E+03 -3.78821E+04  3.19211E+04 -1.49387E+04  2.92272E+04  1.06421E+04  3.88185E+03  1.91718E+04
 -1.36050E+04  8.74512E+03 -1.04763E+04 -7.87070E+03  5.85969E+03 -1.06946E+04  1.81268E+04  5.96179E+03
  1.37075E+04  2.20303E+04 -5.81825E+03  2.51650E+04 -2.24740E+04  1.13946E+04 -2.80125E+04 -4.69589E+03
 -2.09535E+04 -1.72877E+04 -8.68907E+03 -2.07625E+04  3.93965E+03 -1.98639E+04  1.59445E+04 -1.81378E+04
  2.62981E+04 -1.29503E+04  3.26933E+04  2.72489E+03  2.40336E+04  2.02746E+04  4.29041E+03  3.69496E+04
 -1.78291E+04  3.06799E+04 -2.82228E+04  1.06763E+04 -2.08823E+04 -1.02674E+04 -4.56043E+03 -1.33941E+04
  1.44142E+03 -2.68461E+03 -4.87380E+03  6.41032E+03 -1.61809E+04  4.92325E+03 -1.64622E+04 -6.75116E+03
 -1.01676E+04 -1.90555E+04  5.01832E+03 -2.32198E+04  1.53600E+04 -1.67502E+04  1.80025E+04 -1.88990E+03
  1.13068E+04  1.32276E+04 -1.22268E+03  1.93268E+04 -1.31266E+04  1.07980E+04 -1.91247E+04 -4.11991E+03
 -1.39801E+04 -1.68673E+04 -1.51776E+03 -2.31636E+04  1.04322E+04 -1.89453E+04  1.88200E+04 -9.25516E+03
  1.78840E+04  4.15730E+02  1.31244E+04  4.53927E+03  6.96140E+03  7.59744E+02  9.42546E+03 -1.67588E+03
  1.75881E+04  2.63928E+03  1.95605E+04  1.52526E+04  1.29941E+04  3.04012E+04 -2.75767E+03  3.42396E+04
 -1.99855E+04  2.76973E+04 -3.21661E+04  1.35066E+04 -3.37583E+04 -2.76005E+03 -2.78020E+04 -1.96214E+04
 -1.19970E+04 -2.78823E+04  9.50442E+03 -2.52260E+04  2.14984E+04 -1.28233E+04  1.91603E+04  5.54256E+03
  7.52399E+03  1.46047E+04 -9.05333E+03  1.29790E+04 -1.62956E+04  2.57449E+03 -1.25333E+04 -1.03127E+04
 -1.55775E+02 -1.54059E+04  8.03638E+03 -1.18527E+04  1.01334E+04 -1.44739E+03  2.47760E+03  6.81008E+03
 -6.95613E+03  2.67733E+03 -5.98221E+03 -5.62056E+03 -6.25677E+02 -1.37989E+04  9.47315E+03 -1.43310E+04
  1.71008E+04 -7.57129E+03  1.81632E+04  2.97576E+03  1.57442E+04  1.34908E+04  7.28971E+03  2.04836E+04
 -3.56852E+03  2.22026E+04 -1.44408E+04  1.38425E+04 -1.63207E+04  3.28699E+03 -1.13988E+04 -3.86324E+03
 -5.31128E+03 -5.02003E+03 -4.66778E+02  1.18258E+03 -2.11702E+03  2.75655E+03 -5.25359E+03  4.46510E+03
 -1.07853E+04 -7.81304E+02 -1.11874E+04 -9.41892E+03 -4.90852E+03 -1.47556E+04  4.67104E+03 -1.15889E+04
  9.64102E+03 -5.02249E+03  7.00993E+03  2.81392E+03  2.33401E+02  4.41370E+03 -5.39134E+03 -1.51003E+02
 -4.96703E+03 -7.21431E+03 -9.47955E+02 -1.05508E+04  6.16136E+03 -1.13890E+04  1.41919E+04 -5.72548E+03
  1.62810E+04  1.21787E+03  1.21909E+04  9.70970E+03  2.34426E+03  1.28095E+04 -7.29702E+03  1.12482E+04
 -9.31293E+03  3.35452E+03 -4.87432E+03 -1.93517E+03  1.53977E+03 -3.03452E+03  6.00508E+03 -1.06619E+03
  5.47321E+03  4.91754E+03  8.94265E+02  8.99333E+03 -6.34604E+03  8.82786E+03 -1.10392E+04  2.07665E+03
 -6.88731E+03 -5.60797E+03  3.35809E+02 -9.22461E+03  5.83518E+03 -4.85263E+03  5.94742E+03  1.78126E+03
  1.37236E+03  5.85751E+03 -5.68626E+03  7.34915E+03 -8.43553E+03  3.32206E+03 -8.10159E+03 -2.68310E+03
 -4.76687E+03 -1.01578E+04  2.26180E+03 -1.12884E+04  9.59262E+03 -6.81514E+03  1.06441E+04  1.45774E+03
  6.61773E+03  8.47729E+03 -2.34104E+02  1.06784E+04 -7.43829E+03  6.00426E+03 -8.09139E+03 -7.35284E+02
 -7.68973E+03 -7.13604E+03 -1.27577E+03 -7.92542E+03  3.95083E+03 -6.64801E+03  4.60312E+03 -3.12355E+03
  3.49224E+03  8.67397E+02 -7.49621E+02  1.56454E+03  1.00799E+02 -1.68525E+03  1.09754E+03 -4.06389E+03
  6.77731E+03 -2.58057E+03  9.50389E+03  1.41479E+03  9.50878E+03  6.16783E+03  7.31703E+03  1.24448E+04
 -2.74818E+03  1.43528E+04 -1.23595E+04  1.06329E+04 -1.56244E+04  2.02427E+03 -1.30380E+04 -4.97803E+03
 -6.71048E+03 -1.02688E+04 -2.27817E+02 -8.85404E+03  2.99039E+03 -4.64531E+03  2.88985E+03 -3.01356E+03
  2.17957E+03 -2.22106E+03  2.64097E+03 -2.96039E+03  4.51299E+03 -1.62015E+03  5.27265E+03 -5.46273E+02
  6.77746E+03  1.54310E+03  2.96841E+03  5.63292E+03 -1.67262E+03  5.89291E+03 -7.09175E+03  4.84887E+03
 -8.70452E+03 -8.49392E+02 -4.58843E+03 -5.72147E+03 -3.89546E+02 -8.98202E+03  5.21411E+03 -8.81134E+03
  8.99379E+03 -5.17937E+03  1.13731E+04  1.01372E+03  8.10219E+03  7.90947E+03  1.22008E+03  1.02804E+04
 -4.14198E+03  8.88487E+03 -6.12445E+03  2.69288E+03 -3.83974E+03 -1.32549E+03 -1.27629E+03 -1.08134E+03
 -7.57886E+02  2.81618E+02 -1.48522E+03  2.25831E+03 -3.63024E+03  1.47586E+03 -6.24680E+03 -7.98719E+02
 -3.79583E+03 -6.09939E+03  6.72124E+02 -8.24281E+03  5.10920E+03 -7.86757E+03  7.41445E+03 -2.10681E+03
  7.64781E+03  4.22254E+03  3.78972E+03  6.90484E+03 -1.16087E+03  8.33720E+03 -5.47027E+03  5.03464E+03
 -7.41549E+03  5.76947E+02 -6.06722E+03 -4.76396E+03 -3.28190E+02 -6.53718E+03  3.36143E+03 -4.71135E+03
  5.09613E+03 -2.20176E+03  3.04870E+03  9.16810E+02  1.05089E+03  2.85099E+03  8.97385E+02  1.15698E+03
  1.87145E+03  8.53095E+02  1.82639E+03  1.42028E+03  2.15365E+03  3.23008E+03  2.01081E+03  3.96182E+03
 -2.00002E+03  5.66929E+03 -5.36147E+03  6.41344E+03 -6.95291E+03  1.86933E+03 -8.28016E+03 -2.51940E+03
 -3.71530E+03 -7.27764E+03  1.28013E+03 -8.71986E+03  4.13468E+03 -5.53956E+03  6.24674E+03 -1.63340E+03
  4.94046E+03  2.79187E+03  1.06013E+03  4.21534E+03 -2.09257E+03  2.55937E+03 -2.84640E+03 -4.73059E+02
 -1.58060E+03 -3.20703E+03  1.90917E+03 -3.21198E+03  3.25324E+03 -1.67816E+03  2.75229E+03  6.21966E+02
  1.40280E+03  9.13423E+02  8.90337E+02  7.20146E+02 -5.38973E+02  1.32816E+03  1.50537E+03 -4.62767E+02
  1.06355E+03 -4.38113E+02  3.28039E+03  1.39614E+03  1.29025E+03  4.54611E+03 -5.23613E+02  5.34225E+03
 -3.32219E+03  3.19953E+03 -4.49633E+03  6.78805E+02 -4.13755E+03 -1.70954E+03 -1.05249E+03 -2.59315E+03
  6.84166E+02 -2.87151E+03  1.81838E+03 -1.25118E+03  1.57229E+03  1.76445E+03 -1.15356E+03  2.63813E+03
 -3.07291E+03  1.60319E+03 -3.10499E+03 -2.12440E+03 -1.82425E+03 -4.09921E+03  4.65834E+02 -3.59519E+03
  1.72936E+03 -1.96817E+03  2.76303E+03  3.02814E+02  2.33315E+03  7.25632E+02  5.49483E+02  2.41311E+03
 -9.13952E+02  5.43699E+02 -1.96234E+03 -1.03150E+03  9.72419E+02 -2.54366E+03  3.85545E+03 -2.04055E+03
  3.75336E+03  3.48963E+02  4.73749E+03  2.69377E+03  1.78225E+03  4.19114E+03 -1.44440E+03  3.95329E+03
 -3.51159E+03  1.41937E+03 -3.59579E+03 -4.32357E+02 -1.88851E+03 -3.07630E+03  9.17491E+02 -2.09892E+03
  2.85880E+03 -1.48201E+03  2.01847E+03  1.28302E+03  4.93504E+02  2.36282E+03 -8.22710E+01  2.45468E+03
 -7.92468E+02  1.88672E+03 -9.00071E+02  1.21101E+02 -2.03397E+02  2.56910E+02 -9.39376E+02  9.30278E+02
 -1.20383E+03  1.78488E+03 -3.12371E+03  1.31361E+03 -4.01620E+03  1.11106E+02 -4.77348E+03 -2.62170E+03
 -2.41245E+03 -5.56155E+03  9.60688E+02 -6.37116E+03  3.39279E+03 -5.41894E+03  6.08775E+03 -2.27912E+03
  5.65216E+03  6.33913E+02  3.33883E+03  3.84439E+03 -1.75366E+02  4.16053E+03 -1.59954E+03  3.37078E+03
 -2.18861E+03  1.51505E+03 -1.44503E+03 -1.32144E+02 -5.93736E+02 -1.76155E+02 -6.83530E+02  1.51479E+02
 -1.48384E+03  2.69050E+02 -1.51072E+03 -2.74902E+00 -5.21227E+01 -1.00365E+03 -2.98568E+01 -1.83532E+03
  2.28720E+03 -1.21862E+03  2.25341E+03  1.16928E+02  3.03956E+03  2.42505E+03  3.33202E+02  4.01308E+03
 -2.13758E+03  4.87169E+03 -4.22920E+03  2.83330E+03 -4.75294E+03 -4.47492E+02 -3.48491E+03 -3.12208E+03
 -1.75595E+03 -4.04470E+03  9.80447E+02 -3.91171E+03  2.29466E+03 -1.83291E+03  2.35356E+03 -1.64386E+02
  1.36886E+03  1.30039E+03 -2.01046E+02  1.11304E+03 -7.89191E+02 -6.72597E+01 -2.33181E+02 -9.32840E+02
  1.11813E+03 -4.85457E+02  1.02792E+03  8.28668E+02  8.32665E+02  1.47350E+03  5.87227E+02  2.08264E+03
 -1.30972E+03  1.68215E+03 -2.23767E+03  6.10009E+02 -2.34391E+03 -1.59980E+03 -8.73312E+01 -2.84484E+03
  1.87267E+03 -2.48159E+03  2.52613E+03 -6.17457E+02  2.77683E+03  3.21777E+02  1.65504E+03  2.29249E+03
  6.15654E+02  2.30912E+03 -6.30648E+02  2.05621E+03 -1.69656E+03  1.42617E+03 -1.43426E+03  4.12196E+01
 -9.41783E+02 -6.21463E+01 -6.75574E+02  5.90635E+02 -1.14984E+03  5.17079E+02 -2.12171E+03 -5.85751E+02
 -1.97833E+03 -8.66602E+02 -8.18932E+02 -2.56212E+03  1.09360E+03 -2.80139E+03  1.88658E+03 -1.00117E+03
  2.02653E+03  8.21796E+01  8.90789E+02  1.31546E+03 -4.99807E+02  2.25514E+03 -1.65250E+03  1.60466E+03
