 $NMID ID='MM_0lb_SNR800_17hz_g50_78.RAW', FMTDAT='(8E13.5)'
 TRAMP=1., VOLUME=1. $END
  3.09706E+05  5.51489E+02  3.37169E+05  2.50209E+05  8.43693E+04  3.37419E+05 -1.32509E+05  2.50790E+05
 -1.89797E+05  8.25782E+04 -1.11051E+05 -3.30021E+04  1.18679E+03 -5.05004E+04  5.39430E+04 -1.30366E+02
  3.51160E+04  5.26440E+04 -1.70632E+04  7.52806E+04 -6.04814E+04  6.34173E+04 -8.36206E+04  3.15967E+04
 -8.05262E+04 -1.11819E+04 -5.63378E+04 -5.06726E+04 -1.52269E+04 -6.86859E+04  2.68525E+04 -4.53780E+04
  3.94930E+04  3.81241E+03  1.59944E+04  4.75072E+04 -3.42545E+04  4.65467E+04 -6.61255E+04 -3.50132E+02
 -5.25213E+04 -5.62115E+04 -6.59178E+03 -7.58406E+04  3.34275E+04 -5.40370E+04  4.70647E+04 -1.68223E+04
  4.22480E+04  1.12261E+04  3.14371E+04  2.51418E+04  1.55740E+04  2.87789E+04 -4.76673E+03  2.67153E+04
 -2.17816E+04  1.23664E+04 -1.87651E+04 -4.45997E+03  4.84837E+03 -7.49940E+03  2.18239E+04  1.13265E+04
  7.23669E+03  3.38772E+04 -3.09930E+04  3.47274E+04 -6.19429E+04  2.07659E+03 -5.62902E+04 -4.20044E+04
 -1.25883E+04 -6.20780E+04  3.88399E+04 -4.42423E+04  5.67386E+04 -1.80098E+03  3.27945E+04  3.12419E+04
 -6.45113E+03  3.41766E+04 -2.92503E+04  1.45925E+04 -2.87471E+04 -4.99218E+03 -1.54670E+04 -1.07088E+04
 -7.63055E+03 -1.19801E+04 -9.67321E+02 -1.73205E+04  6.99834E+03 -2.26656E+04  1.51238E+04 -1.35700E+04
  1.19110E+04  4.72925E+03 -7.07690E+03  1.32262E+04 -2.01451E+04 -3.49805E+03 -7.92598E+03 -3.15491E+04
  2.15771E+04 -4.19767E+04  4.60477E+04 -1.89535E+04  4.30809E+04  1.87452E+04  1.50081E+04  4.25106E+04
 -1.56173E+04  3.22821E+04 -2.41188E+04  1.54519E+03 -8.66420E+03 -2.68403E+04  2.06683E+04 -3.23342E+04
  3.94069E+04 -8.30816E+03  3.32053E+04  2.31408E+04  1.65143E+04  4.43415E+04 -7.87631E+03  4.72402E+04
 -2.99111E+04  3.12311E+04 -3.93169E+04  8.88481E+03 -4.00442E+04 -1.58814E+04 -2.22426E+04 -3.57873E+04
  7.06754E+03 -3.57467E+04  3.05385E+04 -1.33035E+04  2.80378E+04  1.08966E+04  3.43429E+03  1.81901E+04
 -1.33985E+04  7.86069E+03 -9.80115E+03 -7.81754E+03  5.76656E+03 -1.01725E+04  1.79077E+04  6.40781E+03
  1.28169E+04  2.18049E+04 -6.41801E+03  2.39875E+04 -2.18274E+04  1.01249E+04 -2.62040E+04 -5.61051E+03
 -1.86005E+04 -1.69248E+04 -7.00001E+03 -1.83919E+04  3.92481E+03 -1.65134E+04  1.37925E+04 -1.60802E+04
  2.31378E+04 -1.19966E+04  2.98014E+04  1.95927E+03  2.22995E+04  1.79772E+04  4.25683E+03  3.38531E+04
 -1.65786E+04  2.88431E+04 -2.68430E+04  1.00233E+04 -2.00336E+04 -1.04674E+04 -4.10653E+03 -1.36907E+04
  2.12627E+03 -3.77182E+03 -3.59481E+03  5.67224E+03 -1.37898E+04  5.25087E+03 -1.43960E+04 -5.77146E+03
 -9.30470E+03 -1.67234E+04  4.73572E+03 -2.05652E+04  1.37661E+04 -1.49478E+04  1.61035E+04 -1.77405E+03
  9.86762E+03  1.16917E+04 -8.95995E+02  1.70137E+04 -1.14358E+04  9.32265E+03 -1.66675E+04 -3.85461E+03
 -1.23660E+04 -1.50814E+04 -1.74363E+03 -2.08017E+04  9.21714E+03 -1.67480E+04  1.72085E+04 -8.25921E+03
  1.58703E+04  5.58692E+02  1.14350E+04  4.22290E+03  5.70144E+03  5.68235E+02  8.40677E+03 -1.25681E+03
  1.52370E+04  2.79076E+03  1.67764E+04  1.35159E+04  1.03323E+04  2.70322E+04 -3.01982E+03  2.94281E+04
 -1.74594E+04  2.29833E+04 -2.73222E+04  1.13448E+04 -2.77944E+04 -1.86887E+03 -2.38292E+04 -1.60800E+04
 -1.05892E+04 -2.30983E+04  7.69943E+03 -2.14406E+04  1.81900E+04 -1.15460E+04  1.68527E+04  4.34284E+03
  6.72529E+03  1.24364E+04 -7.69213E+03  1.13922E+04 -1.43823E+04  2.50564E+03 -1.09824E+04 -8.80048E+03
  1.10594E+01 -1.31876E+04  6.87607E+03 -1.03291E+04  8.51467E+03 -1.36559E+03  1.81918E+03  5.43230E+03
 -6.04518E+03  1.70923E+03 -4.34087E+03 -4.83679E+03  9.96067E+01 -1.14505E+04  8.38779E+03 -1.15524E+04
  1.39717E+04 -5.76363E+03  1.40267E+04  2.62170E+03  1.20097E+04  1.11527E+04  5.84878E+03  1.62094E+04
 -2.08127E+03  1.82647E+04 -1.12782E+04  1.14311E+04 -1.30672E+04  2.97617E+03 -9.32908E+03 -2.40714E+03
 -5.01609E+03 -3.69816E+03 -4.95168E+02  1.03317E+03 -1.74073E+03  1.97430E+03 -4.43319E+03  3.49369E+03
 -8.83742E+03 -8.18969E+02 -9.65144E+03 -7.65636E+03 -3.82734E+03 -1.25471E+04  4.00941E+03 -9.48223E+03
  8.11203E+03 -4.02078E+03  5.86707E+03  2.29002E+03  5.87703E+02  3.32868E+03 -4.18499E+03 -3.28256E+02
 -3.85280E+03 -6.14182E+03 -6.63770E+02 -8.18477E+03  4.48963E+03 -9.12040E+03  1.13630E+04 -4.49951E+03
  1.31268E+04  8.12354E+02  9.80810E+03  7.17235E+03  2.06509E+03  1.00155E+04 -5.96793E+03  9.57542E+03
 -7.81128E+03  3.10975E+03 -3.78730E+03 -1.61550E+03  1.37142E+03 -2.22361E+03  5.32475E+03 -8.57093E+02
  4.60879E+03  3.77704E+03  1.07049E+03  7.11818E+03 -5.03122E+03  7.40105E+03 -8.99410E+03  2.08793E+03
 -5.77838E+03 -4.21898E+03  1.75649E+02 -7.28296E+03  4.53143E+03 -3.67086E+03  4.34700E+03  9.78181E+02
  7.31295E+02  4.38121E+03 -4.74637E+03  5.43714E+03 -6.03547E+03  2.68078E+03 -5.64123E+03 -1.44993E+03
 -3.61320E+03 -7.07369E+03  1.38829E+03 -8.39957E+03  7.31295E+03 -5.31264E+03  7.78247E+03  1.05155E+03
  5.49622E+03  6.56925E+03  6.42733E+00  8.46667E+03 -5.97306E+03  4.85482E+03 -6.13751E+03 -4.26656E+02
 -6.29795E+03 -5.48417E+03 -1.50355E+03 -5.85922E+03  3.33062E+03 -5.31554E+03  3.62985E+03 -2.94608E+03
  3.22240E+03  7.01101E+02 -1.61204E+01  1.47006E+03  4.67803E+02 -7.58428E+02  1.12157E+02 -2.49344E+03
  4.61041E+03 -1.17877E+03  6.67428E+03  7.07374E+02  6.69126E+03  4.20116E+03  5.70254E+03  8.65882E+03
 -1.69860E+03  1.05568E+04 -8.81928E+03  7.80653E+03 -1.17771E+04  1.43364E+03 -9.12651E+03 -3.30256E+03
 -4.71392E+03 -8.03189E+03 -5.09152E+02 -6.37737E+03  2.47654E+03 -2.77841E+03  2.22830E+03 -2.31248E+03
  1.40476E+03 -1.60235E+03  2.54401E+03 -2.63857E+03  3.78859E+03 -1.48759E+03  4.13206E+03  2.77945E+02
  5.29955E+03  1.31700E+03  1.67287E+03  4.16350E+03 -1.53199E+03  3.67617E+03 -5.26505E+03  3.41243E+03
 -5.98661E+03 -1.10543E+03 -2.70164E+03 -3.79843E+03  8.29818E+01 -6.15042E+03  3.79481E+03 -6.37422E+03
  6.58807E+03 -3.79504E+03  8.01845E+03  3.38173E+02  5.74133E+03  5.34826E+03  1.41405E+03  7.01268E+03
 -2.73522E+03  6.66851E+03 -3.97745E+03  1.86835E+03 -2.62347E+03 -1.05162E+03 -5.97015E+02 -8.48973E+02
 -7.36204E+02  5.20045E+02 -9.19012E+02  2.14870E+03 -2.69707E+03  1.05471E+03 -4.69019E+03 -2.29692E+02
 -2.40577E+03 -4.56009E+03  5.93191E+02 -5.55988E+03  3.45758E+03 -5.16006E+03  4.69586E+03 -1.42621E+03
  4.81679E+03  2.79153E+03  2.46558E+03  4.02468E+03 -1.08920E+03  5.52732E+03 -3.35155E+03  3.55042E+03
 -4.81782E+03  7.06718E+02 -4.18012E+03 -2.93555E+03  7.69173E+01 -3.90002E+03  2.23230E+03 -3.18859E+03
  3.22040E+03 -1.65190E+03  1.87602E+03  6.16030E+02  5.91113E+02  2.20794E+03  7.66493E+02  7.93443E+02
  1.58128E+03  5.78323E+02  1.62424E+03  1.07681E+03  1.27030E+03  2.51193E+03  1.53860E+03  2.00657E+03
 -1.55957E+03  3.96389E+03 -3.22640E+03  4.65282E+03 -4.23419E+03  1.26020E+03 -5.03979E+03 -7.44598E+02
 -2.04889E+03 -5.02846E+03  8.83417E+02 -5.67114E+03  2.69415E+03 -3.24925E+03  3.88504E+03 -1.17244E+03
  2.91588E+03  2.09810E+03  3.38995E+02  2.76295E+03 -1.19029E+03  1.32785E+03 -1.47457E+03 -2.32403E+02
 -8.88354E+02 -2.00362E+03  1.20073E+03 -1.88062E+03  1.65326E+03 -1.13481E+03  1.88189E+03  4.56473E+02
  9.11166E+02  5.22661E+02  7.04102E+02 -6.89054E+01 -3.38710E+02  7.31595E+02  1.61002E+03 -4.39578E+02
  2.31901E+02 -2.04263E+02  2.27848E+03  9.73301E+02  4.19052E+02  2.77796E+03 -3.23474E+01  3.42668E+03
 -2.36418E+03  1.57191E+03 -2.85387E+03  4.58649E+02 -2.60618E+03 -8.17234E+02 -2.47700E+02 -1.27885E+03
  4.54297E+02 -1.28627E+03  9.00174E+02 -1.20901E+03  7.47640E+02  1.43546E+03 -7.15756E+02  1.50038E+03
 -2.00925E+03  1.08667E+03 -1.60342E+03 -1.58097E+03 -1.07440E+03 -2.52610E+03  1.07695E+02 -2.11508E+03
  7.26085E+02 -7.63132E+02  1.15597E+03  3.60770E+02  1.85522E+03  1.28932E+01  1.97675E+02  1.33386E+03
 -3.78421E+02  1.44907E+02 -1.10450E+03 -4.27047E+02  7.50668E+02 -1.29797E+03  2.12652E+03 -1.21769E+03
  1.61678E+03  2.89623E+02  3.47968E+03  1.18159E+03  1.33833E+03  2.11620E+03 -2.76607E+02  2.50852E+03
 -1.95576E+03  3.33532E+02 -1.89507E+03 -1.17580E+02 -1.29040E+03 -1.89580E+03  6.98852E+02 -7.46021E+02
  1.76620E+03 -8.03207E+02  1.12728E+03  1.03479E+03  2.01154E+02  1.38674E+03  2.65818E+02  1.47653E+03
 -4.39783E+02  1.37317E+03 -7.12008E+02  2.62969E+02  1.05324E+02  3.86009E+02 -7.29852E+02  5.78268E+02
 -7.96873E+02  1.06232E+03 -2.24342E+03  5.60077E+02 -1.79416E+03  9.91523E+01 -2.99919E+03 -1.10718E+03
 -1.17300E+03 -3.15922E+03  6.46499E+02 -3.63085E+03  1.24262E+03 -2.88939E+03  3.63607E+03 -1.48762E+03
  3.12824E+03  1.28859E+02  1.67476E+03  2.15025E+03 -5.11176E+02  1.90599E+03 -8.04111E+02  1.92599E+03
 -1.40111E+03  8.20838E+02 -8.05770E+02 -3.71929E+02 -4.16986E+02  2.27153E+01 -7.53887E+02  4.82568E+01
 -1.06901E+03  8.97830E+01 -9.37604E+02  2.82700E+01  1.98012E+02 -1.06693E+03 -4.43978E+02 -1.27580E+03
  1.42235E+03 -6.86573E+02  7.60825E+02  4.00711E+01  1.33175E+03  1.22516E+03 -2.99241E+02  2.07781E+03
 -1.21504E+03  2.67675E+03 -2.09794E+03  1.87371E+03 -2.56191E+03  3.18112E+01 -1.55659E+03 -1.31627E+03
 -9.14649E+02 -1.88970E+03  3.81302E+02 -1.71147E+03  9.98727E+02 -4.93785E+02  1.08722E+03  4.08746E+02
  1.15774E+03  5.53566E+02  2.04789E+02  7.31752E+02 -4.36218E+02  2.00440E+02  2.19546E+01 -3.27613E+02
  5.37245E+02 -2.10895E+01  6.42110E+02  4.53120E+02  2.01987E+02  5.03109E+02  1.05090E+02  6.48275E+02
 -9.75781E+02  9.63850E+02 -7.30539E+02  1.44227E+02 -1.14527E+03 -8.70728E+02 -2.98481E+01 -1.45606E+03
  7.68621E+02 -7.57019E+02  1.17839E+03 -1.88102E+01  1.46801E+03 -5.03108E+02  7.64187E+02  8.84587E+02
  4.58544E+02  9.51763E+02 -4.52868E+02  8.48303E+02 -7.84731E+02  8.86705E+02 -6.97836E+02  2.22437E+02
 -2.95803E+02  8.78829E+01 -8.47969E+02  9.19152E+01 -7.04695E+02  3.62984E+02 -1.04211E+03 -2.76313E+02
 -8.25252E+02 -1.07467E+02 -2.04106E+02 -1.17579E+03  8.05671E+02 -2.17609E+03  1.20924E+03 -8.14724E+02
  1.08009E+03 -9.60219E+01 -2.70373E+01  5.50032E+02 -1.05414E+02  1.39894E+03 -9.54108E+02  8.84668E+02
