 $NMID ID='MM_0lb_SNR800_10hz_g60_13.RAW', FMTDAT='(8E13.5)'
 TRAMP=1., VOLUME=1. $END
  3.10079E+05  6.56212E+02  3.38066E+05  2.50736E+05  8.48573E+04  3.38468E+05 -1.32623E+05  2.51914E+05
 -1.90868E+05  8.37473E+04 -1.12390E+05 -3.21380E+04  2.03356E+02 -5.08341E+04  5.37423E+04 -6.50029E+02
  3.58521E+04  5.28686E+04 -1.65474E+04  7.60063E+04 -6.15958E+04  6.43401E+04 -8.55039E+04  3.29619E+04
 -8.26597E+04 -1.18057E+04 -5.82304E+04 -5.23769E+04 -1.51176E+04 -7.09695E+04  2.81037E+04 -4.66943E+04
  4.09815E+04  3.60625E+03  1.66196E+04  4.85411E+04 -3.49748E+04  4.82751E+04 -6.83765E+04  4.39472E+01
 -5.50303E+04 -5.80001E+04 -7.56222E+03 -7.90814E+04  3.50532E+04 -5.72643E+04  5.01170E+04 -1.85259E+04
  4.54418E+04  1.14077E+04  3.30053E+04  2.64213E+04  1.57732E+04  3.06395E+04 -5.93397E+03  2.79017E+04
 -2.25390E+04  1.21610E+04 -1.81955E+04 -5.80516E+03  7.04794E+03 -7.53218E+03  2.35564E+04  1.37256E+04
  7.17020E+03  3.75750E+04 -3.42219E+04  3.70090E+04 -6.55730E+04  2.37664E+03 -5.90595E+04 -4.44675E+04
 -1.28001E+04 -6.61949E+04  4.17035E+04 -4.76989E+04  6.13389E+04 -2.57438E+03  3.66811E+04  3.43203E+04
 -5.54963E+03  3.97200E+04 -3.20557E+04  1.88756E+04 -3.31916E+04 -3.44681E+03 -1.95386E+04 -1.22575E+04
 -9.98470E+03 -1.52967E+04 -2.48236E+02 -1.95299E+04  8.36884E+03 -2.32646E+04  1.59664E+04 -1.25136E+04
  1.09623E+04  6.22188E+03 -1.09112E+04  1.32696E+04 -2.35475E+04 -6.78415E+03 -8.83357E+03 -3.72459E+04
  2.50831E+04 -4.72841E+04  5.26189E+04 -2.05374E+04  4.85153E+04  2.10965E+04  1.74652E+04  4.72725E+04
 -1.69115E+04  3.62976E+04 -2.77203E+04  2.46100E+03 -1.18226E+04 -2.97309E+04  2.17463E+04 -3.68896E+04
  4.45443E+04 -1.09382E+04  4.04901E+04  2.51832E+04  2.12991E+04  5.09615E+04 -8.37003E+03  5.63688E+04
 -3.56881E+04  3.83153E+04 -4.78491E+04  1.13230E+04 -4.79016E+04 -1.83719E+04 -2.64242E+04 -4.22782E+04
  7.56473E+03 -4.25473E+04  3.43612E+04 -1.70256E+04  3.19300E+04  1.09921E+04  5.29359E+03  2.06746E+04
 -1.41155E+04  9.72364E+03 -1.16026E+04 -7.45548E+03  5.52773E+03 -1.17547E+04  1.92476E+04  5.31808E+03
  1.47185E+04  2.27930E+04 -5.04767E+03  2.68467E+04 -2.32433E+04  1.44964E+04 -3.15866E+04 -2.65877E+03
 -2.55006E+04 -1.87226E+04 -1.15426E+04 -2.53009E+04  4.72250E+03 -2.60359E+04  1.95919E+04 -2.32773E+04
  3.23446E+04 -1.45458E+04  3.79678E+04  5.19532E+03  2.73911E+04  2.43570E+04  4.48772E+03  4.15703E+04
 -1.99858E+04  3.42266E+04 -3.09602E+04  1.18955E+04 -2.23345E+04 -1.05390E+04 -5.00714E+03 -1.25578E+04
  3.82331E+02 -1.37379E+03 -7.80436E+03  8.07881E+03 -2.03512E+04  4.76591E+03 -2.02724E+04 -9.51157E+03
 -1.20158E+04 -2.36511E+04  5.64561E+03 -2.78915E+04  1.90024E+04 -2.00564E+04  2.28657E+04 -1.92725E+03
  1.46869E+04  1.62134E+04 -1.41200E+03  2.34114E+04 -1.65141E+04  1.30687E+04 -2.37221E+04 -4.84320E+03
 -1.73105E+04 -2.04486E+04 -2.34268E+03 -2.81100E+04  1.28390E+04 -2.36230E+04  2.28167E+04 -1.21805E+04
  2.20240E+04 -4.39964E+02  1.62889E+04  5.27220E+03  8.55146E+03  1.26469E+03  1.19300E+04 -1.90785E+03
  2.20747E+04  3.00098E+03  2.51266E+04  1.82822E+04  1.75544E+04  3.83138E+04 -2.61287E+03  4.45483E+04
 -2.55315E+04  3.71369E+04 -4.15345E+04  1.93616E+04 -4.47534E+04 -2.96934E+03 -3.64070E+04 -2.63528E+04
 -1.46972E+04 -3.71524E+04  1.30888E+04 -3.22160E+04  2.77807E+04 -1.50497E+04  2.39992E+04  7.70704E+03
  7.82651E+03  1.90083E+04 -1.21019E+04  1.62551E+04 -2.01616E+04  2.63629E+03 -1.54504E+04 -1.30795E+04
 -4.76492E+02 -1.94883E+04  1.02986E+04 -1.40916E+04  1.33746E+04 -1.36446E+03  3.14735E+03  8.86997E+03
 -8.39133E+03  4.40414E+03 -9.06605E+03 -6.91113E+03 -1.82374E+03 -1.83262E+04  1.18413E+04 -1.99009E+04
  2.26964E+04 -1.09433E+04  2.64732E+04  3.58371E+03  2.32893E+04  1.87488E+04  1.05535E+04  2.93937E+04
 -5.29203E+03  3.09065E+04 -2.01650E+04  1.90897E+04 -2.26415E+04  4.34050E+03 -1.55879E+04 -5.73978E+03
 -6.40385E+03 -7.00795E+03 -7.65751E+02  6.44232E+02 -2.64076E+03  3.53411E+03 -7.62685E+03  5.68190E+03
 -1.39381E+04 -1.12244E+03 -1.49984E+04 -1.18992E+04 -5.81507E+03 -1.94339E+04  6.69386E+03 -1.54055E+04
  1.26660E+04 -6.67204E+03  9.33046E+03  4.17599E+03 -4.05957E+02  6.07429E+03 -7.63541E+03 -4.41013E+02
 -7.30538E+03 -9.94296E+03 -9.88153E+02 -1.55574E+04  8.79366E+03 -1.60095E+04  2.03368E+04 -8.48883E+03
  2.34423E+04  3.04047E+03  1.71587E+04  1.40385E+04  2.93055E+03  1.91026E+04 -9.46661E+03  1.51480E+04
 -1.25924E+04  4.89788E+03 -6.68447E+03 -3.13252E+03  1.92206E+03 -4.63075E+03  7.85590E+03 -1.04855E+03
  7.54268E+03  6.84226E+03  1.08919E+03  1.24765E+04 -8.84483E+03  1.20296E+04 -1.54169E+04  2.63535E+03
 -1.06973E+04 -7.88942E+03  3.72189E+02 -1.35521E+04  8.73601E+03 -6.88989E+03  9.14871E+03  2.79951E+03
  2.22616E+03  9.95273E+03 -8.23568E+03  1.12724E+04 -1.34185E+04  4.88646E+03 -1.38719E+04 -4.89879E+03
 -7.66744E+03 -1.57353E+04  3.50969E+03 -1.75623E+04  1.50716E+04 -1.05991E+04  1.71143E+04  2.67737E+03
  9.62951E+03  1.27584E+04 -1.51440E+03  1.52501E+04 -1.12237E+04  8.72657E+03 -1.26572E+04 -1.37504E+03
 -1.06530E+04 -1.06143E+04 -1.98049E+03 -1.15425E+04  5.91505E+03 -9.88302E+03  7.95066E+03 -3.86721E+03
  4.67651E+03  2.13838E+03 -9.36032E+02  1.85105E+03 -8.70760E+02 -3.28850E+03  2.00324E+03 -7.30685E+03
  1.12517E+04 -5.07038E+03  1.57839E+04  1.49140E+03  1.52771E+04  1.10497E+04  9.75620E+03  2.04251E+04
 -5.16813E+03  2.33818E+04 -1.95315E+04  1.71038E+04 -2.50078E+04  3.19339E+03 -2.05886E+04 -8.90665E+03
 -1.00893E+04 -1.67246E+04 -1.97224E+02 -1.41516E+04  4.85862E+03 -8.10993E+03  5.10047E+03 -5.16615E+03
  4.04339E+03 -3.40194E+03  3.73056E+03 -3.80688E+03  5.76229E+03 -3.43281E+03  7.76433E+03 -1.37953E+03
  1.05194E+04  2.11553E+03  5.77272E+03  9.19442E+03 -2.54534E+03  1.07776E+04 -1.11854E+04  8.72978E+03
 -1.44406E+04 -1.38388E+03 -8.97264E+03 -1.02079E+04 -1.04986E+03 -1.52584E+04  8.67833E+03 -1.53921E+04
  1.61172E+04 -8.65644E+03  1.85794E+04  2.52306E+03  1.29778E+04  1.36254E+04  1.83331E+03  1.73600E+04
 -7.30325E+03  1.39982E+04 -1.01181E+04  5.06407E+03 -6.74399E+03 -1.79170E+03 -2.87755E+03 -2.08775E+03
 -1.61829E+03  4.19893E+01 -2.13704E+03  2.95155E+03 -6.06077E+03  2.37663E+03 -9.85228E+03 -1.37609E+03
 -7.31155E+03 -9.82819E+03 -2.57746E+02 -1.45067E+04  8.33164E+03 -1.27859E+04  1.41449E+04 -3.76981E+03
  1.45285E+04  6.96199E+03  6.25741E+03  1.25147E+04 -2.67527E+03  1.46025E+04 -1.03393E+04  9.05121E+03
 -1.34339E+04  3.30714E+02 -1.04899E+04 -8.84883E+03 -9.00068E+02 -1.19221E+04  6.30876E+03 -8.44754E+03
  9.13469E+03 -3.01163E+03  6.23979E+03  2.35256E+03  2.01592E+03  4.27812E+03  1.45061E+03  2.03336E+03
  2.37833E+03  9.10839E+02  3.23977E+03  1.53683E+03  4.42613E+03  5.23168E+03  3.66705E+03  7.42511E+03
 -2.79254E+03  1.12161E+04 -9.81522E+03  1.12698E+04 -1.47077E+04  3.18737E+03 -1.54505E+04 -6.23271E+03
 -8.03281E+03 -1.45603E+04  2.41456E+03 -1.60529E+04  8.40197E+03 -1.02236E+04  1.17429E+04 -2.77975E+03
  9.09301E+03  5.40363E+03  2.37831E+03  8.11000E+03 -4.00107E+03  5.18857E+03 -5.67286E+03 -6.99905E+02
 -2.67187E+03 -6.31549E+03  3.43730E+03 -6.51486E+03  5.34866E+03 -2.97327E+03  5.70110E+03  9.61424E+02
  3.49566E+03  2.91294E+03  1.61486E+03  2.65646E+03 -8.18179E+02  2.31591E+03  1.52509E+03 -6.48646E+02
  2.61177E+03 -9.89891E+02  5.85336E+03  2.38317E+03  3.34083E+03  7.83155E+03 -1.36246E+03  1.00685E+04
 -6.84492E+03  6.58171E+03 -8.82963E+03  2.19891E+03 -7.94191E+03 -2.81628E+03 -3.22104E+03 -5.74749E+03
  6.80237E+02 -5.57338E+03  3.76263E+03 -2.42305E+03  3.06551E+03  2.95714E+03 -1.48306E+03  4.68331E+03
 -6.29810E+03  2.89956E+03 -6.55962E+03 -3.48496E+03 -4.02156E+03 -7.45275E+03  9.21981E+02 -8.24289E+03
  4.61894E+03 -4.79849E+03  6.16544E+03 -4.40058E+02  5.00745E+03  2.37434E+03  4.85373E+02  4.10597E+03
 -3.02033E+03  1.08660E+03 -3.68032E+03 -2.85238E+03  1.65322E+03 -6.11220E+03  7.10691E+03 -4.97815E+03
  8.85753E+03  5.15284E+02  9.07904E+03  5.97183E+03  2.80075E+03  9.50717E+03 -3.31983E+03  9.06957E+03
 -7.72628E+03  3.91787E+03 -7.72650E+03 -1.43689E+03 -4.20176E+03 -5.90805E+03  2.00186E+03 -5.33360E+03
  5.65930E+03 -2.53350E+03  4.70660E+03  2.35133E+03  1.70487E+03  5.06209E+03 -9.08789E+02  4.43987E+03
 -2.76226E+03  2.99199E+03 -2.13533E+03  1.03126E+03 -1.42303E+03  1.07361E+03 -1.56773E+03  2.18842E+03
 -2.13876E+03  3.36510E+03 -6.13538E+03  3.26073E+03 -9.08511E+03  1.35577E+01 -1.05044E+04 -6.07609E+03
 -5.42181E+03 -1.22187E+04  2.97505E+03 -1.39279E+04  8.70516E+03 -1.11344E+04  1.35870E+04 -3.84905E+03
  1.24508E+04  2.83872E+03  7.98302E+03  8.85605E+03  5.15229E+02  9.45327E+03 -3.29178E+03  7.20981E+03
 -5.75119E+03  2.68581E+03 -3.14993E+03 -8.77379E+02 -1.09705E+03 -6.52840E+02 -7.48725E+02  2.15266E+02
 -1.61320E+03  1.97612E+02 -2.32800E+03 -4.42315E+01 -5.79659E+02 -2.57521E+03  3.04905E+02 -3.47876E+03
  4.42674E+03 -3.50134E+03  5.76974E+03  4.17293E+02  6.25301E+03  5.07817E+03  1.80814E+03  9.39477E+03
 -4.58577E+03  1.11295E+04 -9.90829E+03  6.44183E+03 -1.15289E+04 -1.22409E+03 -8.63923E+03 -7.18809E+03
 -3.27109E+03 -9.23370E+03  2.65192E+03 -8.74339E+03  6.31011E+03 -4.68480E+03  5.95128E+03  3.99468E+02
  3.79324E+03  3.01529E+03 -1.45257E+02  2.82187E+03 -2.01821E+03 -7.06721E+01  4.21714E+02 -2.05699E+03
  3.12015E+03 -1.39947E+03  3.85909E+03  1.07488E+03  2.35022E+03  3.43209E+03  3.37616E+02  4.87122E+03
 -4.07892E+03  4.24515E+03 -6.36476E+03  4.66162E+02 -5.70733E+03 -4.44884E+03 -8.91625E+02 -8.23394E+03
  4.78425E+03 -6.19014E+03  7.35475E+03 -2.03065E+03  7.35320E+03  1.57404E+03  4.22494E+03  5.76272E+03
  1.00811E+03  5.72332E+03 -2.45961E+03  4.63324E+03 -4.07666E+03  2.75129E+03 -2.93420E+03 -7.55391E+01
 -1.37016E+03 -1.12741E+02 -1.95973E+03  6.14392E+02 -3.22724E+03  8.69033E+02 -4.58002E+03 -4.76284E+02
 -4.81659E+03 -3.19657E+03 -1.53253E+03 -6.07233E+03  3.01308E+03 -6.76009E+03  5.18324E+03 -3.11441E+03
  6.18329E+03  6.38414E+02  2.85660E+03  4.26392E+03 -7.71181E+02  6.26150E+03 -4.78965E+03  3.93304E+03
