 $NMID ID='MM_0lb_SNR800_18hz_g45_66.RAW', FMTDAT='(8E13.5)'
 TRAMP=1., VOLUME=1. $END
  3.09748E+05  1.07420E+02  3.37345E+05  2.50525E+05  8.43306E+04  3.37563E+05 -1.32436E+05  2.50139E+05
 -1.89605E+05  8.23603E+04 -1.10910E+05 -3.28161E+04  1.37515E+03 -5.03617E+04  5.37696E+04  2.65959E+02
  3.50238E+04  5.29588E+04 -1.70702E+04  7.48625E+04 -6.02883E+04  6.28153E+04 -8.27652E+04  3.13231E+04
 -7.98181E+04 -1.11029E+04 -5.63685E+04 -5.03053E+04 -1.50611E+04 -6.85242E+04  2.65030E+04 -4.45674E+04
  3.89332E+04  3.95350E+03  1.56635E+04  4.72229E+04 -3.39958E+04  4.63432E+04 -6.57124E+04 -5.58081E+02
 -5.19676E+04 -5.59725E+04 -6.67137E+03 -7.53548E+04  3.30077E+04 -5.32661E+04  4.60860E+04 -1.65978E+04
  4.17240E+04  1.10177E+04  3.04650E+04  2.45243E+04  1.58226E+04  2.83831E+04 -4.55527E+03  2.69486E+04
 -2.16937E+04  1.29641E+04 -1.91143E+04 -4.44479E+03  4.54421E+03 -7.59336E+03  2.11451E+04  1.12004E+04
  7.26528E+03  3.32481E+04 -3.05579E+04  3.41326E+04 -6.12355E+04  2.24585E+03 -5.56138E+04 -4.13345E+04
 -1.24493E+04 -6.08526E+04  3.82303E+04 -4.35596E+04  5.54581E+04 -1.63463E+03  3.18131E+04  3.07154E+04
 -6.71527E+03  3.29369E+04 -2.83877E+04  1.35992E+04 -2.77294E+04 -5.12571E+03 -1.45839E+04 -1.01017E+04
 -7.42709E+03 -1.17288E+04 -1.00769E+03 -1.63965E+04  6.60443E+03 -2.25525E+04  1.48056E+04 -1.39820E+04
  1.22306E+04  4.36822E+03 -6.06757E+03  1.28407E+04 -1.93713E+04 -2.67465E+03 -8.17537E+03 -3.06070E+04
  2.08533E+04 -4.05550E+04  4.49084E+04 -1.88325E+04  4.21226E+04  1.82191E+04  1.40238E+04  4.18871E+04
 -1.53570E+04  3.11183E+04 -2.32667E+04  9.40528E+02 -8.27016E+03 -2.63880E+04  2.07319E+04 -3.12820E+04
  3.84933E+04 -7.54320E+03  3.14081E+04  2.27009E+04  1.54773E+04  4.30457E+04 -7.65439E+03  4.54393E+04
 -2.85812E+04  3.00735E+04 -3.74655E+04  8.31203E+03 -3.88377E+04 -1.49889E+04 -2.13033E+04 -3.45407E+04
  6.87378E+03 -3.41319E+04  2.95700E+04 -1.27342E+04  2.68173E+04  1.07808E+04  3.10978E+03  1.77076E+04
 -1.33727E+04  7.21245E+03 -9.81874E+03 -7.60343E+03  5.99116E+03 -1.02114E+04  1.72357E+04  6.60087E+03
  1.25995E+04  2.16286E+04 -6.72722E+03  2.32835E+04 -2.16308E+04  9.21596E+03 -2.52644E+04 -6.25938E+03
 -1.70210E+04 -1.64617E+04 -5.83258E+03 -1.70061E+04  3.91082E+03 -1.50579E+04  1.24948E+04 -1.48303E+04
  2.18545E+04 -1.18030E+04  2.82099E+04  1.25602E+03  2.14946E+04  1.63428E+04  4.12293E+03  3.26836E+04
 -1.61329E+04  2.77952E+04 -2.58550E+04  9.44519E+03 -1.97917E+04 -1.03837E+04 -4.33001E+03 -1.37745E+04
  2.36871E+03 -4.04275E+03 -2.70383E+03  5.32787E+03 -1.31287E+04  4.90689E+03 -1.36207E+04 -4.98667E+03
 -8.78609E+03 -1.57140E+04  4.60215E+03 -1.98247E+04  1.26843E+04 -1.42485E+04  1.47714E+04 -1.39127E+03
  9.08954E+03  1.09369E+04 -7.05471E+02  1.59760E+04 -1.02538E+04  8.80152E+03 -1.55892E+04 -3.46596E+03
 -1.17184E+04 -1.39584E+04 -1.50934E+03 -1.92955E+04  8.81591E+03 -1.55435E+04  1.61014E+04 -7.19035E+03
  1.46217E+04  7.77817E+02  1.06067E+04  3.79445E+03  5.17608E+03  1.42994E+02  7.69733E+03 -1.45449E+03
  1.40631E+04  2.54800E+03  1.47768E+04  1.29324E+04  9.34025E+03  2.50743E+04 -3.31961E+03  2.68921E+04
 -1.61690E+04  2.07337E+04 -2.47736E+04  1.00963E+04 -2.53512E+04 -2.07723E+03 -2.18117E+04 -1.46621E+04
 -1.02563E+04 -2.09017E+04  6.91151E+03 -1.93598E+04  1.66877E+04 -1.08918E+04  1.57092E+04  3.83282E+03
  6.45040E+03  1.12619E+04 -7.33958E+03  1.06814E+04 -1.34958E+04  2.56348E+03 -1.06447E+04 -7.90459E+03
 -1.77046E+02 -1.25162E+04  6.22720E+03 -9.51035E+03  7.92440E+03 -1.40987E+03  1.26832E+03  5.08380E+03
 -5.64182E+03  1.51370E+03 -3.79719E+03 -4.61791E+03  6.80431E+02 -1.02261E+04  7.91762E+03 -1.04209E+04
  1.24752E+04 -4.89812E+03  1.25191E+04  2.60175E+03  1.08929E+04  9.68056E+03  5.07812E+03  1.43203E+04
 -1.85772E+03  1.63644E+04 -9.84459E+03  1.03179E+04 -1.13988E+04  3.09741E+03 -8.58669E+03 -1.80711E+03
 -4.80923E+03 -3.37768E+03 -7.60145E+02  1.45984E+03 -1.88399E+03  2.10364E+03 -3.92553E+03  3.48881E+03
 -8.17099E+03 -3.91899E+02 -9.11546E+03 -7.41975E+03 -3.79234E+03 -1.15704E+04  3.93955E+03 -8.46303E+03
  7.14142E+03 -3.71224E+03  5.17216E+03  1.99806E+03  4.68589E+02  3.29475E+03 -3.45996E+03  6.38044E+01
 -3.56915E+03 -5.50610E+03 -5.81638E+02 -7.14369E+03  4.08619E+03 -7.97811E+03  1.00399E+04 -4.07505E+03
  1.19200E+04  5.35312E+02  8.79308E+03  6.52169E+03  1.64935E+03  8.96278E+03 -5.23547E+03  8.33075E+03
 -7.09853E+03  3.04379E+03 -3.51113E+03 -1.25778E+03  1.19118E+03 -2.04197E+03  4.97604E+03 -9.57911E+02
  4.08726E+03  3.36044E+03  1.30653E+03  6.77165E+03 -4.40931E+03  6.42977E+03 -8.11385E+03  1.86810E+03
 -4.87660E+03 -3.92570E+03 -6.28720E+01 -6.97629E+03  3.80731E+03 -3.43924E+03  3.99110E+03  1.15661E+03
  6.26720E+02  3.46816E+03 -4.17923E+03  4.95365E+03 -4.97867E+03  2.32485E+03 -4.63145E+03 -1.13474E+03
 -3.11478E+03 -6.20881E+03  1.30536E+03 -7.28034E+03  6.12608E+03 -4.57287E+03  6.49034E+03  7.02996E+02
  4.77103E+03  5.49986E+03  3.86392E+01  7.65393E+03 -5.10025E+03  4.00732E+03 -5.35783E+03 -3.75469E+02
 -5.74420E+03 -5.20791E+03 -1.19542E+03 -5.21959E+03  2.76571E+03 -4.82540E+03  2.98503E+03 -2.99893E+03
  2.98488E+03  3.79056E+01  2.43021E+02  1.26788E+03  5.42583E+02 -1.37081E+02  9.06597E+01 -1.91880E+03
  3.91681E+03 -1.16928E+03  5.56883E+03  5.28153E+02  6.00449E+03  3.41256E+03  5.20929E+03  7.66860E+03
 -1.28400E+03  8.96946E+03 -8.01975E+03  6.72116E+03 -1.02588E+04  1.21250E+03 -8.03502E+03 -2.60178E+03
 -4.28965E+03 -6.62480E+03 -3.50376E+02 -5.30515E+03  1.98757E+03 -2.19782E+03  1.95048E+03 -2.02007E+03
  1.32101E+03 -1.47933E+03  2.12003E+03 -2.40884E+03  3.72713E+03 -1.62024E+03  3.69267E+03  3.43092E+02
  4.75861E+03  1.19445E+03  1.36963E+03  3.46830E+03 -1.46375E+03  3.26088E+03 -4.61129E+03  2.62571E+03
 -5.25456E+03 -1.17134E+03 -2.09086E+03 -3.59620E+03  5.86216E+02 -5.36812E+03  3.50825E+03 -5.62897E+03
  5.18102E+03 -3.29780E+03  7.09440E+03  3.82585E+02  5.13848E+03  4.23881E+03  1.02727E+03  6.29444E+03
 -2.14443E+03  5.74580E+03 -3.42358E+03  1.96989E+03 -2.11784E+03 -9.09061E+02 -5.77690E+02 -5.90101E+02
 -3.39117E+02  1.66493E+02 -1.16617E+03  1.84555E+03 -2.52296E+03  9.94038E+02 -4.20508E+03 -5.13382E+02
 -1.69183E+03 -3.88111E+03  7.44514E+02 -4.96515E+03  2.59968E+03 -4.82656E+03  3.81337E+03 -1.38252E+03
  4.33980E+03  2.72942E+03  1.83304E+03  3.70826E+03 -9.29802E+02  4.48424E+03 -2.56090E+03  2.88251E+03
 -4.18392E+03  5.82363E+02 -3.59643E+03 -2.58396E+03 -2.93756E+02 -3.18106E+03  1.57764E+03 -2.71717E+03
  2.82974E+03 -1.22309E+03  1.97925E+03  5.66951E+02  3.69027E+02  1.69027E+03  8.12860E+02  6.47794E+02
  1.49900E+03  3.37398E+02  1.14973E+03  1.09628E+03  1.08758E+03  2.41032E+03  1.36899E+03  1.79267E+03
 -1.13069E+03  3.09880E+03 -2.92759E+03  4.33386E+03 -3.27396E+03  1.49510E+03 -4.47587E+03 -3.40886E+02
 -1.98195E+03 -3.91549E+03  5.00010E+02 -5.15035E+03  1.92211E+03 -2.65243E+03  3.31736E+03 -1.04302E+03
  2.27578E+03  1.70844E+03  5.45480E+02  2.63602E+03 -9.08017E+02  1.15256E+03 -1.28742E+03 -4.58361E+02
 -6.36947E+02 -1.51492E+03  1.35952E+03 -1.61097E+03  1.54001E+03 -8.84195E+02  1.58440E+03  3.43688E+02
  8.10720E+02  3.10893E+02  4.95601E+02 -4.98140E+01 -3.30783E+02  7.58944E+02  1.65491E+03 -3.65721E+02
 -2.41633E+01 -1.73134E+02  1.94916E+03  6.84070E+02  4.05840E+02  2.37805E+03 -3.47800E+02  2.75971E+03
 -1.92983E+03  1.32800E+03 -2.37475E+03  1.92904E+02 -2.19590E+03 -8.36551E+02 -4.06544E+02 -9.66372E+02
  4.64436E+02 -1.51664E+03  8.99856E+02 -1.00167E+03  6.16588E+02  1.47875E+03 -6.75283E+02  1.31884E+03
 -1.69216E+03  7.87563E+02 -1.38554E+03 -1.26902E+03 -1.02489E+03 -2.36402E+03  2.12603E+02 -1.92344E+03
  8.05951E+02 -7.03054E+02  8.53951E+02  9.24867E+01  1.29005E+03 -2.67580E+02  4.00504E+02  1.36419E+03
 -3.94049E+02  2.54973E+01 -7.25602E+02 -4.91014E+02  6.21977E+02 -9.37911E+02  1.63274E+03 -9.47784E+02
  1.30743E+03  3.16867E+02  2.99354E+03  6.21145E+02  1.05429E+03  1.74870E+03 -2.13952E+02  1.70565E+03
 -1.51881E+03  2.07400E+02 -1.58564E+03 -1.51861E+02 -1.05875E+03 -1.44243E+03  1.76476E+02 -5.52767E+02
  1.55588E+03 -6.08308E+02  6.83444E+02  8.32787E+02  4.99771E+01  1.23783E+03  3.31039E+02  1.41316E+03
 -2.93420E+02  1.30387E+03 -7.27007E+02  1.91642E+02  3.75016E+01  3.99786E+02 -9.12411E+02  3.30162E+02
 -7.54749E+02  1.01589E+03 -1.90872E+03  3.04506E+02 -1.92073E+03  1.67078E+02 -2.55430E+03 -1.03865E+03
 -1.24961E+03 -2.54249E+03  5.08357E+02 -3.39767E+03  1.13390E+03 -2.38963E+03  2.74115E+03 -1.01875E+03
  2.50926E+03  1.31763E+00  1.42856E+03  1.80699E+03 -4.30775E+02  1.67691E+03 -9.32274E+02  1.58469E+03
 -7.39621E+02  8.23556E+02 -6.77462E+02 -4.06610E+02 -3.65457E+02  1.16676E+02 -7.95177E+02  1.05704E+02
 -8.24873E+02  1.29635E+02 -9.20344E+02  2.00001E+02  1.86542E+01 -5.20419E+02 -4.34356E+02 -9.38135E+02
  1.48262E+03 -7.41144E+02  3.54476E+02  6.78503E+01  1.56560E+03  1.10909E+03 -3.95546E+02  1.40633E+03
 -1.11952E+03  2.45037E+03 -1.69170E+03  1.41287E+03 -2.03781E+03 -1.48621E+02 -1.38526E+03 -1.56840E+03
 -1.04673E+03 -1.75531E+03  4.45100E+02 -1.57795E+03  8.67685E+02 -7.58052E+02  6.99286E+02  2.92272E+02
  6.99123E+02  5.44725E+02  2.27215E+02  2.80791E+02 -2.29362E+02  4.70966E+01 -1.56927E+02 -4.62337E+02
  4.40588E+02  2.98798E+02  2.09058E+02  3.18670E+02  1.35122E+02  6.76835E+02  4.89530E+02  4.32960E+02
 -8.54829E+02  9.43788E+02 -7.24315E+02  2.70149E+02 -9.76958E+02 -7.12315E+02  1.70840E+02 -1.27848E+03
  4.98362E+02 -6.49683E+02  6.46172E+02 -2.17913E+02  1.01651E+03 -6.28125E+02  4.71597E+02  9.92119E+02
  4.69450E+02  8.11778E+02 -3.85648E+02  8.50212E+02 -5.61809E+02  6.78987E+02 -2.17817E+02  1.11391E+02
 -5.75296E+01 -1.28712E+01 -6.26780E+02  5.99249E+01 -4.85934E+02  9.35362E+01 -9.33378E+02 -1.82526E+02
 -1.44931E+03 -1.09031E+02 -7.33609E+01 -1.03822E+03  7.77910E+02 -1.62412E+03  6.84291E+02 -3.83184E+02
  8.65779E+02  1.80128E+02 -5.88695E+02  3.08267E+02 -2.67650E+01  8.22348E+02 -4.78469E+02  5.93789E+02
