 $NMID ID='MM_0lb_SNR800_16hz_g50_93.RAW', FMTDAT='(8E13.5)'
 TRAMP=1., VOLUME=1. $END
  3.09616E+05  3.71526E+02  3.37129E+05  2.50520E+05  8.46655E+04  3.37635E+05 -1.32488E+05  2.50614E+05
 -1.90109E+05  8.27766E+04 -1.11497E+05 -3.28429E+04  7.76358E+02 -5.05764E+04  5.38481E+04  5.38667E+01
  3.52579E+04  5.27713E+04 -1.68321E+04  7.53309E+04 -6.06068E+04  6.34147E+04 -8.39522E+04  3.19841E+04
 -8.06488E+04 -1.11112E+04 -5.70981E+04 -5.06494E+04 -1.52759E+04 -6.92353E+04  2.72104E+04 -4.51973E+04
  3.94379E+04  3.97683E+03  1.59401E+04  4.75258E+04 -3.41221E+04  4.70304E+04 -6.60842E+04 -2.02911E+02
 -5.28148E+04 -5.62598E+04 -6.60804E+03 -7.64021E+04  3.38864E+04 -5.42889E+04  4.74693E+04 -1.70384E+04
  4.25866E+04  1.13188E+04  3.16493E+04  2.51960E+04  1.59226E+04  2.86988E+04 -4.98000E+03  2.71684E+04
 -2.18248E+04  1.25574E+04 -1.87190E+04 -4.84039E+03  5.19130E+03 -7.49303E+03  2.20122E+04  1.17018E+04
  7.40445E+03  3.44139E+04 -3.15840E+04  3.51028E+04 -6.24590E+04  1.95722E+03 -5.62773E+04 -4.21372E+04
 -1.23670E+04 -6.24184E+04  3.90445E+04 -4.43949E+04  5.72404E+04 -1.97760E+03  3.37151E+04  3.19659E+04
 -6.15649E+03  3.53230E+04 -2.93242E+04  1.50591E+04 -2.92382E+04 -4.66028E+03 -1.55010E+04 -1.04002E+04
 -8.01868E+03 -1.24866E+04 -1.09796E+03 -1.72581E+04  7.23256E+03 -2.26400E+04  1.48685E+04 -1.37056E+04
  1.19156E+04  4.98603E+03 -7.52350E+03  1.31983E+04 -2.05266E+04 -3.65399E+03 -8.25315E+03 -3.25273E+04
  2.21619E+04 -4.25368E+04  4.67651E+04 -1.89239E+04  4.37535E+04  1.93610E+04  1.49703E+04  4.33824E+04
 -1.55989E+04  3.27343E+04 -2.45705E+04  1.07144E+03 -9.21199E+03 -2.72557E+04  2.07193E+04 -3.32045E+04
  3.99310E+04 -8.51543E+03  3.38856E+04  2.34411E+04  1.70412E+04  4.51202E+04 -7.77233E+03  4.84956E+04
 -3.05744E+04  3.21630E+04 -4.01861E+04  8.90428E+03 -4.07840E+04 -1.58287E+04 -2.27617E+04 -3.65245E+04
  7.30521E+03 -3.65068E+04  3.08431E+04 -1.40107E+04  2.80155E+04  1.08570E+04  3.55089E+03  1.86048E+04
 -1.32856E+04  7.47856E+03 -9.92373E+03 -7.56831E+03  6.07986E+03 -1.04837E+04  1.76005E+04  6.25632E+03
  1.30939E+04  2.19377E+04 -6.36500E+03  2.42758E+04 -2.22353E+04  1.05606E+04 -2.68227E+04 -5.18835E+03
 -1.89811E+04 -1.71494E+04 -7.06225E+03 -1.89644E+04  4.16945E+03 -1.79339E+04  1.43611E+04 -1.67656E+04
  2.43841E+04 -1.22759E+04  3.07986E+04  2.30859E+03  2.29469E+04  1.84580E+04  4.21334E+03  3.47273E+04
 -1.71244E+04  2.91948E+04 -2.72851E+04  1.00335E+04 -2.04357E+04 -1.03375E+04 -4.35395E+03 -1.43291E+04
  2.18088E+03 -3.26076E+03 -3.96376E+03  5.85311E+03 -1.51046E+04  5.00111E+03 -1.51749E+04 -6.07912E+03
 -9.50037E+03 -1.77243E+04  4.90352E+03 -2.12999E+04  1.44521E+04 -1.57293E+04  1.67130E+04 -1.68798E+03
  1.03205E+04  1.20675E+04 -1.12076E+03  1.78343E+04 -1.20496E+04  1.01858E+04 -1.76075E+04 -3.90640E+03
 -1.28521E+04 -1.60616E+04 -1.41431E+03 -2.16650E+04  9.63836E+03 -1.72646E+04  1.76738E+04 -8.43186E+03
  1.64355E+04  2.83557E+02  1.20541E+04  4.16099E+03  6.03981E+03  6.50294E+02  8.76769E+03 -1.56537E+03
  1.61801E+04  2.46075E+03  1.70594E+04  1.45595E+04  1.13511E+04  2.80864E+04 -3.12896E+03  3.10041E+04
 -1.82224E+04  2.43840E+04 -2.86939E+04  1.19301E+04 -2.98560E+04 -2.20855E+03 -2.49448E+04 -1.72569E+04
 -1.13028E+04 -2.44847E+04  8.32290E+03 -2.24360E+04  1.96088E+04 -1.20816E+04  1.79665E+04  4.84640E+03
  6.83670E+03  1.29343E+04 -8.16364E+03  1.17510E+04 -1.53265E+04  2.59208E+03 -1.13455E+04 -9.13794E+03
 -2.91502E+01 -1.44500E+04  7.17245E+03 -1.06913E+04  9.39587E+03 -1.36893E+03  2.10957E+03  6.07126E+03
 -6.36416E+03  1.89703E+03 -5.09272E+03 -4.99773E+03  1.65967E+01 -1.21250E+04  8.88100E+03 -1.25346E+04
  1.49279E+04 -6.01701E+03  1.55160E+04  3.06603E+03  1.30901E+04  1.13733E+04  6.43539E+03  1.75266E+04
 -2.75892E+03  1.96031E+04 -1.19356E+04  1.24299E+04 -1.38161E+04  3.17294E+03 -9.85161E+03 -2.76466E+03
 -4.90694E+03 -4.10015E+03 -4.37225E+02  1.44716E+03 -2.15803E+03  2.40661E+03 -4.55443E+03  3.99455E+03
 -9.49604E+03 -3.96421E+02 -1.01491E+04 -8.08976E+03 -4.14469E+03 -1.31768E+04  3.79768E+03 -1.01590E+04
  8.46861E+03 -4.03305E+03  6.29366E+03  2.49160E+03  2.48580E+02  3.50022E+03 -4.37040E+03 -1.09166E+02
 -4.43001E+03 -6.38998E+03 -1.00380E+03 -9.04814E+03  5.42580E+03 -9.73407E+03  1.22768E+04 -4.90059E+03
  1.42925E+04  1.16391E+03  1.05067E+04  8.05613E+03  1.91062E+03  1.09523E+04 -6.16433E+03  9.86978E+03
 -7.91873E+03  3.21306E+03 -4.01533E+03 -1.85834E+03  1.45151E+03 -2.22864E+03  5.82060E+03 -1.14608E+03
  4.95613E+03  4.16950E+03  1.32810E+03  7.61799E+03 -5.67595E+03  7.46549E+03 -9.44370E+03  2.09959E+03
 -6.05202E+03 -4.62067E+03  3.37993E+02 -8.13305E+03  4.99963E+03 -3.85573E+03  4.67886E+03  1.56667E+03
  7.27151E+02  4.79116E+03 -4.98145E+03  6.23179E+03 -6.74773E+03  2.98249E+03 -6.54953E+03 -2.13659E+03
 -3.80090E+03 -7.96142E+03  1.72300E+03 -9.14430E+03  7.80805E+03 -5.76707E+03  8.52097E+03  1.45411E+03
  5.57249E+03  6.86968E+03 -1.13270E+02  8.89646E+03 -6.24292E+03  5.18015E+03 -6.69147E+03 -7.13673E+02
 -6.55388E+03 -6.24529E+03 -1.32840E+03 -6.34389E+03  3.26782E+03 -5.56936E+03  3.92527E+03 -3.08132E+03
  3.34105E+03  5.12067E+02 -3.69930E+02  1.54039E+03  2.96756E+02 -9.30879E+02  3.65273E+02 -2.86098E+03
  5.05220E+03 -1.30455E+03  7.40374E+03  8.45976E+02  7.72452E+03  4.86466E+03  6.13169E+03  1.01056E+04
 -1.77712E+03  1.14419E+04 -1.00664E+04  8.80054E+03 -1.29132E+04  1.65896E+03 -1.01770E+04 -3.76606E+03
 -5.42129E+03 -8.44035E+03 -4.08742E+02 -6.82032E+03  2.61637E+03 -3.60476E+03  2.39818E+03 -2.98268E+03
  1.52957E+03 -1.82699E+03  2.66265E+03 -2.65696E+03  4.17646E+03 -1.63016E+03  4.45093E+03  9.38612E+01
  5.77148E+03  1.59055E+03  2.16669E+03  4.52456E+03 -1.75024E+03  4.46928E+03 -5.80953E+03  3.81743E+03
 -6.69755E+03 -1.03636E+03 -3.30040E+03 -4.20190E+03  2.01790E+02 -6.84401E+03  4.24552E+03 -7.49344E+03
  7.24248E+03 -4.36769E+03  9.16507E+03  9.49869E+02  6.38687E+03  6.04205E+03  1.25920E+03  7.99368E+03
 -3.15361E+03  7.34258E+03 -4.56792E+03  2.64757E+03 -3.09167E+03 -1.01352E+03 -1.15376E+03 -8.14261E+02
 -6.94291E+02  3.80351E+02 -1.18776E+03  2.06597E+03 -3.31469E+03  1.41542E+03 -5.32266E+03 -8.54644E+02
 -2.47978E+03 -5.05247E+03  5.86919E+02 -6.32936E+03  4.16304E+03 -5.81534E+03  5.55831E+03 -1.58226E+03
  5.78485E+03  3.28594E+03  2.30215E+03  5.44491E+03 -1.15175E+03  5.98431E+03 -3.90451E+03  3.92155E+03
 -5.56898E+03  3.87778E+02 -4.57021E+03 -3.60464E+03  5.45544E+01 -4.70417E+03  2.31462E+03 -3.54046E+03
  3.62747E+03 -1.53147E+03  2.64625E+03  1.03196E+03  7.13675E+02  2.32419E+03  6.98975E+02  7.10731E+02
  1.98442E+03  4.89611E+02  1.71661E+03  1.19258E+03  1.70564E+03  2.64883E+03  1.74694E+03  2.53045E+03
 -1.34423E+03  4.54837E+03 -3.87189E+03  5.42080E+03 -5.43120E+03  1.55709E+03 -5.92130E+03 -1.51591E+03
 -2.59019E+03 -5.57569E+03  9.51179E+02 -6.85816E+03  3.01717E+03 -3.95827E+03  4.66056E+03 -9.99371E+02
  3.57272E+03  2.46644E+03  6.89154E+02  3.05164E+03 -1.70996E+03  1.93914E+03 -1.66369E+03 -3.24287E+02
 -8.76541E+02 -2.29254E+03  1.44163E+03 -1.99646E+03  2.24696E+03 -1.40488E+03  2.13321E+03  4.27547E+02
  1.17578E+03  7.55833E+02  8.14918E+02 -1.74242E+01 -4.57114E+02  1.19992E+03  1.80042E+03  3.67277E+01
  4.48338E+02 -3.15927E+02  2.61275E+03  7.75121E+02  6.71142E+02  3.15433E+03 -5.55650E+02  3.79230E+03
 -2.58925E+03  1.72203E+03 -3.32452E+03  7.45525E+02 -2.93910E+03 -1.23854E+03 -6.48879E+02 -1.94026E+03
  5.02184E+02 -1.76193E+03  1.28083E+03 -1.20760E+03  8.26979E+02  1.37133E+03 -7.23880E+02  1.83976E+03
 -2.33046E+03  8.44588E+02 -1.90261E+03 -1.65354E+03 -1.43268E+03 -3.09491E+03  1.99027E+02 -2.57262E+03
  1.34375E+03 -1.42000E+03  1.77210E+03  3.84290E+02  1.88721E+03  2.67118E+02  6.45699E+02  1.70064E+03
 -5.65386E+02  5.54980E+02 -1.69410E+03 -4.16686E+02  6.52001E+02 -1.78304E+03  2.68881E+03 -1.28790E+03
  2.59198E+03  3.61524E+02  3.82539E+03  1.35400E+03  1.36508E+03  2.89572E+03 -6.16978E+02  2.85823E+03
 -2.15117E+03  8.92184E+02 -2.28972E+03 -3.65087E+02 -1.63981E+03 -2.14910E+03  5.89574E+02 -1.50883E+03
  2.07803E+03 -8.60136E+02  1.34656E+03  7.91811E+02  2.97273E+02  2.13782E+03  1.50234E+02  1.64870E+03
 -6.15287E+02  1.48937E+03 -5.45373E+02  3.69878E+02 -1.32430E+02  4.03689E+02 -7.01196E+02  7.31831E+02
 -8.10316E+02  1.44815E+03 -2.57046E+03  9.62463E+02 -2.96951E+03  2.49030E+02 -3.23485E+03 -1.93028E+03
 -1.82798E+03 -3.73786E+03  9.27091E+02 -4.57250E+03  1.91155E+03 -3.55518E+03  4.06135E+03 -1.50661E+03
  3.66430E+03  3.21512E+02  2.04417E+03  2.48170E+03 -5.92357E+02  2.37076E+03 -1.04920E+03  2.11421E+03
 -1.67591E+03  9.65100E+02 -7.90808E+02 -2.34047E+02 -4.44931E+02  2.75860E+02 -7.64400E+02 -2.29964E+02
 -1.27582E+03 -3.28360E+02 -9.24921E+02  5.72126E+00  3.34106E+02 -1.11729E+03 -5.07288E+02 -9.57257E+02
  1.69574E+03 -6.06114E+02  1.03513E+03  9.67551E+01  2.05479E+03  1.58321E+03 -1.70397E+02  2.44417E+03
 -1.28508E+03  3.20482E+03 -2.54852E+03  2.26818E+03 -3.02637E+03 -3.27984E+02 -2.20583E+03 -2.09845E+03
 -1.23480E+03 -2.48616E+03  4.65583E+02 -2.37047E+03  1.62060E+03 -9.81627E+02  1.52749E+03  1.62755E+02
  1.27136E+03  5.96396E+02  1.25368E+02  9.28938E+02 -3.08764E+02  3.86317E+02  3.98514E+01 -1.67692E+02
  8.20911E+02  2.09555E+02  6.38728E+02  5.22986E+02  1.36108E+02  8.33672E+02  4.72145E+02  6.65704E+02
 -1.30039E+03  1.25847E+03 -1.32418E+03 -4.12386E+01 -1.62675E+03 -9.49480E+02 -1.32355E+02 -2.08099E+03
  1.21188E+03 -1.30166E+03  1.08014E+03 -4.20998E+02  1.41745E+03 -3.39379E+02  1.18082E+03  1.63364E+03
  6.93460E+02  1.51790E+03 -4.67045E+02  1.13411E+03 -1.06220E+03  1.19428E+03 -9.15739E+02  8.83447E+00
 -3.48763E+02 -2.63847E+02 -6.29324E+02  4.42589E+01 -1.00504E+03  3.08758E+01 -1.10719E+03 -2.82736E+02
 -1.54113E+03 -3.90117E+02 -2.83035E+02 -1.64845E+03  9.87311E+02 -2.02997E+03  1.31764E+03 -5.33257E+02
  1.22482E+03  5.65577E+01  7.18971E+01  7.07209E+02 -6.27924E+01  1.24621E+03 -8.55961E+02  1.20988E+03
