 $NMID ID='MM_0lb_SNR800_17hz_g55_84.RAW', FMTDAT='(8E13.5)'
 TRAMP=1., VOLUME=1. $END
  3.09797E+05  5.61131E+02  3.37208E+05  2.50700E+05  8.44255E+04  3.37800E+05 -1.32107E+05  2.50987E+05
 -1.90142E+05  8.25859E+04 -1.11537E+05 -3.27892E+04  1.21667E+03 -5.04146E+04  5.40068E+04 -1.04434E+01
  3.53730E+04  5.27131E+04 -1.68709E+04  7.54944E+04 -6.06104E+04  6.35895E+04 -8.35905E+04  3.17690E+04
 -8.04139E+04 -1.12533E+04 -5.67545E+04 -5.08667E+04 -1.52225E+04 -6.93683E+04  2.73418E+04 -4.54926E+04
  3.96499E+04  3.85759E+03  1.58101E+04  4.77797E+04 -3.42471E+04  4.69320E+04 -6.66097E+04 -2.63918E+02
 -5.29737E+04 -5.63964E+04 -6.44292E+03 -7.66866E+04  3.36788E+04 -5.41347E+04  4.72094E+04 -1.69920E+04
  4.27693E+04  1.11354E+04  3.13127E+04  2.49192E+04  1.59344E+04  2.87118E+04 -4.84439E+03  2.69848E+04
 -2.18662E+04  1.22905E+04 -1.87277E+04 -4.86978E+03  5.15032E+03 -7.80540E+03  2.21098E+04  1.15391E+04
  7.27042E+03  3.43263E+04 -3.12813E+04  3.49979E+04 -6.26692E+04  2.13107E+03 -5.64053E+04 -4.23351E+04
 -1.26011E+04 -6.24196E+04  3.88640E+04 -4.47742E+04  5.72222E+04 -2.04310E+03  3.33334E+04  3.16801E+04
 -6.22692E+03  3.51154E+04 -2.95695E+04  1.50301E+04 -2.92767E+04 -4.89821E+03 -1.58860E+04 -1.05565E+04
 -7.92490E+03 -1.25174E+04 -9.98083E+02 -1.75643E+04  7.32718E+03 -2.29352E+04  1.54686E+04 -1.35937E+04
  1.18595E+04  4.77434E+03 -7.42697E+03  1.31168E+04 -2.03406E+04 -3.70727E+03 -8.00628E+03 -3.23843E+04
  2.21023E+04 -4.23054E+04  4.69354E+04 -1.91532E+04  4.41623E+04  1.92471E+04  1.50347E+04  4.32056E+04
 -1.58505E+04  3.23480E+04 -2.46215E+04  1.62495E+03 -9.16917E+03 -2.73144E+04  2.07561E+04 -3.29288E+04
  3.99114E+04 -8.43749E+03  3.40694E+04  2.36600E+04  1.70543E+04  4.48824E+04 -7.87715E+03  4.82137E+04
 -3.04144E+04  3.19662E+04 -3.99767E+04  9.35963E+03 -4.07473E+04 -1.62147E+04 -2.28319E+04 -3.64059E+04
  7.15709E+03 -3.61969E+04  3.05939E+04 -1.37875E+04  2.86800E+04  1.11276E+04  3.65135E+03  1.86585E+04
 -1.31972E+04  7.96570E+03 -9.69757E+03 -7.70421E+03  6.02618E+03 -1.03605E+04  1.74056E+04  6.26482E+03
  1.30830E+04  2.21413E+04 -6.14810E+03  2.41863E+04 -2.20046E+04  1.05630E+04 -2.67850E+04 -5.31695E+03
 -1.91461E+04 -1.70958E+04 -7.14733E+03 -1.87875E+04  3.97201E+03 -1.73187E+04  1.41163E+04 -1.64092E+04
  2.41307E+04 -1.19310E+04  3.04820E+04  1.88531E+03  2.27898E+04  1.83680E+04  4.19835E+03  3.46188E+04
 -1.66914E+04  2.92574E+04 -2.69755E+04  1.02491E+04 -2.00929E+04 -1.02845E+04 -4.12773E+03 -1.37222E+04
  2.36318E+03 -3.20929E+03 -3.91506E+03  6.27200E+03 -1.45185E+04  5.13122E+03 -1.50798E+04 -5.81993E+03
 -9.35545E+03 -1.75749E+04  4.84091E+03 -2.12162E+04  1.41922E+04 -1.54189E+04  1.63909E+04 -1.37497E+03
  1.03007E+04  1.20692E+04 -9.00401E+02  1.74556E+04 -1.14554E+04  9.88783E+03 -1.73930E+04 -3.82613E+03
 -1.29864E+04 -1.56518E+04 -1.75213E+03 -2.07624E+04  9.58311E+03 -1.73510E+04  1.80302E+04 -8.26820E+03
  1.62166E+04  4.52720E+02  1.14314E+04  4.29141E+03  5.85354E+03  7.39286E+02  8.72838E+03 -1.54482E+03
  1.57878E+04  2.84332E+03  1.69654E+04  1.36539E+04  1.09864E+04  2.75766E+04 -3.25771E+03  3.05356E+04
 -1.80284E+04  2.39322E+04 -2.83392E+04  1.17133E+04 -2.91590E+04 -2.41738E+03 -2.45388E+04 -1.65967E+04
 -1.11293E+04 -2.39875E+04  8.15491E+03 -2.18536E+04  1.85784E+04 -1.19072E+04  1.76662E+04  4.43813E+03
  6.94092E+03  1.29307E+04 -7.87881E+03  1.14687E+04 -1.47295E+04  2.78511E+03 -1.13788E+04 -9.08056E+03
 -1.10275E+02 -1.38384E+04  6.98456E+03 -1.03305E+04  8.90669E+03 -1.68070E+03  1.91039E+03  5.84727E+03
 -6.18457E+03  1.90636E+03 -4.80866E+03 -5.02295E+03  5.41244E+02 -1.18133E+04  8.57831E+03 -1.20134E+04
  1.43916E+04 -6.03757E+03  1.49627E+04  2.87584E+03  1.28365E+04  1.13346E+04  6.24277E+03  1.69610E+04
 -2.47513E+03  1.88827E+04 -1.16658E+04  1.21302E+04 -1.33867E+04  3.26961E+03 -9.86710E+03 -2.58072E+03
 -4.74224E+03 -3.92965E+03 -9.27240E+02  1.17857E+03 -2.12370E+03  2.21369E+03 -4.41263E+03  3.88665E+03
 -8.96556E+03 -7.00866E+02 -9.88816E+03 -7.99170E+03 -4.15522E+03 -1.30175E+04  4.16134E+03 -9.95991E+03
  8.25882E+03 -4.06412E+03  5.77608E+03  2.38329E+03  3.82038E+02  3.67520E+03 -4.62453E+03 -2.71343E+02
 -4.19587E+03 -6.22261E+03 -8.52385E+02 -8.71409E+03  4.82403E+03 -9.35668E+03  1.18844E+04 -4.94436E+03
  1.38706E+04  1.00516E+03  1.03174E+04  7.46072E+03  2.05851E+03  1.03714E+04 -6.03047E+03  9.30726E+03
 -7.97606E+03  3.10782E+03 -4.02507E+03 -1.52222E+03  1.64996E+03 -2.40922E+03  5.23181E+03 -1.09917E+03
  4.49761E+03  4.05107E+03  1.13232E+03  7.39317E+03 -5.23170E+03  7.37787E+03 -9.11293E+03  2.14871E+03
 -5.82905E+03 -4.31591E+03  6.48737E+01 -7.88326E+03  4.49235E+03 -3.81251E+03  4.38155E+03  1.28660E+03
  9.02733E+02  4.34246E+03 -4.78023E+03  5.72475E+03 -6.36583E+03  2.87342E+03 -6.01618E+03 -1.84294E+03
 -3.95085E+03 -7.44823E+03  1.71592E+03 -8.99690E+03  7.42494E+03 -5.25464E+03  7.94247E+03  1.41343E+03
  5.50067E+03  6.59952E+03 -1.72231E+02  8.44219E+03 -5.96348E+03  4.90561E+03 -6.33346E+03 -6.19692E+02
 -6.79163E+03 -5.94686E+03 -1.45381E+03 -5.81774E+03  2.86536E+03 -5.43142E+03  3.47337E+03 -3.05567E+03
  3.11827E+03  3.55170E+02 -1.05152E+02  1.31100E+03  4.68229E+02 -4.96694E+02  2.75243E+02 -2.94782E+03
  5.26206E+03 -1.16641E+03  6.93418E+03  9.02218E+02  7.16243E+03  4.01648E+03  6.27018E+03  9.14905E+03
 -1.39099E+03  1.07386E+04 -9.35221E+03  8.00525E+03 -1.21959E+04  1.13896E+03 -9.59954E+03 -3.37905E+03
 -5.23740E+03 -7.90429E+03 -5.20228E+02 -6.36319E+03  2.35732E+03 -2.93122E+03  2.02366E+03 -2.70938E+03
  1.65550E+03 -1.18475E+03  2.30001E+03 -2.23855E+03  3.78232E+03 -1.39561E+03  4.18779E+03  1.49192E+02
  5.41416E+03  1.51398E+03  2.02379E+03  4.22595E+03 -1.85373E+03  3.87509E+03 -5.34375E+03  3.48288E+03
 -6.21871E+03 -1.15917E+03 -2.86445E+03 -4.12927E+03  2.34956E+02 -6.43027E+03  3.81488E+03 -6.70167E+03
  6.68584E+03 -3.87281E+03  8.27606E+03  6.05861E+02  6.01842E+03  5.40317E+03  1.47198E+03  7.50188E+03
 -2.72718E+03  6.77200E+03 -3.92423E+03  2.39539E+03 -2.38495E+03 -9.46158E+02 -6.95213E+02 -7.47232E+02
 -7.17663E+02  6.28823E+02 -9.88066E+02  2.08723E+03 -3.03822E+03  1.25265E+03 -4.89842E+03 -6.03447E+02
 -2.38079E+03 -4.67879E+03  8.16110E+02 -5.68002E+03  3.25950E+03 -5.63592E+03  4.67648E+03 -1.63877E+03
  5.20318E+03  2.95175E+03  2.30471E+03  4.62733E+03 -9.30665E+02  5.80534E+03 -3.74344E+03  3.54307E+03
 -5.18397E+03  5.48371E+02 -4.16215E+03 -3.24209E+03 -1.46191E+02 -4.36539E+03  2.41589E+03 -3.23336E+03
  3.31509E+03 -1.33705E+03  2.30603E+03  5.84423E+02  7.60708E+02  1.80270E+03  8.61855E+02  8.79639E+02
  1.43585E+03  4.49864E+02  1.49194E+03  1.25469E+03  1.25539E+03  2.70356E+03  1.53896E+03  2.11078E+03
 -1.55589E+03  4.03958E+03 -3.40833E+03  4.92173E+03 -4.22250E+03  1.47789E+03 -5.17769E+03 -1.22950E+03
 -1.91882E+03 -4.82218E+03  8.07178E+02 -5.96951E+03  2.40891E+03 -3.40220E+03  4.03539E+03 -1.15794E+03
  2.91992E+03  2.27167E+03  4.81302E+02  2.95481E+03 -1.06994E+03  1.59291E+03 -1.20071E+03 -3.28055E+01
 -9.43279E+02 -1.94535E+03  1.43951E+03 -1.91056E+03  1.65184E+03 -1.32411E+03  1.62085E+03  4.42745E+02
  1.00614E+03  4.87445E+02  9.16386E+02  5.27014E+01 -2.11413E+02  1.00080E+03  1.43216E+03  1.52395E+02
  3.55979E+02  3.62778E+01  2.01549E+03  8.43258E+02  4.37928E+02  2.83606E+03 -6.85113E+02  3.51031E+03
 -2.19653E+03  1.54834E+03 -2.50737E+03  5.08361E+02 -2.94957E+03 -8.93191E+02 -3.95212E+02 -1.54094E+03
  3.38470E+02 -1.57826E+03  1.30039E+03 -1.04417E+03  8.59428E+02  1.27673E+03 -7.70084E+02  1.43604E+03
 -1.79470E+03  9.38290E+02 -1.75237E+03 -1.35546E+03 -9.60493E+02 -2.14754E+03  3.88797E+02 -2.08024E+03
  7.45208E+02 -1.07681E+03  1.06398E+03  4.01921E+01  1.57103E+03  5.02582E+01  2.00314E+02  1.42512E+03
 -5.42791E+02  3.79279E+02 -1.38469E+03 -6.86871E+02  6.99442E+02 -1.09527E+03  2.20072E+03 -1.28142E+03
  1.82257E+03  3.19067E+02  3.32613E+03  1.32129E+03  1.40656E+03  2.27412E+03 -4.41672E+02  2.40855E+03
 -1.95009E+03  5.61596E+02 -2.12326E+03 -3.15175E+02 -9.71564E+02 -1.84623E+03  5.99936E+02 -1.01492E+03
  1.56020E+03 -8.37704E+02  8.31801E+02  8.37539E+02  3.37043E+02  1.76696E+03 -1.98706E+01  1.33515E+03
 -5.18902E+02  1.27186E+03 -6.10973E+02  4.79098E+02 -6.66452E+02  3.67460E+02 -7.98109E+02  4.59939E+02
 -8.89848E+02  1.28580E+03 -2.14146E+03  7.99018E+02 -2.39142E+03  4.22180E+01 -2.87686E+03 -1.55696E+03
 -1.62961E+03 -3.32138E+03  5.01054E+02 -3.57375E+03  1.67509E+03 -3.56365E+03  3.53817E+03 -9.68052E+02
  2.92220E+03  4.28033E+02  1.83719E+03  1.85152E+03 -1.85759E+02  1.97139E+03 -1.13155E+03  1.31455E+03
 -1.14482E+03  1.15182E+03 -5.43970E+02 -3.53443E+02 -6.27795E+02  1.78580E+02 -5.06733E+02  6.76683E+01
 -9.55498E+02 -3.51346E+02 -1.03523E+03  4.27266E+02  2.08007E+02 -9.29287E+02 -6.55882E+01 -1.08466E+03
  1.45440E+03 -6.42147E+02  8.14237E+02  6.04121E+02  1.81591E+03  1.49777E+03 -4.07608E+02  2.01525E+03
 -1.19197E+03  3.16092E+03 -2.21929E+03  1.45272E+03 -2.42523E+03 -1.52157E+02 -1.89062E+03 -1.27303E+03
 -1.11455E+03 -1.64804E+03  5.46029E+02 -1.70904E+03  1.07823E+03 -8.08770E+02  1.01322E+03  2.95955E+02
  8.33339E+02  4.16664E+02  1.09679E+02  1.60025E+02 -7.16056E+02  2.53335E+02  1.39431E+02 -4.64866E+02
  4.62424E+02  1.13097E+02  1.31141E+02  4.73336E+02  1.78024E+02  7.06443E+02  4.96233E+02  5.07483E+02
 -1.09462E+03  7.06193E+02 -8.20964E+02  1.15673E+02 -1.09552E+03 -6.30654E+02 -6.90705E+01 -1.63834E+03
  8.08694E+02 -1.03715E+03  1.26839E+03 -1.33696E+02  1.43781E+03 -5.22982E+02  8.50712E+02  1.08340E+03
  4.10034E+02  6.79092E+02 -3.91254E+02  6.53413E+02 -6.31600E+02  7.53562E+02 -3.05457E+02  2.32382E+02
 -1.16459E+02 -5.58239E+01 -5.26778E+02  3.28935E+02 -8.17901E+02  2.42697E+01 -1.08995E+03 -3.13245E+02
 -1.34715E+03  1.71705E+02 -5.07330E+02 -1.14323E+03  1.05380E+03 -1.68738E+03  1.08039E+03 -3.95909E+02
  9.80609E+02  1.32562E+01  7.67014E+01  4.84348E+02  2.32504E+02  1.31961E+03 -2.56870E+02  9.82972E+02
