 $NMID ID='MM_0lb_SNR800_12hz_g55_78.RAW', FMTDAT='(8E13.5)'
 TRAMP=1., VOLUME=1. $END
  3.10043E+05  3.65481E+02  3.37913E+05  2.50901E+05  8.49307E+04  3.38283E+05 -1.32636E+05  2.51256E+05
 -1.90440E+05  8.34496E+04 -1.12012E+05 -3.24738E+04  5.26533E+02 -5.05846E+04  5.37264E+04 -4.07536E+02
  3.56436E+04  5.29214E+04 -1.69351E+04  7.59236E+04 -6.09669E+04  6.38998E+04 -8.49238E+04  3.22117E+04
 -8.16951E+04 -1.14103E+04 -5.78122E+04 -5.16441E+04 -1.50195E+04 -7.04869E+04  2.81226E+04 -4.62715E+04
  4.08692E+04  3.50635E+03  1.63378E+04  4.80496E+04 -3.46923E+04  4.77461E+04 -6.72831E+04  2.31332E+02
 -5.39616E+04 -5.73098E+04 -7.02279E+03 -7.82092E+04  3.42804E+04 -5.59818E+04  4.91558E+04 -1.77262E+04
  4.45816E+04  1.12765E+04  3.22655E+04  2.57280E+04  1.59385E+04  3.01278E+04 -5.98554E+03  2.75035E+04
 -2.23516E+04  1.21785E+04 -1.85996E+04 -5.51287E+03  6.24549E+03 -7.48079E+03  2.30325E+04  1.30712E+04
  7.12628E+03  3.62902E+04 -3.30828E+04  3.62112E+04 -6.48690E+04  1.90275E+03 -5.77352E+04 -4.36925E+04
 -1.23330E+04 -6.44378E+04  4.07358E+04 -4.63609E+04  5.99712E+04 -2.41004E+03  3.59571E+04  3.35610E+04
 -5.58951E+03  3.80693E+04 -3.09459E+04  1.73355E+04 -3.20597E+04 -4.05145E+03 -1.80502E+04 -1.13369E+04
 -9.06280E+03 -1.41844E+04 -6.12214E+02 -1.90199E+04  7.64700E+03 -2.32311E+04  1.59291E+04 -1.29812E+04
  1.08050E+04  6.01832E+03 -9.52844E+03  1.32010E+04 -2.25967E+04 -6.02112E+03 -8.57772E+03 -3.55895E+04
  2.41805E+04 -4.54770E+04  5.02788E+04 -2.05644E+04  4.69055E+04  2.03079E+04  1.68626E+04  4.60843E+04
 -1.63313E+04  3.46720E+04 -2.65152E+04  2.32589E+03 -1.09467E+04 -2.89358E+04  2.12757E+04 -3.54847E+04
  4.26924E+04 -1.00479E+04  3.80958E+04  2.48457E+04  1.97489E+04  4.90506E+04 -8.03377E+03  5.33461E+04
 -3.39733E+04  3.62252E+04 -4.48980E+04  1.04281E+04 -4.53071E+04 -1.76512E+04 -2.52613E+04 -4.01723E+04
  7.55385E+03 -3.99275E+04  3.28984E+04 -1.59462E+04  3.03842E+04  1.13970E+04  4.41135E+03  1.96843E+04
 -1.38172E+04  9.38758E+03 -1.03921E+04 -7.67163E+03  5.60042E+03 -1.09855E+04  1.85134E+04  5.91861E+03
  1.41403E+04  2.24574E+04 -5.46703E+03  2.67611E+04 -2.33392E+04  1.29853E+04 -2.97602E+04 -3.83714E+03
 -2.32650E+04 -1.81630E+04 -1.02112E+04 -2.32048E+04  4.24917E+03 -2.30248E+04  1.77154E+04 -2.11650E+04
  2.92935E+04 -1.35502E+04  3.53559E+04  3.86122E+03  2.54336E+04  2.23198E+04  4.66473E+03  3.89156E+04
 -1.91268E+04  3.22656E+04 -2.96733E+04  1.07377E+04 -2.17150E+04 -9.97912E+03 -4.48812E+03 -1.30422E+04
  1.01468E+03 -2.24164E+03 -6.50374E+03  7.99136E+03 -1.86146E+04  5.09991E+03 -1.84429E+04 -8.18060E+03
 -1.07780E+04 -2.09839E+04  5.81268E+03 -2.54051E+04  1.68233E+04 -1.81604E+04  2.03172E+04 -1.79948E+03
  1.26593E+04  1.49884E+04 -1.15841E+03  2.13031E+04 -1.52015E+04  1.17470E+04 -2.11489E+04 -4.25296E+03
 -1.54962E+04 -1.92364E+04 -2.16418E+03 -2.53587E+04  1.14453E+04 -2.10910E+04  2.10167E+04 -1.09180E+04
  1.99449E+04  2.70099E+02  1.46463E+04  4.86938E+03  7.68236E+03  1.10816E+03  1.08906E+04 -2.14177E+03
  1.96326E+04  2.61259E+03  2.24737E+04  1.65457E+04  1.50329E+04  3.40567E+04 -2.50118E+03  3.89802E+04
 -2.25290E+04  3.21767E+04 -3.69014E+04  1.63879E+04 -3.92175E+04 -2.91911E+03 -3.16970E+04 -2.26737E+04
 -1.32406E+04 -3.21829E+04  1.15201E+04 -2.92147E+04  2.46306E+04 -1.39862E+04  2.14705E+04  6.79461E+03
  7.53470E+03  1.65410E+04 -1.03678E+04  1.40712E+04 -1.85637E+04  2.37697E+03 -1.38247E+04 -1.12308E+04
 -3.31708E+02 -1.74843E+04  9.03906E+03 -1.27112E+04  1.22534E+04 -9.43779E+02  3.04002E+03  7.71935E+03
 -7.68986E+03  3.28173E+03 -7.08079E+03 -6.29995E+03 -9.95084E+02 -1.60075E+04  1.08070E+04 -1.70454E+04
  1.95148E+04 -9.21805E+03  2.18385E+04  2.95833E+03  1.90536E+04  1.58657E+04  9.06434E+03  2.42893E+04
 -4.53813E+03  2.66628E+04 -1.72741E+04  1.65039E+04 -1.89912E+04  3.50516E+03 -1.31390E+04 -4.68014E+03
 -5.94555E+03 -5.45702E+03 -5.90744E+02  5.30248E+02 -2.84694E+03  3.04385E+03 -5.96689E+03  4.91234E+03
 -1.20341E+04 -6.23172E+02 -1.28938E+04 -1.03021E+04 -5.31084E+03 -1.69676E+04  5.75345E+03 -1.33421E+04
  1.14590E+04 -5.28150E+03  8.07900E+03  3.51649E+03  2.48070E+02  5.11146E+03 -6.60320E+03  4.18557E+01
 -6.26031E+03 -8.57181E+03 -1.14605E+03 -1.28908E+04  7.30391E+03 -1.37137E+04  1.69400E+04 -7.35567E+03
  2.01957E+04  1.65626E+03  1.44398E+04  1.14885E+04  2.79134E+03  1.58458E+04 -8.36172E+03  1.29649E+04
 -1.07358E+04  3.80449E+03 -5.58522E+03 -2.77419E+03  1.90374E+03 -3.58744E+03  6.89765E+03 -1.07749E+03
  6.17867E+03  5.77897E+03  7.23465E+02  1.06101E+04 -7.55026E+03  9.97865E+03 -1.29503E+04  2.45191E+03
 -8.92962E+03 -6.61672E+03  1.49061E+02 -1.09845E+04  7.26473E+03 -6.05533E+03  7.53111E+03  2.56063E+03
  1.35608E+03  7.94545E+03 -6.81178E+03  9.24150E+03 -1.08729E+04  4.13482E+03 -1.11035E+04 -3.88029E+03
 -5.97288E+03 -1.21664E+04  3.24584E+03 -1.46358E+04  1.20688E+04 -8.39999E+03  1.35682E+04  2.60877E+03
  8.45854E+03  1.03500E+04 -1.10116E+03  1.28648E+04 -9.66223E+03  6.95837E+03 -1.03636E+04 -1.07271E+03
 -9.17372E+03 -8.70761E+03 -1.51644E+03 -9.61561E+03  4.73308E+03 -7.84541E+03  5.94457E+03 -3.48419E+03
  4.28068E+03  1.55231E+03 -6.71622E+02  1.76491E+03 -2.52163E+02 -2.14881E+03  1.74912E+03 -5.78336E+03
  8.90300E+03 -3.73157E+03  1.23686E+04  1.54806E+03  1.21152E+04  8.36179E+03  8.41502E+03  1.60038E+04
 -3.83803E+03  1.84341E+04 -1.52338E+04  1.35378E+04 -1.96622E+04  2.25830E+03 -1.63244E+04 -6.71057E+03
 -7.99350E+03 -1.34171E+04 -5.26872E+02 -1.11136E+04  4.22824E+03 -6.00797E+03  3.80996E+03 -3.89674E+03
  3.02744E+03 -2.63139E+03  3.51804E+03 -3.33218E+03  4.98271E+03 -2.78932E+03  6.38391E+03 -5.93823E+02
  8.08235E+03  2.08752E+03  4.23337E+03  7.37352E+03 -1.94985E+03  8.30052E+03 -8.78068E+03  6.57723E+03
 -1.09216E+04 -1.12845E+03 -6.69901E+03 -7.79772E+03 -6.85357E+02 -1.16519E+04  6.43677E+03 -1.19256E+04
  1.23263E+04 -6.38158E+03  1.47242E+04  1.69084E+03  1.02197E+04  1.02995E+04  1.69622E+03  1.35220E+04
 -5.49537E+03  1.09338E+04 -7.86585E+03  3.96024E+03 -5.30828E+03 -1.31913E+03 -2.13848E+03 -1.56250E+03
 -9.34064E+02 -9.67716E+01 -1.89936E+03  2.59134E+03 -4.95044E+03  2.02776E+03 -7.78133E+03 -8.37740E+02
 -5.29206E+03 -7.81780E+03  3.23080E+02 -1.10242E+04  6.34810E+03 -1.01108E+04  1.06100E+04 -2.89418E+03
  1.08314E+04  5.44759E+03  4.90614E+03  9.17658E+03 -2.16000E+03  1.06042E+04 -7.39285E+03  6.69189E+03
 -1.00444E+04  5.93680E+02 -7.87869E+03 -6.24631E+03 -9.65980E+02 -8.63441E+03  4.35852E+03 -6.89770E+03
  6.96721E+03 -1.92429E+03  4.09050E+03  1.64728E+03  2.02803E+03  3.06675E+03  9.78979E+02  1.24905E+03
  2.48169E+03  7.79825E+02  2.83732E+03  1.37608E+03  3.17774E+03  3.95327E+03  3.04016E+03  5.54042E+03
 -2.26360E+03  8.20493E+03 -7.19420E+03  8.79413E+03 -1.04642E+04  2.10400E+03 -1.12872E+04 -4.29419E+03
 -5.35576E+03 -1.06400E+04  1.27273E+03 -1.15575E+04  6.24879E+03 -7.03615E+03  8.70805E+03 -2.09310E+03
  6.80723E+03  3.98704E+03  8.93665E+02  5.92118E+03 -2.62723E+03  3.93954E+03 -4.11563E+03 -4.41664E+02
 -1.89564E+03 -4.63174E+03  2.49218E+03 -4.65484E+03  4.09747E+03 -2.01112E+03  4.35441E+03  1.05156E+03
  2.66692E+03  1.75031E+03  1.47784E+03  1.44265E+03 -6.01314E+02  1.50009E+03  1.33325E+03 -1.59301E+02
  1.62873E+03 -7.77838E+02  4.52105E+03  1.61399E+03  2.12025E+03  5.83132E+03 -1.03122E+03  7.19366E+03
 -5.08032E+03  4.55384E+03 -6.50490E+03  1.07580E+03 -5.82492E+03 -2.43465E+03 -1.77010E+03 -4.24944E+03
  7.39165E+02 -3.94144E+03  2.63418E+03 -2.10921E+03  2.46217E+03  2.66822E+03 -1.20146E+03  3.28056E+03
 -4.31896E+03  1.91073E+03 -4.69759E+03 -2.55938E+03 -2.78603E+03 -5.65078E+03  1.14302E+03 -5.64941E+03
  2.82323E+03 -2.94859E+03  3.52320E+03 -3.70184E+02  3.46723E+03  1.12309E+03  7.79038E+02  3.18051E+03
 -1.67886E+03  7.39939E+02 -2.41293E+03 -1.63382E+03  8.87892E+02 -3.86360E+03  5.28037E+03 -2.93151E+03
  6.10929E+03  5.07347E+02  6.13963E+03  4.14091E+03  1.87344E+03  6.29362E+03 -2.59947E+03  5.87043E+03
 -4.88905E+03  2.18759E+03 -5.45792E+03 -6.55680E+02 -2.83989E+03 -4.15599E+03  9.78274E+02 -3.50439E+03
  4.15263E+03 -2.05206E+03  3.20573E+03  1.91018E+03  9.21265E+02  3.51710E+03 -5.07471E+02  3.32746E+03
 -1.88923E+03  1.63318E+03 -1.64387E+03  4.33623E+02 -3.88441E+02  5.67885E+02 -1.08239E+03  1.33559E+03
 -1.70814E+03  2.07029E+03 -4.68534E+03  2.00190E+03 -5.83104E+03 -1.05139E+02 -6.89970E+03 -4.44853E+03
 -3.49953E+03 -8.30872E+03  1.51413E+03 -9.54022E+03  5.61911E+03 -7.21091E+03  8.96081E+03 -2.92344E+03
  8.33879E+03  1.81720E+03  4.94051E+03  6.04326E+03  3.39889E+02  6.09768E+03 -2.55044E+03  4.57854E+03
 -3.53156E+03  1.78017E+03 -1.79252E+03 -8.10647E+02 -8.57738E+02 -3.08918E+02 -7.03245E+02 -9.06153E+01
 -1.41940E+03  1.65736E+02 -1.59822E+03 -2.18353E+02 -5.63050E+02 -1.59340E+03 -7.37904E+01 -2.57180E+03
  2.79828E+03 -2.07635E+03  3.39873E+03  1.29136E+02  4.24385E+03  3.34054E+03  8.75375E+02  5.86782E+03
 -3.03851E+03  7.13973E+03 -6.55054E+03  4.36644E+03 -7.56865E+03 -2.59414E+02 -5.53135E+03 -4.22634E+03
 -2.48016E+03 -6.28591E+03  1.50670E+03 -5.77380E+03  3.98568E+03 -3.23720E+03  3.62506E+03  1.30820E+02
  2.31894E+03  2.19946E+03  8.47036E+01  1.78226E+03 -1.06911E+03 -1.97699E+02 -2.39597E+02 -8.43501E+02
  1.75428E+03 -8.19712E+02  2.11982E+03  1.25935E+03  1.36779E+03  2.36171E+03  2.49093E+02  3.18643E+03
 -2.61461E+03  2.66204E+03 -3.86955E+03  5.79403E+02 -3.17388E+03 -2.80945E+03 -4.71010E+02 -4.87053E+03
  2.65314E+03 -4.16101E+03  4.23998E+03 -9.68582E+02  4.62132E+03  4.81687E+02  2.26928E+03  3.60438E+03
  7.02563E+02  3.87372E+03 -1.75509E+03  3.06079E+03 -2.37011E+03  1.93319E+03 -1.92740E+03 -8.24979E+01
 -1.16918E+03 -3.84622E+02 -1.10923E+03  6.21942E+02 -1.73431E+03  8.08883E+02 -2.84604E+03 -3.32314E+02
 -3.40125E+03 -1.91744E+03 -1.11431E+03 -3.99530E+03  1.72717E+03 -4.53184E+03  3.63822E+03 -2.02160E+03
  3.89462E+03  1.54627E+02  1.44756E+03  2.53544E+03 -5.72981E+02  4.00798E+03 -2.72018E+03  2.51758E+03
