 $NMID ID='MM_0lb_SNR800_15hz_g45_28.RAW', FMTDAT='(8E13.5)'
 TRAMP=1., VOLUME=1. $END
  3.09761E+05  3.73430E+02  3.37354E+05  2.50635E+05  8.43162E+04  3.37548E+05 -1.32785E+05  2.50792E+05
 -1.90141E+05  8.27149E+04 -1.11445E+05 -3.27767E+04  9.95015E+02 -5.04215E+04  5.39591E+04  7.45732E+01
  3.53377E+04  5.30009E+04 -1.69632E+04  7.53770E+04 -6.08950E+04  6.30945E+04 -8.38895E+04  3.17044E+04
 -8.06916E+04 -1.11716E+04 -5.66405E+04 -5.06781E+04 -1.50207E+04 -6.89450E+04  2.71110E+04 -4.55832E+04
  3.99993E+04  4.12001E+03  1.55857E+04  4.76829E+04 -3.39156E+04  4.70601E+04 -6.60094E+04 -2.18604E+02
 -5.27193E+04 -5.65261E+04 -6.64754E+03 -7.63442E+04  3.36856E+04 -5.47084E+04  4.78473E+04 -1.69004E+04
  4.30390E+04  1.10843E+04  3.14193E+04  2.52474E+04  1.60872E+04  2.89322E+04 -4.89007E+03  2.69643E+04
 -2.18803E+04  1.27969E+04 -1.88680E+04 -4.98208E+03  5.39316E+03 -7.36719E+03  2.18522E+04  1.17310E+04
  7.35365E+03  3.45498E+04 -3.14132E+04  3.47521E+04 -6.26651E+04  2.08709E+03 -5.64423E+04 -4.22891E+04
 -1.24964E+04 -6.23667E+04  3.91007E+04 -4.47224E+04  5.71642E+04 -2.09969E+03  3.31600E+04  3.17694E+04
 -5.75141E+03  3.52720E+04 -2.96431E+04  1.49885E+04 -2.93949E+04 -4.53751E+03 -1.57244E+04 -1.06751E+04
 -7.97394E+03 -1.26005E+04 -7.23899E+02 -1.75372E+04  7.15534E+03 -2.24183E+04  1.50872E+04 -1.36186E+04
  1.16157E+04  5.23481E+03 -7.37519E+03  1.26945E+04 -2.06330E+04 -3.85096E+03 -8.21476E+03 -3.25607E+04
  2.20418E+04 -4.23392E+04  4.71806E+04 -1.92291E+04  4.39013E+04  1.91053E+04  1.50180E+04  4.33289E+04
 -1.55659E+04  3.30002E+04 -2.47304E+04  1.51652E+03 -9.26408E+03 -2.73744E+04  2.06155E+04 -3.27582E+04
  3.98766E+04 -8.39866E+03  3.43408E+04  2.33939E+04  1.74952E+04  4.51667E+04 -7.70678E+03  4.88883E+04
 -3.07062E+04  3.24349E+04 -4.05563E+04  9.25380E+03 -4.09899E+04 -1.58527E+04 -2.29176E+04 -3.70263E+04
  7.00304E+03 -3.63129E+04  3.08223E+04 -1.44290E+04  2.84516E+04  1.08068E+04  3.51949E+03  1.89263E+04
 -1.33388E+04  8.09180E+03 -1.01023E+04 -7.87553E+03  5.77111E+03 -1.06394E+04  1.76087E+04  5.99828E+03
  1.32248E+04  2.18834E+04 -6.30672E+03  2.43971E+04 -2.20484E+04  1.07517E+04 -2.70529E+04 -5.19604E+03
 -1.92802E+04 -1.68713E+04 -7.31300E+03 -1.92446E+04  4.29112E+03 -1.81269E+04  1.45653E+04 -1.71776E+04
  2.44851E+04 -1.25164E+04  3.11449E+04  1.99181E+03  2.28879E+04  1.90737E+04  4.14939E+03  3.51538E+04
 -1.72509E+04  2.94182E+04 -2.72008E+04  9.94183E+03 -2.04966E+04 -1.03116E+04 -4.16745E+03 -1.38680E+04
  1.89443E+03 -3.27639E+03 -4.43645E+03  6.20382E+03 -1.52000E+04  5.24546E+03 -1.54890E+04 -6.11770E+03
 -9.65166E+03 -1.78314E+04  5.05091E+03 -2.17255E+04  1.38673E+04 -1.58053E+04  1.72818E+04 -1.74129E+03
  1.07655E+04  1.22083E+04 -8.85858E+02  1.82020E+04 -1.20297E+04  9.99204E+03 -1.77377E+04 -3.86008E+03
 -1.35266E+04 -1.59801E+04 -1.70785E+03 -2.14233E+04  9.68994E+03 -1.79372E+04  1.81233E+04 -8.90703E+03
  1.67934E+04  5.71732E+02  1.19516E+04  4.21561E+03  6.04393E+03  1.21740E+03  8.77640E+03 -1.69122E+03
  1.63448E+04  2.52816E+03  1.77776E+04  1.42929E+04  1.14739E+04  2.83305E+04 -2.93574E+03  3.14478E+04
 -1.86191E+04  2.53284E+04 -2.96646E+04  1.23773E+04 -3.07470E+04 -2.49074E+03 -2.55760E+04 -1.75197E+04
 -1.14971E+04 -2.49817E+04  8.47374E+03 -2.31000E+04  1.99551E+04 -1.21071E+04  1.78917E+04  5.18077E+03
  7.28850E+03  1.35216E+04 -8.30093E+03  1.19707E+04 -1.53348E+04  2.56816E+03 -1.18661E+04 -9.34052E+03
 -8.07124E+01 -1.41899E+04  7.57392E+03 -1.10588E+04  9.36021E+03 -8.26528E+02  1.78128E+03  5.94941E+03
 -6.66547E+03  2.33444E+03 -5.24437E+03 -5.15555E+03 -3.12769E+02 -1.25551E+04  9.04976E+03 -1.27319E+04
  1.54269E+04 -6.87635E+03  1.59951E+04  2.90956E+03  1.39262E+04  1.21020E+04  6.49690E+03  1.82290E+04
 -2.66861E+03  2.02237E+04 -1.26751E+04  1.28149E+04 -1.43343E+04  3.40642E+03 -1.04836E+04 -3.15102E+03
 -5.07217E+03 -4.38601E+03 -7.52069E+02  9.26656E+02 -2.22107E+03  2.14072E+03 -4.44226E+03  4.19917E+03
 -9.78950E+03 -4.50994E+02 -1.05171E+04 -8.66010E+03 -4.28648E+03 -1.35624E+04  4.13018E+03 -1.06252E+04
  8.82663E+03 -4.39289E+03  6.22960E+03  2.73072E+03  3.53803E+02  4.02562E+03 -4.55887E+03  6.07411E+01
 -4.40444E+03 -6.59822E+03 -6.43374E+02 -9.43440E+03  5.17547E+03 -1.01652E+04  1.25520E+04 -5.28353E+03
  1.49330E+04  1.24741E+03  1.09627E+04  8.41934E+03  2.18293E+03  1.13552E+04 -6.44480E+03  1.03531E+04
 -8.19443E+03  3.21966E+03 -4.48673E+03 -1.89179E+03  1.47011E+03 -2.47572E+03  5.78761E+03 -9.05822E+02
  4.89785E+03  4.33647E+03  1.05696E+03  7.89290E+03 -5.52277E+03  7.83636E+03 -9.69964E+03  2.44895E+03
 -6.56633E+03 -5.04920E+03  2.26876E+02 -8.70720E+03  5.08654E+03 -4.24629E+03  4.99177E+03  1.84087E+03
  8.68757E+02  5.11368E+03 -5.19183E+03  6.52744E+03 -7.22159E+03  3.02131E+03 -6.71120E+03 -2.16605E+03
 -4.52132E+03 -8.37796E+03  1.84759E+03 -1.01203E+04  8.50682E+03 -6.20914E+03  9.05954E+03  1.50111E+03
  5.92728E+03  7.26730E+03 -2.22748E+02  9.59663E+03 -6.66941E+03  5.40759E+03 -7.22528E+03 -4.91288E+02
 -7.16792E+03 -6.74322E+03 -1.27655E+03 -6.67749E+03  3.66436E+03 -6.05946E+03  4.57861E+03 -3.22125E+03
  3.34400E+03  1.00428E+03 -2.26662E+02  1.47533E+03  2.25791E+02 -1.18332E+03  1.05415E+03 -3.20500E+03
  5.68642E+03 -1.84086E+03  8.02966E+03  1.09493E+03  8.22765E+03  4.96297E+03  6.48758E+03  1.08833E+04
 -2.07911E+03  1.22182E+04 -1.05416E+04  9.38763E+03 -1.42975E+04  1.56736E+03 -1.10483E+04 -4.43611E+03
 -5.73832E+03 -9.62767E+03 -4.62080E+02 -7.24630E+03  2.59355E+03 -3.55057E+03  2.54801E+03 -2.57696E+03
  1.70168E+03 -1.79138E+03  2.84356E+03 -2.63170E+03  4.06471E+03 -2.14362E+03  4.62251E+03 -2.94020E+02
  6.05385E+03  1.73034E+03  2.30394E+03  4.88398E+03 -1.45397E+03  4.66486E+03 -6.20180E+03  4.24713E+03
 -7.42776E+03 -9.24406E+02 -3.61515E+03 -5.03221E+03 -1.76951E+02 -7.63797E+03  4.54399E+03 -7.76487E+03
  8.10436E+03 -4.85825E+03  9.68859E+03  7.15143E+02  6.75591E+03  6.48426E+03  1.20424E+03  8.89696E+03
 -3.25792E+03  7.93737E+03 -5.08562E+03  2.57293E+03 -3.37113E+03 -1.41713E+03 -8.54524E+02 -1.20401E+03
 -5.75511E+02  1.46885E+02 -1.10025E+03  2.42390E+03 -3.23513E+03  1.44288E+03 -5.68443E+03 -4.15624E+02
 -2.82490E+03 -5.26989E+03  3.21551E+02 -7.15760E+03  3.93887E+03 -6.49816E+03  6.13974E+03 -1.94813E+03
  6.63722E+03  3.36136E+03  3.03474E+03  5.61818E+03 -1.51257E+03  6.71480E+03 -4.49320E+03  4.17718E+03
 -5.99018E+03  3.60532E+02 -4.94470E+03 -4.09047E+03 -5.90957E+02 -4.97145E+03  2.53125E+03 -4.04550E+03
  4.17899E+03 -1.66090E+03  2.62429E+03  9.45760E+02  6.90574E+02  2.70441E+03  8.76805E+02  8.51845E+02
  1.74786E+03  6.34085E+02  1.78352E+03  1.22991E+03  1.96357E+03  2.77159E+03  2.15207E+03  2.88373E+03
 -1.52158E+03  4.89141E+03 -3.90335E+03  5.94716E+03 -5.57918E+03  1.66415E+03 -6.96234E+03 -1.89600E+03
 -3.18769E+03 -6.28670E+03  9.50047E+02 -7.37356E+03  3.60740E+03 -4.34979E+03  5.15649E+03 -1.13565E+03
  3.88271E+03  2.42928E+03  6.79235E+02  3.55122E+03 -1.41987E+03  1.98570E+03 -2.28169E+03 -6.43830E+02
 -1.04832E+03 -2.65609E+03  1.66167E+03 -2.78914E+03  2.38510E+03 -1.38165E+03  2.34671E+03  7.52068E+02
  1.21690E+03  7.51739E+02  7.80447E+02  4.85344E+02 -4.71357E+02  1.16440E+03  1.47421E+03 -3.29993E+02
  5.18220E+02 -2.87215E+01  3.01551E+03  8.81619E+02  8.41709E+02  3.69542E+03 -5.41663E+02  4.38369E+03
 -2.79518E+03  2.44436E+03 -3.76013E+03  5.97595E+02 -3.62949E+03 -1.05047E+03 -8.81597E+02 -1.89102E+03
  4.34715E+02 -2.29529E+03  1.66774E+03 -9.59994E+02  1.28480E+03  1.41348E+03 -1.08616E+03  1.75011E+03
 -2.39789E+03  1.48910E+03 -2.06859E+03 -1.84135E+03 -1.56150E+03 -3.62061E+03  4.84432E+02 -3.02365E+03
  1.79067E+03 -1.57115E+03  1.72450E+03 -2.91690E+02  1.89219E+03  5.87939E+02  6.34157E+02  2.14528E+03
 -1.00505E+03  3.82426E+02 -1.66131E+03 -9.18528E+02  6.00531E+02 -1.83495E+03  2.87427E+03 -1.85304E+03
  2.94006E+03  3.31976E+02  3.77856E+03  2.08927E+03  1.51767E+03  3.14338E+03 -9.43485E+02  3.40811E+03
 -2.68916E+03  1.28880E+03 -3.09497E+03 -2.83950E+02 -1.65201E+03 -2.57299E+03  3.30875E+02 -2.03335E+03
  2.51545E+03 -1.26075E+03  1.72521E+03  9.59770E+02  4.51743E+02  2.04605E+03 -4.35209E+02  2.05401E+03
 -1.01533E+03  1.43595E+03 -5.84529E+02  2.87632E+02 -2.59078E+02  4.98661E+02 -1.11335E+03  1.03851E+03
 -1.11652E+03  1.61789E+03 -2.95244E+03  1.20485E+03 -3.32602E+03  1.11924E+02 -4.39344E+03 -1.91818E+03
 -1.95166E+03 -4.46527E+03  7.08850E+02 -5.24133E+03  2.78173E+03 -4.19236E+03  4.91723E+03 -1.80789E+03
  4.54199E+03  4.75982E+02  2.76491E+03  3.03378E+03 -7.26258E+02  3.32252E+03 -1.38180E+03  2.53988E+03
 -1.94725E+03  1.05040E+03 -1.09575E+03 -4.94263E+02 -7.89741E+02 -1.23260E+02 -8.75574E+02 -2.69851E+02
 -1.14906E+03  2.86245E+00 -1.37702E+03  2.62725E+02  4.48076E+00 -1.08776E+03 -3.16600E+02 -1.40548E+03
  2.09118E+03 -1.02497E+03  1.62440E+03 -1.18281E+01  2.42383E+03  1.56339E+03  1.29619E+02  2.88281E+03
 -1.54814E+03  4.33259E+03 -3.67344E+03  2.42727E+03 -3.91994E+03 -1.33153E+02 -2.88847E+03 -2.48654E+03
 -1.60188E+03 -2.75636E+03  5.73584E+02 -2.92116E+03  1.80554E+03 -1.35676E+03  1.79997E+03  1.44290E+02
  1.50054E+03  9.47041E+02 -1.04462E+02  7.97115E+02 -5.12270E+02 -2.96667E+01  2.89329E+02 -4.46224E+02
  1.18149E+03 -1.28219E+02  6.49486E+02  5.77268E+02  9.51026E+02  9.83456E+02  3.31107E+02  1.07215E+03
 -1.47920E+03  1.51032E+03 -1.57835E+03  3.90499E+02 -1.77037E+03 -1.23210E+03 -2.10354E+02 -2.41585E+03
  1.18000E+03 -2.04510E+03  1.98096E+03 -5.01575E+02  2.34602E+03 -1.18200E+02  1.15322E+03  1.95842E+03
  5.06647E+02  1.45382E+03 -7.55645E+02  1.46817E+03 -1.22096E+03  8.43509E+02 -8.57528E+02  2.48620E+02
 -5.08824E+02  2.65387E+01 -1.23266E+03  3.85899E+02 -1.15740E+03  6.99750E+01 -1.53716E+03 -5.48526E+02
 -1.76037E+03 -3.00821E+02 -4.90431E+02 -1.79300E+03  7.26630E+02 -2.52723E+03  1.46906E+03 -5.56832E+02
  1.86163E+03  3.15995E+02  3.79158E+02  8.20006E+02  2.89632E+01  1.87011E+03 -1.08060E+03  1.35866E+03
