 $NMID ID='MM_0lb_SNR800_18hz_g45_18.RAW', FMTDAT='(8E13.5)'
 TRAMP=1., VOLUME=1. $END
  3.09806E+05  1.98724E+02  3.37400E+05  2.50335E+05  8.44399E+04  3.37405E+05 -1.32353E+05  2.50106E+05
 -1.89780E+05  8.24435E+04 -1.10934E+05 -3.27299E+04  1.63095E+03 -5.01017E+04  5.36368E+04  1.57719E+02
  3.50673E+04  5.25938E+04 -1.72709E+04  7.47601E+04 -6.03950E+04  6.26937E+04 -8.30875E+04  3.14996E+04
 -7.97374E+04 -1.10261E+04 -5.64687E+04 -5.04168E+04 -1.51314E+04 -6.84275E+04  2.68554E+04 -4.48795E+04
  3.89596E+04  3.59472E+03  1.54827E+04  4.70755E+04 -3.38719E+04  4.62585E+04 -6.54194E+04 -5.73878E+02
 -5.19695E+04 -5.61580E+04 -6.22486E+03 -7.52737E+04  3.31392E+04 -5.31592E+04  4.62388E+04 -1.64733E+04
  4.16799E+04  1.08882E+04  3.06446E+04  2.45111E+04  1.57929E+04  2.80755E+04 -4.61932E+03  2.69283E+04
 -2.15580E+04  1.28635E+04 -1.89684E+04 -4.43563E+03  4.27112E+03 -7.93788E+03  2.10455E+04  1.08812E+04
  7.47354E+03  3.33994E+04 -3.04184E+04  3.41612E+04 -6.14122E+04  2.31058E+03 -5.54315E+04 -4.15094E+04
 -1.27275E+04 -6.09160E+04  3.82691E+04 -4.35857E+04  5.55953E+04 -1.77947E+03  3.20073E+04  3.07669E+04
 -6.35502E+03  3.32897E+04 -2.84931E+04  1.32973E+04 -2.76171E+04 -5.32040E+03 -1.45890E+04 -1.00812E+04
 -7.35747E+03 -1.16202E+04 -9.92332E+02 -1.68171E+04  6.66652E+03 -2.20539E+04  1.49108E+04 -1.39638E+04
  1.23281E+04  4.18175E+03 -6.54769E+03  1.30481E+04 -1.91239E+04 -2.41114E+03 -8.18932E+03 -3.04055E+04
  2.08762E+04 -4.08527E+04  4.49052E+04 -1.85222E+04  4.20299E+04  1.84534E+04  1.44134E+04  4.17562E+04
 -1.52302E+04  3.11013E+04 -2.34973E+04  1.21744E+03 -8.43656E+03 -2.64916E+04  2.06400E+04 -3.15360E+04
  3.82500E+04 -7.20301E+03  3.17389E+04  2.29567E+04  1.55184E+04  4.28621E+04 -7.83666E+03  4.57367E+04
 -2.87319E+04  3.00880E+04 -3.76136E+04  8.36588E+03 -3.86016E+04 -1.51217E+04 -2.13636E+04 -3.43756E+04
  6.93561E+03 -3.42804E+04  2.90405E+04 -1.24626E+04  2.71938E+04  1.07648E+04  2.96631E+03  1.76852E+04
 -1.31542E+04  7.27863E+03 -9.67245E+03 -7.42596E+03  5.82495E+03 -9.86284E+03  1.72807E+04  6.53036E+03
  1.25497E+04  2.16098E+04 -6.48453E+03  2.36003E+04 -2.11771E+04  9.44239E+03 -2.52568E+04 -6.05226E+03
 -1.70022E+04 -1.66139E+04 -5.97332E+03 -1.72807E+04  3.95554E+03 -1.52202E+04  1.24694E+04 -1.45639E+04
  2.15051E+04 -1.15664E+04  2.81677E+04  1.44418E+03  2.13137E+04  1.68714E+04  4.18489E+03  3.25041E+04
 -1.63286E+04  2.78750E+04 -2.59554E+04  9.34719E+03 -1.95247E+04 -1.03405E+04 -3.96297E+03 -1.41161E+04
  2.49357E+03 -3.96697E+03 -2.69426E+03  5.67482E+03 -1.31174E+04  5.01290E+03 -1.34974E+04 -4.97758E+03
 -8.69551E+03 -1.58387E+04  4.31100E+03 -1.97184E+04  1.30033E+04 -1.40431E+04  1.48461E+04 -1.33274E+03
  8.99631E+03  1.09071E+04 -1.11516E+03  1.59411E+04 -1.04924E+04  8.77621E+03 -1.53723E+04 -3.46299E+03
 -1.17817E+04 -1.44856E+04 -1.56940E+03 -1.94017E+04  8.65191E+03 -1.56219E+04  1.62702E+04 -7.37649E+03
  1.46957E+04  6.71636E+02  1.06216E+04  3.74571E+03  5.35017E+03  7.32355E+02  7.79983E+03 -1.34593E+03
  1.38687E+04  2.73715E+03  1.47859E+04  1.28396E+04  9.17009E+03  2.49688E+04 -3.19887E+03  2.69771E+04
 -1.61411E+04  2.05531E+04 -2.46957E+04  9.81537E+03 -2.53535E+04 -1.92666E+03 -2.17074E+04 -1.43698E+04
 -1.02928E+04 -2.07529E+04  6.75266E+03 -1.94148E+04  1.68634E+04 -1.11146E+04  1.57855E+04  4.06079E+03
  6.94342E+03  1.13468E+04 -7.15301E+03  1.04375E+04 -1.33717E+04  2.71386E+03 -1.03297E+04 -8.33544E+03
 -2.18242E+02 -1.23680E+04  6.61914E+03 -9.71475E+03  8.04655E+03 -1.34697E+03  1.38981E+03  4.95402E+03
 -5.43963E+03  1.53712E+03 -3.88478E+03 -4.61535E+03  4.27598E+02 -1.04045E+04  7.79964E+03 -1.04362E+04
  1.24367E+04 -4.52464E+03  1.25783E+04  2.88504E+03  1.06941E+04  9.77446E+03  5.26478E+03  1.42156E+04
 -1.79651E+03  1.60381E+04 -9.91285E+03  1.02800E+04 -1.14589E+04  2.84497E+03 -8.40504E+03 -2.00960E+03
 -4.40278E+03 -3.42335E+03 -7.71645E+02  1.75187E+03 -1.90565E+03  1.98342E+03 -3.62907E+03  3.68747E+03
 -8.13225E+03 -2.60607E+02 -8.61081E+03 -7.09397E+03 -3.79290E+03 -1.15581E+04  3.59690E+03 -8.57452E+03
  7.43882E+03 -3.86016E+03  5.58212E+03  2.11371E+03  6.73469E+02  2.98047E+03 -3.69604E+03  4.25454E+01
 -3.43688E+03 -5.41931E+03 -8.44941E+02 -7.52584E+03  4.05940E+03 -8.14132E+03  1.01133E+04 -4.14714E+03
  1.22208E+04  5.82896E+02  8.88446E+03  6.31718E+03  1.82638E+03  9.06075E+03 -5.48968E+03  8.65279E+03
 -6.89343E+03  2.76851E+03 -3.47649E+03 -1.26714E+03  1.20523E+03 -2.04816E+03  4.82067E+03 -1.00534E+03
  4.12170E+03  3.42076E+03  1.09387E+03  6.46675E+03 -4.37260E+03  6.74549E+03 -8.14528E+03  1.97541E+03
 -5.11332E+03 -3.63889E+03  3.79862E+02 -6.83630E+03  3.51016E+03 -3.00737E+03  3.73572E+03  9.81334E+02
  7.04811E+02  3.47315E+03 -4.16842E+03  4.89034E+03 -5.06518E+03  2.51908E+03 -4.71029E+03 -1.43738E+03
 -2.90165E+03 -6.21427E+03  1.31763E+03 -7.30453E+03  6.14300E+03 -4.56500E+03  7.01268E+03  1.07321E+03
  4.84097E+03  5.43045E+03  6.17886E+00  7.69117E+03 -5.13099E+03  4.24109E+03 -5.71863E+03 -4.50435E+02
 -5.85268E+03 -5.15030E+03 -1.44478E+03 -5.19831E+03  2.36619E+03 -4.58557E+03  2.91802E+03 -2.82563E+03
  2.74728E+03  1.98233E+02  1.02439E+02  1.30738E+03  4.59429E+02 -6.43340E+02  3.04820E+01 -1.67106E+03
  4.17610E+03 -1.00495E+03  5.63323E+03  5.94150E+02  5.87755E+03  3.18354E+03  5.36609E+03  7.67779E+03
 -1.37991E+03  8.74633E+03 -7.94476E+03  6.84952E+03 -1.00469E+04  1.39926E+03 -8.21333E+03 -2.73976E+03
 -4.46506E+03 -6.95540E+03 -5.85790E+02 -5.39194E+03  1.99503E+03 -2.07530E+03  1.64808E+03 -2.19347E+03
  1.42443E+03 -1.32343E+03  2.18232E+03 -2.33630E+03  3.63198E+03 -1.35853E+03  3.66669E+03  5.99043E+02
  4.63941E+03  1.12805E+03  1.02485E+03  3.69470E+03 -1.71604E+03  2.89814E+03 -4.66171E+03  2.73110E+03
 -5.16560E+03 -9.24049E+02 -1.69006E+03 -3.60629E+03  3.98562E+02 -5.18946E+03  3.29339E+03 -5.50279E+03
  5.33982E+03 -3.30717E+03  7.01852E+03  1.24812E+02  5.00952E+03  4.40506E+03  8.62568E+02  6.61631E+03
 -2.17188E+03  5.82553E+03 -3.60892E+03  2.04947E+03 -2.01330E+03 -9.32992E+02 -6.47437E+02 -7.93145E+02
 -4.20299E+02  3.60849E+02 -1.15586E+03  1.99145E+03 -2.42970E+03  1.18810E+03 -4.14712E+03 -4.08613E+02
 -1.64379E+03 -4.26154E+03  9.39842E+02 -4.72285E+03  2.89651E+03 -4.55847E+03  3.81993E+03 -1.17042E+03
  4.14294E+03  2.57766E+03  1.98263E+03  3.68179E+03 -8.63057E+02  4.61499E+03 -2.77947E+03  3.00605E+03
 -4.21420E+03  4.30579E+02 -3.38249E+03 -2.81671E+03 -3.66445E+02 -3.45915E+03  1.58021E+03 -2.80809E+03
  3.05239E+03 -1.18814E+03  2.05322E+03  3.61193E+02  6.46566E+02  1.67054E+03  9.31338E+02  6.66724E+02
  1.64196E+03  3.69871E+02  1.29564E+03  1.10979E+03  1.24029E+03  2.02104E+03  1.45823E+03  2.11457E+03
 -1.14513E+03  3.10855E+03 -2.78682E+03  4.05323E+03 -3.49932E+03  1.35595E+03 -4.69374E+03 -6.91063E+02
 -1.85533E+03 -3.92413E+03  5.87109E+02 -4.79398E+03  2.10039E+03 -2.48410E+03  3.31422E+03 -9.39510E+02
  2.38670E+03  1.83483E+03  1.81353E+02  2.39444E+03 -8.05218E+02  1.43164E+03 -1.16448E+03 -3.66591E+02
 -8.46603E+02 -1.42050E+03  1.46485E+03 -1.53499E+03  1.63688E+03 -8.87421E+02  1.29277E+03  4.59293E+02
  6.63691E+02  4.51396E+02  4.82276E+02 -7.83983E+01 -3.56918E+02  7.37696E+02  1.47621E+03 -1.94272E+02
  2.93100E+02 -9.51846E+01  1.80746E+03  4.71653E+02  2.45778E+02  2.74464E+03 -5.26911E+02  2.85509E+03
 -1.83802E+03  1.32960E+03 -2.23524E+03  2.99867E+02 -2.22016E+03 -9.19780E+02 -2.16247E+02 -1.02746E+03
  3.58672E+02 -1.26003E+03  1.21342E+03 -8.00916E+02  8.04545E+02  1.22013E+03 -7.28514E+02  1.11139E+03
 -1.39441E+03  1.20354E+03 -1.08702E+03 -1.45915E+03 -7.46715E+02 -2.33288E+03  1.97064E+02 -1.71342E+03
  9.59403E+02 -7.78314E+02  1.23069E+03 -1.86159E+02  1.40542E+03  2.78647E+02  2.45112E+02  1.14562E+03
 -2.99537E+02  3.38537E+02 -9.96494E+02  2.75508E+01  6.88551E+02 -1.32939E+03  1.92526E+03 -1.04185E+03
  1.50907E+03  8.24304E+01  2.78157E+03  9.31433E+02  9.09336E+02  1.78283E+03 -5.98504E+02  1.91472E+03
 -1.62484E+03  1.48356E+02 -1.60031E+03 -2.52806E+02 -1.10762E+03 -1.41837E+03  3.28278E+02 -8.76707E+02
  1.73661E+03 -5.98157E+02  1.12428E+03  7.69310E+02  2.09659E+02  1.64822E+03  4.05695E+02  1.39386E+03
 -1.79519E+02  1.23313E+03 -6.31634E+02  2.26134E+02  5.32894E+01  3.35176E+02 -8.66114E+02  4.49053E+02
 -8.09437E+02  1.13652E+03 -2.02371E+03  5.61352E+02 -1.96078E+03  3.47400E+02 -2.44592E+03 -9.20097E+02
 -1.17121E+03 -2.41646E+03  4.74523E+02 -3.14375E+03  1.19344E+03 -2.30805E+03  3.05404E+03 -1.33728E+03
  2.69896E+03 -6.89507E+01  1.14456E+03  1.56618E+03 -2.57855E+02  1.65590E+03 -9.42071E+02  1.48951E+03
 -1.21450E+03  8.18019E+02 -5.06323E+02 -3.24703E+01 -4.06075E+02  1.69994E+02 -7.68977E+02 -3.37179E+02
 -1.29195E+03 -3.53156E+02 -7.58050E+02  1.61262E+02  1.76125E+02 -7.10858E+02 -5.97695E+02 -8.42334E+02
  1.53422E+03 -7.39870E+02  4.27776E+02  2.43069E+02  1.00067E+03  1.31471E+03 -4.81665E+02  1.69153E+03
 -1.01955E+03  2.40546E+03 -1.74997E+03  1.35436E+03 -2.17784E+03 -4.02648E+02 -1.25791E+03 -1.36014E+03
 -1.08458E+03 -1.25012E+03  3.88557E+02 -1.64489E+03  6.87736E+02 -6.37747E+02  5.43065E+02  1.58865E+02
  8.99387E+02  6.70686E+02  7.16112E+01  2.30913E+02 -6.04249E+02  4.41977E+01 -1.38213E+01 -2.81199E+02
  4.74602E+02  3.26209E+02  4.78735E+02  6.35752E+02 -8.64059E+01  4.63182E+02  4.79081E+02  2.23911E+02
 -8.15368E+02  8.78407E+02 -5.65369E+02  1.63152E+02 -7.53920E+02 -6.85182E+02  3.57562E+02 -1.46740E+03
  8.29601E+02 -8.02103E+02  6.50328E+02 -5.06772E+01  8.23510E+02 -5.51166E+02  5.39579E+02  7.58781E+02
  5.15310E+02  5.23051E+02 -1.17304E+02  8.80058E+02 -7.52655E+02  5.60409E+02 -6.50400E+02  6.07983E+01
 -1.89689E+02  4.53919E+01 -4.28402E+02  1.40713E+02 -8.87237E+02  1.44563E+02 -9.93762E+02 -3.05368E+02
 -1.03681E+03  4.20699E+01 -4.29319E+02 -1.24484E+03  4.73819E+02 -1.53680E+03  6.55557E+02 -4.79909E+02
  6.37656E+02 -1.36320E+02 -4.19479E+02  4.90892E+02  8.12235E+00  7.40598E+02 -2.89223E+02  8.65991E+02
