 $NMID ID='MM_0lb_SNR800_14hz_g55_55.RAW', FMTDAT='(8E13.5)'
 TRAMP=1., VOLUME=1. $END
  3.09713E+05  6.17021E+02  3.37617E+05  2.50324E+05  8.46444E+04  3.37963E+05 -1.32490E+05  2.51295E+05
 -1.90529E+05  8.32805E+04 -1.12090E+05 -3.25587E+04  7.91040E+02 -5.07236E+04  5.40869E+04 -1.22653E+02
  3.53288E+04  5.28582E+04 -1.67413E+04  7.55284E+04 -6.10576E+04  6.35884E+04 -8.42998E+04  3.22161E+04
 -8.15694E+04 -1.15236E+04 -5.73825E+04 -5.12023E+04 -1.49093E+04 -6.98967E+04  2.76537E+04 -4.61160E+04
  4.03015E+04  3.53847E+03  1.62997E+04  4.82065E+04 -3.46958E+04  4.73403E+04 -6.70410E+04 -2.59409E+02
 -5.36436E+04 -5.70981E+04 -7.18495E+03 -7.72537E+04  3.39838E+04 -5.54071E+04  4.82926E+04 -1.73418E+04
  4.37944E+04  1.13895E+04  3.20682E+04  2.55418E+04  1.58526E+04  2.98777E+04 -5.20082E+03  2.72349E+04
 -2.22739E+04  1.23533E+04 -1.83020E+04 -5.19836E+03  6.03521E+03 -7.63731E+03  2.26320E+04  1.27917E+04
  7.41303E+03  3.57565E+04 -3.27387E+04  3.58928E+04 -6.39546E+04  2.12130E+03 -5.70974E+04 -4.31636E+04
 -1.27222E+04 -6.37426E+04  3.99574E+04 -4.58742E+04  5.90636E+04 -2.63063E+03  3.47088E+04  3.27303E+04
 -5.42317E+03  3.65241E+04 -3.04871E+04  1.67377E+04 -3.08734E+04 -4.63741E+03 -1.72290E+04 -1.10798E+04
 -8.74015E+03 -1.39251E+04 -6.27579E+02 -1.85371E+04  7.48959E+03 -2.32339E+04  1.56304E+04 -1.30013E+04
  1.09909E+04  5.24425E+03 -8.60096E+03  1.31135E+04 -2.14570E+04 -4.75427E+03 -8.46185E+03 -3.45573E+04
  2.34680E+04 -4.40432E+04  4.88188E+04 -1.99050E+04  4.56567E+04  1.96464E+04  1.61475E+04  4.48748E+04
 -1.61386E+04  3.39266E+04 -2.56021E+04  1.80986E+03 -1.00196E+04 -2.82040E+04  2.12059E+04 -3.47524E+04
  4.16385E+04 -9.35919E+03  3.64108E+04  2.38404E+04  1.87909E+04  4.74372E+04 -8.10515E+03  5.12343E+04
 -3.25124E+04  3.44554E+04 -4.29179E+04  9.91941E+03 -4.35936E+04 -1.67624E+04 -2.39590E+04 -3.88039E+04
  7.49918E+03 -3.85845E+04  3.21665E+04 -1.49563E+04  2.96876E+04  1.06961E+04  4.17399E+03  1.96530E+04
 -1.40626E+04  8.79074E+03 -1.07887E+04 -7.54629E+03  5.78009E+03 -1.08430E+04  1.81083E+04  6.04567E+03
  1.36581E+04  2.21323E+04 -6.00478E+03  2.53406E+04 -2.27304E+04  1.19139E+04 -2.87740E+04 -4.14460E+03
 -2.16804E+04 -1.73425E+04 -9.06278E+03 -2.15403E+04  4.53317E+03 -2.03479E+04  1.62970E+04 -1.90113E+04
  2.70740E+04 -1.29708E+04  3.33609E+04  3.16697E+03  2.43596E+04  2.07353E+04  4.40666E+03  3.68620E+04
 -1.81576E+04  3.07284E+04 -2.82482E+04  1.05416E+04 -2.11595E+04 -1.01575E+04 -4.66978E+03 -1.34846E+04
  1.85221E+03 -2.39130E+03 -5.09773E+03  7.03719E+03 -1.68348E+04  5.00732E+03 -1.71788E+04 -7.52619E+03
 -1.02123E+04 -1.94177E+04  5.12916E+03 -2.35892E+04  1.59545E+04 -1.70146E+04  1.85678E+04 -1.27105E+03
  1.18865E+04  1.35682E+04 -1.38065E+03  1.97469E+04 -1.35335E+04  1.10211E+04 -1.97072E+04 -4.35652E+03
 -1.44298E+04 -1.73513E+04 -1.84450E+03 -2.33818E+04  1.05559E+04 -1.94355E+04  1.96190E+04 -9.66786E+03
  1.80152E+04  4.41027E+02  1.33544E+04  4.79255E+03  7.13004E+03  1.03178E+03  1.00127E+04 -1.68865E+03
  1.79737E+04  2.57217E+03  2.02333E+04  1.52643E+04  1.34443E+04  3.13297E+04 -2.82965E+03  3.55286E+04
 -2.03471E+04  2.87550E+04 -3.31930E+04  1.48640E+04 -3.49250E+04 -2.50316E+03 -2.88797E+04 -2.01556E+04
 -1.17748E+04 -2.87365E+04  9.99301E+03 -2.62363E+04  2.21839E+04 -1.32942E+04  1.99282E+04  5.59796E+03
  7.38134E+03  1.50183E+04 -9.15402E+03  1.32279E+04 -1.65687E+04  2.16389E+03 -1.28240E+04 -1.01643E+04
 -6.55960E+01 -1.57637E+04  8.13021E+03 -1.16671E+04  1.03422E+04 -1.45469E+03  2.28918E+03  6.89462E+03
 -7.00739E+03  2.57604E+03 -6.43482E+03 -5.97851E+03 -2.79627E+02 -1.41363E+04  9.60922E+03 -1.49874E+04
  1.69353E+04 -7.67771E+03  1.88931E+04  3.12167E+03  1.62264E+04  1.36875E+04  7.72579E+03  2.12618E+04
 -3.62597E+03  2.31687E+04 -1.46533E+04  1.44282E+04 -1.64977E+04  3.44009E+03 -1.16694E+04 -3.73303E+03
 -5.67283E+03 -5.22106E+03 -7.28194E+02  9.90939E+02 -2.42761E+03  2.53820E+03 -5.42151E+03  4.42971E+03
 -1.09410E+04 -4.64757E+02 -1.15255E+04 -9.49961E+03 -4.79661E+03 -1.53559E+04  4.95989E+03 -1.19298E+04
  9.87691E+03 -4.81086E+03  7.09945E+03  2.93002E+03  5.51076E+01  4.71472E+03 -5.43844E+03 -5.31344E+01
 -5.02609E+03 -7.46593E+03 -1.04345E+03 -1.08427E+04  6.40582E+03 -1.17410E+04  1.45037E+04 -6.02539E+03
  1.74129E+04  1.31448E+03  1.26090E+04  1.01047E+04  2.44429E+03  1.32518E+04 -7.36252E+03  1.18096E+04
 -9.63132E+03  3.42600E+03 -4.79240E+03 -2.29572E+03  2.22441E+03 -2.98029E+03  6.42423E+03 -1.32155E+03
  5.89457E+03  4.91178E+03  1.11413E+03  9.06155E+03 -6.95494E+03  8.69080E+03 -1.13967E+04  2.50876E+03
 -7.36131E+03 -5.43215E+03  1.85435E+02 -9.78791E+03  5.73180E+03 -4.88266E+03  6.33918E+03  1.81574E+03
  1.31206E+03  6.18611E+03 -5.82835E+03  7.86616E+03 -8.58769E+03  3.37280E+03 -8.53831E+03 -3.13143E+03
 -4.84231E+03 -1.04341E+04  2.30935E+03 -1.19247E+04  9.92762E+03 -7.34116E+03  1.10692E+04  1.99162E+03
  6.66386E+03  8.54959E+03 -3.98013E+02  1.08618E+04 -7.49990E+03  6.21823E+03 -8.32378E+03 -9.00738E+02
 -8.07443E+03 -7.50472E+03 -1.62676E+03 -7.73158E+03  4.28990E+03 -6.78934E+03  4.85178E+03 -3.25990E+03
  3.72262E+03  1.15041E+03 -5.29514E+02  1.64725E+03 -3.32511E+02 -1.12908E+03  1.34593E+03 -4.19182E+03
  6.99701E+03 -2.47953E+03  9.65441E+03  1.52560E+03  9.74095E+03  6.63147E+03  6.85026E+03  1.31300E+04
 -2.97239E+03  1.51301E+04 -1.31293E+04  1.09479E+04 -1.64881E+04  2.39536E+03 -1.32747E+04 -5.31802E+03
 -6.72847E+03 -1.10735E+04 -6.95766E+02 -9.15489E+03  3.12821E+03 -4.80896E+03  3.04727E+03 -3.45632E+03
  1.90483E+03 -2.12920E+03  3.01685E+03 -3.13235E+03  4.57633E+03 -2.23609E+03  5.35652E+03 -3.97280E+02
  6.97639E+03  1.85219E+03  3.09616E+03  5.65079E+03 -2.02692E+03  6.38475E+03 -7.17502E+03  5.21574E+03
 -8.35092E+03 -1.10935E+03 -5.10564E+03 -5.80299E+03 -4.98475E+01 -9.06707E+03  5.40491E+03 -9.36225E+03
  9.58508E+03 -5.69866E+03  1.18461E+04  1.23815E+03  8.52078E+03  7.87437E+03  1.49342E+03  1.03076E+04
 -4.07683E+03  9.32049E+03 -6.24552E+03  3.03071E+03 -4.02120E+03 -1.24930E+03 -1.28865E+03 -1.68085E+03
 -7.56336E+02  2.18460E+01 -1.48500E+03  2.12405E+03 -3.94603E+03  1.48534E+03 -6.42820E+03 -7.81759E+02
 -3.92733E+03 -6.52500E+03  6.81562E+02 -8.53536E+03  5.25502E+03 -7.85156E+03  7.88852E+03 -2.57142E+03
  8.06902E+03  4.01951E+03  3.69686E+03  6.93829E+03 -1.77380E+03  8.50848E+03 -5.82979E+03  5.27585E+03
 -7.48019E+03  8.37047E+02 -6.10274E+03 -4.97293E+03 -4.10059E+02 -6.74508E+03  3.32219E+03 -4.92411E+03
  5.32089E+03 -1.94925E+03  3.22159E+03  9.18921E+02  1.44538E+03  2.84623E+03  8.23151E+02  1.03088E+03
  1.72590E+03  6.49680E+02  1.99200E+03  1.27563E+03  2.58532E+03  3.41256E+03  2.42973E+03  4.19759E+03
 -1.72982E+03  6.06904E+03 -5.32323E+03  7.16541E+03 -7.84444E+03  2.00225E+03 -8.52292E+03 -2.50841E+03
 -3.71161E+03 -7.72532E+03  1.08955E+03 -9.02943E+03  4.70396E+03 -5.45168E+03  6.40107E+03 -1.69417E+03
  4.91213E+03  3.15450E+03  7.78460E+02  4.46300E+03 -1.84100E+03  2.92145E+03 -2.82214E+03 -2.98911E+02
 -1.40447E+03 -3.59998E+03  2.00011E+03 -3.65041E+03  3.08804E+03 -1.73620E+03  3.12187E+03  1.02687E+03
  1.92924E+03  1.39701E+03  8.11387E+02  4.30993E+02 -6.89810E+02  1.24389E+03  1.60299E+03 -5.83636E+02
  1.03207E+03 -5.76989E+02  3.26237E+03  1.62996E+03  1.58338E+03  4.28251E+03 -5.94193E+02  5.42398E+03
 -3.49167E+03  3.39817E+03 -4.67627E+03  9.75449E+02 -4.52642E+03 -2.00775E+03 -1.27383E+03 -2.81937E+03
  9.48462E+02 -2.94514E+03  1.87011E+03 -1.35797E+03  1.61294E+03  1.96294E+03 -8.67872E+02  2.82722E+03
 -3.13808E+03  1.55340E+03 -3.32004E+03 -2.08151E+03 -1.67293E+03 -4.03954E+03  5.76931E+02 -3.80008E+03
  2.16912E+03 -2.36311E+03  2.31281E+03  9.86946E+01  2.74504E+03  4.16038E+02  4.83766E+02  2.36246E+03
 -7.10535E+02  3.60049E+02 -1.74527E+03 -9.03706E+02  7.36681E+02 -2.54903E+03  3.68347E+03 -1.93360E+03
  3.71627E+03  1.12630E+02  4.91121E+03  2.44574E+03  1.68356E+03  4.65363E+03 -1.36381E+03  4.32415E+03
 -3.92185E+03  1.50444E+03 -3.72999E+03 -7.87272E+02 -1.99491E+03 -3.26065E+03  7.70829E+02 -2.17398E+03
  2.79309E+03 -1.26903E+03  2.02891E+03  1.15098E+03  6.12596E+02  2.50449E+03  5.85787E+01  2.35728E+03
 -1.12647E+03  1.60921E+03 -1.28905E+03  7.77147E+02 -4.86869E+02  5.49177E+02 -9.12775E+02  1.12150E+03
 -1.29814E+03  1.89366E+03 -3.22978E+03  1.20865E+03 -3.77164E+03  5.20576E+01 -5.14555E+03 -2.93822E+03
 -2.59944E+03 -5.38379E+03  1.08773E+03 -6.55972E+03  3.63308E+03 -5.51441E+03  6.20595E+03 -2.16912E+03
  5.64230E+03  1.02285E+03  3.24346E+03  3.77320E+03 -6.87947E+01  4.30210E+03 -1.77679E+03  3.39297E+03
 -2.69134E+03  1.23446E+03 -1.54250E+03 -6.78107E+02 -6.46112E+02  3.48222E+01 -7.20051E+02  1.02585E+02
 -1.38117E+03 -2.58057E+01 -1.65748E+03 -2.20687E+02 -5.56484E+01 -9.88207E+02 -4.79588E+02 -1.90079E+03
  2.33382E+03 -1.19802E+03  1.87898E+03  2.83879E+02  2.96480E+03  2.12776E+03  5.81731E+02  4.10239E+03
 -2.18371E+03  4.64233E+03 -4.26171E+03  2.89871E+03 -5.17848E+03 -3.69284E+02 -3.62186E+03 -3.43536E+03
 -1.40808E+03 -3.84429E+03  1.17915E+03 -3.47208E+03  2.32047E+03 -1.86739E+03  2.22890E+03  2.20370E+02
  1.30270E+03  1.26821E+03 -2.44791E+02  1.14605E+03 -1.05172E+03 -2.36445E+02  4.17447E+01 -8.67150E+02
  1.34241E+03 -1.73097E+02  1.52454E+03  5.20950E+02  8.77047E+02  1.51786E+03  1.23878E+02  1.70003E+03
 -1.63167E+03  1.73458E+03 -2.21124E+03  3.01400E+02 -2.48345E+03 -1.63437E+03 -1.71895E+02 -3.07210E+03
  1.33708E+03 -2.70935E+03  2.58091E+03 -2.81806E+02  2.81252E+03  2.08920E+02  1.62587E+03  2.01996E+03
  5.43387E+02  2.03055E+03 -8.22496E+02  2.00224E+03 -1.54338E+03  1.40343E+03 -1.36790E+03  1.85785E+02
 -5.00704E+02  8.69306E+00 -7.86083E+02  1.02473E+02 -1.25789E+03  4.16141E+02 -1.95427E+03 -4.31506E+02
 -1.99220E+03 -5.77407E+02 -6.91512E+02 -2.33963E+03  1.09377E+03 -3.20293E+03  2.38870E+03 -1.10377E+03
  2.08141E+03  1.44326E+02  3.97047E+02  1.61115E+03 -2.76075E+02  2.14964E+03 -1.45947E+03  1.82494E+03
