 $NMID ID='MM_0lb_SNR800_20hz_g40_4.RAW', FMTDAT='(8E13.5)'
 TRAMP=1., VOLUME=1. $END
  3.09832E+05  2.93250E+01  3.37206E+05  2.50551E+05  8.40827E+04  3.36809E+05 -1.32061E+05  2.49955E+05
 -1.89325E+05  8.17833E+04 -1.10580E+05 -3.28841E+04  1.52207E+03 -5.04004E+04  5.39280E+04  2.58254E+02
  3.51268E+04  5.28954E+04 -1.71083E+04  7.44491E+04 -6.00824E+04  6.22461E+04 -8.23064E+04  3.12279E+04
 -7.91896E+04 -1.10702E+04 -5.58888E+04 -4.96640E+04 -1.52946E+04 -6.73755E+04  2.64431E+04 -4.42684E+04
  3.83451E+04  4.07940E+03  1.50798E+04  4.63907E+04 -3.37294E+04  4.56432E+04 -6.46192E+04 -6.44146E+02
 -5.10884E+04 -5.52556E+04 -5.69800E+03 -7.40449E+04  3.26723E+04 -5.21311E+04  4.52091E+04 -1.58746E+04
  4.05786E+04  1.11275E+04  2.99448E+04  2.38101E+04  1.54542E+04  2.78298E+04 -4.12459E+03  2.66491E+04
 -2.12956E+04  1.29560E+04 -1.93298E+04 -3.88395E+03  3.54017E+03 -7.64655E+03  2.06373E+04  1.01903E+04
  7.35092E+03  3.22407E+04 -2.96426E+04  3.31636E+04 -5.98209E+04  2.16137E+03 -5.45625E+04 -4.05670E+04
 -1.22971E+04 -5.97167E+04  3.73025E+04 -4.23769E+04  5.39431E+04 -1.80710E+03  3.03689E+04  2.95525E+04
 -6.72302E+03  3.14820E+04 -2.77202E+04  1.16678E+04 -2.64682E+04 -5.76966E+03 -1.32327E+04 -9.81528E+03
 -7.07887E+03 -1.04746E+04 -1.04115E+03 -1.56854E+04  6.24291E+03 -2.24034E+04  1.48349E+04 -1.44598E+04
  1.25629E+04  3.61069E+03 -5.13168E+03  1.30773E+04 -1.84281E+04 -1.69932E+03 -7.91199E+03 -2.85844E+04
  1.97517E+04 -3.90431E+04  4.29986E+04 -1.80713E+04  4.04033E+04  1.75447E+04  1.35740E+04  4.03275E+04
 -1.50966E+04  2.97568E+04 -2.21842E+04  8.48339E+02 -7.45101E+03 -2.54832E+04  2.03892E+04 -3.00671E+04
  3.64996E+04 -6.56398E+03  2.95366E+04  2.21618E+04  1.40584E+04  4.06830E+04 -7.51739E+03  4.27350E+04
 -2.70276E+04  2.80559E+04 -3.51704E+04  7.51935E+03 -3.61520E+04 -1.43666E+04 -2.02606E+04 -3.28641E+04
  6.55945E+03 -3.25809E+04  2.79133E+04 -1.18342E+04  2.58680E+04  1.07165E+04  2.45879E+03  1.70427E+04
 -1.30383E+04  6.53947E+03 -9.25804E+03 -7.73164E+03  5.88876E+03 -9.52857E+03  1.69285E+04  6.60484E+03
  1.16457E+04  2.14448E+04 -6.95508E+03  2.24767E+04 -2.10303E+04  7.84374E+03 -2.38615E+04 -7.01499E+03
 -1.50026E+04 -1.62112E+04 -4.45417E+03 -1.50804E+04  3.38100E+03 -1.25803E+04  1.08629E+04 -1.27524E+04
  1.91180E+04 -1.11460E+04  2.62129E+04  1.75916E+02  2.01741E+04  1.48322E+04  3.87935E+03  3.07566E+04
 -1.52672E+04  2.62584E+04 -2.49484E+04  8.92786E+03 -1.91068E+04 -1.03251E+04 -3.79648E+03 -1.40438E+04
  3.11285E+03 -4.89345E+03 -1.73354E+03  4.71827E+03 -1.13021E+04  5.39582E+03 -1.20580E+04 -4.09212E+03
 -7.82666E+03 -1.40241E+04  4.24333E+03 -1.75704E+04  1.14054E+04 -1.29473E+04  1.28754E+04 -9.80217E+02
  7.55010E+03  9.90394E+03 -7.63469E+02  1.41124E+04 -9.11760E+03  7.97938E+03 -1.41158E+04 -3.17228E+03
 -1.05202E+04 -1.25355E+04 -1.28332E+03 -1.72913E+04  7.90184E+03 -1.41842E+04  1.49069E+04 -6.31512E+03
  1.32978E+04  9.06961E+02  9.43836E+03  3.70263E+03  4.61523E+03  1.68928E+02  6.59146E+03 -1.25568E+03
  1.22779E+04  2.83957E+03  1.28998E+04  1.15522E+04  7.58507E+03  2.26035E+04 -3.22685E+03  2.35287E+04
 -1.42352E+04  1.75795E+04 -2.13205E+04  8.01197E+03 -2.15245E+04 -1.46046E+03 -1.88981E+04 -1.23082E+04
 -9.44961E+03 -1.73825E+04  5.83631E+03 -1.67803E+04  1.44641E+04 -9.93159E+03  1.41623E+04  3.15723E+03
  6.29866E+03  9.82067E+03 -6.33367E+03  9.51695E+03 -1.22687E+04  2.50866E+03 -9.73966E+03 -6.91349E+03
  8.98647E+01 -1.13019E+04  5.70634E+03 -8.69781E+03  7.27405E+03 -1.10959E+03  1.14544E+03  4.51031E+03
 -5.18489E+03  8.81880E+02 -2.64070E+03 -4.49474E+03  1.26926E+03 -9.06966E+03  7.23796E+03 -8.52905E+03
  1.07891E+04 -3.61106E+03  9.90006E+03  2.73477E+03  8.49157E+03  8.30331E+03  4.08408E+03  1.15553E+04
 -1.05426E+03  1.36338E+04 -8.06591E+03  8.34933E+03 -9.56244E+03  2.75386E+03 -7.38719E+03 -1.25402E+03
 -4.21661E+03 -2.60376E+03 -1.03898E+03  1.75495E+03 -1.92948E+03  1.59598E+03 -3.21144E+03  3.29596E+03
 -6.97402E+03  4.67096E+01 -7.47510E+03 -6.48221E+03 -3.13349E+03 -1.03877E+04  3.12812E+03 -7.10303E+03
  6.26145E+03 -3.55463E+03  4.64727E+03  1.74264E+03  6.27652E+02  2.81934E+03 -2.84948E+03  3.97919E+00
 -2.54907E+03 -4.51727E+03 -5.99465E+02 -6.17021E+03  3.12921E+03 -6.75042E+03  8.33698E+03 -3.29802E+03
  1.02409E+04  5.04692E+02  7.54004E+03  5.19659E+03  1.58806E+03  7.16851E+03 -4.41125E+03  7.26110E+03
 -6.31743E+03  2.42298E+03 -2.90592E+03 -1.04494E+03  1.22704E+03 -1.45037E+03  4.27637E+03 -1.22165E+03
  3.31137E+03  2.87927E+03  9.15839E+02  5.59023E+03 -3.67925E+03  5.58129E+03 -6.79952E+03  1.58495E+03
 -4.45392E+03 -3.09883E+03  3.01119E+02 -5.73048E+03  2.90828E+03 -2.68429E+03  2.96570E+03  4.79597E+02
  2.15876E+02  2.39002E+03 -3.57295E+03  3.64182E+03 -3.84054E+03  1.83949E+03 -3.11551E+03 -6.99351E+02
 -2.18584E+03 -4.48203E+03  7.81637E+02 -5.60259E+03  4.63515E+03 -3.64576E+03  5.17185E+03  7.40015E+02
  3.94036E+03  4.31604E+03  1.70400E+02  6.31410E+03 -4.33036E+03  3.50812E+03 -4.28726E+03 -3.89059E+02
 -4.83552E+03 -4.25677E+03 -1.32497E+03 -4.16729E+03  2.17720E+03 -4.00962E+03  2.22481E+03 -3.03003E+03
  2.26678E+03 -8.78278E+01  2.81696E+02  1.20585E+03  8.56114E+02 -6.60803E+01 -5.24386E+02 -1.13367E+03
  2.71849E+03 -1.42841E+02  4.01308E+03  4.79274E+02  4.73897E+03  2.08333E+03  4.97555E+03  5.58298E+03
 -9.41945E+02  7.14789E+03 -6.33342E+03  5.24931E+03 -8.22231E+03  1.05999E+03 -6.30193E+03 -1.80503E+03
 -3.60032E+03 -5.45043E+03 -2.53059E+02 -4.19129E+03  1.86309E+03 -1.32127E+03  1.39275E+03 -1.71775E+03
  1.07957E+03 -1.34983E+03  1.95659E+03 -2.26569E+03  3.12834E+03 -7.56224E+02  3.02676E+03  8.42019E+02
  3.73742E+03  8.98917E+02  4.54156E+02  2.91410E+03 -1.51690E+03  1.79364E+03 -3.89867E+03  1.86129E+03
 -4.02586E+03 -1.08115E+03 -1.13004E+03 -2.67661E+03  5.55942E+02 -3.93357E+03  2.60686E+03 -4.42000E+03
  3.88895E+03 -2.73949E+03  5.55250E+03  2.01824E+01  4.05222E+03  3.15602E+03  1.07047E+03  4.68266E+03
 -1.62567E+03  5.11573E+03 -2.52189E+03  1.74304E+03 -1.39425E+03 -9.73784E+02 -3.40003E+02 -3.72367E+02
 -3.80731E+02  3.21060E+02 -1.14107E+03  2.03508E+03 -2.42852E+03  6.38705E+02 -3.61793E+03 -2.23624E+02
 -9.10696E+02 -3.45444E+03  8.82879E+02 -3.39824E+03  2.19909E+03 -3.32513E+03  2.68120E+03 -7.06897E+02
  3.25387E+03  2.16094E+03  1.61800E+03  2.22778E+03 -7.82959E+02  3.64025E+03 -1.85836E+03  2.09286E+03
 -2.83269E+03  5.56713E+02 -2.88674E+03 -1.84877E+03 -3.43636E+01 -2.40641E+03  9.96149E+02 -1.99728E+03
  2.21685E+03 -1.32669E+03  1.22053E+03  2.80732E+02  2.69109E+02  1.34062E+03  9.67126E+02  4.62479E+02
  1.73239E+03  5.01751E+02  9.89345E+02  1.05227E+03  1.00340E+03  1.94446E+03  1.29033E+03  1.19910E+03
 -1.21316E+03  2.32658E+03 -1.77602E+03  3.52745E+03 -2.09502E+03  1.15028E+03 -3.19621E+03  1.43230E+02
 -1.06622E+03 -2.76193E+03  3.67614E+02 -3.78109E+03  1.24703E+03 -2.00231E+03  2.43463E+03 -8.35174E+02
  1.86024E+03  1.33458E+03  1.94177E+02  1.85405E+03 -3.27876E+02  1.04086E+03 -7.91312E+02 -1.07727E+02
 -5.58394E+02 -9.28649E+02  7.44416E+02 -1.17050E+03  1.05518E+03 -7.66372E+02  1.01863E+03  1.82640E+02
  3.47637E+02  4.12909E+01  7.54589E+02 -4.00225E+02 -4.94515E+02  7.04696E+02  1.47888E+03 -2.96247E+02
 -2.33936E+02 -1.75613E+02  1.35000E+03  3.93081E+02 -2.08480E+02  1.93433E+03 -2.73306E+02  2.22008E+03
 -1.39488E+03  5.46673E+02 -1.52213E+03  3.83459E+02 -1.56865E+03 -5.70109E+02 -5.90479E+01 -4.54159E+02
  2.11059E+02 -8.61867E+02  7.17750E+02 -4.14931E+02  7.11570E+02  9.77497E+02 -5.31894E+02  1.03369E+03
 -1.35823E+03  7.26427E+02 -6.46383E+02 -1.15148E+03 -4.89424E+02 -1.64438E+03  1.10537E+02 -1.08374E+03
  1.98793E+02 -3.94837E+02  4.18660E+02  3.03247E+02  1.09516E+03 -1.20138E+02  3.43166E+02  8.57470E+02
 -3.62159E+01 -5.83939E+01 -6.68571E+02  8.12968E+01  5.20441E+02 -6.20991E+02  1.39887E+03 -6.47178E+02
  1.02237E+03  9.58371E+01  2.41938E+03  4.12674E+01  1.24660E+03  1.20017E+03 -2.60314E+02  1.32720E+03
 -1.16722E+03  1.99879E+02 -7.52174E+02  1.14537E+02 -6.16889E+02 -1.28472E+03  1.03712E+01 -2.30542E+02
  1.09618E+03 -3.10942E+02  4.19800E+02  6.01408E+02  2.93734E+02  1.15466E+03  7.36188E+02  1.00061E+03
 -2.98189E+02  9.21334E+02 -2.58618E+01  8.98738E+01  1.49940E+02  2.63609E+02 -6.63246E+02  4.57801E+02
 -1.02843E+03  8.00761E+02 -1.63492E+03  3.14690E+02 -1.38352E+03  1.30292E+02 -1.77813E+03 -7.15931E+02
 -8.55731E+02 -1.66787E+03  4.26521E+02 -2.25780E+03  4.51574E+02 -1.70843E+03  2.19631E+03 -1.07294E+03
  1.74313E+03 -3.22732E+02  1.07013E+03  1.00192E+03 -5.64925E+02  8.01424E+02 -2.47003E+02  8.34164E+02
 -7.66135E+02  8.55664E+02 -5.43178E+02 -1.36465E+01 -3.93403E+02  3.34023E+02 -4.18137E+02 -2.16132E+00
 -1.04586E+03  2.90781E+02 -7.73140E+02  1.12956E+02  6.18295E+02 -5.55726E+02 -5.42300E+02 -7.14590E+02
  1.07958E+03 -5.17713E+02  2.22142E+02  1.48614E+02  7.80820E+02  8.35547E+02 -5.97490E+02  1.09205E+03
 -8.49850E+02  1.66646E+03 -1.23713E+03  1.01057E+03 -1.37449E+03 -6.35019E+01 -9.17447E+02 -1.24619E+03
 -8.22081E+02 -8.24476E+02  5.81747E+01 -8.45621E+02  3.14047E+02 -4.21984E+02  1.90310E+02  8.87287E+01
  4.05365E+02  1.25729E+02  2.87810E+02  2.01719E+02 -3.68771E+02  2.34957E+02 -9.00262E+01 -3.57895E+02
  2.81140E+02  2.98907E+02  3.26453E+02  2.83345E+02 -2.26205E+02  2.70510E+02  3.65291E+02  1.39081E+02
 -5.14588E+02  4.54284E+02 -3.99528E+02  5.21507E+01 -3.32794E+02 -1.04021E+02 -8.96486E+01 -1.03372E+03
  2.78576E+02 -4.82663E+02  3.02350E+02 -1.35297E+02  4.88057E+02 -5.44676E+02  3.77015E+02  7.27235E+02
  5.21117E+02  2.33916E+02 -3.11757E+02  2.94712E+02 -3.91231E+02  5.90795E+02 -2.31005E+02  7.05014E+01
  6.58481E+01  3.50537E+01 -6.20282E+02  1.62487E+02 -6.08188E+02 -9.61556E+01 -6.65128E+02 -3.67284E+02
 -8.11757E+02  4.27287E+02 -2.62554E+02 -6.44256E+02  6.14660E+02 -1.44877E+03  1.98623E+02 -1.44191E+02
  6.73263E+02  9.40935E+01 -1.52014E+02  8.11847E+01  5.28690E+01  3.93478E+02 -3.13469E+02  6.31432E+02
