 $NMID ID='MM_0lb_SNR800_16hz_g40_23.RAW', FMTDAT='(8E13.5)'
 TRAMP=1., VOLUME=1. $END
  3.09732E+05  4.50471E+02  3.37570E+05  2.50159E+05  8.45555E+04  3.37498E+05 -1.32319E+05  2.50670E+05
 -1.89934E+05  8.27432E+04 -1.11037E+05 -3.25060E+04  1.35548E+03 -5.03007E+04  5.41686E+04  4.10433E+02
  3.49871E+04  5.28923E+04 -1.68599E+04  7.48185E+04 -6.07145E+04  6.28028E+04 -8.34575E+04  3.17542E+04
 -7.98256E+04 -1.10864E+04 -5.63333E+04 -5.04345E+04 -1.50479E+04 -6.84840E+04  2.69250E+04 -4.50100E+04
  3.96357E+04  3.81211E+03  1.54985E+04  4.72840E+04 -3.42447E+04  4.64180E+04 -6.56516E+04 -3.44078E+02
 -5.24786E+04 -5.60548E+04 -6.14224E+03 -7.56434E+04  3.33526E+04 -5.39072E+04  4.69116E+04 -1.65928E+04
  4.22987E+04  1.12523E+04  3.11944E+04  2.49631E+04  1.59589E+04  2.86478E+04 -4.68420E+03  2.70129E+04
 -2.17087E+04  1.27219E+04 -1.91826E+04 -4.50929E+03  4.95146E+03 -7.34540E+03  2.15070E+04  1.13808E+04
  7.48350E+03  3.38205E+04 -3.07805E+04  3.43994E+04 -6.17643E+04  2.23037E+03 -5.60351E+04 -4.17526E+04
 -1.21280E+04 -6.13809E+04  3.85796E+04 -4.41898E+04  5.64465E+04 -1.98619E+03  3.23632E+04  3.13590E+04
 -6.46515E+03  3.39670E+04 -2.87602E+04  1.40986E+04 -2.85182E+04 -5.16699E+03 -1.50470E+04 -1.07022E+04
 -7.56496E+03 -1.20123E+04 -1.08878E+03 -1.67047E+04  6.91699E+03 -2.27813E+04  1.49703E+04 -1.33223E+04
  1.19293E+04  4.63936E+03 -6.79593E+03  1.31262E+04 -2.00473E+04 -3.10141E+03 -7.80646E+03 -3.15421E+04
  2.13406E+04 -4.12883E+04  4.57343E+04 -1.88597E+04  4.27717E+04  1.88143E+04  1.47251E+04  4.27701E+04
 -1.55577E+04  3.18564E+04 -2.40338E+04  1.17044E+03 -8.78767E+03 -2.69673E+04  2.02973E+04 -3.20854E+04
  3.90841E+04 -7.76140E+03  3.29683E+04  2.30350E+04  1.60183E+04  4.37245E+04 -7.97721E+03  4.68879E+04
 -2.96501E+04  3.09068E+04 -3.89881E+04  8.63643E+03 -3.99579E+04 -1.53852E+04 -2.19545E+04 -3.56869E+04
  7.22606E+03 -3.53157E+04  2.98912E+04 -1.32157E+04  2.75326E+04  1.09609E+04  3.23695E+03  1.86456E+04
 -1.29757E+04  7.88941E+03 -9.70355E+03 -7.52262E+03  5.80092E+03 -1.02085E+04  1.73974E+04  6.40975E+03
  1.26991E+04  2.16312E+04 -6.34808E+03  2.43427E+04 -2.16083E+04  1.02218E+04 -2.63455E+04 -5.85150E+03
 -1.80239E+04 -1.67030E+04 -6.44558E+03 -1.79832E+04  3.88157E+03 -1.63051E+04  1.36601E+04 -1.57163E+04
  2.29252E+04 -1.18781E+04  2.94693E+04  1.52821E+03  2.22669E+04  1.76266E+04  4.10737E+03  3.41392E+04
 -1.68542E+04  2.82288E+04 -2.66298E+04  9.74633E+03 -2.01449E+04 -1.02998E+04 -4.06690E+03 -1.39687E+04
  2.34436E+03 -3.67672E+03 -3.52479E+03  5.61075E+03 -1.42597E+04  5.12555E+03 -1.46708E+04 -5.86025E+03
 -9.00954E+03 -1.67124E+04  4.70390E+03 -2.06987E+04  1.33720E+04 -1.48714E+04  1.59485E+04 -1.22179E+03
  9.63948E+03  1.20618E+04 -1.03034E+03  1.68487E+04 -1.14810E+04  9.54430E+03 -1.68263E+04 -3.73321E+03
 -1.23849E+04 -1.52131E+04 -1.43761E+03 -2.01887E+04  9.30269E+03 -1.66078E+04  1.72072E+04 -7.88908E+03
  1.56726E+04  5.07164E+02  1.13141E+04  4.06269E+03  5.53194E+03  8.83999E+02  8.19191E+03 -1.36590E+03
  1.49059E+04  2.80784E+03  1.63292E+04  1.34365E+04  1.03905E+04  2.69104E+04 -3.23617E+03  2.89004E+04
 -1.73332E+04  2.26219E+04 -2.69989E+04  1.09767E+04 -2.78840E+04 -2.14095E+03 -2.35561E+04 -1.62171E+04
 -1.04593E+04 -2.30751E+04  7.76006E+03 -2.12524E+04  1.82466E+04 -1.15032E+04  1.68567E+04  4.29556E+03
  6.84309E+03  1.24132E+04 -7.69868E+03  1.13157E+04 -1.44872E+04  2.74220E+03 -1.12833E+04 -9.02170E+03
 -7.65983E+01 -1.37551E+04  6.91797E+03 -1.02839E+04  8.73230E+03 -1.37692E+03  2.09868E+03  5.72358E+03
 -6.11198E+03  1.81095E+03 -4.58204E+03 -4.73950E+03  1.15390E+02 -1.14441E+04  8.46937E+03 -1.14370E+04
  1.40545E+04 -5.60031E+03  1.40799E+04  3.05620E+03  1.22802E+04  1.08301E+04  5.94935E+03  1.64565E+04
 -2.41911E+03  1.80186E+04 -1.14462E+04  1.18298E+04 -1.31467E+04  3.06745E+03 -9.55966E+03 -2.58050E+03
 -4.90007E+03 -3.80303E+03 -7.87778E+02  1.35398E+03 -2.17014E+03  2.07342E+03 -3.96744E+03  3.83887E+03
 -9.03210E+03 -5.19076E+02 -9.65600E+03 -7.79289E+03 -3.81701E+03 -1.26721E+04  3.97951E+03 -9.64087E+03
  8.37264E+03 -4.05240E+03  5.92149E+03  2.48320E+03  4.75154E+02  3.38714E+03 -3.96598E+03 -2.32557E+02
 -3.79886E+03 -5.80617E+03 -6.38482E+02 -8.50969E+03  4.65788E+03 -9.03717E+03  1.09275E+04 -4.91149E+03
  1.33932E+04  1.08919E+03  1.02995E+04  7.66497E+03  1.91008E+03  1.01426E+04 -5.80970E+03  9.22853E+03
 -7.82929E+03  3.38377E+03 -4.14113E+03 -1.51296E+03  1.47976E+03 -2.11679E+03  5.39789E+03 -1.00325E+03
  4.61463E+03  3.84858E+03  8.49093E+02  7.37821E+03 -5.24073E+03  7.20706E+03 -8.90905E+03  2.03506E+03
 -5.76898E+03 -4.27205E+03  1.94805E+02 -7.60675E+03  4.44383E+03 -3.71679E+03  4.36509E+03  1.38720E+03
  4.18307E+02  4.34423E+03 -4.65212E+03  5.56495E+03 -6.38044E+03  3.16652E+03 -6.12739E+03 -1.57306E+03
 -3.63412E+03 -7.51895E+03  1.58197E+03 -8.73470E+03  7.39914E+03 -5.47519E+03  7.81830E+03  9.61753E+02
  5.40680E+03  6.41039E+03 -2.75560E+02  8.44479E+03 -6.31818E+03  4.87839E+03 -6.51100E+03 -7.69610E+02
 -6.44196E+03 -6.00400E+03 -1.43987E+03 -5.94000E+03  2.93060E+03 -5.51640E+03  3.78432E+03 -2.82240E+03
  2.93626E+03  5.64627E+02 -1.54848E+02  1.28681E+03  4.04454E+02 -5.68509E+02  3.22279E+02 -2.54456E+03
  5.08610E+03 -1.52979E+03  6.98775E+03  6.44498E+02  7.06321E+03  4.25915E+03  5.91476E+03  8.90048E+03
 -1.59595E+03  1.09771E+04 -9.46615E+03  8.22362E+03 -1.21758E+04  1.48393E+03 -9.76977E+03 -3.72833E+03
 -4.94870E+03 -8.25055E+03 -1.75605E+02 -6.40734E+03  2.35927E+03 -2.70224E+03  2.10431E+03 -2.35340E+03
  1.81290E+03 -1.77949E+03  2.47768E+03 -2.51930E+03  4.09219E+03 -1.61764E+03  4.30620E+03  8.94235E+01
  5.53932E+03  1.48329E+03  1.78856E+03  4.00781E+03 -1.69856E+03  3.91845E+03 -5.27669E+03  3.26123E+03
 -6.71442E+03 -1.01705E+03 -2.97958E+03 -4.51041E+03  2.20030E+02 -6.57605E+03  3.83017E+03 -6.88907E+03
  6.73926E+03 -4.00423E+03  8.54380E+03  5.81824E+02  6.10538E+03  5.49203E+03  1.51184E+03  7.25908E+03
 -2.83761E+03  6.86430E+03 -4.29444E+03  2.13953E+03 -2.57766E+03 -1.19015E+03 -9.72426E+02 -5.16579E+02
 -4.28867E+02  3.18844E+02 -1.23901E+03  1.75701E+03 -3.07332E+03  1.24970E+03 -4.90073E+03 -5.18505E+02
 -2.33001E+03 -4.77232E+03  6.99296E+02 -5.96466E+03  3.60802E+03 -5.64692E+03  5.12388E+03 -1.62348E+03
  5.40347E+03  3.17554E+03  2.64493E+03  4.58996E+03 -1.19895E+03  5.83981E+03 -3.72729E+03  3.83640E+03
 -5.15592E+03  6.86827E+02 -4.18317E+03 -3.71201E+03 -2.18250E+02 -4.76385E+03  2.18816E+03 -3.55965E+03
  3.84947E+03 -1.38436E+03  2.30241E+03  8.75745E+02  1.03609E+03  2.04228E+03  8.50789E+02  5.21809E+02
  1.95386E+03  8.35764E+02  1.62164E+03  1.11810E+03  1.44426E+03  2.83547E+03  1.93510E+03  2.80829E+03
 -1.52859E+03  4.03824E+03 -3.58216E+03  5.04297E+03 -4.86048E+03  1.61913E+03 -5.74202E+03 -1.21756E+03
 -2.59841E+03 -5.43925E+03  1.01120E+03 -6.18739E+03  2.75630E+03 -3.76061E+03  4.22752E+03 -1.29659E+03
  3.34391E+03  1.97348E+03  7.28683E+02  3.36215E+03 -1.09159E+03  1.88331E+03 -1.78710E+03 -3.96469E+01
 -1.03843E+03 -2.17979E+03  1.73528E+03 -2.22502E+03  2.05284E+03 -1.48622E+03  2.14530E+03  2.32914E+02
  1.47909E+03  5.56067E+02  8.48694E+02  1.54030E+02 -5.28278E+02  9.47037E+02  1.30968E+03 -4.74861E+02
  4.47789E+02 -4.60335E+02  2.58306E+03  8.21236E+02  5.08507E+02  2.96239E+03 -5.24046E+02  4.21724E+03
 -2.17179E+03  2.01066E+03 -3.06016E+03  6.01599E+02 -2.70534E+03 -1.28923E+03 -7.20806E+02 -1.61742E+03
  5.15951E+02 -1.59727E+03  1.15157E+03 -1.10003E+03  8.42072E+02  1.48260E+03 -9.00612E+02  1.93491E+03
 -1.99409E+03  8.57927E+02 -1.84742E+03 -1.37160E+03 -1.25094E+03 -2.87753E+03  1.82144E+02 -2.64769E+03
  1.06489E+03 -1.13384E+03  1.41966E+03  5.77253E+01  1.82592E+03  1.71901E+02  5.94077E+02  1.73416E+03
 -9.01326E+02  3.61377E+02 -1.15781E+03 -7.55318E+02  5.82334E+02 -1.58099E+03  2.46583E+03 -1.54203E+03
  2.45255E+03  4.89178E+02  3.54617E+03  1.48364E+03  1.37916E+03  2.53958E+03 -7.76385E+02  2.75424E+03
 -2.34433E+03  1.05629E+03 -2.36912E+03 -4.07032E+02 -1.49868E+03 -1.96617E+03  1.40635E+02 -1.44052E+03
  2.21404E+03 -1.39568E+03  1.49072E+03  9.03394E+02  2.78636E+02  1.71398E+03  6.06456E+01  1.76655E+03
 -7.70159E+02  1.38892E+03 -5.00064E+02  3.29311E+02  1.03247E+02  3.28453E+02 -7.63473E+02  7.99652E+02
 -8.53794E+02  1.16274E+03 -2.57595E+03  7.44850E+02 -2.52809E+03  3.64865E+02 -3.53825E+03 -1.89282E+03
 -1.50389E+03 -3.68095E+03  8.71253E+02 -4.15204E+03  2.26578E+03 -3.90490E+03  4.42752E+03 -1.35979E+03
  3.24134E+03  2.34228E+02  2.00174E+03  2.69828E+03 -4.21192E+02  2.58252E+03 -1.23934E+03  2.11678E+03
 -1.37890E+03  1.03093E+03 -8.19183E+02 -2.79437E+02 -7.13489E+02 -4.88063E+01 -8.70480E+02  1.77864E+01
 -1.09410E+03 -2.23115E+02 -1.11006E+03  3.02314E+02  3.48523E+02 -6.60878E+02 -2.87516E+02 -1.11637E+03
  1.75867E+03 -8.23896E+02  1.26927E+03  5.20822E+00  1.71186E+03  1.65098E+03 -2.69499E+01  2.49715E+03
 -1.48724E+03  3.25852E+03 -2.76798E+03  2.11258E+03 -2.91103E+03 -2.23877E+02 -2.09690E+03 -2.08202E+03
 -1.27266E+03 -2.28640E+03  2.66207E+02 -2.06750E+03  1.18399E+03 -1.20082E+03  1.43329E+03  3.12212E+02
  8.31623E+02  6.19420E+02 -1.05307E+02  5.75844E+02 -5.05718E+02  1.58630E+02  4.71044E+00 -4.93773E+02
  7.02752E+02  1.28228E+02  7.26735E+02  4.58812E+02  3.06885E+02  1.06591E+03  3.20148E+02  1.30087E+03
 -1.20253E+03  1.17819E+03 -1.26056E+03 -1.13519E+02 -1.77888E+03 -8.99242E+02 -1.18966E+02 -2.10690E+03
  1.13453E+03 -1.44554E+03  1.31724E+03  8.69383E+01  1.57806E+03 -4.88849E+02  1.06137E+03  1.17747E+03
  4.18025E+02  1.31129E+03 -4.28969E+02  9.97361E+02 -1.01677E+03  8.45428E+02 -6.79869E+02 -5.77652E+00
 -3.80390E+02 -1.50932E+02 -7.23666E+02  3.69216E+02 -9.93818E+02  2.71749E+02 -1.47054E+03 -4.21472E+02
 -1.43554E+03 -1.43643E+02 -4.03150E+02 -1.74992E+03  9.58699E+02 -2.08887E+03  1.05506E+03 -4.47644E+02
  1.61320E+03 -1.87337E+01  1.18397E+02  5.18281E+02 -6.51706E+01  1.44882E+03 -8.52756E+02  8.55791E+02
