 $NMID ID='MM_0lb_SNR800_18hz_g40_73.RAW', FMTDAT='(8E13.5)'
 TRAMP=1., VOLUME=1. $END
  3.09919E+05  1.98750E+02  3.37026E+05  2.50269E+05  8.46113E+04  3.37362E+05 -1.32434E+05  2.49936E+05
 -1.89495E+05  8.23266E+04 -1.10779E+05 -3.28889E+04  1.60684E+03 -4.98799E+04  5.41008E+04  5.62711E+02
  3.48910E+04  5.28552E+04 -1.67843E+04  7.47614E+04 -6.02515E+04  6.27059E+04 -8.25654E+04  3.11359E+04
 -7.94476E+04 -1.10457E+04 -5.63907E+04 -5.02609E+04 -1.50706E+04 -6.78588E+04  2.67877E+04 -4.47196E+04
  3.88714E+04  4.07491E+03  1.52749E+04  4.70277E+04 -3.40618E+04  4.58911E+04 -6.51006E+04 -5.32643E+02
 -5.17885E+04 -5.54550E+04 -6.30721E+03 -7.50629E+04  3.28579E+04 -5.29122E+04  4.58841E+04 -1.61748E+04
  4.11888E+04  1.10474E+04  3.05572E+04  2.41764E+04  1.59271E+04  2.82196E+04 -4.33097E+03  2.67449E+04
 -2.16251E+04  1.29619E+04 -1.89889E+04 -4.14398E+03  4.17801E+03 -7.40205E+03  2.13465E+04  1.10195E+04
  7.29527E+03  3.28944E+04 -3.00625E+04  3.37513E+04 -6.10304E+04  2.35450E+03 -5.49875E+04 -4.08889E+04
 -1.25412E+04 -6.07140E+04  3.79248E+04 -4.28451E+04  5.51230E+04 -1.89240E+03  3.16517E+04  3.04058E+04
 -6.52790E+03  3.29453E+04 -2.81172E+04  1.33168E+04 -2.74501E+04 -5.61142E+03 -1.43794E+04 -9.82342E+03
 -7.01939E+03 -1.11769E+04 -1.08026E+03 -1.61306E+04  6.45120E+03 -2.26573E+04  1.50837E+04 -1.40826E+04
  1.23458E+04  4.43729E+03 -6.18856E+03  1.29769E+04 -1.89643E+04 -2.48796E+03 -8.04748E+03 -3.01799E+04
  2.06278E+04 -4.02306E+04  4.43140E+04 -1.84748E+04  4.18445E+04  1.79648E+04  1.40262E+04  4.15355E+04
 -1.50792E+04  3.07255E+04 -2.32092E+04  9.96315E+02 -7.90137E+03 -2.63618E+04  2.02523E+04 -3.08888E+04
  3.76030E+04 -7.05072E+03  3.10989E+04  2.24762E+04  1.49591E+04  4.21852E+04 -7.96936E+03  4.47775E+04
 -2.82309E+04  2.94597E+04 -3.68934E+04  8.19636E+03 -3.78666E+04 -1.46508E+04 -2.09090E+04 -3.43799E+04
  7.03305E+03 -3.38158E+04  2.90503E+04 -1.26197E+04  2.67238E+04  1.06574E+04  2.78074E+03  1.75835E+04
 -1.29449E+04  7.16473E+03 -9.81922E+03 -7.42877E+03  5.96474E+03 -9.97602E+03  1.72738E+04  6.59363E+03
  1.21278E+04  2.14711E+04 -6.64641E+03  2.30522E+04 -2.12517E+04  9.09445E+03 -2.48524E+04 -6.58989E+03
 -1.62324E+04 -1.59423E+04 -5.34101E+03 -1.62160E+04  3.69797E+03 -1.43014E+04  1.21844E+04 -1.43442E+04
  2.08794E+04 -1.15688E+04  2.78515E+04  9.31659E+02  2.07124E+04  1.62111E+04  4.03632E+03  3.21478E+04
 -1.61957E+04  2.72618E+04 -2.56965E+04  9.26162E+03 -1.95764E+04 -1.04754E+04 -3.88166E+03 -1.38150E+04
  2.88939E+03 -4.23473E+03 -2.36821E+03  5.09711E+03 -1.29252E+04  5.11880E+03 -1.34089E+04 -4.94439E+03
 -8.60935E+03 -1.54050E+04  4.86675E+03 -1.92400E+04  1.24178E+04 -1.38648E+04  1.45235E+04 -1.68723E+03
  8.82220E+03  1.05925E+04 -6.33565E+02  1.54895E+04 -1.02097E+04  8.71061E+03 -1.50801E+04 -3.20208E+03
 -1.14727E+04 -1.40919E+04 -1.41015E+03 -1.86471E+04  8.56369E+03 -1.52148E+04  1.58491E+04 -7.24765E+03
  1.44873E+04  3.13363E+02  1.02074E+04  3.69152E+03  5.09722E+03  5.78511E+02  7.53894E+03 -1.35919E+03
  1.36885E+04  2.56131E+03  1.41825E+04  1.26819E+04  9.20793E+03  2.45322E+04 -3.26204E+03  2.62303E+04
 -1.55508E+04  2.01168E+04 -2.42084E+04  9.43796E+03 -2.46482E+04 -1.48087E+03 -2.10302E+04 -1.40816E+04
 -1.01186E+04 -2.02137E+04  6.72739E+03 -1.89802E+04  1.64503E+04 -1.09381E+04  1.53905E+04  3.65225E+03
  6.48610E+03  1.10954E+04 -7.02568E+03  1.04473E+04 -1.30129E+04  2.68189E+03 -1.02202E+04 -7.89256E+03
 -1.45868E+01 -1.24836E+04  6.04287E+03 -9.48434E+03  7.80759E+03 -1.36741E+03  1.20534E+03  4.85837E+03
 -5.48252E+03  1.27278E+03 -3.32635E+03 -4.64070E+03  7.43324E+02 -1.02714E+04  7.81919E+03 -9.80018E+03
  1.22739E+04 -4.76501E+03  1.17406E+04  2.61162E+03  1.00914E+04  9.39593E+03  4.88751E+03  1.39171E+04
 -1.42621E+03  1.58951E+04 -9.62092E+03  1.00731E+04 -1.09781E+04  2.78140E+03 -8.46197E+03 -2.03893E+03
 -4.53565E+03 -3.42820E+03 -8.31533E+02  1.66127E+03 -1.95049E+03  2.03902E+03 -3.64304E+03  3.68445E+03
 -7.92712E+03 -1.52977E+02 -8.51822E+03 -7.04818E+03 -2.90347E+03 -1.16118E+04  3.49660E+03 -8.33954E+03
  6.84138E+03 -3.72991E+03  5.36839E+03  2.03712E+03  8.56729E+02  3.12280E+03 -3.38310E+03 -2.42936E+02
 -3.42862E+03 -5.04795E+03 -6.50723E+02 -7.28443E+03  3.97378E+03 -8.06268E+03  9.85236E+03 -4.03118E+03
  1.15949E+04  5.18146E+02  8.87135E+03  6.31341E+03  2.06645E+03  8.52306E+03 -5.35588E+03  8.29952E+03
 -6.85814E+03  2.86480E+03 -3.54863E+03 -1.21716E+03  1.32770E+03 -1.88587E+03  4.62806E+03 -1.00358E+03
  4.04202E+03  3.38125E+03  9.16694E+02  6.29797E+03 -4.48958E+03  6.51622E+03 -8.12769E+03  1.78819E+03
 -4.80547E+03 -3.34855E+03  3.73267E+02 -6.79657E+03  3.70435E+03 -3.20395E+03  3.76561E+03  1.13892E+03
  5.75844E+02  3.17647E+03 -4.10778E+03  4.96098E+03 -4.94049E+03  2.33778E+03 -4.46719E+03 -1.35091E+03
 -3.07830E+03 -6.12039E+03  1.14136E+03 -6.99906E+03  6.07007E+03 -4.67909E+03  6.58447E+03  8.48985E+02
  4.72192E+03  5.47827E+03  2.05853E+02  7.11522E+03 -5.05584E+03  3.85604E+03 -5.19819E+03 -2.88063E+02
 -5.92393E+03 -5.02924E+03 -1.29599E+03 -4.96093E+03  2.84085E+03 -4.72526E+03  2.96978E+03 -2.97371E+03
  2.77301E+03  3.56107E+02  4.70651E+01  1.30312E+03  4.71628E+02 -4.02040E+02  1.88033E+02 -1.90208E+03
  3.80887E+03 -6.55642E+02  5.28406E+03  8.53995E+02  5.41883E+03  3.16427E+03  5.29679E+03  7.07082E+03
 -1.33977E+03  8.62455E+03 -7.78799E+03  6.52347E+03 -1.00840E+04  1.26935E+03 -8.01960E+03 -2.58218E+03
 -4.46003E+03 -6.45725E+03 -3.12166E+02 -5.32460E+03  1.91959E+03 -2.07778E+03  1.72328E+03 -1.79318E+03
  1.40010E+03 -1.42751E+03  2.12128E+03 -2.29734E+03  3.54167E+03 -1.41643E+03  3.87208E+03  2.26170E+02
  4.63561E+03  1.19891E+03  1.37795E+03  3.61596E+03 -1.47442E+03  3.03672E+03 -4.57206E+03  2.82148E+03
 -4.73927E+03 -1.24885E+03 -1.71638E+03 -3.11617E+03  1.54835E+02 -5.07992E+03  3.48156E+03 -5.35843E+03
  4.88650E+03 -3.37132E+03  6.70884E+03  1.60480E+02  4.94403E+03  4.47350E+03  1.21207E+03  6.15446E+03
 -1.86484E+03  6.02454E+03 -3.57012E+03  1.87633E+03 -1.98556E+03 -1.20653E+03 -3.73350E+02 -6.21646E+02
 -3.94482E+02  7.04843E+02 -9.49308E+02  1.97190E+03 -2.67913E+03  1.17389E+03 -3.87165E+03 -1.96411E+02
 -1.64251E+03 -4.14970E+03  7.46488E+02 -4.60438E+03  2.83243E+03 -4.37134E+03  3.69210E+03 -1.10775E+03
  4.44130E+03  2.29440E+03  2.07810E+03  3.43248E+03 -7.55305E+02  4.44220E+03 -2.91029E+03  2.91531E+03
 -4.13018E+03  6.33596E+02 -3.41613E+03 -2.53418E+03 -3.51596E+02 -3.30933E+03  1.62666E+03 -2.60381E+03
  2.48148E+03 -1.27858E+03  1.88241E+03  4.50472E+02  4.83902E+02  1.73370E+03  7.98585E+02  5.28596E+02
  1.85845E+03  5.05823E+02  1.12992E+03  1.10194E+03  1.00960E+03  2.41183E+03  1.57582E+03  1.61251E+03
 -1.30943E+03  3.00380E+03 -2.80573E+03  4.17788E+03 -3.17234E+03  1.29715E+03 -4.16779E+03 -4.66754E+02
 -1.56482E+03 -3.96477E+03  7.87495E+02 -4.75737E+03  1.95862E+03 -2.81210E+03  3.34506E+03 -6.56919E+02
  2.66445E+03  1.84322E+03  5.09756E+02  2.22307E+03 -6.29257E+02  1.08168E+03 -1.38383E+03 -2.40139E+02
 -5.67278E+02 -1.82087E+03  1.08602E+03 -1.38919E+03  1.40536E+03 -1.38296E+03  1.65167E+03  1.88371E+02
  5.93839E+02  4.12106E+02  6.93970E+02 -9.18733E+01 -4.15453E+02  5.34927E+02  1.56768E+03 -3.01949E+02
 -1.40313E+02 -1.68203E+02  2.14111E+03  4.91511E+02  3.38941E+02  2.57033E+03 -3.02676E+02  3.11927E+03
 -1.97359E+03  1.17986E+03 -2.08227E+03  2.69386E+02 -2.40360E+03 -7.19915E+02 -1.39946E+02 -1.01228E+03
  5.40391E+02 -1.28927E+03  8.68777E+02 -7.90534E+02  6.78504E+02  1.49074E+03 -7.95488E+02  1.05120E+03
 -1.87241E+03  6.31562E+02 -8.58913E+02 -1.26470E+03 -1.01608E+03 -2.17271E+03  4.88471E+02 -1.61046E+03
  1.66697E+02 -7.23896E+02  9.93930E+02  9.74684E+01  1.32357E+03 -3.28023E+01  4.58515E+01  1.05764E+03
 -6.23072E+02 -3.92557E+01 -1.13902E+03 -4.66885E+01  7.25207E+02 -9.89221E+02  1.72324E+03 -9.18975E+02
  1.49746E+03  3.69396E+02  2.74972E+03  1.09503E+03  1.00118E+03  1.56678E+03 -3.86869E+02  2.04819E+03
 -1.69984E+03  3.75598E+02 -1.51528E+03 -2.88320E+01 -1.03224E+03 -1.40293E+03  3.54278E+02 -5.79774E+02
  1.29135E+03 -6.78761E+02  7.76292E+02  6.88432E+02  1.34683E+02  1.40718E+03  3.14106E+02  1.21123E+03
 -4.65556E+02  1.21020E+03 -4.48197E+02  9.72146E+01  1.92165E+01  3.16042E+02 -6.72101E+02  4.45091E+02
 -6.19505E+02  9.91386E+02 -1.86049E+03  4.41351E+02 -1.92587E+03 -3.78738E+01 -2.38698E+03 -1.21908E+03
 -1.01818E+03 -2.43263E+03  8.53315E+02 -3.03292E+03  1.34372E+03 -2.56584E+03  3.05668E+03 -1.13938E+03
  2.66689E+03 -2.73234E+02  1.14282E+03  1.72738E+03 -3.35907E+02  1.57251E+03 -5.05069E+02  1.19406E+03
 -1.07322E+03  8.12448E+02 -4.91084E+02 -2.32612E+02 -4.23690E+02  1.82660E+02 -7.12874E+02  6.70263E+01
 -9.66524E+02 -7.14155E+01 -6.18011E+02  1.41423E+01 -5.92801E+01 -8.91655E+02 -4.37502E+02 -7.86575E+02
  1.46503E+03 -7.65080E+02  6.56707E+02  1.28936E+01  1.34529E+03  8.49304E+02 -5.87898E+02  1.70274E+03
 -1.18917E+03  2.43842E+03 -1.87924E+03  1.45816E+03 -1.83795E+03 -8.78823E+01 -1.49758E+03 -1.16821E+03
 -1.02345E+03 -1.55165E+03  2.70334E+02 -1.43983E+03  7.57994E+02 -5.95913E+02  6.62377E+02 -5.49837E+01
  9.02892E+02  4.80140E+02  2.21176E+02  4.16880E+02 -3.14610E+02 -4.27610E+01 -2.37255E+02 -3.60223E+02
  1.26554E+02  1.50886E+02  2.84164E+02  5.86055E+02  2.38301E+02  7.18704E+02  5.59004E+02  3.64895E+02
 -5.43182E+02  4.80711E+02 -5.82860E+02 -3.33846E+01 -8.53152E+02 -2.95622E+02  1.43389E+02 -1.27972E+03
  7.95384E+02 -6.93948E+02  7.52502E+02 -7.46897E+01  7.99169E+02 -2.95326E+02  5.52523E+02  8.80319E+02
  3.84270E+02  5.50719E+02 -1.85421E+02  6.18191E+02 -7.75651E+02  6.34117E+02 -2.48683E+02  1.34566E+02
 -2.08958E+01 -1.65809E+02 -3.78073E+02  2.62172E+01 -6.74515E+02  1.87367E+02 -7.66694E+02 -9.29521E+01
 -9.29409E+02 -3.14730E+01 -2.78943E+02 -1.22166E+03  7.00349E+02 -1.86712E+03  9.01425E+02 -1.15693E+02
  9.99262E+02  6.82815E+01 -5.08301E+02  3.41097E+02 -2.55829E+01  9.93109E+02 -6.02316E+02  5.27181E+02
