 $NMID ID='MM_0lb_SNR800_18hz_g45_46.RAW', FMTDAT='(8E13.5)'
 TRAMP=1., VOLUME=1. $END
  3.09784E+05  3.15872E+02  3.37375E+05  2.50539E+05  8.44135E+04  3.37152E+05 -1.32324E+05  2.50266E+05
 -1.89546E+05  8.23938E+04 -1.10928E+05 -3.29451E+04  1.29463E+03 -5.02342E+04  5.37692E+04  3.76972E+01
  3.51347E+04  5.27354E+04 -1.70500E+04  7.49181E+04 -6.04319E+04  6.29553E+04 -8.27665E+04  3.12517E+04
 -7.96927E+04 -1.11581E+04 -5.61547E+04 -5.00551E+04 -1.48683E+04 -6.82070E+04  2.66780E+04 -4.48763E+04
  3.91877E+04  3.95092E+03  1.54901E+04  4.68427E+04 -3.40553E+04  4.62546E+04 -6.54767E+04 -5.48624E+02
 -5.19244E+04 -5.58139E+04 -6.20849E+03 -7.49860E+04  3.31836E+04 -5.33989E+04  4.64496E+04 -1.63396E+04
  4.17357E+04  1.11270E+04  3.06475E+04  2.42926E+04  1.57271E+04  2.83065E+04 -5.04785E+03  2.65652E+04
 -2.16470E+04  1.26773E+04 -1.90966E+04 -4.38555E+03  4.32794E+03 -7.52309E+03  2.08437E+04  1.11852E+04
  7.46781E+03  3.30333E+04 -3.04502E+04  3.41882E+04 -6.11118E+04  2.08556E+03 -5.52392E+04 -4.13837E+04
 -1.23838E+04 -6.08127E+04  3.79742E+04 -4.32227E+04  5.58102E+04 -1.92793E+03  3.18087E+04  3.07034E+04
 -6.34491E+03  3.33922E+04 -2.83694E+04  1.36235E+04 -2.76838E+04 -5.05809E+03 -1.45773E+04 -1.01866E+04
 -7.50581E+03 -1.15366E+04 -1.03609E+03 -1.69207E+04  6.44294E+03 -2.28216E+04  1.53404E+04 -1.36527E+04
  1.20283E+04  4.26079E+03 -6.48875E+03  1.29934E+04 -1.93371E+04 -2.41264E+03 -8.01253E+03 -3.05593E+04
  2.06736E+04 -4.05984E+04  4.47184E+04 -1.83911E+04  4.21465E+04  1.84794E+04  1.42055E+04  4.17056E+04
 -1.53078E+04  3.12286E+04 -2.36573E+04  1.16651E+03 -8.09523E+03 -2.66599E+04  2.03713E+04 -3.14173E+04
  3.81744E+04 -7.30255E+03  3.18581E+04  2.26356E+04  1.56996E+04  4.26883E+04 -7.81811E+03  4.57575E+04
 -2.84969E+04  3.01370E+04 -3.78503E+04  8.40620E+03 -3.83495E+04 -1.51241E+04 -2.10997E+04 -3.44272E+04
  6.86797E+03 -3.44561E+04  2.92887E+04 -1.29279E+04  2.66292E+04  1.08239E+04  3.14010E+03  1.80129E+04
 -1.30108E+04  7.39700E+03 -9.55989E+03 -7.91254E+03  6.18491E+03 -1.02545E+04  1.72082E+04  6.43913E+03
  1.26238E+04  2.16153E+04 -6.38658E+03  2.36874E+04 -2.14152E+04  9.47512E+03 -2.51384E+04 -6.10655E+03
 -1.70590E+04 -1.64556E+04 -6.00165E+03 -1.68760E+04  3.70331E+03 -1.52015E+04  1.25557E+04 -1.47316E+04
  2.12914E+04 -1.18656E+04  2.81862E+04  1.19594E+03  2.13158E+04  1.65970E+04  4.23058E+03  3.26076E+04
 -1.63328E+04  2.75356E+04 -2.56809E+04  9.63257E+03 -1.96322E+04 -1.02899E+04 -3.81675E+03 -1.39728E+04
  2.51550E+03 -3.72923E+03 -2.61695E+03  5.57787E+03 -1.29931E+04  4.96594E+03 -1.34302E+04 -4.99342E+03
 -8.76943E+03 -1.55734E+04  4.37757E+03 -1.93527E+04  1.28276E+04 -1.40351E+04  1.46012E+04 -1.15489E+03
  8.83151E+03  1.06812E+04 -9.59109E+02  1.58725E+04 -1.04303E+04  9.29602E+03 -1.59512E+04 -3.58940E+03
 -1.14698E+04 -1.44756E+04 -1.55970E+03 -1.90332E+04  8.64517E+03 -1.53921E+04  1.62973E+04 -7.46646E+03
  1.47240E+04  3.45238E+02  1.06706E+04  4.03651E+03  4.95555E+03  5.57002E+02  7.36948E+03 -1.37157E+03
  1.40212E+04  2.63559E+03  1.50802E+04  1.28715E+04  9.24293E+03  2.49222E+04 -3.13815E+03  2.71228E+04
 -1.59334E+04  2.06166E+04 -2.49729E+04  1.01227E+04 -2.53482E+04 -1.79167E+03 -2.18466E+04 -1.47772E+04
 -1.02968E+04 -2.08661E+04  6.72503E+03 -1.94658E+04  1.69095E+04 -1.10260E+04  1.58635E+04  3.77435E+03
  6.51739E+03  1.13731E+04 -7.10805E+03  1.06213E+04 -1.36610E+04  2.58531E+03 -1.03043E+04 -7.98148E+03
 -1.92500E+02 -1.22621E+04  6.19632E+03 -9.54740E+03  7.82169E+03 -1.48183E+03  1.42394E+03  4.78030E+03
 -5.68368E+03  1.39771E+03 -3.72906E+03 -4.70111E+03  8.10657E+02 -1.04091E+04  8.00694E+03 -1.02861E+04
  1.25855E+04 -4.66688E+03  1.23220E+04  2.78374E+03  1.06933E+04  9.76667E+03  4.98205E+03  1.43091E+04
 -1.66333E+03  1.63973E+04 -9.74801E+03  1.05032E+04 -1.14269E+04  2.89519E+03 -8.61041E+03 -2.16287E+03
 -4.41967E+03 -3.33799E+03 -9.95987E+02  1.65204E+03 -1.63735E+03  2.18177E+03 -3.74735E+03  3.46391E+03
 -8.00698E+03 -4.01248E+02 -8.96251E+03 -7.68845E+03 -3.61542E+03 -1.18372E+04  3.66191E+03 -8.52586E+03
  7.39727E+03 -3.86897E+03  5.40958E+03  2.13621E+03  1.63374E+02  3.21450E+03 -3.48310E+03 -2.87098E+02
 -3.53741E+03 -5.45427E+03 -4.56004E+02 -7.35182E+03  4.18525E+03 -8.08152E+03  1.00655E+04 -4.22724E+03
  1.18872E+04  6.92282E+02  8.59036E+03  6.26684E+03  1.91563E+03  9.12210E+03 -5.51384E+03  8.47023E+03
 -7.16320E+03  2.67975E+03 -3.58692E+03 -1.39264E+03  1.10683E+03 -2.14663E+03  4.86485E+03 -9.21574E+02
  4.35020E+03  3.52284E+03  1.05520E+03  6.48343E+03 -4.95787E+03  6.56032E+03 -7.97281E+03  1.85770E+03
 -4.98142E+03 -3.72986E+03  4.67001E+02 -6.75523E+03  3.89112E+03 -3.14763E+03  3.61903E+03  9.66918E+02
  5.85445E+02  3.53118E+03 -4.06016E+03  5.03788E+03 -5.27481E+03  2.41296E+03 -4.71698E+03 -1.18080E+03
 -3.17961E+03 -6.24653E+03  1.38765E+03 -7.09858E+03  6.60670E+03 -4.94792E+03  6.83066E+03  1.06389E+03
  5.18313E+03  5.53219E+03  4.10095E+02  7.54039E+03 -5.08909E+03  4.22409E+03 -5.55738E+03 -3.96629E+02
 -5.78673E+03 -5.18548E+03 -1.56655E+03 -5.24664E+03  2.53694E+03 -4.37593E+03  2.88231E+03 -2.93013E+03
  2.70700E+03  4.08146E+02 -1.05410E+01  1.37268E+03  5.49739E+02 -5.10643E+02  4.21884E+01 -1.88882E+03
  4.16564E+03 -1.00638E+03  5.36485E+03  8.82018E+02  5.88158E+03  3.37987E+03  5.17817E+03  7.46803E+03
 -1.15164E+03  8.85966E+03 -7.86385E+03  6.93071E+03 -1.04094E+04  1.39319E+03 -8.04401E+03 -2.76903E+03
 -4.38519E+03 -6.92741E+03 -5.59090E+02 -5.37500E+03  2.19595E+03 -2.21641E+03  1.80891E+03 -2.24985E+03
  1.37457E+03 -1.28898E+03  2.41852E+03 -2.52341E+03  3.74196E+03 -1.21033E+03  3.71338E+03  5.39350E+02
  4.82686E+03  1.02185E+03  1.37879E+03  3.46337E+03 -1.48658E+03  2.86234E+03 -4.65308E+03  2.66333E+03
 -5.16800E+03 -1.17261E+03 -1.87246E+03 -3.12576E+03  1.36500E+02 -5.17182E+03  3.28897E+03 -5.38054E+03
  5.20168E+03 -3.21484E+03  6.99445E+03  1.12137E+02  4.99677E+03  4.43999E+03  1.27745E+03  6.45183E+03
 -2.33507E+03  5.91861E+03 -3.52797E+03  2.05184E+03 -2.14824E+03 -8.45791E+02 -6.74396E+02 -6.26739E+02
 -7.77344E+02  3.54064E+02 -1.19993E+03  1.86457E+03 -2.68668E+03  1.02135E+03 -4.01778E+03 -5.70772E+02
 -1.69404E+03 -4.45795E+03  7.12719E+02 -5.02564E+03  2.86456E+03 -4.70939E+03  3.96124E+03 -1.39678E+03
  4.23193E+03  2.41280E+03  1.64766E+03  3.59054E+03 -8.69560E+02  4.83355E+03 -2.85508E+03  2.98953E+03
 -3.89097E+03  6.00672E+02 -3.63202E+03 -2.44783E+03 -2.34502E+02 -3.44101E+03  1.53703E+03 -2.90238E+03
  2.73742E+03 -1.34523E+03  1.82737E+03  4.44286E+02  6.72406E+02  1.62095E+03  1.09209E+03  5.05696E+02
  1.74990E+03  6.17942E+02  1.24318E+03  9.63187E+02  1.20745E+03  2.08836E+03  1.06732E+03  1.60475E+03
 -1.17276E+03  3.12074E+03 -2.66716E+03  4.28982E+03 -3.26410E+03  1.44686E+03 -4.48545E+03 -2.98064E+02
 -1.88375E+03 -4.01449E+03  8.69221E+02 -5.03427E+03  1.96618E+03 -2.97525E+03  3.22793E+03 -1.12985E+03
  2.56528E+03  1.69406E+03  5.74284E+02  2.35118E+03 -7.45124E+02  1.36205E+03 -1.14513E+03  2.64715E+02
 -5.43119E+02 -1.68890E+03  1.40013E+03 -1.85536E+03  1.32521E+03 -9.31940E+02  1.04310E+03  2.92576E+02
  6.89569E+02  2.62290E+02  7.40458E+02 -2.39178E+02 -4.19093E+02  7.93464E+02  1.77595E+03 -7.93746E+00
 -1.15253E+02 -4.58079E+02  1.84741E+03  6.94879E+02  3.33307E+02  2.23486E+03 -4.09711E+02  3.01293E+03
 -1.90226E+03  1.59432E+03 -2.46888E+03  4.13084E+02 -2.01414E+03 -7.08568E+02 -3.01035E+02 -9.91250E+02
  3.17202E+02 -1.22287E+03  1.00840E+03 -6.22265E+02  7.25507E+02  1.07664E+03 -7.91302E+02  1.14324E+03
 -1.26848E+03  8.98805E+02 -1.30403E+03 -1.37090E+03 -8.83309E+02 -2.39338E+03  1.84936E+02 -1.77926E+03
  6.10761E+02 -6.71247E+02  7.05468E+02  1.55514E+02  1.54816E+03 -7.69037E+01  3.78394E+02  1.31727E+03
 -5.57049E+02 -1.75028E+02 -9.97425E+02 -2.38775E+02  5.63410E+02 -9.18383E+02  1.70747E+03 -6.72915E+02
  1.28473E+03  3.36713E+02  2.61710E+03  8.55435E+02  1.06949E+03  1.47077E+03 -4.67055E+02  1.95484E+03
 -1.69742E+03  7.68946E+02 -1.43461E+03 -2.24224E+02 -7.10004E+02 -1.26158E+03  4.01469E+02 -8.36819E+02
  1.57883E+03 -1.01425E+03  8.75610E+02  7.01876E+02 -7.78492E+01  1.42387E+03  5.81910E+02  1.22835E+03
 -2.39886E+02  9.67032E+02 -2.72414E+02  1.92574E+02  7.92119E+01  3.23292E+02 -6.69928E+02  5.56056E+02
 -5.89431E+02  1.36880E+03 -1.76767E+03  3.32757E+02 -1.77534E+03  1.54609E+02 -2.51443E+03 -1.12179E+03
 -9.52647E+02 -2.62512E+03  4.79135E+02 -3.31125E+03  1.05968E+03 -2.60221E+03  2.84188E+03 -1.20157E+03
  2.69719E+03  2.70916E+02  1.28112E+03  1.92498E+03 -4.64870E+02  1.54981E+03 -5.35068E+02  1.20919E+03
 -1.37531E+03  7.89489E+02 -5.33737E+02 -2.13933E+01 -4.49527E+02  2.85490E+02 -5.79088E+02  3.07716E+02
 -1.30954E+03  2.04299E+02 -8.68293E+02  1.59888E+02  1.57628E+02 -6.66422E+02 -4.87609E+02 -9.10948E+02
  1.37558E+03 -5.98445E+02  2.93827E+02  2.19406E+02  1.38482E+03  1.37392E+03 -4.87610E+02  1.48877E+03
 -1.04179E+03  2.43276E+03 -1.92951E+03  1.32023E+03 -2.00513E+03 -3.63857E+02 -1.22212E+03 -1.41738E+03
 -1.04477E+03 -1.50157E+03  1.49966E+02 -1.39930E+03  8.12823E+02 -5.80071E+02  9.35111E+02  1.60215E+02
  7.35728E+02  3.02109E+02  4.81266E+01  6.16435E+02 -3.37895E+02 -1.67112E+02 -1.37737E+01 -4.06667E+02
  6.23067E+02 -1.10968E+02  3.29192E+02  4.51113E+02 -8.88173E+01  4.67876E+02  2.26140E+02  1.04068E+02
 -6.22117E+02  8.14692E+02 -7.62246E+02  1.35876E+02 -7.99661E+02 -6.91964E+02 -1.15739E+02 -1.23546E+03
  8.36566E+02 -8.45179E+02  4.93385E+02  1.05015E+02  9.36108E+02 -5.79515E+02  4.06367E+02  9.58276E+02
  2.53689E+02  5.33282E+02 -2.30765E+02  8.62391E+02 -5.70180E+02  7.51651E+02 -5.70538E+02  1.00623E+02
 -1.04020E+02 -6.97265E+01 -5.58097E+02  1.33471E+02 -7.48920E+02  3.93708E+01 -9.64579E+02 -3.80822E+01
 -1.11695E+03  9.31810E+01 -3.35134E+02 -9.88891E+02  8.84052E+02 -1.49429E+03  1.03949E+03 -2.84663E+02
  1.00200E+03  3.18416E+02 -2.48448E+02  5.16023E+02 -6.39601E+01  7.97836E+02 -2.91713E+02  6.28325E+02
