 $NMID ID='MM_0lb_SNR800_20hz_g40_75.RAW', FMTDAT='(8E13.5)'
 TRAMP=1., VOLUME=1. $END
  3.09677E+05  4.63638E+02  3.37075E+05  2.50261E+05  8.41440E+04  3.37051E+05 -1.32205E+05  2.49762E+05
 -1.89264E+05  8.21041E+04 -1.10518E+05 -3.29191E+04  1.92904E+03 -5.01678E+04  5.39576E+04  4.68702E+02
  3.49273E+04  5.26613E+04 -1.69995E+04  7.45003E+04 -6.00804E+04  6.22975E+04 -8.24943E+04  3.11326E+04
 -7.89199E+04 -1.06608E+04 -5.57813E+04 -4.96099E+04 -1.48903E+04 -6.75880E+04  2.60796E+04 -4.42965E+04
  3.84951E+04  3.93841E+03  1.52212E+04  4.66905E+04 -3.38620E+04  4.53506E+04 -6.47624E+04 -6.53273E+02
 -5.10855E+04 -5.52047E+04 -5.70724E+03 -7.41089E+04  3.26948E+04 -5.23470E+04  4.53610E+04 -1.57783E+04
  4.05776E+04  1.10775E+04  3.00424E+04  2.39139E+04  1.56985E+04  2.78503E+04 -4.11977E+03  2.63259E+04
 -2.13619E+04  1.30058E+04 -1.95798E+04 -3.97620E+03  3.50822E+03 -7.89202E+03  2.06313E+04  1.03205E+04
  7.76254E+03  3.21221E+04 -2.97154E+04  3.33088E+04 -5.98485E+04  1.83011E+03 -5.43757E+04 -4.03817E+04
 -1.20391E+04 -5.94915E+04  3.71050E+04 -4.22599E+04  5.40515E+04 -1.98653E+03  3.09276E+04  2.96282E+04
 -6.70606E+03  3.14269E+04 -2.74354E+04  1.21463E+04 -2.61469E+04 -5.84330E+03 -1.31156E+04 -9.47277E+03
 -6.72824E+03 -1.04527E+04 -1.22346E+03 -1.59826E+04  6.41819E+03 -2.24287E+04  1.46367E+04 -1.42859E+04
  1.27565E+04  3.80706E+03 -5.38604E+03  1.31937E+04 -1.83720E+04 -1.61399E+03 -7.69723E+03 -2.88938E+04
  1.97878E+04 -3.88138E+04  4.31966E+04 -1.79641E+04  4.03780E+04  1.76688E+04  1.35659E+04  4.03685E+04
 -1.50590E+04  2.99000E+04 -2.23343E+04  7.99493E+02 -7.40356E+03 -2.56392E+04  2.02515E+04 -2.98381E+04
  3.65289E+04 -6.33513E+03  2.93882E+04  2.24448E+04  1.38723E+04  4.07721E+04 -7.58341E+03  4.27177E+04
 -2.69109E+04  2.80173E+04 -3.51712E+04  7.35918E+03 -3.62943E+04 -1.43725E+04 -2.01511E+04 -3.30045E+04
  6.58864E+03 -3.24036E+04  2.80236E+04 -1.17506E+04  2.56988E+04  1.05016E+04  2.40972E+03  1.70784E+04
 -1.30472E+04  6.75535E+03 -9.38320E+03 -7.68444E+03  5.85907E+03 -9.97337E+03  1.72382E+04  6.61591E+03
  1.18543E+04  2.12003E+04 -6.96974E+03  2.24843E+04 -2.09031E+04  7.64123E+03 -2.37471E+04 -6.70328E+03
 -1.49023E+04 -1.61540E+04 -4.34195E+03 -1.51103E+04  3.49113E+03 -1.25194E+04  1.10000E+04 -1.25479E+04
  1.92943E+04 -1.11762E+04  2.61379E+04  2.01409E+02  2.01970E+04  1.49122E+04  4.15431E+03  3.08419E+04
 -1.53546E+04  2.64204E+04 -2.50705E+04  8.82425E+03 -1.90809E+04 -1.02722E+04 -3.89028E+03 -1.43329E+04
  2.95892E+03 -4.86399E+03 -1.48889E+03  4.79998E+03 -1.16047E+04  5.09357E+03 -1.20024E+04 -4.14108E+03
 -7.81387E+03 -1.37302E+04  4.23729E+03 -1.76342E+04  1.13974E+04 -1.28865E+04  1.30832E+04 -1.33083E+03
  7.95493E+03  9.58596E+03 -6.31720E+02  1.43765E+04 -9.17272E+03  7.97793E+03 -1.40549E+04 -3.14748E+03
 -1.03433E+04 -1.28767E+04 -1.17614E+03 -1.74853E+04  8.10186E+03 -1.39117E+04  1.50127E+04 -6.30950E+03
  1.31715E+04  8.86888E+02  9.19008E+03  3.56265E+03  4.38149E+03  5.15909E+02  6.80130E+03 -1.55674E+03
  1.26219E+04  2.72090E+03  1.28227E+04  1.19752E+04  7.73435E+03  2.25676E+04 -3.21443E+03  2.34357E+04
 -1.38941E+04  1.74131E+04 -2.13161E+04  8.00091E+03 -2.16914E+04 -1.74154E+03 -1.86496E+04 -1.20717E+04
 -9.28938E+03 -1.76798E+04  5.70359E+03 -1.66987E+04  1.43760E+04 -9.92761E+03  1.42479E+04  2.89776E+03
  6.28825E+03  9.77196E+03 -6.12484E+03  9.71393E+03 -1.21381E+04  2.58416E+03 -9.59515E+03 -6.86359E+03
  7.27066E+00 -1.12625E+04  5.50965E+03 -8.67334E+03  6.94364E+03 -1.33733E+03  8.42339E+02  4.61430E+03
 -5.21475E+03  1.07901E+03 -2.69475E+03 -4.23623E+03  1.01671E+03 -8.82648E+03  7.23351E+03 -8.61248E+03
  1.05834E+04 -3.58331E+03  9.64732E+03  2.56597E+03  8.24717E+03  8.13180E+03  3.96717E+03  1.17692E+04
 -1.16496E+03  1.34040E+04 -7.96008E+03  8.83185E+03 -9.38142E+03  2.45424E+03 -7.19753E+03 -1.36480E+03
 -4.02869E+03 -2.73087E+03 -7.93497E+02  1.68897E+03 -1.75941E+03  1.62412E+03 -2.96028E+03  3.22634E+03
 -7.23973E+03 -3.04903E+02 -7.60054E+03 -6.51309E+03 -3.11702E+03 -1.02138E+04  3.08560E+03 -7.40909E+03
  6.19409E+03 -3.33441E+03  4.80682E+03  2.01478E+03  9.31024E+02  2.57598E+03 -2.88567E+03 -2.41117E+02
 -2.78646E+03 -4.48445E+03 -7.03577E+02 -5.84104E+03  3.52003E+03 -6.83236E+03  8.46030E+03 -3.34476E+03
  1.00523E+04  3.32091E+02  7.64865E+03  4.86249E+03  1.72997E+03  7.17858E+03 -4.67993E+03  7.16760E+03
 -6.17808E+03  2.82500E+03 -3.29587E+03 -7.32487E+02  1.18124E+03 -1.49697E+03  4.42730E+03 -1.04954E+03
  3.68896E+03  2.68654E+03  9.22988E+02  5.40387E+03 -3.60391E+03  5.63087E+03 -6.85522E+03  1.72872E+03
 -3.99851E+03 -2.95071E+03  3.99562E+02 -5.72206E+03  3.29060E+03 -2.88639E+03  2.79228E+03  5.56960E+02
  4.08786E+02  2.60959E+03 -3.37972E+03  4.15794E+03 -3.75303E+03  2.12060E+03 -3.42458E+03 -7.99084E+02
 -2.27529E+03 -5.07743E+03  1.20287E+03 -5.66036E+03  4.89854E+03 -3.89639E+03  5.16885E+03  7.05100E+02
  4.05458E+03  4.31075E+03  6.28930E+02  6.14344E+03 -4.04856E+03  3.75795E+03 -4.08618E+03 -2.22151E+02
 -4.72902E+03 -4.66143E+03 -1.57049E+03 -4.15423E+03  2.02588E+03 -3.97516E+03  2.39566E+03 -2.71944E+03
  2.71154E+03 -4.83824E+01  5.91978E+02  1.33046E+03  6.85079E+02 -1.99187E+01 -1.23430E+02 -1.21611E+03
  3.27309E+03 -4.42551E+02  3.88431E+03  4.89305E+02  4.36543E+03  2.23206E+03  4.53236E+03  5.37300E+03
 -7.94530E+02  6.75081E+03 -6.47656E+03  5.18816E+03 -8.15731E+03  1.03120E+03 -6.42906E+03 -1.80243E+03
 -3.44419E+03 -5.30168E+03 -3.25258E+02 -3.98326E+03  1.84126E+03 -1.44413E+03  1.32583E+03 -1.84912E+03
  8.42753E+02 -1.17834E+03  1.93263E+03 -1.97392E+03  3.51122E+03 -9.32554E+02  3.28923E+03  7.13639E+02
  3.60396E+03  1.02951E+03  6.57883E+02  3.05262E+03 -1.56384E+03  2.01038E+03 -3.54372E+03  1.98926E+03
 -4.10491E+03 -7.05438E+02 -8.85147E+02 -2.63974E+03  5.68922E+02 -3.62282E+03  2.66214E+03 -4.26425E+03
  4.25250E+03 -2.65717E+03  5.46512E+03 -5.82008E+01  4.25165E+03  3.35529E+03  1.04937E+03  4.89174E+03
 -1.56635E+03  5.24749E+03 -2.56958E+03  1.52011E+03 -1.42453E+03 -1.21876E+03 -1.53389E+02 -3.06908E+02
 -2.48602E+02  4.25831E+02 -8.74901E+02  1.89551E+03 -2.19915E+03  8.89961E+02 -3.49999E+03 -3.98826E+02
 -8.01227E+02 -3.47820E+03  7.64750E+02 -3.88955E+03  2.03044E+03 -3.68275E+03  2.69759E+03 -9.03528E+02
  3.21170E+03  1.92989E+03  1.28067E+03  2.71292E+03 -6.98963E+02  3.68366E+03 -1.79674E+03  1.93929E+03
 -3.07319E+03  6.47822E+02 -2.69667E+03 -1.73819E+03 -2.31115E+02 -2.23630E+03  1.28563E+03 -1.98272E+03
  1.85910E+03 -1.26407E+03  1.37094E+03  2.77402E+02  2.36639E+02  1.37071E+03  7.73197E+02  2.36378E+02
  1.50991E+03  4.86870E+02  7.47819E+02  8.13285E+02  8.25008E+02  1.94798E+03  1.22664E+03  1.21045E+03
 -1.21607E+03  2.23321E+03 -1.74125E+03  3.48385E+03 -2.10549E+03  8.78979E+02 -3.54455E+03  1.73224E+02
 -1.08350E+03 -2.73427E+03  6.23843E+02 -3.65896E+03  1.12288E+03 -2.07005E+03  2.32030E+03 -9.40244E+02
  2.05418E+03  1.53242E+03  2.03372E+02  1.76221E+03 -7.60781E+02  7.67205E+02 -4.92173E+02  1.51616E+02
 -4.91938E+02 -1.11227E+03  8.65639E+02 -1.22292E+03  9.03352E+02 -5.52540E+02  8.99505E+02  3.19180E+02
  5.55132E+02  3.22975E+02  8.99082E+02 -3.85110E+02 -1.16225E+02  8.29142E+02  1.69205E+03 -3.54835E+02
 -4.19028E+02  4.21277E+01  1.56325E+03  5.31583E+02 -1.17662E+01  2.09491E+03 -7.16742E+01  2.27328E+03
 -1.33256E+03  3.30018E+02 -1.59211E+03 -4.90857E+01 -1.74201E+03 -5.78178E+02 -7.44864E+01 -4.02369E+02
  4.24618E+02 -8.46583E+02  6.58425E+02 -7.06241E+02  6.40376E+02  1.13083E+03 -6.59564E+02  7.34362E+02
 -1.39549E+03  6.65944E+02 -8.28450E+02 -1.19361E+03 -3.02527E+02 -1.89398E+03 -6.29297E+01 -1.07431E+03
  3.59883E+02 -9.33776E+01  4.59083E+02  3.18829E+02  8.61533E+02 -3.82968E+01  1.81201E+02  1.06159E+03
 -1.04244E+02  2.56115E+01 -6.99598E+02 -9.33750E+00  4.75275E+02 -4.35368E+02  1.51520E+03 -5.40131E+02
  6.84202E+02  6.41228E+00  2.37123E+03  4.47144E+02  1.24582E+03  1.05923E+03 -1.45524E+00  1.36271E+03
 -1.48104E+03 -2.58073E-01 -9.32986E+02 -1.57827E+02 -7.58598E+02 -1.04769E+03  4.16732E+02 -2.69686E+02
  1.20844E+03 -6.29876E+02  5.78397E+02  7.61887E+02  1.20682E+02  1.04387E+03  1.67036E+02  1.25678E+03
 -9.25206E+01  9.91815E+02 -5.29412E+02  4.49458E+02 -1.44974E+02  3.76894E+02 -6.50211E+02  6.41049E+02
 -5.97454E+02  6.12766E+02 -1.26903E+03  3.83539E+02 -1.26419E+03  2.56808E+02 -1.84488E+03 -7.32100E+02
 -5.82771E+02 -1.64704E+03  3.77803E+02 -2.25981E+03  4.54070E+02 -1.76914E+03  2.15567E+03 -8.19880E+02
  1.75048E+03 -4.74650E+02  7.98459E+02  1.08656E+03 -8.20958E+02  1.04544E+03 -4.07434E+02  1.10373E+03
 -7.20348E+02  6.52904E+02 -2.47423E+02 -2.78347E+02 -4.79676E+02  2.19639E+02 -1.02760E+03  7.02390E+01
 -8.45435E+02  2.40122E+02 -7.65325E+02 -2.41546E+02  3.66462E+02 -4.14063E+02 -3.27693E+02 -8.52428E+02
  1.00876E+03 -3.76590E+02  1.42142E+02  1.37558E+02  1.11637E+03  6.11737E+02 -6.84598E+02  9.44185E+02
 -8.82488E+02  1.62678E+03 -1.19137E+03  9.81309E+02 -1.37410E+03 -2.14582E+02 -8.64716E+02 -9.84136E+02
 -9.75352E+02 -1.10372E+03 -5.55718E+01 -8.28183E+02  6.57063E+02 -1.85679E+02  4.31946E+02  1.67885E+02
  7.41633E+02 -1.06999E+02  4.38832E+01  3.02862E+02 -2.65418E+02 -9.72109E+01 -1.49861E+02 -2.46029E+02
  4.77073E+02  3.48903E+02 -7.25915E+00  5.14119E+02  1.22984E+02  1.80401E+02  4.94374E+02 -1.51264E+02
 -4.72220E+02  4.12897E+02 -1.70915E+02 -2.65822E+02 -6.18341E+02 -4.27771E+02  7.11268E+01 -7.09527E+02
  3.34485E+02 -5.66295E+02  4.36996E+01  2.17710E+01  6.74340E+02 -4.98125E+02  3.70252E+01  4.81301E+02
  3.83089E+02  1.90208E+02 -1.37310E+02  1.72516E+02 -5.40779E+02  7.86945E+02 -1.80465E+02  1.16255E+02
  6.76374E+01 -2.21954E+02 -3.81408E+02  1.31666E+02 -6.52099E+02  2.17467E+02 -5.10243E+02 -3.79282E+02
 -9.90134E+02  2.06465E+02 -1.19847E+02 -7.04916E+02  3.83996E+02 -1.62204E+03  5.54417E+02  3.20253E+01
  5.99372E+02  7.26702E+01 -5.12367E+02  2.75890E+02 -1.37912E+02  6.21262E+02 -2.54423E+02  6.44110E+02
