 $NMID ID='MM_0lb_SNR800_20hz_g50_52.RAW', FMTDAT='(8E13.5)'
 TRAMP=1., VOLUME=1. $END
  3.09986E+05  3.73638E+02  3.37251E+05  2.50274E+05  8.42099E+04  3.37203E+05 -1.32593E+05  2.50422E+05
 -1.89558E+05  8.22898E+04 -1.10613E+05 -3.29230E+04  1.62671E+03 -5.03547E+04  5.40682E+04  3.09254E+02
  3.52532E+04  5.31522E+04 -1.69607E+04  7.49307E+04 -6.02409E+04  6.24348E+04 -8.26531E+04  3.14508E+04
 -7.95607E+04 -1.09475E+04 -5.62157E+04 -5.01209E+04 -1.51117E+04 -6.78608E+04  2.67808E+04 -4.46886E+04
  3.90471E+04  3.66746E+03  1.52503E+04  4.70548E+04 -3.36554E+04  4.60957E+04 -6.52236E+04 -5.58622E+02
 -5.17396E+04 -5.55432E+04 -5.90433E+03 -7.49079E+04  3.31256E+04 -5.28585E+04  4.59460E+04 -1.62179E+04
  4.13350E+04  1.09547E+04  3.05474E+04  2.44264E+04  1.57729E+04  2.82930E+04 -4.83421E+03  2.65351E+04
 -2.16936E+04  1.28031E+04 -1.91175E+04 -4.37622E+03  4.03203E+03 -7.28273E+03  2.10819E+04  1.09377E+04
  7.25400E+03  3.28987E+04 -3.02470E+04  3.37324E+04 -6.06294E+04  2.26299E+03 -5.51354E+04 -4.10314E+04
 -1.22149E+04 -6.05166E+04  3.80891E+04 -4.30223E+04  5.50468E+04 -2.04072E+03  3.15824E+04  3.02093E+04
 -6.82687E+03  3.26392E+04 -2.80768E+04  1.31868E+04 -2.73440E+04 -5.46327E+03 -1.41612E+04 -9.98540E+03
 -7.20126E+03 -1.10693E+04 -1.16348E+03 -1.65825E+04  6.52481E+03 -2.24040E+04  1.49461E+04 -1.38786E+04
  1.24418E+04  4.11973E+03 -5.95651E+03  1.27529E+04 -1.91398E+04 -2.00576E+03 -8.04254E+03 -2.99113E+04
  2.04325E+04 -3.99226E+04  4.40691E+04 -1.84213E+04  4.15300E+04  1.80615E+04  1.41523E+04  4.15078E+04
 -1.51067E+04  3.06323E+04 -2.30908E+04  1.07337E+03 -7.86873E+03 -2.63523E+04  2.03462E+04 -3.06640E+04
  3.76147E+04 -6.99818E+03  3.08688E+04  2.27587E+04  1.48734E+04  4.19863E+04 -7.63712E+03  4.44261E+04
 -2.78583E+04  2.90689E+04 -3.66912E+04  8.16501E+03 -3.75756E+04 -1.46694E+04 -2.07870E+04 -3.39200E+04
  6.56818E+03 -3.35963E+04  2.86725E+04 -1.24638E+04  2.63154E+04  1.05659E+04  2.65381E+03  1.76100E+04
 -1.29541E+04  7.00698E+03 -9.69023E+03 -8.14526E+03  6.11955E+03 -9.92461E+03  1.72936E+04  6.29833E+03
  1.20577E+04  2.14748E+04 -6.50845E+03  2.30074E+04 -2.12756E+04  8.61260E+03 -2.47662E+04 -6.37449E+03
 -1.60927E+04 -1.64305E+04 -5.33873E+03 -1.62138E+04  3.89563E+03 -1.38483E+04  1.18912E+04 -1.40092E+04
  2.02717E+04 -1.14188E+04  2.72753E+04  1.05581E+03  2.04903E+04  1.55173E+04  4.00723E+03  3.16741E+04
 -1.56705E+04  2.69022E+04 -2.53015E+04  9.31079E+03 -1.91823E+04 -1.03173E+04 -4.04290E+03 -1.41188E+04
  2.85620E+03 -4.10951E+03 -2.27321E+03  5.37908E+03 -1.23398E+04  5.14353E+03 -1.28183E+04 -4.67426E+03
 -8.34675E+03 -1.46732E+04  4.47565E+03 -1.83034E+04  1.21192E+04 -1.35743E+04  1.41387E+04 -1.93543E+03
  8.35762E+03  1.03264E+04 -7.02539E+02  1.52530E+04 -9.44041E+03  8.35225E+03 -1.48400E+04 -3.18312E+03
 -1.08304E+04 -1.34956E+04 -1.31997E+03 -1.83826E+04  8.19840E+03 -1.46814E+04  1.53832E+04 -6.65183E+03
  1.35958E+04  6.84655E+02  1.00753E+04  3.76088E+03  4.86314E+03  3.24876E+02  7.29268E+03 -1.42614E+03
  1.31199E+04  2.40081E+03  1.37348E+04  1.23503E+04  8.59649E+03  2.33364E+04 -3.14263E+03  2.51441E+04
 -1.47765E+04  1.88622E+04 -2.28035E+04  8.76859E+03 -2.31866E+04 -1.66053E+03 -2.01491E+04 -1.32664E+04
 -9.75107E+03 -1.90606E+04  5.98869E+03 -1.79421E+04  1.57402E+04 -1.03361E+04  1.50248E+04  3.23332E+03
  6.40253E+03  1.04031E+04 -6.45313E+03  1.00059E+04 -1.28519E+04  2.59233E+03 -1.00077E+04 -7.58062E+03
  6.24305E+01 -1.18382E+04  5.55377E+03 -8.97675E+03  7.18315E+03 -1.41841E+03  1.46140E+03  4.88170E+03
 -5.42682E+03  1.01205E+03 -3.27129E+03 -4.20594E+03  8.22731E+02 -9.47854E+03  7.35872E+03 -9.02593E+03
  1.15022E+04 -3.89288E+03  1.08915E+04  2.68542E+03  9.03436E+03  8.49190E+03  4.16988E+03  1.28527E+04
 -1.41685E+03  1.45198E+04 -8.56736E+03  9.65631E+03 -1.03166E+04  2.93261E+03 -8.00836E+03 -1.23655E+03
 -4.45099E+03 -2.78641E+03 -7.42526E+02  1.41836E+03 -1.79227E+03  1.68930E+03 -3.29866E+03  3.37018E+03
 -7.26761E+03 -2.59252E+02 -8.28635E+03 -6.90232E+03 -3.33522E+03 -1.09206E+04  3.28002E+03 -7.98912E+03
  6.65336E+03 -3.73434E+03  5.09716E+03  2.00486E+03  5.58665E+02  2.87061E+03 -3.01884E+03 -3.97340E+01
 -2.84796E+03 -4.76958E+03 -6.32197E+02 -6.35829E+03  3.46000E+03 -7.24756E+03  9.02106E+03 -3.48837E+03
  1.03875E+04  7.34599E+02  7.97385E+03  5.45356E+03  1.66031E+03  8.01747E+03 -4.76187E+03  7.27269E+03
 -6.26022E+03  2.86136E+03 -3.29924E+03 -9.08060E+02  1.20033E+03 -1.64573E+03  4.45201E+03 -9.48503E+02
  3.74428E+03  3.13780E+03  1.14112E+03  5.78706E+03 -3.97665E+03  5.77160E+03 -7.08796E+03  1.81359E+03
 -4.38438E+03 -3.31301E+03  3.69432E+02 -5.99342E+03  3.33356E+03 -3.05053E+03  3.27993E+03  8.83727E+02
  2.72321E+02  2.75108E+03 -3.80048E+03  3.98980E+03 -4.04125E+03  2.16895E+03 -3.52937E+03 -6.70138E+02
 -2.43876E+03 -5.06211E+03  8.83809E+02 -6.33280E+03  5.13519E+03 -3.93908E+03  5.36335E+03  1.02798E+03
  4.10852E+03  4.55262E+03  2.50284E+02  6.69019E+03 -4.15605E+03  3.90182E+03 -4.57885E+03 -2.11392E+02
 -5.13463E+03 -4.75699E+03 -1.36656E+03 -4.35469E+03  2.28972E+03 -4.19760E+03  2.68949E+03 -2.88578E+03
  2.54819E+03  1.35724E+02  3.53376E+01  1.49628E+03  8.15926E+02  1.69302E+02 -2.87175E+02 -1.39194E+03
  3.06083E+03 -5.80636E+02  4.07177E+03  5.27788E+02  4.72152E+03  2.47041E+03  4.84088E+03  6.13340E+03
 -1.02191E+03  7.38292E+03 -6.73316E+03  5.60845E+03 -8.72909E+03  8.07849E+02 -6.91330E+03 -1.95240E+03
 -3.58104E+03 -5.63295E+03 -5.41420E+02 -4.30981E+03  1.89495E+03 -1.62758E+03  1.56391E+03 -1.93261E+03
  1.09214E+03 -1.23397E+03  2.22320E+03 -2.17136E+03  3.12146E+03 -1.10427E+03  3.30487E+03  4.86677E+02
  3.89335E+03  1.03921E+03  7.30442E+02  2.85491E+03 -1.51152E+03  1.96040E+03 -4.02715E+03  2.12876E+03
 -4.16655E+03 -9.53480E+02 -1.25511E+03 -2.73828E+03  4.77132E+02 -4.19706E+03  2.86635E+03 -4.63143E+03
  4.06371E+03 -2.81586E+03  5.68303E+03  1.39491E+01  4.30741E+03  3.39581E+03  1.20467E+03  5.16744E+03
 -1.74979E+03  5.24317E+03 -2.86743E+03  1.69938E+03 -1.78618E+03 -1.15467E+03 -2.21521E+02 -7.23006E+02
 -3.95065E+02  5.41229E+02 -8.18854E+02  1.93650E+03 -2.21854E+03  8.90049E+02 -3.60735E+03 -1.19278E+02
 -1.14306E+03 -3.43726E+03  8.94983E+02 -3.70775E+03  2.32907E+03 -3.76448E+03  2.78962E+03 -1.00899E+03
  3.11412E+03  1.73721E+03  1.43388E+03  2.32331E+03 -8.93358E+02  3.34651E+03 -2.10520E+03  2.03584E+03
 -3.16621E+03  6.86020E+02 -2.84784E+03 -2.22785E+03 -4.29557E+01 -2.51008E+03  1.55389E+03 -1.83836E+03
  2.19246E+03 -1.02911E+03  1.19033E+03  3.69373E+02  3.26495E+02  1.45127E+03  1.07796E+03  3.14469E+02
  1.48510E+03  5.04161E+02  8.31508E+02  1.10300E+03  1.00773E+03  2.00303E+03  1.16544E+03  1.18305E+03
 -1.28383E+03  2.37448E+03 -1.88429E+03  3.38409E+03 -2.25132E+03  9.38241E+02 -3.42809E+03 -4.09779E+01
 -9.87815E+02 -2.82057E+03  7.66643E+02 -3.80900E+03  1.43017E+03 -1.92407E+03  2.69826E+03 -8.24029E+02
  2.00278E+03  1.59274E+03  2.39072E+02  1.88109E+03 -4.50502E+02  8.33725E+02 -6.25747E+02 -5.91978E+01
 -3.81418E+02 -1.17373E+03  7.82123E+02 -1.34413E+03  7.78814E+02 -7.64072E+02  8.29747E+02  4.06405E+02
  6.73397E+02  5.76652E+01  9.80594E+02 -6.13878E+02 -2.91886E+02  6.31402E+02  1.59674E+03 -1.61240E+02
 -1.42999E+02 -1.28912E+02  1.60639E+03  3.15411E+02 -6.23059E+01  1.77644E+03 -1.52146E+02  2.50258E+03
 -1.60309E+03  7.28254E+02 -1.33642E+03  4.38364E+02 -1.72166E+03 -7.20392E+02  5.18361E+01 -1.95292E+02
  4.34526E+02 -1.05060E+03  7.22723E+02 -5.06545E+02  1.53748E+02  1.32253E+03 -4.89102E+02  9.98407E+02
 -1.19618E+03  6.92633E+02 -1.04535E+03 -1.19683E+03 -5.90878E+02 -1.87392E+03  1.74918E+02 -9.85174E+02
  2.88242E+02 -1.73377E+02  2.55340E+02  2.43710E+02  9.95702E+02 -3.14841E+02  3.71457E+02  9.11009E+02
 -1.51174E+02 -7.24808E+01 -9.16609E+02 -1.83928E+02  5.56130E+02 -5.26284E+02  1.17181E+03 -4.20435E+02
  6.14591E+02  2.98638E+02  2.27241E+03  5.07212E+02  9.84377E+02  8.44726E+02  7.00116E+01  1.26793E+03
 -1.01930E+03  2.99499E+02 -1.05370E+03 -7.06743E+01 -7.07966E+02 -7.83503E+02  3.16716E+02  2.07888E+02
  1.61364E+03 -4.57456E+02  4.65017E+02  3.41316E+02  1.58572E+02  8.78515E+02  5.35596E+02  7.62070E+02
 -2.30594E+02  9.57632E+02 -1.28603E+02  1.62745E+02 -2.30073E+01  7.42208E+01 -8.33108E+02  4.22723E+02
 -2.74466E+02  9.00183E+02 -1.40700E+03  1.68642E+02 -1.26012E+03  2.74556E+02 -1.80464E+03 -4.08262E+02
 -6.52704E+02 -1.60180E+03  3.75744E+02 -2.00672E+03  6.27197E+02 -1.86446E+03  1.95704E+03 -9.87702E+02
  1.64905E+03 -3.89708E+02  9.07701E+02  1.01881E+03 -5.97032E+02  8.96276E+02 -6.17195E+02  9.76818E+02
 -6.02180E+02  4.64690E+02 -4.82708E+02 -3.02154E+02 -2.22270E+02  3.58409E+02 -5.89489E+02  2.08113E+01
 -8.90241E+02 -3.43379E+02 -5.81338E+02 -1.96917E+02  8.94665E+01 -4.42578E+02 -6.74861E+02 -7.50113E+02
  1.08204E+03 -3.65199E+02  9.22898E+01  1.70478E+02  8.64654E+02  9.50396E+02 -5.66316E+02  1.08231E+03
 -7.54465E+02  1.90999E+03 -1.07579E+03  1.23292E+03 -1.16500E+03 -2.69916E+02 -6.85149E+02 -8.25436E+02
 -4.37279E+02 -8.96390E+02  1.55181E+02 -6.88364E+02  3.72485E+02 -4.24510E+02  1.95851E+02 -2.08479E+00
  4.59159E+02  3.84955E+01  3.13166E+02  3.94812E+02 -3.02446E+02  1.01618E+02 -9.02563E+01 -2.63180E+02
  4.59756E+02  1.18660E+02  1.38520E+02  4.07138E+02 -1.11052E+02  1.82032E+02  4.49708E+02  1.61154E+02
 -4.58146E+02  6.40655E+02 -4.26048E+02  1.47580E+01 -2.96845E+02 -7.53837E+01  7.17866E+01 -6.52008E+02
  3.67766E+02 -5.46792E+02  2.28587E+02  1.54491E+02  8.31203E+02 -4.57065E+02  1.05844E+02  6.40530E+02
  4.99777E+02  1.70900E+02 -9.68679E+01  4.12570E+02 -4.73985E+02  3.11029E+02 -1.82484E+02  2.43651E+02
 -7.04262E+01 -1.89551E+02 -4.41168E+02  9.53629E+01 -5.48733E+02  5.18464E+01 -6.32242E+02 -3.56728E+02
 -8.51074E+02  4.70815E+02 -3.49963E+02 -6.97965E+02  7.15991E+02 -1.19934E+03  5.53573E+02 -1.77933E+02
  5.50172E+02  1.54331E+01 -2.61535E+02 -2.84487E+01  7.55573E+01  5.66902E+02 -1.48479E+02  5.11092E+02
