 $NMID ID='MM_0lb_SNR800_15hz_g55_65.RAW', FMTDAT='(8E13.5)'
 TRAMP=1., VOLUME=1. $END
  3.09684E+05  5.02417E+02  3.37860E+05  2.50727E+05  8.45114E+04  3.37977E+05 -1.32604E+05  2.50797E+05
 -1.90049E+05  8.32931E+04 -1.11963E+05 -3.25945E+04  6.21246E+02 -5.05297E+04  5.40965E+04 -5.30048E+02
  3.53270E+04  5.27011E+04 -1.67577E+04  7.53782E+04 -6.09875E+04  6.37585E+04 -8.42738E+04  3.22284E+04
 -8.12530E+04 -1.12785E+04 -5.76858E+04 -5.09543E+04 -1.47687E+04 -6.95945E+04  2.74350E+04 -4.58391E+04
  3.99945E+04  4.08379E+03  1.59853E+04  4.76369E+04 -3.41477E+04  4.72092E+04 -6.64056E+04 -1.25784E+02
 -5.36740E+04 -5.69071E+04 -6.43403E+03 -7.71497E+04  3.40884E+04 -5.50129E+04  4.81791E+04 -1.76089E+04
  4.33737E+04  1.13308E+04  3.19167E+04  2.56667E+04  1.57321E+04  2.93182E+04 -5.28581E+03  2.74855E+04
 -2.19466E+04  1.25376E+04 -1.84768E+04 -5.07388E+03  5.97346E+03 -7.53514E+03  2.23174E+04  1.23628E+04
  7.41293E+03  3.52289E+04 -3.21584E+04  3.54099E+04 -6.33831E+04  2.15376E+03 -5.71533E+04 -4.30648E+04
 -1.26461E+04 -6.30911E+04  3.98219E+04 -4.51581E+04  5.80261E+04 -2.58461E+03  3.41572E+04  3.25026E+04
 -5.78016E+03  3.62918E+04 -3.02278E+04  1.60443E+04 -3.02909E+04 -4.13729E+03 -1.66120E+04 -1.11438E+04
 -8.33301E+03 -1.31358E+04 -9.63897E+02 -1.78559E+04  7.38680E+03 -2.31341E+04  1.57960E+04 -1.31466E+04
  1.13893E+04  5.11666E+03 -8.26766E+03  1.29284E+04 -2.12050E+04 -4.54504E+03 -8.38414E+03 -3.35176E+04
  2.27828E+04 -4.35197E+04  4.82368E+04 -1.94756E+04  4.50051E+04  1.92505E+04  1.57499E+04  4.43049E+04
 -1.60674E+04  3.31657E+04 -2.54558E+04  2.20283E+03 -9.40279E+03 -2.78686E+04  2.12210E+04 -3.39819E+04
  4.10219E+04 -8.77391E+03  3.59822E+04  2.36587E+04  1.83673E+04  4.67643E+04 -8.27960E+03  4.99898E+04
 -3.15035E+04  3.37685E+04 -4.21065E+04  9.76864E+03 -4.25920E+04 -1.69969E+04 -2.35004E+04 -3.77609E+04
  7.14817E+03 -3.78550E+04  3.11949E+04 -1.45448E+04  2.92806E+04  1.11774E+04  3.95490E+03  1.92964E+04
 -1.33595E+04  8.39893E+03 -1.05039E+04 -7.76217E+03  5.82088E+03 -1.05954E+04  1.77665E+04  6.38014E+03
  1.32324E+04  2.22924E+04 -6.07718E+03  2.51227E+04 -2.24695E+04  1.11725E+04 -2.78946E+04 -4.69027E+03
 -2.07285E+04 -1.74759E+04 -8.15353E+03 -2.05073E+04  3.89814E+03 -1.96022E+04  1.59145E+04 -1.84691E+04
  2.61182E+04 -1.27229E+04  3.22695E+04  2.79624E+03  2.37440E+04  1.95915E+04  4.00999E+03  3.62987E+04
 -1.75634E+04  3.01672E+04 -2.78391E+04  1.04321E+04 -2.08718E+04 -1.02168E+04 -4.38888E+03 -1.33492E+04
  1.90394E+03 -2.93570E+03 -4.66205E+03  6.74309E+03 -1.60598E+04  4.88174E+03 -1.62747E+04 -6.59086E+03
 -9.88611E+03 -1.86689E+04  5.32272E+03 -2.29483E+04  1.51603E+04 -1.66824E+04  1.79935E+04 -1.44091E+03
  1.11499E+04  1.32701E+04 -1.30458E+03  1.87654E+04 -1.29229E+04  1.07778E+04 -1.86457E+04 -4.27751E+03
 -1.37280E+04 -1.71791E+04 -1.98443E+03 -2.28624E+04  1.02671E+04 -1.85154E+04  1.91120E+04 -9.06138E+03
  1.76855E+04 -1.55495E+02  1.27902E+04  4.66599E+03  7.03553E+03  8.17823E+02  9.56899E+03 -1.79188E+03
  1.71112E+04  2.84443E+03  1.90428E+04  1.45620E+04  1.23844E+04  2.97663E+04 -2.66438E+03  3.36403E+04
 -1.92768E+04  2.72924E+04 -3.14976E+04  1.33538E+04 -3.26959E+04 -2.30579E+03 -2.75276E+04 -1.88516E+04
 -1.19539E+04 -2.71252E+04  9.06516E+03 -2.43847E+04  2.13653E+04 -1.26026E+04  1.87332E+04  5.38193E+03
  7.20018E+03  1.37534E+04 -8.95170E+03  1.28132E+04 -1.59429E+04  2.55808E+03 -1.25461E+04 -9.83694E+03
 -1.86464E+02 -1.50647E+04  7.67516E+03 -1.12279E+04  9.90308E+03 -1.26582E+03  2.20617E+03  6.42524E+03
 -6.58010E+03  2.37641E+03 -5.84622E+03 -5.27111E+03 -3.96966E+02 -1.32242E+04  9.54890E+03 -1.38203E+04
  1.64227E+04 -7.18806E+03  1.78185E+04  2.86735E+03  1.49935E+04  1.28895E+04  7.13117E+03  1.97459E+04
 -3.08010E+03  2.16188E+04 -1.37100E+04  1.35050E+04 -1.54238E+04  3.71128E+03 -1.08389E+04 -3.44929E+03
 -5.35607E+03 -4.61663E+03 -8.28125E+02  1.06542E+03 -2.45459E+03  2.56081E+03 -5.02084E+03  4.26603E+03
 -1.01876E+04 -5.13255E+02 -1.10637E+04 -8.80172E+03 -4.70807E+03 -1.45752E+04  4.54740E+03 -1.09048E+04
  9.41316E+03 -4.98729E+03  6.58434E+03  2.87746E+03  2.07948E+02  4.17900E+03 -5.01591E+03  1.21515E+02
 -4.47111E+03 -7.08883E+03 -9.45375E+02 -1.02244E+04  5.85294E+03 -1.08909E+04  1.35509E+04 -5.54656E+03
  1.59485E+04  1.18651E+03  1.16821E+04  8.73260E+03  2.22547E+03  1.21478E+04 -6.90387E+03  1.10421E+04
 -9.28439E+03  3.45616E+03 -4.83239E+03 -2.25058E+03  1.78458E+03 -3.10276E+03  5.75232E+03 -1.14358E+03
  5.21015E+03  4.57592E+03  1.04737E+03  8.66257E+03 -5.82485E+03  8.31646E+03 -1.07043E+04  2.22919E+03
 -6.83850E+03 -5.22489E+03  1.59584E+02 -8.90972E+03  5.15299E+03 -4.44725E+03  5.51438E+03  1.73561E+03
  1.20181E+03  5.52657E+03 -5.52629E+03  6.87850E+03 -7.77725E+03  3.40982E+03 -8.08952E+03 -2.62906E+03
 -4.77869E+03 -9.52464E+03  2.17562E+03 -1.05539E+04  9.31532E+03 -6.39709E+03  1.01225E+04  1.72760E+03
  6.65920E+03  8.11958E+03 -2.82590E+02  1.00074E+04 -7.01141E+03  5.75569E+03 -7.40993E+03 -6.95581E+02
 -7.42115E+03 -7.08829E+03 -1.46195E+03 -7.19599E+03  4.19635E+03 -6.58782E+03  4.67976E+03 -3.16297E+03
  3.38848E+03  1.13619E+03 -1.30919E+02  1.58702E+03  2.63544E+02 -1.55369E+03  8.36676E+02 -3.22004E+03
  6.51866E+03 -2.14737E+03  8.96567E+03  9.43231E+02  8.87939E+03  5.50843E+03  6.74027E+03  1.16537E+04
 -2.62907E+03  1.37079E+04 -1.16689E+04  1.00611E+04 -1.47611E+04  1.93275E+03 -1.19678E+04 -4.29348E+03
 -6.07184E+03 -9.96844E+03 -5.58223E+02 -8.17020E+03  3.04973E+03 -3.87857E+03  2.93353E+03 -3.11431E+03
  2.09824E+03 -1.76478E+03  2.75749E+03 -3.08821E+03  4.22115E+03 -2.00375E+03  4.82758E+03 -3.06741E+02
  6.33107E+03  1.72576E+03  2.48585E+03  5.21762E+03 -1.71784E+03  5.13180E+03 -6.26875E+03  4.64315E+03
 -8.09448E+03 -1.37600E+03 -4.26819E+03 -5.39490E+03 -2.47165E+01 -8.20827E+03  5.07268E+03 -8.50923E+03
  8.46636E+03 -4.80877E+03  1.06653E+04  9.94307E+02  7.34394E+03  6.97827E+03  1.36738E+03  9.40691E+03
 -3.81707E+03  8.59497E+03 -5.57641E+03  2.70827E+03 -3.43570E+03 -1.28272E+03 -1.30860E+03 -7.69097E+02
 -7.22892E+02  2.78498E+02 -1.34169E+03  2.38112E+03 -3.86330E+03  1.47528E+03 -5.87309E+03 -6.19415E+02
 -3.50082E+03 -5.74764E+03  1.54670E+02 -7.24058E+03  4.54955E+03 -6.99418E+03  6.66021E+03 -2.04170E+03
  6.83215E+03  3.90754E+03  3.29944E+03  6.14594E+03 -1.35442E+03  7.51754E+03 -5.29952E+03  4.77040E+03
 -6.83192E+03  6.62328E+02 -5.50566E+03 -4.53685E+03 -8.12401E+02 -5.66980E+03  2.97830E+03 -4.28019E+03
  4.51237E+03 -1.74265E+03  3.22334E+03  1.02819E+03  1.04901E+03  2.46526E+03  1.00828E+03  7.18374E+02
  2.36110E+03  5.47443E+02  1.87513E+03  1.13641E+03  2.25741E+03  2.60002E+03  2.15990E+03  3.37795E+03
 -1.50272E+03  5.37644E+03 -4.53636E+03  6.38708E+03 -6.71131E+03  1.79772E+03 -6.96828E+03 -1.88201E+03
 -3.23877E+03 -6.80341E+03  1.28444E+03 -7.82567E+03  3.63158E+03 -4.81076E+03  5.26067E+03 -1.43535E+03
  4.19279E+03  2.75276E+03  1.06968E+03  4.03934E+03 -1.60748E+03  2.38660E+03 -2.45893E+03 -1.15197E+02
 -9.14499E+02 -3.05559E+03  1.83508E+03 -3.23199E+03  2.51547E+03 -1.80846E+03  2.07306E+03  5.48559E+02
  1.43020E+03  8.60225E+02  7.55115E+02  3.97205E+02 -4.24437E+02  8.92220E+02  1.28734E+03 -3.14021E+02
  5.76164E+02 -1.76014E+02  3.11731E+03  7.52005E+02  8.51796E+02  3.97635E+03 -7.03972E+02  4.85898E+03
 -2.97757E+03  2.57906E+03 -3.96672E+03  7.44722E+02 -3.90439E+03 -1.37777E+03 -1.02733E+03 -2.26002E+03
  5.46098E+02 -2.50887E+03  1.66033E+03 -1.20267E+03  1.40563E+03  1.74978E+03 -9.03572E+02  2.22352E+03
 -2.45379E+03  1.19069E+03 -2.66641E+03 -1.63739E+03 -1.73886E+03 -3.88078E+03  5.11458E+02 -3.45583E+03
  1.24777E+03 -1.57484E+03  2.10695E+03 -2.55577E+01  2.05638E+03  5.15737E+02  4.02282E+02  1.72892E+03
 -1.01009E+03  4.37133E+02 -1.69336E+03 -1.02401E+03  1.00447E+03 -2.26423E+03  2.96762E+03 -2.03316E+03
  3.54560E+03  4.26126E+02  4.31542E+03  2.16368E+03  1.53610E+03  3.34747E+03 -1.20953E+03  3.75525E+03
 -3.09142E+03  1.14374E+03 -3.29283E+03 -6.08835E+02 -1.57429E+03 -2.62048E+03  6.65283E+02 -1.70096E+03
  2.74638E+03 -1.59156E+03  1.89803E+03  1.26102E+03  5.48090E+02  2.19288E+03  2.80297E+02  1.77102E+03
 -8.82987E+02  1.43339E+03 -4.21752E+02  3.23824E+02 -2.88265E+02  3.93106E+02 -1.07314E+03  9.83236E+02
 -7.53524E+02  1.62166E+03 -2.89297E+03  8.48474E+02 -3.62208E+03  3.47089E+02 -4.34952E+03 -2.10625E+03
 -2.06713E+03 -4.63129E+03  1.04857E+03 -5.39544E+03  2.92665E+03 -4.57456E+03  5.22712E+03 -1.80998E+03
  4.63382E+03  4.56491E+02  2.61954E+03  3.20593E+03 -4.17604E+02  3.43971E+03 -1.27406E+03  2.55551E+03
 -2.01394E+03  1.39223E+03 -9.33950E+02 -4.07475E+02 -6.99950E+02 -1.97519E+01 -4.88874E+02  2.74698E+02
 -1.22726E+03  1.97879E+02 -8.04664E+02  1.96743E+01  2.57333E+02 -8.42382E+02 -1.01005E+02 -1.48359E+03
  2.02215E+03 -1.21441E+03  1.64132E+03  4.30332E+01  2.39634E+03  1.74958E+03 -1.49492E+02  3.09865E+03
 -1.47893E+03  4.11204E+03 -3.78459E+03  2.35399E+03 -3.84140E+03 -6.58226E+02 -2.68951E+03 -2.46824E+03
 -1.33093E+03 -3.11182E+03  6.96457E+02 -2.82167E+03  1.57676E+03 -1.16342E+03  1.81417E+03  1.27836E+02
  1.27341E+03  1.13552E+03 -5.63374E+01  1.07415E+03 -6.95515E+02 -2.36702E+01 -3.18451E+02 -3.79906E+02
  1.04371E+03 -1.00359E+02  1.21681E+03  8.38963E+02  5.34131E+02  1.20220E+03  2.37712E+02  1.32667E+03
 -1.35484E+03  1.10006E+03 -1.88605E+03  5.52764E+01 -1.63906E+03 -1.17938E+03  1.16194E+02 -2.56295E+03
  1.33750E+03 -2.18465E+03  2.20737E+03 -5.41055E+02  2.39751E+03  3.50713E+01  9.49864E+02  1.96914E+03
  3.28637E+02  1.33980E+03 -3.92414E+02  1.68546E+03 -1.15733E+03  1.01534E+03 -7.78429E+02  4.16925E+01
 -4.72722E+02 -2.27512E+02 -8.71975E+02  1.87942E+02 -1.32655E+03  3.40134E+02 -1.48890E+03 -7.86961E+02
 -1.51966E+03 -3.22728E+02 -5.18997E+02 -2.18847E+03  7.66205E+02 -2.50869E+03  1.56417E+03 -8.11578E+02
  1.57161E+03  4.75521E+01  3.83910E+02  1.21463E+03 -5.47974E+02  1.57559E+03 -1.44658E+03  1.35161E+03
