 $NMID ID='MM_0lb_SNR800_11hz_g55_100.RAW', FMTDAT='(8E13.5)'
 TRAMP=1., VOLUME=1. $END
  3.09680E+05  1.23090E+02  3.38189E+05  2.50450E+05  8.47632E+04  3.38302E+05 -1.32921E+05  2.51496E+05
 -1.90727E+05  8.37261E+04 -1.12277E+05 -3.20774E+04  4.34843E+02 -5.06316E+04  5.34932E+04 -7.89398E+01
  3.54711E+04  5.26668E+04 -1.64897E+04  7.61634E+04 -6.10498E+04  6.41680E+04 -8.50839E+04  3.23623E+04
 -8.20608E+04 -1.19750E+04 -5.79917E+04 -5.20726E+04 -1.51379E+04 -7.04507E+04  2.75633E+04 -4.65180E+04
  4.09078E+04  3.69000E+03  1.66851E+04  4.83617E+04 -3.49116E+04  4.80448E+04 -6.79613E+04  2.76015E+02
 -5.47619E+04 -5.77376E+04 -6.92848E+03 -7.85352E+04  3.47264E+04 -5.66473E+04  4.93220E+04 -1.81098E+04
  4.46303E+04  1.16033E+04  3.26191E+04  2.63542E+04  1.60262E+04  3.06754E+04 -5.86899E+03  2.77269E+04
 -2.25234E+04  1.19650E+04 -1.85368E+04 -5.45951E+03  6.80149E+03 -7.49417E+03  2.31727E+04  1.36656E+04
  7.18297E+03  3.70316E+04 -3.32597E+04  3.68310E+04 -6.52476E+04  1.61720E+03 -5.81563E+04 -4.42327E+04
 -1.28151E+04 -6.51376E+04  4.13428E+04 -4.65251E+04  6.05666E+04 -2.79022E+03  3.59188E+04  3.38171E+04
 -5.55459E+03  3.88438E+04 -3.12838E+04  1.76932E+04 -3.24549E+04 -3.66625E+03 -1.82318E+04 -1.16690E+04
 -9.05481E+03 -1.47267E+04 -5.05063E+02 -1.93470E+04  8.21518E+03 -2.30247E+04  1.57106E+04 -1.24682E+04
  1.04696E+04  5.92559E+03 -9.78764E+03  1.29859E+04 -2.28644E+04 -6.28416E+03 -8.42296E+03 -3.66369E+04
  2.44114E+04 -4.60549E+04  5.12825E+04 -2.06167E+04  4.77558E+04  2.06337E+04  1.67049E+04  4.66284E+04
 -1.62032E+04  3.54149E+04 -2.67857E+04  2.70245E+03 -1.11953E+04 -2.92570E+04  2.13938E+04 -3.59830E+04
  4.32012E+04 -1.06160E+04  3.88817E+04  2.44976E+04  2.05449E+04  4.95173E+04 -8.43764E+03  5.44746E+04
 -3.40914E+04  3.68643E+04 -4.60681E+04  1.05737E+04 -4.61430E+04 -1.80289E+04 -2.52494E+04 -4.10322E+04
  7.99502E+03 -4.04485E+04  3.34299E+04 -1.61399E+04  3.09896E+04  1.14433E+04  4.78959E+03  1.99845E+04
 -1.38743E+04  9.06337E+03 -1.12562E+04 -7.61443E+03  5.88485E+03 -1.08958E+04  1.87414E+04  5.72227E+03
  1.49429E+04  2.25117E+04 -5.40661E+03  2.64799E+04 -2.26508E+04  1.37286E+04 -3.04387E+04 -3.39994E+03
 -2.40724E+04 -1.81285E+04 -1.06794E+04 -2.40226E+04  4.21854E+03 -2.41218E+04  1.86464E+04 -2.15418E+04
  3.05007E+04 -1.39529E+04  3.62227E+04  4.34631E+03  2.59687E+04  2.33991E+04  4.27819E+03  3.99843E+04
 -1.87096E+04  3.29632E+04 -2.93713E+04  1.14744E+04 -2.22384E+04 -1.03630E+04 -4.67052E+03 -1.33855E+04
  1.01119E+03 -1.36260E+03 -6.97742E+03  7.73581E+03 -1.91811E+04  5.23464E+03 -1.89956E+04 -8.92417E+03
 -1.12784E+04 -2.19991E+04  6.14556E+03 -2.64445E+04  1.75673E+04 -1.86665E+04  2.11801E+04 -1.74942E+03
  1.36597E+04  1.53196E+04 -1.02481E+03  2.19516E+04 -1.57783E+04  1.27166E+04 -2.22121E+04 -4.51902E+03
 -1.61962E+04 -1.96994E+04 -2.07105E+03 -2.64169E+04  1.19463E+04 -2.24558E+04  2.19001E+04 -1.14020E+04
  2.05392E+04  9.58484E+01  1.49607E+04  4.79234E+03  8.29129E+03  1.36266E+03  1.15208E+04 -1.96824E+03
  2.05049E+04  2.93803E+03  2.33269E+04  1.73243E+04  1.62797E+04  3.55680E+04 -2.78447E+03  4.14191E+04
 -2.36850E+04  3.38320E+04 -3.88455E+04  1.71612E+04 -4.10165E+04 -2.98699E+03 -3.32221E+04 -2.41290E+04
 -1.32722E+04 -3.43899E+04  1.23955E+04 -3.00705E+04  2.60991E+04 -1.45545E+04  2.25836E+04  7.25448E+03
  7.72164E+03  1.70621E+04 -1.08423E+04  1.44132E+04 -1.90150E+04  2.68506E+03 -1.46065E+04 -1.19729E+04
 -2.23541E+02 -1.78723E+04  9.44551E+03 -1.37737E+04  1.23623E+04 -1.35599E+03  3.11264E+03  8.44825E+03
 -7.84956E+03  3.79251E+03 -8.14534E+03 -6.47980E+03 -1.69662E+03 -1.68932E+04  1.10219E+04 -1.77885E+04
  2.06743E+04 -1.01415E+04  2.35224E+04  3.05984E+03  2.03354E+04  1.66206E+04  9.80414E+03  2.61714E+04
 -4.78398E+03  2.77207E+04 -1.83333E+04  1.75970E+04 -2.06078E+04  3.67051E+03 -1.44364E+04 -5.18110E+03
 -6.11203E+03 -6.44198E+03 -6.31173E+02  4.12734E+02 -2.51068E+03  3.28819E+03 -6.57392E+03  5.16471E+03
 -1.30159E+04 -6.37390E+02 -1.34408E+04 -1.09360E+04 -5.48164E+03 -1.77921E+04  6.05711E+03 -1.43331E+04
  1.20304E+04 -5.70484E+03  8.31115E+03  4.11424E+03 -2.97568E+02  5.58933E+03 -7.09245E+03  7.09903E+00
 -6.81541E+03 -9.10128E+03 -6.37152E+02 -1.43012E+04  8.16228E+03 -1.46450E+04  1.81016E+04 -7.72127E+03
  2.08983E+04  1.57056E+03  1.52492E+04  1.28254E+04  2.99907E+03  1.69242E+04 -8.80861E+03  1.37253E+04
 -1.16379E+04  3.90505E+03 -5.85157E+03 -3.26045E+03  1.86744E+03 -4.14821E+03  7.70907E+03 -1.09425E+03
  6.74511E+03  6.49047E+03  1.36939E+03  1.11087E+04 -8.57188E+03  1.10836E+04 -1.35616E+04  2.56806E+03
 -9.63992E+03 -7.50046E+03  1.43485E+02 -1.19262E+04  7.69072E+03 -5.98396E+03  7.96956E+03  2.90349E+03
  1.80765E+03  8.72662E+03 -7.32635E+03  1.02793E+04 -1.14333E+04  4.65806E+03 -1.19078E+04 -4.02008E+03
 -6.75987E+03 -1.36577E+04  3.52353E+03 -1.56508E+04  1.30859E+04 -9.56834E+03  1.45895E+04  2.19619E+03
  8.92831E+03  1.15975E+04 -1.23733E+03  1.36906E+04 -9.96323E+03  7.44629E+03 -1.11079E+04 -1.06514E+03
 -9.56436E+03 -9.21838E+03 -1.59735E+03 -9.97493E+03  5.69739E+03 -8.87010E+03  6.51473E+03 -3.51128E+03
  4.66286E+03  1.82660E+03 -7.72363E+02  1.77027E+03 -1.46423E+02 -2.82256E+03  2.08120E+03 -6.31737E+03
  9.79225E+03 -3.69492E+03  1.37465E+04  1.69785E+03  1.36624E+04  9.00908E+03  9.42158E+03  1.79745E+04
 -4.03280E+03  2.01884E+04 -1.70751E+04  1.55562E+04 -2.22541E+04  3.23695E+03 -1.74450E+04 -7.55448E+03
 -9.23176E+03 -1.48810E+04 -8.07071E+01 -1.23879E+04  4.85834E+03 -6.58820E+03  4.30363E+03 -4.43739E+03
  3.03858E+03 -2.53239E+03  3.32264E+03 -3.59320E+03  5.27561E+03 -2.91632E+03  7.17669E+03 -6.87379E+02
  9.47432E+03  1.95650E+03  4.68154E+03  7.90944E+03 -2.34828E+03  9.24495E+03 -9.75934E+03  7.11998E+03
 -1.25364E+04 -1.42820E+03 -7.32530E+03 -9.12082E+03 -1.00130E+03 -1.31998E+04  7.55562E+03 -1.34281E+04
  1.39386E+04 -7.21317E+03  1.63508E+04  2.05225E+03  1.15712E+04  1.14729E+04  1.82128E+03  1.50246E+04
 -6.18604E+03  1.25047E+04 -8.58783E+03  4.29202E+03 -5.80311E+03 -1.43042E+03 -2.36806E+03 -2.14428E+03
 -1.13380E+03  2.22103E+02 -2.33151E+03  2.58009E+03 -5.64552E+03  2.32482E+03 -8.75962E+03 -1.18269E+03
 -5.84334E+03 -8.46805E+03  1.55884E+02 -1.21242E+04  7.55060E+03 -1.13111E+04  1.20740E+04 -3.32472E+03
  1.20839E+04  5.71795E+03  5.44688E+03  1.07178E+04 -2.52707E+03  1.22379E+04 -8.74426E+03  7.46764E+03
 -1.13612E+04  4.90198E+02 -8.91336E+03 -7.45446E+03 -1.18038E+03 -1.01915E+04  5.59945E+03 -7.34271E+03
  7.51049E+03 -2.59704E+03  5.38311E+03  2.39871E+03  1.56282E+03  3.53669E+03  1.43194E+03  1.67866E+03
  2.35523E+03  6.19562E+02  2.82530E+03  1.69182E+03  3.37874E+03  4.30427E+03  3.47659E+03  6.59379E+03
 -2.62657E+03  9.52383E+03 -8.79043E+03  9.54812E+03 -1.23337E+04  2.51101E+03 -1.26170E+04 -4.80240E+03
 -5.68849E+03 -1.23696E+04  2.03197E+03 -1.35065E+04  7.47168E+03 -8.68295E+03  9.73431E+03 -2.24755E+03
  7.71080E+03  4.42816E+03  1.61280E+03  7.12065E+03 -3.50267E+03  4.72054E+03 -5.02995E+03 -7.61230E+02
 -2.38526E+03 -5.07160E+03  3.03576E+03 -5.35819E+03  4.28906E+03 -2.70460E+03  4.24967E+03  8.51471E+02
  2.56231E+03  2.36108E+03  1.38714E+03  1.86293E+03 -9.02195E+02  1.60442E+03  1.42149E+03 -5.52715E+02
  2.05457E+03 -2.47044E+02  4.97750E+03  1.86508E+03  2.79136E+03  6.51239E+03 -9.80053E+02  8.53964E+03
 -6.31303E+03  5.30039E+03 -7.54959E+03  1.29301E+03 -7.14827E+03 -2.39843E+03 -2.54256E+03 -4.50531E+03
  6.40907E+02 -4.68695E+03  3.20007E+03 -2.36020E+03  2.51766E+03  2.24889E+03 -1.07453E+03  3.79928E+03
 -4.77560E+03  1.94026E+03 -5.37195E+03 -3.24192E+03 -3.04920E+03 -6.58091E+03  1.26572E+03 -6.31565E+03
  3.76819E+03 -3.90210E+03  4.78837E+03 -5.26280E+02  3.86793E+03  1.35936E+03  9.30275E+02  3.78638E+03
 -1.78308E+03  1.23877E+03 -2.86084E+03 -1.97894E+03  1.30206E+03 -5.06773E+03  5.44404E+03 -3.54987E+03
  7.12952E+03  6.75097E+02  7.13601E+03  4.61069E+03  2.57471E+03  7.61643E+03 -2.65055E+03  7.17100E+03
 -6.01646E+03  3.13545E+03 -6.35785E+03 -6.79787E+02 -3.60195E+03 -4.99415E+03  8.53456E+02 -4.29431E+03
  4.88142E+03 -2.02320E+03  3.83402E+03  1.77717E+03  1.08696E+03  4.41499E+03 -5.55026E+02  3.64525E+03
 -1.81244E+03  2.63408E+03 -1.48027E+03  7.83245E+02 -7.68136E+02  9.32723E+02 -1.45220E+03  1.65194E+03
 -1.85890E+03  2.99631E+03 -5.55825E+03  2.70211E+03 -7.63595E+03  4.38462E+01 -8.63745E+03 -4.77416E+03
 -4.23299E+03 -9.83583E+03  2.20024E+03 -1.12167E+04  6.89472E+03 -8.82922E+03  1.07917E+04 -3.55942E+03
  1.00813E+04  1.42877E+03  6.22797E+03  6.69227E+03  2.26104E+02  7.94642E+03 -3.00075E+03  5.38898E+03
 -4.53436E+03  2.47878E+03 -2.91366E+03 -1.10627E+03 -7.93714E+02 -3.88696E+02 -2.38103E+02 -8.58437E+01
 -1.41457E+03  5.78891E+02 -1.75586E+03 -5.86850E+01 -4.51559E+02 -1.58833E+03  2.69543E+02 -2.97353E+03
  3.61477E+03 -2.55727E+03  4.36094E+03  7.21989E+01  5.23769E+03  4.18527E+03  1.17700E+03  7.39123E+03
 -3.59366E+03  8.84752E+03 -7.95872E+03  5.30718E+03 -8.97914E+03 -5.86257E+02 -6.88937E+03 -5.20781E+03
 -3.17395E+03 -7.95218E+03  2.25671E+03 -7.21687E+03  4.55245E+03 -3.84062E+03  4.54538E+03  3.03768E+02
  2.76400E+03  2.43098E+03 -1.49906E+02  1.70993E+03 -1.72121E+03 -3.31356E+02 -2.07954E+02 -1.89259E+03
  2.10884E+03 -1.06338E+03  3.16654E+03  7.70219E+02  1.65409E+03  3.05721E+03  3.22072E+02  3.72004E+03
 -3.30620E+03  3.53367E+03 -4.66526E+03  3.99303E+02 -4.72661E+03 -3.35341E+03 -4.71766E+02 -6.16190E+03
  3.44390E+03 -5.23552E+03  5.41148E+03 -1.53905E+03  5.26341E+03  1.33793E+03  3.03045E+03  4.75328E+03
  7.45989E+02  4.81244E+03 -1.91274E+03  3.88489E+03 -3.40698E+03  1.95174E+03 -3.07306E+03  6.84419E+02
 -1.10765E+03 -2.14855E+02 -1.56196E+03  4.56363E+02 -2.57330E+03  6.96751E+02 -3.75330E+03 -1.03740E+03
 -3.56387E+03 -2.32539E+03 -1.46325E+03 -4.57197E+03  2.58121E+03 -5.14441E+03  4.53182E+03 -1.99685E+03
  4.68095E+03  8.16289E+02  2.38225E+03  3.17389E+03 -3.98915E+02  4.84295E+03 -3.28181E+03  3.34188E+03
