 $NMID ID='MM_0lb_SNR800_12hz_g50_35.RAW', FMTDAT='(8E13.5)'
 TRAMP=1., VOLUME=1. $END
  3.09865E+05  5.66874E+02  3.37583E+05  2.50846E+05  8.47260E+04  3.37965E+05 -1.32600E+05  2.51395E+05
 -1.90667E+05  8.31838E+04 -1.12057E+05 -3.27076E+04  7.61853E+02 -5.10108E+04  5.34625E+04 -2.26361E+02
  3.52167E+04  5.26751E+04 -1.67317E+04  7.54046E+04 -6.08569E+04  6.38248E+04 -8.46813E+04  3.22450E+04
 -8.14381E+04 -1.11564E+04 -5.75824E+04 -5.18666E+04 -1.53051E+04 -7.01716E+04  2.80566E+04 -4.58446E+04
  4.04286E+04  3.82931E+03  1.65493E+04  4.77191E+04 -3.45145E+04  4.73785E+04 -6.71443E+04  1.05878E+02
 -5.38990E+04 -5.72644E+04 -6.87686E+03 -7.79812E+04  3.43222E+04 -5.60172E+04  4.86932E+04 -1.76037E+04
  4.39322E+04  1.14042E+04  3.22809E+04  2.62642E+04  1.59746E+04  3.01018E+04 -5.61963E+03  2.73459E+04
 -2.22155E+04  1.20221E+04 -1.84515E+04 -5.13241E+03  6.27812E+03 -7.75025E+03  2.25992E+04  1.27494E+04
  7.26295E+03  3.63353E+04 -3.30900E+04  3.64321E+04 -6.48590E+04  2.27245E+03 -5.78755E+04 -4.35749E+04
 -1.26764E+04 -6.40319E+04  4.05421E+04 -4.65190E+04  5.92926E+04 -2.49335E+03  3.52504E+04  3.30476E+04
 -5.91103E+03  3.75018E+04 -3.10216E+04  1.71533E+04 -3.15405E+04 -4.10892E+03 -1.79848E+04 -1.12914E+04
 -9.10152E+03 -1.36978E+04 -4.25972E+02 -1.88198E+04  8.20284E+03 -2.29982E+04  1.56016E+04 -1.28339E+04
  1.06070E+04  5.80678E+03 -9.17251E+03  1.30422E+04 -2.21694E+04 -5.03587E+03 -8.70593E+03 -3.50278E+04
  2.34688E+04 -4.50080E+04  4.97780E+04 -2.03993E+04  4.65688E+04  1.97485E+04  1.61898E+04  4.53291E+04
 -1.61404E+04  3.41703E+04 -2.61355E+04  2.13592E+03 -1.05113E+04 -2.84989E+04  2.11101E+04 -3.54175E+04
  4.25158E+04 -9.75721E+03  3.75984E+04  2.44857E+04  1.93360E+04  4.83212E+04 -7.95056E+03  5.26860E+04
 -3.31588E+04  3.55031E+04 -4.43578E+04  1.07131E+04 -4.48306E+04 -1.75683E+04 -2.46361E+04 -3.94756E+04
  7.60548E+03 -3.94326E+04  3.28928E+04 -1.56826E+04  3.02804E+04  1.11072E+04  4.68280E+03  1.98140E+04
 -1.36677E+04  8.81314E+03 -1.07592E+04 -7.86262E+03  5.67150E+03 -1.10842E+04  1.82034E+04  5.99495E+03
  1.41550E+04  2.24663E+04 -5.76391E+03  2.59304E+04 -2.29190E+04  1.26662E+04 -2.96132E+04 -3.98789E+03
 -2.25691E+04 -1.77042E+04 -9.51565E+03 -2.22145E+04  4.21846E+03 -2.21738E+04  1.73760E+04 -2.00643E+04
  2.83877E+04 -1.32308E+04  3.46998E+04  3.64447E+03  2.52975E+04  2.15391E+04  4.25148E+03  3.83170E+04
 -1.84856E+04  3.19141E+04 -2.90485E+04  1.09274E+04 -2.14158E+04 -1.07445E+04 -4.68207E+03 -1.32042E+04
  1.42610E+03 -1.89536E+03 -5.83551E+03  7.51535E+03 -1.81603E+04  4.89378E+03 -1.77637E+04 -8.40704E+03
 -1.08176E+04 -2.08059E+04  5.81342E+03 -2.46345E+04  1.62477E+04 -1.80044E+04  1.97225E+04 -1.70081E+03
  1.27452E+04  1.44633E+04 -1.13861E+03  2.05866E+04 -1.46151E+04  1.15865E+04 -2.06423E+04 -4.14479E+03
 -1.54780E+04 -1.88826E+04 -1.99536E+03 -2.46356E+04  1.16620E+04 -2.05396E+04  2.08138E+04 -1.03563E+04
  1.93658E+04  3.21435E+02  1.38500E+04  4.73288E+03  7.43712E+03  1.24569E+03  1.09267E+04 -2.05411E+03
  1.91451E+04  2.50302E+03  2.16268E+04  1.64617E+04  1.45035E+04  3.32136E+04 -2.68079E+03  3.76133E+04
 -2.19711E+04  3.10482E+04 -3.53998E+04  1.60180E+04 -3.76570E+04 -2.66712E+03 -3.07890E+04 -2.23077E+04
 -1.29669E+04 -3.15715E+04  1.09156E+04 -2.79271E+04  2.45931E+04 -1.35480E+04  2.07172E+04  6.31215E+03
  7.60848E+03  1.58074E+04 -9.93144E+03  1.38440E+04 -1.76482E+04  3.00947E+03 -1.33914E+04 -1.11550E+04
 -1.01092E+02 -1.67982E+04  9.01757E+03 -1.25396E+04  1.13112E+04 -1.45593E+03  2.57406E+03  7.47025E+03
 -7.75108E+03  3.01167E+03 -7.56414E+03 -6.28756E+03 -9.17219E+02 -1.52184E+04  1.01904E+04 -1.61967E+04
  1.88496E+04 -8.65088E+03  2.09286E+04  3.13012E+03  1.85018E+04  1.50644E+04  8.50825E+03  2.37221E+04
 -4.03230E+03  2.55733E+04 -1.66804E+04  1.58661E+04 -1.86794E+04  3.70362E+03 -1.28165E+04 -4.19275E+03
 -5.41626E+03 -6.11005E+03 -8.96730E+02  3.60162E+02 -2.52688E+03  3.11171E+03 -5.96604E+03  4.68238E+03
 -1.15896E+04 -7.75489E+02 -1.24957E+04 -1.05725E+04 -4.88417E+03 -1.64636E+04  5.42384E+03 -1.31326E+04
  1.07853E+04 -5.53816E+03  7.82954E+03  3.60084E+03  1.99281E+02  4.97697E+03 -6.33118E+03 -2.85511E+02
 -6.02526E+03 -8.30961E+03 -1.19705E+03 -1.23483E+04  7.54321E+03 -1.31573E+04  1.60825E+04 -7.03298E+03
  1.91145E+04  1.79681E+03  1.43604E+04  1.14865E+04  2.84695E+03  1.52791E+04 -7.89364E+03  1.28122E+04
 -1.03774E+04  3.89889E+03 -5.35857E+03 -2.81725E+03  2.20404E+03 -3.64902E+03  6.65291E+03 -1.06031E+03
  6.27815E+03  5.31009E+03  1.28474E+03  1.02516E+04 -7.29527E+03  9.78571E+03 -1.26228E+04  2.40447E+03
 -8.58204E+03 -6.57912E+03  3.41106E+02 -1.07039E+04  6.78002E+03 -5.14712E+03  6.90260E+03  2.54270E+03
  1.62539E+03  7.75537E+03 -6.77838E+03  8.87195E+03 -1.05013E+04  4.39288E+03 -1.03152E+04 -3.77723E+03
 -6.20705E+03 -1.19569E+04  2.72554E+03 -1.37364E+04  1.19977E+04 -8.45704E+03  1.24532E+04  2.13678E+03
  8.21791E+03  9.77634E+03 -7.41362E+02  1.20293E+04 -8.93920E+03  7.27868E+03 -9.79652E+03 -9.65412E+02
 -8.50155E+03 -8.30234E+03 -1.51373E+03 -9.08602E+03  4.95326E+03 -7.96064E+03  5.94363E+03 -3.74128E+03
  4.03257E+03  1.24831E+03 -8.32582E+02  1.61788E+03 -3.73000E+02 -1.93715E+03  1.32646E+03 -5.01352E+03
  8.54678E+03 -3.42531E+03  1.16494E+04  1.38362E+03  1.17508E+04  8.11491E+03  8.13628E+03  1.56842E+04
 -3.66867E+03  1.82237E+04 -1.50492E+04  1.30351E+04 -1.94589E+04  2.52640E+03 -1.55226E+04 -6.67762E+03
 -7.90755E+03 -1.27348E+04 -5.78567E+02 -1.07918E+04  4.09706E+03 -5.82147E+03  3.91864E+03 -4.17892E+03
  3.05297E+03 -2.38572E+03  3.26177E+03 -2.95499E+03  5.30203E+03 -2.90536E+03  6.25343E+03 -8.85874E+02
  8.19390E+03  1.77861E+03  4.05836E+03  6.57147E+03 -1.83845E+03  8.07221E+03 -8.28548E+03  6.21552E+03
 -1.04954E+04 -9.68925E+02 -6.35831E+03 -7.63650E+03 -5.46237E+02 -1.13035E+04  6.38449E+03 -1.11520E+04
  1.18887E+04 -6.70651E+03  1.37250E+04  1.82739E+03  1.00807E+04  9.49391E+03  1.70569E+03  1.28819E+04
 -5.30399E+03  1.08535E+04 -7.38919E+03  3.99696E+03 -5.18540E+03 -1.44668E+03 -1.53179E+03 -1.55134E+03
 -8.41002E+02 -1.97885E+02 -1.88416E+03  2.76815E+03 -4.39064E+03  1.89006E+03 -7.67766E+03 -9.06344E+02
 -4.78029E+03 -7.43619E+03  4.25719E+02 -1.05238E+04  6.49353E+03 -9.90202E+03  9.89267E+03 -2.98993E+03
  1.03166E+04  4.79225E+03  4.56684E+03  9.12731E+03 -1.88106E+03  1.03546E+04 -7.18004E+03  6.21420E+03
 -9.53149E+03  4.69386E+02 -7.69461E+03 -6.35596E+03 -6.28242E+02 -8.26874E+03  4.50288E+03 -6.03290E+03
  6.63621E+03 -2.22401E+03  4.43271E+03  2.12908E+03  1.48758E+03  3.04746E+03  1.13815E+03  1.66958E+03
  2.42700E+03  8.72820E+02  2.43234E+03  1.90827E+03  2.93655E+03  3.50249E+03  2.55074E+03  5.28963E+03
 -2.30620E+03  8.01579E+03 -7.16959E+03  8.71252E+03 -9.81057E+03  2.15069E+03 -1.07749E+04 -4.16982E+03
 -5.10554E+03 -1.00814E+04  1.90746E+03 -1.16059E+04  5.98223E+03 -6.85274E+03  8.17723E+03 -2.07447E+03
  6.88991E+03  4.13901E+03  1.51280E+03  5.67557E+03 -2.63625E+03  3.35033E+03 -3.66374E+03 -3.80628E+02
 -1.83764E+03 -4.84530E+03  2.72981E+03 -4.12597E+03  4.20972E+03 -2.42565E+03  3.88904E+03  3.89880E+02
  2.33481E+03  1.69079E+03  1.07640E+03  1.16337E+03 -6.36487E+02  1.35462E+03  1.51375E+03 -5.73029E+01
  1.40857E+03 -4.41848E+02  4.03893E+03  1.64557E+03  1.88634E+03  5.55736E+03 -9.62448E+02  6.93818E+03
 -4.82436E+03  4.24448E+03 -6.11298E+03  1.23470E+03 -5.77067E+03 -2.21951E+03 -1.98522E+03 -3.97885E+03
  7.89775E+02 -3.83612E+03  2.48576E+03 -1.44288E+03  1.97179E+03  2.10107E+03 -1.05995E+03  3.07649E+03
 -3.87922E+03  1.88414E+03 -4.68518E+03 -2.60846E+03 -2.44319E+03 -5.85600E+03  7.25484E+02 -5.29021E+03
  2.97686E+03 -3.05058E+03  3.75503E+03 -3.71927E+02  3.33817E+03  9.26909E+02  2.87939E+02  2.71234E+03
 -1.67684E+03  9.48535E+02 -2.31151E+03 -1.34663E+03  7.88345E+02 -3.65962E+03  4.80004E+03 -3.07549E+03
  5.84613E+03  4.46260E+02  6.20601E+03  3.92427E+03  2.53070E+03  5.97221E+03 -1.83746E+03  5.85222E+03
 -5.25315E+03  2.57424E+03 -5.13633E+03 -5.05812E+02 -2.71344E+03 -4.12053E+03  8.02496E+02 -3.47006E+03
  3.89499E+03 -1.82418E+03  3.11194E+03  1.97066E+03  1.02634E+03  3.25564E+03 -4.58102E+02  3.42037E+03
 -1.09502E+03  2.01074E+03 -1.68722E+03  5.11994E+02 -6.39157E+02  6.66925E+02 -1.32182E+03  1.41353E+03
 -1.84648E+03  2.63003E+03 -4.14653E+03  1.95556E+03 -5.93536E+03  1.81446E+02 -6.87550E+03 -3.88424E+03
 -3.26632E+03 -7.86950E+03  1.66832E+03 -9.43623E+03  5.55593E+03 -7.23963E+03  8.72352E+03 -2.74192E+03
  8.09310E+03  1.35930E+03  4.71282E+03  5.15441E+03  6.16682E+02  5.99818E+03 -2.45852E+03  4.62522E+03
 -3.36029E+03  1.89419E+03 -1.85026E+03 -7.85845E+02 -7.20690E+02 -4.34712E+02 -6.48578E+02 -9.84835E+00
 -1.68231E+03  7.03283E+01 -1.49283E+03 -2.65181E+02  2.19351E+02 -1.51417E+03 -1.47106E+02 -2.04048E+03
  3.14707E+03 -1.78734E+03  3.06066E+03  3.50318E+02  4.17866E+03  3.12009E+03  4.06368E+02  6.07729E+03
 -2.75031E+03  6.79732E+03 -6.31871E+03  4.36399E+03 -7.16456E+03 -6.30762E+02 -5.52026E+03 -4.53429E+03
 -2.17439E+03 -5.58699E+03  1.54468E+03 -5.51375E+03  3.63567E+03 -2.93828E+03  3.55635E+03 -5.16061E+00
  2.51743E+03  1.81117E+03 -2.83735E+02  1.99756E+03 -1.05188E+03 -1.33292E+02 -7.20104E+01 -1.54378E+03
  1.78963E+03 -5.20167E+02  2.02859E+03  9.66777E+02  1.10192E+03  1.92547E+03  3.67330E+02  3.01777E+03
 -2.46194E+03  2.85392E+03 -3.93041E+03  3.02820E+02 -3.25860E+03 -2.39639E+03 -4.46519E+02 -4.77079E+03
  2.63699E+03 -4.03434E+03  4.25011E+03 -1.14463E+03  4.23498E+03  3.21719E+02  2.02702E+03  3.74568E+03
  6.36772E+02  3.79083E+03 -1.31390E+03  2.92947E+03 -2.51126E+03  1.78596E+03 -1.86327E+03  3.97242E+02
 -1.06368E+03  4.04043E+02 -1.42323E+03  5.67025E+02 -1.92439E+03  5.46195E+02 -2.61818E+03 -2.64284E+02
 -3.13640E+03 -1.58247E+03 -9.15314E+02 -3.72269E+03  1.92180E+03 -4.30972E+03  3.36150E+03 -1.43922E+03
  3.71939E+03  3.75032E+02  1.60528E+03  2.24891E+03  4.89636E+01  3.93560E+03 -2.62557E+03  2.33856E+03
