 $NMID ID='MM_0lb_SNR800_19hz_g50_11.RAW', FMTDAT='(8E13.5)'
 TRAMP=1., VOLUME=1. $END
  3.09910E+05  3.93668E+02  3.37505E+05  2.50454E+05  8.43679E+04  3.37446E+05 -1.32617E+05  2.50433E+05
 -1.89759E+05  8.24612E+04 -1.11006E+05 -3.29770E+04  1.24901E+03 -5.03403E+04  5.38775E+04  7.37324E+01
  3.50445E+04  5.28573E+04 -1.70989E+04  7.52000E+04 -6.03548E+04  6.26264E+04 -8.29479E+04  3.17041E+04
 -7.99210E+04 -1.13290E+04 -5.60631E+04 -5.03833E+04 -1.49503E+04 -6.84269E+04  2.66493E+04 -4.49029E+04
  3.89017E+04  3.95934E+03  1.55309E+04  4.66580E+04 -3.39724E+04  4.62190E+04 -6.53519E+04 -8.07666E+02
 -5.19062E+04 -5.57724E+04 -6.34133E+03 -7.51489E+04  3.32550E+04 -5.33643E+04  4.61627E+04 -1.64634E+04
  4.18179E+04  1.12721E+04  3.10120E+04  2.46713E+04  1.58010E+04  2.82425E+04 -4.74363E+03  2.66674E+04
 -2.17349E+04  1.26765E+04 -1.90512E+04 -4.40791E+03  4.30903E+03 -7.57648E+03  2.11998E+04  1.11585E+04
  7.53668E+03  3.32862E+04 -3.04612E+04  3.43040E+04 -6.11924E+04  1.88315E+03 -5.53844E+04 -4.12325E+04
 -1.24731E+04 -6.09203E+04  3.84976E+04 -4.35761E+04  5.55826E+04 -1.86651E+03  3.19349E+04  3.08402E+04
 -6.60010E+03  3.32707E+04 -2.82616E+04  1.37601E+04 -2.78522E+04 -5.22948E+03 -1.46162E+04 -1.01277E+04
 -7.37389E+03 -1.13131E+04 -8.62151E+02 -1.67867E+04  6.38541E+03 -2.26114E+04  1.49154E+04 -1.38709E+04
  1.22198E+04  4.36719E+03 -6.19722E+03  1.32158E+04 -1.90720E+04 -2.66860E+03 -7.91485E+03 -3.03490E+04
  2.08063E+04 -4.03538E+04  4.48210E+04 -1.88864E+04  4.21943E+04  1.82307E+04  1.43386E+04  4.18584E+04
 -1.53464E+04  3.11364E+04 -2.31252E+04  1.27186E+03 -8.17777E+03 -2.63673E+04  2.06568E+04 -3.14276E+04
  3.79640E+04 -7.50151E+03  3.15058E+04  2.25083E+04  1.51776E+04  4.28441E+04 -7.58822E+03  4.53182E+04
 -2.84788E+04  2.98804E+04 -3.73379E+04  8.33595E+03 -3.83793E+04 -1.51339E+04 -2.13284E+04 -3.44157E+04
  6.93039E+03 -3.41211E+04  2.92820E+04 -1.29658E+04  2.68395E+04  1.06168E+04  3.32137E+03  1.77522E+04
 -1.30742E+04  7.10368E+03 -9.39135E+03 -7.70470E+03  6.00005E+03 -1.03415E+04  1.72164E+04  6.36448E+03
  1.22406E+04  2.15032E+04 -6.79568E+03  2.33331E+04 -2.15224E+04  9.24719E+03 -2.53024E+04 -6.22498E+03
 -1.68134E+04 -1.62367E+04 -5.66273E+03 -1.66232E+04  3.87556E+03 -1.46610E+04  1.27131E+04 -1.42918E+04
  2.10420E+04 -1.15457E+04  2.81036E+04  9.01477E+02  2.14701E+04  1.62239E+04  4.27284E+03  3.24294E+04
 -1.61845E+04  2.73804E+04 -2.57309E+04  9.38805E+03 -1.93559E+04 -1.04398E+04 -3.90060E+03 -1.39357E+04
  2.84662E+03 -4.08095E+03 -2.85338E+03  4.95814E+03 -1.28422E+04  5.35504E+03 -1.33230E+04 -4.85977E+03
 -8.59204E+03 -1.56074E+04  4.22607E+03 -1.93204E+04  1.26889E+04 -1.39522E+04  1.44039E+04 -1.25541E+03
  8.71962E+03  1.06648E+04 -9.43516E+02  1.57428E+04 -1.02692E+04  8.75323E+03 -1.51411E+04 -3.21509E+03
 -1.18215E+04 -1.40673E+04 -1.48579E+03 -1.89749E+04  8.56398E+03 -1.52302E+04  1.59257E+04 -7.37316E+03
  1.45306E+04  7.05353E+02  1.03602E+04  3.63047E+03  5.00950E+03  6.64232E+02  7.65285E+03 -1.22396E+03
  1.38976E+04  2.52326E+03  1.47278E+04  1.26042E+04  8.77732E+03  2.46481E+04 -3.09170E+03  2.63051E+04
 -1.57035E+04  2.00629E+04 -2.43382E+04  9.49129E+03 -2.48071E+04 -1.48583E+03 -2.10039E+04 -1.39894E+04
 -9.85529E+03 -2.01693E+04  6.91101E+03 -1.87583E+04  1.64551E+04 -1.06867E+04  1.51930E+04  3.56965E+03
  6.24996E+03  1.09376E+04 -6.93355E+03  1.04131E+04 -1.32948E+04  2.50163E+03 -1.02442E+04 -7.91178E+03
 -1.59065E+02 -1.23990E+04  6.06218E+03 -9.15013E+03  7.70145E+03 -1.15642E+03  1.48664E+03  4.48237E+03
 -5.47352E+03  1.18310E+03 -3.53739E+03 -4.85685E+03  5.73662E+02 -1.01743E+04  8.00507E+03 -1.01364E+04
  1.20052E+04 -4.36745E+03  1.16642E+04  2.71973E+03  1.01789E+04  9.50881E+03  4.66741E+03  1.36607E+04
 -1.64160E+03  1.55947E+04 -9.42324E+03  9.80350E+03 -1.09760E+04  2.88195E+03 -8.23312E+03 -1.68075E+03
 -4.55450E+03 -3.10489E+03 -6.64331E+02  1.57008E+03 -2.02731E+03  1.82745E+03 -3.45751E+03  3.40286E+03
 -7.85074E+03 -4.53279E+02 -8.79406E+03 -7.23276E+03 -3.24437E+03 -1.14340E+04  3.50146E+03 -8.06084E+03
  6.80479E+03 -3.60016E+03  5.24580E+03  1.89682E+03  4.74247E+02  3.01210E+03 -3.15964E+03  2.89977E+00
 -3.57165E+03 -4.92330E+03 -7.75788E+02 -7.27618E+03  3.91392E+03 -7.80337E+03  9.75519E+03 -3.88799E+03
  1.14224E+04  5.93015E+02  8.76693E+03  5.99430E+03  1.69576E+03  8.40994E+03 -5.34998E+03  8.39965E+03
 -6.90397E+03  2.76868E+03 -3.42190E+03 -1.28731E+03  1.29309E+03 -1.89016E+03  4.42932E+03 -9.78917E+02
  4.13538E+03  3.34785E+03  1.20015E+03  6.25786E+03 -4.41277E+03  6.35436E+03 -7.73998E+03  1.88033E+03
 -4.74322E+03 -3.62116E+03  5.28098E+02 -6.49076E+03  3.53479E+03 -3.31351E+03  3.33535E+03  8.80566E+02
  4.93007E+02  3.27966E+03 -3.76717E+03  4.83936E+03 -4.70803E+03  2.15994E+03 -4.33944E+03 -1.11515E+03
 -2.98539E+03 -5.72999E+03  1.32032E+03 -7.08384E+03  5.57625E+03 -4.71107E+03  6.01283E+03  6.75382E+02
  4.17298E+03  5.14511E+03  1.45202E+02  6.80331E+03 -4.85537E+03  4.11772E+03 -5.00798E+03 -5.82294E+02
 -5.58865E+03 -5.04192E+03 -1.29280E+03 -4.82478E+03  2.23783E+03 -4.50250E+03  2.85745E+03 -2.85192E+03
  2.74925E+03 -1.65218E+02  6.35565E+01  1.53809E+03  6.23452E+02 -3.91828E+02  2.69420E+02 -1.89483E+03
  3.77531E+03 -5.34826E+02  4.97150E+03  7.88387E+02  5.28304E+03  2.85359E+03  5.09815E+03  6.82492E+03
 -1.38531E+03  8.18655E+03 -7.25079E+03  6.28807E+03 -9.22503E+03  1.04196E+03 -7.12231E+03 -2.42951E+03
 -4.03514E+03 -6.29274E+03 -4.51167E+02 -5.11374E+03  1.88070E+03 -1.92816E+03  1.68019E+03 -1.91844E+03
  1.07707E+03 -1.61674E+03  2.07014E+03 -2.30101E+03  3.50478E+03 -1.35100E+03  3.48714E+03  4.00799E+02
  4.25127E+03  1.42777E+03  1.18704E+03  3.07953E+03 -1.49199E+03  2.49566E+03 -4.40735E+03  2.65844E+03
 -4.90198E+03 -1.11595E+03 -1.63556E+03 -3.11143E+03  5.59317E+02 -4.81082E+03  3.12560E+03 -4.96776E+03
  4.80551E+03 -2.96049E+03  6.42101E+03 -1.33307E+01  4.79397E+03  3.88798E+03  1.03183E+03  5.51982E+03
 -1.78874E+03  5.51058E+03 -3.07139E+03  1.86598E+03 -1.77723E+03 -9.71243E+02 -4.91870E+02 -5.92284E+02
 -3.38530E+02  5.02954E+02 -8.68750E+02  1.73147E+03 -2.64659E+03  1.07037E+03 -3.91021E+03 -6.47014E+02
 -1.49478E+03 -4.07451E+03  8.61558E+02 -4.34661E+03  2.31171E+03 -4.16162E+03  3.32194E+03 -9.66140E+02
  3.61145E+03  2.34104E+03  1.65584E+03  3.14617E+03 -4.61495E+02  4.06626E+03 -2.38227E+03  2.46395E+03
 -3.47522E+03  5.67881E+02 -3.11717E+03 -2.00858E+03 -3.57343E+02 -2.75854E+03  1.32760E+03 -2.36140E+03
  2.54488E+03 -1.25823E+03  1.52136E+03  6.85643E+02  4.69686E+02  1.72062E+03  7.24071E+02  4.70856E+02
  1.72322E+03  6.06518E+02  1.18440E+03  7.90099E+02  1.14601E+03  2.24032E+03  1.54260E+03  1.45227E+03
 -1.31103E+03  2.62071E+03 -2.17648E+03  4.16660E+03 -2.63826E+03  1.28959E+03 -3.75583E+03 -1.15594E+02
 -1.43449E+03 -3.25024E+03  3.86203E+02 -4.25147E+03  1.59635E+03 -2.42342E+03  2.38238E+03 -1.08000E+03
  2.29574E+03  1.62525E+03  5.07523E+02  1.92779E+03 -6.93765E+02  1.15633E+03 -8.56549E+02 -1.72556E+02
 -4.51511E+02 -1.58303E+03  1.12670E+03 -1.45294E+03  1.07609E+03 -7.95499E+02  1.09325E+03  5.65828E+02
  5.14218E+02  3.48436E+02  8.88093E+02 -3.64307E+02 -2.55397E+02  5.68489E+02  1.56480E+03  8.82540E+01
  8.53475E+01 -3.54809E+02  1.78900E+03  5.62492E+02  7.45402E+01  2.08794E+03 -5.39650E+01  2.43153E+03
 -1.69113E+03  1.10403E+03 -1.87278E+03  3.27377E+02 -2.05000E+03 -6.30433E+02 -6.64888E+01 -1.05448E+03
  3.23738E+02 -9.94509E+02  1.03499E+03 -6.32558E+02  8.86753E+02  1.30816E+03 -7.68156E+02  1.05554E+03
 -1.35069E+03  4.96776E+02 -1.03440E+03 -1.29467E+03 -9.15052E+02 -2.08487E+03  4.78080E+01 -1.30570E+03
  2.55193E+02 -5.82457E+02  6.41448E+02  1.39433E+02  1.43588E+03 -1.01893E+02  2.22660E+02  1.06359E+03
 -4.42633E+02  8.35503E+01 -7.83765E+02 -6.50559E+01  5.94701E+02 -4.79847E+02  1.55584E+03 -8.06293E+02
  1.20231E+03  4.30779E+01  2.44878E+03  7.45611E+02  1.23889E+03  1.49904E+03 -2.75856E+02  1.66330E+03
 -1.30514E+03  2.08029E+02 -1.60254E+03 -3.17008E+02 -8.45867E+02 -9.44195E+02  4.58760E+02 -5.54477E+02
  1.31740E+03 -4.53763E+02  8.54528E+02  8.66649E+02  4.77369E+02  1.35748E+03  4.14825E+02  1.23886E+03
 -1.92901E+02  1.22116E+03 -4.21869E+02  2.26472E+02  4.57297E+01  3.64332E+02 -8.24665E+02  6.28059E+02
 -5.38401E+02  8.48284E+02 -1.58044E+03  8.57210E+01 -1.67570E+03  1.22651E+02 -2.14184E+03 -5.76395E+02
 -1.16341E+03 -2.09948E+03  4.86675E+02 -2.58164E+03  8.59120E+02 -2.22140E+03  2.24928E+03 -1.15913E+03
  1.98709E+03 -9.27617E+01  9.57471E+02  1.37360E+03 -5.70039E+02  9.76044E+02 -4.70330E+02  1.00175E+03
 -8.05850E+02  7.01610E+02 -5.15842E+02 -1.13211E+02 -3.56014E+02  8.13113E+01 -6.89718E+02  2.89638E+02
 -1.36895E+03 -1.90760E+02 -9.22639E+02  4.04867E+01  3.92245E+02 -5.88115E+02 -3.76070E+02 -5.65274E+02
  1.21998E+03 -6.97173E+02  2.11945E+02  2.19388E+02  9.38767E+02  9.76811E+02 -5.34082E+02  1.27492E+03
 -7.75951E+02  2.16469E+03 -1.20143E+03  1.47732E+03 -1.47051E+03 -1.15718E+02 -9.42577E+02 -1.04029E+03
 -7.82113E+02 -1.27597E+03  4.80635E+01 -1.01442E+03  6.12838E+02 -3.09992E+02  6.01807E+02 -1.21979E+02
  4.60557E+02  4.10673E+01  1.10367E+02  4.54792E+02 -3.30491E+02  1.65570E+02 -1.53196E+02 -1.17894E+02
  4.02778E+02  8.85673E+01 -6.91920E+01  2.33899E+02 -1.25132E+02  3.93887E+02  3.82992E+02  1.46165E+02
 -8.21866E+02  6.08631E+02 -5.74169E+02  1.50258E+02 -6.86898E+02 -3.70709E+02  6.58286E+00 -1.08380E+03
  3.32819E+02 -7.43273E+02  3.62283E+02  9.25347E+00  8.05157E+02 -5.15599E+02  2.91346E+02  6.45426E+02
  3.58391E+02  3.13045E+02 -1.39585E+02  6.53400E+02 -4.59813E+02  4.69087E+02 -4.04137E+02  2.05391E+02
 -1.01126E+02 -5.43605E+01 -2.93811E+02  1.63554E+02 -5.26521E+02  3.01812E+01 -2.77016E+02 -1.66238E+02
 -9.20050E+02  3.76339E+02 -1.49193E+02 -1.07993E+03  6.76618E+02 -1.57768E+03  7.11013E+02 -7.22656E+01
  3.68785E+02  1.95146E+02 -3.75774E+02  1.51802E+02 -5.44186E+00  7.87360E+02 -1.03343E+02  6.87818E+02
