 $NMID ID='MM_0lb_SNR800_16hz_g45_57.RAW', FMTDAT='(8E13.5)'
 TRAMP=1., VOLUME=1. $END
  3.09820E+05  9.55752E+01  3.37196E+05  2.50420E+05  8.43027E+04  3.37492E+05 -1.32330E+05  2.50720E+05
 -1.90214E+05  8.29945E+04 -1.11111E+05 -3.32196E+04  1.15435E+03 -5.05457E+04  5.37931E+04  6.82182E+01
  3.50318E+04  5.30373E+04 -1.68052E+04  7.50634E+04 -6.05136E+04  6.30487E+04 -8.38617E+04  3.14563E+04
 -8.04742E+04 -1.11574E+04 -5.66643E+04 -5.06489E+04 -1.49262E+04 -6.87240E+04  2.68726E+04 -4.51643E+04
  3.95660E+04  3.82214E+03  1.58661E+04  4.73624E+04 -3.38863E+04  4.66363E+04 -6.59708E+04 -3.75409E+02
 -5.27707E+04 -5.66787E+04 -6.55636E+03 -7.61157E+04  3.36597E+04 -5.37958E+04  4.71074E+04 -1.68490E+04
  4.24688E+04  1.12934E+04  3.11066E+04  2.50989E+04  1.56062E+04  2.87505E+04 -5.05847E+03  2.72104E+04
 -2.18122E+04  1.26254E+04 -1.89028E+04 -4.85017E+03  4.98645E+03 -7.88375E+03  2.17447E+04  1.15319E+04
  7.32472E+03  3.41696E+04 -3.12154E+04  3.47091E+04 -6.25260E+04  2.27695E+03 -5.62711E+04 -4.17559E+04
 -1.25465E+04 -6.18083E+04  3.90396E+04 -4.42031E+04  5.71270E+04 -2.08803E+03  3.28131E+04  3.12711E+04
 -6.34497E+03  3.42752E+04 -2.92055E+04  1.43915E+04 -2.88855E+04 -4.92032E+03 -1.55725E+04 -1.02804E+04
 -7.64388E+03 -1.23410E+04 -8.18072E+02 -1.71938E+04  6.88337E+03 -2.28279E+04  1.52302E+04 -1.35593E+04
  1.20348E+04  4.58011E+03 -7.24707E+03  1.31857E+04 -2.03673E+04 -3.24410E+03 -8.04839E+03 -3.17963E+04
  2.20141E+04 -4.18624E+04  4.62935E+04 -1.86200E+04  4.37687E+04  1.86271E+04  1.49999E+04  4.29548E+04
 -1.54646E+04  3.20696E+04 -2.42631E+04  1.67419E+03 -8.74856E+03 -2.72770E+04  2.05373E+04 -3.25918E+04
  3.93635E+04 -8.04079E+03  3.30580E+04  2.31634E+04  1.63831E+04  4.45140E+04 -7.85476E+03  4.73807E+04
 -2.99118E+04  3.16040E+04 -3.96109E+04  8.94488E+03 -4.02319E+04 -1.59259E+04 -2.22309E+04 -3.60872E+04
  7.10816E+03 -3.58072E+04  2.97980E+04 -1.37236E+04  2.81330E+04  1.10115E+04  3.70185E+03  1.84496E+04
 -1.32640E+04  7.91829E+03 -9.61849E+03 -7.47568E+03  5.97362E+03 -1.03553E+04  1.76795E+04  6.25964E+03
  1.26715E+04  2.17105E+04 -6.36706E+03  2.41222E+04 -2.19325E+04  9.97120E+03 -2.65804E+04 -5.71290E+03
 -1.86277E+04 -1.68397E+04 -6.83388E+03 -1.86902E+04  3.82152E+03 -1.70555E+04  1.38791E+04 -1.63148E+04
  2.33062E+04 -1.21766E+04  3.03009E+04  2.07761E+03  2.22232E+04  1.79849E+04  4.21727E+03  3.39102E+04
 -1.68789E+04  2.87939E+04 -2.67772E+04  9.77377E+03 -2.02988E+04 -1.06331E+04 -4.16584E+03 -1.34465E+04
  2.24109E+03 -3.64752E+03 -4.01297E+03  5.99643E+03 -1.46477E+04  5.28585E+03 -1.46779E+04 -5.93558E+03
 -9.31725E+03 -1.72077E+04  4.89510E+03 -2.10123E+04  1.37630E+04 -1.54663E+04  1.64175E+04 -1.27204E+03
  1.00610E+04  1.19847E+04 -9.53824E+02  1.74781E+04 -1.14173E+04  9.91662E+03 -1.67885E+04 -3.77000E+03
 -1.25850E+04 -1.57013E+04 -1.78632E+03 -2.07555E+04  9.35750E+03 -1.66611E+04  1.73726E+04 -8.01587E+03
  1.62930E+04  3.16760E+02  1.16379E+04  4.15471E+03  5.96196E+03  7.79556E+02  8.63637E+03 -1.59268E+03
  1.52334E+04  2.66515E+03  1.68513E+04  1.36572E+04  1.05059E+04  2.72370E+04 -3.10704E+03  3.00645E+04
 -1.75475E+04  2.35569E+04 -2.79368E+04  1.15139E+04 -2.89420E+04 -1.77613E+03 -2.44604E+04 -1.68213E+04
 -1.10586E+04 -2.33604E+04  8.14380E+03 -2.17080E+04  1.91173E+04 -1.16776E+04  1.73250E+04  4.43718E+03
  6.77973E+03  1.24076E+04 -7.83912E+03  1.13714E+04 -1.47192E+04  2.62178E+03 -1.12533E+04 -8.63018E+03
 -2.06563E+02 -1.38121E+04  7.17154E+03 -1.04020E+04  8.78058E+03 -1.01043E+03  1.80554E+03  5.71226E+03
 -6.22282E+03  1.72939E+03 -4.69726E+03 -5.26445E+03 -2.96407E+02 -1.16612E+04  8.39284E+03 -1.21778E+04
  1.41639E+04 -6.10973E+03  1.44736E+04  2.73961E+03  1.27482E+04  1.15197E+04  5.66280E+03  1.69676E+04
 -2.36381E+03  1.89075E+04 -1.15901E+04  1.15866E+04 -1.33043E+04  3.23842E+03 -9.89212E+03 -2.50471E+03
 -4.94316E+03 -4.12941E+03 -8.41994E+02  1.36996E+03 -2.28761E+03  2.00593E+03 -4.30758E+03  3.74974E+03
 -9.09804E+03 -5.47956E+02 -9.77378E+03 -7.96718E+03 -3.70232E+03 -1.27562E+04  4.14167E+03 -9.55608E+03
  8.29303E+03 -4.23985E+03  6.12650E+03  2.39204E+03  4.34842E+02  3.59553E+03 -4.20480E+03  1.06517E+02
 -3.82237E+03 -6.08742E+03 -7.85841E+02 -8.70345E+03  4.67225E+03 -9.27148E+03  1.17312E+04 -5.01035E+03
  1.37877E+04  1.06700E+03  1.01780E+04  7.47097E+03  2.02993E+03  1.04440E+04 -6.05498E+03  9.49245E+03
 -7.74834E+03  3.32926E+03 -4.19322E+03 -1.48717E+03  1.63873E+03 -2.26896E+03  5.24078E+03 -9.66045E+02
  4.78205E+03  3.88402E+03  1.05890E+03  7.33678E+03 -5.30498E+03  7.46838E+03 -9.10481E+03  2.00157E+03
 -5.73825E+03 -4.44922E+03 -1.69731E+01 -7.94981E+03  4.82621E+03 -4.17926E+03  4.40285E+03  1.30169E+03
  4.53052E+02  4.44416E+03 -4.91107E+03  6.08688E+03 -6.42365E+03  3.09055E+03 -6.17847E+03 -2.00811E+03
 -3.83063E+03 -7.72358E+03  1.79259E+03 -9.14734E+03  7.77577E+03 -5.48567E+03  7.95226E+03  1.51114E+03
  5.64889E+03  6.47553E+03 -2.08050E+02  8.82034E+03 -6.54323E+03  5.17598E+03 -6.19191E+03 -1.87518E+02
 -6.72751E+03 -6.07450E+03 -1.26055E+03 -5.98782E+03  3.21913E+03 -5.42396E+03  3.74156E+03 -2.78118E+03
  3.16071E+03  6.36767E+02  1.54824E+02  1.44404E+03  1.74770E+02 -8.06670E+02  3.70106E+02 -2.89883E+03
  5.10085E+03 -1.53527E+03  7.07254E+03  1.03835E+03  7.50119E+03  4.70446E+03  6.26287E+03  9.57858E+03
 -1.98699E+03  1.13407E+04 -9.55412E+03  8.38035E+03 -1.23971E+04  1.63329E+03 -9.86922E+03 -3.82111E+03
 -5.12887E+03 -8.16443E+03 -4.39379E+02 -6.63618E+03  2.51185E+03 -2.93517E+03  1.97246E+03 -2.56936E+03
  1.71402E+03 -1.60455E+03  2.33425E+03 -2.69697E+03  4.11229E+03 -1.70751E+03  4.31272E+03 -5.28928E+01
  5.53249E+03  1.17529E+03  2.04780E+03  4.42633E+03 -1.82328E+03  4.56282E+03 -5.76583E+03  3.58544E+03
 -6.61108E+03 -9.29957E+02 -3.14291E+03 -4.37785E+03  8.98044E+00 -6.61907E+03  4.05293E+03 -6.93423E+03
  7.08395E+03 -4.26139E+03  9.03365E+03  3.64108E+02  6.35708E+03  5.71240E+03  1.11037E+03  7.94850E+03
 -3.48471E+03  7.12828E+03 -4.55499E+03  2.49896E+03 -2.54542E+03 -1.20460E+03 -9.04634E+02 -8.54569E+02
 -4.56671E+02  3.10744E+02 -1.12232E+03  2.23450E+03 -3.20408E+03  1.34239E+03 -4.79792E+03 -5.68095E+02
 -2.16719E+03 -4.77952E+03  8.81303E+02 -6.11035E+03  3.88377E+03 -5.40642E+03  5.20358E+03 -1.59781E+03
  5.59382E+03  2.98788E+03  2.88349E+03  4.54102E+03 -1.08424E+03  5.99561E+03 -3.86616E+03  3.77224E+03
 -5.38768E+03  8.89595E+02 -4.51003E+03 -3.24738E+03 -2.63261E+02 -4.64633E+03  2.53632E+03 -3.63056E+03
  3.85152E+03 -1.42444E+03  2.84491E+03  7.18373E+02  8.16638E+02  1.97808E+03  1.12868E+03  8.30110E+02
  1.70350E+03  6.77094E+02  1.76728E+03  8.97725E+02  1.83512E+03  2.64191E+03  1.78836E+03  3.03527E+03
 -1.61991E+03  4.22689E+03 -3.74802E+03  5.12485E+03 -4.92630E+03  1.64304E+03 -5.86925E+03 -1.28311E+03
 -2.49616E+03 -5.38377E+03  7.68976E+02 -6.42531E+03  2.97023E+03 -3.70565E+03  4.43461E+03 -1.39161E+03
  3.52498E+03  2.32361E+03  7.73792E+02  2.91190E+03 -1.17626E+03  1.61543E+03 -1.69350E+03 -1.43007E+02
 -1.10482E+03 -2.25188E+03  1.59310E+03 -2.15568E+03  1.85333E+03 -1.28828E+03  1.78076E+03  6.76397E+02
  1.07553E+03  8.72107E+02  8.38478E+02  1.67817E+02 -2.60053E+02  9.79093E+02  1.70144E+03 -2.48486E+02
  4.52435E+02 -2.80162E+02  2.38773E+03  8.78596E+02  9.55601E+02  3.15829E+03 -6.33089E+02  3.93182E+03
 -2.50797E+03  1.66622E+03 -3.01094E+03  5.54687E+02 -2.93742E+03 -1.33225E+03 -6.95918E+02 -1.79510E+03
  5.29592E+02 -1.73897E+03  1.45241E+03 -8.44306E+02  1.09566E+03  1.68841E+03 -8.89699E+02  1.57299E+03
 -2.36730E+03  9.82954E+02 -2.10805E+03 -1.78032E+03 -1.43587E+03 -2.96513E+03  1.20690E+02 -2.54756E+03
  1.17515E+03 -1.13559E+03  1.20941E+03  1.31586E+02  1.72196E+03  2.19900E+02  2.52829E+02  1.22196E+03
 -7.85245E+02  4.86033E+02 -1.37146E+03 -5.54313E+02  7.59899E+02 -1.72642E+03  2.50304E+03 -1.48902E+03
  2.58859E+03  4.47917E+01  3.55303E+03  1.50793E+03  1.45015E+03  2.95333E+03 -9.39937E+02  2.53136E+03
 -2.33748E+03  6.75240E+02 -2.69565E+03 -2.16558E+02 -1.48401E+03 -2.19210E+03  6.57652E+02 -1.17206E+03
  2.05469E+03 -9.14431E+02  1.37583E+03  9.03496E+02  4.44623E+02  1.85583E+03  3.12340E+02  1.74440E+03
 -4.33694E+02  1.14480E+03 -6.22859E+02  5.20042E+02  1.38623E+01  3.37157E+02 -7.44076E+02  5.83122E+02
 -9.63877E+02  1.32584E+03 -2.37945E+03  6.95652E+02 -3.09868E+03  4.66613E+01 -3.40366E+03 -1.80246E+03
 -1.80537E+03 -3.67669E+03  7.04650E+02 -4.36683E+03  1.81184E+03 -3.74504E+03  4.18362E+03 -1.70394E+03
  3.94301E+03  4.11498E+02  1.99289E+03  2.63659E+03 -5.19979E+02  2.76477E+03 -1.12469E+03  2.15169E+03
 -1.72957E+03  1.27705E+03 -1.12219E+03 -3.45495E+02 -3.55094E+02  4.10996E+02 -6.39183E+02 -2.80440E+02
 -1.07872E+03 -8.28822E+01 -8.76538E+02  1.73135E+02  2.19264E+02 -9.48018E+02 -1.56175E+02 -1.47842E+03
  1.73095E+03 -1.06432E+03  1.23043E+03  7.28101E+01  1.83509E+03  1.41207E+03 -1.32064E+02  2.53279E+03
 -1.34444E+03  3.29382E+03 -2.86737E+03  1.93816E+03 -2.88057E+03 -2.15841E+02 -2.39672E+03 -2.36863E+03
 -1.46883E+03 -2.72255E+03  4.49765E+02 -2.10124E+03  1.44249E+03 -7.28175E+02  1.16083E+03  1.57727E+02
  9.33761E+02  6.40057E+02 -1.16750E+00  4.07555E+02 -5.66505E+02  2.01238E+02 -3.35998E+02 -7.39413E+02
  7.59495E+02  1.80430E+02  9.92728E+02  7.76170E+02  4.41978E+02  1.11002E+03  5.01051E+02  8.08897E+02
 -8.94918E+02  1.15282E+03 -1.16963E+03  3.23246E+02 -1.55265E+03 -8.67286E+02 -6.72281E+01 -1.99074E+03
  1.02348E+03 -1.49093E+03  1.47321E+03 -4.98433E+02  1.87672E+03 -3.67914E+02  1.04849E+03  1.55575E+03
  3.41076E+02  1.21797E+03 -5.66411E+02  1.00939E+03 -1.07499E+03  7.16975E+02 -7.21126E+02  2.21087E+02
 -5.60750E+02 -2.22376E+02 -6.49224E+02  2.75671E+02 -6.83482E+02  1.15025E+02 -1.51525E+03 -3.95591E+02
 -1.20491E+03 -3.42856E+02 -4.69126E+02 -1.40902E+03  1.17303E+03 -2.09417E+03  1.24915E+03 -5.40757E+02
  1.30354E+03  3.83437E+02 -6.30471E+01  9.43463E+02 -8.22814E+01  1.58247E+03 -1.01003E+03  9.80027E+02
