 $NMID ID='MM_0lb_SNR800_7hz_g60_68.RAW', FMTDAT='(8E13.5)'
 TRAMP=1., VOLUME=1. $END
  3.09740E+05  6.50258E+02  3.38136E+05  2.50703E+05  8.53671E+04  3.38898E+05 -1.32717E+05  2.52556E+05
 -1.90906E+05  8.42869E+04 -1.12606E+05 -3.23396E+04 -6.30928E+02 -5.06884E+04  5.36542E+04 -3.74393E+02
  3.54276E+04  5.28961E+04 -1.63679E+04  7.62739E+04 -6.15338E+04  6.50943E+04 -8.61533E+04  3.26834E+04
 -8.29658E+04 -1.20023E+04 -5.86316E+04 -5.33876E+04 -1.54027E+04 -7.15672E+04  2.83951E+04 -4.71031E+04
  4.16769E+04  3.67322E+03  1.70641E+04  4.89494E+04 -3.48363E+04  4.87729E+04 -6.89237E+04  4.18806E+02
 -5.65253E+04 -5.82372E+04 -7.88051E+03 -8.05042E+04  3.45437E+04 -5.79617E+04  5.11016E+04 -1.87155E+04
  4.59416E+04  1.18806E+04  3.34126E+04  2.71134E+04  1.60299E+04  3.10999E+04 -6.19741E+03  2.83357E+04
 -2.27809E+04  1.20908E+04 -1.82735E+04 -5.68251E+03  7.81716E+03 -7.13786E+03  2.48515E+04  1.47675E+04
  6.64079E+03  3.87790E+04 -3.48607E+04  3.78475E+04 -6.72874E+04  2.30935E+03 -5.99989E+04 -4.59999E+04
 -1.22132E+04 -6.78106E+04  4.26698E+04 -4.84902E+04  6.26727E+04 -2.46165E+03  3.83576E+04  3.56207E+04
 -5.38536E+03  4.12702E+04 -3.30321E+04  1.98551E+04 -3.45971E+04 -3.16286E+03 -2.08909E+04 -1.27779E+04
 -1.03288E+04 -1.63045E+04 -6.63760E+02 -2.07856E+04  9.31340E+03 -2.37073E+04  1.63380E+04 -1.20743E+04
  1.01937E+04  6.74677E+03 -1.22340E+04  1.27205E+04 -2.44949E+04 -8.02754E+03 -8.65648E+03 -3.96125E+04
  2.63644E+04 -4.90927E+04  5.40319E+04 -2.17686E+04  5.02061E+04  2.17808E+04  1.88583E+04  4.85538E+04
 -1.65850E+04  3.80059E+04 -2.88343E+04  3.50140E+03 -1.25670E+04 -3.09462E+04  2.18280E+04 -3.84683E+04
  4.67983E+04 -1.16668E+04  4.33544E+04  2.57707E+04  2.29548E+04  5.38247E+04 -8.77155E+03  5.93044E+04
 -3.79673E+04  4.08760E+04 -5.10976E+04  1.21608E+04 -5.06491E+04 -1.98055E+04 -2.75770E+04 -4.45382E+04
  8.03044E+03 -4.44343E+04  3.58639E+04 -1.85854E+04  3.35598E+04  1.13919E+04  6.00722E+03  2.19217E+04
 -1.41218E+04  1.03773E+04 -1.14200E+04 -7.67081E+03  5.51274E+03 -1.19903E+04  1.94982E+04  5.18638E+03
  1.57841E+04  2.28985E+04 -4.79915E+03  2.88383E+04 -2.42303E+04  1.59552E+04 -3.34829E+04 -1.73078E+03
 -2.84414E+04 -1.88355E+04 -1.37554E+04 -2.79821E+04  4.68585E+03 -2.93698E+04  2.25418E+04 -2.61975E+04
  3.58674E+04 -1.51628E+04  4.11377E+04  6.26548E+03  2.85060E+04  2.65184E+04  4.87049E+03  4.41018E+04
 -2.10928E+04  3.58128E+04 -3.19803E+04  1.31138E+04 -2.27860E+04 -9.97651E+03 -5.25595E+03 -1.26974E+04
  6.03816E+02  5.86380E+01 -9.02416E+03  9.71607E+03 -2.28097E+04  5.18907E+03 -2.23908E+04 -1.13632E+04
 -1.29277E+04 -2.59071E+04  6.72753E+03 -3.11454E+04  2.03992E+04 -2.14820E+04  2.49390E+04 -1.72351E+03
  1.67470E+04  1.82532E+04 -1.32623E+03  2.64978E+04 -1.89157E+04  1.49550E+04 -2.64891E+04 -5.32580E+03
 -1.93669E+04 -2.31761E+04 -2.26820E+03 -3.10325E+04  1.38994E+04 -2.60979E+04  2.58750E+04 -1.35464E+04
  2.45924E+04 -5.34446E+02  1.80277E+04  6.03366E+03  1.01342E+04  1.70698E+03  1.39940E+04 -2.34358E+03
  2.48737E+04  3.32937E+03  2.91871E+04  2.01077E+04  2.02106E+04  4.20563E+04 -2.82204E+03  5.05750E+04
 -2.95091E+04  4.31819E+04 -4.77518E+04  2.29626E+04 -5.20363E+04 -3.72453E+03 -4.20873E+04 -3.02328E+04
 -1.62754E+04 -4.35485E+04  1.53478E+04 -3.74382E+04  3.18887E+04 -1.73015E+04  2.72585E+04  9.82629E+03
  8.93154E+03  2.15574E+04 -1.30026E+04  1.80114E+04 -2.27352E+04  2.49047E+03 -1.73202E+04 -1.42852E+04
 -2.85431E+02 -2.18000E+04  1.23407E+04 -1.61996E+04  1.53958E+04 -1.45082E+03  4.40833E+03  1.00052E+04
 -9.74805E+03  5.55754E+03 -1.07441E+04 -7.50395E+03 -3.08641E+03 -2.16597E+04  1.33843E+04 -2.30613E+04
  2.70727E+04 -1.35002E+04  3.16797E+04  3.12618E+03  2.75410E+04  2.22874E+04  1.29041E+04  3.49630E+04
 -7.54279E+03  3.67486E+04 -2.45479E+04  2.23867E+04 -2.70358E+04  4.71144E+03 -1.82910E+04 -7.29127E+03
 -6.99006E+03 -9.00256E+03 -1.99226E+02 -2.43895E+02 -2.75800E+03  4.19843E+03 -8.17043E+03  6.01602E+03
 -1.65886E+04 -1.17899E+03 -1.73428E+04 -1.36057E+04 -6.35229E+03 -2.24146E+04  7.64058E+03 -1.80588E+04
  1.48677E+04 -7.03547E+03  1.12043E+04  5.28398E+03 -8.11983E+02  7.48678E+03 -9.28538E+03 -3.45649E+02
 -9.36471E+03 -1.16608E+04 -8.65781E+02 -1.92482E+04  1.12065E+04 -1.94029E+04  2.41802E+04 -1.07158E+04
  2.83860E+04  2.92024E+03  2.06956E+04  1.74955E+04  4.40826E+03  2.37697E+04 -1.10439E+04  1.85299E+04
 -1.55533E+04  5.09026E+03 -7.37011E+03 -4.33504E+03  2.26048E+03 -5.93394E+03  9.53905E+03 -8.03242E+02
  8.91744E+03  8.39471E+03  9.93441E+02  1.54871E+04 -1.12368E+04  1.44929E+04 -1.85554E+04  2.86824E+03
 -1.32878E+04 -1.02118E+04 -8.84495E+01 -1.66433E+04  1.10822E+04 -8.16158E+03  1.22351E+04  4.22232E+03
  3.37663E+03  1.30265E+04 -1.02885E+04  1.48096E+04 -1.73779E+04  6.40298E+03 -1.78763E+04 -6.88060E+03
 -1.01043E+04 -2.01547E+04  5.12824E+03 -2.27274E+04  1.96459E+04 -1.36623E+04  2.11553E+04  3.61237E+03
  1.19917E+04  1.68900E+04 -2.56987E+03  1.96536E+04 -1.43023E+04  1.10268E+04 -1.59319E+04 -1.58090E+03
 -1.27989E+04 -1.23907E+04 -1.75158E+03 -1.53203E+04  7.98352E+03 -1.16803E+04  1.02539E+04 -3.94593E+03
  5.82265E+03  3.28254E+03 -2.02773E+03  2.41516E+03 -1.34943E+03 -4.21482E+03  3.73012E+03 -9.87488E+03
  1.51636E+04 -6.73359E+03  2.03822E+04  2.39361E+03  2.00579E+04  1.43878E+04  1.27595E+04  2.70613E+04
 -6.76421E+03  3.11268E+04 -2.57809E+04  2.25445E+04 -3.29946E+04  4.25042E+03 -2.67664E+04 -1.22071E+04
 -1.26855E+04 -2.20455E+04  3.74469E+01 -1.84980E+04  6.79236E+03 -1.14793E+04  6.74353E+03 -6.82442E+03
  4.67186E+03 -3.41860E+03  5.02421E+03 -4.79876E+03  6.84560E+03 -5.21153E+03  1.00003E+04 -1.89831E+03
  1.38533E+04  2.78780E+03  8.31743E+03  1.24266E+04 -2.60529E+03  1.53461E+04 -1.44062E+04  1.20631E+04
 -1.91743E+04 -1.23153E+03 -1.29492E+04 -1.33409E+04 -1.89668E+03 -2.09961E+04  1.11147E+04 -2.13983E+04
  2.18412E+04 -1.11794E+04  2.57456E+04  3.66011E+03  1.71514E+04  1.78569E+04  2.68716E+03  2.33117E+04
 -9.85016E+03  1.84446E+04 -1.43285E+04  6.44971E+03 -9.89953E+03 -2.03773E+03 -3.89138E+03 -3.13311E+03
 -1.73345E+03 -3.22322E+01 -2.94764E+03  3.59742E+03 -7.94947E+03  2.90348E+03 -1.34172E+04 -1.88295E+03
 -9.94332E+03 -1.29534E+04 -1.03115E+02 -1.95649E+04  1.19630E+04 -1.80777E+04  2.03968E+04 -5.48526E+03
  1.93409E+04  9.62614E+03  9.43323E+03  1.79862E+04 -4.18583E+03  2.01973E+04 -1.43458E+04  1.26738E+04
 -1.90775E+04  3.57382E+02 -1.47090E+04 -1.20267E+04 -2.09315E+03 -1.69214E+04  9.13405E+03 -1.28229E+04
  1.28926E+04 -3.96700E+03  9.22457E+03  3.57766E+03  3.10131E+03  5.92558E+03  1.68746E+03  3.26358E+03
  3.72792E+03  1.54775E+03  4.23733E+03  2.48616E+03  5.58780E+03  6.71886E+03  4.56768E+03  1.11185E+04
 -4.00252E+03  1.68763E+04 -1.50358E+04  1.55950E+04 -2.24581E+04  3.87790E+03 -2.15180E+04 -9.80149E+03
 -1.10220E+04 -2.07416E+04  2.59001E+03 -2.24406E+04  1.22563E+04 -1.45168E+04  1.72327E+04 -3.66492E+03
  1.34206E+04  7.37148E+03  2.87286E+03  1.18510E+04 -6.05501E+03  7.90380E+03 -8.78769E+03 -1.68264E+03
 -3.96506E+03 -8.80346E+03  4.75301E+03 -9.19978E+03  8.87134E+03 -3.95380E+03  8.86199E+03  1.65377E+03
  5.34626E+03  4.72787E+03  2.01084E+03  3.98689E+03 -8.52402E+02  3.48211E+03  1.40916E+03 -1.02041E+03
  3.35079E+03 -1.05919E+03  8.58253E+03  3.55219E+03  5.44861E+03  1.10783E+04 -1.56518E+03  1.48625E+04
 -1.01462E+04  1.04435E+04 -1.37679E+04  3.36471E+03 -1.24245E+04 -4.86972E+03 -4.54231E+03 -8.92919E+03
  9.40149E+02 -8.66444E+03  6.14739E+03 -4.03320E+03  4.93759E+03  3.91320E+03 -1.70595E+03  6.84544E+03
 -9.17792E+03  4.11078E+03 -1.06190E+04 -5.01358E+03 -5.82760E+03 -1.16855E+04  1.97861E+03 -1.21271E+04
  7.35998E+03 -7.43860E+03  9.08796E+03 -5.21516E+02  7.00675E+03  3.70475E+03  8.58827E+02  6.07841E+03
 -4.68004E+03  2.19619E+03 -5.41483E+03 -4.77091E+03  1.74894E+03 -9.06214E+03  1.05766E+04 -7.98666E+03
  1.49135E+04  8.39198E+02  1.25163E+04  1.05866E+04  4.02857E+03  1.53269E+04 -6.05366E+03  1.39185E+04
 -1.14487E+04  6.86669E+03 -1.27212E+04 -1.90936E+03 -6.81085E+03 -9.52998E+03  2.64406E+03 -9.62081E+03
  9.25797E+03 -3.95786E+03  8.03497E+03  3.96751E+03  2.80413E+03  7.76658E+03 -1.41222E+03  6.55798E+03
 -4.16081E+03  4.22711E+03 -3.51701E+03  1.80640E+03 -2.48722E+03  1.37715E+03 -2.05934E+03  2.86625E+03
 -3.94385E+03  5.58270E+03 -1.00495E+04  4.87861E+03 -1.50881E+04  9.50151E+01 -1.64707E+04 -1.01521E+04
 -9.35770E+03 -1.99998E+04  3.37396E+03 -2.30952E+04  1.44561E+04 -1.76479E+04  2.14177E+04 -6.75371E+03
  2.06942E+04  4.73015E+03  1.24590E+04  1.40576E+04  1.66888E+03  1.58162E+04 -6.51446E+03  1.17243E+04
 -8.63321E+03  4.05759E+03 -5.85015E+03 -1.88703E+03 -1.77533E+03 -1.53451E+03 -6.63658E+02 -1.73378E+02
 -1.99502E+03  6.55033E+02 -3.11897E+03 -2.64584E+02 -1.24303E+03 -3.60063E+03  5.89200E+02 -5.76387E+03
  6.58999E+03 -5.31890E+03  9.93644E+03 -1.22543E+02  1.09953E+04  8.34089E+03  3.63389E+03  1.62315E+04
 -7.44757E+03  1.84851E+04 -1.72818E+04  1.06543E+04 -2.00083E+04 -1.36541E+03 -1.46544E+04 -1.20584E+04
 -6.04622E+03 -1.62690E+04  4.33427E+03 -1.51675E+04  1.04659E+04 -8.94190E+03  1.15472E+04  3.21592E+02
  5.91360E+03  5.09972E+03 -6.91150E+02  4.69977E+03 -3.15492E+03 -6.78862E+02 -2.43907E+02 -4.00054E+03
  5.04915E+03 -2.71340E+03  6.53196E+03  1.87473E+03  4.66782E+03  6.68326E+03  2.30011E+02  8.74520E+03
 -7.76019E+03  7.40284E+03 -1.12183E+04  6.50031E+02 -1.02246E+04 -8.20666E+03 -2.07603E+03 -1.32069E+04
  7.62371E+03 -1.12173E+04  1.30262E+04 -4.06894E+03  1.32167E+04  3.96674E+03  7.44224E+03  1.01946E+04
  1.20469E+03  1.10238E+04 -4.43980E+03  8.78524E+03 -7.11817E+03  4.82499E+03 -5.56787E+03  5.19174E+02
 -2.72888E+03 -6.01299E+02 -2.97913E+03  1.68763E+03 -4.92159E+03  1.72188E+03 -8.85578E+03 -1.60574E+03
 -8.07157E+03 -6.73996E+03 -2.80392E+03 -1.09456E+04  5.12745E+03 -1.15071E+04  9.80384E+03 -5.92546E+03
  1.12062E+04  1.75524E+03  7.15885E+03  8.79788E+03 -1.17162E+03  1.14188E+04 -8.83190E+03  7.25073E+03
