 $NMID ID='MM_0lb_SNR800_10hz_g55_13.RAW', FMTDAT='(8E13.5)'
 TRAMP=1., VOLUME=1. $END
  3.09610E+05  4.02192E+02  3.37629E+05  2.50578E+05  8.52913E+04  3.38251E+05 -1.33007E+05  2.51626E+05
 -1.91223E+05  8.39016E+04 -1.12433E+05 -3.22212E+04 -6.58461E+01 -5.08656E+04  5.37744E+04 -7.70375E+02
  3.56826E+04  5.26392E+04 -1.64123E+04  7.55928E+04 -6.14624E+04  6.44737E+04 -8.47308E+04  3.27801E+04
 -8.21736E+04 -1.19059E+04 -5.80313E+04 -5.22422E+04 -1.48868E+04 -7.11330E+04  2.75652E+04 -4.67940E+04
  4.09806E+04  3.56963E+03  1.66853E+04  4.85026E+04 -3.49010E+04  4.80643E+04 -6.79104E+04  9.28613E+00
 -5.47609E+04 -5.76859E+04 -7.41511E+03 -7.87429E+04  3.47369E+04 -5.67127E+04  4.94276E+04 -1.82033E+04
  4.50240E+04  1.17204E+04  3.32831E+04  2.63777E+04  1.57065E+04  3.04812E+04 -5.56211E+03  2.75386E+04
 -2.24899E+04  1.20169E+04 -1.82542E+04 -5.80734E+03  6.88280E+03 -7.34373E+03  2.32407E+04  1.38433E+04
  7.28009E+03  3.75835E+04 -3.36578E+04  3.69221E+04 -6.59446E+04  1.93874E+03 -5.85535E+04 -4.45168E+04
 -1.28511E+04 -6.58747E+04  4.12015E+04 -4.70983E+04  6.10454E+04 -2.32282E+03  3.63127E+04  3.42872E+04
 -5.71382E+03  3.88001E+04 -3.16960E+04  1.88389E+04 -3.30952E+04 -3.56900E+03 -1.90450E+04 -1.18860E+04
 -9.33326E+03 -1.53159E+04 -3.04924E+02 -1.94791E+04  8.54056E+03 -2.36777E+04  1.58627E+04 -1.24605E+04
  1.05482E+04  6.60185E+03 -1.03732E+04  1.26316E+04 -2.31904E+04 -6.46932E+03 -8.77259E+03 -3.68561E+04
  2.48332E+04 -4.66273E+04  5.14782E+04 -2.06272E+04  4.85178E+04  2.06907E+04  1.72894E+04  4.69315E+04
 -1.69555E+04  3.59083E+04 -2.72291E+04  2.41455E+03 -1.16394E+04 -2.92980E+04  2.16146E+04 -3.60866E+04
  4.44678E+04 -1.07955E+04  4.02261E+04  2.48162E+04  2.05360E+04  5.09731E+04 -8.33486E+03  5.54050E+04
 -3.52616E+04  3.81976E+04 -4.67868E+04  1.07758E+04 -4.70958E+04 -1.82178E+04 -2.58390E+04 -4.19837E+04
  8.03894E+03 -4.18843E+04  3.37938E+04 -1.69283E+04  3.20458E+04  1.08727E+04  5.21151E+03  2.07425E+04
 -1.38838E+04  9.45396E+03 -1.11418E+04 -7.32863E+03  5.78716E+03 -1.11301E+04  1.85497E+04  5.95769E+03
  1.44821E+04  2.27001E+04 -5.36375E+03  2.69398E+04 -2.31244E+04  1.42167E+04 -3.12657E+04 -3.42741E+03
 -2.48823E+04 -1.86621E+04 -1.15405E+04 -2.48192E+04  4.07011E+03 -2.50086E+04  1.94679E+04 -2.25000E+04
  3.18461E+04 -1.39294E+04  3.72924E+04  4.60264E+03  2.70321E+04  2.39533E+04  4.29837E+03  4.07788E+04
 -1.97886E+04  3.39281E+04 -3.02706E+04  1.21563E+04 -2.25051E+04 -1.02031E+04 -4.77903E+03 -1.28618E+04
  9.35057E+02 -1.39172E+03 -7.23765E+03  8.31193E+03 -1.94998E+04  4.97168E+03 -1.97254E+04 -9.63770E+03
 -1.16720E+04 -2.30701E+04  6.27888E+03 -2.76687E+04  1.87123E+04 -1.94187E+04  2.20573E+04 -1.42875E+03
  1.39503E+04  1.58237E+04 -1.03654E+03  2.25625E+04 -1.60564E+04  1.33598E+04 -2.31363E+04 -4.57823E+03
 -1.67793E+04 -2.04764E+04 -2.17745E+03 -2.74864E+04  1.26451E+04 -2.31277E+04  2.29470E+04 -1.19551E+04
  2.13834E+04 -2.86438E+02  1.56455E+04  5.31348E+03  8.49595E+03  1.07942E+03  1.18727E+04 -1.96943E+03
  2.19066E+04  2.59613E+03  2.51505E+04  1.76700E+04  1.69715E+04  3.64616E+04 -2.89651E+03  4.31507E+04
 -2.47794E+04  3.60082E+04 -4.05862E+04  1.86557E+04 -4.35437E+04 -2.66779E+03 -3.49523E+04 -2.55198E+04
 -1.39790E+04 -3.62025E+04  1.26575E+04 -3.17568E+04  2.68882E+04 -1.50135E+04  2.34432E+04  7.62966E+03
  7.86870E+03  1.82909E+04 -1.13999E+04  1.53292E+04 -1.99866E+04  2.71396E+03 -1.49037E+04 -1.25556E+04
 -2.69219E+02 -1.86860E+04  1.04046E+04 -1.39013E+04  1.28431E+04 -1.52588E+03  3.20169E+03  8.19731E+03
 -9.07424E+03  3.96225E+03 -8.92248E+03 -7.30374E+03 -1.75615E+03 -1.75733E+04  1.13292E+04 -1.92080E+04
  2.21664E+04 -1.06498E+04  2.51423E+04  3.10525E+03  2.21729E+04  1.77347E+04  1.03193E+04  2.83197E+04
 -5.06292E+03  3.02846E+04 -1.97173E+04  1.84724E+04 -2.14627E+04  4.01376E+03 -1.52607E+04 -5.54070E+03
 -6.40579E+03 -6.67216E+03 -4.43298E+02  5.70438E+02 -3.37465E+03  3.39448E+03 -7.10654E+03  5.59985E+03
 -1.36366E+04 -9.66852E+02 -1.41465E+04 -1.15179E+04 -5.63527E+03 -1.89271E+04  6.20470E+03 -1.55931E+04
  1.27590E+04 -6.36839E+03  8.83832E+03  3.91121E+03 -4.27072E+02  6.16433E+03 -7.72177E+03  2.20503E+01
 -7.44484E+03 -9.74697E+03 -7.52693E+02 -1.50582E+04  8.92470E+03 -1.57751E+04  1.91398E+04 -8.46719E+03
  2.22232E+04  2.22016E+03  1.63822E+04  1.36094E+04  3.09937E+03  1.84288E+04 -9.48637E+03  1.50553E+04
 -1.22563E+04  4.39617E+03 -6.40511E+03 -3.50944E+03  2.13780E+03 -4.04860E+03  8.06094E+03 -1.17523E+03
  7.17813E+03  6.59773E+03  1.32083E+03  1.23085E+04 -8.67962E+03  1.16164E+04 -1.50685E+04  3.02718E+03
 -1.01855E+04 -7.90009E+03  3.44419E+02 -1.28487E+04  8.29082E+03 -6.44285E+03  8.94302E+03  2.89027E+03
  2.05768E+03  9.87425E+03 -7.45828E+03  1.07088E+04 -1.30064E+04  4.59224E+03 -1.31677E+04 -4.71664E+03
 -7.49736E+03 -1.53157E+04  3.45812E+03 -1.72622E+04  1.45682E+04 -1.02818E+04  1.56428E+04  2.74466E+03
  9.56230E+03  1.26319E+04 -1.21477E+03  1.52269E+04 -1.10589E+04  7.78243E+03 -1.19131E+04 -1.32690E+03
 -1.01904E+04 -9.95194E+03 -1.22743E+03 -1.16441E+04  6.13638E+03 -9.05114E+03  7.20141E+03 -3.49627E+03
  4.71639E+03  2.19547E+03 -8.89355E+02  1.96024E+03 -1.12729E+03 -3.01234E+03  2.26941E+03 -6.90357E+03
  1.09437E+04 -4.69007E+03  1.52884E+04  1.78759E+03  1.45783E+04  1.01055E+04  9.39228E+03  1.95900E+04
 -4.76769E+03  2.27607E+04 -1.88869E+04  1.66300E+04 -2.42834E+04  3.25068E+03 -1.98020E+04 -8.54389E+03
 -9.59501E+03 -1.59380E+04 -6.49047E+02 -1.38286E+04  4.72219E+03 -7.73037E+03  5.22372E+03 -4.63167E+03
  3.90640E+03 -3.11598E+03  3.89422E+03 -3.83325E+03  5.67182E+03 -3.48172E+03  7.74122E+03 -1.53065E+03
  1.01576E+04  2.37914E+03  5.74365E+03  8.84584E+03 -1.89426E+03  1.05825E+04 -1.06437E+04  8.06018E+03
 -1.34811E+04 -1.10265E+03 -8.67362E+03 -9.63717E+03 -1.04661E+03 -1.46134E+04  8.19079E+03 -1.51177E+04
  1.51499E+04 -8.31623E+03  1.80068E+04  2.45773E+03  1.27302E+04  1.33432E+04  1.94463E+03  1.68908E+04
 -6.62558E+03  1.36303E+04 -9.71861E+03  4.59956E+03 -6.72881E+03 -1.50688E+03 -2.39167E+03 -2.33673E+03
 -1.12483E+03 -7.10466E+01 -2.22014E+03  3.12862E+03 -6.11761E+03  2.52737E+03 -9.77095E+03 -1.38789E+03
 -7.06714E+03 -9.36431E+03 -5.85767E+01 -1.39870E+04  8.47014E+03 -1.25315E+04  1.32379E+04 -3.89698E+03
  1.35998E+04  6.69231E+03  6.32944E+03  1.24891E+04 -2.16439E+03  1.40171E+04 -9.81553E+03  8.79000E+03
 -1.28153E+04  3.96710E+02 -1.00311E+04 -8.28750E+03 -9.99171E+02 -1.12830E+04  5.83525E+03 -8.25246E+03
  8.74672E+03 -2.50864E+03  5.85939E+03  2.46846E+03  2.20394E+03  4.03955E+03  1.39056E+03  1.88798E+03
  2.65079E+03  7.99626E+02  3.32860E+03  1.78139E+03  3.94448E+03  4.99376E+03  3.45012E+03  7.34295E+03
 -2.63651E+03  1.06022E+04 -9.56955E+03  1.10127E+04 -1.38753E+04  2.62537E+03 -1.42067E+04 -5.64830E+03
 -6.92597E+03 -1.36888E+04  1.80846E+03 -1.49704E+04  8.34679E+03 -9.31375E+03  1.11078E+04 -2.47578E+03
  8.80400E+03  5.03671E+03  2.11240E+03  8.05893E+03 -3.64963E+03  5.15469E+03 -5.85431E+03 -4.36582E+02
 -2.62463E+03 -6.00934E+03  3.60337E+03 -6.12965E+03  5.34221E+03 -2.97457E+03  5.48095E+03  1.14753E+03
  3.48219E+03  3.46794E+03  1.06982E+03  1.81024E+03 -6.60906E+02  2.06989E+03  1.90320E+03 -6.91472E+02
  2.21928E+03 -8.67833E+02  5.52274E+03  2.63389E+03  3.14382E+03  7.28485E+03 -1.43851E+03  9.73515E+03
 -6.65590E+03  5.96882E+03 -8.37565E+03  1.56615E+03 -7.80412E+03 -2.89781E+03 -2.93471E+03 -5.25288E+03
  8.59776E+02 -5.49728E+03  3.32519E+03 -2.50320E+03  3.10350E+03  2.83288E+03 -1.67951E+03  4.40594E+03
 -5.98103E+03  2.93265E+03 -5.87873E+03 -3.09475E+03 -3.73500E+03 -7.43315E+03  1.17048E+03 -7.00161E+03
  4.52793E+03 -4.30824E+03  5.31937E+03 -5.52107E+02  4.70889E+03  1.96592E+03  4.24069E+02  4.02117E+03
 -2.48433E+03  1.68339E+03 -3.19972E+03 -2.97722E+03  1.89362E+03 -5.69360E+03  6.79953E+03 -4.76377E+03
  8.68146E+03  5.11541E+02  8.29466E+03  6.00255E+03  2.50383E+03  9.16805E+03 -3.33004E+03  8.63803E+03
 -6.80273E+03  3.50512E+03 -7.47515E+03 -8.13376E+02 -4.08810E+03 -5.64241E+03  1.24560E+03 -5.52263E+03
  5.85104E+03 -2.95910E+03  4.79043E+03  2.37244E+03  1.67918E+03  4.76965E+03 -7.98915E+02  4.45786E+03
 -2.35517E+03  3.05766E+03 -2.22347E+03  9.98616E+02 -9.76689E+02  8.31124E+02 -1.50345E+03  2.10721E+03
 -1.76532E+03  3.42184E+03 -6.05167E+03  3.19187E+03 -8.86537E+03  4.39955E+01 -9.74714E+03 -6.08554E+03
 -4.83161E+03 -1.17846E+04  2.35085E+03 -1.35510E+04  8.09740E+03 -1.04656E+04  1.28677E+04 -4.18236E+03
  1.19932E+04  2.85639E+03  6.87750E+03  8.33874E+03  5.81496E+02  9.23501E+03 -3.74199E+03  7.16801E+03
 -5.28533E+03  2.31426E+03 -2.99359E+03 -1.14736E+03 -1.23394E+03 -6.75694E+02 -3.43368E+02  4.98784E+00
 -2.02423E+03  7.94170E+01 -2.31174E+03 -3.29153E+01 -7.46257E+02 -2.39462E+03  1.32514E+02 -3.34428E+03
  4.37125E+03 -2.75608E+03  5.73692E+03 -9.95270E+01  6.58253E+03  4.84947E+03  1.19873E+03  9.65755E+03
 -4.01905E+03  1.00559E+04 -9.72834E+03  6.32194E+03 -1.11727E+04 -1.02820E+03 -8.35970E+03 -6.83733E+03
 -3.74191E+03 -9.53979E+03  1.97906E+03 -8.30838E+03  5.71656E+03 -4.36170E+03  6.15982E+03  5.14460E+02
  3.46200E+03  3.10081E+03 -1.71365E+02  2.59644E+03 -1.51276E+03  1.35762E+01  7.86881E+01 -2.18596E+03
  2.74160E+03 -9.38963E+02  3.44729E+03  1.71118E+03  2.21866E+03  3.92718E+03  3.07026E+02  4.37140E+03
 -4.01434E+03  3.93145E+03 -6.30236E+03  5.77547E+02 -5.44158E+03 -4.30288E+03 -9.48780E+02 -7.57100E+03
  4.11730E+03 -6.53097E+03  7.07645E+03 -1.75469E+03  6.92712E+03  1.40517E+03  3.75340E+03  5.23367E+03
  8.23112E+02  6.24875E+03 -2.70920E+03  4.60394E+03 -3.72442E+03  2.88629E+03 -3.21851E+03  3.88951E+02
 -1.55395E+03 -1.80527E+02 -1.75258E+03  3.20811E+02 -3.21251E+03  8.33804E+02 -4.31802E+03 -8.35929E+02
 -4.37646E+03 -3.06218E+03 -1.55050E+03 -6.16458E+03  2.96222E+03 -6.51107E+03  5.15569E+03 -2.92289E+03
  6.22528E+03  9.72797E+02  3.02607E+03  3.93533E+03 -5.68455E+02  5.97369E+03 -4.44891E+03  3.64353E+03
