 $NMID ID='MM_0lb_SNR800_17hz_g55_34.RAW', FMTDAT='(8E13.5)'
 TRAMP=1., VOLUME=1. $END
  3.09897E+05  4.26937E+02  3.37725E+05  2.50737E+05  8.47617E+04  3.38029E+05 -1.32505E+05  2.50581E+05
 -1.90106E+05  8.28884E+04 -1.11283E+05 -3.29560E+04  1.28948E+03 -5.05064E+04  5.38675E+04  1.51715E+02
  3.51371E+04  5.28655E+04 -1.66898E+04  7.52657E+04 -6.07933E+04  6.32231E+04 -8.37509E+04  3.19524E+04
 -8.04358E+04 -1.11288E+04 -5.68767E+04 -5.10693E+04 -1.49875E+04 -6.93507E+04  2.73505E+04 -4.51770E+04
  3.98877E+04  3.85829E+03  1.61041E+04  4.76717E+04 -3.42031E+04  4.72540E+04 -6.62313E+04 -2.32077E+02
 -5.29665E+04 -5.67165E+04 -6.72825E+03 -7.61775E+04  3.36225E+04 -5.42547E+04  4.76225E+04 -1.69812E+04
  4.27678E+04  1.15417E+04  3.12738E+04  2.52267E+04  1.58875E+04  2.89084E+04 -4.75413E+03  2.69422E+04
 -2.19862E+04  1.26347E+04 -1.88009E+04 -4.57357E+03  5.18524E+03 -7.39695E+03  2.19941E+04  1.15992E+04
  7.39608E+03  3.43648E+04 -3.17975E+04  3.48415E+04 -6.27131E+04  2.17064E+03 -5.62074E+04 -4.23204E+04
 -1.29036E+04 -6.25116E+04  3.91555E+04 -4.44931E+04  5.74155E+04 -1.88979E+03  3.34746E+04  3.15710E+04
 -6.34765E+03  3.49008E+04 -2.93293E+04  1.50870E+04 -2.92650E+04 -4.96658E+03 -1.59187E+04 -1.06898E+04
 -7.96331E+03 -1.27567E+04 -1.08106E+03 -1.74513E+04  7.10026E+03 -2.28068E+04  1.52163E+04 -1.32897E+04
  1.18414E+04  4.97633E+03 -7.48816E+03  1.32348E+04 -2.06061E+04 -3.54833E+03 -8.44317E+03 -3.25967E+04
  2.20973E+04 -4.19923E+04  4.71028E+04 -1.92631E+04  4.39132E+04  1.90848E+04  1.48337E+04  4.33383E+04
 -1.56413E+04  3.24545E+04 -2.43983E+04  1.50743E+03 -9.30056E+03 -2.70747E+04  2.07366E+04 -3.25439E+04
  4.00018E+04 -8.36754E+03  3.39030E+04  2.32619E+04  1.71188E+04  4.45229E+04 -8.22822E+03  4.80343E+04
 -3.02706E+04  3.23115E+04 -4.01079E+04  9.09309E+03 -4.06139E+04 -1.60680E+04 -2.26168E+04 -3.63546E+04
  7.30791E+03 -3.64022E+04  3.04483E+04 -1.37318E+04  2.85275E+04  1.08160E+04  3.47175E+03  1.86178E+04
 -1.34289E+04  8.17498E+03 -1.02598E+04 -7.52591E+03  5.82860E+03 -1.03006E+04  1.78649E+04  6.30838E+03
  1.29912E+04  2.20141E+04 -6.51013E+03  2.44036E+04 -2.19544E+04  1.04065E+04 -2.69976E+04 -5.52109E+03
 -1.90824E+04 -1.68235E+04 -7.06113E+03 -1.91501E+04  3.77069E+03 -1.75180E+04  1.42481E+04 -1.65696E+04
  2.39946E+04 -1.20352E+04  3.07629E+04  2.28721E+03  2.24561E+04  1.80319E+04  4.24549E+03  3.44995E+04
 -1.72032E+04  2.90307E+04 -2.71640E+04  1.01490E+04 -2.05132E+04 -1.03057E+04 -4.18577E+03 -1.36530E+04
  2.02749E+03 -3.19537E+03 -3.82593E+03  6.15447E+03 -1.48427E+04  5.30979E+03 -1.48954E+04 -5.81687E+03
 -9.20733E+03 -1.73450E+04  4.91082E+03 -2.15159E+04  1.42894E+04 -1.55296E+04  1.64682E+04 -1.50655E+03
  1.00889E+04  1.21842E+04 -9.26919E+02  1.73032E+04 -1.18470E+04  1.01143E+04 -1.73952E+04 -4.00159E+03
 -1.28507E+04 -1.59306E+04 -1.50187E+03 -2.11555E+04  9.54135E+03 -1.71086E+04  1.77032E+04 -8.17024E+03
  1.64337E+04  7.18780E+02  1.13281E+04  4.32452E+03  6.13068E+03  6.31017E+02  9.01624E+03 -1.50783E+03
  1.54223E+04  2.86185E+03  1.70754E+04  1.39743E+04  1.07668E+04  2.72324E+04 -3.03113E+03  3.02763E+04
 -1.82028E+04  2.39860E+04 -2.80501E+04  1.17021E+04 -2.92290E+04 -2.11438E+03 -2.43866E+04 -1.65455E+04
 -1.09916E+04 -2.38125E+04  7.86553E+03 -2.19422E+04  1.90312E+04 -1.17924E+04  1.72692E+04  4.40437E+03
  7.02892E+03  1.27794E+04 -7.90043E+03  1.16215E+04 -1.46683E+04  2.48551E+03 -1.14229E+04 -9.02137E+03
  4.31703E+01 -1.38985E+04  6.69789E+03 -1.04769E+04  9.12187E+03 -1.45201E+03  1.86288E+03  5.64171E+03
 -6.39637E+03  1.87903E+03 -4.71531E+03 -4.92123E+03 -8.78708E+00 -1.15879E+04  8.68982E+03 -1.21889E+04
  1.43556E+04 -5.93840E+03  1.48310E+04  2.77934E+03  1.29091E+04  1.09994E+04  5.80533E+03  1.69200E+04
 -2.50314E+03  1.88692E+04 -1.19574E+04  1.17289E+04 -1.38013E+04  3.19324E+03 -1.00190E+04 -2.87592E+03
 -4.86485E+03 -4.14357E+03 -5.97117E+02  1.06711E+03 -2.16732E+03  2.02889E+03 -4.50032E+03  3.79380E+03
 -9.08608E+03 -6.06757E+02 -9.84994E+03 -8.03567E+03 -4.12861E+03 -1.29213E+04  4.22654E+03 -9.54754E+03
  8.19699E+03 -4.09834E+03  6.04066E+03  2.61138E+03  3.63222E+02  3.55328E+03 -4.45008E+03 -2.38056E+02
 -4.13854E+03 -5.98673E+03 -6.57617E+02 -8.58106E+03  4.81498E+03 -9.45108E+03  1.16458E+04 -4.60576E+03
  1.35072E+04  1.22039E+03  1.04266E+04  7.46525E+03  1.82995E+03  1.01369E+04 -5.91416E+03  9.80101E+03
 -7.85201E+03  3.15854E+03 -3.96306E+03 -1.51884E+03  1.83053E+03 -2.16299E+03  5.23508E+03 -9.45764E+02
  4.65274E+03  3.65148E+03  1.14296E+03  7.70131E+03 -5.12790E+03  7.20029E+03 -8.87729E+03  1.93233E+03
 -5.74074E+03 -4.31574E+03  2.55565E+02 -7.72239E+03  4.46301E+03 -3.73115E+03  4.81555E+03  1.33048E+03
  9.95970E+02  4.28646E+03 -4.82843E+03  5.83482E+03 -6.38766E+03  2.98649E+03 -6.01373E+03 -1.97391E+03
 -3.40423E+03 -7.68491E+03  1.70515E+03 -8.90180E+03  7.42660E+03 -5.56018E+03  7.79134E+03  1.51218E+03
  5.16314E+03  6.69505E+03  9.64344E+01  8.52912E+03 -6.29824E+03  4.79718E+03 -6.31204E+03 -6.41323E+02
 -6.43220E+03 -5.94774E+03 -1.31108E+03 -5.97075E+03  3.12777E+03 -5.46257E+03  3.88952E+03 -3.22020E+03
  3.09425E+03  3.36527E+02 -1.35965E+02  1.44493E+03  3.21568E+02 -4.47175E+02  7.13775E+02 -2.77753E+03
  4.82299E+03 -1.32154E+03  6.83047E+03  1.08560E+03  7.02067E+03  4.09841E+03  6.19513E+03  9.30024E+03
 -1.62045E+03  1.08235E+04 -9.69542E+03  8.13086E+03 -1.25699E+04  1.40520E+03 -9.64606E+03 -3.54996E+03
 -5.11327E+03 -7.87355E+03 -4.22538E+02 -6.41533E+03  2.44705E+03 -3.08803E+03  1.93592E+03 -2.34766E+03
  1.44042E+03 -1.49174E+03  2.74851E+03 -2.61548E+03  3.85286E+03 -1.62194E+03  4.29944E+03  8.42607E+01
  5.33176E+03  1.35002E+03  1.82606E+03  4.17400E+03 -1.79564E+03  3.99140E+03 -5.51212E+03  3.55046E+03
 -6.13815E+03 -1.10486E+03 -3.10148E+03 -3.87906E+03  2.04977E+02 -6.23500E+03  3.93398E+03 -6.60698E+03
  6.56458E+03 -4.25660E+03  8.45390E+03  4.03836E+02  6.17438E+03  5.28336E+03  1.23540E+03  7.38405E+03
 -2.80301E+03  6.92579E+03 -4.62150E+03  2.32267E+03 -2.40977E+03 -1.06185E+03 -7.56238E+02 -1.02280E+03
 -6.43584E+02  3.16235E+02 -8.71605E+02  2.20491E+03 -2.79647E+03  1.10218E+03 -4.73482E+03 -4.42314E+02
 -2.05731E+03 -4.81826E+03  8.75024E+02 -5.50370E+03  3.22257E+03 -5.59923E+03  4.82226E+03 -1.21007E+03
  5.43486E+03  2.84483E+03  2.48440E+03  4.47995E+03 -1.29720E+03  5.55086E+03 -3.69146E+03  3.55154E+03
 -5.02095E+03  4.77024E+02 -4.11426E+03 -3.11362E+03 -2.87273E+02 -4.05124E+03  2.15468E+03 -3.33842E+03
  3.73496E+03 -1.50883E+03  2.16671E+03  7.77521E+02  5.66309E+02  2.07257E+03  1.10348E+03  8.05836E+02
  1.61929E+03  6.99682E+02  1.35341E+03  1.12770E+03  1.46389E+03  2.25902E+03  1.73081E+03  2.47055E+03
 -1.13132E+03  3.95680E+03 -3.34923E+03  4.79636E+03 -4.26297E+03  1.59433E+03 -5.21619E+03 -1.08860E+03
 -2.42661E+03 -5.08812E+03  6.40032E+02 -5.90777E+03  2.51651E+03 -3.27170E+03  4.02303E+03 -1.14087E+03
  3.33523E+03  2.19586E+03  2.77559E+02  3.11570E+03 -1.07284E+03  1.75323E+03 -1.48319E+03 -2.35800E+02
 -8.23638E+02 -1.96364E+03  1.50971E+03 -2.00790E+03  1.84188E+03 -1.42021E+03  1.83792E+03  2.74470E+02
  9.93887E+02  6.46084E+02  5.05872E+02  5.21645E+01 -1.32568E+02  7.08258E+02  1.77781E+03 -1.93616E+02
  1.66033E+02  4.74092E+01  2.31336E+03  7.22609E+02  9.38082E+02  2.84930E+03 -7.45210E+02  3.61934E+03
 -2.17415E+03  1.61598E+03 -2.59792E+03  4.66998E+02 -3.06046E+03 -9.87884E+02 -4.61199E+02 -1.42584E+03
  4.12601E+02 -1.64690E+03  8.74806E+02 -9.21979E+02  7.02932E+02  1.38803E+03 -4.57130E+02  1.67696E+03
 -1.88505E+03  8.90936E+02 -2.02180E+03 -1.43223E+03 -6.71019E+02 -2.61614E+03  5.82676E+02 -2.04497E+03
  9.61463E+02 -9.20074E+02  1.16931E+03  1.37593E+02  1.68826E+03 -1.17599E+02  4.31765E+02  1.29826E+03
 -5.59212E+02  2.47249E+02 -1.15965E+03 -2.53293E+02  4.95524E+02 -1.18506E+03  2.15534E+03 -1.18035E+03
  1.84745E+03  2.82609E+02  3.30751E+03  1.01321E+03  1.26662E+03  2.31634E+03 -5.49420E+02  2.41136E+03
 -1.96254E+03  5.37992E+02 -2.00668E+03 -5.25640E+02 -1.34351E+03 -1.73128E+03  5.03323E+02 -9.20861E+02
  1.86711E+03 -6.88435E+02  1.11726E+03  7.07593E+02  2.80944E+02  1.60940E+03  7.75005E+01  1.53627E+03
 -3.59175E+02  1.42931E+03 -7.92864E+02 -4.46400E+01 -2.29484E+02  4.27442E+02 -7.14583E+02  5.82844E+02
 -6.49022E+02  1.23899E+03 -2.14671E+03  7.76854E+02 -2.30056E+03  1.01007E+02 -3.24089E+03 -1.37654E+03
 -1.38383E+03 -2.89621E+03  7.48135E+02 -3.71069E+03  1.66030E+03 -3.19434E+03  3.48321E+03 -1.27549E+03
  2.90508E+03  1.79965E+02  1.52359E+03  2.14923E+03 -5.22935E+02  1.71361E+03 -1.00337E+03  1.62587E+03
 -1.09891E+03  1.11480E+03 -5.52878E+02 -3.67066E+02 -6.12764E+02  3.74815E+02 -6.71973E+02  3.51012E+01
 -1.16875E+03 -2.23223E+02 -9.00466E+02 -9.27473E+01  2.96789E+02 -8.09105E+02 -1.96101E+02 -1.02318E+03
  1.38492E+03 -6.73653E+02  7.86954E+02  4.83048E+01  1.58656E+03  1.51270E+03 -3.14117E+02  2.07190E+03
 -1.40307E+03  2.71618E+03 -2.22696E+03  1.59056E+03 -2.26772E+03 -3.85628E+02 -1.80782E+03 -1.71202E+03
 -1.17990E+03 -1.91416E+03  3.33957E+02 -2.01408E+03  9.06652E+02 -8.35893E+02  9.55395E+02  3.23927E+02
  1.09328E+03  4.93100E+02  2.19662E+02  6.07420E+02 -4.62668E+02 -4.13716E+01 -5.48571E+01 -1.92463E+02
  9.96871E+02  4.60525E+01  1.27179E+02  6.27313E+02  1.36018E+02  5.83789E+02  2.33038E+02  4.57612E+02
 -9.34732E+02  7.17855E+02 -7.46001E+02  6.09461E+01 -1.16491E+03 -6.84292E+02  9.93908E+01 -1.46136E+03
  6.32793E+02 -1.07927E+03  1.10744E+03  4.57685E+01  1.12010E+03 -5.13619E+02  8.64466E+02  1.30827E+03
  6.17757E+02  1.03145E+03 -4.11615E+02  6.47216E+02 -8.59891E+02  9.79934E+02 -4.62668E+02  6.61826E+01
 -2.93485E+02 -1.86909E+02 -4.60911E+02  4.80372E+01 -8.78024E+02 -6.21546E+01 -1.13051E+03 -3.66720E+02
 -1.64410E+03  1.20264E+02 -3.41991E+02 -1.08049E+03  7.70040E+02 -1.53887E+03  8.31213E+02 -2.37466E+02
  1.16898E+03  7.20010E+01 -4.72098E+02  2.51498E+02  1.02041E+02  1.23136E+03 -6.42919E+02  8.10061E+02
