 $NMID ID='MM_0lb_SNR800_15hz_g60_63.RAW', FMTDAT='(8E13.5)'
 TRAMP=1., VOLUME=1. $END
  3.09623E+05  4.06960E+02  3.37671E+05  2.50793E+05  8.48553E+04  3.38247E+05 -1.32710E+05  2.51526E+05
 -1.90285E+05  8.34266E+04 -1.12090E+05 -3.28768E+04  8.70844E+02 -5.06299E+04  5.36398E+04 -3.71442E+02
  3.56932E+04  5.26962E+04 -1.65159E+04  7.57454E+04 -6.07730E+04  6.36268E+04 -8.44163E+04  3.20393E+04
 -8.15373E+04 -1.17309E+04 -5.72283E+04 -5.16150E+04 -1.48511E+04 -6.99750E+04  2.74341E+04 -4.64185E+04
  4.00639E+04  3.53317E+03  1.61577E+04  4.81700E+04 -3.44418E+04  4.74132E+04 -6.70103E+04 -2.02315E+02
 -5.38998E+04 -5.67200E+04 -6.71062E+03 -7.73754E+04  3.35478E+04 -5.57426E+04  4.81842E+04 -1.72831E+04
  4.36501E+04  1.13512E+04  3.20804E+04  2.58137E+04  1.58057E+04  2.94081E+04 -5.26319E+03  2.73243E+04
 -2.22790E+04  1.22825E+04 -1.84316E+04 -5.14623E+03  5.80670E+03 -7.61097E+03  2.26829E+04  1.25047E+04
  7.29130E+03  3.60492E+04 -3.25932E+04  3.57315E+04 -6.38088E+04  2.33558E+03 -5.76180E+04 -4.31037E+04
 -1.24240E+04 -6.35354E+04  4.03329E+04 -4.58992E+04  5.91045E+04 -2.22243E+03  3.45314E+04  3.25720E+04
 -5.76114E+03  3.67938E+04 -3.04998E+04  1.67253E+04 -3.11117E+04 -4.32038E+03 -1.72696E+04 -1.09799E+04
 -8.82158E+03 -1.35180E+04 -8.81394E+02 -1.84922E+04  7.47959E+03 -2.29885E+04  1.54101E+04 -1.29311E+04
  1.12397E+04  5.56928E+03 -8.59759E+03  1.32207E+04 -2.15014E+04 -4.56239E+03 -8.49133E+03 -3.45159E+04
  2.30843E+04 -4.42365E+04  4.87105E+04 -1.97447E+04  4.59170E+04  1.96198E+04  1.61027E+04  4.43521E+04
 -1.60725E+04  3.41878E+04 -2.58230E+04  2.11704E+03 -1.00203E+04 -2.82006E+04  2.10547E+04 -3.45215E+04
  4.19646E+04 -9.39179E+03  3.63820E+04  2.41371E+04  1.88930E+04  4.73186E+04 -7.91325E+03  5.12942E+04
 -3.25209E+04  3.43778E+04 -4.29596E+04  9.67633E+03 -4.33772E+04 -1.69447E+04 -2.39873E+04 -3.87849E+04
  7.51189E+03 -3.87752E+04  3.17729E+04 -1.51909E+04  2.96260E+04  1.07069E+04  3.89523E+03  1.91504E+04
 -1.34669E+04  8.90734E+03 -1.02610E+04 -7.68092E+03  5.53015E+03 -1.08071E+04  1.79461E+04  5.91488E+03
  1.38958E+04  2.19961E+04 -5.85840E+03  2.51919E+04 -2.25693E+04  1.20156E+04 -2.84337E+04 -4.30693E+03
 -2.10382E+04 -1.75890E+04 -8.77423E+03 -2.11695E+04  4.10577E+03 -2.03239E+04  1.64801E+04 -1.87249E+04
  2.67323E+04 -1.30296E+04  3.32738E+04  3.01159E+03  2.42978E+04  2.03770E+04  4.39333E+03  3.71795E+04
 -1.79835E+04  3.09464E+04 -2.83247E+04  1.05512E+04 -2.08538E+04 -1.01215E+04 -4.71090E+03 -1.33939E+04
  1.73527E+03 -2.52031E+03 -4.89313E+03  6.75569E+03 -1.64908E+04  5.37129E+03 -1.65947E+04 -7.11920E+03
 -1.03667E+04 -1.95765E+04  5.37933E+03 -2.33271E+04  1.56277E+04 -1.68273E+04  1.87174E+04 -1.27100E+03
  1.20478E+04  1.34723E+04 -1.42412E+03  1.93681E+04 -1.36110E+04  1.11319E+04 -1.93452E+04 -4.10885E+03
 -1.43335E+04 -1.77183E+04 -1.79920E+03 -2.35251E+04  1.03431E+04 -1.91359E+04  1.91603E+04 -9.54212E+03
  1.82362E+04  3.63070E+02  1.28669E+04  4.19729E+03  6.95379E+03  1.09751E+03  9.85914E+03 -1.67108E+03
  1.79004E+04  2.57729E+03  1.98083E+04  1.56775E+04  1.29992E+04  3.07133E+04 -2.71568E+03  3.50676E+04
 -2.04337E+04  2.82949E+04 -3.25218E+04  1.43762E+04 -3.44614E+04 -2.44937E+03 -2.85933E+04 -1.95724E+04
 -1.20496E+04 -2.86361E+04  9.44307E+03 -2.53558E+04  2.18290E+04 -1.28562E+04  1.96220E+04  5.70842E+03
  7.46860E+03  1.45660E+04 -9.01055E+03  1.28360E+04 -1.61634E+04  2.54825E+03 -1.28287E+04 -1.04140E+04
  3.01236E+01 -1.57103E+04  7.95895E+03 -1.19473E+04  1.04180E+04 -1.38798E+03  2.13479E+03  6.71848E+03
 -6.93028E+03  2.44893E+03 -6.11463E+03 -5.66293E+03 -6.11994E+02 -1.38797E+04  9.44691E+03 -1.42820E+04
  1.69079E+04 -7.53094E+03  1.81725E+04  2.82752E+03  1.61650E+04  1.35074E+04  7.45182E+03  2.08372E+04
 -3.32254E+03  2.27144E+04 -1.44137E+04  1.38761E+04 -1.61615E+04  3.35467E+03 -1.12394E+04 -3.79441E+03
 -5.69074E+03 -4.83619E+03 -9.78663E+02  9.82072E+02 -2.31019E+03  2.48665E+03 -5.06949E+03  4.62967E+03
 -1.07157E+04 -5.36993E+02 -1.11959E+04 -9.04230E+03 -4.66538E+03 -1.47162E+04  4.95770E+03 -1.15251E+04
  9.53407E+03 -4.82892E+03  6.49118E+03  3.01346E+03  2.48796E+02  4.36179E+03 -5.28138E+03 -2.01999E+02
 -4.85869E+03 -7.52818E+03 -1.22947E+03 -1.05409E+04  6.29216E+03 -1.10134E+04  1.39016E+04 -6.02931E+03
  1.66697E+04  1.52796E+03  1.23844E+04  9.36388E+03  2.35299E+03  1.29605E+04 -6.82508E+03  1.12738E+04
 -9.42564E+03  3.54577E+03 -4.76571E+03 -2.44327E+03  2.01602E+03 -3.01251E+03  6.25758E+03 -1.07488E+03
  5.38554E+03  4.76479E+03  1.26670E+03  9.02545E+03 -6.24468E+03  8.22138E+03 -1.11871E+04  2.18528E+03
 -7.20073E+03 -5.42770E+03  2.81638E+01 -9.39829E+03  5.94498E+03 -4.71862E+03  5.96477E+03  1.52492E+03
  1.28244E+03  5.97581E+03 -5.57856E+03  7.15386E+03 -8.45170E+03  3.44825E+03 -8.36734E+03 -2.65882E+03
 -4.86706E+03 -9.66345E+03  2.32774E+03 -1.15181E+04  9.62299E+03 -7.16515E+03  1.04325E+04  1.68361E+03
  6.58163E+03  8.38387E+03 -4.59633E+02  1.07200E+04 -7.39990E+03  5.74592E+03 -7.78293E+03 -9.24522E+02
 -7.68636E+03 -6.88557E+03 -1.44167E+03 -7.99360E+03  3.82324E+03 -6.57606E+03  4.77491E+03 -3.40184E+03
  3.89411E+03  9.52128E+02 -5.31195E+02  1.49204E+03 -1.25271E+02 -1.43108E+03  9.92862E+02 -4.02344E+03
  6.53068E+03 -2.30162E+03  9.43303E+03  1.35015E+03  9.01187E+03  5.93829E+03  7.02661E+03  1.21253E+04
 -2.41309E+03  1.40110E+04 -1.20273E+04  1.06621E+04 -1.56492E+04  1.97945E+03 -1.25683E+04 -4.66734E+03
 -6.43679E+03 -1.01222E+04 -4.74104E+02 -8.38646E+03  3.45932E+03 -4.49409E+03  2.96524E+03 -3.32939E+03
  2.29471E+03 -1.71667E+03  2.84244E+03 -3.01272E+03  3.92687E+03 -2.20084E+03  5.08687E+03 -1.36428E+02
  6.40650E+03  1.77447E+03  2.55178E+03  5.33285E+03 -1.44321E+03  5.41105E+03 -6.81648E+03  4.48177E+03
 -8.36574E+03 -1.38332E+03 -4.45067E+03 -5.44820E+03  7.90492E+01 -8.38400E+03  4.96420E+03 -8.95971E+03
  8.87999E+03 -4.92693E+03  1.07300E+04  1.14106E+03  7.58064E+03  7.39141E+03  1.57525E+03  9.58520E+03
 -3.78075E+03  8.49642E+03 -5.58766E+03  2.93741E+03 -3.57610E+03 -1.34741E+03 -1.58406E+03 -7.42908E+02
 -1.00449E+03  1.32712E+02 -1.48672E+03  2.26562E+03 -3.92076E+03  1.34154E+03 -6.05765E+03 -8.38446E+02
 -3.48540E+03 -5.91685E+03  5.27967E+02 -7.83278E+03  4.73633E+03 -7.28894E+03  6.98627E+03 -1.74335E+03
  7.36658E+03  3.65577E+03  3.56396E+03  6.32968E+03 -1.59997E+03  7.75082E+03 -5.25101E+03  4.59071E+03
 -6.71056E+03  5.14225E+02 -5.73149E+03 -4.31862E+03 -4.56247E+02 -5.71274E+03  2.97011E+03 -4.29971E+03
  4.52418E+03 -1.81448E+03  3.40034E+03  9.04150E+02  9.81525E+02  2.23497E+03  1.16881E+03  8.24862E+02
  2.03570E+03  6.39288E+02  1.96481E+03  1.15634E+03  2.07395E+03  3.50344E+03  2.13538E+03  3.50799E+03
 -1.67254E+03  5.44609E+03 -4.91481E+03  6.23043E+03 -6.77586E+03  2.02197E+03 -7.36606E+03 -2.04333E+03
 -3.56533E+03 -6.99168E+03  7.70387E+02 -8.12209E+03  4.04180E+03 -4.69766E+03  5.85132E+03 -1.29253E+03
  4.53218E+03  2.62483E+03  1.12374E+03  3.81798E+03 -1.75678E+03  2.24932E+03 -2.42382E+03 -2.31045E+01
 -1.40573E+03 -2.76113E+03  1.66187E+03 -2.97497E+03  2.34731E+03 -1.37808E+03  2.61928E+03  6.77959E+02
  1.69819E+03  1.05087E+03  9.47017E+02  5.56692E+02 -5.97667E+02  1.32789E+03  1.69580E+03 -1.74739E+02
  3.50044E+02 -1.75371E+02  2.96864E+03  1.37828E+03  1.30361E+03  3.76556E+03 -8.57221E+02  5.02205E+03
 -2.94616E+03  2.42765E+03 -4.04342E+03  5.81197E+02 -3.94731E+03 -1.42206E+03 -9.90817E+02 -2.14994E+03
  1.94968E+02 -2.32810E+03  1.66201E+03 -1.43829E+03  1.65792E+03  1.68051E+03 -1.11396E+03  2.06836E+03
 -2.42493E+03  1.05463E+03 -2.85135E+03 -2.14707E+03 -1.43034E+03 -3.65494E+03  2.83839E+02 -3.42673E+03
  1.57158E+03 -1.54463E+03  2.16069E+03  1.04280E+02  2.33494E+03  3.81728E+02  3.39827E+02  1.99277E+03
 -7.11086E+02  2.75141E+02 -1.58185E+03 -7.94782E+02  1.09305E+03 -1.98737E+03  3.25399E+03 -1.89896E+03
  3.32470E+03  1.66197E+02  4.26905E+03  1.95804E+03  1.60600E+03  3.74264E+03 -7.53055E+02  3.49290E+03
 -2.90468E+03  1.24263E+03 -3.27114E+03 -2.94680E+02 -1.94274E+03 -2.24286E+03  4.52641E+02 -1.77470E+03
  2.18225E+03 -1.20388E+03  1.94893E+03  1.09724E+03  4.77739E+02  2.02535E+03 -1.64926E+01  1.83881E+03
 -5.59553E+02  1.61370E+03 -5.91642E+02  4.51296E+02 -2.02668E+02  6.25255E+02 -7.23249E+02  6.83849E+02
 -1.09601E+03  1.60343E+03 -2.84463E+03  1.33371E+03 -3.41061E+03  2.52677E+02 -4.49370E+03 -2.01808E+03
 -2.27678E+03 -4.58741E+03  1.06960E+03 -5.88359E+03  3.06856E+03 -4.42333E+03  5.30222E+03 -1.79790E+03
  5.04634E+03  1.30865E+02  2.63114E+03  2.99733E+03 -4.83631E+01  3.13799E+03 -1.05632E+03  2.75074E+03
 -2.33656E+03  1.28986E+03 -1.32202E+03 -4.89225E+02 -7.76159E+02  1.93869E+02 -9.46038E+02  1.41463E+02
 -9.85278E+02 -1.20555E+02 -1.38433E+03 -1.88129E+02  2.97650E+01 -8.44582E+02 -3.40413E+02 -1.44922E+03
  1.80174E+03 -1.13528E+03  1.52046E+03 -1.84606E+02  2.38389E+03  1.95972E+03 -6.49362E+01  3.30894E+03
 -1.25180E+03  4.05505E+03 -3.35362E+03  2.23878E+03 -3.88904E+03 -1.77704E+02 -2.70054E+03 -2.54522E+03
 -1.73320E+03 -3.14213E+03  7.53648E+02 -3.02862E+03  1.57757E+03 -1.27021E+03  1.83363E+03  3.67593E+02
  1.12873E+03  8.85634E+02 -1.49781E+02  1.25248E+03 -7.19797E+02 -3.45130E+02 -2.00811E+02 -5.46785E+02
  6.79662E+02 -4.80219E+02  9.71558E+02  3.26216E+02  7.42127E+02  1.14124E+03  4.73711E+02  1.24509E+03
 -1.48305E+03  1.32568E+03 -2.06606E+03  1.59237E+02 -1.57846E+03 -1.21954E+03 -1.74935E+02 -2.45233E+03
  1.02410E+03 -1.98891E+03  1.64427E+03 -3.92619E+02  2.33038E+03  1.49698E+02  1.17124E+03  1.81573E+03
  6.97738E+02  2.02792E+03 -7.36033E+02  1.45672E+03 -1.06933E+03  1.35067E+03 -9.33230E+02  1.91586E+02
 -5.22430E+02 -2.51000E+02 -9.10000E+02  2.38149E+02 -1.14009E+03  2.06358E+02 -1.58118E+03 -1.87264E+02
 -2.03007E+03 -5.57304E+02 -5.26960E+02 -1.99446E+03  1.21723E+03 -2.61586E+03  1.63945E+03 -9.11573E+02
  1.42279E+03  1.27232E+02  5.07143E+02  8.78581E+02 -2.09101E+01  2.02329E+03 -1.04116E+03  1.42018E+03
