 $NMID ID='MM_0lb_SNR800_20hz_g50_42.RAW', FMTDAT='(8E13.5)'
 TRAMP=1., VOLUME=1. $END
  3.09924E+05  3.43450E+02  3.37237E+05  2.50352E+05  8.43551E+04  3.37288E+05 -1.32351E+05  2.50400E+05
 -1.89746E+05  8.20981E+04 -1.10752E+05 -3.27875E+04  1.82808E+03 -5.01881E+04  5.38048E+04  1.54902E+02
  3.49474E+04  5.29997E+04 -1.71209E+04  7.50375E+04 -6.01235E+04  6.28198E+04 -8.29023E+04  3.14208E+04
 -7.94691E+04 -1.10817E+04 -5.61150E+04 -5.00999E+04 -1.46300E+04 -6.81166E+04  2.63694E+04 -4.46427E+04
  3.89641E+04  4.10258E+03  1.53816E+04  4.69373E+04 -3.37202E+04  4.61069E+04 -6.50049E+04 -4.83701E+02
 -5.17402E+04 -5.56831E+04 -6.26564E+03 -7.49765E+04  3.31151E+04 -5.29579E+04  4.60530E+04 -1.58072E+04
  4.13645E+04  1.14802E+04  3.06428E+04  2.42395E+04  1.56997E+04  2.79661E+04 -4.51303E+03  2.68795E+04
 -2.16448E+04  1.28961E+04 -1.90722E+04 -3.92083E+03  4.07015E+03 -7.66077E+03  2.10374E+04  1.06528E+04
  7.28442E+03  3.29027E+04 -3.03498E+04  3.35909E+04 -6.07892E+04  2.15218E+03 -5.49340E+04 -4.10278E+04
 -1.21065E+04 -6.03280E+04  3.81543E+04 -4.30544E+04  5.51400E+04 -1.97067E+03  3.13280E+04  3.04738E+04
 -6.77771E+03  3.25239E+04 -2.81627E+04  1.30583E+04 -2.69262E+04 -5.35639E+03 -1.41808E+04 -1.01384E+04
 -7.24120E+03 -1.09653E+04 -1.16901E+03 -1.66724E+04  6.32729E+03 -2.25750E+04  1.49234E+04 -1.41217E+04
  1.21684E+04  4.37070E+03 -6.04706E+03  1.31294E+04 -1.89381E+04 -1.91582E+03 -8.12795E+03 -2.97650E+04
  2.02526E+04 -4.01872E+04  4.40591E+04 -1.83079E+04  4.16250E+04  1.80212E+04  1.39649E+04  4.12212E+04
 -1.51449E+04  3.06951E+04 -2.30728E+04  9.18833E+02 -8.18964E+03 -2.60449E+04  2.03355E+04 -3.06214E+04
  3.76811E+04 -7.10489E+03  3.06798E+04  2.25565E+04  1.47822E+04  4.20051E+04 -7.72754E+03  4.44612E+04
 -2.78799E+04  2.93183E+04 -3.64282E+04  8.25136E+03 -3.77445E+04 -1.48413E+04 -2.08006E+04 -3.39807E+04
  6.70047E+03 -3.34679E+04  2.86130E+04 -1.23493E+04  2.65947E+04  1.09234E+04  2.71067E+03  1.74859E+04
 -1.33099E+04  6.99145E+03 -9.71497E+03 -7.38542E+03  6.27722E+03 -9.94422E+03  1.70161E+04  6.34003E+03
  1.21882E+04  2.16498E+04 -6.58113E+03  2.30318E+04 -2.11014E+04  8.70481E+03 -2.42184E+04 -6.55896E+03
 -1.59564E+04 -1.60501E+04 -5.00796E+03 -1.58631E+04  3.85460E+03 -1.38643E+04  1.16788E+04 -1.36295E+04
  2.04462E+04 -1.14579E+04  2.71658E+04  4.86383E+02  2.07315E+04  1.56517E+04  3.98304E+03  3.16028E+04
 -1.58693E+04  2.70928E+04 -2.53889E+04  9.10024E+03 -1.93915E+04 -1.04561E+04 -3.84028E+03 -1.40316E+04
  2.71718E+03 -4.36100E+03 -2.13181E+03  5.11061E+03 -1.22668E+04  5.22318E+03 -1.27796E+04 -4.70008E+03
 -8.33159E+03 -1.49423E+04  4.50653E+03 -1.85680E+04  1.22295E+04 -1.33554E+04  1.38918E+04 -1.45742E+03
  8.62206E+03  1.03990E+04 -7.35549E+02  1.48433E+04 -9.89798E+03  8.36993E+03 -1.48124E+04 -3.42880E+03
 -1.09167E+04 -1.34393E+04 -1.47998E+03 -1.81258E+04  8.20817E+03 -1.45004E+04  1.55768E+04 -6.80993E+03
  1.38779E+04  7.72927E+02  1.01180E+04  3.67030E+03  4.63122E+03  2.60177E+02  7.27845E+03 -1.49120E+03
  1.32407E+04  2.72624E+03  1.39138E+04  1.22510E+04  8.29027E+03  2.36332E+04 -2.93712E+03  2.49183E+04
 -1.49467E+04  1.87600E+04 -2.30255E+04  8.74885E+03 -2.31359E+04 -1.68527E+03 -1.99703E+04 -1.34677E+04
 -9.65234E+03 -1.88313E+04  6.35151E+03 -1.80289E+04  1.55729E+04 -1.06841E+04  1.47899E+04  3.42962E+03
  6.60120E+03  1.06302E+04 -6.61804E+03  9.86617E+03 -1.26633E+04  2.66823E+03 -9.82151E+03 -7.42921E+03
  5.17702E+01 -1.19262E+04  5.58177E+03 -9.11923E+03  7.31913E+03 -1.14329E+03  1.24580E+03  4.62301E+03
 -5.27908E+03  8.21191E+02 -3.36973E+03 -4.41154E+03  7.91277E+02 -9.69649E+03  7.30175E+03 -9.36100E+03
  1.12733E+04 -4.18616E+03  1.03837E+04  2.89567E+03  9.36960E+03  8.62544E+03  4.50081E+03  1.26412E+04
 -1.15717E+03  1.44839E+04 -8.93734E+03  9.32452E+03 -1.01468E+04  2.79924E+03 -8.02966E+03 -1.64479E+03
 -4.00605E+03 -3.03136E+03 -9.39359E+02  1.66200E+03 -1.86238E+03  1.81909E+03 -3.21494E+03  3.47593E+03
 -7.65075E+03 -5.44069E+02 -8.16684E+03 -6.60105E+03 -3.53551E+03 -1.09659E+04  3.53528E+03 -7.87892E+03
  6.69676E+03 -3.73258E+03  4.88141E+03  2.10975E+03  7.49966E+02  2.72128E+03 -2.97257E+03 -4.74822E+02
 -3.33148E+03 -4.54364E+03 -8.47408E+02 -6.63696E+03  3.26585E+03 -7.00372E+03  8.84470E+03 -3.61960E+03
  1.07479E+04  4.34846E+02  7.88007E+03  5.21915E+03  1.95797E+03  7.49317E+03 -4.80482E+03  7.54205E+03
 -6.32810E+03  2.77481E+03 -3.33482E+03 -1.04769E+03  1.37284E+03 -1.60718E+03  4.47889E+03 -1.11338E+03
  3.84689E+03  3.09762E+03  1.13521E+03  5.91544E+03 -4.07589E+03  6.17381E+03 -7.07904E+03  1.81309E+03
 -4.27377E+03 -3.12291E+03  3.45864E+02 -6.16795E+03  3.21976E+03 -3.03286E+03  3.09522E+03  5.09850E+02
  3.81535E+02  2.77927E+03 -3.79026E+03  3.83002E+03 -4.11602E+03  1.90409E+03 -3.74342E+03 -9.29725E+02
 -2.57618E+03 -5.13873E+03  8.62785E+02 -5.96951E+03  5.05264E+03 -4.21924E+03  5.49564E+03  6.08710E+02
  4.34708E+03  4.52896E+03  2.45380E+02  6.16802E+03 -4.41631E+03  3.55895E+03 -4.63186E+03 -3.43275E+02
 -5.30154E+03 -4.50661E+03 -1.32340E+03 -4.36334E+03  1.99986E+03 -4.35194E+03  2.52051E+03 -2.80443E+03
  2.55410E+03  2.81935E+02  1.53086E+02  1.23622E+03  8.14870E+02  3.80222E+01  1.18569E+02 -1.24515E+03
  3.16756E+03 -2.66348E+02  4.47827E+03  4.71171E+02  4.63782E+03  2.29547E+03  4.66147E+03  5.95651E+03
 -1.00507E+03  7.13420E+03 -6.82935E+03  5.49448E+03 -8.58584E+03  7.68244E+02 -6.72000E+03 -2.07368E+03
 -3.80213E+03 -5.55918E+03 -5.05497E+02 -4.39448E+03  1.87777E+03 -1.70866E+03  1.38876E+03 -1.80764E+03
  9.36337E+02 -1.42156E+03  1.86500E+03 -2.07943E+03  3.14092E+03 -1.16373E+03  3.21432E+03  5.82774E+02
  3.90021E+03  1.07966E+03  7.91712E+02  3.04746E+03 -1.27523E+03  2.00284E+03 -3.88327E+03  2.03850E+03
 -4.10427E+03 -1.06904E+03 -1.22176E+03 -2.48206E+03  4.69709E+02 -4.15012E+03  2.65228E+03 -4.31592E+03
  4.21790E+03 -2.81578E+03  5.66058E+03 -8.73879E+01  4.13237E+03  3.64699E+03  8.50442E+02  5.12258E+03
 -1.50578E+03  5.15411E+03 -2.93403E+03  1.61952E+03 -1.61523E+03 -1.26319E+03 -6.44860E+01 -7.13731E+01
 -5.11704E+02  6.73775E+02 -6.31682E+02  2.01008E+03 -2.22912E+03  6.92756E+02 -3.55470E+03 -4.72466E+02
 -1.09874E+03 -3.72447E+03  8.81551E+02 -4.01991E+03  2.12024E+03 -3.78888E+03  2.61587E+03 -6.35219E+02
  3.29565E+03  1.97804E+03  1.48878E+03  2.52813E+03 -3.78644E+02  3.62563E+03 -1.93181E+03  2.19159E+03
 -2.93994E+03  5.69757E+02 -2.55078E+03 -1.63501E+03 -1.49403E+02 -2.44334E+03  1.10187E+03 -1.94948E+03
  1.91547E+03 -1.12044E+03  1.52426E+03  3.16579E+02  3.89241E+02  1.52810E+03  9.15777E+02  4.26544E+02
  1.77879E+03  4.36561E+02  1.11000E+03  9.49801E+02  8.52485E+02  2.08687E+03  1.09007E+03  1.36930E+03
 -1.24465E+03  2.12086E+03 -1.84083E+03  3.48156E+03 -2.11920E+03  1.15614E+03 -3.40623E+03 -1.41599E+02
 -1.29893E+03 -2.90790E+03  5.70906E+02 -3.88639E+03  1.17569E+03 -2.04495E+03  2.41565E+03 -8.78974E+02
  2.20765E+03  1.65010E+03  4.24834E+02  1.63355E+03 -4.03640E+02  7.77365E+02 -7.99980E+02  1.92159E+01
 -5.43394E+02 -9.00814E+02  1.13530E+03 -9.62037E+02  6.65886E+02 -8.43073E+02  1.01386E+03  1.59744E+02
  5.77303E+02 -4.01936E+01  7.94935E+02 -5.09359E+02 -3.86989E+02  5.96625E+02  1.97995E+03  4.03222E+01
  1.22436E+01 -3.17648E+02  1.79071E+03  6.45954E+02  1.81988E+02  2.00739E+03 -3.90892E+02  2.02517E+03
 -1.41813E+03  4.95904E+02 -1.70682E+03  6.65012E+01 -1.78390E+03 -4.84560E+02  1.64194E+02 -6.15464E+02
  4.73609E+02 -9.44373E+02  7.99890E+02 -5.61886E+02  4.05234E+02  1.01138E+03 -8.54372E+02  1.02707E+03
 -1.41967E+03  5.55681E+02 -8.58090E+02 -1.30826E+03 -4.78083E+02 -1.76243E+03  1.67097E+02 -9.96901E+02
  2.66005E+02 -3.22292E+02  5.47219E+02  1.81241E+02  9.90123E+02 -1.37078E+02  1.67144E+02  1.10643E+03
 -1.73077E+02 -4.42701E+01 -7.27551E+02 -2.67697E+01  3.33376E+02 -3.95226E+02  1.44929E+03 -6.96584E+02
  7.89011E+02  1.42992E+02  2.51940E+03  3.36436E+02  1.05805E+03  1.17247E+03  2.19356E+02  1.25517E+03
 -1.05950E+03  1.85038E+00 -1.13142E+03 -6.57591E+01 -5.54481E+02 -1.03459E+03  1.51666E+02 -3.07210E+02
  1.38368E+03 -9.26600E+02  4.83599E+02  5.07033E+02  3.75769E+01  1.02839E+03  3.73571E+02  9.28901E+02
  1.29892E+00  9.87942E+02 -2.69475E+02  1.04312E+02  2.23972E+00  3.60095E+02 -3.88905E+02  2.54455E+02
 -4.19433E+02  8.39403E+02 -1.59372E+03  2.93750E+02 -1.08833E+03  2.91750E+02 -2.05756E+03 -9.14107E+02
 -7.91089E+02 -2.06385E+03  3.97360E+02 -1.86850E+03  4.90809E+02 -2.07288E+03  2.01145E+03 -5.55091E+02
  1.65772E+03 -1.88857E+02  9.66490E+02  9.95827E+02 -4.59191E+02  1.09690E+03 -4.20381E+02  7.11101E+02
 -6.46363E+02  6.15311E+02 -4.39426E+02 -4.89686E+02 -5.62364E+02  2.87015E+02 -8.34861E+02 -3.05865E+01
 -8.10124E+02 -1.39098E+02 -9.34681E+02 -3.53271E+01  3.24764E+02 -6.03685E+02 -2.32604E+02 -7.57981E+02
  1.07221E+03 -4.84419E+02 -1.35880E+02  1.57226E+02  7.22353E+02  6.16360E+02 -5.47501E+02  9.24024E+02
 -3.94793E+02  1.66259E+03 -1.17968E+03  9.60332E+02 -1.07011E+03 -1.80509E+02 -7.12763E+02 -9.12766E+02
 -7.63820E+02 -8.85409E+02  1.16616E+02 -8.42333E+02  2.03864E+02 -3.72313E+02  2.11362E+02  2.20510E+02
  8.12772E+02 -2.83289E+00 -2.42157E+01  2.30935E+02 -1.72315E+02 -1.08539E+02  9.67282E+01 -6.99178E+01
  4.08065E+02  3.08199E+02  8.24139E+01  1.73037E+02 -3.03454E+00  7.12372E+01  5.18046E+02  2.20424E+02
 -3.87946E+02  4.59810E+02 -4.58977E+02  1.51153E+02 -3.59396E+02 -2.75769E+02  2.97251E+01 -4.95614E+02
  1.56526E+02 -1.78976E+02  2.87190E+02  9.94483E+01  5.64753E+02 -6.31441E+02  2.73284E+02  3.74797E+02
  1.76938E+02  2.84333E+02  7.69719E+01  1.95283E+02 -5.97003E+02  4.84472E+02 -6.10473E+02  2.87123E+01
 -1.86232E+01 -8.01027E+01 -4.79641E+02  1.20374E+02 -5.23240E+02 -5.12053E+01 -4.83933E+02 -2.86153E+02
 -7.53039E+02  5.21422E+02 -2.64347E+02 -6.32351E+02  4.57850E+02 -1.36535E+03  7.27702E+02 -3.98659E+02
  4.77936E+02  2.26866E+02 -5.51550E+02  2.07789E+02  1.53477E+01  6.43973E+02 -8.02161E+01  5.06768E+02
