 $NMID ID='MM_0lb_SNR800_7hz_g60_81.RAW', FMTDAT='(8E13.5)'
 TRAMP=1., VOLUME=1. $END
  3.09808E+05  1.14711E+02  3.38082E+05  2.50903E+05  8.44939E+04  3.39016E+05 -1.32371E+05  2.52617E+05
 -1.91258E+05  8.40794E+04 -1.13096E+05 -3.21877E+04 -5.52070E+02 -5.10165E+04  5.35979E+04 -1.05272E+03
  3.62880E+04  5.29916E+04 -1.66520E+04  7.63406E+04 -6.13156E+04  6.46071E+04 -8.57083E+04  3.27056E+04
 -8.32239E+04 -1.17659E+04 -5.94661E+04 -5.28090E+04 -1.53106E+04 -7.19460E+04  2.84496E+04 -4.74146E+04
  4.18562E+04  3.92348E+03  1.67824E+04  4.90733E+04 -3.55545E+04  4.86966E+04 -6.91393E+04  2.31566E+02
 -5.58555E+04 -5.82503E+04 -7.55065E+03 -7.99486E+04  3.49158E+04 -5.81538E+04  5.03913E+04 -1.87332E+04
  4.68797E+04  1.15430E+04  3.39808E+04  2.72034E+04  1.60472E+04  3.10661E+04 -6.65858E+03  2.81070E+04
 -2.29016E+04  1.16991E+04 -1.78650E+04 -6.09025E+03  7.56027E+03 -7.48741E+03  2.45651E+04  1.45652E+04
  7.54613E+03  3.88104E+04 -3.47458E+04  3.77204E+04 -6.72271E+04  2.08433E+03 -5.98111E+04 -4.52230E+04
 -1.27978E+04 -6.73067E+04  4.29731E+04 -4.83228E+04  6.34205E+04 -3.06545E+03  3.79353E+04  3.54846E+04
 -5.44239E+03  4.11202E+04 -3.28909E+04  2.05432E+04 -3.48924E+04 -2.93548E+03 -2.07224E+04 -1.28641E+04
 -9.79903E+03 -1.60871E+04 -4.25936E+02 -2.04972E+04  9.10990E+03 -2.36146E+04  1.58649E+04 -1.24283E+04
  1.01155E+04  6.73546E+03 -1.20889E+04  1.30263E+04 -2.46105E+04 -8.09469E+03 -8.74287E+03 -3.95943E+04
  2.66134E+04 -4.87971E+04  5.39821E+04 -2.19307E+04  5.05952E+04  2.15674E+04  1.79955E+04  4.87887E+04
 -1.68093E+04  3.77604E+04 -2.90544E+04  3.20152E+03 -1.30323E+04 -3.07819E+04  2.16563E+04 -3.91584E+04
  4.66086E+04 -1.22076E+04  4.34170E+04  2.57809E+04  2.33029E+04  5.39353E+04 -8.45466E+03  5.98390E+04
 -3.76083E+04  4.12905E+04 -5.06617E+04  1.18458E+04 -5.10087E+04 -2.00758E+04 -2.79228E+04 -4.43295E+04
  7.53208E+03 -4.49209E+04  3.56514E+04 -1.81731E+04  3.34668E+04  1.11160E+04  5.68551E+03  2.16211E+04
 -1.43792E+04  1.01845E+04 -1.15348E+04 -7.84226E+03  5.37430E+03 -1.17777E+04  1.90315E+04  4.98392E+03
  1.60893E+04  2.30362E+04 -4.48490E+03  2.84762E+04 -2.36801E+04  1.58792E+04 -3.37379E+04 -2.02517E+03
 -2.80397E+04 -1.90736E+04 -1.33410E+04 -2.81271E+04  4.54752E+03 -2.90187E+04  2.21518E+04 -2.60796E+04
  3.56281E+04 -1.45838E+04  4.12988E+04  5.82316E+03  2.90448E+04  2.70292E+04  5.35631E+03  4.44532E+04
 -2.11907E+04  3.55379E+04 -3.14098E+04  1.22362E+04 -2.32952E+04 -1.05264E+04 -5.22084E+03 -1.26484E+04
  6.72437E+01 -7.64691E+01 -9.38798E+03  9.46688E+03 -2.30188E+04  5.00333E+03 -2.23809E+04 -1.11030E+04
 -1.31659E+04 -2.61767E+04  6.85485E+03 -3.04893E+04  2.09808E+04 -2.16777E+04  2.56358E+04 -1.96170E+03
  1.62511E+04  1.83480E+04 -1.42820E+03  2.60641E+04 -1.91906E+04  1.53149E+04 -2.65726E+04 -5.80391E+03
 -1.95350E+04 -2.30953E+04 -3.02344E+03 -3.12920E+04  1.46863E+04 -2.61922E+04  2.53538E+04 -1.38194E+04
  2.45143E+04 -8.69906E+02  1.78711E+04  5.65976E+03  1.02701E+04  1.58992E+03  1.36849E+04 -1.75079E+03
  2.49025E+04  2.89884E+03  2.88033E+04  2.05952E+04  2.04527E+04  4.26349E+04 -2.73552E+03  5.03232E+04
 -2.87673E+04  4.26201E+04 -4.85745E+04  2.23485E+04 -5.22126E+04 -4.03842E+03 -4.18917E+04 -3.05392E+04
 -1.59016E+04 -4.38707E+04  1.60041E+04 -3.77246E+04  3.17700E+04 -1.70089E+04  2.75826E+04  9.32649E+03
  8.91925E+03  2.17566E+04 -1.33291E+04  1.74018E+04 -2.29635E+04  2.96576E+03 -1.71040E+04 -1.48884E+04
 -5.90727E+02 -2.24381E+04  1.24807E+04 -1.64033E+04  1.56189E+04 -1.04077E+03  3.88946E+03  1.06063E+04
 -9.36844E+03  5.37055E+03 -1.18278E+04 -7.60646E+03 -3.12087E+03 -2.15817E+04  1.37003E+04 -2.36875E+04
  2.69266E+04 -1.36955E+04  3.15453E+04  3.54750E+03  2.76779E+04  2.16989E+04  1.26775E+04  3.48742E+04
 -6.76195E+03  3.70763E+04 -2.43421E+04  2.24581E+04 -2.65315E+04  4.32397E+03 -1.83190E+04 -7.37067E+03
 -7.01453E+03 -8.69943E+03 -1.16201E+03  6.99764E+01 -3.23151E+03  3.87542E+03 -8.70348E+03  6.24644E+03
 -1.69768E+04 -1.17498E+03 -1.73793E+04 -1.39570E+04 -7.22286E+03 -2.25203E+04  7.59386E+03 -1.88072E+04
  1.52456E+04 -7.24515E+03  1.11389E+04  4.97167E+03 -8.84440E+02  7.75969E+03 -9.52637E+03 -8.00161E+02
 -9.19253E+03 -1.19401E+04 -1.31694E+03 -1.87077E+04  1.11101E+04 -2.00569E+04  2.46209E+04 -1.07465E+04
  2.86556E+04  3.03319E+03  2.06684E+04  1.74870E+04  3.94421E+03  2.32106E+04 -1.15546E+04  1.86589E+04
 -1.51394E+04  5.28188E+03 -8.09187E+03 -4.40573E+03  2.90307E+03 -5.54944E+03  9.73113E+03 -1.08408E+03
  9.33553E+03  8.46296E+03  1.45893E+03  1.53852E+04 -1.13015E+04  1.49591E+04 -1.92215E+04  3.67741E+03
 -1.33702E+04 -1.02050E+04 -2.36849E+02 -1.64010E+04  1.07528E+04 -8.40754E+03  1.17204E+04  4.07658E+03
  3.05940E+03  1.31715E+04 -9.80036E+03  1.41936E+04 -1.70083E+04  6.43228E+03 -1.84193E+04 -7.10465E+03
 -1.02788E+04 -2.01755E+04  5.04949E+03 -2.37813E+04  1.93601E+04 -1.34515E+04  2.14299E+04  4.04252E+03
  1.20541E+04  1.71380E+04 -2.17025E+03  1.93266E+04 -1.48150E+04  1.05064E+04 -1.62293E+04 -1.68213E+03
 -1.23964E+04 -1.26521E+04 -1.98504E+03 -1.50108E+04  8.00940E+03 -1.21455E+04  1.01200E+04 -4.04427E+03
  5.94686E+03  3.00920E+03 -1.63029E+03  2.65994E+03 -9.81871E+02 -4.83686E+03  3.34256E+03 -9.50046E+03
  1.45655E+04 -6.60684E+03  2.09702E+04  2.73014E+03  2.02110E+04  1.47197E+04  1.21077E+04  2.71671E+04
 -6.15158E+03  3.11657E+04 -2.59194E+04  2.33166E+04 -3.35890E+04  4.65987E+03 -2.69042E+04 -1.24679E+04
 -1.32710E+04 -2.14506E+04 -6.80389E+02 -1.92936E+04  6.59609E+03 -1.15973E+04  6.86693E+03 -6.67639E+03
  5.14962E+03 -3.72947E+03  5.00349E+03 -4.23710E+03  6.57071E+03 -4.75165E+03  1.03038E+04 -2.46105E+03
  1.36091E+04  3.39887E+03  8.14726E+03  1.21529E+04 -2.71287E+03  1.52459E+04 -1.48145E+04  1.19463E+04
 -1.93557E+04 -1.36400E+03 -1.29292E+04 -1.32158E+04 -2.05213E+03 -2.11565E+04  1.15595E+04 -2.11196E+04
  2.18069E+04 -1.11194E+04  2.58200E+04  3.93852E+03  1.76721E+04  1.81950E+04  2.48497E+03  2.32701E+04
 -1.02272E+04  1.89076E+04 -1.36405E+04  6.62685E+03 -9.32788E+03 -2.09676E+03 -4.44479E+03 -2.69147E+03
 -1.96894E+03 -6.27960E+02 -2.74965E+03  3.25599E+03 -8.12581E+03  2.97713E+03 -1.36287E+04 -1.94089E+03
 -1.05596E+04 -1.30800E+04 -4.55004E+02 -1.95254E+04  1.19388E+04 -1.82045E+04  2.03293E+04 -5.92423E+03
  1.97661E+04  9.57805E+03  9.08859E+03  1.85973E+04 -3.92989E+03  1.99014E+04 -1.47653E+04  1.27701E+04
 -1.92793E+04  7.73272E+02 -1.42593E+04 -1.15980E+04 -1.75738E+03 -1.65918E+04  8.69166E+03 -1.26952E+04
  1.30574E+04 -3.85162E+03  8.83909E+03  3.59642E+03  3.24795E+03  5.62189E+03  1.85089E+03  2.98177E+03
  3.26305E+03  1.58483E+03  4.69708E+03  2.37714E+03  5.93389E+03  6.45209E+03  5.20193E+03  1.13094E+04
 -3.73529E+03  1.62316E+04 -1.44356E+04  1.57873E+04 -2.13370E+04  4.15109E+03 -2.13383E+04 -9.42726E+03
 -1.06374E+04 -2.07086E+04  3.22863E+03 -2.25049E+04  1.32412E+04 -1.41780E+04  1.70070E+04 -4.06951E+03
  1.31391E+04  7.59879E+03  3.36780E+03  1.18807E+04 -6.15592E+03  7.71114E+03 -8.53428E+03 -1.19106E+03
 -4.19117E+03 -9.04117E+03  4.80973E+03 -9.26563E+03  8.82497E+03 -4.06832E+03  8.86681E+03  2.28848E+03
  5.48788E+03  4.68686E+03  2.10754E+03  3.50989E+03 -1.12215E+03  2.40691E+03  2.14730E+03 -6.24290E+02
  3.85737E+03 -6.83779E+02  8.53589E+03  3.03209E+03  5.28102E+03  1.15394E+04 -1.46503E+03  1.46343E+04
 -9.43875E+03  9.82292E+03 -1.36888E+04  3.06587E+03 -1.23417E+04 -5.26755E+03 -5.21484E+03 -8.63890E+03
  1.27014E+03 -8.37739E+03  5.84639E+03 -4.11049E+03  4.94013E+03  3.76755E+03 -2.40910E+03  6.89632E+03
 -9.22780E+03  3.82949E+03 -1.11060E+04 -5.18313E+03 -6.15404E+03 -1.18787E+04  1.95477E+03 -1.19885E+04
  7.38959E+03 -7.44028E+03  9.44975E+03 -1.01508E+03  6.80405E+03  3.32430E+03  8.93647E+02  6.39857E+03
 -4.75083E+03  1.95598E+03 -5.21965E+03 -4.28148E+03  1.77410E+03 -9.77815E+03  1.08416E+04 -7.79858E+03
  1.48289E+04  1.33025E+03  1.34123E+04  1.04129E+04  3.70982E+03  1.51889E+04 -5.96424E+03  1.41852E+04
 -1.22419E+04  5.90075E+03 -1.26225E+04 -2.20860E+03 -6.90764E+03 -9.29066E+03  2.02923E+03 -1.00594E+04
  8.91690E+03 -4.39255E+03  7.76255E+03  3.67871E+03  2.85903E+03  7.69928E+03 -1.44179E+03  7.04830E+03
 -3.54945E+03  4.60991E+03 -3.91940E+03  1.10846E+03 -1.89795E+03  1.29769E+03 -2.01955E+03  2.90732E+03
 -4.00251E+03  5.15842E+03 -1.00464E+04  5.54966E+03 -1.49681E+04 -2.73527E+02 -1.67224E+04 -9.88688E+03
 -8.20134E+03 -1.99197E+04  3.95292E+03 -2.31851E+04  1.46546E+04 -1.81456E+04  2.16338E+04 -6.66109E+03
  2.08545E+04  4.15182E+03  1.26400E+04  1.43438E+04  1.45287E+03  1.62029E+04 -6.36623E+03  1.16899E+04
 -8.47762E+03  3.62569E+03 -5.61566E+03 -1.88036E+03 -1.81238E+03 -1.50685E+03 -6.08760E+02 -7.50842E+02
 -2.75981E+03  1.04856E+03 -3.29641E+03 -8.52790E+02 -1.59345E+03 -3.82414E+03  6.09782E+02 -5.73603E+03
  6.30864E+03 -4.95437E+03  9.85851E+03 -8.58147E+00  1.15750E+04  8.80579E+03  3.66006E+03  1.64724E+04
 -7.96925E+03  1.83270E+04 -1.69764E+04  1.06891E+04 -1.93649E+04 -1.37909E+03 -1.46767E+04 -1.21708E+04
 -5.94372E+03 -1.65872E+04  4.10657E+03 -1.52880E+04  1.03447E+04 -8.34897E+03  1.13622E+04  7.03372E+02
  5.65782E+03  5.59428E+03 -1.17493E+03  4.85442E+03 -2.85032E+03 -3.55364E+02  4.49034E+02 -3.88687E+03
  4.74764E+03 -2.68827E+03  6.44141E+03  1.99251E+03  4.49092E+03  6.25250E+03 -1.22319E+02  8.95812E+03
 -7.16928E+03  7.36408E+03 -1.13328E+04  4.88515E+02 -1.00154E+04 -7.37667E+03 -2.03481E+03 -1.39725E+04
  7.81691E+03 -1.18829E+04  1.33822E+04 -4.10324E+03  1.32137E+04  3.55437E+03  7.71011E+03  1.03114E+04
  1.80492E+03  1.12987E+04 -4.34680E+03  9.09628E+03 -6.85144E+03  4.50038E+03 -5.59489E+03  8.72799E+02
 -3.01437E+03 -8.37660E+02 -3.47325E+03  1.64978E+03 -5.77062E+03  1.41232E+03 -8.59752E+03 -1.36768E+03
 -7.91835E+03 -6.42737E+03 -2.31663E+03 -1.14365E+04  4.87264E+03 -1.15144E+04  9.98489E+03 -5.69112E+03
  1.16006E+04  1.57015E+03  6.77548E+03  8.24158E+03 -1.22967E+03  1.17545E+04 -8.94957E+03  7.31226E+03
