 $NMID ID='MM_0lb_SNR800_20hz_g45_63.RAW', FMTDAT='(8E13.5)'
 TRAMP=1., VOLUME=1. $END
  3.09814E+05  4.82639E+02  3.37041E+05  2.50418E+05  8.44238E+04  3.37143E+05 -1.32568E+05  2.49923E+05
 -1.89465E+05  8.21375E+04 -1.10961E+05 -3.27851E+04  1.71267E+03 -4.99617E+04  5.39039E+04  2.03214E+02
  3.48215E+04  5.29153E+04 -1.69676E+04  7.46834E+04 -6.01190E+04  6.24165E+04 -8.25944E+04  3.13990E+04
 -7.92251E+04 -1.08729E+04 -5.58624E+04 -4.97248E+04 -1.47631E+04 -6.77515E+04  2.65467E+04 -4.43822E+04
  3.85980E+04  4.00479E+03  1.54918E+04  4.69710E+04 -3.40661E+04  4.58601E+04 -6.48907E+04 -8.05814E+02
 -5.15522E+04 -5.55107E+04 -6.26239E+03 -7.46589E+04  3.28307E+04 -5.27153E+04  4.55449E+04 -1.60056E+04
  4.09326E+04  1.08951E+04  3.06233E+04  2.38571E+04  1.56751E+04  2.79035E+04 -4.61566E+03  2.66665E+04
 -2.14705E+04  1.28641E+04 -1.94125E+04 -4.09795E+03  3.69103E+03 -7.79332E+03  2.09306E+04  1.02966E+04
  7.52942E+03  3.28070E+04 -2.99073E+04  3.34532E+04 -6.02861E+04  2.07018E+03 -5.48432E+04 -4.06761E+04
 -1.24563E+04 -5.98050E+04  3.77009E+04 -4.27840E+04  5.47950E+04 -2.05255E+03  3.10231E+04  2.97204E+04
 -7.08332E+03  3.19241E+04 -2.77938E+04  1.22837E+04 -2.70297E+04 -5.52005E+03 -1.35982E+04 -9.97681E+03
 -7.01859E+03 -1.08242E+04 -1.16670E+03 -1.60450E+04  6.41525E+03 -2.22705E+04  1.47163E+04 -1.42293E+04
  1.24562E+04  3.76932E+03 -5.39694E+03  1.32390E+04 -1.83446E+04 -1.96599E+03 -8.01364E+03 -2.92744E+04
  2.00061E+04 -3.93234E+04  4.37830E+04 -1.83451E+04  4.09699E+04  1.77167E+04  1.39255E+04  4.08752E+04
 -1.49563E+04  3.00297E+04 -2.28030E+04  7.72814E+02 -7.67393E+03 -2.59606E+04  2.03902E+04 -3.03174E+04
  3.69050E+04 -6.72412E+03  3.01844E+04  2.24116E+04  1.43139E+04  4.13632E+04 -7.80382E+03  4.37374E+04
 -2.73037E+04  2.85135E+04 -3.56753E+04  7.72858E+03 -3.71371E+04 -1.45109E+04 -2.04905E+04 -3.34597E+04
  6.95422E+03 -3.27366E+04  2.81409E+04 -1.19787E+04  2.62958E+04  1.06505E+04  2.54571E+03  1.71391E+04
 -1.27272E+04  6.99040E+03 -9.14176E+03 -7.82272E+03  5.79054E+03 -9.89745E+03  1.69478E+04  6.28068E+03
  1.17406E+04  2.14392E+04 -6.68204E+03  2.26542E+04 -2.12336E+04  8.46417E+03 -2.42134E+04 -6.72821E+03
 -1.56474E+04 -1.61260E+04 -4.84802E+03 -1.55512E+04  3.35713E+03 -1.30675E+04  1.14754E+04 -1.31544E+04
  1.95154E+04 -1.12736E+04  2.65899E+04  4.43128E+02  2.07830E+04  1.50279E+04  3.79123E+03  3.10566E+04
 -1.53691E+04  2.67312E+04 -2.49781E+04  9.23361E+03 -1.91969E+04 -1.05821E+04 -3.78514E+03 -1.39102E+04
  2.94270E+03 -4.51373E+03 -2.03303E+03  4.94914E+03 -1.19755E+04  5.42778E+03 -1.22365E+04 -4.16597E+03
 -8.20363E+03 -1.44479E+04  4.31803E+03 -1.83088E+04  1.17259E+04 -1.33862E+04  1.34143E+04 -1.24575E+03
  8.24732E+03  1.00554E+04 -9.53442E+02  1.46091E+04 -9.28635E+03  8.11360E+03 -1.45102E+04 -3.30666E+03
 -1.09971E+04 -1.31830E+04 -1.22065E+03 -1.78824E+04  8.05965E+03 -1.43814E+04  1.54591E+04 -6.55847E+03
  1.38057E+04  9.61967E+02  9.61913E+03  3.47602E+03  4.53215E+03  6.57569E+02  6.95631E+03 -1.41529E+03
  1.27136E+04  2.59090E+03  1.32431E+04  1.18431E+04  7.80566E+03  2.28630E+04 -3.28979E+03  2.40546E+04
 -1.43579E+04  1.81381E+04 -2.19366E+04  8.65503E+03 -2.20530E+04 -1.29721E+03 -1.98092E+04 -1.26398E+04
 -9.63687E+03 -1.83629E+04  5.61453E+03 -1.71514E+04  1.54265E+04 -1.03457E+04  1.46742E+04  3.07765E+03
  6.21312E+03  1.04049E+04 -6.52153E+03  9.77322E+03 -1.23908E+04  2.75345E+03 -9.78082E+03 -7.36313E+03
 -3.85239E+01 -1.15069E+04  5.45225E+03 -8.91050E+03  7.07000E+03 -1.52406E+03  1.26366E+03  4.56761E+03
 -5.44303E+03  9.20388E+02 -3.21362E+03 -4.34541E+03  1.02564E+03 -9.25374E+03  6.94413E+03 -9.01932E+03
  1.08772E+04 -3.90757E+03  1.02066E+04  2.52700E+03  8.84503E+03  8.19875E+03  4.25599E+03  1.21096E+04
 -1.20235E+03  1.39353E+04 -8.29926E+03  9.07530E+03 -9.99139E+03  2.77370E+03 -7.61719E+03 -1.23384E+03
 -4.27637E+03 -2.85906E+03 -6.94040E+02  1.83440E+03 -1.88131E+03  1.88466E+03 -3.12717E+03  3.53244E+03
 -7.39202E+03 -4.60456E+02 -7.80687E+03 -6.77863E+03 -3.34108E+03 -1.04183E+04  3.11251E+03 -7.50461E+03
  6.50774E+03 -3.45805E+03  4.70456E+03  1.63502E+03  7.45232E+02  2.60805E+03 -3.05297E+03 -3.23184E+02
 -3.04923E+03 -4.63640E+03 -5.94515E+02 -6.17391E+03  3.47908E+03 -6.96469E+03  8.35472E+03 -3.42412E+03
  1.05036E+04  5.28704E+02  8.11513E+03  5.14235E+03  1.73189E+03  7.30575E+03 -4.89133E+03  7.26624E+03
 -6.18185E+03  2.51163E+03 -3.13188E+03 -7.67733E+02  1.41786E+03 -1.58895E+03  4.34550E+03 -8.89739E+02
  3.76490E+03  2.71287E+03  1.04247E+03  5.56028E+03 -3.94488E+03  5.69142E+03 -7.18729E+03  1.66082E+03
 -4.06473E+03 -2.79278E+03  6.66233E+02 -6.04315E+03  3.15555E+03 -3.32447E+03  3.05250E+03  6.47589E+02
  2.85454E+02  2.83898E+03 -3.63566E+03  4.11325E+03 -4.03486E+03  1.86860E+03 -3.54838E+03 -4.24220E+02
 -2.13318E+03 -4.87262E+03  1.14298E+03 -5.76017E+03  5.14796E+03 -3.90324E+03  5.33134E+03  6.33925E+02
  4.12492E+03  4.37912E+03  4.97224E+02  6.65220E+03 -4.50213E+03  3.68013E+03 -4.37719E+03 -2.78106E+02
 -5.46060E+03 -4.42274E+03 -1.17384E+03 -4.23953E+03  2.16122E+03 -4.23211E+03  2.16263E+03 -2.61087E+03
  2.60841E+03 -6.29338E+01  2.64819E+02  1.14866E+03  5.14454E+02  3.10924E+01 -2.03216E+02 -1.23473E+03
  3.12034E+03 -1.58540E+02  4.09799E+03  5.26006E+02  4.85275E+03  2.40875E+03  4.82723E+03  5.80045E+03
 -6.86526E+02  6.96344E+03 -6.43481E+03  5.53407E+03 -8.16680E+03  8.09067E+02 -6.55731E+03 -2.21161E+03
 -3.61998E+03 -5.32920E+03 -5.80008E+02 -4.10390E+03  1.82331E+03 -1.77051E+03  1.49086E+03 -1.82159E+03
  9.37567E+02 -1.21327E+03  2.17522E+03 -2.44574E+03  3.25099E+03 -1.25786E+03  3.33718E+03  5.73457E+02
  3.80580E+03  1.12941E+03  7.14960E+02  2.72118E+03 -1.18154E+03  2.00442E+03 -3.87718E+03  1.97656E+03
 -4.04219E+03 -1.07648E+03 -1.39555E+03 -2.43462E+03  4.76620E+02 -3.87029E+03  2.59778E+03 -4.50623E+03
  4.08551E+03 -2.72710E+03  5.53657E+03 -3.00295E+01  4.21255E+03  3.49523E+03  1.11665E+03  4.93889E+03
 -1.62589E+03  5.08807E+03 -2.88527E+03  1.43715E+03 -1.27037E+03 -1.05768E+03 -1.93853E+02 -4.24044E+02
 -4.55859E+02  4.51684E+02 -6.85204E+02  1.78903E+03 -2.20410E+03  1.00626E+03 -3.35989E+03 -1.96455E+02
 -8.48744E+02 -3.37412E+03  8.10985E+02 -3.75928E+03  2.37715E+03 -3.34171E+03  2.63038E+03 -1.03941E+03
  3.20207E+03  2.09443E+03  1.24687E+03  2.39001E+03 -4.99563E+02  3.68982E+03 -1.88128E+03  2.16627E+03
 -2.58812E+03  4.73360E+02 -2.74734E+03 -2.16743E+03 -8.62444E+01 -2.51511E+03  1.08981E+03 -1.87879E+03
  2.19646E+03 -1.06965E+03  1.45177E+03  1.48830E+02  2.45183E+02  1.24214E+03  7.47876E+02  4.22566E+02
  1.65035E+03  5.88335E+02  1.03499E+03  1.06037E+03  6.47586E+02  2.05063E+03  1.23697E+03  1.21954E+03
 -9.17992E+02  2.17589E+03 -1.44435E+03  3.36058E+03 -1.86084E+03  1.02885E+03 -3.06079E+03 -3.04714E+01
 -1.31239E+03 -2.90600E+03  6.85030E+02 -3.65069E+03  1.23608E+03 -2.11835E+03  2.51525E+03 -7.85666E+02
  1.95465E+03  1.63063E+03  4.04927E+02  2.00623E+03 -5.88366E+02  7.12255E+02 -6.26299E+02 -6.74814E+01
 -3.56200E+02 -9.78219E+02  1.08169E+03 -9.26926E+02  6.84563E+02 -7.78133E+02  9.21577E+02  2.24640E+02
  5.51418E+02  5.04533E+02  7.05457E+02 -5.22629E+02 -4.22799E+02  5.88883E+02  1.41460E+03 -1.47685E+02
 -1.89808E+02 -2.54434E+02  1.44590E+03  1.62615E+02 -3.85191E+01  1.99501E+03 -9.04270E+01  2.20722E+03
 -1.29423E+03  9.23458E+02 -1.36179E+03  1.98659E+02 -1.62740E+03 -5.35006E+02  3.28326E+02 -5.48891E+02
  1.07991E+02 -9.50123E+02  3.94597E+02 -3.62685E+02  6.13964E+02  1.02462E+03 -6.61726E+02  1.37635E+03
 -1.26668E+03  5.49955E+02 -6.65471E+02 -1.01472E+03 -3.75238E+02 -1.66849E+03  1.98334E+01 -1.19676E+03
  2.28878E+02 -1.56829E+02  5.62251E+02  2.27473E+02  1.01122E+03 -1.58913E+02  3.75321E+02  9.85266E+02
 -2.71695E+02 -1.85737E+02 -7.61800E+02 -1.32639E+02  5.85131E+02 -4.45188E+02  1.41220E+03 -6.89274E+02
  7.28820E+02  3.16987E+01  2.45052E+03  2.25549E+02  1.08707E+03  1.07902E+03 -3.04355E+02  1.09387E+03
 -9.23539E+02 -5.35101E+01 -1.19632E+03  3.96534E+00 -5.93843E+02 -1.10847E+03  3.26667E+02 -3.92615E+01
  1.23423E+03 -6.20284E+02  6.08845E+02  6.61715E+02 -3.50751E+01  1.10722E+03  1.70983E+02  8.34525E+02
 -1.88515E+02  9.36717E+02 -5.33543E+02  2.24241E+02  1.36446E+02  4.34888E+02 -9.11770E+02  6.18760E+02
 -5.47186E+02  9.35375E+02 -1.66237E+03  1.29568E+02 -1.12545E+03  2.33167E+02 -1.67743E+03 -5.92067E+02
 -7.19288E+02 -1.39225E+03  6.51311E+02 -2.01274E+03  6.93292E+02 -1.76506E+03  2.05127E+03 -8.55806E+02
  1.69888E+03 -1.22002E+02  8.87661E+02  1.21847E+03 -7.79195E+02  9.00415E+02 -2.75585E+02  9.07033E+02
 -5.84961E+02  6.48017E+02 -4.27970E+02 -8.81070E+01 -4.72476E+02  9.75525E+01 -4.53826E+02 -1.06367E+02
 -1.25587E+03  4.55670E+01 -7.84045E+02 -1.51265E+01  3.87545E+02 -4.62395E+02 -3.94979E+02 -9.91369E+02
  9.49888E+02 -4.42119E+02 -1.61742E+02  7.09085E+01  7.50733E+02  8.16637E+02 -7.23726E+02  9.81748E+02
 -5.75713E+02  1.80276E+03 -1.16848E+03  9.75639E+02 -1.51736E+03 -2.60736E+02 -1.03944E+03 -8.82610E+02
 -6.99415E+02 -7.05837E+02 -8.01753E+01 -7.36738E+02  2.80796E+02 -2.30838E+02  2.18425E+02  2.96453E+02
  4.59834E+02  4.07223E+01  2.29546E+02  7.67732E+01 -3.12287E+02  2.52315E+02  5.96256E+01 -1.92540E+02
  2.34859E+02  1.22103E+02  1.51037E+02  2.91542E+02 -1.55053E+02  3.65546E+02  3.66589E+02  2.42950E+02
 -4.40077E+02  7.18595E+02 -5.08287E+02  2.30830E+02 -3.68816E+02 -3.60418E+02 -1.07618E+02 -7.28737E+02
  3.46226E+02 -6.58443E+02  1.08616E+02  9.00785E+01  9.66909E+02 -9.53328E+02  2.52037E+02  5.77729E+02
  4.70554E+02  2.30603E+02 -1.18784E+02  2.69062E+02 -3.34165E+02  5.57482E+02 -3.87165E+02 -1.62014E+02
 -9.96738E+01 -6.33347E+01 -3.80988E+02  4.74448E+01 -4.71360E+02  3.22616E+02 -7.94487E+02 -2.60941E+02
 -9.43051E+02  4.89421E+02 -2.71454E+02 -7.28539E+02  6.88643E+02 -1.26672E+03  4.23428E+02 -4.53208E+00
  1.83043E+02 -1.05741E+02 -5.90006E+02  3.75138E+01  1.24080E+00  7.61574E+02 -3.82415E+02  4.13009E+02
