 $NMID ID='MM_0lb_SNR800_9hz_g50_38.RAW', FMTDAT='(8E13.5)'
 TRAMP=1., VOLUME=1. $END
  3.09694E+05  4.23337E+02  3.37814E+05  2.50994E+05  8.48499E+04  3.38981E+05 -1.32818E+05  2.51648E+05
 -1.91237E+05  8.35889E+04 -1.12349E+05 -3.25207E+04  7.03478E+02 -5.09822E+04  5.37866E+04 -5.55182E+02
  3.54754E+04  5.29068E+04 -1.67178E+04  7.56449E+04 -6.15562E+04  6.43754E+04 -8.52715E+04  3.24589E+04
 -8.23278E+04 -1.18374E+04 -5.83356E+04 -5.27542E+04 -1.51681E+04 -7.08184E+04  2.80189E+04 -4.64855E+04
  4.11821E+04  3.65431E+03  1.70443E+04  4.85650E+04 -3.50495E+04  4.82245E+04 -6.80826E+04  1.65120E+02
 -5.49219E+04 -5.78024E+04 -7.17566E+03 -7.91904E+04  3.45864E+04 -5.69607E+04  4.97173E+04 -1.85921E+04
  4.52987E+04  1.16538E+04  3.29822E+04  2.65293E+04  1.61017E+04  3.09077E+04 -5.86138E+03  2.78620E+04
 -2.26465E+04  1.21470E+04 -1.79758E+04 -5.56400E+03  7.05997E+03 -7.31204E+03  2.34088E+04  1.38694E+04
  7.36299E+03  3.75228E+04 -3.37534E+04  3.70406E+04 -6.57982E+04  2.40105E+03 -5.88006E+04 -4.46443E+04
 -1.26692E+04 -6.61032E+04  4.15609E+04 -4.76115E+04  6.09788E+04 -2.49995E+03  3.64835E+04  3.43843E+04
 -5.54186E+03  3.92987E+04 -3.19303E+04  1.85615E+04 -3.36063E+04 -3.41635E+03 -1.88095E+04 -1.17647E+04
 -9.34748E+03 -1.49565E+04 -2.30128E+02 -1.98324E+04  8.24318E+03 -2.36569E+04  1.57950E+04 -1.25622E+04
  1.09676E+04  6.27838E+03 -1.06796E+04  1.26764E+04 -2.35451E+04 -6.71065E+03 -8.28810E+03 -3.73936E+04
  2.48185E+04 -4.69618E+04  5.15660E+04 -2.08064E+04  4.86337E+04  2.05237E+04  1.73829E+04  4.72582E+04
 -1.70778E+04  3.62528E+04 -2.76613E+04  3.01547E+03 -1.20710E+04 -2.93675E+04  2.16377E+04 -3.74216E+04
  4.49681E+04 -1.11196E+04  4.04361E+04  2.52335E+04  2.14150E+04  5.08710E+04 -7.90129E+03  5.61304E+04
 -3.54760E+04  3.86027E+04 -4.72751E+04  1.13241E+04 -4.71355E+04 -1.84863E+04 -2.63372E+04 -4.23105E+04
  7.80683E+03 -4.18441E+04  3.42981E+04 -1.69825E+04  3.21844E+04  1.10694E+04  5.33344E+03  2.13525E+04
 -1.39932E+04  9.77928E+03 -1.10818E+04 -7.29384E+03  6.02582E+03 -1.11526E+04  1.89501E+04  5.56563E+03
  1.48944E+04  2.28410E+04 -5.57430E+03  2.68209E+04 -2.34930E+04  1.44253E+04 -3.15806E+04 -3.54652E+03
 -2.51549E+04 -1.87159E+04 -1.14646E+04 -2.45962E+04  3.98423E+03 -2.55001E+04  1.97651E+04 -2.33723E+04
  3.21016E+04 -1.44821E+04  3.79887E+04  4.40613E+03  2.69490E+04  2.43442E+04  4.70097E+03  4.13446E+04
 -2.02427E+04  3.38963E+04 -3.06298E+04  1.15499E+04 -2.27540E+04 -1.03247E+04 -4.47527E+03 -1.28430E+04
  1.04782E+03 -1.08841E+03 -7.43032E+03  8.41192E+03 -2.04483E+04  4.95862E+03 -1.98792E+04 -9.80155E+03
 -1.16857E+04 -2.32432E+04  5.55857E+03 -2.75614E+04  1.86423E+04 -1.99361E+04  2.26773E+04 -1.20438E+03
  1.44214E+04  1.62542E+04 -1.44706E+03  2.32934E+04 -1.66786E+04  1.32768E+04 -2.34321E+04 -5.17412E+03
 -1.76590E+04 -2.10403E+04 -2.08569E+03 -2.80310E+04  1.25156E+04 -2.30807E+04  2.30901E+04 -1.17072E+04
  2.22618E+04 -5.82308E+02  1.61855E+04  4.96971E+03  8.68605E+03  1.18749E+03  1.21855E+04 -2.14184E+03
  2.19405E+04  2.61159E+03  2.52648E+04  1.86851E+04  1.72248E+04  3.76665E+04 -2.45601E+03  4.40744E+04
 -2.55262E+04  3.69542E+04 -4.22415E+04  1.93334E+04 -4.47383E+04 -3.46484E+03 -3.64926E+04 -2.64044E+04
 -1.42545E+04 -3.71267E+04  1.29475E+04 -3.24792E+04  2.77815E+04 -1.54424E+04  2.40279E+04  7.83606E+03
  8.44044E+03  1.84068E+04 -1.17546E+04  1.56280E+04 -2.01339E+04  2.58300E+03 -1.52983E+04 -1.31252E+04
 -3.70270E+02 -1.91291E+04  1.06414E+04 -1.44455E+04  1.34347E+04 -1.36508E+03  3.43144E+03  8.72300E+03
 -9.03585E+03  3.93677E+03 -9.26067E+03 -6.58624E+03 -2.33034E+03 -1.79811E+04  1.20119E+04 -1.96323E+04
  2.31179E+04 -1.15215E+04  2.60008E+04  3.27733E+03  2.33172E+04  1.84728E+04  1.06119E+04  2.93127E+04
 -5.29439E+03  3.13277E+04 -2.01066E+04  1.95474E+04 -2.32565E+04  3.50628E+03 -1.55778E+04 -5.92401E+03
 -6.39586E+03 -6.96164E+03 -6.91838E+02  4.06110E+02 -2.46149E+03  3.37677E+03 -7.41326E+03  5.60660E+03
 -1.39764E+04 -1.04579E+03 -1.50757E+04 -1.19424E+04 -6.10307E+03 -1.94202E+04  6.23006E+03 -1.57429E+04
  1.27614E+04 -6.54418E+03  9.20556E+03  3.85714E+03 -2.68998E+02  6.37638E+03 -7.49942E+03 -7.23047E+02
 -7.77437E+03 -1.02773E+04 -1.33189E+03 -1.55935E+04  9.13663E+03 -1.64795E+04  1.99716E+04 -8.54934E+03
  2.36578E+04  1.97108E+03  1.72718E+04  1.41528E+04  3.59312E+03  1.88178E+04 -1.02017E+04  1.53195E+04
 -1.24683E+04  4.74097E+03 -6.45788E+03 -3.63675E+03  2.27866E+03 -4.57243E+03  8.61741E+03 -8.33788E+02
  7.39297E+03  7.12018E+03  1.33983E+03  1.27252E+04 -9.05995E+03  1.23655E+04 -1.57345E+04  3.13548E+03
 -1.08930E+04 -8.18516E+03  1.01672E+02 -1.36002E+04  8.70805E+03 -7.01583E+03  9.33352E+03  3.30056E+03
  2.05166E+03  1.02694E+04 -8.00205E+03  1.11619E+04 -1.34532E+04  5.38035E+03 -1.39559E+04 -5.22208E+03
 -7.90323E+03 -1.57704E+04  3.55422E+03 -1.79827E+04  1.55867E+04 -1.09199E+04  1.67679E+04  2.77982E+03
  1.01356E+04  1.31449E+04 -1.76981E+03  1.63697E+04 -1.18414E+04  8.56739E+03 -1.31644E+04 -1.52044E+03
 -1.05550E+04 -1.02588E+04 -1.36317E+03 -1.20568E+04  6.34468E+03 -9.39641E+03  7.21055E+03 -3.68838E+03
  4.83327E+03  2.04030E+03 -8.74233E+02  2.16703E+03 -8.35496E+02 -3.38918E+03  3.00670E+03 -7.67557E+03
  1.11952E+04 -4.61709E+03  1.58146E+04  1.70279E+03  1.55307E+04  1.08157E+04  1.00059E+04  2.07292E+04
 -4.97135E+03  2.40525E+04 -1.96927E+04  1.77680E+04 -2.62288E+04  3.27445E+03 -2.07363E+04 -9.55025E+03
 -1.05239E+04 -1.72050E+04 -7.12603E+02 -1.49865E+04  5.01863E+03 -8.03427E+03  4.97502E+03 -5.50241E+03
  4.13737E+03 -3.30453E+03  3.58514E+03 -4.12238E+03  6.04418E+03 -3.60000E+03  8.04688E+03 -1.38726E+03
  1.08186E+04  2.43885E+03  6.09555E+03  9.38693E+03 -2.00942E+03  1.13411E+04 -1.17655E+04  8.13889E+03
 -1.47316E+04 -8.94452E+02 -9.42917E+03 -1.04944E+04 -1.75589E+03 -1.59694E+04  9.06246E+03 -1.56738E+04
  1.66321E+04 -8.84320E+03  1.90965E+04  2.88347E+03  1.33636E+04  1.37738E+04  2.15784E+03  1.78007E+04
 -7.29085E+03  1.43228E+04 -1.03224E+04  4.68850E+03 -7.35533E+03 -1.91621E+03 -3.02627E+03 -2.35587E+03
 -1.37505E+03  1.38624E+02 -2.54173E+03  2.92959E+03 -6.13552E+03  2.42610E+03 -9.99170E+03 -1.15331E+03
 -7.20976E+03 -9.78048E+03 -2.65525E+02 -1.46311E+04  9.36021E+03 -1.35169E+04  1.49904E+04 -4.16112E+03
  1.44403E+04  7.22171E+03  6.98103E+03  1.32203E+04 -3.12508E+03  1.53416E+04 -1.08942E+04  9.36055E+03
 -1.39171E+04  5.37714E+02 -1.06887E+04 -9.04043E+03 -1.01502E+03 -1.22474E+04  6.65583E+03 -9.27928E+03
  9.25802E+03 -2.92085E+03  6.51970E+03  2.35515E+03  2.10858E+03  4.06272E+03  1.65502E+03  2.35036E+03
  2.84265E+03  9.03043E+02  3.49255E+03  1.95120E+03  4.74935E+03  5.22615E+03  4.14881E+03  7.71999E+03
 -3.24575E+03  1.19234E+04 -1.06324E+04  1.18693E+04 -1.56051E+04  3.09722E+03 -1.56481E+04 -6.63578E+03
 -8.00644E+03 -1.51684E+04  2.30120E+03 -1.63403E+04  9.07772E+03 -1.04699E+04  1.26525E+04 -3.06535E+03
  9.58344E+03  5.57118E+03  2.56086E+03  8.72027E+03 -4.10328E+03  5.72210E+03 -6.53766E+03 -9.23122E+02
 -2.91593E+03 -6.73684E+03  3.52053E+03 -6.44582E+03  6.05915E+03 -3.25688E+03  6.30393E+03  1.00800E+03
  3.59703E+03  3.32092E+03  1.18247E+03  2.79033E+03 -7.53918E+02  2.04423E+03  1.92825E+03 -1.00670E+03
  2.59715E+03 -8.63849E+02  6.21756E+03  2.20041E+03  3.65283E+03  8.18837E+03 -1.32823E+03  1.10097E+04
 -7.17844E+03  6.92667E+03 -9.70720E+03  2.01173E+03 -9.08080E+03 -3.49649E+03 -3.43363E+03 -6.10569E+03
  8.19842E+02 -5.86645E+03  4.06919E+03 -2.79667E+03  3.22445E+03  3.42478E+03 -1.76633E+03  4.91910E+03
 -6.91269E+03  2.89262E+03 -6.91277E+03 -3.43052E+03 -3.72103E+03 -8.46688E+03  1.04321E+03 -8.82528E+03
  5.15566E+03 -5.26654E+03  6.26229E+03 -7.03398E+02  5.05291E+03  2.19369E+03  8.59705E+02  4.49644E+03
 -3.19468E+03  1.59751E+03 -3.83011E+03 -3.14752E+03  1.42927E+03 -6.74187E+03  7.29405E+03 -5.15688E+03
  9.80326E+03  9.23822E+02  9.45481E+03  6.47566E+03  2.48963E+03  1.02435E+04 -3.20055E+03  9.57908E+03
 -8.10524E+03  4.42310E+03 -8.70562E+03 -1.04025E+03 -4.80029E+03 -6.79064E+03  1.48250E+03 -6.19130E+03
  6.31017E+03 -2.98609E+03  5.24513E+03  2.64424E+03  2.06446E+03  5.73257E+03 -1.38591E+03  5.20362E+03
 -2.50295E+03  2.83540E+03 -2.33507E+03  7.93299E+02 -1.06427E+03  9.90309E+02 -1.67988E+03  2.06948E+03
 -2.84242E+03  3.99768E+03 -6.94420E+03  3.43241E+03 -1.00307E+04  2.29595E+02 -1.14710E+04 -6.88285E+03
 -5.83903E+03 -1.35158E+04  2.34086E+03 -1.51590E+04  9.63287E+03 -1.21700E+04  1.47195E+04 -4.31420E+03
  1.36648E+04  3.03682E+03  7.86765E+03  8.95945E+03  9.50660E+02  1.05163E+04 -4.22330E+03  7.70693E+03
 -5.91957E+03  2.72113E+03 -3.44069E+03 -1.19593E+03 -7.57244E+02 -1.18440E+03 -1.62116E+02 -5.59113E+02
 -1.71747E+03 -6.16185E+00 -1.76238E+03 -1.23476E+01 -4.37179E+02 -2.58665E+03  1.96962E+02 -4.13593E+03
  4.46492E+03 -3.23091E+03  5.84796E+03  5.30472E+02  7.04625E+03  5.63593E+03  2.19081E+03  1.06051E+04
 -5.32459E+03  1.22245E+04 -1.13120E+04  7.04049E+03 -1.32117E+04 -1.61683E+03 -9.65015E+03 -7.40802E+03
 -4.39866E+03 -1.08176E+04  2.83860E+03 -9.75056E+03  6.46716E+03 -5.41005E+03  7.14666E+03 -9.61310E+01
  3.74756E+03  3.38128E+03 -1.72298E+02  3.28944E+03 -1.94278E+03 -2.86017E+02  4.42435E+02 -2.49668E+03
  3.35785E+03 -1.40287E+03  4.06710E+03  1.58336E+03  2.56978E+03  4.02770E+03  1.46996E+02  5.64890E+03
 -4.57847E+03  4.75416E+03 -6.96505E+03  3.28357E+02 -6.00740E+03 -5.14065E+03 -1.00338E+03 -8.66344E+03
  4.66188E+03 -7.48322E+03  8.28271E+03 -2.25952E+03  8.08153E+03  2.17950E+03  4.54202E+03  6.22533E+03
  7.70191E+02  6.46833E+03 -2.63449E+03  5.67163E+03 -4.48024E+03  3.17064E+03 -3.67354E+03  3.42826E+02
 -2.33658E+03  1.37795E+01 -2.50226E+03  2.39377E+02 -3.76309E+03  1.12317E+03 -5.29587E+03 -1.11104E+03
 -5.25456E+03 -4.00000E+03 -1.48029E+03 -6.59241E+03  3.14720E+03 -7.59418E+03  6.20170E+03 -3.28890E+03
  7.04600E+03  1.02297E+03  4.05558E+03  5.03261E+03 -4.88975E+02  6.92230E+03 -5.72987E+03  4.21465E+03
