 $NMID ID='MM_0lb_SNR800_17hz_g55_67.RAW', FMTDAT='(8E13.5)'
 TRAMP=1., VOLUME=1. $END
  3.10181E+05  3.33698E+01  3.37566E+05  2.50581E+05  8.47213E+04  3.37719E+05 -1.32428E+05  2.50906E+05
 -1.90104E+05  8.28127E+04 -1.11426E+05 -3.25099E+04  1.27236E+03 -5.05028E+04  5.39594E+04 -1.67894E+02
  3.52510E+04  5.28145E+04 -1.69049E+04  7.51737E+04 -6.02258E+04  6.32970E+04 -8.38052E+04  3.17319E+04
 -8.03333E+04 -1.15035E+04 -5.71333E+04 -5.08388E+04 -1.52272E+04 -6.94301E+04  2.73469E+04 -4.58462E+04
  3.99185E+04  3.82089E+03  1.59063E+04  4.74947E+04 -3.40342E+04  4.66738E+04 -6.62718E+04 -3.79626E+02
 -5.27815E+04 -5.65908E+04 -6.70795E+03 -7.67802E+04  3.39547E+04 -5.42990E+04  4.73078E+04 -1.68924E+04
  4.28850E+04  1.12078E+04  3.13286E+04  2.53442E+04  1.57068E+04  2.90187E+04 -4.95153E+03  2.70723E+04
 -2.16286E+04  1.25447E+04 -1.85733E+04 -4.60100E+03  4.90294E+03 -7.56202E+03  2.16747E+04  1.17529E+04
  7.35487E+03  3.44285E+04 -3.13110E+04  3.49491E+04 -6.27321E+04  2.20461E+03 -5.65994E+04 -4.23234E+04
 -1.23816E+04 -6.24612E+04  3.92650E+04 -4.44071E+04  5.72034E+04 -2.04694E+03  3.33261E+04  3.16474E+04
 -6.07241E+03  3.47424E+04 -2.92482E+04  1.48949E+04 -2.91882E+04 -4.81518E+03 -1.58942E+04 -1.04514E+04
 -8.01239E+03 -1.26112E+04 -9.76275E+02 -1.72911E+04  7.22420E+03 -2.27648E+04  1.52923E+04 -1.34805E+04
  1.15959E+04  4.97754E+03 -7.33116E+03  1.28524E+04 -2.03558E+04 -3.56477E+03 -8.34664E+03 -3.23423E+04
  2.20364E+04 -4.22969E+04  4.67120E+04 -1.89790E+04  4.39057E+04  1.88632E+04  1.50285E+04  4.33582E+04
 -1.57232E+04  3.23022E+04 -2.44775E+04  1.35430E+03 -9.25715E+03 -2.73692E+04  2.10216E+04 -3.27411E+04
  3.98534E+04 -8.12421E+03  3.40795E+04  2.35668E+04  1.71786E+04  4.48656E+04 -7.86103E+03  4.79692E+04
 -3.05743E+04  3.22797E+04 -4.01550E+04  8.96886E+03 -4.06929E+04 -1.57650E+04 -2.28765E+04 -3.63371E+04
  7.18590E+03 -3.60256E+04  3.09116E+04 -1.39903E+04  2.84479E+04  1.08768E+04  3.42176E+03  1.83674E+04
 -1.31400E+04  8.07702E+03 -9.82215E+03 -7.58595E+03  5.91536E+03 -1.05495E+04  1.75849E+04  6.17266E+03
  1.28141E+04  2.16597E+04 -6.38484E+03  2.39915E+04 -2.18376E+04  1.03094E+04 -2.65825E+04 -5.59852E+03
 -1.87867E+04 -1.69697E+04 -7.35998E+03 -1.88057E+04  3.87685E+03 -1.72659E+04  1.44471E+04 -1.66422E+04
  2.38275E+04 -1.24844E+04  3.04780E+04  2.17174E+03  2.29059E+04  1.85423E+04  4.21938E+03  3.45316E+04
 -1.68409E+04  2.94129E+04 -2.68093E+04  9.93032E+03 -2.01104E+04 -1.00910E+04 -4.38360E+03 -1.34127E+04
  2.01324E+03 -3.38341E+03 -3.95764E+03  5.94342E+03 -1.43953E+04  4.86507E+03 -1.52391E+04 -6.13433E+03
 -9.13334E+03 -1.74166E+04  5.01509E+03 -2.15776E+04  1.41788E+04 -1.56532E+04  1.66478E+04 -1.74276E+03
  1.03612E+04  1.21288E+04 -9.51164E+02  1.74777E+04 -1.14407E+04  9.53850E+03 -1.73419E+04 -3.85284E+03
 -1.27254E+04 -1.54745E+04 -1.81621E+03 -2.10254E+04  9.32411E+03 -1.73125E+04  1.76443E+04 -8.20448E+03
  1.61757E+04  3.74998E+02  1.15260E+04  4.20358E+03  6.01200E+03  6.38441E+02  8.57106E+03 -1.27107E+03
  1.58557E+04  2.69365E+03  1.71603E+04  1.39007E+04  1.08142E+04  2.76879E+04 -2.73471E+03  3.04228E+04
 -1.78245E+04  2.41638E+04 -2.82157E+04  1.18066E+04 -2.91990E+04 -2.09830E+03 -2.47126E+04 -1.67155E+04
 -1.07609E+04 -2.36415E+04  8.20105E+03 -2.20046E+04  1.89965E+04 -1.20535E+04  1.72151E+04  4.41217E+03
  6.69103E+03  1.29272E+04 -7.95970E+03  1.17161E+04 -1.47330E+04  2.39830E+03 -1.12489E+04 -9.11225E+03
  1.72765E+02 -1.36609E+04  6.99246E+03 -1.02034E+04  9.06754E+03 -1.21485E+03  1.71659E+03  5.79377E+03
 -6.34394E+03  1.81707E+03 -4.61977E+03 -5.02608E+03  3.75755E+02 -1.20196E+04  8.75972E+03 -1.21202E+04
  1.44867E+04 -6.14680E+03  1.51361E+04  2.69558E+03  1.28948E+04  1.10517E+04  5.87052E+03  1.69414E+04
 -2.40755E+03  1.86851E+04 -1.19262E+04  1.18009E+04 -1.35078E+04  3.32235E+03 -9.73488E+03 -2.81342E+03
 -5.03845E+03 -3.92410E+03 -1.06848E+03  1.43924E+03 -2.11114E+03  2.16003E+03 -4.38078E+03  3.74928E+03
 -9.19819E+03 -7.10653E+02 -9.91991E+03 -8.15401E+03 -3.92820E+03 -1.28799E+04  4.26150E+03 -9.85857E+03
  8.41981E+03 -4.44398E+03  6.24019E+03  2.20925E+03  6.43335E+02  3.72924E+03 -4.27014E+03  7.31215E+00
 -4.06201E+03 -6.07738E+03 -1.15584E+03 -8.82592E+03  4.89258E+03 -9.40636E+03  1.16726E+04 -4.35241E+03
  1.37362E+04  8.70249E+02  1.02551E+04  7.43987E+03  1.82626E+03  1.04142E+04 -6.19550E+03  9.48139E+03
 -7.76611E+03  3.10966E+03 -4.12260E+03 -1.20448E+03  1.74394E+03 -2.24965E+03  5.41136E+03 -8.60586E+02
  4.66744E+03  3.84712E+03  8.81551E+02  7.57803E+03 -5.27340E+03  7.34228E+03 -8.93198E+03  1.69393E+03
 -5.69797E+03 -4.67718E+03  2.25289E+02 -8.14690E+03  4.32901E+03 -3.81452E+03  4.43564E+03  1.64657E+03
  7.57273E+02  4.50386E+03 -4.82350E+03  5.40430E+03 -6.53063E+03  3.20246E+03 -5.86789E+03 -1.56689E+03
 -3.92111E+03 -7.60246E+03  1.67186E+03 -8.49421E+03  7.52127E+03 -5.47321E+03  7.89938E+03  9.61447E+02
  5.49052E+03  6.61740E+03 -1.61683E+02  8.44365E+03 -6.07508E+03  5.00691E+03 -6.20289E+03 -1.01636E+03
 -6.48564E+03 -5.59642E+03 -1.52438E+03 -6.08700E+03  3.19435E+03 -5.43492E+03  3.89321E+03 -2.74166E+03
  3.02342E+03  6.06995E+02  8.69488E+01  1.07530E+03  1.51711E+02 -4.18305E+02  4.17890E+02 -2.49802E+03
  5.07129E+03 -1.46945E+03  7.10800E+03  8.11298E+02  6.96729E+03  4.15014E+03  6.14794E+03  9.19712E+03
 -1.66640E+03  1.08743E+04 -9.44805E+03  7.84334E+03 -1.22360E+04  1.38747E+03 -9.51408E+03 -3.37843E+03
 -5.23329E+03 -7.99545E+03 -4.82569E+02 -6.41666E+03  2.65880E+03 -2.47198E+03  2.04422E+03 -2.60175E+03
  1.39297E+03 -1.66718E+03  2.57197E+03 -2.65116E+03  3.71267E+03 -1.65448E+03  4.14791E+03  1.21982E+02
  5.19465E+03  1.31438E+03  1.63741E+03  4.18646E+03 -1.97886E+03  3.88054E+03 -5.35635E+03  3.43958E+03
 -6.29784E+03 -6.95399E+02 -2.75391E+03 -4.27072E+03  3.13565E+02 -6.40377E+03  4.25807E+03 -6.40890E+03
  6.58001E+03 -4.04116E+03  8.10060E+03  3.51796E+02  6.06372E+03  5.54693E+03  1.22764E+03  7.53284E+03
 -2.72085E+03  6.67217E+03 -4.18513E+03  2.24093E+03 -2.58674E+03 -1.00246E+03 -8.14546E+02 -7.40488E+02
 -4.89992E+02  3.54120E+02 -9.25249E+02  2.06250E+03 -2.93551E+03  1.09370E+03 -4.86657E+03 -4.43871E+02
 -2.30647E+03 -4.98006E+03  9.06662E+02 -5.80431E+03  3.45605E+03 -5.31826E+03  4.73084E+03 -1.31756E+03
  5.26631E+03  3.19548E+03  2.06716E+03  4.32376E+03 -8.46411E+02  5.69975E+03 -3.81784E+03  3.31387E+03
 -4.84639E+03  3.53790E+02 -4.03287E+03 -2.98955E+03 -3.80181E+02 -4.20039E+03  2.31539E+03 -3.05558E+03
  3.42896E+03 -1.51448E+03  2.14475E+03  8.25152E+02  5.66286E+02  2.03376E+03  6.36162E+02  7.21631E+02
  1.90930E+03  8.16069E+02  1.38047E+03  1.25621E+03  1.29861E+03  2.41499E+03  1.38068E+03  2.48238E+03
 -1.50250E+03  3.82791E+03 -3.21480E+03  4.85277E+03 -4.06735E+03  1.29385E+03 -5.56214E+03 -1.22072E+03
 -2.23182E+03 -4.91856E+03  7.62118E+02 -5.88118E+03  2.28661E+03 -3.32983E+03  3.90992E+03 -1.15402E+03
  3.14004E+03  2.10333E+03  6.63105E+02  2.71913E+03 -1.05358E+03  1.67662E+03 -1.33604E+03 -2.54283E+01
 -8.83443E+02 -2.05017E+03  1.31116E+03 -2.07840E+03  1.51588E+03 -1.22090E+03  1.67163E+03  6.48720E+02
  9.78256E+02  4.95408E+02  7.35693E+02  1.58459E+01 -4.09103E+02  7.00913E+02  1.44967E+03 -3.34407E+02
  6.89408E+01 -1.83275E+02  2.20178E+03  6.38142E+02  5.54121E+02  3.03134E+03 -4.62649E+02  3.75853E+03
 -2.24091E+03  1.56345E+03 -2.66151E+03  7.12869E+02 -2.64667E+03 -1.03601E+03 -4.61437E+02 -1.35803E+03
  3.04847E+02 -1.69852E+03  1.27398E+03 -7.96472E+02  6.97188E+02  1.08160E+03 -8.50464E+02  1.66810E+03
 -2.09291E+03  7.37306E+02 -1.75615E+03 -1.32820E+03 -9.58125E+02 -2.54836E+03  2.90954E+02 -2.13410E+03
  7.11824E+02 -9.84936E+02  1.44802E+03  3.42806E+02  1.78448E+03  1.01651E+02  3.91948E+02  1.22635E+03
 -4.83484E+02  1.27939E+02 -1.01798E+03 -2.20362E+02  4.37402E+02 -1.23099E+03  2.10798E+03 -1.20569E+03
  1.75564E+03  4.96077E+02  3.19926E+03  1.18910E+03  1.56010E+03  2.27099E+03 -6.02745E+02  2.45596E+03
 -1.92398E+03  5.12180E+02 -1.87095E+03 -3.40073E+02 -1.14057E+03 -1.77893E+03  1.61670E+02 -1.04972E+03
  2.09095E+03 -7.25140E+02  9.09840E+02  6.84748E+02  2.22337E+02  1.53654E+03 -2.33645E+02  1.49877E+03
 -5.12097E+02  1.52279E+03 -4.69509E+02  2.80733E+02 -2.05878E+02  3.72204E+02 -6.63107E+02  7.71533E+02
 -7.21190E+02  1.32550E+03 -2.02865E+03  8.58965E+02 -2.40320E+03  3.27446E+02 -3.04405E+03 -1.34018E+03
 -1.45955E+03 -3.23886E+03  7.05748E+02 -3.78943E+03  1.53340E+03 -3.04213E+03  3.97212E+03 -1.13959E+03
  3.31015E+03  1.80797E+02  1.63500E+03  1.88360E+03 -5.42877E+02  1.97891E+03 -1.00762E+03  1.59307E+03
 -1.45747E+03  9.76168E+02 -7.00182E+02 -9.05945E+01 -3.33667E+02  2.83204E+02 -6.31852E+02  1.81233E+02
 -1.05172E+03 -3.03226E+02 -6.30994E+02  5.21346E+01  1.90396E+02 -7.05389E+02 -4.69118E+02 -1.19760E+03
  1.67632E+03 -1.04086E+03  7.93668E+02  3.56040E+02  1.58005E+03  1.24455E+03 -6.68732E+02  1.82522E+03
 -1.30481E+03  2.72493E+03 -2.55257E+03  1.79545E+03 -2.67124E+03 -5.15650E+02 -2.04764E+03 -1.82445E+03
 -1.22767E+03 -1.99100E+03  5.42310E+02 -1.67868E+03  8.13724E+02 -3.62068E+02  1.17264E+03  1.52369E+02
  8.51329E+02  4.96392E+02  5.78816E+01  3.99028E+02 -6.15155E+02  6.35479E+01 -1.05018E+02 -4.23204E+02
  7.77893E+02  5.87162E+01  4.82235E+02  7.10845E+02  1.93891E+02  1.01035E+03  2.36356E+02  5.60119E+02
 -9.91628E+02  1.01092E+03 -1.11567E+03  2.44211E+02 -1.23850E+03 -8.10141E+02 -1.76550E+01 -1.55081E+03
  6.30469E+02 -8.94266E+02  9.87684E+02 -2.63410E+02  1.21351E+03 -4.64880E+02  5.91829E+02  8.81742E+02
  4.34940E+02  1.14221E+03 -1.48476E+02  6.52878E+02 -6.26139E+02  7.38682E+02 -5.95021E+02  2.07297E+02
  1.26464E+02 -3.03669E+02 -5.98145E+02  2.41534E+02 -8.52864E+02  2.11461E+02 -1.05846E+03 -1.79899E+02
 -1.34087E+03 -2.43758E+01 -4.43656E+02 -1.30032E+03  9.16166E+02 -1.81325E+03  1.15293E+03 -1.29807E+02
  1.15533E+03 -4.29421E+00 -2.46243E+02  4.89326E+02 -2.04165E+02  1.12937E+03 -4.84666E+02  1.05281E+03
