 $NMID ID='MM_0lb_SNR800_19hz_g50_3.RAW', FMTDAT='(8E13.5)'
 TRAMP=1., VOLUME=1. $END
  3.09824E+05  2.61576E+02  3.37209E+05  2.50525E+05  8.45519E+04  3.37119E+05 -1.32431E+05  2.50685E+05
 -1.89666E+05  8.25065E+04 -1.11054E+05 -3.28021E+04  1.33292E+03 -5.01834E+04  5.37271E+04 -4.98276E+01
  3.53701E+04  5.30355E+04 -1.68423E+04  7.49854E+04 -6.06823E+04  6.29937E+04 -8.31424E+04  3.17443E+04
 -7.99324E+04 -1.11282E+04 -5.65092E+04 -5.00434E+04 -1.50413E+04 -6.83671E+04  2.69075E+04 -4.50949E+04
  3.91279E+04  3.97826E+03  1.52516E+04  4.69443E+04 -3.40974E+04  4.64601E+04 -6.55692E+04 -4.44183E+02
 -5.20713E+04 -5.60237E+04 -6.33983E+03 -7.51107E+04  3.33058E+04 -5.32685E+04  4.64160E+04 -1.62007E+04
  4.14812E+04  1.09372E+04  3.07570E+04  2.46312E+04  1.56763E+04  2.84191E+04 -4.76685E+03  2.66113E+04
 -2.18009E+04  1.26037E+04 -1.89379E+04 -4.30746E+03  4.66869E+03 -7.68100E+03  2.13491E+04  1.08577E+04
  7.49500E+03  3.33362E+04 -3.06919E+04  3.39482E+04 -6.10470E+04  2.20682E+03 -5.53130E+04 -4.15179E+04
 -1.23654E+04 -6.10852E+04  3.80648E+04 -4.35797E+04  5.57079E+04 -2.30743E+03  3.18642E+04  3.07351E+04
 -6.63714E+03  3.32566E+04 -2.84121E+04  1.36026E+04 -2.80134E+04 -5.48967E+03 -1.44103E+04 -1.01864E+04
 -7.45826E+03 -1.14354E+04 -9.16125E+02 -1.67237E+04  6.45485E+03 -2.23514E+04  1.48905E+04 -1.39704E+04
  1.21905E+04  4.36367E+03 -6.28423E+03  1.29990E+04 -1.91695E+04 -2.63706E+03 -7.97643E+03 -3.02988E+04
  2.08239E+04 -4.05704E+04  4.49444E+04 -1.88902E+04  4.19695E+04  1.82362E+04  1.45891E+04  4.17546E+04
 -1.52295E+04  3.11841E+04 -2.33218E+04  7.65824E+02 -8.12492E+03 -2.62362E+04  2.03632E+04 -3.12819E+04
  3.82790E+04 -7.26339E+03  3.15151E+04  2.26190E+04  1.54370E+04  4.24847E+04 -7.64115E+03  4.52777E+04
 -2.84826E+04  2.98024E+04 -3.76082E+04  8.26527E+03 -3.82780E+04 -1.49798E+04 -2.15606E+04 -3.45314E+04
  7.01834E+03 -3.42813E+04  2.93123E+04 -1.28345E+04  2.68122E+04  1.05965E+04  3.08196E+03  1.79974E+04
 -1.33270E+04  7.71435E+03 -9.76431E+03 -7.56121E+03  5.90534E+03 -1.00848E+04  1.70305E+04  6.53200E+03
  1.25085E+04  2.15802E+04 -6.67419E+03  2.30668E+04 -2.14026E+04  9.27657E+03 -2.51399E+04 -6.10928E+03
 -1.68681E+04 -1.64300E+04 -5.76290E+03 -1.68078E+04  4.00093E+03 -1.45746E+04  1.26407E+04 -1.43838E+04
  2.13790E+04 -1.17507E+04  2.82668E+04  1.13605E+03  2.13806E+04  1.67022E+04  4.12554E+03  3.26574E+04
 -1.62026E+04  2.75484E+04 -2.56609E+04  9.25812E+03 -1.98037E+04 -1.03841E+04 -4.21587E+03 -1.38898E+04
  2.42873E+03 -4.22693E+03 -2.77988E+03  5.29125E+03 -1.29970E+04  5.26693E+03 -1.34632E+04 -5.05328E+03
 -8.38197E+03 -1.52968E+04  4.50894E+03 -1.93542E+04  1.26667E+04 -1.40680E+04  1.46425E+04 -1.45359E+03
  8.91250E+03  1.10751E+04 -9.66378E+02  1.54445E+04 -1.03579E+04  8.97874E+03 -1.54643E+04 -3.14225E+03
 -1.12611E+04 -1.39067E+04 -1.46531E+03 -1.88115E+04  8.48904E+03 -1.52144E+04  1.59295E+04 -7.11272E+03
  1.43848E+04  7.33728E+02  1.01128E+04  3.81712E+03  5.13407E+03  8.04130E+02  7.74079E+03 -1.24530E+03
  1.38345E+04  2.63793E+03  1.47007E+04  1.24007E+04  8.92230E+03  2.50038E+04 -2.98987E+03  2.61032E+04
 -1.55939E+04  2.02968E+04 -2.42728E+04  9.88623E+03 -2.48182E+04 -1.38143E+03 -2.10987E+04 -1.39057E+04
 -9.71137E+03 -2.01574E+04  6.88775E+03 -1.90064E+04  1.65408E+04 -1.06919E+04  1.52808E+04  3.54014E+03
  6.58894E+03  1.11436E+04 -7.17315E+03  1.02050E+04 -1.32675E+04  2.63659E+03 -1.01771E+04 -7.99364E+03
 -3.41679E+02 -1.24484E+04  6.01469E+03 -9.48886E+03  7.61621E+03 -1.33279E+03  1.18826E+03  5.00763E+03
 -5.64413E+03  1.38132E+03 -3.62012E+03 -4.71196E+03  7.68701E+02 -1.02223E+04  7.79721E+03 -1.01435E+04
  1.20234E+04 -4.52565E+03  1.18324E+04  2.86010E+03  9.94558E+03  9.33037E+03  4.85685E+03  1.38221E+04
 -1.58220E+03  1.55688E+04 -9.17325E+03  9.88774E+03 -1.10830E+04  2.94383E+03 -8.33090E+03 -1.80907E+03
 -4.43378E+03 -3.11910E+03 -8.93514E+02  1.39898E+03 -2.17120E+03  1.93101E+03 -3.55006E+03  3.28565E+03
 -7.87793E+03 -3.12038E+02 -8.54951E+03 -7.14231E+03 -3.49563E+03 -1.12314E+04  3.39953E+03 -8.46934E+03
  7.39735E+03 -3.91924E+03  5.18121E+03  2.10294E+03  5.86513E+02  3.13962E+03 -3.23320E+03 -1.91588E+02
 -3.15761E+03 -5.39413E+03 -7.15512E+02 -7.15332E+03  3.80133E+03 -7.72199E+03  9.52341E+03 -3.69795E+03
  1.13869E+04  5.42726E+02  8.59299E+03  6.10703E+03  1.61402E+03  8.29916E+03 -5.01267E+03  8.17997E+03
 -6.59728E+03  2.70804E+03 -3.42030E+03 -8.71157E+02  1.17045E+03 -2.09698E+03  4.81526E+03 -7.24678E+02
  4.20241E+03  3.30473E+03  9.87110E+02  6.39740E+03 -4.31055E+03  6.39807E+03 -7.80430E+03  2.09980E+03
 -4.79872E+03 -3.35804E+03  5.26697E+00 -6.27343E+03  3.52020E+03 -3.07988E+03  3.37408E+03  1.06739E+03
  3.98701E+02  2.91551E+03 -3.99717E+03  4.71610E+03 -4.80042E+03  2.28834E+03 -4.23620E+03 -8.52144E+02
 -2.62087E+03 -5.63280E+03  1.08925E+03 -6.95951E+03  5.90446E+03 -4.80410E+03  6.26245E+03  8.95985E+02
  4.32128E+03  5.02030E+03  3.16134E+02  7.30153E+03 -4.60791E+03  4.02937E+03 -5.06427E+03 -5.08237E+02
 -5.50627E+03 -4.91931E+03 -1.14606E+03 -4.58750E+03  2.30587E+03 -4.45130E+03  2.51416E+03 -2.68065E+03
  2.69210E+03  2.89492E+02  1.46043E+02  1.13430E+03  5.23836E+02 -1.65744E+02  1.30754E+02 -1.84821E+03
  3.52713E+03 -5.03654E+02  5.00301E+03  4.22257E+02  5.27049E+03  2.90996E+03  5.11277E+03  6.77498E+03
 -1.15668E+03  8.03622E+03 -7.58778E+03  6.17599E+03 -9.42180E+03  1.11887E+03 -7.28959E+03 -2.26785E+03
 -4.38720E+03 -6.41982E+03 -5.15994E+02 -4.95788E+03  1.91057E+03 -1.58706E+03  1.54437E+03 -2.13922E+03
  1.29204E+03 -1.08157E+03  2.05589E+03 -2.01162E+03  3.29628E+03 -1.20052E+03  3.52504E+03  3.04353E+02
  4.16808E+03  1.21149E+03  9.47716E+02  3.07486E+03 -1.62179E+03  2.73164E+03 -4.28369E+03  2.84985E+03
 -4.74257E+03 -1.07590E+03 -1.85616E+03 -3.17895E+03  3.48826E+02 -4.58578E+03  3.25954E+03 -5.11042E+03
  4.64243E+03 -3.04544E+03  6.36933E+03  2.39626E+02  4.78288E+03  3.70156E+03  1.32192E+03  5.68839E+03
 -2.29302E+03  5.61209E+03 -3.07268E+03  1.97091E+03 -1.72736E+03 -1.02906E+03 -4.52157E+02 -6.30993E+02
 -5.77691E+02  2.92538E+02 -9.81311E+02  2.10025E+03 -2.50400E+03  8.30362E+02 -4.25377E+03 -3.30315E+02
 -1.52181E+03 -3.90359E+03  7.83158E+02 -4.63111E+03  2.64308E+03 -4.07596E+03  3.45073E+03 -9.49605E+02
  3.93242E+03  2.33745E+03  1.68445E+03  3.06232E+03 -7.78879E+02  3.92929E+03 -2.46186E+03  2.47833E+03
 -3.53743E+03  5.05617E+02 -3.30739E+03 -2.35365E+03 -2.07882E+01 -3.26460E+03  1.54208E+03 -2.30489E+03
  2.49252E+03 -1.21262E+03  1.54793E+03  3.07648E+02  2.61913E+02  1.63824E+03  4.84853E+02  6.96587E+02
  1.54191E+03  2.09013E+02  1.01617E+03  9.26844E+02  9.74692E+02  2.03638E+03  1.12894E+03  1.55734E+03
 -1.04181E+03  2.44324E+03 -2.22194E+03  4.04334E+03 -2.83961E+03  1.40715E+03 -3.87595E+03 -3.43532E+02
 -1.45335E+03 -3.24356E+03  5.87409E+02 -4.32715E+03  1.77161E+03 -2.36692E+03  2.92798E+03 -6.09234E+02
  2.23770E+03  1.53326E+03  4.91882E+02  2.07896E+03 -6.50584E+02  1.12889E+03 -1.12596E+03 -2.21054E+02
 -3.91583E+02 -1.29685E+03  1.30241E+03 -1.32289E+03  1.13695E+03 -8.45667E+02  1.24639E+03  2.47180E+02
  5.31021E+02  3.60895E+02  8.73890E+02 -3.81327E+02 -2.93259E+02  6.89381E+02  1.33460E+03 -1.84428E+02
 -2.00241E+02 -3.74722E+02  1.68292E+03  5.35267E+02  9.37639E+01  2.16002E+03 -4.14883E+02  2.79080E+03
 -1.42917E+03  9.67510E+02 -1.60912E+03  1.83332E+02 -2.20198E+03 -4.61777E+02 -1.46092E+02 -9.44417E+02
  4.92350E+02 -1.04270E+03  8.83215E+02 -3.76170E+02  5.00855E+02  1.19043E+03 -7.47207E+02  1.09296E+03
 -1.29809E+03  8.19983E+02 -1.19141E+03 -1.13825E+03 -5.34725E+02 -1.87130E+03 -2.77627E+01 -1.12199E+03
  2.71446E+02 -5.80195E+02  9.33920E+02  3.09306E+02  1.31441E+03 -2.59915E+02  8.40779E+01  9.36165E+02
 -8.86058E+01  2.17841E+02 -9.41260E+02 -1.34131E+02  5.12356E+02 -7.16639E+02  1.57816E+03 -8.52464E+02
  1.09596E+03  2.72491E+02  2.51090E+03  7.28641E+02  1.17650E+03  1.46460E+03  2.77914E+01  1.76045E+03
 -1.19695E+03  5.44013E+01 -1.39709E+03 -2.51064E+02 -6.12869E+02 -1.26020E+03  2.15159E+02 -3.82615E+02
  1.37445E+03 -5.54889E+02  5.28771E+02  5.26845E+02  4.43963E+01  1.03091E+03  3.20136E+02  1.13610E+03
 -5.71839E+02  1.18509E+03 -6.18354E+02  3.00661E+02  3.75268E+01  3.24687E+02 -4.12231E+02  7.64469E+02
 -4.27944E+02  9.26652E+02 -1.77548E+03  6.97890E+02 -1.18580E+03  3.95932E+02 -2.00683E+03 -8.75264E+02
 -9.91967E+02 -1.85368E+03  5.17155E+02 -2.47107E+03  6.88964E+02 -2.15030E+03  2.56968E+03 -8.62325E+02
  1.94284E+03 -1.15593E+02  8.37493E+02  1.57354E+03 -9.07378E+02  1.15732E+03 -4.32801E+02  1.03164E+03
 -6.46327E+02  5.79531E+02 -2.36387E+02 -1.69826E+02 -3.92530E+02  3.97913E+02 -8.49856E+02  2.84008E+02
 -9.73544E+02 -2.28369E+02 -9.56557E+02  1.31221E+02  2.72423E+02 -3.09415E+02 -4.19288E+02 -9.72190E+02
  1.17773E+03 -4.89692E+02  3.31837E+02  9.31299E+01  1.27865E+03  8.41222E+02 -4.25324E+02  1.36608E+03
 -7.19642E+02  1.97486E+03 -1.63467E+03  1.10876E+03 -1.40003E+03 -4.06535E+02 -9.15473E+02 -1.24103E+03
 -9.56369E+02 -1.14740E+03  5.03458E+02 -1.16211E+03  2.63090E+02 -4.27586E+02  4.27074E+02  1.83719E+02
  4.95625E+02  1.52336E+02  4.28548E+01  3.70540E+02 -2.68611E+02  3.07356E+02 -6.03130E+01 -1.10896E+02
  9.45467E+02  1.59218E+02  2.03420E+02  2.72230E+02 -5.31009E+01  5.68003E+02  3.72357E+02  2.09740E+02
 -5.48952E+02  6.20375E+02 -4.12510E+02 -5.79105E+01 -6.30188E+02 -1.50480E+02  1.93896E+02 -9.49760E+02
  4.17849E+02 -4.49441E+02  1.94764E+02 -1.33155E+02  7.91050E+02 -6.52013E+02  3.20392E+02  5.16413E+02
  3.00978E+02  4.66219E+02 -1.23397E+02  4.95814E+02 -3.35217E+02  5.71000E+02 -3.57940E+02  1.44074E+02
 -1.14652E+02 -3.40166E+02 -4.00187E+02  1.32248E+02 -7.37464E+02  8.03139E+01 -9.05023E+02 -2.39446E+02
 -1.14779E+03  1.17390E+02 -3.59243E+02 -1.01653E+03  8.01312E+02 -1.49602E+03  6.92980E+02 -5.30715E+02
  4.29835E+02  2.39236E+02 -2.66766E+02 -4.61911E+01 -3.53678E+01  4.77479E+02 -2.69800E+02  5.23126E+02
