 $NMID ID='MM_0lb_SNR800_11hz_g40_3.RAW', FMTDAT='(8E13.5)'
 TRAMP=1., VOLUME=1. $END
  3.10119E+05  5.20453E+02  3.37526E+05  2.50706E+05  8.47696E+04  3.38129E+05 -1.32859E+05  2.51402E+05
 -1.90577E+05  8.33952E+04 -1.11896E+05 -3.22778E+04  7.13803E+02 -5.04890E+04  5.38801E+04 -1.97277E+02
  3.54247E+04  5.27485E+04 -1.69306E+04  7.61737E+04 -6.09648E+04  6.37018E+04 -8.49419E+04  3.23850E+04
 -8.17667E+04 -1.14927E+04 -5.77166E+04 -5.14203E+04 -1.51018E+04 -7.01278E+04  2.77064E+04 -4.58176E+04
  4.04201E+04  3.69864E+03  1.61243E+04  4.81901E+04 -3.46165E+04  4.78110E+04 -6.72495E+04  6.46675E+01
 -5.39537E+04 -5.71921E+04 -7.12946E+03 -7.75697E+04  3.44785E+04 -5.59094E+04  4.86047E+04 -1.79875E+04
  4.38256E+04  1.14653E+04  3.22317E+04  2.59271E+04  1.61105E+04  2.96710E+04 -5.31035E+03  2.74628E+04
 -2.24279E+04  1.23040E+04 -1.83792E+04 -5.26902E+03  6.30379E+03 -7.20214E+03  2.27382E+04  1.23375E+04
  7.26745E+03  3.60870E+04 -3.29498E+04  3.60166E+04 -6.41823E+04  1.83564E+03 -5.74636E+04 -4.34885E+04
 -1.24870E+04 -6.40577E+04  4.03165E+04 -4.58857E+04  5.91704E+04 -2.47845E+03  3.51148E+04  3.30987E+04
 -6.01081E+03  3.76604E+04 -3.08109E+04  1.71294E+04 -3.14198E+04 -4.14593E+03 -1.76516E+04 -1.12413E+04
 -8.82808E+03 -1.41985E+04 -1.95234E+02 -1.85138E+04  7.69799E+03 -2.32461E+04  1.56539E+04 -1.31780E+04
  1.07611E+04  5.29976E+03 -9.26883E+03  1.30640E+04 -2.22522E+04 -5.34643E+03 -8.54477E+03 -3.52327E+04
  2.40109E+04 -4.48643E+04  4.98356E+04 -2.02763E+04  4.67959E+04  2.02465E+04  1.61970E+04  4.51981E+04
 -1.61201E+04  3.45924E+04 -2.60478E+04  2.14600E+03 -1.10343E+04 -2.84236E+04  2.11987E+04 -3.52898E+04
  4.21698E+04 -9.87610E+03  3.73605E+04  2.40835E+04  1.92964E+04  4.83809E+04 -7.84765E+03  5.26533E+04
 -3.30615E+04  3.56470E+04 -4.42603E+04  1.03361E+04 -4.49185E+04 -1.74551E+04 -2.44235E+04 -3.95609E+04
  7.60866E+03 -3.99388E+04  3.25772E+04 -1.58210E+04  2.99932E+04  1.07627E+04  4.46469E+03  1.97347E+04
 -1.38163E+04  9.07081E+03 -1.07177E+04 -7.43809E+03  5.80053E+03 -1.08995E+04  1.80886E+04  5.91725E+03
  1.39650E+04  2.26244E+04 -5.67230E+03  2.61189E+04 -2.25863E+04  1.30181E+04 -2.90832E+04 -4.22887E+03
 -2.24255E+04 -1.74563E+04 -9.58960E+03 -2.24842E+04  4.14247E+03 -2.21850E+04  1.75370E+04 -1.99141E+04
  2.85928E+04 -1.30796E+04  3.44636E+04  3.81935E+03  2.50714E+04  2.16835E+04  4.44076E+03  3.84313E+04
 -1.81422E+04  3.18529E+04 -2.90523E+04  1.10641E+04 -2.17876E+04 -1.01596E+04 -4.48048E+03 -1.32914E+04
  1.23820E+03 -2.31915E+03 -5.93603E+03  7.58430E+03 -1.79160E+04  5.27220E+03 -1.79325E+04 -8.00733E+03
 -1.11768E+04 -2.08548E+04  5.54950E+03 -2.48685E+04  1.67383E+04 -1.75473E+04  2.00883E+04 -1.39608E+03
  1.27273E+04  1.44683E+04 -1.32972E+03  2.04206E+04 -1.47589E+04  1.20888E+04 -2.07590E+04 -4.43698E+03
 -1.53439E+04 -1.84782E+04 -1.98529E+03 -2.50011E+04  1.13341E+04 -2.06473E+04  2.09211E+04 -1.07855E+04
  1.95931E+04  4.27056E-02  1.37039E+04  4.68162E+03  7.43524E+03  1.05196E+03  1.06832E+04 -1.81613E+03
  1.93869E+04  2.89849E+03  2.18590E+04  1.61600E+04  1.48683E+04  3.33718E+04 -3.16004E+03  3.83297E+04
 -2.22763E+04  3.13911E+04 -3.58291E+04  1.58528E+04 -3.80161E+04 -2.55780E+03 -3.09635E+04 -2.21454E+04
 -1.30245E+04 -3.16675E+04  1.08425E+04 -2.82777E+04  2.39517E+04 -1.34795E+04  2.13531E+04  6.78151E+03
  7.92829E+03  1.60713E+04 -1.01000E+04  1.38234E+04 -1.81034E+04  2.56268E+03 -1.39634E+04 -1.13988E+04
 -4.17921E+02 -1.70945E+04  8.91935E+03 -1.24527E+04  1.14220E+04 -1.26441E+03  2.44809E+03  7.74185E+03
 -7.65018E+03  2.85838E+03 -7.30468E+03 -6.23835E+03 -1.15308E+03 -1.52866E+04  1.05154E+04 -1.63082E+04
  1.91494E+04 -9.07052E+03  2.14536E+04  3.21927E+03  1.89286E+04  1.56814E+04  8.49417E+03  2.41124E+04
 -4.10375E+03  2.59989E+04 -1.69690E+04  1.61386E+04 -1.86029E+04  3.46650E+03 -1.29880E+04 -4.40355E+03
 -5.89123E+03 -5.45318E+03 -1.01747E+03  8.08848E+02 -2.46058E+03  2.91008E+03 -6.07409E+03  4.98810E+03
 -1.20907E+04 -8.50122E+02 -1.26114E+04 -1.01870E+04 -5.16483E+03 -1.68121E+04  5.33240E+03 -1.32730E+04
  1.09786E+04 -5.62070E+03  7.94618E+03  3.41722E+03  2.77359E+02  5.07987E+03 -6.28449E+03 -1.96634E+02
 -6.22278E+03 -8.29608E+03 -1.27495E+03 -1.27054E+04  6.92163E+03 -1.34450E+04  1.62115E+04 -7.16665E+03
  1.94704E+04  1.85566E+03  1.42390E+04  1.16574E+04  2.77947E+03  1.55390E+04 -7.98354E+03  1.26426E+04
 -1.05374E+04  3.97041E+03 -5.21529E+03 -2.73137E+03  1.61506E+03 -3.82453E+03  7.17839E+03 -1.11499E+03
  6.32272E+03  5.92593E+03  1.16799E+03  1.04804E+04 -7.27004E+03  1.02300E+04 -1.29816E+04  2.36264E+03
 -8.95174E+03 -6.68137E+03  9.99498E+01 -1.12567E+04  6.88482E+03 -5.99518E+03  6.95557E+03  2.80466E+03
  1.57763E+03  7.51881E+03 -6.57453E+03  9.13182E+03 -1.06553E+04  3.93686E+03 -1.07937E+04 -3.94321E+03
 -5.96674E+03 -1.25034E+04  2.96484E+03 -1.42214E+04  1.20058E+04 -8.92655E+03  1.31150E+04  1.93647E+03
  8.24640E+03  1.02762E+04 -9.34650E+02  1.26006E+04 -9.19771E+03  7.20959E+03 -9.95229E+03 -7.92325E+02
 -8.91161E+03 -8.60934E+03 -1.46674E+03 -9.65499E+03  5.17055E+03 -7.83306E+03  5.87237E+03 -3.07700E+03
  4.11044E+03  1.37961E+03 -7.45817E+02  1.98028E+03 -2.78986E+02 -2.61614E+03  1.58892E+03 -5.17330E+03
  8.65930E+03 -3.46281E+03  1.20288E+04  1.42707E+03  1.20280E+04  8.06647E+03  8.64014E+03  1.60919E+04
 -3.59871E+03  1.86458E+04 -1.56951E+04  1.37645E+04 -2.02259E+04  2.48530E+03 -1.64495E+04 -7.05714E+03
 -8.39954E+03 -1.30775E+04 -4.84663E+02 -1.11494E+04  4.04897E+03 -6.47763E+03  3.67648E+03 -3.92119E+03
  2.87664E+03 -2.66803E+03  3.21079E+03 -3.26606E+03  5.05549E+03 -3.11163E+03  6.58620E+03 -7.53667E+02
  8.41640E+03  2.16233E+03  4.07386E+03  7.29291E+03 -1.59294E+03  8.22990E+03 -8.64496E+03  6.57800E+03
 -1.11992E+04 -1.23470E+03 -7.05661E+03 -7.35858E+03 -5.80075E+02 -1.20980E+04  6.75607E+03 -1.22147E+04
  1.23325E+04 -7.15188E+03  1.46895E+04  1.92633E+03  1.02995E+04  1.02674E+04  2.14531E+03  1.38026E+04
 -5.79811E+03  1.13114E+04 -7.69153E+03  3.85979E+03 -5.44014E+03 -1.60204E+03 -2.20857E+03 -2.06385E+03
 -9.14510E+02  2.84209E+02 -1.98028E+03  2.87968E+03 -4.85188E+03  2.07144E+03 -8.06822E+03 -1.47069E+03
 -5.20342E+03 -7.89029E+03  1.88020E+02 -1.10194E+04  6.74928E+03 -1.03717E+04  1.07411E+04 -3.13096E+03
  1.04556E+04  5.09091E+03  5.07568E+03  9.78821E+03 -2.11910E+03  1.11403E+04 -7.85231E+03  6.91892E+03
 -1.01523E+04  4.77098E+02 -7.79916E+03 -6.63914E+03 -5.54845E+02 -8.86080E+03  4.74077E+03 -7.12051E+03
  6.90950E+03 -1.99876E+03  4.87527E+03  2.03831E+03  1.75522E+03  3.39629E+03  1.02793E+03  1.32494E+03
  2.38413E+03  6.77066E+02  2.91495E+03  1.55250E+03  3.18560E+03  4.12713E+03  2.87940E+03  5.49159E+03
 -2.18636E+03  8.21291E+03 -7.50075E+03  8.75697E+03 -1.09968E+04  2.14388E+03 -1.14046E+04 -4.21525E+03
 -5.69301E+03 -1.08024E+04  2.04106E+03 -1.20813E+04  5.88883E+03 -7.52093E+03  8.76204E+03 -2.40710E+03
  6.48809E+03  4.13212E+03  1.58472E+03  6.07898E+03 -3.13932E+03  3.89938E+03 -3.85754E+03 -8.38691E+02
 -1.98712E+03 -4.71938E+03  2.77161E+03 -4.35700E+03  4.11165E+03 -2.47618E+03  4.53674E+03  7.88282E+02
  2.50346E+03  1.96027E+03  1.21900E+03  1.40814E+03 -6.90525E+02  1.70595E+03  1.70385E+03 -3.36680E+02
  1.82978E+03 -5.82004E+02  4.47957E+03  1.67137E+03  2.13995E+03  6.06909E+03 -1.08950E+03  7.48972E+03
 -5.48051E+03  4.90643E+03 -7.15297E+03  1.23265E+03 -5.85436E+03 -2.38103E+03 -2.49326E+03 -3.99179E+03
  6.14905E+02 -4.53149E+03  2.40220E+03 -2.15619E+03  2.20571E+03  2.04949E+03 -1.49371E+03  3.62149E+03
 -4.33528E+03  1.98680E+03 -4.83300E+03 -2.41908E+03 -2.98721E+03 -6.09322E+03  7.66199E+02 -5.84309E+03
  3.00502E+03 -3.31164E+03  4.10323E+03 -5.36211E+02  3.28265E+03  1.42870E+03  7.57253E+02  3.55003E+03
 -2.06085E+03  4.68142E+02 -2.55165E+03 -1.95999E+03  9.00393E+02 -4.46119E+03  5.57357E+03 -3.52800E+03
  6.18533E+03  5.28996E+02  6.89786E+03  4.32510E+03  1.97411E+03  6.91268E+03 -2.26377E+03  6.43681E+03
 -5.57194E+03  2.95011E+03 -5.95898E+03 -1.02624E+03 -3.08329E+03 -4.40467E+03  8.50559E+02 -3.97120E+03
  4.27482E+03 -2.42960E+03  3.38486E+03  1.85701E+03  1.18665E+03  3.66697E+03 -6.86533E+02  3.59136E+03
 -1.93082E+03  1.88700E+03 -1.55810E+03  6.75884E+02 -1.00683E+03  5.64450E+02 -1.05183E+03  1.45126E+03
 -1.77187E+03  2.71575E+03 -4.72260E+03  2.29716E+03 -6.81365E+03  1.06954E+02 -7.98152E+03 -4.07614E+03
 -3.97670E+03 -9.09059E+03  1.68165E+03 -1.05450E+04  6.24900E+03 -8.09878E+03  9.93556E+03 -3.39300E+03
  9.25678E+03  1.66887E+03  5.33684E+03  6.36203E+03  1.19721E+02  7.19081E+03 -2.64578E+03  5.13826E+03
 -4.05462E+03  1.67703E+03 -2.43355E+03 -9.28238E+02 -5.58532E+02 -4.31122E+02 -5.61262E+02 -1.95575E+02
 -1.90021E+03 -1.06544E+02 -1.58065E+03 -4.36202E+02  2.33628E+01 -1.73796E+03 -1.17105E+02 -2.58426E+03
  3.35499E+03 -2.16030E+03  3.99431E+03 -5.38007E+01  4.78068E+03  3.95660E+03  1.03441E+03  6.84989E+03
 -3.06019E+03  7.57388E+03 -7.18098E+03  4.68793E+03 -8.09139E+03 -4.92192E+02 -6.14559E+03 -5.12438E+03
 -2.57851E+03 -6.92315E+03  1.88778E+03 -6.69390E+03  4.17979E+03 -3.48955E+03  4.70933E+03  3.11940E+02
  2.89804E+03  2.27050E+03 -1.56264E+02  2.18817E+03 -1.41732E+03  5.21294E+01 -1.94174E+02 -1.63865E+03
  2.49697E+03 -7.61700E+02  2.28648E+03  8.97506E+02  1.67564E+03  2.53196E+03  4.29013E+02  3.25380E+03
 -2.92651E+03  3.26651E+03 -4.14540E+03  5.28514E+02 -3.89582E+03 -3.08272E+03 -4.78617E+02 -5.74634E+03
  3.04908E+03 -4.58347E+03  4.85238E+03 -1.58601E+03  5.20484E+03  1.06740E+03  2.60438E+03  4.11951E+03
  8.82856E+02  4.23177E+03 -1.77936E+03  3.27261E+03 -2.76666E+03  2.12921E+03 -2.24445E+03  2.63050E+02
 -9.37603E+02 -1.20896E+02 -1.60240E+03  4.36838E+02 -2.60674E+03  9.54207E+02 -3.66830E+03 -8.63778E+02
 -3.21636E+03 -2.51248E+03 -1.01285E+03 -4.20474E+03  2.51727E+03 -4.93714E+03  4.32978E+03 -2.35586E+03
  4.34260E+03  2.36318E+02  2.17742E+03  2.96999E+03 -4.93192E+02  4.21249E+03 -3.21896E+03  2.94037E+03
