 $NMID ID='MM_0lb_SNR800_11hz_g45_70.RAW', FMTDAT='(8E13.5)'
 TRAMP=1., VOLUME=1. $END
  3.10268E+05  5.07062E+02  3.37515E+05  2.50781E+05  8.46790E+04  3.38060E+05 -1.32665E+05  2.51761E+05
 -1.90658E+05  8.33798E+04 -1.12183E+05 -3.26069E+04  7.79549E+02 -5.06166E+04  5.37404E+04 -3.73428E+02
  3.53683E+04  5.26744E+04 -1.66825E+04  7.58956E+04 -6.05861E+04  6.40405E+04 -8.46769E+04  3.24387E+04
 -8.19089E+04 -1.12454E+04 -5.77934E+04 -5.18888E+04 -1.50985E+04 -7.06385E+04  2.78072E+04 -4.64042E+04
  4.05448E+04  3.88906E+03  1.65057E+04  4.79836E+04 -3.45624E+04  4.76086E+04 -6.72376E+04 -1.73797E+02
 -5.41835E+04 -5.75178E+04 -7.25512E+03 -7.77842E+04  3.40079E+04 -5.58670E+04  4.89482E+04 -1.76081E+04
  4.44624E+04  1.14598E+04  3.23489E+04  2.60624E+04  1.56232E+04  3.03595E+04 -5.68208E+03  2.73692E+04
 -2.22253E+04  1.23658E+04 -1.84650E+04 -5.41368E+03  6.07411E+03 -7.53649E+03  2.30438E+04  1.30234E+04
  7.35456E+03  3.60065E+04 -3.29967E+04  3.58860E+04 -6.48812E+04  2.22887E+03 -5.81313E+04 -4.37471E+04
 -1.23454E+04 -6.45929E+04  4.08834E+04 -4.65922E+04  5.98749E+04 -2.75387E+03  3.55123E+04  3.30746E+04
 -5.63716E+03  3.75234E+04 -3.10150E+04  1.74228E+04 -3.16372E+04 -3.83121E+03 -1.80959E+04 -1.17740E+04
 -8.79654E+03 -1.38683E+04 -6.93063E+02 -1.87238E+04  7.81476E+03 -2.33489E+04  1.58702E+04 -1.29120E+04
  1.11391E+04  5.87081E+03 -9.31054E+03  1.26076E+04 -2.21330E+04 -5.44461E+03 -8.70617E+03 -3.55750E+04
  2.36726E+04 -4.54069E+04  5.00824E+04 -2.02532E+04  4.69181E+04  2.01953E+04  1.66868E+04  4.57175E+04
 -1.68049E+04  3.46982E+04 -2.63169E+04  2.27111E+03 -1.04683E+04 -2.87673E+04  2.14941E+04 -3.55620E+04
  4.28874E+04 -9.78594E+03  3.82606E+04  2.49116E+04  2.00757E+04  4.89396E+04 -8.01945E+03  5.30798E+04
 -3.35254E+04  3.58084E+04 -4.48541E+04  1.04307E+04 -4.49727E+04 -1.74901E+04 -2.45746E+04 -4.03379E+04
  7.93290E+03 -3.99709E+04  3.30028E+04 -1.59462E+04  3.06027E+04  1.12648E+04  4.78547E+03  2.04972E+04
 -1.36581E+04  8.76654E+03 -1.06474E+04 -7.74022E+03  6.03956E+03 -1.09356E+04  1.83445E+04  5.94815E+03
  1.41050E+04  2.24160E+04 -5.40281E+03  2.63392E+04 -2.30752E+04  1.27820E+04 -2.96406E+04 -3.82039E+03
 -2.34043E+04 -1.82152E+04 -9.87467E+03 -2.27923E+04  4.19462E+03 -2.22572E+04  1.74508E+04 -2.04338E+04
  2.89799E+04 -1.32402E+04  3.50426E+04  3.80584E+03  2.54079E+04  2.23214E+04  4.38575E+03  3.87340E+04
 -1.87914E+04  3.18767E+04 -2.92177E+04  1.10468E+04 -2.16653E+04 -1.04244E+04 -4.43363E+03 -1.34193E+04
  9.30067E+02 -1.71615E+03 -6.17791E+03  7.54432E+03 -1.84758E+04  5.25520E+03 -1.83640E+04 -8.27064E+03
 -1.07678E+04 -2.12118E+04  5.32550E+03 -2.56179E+04  1.71069E+04 -1.82926E+04  2.05748E+04 -1.65641E+03
  1.28097E+04  1.48473E+04 -8.74850E+02  2.09063E+04 -1.47472E+04  1.19892E+04 -2.12534E+04 -4.45211E+03
 -1.56389E+04 -1.89675E+04 -1.91125E+03 -2.53601E+04  1.09392E+04 -2.13528E+04  2.10476E+04 -1.09494E+04
  2.00130E+04 -4.92511E+02  1.40026E+04  4.74680E+03  7.92956E+03  9.70020E+02  1.08741E+04 -1.68378E+03
  1.99403E+04  2.91694E+03  2.26116E+04  1.65055E+04  1.49539E+04  3.42044E+04 -2.87799E+03  3.88156E+04
 -2.20872E+04  3.20491E+04 -3.67400E+04  1.66410E+04 -3.90468E+04 -2.61024E+03 -3.20198E+04 -2.28832E+04
 -1.31789E+04 -3.22492E+04  1.14832E+04 -2.87337E+04  2.46001E+04 -1.40109E+04  2.17803E+04  6.51323E+03
  7.92814E+03  1.64746E+04 -9.95799E+03  1.40052E+04 -1.80417E+04  2.87840E+03 -1.39107E+04 -1.14948E+04
 -2.51212E+02 -1.72314E+04  9.21161E+03 -1.29486E+04  1.16184E+04 -1.00705E+03  2.85533E+03  8.19537E+03
 -7.90198E+03  2.97349E+03 -7.30551E+03 -6.22222E+03 -1.25929E+03 -1.55487E+04  1.08521E+04 -1.72537E+04
  1.99238E+04 -9.51366E+03  2.17753E+04  3.19691E+03  1.95105E+04  1.59588E+04  9.28347E+03  2.48502E+04
 -4.87404E+03  2.64255E+04 -1.73413E+04  1.64418E+04 -1.90806E+04  3.69049E+03 -1.33500E+04 -4.48365E+03
 -5.77279E+03 -6.45559E+03 -7.63547E+02  5.96702E+02 -2.65203E+03  3.07641E+03 -6.80114E+03  4.92544E+03
 -1.21589E+04 -5.67498E+02 -1.31072E+04 -1.00285E+04 -5.53163E+03 -1.71835E+04  5.46186E+03 -1.34647E+04
  1.09803E+04 -6.16673E+03  7.87496E+03  3.72255E+03 -1.56300E+02  4.93025E+03 -6.64749E+03 -2.79312E+02
 -6.01442E+03 -8.80813E+03 -1.15675E+03 -1.30689E+04  7.55146E+03 -1.38202E+04  1.68722E+04 -7.52984E+03
  1.99574E+04  1.94359E+03  1.44265E+04  1.16710E+04  2.70067E+03  1.57234E+04 -8.46650E+03  1.32383E+04
 -1.12190E+04  4.12131E+03 -5.52716E+03 -2.90051E+03  1.89214E+03 -3.55312E+03  7.08702E+03 -1.24356E+03
  6.52052E+03  5.52346E+03  1.39050E+03  1.07748E+04 -7.60739E+03  1.03911E+04 -1.30651E+04  2.35872E+03
 -8.99118E+03 -6.72144E+03  1.00477E+02 -1.12943E+04  7.34315E+03 -5.72045E+03  7.43215E+03  2.34393E+03
  2.00586E+03  7.67216E+03 -7.27940E+03  9.63280E+03 -1.06798E+04  4.27515E+03 -1.12326E+04 -3.77168E+03
 -6.30215E+03 -1.25711E+04  3.12759E+03 -1.47743E+04  1.26981E+04 -9.07362E+03  1.36269E+04  2.21967E+03
  8.71798E+03  1.06872E+04 -1.10644E+03  1.30739E+04 -9.85783E+03  7.50427E+03 -1.04751E+04 -1.28278E+03
 -9.10045E+03 -8.47246E+03 -1.61529E+03 -9.63115E+03  5.29701E+03 -8.20601E+03  6.12237E+03 -3.67873E+03
  4.13468E+03  1.42642E+03 -7.07543E+02  1.46595E+03 -5.04523E+02 -2.40089E+03  1.75176E+03 -5.96621E+03
  9.05654E+03 -3.31666E+03  1.25451E+04  1.50726E+03  1.26154E+04  8.69778E+03  8.48003E+03  1.65681E+04
 -3.76658E+03  1.90382E+04 -1.63091E+04  1.42607E+04 -2.02643E+04  2.63176E+03 -1.68886E+04 -6.79383E+03
 -8.29629E+03 -1.36975E+04 -2.92139E+02 -1.17192E+04  4.15986E+03 -6.12259E+03  3.84362E+03 -4.06593E+03
  2.90791E+03 -2.56743E+03  3.18004E+03 -3.20474E+03  5.16849E+03 -2.76837E+03  7.05831E+03 -6.69889E+02
  8.40167E+03  2.21854E+03  4.36713E+03  7.61301E+03 -2.27399E+03  8.66476E+03 -9.01430E+03  6.55378E+03
 -1.18562E+04 -1.07278E+03 -7.19824E+03 -8.03004E+03 -9.94071E+02 -1.21062E+04  6.73280E+03 -1.23220E+04
  1.23899E+04 -7.18436E+03  1.52402E+04  2.02434E+03  1.06223E+04  1.07976E+04  1.91107E+03  1.38818E+04
 -5.83001E+03  1.15267E+04 -7.88314E+03  3.87816E+03 -5.38908E+03 -1.37443E+03 -2.39851E+03 -1.47481E+03
 -1.08330E+03 -4.54324E+02 -1.62489E+03  2.74290E+03 -5.02051E+03  2.01331E+03 -8.10298E+03 -1.23551E+03
 -5.24006E+03 -8.04766E+03  3.47361E+02 -1.09650E+04  6.70571E+03 -1.04570E+04  1.07883E+04 -2.90559E+03
  1.12414E+04  5.61362E+03  5.37882E+03  9.83917E+03 -2.15561E+03  1.15256E+04 -7.94020E+03  6.82237E+03
 -1.08590E+04  9.83433E+02 -8.16496E+03 -6.96966E+03 -8.63512E+02 -9.46226E+03  4.79970E+03 -6.72060E+03
  6.69190E+03 -2.32217E+03  4.56338E+03  2.15280E+03  1.30661E+03  3.33530E+03  1.06435E+03  1.49529E+03
  2.27432E+03  9.85966E+02  2.68290E+03  1.25186E+03  3.05619E+03  4.22035E+03  3.06861E+03  5.92459E+03
 -2.33161E+03  8.61436E+03 -7.51965E+03  9.11536E+03 -1.07674E+04  2.44772E+03 -1.17168E+04 -4.01184E+03
 -5.14043E+03 -1.13424E+04  1.52851E+03 -1.21535E+04  6.92558E+03 -8.19869E+03  9.40969E+03 -2.13381E+03
  7.19271E+03  4.06422E+03  1.55997E+03  6.18138E+03 -3.07305E+03  3.84684E+03 -4.22698E+03 -6.69735E+02
 -2.17732E+03 -5.29650E+03  2.23135E+03 -5.03509E+03  4.71938E+03 -2.56949E+03  4.46832E+03  9.95652E+02
  2.61987E+03  1.79739E+03  1.63771E+03  1.62080E+03 -4.83268E+02  1.64091E+03  1.82827E+03 -5.21444E+02
  1.57146E+03 -7.03601E+02  4.68448E+03  1.61841E+03  2.04301E+03  6.11928E+03 -8.26338E+02  7.91844E+03
 -5.28162E+03  4.90940E+03 -7.11066E+03  1.42847E+03 -6.77933E+03 -2.41088E+03 -2.21299E+03 -4.31878E+03
  5.07408E+02 -4.36596E+03  2.86271E+03 -2.12364E+03  2.46473E+03  2.17069E+03 -1.10980E+03  3.87617E+03
 -4.40924E+03  2.24634E+03 -5.12324E+03 -2.71176E+03 -2.68419E+03 -6.23600E+03  7.80614E+02 -5.96882E+03
  3.41562E+03 -3.33029E+03  4.35684E+03 -4.09444E+02  3.95348E+03  1.74488E+03  7.07104E+02  3.43660E+03
 -2.05086E+03  7.55999E+02 -2.51611E+03 -1.56011E+03  1.00346E+03 -4.82213E+03  5.15237E+03 -3.76083E+03
  6.69217E+03  4.46089E+02  6.92901E+03  4.66863E+03  2.32749E+03  6.90367E+03 -2.17042E+03  6.15267E+03
 -5.87284E+03  2.44486E+03 -5.99850E+03 -8.91471E+02 -3.51605E+03 -4.51308E+03  1.26205E+03 -3.97640E+03
  4.36792E+03 -2.35988E+03  3.49899E+03  1.54605E+03  9.83194E+02  3.93600E+03 -5.63048E+02  3.63881E+03
 -1.95382E+03  2.46626E+03 -1.37757E+03  8.07108E+02 -1.26569E+03  1.15010E+03 -1.21030E+03  8.94865E+02
 -1.91152E+03  3.14769E+03 -4.95658E+03  2.42355E+03 -7.03307E+03  2.88609E+02 -7.99093E+03 -4.77997E+03
 -4.07696E+03 -9.32175E+03  1.88248E+03 -1.03733E+04  6.43287E+03 -8.71564E+03  1.02506E+04 -2.96658E+03
  9.45535E+03  1.37486E+03  5.61944E+03  6.46235E+03  3.16025E+02  7.13064E+03 -2.33694E+03  5.29189E+03
 -3.76314E+03  1.98418E+03 -2.25963E+03 -8.13717E+02 -1.19702E+03 -6.34091E+02 -4.10695E+02  1.22025E+02
 -1.36155E+03 -2.62672E+02 -1.70135E+03 -3.98314E+02 -4.80293E+02 -1.84179E+03  2.87767E+01 -2.45641E+03
  3.44383E+03 -2.21690E+03  4.06467E+03  1.70434E+02  5.21088E+03  3.97199E+03  1.21079E+03  7.09096E+03
 -3.21086E+03  8.10775E+03 -7.59961E+03  4.70999E+03 -8.62349E+03 -4.51723E+02 -6.08562E+03 -5.23139E+03
 -2.72899E+03 -6.93641E+03  2.00204E+03 -6.61955E+03  4.56189E+03 -3.39087E+03  4.36215E+03  2.25168E+02
  2.69650E+03  1.91310E+03 -4.07755E+02  2.14515E+03 -1.51506E+03  1.09760E+01  3.85063E+02 -1.75874E+03
  1.86779E+03 -5.08707E+02  2.58653E+03  1.12978E+03  1.65122E+03  2.93987E+03  2.20541E+02  3.51757E+03
 -3.05618E+03  3.15558E+03 -4.29514E+03  1.97794E+02 -4.09346E+03 -2.93432E+03 -7.64434E+02 -5.80960E+03
  3.21764E+03 -5.16660E+03  4.79336E+03 -1.65303E+03  4.96910E+03  1.06146E+03  3.38145E+03  4.37394E+03
  9.25606E+02  4.40065E+03 -2.00382E+03  3.81783E+03 -2.84639E+03  1.84656E+03 -2.38808E+03  3.37245E+02
 -9.92809E+02 -8.30677E+01 -1.57374E+03  6.63857E+02 -2.31453E+03  1.14321E+03 -3.69045E+03 -1.02963E+03
 -3.45432E+03 -2.00155E+03 -1.09532E+03 -4.25347E+03  2.05254E+03 -5.01306E+03  4.22707E+03 -2.31229E+03
  4.34529E+03  9.00767E+02  1.83341E+03  3.31632E+03 -3.17963E+02  4.52383E+03 -3.22615E+03  3.49312E+03
