 $NMID ID='MM_0lb_SNR800_14hz_g50_84.RAW', FMTDAT='(8E13.5)'
 TRAMP=1., VOLUME=1. $END
  3.10165E+05  4.99335E+02  3.37524E+05  2.50584E+05  8.47837E+04  3.37733E+05 -1.32599E+05  2.50808E+05
 -1.90558E+05  8.33465E+04 -1.11944E+05 -3.26554E+04  5.36143E+02 -5.05262E+04  5.37906E+04 -3.23416E+01
  3.55614E+04  5.30453E+04 -1.66206E+04  7.57081E+04 -6.07745E+04  6.34465E+04 -8.41082E+04  3.20726E+04
 -8.12377E+04 -1.13921E+04 -5.71453E+04 -5.14859E+04 -1.51014E+04 -6.98359E+04  2.75893E+04 -4.58893E+04
  4.03750E+04  3.77190E+03  1.60191E+04  4.77763E+04 -3.40623E+04  4.75322E+04 -6.69235E+04 -3.86492E+02
 -5.33018E+04 -5.69602E+04 -6.90449E+03 -7.71573E+04  3.40083E+04 -5.53214E+04  4.76822E+04 -1.71217E+04
  4.35815E+04  1.13190E+04  3.18707E+04  2.53687E+04  1.61300E+04  2.94250E+04 -5.41470E+03  2.72470E+04
 -2.18853E+04  1.22460E+04 -1.82935E+04 -5.03465E+03  5.67850E+03 -7.65606E+03  2.24640E+04  1.26259E+04
  7.54584E+03  3.51952E+04 -3.21992E+04  3.56996E+04 -6.33406E+04  2.23694E+03 -5.69928E+04 -4.29148E+04
 -1.26672E+04 -6.32329E+04  3.96783E+04 -4.54797E+04  5.83459E+04 -2.31762E+03  3.43155E+04  3.25428E+04
 -6.18483E+03  3.63753E+04 -3.01053E+04  1.59404E+04 -3.03469E+04 -4.34066E+03 -1.69384E+04 -1.07512E+04
 -8.57342E+03 -1.30601E+04 -1.15539E+03 -1.84977E+04  7.50757E+03 -2.30066E+04  1.54659E+04 -1.33006E+04
  1.13400E+04  5.38329E+03 -8.21144E+03  1.30260E+04 -2.15115E+04 -4.38751E+03 -8.35726E+03 -3.39775E+04
  2.31105E+04 -4.39279E+04  4.83563E+04 -1.99888E+04  4.52619E+04  1.94417E+04  1.56371E+04  4.42079E+04
 -1.59424E+04  3.31381E+04 -2.52610E+04  1.80550E+03 -9.73831E+03 -2.81277E+04  2.12553E+04 -3.36354E+04
  4.12351E+04 -8.98461E+03  3.58633E+04  2.40183E+04  1.79434E+04  4.67288E+04 -7.78380E+03  5.01922E+04
 -3.17372E+04  3.36932E+04 -4.24194E+04  9.58369E+03 -4.27690E+04 -1.63156E+04 -2.35454E+04 -3.83377E+04
  7.50487E+03 -3.81236E+04  3.15100E+04 -1.50792E+04  2.94743E+04  1.11659E+04  4.11864E+03  1.90471E+04
 -1.35471E+04  8.52890E+03 -1.03675E+04 -7.52969E+03  6.10305E+03 -1.07177E+04  1.78127E+04  5.95094E+03
  1.38751E+04  2.24717E+04 -6.19989E+03  2.52537E+04 -2.22584E+04  1.18093E+04 -2.81497E+04 -4.86432E+03
 -2.08739E+04 -1.77902E+04 -8.29620E+03 -2.10404E+04  3.97007E+03 -1.97110E+04  1.59701E+04 -1.81126E+04
  2.62473E+04 -1.26341E+04  3.27070E+04  2.73212E+03  2.41982E+04  1.98312E+04  4.23561E+03  3.66570E+04
 -1.79305E+04  3.06690E+04 -2.80731E+04  1.05763E+04 -2.11856E+04 -1.03524E+04 -4.38187E+03 -1.35134E+04
  1.80307E+03 -2.76009E+03 -4.84736E+03  6.54255E+03 -1.62166E+04  5.27525E+03 -1.62629E+04 -7.25373E+03
 -9.97770E+03 -1.92515E+04  5.28403E+03 -2.29248E+04  1.56495E+04 -1.65665E+04  1.82351E+04 -1.48540E+03
  1.14092E+04  1.30773E+04 -1.01896E+03  1.92839E+04 -1.30770E+04  1.08491E+04 -1.91156E+04 -3.88844E+03
 -1.42999E+04 -1.74347E+04 -2.08208E+03 -2.28919E+04  1.05623E+04 -1.88540E+04  1.95530E+04 -9.38398E+03
  1.77261E+04  1.87742E+02  1.32188E+04  4.29543E+03  6.87484E+03  6.75677E+02  9.55685E+03 -1.84343E+03
  1.75400E+04  2.54912E+03  1.92803E+04  1.53463E+04  1.26811E+04  3.03088E+04 -3.15510E+03  3.45757E+04
 -1.98385E+04  2.76074E+04 -3.21741E+04  1.40307E+04 -3.38889E+04 -2.49274E+03 -2.81387E+04 -1.95385E+04
 -1.22012E+04 -2.77514E+04  9.65223E+03 -2.51158E+04  2.15142E+04 -1.28885E+04  1.98965E+04  5.29385E+03
  7.20059E+03  1.46763E+04 -9.08268E+03  1.27845E+04 -1.58460E+04  2.61872E+03 -1.22999E+04 -1.01287E+04
  2.04038E+02 -1.55563E+04  8.14574E+03 -1.15590E+04  1.02490E+04 -1.16583E+03  2.07464E+03  6.61823E+03
 -6.97842E+03  2.54464E+03 -6.25674E+03 -5.59805E+03 -1.83827E+02 -1.38027E+04  9.87862E+03 -1.44523E+04
  1.68924E+04 -7.68422E+03  1.82256E+04  3.02808E+03  1.58473E+04  1.31856E+04  7.35710E+03  2.04605E+04
 -3.42221E+03  2.24279E+04 -1.42614E+04  1.38036E+04 -1.60564E+04  3.31597E+03 -1.13923E+04 -3.45082E+03
 -5.43209E+03 -4.77571E+03 -7.61601E+02  1.22901E+03 -2.28194E+03  2.63913E+03 -5.17622E+03  4.53784E+03
 -1.05855E+04 -9.03731E+02 -1.15975E+04 -9.32696E+03 -4.48249E+03 -1.43308E+04  4.74074E+03 -1.17237E+04
  9.23821E+03 -4.97875E+03  7.09916E+03  2.99935E+03  3.03676E+02  4.31791E+03 -5.18015E+03 -1.66002E+02
 -5.29898E+03 -7.22723E+03 -9.83658E+02 -1.08711E+04  5.79891E+03 -1.14226E+04  1.42750E+04 -5.94363E+03
  1.64788E+04  1.08257E+03  1.20398E+04  9.64518E+03  2.39369E+03  1.28819E+04 -7.02721E+03  1.13319E+04
 -9.07175E+03  3.62150E+03 -5.00199E+03 -2.14952E+03  1.41673E+03 -3.12966E+03  6.01065E+03 -1.05397E+03
  5.12963E+03  4.97246E+03  1.34130E+03  8.82717E+03 -6.28929E+03  8.67676E+03 -1.09166E+04  2.18618E+03
 -6.90387E+03 -5.37070E+03  3.75833E+02 -9.63971E+03  5.80283E+03 -5.05867E+03  5.74375E+03  2.01129E+03
  1.07804E+03  6.14767E+03 -5.73175E+03  7.22559E+03 -8.19733E+03  3.36615E+03 -8.01715E+03 -2.85600E+03
 -5.14864E+03 -9.78708E+03  2.17303E+03 -1.13886E+04  9.81119E+03 -7.07059E+03  1.06638E+04  1.76816E+03
  6.38225E+03  8.51750E+03 -7.09643E+02  1.06614E+04 -7.66850E+03  6.14592E+03 -8.35392E+03 -6.88927E+02
 -7.40316E+03 -7.09834E+03 -1.66051E+03 -7.81757E+03  3.96252E+03 -6.51713E+03  4.77491E+03 -3.15363E+03
  3.27113E+03  6.87466E+02 -3.93586E+02  1.58250E+03 -2.46522E+02 -1.52844E+03  1.14525E+03 -4.01727E+03
  6.79690E+03 -2.68478E+03  9.44032E+03  1.16744E+03  9.54320E+03  5.98063E+03  7.22602E+03  1.25451E+04
 -2.87502E+03  1.44755E+04 -1.23757E+04  1.06962E+04 -1.60367E+04  2.16323E+03 -1.25394E+04 -5.11556E+03
 -6.52216E+03 -1.06634E+04 -1.77593E+02 -8.60111E+03  3.11418E+03 -4.46680E+03  2.78613E+03 -3.33629E+03
  2.13963E+03 -2.22296E+03  2.80394E+03 -2.87406E+03  4.14713E+03 -2.09632E+03  5.26294E+03 -1.92043E+02
  7.16912E+03  1.43409E+03  2.91617E+03  5.49705E+03 -1.61316E+03  5.81365E+03 -6.95491E+03  5.17195E+03
 -8.51579E+03 -9.72059E+02 -4.82372E+03 -5.90766E+03 -2.53014E+01 -8.92564E+03  5.16653E+03 -9.31362E+03
  9.35405E+03 -5.07000E+03  1.12475E+04  1.15228E+03  8.02524E+03  7.82466E+03  1.39493E+03  1.02515E+04
 -3.98883E+03  9.11429E+03 -5.98234E+03  3.05802E+03 -3.57039E+03 -1.28024E+03 -1.50614E+03 -9.41855E+02
 -6.41638E+02  3.11154E+02 -1.41191E+03  2.80086E+03 -3.88907E+03  1.51689E+03 -6.27936E+03 -8.28404E+02
 -3.50131E+03 -5.90085E+03  2.38480E+02 -8.33490E+03  4.83241E+03 -7.71308E+03  7.34616E+03 -2.24431E+03
  7.61645E+03  3.92328E+03  3.68203E+03  7.04654E+03 -1.49472E+03  8.30377E+03 -5.41141E+03  4.92286E+03
 -7.57379E+03  5.06782E+02 -5.73154E+03 -4.98353E+03 -5.80880E+02 -6.40699E+03  3.15276E+03 -4.86799E+03
  5.16643E+03 -1.65989E+03  3.35108E+03  1.19706E+03  8.42972E+02  2.29932E+03  9.66366E+02  9.62668E+02
  1.85434E+03  8.51322E+02  1.99953E+03  1.42331E+03  2.03689E+03  3.18746E+03  2.25188E+03  3.52782E+03
 -1.70332E+03  5.54807E+03 -5.02734E+03  6.63873E+03 -7.24853E+03  1.35802E+03 -8.38209E+03 -2.69798E+03
 -3.68931E+03 -7.31135E+03  1.18432E+03 -8.48847E+03  4.39995E+03 -5.31401E+03  6.38129E+03 -1.37831E+03
  4.83087E+03  3.06183E+03  1.26763E+03  4.72664E+03 -1.70840E+03  2.67131E+03 -2.83134E+03 -4.90012E+02
 -1.55976E+03 -3.38034E+03  1.84369E+03 -3.08242E+03  2.77363E+03 -1.53916E+03  2.98852E+03  6.44336E+02
  1.58897E+03  9.78620E+02  9.57264E+02  9.37445E+02 -3.05930E+02  1.06205E+03  1.45404E+03 -3.97528E+02
  6.67571E+02 -3.26566E+02  3.31674E+03  9.91918E+02  1.19156E+03  4.22115E+03 -6.45273E+02  5.49946E+03
 -3.29151E+03  3.14678E+03 -4.14829E+03  1.05873E+03 -4.51676E+03 -1.66753E+03 -1.37054E+03 -2.51967E+03
  7.61064E+02 -2.44924E+03  2.10392E+03 -1.39768E+03  1.50428E+03  1.69964E+03 -9.63348E+02  2.37389E+03
 -2.96543E+03  1.52570E+03 -3.27803E+03 -1.99283E+03 -1.64731E+03 -4.10715E+03  1.95848E+02 -3.50479E+03
  1.76623E+03 -2.07810E+03  2.41902E+03 -4.99931E+02  2.38955E+03  7.55326E+02  4.75570E+02  2.32298E+03
 -9.94321E+02  4.03591E+02 -1.87719E+03 -1.18770E+03  1.24613E+03 -2.79118E+03  3.42657E+03 -2.14860E+03
  3.74223E+03  2.82524E+02  4.85876E+03  2.52678E+03  1.62034E+03  4.21209E+03 -1.28722E+03  4.07432E+03
 -3.62602E+03  1.36727E+03 -3.63689E+03 -4.97387E+02 -1.77186E+03 -2.84349E+03  5.72181E+02 -2.10259E+03
  2.95023E+03 -1.13340E+03  1.49460E+03  1.49095E+03  8.78838E+02  2.66332E+03  9.86561E+01  2.02826E+03
 -9.22091E+02  1.67379E+03 -6.40115E+02  6.50471E+02 -5.25817E+02  7.17339E+02 -1.41664E+03  1.12733E+03
 -1.48474E+03  1.97621E+03 -3.21665E+03  1.32309E+03 -4.59089E+03  7.78968E+01 -4.73805E+03 -2.88009E+03
 -2.51700E+03 -5.60283E+03  1.27316E+03 -6.40313E+03  3.53446E+03 -5.26239E+03  6.28684E+03 -2.01710E+03
  5.82878E+03  7.83208E+02  3.71040E+03  3.90707E+03 -1.93586E+02  4.06293E+03 -1.47014E+03  2.99752E+03
 -2.25553E+03  1.22406E+03 -1.50175E+03 -8.35467E+02 -9.66391E+02  6.69597E+01 -7.20754E+02  1.85563E+01
 -1.39851E+03 -3.11117E+01 -1.12865E+03 -2.93189E+02 -1.26371E+02 -1.21011E+03 -2.56811E+02 -2.13283E+03
  2.39113E+03 -1.40808E+03  1.75188E+03 -2.63072E+01  2.78090E+03  2.55110E+03  2.90220E+02  3.85234E+03
 -2.15425E+03  4.82225E+03 -4.06141E+03  2.67641E+03 -4.89470E+03 -2.51355E+02 -3.47450E+03 -2.73581E+03
 -1.79407E+03 -3.68397E+03  1.07859E+03 -3.53905E+03  2.05769E+03 -1.66575E+03  2.38599E+03  5.26139E+02
  1.91489E+03  1.12063E+03  1.69958E+02  8.90300E+02 -8.77302E+02  2.64042E+01 -9.70068E+01 -6.74308E+02
  1.19246E+03 -3.74925E+02  1.57219E+03  6.50843E+02  1.08250E+03  1.61410E+03  4.33121E+02  1.87931E+03
 -1.75631E+03  1.92430E+03 -2.37041E+03  5.54635E+02 -2.17350E+03 -1.68573E+03 -2.92266E+01 -3.26269E+03
  1.66752E+03 -2.36364E+03  2.23572E+03 -7.16919E+02  2.66371E+03  3.52503E+02  1.36830E+03  2.09370E+03
  4.57227E+02  2.06627E+03 -9.83205E+02  1.59984E+03 -1.67128E+03  1.29608E+03 -1.42546E+03  8.38244E+01
 -4.08280E+02 -9.47823E+01 -9.13153E+02  2.11499E+02 -1.62132E+03  4.40042E+02 -1.81717E+03 -3.44668E+02
 -1.93550E+03 -6.16005E+02 -3.90806E+02 -2.45899E+03  1.46114E+03 -2.93891E+03  1.96499E+03 -9.18517E+02
  2.47764E+03  4.80059E+02  7.04701E+02  1.50638E+03 -2.40121E+02  2.63056E+03 -1.54068E+03  1.84402E+03
