 $NMID ID='MM_0lb_SNR800_16hz_g50_73.RAW', FMTDAT='(8E13.5)'
 TRAMP=1., VOLUME=1. $END
  3.09974E+05  2.81268E+02  3.37557E+05  2.50601E+05  8.45053E+04  3.37822E+05 -1.32549E+05  2.50950E+05
 -1.90236E+05  8.27222E+04 -1.11593E+05 -3.30110E+04  1.09445E+03 -5.04662E+04  5.37560E+04 -6.30277E+01
  3.52586E+04  5.28054E+04 -1.68948E+04  7.51947E+04 -6.05200E+04  6.30600E+04 -8.35705E+04  3.14849E+04
 -8.05650E+04 -1.13155E+04 -5.65680E+04 -5.10127E+04 -1.53714E+04 -6.92121E+04  2.73715E+04 -4.56370E+04
  3.97980E+04  3.94090E+03  1.59571E+04  4.76605E+04 -3.40216E+04  4.66107E+04 -6.62254E+04 -1.99603E+02
 -5.29522E+04 -5.69725E+04 -6.61348E+03 -7.62757E+04  3.37147E+04 -5.47881E+04  4.70563E+04 -1.73834E+04
  4.28934E+04  1.11432E+04  3.11221E+04  2.52329E+04  1.58578E+04  2.90253E+04 -5.30070E+03  2.68797E+04
 -2.18794E+04  1.25398E+04 -1.87687E+04 -4.74379E+03  5.14143E+03 -7.54633E+03  2.17791E+04  1.15808E+04
  7.43778E+03  3.45762E+04 -3.16545E+04  3.47676E+04 -6.25900E+04  2.10513E+03 -5.64951E+04 -4.23146E+04
 -1.22749E+04 -6.23208E+04  3.92993E+04 -4.45243E+04  5.71487E+04 -2.21061E+03  3.34885E+04  3.17922E+04
 -6.23046E+03  3.48177E+04 -2.94085E+04  1.49314E+04 -2.96994E+04 -4.79181E+03 -1.59056E+04 -1.05200E+04
 -7.84834E+03 -1.24341E+04 -6.48553E+02 -1.74878E+04  7.48811E+03 -2.26551E+04  1.54346E+04 -1.35580E+04
  1.16684E+04  5.05527E+03 -7.22300E+03  1.28888E+04 -2.04012E+04 -3.82498E+03 -8.39246E+03 -3.25568E+04
  2.20597E+04 -4.25820E+04  4.68510E+04 -1.93379E+04  4.38004E+04  1.90238E+04  1.45771E+04  4.34245E+04
 -1.57625E+04  3.24157E+04 -2.45559E+04  1.30278E+03 -9.10210E+03 -2.73434E+04  2.08428E+04 -3.30228E+04
  3.99210E+04 -8.49317E+03  3.42173E+04  2.32397E+04  1.68653E+04  4.47630E+04 -7.99155E+03  4.83914E+04
 -3.06483E+04  3.21410E+04 -4.01903E+04  9.02194E+03 -4.09637E+04 -1.60647E+04 -2.28425E+04 -3.66372E+04
  7.12730E+03 -3.63859E+04  3.03814E+04 -1.41944E+04  2.84777E+04  1.07710E+04  3.65562E+03  1.86783E+04
 -1.32253E+04  8.01262E+03 -9.99135E+03 -7.34646E+03  5.93847E+03 -1.02809E+04  1.77031E+04  6.15793E+03
  1.31687E+04  2.20351E+04 -6.64006E+03  2.44246E+04 -2.20963E+04  1.08057E+04 -2.68423E+04 -5.39605E+03
 -1.89198E+04 -1.68668E+04 -7.26599E+03 -1.90043E+04  3.78063E+03 -1.80762E+04  1.43481E+04 -1.67987E+04
  2.40272E+04 -1.25183E+04  3.09738E+04  2.17702E+03  2.25936E+04  1.86117E+04  4.16892E+03  3.49620E+04
 -1.70066E+04  2.90788E+04 -2.71877E+04  1.01004E+04 -2.02786E+04 -1.05818E+04 -4.07675E+03 -1.38204E+04
  2.49676E+03 -3.51082E+03 -3.81981E+03  6.06413E+03 -1.48586E+04  5.28508E+03 -1.52723E+04 -6.17844E+03
 -9.41930E+03 -1.76032E+04  4.92636E+03 -2.15409E+04  1.41843E+04 -1.54877E+04  1.69102E+04 -1.51282E+03
  1.04207E+04  1.25268E+04 -8.86361E+02  1.73218E+04 -1.19608E+04  1.00039E+04 -1.75984E+04 -3.58451E+03
 -1.30145E+04 -1.58893E+04 -1.66616E+03 -2.12419E+04  9.75319E+03 -1.73724E+04  1.79282E+04 -8.64520E+03
  1.63642E+04  4.15440E+00  1.16854E+04  4.03634E+03  5.96740E+03  3.96347E+02  8.90130E+03 -1.49433E+03
  1.60886E+04  2.77036E+03  1.74175E+04  1.40661E+04  1.10624E+04  2.79666E+04 -3.00379E+03  3.12095E+04
 -1.82792E+04  2.43907E+04 -2.88956E+04  1.21355E+04 -2.98087E+04 -2.13624E+03 -2.51196E+04 -1.71812E+04
 -1.13125E+04 -2.45167E+04  8.50827E+03 -2.24529E+04  1.90839E+04 -1.19339E+04  1.76304E+04  4.66799E+03
  6.81713E+03  1.31105E+04 -7.97194E+03  1.17341E+04 -1.48963E+04  2.55892E+03 -1.14097E+04 -9.21606E+03
 -1.56138E+02 -1.42100E+04  6.98257E+03 -1.08406E+04  9.03458E+03 -1.25891E+03  2.19664E+03  5.95433E+03
 -6.22174E+03  1.86361E+03 -5.15742E+03 -5.22855E+03  4.80746E+01 -1.23951E+04  8.65226E+03 -1.22326E+04
  1.47504E+04 -6.14813E+03  1.50863E+04  2.90421E+03  1.34424E+04  1.15624E+04  6.18145E+03  1.75121E+04
 -2.53185E+03  1.95039E+04 -1.22350E+04  1.24862E+04 -1.37229E+04  2.98444E+03 -1.01766E+04 -3.10718E+03
 -5.55199E+03 -3.94138E+03 -8.77485E+02  1.28347E+03 -2.25565E+03  2.06669E+03 -4.63035E+03  4.41301E+03
 -9.59097E+03 -5.32535E+02 -1.00575E+04 -8.26748E+03 -4.22814E+03 -1.32374E+04  4.07896E+03 -9.97186E+03
  8.35538E+03 -4.45257E+03  5.88250E+03  2.74532E+03  5.05861E+02  4.06145E+03 -4.52811E+03  1.22849E+02
 -4.39189E+03 -6.38576E+03 -1.00560E+03 -9.22673E+03  4.90052E+03 -9.96159E+03  1.21145E+04 -5.20177E+03
  1.43858E+04  8.81470E+02  1.06925E+04  7.77566E+03  2.01116E+03  1.10271E+04 -6.00457E+03  9.78097E+03
 -8.21023E+03  3.17414E+03 -4.40173E+03 -1.70072E+03  1.30149E+03 -2.34585E+03  5.74644E+03 -1.06142E+03
  5.02083E+03  3.84801E+03  1.23509E+03  7.93393E+03 -5.65375E+03  7.86898E+03 -9.24866E+03  1.68997E+03
 -6.08615E+03 -4.56794E+03  2.61019E+02 -8.10291E+03  4.98316E+03 -4.07695E+03  4.84235E+03  1.54593E+03
  7.19513E+02  4.85211E+03 -5.04142E+03  6.46499E+03 -6.72978E+03  3.02839E+03 -6.46620E+03 -2.13129E+03
 -3.69474E+03 -7.87099E+03  1.80838E+03 -9.25769E+03  7.97606E+03 -5.94338E+03  8.68257E+03  1.33000E+03
  5.77927E+03  6.95100E+03 -1.36468E+02  8.92499E+03 -6.21604E+03  4.93717E+03 -6.65723E+03 -6.97779E+02
 -6.57356E+03 -6.25670E+03 -1.39490E+03 -6.33308E+03  3.27008E+03 -5.38256E+03  3.83419E+03 -2.79383E+03
  3.03822E+03  7.78834E+02 -6.96854E+01  1.25753E+03  4.45542E+02 -1.01473E+03  5.92614E+02 -3.15045E+03
  5.42362E+03 -1.36613E+03  7.32831E+03  8.93504E+02  7.20209E+03  4.44916E+03  6.38201E+03  9.51479E+03
 -1.81907E+03  1.14008E+04 -1.00944E+04  8.86478E+03 -1.28744E+04  1.42138E+03 -1.05806E+04 -3.77930E+03
 -5.43519E+03 -8.60487E+03 -2.79768E+02 -6.65214E+03  2.65416E+03 -3.64940E+03  2.59711E+03 -2.80332E+03
  1.51818E+03 -1.66561E+03  2.61446E+03 -2.62306E+03  3.89266E+03 -1.76430E+03  4.38909E+03 -9.45415E+01
  5.37959E+03  1.91371E+03  2.01736E+03  4.50739E+03 -1.69227E+03  4.41337E+03 -5.72071E+03  3.68887E+03
 -6.41763E+03 -1.34731E+03 -3.35276E+03 -4.60637E+03  6.33974E+02 -7.12742E+03  4.34092E+03 -7.26729E+03
  7.18967E+03 -4.04587E+03  9.41168E+03  5.06794E+02  6.27291E+03  6.14678E+03  1.38949E+03  7.79884E+03
 -3.24289E+03  7.49511E+03 -4.83057E+03  2.51052E+03 -2.92382E+03 -9.67808E+02 -9.35962E+02 -9.39460E+02
 -7.22956E+02  2.10309E+02 -1.27978E+03  1.94545E+03 -3.21559E+03  1.12603E+03 -5.06503E+03 -6.61090E+02
 -2.62903E+03 -5.15654E+03  6.49567E+02 -6.38383E+03  4.03817E+03 -5.98678E+03  5.48607E+03 -1.62646E+03
  6.08255E+03  3.31647E+03  2.64627E+03  5.11433E+03 -1.00606E+03  6.55207E+03 -4.06135E+03  3.94860E+03
 -5.58287E+03  4.27758E+02 -4.65810E+03 -3.60924E+03 -6.56457E+02 -4.69748E+03  2.28441E+03 -3.78215E+03
  3.63388E+03 -1.79536E+03  2.26127E+03  7.95242E+02  9.93865E+02  2.41008E+03  9.43122E+02  7.73509E+02
  1.66284E+03  7.12661E+02  1.49423E+03  1.04984E+03  1.54206E+03  2.64707E+03  1.94886E+03  2.56374E+03
 -1.59423E+03  4.11108E+03 -3.90324E+03  4.99118E+03 -5.21561E+03  1.51324E+03 -6.18854E+03 -1.37250E+03
 -2.53401E+03 -5.47836E+03  8.91733E+02 -6.54623E+03  2.84716E+03 -3.82249E+03  4.62059E+03 -1.00960E+03
  3.70431E+03  2.22079E+03  3.08401E+02  3.43722E+03 -1.22521E+03  2.21478E+03 -2.01087E+03 -4.20696E+02
 -8.29449E+02 -2.70360E+03  1.66964E+03 -2.32159E+03  2.05375E+03 -1.15542E+03  2.04718E+03  6.46632E+02
  1.08451E+03  7.84132E+02  9.37863E+02  1.97254E+02 -3.82661E+02  8.61781E+02  1.55535E+03 -2.30036E+02
  3.10543E+02 -3.38460E+02  2.50312E+03  7.46837E+02  9.02651E+02  3.18061E+03 -6.57478E+02  4.21832E+03
 -2.25734E+03  2.32287E+03 -3.36734E+03  5.00140E+02 -3.07120E+03 -1.08186E+03 -9.20595E+02 -1.72179E+03
  4.78252E+02 -1.99156E+03  1.30641E+03 -8.25029E+02  1.10787E+03  1.50813E+03 -9.98779E+02  1.52864E+03
 -2.39498E+03  1.07217E+03 -2.10520E+03 -1.47315E+03 -9.30107E+02 -2.99214E+03  1.68401E+02 -2.36880E+03
  1.11339E+03 -1.36180E+03  1.64024E+03  1.79462E+02  1.65980E+03  2.79748E+02  5.56488E+02  1.62048E+03
 -7.56160E+02  1.43282E+02 -1.31125E+03 -6.18927E+02  8.76009E+02 -1.49568E+03  2.56687E+03 -1.55404E+03
  2.52473E+03  2.78988E+02  4.15679E+03  1.31399E+03  1.45609E+03  2.67851E+03 -8.86478E+02  2.80558E+03
 -2.12910E+03  4.73148E+02 -2.52141E+03 -4.51136E+02 -1.54163E+03 -1.91801E+03  6.43708E+02 -1.67453E+03
  2.00006E+03 -8.71261E+02  1.47798E+03  9.14096E+02  6.18495E+02  1.88634E+03  1.79859E+02  1.50318E+03
 -7.61226E+02  1.37188E+03 -4.88862E+02  1.43845E+02 -3.01394E+02  3.91971E+02 -7.04672E+02  8.01540E+02
 -9.19577E+02  1.41092E+03 -2.56061E+03  8.41121E+02 -2.58624E+03  2.43701E+02 -3.40409E+03 -1.97000E+03
 -1.63532E+03 -3.68004E+03  7.47092E+02 -4.53911E+03  2.31522E+03 -3.71639E+03  4.29908E+03 -1.46531E+03
  3.98062E+03  3.14885E+02  2.01902E+03  2.69271E+03 -4.08972E+02  2.51950E+03 -1.18932E+03  1.98392E+03
 -1.60878E+03  1.03632E+03 -6.11596E+02 -4.28190E+02 -5.08589E+02 -9.99993E+01 -6.91838E+02  1.52732E+02
 -1.26529E+03  4.57400E+01 -1.06511E+03  8.13941E+01  2.36249E+02 -7.46530E+02 -4.91246E+02 -1.42324E+03
  1.77235E+03 -9.85189E+02  1.20834E+03  2.37452E+02  1.98509E+03  1.33824E+03 -3.36242E+02  2.66301E+03
 -1.37582E+03  3.54825E+03 -2.77913E+03  1.72863E+03 -3.02523E+03 -2.68836E+02 -2.22482E+03 -2.18202E+03
 -1.01424E+03 -2.41866E+03  6.45679E+02 -1.97728E+03  1.46682E+03 -1.13853E+03  1.42390E+03  2.08542E+02
  9.74866E+02  6.96184E+02 -1.95132E+02  1.08355E+03 -7.09146E+02 -1.58446E+02 -8.48921E+01 -6.07938E+02
  9.50973E+02 -3.77476E+01  7.19615E+02  5.00716E+02  4.45793E+02  9.29903E+02  3.20516E+02  1.04324E+03
 -7.13200E+02  9.89135E+02 -1.37623E+03  1.34885E+02 -1.44900E+03 -9.61508E+02  4.21921E+01 -1.77667E+03
  1.03647E+03 -1.46835E+03  1.60129E+03 -3.15704E+02  1.60362E+03 -3.07124E+02  7.32162E+02  1.63982E+03
  7.68127E+02  1.22920E+03 -5.18518E+02  1.18383E+03 -1.22126E+03  9.37088E+02 -8.99887E+02  1.45881E+02
 -2.41315E+02  7.96306E+01 -5.30673E+02  2.77453E+02 -9.83723E+02  2.95523E+02 -1.46932E+03 -3.70050E+02
 -1.66491E+03 -7.47126E+01 -2.05195E+02 -1.73980E+03  8.71996E+02 -2.16938E+03  1.29265E+03 -4.93323E+02
  1.43045E+03  2.04699E+02  3.72924E+02  6.32301E+02 -1.92203E+02  1.53763E+03 -6.85683E+02  1.32293E+03
