 $NMID ID='MM_0lb_SNR800_20hz_g45_59.RAW', FMTDAT='(8E13.5)'
 TRAMP=1., VOLUME=1. $END
  3.09846E+05  4.75055E+02  3.37161E+05  2.50341E+05  8.42058E+04  3.37215E+05 -1.32470E+05  2.49823E+05
 -1.89612E+05  8.23706E+04 -1.10725E+05 -3.30648E+04  1.77059E+03 -5.03624E+04  5.37869E+04  3.98028E+02
  3.51355E+04  5.29398E+04 -1.68684E+04  7.49096E+04 -6.01461E+04  6.24532E+04 -8.25613E+04  3.14714E+04
 -7.93614E+04 -1.10572E+04 -5.59123E+04 -4.97911E+04 -1.49676E+04 -6.78182E+04  2.61301E+04 -4.46260E+04
  3.88082E+04  3.97822E+03  1.52738E+04  4.69571E+04 -3.37060E+04  4.57931E+04 -6.49318E+04 -7.66948E+02
 -5.16746E+04 -5.55755E+04 -5.97739E+03 -7.44911E+04  3.25964E+04 -5.23898E+04  4.54896E+04 -1.60375E+04
  4.07138E+04  1.13399E+04  3.04603E+04  2.43423E+04  1.60106E+04  2.78500E+04 -4.77911E+03  2.64590E+04
 -2.15989E+04  1.28398E+04 -1.91971E+04 -3.98571E+03  3.97460E+03 -7.21691E+03  2.08738E+04  1.04674E+04
  7.31494E+03  3.26249E+04 -2.98624E+04  3.34336E+04 -6.01729E+04  2.16637E+03 -5.46930E+04 -4.03971E+04
 -1.26164E+04 -6.00368E+04  3.75513E+04 -4.25498E+04  5.43104E+04 -1.87167E+03  3.10486E+04  2.99236E+04
 -6.84554E+03  3.20433E+04 -2.79477E+04  1.20742E+04 -2.66458E+04 -5.90540E+03 -1.33198E+04 -9.55107E+03
 -6.95747E+03 -1.06822E+04 -8.42176E+02 -1.60882E+04  6.24462E+03 -2.24386E+04  1.48800E+04 -1.42027E+04
  1.24734E+04  4.17083E+03 -5.66939E+03  1.31423E+04 -1.85217E+04 -1.76432E+03 -7.97423E+03 -2.93873E+04
  2.03044E+04 -3.94590E+04  4.36200E+04 -1.81637E+04  4.08228E+04  1.76570E+04  1.39074E+04  4.07246E+04
 -1.52213E+04  3.00665E+04 -2.27616E+04  6.30107E+02 -7.82986E+03 -2.57033E+04  2.01454E+04 -3.02764E+04
  3.67689E+04 -6.53451E+03  3.00711E+04  2.24441E+04  1.44153E+04  4.11631E+04 -7.81754E+03  4.32244E+04
 -2.75777E+04  2.86380E+04 -3.59173E+04  7.85269E+03 -3.69361E+04 -1.44888E+04 -2.04688E+04 -3.32993E+04
  6.74822E+03 -3.28416E+04  2.81796E+04 -1.19895E+04  2.60637E+04  1.09227E+04  2.59162E+03  1.70604E+04
 -1.27563E+04  6.79026E+03 -9.34522E+03 -7.74537E+03  5.97649E+03 -9.70011E+03  1.69958E+04  6.43628E+03
  1.19959E+04  2.14401E+04 -7.09104E+03  2.28959E+04 -2.10415E+04  8.33632E+03 -2.40382E+04 -6.76770E+03
 -1.56625E+04 -1.59699E+04 -4.83600E+03 -1.56438E+04  3.54187E+03 -1.28164E+04  1.15488E+04 -1.31445E+04
  1.97595E+04 -1.12093E+04  2.65506E+04  4.43650E+02  2.09149E+04  1.52004E+04  3.92353E+03  3.12116E+04
 -1.55089E+04  2.65622E+04 -2.52125E+04  9.18796E+03 -1.90476E+04 -1.04242E+04 -3.52887E+03 -1.42153E+04
  2.91233E+03 -4.71475E+03 -1.83306E+03  5.11893E+03 -1.21032E+04  5.52543E+03 -1.24068E+04 -4.27608E+03
 -8.24701E+03 -1.42338E+04  4.29762E+03 -1.81871E+04  1.17144E+04 -1.32283E+04  1.35627E+04 -1.41964E+03
  8.34699E+03  9.93787E+03 -6.20605E+02  1.47714E+04 -9.40326E+03  8.28950E+03 -1.40873E+04 -3.49473E+03
 -1.05681E+04 -1.33690E+04 -1.39551E+03 -1.77418E+04  8.03969E+03 -1.38897E+04  1.53451E+04 -6.61118E+03
  1.33651E+04  9.14170E+02  9.68917E+03  3.44099E+03  4.54541E+03  3.50792E+02  7.07982E+03 -1.07477E+03
  1.24962E+04  2.56474E+03  1.32754E+04  1.22333E+04  8.15747E+03  2.27373E+04 -2.93864E+03  2.41621E+04
 -1.45804E+04  1.77646E+04 -2.17739E+04  8.09470E+03 -2.22129E+04 -1.70100E+03 -1.93465E+04 -1.27551E+04
 -9.50146E+03 -1.83812E+04  5.71710E+03 -1.72452E+04  1.51009E+04 -1.01910E+04  1.46427E+04  3.21210E+03
  5.88589E+03  1.03931E+04 -6.55816E+03  9.69587E+03 -1.26134E+04  2.40731E+03 -9.86285E+03 -7.54906E+03
  2.83297E+01 -1.14573E+04  5.49018E+03 -8.88414E+03  6.96659E+03 -1.34515E+03  9.52558E+02  4.48154E+03
 -5.21482E+03  9.27790E+02 -2.86999E+03 -4.05183E+03  1.03596E+03 -8.96339E+03  7.06948E+03 -8.72303E+03
  1.08895E+04 -4.06782E+03  1.02215E+04  2.67783E+03  8.90529E+03  8.17354E+03  4.26513E+03  1.19609E+04
 -1.18843E+03  1.40073E+04 -8.30305E+03  9.17111E+03 -9.74806E+03  2.81592E+03 -7.83520E+03 -1.50252E+03
 -4.49810E+03 -2.56890E+03 -6.55170E+02  1.34049E+03 -1.64564E+03  1.86108E+03 -3.22140E+03  3.43739E+03
 -7.23056E+03 -3.87628E+02 -8.14263E+03 -6.87562E+03 -3.21164E+03 -1.03815E+04  3.15147E+03 -7.67609E+03
  6.25788E+03 -3.31230E+03  4.65739E+03  1.74863E+03  6.57068E+02  2.85166E+03 -2.72056E+03 -2.67572E+02
 -2.90232E+03 -4.47296E+03 -9.23800E+02 -6.10027E+03  3.37923E+03 -7.13242E+03  8.61307E+03 -3.58407E+03
  1.02664E+04  1.99300E+02  7.83089E+03  5.14103E+03  1.55788E+03  7.57269E+03 -4.80211E+03  7.40584E+03
 -6.17337E+03  2.69733E+03 -3.39231E+03 -9.48487E+02  1.34559E+03 -1.52864E+03  4.48221E+03 -9.73483E+02
  3.85634E+03  2.91465E+03  9.35012E+02  5.57374E+03 -3.96277E+03  5.83598E+03 -6.85296E+03  1.76588E+03
 -4.20178E+03 -3.05641E+03  3.92442E+02 -5.84487E+03  3.25466E+03 -3.16722E+03  2.92862E+03  8.54233E+02
  2.30194E+01  2.72182E+03 -3.73653E+03  3.94028E+03 -3.94843E+03  2.06871E+03 -3.31075E+03 -8.72505E+02
 -2.27864E+03 -4.89196E+03  9.51076E+02 -5.76908E+03  4.96581E+03 -4.14762E+03  5.42895E+03  7.85675E+02
  4.04155E+03  4.37670E+03  2.86040E+02  6.28331E+03 -4.32180E+03  3.61703E+03 -4.63555E+03 -5.62253E+02
 -4.96883E+03 -4.15312E+03 -1.65738E+03 -4.48339E+03  2.18147E+03 -4.15693E+03  2.44159E+03 -2.62732E+03
  2.64403E+03  1.89607E+02  3.65729E+02  1.22995E+03  4.89294E+02 -4.02646E+01 -1.13295E+02 -1.27700E+03
  3.18243E+03 -2.74293E+02  4.22457E+03  7.15390E+02  4.55340E+03  2.27199E+03  4.97050E+03  5.70891E+03
 -6.94710E+02  6.97849E+03 -6.39905E+03  5.72211E+03 -8.18366E+03  1.03020E+03 -6.80446E+03 -2.06345E+03
 -3.89462E+03 -5.42891E+03 -3.60508E+02 -4.49994E+03  1.80211E+03 -1.47768E+03  1.41756E+03 -1.72251E+03
  1.00148E+03 -1.18598E+03  2.11761E+03 -2.15436E+03  3.29641E+03 -1.37528E+03  3.39765E+03  7.98109E+02
  3.88720E+03  1.19046E+03  6.51468E+02  2.73042E+03 -1.42465E+03  1.94886E+03 -3.87462E+03  1.83072E+03
 -4.16243E+03 -8.50663E+02 -1.23888E+03 -2.67990E+03  8.22108E+02 -4.05644E+03  3.04554E+03 -4.41639E+03
  4.45954E+03 -2.72765E+03  5.72691E+03 -2.75917E+02  4.09346E+03  3.44448E+03  1.12068E+03  4.80787E+03
 -1.66355E+03  5.06897E+03 -2.56373E+03  1.65549E+03 -1.41541E+03 -7.49388E+02 -2.95893E+02 -4.76602E+02
 -5.24923E+02  5.13664E+02 -6.79993E+02  1.88496E+03 -2.04024E+03  9.68106E+02 -3.44340E+03 -2.14241E+02
 -9.62147E+02 -3.59013E+03  7.19952E+02 -3.84086E+03  1.94210E+03 -3.66915E+03  2.74855E+03 -8.84648E+02
  3.21986E+03  1.95753E+03  1.31407E+03  2.36641E+03 -5.17635E+02  3.45445E+03 -1.76895E+03  2.15317E+03
 -3.02553E+03  5.32374E+02 -2.70077E+03 -1.81001E+03 -1.58722E+02 -2.64312E+03  1.17430E+03 -1.89430E+03
  2.39258E+03 -1.10921E+03  1.28184E+03  4.73996E+02  3.55550E+02  1.44391E+03  6.64767E+02  3.36301E+02
  1.72042E+03  3.98248E+02  9.18132E+02  1.19657E+03  8.48784E+02  1.81914E+03  1.39410E+03  1.19210E+03
 -1.18180E+03  2.37908E+03 -1.75812E+03  3.49093E+03 -2.09590E+03  1.03997E+03 -3.50511E+03  1.25770E+01
 -1.18656E+03 -2.54898E+03  7.87215E+02 -3.90998E+03  1.12918E+03 -1.83046E+03  2.43642E+03 -8.76269E+02
  2.26641E+03  1.27544E+03  2.50573E+02  1.79187E+03 -6.13858E+02  8.75560E+02 -7.38359E+02 -1.13257E+02
 -3.97972E+02 -1.45403E+03  1.00082E+03 -1.12063E+03  1.31247E+03 -9.67803E+02  8.56627E+02  4.01076E+02
  5.84156E+02 -5.77924E+01  8.08084E+02 -7.62882E+02 -1.85984E+02  5.47744E+02  1.89748E+03 -2.76174E+02
 -2.46224E+02 -1.16324E+02  1.64399E+03  4.08683E+02 -1.03826E+02  2.22184E+03 -3.43418E+02  2.34387E+03
 -1.18756E+03  7.95093E+02 -1.44909E+03  1.37106E+02 -1.65253E+03 -3.24741E+02 -3.12607E+00 -6.70083E+02
  1.75060E+02 -9.14841E+02  8.09066E+02 -6.10770E+02  5.09960E+02  1.19936E+03 -7.45612E+02  9.75764E+02
 -1.01571E+03  6.38301E+02 -8.60769E+02 -8.95115E+02 -3.29069E+02 -1.35824E+03  9.93199E+01 -1.17080E+03
  4.78742E+02 -2.58005E+02  2.74345E+02  1.35673E+02  9.32127E+02 -3.55880E+02  4.49009E+02  8.21406E+02
 -2.50718E+02 -2.04696E+01 -5.71565E+02  6.94170E+01  6.23642E+02 -5.76453E+02  1.38739E+03 -6.66092E+02
  7.08357E+02  6.69351E+01  2.63567E+03  4.29906E+02  1.05909E+03  8.17166E+02 -2.08686E+02  1.33091E+03
 -8.53722E+02 -2.07765E+02 -9.20631E+02  9.21238E+00 -4.86985E+02 -1.06542E+03  3.18858E+02 -1.16155E+02
  1.16645E+03 -5.30537E+02  5.06242E+02  3.45359E+02  2.46819E+02  9.25778E+02  1.31728E+02  9.21185E+02
 -3.10318E+02  9.64497E+02 -6.20289E+02  2.34782E+02 -1.86330E+01  1.77515E+02 -6.07805E+02  5.89374E+02
 -4.94247E+02  1.17279E+03 -1.30476E+03  2.42025E+02 -1.06281E+03  1.09346E+02 -1.92899E+03 -6.20295E+02
 -6.28945E+02 -1.62765E+03  4.64450E+02 -2.18537E+03  5.49514E+02 -1.80961E+03  2.28087E+03 -6.61809E+02
  1.66592E+03 -4.13868E+02  9.28790E+02  1.17077E+03 -8.03571E+02  9.46694E+02 -6.48798E+02  8.86879E+02
 -8.31693E+02  6.31079E+02 -4.36526E+02 -2.21362E+02 -4.06521E+02  3.82579E+02 -4.39259E+02 -2.90381E+02
 -1.29184E+03 -1.54040E+02 -7.67009E+02  4.93508E+01  2.52557E+02 -4.48708E+02 -3.36545E+02 -9.51807E+02
  1.11854E+03 -6.64671E+02  8.27052E+01  1.55202E+02  7.24790E+02  9.70522E+02 -5.69326E+02  1.00560E+03
 -7.62942E+02  1.87769E+03 -1.12151E+03  1.13326E+03 -1.44548E+03 -3.17613E+02 -8.12753E+02 -9.53307E+02
 -8.71910E+02 -9.38121E+02 -8.57552E+01 -7.36352E+02  1.96630E+02 -3.88696E+02  2.63623E+02  3.20273E+02
  5.64701E+02  2.57801E+02 -3.82340E+01  1.20820E+02 -6.91812E+01  1.46763E+02 -2.03636E+02 -1.61948E+02
  3.74872E+02  2.02423E+02  2.24024E-01  5.82711E+02 -2.98222E+02 -4.85385E+01  5.41968E+02 -3.08967E+00
 -2.22128E+02  3.56241E+02 -7.17359E+01 -8.97615E+01 -5.33185E+02 -3.20314E+02 -3.97388E+01 -8.96741E+02
  8.19658E+01 -3.28783E+02  5.89929E+00  1.31024E+02  4.87684E+02 -5.54596E+02  7.27780E+01  4.73288E+02
  5.53626E+02  2.52850E+02 -4.19369E+01  5.22756E+02 -4.02152E+02  3.82420E+02 -1.65261E+02  2.47397E+02
 -3.85007E+01 -2.01481E+02 -9.79894E+01  1.44577E+02 -5.10740E+02  1.81929E+02 -4.17025E+02 -1.77873E+02
 -6.73852E+02  6.33672E+02 -4.29947E+02 -5.76654E+02  8.08444E+02 -1.45466E+03  3.69789E+02  1.31989E+01
  6.69568E+02  7.25807E+01 -2.47363E+02  2.38362E+01  2.21787E+02  3.74056E+02 -5.84352E+01  5.66176E+02
