 $NMID ID='MM_0lb_SNR800_12hz_g50_74.RAW', FMTDAT='(8E13.5)'
 TRAMP=1., VOLUME=1. $END
  3.09497E+05  4.40948E+02  3.37669E+05  2.50355E+05  8.50335E+04  3.38161E+05 -1.32438E+05  2.51212E+05
 -1.90602E+05  8.31487E+04 -1.12038E+05 -3.25802E+04  5.59879E+02 -5.05686E+04  5.35592E+04 -3.79614E+02
  3.52132E+04  5.30406E+04 -1.70254E+04  7.54570E+04 -6.07185E+04  6.40462E+04 -8.46593E+04  3.21484E+04
 -8.16759E+04 -1.16457E+04 -5.77128E+04 -5.15697E+04 -1.52092E+04 -7.02774E+04  2.78064E+04 -4.60999E+04
  4.10087E+04  3.97622E+03  1.63317E+04  4.82355E+04 -3.44415E+04  4.81418E+04 -6.74515E+04 -1.63443E+02
 -5.38584E+04 -5.68381E+04 -7.03011E+03 -7.80077E+04  3.43615E+04 -5.58567E+04  4.85738E+04 -1.74651E+04
  4.42506E+04  1.14486E+04  3.25460E+04  2.58361E+04  1.56583E+04  2.99155E+04 -5.39833E+03  2.73101E+04
 -2.21570E+04  1.22486E+04 -1.85249E+04 -5.05992E+03  6.22928E+03 -7.57025E+03  2.28594E+04  1.29669E+04
  6.80378E+03  3.62531E+04 -3.26286E+04  3.60343E+04 -6.40518E+04  2.11314E+03 -5.75904E+04 -4.34548E+04
 -1.26736E+04 -6.40416E+04  4.03898E+04 -4.60568E+04  5.94756E+04 -2.37832E+03  3.54922E+04  3.27630E+04
 -5.71701E+03  3.77396E+04 -3.10854E+04  1.69309E+04 -3.15053E+04 -4.26884E+03 -1.78650E+04 -1.12751E+04
 -8.54100E+03 -1.40393E+04 -5.81894E+02 -1.88889E+04  8.59931E+03 -2.33124E+04  1.57560E+04 -1.27755E+04
  1.07828E+04  5.78363E+03 -9.00611E+03  1.30366E+04 -2.21112E+04 -5.32604E+03 -8.44978E+03 -3.52716E+04
  2.39055E+04 -4.46036E+04  4.95850E+04 -2.00772E+04  4.65139E+04  1.95618E+04  1.66021E+04  4.55767E+04
 -1.61323E+04  3.43069E+04 -2.65221E+04  2.14161E+03 -1.04108E+04 -2.84422E+04  2.12101E+04 -3.49908E+04
  4.24177E+04 -9.79572E+03  3.76660E+04  2.43487E+04  1.92993E+04  4.84314E+04 -8.21598E+03  5.25356E+04
 -3.31744E+04  3.59421E+04 -4.40859E+04  1.02501E+04 -4.45182E+04 -1.73663E+04 -2.46696E+04 -3.96487E+04
  7.43390E+03 -3.94631E+04  3.25648E+04 -1.58321E+04  3.06610E+04  1.12617E+04  4.31366E+03  1.95988E+04
 -1.34387E+04  8.71179E+03 -1.04938E+04 -7.34297E+03  5.80349E+03 -1.10409E+04  1.83545E+04  5.87180E+03
  1.41732E+04  2.25296E+04 -5.83928E+03  2.55454E+04 -2.27505E+04  1.28533E+04 -2.93377E+04 -3.96673E+03
 -2.25984E+04 -1.80002E+04 -9.80735E+03 -2.23122E+04  4.18456E+03 -2.20539E+04  1.73777E+04 -2.03334E+04
  2.83376E+04 -1.31402E+04  3.51116E+04  3.61907E+03  2.49548E+04  2.16186E+04  4.77043E+03  3.80417E+04
 -1.87453E+04  3.20165E+04 -2.88971E+04  1.10346E+04 -2.15450E+04 -9.89143E+03 -4.85772E+03 -1.32837E+04
  1.35582E+03 -2.00651E+03 -6.17858E+03  7.41675E+03 -1.77373E+04  5.08935E+03 -1.75901E+04 -7.96626E+03
 -1.11179E+04 -2.07973E+04  5.65629E+03 -2.49630E+04  1.63848E+04 -1.76087E+04  1.98824E+04 -1.80799E+03
  1.26673E+04  1.45239E+04 -1.32952E+03  2.06629E+04 -1.47225E+04  1.16435E+04 -2.10618E+04 -4.25404E+03
 -1.50660E+04 -1.84781E+04 -1.82735E+03 -2.50636E+04  1.12043E+04 -2.02733E+04  2.04632E+04 -1.04562E+04
  1.93783E+04 -4.17018E+01  1.41261E+04  4.70859E+03  7.56544E+03  1.06033E+03  1.06110E+04 -1.71965E+03
  1.91926E+04  2.89427E+03  2.20570E+04  1.62711E+04  1.47112E+04  3.32348E+04 -2.82349E+03  3.82383E+04
 -2.19948E+04  3.11830E+04 -3.59365E+04  1.58940E+04 -3.74858E+04 -2.78677E+03 -3.11196E+04 -2.17773E+04
 -1.29673E+04 -3.16940E+04  1.06859E+04 -2.79076E+04  2.38065E+04 -1.39038E+04  2.12434E+04  6.37947E+03
  7.68320E+03  1.62842E+04 -9.62292E+03  1.36970E+04 -1.77154E+04  2.84856E+03 -1.38551E+04 -1.10868E+04
 -2.37172E+01 -1.67557E+04  8.58688E+03 -1.27047E+04  1.13669E+04 -1.21371E+03  2.87139E+03  7.70514E+03
 -7.46392E+03  2.98330E+03 -7.10066E+03 -6.18729E+03 -1.42433E+03 -1.53983E+04  1.03940E+04 -1.62544E+04
  1.86340E+04 -8.81966E+03  2.11749E+04  3.26904E+03  1.87611E+04  1.54214E+04  8.38525E+03  2.37991E+04
 -3.95315E+03  2.55914E+04 -1.64462E+04  1.57473E+04 -1.81654E+04  3.34470E+03 -1.29591E+04 -4.64787E+03
 -5.77030E+03 -5.77181E+03 -5.03363E+02  5.55513E+02 -3.01628E+03  2.94133E+03 -5.65226E+03  4.87109E+03
 -1.22270E+04 -5.32520E+02 -1.23477E+04 -1.02066E+04 -5.07336E+03 -1.68059E+04  5.69248E+03 -1.32615E+04
  1.07321E+04 -5.40564E+03  7.50595E+03  3.63849E+03 -3.83607E+01  5.30183E+03 -6.14172E+03 -1.71648E+02
 -5.88708E+03 -7.98389E+03 -1.15157E+03 -1.25159E+04  7.22580E+03 -1.32385E+04  1.63075E+04 -7.23176E+03
  1.87151E+04  1.96921E+03  1.42260E+04  1.09509E+04  2.41803E+03  1.54128E+04 -8.09918E+03  1.27291E+04
 -1.02842E+04  3.69667E+03 -5.70475E+03 -2.77131E+03  1.67246E+03 -3.41839E+03  6.94088E+03 -1.05300E+03
  6.23026E+03  5.40626E+03  1.00200E+03  1.00477E+04 -7.69413E+03  1.00756E+04 -1.29064E+04  2.43083E+03
 -8.47652E+03 -6.76659E+03  3.73522E+02 -1.08882E+04  6.96333E+03 -5.66740E+03  7.31933E+03  2.33532E+03
  1.32555E+03  7.87362E+03 -6.67699E+03  8.92316E+03 -1.00960E+04  4.06180E+03 -1.01600E+04 -3.55542E+03
 -6.29478E+03 -1.20752E+04  2.68007E+03 -1.37059E+04  1.21466E+04 -8.25365E+03  1.26776E+04  2.10326E+03
  7.93148E+03  1.02432E+04 -9.08131E+02  1.27332E+04 -9.31279E+03  6.79854E+03 -1.01881E+04 -1.03757E+03
 -8.55212E+03 -8.42172E+03 -1.53104E+03 -9.23286E+03  5.04062E+03 -7.43562E+03  5.80325E+03 -3.27960E+03
  4.13127E+03  1.37979E+03 -6.11589E+02  1.73011E+03 -3.00419E+02 -2.08226E+03  1.49693E+03 -5.19248E+03
  8.57020E+03 -3.46819E+03  1.18058E+04  1.42748E+03  1.14721E+04  8.00830E+03  8.23146E+03  1.57034E+04
 -3.38814E+03  1.77893E+04 -1.48786E+04  1.33577E+04 -1.96598E+04  2.46835E+03 -1.57442E+04 -6.25656E+03
 -7.88079E+03 -1.28095E+04 -3.42930E+02 -1.06913E+04  3.98014E+03 -5.68146E+03  3.89256E+03 -3.80964E+03
  2.93095E+03 -2.73652E+03  2.93520E+03 -3.26085E+03  5.06529E+03 -2.74672E+03  6.49226E+03 -4.06281E+02
  8.03387E+03  1.86219E+03  3.75753E+03  7.04911E+03 -1.67538E+03  7.65288E+03 -8.57525E+03  6.32259E+03
 -1.06133E+04 -1.33946E+03 -6.33625E+03 -6.79013E+03 -9.26584E+02 -1.11869E+04  6.66267E+03 -1.13871E+04
  1.17453E+04 -6.19232E+03  1.40560E+04  2.06768E+03  9.71391E+03  9.73971E+03  1.87665E+03  1.26899E+04
 -4.98433E+03  1.07971E+04 -7.60857E+03  3.77927E+03 -5.14827E+03 -1.53644E+03 -2.02889E+03 -1.30493E+03
 -1.17380E+03  2.71056E+02 -1.62829E+03  2.88759E+03 -4.45176E+03  1.88716E+03 -7.65541E+03 -1.10002E+03
 -4.89792E+03 -7.48333E+03  2.22898E+02 -1.03409E+04  6.57450E+03 -9.86712E+03  1.01197E+04 -2.91827E+03
  1.02258E+04  4.97195E+03  4.94324E+03  8.87207E+03 -2.12747E+03  1.04930E+04 -7.43251E+03  6.40003E+03
 -9.53866E+03  7.94455E+02 -7.63333E+03 -6.36593E+03 -1.05696E+03 -7.87250E+03  4.75509E+03 -6.16768E+03
  6.59216E+03 -2.00717E+03  4.23263E+03  1.51481E+03  1.36564E+03  3.41226E+03  1.24810E+03  1.36570E+03
  2.25919E+03  8.33831E+02  2.29874E+03  1.29389E+03  3.06839E+03  3.85345E+03  2.38547E+03  5.02798E+03
 -2.32118E+03  8.29647E+03 -6.84802E+03  8.41476E+03 -1.00234E+04  2.07254E+03 -1.05541E+04 -3.76013E+03
 -5.25248E+03 -1.04317E+04  1.47864E+03 -1.11056E+04  5.81420E+03 -6.89868E+03  8.02516E+03 -2.07491E+03
  6.56830E+03  3.84638E+03  1.36823E+03  5.61553E+03 -2.87437E+03  3.80765E+03 -3.98124E+03 -6.41317E+02
 -1.91726E+03 -4.03405E+03  2.46144E+03 -4.18315E+03  4.04728E+03 -2.30820E+03  4.02562E+03  9.74925E+02
  2.71073E+03  1.68141E+03  7.61268E+02  9.73503E+02 -6.64184E+02  1.71858E+03  1.64505E+03 -5.33552E+02
  1.30390E+03 -5.71447E+02  4.37876E+03  1.82032E+03  1.99683E+03  5.65841E+03 -1.20372E+03  7.25960E+03
 -4.61689E+03  4.26655E+03 -6.41192E+03  1.61294E+03 -5.68745E+03 -2.27097E+03 -1.68143E+03 -3.68271E+03
  6.23694E+02 -3.82151E+03  2.55079E+03 -1.88330E+03  2.24983E+03  2.13551E+03 -9.71414E+02  3.37651E+03
 -3.96470E+03  1.67303E+03 -4.14009E+03 -2.73692E+03 -2.72995E+03 -5.65705E+03  1.10829E+03 -5.08284E+03
  3.03418E+03 -2.89792E+03  3.93281E+03 -4.05057E+02  3.34701E+03  1.14705E+03  4.19260E+02  2.81838E+03
 -1.91123E+03  3.92355E+02 -2.55922E+03 -1.93656E+03  1.21216E+03 -4.01261E+03  4.92641E+03 -2.96654E+03
  5.77312E+03  5.11538E+02  6.06337E+03  3.90280E+03  2.20215E+03  5.81862E+03 -2.26379E+03  6.00465E+03
 -4.90790E+03  2.60056E+03 -5.19506E+03 -8.13918E+02 -2.99752E+03 -3.87806E+03  8.33387E+02 -3.77373E+03
  3.77756E+03 -1.92106E+03  2.94479E+03  1.71734E+03  1.33870E+03  3.51017E+03 -3.08696E+02  2.94222E+03
 -1.77787E+03  2.02419E+03 -1.24455E+03  6.22443E+02 -4.74740E+02  7.27394E+02 -1.11253E+03  1.68226E+03
 -1.83452E+03  2.39153E+03 -4.38577E+03  2.23669E+03 -6.08135E+03  1.00292E+02 -6.97295E+03 -4.00820E+03
 -3.45307E+03 -8.04106E+03  1.38041E+03 -9.39322E+03  4.97140E+03 -7.27205E+03  8.80862E+03 -2.85269E+03
  8.08083E+03  1.13751E+03  4.87685E+03  5.50306E+03  3.37385E+02  6.35803E+03 -2.73357E+03  4.44665E+03
 -3.09937E+03  1.78427E+03 -2.10266E+03 -1.05805E+03 -7.53179E+02 -5.01973E+02 -1.02992E+03 -4.61366E+01
 -1.63473E+03  2.15269E+02 -1.57757E+03 -4.81469E+02 -1.83477E+02 -1.52769E+03  4.45139E+01 -2.51511E+03
  3.01802E+03 -2.02940E+03  3.60120E+03  8.48451E+01  4.28875E+03  3.56332E+03  7.53783E+02  6.01089E+03
 -2.80823E+03  7.01351E+03 -6.26024E+03  4.26948E+03 -7.27788E+03 -4.77013E+02 -5.40175E+03 -4.63762E+03
 -2.03134E+03 -6.09853E+03  1.40150E+03 -5.30015E+03  3.64268E+03 -3.07600E+03  3.83044E+03  5.04233E+02
  2.32741E+03  1.86859E+03  1.05471E+02  1.78715E+03 -1.20410E+03 -1.19721E+02  5.67485E+01 -1.15310E+03
  1.59144E+03 -5.20050E+02  2.06270E+03  1.32574E+03  1.62580E+03  2.08015E+03  1.64207E+02  2.54174E+03
 -2.60814E+03  2.67672E+03 -3.58106E+03  1.28055E+02 -3.30457E+03 -2.57482E+03 -6.36385E+02 -4.37828E+03
  2.54692E+03 -3.71310E+03  4.24265E+03 -1.44711E+03  4.37697E+03  7.22594E+02  2.84600E+03  3.60282E+03
  3.45945E+02  3.53323E+03 -1.69439E+03  3.01638E+03 -2.20223E+03  2.29503E+03 -1.80614E+03  2.28399E+02
 -9.42816E+02 -2.99110E+02 -7.45771E+02  7.52119E+02 -2.04156E+03  5.96666E+02 -2.65062E+03 -7.85313E+02
 -3.04102E+03 -1.55867E+03 -9.25278E+02 -3.32453E+03  2.05546E+03 -4.34474E+03  3.07253E+03 -1.48860E+03
  3.37460E+03  8.47072E+02  1.49149E+03  2.45162E+03 -5.69594E+02  3.60663E+03 -3.06431E+03  2.11771E+03
