 $NMID ID='MM_0lb_SNR800_8hz_g50_30.RAW', FMTDAT='(8E13.5)'
 TRAMP=1., VOLUME=1. $END
  3.09979E+05  6.51030E+02  3.37870E+05  2.50725E+05  8.44999E+04  3.38675E+05 -1.33099E+05  2.51617E+05
 -1.90996E+05  8.36014E+04 -1.12628E+05 -3.23676E+04  8.19193E+01 -5.09932E+04  5.36012E+04  3.35709E+01
  3.56610E+04  5.30177E+04 -1.64674E+04  7.58829E+04 -6.13266E+04  6.48761E+04 -8.54533E+04  3.25943E+04
 -8.24067E+04 -1.13802E+04 -5.83553E+04 -5.24969E+04 -1.55354E+04 -7.10508E+04  2.86760E+04 -4.71355E+04
  4.16822E+04  3.68476E+03  1.69811E+04  4.84794E+04 -3.48272E+04  4.82663E+04 -6.84415E+04  2.01953E+01
 -5.52651E+04 -5.83004E+04 -7.49666E+03 -7.94201E+04  3.51587E+04 -5.73079E+04  5.00282E+04 -1.86574E+04
  4.55875E+04  1.13302E+04  3.29361E+04  2.69738E+04  1.57572E+04  3.08467E+04 -5.27185E+03  2.79298E+04
 -2.28796E+04  1.15580E+04 -1.79523E+04 -6.21335E+03  7.42054E+03 -7.83014E+03  2.37464E+04  1.41387E+04
  6.89436E+03  3.83383E+04 -3.46098E+04  3.79852E+04 -6.62650E+04  1.93449E+03 -5.92407E+04 -4.54724E+04
 -1.26873E+04 -6.65517E+04  4.22372E+04 -4.77265E+04  6.18459E+04 -2.70853E+03  3.74836E+04  3.47970E+04
 -5.05475E+03  3.98638E+04 -3.17608E+04  1.96940E+04 -3.39666E+04 -3.13759E+03 -1.98014E+04 -1.19296E+04
 -9.78346E+03 -1.56693E+04 -6.86859E+01 -2.00387E+04  9.03113E+03 -2.37468E+04  1.62630E+04 -1.24859E+04
  1.05598E+04  6.29552E+03 -1.08721E+04  1.32898E+04 -2.35611E+04 -7.12825E+03 -8.69735E+03 -3.80340E+04
  2.55877E+04 -4.71828E+04  5.26330E+04 -2.10730E+04  4.93489E+04  2.08865E+04  1.74201E+04  4.76589E+04
 -1.68703E+04  3.67205E+04 -2.77332E+04  2.71695E+03 -1.24368E+04 -2.97120E+04  2.17313E+04 -3.75049E+04
  4.54213E+04 -1.11478E+04  4.12722E+04  2.52351E+04  2.19951E+04  5.16804E+04 -8.57212E+03  5.70612E+04
 -3.58704E+04  3.89894E+04 -4.84150E+04  1.17692E+04 -4.85146E+04 -1.89561E+04 -2.66790E+04 -4.31804E+04
  7.74325E+03 -4.26590E+04  3.48991E+04 -1.75468E+04  3.28123E+04  1.12967E+04  5.34428E+03  2.14275E+04
 -1.42207E+04  1.01615E+04 -1.14021E+04 -7.49711E+03  5.96111E+03 -1.15776E+04  1.90774E+04  5.70189E+03
  1.52923E+04  2.29847E+04 -4.91366E+03  2.74745E+04 -2.34928E+04  1.47154E+04 -3.20236E+04 -2.69845E+03
 -2.63817E+04 -1.87618E+04 -1.19004E+04 -2.58243E+04  3.96867E+03 -2.68088E+04  2.02667E+04 -2.39793E+04
  3.34663E+04 -1.43394E+04  3.90722E+04  5.44597E+03  2.77551E+04  2.50238E+04  4.62507E+03  4.17759E+04
 -2.01051E+04  3.41164E+04 -3.12819E+04  1.19567E+04 -2.28055E+04 -9.66042E+03 -5.05069E+03 -1.26372E+04
  4.15739E+02 -5.32201E+02 -8.29162E+03  8.41320E+03 -2.06389E+04  4.66506E+03 -2.04662E+04 -1.00693E+04
 -1.25178E+04 -2.46543E+04  6.07785E+03 -2.87520E+04  1.94209E+04 -2.05927E+04  2.36822E+04 -1.96496E+03
  1.48599E+04  1.65891E+04 -1.70293E+03  2.44122E+04 -1.73101E+04  1.41013E+04 -2.49102E+04 -5.07990E+03
 -1.79018E+04 -2.20947E+04 -2.29768E+03 -2.95163E+04  1.27407E+04 -2.40656E+04  2.36053E+04 -1.25090E+04
  2.28729E+04 -5.53693E+02  1.68218E+04  5.28771E+03  9.01861E+03  1.05673E+03  1.30264E+04 -2.11546E+03
  2.32872E+04  2.93693E+03  2.66377E+04  1.88180E+04  1.85483E+04  3.93221E+04 -2.47983E+03  4.65219E+04
 -2.64634E+04  3.87501E+04 -4.37646E+04  2.02544E+04 -4.70275E+04 -3.46988E+03 -3.83311E+04 -2.77810E+04
 -1.49994E+04 -3.97952E+04  1.41116E+04 -3.45147E+04  2.91467E+04 -1.58395E+04  2.53919E+04  8.73607E+03
  8.52932E+03  1.97115E+04 -1.19185E+04  1.66882E+04 -2.07102E+04  2.28046E+03 -1.58186E+04 -1.37035E+04
 -5.96833E+02 -2.01316E+04  1.11321E+04 -1.49292E+04  1.36567E+04 -1.31724E+03  3.51473E+03  9.18914E+03
 -9.47989E+03  4.53427E+03 -9.73226E+03 -7.25853E+03 -2.67051E+03 -1.90356E+04  1.26037E+04 -2.07040E+04
  2.46634E+04 -1.20529E+04  2.83746E+04  3.23694E+03  2.47589E+04  2.00241E+04  1.15621E+04  3.11317E+04
 -6.10590E+03  3.33679E+04 -2.16072E+04  2.00946E+04 -2.42968E+04  3.89173E+03 -1.64951E+04 -6.61180E+03
 -6.77756E+03 -7.95146E+03 -8.51313E+02 -2.66844E+01 -2.94287E+03  3.95738E+03 -7.84527E+03  5.98997E+03
 -1.50685E+04 -1.16596E+03 -1.53129E+04 -1.22708E+04 -6.37305E+03 -2.02728E+04  6.81073E+03 -1.66852E+04
  1.37697E+04 -6.63030E+03  9.39769E+03  4.36898E+03 -1.05864E+03  6.58718E+03 -8.25634E+03 -4.24142E+02
 -7.78517E+03 -1.08870E+04 -1.20101E+03 -1.70437E+04  9.94777E+03 -1.74530E+04  2.17050E+04 -9.41128E+03
  2.50468E+04  2.89599E+03  1.83529E+04  1.56748E+04  3.48045E+03  2.05156E+04 -9.95374E+03  1.63320E+04
 -1.39146E+04  4.98552E+03 -6.80378E+03 -3.53454E+03  2.30710E+03 -4.71600E+03  8.66577E+03 -1.16986E+03
  7.57383E+03  7.48882E+03  1.54227E+03  1.32890E+04 -9.99785E+03  1.27680E+04 -1.69211E+04  3.06724E+03
 -1.17557E+04 -8.87022E+03  1.73727E+02 -1.45555E+04  9.44036E+03 -7.96105E+03  1.00922E+04  3.35684E+03
  2.70379E+03  1.07175E+04 -8.78830E+03  1.22372E+04 -1.49079E+04  5.90687E+03 -1.52394E+04 -5.42056E+03
 -8.61011E+03 -1.73484E+04  4.73655E+03 -2.02204E+04  1.66537E+04 -1.16582E+04  1.79960E+04  3.56823E+03
  1.11700E+04  1.43982E+04 -1.53162E+03  1.71922E+04 -1.28872E+04  9.14915E+03 -1.40277E+04 -1.39765E+03
 -1.12934E+04 -1.14707E+04 -1.73317E+03 -1.33419E+04  6.76807E+03 -1.04655E+04  8.18146E+03 -3.76484E+03
  5.35033E+03  2.12932E+03 -1.22685E+03  1.97464E+03 -1.03368E+03 -3.77825E+03  2.78120E+03 -8.60134E+03
  1.23979E+04 -5.57548E+03  1.77352E+04  1.43929E+03  1.76464E+04  1.28566E+04  1.10157E+04  2.31467E+04
 -5.52226E+03  2.66371E+04 -2.20578E+04  1.98060E+04 -2.85353E+04  4.05799E+03 -2.29441E+04 -9.80532E+03
 -1.14677E+04 -1.90193E+04 -1.79581E+02 -1.62845E+04  5.41663E+03 -9.75022E+03  5.45165E+03 -6.07275E+03
  4.33571E+03 -3.60618E+03  3.79880E+03 -4.34427E+03  5.86379E+03 -4.08374E+03  8.87721E+03 -2.10727E+03
  1.17580E+04  2.66957E+03  6.62364E+03  1.07336E+04 -2.66757E+03  1.28164E+04 -1.27557E+04  9.75044E+03
 -1.62689E+04 -1.49516E+03 -1.07498E+04 -1.15213E+04 -1.81867E+03 -1.77203E+04  9.72694E+03 -1.78476E+04
  1.84313E+04 -9.79199E+03  2.19679E+04  2.93049E+03  1.50459E+04  1.48791E+04  1.93684E+03  2.00507E+04
 -8.49005E+03  1.63334E+04 -1.17343E+04  5.45267E+03 -8.11922E+03 -1.92107E+03 -3.71541E+03 -2.69555E+03
 -1.31557E+03 -7.04767E+02 -2.54737E+03  3.37845E+03 -6.59038E+03  2.90126E+03 -1.11954E+04 -1.92761E+03
 -8.50243E+03 -1.11459E+04  3.74278E+02 -1.68153E+04  1.03765E+04 -1.51508E+04  1.64843E+04 -5.36674E+03
  1.63365E+04  7.81451E+03  7.94338E+03  1.45676E+04 -3.20320E+03  1.66561E+04 -1.21608E+04  1.05973E+04
 -1.59438E+04  6.84305E+02 -1.14153E+04 -1.03473E+04 -1.12075E+03 -1.42630E+04  7.01311E+03 -1.06160E+04
  1.12020E+04 -2.88741E+03  7.43452E+03  3.19858E+03  2.86821E+03  4.59256E+03  2.04977E+03  2.36600E+03
  2.50667E+03  1.12398E+03  3.72749E+03  1.90157E+03  4.81633E+03  6.02455E+03  4.63059E+03  9.07029E+03
 -3.70176E+03  1.40942E+04 -1.17604E+04  1.27454E+04 -1.76852E+04  3.33309E+03 -1.78755E+04 -7.62491E+03
 -8.47571E+03 -1.73961E+04  2.04044E+03 -1.83751E+04  1.06213E+04 -1.22034E+04  1.40174E+04 -3.34138E+03
  1.11393E+04  6.17045E+03  2.38961E+03  9.89663E+03 -5.27217E+03  6.46626E+03 -7.54254E+03 -1.21218E+03
 -3.47098E+03 -7.53770E+03  4.09461E+03 -7.51496E+03  7.32691E+03 -3.44363E+03  7.06674E+03  1.59968E+03
  4.25980E+03  3.67978E+03  1.50076E+03  2.99392E+03 -6.09911E+02  2.27893E+03  1.58933E+03 -6.19133E+02
  2.73303E+03 -9.21631E+02  6.91202E+03  2.65856E+03  4.32380E+03  9.35917E+03 -1.12530E+03  1.22759E+04
 -8.77245E+03  8.17168E+03 -1.10807E+04  2.25856E+03 -9.99706E+03 -4.07664E+03 -3.92510E+03 -6.84521E+03
  8.91853E+02 -7.24632E+03  4.78651E+03 -3.18223E+03  3.52147E+03  3.26947E+03 -1.65178E+03  5.75197E+03
 -7.06663E+03  3.96962E+03 -8.56842E+03 -4.16141E+03 -4.97770E+03 -9.39522E+03  1.65969E+03 -1.00928E+04
  5.99300E+03 -5.72508E+03  7.52405E+03 -7.42416E+02  5.97726E+03  2.62416E+03  5.70744E+02  4.82891E+03
 -3.23401E+03  1.87467E+03 -4.25434E+03 -3.80970E+03  1.15285E+03 -7.91876E+03  8.64702E+03 -6.58959E+03
  1.18270E+04  4.25091E+02  1.09851E+04  7.80710E+03  3.62040E+03  1.15969E+04 -4.15673E+03  1.12522E+04
 -9.46049E+03  4.75621E+03 -9.86918E+03 -1.59063E+03 -5.39303E+03 -7.76466E+03  1.78456E+03 -7.34604E+03
  7.58647E+03 -3.84875E+03  6.44172E+03  3.27814E+03  1.99430E+03  6.22725E+03 -9.20109E+02  5.68886E+03
 -3.09912E+03  3.11705E+03 -2.64983E+03  1.28174E+03 -1.48645E+03  9.06041E+02 -1.68542E+03  2.31483E+03
 -3.13436E+03  4.63893E+03 -7.85973E+03  4.03293E+03 -1.21841E+04  2.56566E+02 -1.32052E+04 -8.07742E+03
 -6.90187E+03 -1.58337E+04  3.16852E+03 -1.81835E+04  1.12959E+04 -1.38297E+04  1.75415E+04 -4.88894E+03
  1.60475E+04  3.25411E+03  9.95385E+03  1.13036E+04  1.22357E+03  1.26417E+04 -5.26016E+03  9.34461E+03
 -7.15283E+03  3.48662E+03 -4.12458E+03 -1.21482E+03 -1.52881E+03 -1.28321E+03 -3.92117E+02 -2.06350E+02
 -1.88116E+03  8.53642E+02 -3.10217E+03 -6.11124E+02 -1.24917E+03 -2.77383E+03  5.12895E+02 -4.52639E+03
  5.06175E+03 -4.66654E+03  7.43661E+03  1.53050E+02  8.74967E+03  6.15918E+03  2.61313E+03  1.28955E+04
 -6.21896E+03  1.42567E+04 -1.29460E+04  8.29074E+03 -1.52850E+04 -1.59440E+03 -1.16574E+04 -9.21733E+03
 -4.54168E+03 -1.30366E+04  3.14360E+03 -1.18468E+04  8.23205E+03 -6.52695E+03  8.54806E+03 -9.03776E+01
  4.42952E+03  4.12667E+03 -5.22869E+02  3.68309E+03 -2.39876E+03 -7.07983E+02  9.20414E+01 -2.95393E+03
  3.98809E+03 -1.66891E+03  5.21561E+03  1.00729E+03  3.56208E+03  5.14387E+03  1.68838E+02  6.91412E+03
 -5.33202E+03  5.55305E+03 -8.33163E+03  6.24096E+02 -7.58976E+03 -6.21504E+03 -1.24574E+03 -1.10044E+04
  6.12333E+03 -9.03607E+03  1.02358E+04 -3.00440E+03  9.86674E+03  2.62860E+03  5.71605E+03  7.93797E+03
  8.50042E+02  8.55876E+03 -3.29091E+03  7.04219E+03 -5.62891E+03  3.86506E+03 -4.32339E+03  7.31166E+02
 -1.94508E+03 -1.03907E+02 -2.32378E+03  6.62559E+02 -4.39244E+03  1.43934E+03 -7.06380E+03 -1.31735E+03
 -6.15112E+03 -4.75419E+03 -1.92707E+03 -8.87442E+03  3.98723E+03 -8.56604E+03  7.41662E+03 -4.39870E+03
  8.45761E+03  8.80825E+02  5.12155E+03  6.54089E+03 -4.42411E+02  8.63473E+03 -6.76847E+03  5.84674E+03
