 $NMID ID='MM_0lb_SNR800_12hz_g45_5.RAW', FMTDAT='(8E13.5)'
 TRAMP=1., VOLUME=1. $END
  3.09489E+05  5.48357E+02  3.37580E+05  2.50666E+05  8.49491E+04  3.38440E+05 -1.32797E+05  2.51247E+05
 -1.90428E+05  8.33644E+04 -1.12163E+05 -3.26677E+04  6.14971E+02 -5.06668E+04  5.35864E+04 -4.11965E+02
  3.51395E+04  5.27948E+04 -1.66351E+04  7.56049E+04 -6.07139E+04  6.37930E+04 -8.43193E+04  3.21322E+04
 -8.16043E+04 -1.17080E+04 -5.78551E+04 -5.16884E+04 -1.48810E+04 -7.00606E+04  2.75471E+04 -4.60336E+04
  4.01600E+04  3.83119E+03  1.66977E+04  4.78660E+04 -3.44918E+04  4.73615E+04 -6.70635E+04 -2.69723E+02
 -5.36718E+04 -5.69554E+04 -6.90790E+03 -7.74183E+04  3.40129E+04 -5.60490E+04  4.83752E+04 -1.76867E+04
  4.43979E+04  1.13730E+04  3.22382E+04  2.59542E+04  1.60366E+04  2.96993E+04 -5.35600E+03  2.77005E+04
 -2.23406E+04  1.24170E+04 -1.82401E+04 -5.67303E+03  5.75729E+03 -7.49804E+03  2.27479E+04  1.27054E+04
  7.21979E+03  3.59791E+04 -3.25953E+04  3.57395E+04 -6.40108E+04  2.13043E+03 -5.74953E+04 -4.34287E+04
 -1.25026E+04 -6.41682E+04  4.04267E+04 -4.59878E+04  5.91952E+04 -2.33541E+03  3.48951E+04  3.31762E+04
 -5.89306E+03  3.68104E+04 -3.05308E+04  1.72110E+04 -3.11549E+04 -4.18816E+03 -1.73354E+04 -1.12513E+04
 -8.90632E+03 -1.36612E+04 -6.96468E+02 -1.83339E+04  7.52473E+03 -2.31207E+04  1.52749E+04 -1.36188E+04
  1.11051E+04  5.61771E+03 -8.77549E+03  1.30408E+04 -2.17948E+04 -4.92729E+03 -8.64413E+03 -3.46012E+04
  2.35808E+04 -4.45036E+04  4.90900E+04 -2.01542E+04  4.60364E+04  1.99091E+04  1.61059E+04  4.50813E+04
 -1.59349E+04  3.44480E+04 -2.59258E+04  2.16203E+03 -1.05075E+04 -2.81570E+04  2.12081E+04 -3.45884E+04
  4.23872E+04 -9.56872E+03  3.67737E+04  2.44262E+04  1.94970E+04  4.80996E+04 -7.78545E+03  5.21726E+04
 -3.29297E+04  3.48641E+04 -4.33596E+04  9.92434E+03 -4.38620E+04 -1.72909E+04 -2.43103E+04 -3.89906E+04
  7.46883E+03 -3.91311E+04  3.24066E+04 -1.52667E+04  3.02905E+04  1.09585E+04  4.33981E+03  1.95863E+04
 -1.37358E+04  8.73653E+03 -1.08131E+04 -7.91653E+03  5.63576E+03 -1.10113E+04  1.83135E+04  5.80926E+03
  1.39556E+04  2.20828E+04 -5.69672E+03  2.57095E+04 -2.27756E+04  1.23438E+04 -2.90483E+04 -4.31308E+03
 -2.18959E+04 -1.76898E+04 -9.30667E+03 -2.17925E+04  4.13538E+03 -2.13073E+04  1.68245E+04 -1.96015E+04
  2.75441E+04 -1.32639E+04  3.41426E+04  3.41201E+03  2.49024E+04  2.14054E+04  4.28655E+03  3.77145E+04
 -1.80787E+04  3.13039E+04 -2.89060E+04  1.07082E+04 -2.13794E+04 -1.00737E+04 -4.33772E+03 -1.33421E+04
  1.86819E+03 -2.46619E+03 -5.52312E+03  6.90603E+03 -1.74387E+04  5.21450E+03 -1.74954E+04 -7.75770E+03
 -1.08643E+04 -2.02553E+04  5.37162E+03 -2.44964E+04  1.66680E+04 -1.70618E+04  1.93809E+04 -1.60786E+03
  1.22296E+04  1.37719E+04 -1.26471E+03  2.02832E+04 -1.43968E+04  1.14606E+04 -2.04209E+04 -4.23589E+03
 -1.50334E+04 -1.82033E+04 -1.95120E+03 -2.44883E+04  1.11071E+04 -2.00318E+04  2.04690E+04 -1.03862E+04
  1.95240E+04  2.21420E+02  1.34053E+04  4.57673E+03  7.22900E+03  1.10851E+03  1.03896E+04 -1.74037E+03
  1.87088E+04  3.11131E+03  2.15150E+04  1.59782E+04  1.41699E+04  3.22910E+04 -3.29887E+03  3.69427E+04
 -2.11962E+04  3.02129E+04 -3.47923E+04  1.52973E+04 -3.65035E+04 -2.51866E+03 -3.01205E+04 -2.09663E+04
 -1.30208E+04 -3.03438E+04  1.08059E+04 -2.71583E+04  2.29448E+04 -1.35648E+04  2.08139E+04  6.11602E+03
  7.38825E+03  1.58209E+04 -9.54905E+03  1.37029E+04 -1.70263E+04  2.69656E+03 -1.35441E+04 -1.08025E+04
 -3.57498E+02 -1.62575E+04  8.67967E+03 -1.23057E+04  1.12752E+04 -1.20781E+03  2.42886E+03  6.74061E+03
 -7.35664E+03  2.81896E+03 -6.91194E+03 -5.98529E+03 -9.79804E+02 -1.46710E+04  1.03465E+04 -1.59529E+04
  1.84698E+04 -8.62369E+03  1.99334E+04  2.93178E+03  1.78435E+04  1.43198E+04  8.21285E+03  2.30914E+04
 -4.01072E+03  2.49626E+04 -1.57790E+04  1.53536E+04 -1.79951E+04  3.45530E+03 -1.24569E+04 -4.44124E+03
 -5.93192E+03 -5.36876E+03 -7.47975E+02  5.99089E+02 -2.53889E+03  2.81578E+03 -5.63838E+03  4.68323E+03
 -1.18480E+04 -1.02004E+03 -1.23383E+04 -9.63910E+03 -5.21822E+03 -1.61619E+04  5.40053E+03 -1.26504E+04
  1.07660E+04 -4.73984E+03  7.35477E+03  3.42958E+03  5.74018E+01  4.77036E+03 -6.14953E+03 -2.14453E+02
 -5.72266E+03 -7.73691E+03 -8.27728E+02 -1.23965E+04  6.79058E+03 -1.29597E+04  1.57055E+04 -6.86880E+03
  1.84707E+04  1.77818E+03  1.38058E+04  1.11105E+04  2.77727E+03  1.48947E+04 -7.95644E+03  1.25378E+04
 -1.02197E+04  3.57226E+03 -5.31811E+03 -2.19880E+03  1.89490E+03 -3.23807E+03  6.90698E+03 -1.06972E+03
  6.14228E+03  5.13475E+03  1.04107E+03  1.01199E+04 -6.90884E+03  9.84029E+03 -1.19066E+04  2.08896E+03
 -8.21654E+03 -6.40358E+03  4.24129E+02 -1.04473E+04  6.93526E+03 -5.61441E+03  6.73736E+03  1.95846E+03
  1.39309E+03  7.46075E+03 -6.33206E+03  9.07592E+03 -9.91004E+03  3.90942E+03 -9.89633E+03 -3.37008E+03
 -5.47637E+03 -1.16717E+04  2.87188E+03 -1.34154E+04  1.11472E+04 -8.25183E+03  1.25497E+04  1.91265E+03
  7.99588E+03  9.58231E+03 -1.15144E+03  1.23313E+04 -8.76456E+03  6.64610E+03 -9.59941E+03 -8.91918E+02
 -8.72002E+03 -8.18599E+03 -1.30180E+03 -8.94147E+03  4.53474E+03 -7.19029E+03  5.50392E+03 -3.34773E+03
  4.26404E+03  1.47427E+03 -6.84404E+02  1.76260E+03  1.10346E+01 -1.96627E+03  1.28182E+03 -5.09239E+03
  7.65911E+03 -2.78124E+03  1.11187E+04  1.27350E+03  1.10574E+04  7.36780E+03  7.99309E+03  1.50856E+04
 -3.09034E+03  1.74072E+04 -1.43933E+04  1.27425E+04 -1.85054E+04  2.37977E+03 -1.49774E+04 -6.56238E+03
 -7.66381E+03 -1.24489E+04 -6.84418E+02 -1.07322E+04  4.03085E+03 -5.38919E+03  3.43792E+03 -3.93791E+03
  2.70191E+03 -2.33118E+03  3.38333E+03 -3.11301E+03  4.81485E+03 -2.38009E+03  6.03506E+03 -1.93192E+02
  8.32299E+03  2.01758E+03  3.96242E+03  7.23191E+03 -1.95120E+03  7.29402E+03 -8.35594E+03  5.91609E+03
 -1.00371E+04 -9.23433E+02 -5.97922E+03 -7.38701E+03 -3.56557E+02 -1.09383E+04  6.25574E+03 -1.11921E+04
  1.13315E+04 -6.29206E+03  1.38246E+04  1.32830E+03  9.54041E+03  9.68672E+03  1.84593E+03  1.25253E+04
 -5.39167E+03  1.06151E+04 -7.01303E+03  3.41243E+03 -4.75712E+03 -1.41911E+03 -1.95154E+03 -1.77040E+03
 -9.23639E+02  2.12176E+02 -1.77297E+03  2.75847E+03 -4.48664E+03  1.97388E+03 -7.58103E+03 -1.06246E+03
 -4.86363E+03 -7.62336E+03  2.42251E+02 -1.01764E+04  6.20483E+03 -9.32604E+03  9.53778E+03 -2.99531E+03
  9.86938E+03  4.49272E+03  4.61841E+03  8.80367E+03 -1.85549E+03  9.84700E+03 -6.83777E+03  6.17250E+03
 -9.26961E+03  4.00679E+02 -7.35365E+03 -6.28748E+03 -9.51822E+02 -8.44861E+03  4.24577E+03 -6.01466E+03
  6.09436E+03 -2.42924E+03  4.36967E+03  1.27372E+03  1.41386E+03  3.38152E+03  1.24612E+03  1.21951E+03
  2.31550E+03  5.87108E+02  2.78232E+03  1.47417E+03  2.69836E+03  3.88238E+03  2.61301E+03  5.21554E+03
 -2.07305E+03  7.54109E+03 -6.35892E+03  7.97314E+03 -9.29371E+03  1.95284E+03 -1.01622E+04 -3.61645E+03
 -4.88067E+03 -9.69580E+03  1.51652E+03 -1.10863E+04  5.91367E+03 -6.46849E+03  7.91959E+03 -1.87914E+03
  6.29684E+03  3.54819E+03  1.12381E+03  5.62335E+03 -2.65269E+03  3.63221E+03 -3.46697E+03 -3.08402E+02
 -1.62429E+03 -4.11540E+03  2.01418E+03 -4.27031E+03  4.04025E+03 -2.03156E+03  3.99648E+03  9.83648E+02
  2.55222E+03  1.87877E+03  1.02314E+03  1.45415E+03 -4.76124E+02  1.46042E+03  1.86594E+03 -7.50800E+02
  1.29574E+03 -7.38322E+02  4.24642E+03  2.04924E+03  1.67809E+03  5.48235E+03 -5.34173E+02  6.90388E+03
 -4.77045E+03  3.89462E+03 -5.83040E+03  1.18552E+03 -5.34708E+03 -2.06621E+03 -1.59571E+03 -3.44805E+03
  5.63843E+02 -3.71457E+03  2.74322E+03 -1.65386E+03  1.89994E+03  2.20617E+03 -1.08954E+03  3.52547E+03
 -4.07631E+03  1.80269E+03 -4.25645E+03 -2.46794E+03 -2.62554E+03 -5.04357E+03  9.35655E+02 -5.27169E+03
  2.75278E+03 -2.75336E+03  3.58929E+03 -3.18580E+02  3.47145E+03  9.76838E+02  6.87578E+02  2.67108E+03
 -1.82464E+03  1.04107E+03 -2.41596E+03 -1.82923E+03  1.09045E+03 -3.74299E+03  4.52573E+03 -2.63565E+03
  5.43700E+03  1.58167E+02  6.04201E+03  3.67885E+03  1.84431E+03  5.86577E+03 -1.91736E+03  5.49447E+03
 -4.31009E+03  2.16629E+03 -4.95848E+03 -4.03669E+02 -3.16030E+03 -3.89011E+03  7.71727E+02 -3.46952E+03
  3.85745E+03 -1.94286E+03  2.86132E+03  1.53114E+03  1.00314E+03  3.31717E+03 -3.01186E+02  3.20137E+03
 -1.37035E+03  2.10051E+03 -1.64601E+03  3.35759E+02 -5.43368E+02  8.97744E+02 -8.54620E+02  1.40103E+03
 -1.49375E+03  2.36126E+03 -4.12752E+03  2.06528E+03 -5.74398E+03  7.36820E+01 -6.90761E+03 -3.61533E+03
 -3.03935E+03 -7.74355E+03  1.73031E+03 -8.91612E+03  5.23576E+03 -6.95138E+03  8.36982E+03 -2.98404E+03
  8.03082E+03  1.15798E+03  4.74337E+03  5.55417E+03 -5.34583E+01  5.80389E+03 -2.76904E+03  4.47801E+03
 -3.12449E+03  1.74941E+03 -2.13775E+03 -1.00213E+03 -8.62521E+02  1.76476E+02 -7.74024E+02  4.48736E+01
 -1.53100E+03  2.96200E+02 -1.49192E+03 -1.54614E+02  1.09965E+02 -1.56870E+03 -2.21805E+02 -2.46884E+03
  2.93801E+03 -1.70722E+03  3.21769E+03  1.37492E+02  4.05933E+03  3.37709E+03  4.35352E+02  6.02407E+03
 -3.21401E+03  6.56197E+03 -6.17601E+03  4.20137E+03 -7.07641E+03 -5.97641E+02 -5.25580E+03 -4.44782E+03
 -2.73518E+03 -5.84345E+03  1.55527E+03 -5.39951E+03  3.65542E+03 -2.57144E+03  3.48843E+03 -3.10644E+01
  1.96080E+03  1.91349E+03  5.47190E+01  1.71170E+03 -1.14120E+03 -1.56089E+02 -4.05366E+02 -9.53436E+02
  1.99521E+03 -3.01338E+02  2.12623E+03  8.44705E+02  1.22546E+03  2.09651E+03  3.08958E+02  2.78967E+03
 -2.98115E+03  2.11350E+03 -3.77215E+03  7.55247E+02 -3.00803E+03 -2.33394E+03 -6.31604E+02 -4.48326E+03
  2.38200E+03 -3.82293E+03  4.54746E+03 -8.80131E+02  3.95290E+03  4.95575E+02  2.19590E+03  3.36424E+03
  7.35387E+02  3.35954E+03 -1.76816E+03  2.98167E+03 -2.48911E+03  1.89933E+03 -1.92748E+03  3.35145E+02
 -8.58696E+02 -2.44412E+02 -1.14462E+03  2.88729E+02 -1.74219E+03  8.58845E+02 -2.95942E+03 -3.75318E+02
 -3.26542E+03 -1.32038E+03 -8.02042E+02 -3.84609E+03  1.51682E+03 -4.18307E+03  3.32488E+03 -1.76465E+03
  3.61302E+03  4.03865E+02  1.81930E+03  2.30047E+03 -3.17856E+02  4.03856E+03 -2.96772E+03  2.22400E+03
