 $NMID ID='MM_0lb_SNR800_11hz_g60_30.RAW', FMTDAT='(8E13.5)'
 TRAMP=1., VOLUME=1. $END
  3.09576E+05  3.53134E+02  3.37728E+05  2.50723E+05  8.49611E+04  3.38614E+05 -1.32614E+05  2.52162E+05
 -1.90376E+05  8.38228E+04 -1.12234E+05 -3.25652E+04  2.27541E+02 -5.06646E+04  5.33938E+04 -4.36063E+02
  3.54026E+04  5.27908E+04 -1.69908E+04  7.60226E+04 -6.12548E+04  6.41876E+04 -8.49329E+04  3.25982E+04
 -8.21730E+04 -1.18082E+04 -5.80796E+04 -5.20541E+04 -1.52730E+04 -7.08691E+04  2.76225E+04 -4.63646E+04
  4.10774E+04  3.79575E+03  1.68348E+04  4.89681E+04 -3.45917E+04  4.82732E+04 -6.77916E+04  1.11087E+02
 -5.47672E+04 -5.75280E+04 -7.30538E+03 -7.88801E+04  3.47094E+04 -5.69058E+04  4.96117E+04 -1.85352E+04
  4.50686E+04  1.17137E+04  3.32006E+04  2.65214E+04  1.56543E+04  3.07409E+04 -5.72532E+03  2.79710E+04
 -2.26352E+04  1.20509E+04 -1.81142E+04 -5.74563E+03  6.99138E+03 -7.48930E+03  2.32081E+04  1.36865E+04
  7.23281E+03  3.69576E+04 -3.35550E+04  3.70253E+04 -6.53873E+04  2.53161E+03 -5.86314E+04 -4.43634E+04
 -1.25252E+04 -6.53098E+04  4.14905E+04 -4.71083E+04  6.06073E+04 -2.44316E+03  3.64176E+04  3.41151E+04
 -5.70059E+03  3.90650E+04 -3.15212E+04  1.84948E+04 -3.27578E+04 -3.89120E+03 -1.87619E+04 -1.15169E+04
 -9.24245E+03 -1.49681E+04 -6.22968E+02 -1.91951E+04  8.54808E+03 -2.34011E+04  1.59549E+04 -1.28423E+04
  1.10467E+04  6.06153E+03 -1.04835E+04  1.30215E+04 -2.32550E+04 -6.24433E+03 -8.76808E+03 -3.67869E+04
  2.45638E+04 -4.61495E+04  5.16251E+04 -2.06824E+04  4.84205E+04  2.08601E+04  1.72927E+04  4.68781E+04
 -1.65686E+04  3.60546E+04 -2.76275E+04  2.56048E+03 -1.13156E+04 -2.93934E+04  2.15524E+04 -3.60006E+04
  4.40327E+04 -1.10537E+04  3.98062E+04  2.47716E+04  2.08769E+04  5.06723E+04 -8.29554E+03  5.52796E+04
 -3.50922E+04  3.79062E+04 -4.68450E+04  1.09283E+04 -4.66943E+04 -1.83040E+04 -2.61109E+04 -4.14080E+04
  7.76623E+03 -4.15743E+04  3.39183E+04 -1.67787E+04  3.18320E+04  1.07057E+04  5.37739E+03  2.04823E+04
 -1.37901E+04  9.67680E+03 -1.10557E+04 -7.18487E+03  5.90139E+03 -1.16914E+04  1.89722E+04  5.83572E+03
  1.42973E+04  2.24482E+04 -5.22182E+03  2.68547E+04 -2.32374E+04  1.37920E+04 -3.06990E+04 -3.42899E+03
 -2.48285E+04 -1.85976E+04 -1.10269E+04 -2.42750E+04  4.17400E+03 -2.46321E+04  1.94234E+04 -2.22206E+04
  3.16189E+04 -1.42762E+04  3.72724E+04  4.68325E+03  2.66728E+04  2.35499E+04  4.33845E+03  4.02801E+04
 -1.93968E+04  3.32686E+04 -3.00318E+04  1.17267E+04 -2.20129E+04 -1.01218E+04 -4.70103E+03 -1.27917E+04
  1.16859E+03 -1.12785E+03 -7.59897E+03  7.66674E+03 -1.99829E+04  4.90632E+03 -1.98778E+04 -9.25169E+03
 -1.18553E+04 -2.25641E+04  5.89078E+03 -2.71948E+04  1.76387E+04 -1.90605E+04  2.22312E+04 -1.67237E+03
  1.39037E+04  1.53480E+04 -1.22634E+03  2.21334E+04 -1.62166E+04  1.31845E+04 -2.28779E+04 -4.65615E+03
 -1.68597E+04 -2.02950E+04 -2.53820E+03 -2.71894E+04  1.23285E+04 -2.23627E+04  2.28122E+04 -1.11633E+04
  2.07628E+04 -1.08409E+02  1.52103E+04  5.40764E+03  8.26849E+03  1.49361E+03  1.16775E+04 -2.07160E+03
  2.09856E+04  2.59274E+03  2.43215E+04  1.78484E+04  1.63917E+04  3.63051E+04 -3.03524E+03  4.25129E+04
 -2.45637E+04  3.54940E+04 -3.98534E+04  1.82840E+04 -4.24865E+04 -3.22870E+03 -3.43896E+04 -2.46641E+04
 -1.36817E+04 -3.53123E+04  1.22938E+04 -3.11151E+04  2.64628E+04 -1.46011E+04  2.31105E+04  7.10244E+03
  8.02259E+03  1.79544E+04 -1.07967E+04  1.51524E+04 -1.91193E+04  2.67339E+03 -1.45343E+04 -1.24851E+04
 -6.98782E+02 -1.83164E+04  9.93983E+03 -1.36907E+04  1.30985E+04 -1.24233E+03  2.99257E+03  8.02742E+03
 -7.89986E+03  3.67336E+03 -8.32581E+03 -6.79722E+03 -1.83446E+03 -1.69860E+04  1.13878E+04 -1.89341E+04
  2.19344E+04 -1.03428E+04  2.46908E+04  3.28263E+03  2.15123E+04  1.74006E+04  9.65562E+03  2.73773E+04
 -5.06652E+03  2.89558E+04 -1.93088E+04  1.80786E+04 -2.08332E+04  3.78355E+03 -1.44398E+04 -5.59245E+03
 -6.51421E+03 -6.62096E+03 -7.73149E+02  7.83111E+02 -2.81516E+03  3.14752E+03 -7.14833E+03  5.24028E+03
 -1.35422E+04 -1.05250E+03 -1.40788E+04 -1.10620E+04 -5.64154E+03 -1.83849E+04  6.14203E+03 -1.49683E+04
  1.24660E+04 -5.92515E+03  8.56060E+03  3.93664E+03 -3.79481E+02  5.53371E+03 -7.31084E+03 -3.17408E+02
 -6.73824E+03 -9.44768E+03 -1.15795E+03 -1.43495E+04  8.10262E+03 -1.49543E+04  1.89129E+04 -8.12232E+03
  2.17857E+04  1.88301E+03  1.65607E+04  1.32850E+04  3.17588E+03  1.73984E+04 -9.15693E+03  1.41030E+04
 -1.21933E+04  4.39742E+03 -6.39935E+03 -3.07866E+03  1.96954E+03 -4.28710E+03  8.08271E+03 -1.02301E+03
  7.05590E+03  6.25625E+03  1.16636E+03  1.16787E+04 -8.44281E+03  1.11104E+04 -1.44923E+04  2.52555E+03
 -9.87098E+03 -7.73493E+03 -3.83363E+02 -1.22984E+04  8.00307E+03 -6.37257E+03  8.16478E+03  3.16229E+03
  1.84096E+03  8.91908E+03 -7.56097E+03  1.06167E+04 -1.24899E+04  4.56759E+03 -1.24410E+04 -4.65233E+03
 -7.32119E+03 -1.41306E+04  3.56471E+03 -1.60654E+04  1.39714E+04 -9.59884E+03  1.53334E+04  2.76316E+03
  9.04505E+03  1.20443E+04 -1.24939E+03  1.46554E+04 -1.04939E+04  8.20328E+03 -1.15302E+04 -1.08712E+03
 -9.90781E+03 -9.70516E+03 -1.72546E+03 -1.15261E+04  5.93869E+03 -8.73104E+03  7.20593E+03 -3.59153E+03
  4.59141E+03  1.88524E+03 -1.14014E+03  2.05899E+03 -2.72390E+02 -2.70769E+03  2.24931E+03 -6.64154E+03
  9.88918E+03 -4.09083E+03  1.47357E+04  1.35841E+03  1.39482E+04  1.00902E+04  9.40411E+03  1.86706E+04
 -4.34402E+03  2.11761E+04 -1.80629E+04  1.52928E+04 -2.33111E+04  2.50466E+03 -1.84485E+04 -7.74984E+03
 -9.31997E+03 -1.54252E+04 -4.72865E+02 -1.30834E+04  4.69459E+03 -7.38863E+03  4.49803E+03 -4.51801E+03
  3.48016E+03 -3.06702E+03  3.73325E+03 -3.74850E+03  5.29126E+03 -3.04295E+03  7.57428E+03 -1.13370E+03
  9.40882E+03  2.43300E+03  5.01931E+03  8.42774E+03 -2.24871E+03  9.82388E+03 -1.00933E+04  7.41069E+03
 -1.26220E+04 -1.21497E+03 -7.71045E+03 -9.03118E+03 -8.59821E+02 -1.35899E+04  8.06205E+03 -1.36471E+04
  1.45016E+04 -8.03683E+03  1.74150E+04  2.02338E+03  1.15495E+04  1.19093E+04  1.88421E+03  1.53434E+04
 -6.48015E+03  1.26576E+04 -9.13191E+03  4.47452E+03 -6.19539E+03 -1.68629E+03 -2.41921E+03 -1.88543E+03
 -8.96782E+02 -2.20004E+02 -2.12146E+03  2.39718E+03 -5.56766E+03  2.20290E+03 -9.05609E+03 -1.16110E+03
 -6.10456E+03 -8.97439E+03  8.25454E+01 -1.26645E+04  7.89113E+03 -1.17051E+04  1.23563E+04 -3.74733E+03
  1.25094E+04  5.89586E+03  5.69303E+03  1.07009E+04 -2.17345E+03  1.27099E+04 -8.95526E+03  7.87952E+03
 -1.20220E+04  6.41994E+02 -9.20101E+03 -7.44593E+03 -1.09443E+03 -1.05753E+04  5.45106E+03 -7.64852E+03
  8.02874E+03 -2.57439E+03  5.46091E+03  1.69683E+03  1.95350E+03  3.97692E+03  1.09494E+03  1.80842E+03
  2.57464E+03  1.06451E+03  3.00493E+03  1.78956E+03  3.83071E+03  4.38856E+03  3.59376E+03  6.52969E+03
 -2.70656E+03  9.69752E+03 -8.82273E+03  1.03187E+04 -1.24841E+04  2.78175E+03 -1.37115E+04 -5.32293E+03
 -6.04033E+03 -1.24872E+04  2.09267E+03 -1.37141E+04  7.36137E+03 -9.15780E+03  1.05877E+04 -2.28797E+03
  8.02597E+03  4.77095E+03  1.76673E+03  7.13376E+03 -3.48318E+03  4.86290E+03 -4.84995E+03 -6.26029E+02
 -2.23566E+03 -5.25438E+03  3.09516E+03 -5.15951E+03  5.15562E+03 -2.53045E+03  5.27267E+03  8.53071E+02
  3.04023E+03  2.72249E+03  9.72494E+02  1.91757E+03 -5.51384E+02  1.64388E+03  1.26532E+03 -1.85479E+02
  1.71282E+03 -6.31330E+02  5.20696E+03  1.74773E+03  2.62572E+03  6.68723E+03 -1.14258E+03  8.71318E+03
 -6.03878E+03  5.60937E+03 -7.69636E+03  1.54356E+03 -7.00397E+03 -2.92542E+03 -3.01662E+03 -5.02423E+03
  9.20252E+02 -4.50636E+03  3.38975E+03 -2.05377E+03  2.88639E+03  2.71265E+03 -1.26881E+03  4.14282E+03
 -5.32326E+03  2.52937E+03 -5.61522E+03 -3.23189E+03 -3.62876E+03 -6.59434E+03  7.13172E+02 -6.91762E+03
  4.16046E+03 -4.38150E+03  4.70415E+03 -3.26075E+02  3.76805E+03  1.75083E+03  5.26872E+02  3.41387E+03
 -2.03645E+03  1.12878E+03 -2.77120E+03 -2.26556E+03  1.22151E+03 -5.15557E+03  6.58424E+03 -4.15473E+03
  7.42518E+03  3.37814E+02  7.68625E+03  5.22919E+03  2.33429E+03  7.98373E+03 -3.28817E+03  7.33670E+03
 -6.54250E+03  2.92105E+03 -6.60059E+03 -1.34363E+03 -3.74517E+03 -5.19621E+03  1.36207E+03 -4.30891E+03
  4.59392E+03 -2.53361E+03  3.80105E+03  2.10237E+03  1.19902E+03  4.26067E+03 -6.54509E+02  3.95152E+03
 -1.67514E+03  2.82877E+03 -1.91642E+03  1.22067E+03 -8.09568E+02  9.09837E+02 -1.41594E+03  1.85656E+03
 -2.22529E+03  3.06235E+03 -5.35228E+03  2.65576E+03 -7.97361E+03  6.21960E+01 -9.07867E+03 -5.04050E+03
 -4.33135E+03 -1.02646E+04  2.42762E+03 -1.21689E+04  7.18779E+03 -9.37197E+03  1.14263E+04 -3.53971E+03
  1.07203E+04  1.89223E+03  6.52875E+03  6.74223E+03  6.13881E+02  7.54201E+03 -3.18624E+03  5.83981E+03
 -4.41449E+03  2.78553E+03 -2.81548E+03 -9.77079E+02 -1.11252E+03 -5.21608E+02 -5.33144E+02 -2.08493E+02
 -2.01304E+03  1.41576E+01 -1.61804E+03 -8.07261E+01 -4.18048E+01 -1.82810E+03 -1.75037E+02 -3.32436E+03
  3.36653E+03 -2.02001E+03  4.80472E+03 -3.03398E+02  5.27519E+03  4.22359E+03  1.19259E+03  7.40695E+03
 -3.74120E+03  9.08183E+03 -8.34859E+03  5.08147E+03 -9.45793E+03 -8.79526E+02 -7.02574E+03 -5.83798E+03
 -2.87469E+03 -7.61584E+03  1.87029E+03 -7.26875E+03  5.05393E+03 -4.14056E+03  4.65602E+03  2.46920E+02
  3.01103E+03  2.62091E+03  1.11599E+02  2.13569E+03 -1.47585E+03 -2.09646E+02  5.55054E+01 -1.67332E+03
  2.06323E+03 -9.33271E+02  2.92201E+03  1.35460E+03  1.84442E+03  2.98233E+03  3.62244E+02  3.78482E+03
 -3.35931E+03  3.27586E+03 -5.01734E+03  3.09649E+02 -4.61118E+03 -3.45746E+03 -6.60323E+02 -6.08645E+03
  3.54580E+03 -5.45811E+03  5.68165E+03 -1.61758E+03  5.73414E+03  8.53767E+02  3.21324E+03  4.72757E+03
  5.09392E+02  4.91873E+03 -1.70168E+03  4.16222E+03 -3.36446E+03  2.28573E+03 -2.46373E+03  2.95649E+02
 -1.19451E+03 -2.46085E+02 -1.33291E+03  7.40664E+02 -2.76151E+03  9.34069E+02 -3.68939E+03 -3.18825E+02
 -3.80100E+03 -2.13789E+03 -1.32870E+03 -5.07148E+03  2.08313E+03 -5.38540E+03  4.47399E+03 -1.89096E+03
  4.74924E+03  4.58468E+02  2.27655E+03  3.56599E+03  1.19507E+02  4.98396E+03 -3.44712E+03  3.30262E+03
