 $NMID ID='MM_0lb_SNR800_19hz_g60_83.RAW', FMTDAT='(8E13.5)'
 TRAMP=1., VOLUME=1. $END
  3.09791E+05  5.85794E+02  3.37543E+05  2.50418E+05  8.43362E+04  3.37885E+05 -1.32381E+05  2.50963E+05
 -1.90329E+05  8.25933E+04 -1.11481E+05 -3.27143E+04  1.13224E+03 -5.06125E+04  5.39562E+04 -4.95269E+01
  3.53311E+04  5.28661E+04 -1.69863E+04  7.51813E+04 -6.04880E+04  6.31524E+04 -8.38100E+04  3.18995E+04
 -8.01951E+04 -1.14015E+04 -5.68902E+04 -5.07736E+04 -1.51140E+04 -6.91418E+04  2.70912E+04 -4.53755E+04
  3.97701E+04  3.79691E+03  1.59791E+04  4.74851E+04 -3.44029E+04  4.68413E+04 -6.61550E+04 -3.06223E+02
 -5.26424E+04 -5.64541E+04 -6.80862E+03 -7.64237E+04  3.34692E+04 -5.43141E+04  4.72532E+04 -1.67261E+04
  4.24944E+04  1.12175E+04  3.11327E+04  2.50500E+04  1.56001E+04  2.86047E+04 -5.26905E+03  2.69067E+04
 -2.21880E+04  1.25233E+04 -1.91542E+04 -4.59516E+03  5.07845E+03 -7.35721E+03  2.16762E+04  1.15436E+04
  7.31491E+03  3.40243E+04 -3.10166E+04  3.46741E+04 -6.22975E+04  2.30708E+03 -5.63855E+04 -4.19652E+04
 -1.22591E+04 -6.22827E+04  3.89934E+04 -4.44262E+04  5.68796E+04 -2.04800E+03  3.30983E+04  3.14124E+04
 -6.05650E+03  3.44509E+04 -2.90965E+04  1.43253E+04 -2.87031E+04 -4.97049E+03 -1.56648E+04 -1.05783E+04
 -7.83497E+03 -1.18828E+04 -8.99396E+02 -1.73222E+04  6.98723E+03 -2.28490E+04  1.52046E+04 -1.36798E+04
  1.18337E+04  4.78715E+03 -7.13814E+03  1.31815E+04 -2.00119E+04 -3.68146E+03 -8.07845E+03 -3.17093E+04
  2.17763E+04 -4.17966E+04  4.61461E+04 -1.93104E+04  4.34300E+04  1.87246E+04  1.48413E+04  4.27891E+04
 -1.57227E+04  3.20223E+04 -2.43224E+04  1.72701E+03 -8.91463E+03 -2.69673E+04  2.06835E+04 -3.22482E+04
  3.94411E+04 -8.08523E+03  3.29557E+04  2.32882E+04  1.67471E+04  4.40731E+04 -7.96465E+03  4.70678E+04
 -2.97724E+04  3.14570E+04 -3.90393E+04  8.84961E+03 -4.01773E+04 -1.55200E+04 -2.22886E+04 -3.58281E+04
  7.10852E+03 -3.53276E+04  3.00884E+04 -1.37939E+04  2.76363E+04  1.07347E+04  3.51834E+03  1.82638E+04
 -1.32469E+04  7.63814E+03 -1.03560E+04 -7.85548E+03  5.83546E+03 -1.03668E+04  1.78170E+04  6.53388E+03
  1.30516E+04  2.19091E+04 -6.60143E+03  2.40941E+04 -2.17139E+04  9.85033E+03 -2.62375E+04 -5.89980E+03
 -1.80264E+04 -1.68418E+04 -6.44740E+03 -1.82027E+04  3.57216E+03 -1.64653E+04  1.34938E+04 -1.57885E+04
  2.30312E+04 -1.20290E+04  2.94701E+04  1.51453E+03  2.22178E+04  1.76053E+04  4.21806E+03  3.38502E+04
 -1.64196E+04  2.87625E+04 -2.66075E+04  9.69407E+03 -2.00651E+04 -1.03832E+04 -4.19341E+03 -1.39072E+04
  2.49461E+03 -3.73607E+03 -3.36651E+03  5.48295E+03 -1.39886E+04  5.08117E+03 -1.42336E+04 -5.51491E+03
 -9.03014E+03 -1.66073E+04  4.97902E+03 -2.04804E+04  1.34162E+04 -1.48509E+04  1.57897E+04 -1.55961E+03
  9.64096E+03  1.13073E+04 -1.12615E+03  1.66612E+04 -1.08832E+04  9.40557E+03 -1.65060E+04 -3.37415E+03
 -1.21640E+04 -1.49197E+04 -1.38484E+03 -2.02358E+04  8.97454E+03 -1.61269E+04  1.70470E+04 -8.14298E+03
  1.53227E+04  6.21873E+02  1.09784E+04  4.13339E+03  5.58337E+03  5.10443E+02  8.18102E+03 -1.41880E+03
  1.49189E+04  2.91572E+03  1.56960E+04  1.33437E+04  1.03361E+04  2.61231E+04 -3.11721E+03  2.88298E+04
 -1.69190E+04  2.18245E+04 -2.63179E+04  1.08063E+04 -2.70151E+04 -1.92078E+03 -2.29072E+04 -1.52610E+04
 -1.03510E+04 -2.18772E+04  7.19797E+03 -2.03568E+04  1.76179E+04 -1.11313E+04  1.63950E+04  3.80629E+03
  6.62596E+03  1.17804E+04 -7.41549E+03  1.11491E+04 -1.39121E+04  2.52567E+03 -1.12204E+04 -8.49643E+03
 -3.61862E+01 -1.29552E+04  6.41923E+03 -9.85123E+03  8.27466E+03 -1.47727E+03  1.42836E+03  5.16723E+03
 -6.04571E+03  1.53583E+03 -4.20367E+03 -4.70023E+03  4.60775E+02 -1.11178E+04  7.92306E+03 -1.07035E+04
  1.30304E+04 -5.13753E+03  1.30276E+04  2.84768E+03  1.12129E+04  1.02810E+04  5.60343E+03  1.49903E+04
 -2.00419E+03  1.72131E+04 -1.02158E+04  1.06298E+04 -1.18376E+04  3.25236E+03 -8.81852E+03 -2.22370E+03
 -4.49670E+03 -3.41471E+03 -7.60002E+02  1.30073E+03 -2.05428E+03  2.18167E+03 -3.80735E+03  3.38021E+03
 -8.40531E+03 -5.21856E+02 -9.15167E+03 -7.38535E+03 -3.97215E+03 -1.20925E+04  3.30004E+03 -8.64260E+03
  7.46178E+03 -4.00383E+03  5.73748E+03  2.06538E+03  6.82012E+02  3.21422E+03 -3.56117E+03 -8.87100E+01
 -3.61130E+03 -5.26697E+03 -6.38188E+02 -7.64290E+03  3.98482E+03 -7.97350E+03  1.04914E+04 -4.27253E+03
  1.23479E+04  1.08360E+03  9.10242E+03  6.35767E+03  1.87802E+03  9.28263E+03 -5.19179E+03  8.52911E+03
 -7.33013E+03  2.85047E+03 -3.84731E+03 -1.38019E+03  1.01193E+03 -2.26975E+03  4.98046E+03 -1.14000E+03
  4.52032E+03  3.47422E+03  1.07409E+03  6.30103E+03 -4.53917E+03  6.61408E+03 -8.39641E+03  1.96993E+03
 -4.90703E+03 -3.66243E+03  2.43088E+02 -6.88472E+03  4.20336E+03 -3.32149E+03  3.46434E+03  7.81292E+02
  5.14185E+02  3.35513E+03 -4.16963E+03  4.59254E+03 -4.81796E+03  2.27723E+03 -5.01279E+03 -1.32213E+03
 -3.03775E+03 -6.30798E+03  1.51476E+03 -7.04414E+03  5.87377E+03 -4.99579E+03  6.63788E+03  1.03954E+03
  4.83878E+03  5.50786E+03 -6.67686E+01  7.47074E+03 -5.18332E+03  4.46841E+03 -5.43789E+03 -3.36361E+02
 -5.90254E+03 -5.43713E+03 -1.14900E+03 -5.44030E+03  2.75248E+03 -4.80175E+03  3.02059E+03 -2.89369E+03
  2.96145E+03  9.27088E+01 -8.76851E+01  1.65958E+03  5.46347E+02 -1.36768E+02  4.76600E+02 -1.80315E+03
  3.87870E+03 -8.81161E+02  5.41954E+03  6.89350E+02  5.94677E+03  3.04579E+03  5.25468E+03  7.66008E+03
 -1.21913E+03  8.66752E+03 -8.03465E+03  6.76677E+03 -1.02516E+04  1.10720E+03 -8.09561E+03 -2.44351E+03
 -4.19747E+03 -6.73515E+03 -8.46657E+02 -5.30320E+03  2.18089E+03 -2.31673E+03  1.73060E+03 -1.93527E+03
  1.34196E+03 -1.68107E+03  2.28803E+03 -2.46076E+03  3.49334E+03 -1.54714E+03  3.56532E+03  7.16276E+02
  4.63055E+03  1.16759E+03  1.38645E+03  3.36775E+03 -1.44537E+03  3.11388E+03 -4.66364E+03  2.75902E+03
 -5.00686E+03 -9.50015E+02 -1.80317E+03 -3.22836E+03 -3.44533E+01 -5.06259E+03  3.17458E+03 -5.51412E+03
  5.07272E+03 -3.48244E+03  6.59729E+03  3.95356E+02  4.92276E+03  4.19799E+03  7.90165E+02  5.91678E+03
 -2.49285E+03  5.69429E+03 -3.25343E+03  2.00316E+03 -1.92324E+03 -7.82244E+02 -4.88556E+02 -5.72099E+02
 -6.16740E+02  3.34597E+02 -6.85690E+02  1.98860E+03 -2.23445E+03  9.22932E+02 -4.15837E+03 -2.64258E+02
 -1.30833E+03 -4.07400E+03  9.64817E+02 -4.55108E+03  2.53424E+03 -4.13555E+03  3.29011E+03 -8.94668E+02
  4.28574E+03  2.06882E+03  1.64403E+03  3.25193E+03 -8.97627E+02  4.37630E+03 -2.32989E+03  2.47601E+03
 -3.94262E+03  6.48764E+02 -3.27086E+03 -1.98297E+03 -2.78362E+02 -2.96282E+03  1.80754E+03 -2.52924E+03
  2.66778E+03 -1.18785E+03  1.82386E+03  5.85585E+02  5.17679E+02  1.61722E+03  8.43982E+02  5.10733E+02
  1.68434E+03  7.11767E+02  1.34037E+03  7.85821E+02  1.07890E+03  2.09270E+03  1.35434E+03  1.71731E+03
 -1.20851E+03  2.96222E+03 -2.29100E+03  3.83362E+03 -2.64268E+03  1.36050E+03 -3.88161E+03  2.85430E+01
 -1.69090E+03 -3.42567E+03  6.07528E+02 -4.33094E+03  1.57375E+03 -2.41170E+03  2.90476E+03 -9.11134E+02
  2.29012E+03  1.84893E+03  3.43909E+02  2.14548E+03 -8.05352E+02  1.21537E+03 -7.67360E+02 -2.16231E+02
 -4.80157E+02 -1.53897E+03  1.06381E+03 -1.69951E+03  1.11642E+03 -9.14703E+02  1.19850E+03  3.34263E+02
  6.94728E+02  5.14664E+02  1.04792E+03 -6.17646E+02 -1.55843E+02  7.97327E+02  1.55880E+03 -2.52802E+02
  2.55655E+02 -2.16531E+02  1.73271E+03  5.67558E+02  1.84650E+02  2.37016E+03 -1.20951E+02  2.61098E+03
 -1.64350E+03  8.04824E+02 -1.79175E+03  1.73832E+02 -1.98817E+03 -5.28572E+02 -1.37403E+02 -1.18337E+03
  4.43140E+02 -1.12904E+03  7.02161E+02 -6.09377E+02  4.17705E+02  1.40460E+03 -1.01862E+03  1.28595E+03
 -1.26436E+03  6.99802E+02 -9.90880E+02 -9.77330E+02 -5.82702E+02 -1.98885E+03  1.62126E+02 -1.52804E+03
  4.49894E+02 -3.79328E+02  8.58378E+02  1.96301E+02  1.17673E+03 -3.75741E+02  5.45405E+02  8.87126E+02
 -2.52570E+01 -8.71991E+00 -6.65987E+02 -1.25072E+02  5.37885E+02 -5.26191E+02  1.18613E+03 -7.24102E+02
  1.19077E+03  2.18725E+02  2.41215E+03  3.09239E+02  1.03046E+03  1.58657E+03 -1.75129E+02  1.63698E+03
 -1.17460E+03  1.21836E+02 -1.14029E+03 -4.30691E+02 -6.63346E+02 -1.33784E+03  1.87142E+02 -1.59575E+02
  1.19683E+03 -5.58231E+02  7.18773E+02  6.62302E+02 -2.85770E+01  1.14638E+03  2.26166E+02  1.00228E+03
 -3.49477E+01  1.10320E+03 -5.26156E+02  2.18839E+02 -1.89751E+01  4.59025E+02 -9.03317E+02  4.92533E+02
 -3.42732E+02  9.74342E+02 -1.40112E+03  2.80886E+02 -1.48072E+03 -5.85307E+01 -2.33305E+03 -7.65115E+02
 -9.62114E+02 -2.11432E+03  8.17112E+02 -2.34784E+03  6.47610E+02 -2.25629E+03  2.39082E+03 -9.02171E+02
  2.00163E+03 -4.14984E+02  1.18788E+03  1.00946E+03 -4.46924E+02  1.33994E+03 -5.18504E+02  9.87761E+02
 -9.44382E+02  5.52791E+02 -4.20115E+02 -5.38996E+01 -1.40202E+02  7.49140E+01 -8.51362E+02 -3.86717E+01
 -1.39794E+03 -2.42625E+02 -4.97708E+02  7.06383E+01  1.14129E+02 -4.69364E+02 -1.39994E+02 -5.79226E+02
  1.04892E+03 -3.49066E+02  3.93186E+02  3.02295E+02  1.01322E+03  6.81569E+02 -5.16244E+02  6.99102E+02
 -7.54241E+02  1.81681E+03 -1.40766E+03  1.26251E+03 -1.48026E+03 -2.20847E+02 -7.83824E+02 -9.72588E+02
 -5.82070E+02 -8.48825E+02  4.77835E+02 -9.69565E+02  1.62717E+02 -5.78687E+02  4.10215E+02  2.02388E+02
  5.96382E+02  1.95104E+02  4.40013E+02  4.36138E+02 -3.28092E+02  1.98781E+01 -1.34798E+02  1.19930E+02
  2.85539E+02  7.55327E+02  3.02818E+02  4.18876E+02 -1.15852E+02  3.71686E+02  7.69411E+02 -1.74813E+01
 -4.79388E+02  3.16316E+02 -2.86919E+02  2.85481E+02 -6.11337E+02 -2.38588E+02  3.53650E+02 -5.76287E+02
  3.46624E+02 -4.12861E+02 -2.44637E+01  1.52223E+02  7.32466E+02 -7.03900E+02  5.05167E+02  5.74362E+02
  3.72717E+02  5.71450E+02 -1.46296E+02  3.99292E+02 -4.05291E+02  5.25803E+02 -2.02800E+02  1.79415E+02
 -2.65662E+02 -1.40530E+02 -2.72920E+02  7.94288E+01 -6.06337E+02 -1.41400E+02 -6.35153E+02 -2.46270E+02
 -8.56735E+02  4.77579E+02 -2.78329E+02 -6.81066E+02  4.52579E+02 -1.42438E+03  4.94492E+02 -2.26679E+02
  2.95149E+02 -1.62612E+02 -3.72683E+02  2.77141E+02  8.18730E+01  5.17608E+02 -2.85785E+02  3.81162E+02
