 $NMID ID='MM_0lb_SNR800_14hz_g45_59.RAW', FMTDAT='(8E13.5)'
 TRAMP=1., VOLUME=1. $END
  3.09630E+05  4.44400E+02  3.37785E+05  2.50502E+05  8.47235E+04  3.37962E+05 -1.32364E+05  2.50897E+05
 -1.90383E+05  8.31085E+04 -1.11993E+05 -3.23923E+04  9.84921E+02 -5.02725E+04  5.38807E+04 -2.02422E+02
  3.52027E+04  5.29253E+04 -1.67660E+04  7.53156E+04 -6.06059E+04  6.35214E+04 -8.37228E+04  3.22036E+04
 -8.10320E+04 -1.15144E+04 -5.71012E+04 -5.09857E+04 -1.49794E+04 -6.95828E+04  2.71653E+04 -4.55039E+04
  3.97224E+04  3.67480E+03  1.58355E+04  4.77196E+04 -3.43764E+04  4.68678E+04 -6.64804E+04 -1.96817E+02
 -5.34675E+04 -5.66134E+04 -6.88049E+03 -7.65921E+04  3.38042E+04 -5.50928E+04  4.78889E+04 -1.68342E+04
  4.31976E+04  1.14035E+04  3.16782E+04  2.52739E+04  1.58675E+04  2.94778E+04 -5.22836E+03  2.71851E+04
 -2.21368E+04  1.25419E+04 -1.86330E+04 -4.91340E+03  5.48463E+03 -7.44275E+03  2.22271E+04  1.19076E+04
  7.21912E+03  3.50837E+04 -3.18763E+04  3.52488E+04 -6.31586E+04  2.35978E+03 -5.68217E+04 -4.27260E+04
 -1.25856E+04 -6.28483E+04  3.98575E+04 -4.47925E+04  5.78900E+04 -2.12718E+03  3.40335E+04  3.20418E+04
 -6.09912E+03  3.54641E+04 -2.99138E+04  1.59682E+04 -3.02463E+04 -4.65676E+03 -1.66018E+04 -1.11157E+04
 -8.38183E+03 -1.28599E+04 -6.43934E+02 -1.76818E+04  7.27553E+03 -2.27456E+04  1.54471E+04 -1.33848E+04
  1.16376E+04  5.01578E+03 -8.17335E+03  1.30556E+04 -2.14144E+04 -4.26336E+03 -8.47108E+03 -3.29474E+04
  2.25982E+04 -4.31961E+04  4.78139E+04 -1.94152E+04  4.43496E+04  1.92364E+04  1.59932E+04  4.39420E+04
 -1.58924E+04  3.30411E+04 -2.54834E+04  1.41205E+03 -9.46501E+03 -2.75256E+04  2.11362E+04 -3.37493E+04
  4.07539E+04 -8.94520E+03  3.51503E+04  2.39263E+04  1.77783E+04  4.57523E+04 -8.19275E+03  4.94968E+04
 -3.11109E+04  3.36029E+04 -4.16185E+04  9.37909E+03 -4.21679E+04 -1.63862E+04 -2.32735E+04 -3.73250E+04
  7.21453E+03 -3.73843E+04  3.14416E+04 -1.45793E+04  2.90397E+04  1.11871E+04  4.13065E+03  1.92632E+04
 -1.33509E+04  8.45040E+03 -1.02093E+04 -7.45670E+03  5.75294E+03 -1.04960E+04  1.82155E+04  5.87709E+03
  1.37873E+04  2.21645E+04 -6.29131E+03  2.46980E+04 -2.22833E+04  1.12940E+04 -2.76208E+04 -4.86156E+03
 -1.99507E+04 -1.70969E+04 -8.26612E+03 -1.98852E+04  3.98209E+03 -1.93506E+04  1.56676E+04 -1.77719E+04
  2.57114E+04 -1.25964E+04  3.19864E+04  2.70692E+03  2.35713E+04  1.97381E+04  4.14385E+03  3.61182E+04
 -1.75885E+04  2.99703E+04 -2.76994E+04  1.05643E+04 -2.08995E+04 -1.02816E+04 -4.07401E+03 -1.31421E+04
  1.67783E+03 -2.96961E+03 -4.65576E+03  6.41861E+03 -1.58726E+04  5.11622E+03 -1.59566E+04 -6.71904E+03
 -1.00379E+04 -1.86160E+04  4.89145E+03 -2.27072E+04  1.50744E+04 -1.63742E+04  1.75823E+04 -1.16510E+03
  1.15537E+04  1.26112E+04 -1.23611E+03  1.87022E+04 -1.28465E+04  1.06692E+04 -1.84559E+04 -4.21364E+03
 -1.37108E+04 -1.69766E+04 -1.71469E+03 -2.23927E+04  1.03394E+04 -1.85391E+04  1.88677E+04 -8.80489E+03
  1.74231E+04  3.63387E+02  1.28742E+04  4.09298E+03  6.57621E+03  8.42988E+02  9.23930E+03 -1.50786E+03
  1.69707E+04  2.95901E+03  1.88691E+04  1.48872E+04  1.24048E+04  2.99032E+04 -3.04059E+03  3.35566E+04
 -1.93905E+04  2.65931E+04 -3.15303E+04  1.35778E+04 -3.29569E+04 -2.31825E+03 -2.69567E+04 -1.89144E+04
 -1.18001E+04 -2.68486E+04  8.97093E+03 -2.43385E+04  2.10481E+04 -1.26829E+04  1.89126E+04  5.30956E+03
  7.14022E+03  1.41026E+04 -8.45372E+03  1.24678E+04 -1.60557E+04  2.58454E+03 -1.24662E+04 -1.01158E+04
 -1.54536E+02 -1.51530E+04  7.48441E+03 -1.12875E+04  9.98484E+03 -1.17140E+03  1.76644E+03  6.30282E+03
 -6.41164E+03  2.42244E+03 -5.54430E+03 -5.34984E+03 -4.28271E+01 -1.34845E+04  9.33364E+03 -1.39580E+04
  1.64116E+04 -7.34538E+03  1.73963E+04  2.80200E+03  1.53599E+04  1.31083E+04  7.22759E+03  1.96385E+04
 -3.15142E+03  2.15652E+04 -1.35883E+04  1.34256E+04 -1.57419E+04  3.54900E+03 -1.10432E+04 -3.19245E+03
 -5.31532E+03 -4.92725E+03 -9.12810E+02  9.05990E+02 -2.14640E+03  2.36260E+03 -5.16144E+03  4.07517E+03
 -1.02035E+04 -8.05777E+02 -1.10785E+04 -9.09556E+03 -4.44029E+03 -1.44051E+04  4.62904E+03 -1.16470E+04
  9.33681E+03 -4.82498E+03  6.70932E+03  2.93231E+03  2.51518E+02  4.36369E+03 -5.09502E+03  2.33357E+01
 -4.47754E+03 -7.31754E+03 -1.19603E+03 -1.05723E+04  5.88181E+03 -1.10314E+04  1.35654E+04 -5.65335E+03
  1.61478E+04  1.48962E+03  1.16131E+04  9.29436E+03  2.22677E+03  1.23454E+04 -6.79551E+03  1.08090E+04
 -9.11081E+03  3.43885E+03 -4.60789E+03 -1.69150E+03  1.69302E+03 -3.17632E+03  5.96165E+03 -8.70613E+02
  5.28096E+03  4.87230E+03  1.22229E+03  8.63978E+03 -6.15538E+03  8.60154E+03 -1.08388E+04  2.09178E+03
 -7.15922E+03 -5.06645E+03  2.23634E+02 -9.21192E+03  5.78633E+03 -4.47143E+03  5.53852E+03  1.90114E+03
  1.03280E+03  5.70719E+03 -5.53924E+03  7.32585E+03 -7.94488E+03  3.27377E+03 -7.66517E+03 -2.47938E+03
 -4.97241E+03 -9.49347E+03  2.19927E+03 -1.11616E+04  9.44227E+03 -6.68767E+03  1.02159E+04  1.75449E+03
  6.71531E+03  8.40121E+03 -5.18320E+02  1.02597E+04 -7.60606E+03  5.87682E+03 -7.95745E+03 -9.47869E+02
 -7.60853E+03 -6.93627E+03 -1.40715E+03 -7.33516E+03  3.97850E+03 -6.33286E+03  4.51404E+03 -3.15380E+03
  3.73809E+03  7.48126E+02 -4.97917E+02  1.67108E+03  3.25647E+02 -1.25449E+03  1.10843E+03 -3.95231E+03
  6.44613E+03 -2.27121E+03  8.76729E+03  1.25687E+03  9.15837E+03  5.78479E+03  7.08935E+03  1.18701E+04
 -2.37485E+03  1.40915E+04 -1.20802E+04  1.03085E+04 -1.50421E+04  2.23917E+03 -1.19195E+04 -4.92806E+03
 -6.55534E+03 -1.01586E+04 -2.22110E+02 -8.31492E+03  3.22572E+03 -4.43605E+03  2.83203E+03 -3.02286E+03
  2.23406E+03 -2.09773E+03  2.52745E+03 -3.06907E+03  4.38887E+03 -1.92705E+03  4.95883E+03 -3.13178E+02
  6.64761E+03  1.99592E+03  2.48553E+03  5.53274E+03 -1.86833E+03  5.90325E+03 -7.01008E+03  4.77266E+03
 -8.20905E+03 -9.50582E+02 -4.29643E+03 -5.51457E+03 -1.60271E+02 -8.79515E+03  5.03352E+03 -8.87020E+03
  9.23340E+03 -5.41864E+03  1.10293E+04  1.01983E+03  7.88546E+03  7.32451E+03  1.46276E+03  9.79092E+03
 -3.95977E+03  8.33919E+03 -5.65088E+03  2.82131E+03 -3.43561E+03 -1.25406E+03 -1.31330E+03 -1.05697E+03
 -9.04251E+02  2.76472E+02 -1.21872E+03  2.51154E+03 -3.83260E+03  1.69360E+03 -6.09077E+03 -8.15141E+02
 -3.31161E+03 -6.06310E+03  3.69124E+02 -7.86955E+03  4.67919E+03 -7.20971E+03  7.06411E+03 -1.99673E+03
  7.51311E+03  3.77548E+03  3.59477E+03  6.57991E+03 -1.48581E+03  7.75660E+03 -5.47262E+03  4.92370E+03
 -7.09047E+03  6.47124E+02 -5.55539E+03 -4.38195E+03 -5.20934E+02 -5.94957E+03  3.30253E+03 -4.70299E+03
  4.85953E+03 -2.03152E+03  3.17093E+03  1.25391E+03  1.16355E+03  2.55539E+03  1.16704E+03  1.45568E+03
  1.89159E+03  7.13542E+02  2.00502E+03  9.75317E+02  2.12174E+03  3.39093E+03  2.06411E+03  3.60852E+03
 -1.75654E+03  6.07142E+03 -5.19997E+03  6.90382E+03 -6.90438E+03  1.92937E+03 -7.90093E+03 -2.69060E+03
 -3.44397E+03 -7.06791E+03  8.79134E+02 -8.41116E+03  4.24130E+03 -4.96075E+03  5.96416E+03 -1.44763E+03
  4.54025E+03  2.89254E+03  9.23965E+02  4.17618E+03 -1.99277E+03  2.76942E+03 -2.62761E+03 -2.18017E+02
 -1.15102E+03 -3.03235E+03  2.25302E+03 -3.11116E+03  2.85655E+03 -1.79948E+03  2.89434E+03  5.88119E+02
  1.67489E+03  1.12873E+03  8.80971E+02  8.28150E+02 -4.22907E+02  1.21491E+03  1.87331E+03 -5.72286E+02
  8.55325E+02 -3.59222E+02  3.03237E+03  1.29032E+03  1.33290E+03  4.00289E+03 -8.60824E+02  5.22242E+03
 -3.23562E+03  3.02347E+03 -4.63917E+03  6.78451E+02 -4.38762E+03 -1.39710E+03 -1.05287E+03 -2.41596E+03
  4.76910E+02 -2.50543E+03  1.79755E+03 -1.35323E+03  1.11098E+03  2.15052E+03 -9.58155E+02  2.31633E+03
 -2.83049E+03  1.43818E+03 -3.11840E+03 -2.02601E+03 -1.32415E+03 -4.07587E+03  1.59041E+02 -3.75391E+03
  1.79676E+03 -2.05059E+03  2.35195E+03 -1.22229E+02  2.57062E+03  4.86237E+02  6.25254E+02  2.24965E+03
 -1.15085E+03  5.74291E+02 -1.84617E+03 -1.05833E+03  6.28353E+02 -2.72928E+03  3.47456E+03 -2.05330E+03
  3.65295E+03  3.70371E+02  4.68346E+03  2.44070E+03  1.88927E+03  4.04469E+03 -1.40494E+03  4.22539E+03
 -3.42545E+03  1.52697E+03 -3.45021E+03 -7.07142E+02 -1.65755E+03 -2.82625E+03  6.22423E+02 -2.24758E+03
  2.91594E+03 -1.63836E+03  2.08893E+03  1.10074E+03  3.26625E+02  2.50036E+03  3.20835E+01  2.06006E+03
 -1.06950E+03  1.82675E+03 -8.06126E+02  3.29815E+02 -4.12880E+02  4.43241E+02 -1.18056E+03  1.35791E+03
 -9.51659E+02  1.76986E+03 -3.05274E+03  1.37844E+03 -4.13305E+03  1.24844E+02 -5.05884E+03 -2.68081E+03
 -2.43099E+03 -5.44451E+03  1.19278E+03 -6.63973E+03  3.53574E+03 -5.16126E+03  5.99631E+03 -2.17286E+03
  5.53772E+03  9.30152E+02  3.59041E+03  3.82573E+03 -8.20526E+01  3.88373E+03 -1.57420E+03  3.09347E+03
 -2.38095E+03  1.02068E+03 -1.53494E+03 -4.93916E+02 -9.86787E+02 -7.92001E+01 -6.59193E+02  4.30547E+01
 -1.41830E+03  3.95450E+02 -1.65511E+03 -1.14930E+02  9.28763E+01 -1.08094E+03  1.02189E+02 -1.67062E+03
  2.25886E+03 -1.04810E+03  2.09120E+03  2.59585E+02  2.81667E+03  2.31460E+03  5.05311E+01  3.99529E+03
 -2.08455E+03  5.16153E+03 -4.30014E+03  2.87644E+03 -4.73641E+03 -6.28609E+02 -3.57453E+03 -2.86412E+03
 -1.75868E+03 -3.48967E+03  8.36061E+02 -3.54810E+03  2.32171E+03 -1.73971E+03  2.20678E+03  9.71074E+01
  1.41008E+03  1.06189E+03 -2.48038E+02  1.23864E+03 -1.03842E+03  2.01206E+02  1.09180E+02 -6.72561E+02
  1.48394E+03 -4.45840E+02  1.14293E+03  7.48725E+02  6.72056E+02  1.32692E+03  2.92890E+02  1.36461E+03
 -1.47156E+03  1.61810E+03 -1.99971E+03 -7.63685E+01 -2.18578E+03 -1.57115E+03 -2.72703E+01 -3.22684E+03
  1.87398E+03 -2.36202E+03  2.59672E+03 -5.19905E+02  2.52662E+03  1.78034E+02  1.51335E+03  2.12683E+03
  1.20219E+02  2.24750E+03 -8.84565E+02  2.00886E+03 -1.44240E+03  1.48724E+03 -1.29807E+03  2.03663E+02
 -7.42760E+02 -6.16538E+01 -7.66243E+02  2.51226E+02 -1.46598E+03  3.06814E+02 -2.05702E+03 -4.49915E+02
 -2.03367E+03 -5.29632E+02 -7.15918E+02 -2.38141E+03  1.39960E+03 -2.78933E+03  2.24177E+03 -1.04875E+03
  1.93195E+03  4.41806E+02  9.12047E+02  1.31353E+03 -1.53489E+02  2.32928E+03 -1.56930E+03  1.97203E+03
