 $NMID ID='MM_0lb_SNR800_12hz_g50_22.RAW', FMTDAT='(8E13.5)'
 TRAMP=1., VOLUME=1. $END
  3.09913E+05  2.63123E+02  3.37812E+05  2.50528E+05  8.48706E+04  3.38490E+05 -1.32737E+05  2.51605E+05
 -1.90411E+05  8.32195E+04 -1.11868E+05 -3.27183E+04  6.14742E+02 -5.04547E+04  5.35783E+04 -4.35673E+02
  3.52109E+04  5.23593E+04 -1.67383E+04  7.57352E+04 -6.10326E+04  6.36404E+04 -8.44933E+04  3.20922E+04
 -8.16246E+04 -1.15306E+04 -5.74751E+04 -5.16614E+04 -1.52525E+04 -7.01106E+04  2.79971E+04 -4.59845E+04
  4.03834E+04  3.94314E+03  1.62009E+04  4.83934E+04 -3.43254E+04  4.74362E+04 -6.75608E+04 -1.66701E+02
 -5.38754E+04 -5.75172E+04 -7.05068E+03 -7.78678E+04  3.42799E+04 -5.59303E+04  4.87737E+04 -1.79185E+04
  4.43487E+04  1.13038E+04  3.20806E+04  2.57483E+04  1.59920E+04  3.00646E+04 -5.62291E+03  2.74548E+04
 -2.19461E+04  1.22873E+04 -1.83108E+04 -5.31341E+03  6.13658E+03 -7.43841E+03  2.30541E+04  1.27571E+04
  7.23261E+03  3.65286E+04 -3.28343E+04  3.62069E+04 -6.43565E+04  2.31092E+03 -5.75676E+04 -4.31918E+04
 -1.21343E+04 -6.40163E+04  4.08642E+04 -4.63241E+04  5.91946E+04 -2.07185E+03  3.55099E+04  3.32738E+04
 -6.04441E+03  3.76386E+04 -3.06816E+04  1.66998E+04 -3.14584E+04 -4.03527E+03 -1.79623E+04 -1.16231E+04
 -8.51565E+03 -1.43666E+04 -6.10499E+02 -1.87180E+04  7.97448E+03 -2.33887E+04  1.56637E+04 -1.29109E+04
  1.11575E+04  5.48844E+03 -9.15314E+03  1.30692E+04 -2.23030E+04 -4.97397E+03 -8.44719E+03 -3.53856E+04
  2.35922E+04 -4.47584E+04  4.98781E+04 -2.00446E+04  4.62706E+04  2.00040E+04  1.64109E+04  4.53416E+04
 -1.58072E+04  3.45862E+04 -2.62491E+04  2.22778E+03 -1.08486E+04 -2.86526E+04  2.13537E+04 -3.50128E+04
  4.27416E+04 -1.00954E+04  3.77812E+04  2.40640E+04  1.94925E+04  4.83611E+04 -7.92208E+03  5.23679E+04
 -3.31090E+04  3.55866E+04 -4.41684E+04  1.01181E+04 -4.45876E+04 -1.77451E+04 -2.44457E+04 -3.94766E+04
  7.43400E+03 -3.97203E+04  3.27524E+04 -1.57853E+04  3.03265E+04  1.11380E+04  4.60458E+03  2.00195E+04
 -1.38238E+04  8.70809E+03 -1.05789E+04 -7.30392E+03  5.89169E+03 -1.09365E+04  1.82278E+04  5.75750E+03
  1.41101E+04  2.26655E+04 -5.43945E+03  2.59779E+04 -2.26976E+04  1.24445E+04 -2.92287E+04 -3.80345E+03
 -2.27101E+04 -1.76123E+04 -9.37261E+03 -2.23806E+04  4.12862E+03 -2.20091E+04  1.72899E+04 -2.04304E+04
  2.87615E+04 -1.34704E+04  3.46017E+04  3.20649E+03  2.51489E+04  2.17933E+04  4.28242E+03  3.87383E+04
 -1.83746E+04  3.15998E+04 -2.88513E+04  1.09064E+04 -2.13638E+04 -1.04783E+04 -4.36674E+03 -1.33698E+04
  9.53998E+02 -1.97735E+03 -6.00859E+03  7.27585E+03 -1.78428E+04  4.97597E+03 -1.77265E+04 -7.93417E+03
 -1.05847E+04 -2.05471E+04  5.66068E+03 -2.48986E+04  1.64084E+04 -1.78087E+04  2.01773E+04 -1.95518E+03
  1.27315E+04  1.43459E+04 -1.08855E+03  2.08720E+04 -1.45221E+04  1.18225E+04 -2.09183E+04 -4.55502E+03
 -1.51061E+04 -1.82628E+04 -2.15729E+03 -2.54090E+04  1.13098E+04 -2.04816E+04  2.07480E+04 -1.06474E+04
  1.93681E+04 -3.55513E+01  1.42367E+04  4.55390E+03  7.86966E+03  1.05202E+03  1.06628E+04 -1.97604E+03
  1.93521E+04  2.77397E+03  2.14939E+04  1.61978E+04  1.46287E+04  3.31645E+04 -2.76670E+03  3.82153E+04
 -2.19816E+04  3.12978E+04 -3.60274E+04  1.61454E+04 -3.77642E+04 -2.79893E+03 -3.11796E+04 -2.17564E+04
 -1.28669E+04 -3.16726E+04  1.09104E+04 -2.79703E+04  2.37399E+04 -1.37192E+04  2.13673E+04  6.34676E+03
  7.51995E+03  1.60526E+04 -9.82564E+03  1.39769E+04 -1.77170E+04  2.80279E+03 -1.33627E+04 -1.12383E+04
 -2.27045E+02 -1.65947E+04  8.72364E+03 -1.25840E+04  1.12563E+04 -1.18700E+03  2.84803E+03  7.62068E+03
 -7.58032E+03  3.55243E+03 -7.31616E+03 -6.01314E+03 -1.40941E+03 -1.51194E+04  1.05767E+04 -1.65245E+04
  1.89137E+04 -8.50751E+03  2.09073E+04  3.17360E+03  1.84692E+04  1.51735E+04  8.80835E+03  2.37094E+04
 -4.18198E+03  2.55758E+04 -1.67273E+04  1.58336E+04 -1.85049E+04  3.76350E+03 -1.28877E+04 -4.19895E+03
 -5.56550E+03 -5.70760E+03 -6.84366E+02  6.05600E+02 -2.47838E+03  3.22260E+03 -5.97145E+03  4.90944E+03
 -1.18546E+04 -1.00419E+03 -1.29662E+04 -1.01147E+04 -5.18629E+03 -1.65485E+04  5.28470E+03 -1.29165E+04
  1.07779E+04 -5.62689E+03  7.76472E+03  3.37041E+03 -5.33158E+01  5.21541E+03 -6.25069E+03 -6.05593E+02
 -6.35835E+03 -8.19624E+03 -7.07903E+02 -1.22390E+04  7.29670E+03 -1.35558E+04  1.58100E+04 -6.84430E+03
  1.92218E+04  1.74869E+03  1.37535E+04  1.11190E+04  2.85875E+03  1.51579E+04 -8.19967E+03  1.29135E+04
 -1.03985E+04  3.69647E+03 -5.56419E+03 -2.75474E+03  2.08988E+03 -3.37582E+03  7.10252E+03 -1.35366E+03
  5.97272E+03  5.39748E+03  8.58854E+02  1.01503E+04 -7.51904E+03  9.90607E+03 -1.26958E+04  2.50947E+03
 -8.42238E+03 -6.46681E+03  1.83964E+02 -1.08359E+04  6.82906E+03 -5.27319E+03  7.19087E+03  2.47297E+03
  1.73842E+03  7.57982E+03 -6.82702E+03  8.83529E+03 -1.02897E+04  3.98234E+03 -1.04370E+04 -3.59521E+03
 -5.84802E+03 -1.19218E+04  3.17955E+03 -1.36343E+04  1.22878E+04 -8.41925E+03  1.27285E+04  2.18952E+03
  7.80771E+03  1.00172E+04 -8.94935E+02  1.24443E+04 -8.97616E+03  7.35495E+03 -1.00453E+04 -9.31477E+02
 -8.78340E+03 -8.57841E+03 -1.45204E+03 -9.14465E+03  4.70177E+03 -7.89765E+03  6.03411E+03 -3.34209E+03
  4.43095E+03  1.19929E+03 -8.16329E+02  1.47321E+03 -2.82961E+02 -2.43008E+03  1.53473E+03 -5.37919E+03
  8.58209E+03 -3.34513E+03  1.20516E+04  1.51103E+03  1.12666E+04  7.69377E+03  8.28441E+03  1.54846E+04
 -3.33397E+03  1.77105E+04 -1.51671E+04  1.28506E+04 -1.94096E+04  2.67356E+03 -1.54368E+04 -6.69477E+03
 -7.79896E+03 -1.27056E+04 -4.05366E+02 -1.08372E+04  4.09496E+03 -5.67739E+03  3.88288E+03 -3.92363E+03
  2.99667E+03 -2.57996E+03  3.24946E+03 -3.35820E+03  5.14152E+03 -2.70964E+03  6.59758E+03 -7.33030E+02
  8.09683E+03  1.73464E+03  4.13112E+03  7.09780E+03 -1.94956E+03  7.71185E+03 -8.35765E+03  6.41839E+03
 -1.09909E+04 -1.36402E+03 -6.52218E+03 -7.36640E+03 -6.67557E+02 -1.14554E+04  6.78041E+03 -1.15020E+04
  1.17051E+04 -6.57749E+03  1.43948E+04  1.87011E+03  1.00172E+04  9.99917E+03  1.58412E+03  1.26350E+04
 -5.49978E+03  1.06265E+04 -7.38263E+03  3.80579E+03 -4.87222E+03 -1.37636E+03 -2.12853E+03 -1.41542E+03
 -1.04671E+03  4.73446E+02 -1.70164E+03  2.73279E+03 -5.01076E+03  1.91592E+03 -7.80544E+03 -1.26459E+03
 -5.09169E+03 -7.05456E+03  3.41543E+02 -1.03866E+04  6.32465E+03 -9.59809E+03  9.68630E+03 -2.75946E+03
  1.02179E+04  5.17446E+03  4.46547E+03  8.86213E+03 -1.84782E+03  1.06135E+04 -7.12018E+03  6.30830E+03
 -9.68889E+03  6.16541E+02 -7.86533E+03 -5.85199E+03 -7.50335E+02 -8.71727E+03  4.32735E+03 -6.10587E+03
  6.60188E+03 -2.41308E+03  4.34656E+03  1.95236E+03  1.49789E+03  3.40102E+03  9.44622E+02  1.28992E+03
  2.25236E+03  9.46184E+02  2.65925E+03  1.54891E+03  2.73393E+03  3.73509E+03  2.80548E+03  5.46817E+03
 -2.12429E+03  7.88569E+03 -6.89596E+03  8.63487E+03 -1.02263E+04  2.41109E+03 -1.05497E+04 -3.45100E+03
 -5.05847E+03 -9.99358E+03  1.35720E+03 -1.10833E+04  5.67190E+03 -6.98399E+03  8.10048E+03 -2.20790E+03
  6.50843E+03  4.08477E+03  1.20900E+03  6.06037E+03 -2.72257E+03  3.76194E+03 -4.03034E+03 -6.33682E+02
 -1.70749E+03 -4.26658E+03  2.64783E+03 -4.44382E+03  3.80184E+03 -2.07697E+03  3.98849E+03  7.50242E+02
  2.50241E+03  1.84907E+03  1.30173E+03  1.21572E+03 -5.46392E+02  1.48962E+03  1.60481E+03 -2.09034E+02
  1.30169E+03 -7.98683E+02  4.37615E+03  1.57122E+03  2.08018E+03  5.74961E+03 -7.34933E+02  7.24748E+03
 -4.52288E+03  4.26166E+03 -6.06862E+03  1.19073E+03 -6.00517E+03 -2.43680E+03 -2.23066E+03 -3.46016E+03
  8.90830E+02 -3.89728E+03  2.56889E+03 -1.70612E+03  2.16599E+03  2.18668E+03 -1.07459E+03  3.38660E+03
 -3.97353E+03  2.21025E+03 -4.26541E+03 -2.64099E+03 -2.47699E+03 -5.42966E+03  6.80356E+02 -5.29342E+03
  3.28156E+03 -2.75372E+03  3.47677E+03  8.32293E+01  3.30047E+03  1.05661E+03  4.46075E+02  2.92847E+03
 -1.56410E+03  6.31965E+02 -2.43551E+03 -1.64418E+03  1.05023E+03 -3.78090E+03  4.64339E+03 -3.13389E+03
  5.77615E+03  4.62722E+02  6.54045E+03  4.02590E+03  2.05193E+03  6.49635E+03 -1.99833E+03  5.82766E+03
 -4.91602E+03  1.91069E+03 -5.43795E+03 -9.09476E+02 -2.71982E+03 -4.32819E+03  9.51448E+02 -3.71664E+03
  3.85818E+03 -1.88506E+03  3.50492E+03  1.40918E+03  8.40620E+02  3.71368E+03 -3.78340E+02  3.15190E+03
 -1.79576E+03  2.20623E+03 -1.77986E+03  7.46910E+02 -5.32571E+02  6.80996E+02 -1.28364E+03  1.31567E+03
 -1.73714E+03  2.46440E+03 -4.42621E+03  1.81255E+03 -5.87515E+03 -2.13706E+02 -6.79965E+03 -3.61150E+03
 -3.28967E+03 -7.89799E+03  1.28078E+03 -9.54081E+03  5.40663E+03 -7.03419E+03  8.68435E+03 -2.94869E+03
  7.90276E+03  1.56021E+03  4.86757E+03  5.81439E+03  2.77559E+02  6.09532E+03 -2.17740E+03  4.56342E+03
 -3.46755E+03  2.07188E+03 -2.23142E+03 -8.36914E+02 -1.02349E+03 -3.80058E+02 -6.04792E+02  1.47556E+02
 -1.37873E+03  2.77307E+01 -1.60946E+03 -3.75415E+02 -3.69291E+02 -1.37333E+03  1.56451E+02 -2.24994E+03
  3.12785E+03 -1.94406E+03  3.34032E+03 -1.92514E+02  4.21080E+03  3.11292E+03  9.80667E+02  6.05142E+03
 -2.96700E+03  7.12746E+03 -5.97117E+03  4.17080E+03 -7.12882E+03 -1.79615E+02 -5.16810E+03 -4.35991E+03
 -2.38571E+03 -6.04121E+03  1.33492E+03 -5.17478E+03  3.36707E+03 -2.64019E+03  3.83703E+03  3.96716E+02
  1.98398E+03  1.65758E+03 -3.79719E+01  1.68921E+03 -1.14756E+03 -4.74043E+02  4.18549E+01 -9.50131E+02
  1.68623E+03 -3.60283E+02  2.36010E+03  6.55698E+02  1.21553E+03  2.25511E+03  4.39138E+02  2.63210E+03
 -2.67952E+03  2.42539E+03 -3.35736E+03  2.96881E+02 -3.24171E+03 -2.38088E+03 -1.48683E+02 -4.81630E+03
  2.53133E+03 -3.78787E+03  4.17065E+03 -9.52010E+02  4.46590E+03  8.85763E+02  2.71323E+03  3.61888E+03
  5.52907E+02  3.79671E+03 -1.68332E+03  2.85972E+03 -2.40646E+03  1.60474E+03 -1.92488E+03  1.66333E+02
 -1.17207E+03  5.37196E+01 -9.95991E+02  6.83124E+02 -1.92278E+03  7.24926E+02 -3.28918E+03 -7.00296E+02
 -3.20913E+03 -1.35427E+03 -8.78009E+02 -3.73548E+03  1.55062E+03 -4.21538E+03  3.54994E+03 -2.03527E+03
  3.79154E+03  5.92021E+02  1.83062E+03  2.29773E+03 -3.28642E+02  3.60833E+03 -2.49615E+03  2.56650E+03
