 $NMID ID='MM_0lb_SNR800_16hz_g50_91.RAW', FMTDAT='(8E13.5)'
 TRAMP=1., VOLUME=1. $END
  3.09926E+05  3.85400E+02  3.37381E+05  2.50808E+05  8.45227E+04  3.37656E+05 -1.32430E+05  2.50786E+05
 -1.90221E+05  8.31197E+04 -1.11603E+05 -3.27186E+04  1.06868E+03 -5.06820E+04  5.36722E+04 -1.98909E+02
  3.51894E+04  5.30462E+04 -1.67496E+04  7.52360E+04 -6.05742E+04  6.32681E+04 -8.37749E+04  3.20632E+04
 -8.05230E+04 -1.14343E+04 -5.69144E+04 -5.09969E+04 -1.50768E+04 -6.92195E+04  2.70578E+04 -4.53683E+04
  3.94680E+04  3.93534E+03  1.59319E+04  4.77793E+04 -3.42367E+04  4.67996E+04 -6.63349E+04 -3.99641E+02
 -5.26935E+04 -5.66362E+04 -6.60425E+03 -7.64167E+04  3.34016E+04 -5.43248E+04  4.74182E+04 -1.72044E+04
  4.28082E+04  1.12472E+04  3.15361E+04  2.52544E+04  1.59783E+04  2.87270E+04 -4.94297E+03  2.70649E+04
 -2.18566E+04  1.25376E+04 -1.88150E+04 -4.66547E+03  5.07695E+03 -7.25212E+03  2.19628E+04  1.18032E+04
  7.09402E+03  3.47485E+04 -3.11570E+04  3.49013E+04 -6.25018E+04  2.47753E+03 -5.63901E+04 -4.21797E+04
 -1.25274E+04 -6.20319E+04  3.90291E+04 -4.46780E+04  5.75467E+04 -2.15084E+03  3.33264E+04  3.16583E+04
 -6.25800E+03  3.48163E+04 -2.93750E+04  1.49702E+04 -2.93700E+04 -4.86276E+03 -1.57517E+04 -1.06920E+04
 -7.91070E+03 -1.27885E+04 -7.91582E+02 -1.73775E+04  7.03221E+03 -2.28297E+04  1.49112E+04 -1.36486E+04
  1.18042E+04  4.89796E+03 -7.61299E+03  1.28780E+04 -2.05172E+04 -3.84137E+03 -8.43739E+03 -3.25071E+04
  2.20763E+04 -4.21461E+04  4.69156E+04 -1.94300E+04  4.38630E+04  1.89758E+04  1.52400E+04  4.30309E+04
 -1.55503E+04  3.22947E+04 -2.46273E+04  1.59872E+03 -9.23486E+03 -2.75412E+04  2.07963E+04 -3.30019E+04
  4.00665E+04 -8.35315E+03  3.37731E+04  2.34549E+04  1.69842E+04  4.52225E+04 -7.91788E+03  4.83173E+04
 -3.02961E+04  3.21537E+04 -4.02963E+04  8.99620E+03 -4.08083E+04 -1.61685E+04 -2.25273E+04 -3.66936E+04
  6.97805E+03 -3.64754E+04  3.07072E+04 -1.38756E+04  2.83918E+04  1.07430E+04  3.61205E+03  1.87540E+04
 -1.36198E+04  8.15349E+03 -1.00783E+04 -7.64173E+03  5.31366E+03 -1.05094E+04  1.76272E+04  6.03289E+03
  1.30904E+04  2.18130E+04 -6.21232E+03  2.43139E+04 -2.22834E+04  1.09185E+04 -2.67532E+04 -5.54634E+03
 -1.91746E+04 -1.70243E+04 -7.33323E+03 -1.90007E+04  3.80789E+03 -1.77028E+04  1.46140E+04 -1.65262E+04
  2.43360E+04 -1.20195E+04  3.07167E+04  2.42201E+03  2.28348E+04  1.85651E+04  4.33548E+03  3.46827E+04
 -1.71465E+04  2.94318E+04 -2.70850E+04  9.91900E+03 -2.04734E+04 -1.06117E+04 -4.12363E+03 -1.34591E+04
  2.35778E+03 -3.55872E+03 -3.99462E+03  6.09279E+03 -1.50634E+04  5.32044E+03 -1.51337E+04 -6.31059E+03
 -9.44946E+03 -1.73992E+04  5.00518E+03 -2.13877E+04  1.39588E+04 -1.55168E+04  1.65208E+04 -1.62435E+03
  1.02715E+04  1.22551E+04 -1.00885E+03  1.74705E+04 -1.19260E+04  1.01555E+04 -1.76110E+04 -3.73373E+03
 -1.27565E+04 -1.59179E+04 -1.49594E+03 -2.13032E+04  9.84127E+03 -1.73520E+04  1.80712E+04 -8.54930E+03
  1.63069E+04  5.94223E+02  1.19153E+04  4.51747E+03  5.85214E+03  8.98307E+02  8.76031E+03 -1.63767E+03
  1.58049E+04  2.70300E+03  1.73833E+04  1.39421E+04  1.11290E+04  2.79268E+04 -2.83399E+03  3.11772E+04
 -1.79586E+04  2.44967E+04 -2.87710E+04  1.21387E+04 -3.00611E+04 -2.16198E+03 -2.50150E+04 -1.70425E+04
 -1.12449E+04 -2.45466E+04  8.17649E+03 -2.24911E+04  1.93257E+04 -1.18010E+04  1.76001E+04  4.80539E+03
  6.89649E+03  1.29332E+04 -8.13139E+03  1.18637E+04 -1.49291E+04  2.70332E+03 -1.16439E+04 -9.35283E+03
 -1.51005E+02 -1.41583E+04  6.88397E+03 -1.08300E+04  9.38506E+03 -1.44907E+03  1.77251E+03  5.98537E+03
 -6.15776E+03  2.13240E+03 -4.91548E+03 -4.95797E+03 -9.52870E+01 -1.19383E+04  8.70746E+03 -1.23572E+04
  1.46186E+04 -6.31116E+03  1.53271E+04  2.99881E+03  1.31855E+04  1.19138E+04  6.21549E+03  1.75848E+04
 -2.59802E+03  1.94172E+04 -1.19824E+04  1.21736E+04 -1.39472E+04  3.43492E+03 -1.02426E+04 -2.96983E+03
 -4.69200E+03 -4.44379E+03 -7.41396E+02  1.06205E+03 -2.26129E+03  2.31568E+03 -4.41374E+03  4.28770E+03
 -9.46316E+03 -6.78632E+02 -1.00467E+04 -8.21750E+03 -4.23032E+03 -1.31410E+04  4.15378E+03 -9.98253E+03
  8.66048E+03 -4.42865E+03  6.39787E+03  2.75888E+03  3.66188E+02  3.99660E+03 -4.45793E+03  1.34080E+02
 -4.34849E+03 -6.26799E+03 -6.99840E+02 -9.16904E+03  5.11215E+03 -9.79727E+03  1.21010E+04 -4.81133E+03
  1.41098E+04  9.23565E+02  1.02434E+04  8.29229E+03  1.86119E+03  1.09974E+04 -6.28611E+03  1.00657E+04
 -8.10382E+03  2.86937E+03 -4.30909E+03 -1.78620E+03  1.57342E+03 -2.69715E+03  5.29191E+03 -8.56102E+02
  4.73964E+03  4.28383E+03  1.14692E+03  7.85018E+03 -5.42978E+03  7.55939E+03 -9.41659E+03  2.11691E+03
 -6.09326E+03 -4.67243E+03  2.87044E+02 -8.21671E+03  5.20289E+03 -3.91207E+03  4.90540E+03  1.62662E+03
  8.21089E+02  4.96878E+03 -4.87900E+03  6.11294E+03 -6.56306E+03  3.25818E+03 -6.27785E+03 -1.97863E+03
 -3.91792E+03 -8.00269E+03  1.52570E+03 -9.14929E+03  8.17330E+03 -6.08293E+03  8.67293E+03  1.39298E+03
  6.04410E+03  6.94364E+03 -1.38558E+02  8.94697E+03 -6.21896E+03  5.11719E+03 -6.62360E+03 -8.33644E+02
 -6.60943E+03 -6.14254E+03 -1.26820E+03 -6.47240E+03  3.32631E+03 -5.81662E+03  4.09992E+03 -3.18775E+03
  3.35182E+03  5.26898E+02 -1.72420E+02  1.48882E+03  7.13162E+01 -8.42089E+02  4.01104E+02 -2.80150E+03
  5.58638E+03 -1.50497E+03  7.48073E+03  9.83153E+02  7.48065E+03  4.56371E+03  6.04753E+03  1.02319E+04
 -1.96073E+03  1.13502E+04 -1.02267E+04  8.88287E+03 -1.28428E+04  1.87340E+03 -9.96091E+03 -3.67471E+03
 -5.29469E+03 -8.77320E+03 -6.72654E+02 -6.66846E+03  2.53552E+03 -3.39736E+03  2.62076E+03 -2.50902E+03
  2.05157E+03 -1.70625E+03  2.32381E+03 -2.65274E+03  3.99800E+03 -1.73912E+03  4.31874E+03  3.08963E+02
  5.73442E+03  1.39760E+03  2.22757E+03  4.65892E+03 -1.87130E+03  4.53950E+03 -5.69753E+03  3.70220E+03
 -6.98148E+03 -9.69286E+02 -3.07626E+03 -4.67652E+03  3.88807E+02 -7.17714E+03  4.44228E+03 -7.15762E+03
  7.36936E+03 -4.34871E+03  9.04120E+03  8.22246E+02  6.47050E+03  5.97483E+03  1.05059E+03  7.88355E+03
 -2.66001E+03  7.46575E+03 -4.62480E+03  2.05437E+03 -2.83504E+03 -9.80798E+02 -1.13728E+03 -1.01195E+03
 -3.97216E+02  4.24211E+02 -1.30529E+03  2.02285E+03 -3.08099E+03  1.56106E+03 -5.11675E+03 -4.96149E+02
 -2.58786E+03 -4.97044E+03  4.38650E+02 -6.61008E+03  3.89021E+03 -5.93851E+03  5.69306E+03 -1.50320E+03
  6.04234E+03  3.51476E+03  2.76005E+03  5.07382E+03 -9.00029E+02  6.09851E+03 -3.89124E+03  3.91356E+03
 -5.50990E+03  4.59437E+02 -4.70804E+03 -3.66260E+03  2.08817E+01 -4.70242E+03  2.85371E+03 -3.76117E+03
  3.73250E+03 -1.82250E+03  2.86310E+03  8.00828E+02  6.82298E+02  2.16067E+03  9.75742E+02  8.19585E+02
  1.87979E+03  4.22766E+02  1.69045E+03  1.08743E+03  1.69117E+03  2.94246E+03  1.81830E+03  2.78071E+03
 -1.38490E+03  4.32052E+03 -3.81597E+03  5.50434E+03 -5.11492E+03  1.55835E+03 -6.21729E+03 -1.31316E+03
 -2.68136E+03 -5.46709E+03  6.82070E+02 -6.51765E+03  3.08551E+03 -3.96287E+03  4.51597E+03 -1.30632E+03
  3.74887E+03  2.63243E+03  7.08053E+02  3.16731E+03 -1.19629E+03  2.11394E+03 -2.00971E+03 -2.16963E+02
 -1.04233E+03 -2.36076E+03  1.56078E+03 -2.18720E+03  1.94605E+03 -1.58303E+03  2.02350E+03  4.46091E+02
  1.08276E+03  9.49649E+02  6.65649E+02  1.05577E+02 -6.33186E+02  1.00956E+03  1.49626E+03 -3.51063E+02
  4.84980E+02 -3.35191E+02  2.51862E+03  1.03800E+03  9.95975E+02  3.07807E+03 -4.97339E+02  3.84232E+03
 -2.29388E+03  1.98121E+03 -3.13241E+03  5.03347E+02 -3.27596E+03 -1.24811E+03 -5.38515E+02 -1.86300E+03
  5.85655E+02 -1.76204E+03  1.40980E+03 -7.94738E+02  1.10866E+03  1.67778E+03 -7.59483E+02  1.87408E+03
 -2.13972E+03  9.14329E+02 -2.09599E+03 -1.70045E+03 -1.25309E+03 -2.85722E+03  3.31069E+02 -2.30184E+03
  8.36868E+02 -1.33956E+03  1.69013E+03  4.23158E+01  1.80852E+03  3.62479E+02  5.31134E+02  1.53291E+03
 -7.54835E+02  1.49654E+02 -1.72699E+03 -6.42958E+02  5.18088E+02 -1.76118E+03  2.79205E+03 -1.76392E+03
  2.29571E+03  3.03328E+02  3.75555E+03  1.68765E+03  1.62851E+03  3.02514E+03 -8.95046E+02  2.96482E+03
 -2.75215E+03  8.83061E+02 -2.59510E+03 -4.38434E+02 -1.14559E+03 -2.13142E+03  3.25262E+02 -1.19057E+03
  2.18282E+03 -1.08866E+03  1.57231E+03  1.04437E+03  1.12016E+02  1.87218E+03  8.08509E+01  1.58735E+03
 -6.69681E+02  1.52258E+03 -5.42864E+02  1.50472E+02  6.65051E+00  4.64697E+02 -8.37489E+02  8.54488E+02
 -6.00524E+02  1.48317E+03 -2.46537E+03  1.04684E+03 -2.76267E+03  2.22691E+02 -3.79193E+03 -1.59088E+03
 -1.41050E+03 -3.90109E+03  7.29294E+02 -4.64108E+03  1.89012E+03 -3.91296E+03  4.40605E+03 -1.25882E+03
  3.69333E+03  5.53077E+02  2.19117E+03  2.75621E+03 -2.18841E+02  2.67689E+03 -1.02508E+03  1.93600E+03
 -1.57659E+03  1.18857E+03 -6.76124E+02 -1.71658E+02 -4.21365E+02  2.36135E+01 -6.54040E+02 -2.31425E+02
 -1.03297E+03  7.44638E+01 -1.12210E+03 -2.40442E+02 -9.51449E+01 -7.41607E+02 -3.32102E+02 -1.37033E+03
  1.69538E+03 -8.25214E+02  1.03631E+03  5.27461E+01  1.98237E+03  1.38186E+03 -1.81535E+02  2.44811E+03
 -1.55723E+03  3.41307E+03 -2.74090E+03  1.98334E+03 -3.09391E+03  1.41084E+01 -2.36571E+03 -1.96018E+03
 -1.41934E+03 -2.48777E+03  5.83220E+02 -1.77110E+03  1.57106E+03 -1.11859E+03  1.28552E+03  2.05373E+02
  9.61506E+02  7.23782E+02 -5.53935E+01  6.21867E+02 -5.78225E+02  1.13059E+02 -1.53874E+02 -4.34908E+02
  4.50407E+02 -1.04992E+02  7.28658E+02  5.27741E+02  3.18173E+02  6.33032E+02  4.42711E+02  9.25265E+02
 -1.35127E+03  1.19011E+03 -1.40664E+03  1.02464E+02 -1.58914E+03 -9.20579E+02  9.99726E+01 -1.93659E+03
  1.18531E+03 -1.55059E+03  1.35083E+03 -2.63064E+02  1.41634E+03 -1.44811E+02  8.74771E+02  1.38231E+03
  7.22671E+02  1.36128E+03 -4.63112E+02  8.87413E+02 -1.04545E+03  1.06810E+03 -7.22586E+02 -8.67745E-01
 -3.73921E+02 -3.11545E+02 -5.69216E+02  3.05512E+02 -1.02120E+03  3.30784E+02 -1.06952E+03 -3.83363E+02
 -1.33846E+03  7.55202E+01 -4.84855E+02 -1.47273E+03  1.07184E+03 -1.97258E+03  1.37389E+03 -6.16233E+02
  1.46006E+03  2.61722E+02  4.40085E+02  7.51892E+02 -2.62831E+02  1.82184E+03 -1.00081E+03  1.28631E+03
