 $NMID ID='MM_0lb_SNR800_8hz_g45_99.RAW', FMTDAT='(8E13.5)'
 TRAMP=1., VOLUME=1. $END
  3.10245E+05  2.05317E+02  3.38056E+05  2.51068E+05  8.49514E+04  3.38210E+05 -1.32599E+05  2.51868E+05
 -1.91182E+05  8.37965E+04 -1.12450E+05 -3.19865E+04 -3.33604E+01 -5.10041E+04  5.36723E+04 -1.06081E+03
  3.54576E+04  5.31489E+04 -1.65171E+04  7.60040E+04 -6.15764E+04  6.48655E+04 -8.55870E+04  3.23273E+04
 -8.26062E+04 -1.17277E+04 -5.82793E+04 -5.22781E+04 -1.53892E+04 -7.11847E+04  2.77979E+04 -4.70282E+04
  4.11882E+04  3.84594E+03  1.63767E+04  4.86208E+04 -3.48272E+04  4.85708E+04 -6.81883E+04  2.91744E+02
 -5.49926E+04 -5.75873E+04 -7.35770E+03 -7.92960E+04  3.47301E+04 -5.69489E+04  5.01869E+04 -1.83171E+04
  4.51571E+04  1.18146E+04  3.27907E+04  2.66026E+04  1.56390E+04  3.04343E+04 -6.05225E+03  2.82067E+04
 -2.29417E+04  1.18267E+04 -1.77886E+04 -6.03065E+03  7.18876E+03 -7.27580E+03  2.36618E+04  1.38252E+04
  7.39629E+03  3.68237E+04 -3.37391E+04  3.75111E+04 -6.62625E+04  2.29035E+03 -5.88847E+04 -4.45971E+04
 -1.25084E+04 -6.61710E+04  4.22629E+04 -4.77163E+04  6.12473E+04 -2.44604E+03  3.70339E+04  3.48725E+04
 -5.41546E+03  3.99296E+04 -3.18665E+04  1.92517E+04 -3.36848E+04 -3.55025E+03 -1.95632E+04 -1.19722E+04
 -9.66085E+03 -1.55533E+04 -2.01393E+02 -2.02682E+04  8.78163E+03 -2.36265E+04  1.56502E+04 -1.26758E+04
  1.01600E+04  6.29059E+03 -1.06266E+04  1.30626E+04 -2.37971E+04 -6.58083E+03 -8.81359E+03 -3.78938E+04
  2.54461E+04 -4.73187E+04  5.22519E+04 -2.11237E+04  4.89983E+04  2.09275E+04  1.77926E+04  4.78660E+04
 -1.70511E+04  3.63786E+04 -2.77651E+04  2.64719E+03 -1.18942E+04 -2.98950E+04  2.16645E+04 -3.68781E+04
  4.48423E+04 -1.12046E+04  4.08741E+04  2.51963E+04  2.15106E+04  5.13167E+04 -8.52837E+03  5.67126E+04
 -3.62855E+04  3.90448E+04 -4.80732E+04  1.13341E+04 -4.80790E+04 -1.88318E+04 -2.64037E+04 -4.27485E+04
  7.82499E+03 -4.22614E+04  3.40631E+04 -1.74843E+04  3.21843E+04  1.15489E+04  5.83677E+03  2.09115E+04
 -1.40391E+04  1.00826E+04 -1.13081E+04 -7.39621E+03  6.14376E+03 -1.08794E+04  1.87401E+04  5.44794E+03
  1.47722E+04  2.25530E+04 -5.26532E+03  2.72171E+04 -2.37505E+04  1.48856E+04 -3.17240E+04 -2.54117E+03
 -2.57469E+04 -1.85804E+04 -1.21721E+04 -2.52600E+04  4.43348E+03 -2.64218E+04  2.04601E+04 -2.35074E+04
  3.27373E+04 -1.46759E+04  3.85613E+04  4.95208E+03  2.76933E+04  2.50912E+04  3.95741E+03  4.15374E+04
 -2.00750E+04  3.39572E+04 -3.05741E+04  1.23556E+04 -2.25095E+04 -1.03871E+04 -5.19914E+03 -1.27283E+04
  4.01827E+02 -1.45827E+03 -7.45624E+03  8.66952E+03 -2.06179E+04  5.27662E+03 -2.05787E+04 -1.01646E+04
 -1.20459E+04 -2.39463E+04  6.16850E+03 -2.82012E+04  1.91392E+04 -1.99173E+04  2.33873E+04 -1.49244E+03
  1.47163E+04  1.64732E+04 -1.24076E+03  2.37742E+04 -1.74587E+04  1.42411E+04 -2.37762E+04 -4.81807E+03
 -1.74085E+04 -2.13725E+04 -2.42992E+03 -2.85635E+04  1.29791E+04 -2.32946E+04  2.39084E+04 -1.27344E+04
  2.25471E+04 -3.11217E+02  1.63663E+04  5.17980E+03  8.91192E+03  1.22174E+03  1.25381E+04 -1.76831E+03
  2.24396E+04  2.95114E+03  2.61822E+04  1.83308E+04  1.82577E+04  3.86111E+04 -2.26078E+03  4.58157E+04
 -2.52754E+04  3.81209E+04 -4.30842E+04  1.99521E+04 -4.57948E+04 -2.76072E+03 -3.75302E+04 -2.68177E+04
 -1.46149E+04 -3.85203E+04  1.40625E+04 -3.37673E+04  2.89240E+04 -1.58734E+04  2.46218E+04  8.03560E+03
  8.25782E+03  1.91439E+04 -1.18244E+04  1.59936E+04 -2.00929E+04  2.50622E+03 -1.56498E+04 -1.30274E+04
 -6.33524E+02 -1.98639E+04  1.08065E+04 -1.47514E+04  1.37326E+04 -1.37453E+03  3.59040E+03  9.22499E+03
 -9.06095E+03  4.16605E+03 -9.29856E+03 -7.24335E+03 -1.73607E+03 -1.84856E+04  1.22734E+04 -2.10505E+04
  2.39224E+04 -1.15369E+04  2.75561E+04  3.41043E+03  2.33222E+04  1.91736E+04  1.12206E+04  3.03252E+04
 -6.11570E+03  3.23426E+04 -2.13753E+04  2.00639E+04 -2.36980E+04  4.02764E+03 -1.63683E+04 -6.19931E+03
 -6.50441E+03 -7.56679E+03 -5.23381E+02  6.59187E+02 -3.48089E+03  3.84874E+03 -7.61828E+03  5.51210E+03
 -1.47107E+04 -1.16126E+03 -1.48580E+04 -1.19976E+04 -6.14402E+03 -1.99897E+04  6.43750E+03 -1.60420E+04
  1.29595E+04 -6.72491E+03  9.39852E+03  4.50950E+03 -3.36905E+02  6.78739E+03 -8.51350E+03 -5.63506E+02
 -8.33255E+03 -1.05338E+04 -9.88678E+02 -1.60681E+04  9.85786E+03 -1.69445E+04  2.08551E+04 -9.57093E+03
  2.47749E+04  2.46426E+03  1.79220E+04  1.50472E+04  3.51233E+03  2.06032E+04 -1.00724E+04  1.58212E+04
 -1.31228E+04  4.71823E+03 -7.16319E+03 -4.19252E+03  2.07181E+03 -4.73015E+03  8.62237E+03 -5.94147E+02
  7.55711E+03  7.71491E+03  1.30100E+03  1.30082E+04 -9.32351E+03  1.22490E+04 -1.58939E+04  2.83922E+03
 -1.17848E+04 -8.07352E+03  3.29188E+02 -1.38746E+04  9.42768E+03 -7.46678E+03  9.66927E+03  3.17930E+03
  2.74470E+03  1.03136E+04 -8.49698E+03  1.25902E+04 -1.47082E+04  5.58233E+03 -1.51572E+04 -5.42879E+03
 -9.01081E+03 -1.66327E+04  4.45287E+03 -1.92144E+04  1.61766E+04 -1.10792E+04  1.78637E+04  3.01721E+03
  1.07585E+04  1.42042E+04 -1.81305E+03  1.68687E+04 -1.21457E+04  8.68687E+03 -1.38215E+04 -1.64635E+03
 -1.13321E+04 -1.10589E+04 -1.55967E+03 -1.27736E+04  6.91463E+03 -1.01899E+04  7.80576E+03 -3.56393E+03
  5.44710E+03  2.45541E+03 -1.38736E+03  1.68410E+03 -5.74283E+02 -3.72421E+03  2.92463E+03 -8.05131E+03
  1.23222E+04 -5.19865E+03  1.73975E+04  2.10766E+03  1.66958E+04  1.16858E+04  1.07944E+04  2.23969E+04
 -5.69243E+03  2.50863E+04 -2.13759E+04  1.87775E+04 -2.75809E+04  3.95120E+03 -2.19849E+04 -1.03080E+04
 -1.08832E+04 -1.81858E+04  2.04617E+01 -1.54756E+04  5.41201E+03 -9.10833E+03  5.29945E+03 -5.63229E+03
  4.04516E+03 -3.40658E+03  4.49570E+03 -4.13053E+03  6.47194E+03 -3.55620E+03  8.68233E+03 -1.56386E+03
  1.12992E+04  2.38342E+03  6.48315E+03  1.00820E+04 -2.00131E+03  1.23996E+04 -1.24808E+04  9.32250E+03
 -1.56275E+04 -1.04633E+03 -1.04734E+04 -1.10723E+04 -1.41672E+03 -1.73738E+04  9.40889E+03 -1.72119E+04
  1.79669E+04 -9.43462E+03  2.12488E+04  3.08634E+03  1.44763E+04  1.48473E+04  1.96413E+03  1.93077E+04
 -8.04265E+03  1.54381E+04 -1.11269E+04  5.57625E+03 -8.14730E+03 -1.73572E+03 -3.17862E+03 -2.75777E+03
 -2.03754E+03 -4.35541E+02 -2.55472E+03  3.28001E+03 -6.66007E+03  2.73009E+03 -1.08911E+04 -1.73545E+03
 -8.32389E+03 -1.09193E+04 -3.12362E+02 -1.58813E+04  1.00537E+04 -1.48237E+04  1.58804E+04 -4.56372E+03
  1.58986E+04  8.00004E+03  7.23675E+03  1.42714E+04 -3.56802E+03  1.67746E+04 -1.14188E+04  1.01835E+04
 -1.52418E+04  6.27537E+02 -1.16375E+04 -9.69130E+03 -1.47389E+03 -1.35778E+04  7.35135E+03 -1.02255E+04
  1.02642E+04 -2.94172E+03  7.08528E+03  2.56156E+03  2.77320E+03  4.71524E+03  1.37274E+03  2.81747E+03
  3.01891E+03  1.98402E+03  4.01088E+03  1.84338E+03  4.82489E+03  5.45291E+03  4.32775E+03  8.44547E+03
 -2.91951E+03  1.30868E+04 -1.19306E+04  1.28233E+04 -1.67306E+04  3.56596E+03 -1.71780E+04 -7.13265E+03
 -8.01860E+03 -1.69787E+04  2.33920E+03 -1.81780E+04  1.01386E+04 -1.18915E+04  1.34548E+04 -3.55627E+03
  1.04053E+04  6.42902E+03  2.57740E+03  9.51214E+03 -4.53761E+03  6.62469E+03 -6.67159E+03 -9.97753E+02
 -3.59603E+03 -7.18168E+03  4.08749E+03 -7.74529E+03  7.22963E+03 -3.68399E+03  6.54697E+03  1.42362E+03
  4.08265E+03  3.22836E+03  1.38900E+03  2.52983E+03 -5.43542E+02  2.38918E+03  1.40394E+03 -4.97442E+02
  2.52164E+03 -9.25273E+02  6.55425E+03  2.96209E+03  4.20135E+03  8.91748E+03 -1.57894E+03  1.19135E+04
 -8.00056E+03  7.74144E+03 -1.08685E+04  2.20717E+03 -9.33695E+03 -3.88518E+03 -3.75041E+03 -6.62238E+03
  1.22132E+03 -6.13225E+03  4.79545E+03 -3.20078E+03  3.70891E+03  3.52152E+03 -1.98676E+03  5.47450E+03
 -6.77163E+03  3.17272E+03 -8.19696E+03 -3.73894E+03 -4.36500E+03 -9.31888E+03  1.47635E+03 -9.54357E+03
  5.81465E+03 -5.68984E+03  6.89831E+03 -7.51353E+02  5.84720E+03  2.58429E+03  1.13445E+03  5.25167E+03
 -3.61398E+03  1.46697E+03 -4.15938E+03 -3.33393E+03  1.48228E+03 -7.75469E+03  8.83060E+03 -6.05585E+03
  1.12027E+04  8.60954E+02  1.04664E+04  7.11854E+03  2.83146E+03  1.14974E+04 -3.99339E+03  1.06491E+04
 -8.96484E+03  5.09386E+03 -9.34520E+03 -1.55379E+03 -5.44861E+03 -7.27526E+03  1.65562E+03 -7.34873E+03
  7.03393E+03 -3.76959E+03  5.83579E+03  3.20155E+03  2.26459E+03  6.21018E+03 -1.36827E+03  5.33594E+03
 -2.71704E+03  3.67770E+03 -2.32560E+03  8.58871E+02 -1.34998E+03  1.12822E+03 -1.86234E+03  2.41309E+03
 -2.77370E+03  4.35043E+03 -7.56029E+03  4.00154E+03 -1.17125E+04  5.45994E+02 -1.29551E+04 -7.29945E+03
 -6.56111E+03 -1.48697E+04  2.92670E+03 -1.75390E+04  1.12453E+04 -1.32197E+04  1.66843E+04 -4.90995E+03
  1.54963E+04  3.35128E+03  9.79530E+03  1.07308E+04  9.36326E+02  1.18251E+04 -4.77317E+03  8.98386E+03
 -6.82320E+03  3.40896E+03 -4.04590E+03 -1.22630E+03 -1.20228E+03 -1.26735E+03 -7.75201E+02  2.55047E+02
 -2.33333E+03  4.49407E+02 -2.44198E+03 -3.60647E+02 -1.20151E+03 -2.59944E+03 -3.52774E+01 -4.54680E+03
  5.59038E+03 -3.82054E+03  7.51099E+03 -1.82025E+02  8.38367E+03  6.37925E+03  2.88096E+03  1.20299E+04
 -5.71620E+03  1.38493E+04 -1.25563E+04  8.10508E+03 -1.48020E+04 -1.01389E+03 -1.10854E+04 -9.35542E+03
 -4.41641E+03 -1.24971E+04  3.04823E+03 -1.11488E+04  8.16385E+03 -6.41675E+03  8.27114E+03  5.31284E+02
  4.50778E+03  3.72274E+03 -3.37595E+02  3.37501E+03 -2.55656E+03 -1.04137E+02 -2.72785E+02 -3.19055E+03
  3.61918E+03 -1.58492E+03  4.95661E+03  1.49369E+03  3.40644E+03  4.69499E+03 -6.74901E+01  6.45321E+03
 -5.21526E+03  5.59337E+03 -8.21076E+03  5.46536E+02 -7.08269E+03 -5.59479E+03 -1.05499E+03 -1.03079E+04
  6.08673E+03 -8.55032E+03  9.41639E+03 -2.98442E+03  9.77110E+03  1.99826E+03  5.57948E+03  7.78278E+03
  1.03012E+03  8.08504E+03 -3.26939E+03  6.74176E+03 -5.40570E+03  3.33075E+03 -4.20715E+03  4.36722E+02
 -2.51610E+03 -3.72862E+02 -2.25486E+03  8.96934E+02 -4.32755E+03  1.30328E+03 -6.27517E+03 -1.39159E+03
 -6.22134E+03 -4.31561E+03 -2.08216E+03 -8.01235E+03  3.92208E+03 -8.37316E+03  7.50694E+03 -3.94477E+03
  8.39958E+03  1.25800E+03  4.65115E+03  5.54947E+03 -3.31439E+02  8.95708E+03 -5.94550E+03  5.87599E+03
