 $NMID ID='MM_0lb_SNR800_7hz_g45_79.RAW', FMTDAT='(8E13.5)'
 TRAMP=1., VOLUME=1. $END
  3.09557E+05  1.00519E+03  3.37845E+05  2.50769E+05  8.47726E+04  3.39218E+05 -1.32717E+05  2.52175E+05
 -1.90709E+05  8.45182E+04 -1.12621E+05 -3.26211E+04 -1.34654E+02 -5.08573E+04  5.37647E+04 -5.06016E+02
  3.58301E+04  5.28113E+04 -1.65195E+04  7.66224E+04 -6.11845E+04  6.46558E+04 -8.61185E+04  3.26114E+04
 -8.25694E+04 -1.17785E+04 -5.85601E+04 -5.26858E+04 -1.55217E+04 -7.14214E+04  2.82653E+04 -4.70253E+04
  4.13520E+04  3.24401E+03  1.68890E+04  4.87086E+04 -3.48453E+04  4.87697E+04 -6.83270E+04  6.92348E+02
 -5.56999E+04 -5.84922E+04 -7.63107E+03 -7.95552E+04  3.50369E+04 -5.78624E+04  5.08147E+04 -1.84358E+04
  4.59149E+04  1.13088E+04  3.32484E+04  2.68186E+04  1.56866E+04  3.06936E+04 -6.43002E+03  2.79558E+04
 -2.22670E+04  1.18402E+04 -1.73235E+04 -5.83484E+03  7.21762E+03 -7.15685E+03  2.38803E+04  1.42651E+04
  6.64224E+03  3.81559E+04 -3.49566E+04  3.76021E+04 -6.62882E+04  1.72626E+03 -5.90903E+04 -4.50177E+04
 -1.24229E+04 -6.66988E+04  4.18217E+04 -4.82864E+04  6.19045E+04 -2.63104E+03  3.76264E+04  3.51269E+04
 -5.19683E+03  4.02315E+04 -3.26750E+04  2.00679E+04 -3.41590E+04 -3.50755E+03 -2.01905E+04 -1.22075E+04
 -9.59831E+03 -1.58730E+04 -1.58081E+02 -1.98632E+04  8.76364E+03 -2.32553E+04  1.57431E+04 -1.27282E+04
  9.98952E+03  6.53731E+03 -1.13745E+04  1.27623E+04 -2.38275E+04 -7.65718E+03 -8.74541E+03 -3.86857E+04
  2.59271E+04 -4.80285E+04  5.29888E+04 -2.13232E+04  5.02791E+04  2.11684E+04  1.82808E+04  4.77260E+04
 -1.69582E+04  3.71592E+04 -2.84125E+04  2.53099E+03 -1.19805E+04 -2.97072E+04  2.17799E+04 -3.77964E+04
  4.60687E+04 -1.16554E+04  4.21593E+04  2.55957E+04  2.20863E+04  5.27416E+04 -8.74541E+03  5.80636E+04
 -3.64884E+04  4.00628E+04 -4.95278E+04  1.15743E+04 -4.94273E+04 -1.89221E+04 -2.69290E+04 -4.26366E+04
  8.66984E+03 -4.35536E+04  3.51812E+04 -1.80951E+04  3.31481E+04  1.14870E+04  5.60423E+03  2.13969E+04
 -1.41941E+04  9.94447E+03 -1.17138E+04 -6.87331E+03  5.79755E+03 -1.15734E+04  1.89858E+04  5.52969E+03
  1.52701E+04  2.24252E+04 -4.89808E+03  2.74197E+04 -2.38555E+04  1.50439E+04 -3.21463E+04 -2.50721E+03
 -2.67216E+04 -1.86652E+04 -1.30511E+04 -2.68630E+04  4.73140E+03 -2.76845E+04  2.15126E+04 -2.45794E+04
  3.39112E+04 -1.43327E+04  3.98349E+04  5.33394E+03  2.77711E+04  2.63322E+04  4.58984E+03  4.31270E+04
 -2.06367E+04  3.53847E+04 -3.11424E+04  1.21907E+04 -2.30594E+04 -1.05233E+04 -5.04247E+03 -1.27825E+04
  3.33167E+02 -1.66893E+02 -8.59175E+03  9.15516E+03 -2.21086E+04  5.14904E+03 -2.17283E+04 -1.02036E+04
 -1.23939E+04 -2.48259E+04  6.73720E+03 -2.87911E+04  2.01022E+04 -2.07164E+04  2.47116E+04 -2.00757E+03
  1.56170E+04  1.73540E+04 -1.42471E+03  2.47595E+04 -1.82147E+04  1.45256E+04 -2.50983E+04 -5.53558E+03
 -1.81360E+04 -2.19498E+04 -2.03597E+03 -3.01140E+04  1.33120E+04 -2.48692E+04  2.47265E+04 -1.31272E+04
  2.40320E+04 -1.30555E+02  1.75889E+04  5.70257E+03  9.44787E+03  1.77833E+03  1.36000E+04 -2.12634E+03
  2.36739E+04  2.95652E+03  2.75389E+04  1.96842E+04  1.88298E+04  4.01742E+04 -2.54724E+03  4.82529E+04
 -2.72421E+04  4.06554E+04 -4.59225E+04  2.12230E+04 -4.90095E+04 -3.89892E+03 -3.92939E+04 -2.88300E+04
 -1.54970E+04 -4.09611E+04  1.45776E+04 -3.53650E+04  3.04128E+04 -1.60997E+04  2.60855E+04  8.51137E+03
  8.25100E+03  2.02959E+04 -1.29318E+04  1.70186E+04 -2.14897E+04  2.43382E+03 -1.66296E+04 -1.39056E+04
 -5.51563E+02 -2.09281E+04  1.09141E+04 -1.52962E+04  1.41585E+04 -1.22560E+03  3.76031E+03  9.58672E+03
 -9.58105E+03  4.71725E+03 -1.00470E+04 -7.47032E+03 -2.10163E+03 -1.99103E+04  1.28602E+04 -2.21353E+04
  2.49877E+04 -1.21056E+04  2.92422E+04  3.52060E+03  2.56763E+04  2.06912E+04  1.17322E+04  3.23978E+04
 -6.24171E+03  3.44158E+04 -2.27875E+04  2.12507E+04 -2.52331E+04  4.11471E+03 -1.65612E+04 -6.90071E+03
 -6.95935E+03 -8.19365E+03 -8.76339E+02  5.36828E+02 -2.70825E+03  3.77643E+03 -8.49388E+03  5.70895E+03
 -1.56602E+04 -9.56190E+02 -1.60717E+04 -1.28296E+04 -6.52701E+03 -2.11290E+04  6.53118E+03 -1.79665E+04
  1.42047E+04 -6.35374E+03  1.01340E+04  5.02221E+03 -4.30386E+02  6.64922E+03 -9.14602E+03 -5.13768E+02
 -8.71960E+03 -1.14322E+04 -1.91343E+03 -1.74526E+04  1.06423E+04 -1.82064E+04  2.26368E+04 -9.88297E+03
  2.62686E+04  2.96664E+03  1.91932E+04  1.63527E+04  3.36895E+03  2.18835E+04 -1.04337E+04  1.72850E+04
 -1.41716E+04  4.68112E+03 -7.15196E+03 -3.99429E+03  1.97375E+03 -4.99147E+03  8.83643E+03 -1.12136E+03
  8.89801E+03  7.90524E+03  1.80459E+03  1.37624E+04 -1.07107E+04  1.32178E+04 -1.72309E+04  3.17755E+03
 -1.21547E+04 -9.35391E+03  3.93451E+02 -1.53738E+04  1.01353E+04 -7.96702E+03  1.10045E+04  4.08742E+03
  3.30800E+03  1.19119E+04 -9.45976E+03  1.35512E+04 -1.58994E+04  6.04032E+03 -1.63027E+04 -6.26304E+03
 -9.02686E+03 -1.85667E+04  4.82987E+03 -2.14393E+04  1.78897E+04 -1.22772E+04  1.96872E+04  2.97992E+03
  1.10848E+04  1.54648E+04 -1.73649E+03  1.81384E+04 -1.39905E+04  1.00522E+04 -1.52164E+04 -1.81897E+03
 -1.20410E+04 -1.19906E+04 -1.85675E+03 -1.36524E+04  7.22722E+03 -1.09502E+04  8.81071E+03 -3.89514E+03
  5.38519E+03  2.64470E+03 -1.39604E+03  2.51206E+03 -1.17614E+03 -4.17068E+03  2.85314E+03 -8.91358E+03
  1.37719E+04 -5.66970E+03  1.89836E+04  1.97733E+03  1.88378E+04  1.29891E+04  1.15501E+04  2.47248E+04
 -5.76430E+03  2.84681E+04 -2.28763E+04  2.05074E+04 -3.01318E+04  3.52052E+03 -2.46379E+04 -1.07184E+04
 -1.17736E+04 -2.04292E+04 -8.04506E+01 -1.73151E+04  5.87657E+03 -1.00989E+04  6.14067E+03 -6.62403E+03
  4.48946E+03 -3.69101E+03  4.28025E+03 -4.35674E+03  6.27927E+03 -3.91355E+03  9.42919E+03 -1.98461E+03
  1.27516E+04  2.96768E+03  7.41643E+03  1.06042E+04 -2.39340E+03  1.33929E+04 -1.34627E+04  1.07255E+04
 -1.73132E+04 -1.47925E+03 -1.17794E+04 -1.22916E+04 -1.75146E+03 -1.87408E+04  1.05943E+04 -1.90311E+04
  1.98454E+04 -9.67160E+03  2.27657E+04  3.46714E+03  1.62822E+04  1.63758E+04  2.11966E+03  2.12848E+04
 -9.37259E+03  1.68572E+04 -1.21400E+04  6.02312E+03 -8.71323E+03 -2.07017E+03 -3.68043E+03 -2.50220E+03
 -1.60964E+03 -1.58067E+02 -2.42603E+03  2.98170E+03 -7.26075E+03  3.13590E+03 -1.17587E+04 -1.68657E+03
 -9.24720E+03 -1.24464E+04  5.71137E+01 -1.78819E+04  1.08355E+04 -1.64527E+04  1.82690E+04 -4.66175E+03
  1.80082E+04  8.23996E+03  8.66404E+03  1.62003E+04 -4.03176E+03  1.81989E+04 -1.32124E+04  1.15694E+04
 -1.66141E+04  1.41597E+02 -1.26339E+04 -1.11180E+04 -1.25987E+03 -1.52576E+04  8.17395E+03 -1.14821E+04
  1.15072E+04 -3.32724E+03  8.03582E+03  3.41657E+03  2.61189E+03  5.65400E+03  1.31047E+03  2.65513E+03
  2.48749E+03  1.28746E+03  4.48970E+03  2.36894E+03  5.66229E+03  5.88145E+03  4.84922E+03  1.01976E+04
 -3.88461E+03  1.45900E+04 -1.26833E+04  1.47812E+04 -1.93148E+04  3.48074E+03 -1.99580E+04 -8.09247E+03
 -9.62936E+03 -1.87703E+04  2.91525E+03 -2.05365E+04  1.16054E+04 -1.30442E+04  1.51810E+04 -3.27918E+03
  1.20401E+04  7.07746E+03  2.60233E+03  1.09525E+04 -5.05398E+03  7.35329E+03 -7.95956E+03 -1.25697E+03
 -3.40841E+03 -8.22351E+03  4.26457E+03 -8.33845E+03  7.79097E+03 -4.12010E+03  7.88850E+03  1.70109E+03
  4.75629E+03  3.77951E+03  1.28653E+03  3.90444E+03 -1.11328E+03  2.67682E+03  1.77394E+03 -5.39609E+02
  3.30900E+03 -1.08324E+03  7.98419E+03  2.83285E+03  5.48981E+03  1.03495E+04 -1.68103E+03  1.33250E+04
 -9.08290E+03  9.66090E+03 -1.27332E+04  2.72825E+03 -1.12002E+04 -4.56406E+03 -4.63053E+03 -7.89192E+03
  1.10773E+03 -7.63560E+03  4.76640E+03 -3.89244E+03  4.78574E+03  3.65465E+03 -1.36824E+03  6.58072E+03
 -7.85218E+03  3.47637E+03 -9.33935E+03 -4.45392E+03 -5.51770E+03 -1.04458E+04  1.46550E+03 -1.11644E+04
  6.98916E+03 -6.77686E+03  8.32638E+03 -4.95241E+02  6.33949E+03  3.10268E+03  8.57433E+02  6.09042E+03
 -4.12806E+03  2.13468E+03 -4.87039E+03 -3.97494E+03  1.62945E+03 -8.58854E+03  9.30988E+03 -7.18510E+03
  1.31610E+04  1.32310E+03  1.18268E+04  8.58827E+03  3.45927E+03  1.34922E+04 -4.92532E+03  1.23698E+04
 -1.10553E+04  5.74832E+03 -1.10067E+04 -1.66173E+03 -6.57373E+03 -8.95104E+03  1.77508E+03 -9.03382E+03
  7.84223E+03 -4.15081E+03  7.36676E+03  3.62588E+03  2.19504E+03  7.40071E+03 -1.38595E+03  6.66440E+03
 -3.76304E+03  4.10890E+03 -3.09884E+03  1.45841E+03 -1.93407E+03  1.18613E+03 -2.16133E+03  2.31887E+03
 -3.24648E+03  5.25614E+03 -9.16857E+03  4.37971E+03 -1.34228E+04  1.72335E+02 -1.45848E+04 -8.86744E+03
 -7.73319E+03 -1.78564E+04  3.44961E+03 -2.09119E+04  1.31218E+04 -1.57811E+04  1.98104E+04 -6.15608E+03
  1.81263E+04  3.82256E+03  1.07929E+04  1.23101E+04  1.47278E+03  1.43399E+04 -6.01083E+03  1.00909E+04
 -7.81699E+03  3.88228E+03 -5.07778E+03 -1.69182E+03 -1.51474E+03 -1.64702E+03 -8.05969E+02  5.06740E+02
 -2.07996E+03  6.94338E+02 -3.30135E+03 -1.78188E+02 -1.16192E+03 -3.38165E+03  8.14789E+02 -5.07215E+03
  6.32464E+03 -4.09208E+03  8.53199E+03  2.73264E+02  9.51885E+03  7.84841E+03  3.04682E+03  1.40324E+04
 -7.00713E+03  1.62762E+04 -1.55189E+04  9.80196E+03 -1.75933E+04 -1.54714E+03 -1.29543E+04 -1.08882E+04
 -5.72993E+03 -1.48851E+04  3.64594E+03 -1.40079E+04  9.71358E+03 -7.74245E+03  9.62294E+03  4.82248E+02
  5.01359E+03  4.79233E+03 -7.37080E+02  3.99174E+03 -2.42895E+03 -8.02421E+02  2.98749E+02 -3.34663E+03
  4.37488E+03 -1.96923E+03  5.52710E+03  1.59142E+03  4.00846E+03  5.62116E+03  2.88011E+02  8.04518E+03
 -6.56903E+03  6.49403E+03 -1.03079E+04  5.91130E+02 -8.52472E+03 -7.27595E+03 -1.50079E+03 -1.22326E+04
  6.84373E+03 -1.05730E+04  1.17269E+04 -3.44682E+03  1.15490E+04  3.74471E+03  6.60630E+03  9.05837E+03
  1.21396E+03  1.02674E+04 -3.87329E+03  8.44691E+03 -6.41157E+03  4.31558E+03 -5.42835E+03  5.82440E+02
 -3.32125E+03 -3.49125E+01 -2.47327E+03  1.11183E+03 -4.96546E+03  1.85441E+03 -7.57958E+03 -1.38717E+03
 -7.79117E+03 -5.44681E+03 -2.11766E+03 -9.96607E+03  4.77718E+03 -1.00279E+04  8.82989E+03 -4.82950E+03
  1.04844E+04  1.63242E+03  5.81323E+03  7.14548E+03 -9.72879E+02  1.02061E+04 -8.02675E+03  5.92231E+03
