 $NMID ID='MM_0lb_SNR800_10hz_g55_83.RAW', FMTDAT='(8E13.5)'
 TRAMP=1., VOLUME=1. $END
  3.10000E+05  3.10197E+02  3.37752E+05  2.50969E+05  8.49480E+04  3.38850E+05 -1.32611E+05  2.51950E+05
 -1.90586E+05  8.39843E+04 -1.12411E+05 -3.27024E+04  6.47744E+02 -5.06538E+04  5.33302E+04 -4.92937E+02
  3.57174E+04  5.26612E+04 -1.70135E+04  7.63854E+04 -6.11280E+04  6.42980E+04 -8.53714E+04  3.23657E+04
 -8.22204E+04 -1.12758E+04 -5.80153E+04 -5.22211E+04 -1.51644E+04 -7.09493E+04  2.83378E+04 -4.70279E+04
  4.12933E+04  3.72408E+03  1.68226E+04  4.81930E+04 -3.45265E+04  4.83938E+04 -6.78532E+04 -4.81401E+01
 -5.51188E+04 -5.76151E+04 -7.55394E+03 -7.85750E+04  3.46175E+04 -5.67890E+04  4.96137E+04 -1.84176E+04
  4.50891E+04  1.14992E+04  3.31265E+04  2.62024E+04  1.61387E+04  3.00731E+04 -5.51610E+03  2.77900E+04
 -2.25282E+04  1.20779E+04 -1.81175E+04 -5.45727E+03  6.86033E+03 -7.01666E+03  2.32518E+04  1.37167E+04
  6.95999E+03  3.75503E+04 -3.42115E+04  3.71553E+04 -6.60019E+04  1.86779E+03 -5.85362E+04 -4.42351E+04
 -1.25429E+04 -6.58404E+04  4.12244E+04 -4.75849E+04  6.10816E+04 -2.58207E+03  3.70317E+04  3.43071E+04
 -5.81233E+03  3.91495E+04 -3.17960E+04  1.83808E+04 -3.31221E+04 -3.57577E+03 -1.92240E+04 -1.23098E+04
 -9.25755E+03 -1.55344E+04 -6.48141E+02 -1.95280E+04  8.47619E+03 -2.31645E+04  1.60282E+04 -1.28327E+04
  1.05529E+04  6.01979E+03 -1.03491E+04  1.31813E+04 -2.32386E+04 -6.63608E+03 -8.48707E+03 -3.73163E+04
  2.49771E+04 -4.65409E+04  5.18663E+04 -2.08184E+04  4.87613E+04  2.07415E+04  1.68788E+04  4.69309E+04
 -1.69984E+04  3.60900E+04 -2.74020E+04  2.85161E+03 -1.14279E+04 -2.91663E+04  2.15934E+04 -3.66766E+04
  4.47772E+04 -1.09142E+04  4.03124E+04  2.53109E+04  2.10112E+04  5.03465E+04 -8.17646E+03  5.56554E+04
 -3.50719E+04  3.78916E+04 -4.72394E+04  1.07675E+04 -4.69397E+04 -1.85440E+04 -2.60934E+04 -4.18238E+04
  7.93470E+03 -4.17436E+04  3.38224E+04 -1.65977E+04  3.14014E+04  1.12796E+04  5.07867E+03  2.06725E+04
 -1.39631E+04  9.56283E+03 -1.13043E+04 -7.76109E+03  5.93939E+03 -1.17259E+04  1.86022E+04  5.34018E+03
  1.46613E+04  2.28906E+04 -4.92949E+03  2.67419E+04 -2.32012E+04  1.39765E+04 -3.11699E+04 -3.18915E+03
 -2.54046E+04 -1.87080E+04 -1.13449E+04 -2.43535E+04  4.21512E+03 -2.52471E+04  1.97278E+04 -2.22728E+04
  3.16501E+04 -1.36239E+04  3.78585E+04  4.70807E+03  2.68919E+04  2.37320E+04  4.42360E+03  4.05815E+04
 -1.99695E+04  3.34394E+04 -3.02672E+04  1.16959E+04 -2.20583E+04 -1.05428E+04 -4.83886E+03 -1.26246E+04
  9.14053E+02 -1.03630E+03 -7.28275E+03  7.66902E+03 -1.98646E+04  5.01342E+03 -1.94158E+04 -9.32725E+03
 -1.14927E+04 -2.27444E+04  6.26914E+03 -2.70936E+04  1.84348E+04 -1.94451E+04  2.20845E+04 -2.07803E+03
  1.43220E+04  1.58413E+04 -1.38135E+03  2.31210E+04 -1.60760E+04  1.29347E+04 -2.33372E+04 -4.95553E+03
 -1.71171E+04 -2.04650E+04 -2.27318E+03 -2.76353E+04  1.25668E+04 -2.28175E+04  2.28060E+04 -1.16244E+04
  2.14355E+04 -3.37347E+02  1.56827E+04  5.65379E+03  8.71825E+03  1.34810E+03  1.21021E+04 -2.04228E+03
  2.17631E+04  2.74145E+03  2.46868E+04  1.79087E+04  1.72220E+04  3.70236E+04 -2.74594E+03  4.32931E+04
 -2.50143E+04  3.60002E+04 -4.09032E+04  1.88038E+04 -4.35282E+04 -3.21367E+03 -3.55463E+04 -2.54697E+04
 -1.40309E+04 -3.62152E+04  1.29563E+04 -3.18312E+04  2.72639E+04 -1.53032E+04  2.34655E+04  7.45614E+03
  8.35312E+03  1.81475E+04 -1.08604E+04  1.54405E+04 -1.97647E+04  2.64217E+03 -1.50481E+04 -1.26679E+04
 -4.08914E+02 -1.89725E+04  9.83546E+03 -1.39711E+04  1.30100E+04 -1.10790E+03  3.12710E+03  8.61595E+03
 -8.22599E+03  3.78979E+03 -8.55568E+03 -6.92895E+03 -1.37822E+03 -1.76861E+04  1.19156E+04 -1.92823E+04
  2.23942E+04 -1.07348E+04  2.54757E+04  3.24712E+03  2.16496E+04  1.80992E+04  9.94118E+03  2.79575E+04
 -5.18253E+03  2.99231E+04 -1.96723E+04  1.85377E+04 -2.15086E+04  3.86931E+03 -1.44133E+04 -5.52987E+03
 -6.22732E+03 -6.85342E+03 -2.05428E+02  4.88657E+02 -2.75054E+03  3.37407E+03 -6.97807E+03  5.16155E+03
 -1.35797E+04 -9.30901E+02 -1.40757E+04 -1.15573E+04 -5.70307E+03 -1.90297E+04  6.73325E+03 -1.49485E+04
  1.25967E+04 -6.37996E+03  8.90656E+03  4.36376E+03 -4.41348E+02  5.87249E+03 -7.40760E+03 -3.64803E+02
 -7.05916E+03 -9.53346E+03 -1.06580E+03 -1.48900E+04  8.70908E+03 -1.59613E+04  1.92655E+04 -8.30732E+03
  2.23057E+04  2.04772E+03  1.62627E+04  1.39888E+04  3.10155E+03  1.85603E+04 -9.21141E+03  1.52504E+04
 -1.22212E+04  4.65168E+03 -6.52768E+03 -3.31409E+03  2.35761E+03 -4.55464E+03  7.85434E+03 -9.62606E+02
  7.45114E+03  6.60090E+03  1.28586E+03  1.21930E+04 -8.62299E+03  1.15831E+04 -1.51199E+04  2.78287E+03
 -1.05278E+04 -7.81675E+03  3.94496E+02 -1.26563E+04  8.59730E+03 -6.59239E+03  8.72801E+03  3.35386E+03
  1.79685E+03  9.84899E+03 -7.74446E+03  1.11397E+04 -1.27777E+04  5.21500E+03 -1.30932E+04 -4.18344E+03
 -7.88574E+03 -1.50927E+04  3.13727E+03 -1.74511E+04  1.42529E+04 -1.02293E+04  1.61286E+04  2.93588E+03
  9.94759E+03  1.28024E+04 -1.51876E+03  1.53079E+04 -1.08148E+04  7.80308E+03 -1.20826E+04 -9.89179E+02
 -1.02490E+04 -1.01478E+04 -1.63987E+03 -1.17421E+04  6.20365E+03 -9.25569E+03  7.46184E+03 -3.67016E+03
  4.70051E+03  2.27486E+03 -8.63852E+02  1.67085E+03 -8.43249E+02 -3.15003E+03  2.83182E+03 -7.04948E+03
  1.10436E+04 -4.62916E+03  1.49407E+04  1.70245E+03  1.47625E+04  1.02939E+04  9.73954E+03  1.95383E+04
 -4.58436E+03  2.27791E+04 -1.88347E+04  1.67347E+04 -2.39036E+04  3.12745E+03 -1.98487E+04 -8.46000E+03
 -1.02187E+04 -1.63262E+04 -2.88214E+02 -1.35959E+04  5.01239E+03 -7.65691E+03  4.72117E+03 -5.08440E+03
  3.23778E+03 -2.91520E+03  3.98390E+03 -3.73972E+03  5.94654E+03 -3.23797E+03  7.48632E+03 -9.57134E+02
  9.98500E+03  2.46915E+03  5.60422E+03  8.88961E+03 -1.86020E+03  1.03285E+04 -1.04803E+04  8.18687E+03
 -1.37434E+04 -1.24884E+03 -9.09422E+03 -9.95514E+03 -1.17440E+03 -1.50146E+04  7.97985E+03 -1.45651E+04
  1.54325E+04 -8.03255E+03  1.77821E+04  2.60320E+03  1.28780E+04  1.25938E+04  2.24345E+03  1.64934E+04
 -7.31460E+03  1.33799E+04 -9.81007E+03  4.46438E+03 -6.54307E+03 -1.46542E+03 -2.81493E+03 -1.77325E+03
 -1.10593E+03 -2.17770E+02 -2.02752E+03  3.34838E+03 -5.35966E+03  2.35467E+03 -9.39882E+03 -1.85661E+03
 -6.64070E+03 -9.26940E+03  1.27293E+02 -1.38782E+04  7.91648E+03 -1.25458E+04  1.36921E+04 -3.75170E+03
  1.31869E+04  6.75861E+03  6.57777E+03  1.21901E+04 -3.05674E+03  1.39629E+04 -1.00634E+04  8.90515E+03
 -1.27428E+04  6.18828E+02 -1.01496E+04 -8.30171E+03 -1.08211E+03 -1.11348E+04  5.84630E+03 -8.32146E+03
  8.31115E+03 -2.54452E+03  5.78100E+03  2.18554E+03  2.23136E+03  4.12117E+03  1.40736E+03  1.91096E+03
  2.86776E+03  1.14729E+03  3.37442E+03  1.46684E+03  3.84332E+03  5.06659E+03  3.62754E+03  6.88783E+03
 -2.61882E+03  1.06276E+04 -9.15476E+03  1.09227E+04 -1.42856E+04  2.97061E+03 -1.48278E+04 -5.69502E+03
 -6.44669E+03 -1.39681E+04  2.37643E+03 -1.51602E+04  8.10248E+03 -9.44702E+03  1.13084E+04 -2.40681E+03
  8.43373E+03  5.13597E+03  2.24287E+03  7.91214E+03 -3.63844E+03  4.92054E+03 -5.70626E+03 -1.23879E+03
 -2.39066E+03 -6.38173E+03  3.63946E+03 -6.30616E+03  6.14063E+03 -3.15343E+03  5.23645E+03  1.53040E+03
  3.38399E+03  2.54974E+03  1.40265E+03  2.50828E+03 -9.64895E+02  2.14668E+03  1.38684E+03 -6.08692E+01
  2.21069E+03 -5.75974E+02  5.78654E+03  2.19383E+03  2.89753E+03  7.60676E+03 -1.16953E+03  1.01164E+04
 -6.59959E+03  6.23228E+03 -8.77179E+03  2.04619E+03 -7.99273E+03 -3.37956E+03 -2.82441E+03 -5.65560E+03
  7.16519E+02 -5.30300E+03  3.51469E+03 -2.57982E+03  3.28108E+03  2.93463E+03 -1.28314E+03  4.69481E+03
 -5.64160E+03  2.98549E+03 -6.80284E+03 -3.04595E+03 -3.77071E+03 -7.72901E+03  1.04876E+03 -7.88646E+03
  4.26387E+03 -4.27809E+03  5.52960E+03 -8.44837E+02  4.29286E+03  1.72593E+03  5.36467E+02  3.74659E+03
 -2.95452E+03  1.33790E+03 -3.68142E+03 -2.75453E+03  1.41560E+03 -5.58901E+03  6.79802E+03 -4.66643E+03
  8.56007E+03  1.00025E+03  8.40792E+03  5.42937E+03  2.88195E+03  9.04140E+03 -3.41554E+03  8.43704E+03
 -7.24169E+03  3.70171E+03 -7.49102E+03 -1.25627E+03 -4.04723E+03 -5.87388E+03  1.51834E+03 -5.39180E+03
  5.76449E+03 -2.64993E+03  4.73026E+03  2.64100E+03  1.77035E+03  4.94733E+03 -1.09684E+02  4.45076E+03
 -1.98451E+03  2.79192E+03 -1.98629E+03  1.21648E+03 -1.00427E+03  1.03627E+03 -1.39504E+03  1.92614E+03
 -2.13848E+03  3.26653E+03 -6.37180E+03  3.45495E+03 -8.61578E+03  4.76668E+02 -1.01569E+04 -5.61842E+03
 -5.29505E+03 -1.17744E+04  2.26141E+03 -1.38514E+04  8.37832E+03 -1.07936E+04  1.30629E+04 -3.90142E+03
  1.21722E+04  2.65723E+03  7.34540E+03  8.32162E+03  4.87655E+02  9.69519E+03 -3.69794E+03  6.88579E+03
 -5.08077E+03  2.24726E+03 -3.18659E+03 -1.32015E+03 -1.19251E+03 -1.27528E+03 -6.72758E+02 -4.05067E+01
 -1.72320E+03  2.05639E+02 -1.94831E+03 -4.48943E+02 -8.20615E+02 -2.36204E+03 -9.87991E+00 -3.63317E+03
  4.01945E+03 -3.04995E+03  5.60604E+03 -1.11808E+02  6.31477E+03  4.61355E+03  1.46679E+03  9.12128E+03
 -4.21410E+03  1.04001E+04 -9.64316E+03  6.31039E+03 -1.10999E+04 -7.16938E+02 -8.13104E+03 -6.79248E+03
 -3.37147E+03 -9.30399E+03  2.50025E+03 -8.58333E+03  5.82440E+03 -4.56908E+03  5.97348E+03  3.86532E+02
  3.25673E+03  3.12551E+03 -4.99726E+02  2.90673E+03 -1.89257E+03  7.27599E+01  1.99431E+02 -2.03739E+03
  3.05153E+03 -1.42950E+03  3.26606E+03  1.01088E+03  2.42691E+03  3.37666E+03 -4.63269E+01  4.66927E+03
 -3.70938E+03  4.48217E+03 -5.98035E+03  3.73978E+02 -5.17365E+03 -4.39133E+03 -1.03448E+03 -7.63839E+03
  4.62891E+03 -6.07098E+03  6.47785E+03 -2.07090E+03  6.80174E+03  1.45042E+03  3.74948E+03  5.38080E+03
  7.48138E+02  5.53382E+03 -2.24447E+03  4.74580E+03 -3.55502E+03  2.70399E+03 -2.90026E+03  5.53089E+02
 -1.86771E+03 -1.68719E+02 -1.47991E+03  5.71850E+02 -2.76164E+03  7.90362E+02 -4.31860E+03 -9.87072E+02
 -4.40931E+03 -2.85527E+03 -1.28396E+03 -5.91401E+03  2.92059E+03 -6.19188E+03  5.21496E+03 -2.84055E+03
  5.82478E+03  5.32812E+02  2.72485E+03  4.08115E+03 -9.46383E+02  5.99984E+03 -4.58569E+03  3.44502E+03
