 $NMID ID='MM_0lb_SNR800_15hz_g45_37.RAW', FMTDAT='(8E13.5)'
 TRAMP=1., VOLUME=1. $END
  3.09815E+05  6.76208E+02  3.37729E+05  2.50717E+05  8.42262E+04  3.37578E+05 -1.32516E+05  2.50837E+05
 -1.90201E+05  8.28735E+04 -1.11510E+05 -3.26724E+04  9.73858E+02 -5.04629E+04  5.37604E+04 -1.80744E+02
  3.51795E+04  5.30014E+04 -1.71343E+04  7.52604E+04 -6.08658E+04  6.31620E+04 -8.39274E+04  3.18585E+04
 -8.05811E+04 -1.13436E+04 -5.68384E+04 -5.08825E+04 -1.49584E+04 -6.88172E+04  2.72879E+04 -4.52427E+04
  3.96963E+04  3.68475E+03  1.58252E+04  4.74969E+04 -3.43567E+04  4.69155E+04 -6.59973E+04 -1.47565E+02
 -5.26597E+04 -5.67849E+04 -6.51791E+03 -7.66825E+04  3.37572E+04 -5.41294E+04  4.72300E+04 -1.70304E+04
  4.24911E+04  1.12868E+04  3.12943E+04  2.50357E+04  1.58292E+04  2.90323E+04 -5.03554E+03  2.71641E+04
 -2.21563E+04  1.24894E+04 -1.87688E+04 -4.97115E+03  5.37217E+03 -7.48486E+03  2.18820E+04  1.17128E+04
  7.06910E+03  3.45620E+04 -3.13516E+04  3.48552E+04 -6.27968E+04  2.05710E+03 -5.66903E+04 -4.22326E+04
 -1.22747E+04 -6.22619E+04  3.92313E+04 -4.45625E+04  5.69938E+04 -2.27111E+03  3.34934E+04  3.15980E+04
 -6.09232E+03  3.49054E+04 -2.92558E+04  1.48587E+04 -2.97481E+04 -4.80198E+03 -1.58901E+04 -1.08669E+04
 -7.58873E+03 -1.26611E+04 -7.72089E+02 -1.73726E+04  7.17587E+03 -2.28333E+04  1.52597E+04 -1.37292E+04
  1.15901E+04  4.65924E+03 -7.78218E+03  1.31166E+04 -2.06780E+04 -4.09711E+03 -8.24172E+03 -3.25812E+04
  2.19821E+04 -4.23517E+04  4.70197E+04 -1.93825E+04  4.43346E+04  1.90052E+04  1.54871E+04  4.36559E+04
 -1.55232E+04  3.29680E+04 -2.47647E+04  1.45239E+03 -9.20556E+03 -2.72941E+04  2.11832E+04 -3.31872E+04
  4.03841E+04 -8.44316E+03  3.41626E+04  2.32876E+04  1.73818E+04  4.55624E+04 -7.60964E+03  4.86290E+04
 -3.07970E+04  3.26122E+04 -4.04913E+04  9.15799E+03 -4.13364E+04 -1.64626E+04 -2.26910E+04 -3.67127E+04
  7.17547E+03 -3.67617E+04  3.08605E+04 -1.41595E+04  2.83289E+04  1.09029E+04  3.37788E+03  1.90191E+04
 -1.32529E+04  8.11425E+03 -1.03278E+04 -7.58944E+03  5.94621E+03 -1.03983E+04  1.76973E+04  6.04127E+03
  1.30012E+04  2.16349E+04 -6.00992E+03  2.44681E+04 -2.19331E+04  1.06813E+04 -2.70681E+04 -5.41961E+03
 -1.95061E+04 -1.69945E+04 -7.35366E+03 -1.94037E+04  3.74542E+03 -1.81652E+04  1.47296E+04 -1.69196E+04
  2.47944E+04 -1.25523E+04  3.10033E+04  2.31268E+03  2.32080E+04  1.87964E+04  3.66700E+03  3.54060E+04
 -1.69116E+04  2.92373E+04 -2.73803E+04  1.01105E+04 -2.02141E+04 -1.08255E+04 -4.35589E+03 -1.37334E+04
  1.68020E+03 -3.26990E+03 -4.11417E+03  6.10391E+03 -1.51024E+04  5.39471E+03 -1.52944E+04 -6.34587E+03
 -9.69254E+03 -1.82015E+04  5.07953E+03 -2.20594E+04  1.45477E+04 -1.59385E+04  1.69827E+04 -1.22017E+03
  1.05916E+04  1.21903E+04 -1.01575E+03  1.76006E+04 -1.22343E+04  1.01243E+04 -1.78616E+04 -3.60639E+03
 -1.32307E+04 -1.61616E+04 -1.71117E+03 -2.17716E+04  1.02348E+04 -1.76054E+04  1.83545E+04 -8.81633E+03
  1.65916E+04  4.59765E+02  1.21094E+04  4.38823E+03  6.16084E+03  6.38692E+02  8.91728E+03 -1.71947E+03
  1.63885E+04  2.78280E+03  1.78908E+04  1.42177E+04  1.16717E+04  2.85700E+04 -2.63562E+03  3.16764E+04
 -1.88817E+04  2.54813E+04 -2.96028E+04  1.23129E+04 -3.07879E+04 -2.37165E+03 -2.55448E+04 -1.79020E+04
 -1.10781E+04 -2.51630E+04  8.79911E+03 -2.27278E+04  2.00602E+04 -1.21670E+04  1.83515E+04  4.67637E+03
  7.05348E+03  1.31203E+04 -8.35549E+03  1.17979E+04 -1.50975E+04  2.34943E+03 -1.17547E+04 -9.38675E+03
 -3.47326E+02 -1.43727E+04  7.58775E+03 -1.08297E+04  9.45560E+03 -1.36320E+03  2.00050E+03  6.12082E+03
 -6.28757E+03  2.02743E+03 -5.04889E+03 -5.32375E+03  9.19502E+01 -1.25080E+04  8.99100E+03 -1.28568E+04
  1.51018E+04 -6.49298E+03  1.60877E+04  2.70793E+03  1.39753E+04  1.20960E+04  6.55498E+03  1.83639E+04
 -2.38520E+03  1.99509E+04 -1.25494E+04  1.27643E+04 -1.46200E+04  3.38498E+03 -1.03712E+04 -2.84788E+03
 -4.88084E+03 -4.40429E+03 -6.33714E+02  1.31619E+03 -2.25295E+03  2.25408E+03 -4.73567E+03  4.04004E+03
 -9.59766E+03 -6.55581E+02 -1.05198E+04 -8.28886E+03 -4.30083E+03 -1.38111E+04  4.59183E+03 -1.05884E+04
  8.79835E+03 -4.11595E+03  5.98514E+03  2.79607E+03  4.88193E+02  3.80812E+03 -4.83872E+03 -2.69811E+02
 -4.38033E+03 -6.46068E+03 -8.77047E+02 -9.26908E+03  5.25786E+03 -1.01790E+04  1.27643E+04 -5.55258E+03
  1.49869E+04  9.42764E+02  1.10555E+04  8.26972E+03  2.01651E+03  1.13074E+04 -6.38145E+03  9.83538E+03
 -8.39872E+03  3.13996E+03 -4.25814E+03 -1.58071E+03  1.65357E+03 -2.62643E+03  5.76421E+03 -1.15925E+03
  5.07552E+03  4.27835E+03  1.21792E+03  8.30756E+03 -5.69799E+03  7.82660E+03 -9.99229E+03  1.98685E+03
 -6.85876E+03 -4.79447E+03  3.93372E+02 -8.41021E+03  5.12946E+03 -4.24565E+03  5.16110E+03  1.61234E+03
  7.95055E+02  4.85691E+03 -5.08192E+03  6.52622E+03 -7.02764E+03  3.24420E+03 -6.67123E+03 -2.04988E+03
 -3.90971E+03 -8.48094E+03  2.00504E+03 -1.01078E+04  8.38602E+03 -6.05012E+03  9.14985E+03  1.64423E+03
  5.99135E+03  7.31294E+03 -3.07462E+02  9.61714E+03 -6.74899E+03  5.34008E+03 -7.31669E+03 -7.05952E+02
 -7.23734E+03 -6.35975E+03 -1.39744E+03 -7.00216E+03  3.51606E+03 -5.82955E+03  3.91201E+03 -3.15512E+03
  3.57853E+03  9.04235E+02 -1.49030E+02  1.21123E+03  3.52839E+02 -8.67529E+02  7.27818E+02 -3.40368E+03
  5.82886E+03 -1.71640E+03  8.20986E+03  6.21931E+02  8.29787E+03  4.85776E+03  6.63198E+03  1.06992E+04
 -1.98625E+03  1.21587E+04 -1.09235E+04  9.19425E+03 -1.39708E+04  1.70738E+03 -1.12347E+04 -4.36540E+03
 -5.87948E+03 -9.24328E+03 -3.45165E+02 -7.44659E+03  3.02393E+03 -3.69785E+03  2.71025E+03 -2.54920E+03
  1.96070E+03 -2.10733E+03  2.70835E+03 -2.85030E+03  3.92613E+03 -1.84949E+03  4.60751E+03 -7.10990E+01
  6.02774E+03  1.34148E+03  2.14862E+03  4.90132E+03 -1.91475E+03  5.11046E+03 -6.20434E+03  3.90319E+03
 -7.29963E+03 -1.26650E+03 -3.75080E+03 -4.85357E+03 -4.01616E+00 -7.56261E+03  4.57675E+03 -8.21077E+03
  8.07222E+03 -4.42972E+03  9.45857E+03  1.12635E+03  6.95119E+03  6.44594E+03  1.16102E+03  8.82932E+03
 -3.20194E+03  8.05571E+03 -5.20292E+03  2.50904E+03 -3.10560E+03 -1.04410E+03 -1.24658E+03 -9.30827E+02
 -7.71592E+02  1.96464E+02 -1.00619E+03  2.25298E+03 -3.46141E+03  1.55554E+03 -5.60143E+03 -4.52290E+02
 -2.85907E+03 -5.65107E+03  5.52798E+02 -6.93070E+03  4.14649E+03 -6.50183E+03  6.01076E+03 -1.84799E+03
  6.60291E+03  3.51279E+03  3.07524E+03  5.78351E+03 -1.17648E+03  6.66157E+03 -4.70082E+03  4.39270E+03
 -6.22294E+03  6.71464E+02 -5.07670E+03 -4.04199E+03 -5.68161E+02 -5.41852E+03  2.65265E+03 -3.95307E+03
  4.40592E+03 -1.93088E+03  2.74302E+03  7.89862E+02  7.61003E+02  2.30000E+03  9.71705E+02  7.47202E+02
  2.14601E+03  5.85214E+02  1.72921E+03  9.94441E+02  1.92675E+03  2.77911E+03  2.01932E+03  2.95331E+03
 -1.62593E+03  4.98501E+03 -4.26536E+03  5.63043E+03 -5.61312E+03  1.86844E+03 -6.60315E+03 -1.95257E+03
 -2.93648E+03 -6.05743E+03  1.00182E+03 -7.23349E+03  3.60583E+03 -4.31082E+03  5.25665E+03 -1.32050E+03
  3.91869E+03  2.78352E+03  1.05362E+03  3.49859E+03 -1.58818E+03  2.43188E+03 -2.53080E+03 -5.04412E+02
 -9.24166E+02 -2.43423E+03  1.80969E+03 -2.64032E+03  2.52995E+03 -1.53058E+03  2.38881E+03  5.51387E+02
  1.39387E+03  1.13788E+03  8.40881E+02  3.06205E+02 -3.18791E+02  9.02467E+02  1.52358E+03 -5.35484E+02
  5.12928E+02 -3.09630E+02  2.96749E+03  9.44497E+02  1.08186E+03  3.59396E+03 -5.64552E+02  4.92024E+03
 -2.59855E+03  2.42704E+03 -3.87158E+03  7.42630E+02 -3.56381E+03 -1.31732E+03 -6.33040E+02 -1.83335E+03
  5.60729E+02 -2.38290E+03  1.44598E+03 -9.87376E+02  1.42613E+03  1.70971E+03 -8.95584E+02  2.06634E+03
 -2.56338E+03  1.29115E+03 -2.46194E+03 -1.87294E+03 -1.59151E+03 -2.95594E+03  4.69260E+02 -3.22264E+03
  1.73283E+03 -1.52498E+03  1.87637E+03 -1.71258E+00  2.21438E+03  5.96279E+02  3.30527E+02  2.20963E+03
 -9.19018E+02  3.02065E+01 -1.61203E+03 -9.25200E+02  6.85141E+02 -2.30081E+03  3.08440E+03 -1.66751E+03
  2.74215E+03  1.14195E+02  4.09022E+03  2.25927E+03  1.45664E+03  2.92238E+03 -1.10634E+03  3.44614E+03
 -2.73747E+03  1.10567E+03 -2.99825E+03 -6.48089E+02 -1.56783E+03 -2.54049E+03  6.09086E+02 -1.54454E+03
  2.24784E+03 -1.22861E+03  1.28078E+03  1.14668E+03  4.67569E+02  2.29640E+03  1.77011E+02  1.96115E+03
 -1.28708E+03  1.48156E+03 -1.01688E+03  5.89415E+02 -2.04189E+02  7.07637E+02 -9.15210E+02  7.73267E+02
 -9.45953E+02  1.50896E+03 -2.83500E+03  7.16494E+02 -3.29652E+03  2.10395E+02 -4.05365E+03 -2.26356E+03
 -2.07594E+03 -4.60668E+03  8.19254E+02 -5.14297E+03  2.64647E+03 -4.53138E+03  5.04156E+03 -1.81936E+03
  4.42198E+03  4.98403E+02  2.69967E+03  2.86872E+03 -5.34468E+02  3.27055E+03 -1.66585E+03  2.67686E+03
 -2.13014E+03  1.29002E+03 -1.19435E+03 -3.77294E+02 -7.39960E+02  6.31657E+01 -5.30676E+02  4.26084E+01
 -1.29312E+03 -6.17707E+00 -1.12706E+03 -1.52665E+02  2.08198E+02 -9.34002E+02 -4.92290E+02 -1.38438E+03
  1.94615E+03 -1.00244E+03  1.59894E+03  3.80813E+02  2.30962E+03  1.84923E+03 -9.34991E+01  2.96301E+03
 -1.64356E+03  4.23414E+03 -3.29269E+03  2.36282E+03 -3.95217E+03 -5.48249E+02 -2.98403E+03 -2.35273E+03
 -1.36457E+03 -3.53936E+03  6.32332E+02 -2.67199E+03  1.71173E+03 -1.23973E+03  1.65639E+03  3.56167E+02
  1.29684E+03  9.46964E+02 -4.65052E+01  9.59974E+02 -9.80211E+02 -1.77115E+02 -7.72860E+01 -4.49506E+02
  1.05819E+03 -1.55968E+02  1.14311E+03  5.69998E+02  5.33380E+02  1.35539E+03  4.13851E+02  1.24201E+03
 -1.19014E+03  1.49444E+03 -1.71828E+03  2.32902E+02 -1.79813E+03 -1.50558E+03  3.06215E+02 -2.61410E+03
  1.45365E+03 -1.97927E+03  1.82162E+03 -3.76313E+02  2.44904E+03 -9.44933E+01  7.86315E+02  1.64190E+03
  2.37133E+02  1.96037E+03 -5.54315E+02  1.59294E+03 -1.43286E+03  1.03095E+03 -8.05035E+02  1.15436E+02
 -5.86336E+02  1.02606E+01 -7.17853E+02  3.05286E+02 -1.19259E+03  3.37118E+02 -1.77653E+03 -1.18307E+02
 -1.72841E+03 -1.59033E+02 -4.78458E+02 -2.26919E+03  7.38799E+02 -2.64252E+03  1.76067E+03 -7.43286E+02
  2.16218E+03  8.88689E+01  5.79693E+02  1.09441E+03 -1.81677E+02  1.84643E+03 -9.98507E+02  1.30866E+03
