 $NMID ID='MM_0lb_SNR800_7hz_g55_85.RAW', FMTDAT='(8E13.5)'
 TRAMP=1., VOLUME=1. $END
  3.09824E+05  2.83196E+02  3.37389E+05  2.50670E+05  8.52609E+04  3.39115E+05 -1.32879E+05  2.52146E+05
 -1.90773E+05  8.42250E+04 -1.13106E+05 -3.23733E+04  3.42321E+01 -5.05422E+04  5.34929E+04 -8.90484E+02
  3.57600E+04  5.25312E+04 -1.61795E+04  7.63975E+04 -6.18055E+04  6.52330E+04 -8.56985E+04  3.25780E+04
 -8.33691E+04 -1.14737E+04 -5.85842E+04 -5.28542E+04 -1.53524E+04 -7.11903E+04  2.87242E+04 -4.71426E+04
  4.15069E+04  3.80936E+03  1.71178E+04  4.90163E+04 -3.49187E+04  4.90085E+04 -6.92609E+04  6.64508E+02
 -5.53835E+04 -5.80108E+04 -7.65895E+03 -7.96350E+04  3.50782E+04 -5.80071E+04  5.07679E+04 -1.91240E+04
  4.63200E+04  1.14369E+04  3.35143E+04  2.68822E+04  1.63238E+04  3.10095E+04 -6.17627E+03  2.80853E+04
 -2.26286E+04  1.14558E+04 -1.77771E+04 -6.35082E+03  7.50418E+03 -6.95142E+03  2.41157E+04  1.45047E+04
  6.92925E+03  3.87194E+04 -3.47835E+04  3.80649E+04 -6.69353E+04  2.30888E+03 -5.98959E+04 -4.55640E+04
 -1.24960E+04 -6.77364E+04  4.19457E+04 -4.85999E+04  6.32259E+04 -2.90550E+03  3.84807E+04  3.53617E+04
 -5.27800E+03  4.06730E+04 -3.24943E+04  2.00362E+04 -3.50125E+04 -3.18138E+03 -2.08209E+04 -1.24337E+04
 -1.04038E+04 -1.59740E+04 -4.09327E+02 -2.02026E+04  8.97777E+03 -2.40095E+04  1.64679E+04 -1.22074E+04
  9.88667E+03  7.09330E+03 -1.14464E+04  1.31188E+04 -2.48299E+04 -7.76847E+03 -8.70617E+03 -3.94183E+04
  2.64981E+04 -4.88080E+04  5.38566E+04 -2.17642E+04  5.00001E+04  2.12846E+04  1.81791E+04  4.80972E+04
 -1.73039E+04  3.67728E+04 -2.85207E+04  2.86569E+03 -1.31012E+04 -3.04257E+04  2.15577E+04 -3.79908E+04
  4.61387E+04 -1.22731E+04  4.30280E+04  2.53924E+04  2.26681E+04  5.33471E+04 -8.67486E+03  5.90285E+04
 -3.69698E+04  4.11239E+04 -5.04048E+04  1.14508E+04 -5.01323E+04 -1.96396E+04 -2.71228E+04 -4.36686E+04
  8.10781E+03 -4.43703E+04  3.57482E+04 -1.86931E+04  3.32636E+04  1.05784E+04  6.10244E+03  2.21494E+04
 -1.37086E+04  9.97939E+03 -1.18452E+04 -7.22126E+03  5.42914E+03 -1.21650E+04  1.96717E+04  5.09756E+03
  1.58002E+04  2.29817E+04 -4.47299E+03  2.85816E+04 -2.38733E+04  1.56147E+04 -3.31865E+04 -2.25564E+03
 -2.77158E+04 -1.89203E+04 -1.34019E+04 -2.70383E+04  4.65010E+03 -2.84833E+04  2.17243E+04 -2.55271E+04
  3.53686E+04 -1.54492E+04  4.10318E+04  5.91868E+03  2.90813E+04  2.66571E+04  5.06670E+03  4.41188E+04
 -2.09818E+04  3.57647E+04 -3.17086E+04  1.20646E+04 -2.30700E+04 -1.03955E+04 -5.12253E+03 -1.23571E+04
  1.24673E+02  3.77956E+02 -9.04415E+03  9.11703E+03 -2.21413E+04  4.61076E+03 -2.24629E+04 -1.10126E+04
 -1.27907E+04 -2.60907E+04  6.61791E+03 -3.01513E+04  2.06362E+04 -2.14003E+04  2.48302E+04 -2.27790E+03
  1.63496E+04  1.76812E+04 -1.38385E+03  2.58369E+04 -1.82536E+04  1.49642E+04 -2.58024E+04 -5.74971E+03
 -1.92601E+04 -2.34104E+04 -2.64794E+03 -3.05773E+04  1.37614E+04 -2.55954E+04  2.51126E+04 -1.32320E+04
  2.45423E+04 -6.01146E+02  1.83552E+04  6.00437E+03  9.90771E+03  2.14697E+03  1.38746E+04 -2.46860E+03
  2.47003E+04  2.54133E+03  2.88959E+04  2.01961E+04  1.98305E+04  4.18587E+04 -2.40509E+03  4.98718E+04
 -2.78292E+04  4.21229E+04 -4.72596E+04  2.17775E+04 -5.07202E+04 -3.46831E+03 -4.09894E+04 -2.96753E+04
 -1.58399E+04 -4.22915E+04  1.50983E+04 -3.67680E+04  3.18130E+04 -1.65284E+04  2.65029E+04  8.98795E+03
  8.23868E+03  2.12144E+04 -1.27566E+04  1.72415E+04 -2.25367E+04  2.15966E+03 -1.68311E+04 -1.42552E+04
 -5.38664E+02 -2.19882E+04  1.20977E+04 -1.57284E+04  1.47024E+04 -4.37134E+02  4.26880E+03  9.76569E+03
 -9.78432E+03  4.88081E+03 -1.11612E+04 -7.75376E+03 -2.37652E+03 -2.09519E+04  1.30185E+04 -2.31253E+04
  2.59928E+04 -1.34341E+04  3.10007E+04  3.75551E+03  2.71845E+04  2.19563E+04  1.28685E+04  3.40991E+04
 -6.47674E+03  3.64229E+04 -2.39703E+04  2.22566E+04 -2.63612E+04  3.99439E+03 -1.76246E+04 -6.91426E+03
 -7.38563E+03 -8.44042E+03 -3.47415E+02 -1.36401E+02 -3.56386E+03  4.12378E+03 -8.51662E+03  6.00262E+03
 -1.60921E+04 -7.89496E+02 -1.70419E+04 -1.37695E+04 -6.62233E+03 -2.18942E+04  7.15201E+03 -1.81891E+04
  1.48056E+04 -7.72190E+03  1.03619E+04  5.07354E+03 -6.42624E+02  7.49589E+03 -9.30744E+03  8.66449E+01
 -8.90295E+03 -1.17550E+04 -1.16706E+03 -1.84339E+04  1.10104E+04 -1.95750E+04  2.34487E+04 -1.05826E+04
  2.75538E+04  3.32959E+03  2.00525E+04  1.74839E+04  3.40707E+03  2.28852E+04 -1.12852E+04  1.79523E+04
 -1.43170E+04  4.89884E+03 -7.70335E+03 -4.36332E+03  2.64822E+03 -5.21123E+03  9.74732E+03 -1.13198E+03
  8.80951E+03  8.42583E+03  1.21108E+03  1.48750E+04 -1.05881E+04  1.44755E+04 -1.82518E+04  3.78546E+03
 -1.38233E+04 -1.01520E+04  2.90269E+02 -1.59576E+04  1.06949E+04 -7.79602E+03  1.12316E+04  4.00898E+03
  3.11100E+03  1.27772E+04 -1.00460E+04  1.42444E+04 -1.66647E+04  6.27774E+03 -1.70493E+04 -6.53199E+03
 -1.03090E+04 -1.88148E+04  4.86717E+03 -2.16754E+04  1.88635E+04 -1.31693E+04  2.03924E+04  3.52675E+03
  1.17932E+04  1.63541E+04 -2.27365E+03  1.91267E+04 -1.43452E+04  1.04994E+04 -1.55813E+04 -2.05370E+03
 -1.24494E+04 -1.26425E+04 -1.67569E+03 -1.40907E+04  7.75544E+03 -1.19104E+04  9.44695E+03 -4.03282E+03
  6.00779E+03  2.32400E+03 -1.36128E+03  2.22128E+03 -1.74770E+03 -4.44768E+03  3.69255E+03 -9.41324E+03
  1.42396E+04 -6.09356E+03  2.01087E+04  2.56069E+03  1.93657E+04  1.43089E+04  1.19194E+04  2.62492E+04
 -5.99409E+03  2.95046E+04 -2.47448E+04  2.20811E+04 -3.21566E+04  4.10175E+03 -2.61170E+04 -1.17910E+04
 -1.22434E+04 -2.14149E+04 -6.82811E+02 -1.81640E+04  6.45244E+03 -1.04570E+04  6.36496E+03 -6.68662E+03
  5.08954E+03 -3.69656E+03  4.71757E+03 -4.32699E+03  6.62672E+03 -4.64076E+03  9.82583E+03 -1.79462E+03
  1.34646E+04  3.26784E+03  7.54629E+03  1.17734E+04 -2.45510E+03  1.43835E+04 -1.41209E+04  1.11134E+04
 -1.87684E+04 -1.24729E+03 -1.28303E+04 -1.35192E+04 -2.27120E+03 -2.00150E+04  1.09394E+04 -1.99085E+04
  2.06981E+04 -1.16732E+04  2.46582E+04  3.58227E+03  1.70454E+04  1.77206E+04  2.37112E+03  2.26637E+04
 -9.76218E+03  1.83087E+04 -1.35763E+04  6.89330E+03 -8.80136E+03 -1.91892E+03 -4.05690E+03 -3.10556E+03
 -1.63370E+03 -3.67216E+02 -2.73289E+03  3.99633E+03 -7.65178E+03  3.42540E+03 -1.25259E+04 -1.53069E+03
 -9.65993E+03 -1.23584E+04 -4.39163E+02 -1.87043E+04  1.17911E+04 -1.74348E+04  1.93974E+04 -5.70105E+03
  1.87937E+04  8.80748E+03  9.09850E+03  1.77005E+04 -4.15136E+03  1.95179E+04 -1.40031E+04  1.16038E+04
 -1.79701E+04  5.09996E+02 -1.40568E+04 -1.17276E+04 -1.82970E+03 -1.61293E+04  8.94164E+03 -1.18564E+04
  1.23669E+04 -3.75647E+03  8.99416E+03  3.65198E+03  3.10535E+03  5.83849E+03  2.33515E+03  3.16089E+03
  3.16035E+03  1.85399E+03  4.30693E+03  2.65973E+03  6.51833E+03  6.10083E+03  5.13452E+03  1.06176E+04
 -4.07786E+03  1.54588E+04 -1.36172E+04  1.49544E+04 -2.04859E+04  3.89277E+03 -2.06716E+04 -8.69778E+03
 -1.01128E+04 -2.02684E+04  3.15145E+03 -2.22907E+04  1.23544E+04 -1.46473E+04  1.65010E+04 -3.83364E+03
  1.30903E+04  7.09223E+03  3.51494E+03  1.12153E+04 -5.79127E+03  7.96734E+03 -8.20691E+03 -1.40649E+03
 -3.90509E+03 -8.26359E+03  4.76040E+03 -8.97037E+03  8.44518E+03 -4.75146E+03  8.47486E+03  1.74428E+03
  4.95445E+03  4.50036E+03  1.93053E+03  3.77541E+03 -1.11096E+03  2.66239E+03  2.24318E+03 -1.04910E+03
  3.86981E+03 -1.62264E+03  8.78066E+03  3.41261E+03  4.99838E+03  1.11918E+04 -1.66390E+03  1.42815E+04
 -9.88301E+03  1.00783E+04 -1.36588E+04  2.58820E+03 -1.19057E+04 -4.84493E+03 -5.16246E+03 -8.52126E+03
  1.55126E+03 -8.12671E+03  5.41349E+03 -3.97796E+03  4.74988E+03  3.70898E+03 -1.67538E+03  6.97336E+03
 -8.91714E+03  3.20179E+03 -1.02105E+04 -5.11047E+03 -5.76080E+03 -1.10813E+04  1.33753E+03 -1.18092E+04
  6.95246E+03 -6.97804E+03  8.59535E+03 -1.11443E+03  6.33516E+03  3.50547E+03  7.39092E+02  6.18449E+03
 -4.49729E+03  2.25053E+03 -5.09991E+03 -4.26251E+03  2.08731E+03 -9.33107E+03  1.02666E+04 -7.54168E+03
  1.40041E+04  1.30800E+03  1.28582E+04  9.25191E+03  4.17302E+03  1.42831E+04 -5.71049E+03  1.34131E+04
 -1.19759E+04  6.28923E+03 -1.17801E+04 -1.91477E+03 -6.40373E+03 -8.68427E+03  2.25371E+03 -8.85496E+03
  8.68104E+03 -3.97609E+03  7.34051E+03  3.69305E+03  3.12492E+03  7.97291E+03 -1.16892E+03  6.79988E+03
 -3.90118E+03  4.50836E+03 -3.48980E+03  1.44942E+03 -1.46836E+03  1.24660E+03 -2.09159E+03  2.72695E+03
 -3.32821E+03  5.85982E+03 -9.58965E+03  4.89109E+03 -1.45967E+04  3.52669E+02 -1.58842E+04 -9.98996E+03
 -8.48008E+03 -1.93290E+04  3.61231E+03 -2.17935E+04  1.38726E+04 -1.72535E+04  2.11124E+04 -6.82987E+03
  1.97663E+04  4.60222E+03  1.25511E+04  1.34530E+04  1.63389E+03  1.53075E+04 -6.47731E+03  1.12746E+04
 -8.56203E+03  4.18870E+03 -4.81823E+03 -1.23871E+03 -1.56562E+03 -1.88582E+03 -6.12041E+02 -3.66942E+02
 -2.55671E+03  2.35842E+02 -2.82970E+03 -6.65308E+02 -1.84028E+03 -3.02889E+03 -2.55989E+01 -5.34578E+03
  6.46800E+03 -4.47473E+03  9.56254E+03 -5.58700E-01  1.13019E+04  8.12469E+03  3.31122E+03  1.52009E+04
 -6.89059E+03  1.70805E+04 -1.65062E+04  1.02936E+04 -1.91394E+04 -1.42131E+03 -1.40098E+04 -1.20478E+04
 -5.09847E+03 -1.62174E+04  4.72560E+03 -1.44528E+04  1.04868E+04 -7.56525E+03  1.07219E+04  5.03458E+02
  5.64288E+03  5.81171E+03 -1.22283E+02  4.40396E+03 -2.92297E+03 -9.17243E+02  1.62220E+02 -3.70153E+03
  4.50680E+03 -3.09819E+03  6.54704E+03  1.93488E+03  4.30900E+03  5.72149E+03 -2.23636E+01  8.53783E+03
 -7.32548E+03  6.77140E+03 -1.08635E+04  1.14768E+03 -9.20678E+03 -8.17783E+03 -1.55930E+03 -1.32239E+04
  7.73155E+03 -1.11870E+04  1.27594E+04 -3.35517E+03  1.22997E+04  3.92917E+03  7.42437E+03  9.84827E+03
  1.55740E+03  1.06809E+04 -4.48353E+03  8.97955E+03 -6.72451E+03  4.62076E+03 -5.60594E+03  6.05618E+02
 -2.61750E+03  1.82307E+02 -2.74239E+03  1.78129E+03 -5.43300E+03  2.17025E+03 -8.45324E+03 -1.74133E+03
 -7.66941E+03 -5.68554E+03 -2.37664E+03 -1.07943E+04  4.55159E+03 -1.15660E+04  9.33895E+03 -5.78459E+03
  1.04923E+04  1.67705E+03  6.54799E+03  7.93143E+03 -6.96563E+02  1.11993E+04 -8.53848E+03  6.77246E+03
