 $NMID ID='MM_0lb_SNR800_14hz_g40_51.RAW', FMTDAT='(8E13.5)'
 TRAMP=1., VOLUME=1. $END
  3.09725E+05  3.28547E+02  3.37601E+05  2.50532E+05  8.44709E+04  3.37845E+05 -1.32490E+05  2.50980E+05
 -1.89961E+05  8.28372E+04 -1.11560E+05 -3.26206E+04  1.12364E+03 -5.05251E+04  5.38952E+04  2.67472E+01
  3.53900E+04  5.29108E+04 -1.69957E+04  7.53400E+04 -6.03671E+04  6.33632E+04 -8.35646E+04  3.20179E+04
 -8.10297E+04 -1.15041E+04 -5.68508E+04 -5.10296E+04 -1.51989E+04 -6.90475E+04  2.69735E+04 -4.56559E+04
  3.98660E+04  3.72811E+03  1.58642E+04  4.74338E+04 -3.40685E+04  4.70223E+04 -6.63333E+04 -5.39953E+02
 -5.33498E+04 -5.66908E+04 -6.56495E+03 -7.62598E+04  3.36831E+04 -5.46324E+04  4.75192E+04 -1.70603E+04
  4.28206E+04  1.10826E+04  3.12333E+04  2.51098E+04  1.58294E+04  2.89377E+04 -5.05964E+03  2.71628E+04
 -2.20922E+04  1.26437E+04 -1.87277E+04 -4.51953E+03  5.18728E+03 -7.74878E+03  2.22378E+04  1.17084E+04
  7.24799E+03  3.50227E+04 -3.16255E+04  3.48061E+04 -6.29241E+04  2.19311E+03 -5.65032E+04 -4.24868E+04
 -1.22732E+04 -6.22680E+04  3.90767E+04 -4.47721E+04  5.73309E+04 -2.34390E+03  3.35374E+04  3.21075E+04
 -6.00175E+03  3.56304E+04 -2.95432E+04  1.53316E+04 -2.92045E+04 -4.82490E+03 -1.60245E+04 -1.04929E+04
 -8.12953E+03 -1.24890E+04 -8.29451E+02 -1.74530E+04  7.17310E+03 -2.29715E+04  1.54671E+04 -1.37629E+04
  1.13803E+04  5.05594E+03 -7.57063E+03  1.30244E+04 -2.09459E+04 -3.93409E+03 -8.21510E+03 -3.28876E+04
  2.24699E+04 -4.26878E+04  4.74281E+04 -1.93855E+04  4.45193E+04  1.92843E+04  1.51758E+04  4.35414E+04
 -1.60429E+04  3.28204E+04 -2.49018E+04  1.50593E+03 -9.41147E+03 -2.76427E+04  2.10069E+04 -3.31352E+04
  4.01869E+04 -8.59343E+03  3.44577E+04  2.35290E+04  1.77008E+04  4.56497E+04 -8.13402E+03  4.89502E+04
 -3.09798E+04  3.27078E+04 -4.06361E+04  9.20716E+03 -4.16355E+04 -1.63112E+04 -2.30499E+04 -3.74706E+04
  7.16402E+03 -3.67403E+04  3.09882E+04 -1.41564E+04  2.87750E+04  1.08751E+04  3.71089E+03  1.87982E+04
 -1.32437E+04  8.12233E+03 -1.03343E+04 -7.61873E+03  6.03132E+03 -1.08068E+04  1.77592E+04  6.35621E+03
  1.32311E+04  2.18540E+04 -6.24416E+03  2.44801E+04 -2.25135E+04  1.09763E+04 -2.75282E+04 -5.00919E+03
 -1.99800E+04 -1.71101E+04 -7.86921E+03 -1.98022E+04  3.94776E+03 -1.84214E+04  1.48096E+04 -1.73374E+04
  2.51618E+04 -1.22943E+04  3.14716E+04  2.34031E+03  2.32442E+04  1.91327E+04  3.99188E+03  3.57812E+04
 -1.74246E+04  2.96993E+04 -2.72811E+04  1.04039E+04 -2.07037E+04 -1.05321E+04 -3.94267E+03 -1.30624E+04
  2.11073E+03 -3.42461E+03 -4.47137E+03  6.25861E+03 -1.54033E+04  4.92300E+03 -1.56233E+04 -6.68415E+03
 -9.53321E+03 -1.83566E+04  5.39289E+03 -2.23177E+04  1.47351E+04 -1.60452E+04  1.73983E+04 -1.70484E+03
  1.11533E+04  1.26173E+04 -1.01080E+03  1.81390E+04 -1.25997E+04  1.02404E+04 -1.80235E+04 -4.00534E+03
 -1.35685E+04 -1.66876E+04 -1.86196E+03 -2.24335E+04  1.01390E+04 -1.82542E+04  1.82267E+04 -8.87021E+03
  1.72408E+04  5.75041E+02  1.25329E+04  4.22003E+03  6.41040E+03  6.75039E+02  9.08818E+03 -1.53108E+03
  1.65980E+04  3.04280E+03  1.83773E+04  1.47543E+04  1.19092E+04  2.90146E+04 -2.83674E+03  3.28429E+04
 -1.91752E+04  2.60116E+04 -3.02633E+04  1.30218E+04 -3.17833E+04 -2.44663E+03 -2.62379E+04 -1.81683E+04
 -1.16488E+04 -2.61121E+04  9.01987E+03 -2.37296E+04  2.05110E+04 -1.24647E+04  1.84104E+04  5.25560E+03
  6.99454E+03  1.37692E+04 -8.51563E+03  1.20712E+04 -1.58355E+04  2.93807E+03 -1.19897E+04 -9.57307E+03
  4.40332E+01 -1.47870E+04  7.35071E+03 -1.09816E+04  9.65310E+03 -1.43040E+03  2.27063E+03  6.24696E+03
 -6.44275E+03  2.47525E+03 -5.63271E+03 -5.43707E+03 -2.88514E+02 -1.27058E+04  9.48764E+03 -1.32567E+04
  1.57906E+04 -6.54204E+03  1.68782E+04  3.06201E+03  1.48575E+04  1.22998E+04  6.96494E+03  1.92857E+04
 -2.77374E+03  2.10923E+04 -1.31821E+04  1.30328E+04 -1.52686E+04  3.61362E+03 -1.07532E+04 -3.75759E+03
 -5.40965E+03 -4.60820E+03 -8.69061E+02  1.12473E+03 -2.38194E+03  2.49841E+03 -4.78212E+03  4.45389E+03
 -9.94030E+03 -3.35762E+02 -1.10511E+04 -8.72880E+03 -4.35861E+03 -1.41497E+04  4.19013E+03 -1.07547E+04
  9.31185E+03 -4.79385E+03  6.45453E+03  2.95730E+03  1.16341E+02  4.03978E+03 -4.77451E+03 -2.54264E+02
 -4.65809E+03 -6.92772E+03 -8.55440E+02 -9.81204E+03  5.69235E+03 -1.08583E+04  1.31170E+04 -5.79289E+03
  1.56218E+04  9.73569E+02  1.13517E+04  8.71018E+03  2.13894E+03  1.22096E+04 -6.58383E+03  1.05975E+04
 -8.55212E+03  3.19120E+03 -4.54988E+03 -1.86202E+03  1.83359E+03 -2.83489E+03  6.02883E+03 -8.91071E+02
  5.30475E+03  4.36005E+03  1.36478E+03  8.41108E+03 -6.22590E+03  8.43499E+03 -1.03987E+04  2.28592E+03
 -6.86069E+03 -5.33490E+03  8.94063E+01 -8.77798E+03  5.21866E+03 -4.63583E+03  5.41321E+03  1.87109E+03
  1.07259E+03  5.53047E+03 -5.17343E+03  7.13496E+03 -7.42117E+03  3.23327E+03 -7.64955E+03 -2.55801E+03
 -4.44121E+03 -9.31086E+03  2.36208E+03 -1.07574E+04  9.43612E+03 -6.61214E+03  9.73931E+03  1.68982E+03
  6.60676E+03  8.08368E+03 -4.07254E+02  1.01730E+04 -7.24764E+03  5.54789E+03 -7.59271E+03 -5.16214E+02
 -7.44094E+03 -6.91499E+03 -1.39106E+03 -7.35499E+03  3.58975E+03 -6.21009E+03  4.51505E+03 -3.46628E+03
  3.30298E+03  1.02700E+03 -2.80873E+02  1.50222E+03  7.77591E+01 -9.38597E+02  8.60377E+02 -3.87093E+03
  6.32837E+03 -1.95170E+03  8.74741E+03  1.18065E+03  8.85724E+03  5.71390E+03  6.50075E+03  1.14900E+04
 -2.44355E+03  1.34365E+04 -1.12215E+04  1.00933E+04 -1.49685E+04  1.69925E+03 -1.20281E+04 -4.49334E+03
 -6.07781E+03 -9.84077E+03 -1.38357E+02 -8.10736E+03  3.18019E+03 -4.30280E+03  2.93570E+03 -2.92396E+03
  1.90522E+03 -1.93455E+03  2.52536E+03 -2.55314E+03  4.18249E+03 -2.32874E+03  4.84106E+03  8.55204E+01
  6.35714E+03  1.68664E+03  2.42098E+03  5.35042E+03 -1.72259E+03  5.30528E+03 -6.77247E+03  4.67624E+03
 -8.06730E+03 -1.62713E+03 -4.19964E+03 -5.40171E+03 -4.43986E+01 -8.19740E+03  5.24966E+03 -8.47437E+03
  8.63892E+03 -4.99927E+03  1.07468E+04  9.75164E+02  7.43632E+03  7.31411E+03  1.48658E+03  9.32132E+03
 -3.84741E+03  8.77505E+03 -5.60931E+03  3.13674E+03 -3.51760E+03 -1.32897E+03 -1.02533E+03 -1.04017E+03
 -6.58009E+02  2.30911E+02 -1.41232E+03  2.24234E+03 -3.55663E+03  1.31179E+03 -5.88385E+03 -8.52013E+02
 -3.00453E+03 -5.83800E+03  3.44528E+02 -7.80698E+03  4.68619E+03 -7.23291E+03  7.16856E+03 -2.05135E+03
  7.19428E+03  3.87968E+03  3.19657E+03  6.37783E+03 -1.31279E+03  7.57354E+03 -5.23060E+03  4.81459E+03
 -6.95220E+03  5.11468E+02 -5.58116E+03 -4.20019E+03 -4.62970E+02 -5.94227E+03  2.90617E+03 -4.87771E+03
  4.70065E+03 -1.99029E+03  3.18632E+03  1.10312E+03  8.19161E+02  2.45937E+03  9.81390E+02  9.78243E+02
  1.92003E+03  6.77294E+02  2.07924E+03  1.26728E+03  2.15211E+03  3.43544E+03  1.88579E+03  3.82452E+03
 -1.72254E+03  5.55741E+03 -5.46712E+03  6.19367E+03 -6.70091E+03  1.71143E+03 -7.42012E+03 -2.21561E+03
 -3.72263E+03 -6.89283E+03  1.19719E+03 -8.17440E+03  4.10059E+03 -4.74555E+03  5.62298E+03 -1.37897E+03
  4.31355E+03  2.59395E+03  5.61462E+02  4.30419E+03 -1.73524E+03  2.30663E+03 -2.37066E+03 -4.23902E+02
 -1.53592E+03 -3.12270E+03  2.05325E+03 -2.98007E+03  2.86494E+03 -1.80812E+03  2.79397E+03  5.26022E+02
  1.22898E+03  1.18901E+03  9.51539E+02  6.16315E+02 -5.96617E+02  8.56666E+02  1.38356E+03 -2.85790E+02
  9.84956E+02 -4.74395E+02  2.99918E+03  9.49620E+02  1.36585E+03  4.12543E+03 -1.02477E+03  5.26153E+03
 -3.31739E+03  2.94811E+03 -4.29745E+03  6.12165E+02 -3.90301E+03 -1.62316E+03 -8.99144E+02 -2.35352E+03
  6.78292E+02 -2.63480E+03  1.65256E+03 -1.52466E+03  1.60946E+03  1.88425E+03 -1.01377E+03  2.20392E+03
 -2.75134E+03  1.33684E+03 -2.82911E+03 -1.97813E+03 -1.68705E+03 -3.83238E+03  5.72661E+02 -3.38665E+03
  1.95677E+03 -1.62936E+03  2.34059E+03 -4.77760E+01  2.28768E+03  6.40825E+02  6.26822E+02  2.00261E+03
 -9.77894E+02  3.31435E+02 -1.60375E+03 -1.11568E+03  6.94840E+02 -2.48718E+03  3.38142E+03 -2.16649E+03
  3.96306E+03  5.65057E+02  4.71389E+03  2.38797E+03  1.53240E+03  4.02038E+03 -1.18032E+03  4.25695E+03
 -3.31426E+03  1.61736E+03 -3.46145E+03 -5.29962E+02 -1.87934E+03 -2.76444E+03  9.07322E+02 -2.12101E+03
  2.72388E+03 -1.38270E+03  1.99390E+03  1.17873E+03  4.38213E+02  2.38808E+03 -8.35904E+01  2.11951E+03
 -1.15641E+03  1.71455E+03 -1.19886E+03  6.70042E+02 -4.63567E+02  5.87934E+02 -8.77395E+02  8.42962E+02
 -1.07534E+03  1.84964E+03 -3.15045E+03  1.18534E+03 -4.05669E+03 -2.20009E+01 -4.56645E+03 -2.60457E+03
 -2.28959E+03 -5.29830E+03  1.27180E+03 -6.08420E+03  3.07404E+03 -5.13707E+03  6.16297E+03 -1.88821E+03
  5.21723E+03  2.70217E+02  2.97590E+03  3.77915E+03 -3.46480E+02  4.03129E+03 -1.30904E+03  3.00829E+03
 -2.10870E+03  1.37058E+03 -1.67210E+03 -4.22938E+02 -8.87273E+02  7.86824E+01 -8.33934E+02  1.78210E+02
 -1.30190E+03  1.52163E+02 -1.03354E+03  2.87195E+02 -3.08240E+01 -1.02121E+03 -6.94773E+00 -1.91364E+03
  2.08537E+03 -1.06961E+03  1.96173E+03  3.66024E+02  2.64011E+03  2.27416E+03  1.82306E+02  3.77097E+03
 -2.08945E+03  4.55811E+03 -3.92312E+03  2.87442E+03 -4.46934E+03 -7.71112E+02 -3.39098E+03 -2.84055E+03
 -1.96518E+03 -3.83122E+03  9.82977E+02 -3.03643E+03  2.50590E+03 -1.82198E+03  2.30817E+03  9.03877E+01
  1.35080E+03  1.36402E+03  2.76475E+01  1.07848E+03 -8.68527E+02 -9.52873E+01  1.98435E+02 -5.96454E+02
  1.12598E+03 -3.28446E+02  1.26828E+03  6.97936E+02  4.94806E+02  1.38654E+03  4.48206E+02  1.49161E+03
 -1.62095E+03  2.12049E+03 -2.49430E+03 -8.75018E+01 -2.14606E+03 -1.46691E+03  1.36344E+01 -3.52770E+03
  1.49472E+03 -2.36502E+03  2.40003E+03 -7.41572E+02  2.72916E+03  8.65735E+00  1.48286E+03  2.06106E+03
  3.48468E+02  2.06083E+03 -7.15300E+02  1.82916E+03 -1.24959E+03  1.47921E+03 -9.35393E+02  2.16803E+02
 -3.23081E+02  6.28771E+01 -8.92914E+02  4.40054E+02 -1.13891E+03  6.24024E+02 -1.70133E+03 -2.46070E+02
 -1.92169E+03 -7.09036E+02 -5.23018E+02 -2.27720E+03  1.67919E+03 -3.04616E+03  1.87041E+03 -8.97359E+02
  2.14010E+03  1.26384E+02  6.32225E+02  1.23608E+03 -3.24328E+02  2.37963E+03 -1.50493E+03  1.53350E+03
