 $NMID ID='MM_0lb_SNR800_16hz_g40_90.RAW', FMTDAT='(8E13.5)'
 TRAMP=1., VOLUME=1. $END
  3.09599E+05  4.87629E+02  3.37302E+05  2.50524E+05  8.43358E+04  3.37193E+05 -1.32282E+05  2.50460E+05
 -1.89864E+05  8.26885E+04 -1.10951E+05 -3.30087E+04  1.09422E+03 -5.02347E+04  5.38751E+04 -1.15148E+02
  3.55422E+04  5.26769E+04 -1.69520E+04  7.48261E+04 -6.05034E+04  6.28361E+04 -8.36331E+04  3.16483E+04
 -7.97681E+04 -1.09166E+04 -5.63132E+04 -5.04396E+04 -1.48727E+04 -6.85541E+04  2.71153E+04 -4.49730E+04
  3.93231E+04  3.76327E+03  1.58469E+04  4.73516E+04 -3.40156E+04  4.64532E+04 -6.59102E+04 -4.66082E+02
 -5.23857E+04 -5.65259E+04 -6.48306E+03 -7.56843E+04  3.32706E+04 -5.36845E+04  4.67340E+04 -1.66584E+04
  4.23369E+04  1.09443E+04  3.09339E+04  2.47879E+04  1.57563E+04  2.83860E+04 -4.91154E+03  2.69591E+04
 -2.18665E+04  1.27065E+04 -1.90648E+04 -4.64058E+03  4.76259E+03 -7.39288E+03  2.16986E+04  1.13056E+04
  7.21926E+03  3.38311E+04 -3.12237E+04  3.45154E+04 -6.20083E+04  2.09035E+03 -5.56526E+04 -4.14671E+04
 -1.24539E+04 -6.13363E+04  3.84751E+04 -4.39500E+04  5.61932E+04 -2.03810E+03  3.24537E+04  3.08794E+04
 -6.38567E+03  3.38758E+04 -2.89424E+04  1.40761E+04 -2.86231E+04 -5.13980E+03 -1.50901E+04 -1.05440E+04
 -7.71824E+03 -1.19126E+04 -8.35736E+02 -1.73183E+04  6.92997E+03 -2.27150E+04  1.50691E+04 -1.36923E+04
  1.21321E+04  4.51251E+03 -6.96332E+03  1.30391E+04 -1.99164E+04 -3.09894E+03 -8.27205E+03 -3.13950E+04
  2.14123E+04 -4.14752E+04  4.59403E+04 -1.90760E+04  4.31585E+04  1.85916E+04  1.49416E+04  4.23862E+04
 -1.54259E+04  3.19981E+04 -2.38369E+04  1.40206E+03 -8.80338E+03 -2.70975E+04  2.10210E+04 -3.18878E+04
  3.89839E+04 -7.79346E+03  3.26090E+04  2.31344E+04  1.60949E+04  4.37167E+04 -7.88333E+03  4.69102E+04
 -2.97247E+04  3.10324E+04 -3.88376E+04  8.55728E+03 -3.98007E+04 -1.54185E+04 -2.20384E+04 -3.55292E+04
  6.92565E+03 -3.55064E+04  3.00769E+04 -1.33899E+04  2.78731E+04  1.08332E+04  3.51322E+03  1.81601E+04
 -1.30701E+04  7.34837E+03 -9.90997E+03 -7.47913E+03  6.00003E+03 -1.03203E+04  1.73514E+04  6.38701E+03
  1.25602E+04  2.18219E+04 -6.44399E+03  2.39644E+04 -2.17547E+04  1.00544E+04 -2.60124E+04 -5.80395E+03
 -1.79298E+04 -1.68522E+04 -6.49482E+03 -1.81263E+04  3.65342E+03 -1.63582E+04  1.35875E+04 -1.55563E+04
  2.26091E+04 -1.20275E+04  2.96071E+04  1.58996E+03  2.22375E+04  1.75705E+04  4.07825E+03  3.32636E+04
 -1.66033E+04  2.80315E+04 -2.65191E+04  9.69820E+03 -1.97080E+04 -1.02621E+04 -3.86170E+03 -1.37241E+04
  2.30456E+03 -3.73137E+03 -3.83629E+03  5.63213E+03 -1.39434E+04  5.00914E+03 -1.45817E+04 -5.74403E+03
 -9.22539E+03 -1.65114E+04  4.72516E+03 -2.06180E+04  1.37946E+04 -1.52472E+04  1.59615E+04 -1.84964E+03
  9.67540E+03  1.17927E+04 -7.51085E+02  1.70690E+04 -1.13231E+04  9.50883E+03 -1.67436E+04 -3.66589E+03
 -1.23439E+04 -1.52270E+04 -1.35596E+03 -2.03730E+04  9.16488E+03 -1.66983E+04  1.71475E+04 -8.07105E+03
  1.58006E+04  3.49406E+02  1.13508E+04  4.05904E+03  5.91372E+03  8.24875E+02  8.39125E+03 -1.54057E+03
  1.52138E+04  2.79646E+03  1.62300E+04  1.35546E+04  1.04573E+04  2.68510E+04 -2.96991E+03  2.91416E+04
 -1.69755E+04  2.29286E+04 -2.71145E+04  1.11285E+04 -2.78710E+04 -1.93463E+03 -2.35868E+04 -1.60248E+04
 -1.07083E+04 -2.28492E+04  7.73399E+03 -2.11307E+04  1.81714E+04 -1.14401E+04  1.69480E+04  4.32639E+03
  7.03532E+03  1.21729E+04 -7.49548E+03  1.13434E+04 -1.45831E+04  2.42713E+03 -1.11060E+04 -8.58215E+03
 -3.26397E+02 -1.34668E+04  6.85237E+03 -1.00962E+04  8.82670E+03 -1.49869E+03  1.64609E+03  5.24758E+03
 -6.24949E+03  2.02155E+03 -4.40354E+03 -4.86435E+03  4.66430E+02 -1.12155E+04  8.13709E+03 -1.16978E+04
  1.38908E+04 -5.56734E+03  1.41297E+04  3.17848E+03  1.22841E+04  1.06101E+04  5.73672E+03  1.61740E+04
 -2.35839E+03  1.81768E+04 -1.13588E+04  1.15025E+04 -1.31068E+04  2.91829E+03 -9.63523E+03 -2.65785E+03
 -4.87654E+03 -3.80872E+03 -6.75153E+02  1.25923E+03 -2.29153E+03  2.12025E+03 -4.25474E+03  3.92688E+03
 -9.11546E+03 -7.11078E+02 -9.71230E+03 -7.86194E+03 -3.61798E+03 -1.26648E+04  3.99500E+03 -9.67083E+03
  8.35683E+03 -4.13647E+03  6.08516E+03  2.57201E+03  5.49379E+02  3.28930E+03 -4.32443E+03 -2.66654E+02
 -3.80539E+03 -5.98938E+03 -9.50866E+02 -8.43122E+03  4.67724E+03 -9.12374E+03  1.15490E+04 -4.99409E+03
  1.39557E+04  6.46999E+02  1.00103E+04  7.34352E+03  1.85701E+03  1.01272E+04 -5.93252E+03  9.42456E+03
 -7.71592E+03  3.04186E+03 -4.05200E+03 -1.57356E+03  1.19769E+03 -2.23984E+03  5.07543E+03 -1.26130E+03
  4.79760E+03  3.96625E+03  1.03687E+03  7.15927E+03 -5.20926E+03  7.23433E+03 -8.92290E+03  1.87683E+03
 -5.66891E+03 -4.35394E+03  4.55370E+02 -7.81681E+03  4.23503E+03 -3.90351E+03  4.65035E+03  1.00653E+03
  6.22234E+02  4.30563E+03 -5.01757E+03  5.69118E+03 -6.32561E+03  2.89246E+03 -5.82769E+03 -1.89332E+03
 -3.90517E+03 -7.12694E+03  1.56759E+03 -8.67071E+03  7.34193E+03 -5.49019E+03  7.82070E+03  1.42071E+03
  5.15808E+03  6.39073E+03  9.04712E+01  8.37500E+03 -6.32449E+03  4.81441E+03 -6.49564E+03 -7.93035E+02
 -6.32721E+03 -6.00212E+03 -1.31780E+03 -6.04495E+03  3.02317E+03 -5.51931E+03  3.73811E+03 -2.86859E+03
  3.02607E+03  5.81814E+02 -2.03889E+02  1.37599E+03  4.55805E+02 -5.93892E+02  4.88880E+02 -2.76329E+03
  4.96688E+03 -1.14419E+03  6.89024E+03  7.78193E+02  7.10763E+03  4.23934E+03  6.06102E+03  9.10669E+03
 -1.76130E+03  1.07605E+04 -9.40588E+03  8.19811E+03 -1.25476E+04  1.35638E+03 -9.76987E+03 -3.48022E+03
 -5.01225E+03 -8.18999E+03 -1.24667E+02 -6.52100E+03  2.75481E+03 -3.41652E+03  2.47641E+03 -2.23030E+03
  1.65337E+03 -1.84858E+03  2.37384E+03 -2.62315E+03  3.94805E+03 -1.67491E+03  4.20027E+03  1.88426E+01
  5.52793E+03  1.57642E+03  1.64225E+03  4.14463E+03 -1.70573E+03  4.18898E+03 -5.17198E+03  3.29909E+03
 -6.31466E+03 -9.43890E+02 -3.19315E+03 -4.24080E+03  8.41126E+01 -6.28314E+03  3.87483E+03 -6.95406E+03
  6.63494E+03 -3.82565E+03  8.62907E+03  6.45037E+02  6.30490E+03  5.52568E+03  1.19704E+03  7.41253E+03
 -2.85364E+03  7.18564E+03 -4.52443E+03  2.09185E+03 -3.06338E+03 -1.27258E+03 -7.51297E+02 -8.48517E+02
 -6.04413E+02  4.20239E+02 -1.22295E+03  2.17961E+03 -2.93352E+03  1.42275E+03 -5.11611E+03 -4.24548E+02
 -2.44381E+03 -5.17419E+03  5.58694E+02 -6.08554E+03  3.68257E+03 -5.72361E+03  5.15759E+03 -1.65408E+03
  5.20093E+03  3.02203E+03  2.29452E+03  4.51118E+03 -9.69060E+02  5.92676E+03 -3.85000E+03  3.74367E+03
 -5.12332E+03  4.48978E+02 -4.40279E+03 -3.21609E+03 -4.54622E+02 -4.45933E+03  2.71086E+03 -3.26345E+03
  3.60405E+03 -1.50742E+03  2.71093E+03  6.01028E+02  7.61818E+02  2.11876E+03  7.81798E+02  8.56139E+02
  1.94416E+03  7.86302E+02  1.61270E+03  1.02388E+03  1.71116E+03  2.55323E+03  1.96284E+03  2.54763E+03
 -1.37375E+03  4.01889E+03 -3.57851E+03  5.01878E+03 -4.45748E+03  1.41775E+03 -5.86644E+03 -1.16421E+03
 -2.35568E+03 -5.17517E+03  1.02326E+03 -6.32592E+03  2.78482E+03 -3.87949E+03  4.27087E+03 -1.00210E+03
  3.61440E+03  2.60598E+03  6.78545E+02  3.21550E+03 -1.14437E+03  1.46050E+03 -1.81539E+03 -2.38212E+02
 -8.03731E+02 -2.23068E+03  1.39737E+03 -2.30211E+03  1.95489E+03 -1.24968E+03  2.06209E+03  4.38076E+02
  1.26241E+03  2.91356E+02  8.87671E+02  2.97194E+02 -4.93775E+02  7.07201E+02  1.72949E+03 -3.32081E+02
  3.36961E+02 -4.37362E+02  2.44860E+03  1.11878E+03  8.05786E+02  2.92553E+03 -5.91057E+02  3.95072E+03
 -2.60041E+03  1.72684E+03 -3.08348E+03  6.83693E+02 -2.95019E+03 -8.67168E+02 -6.60545E+02 -1.82300E+03
  4.69761E+02 -1.65190E+03  1.49447E+03 -9.61844E+02  1.08383E+03  1.26969E+03 -8.42441E+02  1.71350E+03
 -1.98757E+03  1.11497E+03 -1.72798E+03 -1.75607E+03 -1.15906E+03 -2.53030E+03  4.26538E+02 -2.38222E+03
  8.34737E+02 -1.23157E+03  1.51132E+03  2.93433E+02  2.04376E+03  3.40938E+02  4.96443E+02  1.72280E+03
 -6.64859E+02  2.53910E+02 -1.32672E+03 -5.09056E+02  7.73568E+02 -1.49865E+03  2.45544E+03 -1.42585E+03
  2.39549E+03  5.31533E+02  3.33648E+03  1.46256E+03  1.11248E+03  2.44328E+03 -9.05627E+02  2.79658E+03
 -2.46884E+03  8.43820E+02 -2.10429E+03 -2.68706E+02 -1.34884E+03 -1.80371E+03  4.63775E+02 -1.31445E+03
  2.09123E+03 -9.84220E+02  1.22329E+03  9.65278E+02  4.08383E+02  2.02279E+03  1.80464E+02  1.61581E+03
 -7.82310E+02  1.35050E+03 -5.60183E+02  3.22142E+02 -4.40095E+01  2.75328E+02 -6.52171E+02  2.99705E+02
 -9.38623E+02  1.27699E+03 -2.49344E+03  7.73985E+02 -2.95873E+03  2.24259E+01 -3.25394E+03 -1.87806E+03
 -1.95022E+03 -3.38818E+03  5.84725E+02 -4.41296E+03  1.97331E+03 -3.73671E+03  4.32839E+03 -1.51398E+03
  3.65799E+03  3.07974E+02  2.12774E+03  2.23580E+03 -2.20935E+02  2.67168E+03 -1.08568E+03  2.10571E+03
 -1.72510E+03  9.36607E+02 -9.95767E+02 -7.42604E+02 -5.46595E+02  1.64751E+02 -7.77275E+02 -1.33791E+02
 -1.29910E+03 -3.74699E+02 -1.00777E+03 -1.32872E+02  1.13059E+01 -9.98006E+02 -3.97394E+02 -1.35502E+03
  1.75712E+03 -1.06239E+03  1.13267E+03  1.09755E+02  2.18837E+03  1.30820E+03 -1.54381E+02  2.39852E+03
 -1.55848E+03  3.55336E+03 -2.58707E+03  1.96066E+03 -3.21286E+03 -5.11073E+02 -2.17882E+03 -2.44040E+03
 -1.02206E+03 -2.35761E+03  7.39213E+02 -2.22609E+03  1.38475E+03 -1.03283E+03  1.27001E+03  2.44706E+02
  7.47609E+02  1.06912E+03 -1.26184E+02  7.51084E+02 -2.09435E+02  3.50719E+01  2.03506E+01 -4.54295E+02
  8.23435E+02 -2.98309E+02  6.68034E+02  6.68460E+02  3.54932E+02  9.01270E+02  3.57591E+02  8.22696E+02
 -1.47132E+03  1.12630E+03 -1.38833E+03  2.55716E+02 -1.50803E+03 -1.04517E+03 -2.69314E+02 -2.21801E+03
  8.24277E+02 -1.46759E+03  1.34430E+03 -2.82202E+02  1.69412E+03 -3.23547E+02  7.04286E+02  1.78258E+03
  2.41620E+02  1.14722E+03 -6.84134E+02  9.91783E+02 -9.53084E+02  7.21749E+02 -5.47219E+02  2.38288E+02
 -4.42855E+02 -6.34148E+00 -4.34623E+02  1.77593E+02 -1.04701E+03  3.51777E+02 -1.42737E+03 -2.83005E+02
 -1.64766E+03 -1.81488E+02 -3.85424E+02 -1.68653E+03  9.14868E+02 -2.00951E+03  1.28093E+03 -6.77561E+02
  1.36637E+03  4.20756E+02  1.08070E+02  7.68823E+02 -5.03360E+01  1.56650E+03 -9.61530E+02  1.16528E+03
