 $NMID ID='MM_0lb_SNR800_20hz_g40_90.RAW', FMTDAT='(8E13.5)'
 TRAMP=1., VOLUME=1. $END
  3.10134E+05  1.93298E+02  3.36980E+05  2.50494E+05  8.43447E+04  3.36965E+05 -1.32387E+05  2.49702E+05
 -1.89289E+05  8.19752E+04 -1.10397E+05 -3.29556E+04  1.75211E+03 -5.02970E+04  5.39485E+04  4.61780E+02
  3.50290E+04  5.26276E+04 -1.71798E+04  7.45608E+04 -5.99621E+04  6.22670E+04 -8.24517E+04  3.10066E+04
 -7.88070E+04 -1.09882E+04 -5.54399E+04 -4.97182E+04 -1.50446E+04 -6.75597E+04  2.64309E+04 -4.44410E+04
  3.83457E+04  3.90885E+03  1.52466E+04  4.65010E+04 -3.36555E+04  4.57270E+04 -6.45563E+04 -7.59994E+02
 -5.12564E+04 -5.53890E+04 -5.83866E+03 -7.40473E+04  3.23882E+04 -5.23042E+04  4.51892E+04 -1.61459E+04
  4.07681E+04  1.08980E+04  3.02598E+04  2.40276E+04  1.57390E+04  2.75177E+04 -4.40176E+03  2.63952E+04
 -2.15152E+04  1.30033E+04 -1.93413E+04 -4.15642E+03  3.38820E+03 -7.46787E+03  2.07576E+04  1.02355E+04
  7.31803E+03  3.20747E+04 -2.96659E+04  3.29759E+04 -5.98155E+04  2.34070E+03 -5.43501E+04 -4.01490E+04
 -1.25646E+04 -5.94460E+04  3.68603E+04 -4.24483E+04  5.41155E+04 -1.89166E+03  3.04941E+04  2.95696E+04
 -6.56649E+03  3.19077E+04 -2.76515E+04  1.20365E+04 -2.60691E+04 -5.74388E+03 -1.32978E+04 -9.17304E+03
 -6.82771E+03 -1.07186E+04 -1.12463E+03 -1.59778E+04  6.19252E+03 -2.24372E+04  1.47503E+04 -1.40240E+04
  1.24636E+04  3.77201E+03 -5.15963E+03  1.29628E+04 -1.81055E+04 -1.58603E+03 -7.94141E+03 -2.88448E+04
  1.97449E+04 -3.87831E+04  4.29418E+04 -1.79194E+04  4.03329E+04  1.75438E+04  1.32370E+04  4.05358E+04
 -1.49091E+04  2.95519E+04 -2.26882E+04  9.43886E+02 -7.70681E+03 -2.57137E+04  2.03112E+04 -3.00875E+04
  3.64820E+04 -6.50282E+03  2.92246E+04  2.23185E+04  1.41542E+04  4.07094E+04 -7.72899E+03  4.25867E+04
 -2.66404E+04  2.78006E+04 -3.50920E+04  7.68380E+03 -3.63040E+04 -1.42096E+04 -2.03290E+04 -3.28919E+04
  6.70128E+03 -3.24155E+04  2.81111E+04 -1.18731E+04  2.57775E+04  1.08357E+04  2.24436E+03  1.69276E+04
 -1.30074E+04  6.73545E+03 -9.43288E+03 -7.70614E+03  6.20497E+03 -9.57356E+03  1.69668E+04  6.80749E+03
  1.17573E+04  2.13350E+04 -6.98983E+03  2.24995E+04 -2.07899E+04  8.08220E+03 -2.36856E+04 -6.84154E+03
 -1.48593E+04 -1.56417E+04 -4.57634E+03 -1.50778E+04  3.74800E+03 -1.23967E+04  1.09110E+04 -1.27287E+04
  1.88755E+04 -1.09060E+04  2.60675E+04  3.23928E+02  2.03226E+04  1.47069E+04  3.98497E+03  3.09759E+04
 -1.53743E+04  2.63371E+04 -2.50173E+04  9.18548E+03 -1.92413E+04 -1.03489E+04 -3.89383E+03 -1.41043E+04
  2.84764E+03 -4.98338E+03 -1.66509E+03  4.69953E+03 -1.14977E+04  5.48350E+03 -1.20269E+04 -4.06619E+03
 -8.06807E+03 -1.40446E+04  4.25035E+03 -1.80351E+04  1.14157E+04 -1.30279E+04  1.31829E+04 -1.53565E+03
  7.95803E+03  9.75518E+03 -9.12706E+02  1.42473E+04 -9.09100E+03  7.88266E+03 -1.37672E+04 -3.32054E+03
 -1.03196E+04 -1.28687E+04 -1.39208E+03 -1.72413E+04  7.79781E+03 -1.37043E+04  1.49847E+04 -6.44985E+03
  1.34104E+04  8.52067E+02  9.18910E+03  3.53914E+03  4.62509E+03  2.59740E+02  6.91515E+03 -1.28140E+03
  1.25053E+04  2.42032E+03  1.27665E+04  1.15992E+04  7.72769E+03  2.25560E+04 -3.25291E+03  2.35160E+04
 -1.41325E+04  1.71657E+04 -2.15378E+04  8.15286E+03 -2.13042E+04 -1.35564E+03 -1.88683E+04 -1.23857E+04
 -9.41797E+03 -1.75491E+04  5.65066E+03 -1.66876E+04  1.46761E+04 -1.01715E+04  1.40373E+04  3.19325E+03
  6.10457E+03  9.71137E+03 -6.28100E+03  9.68100E+03 -1.23243E+04  2.47314E+03 -9.50369E+03 -7.17875E+03
 -6.79093E+01 -1.13226E+04  5.39786E+03 -8.79849E+03  7.08491E+03 -1.37573E+03  1.28226E+03  4.37395E+03
 -5.15692E+03  9.32066E+02 -2.71989E+03 -4.04321E+03  9.96322E+02 -9.16707E+03  7.29995E+03 -8.48799E+03
  1.04416E+04 -3.69838E+03  9.93779E+03  2.84307E+03  8.57641E+03  8.15418E+03  3.94387E+03  1.16309E+04
 -1.16323E+03  1.33520E+04 -8.07806E+03  8.52319E+03 -9.61226E+03  2.69127E+03 -7.60820E+03 -1.30629E+03
 -4.36411E+03 -2.77970E+03 -6.02109E+02  1.63418E+03 -1.62047E+03  1.50983E+03 -3.36880E+03  3.27949E+03
 -7.10635E+03 -2.66394E+02 -7.90066E+03 -6.29809E+03 -3.37486E+03 -1.05597E+04  3.02845E+03 -7.56018E+03
  6.10389E+03 -3.27986E+03  4.56299E+03  1.90020E+03  6.88560E+02  2.63904E+03 -2.61474E+03  2.05369E+01
 -2.96274E+03 -4.41942E+03 -7.71360E+02 -6.10772E+03  3.13829E+03 -6.63712E+03  8.46629E+03 -3.21101E+03
  1.00665E+04  4.13484E+02  7.47549E+03  4.90168E+03  1.73672E+03  7.32871E+03 -4.64663E+03  7.22463E+03
 -6.22633E+03  2.69579E+03 -2.98647E+03 -7.88952E+02  1.32576E+03 -1.57940E+03  4.19073E+03 -1.34067E+03
  3.53685E+03  3.05704E+03  9.96198E+02  5.59712E+03 -3.75857E+03  5.57860E+03 -6.86448E+03  1.55695E+03
 -4.06608E+03 -3.25391E+03  4.74946E+02 -5.78624E+03  3.24005E+03 -2.76933E+03  2.96079E+03  5.77559E+02
  3.96665E+02  2.54675E+03 -3.36946E+03  3.75802E+03 -4.00108E+03  1.95669E+03 -3.23049E+03 -8.50606E+02
 -2.52134E+03 -4.83242E+03  1.21636E+03 -5.76458E+03  4.71351E+03 -3.75887E+03  5.15232E+03  4.32358E+02
  4.15725E+03  4.12963E+03  3.80554E+02  6.07080E+03 -4.13453E+03  3.57363E+03 -4.28234E+03 -2.23993E+02
 -5.28962E+03 -4.60401E+03 -1.27407E+03 -4.01178E+03  2.11438E+03 -4.09275E+03  2.62284E+03 -2.77977E+03
  2.69887E+03  1.68880E+01  5.55953E+01  1.21456E+03  8.48762E+02  4.39541E-01 -1.99226E+02 -1.24498E+03
  3.20279E+03 -2.68830E+02  4.00425E+03  4.01363E+02  4.52138E+03  2.30400E+03  4.88070E+03  5.66045E+03
 -1.10372E+03  6.67930E+03 -6.25104E+03  5.47220E+03 -8.48644E+03  8.96690E+02 -6.31587E+03 -2.17334E+03
 -3.44039E+03 -5.53596E+03 -6.37101E+02 -4.14679E+03  1.93530E+03 -1.66207E+03  1.33420E+03 -2.07013E+03
  9.61949E+02 -1.30961E+03  1.75180E+03 -2.22157E+03  3.28495E+03 -9.21222E+02  3.31295E+03  6.40691E+02
  3.82597E+03  8.00375E+02  9.28630E+02  2.74803E+03 -1.43785E+03  1.96863E+03 -3.55924E+03  1.94566E+03
 -4.12178E+03 -8.45817E+02 -9.35166E+02 -2.43907E+03  5.51993E+02 -4.02327E+03  2.46474E+03 -4.31985E+03
  3.91048E+03 -2.57745E+03  5.55161E+03 -1.81674E+02  4.02773E+03  3.22724E+03  8.79196E+02  4.95245E+03
 -1.42016E+03  5.08811E+03 -2.44996E+03  1.57559E+03 -1.44118E+03 -7.42278E+02 -3.06110E+02 -4.36658E+02
 -5.22486E+02  5.34743E+02 -6.28607E+02  2.07494E+03 -2.01070E+03  1.03715E+03 -3.55660E+03 -3.05010E+02
 -9.53279E+02 -3.90159E+03  9.82553E+02 -3.74749E+03  2.16931E+03 -3.59792E+03  2.57051E+03 -9.90152E+02
  3.21605E+03  1.96310E+03  1.50363E+03  2.39137E+03 -6.19015E+02  3.38505E+03 -2.03053E+03  1.79809E+03
 -2.75980E+03  7.13641E+02 -2.88005E+03 -1.57499E+03 -6.15747E+01 -2.64315E+03  9.92683E+02 -2.31317E+03
  2.50099E+03 -1.13762E+03  1.14310E+03  2.47032E+02  3.30890E+02  1.56394E+03  8.32258E+02  4.98421E+02
  1.44732E+03  3.52008E+02  1.04505E+03  9.15704E+02  8.16537E+02  1.86429E+03  1.02787E+03  1.09244E+03
 -9.84580E+02  2.28531E+03 -1.64288E+03  3.10720E+03 -1.89655E+03  9.48648E+02 -3.36502E+03  7.26910E+01
 -1.34123E+03 -2.60818E+03  4.92408E+02 -3.69727E+03  1.62912E+03 -2.21635E+03  2.58305E+03 -1.01099E+03
  1.80757E+03  1.39345E+03  3.19524E+02  1.62439E+03 -2.23020E+02  9.86583E+02 -3.61665E+02  5.96442E+01
 -4.34705E+02 -1.17892E+03  1.12359E+03 -1.20950E+03  9.48663E+02 -6.65220E+02  1.05373E+03  1.20137E+02
  2.63109E+02  2.28889E+02  6.10930E+02 -1.97075E+02 -6.62272E+01  6.93636E+02  1.75640E+03 -5.23007E+01
 -1.97532E+02 -7.70056E+01  1.18474E+03  5.22064E+02  8.38529E+01  2.08856E+03 -1.28238E+02  2.24956E+03
 -1.30472E+03  5.39015E+02 -1.66454E+03  2.58380E+02 -1.71794E+03 -7.23846E+02 -2.78482E+01 -7.27594E+02
  5.29720E+02 -8.63511E+02  6.57577E+02 -7.41495E+02  5.31222E+02  1.22193E+03 -4.99554E+02  1.05706E+03
 -1.17289E+03  9.90659E+02 -8.80717E+02 -1.27880E+03 -5.03006E+02 -1.59542E+03  1.19969E+01 -1.15163E+03
  3.56841E+02 -9.14260E+01  4.85044E+02  3.53556E+02  1.04340E+03 -2.94284E+02  3.27348E+02  8.08004E+02
 -1.56318E+00  6.04153E+01 -7.93102E+02 -1.89132E+01  5.64423E+02 -4.37328E+02  1.08063E+03 -5.92007E+02
  8.51891E+02  5.61154E-01  2.20037E+03  3.36472E+02  9.75953E+02  1.21970E+03 -2.05362E+02  1.18140E+03
 -9.60744E+02 -1.68139E+02 -1.06620E+03 -3.34629E+02 -8.64377E+02 -1.24070E+03  2.61924E+02 -1.62076E+02
  1.14822E+03 -6.44264E+02  4.94327E+02  6.67283E+02  4.91706E+01  1.03899E+03  3.07535E+02  1.04773E+03
 -3.46311E+02  1.00654E+03 -4.30674E+02  8.39595E+01  1.90299E+02  2.66607E+02 -7.65298E+02  4.42916E+02
 -5.01838E+02  8.18773E+02 -1.50844E+03  2.57526E+02 -1.51237E+03  9.10904E+01 -1.85419E+03 -7.44718E+02
 -8.82043E+02 -1.57316E+03  1.33713E+02 -2.12195E+03  6.04663E+02 -2.12217E+03  2.23365E+03 -8.57649E+02
  1.91930E+03 -2.80493E+02  8.37596E+02  1.03678E+03 -6.11528E+02  1.17536E+03 -6.59577E+02  9.25670E+02
 -6.91891E+02  8.30311E+02 -3.39786E+02 -3.29402E+02 -3.90861E+02  3.15792E+02 -8.79918E+02 -2.70607E+02
 -9.99197E+02 -2.77100E+02 -9.20780E+02 -2.70711E+02  3.32858E+02 -4.04305E+02 -3.24529E+02 -5.97628E+02
  9.86521E+02 -3.29969E+02 -4.49977E+01  3.89335E+02  7.13323E+02  7.68052E+02 -4.44368E+02  9.51643E+02
 -7.59004E+02  1.72366E+03 -1.30973E+03  1.02466E+03 -1.18227E+03 -3.34582E+01 -9.08540E+02 -6.98500E+02
 -8.51720E+02 -7.47603E+02  1.48011E+02 -7.04612E+02  5.28840E+02 -1.71486E+02  4.64016E+02  7.91149E+01
  4.42039E+02  2.45026E+02  1.18737E+02 -9.57174E+01 -1.43829E+02  8.04630E+01 -9.03240E+01 -2.46437E+02
  5.02578E+02  1.91838E+02 -2.53636E+02  2.70848E+02  2.51187E+02  6.72585E+01  4.29685E+02  1.64049E+02
 -4.97436E+02  5.05716E+02 -4.26768E+02  2.64430E+02 -5.91869E+02 -1.54226E+02 -6.53700E+01 -8.42546E+02
  3.60539E+02 -3.62991E+02  1.83343E+02  4.51540E+01  7.52038E+02 -4.20480E+02  4.18333E+02  6.26299E+02
  3.68544E+02  2.26659E+02 -1.36833E+02  4.66030E+02 -1.82274E+02  4.00186E+02 -2.20456E+02  4.33771E+02
 -1.72331E+02 -8.49792E+01 -5.47266E+02 -3.02443E+01 -5.85407E+02  1.04523E+02 -4.96694E+02 -1.76408E+02
 -7.81751E+02  3.56328E+02 -2.16152E+02 -7.47243E+02  8.33758E+02 -1.29292E+03  6.62895E+02 -4.05255E+01
  6.73276E+02  2.26623E+02 -4.56345E+02 -7.94662E+01 -5.98757E+01  4.84713E+02 -1.97730E+02  4.51256E+02
