 $NMID ID='MM_0lb_SNR800_11hz_g55_34.RAW', FMTDAT='(8E13.5)'
 TRAMP=1., VOLUME=1. $END
  3.09806E+05  4.31620E+02  3.37731E+05  2.51364E+05  8.47383E+04  3.38399E+05 -1.32892E+05  2.51601E+05
 -1.90668E+05  8.39459E+04 -1.12398E+05 -3.26308E+04  4.50462E+02 -5.09120E+04  5.38740E+04 -4.48829E+02
  3.52834E+04  5.28344E+04 -1.69080E+04  7.58424E+04 -6.13277E+04  6.41220E+04 -8.50304E+04  3.22085E+04
 -8.17251E+04 -1.17695E+04 -5.79896E+04 -5.23892E+04 -1.50553E+04 -7.05799E+04  2.79472E+04 -4.63947E+04
  4.08586E+04  3.86471E+03  1.68737E+04  4.86420E+04 -3.46583E+04  4.85106E+04 -6.78775E+04 -2.47915E+01
 -5.43351E+04 -5.76261E+04 -7.30459E+03 -7.87194E+04  3.44636E+04 -5.67124E+04  4.92545E+04 -1.79560E+04
  4.46737E+04  1.16261E+04  3.23749E+04  2.62684E+04  1.58106E+04  3.04291E+04 -5.59894E+03  2.78450E+04
 -2.24107E+04  1.15742E+04 -1.80103E+04 -5.46372E+03  6.89845E+03 -7.44800E+03  2.32370E+04  1.32765E+04
  7.15655E+03  3.71273E+04 -3.37381E+04  3.69300E+04 -6.52686E+04  2.42652E+03 -5.83267E+04 -4.44302E+04
 -1.24105E+04 -6.46201E+04  4.09544E+04 -4.71481E+04  6.03367E+04 -2.37631E+03  3.61817E+04  3.38959E+04
 -5.63122E+03  3.86119E+04 -3.15168E+04  1.80344E+04 -3.23825E+04 -3.56591E+03 -1.88576E+04 -1.19225E+04
 -9.31756E+03 -1.43904E+04 -4.76538E+02 -1.95340E+04  8.29353E+03 -2.36071E+04  1.57839E+04 -1.23990E+04
  1.09871E+04  5.67255E+03 -1.00705E+04  1.28933E+04 -2.26997E+04 -5.83451E+03 -8.62219E+03 -3.63663E+04
  2.43855E+04 -4.61925E+04  5.08879E+04 -2.06971E+04  4.78257E+04  2.04033E+04  1.73109E+04  4.64321E+04
 -1.66622E+04  3.56200E+04 -2.68400E+04  2.31264E+03 -1.10389E+04 -2.90098E+04  2.16479E+04 -3.61453E+04
  4.36651E+04 -1.02922E+04  3.88250E+04  2.45682E+04  2.03470E+04  5.01120E+04 -8.23330E+03  5.47187E+04
 -3.42396E+04  3.68650E+04 -4.58491E+04  1.08673E+04 -4.62824E+04 -1.76090E+04 -2.53389E+04 -4.11936E+04
  7.50038E+03 -4.09563E+04  3.35094E+04 -1.64307E+04  3.12039E+04  1.07533E+04  5.23964E+03  2.03863E+04
 -1.38429E+04  9.38801E+03 -1.08288E+04 -7.70899E+03  5.46826E+03 -1.14379E+04  1.83500E+04  5.91521E+03
  1.42839E+04  2.25066E+04 -5.62715E+03  2.65651E+04 -2.28043E+04  1.34564E+04 -3.06216E+04 -3.82164E+03
 -2.38059E+04 -1.79464E+04 -1.02757E+04 -2.37466E+04  4.18712E+03 -2.37286E+04  1.86948E+04 -2.16381E+04
  3.02308E+04 -1.33051E+04  3.64507E+04  4.27110E+03  2.62576E+04  2.32699E+04  4.41182E+03  3.99078E+04
 -1.90097E+04  3.27200E+04 -3.00056E+04  1.13886E+04 -2.18938E+04 -1.01350E+04 -4.60266E+03 -1.33332E+04
  9.56541E+02 -1.32224E+03 -6.73339E+03  8.18099E+03 -1.90079E+04  5.25029E+03 -1.90077E+04 -8.99201E+03
 -1.13860E+04 -2.20370E+04  6.33575E+03 -2.61799E+04  1.79436E+04 -1.87230E+04  2.12169E+04 -1.91400E+03
  1.34477E+04  1.54014E+04 -1.18407E+03  2.20170E+04 -1.55212E+04  1.26142E+04 -2.21676E+04 -4.78617E+03
 -1.59663E+04 -1.98244E+04 -2.00867E+03 -2.63802E+04  1.20925E+04 -2.18742E+04  2.21319E+04 -1.12817E+04
  2.09175E+04 -9.77693E+01  1.47443E+04  4.61629E+03  8.07793E+03  1.65118E+03  1.15702E+04 -2.24732E+03
  2.06032E+04  2.81518E+03  2.31838E+04  1.69262E+04  1.59844E+04  3.51497E+04 -2.52856E+03  4.09365E+04
 -2.35546E+04  3.42176E+04 -3.85119E+04  1.76471E+04 -4.13375E+04 -2.74144E+03 -3.37695E+04 -2.39775E+04
 -1.36428E+04 -3.45275E+04  1.18833E+04 -3.03360E+04  2.57397E+04 -1.45240E+04  2.22603E+04  6.93945E+03
  7.92522E+03  1.72375E+04 -1.10993E+04  1.48506E+04 -1.86944E+04  2.59248E+03 -1.41125E+04 -1.17894E+04
 -3.42088E+02 -1.78947E+04  9.57318E+03 -1.35096E+04  1.25257E+04 -1.65919E+03  2.84033E+03  7.82275E+03
 -8.13737E+03  4.03534E+03 -8.35905E+03 -6.49064E+03 -1.23387E+03 -1.62265E+04  1.09640E+04 -1.81667E+04
  2.10354E+04 -9.99548E+03  2.39189E+04  3.24878E+03  2.04795E+04  1.68122E+04  9.24569E+03  2.60945E+04
 -4.63998E+03  2.81829E+04 -1.84186E+04  1.77728E+04 -2.04920E+04  3.77057E+03 -1.40295E+04 -4.94723E+03
 -5.91141E+03 -6.39836E+03 -6.71452E+02  7.28290E+02 -2.68975E+03  3.53122E+03 -6.68466E+03  4.89560E+03
 -1.29805E+04 -6.82948E+02 -1.38077E+04 -1.08192E+04 -5.47369E+03 -1.80368E+04  5.78201E+03 -1.46978E+04
  1.14787E+04 -5.58695E+03  8.35680E+03  4.03761E+03 -4.76588E+02  5.48647E+03 -6.98925E+03 -1.39184E+02
 -7.27636E+03 -8.98274E+03 -9.81759E+02 -1.41037E+04  7.75738E+03 -1.49078E+04  1.79332E+04 -8.04752E+03
  2.09565E+04  2.08065E+03  1.55471E+04  1.25878E+04  2.96636E+03  1.68441E+04 -8.60222E+03  1.43214E+04
 -1.16633E+04  4.03434E+03 -6.37379E+03 -3.09015E+03  2.18441E+03 -4.02846E+03  7.33405E+03 -9.61699E+02
  6.91371E+03  6.49114E+03  8.54116E+02  1.13626E+04 -8.28536E+03  1.08579E+04 -1.38874E+04  2.63062E+03
 -9.18122E+03 -7.14638E+03  3.04651E+02 -1.18036E+04  7.75462E+03 -6.07957E+03  8.09506E+03  2.95799E+03
  2.15603E+03  8.67880E+03 -7.54781E+03  9.95273E+03 -1.12370E+04  4.83930E+03 -1.21958E+04 -4.11310E+03
 -6.70934E+03 -1.39819E+04  3.33813E+03 -1.60480E+04  1.34600E+04 -9.34497E+03  1.46115E+04  2.69226E+03
  8.75159E+03  1.15526E+04 -8.60094E+02  1.39762E+04 -1.01800E+04  7.95772E+03 -1.14673E+04 -1.21547E+03
 -9.48331E+03 -9.45308E+03 -1.75047E+03 -1.04488E+04  5.34544E+03 -8.62535E+03  6.89796E+03 -3.24871E+03
  4.35613E+03  1.38315E+03 -9.63615E+02  1.95465E+03 -1.71422E+02 -2.69596E+03  2.14492E+03 -6.56473E+03
  9.81932E+03 -4.09343E+03  1.36593E+04  1.68142E+03  1.38025E+04  9.35937E+03  9.23974E+03  1.74961E+04
 -4.14867E+03  2.04325E+04 -1.67662E+04  1.55292E+04 -2.21390E+04  3.07571E+03 -1.78797E+04 -7.50349E+03
 -8.70024E+03 -1.42818E+04 -4.50819E+02 -1.22718E+04  4.39637E+03 -6.95737E+03  4.25338E+03 -4.35024E+03
  2.96710E+03 -2.63447E+03  3.49485E+03 -3.33138E+03  5.06261E+03 -3.02831E+03  6.96902E+03 -1.10671E+03
  8.94821E+03  2.22668E+03  4.72686E+03  7.84627E+03 -2.02367E+03  9.49760E+03 -9.68844E+03  7.15120E+03
 -1.25819E+04 -1.18944E+03 -7.50537E+03 -8.42918E+03 -1.34560E+03 -1.32655E+04  7.58006E+03 -1.33754E+04
  1.38590E+04 -7.55888E+03  1.67379E+04  1.91017E+03  1.15560E+04  1.18140E+04  2.00383E+03  1.52155E+04
 -5.70134E+03  1.23500E+04 -8.66083E+03  4.61245E+03 -6.13232E+03 -1.47258E+03 -2.71801E+03 -1.73579E+03
 -1.39387E+03  1.45655E+02 -2.20010E+03  2.57844E+03 -5.37759E+03  2.26451E+03 -8.41957E+03 -1.25444E+03
 -6.02585E+03 -8.60933E+03  1.82719E+02 -1.23765E+04  7.36640E+03 -1.10092E+04  1.18901E+04 -3.75399E+03
  1.18355E+04  5.92858E+03  5.52758E+03  1.05476E+04 -2.35850E+03  1.22485E+04 -8.62555E+03  7.70159E+03
 -1.12313E+04  4.23385E+02 -9.10342E+03 -7.11538E+03 -8.84817E+02 -9.79898E+03  5.48814E+03 -7.45456E+03
  7.70364E+03 -2.93632E+03  5.10349E+03  2.05195E+03  1.78481E+03  3.53318E+03  9.99092E+02  1.64076E+03
  2.47759E+03  8.31568E+02  2.82202E+03  1.69677E+03  3.80762E+03  4.88955E+03  3.17625E+03  6.45544E+03
 -2.43723E+03  9.67704E+03 -8.15974E+03  9.61187E+03 -1.22151E+04  2.45582E+03 -1.28380E+04 -4.99445E+03
 -5.81054E+03 -1.19123E+04  1.82439E+03 -1.35589E+04  7.39422E+03 -8.26182E+03  9.95777E+03 -1.86440E+03
  7.74787E+03  4.22037E+03  1.50733E+03  7.03251E+03 -3.29262E+03  4.65664E+03 -4.51842E+03 -4.65572E+02
 -2.60249E+03 -5.08925E+03  3.09846E+03 -5.23710E+03  4.89747E+03 -2.67454E+03  5.04375E+03  1.01097E+03
  2.88747E+03  2.36494E+03  1.36403E+03  1.98310E+03 -3.14085E+02  1.85465E+03  1.71781E+03 -5.89236E+02
  1.65269E+03 -8.24628E+02  4.78633E+03  1.78711E+03  2.72260E+03  6.56190E+03 -7.89328E+02  8.82200E+03
 -5.70490E+03  5.23871E+03 -7.59658E+03  1.29510E+03 -6.69890E+03 -2.63449E+03 -2.70028E+03 -4.89506E+03
  9.23225E+02 -4.54151E+03  3.02378E+03 -1.99777E+03  2.93076E+03  2.46809E+03 -1.37230E+03  3.82772E+03
 -5.02614E+03  2.49343E+03 -5.33281E+03 -2.91638E+03 -3.30394E+03 -6.46852E+03  7.04987E+02 -6.55738E+03
  3.16025E+03 -4.28234E+03  4.80891E+03 -6.79786E+02  4.11207E+03  1.72013E+03  9.31222E+02  3.49392E+03
 -2.36743E+03  9.60160E+02 -3.25491E+03 -2.00467E+03  1.34157E+03 -4.77945E+03  5.74211E+03 -3.99083E+03
  7.35285E+03  7.21314E+02  7.32648E+03  4.88314E+03  2.26477E+03  7.64283E+03 -3.13251E+03  7.10148E+03
 -5.97729E+03  2.99053E+03 -6.48761E+03 -1.33145E+03 -3.65879E+03 -4.88358E+03  9.41274E+02 -4.49947E+03
  4.85370E+03 -2.10669E+03  4.05215E+03  1.65188E+03  1.17292E+03  4.27858E+03 -5.33813E+02  3.68605E+03
 -2.12959E+03  2.23079E+03 -1.78640E+03  9.53846E+02 -1.04907E+03  5.33862E+02 -1.26029E+03  1.60146E+03
 -1.93540E+03  3.10017E+03 -5.17015E+03  2.34423E+03 -7.32861E+03  1.10225E+02 -8.49799E+03 -4.74283E+03
 -4.71974E+03 -9.90170E+03  1.71171E+03 -1.15455E+04  6.55818E+03 -8.93225E+03  1.07578E+04 -3.25595E+03
  9.94098E+03  1.91272E+03  6.20804E+03  6.72916E+03  1.17167E+02  7.58665E+03 -2.99690E+03  5.70055E+03
 -4.42570E+03  2.21814E+03 -2.71566E+03 -7.47613E+02 -1.27373E+03 -6.65415E+02 -3.75262E+02  5.37593E+01
 -1.86098E+03  2.04062E+02 -1.77480E+03 -4.04245E+02 -5.64990E+02 -1.92973E+03 -6.14096E+01 -3.00218E+03
  3.59523E+03 -2.49697E+03  4.38285E+03 -2.97777E+01  5.24859E+03  3.91411E+03  1.47801E+03  7.44184E+03
 -3.74545E+03  8.86457E+03 -7.93939E+03  4.84342E+03 -9.26192E+03 -9.89601E+02 -6.73415E+03 -6.02798E+03
 -3.01826E+03 -7.57552E+03  2.01528E+03 -7.19347E+03  4.31597E+03 -3.81598E+03  4.85725E+03  3.62059E+02
  2.87340E+03  2.49990E+03  1.99825E+01  1.99624E+03 -1.81593E+03  1.67788E+02  2.09427E+02 -1.47209E+03
  2.60975E+03 -9.68896E+02  2.76721E+03  1.00215E+03  1.71465E+03  2.52644E+03  1.57484E+02  3.33116E+03
 -3.11390E+03  3.24076E+03 -4.95017E+03  6.68129E+02 -4.58154E+03 -3.19515E+03 -4.53789E+02 -5.93238E+03
  3.67957E+03 -4.79467E+03  5.58183E+03 -1.60595E+03  5.97563E+03  1.34669E+03  3.31449E+03  4.48540E+03
  4.86871E+02  4.41465E+03 -2.02874E+03  3.91552E+03 -3.07946E+03  2.31415E+03 -2.53549E+03  2.63304E+02
 -1.47376E+03 -4.12218E+02 -1.50180E+03  6.82556E+02 -3.03053E+03  4.89044E+02 -3.58657E+03 -5.97121E+02
 -3.50226E+03 -2.39522E+03 -1.07214E+03 -4.99496E+03  2.35992E+03 -5.04967E+03  4.08286E+03 -2.46285E+03
  4.64531E+03  3.39172E+02  2.43291E+03  2.97968E+03 -2.65933E+02  4.63003E+03 -3.19215E+03  3.06951E+03
