 $NMID ID='MM_0lb_SNR800_20hz_g60_6.RAW', FMTDAT='(8E13.5)'
 TRAMP=1., VOLUME=1. $END
  3.09887E+05  5.60473E+02  3.37478E+05  2.50446E+05  8.46324E+04  3.37565E+05 -1.32538E+05  2.50727E+05
 -1.89694E+05  8.29119E+04 -1.11428E+05 -3.25861E+04  1.23063E+03 -5.02444E+04  5.38404E+04  5.64384E+00
  3.53647E+04  5.28778E+04 -1.67595E+04  7.52716E+04 -6.01565E+04  6.30724E+04 -8.34667E+04  3.17685E+04
 -8.02068E+04 -1.14432E+04 -5.67480E+04 -5.08406E+04 -1.49964E+04 -6.88138E+04  2.68393E+04 -4.52186E+04
  3.95523E+04  3.75740E+03  1.57701E+04  4.73106E+04 -3.38978E+04  4.65964E+04 -6.60562E+04 -6.02626E+02
 -5.23406E+04 -5.63272E+04 -6.45936E+03 -7.58911E+04  3.33794E+04 -5.38996E+04  4.65893E+04 -1.66078E+04
  4.23850E+04  1.12426E+04  3.11420E+04  2.47615E+04  1.58247E+04  2.87983E+04 -5.15362E+03  2.69920E+04
 -2.18322E+04  1.27564E+04 -1.90181E+04 -4.63252E+03  4.67701E+03 -7.49830E+03  2.17969E+04  1.13702E+04
  7.17406E+03  3.40498E+04 -3.10575E+04  3.45368E+04 -6.16364E+04  2.30782E+03 -5.61699E+04 -4.15145E+04
 -1.26363E+04 -6.14419E+04  3.86611E+04 -4.39881E+04  5.63420E+04 -1.90804E+03  3.24741E+04  3.11861E+04
 -6.63599E+03  3.40049E+04 -2.87473E+04  1.41910E+04 -2.85586E+04 -4.79309E+03 -1.52586E+04 -1.05158E+04
 -7.55618E+03 -1.19510E+04 -1.11807E+03 -1.71694E+04  7.03726E+03 -2.26259E+04  1.52202E+04 -1.40492E+04
  1.22742E+04  4.56525E+03 -6.94136E+03  1.26600E+04 -1.98944E+04 -3.31293E+03 -8.36461E+03 -3.12043E+04
  2.12009E+04 -4.15479E+04  4.54419E+04 -1.83789E+04  4.26796E+04  1.84078E+04  1.46364E+04  4.24523E+04
 -1.55156E+04  3.15837E+04 -2.41173E+04  1.14386E+03 -8.58126E+03 -2.67224E+04  2.06839E+04 -3.19694E+04
  3.85498E+04 -7.62568E+03  3.22249E+04  2.29045E+04  1.61381E+04  4.34554E+04 -7.78513E+03  4.63438E+04
 -2.91569E+04  3.07155E+04 -3.85798E+04  8.48745E+03 -3.89437E+04 -1.55461E+04 -2.18561E+04 -3.50237E+04
  6.92017E+03 -3.51051E+04  2.96831E+04 -1.30798E+04  2.71070E+04  1.07524E+04  3.39359E+03  1.81423E+04
 -1.34211E+04  7.31615E+03 -9.81359E+03 -7.76360E+03  6.11381E+03 -1.01760E+04  1.72829E+04  6.42621E+03
  1.24757E+04  2.15240E+04 -6.63731E+03  2.34696E+04 -2.14776E+04  9.51479E+03 -2.56227E+04 -6.17487E+03
 -1.74509E+04 -1.66604E+04 -6.10926E+03 -1.74181E+04  3.89276E+03 -1.56299E+04  1.30361E+04 -1.47517E+04
  2.18051E+04 -1.19361E+04  2.85669E+04  1.35417E+03  2.17948E+04  1.67041E+04  3.96413E+03  3.29145E+04
 -1.62571E+04  2.79288E+04 -2.59650E+04  9.45879E+03 -1.97535E+04 -1.06677E+04 -3.72775E+03 -1.38162E+04
  2.44041E+03 -3.95835E+03 -2.99860E+03  5.42916E+03 -1.36432E+04  5.16473E+03 -1.38812E+04 -5.12988E+03
 -8.71218E+03 -1.58024E+04  4.32526E+03 -1.97615E+04  1.28478E+04 -1.42627E+04  1.49483E+04 -1.62618E+03
  9.21937E+03  1.10999E+04 -7.63664E+02  1.61620E+04 -1.06246E+04  8.83239E+03 -1.56507E+04 -3.47154E+03
 -1.14894E+04 -1.43777E+04 -1.80129E+03 -1.92637E+04  8.67872E+03 -1.57422E+04  1.63581E+04 -7.25994E+03
  1.45306E+04  6.69295E+02  1.07194E+04  4.07497E+03  5.37711E+03  4.60143E+02  7.77691E+03 -1.34885E+03
  1.38439E+04  2.79525E+03  1.51282E+04  1.27843E+04  9.44675E+03  2.49296E+04 -3.04474E+03  2.73146E+04
 -1.60926E+04  2.06071E+04 -2.45822E+04  9.86075E+03 -2.53048E+04 -1.90020E+03 -2.15307E+04 -1.43025E+04
 -1.01029E+04 -2.07583E+04  6.60244E+03 -1.95212E+04  1.65444E+04 -1.07353E+04  1.56493E+04  3.55182E+03
  6.65849E+03  1.14187E+04 -7.05250E+03  1.05167E+04 -1.33962E+04  2.87933E+03 -1.03576E+04 -8.06988E+03
 -1.28530E+02 -1.23762E+04  6.15856E+03 -9.39762E+03  7.66389E+03 -1.21486E+03  1.67700E+03  5.07462E+03
 -5.51051E+03  1.25197E+03 -3.72262E+03 -4.46632E+03  6.66943E+02 -1.02216E+04  7.84854E+03 -1.02630E+04
  1.21810E+04 -4.65476E+03  1.18428E+04  2.89729E+03  1.04059E+04  9.30744E+03  4.88992E+03  1.38261E+04
 -1.63931E+03  1.58769E+04 -9.65068E+03  9.91218E+03 -1.11431E+04  3.09595E+03 -8.30718E+03 -1.93041E+03
 -4.93784E+03 -3.32725E+03 -1.01925E+03  1.55152E+03 -1.82414E+03  1.76420E+03 -3.46000E+03  3.62713E+03
 -8.25299E+03 -7.67371E+02 -8.63175E+03 -7.28206E+03 -3.37022E+03 -1.13178E+04  3.57770E+03 -8.16832E+03
  6.77906E+03 -3.74318E+03  5.31634E+03  2.07656E+03  5.63137E+02  2.99605E+03 -3.33526E+03 -9.11880E+01
 -3.25018E+03 -5.31159E+03 -9.72028E+02 -6.87774E+03  4.00982E+03 -7.91899E+03  9.54915E+03 -3.94080E+03
  1.13188E+04  6.03879E+02  8.31985E+03  5.85610E+03  2.06688E+03  8.35844E+03 -5.25538E+03  7.99627E+03
 -6.76915E+03  3.01040E+03 -3.32567E+03 -1.39607E+03  1.04772E+03 -1.72810E+03  4.55415E+03 -1.19858E+03
  4.24759E+03  3.38496E+03  1.01950E+03  6.09375E+03 -4.18706E+03  6.12871E+03 -7.71541E+03  1.63339E+03
 -4.85983E+03 -3.66473E+03  9.72030E+01 -6.47356E+03  3.46275E+03 -3.07859E+03  3.33801E+03  9.93769E+02
  1.88022E+02  2.83801E+03 -4.02387E+03  4.15593E+03 -4.62451E+03  2.27032E+03 -3.81028E+03 -9.55108E+02
 -2.39626E+03 -5.60720E+03  1.08007E+03 -6.33043E+03  5.71565E+03 -4.43232E+03  6.04116E+03  1.10879E+03
  4.66916E+03  4.99413E+03  1.22828E+02  6.81758E+03 -4.81513E+03  3.77493E+03 -4.85171E+03 -4.80729E+02
 -5.51103E+03 -4.91850E+03 -1.12825E+03 -4.87456E+03  2.47956E+03 -4.37437E+03  2.63306E+03 -2.79912E+03
  2.45951E+03  4.09484E+02 -2.40044E+02  1.15327E+03  5.87396E+02 -1.53800E+01  2.33797E+01 -1.70472E+03
  3.41019E+03 -5.58136E+02  4.82626E+03  5.11317E+02  4.88310E+03  2.74711E+03  5.06397E+03  6.52185E+03
 -6.95596E+02  7.72348E+03 -7.22805E+03  6.05031E+03 -8.94322E+03  1.12050E+03 -7.20619E+03 -2.19729E+03
 -3.75454E+03 -6.21649E+03 -1.11004E+02 -4.43554E+03  1.79904E+03 -1.97934E+03  1.55213E+03 -2.06686E+03
  1.33141E+03 -1.39124E+03  1.92394E+03 -2.32235E+03  3.35857E+03 -1.19359E+03  3.39606E+03  7.34329E+02
  3.89439E+03  1.11840E+03  7.58089E+02  2.90018E+03 -1.29031E+03  2.37222E+03 -4.15889E+03  2.29024E+03
 -4.36574E+03 -9.37137E+02 -1.31894E+03 -2.76081E+03  8.42960E+02 -4.25499E+03  2.89195E+03 -4.81115E+03
  4.46342E+03 -3.06030E+03  5.71309E+03  1.74941E+02  4.42390E+03  3.33665E+03  1.11563E+03  5.20201E+03
 -1.96923E+03  5.14345E+03 -2.84770E+03  1.39289E+03 -1.65329E+03 -1.09469E+03 -4.42982E+01 -7.75379E+02
 -5.08187E+02  4.01740E+02 -7.05263E+02  1.80632E+03 -2.20177E+03  9.09821E+02 -3.69750E+03 -3.00861E+02
 -9.36168E+02 -3.73203E+03  7.47497E+02 -4.01482E+03  2.19881E+03 -3.72938E+03  2.67682E+03 -9.74033E+02
  3.26933E+03  2.01757E+03  1.45799E+03  2.61385E+03 -3.13107E+02  3.81775E+03 -1.95982E+03  2.15272E+03
 -3.05634E+03  8.24913E+02 -2.83405E+03 -2.23960E+03 -1.29630E+02 -2.48274E+03  1.36775E+03 -2.10693E+03
  2.21722E+03 -1.10830E+03  1.52239E+03  3.54108E+02  2.45335E+02  1.48708E+03  8.85043E+02  4.45619E+02
  1.99885E+03  6.05177E+02  1.08162E+03  9.26875E+02  9.74507E+02  1.98199E+03  1.36032E+03  1.32841E+03
 -8.49539E+02  2.48717E+03 -1.87887E+03  3.61058E+03 -2.40439E+03  1.01129E+03 -3.47252E+03  5.49620E+01
 -1.21179E+03 -2.81102E+03  7.05814E+02 -3.79025E+03  1.63185E+03 -2.10662E+03  2.30280E+03 -6.34493E+02
  2.08665E+03  1.34299E+03  3.96153E+02  1.85000E+03 -6.41298E+02  9.43496E+02 -6.41332E+02 -1.99811E+02
 -4.72999E+02 -1.25802E+03  1.10484E+03 -1.09920E+03  9.04023E+02 -9.53552E+02  1.00900E+03  2.17673E+02
  3.60872E+02 -1.96932E+01  3.68479E+02 -7.63776E+02 -1.16626E+02  9.17824E+02  1.57409E+03 -2.51216E+02
 -2.23149E+02 -8.17112E+01  1.52545E+03  5.09059E+02 -5.58075E+01  2.17726E+03 -5.38400E+01  2.37207E+03
 -1.21296E+03  6.21018E+02 -1.48535E+03  2.59417E+02 -1.71495E+03 -6.71684E+02 -4.75867E+01 -7.29297E+02
  2.78982E+02 -9.36661E+02  6.51410E+02 -4.85703E+02  4.80845E+02  1.08385E+03 -6.92952E+02  9.47070E+02
 -1.06942E+03  6.19482E+02 -7.64384E+02 -1.16207E+03 -3.15076E+02 -1.64354E+03  1.03581E+02 -1.02958E+03
  2.76597E+02 -1.46838E+00  4.66201E+02  2.97986E+02  1.10106E+03 -2.12589E+02  2.68711E+02  6.13343E+02
 -1.35186E+01 -9.91346E+01 -6.51312E+02 -1.24260E+02  3.61857E+02 -3.64740E+02  1.31710E+03 -5.14597E+02
  1.04657E+03  1.86841E+02  2.11648E+03  4.80676E+02  9.40342E+02  7.55960E+02  6.26989E+01  1.41548E+03
 -1.16238E+03  8.39537E+01 -8.19397E+02 -9.63165E+01 -5.26513E+02 -9.77818E+02  3.02666E+02 -2.25223E+02
  1.10929E+03 -6.78729E+02  5.84751E+02  2.71980E+02 -1.91920E+02  1.07101E+03  3.44128E+02  7.66392E+02
 -2.38696E+02  1.03732E+03 -1.32974E+02  8.48305E+01  2.48312E+02  3.12657E+02 -6.60964E+02  2.11057E+02
 -4.76736E+02  7.26241E+02 -1.47195E+03 -4.34143E+01 -1.01885E+03 -4.78956E+01 -1.77801E+03 -5.83296E+02
 -8.64498E+02 -1.52463E+03  5.03854E+02 -1.96960E+03  1.92640E+02 -1.80727E+03  2.04898E+03 -9.27002E+02
  1.53944E+03 -4.31437E+02  7.98462E+02  9.87273E+02 -6.32541E+02  8.84652E+02 -4.86336E+02  9.59493E+02
 -6.63424E+02  7.70596E+02 -3.18478E+02  4.83680E+01 -2.40027E+02  2.17770E+02 -5.85567E+02 -2.58456E+02
 -1.01505E+03 -1.47386E+02 -8.73541E+02  4.29490E+00  2.04477E+02 -4.54698E+02 -5.28216E+02 -3.95388E+02
  1.24761E+03 -3.72641E+02  1.62932E+02  1.38521E+02  7.69007E+02  3.86212E+02 -7.77052E+02  9.54337E+02
 -5.21988E+02  1.87135E+03 -1.16224E+03  9.98441E+02 -1.11685E+03 -2.12304E+02 -7.46511E+02 -9.37102E+02
 -6.91058E+02 -5.21447E+02  7.01061E+01 -7.75792E+02  8.23567E+01 -3.63378E+01  5.21094E+02  1.43082E+02
  5.28033E+02  6.15444E+01  2.97272E+02  1.14680E+02  2.41545E+01 -1.82518E+02 -2.00972E+02 -2.34901E+01
  5.95434E+02  2.53142E+02  1.17968E+02  5.15047E+02  3.83389E+01  4.26314E+02  5.38811E+02 -9.01252E+01
 -4.96718E+02  4.51772E+02 -5.83020E+01  2.90523E+02 -3.17796E+02 -2.17726E+02 -2.28754E+02 -7.47648E+02
  2.55358E+02 -3.65357E+02  1.49463E+02  2.25318E+02  7.50712E+02 -9.36887E+02  2.17083E+02  4.20897E+02
  5.88215E+02 -2.12875E+00  9.86685E+01  4.43298E+02 -1.70546E+02  3.70307E+02 -1.99232E+02 -1.82049E+01
 -1.21760E+02 -1.26041E+02 -3.27015E+02 -8.12093E+01 -5.50862E+02 -2.08196E+02 -5.48703E+02 -2.02609E+02
 -8.20305E+02  5.04500E+02 -4.18834E+02 -3.82318E+02  6.20584E+02 -1.33676E+03  4.92772E+02 -9.40826E+01
  1.65451E+02  6.49064E+01 -4.50343E+02 -1.50964E+02  1.99015E+01  1.78372E+02 -9.72795E+01  2.43530E+02
