 $NMID ID='MM_0lb_SNR800_20hz_g40_20.RAW', FMTDAT='(8E13.5)'
 TRAMP=1., VOLUME=1. $END
  3.09816E+05  2.83624E+02  3.37147E+05  2.49942E+05  8.42825E+04  3.37095E+05 -1.32462E+05  2.49582E+05
 -1.89180E+05  8.21669E+04 -1.10655E+05 -3.29038E+04  1.96250E+03 -5.00265E+04  5.41671E+04  1.14050E+02
  3.48077E+04  5.28730E+04 -1.71251E+04  7.44802E+04 -6.01489E+04  6.20863E+04 -8.25961E+04  3.12021E+04
 -7.88428E+04 -1.08690E+04 -5.56349E+04 -4.97013E+04 -1.48183E+04 -6.76639E+04  2.63238E+04 -4.42558E+04
  3.86496E+04  3.99025E+03  1.52148E+04  4.66234E+04 -3.38453E+04  4.54730E+04 -6.48317E+04 -7.35172E+02
 -5.11462E+04 -5.52845E+04 -6.00306E+03 -7.43666E+04  3.28217E+04 -5.20987E+04  4.52034E+04 -1.56533E+04
  4.08288E+04  1.08156E+04  3.01934E+04  2.38601E+04  1.55933E+04  2.75803E+04 -4.27841E+03  2.67308E+04
 -2.14540E+04  1.32877E+04 -1.92125E+04 -4.14680E+03  3.60093E+03 -7.63157E+03  2.03842E+04  1.00725E+04
  7.48223E+03  3.21124E+04 -2.98796E+04  3.31609E+04 -5.99202E+04  2.16298E+03 -5.45317E+04 -4.03463E+04
 -1.22477E+04 -5.94131E+04  3.73469E+04 -4.24361E+04  5.42152E+04 -1.93947E+03  3.06548E+04  2.94838E+04
 -6.64702E+03  3.14035E+04 -2.73599E+04  1.21628E+04 -2.62926E+04 -5.79667E+03 -1.31032E+04 -9.53805E+03
 -6.61800E+03 -1.02966E+04 -1.17102E+03 -1.59146E+04  6.13886E+03 -2.20891E+04  1.46754E+04 -1.40673E+04
  1.26451E+04  3.78351E+03 -5.31993E+03  1.33788E+04 -1.83705E+04 -1.40886E+03 -8.04628E+03 -2.88349E+04
  1.95923E+04 -3.89174E+04  4.33283E+04 -1.83461E+04  4.03971E+04  1.74450E+04  1.36920E+04  4.03712E+04
 -1.51059E+04  3.01397E+04 -2.21971E+04  8.44120E+02 -7.46444E+03 -2.57635E+04  2.02450E+04 -2.99527E+04
  3.65604E+04 -6.49648E+03  2.95904E+04  2.22615E+04  1.40512E+04  4.06825E+04 -7.54522E+03  4.28683E+04
 -2.69799E+04  2.78403E+04 -3.51877E+04  7.82938E+03 -3.60330E+04 -1.43703E+04 -2.02403E+04 -3.27270E+04
  6.76125E+03 -3.20809E+04  2.79429E+04 -1.14205E+04  2.57432E+04  1.04828E+04  2.84018E+03  1.71551E+04
 -1.30090E+04  6.61859E+03 -9.29948E+03 -7.85034E+03  6.13623E+03 -1.00492E+04  1.69218E+04  6.78481E+03
  1.18777E+04  2.13852E+04 -6.84793E+03  2.25487E+04 -2.10573E+04  7.89715E+03 -2.38476E+04 -6.90889E+03
 -1.51058E+04 -1.59632E+04 -4.41747E+03 -1.49664E+04  3.32768E+03 -1.26396E+04  1.12760E+04 -1.26301E+04
  1.90467E+04 -1.08618E+04  2.60529E+04  5.11637E+02  2.00467E+04  1.46561E+04  3.72431E+03  3.07823E+04
 -1.52608E+04  2.63145E+04 -2.49222E+04  9.07442E+03 -1.89211E+04 -1.03722E+04 -3.93725E+03 -1.40615E+04
  3.05092E+03 -4.75289E+03 -1.82084E+03  4.89183E+03 -1.13732E+04  5.01592E+03 -1.21008E+04 -3.90878E+03
 -8.07804E+03 -1.39945E+04  4.27335E+03 -1.75098E+04  1.13462E+04 -1.29819E+04  1.30585E+04 -1.30155E+03
  7.89748E+03  9.93115E+03 -7.51618E+02  1.44156E+04 -9.13722E+03  8.04773E+03 -1.40452E+04 -3.16235E+03
 -1.06781E+04 -1.29887E+04 -1.40553E+03 -1.74485E+04  7.88745E+03 -1.37034E+04  1.47665E+04 -6.48388E+03
  1.32741E+04  8.50836E+02  9.46368E+03  3.62203E+03  4.69322E+03  3.51704E+02  6.90406E+03 -9.21851E+02
  1.23780E+04  2.64426E+03  1.28182E+04  1.18887E+04  7.89297E+03  2.24649E+04 -3.07065E+03  2.36464E+04
 -1.43118E+04  1.73100E+04 -2.15393E+04  8.02227E+03 -2.16037E+04 -1.33200E+03 -1.90389E+04 -1.22606E+04
 -9.36309E+03 -1.74661E+04  6.02681E+03 -1.68568E+04  1.46994E+04 -1.01384E+04  1.40622E+04  2.92212E+03
  6.01142E+03  9.90849E+03 -6.26455E+03  9.58781E+03 -1.24802E+04  2.64018E+03 -9.62799E+03 -7.28139E+03
  5.03276E+01 -1.14222E+04  5.44286E+03 -8.72351E+03  6.96351E+03 -1.38849E+03  9.11730E+02  4.21555E+03
 -4.98504E+03  8.43613E+02 -2.88812E+03 -4.19817E+03  1.18648E+03 -9.10021E+03  7.01518E+03 -8.56174E+03
  1.03233E+04 -3.72486E+03  9.51638E+03  2.63665E+03  8.48005E+03  7.95893E+03  3.99122E+03  1.17669E+04
 -1.01659E+03  1.37050E+04 -7.85305E+03  8.91234E+03 -9.42393E+03  2.67735E+03 -7.35873E+03 -1.46185E+03
 -4.10790E+03 -2.78228E+03 -7.16154E+02  1.44470E+03 -1.68765E+03  1.63028E+03 -3.19935E+03  3.48762E+03
 -7.24293E+03 -2.41972E+02 -7.68421E+03 -6.40367E+03 -3.23690E+03 -1.02449E+04  3.07560E+03 -7.64673E+03
  6.45042E+03 -3.37181E+03  4.57618E+03  1.84367E+03  6.28727E+02  2.57731E+03 -2.91202E+03 -4.15358E+02
 -2.90840E+03 -4.34730E+03 -7.51741E+02 -6.04382E+03  3.17079E+03 -6.67951E+03  8.36034E+03 -3.15302E+03
  1.01210E+04  5.49940E+02  7.79180E+03  5.08947E+03  1.57067E+03  7.37228E+03 -4.47203E+03  7.33327E+03
 -6.05252E+03  2.59557E+03 -3.35450E+03 -8.22239E+02  1.16194E+03 -1.43338E+03  4.42793E+03 -8.02308E+02
  4.01645E+03  2.85614E+03  1.10763E+03  5.52602E+03 -3.70853E+03  5.66876E+03 -7.01627E+03  1.60713E+03
 -3.82598E+03 -2.88185E+03  5.24897E+02 -5.72363E+03  2.95965E+03 -2.68762E+03  3.05844E+03  4.19757E+02
  1.43099E+02  2.49567E+03 -3.57132E+03  3.84910E+03 -3.92757E+03  2.11256E+03 -3.36422E+03 -5.11299E+02
 -2.21844E+03 -4.66481E+03  5.94847E+02 -5.75523E+03  4.61208E+03 -4.02784E+03  5.20622E+03  8.10071E+02
  4.02453E+03  4.23754E+03  3.33081E+02  6.28688E+03 -4.04048E+03  3.53581E+03 -4.15806E+03 -2.50476E+02
 -5.05901E+03 -4.14866E+03 -1.44142E+03 -4.20056E+03  2.01570E+03 -4.09995E+03  2.14909E+03 -2.67344E+03
  2.48578E+03 -2.03320E+02  2.07343E+02  1.24013E+03  5.92509E+02  2.43484E+02 -4.01155E+02 -1.28696E+03
  3.08616E+03 -1.77716E+01  3.91984E+03  5.78769E+02  4.34863E+03  2.29884E+03  4.77110E+03  5.50340E+03
 -7.11710E+02  6.59711E+03 -6.51586E+03  5.37291E+03 -8.04580E+03  8.07959E+02 -6.39226E+03 -2.13908E+03
 -3.67499E+03 -5.21564E+03 -4.15250E+02 -4.28050E+03  1.64443E+03 -1.39151E+03  1.26116E+03 -1.95482E+03
  9.55818E+02 -1.38724E+03  1.97048E+03 -2.16886E+03  3.30704E+03 -1.08023E+03  3.20627E+03  8.04166E+02
  3.94537E+03  8.75022E+02  5.61345E+02  2.80105E+03 -1.16504E+03  1.97663E+03 -3.69261E+03  1.95660E+03
 -4.22744E+03 -1.06943E+03 -1.25998E+03 -2.71092E+03  6.80607E+02 -3.88628E+03  2.63120E+03 -4.32493E+03
  3.78345E+03 -2.67574E+03  5.39809E+03  1.01620E+02  3.71357E+03  3.08594E+03  1.01453E+03  4.79716E+03
 -1.84392E+03  5.05422E+03 -2.55203E+03  1.75098E+03 -1.31705E+03 -1.08759E+03 -3.57560E+02 -4.16228E+02
 -3.72118E+02  3.25906E+02 -9.48087E+02  1.99477E+03 -2.26352E+03  9.25524E+02 -3.47807E+03 -3.94779E+02
 -1.00660E+03 -3.56403E+03  8.01176E+02 -3.72500E+03  2.21012E+03 -3.27176E+03  2.68274E+03 -5.46700E+02
  3.15173E+03  2.06194E+03  1.23874E+03  2.51987E+03 -6.21115E+02  3.21634E+03 -1.96008E+03  2.19154E+03
 -2.89582E+03  5.48876E+02 -2.72142E+03 -1.75205E+03 -2.60469E+02 -2.36162E+03  1.03505E+03 -2.04569E+03
  2.34114E+03 -1.23750E+03  1.35858E+03  3.37187E+02  2.67723E+02  1.58942E+03  9.32503E+02  2.26451E+02
  1.82065E+03  5.94301E+02  8.04687E+02  8.01078E+02  7.74975E+02  1.97967E+03  1.26879E+03  1.08386E+03
 -1.19979E+03  2.14915E+03 -2.05626E+03  3.44215E+03 -2.09434E+03  8.87556E+02 -3.07420E+03  2.80545E+01
 -1.03283E+03 -2.97443E+03  5.60194E+02 -3.76512E+03  1.52140E+03 -1.77167E+03  2.44226E+03 -7.38480E+02
  1.74598E+03  1.51845E+03  4.05984E+02  1.78308E+03 -5.74512E+02  1.06094E+03 -6.79744E+02 -6.93126E+01
 -5.06673E+02 -1.24664E+03  1.17182E+03 -1.18648E+03  1.16946E+03 -1.14577E+03  8.85717E+02  2.37774E+02
  5.24885E+02 -4.16803E+01  5.67898E+02 -2.67285E+02 -2.10274E+02  7.25616E+02  1.61157E+03 -7.56294E+01
 -4.28237E+02 -2.63684E+02  1.28063E+03  4.02543E+02  1.11066E+02  1.84935E+03 -4.98826E+02  2.27074E+03
 -1.39199E+03  6.46042E+02 -1.40270E+03  1.56874E+01 -1.71670E+03 -7.31065E+02  1.93261E+02 -6.09611E+02
  4.05084E+02 -1.00925E+03  3.49977E+02 -3.28694E+02  4.28547E+02  9.76732E+02 -8.34926E+02  1.07424E+03
 -9.85348E+02  5.94295E+02 -7.17575E+02 -1.11503E+03 -3.82496E+02 -1.52773E+03  1.00406E+02 -1.15380E+03
  5.46413E+02 -2.35900E+02  3.72405E+02 -1.65585E+01  1.06174E+03 -2.88609E+02  1.59203E+02  9.82383E+02
 -7.33886E+01  1.32421E+01 -7.55765E+02 -1.97847E+02  3.96445E+02 -2.15622E+02  1.36852E+03 -5.47207E+02
  9.76155E+02  1.47234E+01  2.24718E+03  2.96211E+02  1.08775E+03  9.76647E+02  1.92928E+02  1.23474E+03
 -1.07036E+03  7.80884E+01 -1.04687E+03  2.87740E+01 -5.00704E+02 -1.06343E+03  2.63360E+00  1.19568E+01
  1.11771E+03 -5.16777E+02  3.33043E+02  6.22278E+02  9.26509E+01  1.11605E+03  1.91818E+02  8.75725E+02
 -1.54696E+02  1.09913E+03 -1.15371E+02  2.28890E+02  1.83721E+02  1.52620E+02 -5.36533E+02  5.85602E+02
 -3.71664E+02  7.47968E+02 -1.46119E+03  4.06867E+02 -1.15082E+03  2.80061E+01 -1.95085E+03 -7.01355E+02
 -8.56475E+02 -1.67504E+03  3.29525E+02 -2.34597E+03  7.20763E+02 -1.99290E+03  2.07482E+03 -8.18811E+02
  1.74492E+03 -4.43686E+02  5.41727E+02  1.03104E+03 -4.49627E+02  8.90677E+02 -2.68578E+02  9.15440E+02
 -3.88249E+02  4.55958E+02 -3.81421E+02 -3.00817E+02 -5.18432E+02  1.64917E+02 -7.57321E+02  5.49425E+01
 -1.17218E+03 -1.20917E+02 -6.53355E+02  3.92945E+02  3.88111E+02 -4.64731E+02 -2.56572E+02 -6.54944E+02
  1.03332E+03 -5.48455E+02  1.89676E+02  5.72469E+01  9.28625E+02  8.32326E+02 -4.22779E+02  9.69839E+02
 -8.41352E+02  2.10570E+03 -1.28550E+03  1.45590E+03 -1.16516E+03 -1.61170E+02 -7.66523E+02 -8.53001E+02
 -6.14784E+02 -8.87718E+02  1.46273E+02 -8.37857E+02  2.37067E+02 -2.09375E+02  4.22723E+02  1.14759E+02
  4.64661E+02  3.67830E+02  1.65544E+02  5.22287E+01 -9.16786E+01  9.00054E+01 -6.87623E+01 -1.64946E+02
  2.00270E+02  2.05600E+02  1.07842E+02  3.52078E+02 -1.77431E+02  1.32927E+02  6.08998E+02 -1.41547E+02
 -1.96541E+02  4.78435E+02 -1.93049E+02  4.59226E+02 -8.18332E+02  1.78911E+00  2.65541E+02 -9.23002E+02
  2.54860E+02 -5.54266E+02  3.74238E+02 -5.89721E+01  6.16638E+02 -6.56652E+02  1.53221E+02  8.47360E+02
  1.96624E+02  2.87700E+02 -1.76034E+02  5.95146E+02 -3.58167E+02  5.48967E+02 -4.93243E+02 -6.91810E+00
  4.48804E+00 -7.06701E+01 -3.41106E+02  2.32525E+02 -3.86381E+02 -6.74637E+01 -3.60308E+02 -2.09347E+02
 -8.27889E+02  3.22571E+02 -3.41385E+02 -6.46869E+02  6.54738E+02 -1.02142E+03  4.35706E+02  1.15154E+02
  7.20757E+02 -2.47531E+02 -4.66361E+02  2.95032E+02 -1.25954E+02  5.38295E+02 -4.24108E+02  6.80125E+02
