 $NMID ID='MM_0lb_SNR800_17hz_g60_68.RAW', FMTDAT='(8E13.5)'
 TRAMP=1., VOLUME=1. $END
  3.09922E+05  3.56322E+02  3.37574E+05  2.50746E+05  8.46079E+04  3.38012E+05 -1.32621E+05  2.50963E+05
 -1.90019E+05  8.30623E+04 -1.11794E+05 -3.28526E+04  1.20629E+03 -5.02736E+04  5.37305E+04 -1.07068E+02
  3.52979E+04  5.26767E+04 -1.67809E+04  7.56835E+04 -6.06492E+04  6.35430E+04 -8.41492E+04  3.19124E+04
 -8.05751E+04 -1.11893E+04 -5.71495E+04 -5.12587E+04 -1.50237E+04 -6.94671E+04  2.72974E+04 -4.58003E+04
  4.01092E+04  3.81379E+03  1.64484E+04  4.74910E+04 -3.41558E+04  4.68631E+04 -6.64326E+04 -6.71368E+02
 -5.31989E+04 -5.66260E+04 -7.03250E+03 -7.70994E+04  3.39442E+04 -5.48564E+04  4.76920E+04 -1.73151E+04
  4.32617E+04  1.13371E+04  3.16474E+04  2.50659E+04  1.56840E+04  2.91723E+04 -4.97297E+03  2.68266E+04
 -2.20279E+04  1.27656E+04 -1.87618E+04 -4.48848E+03  5.20165E+03 -7.37966E+03  2.24435E+04  1.24047E+04
  6.99439E+03  3.48676E+04 -3.19378E+04  3.51842E+04 -6.30015E+04  1.88481E+03 -5.66032E+04 -4.28358E+04
 -1.24431E+04 -6.29203E+04  3.94444E+04 -4.52440E+04  5.78326E+04 -2.24245E+03  3.35886E+04  3.19929E+04
 -6.11421E+03  3.52495E+04 -2.98137E+04  1.54694E+04 -2.97280E+04 -4.65090E+03 -1.62570E+04 -1.08672E+04
 -8.24185E+03 -1.26189E+04 -8.29023E+02 -1.78533E+04  7.15674E+03 -2.27761E+04  1.51753E+04 -1.35337E+04
  1.18756E+04  5.04215E+03 -7.82581E+03  1.29604E+04 -2.08724E+04 -4.51704E+03 -8.36506E+03 -3.33120E+04
  2.23171E+04 -4.29636E+04  4.73477E+04 -1.94052E+04  4.44179E+04  1.93656E+04  1.54402E+04  4.37377E+04
 -1.57940E+04  3.29414E+04 -2.48740E+04  1.63178E+03 -9.60712E+03 -2.76339E+04  2.10114E+04 -3.31923E+04
  4.02593E+04 -8.96517E+03  3.50567E+04  2.34755E+04  1.77318E+04  4.57511E+04 -7.99608E+03  4.93073E+04
 -3.08313E+04  3.30354E+04 -4.09136E+04  9.48790E+03 -4.15072E+04 -1.63511E+04 -2.31918E+04 -3.72359E+04
  7.01302E+03 -3.69472E+04  3.09185E+04 -1.40034E+04  2.86151E+04  1.06902E+04  3.83376E+03  1.84249E+04
 -1.34423E+04  8.43768E+03 -1.03419E+04 -7.67888E+03  6.33713E+03 -1.02291E+04  1.80165E+04  6.26302E+03
  1.32779E+04  2.22017E+04 -6.05652E+03  2.44721E+04 -2.20716E+04  1.07881E+04 -2.71551E+04 -5.31262E+03
 -1.94241E+04 -1.73026E+04 -7.69927E+03 -1.95266E+04  3.98202E+03 -1.86508E+04  1.50250E+04 -1.70615E+04
  2.47015E+04 -1.24301E+04  3.11813E+04  2.66722E+03  2.33518E+04  1.90006E+04  3.84328E+03  3.51249E+04
 -1.74941E+04  2.94827E+04 -2.73871E+04  1.03508E+04 -2.09161E+04 -1.03327E+04 -4.42584E+03 -1.34872E+04
  2.02046E+03 -3.30234E+03 -3.95136E+03  6.21541E+03 -1.53210E+04  5.08402E+03 -1.56335E+04 -6.78941E+03
 -9.73697E+03 -1.81604E+04  4.90799E+03 -2.20512E+04  1.44868E+04 -1.55448E+04  1.68554E+04 -1.30139E+03
  1.05593E+04  1.24376E+04 -1.05216E+03  1.80120E+04 -1.21987E+04  1.04117E+04 -1.79420E+04 -3.83340E+03
 -1.32102E+04 -1.61475E+04 -1.58605E+03 -2.15858E+04  9.90567E+03 -1.78905E+04  1.82170E+04 -8.90953E+03
  1.68525E+04  1.66910E+02  1.22015E+04  4.15935E+03  6.51989E+03  8.31196E+02  8.96891E+03 -1.62732E+03
  1.61075E+04  2.63596E+03  1.75645E+04  1.42615E+04  1.12864E+04  2.83080E+04 -2.91515E+03  3.17169E+04
 -1.84429E+04  2.49409E+04 -2.93348E+04  1.25926E+04 -3.04443E+04 -2.40598E+03 -2.55189E+04 -1.74566E+04
 -1.12584E+04 -2.52636E+04  8.68950E+03 -2.25663E+04  1.94630E+04 -1.21467E+04  1.77584E+04  4.86650E+03
  7.07664E+03  1.33220E+04 -8.35532E+03  1.17796E+04 -1.53541E+04  2.52593E+03 -1.13357E+04 -9.15538E+03
 -1.35494E+02 -1.43116E+04  7.30435E+03 -1.09207E+04  9.12796E+03 -1.45194E+03  2.16121E+03  5.76842E+03
 -6.06460E+03  1.76655E+03 -5.08462E+03 -5.13900E+03  1.00043E+01 -1.24874E+04  9.06493E+03 -1.24499E+04
  1.50761E+04 -6.32525E+03  1.51480E+04  2.88185E+03  1.33561E+04  1.16014E+04  6.16093E+03  1.77207E+04
 -2.66849E+03  1.95576E+04 -1.22871E+04  1.23658E+04 -1.40523E+04  3.06291E+03 -9.89651E+03 -2.87595E+03
 -4.82892E+03 -3.98041E+03 -8.22173E+02  1.36452E+03 -2.23904E+03  2.43941E+03 -4.64459E+03  3.81223E+03
 -9.86448E+03 -4.67483E+02 -9.99773E+03 -8.40152E+03 -4.11222E+03 -1.29096E+04  4.39279E+03 -1.00845E+04
  8.18702E+03 -4.49393E+03  5.89918E+03  2.50727E+03  3.31917E+02  3.58698E+03 -4.34495E+03 -2.46044E+02
 -4.20511E+03 -6.34676E+03 -8.19205E+02 -9.11475E+03  4.94170E+03 -9.91126E+03  1.24434E+04 -5.17390E+03
  1.45076E+04  1.26268E+03  1.06286E+04  7.81092E+03  2.26656E+03  1.10572E+04 -6.23392E+03  9.89827E+03
 -7.89357E+03  3.58154E+03 -3.95310E+03 -1.99923E+03  1.50265E+03 -2.55736E+03  5.55059E+03 -1.06102E+03
  4.68234E+03  4.12513E+03  1.23476E+03  7.56678E+03 -5.79269E+03  7.55104E+03 -9.37870E+03  1.94165E+03
 -6.10515E+03 -4.58340E+03  2.93090E+02 -8.31594E+03  4.59301E+03 -4.05158E+03  4.87216E+03  1.62284E+03
  5.83801E+02  4.86873E+03 -4.84914E+03  5.72968E+03 -6.62558E+03  2.80279E+03 -6.50913E+03 -1.75011E+03
 -3.66981E+03 -7.80890E+03  1.58229E+03 -9.02638E+03  8.01502E+03 -5.68374E+03  7.98604E+03  1.42911E+03
  5.52058E+03  6.76314E+03 -4.08115E+01  9.02577E+03 -6.17284E+03  5.22058E+03 -6.93913E+03 -7.89509E+02
 -6.61148E+03 -6.06726E+03 -1.42214E+03 -6.38125E+03  3.25999E+03 -5.64508E+03  3.74965E+03 -3.15027E+03
  3.07624E+03  4.67538E+02 -2.51971E+02  1.69912E+03  2.45234E+02 -6.03121E+02  4.40370E+02 -2.87279E+03
  5.35302E+03 -1.45485E+03  7.24940E+03  9.43393E+02  7.32136E+03  4.47404E+03  6.10221E+03  9.48619E+03
 -1.75939E+03  1.14150E+04 -9.93866E+03  8.33811E+03 -1.24995E+04  1.23992E+03 -1.00100E+04 -3.88160E+03
 -5.30542E+03 -8.21694E+03 -5.83618E+02 -6.60332E+03  2.87247E+03 -3.49353E+03  2.47775E+03 -2.90593E+03
  1.57804E+03 -1.78441E+03  2.32325E+03 -2.48941E+03  3.83693E+03 -1.48856E+03  4.04386E+03  1.30543E+02
  5.70670E+03  1.27685E+03  1.75271E+03  4.36904E+03 -1.63817E+03  4.11279E+03 -5.63232E+03  3.78910E+03
 -6.24673E+03 -8.01946E+02 -2.95971E+03 -4.29794E+03  6.84463E+01 -6.69090E+03  4.07298E+03 -6.90409E+03
  6.88709E+03 -3.90652E+03  8.31133E+03  4.11992E+02  6.15096E+03  5.37426E+03  1.28871E+03  7.69594E+03
 -3.02386E+03  7.17531E+03 -4.49951E+03  2.30336E+03 -2.71842E+03 -1.03963E+03 -8.40399E+02 -9.01149E+02
 -5.62493E+02  3.44775E+02 -7.80216E+02  2.43453E+03 -3.01284E+03  1.19048E+03 -4.97930E+03 -4.94362E+02
 -2.31485E+03 -4.87632E+03  5.35392E+02 -5.82083E+03  3.64783E+03 -5.62319E+03  5.00729E+03 -1.72675E+03
  5.28961E+03  3.04686E+03  2.23940E+03  4.74833E+03 -1.19497E+03  5.94734E+03 -3.73904E+03  3.40075E+03
 -4.86565E+03  4.49099E+02 -4.59030E+03 -3.18330E+03 -9.34965E+01 -4.45668E+03  2.42292E+03 -3.36354E+03
  3.60993E+03 -1.49130E+03  2.44567E+03  6.59673E+02  6.78448E+02  1.82394E+03  7.08112E+02  7.75087E+02
  1.65915E+03  4.16841E+02  1.48730E+03  1.11043E+03  1.63711E+03  2.57839E+03  1.68721E+03  2.25126E+03
 -1.41233E+03  4.12432E+03 -3.44767E+03  4.74280E+03 -4.45469E+03  1.49919E+03 -5.40930E+03 -9.13422E+02
 -2.09671E+03 -4.94054E+03  6.48754E+02 -6.25951E+03  2.89543E+03 -3.36344E+03  4.12592E+03 -1.07870E+03
  3.03074E+03  2.16115E+03  7.20536E+02  2.83487E+03 -9.31860E+02  1.70775E+03 -1.51942E+03  9.11892E+01
 -8.23802E+02 -1.94575E+03  1.33966E+03 -1.87410E+03  1.76951E+03 -1.05484E+03  1.85268E+03  5.15770E+02
  9.03775E+02  4.89144E+02  8.96287E+02 -2.18937E+00 -4.15209E+02  8.08538E+02  1.49824E+03 -3.03457E+02
  2.27171E+02 -9.30352E+01  2.25112E+03  8.75259E+02  5.77777E+02  2.89897E+03 -3.62476E+02  3.63354E+03
 -1.98590E+03  1.59153E+03 -2.90694E+03  4.01910E+02 -2.69943E+03 -1.01730E+03 -4.68834E+02 -1.51799E+03
  6.66482E+02 -1.42634E+03  1.16557E+03 -6.93015E+02  8.53798E+02  1.17736E+03 -7.51740E+02  1.73207E+03
 -1.84842E+03  8.68304E+02 -1.96391E+03 -1.60076E+03 -9.62169E+02 -2.73469E+03  1.76009E+02 -2.19433E+03
  1.03508E+03 -1.02872E+03  1.29980E+03  1.30165E+02  1.37468E+03 -1.32150E+02  6.24423E+02  1.52706E+03
 -4.58463E+02  2.25064E+02 -1.09965E+03 -7.15153E+02  9.72017E+02 -1.09845E+03  2.04637E+03 -1.01483E+03
  1.82371E+03 -2.18876E+02  2.89972E+03  1.22130E+03  1.33653E+03  2.33501E+03 -7.75276E+02  2.57370E+03
 -2.06169E+03  4.13597E+02 -2.05305E+03 -3.28431E+02 -1.27842E+03 -1.64773E+03  4.79286E+02 -9.91418E+02
  1.81877E+03 -7.35861E+02  1.02185E+03  1.00029E+03  2.49742E+02  1.64484E+03  4.21220E+02  1.27078E+03
 -6.56310E+02  1.43332E+03 -6.56635E+02  5.46093E+01  1.12988E+02  4.03445E+02 -6.42979E+02  5.22511E+02
 -7.66133E+02  8.75647E+02 -2.24603E+03  8.50584E+02 -2.07747E+03  3.12504E+02 -3.05844E+03 -1.43111E+03
 -1.27689E+03 -3.12915E+03  5.53539E+02 -3.56472E+03  1.67375E+03 -3.22899E+03  3.59823E+03 -1.13304E+03
  3.25164E+03 -1.23708E+02  1.89866E+03  2.15591E+03 -7.28733E+02  1.91595E+03 -8.54920E+02  1.74020E+03
 -1.44189E+03  1.08734E+03 -8.98542E+02 -2.82086E+02 -9.56993E+01 -7.99714E+01 -7.38400E+02 -2.62470E+01
 -1.65934E+03  1.53684E+01 -7.15468E+02  2.19596E+02  6.98669E+01 -7.59305E+02 -1.73966E+02 -1.00685E+03
  1.36436E+03 -5.90046E+02  5.93335E+02  5.27137E+02  1.54685E+03  1.47880E+03 -2.54328E+02  2.04188E+03
 -1.16704E+03  2.71859E+03 -2.17211E+03  1.33677E+03 -2.51904E+03 -2.42183E+02 -1.73246E+03 -1.71932E+03
 -9.18237E+02 -1.86086E+03  3.51956E+02 -1.66022E+03  6.80055E+02 -9.23648E+02  1.00129E+03  1.92690E+02
  7.69014E+02  4.42025E+02  1.22911E+02  4.17984E+02 -6.92335E+02 -1.38097E+02  4.91745E+01 -6.28288E+02
  3.80586E+02 -1.47002E+02  3.85011E+02  5.44247E+02  2.93276E+02  8.68332E+02  7.50989E+02  6.73283E+02
 -8.69013E+02  1.00508E+03 -8.01415E+02 -1.07478E+01 -8.86748E+02 -8.54968E+02  7.49428E+00 -1.64518E+03
  9.32657E+02 -8.69067E+02  6.90554E+02  1.46855E+02  1.13599E+03 -7.96228E+02  9.73764E+02  1.03365E+03
  6.70496E+02  9.61547E+02 -2.88068E+02  8.02657E+02 -5.85771E+02  6.95797E+02 -6.24478E+02  8.22037E+00
 -5.40982E+01  3.23093E+01 -6.01049E+02  3.62671E+02 -6.14050E+02  1.57154E+02 -8.90348E+02 -1.05521E+02
 -1.20910E+03 -4.28704E+01 -2.72557E+02 -1.02574E+03  7.82993E+02 -1.74902E+03  8.92383E+02 -5.67405E+02
  9.68784E+02  2.85115E+02 -2.70681E+02  6.59157E+02 -2.31136E+02  8.34289E+02 -3.94088E+02  7.96309E+02
