 $NMID ID='MM_0lb_SNR800_13hz_g45_27.RAW', FMTDAT='(8E13.5)'
 TRAMP=1., VOLUME=1. $END
  3.09676E+05  4.66265E+02  3.37527E+05  2.50425E+05  8.47864E+04  3.37695E+05 -1.32618E+05  2.51155E+05
 -1.90243E+05  8.32452E+04 -1.11769E+05 -3.23856E+04  7.11347E+02 -5.05191E+04  5.35661E+04 -3.28955E+02
  3.51953E+04  5.25090E+04 -1.65159E+04  7.52652E+04 -6.09407E+04  6.39918E+04 -8.41527E+04  3.19432E+04
 -8.10373E+04 -1.15085E+04 -5.73036E+04 -5.11643E+04 -1.49795E+04 -6.98021E+04  2.75387E+04 -4.60205E+04
  4.04362E+04  4.01746E+03  1.63032E+04  4.77356E+04 -3.47039E+04  4.71337E+04 -6.69026E+04 -6.26141E+02
 -5.32497E+04 -5.70240E+04 -6.76187E+03 -7.72361E+04  3.39990E+04 -5.54309E+04  4.82950E+04 -1.71846E+04
  4.37657E+04  1.13573E+04  3.18424E+04  2.60178E+04  1.56377E+04  2.91580E+04 -5.48647E+03  2.74234E+04
 -2.22241E+04  1.24513E+04 -1.88319E+04 -5.01234E+03  5.64976E+03 -7.33552E+03  2.24153E+04  1.25089E+04
  7.04895E+03  3.56404E+04 -3.24054E+04  3.57521E+04 -6.36316E+04  2.05799E+03 -5.69128E+04 -4.29241E+04
 -1.27460E+04 -6.33351E+04  4.00277E+04 -4.53559E+04  5.84555E+04 -2.28730E+03  3.44948E+04  3.22898E+04
 -5.95063E+03  3.60642E+04 -3.03884E+04  1.61798E+04 -3.02885E+04 -4.59305E+03 -1.69784E+04 -1.11682E+04
 -8.25950E+03 -1.35457E+04 -6.83834E+02 -1.83925E+04  7.33207E+03 -2.33528E+04  1.54115E+04 -1.34121E+04
  1.13867E+04  5.38540E+03 -8.59817E+03  1.31236E+04 -2.14577E+04 -4.45606E+03 -8.41500E+03 -3.40674E+04
  2.30439E+04 -4.37173E+04  4.85979E+04 -1.99610E+04  4.51058E+04  1.95287E+04  1.60352E+04  4.44606E+04
 -1.61889E+04  3.36726E+04 -2.53093E+04  1.78449E+03 -1.02046E+04 -2.76254E+04  2.10362E+04 -3.42584E+04
  4.10647E+04 -9.20197E+03  3.61325E+04  2.37069E+04  1.83986E+04  4.68226E+04 -7.96479E+03  5.12941E+04
 -3.20413E+04  3.42175E+04 -4.26878E+04  9.62075E+03 -4.31848E+04 -1.67934E+04 -2.39493E+04 -3.84004E+04
  7.04864E+03 -3.82818E+04  3.18517E+04 -1.47720E+04  2.95796E+04  1.10479E+04  4.03869E+03  1.92597E+04
 -1.32840E+04  8.50624E+03 -1.05666E+04 -7.77781E+03  5.86380E+03 -1.09178E+04  1.79744E+04  5.99759E+03
  1.38019E+04  2.19837E+04 -6.10950E+03  2.52345E+04 -2.28512E+04  1.16879E+04 -2.86720E+04 -4.56157E+03
 -2.10888E+04 -1.73774E+04 -8.82014E+03 -2.10600E+04  4.35334E+03 -2.02487E+04  1.59543E+04 -1.87420E+04
  2.68732E+04 -1.29503E+04  3.31968E+04  3.07000E+03  2.45626E+04  2.02748E+04  4.22738E+03  3.70058E+04
 -1.77468E+04  3.08979E+04 -2.83017E+04  1.01907E+04 -2.11888E+04 -9.86958E+03 -4.18272E+03 -1.33306E+04
  1.85634E+03 -2.87545E+03 -5.05695E+03  6.78423E+03 -1.64508E+04  5.23052E+03 -1.65983E+04 -7.04862E+03
 -1.04282E+04 -1.94757E+04  5.25990E+03 -2.37565E+04  1.57583E+04 -1.67840E+04  1.83851E+04 -1.57723E+03
  1.16315E+04  1.35967E+04 -1.12255E+03  1.96281E+04 -1.36571E+04  1.09589E+04 -1.96454E+04 -4.08311E+03
 -1.41472E+04 -1.74404E+04 -1.81183E+03 -2.36930E+04  1.05394E+04 -1.90717E+04  1.93459E+04 -9.61165E+03
  1.84845E+04  8.31572E+01  1.33504E+04  4.59141E+03  6.81514E+03  1.11181E+03  9.64920E+03 -1.56259E+03
  1.79675E+04  2.60471E+03  1.98271E+04  1.56598E+04  1.29552E+04  3.10027E+04 -3.00798E+03  3.52230E+04
 -2.01705E+04  2.83267E+04 -3.27810E+04  1.40707E+04 -3.43556E+04 -2.58473E+03 -2.86231E+04 -2.00847E+04
 -1.23258E+04 -2.85142E+04  9.94461E+03 -2.58687E+04  2.22395E+04 -1.30460E+04  2.00685E+04  5.69760E+03
  7.19733E+03  1.47931E+04 -9.37886E+03  1.32329E+04 -1.71579E+04  2.45905E+03 -1.27530E+04 -1.01927E+04
 -2.64565E+02 -1.57285E+04  8.39362E+03 -1.15485E+04  1.04210E+04 -1.23957E+03  2.46684E+03  7.00236E+03
 -7.31857E+03  2.78495E+03 -6.27301E+03 -5.93525E+03 -4.64143E+02 -1.40078E+04  9.84126E+03 -1.48241E+04
  1.73108E+04 -7.76159E+03  1.87221E+04  2.75577E+03  1.63525E+04  1.39209E+04  7.75312E+03  2.14148E+04
 -3.37418E+03  2.33080E+04 -1.49864E+04  1.47381E+04 -1.66713E+04  3.26847E+03 -1.17596E+04 -3.96224E+03
 -5.38062E+03 -5.02829E+03 -7.45363E+02  1.32188E+03 -2.32186E+03  2.75666E+03 -5.70304E+03  4.40852E+03
 -1.11476E+04 -3.89021E+02 -1.18064E+04 -9.29102E+03 -4.76458E+03 -1.48770E+04  5.16057E+03 -1.18210E+04
  1.02144E+04 -4.86775E+03  6.84484E+03  2.98058E+03  3.43743E+02  4.76190E+03 -5.22981E+03 -2.84951E+01
 -5.14260E+03 -7.46136E+03 -7.57575E+02 -1.14834E+04  6.41953E+03 -1.20026E+04  1.45482E+04 -5.98903E+03
  1.73411E+04  1.26339E+03  1.29512E+04  9.94460E+03  2.47721E+03  1.37755E+04 -7.61315E+03  1.16090E+04
 -9.59410E+03  3.54214E+03 -5.18801E+03 -2.09297E+03  1.75809E+03 -3.07005E+03  6.51880E+03 -1.16339E+03
  5.84272E+03  5.09559E+03  1.25011E+03  9.51575E+03 -6.65891E+03  9.07834E+03 -1.13162E+04  2.62277E+03
 -7.51471E+03 -5.90201E+03  1.33272E+02 -1.01148E+04  5.96952E+03 -4.68746E+03  6.27258E+03  2.10587E+03
  1.11756E+03  6.17848E+03 -6.09144E+03  7.91121E+03 -9.00761E+03  3.59517E+03 -8.67659E+03 -3.08046E+03
 -5.36385E+03 -1.06790E+04  2.47949E+03 -1.22667E+04  1.00297E+04 -7.56567E+03  1.09051E+04  2.13563E+03
  7.12946E+03  8.80292E+03 -7.28780E+02  1.10974E+04 -8.18581E+03  6.41970E+03 -8.58950E+03 -8.83433E+02
 -8.26977E+03 -7.35420E+03 -1.65054E+03 -8.37641E+03  4.35602E+03 -6.81182E+03  4.92672E+03 -3.44544E+03
  4.25074E+03  1.04037E+03 -6.35588E+02  1.47910E+03 -6.26792E+01 -1.75419E+03  1.01695E+03 -4.87975E+03
  7.38790E+03 -2.79622E+03  1.02926E+04  1.26193E+03  1.03493E+04  6.57228E+03  7.41456E+03  1.30664E+04
 -2.95961E+03  1.55261E+04 -1.34130E+04  1.10046E+04 -1.73699E+04  2.16787E+03 -1.37621E+04 -5.64744E+03
 -6.98613E+03 -1.10530E+04 -6.10723E+02 -9.44812E+03  3.41600E+03 -5.05912E+03  3.31646E+03 -3.23955E+03
  2.55831E+03 -2.10762E+03  2.71828E+03 -2.74562E+03  4.59680E+03 -2.19753E+03  5.89697E+03 -5.02613E+02
  7.28325E+03  1.65173E+03  3.26931E+03  5.60286E+03 -2.02323E+03  6.74450E+03 -7.49974E+03  5.22767E+03
 -9.51546E+03 -1.27555E+03 -5.24140E+03 -6.36187E+03 -5.90670E+02 -9.75886E+03  5.95384E+03 -1.03018E+04
  1.01925E+04 -5.45424E+03  1.21760E+04  1.06547E+03  8.49586E+03  8.31053E+03  1.37537E+03  1.10641E+04
 -4.22619E+03  9.24112E+03 -6.32324E+03  3.30292E+03 -4.17146E+03 -1.52663E+03 -1.77489E+03 -9.45086E+02
 -1.15071E+03  1.47978E+02 -1.58932E+03  2.45342E+03 -3.94611E+03  1.45996E+03 -6.41665E+03 -1.01495E+03
 -3.70546E+03 -6.69152E+03  2.30053E+02 -8.94131E+03  5.61147E+03 -8.55565E+03  8.46330E+03 -2.34264E+03
  8.36423E+03  4.46388E+03  3.67229E+03  7.58109E+03 -1.83809E+03  8.36227E+03 -5.94461E+03  5.55325E+03
 -8.28624E+03  8.78760E+02 -6.51748E+03 -5.48568E+03 -6.38479E+02 -7.35040E+03  3.64599E+03 -5.08156E+03
  5.21901E+03 -1.94411E+03  3.78987E+03  1.41655E+03  1.14366E+03  2.56967E+03  6.90728E+02  1.52659E+03
  2.26382E+03  7.67805E+02  2.06769E+03  1.46693E+03  2.39337E+03  3.56638E+03  2.34848E+03  4.47525E+03
 -2.25306E+03  6.53478E+03 -5.83686E+03  7.41402E+03 -8.08569E+03  1.89954E+03 -9.12438E+03 -3.12931E+03
 -4.10753E+03 -8.19958E+03  1.36515E+03 -9.33497E+03  5.00223E+03 -6.07081E+03  7.03647E+03 -1.48620E+03
  5.44289E+03  3.39885E+03  1.28519E+03  5.04787E+03 -1.76387E+03  2.99956E+03 -2.77728E+03 -3.92919E+02
 -1.45794E+03 -3.57249E+03  2.09328E+03 -3.64977E+03  3.28226E+03 -1.92192E+03  3.58502E+03  8.04892E+02
  1.98349E+03  1.59537E+03  8.48333E+02  9.31234E+02 -2.45226E+02  9.87406E+02  1.62674E+03 -4.78275E+02
  8.31599E+02 -3.11995E+02  3.37930E+03  1.45361E+03  1.68067E+03  4.54129E+03 -4.55456E+02  6.38826E+03
 -3.91336E+03  3.73397E+03 -5.13975E+03  1.04398E+03 -5.03417E+03 -1.37994E+03 -1.54024E+03 -2.99855E+03
  3.61124E+02 -3.15414E+03  2.10861E+03 -1.60173E+03  2.09233E+03  1.86755E+03 -1.25244E+03  2.57969E+03
 -3.65517E+03  1.66946E+03 -3.42563E+03 -2.21964E+03 -1.74034E+03 -4.73773E+03  2.49544E+02 -4.31339E+03
  2.59966E+03 -2.23313E+03  2.76698E+03  1.30856E+02  2.97927E+03  4.89810E+02  4.31874E+02  2.62977E+03
 -1.43362E+03  9.42376E+02 -2.19877E+03 -1.24495E+03  7.84188E+02 -3.27210E+03  3.75283E+03 -2.32414E+03
  4.19586E+03  2.53296E+02  5.28564E+03  3.09131E+03  1.86810E+03  4.88989E+03 -1.57960E+03  4.85292E+03
 -3.84177E+03  1.59509E+03 -4.20905E+03 -6.29315E+02 -2.35933E+03 -3.58922E+03  5.50061E+02 -2.75587E+03
  3.38851E+03 -1.64265E+03  2.57667E+03  1.61357E+03  9.33315E+02  2.64159E+03 -3.88399E+02  2.52933E+03
 -1.28258E+03  1.56517E+03 -1.04448E+03  4.98669E+02 -3.71565E+02  5.81074E+02 -1.11207E+03  1.19460E+03
 -1.27143E+03  2.11991E+03 -3.69269E+03  1.59029E+03 -4.80678E+03  4.30398E+02 -5.94215E+03 -3.28202E+03
 -2.72641E+03 -6.52890E+03  1.04540E+03 -7.73868E+03  3.94015E+03 -5.96582E+03  7.36369E+03 -2.42707E+03
  6.65377E+03  1.02316E+03  3.91213E+03  4.35134E+03  2.28424E+02  5.15178E+03 -1.92139E+03  3.74473E+03
 -2.37562E+03  1.91749E+03 -1.31227E+03 -4.79669E+02 -8.50572E+02  1.12435E+02 -8.28103E+02 -4.70364E+01
 -1.30617E+03 -2.56166E+02 -1.50211E+03 -2.46946E+02 -1.55564E+02 -1.28610E+03  1.94530E+02 -1.89767E+03
  2.35063E+03 -1.70750E+03  2.35599E+03  6.28632E+01  3.54756E+03  2.55805E+03  7.01169E+02  4.46122E+03
 -2.65216E+03  5.98305E+03 -5.14598E+03  3.52464E+03 -5.54529E+03 -6.17022E+02 -4.14013E+03 -3.58166E+03
 -2.14154E+03 -4.40817E+03  1.30451E+03 -4.44989E+03  2.72456E+03 -2.20684E+03  2.85955E+03 -1.69341E+02
  1.76308E+03  1.46105E+03 -1.11277E+01  9.77475E+02 -1.10451E+03 -2.09881E+02 -2.51058E+02 -7.66539E+02
  1.63369E+03 -5.78841E+02  1.65967E+03  9.18159E+02  8.77098E+02  1.78649E+03  2.63627E+02  2.14311E+03
 -1.78846E+03  2.07889E+03 -2.95076E+03  3.37458E+02 -2.78995E+03 -2.16123E+03 -1.77705E+02 -3.82633E+03
  2.08520E+03 -3.37750E+03  2.96051E+03 -5.07612E+02  3.51876E+03  1.74567E+02  1.66043E+03  2.79120E+03
  6.46385E+02  2.68412E+03 -1.25649E+03  2.19152E+03 -1.95605E+03  1.60211E+03 -1.56987E+03  3.92459E+02
 -9.83478E+02 -1.01271E+00 -9.84821E+02  3.76318E+02 -1.82782E+03  4.69415E+02 -2.45553E+03 -3.68590E+02
 -2.16004E+03 -8.57047E+02 -5.13878E+02 -2.93503E+03  1.54803E+03 -3.57095E+03  2.47082E+03 -1.49976E+03
  2.79257E+03  3.58644E+02  1.11197E+03  1.92342E+03 -3.86890E+02  3.09083E+03 -1.91980E+03  2.18243E+03
