 $NMID ID='MM_0lb_SNR800_8hz_g60_95.RAW', FMTDAT='(8E13.5)'
 TRAMP=1., VOLUME=1. $END
  3.10257E+05  3.75663E+02  3.37825E+05  2.50901E+05  8.51818E+04  3.38974E+05 -1.32678E+05  2.52024E+05
 -1.91123E+05  8.41833E+04 -1.12916E+05 -3.23094E+04 -6.19529E+01 -5.08346E+04  5.36909E+04 -1.01323E+03
  3.61054E+04  5.26982E+04 -1.67180E+04  7.65001E+04 -6.19456E+04  6.45043E+04 -8.57482E+04  3.24391E+04
 -8.28416E+04 -1.17203E+04 -5.83821E+04 -5.28589E+04 -1.48445E+04 -7.19014E+04  2.81895E+04 -4.69233E+04
  4.15658E+04  3.81400E+03  1.69130E+04  4.89058E+04 -3.50892E+04  4.86245E+04 -6.85032E+04  6.49569E+02
 -5.51502E+04 -5.81474E+04 -7.35102E+03 -8.02792E+04  3.48417E+04 -5.78095E+04  5.09402E+04 -1.88726E+04
  4.60339E+04  1.16926E+04  3.33050E+04  2.67926E+04  1.58128E+04  3.11604E+04 -5.84734E+03  2.76643E+04
 -2.24822E+04  1.21567E+04 -1.78652E+04 -6.15055E+03  8.00559E+03 -7.17995E+03  2.38022E+04  1.42856E+04
  7.21009E+03  3.82100E+04 -3.46484E+04  3.74323E+04 -6.67844E+04  2.28364E+03 -5.96638E+04 -4.51842E+04
 -1.24829E+04 -6.70023E+04  4.22069E+04 -4.81218E+04  6.27265E+04 -2.60300E+03  3.80835E+04  3.54230E+04
 -4.62398E+03  4.06643E+04 -3.25406E+04  2.01946E+04 -3.43558E+04 -2.75820E+03 -2.04385E+04 -1.23288E+04
 -9.66827E+03 -1.58948E+04 -5.31254E+02 -2.02596E+04  9.14139E+03 -2.35411E+04  1.65061E+04 -1.23139E+04
  1.00094E+04  6.48569E+03 -1.15599E+04  1.31091E+04 -2.49235E+04 -7.26093E+03 -8.83767E+03 -3.88312E+04
  2.59862E+04 -4.87066E+04  5.37530E+04 -2.14579E+04  4.98329E+04  2.12404E+04  1.82159E+04  4.80884E+04
 -1.72080E+04  3.70155E+04 -2.82335E+04  2.65657E+03 -1.24783E+04 -3.04811E+04  2.24053E+04 -3.82585E+04
  4.56426E+04 -1.16967E+04  4.27595E+04  2.57156E+04  2.23970E+04  5.28850E+04 -8.86847E+03  5.88010E+04
 -3.69377E+04  4.01712E+04 -4.98028E+04  1.18560E+04 -4.96870E+04 -1.94304E+04 -2.68046E+04 -4.35330E+04
  8.39613E+03 -4.41195E+04  3.53914E+04 -1.80565E+04  3.29397E+04  1.12451E+04  5.77732E+03  2.19484E+04
 -1.41304E+04  1.06765E+04 -1.18157E+04 -7.68684E+03  5.38904E+03 -1.19492E+04  1.92235E+04  5.80457E+03
  1.55423E+04  2.30146E+04 -4.93342E+03  2.75321E+04 -2.39869E+04  1.56860E+04 -3.28257E+04 -1.98356E+03
 -2.77488E+04 -1.90594E+04 -1.34815E+04 -2.69170E+04  4.39460E+03 -2.81433E+04  2.15238E+04 -2.54020E+04
  3.46543E+04 -1.47512E+04  4.03566E+04  5.53799E+03  2.82564E+04  2.63178E+04  5.01351E+03  4.31720E+04
 -2.04773E+04  3.53758E+04 -3.16212E+04  1.23884E+04 -2.35635E+04 -1.00129E+04 -4.97634E+03 -1.23168E+04
  4.34013E+02 -3.90639E+02 -9.02372E+03  8.75236E+03 -2.24247E+04  4.92275E+03 -2.18766E+04 -1.06599E+04
 -1.25741E+04 -2.55131E+04  6.51922E+03 -2.98282E+04  2.02141E+04 -2.09767E+04  2.47040E+04 -1.88997E+03
  1.59375E+04  1.72270E+04 -1.28174E+03  2.51808E+04 -1.82134E+04  1.46182E+04 -2.54524E+04 -4.94950E+03
 -1.88099E+04 -2.21396E+04 -2.64767E+03 -3.03338E+04  1.36251E+04 -2.55449E+04  2.52780E+04 -1.30469E+04
  2.39984E+04 -3.16499E+02  1.75096E+04  5.41486E+03  9.52627E+03  1.85388E+03  1.31741E+04 -2.31171E+03
  2.37831E+04  2.53173E+03  2.77326E+04  1.96038E+04  1.90440E+04  4.03614E+04 -2.81539E+03  4.83860E+04
 -2.74710E+04  4.12474E+04 -4.59698E+04  2.15144E+04 -4.93007E+04 -3.63739E+03 -3.95704E+04 -2.87866E+04
 -1.51168E+04 -4.14582E+04  1.44846E+04 -3.58785E+04  3.07675E+04 -1.65496E+04  2.64055E+04  8.94119E+03
  8.80169E+03  2.04843E+04 -1.29013E+04  1.68755E+04 -2.15603E+04  2.66067E+03 -1.67632E+04 -1.42558E+04
 -2.30939E+02 -2.13573E+04  1.11461E+04 -1.55964E+04  1.47646E+04 -1.02830E+03  3.73824E+03  9.71806E+03
 -9.07129E+03  5.03464E+03 -1.05353E+04 -7.49440E+03 -2.44737E+03 -2.02114E+04  1.30196E+04 -2.21710E+04
  2.62827E+04 -1.25100E+04  2.98060E+04  3.38864E+03  2.60659E+04  2.09648E+04  1.19245E+04  3.31786E+04
 -6.16208E+03  3.46750E+04 -2.33695E+04  2.17499E+04 -2.58047E+04  4.22896E+03 -1.69539E+04 -6.74961E+03
 -6.83135E+03 -8.02731E+03 -4.57331E+02  9.58907E+01 -3.46863E+03  4.11382E+03 -8.46721E+03  5.80793E+03
 -1.61508E+04 -6.86584E+02 -1.59657E+04 -1.25792E+04 -6.20232E+03 -2.06321E+04  7.33195E+03 -1.75720E+04
  1.43448E+04 -7.20464E+03  1.03040E+04  4.74148E+03 -6.31136E+02  7.40611E+03 -9.02985E+03 -5.57643E+01
 -8.72109E+03 -1.16029E+04 -8.95632E+02 -1.81523E+04  1.03339E+04 -1.88696E+04  2.25945E+04 -1.02887E+04
  2.62012E+04  2.86194E+03  1.92653E+04  1.64684E+04  3.24852E+03  2.13996E+04 -1.12534E+04  1.74123E+04
 -1.39476E+04  5.08158E+03 -7.24278E+03 -4.34088E+03  2.51912E+03 -4.90870E+03  8.85700E+03 -8.75663E+02
  8.75553E+03  7.98069E+03  1.24671E+03  1.41088E+04 -9.90444E+03  1.34460E+04 -1.80890E+04  3.35627E+03
 -1.24709E+04 -9.25250E+03  3.52896E+01 -1.56096E+04  1.02925E+04 -7.52356E+03  1.04816E+04  3.60054E+03
  2.75026E+03  1.20747E+04 -9.49785E+03  1.36488E+04 -1.62701E+04  5.89902E+03 -1.66934E+04 -6.24360E+03
 -9.56384E+03 -1.83874E+04  4.42506E+03 -2.10944E+04  1.76664E+04 -1.26370E+04  1.94720E+04  3.45072E+03
  1.18231E+04  1.54493E+04 -1.66849E+03  1.83013E+04 -1.31253E+04  1.02041E+04 -1.48718E+04 -1.84168E+03
 -1.22126E+04 -1.20264E+04 -1.84898E+03 -1.37845E+04  7.73075E+03 -1.07792E+04  9.03301E+03 -3.67922E+03
  5.62414E+03  2.69398E+03 -1.54747E+03  2.22051E+03 -6.48693E+02 -4.25348E+03  3.10421E+03 -9.19413E+03
  1.37291E+04 -5.73891E+03  1.90118E+04  2.14118E+03  1.88767E+04  1.33264E+04  1.10573E+04  2.53276E+04
 -6.66617E+03  2.81813E+04 -2.38374E+04  2.10734E+04 -3.05702E+04  3.98730E+03 -2.41502E+04 -1.07097E+04
 -1.21427E+04 -2.07891E+04 -4.64947E+02 -1.72116E+04  6.29535E+03 -9.64146E+03  5.90333E+03 -6.36769E+03
  4.63108E+03 -4.00652E+03  4.45190E+03 -4.55551E+03  6.16516E+03 -4.55864E+03  9.33227E+03 -2.36795E+03
  1.24722E+04  2.40708E+03  7.00224E+03  1.06210E+04 -2.18352E+03  1.42229E+04 -1.30478E+04  1.04791E+04
 -1.73380E+04 -1.16497E+03 -1.18046E+04 -1.29689E+04 -2.05482E+03 -1.85543E+04  1.03763E+04 -1.89231E+04
  1.99872E+04 -1.03479E+04  2.31773E+04  3.09144E+03  1.59295E+04  1.67198E+04  2.33693E+03  2.13643E+04
 -8.53388E+03  1.67449E+04 -1.28729E+04  5.85975E+03 -8.67218E+03 -1.89965E+03 -3.68163E+03 -2.62745E+03
 -2.35949E+03 -4.04380E+02 -3.14543E+03  3.55336E+03 -7.19762E+03  2.84857E+03 -1.19380E+04 -2.12042E+03
 -9.16465E+03 -1.21550E+04 -4.42086E+02 -1.80986E+04  1.05655E+04 -1.67169E+04  1.79700E+04 -5.29163E+03
  1.77263E+04  8.16735E+03  8.44788E+03  1.62444E+04 -3.42940E+03  1.80677E+04 -1.32186E+04  1.12001E+04
 -1.75439E+04  5.38399E+02 -1.25174E+04 -1.06412E+04 -1.76176E+03 -1.52341E+04  7.78200E+03 -1.12162E+04
  1.10881E+04 -3.20783E+03  7.82206E+03  3.25782E+03  3.05962E+03  5.29780E+03  1.13187E+03  2.41679E+03
  3.11158E+03  1.14876E+03  4.31663E+03  2.07943E+03  5.90362E+03  5.92844E+03  4.31187E+03  9.77847E+03
 -3.54744E+03  1.44705E+04 -1.29958E+04  1.41845E+04 -1.89960E+04  3.89821E+03 -1.95820E+04 -8.49386E+03
 -9.02119E+03 -1.84651E+04  2.92113E+03 -1.99635E+04  1.12669E+04 -1.31104E+04  1.56389E+04 -3.45807E+03
  1.17037E+04  7.01281E+03  2.41514E+03  1.03302E+04 -5.27871E+03  6.72693E+03 -8.33009E+03 -1.05462E+03
 -4.04332E+03 -7.99664E+03  4.41145E+03 -8.43582E+03  7.52842E+03 -4.26946E+03  7.14753E+03  1.83211E+03
  4.43240E+03  4.02619E+03  1.86656E+03  3.55152E+03 -8.26864E+02  2.38933E+03  2.05773E+03 -1.08085E+03
  3.37243E+03 -1.49599E+03  7.12795E+03  2.67077E+03  4.56945E+03  9.95987E+03 -1.86471E+03  1.31519E+04
 -8.80172E+03  8.57109E+03 -1.20164E+04  2.23769E+03 -1.09685E+04 -4.16285E+03 -4.15252E+03 -7.49888E+03
  1.53941E+03 -7.55779E+03  5.05014E+03 -3.16884E+03  4.39741E+03  3.55849E+03 -1.92055E+03  6.41292E+03
 -7.86949E+03  3.94977E+03 -8.78076E+03 -4.09317E+03 -5.54278E+03 -1.03786E+04  2.11133E+03 -1.10320E+04
  6.60873E+03 -6.11785E+03  7.82581E+03 -8.63404E+02  6.35717E+03  3.46574E+03  7.26480E+02  5.35639E+03
 -3.93035E+03  1.46378E+03 -4.85262E+03 -3.68475E+03  1.70004E+03 -8.43003E+03  9.75449E+03 -6.92900E+03
  1.22066E+04  9.12547E+02  1.17431E+04  8.70313E+03  3.39942E+03  1.30280E+04 -4.41873E+03  1.21393E+04
 -1.04682E+04  5.67849E+03 -1.07633E+04 -1.78112E+03 -5.57920E+03 -8.28927E+03  2.15671E+03 -7.70170E+03
  7.75511E+03 -3.57661E+03  7.08555E+03  3.47996E+03  2.44398E+03  7.24729E+03 -1.27625E+03  6.63821E+03
 -3.05944E+03  3.67368E+03 -2.44335E+03  1.74976E+03 -1.58665E+03  1.19326E+03 -1.67008E+03  2.22799E+03
 -3.13876E+03  4.69646E+03 -8.27245E+03  4.40106E+03 -1.23334E+04  6.35209E+02 -1.42751E+04 -8.48573E+03
 -7.59009E+03 -1.74645E+04  3.40241E+03 -1.98155E+04  1.29516E+04 -1.53649E+04  1.85334E+04 -5.54040E+03
  1.75040E+04  3.68794E+03  1.07993E+04  1.26080E+04  1.19517E+03  1.38712E+04 -5.27843E+03  9.78522E+03
 -7.61118E+03  3.56650E+03 -4.67342E+03 -1.71519E+03 -1.33210E+03 -1.64098E+03 -1.96543E+02 -5.16461E+01
 -2.09405E+03  1.67743E+02 -3.10113E+03 -4.21323E+02 -1.14828E+03 -2.66854E+03  6.61271E+02 -4.45076E+03
  5.72124E+03 -3.86380E+03  8.13459E+03 -6.18464E+01  9.27118E+03  7.12464E+03  3.21130E+03  1.33272E+04
 -6.25135E+03  1.55757E+04 -1.44910E+04  8.57551E+03 -1.64611E+04 -1.10464E+03 -1.22018E+04 -1.00577E+04
 -4.61396E+03 -1.37672E+04  3.75995E+03 -1.28854E+04  9.20649E+03 -7.02868E+03  9.53485E+03  6.21154E+01
  4.68716E+03  4.71098E+03 -1.30508E+02  4.08961E+03 -2.04643E+03 -1.15975E+02 -1.10412E+02 -3.49724E+03
  4.74769E+03 -1.90789E+03  5.49572E+03  1.78397E+03  3.61306E+03  5.45527E+03  7.53070E+01  7.26747E+03
 -5.88940E+03  6.37820E+03 -9.64920E+03  1.04022E+03 -8.08171E+03 -6.37756E+03 -1.39435E+03 -1.18928E+04
  6.44393E+03 -9.73447E+03  1.03397E+04 -3.22648E+03  1.07644E+04  2.86958E+03  6.54019E+03  8.87900E+03
  9.19670E+02  9.50557E+03 -3.72278E+03  7.70591E+03 -5.80314E+03  3.51582E+03 -5.20420E+03  5.84080E+02
 -2.27897E+03 -4.87592E+02 -2.59041E+03  1.29414E+03 -4.42191E+03  1.59194E+03 -7.02407E+03 -1.66611E+03
 -6.71377E+03 -4.97355E+03 -2.11050E+03 -9.21492E+03  4.24516E+03 -9.97117E+03  8.34351E+03 -5.23964E+03
  9.21796E+03  1.35727E+03  5.10765E+03  6.54338E+03 -9.56809E+02  9.59408E+03 -7.64988E+03  5.75963E+03
