 $NMID ID='MM_0lb_SNR800_14hz_g60_14.RAW', FMTDAT='(8E13.5)'
 TRAMP=1., VOLUME=1. $END
  3.09567E+05  4.55869E+02  3.37392E+05  2.50929E+05  8.44597E+04  3.38193E+05 -1.32649E+05  2.51295E+05
 -1.90659E+05  8.33726E+04 -1.12114E+05 -3.26669E+04  9.55997E+02 -5.07967E+04  5.39363E+04 -4.90154E+02
  3.53809E+04  5.28315E+04 -1.66568E+04  7.58326E+04 -6.08262E+04  6.38018E+04 -8.47216E+04  3.20756E+04
 -8.15043E+04 -1.13833E+04 -5.74637E+04 -5.17076E+04 -1.51981E+04 -7.03228E+04  2.76389E+04 -4.61728E+04
  4.05113E+04  3.54978E+03  1.65348E+04  4.86108E+04 -3.43099E+04  4.73966E+04 -6.70917E+04 -2.28425E+02
 -5.39128E+04 -5.74061E+04 -6.84507E+03 -7.76426E+04  3.43379E+04 -5.61112E+04  4.81275E+04 -1.72304E+04
  4.42513E+04  1.16128E+04  3.23452E+04  2.58666E+04  1.58570E+04  3.01775E+04 -5.27141E+03  2.73558E+04
 -2.19251E+04  1.21312E+04 -1.80993E+04 -5.37340E+03  6.33411E+03 -7.28656E+03  2.24714E+04  1.29889E+04
  7.32628E+03  3.59410E+04 -3.25854E+04  3.61526E+04 -6.42786E+04  2.41509E+03 -5.77217E+04 -4.35541E+04
 -1.26273E+04 -6.41193E+04  4.03064E+04 -4.62289E+04  5.92806E+04 -2.30111E+03  3.52218E+04  3.28595E+04
 -5.90464E+03  3.72913E+04 -3.07282E+04  1.69457E+04 -3.12657E+04 -4.10388E+03 -1.76071E+04 -1.14584E+04
 -8.76009E+03 -1.39885E+04 -3.28415E+02 -1.87738E+04  7.92224E+03 -2.33344E+04  1.54682E+04 -1.30979E+04
  1.09888E+04  5.51390E+03 -8.88518E+03  1.31410E+04 -2.17695E+04 -5.24784E+03 -8.44303E+03 -3.51682E+04
  2.38338E+04 -4.47851E+04  4.96742E+04 -1.98638E+04  4.61099E+04  1.95695E+04  1.62487E+04  4.53283E+04
 -1.62003E+04  3.41951E+04 -2.62451E+04  2.18193E+03 -1.07001E+04 -2.84689E+04  2.08926E+04 -3.49891E+04
  4.20437E+04 -9.69330E+03  3.70362E+04  2.39966E+04  1.91731E+04  4.82161E+04 -8.05607E+03  5.21917E+04
 -3.27044E+04  3.55489E+04 -4.39452E+04  9.77472E+03 -4.45537E+04 -1.71973E+04 -2.44870E+04 -3.92501E+04
  7.38900E+03 -3.90035E+04  3.22006E+04 -1.58665E+04  3.00992E+04  1.09612E+04  4.30214E+03  1.96958E+04
 -1.36751E+04  8.89519E+03 -1.03823E+04 -7.30102E+03  5.81666E+03 -1.11005E+04  1.84000E+04  6.12239E+03
  1.40130E+04  2.23263E+04 -5.95945E+03  2.60604E+04 -2.24195E+04  1.23142E+04 -2.94750E+04 -4.31212E+03
 -2.21922E+04 -1.77229E+04 -9.15242E+03 -2.16204E+04  4.21155E+03 -2.16927E+04  1.67640E+04 -1.96591E+04
  2.76493E+04 -1.31246E+04  3.40565E+04  3.66303E+03  2.47143E+04  2.12398E+04  4.58454E+03  3.78293E+04
 -1.81518E+04  3.12324E+04 -2.89606E+04  1.04706E+04 -2.11661E+04 -1.02586E+04 -4.58473E+03 -1.28191E+04
  1.61052E+03 -2.06003E+03 -5.56488E+03  7.20209E+03 -1.73658E+04  5.29253E+03 -1.72630E+04 -7.32830E+03
 -1.07373E+04 -2.02886E+04  5.57754E+03 -2.42821E+04  1.63108E+04 -1.74064E+04  1.93547E+04 -1.58268E+03
  1.22284E+04  1.40957E+04 -9.52264E+02  2.04472E+04 -1.41896E+04  1.14427E+04 -2.00470E+04 -4.17259E+03
 -1.48680E+04 -1.80969E+04 -1.86911E+03 -2.47072E+04  1.07766E+04 -2.02664E+04  2.04381E+04 -1.01234E+04
  1.89487E+04  1.14126E+02  1.37245E+04  4.46284E+03  7.15233E+03  9.67966E+02  1.03675E+04 -2.02081E+03
  1.84929E+04  2.97250E+03  2.07596E+04  1.56529E+04  1.38461E+04  3.22585E+04 -2.97495E+03  3.63302E+04
 -2.11600E+04  2.96679E+04 -3.44488E+04  1.50975E+04 -3.62031E+04 -2.63469E+03 -2.96598E+04 -2.11347E+04
 -1.22674E+04 -3.00847E+04  1.04476E+04 -2.64826E+04  2.26269E+04 -1.36304E+04  2.04515E+04  5.96534E+03
  7.58639E+03  1.54575E+04 -9.42474E+03  1.29621E+04 -1.73418E+04  2.79169E+03 -1.26496E+04 -1.08020E+04
 -3.76655E+02 -1.61379E+04  8.67965E+03 -1.18532E+04  1.05629E+04 -1.18961E+03  2.27082E+03  6.96755E+03
 -7.23543E+03  2.91970E+03 -6.88609E+03 -5.76199E+03 -8.60541E+02 -1.49166E+04  9.90047E+03 -1.52797E+04
  1.77798E+04 -8.12384E+03  1.97821E+04  3.24464E+03  1.71392E+04  1.45871E+04  7.63843E+03  2.20863E+04
 -3.83160E+03  2.43268E+04 -1.56067E+04  1.50663E+04 -1.75420E+04  3.39633E+03 -1.18160E+04 -3.99312E+03
 -5.63828E+03 -5.65622E+03 -9.05020E+02  1.09346E+03 -2.30609E+03  2.84824E+03 -5.38737E+03  4.21812E+03
 -1.15006E+04 -6.92726E+02 -1.21301E+04 -9.65309E+03 -4.80634E+03 -1.54115E+04  4.57307E+03 -1.23531E+04
  1.00873E+04 -5.00809E+03  7.36791E+03  3.20789E+03  3.56362E+01  4.67631E+03 -5.78889E+03 -2.45662E+00
 -5.56342E+03 -7.83387E+03 -7.09767E+02 -1.16808E+04  6.57670E+03 -1.23981E+04  1.50933E+04 -6.45808E+03
  1.76530E+04  1.67072E+03  1.29887E+04  1.05067E+04  2.41331E+03  1.37348E+04 -7.33363E+03  1.17819E+04
 -9.77307E+03  3.75595E+03 -4.70384E+03 -2.36976E+03  1.87489E+03 -3.36536E+03  6.58142E+03 -1.08348E+03
  6.16210E+03  5.03976E+03  1.39095E+03  9.56263E+03 -6.84271E+03  9.28711E+03 -1.17014E+04  2.43856E+03
 -7.65147E+03 -6.06162E+03  2.11044E+01 -9.79683E+03  5.80265E+03 -5.20175E+03  6.54523E+03  2.00483E+03
  1.51715E+03  6.48198E+03 -5.86996E+03  7.81618E+03 -9.22380E+03  3.92767E+03 -9.25543E+03 -2.92680E+03
 -5.46692E+03 -1.06243E+04  2.37859E+03 -1.23568E+04  1.04622E+04 -7.59579E+03  1.17758E+04  2.13235E+03
  7.18589E+03  9.15937E+03 -7.21476E+02  1.14025E+04 -8.30776E+03  6.37506E+03 -8.96156E+03 -8.27775E+02
 -8.15479E+03 -8.10583E+03 -1.36124E+03 -8.42453E+03  4.43949E+03 -6.91241E+03  5.05488E+03 -3.10588E+03
  3.89212E+03  1.13914E+03 -3.28873E+02  1.70194E+03 -3.08583E+02 -1.44241E+03  1.32682E+03 -4.37723E+03
  7.29444E+03 -2.44827E+03  1.02833E+04  1.07890E+03  1.02309E+04  6.89630E+03  7.15694E+03  1.32488E+04
 -2.94095E+03  1.58620E+04 -1.33990E+04  1.17456E+04 -1.67820E+04  2.00592E+03 -1.35311E+04 -5.29957E+03
 -7.07535E+03 -1.11966E+04 -4.52303E+02 -9.73200E+03  3.61282E+03 -5.12551E+03  3.28894E+03 -3.56912E+03
  2.51138E+03 -2.27121E+03  2.77367E+03 -2.99131E+03  4.71199E+03 -2.03002E+03  5.86393E+03 -2.64440E+02
  7.12343E+03  1.57475E+03  3.22271E+03  6.14024E+03 -1.76227E+03  6.77364E+03 -7.35620E+03  5.32767E+03
 -9.05185E+03 -1.22174E+03 -5.14795E+03 -6.10239E+03 -3.59705E+02 -1.00539E+04  5.41256E+03 -1.01073E+04
  1.02411E+04 -5.89018E+03  1.20769E+04  1.37395E+03  8.30998E+03  8.35590E+03  1.57857E+03  1.12283E+04
 -4.37455E+03  9.82993E+03 -6.52774E+03  3.66070E+03 -4.08200E+03 -1.23126E+03 -1.75876E+03 -1.11892E+03
 -8.43748E+02  4.25721E+02 -1.43548E+03  2.29012E+03 -4.02834E+03  1.60659E+03 -6.46398E+03 -9.72385E+02
 -3.99882E+03 -6.83130E+03  4.09143E+02 -9.04690E+03  5.34804E+03 -8.24094E+03  8.06126E+03 -2.76418E+03
  8.34585E+03  4.32169E+03  3.89640E+03  7.50845E+03 -1.54420E+03  8.70716E+03 -5.94846E+03  5.48024E+03
 -7.99553E+03  2.29334E+02 -6.36143E+03 -5.03113E+03 -7.22626E+02 -7.07897E+03  3.43974E+03 -5.15831E+03
  5.59033E+03 -1.89339E+03  3.94620E+03  1.42157E+03  1.15571E+03  2.76896E+03  1.05334E+03  1.20576E+03
  2.37589E+03  9.52294E+02  2.27796E+03  1.38138E+03  2.44707E+03  3.21529E+03  2.10856E+03  4.48643E+03
 -1.76044E+03  6.43236E+03 -5.08339E+03  7.19086E+03 -8.11467E+03  1.76077E+03 -8.61564E+03 -2.71444E+03
 -4.25083E+03 -8.12634E+03  1.13895E+03 -9.03529E+03  4.67576E+03 -5.82798E+03  6.71808E+03 -1.78069E+03
  5.18637E+03  3.21397E+03  9.75979E+02  4.70233E+03 -2.26311E+03  2.86818E+03 -3.10923E+03 -3.63064E+02
 -1.39578E+03 -3.34780E+03  1.98150E+03 -3.55720E+03  3.33794E+03 -2.05105E+03  3.12263E+03  7.12211E+02
  1.98670E+03  1.33225E+03  9.40365E+02  8.87141E+02 -6.79311E+02  1.15085E+03  1.85182E+03 -6.83455E+02
  8.23206E+02 -6.43315E+02  3.28833E+03  1.21872E+03  1.57043E+03  4.33161E+03 -8.08621E+02  5.69547E+03
 -3.50077E+03  2.99904E+03 -4.85060E+03  9.54133E+02 -4.53096E+03 -1.51443E+03 -1.17096E+03 -2.79237E+03
  7.08566E+02 -2.85551E+03  2.02867E+03 -1.43303E+03  1.53442E+03  1.43244E+03 -9.56221E+02  2.48249E+03
 -2.82623E+03  1.48468E+03 -3.48821E+03 -2.16716E+03 -1.91363E+03 -4.41308E+03  4.28135E+02 -3.90649E+03
  1.82991E+03 -2.34278E+03  2.35253E+03 -2.77947E+02  2.36872E+03  1.03796E+03  6.02159E+02  2.28710E+03
 -1.04985E+03  2.47104E+02 -2.04720E+03 -9.93738E+02  4.58476E+02 -3.02065E+03  3.72928E+03 -2.19303E+03
  4.18654E+03  4.41121E+02  5.16076E+03  2.56461E+03  1.96224E+03  4.53958E+03 -1.71256E+03  4.41058E+03
 -3.73349E+03  1.47152E+03 -3.96575E+03 -4.90924E+02 -2.12306E+03 -2.93574E+03  9.07088E+01 -2.59674E+03
  3.35131E+03 -1.39031E+03  1.95053E+03  1.41323E+03  7.94527E+02  2.62596E+03 -9.50668E+01  2.15860E+03
 -1.20211E+03  1.84697E+03 -8.79848E+02  3.71777E+02 -4.96312E+02  5.79183E+02 -8.58754E+02  1.14159E+03
 -1.41633E+03  1.81569E+03 -3.62279E+03  1.09276E+03 -3.98246E+03  3.70358E+02 -5.22642E+03 -3.25294E+03
 -2.64177E+03 -5.48770E+03  9.42803E+02 -6.65634E+03  3.59087E+03 -5.31607E+03  6.28322E+03 -2.10979E+03
  5.73824E+03  1.29215E+03  3.47620E+03  3.67680E+03 -1.08441E+02  4.11261E+03 -1.74384E+03  3.31991E+03
 -2.66885E+03  1.56343E+03 -1.34274E+03 -7.07738E+02 -6.71689E+02  8.92210E+01 -7.12874E+02  1.56930E+02
 -1.36390E+03 -3.25629E+02 -1.59370E+03 -3.18477E+02  9.85237E+00 -9.93807E+02 -7.68237E+01 -2.15049E+03
  2.19150E+03 -1.62504E+03  2.44023E+03  2.77149E+01  2.99742E+03  2.30692E+03  1.90699E+02  3.87904E+03
 -2.31762E+03  5.17558E+03 -4.23837E+03  2.85160E+03 -4.91577E+03 -4.46288E+02 -3.52173E+03 -2.92233E+03
 -1.46324E+03 -3.85518E+03  7.25402E+02 -3.41227E+03  2.39099E+03 -1.92349E+03  2.45340E+03  2.51848E+02
  1.76436E+03  9.24119E+02 -1.14543E+02  1.29069E+03 -8.49118E+02  9.32703E+01  4.06704E+01 -8.38774E+02
  1.27007E+03 -3.08046E+02  1.46156E+03  5.80982E+02  1.21530E+03  1.25939E+03  3.57304E+02  1.71351E+03
 -1.76874E+03  1.71532E+03 -2.38652E+03  2.25713E+02 -2.23582E+03 -1.26263E+03 -2.40771E+02 -3.37650E+03
  1.78765E+03 -2.38699E+03  2.22744E+03 -4.32114E+02  2.70731E+03 -1.49461E+01  1.82547E+03  2.18504E+03
  8.08106E+02  2.28995E+03 -1.05627E+03  1.90154E+03 -1.36432E+03  1.14142E+03 -1.26121E+03  1.42857E+01
 -6.66883E+02  5.36799E+01 -1.10465E+03  1.12038E+02 -1.56147E+03  3.84260E+02 -1.93640E+03 -2.98959E+02
 -2.06438E+03 -5.81970E+02 -7.31721E+02 -2.69789E+03  1.52309E+03 -2.95064E+03  2.04513E+03 -1.07648E+03
  2.29266E+03  2.98618E+02  8.93772E+02  1.54932E+03 -3.81953E+02  2.44825E+03 -1.43790E+03  1.94416E+03
