 $NMID ID='MM_0lb_SNR800_20hz_g55_10.RAW', FMTDAT='(8E13.5)'
 TRAMP=1., VOLUME=1. $END
  3.09970E+05  3.29130E+02  3.37609E+05  2.50552E+05  8.42355E+04  3.37373E+05 -1.32410E+05  2.50432E+05
 -1.89915E+05  8.27285E+04 -1.11096E+05 -3.26770E+04  1.32574E+03 -5.05149E+04  5.38639E+04  8.91945E+01
  3.50739E+04  5.29943E+04 -1.68460E+04  7.50291E+04 -6.04667E+04  6.26932E+04 -8.29852E+04  3.18368E+04
 -7.96471E+04 -1.13080E+04 -5.63562E+04 -5.03260E+04 -1.49373E+04 -6.83145E+04  2.68530E+04 -4.46024E+04
  3.90586E+04  4.00020E+03  1.58170E+04  4.71367E+04 -3.42009E+04  4.64746E+04 -6.54636E+04 -7.23105E+02
 -5.21185E+04 -5.57677E+04 -6.14612E+03 -7.52215E+04  3.30845E+04 -5.33612E+04  4.66006E+04 -1.64600E+04
  4.15272E+04  1.09299E+04  3.07894E+04  2.43838E+04  1.55245E+04  2.86118E+04 -4.71928E+03  2.69706E+04
 -2.13180E+04  1.27087E+04 -1.90672E+04 -4.25043E+03  4.51561E+03 -7.62020E+03  2.13692E+04  1.08252E+04
  7.39556E+03  3.33167E+04 -3.06974E+04  3.42043E+04 -6.11372E+04  2.13850E+03 -5.55456E+04 -4.10818E+04
 -1.24739E+04 -6.11130E+04  3.81477E+04 -4.33711E+04  5.59022E+04 -1.86422E+03  3.23001E+04  3.06815E+04
 -6.56182E+03  3.34509E+04 -2.86366E+04  1.34568E+04 -2.75955E+04 -5.30128E+03 -1.43887E+04 -1.01553E+04
 -7.49197E+03 -1.14825E+04 -1.11074E+03 -1.65032E+04  6.68334E+03 -2.25011E+04  1.49588E+04 -1.40343E+04
  1.24929E+04  4.10970E+03 -6.38455E+03  1.28057E+04 -1.95432E+04 -2.63774E+03 -8.30893E+03 -3.09015E+04
  2.06527E+04 -4.05217E+04  4.46055E+04 -1.88039E+04  4.18594E+04  1.82824E+04  1.42530E+04  4.18028E+04
 -1.54470E+04  3.12451E+04 -2.35053E+04  1.18858E+03 -8.25530E+03 -2.63705E+04  2.06067E+04 -3.08356E+04
  3.78619E+04 -7.35060E+03  3.16771E+04  2.28396E+04  1.52430E+04  4.26481E+04 -7.70104E+03  4.51078E+04
 -2.83029E+04  2.99666E+04 -3.73810E+04  8.49853E+03 -3.80747E+04 -1.51054E+04 -2.11782E+04 -3.42977E+04
  6.81956E+03 -3.43292E+04  2.90004E+04 -1.26622E+04  2.68974E+04  1.06972E+04  2.99182E+03  1.75184E+04
 -1.30641E+04  7.13888E+03 -9.68383E+03 -7.66666E+03  5.71900E+03 -1.01332E+04  1.71866E+04  6.64073E+03
  1.24071E+04  2.18613E+04 -6.65020E+03  2.33564E+04 -2.14463E+04  9.28358E+03 -2.50953E+04 -6.14263E+03
 -1.65796E+04 -1.65050E+04 -5.64287E+03 -1.64794E+04  3.87104E+03 -1.46568E+04  1.22325E+04 -1.45553E+04
  2.11522E+04 -1.16020E+04  2.80189E+04  9.93888E+02  2.13727E+04  1.61613E+04  3.95822E+03  3.22224E+04
 -1.58883E+04  2.74911E+04 -2.57947E+04  9.52401E+03 -1.97613E+04 -1.07977E+04 -3.65494E+03 -1.40178E+04
  2.78947E+03 -4.20617E+03 -2.53906E+03  5.21739E+03 -1.28525E+04  5.57074E+03 -1.30639E+04 -4.93833E+03
 -8.47699E+03 -1.54314E+04  4.29576E+03 -1.90346E+04  1.24655E+04 -1.38645E+04  1.43767E+04 -1.44115E+03
  8.86721E+03  1.07493E+04 -8.33283E+02  1.56432E+04 -1.04745E+04  8.54120E+03 -1.50748E+04 -3.39156E+03
 -1.12885E+04 -1.40501E+04 -1.40533E+03 -1.88520E+04  8.49008E+03 -1.50830E+04  1.59073E+04 -7.01121E+03
  1.43106E+04  7.19996E+02  1.05211E+04  3.84287E+03  5.16810E+03  3.10519E+02  7.57764E+03 -1.40273E+03
  1.37008E+04  2.57516E+03  1.44276E+04  1.25676E+04  8.70501E+03  2.43878E+04 -3.19758E+03  2.59594E+04
 -1.55268E+04  1.97110E+04 -2.38530E+04  9.35915E+03 -2.43564E+04 -1.61659E+03 -2.07218E+04 -1.38937E+04
 -9.88926E+03 -1.97564E+04  6.64123E+03 -1.87285E+04  1.60690E+04 -1.06296E+04  1.51930E+04  3.54046E+03
  6.72884E+03  1.08942E+04 -6.82943E+03  1.01741E+04 -1.30059E+04  2.60334E+03 -1.01340E+04 -7.65637E+03
  3.84870E+02 -1.21129E+04  6.26796E+03 -9.55384E+03  7.45087E+03 -1.26209E+03  1.46507E+03  4.91706E+03
 -5.41980E+03  9.77160E+02 -3.21280E+03 -4.28961E+03  6.56251E+02 -9.92491E+03  7.77189E+03 -9.67096E+03
  1.17888E+04 -4.59596E+03  1.12503E+04  2.61206E+03  9.54892E+03  8.94133E+03  4.99493E+03  1.32181E+04
 -1.46348E+03  1.52108E+04 -9.09557E+03  9.46293E+03 -1.06932E+04  2.94217E+03 -7.95526E+03 -1.65903E+03
 -4.47294E+03 -3.18581E+03 -8.25883E+02  1.63017E+03 -1.63395E+03  1.85031E+03 -3.44854E+03  3.57082E+03
 -7.88297E+03 -5.02196E+02 -8.52761E+03 -6.77326E+03 -3.47995E+03 -1.09954E+04  3.32100E+03 -8.26504E+03
  6.74350E+03 -3.36988E+03  5.12947E+03  2.11683E+03  5.13983E+02  2.82672E+03 -3.06962E+03  6.76102E+00
 -3.08951E+03 -5.05395E+03 -6.99164E+02 -7.03189E+03  3.41167E+03 -7.40324E+03  9.52435E+03 -3.78803E+03
  1.08754E+04  4.40776E+02  8.28670E+03  5.58118E+03  1.69546E+03  7.95659E+03 -4.96663E+03  7.89886E+03
 -6.44798E+03  2.66381E+03 -3.20389E+03 -1.28942E+03  9.95391E+02 -1.81745E+03  4.46099E+03 -9.24392E+02
  4.29133E+03  3.12568E+03  1.16789E+03  5.85921E+03 -4.33927E+03  6.30919E+03 -7.35761E+03  1.58776E+03
 -4.29205E+03 -3.06804E+03  4.25210E+02 -6.05820E+03  3.66487E+03 -3.10352E+03  3.06092E+03  9.85036E+02
  5.37461E+02  2.76860E+03 -3.94805E+03  4.28615E+03 -4.21927E+03  2.04981E+03 -3.83329E+03 -9.03211E+02
 -2.57440E+03 -5.36451E+03  1.00362E+03 -6.28263E+03  5.38518E+03 -4.41288E+03  5.78357E+03  1.14896E+03
  4.00283E+03  4.94684E+03  2.09461E+02  6.68719E+03 -4.60720E+03  3.95983E+03 -4.80305E+03 -2.89470E+02
 -5.25113E+03 -4.86170E+03 -1.11409E+03 -4.62424E+03  2.16589E+03 -4.18200E+03  2.69680E+03 -2.88038E+03
  2.58061E+03 -8.50220E+01  1.82348E+02  1.39986E+03  6.41295E+02  1.40150E+02 -1.91539E+02 -1.34439E+03
  3.40670E+03 -3.54072E+02  4.59619E+03  6.93497E+02  4.97315E+03  2.41059E+03  4.87558E+03  6.12184E+03
 -1.11476E+03  7.16393E+03 -6.74752E+03  5.75273E+03 -8.60556E+03  1.21708E+03 -7.01359E+03 -2.00610E+03
 -3.46430E+03 -5.91877E+03 -5.30292E+02 -4.43247E+03  1.87939E+03 -1.79784E+03  1.67577E+03 -1.82299E+03
  1.02933E+03 -1.39911E+03  2.10289E+03 -2.32119E+03  3.32853E+03 -1.11230E+03  3.38205E+03  4.96870E+02
  4.30910E+03  1.26158E+03  4.25380E+02  3.18304E+03 -1.37137E+03  2.28401E+03 -3.76018E+03  2.09910E+03
 -4.21670E+03 -1.03970E+03 -1.16537E+03 -2.69663E+03  6.34639E+02 -4.12412E+03  2.72335E+03 -4.54449E+03
  4.40723E+03 -2.81397E+03  5.96157E+03  5.36623E+01  4.48447E+03  3.51557E+03  1.01540E+03  5.09910E+03
 -1.47764E+03  4.98904E+03 -2.48936E+03  1.53503E+03 -1.47125E+03 -1.01448E+03 -7.96411E+01 -6.65391E+02
 -3.21608E+02  4.70821E+02 -9.18883E+02  1.72551E+03 -2.52732E+03  8.63045E+02 -3.49043E+03 -3.21280E+02
 -1.26014E+03 -3.72173E+03  7.01280E+02 -3.81117E+03  2.32416E+03 -3.76288E+03  2.68017E+03 -9.48767E+02
  3.44471E+03  1.82632E+03  1.51632E+03  2.47004E+03 -5.19560E+02  3.64406E+03 -2.00618E+03  2.25683E+03
 -3.07449E+03  5.95734E+02 -2.90230E+03 -1.93156E+03 -8.29222E+00 -2.61051E+03  1.26744E+03 -2.36147E+03
  2.10412E+03 -1.34390E+03  1.49460E+03  4.13614E+02  2.48582E+02  1.49115E+03  9.05978E+02  4.92146E+02
  1.59829E+03  4.22451E+02  8.86424E+02  8.98063E+02  9.35883E+02  2.13242E+03  1.30742E+03  1.27038E+03
 -1.08428E+03  2.49075E+03 -1.75967E+03  3.57893E+03 -1.99028E+03  8.40546E+02 -3.21034E+03 -8.24582E+01
 -1.60850E+03 -2.59089E+03  5.07705E+02 -3.90044E+03  1.37595E+03 -2.05445E+03  2.17404E+03 -1.04873E+03
  2.01281E+03  1.45232E+03  1.75130E+02  1.81896E+03 -5.06225E+02  7.48987E+02 -7.66232E+02 -1.71046E+02
 -3.89018E+02 -9.28735E+02  1.01260E+03 -1.24015E+03  8.04487E+02 -6.67413E+02  8.26464E+02  2.61491E+02
  4.30762E+02  1.72766E+02  6.52841E+02 -5.41902E+02 -2.43899E+02  5.95115E+02  1.46343E+03 -1.51058E+02
  5.70120E+01 -2.58799E+02  1.59445E+03  5.69243E+02 -1.69322E+01  1.84913E+03 -3.45882E+02  2.23121E+03
 -1.43048E+03  8.12598E+02 -1.37549E+03  4.90409E+02 -1.64275E+03 -5.44611E+02  7.43211E+01 -3.85796E+02
  4.46432E+02 -8.28828E+02  1.00286E+03 -5.57307E+02  3.90816E+02  1.12890E+03 -7.91321E+02  9.87757E+02
 -1.28486E+03  6.19647E+02 -6.33092E+02 -1.23477E+03 -4.33084E+02 -1.86422E+03  1.16677E+02 -1.00972E+03
  3.14864E+02 -2.22414E+01  3.78672E+02  2.19777E+02  1.05822E+03  5.60040E+00  2.00724E+02  8.49152E+02
 -4.01570E+02 -1.03900E+02 -3.82242E+02  1.20592E+02  8.17454E+02 -4.42168E+02  1.39904E+03 -5.91884E+02
  5.68461E+02  4.12195E+00  2.02509E+03  3.58814E+02  9.24449E+02  9.68648E+02  1.46933E+01  1.42612E+03
 -9.51217E+02  1.81584E+01 -9.79843E+02 -1.93037E+01 -6.68134E+02 -1.12740E+03  2.91410E+02 -2.13003E+02
  1.18628E+03 -7.43336E+02  4.24626E+02  4.45645E+02  1.15018E+02  8.11791E+02  1.68604E+02  9.48833E+02
 -2.65300E+02  1.10543E+03 -1.96347E+02  1.21860E+02  3.11357E+02  3.36951E+02 -5.96934E+02  4.17417E+02
 -5.47038E+02  9.89300E+02 -1.73910E+03  7.36518E+01 -1.36687E+03  4.04965E+01 -1.96453E+03 -4.16262E+02
 -7.78282E+02 -1.78189E+03  2.69029E+02 -1.93825E+03  5.16887E+02 -1.72059E+03  2.00151E+03 -6.94977E+02
  1.59527E+03 -5.02135E+02  8.04081E+02  1.22565E+03 -4.56842E+02  9.22037E+02 -4.68975E+02  7.80322E+02
 -3.74944E+02  4.33330E+02 -1.64462E+02 -8.34371E+01 -4.85060E+02  2.73127E+02 -6.67568E+02  1.59559E+02
 -1.09095E+03 -3.56937E+01 -8.83820E+02  5.91544E+01  1.80882E+02 -5.39978E+02 -5.04821E+02 -9.33554E+02
  8.93450E+02 -2.84663E+02  9.99496E+01  3.53759E+02  8.98102E+02  8.12921E+02 -4.22293E+02  8.28918E+02
 -7.65357E+02  1.80631E+03 -9.50581E+02  1.01924E+03 -1.20002E+03 -1.55765E+02 -9.48681E+02 -6.99485E+02
 -8.41250E+02 -7.68016E+02 -2.87446E+00 -1.04798E+03  3.50611E+02 -2.22383E+02  1.52196E+02  4.88359E+01
  6.75482E+02 -2.83995E+01  1.20909E+02 -7.19093E+01 -2.70051E+02 -2.55084E+01 -2.03012E+02 -1.70653E+02
  5.26663E+02  1.75603E+02  6.51767E+01  3.61940E+02 -9.20406E+01 -1.54366E+01  6.25552E+02  1.44537E+02
 -3.09256E+02  2.24997E+02 -2.50670E+02 -3.17895E+01 -3.54241E+02 -8.49004E+01  3.89039E+01 -7.45537E+02
  3.82975E+02 -3.36681E+02  7.23979E+01  1.31443E+02  4.44432E+02 -6.69876E+02 -5.90561E+00  5.18015E+02
  3.97961E+02  9.69635E+01  4.50219E+01  3.55489E+02 -4.20642E+02  5.70165E+02 -1.06240E+02  1.41704E+02
 -2.70675E+02 -4.20613E+01 -3.54993E+02  7.15724E+01 -4.06913E+02  2.16370E+02 -5.66733E+02 -4.58473E+02
 -7.37099E+02  3.52780E+02 -2.67613E+01 -4.26742E+02  5.41587E+02 -1.33106E+03  4.86186E+02  5.61720E+01
  4.37047E+02 -6.63822E+00 -6.39439E+02  2.35834E+02 -6.03895E+01  3.85722E+02 -2.80584E+02  2.89807E+02
