 $NMID ID='MM_0lb_SNR800_7hz_g55_54.RAW', FMTDAT='(8E13.5)'
 TRAMP=1., VOLUME=1. $END
  3.09860E+05  3.49068E+02  3.38261E+05  2.50799E+05  8.53507E+04  3.38518E+05 -1.32900E+05  2.51853E+05
 -1.91539E+05  8.43207E+04 -1.13190E+05 -3.23549E+04 -4.65715E+02 -5.10461E+04  5.37167E+04 -6.50618E+02
  3.57025E+04  5.29425E+04 -1.67447E+04  7.64232E+04 -6.12739E+04  6.46291E+04 -8.59456E+04  3.30055E+04
 -8.33544E+04 -1.17621E+04 -5.86797E+04 -5.26263E+04 -1.53021E+04 -7.19606E+04  2.83052E+04 -4.71141E+04
  4.16136E+04  3.30498E+03  1.71611E+04  4.89729E+04 -3.52725E+04  4.87370E+04 -6.90283E+04  1.54256E+02
 -5.56054E+04 -5.79781E+04 -7.75017E+03 -7.97664E+04  3.53339E+04 -5.74870E+04  5.05177E+04 -1.84505E+04
  4.57601E+04  1.11503E+04  3.33605E+04  2.72617E+04  1.60373E+04  3.14880E+04 -6.58518E+03  2.81093E+04
 -2.25183E+04  1.22926E+04 -1.79771E+04 -6.14780E+03  7.44693E+03 -7.24284E+03  2.36992E+04  1.43938E+04
  7.16007E+03  3.84426E+04 -3.49576E+04  3.76819E+04 -6.69988E+04  2.11294E+03 -5.94642E+04 -4.57067E+04
 -1.29348E+04 -6.70879E+04  4.21381E+04 -4.82377E+04  6.28204E+04 -2.65111E+03  3.81717E+04  3.53181E+04
 -4.78501E+03  4.13205E+04 -3.31657E+04  2.03180E+04 -3.47404E+04 -2.94469E+03 -2.01748E+04 -1.22419E+04
 -9.87139E+03 -1.58746E+04  9.30573E+01 -2.10520E+04  8.93668E+03 -2.36876E+04  1.65986E+04 -1.23037E+04
  1.01990E+04  6.45252E+03 -1.18569E+04  1.26337E+04 -2.39780E+04 -7.74229E+03 -8.13976E+03 -3.93069E+04
  2.62055E+04 -4.81404E+04  5.42638E+04 -2.14080E+04  5.03746E+04  2.15129E+04  1.84350E+04  4.84463E+04
 -1.70348E+04  3.73751E+04 -2.93550E+04  3.04752E+03 -1.25121E+04 -3.05285E+04  2.19358E+04 -3.86062E+04
  4.66663E+04 -1.20383E+04  4.26387E+04  2.55265E+04  2.28174E+04  5.36531E+04 -8.90272E+03  5.89512E+04
 -3.74175E+04  4.03484E+04 -5.03606E+04  1.20627E+04 -5.02538E+04 -1.92668E+04 -2.73660E+04 -4.41963E+04
  7.99732E+03 -4.37225E+04  3.56292E+04 -1.85654E+04  3.41750E+04  1.12491E+04  5.74170E+03  2.14638E+04
 -1.41357E+04  1.00681E+04 -1.17646E+04 -7.29698E+03  5.01045E+03 -1.18894E+04  1.95258E+04  5.06991E+03
  1.55150E+04  2.27295E+04 -4.85364E+03  2.79662E+04 -2.38566E+04  1.54834E+04 -3.37445E+04 -2.03262E+03
 -2.72521E+04 -1.94542E+04 -1.33292E+04 -2.74787E+04  4.33039E+03 -2.88959E+04  2.12067E+04 -2.63119E+04
  3.50875E+04 -1.51791E+04  4.07660E+04  5.89466E+03  2.88945E+04  2.64873E+04  4.39028E+03  4.38714E+04
 -2.07485E+04  3.56605E+04 -3.19972E+04  1.23491E+04 -2.30372E+04 -1.07171E+04 -5.13774E+03 -1.27002E+04
  1.80961E+02 -5.70845E+02 -9.12718E+03  9.24390E+03 -2.22085E+04  4.64312E+03 -2.19690E+04 -1.08048E+04
 -1.29639E+04 -2.53557E+04  6.60360E+03 -3.02965E+04  2.09003E+04 -2.15797E+04  2.47995E+04 -1.86316E+03
  1.63425E+04  1.78046E+04 -1.61614E+03  2.53216E+04 -1.85487E+04  1.48689E+04 -2.60161E+04 -5.28257E+03
 -1.93102E+04 -2.29638E+04 -2.54957E+03 -3.10107E+04  1.36481E+04 -2.56459E+04  2.49163E+04 -1.33816E+04
  2.40490E+04 -7.49078E+02  1.70528E+04  5.47115E+03  9.85831E+03  1.66260E+03  1.34409E+04 -2.41423E+03
  2.46722E+04  3.23508E+03  2.84586E+04  2.00492E+04  1.98139E+04  4.10306E+04 -2.29839E+03  4.97101E+04
 -2.82977E+04  4.22426E+04 -4.71324E+04  2.21886E+04 -5.03344E+04 -3.54985E+03 -4.07149E+04 -3.00867E+04
 -1.58221E+04 -4.24551E+04  1.46844E+04 -3.63652E+04  3.13989E+04 -1.70307E+04  2.69801E+04  9.20566E+03
  8.40431E+03  2.14315E+04 -1.29011E+04  1.72531E+04 -2.23871E+04  2.41547E+03 -1.71274E+04 -1.43512E+04
 -9.03888E+02 -2.11538E+04  1.15418E+04 -1.58765E+04  1.55434E+04 -1.22185E+03  4.15443E+03  1.00397E+04
 -9.35034E+03  4.85191E+03 -1.09247E+04 -7.49935E+03 -2.68157E+03 -2.05497E+04  1.32248E+04 -2.29656E+04
  2.60313E+04 -1.34162E+04  3.04202E+04  3.39110E+03  2.66298E+04  2.12469E+04  1.23879E+04  3.37041E+04
 -6.86786E+03  3.60499E+04 -2.41539E+04  2.25868E+04 -2.65696E+04  4.35370E+03 -1.75274E+04 -7.07887E+03
 -7.44539E+03 -8.46059E+03 -8.58473E+02 -2.86457E+02 -2.82288E+03  3.94433E+03 -9.11272E+03  6.00242E+03
 -1.60221E+04 -8.66557E+02 -1.65747E+04 -1.32953E+04 -6.93907E+03 -2.22431E+04  7.19865E+03 -1.84226E+04
  1.51493E+04 -7.60705E+03  1.07811E+04  5.10933E+03 -8.04579E+02  7.50639E+03 -9.33532E+03 -1.78780E+02
 -8.89071E+03 -1.15060E+04 -1.22694E+03 -1.85850E+04  1.09515E+04 -1.90488E+04  2.31816E+04 -1.05998E+04
  2.71417E+04  3.08424E+03  2.00658E+04  1.69993E+04  3.54369E+03  2.24801E+04 -1.08313E+04  1.79096E+04
 -1.49237E+04  5.36208E+03 -7.90572E+03 -3.93180E+03  2.83257E+03 -5.50093E+03  9.51134E+03 -1.10266E+03
  8.46993E+03  8.18102E+03  1.08645E+03  1.49438E+04 -1.06044E+04  1.43059E+04 -1.85418E+04  3.34566E+03
 -1.29110E+04 -9.68041E+03 -2.84395E+01 -1.58249E+04  1.09555E+04 -8.50445E+03  1.09780E+04  4.34456E+03
  3.30932E+03  1.27883E+04 -9.65505E+03  1.45586E+04 -1.68469E+04  6.25082E+03 -1.76922E+04 -6.44620E+03
 -9.70515E+03 -1.94038E+04  5.07183E+03 -2.21019E+04  1.85737E+04 -1.33619E+04  2.09887E+04  3.58334E+03
  1.15687E+04  1.61619E+04 -2.74485E+03  1.88010E+04 -1.42155E+04  1.04935E+04 -1.53914E+04 -1.03914E+03
 -1.23761E+04 -1.26917E+04 -1.71810E+03 -1.49481E+04  7.90099E+03 -1.13594E+04  9.47004E+03 -4.03222E+03
  6.13705E+03  2.84149E+03 -1.30946E+03  1.74757E+03 -1.04376E+03 -4.47907E+03  3.90901E+03 -9.33176E+03
  1.42296E+04 -6.46184E+03  2.04077E+04  1.73125E+03  1.95734E+04  1.44737E+04  1.18621E+04  2.58775E+04
 -6.30039E+03  2.98136E+04 -2.48277E+04  2.20466E+04 -3.18742E+04  4.24319E+03 -2.58424E+04 -1.11766E+04
 -1.27478E+04 -2.12944E+04 -1.17245E+02 -1.86706E+04  6.88825E+03 -1.03957E+04  7.11415E+03 -6.29210E+03
  4.28393E+03 -3.60992E+03  4.44015E+03 -4.56885E+03  6.91164E+03 -4.40952E+03  9.71424E+03 -2.02097E+03
  1.40787E+04  2.94963E+03  7.75238E+03  1.20294E+04 -2.29789E+03  1.46032E+04 -1.40931E+04  1.09048E+04
 -1.84743E+04 -1.81751E+03 -1.26045E+04 -1.32151E+04 -1.52858E+03 -2.02287E+04  1.10344E+04 -2.02293E+04
  2.14111E+04 -1.11377E+04  2.44798E+04  3.42833E+03  1.73393E+04  1.76683E+04  2.53324E+03  2.25907E+04
 -9.39364E+03  1.79945E+04 -1.34971E+04  6.30279E+03 -9.57712E+03 -1.94491E+03 -4.33142E+03 -2.96537E+03
 -1.60280E+03 -6.11384E+02 -2.49279E+03  3.39785E+03 -7.27043E+03  3.15640E+03 -1.27077E+04 -1.78295E+03
 -9.47011E+03 -1.26429E+04 -6.66861E+02 -1.88962E+04  1.21009E+04 -1.78269E+04  1.94265E+04 -5.45247E+03
  1.88212E+04  8.93344E+03  8.73145E+03  1.70931E+04 -3.46563E+03  1.93845E+04 -1.42333E+04  1.23612E+04
 -1.82988E+04  3.64037E+02 -1.40250E+04 -1.21291E+04 -1.43554E+03 -1.62422E+04  8.40853E+03 -1.19670E+04
  1.25232E+04 -3.10563E+03  8.72671E+03  3.47049E+03  3.18958E+03  5.38095E+03  1.85892E+03  2.68468E+03
  3.33983E+03  1.89557E+03  4.56055E+03  2.14089E+03  5.90974E+03  6.44568E+03  4.75697E+03  1.08574E+04
 -3.43440E+03  1.55698E+04 -1.41226E+04  1.48050E+04 -2.11294E+04  3.90508E+03 -2.07662E+04 -9.20407E+03
 -1.06861E+04 -2.04267E+04  2.73624E+03 -2.20603E+04  1.19843E+04 -1.44422E+04  1.65471E+04 -3.71739E+03
  1.26598E+04  7.38611E+03  2.86513E+03  1.16194E+04 -6.05645E+03  7.91192E+03 -8.34542E+03 -1.29306E+03
 -4.22791E+03 -8.63536E+03  4.82319E+03 -8.97729E+03  8.54452E+03 -4.28527E+03  8.47258E+03  1.59883E+03
  4.89082E+03  4.67052E+03  1.58545E+03  4.48111E+03 -1.03816E+03  2.78534E+03  1.89867E+03 -7.52825E+02
  3.88430E+03 -1.55874E+03  8.57081E+03  3.51941E+03  5.36827E+03  1.07023E+04 -2.02020E+03  1.43332E+04
 -9.90402E+03  9.90696E+03 -1.35405E+04  2.70556E+03 -1.15742E+04 -4.61263E+03 -4.87307E+03 -8.06808E+03
  1.33118E+03 -8.36706E+03  5.79844E+03 -3.68922E+03  5.01506E+03  3.63509E+03 -2.37400E+03  7.03778E+03
 -8.92706E+03  4.27434E+03 -1.00507E+04 -4.60666E+03 -5.38965E+03 -1.16908E+04  1.87007E+03 -1.18883E+04
  6.93722E+03 -7.30254E+03  8.96406E+03 -9.57313E+02  7.29001E+03  3.82885E+03  7.04290E+02  6.11854E+03
 -4.49918E+03  2.56572E+03 -5.42057E+03 -4.24051E+03  1.90736E+03 -9.19460E+03  1.02629E+04 -7.87655E+03
  1.39751E+04  1.15320E+03  1.29353E+04  9.58048E+03  3.74839E+03  1.47763E+04 -4.88145E+03  1.33943E+04
 -1.14317E+04  6.16542E+03 -1.24201E+04 -1.76452E+03 -6.42765E+03 -9.28348E+03  2.17034E+03 -9.29676E+03
  8.48528E+03 -4.02341E+03  7.62132E+03  3.47626E+03  2.45886E+03  7.72095E+03 -1.73375E+03  6.88488E+03
 -3.58569E+03  4.35382E+03 -3.31555E+03  1.17516E+03 -1.95761E+03  1.34590E+03 -2.24411E+03  2.76595E+03
 -3.78999E+03  5.20508E+03 -9.45376E+03  5.15148E+03 -1.45279E+04  2.54412E+02 -1.62928E+04 -9.83105E+03
 -8.55319E+03 -1.91885E+04  3.36621E+03 -2.22524E+04  1.41140E+04 -1.66006E+04  2.04316E+04 -7.14961E+03
  1.95844E+04  4.42955E+03  1.25121E+04  1.36762E+04  1.83476E+03  1.49819E+04 -6.06469E+03  1.12200E+04
 -8.50546E+03  3.86346E+03 -5.27702E+03 -1.73955E+03 -1.70333E+03 -1.86382E+03 -7.47471E+02 -1.26693E+02
 -2.16939E+03  3.86118E+02 -2.96685E+03 -4.80215E+02 -1.19890E+03 -3.87526E+03  2.20177E+02 -5.99988E+03
  6.27668E+03 -4.73781E+03  1.01175E+04 -4.93808E+01  1.08821E+04  8.41675E+03  3.23966E+03  1.53501E+04
 -7.28046E+03  1.73512E+04 -1.63117E+04  1.02100E+04 -1.90170E+04 -1.24255E+03 -1.41808E+04 -1.11427E+04
 -6.07217E+03 -1.59592E+04  4.23293E+03 -1.46069E+04  1.08135E+04 -7.81635E+03  1.01597E+04  5.06599E+02
  5.43073E+03  5.12888E+03 -4.92945E+02  4.40520E+03 -2.79080E+03 -7.40780E+01 -9.58762E+01 -3.64642E+03
  4.45334E+03 -2.70705E+03  6.58041E+03  2.02243E+03  4.93807E+03  6.57255E+03 -1.40788E+02  8.69956E+03
 -7.59642E+03  7.37276E+03 -1.09785E+04  1.25828E+03 -9.67833E+03 -7.75793E+03 -1.69673E+03 -1.29248E+04
  7.03103E+03 -1.09153E+04  1.24748E+04 -3.61443E+03  1.23352E+04  3.15845E+03  7.09355E+03  9.74738E+03
  1.43705E+03  1.08604E+04 -4.15329E+03  9.05222E+03 -7.06238E+03  4.74144E+03 -5.38662E+03  4.17414E+02
 -3.18982E+03 -3.78637E+02 -2.76490E+03  1.71426E+03 -5.22005E+03  1.69210E+03 -8.81268E+03 -1.49120E+03
 -7.90752E+03 -5.84318E+03 -2.74820E+03 -1.11160E+04  5.26402E+03 -1.12098E+04  9.75975E+03 -5.10189E+03
  1.11055E+04  1.82653E+03  6.53857E+03  7.60850E+03 -1.13924E+03  1.05223E+04 -8.28135E+03  6.84333E+03
