 $NMID ID='MM_0lb_SNR800_8hz_g55_88.RAW', FMTDAT='(8E13.5)'
 TRAMP=1., VOLUME=1. $END
  3.10177E+05  4.85885E+02  3.38415E+05  2.50974E+05  8.49651E+04  3.38945E+05 -1.33083E+05  2.52380E+05
 -1.91136E+05  8.41920E+04 -1.12858E+05 -3.24955E+04  4.55626E+02 -5.07857E+04  5.40263E+04 -8.96032E+02
  3.57893E+04  5.25572E+04 -1.69591E+04  7.66359E+04 -6.12187E+04  6.45581E+04 -8.55344E+04  3.29868E+04
 -8.29900E+04 -1.19757E+04 -5.83842E+04 -5.28921E+04 -1.51097E+04 -7.14478E+04  2.85685E+04 -4.66351E+04
  4.20307E+04  4.11698E+03  1.68557E+04  4.91848E+04 -3.46233E+04  4.84953E+04 -6.86510E+04 -8.27001E+00
 -5.51412E+04 -5.82812E+04 -7.64252E+03 -7.94556E+04  3.53660E+04 -5.77190E+04  5.03764E+04 -1.85979E+04
  4.53611E+04  1.13498E+04  3.35374E+04  2.70955E+04  1.57982E+04  3.12004E+04 -6.36305E+03  2.81220E+04
 -2.26398E+04  1.15789E+04 -1.81056E+04 -6.15998E+03  7.21333E+03 -7.79231E+03  2.39977E+04  1.40379E+04
  7.64524E+03  3.83574E+04 -3.46949E+04  3.75215E+04 -6.64677E+04  1.81357E+03 -5.94616E+04 -4.52308E+04
 -1.24026E+04 -6.62226E+04  4.18815E+04 -4.81949E+04  6.22944E+04 -2.45661E+03  3.76207E+04  3.47216E+04
 -5.30705E+03  4.02572E+04 -3.24370E+04  1.95673E+04 -3.40862E+04 -2.97209E+03 -2.04643E+04 -1.18690E+04
 -9.93668E+03 -1.58322E+04 -5.05184E+02 -2.04860E+04  8.81732E+03 -2.31014E+04  1.62533E+04 -1.18179E+04
  1.00623E+04  6.39779E+03 -1.10002E+04  1.29741E+04 -2.39151E+04 -7.09440E+03 -8.61813E+03 -3.86902E+04
  2.54263E+04 -4.81275E+04  5.31493E+04 -2.12430E+04  4.97108E+04  2.14826E+04  1.78584E+04  4.81394E+04
 -1.69147E+04  3.69595E+04 -2.81860E+04  2.73480E+03 -1.20305E+04 -2.99692E+04  2.14912E+04 -3.77860E+04
  4.56655E+04 -1.15897E+04  4.16402E+04  2.56561E+04  2.21284E+04  5.27344E+04 -8.31168E+03  5.80716E+04
 -3.70795E+04  3.95725E+04 -4.92822E+04  1.14170E+04 -4.95071E+04 -1.92853E+04 -2.69187E+04 -4.33737E+04
  7.80730E+03 -4.33270E+04  3.53163E+04 -1.73877E+04  3.25570E+04  1.13646E+04  5.32756E+03  2.07846E+04
 -1.40288E+04  1.04513E+04 -1.15580E+04 -7.18114E+03  5.93447E+03 -1.16162E+04  1.90578E+04  5.25682E+03
  1.56224E+04  2.32692E+04 -5.14396E+03  2.79359E+04 -2.39971E+04  1.53128E+04 -3.23544E+04 -2.18683E+03
 -2.67013E+04 -1.88629E+04 -1.25664E+04 -2.65894E+04  4.19321E+03 -2.75132E+04  2.07762E+04 -2.43765E+04
  3.39644E+04 -1.43370E+04  3.97513E+04  5.10522E+03  2.79278E+04  2.57205E+04  4.37345E+03  4.28052E+04
 -2.03164E+04  3.49478E+04 -3.14814E+04  1.23490E+04 -2.29583E+04 -1.03647E+04 -4.88731E+03 -1.31095E+04
  1.54355E+02 -9.26787E+02 -8.10651E+03  8.55499E+03 -2.19136E+04  5.31033E+03 -2.11911E+04 -1.03931E+04
 -1.20402E+04 -2.46369E+04  5.88345E+03 -2.92900E+04  1.98478E+04 -2.05246E+04  2.40176E+04 -1.96306E+03
  1.55391E+04  1.69152E+04 -1.53074E+03  2.45786E+04 -1.77249E+04  1.43989E+04 -2.52605E+04 -4.87743E+03
 -1.80701E+04 -2.25432E+04 -2.02958E+03 -2.92442E+04  1.33085E+04 -2.48132E+04  2.42653E+04 -1.26780E+04
  2.33504E+04 -3.02049E+02  1.69409E+04  5.44667E+03  9.86842E+03  1.50912E+03  1.32308E+04 -2.26106E+03
  2.37140E+04  2.63626E+03  2.71328E+04  1.91752E+04  1.85693E+04  3.99278E+04 -2.53130E+03  4.75851E+04
 -2.71946E+04  4.00255E+04 -4.51558E+04  2.10580E+04 -4.83017E+04 -3.31967E+03 -3.88522E+04 -2.83555E+04
 -1.49329E+04 -4.03703E+04  1.47104E+04 -3.52204E+04  3.00106E+04 -1.64905E+04  2.58611E+04  8.31018E+03
  8.38368E+03  2.01533E+04 -1.23147E+04  1.64774E+04 -2.16233E+04  2.69629E+03 -1.61769E+04 -1.37826E+04
 -3.20494E+02 -2.04989E+04  1.14877E+04 -1.48506E+04  1.40701E+04 -1.16822E+03  4.01413E+03  9.60562E+03
 -8.92955E+03  4.54351E+03 -1.01222E+04 -7.84047E+03 -2.64133E+03 -1.94504E+04  1.29151E+04 -2.18023E+04
  2.49151E+04 -1.28344E+04  2.89205E+04  3.37504E+03  2.53425E+04  2.04348E+04  1.12783E+04  3.18104E+04
 -6.08264E+03  3.36314E+04 -2.28619E+04  2.09714E+04 -2.49364E+04  4.33987E+03 -1.68859E+04 -7.23843E+03
 -7.18302E+03 -8.00353E+03 -6.18498E+02  1.17417E+02 -3.26287E+03  4.49814E+03 -8.06678E+03  6.01209E+03
 -1.50365E+04 -1.09029E+03 -1.61540E+04 -1.29334E+04 -6.14807E+03 -2.10288E+04  7.02814E+03 -1.74859E+04
  1.39756E+04 -6.86756E+03  9.87154E+03  4.36705E+03 -6.57699E+02  6.95359E+03 -8.47493E+03 -2.43630E+02
 -8.42039E+03 -1.08585E+04 -7.67052E+02 -1.70980E+04  1.00408E+04 -1.82577E+04  2.17321E+04 -9.42982E+03
  2.57892E+04  2.59868E+03  1.90005E+04  1.64230E+04  3.84127E+03  2.09118E+04 -1.07811E+04  1.70915E+04
 -1.34451E+04  5.05655E+03 -6.93949E+03 -3.75125E+03  2.58075E+03 -5.06544E+03  8.93534E+03 -6.42816E+02
  8.21391E+03  7.77670E+03  1.28010E+03  1.44237E+04 -1.01791E+04  1.33567E+04 -1.69865E+04  3.08393E+03
 -1.20694E+04 -9.22749E+03  2.49998E+01 -1.50981E+04  1.01667E+04 -7.31044E+03  1.11692E+04  4.21388E+03
  2.70117E+03  1.14540E+04 -8.90986E+03  1.33400E+04 -1.56984E+04  5.58895E+03 -1.58881E+04 -5.80323E+03
 -8.98738E+03 -1.78553E+04  4.21738E+03 -2.04589E+04  1.76141E+04 -1.23890E+04  1.91904E+04  3.41305E+03
  1.12067E+04  1.48330E+04 -1.90319E+03  1.78276E+04 -1.31454E+04  9.92955E+03 -1.42122E+04 -1.25646E+03
 -1.19395E+04 -1.18415E+04 -1.87624E+03 -1.30907E+04  7.25735E+03 -1.07229E+04  8.54432E+03 -3.60129E+03
  5.38362E+03  3.05179E+03 -1.32453E+03  1.88014E+03 -1.26629E+03 -3.91039E+03  3.29426E+03 -8.54047E+03
  1.31775E+04 -5.52661E+03  1.85011E+04  2.49254E+03  1.81025E+04  1.27739E+04  1.11585E+04  2.38436E+04
 -5.88893E+03  2.71771E+04 -2.25991E+04  1.96144E+04 -2.88486E+04  3.97262E+03 -2.35093E+04 -1.06973E+04
 -1.20788E+04 -1.96593E+04 -4.11337E+02 -1.68288E+04  5.46502E+03 -9.40200E+03  6.10403E+03 -6.14380E+03
  4.37757E+03 -3.22680E+03  4.37170E+03 -4.09911E+03  6.00678E+03 -3.93185E+03  8.78929E+03 -1.91908E+03
  1.17984E+04  2.85639E+03  6.97646E+03  1.07134E+04 -2.50006E+03  1.26685E+04 -1.26320E+04  1.01433E+04
 -1.66801E+04 -1.58857E+03 -1.15442E+04 -1.17136E+04 -1.45921E+03 -1.82970E+04  9.92932E+03 -1.83324E+04
  1.91521E+04 -9.93819E+03  2.26551E+04  3.32015E+03  1.56643E+04  1.57939E+04  2.63009E+03  2.05215E+04
 -8.46505E+03  1.60793E+04 -1.21173E+04  5.41126E+03 -8.34691E+03 -1.78594E+03 -3.89515E+03 -2.42211E+03
 -1.52817E+03  1.53019E+02 -2.38420E+03  3.14758E+03 -6.91625E+03  2.86680E+03 -1.17498E+04 -2.34186E+03
 -8.27674E+03 -1.17210E+04 -2.51913E+02 -1.71273E+04  1.07461E+04 -1.57401E+04  1.74650E+04 -4.77412E+03
  1.72540E+04  8.29793E+03  7.91262E+03  1.50710E+04 -3.29432E+03  1.73719E+04 -1.26925E+04  1.07111E+04
 -1.58308E+04  2.19887E+02 -1.27233E+04 -1.07335E+04 -1.45231E+03 -1.40267E+04  7.25220E+03 -1.02094E+04
  1.07460E+04 -3.02525E+03  7.25688E+03  3.02298E+03  2.44381E+03  5.39902E+03  1.80360E+03  2.52427E+03
  2.86357E+03  1.09398E+03  3.97247E+03  2.10610E+03  4.87953E+03  5.84778E+03  4.68864E+03  9.71483E+03
 -3.64513E+03  1.38784E+04 -1.26923E+04  1.35598E+04 -1.80939E+04  4.01345E+03 -1.85848E+04 -7.97433E+03
 -8.74004E+03 -1.81977E+04  2.59108E+03 -1.89713E+04  1.07550E+04 -1.23925E+04  1.46943E+04 -3.33114E+03
  1.08639E+04  7.02973E+03  2.77802E+03  1.00211E+04 -4.66077E+03  6.44822E+03 -7.18239E+03 -1.20962E+03
 -3.26467E+03 -7.63301E+03  3.98263E+03 -7.60880E+03  7.13980E+03 -3.75561E+03  7.46573E+03  1.53593E+03
  3.55021E+03  3.69894E+03  1.51447E+03  3.21769E+03 -7.83836E+02  2.62189E+03  1.89800E+03 -8.19764E+02
  3.09931E+03 -1.05708E+03  6.91263E+03  3.45450E+03  4.45850E+03  9.24316E+03 -1.45681E+03  1.25579E+04
 -8.64201E+03  8.58521E+03 -1.14166E+04  2.31806E+03 -1.03033E+04 -4.11709E+03 -4.43745E+03 -7.64632E+03
  7.83771E+02 -7.38807E+03  4.78044E+03 -3.40717E+03  3.60938E+03  3.57675E+03 -1.55047E+03  6.28250E+03
 -7.63225E+03  3.75866E+03 -8.68576E+03 -4.36751E+03 -4.99140E+03 -9.56776E+03  1.63112E+03 -1.02274E+04
  6.17578E+03 -6.42968E+03  8.10936E+03 -9.10716E+02  5.83155E+03  2.60518E+03  1.09471E+03  5.60620E+03
 -3.82492E+03  1.72170E+03 -4.33908E+03 -3.76182E+03  1.82496E+03 -7.77949E+03  9.29540E+03 -6.82658E+03
  1.22188E+04  1.11998E+03  1.13404E+04  8.06781E+03  3.52745E+03  1.26595E+04 -4.49344E+03  1.18923E+04
 -9.96519E+03  5.49921E+03 -1.09410E+04 -1.58568E+03 -5.56356E+03 -7.85831E+03  1.86154E+03 -7.70309E+03
  7.42314E+03 -3.27740E+03  6.49230E+03  3.52647E+03  2.35075E+03  6.75978E+03 -1.09794E+03  5.65832E+03
 -3.28150E+03  3.89831E+03 -3.04855E+03  1.30990E+03 -1.49907E+03  1.39484E+03 -1.60970E+03  2.70793E+03
 -3.36340E+03  4.70227E+03 -8.48805E+03  4.45469E+03 -1.27002E+04  3.67182E+02 -1.34462E+04 -8.40980E+03
 -7.33983E+03 -1.65258E+04  3.08940E+03 -1.92950E+04  1.16051E+04 -1.47068E+04  1.81483E+04 -5.85201E+03
  1.68325E+04  3.78712E+03  1.05202E+04  1.18301E+04  9.17185E+02  1.32008E+04 -5.36841E+03  9.45162E+03
 -7.51328E+03  3.20294E+03 -4.65280E+03 -1.79591E+03 -1.44056E+03 -1.46314E+03 -9.12605E+02 -1.74558E+02
 -1.63245E+03  8.52860E+02 -2.78141E+03 -5.59942E+02 -1.10642E+03 -3.00938E+03  3.99798E+02 -4.54000E+03
  6.25464E+03 -3.86673E+03  8.10808E+03  2.05219E+02  9.28347E+03  6.75643E+03  2.50097E+03  1.31712E+04
 -5.96135E+03  1.50985E+04 -1.36508E+04  8.29177E+03 -1.59773E+04 -1.84200E+03 -1.19387E+04 -9.71761E+03
 -4.76249E+03 -1.34100E+04  3.26876E+03 -1.25285E+04  8.84122E+03 -6.88046E+03  8.49821E+03  4.04278E+02
  4.87610E+03  4.59857E+03 -2.80576E+02  3.83432E+03 -2.71196E+03 -4.16106E+02  1.80815E+02 -2.92111E+03
  3.87839E+03 -1.79248E+03  5.09037E+03  1.76714E+03  3.48164E+03  5.31795E+03  3.04558E+01  6.97142E+03
 -5.55932E+03  6.13781E+03 -9.14875E+03  4.67916E+02 -7.82927E+03 -6.33581E+03 -1.07169E+03 -1.12131E+04
  6.34168E+03 -9.45935E+03  1.01006E+04 -2.88352E+03  1.02393E+04  2.61108E+03  6.23232E+03  8.14453E+03
  7.09989E+02  9.03641E+03 -3.44814E+03  6.73353E+03 -5.86738E+03  3.93684E+03 -4.72852E+03  6.97460E+02
 -2.44543E+03 -6.53144E+02 -2.20892E+03  8.73255E+02 -4.83133E+03  1.61964E+03 -6.74894E+03 -1.34211E+03
 -6.63369E+03 -4.79878E+03 -1.73572E+03 -8.86335E+03  3.76698E+03 -9.46372E+03  7.94733E+03 -4.80622E+03
  8.69403E+03  1.43015E+03  5.26933E+03  6.27590E+03 -9.41700E+02  9.01406E+03 -6.95285E+03  5.69902E+03
