 $NMID ID='MM_0lb_SNR800_12hz_g45_74.RAW', FMTDAT='(8E13.5)'
 TRAMP=1., VOLUME=1. $END
  3.09830E+05  3.91341E+02  3.37587E+05  2.50827E+05  8.49681E+04  3.38209E+05 -1.32743E+05  2.51256E+05
 -1.90356E+05  8.37271E+04 -1.11784E+05 -3.27909E+04  6.68026E+02 -5.04938E+04  5.39381E+04 -3.42127E+02
  3.50562E+04  5.26867E+04 -1.68523E+04  7.57966E+04 -6.10216E+04  6.34680E+04 -8.46237E+04  3.21381E+04
 -8.14526E+04 -1.13795E+04 -5.72999E+04 -5.13323E+04 -1.47010E+04 -7.01709E+04  2.76644E+04 -4.60650E+04
  4.06015E+04  3.57957E+03  1.65100E+04  4.81075E+04 -3.44423E+04  4.73624E+04 -6.70706E+04  1.17433E+01
 -5.34203E+04 -5.70667E+04 -6.61441E+03 -7.77067E+04  3.41889E+04 -5.55955E+04  4.83497E+04 -1.74680E+04
  4.43716E+04  1.13358E+04  3.23229E+04  2.58896E+04  1.55696E+04  2.97376E+04 -5.00512E+03  2.71466E+04
 -2.20735E+04  1.20578E+04 -1.84459E+04 -5.20491E+03  5.89479E+03 -7.45888E+03  2.27735E+04  1.23998E+04
  6.91829E+03  3.61002E+04 -3.24408E+04  3.58584E+04 -6.41589E+04  2.10352E+03 -5.75072E+04 -4.34420E+04
 -1.22260E+04 -6.37093E+04  4.02075E+04 -4.59753E+04  5.92133E+04 -2.06218E+03  3.51285E+04  3.27430E+04
 -5.85313E+03  3.66567E+04 -3.04065E+04  1.68293E+04 -3.12532E+04 -4.51515E+03 -1.75825E+04 -1.13272E+04
 -9.00542E+03 -1.38327E+04 -6.44238E+02 -1.88087E+04  7.55284E+03 -2.29917E+04  1.52564E+04 -1.30790E+04
  1.12987E+04  5.59565E+03 -8.83380E+03  1.28656E+04 -2.16358E+04 -4.99177E+03 -8.66355E+03 -3.50078E+04
  2.34772E+04 -4.43541E+04  4.92566E+04 -1.99872E+04  4.62125E+04  2.00818E+04  1.66044E+04  4.50797E+04
 -1.60563E+04  3.41042E+04 -2.59348E+04  2.06156E+03 -9.83659E+03 -2.83759E+04  2.12059E+04 -3.47403E+04
  4.20999E+04 -9.37286E+03  3.69530E+04  2.44228E+04  1.89480E+04  4.80523E+04 -8.11447E+03  5.16984E+04
 -3.26946E+04  3.50303E+04 -4.38786E+04  1.01044E+04 -4.37523E+04 -1.70276E+04 -2.43697E+04 -3.92336E+04
  7.70175E+03 -3.90908E+04  3.22674E+04 -1.53722E+04  3.00184E+04  1.12442E+04  4.28427E+03  1.95161E+04
 -1.36632E+04  8.45106E+03 -1.04783E+04 -7.50169E+03  5.94435E+03 -1.09336E+04  1.84906E+04  6.22579E+03
  1.38078E+04  2.22029E+04 -5.85020E+03  2.58100E+04 -2.26193E+04  1.23041E+04 -2.89608E+04 -4.01777E+03
 -2.19714E+04 -1.76458E+04 -9.63072E+03 -2.17501E+04  4.18755E+03 -2.10733E+04  1.68592E+04 -1.94966E+04
  2.77344E+04 -1.30487E+04  3.39940E+04  3.47414E+03  2.46161E+04  2.10510E+04  4.42912E+03  3.79562E+04
 -1.83768E+04  3.14903E+04 -2.87203E+04  1.08248E+04 -2.12613E+04 -1.04443E+04 -4.77233E+03 -1.30492E+04
  1.41669E+03 -2.36666E+03 -6.06630E+03  7.22790E+03 -1.73612E+04  4.67817E+03 -1.70575E+04 -7.92691E+03
 -1.07116E+04 -2.04778E+04  5.45014E+03 -2.44994E+04  1.68341E+04 -1.75886E+04  1.93031E+04 -1.44659E+03
  1.22233E+04  1.36357E+04 -1.25345E+03  2.02142E+04 -1.42353E+04  1.09655E+04 -2.02454E+04 -3.89637E+03
 -1.50813E+04 -1.82419E+04 -2.12565E+03 -2.45162E+04  1.08871E+04 -2.02635E+04  2.05088E+04 -1.04468E+04
  1.90271E+04 -1.46119E+02  1.39122E+04  4.89427E+03  7.56112E+03  1.24396E+03  1.03311E+04 -1.98570E+03
  1.89714E+04  2.75979E+03  2.07768E+04  1.61673E+04  1.38438E+04  3.23400E+04 -2.84464E+03  3.71454E+04
 -2.16358E+04  3.03974E+04 -3.42664E+04  1.55579E+04 -3.64513E+04 -2.60761E+03 -3.01237E+04 -2.11547E+04
 -1.25166E+04 -3.04035E+04  1.08124E+04 -2.73438E+04  2.31960E+04 -1.35327E+04  2.05436E+04  5.68106E+03
  7.21954E+03  1.56579E+04 -9.98068E+03  1.31691E+04 -1.73778E+04  2.79944E+03 -1.32009E+04 -1.12970E+04
 -3.21935E+02 -1.62117E+04  8.71485E+03 -1.22716E+04  1.11309E+04 -9.88158E+02  2.75243E+03  7.21254E+03
 -7.37157E+03  2.77450E+03 -6.89779E+03 -5.82057E+03 -6.93241E+02 -1.48862E+04  1.00536E+04 -1.60484E+04
  1.84740E+04 -8.51510E+03  2.04394E+04  3.03240E+03  1.78748E+04  1.47181E+04  7.88185E+03  2.31198E+04
 -3.86801E+03  2.48380E+04 -1.58472E+04  1.56281E+04 -1.78542E+04  3.72867E+03 -1.25659E+04 -4.43170E+03
 -5.60021E+03 -5.81860E+03 -7.82196E+02  9.59103E+02 -2.85003E+03  3.14428E+03 -5.83580E+03  4.70393E+03
 -1.15862E+04 -6.38477E+02 -1.25971E+04 -1.01466E+04 -5.02261E+03 -1.63163E+04  5.21208E+03 -1.31465E+04
  1.01364E+04 -5.70978E+03  7.49080E+03  3.39420E+03 -2.87212E+01  4.94645E+03 -6.17565E+03  2.20182E+02
 -5.64457E+03 -7.92801E+03 -7.50401E+02 -1.22227E+04  6.84144E+03 -1.30329E+04  1.58472E+04 -6.57788E+03
  1.85229E+04  1.63500E+03  1.33091E+04  1.09450E+04  2.78084E+03  1.47427E+04 -7.77391E+03  1.24813E+04
 -1.03351E+04  3.59157E+03 -5.22186E+03 -2.40613E+03  1.93028E+03 -3.54034E+03  7.10058E+03 -1.07731E+03
  6.11123E+03  5.36778E+03  9.14932E+02  1.01816E+04 -7.05758E+03  9.74409E+03 -1.19125E+04  2.55933E+03
 -7.96019E+03 -6.27897E+03  3.01506E+02 -1.07203E+04  6.58081E+03 -5.78616E+03  6.81561E+03  2.33771E+03
  1.73742E+03  7.14869E+03 -6.54731E+03  8.51123E+03 -9.93061E+03  4.32362E+03 -1.03474E+04 -3.31547E+03
 -5.91468E+03 -1.13138E+04  2.73836E+03 -1.36255E+04  1.18067E+04 -8.35559E+03  1.24889E+04  1.92126E+03
  7.64678E+03  9.65304E+03 -6.83370E+02  1.20134E+04 -8.87404E+03  6.60227E+03 -9.57367E+03 -7.90763E+02
 -8.55798E+03 -7.88152E+03 -1.80112E+03 -9.23499E+03  4.74891E+03 -7.44285E+03  5.68297E+03 -2.85332E+03
  4.13168E+03  1.07518E+03 -7.82246E+02  1.64191E+03 -4.45271E+02 -2.07990E+03  1.45701E+03 -5.01369E+03
  8.08361E+03 -2.85626E+03  1.11011E+04  1.17718E+03  1.11654E+04  7.39135E+03  8.17989E+03  1.50898E+04
 -3.33076E+03  1.73713E+04 -1.44460E+04  1.28073E+04 -1.85978E+04  2.51420E+03 -1.48790E+04 -6.09346E+03
 -7.57725E+03 -1.24164E+04 -5.45618E+02 -1.03780E+04  3.97791E+03 -5.68370E+03  3.74345E+03 -3.85164E+03
  2.55504E+03 -2.18056E+03  3.06930E+03 -3.39416E+03  4.48375E+03 -3.05250E+03  6.12030E+03 -2.73564E+02
  8.05063E+03  2.03927E+03  4.02937E+03  6.82821E+03 -2.21846E+03  7.51915E+03 -8.34149E+03  5.83998E+03
 -1.02893E+04 -1.11446E+03 -5.81400E+03 -7.06625E+03 -4.30887E+02 -1.09593E+04  6.13951E+03 -1.09488E+04
  1.13378E+04 -6.40579E+03  1.40446E+04  1.62247E+03  9.64199E+03  9.60024E+03  1.54417E+03  1.26568E+04
 -5.10611E+03  1.07767E+04 -7.29421E+03  3.72087E+03 -4.70849E+03 -1.41752E+03 -1.82049E+03 -7.75483E+02
 -1.06141E+03 -1.24577E+02 -1.28393E+03  2.25446E+03 -4.04565E+03  1.66688E+03 -7.18243E+03 -8.26905E+02
 -4.64117E+03 -7.33640E+03  1.47110E+02 -1.00511E+04  6.09357E+03 -9.60412E+03  9.25279E+03 -3.01424E+03
  9.89597E+03  5.20109E+03  4.58324E+03  8.74158E+03 -1.82161E+03  1.01553E+04 -7.08153E+03  6.28673E+03
 -9.29128E+03  6.34350E+02 -7.24772E+03 -5.94398E+03 -6.68017E+02 -8.07533E+03  4.36358E+03 -6.14579E+03
  6.25822E+03 -2.29054E+03  4.15625E+03  1.32545E+03  1.19076E+03  3.29057E+03  1.42256E+03  1.47785E+03
  2.20414E+03  1.04675E+03  2.49127E+03  1.59606E+03  2.83718E+03  3.65483E+03  2.76141E+03  5.01729E+03
 -2.34749E+03  7.66570E+03 -6.91885E+03  8.20326E+03 -9.55628E+03  2.40731E+03 -1.02395E+04 -3.60734E+03
 -4.80867E+03 -9.90017E+03  1.52636E+03 -1.07624E+04  5.87473E+03 -6.59330E+03  7.56810E+03 -1.96306E+03
  6.15641E+03  3.84208E+03  1.44756E+03  5.51140E+03 -2.49635E+03  3.78830E+03 -4.02839E+03 -6.44130E+02
 -1.85470E+03 -4.57775E+03  2.62836E+03 -4.01087E+03  3.81569E+03 -2.03713E+03  3.88808E+03  1.02969E+03
  1.84171E+03  1.61644E+03  1.11165E+03  1.11071E+03 -5.69672E+02  1.70090E+03  1.82698E+03 -1.98673E+02
  1.34439E+03 -3.54214E+02  3.90911E+03  1.14082E+03  2.13216E+03  5.21119E+03 -8.35733E+02  6.78126E+03
 -4.52864E+03  4.30928E+03 -5.94663E+03  1.16603E+03 -5.64651E+03 -2.30938E+03 -1.68893E+03 -3.53794E+03
  9.01893E+02 -3.91666E+03  2.65297E+03 -1.98950E+03  1.82856E+03  2.09569E+03 -1.20774E+03  3.43996E+03
 -4.00493E+03  2.12377E+03 -4.30752E+03 -2.30065E+03 -2.63056E+03 -5.29433E+03  8.63772E+02 -5.26899E+03
  2.67695E+03 -2.59978E+03  3.37475E+03 -3.50856E+02  3.49500E+03  1.08621E+03  5.88127E+02  2.73099E+03
 -2.01738E+03  5.32433E+02 -2.46253E+03 -1.46776E+03  9.92392E+02 -3.90504E+03  4.96058E+03 -3.04590E+03
  5.67883E+03  5.63295E+02  5.97658E+03  3.91730E+03  1.95622E+03  5.84868E+03 -1.64192E+03  5.70847E+03
 -4.75738E+03  2.61642E+03 -5.08539E+03 -5.61124E+02 -2.35084E+03 -3.91669E+03  6.18615E+02 -3.06056E+03
  3.75401E+03 -1.79942E+03  2.81815E+03  1.33587E+03  6.59925E+02  3.46099E+03 -2.51698E+02  3.16554E+03
 -1.20240E+03  2.02214E+03 -1.43332E+03  6.63971E+02 -2.70229E+02  1.06408E+03 -1.37157E+03  1.37018E+03
 -1.52527E+03  2.39824E+03 -4.66807E+03  1.72767E+03 -5.42830E+03  2.86198E+02 -6.71743E+03 -3.91535E+03
 -3.29811E+03 -8.09989E+03  1.70190E+03 -8.61658E+03  4.95416E+03 -6.83858E+03  8.59609E+03 -2.74321E+03
  7.75044E+03  1.35893E+03  4.87162E+03  5.24052E+03 -2.42688E+02  5.85478E+03 -2.25677E+03  4.59068E+03
 -3.32514E+03  1.68774E+03 -2.72730E+03 -5.40899E+02 -7.81127E+02 -2.82781E+02 -7.76804E+02  1.31348E+02
 -1.52540E+03  1.48433E+02 -1.52099E+03 -1.92517E+02 -3.30603E+02 -1.40855E+03 -4.63999E+02 -2.17911E+03
  2.89365E+03 -1.60074E+03  3.22361E+03  3.46399E+02  3.97110E+03  2.84471E+03  9.18918E+02  6.10731E+03
 -2.73165E+03  6.55502E+03 -6.39624E+03  4.01974E+03 -7.08634E+03 -9.20940E+02 -5.52186E+03 -4.32719E+03
 -2.11865E+03 -6.03575E+03  1.36363E+03 -5.42202E+03  3.46627E+03 -2.94580E+03  3.75674E+03  2.53249E+02
  2.39902E+03  1.95150E+03 -2.24779E+02  1.19846E+03 -9.11786E+02 -1.31960E+02 -5.20351E+01 -1.28358E+03
  1.54622E+03 -6.01258E+02  2.11153E+03  9.02980E+02  1.28936E+03  2.12939E+03  2.53923E+02  2.47616E+03
 -2.55382E+03  2.93260E+03 -3.71064E+03  3.12189E+02 -3.29760E+03 -2.65079E+03 -5.00168E+02 -4.47035E+03
  2.68526E+03 -3.55017E+03  4.01656E+03 -8.39922E+02  4.51449E+03  9.00319E+02  2.27507E+03  3.50518E+03
  7.32225E+02  3.30234E+03 -1.44468E+03  2.87355E+03 -2.29839E+03  1.75723E+03 -1.87930E+03  3.94086E+02
 -1.01991E+03 -8.26113E+01 -1.45990E+03  1.61089E+02 -2.12853E+03  2.67271E+02 -2.57608E+03 -3.90905E+02
 -2.65601E+03 -1.69913E+03 -9.64770E+02 -3.67532E+03  1.87286E+03 -4.28807E+03  3.35720E+03 -1.68923E+03
  3.63399E+03  3.41090E+02  1.28479E+03  2.17564E+03 -1.10401E+02  3.64760E+03 -2.59273E+03  2.42281E+03
