 $NMID ID='MM_0lb_SNR800_15hz_g45_31.RAW', FMTDAT='(8E13.5)'
 TRAMP=1., VOLUME=1. $END
  3.10088E+05  4.79916E+02  3.37594E+05  2.50435E+05  8.47326E+04  3.37911E+05 -1.32660E+05  2.50653E+05
 -1.90086E+05  8.32564E+04 -1.11373E+05 -3.29844E+04  9.90710E+02 -5.06569E+04  5.38629E+04 -8.73669E+01
  3.54246E+04  5.28682E+04 -1.70515E+04  7.51230E+04 -6.08968E+04  6.34535E+04 -8.37647E+04  3.15877E+04
 -8.07351E+04 -1.13211E+04 -5.63924E+04 -5.05929E+04 -1.51934E+04 -6.91881E+04  2.72256E+04 -4.52354E+04
  4.01643E+04  3.93129E+03  1.57326E+04  4.72927E+04 -3.42310E+04  4.69324E+04 -6.62714E+04 -2.68930E+02
 -5.28592E+04 -5.62215E+04 -6.54666E+03 -7.63714E+04  3.37282E+04 -5.43412E+04  4.75667E+04 -1.66710E+04
  4.26166E+04  1.11956E+04  3.15143E+04  2.52471E+04  1.57558E+04  2.88599E+04 -5.26588E+03  2.69300E+04
 -2.22837E+04  1.24626E+04 -1.88480E+04 -4.75329E+03  4.86398E+03 -7.35409E+03  2.18724E+04  1.18684E+04
  7.37013E+03  3.47671E+04 -3.18390E+04  3.52720E+04 -6.24885E+04  2.02889E+03 -5.65756E+04 -4.21027E+04
 -1.22835E+04 -6.23946E+04  3.92187E+04 -4.45927E+04  5.69714E+04 -2.30985E+03  3.34006E+04  3.17232E+04
 -6.32250E+03  3.48391E+04 -2.95900E+04  1.50079E+04 -2.94237E+04 -4.94178E+03 -1.60717E+04 -1.07551E+04
 -8.09546E+03 -1.27097E+04 -1.09021E+03 -1.74426E+04  7.17520E+03 -2.27436E+04  1.52273E+04 -1.32641E+04
  1.16137E+04  4.99921E+03 -7.53053E+03  1.29566E+04 -2.05632E+04 -3.77187E+03 -8.10912E+03 -3.26571E+04
  2.21452E+04 -4.26648E+04  4.72286E+04 -1.93549E+04  4.41492E+04  1.91743E+04  1.52004E+04  4.33583E+04
 -1.58902E+04  3.27715E+04 -2.48152E+04  1.89988E+03 -9.12679E+03 -2.75088E+04  2.08477E+04 -3.32230E+04
  3.98443E+04 -8.50901E+03  3.40649E+04  2.31812E+04  1.72422E+04  4.53317E+04 -7.74445E+03  4.86789E+04
 -3.05105E+04  3.23897E+04 -4.03906E+04  8.91758E+03 -4.11339E+04 -1.59372E+04 -2.26276E+04 -3.71139E+04
  7.14467E+03 -3.64729E+04  3.08347E+04 -1.41261E+04  2.83898E+04  1.08242E+04  3.79059E+03  1.89063E+04
 -1.32519E+04  8.12691E+03 -9.72200E+03 -7.49297E+03  5.74019E+03 -1.04914E+04  1.75032E+04  6.19474E+03
  1.33744E+04  2.19211E+04 -6.28118E+03  2.43230E+04 -2.18098E+04  1.07524E+04 -2.71147E+04 -4.96295E+03
 -1.91752E+04 -1.68920E+04 -7.32055E+03 -1.92115E+04  3.97298E+03 -1.80999E+04  1.47774E+04 -1.70190E+04
  2.44460E+04 -1.24056E+04  3.10092E+04  2.27919E+03  2.30514E+04  1.87486E+04  4.26318E+03  3.48180E+04
 -1.71761E+04  2.91641E+04 -2.74188E+04  1.00953E+04 -2.06476E+04 -1.03459E+04 -4.32924E+03 -1.39495E+04
  2.08925E+03 -3.31190E+03 -4.04678E+03  6.45392E+03 -1.51019E+04  4.98176E+03 -1.51779E+04 -6.15752E+03
 -9.84214E+03 -1.78063E+04  5.10137E+03 -2.20713E+04  1.42655E+04 -1.58409E+04  1.69938E+04 -1.55699E+03
  1.05271E+04  1.25556E+04 -8.76717E+02  1.79581E+04 -1.21288E+04  1.01696E+04 -1.78732E+04 -3.75327E+03
 -1.31294E+04 -1.60410E+04 -1.61551E+03 -2.18389E+04  9.65871E+03 -1.78645E+04  1.80724E+04 -8.75799E+03
  1.67648E+04  6.93671E+02  1.20800E+04  4.40839E+03  6.17687E+03  8.50506E+02  8.91712E+03 -1.51587E+03
  1.62783E+04  2.81960E+03  1.76008E+04  1.46092E+04  1.12601E+04  2.85676E+04 -2.83668E+03  3.20950E+04
 -1.85847E+04  2.53343E+04 -2.98912E+04  1.20242E+04 -3.06530E+04 -2.30028E+03 -2.56531E+04 -1.79194E+04
 -1.13201E+04 -2.49315E+04  8.63815E+03 -2.28917E+04  1.98154E+04 -1.23214E+04  1.81406E+04  4.53239E+03
  6.75538E+03  1.34324E+04 -8.28042E+03  1.18756E+04 -1.51592E+04  2.39522E+03 -1.19417E+04 -9.28539E+03
 -2.66821E+01 -1.42627E+04  7.68740E+03 -1.07315E+04  9.14095E+03 -1.34006E+03  1.77917E+03  6.04218E+03
 -6.37865E+03  2.16294E+03 -5.07235E+03 -5.43926E+03 -2.18574E+02 -1.26916E+04  8.94137E+03 -1.27700E+04
  1.54135E+04 -6.50975E+03  1.60258E+04  2.48773E+03  1.38998E+04  1.22300E+04  6.76542E+03  1.83326E+04
 -2.67378E+03  2.01243E+04 -1.25868E+04  1.28011E+04 -1.43490E+04  3.23059E+03 -1.02236E+04 -2.89695E+03
 -5.14508E+03 -4.33335E+03 -6.14143E+02  1.42221E+03 -2.24361E+03  2.77530E+03 -4.41222E+03  3.93935E+03
 -9.79926E+03 -6.12698E+02 -1.05803E+04 -8.50314E+03 -4.01611E+03 -1.38658E+04  3.87719E+03 -1.03100E+04
  8.55292E+03 -4.40716E+03  6.30512E+03  2.78644E+03  1.44348E+02  3.59991E+03 -4.51505E+03  3.36763E+01
 -4.48985E+03 -6.79310E+03 -1.13105E+03 -9.41617E+03  5.28278E+03 -1.01736E+04  1.27795E+04 -5.45688E+03
  1.49144E+04  1.10693E+03  1.10543E+04  8.40278E+03  2.10768E+03  1.14839E+04 -6.51388E+03  1.02299E+04
 -8.59266E+03  3.37325E+03 -4.32262E+03 -1.68265E+03  1.53746E+03 -2.39728E+03  5.95025E+03 -1.06581E+03
  4.86625E+03  4.19252E+03  1.08822E+03  8.02661E+03 -5.46228E+03  8.20448E+03 -1.00181E+04  2.26004E+03
 -6.27507E+03 -4.91062E+03  2.16213E+02 -8.44203E+03  4.94991E+03 -4.13822E+03  5.20905E+03  1.38750E+03
  6.51334E+02  5.07575E+03 -5.13242E+03  6.61518E+03 -7.26066E+03  3.05321E+03 -7.12389E+03 -2.62606E+03
 -3.92057E+03 -8.80475E+03  1.85274E+03 -1.01187E+04  8.24284E+03 -6.15839E+03  9.22478E+03  1.33525E+03
  6.00634E+03  7.41228E+03 -3.11139E+02  9.34159E+03 -6.40007E+03  5.57561E+03 -7.05188E+03 -8.38550E+02
 -7.35921E+03 -6.81253E+03 -1.53141E+03 -6.63695E+03  3.60117E+03 -5.54622E+03  3.94860E+03 -3.09798E+03
  3.58053E+03  7.59522E+02 -3.07195E+02  1.43997E+03 -2.84512E+01 -1.19436E+03  6.71309E+02 -3.44582E+03
  5.95733E+03 -1.65180E+03  8.22464E+03  9.03702E+02  8.02055E+03  4.94710E+03  6.65161E+03  1.05638E+04
 -2.20782E+03  1.24957E+04 -1.06169E+04  9.47684E+03 -1.40078E+04  1.68087E+03 -1.08283E+04 -4.22173E+03
 -5.65341E+03 -8.92708E+03 -4.66502E+02 -7.44506E+03  2.93660E+03 -3.88342E+03  2.62215E+03 -3.08213E+03
  1.64200E+03 -1.94523E+03  2.89595E+03 -2.89346E+03  3.87905E+03 -1.68775E+03  4.69659E+03 -1.61518E+02
  6.17205E+03  1.55863E+03  2.53541E+03  4.72543E+03 -1.74450E+03  4.91566E+03 -6.19924E+03  3.85084E+03
 -7.27398E+03 -1.26789E+03 -3.35803E+03 -5.22844E+03 -1.68746E+01 -7.66183E+03  4.86428E+03 -7.70802E+03
  8.07235E+03 -4.65891E+03  1.00298E+04  6.00034E+02  7.42869E+03  6.70766E+03  1.12030E+03  8.91801E+03
 -3.30303E+03  7.57453E+03 -5.01106E+03  2.59784E+03 -3.39753E+03 -1.06987E+03 -1.23164E+03 -8.80156E+02
 -5.89875E+02  4.44149E+02 -1.07480E+03  2.21143E+03 -3.53051E+03  1.33315E+03 -5.56128E+03 -1.04528E+03
 -3.27682E+03 -5.26598E+03  5.76808E+02 -6.92560E+03  4.03367E+03 -6.44237E+03  6.04393E+03 -1.94750E+03
  6.64363E+03  3.63518E+03  3.11521E+03  5.50049E+03 -1.37993E+03  6.91951E+03 -4.45100E+03  4.32657E+03
 -6.12107E+03  5.58802E+02 -5.08879E+03 -4.03161E+03 -2.42004E+02 -5.13990E+03  2.65507E+03 -4.07107E+03
  4.43393E+03 -1.71144E+03  2.67976E+03  9.03292E+02  7.50497E+02  2.46141E+03  8.95948E+02  1.03484E+03
  1.89684E+03  3.51476E+02  1.79857E+03  1.11850E+03  1.94022E+03  2.69395E+03  2.26660E+03  2.88727E+03
 -1.69409E+03  4.88605E+03 -4.25793E+03  5.97523E+03 -5.89795E+03  1.38685E+03 -6.86643E+03 -1.74376E+03
 -3.19705E+03 -6.46798E+03  1.38842E+03 -7.09884E+03  3.48330E+03 -4.31303E+03  5.33411E+03 -1.19231E+03
  3.88086E+03  2.61106E+03  9.55918E+02  3.50122E+03 -1.36543E+03  2.04048E+03 -2.09388E+03 -2.77957E+02
 -9.85350E+02 -2.57568E+03  1.52203E+03 -2.68059E+03  2.41115E+03 -1.62979E+03  2.45364E+03  5.75793E+02
  1.40615E+03  1.32031E+03  1.02249E+03  2.75911E+02 -4.26972E+02  8.86258E+02  1.43745E+03 -2.22796E+02
  6.96658E+02 -2.58478E+02  2.55644E+03  9.91779E+02  7.38472E+02  3.71627E+03 -5.45485E+02  4.27032E+03
 -3.09784E+03  2.14818E+03 -3.56223E+03  8.88754E+02 -3.18506E+03 -1.43267E+03 -7.47460E+02 -2.04209E+03
  5.36386E+02 -2.44749E+03  1.65204E+03 -1.09033E+03  1.04855E+03  1.63002E+03 -6.21749E+02  1.81956E+03
 -2.61638E+03  1.06753E+03 -2.49711E+03 -1.56177E+03 -1.25799E+03 -3.33914E+03  2.47918E+02 -3.01442E+03
  1.55400E+03 -1.57415E+03  1.91509E+03  2.23114E+02  1.91571E+03  3.48244E+02  2.28553E+02  2.01694E+03
 -6.33061E+02  3.75662E+02 -1.60706E+03 -7.61808E+02  1.21119E+03 -1.91433E+03  2.89684E+03 -1.68034E+03
  2.90819E+03  2.92849E+02  4.38689E+03  1.84365E+03  1.65578E+03  3.44687E+03 -8.08455E+02  3.56760E+03
 -3.03883E+03  9.28886E+02 -2.90133E+03 -8.71789E+02 -1.59707E+03 -2.13640E+03  6.96871E+02 -1.55479E+03
  2.38344E+03 -1.05644E+03  1.70853E+03  1.20038E+03  7.88223E+02  2.03739E+03 -1.55918E+02  1.56260E+03
 -7.30114E+02  1.40029E+03 -6.68459E+02  2.20440E+02 -7.53138E+01  7.35206E+02 -9.30356E+02  5.26430E+02
 -1.16603E+03  1.76589E+03 -2.65736E+03  9.39930E+02 -3.40734E+03  1.33640E+02 -4.37969E+03 -2.37024E+03
 -1.76667E+03 -4.55500E+03  9.84271E+02 -5.33194E+03  2.58409E+03 -4.20593E+03  5.24270E+03 -1.57323E+03
  4.48200E+03  3.45250E+02  2.55914E+03  2.92493E+03 -2.32302E+02  3.11188E+03 -1.36632E+03  2.48341E+03
 -2.10502E+03  1.18043E+03 -1.13557E+03 -3.47733E+02 -5.71941E+02 -2.85133E+02 -6.30949E+02 -1.19555E+02
 -1.21948E+03  2.48673E+02 -1.30823E+03  1.13155E+01 -2.79719E+02 -8.99973E+02 -4.19567E+02 -1.51089E+03
  1.72400E+03 -1.38176E+03  1.43932E+03  5.53752E+01  2.44250E+03  1.70309E+03  1.79918E+02  2.93502E+03
 -1.85871E+03  4.20594E+03 -3.31083E+03  2.34462E+03 -4.15678E+03 -6.30584E+02 -2.76551E+03 -2.47029E+03
 -1.50530E+03 -3.02605E+03  8.25680E+02 -2.96293E+03  1.76298E+03 -1.47658E+03  1.40861E+03  2.42746E+02
  1.40344E+03  9.20874E+02 -2.58233E+02  9.36181E+02 -7.89499E+02  1.89632E+02  1.29802E+02 -5.47882E+02
  8.74695E+02 -2.32893E+01  8.25138E+02  5.72104E+02  6.54235E+02  1.39432E+03  3.99774E+02  9.62088E+02
 -1.27504E+03  1.34627E+03 -1.78896E+03  3.37397E+02 -1.97561E+03 -1.29534E+03 -2.35552E+02 -2.08520E+03
  1.22181E+03 -1.90495E+03  1.88650E+03 -6.00671E+02  2.27714E+03 -2.68212E+02  1.25662E+03  2.02792E+03
  4.67900E+02  1.65963E+03 -6.75786E+02  1.39480E+03 -1.55653E+03  9.78844E+02 -1.18340E+03  1.09985E+02
 -6.14245E+02 -1.82827E+02 -7.53532E+02  3.13574E+02 -9.22037E+02  3.51869E+02 -1.66059E+03 -2.22503E+02
 -1.74668E+03 -7.09268E+02 -4.88614E+02 -1.87028E+03  1.09609E+03 -2.55078E+03  1.67033E+03 -6.85687E+02
  1.75610E+03 -5.51019E+01  2.21157E+02  1.04551E+03 -1.89772E+02  2.03162E+03 -1.23194E+03  1.65476E+03
