 $NMID ID='MM_0lb_SNR800_14hz_g45_28.RAW', FMTDAT='(8E13.5)'
 TRAMP=1., VOLUME=1. $END
  3.09993E+05  2.57752E+02  3.37406E+05  2.50569E+05  8.46688E+04  3.37749E+05 -1.32423E+05  2.51013E+05
 -1.89937E+05  8.31347E+04 -1.11165E+05 -3.26292E+04  8.51865E+02 -5.02606E+04  5.37385E+04 -3.16532E+02
  3.54215E+04  5.32059E+04 -1.67056E+04  7.52873E+04 -6.06875E+04  6.34169E+04 -8.39573E+04  3.18633E+04
 -8.07316E+04 -1.13758E+04 -5.71123E+04 -5.12849E+04 -1.48692E+04 -6.93520E+04  2.73655E+04 -4.56311E+04
  4.00212E+04  3.87079E+03  1.58078E+04  4.74057E+04 -3.41391E+04  4.70182E+04 -6.66474E+04 -3.37223E+02
 -5.36179E+04 -5.66987E+04 -6.78396E+03 -7.66720E+04  3.35223E+04 -5.48502E+04  4.79472E+04 -1.69546E+04
  4.33255E+04  1.13951E+04  3.18059E+04  2.56098E+04  1.59447E+04  2.92917E+04 -4.94649E+03  2.72089E+04
 -2.21765E+04  1.25104E+04 -1.89317E+04 -4.88414E+03  5.34617E+03 -7.60957E+03  2.23236E+04  1.17967E+04
  7.14911E+03  3.48711E+04 -3.21615E+04  3.52403E+04 -6.28082E+04  2.05727E+03 -5.71037E+04 -4.23728E+04
 -1.23554E+04 -6.29024E+04  3.96288E+04 -4.51393E+04  5.77087E+04 -1.95373E+03  3.39559E+04  3.20459E+04
 -5.93226E+03  3.56465E+04 -2.97912E+04  1.53140E+04 -2.98530E+04 -4.35292E+03 -1.65178E+04 -1.06859E+04
 -8.13460E+03 -1.30533E+04 -6.53059E+02 -1.76654E+04  7.33841E+03 -2.28293E+04  1.54594E+04 -1.34327E+04
  1.15044E+04  5.12878E+03 -8.04474E+03  1.31523E+04 -2.09903E+04 -4.20602E+03 -8.12100E+03 -3.31949E+04
  2.29419E+04 -4.35186E+04  4.77800E+04 -1.93624E+04  4.47160E+04  1.94136E+04  1.54681E+04  4.39357E+04
 -1.56882E+04  3.34901E+04 -2.50440E+04  1.61965E+03 -9.56582E+03 -2.72673E+04  2.12553E+04 -3.34937E+04
  4.04227E+04 -8.85022E+03  3.53267E+04  2.35789E+04  1.79144E+04  4.61304E+04 -7.96737E+03  4.95157E+04
 -3.12023E+04  3.31255E+04 -4.16319E+04  9.24677E+03 -4.20369E+04 -1.65948E+04 -2.31092E+04 -3.75115E+04
  6.89002E+03 -3.75370E+04  3.11069E+04 -1.43420E+04  2.86906E+04  1.07992E+04  4.00654E+03  1.89014E+04
 -1.34394E+04  8.09407E+03 -1.01494E+04 -7.78321E+03  5.96012E+03 -1.03290E+04  1.80885E+04  6.11158E+03
  1.35277E+04  2.15916E+04 -5.93544E+03  2.46290E+04 -2.24885E+04  1.16795E+04 -2.80829E+04 -4.94904E+03
 -2.02657E+04 -1.68975E+04 -7.96063E+03 -2.01717E+04  4.01317E+03 -1.91545E+04  1.54679E+04 -1.78230E+04
  2.58439E+04 -1.25530E+04  3.21740E+04  2.42656E+03  2.33985E+04  1.97715E+04  4.42346E+03  3.57108E+04
 -1.78521E+04  3.00530E+04 -2.76979E+04  1.05305E+04 -2.09898E+04 -1.05529E+04 -4.40922E+03 -1.39179E+04
  1.80824E+03 -3.30952E+03 -4.86990E+03  6.65928E+03 -1.58414E+04  5.08246E+03 -1.63160E+04 -6.88881E+03
 -9.59546E+03 -1.86580E+04  5.24952E+03 -2.27144E+04  1.49133E+04 -1.62978E+04  1.77366E+04 -1.64400E+03
  1.10034E+04  1.29565E+04 -7.97255E+02  1.87172E+04 -1.27225E+04  1.07252E+04 -1.89212E+04 -4.20135E+03
 -1.36758E+04 -1.68228E+04 -1.80651E+03 -2.25360E+04  1.01232E+04 -1.83927E+04  1.88829E+04 -8.93609E+03
  1.75124E+04  9.06160E+01  1.25585E+04  4.64337E+03  6.53048E+03  7.70024E+02  9.39415E+03 -1.88548E+03
  1.70180E+04  2.87568E+03  1.85697E+04  1.49981E+04  1.23972E+04  2.96721E+04 -2.68193E+03  3.35183E+04
 -1.92692E+04  2.68803E+04 -3.12628E+04  1.35641E+04 -3.28252E+04 -2.04872E+03 -2.70792E+04 -1.89332E+04
 -1.15633E+04 -2.69872E+04  9.49920E+03 -2.44905E+04  2.11455E+04 -1.25502E+04  1.88713E+04  5.35612E+03
  7.21228E+03  1.40205E+04 -8.54260E+03  1.22282E+04 -1.60105E+04  2.59519E+03 -1.23835E+04 -1.00251E+04
 -3.87218E+02 -1.49399E+04  7.67541E+03 -1.09546E+04  9.71392E+03 -1.25397E+03  2.09963E+03  6.39459E+03
 -6.76385E+03  2.44776E+03 -5.63019E+03 -5.39402E+03 -5.38266E+02 -1.31049E+04  9.54712E+03 -1.37505E+04
  1.62329E+04 -7.07749E+03  1.74311E+04  3.06446E+03  1.49598E+04  1.29410E+04  7.08259E+03  1.98514E+04
 -2.84352E+03  2.16479E+04 -1.40055E+04  1.37914E+04 -1.54329E+04  3.07204E+03 -1.12622E+04 -3.50292E+03
 -5.32884E+03 -4.75534E+03 -8.44923E+02  9.91366E+02 -2.18820E+03  2.89597E+03 -5.19088E+03  4.27133E+03
 -1.04353E+04 -8.76443E+02 -1.11577E+04 -8.72525E+03 -4.24951E+03 -1.45455E+04  4.51180E+03 -1.10719E+04
  9.50923E+03 -4.79192E+03  6.81542E+03  3.09810E+03  2.82037E+02  4.11931E+03 -4.89887E+03  7.37035E+01
 -5.18055E+03 -6.91015E+03 -7.91216E+02 -1.00110E+04  5.81938E+03 -1.05752E+04  1.35559E+04 -6.07502E+03
  1.63045E+04  1.11640E+03  1.18274E+04  9.27061E+03  2.67719E+03  1.24201E+04 -6.76865E+03  1.13315E+04
 -8.97501E+03  3.30549E+03 -4.57807E+03 -2.13588E+03  1.47232E+03 -2.80112E+03  6.05628E+03 -9.62139E+02
  5.10712E+03  4.75242E+03  1.02360E+03  8.47304E+03 -5.89169E+03  8.82030E+03 -1.04491E+04  2.01160E+03
 -7.31794E+03 -5.35289E+03  1.05986E+02 -9.12733E+03  5.59736E+03 -4.68390E+03  5.34419E+03  1.94986E+03
  1.02374E+03  5.86440E+03 -5.59554E+03  7.18613E+03 -7.92196E+03  3.18055E+03 -7.92295E+03 -2.75953E+03
 -4.75361E+03 -9.54263E+03  2.34930E+03 -1.11597E+04  9.24457E+03 -6.75305E+03  1.00915E+04  1.77329E+03
  6.60348E+03  8.28979E+03 -3.85286E+02  1.00425E+04 -7.42563E+03  5.49401E+03 -7.67719E+03 -6.99262E+02
 -7.55426E+03 -7.19663E+03 -1.33353E+03 -7.19452E+03  3.61952E+03 -6.47503E+03  4.55343E+03 -3.26695E+03
  3.75092E+03  9.97107E+02 -5.70622E+02  1.55551E+03  1.73268E+02 -1.51676E+03  1.10732E+03 -3.62854E+03
  7.04707E+03 -2.39259E+03  8.85455E+03  1.14552E+03  9.13198E+03  5.99830E+03  7.20391E+03  1.19711E+04
 -2.26392E+03  1.36694E+04 -1.17700E+04  1.02143E+04 -1.54093E+04  2.04432E+03 -1.24834E+04 -4.79603E+03
 -6.33101E+03 -1.02401E+04 -4.95356E+02 -8.31529E+03  3.22792E+03 -4.49825E+03  2.96581E+03 -3.20854E+03
  2.33108E+03 -2.17397E+03  2.80242E+03 -2.67615E+03  4.29826E+03 -1.70148E+03  5.06055E+03  1.07639E+01
  6.54914E+03  1.79831E+03  2.92222E+03  5.67938E+03 -1.76698E+03  5.66005E+03 -6.68963E+03  4.49830E+03
 -8.03185E+03 -1.10032E+03 -4.48036E+03 -5.57293E+03 -1.44531E+02 -8.59892E+03  5.33242E+03 -9.16022E+03
  8.95687E+03 -5.15198E+03  1.09044E+04  8.24951E+02  7.56750E+03  7.47585E+03  1.51470E+03  1.00612E+04
 -3.76249E+03  8.81666E+03 -5.57584E+03  3.03205E+03 -3.31659E+03 -1.18650E+03 -1.43658E+03 -9.36758E+02
 -9.49915E+02  1.65136E+02 -1.27198E+03  2.35917E+03 -3.77428E+03  1.43225E+03 -6.16727E+03 -6.51386E+02
 -3.22258E+03 -5.95145E+03  5.91752E+02 -7.71762E+03  4.65755E+03 -7.38470E+03  7.16659E+03 -1.76298E+03
  7.45385E+03  4.02652E+03  3.22516E+03  6.41491E+03 -1.64869E+03  7.98773E+03 -5.35785E+03  4.89556E+03
 -6.87838E+03  4.49907E+02 -5.73272E+03 -4.42133E+03 -6.30094E+02 -6.08669E+03  2.96949E+03 -4.18379E+03
  4.91469E+03 -1.87126E+03  3.32755E+03  1.03126E+03  8.57907E+02  2.46880E+03  8.20848E+02  1.09502E+03
  1.73772E+03  4.44850E+02  2.32925E+03  1.18807E+03  2.17381E+03  3.11701E+03  2.13739E+03  3.64642E+03
 -1.99499E+03  5.95192E+03 -5.26896E+03  6.82122E+03 -6.99797E+03  2.15107E+03 -7.59273E+03 -2.20386E+03
 -3.63111E+03 -7.26303E+03  1.26876E+03 -8.41125E+03  3.90725E+03 -5.28334E+03  6.05585E+03 -1.89872E+03
  4.67195E+03  2.99062E+03  9.44134E+02  4.32668E+03 -2.07626E+03  3.10650E+03 -2.65032E+03 -3.49708E+02
 -1.33685E+03 -3.16588E+03  1.73013E+03 -3.27038E+03  2.69670E+03 -1.58960E+03  2.96224E+03  5.91964E+02
  1.41754E+03  1.05545E+03  8.83487E+02  8.16650E+02 -6.67104E+02  1.23700E+03  1.76683E+03 -1.25916E+02
  5.76209E+02 -4.81654E+02  2.97733E+03  1.23872E+03  1.33879E+03  4.08444E+03 -4.14013E+02  5.14525E+03
 -3.41458E+03  2.97697E+03 -4.30557E+03  6.45877E+02 -4.30967E+03 -1.09480E+03 -9.33774E+02 -2.49609E+03
  1.45766E+02 -2.63112E+03  1.51990E+03 -1.27944E+03  1.64365E+03  1.89109E+03 -4.46296E+02  2.31142E+03
 -2.83593E+03  1.36679E+03 -2.88644E+03 -2.17609E+03 -1.84699E+03 -3.99732E+03  2.68191E+02 -3.46519E+03
  1.96735E+03 -1.77916E+03  2.35788E+03 -2.67340E+02  2.17598E+03  4.87572E+02  5.59023E+02  2.10125E+03
 -1.22113E+03  4.13637E+02 -1.89716E+03 -1.15553E+03  1.01524E+03 -2.53160E+03  3.69445E+03 -2.31953E+03
  3.70583E+03  2.92134E+02  4.46778E+03  2.47647E+03  1.60685E+03  4.31330E+03 -1.15106E+03  4.11611E+03
 -3.36214E+03  1.60933E+03 -3.49866E+03 -5.58329E+02 -2.11290E+03 -2.74660E+03  7.33676E+02 -1.92660E+03
  2.92878E+03 -1.39618E+03  2.02708E+03  1.46515E+03  8.52024E+02  2.66383E+03 -3.27656E+02  2.11573E+03
 -9.32603E+02  1.72185E+03 -1.10279E+03  1.73911E+02 -2.29447E+02  7.50404E+02 -1.13158E+03  9.14199E+02
 -1.21794E+03  1.82691E+03 -3.27963E+03  1.45304E+03 -4.36211E+03  1.89165E+02 -4.83268E+03 -2.70838E+03
 -2.48692E+03 -5.15475E+03  1.35504E+03 -6.46325E+03  3.24212E+03 -4.90021E+03  6.04547E+03 -2.15456E+03
  5.55865E+03  1.09747E+03  2.67008E+03  3.83890E+03 -3.41008E+02  3.95989E+03 -1.59926E+03  2.93356E+03
 -2.18022E+03  1.40985E+03 -1.49480E+03 -6.85344E+02 -4.42338E+02  4.39851E+02 -6.60234E+02 -2.65064E+02
 -1.34623E+03  1.75672E+01 -1.05490E+03 -3.22398E+01  3.04811E+01 -1.16703E+03 -1.52489E+01 -1.52707E+03
  2.16214E+03 -1.05309E+03  2.03630E+03  4.51758E+01  2.92109E+03  2.33547E+03 -5.22579E+01  3.81576E+03
 -2.19931E+03  4.99769E+03 -4.20452E+03  2.78226E+03 -4.41059E+03 -3.92721E+02 -3.27990E+03 -3.22847E+03
 -1.82651E+03 -3.93585E+03  7.57878E+02 -3.36108E+03  2.12051E+03 -1.80156E+03  2.42384E+03  2.08948E+02
  1.41995E+03  8.51549E+02 -1.69318E+02  1.27767E+03 -8.85441E+02 -2.37026E+02  1.77471E+02 -5.63530E+02
  1.38742E+03 -2.92788E+01  1.56713E+03  6.63857E+02  7.54588E+02  1.07675E+03  5.51976E+02  1.42767E+03
 -1.76673E+03  1.63019E+03 -2.26508E+03  2.66479E+02 -1.94503E+03 -1.52709E+03 -1.28406E+02 -2.87845E+03
  1.89154E+03 -2.73619E+03  2.27022E+03 -4.70891E+02  2.59101E+03 -5.27842E+01  1.44810E+03  2.17090E+03
  6.72800E+02  2.28418E+03 -9.94620E+02  1.77457E+03 -1.62328E+03  7.77349E+02 -1.10495E+03  1.17274E+02
 -4.82850E+02 -1.55343E+02 -6.81222E+02  4.20186E+02 -1.48537E+03  2.65970E+02 -2.03259E+03 -6.09504E+02
 -2.47340E+03 -2.82588E+02 -5.70384E+02 -2.47407E+03  1.05713E+03 -3.37208E+03  2.15179E+03 -9.94637E+02
  2.42264E+03  4.12780E+02  7.03660E+02  1.33426E+03  8.12480E+01  2.26356E+03 -1.71282E+03  1.61548E+03
