 $NMID ID='MM_0lb_SNR800_7hz_g45_58.RAW', FMTDAT='(8E13.5)'
 TRAMP=1., VOLUME=1. $END
  3.09604E+05  6.48405E+02  3.37904E+05  2.50971E+05  8.52413E+04  3.38493E+05 -1.32912E+05  2.51405E+05
 -1.90946E+05  8.43349E+04 -1.12737E+05 -3.21052E+04  9.92079E+01 -5.07584E+04  5.34085E+04 -5.95866E+02
  3.52566E+04  5.29806E+04 -1.64782E+04  7.58109E+04 -6.13559E+04  6.47636E+04 -8.55831E+04  3.27472E+04
 -8.23661E+04 -1.19117E+04 -5.84084E+04 -5.26866E+04 -1.48953E+04 -7.10997E+04  2.81158E+04 -4.70535E+04
  4.11552E+04  3.33282E+03  1.67892E+04  4.90286E+04 -3.47376E+04  4.84491E+04 -6.85897E+04  3.68809E+02
 -5.51383E+04 -5.78048E+04 -7.45804E+03 -7.96817E+04  3.47873E+04 -5.74998E+04  5.06305E+04 -1.88341E+04
  4.57058E+04  1.19129E+04  3.33349E+04  2.70026E+04  1.58440E+04  3.07385E+04 -6.13417E+03  2.80531E+04
 -2.26650E+04  1.18894E+04 -1.80269E+04 -5.86382E+03  8.02107E+03 -7.80416E+03  2.37505E+04  1.44422E+04
  6.90056E+03  3.85956E+04 -3.43554E+04  3.74636E+04 -6.63747E+04  1.69102E+03 -5.94732E+04 -4.57108E+04
 -1.27213E+04 -6.66863E+04  4.13657E+04 -4.78461E+04  6.20261E+04 -2.89822E+03  3.72108E+04  3.53458E+04
 -5.57297E+03  4.00761E+04 -3.23728E+04  1.95458E+04 -3.40289E+04 -3.50724E+03 -1.99233E+04 -1.28034E+04
 -9.91053E+03 -1.57968E+04 -5.97664E+02 -2.03869E+04  8.78211E+03 -2.35644E+04  1.63399E+04 -1.25891E+04
  1.00045E+04  6.73093E+03 -1.09096E+04  1.25269E+04 -2.37692E+04 -7.31526E+03 -8.47310E+03 -3.84817E+04
  2.59517E+04 -4.77717E+04  5.34281E+04 -2.15625E+04  4.99047E+04  2.10980E+04  1.72509E+04  4.78522E+04
 -1.64343E+04  3.69857E+04 -2.84159E+04  2.39304E+03 -1.25150E+04 -3.00629E+04  2.17296E+04 -3.78496E+04
  4.59393E+04 -1.19896E+04  4.21767E+04  2.56641E+04  2.24581E+04  5.23488E+04 -8.26739E+03  5.78938E+04
 -3.67908E+04  4.00280E+04 -4.91758E+04  1.16431E+04 -4.92603E+04 -1.88761E+04 -2.71379E+04 -4.33441E+04
  7.93616E+03 -4.34523E+04  3.49040E+04 -1.76128E+04  3.28732E+04  1.14389E+04  5.66642E+03  2.11338E+04
 -1.44105E+04  9.98456E+03 -1.14266E+04 -7.68491E+03  5.37943E+03 -1.18709E+04  1.95761E+04  5.18952E+03
  1.56005E+04  2.31021E+04 -4.95938E+03  2.79034E+04 -2.33581E+04  1.48992E+04 -3.27118E+04 -2.54152E+03
 -2.78390E+04 -1.85297E+04 -1.29257E+04 -2.66835E+04  4.34001E+03 -2.74134E+04  2.12978E+04 -2.44728E+04
  3.41303E+04 -1.49775E+04  3.96262E+04  6.14583E+03  2.83694E+04  2.57715E+04  4.76914E+03  4.29383E+04
 -2.06668E+04  3.54342E+04 -3.10219E+04  1.24440E+04 -2.33029E+04 -1.00517E+04 -5.65805E+03 -1.24436E+04
  4.31397E+02 -6.93651E+02 -8.62221E+03  8.71709E+03 -2.16611E+04  4.61487E+03 -2.12091E+04 -1.07804E+04
 -1.25609E+04 -2.49161E+04  6.95977E+03 -2.91997E+04  1.96365E+04 -2.08347E+04  2.43666E+04 -1.92687E+03
  1.50493E+04  1.68712E+04 -1.14050E+03  2.46920E+04 -1.77242E+04  1.44956E+04 -2.53245E+04 -4.92512E+03
 -1.84422E+04 -2.22746E+04 -2.40667E+03 -2.99469E+04  1.35596E+04 -2.52567E+04  2.47562E+04 -1.31456E+04
  2.34606E+04 -4.39918E+02  1.75275E+04  5.54672E+03  1.02421E+04  1.45636E+03  1.29909E+04 -2.25828E+03
  2.38826E+04  2.93832E+03  2.76567E+04  1.96861E+04  1.90433E+04  4.01032E+04 -2.44506E+03  4.75970E+04
 -2.70417E+04  4.06240E+04 -4.56776E+04  2.10464E+04 -4.91699E+04 -3.44308E+03 -3.96841E+04 -2.84524E+04
 -1.52635E+04 -4.08951E+04  1.45007E+04 -3.55441E+04  3.02586E+04 -1.66021E+04  2.60185E+04  9.13998E+03
  8.68240E+03  2.05347E+04 -1.27310E+04  1.71812E+04 -2.16937E+04  1.81534E+03 -1.64822E+04 -1.38067E+04
 -5.35917E+02 -2.09599E+04  1.13574E+04 -1.52849E+04  1.47174E+04 -1.37751E+03  4.14872E+03  9.67533E+03
 -9.12938E+03  4.72881E+03 -1.08261E+04 -7.50068E+03 -1.90476E+03 -1.98775E+04  1.30541E+04 -2.18014E+04
  2.53669E+04 -1.25828E+04  2.94443E+04  3.46390E+03  2.55966E+04  2.00623E+04  1.14102E+04  3.19978E+04
 -6.21457E+03  3.47592E+04 -2.28679E+04  2.11796E+04 -2.50127E+04  4.19708E+03 -1.61798E+04 -7.16559E+03
 -6.87168E+03 -7.73000E+03 -9.51214E+02  7.12176E+01 -2.87586E+03  3.82612E+03 -8.19962E+03  5.55891E+03
 -1.56980E+04 -9.23638E+02 -1.58964E+04 -1.28192E+04 -6.44171E+03 -2.11571E+04  7.07776E+03 -1.76325E+04
  1.39646E+04 -7.14730E+03  1.01983E+04  5.38405E+03 -8.74249E+02  7.08716E+03 -8.81289E+03 -2.56136E+02
 -8.86806E+03 -1.11545E+04 -1.28484E+03 -1.73042E+04  1.05825E+04 -1.79295E+04  2.27185E+04 -1.01940E+04
  2.62003E+04  2.98954E+03  1.87081E+04  1.66946E+04  3.58807E+03  2.15111E+04 -1.04541E+04  1.72093E+04
 -1.40067E+04  4.77643E+03 -7.24112E+03 -3.93711E+03  2.47261E+03 -5.16558E+03  8.93632E+03 -1.35313E+03
  8.22326E+03  8.00478E+03  1.43589E+03  1.42795E+04 -1.00445E+04  1.31926E+04 -1.78795E+04  2.94509E+03
 -1.20373E+04 -9.89660E+03  2.44404E+02 -1.49595E+04  1.05149E+04 -7.84859E+03  1.07576E+04  4.29411E+03
  2.29476E+03  1.18360E+04 -9.30670E+03  1.35570E+04 -1.58912E+04  5.84657E+03 -1.63829E+04 -5.95894E+03
 -9.29405E+03 -1.85053E+04  4.71360E+03 -2.09913E+04  1.80708E+04 -1.25958E+04  1.97361E+04  3.17278E+03
  1.09973E+04  1.54558E+04 -2.30941E+03  1.80948E+04 -1.33988E+04  9.71245E+03 -1.49179E+04 -1.73292E+03
 -1.22138E+04 -1.24125E+04 -1.50710E+03 -1.41384E+04  7.37479E+03 -1.08520E+04  9.49763E+03 -3.79666E+03
  5.71194E+03  2.67040E+03 -1.14353E+03  2.02284E+03 -9.64699E+02 -4.44979E+03  3.30307E+03 -9.32235E+03
  1.37712E+04 -6.19256E+03  1.93234E+04  2.32723E+03  1.83752E+04  1.32926E+04  1.14460E+04  2.45633E+04
 -5.98417E+03  2.82977E+04 -2.36051E+04  2.01592E+04 -3.04378E+04  4.09198E+03 -2.46306E+04 -1.08323E+04
 -1.21543E+04 -2.00311E+04 -6.75214E+02 -1.72995E+04  6.35051E+03 -1.01461E+04  6.30072E+03 -6.16171E+03
  4.36667E+03 -3.57035E+03  5.02131E+03 -4.57916E+03  6.61767E+03 -4.11961E+03  8.93212E+03 -1.72801E+03
  1.24828E+04  3.07489E+03  7.12693E+03  1.09598E+04 -2.79154E+03  1.36813E+04 -1.37761E+04  1.09020E+04
 -1.78158E+04 -1.44103E+03 -1.16485E+04 -1.21146E+04 -2.11170E+03 -1.92183E+04  1.04158E+04 -1.89444E+04
  1.94332E+04 -1.02434E+04  2.30047E+04  3.86243E+03  1.56260E+04  1.66519E+04  2.47126E+03  2.09230E+04
 -9.16980E+03  1.70893E+04 -1.27156E+04  5.79701E+03 -9.06144E+03 -2.06355E+03 -4.36764E+03 -2.54135E+03
 -1.95241E+03 -4.31236E+02 -3.29884E+03  3.24533E+03 -7.07016E+03  3.12303E+03 -1.23453E+04 -1.76538E+03
 -8.79200E+03 -1.17883E+04  9.24161E+01 -1.77964E+04  1.07366E+04 -1.67067E+04  1.80626E+04 -4.86396E+03
  1.77954E+04  8.61109E+03  8.78131E+03  1.57261E+04 -3.81703E+03  1.80532E+04 -1.35175E+04  1.14194E+04
 -1.74813E+04  1.16244E+02 -1.33031E+04 -1.12778E+04 -1.40416E+03 -1.47915E+04  7.72504E+03 -1.13469E+04
  1.13604E+04 -3.32214E+03  7.91070E+03  3.22697E+03  3.34952E+03  5.43826E+03  1.75182E+03  2.86503E+03
  3.34667E+03  1.35178E+03  4.49159E+03  2.23999E+03  5.32122E+03  6.17907E+03  4.44072E+03  9.64722E+03
 -3.32109E+03  1.48925E+04 -1.26334E+04  1.43554E+04 -1.97179E+04  3.81018E+03 -1.99601E+04 -8.62003E+03
 -9.39637E+03 -1.91234E+04  2.72534E+03 -2.05076E+04  1.16746E+04 -1.34997E+04  1.54185E+04 -3.37720E+03
  1.19931E+04  6.58166E+03  2.57009E+03  1.03675E+04 -5.20493E+03  7.53844E+03 -8.04611E+03 -1.18979E+03
 -3.55774E+03 -7.93284E+03  4.57521E+03 -8.25766E+03  8.04154E+03 -4.14081E+03  8.00270E+03  1.95248E+03
  4.67717E+03  4.48411E+03  1.22498E+03  3.81611E+03 -7.53294E+02  2.87111E+03  1.62965E+03 -8.86601E+02
  3.22288E+03 -1.03604E+03  7.54690E+03  3.46375E+03  5.16558E+03  9.79065E+03 -1.47050E+03  1.35458E+04
 -9.27678E+03  9.38605E+03 -1.27437E+04  2.94644E+03 -1.09454E+04 -4.32450E+03 -4.44025E+03 -7.71145E+03
  1.32227E+03 -7.86563E+03  5.46348E+03 -3.10987E+03  4.20432E+03  3.81440E+03 -1.90215E+03  6.65835E+03
 -7.71596E+03  3.87236E+03 -9.44718E+03 -4.75422E+03 -5.87379E+03 -1.06266E+04  1.87162E+03 -1.07937E+04
  6.46548E+03 -6.65756E+03  7.69650E+03 -4.78866E+02  6.42227E+03  3.09502E+03  7.18739E+02  5.90395E+03
 -3.39852E+03  1.60830E+03 -4.80346E+03 -4.13559E+03  1.62675E+03 -8.61497E+03  9.63662E+03 -6.87938E+03
  1.29052E+04  7.74463E+02  1.18700E+04  8.88661E+03  3.61968E+03  1.32881E+04 -4.82965E+03  1.26301E+04
 -1.11594E+04  5.81716E+03 -1.10583E+04 -1.76599E+03 -5.99813E+03 -8.62397E+03  1.89389E+03 -8.60440E+03
  8.14460E+03 -4.11891E+03  7.01783E+03  3.38337E+03  2.43721E+03  7.30174E+03 -1.26306E+03  6.33911E+03
 -3.68364E+03  4.28053E+03 -3.53034E+03  1.79262E+03 -1.63622E+03  1.42754E+03 -1.57705E+03  2.62258E+03
 -3.63988E+03  5.29108E+03 -8.60200E+03  4.65164E+03 -1.31915E+04  4.07899E+02 -1.47800E+04 -9.24733E+03
 -7.47915E+03 -1.77309E+04  3.41476E+03 -2.05427E+04  1.28792E+04 -1.54340E+04  1.93137E+04 -6.34887E+03
  1.80857E+04  4.00550E+03  1.13826E+04  1.25377E+04  1.46548E+03  1.38814E+04 -5.59903E+03  1.03486E+04
 -7.91696E+03  3.46621E+03 -4.61238E+03 -1.81513E+03 -1.38238E+03 -1.45489E+03 -9.24561E+02 -2.52708E+02
 -1.91210E+03  5.24736E+02 -3.09033E+03 -8.77070E+02 -1.35049E+03 -3.44494E+03  2.46556E+02 -5.40928E+03
  5.94163E+03 -4.82859E+03  9.10721E+03  1.41931E+02  9.80689E+03  7.64505E+03  3.12948E+03  1.40759E+04
 -6.45299E+03  1.58785E+04 -1.49136E+04  9.19299E+03 -1.77707E+04 -1.04571E+03 -1.34740E+04 -1.03727E+04
 -5.46441E+03 -1.51669E+04  3.79819E+03 -1.36085E+04  9.40397E+03 -7.56466E+03  9.51133E+03 -1.91307E+02
  5.57455E+03  4.82873E+03 -9.17434E+02  4.53495E+03 -2.72417E+03 -5.19260E+02  2.96151E+02 -3.19152E+03
  4.89113E+03 -2.21693E+03  6.09090E+03  1.60385E+03  3.94776E+03  5.81104E+03  1.32261E+02  7.71811E+03
 -6.90756E+03  6.62600E+03 -1.04592E+04  8.01872E+02 -8.77723E+03 -7.04459E+03 -1.39795E+03 -1.24019E+04
  6.85344E+03 -1.10422E+04  1.16043E+04 -3.43128E+03  1.16064E+04  3.10918E+03  6.74108E+03  9.08263E+03
  1.29777E+03  1.03184E+04 -3.82759E+03  8.08128E+03 -6.40021E+03  4.59902E+03 -5.01427E+03  5.19449E+02
 -3.00950E+03 -4.33402E+02 -2.60649E+03  1.57556E+03 -5.15611E+03  1.94750E+03 -7.99604E+03 -1.35395E+03
 -7.02803E+03 -5.81445E+03 -2.06831E+03 -1.03113E+04  4.22722E+03 -1.03491E+04  8.90582E+03 -5.33678E+03
  9.96272E+03  1.03466E+03  6.11904E+03  7.38465E+03 -9.38663E+02  9.95245E+03 -7.65085E+03  6.57294E+03
