 $NMID ID='MM_0lb_SNR800_17hz_g55_20.RAW', FMTDAT='(8E13.5)'
 TRAMP=1., VOLUME=1. $END
  3.09874E+05  4.28093E+02  3.37609E+05  2.50613E+05  8.45175E+04  3.37634E+05 -1.32789E+05  2.50983E+05
 -1.90309E+05  8.29516E+04 -1.11829E+05 -3.25977E+04  9.86496E+02 -5.04902E+04  5.40019E+04 -1.59663E+02
  3.53672E+04  5.29101E+04 -1.68246E+04  7.51885E+04 -6.06816E+04  6.35433E+04 -8.37182E+04  3.19189E+04
 -8.04114E+04 -1.15707E+04 -5.69635E+04 -5.07969E+04 -1.50771E+04 -6.94701E+04  2.72743E+04 -4.55146E+04
  3.98790E+04  3.92606E+03  1.58722E+04  4.76965E+04 -3.42003E+04  4.68933E+04 -6.63710E+04 -2.81832E+02
 -5.30996E+04 -5.63530E+04 -6.62617E+03 -7.63407E+04  3.38062E+04 -5.46240E+04  4.74677E+04 -1.68266E+04
  4.28757E+04  1.13151E+04  3.16181E+04  2.54046E+04  1.57258E+04  2.90454E+04 -4.85264E+03  2.70919E+04
 -2.18466E+04  1.23705E+04 -1.87451E+04 -4.72962E+03  5.21338E+03 -7.29914E+03  2.20787E+04  1.20635E+04
  7.19456E+03  3.45412E+04 -3.14779E+04  3.48870E+04 -6.26577E+04  2.07347E+03 -5.65204E+04 -4.24032E+04
 -1.23013E+04 -6.21387E+04  3.93338E+04 -4.48023E+04  5.73557E+04 -2.08671E+03  3.31560E+04  3.16396E+04
 -6.31949E+03  3.51326E+04 -2.96000E+04  1.50504E+04 -2.94232E+04 -4.73001E+03 -1.59955E+04 -1.05210E+04
 -7.88113E+03 -1.25664E+04 -7.11284E+02 -1.74896E+04  7.22918E+03 -2.29284E+04  1.55943E+04 -1.36145E+04
  1.16784E+04  4.96770E+03 -7.37830E+03  1.31836E+04 -2.04929E+04 -3.90853E+03 -8.25549E+03 -3.26355E+04
  2.21144E+04 -4.22346E+04  4.67851E+04 -1.91169E+04  4.39841E+04  1.89085E+04  1.49890E+04  4.32341E+04
 -1.56751E+04  3.25018E+04 -2.45918E+04  1.76281E+03 -9.37616E+03 -2.72045E+04  2.08262E+04 -3.29162E+04
  3.97098E+04 -8.68470E+03  3.43102E+04  2.34205E+04  1.69929E+04  4.49199E+04 -7.89456E+03  4.82253E+04
 -3.05401E+04  3.20434E+04 -4.00097E+04  9.20955E+03 -4.04582E+04 -1.60995E+04 -2.26351E+04 -3.65809E+04
  7.11520E+03 -3.62784E+04  3.02826E+04 -1.39418E+04  2.84135E+04  1.09164E+04  3.59591E+03  1.84263E+04
 -1.34534E+04  7.91391E+03 -1.00759E+04 -7.56731E+03  6.02076E+03 -1.04933E+04  1.76871E+04  6.14229E+03
  1.28445E+04  2.16848E+04 -6.66040E+03  2.40815E+04 -2.21766E+04  1.06096E+04 -2.68675E+04 -5.54473E+03
 -1.88108E+04 -1.68204E+04 -7.21442E+03 -1.88206E+04  3.62641E+03 -1.75627E+04  1.44450E+04 -1.67131E+04
  2.39642E+04 -1.20741E+04  3.03846E+04  2.07895E+03  2.27118E+04  1.83015E+04  4.22281E+03  3.48287E+04
 -1.71320E+04  2.91155E+04 -2.69890E+04  9.93872E+03 -2.04063E+04 -1.04462E+04 -4.18114E+03 -1.37460E+04
  2.13079E+03 -3.42376E+03 -3.76230E+03  5.94070E+03 -1.50632E+04  5.12046E+03 -1.48053E+04 -6.27807E+03
 -9.34318E+03 -1.73713E+04  4.89563E+03 -2.14783E+04  1.40703E+04 -1.54898E+04  1.68189E+04 -1.55016E+03
  1.00502E+04  1.19270E+04 -1.00255E+03  1.75374E+04 -1.17490E+04  9.62217E+03 -1.71264E+04 -3.61723E+03
 -1.30327E+04 -1.55973E+04 -1.49554E+03 -2.09891E+04  9.41527E+03 -1.71093E+04  1.75896E+04 -8.43298E+03
  1.59761E+04  5.41003E+02  1.20020E+04  4.25753E+03  5.91830E+03  5.18422E+02  8.24677E+03 -1.53537E+03
  1.56558E+04  2.65883E+03  1.70377E+04  1.40414E+04  1.12537E+04  2.76943E+04 -2.93446E+03  3.02903E+04
 -1.79390E+04  2.38241E+04 -2.80022E+04  1.17737E+04 -2.91798E+04 -2.13709E+03 -2.43563E+04 -1.72236E+04
 -1.10369E+04 -2.38775E+04  7.92459E+03 -2.21850E+04  1.89480E+04 -1.17822E+04  1.72871E+04  4.49210E+03
  6.82567E+03  1.27899E+04 -7.95233E+03  1.16813E+04 -1.42748E+04  2.51234E+03 -1.13804E+04 -9.12516E+03
  5.86202E+01 -1.38112E+04  6.76988E+03 -1.05122E+04  9.05882E+03 -1.15480E+03  1.75729E+03  5.64040E+03
 -6.45263E+03  2.06994E+03 -4.80565E+03 -5.05086E+03  1.47964E+02 -1.19224E+04  8.91562E+03 -1.19627E+04
  1.43215E+04 -6.06890E+03  1.47079E+04  3.10608E+03  1.27697E+04  1.12597E+04  6.02934E+03  1.69811E+04
 -2.24338E+03  1.86312E+04 -1.16251E+04  1.16893E+04 -1.31280E+04  3.26092E+03 -9.60664E+03 -2.77742E+03
 -4.70484E+03 -4.06986E+03 -8.42037E+02  1.59382E+03 -1.88458E+03  2.40015E+03 -4.38873E+03  3.89809E+03
 -8.79619E+03 -3.09169E+02 -1.01440E+04 -7.79385E+03 -4.08104E+03 -1.27919E+04  4.29128E+03 -9.91639E+03
  8.36508E+03 -4.16769E+03  5.88643E+03  2.39900E+03  3.27416E+02  3.48870E+03 -4.14493E+03 -1.99851E+02
 -4.07517E+03 -5.93717E+03 -6.46210E+02 -8.59677E+03  4.72254E+03 -9.71023E+03  1.13122E+04 -4.83549E+03
  1.37110E+04  9.38721E+02  1.00563E+04  7.60139E+03  1.82380E+03  1.02484E+04 -5.68030E+03  9.54722E+03
 -7.70776E+03  3.25028E+03 -3.98324E+03 -1.57523E+03  1.55620E+03 -2.34697E+03  5.35586E+03 -1.00229E+03
  4.86109E+03  3.85288E+03  9.57314E+02  7.58127E+03 -5.12914E+03  6.96969E+03 -9.22403E+03  1.86563E+03
 -5.83899E+03 -4.09348E+03  4.13839E+02 -8.11701E+03  4.38591E+03 -4.03005E+03  4.17771E+03  1.43274E+03
  7.59230E+02  4.38712E+03 -5.02175E+03  5.70903E+03 -6.24424E+03  2.93237E+03 -6.05127E+03 -1.85335E+03
 -3.75510E+03 -7.22892E+03  1.72718E+03 -8.82255E+03  7.45960E+03 -5.62929E+03  7.93000E+03  1.31193E+03
  5.27341E+03  6.30255E+03 -2.94539E+02  8.44212E+03 -6.29715E+03  4.61609E+03 -6.48296E+03 -6.69442E+02
 -6.41389E+03 -5.96921E+03 -1.31452E+03 -5.83288E+03  3.18927E+03 -5.13573E+03  3.72336E+03 -3.29738E+03
  3.03637E+03  5.18125E+02 -7.94847E+01  1.35959E+03  2.70454E+02 -6.08348E+02  5.33330E+02 -2.72379E+03
  4.88450E+03 -1.41329E+03  6.98047E+03  9.55932E+02  6.91766E+03  4.44036E+03  5.87545E+03  8.93493E+03
 -2.08104E+03  1.09476E+04 -9.45812E+03  7.97124E+03 -1.18599E+04  1.52634E+03 -9.57083E+03 -3.67763E+03
 -5.00077E+03 -7.77756E+03 -4.01693E+02 -6.49752E+03  2.44848E+03 -2.70214E+03  2.21732E+03 -2.58651E+03
  1.82047E+03 -1.60433E+03  2.58543E+03 -2.63474E+03  3.72143E+03 -1.66540E+03  4.34615E+03  4.21096E+02
  5.39729E+03  1.56456E+03  1.88204E+03  4.03478E+03 -1.55682E+03  4.08829E+03 -5.08281E+03  3.47568E+03
 -6.36534E+03 -9.47901E+02 -2.84835E+03 -3.91387E+03  1.31355E+02 -6.62962E+03  3.86461E+03 -6.51908E+03
  6.39796E+03 -4.01550E+03  8.30627E+03  3.77720E+02  5.89615E+03  5.34626E+03  1.65542E+03  7.38653E+03
 -2.73826E+03  7.04387E+03 -4.04682E+03  2.21021E+03 -2.47898E+03 -1.15484E+03 -6.31785E+02 -9.54471E+02
 -5.55844E+02  1.02920E+02 -1.22466E+03  2.15394E+03 -2.87884E+03  1.39004E+03 -5.03957E+03 -5.40471E+02
 -2.14114E+03 -4.65327E+03  7.28519E+02 -5.82503E+03  3.31707E+03 -5.53649E+03  4.98013E+03 -1.65984E+03
  5.08791E+03  2.96619E+03  2.46628E+03  4.35824E+03 -8.96463E+02  5.59815E+03 -3.45949E+03  3.50216E+03
 -5.00200E+03  5.52714E+02 -4.23500E+03 -3.21819E+03 -6.04927E+02 -4.27963E+03  2.09337E+03 -3.04293E+03
  3.06002E+03 -1.18869E+03  2.30026E+03  1.01575E+03  6.28743E+02  2.14265E+03  6.19675E+02  7.29106E+02
  1.75972E+03  5.95221E+02  1.39329E+03  1.06994E+03  1.50512E+03  2.68679E+03  1.77276E+03  2.24674E+03
 -1.53710E+03  3.72682E+03 -3.47373E+03  4.67710E+03 -4.25925E+03  1.48548E+03 -5.15977E+03 -1.45461E+03
 -2.17549E+03 -4.80840E+03  8.92078E+02 -5.81486E+03  2.67504E+03 -3.29366E+03  3.77515E+03 -1.02208E+03
  3.02689E+03  2.04197E+03  6.49656E+02  2.68406E+03 -1.40293E+03  1.61149E+03 -1.70994E+03 -1.19951E+02
 -1.00616E+03 -1.88424E+03  1.46320E+03 -1.98834E+03  2.09152E+03 -1.34505E+03  1.71832E+03  4.80646E+02
  1.29268E+03  4.13438E+02  8.31120E+02  1.85864E+02 -3.23312E+02  8.39085E+02  1.80921E+03 -9.59267E+01
  4.62444E+02 -4.85213E+02  2.07593E+03  9.90011E+02  5.27217E+02  2.98181E+03 -3.56112E+02  3.46796E+03
 -2.50842E+03  1.42535E+03 -2.79201E+03  4.33566E+02 -2.74398E+03 -8.61458E+02 -3.37401E+02 -1.48497E+03
  5.80868E+02 -1.62330E+03  1.21648E+03 -9.60020E+02  8.21348E+02  1.42636E+03 -7.53093E+02  1.57777E+03
 -1.66164E+03  1.00048E+03 -1.62779E+03 -1.54963E+03 -6.95891E+02 -2.87882E+03  4.82332E+02 -2.22469E+03
  8.75209E+02 -8.14556E+02  1.14618E+03  2.83864E+02  1.36850E+03 -1.23367E+02  3.46130E+02  1.45736E+03
 -6.25377E+02  4.48814E+02 -8.95463E+02 -4.26431E+02  5.10879E+02 -1.46450E+03  1.83653E+03 -1.12793E+03
  2.18965E+03  5.11740E+02  3.34154E+03  1.22139E+03  1.11919E+03  2.28178E+03 -4.80589E+02  2.45049E+03
 -1.77521E+03  6.69179E+02 -1.94720E+03 -4.21480E+02 -1.04648E+03 -1.79850E+03  7.41882E+02 -9.94802E+02
  1.92142E+03 -8.73342E+02  9.75195E+02  6.40215E+02  4.56499E+02  1.34010E+03  1.28230E+02  1.78564E+03
 -2.23569E+02  1.46663E+03 -5.26635E+02  3.06299E+01  7.03870E+01  4.40715E+02 -6.78854E+02  7.52753E+02
 -7.36605E+02  1.28931E+03 -1.86610E+03  6.57181E+02 -2.39080E+03  2.63355E+01 -3.08887E+03 -1.62859E+03
 -1.36857E+03 -2.96987E+03  5.26694E+02 -3.57521E+03  1.76635E+03 -3.12925E+03  3.45588E+03 -1.34614E+03
  2.95016E+03  3.08636E+02  1.53670E+03  1.85013E+03 -6.08847E+02  1.87120E+03 -9.80243E+02  1.69172E+03
 -1.09714E+03  6.28429E+02 -7.05299E+02 -1.28863E+02 -5.76858E+02  1.24989E+01 -4.51177E+02  1.17354E+02
 -1.00244E+03  2.70367E+02 -7.59916E+02  1.00860E+02  3.30577E+02 -6.43905E+02 -2.16667E+02 -1.15436E+03
  1.71717E+03 -1.19483E+03  8.04644E+02  1.51315E+02  1.32625E+03  1.18990E+03 -2.57905E+02  1.97703E+03
 -1.45752E+03  2.79393E+03 -2.20168E+03  1.62971E+03 -2.22902E+03 -2.78632E+02 -2.00758E+03 -1.65232E+03
 -1.20505E+03 -1.64310E+03  3.33257E+02 -1.80354E+03  1.03340E+03 -9.18484E+02  1.21279E+03  1.53919E+02
  7.04387E+02  7.19690E+02  1.37168E+02  4.60706E+02 -3.92528E+02  7.54413E+01 -7.84563E+01 -4.87636E+02
  4.51822E+02  1.62869E+02  3.62629E+02  8.41674E+02  3.44763E+02  8.06953E+02  2.77250E+02  6.59118E+02
 -5.78386E+02  1.22300E+03 -8.70816E+02  3.28525E+02 -1.23742E+03 -2.38849E+02 -6.20206E+01 -1.38944E+03
  5.70889E+02 -1.06602E+03  8.92737E+02 -3.98646E+02  1.37678E+03 -5.38319E+02  8.51714E+02  8.44547E+02
  3.55172E+02  7.88276E+02 -3.97194E+02  9.27013E+02 -8.85240E+02  7.04723E+02 -6.24375E+02  2.68072E+02
 -9.50313E+01 -2.33591E+02 -4.89660E+02 -5.02069E+01 -9.43157E+02  5.45080E+01 -9.64010E+02 -4.20570E+00
 -1.11855E+03  4.32239E+01 -2.69858E+02 -1.25302E+03  6.36426E+02 -1.92684E+03  7.17345E+02 -4.64203E+02
  1.05237E+03  7.61631E+01  1.43533E+02  3.04397E+02 -3.82515E+02  1.01515E+03 -4.90362E+02  9.14047E+02
