 $NMID ID='MM_0lb_SNR800_8hz_g40_39.RAW', FMTDAT='(8E13.5)'
 TRAMP=1., VOLUME=1. $END
  3.09704E+05  2.18402E+02  3.38038E+05  2.50863E+05  8.52700E+04  3.38230E+05 -1.32568E+05  2.52132E+05
 -1.90805E+05  8.39496E+04 -1.12516E+05 -3.24056E+04  6.12277E+01 -5.05219E+04  5.37596E+04 -4.36693E+02
  3.57234E+04  5.28256E+04 -1.70078E+04  7.60302E+04 -6.12976E+04  6.45907E+04 -8.54452E+04  3.28988E+04
 -8.24829E+04 -1.14986E+04 -5.83317E+04 -5.23941E+04 -1.51740E+04 -7.09103E+04  2.81555E+04 -4.65423E+04
  4.12587E+04  3.68116E+03  1.66954E+04  4.85845E+04 -3.44879E+04  4.85550E+04 -6.83094E+04 -8.86069E+01
 -5.46985E+04 -5.77739E+04 -7.62327E+03 -7.88356E+04  3.47017E+04 -5.69811E+04  4.97775E+04 -1.83685E+04
  4.53046E+04  1.17314E+04  3.29368E+04  2.66835E+04  1.59461E+04  3.07375E+04 -6.03784E+03  2.77075E+04
 -2.26016E+04  1.18253E+04 -1.80310E+04 -5.67015E+03  6.80148E+03 -7.65503E+03  2.32142E+04  1.39684E+04
  6.87349E+03  3.78353E+04 -3.39411E+04  3.69518E+04 -6.53003E+04  2.34459E+03 -5.90189E+04 -4.49829E+04
 -1.26273E+04 -6.61674E+04  4.19971E+04 -4.71687E+04  6.09265E+04 -2.49215E+03  3.65382E+04  3.44742E+04
 -5.34843E+03  3.97052E+04 -3.19884E+04  1.88091E+04 -3.32741E+04 -3.36735E+03 -1.93319E+04 -1.20641E+04
 -9.72280E+03 -1.52543E+04 -5.93859E+02 -1.98008E+04  8.56746E+03 -2.32337E+04  1.62929E+04 -1.22669E+04
  1.03892E+04  5.93341E+03 -1.07712E+04  1.28580E+04 -2.32975E+04 -6.57456E+03 -8.41347E+03 -3.75101E+04
  2.51829E+04 -4.69755E+04  5.23417E+04 -2.10002E+04  4.86975E+04  2.05169E+04  1.71522E+04  4.73390E+04
 -1.69203E+04  3.63155E+04 -2.76429E+04  2.71675E+03 -1.17932E+04 -2.96848E+04  2.19260E+04 -3.66593E+04
  4.45029E+04 -1.13627E+04  4.05560E+04  2.48018E+04  2.16339E+04  5.08684E+04 -8.14374E+03  5.63505E+04
 -3.51648E+04  3.84137E+04 -4.81550E+04  1.05709E+04 -4.79073E+04 -1.83706E+04 -2.63935E+04 -4.23017E+04
  8.05357E+03 -4.20760E+04  3.45819E+04 -1.73830E+04  3.21967E+04  1.17728E+04  5.28283E+03  2.05449E+04
 -1.38124E+04  9.58873E+03 -1.11782E+04 -7.38584E+03  5.47104E+03 -1.11261E+04  1.90709E+04  5.38960E+03
  1.44948E+04  2.29383E+04 -5.27341E+03  2.72740E+04 -2.33898E+04  1.43473E+04 -3.14962E+04 -3.03025E+03
 -2.54941E+04 -1.87945E+04 -1.13002E+04 -2.52777E+04  5.02096E+03 -2.57393E+04  1.95925E+04 -2.33632E+04
  3.22191E+04 -1.44604E+04  3.81033E+04  4.79422E+03  2.71826E+04  2.44921E+04  4.82964E+03  4.12803E+04
 -1.95119E+04  3.37444E+04 -3.05439E+04  1.21514E+04 -2.21819E+04 -1.03613E+04 -4.77117E+03 -1.26246E+04
  5.92280E+02 -1.00118E+03 -7.97592E+03  8.43684E+03 -2.00005E+04  4.97103E+03 -2.06116E+04 -9.93644E+03
 -1.23711E+04 -2.38405E+04  6.25449E+03 -2.81531E+04  1.87960E+04 -1.98279E+04  2.28972E+04 -1.72050E+03
  1.50131E+04  1.63538E+04 -1.28088E+03  2.35579E+04 -1.66786E+04  1.34202E+04 -2.38940E+04 -4.88806E+03
 -1.71722E+04 -2.11356E+04 -2.46627E+03 -2.83762E+04  1.29086E+04 -2.38591E+04  2.31922E+04 -1.21816E+04
  2.24831E+04 -3.93131E+02  1.63078E+04  5.47357E+03  9.17972E+03  1.06056E+03  1.22280E+04 -2.41068E+03
  2.27420E+04  2.63491E+03  2.55268E+04  1.80714E+04  1.80390E+04  3.80450E+04 -3.01051E+03  4.48019E+04
 -2.53171E+04  3.75323E+04 -4.25141E+04  1.98210E+04 -4.49674E+04 -3.51544E+03 -3.63884E+04 -2.65471E+04
 -1.39523E+04 -3.75643E+04  1.34941E+04 -3.29150E+04  2.85823E+04 -1.53446E+04  2.41958E+04  7.41449E+03
  8.32940E+03  1.92905E+04 -1.20035E+04  1.60972E+04 -2.05129E+04  2.38094E+03 -1.49651E+04 -1.27915E+04
 -2.70312E+02 -1.96181E+04  1.04377E+04 -1.47033E+04  1.35190E+04 -1.56502E+03  3.28049E+03  8.84845E+03
 -9.21952E+03  4.22096E+03 -8.82273E+03 -7.38185E+03 -2.27705E+03 -1.83481E+04  1.23515E+04 -1.98270E+04
  2.30195E+04 -1.16900E+04  2.68881E+04  3.45455E+03  2.36900E+04  1.91374E+04  1.10560E+04  2.96847E+04
 -6.29082E+03  3.15416E+04 -2.06975E+04  1.94403E+04 -2.30657E+04  4.24802E+03 -1.58294E+04 -5.96013E+03
 -6.55710E+03 -7.19852E+03 -1.03006E+03  3.97425E+02 -3.40642E+03  3.47284E+03 -7.62721E+03  5.41689E+03
 -1.47067E+04 -1.11156E+03 -1.50878E+04 -1.20712E+04 -6.18926E+03 -2.00593E+04  6.62355E+03 -1.66183E+04
  1.35053E+04 -6.45213E+03  9.37728E+03  4.37927E+03 -4.72480E+02  6.45340E+03 -8.09036E+03 -4.11536E+02
 -7.59985E+03 -1.03094E+04 -1.24190E+03 -1.61366E+04  9.45982E+03 -1.68843E+04  2.08456E+04 -9.28887E+03
  2.38235E+04  2.52991E+03  1.75207E+04  1.49561E+04  3.31331E+03  1.92280E+04 -9.86639E+03  1.59752E+04
 -1.34817E+04  4.39230E+03 -6.87924E+03 -3.82784E+03  2.59576E+03 -4.54720E+03  8.25052E+03 -1.40884E+03
  7.61136E+03  7.34568E+03  9.54902E+02  1.30353E+04 -9.85364E+03  1.25525E+04 -1.59762E+04  2.84433E+03
 -1.08791E+04 -8.35747E+03  2.96415E+02 -1.41725E+04  8.84550E+03 -6.94866E+03  9.93243E+03  3.55012E+03
  2.62573E+03  1.02632E+04 -8.57897E+03  1.23913E+04 -1.44280E+04  5.35859E+03 -1.45946E+04 -5.20030E+03
 -8.06461E+03 -1.62060E+04  3.99033E+03 -1.90714E+04  1.59436E+04 -1.15911E+04  1.75776E+04  3.08235E+03
  1.03079E+04  1.36503E+04 -1.88667E+03  1.64909E+04 -1.20802E+04  9.61506E+03 -1.31889E+04 -1.26202E+03
 -1.08300E+04 -1.07672E+04 -1.70064E+03 -1.20817E+04  6.62683E+03 -9.57856E+03  8.52739E+03 -3.70585E+03
  4.78459E+03  2.71008E+03 -1.31625E+03  2.25949E+03 -9.59491E+02 -3.66004E+03  2.57017E+03 -7.97048E+03
  1.22142E+04 -4.97913E+03  1.68606E+04  1.48146E+03  1.61531E+04  1.15881E+04  1.06530E+04  2.15567E+04
 -5.16950E+03  2.47943E+04 -2.07210E+04  1.84785E+04 -2.72060E+04  3.55364E+03 -2.15814E+04 -9.98389E+03
 -1.07497E+04 -1.76798E+04 -6.79560E+01 -1.51419E+04  5.74686E+03 -8.62134E+03  4.91236E+03 -4.90045E+03
  4.21696E+03 -3.04809E+03  3.57878E+03 -3.92109E+03  5.87590E+03 -4.01358E+03  8.22740E+03 -1.64618E+03
  1.12264E+04  2.32326E+03  5.87427E+03  9.63980E+03 -2.65733E+03  1.21091E+04 -1.19553E+04  9.58156E+03
 -1.55564E+04 -1.40087E+03 -1.05009E+04 -1.05440E+04 -1.37349E+03 -1.65583E+04  9.16139E+03 -1.62221E+04
  1.74065E+04 -9.23425E+03  2.07191E+04  3.15412E+03  1.43959E+04  1.44362E+04  2.03031E+03  1.88639E+04
 -7.51553E+03  1.50647E+04 -1.07434E+04  5.23704E+03 -8.07049E+03 -1.92646E+03 -3.08109E+03 -2.40147E+03
 -1.91956E+03 -2.52479E+02 -2.73961E+03  3.17669E+03 -6.33879E+03  1.93877E+03 -1.08434E+04 -1.29986E+03
 -7.82217E+03 -1.05873E+04  3.47679E+02 -1.55138E+04  9.59558E+03 -1.50897E+04  1.55047E+04 -4.23682E+03
  1.53367E+04  7.67432E+03  7.55507E+03  1.41380E+04 -3.23761E+03  1.54461E+04 -1.15558E+04  9.84933E+03
 -1.47749E+04  8.66299E+02 -1.16574E+04 -9.23382E+03 -1.51514E+03 -1.26913E+04  6.80162E+03 -9.77335E+03
  9.97089E+03 -3.07450E+03  6.79695E+03  2.26963E+03  2.58836E+03  4.49525E+03  1.45782E+03  2.36621E+03
  2.85413E+03  1.29074E+03  3.60410E+03  2.44140E+03  4.72250E+03  4.85689E+03  3.51899E+03  8.32177E+03
 -3.42953E+03  1.24339E+04 -1.11926E+04  1.23510E+04 -1.64043E+04  3.01215E+03 -1.67978E+04 -6.88785E+03
 -8.10036E+03 -1.63877E+04  2.02377E+03 -1.79188E+04  9.72709E+03 -1.14435E+04  1.31051E+04 -3.24823E+03
  1.00517E+04  5.87399E+03  2.51187E+03  8.97365E+03 -4.50025E+03  6.18091E+03 -6.77350E+03 -8.80869E+02
 -2.98683E+03 -7.14485E+03  3.82539E+03 -7.21301E+03  6.93334E+03 -3.49271E+03  6.63488E+03  1.72556E+03
  4.26736E+03  3.56035E+03  1.34438E+03  3.20226E+03 -8.87831E+02  2.47184E+03  1.68758E+03 -6.18337E+02
  2.59627E+03 -4.85878E+02  6.31156E+03  3.08070E+03  3.54126E+03  8.84035E+03 -1.45836E+03  1.13005E+04
 -7.61946E+03  7.58874E+03 -1.08470E+04  1.95898E+03 -9.57118E+03 -3.40754E+03 -4.22258E+03 -6.44864E+03
  1.03523E+03 -6.72547E+03  4.04611E+03 -3.09202E+03  3.77380E+03  3.11729E+03 -1.59828E+03  5.67781E+03
 -6.95902E+03  2.67712E+03 -8.29735E+03 -3.94340E+03 -4.58118E+03 -9.32671E+03  1.84752E+03 -9.03708E+03
  5.63760E+03 -5.48344E+03  6.35926E+03 -1.18658E+03  5.50964E+03  2.47784E+03  7.18912E+02  4.68655E+03
 -3.36080E+03  1.56750E+03 -3.45179E+03 -3.63128E+03  1.55632E+03 -7.49356E+03  8.35467E+03 -5.59434E+03
  1.07293E+04  6.28801E+02  9.79045E+03  7.27946E+03  3.27557E+03  1.12755E+04 -4.02861E+03  1.05888E+04
 -8.80799E+03  4.46527E+03 -9.54079E+03 -1.19363E+03 -4.85729E+03 -7.38416E+03  1.60759E+03 -6.71656E+03
  6.58233E+03 -3.30640E+03  5.61914E+03  2.61135E+03  1.94042E+03  6.03890E+03 -8.80439E+02  5.20401E+03
 -2.80860E+03  3.16810E+03 -2.80531E+03  1.05826E+03 -1.31242E+03  1.15600E+03 -1.85672E+03  2.07848E+03
 -2.67852E+03  4.20743E+03 -7.62630E+03  3.86062E+03 -1.09850E+04  5.54780E+02 -1.19556E+04 -7.28586E+03
 -6.53421E+03 -1.48403E+04  2.97415E+03 -1.72845E+04  1.07864E+04 -1.30425E+04  1.60926E+04 -4.87280E+03
  1.47507E+04  3.01140E+03  9.20364E+03  1.01264E+04  1.08926E+03  1.15731E+04 -4.30522E+03  8.65829E+03
 -6.54363E+03  3.00409E+03 -4.08082E+03 -1.46420E+03 -1.17945E+03 -1.44314E+03 -4.56330E+02 -3.53990E+02
 -1.92854E+03  6.60294E+02 -2.20144E+03 -6.50769E+02 -9.11657E+02 -3.07934E+03  5.64762E+02 -4.42976E+03
  5.33612E+03 -3.85980E+03  7.71017E+03  3.80899E+02  8.83502E+03  6.27344E+03  2.24922E+03  1.20418E+04
 -5.62291E+03  1.32661E+04 -1.21000E+04  7.81232E+03 -1.41146E+04 -9.83895E+02 -1.08678E+04 -8.42323E+03
 -4.93590E+03 -1.20625E+04  3.15852E+03 -1.07656E+04  7.22916E+03 -5.96289E+03  8.03290E+03  3.05445E+02
  4.14510E+03  3.84893E+03 -5.44634E+02  3.19350E+03 -2.24279E+03 -3.05955E+02  1.63193E+02 -2.52044E+03
  3.51394E+03 -1.95127E+03  4.92390E+03  1.56885E+03  3.26271E+03  4.82191E+03 -9.48137E+01  5.92397E+03
 -5.16851E+03  5.72290E+03 -8.28855E+03  2.44702E+01 -7.13884E+03 -5.82248E+03 -9.71413E+02 -1.00397E+04
  5.53126E+03 -8.31229E+03  9.02338E+03 -2.94209E+03  8.99819E+03  2.19156E+03  5.28474E+03  7.15334E+03
  1.26885E+03  8.15751E+03 -3.18135E+03  6.40570E+03 -5.08104E+03  3.47060E+03 -3.99647E+03  7.57012E+02
 -2.16620E+03 -7.74468E+01 -2.57892E+03  1.15733E+03 -4.39673E+03  1.59746E+03 -6.00537E+03 -1.32767E+03
 -5.63659E+03 -4.47666E+03 -1.71307E+03 -8.21044E+03  3.70888E+03 -8.43604E+03  7.00471E+03 -4.45144E+03
  7.96589E+03  6.58439E+02  4.59396E+03  5.32802E+03 -1.03600E+03  8.39181E+03 -6.14765E+03  4.98302E+03
