 $NMID ID='MM_0lb_SNR800_13hz_g45_59.RAW', FMTDAT='(8E13.5)'
 TRAMP=1., VOLUME=1. $END
  3.09622E+05  3.24277E+02  3.37695E+05  2.50923E+05  8.48071E+04  3.37628E+05 -1.32825E+05  2.51049E+05
 -1.90394E+05  8.32482E+04 -1.11952E+05 -3.24898E+04  8.25923E+02 -5.03931E+04  5.39771E+04  1.35310E+02
  3.52296E+04  5.25557E+04 -1.65676E+04  7.55867E+04 -6.09551E+04  6.36589E+04 -8.40932E+04  3.20329E+04
 -8.12124E+04 -1.15709E+04 -5.71718E+04 -5.13276E+04 -1.50253E+04 -6.99142E+04  2.74689E+04 -4.60897E+04
  4.01396E+04  3.68173E+03  1.62634E+04  4.78428E+04 -3.44048E+04  4.71917E+04 -6.73155E+04 -2.34442E+02
 -5.34325E+04 -5.69415E+04 -6.87670E+03 -7.75773E+04  3.39885E+04 -5.54221E+04  4.81130E+04 -1.68735E+04
  4.35651E+04  1.15814E+04  3.18899E+04  2.56561E+04  1.59374E+04  2.96344E+04 -5.10906E+03  2.74619E+04
 -2.18422E+04  1.23501E+04 -1.85028E+04 -5.00706E+03  5.69854E+03 -7.62452E+03  2.24448E+04  1.24255E+04
  7.26135E+03  3.54884E+04 -3.21498E+04  3.55152E+04 -6.34330E+04  2.19302E+03 -5.73569E+04 -4.29892E+04
 -1.28278E+04 -6.34219E+04  4.00477E+04 -4.53406E+04  5.83158E+04 -2.44779E+03  3.44865E+04  3.23858E+04
 -6.15601E+03  3.62949E+04 -3.04144E+04  1.61075E+04 -3.08987E+04 -4.41340E+03 -1.67633E+04 -1.10410E+04
 -8.57832E+03 -1.32610E+04 -7.13787E+02 -1.83748E+04  7.16473E+03 -2.32116E+04  1.56728E+04 -1.32540E+04
  1.15678E+04  5.56233E+03 -8.27951E+03  1.31271E+04 -2.16554E+04 -4.67537E+03 -8.33165E+03 -3.39640E+04
  2.30516E+04 -4.35570E+04  4.82668E+04 -1.95646E+04  4.53958E+04  1.91342E+04  1.57464E+04  4.44871E+04
 -1.61344E+04  3.39132E+04 -2.58707E+04  1.90051E+03 -9.88031E+03 -2.82530E+04  2.08200E+04 -3.42316E+04
  4.12662E+04 -9.18482E+03  3.59102E+04  2.40182E+04  1.85280E+04  4.68433E+04 -8.00595E+03  5.06294E+04
 -3.21472E+04  3.45123E+04 -4.25497E+04  9.79593E+03 -4.28751E+04 -1.67866E+04 -2.41158E+04 -3.87347E+04
  7.45818E+03 -3.80754E+04  3.17503E+04 -1.50981E+04  2.94291E+04  1.13853E+04  4.13257E+03  1.90895E+04
 -1.38424E+04  8.50374E+03 -1.03943E+04 -7.38990E+03  5.84049E+03 -1.08994E+04  1.81356E+04  6.26097E+03
  1.36726E+04  2.24666E+04 -5.90335E+03  2.51946E+04 -2.23341E+04  1.16244E+04 -2.85549E+04 -4.61201E+03
 -2.11977E+04 -1.73387E+04 -8.68482E+03 -2.07736E+04  4.16083E+03 -2.05752E+04  1.61856E+04 -1.88795E+04
  2.68793E+04 -1.28904E+04  3.29163E+04  3.35382E+03  2.39724E+04  2.03362E+04  4.39528E+03  3.69332E+04
 -1.78047E+04  3.08703E+04 -2.81167E+04  1.06895E+04 -2.09060E+04 -1.03650E+04 -4.28678E+03 -1.33454E+04
  1.91926E+03 -2.34776E+03 -4.88006E+03  6.85264E+03 -1.65069E+04  5.18905E+03 -1.67694E+04 -7.18468E+03
 -1.01753E+04 -1.95462E+04  5.48398E+03 -2.33208E+04  1.55328E+04 -1.71430E+04  1.83869E+04 -1.70659E+03
  1.18654E+04  1.34320E+04 -1.22147E+03  1.94443E+04 -1.35973E+04  1.12659E+04 -1.97183E+04 -4.40798E+03
 -1.46077E+04 -1.75615E+04 -1.95028E+03 -2.35820E+04  1.06572E+04 -1.90758E+04  1.94888E+04 -9.43280E+03
  1.82356E+04 -1.70112E+01  1.28019E+04  4.66646E+03  7.05810E+03  8.94568E+02  9.71464E+03 -1.63820E+03
  1.77716E+04  2.79287E+03  2.00806E+04  1.55934E+04  1.32012E+04  3.10676E+04 -2.76655E+03  3.53523E+04
 -2.03632E+04  2.84658E+04 -3.26315E+04  1.40793E+04 -3.45828E+04 -2.46383E+03 -2.85746E+04 -2.01010E+04
 -1.22233E+04 -2.86362E+04  9.99782E+03 -2.56298E+04  2.21441E+04 -1.30585E+04  1.95558E+04  5.95594E+03
  7.29920E+03  1.44988E+04 -9.11227E+03  1.25136E+04 -1.68656E+04  2.59442E+03 -1.27203E+04 -1.02584E+04
 -3.83112E+02 -1.59216E+04  8.45997E+03 -1.18130E+04  1.06111E+04 -1.22706E+03  2.38058E+03  7.23426E+03
 -7.17914E+03  2.85780E+03 -6.40562E+03 -5.91699E+03 -4.95578E+02 -1.39308E+04  9.72531E+03 -1.47422E+04
  1.74656E+04 -7.84593E+03  1.92429E+04  2.91748E+03  1.62690E+04  1.38541E+04  7.52834E+03  2.13833E+04
 -3.33479E+03  2.30852E+04 -1.46277E+04  1.45512E+04 -1.69322E+04  3.48327E+03 -1.17404E+04 -4.10832E+03
 -5.35304E+03 -5.11866E+03 -7.82570E+02  8.32347E+02 -2.22170E+03  2.77972E+03 -5.60859E+03  4.26800E+03
 -1.08893E+04 -7.21513E+02 -1.15081E+04 -9.19954E+03 -5.00434E+03 -1.51879E+04  4.67731E+03 -1.15578E+04
  1.00186E+04 -5.07566E+03  7.09873E+03  3.16747E+03  3.99553E+02  4.73634E+03 -5.42709E+03 -5.72326E+01
 -5.19541E+03 -7.39702E+03 -1.16428E+03 -1.12146E+04  6.64352E+03 -1.16747E+04  1.42800E+04 -6.35135E+03
  1.70928E+04  1.50210E+03  1.29810E+04  9.94290E+03  2.44623E+03  1.35243E+04 -7.37793E+03  1.15091E+04
 -9.66353E+03  3.61446E+03 -4.64354E+03 -2.32174E+03  1.81086E+03 -3.15784E+03  6.50818E+03 -9.79640E+02
  5.86537E+03  5.12416E+03  1.01071E+03  9.35087E+03 -6.77262E+03  8.83512E+03 -1.12387E+04  2.02058E+03
 -7.51880E+03 -5.76795E+03  4.33602E+02 -9.54215E+03  6.06387E+03 -4.95473E+03  6.23965E+03  2.04079E+03
  1.38494E+03  6.46394E+03 -6.19427E+03  7.96929E+03 -8.84722E+03  3.93443E+03 -8.97978E+03 -2.91583E+03
 -5.18466E+03 -1.04708E+04  2.17797E+03 -1.20626E+04  1.07153E+04 -7.56668E+03  1.16164E+04  1.97921E+03
  7.32897E+03  9.07785E+03 -5.70617E+02  1.13899E+04 -7.99090E+03  6.48909E+03 -8.71125E+03 -9.45967E+02
 -7.96654E+03 -7.56585E+03 -1.37559E+03 -8.25481E+03  4.09830E+03 -6.98706E+03  5.03797E+03 -3.14092E+03
  3.78767E+03  1.10291E+03 -4.97599E+02  1.51759E+03  1.20388E+02 -1.38003E+03  1.20305E+03 -4.57574E+03
  7.43500E+03 -2.49703E+03  1.01593E+04  1.10910E+03  9.89388E+03  6.81302E+03  7.47890E+03  1.32891E+04
 -2.81801E+03  1.54662E+04 -1.33541E+04  1.16154E+04 -1.68773E+04  1.90831E+03 -1.36807E+04 -5.58779E+03
 -7.16558E+03 -1.17663E+04 -5.49133E+02 -9.20039E+03  3.63997E+03 -4.87668E+03  3.34078E+03 -3.64351E+03
  2.41989E+03 -2.44238E+03  3.26628E+03 -3.07575E+03  4.50300E+03 -2.36069E+03  5.91251E+03 -1.60177E+01
  6.81945E+03  1.73837E+03  3.13350E+03  6.19939E+03 -1.83644E+03  6.41878E+03 -6.85256E+03  5.30386E+03
 -9.18268E+03 -1.36561E+03 -4.77858E+03 -6.65034E+03 -4.37847E+02 -9.69292E+03  5.67200E+03 -1.00567E+04
  1.03788E+04 -5.89438E+03  1.24755E+04  1.27486E+03  8.78253E+03  8.48356E+03  1.55957E+03  1.13373E+04
 -4.40482E+03  9.66407E+03 -6.51599E+03  3.43508E+03 -4.34982E+03 -1.21012E+03 -1.77194E+03 -1.50001E+03
 -7.33497E+02  2.24539E+02 -1.40111E+03  2.51506E+03 -4.04248E+03  1.76387E+03 -6.87140E+03 -9.41874E+02
 -4.12265E+03 -6.65684E+03  5.43417E+02 -8.94478E+03  5.22610E+03 -8.32834E+03  8.73993E+03 -2.33210E+03
  8.79751E+03  4.44260E+03  4.11001E+03  7.09757E+03 -2.04582E+03  8.92919E+03 -6.21183E+03  5.47917E+03
 -7.87754E+03  3.60955E+02 -6.14915E+03 -5.31657E+03 -6.87358E+02 -7.29028E+03  3.66126E+03 -5.27415E+03
  5.48698E+03 -2.05084E+03  3.92300E+03  1.61499E+03  1.72643E+03  2.85117E+03  6.27731E+02  1.26770E+03
  2.15729E+03  8.75516E+02  2.25861E+03  1.36820E+03  2.50179E+03  3.47826E+03  2.39031E+03  4.35738E+03
 -2.12293E+03  6.56062E+03 -5.75856E+03  7.32090E+03 -8.11086E+03  1.90607E+03 -9.37519E+03 -2.61417E+03
 -4.05213E+03 -8.34407E+03  1.07334E+03 -9.86778E+03  5.16022E+03 -5.79901E+03  6.76656E+03 -1.72857E+03
  5.36196E+03  3.59078E+03  1.30510E+03  4.74970E+03 -2.41292E+03  2.88880E+03 -3.15108E+03 -7.07021E+02
 -1.50710E+03 -3.77839E+03  2.18821E+03 -3.74876E+03  3.16608E+03 -1.63938E+03  2.95490E+03  1.00148E+03
  1.69283E+03  1.68414E+03  1.18781E+03  9.91680E+02 -4.86176E+02  1.19092E+03  1.41332E+03 -2.40024E+02
  1.03729E+03 -7.50133E+02  3.60445E+03  1.39883E+03  1.58640E+03  4.81912E+03 -5.35586E+02  6.14552E+03
 -3.83688E+03  3.31516E+03 -5.08833E+03  8.50835E+02 -4.83930E+03 -1.88682E+03 -1.57146E+03 -2.70435E+03
  7.40340E+02 -3.30345E+03  1.86915E+03 -1.28227E+03  1.39404E+03  1.83063E+03 -9.52729E+02  2.50191E+03
 -3.42933E+03  1.38653E+03 -3.63014E+03 -1.82672E+03 -2.22367E+03 -4.70374E+03  7.37883E+02 -4.21406E+03
  2.54286E+03 -2.33954E+03  2.58335E+03 -1.22640E+02  2.95507E+03  8.45030E+02  3.52786E+02  2.24413E+03
 -1.29338E+03  3.28284E+02 -2.14465E+03 -1.26553E+03  9.91685E+02 -3.21517E+03  4.11346E+03 -2.29191E+03
  4.66378E+03  3.53000E+02  5.67836E+03  3.03329E+03  2.03487E+03  5.06430E+03 -1.67656E+03  4.93709E+03
 -4.00148E+03  1.95204E+03 -4.45119E+03 -4.51264E+02 -2.17872E+03 -3.29543E+03  7.17371E+02 -2.60282E+03
  3.66789E+03 -1.35901E+03  2.56732E+03  8.98684E+02  9.55772E+02  3.15528E+03 -2.98425E+02  2.50187E+03
 -1.61963E+03  1.80989E+03 -1.27530E+03  5.40911E+02 -3.75218E+02  5.15794E+02 -1.26296E+03  1.34544E+03
 -1.47432E+03  2.31381E+03 -3.75086E+03  1.48417E+03 -4.92203E+03 -1.11201E+02 -5.86003E+03 -3.18800E+03
 -2.60908E+03 -6.31099E+03  1.25085E+03 -7.49523E+03  4.19303E+03 -6.34742E+03  7.06611E+03 -2.21397E+03
  6.50203E+03  4.97949E+02  4.18298E+03  4.36001E+03 -1.17065E+02  5.02133E+03 -1.55137E+03  3.64202E+03
 -2.81581E+03  1.82256E+03 -1.82405E+03 -5.55469E+02 -1.10289E+03 -9.86098E+01 -9.96688E+02  1.06821E+02
 -1.71175E+03  3.50796E+01 -1.66626E+03 -2.46240E+02  8.46640E+00 -1.17137E+03 -1.68753E+01 -2.08173E+03
  2.58237E+03 -1.75134E+03  2.44880E+03  3.37451E+01  3.26139E+03  2.92838E+03  4.78166E+02  4.71508E+03
 -2.34440E+03  5.68839E+03 -5.32056E+03  3.33555E+03 -5.31474E+03 -7.04348E+02 -3.91056E+03 -3.61875E+03
 -1.80425E+03 -4.78044E+03  1.24536E+03 -4.05132E+03  3.27695E+03 -2.10560E+03  2.82941E+03  2.58510E+02
  1.99924E+03  1.55550E+03 -3.13647E+02  1.43972E+03 -1.11074E+03  1.35313E+02 -1.00158E+02 -8.40513E+02
  1.59558E+03 -3.51457E+02  1.78559E+03  6.09480E+02  9.53439E+02  2.10148E+03  6.99257E+02  1.98364E+03
 -2.04303E+03  1.85644E+03 -2.74663E+03  2.65568E+02 -2.92724E+03 -2.11976E+03 -5.03745E+02 -4.07099E+03
  2.06290E+03 -3.16607E+03  3.18473E+03 -8.80447E+02  3.45816E+03  3.56499E+02  1.86400E+03  2.83803E+03
  7.31955E+02  2.91277E+03 -1.21142E+03  2.33263E+03 -2.00625E+03  1.45950E+03 -1.33393E+03  1.19504E+02
 -9.85488E+02  2.76142E+02 -1.14551E+03  3.52558E+02 -1.90170E+03  4.15017E+02 -2.40413E+03 -7.81050E+02
 -2.27390E+03 -1.44998E+03 -9.36688E+02 -3.12596E+03  1.52028E+03 -3.59724E+03  2.83292E+03 -1.06873E+03
  2.81559E+03  6.62296E+02  1.14449E+03  1.92521E+03 -4.81489E+02  2.98743E+03 -1.81674E+03  1.72973E+03
