 $NMID ID='MM_0lb_SNR800_13hz_g45_13.RAW', FMTDAT='(8E13.5)'
 TRAMP=1., VOLUME=1. $END
  3.09718E+05  2.11690E+02  3.37556E+05  2.50748E+05  8.43413E+04  3.38128E+05 -1.32620E+05  2.51180E+05
 -1.90411E+05  8.33735E+04 -1.11941E+05 -3.24758E+04  5.93541E+02 -5.08523E+04  5.39169E+04 -1.31984E+02
  3.53761E+04  5.27773E+04 -1.69663E+04  7.53534E+04 -6.07917E+04  6.34866E+04 -8.42100E+04  3.21400E+04
 -8.09562E+04 -1.15956E+04 -5.74571E+04 -5.13293E+04 -1.48210E+04 -6.99126E+04  2.76278E+04 -4.57825E+04
  4.01340E+04  3.64494E+03  1.64429E+04  4.78752E+04 -3.42743E+04  4.72587E+04 -6.70473E+04 -2.07736E+02
 -5.37717E+04 -5.69745E+04 -6.72577E+03 -7.72751E+04  3.37992E+04 -5.51594E+04  4.80703E+04 -1.73874E+04
  4.36718E+04  1.13698E+04  3.21621E+04  2.52629E+04  1.59069E+04  2.94681E+04 -5.09765E+03  2.73492E+04
 -2.20053E+04  1.24851E+04 -1.84460E+04 -5.27005E+03  5.58972E+03 -7.48130E+03  2.25515E+04  1.21279E+04
  6.97432E+03  3.56214E+04 -3.22807E+04  3.54181E+04 -6.36833E+04  2.14972E+03 -5.73693E+04 -4.30396E+04
 -1.26335E+04 -6.34483E+04  4.00574E+04 -4.55883E+04  5.86112E+04 -2.18256E+03  3.45085E+04  3.23633E+04
 -5.93417E+03  3.63584E+04 -3.04527E+04  1.61285E+04 -3.08883E+04 -4.42098E+03 -1.68490E+04 -1.11001E+04
 -8.59726E+03 -1.34386E+04 -5.21693E+02 -1.85542E+04  7.52141E+03 -2.30594E+04  1.51894E+04 -1.34076E+04
  1.12471E+04  5.27886E+03 -8.46759E+03  1.30614E+04 -2.14494E+04 -4.48430E+03 -8.36443E+03 -3.41113E+04
  2.27621E+04 -4.37069E+04  4.84813E+04 -1.98314E+04  4.54847E+04  1.96765E+04  1.57944E+04  4.45298E+04
 -1.60981E+04  3.36329E+04 -2.56164E+04  2.09071E+03 -1.03058E+04 -2.79244E+04  2.06517E+04 -3.39650E+04
  4.14029E+04 -9.34501E+03  3.57161E+04  2.34802E+04  1.84830E+04  4.68316E+04 -8.04138E+03  5.07351E+04
 -3.18869E+04  3.44875E+04 -4.23348E+04  9.91601E+03 -4.32132E+04 -1.71012E+04 -2.35511E+04 -3.82308E+04
  7.46460E+03 -3.82309E+04  3.18666E+04 -1.49916E+04  2.93912E+04  1.11124E+04  3.91732E+03  1.93746E+04
 -1.36811E+04  8.44521E+03 -1.06824E+04 -7.86813E+03  5.84906E+03 -1.06587E+04  1.81541E+04  6.20078E+03
  1.38330E+04  2.21573E+04 -5.67827E+03  2.51424E+04 -2.22561E+04  1.16870E+04 -2.86470E+04 -4.35425E+03
 -2.12637E+04 -1.74717E+04 -8.77107E+03 -2.10723E+04  4.20646E+03 -2.02873E+04  1.63306E+04 -1.87257E+04
  2.68911E+04 -1.28804E+04  3.30967E+04  3.07344E+03  2.41138E+04  2.02844E+04  4.23219E+03  3.70152E+04
 -1.82301E+04  3.06183E+04 -2.81685E+04  1.10998E+04 -2.12789E+04 -1.02169E+04 -4.18786E+03 -1.38548E+04
  1.29921E+03 -2.81413E+03 -5.38255E+03  6.98460E+03 -1.68067E+04  5.18896E+03 -1.67149E+04 -7.27692E+03
 -1.01862E+04 -1.91886E+04  5.45931E+03 -2.35822E+04  1.58391E+04 -1.66151E+04  1.84206E+04 -1.77049E+03
  1.15165E+04  1.37095E+04 -1.14767E+03  1.97205E+04 -1.35189E+04  1.11634E+04 -1.93478E+04 -4.34262E+03
 -1.44460E+04 -1.74715E+04 -2.02625E+03 -2.31209E+04  1.04803E+04 -1.95667E+04  1.95385E+04 -9.51399E+03
  1.81178E+04  5.27779E+02  1.34588E+04  4.53975E+03  7.09045E+03  9.81742E+02  9.78576E+03 -1.68936E+03
  1.80460E+04  2.58420E+03  2.00803E+04  1.56188E+04  1.28836E+04  3.11263E+04 -3.10290E+03  3.52693E+04
 -2.01495E+04  2.82803E+04 -3.32121E+04  1.44597E+04 -3.44763E+04 -2.73155E+03 -2.86326E+04 -2.00054E+04
 -1.22580E+04 -2.86169E+04  1.01253E+04 -2.58370E+04  2.24018E+04 -1.26235E+04  1.96602E+04  5.87459E+03
  7.22074E+03  1.48777E+04 -9.51070E+03  1.31896E+04 -1.65065E+04  2.37115E+03 -1.27736E+04 -1.05458E+04
 -3.79529E+02 -1.56347E+04  8.52914E+03 -1.18748E+04  1.08651E+04 -1.17322E+03  2.39426E+03  7.09008E+03
 -7.05501E+03  2.86819E+03 -6.06599E+03 -5.74605E+03 -8.04403E+02 -1.42528E+04  9.67988E+03 -1.48361E+04
  1.70283E+04 -7.90434E+03  1.88837E+04  2.87705E+03  1.63500E+04  1.39668E+04  7.77661E+03  2.13219E+04
 -3.58188E+03  2.33446E+04 -1.47283E+04  1.43192E+04 -1.69103E+04  3.67285E+03 -1.18249E+04 -3.65635E+03
 -5.40248E+03 -5.53247E+03 -1.10881E+03  8.94442E+02 -2.27480E+03  2.94270E+03 -5.42073E+03  4.22523E+03
 -1.08564E+04 -8.91037E+02 -1.16925E+04 -9.23461E+03 -4.30401E+03 -1.51699E+04  4.57342E+03 -1.18577E+04
  9.77645E+03 -5.30270E+03  7.16183E+03  3.11162E+03 -6.23625E+01  4.67824E+03 -5.59027E+03 -6.73212E+01
 -5.43925E+03 -7.59135E+03 -8.13956E+02 -1.09922E+04  6.32171E+03 -1.20469E+04  1.47095E+04 -6.41051E+03
  1.72826E+04  1.57075E+03  1.27639E+04  9.81676E+03  2.71680E+03  1.37453E+04 -7.29617E+03  1.12798E+04
 -9.47176E+03  3.65570E+03 -5.04869E+03 -2.59624E+03  1.56519E+03 -3.11617E+03  6.84595E+03 -1.01288E+03
  5.60837E+03  4.84612E+03  1.15333E+03  9.42696E+03 -6.84711E+03  8.92954E+03 -1.14697E+04  2.20194E+03
 -7.48412E+03 -5.66570E+03  3.06653E+02 -9.62758E+03  5.91070E+03 -4.90267E+03  6.45385E+03  2.28562E+03
  1.48582E+03  6.32289E+03 -6.00417E+03  7.77310E+03 -8.76907E+03  3.67165E+03 -8.66865E+03 -2.91028E+03
 -5.06484E+03 -1.05452E+04  2.46701E+03 -1.18974E+04  1.01733E+04 -7.30673E+03  1.10992E+04  1.66341E+03
  6.81733E+03  8.84128E+03 -4.46507E+02  1.12184E+04 -7.86120E+03  6.17759E+03 -8.63782E+03 -6.85930E+02
 -8.10241E+03 -7.92710E+03 -1.51803E+03 -8.19458E+03  4.25532E+03 -6.88169E+03  5.23393E+03 -3.24741E+03
  3.77236E+03  7.80962E+02 -3.86452E+02  1.58539E+03 -6.99233E+01 -1.68446E+03  1.11101E+03 -4.17392E+03
  7.18682E+03 -2.73947E+03  9.58173E+03  6.81201E+02  1.02810E+04  6.69158E+03  7.09955E+03  1.32173E+04
 -2.95545E+03  1.56124E+04 -1.31535E+04  1.14015E+04 -1.68097E+04  2.19164E+03 -1.36186E+04 -5.55032E+03
 -7.00994E+03 -1.11970E+04 -6.80438E+02 -9.85931E+03  3.54306E+03 -4.86631E+03  3.04256E+03 -3.61671E+03
  2.41628E+03 -1.89252E+03  2.95856E+03 -2.95051E+03  4.33581E+03 -2.37566E+03  5.57227E+03 -5.11743E+02
  6.96935E+03  1.27239E+03  3.57187E+03  6.05310E+03 -1.71469E+03  6.58534E+03 -7.44568E+03  5.36602E+03
 -9.42519E+03 -1.41626E+03 -5.00800E+03 -6.23129E+03 -4.75803E+02 -9.72385E+03  5.65991E+03 -9.90887E+03
  1.00299E+04 -5.72863E+03  1.23153E+04  1.37913E+03  8.64742E+03  8.38414E+03  1.40623E+03  1.13564E+04
 -4.36313E+03  9.52328E+03 -6.41994E+03  3.44056E+03 -4.21023E+03 -1.37059E+03 -1.47421E+03 -1.01367E+03
 -6.08150E+02  2.95506E+01 -1.41078E+03  2.34304E+03 -4.35561E+03  1.65587E+03 -6.84273E+03 -8.19392E+02
 -4.19099E+03 -6.80431E+03  4.61485E+02 -8.93787E+03  5.67090E+03 -8.36430E+03  8.21834E+03 -2.09601E+03
  8.31532E+03  4.45074E+03  4.05639E+03  7.72790E+03 -1.79019E+03  8.96254E+03 -5.79653E+03  5.29524E+03
 -8.10546E+03  4.71600E+02 -6.30663E+03 -5.29409E+03 -4.78399E+02 -7.11120E+03  3.55354E+03 -5.35470E+03
  5.39159E+03 -2.28631E+03  3.89203E+03  1.09059E+03  1.57077E+03  2.89703E+03  1.15871E+03  1.11820E+03
  2.12361E+03  5.88475E+02  2.14440E+03  1.57485E+03  2.33822E+03  3.40470E+03  2.34989E+03  4.60080E+03
 -1.83885E+03  6.77731E+03 -6.03674E+03  7.13749E+03 -8.27647E+03  1.66532E+03 -8.79290E+03 -3.04774E+03
 -4.17272E+03 -8.45435E+03  1.13621E+03 -9.85487E+03  4.80017E+03 -5.84700E+03  7.10819E+03 -2.10153E+03
  5.51749E+03  3.17431E+03  1.21711E+03  4.85594E+03 -2.12797E+03  3.13099E+03 -3.37606E+03 -2.86038E+02
 -1.40863E+03 -3.48237E+03  2.24062E+03 -3.62890E+03  3.49624E+03 -1.74395E+03  3.38117E+03  8.20554E+02
  1.99245E+03  1.21667E+03  7.12916E+02  9.81352E+02 -7.19202E+02  1.54679E+03  1.66144E+03 -3.36118E+02
  9.08159E+02 -5.01931E+02  3.38401E+03  1.55393E+03  1.33851E+03  4.74602E+03 -1.06964E+03  5.96483E+03
 -4.01330E+03  3.32114E+03 -4.92193E+03  6.92587E+02 -4.77129E+03 -1.75336E+03 -1.27959E+03 -3.11657E+03
  7.05350E+02 -2.89023E+03  2.16109E+03 -1.47520E+03  1.58520E+03  1.86464E+03 -1.12609E+03  2.51752E+03
 -3.25341E+03  1.77023E+03 -3.75054E+03 -2.29163E+03 -2.22425E+03 -4.56156E+03  5.79502E+02 -4.21842E+03
  2.09897E+03 -2.26264E+03  2.68791E+03  6.86220E+01  2.63431E+03  9.56543E+02  8.94923E+02  2.67677E+03
 -1.27463E+03  6.26229E+02 -1.93204E+03 -1.32413E+03  5.52261E+02 -3.33701E+03  3.61283E+03 -2.92636E+03
  4.56490E+03  3.06230E+02  5.05305E+03  2.86590E+03  1.93324E+03  4.93989E+03 -1.45893E+03  4.71845E+03
 -4.14416E+03  1.59335E+03 -4.10985E+03 -5.89241E+02 -2.33365E+03 -3.37946E+03  6.85606E+02 -2.75137E+03
  3.21007E+03 -1.69911E+03  2.42788E+03  1.53786E+03  5.34743E+02  2.77855E+03 -3.76591E+01  2.62391E+03
 -1.24440E+03  1.98589E+03 -1.11672E+03  8.75192E+02 -5.44433E+02  3.40472E+02 -1.39572E+03  1.01530E+03
 -1.43892E+03  2.23555E+03 -3.80822E+03  1.42560E+03 -4.76736E+03  1.00633E+02 -6.05810E+03 -3.07072E+03
 -2.84035E+03 -6.79628E+03  1.06505E+03 -7.73157E+03  4.21585E+03 -5.79282E+03  7.17164E+03 -2.49013E+03
  6.54114E+03  9.85246E+02  3.85867E+03  4.91754E+03  2.37255E+02  5.13245E+03 -2.14231E+03  3.79355E+03
 -2.68459E+03  1.93056E+03 -1.63631E+03 -6.50370E+02 -6.91663E+02 -4.15200E+02 -8.90147E+02 -4.57474E+01
 -1.29575E+03  6.49962E+01 -1.47334E+03 -1.73625E+02 -2.81518E+02 -1.26139E+03 -9.70925E+01 -2.15301E+03
  2.79970E+03 -1.80604E+03  2.57361E+03  3.34534E+02  3.64477E+03  2.81202E+03  3.45887E+02  4.71943E+03
 -2.33971E+03  6.08543E+03 -5.09470E+03  3.21571E+03 -5.58491E+03 -5.94752E+02 -4.10320E+03 -3.67246E+03
 -1.85009E+03 -4.78969E+03  1.02174E+03 -4.55813E+03  2.88887E+03 -2.10491E+03  2.66316E+03  1.95130E+02
  1.65116E+03  1.56366E+03  5.85397E+01  1.37277E+03 -9.51154E+02 -7.95665E+01  2.89868E+01 -1.13071E+03
  1.38718E+03 -2.58220E+02  1.56073E+03  8.63941E+02  8.88996E+02  1.74050E+03  2.34446E+02  2.19471E+03
 -2.10378E+03  2.20078E+03 -3.02863E+03  1.32632E+02 -2.55467E+03 -2.02820E+03 -4.49485E+02 -3.81615E+03
  1.98981E+03 -3.19299E+03  3.30073E+03 -6.25241E+02  3.49848E+03  4.93469E+02  2.04773E+03  2.87808E+03
  8.50960E+02  2.69596E+03 -1.08723E+03  2.59438E+03 -1.84638E+03  1.40748E+03 -1.70575E+03  2.30376E+02
 -6.63452E+02  9.34477E+01 -1.26509E+03  2.41611E+02 -1.52155E+03  3.89854E+02 -2.63650E+03 -7.42455E+02
 -2.56918E+03 -1.08713E+03 -1.05475E+03 -3.09014E+03  1.39913E+03 -3.50325E+03  2.42308E+03 -1.21193E+03
  2.92839E+03  2.21082E+02  9.00927E+02  2.11072E+03 -3.44700E+02  2.92793E+03 -1.93678E+03  2.02189E+03
