 $NMID ID='MM_0lb_SNR800_13hz_g55_41.RAW', FMTDAT='(8E13.5)'
 TRAMP=1., VOLUME=1. $END
  3.09822E+05  4.32963E+02  3.37791E+05  2.50779E+05  8.45279E+04  3.38328E+05 -1.32184E+05  2.51221E+05
 -1.90384E+05  8.36172E+04 -1.11991E+05 -3.29092E+04  5.15702E+02 -5.04349E+04  5.37645E+04 -4.48250E+02
  3.55487E+04  5.28661E+04 -1.68046E+04  7.55621E+04 -6.09113E+04  6.36561E+04 -8.48229E+04  3.20637E+04
 -8.14633E+04 -1.15698E+04 -5.76890E+04 -5.23545E+04 -1.50595E+04 -6.98237E+04  2.80737E+04 -4.60402E+04
  4.04098E+04  3.93085E+03  1.65661E+04  4.79434E+04 -3.47058E+04  4.75480E+04 -6.73948E+04 -3.16476E+02
 -5.38242E+04 -5.71250E+04 -6.89508E+03 -7.76804E+04  3.42797E+04 -5.59920E+04  4.89214E+04 -1.73186E+04
  4.42998E+04  1.11288E+04  3.26518E+04  2.60620E+04  1.59419E+04  2.95511E+04 -5.65143E+03  2.72081E+04
 -2.22785E+04  1.22706E+04 -1.80715E+04 -4.97774E+03  6.12633E+03 -7.48396E+03  2.26725E+04  1.26302E+04
  7.43512E+03  3.60930E+04 -3.24661E+04  3.59518E+04 -6.44662E+04  2.21079E+03 -5.77968E+04 -4.34441E+04
 -1.25452E+04 -6.42544E+04  4.03007E+04 -4.60566E+04  5.94293E+04 -2.33634E+03  3.52660E+04  3.29022E+04
 -5.86382E+03  3.72336E+04 -3.08528E+04  1.70149E+04 -3.15296E+04 -4.30641E+03 -1.75125E+04 -1.11440E+04
 -8.91310E+03 -1.39773E+04 -5.29077E+02 -1.88274E+04  7.66962E+03 -2.30546E+04  1.59377E+04 -1.27093E+04
  1.11200E+04  5.95298E+03 -9.44546E+03  1.31661E+04 -2.19611E+04 -5.32830E+03 -8.34212E+03 -3.51081E+04
  2.36018E+04 -4.44615E+04  4.94226E+04 -2.01517E+04  4.63115E+04  2.01073E+04  1.63301E+04  4.51005E+04
 -1.60942E+04  3.43159E+04 -2.62494E+04  1.95868E+03 -1.04007E+04 -2.83622E+04  2.09909E+04 -3.52818E+04
  4.21913E+04 -9.97224E+03  3.74238E+04  2.45674E+04  1.94957E+04  4.80591E+04 -8.07563E+03  5.25633E+04
 -3.32938E+04  3.54078E+04 -4.40708E+04  1.00944E+04 -4.44915E+04 -1.73120E+04 -2.46012E+04 -3.96159E+04
  7.63849E+03 -3.95281E+04  3.26266E+04 -1.56998E+04  3.02093E+04  1.08311E+04  3.91992E+03  1.94694E+04
 -1.36425E+04  8.94499E+03 -1.04078E+04 -7.74795E+03  5.73602E+03 -1.10081E+04  1.83842E+04  5.33519E+03
  1.41230E+04  2.22452E+04 -5.57904E+03  2.58844E+04 -2.30141E+04  1.22282E+04 -2.90487E+04 -4.03316E+03
 -2.23613E+04 -1.75983E+04 -9.47596E+03 -2.24480E+04  4.20935E+03 -2.15231E+04  1.70171E+04 -2.03905E+04
  2.78711E+04 -1.34275E+04  3.40964E+04  3.48485E+03  2.48805E+04  2.14395E+04  4.33547E+03  3.81182E+04
 -1.89281E+04  3.15680E+04 -2.89010E+04  1.10242E+04 -2.14317E+04 -1.03194E+04 -4.67229E+03 -1.31103E+04
  1.66086E+03 -2.57486E+03 -5.54661E+03  7.07251E+03 -1.77539E+04  5.00876E+03 -1.74514E+04 -7.48236E+03
 -1.04485E+04 -2.07821E+04  5.61679E+03 -2.48401E+04  1.65216E+04 -1.72978E+04  1.94916E+04 -1.84029E+03
  1.22749E+04  1.41279E+04 -9.78288E+02  2.04931E+04 -1.41420E+04  1.16394E+04 -2.04698E+04 -4.55899E+03
 -1.48546E+04 -1.81239E+04 -1.96891E+03 -2.48112E+04  1.10761E+04 -1.99984E+04  2.07155E+04 -1.03592E+04
  1.91713E+04 -8.20248E+01  1.38935E+04  4.65817E+03  7.48242E+03  9.84685E+02  1.01492E+04 -1.73288E+03
  1.92515E+04  2.53236E+03  2.13515E+04  1.61644E+04  1.42739E+04  3.29406E+04 -2.69199E+03  3.72033E+04
 -2.16342E+04  3.01414E+04 -3.47040E+04  1.53242E+04 -3.65581E+04 -2.91701E+03 -3.06194E+04 -2.11132E+04
 -1.25820E+04 -3.05007E+04  1.04705E+04 -2.70497E+04  2.32748E+04 -1.34416E+04  2.08533E+04  6.40860E+03
  7.42393E+03  1.57811E+04 -1.00387E+04  1.35321E+04 -1.75274E+04  2.28664E+03 -1.33525E+04 -1.08797E+04
 -3.27428E+02 -1.64585E+04  8.66187E+03 -1.24386E+04  1.10299E+04 -1.09337E+03  3.06585E+03  7.38768E+03
 -7.51621E+03  3.22438E+03 -6.66078E+03 -6.18773E+03 -8.95341E+02 -1.46964E+04  1.00482E+04 -1.57985E+04
  1.85729E+04 -8.93905E+03  2.00591E+04  2.98618E+03  1.77485E+04  1.48728E+04  8.32351E+03  2.28261E+04
 -4.10488E+03  2.46642E+04 -1.61906E+04  1.53811E+04 -1.80774E+04  3.21833E+03 -1.21063E+04 -4.36408E+03
 -5.69645E+03 -5.67403E+03 -5.42929E+02  1.04626E+03 -2.39250E+03  2.72236E+03 -5.80520E+03  4.62771E+03
 -1.17293E+04 -7.51640E+02 -1.19826E+04 -1.01488E+04 -4.81950E+03 -1.59811E+04  5.13671E+03 -1.29454E+04
  1.04363E+04 -5.36551E+03  7.83256E+03  3.34897E+03  5.39207E+02  4.72320E+03 -5.87023E+03 -6.49863E+01
 -5.66604E+03 -7.95841E+03 -1.04317E+03 -1.18411E+04  6.90359E+03 -1.30998E+04  1.53685E+04 -6.87925E+03
  1.83557E+04  1.51267E+03  1.33645E+04  1.07573E+04  2.48929E+03  1.43095E+04 -7.81795E+03  1.22257E+04
 -1.02907E+04  3.89538E+03 -5.20318E+03 -2.72072E+03  1.93434E+03 -3.24649E+03  6.63025E+03 -1.25748E+03
  5.66193E+03  5.52951E+03  1.20041E+03  1.02124E+04 -6.92077E+03  9.17839E+03 -1.18465E+04  2.06184E+03
 -8.24451E+03 -6.07840E+03  2.42287E+02 -1.03005E+04  6.20221E+03 -5.52236E+03  6.76274E+03  2.18876E+03
  1.44158E+03  7.09230E+03 -6.16074E+03  8.67070E+03 -9.41747E+03  3.80603E+03 -9.70647E+03 -3.33146E+03
 -5.99097E+03 -1.16461E+04  2.65705E+03 -1.30851E+04  1.11647E+04 -7.74216E+03  1.19701E+04  2.03720E+03
  7.28906E+03  9.86733E+03 -7.72915E+02  1.17672E+04 -8.88663E+03  6.71838E+03 -9.52529E+03 -1.15642E+03
 -8.46889E+03 -8.13461E+03 -1.90497E+03 -8.67435E+03  4.80140E+03 -7.04611E+03  5.71051E+03 -3.19435E+03
  4.19436E+03  1.12221E+03 -4.50902E+02  1.63174E+03 -3.08840E+02 -1.66802E+03  1.40308E+03 -5.20018E+03
  8.31143E+03 -2.97784E+03  1.10359E+04  1.33205E+03  1.09637E+04  7.18665E+03  7.84639E+03  1.44703E+04
 -3.20764E+03  1.64209E+04 -1.39901E+04  1.24002E+04 -1.82400E+04  2.11283E+03 -1.46177E+04 -5.81549E+03
 -7.56781E+03 -1.19664E+04 -1.39912E+02 -1.00817E+04  3.57783E+03 -5.41410E+03  3.04584E+03 -3.29409E+03
  2.58727E+03 -2.40285E+03  3.22216E+03 -3.57954E+03  4.55659E+03 -2.40560E+03  5.99900E+03 -2.74864E+02
  7.96435E+03  1.78377E+03  3.67061E+03  6.41587E+03 -1.95283E+03  6.80616E+03 -7.97015E+03  5.75297E+03
 -9.96289E+03 -1.28204E+03 -5.82285E+03 -7.09944E+03 -3.04809E+02 -1.06643E+04  6.05512E+03 -1.07682E+04
  1.09807E+04 -5.97223E+03  1.32338E+04  1.34741E+03  9.36108E+03  9.06398E+03  1.49412E+03  1.21787E+04
 -4.97482E+03  1.01872E+04 -7.02618E+03  3.47049E+03 -4.50962E+03 -1.46232E+03 -1.65655E+03 -1.35569E+03
 -9.31844E+02  1.67844E+02 -1.61902E+03  2.54843E+03 -4.48346E+03  2.00577E+03 -7.51444E+03 -6.88060E+02
 -4.69383E+03 -6.86629E+03  3.36151E+02 -9.76530E+03  5.93165E+03 -8.88821E+03  9.24453E+03 -2.51823E+03
  9.04118E+03  4.37117E+03  4.23452E+03  8.53245E+03 -1.53470E+03  9.49942E+03 -6.47348E+03  5.67841E+03
 -8.88263E+03  7.51661E+02 -7.06887E+03 -5.62950E+03 -5.52973E+02 -7.45873E+03  3.62838E+03 -6.13015E+03
  5.73033E+03 -1.92871E+03  3.91618E+03  1.38297E+03  1.22102E+03  3.28185E+03  1.18425E+03  1.16960E+03
  2.04092E+03  8.27677E+02  2.25296E+03  1.36966E+03  2.65394E+03  3.74265E+03  2.52851E+03  4.53720E+03
 -2.38639E+03  6.90660E+03 -6.41078E+03  7.90880E+03 -9.11072E+03  2.29936E+03 -9.69148E+03 -3.09292E+03
 -4.29313E+03 -9.06791E+03  1.20637E+03 -1.02624E+04  5.63809E+03 -6.43451E+03  7.25962E+03 -1.72228E+03
  5.88543E+03  3.45935E+03  1.24739E+03  5.12869E+03 -2.57326E+03  3.37488E+03 -3.61615E+03 -6.55473E+02
 -1.74618E+03 -3.65954E+03  2.06236E+03 -3.77828E+03  3.98885E+03 -2.16219E+03  3.54571E+03  8.55183E+02
  1.95775E+03  1.64468E+03  9.21528E+02  1.04806E+03 -5.49635E+02  1.59350E+03  1.77760E+03 -5.01480E+02
  1.01283E+03 -3.52972E+02  3.89760E+03  1.43322E+03  1.89565E+03  4.87408E+03 -8.62965E+02  6.46469E+03
 -4.26043E+03  3.59346E+03 -5.68150E+03  1.20423E+03 -4.89735E+03 -2.08550E+03 -1.92956E+03 -3.05754E+03
  9.70973E+02 -3.42659E+03  2.17102E+03 -1.76943E+03  2.00772E+03  1.66411E+03 -1.06811E+03  2.94112E+03
 -3.22610E+03  1.80570E+03 -3.84774E+03 -2.19682E+03 -2.58861E+03 -5.09820E+03  6.61485E+02 -4.43596E+03
  2.34201E+03 -2.53100E+03  3.03614E+03 -2.29195E+02  2.98389E+03  9.96331E+02  6.21624E+02  2.53183E+03
 -1.49238E+03  5.44722E+02 -2.14817E+03 -1.41375E+03  1.07825E+03 -3.38134E+03  4.40725E+03 -2.71845E+03
  5.28434E+03  2.01047E+02  5.68471E+03  3.10984E+03  1.81952E+03  5.29437E+03 -1.27888E+03  5.39130E+03
 -3.96679E+03  1.92207E+03 -4.41633E+03 -7.22468E+02 -2.37079E+03 -3.67792E+03  8.87876E+02 -2.59931E+03
  3.26497E+03 -1.70518E+03  2.82064E+03  1.53562E+03  8.10130E+02  3.30715E+03 -4.63594E+01  2.77517E+03
 -1.39770E+03  2.36065E+03 -1.32858E+03  5.57652E+02 -6.21853E+02  7.70932E+02 -1.08360E+03  5.15147E+02
 -1.16759E+03  2.12319E+03 -3.58162E+03  1.64122E+03 -5.32478E+03  1.61117E+02 -6.34242E+03 -3.44721E+03
 -2.75459E+03 -6.84002E+03  1.19568E+03 -7.88882E+03  4.64036E+03 -6.35308E+03  7.27040E+03 -2.38860E+03
  6.96518E+03  1.25282E+03  3.62289E+03  4.66141E+03 -2.47076E+02  4.76072E+03 -1.78818E+03  3.87753E+03
 -3.01444E+03  1.46811E+03 -1.71067E+03 -4.07272E+02 -7.95769E+02 -5.00321E+01 -5.07183E+02  1.06503E+02
 -1.49618E+03 -9.56631E+01 -1.39533E+03 -1.84177E+02 -7.54540E+01 -1.59304E+03  9.14332E+01 -1.90003E+03
  2.87471E+03 -1.58191E+03  2.95628E+03  5.25541E+02  3.38285E+03  2.72464E+03  5.16214E+02  4.53622E+03
 -2.38514E+03  6.01245E+03 -5.18902E+03  3.30680E+03 -5.87651E+03 -3.43431E+02 -4.60321E+03 -3.87953E+03
 -1.66013E+03 -4.64195E+03  1.03777E+03 -4.29236E+03  2.99330E+03 -2.44975E+03  3.12251E+03 -2.66463E+01
  2.11558E+03  1.54897E+03 -1.91038E+02  1.23919E+03 -8.07427E+02  2.00248E+02 -2.53154E+01 -1.27484E+03
  1.49595E+03 -7.19314E+02  1.81255E+03  6.33890E+02  1.19408E+03  1.96461E+03  6.96840E+01  2.07096E+03
 -1.91215E+03  2.54501E+03 -3.30371E+03  4.43015E+02 -2.88678E+03 -2.74512E+03 -1.60969E+02 -4.06569E+03
  1.97723E+03 -3.26902E+03  3.01957E+03 -4.14454E+02  3.37330E+03  3.31979E+02  1.90592E+03  2.66258E+03
  5.89741E+02  2.86733E+03 -1.21940E+03  2.18579E+03 -1.60240E+03  1.49339E+03 -1.63291E+03  3.24094E+02
 -6.36273E+02 -1.83194E+02 -8.83380E+02  4.44152E+02 -1.59650E+03  6.58731E+02 -2.40250E+03 -3.53153E+02
 -2.49657E+03 -1.39326E+03 -6.59331E+02 -3.11411E+03  1.29739E+03 -3.22161E+03  3.12934E+03 -1.35500E+03
  3.16850E+03  3.79856E+02  1.14282E+03  1.87614E+03 -4.35008E+02  3.06351E+03 -1.97325E+03  2.11289E+03
