 $NMID ID='MM_0lb_SNR800_19hz_g50_36.RAW', FMTDAT='(8E13.5)'
 TRAMP=1., VOLUME=1. $END
  3.09758E+05  5.89274E+02  3.37531E+05  2.50304E+05  8.44440E+04  3.37293E+05 -1.32578E+05  2.50138E+05
 -1.89659E+05  8.24083E+04 -1.10731E+05 -3.25740E+04  1.25804E+03 -5.03856E+04  5.37650E+04  3.79119E+02
  3.48148E+04  5.26113E+04 -1.69529E+04  7.48824E+04 -6.06428E+04  6.27972E+04 -8.31038E+04  3.17697E+04
 -7.96887E+04 -1.08882E+04 -5.65087E+04 -5.02557E+04 -1.47797E+04 -6.83254E+04  2.66402E+04 -4.51281E+04
  3.91643E+04  4.39669E+03  1.54301E+04  4.71287E+04 -3.40825E+04  4.63357E+04 -6.53455E+04 -3.15551E+02
 -5.20716E+04 -5.60363E+04 -6.50795E+03 -7.52390E+04  3.33727E+04 -5.32321E+04  4.64669E+04 -1.63024E+04
  4.15647E+04  1.09162E+04  3.08206E+04  2.47549E+04  1.60608E+04  2.83764E+04 -5.08715E+03  2.66173E+04
 -2.16337E+04  1.27355E+04 -1.91523E+04 -4.30206E+03  4.41069E+03 -7.64855E+03  2.11840E+04  1.08337E+04
  7.55063E+03  3.30467E+04 -3.05250E+04  3.38893E+04 -6.12883E+04  2.07335E+03 -5.54966E+04 -4.12725E+04
 -1.23280E+04 -6.10479E+04  3.80963E+04 -4.34552E+04  5.54896E+04 -2.03478E+03  3.19973E+04  3.04575E+04
 -6.50209E+03  3.30450E+04 -2.83444E+04  1.33032E+04 -2.75927E+04 -5.21624E+03 -1.42282E+04 -1.03039E+04
 -7.05228E+03 -1.13742E+04 -8.67918E+02 -1.68545E+04  6.72571E+03 -2.24561E+04  1.51723E+04 -1.40163E+04
  1.21913E+04  4.17771E+03 -6.26498E+03  1.31172E+04 -1.94012E+04 -2.44627E+03 -8.40673E+03 -3.04142E+04
  2.09640E+04 -4.04990E+04  4.48369E+04 -1.84139E+04  4.17902E+04  1.84802E+04  1.41553E+04  4.18800E+04
 -1.52991E+04  3.12585E+04 -2.35274E+04  7.06495E+02 -8.49733E+03 -2.63838E+04  2.03730E+04 -3.12936E+04
  3.79746E+04 -7.33570E+03  3.16824E+04  2.27749E+04  1.54647E+04  4.25403E+04 -7.42414E+03  4.52506E+04
 -2.84983E+04  2.97832E+04 -3.75546E+04  8.50784E+03 -3.84276E+04 -1.51015E+04 -2.11783E+04 -3.46337E+04
  6.94718E+03 -3.41451E+04  2.90921E+04 -1.29808E+04  2.71529E+04  1.09488E+04  3.19741E+03  1.79004E+04
 -1.29437E+04  7.35786E+03 -9.44563E+03 -7.75129E+03  6.10004E+03 -1.00259E+04  1.71741E+04  6.49376E+03
  1.22112E+04  2.18856E+04 -6.73486E+03  2.33821E+04 -2.14847E+04  9.32025E+03 -2.50354E+04 -6.24426E+03
 -1.68101E+04 -1.63117E+04 -5.76418E+03 -1.69292E+04  3.71352E+03 -1.48167E+04  1.25677E+04 -1.42575E+04
  2.12808E+04 -1.17210E+04  2.79323E+04  1.11039E+03  2.16315E+04  1.63470E+04  4.02212E+03  3.23891E+04
 -1.58351E+04  2.74607E+04 -2.57478E+04  9.50305E+03 -1.96339E+04 -1.01922E+04 -3.74989E+03 -1.37277E+04
  2.92038E+03 -4.32533E+03 -2.70507E+03  5.32041E+03 -1.30223E+04  5.31193E+03 -1.32322E+04 -4.97667E+03
 -8.61912E+03 -1.52723E+04  4.17038E+03 -1.92638E+04  1.23972E+04 -1.37821E+04  1.45258E+04 -1.17483E+03
  8.98224E+03  1.06592E+04 -1.00041E+03  1.58293E+04 -1.03014E+04  8.65229E+03 -1.52916E+04 -3.45934E+03
 -1.17283E+04 -1.39800E+04 -1.34887E+03 -1.88832E+04  8.61220E+03 -1.51534E+04  1.60044E+04 -6.96878E+03
  1.47002E+04  5.55755E+02  1.04363E+04  3.52553E+03  5.15208E+03  5.22549E+02  7.64011E+03 -1.43036E+03
  1.39617E+04  2.66866E+03  1.45460E+04  1.27673E+04  9.17380E+03  2.45975E+04 -3.08125E+03  2.61910E+04
 -1.57852E+04  1.99128E+04 -2.42585E+04  9.69749E+03 -2.49395E+04 -1.82908E+03 -2.13112E+04 -1.40462E+04
 -1.01151E+04 -1.99334E+04  6.72796E+03 -1.87946E+04  1.65886E+04 -1.08733E+04  1.51834E+04  3.76254E+03
  6.76172E+03  1.10860E+04 -7.18884E+03  1.01957E+04 -1.32629E+04  2.82987E+03 -1.02247E+04 -7.84751E+03
 -2.35168E+02 -1.23989E+04  6.21744E+03 -9.52347E+03  7.83952E+03 -1.27720E+03  1.47699E+03  4.94205E+03
 -5.55532E+03  1.30715E+03 -3.44984E+03 -4.54235E+03  6.99962E+02 -9.85485E+03  7.74734E+03 -1.00487E+04
  1.17956E+04 -4.30235E+03  1.16790E+04  2.95698E+03  1.00266E+04  9.22794E+03  4.86008E+03  1.39236E+04
 -1.59613E+03  1.56708E+04 -9.64769E+03  9.79957E+03 -1.11891E+04  3.01886E+03 -8.41888E+03 -1.92016E+03
 -4.54959E+03 -3.23773E+03 -9.24096E+02  1.39424E+03 -2.01798E+03  1.98564E+03 -3.81566E+03  3.77165E+03
 -7.82708E+03 -6.14941E+02 -8.57152E+03 -7.34199E+03 -3.45030E+03 -1.14709E+04  3.53459E+03 -8.39645E+03
  6.98316E+03 -3.60395E+03  5.44282E+03  2.30769E+03  5.93128E+02  2.91739E+03 -3.27188E+03 -1.06367E+02
 -3.13991E+03 -5.13270E+03 -7.07165E+02 -6.83171E+03  3.58644E+03 -7.59247E+03  9.87821E+03 -3.87961E+03
  1.15860E+04  6.00515E+02  8.80703E+03  6.13992E+03  2.01184E+03  8.54071E+03 -5.20300E+03  8.14532E+03
 -6.75867E+03  2.91002E+03 -3.34241E+03 -1.13460E+03  1.39395E+03 -1.86815E+03  4.79994E+03 -9.26885E+02
  4.07603E+03  3.22850E+03  9.71618E+02  6.22635E+03 -4.19398E+03  6.30794E+03 -7.70808E+03  1.59661E+03
 -4.71171E+03 -3.45559E+03  1.70295E+02 -6.53459E+03  3.69950E+03 -2.99957E+03  3.33045E+03  8.73440E+02
  4.71703E+02  3.16303E+03 -3.98214E+03  4.73816E+03 -5.10262E+03  2.33659E+03 -4.36330E+03 -8.89787E+02
 -2.76194E+03 -5.70204E+03  1.11452E+03 -6.61423E+03  5.74400E+03 -4.57196E+03  6.27857E+03  8.24957E+02
  4.44986E+03  5.14571E+03  6.92527E+01  7.15101E+03 -4.84653E+03  4.40958E+03 -4.92575E+03 -4.99106E+02
 -5.91722E+03 -5.18626E+03 -1.32689E+03 -4.90776E+03  2.47137E+03 -4.64290E+03  2.61642E+03 -2.81772E+03
  2.63771E+03  4.68632E+01  1.84835E+02  1.46786E+03  5.56052E+02 -3.39648E+01  2.72751E+02 -1.85410E+03
  3.34989E+03 -5.31740E+02  5.10409E+03  9.81023E+02  5.42279E+03  2.85189E+03  5.21948E+03  7.00235E+03
 -1.18961E+03  8.20503E+03 -7.45070E+03  6.19944E+03 -9.71381E+03  1.26306E+03 -7.65288E+03 -2.33738E+03
 -3.91661E+03 -5.91271E+03 -2.38544E+02 -5.06890E+03  1.97874E+03 -2.14094E+03  1.44981E+03 -2.02267E+03
  1.14539E+03 -1.46164E+03  2.21441E+03 -2.21963E+03  3.60776E+03 -1.30595E+03  3.45387E+03  5.52888E+02
  4.21741E+03  7.90996E+02  8.94285E+02  3.43996E+03 -1.36755E+03  2.60621E+03 -4.38568E+03  2.27656E+03
 -4.46995E+03 -1.07816E+03 -1.85353E+03 -2.95112E+03  2.47635E+02 -4.87673E+03  3.00381E+03 -5.02850E+03
  4.77581E+03 -3.04024E+03  6.35485E+03  2.13553E+02  4.58522E+03  3.81697E+03  1.29248E+03  5.74889E+03
 -2.04702E+03  5.48179E+03 -3.16074E+03  1.81158E+03 -1.65558E+03 -1.26242E+03 -5.36483E+02 -4.89539E+02
 -3.14241E+02  3.01379E+02 -6.98672E+02  2.00981E+03 -2.27864E+03  1.19334E+03 -4.11045E+03 -1.99819E+02
 -1.04769E+03 -3.75386E+03  5.47714E+02 -4.56454E+03  2.61557E+03 -4.21551E+03  3.20390E+03 -7.14925E+02
  3.86706E+03  2.36200E+03  1.40991E+03  2.91702E+03 -7.98886E+02  4.02965E+03 -2.39224E+03  2.64881E+03
 -3.52287E+03  4.47163E+02 -3.36345E+03 -2.03352E+03 -3.07484E+02 -2.84412E+03  1.59559E+03 -2.30673E+03
  2.70901E+03 -1.16039E+03  1.69715E+03  5.53117E+02  4.89165E+02  1.47015E+03  8.65383E+02  4.42881E+02
  1.88940E+03  6.91006E+02  1.12767E+03  1.10877E+03  1.03805E+03  2.36420E+03  1.15549E+03  1.56456E+03
 -1.18284E+03  2.65325E+03 -2.60368E+03  3.90179E+03 -3.03156E+03  1.28781E+03 -3.86979E+03 -3.88357E+02
 -1.52032E+03 -3.07634E+03  4.88717E+02 -4.33441E+03  1.67369E+03 -2.41217E+03  2.72577E+03 -7.74295E+02
  1.90408E+03  1.61494E+03  4.50367E+02  2.04845E+03 -2.99891E+02  1.07345E+03 -6.70033E+02 -4.74664E+01
 -4.64909E+02 -1.45588E+03  1.44294E+03 -1.63157E+03  1.27541E+03 -9.56730E+02  1.02105E+03  2.64444E+02
  5.72952E+02  3.19156E+02  6.38523E+02 -5.09949E+02  2.04511E+00  8.29966E+02  1.37758E+03  2.67752E+02
 -1.42868E+01 -1.24405E+02  1.68950E+03  4.45500E+02  1.13475E+02  2.21231E+03 -3.90147E+02  2.85330E+03
 -1.54924E+03  9.25581E+02 -1.88505E+03 -3.97653E+00 -1.95855E+03 -6.74436E+02 -1.45139E+02 -8.78440E+02
  3.60865E+02 -1.18621E+03  7.35390E+02 -7.39329E+02  5.57252E+02  1.27670E+03 -9.26530E+02  1.22671E+03
 -1.33020E+03  5.52600E+02 -9.98464E+02 -1.27569E+03 -6.47542E+02 -1.95932E+03  2.85501E+02 -1.08291E+03
  2.56167E+02 -2.16063E+02  6.28663E+02 -1.02082E+02  1.07758E+03 -8.77502E+01  1.52663E+02  1.07286E+03
 -4.34255E+02  1.80683E+02 -7.84341E+02 -2.58494E+01  8.55210E+02 -5.96283E+02  1.47197E+03 -5.74668E+02
  1.00706E+03  2.65518E+02  2.22668E+03  4.05236E+02  1.09302E+03  1.39848E+03 -1.75068E+02  1.79948E+03
 -1.30400E+03  1.93052E+02 -1.50356E+03  8.67101E+01 -9.67801E+02 -1.41441E+03  3.23142E+02 -4.39975E+02
  1.68188E+03 -5.66644E+02  5.00954E+02  7.43199E+02  1.86262E+01  1.33478E+03  3.45254E+02  1.14340E+03
 -4.34734E+02  1.06181E+03 -5.46171E+02  3.46468E+02  1.50442E+02  9.77028E+00 -7.18957E+02  5.53080E+02
 -8.10097E+02  9.90940E+02 -1.67903E+03  3.50713E+02 -1.30496E+03 -1.16664E+01 -2.25941E+03 -9.43022E+02
 -8.68819E+02 -2.13427E+03  6.17776E+02 -2.43123E+03  7.29924E+02 -2.00578E+03  2.66868E+03 -9.10970E+02
  2.20829E+03 -3.19750E+02  8.45817E+02  1.60512E+03 -4.92379E+02  1.22485E+03 -2.48889E+02  1.14825E+03
 -9.33102E+02  9.36356E+02 -3.43708E+02 -1.28797E+02 -2.95590E+02  1.48203E+02 -7.84021E+02  8.47438E+01
 -1.17748E+03 -1.58936E+02 -1.01807E+03  1.02357E+02  3.11137E+01 -4.64345E+02 -4.25780E+02 -1.00959E+03
  1.15503E+03 -4.49137E+02  2.11924E+02  1.64032E+02  9.03295E+02  9.87247E+02 -1.70378E+02  1.29791E+03
 -7.58634E+02  2.01779E+03 -1.36477E+03  9.88217E+02 -1.54982E+03  8.35319E+01 -1.11354E+03 -1.04351E+03
 -8.91813E+02 -1.19468E+03  3.83185E+02 -9.73373E+02  6.03384E+02 -5.50890E+02  5.77139E+02  1.58620E+02
  7.45583E+02  1.53879E+02  4.45613E+01  3.68614E+02 -3.88489E+02 -2.04580E+02 -2.09761E+02  9.71054E+01
  4.17162E+02  1.46656E+02  1.56110E+02  5.10288E+02 -1.43302E+01  1.97495E+02  5.58133E+02  1.37138E+02
 -2.93753E+02  5.70790E+02 -6.57747E+02 -2.02844E+02 -7.06167E+02 -2.32804E+02  7.02437E+01 -9.34774E+02
  4.85849E+02 -4.85184E+02  3.97205E+02 -9.23379E+01  7.25309E+02 -6.06182E+02  4.83679E+02  6.26579E+02
  1.97237E+02  1.98363E+02 -3.39280E+02  4.32887E+02 -3.12994E+02  5.75968E+02 -3.01386E+02  9.29868E+01
 -1.75818E+02 -2.49292E+02 -8.16948E+00  8.22709E+01 -3.93487E+02 -4.21066E+01 -7.60753E+02 -4.80877E+02
 -8.62900E+02  2.91300E+02 -3.69301E+02 -8.20068E+02  5.81886E+02 -1.38011E+03  7.54152E+02  2.00683E+01
  6.65185E+02  6.83431E+01 -4.35330E+02  3.91222E+02 -2.21493E+02  3.93207E+02 -4.85887E+02  9.56999E+02
