 $NMID ID='MM_0lb_SNR800_17hz_g45_52.RAW', FMTDAT='(8E13.5)'
 TRAMP=1., VOLUME=1. $END
  3.09754E+05  4.35448E+02  3.36953E+05  2.50571E+05  8.44299E+04  3.37758E+05 -1.32497E+05  2.50194E+05
 -1.89573E+05  8.26531E+04 -1.11283E+05 -3.28092E+04  1.37254E+03 -5.05792E+04  5.36872E+04  3.70469E+01
  3.53305E+04  5.29538E+04 -1.69563E+04  7.48361E+04 -6.03068E+04  6.26041E+04 -8.30796E+04  3.14850E+04
 -8.00268E+04 -1.10961E+04 -5.62968E+04 -5.02396E+04 -1.48773E+04 -6.86638E+04  2.70941E+04 -4.50721E+04
  3.94284E+04  4.08190E+03  1.57209E+04  4.76118E+04 -3.41668E+04  4.63481E+04 -6.56214E+04 -5.82119E+02
 -5.22974E+04 -5.64892E+04 -6.52086E+03 -7.56994E+04  3.31782E+04 -5.36077E+04  4.65365E+04 -1.66952E+04
  4.21972E+04  1.09893E+04  3.09207E+04  2.45914E+04  1.56179E+04  2.83889E+04 -4.74584E+03  2.66168E+04
 -2.17846E+04  1.25305E+04 -1.92007E+04 -4.52735E+03  4.76043E+03 -7.77169E+03  2.16542E+04  1.15016E+04
  7.40452E+03  3.35196E+04 -3.07065E+04  3.42481E+04 -6.16894E+04  2.00475E+03 -5.56377E+04 -4.14664E+04
 -1.25743E+04 -6.13959E+04  3.81496E+04 -4.38982E+04  5.60489E+04 -1.92789E+03  3.26747E+04  3.11423E+04
 -6.25727E+03  3.37767E+04 -2.88356E+04  1.39198E+04 -2.84703E+04 -5.15424E+03 -1.49330E+04 -1.01200E+04
 -7.57932E+03 -1.19024E+04 -1.13102E+03 -1.69880E+04  6.82398E+03 -2.24618E+04  1.52846E+04 -1.37777E+04
  1.17914E+04  4.52259E+03 -6.68691E+03  1.29401E+04 -1.96874E+04 -2.89938E+03 -8.15078E+03 -3.13103E+04
  2.12520E+04 -4.11990E+04  4.57065E+04 -1.87148E+04  4.25191E+04  1.83994E+04  1.46626E+04  4.23302E+04
 -1.53412E+04  3.18786E+04 -2.41699E+04  1.19316E+03 -8.77520E+03 -2.66401E+04  2.04577E+04 -3.19172E+04
  3.86284E+04 -7.80022E+03  3.25990E+04  2.28476E+04  1.62071E+04  4.34901E+04 -7.96230E+03  4.64304E+04
 -2.92173E+04  3.09442E+04 -3.84505E+04  8.34197E+03 -3.93771E+04 -1.55634E+04 -2.17251E+04 -3.50989E+04
  7.01764E+03 -3.49076E+04  2.98743E+04 -1.31728E+04  2.72192E+04  1.05987E+04  3.46747E+03  1.82650E+04
 -1.30007E+04  7.47557E+03 -9.87389E+03 -7.48822E+03  5.99915E+03 -1.02473E+04  1.74912E+04  6.33140E+03
  1.25532E+04  2.16116E+04 -6.41398E+03  2.36621E+04 -2.15245E+04  9.72064E+03 -2.60166E+04 -6.18275E+03
 -1.75629E+04 -1.68564E+04 -6.17169E+03 -1.78432E+04  3.91541E+03 -1.57034E+04  1.30092E+04 -1.53629E+04
  2.24194E+04 -1.19566E+04  2.91920E+04  1.46234E+03  2.20569E+04  1.71318E+04  4.02044E+03  3.33919E+04
 -1.62460E+04  2.83822E+04 -2.65341E+04  9.99747E+03 -2.00105E+04 -1.02363E+04 -4.34131E+03 -1.39882E+04
  2.42545E+03 -3.45246E+03 -3.43055E+03  5.71365E+03 -1.38186E+04  5.36725E+03 -1.42832E+04 -5.76862E+03
 -9.02877E+03 -1.65952E+04  4.71555E+03 -2.03010E+04  1.30238E+04 -1.46334E+04  1.56544E+04 -1.41791E+03
  9.69301E+03  1.14274E+04 -7.56174E+02  1.64759E+04 -1.09127E+04  9.62362E+03 -1.61728E+04 -3.40618E+03
 -1.18702E+04 -1.49473E+04 -1.48347E+03 -2.01275E+04  9.10224E+03 -1.59935E+04  1.70843E+04 -8.07229E+03
  1.52887E+04  4.99105E+02  1.08644E+04  4.04540E+03  5.71210E+03  5.84543E+02  8.07230E+03 -1.31082E+03
  1.50636E+04  2.65419E+03  1.59619E+04  1.30119E+04  1.01492E+04  2.59437E+04 -3.10744E+03  2.82978E+04
 -1.67649E+04  2.23140E+04 -2.65462E+04  1.08492E+04 -2.71296E+04 -1.95705E+03 -2.29284E+04 -1.57108E+04
 -1.05483E+04 -2.18671E+04  7.48583E+03 -2.02286E+04  1.77346E+04 -1.10733E+04  1.64693E+04  4.16363E+03
  6.74996E+03  1.19841E+04 -7.60119E+03  1.10484E+04 -1.39944E+04  2.65397E+03 -1.07988E+04 -8.31929E+03
 -2.38859E+02 -1.32594E+04  6.37319E+03 -9.91681E+03  8.36325E+03 -1.21182E+03  1.50272E+03  5.35864E+03
 -5.57133E+03  1.60028E+03 -4.20867E+03 -5.02575E+03  5.59006E+02 -1.08989E+04  8.43299E+03 -1.05538E+04
  1.34323E+04 -5.30438E+03  1.35785E+04  2.71629E+03  1.18156E+04  1.06932E+04  5.56778E+03  1.57403E+04
 -2.23034E+03  1.77095E+04 -1.06921E+04  1.13063E+04 -1.23024E+04  3.31046E+03 -9.33692E+03 -2.51406E+03
 -4.84986E+03 -3.55010E+03 -1.08457E+03  1.45591E+03 -1.91426E+03  2.20941E+03 -3.87946E+03  3.70616E+03
 -8.67891E+03 -5.02276E+02 -9.22573E+03 -7.51108E+03 -3.88576E+03 -1.24418E+04  3.89021E+03 -8.94111E+03
  7.91394E+03 -4.01063E+03  5.55670E+03  2.29537E+03  4.33955E+02  3.52214E+03 -4.08479E+03  5.43961E+01
 -3.64204E+03 -5.53054E+03 -9.83186E+02 -8.41565E+03  4.45044E+03 -8.69801E+03  1.08451E+04 -4.57195E+03
  1.29043E+04  1.00336E+03  9.73295E+03  6.90193E+03  1.67341E+03  9.64065E+03 -5.78920E+03  9.13195E+03
 -7.60530E+03  2.74129E+03 -3.80933E+03 -1.70170E+03  1.36310E+03 -2.22064E+03  5.27882E+03 -1.18415E+03
  4.45596E+03  3.41249E+03  1.07332E+03  7.09268E+03 -4.73130E+03  6.94527E+03 -8.67623E+03  1.92835E+03
 -5.42676E+03 -4.45460E+03  1.16500E+02 -7.20498E+03  4.15004E+03 -3.68484E+03  3.96830E+03  1.12695E+03
  5.04330E+02  4.12374E+03 -4.46368E+03  5.16541E+03 -5.87763E+03  3.06815E+03 -5.27180E+03 -1.39418E+03
 -3.60630E+03 -7.23645E+03  1.46317E+03 -7.95736E+03  6.90410E+03 -5.01753E+03  7.45693E+03  1.63010E+03
  5.14399E+03  5.98883E+03  8.05154E+01  8.34542E+03 -5.43765E+03  4.61419E+03 -5.96627E+03 -5.32060E+02
 -6.11992E+03 -5.66251E+03 -1.43065E+03 -5.81071E+03  3.05252E+03 -5.04283E+03  3.39827E+03 -2.77976E+03
  2.93694E+03  2.54974E+02 -3.13327E+02  1.33651E+03  3.72304E+02 -4.25312E+02  2.08969E+02 -2.21681E+03
  4.41240E+03 -9.19603E+02  6.37057E+03  6.40144E+02  6.62012E+03  3.92326E+03  6.12298E+03  8.44103E+03
 -1.67769E+03  9.91734E+03 -8.96772E+03  7.50212E+03 -1.14747E+04  1.42928E+03 -8.93417E+03 -3.35692E+03
 -4.69360E+03 -7.65554E+03 -5.77483E+02 -5.66233E+03  2.05689E+03 -2.70095E+03  2.02410E+03 -2.49613E+03
  1.46294E+03 -1.50466E+03  2.20074E+03 -2.69573E+03  3.90421E+03 -1.75257E+03  3.90926E+03  3.66589E+02
  4.82319E+03  1.18537E+03  1.45398E+03  3.96527E+03 -1.69911E+03  3.64400E+03 -5.02736E+03  2.94937E+03
 -5.81328E+03 -8.98422E+02 -2.56582E+03 -3.96024E+03  3.07814E+02 -6.14855E+03  3.68770E+03 -6.28262E+03
  5.87628E+03 -3.45847E+03  7.67767E+03  2.34138E+02  5.99318E+03  5.19613E+03  1.24498E+03  6.88591E+03
 -2.56097E+03  6.33728E+03 -4.00782E+03  2.31839E+03 -2.30770E+03 -1.07348E+03 -6.94639E+02 -6.12948E+02
 -6.63840E+02  2.09870E+02 -1.04699E+03  1.88935E+03 -2.98748E+03  1.36019E+03 -4.76691E+03 -3.97944E+02
 -2.05277E+03 -4.38125E+03  8.11928E+02 -5.10571E+03  3.34600E+03 -5.06071E+03  4.27561E+03 -1.52360E+03
  5.10194E+03  2.52914E+03  2.23337E+03  4.03207E+03 -8.91956E+02  5.47834E+03 -3.30249E+03  3.25219E+03
 -4.72462E+03  6.79165E+02 -4.26571E+03 -3.11561E+03 -3.22028E+02 -4.25710E+03  1.93668E+03 -2.88340E+03
  3.02560E+03 -1.66487E+03  2.05620E+03  3.93082E+02  5.22565E+02  1.96982E+03  6.54223E+02  7.46704E+02
  1.78473E+03  5.48529E+02  1.25748E+03  1.10273E+03  1.47236E+03  2.46282E+03  1.49684E+03  2.26114E+03
 -1.55387E+03  3.62755E+03 -3.25055E+03  4.70072E+03 -3.88883E+03  1.41297E+03 -5.02653E+03 -1.30867E+03
 -2.20825E+03 -4.77368E+03  6.66987E+02 -5.40938E+03  2.50805E+03 -3.17732E+03  3.82791E+03 -1.13267E+03
  2.94045E+03  2.13938E+03  4.27910E+02  2.68306E+03 -9.40680E+02  1.72436E+03 -1.39445E+03 -3.45550E+02
 -7.27726E+02 -2.15461E+03  1.79422E+03 -2.07973E+03  1.51572E+03 -1.22759E+03  1.74979E+03  4.01900E+02
  1.19866E+03  5.87534E+02  8.21125E+02  7.26505E+01 -6.72682E+02  7.44042E+02  1.47094E+03 -3.30712E+02
  1.37571E+02 -1.14225E+01  2.44262E+03  5.23959E+02  6.71532E+02  2.78981E+03 -5.96663E+02  3.41748E+03
 -2.01116E+03  1.54775E+03 -2.67480E+03  1.55554E+02 -2.40523E+03 -1.21718E+03 -4.20171E+02 -1.10798E+03
  4.87099E+02 -1.62623E+03  1.35464E+03 -6.09892E+02  1.02977E+03  1.41317E+03 -8.67018E+02  1.37909E+03
 -1.77647E+03  1.12926E+03 -1.76940E+03 -1.39330E+03 -1.08193E+03 -2.71769E+03  2.62410E+02 -2.20613E+03
  9.13441E+02 -8.91636E+02  1.16028E+03  2.52500E+02  1.49453E+03  1.96104E+02  1.13638E+02  1.38617E+03
 -2.59513E+02  1.34394E+02 -8.70521E+02 -3.51305E+02  9.09080E+02 -1.50556E+03  2.22153E+03 -1.08159E+03
  1.91569E+03  3.82718E+02  3.13165E+03  1.13145E+03  1.13937E+03  2.03098E+03 -5.50392E+02  2.36330E+03
 -1.92464E+03  4.55109E+02 -1.65203E+03 -6.16407E+01 -1.06705E+03 -1.90609E+03  2.55407E+02 -1.16918E+03
  1.68489E+03 -7.36842E+02  6.28468E+02  8.86572E+02  4.90973E+02  1.34022E+03  2.03365E+02  1.48744E+03
 -3.47424E+02  1.34891E+03 -7.18936E+02  1.68518E+02 -2.03069E+01  4.00560E+02 -7.88973E+02  5.75327E+02
 -8.55701E+02  1.37253E+03 -2.01786E+03  5.25804E+02 -1.99998E+03  9.51993E+01 -2.80120E+03 -1.08630E+03
 -1.35391E+03 -3.06671E+03  4.90399E+02 -3.57610E+03  1.55457E+03 -3.11667E+03  3.76274E+03 -1.31580E+03
  2.84424E+03 -7.19844E+01  1.26214E+03  2.04131E+03 -4.63124E+02  2.01416E+03 -8.94587E+02  1.58306E+03
 -1.42932E+03  7.21660E+02 -7.26512E+02 -1.44497E+02 -4.87823E+02  2.52557E+02 -8.45932E+02  1.75846E+01
 -9.52764E+02 -1.80744E+02 -7.75411E+02 -8.27875E+01  5.71882E+01 -7.20513E+02 -4.79809E+02 -8.89925E+02
  1.54343E+03 -6.10276E+02  6.98301E+02  2.60288E+02  1.37585E+03  1.19840E+03 -3.44449E+02  2.05978E+03
 -1.09940E+03  3.12568E+03 -2.23199E+03  1.75008E+03 -2.30943E+03 -2.05870E+02 -1.90034E+03 -1.88178E+03
 -1.03315E+03 -1.83780E+03  3.60704E+02 -1.55172E+03  1.17541E+03 -6.88327E+02  9.87162E+02  1.68918E+02
  6.27489E+02  4.07826E+02  2.28205E+02  3.16890E+02 -3.48542E+02 -3.30892E+02  2.57121E+02 -4.03941E+02
  8.17672E+02  2.77428E+01  5.85113E+02  8.33747E+02  9.96327E+01  9.14569E+02  2.33249E+02  5.02492E+02
 -1.03244E+03  7.94530E+02 -7.79950E+02  2.92304E+02 -8.11856E+02 -8.97541E+02 -1.11983E+02 -1.76339E+03
  7.57478E+02 -1.28872E+03  9.90408E+02 -1.59807E+02  1.57040E+03 -3.58411E+02  3.83381E+02  1.21547E+03
  3.98698E+02  9.97339E+02 -4.88040E+02  9.16420E+02 -7.44489E+02  4.73958E+02 -8.73398E+02  8.46029E+01
 -7.07627E+01  1.70877E+01 -6.01218E+02  3.55622E+02 -6.71110E+02 -9.00053E+01 -1.26104E+03 -3.93346E+02
 -1.14675E+03  1.18158E+02 -4.21292E+02 -9.88073E+02  8.44053E+02 -1.86300E+03  8.72858E+02 -4.03200E+02
  1.17901E+03  1.00188E+02  5.57913E+01  3.23103E+02 -2.11551E+02  1.43988E+03 -6.13687E+02  7.71657E+02
