 $NMID ID='MM_0lb_SNR800_7hz_g60_44.RAW', FMTDAT='(8E13.5)'
 TRAMP=1., VOLUME=1. $END
  3.09788E+05  7.44584E+02  3.37778E+05  2.50727E+05  8.49310E+04  3.38625E+05 -1.32728E+05  2.51867E+05
 -1.91118E+05  8.42457E+04 -1.13276E+05 -3.23362E+04 -2.01950E+02 -5.08835E+04  5.33902E+04 -7.80053E+02
  3.58266E+04  5.28229E+04 -1.68250E+04  7.64100E+04 -6.15440E+04  6.48505E+04 -8.56869E+04  3.26862E+04
 -8.30900E+04 -1.18817E+04 -5.84572E+04 -5.30028E+04 -1.47812E+04 -7.21518E+04  2.90039E+04 -4.76321E+04
  4.15437E+04  3.82425E+03  1.70761E+04  4.90000E+04 -3.50132E+04  4.87637E+04 -6.88860E+04  3.75095E+02
 -5.54037E+04 -5.84363E+04 -7.69885E+03 -8.03067E+04  3.58083E+04 -5.79534E+04  5.05411E+04 -1.88175E+04
  4.58718E+04  1.15925E+04  3.32157E+04  2.76293E+04  1.57562E+04  3.11055E+04 -6.16178E+03  2.81479E+04
 -2.28600E+04  1.14633E+04 -1.77117E+04 -6.20813E+03  7.56007E+03 -7.56938E+03  2.40798E+04  1.40523E+04
  6.46498E+03  3.88672E+04 -3.54690E+04  3.73176E+04 -6.71951E+04  2.13971E+03 -6.00771E+04 -4.54923E+04
 -1.28470E+04 -6.76936E+04  4.25780E+04 -4.87225E+04  6.26944E+04 -2.88634E+03  3.87077E+04  3.53456E+04
 -5.02622E+03  4.16394E+04 -3.29059E+04  2.02114E+04 -3.46823E+04 -2.76930E+03 -2.09941E+04 -1.27299E+04
 -9.64576E+03 -1.61166E+04  9.33156E+01 -2.06400E+04  9.04560E+03 -2.40930E+04  1.62256E+04 -1.25240E+04
  9.80634E+03  6.67946E+03 -1.16147E+04  1.30658E+04 -2.44773E+04 -8.09287E+03 -8.42160E+03 -3.93054E+04
  2.66668E+04 -4.92052E+04  5.42579E+04 -2.14617E+04  5.07960E+04  2.13045E+04  1.85076E+04  4.88783E+04
 -1.69646E+04  3.76059E+04 -2.91439E+04  3.05781E+03 -1.32260E+04 -3.06812E+04  2.19883E+04 -3.88073E+04
  4.61789E+04 -1.23514E+04  4.33369E+04  2.58070E+04  2.28381E+04  5.37316E+04 -8.47420E+03  5.98684E+04
 -3.76606E+04  4.09548E+04 -5.06597E+04  1.19460E+04 -5.05404E+04 -1.97405E+04 -2.78019E+04 -4.48585E+04
  7.97052E+03 -4.52378E+04  3.55464E+04 -1.85991E+04  3.39439E+04  1.09022E+04  5.60881E+03  2.14924E+04
 -1.40134E+04  1.06580E+04 -1.16278E+04 -7.44545E+03  5.72172E+03 -1.21426E+04  1.89197E+04  5.27749E+03
  1.53642E+04  2.30159E+04 -4.68076E+03  2.83323E+04 -2.42774E+04  1.57249E+04 -3.37247E+04 -1.49640E+03
 -2.80493E+04 -1.95455E+04 -1.37493E+04 -2.77873E+04  4.93063E+03 -2.91073E+04  2.20952E+04 -2.60315E+04
  3.59139E+04 -1.47612E+04  4.15362E+04  6.21825E+03  2.93169E+04  2.75299E+04  4.22405E+03  4.44423E+04
 -2.10508E+04  3.60845E+04 -3.20247E+04  1.30750E+04 -2.33994E+04 -9.67977E+03 -5.46688E+03 -1.28259E+04
  1.23329E+02  1.08793E+02 -8.87906E+03  9.12857E+03 -2.24493E+04  5.29984E+03 -2.27953E+04 -1.09394E+04
 -1.33304E+04 -2.65202E+04  7.04376E+03 -3.10338E+04  2.09907E+04 -2.19839E+04  2.53152E+04 -1.32949E+03
  1.61676E+04  1.82516E+04 -1.53431E+03  2.62430E+04 -1.87034E+04  1.48061E+04 -2.66673E+04 -5.31049E+03
 -1.95307E+04 -2.37628E+04 -2.37558E+03 -3.09075E+04  1.44459E+04 -2.62909E+04  2.56763E+04 -1.38071E+04
  2.49405E+04 -6.40523E+02  1.78876E+04  5.43306E+03  1.05824E+04  1.62665E+03  1.38170E+04 -2.57761E+03
  2.49310E+04  2.81657E+03  2.92792E+04  2.06507E+04  2.05113E+04  4.21729E+04 -2.32055E+03  5.07531E+04
 -2.88965E+04  4.30689E+04 -4.85121E+04  2.27157E+04 -5.19867E+04 -4.04389E+03 -4.18672E+04 -3.07436E+04
 -1.58835E+04 -4.30355E+04  1.53671E+04 -3.79911E+04  3.21974E+04 -1.74548E+04  2.72526E+04  9.14427E+03
  8.54963E+03  2.12490E+04 -1.32449E+04  1.77984E+04 -2.20758E+04  2.45386E+03 -1.68300E+04 -1.49439E+04
 -1.85859E+02 -2.21513E+04  1.22015E+04 -1.57879E+04  1.53806E+04 -8.92819E+02  4.42691E+03  9.99032E+03
 -1.00873E+04  5.33398E+03 -1.12074E+04 -7.92263E+03 -3.21321E+03 -2.16173E+04  1.36258E+04 -2.36263E+04
  2.73439E+04 -1.38226E+04  3.12622E+04  3.65153E+03  2.75946E+04  2.19314E+04  1.28029E+04  3.50134E+04
 -7.20908E+03  3.74854E+04 -2.45168E+04  2.27590E+04 -2.68653E+04  3.96674E+03 -1.79898E+04 -7.65658E+03
 -7.05087E+03 -8.37300E+03 -8.51770E+02 -1.69328E+02 -3.60631E+03  4.03103E+03 -9.19130E+03  6.21953E+03
 -1.69620E+04 -1.12383E+03 -1.72342E+04 -1.41901E+04 -6.94750E+03 -2.26236E+04  7.76886E+03 -1.88329E+04
  1.51812E+04 -7.25234E+03  1.05512E+04  5.23682E+03 -6.55844E+02  7.39501E+03 -9.55885E+03  8.42977E+01
 -9.05525E+03 -1.21966E+04 -9.40844E+02 -1.83499E+04  1.07641E+04 -1.97881E+04  2.41631E+04 -1.11878E+04
  2.79772E+04  3.30734E+03  2.07204E+04  1.70606E+04  4.12001E+03  2.28329E+04 -1.13851E+04  1.83830E+04
 -1.48084E+04  5.21354E+03 -7.71821E+03 -4.20381E+03  2.97496E+03 -5.66632E+03  9.45222E+03 -1.32922E+03
  8.41532E+03  8.46141E+03  1.59292E+03  1.51581E+04 -1.06001E+04  1.47602E+04 -1.89580E+04  3.47734E+03
 -1.33428E+04 -9.91036E+03  4.53511E+02 -1.61528E+04  1.04964E+04 -7.75674E+03  1.21323E+04  4.31923E+03
  3.23381E+03  1.29008E+04 -1.01028E+04  1.44965E+04 -1.72727E+04  6.67424E+03 -1.81044E+04 -6.17621E+03
 -1.04881E+04 -2.02046E+04  4.98192E+03 -2.30047E+04  1.95328E+04 -1.36227E+04  2.13471E+04  3.45000E+03
  1.23393E+04  1.67121E+04 -2.24006E+03  1.93676E+04 -1.41602E+04  1.14980E+04 -1.63065E+04 -1.86754E+03
 -1.30599E+04 -1.26928E+04 -1.47981E+03 -1.56501E+04  8.23922E+03 -1.17544E+04  9.51381E+03 -3.89314E+03
  5.81420E+03  3.24597E+03 -1.46307E+03  2.42839E+03 -1.69032E+03 -4.87698E+03  3.70045E+03 -9.74297E+03
  1.47280E+04 -6.49808E+03  2.14653E+04  2.67975E+03  2.03048E+04  1.44315E+04  1.26081E+04  2.66639E+04
 -6.43086E+03  3.10296E+04 -2.52990E+04  2.24599E+04 -3.27365E+04  4.39728E+03 -2.64223E+04 -1.20489E+04
 -1.30683E+04 -2.22097E+04 -4.31779E+02 -1.87729E+04  6.91466E+03 -1.13452E+04  6.58400E+03 -6.68895E+03
  5.19592E+03 -4.03817E+03  5.01215E+03 -4.67018E+03  7.10962E+03 -4.75174E+03  9.88897E+03 -2.23788E+03
  1.32631E+04  2.94315E+03  8.38564E+03  1.18711E+04 -2.58777E+03  1.51675E+04 -1.42963E+04  1.18927E+04
 -1.92911E+04 -1.24017E+03 -1.33921E+04 -1.35241E+04 -2.32912E+03 -2.12415E+04  1.11078E+04 -2.10213E+04
  2.18944E+04 -1.15654E+04  2.55961E+04  4.07713E+03  1.72355E+04  1.85036E+04  2.73823E+03  2.32586E+04
 -1.02521E+04  1.84326E+04 -1.39272E+04  6.57416E+03 -9.86297E+03 -1.83430E+03 -4.32810E+03 -2.82816E+03
 -1.68493E+03 -9.04870E+02 -3.01145E+03  3.27024E+03 -8.04007E+03  2.96655E+03 -1.29129E+04 -2.24962E+03
 -9.94870E+03 -1.32922E+04 -4.53051E+02 -1.97884E+04  1.24096E+04 -1.78944E+04  2.01882E+04 -5.99627E+03
  1.94195E+04  9.54930E+03  9.96103E+03  1.83033E+04 -3.49289E+03  2.02164E+04 -1.46219E+04  1.20437E+04
 -1.90214E+04  6.10538E+02 -1.44433E+04 -1.18092E+04 -1.79285E+03 -1.71119E+04  9.17119E+03 -1.29263E+04
  1.24796E+04 -3.61753E+03  8.36903E+03  3.46069E+03  2.57399E+03  5.73525E+03  1.29679E+03  2.90111E+03
  3.34825E+03  1.59492E+03  4.58834E+03  2.46255E+03  5.97181E+03  6.67070E+03  5.45520E+03  1.10269E+04
 -4.22473E+03  1.64032E+04 -1.45024E+04  1.55635E+04 -2.19116E+04  3.83950E+03 -2.13397E+04 -9.86637E+03
 -1.05417E+04 -2.10837E+04  3.15419E+03 -2.26157E+04  1.25730E+04 -1.48030E+04  1.70010E+04 -3.52661E+03
  1.29661E+04  7.70253E+03  3.21703E+03  1.21552E+04 -5.87704E+03  7.70345E+03 -8.42751E+03 -1.80214E+03
 -4.20602E+03 -9.23849E+03  4.83105E+03 -9.61740E+03  9.12110E+03 -4.52364E+03  9.02114E+03  1.84919E+03
  5.07392E+03  4.77988E+03  1.81822E+03  3.95865E+03 -9.97055E+02  2.98235E+03  1.91847E+03 -9.86709E+02
  3.81929E+03 -1.11045E+03  8.50860E+03  3.62548E+03  5.09884E+03  1.12087E+04 -1.61356E+03  1.48834E+04
 -1.06261E+04  1.04194E+04 -1.35665E+04  2.84969E+03 -1.24740E+04 -4.85126E+03 -4.92246E+03 -8.99845E+03
  8.87376E+02 -8.18930E+03  5.47420E+03 -3.89342E+03  5.09634E+03  3.66027E+03 -1.92913E+03  7.28804E+03
 -8.84377E+03  4.18949E+03 -1.04222E+04 -5.05556E+03 -6.07499E+03 -1.18975E+04  1.90970E+03 -1.22813E+04
  7.76497E+03 -7.20631E+03  9.09596E+03 -1.41674E+03  7.57049E+03  3.76134E+03  1.28252E+03  6.70048E+03
 -4.62482E+03  1.86008E+03 -4.87349E+03 -4.59052E+03  1.73570E+03 -9.90247E+03  1.07633E+04 -8.22201E+03
  1.39727E+04  1.10701E+03  1.27302E+04  9.88864E+03  3.66190E+03  1.51060E+04 -5.24122E+03  1.36892E+04
 -1.19410E+04  6.38504E+03 -1.26857E+04 -1.86538E+03 -6.59563E+03 -9.15114E+03  2.64720E+03 -9.59597E+03
  8.79838E+03 -4.55270E+03  8.39184E+03  3.98077E+03  2.48094E+03  8.04329E+03 -1.68967E+03  7.12954E+03
 -3.30345E+03  4.26284E+03 -3.76158E+03  1.79282E+03 -1.69701E+03  1.56776E+03 -2.12978E+03  3.09274E+03
 -3.86279E+03  5.76973E+03 -1.01438E+04  5.17100E+03 -1.45283E+04  4.38512E+02 -1.66896E+04 -1.01768E+04
 -9.11914E+03 -1.97079E+04  4.08218E+03 -2.30439E+04  1.43075E+04 -1.76873E+04  2.14143E+04 -6.57947E+03
  2.04093E+04  4.79683E+03  1.27735E+04  1.37352E+04  2.02012E+03  1.59702E+04 -6.66089E+03  1.19183E+04
 -8.75182E+03  3.99307E+03 -5.43857E+03 -1.86555E+03 -1.61611E+03 -1.99438E+03 -5.21490E+02 -4.29397E+02
 -2.46937E+03  1.59396E+02 -3.25704E+03 -5.20936E+02 -1.81619E+03 -3.97410E+03  9.04946E+02 -5.74742E+03
  6.76834E+03 -5.12170E+03  1.05682E+04  2.53256E+02  1.15442E+04  8.84318E+03  4.04883E+03  1.59031E+04
 -7.60642E+03  1.80721E+04 -1.73221E+04  1.04290E+04 -2.01468E+04 -1.29711E+03 -1.42152E+04 -1.22600E+04
 -6.54748E+03 -1.63440E+04  4.52993E+03 -1.55380E+04  1.07138E+04 -8.01756E+03  1.11773E+04  4.68884E+02
  6.08372E+03  5.79644E+03 -7.68217E+02  4.50872E+03 -3.12572E+03 -6.26084E+02  7.47916E+02 -3.60608E+03
  4.92953E+03 -2.48024E+03  7.06454E+03  1.90786E+03  4.83422E+03  6.49418E+03 -3.93964E+02  8.34585E+03
 -7.58414E+03  7.77989E+03 -1.12690E+04  8.59966E+02 -9.90177E+03 -8.06461E+03 -1.65141E+03 -1.40553E+04
  8.02168E+03 -1.19510E+04  1.32151E+04 -3.64485E+03  1.28377E+04  3.58799E+03  7.40707E+03  1.01913E+04
  1.37158E+03  1.10580E+04 -4.20046E+03  9.06860E+03 -7.31906E+03  4.95934E+03 -6.25991E+03  4.31857E+02
 -3.30638E+03 -3.20397E+02 -2.74177E+03  1.53533E+03 -5.87174E+03  2.16400E+03 -8.19693E+03 -1.72453E+03
 -8.16581E+03 -5.88793E+03 -2.46566E+03 -1.15232E+04  4.90551E+03 -1.13189E+04  9.81834E+03 -6.07705E+03
  1.11195E+04  1.41282E+03  6.78325E+03  8.26994E+03 -9.27732E+02  1.16127E+04 -8.61715E+03  7.20689E+03
