 $NMID ID='MM_0lb_SNR800_19hz_g60_7.RAW', FMTDAT='(8E13.5)'
 TRAMP=1., VOLUME=1. $END
  3.09666E+05  4.17222E+02  3.37475E+05  2.50526E+05  8.45533E+04  3.37673E+05 -1.32240E+05  2.50497E+05
 -1.89881E+05  8.29389E+04 -1.11503E+05 -3.28354E+04  1.44024E+03 -5.03732E+04  5.38650E+04  1.88301E+02
  3.50467E+04  5.30136E+04 -1.69565E+04  7.51896E+04 -6.05665E+04  6.33095E+04 -8.36851E+04  3.16628E+04
 -8.02778E+04 -1.11142E+04 -5.67273E+04 -5.09074E+04 -1.50328E+04 -6.91595E+04  2.71763E+04 -4.51373E+04
  3.93139E+04  3.73396E+03  1.60758E+04  4.73988E+04 -3.41653E+04  4.66936E+04 -6.59796E+04 -1.24414E+02
 -5.26943E+04 -5.62922E+04 -6.67167E+03 -7.62770E+04  3.35155E+04 -5.41908E+04  4.71362E+04 -1.66612E+04
  4.22261E+04  1.12091E+04  3.14580E+04  2.50841E+04  1.57406E+04  2.87674E+04 -5.02700E+03  2.70785E+04
 -2.20248E+04  1.24106E+04 -1.86911E+04 -4.43743E+03  5.07837E+03 -7.46140E+03  2.19434E+04  1.17155E+04
  7.22598E+03  3.41542E+04 -3.13698E+04  3.47153E+04 -6.25557E+04  2.22453E+03 -5.65363E+04 -4.18159E+04
 -1.25260E+04 -6.19442E+04  3.88027E+04 -4.46590E+04  5.69112E+04 -2.32373E+03  3.31564E+04  3.15036E+04
 -6.46148E+03  3.43686E+04 -2.93575E+04  1.48425E+04 -2.87209E+04 -5.02110E+03 -1.53280E+04 -1.05711E+04
 -7.80237E+03 -1.23338E+04 -1.04993E+03 -1.72745E+04  7.00627E+03 -2.30638E+04  1.54720E+04 -1.33966E+04
  1.19555E+04  4.68441E+03 -7.00701E+03  1.30623E+04 -2.01225E+04 -3.28189E+03 -8.35023E+03 -3.20896E+04
  2.16291E+04 -4.17493E+04  4.66313E+04 -1.90504E+04  4.33854E+04  1.86820E+04  1.48590E+04  4.28208E+04
 -1.55106E+04  3.22342E+04 -2.42934E+04  1.54367E+03 -8.82216E+03 -2.69441E+04  2.06732E+04 -3.22930E+04
  3.91338E+04 -8.46946E+03  3.31750E+04  2.30153E+04  1.64924E+04  4.44715E+04 -7.89292E+03  4.72859E+04
 -2.98704E+04  3.13941E+04 -3.95620E+04  8.83681E+03 -3.99760E+04 -1.59645E+04 -2.19041E+04 -3.55859E+04
  6.99031E+03 -3.52101E+04  3.03893E+04 -1.36707E+04  2.79559E+04  1.05132E+04  3.39508E+03  1.84257E+04
 -1.32144E+04  7.49484E+03 -9.92848E+03 -8.06437E+03  6.12174E+03 -1.03596E+04  1.75859E+04  6.28350E+03
  1.29358E+04  2.17191E+04 -6.38738E+03  2.41563E+04 -2.17748E+04  1.02526E+04 -2.59026E+04 -5.67139E+03
 -1.80276E+04 -1.67438E+04 -6.90897E+03 -1.82733E+04  3.74622E+03 -1.63338E+04  1.37126E+04 -1.56786E+04
  2.27778E+04 -1.21355E+04  2.94538E+04  1.63781E+03  2.21496E+04  1.77549E+04  4.06118E+03  3.37489E+04
 -1.65328E+04  2.88244E+04 -2.65339E+04  9.83912E+03 -1.99739E+04 -1.04185E+04 -4.34533E+03 -1.39102E+04
  2.38235E+03 -3.68238E+03 -3.35607E+03  5.57908E+03 -1.38783E+04  5.15218E+03 -1.44633E+04 -5.47627E+03
 -9.32041E+03 -1.63956E+04  4.58514E+03 -2.04332E+04  1.35243E+04 -1.45100E+04  1.56929E+04 -1.73388E+03
  9.70281E+03  1.15692E+04 -1.09836E+03  1.66629E+04 -1.09347E+04  9.16623E+03 -1.64589E+04 -3.44592E+03
 -1.21624E+04 -1.48170E+04 -1.49632E+03 -2.00507E+04  8.83117E+03 -1.62585E+04  1.70945E+04 -7.83917E+03
  1.53584E+04  5.29348E+02  1.09444E+04  4.00555E+03  5.37362E+03  6.69819E+02  8.10447E+03 -1.30847E+03
  1.46844E+04  2.43464E+03  1.57739E+04  1.31220E+04  9.84017E+03  2.60047E+04 -2.98179E+03  2.85093E+04
 -1.66674E+04  2.20501E+04 -2.64083E+04  1.06918E+04 -2.66790E+04 -1.87787E+03 -2.26919E+04 -1.53774E+04
 -1.03195E+04 -2.19335E+04  7.28302E+03 -2.04075E+04  1.77439E+04 -1.12951E+04  1.64843E+04  3.91601E+03
  6.51121E+03  1.21289E+04 -7.52561E+03  1.07041E+04 -1.40616E+04  2.53508E+03 -1.07662E+04 -8.54367E+03
 -2.93110E+02 -1.33206E+04  6.33053E+03 -9.70988E+03  8.28443E+03 -1.23966E+03  1.40974E+03  5.32122E+03
 -5.87503E+03  1.63345E+03 -4.25522E+03 -5.03417E+03  3.15605E+02 -1.09848E+04  8.30730E+03 -1.09231E+04
  1.32144E+04 -5.19029E+03  1.29439E+04  2.53839E+03  1.13878E+04  1.00326E+04  5.02877E+03  1.49090E+04
 -2.02162E+03  1.67765E+04 -1.04348E+04  1.08777E+04 -1.20564E+04  2.81710E+03 -8.75077E+03 -2.03976E+03
 -4.77896E+03 -3.66540E+03 -7.68194E+02  1.40042E+03 -1.99003E+03  2.15220E+03 -3.61362E+03  3.84361E+03
 -8.49160E+03 -3.84578E+02 -9.08683E+03 -7.40717E+03 -3.68175E+03 -1.20793E+04  3.74502E+03 -9.03725E+03
  7.54591E+03 -3.85235E+03  5.52774E+03  2.14306E+03  5.38720E+02  3.18878E+03 -3.50128E+03 -2.09729E+02
 -3.64680E+03 -5.55667E+03 -9.88823E+02 -7.71143E+03  3.96325E+03 -8.22157E+03  1.02831E+04 -4.07685E+03
  1.23494E+04  6.11889E+02  9.20696E+03  6.42181E+03  1.88037E+03  9.28218E+03 -5.93562E+03  8.28187E+03
 -7.09924E+03  3.10145E+03 -3.51816E+03 -1.22547E+03  1.20095E+03 -2.10771E+03  5.11196E+03 -1.27686E+03
  4.30471E+03  3.48711E+03  9.34049E+02  6.53770E+03 -4.53330E+03  6.73009E+03 -8.30115E+03  1.66694E+03
 -4.92020E+03 -3.89701E+03  2.64140E+02 -6.94841E+03  3.98373E+03 -3.62112E+03  3.68926E+03  1.03103E+03
  3.57285E+02  3.48709E+03 -4.04223E+03  4.96049E+03 -5.18803E+03  2.47416E+03 -4.98886E+03 -1.17117E+03
 -3.30429E+03 -6.13940E+03  1.10953E+03 -7.30583E+03  6.15510E+03 -4.60171E+03  6.93016E+03  1.04295E+03
  4.88157E+03  5.49112E+03  2.77415E+01  7.42342E+03 -5.00328E+03  4.36640E+03 -5.49484E+03 -4.51216E+02
 -5.96141E+03 -5.39708E+03 -1.42634E+03 -5.28371E+03  2.66449E+03 -4.74148E+03  2.83742E+03 -2.88245E+03
  2.88431E+03  1.34863E+02 -1.11011E+02  1.40395E+03  5.33097E+02 -3.37393E+02  1.41173E+02 -1.83036E+03
  4.02745E+03 -7.68128E+02  5.79299E+03  6.67777E+02  5.64050E+03  3.30392E+03  5.27409E+03  7.34778E+03
 -1.23492E+03  8.76306E+03 -8.01980E+03  6.69427E+03 -1.02739E+04  1.06069E+03 -7.83709E+03 -2.49142E+03
 -4.46945E+03 -6.85652E+03 -5.21139E+02 -5.08524E+03  1.98511E+03 -2.58954E+03  1.68354E+03 -1.96624E+03
  1.30719E+03 -1.38481E+03  2.14436E+03 -2.33716E+03  3.64148E+03 -1.67703E+03  3.76720E+03  6.57527E+02
  4.61961E+03  1.40429E+03  1.08139E+03  3.59895E+03 -1.73829E+03  2.89110E+03 -4.36757E+03  2.80497E+03
 -4.76517E+03 -1.21868E+03 -1.82224E+03 -3.37467E+03  3.49097E+02 -5.06384E+03  3.45704E+03 -5.24532E+03
  5.02328E+03 -3.18986E+03  6.83396E+03  3.88510E+02  4.93562E+03  4.33537E+03  8.08361E+02  6.04876E+03
 -1.95098E+03  5.73806E+03 -3.46340E+03  1.78844E+03 -1.60356E+03 -1.41076E+03 -4.51849E+02 -5.45317E+02
 -1.58860E+02  7.27039E+02 -7.02428E+02  2.12245E+03 -2.31419E+03  1.10422E+03 -4.13262E+03 -5.66531E+02
 -1.41549E+03 -4.25702E+03  5.04038E+02 -4.24107E+03  2.81997E+03 -4.34177E+03  3.48849E+03 -1.05565E+03
  3.94149E+03  2.29447E+03  1.58762E+03  3.29302E+03 -5.79890E+02  4.31281E+03 -2.39151E+03  2.61526E+03
 -3.43152E+03  3.96110E+02 -3.47098E+03 -2.34367E+03 -3.23764E+02 -3.35245E+03  1.58906E+03 -2.18112E+03
  2.59427E+03 -1.66561E+03  1.86609E+03  1.40099E+02  5.99671E+02  1.54309E+03  6.29320E+02  5.08491E+02
  1.65349E+03  6.16994E+02  1.25111E+03  1.02159E+03  1.09161E+03  2.16297E+03  1.36733E+03  1.67294E+03
 -1.33864E+03  2.90666E+03 -2.34956E+03  3.82656E+03 -2.95794E+03  1.12986E+03 -4.11190E+03 -2.42978E+02
 -1.28928E+03 -3.61450E+03  6.74882E+02 -4.54815E+03  1.88848E+03 -2.27658E+03  2.88498E+03 -7.31993E+02
  2.29421E+03  1.58302E+03  9.90721E+01  1.89077E+03 -5.88554E+02  1.08689E+03 -8.83004E+02 -9.75973E+01
 -7.80690E+02 -1.64717E+03  1.11627E+03 -1.38538E+03  8.69885E+02 -7.65448E+02  1.20298E+03  3.01763E+02
  6.57468E+02  2.35220E+02  6.71747E+02 -2.48964E+02 -3.18199E+02  9.37729E+02  1.64874E+03 -3.41360E+02
 -2.34210E+02 -1.80642E+02  1.93975E+03  8.15377E+02  1.88441E+02  2.13875E+03 -2.50878E+02  2.31968E+03
 -1.53953E+03  1.12977E+03 -1.63730E+03  2.71780E+02 -1.94506E+03 -6.76399E+02 -2.68394E+02 -1.09885E+03
  5.14542E+02 -1.19049E+03  1.00685E+03 -6.13250E+02  6.05759E+02  1.36067E+03 -7.87817E+02  1.24004E+03
 -1.55393E+03  7.65367E+02 -1.07800E+03 -1.30293E+03 -6.55814E+02 -2.06578E+03  1.06722E+02 -1.25903E+03
  6.60665E+02 -5.93804E+02  4.92688E+02 -7.02751E+01  1.11313E+03 -1.12458E+02  8.97796E+01  1.12934E+03
 -1.32835E+02  6.50045E+01 -9.52006E+02 -6.90210E+01  6.96250E+02 -6.32490E+02  1.47134E+03 -6.65468E+02
  1.00030E+03  3.24799E+02  2.39722E+03  7.06418E+02  8.41069E+02  1.75704E+03 -1.87048E+02  1.69124E+03
 -1.29125E+03  2.51199E+02 -1.15880E+03 -1.82377E+02 -8.10702E+02 -1.15727E+03  1.42875E+02 -3.98564E+02
  1.44830E+03 -5.78512E+02  5.29820E+02  7.46145E+02  1.43253E+02  9.37772E+02  4.43589E+02  1.13980E+03
 -4.17193E+02  1.01045E+03 -6.11968E+02  3.31705E+02  1.21307E+02  3.92834E+02 -4.62722E+02  4.91799E+02
 -5.56104E+02  9.37112E+02 -1.86929E+03  3.74350E+02 -1.17348E+03 -1.91977E+02 -2.00958E+03 -7.61168E+02
 -9.12008E+02 -2.04146E+03  7.86650E+02 -2.63581E+03  5.97402E+02 -1.91436E+03  2.40620E+03 -1.02466E+03
  2.05556E+03 -2.30886E+02  9.68178E+02  1.31512E+03 -5.02399E+02  8.73713E+02 -5.14571E+02  1.18747E+03
 -9.41972E+02  7.74968E+02 -3.01605E+02 -2.52974E+02 -5.93414E+02  4.19472E+02 -6.33342E+02 -3.10457E+01
 -1.15668E+03 -2.12880E+02 -9.65176E+02  1.42558E+02  3.14244E+02 -4.98396E+02 -2.53005E+02 -6.70313E+02
  1.20065E+03 -5.60797E+02  3.87582E+01  2.56070E+02  1.31232E+03  6.55757E+02 -4.79879E+02  1.10822E+03
 -8.83728E+02  1.98244E+03 -1.11516E+03  1.23986E+03 -1.30341E+03 -2.58688E+02 -1.11618E+03 -8.66361E+02
 -1.00270E+03 -1.15287E+03 -1.40016E+01 -7.99754E+02  3.80808E+02 -4.08831E+02  4.44249E+02  9.80500E+01
  5.22009E+02  1.39336E+02  3.38300E+01  3.23973E+01 -7.12856E+01  2.83163E+02 -5.43445E+01 -2.10749E+02
  4.62855E+02  2.56112E+02  6.12325E+01  4.67339E+02 -1.15142E+02  4.63255E+02  1.74628E+02  1.22863E+02
 -4.35202E+02  4.07440E+02 -1.88159E+02 -1.23248E+02 -5.92791E+02 -3.41241E+02 -2.92819E+02 -8.12712E+02
  4.11619E+02 -5.63271E+02  2.19843E+02  7.36572E+01  7.02772E+02 -7.50685E+02  1.59438E+02  7.20281E+02
  5.82230E+02  3.66237E+02 -4.50199E+02  2.32253E+02 -2.50113E+02  5.89340E+02 -2.13814E+02  3.11003E+01
  2.07925E+02 -2.87015E+02 -6.70840E+02  3.27663E+02 -4.10346E+02  1.79367E+02 -5.77086E+02 -3.42144E+02
 -1.04153E+03  4.23389E+02 -4.74662E+02 -4.50265E+02  6.41382E+02 -1.16685E+03  4.06360E+02 -3.63507E+02
  5.53511E+02  2.82988E+01 -3.94387E+02  2.65101E+02  1.94038E+02  6.85278E+02 -2.47326E+02  4.95393E+02
