 $NMID ID='MM_0lb_SNR800_12hz_g40_75.RAW', FMTDAT='(8E13.5)'
 TRAMP=1., VOLUME=1. $END
  3.09783E+05  6.99793E+01  3.37958E+05  2.50452E+05  8.51431E+04  3.38163E+05 -1.32490E+05  2.51083E+05
 -1.90377E+05  8.27910E+04 -1.11912E+05 -3.25778E+04  9.35786E+02 -5.04915E+04  5.36969E+04 -1.40022E+02
  3.53959E+04  5.26635E+04 -1.67009E+04  7.55383E+04 -6.09542E+04  6.37576E+04 -8.42517E+04  3.21586E+04
 -8.11452E+04 -1.09351E+04 -5.73331E+04 -5.12647E+04 -1.52488E+04 -6.96775E+04  2.73417E+04 -4.59595E+04
  4.01264E+04  3.62874E+03  1.63894E+04  4.74976E+04 -3.45250E+04  4.69126E+04 -6.69888E+04 -5.97798E+02
 -5.36390E+04 -5.70771E+04 -6.79903E+03 -7.72400E+04  3.40168E+04 -5.52284E+04  4.82344E+04 -1.74745E+04
  4.37865E+04  1.14713E+04  3.17511E+04  2.56891E+04  1.58665E+04  2.92617E+04 -5.57110E+03  2.71583E+04
 -2.19265E+04  1.22579E+04 -1.89237E+04 -4.98241E+03  5.53568E+03 -7.27222E+03  2.21682E+04  1.24350E+04
  7.11254E+03  3.57562E+04 -3.23160E+04  3.54125E+04 -6.38149E+04  2.24373E+03 -5.77844E+04 -4.29635E+04
 -1.25371E+04 -6.34759E+04  4.00844E+04 -4.56514E+04  5.86002E+04 -2.12827E+03  3.44326E+04  3.26463E+04
 -6.18930E+03  3.66782E+04 -3.05573E+04  1.63418E+04 -3.07722E+04 -4.63617E+03 -1.73142E+04 -1.12932E+04
 -8.55986E+03 -1.36266E+04 -7.42493E+02 -1.84860E+04  7.29735E+03 -2.32956E+04  1.55596E+04 -1.32565E+04
  1.11981E+04  5.10985E+03 -8.51115E+03  1.26783E+04 -2.13449E+04 -4.99373E+03 -8.33410E+03 -3.43742E+04
  2.35381E+04 -4.39749E+04  4.87833E+04 -1.97885E+04  4.57515E+04  1.98099E+04  1.55016E+04  4.47504E+04
 -1.60477E+04  3.39345E+04 -2.60723E+04  1.96292E+03 -1.01130E+04 -2.79760E+04  2.12042E+04 -3.40117E+04
  4.16164E+04 -9.15177E+03  3.64695E+04  2.41874E+04  1.87590E+04  4.73641E+04 -8.31814E+03  5.10702E+04
 -3.20981E+04  3.44235E+04 -4.32089E+04  1.01868E+04 -4.37967E+04 -1.68518E+04 -2.40619E+04 -3.84679E+04
  7.65631E+03 -3.85499E+04  3.18059E+04 -1.50804E+04  2.99386E+04  1.08263E+04  4.48567E+03  1.94340E+04
 -1.36462E+04  8.95981E+03 -1.06517E+04 -7.74054E+03  6.03283E+03 -1.07063E+04  1.79691E+04  5.82754E+03
  1.41756E+04  2.24559E+04 -5.99225E+03  2.53340E+04 -2.25572E+04  1.21524E+04 -2.87214E+04 -4.39414E+03
 -2.14084E+04 -1.76949E+04 -9.19294E+03 -2.10111E+04  4.20301E+03 -2.09394E+04  1.68358E+04 -1.92894E+04
  2.71558E+04 -1.32690E+04  3.36839E+04  3.50975E+03  2.44361E+04  2.09211E+04  4.44718E+03  3.73136E+04
 -1.79477E+04  3.08651E+04 -2.89130E+04  1.10865E+04 -2.12574E+04 -1.05322E+04 -4.31237E+03 -1.31183E+04
  1.51017E+03 -2.59668E+03 -5.46322E+03  7.17407E+03 -1.68934E+04  5.40367E+03 -1.66917E+04 -7.81007E+03
 -1.04045E+04 -1.97407E+04  5.49191E+03 -2.39238E+04  1.61599E+04 -1.70353E+04  1.90112E+04 -1.96352E+03
  1.20073E+04  1.37078E+04 -6.51786E+02  1.99387E+04 -1.38343E+04  1.13643E+04 -2.03542E+04 -4.03586E+03
 -1.46056E+04 -1.78559E+04 -2.03448E+03 -2.42180E+04  1.08738E+04 -1.98176E+04  2.00004E+04 -9.85469E+03
  1.88127E+04  8.02552E+01  1.37709E+04  4.39871E+03  7.17241E+03  8.98284E+02  1.01472E+04 -1.98251E+03
  1.81183E+04  2.93085E+03  2.06636E+04  1.53657E+04  1.36440E+04  3.15215E+04 -3.03085E+03  3.61076E+04
 -2.09201E+04  2.94551E+04 -3.41511E+04  1.46198E+04 -3.57657E+04 -2.43446E+03 -2.95364E+04 -2.07803E+04
 -1.24770E+04 -2.93960E+04  1.00993E+04 -2.64670E+04  2.28491E+04 -1.29963E+04  2.00206E+04  6.17509E+03
  7.54392E+03  1.54043E+04 -9.23055E+03  1.31400E+04 -1.73988E+04  2.56727E+03 -1.28841E+04 -1.05933E+04
 -3.92704E+02 -1.61938E+04  8.88885E+03 -1.22792E+04  1.10101E+04 -1.34843E+03  2.20123E+03  7.07257E+03
 -7.07773E+03  3.17211E+03 -6.73446E+03 -5.92210E+03 -8.25341E+02 -1.46484E+04  1.03134E+04 -1.53981E+04
  1.81312E+04 -7.89284E+03  1.97261E+04  3.24557E+03  1.75723E+04  1.45282E+04  8.11466E+03  2.24672E+04
 -3.51317E+03  2.41676E+04 -1.52948E+04  1.50555E+04 -1.73444E+04  3.53476E+03 -1.21990E+04 -4.21026E+03
 -5.43807E+03 -5.48370E+03 -5.62123E+02  1.08168E+03 -2.78765E+03  2.78205E+03 -5.73862E+03  4.80493E+03
 -1.15057E+04 -9.48673E+02 -1.18748E+04 -9.77300E+03 -4.87083E+03 -1.57478E+04  5.25241E+03 -1.22022E+04
  1.00293E+04 -5.32078E+03  7.37433E+03  3.24076E+03  2.18709E+02  4.39239E+03 -5.98579E+03 -2.51436E+02
 -5.56076E+03 -7.90280E+03 -1.25159E+03 -1.17947E+04  6.70551E+03 -1.26032E+04  1.54403E+04 -6.08506E+03
  1.75484E+04  1.62169E+03  1.34289E+04  1.04330E+04  2.43759E+03  1.44392E+04 -7.40081E+03  1.21639E+04
 -1.01894E+04  3.78922E+03 -5.15855E+03 -2.90891E+03  1.74214E+03 -3.47739E+03  6.73833E+03 -1.06808E+03
  5.87850E+03  5.07898E+03  1.18881E+03  9.84949E+03 -7.08391E+03  8.77539E+03 -1.19725E+04  2.32763E+03
 -7.80186E+03 -6.07635E+03  2.64139E+02 -1.01283E+04  6.52942E+03 -5.14735E+03  6.80425E+03  2.21068E+03
  1.64551E+03  7.01024E+03 -6.46164E+03  8.47424E+03 -9.31516E+03  3.89409E+03 -9.36234E+03 -3.05040E+03
 -5.63114E+03 -1.12952E+04  2.67271E+03 -1.32697E+04  1.10948E+04 -8.14197E+03  1.17372E+04  2.13679E+03
  7.26812E+03  9.89428E+03 -7.73516E+02  1.17257E+04 -8.81361E+03  6.50883E+03 -9.21182E+03 -9.48256E+02
 -8.13305E+03 -8.17957E+03 -1.62534E+03 -8.67404E+03  4.41584E+03 -7.15555E+03  5.18097E+03 -3.36682E+03
  4.02823E+03  1.02349E+03 -5.97532E+02  1.85428E+03 -4.36462E+02 -1.98046E+03  1.25591E+03 -4.95482E+03
  7.93210E+03 -2.97513E+03  1.10650E+04  1.21851E+03  1.06199E+04  7.63375E+03  7.78142E+03  1.45711E+04
 -3.46432E+03  1.67413E+04 -1.42080E+04  1.23950E+04 -1.82892E+04  2.45997E+03 -1.45359E+04 -5.97597E+03
 -7.55534E+03 -1.21027E+04 -3.16105E+01 -9.88830E+03  3.91009E+03 -5.31534E+03  3.68738E+03 -3.68349E+03
  2.53273E+03 -2.03148E+03  3.20959E+03 -2.84412E+03  5.16264E+03 -2.53944E+03  5.96773E+03 -6.40592E+02
  7.67952E+03  1.99771E+03  3.93521E+03  6.42168E+03 -1.63793E+03  7.05274E+03 -7.94885E+03  5.89044E+03
 -1.00269E+04 -8.26291E+02 -5.78956E+03 -6.80729E+03 -1.74881E+02 -1.04966E+04  5.94456E+03 -1.08362E+04
  1.07679E+04 -6.11737E+03  1.32234E+04  1.59625E+03  9.10380E+03  8.82376E+03  1.46163E+03  1.20591E+04
 -4.88224E+03  1.03668E+04 -6.88067E+03  3.58007E+03 -4.79234E+03 -1.73338E+03 -1.86115E+03 -1.52546E+03
 -9.73918E+02  1.99153E+02 -1.44552E+03  2.46507E+03 -4.40856E+03  1.86857E+03 -6.93795E+03 -7.28830E+02
 -4.68914E+03 -7.35491E+03  7.74239E+01 -9.56253E+03  5.89844E+03 -9.15231E+03  9.50013E+03 -2.81471E+03
  9.40703E+03  4.71693E+03  4.68528E+03  8.67925E+03 -1.82209E+03  9.80037E+03 -6.87527E+03  5.96827E+03
 -9.01044E+03  7.44714E+02 -7.43442E+03 -5.90082E+03 -6.32197E+02 -8.26332E+03  3.95118E+03 -5.92075E+03
  5.89229E+03 -2.47271E+03  4.08309E+03  1.70102E+03  1.75406E+03  3.02602E+03  1.23133E+03  1.22220E+03
  2.14209E+03  1.05093E+03  2.11777E+03  1.56000E+03  2.31409E+03  3.83061E+03  2.86676E+03  4.72472E+03
 -2.33321E+03  7.23310E+03 -6.95245E+03  8.14359E+03 -9.03318E+03  2.18197E+03 -9.86446E+03 -3.29956E+03
 -4.88970E+03 -9.34562E+03  1.21493E+03 -1.02083E+04  5.64929E+03 -6.36290E+03  7.57548E+03 -1.93840E+03
  5.98796E+03  3.41563E+03  1.33947E+03  5.31564E+03 -2.62752E+03  3.44186E+03 -3.38024E+03 -5.22782E+02
 -1.64582E+03 -4.08367E+03  2.56190E+03 -4.32971E+03  4.00466E+03 -2.07504E+03  4.03783E+03  6.28106E+02
  2.00826E+03  1.42370E+03  7.43798E+02  1.23441E+03 -5.29204E+02  1.51579E+03  1.60059E+03 -2.05188E+02
  1.50942E+03 -6.02275E+02  4.06563E+03  1.42842E+03  1.82999E+03  4.93077E+03 -9.83614E+02  6.68017E+03
 -4.33433E+03  4.29181E+03 -5.74253E+03  1.19554E+03 -5.63470E+03 -2.06118E+03 -1.77224E+03 -3.45556E+03
  8.67349E+02 -3.67511E+03  2.26776E+03 -1.51792E+03  1.98853E+03  1.99163E+03 -1.07237E+03  3.17641E+03
 -3.55997E+03  1.92578E+03 -4.29459E+03 -2.07211E+03 -2.68761E+03 -5.36946E+03  8.88694E+02 -4.94511E+03
  2.56662E+03 -2.77020E+03  3.38048E+03 -2.11158E+02  2.87126E+03  9.75907E+02  5.31463E+02  2.56492E+03
 -1.61682E+03  9.26609E+02 -1.85415E+03 -1.63979E+03  8.29698E+02 -3.74707E+03  5.04138E+03 -2.88943E+03
  5.04487E+03  4.26809E+02  5.83972E+03  3.40848E+03  2.04992E+03  5.66770E+03 -2.04370E+03  5.89165E+03
 -4.84571E+03  2.13593E+03 -4.99131E+03 -5.66447E+02 -2.78667E+03 -3.87106E+03  9.56070E+02 -3.13673E+03
  3.72103E+03 -1.86365E+03  2.84124E+03  1.35096E+03  1.15980E+03  3.02160E+03 -4.85791E+02  2.80440E+03
 -1.37707E+03  2.32578E+03 -1.39556E+03  5.12224E+02 -6.74161E+02  6.65401E+02 -1.13545E+03  1.35575E+03
 -1.92515E+03  2.61965E+03 -4.17836E+03  1.64381E+03 -5.48286E+03  1.35515E+02 -6.84633E+03 -3.44405E+03
 -3.33161E+03 -7.87476E+03  1.62728E+03 -8.85497E+03  5.22885E+03 -6.72367E+03  8.61561E+03 -2.65700E+03
  7.20069E+03  1.00725E+03  4.67823E+03  5.34276E+03  5.35304E+01  5.69742E+03 -2.18198E+03  4.20306E+03
 -3.10335E+03  1.65946E+03 -2.03060E+03 -5.29531E+02 -8.28714E+02 -2.86784E+02 -8.38262E+02 -1.18012E+01
 -1.50783E+03  5.34736E+01 -1.42268E+03 -8.02947E+01 -4.21529E+02 -1.02313E+03 -3.73256E+02 -2.51186E+03
  2.89022E+03 -2.15182E+03  3.10165E+03 -1.63590E+02  4.31546E+03  3.00675E+03  6.06406E+02  5.30963E+03
 -2.77778E+03  6.61309E+03 -6.09665E+03  3.80104E+03 -6.92143E+03 -8.93340E+02 -5.00001E+03 -4.30670E+03
 -2.21438E+03 -5.79437E+03  1.32699E+03 -5.32762E+03  3.27228E+03 -3.04856E+03  3.56457E+03  1.76095E+02
  2.20497E+03  1.71941E+03 -5.80171E+02  1.69334E+03 -1.06825E+03 -3.14584E+01 -2.25372E+01 -1.26983E+03
  1.55056E+03 -7.10105E+02  2.17389E+03  8.96528E+02  1.23059E+03  2.09962E+03  2.89512E+02  2.63007E+03
 -2.43072E+03  2.71564E+03 -3.63244E+03 -8.72615E+01 -3.63252E+03 -2.77231E+03 -2.73855E+02 -4.66562E+03
  2.75964E+03 -3.52034E+03  3.82336E+03 -8.97744E+02  4.30709E+03  5.59648E+02  2.72099E+03  3.28137E+03
  6.12432E+02  3.35544E+03 -1.08546E+03  2.98685E+03 -2.28945E+03  1.83414E+03 -2.13329E+03  4.21258E+02
 -6.83394E+02 -1.34538E+02 -1.42441E+03  7.54638E+02 -2.35410E+03  2.70663E+02 -3.12742E+03 -5.07741E+02
 -2.89887E+03 -1.39357E+03 -8.31903E+02 -3.56697E+03  1.52806E+03 -4.38919E+03  3.25791E+03 -1.69996E+03
  3.56107E+03  2.13519E+02  1.71387E+03  2.25584E+03 -1.04934E+02  3.72272E+03 -2.76109E+03  2.55579E+03
