 $NMID ID='MM_0lb_SNR800_20hz_g45_4.RAW', FMTDAT='(8E13.5)'
 TRAMP=1., VOLUME=1. $END
  3.10147E+05  1.72472E+02  3.36833E+05  2.50385E+05  8.40967E+04  3.37169E+05 -1.32247E+05  2.50003E+05
 -1.89286E+05  8.21520E+04 -1.10867E+05 -3.31016E+04  1.80723E+03 -5.00974E+04  5.38902E+04  2.02311E+02
  3.50388E+04  5.27730E+04 -1.72051E+04  7.44719E+04 -6.02537E+04  6.25531E+04 -8.23311E+04  3.14003E+04
 -7.93492E+04 -1.10420E+04 -5.60333E+04 -4.98990E+04 -1.50578E+04 -6.78832E+04  2.64873E+04 -4.45836E+04
  3.85787E+04  3.91984E+03  1.52681E+04  4.68922E+04 -3.38574E+04  4.57043E+04 -6.48100E+04 -7.66886E+02
 -5.16502E+04 -5.56752E+04 -6.06249E+03 -7.45086E+04  3.27815E+04 -5.27273E+04  4.55287E+04 -1.60258E+04
  4.11357E+04  1.08640E+04  3.06676E+04  2.36845E+04  1.56926E+04  2.78419E+04 -4.59164E+03  2.66545E+04
 -2.17636E+04  1.29422E+04 -1.94280E+04 -4.12462E+03  3.58349E+03 -7.54554E+03  2.07166E+04  1.03903E+04
  7.67534E+03  3.24454E+04 -2.98399E+04  3.31600E+04 -6.03976E+04  2.10910E+03 -5.47988E+04 -4.06385E+04
 -1.23723E+04 -5.99720E+04  3.77313E+04 -4.27838E+04  5.43269E+04 -1.87848E+03  3.13104E+04  2.99053E+04
 -6.74666E+03  3.20583E+04 -2.79160E+04  1.26018E+04 -2.66003E+04 -5.75326E+03 -1.36386E+04 -9.94966E+03
 -7.03709E+03 -1.06824E+04 -1.30789E+03 -1.60125E+04  6.17063E+03 -2.23061E+04  1.48512E+04 -1.41510E+04
  1.27498E+04  4.09515E+03 -5.68357E+03  1.32079E+04 -1.86303E+04 -1.63640E+03 -7.84325E+03 -2.93534E+04
  2.02450E+04 -3.94730E+04  4.33977E+04 -1.82376E+04  4.06162E+04  1.77969E+04  1.38588E+04  4.07211E+04
 -1.52690E+04  3.02094E+04 -2.27568E+04  7.66515E+02 -7.55827E+03 -2.57370E+04  2.03883E+04 -3.02345E+04
  3.71327E+04 -6.84998E+03  2.99749E+04  2.22736E+04  1.44520E+04  4.13762E+04 -7.72791E+03  4.36257E+04
 -2.71378E+04  2.84971E+04 -3.58480E+04  7.85864E+03 -3.69420E+04 -1.45201E+04 -2.06296E+04 -3.32095E+04
  6.61184E+03 -3.28727E+04  2.84042E+04 -1.22893E+04  2.58988E+04  1.04399E+04  2.51072E+03  1.73429E+04
 -1.30788E+04  7.03675E+03 -9.50762E+03 -7.75351E+03  5.95629E+03 -9.83913E+03  1.70417E+04  6.81039E+03
  1.19392E+04  2.14183E+04 -6.82557E+03  2.29300E+04 -2.12872E+04  8.49284E+03 -2.41545E+04 -7.00164E+03
 -1.53930E+04 -1.59648E+04 -4.70880E+03 -1.58533E+04  3.84738E+03 -1.33662E+04  1.13234E+04 -1.31238E+04
  1.98296E+04 -1.10753E+04  2.66696E+04  5.93052E+02  2.03730E+04  1.51144E+04  3.90507E+03  3.08999E+04
 -1.54902E+04  2.67401E+04 -2.52183E+04  9.22011E+03 -1.90822E+04 -1.04715E+04 -3.88500E+03 -1.43549E+04
  2.80220E+03 -4.77743E+03 -1.93409E+03  5.12579E+03 -1.19074E+04  5.17785E+03 -1.24514E+04 -4.44787E+03
 -8.17851E+03 -1.43982E+04  4.23329E+03 -1.81831E+04  1.18208E+04 -1.30826E+04  1.34220E+04 -1.53706E+03
  8.17634E+03  1.01774E+04 -8.66012E+02  1.47219E+04 -9.21504E+03  8.33973E+03 -1.42670E+04 -3.11502E+03
 -1.05064E+04 -1.29502E+04 -1.40130E+03 -1.76905E+04  7.90114E+03 -1.41345E+04  1.50232E+04 -6.53799E+03
  1.35651E+04  9.54007E+02  9.84528E+03  3.69173E+03  4.68814E+03  3.44166E+02  7.11191E+03 -1.23006E+03
  1.26177E+04  2.60239E+03  1.31451E+04  1.20054E+04  8.07135E+03  2.31015E+04 -3.13155E+03  2.38286E+04
 -1.43693E+04  1.81675E+04 -2.20555E+04  8.36247E+03 -2.22567E+04 -1.60285E+03 -1.95057E+04 -1.26712E+04
 -9.29562E+03 -1.79394E+04  5.91542E+03 -1.74003E+04  1.51225E+04 -1.02348E+04  1.45377E+04  3.14247E+03
  6.34439E+03  1.02059E+04 -6.38235E+03  9.74270E+03 -1.26942E+04  2.62820E+03 -9.80252E+03 -7.31366E+03
  3.33990E+00 -1.15511E+04  5.80490E+03 -8.82741E+03  7.27312E+03 -1.24784E+03  1.36622E+03  4.37963E+03
 -5.23589E+03  9.62112E+02 -3.16650E+03 -4.10417E+03  1.00983E+03 -9.27174E+03  7.11999E+03 -8.65433E+03
  1.07283E+04 -3.65671E+03  1.00790E+04  2.87070E+03  8.64150E+03  8.47942E+03  4.23731E+03  1.22175E+04
 -1.29072E+03  1.39022E+04 -8.16262E+03  9.17410E+03 -9.83513E+03  2.75950E+03 -7.51778E+03 -1.36875E+03
 -4.43302E+03 -2.70225E+03 -7.85485E+02  1.54854E+03 -1.76214E+03  1.73360E+03 -3.10264E+03  3.42836E+03
 -7.34527E+03 -7.17330E+02 -8.13242E+03 -6.81728E+03 -3.46280E+03 -1.06499E+04  3.27484E+03 -7.52525E+03
  6.56808E+03 -3.28004E+03  4.99297E+03  1.76014E+03  5.21091E+02  2.94089E+03 -2.80492E+03  7.16329E+01
 -2.79118E+03 -4.62298E+03 -7.03902E+02 -6.23562E+03  3.08807E+03 -6.92825E+03  8.63940E+03 -3.58353E+03
  1.02944E+04  2.79638E+02  7.80034E+03  5.40343E+03  1.66095E+03  7.29698E+03 -4.81634E+03  7.07356E+03
 -6.14849E+03  2.80116E+03 -3.11733E+03 -1.29232E+03  1.39714E+03 -1.33696E+03  4.25802E+03 -7.52786E+02
  3.82756E+03  2.89753E+03  1.02630E+03  5.48893E+03 -4.24341E+03  5.67718E+03 -7.13849E+03  1.71898E+03
 -4.30191E+03 -3.26328E+03  3.79237E+02 -6.01271E+03  3.23941E+03 -2.71744E+03  2.96459E+03  8.88717E+02
  3.76704E+02  2.74333E+03 -3.57520E+03  4.02574E+03 -3.91569E+03  2.01179E+03 -3.43128E+03 -7.63458E+02
 -2.27344E+03 -4.92873E+03  7.77441E+02 -6.00579E+03  5.07307E+03 -3.96234E+03  5.45311E+03  4.96435E+02
  4.19452E+03  4.52930E+03  1.33349E+02  6.22336E+03 -4.45159E+03  3.56515E+03 -4.56859E+03 -5.85189E+02
 -5.40243E+03 -4.59175E+03 -1.21015E+03 -4.26017E+03  2.10627E+03 -4.09585E+03  2.11097E+03 -3.01093E+03
  2.56107E+03  2.09159E+02  1.69782E+02  1.03204E+03  4.45595E+02  1.04925E+02 -2.50034E+02 -1.23407E+03
  3.13281E+03 -5.27289E+02  3.89847E+03  7.17454E+02  4.61517E+03  2.30927E+03  4.84728E+03  5.79345E+03
 -8.41194E+02  6.87633E+03 -6.64494E+03  5.33825E+03 -8.32032E+03  1.22486E+03 -6.62197E+03 -1.97168E+03
 -3.61881E+03 -5.64315E+03 -2.68093E+02 -4.31950E+03  1.76331E+03 -1.45537E+03  1.44176E+03 -1.95694E+03
  8.81502E+02 -1.19812E+03  2.04678E+03 -2.34579E+03  3.24003E+03 -8.76040E+02  3.26921E+03  7.03039E+02
  3.92630E+03  8.52427E+02  7.38263E+02  2.87560E+03 -1.55809E+03  2.10642E+03 -3.74067E+03  1.99567E+03
 -4.24209E+03 -6.83701E+02 -1.20101E+03 -2.55108E+03  4.02190E+02 -3.92606E+03  2.75726E+03 -4.36823E+03
  4.23655E+03 -2.62543E+03  5.50277E+03  1.07669E+02  4.12998E+03  3.15432E+03  8.77619E+02  4.74571E+03
 -1.66602E+03  5.06884E+03 -2.75388E+03  1.61197E+03 -1.38582E+03 -9.50311E+02 -1.61657E+02 -6.21239E+02
 -5.05320E+02  3.87612E+02 -8.26374E+02  1.93875E+03 -2.30415E+03  9.79239E+02 -3.50146E+03 -2.36929E+02
 -9.86577E+02 -3.39129E+03  9.88218E+02 -3.85748E+03  2.32452E+03 -3.51034E+03  2.45034E+03 -6.67183E+02
  3.18147E+03  2.04029E+03  1.27513E+03  2.23290E+03 -5.05236E+02  3.73327E+03 -2.14831E+03  2.07396E+03
 -2.85061E+03  5.10821E+02 -2.80873E+03 -1.94691E+03 -9.80993E+01 -2.43170E+03  1.48495E+03 -1.78875E+03
  2.05692E+03 -1.00844E+03  1.47230E+03  3.65933E+02  3.18897E+02  1.75987E+03  7.29903E+02  4.01654E+02
  1.71486E+03  5.77028E+02  1.05058E+03  1.01875E+03  6.95040E+02  2.04923E+03  1.11542E+03  1.27684E+03
 -1.16349E+03  2.15315E+03 -2.11374E+03  3.31993E+03 -2.21446E+03  8.37085E+02 -3.26172E+03  1.23765E+02
 -1.16498E+03 -2.85976E+03  5.79352E+02 -3.79602E+03  1.43114E+03 -1.81763E+03  2.28165E+03 -8.38465E+02
  1.98810E+03  1.39833E+03  2.53739E+02  1.74940E+03 -5.54956E+02  1.06295E+03 -8.32438E+02 -1.86108E+02
 -5.07443E+02 -1.15728E+03  1.05052E+03 -9.39234E+02  8.97515E+02 -6.43386E+02  1.23705E+03  2.52441E+02
  8.35742E+02  1.27614E+01  6.47008E+02 -4.42057E+02 -4.81423E+02  8.32703E+02  1.65693E+03  2.34137E+01
  2.21067E+02 -7.88735E+01  1.51454E+03  4.88418E+02 -3.85088E+00  1.82959E+03 -4.04659E+02  2.57466E+03
 -1.19605E+03  7.06151E+02 -1.32923E+03  4.58021E+02 -1.71142E+03 -5.74020E+02  1.50124E+02 -7.56725E+02
  4.66541E+02 -9.82793E+02  7.82884E+02 -4.91056E+02  4.69258E+02  9.69880E+02 -6.48258E+02  1.12673E+03
 -1.60588E+03  2.75259E+02 -7.90872E+02 -1.19683E+03 -4.33091E+02 -1.94125E+03  3.02158E+01 -8.84555E+02
  3.50195E+02  1.84506E+01  4.08989E+02  3.45911E+02  1.19649E+03 -2.17591E+02  2.81244E+02  1.07644E+03
 -3.40962E+02 -1.04389E+02 -8.06879E+02  9.55567E+01  4.70400E+02 -4.40496E+02  1.34010E+03 -5.02974E+02
  9.56618E+02  2.20985E+02  2.52953E+03  5.00414E+02  9.08927E+02  1.23008E+03 -7.15553E+01  1.27992E+03
 -9.54988E+02 -1.38462E+02 -1.29723E+03 -1.04500E+02 -5.48128E+02 -1.03722E+03  1.51831E+02 -4.87477E+02
  1.05431E+03 -7.26328E+02  4.85572E+02  6.27733E+02 -8.10788E+01  1.20346E+03  3.49401E+02  6.95733E+02
 -2.84856E+01  1.13122E+03 -5.24079E+02  1.84489E+02  6.07781E+00  2.86431E+02 -7.04871E+02  6.48478E+02
 -2.54870E+02  9.11846E+02 -1.46458E+03  2.97046E+02 -1.09088E+03  2.96520E+02 -1.87468E+03 -7.27461E+02
 -6.18270E+02 -1.45093E+03  7.35333E+01 -2.29247E+03  8.02850E+02 -1.89055E+03  1.97880E+03 -8.27817E+02
  1.75615E+03 -1.05978E+02  8.55203E+02  1.09659E+03 -7.50814E+02  8.63885E+02 -4.79091E+02  9.63435E+02
 -5.65832E+02  4.86368E+02 -3.72309E+02  3.01129E+01 -5.81425E+02  1.94823E+02 -7.22517E+02  1.13549E+02
 -1.13187E+03 -1.83876E+02 -5.55078E+02  3.04779E+02  1.19858E+02 -4.68934E+02 -3.63060E+02 -6.99328E+02
  1.43346E+03 -5.68192E+02  4.37921E+02  1.40472E+02  1.09015E+03  7.28726E+02 -4.52300E+02  6.25152E+02
 -5.40731E+02  1.75798E+03 -1.17446E+03  1.08677E+03 -1.09575E+03 -1.97083E+02 -6.76896E+02 -9.97408E+02
 -6.32860E+02 -9.02946E+02  3.98837E+02 -6.51227E+02  5.85480E+02 -2.73103E+02  4.74483E+02  2.56087E+02
  6.95598E+02  5.27959E+02  1.95417E+02  2.10575E+02 -4.38954E+02 -2.21703E+02 -2.55329E+02 -1.68507E+02
  7.78818E+01  2.61865E+02  2.84232E+02  4.02192E+02 -7.63445E+01  3.14560E+02  5.46833E+02 -9.99913E+01
 -2.17381E+02  4.16433E+02 -2.26227E+02  1.02235E+02 -5.15925E+02 -1.60573E+02  5.94133E+01 -7.34283E+02
  2.07619E+02 -2.09678E+02  5.09156E+02  1.09515E+02  5.36751E+02 -6.75215E+02  9.46673E+01  7.23543E+02
  6.50289E+02 -1.20434E+02  8.25055E+01  2.63446E+02 -1.58476E+02  3.72301E+02 -3.04986E+02 -8.06402E+01
 -1.71672E+02 -1.71767E+02 -3.15794E+02 -3.82455E+01 -2.39640E+02  1.78208E+02 -4.65220E+02 -2.05965E+02
 -8.32810E+02  4.86316E+02 -2.59679E+02 -7.87680E+02  5.10149E+02 -1.14818E+03  5.66330E+02 -1.03824E+02
  9.12762E+02 -9.80512E+00 -6.29920E+02  7.98515E+01  9.87992E+00  6.93797E+02 -1.76151E+02  3.63311E+02
