 $NMID ID='MM_0lb_SNR800_10hz_g50_50.RAW', FMTDAT='(8E13.5)'
 TRAMP=1., VOLUME=1. $END
  3.10023E+05  1.33036E+02  3.37854E+05  2.50751E+05  8.47140E+04  3.38564E+05 -1.33005E+05  2.51829E+05
 -1.91160E+05  8.33447E+04 -1.12468E+05 -3.24063E+04  6.86929E+02 -5.06371E+04  5.38497E+04 -3.34326E+02
  3.55744E+04  5.28221E+04 -1.64413E+04  7.59343E+04 -6.08577E+04  6.37640E+04 -8.48754E+04  3.27643E+04
 -8.17683E+04 -1.15817E+04 -5.81342E+04 -5.20244E+04 -1.52536E+04 -7.06787E+04  2.82472E+04 -4.64981E+04
  4.12107E+04  3.50785E+03  1.66225E+04  4.87695E+04 -3.45732E+04  4.82824E+04 -6.81594E+04 -3.63859E+01
 -5.46707E+04 -5.76545E+04 -7.07573E+03 -7.84140E+04  3.47878E+04 -5.63694E+04  4.95946E+04 -1.80430E+04
  4.48729E+04  1.13134E+04  3.27467E+04  2.63169E+04  1.59282E+04  3.04202E+04 -6.06935E+03  2.80314E+04
 -2.21483E+04  1.19682E+04 -1.81049E+04 -5.64959E+03  6.83171E+03 -7.50082E+03  2.33945E+04  1.34111E+04
  7.39567E+03  3.67166E+04 -3.37038E+04  3.66734E+04 -6.56081E+04  2.30671E+03 -5.84146E+04 -4.43565E+04
 -1.23587E+04 -6.55008E+04  4.10464E+04 -4.69986E+04  6.05963E+04 -2.27105E+03  3.64479E+04  3.37503E+04
 -6.05042E+03  3.85166E+04 -3.16010E+04  1.78881E+04 -3.29369E+04 -3.73126E+03 -1.87182E+04 -1.17776E+04
 -9.51312E+03 -1.49044E+04 -1.71064E+02 -1.94527E+04  8.46655E+03 -2.36356E+04  1.56843E+04 -1.25563E+04
  1.07089E+04  5.93588E+03 -1.00102E+04  1.26920E+04 -2.27069E+04 -6.28643E+03 -8.33013E+03 -3.66238E+04
  2.44577E+04 -4.59726E+04  5.08849E+04 -2.06061E+04  4.75705E+04  2.03776E+04  1.67116E+04  4.66994E+04
 -1.65925E+04  3.54594E+04 -2.70272E+04  2.32639E+03 -1.13009E+04 -2.93131E+04  2.16084E+04 -3.63553E+04
  4.41698E+04 -1.08495E+04  3.92526E+04  2.49967E+04  2.10147E+04  5.00812E+04 -8.57469E+03  5.51558E+04
 -3.46552E+04  3.71171E+04 -4.63801E+04  1.09770E+04 -4.67595E+04 -1.82359E+04 -2.57058E+04 -4.12749E+04
  7.81699E+03 -4.10763E+04  3.34890E+04 -1.65179E+04  3.11176E+04  1.09918E+04  4.94041E+03  2.05131E+04
 -1.36891E+04  9.58960E+03 -1.08552E+04 -7.63905E+03  5.29028E+03 -1.11311E+04  1.87299E+04  5.78093E+03
  1.44624E+04  2.25763E+04 -5.59639E+03  2.67861E+04 -2.32698E+04  1.36087E+04 -3.05186E+04 -2.99404E+03
 -2.43534E+04 -1.83601E+04 -1.10354E+04 -2.38910E+04  4.10727E+03 -2.45173E+04  1.89317E+04 -2.22233E+04
  3.07126E+04 -1.41559E+04  3.69514E+04  4.17487E+03  2.60267E+04  2.32363E+04  4.25342E+03  3.99945E+04
 -1.97029E+04  3.34232E+04 -2.98445E+04  1.16018E+04 -2.17869E+04 -1.00949E+04 -4.42932E+03 -1.26977E+04
  7.73695E+02 -1.89490E+03 -6.84392E+03  8.06276E+03 -1.98091E+04  5.42403E+03 -1.92818E+04 -9.19144E+03
 -1.16297E+04 -2.27598E+04  5.55715E+03 -2.65911E+04  1.84592E+04 -1.89248E+04  2.17958E+04 -1.77835E+03
  1.37614E+04  1.54274E+04 -1.45487E+03  2.24811E+04 -1.60235E+04  1.29405E+04 -2.28184E+04 -4.94846E+03
 -1.68458E+04 -2.00961E+04 -2.37410E+03 -2.70756E+04  1.17238E+04 -2.22639E+04  2.25106E+04 -1.14038E+04
  2.11149E+04  2.96046E+01  1.52990E+04  5.12604E+03  8.42879E+03  1.41794E+03  1.14303E+04 -2.39535E+03
  2.09280E+04  3.03544E+03  2.40770E+04  1.76877E+04  1.61428E+04  3.58437E+04 -2.66953E+03  4.21606E+04
 -2.42191E+04  3.47447E+04 -3.90483E+04  1.76727E+04 -4.26176E+04 -3.40802E+03 -3.42335E+04 -2.49792E+04
 -1.39379E+04 -3.53779E+04  1.24022E+04 -3.07277E+04  2.65226E+04 -1.47572E+04  2.30365E+04  6.94851E+03
  7.97592E+03  1.76769E+04 -1.10707E+04  1.53207E+04 -1.95972E+04  2.90315E+03 -1.47970E+04 -1.26374E+04
 -5.95366E+02 -1.81333E+04  9.83282E+03 -1.34388E+04  1.26122E+04 -1.20289E+03  3.00982E+03  8.47269E+03
 -8.35829E+03  4.14961E+03 -8.49502E+03 -6.84604E+03 -1.40340E+03 -1.68928E+04  1.10723E+04 -1.83388E+04
  2.16631E+04 -1.01331E+04  2.41620E+04  3.37005E+03  2.10513E+04  1.72745E+04  9.95899E+03  2.72328E+04
 -4.85316E+03  2.94739E+04 -1.89131E+04  1.81718E+04 -2.13467E+04  3.81273E+03 -1.50274E+04 -5.48442E+03
 -6.40063E+03 -6.94010E+03 -5.90403E+02  1.45873E+02 -2.82434E+03  3.52171E+03 -6.77423E+03  4.85309E+03
 -1.37202E+04 -9.78070E+02 -1.41526E+04 -1.11587E+04 -5.21177E+03 -1.82957E+04  5.90008E+03 -1.45131E+04
  1.22310E+04 -6.19568E+03  8.49459E+03  4.08470E+03 -2.00681E+02  6.30574E+03 -7.30304E+03 -2.97419E+01
 -7.18827E+03 -9.27412E+03 -1.28488E+03 -1.47090E+04  8.46872E+03 -1.54345E+04  1.87946E+04 -8.13502E+03
  2.20744E+04  2.36588E+03  1.58660E+04  1.36147E+04  2.88772E+03  1.72829E+04 -9.08251E+03  1.47025E+04
 -1.21491E+04  4.64410E+03 -6.24150E+03 -3.42351E+03  2.26969E+03 -3.90742E+03  8.13499E+03 -8.89180E+02
  6.71671E+03  6.45355E+03  6.08483E+02  1.17065E+04 -8.45305E+03  1.14139E+04 -1.49403E+04  2.90539E+03
 -1.02291E+04 -7.26228E+03  2.66003E+02 -1.28067E+04  8.19511E+03 -6.34818E+03  8.38751E+03  3.28126E+03
  1.75396E+03  9.28812E+03 -7.85635E+03  1.04717E+04 -1.27546E+04  4.78582E+03 -1.27282E+04 -4.56473E+03
 -7.51470E+03 -1.43398E+04  3.53219E+03 -1.69082E+04  1.43444E+04 -1.01321E+04  1.53498E+04  2.78090E+03
  9.51859E+03  1.20106E+04 -1.54857E+03  1.48196E+04 -1.06176E+04  8.34240E+03 -1.18422E+04 -1.53063E+03
 -1.00824E+04 -9.73705E+03 -1.88062E+03 -1.12255E+04  5.87390E+03 -8.63442E+03  7.04544E+03 -3.33810E+03
  4.82917E+03  1.92057E+03 -7.67224E+02  1.65654E+03 -7.85076E+02 -2.82914E+03  2.37712E+03 -6.59450E+03
  1.06651E+04 -4.25551E+03  1.49215E+04  1.87691E+03  1.38113E+04  1.01711E+04  9.29512E+03  1.88140E+04
 -4.23886E+03  2.17702E+04 -1.81056E+04  1.59134E+04 -2.34917E+04  3.26674E+03 -1.91719E+04 -8.54225E+03
 -9.45777E+03 -1.55028E+04 -4.93354E+02 -1.28969E+04  4.99450E+03 -7.50508E+03  4.94997E+03 -4.62363E+03
  3.58164E+03 -3.33429E+03  4.09786E+03 -3.60967E+03  5.25119E+03 -3.26131E+03  7.66890E+03 -9.54926E+02
  1.00565E+04  2.28461E+03  5.05376E+03  8.37488E+03 -1.93659E+03  1.00534E+04 -1.03348E+04  7.73180E+03
 -1.31555E+04 -1.30992E+03 -8.50898E+03 -9.49286E+03 -1.08587E+03 -1.43787E+04  7.89783E+03 -1.41737E+04
  1.48696E+04 -8.12410E+03  1.75815E+04  2.68337E+03  1.20305E+04  1.25387E+04  2.35006E+03  1.62373E+04
 -6.74812E+03  1.29492E+04 -9.49977E+03  4.21021E+03 -6.48729E+03 -1.53600E+03 -2.85094E+03 -2.06082E+03
 -1.48556E+03 -1.69381E+02 -2.19731E+03  2.65367E+03 -5.44434E+03  2.27375E+03 -9.33541E+03 -7.60066E+02
 -6.56530E+03 -9.22728E+03  1.09007E+02 -1.35071E+04  8.27603E+03 -1.21021E+04  1.31810E+04 -3.58757E+03
  1.30129E+04  6.34671E+03  6.07784E+03  1.13654E+04 -2.47449E+03  1.32472E+04 -9.93842E+03  8.48442E+03
 -1.22626E+04  5.07348E+02 -9.65596E+03 -7.96374E+03 -1.04869E+03 -1.07145E+04  5.72979E+03 -8.32033E+03
  8.27606E+03 -2.73171E+03  6.19211E+03  1.77825E+03  2.07246E+03  4.09007E+03  9.99188E+02  1.57451E+03
  2.93773E+03  1.34324E+03  2.74719E+03  1.75873E+03  4.05019E+03  4.76727E+03  3.73153E+03  7.13801E+03
 -2.67075E+03  1.02428E+04 -9.37622E+03  1.02570E+04 -1.34378E+04  2.87732E+03 -1.40768E+04 -5.43484E+03
 -6.49330E+03 -1.31661E+04  1.88688E+03 -1.53460E+04  7.53734E+03 -9.41777E+03  1.07126E+04 -2.70881E+03
  8.84628E+03  5.13363E+03  1.71526E+03  7.67025E+03 -3.70615E+03  5.11819E+03 -5.39172E+03 -7.89834E+02
 -2.72604E+03 -5.79911E+03  2.97364E+03 -5.89598E+03  5.46967E+03 -2.46776E+03  5.76280E+03  1.34253E+03
  3.05691E+03  2.57353E+03  1.97390E+03  1.97916E+03 -2.63762E+02  2.06404E+03  1.75563E+03 -4.64306E+02
  1.76798E+03 -1.13505E+03  4.98644E+03  2.36525E+03  2.83080E+03  7.31901E+03 -1.17172E+03  9.26554E+03
 -5.89976E+03  6.19573E+03 -8.39979E+03  1.77216E+03 -7.30426E+03 -3.03501E+03 -2.74328E+03 -4.82209E+03
  1.08431E+03 -5.52054E+03  3.58037E+03 -2.40435E+03  2.57941E+03  2.67711E+03 -1.41089E+03  4.52360E+03
 -5.43724E+03  2.56091E+03 -6.15162E+03 -3.30191E+03 -3.27354E+03 -7.34267E+03  8.81931E+02 -7.36177E+03
  4.04751E+03 -4.63757E+03  5.60422E+03 -5.34299E+02  4.17486E+03  2.10811E+03  1.00664E+03  3.94152E+03
 -2.55654E+03  1.03632E+03 -3.45115E+03 -2.15979E+03  1.06892E+03 -5.36213E+03  6.90250E+03 -4.61929E+03
  8.45101E+03  9.41279E+02  8.26111E+03  5.74996E+03  2.73695E+03  8.92052E+03 -2.96551E+03  8.36951E+03
 -7.03261E+03  3.39979E+03 -7.11780E+03 -1.35100E+03 -3.87646E+03 -5.40531E+03  1.10997E+03 -5.03172E+03
  5.66542E+03 -2.84194E+03  4.27258E+03  2.54944E+03  1.42053E+03  4.48313E+03 -8.54381E+02  4.08204E+03
 -1.82796E+03  2.49877E+03 -1.80303E+03  1.24885E+03 -1.56388E+02  1.07402E+03 -1.88559E+03  1.80421E+03
 -2.04225E+03  3.13313E+03 -5.97464E+03  2.99528E+03 -8.57047E+03  4.35396E+02 -9.91818E+03 -5.63007E+03
 -4.95855E+03 -1.14464E+04  2.37432E+03 -1.30244E+04  7.76558E+03 -1.00933E+04  1.22912E+04 -3.86141E+03
  1.15605E+04  2.34194E+03  7.18485E+03  7.84481E+03  6.64980E+02  8.48325E+03 -3.20807E+03  6.34020E+03
 -5.00917E+03  2.56310E+03 -2.82500E+03 -7.36128E+02 -1.09721E+03 -7.55464E+02 -6.22198E+02 -1.87560E+02
 -1.35057E+03  2.41655E+02 -1.92514E+03  1.47868E+01 -9.42875E+02 -2.33652E+03  2.33708E+02 -3.86294E+03
  4.14419E+03 -2.89587E+03  5.14108E+03  2.49714E+02  6.10094E+03  4.94243E+03  1.42696E+03  8.76774E+03
 -4.66812E+03  9.75801E+03 -9.15631E+03  6.26005E+03 -1.04308E+04 -8.61186E+02 -8.24742E+03 -6.42214E+03
 -3.30219E+03 -8.94254E+03  2.51714E+03 -8.14980E+03  5.65549E+03 -4.64190E+03  5.81285E+03  2.85806E+02
  3.40640E+03  3.07331E+03 -2.82610E+02  2.31654E+03 -1.75720E+03  1.48618E+01  1.72410E+02 -1.77893E+03
  2.79102E+03 -1.17584E+03  3.41160E+03  1.09543E+03  2.81519E+03  3.31471E+03  1.20464E+02  4.46350E+03
 -3.60009E+03  3.38459E+03 -5.56087E+03  4.32257E+02 -5.11191E+03 -4.21638E+03 -6.03540E+02 -7.33266E+03
  3.86164E+03 -6.18299E+03  6.66580E+03 -2.09857E+03  6.73027E+03  1.55858E+03  3.73556E+03  5.59346E+03
  5.07200E+02  5.35701E+03 -2.01686E+03  4.90279E+03 -3.62513E+03  2.39450E+03 -3.19192E+03  2.20879E+02
 -1.48413E+03 -3.79812E+02 -2.02526E+03  3.45806E+02 -2.98649E+03  1.34280E+03 -4.58641E+03 -1.01007E+03
 -4.16695E+03 -2.73502E+03 -1.39339E+03 -5.77860E+03  2.70128E+03 -6.57558E+03  5.03687E+03 -2.50829E+03
  5.96181E+03  9.50643E+02  3.17164E+03  3.80307E+03 -4.21374E+02  5.75186E+03 -4.37556E+03  3.23139E+03
