 $NMID ID='MM_0lb_SNR800_13hz_g40_27.RAW', FMTDAT='(8E13.5)'
 TRAMP=1., VOLUME=1. $END
  3.09895E+05  4.65805E+02  3.37620E+05  2.50499E+05  8.43874E+04  3.37744E+05 -1.32271E+05  2.51113E+05
 -1.90575E+05  8.27997E+04 -1.11516E+05 -3.25921E+04  6.82294E+02 -5.06399E+04  5.38418E+04 -9.66832E+01
  3.53376E+04  5.27524E+04 -1.68359E+04  7.53868E+04 -6.06604E+04  6.31953E+04 -8.40361E+04  3.19720E+04
 -8.09386E+04 -1.17226E+04 -5.71705E+04 -5.13670E+04 -1.51805E+04 -6.94250E+04  2.74082E+04 -4.59901E+04
  4.01657E+04  4.01984E+03  1.63126E+04  4.75786E+04 -3.40256E+04  4.72523E+04 -6.63941E+04 -2.51203E+02
 -5.33151E+04 -5.66372E+04 -6.96323E+03 -7.70142E+04  3.40427E+04 -5.52836E+04  4.79103E+04 -1.71398E+04
  4.33410E+04  1.09134E+04  3.20259E+04  2.52467E+04  1.58344E+04  2.91249E+04 -5.28840E+03  2.71825E+04
 -2.23277E+04  1.22975E+04 -1.81664E+04 -4.74452E+03  5.42244E+03 -7.71131E+03  2.23250E+04  1.20858E+04
  7.27544E+03  3.50711E+04 -3.18056E+04  3.54356E+04 -6.33537E+04  2.03768E+03 -5.66800E+04 -4.26132E+04
 -1.24714E+04 -6.31240E+04  4.00169E+04 -4.50293E+04  5.83455E+04 -2.49884E+03  3.40580E+04  3.22595E+04
 -6.07313E+03  3.60949E+04 -3.02114E+04  1.58155E+04 -3.01815E+04 -4.62018E+03 -1.68472E+04 -1.11031E+04
 -8.12220E+03 -1.32083E+04 -9.91080E+02 -1.79812E+04  7.26944E+03 -2.29039E+04  1.55493E+04 -1.30818E+04
  1.15825E+04  4.97569E+03 -8.58800E+03  1.30100E+04 -2.10995E+04 -4.40215E+03 -8.41789E+03 -3.38137E+04
  2.28572E+04 -4.35143E+04  4.82374E+04 -1.98318E+04  4.48079E+04  1.96229E+04  1.55213E+04  4.40853E+04
 -1.62360E+04  3.33638E+04 -2.51661E+04  2.09757E+03 -9.59902E+03 -2.75228E+04  2.07810E+04 -3.37740E+04
  4.08705E+04 -9.27392E+03  3.56094E+04  2.36202E+04  1.80830E+04  4.63282E+04 -8.33091E+03  4.99713E+04
 -3.13436E+04  3.36909E+04 -4.18943E+04  9.45633E+03 -4.28723E+04 -1.61085E+04 -2.33832E+04 -3.82131E+04
  7.40101E+03 -3.73710E+04  3.16455E+04 -1.46087E+04  2.92623E+04  1.10483E+04  3.86313E+03  1.91639E+04
 -1.34408E+04  8.37944E+03 -1.01451E+04 -7.48118E+03  5.66757E+03 -1.04853E+04  1.79635E+04  6.09584E+03
  1.35801E+04  2.20275E+04 -5.97967E+03  2.50715E+04 -2.23500E+04  1.16588E+04 -2.83012E+04 -4.83534E+03
 -2.08741E+04 -1.73529E+04 -8.62095E+03 -2.03049E+04  4.17349E+03 -1.95254E+04  1.57474E+04 -1.83898E+04
  2.60940E+04 -1.28287E+04  3.25944E+04  2.91143E+03  2.37536E+04  1.97819E+04  4.11239E+03  3.64740E+04
 -1.76478E+04  3.05461E+04 -2.80234E+04  1.07138E+04 -2.09744E+04 -1.06186E+04 -4.18179E+03 -1.33072E+04
  1.81924E+03 -2.59871E+03 -4.87766E+03  6.98770E+03 -1.62618E+04  4.89444E+03 -1.61494E+04 -6.74226E+03
 -1.00617E+04 -1.89581E+04  5.29230E+03 -2.30288E+04  1.52791E+04 -1.66272E+04  1.80046E+04 -1.66913E+03
  1.12233E+04  1.30752E+04 -1.28229E+03  1.92462E+04 -1.32014E+04  1.09785E+04 -1.92110E+04 -3.80946E+03
 -1.39000E+04 -1.71029E+04 -1.79914E+03 -2.31191E+04  1.06349E+04 -1.87126E+04  1.94301E+04 -9.69338E+03
  1.81063E+04  3.64429E+02  1.30291E+04  4.58529E+03  6.76356E+03  7.66388E+02  9.56380E+03 -1.71503E+03
  1.77439E+04  2.66800E+03  1.94119E+04  1.51712E+04  1.29816E+04  3.06263E+04 -2.96995E+03  3.46103E+04
 -2.01076E+04  2.77154E+04 -3.22011E+04  1.37281E+04 -3.35627E+04 -2.45147E+03 -2.79154E+04 -1.95338E+04
 -1.20603E+04 -2.77183E+04  9.76350E+03 -2.50695E+04  2.15285E+04 -1.28558E+04  1.94132E+04  5.81097E+03
  7.23433E+03  1.43817E+04 -9.10328E+03  1.25564E+04 -1.61550E+04  2.53075E+03 -1.23375E+04 -1.02059E+04
 -3.62352E+02 -1.54050E+04  8.16213E+03 -1.17173E+04  1.01490E+04 -1.24303E+03  2.38685E+03  6.68453E+03
 -7.04751E+03  2.61388E+03 -6.25160E+03 -5.77189E+03 -1.89540E+02 -1.39267E+04  9.38935E+03 -1.43026E+04
  1.67525E+04 -7.43463E+03  1.81821E+04  2.96829E+03  1.61267E+04  1.34582E+04  7.19695E+03  2.05038E+04
 -3.28072E+03  2.25509E+04 -1.43734E+04  1.43346E+04 -1.63380E+04  3.22789E+03 -1.12688E+04 -3.25924E+03
 -5.21444E+03 -5.20155E+03 -7.13046E+02  8.72516E+02 -2.51109E+03  2.71195E+03 -5.09282E+03  4.49274E+03
 -1.09524E+04 -8.80425E+02 -1.11326E+04 -9.40331E+03 -4.49672E+03 -1.48756E+04  5.01045E+03 -1.19545E+04
  9.83002E+03 -5.19144E+03  7.08988E+03  2.88669E+03  3.89496E+02  4.41657E+03 -5.48330E+03 -3.50528E+02
 -5.04621E+03 -7.21616E+03 -7.78079E+02 -1.07557E+04  5.92496E+03 -1.15024E+04  1.40943E+04 -6.12970E+03
  1.68988E+04  1.73450E+03  1.23180E+04  9.90307E+03  2.32544E+03  1.32194E+04 -7.23542E+03  1.13702E+04
 -9.56917E+03  3.73364E+03 -4.91051E+03 -1.97903E+03  1.37982E+03 -3.02782E+03  6.43576E+03 -1.07919E+03
  5.63891E+03  4.65040E+03  6.75634E+02  9.35184E+03 -6.74812E+03  8.90195E+03 -1.12159E+04  2.27092E+03
 -7.39934E+03 -5.70555E+03  2.69287E+02 -9.45274E+03  5.82916E+03 -5.17404E+03  5.88954E+03  2.27255E+03
  1.31891E+03  6.09759E+03 -5.71775E+03  7.74919E+03 -8.41997E+03  3.41241E+03 -8.47069E+03 -2.60044E+03
 -4.80321E+03 -1.02038E+04  2.60980E+03 -1.19207E+04  9.93742E+03 -7.14841E+03  1.09589E+04  1.89759E+03
  7.07799E+03  8.88582E+03 -5.42156E+02  1.07756E+04 -7.86520E+03  6.21898E+03 -8.41478E+03 -8.38294E+02
 -7.61488E+03 -7.44285E+03 -1.39411E+03 -8.01304E+03  4.23768E+03 -6.81390E+03  4.89818E+03 -3.12864E+03
  3.76818E+03  9.56179E+02 -1.88073E+02  1.63616E+03  3.65133E+02 -1.55277E+03  1.15215E+03 -4.48688E+03
  6.98551E+03 -2.94864E+03  1.00949E+04  1.32635E+03  1.00137E+04  6.28822E+03  7.40053E+03  1.26143E+04
 -3.00497E+03  1.50172E+04 -1.28330E+04  1.13216E+04 -1.65757E+04  2.37361E+03 -1.30815E+04 -5.06948E+03
 -6.82721E+03 -1.07826E+04 -3.28244E+02 -9.16781E+03  2.87203E+03 -5.04523E+03  3.17668E+03 -3.41389E+03
  2.45307E+03 -2.10285E+03  3.04271E+03 -2.85461E+03  4.44699E+03 -2.16968E+03  5.47395E+03 -1.60299E+02
  6.93935E+03  1.65016E+03  3.20792E+03  5.94311E+03 -1.84568E+03  6.65958E+03 -7.66871E+03  5.14784E+03
 -8.83722E+03 -1.24483E+03 -5.14407E+03 -6.14253E+03 -1.20729E+02 -9.47422E+03  5.52792E+03 -9.92579E+03
  9.78870E+03 -5.54893E+03  1.18706E+04  1.30361E+03  8.53663E+03  8.34234E+03  1.40972E+03  1.08485E+04
 -4.66273E+03  9.30525E+03 -6.14091E+03  3.02980E+03 -4.15780E+03 -1.58045E+03 -1.27804E+03 -1.36398E+03
 -4.16302E+02  2.05708E+01 -1.52575E+03  2.34767E+03 -4.06649E+03  1.72954E+03 -6.52942E+03 -6.99641E+02
 -3.73893E+03 -6.70895E+03  4.76764E+02 -8.74526E+03  5.34623E+03 -8.02696E+03  8.19484E+03 -2.24697E+03
  8.40101E+03  4.13106E+03  3.87703E+03  7.30505E+03 -1.65603E+03  8.68575E+03 -5.72729E+03  5.33889E+03
 -7.62682E+03  7.34199E+02 -6.21507E+03 -4.97766E+03 -6.67535E+02 -6.72278E+03  3.86628E+03 -5.14508E+03
  5.17139E+03 -2.05991E+03  3.46827E+03  1.43663E+03  1.15632E+03  2.96069E+03  1.23807E+03  1.24676E+03
  2.15253E+03  9.20460E+02  2.34101E+03  1.37872E+03  2.51403E+03  3.56020E+03  2.17053E+03  4.32322E+03
 -1.87096E+03  6.42280E+03 -5.46323E+03  7.10839E+03 -8.03898E+03  1.97296E+03 -8.93574E+03 -2.75979E+03
 -3.83583E+03 -8.05228E+03  1.32941E+03 -9.03044E+03  4.83008E+03 -5.71531E+03  6.47615E+03 -1.49728E+03
  5.21232E+03  3.48803E+03  1.51099E+03  4.75927E+03 -2.13610E+03  2.64064E+03 -3.10662E+03 -4.46726E+02
 -1.38921E+03 -3.33574E+03  2.26797E+03 -3.40389E+03  2.99564E+03 -2.13387E+03  3.27006E+03  7.97947E+02
  1.91626E+03  1.48575E+03  1.14627E+03  9.15785E+02 -4.19603E+02  1.18151E+03  1.17129E+03 -3.25816E+02
  9.81356E+02 -4.74992E+02  3.73503E+03  1.48043E+03  1.76608E+03  4.57648E+03 -8.44723E+02  5.93193E+03
 -3.96318E+03  3.17908E+03 -4.70597E+03  9.57834E+02 -4.56513E+03 -1.71516E+03 -1.37474E+03 -3.04741E+03
  7.95283E+02 -2.90930E+03  2.07376E+03 -1.50882E+03  1.50726E+03  1.86165E+03 -9.88371E+02  2.77434E+03
 -3.34628E+03  1.81426E+03 -3.13244E+03 -2.13812E+03 -2.10798E+03 -4.58852E+03  6.20764E+02 -4.34599E+03
  2.03637E+03 -2.35245E+03  2.79020E+03 -6.92665E+01  2.55808E+03  7.49499E+02  2.38531E+02  2.30798E+03
 -1.31819E+03  6.28231E+02 -2.04046E+03 -1.09954E+03  8.24733E+02 -2.80567E+03  3.99689E+03 -2.65228E+03
  4.44544E+03  8.73337E+02  4.83677E+03  3.09453E+03  1.68141E+03  4.91969E+03 -1.76701E+03  4.64511E+03
 -3.68078E+03  1.77689E+03 -4.17594E+03 -5.37426E+02 -2.17996E+03 -3.37508E+03  6.25135E+02 -2.57082E+03
  3.31902E+03 -1.50677E+03  2.34212E+03  1.58547E+03  3.33818E+02  2.86074E+03  1.22870E+02  2.60247E+03
 -1.45199E+03  1.46408E+03 -1.10817E+03  7.53423E+02 -4.15646E+02  5.82492E+02 -7.33051E+02  1.04482E+03
 -1.26363E+03  1.98468E+03 -3.52939E+03  1.56210E+03 -5.04120E+03  5.27164E+01 -5.50538E+03 -3.24146E+03
 -3.35459E+03 -6.47506E+03  1.26501E+03 -7.36398E+03  4.28058E+03 -6.24038E+03  7.09512E+03 -2.46762E+03
  6.61258E+03  1.10226E+03  3.82996E+03  4.36180E+03 -2.72741E+02  4.64174E+03 -1.99681E+03  3.58950E+03
 -2.50467E+03  1.53530E+03 -1.54455E+03 -8.96406E+02 -7.69695E+02 -5.33904E+02 -6.68684E+02  1.17880E+02
 -1.69606E+03 -6.29772E+01 -1.62047E+03 -2.03848E+02  1.24862E+02 -1.33916E+03 -6.74342E+01 -2.02688E+03
  2.44555E+03 -1.31818E+03  2.77348E+03  1.23114E+02  3.22413E+03  2.72924E+03  3.74487E+02  5.00773E+03
 -2.24290E+03  5.16581E+03 -4.84766E+03  3.15156E+03 -5.56809E+03 -4.63034E+02 -4.42718E+03 -3.50011E+03
 -1.96438E+03 -4.56229E+03  9.46539E+02 -4.08845E+03  2.79769E+03 -2.07032E+03  3.05270E+03  7.70665E+01
  1.90816E+03  1.40190E+03 -1.68249E+02  1.26565E+03 -9.39198E+02  1.30871E+02  2.96397E+01 -8.28587E+02
  1.06818E+03 -6.95297E+02  1.59240E+03  6.62100E+02  1.42452E+03  1.45563E+03  7.20765E+02  2.09109E+03
 -2.08131E+03  1.83396E+03 -2.69005E+03  3.06033E+02 -2.45827E+03 -2.05757E+03 -2.52074E+02 -4.01582E+03
  1.97010E+03 -3.12661E+03  3.04728E+03 -6.60910E+02  3.35846E+03  1.59253E+02  1.86557E+03  2.70983E+03
  6.75348E+02  2.95666E+03 -9.00342E+02  2.05164E+03 -2.12593E+03  1.25424E+03 -1.64218E+03  3.44353E+02
 -7.24082E+02 -6.33780E+01 -1.23328E+03 -1.29812E+02 -1.70810E+03  5.45704E+02 -1.90636E+03 -3.12085E+02
 -2.05199E+03 -1.36138E+03 -7.33691E+02 -2.92137E+03  1.60275E+03 -3.56967E+03  2.62422E+03 -1.30674E+03
  3.02237E+03  5.11378E+02  1.29041E+03  1.91208E+03 -1.93359E+02  2.90606E+03 -1.87355E+03  2.02086E+03
