 $NMID ID='MM_0lb_SNR800_16hz_g55_2.RAW', FMTDAT='(8E13.5)'
 TRAMP=1., VOLUME=1. $END
  3.09834E+05  3.29490E+02  3.37759E+05  2.50740E+05  8.46539E+04  3.37774E+05 -1.32637E+05  2.51124E+05
 -1.89890E+05  8.28798E+04 -1.11500E+05 -3.27695E+04  8.26093E+02 -5.04775E+04  5.38760E+04  2.68212E+01
  3.55042E+04  5.27729E+04 -1.68318E+04  7.53416E+04 -6.05568E+04  6.35776E+04 -8.39448E+04  3.20662E+04
 -8.10263E+04 -1.12158E+04 -5.70135E+04 -5.09453E+04 -1.50660E+04 -6.88902E+04  2.73767E+04 -4.56442E+04
  4.01411E+04  3.98068E+03  1.61397E+04  4.77546E+04 -3.43200E+04  4.66360E+04 -6.63517E+04 -3.40089E+02
 -5.34757E+04 -5.68103E+04 -6.76014E+03 -7.67974E+04  3.40420E+04 -5.47434E+04  4.77025E+04 -1.68021E+04
  4.31588E+04  1.12981E+04  3.15641E+04  2.53579E+04  1.57036E+04  2.91015E+04 -5.25490E+03  2.69036E+04
 -2.19142E+04  1.22705E+04 -1.86173E+04 -4.74573E+03  5.23414E+03 -7.33052E+03  2.21944E+04  1.20382E+04
  7.03090E+03  3.50222E+04 -3.19107E+04  3.50571E+04 -6.30076E+04  2.00719E+03 -5.68965E+04 -4.26423E+04
 -1.23493E+04 -6.27781E+04  3.93007E+04 -4.48917E+04  5.75896E+04 -2.34378E+03  3.37749E+04  3.23510E+04
 -6.08035E+03  3.55361E+04 -2.98830E+04  1.55167E+04 -2.98494E+04 -4.65685E+03 -1.62825E+04 -1.08814E+04
 -8.07891E+03 -1.28665E+04 -9.35078E+02 -1.75519E+04  7.26978E+03 -2.29160E+04  1.55785E+04 -1.32525E+04
  1.16485E+04  4.49052E+03 -7.61094E+03  1.29496E+04 -2.06850E+04 -4.00168E+03 -8.26217E+03 -3.31663E+04
  2.23470E+04 -4.29310E+04  4.73430E+04 -1.97541E+04  4.44024E+04  1.91154E+04  1.54809E+04  4.37225E+04
 -1.54454E+04  3.29338E+04 -2.50255E+04  1.46509E+03 -9.68426E+03 -2.75234E+04  2.07853E+04 -3.32635E+04
  4.02859E+04 -8.47747E+03  3.46938E+04  2.32461E+04  1.74141E+04  4.56163E+04 -8.18523E+03  4.89968E+04
 -3.08097E+04  3.28121E+04 -4.11256E+04  9.26525E+03 -4.16096E+04 -1.61760E+04 -2.26538E+04 -3.75019E+04
  7.30335E+03 -3.70267E+04  3.11072E+04 -1.45534E+04  2.89993E+04  1.08818E+04  3.95107E+03  1.88912E+04
 -1.32400E+04  8.29759E+03 -1.01240E+04 -7.49421E+03  5.91062E+03 -1.07588E+04  1.77030E+04  6.24225E+03
  1.32935E+04  2.16406E+04 -6.12245E+03  2.44970E+04 -2.22080E+04  1.08842E+04 -2.77554E+04 -4.97466E+03
 -1.98348E+04 -1.71119E+04 -7.60554E+03 -1.96745E+04  4.05748E+03 -1.87363E+04  1.49985E+04 -1.74429E+04
  2.49188E+04 -1.26979E+04  3.13862E+04  2.44552E+03  2.31593E+04  1.91700E+04  4.10948E+03  3.53601E+04
 -1.73590E+04  2.99456E+04 -2.77509E+04  1.01386E+04 -2.04475E+04 -1.04245E+04 -4.25502E+03 -1.35926E+04
  2.06909E+03 -3.20390E+03 -4.18585E+03  6.09070E+03 -1.54314E+04  5.11704E+03 -1.54855E+04 -6.34773E+03
 -9.45923E+03 -1.81440E+04  5.07043E+03 -2.23654E+04  1.47384E+04 -1.60710E+04  1.73642E+04 -1.82736E+03
  1.07258E+04  1.27175E+04 -8.93163E+02  1.81773E+04 -1.23630E+04  1.03093E+04 -1.77553E+04 -3.74443E+03
 -1.31585E+04 -1.63727E+04 -1.77381E+03 -2.17283E+04  1.02203E+04 -1.80021E+04  1.84116E+04 -8.96321E+03
  1.68785E+04  4.27002E+02  1.20269E+04  4.18902E+03  6.26532E+03  7.09564E+02  9.29265E+03 -1.44073E+03
  1.65284E+04  2.68514E+03  1.82647E+04  1.44213E+04  1.13858E+04  2.87304E+04 -3.06081E+03  3.17177E+04
 -1.91201E+04  2.52569E+04 -2.99401E+04  1.26528E+04 -3.10859E+04 -2.08598E+03 -2.59698E+04 -1.76752E+04
 -1.12424E+04 -2.55167E+04  8.86843E+03 -2.32144E+04  2.01731E+04 -1.23883E+04  1.80781E+04  5.13414E+03
  6.78538E+03  1.34302E+04 -8.56832E+03  1.16484E+04 -1.57870E+04  2.47948E+03 -1.16929E+04 -9.53526E+03
 -3.55973E+02 -1.43126E+04  7.37785E+03 -1.10819E+04  9.50184E+03 -1.30953E+03  2.15150E+03  5.99484E+03
 -6.44108E+03  2.16869E+03 -5.45312E+03 -5.32818E+03 -9.88787E+01 -1.22575E+04  8.88420E+03 -1.28778E+04
  1.52684E+04 -6.74009E+03  1.62680E+04  2.91401E+03  1.39875E+04  1.21194E+04  6.73551E+03  1.86100E+04
 -2.71355E+03  2.04045E+04 -1.27758E+04  1.24451E+04 -1.42832E+04  3.50104E+03 -1.05343E+04 -2.80368E+03
 -5.02365E+03 -4.34500E+03 -9.59898E+02  1.03329E+03 -2.26475E+03  2.41900E+03 -4.90587E+03  4.27011E+03
 -9.90755E+03 -6.47306E+02 -1.07403E+04 -8.66931E+03 -4.28835E+03 -1.37867E+04  4.44765E+03 -1.04846E+04
  8.63733E+03 -4.62249E+03  6.24307E+03  2.82749E+03  3.08687E+02  4.02985E+03 -4.67448E+03 -6.51262E+01
 -4.59276E+03 -6.49476E+03 -1.01334E+03 -9.69734E+03  4.96050E+03 -1.03277E+04  1.26950E+04 -5.23847E+03
  1.46826E+04  9.25533E+02  1.09811E+04  8.11965E+03  2.21472E+03  1.15600E+04 -6.40075E+03  1.03233E+04
 -8.49261E+03  3.41091E+03 -4.20664E+03 -1.61512E+03  1.81448E+03 -2.50681E+03  5.61985E+03 -9.03502E+02
  4.87696E+03  4.34375E+03  7.29595E+02  7.99914E+03 -5.50270E+03  7.81695E+03 -9.57535E+03  2.25073E+03
 -6.34797E+03 -4.92716E+03  4.37540E+01 -8.19237E+03  5.02660E+03 -4.37220E+03  5.07007E+03  1.52453E+03
  7.81440E+02  5.06183E+03 -5.03319E+03  6.45462E+03 -7.04458E+03  2.95868E+03 -6.65402E+03 -2.12466E+03
 -4.25769E+03 -8.51984E+03  1.90202E+03 -9.96355E+03  7.96420E+03 -6.40341E+03  8.85965E+03  1.51230E+03
  5.99673E+03  7.23882E+03 -1.78607E+02  9.81548E+03 -6.70713E+03  5.10412E+03 -7.21874E+03 -5.54165E+02
 -6.98555E+03 -6.45469E+03 -1.47549E+03 -6.81658E+03  3.48463E+03 -5.96834E+03  4.13075E+03 -3.07681E+03
  3.00527E+03  3.74704E+02 -2.88468E+02  1.68274E+03  2.72216E+02 -1.16606E+03  6.41372E+02 -2.96060E+03
  5.51340E+03 -1.60485E+03  7.87447E+03  7.94833E+02  8.20106E+03  4.93911E+03  6.16782E+03  1.05098E+04
 -2.05432E+03  1.16728E+04 -1.05243E+04  8.98723E+03 -1.34355E+04  1.95882E+03 -1.04925E+04 -4.18093E+03
 -5.53232E+03 -8.66733E+03 -4.19743E+02 -7.21744E+03  2.85139E+03 -3.49888E+03  2.68907E+03 -3.09850E+03
  1.99436E+03 -1.87220E+03  2.54886E+03 -2.69340E+03  4.02008E+03 -2.08907E+03  4.65571E+03  1.34978E+02
  5.72257E+03  1.79811E+03  2.33547E+03  4.68723E+03 -1.94184E+03  4.84913E+03 -6.10297E+03  4.00718E+03
 -6.89022E+03 -9.57203E+02 -3.27941E+03 -4.90178E+03  2.86062E+02 -7.31580E+03  4.15452E+03 -7.45180E+03
  7.55770E+03 -4.51318E+03  9.64476E+03  8.16173E+02  6.61202E+03  5.99726E+03  1.45924E+03  8.41162E+03
 -3.33886E+03  7.51200E+03 -4.93095E+03  2.87668E+03 -2.78944E+03 -9.30069E+02 -9.67480E+02 -9.21632E+02
 -4.64542E+02  6.16337E+02 -1.11748E+03  2.08820E+03 -3.15025E+03  1.24813E+03 -5.26529E+03 -4.94491E+02
 -2.76586E+03 -5.08361E+03  4.69564E+02 -6.96495E+03  4.08156E+03 -6.00405E+03  5.53573E+03 -1.66888E+03
  5.77066E+03  3.32714E+03  2.96607E+03  5.03046E+03 -1.31875E+03  6.24475E+03 -4.10869E+03  3.97910E+03
 -5.69932E+03  6.78873E+02 -4.70491E+03 -3.84524E+03 -5.48047E+02 -4.92448E+03  2.29661E+03 -3.97241E+03
  3.75448E+03 -1.52122E+03  2.70372E+03  8.49300E+02  7.18545E+02  1.96510E+03  8.35941E+02  3.97770E+02
  1.98969E+03  6.19357E+02  1.86172E+03  1.14898E+03  1.81921E+03  2.65643E+03  1.79403E+03  2.98089E+03
 -1.83838E+03  4.58493E+03 -3.78246E+03  5.13566E+03 -5.40498E+03  1.44986E+03 -6.22389E+03 -1.49836E+03
 -2.69685E+03 -5.81243E+03  1.02787E+03 -6.72759E+03  2.84409E+03 -4.03024E+03  4.66634E+03 -1.29347E+03
  3.88720E+03  2.49710E+03  5.31013E+02  3.63524E+03 -1.43939E+03  1.89042E+03 -2.04898E+03 -2.29649E+02
 -8.79608E+02 -2.41809E+03  1.49562E+03 -2.59842E+03  2.50838E+03 -1.40406E+03  2.05143E+03  6.73477E+02
  1.22499E+03  7.22501E+02  9.40578E+02  4.84827E+01 -5.32868E+02  1.09623E+03  1.66481E+03 -4.83555E+02
  5.50634E+02 -1.91674E+02  2.55635E+03  8.04184E+02  9.30383E+02  3.65558E+03 -5.06533E+02  4.39464E+03
 -2.46130E+03  2.16494E+03 -3.34770E+03  7.29555E+02 -3.02232E+03 -1.19787E+03 -5.71242E+02 -1.74480E+03
  6.09071E+02 -1.87613E+03  1.44956E+03 -1.02199E+03  9.89969E+02  1.36260E+03 -6.29966E+02  1.84328E+03
 -2.33788E+03  1.15285E+03 -2.10529E+03 -1.76580E+03 -1.20291E+03 -3.04580E+03  2.59299E+02 -2.64339E+03
  1.49418E+03 -1.24885E+03  1.72135E+03  1.05477E+02  1.84028E+03  5.49944E+01  1.75892E+02  1.70059E+03
 -4.56667E+02  2.37313E+02 -1.11895E+03 -8.36594E+02  6.50766E+02 -1.92302E+03  2.23020E+03 -1.65146E+03
  2.56331E+03  2.89676E+02  3.60106E+03  1.57984E+03  1.32125E+03  2.94068E+03 -6.64025E+02  2.72441E+03
 -2.18372E+03  7.43287E+02 -2.48671E+03 -6.34023E+02 -1.33965E+03 -2.19793E+03  8.51038E+02 -9.89508E+02
  2.02660E+03 -7.73702E+02  1.41907E+03  1.01532E+03  6.67985E+02  2.21685E+03  6.76919E+01  1.53494E+03
 -6.30727E+02  1.29519E+03 -5.93962E+02  4.09915E+02 -1.95207E+02  4.99337E+02 -8.87570E+02  1.03745E+03
 -7.02213E+02  1.09091E+03 -2.32490E+03  8.64602E+02 -2.48596E+03  9.57653E+01 -3.18499E+03 -1.73044E+03
 -1.55332E+03 -3.74983E+03  7.24793E+02 -4.55038E+03  2.22846E+03 -3.77917E+03  4.27643E+03 -1.70558E+03
  3.61054E+03  3.35806E+02  2.03616E+03  2.66117E+03  2.04336E+02  2.47309E+03 -1.14710E+03  2.22850E+03
 -1.66155E+03  9.01168E+02 -9.19210E+02 -4.37978E+02 -4.08335E+02  2.39552E+02 -8.51605E+02  2.92020E+02
 -1.11568E+03  3.58547E+02 -1.24642E+03  7.67521E+01  2.87757E+01 -9.91448E+02 -4.05392E+02 -1.36345E+03
  1.83342E+03 -8.24061E+02  1.08231E+03  3.03252E+02  1.94178E+03  1.66041E+03 -8.72559E+01  2.40760E+03
 -1.76365E+03  3.44958E+03 -2.75460E+03  1.94219E+03 -3.12490E+03 -3.26783E+02 -2.11855E+03 -1.94156E+03
 -1.25788E+03 -2.08285E+03  5.43421E+02 -2.20093E+03  1.37714E+03 -1.26208E+03  1.30474E+03  2.95028E+02
  8.05602E+02  8.57780E+02  8.02956E+01  5.83107E+02 -4.61061E+02 -1.12345E+02 -1.30312E+02 -4.38492E+02
  9.55616E+02 -5.24622E+01  5.30067E+02  8.80209E+02  4.45125E+02  9.23969E+02  1.78568E+02  7.18999E+02
 -1.06673E+03  9.52282E+02 -1.27605E+03  8.10636E+01 -1.42857E+03 -8.32931E+02  3.08358E+02 -2.04479E+03
  7.70800E+02 -1.52525E+03  1.57960E+03 -2.49045E+02  1.73007E+03 -3.94941E+02  8.22544E+02  1.08372E+03
  6.78719E+02  1.17103E+03 -5.00542E+02  8.37963E+02 -9.83477E+02  6.90585E+02 -6.79138E+02  3.11603E+02
 -2.46314E+02 -4.33900E+01 -7.73972E+02  1.25525E+02 -1.13282E+03  5.67004E+02 -9.42832E+02 -4.51220E+02
 -1.43539E+03 -1.91302E+02 -3.91493E+02 -1.50408E+03  9.28912E+02 -2.20144E+03  1.44565E+03 -9.64665E+02
  1.28367E+03  5.48084E+01  3.60824E+02  7.57366E+02 -1.97061E+02  1.36430E+03 -1.09240E+03  1.17154E+03
