 $NMID ID='MM_0lb_SNR800_15hz_g45_87.RAW', FMTDAT='(8E13.5)'
 TRAMP=1., VOLUME=1. $END
  3.09787E+05  4.64573E+02  3.37471E+05  2.50105E+05  8.46202E+04  3.37752E+05 -1.32231E+05  2.50932E+05
 -1.90094E+05  8.31070E+04 -1.11304E+05 -3.27417E+04  1.34046E+03 -5.06006E+04  5.40409E+04  2.49121E+00
  3.52264E+04  5.28521E+04 -1.68756E+04  7.53081E+04 -6.07442E+04  6.33643E+04 -8.37590E+04  3.18994E+04
 -8.04657E+04 -1.18129E+04 -5.68408E+04 -5.10272E+04 -1.49312E+04 -6.92213E+04  2.70516E+04 -4.55224E+04
  3.93466E+04  3.98370E+03  1.60418E+04  4.78659E+04 -3.40456E+04  4.69702E+04 -6.63628E+04 -2.07107E+02
 -5.27648E+04 -5.65653E+04 -6.81611E+03 -7.65173E+04  3.36391E+04 -5.43585E+04  4.74175E+04 -1.71182E+04
  4.27007E+04  1.07775E+04  3.17297E+04  2.53265E+04  1.60786E+04  2.88775E+04 -4.95496E+03  2.69914E+04
 -2.17434E+04  1.24610E+04 -1.88348E+04 -4.70426E+03  5.01451E+03 -7.39724E+03  2.19048E+04  1.19892E+04
  7.34035E+03  3.45265E+04 -3.17214E+04  3.48961E+04 -6.26272E+04  2.11982E+03 -5.66506E+04 -4.21633E+04
 -1.25383E+04 -6.24519E+04  3.91796E+04 -4.47497E+04  5.75415E+04 -2.20098E+03  3.31055E+04  3.18304E+04
 -6.40942E+03  3.52937E+04 -2.97342E+04  1.50575E+04 -2.93880E+04 -4.94176E+03 -1.56083E+04 -1.03608E+04
 -7.97554E+03 -1.25292E+04 -4.35944E+02 -1.73998E+04  7.12842E+03 -2.28201E+04  1.54085E+04 -1.34790E+04
  1.11771E+04  4.42505E+03 -7.37774E+03  1.28307E+04 -2.08083E+04 -4.07530E+03 -8.01577E+03 -3.26163E+04
  2.21850E+04 -4.25225E+04  4.71322E+04 -1.93605E+04  4.41921E+04  1.88536E+04  1.56260E+04  4.34876E+04
 -1.54878E+04  3.26255E+04 -2.44699E+04  1.56068E+03 -9.48124E+03 -2.74165E+04  2.08508E+04 -3.27952E+04
  4.00195E+04 -8.35313E+03  3.41314E+04  2.34538E+04  1.70660E+04  4.50902E+04 -7.65653E+03  4.85552E+04
 -3.06543E+04  3.25275E+04 -4.04439E+04  8.93300E+03 -4.12618E+04 -1.63034E+04 -2.28312E+04 -3.69001E+04
  7.21391E+03 -3.65581E+04  3.10466E+04 -1.37891E+04  2.84428E+04  1.03112E+04  3.79426E+03  1.84853E+04
 -1.31290E+04  7.85665E+03 -1.00187E+04 -7.63969E+03  6.13418E+03 -1.03853E+04  1.78282E+04  5.95232E+03
  1.32351E+04  2.23054E+04 -6.01543E+03  2.46411E+04 -2.18247E+04  1.08277E+04 -2.72446E+04 -5.21548E+03
 -1.94399E+04 -1.71078E+04 -7.38058E+03 -1.93285E+04  3.85154E+03 -1.80357E+04  1.45936E+04 -1.70233E+04
  2.45068E+04 -1.21669E+04  3.14944E+04  2.22684E+03  2.31622E+04  1.85368E+04  3.93558E+03  3.50562E+04
 -1.72633E+04  2.94113E+04 -2.72941E+04  1.01793E+04 -2.04830E+04 -1.03663E+04 -4.23826E+03 -1.37851E+04
  2.04723E+03 -3.39711E+03 -4.23484E+03  6.64198E+03 -1.51726E+04  5.15699E+03 -1.53720E+04 -6.37746E+03
 -9.56759E+03 -1.77481E+04  5.01940E+03 -2.19549E+04  1.44690E+04 -1.60312E+04  1.68663E+04 -1.63401E+03
  1.07388E+04  1.26323E+04 -6.77629E+02  1.79240E+04 -1.20183E+04  1.01782E+04 -1.79482E+04 -3.98775E+03
 -1.32582E+04 -1.61649E+04 -1.45714E+03 -2.15938E+04  9.71275E+03 -1.77469E+04  1.83039E+04 -8.74256E+03
  1.70868E+04  5.59632E+02  1.17307E+04  4.25898E+03  6.10073E+03  7.30593E+02  8.60210E+03 -1.31797E+03
  1.62003E+04  2.95293E+03  1.78785E+04  1.41546E+04  1.14988E+04  2.86261E+04 -2.98386E+03  3.16677E+04
 -1.87746E+04  2.51191E+04 -2.95321E+04  1.26338E+04 -3.05938E+04 -2.25597E+03 -2.53968E+04 -1.77658E+04
 -1.14567E+04 -2.55129E+04  8.76281E+03 -2.30867E+04  2.01443E+04 -1.18323E+04  1.78726E+04  4.80380E+03
  6.90554E+03  1.36091E+04 -8.06399E+03  1.19620E+04 -1.53542E+04  2.56982E+03 -1.17761E+04 -9.34929E+03
 -2.53200E+02 -1.42737E+04  7.39274E+03 -1.09372E+04  9.38002E+03 -1.28543E+03  1.93444E+03  5.80781E+03
 -6.27814E+03  2.34015E+03 -5.21304E+03 -5.59265E+03 -9.20563E+01 -1.27793E+04  8.99225E+03 -1.27168E+04
  1.52263E+04 -6.58692E+03  1.59160E+04  2.98198E+03  1.39138E+04  1.19332E+04  6.56400E+03  1.86817E+04
 -2.61537E+03  2.00818E+04 -1.24307E+04  1.25478E+04 -1.42585E+04  3.06496E+03 -1.00672E+04 -2.80064E+03
 -5.24602E+03 -4.25193E+03 -8.35675E+02  8.03030E+02 -2.10292E+03  2.51917E+03 -4.55506E+03  3.98332E+03
 -9.81759E+03 -1.02145E+03 -1.05141E+04 -8.39539E+03 -4.23685E+03 -1.36160E+04  4.38243E+03 -1.03613E+04
  8.69771E+03 -4.57233E+03  6.47406E+03  2.54811E+03  3.47006E+02  3.70462E+03 -4.68507E+03 -1.65043E+01
 -4.57447E+03 -6.11047E+03 -5.44544E+02 -9.56326E+03  5.25480E+03 -9.93247E+03  1.26400E+04 -5.19944E+03
  1.50214E+04  1.07774E+03  1.10440E+04  8.55332E+03  2.18589E+03  1.15447E+04 -6.28288E+03  1.02074E+04
 -8.32330E+03  3.16512E+03 -4.36845E+03 -1.99875E+03  1.33781E+03 -2.50880E+03  5.60773E+03 -9.01356E+02
  5.22299E+03  4.20854E+03  1.27532E+03  8.00554E+03 -5.86255E+03  7.96301E+03 -9.97480E+03  1.79876E+03
 -6.29916E+03 -4.91555E+03 -2.69094E+01 -8.43040E+03  4.77504E+03 -4.38348E+03  5.16661E+03  1.31152E+03
  8.71179E+02  5.10517E+03 -5.02934E+03  6.82208E+03 -7.27704E+03  3.27440E+03 -7.09288E+03 -2.25797E+03
 -4.01309E+03 -8.65479E+03  1.83264E+03 -1.00270E+04  8.52625E+03 -6.41009E+03  8.89516E+03  1.52564E+03
  5.78976E+03  7.43463E+03 -1.26078E+02  9.72285E+03 -6.80235E+03  5.43475E+03 -7.03201E+03 -6.25937E+02
 -7.03777E+03 -6.51443E+03 -1.59414E+03 -6.82612E+03  3.60421E+03 -5.87807E+03  4.01493E+03 -3.11231E+03
  3.40022E+03  6.36007E+02 -6.62689E+02  1.60968E+03  5.42203E+02 -7.78091E+02  9.61198E+02 -3.23914E+03
  5.68147E+03 -1.96320E+03  8.13234E+03  8.23411E+02  7.74841E+03  4.94293E+03  6.25341E+03  1.07590E+04
 -1.87895E+03  1.23845E+04 -1.11461E+04  9.10311E+03 -1.40558E+04  1.79617E+03 -1.10761E+04 -4.07336E+03
 -5.72016E+03 -9.33719E+03 -1.43457E+02 -7.43866E+03  3.09757E+03 -3.87936E+03  2.41285E+03 -3.02076E+03
  1.87621E+03 -1.89577E+03  2.29738E+03 -2.57352E+03  4.25974E+03 -1.98377E+03  4.69602E+03 -2.67845E+02
  5.87531E+03  1.66508E+03  2.00345E+03  4.97602E+03 -1.90293E+03  4.91905E+03 -6.19644E+03  4.16570E+03
 -7.13422E+03 -1.20429E+03 -3.77492E+03 -5.09774E+03  2.33651E+02 -7.58267E+03  4.91257E+03 -8.01685E+03
  7.84648E+03 -4.58759E+03  9.67394E+03  7.56535E+02  7.19717E+03  6.47404E+03  1.32023E+03  8.83459E+03
 -3.24800E+03  8.14609E+03 -5.04761E+03  2.27564E+03 -3.23604E+03 -1.08384E+03 -1.30339E+03 -1.10098E+03
 -6.29582E+02  3.42501E+02 -1.28000E+03  2.13897E+03 -3.29452E+03  1.36939E+03 -5.43421E+03 -5.96686E+02
 -2.88910E+03 -5.28338E+03  6.88712E+02 -7.00901E+03  4.08737E+03 -6.63915E+03  6.19155E+03 -1.83683E+03
  6.79679E+03  3.39582E+03  3.28741E+03  5.69956E+03 -1.38037E+03  7.13567E+03 -4.33062E+03  4.42846E+03
 -6.25707E+03  4.56200E+02 -4.98006E+03 -4.07914E+03 -6.86625E+02 -4.87525E+03  2.62591E+03 -4.23852E+03
  4.46793E+03 -1.31499E+03  2.76398E+03  1.10380E+03  7.74206E+02  2.09435E+03  6.47573E+02  1.09659E+03
  2.17125E+03  7.32556E+02  1.63183E+03  1.30402E+03  2.20531E+03  2.88971E+03  1.87700E+03  3.37108E+03
 -1.78362E+03  4.84775E+03 -4.30528E+03  6.08648E+03 -5.95929E+03  1.64180E+03 -6.90302E+03 -1.79350E+03
 -3.30766E+03 -6.16384E+03  1.09001E+03 -7.36953E+03  3.52882E+03 -4.42798E+03  5.15741E+03 -1.58560E+03
  4.46129E+03  2.45787E+03  8.19370E+02  3.75426E+03 -1.42931E+03  2.18093E+03 -2.05119E+03 -2.21067E+02
 -1.20742E+03 -3.12333E+03  1.76859E+03 -2.83859E+03  2.39432E+03 -1.68215E+03  2.40379E+03  9.05799E+02
  1.19125E+03  1.22417E+03  6.76470E+02  4.69787E+02 -2.33228E+02  1.00700E+03  1.46468E+03 -3.33243E+02
  5.60929E+02 -2.02660E+02  2.81840E+03  1.10821E+03  9.18006E+02  3.46976E+03 -6.29237E+02  4.59699E+03
 -3.08420E+03  2.29557E+03 -3.59427E+03  7.04004E+02 -3.53197E+03 -1.45844E+03 -8.87071E+02 -1.79521E+03
  5.32330E+02 -2.06385E+03  1.60553E+03 -1.05402E+03  1.37629E+03  1.42970E+03 -9.05720E+02  1.81381E+03
 -2.54069E+03  1.22504E+03 -2.47037E+03 -1.78207E+03 -1.51326E+03 -3.66632E+03  4.84973E+02 -3.21235E+03
  1.24186E+03 -1.52241E+03  1.76407E+03 -1.23891E+02  2.14791E+03  3.40587E+02  4.48054E+02  1.95603E+03
 -8.16273E+02  2.45037E+02 -1.44208E+03 -6.01199E+02  1.02612E+03 -2.25670E+03  2.69905E+03 -1.69130E+03
  3.03968E+03  1.55558E+02  4.32672E+03  1.94426E+03  1.35378E+03  3.31146E+03 -1.20005E+03  3.22437E+03
 -2.81742E+03  1.10936E+03 -2.74131E+03 -2.11604E+02 -1.49187E+03 -2.36610E+03  5.56234E+02 -1.78867E+03
  2.30205E+03 -7.84123E+02  1.71265E+03  1.01347E+03  3.90633E+02  2.22236E+03 -1.14382E+01  1.87947E+03
 -8.10213E+02  1.57042E+03 -8.82175E+02  4.60669E+02 -3.21982E+02  6.29449E+02 -7.25704E+02  1.04323E+03
 -1.16276E+03  1.61092E+03 -2.51766E+03  1.20433E+03 -3.35864E+03  1.77942E+02 -4.16563E+03 -2.18375E+03
 -1.81862E+03 -4.03928E+03  1.10735E+03 -5.28322E+03  2.51916E+03 -4.43106E+03  4.79140E+03 -1.76703E+03
  4.50531E+03  7.85206E+02  2.54873E+03  3.13764E+03 -1.94273E+02  3.35628E+03 -1.44710E+03  2.74430E+03
 -1.73857E+03  1.15249E+03 -1.33452E+03 -6.37973E+02 -6.08149E+02 -1.24194E+02 -5.96300E+02 -1.46281E+02
 -1.17394E+03 -1.79804E+02 -1.38708E+03  3.70734E+01  9.92384E+01 -1.03179E+03  1.55361E+02 -1.31350E+03
  1.83358E+03 -1.06624E+03  1.69629E+03  2.19753E+02  2.25947E+03  1.87436E+03  1.87884E+02  2.74465E+03
 -1.60500E+03  4.29657E+03 -3.22047E+03  2.63365E+03 -3.84280E+03 -4.45824E+02 -2.73746E+03 -2.46170E+03
 -1.35308E+03 -3.11939E+03  4.35403E+02 -2.82772E+03  1.89870E+03 -1.69172E+03  1.63573E+03  3.43923E+02
  1.34120E+03  9.38980E+02 -3.28501E+00  1.28879E+03 -7.04510E+02  9.31817E+00 -2.11208E+01 -5.94195E+02
  1.11976E+03 -8.67350E+01  9.57528E+02  5.13900E+02  2.94985E+02  9.28160E+02  6.26919E+02  1.60393E+03
 -1.16002E+03  1.35597E+03 -1.59427E+03  3.13539E+02 -1.52641E+03 -1.36696E+03 -1.75576E+02 -2.36534E+03
  1.28578E+03 -1.96629E+03  1.66924E+03 -3.54046E+02  2.27294E+03  1.80867E+02  1.24031E+03  2.00582E+03
  4.81060E+02  1.64416E+03 -7.57150E+02  1.28960E+03 -1.24668E+03  1.22425E+03 -8.86080E+02  2.59220E+02
 -4.14337E+02 -1.08015E+02 -6.23801E+02 -6.48547E+01 -1.03431E+03  2.21155E+02 -1.48888E+03 -3.18365E+02
 -1.64227E+03 -5.47368E+02 -3.86954E+02 -1.95870E+03  9.57227E+02 -2.33426E+03  1.92689E+03 -9.02435E+02
  1.72703E+03  3.23565E+02  3.47668E+02  9.92374E+02 -1.51424E+02  2.13514E+03 -1.25301E+03  1.39113E+03
