 $NMID ID='MM_0lb_SNR800_11hz_g40_33.RAW', FMTDAT='(8E13.5)'
 TRAMP=1., VOLUME=1. $END
  3.09337E+05  6.83870E+02  3.38023E+05  2.50916E+05  8.44748E+04  3.37910E+05 -1.32619E+05  2.51327E+05
 -1.90482E+05  8.32928E+04 -1.11957E+05 -3.24919E+04  8.66535E+02 -5.04923E+04  5.37528E+04 -2.99078E+02
  3.55908E+04  5.27429E+04 -1.64961E+04  7.57304E+04 -6.10925E+04  6.41108E+04 -8.41716E+04  3.21112E+04
 -8.16730E+04 -1.13104E+04 -5.73935E+04 -5.17750E+04 -1.49778E+04 -6.99507E+04  2.79324E+04 -4.60844E+04
  4.07078E+04  3.71242E+03  1.64965E+04  4.77800E+04 -3.46761E+04  4.80300E+04 -6.74172E+04 -3.62417E+02
 -5.40386E+04 -5.72831E+04 -7.07363E+03 -7.77885E+04  3.43415E+04 -5.58643E+04  4.86946E+04 -1.79212E+04
  4.39004E+04  1.17051E+04  3.23086E+04  2.62069E+04  1.61849E+04  3.00899E+04 -5.19175E+03  2.74334E+04
 -2.24095E+04  1.21293E+04 -1.84680E+04 -4.82122E+03  5.87500E+03 -7.61219E+03  2.28317E+04  1.29544E+04
  7.22827E+03  3.59505E+04 -3.26278E+04  3.63218E+04 -6.42854E+04  1.95947E+03 -5.77703E+04 -4.34663E+04
 -1.27136E+04 -6.38997E+04  4.04897E+04 -4.60247E+04  5.94990E+04 -2.10778E+03  3.48482E+04  3.31930E+04
 -5.84352E+03  3.72341E+04 -3.07212E+04  1.70479E+04 -3.14500E+04 -4.30302E+03 -1.75053E+04 -1.15441E+04
 -8.78031E+03 -1.39675E+04 -1.01609E+03 -1.87786E+04  8.05024E+03 -2.31584E+04  1.55571E+04 -1.29030E+04
  1.10298E+04  5.76481E+03 -8.74124E+03  1.28106E+04 -2.22557E+04 -5.00454E+03 -8.44088E+03 -3.50327E+04
  2.36260E+04 -4.51886E+04  4.95723E+04 -2.02176E+04  4.64409E+04  2.00074E+04  1.63686E+04  4.51971E+04
 -1.58038E+04  3.44051E+04 -2.61138E+04  2.24126E+03 -1.04704E+04 -2.83439E+04  2.09199E+04 -3.48872E+04
  4.25748E+04 -9.95600E+03  3.74839E+04  2.41885E+04  1.94254E+04  4.82453E+04 -8.07844E+03  5.26367E+04
 -3.31779E+04  3.54902E+04 -4.42102E+04  1.02892E+04 -4.46423E+04 -1.71110E+04 -2.47634E+04 -3.95211E+04
  7.35855E+03 -3.92363E+04  3.26961E+04 -1.57371E+04  3.02613E+04  1.11740E+04  4.40016E+03  1.96537E+04
 -1.38212E+04  8.63601E+03 -1.09664E+04 -7.62235E+03  5.59200E+03 -1.11477E+04  1.78893E+04  6.13598E+03
  1.39901E+04  2.24424E+04 -5.84127E+03  2.57847E+04 -2.27979E+04  1.25783E+04 -2.94691E+04 -4.04819E+03
 -2.25647E+04 -1.77946E+04 -9.95568E+03 -2.21037E+04  4.17140E+03 -2.17033E+04  1.70840E+04 -2.02050E+04
  2.82284E+04 -1.36076E+04  3.46420E+04  3.81208E+03  2.46550E+04  2.18331E+04  4.52649E+03  3.81195E+04
 -1.86121E+04  3.17039E+04 -2.89721E+04  1.09221E+04 -2.16061E+04 -1.03301E+04 -4.83720E+03 -1.29754E+04
  1.41455E+03 -1.89144E+03 -5.86382E+03  7.12182E+03 -1.72985E+04  5.30662E+03 -1.81475E+04 -8.21682E+03
 -1.07132E+04 -2.06290E+04  5.66972E+03 -2.49302E+04  1.65320E+04 -1.79220E+04  2.00456E+04 -1.43772E+03
  1.29895E+04  1.45085E+04 -1.10907E+03  2.11256E+04 -1.47921E+04  1.19957E+04 -2.09221E+04 -4.64675E+03
 -1.48307E+04 -1.88467E+04 -1.74258E+03 -2.47430E+04  1.12130E+04 -2.06451E+04  2.08477E+04 -1.05541E+04
  1.93154E+04  7.68346E+01  1.39842E+04  4.90364E+03  7.64207E+03  1.21515E+03  1.06466E+04 -1.56483E+03
  1.95340E+04  3.05149E+03  2.16451E+04  1.65557E+04  1.45835E+04  3.31997E+04 -2.82394E+03  3.81853E+04
 -2.22374E+04  3.11635E+04 -3.60678E+04  1.64581E+04 -3.77101E+04 -2.68283E+03 -3.08374E+04 -2.20697E+04
 -1.32289E+04 -3.14255E+04  1.11194E+04 -2.78664E+04  2.40794E+04 -1.38944E+04  2.08778E+04  6.44074E+03
  7.90764E+03  1.61989E+04 -9.67111E+03  1.39558E+04 -1.74569E+04  2.96106E+03 -1.34130E+04 -1.09958E+04
  7.92515E+01 -1.70003E+04  8.96065E+03 -1.27958E+04  1.11932E+04 -1.21041E+03  2.47254E+03  7.50960E+03
 -7.64813E+03  3.40703E+03 -7.46010E+03 -6.31303E+03 -8.25128E+02 -1.55164E+04  1.07943E+04 -1.65895E+04
  1.95789E+04 -8.96740E+03  2.16045E+04  3.04217E+03  1.85568E+04  1.52872E+04  8.68537E+03  2.38750E+04
 -3.81569E+03  2.57507E+04 -1.65938E+04  1.62795E+04 -1.86642E+04  3.82211E+03 -1.32893E+04 -4.36719E+03
 -5.71043E+03 -5.85310E+03 -3.99850E+02  4.81724E+02 -2.45866E+03  3.00256E+03 -5.94809E+03  4.99012E+03
 -1.23809E+04 -6.56950E+02 -1.25203E+04 -1.01724E+04 -5.39547E+03 -1.68426E+04  5.66485E+03 -1.33616E+04
  1.06681E+04 -5.22094E+03  7.85350E+03  3.20458E+03  1.57577E+02  4.93045E+03 -6.21432E+03  1.73284E+02
 -5.75718E+03 -8.35328E+03 -8.03912E+02 -1.27231E+04  7.07999E+03 -1.34617E+04  1.66932E+04 -6.98863E+03
  1.94765E+04  1.85785E+03  1.41732E+04  1.18306E+04  2.58348E+03  1.55272E+04 -8.32143E+03  1.30185E+04
 -1.06104E+04  4.11307E+03 -5.47683E+03 -2.57615E+03  1.73616E+03 -3.57056E+03  6.95797E+03 -1.06793E+03
  6.43376E+03  5.83623E+03  1.09732E+03  1.04457E+04 -7.62594E+03  1.00401E+04 -1.31962E+04  2.66390E+03
 -8.49208E+03 -6.53199E+03  2.33098E+02 -1.06602E+04  7.26640E+03 -5.89947E+03  6.85533E+03  1.98716E+03
  1.35227E+03  7.94952E+03 -6.57158E+03  9.17416E+03 -1.03266E+04  4.35569E+03 -1.08308E+04 -3.20491E+03
 -6.19997E+03 -1.25408E+04  2.96563E+03 -1.42785E+04  1.22456E+04 -8.92591E+03  1.31795E+04  1.74841E+03
  7.79445E+03  1.05519E+04 -1.23768E+03  1.28144E+04 -8.96137E+03  7.09908E+03 -1.01048E+04 -1.26912E+03
 -8.82733E+03 -8.57110E+03 -1.74727E+03 -9.34344E+03  5.04949E+03 -8.08327E+03  5.81681E+03 -2.99184E+03
  4.15714E+03  1.38764E+03 -5.31342E+02  2.02076E+03 -1.53756E+02 -2.45258E+03  1.90235E+03 -5.51728E+03
  9.01950E+03 -3.06359E+03  1.25000E+04  1.40411E+03  1.13912E+04  8.31948E+03  8.49047E+03  1.57550E+04
 -3.43346E+03  1.86515E+04 -1.52752E+04  1.37073E+04 -2.03583E+04  2.44148E+03 -1.62072E+04 -6.79212E+03
 -8.33868E+03 -1.34933E+04 -4.71887E+02 -1.11298E+04  3.75025E+03 -5.96716E+03  3.75530E+03 -4.13901E+03
  2.95751E+03 -2.65537E+03  3.10973E+03 -3.33654E+03  4.90450E+03 -2.71018E+03  6.62108E+03 -1.25568E+03
  8.59865E+03  1.60874E+03  4.27106E+03  7.12247E+03 -2.11114E+03  8.45007E+03 -9.02847E+03  6.20531E+03
 -1.13530E+04 -1.29498E+03 -6.67088E+03 -7.61999E+03 -4.77816E+02 -1.17458E+04  6.31531E+03 -1.19639E+04
  1.24422E+04 -6.56364E+03  1.49258E+04  1.74456E+03  1.03731E+04  1.01744E+04  1.53086E+03  1.32665E+04
 -5.45055E+03  1.12431E+04 -7.95291E+03  4.00450E+03 -4.98909E+03 -1.46352E+03 -2.36203E+03 -1.74033E+03
 -1.07367E+03  2.50948E+02 -1.93611E+03  2.88498E+03 -4.69810E+03  1.92820E+03 -7.79616E+03 -9.47664E+02
 -4.91328E+03 -8.10223E+03  2.65441E+02 -1.10015E+04  6.65166E+03 -1.02183E+04  1.02892E+04 -3.03045E+03
  1.07285E+04  5.31369E+03  5.09457E+03  9.68039E+03 -2.03696E+03  1.08889E+04 -7.88440E+03  6.90285E+03
 -1.02800E+04  4.51089E+02 -8.21240E+03 -6.59093E+03 -7.06221E+02 -9.11215E+03  4.86138E+03 -6.66653E+03
  6.60108E+03 -2.30050E+03  5.24214E+03  1.89514E+03  1.70961E+03  3.44169E+03  9.82548E+02  1.62792E+03
  2.09846E+03  8.62697E+02  2.74633E+03  1.49139E+03  3.19783E+03  3.77559E+03  2.66583E+03  5.88263E+03
 -2.43872E+03  8.57190E+03 -7.30616E+03  8.91198E+03 -1.06748E+04  2.04289E+03 -1.15170E+04 -4.07024E+03
 -5.39437E+03 -1.09916E+04  1.63864E+03 -1.20503E+04  6.51721E+03 -7.96886E+03  8.88055E+03 -2.06649E+03
  6.99513E+03  4.38154E+03  1.67844E+03  6.23989E+03 -2.90308E+03  4.04944E+03 -4.22298E+03 -4.62865E+02
 -2.18277E+03 -4.68078E+03  2.64193E+03 -4.88419E+03  4.28387E+03 -2.25443E+03  4.43062E+03  1.07526E+03
  2.18821E+03  2.18700E+03  9.15677E+02  1.82244E+03 -4.25523E+02  1.74006E+03  1.95032E+03 -5.16723E+02
  1.26578E+03 -8.08769E+02  4.61154E+03  1.65337E+03  2.07684E+03  6.24670E+03 -1.10758E+03  7.60369E+03
 -5.40469E+03  4.84429E+03 -7.07278E+03  1.13918E+03 -6.13364E+03 -2.07823E+03 -2.01875E+03 -4.08683E+03
  6.64964E+02 -4.36068E+03  2.95755E+03 -1.95806E+03  2.42962E+03  2.47214E+03 -1.35876E+03  3.46377E+03
 -4.29841E+03  2.37239E+03 -4.81241E+03 -2.89393E+03 -2.84727E+03 -5.86323E+03  1.06634E+03 -5.78375E+03
  3.24689E+03 -2.73490E+03  4.15808E+03 -1.46495E+02  3.90261E+03  1.07180E+03  7.77703E+02  2.93642E+03
 -2.06904E+03  5.62560E+02 -2.52948E+03 -1.63014E+03  1.21810E+03 -4.50530E+03  5.54880E+03 -3.84343E+03
  6.46034E+03  4.11863E+02  6.78357E+03  4.12008E+03  1.91914E+03  6.58986E+03 -2.12895E+03  6.30141E+03
 -5.50806E+03  2.62431E+03 -6.07488E+03 -9.40349E+02 -3.34817E+03 -4.59593E+03  1.02828E+03 -3.99887E+03
  4.41641E+03 -2.19821E+03  3.66809E+03  2.24593E+03  1.39730E+03  4.00680E+03 -4.70568E+02  3.22839E+03
 -1.84458E+03  2.22801E+03 -1.74017E+03  8.92277E+02 -6.50699E+02  8.81368E+02 -1.38327E+03  1.56211E+03
 -1.95961E+03  3.02875E+03 -4.73906E+03  2.61756E+03 -6.57266E+03  9.50167E+01 -7.31215E+03 -4.46810E+03
 -4.13047E+03 -8.74110E+03  1.69960E+03 -1.01500E+04  6.26347E+03 -7.96469E+03  1.01931E+04 -3.34651E+03
  9.28022E+03  2.09717E+03  5.60280E+03  6.05337E+03  5.06819E+02  6.66706E+03 -2.99769E+03  5.13528E+03
 -4.08657E+03  2.02465E+03 -2.41070E+03 -8.04116E+02 -7.26554E+02 -5.06016E+01 -7.45020E+02 -1.95025E+02
 -1.74857E+03  1.95922E+02 -1.78894E+03 -8.82674E+01 -2.59754E+02 -1.34968E+03  3.36739E+02 -2.64591E+03
  3.36751E+03 -1.81861E+03  4.28913E+03 -1.55114E+02  5.03185E+03  3.87635E+03  1.41988E+03  6.79466E+03
 -3.49946E+03  7.99843E+03 -7.04992E+03  4.71778E+03 -7.88496E+03 -8.25522E+02 -6.15713E+03 -5.07880E+03
 -2.31175E+03 -6.91674E+03  1.54967E+03 -6.45909E+03  4.31850E+03 -3.42816E+03  4.33993E+03  4.46484E+01
  2.56682E+03  2.16735E+03 -3.06039E+02  1.93094E+03 -1.70994E+03 -2.45999E+02  1.83751E+02 -1.92037E+03
  2.27171E+03 -7.52961E+02  2.62771E+03  1.18495E+03  1.95923E+03  2.95676E+03  2.28306E+02  3.34582E+03
 -2.69001E+03  2.87273E+03 -4.32874E+03  4.26151E+02 -3.86153E+03 -3.21794E+03 -8.23815E+02 -5.76984E+03
  2.95719E+03 -4.49174E+03  4.85432E+03 -1.73488E+03  5.42446E+03  1.11718E+03  2.95398E+03  3.86277E+03
  1.05406E+03  3.93802E+03 -1.37087E+03  3.34320E+03 -2.52929E+03  1.83180E+03 -2.05307E+03  2.26677E+02
 -1.45993E+03 -1.93971E+01 -1.38743E+03  5.87426E+02 -2.30694E+03  5.88662E+02 -3.59505E+03 -6.90159E+02
 -3.68868E+03 -2.15521E+03 -1.03738E+03 -4.80979E+03  2.35845E+03 -4.79161E+03  3.84617E+03 -2.19831E+03
  4.61779E+03  5.57671E+02  1.86412E+03  3.00563E+03 -1.49287E+02  4.70514E+03 -2.94659E+03  2.75447E+03
