 $NMID ID='MM_0lb_SNR800_16hz_g50_6.RAW', FMTDAT='(8E13.5)'
 TRAMP=1., VOLUME=1. $END
  3.09682E+05  3.81918E+02  3.37577E+05  2.50329E+05  8.43485E+04  3.37646E+05 -1.32447E+05  2.51187E+05
 -1.89957E+05  8.27807E+04 -1.11552E+05 -3.27180E+04  9.21872E+02 -5.03970E+04  5.38911E+04 -5.62536E+02
  3.55691E+04  5.30183E+04 -1.69726E+04  7.55097E+04 -6.03383E+04  6.34559E+04 -8.36818E+04  3.16555E+04
 -8.05674E+04 -1.13990E+04 -5.68455E+04 -5.09847E+04 -1.48776E+04 -6.92385E+04  2.70590E+04 -4.56523E+04
  4.00391E+04  3.99330E+03  1.61338E+04  4.73650E+04 -3.43486E+04  4.68425E+04 -6.63985E+04 -4.17027E+01
 -5.31853E+04 -5.67218E+04 -6.32273E+03 -7.62787E+04  3.34936E+04 -5.40693E+04  4.75015E+04 -1.68902E+04
  4.28824E+04  1.11149E+04  3.13986E+04  2.52148E+04  1.57577E+04  2.89578E+04 -5.08735E+03  2.68645E+04
 -2.20078E+04  1.26602E+04 -1.89232E+04 -4.74131E+03  5.42935E+03 -7.52553E+03  2.18469E+04  1.18561E+04
  7.29459E+03  3.43395E+04 -3.15205E+04  3.48653E+04 -6.24151E+04  2.27861E+03 -5.62525E+04 -4.22892E+04
 -1.24869E+04 -6.23075E+04  3.90107E+04 -4.49356E+04  5.70791E+04 -2.03803E+03  3.32676E+04  3.17204E+04
 -6.27196E+03  3.48309E+04 -2.91680E+04  1.48577E+04 -2.93759E+04 -4.72646E+03 -1.58603E+04 -1.09228E+04
 -7.89508E+03 -1.25956E+04 -1.00262E+03 -1.76887E+04  7.11289E+03 -2.29803E+04  1.52047E+04 -1.38074E+04
  1.17029E+04  4.93073E+03 -7.56708E+03  1.28918E+04 -2.05819E+04 -3.57256E+03 -8.47386E+03 -3.24708E+04
  2.20685E+04 -4.24433E+04  4.66929E+04 -1.92815E+04  4.40733E+04  1.87183E+04  1.51559E+04  4.32516E+04
 -1.57655E+04  3.24302E+04 -2.45811E+04  1.42026E+03 -9.22975E+03 -2.75045E+04  2.09196E+04 -3.28927E+04
  3.98913E+04 -8.35549E+03  3.40167E+04  2.34492E+04  1.72869E+04  4.50343E+04 -7.91717E+03  4.83449E+04
 -3.05957E+04  3.22893E+04 -4.00045E+04  9.01548E+03 -4.07204E+04 -1.59324E+04 -2.26023E+04 -3.66974E+04
  7.29921E+03 -3.65250E+04  3.04448E+04 -1.39394E+04  2.82632E+04  1.07959E+04  3.52393E+03  1.86795E+04
 -1.33006E+04  7.86255E+03 -1.00251E+04 -7.71467E+03  5.95087E+03 -1.04466E+04  1.78451E+04  5.96943E+03
  1.30574E+04  2.19468E+04 -6.40299E+03  2.42168E+04 -2.20450E+04  1.05997E+04 -2.71345E+04 -5.43743E+03
 -1.92548E+04 -1.68480E+04 -7.37744E+03 -1.90928E+04  4.03592E+03 -1.73174E+04  1.46085E+04 -1.68247E+04
  2.44112E+04 -1.23385E+04  3.08424E+04  2.13067E+03  2.29895E+04  1.84756E+04  4.12509E+03  3.46634E+04
 -1.69265E+04  2.90648E+04 -2.71664E+04  1.02805E+04 -2.03682E+04 -1.05336E+04 -4.08028E+03 -1.38347E+04
  2.15543E+03 -3.45464E+03 -4.09452E+03  5.89975E+03 -1.48662E+04  5.45389E+03 -1.50010E+04 -6.16971E+03
 -9.31032E+03 -1.74427E+04  5.03908E+03 -2.15555E+04  1.43092E+04 -1.54021E+04  1.66844E+04 -1.63545E+03
  1.07724E+04  1.24291E+04 -9.24039E+02  1.76502E+04 -1.18656E+04  9.93208E+03 -1.76206E+04 -3.64999E+03
 -1.29423E+04 -1.59554E+04 -1.57545E+03 -2.11854E+04  9.62202E+03 -1.71756E+04  1.77060E+04 -8.57560E+03
  1.66628E+04  5.89466E+02  1.16508E+04  4.43772E+03  5.98185E+03  8.87711E+02  8.89702E+03 -1.61770E+03
  1.59745E+04  2.86422E+03  1.74856E+04  1.40011E+04  1.14371E+04  2.78576E+04 -3.22402E+03  3.07823E+04
 -1.81705E+04  2.46053E+04 -2.90129E+04  1.22041E+04 -2.98482E+04 -2.26667E+03 -2.50295E+04 -1.74225E+04
 -1.10996E+04 -2.43391E+04  8.25607E+03 -2.24821E+04  1.93144E+04 -1.21368E+04  1.77424E+04  4.41518E+03
  6.81323E+03  1.30246E+04 -8.18964E+03  1.16298E+04 -1.50629E+04  2.62366E+03 -1.20467E+04 -9.35005E+03
 -2.40777E+02 -1.40758E+04  7.15908E+03 -1.06466E+04  9.31877E+03 -1.34805E+03  1.82370E+03  5.84347E+03
 -6.23992E+03  2.15339E+03 -4.89917E+03 -5.07841E+03 -1.08861E+02 -1.18162E+04  8.99374E+03 -1.23816E+04
  1.48072E+04 -6.51224E+03  1.52465E+04  3.03321E+03  1.35747E+04  1.17828E+04  6.31396E+03  1.76951E+04
 -2.81583E+03  1.92095E+04 -1.18228E+04  1.21936E+04 -1.37877E+04  3.20871E+03 -9.83556E+03 -2.81687E+03
 -4.92395E+03 -4.25733E+03 -1.01443E+03  1.38268E+03 -2.16818E+03  2.39307E+03 -4.25475E+03  3.95635E+03
 -9.60438E+03 -6.70613E+02 -1.01560E+04 -8.24084E+03 -3.99722E+03 -1.33254E+04  4.26981E+03 -1.03636E+04
  8.52090E+03 -4.30318E+03  6.37823E+03  2.47258E+03  4.77515E+02  3.67981E+03 -4.52653E+03  1.91502E+02
 -4.46581E+03 -6.27000E+03 -1.01317E+03 -9.39389E+03  4.90914E+03 -9.75209E+03  1.21945E+04 -5.08601E+03
  1.42991E+04  1.00956E+03  1.06946E+04  7.96790E+03  1.74500E+03  1.09476E+04 -6.44974E+03  9.54719E+03
 -7.92062E+03  3.29743E+03 -3.94431E+03 -1.91443E+03  1.53787E+03 -2.57498E+03  5.46354E+03 -6.17226E+02
  4.88740E+03  3.96509E+03  1.20435E+03  7.89831E+03 -5.56644E+03  7.58441E+03 -9.47339E+03  2.12796E+03
 -6.02431E+03 -4.99840E+03  4.08880E+02 -8.09395E+03  4.97348E+03 -4.33517E+03  4.64336E+03  1.46521E+03
  7.92973E+02  4.79734E+03 -5.09752E+03  6.16664E+03 -6.65932E+03  2.95532E+03 -6.49891E+03 -1.83670E+03
 -3.50406E+03 -8.17135E+03  1.89752E+03 -9.42808E+03  8.09375E+03 -6.21667E+03  8.74871E+03  1.08702E+03
  5.74356E+03  7.04038E+03 -6.16734E+01  9.15636E+03 -6.24646E+03  5.05444E+03 -6.72992E+03 -5.59908E+02
 -6.97498E+03 -6.40707E+03 -1.15072E+03 -6.35491E+03  3.51115E+03 -5.73353E+03  3.82265E+03 -2.91646E+03
  3.02557E+03  4.55500E+02  4.02934E+01  1.51814E+03  3.68730E+02 -6.85753E+02  5.71965E+02 -3.10915E+03
  5.21169E+03 -1.59280E+03  7.57469E+03  8.00846E+02  7.49443E+03  4.29638E+03  6.22082E+03  9.91350E+03
 -2.03283E+03  1.15836E+04 -1.03070E+04  8.45917E+03 -1.31677E+04  1.85962E+03 -1.03284E+04 -3.87047E+03
 -5.37958E+03 -8.62203E+03 -2.00606E+02 -6.71237E+03  2.48962E+03 -3.40913E+03  2.61565E+03 -2.77299E+03
  1.70498E+03 -1.78251E+03  2.60490E+03 -2.77133E+03  4.17094E+03 -1.77596E+03  4.38239E+03  3.01664E+02
  5.63324E+03  1.59257E+03  1.89491E+03  4.54564E+03 -1.63921E+03  4.11632E+03 -5.57966E+03  3.79292E+03
 -7.14814E+03 -9.34936E+02 -3.19189E+03 -4.67099E+03  2.60528E+02 -7.24624E+03  4.33224E+03 -7.36532E+03
  7.23055E+03 -4.06572E+03  8.89841E+03  7.42542E+02  6.70125E+03  5.94065E+03  1.08347E+03  8.13721E+03
 -2.80394E+03  7.41503E+03 -4.61022E+03  2.57453E+03 -2.82490E+03 -1.03267E+03 -5.98623E+02 -9.10070E+02
 -7.26159E+02  5.47762E+02 -1.15186E+03  2.12946E+03 -3.15936E+03  1.34063E+03 -5.39279E+03 -8.07898E+02
 -2.60490E+03 -5.23732E+03  6.75555E+02 -6.33160E+03  4.07004E+03 -5.82079E+03  5.61192E+03 -1.58100E+03
  6.12204E+03  3.33933E+03  2.97302E+03  5.23328E+03 -1.02687E+03  6.23367E+03 -4.02912E+03  3.79668E+03
 -5.28369E+03  6.32629E+02 -4.94287E+03 -3.67454E+03 -3.22298E+02 -4.86901E+03  2.15666E+03 -3.55480E+03
  4.15505E+03 -1.50790E+03  2.68645E+03  9.95946E+02  8.61872E+02  2.14401E+03  8.97135E+02  8.70729E+02
  1.73549E+03  8.26795E+02  1.70186E+03  1.10699E+03  1.49766E+03  2.96898E+03  1.97256E+03  2.54600E+03
 -1.63598E+03  4.42069E+03 -3.44032E+03  5.53049E+03 -5.34235E+03  1.63735E+03 -5.91573E+03 -1.44865E+03
 -2.71756E+03 -5.49481E+03  7.44548E+02 -6.44123E+03  2.88019E+03 -3.65798E+03  4.67437E+03 -1.41875E+03
  3.90701E+03  2.21285E+03  7.73622E+02  3.23827E+03 -1.31005E+03  1.89521E+03 -1.66861E+03 -2.96124E+02
 -9.10524E+02 -2.31879E+03  1.69622E+03 -2.52065E+03  1.81990E+03 -1.23808E+03  1.86146E+03  2.96660E+02
  1.05047E+03  8.03028E+02  1.09981E+03  2.92917E+02 -4.40126E+02  9.93115E+02  1.82194E+03 -4.91681E+02
  3.86341E+02 -3.35792E+02  2.45809E+03  7.73477E+02  4.31464E+02  3.58449E+03 -4.26992E+02  4.09515E+03
 -2.36802E+03  1.91555E+03 -3.20615E+03  2.10447E+02 -3.15659E+03 -8.89536E+02 -3.80026E+02 -1.43518E+03
  6.32560E+02 -1.96251E+03  1.47004E+03 -5.24660E+02  9.74345E+02  1.37857E+03 -8.08950E+02  1.63609E+03
 -2.16485E+03  9.57570E+02 -2.21990E+03 -1.77972E+03 -1.08687E+03 -2.82175E+03  1.09131E+02 -2.45490E+03
  9.61690E+02 -9.09169E+02  1.54506E+03  3.76891E+02  2.13926E+03  1.69456E+02  6.62238E+02  1.51742E+03
 -4.96645E+02  9.12337E+01 -1.33832E+03 -6.74633E+02  7.50044E+02 -1.74500E+03  2.72341E+03 -1.52443E+03
  2.30427E+03  2.53529E+02  3.70902E+03  1.74708E+03  1.18450E+03  2.86592E+03 -1.01090E+03  3.00433E+03
 -2.28782E+03  9.02566E+02 -2.35955E+03 -4.41908E+02 -1.53409E+03 -2.08651E+03  6.60422E+02 -1.30718E+03
  2.05207E+03 -6.51083E+02  1.46812E+03  1.02594E+03  4.19262E+02  1.75275E+03  9.50141E+01  1.68630E+03
 -6.69862E+02  1.49709E+03 -1.05482E+03  1.84724E+02 -4.34585E+02  3.95009E+02 -1.04706E+03  6.04364E+02
 -8.16087E+02  1.62375E+03 -2.23798E+03  9.44768E+02 -2.79057E+03  3.28977E+02 -3.53434E+03 -1.71315E+03
 -1.76195E+03 -3.49498E+03  7.90565E+02 -4.43323E+03  1.94523E+03 -3.54689E+03  4.29846E+03 -1.24296E+03
  3.85489E+03  1.40774E+02  2.20347E+03  2.53879E+03 -6.80232E+02  2.30506E+03 -9.87116E+02  2.19115E+03
 -1.70757E+03  6.16362E+02 -6.08677E+02 -4.06062E+02 -4.55418E+02  1.55577E+02 -6.51065E+02  2.63262E+02
 -1.06527E+03 -4.34270E+01 -1.12491E+03  6.29495E+01  4.83231E+02 -7.44742E+02 -5.18350E+02 -1.24908E+03
  1.58332E+03 -1.17341E+03  1.26233E+03  1.27825E+02  2.10606E+03  1.54726E+03 -1.60492E+01  2.47891E+03
 -1.75164E+03  3.36272E+03 -3.04278E+03  1.96599E+03 -3.28016E+03 -2.16155E+02 -2.29909E+03 -1.79383E+03
 -1.29667E+03 -2.55703E+03  3.24264E+02 -2.46997E+03  1.39701E+03 -8.54560E+02  1.26956E+03  2.92070E+02
  8.28488E+02  7.22615E+02 -1.37648E+01  7.61946E+02 -6.52152E+02 -2.02924E+01 -1.23750E+02 -5.70294E+02
  5.92115E+02  2.79370E+02  5.59054E+02  3.50003E+02  1.40513E+02  9.44157E+02  4.19827E+02  1.01976E+03
 -1.26986E+03  1.01209E+03 -1.31308E+03  1.21718E+02 -1.49518E+03 -7.35294E+02 -2.62183E+02 -1.82340E+03
  1.00378E+03 -1.51662E+03  1.33129E+03 -9.51772E+01  1.69102E+03 -5.37116E+02  8.99161E+02  1.49266E+03
  5.32674E+02  1.07148E+03 -4.91576E+02  1.03201E+03 -9.88321E+02  8.27324E+02 -8.06080E+02  4.09429E+02
 -3.16380E+02  1.07325E+02 -6.68337E+02  3.32472E+02 -9.78454E+02  3.63914E+02 -1.47992E+03 -3.41627E+02
 -1.46284E+03 -2.87071E+02 -5.52985E+02 -1.32899E+03  8.21508E+02 -2.26562E+03  1.26474E+03 -6.72153E+02
  1.42234E+03  1.63634E+02 -1.71745E+02  5.68856E+02 -5.30604E+01  1.69754E+03 -5.87722E+02  9.03824E+02
