 $NMID ID='MM_0lb_SNR800_17hz_g50_33.RAW', FMTDAT='(8E13.5)'
 TRAMP=1., VOLUME=1. $END
  3.09743E+05  2.38377E+02  3.36988E+05  2.50517E+05  8.45772E+04  3.37510E+05 -1.32584E+05  2.50726E+05
 -1.89729E+05  8.26782E+04 -1.11400E+05 -3.28497E+04  1.32737E+03 -5.05755E+04  5.39516E+04  2.46984E+02
  3.48309E+04  5.26187E+04 -1.70395E+04  7.52200E+04 -6.05699E+04  6.27431E+04 -8.35489E+04  3.19539E+04
 -8.02281E+04 -1.10654E+04 -5.67480E+04 -5.06832E+04 -1.49437E+04 -6.87795E+04  2.72568E+04 -4.55784E+04
  3.93164E+04  4.01432E+03  1.56877E+04  4.74061E+04 -3.39918E+04  4.67685E+04 -6.60711E+04 -3.91967E+02
 -5.25043E+04 -5.60618E+04 -6.45157E+03 -7.58787E+04  3.33182E+04 -5.38909E+04  4.69534E+04 -1.69667E+04
  4.23581E+04  1.12983E+04  3.13827E+04  2.45964E+04  1.57974E+04  2.89829E+04 -4.91811E+03  2.69563E+04
 -2.20996E+04  1.25274E+04 -1.91838E+04 -4.63170E+03  5.08017E+03 -7.61811E+03  2.18529E+04  1.13937E+04
  7.49087E+03  3.41539E+04 -3.11108E+04  3.46187E+04 -6.17629E+04  2.16557E+03 -5.59819E+04 -4.17056E+04
 -1.23293E+04 -6.19213E+04  3.87184E+04 -4.43260E+04  5.63096E+04 -2.16258E+03  3.29969E+04  3.11599E+04
 -6.39770E+03  3.44032E+04 -2.91185E+04  1.45749E+04 -2.86720E+04 -4.65499E+03 -1.53924E+04 -1.02809E+04
 -7.48018E+03 -1.23816E+04 -1.05570E+03 -1.72325E+04  6.74609E+03 -2.29561E+04  1.54495E+04 -1.38817E+04
  1.17995E+04  4.54582E+03 -7.06566E+03  1.29297E+04 -2.00329E+04 -3.45507E+03 -8.29405E+03 -3.17455E+04
  2.17018E+04 -4.16210E+04  4.64937E+04 -1.91508E+04  4.31826E+04  1.87942E+04  1.48638E+04  4.29533E+04
 -1.55819E+04  3.22062E+04 -2.40681E+04  1.20203E+03 -9.05266E+03 -2.69464E+04  2.09705E+04 -3.24637E+04
  3.92195E+04 -8.19461E+03  3.29415E+04  2.30411E+04  1.64825E+04  4.41411E+04 -8.14873E+03  4.72088E+04
 -2.96592E+04  3.13433E+04 -3.93247E+04  8.81915E+03 -4.00078E+04 -1.56004E+04 -2.22277E+04 -3.56944E+04
  7.04899E+03 -3.57521E+04  3.00787E+04 -1.36224E+04  2.82549E+04  1.09783E+04  3.38944E+03  1.83212E+04
 -1.32187E+04  7.83065E+03 -9.84987E+03 -7.87661E+03  5.86111E+03 -1.03742E+04  1.73839E+04  6.13907E+03
  1.30258E+04  2.18596E+04 -6.38804E+03  2.38865E+04 -2.15699E+04  1.00821E+04 -2.62254E+04 -5.87654E+03
 -1.83654E+04 -1.67518E+04 -6.96059E+03 -1.82536E+04  3.80539E+03 -1.65028E+04  1.33497E+04 -1.58924E+04
  2.32218E+04 -1.22033E+04  2.99670E+04  2.05643E+03  2.20880E+04  1.79497E+04  3.89805E+03  3.40727E+04
 -1.64994E+04  2.85673E+04 -2.63782E+04  9.65207E+03 -2.04166E+04 -1.00962E+04 -4.21334E+03 -1.36970E+04
  2.28121E+03 -3.50754E+03 -3.41560E+03  5.91611E+03 -1.43134E+04  5.46695E+03 -1.46077E+04 -5.83453E+03
 -8.60818E+03 -1.66418E+04  4.82608E+03 -2.04244E+04  1.36160E+04 -1.50075E+04  1.60120E+04 -1.87170E+03
  9.85273E+03  1.19271E+04 -6.59971E+02  1.73533E+04 -1.13536E+04  9.63112E+03 -1.64658E+04 -3.67054E+03
 -1.24679E+04 -1.51982E+04 -1.53017E+03 -2.04613E+04  9.37724E+03 -1.67290E+04  1.73918E+04 -8.05710E+03
  1.57007E+04  6.62193E+02  1.14901E+04  3.90593E+03  5.99208E+03  7.25752E+02  8.50433E+03 -1.57238E+03
  1.50649E+04  2.70000E+03  1.63808E+04  1.37201E+04  1.02050E+04  2.68933E+04 -3.14916E+03  2.95581E+04
 -1.72162E+04  2.29983E+04 -2.73137E+04  1.12773E+04 -2.80202E+04 -1.95088E+03 -2.36602E+04 -1.60293E+04
 -1.08523E+04 -2.29109E+04  7.76843E+03 -2.10488E+04  1.83273E+04 -1.15560E+04  1.67762E+04  4.08118E+03
  7.06307E+03  1.24126E+04 -7.72500E+03  1.12660E+04 -1.44395E+04  2.67362E+03 -1.10304E+04 -8.42845E+03
 -8.95522E+01 -1.34639E+04  6.96180E+03 -1.01050E+04  8.57737E+03 -1.32156E+03  1.69539E+03  5.37768E+03
 -5.91374E+03  1.76098E+03 -4.35147E+03 -4.88075E+03  6.12952E+02 -1.15805E+04  8.57576E+03 -1.12673E+04
  1.40335E+04 -5.70324E+03  1.41959E+04  2.60355E+03  1.23552E+04  1.10218E+04  5.71644E+03  1.60870E+04
 -1.95542E+03  1.81499E+04 -1.09796E+04  1.15066E+04 -1.28547E+04  3.06100E+03 -9.47721E+03 -2.55043E+03
 -5.01386E+03 -3.74671E+03 -8.06827E+02  1.46745E+03 -2.11789E+03  2.14634E+03 -3.89158E+03  3.76900E+03
 -8.85426E+03 -6.38226E+02 -9.56236E+03 -7.75305E+03 -3.66805E+03 -1.28114E+04  3.77023E+03 -9.41221E+03
  7.82822E+03 -4.24928E+03  5.92462E+03  2.40692E+03  4.35760E+02  3.58506E+03 -3.89735E+03 -3.02967E+02
 -3.89189E+03 -6.12613E+03 -1.23297E+03 -8.44779E+03  4.52833E+03 -8.93267E+03  1.10960E+04 -4.86522E+03
  1.33218E+04  9.86400E+02  9.84785E+03  7.52333E+03  1.79938E+03  1.01241E+04 -5.61720E+03  9.44491E+03
 -7.50680E+03  3.26368E+03 -3.81140E+03 -1.50829E+03  1.51989E+03 -2.25953E+03  5.25274E+03 -1.13229E+03
  4.39689E+03  3.93487E+03  1.14766E+03  7.36059E+03 -5.11688E+03  6.81683E+03 -8.52239E+03  2.17675E+03
 -5.67195E+03 -4.18528E+03  8.66357E+01 -7.58581E+03  4.40529E+03 -3.41748E+03  4.38031E+03  1.07160E+03
  6.87703E+02  4.45371E+03 -4.71003E+03  5.74689E+03 -5.81777E+03  2.75418E+03 -5.49178E+03 -1.77919E+03
 -3.61287E+03 -7.00277E+03  1.31099E+03 -8.27197E+03  6.74076E+03 -5.21553E+03  7.94277E+03  1.21202E+03
  5.32617E+03  6.02311E+03 -3.84213E+02  8.15489E+03 -5.73109E+03  4.68587E+03 -5.99066E+03 -4.26142E+02
 -6.43015E+03 -5.82537E+03 -1.47165E+03 -5.97461E+03  3.14833E+03 -5.09907E+03  3.31045E+03 -3.05834E+03
  2.96636E+03  3.07621E+02 -8.20207E+01  1.09798E+03  4.93527E+02 -5.58727E+02  3.44067E+02 -2.66500E+03
  4.73586E+03 -1.17206E+03  6.25406E+03  5.92458E+02  6.66519E+03  3.87061E+03  6.05909E+03  8.74447E+03
 -1.68538E+03  1.04684E+04 -8.95244E+03  7.94221E+03 -1.18692E+04  1.77283E+03 -9.21084E+03 -3.56276E+03
 -4.87041E+03 -7.68707E+03 -3.22814E+02 -6.08583E+03  2.45381E+03 -2.79524E+03  1.92575E+03 -2.73797E+03
  1.40188E+03 -1.68323E+03  2.41465E+03 -2.59566E+03  3.63970E+03 -1.54006E+03  4.09439E+03  6.42484E+00
  5.12269E+03  1.24390E+03  1.73599E+03  4.16459E+03 -1.49333E+03  3.91145E+03 -5.01027E+03  3.29033E+03
 -5.74174E+03 -8.77187E+02 -2.79473E+03 -4.09588E+03  3.60439E+02 -6.25693E+03  3.97071E+03 -6.34197E+03
  6.31265E+03 -3.92934E+03  7.98342E+03  5.33907E+02  5.83358E+03  5.18817E+03  1.03807E+03  7.36758E+03
 -2.77083E+03  6.99364E+03 -4.02966E+03  2.17998E+03 -2.37855E+03 -1.01748E+03 -6.25826E+02 -8.42447E+02
 -4.07014E+02  5.47972E+02 -9.19885E+02  2.09607E+03 -3.01407E+03  9.43068E+02 -4.59779E+03 -4.68316E+02
 -2.38488E+03 -4.77085E+03  7.74431E+02 -5.55322E+03  3.53329E+03 -5.17170E+03  4.89478E+03 -1.27183E+03
  5.04976E+03  2.92740E+03  2.37469E+03  4.34259E+03 -1.08780E+03  5.47063E+03 -3.42208E+03  3.29046E+03
 -5.06669E+03  3.18164E+02 -4.02059E+03 -3.05021E+03 -3.65890E+02 -4.18214E+03  1.99650E+03 -2.93764E+03
  3.19381E+03 -1.15783E+03  1.96942E+03  4.02483E+02  5.67341E+02  1.98203E+03  9.32434E+02  7.36150E+02
  2.05477E+03  4.83278E+02  1.57105E+03  1.24212E+03  1.43175E+03  2.41256E+03  1.67854E+03  2.36798E+03
 -1.33904E+03  3.84270E+03 -3.24517E+03  4.49841E+03 -4.19213E+03  1.09454E+03 -5.16284E+03 -7.56831E+02
 -2.62201E+03 -4.86402E+03  7.79588E+02 -5.68401E+03  2.57555E+03 -3.45498E+03  3.86524E+03 -9.78540E+02
  3.23508E+03  2.31264E+03  6.90951E+02  2.95994E+03 -9.74245E+02  1.55841E+03 -1.39410E+03 -1.84809E+02
 -5.20349E+02 -1.98595E+03  1.16342E+03 -2.09792E+03  1.48864E+03 -1.27993E+03  1.62852E+03  4.87352E+02
  1.18236E+03  5.65515E+02  7.61831E+02  2.96312E+02 -1.86606E+02  5.86132E+02  1.79690E+03 -9.91410E+01
  2.23593E+02 -3.37851E+02  2.34400E+03  8.32259E+02  3.48159E+02  2.94223E+03 -4.28241E+02  3.35414E+03
 -2.16608E+03  1.46201E+03 -2.68698E+03  4.25083E+02 -2.50099E+03 -1.10929E+03 -4.29260E+02 -1.86544E+03
  2.74762E+02 -1.67694E+03  1.00483E+03 -6.42506E+02  3.71541E+02  1.35479E+03 -7.12897E+02  1.21551E+03
 -2.17348E+03  7.98384E+02 -1.69417E+03 -1.37910E+03 -9.78927E+02 -2.59064E+03  2.68810E+02 -2.35315E+03
  8.71856E+02 -9.10458E+02  1.13191E+03  3.44243E+02  1.74961E+03  1.12949E+02  4.90982E+02  1.39285E+03
 -6.37114E+02  4.82890E+02 -1.29725E+03 -2.90052E+02  7.59404E+02 -1.26835E+03  2.07115E+03 -1.14324E+03
  1.94356E+03  4.67953E+02  3.37388E+03  1.17073E+03  1.14420E+03  2.18866E+03 -4.03653E+02  2.66246E+03
 -1.68481E+03  6.26033E+02 -2.18753E+03 -4.76764E+02 -7.79101E+02 -1.89764E+03  2.92178E+02 -9.48917E+02
  1.88366E+03 -1.02198E+03  1.21960E+03  8.59056E+02  3.21518E+02  1.67299E+03  2.25339E+02  1.48734E+03
 -5.14560E+02  1.32669E+03 -3.02570E+02  4.20094E+01 -2.24782E+02  5.12025E+02 -6.66080E+02  6.23194E+02
 -8.76613E+02  1.37874E+03 -1.96619E+03  7.11419E+02 -2.21316E+03  4.49061E+02 -3.12470E+03 -1.37947E+03
 -1.52744E+03 -3.13725E+03  6.94554E+02 -3.70367E+03  1.91725E+03 -3.05139E+03  3.63966E+03 -1.21247E+03
  3.15359E+03 -1.11034E+01  1.57419E+03  1.93872E+03 -4.32532E+02  2.12961E+03 -8.62993E+02  1.69665E+03
 -1.34606E+03  7.57855E+02 -5.96956E+02 -6.29322E+01 -3.54915E+02  1.98395E+02 -3.51682E+02 -3.82992E+01
 -1.33220E+03 -1.55288E+02 -9.60670E+02  4.88333E+01  3.17277E+02 -8.91000E+02 -3.30468E+02 -1.08622E+03
  1.49667E+03 -6.60010E+02  5.73283E+02  2.07672E+02  1.68065E+03  1.06272E+03 -1.08881E+02  1.85091E+03
 -1.08916E+03  2.76846E+03 -2.10663E+03  1.77216E+03 -2.34498E+03 -8.53267E+00 -1.56232E+03 -1.68603E+03
 -1.26669E+03 -2.14591E+03  5.05134E+02 -1.98721E+03  1.14154E+03 -1.04951E+03  7.13970E+02  2.09984E+02
  6.67707E+02  5.83657E+02 -1.94475E+01  4.39764E+02 -2.77496E+02  7.25848E+01 -1.51512E+02 -3.15057E+02
  5.28226E+02  1.66919E+01  3.56774E+02  5.21514E+02 -1.21809E+02  3.67870E+02  3.96123E+02  7.30077E+02
 -7.81081E+02  8.89392E+02 -9.34520E+02  3.05324E+02 -1.12242E+03 -8.81896E+02  1.93656E+02 -1.33357E+03
  5.94075E+02 -8.68279E+02  7.77203E+02 -1.34660E+02  1.46501E+03 -4.09167E+02  9.38276E+02  1.00660E+03
  8.67798E+02  8.76582E+02 -2.77394E+02  1.06460E+03 -4.56179E+02  6.35036E+02 -2.62250E+02  1.31739E+02
 -3.44278E+02 -2.32145E+02 -2.78733E+02  1.08934E+02 -6.77907E+02  3.49025E+02 -1.06865E+03 -4.21507E+02
 -1.14906E+03 -3.00461E+02 -1.81788E+02 -1.04875E+03  6.16600E+02 -1.60538E+03  9.32804E+02 -4.36896E+02
  1.19432E+03  1.66893E+02  1.05056E+02  5.90228E+02  1.13035E+02  1.21126E+03 -7.22767E+02  5.53253E+02
