 $NMID ID='MM_0lb_SNR800_18hz_g55_87.RAW', FMTDAT='(8E13.5)'
 TRAMP=1., VOLUME=1. $END
  3.09605E+05  4.94329E+02  3.37260E+05  2.50503E+05  8.43573E+04  3.37450E+05 -1.32578E+05  2.50818E+05
 -1.90033E+05  8.29342E+04 -1.11588E+05 -3.26946E+04  1.13946E+03 -5.05522E+04  5.37161E+04 -1.07428E+01
  3.51548E+04  5.28390E+04 -1.70420E+04  7.51299E+04 -6.06092E+04  6.27822E+04 -8.36614E+04  3.17538E+04
 -8.02850E+04 -1.13469E+04 -5.64519E+04 -5.09088E+04 -1.51132E+04 -6.88128E+04  2.70494E+04 -4.49313E+04
  3.95951E+04  3.62410E+03  1.58711E+04  4.75696E+04 -3.41258E+04  4.68080E+04 -6.59905E+04 -3.93460E+02
 -5.27346E+04 -5.63534E+04 -6.41680E+03 -7.60308E+04  3.33826E+04 -5.39379E+04  4.70160E+04 -1.68012E+04
  4.25491E+04  1.12012E+04  3.14080E+04  2.50211E+04  1.60158E+04  2.86331E+04 -5.23332E+03  2.72055E+04
 -2.17847E+04  1.26277E+04 -1.88776E+04 -4.84484E+03  5.05564E+03 -7.35954E+03  2.16403E+04  1.15655E+04
  7.39560E+03  3.40763E+04 -3.12088E+04  3.45432E+04 -6.20854E+04  2.30848E+03 -5.60949E+04 -4.18604E+04
 -1.26782E+04 -6.16792E+04  3.88315E+04 -4.43899E+04  5.67305E+04 -1.79335E+03  3.29480E+04  3.15364E+04
 -6.48307E+03  3.41596E+04 -2.89667E+04  1.45673E+04 -2.88746E+04 -4.92106E+03 -1.52300E+04 -1.01059E+04
 -7.70566E+03 -1.22544E+04 -8.49732E+02 -1.72217E+04  6.85092E+03 -2.28663E+04  1.55202E+04 -1.35823E+04
  1.18574E+04  4.51554E+03 -7.37528E+03  1.27428E+04 -2.01696E+04 -3.22773E+03 -8.14178E+03 -3.16636E+04
  2.13910E+04 -4.18789E+04  4.62594E+04 -1.90065E+04  4.33664E+04  1.87830E+04  1.50819E+04  4.29938E+04
 -1.57221E+04  3.20417E+04 -2.43155E+04  1.37208E+03 -9.27228E+03 -2.70607E+04  2.06397E+04 -3.21650E+04
  3.93584E+04 -7.89527E+03  3.29936E+04  2.30832E+04  1.65360E+04  4.40783E+04 -7.80547E+03  4.71556E+04
 -2.98302E+04  3.12045E+04 -3.94432E+04  8.46573E+03 -4.01854E+04 -1.54669E+04 -2.21555E+04 -3.59184E+04
  7.28481E+03 -3.55263E+04  3.03387E+04 -1.35767E+04  2.77719E+04  1.07496E+04  3.33353E+03  1.81049E+04
 -1.31146E+04  7.70330E+03 -9.87186E+03 -7.80615E+03  5.94113E+03 -1.05558E+04  1.76455E+04  6.10952E+03
  1.27967E+04  2.18938E+04 -6.34250E+03  2.39245E+04 -2.17383E+04  1.00279E+04 -2.59947E+04 -5.66726E+03
 -1.82430E+04 -1.69213E+04 -6.91575E+03 -1.81390E+04  3.86294E+03 -1.65805E+04  1.38421E+04 -1.57355E+04
  2.30701E+04 -1.21352E+04  2.97763E+04  1.63683E+03  2.23893E+04  1.75828E+04  4.14039E+03  3.39137E+04
 -1.68076E+04  2.84678E+04 -2.65984E+04  9.88665E+03 -2.03761E+04 -1.04579E+04 -4.15541E+03 -1.36484E+04
  2.43193E+03 -3.51844E+03 -3.22800E+03  6.08665E+03 -1.40198E+04  5.00369E+03 -1.45240E+04 -5.69875E+03
 -9.12325E+03 -1.66002E+04  4.92259E+03 -2.05322E+04  1.33504E+04 -1.48260E+04  1.60136E+04 -1.69498E+03
  9.43551E+03  1.15649E+04 -7.05436E+02  1.68605E+04 -1.10936E+04  9.55663E+03 -1.63793E+04 -3.58845E+03
 -1.22648E+04 -1.52009E+04 -1.32638E+03 -2.05624E+04  9.40644E+03 -1.63342E+04  1.72068E+04 -7.61047E+03
  1.55588E+04  6.48503E+02  1.13209E+04  4.07603E+03  5.51119E+03  6.20114E+02  8.04031E+03 -1.47533E+03
  1.48238E+04  2.86382E+03  1.59728E+04  1.32353E+04  1.03770E+04  2.61253E+04 -3.09743E+03  2.88938E+04
 -1.71296E+04  2.22031E+04 -2.68992E+04  1.11024E+04 -2.72034E+04 -2.01430E+03 -2.35016E+04 -1.56620E+04
 -1.06828E+04 -2.24140E+04  7.50985E+03 -2.06625E+04  1.79102E+04 -1.15293E+04  1.66591E+04  4.11929E+03
  6.85849E+03  1.19207E+04 -7.54626E+03  1.10234E+04 -1.43316E+04  2.67174E+03 -1.09914E+04 -8.50272E+03
 -1.13736E+02 -1.32621E+04  6.54235E+03 -9.99287E+03  8.34117E+03 -1.30242E+03  1.51114E+03  5.26743E+03
 -5.88618E+03  1.79752E+03 -4.43554E+03 -4.69419E+03  5.51351E+02 -1.09511E+04  8.31097E+03 -1.10592E+04
  1.35355E+04 -5.45276E+03  1.32541E+04  2.99720E+03  1.15925E+04  1.01926E+04  5.64918E+03  1.55307E+04
 -2.20564E+03  1.74849E+04 -1.08848E+04  1.11568E+04 -1.21790E+04  2.82893E+03 -9.13412E+03 -2.24850E+03
 -4.84994E+03 -3.56821E+03 -9.42832E+02  1.49913E+03 -2.16363E+03  1.95338E+03 -3.87493E+03  3.88427E+03
 -8.60202E+03 -5.65823E+02 -9.41438E+03 -7.59329E+03 -3.93348E+03 -1.25323E+04  3.77643E+03 -9.14225E+03
  7.78997E+03 -4.05388E+03  5.81517E+03  2.54813E+03  6.26898E+02  3.59483E+03 -3.97671E+03 -1.70579E+02
 -4.02349E+03 -5.49899E+03 -7.59299E+02 -8.20006E+03  4.64861E+03 -8.74548E+03  1.04332E+04 -4.47937E+03
  1.27813E+04  6.50161E+02  9.39860E+03  6.86054E+03  2.03935E+03  9.65649E+03 -5.44784E+03  8.98083E+03
 -7.56671E+03  2.82206E+03 -3.88406E+03 -1.66381E+03  1.45396E+03 -1.77580E+03  5.30067E+03 -8.97559E+02
  4.25059E+03  3.69627E+03  1.15305E+03  6.89194E+03 -4.57248E+03  6.91198E+03 -8.72454E+03  1.86160E+03
 -5.54872E+03 -3.94052E+03  8.68313E+01 -6.97221E+03  4.23160E+03 -3.80137E+03  4.14479E+03  1.11730E+03
  4.17894E+02  3.86955E+03 -4.72119E+03  5.17654E+03 -5.50104E+03  2.60015E+03 -5.04085E+03 -1.63040E+03
 -3.21436E+03 -6.69395E+03  1.46309E+03 -7.79936E+03  6.81311E+03 -5.19401E+03  7.47557E+03  9.90133E+02
  5.16089E+03  5.94898E+03  1.08257E+02  7.65548E+03 -5.56281E+03  4.37303E+03 -5.76618E+03 -4.50188E+02
 -6.12015E+03 -5.60116E+03 -1.21857E+03 -5.54034E+03  2.87949E+03 -5.08179E+03  3.34725E+03 -2.92400E+03
  2.93407E+03  4.55216E+02 -3.35883E+02  1.43366E+03  4.68252E+02 -1.25399E+02  4.47633E+02 -2.05069E+03
  4.29225E+03 -1.21478E+03  6.19615E+03  8.31052E+02  6.28843E+03  3.71337E+03  5.71758E+03  8.32697E+03
 -1.70509E+03  9.20845E+03 -8.59552E+03  7.46190E+03 -1.05925E+04  1.26315E+03 -8.54708E+03 -2.99336E+03
 -4.77720E+03 -7.18112E+03 -3.04930E+02 -5.76663E+03  2.15624E+03 -2.58997E+03  1.97764E+03 -2.27499E+03
  1.56984E+03 -1.65649E+03  2.26100E+03 -2.28309E+03  3.83375E+03 -1.60661E+03  3.98823E+03  4.64127E+02
  4.92671E+03  1.47783E+03  1.30337E+03  3.79662E+03 -1.61371E+03  3.42620E+03 -4.73460E+03  3.12740E+03
 -5.64492E+03 -9.19276E+02 -2.23501E+03 -3.73825E+03  2.46008E+02 -5.28868E+03  3.37601E+03 -5.63254E+03
  5.87347E+03 -3.62255E+03  7.41127E+03  1.56711E+02  5.38202E+03  4.92832E+03  1.05340E+03  6.80395E+03
 -2.62047E+03  6.24318E+03 -3.68274E+03  2.00717E+03 -1.91019E+03 -9.77936E+02 -6.68315E+02 -7.57386E+02
 -5.45196E+02  2.75808E+02 -1.05067E+03  1.97919E+03 -2.85107E+03  1.33239E+03 -4.39776E+03 -4.52754E+02
 -1.72738E+03 -4.50163E+03  6.64242E+02 -5.01838E+03  3.24613E+03 -4.70097E+03  4.23495E+03 -1.21996E+03
  4.96962E+03  2.69622E+03  2.21405E+03  3.71680E+03 -6.41208E+02  4.69645E+03 -2.87857E+03  2.90273E+03
 -4.43982E+03  4.27901E+02 -3.84076E+03 -2.91105E+03 -1.54939E+02 -3.56383E+03  2.12222E+03 -2.90038E+03
  2.89596E+03 -1.24981E+03  1.98104E+03  5.63304E+02  3.05816E+02  1.95621E+03  9.15440E+02  3.67542E+02
  1.87802E+03  6.25727E+02  1.45120E+03  1.02634E+03  1.29255E+03  2.35716E+03  1.56466E+03  1.75086E+03
 -1.49716E+03  2.90865E+03 -3.04090E+03  4.39127E+03 -3.50410E+03  1.54432E+03 -4.64400E+03 -6.27334E+02
 -1.78360E+03 -3.94788E+03  7.23043E+02 -5.09389E+03  2.18885E+03 -2.82435E+03  3.51531E+03 -1.21967E+03
  2.72476E+03  1.96416E+03  4.48368E+02  2.68959E+03 -9.24142E+02  1.25503E+03 -1.31036E+03 -1.04033E+02
 -6.29017E+02 -1.88805E+03  1.30946E+03 -1.85078E+03  1.30405E+03 -9.79013E+02  1.47585E+03  2.59492E+02
  7.25313E+02  6.11724E+02  7.12816E+02 -1.91641E+02 -2.06384E+02  8.13957E+02  1.54147E+03 -1.37092E+02
  6.48322E+01 -6.78245E+01  1.89363E+03  7.09066E+02  4.50021E+02  2.43269E+03 -3.33355E+02  3.17695E+03
 -1.95778E+03  1.33306E+03 -2.37320E+03  3.29151E+02 -2.12480E+03 -1.04595E+03  4.95392E+01 -1.01883E+03
  5.62144E+02 -1.43501E+03  9.93651E+02 -7.48535E+02  7.30665E+02  1.23388E+03 -6.39768E+02  1.17875E+03
 -1.56172E+03  8.81437E+02 -1.29338E+03 -1.48654E+03 -7.94274E+02 -2.37513E+03  2.38613E+02 -1.83322E+03
  5.29101E+02 -5.43777E+02  8.89876E+02 -2.25927E+02  1.34272E+03 -5.80919E+01  2.24584E+02  1.15592E+03
 -4.58084E+02  4.11122E+02 -9.49486E+02 -5.89507E+02  4.45941E+02 -1.02442E+03  1.96391E+03 -1.16439E+03
  1.14432E+03  2.61944E+02  2.89735E+03  7.69668E+02  1.16400E+03  1.66320E+03 -4.67712E+02  2.06761E+03
 -1.68922E+03  5.81829E+02 -1.86016E+03 -2.91193E+02 -9.75816E+02 -1.73296E+03  5.02098E+02 -5.59416E+02
  1.61573E+03 -6.76626E+02  6.82933E+02  6.50120E+02  2.24383E+02  1.33555E+03  4.20874E+02  1.30213E+03
 -1.66681E+02  1.24118E+03 -4.99779E+02  7.44906E+01 -3.57563E+02  5.29234E+02 -5.50251E+02  6.05260E+02
 -7.79614E+02  1.11517E+03 -1.75187E+03  5.57368E+02 -1.77983E+03  2.43949E+02 -2.43956E+03 -8.38837E+02
 -1.16914E+03 -2.48699E+03  6.24936E+02 -2.98727E+03  1.14401E+03 -2.69619E+03  3.02288E+03 -7.91479E+02
  2.61357E+03 -1.19365E+02  1.28098E+03  1.47653E+03 -5.96402E+02  1.81375E+03 -6.97259E+02  1.18600E+03
 -9.51280E+02  7.15565E+02 -7.85723E+02  3.52013E+01 -5.32134E+02  1.86580E+02 -3.88592E+02 -6.51457E+01
 -1.16123E+03  1.29753E+02 -9.69231E+02  2.18728E+02  2.39873E+02 -8.38576E+02 -4.88761E+02 -1.07893E+03
  1.38349E+03 -6.26686E+02  3.08548E+02  4.56930E+01  1.37159E+03  8.61582E+02 -2.47853E+02  1.37345E+03
 -8.58547E+02  2.35914E+03 -1.79364E+03  1.30038E+03 -1.98200E+03  5.00333E+01 -1.19137E+03 -1.37067E+03
 -1.11136E+03 -1.55817E+03  2.33730E+02 -1.43071E+03  6.85837E+02 -5.02354E+02  9.14122E+02  4.48371E+01
  9.61631E+02  4.64475E+02  3.66394E+02  3.70784E+02 -3.84903E+02 -1.71757E+01 -5.16778E+01 -3.32745E+02
  3.72869E+02  2.14352E+02  5.30489E+02  4.50761E+02  3.06235E+01  2.65657E+02  4.90409E+02  3.13536E+02
 -4.49073E+02  1.76669E+02 -4.88084E+02  1.57159E+02 -9.06482E+02 -5.34021E+02 -6.45480E+00 -1.05837E+03
  5.36301E+02 -1.01441E+03  6.36008E+02 -2.48381E+02  1.05259E+03 -7.00464E+02  5.28799E+02  8.80611E+02
  3.94163E+02  4.81165E+02 -2.06245E+02  5.53281E+02 -5.56500E+02  4.32626E+02 -2.38178E+02  3.96327E+02
  1.51693E+01 -6.37061E+01 -4.58869E+02 -5.06877E+00 -7.96930E+02  3.63001E+02 -6.28390E+02 -4.20479E+02
 -1.14631E+03 -6.35136E+00 -6.06740E+02 -1.25226E+03  7.67686E+02 -1.68459E+03  8.80244E+02 -2.84707E+02
  6.86097E+02  1.36932E+02 -3.04028E+02  3.54848E+02 -6.69828E+01  1.15500E+03 -3.25456E+02  9.31478E+02
