 $NMID ID='MM_0lb_SNR800_19hz_g40_15.RAW', FMTDAT='(8E13.5)'
 TRAMP=1., VOLUME=1. $END
  3.09517E+05  4.27479E+02  3.37213E+05  2.50214E+05  8.42188E+04  3.37117E+05 -1.32279E+05  2.49941E+05
 -1.89403E+05  8.24018E+04 -1.10531E+05 -3.28923E+04  1.66739E+03 -5.01848E+04  5.38041E+04  1.02744E+02
  3.49652E+04  5.27206E+04 -1.71015E+04  7.46955E+04 -6.01513E+04  6.22927E+04 -8.24530E+04  3.11182E+04
 -7.91385E+04 -1.10852E+04 -5.58236E+04 -4.95647E+04 -1.49779E+04 -6.77374E+04  2.66419E+04 -4.43886E+04
  3.85606E+04  4.12548E+03  1.56634E+04  4.68253E+04 -3.36814E+04  4.57891E+04 -6.48890E+04 -7.79527E+02
 -5.14511E+04 -5.52760E+04 -6.03029E+03 -7.44470E+04  3.26271E+04 -5.22493E+04  4.54954E+04 -1.58874E+04
  4.11618E+04  1.11005E+04  3.06021E+04  2.39238E+04  1.58268E+04  2.81325E+04 -4.62625E+03  2.64431E+04
 -2.14055E+04  1.30043E+04 -1.94798E+04 -3.91337E+03  3.77189E+03 -7.56040E+03  2.09028E+04  1.02940E+04
  7.19105E+03  3.26642E+04 -3.00924E+04  3.37862E+04 -6.02747E+04  2.39532E+03 -5.47822E+04 -4.08574E+04
 -1.22618E+04 -6.03402E+04  3.77698E+04 -4.26601E+04  5.47641E+04 -1.95508E+03  3.09717E+04  2.99188E+04
 -6.47908E+03  3.23239E+04 -2.77912E+04  1.24901E+04 -2.68220E+04 -5.57298E+03 -1.37411E+04 -9.69894E+03
 -7.12276E+03 -1.09824E+04 -1.02169E+03 -1.62763E+04  6.67775E+03 -2.25867E+04  1.49072E+04 -1.40542E+04
  1.24879E+04  3.80136E+03 -5.43572E+03  1.30037E+04 -1.87583E+04 -2.02788E+03 -7.99168E+03 -2.94203E+04
  2.00638E+04 -3.97322E+04  4.35860E+04 -1.82671E+04  4.10741E+04  1.79152E+04  1.37763E+04  4.09445E+04
 -1.53006E+04  3.04064E+04 -2.27598E+04  8.51085E+02 -7.86949E+03 -2.57312E+04  2.02873E+04 -3.03259E+04
  3.73698E+04 -6.79601E+03  3.02848E+04  2.24275E+04  1.43272E+04  4.15838E+04 -7.55528E+03  4.37736E+04
 -2.77566E+04  2.87024E+04 -3.60064E+04  7.76308E+03 -3.68865E+04 -1.45720E+04 -2.07163E+04 -3.34457E+04
  6.79814E+03 -3.28449E+04  2.88284E+04 -1.20122E+04  2.62145E+04  1.07927E+04  2.76422E+03  1.74186E+04
 -1.30943E+04  7.06666E+03 -9.34016E+03 -7.87218E+03  6.28838E+03 -9.89172E+03  1.70547E+04  6.32620E+03
  1.19795E+04  2.13297E+04 -6.90387E+03  2.27411E+04 -2.08826E+04  8.69550E+03 -2.42022E+04 -6.75083E+03
 -1.56987E+04 -1.59172E+04 -4.88744E+03 -1.55244E+04  3.72875E+03 -1.33297E+04  1.16462E+04 -1.34315E+04
  1.98522E+04 -1.12188E+04  2.69600E+04  9.19870E+02  2.04570E+04  1.52598E+04  4.10954E+03  3.13617E+04
 -1.57767E+04  2.68892E+04 -2.55525E+04  9.00439E+03 -1.94386E+04 -1.05018E+04 -3.93503E+03 -1.39251E+04
  2.85446E+03 -4.68775E+03 -1.95508E+03  5.10259E+03 -1.20300E+04  5.12745E+03 -1.27966E+04 -4.43998E+03
 -8.40085E+03 -1.44153E+04  4.50956E+03 -1.83992E+04  1.18547E+04 -1.37539E+04  1.36328E+04 -1.42134E+03
  8.11823E+03  1.05637E+04 -7.60188E+02  1.49360E+04 -9.33663E+03  8.31794E+03 -1.43287E+04 -3.40062E+03
 -1.10041E+04 -1.36171E+04 -1.31843E+03 -1.81098E+04  8.03543E+03 -1.44818E+04  1.53792E+04 -6.78087E+03
  1.39570E+04  8.36407E+02  1.00415E+04  3.69685E+03  4.48489E+03  2.49905E+02  7.12417E+03 -1.11238E+03
  1.30924E+04  2.33467E+03  1.36474E+04  1.21893E+04  8.36813E+03  2.32763E+04 -3.37346E+03  2.47388E+04
 -1.47551E+04  1.88138E+04 -2.26009E+04  9.11441E+03 -2.30498E+04 -1.64493E+03 -2.01130E+04 -1.28932E+04
 -9.53874E+03 -1.85616E+04  6.11983E+03 -1.77812E+04  1.54284E+04 -1.04105E+04  1.47444E+04  3.15310E+03
  6.35199E+03  1.04935E+04 -6.69782E+03  9.87063E+03 -1.27305E+04  2.43420E+03 -1.00853E+04 -7.55364E+03
 -1.50081E+02 -1.18700E+04  5.60923E+03 -8.88741E+03  7.54388E+03 -1.29525E+03  1.19182E+03  4.97647E+03
 -5.28543E+03  1.17432E+03 -3.37930E+03 -4.35299E+03  8.78770E+02 -9.68467E+03  7.60080E+03 -9.35477E+03
  1.11717E+04 -4.03617E+03  1.08263E+04  2.47172E+03  9.12050E+03  8.63060E+03  4.36205E+03  1.29516E+04
 -1.46970E+03  1.45475E+04 -8.60095E+03  9.08959E+03 -1.04284E+04  2.81777E+03 -7.53581E+03 -1.59362E+03
 -4.41249E+03 -3.19265E+03 -7.01064E+02  1.29292E+03 -1.94602E+03  1.86492E+03 -3.33739E+03  3.44076E+03
 -7.33604E+03 -1.68683E+02 -8.04069E+03 -6.72064E+03 -3.15254E+03 -1.08801E+04  3.33063E+03 -7.70793E+03
  6.65654E+03 -3.62947E+03  5.08104E+03  1.86533E+03  7.67161E+02  2.81019E+03 -3.27218E+03 -3.87380E+02
 -3.21178E+03 -4.87876E+03 -5.33447E+02 -6.75278E+03  3.49320E+03 -7.23610E+03  9.07577E+03 -3.54576E+03
  1.09487E+04  4.52336E+02  7.94553E+03  5.62844E+03  1.78998E+03  7.73172E+03 -4.78265E+03  7.95085E+03
 -6.66580E+03  2.58488E+03 -3.14355E+03 -1.01051E+03  1.05528E+03 -1.81537E+03  4.33340E+03 -9.54308E+02
  3.67201E+03  3.34466E+03  1.16723E+03  5.88154E+03 -4.17457E+03  6.13877E+03 -7.39376E+03  1.84223E+03
 -4.38811E+03 -3.28867E+03  2.63614E+02 -6.18039E+03  3.18212E+03 -3.35909E+03  3.11563E+03  6.94459E+02
  2.21639E+02  2.74254E+03 -3.83367E+03  4.24053E+03 -4.33654E+03  2.39305E+03 -3.62748E+03 -1.03712E+03
 -2.43098E+03 -5.37770E+03  1.27527E+03 -6.35692E+03  5.15221E+03 -4.22527E+03  5.89080E+03  6.77718E+02
  4.24956E+03  4.89279E+03  2.96465E+02  6.63186E+03 -4.32042E+03  4.21703E+03 -4.65530E+03 -6.18338E+02
 -5.49899E+03 -4.72298E+03 -1.24446E+03 -4.57748E+03  2.23174E+03 -4.22396E+03  2.55593E+03 -2.51719E+03
  2.41251E+03 -5.12605E+01  1.10408E+02  1.12172E+03  7.08576E+02 -5.00353E+01  4.59444E+01 -1.59429E+03
  3.46722E+03 -5.29742E+02  4.69830E+03  6.97904E+02  4.83347E+03  2.55278E+03  4.85299E+03  6.24174E+03
 -6.99455E+02  7.53730E+03 -7.04354E+03  5.85897E+03 -8.84195E+03  9.13462E+02 -7.02978E+03 -2.32303E+03
 -3.74866E+03 -5.85660E+03 -5.16334E+02 -4.56498E+03  2.19243E+03 -1.85676E+03  1.45834E+03 -1.75323E+03
  9.12056E+02 -1.60882E+03  2.19327E+03 -2.23824E+03  3.31098E+03 -1.24189E+03  3.36794E+03  5.54433E+02
  4.08615E+03  8.57259E+02  9.94617E+02  3.10945E+03 -1.45642E+03  2.28012E+03 -4.16443E+03  2.35701E+03
 -4.28585E+03 -6.53271E+02 -1.26630E+03 -3.08098E+03  3.68811E+02 -4.31471E+03  3.03027E+03 -4.79414E+03
  4.40387E+03 -2.81547E+03  6.02884E+03  1.46218E+02  4.40709E+03  3.62237E+03  1.00758E+03  5.55420E+03
 -1.94530E+03  5.46693E+03 -3.02537E+03  1.90923E+03 -1.47244E+03 -6.84434E+02 -3.13125E+02 -3.68468E+02
 -3.14393E+02  4.25676E+02 -9.48661E+02  1.85768E+03 -2.32521E+03  1.00903E+03 -3.78787E+03 -3.92237E+02
 -1.29765E+03 -3.85444E+03  8.45496E+02 -4.27653E+03  2.44051E+03 -4.10161E+03  2.91868E+03 -1.00157E+03
  3.68037E+03  2.03354E+03  1.50097E+03  2.94008E+03 -8.34260E+02  3.93918E+03 -2.23525E+03  2.19090E+03
 -3.46752E+03  5.57279E+02 -3.12830E+03 -2.08112E+03 -9.16027E+01 -2.97638E+03  1.26377E+03 -2.17634E+03
  2.42419E+03 -1.19497E+03  1.65593E+03  4.39656E+02  3.59717E+02  1.22877E+03  1.08067E+03  4.36963E+02
  1.72686E+03  7.81028E+02  1.29931E+03  6.11014E+02  1.09120E+03  2.37508E+03  1.33280E+03  1.57807E+03
 -1.24102E+03  2.45785E+03 -2.16135E+03  3.73414E+03 -2.47589E+03  1.06118E+03 -3.60553E+03 -1.96290E+01
 -1.38757E+03 -3.35994E+03  5.65874E+02 -4.13905E+03  2.02677E+03 -2.12404E+03  2.49563E+03 -1.15166E+03
  2.05209E+03  1.95766E+03  2.00015E+02  2.07409E+03 -4.59007E+02  1.13945E+03 -8.48998E+02 -4.51947E+01
 -5.97012E+02 -1.43084E+03  1.34472E+03 -1.35153E+03  1.03904E+03 -8.99162E+02  1.20118E+03  4.09528E+02
  6.24838E+02  1.02089E+02  5.24406E+02 -3.52956E+02 -3.52031E+02  4.00853E+02  2.07975E+03 -2.22968E+02
  4.32166E+01  8.02096E+01  1.50535E+03  4.76542E+02  3.56463E+02  2.16612E+03 -2.74744E+02  2.81019E+03
 -1.73260E+03  7.30387E+02 -1.95006E+03  2.47414E+02 -1.90037E+03 -7.85020E+02 -9.07320E+01 -8.09813E+02
  3.63323E+02 -1.13191E+03  8.37775E+02 -8.42845E+02  5.30056E+02  1.40816E+03 -6.60375E+02  1.03715E+03
 -1.23464E+03  7.62568E+02 -9.81230E+02 -1.32938E+03 -5.14494E+02 -1.88803E+03 -2.80264E+02 -1.37208E+03
  4.05897E+02 -6.11966E+02  5.43127E+02  4.07030E+02  1.28047E+03 -2.33626E+02  4.04828E+02  1.08979E+03
 -2.83155E+02  1.18522E+02 -8.68566E+02 -7.59518E+01  6.02194E+02 -5.14598E+02  1.63375E+03 -8.33760E+02
  9.69217E+02 -2.84983E+01  2.69299E+03  4.12102E+02  8.72042E+02  1.45791E+03 -2.71920E+02  1.06213E+03
 -1.25640E+03  2.83124E+02 -1.33639E+03 -1.06173E+02 -6.73018E+02 -1.04309E+03  2.38452E+02 -1.28604E+02
  1.40479E+03 -8.05499E+02  5.69030E+02  7.52459E+02  2.82603E+01  1.12790E+03  2.26924E+02  1.35907E+03
 -3.74650E+02  9.26375E+02 -5.60656E+02 -2.05497E+01  3.21542E+01  4.09502E+02 -7.45995E+02  4.95841E+02
 -4.77025E+02  9.90021E+02 -1.78180E+03  5.78275E+02 -1.68062E+03 -7.64422E+01 -2.08059E+03 -1.10507E+03
 -9.43149E+02 -1.80842E+03  6.17641E+02 -2.28038E+03  9.03369E+02 -2.18517E+03  2.28567E+03 -9.22918E+02
  2.23231E+03 -1.65595E+00  9.17880E+02  1.44863E+03 -6.03844E+02  1.29304E+03 -8.64372E+02  1.38799E+03
 -8.40567E+02  8.16267E+02 -5.61758E+02 -9.09452E+01 -5.27846E+02  2.56507E+02 -4.05368E+02  2.25920E+01
 -1.03104E+03 -2.06191E+02 -6.08606E+02  1.41290E+02  7.22490E+01 -4.14887E+02 -3.43853E+02 -5.71042E+02
  1.28684E+03 -6.55876E+02  1.78379E+02  7.65857E+01  1.03925E+03  8.36026E+02 -4.87128E+02  1.45243E+03
 -5.91947E+02  2.04810E+03 -1.56823E+03  1.10129E+03 -1.62556E+03 -6.50538E+01 -1.05469E+03 -1.42058E+03
 -6.99293E+02 -1.31717E+03  2.40951E+02 -8.06289E+02  4.56702E+02 -6.58226E+02  3.09854E+02  4.06469E+02
  7.99575E+02  7.18796E+01  2.07018E+02  4.09759E+02 -6.50135E+02  5.16155E+01 -7.65062E+01 -1.34060E+02
  5.46869E+02 -8.75369E+01  9.68010E+00  7.17710E+02 -3.51009E+02  5.20199E+02  3.29769E+02  2.49042E+02
 -2.90404E+02  4.87885E+02 -3.93753E+02  1.25228E+02 -7.21093E+02 -3.15183E+02  2.48503E+02 -8.62483E+02
  3.66623E+02 -8.25891E+02  4.21582E+02 -1.23861E+02  8.77940E+02 -3.99703E+02  5.09528E+02  9.09679E+02
  4.21739E+02  4.89895E+02 -1.89756E+01  5.48391E+02 -2.37596E+02  3.62135E+02 -5.10006E+02  1.08587E+02
  1.05501E+02 -7.92676E+01 -2.63665E+02  3.01244E+02 -4.88517E+02  1.32903E+02 -7.08884E+02 -9.23681E+01
 -1.01932E+03  5.58567E+02 -2.95234E+02 -7.65076E+02  6.31755E+02 -1.66858E+03  5.69452E+02 -1.79113E+02
  7.00942E+02 -1.24007E+01 -2.32467E+02  9.61016E+01  1.02701E+02  8.24359E+02 -1.02469E+02  3.90852E+02
