 $NMID ID='MM_0lb_SNR800_18hz_g55_32.RAW', FMTDAT='(8E13.5)'
 TRAMP=1., VOLUME=1. $END
  3.09673E+05  4.24072E+02  3.37363E+05  2.50339E+05  8.45401E+04  3.37729E+05 -1.32715E+05  2.50456E+05
 -1.90266E+05  8.27307E+04 -1.11364E+05 -3.26832E+04  9.25050E+02 -5.02207E+04  5.37991E+04  6.88032E+01
  3.53877E+04  5.28987E+04 -1.69690E+04  7.51438E+04 -6.06572E+04  6.33854E+04 -8.34144E+04  3.18683E+04
 -8.03821E+04 -1.14316E+04 -5.67768E+04 -5.07224E+04 -1.50487E+04 -6.85510E+04  2.67818E+04 -4.50854E+04
  3.94427E+04  3.60056E+03  1.57046E+04  4.74707E+04 -3.43232E+04  4.64748E+04 -6.61204E+04 -3.14012E+02
 -5.27812E+04 -5.63316E+04 -6.26002E+03 -7.63562E+04  3.33633E+04 -5.40496E+04  4.72841E+04 -1.70450E+04
  4.24590E+04  1.15732E+04  3.11523E+04  2.46209E+04  1.58999E+04  2.86570E+04 -4.95503E+03  2.71474E+04
 -2.20721E+04  1.26409E+04 -1.86059E+04 -4.46145E+03  4.90775E+03 -7.64272E+03  2.16812E+04  1.15934E+04
  7.61662E+03  3.42752E+04 -3.11018E+04  3.46500E+04 -6.22581E+04  2.14496E+03 -5.60121E+04 -4.17399E+04
 -1.25462E+04 -6.18835E+04  3.87778E+04 -4.42563E+04  5.68313E+04 -2.30879E+03  3.28509E+04  3.14464E+04
 -6.15326E+03  3.42861E+04 -2.89666E+04  1.44787E+04 -2.87205E+04 -4.94583E+03 -1.56708E+04 -1.05627E+04
 -7.79754E+03 -1.26581E+04 -1.33471E+03 -1.71797E+04  7.11797E+03 -2.26956E+04  1.53197E+04 -1.36200E+04
  1.17151E+04  4.73950E+03 -7.11158E+03  1.30318E+04 -1.98826E+04 -3.35145E+03 -8.29978E+03 -3.15348E+04
  2.17521E+04 -4.16567E+04  4.63086E+04 -1.91398E+04  4.32749E+04  1.87040E+04  1.47555E+04  4.27806E+04
 -1.55732E+04  3.18923E+04 -2.42036E+04  1.29512E+03 -8.96717E+03 -2.70199E+04  2.05540E+04 -3.22773E+04
  3.95669E+04 -7.77125E+03  3.31753E+04  2.30988E+04  1.62957E+04  4.39111E+04 -7.73328E+03  4.70528E+04
 -2.95767E+04  3.15830E+04 -3.91075E+04  8.64479E+03 -3.99736E+04 -1.52610E+04 -2.23872E+04 -3.57245E+04
  7.16166E+03 -3.56217E+04  2.99841E+04 -1.32324E+04  2.77345E+04  1.07897E+04  3.36539E+03  1.80726E+04
 -1.31538E+04  7.63601E+03 -9.75702E+03 -7.53619E+03  5.73508E+03 -1.03292E+04  1.77656E+04  6.46955E+03
  1.27392E+04  2.17038E+04 -6.42434E+03  2.41575E+04 -2.16127E+04  9.95928E+03 -2.63405E+04 -5.72570E+03
 -1.82927E+04 -1.67919E+04 -6.63601E+03 -1.81716E+04  3.92150E+03 -1.64746E+04  1.34336E+04 -1.60344E+04
  2.33421E+04 -1.20799E+04  2.94762E+04  1.61085E+03  2.22920E+04  1.75942E+04  4.12336E+03  3.37794E+04
 -1.64960E+04  2.85003E+04 -2.62372E+04  9.83926E+03 -2.00175E+04 -1.02839E+04 -4.16889E+03 -1.35687E+04
  2.09394E+03 -3.62907E+03 -3.48565E+03  5.96066E+03 -1.39622E+04  5.40157E+03 -1.44854E+04 -5.70689E+03
 -9.37442E+03 -1.66681E+04  4.76954E+03 -2.05034E+04  1.36444E+04 -1.48241E+04  1.55687E+04 -1.25293E+03
  9.64910E+03  1.13872E+04 -6.84865E+02  1.67901E+04 -1.10661E+04  9.59008E+03 -1.65373E+04 -3.25494E+03
 -1.21200E+04 -1.52051E+04 -1.33072E+03 -2.02869E+04  9.52010E+03 -1.65293E+04  1.69933E+04 -8.06148E+03
  1.55944E+04  6.03362E+02  1.07143E+04  4.26496E+03  5.75712E+03  7.46435E+02  8.18663E+03 -1.44486E+03
  1.47782E+04  2.86171E+03  1.61295E+04  1.35348E+04  1.03523E+04  2.62083E+04 -3.17421E+03  2.89615E+04
 -1.69694E+04  2.26653E+04 -2.67667E+04  1.10267E+04 -2.72635E+04 -1.80009E+03 -2.31075E+04 -1.57682E+04
 -1.05575E+04 -2.22305E+04  7.78443E+03 -2.08507E+04  1.81347E+04 -1.16244E+04  1.68991E+04  4.21037E+03
  6.88010E+03  1.19878E+04 -7.55615E+03  1.12770E+04 -1.39968E+04  2.84679E+03 -1.12477E+04 -8.87487E+03
 -2.16071E+02 -1.29951E+04  6.55852E+03 -9.93000E+03  8.55861E+03 -1.26202E+03  1.62690E+03  5.54421E+03
 -5.69587E+03  1.87563E+03 -4.15794E+03 -4.89118E+03  1.74658E+02 -1.11673E+04  8.55406E+03 -1.08308E+04
  1.35874E+04 -5.21750E+03  1.34307E+04  2.64213E+03  1.15490E+04  1.02928E+04  5.66423E+03  1.57147E+04
 -2.21855E+03  1.76278E+04 -1.08153E+04  1.11483E+04 -1.23969E+04  2.95309E+03 -9.09597E+03 -2.23196E+03
 -4.89883E+03 -3.70291E+03 -7.85685E+02  1.50309E+03 -2.31785E+03  2.11360E+03 -4.01421E+03  3.81083E+03
 -8.60000E+03 -3.85952E+02 -9.36485E+03 -7.47102E+03 -3.70219E+03 -1.21897E+04  3.84729E+03 -9.16845E+03
  7.74076E+03 -4.02106E+03  5.68088E+03  2.18651E+03  5.22528E+02  3.23770E+03 -3.96717E+03 -5.18867E+01
 -3.77725E+03 -5.76502E+03 -8.34564E+02 -7.81663E+03  4.42291E+03 -8.69123E+03  1.08136E+04 -4.62360E+03
  1.29757E+04  7.28569E+02  9.59950E+03  6.80598E+03  1.95861E+03  9.69328E+03 -5.51595E+03  8.84839E+03
 -7.41970E+03  3.23822E+03 -3.83203E+03 -1.45327E+03  1.37047E+03 -2.07363E+03  4.98462E+03 -9.75460E+02
  4.23421E+03  3.70075E+03  1.01570E+03  6.72049E+03 -5.18540E+03  7.06539E+03 -8.69444E+03  1.89809E+03
 -5.43939E+03 -3.85491E+03  4.78035E+02 -7.37964E+03  4.13986E+03 -3.70985E+03  4.00889E+03  1.30452E+03
  4.46233E+02  3.78694E+03 -4.18025E+03  4.98290E+03 -5.76458E+03  2.73987E+03 -5.24916E+03 -1.29493E+03
 -3.51935E+03 -6.55791E+03  1.38372E+03 -7.79298E+03  6.61446E+03 -5.25600E+03  7.09672E+03  8.98637E+02
  5.10455E+03  5.65960E+03 -7.70041E+01  7.98475E+03 -5.36760E+03  4.61868E+03 -5.71008E+03 -4.15626E+02
 -5.92343E+03 -5.54585E+03 -1.45964E+03 -5.36652E+03  2.70163E+03 -5.08798E+03  3.25422E+03 -3.03440E+03
  3.12220E+03  3.29937E+02 -7.47335E+01  1.23187E+03  5.62856E+02 -4.44897E+02  4.47941E+02 -2.11225E+03
  4.07245E+03 -9.41669E+02  6.02142E+03  5.98807E+02  6.39783E+03  3.39732E+03  5.70932E+03  8.11129E+03
 -1.33311E+03  9.72277E+03 -8.51927E+03  7.20875E+03 -1.08358E+04  1.49524E+03 -8.58728E+03 -3.06364E+03
 -4.49083E+03 -7.20836E+03 -5.11046E+02 -5.82010E+03  2.17615E+03 -2.46173E+03  1.71323E+03 -2.24278E+03
  1.41207E+03 -1.54904E+03  1.88629E+03 -2.42225E+03  3.42836E+03 -1.45112E+03  3.85644E+03  5.35751E+02
  4.88135E+03  1.20100E+03  1.27408E+03  3.62156E+03 -1.89324E+03  3.52084E+03 -4.72636E+03  2.80235E+03
 -5.41046E+03 -8.43873E+02 -2.33400E+03 -3.70064E+03  2.34461E+02 -5.61158E+03  3.43911E+03 -6.10586E+03
  5.75924E+03 -3.50589E+03  7.35621E+03  2.98429E+02  5.45911E+03  4.65519E+03  9.35521E+02  6.47435E+03
 -2.38181E+03  6.16532E+03 -3.91884E+03  2.14759E+03 -2.22524E+03 -1.06890E+03 -8.43856E+02 -7.22344E+02
 -3.75111E+02  4.37631E+02 -9.72377E+02  1.87109E+03 -2.63010E+03  9.98089E+02 -4.53126E+03 -4.97242E+02
 -1.83486E+03 -4.48650E+03  6.47877E+02 -5.03040E+03  3.03769E+03 -4.59128E+03  3.97033E+03 -1.17794E+03
  4.50644E+03  2.54402E+03  2.18054E+03  3.91443E+03 -9.96834E+02  4.83082E+03 -3.10934E+03  2.83359E+03
 -4.07746E+03  5.56116E+02 -3.69923E+03 -2.68634E+03 -3.76966E+02 -3.50425E+03  1.88341E+03 -2.70530E+03
  3.31652E+03 -1.30658E+03  1.83001E+03  5.41369E+02  6.52505E+02  1.97631E+03  6.13559E+02  6.62298E+02
  1.69398E+03  4.66316E+02  1.28704E+03  1.11939E+03  1.21418E+03  2.26598E+03  1.62872E+03  2.06026E+03
 -1.12135E+03  3.46255E+03 -3.03860E+03  4.29790E+03 -3.74832E+03  1.25914E+03 -4.94890E+03 -6.21504E+02
 -1.92220E+03 -3.92615E+03  7.38908E+02 -5.00994E+03  2.31370E+03 -2.96567E+03  3.49351E+03 -1.03310E+03
  2.67610E+03  1.90884E+03  3.65630E+02  2.44300E+03 -7.95929E+02  1.48896E+03 -1.32212E+03 -2.49180E+02
 -4.54138E+02 -1.48970E+03  1.12536E+03 -1.65861E+03  1.65541E+03 -1.07479E+03  1.45248E+03  2.77021E+02
  9.16851E+02  5.60472E+02  7.52288E+02 -3.99414E+02 -3.52924E+02  7.55460E+02  1.63265E+03 -1.94595E+02
  1.73896E+02 -2.67738E+02  1.98973E+03  5.08914E+02  3.40968E+02  2.57296E+03 -7.24222E+02  3.06632E+03
 -1.83347E+03  1.11431E+03 -2.19680E+03  4.37428E+02 -2.12298E+03 -9.33584E+02 -3.83901E+02 -1.16246E+03
  6.63925E+02 -1.49729E+03  8.98886E+02 -7.01991E+02  6.93976E+02  1.42813E+03 -8.21935E+02  1.46859E+03
 -1.52314E+03  9.10429E+02 -1.43768E+03 -1.40787E+03 -9.54813E+02 -2.13645E+03 -8.53059E+01 -1.75387E+03
  2.55027E+01 -6.76482E+02  9.65637E+02  1.42834E+02  1.33921E+03 -5.66561E+01  2.98524E+02  1.34655E+03
 -4.08854E+02 -3.40223E+01 -1.00788E+03 -3.35859E+02  6.61807E+02 -8.91884E+02  1.72842E+03 -1.07651E+03
  1.44774E+03  1.37327E+02  2.75195E+03  9.28713E+02  1.04560E+03  1.58314E+03 -4.90162E+02  1.71620E+03
 -1.34779E+03  4.16607E+02 -1.63217E+03 -2.96605E+02 -9.25325E+02 -1.40487E+03  2.03412E+02 -7.90390E+02
  1.44330E+03 -7.25703E+02  8.76854E+02  8.20952E+02  1.70050E+01  1.39432E+03  1.70994E+02  1.15435E+03
 -3.49497E+02  1.13179E+03 -6.37072E+02  1.92338E+02  1.48514E+02  4.27299E+02 -8.70999E+02  6.38288E+02
 -7.76297E+02  9.76761E+02 -1.79536E+03  7.57712E+02 -1.83618E+03  2.92749E+02 -2.41631E+03 -1.06158E+03
 -1.03178E+03 -2.61317E+03  5.01837E+02 -3.24131E+03  1.15794E+03 -2.50040E+03  2.93564E+03 -1.24174E+03
  2.59206E+03 -1.74908E+02  1.40245E+03  1.72390E+03 -3.01072E+02  1.65498E+03 -5.90479E+02  1.25005E+03
 -1.07643E+03  7.31972E+02 -7.22787E+02 -5.33340E+02 -2.28913E+02  1.89368E+02 -5.38728E+02  6.47234E+01
 -9.54809E+02 -1.20340E+02 -6.19556E+02  8.02048E+01  7.93485E+01 -3.86186E+02 -2.33006E+02 -1.26297E+03
  1.43055E+03 -4.59111E+02  2.20403E+02  2.13292E+02  1.20139E+03  9.74539E+02 -3.00963E+02  1.56392E+03
 -9.82467E+02  2.24147E+03 -1.71312E+03  1.48364E+03 -1.79206E+03 -3.35210E+02 -1.15308E+03 -1.22415E+03
 -8.32870E+02 -1.54664E+03  4.85823E+02 -1.27698E+03  8.30487E+02 -5.50080E+02  5.54795E+02  2.01352E+02
  7.39325E+02  2.35227E+02  2.92548E+02  1.64318E+02 -4.18060E+02 -1.25253E+02 -1.19577E+02 -1.92874E+01
  6.89685E+02  1.49204E+02  1.00015E+02  4.57041E+02  7.89294E+01  4.67749E+02  3.30261E+02  6.14638E+02
 -7.71754E+02  7.78241E+02 -7.83325E+02 -1.22430E+02 -8.21305E+02 -4.81749E+02 -1.01135E+02 -1.29629E+03
  5.88296E+02 -8.53449E+02  5.62817E+02 -7.19481E+01  1.09533E+03 -7.81725E+02  6.72152E+02  8.55745E+02
  4.36369E+02  5.17569E+02 -2.03735E+02  4.45357E+02 -9.27651E+02  5.16528E+02 -4.56351E+02 -1.30093E+01
  2.07376E+02  4.07970E+01 -2.75989E+02  4.33036E+01 -8.76450E+02 -8.92214E+01 -8.60757E+02 -4.72049E+02
 -9.24622E+02  1.57216E+02 -4.96580E+02 -9.89209E+02  4.42798E+02 -1.59854E+03  9.95023E+02 -5.28734E+01
  6.74045E+02  5.59776E+01 -2.26908E+02  1.26427E+02 -2.49568E+01  8.39202E+02 -5.90972E+02  7.17821E+02
