 $NMID ID='MM_0lb_SNR800_9hz_g40_21.RAW', FMTDAT='(8E13.5)'
 TRAMP=1., VOLUME=1. $END
  3.09914E+05  4.61725E+02  3.38102E+05  2.51100E+05  8.50785E+04  3.38460E+05 -1.32702E+05  2.51344E+05
 -1.90453E+05  8.35358E+04 -1.11992E+05 -3.28001E+04  3.18302E+02 -5.05736E+04  5.40781E+04 -2.79975E+02
  3.53591E+04  5.29519E+04 -1.67101E+04  7.57578E+04 -6.13501E+04  6.39876E+04 -8.55151E+04  3.25157E+04
 -8.19280E+04 -1.16696E+04 -5.79189E+04 -5.22916E+04 -1.55140E+04 -7.08144E+04  2.79639E+04 -4.67226E+04
  4.04275E+04  3.60710E+03  1.68802E+04  4.82833E+04 -3.44083E+04  4.80818E+04 -6.78611E+04 -1.18388E+01
 -5.45069E+04 -5.73191E+04 -7.15378E+03 -7.85840E+04  3.46792E+04 -5.66022E+04  4.91085E+04 -1.77560E+04
  4.48775E+04  1.17715E+04  3.27984E+04  2.63419E+04  1.60831E+04  3.02704E+04 -6.01325E+03  2.77751E+04
 -2.25160E+04  1.20043E+04 -1.82939E+04 -5.59999E+03  6.68486E+03 -7.89759E+03  2.32216E+04  1.32747E+04
  7.09313E+03  3.73957E+04 -3.35209E+04  3.67117E+04 -6.53231E+04  2.16403E+03 -5.84269E+04 -4.39640E+04
 -1.26178E+04 -6.52631E+04  4.13180E+04 -4.71726E+04  6.05064E+04 -2.54806E+03  3.65477E+04  3.37564E+04
 -5.40454E+03  3.84866E+04 -3.16087E+04  1.80036E+04 -3.23679E+04 -3.44111E+03 -1.87818E+04 -1.18335E+04
 -8.96108E+03 -1.52765E+04 -6.05430E+02 -1.97997E+04  8.35906E+03 -2.33626E+04  1.57440E+04 -1.28982E+04
  1.05695E+04  6.44595E+03 -9.90430E+03  1.29511E+04 -2.28746E+04 -6.53018E+03 -8.54746E+03 -3.68708E+04
  2.43152E+04 -4.62045E+04  5.15687E+04 -2.06417E+04  4.75808E+04  2.03913E+04  1.69401E+04  4.66958E+04
 -1.64166E+04  3.58306E+04 -2.69280E+04  2.74766E+03 -1.10158E+04 -2.89963E+04  2.14171E+04 -3.63579E+04
  4.40857E+04 -1.06765E+04  3.92232E+04  2.47344E+04  2.09333E+04  5.01254E+04 -8.48657E+03  5.49074E+04
 -3.45189E+04  3.74143E+04 -4.66372E+04  1.05801E+04 -4.67385E+04 -1.81225E+04 -2.57274E+04 -4.11446E+04
  8.05465E+03 -4.13932E+04  3.40907E+04 -1.64307E+04  3.10510E+04  1.10505E+04  5.16331E+03  2.05151E+04
 -1.40051E+04  9.43726E+03 -1.07783E+04 -7.73795E+03  5.47234E+03 -1.15496E+04  1.83944E+04  5.52392E+03
  1.45122E+04  2.24879E+04 -5.25604E+03  2.70466E+04 -2.34038E+04  1.35497E+04 -3.09492E+04 -3.02097E+03
 -2.46067E+04 -1.83526E+04 -1.10733E+04 -2.44014E+04  4.06499E+03 -2.39454E+04  1.92876E+04 -2.20382E+04
  3.10534E+04 -1.38845E+04  3.71713E+04  4.63457E+03  2.63798E+04  2.33702E+04  4.90278E+03  4.07339E+04
 -1.96426E+04  3.32868E+04 -3.01766E+04  1.14098E+04 -2.23399E+04 -1.04306E+04 -5.07067E+03 -1.29249E+04
  5.25519E+02 -1.62835E+03 -7.12013E+03  8.20150E+03 -1.96534E+04  5.08160E+03 -1.92710E+04 -9.30458E+03
 -1.14348E+04 -2.26752E+04  5.97445E+03 -2.68743E+04  1.80139E+04 -1.94159E+04  2.13976E+04 -1.82883E+03
  1.41663E+04  1.57365E+04 -1.42955E+03  2.23720E+04 -1.59572E+04  1.29723E+04 -2.30016E+04 -4.57586E+03
 -1.69330E+04 -2.01389E+04 -2.18596E+03 -2.71762E+04  1.23175E+04 -2.27389E+04  2.24915E+04 -1.17022E+04
  2.11090E+04 -5.66292E+02  1.54455E+04  4.91396E+03  8.77553E+03  1.43655E+03  1.15530E+04 -1.90438E+03
  2.12153E+04  2.90722E+03  2.46572E+04  1.81082E+04  1.63937E+04  3.65867E+04 -2.73408E+03  4.24665E+04
 -2.44994E+04  3.51927E+04 -4.01027E+04  1.81528E+04 -4.31906E+04 -2.89914E+03 -3.50235E+04 -2.49716E+04
 -1.39511E+04 -3.53118E+04  1.21991E+04 -3.08568E+04  2.69369E+04 -1.45322E+04  2.32777E+04  7.55561E+03
  8.51441E+03  1.79335E+04 -1.14078E+04  1.50716E+04 -1.93504E+04  2.88664E+03 -1.48558E+04 -1.26797E+04
 -2.82292E+02 -1.89270E+04  1.01784E+04 -1.39207E+04  1.30289E+04 -9.66490E+02  2.69951E+03  8.88385E+03
 -8.27588E+03  3.81074E+03 -8.84681E+03 -6.57917E+03 -1.29877E+03 -1.70918E+04  1.15673E+04 -1.87564E+04
  2.17947E+04 -1.07985E+04  2.53664E+04  3.05292E+03  2.16665E+04  1.77021E+04  1.02935E+04  2.77038E+04
 -5.34962E+03  2.96207E+04 -1.94583E+04  1.82847E+04 -2.16658E+04  3.72925E+03 -1.43360E+04 -5.34988E+03
 -6.27075E+03 -6.90485E+03 -2.46860E+02  4.20502E+02 -2.77452E+03  3.02888E+03 -6.65748E+03  6.04005E+03
 -1.38271E+04 -1.29683E+03 -1.40866E+04 -1.14263E+04 -5.40756E+03 -1.87630E+04  6.34249E+03 -1.49562E+04
  1.22044E+04 -6.06791E+03  8.58884E+03  4.10395E+03  7.30358E+01  5.88378E+03 -6.98419E+03 -3.62619E+02
 -7.11891E+03 -9.73775E+03 -1.12814E+03 -1.51739E+04  8.73463E+03 -1.55396E+04  1.89418E+04 -8.75556E+03
  2.21886E+04  2.51533E+03  1.61332E+04  1.35278E+04  3.09977E+03  1.78517E+04 -9.40561E+03  1.47512E+04
 -1.20713E+04  4.03432E+03 -6.18537E+03 -3.13885E+03  2.29905E+03 -4.44118E+03  7.76658E+03 -9.51650E+02
  7.13160E+03  6.76512E+03  8.20882E+02  1.23288E+04 -8.76406E+03  1.15470E+04 -1.47323E+04  3.01492E+03
 -1.05155E+04 -7.52612E+03  1.65350E+02 -1.23274E+04  8.12424E+03 -6.65769E+03  8.72250E+03  3.34931E+03
  1.76805E+03  9.75778E+03 -7.98039E+03  1.09817E+04 -1.31003E+04  4.84406E+03 -1.32708E+04 -4.32395E+03
 -7.48193E+03 -1.50090E+04  3.69607E+03 -1.70034E+04  1.46267E+04 -1.01765E+04  1.58188E+04  2.87854E+03
  9.70262E+03  1.24755E+04 -1.16002E+03  1.51099E+04 -1.12289E+04  8.55727E+03 -1.23988E+04 -1.61699E+03
 -1.02486E+04 -9.88102E+03 -1.86159E+03 -1.18695E+04  6.47470E+03 -9.17638E+03  6.85323E+03 -3.47447E+03
  4.71458E+03  2.18320E+03 -1.04586E+03  1.73942E+03 -9.28413E+02 -3.14151E+03  2.29624E+03 -6.82225E+03
  1.09973E+04 -4.63972E+03  1.51154E+04  1.53616E+03  1.44186E+04  1.05454E+04  1.04242E+04  2.00192E+04
 -4.73164E+03  2.25523E+04 -1.91520E+04  1.70868E+04 -2.42655E+04  3.36443E+03 -2.01214E+04 -8.68948E+03
 -9.63956E+03 -1.60120E+04 -4.28724E+02 -1.36952E+04  4.86686E+03 -7.83489E+03  4.87162E+03 -5.01797E+03
  4.49609E+03 -3.24243E+03  3.84161E+03 -4.04863E+03  5.53457E+03 -3.21652E+03  7.71002E+03 -1.21686E+03
  1.02132E+04  2.07765E+03  5.26658E+03  8.90582E+03 -2.44036E+03  1.03515E+04 -1.09922E+04  8.17086E+03
 -1.38851E+04 -1.20274E+03 -9.00587E+03 -9.78573E+03 -1.23257E+03 -1.47752E+04  8.07086E+03 -1.50481E+04
  1.55026E+04 -8.48482E+03  1.86035E+04  2.21754E+03  1.26890E+04  1.32905E+04  2.22874E+03  1.68200E+04
 -6.90807E+03  1.35669E+04 -9.99756E+03  4.85596E+03 -6.72612E+03 -1.81402E+03 -2.54174E+03 -1.99691E+03
 -1.11475E+03 -2.51476E+02 -2.23837E+03  2.85840E+03 -5.82224E+03  2.54897E+03 -9.67997E+03 -1.15870E+03
 -6.73651E+03 -9.43421E+03  8.78994E+01 -1.39960E+04  8.67912E+03 -1.28514E+04  1.40912E+04 -3.95536E+03
  1.36608E+04  7.00623E+03  6.36840E+03  1.22645E+04 -2.01707E+03  1.40707E+04 -1.00531E+04  8.73504E+03
 -1.34889E+04  6.85914E+02 -1.03704E+04 -8.83470E+03 -9.38151E+02 -1.16889E+04  5.87336E+03 -8.46355E+03
  8.94111E+03 -2.72757E+03  6.42876E+03  2.68080E+03  1.94670E+03  3.98155E+03  9.33644E+02  1.76399E+03
  2.40720E+03  1.10735E+03  3.06706E+03  1.81521E+03  4.12878E+03  5.03275E+03  3.48337E+03  7.79469E+03
 -2.93322E+03  1.09713E+04 -9.92296E+03  1.06368E+04 -1.44639E+04  2.73539E+03 -1.46337E+04 -6.25341E+03
 -7.57524E+03 -1.41124E+04  2.48451E+03 -1.56844E+04  8.47240E+03 -9.70463E+03  1.17745E+04 -2.96673E+03
  9.10716E+03  5.23075E+03  2.09700E+03  8.14598E+03 -4.03429E+03  5.47093E+03 -6.07738E+03 -9.82812E+02
 -2.78579E+03 -6.05276E+03  3.59188E+03 -6.37317E+03  5.93953E+03 -3.24749E+03  6.01898E+03  1.25518E+03
  3.22093E+03  3.01187E+03  1.47207E+03  2.51718E+03 -9.39479E+02  2.42659E+03  1.77646E+03 -6.49535E+02
  2.95368E+03 -5.70752E+02  5.45547E+03  2.66147E+03  3.72236E+03  7.54150E+03 -8.52880E+02  1.01775E+04
 -6.80980E+03  6.59333E+03 -9.26297E+03  2.33603E+03 -8.09490E+03 -3.41189E+03 -3.20718E+03 -5.20977E+03
  1.13468E+03 -5.90799E+03  3.86175E+03 -2.34321E+03  3.07985E+03  2.82631E+03 -1.18683E+03  5.19597E+03
 -5.79468E+03  2.52997E+03 -6.79361E+03 -3.09411E+03 -4.11759E+03 -8.21350E+03  1.14884E+03 -8.10396E+03
  4.78363E+03 -4.76946E+03  5.65901E+03 -1.08926E+02  4.85128E+03  2.16962E+03  1.18055E+03  4.35627E+03
 -2.71084E+03  1.37970E+03 -3.49305E+03 -2.81227E+03  1.63163E+03 -6.16769E+03  7.09392E+03 -4.97400E+03
  9.36490E+03  1.41427E+02  8.60285E+03  6.00972E+03  2.63930E+03  9.53075E+03 -3.27693E+03  9.13222E+03
 -7.59161E+03  3.82443E+03 -8.17618E+03 -1.14382E+03 -3.92555E+03 -6.11603E+03  1.89506E+03 -6.02192E+03
  5.38610E+03 -2.97173E+03  4.91334E+03  2.55779E+03  1.09284E+03  4.91381E+03 -4.90164E+02  4.29226E+03
 -2.29107E+03  2.92074E+03 -2.37229E+03  7.57168E+02 -1.36162E+03  9.57881E+02 -1.31464E+03  2.00769E+03
 -2.58738E+03  3.48795E+03 -6.30619E+03  3.38886E+03 -9.44825E+03  1.00745E+02 -1.07111E+04 -6.32664E+03
 -5.67086E+03 -1.25474E+04  2.48638E+03 -1.45632E+04  9.11123E+03 -1.12016E+04  1.34718E+04 -4.41670E+03
  1.25375E+04  2.80621E+03  7.58061E+03  8.24957E+03  6.25091E+02  9.41279E+03 -4.20992E+03  7.06018E+03
 -5.47591E+03  2.73884E+03 -3.40000E+03 -1.09007E+03 -9.01493E+02 -1.13087E+03 -9.12893E+02 -1.98612E+02
 -1.96388E+03  3.77217E+02 -2.08421E+03 -3.09634E+02 -3.00354E+02 -2.42806E+03  3.52312E+02 -3.39288E+03
  4.24438E+03 -3.23719E+03  6.29872E+03  9.74502E+00  6.92610E+03  5.40984E+03  1.92106E+03  9.58038E+03
 -4.89651E+03  1.14192E+04 -1.07980E+04  6.40538E+03 -1.19790E+04 -1.22874E+03 -8.98861E+03 -7.73799E+03
 -4.32329E+03 -1.00054E+04  2.37863E+03 -9.38703E+03  6.20824E+03 -5.10506E+03  6.23393E+03  3.50251E+02
  3.35674E+03  3.33329E+03 -5.42355E+02  2.76166E+03 -2.05459E+03 -1.64117E+02  5.12268E+02 -2.32683E+03
  2.94925E+03 -1.52915E+03  3.51937E+03  1.55489E+03  2.45293E+03  3.83451E+03 -2.87123E+02  5.21246E+03
 -4.03019E+03  4.72395E+03 -6.19853E+03  7.71052E+02 -6.10113E+03 -4.12334E+03 -1.08017E+03 -8.34412E+03
  4.47231E+03 -6.61770E+03  7.62774E+03 -2.06655E+03  7.48446E+03  1.88463E+03  4.49220E+03  5.69315E+03
  9.72646E+02  7.15383E+03 -3.12749E+03  5.09880E+03 -4.30472E+03  2.93723E+03 -3.30620E+03  3.02227E+02
 -1.55652E+03 -1.45934E+02 -1.96655E+03  4.46311E+02 -3.72180E+03  1.28752E+03 -5.30578E+03 -5.35609E+02
 -4.69259E+03 -3.44721E+03 -1.53984E+03 -6.85385E+03  3.01510E+03 -7.18106E+03  5.73723E+03 -3.22878E+03
  6.72856E+03  6.51101E+02  4.03442E+03  4.50060E+03 -4.97852E+02  6.74979E+03 -4.55747E+03  4.54249E+03
