 $NMID ID='MM_0lb_SNR800_8hz_g50_10.RAW', FMTDAT='(8E13.5)'
 TRAMP=1., VOLUME=1. $END
  3.09511E+05  1.95228E+02  3.37813E+05  2.50879E+05  8.49132E+04  3.38466E+05 -1.32568E+05  2.52215E+05
 -1.90858E+05  8.39458E+04 -1.12702E+05 -3.25351E+04  1.02995E+02 -5.10335E+04  5.32689E+04 -3.24996E+02
  3.56123E+04  5.30375E+04 -1.67028E+04  7.61897E+04 -6.11780E+04  6.45495E+04 -8.60325E+04  3.24920E+04
 -8.26689E+04 -1.21045E+04 -5.84714E+04 -5.28626E+04 -1.47922E+04 -7.10973E+04  2.83371E+04 -4.70605E+04
  4.10704E+04  3.80472E+03  1.69115E+04  4.88174E+04 -3.49593E+04  4.83500E+04 -6.83608E+04  3.57435E+02
 -5.51368E+04 -5.79320E+04 -7.51392E+03 -7.93449E+04  3.47223E+04 -5.73624E+04  5.00662E+04 -1.82377E+04
  4.58346E+04  1.09930E+04  3.33095E+04  2.66616E+04  1.58491E+04  3.06671E+04 -5.78647E+03  2.76931E+04
 -2.23868E+04  1.19403E+04 -1.78325E+04 -5.53182E+03  7.43302E+03 -7.77725E+03  2.39467E+04  1.40810E+04
  7.14459E+03  3.80038E+04 -3.37870E+04  3.74471E+04 -6.63130E+04  2.02995E+03 -5.92093E+04 -4.47221E+04
 -1.22313E+04 -6.60484E+04  4.15903E+04 -4.78437E+04  6.16868E+04 -1.98717E+03  3.70752E+04  3.47368E+04
 -5.28690E+03  4.00319E+04 -3.22719E+04  1.94786E+04 -3.42004E+04 -3.28711E+03 -1.95605E+04 -1.22842E+04
 -9.56331E+03 -1.52110E+04 -5.67740E+01 -1.98704E+04  8.56394E+03 -2.35809E+04  1.55853E+04 -1.24029E+04
  1.03005E+04  6.38383E+03 -1.09317E+04  1.26848E+04 -2.41472E+04 -7.06940E+03 -8.23291E+03 -3.80065E+04
  2.52285E+04 -4.77889E+04  5.30014E+04 -2.11357E+04  4.92211E+04  2.12571E+04  1.77451E+04  4.83197E+04
 -1.69774E+04  3.63157E+04 -2.79876E+04  2.78764E+03 -1.25357E+04 -2.98274E+04  2.13618E+04 -3.75008E+04
  4.51036E+04 -1.11341E+04  4.12654E+04  2.50152E+04  2.21683E+04  5.19910E+04 -8.33335E+03  5.73089E+04
 -3.62147E+04  3.91463E+04 -4.86714E+04  1.15944E+04 -4.82235E+04 -1.90378E+04 -2.62102E+04 -4.29539E+04
  7.72765E+03 -4.27402E+04  3.50508E+04 -1.71784E+04  3.28327E+04  1.08805E+04  5.40388E+03  2.13282E+04
 -1.42628E+04  1.00222E+04 -1.13094E+04 -7.95803E+03  5.53588E+03 -1.11677E+04  1.90312E+04  5.77030E+03
  1.46130E+04  2.27885E+04 -5.20773E+03  2.75288E+04 -2.36527E+04  1.48668E+04 -3.18735E+04 -2.84581E+03
 -2.61476E+04 -1.90293E+04 -1.22041E+04 -2.60993E+04  4.31470E+03 -2.65650E+04  2.05083E+04 -2.38331E+04
  3.35797E+04 -1.44096E+04  3.89132E+04  5.63864E+03  2.76994E+04  2.52550E+04  4.67908E+03  4.26702E+04
 -2.00149E+04  3.45107E+04 -3.09680E+04  1.24389E+04 -2.29574E+04 -1.01303E+04 -5.19502E+03 -1.30657E+04
  6.10038E+02 -8.15303E+02 -8.34694E+03  8.51360E+03 -2.10102E+04  5.06073E+03 -2.10109E+04 -9.75587E+03
 -1.22991E+04 -2.40816E+04  6.38679E+03 -2.88605E+04  1.91886E+04 -2.00721E+04  2.37272E+04 -1.93488E+03
  1.49660E+04  1.68218E+04 -1.60820E+03  2.47890E+04 -1.75126E+04  1.40633E+04 -2.44593E+04 -5.12180E+03
 -1.80033E+04 -2.17901E+04 -1.85899E+03 -2.88811E+04  1.31937E+04 -2.43476E+04  2.43586E+04 -1.25426E+04
  2.33268E+04 -2.06480E+02  1.62030E+04  5.09999E+03  9.28721E+03  1.44649E+03  1.27450E+04 -1.73065E+03
  2.33949E+04  2.66954E+03  2.62325E+04  1.89848E+04  1.83909E+04  3.98111E+04 -2.61078E+03  4.65150E+04
 -2.65227E+04  3.89303E+04 -4.33293E+04  2.02684E+04 -4.69866E+04 -3.80131E+03 -3.83071E+04 -2.78697E+04
 -1.48678E+04 -3.90477E+04  1.38826E+04 -3.42739E+04  2.95742E+04 -1.57597E+04  2.50316E+04  8.89614E+03
  8.51750E+03  1.96909E+04 -1.19337E+04  1.63690E+04 -2.09593E+04  2.03624E+03 -1.58077E+04 -1.32073E+04
 -3.22306E+02 -2.00642E+04  1.07194E+04 -1.51633E+04  1.36932E+04 -1.54625E+03  3.61775E+03  9.36332E+03
 -9.13019E+03  4.45508E+03 -9.73001E+03 -7.42458E+03 -2.36563E+03 -1.93869E+04  1.24641E+04 -2.11336E+04
  2.42524E+04 -1.18024E+04  2.81104E+04  3.45555E+03  2.47486E+04  1.95038E+04  1.12974E+04  3.09912E+04
 -6.21010E+03  3.32125E+04 -2.19601E+04  2.02843E+04 -2.45280E+04  4.66955E+03 -1.67782E+04 -6.34274E+03
 -6.83770E+03 -8.02161E+03 -5.64583E+02  2.40312E+02 -3.37733E+03  3.67615E+03 -7.75274E+03  5.29742E+03
 -1.52188E+04 -1.09356E+03 -1.58551E+04 -1.25238E+04 -6.47331E+03 -2.01465E+04  7.02438E+03 -1.68746E+04
  1.38302E+04 -6.55023E+03  9.40742E+03  4.29967E+03 -5.09610E+02  6.83807E+03 -8.78850E+03 -1.01878E+02
 -8.44113E+03 -1.08409E+04 -8.65136E+02 -1.69423E+04  9.68010E+03 -1.76818E+04  2.14896E+04 -9.50490E+03
  2.55020E+04  2.94781E+03  1.83169E+04  1.53004E+04  3.59568E+03  2.08171E+04 -1.00408E+04  1.69300E+04
 -1.37251E+04  4.56292E+03 -6.91008E+03 -3.62552E+03  2.24627E+03 -4.60648E+03  8.76006E+03 -9.18442E+02
  7.80841E+03  7.72107E+03  1.54609E+03  1.40046E+04 -9.81619E+03  1.28966E+04 -1.68296E+04  3.14350E+03
 -1.17762E+04 -8.85089E+03 -6.35769E+01 -1.48855E+04  9.21119E+03 -7.43425E+03  1.04645E+04  3.33414E+03
  2.85897E+03  1.06871E+04 -8.88518E+03  1.28312E+04 -1.50576E+04  5.37526E+03 -1.54128E+04 -5.69337E+03
 -8.58219E+03 -1.69951E+04  4.60563E+03 -2.01799E+04  1.67743E+04 -1.18778E+04  1.84965E+04  3.35835E+03
  1.09043E+04  1.45266E+04 -1.55381E+03  1.70968E+04 -1.32921E+04  9.48314E+03 -1.45536E+04 -1.61114E+03
 -1.15289E+04 -1.16205E+04 -1.92474E+03 -1.31849E+04  7.58876E+03 -1.02158E+04  8.51127E+03 -3.68522E+03
  5.14555E+03  2.23506E+03 -1.64876E+03  2.13870E+03 -7.94780E+02 -4.25966E+03  3.06201E+03 -7.97237E+03
  1.29710E+04 -5.49567E+03  1.81259E+04  1.92717E+03  1.72339E+04  1.18833E+04  1.10120E+04  2.33665E+04
 -5.30347E+03  2.63368E+04 -2.17669E+04  1.96452E+04 -2.82523E+04  4.21757E+03 -2.33817E+04 -9.51665E+03
 -1.13512E+04 -1.85612E+04 -3.87358E+02 -1.64017E+04  5.52761E+03 -8.78675E+03  6.02533E+03 -5.61439E+03
  4.10227E+03 -3.74064E+03  4.18952E+03 -3.90095E+03  5.83535E+03 -3.75337E+03  8.69941E+03 -1.74542E+03
  1.18146E+04  2.67069E+03  6.68943E+03  1.05642E+04 -2.60389E+03  1.25684E+04 -1.23335E+04  9.50550E+03
 -1.66477E+04 -1.38797E+03 -1.06096E+04 -1.16311E+04 -1.98059E+03 -1.79364E+04  9.76997E+03 -1.77193E+04
  1.83606E+04 -9.71377E+03  2.14131E+04  3.08204E+03  1.51045E+04  1.55105E+04  2.47715E+03  2.05044E+04
 -8.22838E+03  1.60310E+04 -1.18188E+04  5.48195E+03 -8.24366E+03 -1.61106E+03 -3.95448E+03 -1.84191E+03
 -1.63965E+03  1.11877E+02 -2.64988E+03  2.98141E+03 -7.00310E+03  2.70672E+03 -1.16728E+04 -1.30948E+03
 -7.61144E+03 -1.11457E+04  2.28589E+01 -1.63617E+04  9.91519E+03 -1.53170E+04  1.67255E+04 -5.20221E+03
  1.66989E+04  8.04270E+03  7.67705E+03  1.48774E+04 -3.86493E+03  1.65391E+04 -1.18891E+04  1.02539E+04
 -1.59876E+04  1.29465E+02 -1.20501E+04 -9.65432E+03 -1.53434E+03 -1.40710E+04  6.89161E+03 -9.82571E+03
  1.03179E+04 -3.20065E+03  7.24170E+03  3.33897E+03  2.33859E+03  5.23321E+03  1.35195E+03  2.45801E+03
  2.85266E+03  1.75022E+03  4.19438E+03  2.34866E+03  5.03455E+03  5.68681E+03  4.08669E+03  8.88078E+03
 -3.06890E+03  1.34024E+04 -1.16310E+04  1.32792E+04 -1.80097E+04  2.71561E+03 -1.75095E+04 -7.46599E+03
 -8.40016E+03 -1.71856E+04  2.33327E+03 -1.85870E+04  1.01910E+04 -1.20535E+04  1.41496E+04 -3.17970E+03
  1.10527E+04  5.87127E+03  2.40458E+03  9.93321E+03 -4.81226E+03  6.25211E+03 -6.77428E+03 -1.35948E+03
 -2.85412E+03 -7.47996E+03  4.28744E+03 -7.32705E+03  7.03478E+03 -3.44530E+03  7.20182E+03  1.78228E+03
  3.96340E+03  3.57505E+03  1.28694E+03  3.27626E+03 -1.32665E+03  2.36414E+03  1.52739E+03 -6.06332E+02
  2.92218E+03 -6.32736E+02  7.03916E+03  2.55257E+03  4.15843E+03  8.89937E+03 -1.57133E+03  1.23610E+04
 -8.28735E+03  7.93365E+03 -1.10145E+04  2.30137E+03 -9.56253E+03 -4.02188E+03 -4.01533E+03 -7.15964E+03
  1.00631E+03 -6.93526E+03  4.74651E+03 -3.34931E+03  3.87954E+03  3.28112E+03 -1.75691E+03  5.42420E+03
 -7.04800E+03  3.50090E+03 -8.87063E+03 -3.68595E+03 -4.58572E+03 -9.67640E+03  1.38574E+03 -1.00096E+04
  5.84066E+03 -5.93129E+03  7.03807E+03 -7.27123E+02  5.92670E+03  2.35526E+03  1.03784E+03  5.10531E+03
 -3.49777E+03  1.55999E+03 -4.43643E+03 -3.42925E+03  1.57106E+03 -7.57124E+03  9.38622E+03 -6.05029E+03
  1.06395E+04  1.26485E+03  1.07501E+04  8.12135E+03  3.70923E+03  1.18090E+04 -4.20388E+03  1.13078E+04
 -9.64331E+03  4.74449E+03 -1.01546E+04 -1.52660E+03 -5.27719E+03 -7.51458E+03  2.04155E+03 -7.50126E+03
  6.88796E+03 -3.30734E+03  5.97955E+03  3.24756E+03  2.11184E+03  6.52792E+03 -1.05032E+03  5.49686E+03
 -3.30404E+03  3.57383E+03 -3.04247E+03  8.23579E+02 -1.45694E+03  1.33998E+03 -1.44804E+03  2.00787E+03
 -2.76530E+03  4.39633E+03 -7.42343E+03  3.74434E+03 -1.15790E+04  3.09411E+02 -1.30812E+04 -8.10714E+03
 -7.01823E+03 -1.60533E+04  3.39859E+03 -1.79186E+04  1.12383E+04 -1.38214E+04  1.69104E+04 -5.39246E+03
  1.64283E+04  3.79212E+03  9.57386E+03  1.09775E+04  1.26949E+03  1.20492E+04 -4.99341E+03  9.13621E+03
 -7.29752E+03  3.17137E+03 -4.82070E+03 -1.47188E+03 -1.24300E+03 -9.60706E+02 -6.20307E+02 -2.03806E+02
 -2.37545E+03  2.62024E+02 -2.24845E+03 -5.07200E+02 -1.07592E+03 -2.97957E+03  4.57677E+02 -4.43744E+03
  5.62063E+03 -3.57279E+03  7.45698E+03 -3.83472E+01  8.54775E+03  6.70912E+03  2.58669E+03  1.25910E+04
 -5.73151E+03  1.41869E+04 -1.32362E+04  8.49925E+03 -1.49629E+04 -9.71630E+02 -1.14222E+04 -9.63190E+03
 -4.86153E+03 -1.32734E+04  3.47780E+03 -1.20372E+04  8.46156E+03 -6.55788E+03  8.46844E+03 -1.00286E+02
  4.50470E+03  4.00156E+03  5.06501E+01  3.51237E+03 -2.08764E+03  1.25194E+02  2.67455E+02 -2.78500E+03
  4.11986E+03 -1.91662E+03  5.36471E+03  1.76737E+03  3.62025E+03  5.18847E+03 -8.65437E+00  6.66542E+03
 -5.80128E+03  5.50591E+03 -8.42741E+03  6.48454E+02 -7.53845E+03 -6.24844E+03 -1.38641E+03 -1.08059E+04
  6.16352E+03 -9.31001E+03  9.85712E+03 -2.83321E+03  9.61467E+03  2.69955E+03  5.81498E+03  7.87126E+03
  1.18669E+03  8.48993E+03 -3.45795E+03  6.64645E+03 -5.42351E+03  3.61273E+03 -4.37789E+03  2.97761E+02
 -2.56332E+03  4.91434E+01 -2.86803E+03  1.04001E+03 -4.33343E+03  1.34752E+03 -6.64686E+03 -1.14015E+03
 -6.80002E+03 -4.74663E+03 -2.36510E+03 -8.66231E+03  3.70889E+03 -8.71835E+03  7.59292E+03 -4.36491E+03
  8.71198E+03  1.23250E+03  4.70377E+03  6.07930E+03 -5.57057E+02  8.52686E+03 -6.67159E+03  5.42612E+03
