 $NMID ID='MM_0lb_SNR800_17hz_g40_90.RAW', FMTDAT='(8E13.5)'
 TRAMP=1., VOLUME=1. $END
  3.10143E+05  3.98879E+02  3.37320E+05  2.50565E+05  8.45073E+04  3.37473E+05 -1.32345E+05  2.50257E+05
 -1.89822E+05  8.23217E+04 -1.11054E+05 -3.29930E+04  1.57064E+03 -5.00792E+04  5.37327E+04 -2.26627E+02
  3.50831E+04  5.29573E+04 -1.70651E+04  7.50513E+04 -6.05444E+04  6.27242E+04 -8.30856E+04  3.14644E+04
 -7.96690E+04 -1.12767E+04 -5.62307E+04 -5.04021E+04 -1.49395E+04 -6.87517E+04  2.69230E+04 -4.48682E+04
  3.93124E+04  3.98400E+03  1.54875E+04  4.71192E+04 -3.38720E+04  4.60239E+04 -6.52077E+04 -7.33177E+02
 -5.18756E+04 -5.59129E+04 -6.13200E+03 -7.54054E+04  3.29789E+04 -5.33183E+04  4.62904E+04 -1.61344E+04
  4.17166E+04  1.12534E+04  3.10425E+04  2.43623E+04  1.59026E+04  2.82696E+04 -4.56796E+03  2.71135E+04
 -2.17021E+04  1.27384E+04 -1.94592E+04 -4.54279E+03  4.56308E+03 -7.64365E+03  2.13953E+04  1.10393E+04
  7.56610E+03  3.34873E+04 -3.07950E+04  3.43457E+04 -6.11198E+04  2.27550E+03 -5.55865E+04 -4.13945E+04
 -1.24239E+04 -6.10241E+04  3.83922E+04 -4.38027E+04  5.56591E+04 -2.08570E+03  3.20985E+04  3.08498E+04
 -6.70804E+03  3.32878E+04 -2.83835E+04  1.37595E+04 -2.79393E+04 -5.40715E+03 -1.44197E+04 -1.00392E+04
 -7.58867E+03 -1.17078E+04 -9.06596E+02 -1.67556E+04  6.57158E+03 -2.26219E+04  1.50022E+04 -1.38065E+04
  1.23014E+04  4.28186E+03 -6.63742E+03  1.33471E+04 -1.96428E+04 -2.54444E+03 -8.13960E+03 -3.07368E+04
  2.10190E+04 -4.08618E+04  4.50567E+04 -1.86094E+04  4.22563E+04  1.84553E+04  1.43430E+04  4.18682E+04
 -1.54173E+04  3.14749E+04 -2.35299E+04  1.03559E+03 -8.18738E+03 -2.65613E+04  2.04290E+04 -3.14447E+04
  3.82257E+04 -7.57518E+03  3.18367E+04  2.28228E+04  1.56531E+04  4.31309E+04 -8.00749E+03  4.58298E+04
 -2.85491E+04  3.04777E+04 -3.77765E+04  8.63076E+03 -3.86188E+04 -1.57584E+04 -2.13581E+04 -3.52450E+04
  6.78854E+03 -3.46552E+04  2.92878E+04 -1.29040E+04  2.67991E+04  1.07628E+04  2.89233E+03  1.79465E+04
 -1.31595E+04  7.51131E+03 -9.84493E+03 -7.72742E+03  5.93642E+03 -9.99211E+03  1.72686E+04  6.35858E+03
  1.25829E+04  2.18498E+04 -6.41271E+03  2.35503E+04 -2.15680E+04  9.36907E+03 -2.55741E+04 -6.28638E+03
 -1.70616E+04 -1.62972E+04 -6.15510E+03 -1.71985E+04  3.60019E+03 -1.52973E+04  1.28442E+04 -1.49106E+04
  2.18600E+04 -1.17513E+04  2.86473E+04  1.02749E+03  2.17614E+04  1.71170E+04  4.08351E+03  3.30345E+04
 -1.65737E+04  2.78207E+04 -2.64349E+04  9.80618E+03 -1.96709E+04 -1.04647E+04 -4.12608E+03 -1.37786E+04
  2.38308E+03 -3.80995E+03 -3.03174E+03  5.56522E+03 -1.33806E+04  5.11978E+03 -1.39964E+04 -4.95657E+03
 -8.90610E+03 -1.60015E+04  4.67796E+03 -1.97083E+04  1.28027E+04 -1.45152E+04  1.50751E+04 -1.69175E+03
  9.15837E+03  1.10653E+04 -9.83956E+02  1.60310E+04 -1.10506E+04  8.86664E+03 -1.60315E+04 -3.58625E+03
 -1.18014E+04 -1.46660E+04 -1.57121E+03 -1.92851E+04  8.89028E+03 -1.58113E+04  1.64404E+04 -7.81151E+03
  1.51004E+04  6.00584E+02  1.06818E+04  3.92710E+03  5.17279E+03  3.93150E+02  7.80195E+03 -1.24941E+03
  1.45381E+04  2.89737E+03  1.51707E+04  1.29289E+04  9.73416E+03  2.54212E+04 -3.02058E+03  2.77540E+04
 -1.65578E+04  2.14316E+04 -2.54554E+04  1.03404E+04 -2.60792E+04 -2.01321E+03 -2.23824E+04 -1.49517E+04
 -1.03120E+04 -2.16370E+04  7.20678E+03 -1.95899E+04  1.73187E+04 -1.11244E+04  1.62838E+04  3.94483E+03
  6.42058E+03  1.15131E+04 -7.42370E+03  1.08452E+04 -1.38104E+04  2.60228E+03 -1.04958E+04 -8.22148E+03
 -1.68884E+02 -1.30653E+04  6.28840E+03 -9.66971E+03  8.29695E+03 -1.21520E+03  1.48866E+03  5.22955E+03
 -5.80425E+03  1.77113E+03 -3.77948E+03 -4.93610E+03  7.62923E+02 -1.10102E+04  8.05632E+03 -1.07015E+04
  1.28684E+04 -5.10847E+03  1.29504E+04  2.80120E+03  1.13252E+04  1.00153E+04  4.84757E+03  1.51024E+04
 -1.92674E+03  1.71736E+04 -1.02777E+04  1.09900E+04 -1.17962E+04  2.98537E+03 -9.14253E+03 -2.13936E+03
 -4.60393E+03 -3.54229E+03 -7.37615E+02  1.55832E+03 -1.97256E+03  1.87646E+03 -4.06432E+03  3.37211E+03
 -8.59959E+03 -6.68319E+02 -9.09250E+03 -7.48225E+03 -3.58530E+03 -1.19030E+04  3.49048E+03 -9.33480E+03
  7.79501E+03 -4.13476E+03  5.29794E+03  2.11062E+03  7.28528E+02  3.35701E+03 -3.81211E+03 -1.07936E+02
 -3.82668E+03 -5.65879E+03 -6.33754E+02 -8.03936E+03  4.30730E+03 -8.67763E+03  1.04182E+04 -4.38950E+03
  1.26831E+04  7.43379E+02  9.49049E+03  6.43359E+03  1.79836E+03  9.20489E+03 -5.75813E+03  8.79399E+03
 -7.31736E+03  3.05602E+03 -3.58331E+03 -1.37238E+03  1.14262E+03 -2.05059E+03  5.28907E+03 -1.21086E+03
  4.24667E+03  3.49398E+03  1.23650E+03  6.82780E+03 -4.68147E+03  6.75620E+03 -8.72764E+03  1.82572E+03
 -5.15143E+03 -3.91492E+03  4.90541E+02 -7.22481E+03  4.30096E+03 -3.33279E+03  3.83724E+03  1.12623E+03
  6.45164E+02  3.86583E+03 -4.29001E+03  5.06808E+03 -5.84204E+03  2.72855E+03 -5.01198E+03 -1.54030E+03
 -3.38430E+03 -6.73248E+03  1.05263E+03 -8.02833E+03  6.42228E+03 -5.21894E+03  7.01758E+03  1.26085E+03
  5.06458E+03  5.76204E+03  2.23198E+02  7.64463E+03 -5.74289E+03  4.48175E+03 -6.15776E+03 -3.71137E+02
 -6.16205E+03 -5.56303E+03 -1.20734E+03 -5.50176E+03  2.84710E+03 -5.08371E+03  3.07680E+03 -3.01441E+03
  2.84795E+03  5.76761E+02 -5.22494E+01  1.40503E+03  4.00833E+02 -6.47967E+02  4.19647E+02 -2.41855E+03
  4.41530E+03 -8.31709E+02  6.11764E+03  1.02145E+03  6.24456E+03  3.57555E+03  5.57366E+03  8.30770E+03
 -1.56620E+03  9.52014E+03 -8.41068E+03  7.40713E+03 -1.07735E+04  1.29032E+03 -8.43800E+03 -3.32742E+03
 -4.64137E+03 -7.27474E+03 -5.03240E+02 -5.64619E+03  2.21760E+03 -2.62370E+03  1.94281E+03 -2.28481E+03
  1.69731E+03 -1.53175E+03  2.50302E+03 -2.39439E+03  3.91830E+03 -1.35322E+03  3.85841E+03  8.78126E+01
  4.94470E+03  1.54820E+03  1.34384E+03  3.67181E+03 -1.32533E+03  3.56197E+03 -4.90233E+03  2.76956E+03
 -5.56228E+03 -7.84564E+02 -2.51562E+03 -3.90798E+03  5.16551E+02 -5.85698E+03  3.66109E+03 -6.07103E+03
  5.89875E+03 -3.64102E+03  7.66307E+03  2.86057E+02  5.71099E+03  4.60219E+03  1.41406E+03  6.63493E+03
 -2.51760E+03  6.40238E+03 -3.91864E+03  2.36046E+03 -2.31967E+03 -1.19501E+03 -3.20338E+02 -4.29107E+02
 -7.56585E+02  3.36470E+02 -1.08014E+03  2.11228E+03 -2.76417E+03  1.31372E+03 -4.49109E+03 -4.95711E+02
 -1.94959E+03 -4.61099E+03  9.19732E+02 -4.99727E+03  3.15781E+03 -5.26483E+03  4.28614E+03 -1.39275E+03
  4.71989E+03  2.91789E+03  2.12561E+03  3.99993E+03 -9.69771E+02  5.21259E+03 -3.31299E+03  3.21552E+03
 -4.54949E+03  4.86528E+02 -3.93605E+03 -2.99762E+03 -4.66393E+02 -4.01012E+03  1.97175E+03 -3.08991E+03
  3.35046E+03 -1.41199E+03  2.12616E+03  5.29211E+02  5.95570E+02  1.81542E+03  7.50092E+02  4.39071E+02
  1.72515E+03  5.15517E+02  1.48790E+03  1.28234E+03  8.68604E+02  2.48194E+03  1.64179E+03  2.06333E+03
 -1.44804E+03  3.58950E+03 -3.10209E+03  4.72277E+03 -3.78569E+03  1.55393E+03 -4.68181E+03 -8.30648E+02
 -2.23642E+03 -4.49555E+03  8.52081E+02 -5.75505E+03  2.43027E+03 -3.25199E+03  3.61406E+03 -1.03511E+03
  3.02698E+03  1.78665E+03  5.95170E+02  2.83727E+03 -7.48508E+02  1.65561E+03 -1.14380E+03 -2.15066E+02
 -6.23424E+02 -2.27112E+03  1.54766E+03 -1.91477E+03  1.82334E+03 -1.53156E+03  1.51012E+03  3.39666E+02
  9.87944E+02  5.62539E+02  7.80525E+02 -3.92263E+02 -5.35478E+02  5.97242E+02  1.56107E+03 -2.21824E+02
  3.35697E+02 -7.90943E+01  2.37217E+03  7.65839E+02  3.69472E+02  2.86313E+03 -3.89624E+02  3.48769E+03
 -1.95876E+03  1.61033E+03 -2.73010E+03  3.88611E+02 -2.47923E+03 -9.86280E+02 -4.34216E+02 -1.30538E+03
  5.81437E+02 -1.79501E+03  8.80210E+02 -6.08677E+02  5.91889E+02  1.60708E+03 -6.59876E+02  1.23583E+03
 -2.00587E+03  8.09502E+02 -1.70806E+03 -1.54216E+03 -8.95963E+02 -2.66712E+03  3.33155E+02 -2.29378E+03
  7.64485E+02 -7.05382E+02  1.05545E+03  3.00061E+02  1.62975E+03  2.57544E+02  2.54691E+02  1.32245E+03
 -3.25516E+02  1.22202E+02 -1.12573E+03 -5.95016E+02  5.54821E+02 -1.36878E+03  1.89802E+03 -1.07001E+03
  1.92465E+03  1.20155E+02  3.33326E+03  9.68640E+02  1.15806E+03  2.22278E+03 -4.12173E+02  2.45196E+03
 -1.94749E+03  5.08439E+02 -2.10728E+03 -4.76836E+02 -1.08218E+03 -1.73750E+03  4.86305E+02 -7.41683E+02
  1.96505E+03 -1.02669E+03  9.72872E+02  7.02755E+02  4.22724E+02  1.55170E+03  3.26846E+02  1.43660E+03
 -4.63679E+02  1.24841E+03 -6.43663E+02  6.17662E+01 -2.38204E+02  5.76335E+02 -6.75059E+02  4.31888E+02
 -7.71439E+02  1.16324E+03 -2.07979E+03  8.90597E+02 -2.21127E+03  1.80286E+02 -2.81228E+03 -1.19197E+03
 -1.38063E+03 -3.06259E+03  6.28091E+02 -3.54920E+03  1.65184E+03 -3.11198E+03  3.56272E+03 -1.25522E+03
  3.36653E+03 -2.24940E+01  1.82146E+03  1.92781E+03 -7.75495E+02  1.85345E+03 -1.06421E+03  1.82627E+03
 -1.17964E+03  9.23035E+02 -9.44103E+02 -3.61075E+02 -6.15394E+02  3.75689E+02 -3.60783E+02  1.41249E+02
 -1.33472E+03 -1.49663E+02 -1.06225E+03 -5.11340E+01  4.36129E+02 -6.72941E+02 -3.41650E+02 -1.01613E+03
  1.34949E+03 -7.00763E+02  8.15862E+02  7.19693E+01  1.53222E+03  1.09489E+03 -1.34934E+02  1.71613E+03
 -1.37943E+03  2.83712E+03 -2.23289E+03  1.81342E+03 -2.31945E+03 -1.15989E+02 -1.72092E+03 -1.55957E+03
 -1.29316E+03 -1.96613E+03  4.32678E+02 -1.57567E+03  1.06561E+03 -9.13310E+02  1.09372E+03 -4.77213E+01
  6.68019E+02  5.41063E+02 -1.27453E+02  9.26472E+02 -3.79209E+02  1.84546E+02 -2.20805E+02 -2.52628E+02
  6.98082E+02 -1.18978E+02  6.01120E+02  5.14979E+02  3.58668E+02  8.46895E+02  5.31821E+02  7.86332E+02
 -1.15130E+03  9.54915E+02 -8.71388E+02  5.54333E+01 -1.04891E+03 -5.78991E+02 -8.20677E+01 -1.98810E+03
  7.46917E+02 -9.40272E+02  9.13314E+02  9.14210E+01  1.38364E+03 -4.09274E+02  5.86301E+02  1.14542E+03
  4.32114E+02  9.11167E+02 -2.74377E+02  9.67782E+02 -7.49196E+02  5.89319E+02 -6.13977E+02  1.85085E+02
 -2.99369E+02 -7.43548E+01 -5.76971E+02  1.05065E+02 -9.33770E+02  2.44759E+02 -1.11974E+03 -4.28243E+00
 -1.38661E+03 -1.31739E+02 -4.27958E+02 -1.22179E+03  7.56320E+02 -1.70744E+03  1.29891E+03 -5.34495E+02
  9.19177E+02 -1.35558E+02  1.25284E+02  6.02989E+02  3.79079E+02  1.12151E+03 -6.86583E+02  9.29343E+02
