 $NMID ID='MM_0lb_SNR800_9hz_g40_45.RAW', FMTDAT='(8E13.5)'
 TRAMP=1., VOLUME=1. $END
  3.09298E+05  2.21590E+02  3.37663E+05  2.50620E+05  8.46396E+04  3.38314E+05 -1.32732E+05  2.51671E+05
 -1.90569E+05  8.37673E+04 -1.12118E+05 -3.22544E+04  2.23774E+02 -5.06011E+04  5.35629E+04 -7.23560E+02
  3.53196E+04  5.28925E+04 -1.63549E+04  7.56916E+04 -6.12986E+04  6.42883E+04 -8.49076E+04  3.25874E+04
 -8.20058E+04 -1.15315E+04 -5.78410E+04 -5.20775E+04 -1.48165E+04 -7.06421E+04  2.76241E+04 -4.63655E+04
  4.08212E+04  3.32873E+03  1.67805E+04  4.83690E+04 -3.51985E+04  4.79824E+04 -6.80196E+04  8.96324E+01
 -5.41300E+04 -5.77523E+04 -6.80450E+03 -7.85111E+04  3.46781E+04 -5.67113E+04  4.98030E+04 -1.80066E+04
  4.48033E+04  1.14597E+04  3.26117E+04  2.64131E+04  1.59536E+04  3.03203E+04 -6.06721E+03  2.75034E+04
 -2.22170E+04  1.19315E+04 -1.83485E+04 -5.65095E+03  6.86462E+03 -7.35451E+03  2.36751E+04  1.32385E+04
  7.12374E+03  3.69043E+04 -3.34150E+04  3.72455E+04 -6.53844E+04  2.17107E+03 -5.85817E+04 -4.43866E+04
 -1.26030E+04 -6.53112E+04  4.11604E+04 -4.70941E+04  6.06676E+04 -2.57371E+03  3.62815E+04  3.35627E+04
 -5.62955E+03  3.89414E+04 -3.10771E+04  1.87544E+04 -3.27327E+04 -3.59530E+03 -1.85091E+04 -1.16772E+04
 -9.11299E+03 -1.43608E+04 -1.52751E+02 -1.93941E+04  8.35031E+03 -2.32464E+04  1.62522E+04 -1.25569E+04
  1.04928E+04  5.95002E+03 -9.81573E+03  1.24329E+04 -2.30046E+04 -6.25741E+03 -8.77760E+03 -3.63502E+04
  2.44547E+04 -4.59469E+04  5.10254E+04 -2.04400E+04  4.75551E+04  2.04652E+04  1.69714E+04  4.66866E+04
 -1.64036E+04  3.56459E+04 -2.75485E+04  2.61186E+03 -1.13385E+04 -2.91742E+04  2.12922E+04 -3.62441E+04
  4.43120E+04 -1.08595E+04  3.92909E+04  2.47178E+04  2.08227E+04  4.97910E+04 -8.17082E+03  5.50273E+04
 -3.47797E+04  3.70087E+04 -4.65411E+04  1.03670E+04 -4.64967E+04 -1.81559E+04 -2.58291E+04 -4.10912E+04
  7.24789E+03 -4.12919E+04  3.38594E+04 -1.63444E+04  3.14306E+04  1.07280E+04  5.31895E+03  2.03982E+04
 -1.35065E+04  9.65269E+03 -1.07655E+04 -7.71186E+03  5.60395E+03 -1.10184E+04  1.87678E+04  5.67034E+03
  1.42152E+04  2.21297E+04 -5.61536E+03  2.68107E+04 -2.32027E+04  1.41889E+04 -3.06390E+04 -3.12671E+03
 -2.43774E+04 -1.82759E+04 -1.10638E+04 -2.39931E+04  4.66849E+03 -2.42990E+04  1.93742E+04 -2.19326E+04
  3.06919E+04 -1.40113E+04  3.74652E+04  4.02719E+03  2.61722E+04  2.37726E+04  4.63446E+03  4.01524E+04
 -1.96509E+04  3.32894E+04 -2.98664E+04  1.17185E+04 -2.20857E+04 -1.03367E+04 -4.97555E+03 -1.27450E+04
  8.46194E+02 -1.47441E+03 -7.31060E+03  7.96092E+03 -1.95643E+04  4.89103E+03 -1.95544E+04 -8.88061E+03
 -1.14903E+04 -2.28463E+04  5.73342E+03 -2.68832E+04  1.78206E+04 -1.92973E+04  2.20137E+04 -1.54871E+03
  1.38245E+04  1.56793E+04 -1.53842E+03  2.24646E+04 -1.57748E+04  1.27832E+04 -2.27073E+04 -4.84724E+03
 -1.66926E+04 -2.03915E+04 -1.97791E+03 -2.73055E+04  1.24277E+04 -2.28105E+04  2.24046E+04 -1.16818E+04
  2.15308E+04  4.20520E+02  1.54117E+04  5.28240E+03  8.39991E+03  1.33487E+03  1.15570E+04 -2.24745E+03
  2.12209E+04  2.83584E+03  2.40796E+04  1.77483E+04  1.65714E+04  3.64593E+04 -2.62926E+03  4.27996E+04
 -2.41718E+04  3.53785E+04 -4.02269E+04  1.82125E+04 -4.28614E+04 -2.96289E+03 -3.46712E+04 -2.49266E+04
 -1.39401E+04 -3.58071E+04  1.28147E+04 -3.12835E+04  2.71156E+04 -1.52151E+04  2.31731E+04  7.58528E+03
  7.96014E+03  1.77915E+04 -1.12966E+04  1.49613E+04 -1.91832E+04  2.48960E+03 -1.50620E+04 -1.23406E+04
 -3.74224E+02 -1.86535E+04  1.02080E+04 -1.36669E+04  1.29572E+04 -1.01869E+03  3.31766E+03  8.62887E+03
 -8.62125E+03  3.46320E+03 -8.69597E+03 -6.83839E+03 -1.43973E+03 -1.75129E+04  1.13685E+04 -1.86002E+04
  2.18573E+04 -1.04491E+04  2.48845E+04  3.12978E+03  2.18269E+04  1.76443E+04  9.96680E+03  2.75164E+04
 -4.98375E+03  2.94784E+04 -1.91005E+04  1.82595E+04 -2.15019E+04  4.00834E+03 -1.45970E+04 -5.69198E+03
 -6.20243E+03 -7.12476E+03 -7.50464E+02  3.18442E+02 -3.11837E+03  3.49565E+03 -6.82122E+03  5.30442E+03
 -1.37804E+04 -1.08259E+03 -1.45274E+04 -1.14825E+04 -5.39406E+03 -1.90340E+04  6.19888E+03 -1.47204E+04
  1.22234E+04 -6.16901E+03  8.58101E+03  3.91907E+03 -3.37136E+02  5.82892E+03 -7.38643E+03  5.03780E+01
 -6.97588E+03 -9.59503E+03 -1.13476E+03 -1.47922E+04  8.72745E+03 -1.52394E+04  1.93569E+04 -8.23313E+03
  2.23483E+04  2.22841E+03  1.65246E+04  1.31546E+04  2.83414E+03  1.82745E+04 -9.65872E+03  1.52826E+04
 -1.22409E+04  4.50763E+03 -6.48191E+03 -3.15753E+03  2.32075E+03 -4.19061E+03  8.30968E+03 -1.00670E+03
  6.91238E+03  6.66226E+03  1.44302E+03  1.23541E+04 -8.59597E+03  1.13155E+04 -1.48200E+04  2.59471E+03
 -1.04470E+04 -7.94540E+03  1.70797E+02 -1.29680E+04  8.39219E+03 -6.31471E+03  8.93950E+03  3.13018E+03
  1.63843E+03  9.72814E+03 -7.54227E+03  1.09208E+04 -1.31021E+04  4.65155E+03 -1.27740E+04 -4.57643E+03
 -7.67749E+03 -1.47587E+04  3.54372E+03 -1.74092E+04  1.44981E+04 -1.05170E+04  1.57415E+04  3.07894E+03
  9.68837E+03  1.26302E+04 -1.45426E+03  1.49237E+04 -1.10458E+04  7.97425E+03 -1.18695E+04 -1.52017E+03
 -1.04811E+04 -1.00082E+04 -1.62776E+03 -1.16374E+04  6.20387E+03 -8.85422E+03  6.94948E+03 -3.57703E+03
  4.48197E+03  1.84221E+03 -1.19655E+03  1.69534E+03 -6.30673E+02 -3.06336E+03  2.38734E+03 -6.83117E+03
  1.06993E+04 -4.49582E+03  1.50523E+04  1.93417E+03  1.48630E+04  1.03287E+04  9.97921E+03  1.93084E+04
 -4.78414E+03  2.26380E+04 -1.88909E+04  1.70663E+04 -2.49997E+04  3.44156E+03 -1.96693E+04 -8.29374E+03
 -9.99584E+03 -1.63600E+04 -3.79532E+02 -1.41368E+04  4.58649E+03 -7.56170E+03  4.92895E+03 -4.98586E+03
  3.76083E+03 -2.45945E+03  3.94224E+03 -3.69209E+03  5.56998E+03 -3.31547E+03  7.77353E+03 -1.17108E+03
  9.95520E+03  2.19096E+03  5.51658E+03  8.82906E+03 -2.45357E+03  1.07841E+04 -1.08157E+04  8.01814E+03
 -1.38854E+04 -1.12423E+03 -8.97094E+03 -9.89523E+03 -1.20700E+03 -1.48914E+04  8.01565E+03 -1.47919E+04
  1.57025E+04 -7.97815E+03  1.84850E+04  2.63858E+03  1.31015E+04  1.31532E+04  1.53647E+03  1.70532E+04
 -6.51415E+03  1.38902E+04 -9.44400E+03  4.90705E+03 -6.96493E+03 -1.23027E+03 -2.70678E+03 -2.12017E+03
 -1.51962E+03  3.69982E+02 -2.12201E+03  2.84222E+03 -5.99227E+03  2.36455E+03 -9.57436E+03 -1.18467E+03
 -6.50310E+03 -9.61367E+03 -1.56835E+02 -1.36538E+04  8.53839E+03 -1.26669E+04  1.38422E+04 -4.01945E+03
  1.36133E+04  6.68271E+03  6.49754E+03  1.24494E+04 -2.68928E+03  1.44659E+04 -1.00603E+04  8.67395E+03
 -1.28658E+04  5.71792E+02 -1.02606E+04 -8.06976E+03 -1.20840E+03 -1.18422E+04  6.01206E+03 -8.65657E+03
  9.06727E+03 -2.62605E+03  5.73314E+03  2.20412E+03  2.08360E+03  4.38031E+03  1.07975E+03  2.06803E+03
  2.93662E+03  1.01675E+03  3.09580E+03  1.92946E+03  4.16100E+03  4.93733E+03  3.63145E+03  8.01016E+03
 -2.84758E+03  1.11834E+04 -9.53437E+03  1.11555E+04 -1.42985E+04  2.93412E+03 -1.45992E+04 -6.17932E+03
 -6.58020E+03 -1.42029E+04  1.88849E+03 -1.53800E+04  8.84464E+03 -1.00383E+04  1.18252E+04 -2.81281E+03
  9.01193E+03  5.20686E+03  1.66463E+03  8.40179E+03 -4.20013E+03  5.13127E+03 -5.70161E+03 -9.94538E+02
 -2.96331E+03 -5.80231E+03  3.62079E+03 -6.49796E+03  5.81118E+03 -2.80361E+03  5.35180E+03  1.19191E+03
  3.50799E+03  2.71497E+03  1.57259E+03  2.66571E+03 -8.10359E+02  2.32274E+03  1.43275E+03 -8.00984E+02
  2.41189E+03 -1.04449E+03  5.88087E+03  2.44531E+03  3.53128E+03  7.65962E+03 -1.15970E+03  9.48214E+03
 -6.95921E+03  6.30934E+03 -9.30078E+03  1.75010E+03 -8.20538E+03 -3.32761E+03 -3.09145E+03 -5.54790E+03
  8.07381E+02 -5.53596E+03  3.83615E+03 -2.48722E+03  3.39628E+03  2.91660E+03 -1.32404E+03  4.71774E+03
 -5.82866E+03  2.77745E+03 -6.48534E+03 -3.41220E+03 -3.70417E+03 -7.81490E+03  1.34001E+03 -7.94126E+03
  4.58594E+03 -4.67053E+03  5.65565E+03 -2.10334E+02  4.81915E+03  2.04916E+03  8.57905E+02  4.52594E+03
 -2.55306E+03  1.19523E+03 -3.17927E+03 -2.33762E+03  1.27380E+03 -6.29638E+03  7.32528E+03 -4.83654E+03
  9.08861E+03  5.73582E+02  8.91787E+03  6.44992E+03  3.06217E+03  9.26853E+03 -3.21506E+03  8.90430E+03
 -7.78590E+03  3.73798E+03 -7.73987E+03 -1.06039E+03 -4.67128E+03 -5.89242E+03  1.20803E+03 -5.78644E+03
  5.89799E+03 -2.88924E+03  4.92378E+03  2.46631E+03  1.67394E+03  4.88046E+03 -1.05932E+03  4.43755E+03
 -2.57369E+03  2.82187E+03 -2.34452E+03  1.12775E+03 -1.22227E+03  1.60319E+03 -1.65876E+03  1.65875E+03
 -2.51072E+03  3.44961E+03 -6.53274E+03  3.09890E+03 -9.74489E+03 -1.98674E+02 -1.08773E+04 -6.18286E+03
 -5.91781E+03 -1.22591E+04  2.11798E+03 -1.43731E+04  8.70704E+03 -1.14083E+04  1.36930E+04 -4.06310E+03
  1.24714E+04  2.21301E+03  7.62635E+03  8.33194E+03  8.80649E+02  9.73255E+03 -4.19611E+03  7.24413E+03
 -5.78323E+03  2.69674E+03 -3.29382E+03 -1.46181E+03 -1.20357E+03 -8.37749E+02 -6.07413E+02 -3.24708E+01
 -1.49153E+03  4.31219E+02 -2.42511E+03 -4.43993E+02 -8.40999E+02 -2.48070E+03  3.32109E+02 -3.66901E+03
  4.28318E+03 -3.09890E+03  5.99108E+03 -2.33360E+00  6.68034E+03  5.38355E+03  1.78953E+03  9.89902E+03
 -4.85932E+03  1.07016E+04 -1.06431E+04  6.85538E+03 -1.19266E+04 -7.51331E+02 -8.99527E+03 -7.32257E+03
 -3.67419E+03 -1.03132E+04  2.41318E+03 -8.96605E+03  6.18420E+03 -5.21142E+03  6.67841E+03  6.90746E+01
  3.99185E+03  3.54090E+03 -3.12034E+02  3.14877E+03 -1.76809E+03 -1.55224E+02  1.17946E+02 -2.22768E+03
  3.04760E+03 -1.64469E+03  3.64901E+03  1.08328E+03  2.39736E+03  4.00465E+03  5.78392E+01  5.15305E+03
 -4.55352E+03  4.59012E+03 -6.45574E+03  1.16683E+02 -5.53961E+03 -4.81091E+03 -1.19807E+03 -8.32828E+03
  4.69353E+03 -7.20414E+03  7.60315E+03 -2.09283E+03  7.85079E+03  1.78023E+03  4.59562E+03  6.33061E+03
  8.65318E+02  6.49734E+03 -2.82231E+03  4.93050E+03 -4.21585E+03  3.03030E+03 -2.84384E+03  3.06668E+02
 -2.09059E+03 -3.17093E+02 -1.87150E+03  9.21244E+02 -3.59733E+03  9.77266E+02 -5.10132E+03 -6.54123E+02
 -5.15725E+03 -3.32462E+03 -1.59740E+03 -6.76166E+03  3.18890E+03 -7.39520E+03  5.94823E+03 -3.28320E+03
  7.05714E+03  9.98074E+02  3.88066E+03  4.16268E+03 -4.80046E+02  7.08489E+03 -5.10574E+03  4.52624E+03
