 $NMID ID='MM_0lb_SNR800_15hz_g50_71.RAW', FMTDAT='(8E13.5)'
 TRAMP=1., VOLUME=1. $END
  3.09711E+05  4.81201E+02  3.37730E+05  2.50299E+05  8.45765E+04  3.38000E+05 -1.32490E+05  2.50846E+05
 -1.90532E+05  8.33291E+04 -1.11360E+05 -3.24525E+04  1.05169E+03 -5.00197E+04  5.38616E+04 -1.07017E+01
  3.55161E+04  5.27292E+04 -1.66708E+04  7.54995E+04 -6.08430E+04  6.34577E+04 -8.41395E+04  3.20725E+04
 -8.08443E+04 -1.14474E+04 -5.70113E+04 -5.11381E+04 -1.50462E+04 -6.93607E+04  2.69865E+04 -4.57403E+04
  3.99316E+04  3.82360E+03  1.60543E+04  4.77676E+04 -3.40179E+04  4.68579E+04 -6.63647E+04 -6.12144E+02
 -5.28354E+04 -5.68864E+04 -6.69172E+03 -7.64436E+04  3.38480E+04 -5.46413E+04  4.77943E+04 -1.74350E+04
  4.29827E+04  1.11746E+04  3.14742E+04  2.49328E+04  1.59077E+04  2.93099E+04 -4.97493E+03  2.72192E+04
 -2.20367E+04  1.26377E+04 -1.89874E+04 -5.04415E+03  5.55473E+03 -7.40255E+03  2.26193E+04  1.19812E+04
  7.03533E+03  3.50524E+04 -3.17689E+04  3.53688E+04 -6.31500E+04  2.18309E+03 -5.67640E+04 -4.24758E+04
 -1.25055E+04 -6.30727E+04  3.94708E+04 -4.48773E+04  5.77825E+04 -2.17159E+03  3.36792E+04  3.21265E+04
 -6.15055E+03  3.54883E+04 -2.97162E+04  1.56680E+04 -3.00855E+04 -4.63462E+03 -1.62425E+04 -1.08705E+04
 -8.16212E+03 -1.26824E+04 -8.82751E+02 -1.75137E+04  7.22308E+03 -2.31134E+04  1.51110E+04 -1.33675E+04
  1.13323E+04  5.03664E+03 -8.08812E+03  1.32697E+04 -2.08095E+04 -4.40885E+03 -8.24368E+03 -3.29359E+04
  2.26050E+04 -4.28037E+04  4.76249E+04 -1.92583E+04  4.45308E+04  1.91387E+04  1.56349E+04  4.37669E+04
 -1.59290E+04  3.30687E+04 -2.49113E+04  1.47047E+03 -9.54705E+03 -2.75964E+04  2.09047E+04 -3.38344E+04
  4.02254E+04 -8.64229E+03  3.49876E+04  2.38562E+04  1.78617E+04  4.58351E+04 -8.13236E+03  4.93395E+04
 -3.12275E+04  3.29997E+04 -4.10255E+04  9.47809E+03 -4.18239E+04 -1.65199E+04 -2.34317E+04 -3.72130E+04
  7.18606E+03 -3.71363E+04  3.09125E+04 -1.45191E+04  2.87226E+04  1.07613E+04  3.79589E+03  1.88477E+04
 -1.32934E+04  8.17723E+03 -1.01404E+04 -7.61644E+03  5.84636E+03 -1.04918E+04  1.80472E+04  6.01181E+03
  1.33570E+04  2.16227E+04 -6.23676E+03  2.49165E+04 -2.19470E+04  1.10919E+04 -2.73690E+04 -5.21163E+03
 -2.00724E+04 -1.70934E+04 -8.01297E+03 -2.00970E+04  3.65093E+03 -1.85122E+04  1.54977E+04 -1.77485E+04
  2.53713E+04 -1.24563E+04  3.16874E+04  2.44937E+03  2.32170E+04  1.93743E+04  4.09980E+03  3.59922E+04
 -1.74375E+04  3.00799E+04 -2.74581E+04  1.03710E+04 -2.05812E+04 -1.02849E+04 -4.01305E+03 -1.36783E+04
  2.01959E+03 -3.34204E+03 -4.40141E+03  6.34162E+03 -1.54519E+04  5.29432E+03 -1.56476E+04 -6.42027E+03
 -9.94744E+03 -1.82042E+04  5.09611E+03 -2.24273E+04  1.46664E+04 -1.59210E+04  1.76110E+04 -1.77170E+03
  1.12522E+04  1.24312E+04 -9.88262E+02  1.85252E+04 -1.26329E+04  1.05529E+04 -1.82019E+04 -3.79244E+03
 -1.37111E+04 -1.64037E+04 -1.44756E+03 -2.23105E+04  1.02906E+04 -1.86055E+04  1.86918E+04 -8.97670E+03
  1.71022E+04  4.80168E+02  1.25031E+04  4.30962E+03  6.21473E+03  7.47197E+02  9.53152E+03 -1.62144E+03
  1.69060E+04  2.65712E+03  1.85819E+04  1.45301E+04  1.19019E+04  2.92643E+04 -3.17123E+03  3.23822E+04
 -1.91563E+04  2.60359E+04 -3.02681E+04  1.31194E+04 -3.21732E+04 -2.26637E+03 -2.67004E+04 -1.81460E+04
 -1.16045E+04 -2.59834E+04  8.81485E+03 -2.37572E+04  2.04541E+04 -1.23377E+04  1.83749E+04  4.75847E+03
  6.94976E+03  1.37400E+04 -8.89556E+03  1.22480E+04 -1.57390E+04  2.89122E+03 -1.22006E+04 -9.64409E+03
 -4.59703E+02 -1.48066E+04  7.41363E+03 -1.08639E+04  9.44039E+03 -1.24746E+03  1.99379E+03  6.22871E+03
 -6.59830E+03  2.08956E+03 -5.53381E+03 -5.49561E+03 -2.65111E+02 -1.26265E+04  9.58013E+03 -1.34124E+04
  1.55997E+04 -6.78791E+03  1.66457E+04  2.70398E+03  1.45138E+04  1.24237E+04  6.88248E+03  1.88238E+04
 -2.73228E+03  2.08670E+04 -1.32785E+04  1.33850E+04 -1.49628E+04  3.35349E+03 -1.05660E+04 -3.22469E+03
 -5.35539E+03 -4.45593E+03 -7.10079E+02  1.14706E+03 -2.29658E+03  2.44675E+03 -4.69286E+03  4.21209E+03
 -9.90176E+03 -7.54273E+02 -1.04676E+04 -8.58411E+03 -4.41006E+03 -1.43108E+04  4.38720E+03 -1.10611E+04
  9.10436E+03 -4.91585E+03  6.35399E+03  2.45093E+03 -1.42506E+02  4.18483E+03 -4.86898E+03 -2.54874E+02
 -4.56876E+03 -6.67147E+03 -1.09977E+03 -9.82149E+03  5.71458E+03 -1.08826E+04  1.28099E+04 -5.45050E+03
  1.53193E+04  1.08408E+03  1.07825E+04  8.68985E+03  2.35603E+03  1.23357E+04 -6.87970E+03  1.03178E+04
 -8.58290E+03  3.06149E+03 -4.20254E+03 -1.64391E+03  1.58392E+03 -2.73583E+03  5.54269E+03 -1.11478E+03
  5.37770E+03  4.52423E+03  1.17502E+03  8.11248E+03 -5.88297E+03  8.15681E+03 -1.00208E+04  2.06160E+03
 -6.92626E+03 -5.11425E+03  5.06610E+02 -8.49210E+03  5.61556E+03 -4.49073E+03  5.31631E+03  1.90683E+03
  1.48511E+03  5.55042E+03 -5.54006E+03  6.59620E+03 -7.44771E+03  3.17641E+03 -7.55672E+03 -2.16290E+03
 -4.44878E+03 -8.69589E+03  2.08650E+03 -1.05968E+04  8.68241E+03 -6.46863E+03  9.61172E+03  1.67251E+03
  6.12246E+03  7.54360E+03 -2.81695E+02  9.80460E+03 -6.74985E+03  5.58254E+03 -7.53157E+03 -7.06934E+02
 -7.17170E+03 -6.88436E+03 -1.59754E+03 -7.52797E+03  3.58094E+03 -5.95783E+03  4.38845E+03 -3.11166E+03
  3.20928E+03  9.26953E+02 -7.16326E+01  1.38734E+03  3.53201E+02 -9.60045E+02  6.90708E+02 -3.70182E+03
  6.02265E+03 -1.94557E+03  8.36584E+03  7.41768E+02  8.35366E+03  5.58652E+03  6.79601E+03  1.09287E+04
 -2.35427E+03  1.29620E+04 -1.10997E+04  9.90300E+03 -1.41458E+04  1.61883E+03 -1.13605E+04 -4.07341E+03
 -5.92986E+03 -9.50303E+03 -4.28070E+02 -7.69581E+03  2.95721E+03 -3.77279E+03  2.63320E+03 -3.13758E+03
  1.99841E+03 -1.85570E+03  2.95512E+03 -2.96908E+03  4.36976E+03 -2.22088E+03  5.15304E+03  1.98864E+02
  6.25971E+03  1.57309E+03  2.52349E+03  5.06984E+03 -1.63030E+03  4.91439E+03 -6.37339E+03  4.35378E+03
 -7.67281E+03 -1.34853E+03 -3.76290E+03 -5.24007E+03 -3.70073E+02 -8.06558E+03  4.67092E+03 -8.25152E+03
  8.35006E+03 -4.80614E+03  1.01280E+04  5.49286E+02  7.32251E+03  6.82351E+03  1.48342E+03  9.54437E+03
 -3.36947E+03  8.13119E+03 -5.25258E+03  2.55976E+03 -3.30348E+03 -1.01025E+03 -9.39950E+02 -1.07633E+03
 -5.09203E+02  3.20738E+02 -1.45427E+03  2.55212E+03 -3.20799E+03  1.38971E+03 -5.63121E+03 -6.99513E+02
 -2.76880E+03 -5.64839E+03  8.57762E+02 -7.29113E+03  4.36188E+03 -6.93947E+03  6.35604E+03 -1.84549E+03
  6.99159E+03  3.88534E+03  3.21849E+03  5.94839E+03 -1.29829E+03  7.12731E+03 -4.40230E+03  4.43979E+03
 -6.12220E+03  5.26083E+02 -5.10159E+03 -4.02929E+03 -5.72705E+02 -5.58358E+03  2.90017E+03 -4.02773E+03
  4.45209E+03 -1.34823E+03  3.14177E+03  9.94210E+02  8.92289E+02  2.37785E+03  9.45543E+02  1.10304E+03
  1.90410E+03  5.38421E+02  1.73625E+03  1.00825E+03  1.94378E+03  2.84325E+03  1.89972E+03  3.04345E+03
 -1.76242E+03  4.87246E+03 -4.51459E+03  5.87108E+03 -6.22477E+03  1.64540E+03 -6.94227E+03 -1.87619E+03
 -2.77023E+03 -6.41303E+03  9.91373E+02 -7.57782E+03  3.61138E+03 -4.39083E+03  5.08833E+03 -1.28887E+03
  3.88730E+03  2.67104E+03  8.59331E+02  4.13551E+03 -1.28649E+03  2.25042E+03 -2.09948E+03 -4.56908E+02
 -1.28618E+03 -2.77127E+03  1.94449E+03 -2.75050E+03  2.65767E+03 -1.56030E+03  2.41977E+03  7.72562E+02
  1.36446E+03  9.15755E+02  8.88467E+02  3.26135E+02 -3.65782E+02  1.29171E+03  1.70243E+03 -4.34465E+02
  5.27883E+02 -1.20634E+02  2.47659E+03  1.00361E+03  8.09093E+02  3.85190E+03 -4.13346E+02  4.59387E+03
 -2.94396E+03  2.55514E+03 -3.95202E+03  7.55904E+02 -3.80124E+03 -1.67130E+03 -1.14028E+03 -2.21292E+03
  6.93176E+02 -2.13656E+03  1.79398E+03 -1.07404E+03  1.40540E+03  1.45388E+03 -1.12708E+03  2.04621E+03
 -2.25095E+03  1.16336E+03 -2.46819E+03 -1.75126E+03 -1.46088E+03 -3.69296E+03  3.34085E+02 -3.13264E+03
  1.52817E+03 -1.53263E+03  1.86272E+03 -9.42361E+01  2.12372E+03  2.89620E+02  4.17404E+02  2.01374E+03
 -8.74071E+02  2.66567E+02 -1.84217E+03 -6.41092E+02  8.80935E+02 -2.21681E+03  2.91048E+03 -1.62964E+03
  3.18400E+03  7.21406E+01  4.24807E+03  1.92195E+03  1.83745E+03  3.38716E+03 -1.22962E+03  3.66611E+03
 -2.88155E+03  1.03449E+03 -3.14498E+03 -4.61664E+02 -1.84326E+03 -2.54646E+03  5.23353E+02 -1.56555E+03
  2.50601E+03 -1.09111E+03  1.82831E+03  1.19640E+03  6.86675E+02  2.23671E+03  6.96718E+00  1.71352E+03
 -6.50703E+02  1.34432E+03 -7.26639E+02  7.59865E+02 -2.11011E+02  5.16499E+02 -7.86635E+02  9.42059E+02
 -6.85489E+02  1.63588E+03 -2.77129E+03  9.67028E+02 -3.44040E+03  1.40985E+02 -4.55192E+03 -2.12328E+03
 -2.12037E+03 -4.66169E+03  9.87797E+02 -5.12516E+03  2.93996E+03 -4.45793E+03  5.13898E+03 -1.67710E+03
  4.35025E+03  2.52709E+02  2.49671E+03  3.04389E+03 -4.62270E+02  3.09510E+03 -1.45201E+03  2.58698E+03
 -1.97068E+03  8.76380E+02 -1.14369E+03 -3.28446E+02 -6.59805E+02  1.88115E+02 -8.19399E+02  3.00847E+02
 -1.26993E+03  6.47768E+01 -1.20133E+03  1.85158E+02 -2.63255E+02 -1.07882E+03 -2.03927E+02 -1.34034E+03
  1.96753E+03 -1.22148E+03  1.58804E+03  2.52602E+02  2.29968E+03  1.93925E+03 -7.46384E+01  3.18517E+03
 -1.36540E+03  3.91086E+03 -3.17722E+03  2.61400E+03 -3.72800E+03 -3.98463E+02 -2.57331E+03 -2.18953E+03
 -1.50598E+03 -3.17580E+03  1.02398E+03 -2.85927E+03  1.96104E+03 -1.60824E+03  1.80139E+03  4.08237E+02
  1.30722E+03  6.09386E+02  3.80311E+02  1.08607E+03 -8.87191E+02  3.22848E+01 -1.09409E+02 -5.70973E+02
  1.24346E+03  2.67466E+01  1.13754E+03  8.15749E+02  7.71347E+02  1.38502E+03 -4.03190E+01  1.30678E+03
 -1.42458E+03  1.41572E+03 -1.71021E+03  2.94534E+02 -1.93537E+03 -1.38556E+03 -9.71800E+01 -2.25343E+03
  1.31246E+03 -1.42858E+03  1.40785E+03 -4.42163E+02  2.12630E+03 -1.71742E+02  1.27728E+03  1.57708E+03
  6.15338E+02  1.41750E+03 -7.98407E+02  1.42338E+03 -1.05276E+03  9.07447E+02 -9.70011E+02  7.96687E+01
 -5.59735E+02 -2.50116E+02 -8.28560E+02  3.08286E+02 -1.18264E+03  3.76673E+02 -1.97267E+03 -2.71659E+02
 -1.54751E+03 -4.51130E+02 -5.09706E+02 -1.78264E+03  1.14853E+03 -2.51722E+03  1.59192E+03 -7.50827E+02
  1.56696E+03  2.92637E+02  2.94387E+02  7.13809E+02 -3.47452E+02  2.03235E+03 -1.38245E+03  1.46667E+03
