 $NMID ID='MM_0lb_SNR800_17hz_g55_82.RAW', FMTDAT='(8E13.5)'
 TRAMP=1., VOLUME=1. $END
  3.09787E+05  6.32387E+02  3.37257E+05  2.51006E+05  8.46284E+04  3.38030E+05 -1.32583E+05  2.50711E+05
 -1.89832E+05  8.28131E+04 -1.11582E+05 -3.26489E+04  8.15190E+02 -5.06071E+04  5.38933E+04 -1.85536E+02
  3.52245E+04  5.30181E+04 -1.68091E+04  7.51238E+04 -6.06210E+04  6.34448E+04 -8.37767E+04  3.17733E+04
 -8.06736E+04 -1.09465E+04 -5.67159E+04 -5.09262E+04 -1.48620E+04 -6.91626E+04  2.71376E+04 -4.53017E+04
  3.98775E+04  4.06701E+03  1.59990E+04  4.74874E+04 -3.39597E+04  4.67552E+04 -6.60942E+04 -3.93717E+02
 -5.30512E+04 -5.65962E+04 -6.59981E+03 -7.60657E+04  3.37442E+04 -5.43573E+04  4.75231E+04 -1.67572E+04
  4.27273E+04  1.13295E+04  3.15081E+04  2.50786E+04  1.58635E+04  2.91232E+04 -5.21089E+03  2.72688E+04
 -2.17168E+04  1.25886E+04 -1.89636E+04 -4.65422E+03  5.14492E+03 -7.50186E+03  2.21015E+04  1.18950E+04
  7.33489E+03  3.46649E+04 -3.14307E+04  3.50277E+04 -6.24343E+04  2.25944E+03 -5.64810E+04 -4.22409E+04
 -1.21204E+04 -6.24570E+04  3.92346E+04 -4.48045E+04  5.73988E+04 -2.17695E+03  3.32111E+04  3.18475E+04
 -6.13202E+03  3.52194E+04 -2.96323E+04  1.50794E+04 -2.92207E+04 -4.54773E+03 -1.59292E+04 -1.06497E+04
 -7.78024E+03 -1.25746E+04 -8.31604E+02 -1.76134E+04  7.22790E+03 -2.25994E+04  1.52375E+04 -1.36671E+04
  1.18503E+04  4.70887E+03 -7.42157E+03  1.30591E+04 -2.03343E+04 -3.79937E+03 -8.27992E+03 -3.23187E+04
  2.19732E+04 -4.24417E+04  4.65596E+04 -1.90753E+04  4.37916E+04  1.88474E+04  1.52000E+04  4.33628E+04
 -1.55788E+04  3.24830E+04 -2.44782E+04  1.72199E+03 -9.34869E+03 -2.73591E+04  2.06247E+04 -3.27661E+04
  3.98915E+04 -8.14761E+03  3.37275E+04  2.35241E+04  1.71410E+04  4.47708E+04 -7.89415E+03  4.81216E+04
 -3.05148E+04  3.23059E+04 -4.00957E+04  9.24013E+03 -4.08531E+04 -1.62774E+04 -2.23248E+04 -3.60590E+04
  6.99213E+03 -3.61584E+04  3.06733E+04 -1.38849E+04  2.83141E+04  1.08726E+04  3.60070E+03  1.88435E+04
 -1.32155E+04  7.83731E+03 -1.02160E+04 -8.06829E+03  5.83354E+03 -1.04765E+04  1.75848E+04  6.06198E+03
  1.29889E+04  2.18238E+04 -6.41406E+03  2.42725E+04 -2.19237E+04  1.03982E+04 -2.69445E+04 -5.59356E+03
 -1.86307E+04 -1.70855E+04 -7.24523E+03 -1.87158E+04  4.17406E+03 -1.78234E+04  1.44946E+04 -1.69065E+04
  2.38736E+04 -1.22270E+04  3.04423E+04  2.35544E+03  2.29696E+04  1.85060E+04  4.08797E+03  3.49309E+04
 -1.65966E+04  2.91154E+04 -2.69437E+04  9.85737E+03 -2.02586E+04 -1.03020E+04 -4.05262E+03 -1.36927E+04
  1.98350E+03 -3.21248E+03 -3.82614E+03  5.89899E+03 -1.47860E+04  5.07046E+03 -1.48999E+04 -5.82003E+03
 -9.15954E+03 -1.72743E+04  4.87820E+03 -2.13943E+04  1.42006E+04 -1.55077E+04  1.63070E+04 -1.50258E+03
  1.04954E+04  1.22563E+04 -1.02631E+03  1.73617E+04 -1.15427E+04  9.95631E+03 -1.73418E+04 -3.47453E+03
 -1.28792E+04 -1.55701E+04 -1.46976E+03 -2.10603E+04  9.38082E+03 -1.68341E+04  1.77354E+04 -8.31367E+03
  1.58381E+04  5.59265E+02  1.16849E+04  4.16429E+03  5.96962E+03  1.02373E+03  8.87921E+03 -1.69944E+03
  1.59307E+04  2.79723E+03  1.72278E+04  1.38740E+04  1.11855E+04  2.71807E+04 -3.09941E+03  3.01047E+04
 -1.80506E+04  2.39027E+04 -2.82959E+04  1.17387E+04 -2.90835E+04 -2.30371E+03 -2.47151E+04 -1.67126E+04
 -1.11152E+04 -2.42192E+04  8.10796E+03 -2.19949E+04  1.90383E+04 -1.17687E+04  1.72862E+04  4.55372E+03
  6.87300E+03  1.25003E+04 -8.07420E+03  1.14964E+04 -1.47838E+04  2.79156E+03 -1.13351E+04 -9.06043E+03
 -1.94704E+02 -1.38053E+04  6.92159E+03 -1.04293E+04  8.64169E+03 -1.20629E+03  1.90078E+03  5.61478E+03
 -6.27604E+03  1.79727E+03 -4.95852E+03 -5.27339E+03 -6.90786E+01 -1.19127E+04  8.85465E+03 -1.18672E+04
  1.44054E+04 -5.83614E+03  1.48518E+04  2.75946E+03  1.26313E+04  1.10670E+04  5.99531E+03  1.69885E+04
 -2.37362E+03  1.88853E+04 -1.18849E+04  1.19458E+04 -1.34465E+04  3.11817E+03 -9.54657E+03 -2.47024E+03
 -4.72362E+03 -3.98874E+03 -8.27009E+02  1.39967E+03 -2.22863E+03  2.40785E+03 -4.67885E+03  3.92850E+03
 -9.17420E+03 -6.52433E+02 -9.78019E+03 -8.19265E+03 -4.33067E+03 -1.32248E+04  4.04759E+03 -9.88611E+03
  7.79226E+03 -4.41952E+03  5.72724E+03  2.47338E+03  4.80804E+02  3.32804E+03 -4.28023E+03 -4.79081E+01
 -3.88751E+03 -6.16650E+03 -7.57183E+02 -8.52178E+03  4.84928E+03 -9.40922E+03  1.15880E+04 -4.58566E+03
  1.36362E+04  8.17798E+02  1.01846E+04  7.88644E+03  2.06445E+03  1.03837E+04 -6.22331E+03  9.46059E+03
 -8.04109E+03  3.16686E+03 -4.15454E+03 -1.67699E+03  1.17148E+03 -2.37483E+03  5.67311E+03 -1.10254E+03
  4.70136E+03  3.79807E+03  1.13617E+03  7.63728E+03 -4.99727E+03  7.12221E+03 -9.07482E+03  2.05543E+03
 -5.94139E+03 -4.33693E+03  2.87309E+02 -7.85586E+03  4.92311E+03 -3.89111E+03  4.63295E+03  1.18128E+03
  8.29146E+02  4.67697E+03 -4.60892E+03  5.60485E+03 -6.30076E+03  2.73236E+03 -6.02176E+03 -1.73936E+03
 -3.73279E+03 -7.60363E+03  1.64100E+03 -8.88484E+03  7.33919E+03 -5.63822E+03  7.86848E+03  1.23659E+03
  5.53195E+03  6.54165E+03 -5.25559E+01  8.35775E+03 -5.84950E+03  4.79598E+03 -6.46196E+03 -7.92932E+02
 -6.63251E+03 -6.10867E+03 -1.35783E+03 -5.80696E+03  3.08505E+03 -5.36567E+03  3.70877E+03 -3.11460E+03
  3.12676E+03  5.32067E+02 -2.19695E+01  1.43963E+03  6.51755E+01 -5.84974E+02  4.16202E+02 -2.54169E+03
  4.72056E+03 -1.30461E+03  6.77501E+03  7.98828E+02  6.79005E+03  4.12758E+03  5.78272E+03  9.07549E+03
 -1.56647E+03  1.07375E+04 -9.36245E+03  7.97135E+03 -1.19629E+04  1.30486E+03 -9.67329E+03 -3.36137E+03
 -5.22879E+03 -8.00888E+03 -4.58776E+02 -6.57129E+03  2.34934E+03 -3.30095E+03  2.26961E+03 -2.44602E+03
  1.40715E+03 -1.62366E+03  2.21517E+03 -2.52045E+03  3.91396E+03 -1.59718E+03  4.02324E+03 -1.32210E+02
  5.00903E+03  1.52828E+03  1.71087E+03  4.03923E+03 -1.67988E+03  4.03984E+03 -5.08641E+03  3.47396E+03
 -6.18128E+03 -1.11414E+03 -2.81149E+03 -4.36060E+03  5.23460E+01 -6.28219E+03  3.88795E+03 -6.90080E+03
  6.50559E+03 -3.65676E+03  8.45780E+03  4.73531E+02  5.93882E+03  5.15535E+03  1.26460E+03  7.13776E+03
 -2.88777E+03  6.98932E+03 -4.32607E+03  2.21439E+03 -2.34224E+03 -1.30479E+03 -8.88951E+02 -1.00036E+03
 -8.55546E+02  8.67966E+01 -1.04195E+03  2.23716E+03 -3.09251E+03  1.00071E+03 -4.68596E+03 -5.38669E+02
 -2.76220E+03 -4.87058E+03  1.00565E+03 -5.66728E+03  3.51222E+03 -5.69484E+03  4.82252E+03 -1.41330E+03
  5.35621E+03  2.76513E+03  2.35054E+03  4.36773E+03 -9.15275E+02  5.74364E+03 -3.13555E+03  3.59603E+03
 -4.72596E+03  5.28557E+02 -4.19330E+03 -3.39572E+03 -3.75880E+02 -4.20992E+03  2.22530E+03 -3.25745E+03
  3.50327E+03 -1.65814E+03  2.03221E+03  6.54278E+02  5.44204E+02  1.82742E+03  7.88879E+02  8.29532E+02
  1.77074E+03  5.11280E+02  1.39970E+03  1.21561E+03  1.62728E+03  2.21967E+03  1.64119E+03  2.60167E+03
 -1.51554E+03  3.79305E+03 -3.29002E+03  4.75903E+03 -4.33786E+03  1.64713E+03 -5.56679E+03 -8.60532E+02
 -2.36391E+03 -4.94663E+03  2.84370E+02 -5.79115E+03  2.29569E+03 -3.25954E+03  3.70803E+03 -9.82631E+02
  3.04924E+03  2.21928E+03  6.45479E+02  3.01475E+03 -8.93333E+02  1.68156E+03 -1.56400E+03 -1.13765E+02
 -9.41648E+02 -2.19162E+03  1.40296E+03 -1.80561E+03  1.75691E+03 -1.01993E+03  1.48040E+03  5.11961E+02
  1.02262E+03  7.13687E+02  1.10622E+03 -5.04258E+01 -5.34806E+02  8.62210E+02  1.66033E+03  6.64275E+01
  2.07735E+02 -3.58993E+02  2.20571E+03  8.17828E+02  6.01227E+02  3.01343E+03 -3.09863E+02  3.49348E+03
 -2.12781E+03  1.68084E+03 -3.04755E+03  6.29674E+02 -2.96379E+03 -1.01348E+03 -4.67624E+02 -1.57885E+03
  3.13603E+02 -1.55444E+03  9.99639E+02 -1.10632E+03  7.70469E+02  1.27644E+03 -7.46207E+02  1.18431E+03
 -1.88640E+03  1.05982E+03 -1.48615E+03 -1.53348E+03 -1.20131E+03 -2.16792E+03  7.14227E+01 -2.09553E+03
  1.17252E+03 -1.04824E+03  1.38625E+03  1.66923E+02  1.50637E+03  1.76987E+02  1.46502E+02  1.17257E+03
 -5.66578E+02  6.31542E+01 -1.58844E+03 -4.72759E+02  7.77064E+02 -1.33378E+03  2.39092E+03 -1.06585E+03
  2.01790E+03 -1.85691E+02  3.06051E+03  1.27485E+03  1.41587E+03  2.29281E+03 -8.30199E+02  2.37097E+03
 -2.10262E+03  2.14786E+02 -2.18724E+03  2.01095E+00 -9.55034E+02 -1.65845E+03  1.81457E+02 -7.86026E+02
  2.00562E+03 -6.95262E+02  9.74090E+02  6.44236E+02 -1.98624E+01  1.58855E+03  2.12869E+02  1.24401E+03
 -6.02492E+02  1.73683E+03 -5.95889E+02  5.72063E+02 -1.06756E+02  6.31549E+02 -8.69522E+02  5.52457E+02
 -8.23612E+02  1.26302E+03 -2.27336E+03  8.31360E+02 -2.53947E+03  2.34087E+02 -3.25769E+03 -1.44375E+03
 -1.35829E+03 -3.13434E+03  5.89615E+02 -3.80594E+03  1.49354E+03 -2.88042E+03  3.70239E+03 -1.16325E+03
  3.09896E+03  2.33864E+02  1.74332E+03  2.07362E+03 -2.84558E+02  2.21471E+03 -9.75529E+02  1.87630E+03
 -1.21188E+03  9.01502E+02 -8.84340E+02 -5.63711E+01 -7.13298E+02  2.54532E+02 -7.31905E+02  6.48187E+01
 -1.04623E+03 -1.97729E+02 -1.17352E+03  1.26419E+02  1.85514E+02 -8.19118E+02 -2.70026E+02 -1.09083E+03
  1.50133E+03 -8.66470E+02  9.67326E+02  1.53587E+02  1.40855E+03  1.62250E+03 -2.23538E+02  2.10775E+03
 -1.41686E+03  2.59521E+03 -2.02849E+03  1.79856E+03 -2.25245E+03 -4.57952E+02 -1.73882E+03 -1.54486E+03
 -1.09053E+03 -1.72644E+03  4.09278E+02 -1.74943E+03  1.02192E+03 -1.19937E+03  1.26498E+03  3.71160E+01
  8.04069E+02  3.78365E+02  4.88699E+02  4.19478E+02 -6.46231E+02  1.41473E+02  5.82113E+01 -4.16067E+02
  7.40385E+02  2.76174E+02  5.56597E+02  3.43932E+02  1.86973E+02  6.21101E+02  1.79368E+02  7.90720E+02
 -7.87498E+02  5.07872E+02 -6.99627E+02  3.38311E+02 -6.52706E+02 -6.24575E+02  2.46977E+02 -1.51078E+03
  8.05951E+02 -9.77202E+02  9.55502E+02 -2.41446E+02  1.51771E+03 -3.02359E+02  8.91040E+02  8.65417E+02
  3.43317E+02  6.47064E+02 -3.47371E+02  8.01498E+02 -3.82291E+02  6.20161E+02 -3.97734E+02 -4.21083E+01
 -2.94554E+02 -1.19718E+02 -3.57677E+02  1.70467E+02 -8.40326E+02  2.73174E+02 -1.22501E+03 -2.37950E+02
 -1.44256E+03  2.63809E+02 -3.77188E+02 -1.19294E+03  8.03177E+02 -1.82220E+03  1.04568E+03 -1.55412E+02
  8.16513E+02  1.43708E+02 -1.68112E+02  4.04103E+02 -1.51387E+02  1.16428E+03 -4.95123E+02  6.23762E+02
