 $NMID ID='MM_0lb_SNR800_15hz_g55_60.RAW', FMTDAT='(8E13.5)'
 TRAMP=1., VOLUME=1. $END
  3.09638E+05  4.30767E+02  3.37703E+05  2.50732E+05  8.44104E+04  3.37984E+05 -1.32413E+05  2.51391E+05
 -1.90386E+05  8.31891E+04 -1.11907E+05 -3.25348E+04  5.50608E+02 -5.03380E+04  5.37994E+04 -1.29138E+02
  3.53640E+04  5.28181E+04 -1.67936E+04  7.53154E+04 -6.07332E+04  6.35933E+04 -8.43690E+04  3.20852E+04
 -8.10138E+04 -1.15455E+04 -5.74256E+04 -5.17261E+04 -1.51133E+04 -6.98647E+04  2.76706E+04 -4.59218E+04
  4.01059E+04  3.63769E+03  1.63889E+04  4.76052E+04 -3.42835E+04  4.72928E+04 -6.67316E+04 -3.25986E+02
 -5.32422E+04 -5.70066E+04 -6.96053E+03 -7.72963E+04  3.39267E+04 -5.50569E+04  4.79917E+04 -1.72944E+04
  4.33412E+04  1.12521E+04  3.18016E+04  2.54266E+04  1.58273E+04  2.95136E+04 -5.16817E+03  2.71162E+04
 -2.20270E+04  1.25313E+04 -1.85384E+04 -4.86366E+03  5.38783E+03 -7.34325E+03  2.23545E+04  1.20973E+04
  7.24067E+03  3.56412E+04 -3.23068E+04  3.54289E+04 -6.33722E+04  2.47673E+03 -5.71147E+04 -4.28253E+04
 -1.23424E+04 -6.31987E+04  3.99123E+04 -4.52510E+04  5.80500E+04 -2.46249E+03  3.42565E+04  3.22436E+04
 -5.90983E+03  3.60816E+04 -2.97048E+04  1.58881E+04 -3.06928E+04 -4.23631E+03 -1.66663E+04 -1.07042E+04
 -8.22275E+03 -1.31397E+04 -2.94157E+02 -1.81407E+04  7.49926E+03 -2.29878E+04  1.52780E+04 -1.33441E+04
  1.13630E+04  5.38725E+03 -8.40741E+03  1.31543E+04 -2.11152E+04 -4.47082E+03 -8.56288E+03 -3.39345E+04
  2.28301E+04 -4.33341E+04  4.80121E+04 -1.96061E+04  4.51799E+04  1.96149E+04  1.57133E+04  4.45957E+04
 -1.58527E+04  3.39052E+04 -2.53049E+04  1.69888E+03 -9.65273E+03 -2.80208E+04  2.07338E+04 -3.38778E+04
  4.09047E+04 -9.20008E+03  3.56909E+04  2.36819E+04  1.82052E+04  4.64856E+04 -7.98481E+03  5.00582E+04
 -3.16301E+04  3.37738E+04 -4.20247E+04  9.62846E+03 -4.26066E+04 -1.66296E+04 -2.34563E+04 -3.80215E+04
  7.46305E+03 -3.75912E+04  3.13536E+04 -1.47647E+04  2.95283E+04  1.08419E+04  3.92716E+03  1.95386E+04
 -1.32165E+04  8.42060E+03 -1.04585E+04 -7.56182E+03  5.57329E+03 -1.07172E+04  1.81601E+04  6.14651E+03
  1.37131E+04  2.22378E+04 -5.80998E+03  2.47438E+04 -2.21927E+04  1.14523E+04 -2.77146E+04 -4.53121E+03
 -2.09419E+04 -1.75402E+04 -8.34948E+03 -2.05460E+04  4.17745E+03 -1.98425E+04  1.56243E+04 -1.82217E+04
  2.60355E+04 -1.25433E+04  3.23336E+04  2.40819E+03  2.39156E+04  1.97001E+04  4.42626E+03  3.62087E+04
 -1.75671E+04  3.04665E+04 -2.79302E+04  1.06436E+04 -2.08447E+04 -1.04998E+04 -4.49026E+03 -1.31957E+04
  1.78842E+03 -2.72610E+03 -5.09104E+03  6.51992E+03 -1.59588E+04  5.59242E+03 -1.62856E+04 -7.10320E+03
 -1.02211E+04 -1.88046E+04  5.07720E+03 -2.31205E+04  1.55097E+04 -1.66396E+04  1.80665E+04 -1.87730E+03
  1.12293E+04  1.31535E+04 -9.48604E+02  1.91191E+04 -1.31808E+04  1.08482E+04 -1.89869E+04 -4.19217E+03
 -1.38750E+04 -1.68750E+04 -1.63455E+03 -2.29719E+04  1.05613E+04 -1.84012E+04  1.90431E+04 -9.23987E+03
  1.76778E+04  1.63124E+02  1.29909E+04  4.13588E+03  6.77807E+03  5.86881E+02  9.61230E+03 -1.62694E+03
  1.69842E+04  2.45867E+03  1.91405E+04  1.51517E+04  1.22457E+04  3.00418E+04 -2.95425E+03  3.35501E+04
 -1.95412E+04  2.70004E+04 -3.13627E+04  1.35376E+04 -3.29216E+04 -2.42810E+03 -2.75081E+04 -1.89864E+04
 -1.17071E+04 -2.70750E+04  9.30665E+03 -2.44785E+04  2.08168E+04 -1.27618E+04  1.89603E+04  4.99581E+03
  7.39394E+03  1.41174E+04 -8.94622E+03  1.24609E+04 -1.59808E+04  2.68052E+03 -1.21324E+04 -9.85211E+03
 -1.17472E+02 -1.55029E+04  7.59540E+03 -1.13427E+04  9.82629E+03 -1.20504E+03  2.32180E+03  6.61538E+03
 -6.90320E+03  2.48113E+03 -5.39394E+03 -5.68253E+03 -2.45693E+02 -1.35175E+04  9.58038E+03 -1.43048E+04
  1.62899E+04 -7.07152E+03  1.76751E+04  3.23893E+03  1.53535E+04  1.27808E+04  7.18747E+03  1.99204E+04
 -3.11738E+03  2.14691E+04 -1.34882E+04  1.37512E+04 -1.55219E+04  3.55763E+03 -1.09989E+04 -3.27021E+03
 -5.24736E+03 -4.81753E+03 -8.26291E+02  1.22546E+03 -2.27992E+03  2.43590E+03 -5.07313E+03  4.44294E+03
 -9.99636E+03 -6.87396E+02 -1.11139E+04 -9.22010E+03 -4.32823E+03 -1.43330E+04  4.70185E+03 -1.13904E+04
  9.03883E+03 -4.75227E+03  6.77480E+03  3.21716E+03  5.03731E+02  4.27223E+03 -5.04564E+03  1.69576E+02
 -4.61561E+03 -6.83884E+03 -8.86655E+02 -1.00570E+04  5.85161E+03 -1.07535E+04  1.34841E+04 -5.82412E+03
  1.56921E+04  1.17340E+03  1.15317E+04  9.17719E+03  2.38409E+03  1.24640E+04 -6.61218E+03  1.09093E+04
 -8.61359E+03  3.76276E+03 -4.88391E+03 -2.25096E+03  1.77774E+03 -2.73360E+03  5.98604E+03 -1.08181E+03
  5.28825E+03  4.63807E+03  1.48894E+03  8.73113E+03 -6.30123E+03  8.43409E+03 -1.03225E+04  2.18713E+03
 -6.82196E+03 -5.17269E+03  2.87710E+02 -9.12045E+03  5.33969E+03 -4.52502E+03  5.79570E+03  1.85034E+03
  1.04586E+03  5.38343E+03 -5.55227E+03  6.91515E+03 -8.00120E+03  3.26542E+03 -7.88834E+03 -2.25781E+03
 -4.52729E+03 -9.28218E+03  2.35314E+03 -1.05637E+04  8.89601E+03 -6.81854E+03  9.93668E+03  1.80878E+03
  6.49297E+03  8.00784E+03 -6.24863E+02  9.99885E+03 -7.45751E+03  5.89090E+03 -7.64644E+03 -6.94994E+02
 -7.49757E+03 -6.96671E+03 -1.37519E+03 -7.44449E+03  3.69674E+03 -6.38391E+03  4.64052E+03 -3.26653E+03
  3.36478E+03  1.13425E+03 -3.30564E+02  1.59902E+03 -2.57840E+02 -1.36781E+03  1.09183E+03 -3.66208E+03
  6.34651E+03 -2.04925E+03  8.39747E+03  1.10833E+03  8.67511E+03  5.67405E+03  6.73439E+03  1.14281E+04
 -2.37667E+03  1.32663E+04 -1.15657E+04  1.01091E+04 -1.49041E+04  1.47546E+03 -1.18236E+04 -4.94096E+03
 -6.04198E+03 -9.54385E+03 -3.57698E+02 -8.05469E+03  3.31097E+03 -3.85520E+03  2.67283E+03 -3.08284E+03
  1.69264E+03 -2.40611E+03  2.73725E+03 -2.91473E+03  4.53365E+03 -2.06631E+03  4.92320E+03 -9.15277E+01
  6.08413E+03  1.24991E+03  2.55398E+03  5.20055E+03 -1.55262E+03  5.33347E+03 -6.50224E+03  4.45172E+03
 -7.82294E+03 -1.09420E+03 -3.91072E+03 -5.12369E+03 -9.49002E+01 -8.32800E+03  4.85037E+03 -8.81640E+03
  8.56878E+03 -4.74008E+03  1.05675E+04  8.68132E+02  7.55067E+03  7.13643E+03  1.23533E+03  9.47512E+03
 -3.57150E+03  8.38748E+03 -5.58876E+03  2.78795E+03 -3.53585E+03 -1.33575E+03 -1.21253E+03 -1.19199E+03
 -7.66200E+02  4.39168E+02 -1.13000E+03  2.20751E+03 -3.61087E+03  1.69888E+03 -5.94969E+03 -7.65037E+02
 -3.32684E+03 -5.85693E+03  3.85898E+02 -7.25724E+03  4.45808E+03 -7.09900E+03  6.34354E+03 -2.20487E+03
  6.82925E+03  3.78661E+03  3.22958E+03  5.99215E+03 -1.39438E+03  7.47027E+03 -4.73701E+03  4.32718E+03
 -6.60526E+03  4.80642E+02 -5.33732E+03 -4.24766E+03 -2.55746E+02 -5.77391E+03  2.95344E+03 -4.28906E+03
  4.79509E+03 -1.76365E+03  3.07534E+03  9.69284E+02  1.17629E+03  2.31702E+03  1.05345E+03  8.55493E+02
  1.94260E+03  8.42770E+02  1.65998E+03  1.34312E+03  2.03033E+03  3.33026E+03  2.12819E+03  3.30124E+03
 -1.95790E+03  5.37065E+03 -4.53167E+03  6.25171E+03 -6.35920E+03  1.68222E+03 -7.16892E+03 -1.95149E+03
 -3.07438E+03 -6.52392E+03  9.72276E+02 -7.81061E+03  3.56564E+03 -4.78765E+03  5.51103E+03 -1.29414E+03
  4.28821E+03  2.60048E+03  8.91628E+02  3.96752E+03 -1.90040E+03  2.67270E+03 -2.47463E+03 -3.48879E+02
 -1.10455E+03 -2.77202E+03  1.89174E+03 -2.96533E+03  2.69480E+03 -1.18307E+03  2.70951E+03  4.61144E+02
  1.60715E+03  9.42446E+02  8.82164E+02  3.95013E+02 -2.96809E+02  1.25326E+03  1.42725E+03 -4.06988E+02
  4.56965E+02 -5.58897E+02  3.07277E+03  8.83051E+02  1.37623E+03  3.62378E+03 -6.73291E+02  5.03288E+03
 -2.97133E+03  2.78291E+03 -4.10802E+03  5.94686E+02 -3.82251E+03 -1.29840E+03 -1.19300E+03 -1.91737E+03
  5.24155E+02 -2.39140E+03  1.71045E+03 -1.41671E+03  1.27022E+03  1.53832E+03 -6.60089E+02  2.44990E+03
 -2.59741E+03  1.18053E+03 -2.50935E+03 -1.71599E+03 -1.47948E+03 -3.53941E+03  5.32070E+02 -3.02699E+03
  1.67239E+03 -1.63106E+03  1.92202E+03 -2.61974E+02  2.20929E+03  3.49041E+02  4.99903E+02  1.83435E+03
 -9.54808E+02  2.67632E+02 -1.63559E+03 -5.57681E+02  1.10122E+03 -2.25915E+03  3.04341E+03 -2.08696E+03
  3.52104E+03  1.95177E+02  4.34691E+03  2.07086E+03  1.82059E+03  3.58421E+03 -1.22647E+03  3.43921E+03
 -3.10726E+03  1.23671E+03 -2.96217E+03 -2.90929E+02 -1.48493E+03 -2.51166E+03  8.37203E+02 -1.78530E+03
  2.73772E+03 -1.39846E+03  1.87570E+03  8.86120E+02  4.11924E+02  2.28501E+03  1.02448E+02  2.06888E+03
 -7.88159E+02  1.37254E+03 -5.35164E+02  3.61421E+02 -3.09563E+02  2.29583E+02 -1.07618E+03  7.45189E+02
 -1.05732E+03  1.35952E+03 -2.69594E+03  1.39882E+03 -3.19768E+03  1.65323E+02 -4.43122E+03 -1.90345E+03
 -1.98439E+03 -4.36177E+03  8.46367E+02 -5.59407E+03  2.85895E+03 -4.67914E+03  5.25796E+03 -1.76314E+03
  4.65570E+03  5.67228E+02  3.07750E+03  3.52426E+03 -5.20062E+02  3.75801E+03 -1.29510E+03  2.83142E+03
 -2.08117E+03  9.68879E+02 -1.26021E+03 -6.13766E+02 -4.75144E+02  1.92994E+01 -6.74954E+02  1.04970E+02
 -1.25650E+03  7.70194E+01 -1.21030E+03 -3.07835E+02 -1.39765E+02 -9.19270E+02 -5.71193E+02 -1.66026E+03
  1.74113E+03 -1.20411E+03  1.54544E+03  3.75967E+01  2.50967E+03  1.84411E+03 -9.80321E+00  3.26074E+03
 -1.65652E+03  4.18391E+03 -3.55673E+03  2.45031E+03 -4.27314E+03 -4.70029E+02 -3.01691E+03 -2.60555E+03
 -1.63475E+03 -3.01748E+03  6.24982E+02 -2.84704E+03  1.82426E+03 -1.30320E+03  1.71100E+03  9.45536E+01
  1.08244E+03  1.15393E+03  1.92288E+02  9.51089E+02 -6.68944E+02  1.98329E+02 -2.72782E+02 -6.87676E+02
  1.01679E+03 -3.05574E+02  1.22421E+03  7.04492E+02  4.18639E+02  8.65214E+02  4.24338E+02  9.14865E+02
 -1.47607E+03  1.18099E+03 -1.60829E+03  4.71136E+02 -1.83701E+03 -1.33670E+03  4.66437E+01 -2.38380E+03
  1.42201E+03 -1.68862E+03  1.96074E+03 -4.54606E+02  2.15412E+03 -2.48661E+02  1.14759E+03  1.61797E+03
  8.16562E+02  1.39676E+03 -7.32875E+02  1.25458E+03 -1.13401E+03  1.26801E+03 -9.29495E+02 -4.63773E+01
 -6.91975E+02 -3.36557E+02 -9.37686E+02  2.84757E+02 -1.06615E+03  1.68461E+02 -1.45064E+03 -2.69291E+02
 -1.47498E+03 -4.96716E+02 -6.65518E+02 -1.84222E+03  1.09520E+03 -2.57206E+03  1.38011E+03 -6.96079E+02
  1.44173E+03  3.52648E+02  1.47734E+02  1.16651E+03 -1.89361E+02  1.99961E+03 -1.35176E+03  1.28775E+03
