 $NMID ID='MM_0lb_SNR800_14hz_g45_10.RAW', FMTDAT='(8E13.5)'
 TRAMP=1., VOLUME=1. $END
  3.09899E+05  4.50926E+02  3.37465E+05  2.50476E+05  8.47220E+04  3.37637E+05 -1.32649E+05  2.51206E+05
 -1.90139E+05  8.29612E+04 -1.12155E+05 -3.23991E+04  9.27675E+02 -5.05312E+04  5.36544E+04 -1.08302E+02
  3.52133E+04  5.30137E+04 -1.69958E+04  7.50309E+04 -6.07073E+04  6.36611E+04 -8.41010E+04  3.19607E+04
 -8.09300E+04 -1.12982E+04 -5.66973E+04 -5.10988E+04 -1.51660E+04 -6.94879E+04  2.74796E+04 -4.57308E+04
  3.97765E+04  3.97236E+03  1.61121E+04  4.77425E+04 -3.43652E+04  4.73445E+04 -6.64235E+04 -1.49168E+02
 -5.31947E+04 -5.66636E+04 -6.45846E+03 -7.70049E+04  3.37452E+04 -5.44022E+04  4.75392E+04 -1.69493E+04
  4.31551E+04  1.11057E+04  3.14857E+04  2.51326E+04  1.58698E+04  2.90259E+04 -5.22539E+03  2.70721E+04
 -2.18860E+04  1.26136E+04 -1.87609E+04 -4.95841E+03  5.40778E+03 -7.29210E+03  2.19430E+04  1.19329E+04
  7.09231E+03  3.53182E+04 -3.20155E+04  3.48790E+04 -6.28681E+04  2.42553E+03 -5.69186E+04 -4.26859E+04
 -1.24171E+04 -6.30869E+04  3.95250E+04 -4.49304E+04  5.78069E+04 -2.38176E+03  3.40293E+04  3.21772E+04
 -5.96751E+03  3.58277E+04 -3.00228E+04  1.55783E+04 -3.00937E+04 -4.56503E+03 -1.61924E+04 -1.07112E+04
 -8.29676E+03 -1.28727E+04 -8.05146E+02 -1.78490E+04  7.20749E+03 -2.29657E+04  1.52421E+04 -1.36139E+04
  1.15959E+04  5.19108E+03 -7.82658E+03  1.31173E+04 -2.10166E+04 -4.38130E+03 -8.34742E+03 -3.34826E+04
  2.24178E+04 -4.32410E+04  4.75305E+04 -1.96994E+04  4.43576E+04  1.94787E+04  1.54500E+04  4.37864E+04
 -1.58790E+04  3.29792E+04 -2.53130E+04  1.93099E+03 -9.88705E+03 -2.77740E+04  2.12236E+04 -3.35934E+04
  4.06506E+04 -8.94560E+03  3.53159E+04  2.37845E+04  1.80099E+04  4.59878E+04 -7.99827E+03  4.96893E+04
 -3.12930E+04  3.32134E+04 -4.13096E+04  9.62574E+03 -4.21545E+04 -1.67024E+04 -2.32463E+04 -3.77175E+04
  7.30638E+03 -3.76488E+04  3.14131E+04 -1.44336E+04  2.87775E+04  1.10246E+04  3.86937E+03  1.89414E+04
 -1.33490E+04  8.27201E+03 -1.02223E+04 -7.61937E+03  5.82454E+03 -1.05968E+04  1.76744E+04  6.28309E+03
  1.33988E+04  2.21123E+04 -6.00535E+03  2.49664E+04 -2.20461E+04  1.15633E+04 -2.76362E+04 -4.86318E+03
 -2.06122E+04 -1.74060E+04 -8.26647E+03 -2.00728E+04  4.03918E+03 -1.92995E+04  1.52088E+04 -1.80507E+04
  2.58562E+04 -1.26539E+04  3.18974E+04  2.69463E+03  2.38948E+04  1.95451E+04  3.93227E+03  3.60286E+04
 -1.75771E+04  3.00041E+04 -2.78355E+04  1.06123E+04 -2.07959E+04 -1.01827E+04 -4.35623E+03 -1.35721E+04
  1.68894E+03 -2.71605E+03 -4.53022E+03  6.55865E+03 -1.59353E+04  4.88853E+03 -1.58597E+04 -6.65754E+03
 -9.81167E+03 -1.85829E+04  5.08017E+03 -2.26230E+04  1.50616E+04 -1.62301E+04  1.78139E+04 -1.40836E+03
  1.10669E+04  1.31359E+04 -1.28391E+03  1.88078E+04 -1.26638E+04  1.06311E+04 -1.89084E+04 -4.20506E+03
 -1.33913E+04 -1.66612E+04 -1.79725E+03 -2.25669E+04  1.02801E+04 -1.86465E+04  1.87104E+04 -9.26052E+03
  1.74430E+04  2.68425E+02  1.24497E+04  4.32453E+03  6.75013E+03  8.38356E+02  9.46052E+03 -1.90318E+03
  1.74576E+04  2.90466E+03  1.88760E+04  1.49524E+04  1.25763E+04  2.97513E+04 -3.15494E+03  3.34830E+04
 -1.92649E+04  2.70882E+04 -3.11117E+04  1.28904E+04 -3.25276E+04 -2.04944E+03 -2.70024E+04 -1.88883E+04
 -1.16453E+04 -2.69334E+04  9.03382E+03 -2.45193E+04  2.07338E+04 -1.25819E+04  1.88437E+04  5.10817E+03
  7.36221E+03  1.40857E+04 -8.89756E+03  1.24974E+04 -1.63114E+04  2.64428E+03 -1.21214E+04 -9.80249E+03
 -1.41705E+02 -1.48925E+04  8.00129E+03 -1.12644E+04  9.89373E+03 -1.02824E+03  2.17336E+03  6.48593E+03
 -7.11193E+03  2.71204E+03 -5.48694E+03 -5.74504E+03 -1.41050E+02 -1.30848E+04  9.55873E+03 -1.37842E+04
  1.61837E+04 -7.11362E+03  1.70276E+04  2.87468E+03  1.50487E+04  1.28051E+04  6.92291E+03  2.00417E+04
 -3.26514E+03  2.15851E+04 -1.36086E+04  1.36140E+04 -1.55728E+04  3.16622E+03 -1.11099E+04 -3.32880E+03
 -5.48529E+03 -4.60122E+03 -8.31752E+02  9.45455E+02 -2.06887E+03  2.24556E+03 -4.96789E+03  4.42865E+03
 -1.04139E+04 -8.23073E+02 -1.08840E+04 -8.83515E+03 -4.02833E+03 -1.41882E+04  4.29388E+03 -1.11228E+04
  9.47114E+03 -4.51961E+03  6.60811E+03  3.14844E+03  1.19079E+02  4.12732E+03 -4.87246E+03 -3.18250E+02
 -4.66282E+03 -6.81708E+03 -1.15962E+03 -1.01087E+04  5.90374E+03 -1.10911E+04  1.34113E+04 -6.00348E+03
  1.60573E+04  1.30858E+03  1.20007E+04  8.67175E+03  2.36538E+03  1.24964E+04 -7.01970E+03  1.08246E+04
 -8.97249E+03  3.53637E+03 -4.87076E+03 -1.87522E+03  1.60293E+03 -2.96461E+03  6.06022E+03 -1.11590E+03
  5.16186E+03  4.92941E+03  1.36391E+03  8.78034E+03 -6.15042E+03  7.89323E+03 -1.06868E+04  2.06757E+03
 -7.18169E+03 -5.03454E+03  4.62741E+02 -9.10056E+03  5.32298E+03 -4.89080E+03  5.55502E+03  1.29980E+03
  1.02993E+03  5.91988E+03 -5.74362E+03  7.06247E+03 -7.83076E+03  3.43673E+03 -7.86451E+03 -2.49655E+03
 -4.66350E+03 -9.24502E+03  1.93284E+03 -1.09738E+04  9.60074E+03 -6.65085E+03  1.01845E+04  1.72618E+03
  6.49054E+03  8.14141E+03 -2.29250E+02  1.02395E+04 -7.49516E+03  5.87580E+03 -7.96951E+03 -8.60337E+02
 -7.47252E+03 -6.67522E+03 -1.56291E+03 -7.35991E+03  3.90707E+03 -6.27703E+03  4.79772E+03 -3.14613E+03
  3.47243E+03  9.73146E+02 -3.58160E+02  1.86547E+03 -4.82791E+01 -1.44789E+03  7.45277E+02 -3.84151E+03
  6.24065E+03 -2.21647E+03  8.96447E+03  1.38002E+03  9.08426E+03  6.04928E+03  6.96920E+03  1.13416E+04
 -2.22451E+03  1.37214E+04 -1.18313E+04  1.02495E+04 -1.53427E+04  1.78686E+03 -1.22984E+04 -4.98808E+03
 -6.50014E+03 -1.01660E+04 -7.38211E+02 -8.60729E+03  2.84596E+03 -4.47594E+03  2.93246E+03 -3.13405E+03
  2.14895E+03 -2.15005E+03  2.57729E+03 -2.73411E+03  4.29382E+03 -2.13111E+03  5.40581E+03 -1.44809E+02
  6.64926E+03  1.70392E+03  2.50770E+03  5.32014E+03 -1.98994E+03  5.55748E+03 -6.85200E+03  4.69209E+03
 -8.16011E+03 -1.14065E+03 -4.10967E+03 -5.74030E+03 -3.80996E+02 -8.45410E+03  5.05709E+03 -8.98509E+03
  8.92522E+03 -5.03213E+03  1.10140E+04  9.34894E+02  7.95941E+03  7.61560E+03  1.79434E+03  1.01174E+04
 -3.81635E+03  8.81345E+03 -5.62800E+03  2.90080E+03 -3.91496E+03 -1.54597E+03 -1.46505E+03 -1.15740E+03
 -6.23985E+02  2.73518E+02 -1.35493E+03  2.33082E+03 -3.85541E+03  1.36675E+03 -6.02825E+03 -9.37113E+02
 -3.41227E+03 -6.23466E+03  4.92139E+02 -8.09104E+03  5.00073E+03 -7.48140E+03  7.17057E+03 -2.27960E+03
  7.73986E+03  3.98600E+03  3.45321E+03  6.38241E+03 -1.58407E+03  8.10544E+03 -5.38639E+03  4.68985E+03
 -7.23058E+03  6.01749E+02 -5.72712E+03 -4.48706E+03 -3.61065E+02 -6.41781E+03  3.12290E+03 -4.70251E+03
  5.04409E+03 -1.57853E+03  3.10116E+03  1.12959E+03  8.48993E+02  2.46884E+03  1.09998E+03  1.14545E+03
  1.79487E+03  5.86048E+02  2.13666E+03  1.22868E+03  2.13744E+03  3.00165E+03  2.25583E+03  3.52414E+03
 -1.61500E+03  5.69321E+03 -5.21324E+03  6.35026E+03 -6.79014E+03  1.55973E+03 -7.75021E+03 -2.16080E+03
 -3.75109E+03 -7.11978E+03  8.88181E+02 -8.34095E+03  4.24855E+03 -5.17519E+03  5.93034E+03 -1.18222E+03
  4.46263E+03  2.98899E+03  9.20259E+02  4.22197E+03 -1.83933E+03  2.83726E+03 -2.22429E+03 -2.88788E+02
 -1.07842E+03 -2.89700E+03  1.78137E+03 -3.29342E+03  2.81325E+03 -1.62835E+03  2.68866E+03  6.92640E+02
  1.69566E+03  1.18648E+03  9.74793E+02  5.11459E+02 -3.62575E+02  1.32196E+03  1.53130E+03 -4.98274E+02
  3.54729E+02 -3.99484E+02  2.96151E+03  1.21827E+03  1.16468E+03  4.04702E+03 -7.20501E+02  5.37084E+03
 -3.26367E+03  2.89350E+03 -4.59715E+03  7.76774E+02 -4.23945E+03 -1.63843E+03 -1.22634E+03 -2.50396E+03
  4.22379E+02 -2.76260E+03  1.84091E+03 -9.68647E+02  1.50677E+03  2.04195E+03 -1.23778E+03  2.49666E+03
 -2.96929E+03  1.59659E+03 -3.34995E+03 -2.15558E+03 -1.57076E+03 -3.98894E+03  6.50406E+02 -3.57249E+03
  1.74907E+03 -1.70880E+03  2.37814E+03 -9.25327E+01  2.56660E+03  7.38986E+02  1.76753E+02  1.83566E+03
 -1.35135E+03  5.70571E+02 -2.11019E+03 -9.33848E+02  6.64500E+02 -2.30321E+03  3.38839E+03 -2.02620E+03
  3.55542E+03  4.01212E+02  4.55080E+03  2.41795E+03  1.52933E+03  3.92162E+03 -1.15786E+03  4.32557E+03
 -3.25575E+03  1.53189E+03 -3.67873E+03 -5.24017E+02 -1.64819E+03 -2.76108E+03  7.27134E+02 -2.07735E+03
  3.00893E+03 -1.43438E+03  2.06879E+03  1.41826E+03  8.69358E+02  2.43217E+03  2.84227E+02  2.24679E+03
 -9.59749E+02  1.42345E+03 -1.03897E+03  3.29383E+02 -1.70290E+02  6.58687E+02 -8.24969E+02  9.55061E+02
 -1.28023E+03  1.85318E+03 -3.00935E+03  1.29780E+03 -4.06139E+03  4.95674E+02 -4.90822E+03 -2.38992E+03
 -2.39610E+03 -5.52052E+03  1.23412E+03 -6.38983E+03  3.27438E+03 -4.86065E+03  6.11845E+03 -1.96989E+03
  5.29498E+03  8.12276E+02  2.89824E+03  3.55177E+03 -2.72646E+01  3.94707E+03 -1.50496E+03  3.17272E+03
 -2.12707E+03  1.44463E+03 -1.38932E+03 -1.81871E+02 -6.95973E+02  2.88527E+01 -8.60410E+02  2.10445E+01
 -1.38922E+03  1.45540E+01 -1.67515E+03  1.20738E+02  3.27996E+02 -1.14731E+03 -2.73935E+02 -1.39630E+03
  1.97823E+03 -1.47195E+03  2.00678E+03  8.22320E+01  2.94456E+03  2.45110E+03  1.57651E+02  3.98283E+03
 -2.12749E+03  4.62063E+03 -3.95555E+03  3.09410E+03 -4.65774E+03 -4.60179E+02 -3.83005E+03 -2.70448E+03
 -1.73374E+03 -4.10025E+03  9.68800E+02 -3.44700E+03  2.40022E+03 -1.83442E+03  2.09241E+03  1.80833E+02
  1.76088E+03  1.37172E+03  6.72615E+01  1.14553E+03 -9.96907E+02 -7.82123E+01 -4.00323E+01 -1.23996E+03
  1.32963E+03 -2.78296E+02  1.31392E+03  8.43186E+02  6.57452E+02  1.08265E+03  2.64680E+02  1.83382E+03
 -1.74862E+03  1.67811E+03 -2.05367E+03  1.37854E+02 -2.23387E+03 -1.67251E+03 -2.75051E+02 -3.22813E+03
  1.84565E+03 -2.40075E+03  2.53230E+03 -5.75787E+02  2.73601E+03  1.38574E+01  1.62254E+03  1.98022E+03
  2.94769E+02  2.18817E+03 -8.70349E+02  1.71417E+03 -1.64995E+03  1.27546E+03 -9.69836E+02  3.99926E+02
 -7.04142E+02  4.60799E+01 -9.13666E+02  4.49667E+02 -1.22543E+03  4.57381E+02 -1.85048E+03 -3.68975E+02
 -1.67745E+03 -1.01891E+03 -5.54984E+02 -2.46443E+03  1.69677E+03 -3.25398E+03  2.09402E+03 -1.08998E+03
  1.91161E+03  2.22698E+02  6.47089E+02  1.54145E+03 -4.59799E+02  2.41447E+03 -1.42478E+03  1.54173E+03
