 $NMID ID='MM_0lb_SNR800_9hz_g60_100.RAW', FMTDAT='(8E13.5)'
 TRAMP=1., VOLUME=1. $END
  3.09784E+05  1.96093E+02  3.38138E+05  2.51127E+05  8.47887E+04  3.38464E+05 -1.32731E+05  2.51554E+05
 -1.90895E+05  8.38860E+04 -1.13211E+05 -3.24647E+04  5.43412E+02 -5.05986E+04  5.34809E+04 -1.63361E+02
  3.54253E+04  5.27566E+04 -1.64914E+04  7.64267E+04 -6.12725E+04  6.46348E+04 -8.54334E+04  3.26762E+04
 -8.24916E+04 -1.16763E+04 -5.84875E+04 -5.27153E+04 -1.49599E+04 -7.16122E+04  2.85672E+04 -4.74948E+04
  4.08885E+04  3.58663E+03  1.68546E+04  4.89651E+04 -3.50825E+04  4.82681E+04 -6.84926E+04 -1.43246E+02
 -5.52459E+04 -5.77843E+04 -7.27745E+03 -7.95492E+04  3.50681E+04 -5.73856E+04  5.03168E+04 -1.86393E+04
  4.56713E+04  1.15306E+04  3.30848E+04  2.70899E+04  1.59852E+04  3.11429E+04 -5.87318E+03  2.81827E+04
 -2.25414E+04  1.16410E+04 -1.80610E+04 -6.27276E+03  7.40375E+03 -7.67245E+03  2.39308E+04  1.43639E+04
  7.41788E+03  3.80579E+04 -3.43645E+04  3.74048E+04 -6.62669E+04  2.46685E+03 -5.91051E+04 -4.47825E+04
 -1.28570E+04 -6.64152E+04  4.20243E+04 -4.84957E+04  6.21702E+04 -2.24452E+03  3.71142E+04  3.48318E+04
 -5.38680E+03  4.06563E+04 -3.22667E+04  1.99051E+04 -3.42169E+04 -2.78999E+03 -1.97710E+04 -1.19433E+04
 -9.93799E+03 -1.56643E+04 -1.27920E+02 -2.02591E+04  8.81492E+03 -2.38944E+04  1.59181E+04 -1.24462E+04
  1.03440E+04  6.60670E+03 -1.13969E+04  1.25988E+04 -2.42511E+04 -7.57846E+03 -8.50041E+03 -3.76316E+04
  2.56649E+04 -4.78694E+04  5.29785E+04 -2.14139E+04  4.91312E+04  2.12841E+04  1.73551E+04  4.78249E+04
 -1.66448E+04  3.68112E+04 -2.77353E+04  2.49416E+03 -1.19030E+04 -2.93894E+04  2.13094E+04 -3.78748E+04
  4.53393E+04 -1.14292E+04  4.18768E+04  2.50500E+04  2.20208E+04  5.19586E+04 -8.60311E+03  5.78603E+04
 -3.64965E+04  3.91488E+04 -4.90344E+04  1.15681E+04 -4.87837E+04 -1.89836E+04 -2.67570E+04 -4.31929E+04
  7.66934E+03 -4.29893E+04  3.50905E+04 -1.82146E+04  3.27090E+04  1.07631E+04  5.77583E+03  2.12723E+04
 -1.36770E+04  9.91700E+03 -1.14669E+04 -7.67275E+03  5.50152E+03 -1.15422E+04  1.92624E+04  5.29746E+03
  1.51493E+04  2.27104E+04 -5.29494E+03  2.73728E+04 -2.36476E+04  1.51619E+04 -3.21609E+04 -2.19195E+03
 -2.65572E+04 -1.87427E+04 -1.22337E+04 -2.58128E+04  4.59304E+03 -2.68957E+04  2.05341E+04 -2.40939E+04
  3.34286E+04 -1.46724E+04  3.87764E+04  5.23891E+03  2.77016E+04  2.51834E+04  4.39410E+03  4.26401E+04
 -2.01027E+04  3.46862E+04 -3.13069E+04  1.22042E+04 -2.29395E+04 -1.03113E+04 -5.88402E+03 -1.25347E+04
  4.28368E+02 -5.87210E+02 -7.79808E+03  8.45555E+03 -2.15226E+04  4.65070E+03 -2.06627E+04 -1.02870E+04
 -1.23534E+04 -2.44081E+04  6.43866E+03 -2.89238E+04  1.97225E+04 -2.03138E+04  2.34598E+04 -1.76641E+03
  1.50422E+04  1.72022E+04 -1.15256E+03  2.42899E+04 -1.78530E+04  1.40821E+04 -2.44000E+04 -4.88941E+03
 -1.83430E+04 -2.21897E+04 -2.20741E+03 -2.87721E+04  1.27200E+04 -2.44618E+04  2.37655E+04 -1.31473E+04
  2.30911E+04 -5.70036E+02  1.64533E+04  5.46861E+03  9.44816E+03  1.39581E+03  1.26830E+04 -1.92251E+03
  2.28900E+04  2.78890E+03  2.64525E+04  1.88358E+04  1.86506E+04  3.92373E+04 -2.68078E+03  4.68847E+04
 -2.66539E+04  3.89790E+04 -4.38280E+04  2.03452E+04 -4.73324E+04 -3.37742E+03 -3.79789E+04 -2.77729E+04
 -1.50109E+04 -3.90325E+04  1.38110E+04 -3.41512E+04  2.90799E+04 -1.57423E+04  2.47736E+04  8.19261E+03
  8.29727E+03  1.97632E+04 -1.20469E+04  1.63398E+04 -2.09319E+04  2.43895E+03 -1.56443E+04 -1.35235E+04
 -6.36566E+02 -1.98142E+04  1.10353E+04 -1.51524E+04  1.41713E+04 -1.54835E+03  3.56834E+03  9.35266E+03
 -8.96642E+03  4.56847E+03 -9.64765E+03 -7.40313E+03 -1.89861E+03 -1.88909E+04  1.23476E+04 -2.06624E+04
  2.39180E+04 -1.17821E+04  2.75079E+04  3.64861E+03  2.43684E+04  1.95188E+04  1.12711E+04  3.10461E+04
 -5.87753E+03  3.30009E+04 -2.14123E+04  2.03996E+04 -2.40632E+04  3.93643E+03 -1.61997E+04 -6.11345E+03
 -6.88833E+03 -7.56107E+03 -7.92782E+02  4.76924E+01 -3.14688E+03  3.84207E+03 -7.80416E+03  5.59124E+03
 -1.50719E+04 -1.22638E+03 -1.54202E+04 -1.24760E+04 -5.84930E+03 -2.04640E+04  6.73242E+03 -1.66108E+04
  1.33958E+04 -6.65713E+03  9.67727E+03  4.51973E+03 -6.04818E+02  6.40084E+03 -8.34240E+03  7.08107E+00
 -8.46016E+03 -1.04482E+04 -1.29130E+03 -1.64482E+04  9.81887E+03 -1.70992E+04  2.16241E+04 -9.44873E+03
  2.49695E+04  2.58275E+03  1.82509E+04  1.51979E+04  3.56461E+03  2.06288E+04 -1.00420E+04  1.66238E+04
 -1.34989E+04  4.49536E+03 -6.66236E+03 -3.51308E+03  2.56803E+03 -4.89350E+03  8.83981E+03 -1.30076E+03
  8.03997E+03  7.29710E+03  1.28320E+03  1.32621E+04 -1.00168E+04  1.30488E+04 -1.65928E+04  2.82273E+03
 -1.12716E+04 -8.57936E+03 -2.30004E+02 -1.45498E+04  9.39779E+03 -7.38154E+03  1.04510E+04  3.46604E+03
  2.85283E+03  1.07783E+04 -8.82543E+03  1.26791E+04 -1.50302E+04  5.22018E+03 -1.49353E+04 -5.28304E+03
 -8.85505E+03 -1.68485E+04  4.30166E+03 -1.97183E+04  1.64833E+04 -1.18412E+04  1.79060E+04  3.03673E+03
  1.07873E+04  1.42552E+04 -2.14986E+03  1.70381E+04 -1.26413E+04  9.49207E+03 -1.34309E+04 -1.24311E+03
 -1.14220E+04 -1.12600E+04 -1.58017E+03 -1.31105E+04  7.17107E+03 -1.05798E+04  8.21537E+03 -4.18993E+03
  5.20809E+03  2.92578E+03 -1.72953E+03  2.02704E+03 -8.69035E+02 -3.68597E+03  2.93799E+03 -8.42256E+03
  1.24704E+04 -5.86731E+03  1.73040E+04  2.11218E+03  1.68044E+04  1.18014E+04  1.05966E+04  2.25593E+04
 -5.63700E+03  2.58987E+04 -2.13982E+04  1.92665E+04 -2.74952E+04  3.58006E+03 -2.26856E+04 -1.00263E+04
 -1.09431E+04 -1.83644E+04 -3.55188E+02 -1.58432E+04  5.75383E+03 -8.74239E+03  5.77549E+03 -5.83072E+03
  4.10112E+03 -3.27740E+03  4.41273E+03 -3.82295E+03  5.95366E+03 -4.02453E+03  8.46487E+03 -1.15441E+03
  1.15657E+04  2.55286E+03  6.32425E+03  1.03432E+04 -2.21315E+03  1.24737E+04 -1.18268E+04  9.50210E+03
 -1.62052E+04 -1.23332E+03 -1.03183E+04 -1.09539E+04 -1.33918E+03 -1.72410E+04  9.25742E+03 -1.71164E+04
  1.79353E+04 -9.38159E+03  2.08429E+04  2.88546E+03  1.48239E+04  1.50866E+04  2.26634E+03  1.90010E+04
 -8.24772E+03  1.51995E+04 -1.10853E+04  5.44885E+03 -7.78960E+03 -2.11964E+03 -3.53505E+03 -2.17391E+03
 -1.45255E+03  2.42639E+02 -2.64203E+03  3.13954E+03 -6.32535E+03  2.53923E+03 -1.04429E+04 -1.53845E+03
 -8.08107E+03 -1.04189E+04 -3.27092E+02 -1.63207E+04  9.93922E+03 -1.45900E+04  1.58227E+04 -4.75956E+03
  1.58614E+04  7.42912E+03  7.42421E+03  1.40802E+04 -2.85642E+03  1.61592E+04 -1.14029E+04  1.00460E+04
 -1.52858E+04  3.59791E+02 -1.15889E+04 -9.71267E+03 -1.29700E+03 -1.33336E+04  6.70453E+03 -9.83349E+03
  1.01028E+04 -2.95048E+03  6.96895E+03  2.74280E+03  2.58531E+03  4.71339E+03  1.73367E+03  2.15690E+03
  3.05555E+03  1.24898E+03  3.93585E+03  1.79544E+03  4.65756E+03  5.23649E+03  3.89405E+03  8.83905E+03
 -3.54925E+03  1.27112E+04 -1.15565E+04  1.27540E+04 -1.64515E+04  3.39245E+03 -1.71831E+04 -6.82101E+03
 -7.68058E+03 -1.65340E+04  2.43825E+03 -1.77544E+04  9.54342E+03 -1.14824E+04  1.32367E+04 -2.97780E+03
  1.05274E+04  5.89062E+03  2.26119E+03  9.50691E+03 -4.63567E+03  6.44445E+03 -7.07392E+03 -1.06992E+03
 -2.74129E+03 -7.03208E+03  3.91948E+03 -7.01762E+03  6.62554E+03 -3.80926E+03  6.59716E+03  1.23539E+03
  4.24761E+03  3.16428E+03  1.54724E+03  2.74594E+03 -1.33372E+03  2.26090E+03  1.04236E+03 -7.15035E+02
  2.73552E+03 -1.04351E+03  6.49723E+03  2.46177E+03  3.94900E+03  8.96903E+03 -1.63064E+03  1.15534E+04
 -8.11588E+03  7.60612E+03 -1.07714E+04  2.02323E+03 -9.18427E+03 -3.63790E+03 -3.84678E+03 -6.46372E+03
  9.44663E+02 -6.57080E+03  4.37711E+03 -3.07799E+03  3.83207E+03  3.37162E+03 -2.01812E+03  5.45834E+03
 -6.68732E+03  3.63829E+03 -7.84344E+03 -3.99221E+03 -4.77100E+03 -8.89542E+03  1.16613E+03 -9.08101E+03
  5.23671E+03 -5.50143E+03  6.73862E+03 -9.58210E+02  5.65633E+03  2.62077E+03  7.00386E+02  4.82014E+03
 -2.91793E+03  1.79693E+03 -4.29288E+03 -2.69086E+03  1.54583E+03 -7.48310E+03  8.17728E+03 -5.78084E+03
  1.05503E+04  1.00178E+03  1.02210E+04  7.15996E+03  3.08866E+03  1.12355E+04 -4.14920E+03  1.05551E+04
 -8.90096E+03  4.55953E+03 -9.08770E+03 -1.56655E+03 -5.02552E+03 -7.26789E+03  2.04513E+03 -6.80344E+03
  6.32109E+03 -3.16457E+03  6.37170E+03  2.84490E+03  1.52333E+03  6.06893E+03 -5.28273E+02  5.16843E+03
 -2.85435E+03  3.45028E+03 -2.62297E+03  1.27532E+03 -1.41908E+03  1.60854E+03 -1.29920E+03  2.05255E+03
 -3.16241E+03  4.04274E+03 -7.64219E+03  3.74014E+03 -1.08329E+04  3.62979E+02 -1.23967E+04 -6.66432E+03
 -6.28584E+03 -1.45579E+04  3.01938E+03 -1.66026E+04  1.01073E+04 -1.30392E+04  1.56164E+04 -4.94949E+03
  1.46549E+04  3.13468E+03  9.04353E+03  9.84862E+03  1.17563E+03  1.18770E+04 -4.52062E+03  8.53449E+03
 -6.08215E+03  3.12336E+03 -4.03194E+03 -1.00016E+03 -1.38196E+03 -1.31674E+03 -5.36079E+02 -3.16205E+02
 -1.86540E+03  5.86331E+02 -2.05384E+03 -7.44353E+02 -1.08121E+03 -2.35943E+03  7.96707E+02 -4.46862E+03
  4.94256E+03 -3.64093E+03  6.86898E+03  1.56477E+02  8.20289E+03  5.97609E+03  2.36606E+03  1.10706E+04
 -5.02235E+03  1.26192E+04 -1.16545E+04  7.09957E+03 -1.39337E+04 -1.26425E+03 -1.03252E+04 -8.56742E+03
 -4.23307E+03 -1.13732E+04  2.82287E+03 -1.05373E+04  7.13571E+03 -5.90504E+03  7.17569E+03  3.50145E+02
  3.71257E+03  4.10610E+03 -6.61303E+02  3.19555E+03 -2.02244E+03 -4.26792E+02  2.79434E+02 -2.50111E+03
  3.58539E+03 -1.77234E+03  4.29476E+03  1.35349E+03  2.80745E+03  4.67357E+03 -7.06525E+01  5.91636E+03
 -4.92474E+03  4.80311E+03 -7.36328E+03  3.46604E+02 -6.93868E+03 -5.65346E+03 -1.01991E+03 -9.62514E+03
  5.13936E+03 -7.95853E+03  9.06201E+03 -2.67230E+03  8.23024E+03  2.66306E+03  5.07681E+03  6.95275E+03
  7.91228E+02  7.59044E+03 -2.73589E+03  6.26175E+03 -4.93051E+03  3.46067E+03 -3.78419E+03  3.14696E+02
 -2.12687E+03 -4.14339E+02 -2.07644E+03  6.29269E+02 -3.78698E+03  1.40455E+03 -5.45455E+03 -9.58409E+02
 -5.21188E+03 -3.89002E+03 -1.27148E+03 -7.57651E+03  3.24693E+03 -8.07654E+03  6.83409E+03 -3.53743E+03
  7.51799E+03  1.10059E+03  4.25421E+03  5.36481E+03 -6.02241E+02  7.57186E+03 -6.06505E+03  5.16209E+03
