 $NMID ID='MM_0lb_SNR800_19hz_g60_58.RAW', FMTDAT='(8E13.5)'
 TRAMP=1., VOLUME=1. $END
  3.10059E+05  4.05068E+02  3.37432E+05  2.50548E+05  8.44518E+04  3.37508E+05 -1.32275E+05  2.50724E+05
 -1.90145E+05  8.25478E+04 -1.11602E+05 -3.25585E+04  1.16844E+03 -5.06222E+04  5.39333E+04 -1.72762E+02
  3.51443E+04  5.23922E+04 -1.69779E+04  7.52200E+04 -6.06171E+04  6.31558E+04 -8.37956E+04  3.18368E+04
 -8.07282E+04 -1.13635E+04 -5.68052E+04 -5.10338E+04 -1.48746E+04 -6.90731E+04  2.70505E+04 -4.53078E+04
  3.96611E+04  3.82274E+03  1.56264E+04  4.73388E+04 -3.42405E+04  4.67759E+04 -6.64081E+04 -2.69932E+01
 -5.26775E+04 -5.65436E+04 -6.31840E+03 -7.62506E+04  3.36349E+04 -5.42518E+04  4.72033E+04 -1.66968E+04
  4.24921E+04  1.10808E+04  3.12220E+04  2.49090E+04  1.58347E+04  2.87956E+04 -5.15240E+03  2.67328E+04
 -2.19191E+04  1.26998E+04 -1.85152E+04 -4.72271E+03  5.02428E+03 -7.44974E+03  2.16900E+04  1.14594E+04
  7.47261E+03  3.43069E+04 -3.14118E+04  3.47668E+04 -6.24067E+04  2.12196E+03 -5.62895E+04 -4.18015E+04
 -1.23203E+04 -6.20824E+04  3.91339E+04 -4.44975E+04  5.69679E+04 -1.77095E+03  3.29921E+04  3.14346E+04
 -6.28082E+03  3.45238E+04 -2.93765E+04  1.45531E+04 -2.88429E+04 -4.82023E+03 -1.52962E+04 -1.05685E+04
 -7.83250E+03 -1.18874E+04 -9.05415E+02 -1.72339E+04  7.13233E+03 -2.27890E+04  1.51425E+04 -1.34795E+04
  1.16998E+04  4.59384E+03 -7.12106E+03  1.31360E+04 -2.03694E+04 -3.23184E+03 -8.03262E+03 -3.17595E+04
  2.17441E+04 -4.20461E+04  4.62721E+04 -1.90307E+04  4.34340E+04  1.86452E+04  1.49045E+04  4.29058E+04
 -1.55413E+04  3.19461E+04 -2.41899E+04  1.35410E+03 -8.77280E+03 -2.71101E+04  2.05775E+04 -3.25605E+04
  3.91727E+04 -7.73016E+03  3.30814E+04  2.27905E+04  1.66485E+04  4.42496E+04 -7.79710E+03  4.73037E+04
 -3.00229E+04  3.13203E+04 -3.92906E+04  8.72596E+03 -4.01532E+04 -1.57399E+04 -2.24941E+04 -3.57572E+04
  7.01114E+03 -3.55923E+04  3.01728E+04 -1.35387E+04  2.79188E+04  1.07025E+04  3.20525E+03  1.82571E+04
 -1.31512E+04  7.51936E+03 -9.47648E+03 -7.62892E+03  6.06098E+03 -1.00208E+04  1.77242E+04  6.21557E+03
  1.28204E+04  2.19363E+04 -6.41350E+03  2.39313E+04 -2.17932E+04  9.85488E+03 -2.61364E+04 -5.89425E+03
 -1.80835E+04 -1.67881E+04 -6.97112E+03 -1.79760E+04  3.67454E+03 -1.66134E+04  1.38967E+04 -1.57819E+04
  2.30765E+04 -1.18025E+04  2.96457E+04  1.72480E+03  2.19909E+04  1.79030E+04  4.07299E+03  3.38389E+04
 -1.65366E+04  2.83773E+04 -2.66499E+04  9.80253E+03 -2.00743E+04 -1.05947E+04 -3.92774E+03 -1.39745E+04
  2.07523E+03 -3.50201E+03 -3.40167E+03  5.94393E+03 -1.36838E+04  5.27813E+03 -1.43797E+04 -5.64509E+03
 -9.15300E+03 -1.62956E+04  4.79228E+03 -2.03241E+04  1.34470E+04 -1.46106E+04  1.58946E+04 -1.68563E+03
  9.82254E+03  1.14256E+04 -9.23412E+02  1.66065E+04 -1.09836E+04  9.42145E+03 -1.65132E+04 -3.40135E+03
 -1.21556E+04 -1.50934E+04 -1.30919E+03 -2.02850E+04  8.77932E+03 -1.62408E+04  1.69508E+04 -7.62427E+03
  1.54113E+04  3.87760E+02  1.11137E+04  4.05267E+03  5.66994E+03  5.23494E+02  8.15430E+03 -1.43801E+03
  1.45332E+04  2.76577E+03  1.58511E+04  1.31993E+04  9.81672E+03  2.57978E+04 -2.96033E+03  2.82977E+04
 -1.68963E+04  2.18947E+04 -2.62172E+04  1.06458E+04 -2.67355E+04 -1.99009E+03 -2.26619E+04 -1.55760E+04
 -1.05375E+04 -2.20245E+04  6.98619E+03 -2.04380E+04  1.74867E+04 -1.14046E+04  1.64234E+04  4.04911E+03
  6.54740E+03  1.16674E+04 -7.55565E+03  1.09176E+04 -1.39993E+04  2.55513E+03 -1.06897E+04 -8.40851E+03
  2.07224E+02 -1.31843E+04  6.49592E+03 -9.77260E+03  8.20724E+03 -1.25394E+03  1.46241E+03  5.16687E+03
 -5.81511E+03  1.68045E+03 -4.22956E+03 -4.72367E+03  2.94556E+02 -1.08459E+04  8.24916E+03 -1.10482E+04
  1.31245E+04 -5.34127E+03  1.31159E+04  2.95753E+03  1.11709E+04  1.01469E+04  5.46891E+03  1.54352E+04
 -2.14054E+03  1.67287E+04 -1.03836E+04  1.09138E+04 -1.19616E+04  3.10471E+03 -8.92250E+03 -2.42413E+03
 -4.53735E+03 -3.52566E+03 -9.86020E+02  1.56869E+03 -2.11957E+03  2.03279E+03 -3.79719E+03  3.84031E+03
 -8.35386E+03 -3.93698E+02 -9.17693E+03 -7.74153E+03 -3.69748E+03 -1.20544E+04  3.84558E+03 -8.98032E+03
  7.47553E+03 -4.04003E+03  5.43092E+03  2.28519E+03  5.10978E+02  3.09028E+03 -3.73132E+03 -1.15362E+02
 -3.75395E+03 -5.76541E+03 -6.00606E+02 -7.54623E+03  4.03710E+03 -8.46412E+03  1.06036E+04 -4.23053E+03
  1.20869E+04  5.38622E+02  9.06852E+03  6.57446E+03  1.59446E+03  9.25016E+03 -5.44150E+03  8.72403E+03
 -7.18778E+03  2.84138E+03 -3.67488E+03 -1.14040E+03  1.36544E+03 -1.92502E+03  4.46142E+03 -6.11945E+02
  4.45392E+03  3.50522E+03  1.06709E+03  6.62576E+03 -4.90347E+03  6.58586E+03 -8.29317E+03  1.49532E+03
 -4.83639E+03 -3.78575E+03  4.84785E+02 -6.83656E+03  3.82042E+03 -3.38164E+03  3.93238E+03  1.17699E+03
  4.21053E+02  3.72116E+03 -4.17432E+03  5.01090E+03 -5.11057E+03  2.63980E+03 -4.82619E+03 -1.18182E+03
 -3.19219E+03 -6.08715E+03  1.19244E+03 -7.42267E+03  6.39266E+03 -4.68412E+03  6.68357E+03  1.02239E+03
  4.75269E+03  5.95369E+03  2.21652E+02  7.29942E+03 -5.42897E+03  4.35664E+03 -5.23727E+03 -5.54150E+02
 -5.76788E+03 -5.55019E+03 -1.22133E+03 -5.18514E+03  2.78483E+03 -4.67962E+03  2.95008E+03 -2.91369E+03
  2.84258E+03  5.30157E+01 -1.49070E+02  1.33821E+03  7.85010E+02 -4.82017E+02  7.66538E+01 -2.00367E+03
  4.02790E+03 -8.34203E+02  5.56967E+03  6.47225E+02  5.81230E+03  3.13625E+03  5.54152E+03  7.54302E+03
 -1.48743E+03  8.72419E+03 -7.66916E+03  6.37463E+03 -1.01023E+04  1.17802E+03 -7.59338E+03 -2.67049E+03
 -4.27774E+03 -6.77924E+03 -3.76844E+02 -5.25060E+03  2.08761E+03 -2.01366E+03  1.97587E+03 -2.26894E+03
  1.04292E+03 -1.33749E+03  2.27628E+03 -2.36066E+03  3.59052E+03 -1.56043E+03  3.71589E+03  7.47983E+02
  4.49070E+03  1.10893E+03  1.21547E+03  3.65287E+03 -1.29940E+03  2.54543E+03 -4.25133E+03  2.63053E+03
 -5.06033E+03 -9.50901E+02 -1.74437E+03 -3.65622E+03  2.56249E+02 -5.40783E+03  3.13490E+03 -5.11744E+03
  5.03750E+03 -3.09955E+03  6.64811E+03  2.37189E+02  4.89943E+03  4.22298E+03  7.36625E+02  6.02213E+03
 -1.96514E+03  5.82291E+03 -3.42173E+03  2.03097E+03 -1.75334E+03 -7.20209E+02 -4.27751E+02 -6.01669E+02
 -4.16972E+02  2.29598E+02 -8.65630E+02  2.03297E+03 -2.53027E+03  1.01892E+03 -3.95678E+03 -2.39261E+02
 -1.56922E+03 -4.13382E+03  6.48804E+02 -4.70149E+03  2.44038E+03 -4.17336E+03  3.39271E+03 -1.17153E+03
  4.07901E+03  2.40238E+03  1.58192E+03  2.78130E+03 -9.87862E+02  4.42793E+03 -2.43395E+03  2.73953E+03
 -3.62627E+03  4.61728E+02 -3.32748E+03 -2.33133E+03 -3.40148E+02 -2.84030E+03  1.37230E+03 -2.29823E+03
  2.54448E+03 -1.17278E+03  1.70184E+03  3.49407E+02  6.70996E+02  1.39720E+03  7.04315E+02  5.19384E+02
  1.64040E+03  3.82632E+02  1.05355E+03  1.17693E+03  1.14337E+03  2.13560E+03  1.03411E+03  1.83267E+03
 -1.27096E+03  2.77936E+03 -2.14362E+03  4.01717E+03 -2.85463E+03  1.08679E+03 -3.86920E+03 -3.04586E+02
 -1.71204E+03 -3.46004E+03  5.19324E+02 -4.32636E+03  1.86872E+03 -2.61041E+03  2.99766E+03 -9.88295E+02
  2.58297E+03  1.67537E+03  4.31386E+02  2.05263E+03 -6.00978E+02  1.22580E+03 -8.40213E+02 -4.12105E+02
 -5.60648E+02 -1.50821E+03  1.58253E+03 -1.67671E+03  9.37977E+02 -8.07863E+02  1.09933E+03  4.95558E+02
  6.63220E+02  3.32797E+02  9.25704E+02 -4.68307E+02 -2.45651E+02  6.66360E+02  1.46527E+03 -2.11487E+02
 -5.19499E+01 -1.80706E+02  1.96656E+03  5.25599E+02  7.36432E+01  2.04320E+03 -5.03958E+02  2.64231E+03
 -1.53430E+03  9.05001E+02 -1.99811E+03  5.00048E+02 -1.68531E+03 -7.67664E+02 -1.55841E+02 -1.00236E+03
  3.93763E+02 -7.87171E+02  6.44381E+02 -5.46034E+02  6.88912E+02  9.31473E+02 -7.83080E+02  1.01120E+03
 -1.44375E+03  9.52546E+02 -1.17974E+03 -1.10596E+03 -3.52151E+02 -2.03214E+03  3.22747E+02 -1.53061E+03
  2.64469E+02 -3.33353E+02  5.58935E+02  6.07750E+01  1.29047E+03  8.20116E+01  3.53138E+02  1.14862E+03
 -4.20447E+02 -1.48033E+02 -8.31586E+02 -8.35719E+01  6.15396E+02 -7.08445E+02  1.49767E+03 -7.67734E+02
  1.30145E+03  3.39531E+02  2.35207E+03  5.71584E+02  1.11886E+03  1.16818E+03 -2.26909E+02  1.70342E+03
 -1.22223E+03  4.09464E+02 -1.26325E+03 -2.80507E+01 -8.51690E+02 -1.33421E+03  3.51274E+02 -2.74903E+02
  1.37609E+03 -8.34391E+02  5.68169E+02  6.22099E+02  2.75900E+02  9.83237E+02  1.83982E+02  1.05076E+03
 -4.07112E+02  1.12006E+03 -1.97905E+02  2.82215E+02  2.22919E+02  5.73961E+02 -7.77533E+02  6.22861E+02
 -4.67073E+02  9.34910E+02 -1.58413E+03  1.41887E+02 -1.56410E+03 -2.80887E+01 -2.12446E+03 -1.07857E+03
 -9.13956E+02 -1.95576E+03  5.38495E+02 -2.36522E+03  6.94055E+02 -2.04671E+03  2.37031E+03 -1.02370E+03
  2.05350E+03 -4.97320E+00  6.42552E+02  1.18129E+03 -5.24719E+02  1.16480E+03 -6.73958E+02  8.95490E+02
 -9.39140E+02  7.93328E+02 -1.82955E+02 -9.96408E+01 -3.97832E+02  3.05953E+02 -4.63750E+02  2.15951E+02
 -1.34489E+03 -1.13986E+02 -1.16352E+03  9.82897E+01  3.33950E+02 -5.06281E+02 -6.54460E+02 -7.96507E+02
  1.14793E+03 -6.64432E+02  3.63883E+02  8.89061E+01  1.03959E+03  7.67305E+02 -3.82274E+02  1.20350E+03
 -8.36246E+02  1.91778E+03 -1.55640E+03  1.10117E+03 -1.34690E+03 -1.45552E+02 -1.01383E+03 -8.13733E+02
 -8.27524E+02 -1.04983E+03  2.46817E+02 -8.22883E+02  2.86742E+02 -4.24402E+02  5.41560E+02  1.51777E+02
  6.62160E+02  7.80136E+01  8.25620E+01  2.46205E+02 -3.49296E+02  1.06385E+02  8.40772E+01 -4.62247E+00
  3.23968E+02 -2.91088E+01  2.70432E+02  1.26800E+02  2.66289E+02  3.87516E+02  6.37549E+02  2.79155E+02
 -3.64316E+02  6.45934E+02 -2.95955E+02 -2.92755E+01 -7.17770E+02 -1.86368E+02  2.87716E+02 -1.11986E+03
  4.36588E+02 -2.70075E+02  2.60143E+02 -1.13982E+02  7.76532E+02 -6.93367E+02  3.67443E+02  5.35544E+02
  4.08073E+02  3.48844E+02 -1.15351E+02  5.93182E+02 -5.37540E+02  4.89979E+02 -3.67405E+02  1.56245E+02
 -2.58333E+02  1.41306E+02 -6.51388E+02  3.07073E+02 -4.15200E+02  1.16704E+02 -5.12804E+02 -3.78412E+01
 -9.38727E+02  5.41120E+02 -4.08888E+02 -5.93604E+02  3.56136E+02 -1.39753E+03  4.39181E+02 -1.16364E+02
  7.58674E+02 -2.03601E+02 -3.26182E+02  1.51617E+02 -1.13324E+02  4.87012E+02 -2.29680E+02  5.22768E+02
