 $NMID ID='MM_0lb_SNR800_12hz_g50_86.RAW', FMTDAT='(8E13.5)'
 TRAMP=1., VOLUME=1. $END
  3.09759E+05  2.13862E+02  3.37913E+05  2.50828E+05  8.48099E+04  3.38439E+05 -1.32519E+05  2.51254E+05
 -1.90637E+05  8.32910E+04 -1.12108E+05 -3.22955E+04  5.22472E+02 -5.06596E+04  5.39023E+04 -6.16027E+02
  3.54924E+04  5.30415E+04 -1.64141E+04  7.58007E+04 -6.08114E+04  6.39898E+04 -8.48836E+04  3.22523E+04
 -8.15382E+04 -1.15796E+04 -5.75042E+04 -5.19838E+04 -1.50045E+04 -7.00786E+04  2.76621E+04 -4.63413E+04
  4.02066E+04  4.04795E+03  1.66166E+04  4.84396E+04 -3.47776E+04  4.78120E+04 -6.73895E+04 -2.13354E+02
 -5.40831E+04 -5.74772E+04 -7.10237E+03 -7.77213E+04  3.40479E+04 -5.58276E+04  4.88662E+04 -1.74859E+04
  4.40625E+04  1.12205E+04  3.24919E+04  2.58931E+04  1.57541E+04  2.96595E+04 -5.76257E+03  2.75187E+04
 -2.22134E+04  1.24174E+04 -1.82423E+04 -5.35609E+03  6.35033E+03 -7.76553E+03  2.29962E+04  1.30006E+04
  7.21166E+03  3.62991E+04 -3.27115E+04  3.60992E+04 -6.43504E+04  2.11721E+03 -5.75018E+04 -4.32701E+04
 -1.27486E+04 -6.41190E+04  4.06301E+04 -4.61821E+04  5.97189E+04 -2.22428E+03  3.52436E+04  3.34847E+04
 -5.94911E+03  3.75558E+04 -3.09378E+04  1.72292E+04 -3.18949E+04 -4.04709E+03 -1.78654E+04 -1.13946E+04
 -8.71513E+03 -1.43354E+04 -3.93709E+02 -1.91497E+04  7.94058E+03 -2.26610E+04  1.60613E+04 -1.31480E+04
  1.10849E+04  5.81207E+03 -9.21120E+03  1.28680E+04 -2.25031E+04 -5.30805E+03 -8.75027E+03 -3.53881E+04
  2.39557E+04 -4.49409E+04  4.97847E+04 -2.00506E+04  4.63195E+04  2.00948E+04  1.63552E+04  4.54314E+04
 -1.58851E+04  3.42519E+04 -2.63245E+04  2.28241E+03 -1.06475E+04 -2.83274E+04  2.10244E+04 -3.49410E+04
  4.26972E+04 -9.73905E+03  3.78587E+04  2.42251E+04  1.95161E+04  4.83701E+04 -8.23261E+03  5.27802E+04
 -3.30245E+04  3.54859E+04 -4.44219E+04  9.99002E+03 -4.46767E+04 -1.76126E+04 -2.46904E+04 -3.98253E+04
  7.72793E+03 -3.92927E+04  3.25947E+04 -1.58505E+04  3.06516E+04  1.10388E+04  4.22617E+03  1.97005E+04
 -1.37942E+04  8.77126E+03 -1.04051E+04 -7.77468E+03  5.87486E+03 -1.08672E+04  1.82751E+04  5.90246E+03
  1.40456E+04  2.24656E+04 -5.50962E+03  2.56871E+04 -2.28258E+04  1.27400E+04 -2.95397E+04 -4.15589E+03
 -2.24059E+04 -1.76914E+04 -1.00465E+04 -2.18955E+04  4.23639E+03 -2.19718E+04  1.74647E+04 -2.02276E+04
  2.87427E+04 -1.35679E+04  3.46557E+04  3.33491E+03  2.53440E+04  2.18364E+04  4.37351E+03  3.84329E+04
 -1.84141E+04  3.17203E+04 -2.86987E+04  1.08711E+04 -2.15691E+04 -1.02398E+04 -4.75148E+03 -1.32242E+04
  1.01008E+03 -2.10698E+03 -5.70962E+03  7.42528E+03 -1.80909E+04  5.22104E+03 -1.78565E+04 -8.09800E+03
 -1.10687E+04 -2.08472E+04  5.95786E+03 -2.51340E+04  1.66763E+04 -1.79960E+04  1.97373E+04 -1.65574E+03
  1.28688E+04  1.42052E+04 -1.18279E+03  2.10973E+04 -1.43231E+04  1.18065E+04 -2.10901E+04 -4.39287E+03
 -1.54598E+04 -1.84069E+04 -2.07672E+03 -2.52429E+04  1.12031E+04 -2.05931E+04  2.06183E+04 -1.03832E+04
  1.94677E+04  3.60145E+01  1.39208E+04  4.76793E+03  7.69066E+03  1.12788E+03  1.05138E+04 -1.83626E+03
  1.89263E+04  3.24057E+03  2.17634E+04  1.63143E+04  1.43398E+04  3.29014E+04 -3.09124E+03  3.84159E+04
 -2.18836E+04  3.09297E+04 -3.58244E+04  1.55159E+04 -3.74562E+04 -2.77031E+03 -3.08857E+04 -2.18781E+04
 -1.27471E+04 -3.11151E+04  1.09078E+04 -2.79196E+04  2.39454E+04 -1.40174E+04  2.11214E+04  6.47327E+03
  7.87104E+03  1.61702E+04 -9.93980E+03  1.38474E+04 -1.77809E+04  2.84047E+03 -1.40483E+04 -1.10989E+04
 -4.00791E+02 -1.69159E+04  8.68111E+03 -1.26359E+04  1.13044E+04 -1.42346E+03  2.68404E+03  7.11669E+03
 -7.64180E+03  3.14148E+03 -7.27408E+03 -6.29239E+03 -1.01546E+03 -1.51492E+04  1.01674E+04 -1.63079E+04
  1.85390E+04 -8.57737E+03  2.09875E+04  3.27583E+03  1.83955E+04  1.56575E+04  8.58609E+03  2.36187E+04
 -4.22432E+03  2.54102E+04 -1.67879E+04  1.60269E+04 -1.83231E+04  3.68099E+03 -1.28075E+04 -4.66134E+03
 -5.32647E+03 -5.87569E+03 -1.01383E+03  9.47907E+02 -2.46415E+03  3.00353E+03 -5.85643E+03  4.56841E+03
 -1.20159E+04 -8.98405E+02 -1.27339E+04 -1.00597E+04 -4.98948E+03 -1.63411E+04  5.39733E+03 -1.31753E+04
  1.09889E+04 -5.48890E+03  7.87556E+03  3.34911E+03 -9.82443E+01  5.13142E+03 -6.36712E+03  3.56758E+02
 -6.11051E+03 -8.21040E+03 -1.19424E+03 -1.23670E+04  7.00450E+03 -1.31596E+04  1.62909E+04 -7.21412E+03
  1.89235E+04  1.76383E+03  1.39270E+04  1.10718E+04  2.85619E+03  1.50058E+04 -7.86914E+03  1.27978E+04
 -1.05565E+04  3.76162E+03 -5.64862E+03 -2.57206E+03  1.69987E+03 -3.57127E+03  6.45112E+03 -1.17211E+03
  6.02336E+03  6.02659E+03  1.30680E+03  9.93748E+03 -7.53894E+03  1.00078E+04 -1.26086E+04  2.73652E+03
 -8.68872E+03 -6.54301E+03 -8.27442E+01 -1.07621E+04  6.79108E+03 -5.27461E+03  7.22535E+03  2.34085E+03
  1.33680E+03  7.32405E+03 -6.57431E+03  9.09256E+03 -1.02326E+04  4.27949E+03 -1.06593E+04 -3.68002E+03
 -6.07493E+03 -1.18611E+04  2.84699E+03 -1.38506E+04  1.16264E+04 -8.60926E+03  1.29774E+04  2.13789E+03
  7.81804E+03  1.00177E+04 -9.04701E+02  1.22050E+04 -9.36636E+03  7.07515E+03 -1.01441E+04 -9.62829E+02
 -8.85694E+03 -8.32227E+03 -1.57070E+03 -9.23295E+03  5.01619E+03 -7.68281E+03  5.92351E+03 -3.25993E+03
  4.17228E+03  1.33753E+03 -6.93970E+02  1.44358E+03 -1.14302E+01 -2.11331E+03  1.59064E+03 -5.34514E+03
  8.74650E+03 -3.28739E+03  1.17856E+04  1.62477E+03  1.13846E+04  7.99023E+03  8.15247E+03  1.54505E+04
 -3.43921E+03  1.76799E+04 -1.49900E+04  1.34589E+04 -1.95151E+04  2.50386E+03 -1.55805E+04 -6.71261E+03
 -8.02808E+03 -1.31773E+04 -2.52368E+02 -1.09764E+04  3.90121E+03 -6.06953E+03  4.00620E+03 -4.09978E+03
  2.59389E+03 -2.85320E+03  3.18626E+03 -3.28412E+03  4.93030E+03 -2.70238E+03  6.29069E+03 -7.95536E+02
  8.66811E+03  2.20049E+03  3.77567E+03  6.85695E+03 -1.90513E+03  7.93590E+03 -8.44771E+03  6.17853E+03
 -1.08101E+04 -1.25445E+03 -6.39172E+03 -7.63250E+03 -7.21311E+02 -1.11476E+04  6.56966E+03 -1.11411E+04
  1.14130E+04 -6.44475E+03  1.43671E+04  1.74926E+03  1.02836E+04  9.82413E+03  1.57088E+03  1.28517E+04
 -5.32886E+03  1.08591E+04 -7.63557E+03  3.44321E+03 -5.20379E+03 -1.27066E+03 -1.77084E+03 -1.46733E+03
 -1.19606E+03  3.22605E+01 -1.33254E+03  2.68373E+03 -4.67644E+03  1.93816E+03 -7.44256E+03 -9.75066E+02
 -4.95990E+03 -7.64993E+03  5.91213E+02 -1.01679E+04  6.63933E+03 -9.60764E+03  9.88749E+03 -2.87592E+03
  1.02745E+04  4.99084E+03  4.64078E+03  8.97694E+03 -2.21439E+03  1.05013E+04 -7.23877E+03  6.43253E+03
 -9.67506E+03  6.46230E+02 -7.62958E+03 -6.53601E+03 -7.91906E+02 -8.21412E+03  4.59376E+03 -6.21438E+03
  6.49494E+03 -2.31065E+03  4.43079E+03  1.67826E+03  1.18867E+03  3.45990E+03  1.32189E+03  1.14624E+03
  2.24041E+03  1.15211E+03  2.55092E+03  1.40452E+03  3.04837E+03  3.73749E+03  2.48497E+03  5.30946E+03
 -2.21355E+03  7.75629E+03 -6.82393E+03  8.61437E+03 -1.01004E+04  2.14315E+03 -1.06071E+04 -3.70285E+03
 -5.26114E+03 -9.94890E+03  1.48942E+03 -1.14974E+04  6.14465E+03 -6.96221E+03  8.13723E+03 -2.05210E+03
  6.37065E+03  4.11707E+03  1.77890E+03  5.56838E+03 -2.84991E+03  3.81532E+03 -4.04387E+03 -7.65108E+02
 -2.01449E+03 -4.09434E+03  2.62955E+03 -4.24908E+03  3.98745E+03 -2.12863E+03  3.83217E+03  6.44546E+02
  2.40339E+03  1.99872E+03  8.19651E+02  1.32983E+03 -8.00078E+02  1.61118E+03  1.54022E+03 -1.06500E+02
  1.12729E+03 -7.02504E+02  4.21988E+03  1.99961E+03  1.59583E+03  5.48620E+03 -8.27884E+02  7.09888E+03
 -4.94680E+03  4.23487E+03 -6.06453E+03  1.23756E+03 -5.49605E+03 -2.01826E+03 -1.85251E+03 -3.93978E+03
  6.12494E+02 -4.10302E+03  2.31106E+03 -1.84754E+03  2.10218E+03  2.19185E+03 -1.38555E+03  3.55510E+03
 -4.12236E+03  1.69601E+03 -4.64926E+03 -2.52568E+03 -2.74832E+03 -5.64287E+03  5.64746E+02 -5.56115E+03
  2.90089E+03 -3.04111E+03  3.28536E+03 -3.35336E+02  3.59801E+03  1.24430E+03  7.02203E+02  2.68669E+03
 -1.40985E+03  5.81639E+02 -2.39772E+03 -1.79863E+03  4.76745E+02 -3.68511E+03  4.84175E+03 -3.10739E+03
  5.75266E+03  4.54984E+02  6.44184E+03  3.90617E+03  2.00402E+03  6.09378E+03 -2.25640E+03  6.14599E+03
 -4.52778E+03  2.39666E+03 -5.12615E+03 -7.95766E+02 -2.90818E+03 -4.07808E+03  7.04051E+02 -3.58720E+03
  4.13510E+03 -1.83596E+03  3.24145E+03  1.68026E+03  9.59545E+02  3.16283E+03 -6.03924E+02  3.29417E+03
 -1.77097E+03  1.96847E+03 -1.42255E+03  9.81210E+02 -4.75428E+02  7.33242E+02 -1.00036E+03  1.29278E+03
 -1.40721E+03  2.17734E+03 -4.27028E+03  1.81004E+03 -5.99238E+03  5.45002E+02 -6.95582E+03 -3.79935E+03
 -3.44789E+03 -8.27886E+03  1.45497E+03 -9.50844E+03  5.36040E+03 -7.08445E+03  8.97582E+03 -3.07621E+03
  8.05986E+03  1.25020E+03  4.78735E+03  5.40544E+03 -1.03687E+02  6.01187E+03 -2.24877E+03  4.32632E+03
 -3.19759E+03  1.64067E+03 -1.96004E+03 -2.04064E+02 -6.90141E+02 -4.58046E+02 -4.75740E+02 -3.62697E+02
 -1.71077E+03 -1.23909E+02 -1.64733E+03 -2.82405E+02 -2.19649E+02 -1.66919E+03  8.40763E+01 -2.31523E+03
  3.14023E+03 -2.24003E+03  3.44253E+03  1.71230E+02  4.39982E+03  3.59877E+03  6.40672E+02  5.41482E+03
 -2.89374E+03  6.97732E+03 -6.17905E+03  3.97722E+03 -7.17903E+03 -8.15773E+02 -5.22845E+03 -4.65733E+03
 -2.48602E+03 -6.04252E+03  1.49667E+03 -5.28327E+03  3.27279E+03 -3.24159E+03  3.64648E+03  3.71268E+02
  2.23916E+03  1.70019E+03  8.97243E+01  2.07715E+03 -1.50703E+03 -9.75636E+01 -8.55344E+01 -1.49665E+03
  1.91388E+03 -8.73312E+02  2.22333E+03  1.12200E+03  1.27205E+03  2.19127E+03 -5.68575E+01  3.12991E+03
 -2.62967E+03  2.29555E+03 -3.62663E+03  3.82432E+02 -3.33888E+03 -3.17121E+03 -1.54110E+02 -4.71911E+03
  2.61408E+03 -3.79933E+03  3.93034E+03 -9.62852E+02  4.53538E+03  3.83607E+02  2.33166E+03  3.63053E+03
  7.42999E+02  3.75998E+03 -1.67881E+03  2.66060E+03 -2.30520E+03  1.98176E+03 -1.93048E+03  2.41588E+01
 -1.28818E+03 -2.72397E+02 -1.49441E+03  7.39879E+02 -1.77541E+03  5.14385E+02 -3.21540E+03 -6.01793E+02
 -2.80892E+03 -1.60599E+03 -6.97772E+02 -4.00594E+03  1.89596E+03 -4.55063E+03  3.56872E+03 -1.91562E+03
  3.63293E+03  4.21913E+02  1.54195E+03  2.21933E+03 -3.76652E+02  3.96392E+03 -2.63620E+03  2.64861E+03
