 $NMID ID='MM_0lb_SNR800_19hz_g50_4.RAW', FMTDAT='(8E13.5)'
 TRAMP=1., VOLUME=1. $END
  3.09903E+05  3.01366E+02  3.37194E+05  2.50316E+05  8.44237E+04  3.37450E+05 -1.32220E+05  2.50283E+05
 -1.89512E+05  8.28831E+04 -1.11479E+05 -3.29739E+04  1.37849E+03 -5.02134E+04  5.39008E+04  1.75516E+02
  3.53271E+04  5.29979E+04 -1.67956E+04  7.48781E+04 -6.02740E+04  6.28122E+04 -8.30209E+04  3.16177E+04
 -7.96810E+04 -1.12457E+04 -5.64036E+04 -5.03481E+04 -1.50297E+04 -6.83283E+04  2.65459E+04 -4.48710E+04
  3.93394E+04  3.68145E+03  1.55262E+04  4.69850E+04 -3.37987E+04  4.62406E+04 -6.54768E+04 -5.77630E+02
 -5.21268E+04 -5.60167E+04 -6.11399E+03 -7.53481E+04  3.28986E+04 -5.34168E+04  4.62427E+04 -1.61998E+04
  4.18017E+04  1.09008E+04  3.07307E+04  2.46329E+04  1.58525E+04  2.82405E+04 -4.82037E+03  2.67103E+04
 -2.17042E+04  1.26666E+04 -1.89338E+04 -4.55128E+03  4.49698E+03 -7.84901E+03  2.16173E+04  1.08502E+04
  7.50124E+03  3.33575E+04 -3.06133E+04  3.37728E+04 -6.13690E+04  2.02132E+03 -5.54829E+04 -4.10841E+04
 -1.25006E+04 -6.07413E+04  3.81237E+04 -4.35632E+04  5.55053E+04 -2.14667E+03  3.20045E+04  3.05434E+04
 -6.73846E+03  3.34035E+04 -2.83620E+04  1.35203E+04 -2.79145E+04 -5.12910E+03 -1.46397E+04 -1.00024E+04
 -7.46028E+03 -1.17021E+04 -1.05901E+03 -1.69350E+04  6.63262E+03 -2.28062E+04  1.49904E+04 -1.39457E+04
  1.21817E+04  4.48593E+03 -6.15911E+03  1.30057E+04 -1.91303E+04 -2.53643E+03 -7.90888E+03 -3.02740E+04
  2.06734E+04 -4.05155E+04  4.48501E+04 -1.86622E+04  4.22061E+04  1.85989E+04  1.41908E+04  4.18351E+04
 -1.53574E+04  3.10489E+04 -2.33758E+04  1.29071E+03 -8.39537E+03 -2.62181E+04  2.05467E+04 -3.11299E+04
  3.83318E+04 -7.32691E+03  3.15537E+04  2.26192E+04  1.54649E+04  4.26413E+04 -7.96740E+03  4.52262E+04
 -2.85478E+04  3.02393E+04 -3.74715E+04  8.63910E+03 -3.84622E+04 -1.49031E+04 -2.13684E+04 -3.45552E+04
  6.90456E+03 -3.38218E+04  2.91306E+04 -1.29891E+04  2.66101E+04  1.10174E+04  3.34827E+03  1.78785E+04
 -1.32344E+04  7.30010E+03 -9.66281E+03 -7.89541E+03  6.02841E+03 -1.00494E+04  1.71424E+04  6.46844E+03
  1.24346E+04  2.17754E+04 -6.63428E+03  2.34714E+04 -2.13406E+04  8.87451E+03 -2.51042E+04 -6.43699E+03
 -1.66943E+04 -1.64710E+04 -5.94138E+03 -1.68112E+04  3.75388E+03 -1.49029E+04  1.22926E+04 -1.45304E+04
  2.13828E+04 -1.17449E+04  2.79348E+04  1.06341E+03  2.14169E+04  1.60691E+04  3.96797E+03  3.27093E+04
 -1.61018E+04  2.73519E+04 -2.59481E+04  9.39864E+03 -1.94308E+04 -1.03502E+04 -3.76283E+03 -1.39450E+04
  2.49857E+03 -4.24902E+03 -2.96125E+03  5.38022E+03 -1.29784E+04  4.95993E+03 -1.32709E+04 -4.98270E+03
 -8.59914E+03 -1.55751E+04  4.57057E+03 -1.94983E+04  1.26503E+04 -1.38412E+04  1.45225E+04 -1.40442E+03
  8.92044E+03  1.05820E+04 -6.94593E+02  1.57332E+04 -1.01787E+04  8.75392E+03 -1.53923E+04 -3.49504E+03
 -1.15593E+04 -1.40045E+04 -1.61896E+03 -1.89775E+04  8.55371E+03 -1.53107E+04  1.59210E+04 -7.29112E+03
  1.44543E+04  7.85126E+02  1.06533E+04  3.53206E+03  5.12803E+03  6.10742E+02  7.48457E+03 -1.42050E+03
  1.37839E+04  2.85536E+03  1.48035E+04  1.27435E+04  8.69703E+03  2.46604E+04 -3.14659E+03  2.66105E+04
 -1.56539E+04  2.01361E+04 -2.43070E+04  9.69638E+03 -2.47592E+04 -1.80588E+03 -2.12677E+04 -1.40356E+04
 -1.03575E+04 -2.01319E+04  6.95147E+03 -1.89339E+04  1.64134E+04 -1.07765E+04  1.53663E+04  3.51527E+03
  6.81971E+03  1.09158E+04 -7.26721E+03  1.03567E+04 -1.31334E+04  2.72180E+03 -1.04338E+04 -8.02824E+03
 -3.47841E+01 -1.22720E+04  6.06541E+03 -9.66099E+03  7.57574E+03 -1.23455E+03  1.39756E+03  4.97666E+03
 -5.63647E+03  1.10773E+03 -3.91798E+03 -4.51771E+03  6.54351E+02 -1.01059E+04  7.77229E+03 -9.94980E+03
  1.18907E+04 -4.43677E+03  1.16701E+04  2.89112E+03  1.00866E+04  9.55770E+03  4.68577E+03  1.39216E+04
 -1.61161E+03  1.57323E+04 -9.42958E+03  1.01295E+04 -1.11487E+04  3.04970E+03 -8.37001E+03 -2.10516E+03
 -4.67954E+03 -2.97777E+03 -6.81619E+02  1.41546E+03 -1.81679E+03  1.89885E+03 -3.57352E+03  3.44309E+03
 -7.92900E+03 -5.07817E+02 -8.60661E+03 -6.94415E+03 -3.62516E+03 -1.12676E+04  3.48221E+03 -8.20796E+03
  6.99946E+03 -3.84948E+03  5.33171E+03  2.15546E+03  5.51866E+02  2.57431E+03 -3.18552E+03 -9.51098E+01
 -3.45263E+03 -4.84511E+03 -6.90680E+02 -7.02274E+03  3.88213E+03 -7.34165E+03  9.71800E+03 -3.85004E+03
  1.15293E+04  4.34872E+02  8.53862E+03  6.09531E+03  1.69488E+03  8.55770E+03 -5.29696E+03  8.10454E+03
 -6.58591E+03  3.08551E+03 -3.82648E+03 -1.33825E+03  1.30411E+03 -1.90948E+03  4.66474E+03 -1.04144E+03
  4.11734E+03  3.34442E+03  1.01411E+03  6.18207E+03 -4.35291E+03  6.32221E+03 -7.90166E+03  1.82163E+03
 -4.52495E+03 -3.55290E+03  5.35213E+02 -6.63215E+03  3.72690E+03 -3.05597E+03  3.64179E+03  8.37760E+02
  5.12385E+02  2.96936E+03 -4.10366E+03  4.53988E+03 -4.57339E+03  2.30744E+03 -4.15612E+03 -1.19008E+03
 -2.89482E+03 -6.02233E+03  1.15118E+03 -6.78674E+03  5.89368E+03 -4.47746E+03  6.15664E+03  1.03149E+03
  4.62445E+03  5.00408E+03 -2.70259E+01  6.84557E+03 -4.85563E+03  3.79042E+03 -5.43179E+03 -1.75908E+02
 -5.76157E+03 -5.06307E+03 -1.40492E+03 -4.85789E+03  2.50939E+03 -4.43236E+03  3.02400E+03 -3.12832E+03
  2.56355E+03  8.43469E+01  3.12462E+02  1.31407E+03  8.55239E+02 -3.04153E+02  1.40657E+02 -1.56732E+03
  3.53772E+03 -4.10889E+02  5.05385E+03  6.86976E+02  5.27271E+03  2.78119E+03  5.14746E+03  6.89145E+03
 -1.28885E+03  8.05089E+03 -7.39474E+03  6.11451E+03 -9.51988E+03  1.10039E+03 -7.12782E+03 -2.42330E+03
 -3.91071E+03 -6.45296E+03 -2.89310E+02 -4.94416E+03  1.95858E+03 -1.93688E+03  1.33886E+03 -2.27716E+03
  9.77248E+02 -1.61595E+03  2.17433E+03 -2.07663E+03  3.47140E+03 -1.21343E+03  3.34562E+03  4.82079E+02
  4.30224E+03  1.07872E+03  7.39438E+02  3.15624E+03 -1.68535E+03  2.44667E+03 -4.30206E+03  2.46371E+03
 -4.83586E+03 -1.00938E+03 -1.71500E+03 -3.19774E+03  3.55629E+02 -4.70844E+03  3.08333E+03 -4.79387E+03
  4.67704E+03 -3.22303E+03  6.36343E+03  1.08413E+02  4.53288E+03  3.95849E+03  1.16686E+03  5.63589E+03
 -1.93703E+03  5.62159E+03 -2.97076E+03  1.86603E+03 -1.94986E+03 -9.92322E+02 -6.68082E+01 -5.22002E+02
 -3.41430E+02  5.43694E+02 -9.40163E+02  2.16834E+03 -2.65522E+03  1.08190E+03 -3.96227E+03 -2.62822E+02
 -1.26251E+03 -3.84510E+03  6.92843E+02 -4.25105E+03  2.53901E+03 -3.95560E+03  3.27685E+03 -1.01012E+03
  3.94380E+03  2.25228E+03  1.74227E+03  3.00891E+03 -7.12660E+02  4.33828E+03 -2.54817E+03  2.57867E+03
 -3.46494E+03  5.83232E+02 -3.17727E+03 -2.04989E+03  1.77248E+02 -3.08916E+03  1.56725E+03 -2.36252E+03
  2.42980E+03 -1.29111E+03  1.74813E+03  5.96505E+02  3.14782E+02  1.30274E+03  8.25347E+02  4.07928E+02
  1.82720E+03  7.90880E+02  1.21365E+03  7.70534E+02  9.93581E+02  2.27687E+03  1.22531E+03  1.56466E+03
 -1.03677E+03  2.74300E+03 -2.30153E+03  4.00518E+03 -2.81319E+03  1.45713E+03 -3.88593E+03 -3.89890E+02
 -1.70550E+03 -3.17994E+03  8.17196E+02 -4.42535E+03  1.74039E+03 -2.35138E+03  2.95812E+03 -8.96059E+02
  2.35239E+03  1.64305E+03  2.77214E+02  1.88970E+03 -8.87702E+02  1.26136E+03 -8.82646E+02 -5.79571E+01
 -6.42014E+02 -1.31054E+03  1.07302E+03 -1.37886E+03  1.07730E+03 -9.82940E+02  1.41657E+03  3.67279E+02
  7.24920E+02  1.40525E+02  9.59064E+02 -3.04988E+02 -2.74153E+02  7.81894E+02  1.35801E+03  4.23586E+01
 -1.72435E+02 -2.84946E+02  1.74841E+03  5.44734E+02 -1.22388E+02  1.90325E+03 -3.74520E+02  2.79539E+03
 -1.43036E+03  8.97223E+02 -1.90042E+03  2.94131E+02 -2.06171E+03 -6.04768E+02 -9.08621E+01 -9.12093E+02
  4.07410E+02 -9.04586E+02  7.24958E+02 -4.06734E+02  7.74564E+02  1.32981E+03 -7.21261E+02  1.20772E+03
 -1.45897E+03  9.07174E+02 -1.28814E+03 -1.26427E+03 -9.16420E+02 -1.96720E+03  2.84485E+02 -1.45646E+03
  4.94713E+02 -5.07152E+02  3.77826E+02  1.88076E+02  1.37901E+03 -2.22907E+02  3.65584E+02  1.00085E+03
 -1.06406E+02 -1.44669E+02 -6.83373E+02 -3.33654E+02  6.47070E+02 -6.26028E+02  1.55628E+03 -6.81494E+02
  8.77819E+02  6.87413E+01  2.54491E+03  7.42867E+02  7.87163E+02  1.39620E+03 -2.90237E+02  1.61319E+03
 -9.67528E+02  1.79850E+02 -1.33242E+03 -1.44636E+02 -6.85146E+02 -1.25884E+03  1.24495E+02 -5.01481E+02
  1.22184E+03 -6.38413E+02  6.24112E+02  5.55985E+02  4.24418E+02  1.38241E+03  2.97945E+02  9.41528E+02
 -3.55926E+02  7.85978E+02 -2.37508E+02 -2.60882E+01  3.20388E+02  5.47423E+02 -5.36080E+02  2.86338E+02
 -5.15885E+02  1.16176E+03 -1.97703E+03  4.92825E+02 -1.48801E+03  1.66337E+02 -2.05953E+03 -7.42256E+02
 -8.04966E+02 -1.98415E+03  4.00748E+02 -2.56230E+03  1.05624E+03 -2.13792E+03  2.40543E+03 -9.34848E+02
  1.66271E+03 -5.24409E+02  1.33190E+03  1.57069E+03 -4.63564E+02  1.25203E+03 -7.76165E+02  1.15473E+03
 -9.98564E+02  6.44178E+02 -5.75145E+02 -7.60424E+01 -4.37330E+02  3.28308E+02 -8.64993E+02  1.35820E+02
 -1.19482E+03  2.90692E+02 -8.20093E+02  4.89782E+01  3.51193E+02 -5.37780E+02 -5.68921E+02 -8.15345E+02
  1.37043E+03 -6.71023E+02  2.00062E+02  2.30083E+02  9.82675E+02  6.91641E+02 -7.26727E+02  1.12689E+03
 -7.91703E+02  1.85815E+03 -1.30502E+03  1.22165E+03 -1.48725E+03 -1.09489E+02 -9.55200E+02 -1.04590E+03
 -8.28965E+02 -1.04268E+03  1.40703E+02 -1.14600E+03  7.72726E+02 -3.70784E+02  5.55421E+02  2.09936E+02
  6.46456E+02 -3.91851E+01  2.10700E+02  1.30240E+02 -2.49129E+02  4.66778E+00  4.39761E+01  3.81741E+02
  4.67798E+02  4.15658E+02 -1.14018E+02  3.43434E+02  1.78813E+02  2.82612E+02  3.37479E+02  2.96437E+02
 -5.74714E+02  4.73373E+02 -2.66762E+02 -6.35679E+01 -7.12954E+02 -3.82654E+02  1.60460E+02 -9.99986E+02
  5.10517E+02 -5.10070E+02  2.30487E+02  1.47345E+02  6.30686E+02 -7.50644E+02  4.80769E+02  7.09540E+02
  3.88059E+02  4.12522E+02 -1.86826E+02  4.01687E+02 -2.80462E+02  5.87258E+02 -3.49436E+02  1.61639E+02
 -2.32260E+02 -4.72336E+02 -2.65946E+02  9.68345E+01 -4.40758E+02  3.36859E+02 -7.86899E+02 -2.52520E+02
 -8.68269E+02  2.75222E+02 -4.52948E+02 -8.88634E+02  5.70740E+02 -1.69709E+03  6.75127E+02 -2.55436E+02
  5.06668E+02  2.70376E+02 -2.45404E+02  2.79124E+02  1.46789E+01  6.48787E+02  4.24142E+01  7.54660E+02
