 $NMID ID='MM_0lb_SNR800_16hz_g50_76.RAW', FMTDAT='(8E13.5)'
 TRAMP=1., VOLUME=1. $END
  3.09747E+05  4.20699E+02  3.37363E+05  2.50600E+05  8.44452E+04  3.37555E+05 -1.32593E+05  2.50651E+05
 -1.89884E+05  8.28196E+04 -1.11419E+05 -3.28542E+04  9.83570E+02 -5.04739E+04  5.34956E+04  3.18231E+02
  3.52478E+04  5.30715E+04 -1.67036E+04  7.53490E+04 -6.05221E+04  6.32083E+04 -8.36162E+04  3.18693E+04
 -8.04940E+04 -1.10602E+04 -5.69821E+04 -5.08815E+04 -1.48187E+04 -6.89182E+04  2.71684E+04 -4.48424E+04
  3.96990E+04  3.92539E+03  1.61944E+04  4.77294E+04 -3.42498E+04  4.67027E+04 -6.61978E+04 -1.27139E+02
 -5.30072E+04 -5.64807E+04 -6.52514E+03 -7.62540E+04  3.36332E+04 -5.42017E+04  4.71745E+04 -1.69500E+04
  4.27434E+04  1.11042E+04  3.13047E+04  2.53135E+04  1.57515E+04  2.89275E+04 -5.31654E+03  2.71577E+04
 -2.21224E+04  1.27346E+04 -1.87542E+04 -4.96765E+03  5.24513E+03 -7.65578E+03  2.20012E+04  1.19404E+04
  7.46436E+03  3.45947E+04 -3.17194E+04  3.48730E+04 -6.26181E+04  2.11667E+03 -5.67541E+04 -4.21460E+04
 -1.25011E+04 -6.22965E+04  3.90711E+04 -4.43997E+04  5.72292E+04 -2.03370E+03  3.33063E+04  3.16636E+04
 -6.20798E+03  3.50133E+04 -2.91574E+04  1.48690E+04 -2.92315E+04 -4.78647E+03 -1.60537E+04 -1.05276E+04
 -7.82750E+03 -1.24810E+04 -1.09378E+03 -1.73666E+04  7.10772E+03 -2.27513E+04  1.51911E+04 -1.35637E+04
  1.18265E+04  4.93296E+03 -7.41153E+03  1.31508E+04 -2.01852E+04 -3.80900E+03 -8.23460E+03 -3.25433E+04
  2.17759E+04 -4.20825E+04  4.70852E+04 -1.92844E+04  4.41777E+04  1.88935E+04  1.52777E+04  4.32851E+04
 -1.58948E+04  3.24820E+04 -2.44955E+04  1.31779E+03 -9.01511E+03 -2.74342E+04  2.08099E+04 -3.29830E+04
  3.96989E+04 -8.39308E+03  3.37523E+04  2.34000E+04  1.72714E+04  4.49116E+04 -8.06907E+03  4.80777E+04
 -3.07008E+04  3.23445E+04 -4.01737E+04  8.89211E+03 -4.09724E+04 -1.59745E+04 -2.27706E+04 -3.66237E+04
  7.04738E+03 -3.66693E+04  3.04339E+04 -1.41840E+04  2.81950E+04  1.08166E+04  3.56315E+03  1.87001E+04
 -1.36262E+04  7.57594E+03 -1.00369E+04 -7.69625E+03  5.69936E+03 -1.03355E+04  1.77853E+04  6.48788E+03
  1.27677E+04  2.17701E+04 -6.05995E+03  2.43173E+04 -2.22830E+04  1.03808E+04 -2.69676E+04 -5.44902E+03
 -1.91469E+04 -1.69009E+04 -7.13979E+03 -1.89260E+04  3.97439E+03 -1.75434E+04  1.44563E+04 -1.68908E+04
  2.45179E+04 -1.25510E+04  3.08844E+04  2.08185E+03  2.28674E+04  1.85650E+04  4.19322E+03  3.50854E+04
 -1.71393E+04  2.92684E+04 -2.71585E+04  1.01564E+04 -2.03787E+04 -1.01262E+04 -4.15728E+03 -1.36718E+04
  2.20173E+03 -3.30555E+03 -4.18633E+03  6.09297E+03 -1.52720E+04  4.97483E+03 -1.49909E+04 -6.26988E+03
 -9.60931E+03 -1.75411E+04  4.97081E+03 -2.15373E+04  1.42877E+04 -1.54158E+04  1.68193E+04 -1.57452E+03
  1.04449E+04  1.20470E+04 -8.79125E+02  1.75161E+04 -1.23162E+04  9.77651E+03 -1.73426E+04 -3.83794E+03
 -1.28676E+04 -1.58372E+04 -1.82648E+03 -2.13428E+04  9.59994E+03 -1.74688E+04  1.78940E+04 -8.31676E+03
  1.65017E+04  1.70855E+02  1.18238E+04  4.37068E+03  6.30447E+03  8.22609E+02  8.86915E+03 -1.53595E+03
  1.56825E+04  2.76314E+03  1.76386E+04  1.40697E+04  1.13011E+04  2.78191E+04 -2.93951E+03  3.11094E+04
 -1.83159E+04  2.44624E+04 -2.89232E+04  1.21446E+04 -3.00456E+04 -2.13401E+03 -2.52900E+04 -1.69680E+04
 -1.09875E+04 -2.45831E+04  8.58891E+03 -2.23691E+04  1.93538E+04 -1.20563E+04  1.76855E+04  4.64530E+03
  7.04960E+03  1.31009E+04 -8.23697E+03  1.14924E+04 -1.52035E+04  2.65996E+03 -1.16708E+04 -9.15926E+03
 -2.51215E+01 -1.41824E+04  6.97069E+03 -1.08499E+04  9.18975E+03 -1.46252E+03  2.06562E+03  5.87761E+03
 -6.47255E+03  2.04768E+03 -5.01113E+03 -4.90522E+03 -6.33792E+01 -1.20781E+04  8.82672E+03 -1.22435E+04
  1.48405E+04 -6.09963E+03  1.52938E+04  3.29173E+03  1.33316E+04  1.16169E+04  6.37751E+03  1.76654E+04
 -2.72167E+03  1.94362E+04 -1.20961E+04  1.21464E+04 -1.40548E+04  3.03504E+03 -9.98404E+03 -2.61215E+03
 -5.07542E+03 -3.86161E+03 -4.03117E+02  1.20130E+03 -2.05503E+03  2.26325E+03 -4.66367E+03  4.01252E+03
 -9.51899E+03 -8.11923E+02 -1.04071E+04 -8.35892E+03 -4.10224E+03 -1.33418E+04  4.06031E+03 -1.01738E+04
  8.46848E+03 -4.37988E+03  6.30086E+03  2.65921E+03  4.54143E+02  3.48211E+03 -4.53005E+03  1.84077E+02
 -4.32732E+03 -6.40634E+03 -7.21351E+02 -8.82117E+03  5.06744E+03 -9.87114E+03  1.22156E+04 -5.28060E+03
  1.41581E+04  6.36117E+02  1.05661E+04  8.02315E+03  1.91612E+03  1.13658E+04 -6.05652E+03  9.64211E+03
 -8.09003E+03  3.15301E+03 -4.34368E+03 -1.70823E+03  1.59866E+03 -2.47636E+03  5.55925E+03 -9.45435E+02
  4.75746E+03  4.04998E+03  9.77177E+02  7.50398E+03 -5.24934E+03  7.80001E+03 -9.47504E+03  2.03352E+03
 -6.22092E+03 -4.63858E+03  3.86625E+02 -8.30525E+03  4.95651E+03 -4.06312E+03  4.90113E+03  1.77928E+03
  7.45460E+02  4.79114E+03 -4.92941E+03  5.86581E+03 -6.75020E+03  3.12227E+03 -6.51065E+03 -2.08401E+03
 -3.92619E+03 -8.26453E+03  1.83783E+03 -9.23931E+03  8.08788E+03 -5.94670E+03  8.40867E+03  1.40388E+03
  5.82103E+03  7.22233E+03 -1.66731E+02  9.07739E+03 -6.52946E+03  4.99772E+03 -6.63959E+03 -8.83946E+02
 -6.88845E+03 -6.11042E+03 -1.53195E+03 -6.34315E+03  3.61656E+03 -5.60951E+03  4.00716E+03 -3.08887E+03
  3.39689E+03  7.67844E+02 -9.83396E+01  1.36301E+03 -9.43848E+01 -7.01708E+02  7.33254E+02 -3.03711E+03
  5.46392E+03 -1.54321E+03  7.30033E+03  1.05784E+03  7.42937E+03  4.59268E+03  6.33674E+03  9.86512E+03
 -1.98866E+03  1.13876E+04 -9.99626E+03  8.60127E+03 -1.30656E+04  1.82997E+03 -1.02556E+04 -3.77258E+03
 -5.17585E+03 -8.47154E+03 -2.57525E+01 -7.23426E+03  2.75483E+03 -3.43215E+03  2.37660E+03 -2.81790E+03
  1.99495E+03 -1.83491E+03  2.60127E+03 -2.61697E+03  4.00950E+03 -1.82412E+03  4.46801E+03 -1.10471E+00
  5.48179E+03  1.44466E+03  2.05856E+03  4.59746E+03 -1.63169E+03  4.20946E+03 -5.75576E+03  3.80705E+03
 -6.60381E+03 -9.42523E+02 -3.40528E+03 -4.63178E+03 -8.39214E+01 -6.93849E+03  4.29922E+03 -7.18538E+03
  7.23990E+03 -4.37073E+03  9.21486E+03  6.01102E+02  6.60449E+03  6.01967E+03  1.23797E+03  8.07916E+03
 -2.97720E+03  7.19058E+03 -5.00652E+03  2.35088E+03 -3.10018E+03 -1.51612E+03 -8.74886E+02 -8.33218E+02
 -7.46769E+02  5.75157E+02 -1.45973E+03  2.27144E+03 -3.15408E+03  1.09215E+03 -5.15839E+03 -3.76806E+02
 -2.54905E+03 -5.12095E+03  5.86845E+02 -6.44421E+03  3.81265E+03 -6.02693E+03  5.51204E+03 -1.42891E+03
  5.79994E+03  3.06446E+03  2.50307E+03  5.01097E+03 -1.14432E+03  6.32775E+03 -3.97302E+03  3.75545E+03
 -5.53464E+03  4.39413E+02 -4.51884E+03 -3.30819E+03 -4.49658E+02 -4.71458E+03  2.20825E+03 -3.75670E+03
  3.88114E+03 -1.88517E+03  2.51029E+03  9.38856E+02  8.33808E+02  2.24088E+03  6.24103E+02  9.79871E+02
  2.02895E+03  6.46390E+02  1.45132E+03  1.16116E+03  1.74312E+03  2.80072E+03  1.63121E+03  2.84080E+03
 -1.91254E+03  4.57809E+03 -3.98851E+03  5.54065E+03 -4.94744E+03  1.72114E+03 -6.00087E+03 -1.41696E+03
 -2.61207E+03 -5.66650E+03  7.38404E+02 -6.40568E+03  3.06995E+03 -3.87314E+03  4.53008E+03 -1.32856E+03
  3.57560E+03  2.41176E+03  8.42977E+02  3.34284E+03 -1.45613E+03  1.70387E+03 -1.66987E+03 -2.90334E+02
 -8.27986E+02 -2.39970E+03  2.00254E+03 -2.20630E+03  2.40051E+03 -1.28280E+03  1.84277E+03  6.48787E+02
  1.15541E+03  8.93731E+02  9.14463E+02  2.56700E+02 -3.07150E+02  8.15006E+02  1.64295E+03 -3.34271E+01
  3.88316E+02 -3.70090E+02  2.45508E+03  1.04530E+03  6.43703E+02  3.24747E+03 -5.07473E+02  4.05136E+03
 -2.44427E+03  1.91479E+03 -3.07101E+03  6.29813E+02 -3.25221E+03 -8.42005E+02 -6.14579E+02 -1.59891E+03
  3.69144E+02 -1.88201E+03  1.43144E+03 -9.11618E+02  1.02984E+03  1.69295E+03 -9.27873E+02  1.65603E+03
 -1.79597E+03  1.32056E+03 -2.61185E+03 -1.51542E+03 -1.29752E+03 -3.08239E+03  3.24083E+02 -2.57437E+03
  1.07201E+03 -1.31896E+03  1.67143E+03  1.01318E+01  1.96996E+03 -2.83811E+02  4.63478E+02  1.65570E+03
 -7.63658E+02 -1.47986E+02 -1.38236E+03 -5.43126E+02  9.08340E+02 -1.55681E+03  2.33753E+03 -1.40093E+03
  2.48456E+03  1.06261E+02  3.79117E+03  1.57045E+03  1.59431E+03  2.63460E+03 -5.15983E+02  2.83909E+03
 -2.35758E+03  5.88021E+02 -2.50797E+03 -1.46466E+02 -1.24546E+03 -2.20650E+03  5.79010E+02 -1.30177E+03
  2.02780E+03 -9.41516E+02  1.47803E+03  7.50353E+02  2.41724E+02  2.16428E+03  5.60570E+01  1.66894E+03
 -6.01163E+02  1.60019E+03 -8.58438E+02  5.39118E+02 -1.97414E+02  5.23108E+02 -1.15091E+03  7.59454E+02
 -1.08965E+03  1.33236E+03 -2.55571E+03  4.82429E+02 -2.57051E+03 -1.60319E+02 -3.37196E+03 -1.75936E+03
 -1.64810E+03 -3.65184E+03  6.64616E+02 -4.47259E+03  2.13664E+03 -3.56511E+03  4.29207E+03 -1.61837E+03
  3.81787E+03  3.64672E+02  2.05352E+03  2.44116E+03 -3.45918E+02  2.50081E+03 -9.78267E+02  2.02751E+03
 -1.76556E+03  1.08031E+03 -7.31131E+02 -1.81218E+02 -2.69151E+02  9.13321E+01 -7.12952E+02 -9.46164E+00
 -1.29291E+03 -1.40612E+02 -1.07070E+03 -1.85579E+02 -8.12719E+01 -7.77752E+02 -4.75203E+02 -1.33039E+03
  1.94776E+03 -1.00336E+03  1.14900E+03  7.44010E+01  1.81522E+03  1.42594E+03 -1.58235E+02  2.48722E+03
 -1.28391E+03  3.57910E+03 -2.90943E+03  1.73692E+03 -3.06758E+03 -2.55118E+02 -2.33909E+03 -1.90352E+03
 -1.25006E+03 -2.62938E+03  4.86565E+02 -2.18813E+03  1.52117E+03 -1.08239E+03  1.50085E+03  2.28828E+02
  9.57963E+02  6.12382E+02 -1.32299E+02  6.52963E+02 -4.11977E+02 -8.12836E+01  6.64020E+01 -5.59221E+02
  6.57210E+02 -7.92415E+01  6.87997E+02  4.02169E+02  2.34076E+02  8.92350E+02  5.39832E+02  8.28227E+02
 -7.18169E+02  1.11076E+03 -1.10096E+03  7.53300E+00 -1.42035E+03 -1.00786E+03  1.01787E+02 -2.06564E+03
  1.10456E+03 -1.47005E+03  1.45070E+03 -1.20777E+02  1.84000E+03 -2.98418E+02  1.48699E+03  1.44440E+03
  5.75072E+02  1.39127E+03 -3.29032E+02  1.09501E+03 -1.20628E+03  1.14628E+03 -9.20421E+02  1.35977E+02
 -4.96377E+02 -4.34378E+02 -8.97659E+02  1.34361E+01 -1.00885E+03  1.74787E+02 -1.20204E+03 -4.17521E+02
 -1.61752E+03 -5.30768E+02 -3.61249E+02 -1.73665E+03  1.07567E+03 -2.34816E+03  1.24660E+03 -6.83681E+02
  1.39800E+03  5.04966E+02  1.99200E+02  8.25927E+02 -3.18474E+02  1.58201E+03 -1.06408E+03  1.42067E+03
