 $NMID ID='MM_0lb_SNR800_14hz_g45_25.RAW', FMTDAT='(8E13.5)'
 TRAMP=1., VOLUME=1. $END
  3.09886E+05  4.68979E+02  3.37414E+05  2.50328E+05  8.45813E+04  3.37929E+05 -1.32775E+05  2.51020E+05
 -1.90435E+05  8.30764E+04 -1.11825E+05 -3.26010E+04  5.85459E+02 -5.05518E+04  5.40884E+04 -1.53213E+02
  3.54745E+04  5.30023E+04 -1.67919E+04  7.54458E+04 -6.10329E+04  6.33404E+04 -8.44583E+04  3.22711E+04
 -8.09381E+04 -1.12230E+04 -5.71758E+04 -5.10214E+04 -1.49778E+04 -6.96660E+04  2.72226E+04 -4.56249E+04
  3.95296E+04  3.74820E+03  1.60745E+04  4.75153E+04 -3.44327E+04  4.68206E+04 -6.65842E+04 -4.99490E+01
 -5.32164E+04 -5.70888E+04 -6.66653E+03 -7.66299E+04  3.39469E+04 -5.44944E+04  4.76078E+04 -1.72468E+04
  4.30920E+04  1.11239E+04  3.20376E+04  2.54782E+04  1.59252E+04  2.92779E+04 -5.28162E+03  2.72958E+04
 -2.18755E+04  1.22882E+04 -1.87802E+04 -4.91957E+03  5.45293E+03 -7.60589E+03  2.18305E+04  1.21878E+04
  7.14956E+03  3.49102E+04 -3.18806E+04  3.52593E+04 -6.29141E+04  2.08824E+03 -5.71158E+04 -4.27861E+04
 -1.26147E+04 -6.29000E+04  3.92839E+04 -4.51569E+04  5.78184E+04 -2.24576E+03  3.39255E+04  3.24492E+04
 -6.16371E+03  3.58993E+04 -2.96908E+04  1.54802E+04 -3.00594E+04 -4.97977E+03 -1.65110E+04 -1.06729E+04
 -8.35462E+03 -1.27487E+04 -9.08042E+02 -1.80323E+04  7.38093E+03 -2.30594E+04  1.54734E+04 -1.35984E+04
  1.14884E+04  5.01706E+03 -8.25502E+03  1.29262E+04 -2.12378E+04 -4.44994E+03 -8.40404E+03 -3.36739E+04
  2.24278E+04 -4.31385E+04  4.75377E+04 -1.97764E+04  4.48349E+04  1.91901E+04  1.57516E+04  4.39879E+04
 -1.59810E+04  3.32011E+04 -2.53924E+04  1.65833E+03 -9.62731E+03 -2.76755E+04  2.07664E+04 -3.35080E+04
  4.07390E+04 -8.69128E+03  3.51258E+04  2.35732E+04  1.77060E+04  4.61321E+04 -7.93826E+03  4.94608E+04
 -3.15976E+04  3.30160E+04 -4.15151E+04  9.08820E+03 -4.20201E+04 -1.65985E+04 -2.32178E+04 -3.74497E+04
  7.58159E+03 -3.76524E+04  3.12103E+04 -1.48543E+04  2.91775E+04  1.11263E+04  3.69099E+03  1.91557E+04
 -1.33437E+04  8.16264E+03 -1.02116E+04 -7.33397E+03  6.01131E+03 -1.05555E+04  1.76927E+04  5.94329E+03
  1.32859E+04  2.21357E+04 -5.91968E+03  2.48650E+04 -2.21189E+04  1.14437E+04 -2.78581E+04 -4.81497E+03
 -2.02460E+04 -1.73196E+04 -8.31478E+03 -2.00244E+04  4.45440E+03 -1.91588E+04  1.54095E+04 -1.76828E+04
  2.56255E+04 -1.26866E+04  3.22107E+04  2.56413E+03  2.35168E+04  1.96599E+04  3.90851E+03  3.60366E+04
 -1.75358E+04  3.01985E+04 -2.75363E+04  1.01528E+04 -2.06819E+04 -1.00379E+04 -4.23149E+03 -1.33980E+04
  1.84350E+03 -3.23784E+03 -4.67714E+03  6.93608E+03 -1.56339E+04  5.20498E+03 -1.62143E+04 -7.00462E+03
 -9.86811E+03 -1.85820E+04  5.13469E+03 -2.26851E+04  1.52244E+04 -1.64061E+04  1.75521E+04 -1.30846E+03
  1.07805E+04  1.30234E+04 -8.37153E+02  1.90737E+04 -1.30196E+04  1.03764E+04 -1.84363E+04 -4.04285E+03
 -1.36618E+04 -1.68688E+04 -1.74853E+03 -2.27331E+04  1.02632E+04 -1.83033E+04  1.91660E+04 -9.03446E+03
  1.72813E+04  3.60897E+02  1.26408E+04  4.40898E+03  6.62747E+03  9.06259E+02  9.52003E+03 -1.38871E+03
  1.71821E+04  2.73125E+03  1.87217E+04  1.51516E+04  1.23133E+04  2.96132E+04 -2.83389E+03  3.34971E+04
 -1.94556E+04  2.70080E+04 -3.13641E+04  1.35769E+04 -3.27590E+04 -2.58097E+03 -2.75713E+04 -1.89515E+04
 -1.15520E+04 -2.70576E+04  9.17109E+03 -2.46645E+04  2.11467E+04 -1.22457E+04  1.88750E+04  5.39941E+03
  7.03157E+03  1.39845E+04 -8.76595E+03  1.23451E+04 -1.58663E+04  2.42447E+03 -1.20310E+04 -9.61738E+03
 -2.14420E+02 -1.48679E+04  7.56886E+03 -1.10887E+04  9.96363E+03 -1.49526E+03  2.07655E+03  6.06134E+03
 -6.81188E+03  2.59039E+03 -5.63934E+03 -5.39190E+03 -1.85815E+02 -1.31111E+04  9.26773E+03 -1.39503E+04
  1.67024E+04 -6.96712E+03  1.72731E+04  2.89910E+03  1.50324E+04  1.27257E+04  7.30611E+03  2.00588E+04
 -3.01340E+03  2.16357E+04 -1.34178E+04  1.33544E+04 -1.55703E+04  3.42711E+03 -1.10588E+04 -3.66742E+03
 -5.30162E+03 -4.67822E+03 -8.68219E+02  1.09359E+03 -2.21615E+03  2.73423E+03 -5.28964E+03  4.30876E+03
 -1.03155E+04 -4.95269E+02 -1.11077E+04 -8.84341E+03 -4.47403E+03 -1.44155E+04  4.50913E+03 -1.12505E+04
  9.36575E+03 -4.53880E+03  6.47720E+03  3.05865E+03  1.41048E+02  4.31602E+03 -5.20010E+03 -2.11361E+02
 -4.88066E+03 -6.62374E+03 -9.54732E+02 -1.03924E+04  5.99480E+03 -1.08753E+04  1.36959E+04 -6.03785E+03
  1.58902E+04  1.40032E+03  1.17164E+04  9.17993E+03  2.20837E+03  1.25868E+04 -6.46133E+03  1.07164E+04
 -8.94580E+03  3.48161E+03 -4.70750E+03 -1.97966E+03  1.78394E+03 -2.65059E+03  5.92447E+03 -1.14558E+03
  5.49350E+03  4.35590E+03  1.11125E+03  8.75150E+03 -6.05756E+03  8.51715E+03 -1.03845E+04  2.17558E+03
 -7.27221E+03 -5.31798E+03  2.52811E+02 -9.00317E+03  5.13352E+03 -4.80395E+03  5.69229E+03  1.71364E+03
  1.13025E+03  5.97940E+03 -5.37112E+03  6.79166E+03 -8.24388E+03  3.21239E+03 -7.66036E+03 -2.38074E+03
 -4.56448E+03 -9.71298E+03  2.44433E+03 -1.09872E+04  9.33382E+03 -6.85828E+03  1.01588E+04  1.68212E+03
  6.77951E+03  8.41321E+03 -5.40162E+02  1.01751E+04 -7.55820E+03  5.99677E+03 -7.85330E+03 -6.74740E+02
 -7.65626E+03 -7.13311E+03 -1.64222E+03 -6.98365E+03  4.11744E+03 -6.20782E+03  4.61920E+03 -3.14977E+03
  3.72412E+03  5.82088E+02 -3.43590E+02  1.83650E+03  6.30337E+01 -1.38573E+03  1.25258E+03 -3.79926E+03
  6.55920E+03 -2.17069E+03  8.96506E+03  1.37215E+03  9.14128E+03  5.61704E+03  6.94313E+03  1.19108E+04
 -2.59662E+03  1.37164E+04 -1.18825E+04  1.02477E+04 -1.57218E+04  1.64780E+03 -1.22149E+04 -4.85965E+03
 -6.18281E+03 -1.03522E+04 -4.38821E+02 -8.52386E+03  3.19280E+03 -4.19333E+03  3.04668E+03 -3.14436E+03
  2.04491E+03 -1.97337E+03  2.78143E+03 -2.68520E+03  4.27525E+03 -2.25945E+03  5.14505E+03 -3.09151E+02
  6.65617E+03  1.65039E+03  2.54819E+03  5.30770E+03 -1.76992E+03  5.72434E+03 -6.67662E+03  5.01438E+03
 -8.41007E+03 -9.01773E+02 -4.42771E+03 -5.51932E+03 -7.15377E+01 -8.62391E+03  4.88735E+03 -8.90075E+03
  8.83930E+03 -4.84028E+03  1.10600E+04  9.04769E+02  7.91362E+03  7.57576E+03  1.22273E+03  1.01729E+04
 -4.15407E+03  8.70825E+03 -5.85709E+03  3.00571E+03 -3.85663E+03 -1.31468E+03 -1.25685E+03 -1.06747E+03
 -8.15273E+02 -2.10561E+02 -1.63857E+03  2.29726E+03 -3.67266E+03  1.56579E+03 -6.20363E+03 -9.71042E+02
 -3.82823E+03 -6.06720E+03  8.22483E+02 -7.97873E+03  4.71482E+03 -7.59090E+03  7.25764E+03 -2.17113E+03
  7.65344E+03  3.83614E+03  3.58885E+03  6.47395E+03 -1.85488E+03  8.01497E+03 -5.19979E+03  4.83982E+03
 -6.90134E+03  3.51745E+02 -5.66313E+03 -4.57526E+03 -6.09594E+02 -6.18602E+03  3.02757E+03 -4.44518E+03
  4.77864E+03 -1.95339E+03  3.44921E+03  1.18020E+03  1.34682E+03  2.11933E+03  8.46440E+02  1.01844E+03
  2.08354E+03  7.31945E+02  1.96933E+03  1.57004E+03  2.24099E+03  2.79919E+03  2.14034E+03  4.06155E+03
 -1.92997E+03  5.94780E+03 -4.75182E+03  6.75380E+03 -6.95225E+03  1.68578E+03 -7.59868E+03 -2.46597E+03
 -3.48476E+03 -7.15674E+03  1.03037E+03 -8.33488E+03  3.83178E+03 -5.18979E+03  6.05274E+03 -1.67785E+03
  4.63993E+03  3.18240E+03  8.77614E+02  4.27358E+03 -1.91794E+03  2.58214E+03 -2.41060E+03 -1.20542E+02
 -1.42584E+03 -3.09725E+03  1.68165E+03 -3.17339E+03  2.63314E+03 -1.80556E+03  2.37484E+03  6.19364E+02
  1.38572E+03  8.97049E+02  8.56724E+02  5.21558E+02 -3.08888E+02  1.15604E+03  1.42454E+03 -2.37959E+02
  6.08371E+02 -6.89677E+02  3.36746E+03  1.48025E+03  1.30427E+03  3.99078E+03 -4.29055E+02  5.38313E+03
 -3.27517E+03  2.55665E+03 -4.47188E+03  6.35061E+02 -3.90394E+03 -1.20974E+03 -1.05584E+03 -2.43907E+03
  4.58809E+02 -2.57941E+03  1.77461E+03 -1.26915E+03  1.20855E+03  1.76223E+03 -7.72763E+02  2.20268E+03
 -2.62837E+03  1.29390E+03 -2.90186E+03 -1.61050E+03 -2.12911E+03 -3.99123E+03  5.64574E+02 -3.69451E+03
  1.58421E+03 -2.16154E+03  2.39470E+03 -2.96879E+02  2.44698E+03  5.22757E+02  5.48779E+02  2.10845E+03
 -1.00164E+03  6.05621E+02 -1.79958E+03 -1.14907E+03  8.67163E+02 -2.55119E+03  3.31415E+03 -2.05394E+03
  3.68002E+03  4.70225E+02  4.57594E+03  2.39147E+03  1.74975E+03  4.31458E+03 -1.10041E+03  4.02763E+03
 -3.31294E+03  1.32230E+03 -3.63510E+03 -6.65880E+02 -2.23782E+03 -2.81363E+03  2.91194E+02 -2.35137E+03
  2.76162E+03 -1.45903E+03  2.08254E+03  1.30538E+03  8.27511E+02  2.64443E+03  1.27830E+02  2.07352E+03
 -1.29375E+03  1.54770E+03 -1.05637E+03  4.53790E+02 -6.65902E+01  8.40914E+02 -9.50514E+02  8.94887E+02
 -1.28991E+03  1.83628E+03 -3.03746E+03  1.56508E+03 -4.09347E+03  1.37418E+02 -4.80576E+03 -2.51268E+03
 -2.64363E+03 -5.11063E+03  1.28883E+03 -6.52508E+03  3.32560E+03 -5.06197E+03  6.47291E+03 -2.11726E+03
  5.56994E+03  4.44063E+02  3.13839E+03  3.74411E+03 -1.62862E+02  3.98164E+03 -1.63050E+03  2.82484E+03
 -2.69967E+03  1.26648E+03 -1.22563E+03 -6.53130E+02 -8.64737E+02  6.46337E+01 -8.46171E+02  3.53123E+02
 -1.40498E+03  1.51256E+02 -1.15780E+03  1.43911E+02  3.35390E+02 -1.20382E+03 -3.25038E+01 -2.04781E+03
  2.27554E+03 -1.49438E+03  1.90170E+03  2.26231E+02  3.01739E+03  1.96126E+03  3.51803E+01  3.71622E+03
 -1.91252E+03  4.90048E+03 -4.10787E+03  2.74097E+03 -4.86479E+03 -1.71386E+02 -3.40619E+03 -2.82609E+03
 -1.53048E+03 -3.86387E+03  7.43665E+02 -3.54720E+03  1.92506E+03 -2.06443E+03  2.23575E+03  1.10442E+02
  1.31393E+03  1.31473E+03 -2.70593E+02  1.32689E+03 -9.44157E+02  4.36577E+01  2.18663E+02 -7.13079E+02
  1.20177E+03 -7.16843E+01  1.26847E+03  5.20049E+02  8.60708E+02  1.13213E+03  5.18269E+02  1.68908E+03
 -1.60396E+03  1.41573E+03 -2.37267E+03  1.78826E+02 -2.36711E+03 -1.65064E+03 -3.42052E+02 -3.40738E+03
  1.38546E+03 -2.34844E+03  2.46736E+03 -4.49812E+02  2.65474E+03  9.84370E+01  1.56160E+03  1.90807E+03
  6.03230E+02  1.94871E+03 -6.85359E+02  2.14176E+03 -1.45752E+03  1.36159E+03 -1.16045E+03  9.36446E+00
 -5.74706E+02 -2.20791E+01 -1.15851E+03  1.05022E+02 -1.39330E+03  4.24250E+02 -1.81636E+03 -5.13252E+02
 -1.88422E+03 -7.99678E+02 -7.50024E+02 -2.34738E+03  1.53498E+03 -3.10774E+03  2.21665E+03 -1.00476E+03
  2.32199E+03  2.65560E+02  7.59083E+02  1.44276E+03 -1.93608E+02  2.37210E+03 -1.70595E+03  1.56584E+03
