 $NMID ID='MM_0lb_SNR800_14hz_g60_35.RAW', FMTDAT='(8E13.5)'
 TRAMP=1., VOLUME=1. $END
  3.09848E+05  5.29158E+02  3.37866E+05  2.50778E+05  8.46314E+04  3.38203E+05 -1.32819E+05  2.51286E+05
 -1.90851E+05  8.34799E+04 -1.11929E+05 -3.28320E+04  5.54461E+02 -5.03847E+04  5.39475E+04 -4.60784E+02
  3.57369E+04  5.28423E+04 -1.67406E+04  7.53609E+04 -6.08293E+04  6.40327E+04 -8.47102E+04  3.20109E+04
 -8.16101E+04 -1.15890E+04 -5.74928E+04 -5.16741E+04 -1.50993E+04 -7.02474E+04  2.77021E+04 -4.63299E+04
  4.04784E+04  3.76934E+03  1.63722E+04  4.82442E+04 -3.50055E+04  4.76470E+04 -6.72164E+04 -1.83695E+02
 -5.37057E+04 -5.71488E+04 -7.08091E+03 -7.78076E+04  3.42743E+04 -5.57335E+04  4.88771E+04 -1.77812E+04
  4.41760E+04  1.14359E+04  3.22656E+04  2.59763E+04  1.61559E+04  2.97110E+04 -5.63940E+03  2.74193E+04
 -2.20114E+04  1.21865E+04 -1.85063E+04 -5.19050E+03  6.32137E+03 -7.50024E+03  2.27433E+04  1.28318E+04
  7.39708E+03  3.59995E+04 -3.27969E+04  3.60416E+04 -6.44283E+04  2.19766E+03 -5.80742E+04 -4.35008E+04
 -1.28441E+04 -6.42547E+04  4.06134E+04 -4.63141E+04  5.94891E+04 -2.42352E+03  3.52906E+04  3.34049E+04
 -5.71644E+03  3.76891E+04 -3.05236E+04  1.74041E+04 -3.14372E+04 -4.17682E+03 -1.74680E+04 -1.16411E+04
 -8.78676E+03 -1.36660E+04 -6.48181E+02 -1.83825E+04  8.30818E+03 -2.34362E+04  1.57647E+04 -1.30959E+04
  1.09841E+04  5.22437E+03 -8.98624E+03  1.28405E+04 -2.18335E+04 -4.99894E+03 -8.66246E+03 -3.50370E+04
  2.35842E+04 -4.45329E+04  4.96421E+04 -2.02828E+04  4.63101E+04  2.00303E+04  1.61995E+04  4.52545E+04
 -1.60142E+04  3.42992E+04 -2.63313E+04  2.17485E+03 -1.06187E+04 -2.87263E+04  2.13799E+04 -3.50420E+04
  4.19948E+04 -1.00327E+04  3.72393E+04  2.37239E+04  1.92346E+04  4.77365E+04 -7.94746E+03  5.24036E+04
 -3.27808E+04  3.53544E+04 -4.37988E+04  1.00681E+04 -4.43439E+04 -1.70615E+04 -2.43385E+04 -3.91855E+04
  7.53139E+03 -3.89415E+04  3.25400E+04 -1.56646E+04  3.01386E+04  1.08284E+04  4.65755E+03  1.97806E+04
 -1.35503E+04  8.81095E+03 -1.06126E+04 -7.68487E+03  6.00532E+03 -1.10141E+04  1.87166E+04  5.86757E+03
  1.39003E+04  2.19472E+04 -5.69349E+03  2.55976E+04 -2.27429E+04  1.25129E+04 -2.88880E+04 -4.22667E+03
 -2.21134E+04 -1.74942E+04 -9.32812E+03 -2.18692E+04  4.28465E+03 -2.19451E+04  1.67921E+04 -1.93907E+04
  2.78728E+04 -1.31344E+04  3.42255E+04  3.62699E+03  2.51747E+04  2.12692E+04  4.19908E+03  3.78385E+04
 -1.84278E+04  3.15456E+04 -2.88059E+04  1.10269E+04 -2.13119E+04 -1.02397E+04 -4.58202E+03 -1.37593E+04
  1.41494E+03 -2.15507E+03 -5.67516E+03  7.06213E+03 -1.72912E+04  5.16871E+03 -1.72434E+04 -8.16991E+03
 -1.06002E+04 -1.99862E+04  5.33234E+03 -2.45739E+04  1.59694E+04 -1.74177E+04  1.94439E+04 -1.60121E+03
  1.25492E+04  1.38548E+04 -1.19296E+03  2.06047E+04 -1.40399E+04  1.17196E+04 -2.05117E+04 -4.04753E+03
 -1.47726E+04 -1.78355E+04 -1.70506E+03 -2.43841E+04  1.08342E+04 -1.98676E+04  2.01821E+04 -1.00137E+04
  1.92025E+04 -3.89323E+01  1.34342E+04  4.63424E+03  7.34789E+03  1.08363E+03  1.00834E+04 -1.83319E+03
  1.83118E+04  2.75305E+03  2.09155E+04  1.58790E+04  1.38316E+04  3.23478E+04 -2.85145E+03  3.68206E+04
 -2.14354E+04  3.00479E+04 -3.44710E+04  1.49407E+04 -3.63081E+04 -2.64643E+03 -2.99339E+04 -2.09573E+04
 -1.20231E+04 -2.98656E+04  1.03176E+04 -2.68054E+04  2.31448E+04 -1.32600E+04  2.04576E+04  5.94894E+03
  7.52697E+03  1.52634E+04 -9.58333E+03  1.34498E+04 -1.70878E+04  2.56726E+03 -1.32209E+04 -1.08657E+04
 -3.33701E+02 -1.62788E+04  8.61925E+03 -1.20518E+04  1.10501E+04 -1.44258E+03  2.31567E+03  6.86360E+03
 -7.44622E+03  2.68985E+03 -6.68780E+03 -5.87710E+03 -8.39887E+02 -1.41960E+04  9.89403E+03 -1.55558E+04
  1.80030E+04 -8.25593E+03  1.98191E+04  2.91692E+03  1.75772E+04  1.44379E+04  8.11495E+03  2.26884E+04
 -3.61627E+03  2.40858E+04 -1.56320E+04  1.47260E+04 -1.73189E+04  3.31792E+03 -1.19886E+04 -4.00196E+03
 -5.63126E+03 -5.24205E+03 -6.49855E+02  8.81079E+02 -2.06489E+03  2.58381E+03 -5.37567E+03  4.32325E+03
 -1.11250E+04 -6.45428E+02 -1.20533E+04 -9.51440E+03 -4.77159E+03 -1.57311E+04  4.90174E+03 -1.23048E+04
  1.03268E+04 -5.44742E+03  7.02235E+03  3.04337E+03  2.26057E+02  4.73532E+03 -5.47780E+03  2.60852E+02
 -4.96677E+03 -7.41432E+03 -9.18765E+02 -1.14173E+04  6.81475E+03 -1.22633E+04  1.51042E+04 -6.20369E+03
  1.78826E+04  1.47323E+03  1.33537E+04  1.05909E+04  2.83849E+03  1.42208E+04 -7.65959E+03  1.22611E+04
 -9.78590E+03  3.93987E+03 -4.97416E+03 -2.72053E+03  1.58039E+03 -3.23767E+03  6.82097E+03 -9.50240E+02
  5.81444E+03  4.87848E+03  1.13225E+03  9.69042E+03 -6.74760E+03  9.26687E+03 -1.14130E+04  2.36881E+03
 -7.85383E+03 -5.93661E+03  1.40296E+02 -9.98539E+03  6.05814E+03 -4.78479E+03  6.15368E+03  2.17086E+03
  1.16995E+03  6.25159E+03 -6.25280E+03  7.68902E+03 -9.00220E+03  3.63398E+03 -8.89101E+03 -2.73212E+03
 -5.08874E+03 -1.07155E+04  2.64776E+03 -1.25188E+04  1.07362E+04 -7.87031E+03  1.12729E+04  1.65769E+03
  7.36730E+03  9.37848E+03 -8.14481E+02  1.10852E+04 -8.07954E+03  6.39808E+03 -8.83025E+03 -7.79402E+02
 -8.13444E+03 -7.59936E+03 -1.60402E+03 -8.51270E+03  4.45254E+03 -7.24582E+03  5.08190E+03 -3.14725E+03
  3.79883E+03  1.11904E+03 -3.12525E+02  1.60031E+03  1.25026E+02 -1.65996E+03  1.18906E+03 -4.69802E+03
  7.39906E+03 -2.82059E+03  1.01100E+04  1.32561E+03  1.04780E+04  6.90156E+03  7.18751E+03  1.36523E+04
 -2.86874E+03  1.55073E+04 -1.33407E+04  1.14238E+04 -1.68969E+04  2.26331E+03 -1.33003E+04 -5.46886E+03
 -7.21618E+03 -1.15268E+04 -3.76128E+02 -9.60002E+03  3.51747E+03 -4.85910E+03  3.17602E+03 -3.73355E+03
  2.48835E+03 -2.21306E+03  2.91687E+03 -3.31317E+03  4.56219E+03 -2.24729E+03  5.70094E+03 -2.10130E+02
  7.56638E+03  1.65634E+03  3.22947E+03  6.05406E+03 -1.72279E+03  6.54286E+03 -7.73725E+03  5.49735E+03
 -9.33808E+03 -1.45989E+03 -5.17608E+03 -6.41167E+03 -1.56557E+02 -9.72515E+03  5.73145E+03 -1.00864E+04
  9.83285E+03 -5.55346E+03  1.21131E+04  8.92218E+02  8.93517E+03  8.47353E+03  1.68013E+03  1.07607E+04
 -4.15286E+03  9.45934E+03 -6.58289E+03  3.40943E+03 -4.32995E+03 -1.08510E+03 -1.54089E+03 -1.33339E+03
 -7.38246E+02  2.20581E+02 -1.66946E+03  2.62037E+03 -4.15859E+03  1.96028E+03 -6.87686E+03 -7.03628E+02
 -4.33273E+03 -6.55241E+03  2.07921E+02 -9.05570E+03  5.09959E+03 -8.27653E+03  8.33456E+03 -2.40747E+03
  8.76558E+03  4.03237E+03  4.03029E+03  7.48337E+03 -1.88174E+03  9.04193E+03 -5.69492E+03  5.63782E+03
 -7.73337E+03  4.10040E+02 -6.46701E+03 -5.22086E+03 -6.25757E+02 -7.05786E+03  3.29706E+03 -5.20804E+03
  5.21000E+03 -1.92788E+03  3.44954E+03  1.13219E+03  9.46100E+02  2.69876E+03  1.18361E+03  1.32119E+03
  2.28269E+03  9.36190E+02  2.17188E+03  1.27324E+03  2.43672E+03  3.30912E+03  2.41618E+03  4.42001E+03
 -1.96549E+03  6.38714E+03 -5.48006E+03  7.45890E+03 -7.74348E+03  2.05333E+03 -8.53320E+03 -2.97139E+03
 -4.03258E+03 -8.11067E+03  1.56005E+03 -9.43750E+03  4.79534E+03 -5.60423E+03  6.46986E+03 -1.51457E+03
  5.23203E+03  3.10640E+03  8.49745E+02  4.75172E+03 -2.05406E+03  2.86848E+03 -2.94812E+03 -4.53603E+02
 -1.41685E+03 -3.55056E+03  2.05285E+03 -3.37425E+03  3.28360E+03 -1.88881E+03  2.98063E+03  7.22664E+02
  1.95655E+03  1.32007E+03  7.95069E+02  7.61065E+02 -4.85610E+02  1.26420E+03  1.91955E+03 -2.87507E+02
  7.96003E+02 -6.73157E+02  3.21318E+03  1.21243E+03  1.23665E+03  4.47540E+03 -1.03877E+03  5.86659E+03
 -3.59917E+03  3.36937E+03 -4.66149E+03  1.14668E+03 -4.39255E+03 -1.63211E+03 -1.22637E+03 -2.91147E+03
  4.00364E+02 -2.79485E+03  2.19899E+03 -1.63240E+03  1.71874E+03  1.88414E+03 -8.07553E+02  2.36254E+03
 -3.18135E+03  1.54996E+03 -3.16838E+03 -2.12916E+03 -1.78007E+03 -4.32315E+03  7.40079E+02 -3.81976E+03
  2.09904E+03 -1.81556E+03  2.63250E+03 -1.82367E+02  2.62138E+03  7.86305E+02  2.49384E+02  2.22917E+03
 -1.32222E+03  4.58773E+02 -1.66435E+03 -1.15821E+03  8.52930E+02 -2.72778E+03  3.57037E+03 -2.04101E+03
  3.97227E+03  2.95230E+02  4.93082E+03  2.78507E+03  1.66933E+03  4.18722E+03 -1.27318E+03  4.56389E+03
 -3.53644E+03  1.68297E+03 -3.88662E+03 -2.74065E+02 -1.95189E+03 -2.96482E+03  5.84982E+02 -2.50088E+03
  2.78628E+03 -1.62754E+03  2.08125E+03  1.44514E+03  7.09733E+02  2.77732E+03 -4.17345E+02  2.06628E+03
 -1.04705E+03  1.60734E+03 -1.63727E+03  4.21860E+02 -5.65653E+01  6.91188E+02 -1.23848E+03  7.55556E+02
 -1.17626E+03  2.11327E+03 -3.55716E+03  1.43128E+03 -4.32961E+03  2.62137E+02 -5.17320E+03 -2.50312E+03
 -2.33903E+03 -5.84515E+03  1.01618E+03 -6.88652E+03  3.43359E+03 -5.16587E+03  6.54194E+03 -2.09085E+03
  5.78361E+03  8.81506E+02  3.70843E+03  3.91054E+03  1.20426E+02  4.55650E+03 -1.70605E+03  3.37459E+03
 -2.64821E+03  1.52483E+03 -1.37457E+03 -1.95740E+02 -8.95036E+02 -3.87696E+02 -6.52330E+02 -1.94185E+02
 -1.19812E+03  4.55215E+00 -1.12864E+03 -2.70245E+02  2.82514E+01 -1.05772E+03 -4.74966E+02 -1.95157E+03
  2.70364E+03 -1.48620E+03  2.69094E+03  6.12453E+01  3.00215E+03  2.24247E+03  1.43176E+02  4.21686E+03
 -1.68963E+03  5.01680E+03 -4.71453E+03  2.71313E+03 -4.63781E+03 -7.99829E+02 -3.47703E+03 -3.24804E+03
 -1.61470E+03 -4.15055E+03  8.37024E+02 -3.60487E+03  2.61469E+03 -1.93758E+03  2.40233E+03  1.54767E+02
  1.83645E+03  1.40656E+03 -7.89509E+01  7.40313E+02 -1.06513E+03 -1.28111E+02 -1.89733E+02 -8.55921E+02
  1.03035E+03 -1.87572E+02  1.21548E+03  6.50146E+02  1.12582E+03  1.48001E+03  4.37850E+02  1.70092E+03
 -1.78606E+03  1.95347E+03 -2.52058E+03  4.50180E+02 -2.04654E+03 -1.83249E+03 -2.72543E+02 -3.27268E+03
  1.96276E+03 -2.69129E+03  2.43701E+03 -4.74681E+02  2.86022E+03  3.70998E+02  1.64955E+03  2.61501E+03
  4.38418E+02  2.29701E+03 -1.18155E+03  1.93307E+03 -1.34232E+03  1.45075E+03 -1.33131E+03  1.65724E+02
 -6.91942E+02 -3.50588E+02 -1.00892E+03  1.55680E+02 -1.56555E+03  3.77850E+02 -2.13791E+03 -1.88050E+02
 -2.10454E+03 -8.77377E+02 -6.50503E+02 -2.53944E+03  1.55517E+03 -2.89638E+03  2.13056E+03 -1.25797E+03
  2.13160E+03  1.50210E+02  8.96574E+02  1.51911E+03 -5.03271E+02  2.22342E+03 -1.70863E+03  1.61662E+03
