 $NMID ID='MM_0lb_SNR800_19hz_g60_45.RAW', FMTDAT='(8E13.5)'
 TRAMP=1., VOLUME=1. $END
  3.09638E+05  1.63914E+02  3.37501E+05  2.50680E+05  8.45367E+04  3.37826E+05 -1.32587E+05  2.50702E+05
 -1.90031E+05  8.28504E+04 -1.11308E+05 -3.30296E+04  1.02227E+03 -5.04106E+04  5.37975E+04  9.65258E+01
  3.52222E+04  5.28527E+04 -1.67752E+04  7.50994E+04 -6.06252E+04  6.32275E+04 -8.34557E+04  3.19008E+04
 -8.06551E+04 -1.13857E+04 -5.67330E+04 -5.07217E+04 -1.51610E+04 -6.91749E+04  2.71467E+04 -4.53394E+04
  3.96733E+04  3.90706E+03  1.59177E+04  4.72683E+04 -3.43125E+04  4.69846E+04 -6.60761E+04 -3.22193E+02
 -5.26309E+04 -5.63226E+04 -6.41319E+03 -7.62944E+04  3.35978E+04 -5.41229E+04  4.72670E+04 -1.71048E+04
  4.26961E+04  1.11088E+04  3.12926E+04  2.51219E+04  1.56402E+04  2.89919E+04 -4.76113E+03  2.70430E+04
 -2.21023E+04  1.23650E+04 -1.89630E+04 -4.66009E+03  4.84273E+03 -7.42289E+03  2.15961E+04  1.16950E+04
  7.54503E+03  3.40010E+04 -3.11798E+04  3.47156E+04 -6.20786E+04  2.17518E+03 -5.61431E+04 -4.18975E+04
 -1.25634E+04 -6.19729E+04  3.89383E+04 -4.43940E+04  5.67837E+04 -2.19513E+03  3.28872E+04  3.15997E+04
 -6.17288E+03  3.46133E+04 -2.92342E+04  1.44656E+04 -2.89923E+04 -4.88670E+03 -1.54227E+04 -1.07186E+04
 -7.90204E+03 -1.23583E+04 -1.10650E+03 -1.71768E+04  7.04189E+03 -2.26064E+04  1.54238E+04 -1.33627E+04
  1.15281E+04  4.67960E+03 -7.19575E+03  1.29595E+04 -2.04403E+04 -3.48037E+03 -8.23535E+03 -3.18111E+04
  2.15683E+04 -4.17471E+04  4.63533E+04 -1.90272E+04  4.35197E+04  1.89990E+04  1.48618E+04  4.28085E+04
 -1.53749E+04  3.20463E+04 -2.42246E+04  1.53256E+03 -8.88890E+03 -2.72317E+04  2.06461E+04 -3.22195E+04
  3.93212E+04 -8.38455E+03  3.28595E+04  2.31339E+04  1.66329E+04  4.40949E+04 -7.94660E+03  4.71214E+04
 -2.97445E+04  3.11929E+04 -3.90820E+04  8.95109E+03 -3.99242E+04 -1.58512E+04 -2.21190E+04 -3.60623E+04
  6.82515E+03 -3.56352E+04  3.00273E+04 -1.32069E+04  2.75686E+04  1.06296E+04  3.15185E+03  1.82938E+04
 -1.31117E+04  7.73491E+03 -9.89753E+03 -7.57617E+03  5.80302E+03 -1.03031E+04  1.75223E+04  6.06780E+03
  1.28593E+04  2.17630E+04 -6.32901E+03  2.39054E+04 -2.16698E+04  9.64853E+03 -2.62155E+04 -6.04228E+03
 -1.81223E+04 -1.66792E+04 -6.65995E+03 -1.80646E+04  3.63509E+03 -1.62190E+04  1.36405E+04 -1.55783E+04
  2.30745E+04 -1.18310E+04  2.93566E+04  1.72415E+03  2.20744E+04  1.75480E+04  4.05818E+03  3.37502E+04
 -1.66101E+04  2.85608E+04 -2.65993E+04  9.91170E+03 -2.02775E+04 -1.02988E+04 -4.01500E+03 -1.38315E+04
  2.21506E+03 -3.63254E+03 -3.33865E+03  6.03787E+03 -1.38125E+04  5.30464E+03 -1.44224E+04 -5.67335E+03
 -8.98834E+03 -1.64379E+04  4.84953E+03 -2.04952E+04  1.33458E+04 -1.46523E+04  1.58566E+04 -1.58467E+03
  9.36519E+03  1.15532E+04 -1.27503E+03  1.66897E+04 -1.11947E+04  9.63484E+03 -1.65882E+04 -3.28996E+03
 -1.22482E+04 -1.47982E+04 -1.41515E+03 -1.99464E+04  9.25394E+03 -1.63474E+04  1.69460E+04 -7.83157E+03
  1.52056E+04  5.47650E+02  1.09376E+04  3.94644E+03  5.71564E+03  7.46948E+02  8.07105E+03 -1.36966E+03
  1.46527E+04  2.44388E+03  1.58809E+04  1.34075E+04  1.00826E+04  2.62902E+04 -3.00123E+03  2.85304E+04
 -1.64983E+04  2.18361E+04 -2.62746E+04  1.07598E+04 -2.69714E+04 -1.82156E+03 -2.26041E+04 -1.51545E+04
 -1.05998E+04 -2.19780E+04  7.17849E+03 -2.04828E+04  1.77958E+04 -1.11196E+04  1.64895E+04  4.00330E+03
  6.51766E+03  1.17837E+04 -7.28960E+03  1.08000E+04 -1.37915E+04  2.71794E+03 -1.07133E+04 -8.20223E+03
 -1.83071E+02 -1.30459E+04  6.45736E+03 -9.97854E+03  8.10617E+03 -1.21081E+03  1.67167E+03  4.96713E+03
 -5.75100E+03  1.57250E+03 -4.01650E+03 -4.78075E+03  3.50775E+02 -1.08146E+04  8.06166E+03 -1.08872E+04
  1.29642E+04 -5.21961E+03  1.33848E+04  3.12852E+03  1.11256E+04  1.02104E+04  5.44048E+03  1.50759E+04
 -1.97623E+03  1.71582E+04 -1.03637E+04  1.09231E+04 -1.18626E+04  3.01159E+03 -8.86913E+03 -2.23679E+03
 -4.57423E+03 -3.73893E+03 -7.97076E+02  1.23401E+03 -2.10698E+03  2.11054E+03 -3.79662E+03  3.58158E+03
 -8.16665E+03 -5.50687E+02 -9.18529E+03 -7.52270E+03 -3.46069E+03 -1.19728E+04  3.49640E+03 -8.77712E+03
  7.53550E+03 -3.94409E+03  5.39838E+03  2.34252E+03  3.86914E+02  3.34938E+03 -3.47870E+03 -5.57564E+01
 -3.56150E+03 -5.43670E+03 -7.66080E+02 -7.70563E+03  4.26775E+03 -8.27610E+03  1.04877E+04 -4.19539E+03
  1.24178E+04  7.82582E+02  9.20122E+03  6.43522E+03  1.92604E+03  9.04000E+03 -5.36290E+03  8.58342E+03
 -7.22713E+03  2.98897E+03 -3.63868E+03 -1.38550E+03  1.32071E+03 -1.95972E+03  5.13574E+03 -1.11146E+03
  4.20784E+03  3.29799E+03  1.04413E+03  6.48208E+03 -4.54612E+03  6.58196E+03 -7.93879E+03  1.95492E+03
 -4.82084E+03 -4.04290E+03  1.16911E+02 -6.91369E+03  3.80751E+03 -3.26882E+03  3.61071E+03  1.16815E+03
  7.75945E+02  3.59949E+03 -4.42850E+03  4.86922E+03 -5.20512E+03  2.51229E+03 -4.91660E+03 -1.36705E+03
 -3.05397E+03 -6.25747E+03  1.33665E+03 -7.30776E+03  6.33206E+03 -4.90314E+03  6.60529E+03  8.22969E+02
  4.64717E+03  5.39862E+03  3.15760E+02  7.59181E+03 -5.39126E+03  4.22206E+03 -5.30566E+03 -5.12028E+02
 -5.72695E+03 -5.24664E+03 -1.43024E+03 -5.09742E+03  2.68740E+03 -4.55245E+03  3.05423E+03 -2.92913E+03
  2.74064E+03  1.44047E+02  2.24403E+01  1.44510E+03  4.36450E+02 -2.86838E+02  2.81526E+02 -1.68950E+03
  3.93538E+03 -8.49214E+02  5.52219E+03  7.13524E+02  5.84693E+03  3.30801E+03  5.17104E+03  7.40693E+03
 -1.39246E+03  8.59250E+03 -7.91831E+03  6.60976E+03 -9.92280E+03  1.23820E+03 -7.83893E+03 -2.75107E+03
 -4.14381E+03 -6.70013E+03 -3.40014E+02 -5.30681E+03  1.93168E+03 -2.24482E+03  1.89950E+03 -2.04032E+03
  1.55021E+03 -1.53031E+03  2.17049E+03 -2.49516E+03  3.54136E+03 -1.00134E+03  3.70185E+03  4.84241E+02
  4.19871E+03  1.05588E+03  1.14008E+03  3.44744E+03 -1.57311E+03  2.84769E+03 -4.35639E+03  2.67898E+03
 -5.03602E+03 -9.03368E+02 -1.98893E+03 -3.16104E+03  4.70318E+02 -5.07471E+03  3.17311E+03 -5.43215E+03
  4.92083E+03 -3.13211E+03  6.74541E+03  2.83809E+02  5.16234E+03  4.21045E+03  1.00456E+03  5.82260E+03
 -2.03118E+03  5.72154E+03 -3.33608E+03  1.88681E+03 -1.87126E+03 -7.58592E+02 -5.56029E+02 -5.13269E+02
 -4.32819E+02  3.01908E+02 -9.04920E+02  2.01399E+03 -2.40037E+03  1.03424E+03 -4.24735E+03 -1.52692E+02
 -1.53077E+03 -3.62789E+03  1.00338E+03 -4.73842E+03  2.45743E+03 -4.38133E+03  3.52939E+03 -1.03654E+03
  3.90725E+03  2.44192E+03  1.54380E+03  3.31999E+03 -8.00899E+02  4.12732E+03 -2.28215E+03  2.80637E+03
 -3.91697E+03  5.08951E+02 -3.48609E+03 -2.21021E+03  5.08375E+00 -3.14307E+03  1.35684E+03 -2.45938E+03
  2.46776E+03 -1.34848E+03  1.69810E+03  6.86538E+02  5.09180E+02  1.60483E+03  7.61872E+02  7.18623E+02
  2.00277E+03  4.99928E+02  1.26704E+03  5.41391E+02  1.21698E+03  2.09845E+03  1.39128E+03  1.84254E+03
 -9.75662E+02  3.03451E+03 -2.58336E+03  3.74528E+03 -2.70198E+03  1.33974E+03 -4.07891E+03 -3.29833E+02
 -1.71719E+03 -3.54318E+03  3.64512E+02 -4.36836E+03  1.63457E+03 -2.42313E+03  2.94242E+03 -8.57629E+02
  2.57746E+03  1.92411E+03  5.62626E+02  2.17963E+03 -8.12684E+02  1.15182E+03 -6.27067E+02 -3.90755E+01
 -5.25519E+02 -1.61640E+03  1.27230E+03 -1.50353E+03  1.22673E+03 -8.41633E+02  1.12863E+03  2.19347E+02
  5.74347E+02  3.74267E+02  9.62344E+02 -3.76241E+02 -4.15569E+02  9.10595E+02  1.56121E+03 -2.63680E+02
  2.27035E+02 -1.51884E+02  1.91317E+03  8.14914E+02  1.22754E+02  2.28089E+03 -2.94018E+02  2.81221E+03
 -1.44754E+03  9.94553E+02 -1.92867E+03  4.22546E+01 -1.75444E+03 -6.75877E+02 -2.53898E+02 -7.19264E+02
  5.59156E+02 -1.23140E+03  8.01090E+02 -6.62858E+02  5.07780E+02  1.19433E+03 -4.94943E+02  1.02876E+03
 -1.46249E+03  8.36134E+02 -8.99077E+02 -1.15793E+03 -5.31700E+02 -1.92712E+03  2.17069E+02 -1.51272E+03
  3.76431E+02 -6.38669E+02  7.02784E+02  2.62145E+02  1.24034E+03 -2.85442E+02  3.20988E+02  1.31123E+03
 -3.76010E+02  1.57848E+02 -7.02780E+02  3.73839E+01  6.08017E+02 -5.91817E+02  1.34485E+03 -5.93547E+02
  1.05464E+03  1.91647E+02  2.59036E+03  6.54122E+02  1.23724E+03  1.32970E+03  8.42819E+00  1.73858E+03
 -1.12075E+03  4.55826E+01 -1.27508E+03 -1.15904E+02 -6.36292E+02 -1.31453E+03  3.90330E+02 -5.53019E+02
  1.51907E+03 -5.04705E+02  7.29398E+02  6.04961E+02  2.05901E+02  1.07526E+03  5.28354E+02  1.08785E+03
 -3.83091E+02  1.21859E+03 -3.11983E+02  1.24572E+02  2.64594E+02  2.10507E+02 -6.35760E+02  3.91414E+02
 -6.73680E+02  1.04562E+03 -1.43365E+03  4.23290E+02 -1.34417E+03  4.81556E+01 -2.21871E+03 -8.16560E+02
 -1.02059E+03 -1.92773E+03  3.35073E+02 -2.56299E+03  4.85065E+02 -2.11208E+03  2.24863E+03 -1.00691E+03
  2.11158E+03 -6.86127E+01  8.05644E+02  1.27605E+03 -3.21838E+02  1.32594E+03 -4.74088E+02  8.77783E+02
 -6.67483E+02  6.68803E+02 -3.29240E+02 -1.04756E+02 -5.74514E+02  1.18904E+02 -8.42299E+02  1.40871E+02
 -1.08680E+03  1.09587E+02 -8.82461E+02  9.15909E+01  5.50589E+02 -7.61234E+02 -2.58288E+02 -8.74958E+02
  1.26694E+03 -3.87001E+02  2.47038E+02  1.63022E+02  1.01831E+03  9.66658E+02 -5.05038E+02  1.21888E+03
 -7.72799E+02  1.90467E+03 -1.15774E+03  1.06778E+03 -1.43264E+03 -2.53568E+02 -1.09312E+03 -9.39571E+02
 -7.18724E+02 -1.28241E+03  1.73325E+02 -6.43141E+02  3.92627E+02 -4.00803E+02  5.06481E+02  1.15857E+02
  7.18716E+02  4.38782E+02  1.76177E+02  3.56428E+02 -3.07798E+02  2.37039E+02  2.25985E+01  3.19044E+02
  3.28319E+02  4.30063E+02 -4.96225E+01  6.54073E+02 -2.83572E+02  4.93252E+02  5.63014E+02  1.11635E+02
 -4.95639E+02  8.51538E+02 -3.45651E+02  1.53094E+02 -2.23789E+02 -1.39849E+02 -3.68198E+01 -9.56770E+02
  4.70360E+02 -3.70861E+02  1.15154E+02 -7.73679E+01  5.71160E+02 -7.18197E+02  5.00196E+02  5.13667E+02
  4.63346E+02  2.34702E+02 -6.96529E+01  3.21189E+02 -6.64914E+02  2.85733E+02 -4.77518E+02  8.94801E+01
 -2.14632E+02 -1.18454E+02 -4.68858E+02  1.25802E+02 -5.43143E+02  5.11474E+01 -7.42408E+02 -3.44296E+02
 -6.88948E+02  4.63190E+02 -5.58729E+02 -6.57016E+02  7.37081E+02 -1.29242E+03  6.99977E+02 -3.05270E+02
  5.07688E+02  6.24291E+01 -4.91786E+02 -2.88676E+02  3.69718E+01  6.23115E+02 -3.14799E+02  4.46020E+02
