 $NMID ID='MM_0lb_SNR800_19hz_g50_22.RAW', FMTDAT='(8E13.5)'
 TRAMP=1., VOLUME=1. $END
  3.09802E+05  6.93967E+02  3.37503E+05  2.50409E+05  8.44996E+04  3.37500E+05 -1.32504E+05  2.50260E+05
 -1.89737E+05  8.24418E+04 -1.11186E+05 -3.29230E+04  1.55426E+03 -5.04728E+04  5.40916E+04  7.86654E+01
  3.51263E+04  5.28677E+04 -1.68726E+04  7.49292E+04 -6.01136E+04  6.28318E+04 -8.31280E+04  3.17827E+04
 -7.98213E+04 -1.13043E+04 -5.62950E+04 -5.01614E+04 -1.49842E+04 -6.84467E+04  2.66412E+04 -4.50235E+04
  3.92434E+04  3.50027E+03  1.57829E+04  4.71883E+04 -3.40841E+04  4.61533E+04 -6.55187E+04 -4.69078E+02
 -5.19481E+04 -5.58810E+04 -6.14596E+03 -7.53626E+04  3.31564E+04 -5.37380E+04  4.64050E+04 -1.64265E+04
  4.17635E+04  1.11185E+04  3.08870E+04  2.43865E+04  1.55109E+04  2.82969E+04 -4.37083E+03  2.68154E+04
 -2.16604E+04  1.28845E+04 -1.90509E+04 -4.34112E+03  4.32564E+03 -7.60527E+03  2.14983E+04  1.12479E+04
  7.63977E+03  3.33474E+04 -3.02988E+04  3.43230E+04 -6.12276E+04  2.12404E+03 -5.54111E+04 -4.10832E+04
 -1.26297E+04 -6.07339E+04  3.81873E+04 -4.37265E+04  5.55532E+04 -2.05553E+03  3.18992E+04  3.04533E+04
 -6.59543E+03  3.31036E+04 -2.85455E+04  1.36404E+04 -2.75233E+04 -5.57846E+03 -1.45688E+04 -1.00556E+04
 -7.50540E+03 -1.13944E+04 -9.68058E+02 -1.67084E+04  6.63985E+03 -2.25917E+04  1.50676E+04 -1.41273E+04
  1.21524E+04  4.27581E+03 -6.29505E+03  1.30261E+04 -1.92309E+04 -2.68622E+03 -7.59479E+03 -3.06890E+04
  2.09455E+04 -4.05339E+04  4.48707E+04 -1.87628E+04  4.20034E+04  1.80487E+04  1.44760E+04  4.16601E+04
 -1.53135E+04  3.12672E+04 -2.35024E+04  1.00411E+03 -8.21631E+03 -2.64594E+04  2.05934E+04 -3.13798E+04
  3.79675E+04 -7.27829E+03  3.16397E+04  2.28039E+04  1.56000E+04  4.25271E+04 -7.55497E+03  4.53487E+04
 -2.85885E+04  3.00443E+04 -3.73690E+04  8.30545E+03 -3.81616E+04 -1.49860E+04 -2.13319E+04 -3.43394E+04
  6.88607E+03 -3.41326E+04  2.92986E+04 -1.27341E+04  2.67271E+04  1.07303E+04  3.02045E+03  1.77229E+04
 -1.30806E+04  7.48881E+03 -9.59205E+03 -7.84616E+03  5.50966E+03 -1.02370E+04  1.72573E+04  6.41706E+03
  1.22928E+04  2.14006E+04 -6.63465E+03  2.33863E+04 -2.13755E+04  8.85951E+03 -2.49667E+04 -6.18695E+03
 -1.67508E+04 -1.65016E+04 -5.48630E+03 -1.69428E+04  4.02458E+03 -1.45794E+04  1.26976E+04 -1.41858E+04
  2.12976E+04 -1.17830E+04  2.81383E+04  1.21967E+03  2.13142E+04  1.65724E+04  4.14590E+03  3.22410E+04
 -1.60831E+04  2.75415E+04 -2.58062E+04  9.54412E+03 -1.96291E+04 -1.04574E+04 -3.76466E+03 -1.38674E+04
  2.27353E+03 -4.22972E+03 -2.67337E+03  5.29422E+03 -1.30805E+04  5.55800E+03 -1.34893E+04 -4.64924E+03
 -8.47587E+03 -1.55762E+04  4.45946E+03 -1.92405E+04  1.25083E+04 -1.41134E+04  1.44814E+04 -1.26751E+03
  8.98854E+03  1.08792E+04 -1.15279E+03  1.56344E+04 -1.01867E+04  8.78547E+03 -1.52457E+04 -3.16767E+03
 -1.14131E+04 -1.39832E+04 -1.67263E+03 -1.89817E+04  8.61679E+03 -1.52286E+04  1.59004E+04 -7.08170E+03
  1.44723E+04  8.13623E+02  1.03084E+04  4.03120E+03  5.30588E+03  5.79831E+02  7.61830E+03 -1.54421E+03
  1.36216E+04  2.72168E+03  1.45586E+04  1.26480E+04  9.03279E+03  2.47278E+04 -3.16354E+03  2.64871E+04
 -1.57650E+04  1.99359E+04 -2.42691E+04  9.59430E+03 -2.45110E+04 -1.77266E+03 -2.11815E+04 -1.39727E+04
 -9.98827E+03 -2.01737E+04  6.78337E+03 -1.89186E+04  1.66993E+04 -1.07526E+04  1.53462E+04  3.64124E+03
  6.24238E+03  1.09455E+04 -6.97889E+03  1.03750E+04 -1.31838E+04  2.49180E+03 -1.02860E+04 -7.82360E+03
 -1.83356E+01 -1.21265E+04  6.11458E+03 -9.34546E+03  7.73135E+03 -1.59299E+03  1.66184E+03  5.18359E+03
 -5.38205E+03  1.43877E+03 -3.39399E+03 -4.79882E+03  7.17947E+02 -9.97397E+03  8.02314E+03 -9.51703E+03
  1.19728E+04 -4.39266E+03  1.18428E+04  2.79788E+03  1.04795E+04  9.20147E+03  5.33989E+03  1.34414E+04
 -1.52748E+03  1.56319E+04 -9.42523E+03  9.89661E+03 -1.10123E+04  2.86166E+03 -8.42917E+03 -2.02211E+03
 -4.64899E+03 -3.06045E+03 -6.31552E+02  1.65524E+03 -2.02349E+03  2.01027E+03 -3.87461E+03  3.59277E+03
 -7.95857E+03 -4.21163E+02 -8.84386E+03 -7.28288E+03 -3.42360E+03 -1.14867E+04  3.24089E+03 -8.25802E+03
  7.09937E+03 -3.72292E+03  5.31418E+03  1.98409E+03  4.47494E+02  2.88258E+03 -3.25086E+03 -1.07162E+01
 -3.28296E+03 -4.93472E+03 -7.99628E+02 -7.14315E+03  3.63563E+03 -7.70194E+03  9.83353E+03 -3.98343E+03
  1.13920E+04  5.26659E+02  8.61158E+03  5.92179E+03  1.81613E+03  8.17395E+03 -5.22631E+03  8.13205E+03
 -6.81439E+03  2.79955E+03 -3.54994E+03 -1.33494E+03  1.28847E+03 -1.85167E+03  4.89801E+03 -1.37940E+03
  4.21394E+03  3.17158E+03  1.05376E+03  6.41192E+03 -4.37156E+03  6.39614E+03 -7.35721E+03  1.71878E+03
 -4.69490E+03 -3.50060E+03  3.99537E+02 -6.68626E+03  3.55940E+03 -3.25373E+03  3.43795E+03  9.57055E+02
  3.11064E+02  3.21113E+03 -3.77886E+03  4.62092E+03 -4.64860E+03  2.44481E+03 -4.28265E+03 -8.85262E+02
 -2.89128E+03 -5.72743E+03  1.20205E+03 -6.95859E+03  5.26994E+03 -4.50921E+03  5.90382E+03  7.65131E+02
  4.46587E+03  5.19522E+03  2.96015E+02  7.01321E+03 -4.67085E+03  4.02689E+03 -4.99818E+03 -2.43414E+02
 -5.60323E+03 -4.96278E+03 -1.18356E+03 -4.78490E+03  2.46969E+03 -4.31429E+03  2.83826E+03 -2.85677E+03
  2.69757E+03  5.94101E+02  4.91178E+02  1.34490E+03  7.71701E+02 -4.23174E+01  7.37170E+01 -1.93068E+03
  3.55437E+03 -6.56407E+02  4.97057E+03  5.75127E+02  5.24035E+03  2.99120E+03  4.91336E+03  6.74038E+03
 -1.15961E+03  8.16314E+03 -7.27494E+03  6.21466E+03 -9.41911E+03  1.09175E+03 -7.76643E+03 -2.51552E+03
 -4.33297E+03 -6.40866E+03 -3.80579E+02 -5.00599E+03  2.18318E+03 -2.18324E+03  1.67027E+03 -2.07200E+03
  1.18126E+03 -1.47748E+03  2.05331E+03 -2.06853E+03  3.50940E+03 -1.30681E+03  3.43962E+03  5.65125E+02
  4.21509E+03  8.80065E+02  9.06608E+02  3.33112E+03 -1.56288E+03  2.66033E+03 -4.10633E+03  2.64056E+03
 -4.52681E+03 -8.59602E+02 -1.65067E+03 -3.01664E+03  4.69286E+02 -4.75556E+03  2.96381E+03 -5.05660E+03
  4.83025E+03 -2.98738E+03  6.60720E+03  3.97649E+02  4.83680E+03  3.89866E+03  1.18766E+03  5.52233E+03
 -2.20538E+03  5.41666E+03 -3.03183E+03  1.75585E+03 -2.02037E+03 -1.08312E+03 -6.25462E+02 -5.49421E+02
 -4.50794E+02  2.07757E+02 -9.48262E+02  2.08067E+03 -2.62293E+03  1.03598E+03 -4.04397E+03 -2.17453E+02
 -1.54581E+03 -3.98205E+03  6.16216E+02 -4.46922E+03  2.62757E+03 -4.24759E+03  3.09115E+03 -1.10013E+03
  4.02611E+03  2.51450E+03  1.40622E+03  3.17914E+03 -8.81785E+02  4.15672E+03 -2.30027E+03  2.45161E+03
 -3.46583E+03  5.03432E+02 -3.36117E+03 -1.94561E+03 -1.99892E+02 -2.83575E+03  1.57800E+03 -2.11624E+03
  2.81779E+03 -1.31161E+03  1.87362E+03  1.74226E+02  2.66130E+02  1.56240E+03  1.09583E+03  2.52490E+02
  1.62977E+03  4.22695E+02  8.45878E+02  8.58000E+02  1.00131E+03  2.13973E+03  1.28069E+03  1.68248E+03
 -1.28126E+03  2.64230E+03 -2.20814E+03  4.09623E+03 -2.64059E+03  1.05373E+03 -3.86716E+03 -1.50442E+02
 -1.59537E+03 -3.33982E+03  5.88765E+02 -4.30370E+03  1.41859E+03 -2.49989E+03  2.63578E+03 -8.55240E+02
  2.39832E+03  1.89485E+03  2.45836E+02  2.04870E+03 -4.99057E+02  1.08390E+03 -6.87903E+02 -2.74945E+02
 -4.87051E+02 -1.32508E+03  1.18684E+03 -1.28689E+03  1.24356E+03 -6.66369E+02  1.24301E+03  3.11298E+02
  6.45158E+02  2.60816E+02  5.74073E+02 -3.37971E+02 -3.83829E+02  5.57315E+02  1.54848E+03 -1.34353E+02
 -3.24568E+02 -1.31853E+02  1.47313E+03  3.41543E+02  9.85655E+01  2.08686E+03 -3.22315E+02  2.66826E+03
 -1.34737E+03  8.77916E+02 -1.96761E+03  3.27558E+02 -2.19106E+03 -7.77554E+02  2.17516E+00 -9.42432E+02
  1.88308E+02 -1.04835E+03  7.44432E+02 -5.12699E+02  9.56443E+02  1.41308E+03 -7.90922E+02  7.61462E+02
 -1.10614E+03  4.22122E+02 -1.27892E+03 -1.12479E+03 -5.36313E+02 -2.20929E+03  2.23004E+02 -1.25411E+03
  2.44613E+02 -4.66935E+02  6.30585E+02  1.60897E+02  1.31280E+03 -1.68844E+02  1.78518E+02  1.10811E+03
 -2.07822E+02  1.56928E+01 -9.74842E+02 -6.01250E+01  5.08196E+02 -7.45263E+02  1.43543E+03 -6.52508E+02
  9.39933E+02  3.06514E+02  2.77790E+03  5.88549E+02  1.24519E+03  1.48175E+03 -2.38950E+02  1.60724E+03
 -8.36779E+02  1.10248E+01 -1.34185E+03 -8.33282E+00 -7.91606E+02 -1.31677E+03  5.87049E+02 -5.50639E+02
  1.28973E+03 -6.02563E+02  6.18539E+02  6.11300E+02 -3.35444E+01  1.18795E+03  5.15717E+02  6.81867E+02
 -3.27707E+02  1.15361E+03 -3.18970E+02  2.18943E+02  1.52482E+02  5.08382E+02 -6.32790E+02  3.88524E+02
 -5.54312E+02  1.06684E+03 -1.66398E+03  4.72220E+02 -1.55522E+03  1.37073E+02 -2.29205E+03 -6.60099E+02
 -1.18221E+03 -1.93018E+03  3.76833E+02 -2.74240E+03  1.09490E+03 -2.10501E+03  2.40549E+03 -8.64455E+02
  2.17466E+03 -2.62417E+02  1.09920E+03  1.38728E+03 -6.35499E+02  1.26709E+03 -4.63357E+02  8.91657E+02
 -6.85739E+02  7.19459E+02 -5.48694E+02 -2.21476E+02 -3.15715E+02  2.56338E+02 -6.02297E+02  2.16498E+01
 -8.86453E+02 -2.02687E+02 -8.56926E+02  1.21764E+02  2.02920E+02 -4.99196E+02 -4.15924E+02 -8.46559E+02
  1.18884E+03 -5.36329E+02  1.93497E+02 -9.06332E+01  1.26165E+03  1.09758E+03 -5.85669E+02  1.17482E+03
 -7.55577E+02  1.76691E+03 -1.43093E+03  1.15321E+03 -1.50196E+03  1.08042E+02 -1.03831E+03 -9.72458E+02
 -8.94526E+02 -1.11324E+03 -1.01571E+01 -9.86194E+02  4.72881E+02 -3.91388E+02  7.06623E+02  2.85545E+02
  1.04503E+03 -3.77876E+00  1.27917E+02  4.07311E+02 -2.68930E+02  2.09553E+02 -1.95067E+02 -1.16027E+01
  3.97668E+02  4.49479E+01  1.60588E+02  3.90681E+02  4.35634E+01  4.66825E+02  4.33800E+02  3.15329E+02
 -6.72907E+02  8.15953E+02 -3.08439E+02  1.95272E+02 -5.43857E+02 -3.74901E+02 -6.27473E+01 -1.02391E+03
  4.70745E+02 -6.62011E+02  3.86850E+02  1.08528E+02  8.20366E+02 -7.11218E+02  2.12011E+02  7.76476E+02
  4.60460E+02  4.40309E+02  3.29565E+00  4.82802E+02 -4.56809E+02  4.60401E+02 -5.52318E+02  5.95050E+01
 -1.90982E+02 -2.78516E+02 -2.84587E+02  1.13196E+02 -5.93293E+02 -9.53454E+01 -3.52218E+02 -1.47549E+02
 -9.97779E+02  3.44451E+02 -1.65911E+02 -9.30158E+02  7.26172E+02 -1.42855E+03  5.45339E+02 -2.16570E+02
  6.70485E+02 -1.33899E+02 -3.21519E+02  1.98642E+02 -1.92322E+02  7.76595E+02 -6.12545E+02  7.08172E+02
