 $NMID ID='MM_0lb_SNR800_8hz_g50_24.RAW', FMTDAT='(8E13.5)'
 TRAMP=1., VOLUME=1. $END
  3.09395E+05  5.38605E+02  3.37713E+05  2.50712E+05  8.49595E+04  3.38848E+05 -1.32791E+05  2.52076E+05
 -1.91158E+05  8.38075E+04 -1.13241E+05 -3.22790E+04  9.87793E+01 -5.10615E+04  5.38600E+04 -6.91090E+02
  3.60338E+04  5.27834E+04 -1.66299E+04  7.57812E+04 -6.18806E+04  6.40808E+04 -8.57035E+04  3.22693E+04
 -8.23291E+04 -1.16747E+04 -5.83365E+04 -5.21977E+04 -1.51100E+04 -7.17801E+04  2.81401E+04 -4.73057E+04
  4.16754E+04  3.61221E+03  1.73273E+04  4.85620E+04 -3.48327E+04  4.88533E+04 -6.84377E+04  2.71871E+02
 -5.51935E+04 -5.78054E+04 -7.39320E+03 -7.96531E+04  3.50112E+04 -5.74354E+04  5.03456E+04 -1.90571E+04
  4.57461E+04  1.12536E+04  3.33850E+04  2.65465E+04  1.60165E+04  3.10078E+04 -5.65082E+03  2.80126E+04
 -2.23420E+04  1.17349E+04 -1.84230E+04 -5.95914E+03  7.25275E+03 -7.21266E+03  2.35131E+04  1.45095E+04
  7.35620E+03  3.78037E+04 -3.43457E+04  3.70696E+04 -6.59806E+04  1.96249E+03 -5.89922E+04 -4.52203E+04
 -1.23110E+04 -6.63799E+04  4.18293E+04 -4.80511E+04  6.19296E+04 -2.73118E+03  3.72440E+04  3.46767E+04
 -4.84571E+03  4.03045E+04 -3.24240E+04  1.91724E+04 -3.37428E+04 -3.43033E+03 -1.97062E+04 -1.16223E+04
 -9.62923E+03 -1.51928E+04 -1.13766E+02 -2.01139E+04  8.63886E+03 -2.35051E+04  1.58600E+04 -1.27158E+04
  1.05368E+04  6.35705E+03 -1.14451E+04  1.30537E+04 -2.37812E+04 -7.60103E+03 -8.68054E+03 -3.81091E+04
  2.59003E+04 -4.79905E+04  5.31290E+04 -2.10927E+04  4.92880E+04  2.08929E+04  1.76410E+04  4.77160E+04
 -1.67147E+04  3.68023E+04 -2.77750E+04  2.86433E+03 -1.21485E+04 -2.99295E+04  2.15557E+04 -3.72752E+04
  4.58530E+04 -1.17160E+04  4.16003E+04  2.54713E+04  2.17372E+04  5.16872E+04 -8.23525E+03  5.72996E+04
 -3.58683E+04  3.91626E+04 -4.88818E+04  1.17167E+04 -4.86098E+04 -1.87597E+04 -2.65925E+04 -4.30933E+04
  8.36937E+03 -4.32122E+04  3.46404E+04 -1.75503E+04  3.25605E+04  1.13576E+04  5.67476E+03  2.12591E+04
 -1.38609E+04  9.77764E+03 -1.12601E+04 -7.77442E+03  5.43421E+03 -1.13447E+04  1.86762E+04  5.57360E+03
  1.48824E+04  2.22646E+04 -4.68677E+03  2.74853E+04 -2.36278E+04  1.48733E+04 -3.25398E+04 -2.43686E+03
 -2.64126E+04 -1.85054E+04 -1.22815E+04 -2.63582E+04  4.26607E+03 -2.68093E+04  2.08736E+04 -2.39610E+04
  3.38368E+04 -1.46268E+04  3.90265E+04  5.47134E+03  2.82351E+04  2.50125E+04  4.62770E+03  4.22862E+04
 -2.05035E+04  3.46911E+04 -3.12946E+04  1.21153E+04 -2.30807E+04 -1.00377E+04 -4.92312E+03 -1.24277E+04
  7.29413E+02 -1.08708E+03 -8.39594E+03  8.87086E+03 -2.09882E+04  5.11647E+03 -2.06545E+04 -9.59925E+03
 -1.25067E+04 -2.40479E+04  6.44789E+03 -2.90997E+04  1.92122E+04 -2.01747E+04  2.38879E+04 -1.89128E+03
  1.48778E+04  1.68976E+04 -1.73596E+03  2.41547E+04 -1.73344E+04  1.36216E+04 -2.44601E+04 -5.09048E+03
 -1.82890E+04 -2.13460E+04 -2.05737E+03 -2.92754E+04  1.31328E+04 -2.46902E+04  2.41326E+04 -1.29005E+04
  2.24589E+04 -4.70689E+02  1.66631E+04  5.40358E+03  9.35521E+03  1.45589E+03  1.25782E+04 -1.94280E+03
  2.29096E+04  3.43816E+03  2.71196E+04  1.83429E+04  1.90667E+04  3.94131E+04 -2.36396E+03  4.63288E+04
 -2.61452E+04  3.86839E+04 -4.39300E+04  2.03231E+04 -4.67488E+04 -3.32647E+03 -3.78574E+04 -2.73237E+04
 -1.48338E+04 -3.92254E+04  1.43148E+04 -3.46645E+04  2.98427E+04 -1.61035E+04  2.57904E+04  8.58516E+03
  8.20785E+03  1.99404E+04 -1.23703E+04  1.62267E+04 -2.08354E+04  2.11747E+03 -1.57002E+04 -1.36679E+04
  2.57637E+01 -2.03597E+04  1.09799E+04 -1.48784E+04  1.40634E+04 -1.82689E+03  4.02281E+03  9.22698E+03
 -9.36171E+03  4.75678E+03 -1.00586E+04 -6.92253E+03 -2.23252E+03 -1.90256E+04  1.24056E+04 -2.10455E+04
  2.40312E+04 -1.17832E+04  2.80669E+04  3.54596E+03  2.47782E+04  1.93093E+04  1.15710E+04  3.14850E+04
 -6.48109E+03  3.30172E+04 -2.16144E+04  2.03134E+04 -2.38006E+04  4.04099E+03 -1.63662E+04 -6.47082E+03
 -6.76129E+03 -8.05843E+03 -3.03848E+02  2.16485E+02 -2.69039E+03  3.68219E+03 -7.71801E+03  5.36586E+03
 -1.53972E+04 -9.50457E+02 -1.56743E+04 -1.24546E+04 -6.20506E+03 -2.02695E+04  6.78072E+03 -1.62831E+04
  1.39938E+04 -6.62295E+03  9.72437E+03  4.76791E+03 -6.98440E+02  6.42879E+03 -8.84919E+03 -8.46456E+01
 -7.59496E+03 -1.10693E+04 -1.57384E+03 -1.62215E+04  9.53102E+03 -1.76991E+04  2.12480E+04 -9.81226E+03
  2.51455E+04  2.59761E+03  1.82861E+04  1.55612E+04  3.29874E+03  2.04322E+04 -1.02325E+04  1.64159E+04
 -1.35156E+04  4.87112E+03 -6.88839E+03 -3.86095E+03  2.24337E+03 -4.78902E+03  8.41704E+03 -9.12411E+02
  7.91507E+03  7.30808E+03  1.09190E+03  1.32902E+04 -9.76135E+03  1.29830E+04 -1.62763E+04  2.75733E+03
 -1.19039E+04 -8.52580E+03  4.57583E+02 -1.42068E+04  9.39516E+03 -7.30822E+03  1.00324E+04  3.71621E+03
  2.08616E+03  1.11034E+04 -8.67736E+03  1.27206E+04 -1.48687E+04  5.75596E+03 -1.56867E+04 -5.44657E+03
 -8.82274E+03 -1.71175E+04  4.47958E+03 -2.00478E+04  1.71064E+04 -1.18574E+04  1.79781E+04  3.71132E+03
  1.07837E+04  1.46014E+04 -1.52770E+03  1.72180E+04 -1.29147E+04  9.02428E+03 -1.38916E+04 -1.57898E+03
 -1.11349E+04 -1.11890E+04 -1.65420E+03 -1.31356E+04  7.14767E+03 -1.04948E+04  8.58302E+03 -3.70244E+03
  5.42092E+03  2.25221E+03 -1.28446E+03  2.32281E+03 -9.46904E+02 -3.97939E+03  2.89710E+03 -8.46495E+03
  1.30326E+04 -5.41988E+03  1.79851E+04  2.07310E+03  1.73796E+04  1.22437E+04  1.08113E+04  2.32829E+04
 -5.36415E+03  2.70588E+04 -2.20555E+04  1.90723E+04 -2.85924E+04  4.07800E+03 -2.28496E+04 -9.67651E+03
 -1.11180E+04 -1.91471E+04 -5.24224E+02 -1.63329E+04  5.99627E+03 -9.29692E+03  5.57009E+03 -5.52103E+03
  3.82920E+03 -3.19933E+03  4.28175E+03 -4.28602E+03  5.93502E+03 -3.69823E+03  8.68078E+03 -1.70070E+03
  1.14870E+04  2.85780E+03  6.73101E+03  1.01780E+04 -2.16520E+03  1.31578E+04 -1.26176E+04  9.68443E+03
 -1.63522E+04 -1.55743E+03 -1.03478E+04 -1.13850E+04 -1.47241E+03 -1.78600E+04  9.54375E+03 -1.75416E+04
  1.84150E+04 -9.77787E+03  2.18703E+04  2.93328E+03  1.49878E+04  1.51828E+04  2.24806E+03  1.96872E+04
 -8.19797E+03  1.53735E+04 -1.17023E+04  5.45440E+03 -8.24239E+03 -2.11629E+03 -3.58041E+03 -2.70655E+03
 -1.85917E+03 -4.31155E+02 -2.54715E+03  3.87480E+03 -6.67251E+03  2.49082E+03 -1.13108E+04 -1.80000E+03
 -8.45780E+03 -1.07909E+04 -2.83673E+02 -1.62672E+04  9.89445E+03 -1.53233E+04  1.63327E+04 -5.38060E+03
  1.68004E+04  7.97791E+03  7.74853E+03  1.47087E+04 -3.14891E+03  1.65737E+04 -1.18688E+04  1.06788E+04
 -1.58554E+04  8.39834E+02 -1.18181E+04 -1.01485E+04 -1.37429E+03 -1.43163E+04  7.29321E+03 -1.05972E+04
  1.07263E+04 -2.97907E+03  7.23181E+03  2.89805E+03  2.83118E+03  4.66697E+03  1.87971E+03  1.89512E+03
  3.17638E+03  1.60078E+03  4.00924E+03  2.08644E+03  5.04661E+03  5.65824E+03  3.88989E+03  8.95538E+03
 -3.28124E+03  1.35989E+04 -1.18340E+04  1.32261E+04 -1.76188E+04  3.25327E+03 -1.78804E+04 -8.20057E+03
 -9.36135E+03 -1.74531E+04  2.88926E+03 -1.82642E+04  1.03038E+04 -1.23140E+04  1.41777E+04 -3.17749E+03
  1.08530E+04  6.54293E+03  2.24781E+03  9.82281E+03 -4.69804E+03  6.42278E+03 -7.35323E+03 -1.27170E+03
 -3.49001E+03 -7.49031E+03  4.30123E+03 -7.28401E+03  6.90340E+03 -3.81929E+03  6.67611E+03  1.64899E+03
  3.78406E+03  3.07208E+03  1.68319E+03  3.27347E+03 -4.64425E+02  2.14581E+03  1.66420E+03 -2.94084E+02
  3.02547E+03 -9.53302E+02  7.06349E+03  2.73656E+03  4.20375E+03  9.08907E+03 -1.87072E+03  1.23701E+04
 -8.11728E+03  8.47392E+03 -1.12735E+04  2.50839E+03 -1.02526E+04 -4.20383E+03 -4.32861E+03 -6.56206E+03
  1.26305E+03 -6.92519E+03  4.42379E+03 -2.79376E+03  3.64545E+03  3.04734E+03 -1.63702E+03  5.97624E+03
 -6.96096E+03  3.38609E+03 -8.27989E+03 -4.89031E+03 -4.72186E+03 -9.54142E+03  1.48966E+03 -9.87629E+03
  6.08104E+03 -5.81133E+03  7.05516E+03 -6.59986E+02  5.75396E+03  3.21960E+03  7.56532E+02  5.09939E+03
 -3.58198E+03  1.76949E+03 -4.09334E+03 -3.48282E+03  1.67144E+03 -7.73533E+03  9.08146E+03 -6.19016E+03
  1.16255E+04  1.37355E+03  1.04519E+04  7.78557E+03  3.68889E+03  1.19001E+04 -3.79298E+03  1.11012E+04
 -9.82416E+03  5.15067E+03 -1.01949E+04 -1.51730E+03 -5.82857E+03 -7.53435E+03  2.11545E+03 -6.98200E+03
  7.36473E+03 -3.69002E+03  6.58455E+03  3.11505E+03  1.84963E+03  6.52602E+03 -1.58385E+03  5.70983E+03
 -3.08420E+03  3.55629E+03 -2.91772E+03  1.14046E+03 -1.52436E+03  8.22468E+02 -2.01449E+03  2.84132E+03
 -3.38887E+03  4.62871E+03 -8.09143E+03  3.85750E+03 -1.17492E+04  5.30774E+02 -1.31672E+04 -7.95861E+03
 -7.43794E+03 -1.58163E+04  2.76274E+03 -1.82109E+04  1.19656E+04 -1.42694E+04  1.71411E+04 -5.08176E+03
  1.60963E+04  3.43414E+03  9.99105E+03  1.06274E+04  1.13662E+03  1.27512E+04 -5.07139E+03  9.43209E+03
 -7.26812E+03  3.63253E+03 -4.30663E+03 -1.42406E+03 -1.27399E+03 -1.49483E+03 -6.61983E+02 -3.74308E+02
 -2.09723E+03  5.60945E+02 -2.16010E+03 -5.98044E+02 -1.12782E+03 -2.86281E+03  2.93073E+02 -4.23059E+03
  5.15997E+03 -4.33876E+03  8.06325E+03 -2.70079E+02  8.48096E+03  6.25723E+03  2.53051E+03  1.25375E+04
 -5.97525E+03  1.42810E+04 -1.32654E+04  8.07065E+03 -1.49993E+04 -1.52683E+03 -1.12698E+04 -9.44597E+03
 -5.21140E+03 -1.28138E+04  3.03064E+03 -1.17784E+04  8.04577E+03 -6.73465E+03  8.65449E+03  3.66663E+02
  5.13355E+03  4.13272E+03 -1.45808E+02  3.61603E+03 -2.70281E+03 -3.00294E+02 -2.44689E+01 -2.94082E+03
  4.03282E+03 -2.28811E+03  5.16193E+03  1.59871E+03  3.70949E+03  4.69853E+03  2.14047E+02  6.96967E+03
 -5.93045E+03  6.09874E+03 -8.76106E+03  5.94036E+02 -7.69854E+03 -6.30973E+03 -1.31525E+03 -1.04956E+04
  5.74097E+03 -9.02887E+03  9.86545E+03 -3.06446E+03  9.64664E+03  2.90567E+03  5.56902E+03  8.11138E+03
  1.09792E+03  8.53562E+03 -3.52009E+03  7.02256E+03 -5.29818E+03  3.51149E+03 -4.40540E+03  3.51611E+02
 -2.32967E+03 -2.80400E+02 -2.28356E+03  1.12673E+03 -4.57915E+03  1.52952E+03 -6.54858E+03 -1.39886E+03
 -6.42940E+03 -4.79024E+03 -2.11809E+03 -8.47834E+03  3.38077E+03 -8.60787E+03  7.89963E+03 -4.12457E+03
  8.85876E+03  1.00032E+03  4.62047E+03  6.54002E+03 -8.37227E+02  9.22547E+03 -6.35252E+03  5.67129E+03
