 $NMID ID='MM_0lb_SNR800_15hz_g50_77.RAW', FMTDAT='(8E13.5)'
 TRAMP=1., VOLUME=1. $END
  3.09663E+05  4.28170E+02  3.37565E+05  2.50685E+05  8.47342E+04  3.37899E+05 -1.32665E+05  2.50834E+05
 -1.89971E+05  8.34563E+04 -1.11720E+05 -3.28277E+04  4.87668E+02 -5.02265E+04  5.39712E+04 -1.70429E+02
  3.53184E+04  5.29426E+04 -1.67804E+04  7.53529E+04 -6.08379E+04  6.34366E+04 -8.42829E+04  3.19147E+04
 -8.09509E+04 -1.11500E+04 -5.71892E+04 -5.09006E+04 -1.51303E+04 -6.95426E+04  2.69755E+04 -4.56117E+04
  3.97751E+04  3.55910E+03  1.59650E+04  4.76766E+04 -3.44908E+04  4.70932E+04 -6.63893E+04 -1.12506E+02
 -5.33650E+04 -5.66601E+04 -6.47861E+03 -7.69070E+04  3.37089E+04 -5.46829E+04  4.78103E+04 -1.72683E+04
  4.31605E+04  1.10042E+04  3.17076E+04  2.53611E+04  1.56558E+04  2.94195E+04 -5.16092E+03  2.74947E+04
 -2.20139E+04  1.25104E+04 -1.85786E+04 -4.71250E+03  5.19378E+03 -7.59728E+03  2.22777E+04  1.19692E+04
  7.16806E+03  3.51920E+04 -3.18045E+04  3.50532E+04 -6.31730E+04  2.03463E+03 -5.64985E+04 -4.28197E+04
 -1.22906E+04 -6.26909E+04  3.96032E+04 -4.49465E+04  5.77461E+04 -2.47091E+03  3.37974E+04  3.21311E+04
 -6.00496E+03  3.56445E+04 -2.95988E+04  1.55532E+04 -3.01246E+04 -4.72903E+03 -1.64217E+04 -1.07524E+04
 -8.12244E+03 -1.30337E+04 -8.40471E+02 -1.78562E+04  7.11046E+03 -2.28273E+04  1.50855E+04 -1.34212E+04
  1.13190E+04  4.88008E+03 -8.07414E+03  1.30427E+04 -2.09654E+04 -4.05934E+03 -8.08890E+03 -3.29072E+04
  2.24303E+04 -4.28781E+04  4.77116E+04 -1.93791E+04  4.46093E+04  1.92944E+04  1.58364E+04  4.38025E+04
 -1.62960E+04  3.31452E+04 -2.49825E+04  1.75748E+03 -9.75088E+03 -2.74196E+04  2.07451E+04 -3.31999E+04
  4.05374E+04 -8.79416E+03  3.46614E+04  2.35860E+04  1.77595E+04  4.57365E+04 -8.25745E+03  4.92867E+04
 -3.12245E+04  3.29276E+04 -4.13870E+04  9.21813E+03 -4.16999E+04 -1.64308E+04 -2.32629E+04 -3.73045E+04
  7.19113E+03 -3.70890E+04  3.09789E+04 -1.43918E+04  2.87236E+04  1.08932E+04  3.38616E+03  1.88975E+04
 -1.34287E+04  8.28502E+03 -9.93494E+03 -7.82948E+03  5.83125E+03 -1.05287E+04  1.76926E+04  6.14119E+03
  1.35205E+04  2.19276E+04 -6.24551E+03  2.49234E+04 -2.21412E+04  1.09892E+04 -2.75133E+04 -4.98621E+03
 -1.97948E+04 -1.70407E+04 -8.01690E+03 -1.98441E+04  4.03086E+03 -1.88378E+04  1.52177E+04 -1.71227E+04
  2.55629E+04 -1.23868E+04  3.17108E+04  2.55076E+03  2.34312E+04  1.92819E+04  4.29893E+03  3.59336E+04
 -1.73706E+04  2.98840E+04 -2.75688E+04  1.04719E+04 -2.03748E+04 -1.00150E+04 -4.49255E+03 -1.38028E+04
  1.90797E+03 -3.08927E+03 -4.41967E+03  6.44672E+03 -1.55618E+04  5.19705E+03 -1.56742E+04 -6.85579E+03
 -9.97060E+03 -1.82148E+04  5.26820E+03 -2.23919E+04  1.50090E+04 -1.59773E+04  1.77854E+04 -1.45438E+03
  1.11214E+04  1.27208E+04 -1.29631E+03  1.85347E+04 -1.29162E+04  1.01677E+04 -1.81433E+04 -3.95446E+03
 -1.37247E+04 -1.65170E+04 -1.74878E+03 -2.23062E+04  1.00068E+04 -1.82588E+04  1.89196E+04 -8.90493E+03
  1.70101E+04  3.72278E+02  1.21294E+04  3.94767E+03  6.36398E+03  1.26304E+03  9.26022E+03 -1.32423E+03
  1.68326E+04  2.72032E+03  1.84092E+04  1.47558E+04  1.18848E+04  2.87094E+04 -3.00184E+03  3.26098E+04
 -1.90681E+04  2.61454E+04 -3.06950E+04  1.30050E+04 -3.16041E+04 -2.20265E+03 -2.66277E+04 -1.80463E+04
 -1.16838E+04 -2.57467E+04  9.14398E+03 -2.38449E+04  2.03987E+04 -1.23709E+04  1.84964E+04  5.13822E+03
  6.85027E+03  1.35392E+04 -8.35204E+03  1.21326E+04 -1.58912E+04  2.51576E+03 -1.18335E+04 -9.70413E+03
 -9.64454E+01 -1.48636E+04  7.40577E+03 -1.10709E+04  9.42291E+03 -1.28937E+03  2.12873E+03  6.00865E+03
 -6.49388E+03  2.04676E+03 -5.32088E+03 -5.56292E+03 -5.08415E+02 -1.29387E+04  9.41405E+03 -1.33463E+04
  1.58725E+04 -6.91921E+03  1.66750E+04  3.03795E+03  1.47674E+04  1.20543E+04  6.73735E+03  1.89088E+04
 -2.83792E+03  2.08597E+04 -1.33878E+04  1.31989E+04 -1.49948E+04  3.22909E+03 -1.06158E+04 -2.87265E+03
 -5.32860E+03 -4.58079E+03 -6.64464E+02  1.20217E+03 -2.60918E+03  2.48639E+03 -4.78043E+03  4.03747E+03
 -1.00228E+04 -6.53885E+02 -1.04394E+04 -8.67593E+03 -4.13525E+03 -1.40660E+04  4.23889E+03 -1.05833E+04
  9.08496E+03 -4.79893E+03  6.58770E+03  2.72474E+03  3.09699E+02  4.03174E+03 -4.64838E+03 -1.22636E+02
 -4.83709E+03 -6.81816E+03 -9.68721E+02 -1.00219E+04  5.45871E+03 -1.03568E+04  1.31386E+04 -5.50309E+03
  1.52517E+04  1.25265E+03  1.13393E+04  8.72019E+03  2.26582E+03  1.18738E+04 -6.62152E+03  1.05681E+04
 -8.37305E+03  3.59900E+03 -4.24984E+03 -1.90242E+03  1.76312E+03 -2.59034E+03  5.86884E+03 -7.45097E+02
  4.99352E+03  4.77666E+03  1.25069E+03  8.47278E+03 -5.83457E+03  7.84709E+03 -1.02776E+04  2.25537E+03
 -6.75090E+03 -4.94913E+03  3.25088E+02 -8.69031E+03  5.26998E+03 -4.38527E+03  5.32867E+03  1.79863E+03
  7.75699E+02  5.31164E+03 -5.15807E+03  6.67473E+03 -7.34177E+03  3.15657E+03 -7.21795E+03 -2.02030E+03
 -4.36989E+03 -8.61903E+03  2.05451E+03 -1.04491E+04  8.96619E+03 -6.67439E+03  9.29781E+03  1.53805E+03
  6.24214E+03  7.93842E+03 -3.51354E+02  9.63226E+03 -7.05275E+03  5.40625E+03 -7.68401E+03 -5.50655E+02
 -7.33616E+03 -6.75798E+03 -1.71905E+03 -7.07903E+03  3.64201E+03 -6.30279E+03  4.51399E+03 -3.00131E+03
  3.24056E+03  6.94906E+02 -1.49202E+02  1.35479E+03  3.53825E+02 -1.26032E+03  8.49582E+02 -3.30517E+03
  5.99430E+03 -1.98099E+03  8.17122E+03  1.11651E+03  8.64945E+03  5.29965E+03  6.67925E+03  1.11234E+04
 -2.25968E+03  1.29091E+04 -1.13762E+04  9.72674E+03 -1.46055E+04  1.67403E+03 -1.11523E+04 -4.55630E+03
 -5.83868E+03 -9.26408E+03 -4.77710E+02 -7.96211E+03  3.13326E+03 -3.69707E+03  2.82259E+03 -3.17660E+03
  2.08817E+03 -1.83692E+03  2.69254E+03 -2.84800E+03  4.51860E+03 -1.77055E+03  4.59101E+03 -2.23279E+02
  6.38062E+03  1.23737E+03  2.60291E+03  5.03447E+03 -1.64002E+03  5.24450E+03 -6.28169E+03  4.45371E+03
 -7.70290E+03 -1.30781E+03 -3.95799E+03 -5.29426E+03 -5.60272E+01 -8.03861E+03  4.66155E+03 -7.86729E+03
  8.27886E+03 -4.78816E+03  1.01843E+04  1.01567E+03  7.36716E+03  6.65678E+03  1.22334E+03  9.27539E+03
 -3.38029E+03  8.07353E+03 -5.19414E+03  2.58451E+03 -3.12175E+03 -1.27359E+03 -1.28274E+03 -9.64373E+02
 -6.97736E+02  1.42031E+02 -1.36127E+03  2.29117E+03 -3.44260E+03  1.56643E+03 -5.97961E+03 -7.87955E+02
 -3.43240E+03 -5.50965E+03  6.46087E+02 -7.32526E+03  4.55374E+03 -6.79279E+03  6.82646E+03 -1.80656E+03
  6.70024E+03  3.64884E+03  2.99674E+03  5.83798E+03 -1.32406E+03  7.12586E+03 -4.60859E+03  4.22557E+03
 -6.38210E+03  7.32568E+02 -5.23937E+03 -3.92486E+03 -5.93396E+02 -5.33970E+03  3.14867E+03 -4.09488E+03
  4.60668E+03 -1.77234E+03  3.31155E+03  7.96366E+02  1.02664E+03  2.34542E+03  1.16608E+03  9.50570E+02
  1.83282E+03  6.97697E+02  1.39663E+03  1.67091E+03  1.85448E+03  3.34916E+03  2.14316E+03  3.22982E+03
 -1.89758E+03  5.11484E+03 -4.48939E+03  5.80719E+03 -6.19648E+03  1.91573E+03 -7.23283E+03 -1.89923E+03
 -3.16613E+03 -6.54252E+03  1.07952E+03 -7.41164E+03  3.78759E+03 -4.69383E+03  5.64141E+03 -1.43489E+03
  4.10482E+03  2.84942E+03  6.61806E+02  3.86628E+03 -1.60653E+03  2.47958E+03 -2.20297E+03  2.15833E+01
 -9.94459E+02 -2.62466E+03  1.81294E+03 -2.80628E+03  2.49405E+03 -1.31998E+03  2.49187E+03  4.77660E+02
  1.34996E+03  9.54204E+02  9.01476E+02  2.86220E+02 -2.53327E+02  1.18351E+03  1.28204E+03 -1.89689E+02
  5.04638E+02 -2.48752E+02  2.72041E+03  9.98639E+02  1.04300E+03  3.73568E+03 -8.05771E+02  4.97097E+03
 -3.08022E+03  2.65445E+03 -3.79032E+03  7.21119E+02 -3.43236E+03 -1.17709E+03 -1.00270E+03 -2.06315E+03
  4.42697E+02 -2.52483E+03  1.57796E+03 -1.07278E+03  9.98714E+02  1.52945E+03 -1.01886E+03  1.60412E+03
 -2.59294E+03  1.29494E+03 -2.54713E+03 -1.89298E+03 -1.32896E+03 -3.39711E+03  4.03141E+02 -3.14509E+03
  1.41012E+03 -1.77139E+03  2.01595E+03 -2.35665E+02  2.43182E+03  3.20301E+02  3.60452E+02  2.24171E+03
 -1.08435E+03  7.16655E+02 -1.56687E+03 -7.70316E+02  9.88517E+02 -1.96628E+03  2.95967E+03 -1.88812E+03
  3.16982E+03  2.76331E+01  4.27511E+03  1.85029E+03  1.65956E+03  3.41879E+03 -7.95335E+02  3.45443E+03
 -2.85597E+03  1.11275E+03 -3.13127E+03 -6.50767E+02 -1.67670E+03 -2.30305E+03  8.85911E+02 -1.44092E+03
  2.34360E+03 -1.51315E+03  1.72196E+03  1.11019E+03  5.19895E+02  2.35415E+03  3.94427E+01  1.63139E+03
 -1.12290E+03  1.53404E+03 -9.02119E+02  5.34326E+02 -4.81386E+02  5.18380E+02 -1.14156E+03  7.49248E+02
 -1.14007E+03  1.68292E+03 -2.83452E+03  1.00892E+03 -3.25588E+03  5.35024E+01 -3.87838E+03 -2.09159E+03
 -2.35771E+03 -4.31941E+03  9.49503E+02 -5.36426E+03  2.92412E+03 -4.35379E+03  5.21973E+03 -1.61472E+03
  4.53351E+03  3.53143E+02  2.67179E+03  3.09993E+03 -6.98929E+02  3.26294E+03 -1.00555E+03  2.91785E+03
 -1.79539E+03  1.11421E+03 -1.07203E+03 -3.92328E+02 -6.16659E+02 -2.68775E+01 -5.73989E+02  1.27177E+02
 -1.24393E+03 -2.46901E+01 -1.18222E+03 -9.63494E+01  2.32926E+02 -1.23761E+03 -9.29059E+01 -1.46560E+03
  1.66439E+03 -1.06303E+03  1.59858E+03  2.39720E+02  2.61309E+03  1.82714E+03 -7.71703E+01  3.17220E+03
 -1.46327E+03  4.27045E+03 -3.64981E+03  2.62935E+03 -3.95142E+03 -4.08446E+02 -2.74601E+03 -2.55542E+03
 -1.57241E+03 -3.13791E+03  7.65841E+02 -2.60466E+03  1.78004E+03 -1.17908E+03  2.03326E+03  1.01893E+02
  1.28875E+03  1.09593E+03 -1.42955E+02  9.04749E+02 -8.30037E+02 -1.89453E+02  9.12229E+01 -9.31976E+02
  1.00647E+03  7.00770E+01  9.25039E+02  3.22847E+02  6.29642E+02  1.10435E+03  3.36639E+02  1.14035E+03
 -1.42152E+03  1.45774E+03 -1.77959E+03  4.95916E+00 -1.72125E+03 -1.32991E+03 -2.03653E+01 -2.51063E+03
  1.33091E+03 -1.78305E+03  1.90082E+03 -6.93386E+02  2.20038E+03 -9.74399E+01  1.08819E+03  1.57241E+03
  5.64788E+02  1.59234E+03 -6.17468E+02  1.40007E+03 -1.14406E+03  1.37302E+03 -8.25126E+02  3.08714E+02
 -2.17254E+02  2.32799E+02 -5.89607E+02  1.63586E+02 -1.10691E+03  3.70193E+02 -1.61496E+03 -3.21772E+02
 -2.05361E+03 -3.04570E+02 -7.79093E+02 -1.97361E+03  1.27607E+03 -2.54941E+03  1.76924E+03 -7.90868E+02
  1.77706E+03  2.22129E+02  2.68392E+02  1.19956E+03 -1.58873E+02  1.78734E+03 -1.06269E+03  1.56252E+03
