 $NMID ID='MM_0lb_SNR800_20hz_g45_1.RAW', FMTDAT='(8E13.5)'
 TRAMP=1., VOLUME=1. $END
  3.10112E+05  3.40281E+02  3.37021E+05  2.50528E+05  8.43423E+04  3.37115E+05 -1.32434E+05  2.49934E+05
 -1.89605E+05  8.25083E+04 -1.10682E+05 -3.29439E+04  1.70895E+03 -5.02606E+04  5.40098E+04  3.11847E+02
  3.49097E+04  5.27809E+04 -1.70366E+04  7.46357E+04 -6.00807E+04  6.27994E+04 -8.26637E+04  3.16435E+04
 -7.92483E+04 -1.09445E+04 -5.60887E+04 -4.97723E+04 -1.46703E+04 -6.78290E+04  2.65306E+04 -4.45136E+04
  3.89092E+04  4.02844E+03  1.53346E+04  4.67703E+04 -3.39185E+04  4.57546E+04 -6.47039E+04 -5.16438E+02
 -5.14739E+04 -5.57453E+04 -6.05531E+03 -7.45150E+04  3.27515E+04 -5.26133E+04  4.55304E+04 -1.58696E+04
  4.11449E+04  1.08534E+04  3.01714E+04  2.39974E+04  1.56977E+04  2.77205E+04 -4.33481E+03  2.66489E+04
 -2.14760E+04  1.31093E+04 -1.94686E+04 -4.02021E+03  3.88625E+03 -7.81156E+03  2.08889E+04  1.04812E+04
  7.43200E+03  3.25418E+04 -2.98544E+04  3.34847E+04 -6.03906E+04  2.15064E+03 -5.47040E+04 -4.05821E+04
 -1.23747E+04 -5.99087E+04  3.75263E+04 -4.28438E+04  5.44198E+04 -2.05725E+03  3.07949E+04  3.00055E+04
 -6.70808E+03  3.21919E+04 -2.78045E+04  1.24497E+04 -2.67644E+04 -5.65860E+03 -1.34757E+04 -9.69414E+03
 -7.22472E+03 -1.07846E+04 -1.11364E+03 -1.61186E+04  6.28153E+03 -2.23708E+04  1.49412E+04 -1.40966E+04
  1.23896E+04  3.91842E+03 -5.64479E+03  1.32836E+04 -1.83357E+04 -1.82235E+03 -7.91359E+03 -2.89887E+04
  2.00866E+04 -3.93144E+04  4.34432E+04 -1.84261E+04  4.12689E+04  1.77870E+04  1.38951E+04  4.09814E+04
 -1.51091E+04  3.02731E+04 -2.25398E+04  8.36009E+02 -7.68976E+03 -2.56843E+04  2.03456E+04 -3.01813E+04
  3.66874E+04 -6.83609E+03  3.00248E+04  2.26016E+04  1.43334E+04  4.10040E+04 -7.74456E+03  4.35820E+04
 -2.73904E+04  2.85777E+04 -3.55657E+04  7.97613E+03 -3.68594E+04 -1.46276E+04 -2.04502E+04 -3.33826E+04
  6.88028E+03 -3.31883E+04  2.81768E+04 -1.20954E+04  2.59679E+04  1.05120E+04  2.29132E+03  1.69027E+04
 -1.32778E+04  6.88031E+03 -9.43868E+03 -7.76028E+03  5.95213E+03 -1.01949E+04  1.68728E+04  6.62712E+03
  1.19747E+04  2.13704E+04 -6.87237E+03  2.26453E+04 -2.12188E+04  8.17101E+03 -2.42229E+04 -6.79084E+03
 -1.55099E+04 -1.60336E+04 -4.82053E+03 -1.55555E+04  3.77860E+03 -1.31847E+04  1.16418E+04 -1.29045E+04
  1.95579E+04 -1.12999E+04  2.65400E+04  8.09891E+02  2.05553E+04  1.50763E+04  4.26183E+03  3.10839E+04
 -1.55822E+04  2.65094E+04 -2.50785E+04  9.12971E+03 -1.92453E+04 -1.04841E+04 -3.74194E+03 -1.40089E+04
  2.76690E+03 -4.50995E+03 -1.74696E+03  4.81965E+03 -1.20786E+04  5.13649E+03 -1.25516E+04 -4.52973E+03
 -8.29845E+03 -1.43099E+04  4.59756E+03 -1.82896E+04  1.16799E+04 -1.34284E+04  1.35011E+04 -1.67777E+03
  8.14443E+03  1.01584E+04 -7.28316E+02  1.46028E+04 -9.36644E+03  8.19592E+03 -1.42968E+04 -3.07677E+03
 -1.08768E+04 -1.31851E+04 -1.35272E+03 -1.75898E+04  7.86269E+03 -1.41855E+04  1.51665E+04 -6.53539E+03
  1.36053E+04  1.05497E+03  9.76040E+03  3.51717E+03  4.66966E+03  3.69035E+02  7.01953E+03 -1.21185E+03
  1.28481E+04  2.66377E+03  1.32788E+04  1.18922E+04  7.90123E+03  2.28014E+04 -3.33388E+03  2.41044E+04
 -1.44244E+04  1.81853E+04 -2.21596E+04  8.64362E+03 -2.24048E+04 -1.78283E+03 -1.94990E+04 -1.26175E+04
 -9.46540E+03 -1.80820E+04  5.89112E+03 -1.71396E+04  1.51702E+04 -1.03005E+04  1.45191E+04  2.94971E+03
  6.51805E+03  1.00825E+04 -6.57341E+03  9.60837E+03 -1.27862E+04  2.69768E+03 -9.97724E+03 -7.21253E+03
  2.92911E+01 -1.15606E+04  5.55986E+03 -8.74512E+03  7.04459E+03 -1.73260E+03  1.28525E+03  4.55508E+03
 -5.09053E+03  8.54915E+02 -3.16652E+03 -4.26026E+03  1.15799E+03 -9.14366E+03  7.27308E+03 -8.76205E+03
  1.07946E+04 -3.76361E+03  1.00956E+04  2.59909E+03  8.71134E+03  8.56186E+03  4.17976E+03  1.21968E+04
 -1.39900E+03  1.41380E+04 -8.49063E+03  8.76266E+03 -9.62818E+03  2.93683E+03 -7.59789E+03 -1.41451E+03
 -4.35697E+03 -2.77776E+03 -8.17467E+02  1.74655E+03 -1.81043E+03  1.76651E+03 -3.01178E+03  3.55981E+03
 -7.15454E+03 -3.35417E+02 -8.27195E+03 -6.58530E+03 -3.36022E+03 -1.04600E+04  3.26786E+03 -7.74697E+03
  6.62334E+03 -3.44104E+03  4.79129E+03  2.05053E+03  6.87373E+02  2.51626E+03 -2.89800E+03 -3.85938E+00
 -2.75585E+03 -4.58022E+03 -6.54645E+02 -6.33306E+03  3.22319E+03 -6.80943E+03  8.86425E+03 -3.17482E+03
  1.02083E+04  2.88339E+02  7.89951E+03  5.31215E+03  1.40954E+03  7.30730E+03 -4.62581E+03  7.52235E+03
 -5.92060E+03  2.65457E+03 -3.41504E+03 -1.12665E+03  1.41611E+03 -1.64955E+03  4.42992E+03 -1.14816E+03
  3.60826E+03  2.89464E+03  1.17840E+03  5.58327E+03 -3.74526E+03  6.03378E+03 -7.18349E+03  1.70225E+03
 -4.42422E+03 -3.09287E+03  2.15927E+02 -5.98006E+03  2.94794E+03 -2.88255E+03  2.97040E+03  8.56594E+02
  2.86834E+02  2.36135E+03 -3.63155E+03  4.10954E+03 -3.83407E+03  1.90709E+03 -3.28367E+03 -6.09053E+02
 -2.37009E+03 -4.87738E+03  1.28903E+03 -6.01677E+03  5.20934E+03 -3.99916E+03  5.35597E+03  5.26358E+02
  3.97172E+03  4.45518E+03  3.04888E+02  6.18449E+03 -4.22053E+03  3.71092E+03 -4.66253E+03 -3.18057E+02
 -5.24662E+03 -4.50080E+03 -1.28573E+03 -4.21401E+03  2.14770E+03 -4.04307E+03  2.35583E+03 -2.93566E+03
  2.83480E+03  1.82414E+02  6.14746E+01  1.16058E+03  7.02494E+02 -6.24844E+01 -1.20546E+02 -1.34891E+03
  3.02968E+03 -5.63654E+02  4.09619E+03  3.67570E+02  4.40112E+03  2.11531E+03  4.68091E+03  5.72849E+03
 -1.22246E+03  6.88963E+03 -6.67783E+03  5.54230E+03 -8.21865E+03  9.38707E+02 -6.35366E+03 -1.84385E+03
 -3.70203E+03 -5.53457E+03 -5.65466E+02 -4.03447E+03  1.68256E+03 -1.58263E+03  1.36898E+03 -1.77872E+03
  9.56587E+02 -1.16755E+03  1.81759E+03 -2.25233E+03  3.18466E+03 -1.19196E+03  3.46270E+03  7.86025E+02
  3.86237E+03  1.01737E+03  7.53509E+02  2.84233E+03 -1.41529E+03  2.00701E+03 -3.74554E+03  2.12583E+03
 -4.04630E+03 -1.10667E+03 -1.00155E+03 -2.73630E+03  5.62264E+02 -3.84541E+03  2.70869E+03 -4.25478E+03
  4.08680E+03 -2.69758E+03  5.73906E+03  7.42311E+01  4.24732E+03  3.26345E+03  8.77867E+02  4.85871E+03
 -1.80377E+03  4.85429E+03 -2.99871E+03  1.56937E+03 -1.61830E+03 -8.20405E+02 -5.86401E+02 -5.59381E+02
 -5.26486E+02  4.49937E+02 -1.02538E+03  1.78066E+03 -2.21778E+03  9.01426E+02 -3.49817E+03 -2.32379E+02
 -1.21809E+03 -3.48208E+03  7.91637E+02 -3.71282E+03  1.94174E+03 -3.43602E+03  2.63821E+03 -7.66181E+02
  3.27900E+03  1.96838E+03  1.36636E+03  2.59476E+03 -6.34385E+02  3.41486E+03 -1.90571E+03  2.25332E+03
 -3.02235E+03  8.34393E+02 -2.98744E+03 -1.91385E+03 -7.84713E+00 -2.24910E+03  1.10683E+03 -1.95188E+03
  1.96420E+03 -1.25779E+03  1.41437E+03  1.95853E+02  4.36841E+02  1.53905E+03  7.98192E+02  4.23521E+02
  1.47941E+03  5.28269E+02  6.33005E+02  8.77820E+02  1.19229E+03  1.98983E+03  1.22796E+03  1.41677E+03
 -1.43400E+03  2.13226E+03 -1.99075E+03  3.25750E+03 -1.91693E+03  9.72221E+02 -3.49158E+03  1.46349E+02
 -1.26882E+03 -2.72612E+03  5.34033E+02 -3.92821E+03  1.46793E+03 -1.86175E+03  2.71680E+03 -8.75176E+02
  1.79884E+03  1.39465E+03  2.44720E+02  1.80456E+03 -4.16915E+02  7.36064E+02 -5.24757E+02 -4.02887E+01
 -3.66318E+02 -9.56274E+02  1.24845E+03 -1.11478E+03  7.87036E+02 -5.48288E+02  8.75972E+02  1.59644E+02
  5.30346E+02 -8.76903E+01  5.58895E+02 -3.95562E+02 -4.48688E+02  5.77528E+02  1.49904E+03 -9.05647E+00
 -5.63849E+01  3.70904E+00  1.38574E+03  5.01210E+02  1.36225E+02  1.94658E+03 -3.39738E+02  2.72790E+03
 -1.49428E+03  6.94756E+02 -1.49493E+03  2.42908E+02 -1.49237E+03 -5.80320E+02 -8.65508E+01 -7.11380E+02
  4.52416E+02 -9.61369E+02  4.83992E+02 -5.37651E+02  6.91532E+02  1.27601E+03 -6.27083E+02  8.55622E+02
 -1.12859E+03  4.37050E+02 -9.21923E+02 -1.05669E+03 -2.46554E+02 -1.63774E+03  5.76185E+01 -1.04068E+03
  8.65660E+00 -2.66161E+02  3.73492E+02  1.59149E+02  1.17199E+03 -3.88326E+01  4.77627E+02  8.28443E+02
 -1.86420E+02 -8.27738E+01 -6.07818E+02 -4.24277E+01  5.31184E+02 -4.22925E+02  1.54870E+03 -7.69101E+02
  6.25336E+02 -3.88193E+01  2.47652E+03  4.33379E+02  1.10800E+03  9.86437E+02 -1.26899E+02  1.59979E+03
 -8.58246E+02  1.46607E+02 -1.14765E+03  5.44345E+01 -6.05442E+02 -8.70744E+02  2.67524E+02 -2.26021E+02
  1.15394E+03 -7.37318E+02  2.36099E+01  4.74943E+02  1.42965E+02  1.22651E+03  1.35446E+02  7.66048E+02
 -5.91086E+02  1.00306E+03 -3.83759E+02  2.84311E+02  4.94270E+02  2.71209E+02 -7.43016E+02  4.83325E+02
 -4.71705E+02  1.06789E+03 -1.56481E+03  5.05728E+02 -1.19200E+03  1.69434E+02 -1.69754E+03 -4.53887E+02
 -8.08298E+02 -1.66412E+03  4.80885E+02 -2.12570E+03  5.12677E+02 -1.86462E+03  2.12778E+03 -8.32764E+02
  1.79783E+03 -1.45214E+02  6.47502E+02  8.88869E+02 -7.87082E+02  6.92669E+02 -3.50788E+02  9.30895E+02
 -6.47669E+02  8.44389E+02 -3.61873E+02 -3.65022E+02 -3.33118E+02  5.65024E+02 -3.88058E+02  1.60221E+02
 -1.10154E+03  1.01459E+01 -8.77786E+02  1.91977E+02  2.10811E+02 -4.31910E+02 -3.32536E+02 -8.16230E+02
  1.29358E+03 -1.61260E+02  9.35961E+01  2.10490E+02  8.58702E+02  8.29773E+02 -4.22610E+02  1.08407E+03
 -8.89763E+02  1.76525E+03 -1.06640E+03  9.45258E+02 -1.22848E+03 -7.33540E+01 -1.04677E+03 -8.29113E+02
 -7.89340E+02 -7.17097E+02  1.52360E+02 -7.28241E+02  8.35734E+01 -1.21467E+02  9.81709E+01  2.99218E+02
  4.99296E+02  1.08901E+02  5.11258E+01  4.61594E+02 -2.54149E+02  6.16489E+01  3.98200E+01 -6.14452E+01
  4.52723E+01  3.89633E+02 -6.62989E+01  5.24576E+02  1.08493E+02  2.61624E+02  4.15684E+02  1.76730E+01
 -2.99288E+02  6.43431E+02 -2.83189E+02  1.11555E+02 -1.56399E+02 -2.64819E+02  2.03358E+02 -1.11187E+03
  5.41588E+02 -4.20173E+02  2.13472E+02  6.47263E+01  7.96627E+02 -7.63614E+02  2.57749E+02  3.66251E+02
  5.61197E+02  1.76590E+02 -1.94858E+02  3.14370E+02 -5.16204E+02  6.07144E+02 -1.10116E+01 -1.06563E+02
 -1.22023E+02  5.03656E+01 -1.23472E+02 -1.66477E+01 -3.79802E+02  3.04442E+02 -6.44084E+02 -3.45638E+02
 -9.26063E+02  4.10379E+02 -4.60946E+02 -4.60742E+02  4.51375E+02 -9.75116E+02  3.59755E+02 -6.65031E+01
  4.02524E+02  8.93890E+00 -3.79125E+02  1.75098E+02 -9.43627E+01  7.10861E+02 -1.28557E+01  4.51497E+02
