 $NMID ID='MM_0lb_SNR800_13hz_g45_52.RAW', FMTDAT='(8E13.5)'
 TRAMP=1., VOLUME=1. $END
  3.09654E+05  3.51140E+02  3.37536E+05  2.50301E+05  8.46830E+04  3.37968E+05 -1.32321E+05  2.50915E+05
 -1.90615E+05  8.33196E+04 -1.11991E+05 -3.28087E+04  8.52390E+02 -5.04461E+04  5.38396E+04 -3.10604E+02
  3.54551E+04  5.25758E+04 -1.67978E+04  7.55120E+04 -6.08081E+04  6.34489E+04 -8.40832E+04  3.21192E+04
 -8.10051E+04 -1.15658E+04 -5.78212E+04 -5.12124E+04 -1.50970E+04 -6.96866E+04  2.74157E+04 -4.60234E+04
  4.01109E+04  3.88619E+03  1.62877E+04  4.79976E+04 -3.43955E+04  4.71112E+04 -6.70956E+04 -2.83897E+02
 -5.36693E+04 -5.69981E+04 -6.42469E+03 -7.70625E+04  3.41069E+04 -5.54356E+04  4.82524E+04 -1.75342E+04
  4.35085E+04  1.14215E+04  3.15947E+04  2.56870E+04  1.55344E+04  2.97449E+04 -5.39854E+03  2.76665E+04
 -2.20706E+04  1.22773E+04 -1.88194E+04 -5.11235E+03  6.06401E+03 -7.59051E+03  2.21961E+04  1.22883E+04
  7.16704E+03  3.57292E+04 -3.21566E+04  3.54883E+04 -6.34679E+04  2.11987E+03 -5.71511E+04 -4.30032E+04
 -1.26251E+04 -6.35316E+04  3.97596E+04 -4.54087E+04  5.85514E+04 -2.29058E+03  3.43273E+04  3.23515E+04
 -5.82381E+03  3.65873E+04 -2.96942E+04  1.62135E+04 -3.03043E+04 -4.72340E+03 -1.69557E+04 -1.09927E+04
 -8.31651E+03 -1.36594E+04 -1.10773E+03 -1.81400E+04  7.79916E+03 -2.28619E+04  1.57568E+04 -1.30949E+04
  1.11007E+04  5.38206E+03 -8.38484E+03  1.30764E+04 -2.16003E+04 -4.74266E+03 -8.17089E+03 -3.38488E+04
  2.30451E+04 -4.35907E+04  4.85682E+04 -1.96379E+04  4.55162E+04  1.96598E+04  1.55830E+04  4.43258E+04
 -1.58897E+04  3.37848E+04 -2.55954E+04  1.71342E+03 -9.89198E+03 -2.80402E+04  2.08774E+04 -3.41275E+04
  4.13383E+04 -9.22077E+03  3.61396E+04  2.37631E+04  1.81004E+04  4.69063E+04 -7.81315E+03  5.07539E+04
 -3.17483E+04  3.41458E+04 -4.28903E+04  9.57054E+03 -4.26176E+04 -1.69297E+04 -2.40145E+04 -3.84222E+04
  7.27079E+03 -3.80249E+04  3.17334E+04 -1.49840E+04  2.93436E+04  1.08983E+04  4.29180E+03  1.96508E+04
 -1.31961E+04  8.58436E+03 -1.05890E+04 -7.49061E+03  5.41914E+03 -1.05484E+04  1.83016E+04  5.94539E+03
  1.36252E+04  2.22226E+04 -5.74500E+03  2.53071E+04 -2.24361E+04  1.17915E+04 -2.84803E+04 -4.40447E+03
 -2.10890E+04 -1.76470E+04 -8.54920E+03 -2.05259E+04  4.29624E+03 -2.03180E+04  1.62039E+04 -1.86500E+04
  2.66371E+04 -1.31336E+04  3.34056E+04  3.07033E+03  2.40381E+04  2.03947E+04  4.42364E+03  3.64352E+04
 -1.80028E+04  3.07521E+04 -2.81658E+04  1.05986E+04 -2.10776E+04 -1.04729E+04 -4.47997E+03 -1.32707E+04
  1.34613E+03 -2.68307E+03 -5.27065E+03  6.87866E+03 -1.65788E+04  5.02370E+03 -1.66984E+04 -7.38904E+03
 -1.01390E+04 -1.92832E+04  5.12771E+03 -2.36680E+04  1.57600E+04 -1.70147E+04  1.87314E+04 -1.70257E+03
  1.13241E+04  1.33137E+04 -7.79359E+02  1.95758E+04 -1.37369E+04  1.08599E+04 -1.96401E+04 -3.85116E+03
 -1.43780E+04 -1.73165E+04 -1.69079E+03 -2.34567E+04  1.04554E+04 -1.92694E+04  1.96467E+04 -9.52998E+03
  1.79969E+04  4.75117E+02  1.30801E+04  4.33167E+03  7.03461E+03  1.01505E+03  9.57890E+03 -1.66224E+03
  1.77889E+04  2.71102E+03  2.00972E+04  1.53999E+04  1.32407E+04  3.11602E+04 -2.77719E+03  3.51722E+04
 -2.03096E+04  2.84050E+04 -3.27060E+04  1.47679E+04 -3.45037E+04 -2.38791E+03 -2.86012E+04 -2.00382E+04
 -1.22524E+04 -2.82542E+04  9.77984E+03 -2.56128E+04  2.19149E+04 -1.27727E+04  1.98080E+04  5.79797E+03
  7.56812E+03  1.48873E+04 -8.77209E+03  1.28511E+04 -1.66586E+04  2.64701E+03 -1.30450E+04 -1.07751E+04
 -4.37059E+02 -1.57022E+04  8.02494E+03 -1.16561E+04  1.01748E+04 -1.35227E+03  2.35821E+03  6.84055E+03
 -7.00130E+03  2.97190E+03 -6.43633E+03 -6.02648E+03 -5.32233E+02 -1.40447E+04  9.67451E+03 -1.48682E+04
  1.75301E+04 -7.83804E+03  1.90501E+04  3.27974E+03  1.62671E+04  1.37633E+04  7.34186E+03  2.13185E+04
 -3.39935E+03  2.30967E+04 -1.49106E+04  1.49279E+04 -1.62515E+04  3.15127E+03 -1.17088E+04 -3.96444E+03
 -5.42861E+03 -5.16122E+03 -8.77386E+02  1.15641E+03 -2.49049E+03  3.03003E+03 -5.52661E+03  4.69067E+03
 -1.10779E+04 -7.83849E+02 -1.15881E+04 -9.48345E+03 -4.72314E+03 -1.53841E+04  4.70843E+03 -1.20371E+04
  1.00562E+04 -5.29349E+03  7.03394E+03  3.21034E+03  2.55701E+02  4.41106E+03 -5.53129E+03  9.27324E+01
 -5.42277E+03 -7.50864E+03 -1.06862E+03 -1.09774E+04  6.48761E+03 -1.18525E+04  1.47030E+04 -6.41605E+03
  1.72482E+04  1.72185E+03  1.24506E+04  9.82934E+03  2.74196E+03  1.34532E+04 -7.16854E+03  1.13950E+04
 -9.53368E+03  3.55995E+03 -4.74976E+03 -2.23718E+03  1.79412E+03 -3.08109E+03  6.36493E+03 -1.12767E+03
  5.53638E+03  4.77361E+03  9.38443E+02  9.45819E+03 -6.96447E+03  8.90859E+03 -1.15420E+04  2.25712E+03
 -7.60129E+03 -5.94797E+03  1.75063E+02 -1.01206E+04  5.77260E+03 -4.87372E+03  6.26193E+03  1.86509E+03
  1.29206E+03  6.44707E+03 -6.39231E+03  7.73174E+03 -8.96456E+03  4.02533E+03 -8.95571E+03 -2.91342E+03
 -4.74201E+03 -1.06757E+04  2.10815E+03 -1.22035E+04  9.99021E+03 -7.72199E+03  1.14197E+04  1.75492E+03
  6.95609E+03  8.94567E+03 -8.64706E+02  1.14304E+04 -7.87095E+03  6.07085E+03 -8.79080E+03 -8.79535E+02
 -8.08123E+03 -7.51772E+03 -1.46573E+03 -8.18040E+03  4.47470E+03 -6.70634E+03  4.98071E+03 -3.25378E+03
  3.49661E+03  1.19105E+03 -3.37333E+02  1.86866E+03  6.44461E+01 -1.90589E+03  1.27869E+03 -4.18548E+03
  7.20767E+03 -2.62854E+03  1.05040E+04  1.24762E+03  1.01013E+04  6.62473E+03  7.40229E+03  1.32352E+04
 -2.73184E+03  1.55475E+04 -1.33389E+04  1.15138E+04 -1.72524E+04  2.19385E+03 -1.34723E+04 -5.77936E+03
 -6.94283E+03 -1.14050E+04 -4.97485E+02 -9.01024E+03  3.47796E+03 -5.14891E+03  3.34547E+03 -3.53702E+03
  2.46525E+03 -2.36504E+03  2.80726E+03 -3.23821E+03  4.52978E+03 -2.37930E+03  5.48456E+03 -4.14208E+02
  7.42577E+03  1.89674E+03  2.99827E+03  5.88122E+03 -1.74831E+03  6.58719E+03 -7.56286E+03  4.86355E+03
 -9.57330E+03 -1.08620E+03 -5.05701E+03 -6.66227E+03 -7.80221E+02 -9.70799E+03  5.72786E+03 -9.78161E+03
  1.02193E+04 -5.50358E+03  1.23175E+04  9.65818E+02  8.58179E+03  8.44204E+03  1.69728E+03  1.08690E+04
 -4.42097E+03  9.45084E+03 -6.44485E+03  3.01964E+03 -4.21952E+03 -1.17702E+03 -1.59009E+03 -1.00230E+03
 -8.73889E+02  2.01453E+02 -1.49197E+03  2.25880E+03 -3.83600E+03  1.60413E+03 -6.47470E+03 -6.38666E+02
 -3.93691E+03 -6.68548E+03  7.43583E+02 -9.10026E+03  5.41033E+03 -8.10884E+03  8.28088E+03 -2.31474E+03
  8.59181E+03  4.16842E+03  3.72256E+03  7.54484E+03 -1.67483E+03  8.92512E+03 -5.87328E+03  5.28822E+03
 -7.99051E+03  3.76100E+02 -6.35398E+03 -5.08298E+03 -6.15274E+02 -6.75009E+03  3.40029E+03 -5.27893E+03
  5.17338E+03 -2.16077E+03  4.10219E+03  1.27696E+03  1.38460E+03  2.79602E+03  8.16543E+02  1.25383E+03
  2.10646E+03  9.00848E+02  2.16394E+03  1.57621E+03  2.18403E+03  3.57068E+03  2.42079E+03  4.37008E+03
 -2.22023E+03  6.62608E+03 -5.95870E+03  7.53174E+03 -8.29548E+03  1.93675E+03 -8.92765E+03 -2.92540E+03
 -4.32073E+03 -8.31503E+03  1.00943E+03 -9.57106E+03  5.24284E+03 -5.81945E+03  7.11124E+03 -1.72797E+03
  5.25301E+03  3.39520E+03  1.26957E+03  5.20763E+03 -2.34082E+03  2.89726E+03 -3.32997E+03 -4.90128E+02
 -1.67700E+03 -3.48473E+03  2.46483E+03 -3.56082E+03  2.97009E+03 -1.72476E+03  3.26897E+03  7.72063E+02
  1.85966E+03  1.64790E+03  8.65915E+02  8.31405E+02 -6.44539E+02  1.53851E+03  1.47257E+03 -2.72426E+02
  9.28189E+02 -2.64080E+02  3.50235E+03  1.37707E+03  1.42984E+03  4.80556E+03 -8.88374E+02  5.87902E+03
 -3.87718E+03  3.13939E+03 -5.00864E+03  8.26494E+02 -5.12650E+03 -1.53135E+03 -1.48464E+03 -2.91257E+03
  3.24382E+02 -3.17564E+03  2.02768E+03 -1.68488E+03  1.65798E+03  1.89281E+03 -9.97161E+02  2.71702E+03
 -3.39131E+03  1.40003E+03 -3.61933E+03 -2.07736E+03 -1.93463E+03 -4.82262E+03  5.76540E+02 -4.47062E+03
  2.04373E+03 -2.44460E+03  2.52052E+03 -1.03087E+02  2.73828E+03  9.55087E+02  5.55921E+02  2.41170E+03
 -1.24610E+03  4.58069E+02 -2.20490E+03 -1.31334E+03  1.10619E+03 -3.29368E+03  3.76935E+03 -2.30852E+03
  4.54628E+03  3.26167E+02  5.61277E+03  2.85416E+03  1.94709E+03  4.75375E+03 -1.71898E+03  5.16971E+03
 -3.87325E+03  1.87165E+03 -4.23111E+03 -6.79971E+02 -2.06248E+03 -3.34540E+03  6.37481E+02 -2.97017E+03
  3.32437E+03 -1.70629E+03  2.14098E+03  1.35987E+03  1.05876E+03  2.95046E+03 -3.12058E+02  2.28010E+03
 -9.33938E+02  1.98061E+03 -1.20575E+03  6.62076E+02 -3.53337E+02  7.56881E+02 -1.25288E+03  1.20161E+03
 -1.40575E+03  1.98694E+03 -3.58458E+03  1.59080E+03 -4.71938E+03  1.13998E+02 -5.89492E+03 -3.28940E+03
 -3.09160E+03 -6.47539E+03  1.18496E+03 -7.32356E+03  4.24848E+03 -6.27312E+03  7.19199E+03 -2.54451E+03
  6.47789E+03  7.42253E+02  3.69869E+03  4.61652E+03 -3.63879E+02  5.08281E+03 -2.13187E+03  3.73404E+03
 -2.71069E+03  1.50583E+03 -1.70608E+03 -9.51891E+02 -9.82416E+02 -2.95576E+02 -9.34250E+02  2.53914E+02
 -1.44474E+03  1.45747E+01 -1.28089E+03 -1.41187E+02 -1.22699E+02 -1.36927E+03 -2.58875E+02 -2.08061E+03
  2.48928E+03 -1.60510E+03  2.39670E+03  1.36783E+02  3.24558E+03  2.99942E+03  4.97352E+02  4.88833E+03
 -2.39598E+03  5.94567E+03 -4.86135E+03  3.47847E+03 -5.79459E+03 -7.41044E+02 -4.20474E+03 -3.54888E+03
 -1.86766E+03 -4.92506E+03  9.94570E+02 -4.50529E+03  2.64382E+03 -2.09868E+03  2.94996E+03  1.25763E+02
  1.79615E+03  1.64941E+03  3.38422E+01  1.22862E+03 -8.66226E+02  2.23480E+02 -1.65726E+02 -4.92344E+02
  1.48845E+03 -5.09516E+02  1.74220E+03  7.72993E+02  8.27761E+02  1.66845E+03  6.73213E+02  2.53257E+03
 -1.75657E+03  1.99174E+03 -2.68934E+03 -1.19882E+02 -2.79815E+03 -2.25298E+03  1.20262E+02 -3.69706E+03
  1.97006E+03 -2.89796E+03  3.19231E+03 -7.29460E+02  3.51956E+03  2.28091E+02  2.07481E+03  2.27672E+03
  8.21496E+02  2.68519E+03 -1.10637E+03  2.48242E+03 -1.76942E+03  1.27498E+03 -1.40225E+03 -2.08392E+02
 -9.86229E+02 -3.01322E+02 -1.35760E+03  3.98373E+02 -1.73830E+03  5.62317E+02 -2.19498E+03 -5.16743E+02
 -2.56631E+03 -9.04320E+02 -8.69131E+02 -2.64924E+03  1.03060E+03 -3.56134E+03  2.74462E+03 -1.47666E+03
  2.72274E+03  4.19810E+02  1.31428E+03  1.87565E+03 -1.22911E+02  2.83733E+03 -2.13533E+03  1.77678E+03
