 $NMID ID='MM_0lb_SNR800_7hz_g40_77.RAW', FMTDAT='(8E13.5)'
 TRAMP=1., VOLUME=1. $END
  3.09811E+05  4.69814E+02  3.38425E+05  2.51015E+05  8.50370E+04  3.38863E+05 -1.32807E+05  2.52454E+05
 -1.91093E+05  8.39591E+04 -1.12693E+05 -3.26267E+04 -2.12314E+02 -5.06905E+04  5.34425E+04 -8.75497E+02
  3.60451E+04  5.28982E+04 -1.69675E+04  7.65299E+04 -6.14972E+04  6.45514E+04 -8.56449E+04  3.23210E+04
 -8.25901E+04 -1.15289E+04 -5.81928E+04 -5.28683E+04 -1.52068E+04 -7.14785E+04  2.91676E+04 -4.71405E+04
  4.08471E+04  3.75561E+03  1.69688E+04  4.88451E+04 -3.48123E+04  4.87108E+04 -6.88287E+04  2.15449E+02
 -5.49945E+04 -5.79879E+04 -7.94854E+03 -7.96796E+04  3.50859E+04 -5.73281E+04  5.02096E+04 -1.83287E+04
  4.53436E+04  1.15983E+04  3.32415E+04  2.69116E+04  1.59580E+04  3.05860E+04 -5.77610E+03  2.80383E+04
 -2.24113E+04  1.19271E+04 -1.79626E+04 -6.15654E+03  7.88830E+03 -7.06921E+03  2.42318E+04  1.40525E+04
  7.29344E+03  3.79929E+04 -3.40938E+04  3.71401E+04 -6.62566E+04  2.40499E+03 -5.94313E+04 -4.48123E+04
 -1.25568E+04 -6.64122E+04  4.23791E+04 -4.81281E+04  6.21716E+04 -2.51866E+03  3.72213E+04  3.44691E+04
 -5.26773E+03  3.98627E+04 -3.20715E+04  1.95568E+04 -3.44049E+04 -3.62676E+03 -1.99951E+04 -1.21608E+04
 -9.63983E+03 -1.56679E+04 -4.46462E+01 -1.99866E+04  8.78361E+03 -2.40263E+04  1.56716E+04 -1.26467E+04
  1.03775E+04  6.81779E+03 -1.13591E+04  1.28804E+04 -2.38555E+04 -7.02423E+03 -9.02447E+03 -3.87888E+04
  2.61388E+04 -4.80438E+04  5.32231E+04 -2.10473E+04  4.91802E+04  2.07107E+04  1.75567E+04  4.75433E+04
 -1.70360E+04  3.68975E+04 -2.82622E+04  2.58183E+03 -1.22275E+04 -3.02928E+04  2.10498E+04 -3.70116E+04
  4.54493E+04 -1.14079E+04  4.16351E+04  2.52570E+04  2.23406E+04  5.20875E+04 -7.98548E+03  5.79425E+04
 -3.60802E+04  3.91118E+04 -4.87948E+04  1.17409E+04 -4.92433E+04 -1.90487E+04 -2.70915E+04 -4.34507E+04
  8.32762E+03 -4.36473E+04  3.51125E+04 -1.77442E+04  3.30707E+04  1.13843E+04  5.53144E+03  2.14195E+04
 -1.38428E+04  9.82496E+03 -1.11444E+04 -7.60134E+03  5.82274E+03 -1.12967E+04  1.86483E+04  5.56955E+03
  1.53947E+04  2.28199E+04 -4.77600E+03  2.74213E+04 -2.36895E+04  1.49063E+04 -3.28426E+04 -2.64902E+03
 -2.63860E+04 -1.85410E+04 -1.24644E+04 -2.62702E+04  4.29047E+03 -2.72723E+04  2.04843E+04 -2.42856E+04
  3.35053E+04 -1.43932E+04  3.97121E+04  4.86491E+03  2.82212E+04  2.57984E+04  4.48531E+03  4.26249E+04
 -2.01789E+04  3.47461E+04 -3.11427E+04  1.18150E+04 -2.26201E+04 -9.99661E+03 -5.34683E+03 -1.28529E+04
  3.35009E+02 -1.06420E+03 -8.14496E+03  8.67570E+03 -2.15525E+04  5.07473E+03 -2.09828E+04 -1.01909E+04
 -1.24923E+04 -2.42079E+04  6.19736E+03 -2.91633E+04  1.91952E+04 -2.05977E+04  2.38865E+04 -1.64764E+03
  1.53822E+04  1.69136E+04 -1.50903E+03  2.40836E+04 -1.76174E+04  1.38566E+04 -2.46657E+04 -4.57927E+03
 -1.78591E+04 -2.17337E+04 -2.13951E+03 -2.97548E+04  1.28849E+04 -2.43598E+04  2.45256E+04 -1.34412E+04
  2.32491E+04 -7.13488E+02  1.65349E+04  5.42274E+03  9.41331E+03  1.68717E+03  1.32020E+04 -1.91026E+03
  2.31625E+04  2.76590E+03  2.77928E+04  1.93508E+04  1.89612E+04  3.97406E+04 -2.72117E+03  4.71385E+04
 -2.64921E+04  3.97769E+04 -4.44961E+04  2.08657E+04 -4.83936E+04 -3.57950E+03 -3.85027E+04 -2.76044E+04
 -1.45391E+04 -4.03250E+04  1.40230E+04 -3.47983E+04  2.96380E+04 -1.59915E+04  2.58468E+04  8.53859E+03
  8.48475E+03  1.98316E+04 -1.19707E+04  1.64448E+04 -2.13077E+04  2.22492E+03 -1.60580E+04 -1.39082E+04
 -4.61910E+02 -2.07447E+04  1.14974E+04 -1.49595E+04  1.45144E+04 -1.16663E+03  3.83502E+03  9.25264E+03
 -9.88134E+03  4.59489E+03 -1.06577E+04 -7.31975E+03 -2.68513E+03 -1.92382E+04  1.28108E+04 -2.13547E+04
  2.48147E+04 -1.27242E+04  2.87380E+04  2.88196E+03  2.55584E+04  2.07874E+04  1.13728E+04  3.19228E+04
 -6.52564E+03  3.37741E+04 -2.26306E+04  2.09947E+04 -2.45589E+04  4.34648E+03 -1.67853E+04 -6.66981E+03
 -6.59087E+03 -8.11140E+03 -1.14075E+03  1.04593E+02 -3.04225E+03  3.98320E+03 -8.13614E+03  6.10459E+03
 -1.49816E+04 -1.39005E+03 -1.58910E+04 -1.27820E+04 -6.43577E+03 -2.13217E+04  6.79699E+03 -1.70829E+04
  1.40565E+04 -6.72506E+03  9.70044E+03  4.81673E+03 -2.28539E+02  6.88226E+03 -8.92268E+03 -6.57810E+02
 -8.28324E+03 -1.15366E+04 -1.16477E+03 -1.68354E+04  1.03779E+04 -1.82129E+04  2.20259E+04 -1.00541E+04
  2.55395E+04  2.23200E+03  1.83943E+04  1.62077E+04  3.74220E+03  2.11288E+04 -1.04899E+04  1.67116E+04
 -1.40203E+04  5.13922E+03 -7.16129E+03 -3.93653E+03  2.06076E+03 -5.14328E+03  9.01317E+03 -7.45812E+02
  7.79649E+03  7.75767E+03  1.30563E+03  1.40050E+04 -1.02950E+04  1.35605E+04 -1.70101E+04  3.59348E+03
 -1.20218E+04 -9.13235E+03  4.54025E+02 -1.51270E+04  1.01068E+04 -7.28982E+03  1.05278E+04  3.80844E+03
  2.62086E+03  1.17927E+04 -9.05057E+03  1.31583E+04 -1.56444E+04  5.74581E+03 -1.63250E+04 -5.81209E+03
 -9.09022E+03 -1.79672E+04  4.12444E+03 -2.04359E+04  1.75827E+04 -1.20205E+04  1.95155E+04  3.54328E+03
  1.11662E+04  1.46249E+04 -2.44022E+03  1.77115E+04 -1.25475E+04  9.90321E+03 -1.45128E+04 -1.92871E+03
 -1.18479E+04 -1.16397E+04 -1.19398E+03 -1.33779E+04  7.05393E+03 -1.07536E+04  9.07472E+03 -3.96423E+03
  5.26508E+03  2.60621E+03 -1.34820E+03  1.78680E+03 -1.12034E+03 -4.12917E+03  3.68769E+03 -8.87642E+03
  1.34906E+04 -5.73273E+03  1.83161E+04  2.03391E+03  1.81023E+04  1.27214E+04  1.12090E+04  2.42895E+04
 -6.07111E+03  2.76139E+04 -2.27146E+04  2.04293E+04 -2.90666E+04  3.49577E+03 -2.34824E+04 -1.07234E+04
 -1.24654E+04 -1.96571E+04 -1.94510E+02 -1.64006E+04  5.76380E+03 -9.73618E+03  5.47734E+03 -5.78122E+03
  4.77482E+03 -3.43641E+03  4.00354E+03 -4.62435E+03  5.86574E+03 -4.11524E+03  9.19989E+03 -2.02090E+03
  1.23056E+04  2.98272E+03  6.64526E+03  1.10219E+04 -2.55380E+03  1.32687E+04 -1.28676E+04  1.02507E+04
 -1.72202E+04 -9.13659E+02 -1.09049E+04 -1.19716E+04 -1.63219E+03 -1.85516E+04  1.01290E+04 -1.85893E+04
  1.93201E+04 -1.00555E+04  2.30731E+04  3.54840E+03  1.54259E+04  1.65550E+04  2.09091E+03  2.07009E+04
 -8.46011E+03  1.62990E+04 -1.20834E+04  5.94482E+03 -8.15374E+03 -1.90265E+03 -3.67025E+03 -3.16999E+03
 -1.45115E+03 -2.91822E+02 -2.73849E+03  3.41946E+03 -7.17756E+03  2.83754E+03 -1.15364E+04 -2.06619E+03
 -8.72966E+03 -1.17217E+04  5.71913E+01 -1.72166E+04  1.06870E+04 -1.60699E+04  1.80076E+04 -4.76427E+03
  1.74154E+04  8.52140E+03  8.30919E+03  1.54798E+04 -3.79021E+03  1.74746E+04 -1.28524E+04  1.14697E+04
 -1.66679E+04  6.60301E+02 -1.25638E+04 -1.07376E+04 -1.63807E+03 -1.47104E+04  7.79155E+03 -1.07716E+04
  1.13533E+04 -3.37685E+03  7.75812E+03  3.58762E+03  2.82792E+03  4.87576E+03  1.26306E+03  2.01090E+03
  2.83353E+03  1.51999E+03  4.38370E+03  2.16469E+03  5.26202E+03  6.44005E+03  4.32928E+03  9.36303E+03
 -3.24074E+03  1.45553E+04 -1.29661E+04  1.37600E+04 -1.92780E+04  3.20757E+03 -1.93724E+04 -8.48780E+03
 -9.87874E+03 -1.81532E+04  2.52239E+03 -2.00935E+04  1.14549E+04 -1.25576E+04  1.51579E+04 -3.31813E+03
  1.17265E+04  6.72908E+03  2.08842E+03  1.06208E+04 -5.28224E+03  6.84489E+03 -7.88305E+03 -1.33688E+03
 -3.58489E+03 -7.72618E+03  4.09752E+03 -8.37406E+03  7.55951E+03 -4.08692E+03  7.41576E+03  1.33284E+03
  4.55650E+03  3.83353E+03  1.92524E+03  3.27492E+03 -1.40333E+03  2.69470E+03  1.69631E+03 -7.89594E+02
  3.15641E+03 -6.71342E+02  7.53489E+03  2.91296E+03  4.33952E+03  9.96687E+03 -9.74150E+02  1.26710E+04
 -8.95874E+03  8.74040E+03 -1.21343E+04  2.20067E+03 -1.04530E+04 -4.39857E+03 -4.51299E+03 -7.75817E+03
  1.35048E+03 -7.63318E+03  5.14491E+03 -3.23409E+03  4.16706E+03  3.65816E+03 -2.07975E+03  5.98890E+03
 -8.19411E+03  3.65245E+03 -8.96985E+03 -4.27269E+03 -5.06644E+03 -1.02308E+04  1.59258E+03 -1.06254E+04
  6.84847E+03 -5.87523E+03  7.93105E+03 -6.53977E+02  6.55639E+03  2.81669E+03  8.87095E+02  5.45036E+03
 -3.90477E+03  1.54627E+03 -4.87189E+03 -3.99307E+03  1.89080E+03 -8.85570E+03  9.80751E+03 -7.13008E+03
  1.25764E+04  9.41367E+02  1.16761E+04  7.98084E+03  4.06262E+03  1.30861E+04 -4.53007E+03  1.22830E+04
 -1.05856E+04  5.86321E+03 -1.09218E+04 -1.71666E+03 -5.79516E+03 -8.23854E+03  2.11976E+03 -8.18757E+03
  7.74779E+03 -4.01412E+03  6.64525E+03  2.82643E+03  2.40733E+03  7.00951E+03 -1.41984E+03  6.35442E+03
 -3.32076E+03  3.85669E+03 -3.37304E+03  1.34669E+03 -1.36496E+03  1.09159E+03 -1.97966E+03  2.52013E+03
 -3.75428E+03  4.58267E+03 -8.47829E+03  4.89251E+03 -1.28740E+04 -1.22706E+02 -1.44952E+04 -8.48998E+03
 -7.35831E+03 -1.71595E+04  3.25236E+03 -1.93229E+04  1.27697E+04 -1.47114E+04  1.88949E+04 -6.14956E+03
  1.75632E+04  3.98072E+03  1.09750E+04  1.18798E+04  1.42740E+03  1.41553E+04 -5.46443E+03  1.04840E+04
 -7.79832E+03  3.69524E+03 -4.65122E+03 -1.32112E+03 -1.46577E+03 -9.77180E+02 -6.42746E+02 -4.24944E+01
 -2.23097E+03  3.54930E+02 -2.82957E+03 -6.58823E+02 -1.20550E+03 -3.16827E+03  6.80364E+02 -4.78125E+03
  6.30326E+03 -4.47339E+03  8.87744E+03 -2.72270E+02  9.81454E+03  7.32604E+03  2.86222E+03  1.36282E+04
 -6.78213E+03  1.56996E+04 -1.42345E+04  9.52520E+03 -1.72409E+04 -1.26368E+03 -1.27178E+04 -1.06002E+04
 -4.97643E+03 -1.46653E+04  4.10926E+03 -1.33874E+04  8.94715E+03 -7.28047E+03  9.10264E+03  1.19931E+02
  5.42482E+03  4.89730E+03 -3.95681E+02  3.89493E+03 -2.36403E+03 -7.94838E+02  3.43690E+02 -3.57846E+03
  4.41462E+03 -2.43378E+03  5.94233E+03  1.61848E+03  4.16187E+03  5.99989E+03 -2.66342E+02  7.91246E+03
 -6.02075E+03  7.17813E+03 -9.53941E+03  8.90045E+02 -8.66749E+03 -7.32635E+03 -1.64611E+03 -1.21452E+04
  6.78063E+03 -1.02421E+04  1.15607E+04 -3.38855E+03  1.11973E+04  2.86602E+03  6.29610E+03  8.95412E+03
  1.36973E+03  9.49879E+03 -4.08314E+03  7.46972E+03 -6.07157E+03  3.88639E+03 -5.18231E+03  7.03277E+02
 -2.71645E+03 -2.57500E+02 -2.19155E+03  1.24130E+03 -5.27212E+03  1.40088E+03 -7.28114E+03 -1.15451E+03
 -7.02319E+03 -5.43553E+03 -1.93483E+03 -1.00194E+04  4.75125E+03 -1.01450E+04  8.74513E+03 -4.83409E+03
  9.57558E+03  1.44623E+03  5.53435E+03  6.88261E+03 -6.00310E+02  9.78301E+03 -7.15652E+03  6.44547E+03
