 $NMID ID='MM_0lb_SNR800_14hz_g45_92.RAW', FMTDAT='(8E13.5)'
 TRAMP=1., VOLUME=1. $END
  3.09603E+05  3.65581E+02  3.37630E+05  2.50651E+05  8.46589E+04  3.37780E+05 -1.32670E+05  2.51034E+05
 -1.90102E+05  8.28483E+04 -1.11542E+05 -3.26417E+04  1.03891E+03 -5.02673E+04  5.39540E+04 -7.53682E+01
  3.56234E+04  5.30945E+04 -1.68447E+04  7.54038E+04 -6.07497E+04  6.36562E+04 -8.38989E+04  3.17305E+04
 -8.05314E+04 -1.12974E+04 -5.69754E+04 -5.11966E+04 -1.50330E+04 -6.93467E+04  2.73661E+04 -4.56846E+04
  3.99769E+04  4.20618E+03  1.61808E+04  4.73846E+04 -3.42620E+04  4.70162E+04 -6.67793E+04 -1.23694E+02
 -5.31502E+04 -5.67008E+04 -6.57096E+03 -7.67890E+04  3.35876E+04 -5.50959E+04  4.77931E+04 -1.73505E+04
  4.31788E+04  1.14225E+04  3.17093E+04  2.52817E+04  1.59422E+04  2.92244E+04 -5.04963E+03  2.73428E+04
 -2.18204E+04  1.21737E+04 -1.87369E+04 -4.89270E+03  5.41276E+03 -7.18013E+03  2.19348E+04  1.22585E+04
  7.09881E+03  3.51485E+04 -3.15736E+04  3.52874E+04 -6.31455E+04  2.02695E+03 -5.70776E+04 -4.26506E+04
 -1.23704E+04 -6.27597E+04  3.94540E+04 -4.49535E+04  5.79019E+04 -2.18500E+03  3.38537E+04  3.20177E+04
 -6.14469E+03  3.60468E+04 -2.98811E+04  1.56502E+04 -3.01304E+04 -4.60510E+03 -1.62685E+04 -1.06773E+04
 -8.28051E+03 -1.30818E+04 -7.02594E+02 -1.78736E+04  7.50658E+03 -2.29361E+04  1.55052E+04 -1.37793E+04
  1.16356E+04  5.14419E+03 -7.70071E+03  1.26318E+04 -2.12918E+04 -3.99720E+03 -8.30248E+03 -3.31460E+04
  2.25018E+04 -4.31525E+04  4.79817E+04 -1.96435E+04  4.47930E+04  1.93533E+04  1.55640E+04  4.37163E+04
 -1.55159E+04  3.31875E+04 -2.51989E+04  1.59888E+03 -9.56551E+03 -2.75825E+04  2.06543E+04 -3.36461E+04
  4.05387E+04 -8.85532E+03  3.51560E+04  2.37561E+04  1.78073E+04  4.61582E+04 -7.83625E+03  4.96187E+04
 -3.11603E+04  3.32816E+04 -4.16178E+04  9.32556E+03 -4.21443E+04 -1.65700E+04 -2.33480E+04 -3.76119E+04
  7.28046E+03 -3.71483E+04  3.13012E+04 -1.42791E+04  2.89699E+04  1.08194E+04  3.84407E+03  1.91432E+04
 -1.33812E+04  8.35974E+03 -1.01948E+04 -7.67932E+03  5.71792E+03 -1.05891E+04  1.80099E+04  6.03112E+03
  1.34319E+04  2.17312E+04 -6.31124E+03  2.48238E+04 -2.18703E+04  1.14086E+04 -2.78738E+04 -4.91839E+03
 -2.01831E+04 -1.67681E+04 -8.28072E+03 -2.01916E+04  4.08535E+03 -1.92078E+04  1.53722E+04 -1.78280E+04
  2.57109E+04 -1.27894E+04  3.19347E+04  3.04184E+03  2.35794E+04  1.95815E+04  4.40139E+03  3.62361E+04
 -1.76628E+04  3.00776E+04 -2.77381E+04  1.04711E+04 -2.08156E+04 -1.00985E+04 -4.18080E+03 -1.37386E+04
  1.62108E+03 -3.04121E+03 -4.60049E+03  6.56058E+03 -1.58179E+04  5.26477E+03 -1.57264E+04 -6.95552E+03
 -1.00050E+04 -1.84915E+04  4.77454E+03 -2.25397E+04  1.49262E+04 -1.61581E+04  1.77354E+04 -1.79918E+03
  1.09851E+04  1.28318E+04 -9.62365E+02  1.88312E+04 -1.27165E+04  1.05798E+04 -1.85704E+04 -3.94902E+03
 -1.36133E+04 -1.68738E+04 -1.76606E+03 -2.24673E+04  1.00031E+04 -1.83456E+04  1.86680E+04 -8.98732E+03
  1.74077E+04  3.16608E+02  1.23578E+04  4.36713E+03  6.75956E+03  5.72455E+02  9.46275E+03 -1.96277E+03
  1.73310E+04  2.86078E+03  1.89716E+04  1.48457E+04  1.22890E+04  2.96830E+04 -3.09291E+03  3.34883E+04
 -1.96029E+04  2.66036E+04 -3.13513E+04  1.32984E+04 -3.25363E+04 -2.63280E+03 -2.69783E+04 -1.92660E+04
 -1.17835E+04 -2.70991E+04  9.23609E+03 -2.40989E+04  2.07464E+04 -1.25150E+04  1.89096E+04  5.57887E+03
  7.44008E+03  1.42816E+04 -8.96489E+03  1.25282E+04 -1.59712E+04  2.44518E+03 -1.25223E+04 -9.73897E+03
 -1.73661E+02 -1.48595E+04  7.64714E+03 -1.11604E+04  9.93433E+03 -1.64290E+03  2.27683E+03  6.56712E+03
 -6.66015E+03  2.48018E+03 -5.80334E+03 -5.44454E+03 -6.00671E+02 -1.27309E+04  9.32843E+03 -1.35256E+04
  1.62840E+04 -7.26304E+03  1.71713E+04  3.08419E+03  1.49813E+04  1.29281E+04  7.27142E+03  1.97542E+04
 -3.01718E+03  2.15397E+04 -1.38777E+04  1.39856E+04 -1.55050E+04  3.66954E+03 -1.10131E+04 -3.24607E+03
 -5.33554E+03 -4.82265E+03 -8.47577E+02  1.06675E+03 -2.38013E+03  2.58837E+03 -5.11840E+03  4.37008E+03
 -1.02041E+04 -5.04974E+02 -1.11587E+04 -8.75031E+03 -4.60989E+03 -1.44578E+04  4.32378E+03 -1.08663E+04
  9.39451E+03 -4.73109E+03  6.54216E+03  2.85043E+03  4.19674E+02  4.25836E+03 -5.10792E+03 -2.41090E+02
 -4.91788E+03 -6.83699E+03 -9.19564E+02 -1.03132E+04  6.26006E+03 -1.11478E+04  1.34892E+04 -5.58523E+03
  1.63414E+04  1.16618E+03  1.17911E+04  9.31265E+03  2.38488E+03  1.24772E+04 -6.86767E+03  1.10568E+04
 -9.25714E+03  3.48205E+03 -4.62331E+03 -2.14469E+03  1.61010E+03 -2.70084E+03  6.00465E+03 -1.06119E+03
  5.39566E+03  4.96380E+03  1.22103E+03  8.87387E+03 -6.22226E+03  8.52826E+03 -1.06788E+04  2.30156E+03
 -7.04736E+03 -5.36545E+03  1.10287E+02 -9.42085E+03  5.79969E+03 -4.98617E+03  5.36512E+03  1.67677E+03
  1.16692E+03  5.80249E+03 -5.59991E+03  6.96062E+03 -7.95659E+03  3.28904E+03 -7.71909E+03 -2.54600E+03
 -4.90094E+03 -9.32834E+03  2.26255E+03 -1.10300E+04  9.36507E+03 -6.83612E+03  9.92399E+03  1.57738E+03
  6.57166E+03  8.02447E+03 -4.07616E+02  9.87228E+03 -7.49656E+03  5.89186E+03 -8.01477E+03 -4.68050E+02
 -7.51695E+03 -7.17921E+03 -1.30561E+03 -7.46891E+03  3.82400E+03 -6.24733E+03  4.54265E+03 -3.07064E+03
  3.59602E+03  9.72128E+02 -5.75753E+01  1.58906E+03  4.06381E+02 -1.18503E+03  7.98437E+02 -3.95802E+03
  6.41542E+03 -2.34974E+03  9.04537E+03  9.26849E+02  9.14537E+03  6.33356E+03  6.84580E+03  1.21266E+04
 -2.29770E+03  1.36532E+04 -1.20106E+04  1.06195E+04 -1.49825E+04  1.76291E+03 -1.25336E+04 -4.95429E+03
 -6.29739E+03 -1.02213E+04 -3.23763E+02 -8.52631E+03  3.27360E+03 -4.21800E+03  2.97423E+03 -3.29314E+03
  2.23794E+03 -1.78155E+03  2.68991E+03 -3.22316E+03  4.02635E+03 -1.91749E+03  5.46433E+03 -3.78512E+02
  6.65039E+03  1.42973E+03  2.50220E+03  6.07022E+03 -2.01816E+03  5.78009E+03 -6.73456E+03  4.83806E+03
 -8.36205E+03 -1.11470E+03 -4.40751E+03 -5.67983E+03 -2.42494E+02 -8.55391E+03  5.35811E+03 -9.01896E+03
  8.72852E+03 -5.03568E+03  1.08567E+04  9.59099E+02  7.53910E+03  7.47593E+03  1.39787E+03  9.93222E+03
 -4.07034E+03  8.64132E+03 -5.57081E+03  2.49859E+03 -3.49840E+03 -1.06021E+03 -1.27782E+03 -1.12881E+03
 -7.89528E+02  5.91528E+02 -1.40137E+03  2.41204E+03 -3.55023E+03  1.58831E+03 -6.23167E+03 -7.98821E+02
 -3.19964E+03 -5.75161E+03  2.43978E+02 -7.75282E+03  4.66621E+03 -7.43702E+03  7.15159E+03 -1.99576E+03
  7.27268E+03  3.97664E+03  3.39858E+03  6.68402E+03 -1.50630E+03  7.84518E+03 -5.37365E+03  4.88345E+03
 -7.05493E+03  8.13337E+02 -5.58539E+03 -4.25251E+03 -7.29454E+02 -6.43489E+03  3.05773E+03 -4.81646E+03
  4.87155E+03 -1.60655E+03  3.16731E+03  1.09377E+03  8.91201E+02  2.82740E+03  1.04989E+03  8.12749E+02
  2.02945E+03  5.13354E+02  1.88355E+03  9.49768E+02  2.40064E+03  2.98204E+03  2.36844E+03  3.48868E+03
 -2.11631E+03  5.71622E+03 -5.06032E+03  6.44012E+03 -7.02435E+03  1.75238E+03 -7.80909E+03 -2.30206E+03
 -3.36248E+03 -7.17036E+03  1.12004E+03 -8.78013E+03  4.21683E+03 -4.91316E+03  6.53350E+03 -1.42032E+03
  4.77996E+03  2.86554E+03  9.32411E+02  4.43420E+03 -1.65873E+03  2.58580E+03 -2.74338E+03  3.51820E+00
 -1.00783E+03 -3.21996E+03  2.18665E+03 -3.04708E+03  2.74121E+03 -1.76081E+03  3.06126E+03  7.01359E+02
  1.58894E+03  1.07500E+03  7.22836E+02  7.69494E+02 -4.89536E+02  7.28429E+02  1.51509E+03 -1.80940E+02
  1.07237E+03 -7.15692E+02  3.16797E+03  1.22464E+03  1.25720E+03  4.06729E+03 -4.24244E+02  4.93519E+03
 -3.65011E+03  2.76067E+03 -4.50074E+03  8.17397E+02 -4.07916E+03 -1.60271E+03 -1.25182E+03 -2.44702E+03
  4.67183E+02 -2.84116E+03  1.90482E+03 -1.20655E+03  1.47091E+03  1.98736E+03 -7.91488E+02  2.45949E+03
 -3.02026E+03  1.15379E+03 -2.69646E+03 -1.76726E+03 -1.80900E+03 -4.25169E+03  3.11542E+02 -3.97868E+03
  1.83583E+03 -1.92396E+03  2.54598E+03  2.27509E+01  2.53263E+03  5.65683E+02  4.42929E+02  2.14609E+03
 -1.31841E+03  6.48128E+02 -1.89662E+03 -9.61551E+02  1.01834E+03 -2.46501E+03  3.43621E+03 -2.11730E+03
  3.97035E+03  3.42387E+02  4.66086E+03  2.59594E+03  1.66272E+03  3.83367E+03 -1.08622E+03  4.32688E+03
 -3.81061E+03  1.37330E+03 -3.95153E+03 -5.72623E+02 -2.05738E+03 -2.94559E+03  5.69752E+02 -2.27210E+03
  3.00091E+03 -1.47658E+03  2.15109E+03  1.36837E+03  6.95905E+02  2.35317E+03 -1.89991E+02  1.81980E+03
 -1.17194E+03  1.48723E+03 -1.28776E+03  5.38955E+02 -4.91345E+02  4.39682E+02 -9.50309E+02  1.18571E+03
 -1.08511E+03  1.85291E+03 -3.35911E+03  1.55007E+03 -4.12538E+03  1.47763E+02 -4.78634E+03 -2.84844E+03
 -2.60524E+03 -5.72490E+03  1.29250E+03 -6.30482E+03  3.52083E+03 -5.19799E+03  6.03518E+03 -1.81960E+03
  5.63805E+03  1.01443E+03  3.38124E+03  3.55721E+03 -3.06076E+02  3.65448E+03 -1.70401E+03  3.00457E+03
 -2.04492E+03  1.53766E+03 -1.53604E+03 -8.07552E+02 -5.63978E+02 -1.89937E+02 -7.97095E+02 -2.72640E+02
 -1.27391E+03  1.00702E+02 -1.20320E+03 -1.43947E+02 -2.03412E+02 -1.49836E+03 -4.06638E+01 -1.83362E+03
  2.25858E+03 -1.20859E+03  2.10742E+03  3.15742E+02  2.75738E+03  2.19685E+03  3.56922E+02  3.66382E+03
 -1.59593E+03  4.94315E+03 -3.96491E+03  2.64064E+03 -4.60581E+03 -3.40925E+02 -3.37744E+03 -2.88394E+03
 -1.57490E+03 -3.75388E+03  1.02932E+03 -3.16266E+03  2.37150E+03 -1.97236E+03  2.17121E+03  1.37662E+02
  1.54838E+03  1.13587E+03 -8.76746E+01  1.02610E+03 -6.53044E+02  7.68367E+01  1.87939E+02 -6.95669E+02
  1.33082E+03 -2.98929E+02  1.30055E+03  8.41066E+02  8.07767E+02  1.45057E+03  7.34015E+02  1.61183E+03
 -1.72188E+03  1.83519E+03 -2.27605E+03  1.91967E+02 -2.23349E+03 -1.68062E+03 -5.51796E+02 -2.99009E+03
  1.85965E+03 -2.39912E+03  2.28304E+03 -7.72999E+02  2.81043E+03  2.47764E+02  1.49423E+03  2.27715E+03
  7.66984E+02  2.23399E+03 -1.09071E+03  1.78085E+03 -1.42856E+03  1.37551E+03 -1.34934E+03  3.67963E+02
 -6.29170E+02 -2.22807E+01 -9.33773E+02  4.28383E+02 -1.54795E+03  1.66921E+02 -1.84410E+03 -4.47982E+02
 -1.96576E+03 -6.65235E+02 -6.18632E+02 -2.31238E+03  1.50514E+03 -3.05388E+03  2.33204E+03 -1.16218E+03
  1.96708E+03  3.03156E+02  8.21571E+02  1.34326E+03 -2.88519E+02  2.15298E+03 -1.55308E+03  1.57118E+03
