 $NMID ID='MM_0lb_SNR800_17hz_g60_78.RAW', FMTDAT='(8E13.5)'
 TRAMP=1., VOLUME=1. $END
  3.09723E+05  1.00170E+02  3.37299E+05  2.50791E+05  8.48279E+04  3.37768E+05 -1.32633E+05  2.50710E+05
 -1.90152E+05  8.30497E+04 -1.11764E+05 -3.22730E+04  1.08575E+03 -5.01442E+04  5.40339E+04 -1.59594E+02
  3.55026E+04  5.26438E+04 -1.66571E+04  7.53568E+04 -6.05985E+04  6.39260E+04 -8.41558E+04  3.19584E+04
 -8.09467E+04 -1.16883E+04 -5.72364E+04 -5.10316E+04 -1.49343E+04 -6.96576E+04  2.77064E+04 -4.57335E+04
  3.99027E+04  3.70339E+03  1.60399E+04  4.78832E+04 -3.43172E+04  4.71172E+04 -6.64147E+04 -2.71283E+02
 -5.34776E+04 -5.68418E+04 -6.93066E+03 -7.68132E+04  3.37122E+04 -5.47564E+04  4.76351E+04 -1.72111E+04
  4.33908E+04  1.14377E+04  3.17570E+04  2.53401E+04  1.58559E+04  2.90830E+04 -5.06666E+03  2.69038E+04
 -2.18154E+04  1.24719E+04 -1.85112E+04 -4.88036E+03  5.57225E+03 -7.40420E+03  2.22166E+04  1.20064E+04
  7.18209E+03  3.49154E+04 -3.21456E+04  3.53380E+04 -6.27920E+04  1.99767E+03 -5.66761E+04 -4.22581E+04
 -1.24988E+04 -6.27873E+04  3.95610E+04 -4.52283E+04  5.79601E+04 -2.34176E+03  3.36589E+04  3.19791E+04
 -6.25864E+03  3.55534E+04 -2.97054E+04  1.53934E+04 -3.01892E+04 -4.36610E+03 -1.63688E+04 -1.05164E+04
 -8.27172E+03 -1.26989E+04 -8.87441E+02 -1.76146E+04  7.27744E+03 -2.28780E+04  1.53369E+04 -1.33891E+04
  1.16251E+04  5.35000E+03 -7.83151E+03  1.31820E+04 -2.09910E+04 -4.16024E+03 -8.48854E+03 -3.30286E+04
  2.23665E+04 -4.30045E+04  4.77355E+04 -1.94517E+04  4.46277E+04  1.93964E+04  1.53822E+04  4.38844E+04
 -1.57405E+04  3.27867E+04 -2.52434E+04  1.76508E+03 -9.43806E+03 -2.74178E+04  2.08719E+04 -3.32606E+04
  4.06340E+04 -8.78750E+03  3.41363E+04  2.38749E+04  1.73283E+04  4.57666E+04 -7.77195E+03  4.91299E+04
 -3.12344E+04  3.29766E+04 -4.10142E+04  9.08024E+03 -4.13431E+04 -1.61497E+04 -2.30082E+04 -3.73047E+04
  7.22955E+03 -3.72141E+04  3.10140E+04 -1.39952E+04  2.87398E+04  1.09274E+04  3.92911E+03  1.87742E+04
 -1.33519E+04  8.09159E+03 -1.02174E+04 -7.41656E+03  5.93552E+03 -1.05451E+04  1.79068E+04  6.22832E+03
  1.32351E+04  2.19493E+04 -6.03460E+03  2.45155E+04 -2.19747E+04  1.11155E+04 -2.74577E+04 -5.00312E+03
 -1.99177E+04 -1.70747E+04 -7.69813E+03 -1.95167E+04  4.16277E+03 -1.84074E+04  1.49532E+04 -1.72485E+04
  2.50437E+04 -1.24569E+04  3.14002E+04  2.36920E+03  2.31143E+04  1.88575E+04  4.11426E+03  3.53547E+04
 -1.68867E+04  2.98183E+04 -2.71241E+04  1.01470E+04 -2.06169E+04 -1.04569E+04 -4.48110E+03 -1.36302E+04
  2.00620E+03 -3.09659E+03 -4.10357E+03  6.18471E+03 -1.50342E+04  5.05156E+03 -1.54966E+04 -6.30480E+03
 -9.44355E+03 -1.79239E+04  5.04975E+03 -2.20780E+04  1.44830E+04 -1.57368E+04  1.72869E+04 -1.53821E+03
  1.06977E+04  1.25876E+04 -7.44878E+02  1.79614E+04 -1.22444E+04  1.02893E+04 -1.79403E+04 -3.67292E+03
 -1.33315E+04 -1.63861E+04 -2.02242E+03 -2.16544E+04  9.65609E+03 -1.76042E+04  1.85057E+04 -8.71899E+03
  1.67881E+04  7.11823E+02  1.21625E+04  4.17731E+03  6.15919E+03  7.16036E+02  8.87292E+03 -1.56549E+03
  1.61677E+04  2.75755E+03  1.75654E+04  1.43762E+04  1.14261E+04  2.85093E+04 -2.70590E+03  3.14208E+04
 -1.83897E+04  2.49674E+04 -2.93961E+04  1.24935E+04 -3.04388E+04 -2.13998E+03 -2.53521E+04 -1.76625E+04
 -1.12203E+04 -2.50066E+04  8.44796E+03 -2.30086E+04  1.97255E+04 -1.22765E+04  1.79331E+04  4.85072E+03
  6.85808E+03  1.33603E+04 -8.37470E+03  1.17641E+04 -1.48806E+04  2.84867E+03 -1.14446E+04 -9.07842E+03
 -3.46534E+02 -1.42616E+04  7.20070E+03 -1.08165E+04  9.00487E+03 -1.12951E+03  1.84585E+03  5.99189E+03
 -6.28898E+03  1.90317E+03 -5.14897E+03 -5.01416E+03 -1.59010E+02 -1.23725E+04  8.76718E+03 -1.25830E+04
  1.48527E+04 -6.49251E+03  1.55822E+04  3.06178E+03  1.36152E+04  1.16972E+04  6.37740E+03  1.75978E+04
 -2.59046E+03  1.94896E+04 -1.21264E+04  1.21830E+04 -1.37334E+04  3.19371E+03 -1.00721E+04 -2.69628E+03
 -5.02314E+03 -4.28485E+03 -8.16760E+02  1.45088E+03 -2.13764E+03  2.33089E+03 -4.53847E+03  3.84782E+03
 -9.36919E+03 -5.62028E+02 -9.99355E+03 -8.31137E+03 -4.17614E+03 -1.33081E+04  4.22906E+03 -9.90548E+03
  8.56144E+03 -4.13389E+03  6.09746E+03  2.58397E+03  5.22668E+02  3.91621E+03 -4.45667E+03 -2.81172E+02
 -4.40567E+03 -6.36922E+03 -1.19046E+03 -8.86140E+03  4.94417E+03 -9.54952E+03  1.18631E+04 -4.93995E+03
  1.41145E+04  1.04689E+03  1.06724E+04  7.97557E+03  2.34479E+03  1.08160E+04 -5.90718E+03  9.73586E+03
 -7.98904E+03  3.00651E+03 -4.23181E+03 -1.89804E+03  1.34988E+03 -2.45667E+03  5.55341E+03 -1.28934E+03
  5.20607E+03  4.30417E+03  1.13782E+03  7.68400E+03 -5.27291E+03  7.49733E+03 -9.48378E+03  1.98281E+03
 -5.79385E+03 -4.64685E+03  1.01926E+02 -7.97102E+03  4.61978E+03 -4.12163E+03  4.76575E+03  1.42284E+03
  7.23744E+02  4.53677E+03 -5.01163E+03  5.99246E+03 -6.63525E+03  2.91167E+03 -6.26846E+03 -1.91381E+03
 -3.76866E+03 -7.82871E+03  1.74933E+03 -9.23861E+03  7.86579E+03 -5.84876E+03  8.41489E+03  1.38050E+03
  5.74014E+03  6.99748E+03  5.33743E+01  8.55455E+03 -6.09183E+03  4.95993E+03 -6.53327E+03 -6.33204E+02
 -6.74769E+03 -6.00460E+03 -1.49602E+03 -6.28186E+03  3.34169E+03 -5.43225E+03  3.72146E+03 -2.77103E+03
  3.53172E+03  5.95730E+02 -2.48878E+02  1.48384E+03  2.65745E+02 -3.10138E+02  7.04803E+02 -2.76924E+03
  5.32652E+03 -1.47305E+03  7.21890E+03  1.22788E+03  7.44029E+03  4.58757E+03  6.21735E+03  9.51583E+03
 -1.75003E+03  1.13127E+04 -9.79241E+03  8.10860E+03 -1.25401E+04  1.64445E+03 -1.00071E+04 -3.74181E+03
 -5.32076E+03 -8.53450E+03 -3.45301E+02 -6.81856E+03  2.60422E+03 -3.16961E+03  2.16963E+03 -2.51521E+03
  1.69500E+03 -1.70537E+03  1.97578E+03 -2.37403E+03  3.93523E+03 -1.91590E+03  4.22725E+03  2.35369E+02
  5.48918E+03  1.51411E+03  1.74930E+03  4.47523E+03 -1.45467E+03  4.18889E+03 -5.72804E+03  3.61134E+03
 -6.47368E+03 -9.14842E+02 -2.79767E+03 -4.42997E+03 -3.84182E+01 -6.48694E+03  4.24884E+03 -7.19514E+03
  6.76464E+03 -4.07696E+03  8.47336E+03  4.50431E+02  6.16522E+03  5.74886E+03  1.39016E+03  7.61574E+03
 -3.11919E+03  7.01919E+03 -4.46993E+03  2.59073E+03 -2.68345E+03 -1.20348E+03 -7.42354E+02 -7.23452E+02
 -5.44588E+02  2.26659E+02 -8.69144E+02  2.02617E+03 -2.96342E+03  1.39409E+03 -5.06861E+03 -8.74161E+02
 -2.45731E+03 -4.90820E+03  1.01503E+03 -6.30354E+03  3.36995E+03 -5.53238E+03  5.50624E+03 -1.21339E+03
  5.51335E+03  2.94703E+03  2.28968E+03  4.72185E+03 -9.57495E+02  6.00692E+03 -3.58540E+03  3.33557E+03
 -5.06298E+03  5.52707E+02 -4.25089E+03 -3.36772E+03 -2.45661E+02 -4.35821E+03  2.38489E+03 -3.54403E+03
  3.90348E+03 -1.59052E+03  2.34343E+03  5.83564E+02  3.36698E+02  1.88149E+03  8.63908E+02  1.00113E+03
  1.68479E+03  3.57043E+02  1.77794E+03  1.12848E+03  1.50536E+03  2.58451E+03  1.57740E+03  2.68942E+03
 -1.48530E+03  3.77112E+03 -3.60842E+03  4.87289E+03 -4.67481E+03  1.62387E+03 -5.39950E+03 -1.09928E+03
 -2.23662E+03 -4.75985E+03  5.35453E+02 -5.84453E+03  2.68306E+03 -3.44107E+03  4.22782E+03 -1.49977E+03
  3.13255E+03  2.48466E+03  5.10195E+02  3.03653E+03 -1.24527E+03  1.49846E+03 -1.48204E+03 -3.47296E+01
 -6.42596E+02 -2.03001E+03  1.75254E+03 -2.15861E+03  2.03384E+03 -1.17220E+03  1.65518E+03  6.55555E+02
  9.12679E+02  7.72386E+02  8.25044E+02 -1.97293E+02 -9.65286E+01  9.64789E+02  1.57636E+03 -2.11164E+02
  1.65395E+02 -4.38492E+02  2.11784E+03  1.03632E+03  7.12185E+02  2.83466E+03 -1.28001E+02  3.71565E+03
 -2.10141E+03  1.70039E+03 -2.55892E+03  2.18842E+02 -2.88699E+03 -1.13723E+03 -7.80897E+02 -1.23029E+03
  6.76769E+02 -1.83164E+03  9.59738E+02 -9.83365E+02  1.13850E+03  1.29822E+03 -7.99264E+02  1.42351E+03
 -1.79506E+03  1.03158E+03 -1.68198E+03 -1.29168E+03 -1.08653E+03 -2.39814E+03  1.99330E+02 -2.20720E+03
  1.12278E+03 -8.95232E+02  8.37246E+02  4.51914E+01  1.81704E+03 -1.92651E+02  3.95217E+02  1.53064E+03
 -3.24626E+02  5.71050E+02 -9.36882E+02 -3.03958E+02  7.00429E+02 -1.33984E+03  2.04724E+03 -1.45758E+03
  2.14546E+03  1.65796E+01  3.28735E+03  1.14698E+03  1.27391E+03  2.51455E+03 -5.79860E+02  2.26302E+03
 -1.89629E+03  4.55591E+02 -1.87730E+03 -1.39815E+02 -9.84788E+02 -1.57044E+03  5.23216E+02 -1.25919E+03
  1.74145E+03 -6.94112E+02  1.00785E+03  8.16375E+02  5.27743E+02  1.67953E+03  1.20553E+02  1.28189E+03
 -5.98211E+02  1.51384E+03 -7.47754E+02  5.18005E+02 -6.90815E+01  4.92473E+02 -9.40679E+02  5.64758E+02
 -4.25060E+02  1.36314E+03 -2.36906E+03  6.54994E+02 -2.18535E+03  2.30626E+02 -3.05963E+03 -1.08988E+03
 -1.65306E+03 -3.05569E+03  6.06771E+02 -3.61448E+03  1.42299E+03 -3.10323E+03  3.76739E+03 -1.11570E+03
  3.10961E+03  2.14354E+02  1.59674E+03  2.13698E+03 -6.27610E+02  2.16939E+03 -7.86895E+02  2.04439E+03
 -1.16132E+03  1.00704E+03 -6.89582E+02 -2.58322E+02 -5.02882E+02  3.98113E+01 -7.95311E+02 -7.33055E+01
 -8.65839E+02 -2.16601E+02 -6.06917E+02  2.83996E+02  1.92779E+02 -8.53255E+02 -3.13541E+02 -9.03475E+02
  1.60383E+03 -7.25619E+02  9.30076E+02  3.14947E+02  1.55195E+03  1.37481E+03 -4.36485E+02  1.79531E+03
 -1.24491E+03  2.78709E+03 -2.45462E+03  1.64105E+03 -2.48272E+03 -2.44766E+02 -1.85188E+03 -1.76886E+03
 -9.56526E+02 -1.88300E+03  5.12586E+02 -1.82717E+03  7.72314E+02 -8.63893E+02  1.08013E+03  2.36184E+02
  7.78257E+02  5.74232E+02 -2.65428E+01  6.31136E+02 -2.03266E+02  5.90749E+01 -1.15463E+01 -2.89771E+02
  7.71934E+02  5.84855E+01  7.71295E+02  6.24479E+02  1.56511E+02  5.75031E+02  3.35339E+02  6.17271E+02
 -1.05302E+03  9.59282E+02 -8.28305E+02 -7.32584E+01 -8.13835E+02 -8.57681E+02  1.30753E+02 -1.60480E+03
  7.70556E+02 -1.05700E+03  8.63787E+02 -2.05733E+02  1.43776E+03 -3.73029E+02  6.72594E+02  8.20859E+02
  5.09791E+02  9.42758E+02 -3.22646E+02  6.56563E+02 -7.24302E+02  9.00212E+02 -3.67770E+01  1.11259E+02
 -1.64603E+02  1.42690E+02 -6.57336E+02  3.20733E+02 -7.77983E+02  3.80090E+02 -1.24000E+03 -2.35293E+02
 -1.12571E+03 -8.80039E+01 -2.49872E+02 -1.09898E+03  6.85044E+02 -1.86585E+03  8.00002E+02 -2.75668E+02
  7.92348E+02  3.56297E+02 -3.45681E+02  2.61834E+02 -8.71800E+01  9.77008E+02 -5.66924E+02  9.07299E+02
