 $NMID ID='MM_0lb_SNR800_7hz_g55_37.RAW', FMTDAT='(8E13.5)'
 TRAMP=1., VOLUME=1. $END
  3.09922E+05  3.09248E+02  3.38137E+05  2.50571E+05  8.46097E+04  3.38757E+05 -1.32515E+05  2.52504E+05
 -1.90701E+05  8.39003E+04 -1.13334E+05 -3.24867E+04 -4.88521E+02 -5.12920E+04  5.36488E+04 -7.58246E+02
  3.57039E+04  5.25955E+04 -1.68804E+04  7.64072E+04 -6.18510E+04  6.50411E+04 -8.58257E+04  3.28935E+04
 -8.28549E+04 -1.21349E+04 -5.86801E+04 -5.27065E+04 -1.55857E+04 -7.19673E+04  2.82317E+04 -4.74466E+04
  4.19363E+04  3.57678E+03  1.68033E+04  4.88840E+04 -3.49594E+04  4.83043E+04 -6.86562E+04  4.95287E+01
 -5.55588E+04 -5.82960E+04 -7.69947E+03 -8.01010E+04  3.49389E+04 -5.80322E+04  5.04821E+04 -1.83859E+04
  4.59919E+04  1.14180E+04  3.36805E+04  2.69540E+04  1.54831E+04  3.12456E+04 -5.97052E+03  2.81814E+04
 -2.27100E+04  1.15310E+04 -1.78393E+04 -5.86772E+03  7.46401E+03 -7.49943E+03  2.41755E+04  1.41590E+04
  7.32691E+03  3.85656E+04 -3.45106E+04  3.79233E+04 -6.69737E+04  2.40166E+03 -5.94157E+04 -4.46312E+04
 -1.27031E+04 -6.69660E+04  4.26160E+04 -4.85453E+04  6.26699E+04 -2.83321E+03  3.81196E+04  3.53581E+04
 -5.17799E+03  4.07689E+04 -3.28505E+04  2.01512E+04 -3.48497E+04 -2.79314E+03 -2.07505E+04 -1.24145E+04
 -9.76055E+03 -1.63141E+04  7.05177E+01 -2.01849E+04  8.86379E+03 -2.35245E+04  1.59365E+04 -1.23361E+04
  9.72034E+03  6.64011E+03 -1.18248E+04  1.32726E+04 -2.50707E+04 -7.84815E+03 -8.92069E+03 -3.95317E+04
  2.65559E+04 -4.81209E+04  5.41844E+04 -2.12984E+04  5.05570E+04  2.15995E+04  1.84490E+04  4.86832E+04
 -1.69194E+04  3.73128E+04 -2.90047E+04  2.83746E+03 -1.31679E+04 -3.01183E+04  2.17761E+04 -3.90487E+04
  4.64526E+04 -1.20204E+04  4.23732E+04  2.57917E+04  2.29750E+04  5.34192E+04 -8.26663E+03  5.89248E+04
 -3.70417E+04  4.09971E+04 -4.97137E+04  1.20536E+04 -5.01670E+04 -1.95117E+04 -2.75845E+04 -4.45044E+04
  7.84791E+03 -4.43539E+04  3.58716E+04 -1.87073E+04  3.36564E+04  1.14581E+04  5.60805E+03  2.16323E+04
 -1.44200E+04  1.00802E+04 -1.15717E+04 -7.40905E+03  5.36822E+03 -1.19312E+04  1.87275E+04  5.72143E+03
  1.58275E+04  2.24608E+04 -4.77695E+03  2.81095E+04 -2.45059E+04  1.57400E+04 -3.36511E+04 -2.01234E+03
 -2.80672E+04 -1.91691E+04 -1.35121E+04 -2.75335E+04  4.07370E+03 -2.92244E+04  2.22421E+04 -2.53255E+04
  3.50568E+04 -1.50786E+04  4.10886E+04  6.38679E+03  2.91078E+04  2.70927E+04  4.55883E+03  4.35409E+04
 -2.10011E+04  3.55389E+04 -3.17690E+04  1.23640E+04 -2.30810E+04 -1.02514E+04 -5.00467E+03 -1.25181E+04
  7.26847E+02 -4.58081E+02 -8.74137E+03  8.83774E+03 -2.19522E+04  4.80624E+03 -2.21424E+04 -1.14123E+04
 -1.28677E+04 -2.57285E+04  6.63387E+03 -3.04044E+04  2.04943E+04 -2.14841E+04  2.55007E+04 -1.80700E+03
  1.62825E+04  1.76752E+04 -1.21902E+03  2.49541E+04 -1.86703E+04  1.49511E+04 -2.58432E+04 -5.38451E+03
 -1.86984E+04 -2.29275E+04 -2.12890E+03 -3.06315E+04  1.39430E+04 -2.57744E+04  2.51893E+04 -1.34621E+04
  2.41078E+04 -2.04273E+02  1.72900E+04  6.02418E+03  1.02830E+04  1.81049E+03  1.30447E+04 -2.21960E+03
  2.45390E+04  3.17964E+03  2.89477E+04  1.99833E+04  1.97049E+04  4.14166E+04 -2.97503E+03  4.96854E+04
 -2.81530E+04  4.23328E+04 -4.73953E+04  2.20719E+04 -5.10460E+04 -3.81756E+03 -4.03766E+04 -2.99308E+04
 -1.59081E+04 -4.24213E+04  1.50113E+04 -3.69065E+04  3.08347E+04 -1.67566E+04  2.67085E+04  9.50466E+03
  8.94943E+03  2.08183E+04 -1.25438E+04  1.77221E+04 -2.21902E+04  2.29021E+03 -1.65847E+04 -1.45555E+04
 -6.02220E+02 -2.14095E+04  1.18489E+04 -1.56057E+04  1.49252E+04 -1.18260E+03  3.42233E+03  9.91465E+03
 -9.48335E+03  5.35978E+03 -1.07477E+04 -8.07529E+03 -2.38804E+03 -2.06050E+04  1.33946E+04 -2.35755E+04
  2.63001E+04 -1.36160E+04  3.10337E+04  3.33308E+03  2.74227E+04  2.10307E+04  1.24551E+04  3.39933E+04
 -7.56648E+03  3.62008E+04 -2.39980E+04  2.22689E+04 -2.65027E+04  4.39773E+03 -1.77533E+04 -6.92213E+03
 -7.18810E+03 -8.42150E+03 -8.91028E+02  2.49335E+02 -3.14059E+03  3.83203E+03 -8.11299E+03  6.12754E+03
 -1.61550E+04 -1.55022E+03 -1.69976E+04 -1.29434E+04 -6.61322E+03 -2.24236E+04  7.20091E+03 -1.80197E+04
  1.53492E+04 -7.68027E+03  1.04678E+04  4.84363E+03 -7.57493E+02  7.10243E+03 -9.41654E+03 -2.25939E+02
 -8.91632E+03 -1.09765E+04 -8.93089E+02 -1.81583E+04  1.14994E+04 -1.92940E+04  2.34089E+04 -1.02773E+04
  2.75515E+04  3.04912E+03  2.02191E+04  1.73195E+04  3.69192E+03  2.26649E+04 -1.08894E+04  1.78467E+04
 -1.42116E+04  5.07106E+03 -7.51730E+03 -3.90965E+03  2.69783E+03 -4.95230E+03  9.62398E+03 -1.19939E+03
  8.91138E+03  8.11527E+03  1.25503E+03  1.50315E+04 -1.11265E+04  1.39964E+04 -1.82165E+04  3.46108E+03
 -1.31240E+04 -1.00310E+04  2.51872E+02 -1.56683E+04  1.05335E+04 -8.59946E+03  1.11076E+04  4.33827E+03
  2.91855E+03  1.26804E+04 -9.31852E+03  1.40204E+04 -1.70134E+04  5.63997E+03 -1.73186E+04 -6.90716E+03
 -9.21332E+03 -1.95553E+04  5.13293E+03 -2.22281E+04  1.87915E+04 -1.27224E+04  2.06360E+04  3.83322E+03
  1.19198E+04  1.59739E+04 -2.82674E+03  1.88954E+04 -1.41518E+04  1.02709E+04 -1.57856E+04 -1.67295E+03
 -1.29173E+04 -1.23343E+04 -1.56919E+03 -1.47585E+04  7.44235E+03 -1.16587E+04  9.65217E+03 -3.39518E+03
  6.17793E+03  2.98195E+03 -1.76244E+03  2.39657E+03 -8.62176E+02 -4.65388E+03  3.74141E+03 -9.89632E+03
  1.45736E+04 -6.37218E+03  2.04968E+04  2.46460E+03  1.91240E+04  1.40736E+04  1.18784E+04  2.63887E+04
 -6.54198E+03  2.96828E+04 -2.47394E+04  2.21556E+04 -3.21981E+04  4.28394E+03 -2.53688E+04 -1.16881E+04
 -1.26620E+04 -2.08731E+04 -8.90054E+01 -1.82705E+04  6.50140E+03 -1.04693E+04  6.65569E+03 -6.75423E+03
  4.91645E+03 -4.01077E+03  4.87572E+03 -4.14464E+03  6.57303E+03 -4.62960E+03  9.85105E+03 -2.22100E+03
  1.30372E+04  3.19763E+03  7.46200E+03  1.20737E+04 -2.13972E+03  1.51488E+04 -1.36095E+04  1.11895E+04
 -1.90065E+04 -1.58677E+03 -1.26616E+04 -1.31438E+04 -1.86756E+03 -2.04767E+04  1.06584E+04 -2.01243E+04
  2.12686E+04 -1.10349E+04  2.49170E+04  3.92509E+03  1.71065E+04  1.77556E+04  2.23917E+03  2.26997E+04
 -9.56758E+03  1.76149E+04 -1.31105E+04  6.83361E+03 -9.06002E+03 -1.74377E+03 -3.94648E+03 -3.03746E+03
 -1.60176E+03 -6.39593E+01 -3.08051E+03  3.83798E+03 -8.18764E+03  2.81816E+03 -1.28305E+04 -1.89806E+03
 -9.85991E+03 -1.24070E+04 -4.25753E+02 -1.88733E+04  1.19346E+04 -1.76268E+04  1.92451E+04 -5.79465E+03
  1.91401E+04  9.13890E+03  8.85814E+03  1.77661E+04 -3.52386E+03  1.95065E+04 -1.45890E+04  1.19730E+04
 -1.85075E+04  1.72811E+02 -1.37332E+04 -1.15770E+04 -1.71189E+03 -1.64412E+04  8.40329E+03 -1.22606E+04
  1.23646E+04 -3.41254E+03  8.91629E+03  3.64533E+03  3.35199E+03  5.87394E+03  1.73921E+03  2.95112E+03
  3.07926E+03  1.38314E+03  4.57227E+03  2.68389E+03  5.98571E+03  6.37699E+03  4.76091E+03  1.04877E+04
 -3.58386E+03  1.57896E+04 -1.35847E+04  1.49357E+04 -2.11979E+04  4.18534E+03 -2.07027E+04 -9.52955E+03
 -1.02415E+04 -1.98247E+04  3.31043E+03 -2.21695E+04  1.21908E+04 -1.38929E+04  1.64280E+04 -3.39580E+03
  1.27525E+04  7.71443E+03  3.03885E+03  1.12253E+04 -6.13327E+03  7.44508E+03 -8.62803E+03 -1.66996E+03
 -4.05737E+03 -8.48526E+03  4.29656E+03 -8.78670E+03  8.72470E+03 -4.84366E+03  8.55170E+03  1.86436E+03
  4.97301E+03  4.26324E+03  2.13235E+03  3.46761E+03 -9.65231E+02  2.52686E+03  1.59030E+03 -3.14656E+02
  3.53076E+03 -1.25426E+03  8.14490E+03  2.87843E+03  4.94722E+03  1.12355E+04 -1.86752E+03  1.38462E+04
 -9.52075E+03  9.98678E+03 -1.32689E+04  2.56224E+03 -1.18690E+04 -4.57925E+03 -4.77711E+03 -8.86828E+03
  7.92719E+02 -8.30076E+03  5.53329E+03 -2.99200E+03  4.70692E+03  3.37582E+03 -2.18855E+03  6.74854E+03
 -8.58383E+03  4.38658E+03 -1.00244E+04 -4.95628E+03 -6.03656E+03 -1.09764E+04  2.02440E+03 -1.16633E+04
  7.23920E+03 -7.05321E+03  8.82243E+03 -9.37896E+02  6.59047E+03  3.43290E+03  1.37473E+03  5.81303E+03
 -4.11554E+03  1.67878E+03 -5.00876E+03 -4.45354E+03  1.18042E+03 -9.56227E+03  1.04466E+04 -7.56666E+03
  1.34642E+04  7.04951E+02  1.23601E+04  9.30684E+03  3.99525E+03  1.45010E+04 -4.69963E+03  1.32611E+04
 -1.10537E+04  6.37113E+03 -1.21634E+04 -1.94312E+03 -6.40088E+03 -9.15669E+03  2.26715E+03 -9.10313E+03
  8.52084E+03 -4.54322E+03  7.55491E+03  3.87945E+03  2.75424E+03  7.26841E+03 -1.43012E+03  6.64928E+03
 -3.40238E+03  4.79755E+03 -3.39605E+03  1.55940E+03 -1.98778E+03  1.28780E+03 -1.81863E+03  3.32448E+03
 -3.28507E+03  5.00316E+03 -9.46664E+03  4.71742E+03 -1.46950E+04  6.37109E+02 -1.58948E+04 -9.63439E+03
 -8.85546E+03 -1.90405E+04  3.76832E+03 -2.19075E+04  1.38927E+04 -1.67952E+04  2.10770E+04 -6.17983E+03
  1.96430E+04  4.35169E+03  1.22155E+04  1.36746E+04  1.46664E+03  1.56460E+04 -6.18806E+03  1.16954E+04
 -8.52531E+03  3.96429E+03 -5.30847E+03 -1.99250E+03 -2.24808E+03 -1.76673E+03 -5.96360E+02 -5.16836E+02
 -2.23101E+03 -1.20476E+02 -2.78237E+03 -7.43883E+02 -9.28594E+02 -3.54816E+03  1.60902E+02 -5.68700E+03
  6.37305E+03 -4.88468E+03  9.27084E+03 -3.28985E+02  1.10624E+04  8.32738E+03  3.21655E+03  1.49615E+04
 -7.12233E+03  1.79827E+04 -1.66235E+04  9.96156E+03 -1.84798E+04 -1.49785E+03 -1.46308E+04 -1.18181E+04
 -5.68253E+03 -1.57956E+04  3.82006E+03 -1.45224E+04  1.00927E+04 -8.41472E+03  1.04237E+04  6.22484E+02
  5.58746E+03  5.14891E+03 -5.02096E+02  4.72692E+03 -3.23577E+03 -6.09805E+02  3.75872E+02 -3.90327E+03
  5.09032E+03 -2.63019E+03  6.37207E+03  1.61594E+03  4.38440E+03  6.50106E+03  5.15793E+02  8.63769E+03
 -7.00455E+03  7.03449E+03 -1.07166E+04  6.21668E+02 -9.48472E+03 -7.55874E+03 -1.46980E+03 -1.33132E+04
  7.45545E+03 -1.12536E+04  1.23457E+04 -3.67586E+03  1.29021E+04  3.21046E+03  7.45776E+03  1.00161E+04
  1.18213E+03  1.07377E+04 -4.44501E+03  8.62359E+03 -6.68943E+03  4.50979E+03 -5.49615E+03  7.63707E+02
 -3.18752E+03 -3.41735E+01 -3.17467E+03  1.47673E+03 -5.68905E+03  2.24528E+03 -8.38113E+03 -1.39382E+03
 -7.38411E+03 -6.07970E+03 -1.94729E+03 -1.08936E+04  4.81009E+03 -1.12632E+04  9.90621E+03 -5.41327E+03
  1.10544E+04  1.25219E+03  6.58939E+03  7.63861E+03 -6.87880E+02  1.10498E+04 -8.04003E+03  7.12233E+03
