 $NMID ID='MM_0lb_SNR800_11hz_g45_64.RAW', FMTDAT='(8E13.5)'
 TRAMP=1., VOLUME=1. $END
  3.10194E+05  3.01908E+02  3.37802E+05  2.50514E+05  8.46839E+04  3.38070E+05 -1.32320E+05  2.51161E+05
 -1.90462E+05  8.37240E+04 -1.12262E+05 -3.22186E+04  2.03968E+02 -5.07687E+04  5.39136E+04 -3.32915E+02
  3.53820E+04  5.27559E+04 -1.65945E+04  7.59857E+04 -6.08121E+04  6.41055E+04 -8.47255E+04  3.21828E+04
 -8.20558E+04 -1.15241E+04 -5.76410E+04 -5.18948E+04 -1.52279E+04 -7.00971E+04  2.77971E+04 -4.61506E+04
  4.03789E+04  3.90380E+03  1.63840E+04  4.82234E+04 -3.46151E+04  4.76226E+04 -6.72058E+04 -3.25425E+02
 -5.40605E+04 -5.74594E+04 -7.35131E+03 -7.83020E+04  3.44395E+04 -5.60172E+04  4.87744E+04 -1.79872E+04
  4.47806E+04  1.15459E+04  3.25631E+04  2.64339E+04  1.54710E+04  3.02572E+04 -5.53999E+03  2.76263E+04
 -2.22833E+04  1.19673E+04 -1.81718E+04 -5.34499E+03  6.24426E+03 -7.21680E+03  2.29293E+04  1.27265E+04
  7.30467E+03  3.63842E+04 -3.31139E+04  3.60450E+04 -6.44969E+04  2.16122E+03 -5.79730E+04 -4.36926E+04
 -1.25735E+04 -6.45598E+04  4.08659E+04 -4.61574E+04  5.95607E+04 -2.61675E+03  3.53753E+04  3.30655E+04
 -5.90656E+03  3.76688E+04 -3.07514E+04  1.72974E+04 -3.17890E+04 -3.83139E+03 -1.78911E+04 -1.15338E+04
 -8.77041E+03 -1.44823E+04 -7.46768E+02 -1.87455E+04  8.20016E+03 -2.34138E+04  1.57961E+04 -1.33956E+04
  1.08934E+04  5.49351E+03 -9.32281E+03  1.29013E+04 -2.22222E+04 -5.51881E+03 -8.40279E+03 -3.56912E+04
  2.40606E+04 -4.53323E+04  4.99354E+04 -2.02214E+04  4.67363E+04  2.03325E+04  1.65348E+04  4.57112E+04
 -1.64127E+04  3.46704E+04 -2.64107E+04  2.36724E+03 -1.04068E+04 -2.86244E+04  2.11554E+04 -3.51883E+04
  4.26413E+04 -9.80871E+03  3.76534E+04  2.44663E+04  1.94980E+04  4.85580E+04 -7.71256E+03  5.30354E+04
 -3.40390E+04  3.57670E+04 -4.46987E+04  1.02631E+04 -4.49449E+04 -1.75695E+04 -2.48281E+04 -3.99793E+04
  7.37428E+03 -3.96982E+04  3.29435E+04 -1.60298E+04  3.07095E+04  1.12661E+04  4.34260E+03  2.00923E+04
 -1.38357E+04  8.62080E+03 -1.08248E+04 -7.64528E+03  5.61266E+03 -1.12594E+04  1.84115E+04  5.83333E+03
  1.41707E+04  2.26808E+04 -5.54382E+03  2.59758E+04 -2.27090E+04  1.32246E+04 -2.96754E+04 -3.66594E+03
 -2.31546E+04 -1.79323E+04 -9.87555E+03 -2.26732E+04  4.46018E+03 -2.29310E+04  1.76148E+04 -2.07267E+04
  2.90769E+04 -1.33976E+04  3.54137E+04  4.23215E+03  2.55741E+04  2.20234E+04  4.39940E+03  3.86774E+04
 -1.85845E+04  3.19891E+04 -2.91396E+04  1.11308E+04 -2.13972E+04 -9.99278E+03 -4.52806E+03 -1.34255E+04
  1.39465E+03 -2.00079E+03 -6.29820E+03  7.38060E+03 -1.83250E+04  4.98418E+03 -1.82108E+04 -8.53576E+03
 -1.12158E+04 -2.13711E+04  5.47579E+03 -2.54803E+04  1.72877E+04 -1.81637E+04  2.06859E+04 -1.36411E+03
  1.31708E+04  1.49037E+04 -1.03161E+03  2.12047E+04 -1.44312E+04  1.17985E+04 -2.14959E+04 -4.51764E+03
 -1.55263E+04 -1.88237E+04 -2.18466E+03 -2.55243E+04  1.17909E+04 -2.10177E+04  2.11795E+04 -1.06669E+04
  1.94574E+04  1.02049E+02  1.42697E+04  4.72498E+03  7.84680E+03  1.04680E+03  1.06255E+04 -1.56242E+03
  2.01104E+04  2.57740E+03  2.25288E+04  1.63961E+04  1.49768E+04  3.36201E+04 -2.85630E+03  3.93417E+04
 -2.25514E+04  3.22089E+04 -3.64880E+04  1.62497E+04 -3.86382E+04 -2.72913E+03 -3.15214E+04 -2.25600E+04
 -1.27804E+04 -3.22628E+04  1.11046E+04 -2.88628E+04  2.46005E+04 -1.40148E+04  2.20541E+04  6.31483E+03
  7.35803E+03  1.67431E+04 -1.02823E+04  1.42858E+04 -1.84282E+04  2.44053E+03 -1.38610E+04 -1.14290E+04
 -2.82696E+02 -1.76303E+04  9.14555E+03 -1.27612E+04  1.20376E+04 -1.51959E+03  2.87339E+03  7.70995E+03
 -7.73539E+03  3.53582E+03 -7.40127E+03 -6.13760E+03 -1.21704E+03 -1.56476E+04  1.10099E+04 -1.70166E+04
  1.98886E+04 -9.56136E+03  2.21033E+04  2.81466E+03  1.91814E+04  1.59968E+04  8.48937E+03  2.51227E+04
 -4.24000E+03  2.63757E+04 -1.73456E+04  1.68345E+04 -1.92026E+04  3.74862E+03 -1.33768E+04 -4.75578E+03
 -5.94879E+03 -6.49397E+03 -4.95418E+02  5.43365E+02 -2.15903E+03  3.23984E+03 -6.30708E+03  4.83476E+03
 -1.22760E+04 -9.57510E+02 -1.33319E+04 -1.04046E+04 -5.16915E+03 -1.72267E+04  5.60041E+03 -1.33831E+04
  1.11003E+04 -5.54556E+03  8.06111E+03  3.62109E+03 -2.50862E+02  5.26783E+03 -6.25389E+03 -5.40842E+02
 -6.30236E+03 -8.91673E+03 -9.03134E+02 -1.29894E+04  7.56747E+03 -1.37745E+04  1.67567E+04 -7.03435E+03
  2.00325E+04  1.84212E+03  1.43289E+04  1.18350E+04  2.86354E+03  1.59765E+04 -8.26625E+03  1.36699E+04
 -1.05438E+04  3.97322E+03 -5.68259E+03 -2.44496E+03  1.92485E+03 -3.82873E+03  7.29430E+03 -9.88223E+02
  6.78949E+03  6.23627E+03  1.19777E+03  1.05948E+04 -7.39337E+03  1.00902E+04 -1.33569E+04  2.65319E+03
 -8.77639E+03 -7.12330E+03 -2.29556E+02 -1.13944E+04  7.12993E+03 -5.81053E+03  7.51089E+03  2.70402E+03
  1.68837E+03  7.98959E+03 -6.98376E+03  9.30253E+03 -1.09538E+04  4.00380E+03 -1.12020E+04 -3.48106E+03
 -6.53047E+03 -1.25312E+04  2.98576E+03 -1.49228E+04  1.22403E+04 -9.04648E+03  1.37057E+04  2.01328E+03
  8.49719E+03  1.10214E+04 -1.42087E+03  1.27958E+04 -9.65640E+03  7.60523E+03 -1.06433E+04 -1.05777E+03
 -9.06873E+03 -8.86790E+03 -2.11192E+03 -9.80553E+03  5.23018E+03 -8.03619E+03  6.14420E+03 -3.53801E+03
  4.09900E+03  1.54635E+03 -9.55364E+02  1.82762E+03 -3.38398E+02 -2.83470E+03  1.83233E+03 -5.71036E+03
  9.09102E+03 -3.50282E+03  1.26985E+04  1.47542E+03  1.26332E+04  8.44969E+03  8.50877E+03  1.67826E+04
 -3.86067E+03  1.89901E+04 -1.60057E+04  1.40100E+04 -2.08390E+04  2.60414E+03 -1.64454E+04 -7.01197E+03
 -8.39830E+03 -1.35933E+04 -4.21398E+02 -1.12981E+04  4.39925E+03 -6.39354E+03  4.47874E+03 -4.34196E+03
  2.80820E+03 -2.89311E+03  3.26515E+03 -3.15345E+03  5.26686E+03 -2.83849E+03  6.45562E+03 -4.96812E+02
  8.90287E+03  1.82316E+03  4.58641E+03  7.47213E+03 -1.91813E+03  8.72048E+03 -9.14205E+03  6.63533E+03
 -1.14732E+04 -9.40050E+02 -6.80895E+03 -8.04438E+03 -9.54100E+02 -1.22681E+04  6.60561E+03 -1.20838E+04
  1.23478E+04 -6.83422E+03  1.54318E+04  1.76326E+03  1.04141E+04  1.07839E+04  1.95216E+03  1.35644E+04
 -5.70183E+03  1.16547E+04 -7.98467E+03  3.73867E+03 -5.09409E+03 -1.67030E+03 -2.45525E+03 -1.57923E+03
 -1.04596E+03  4.25614E+02 -1.96490E+03  2.56919E+03 -4.98588E+03  1.96899E+03 -7.94210E+03 -1.29317E+03
 -5.55794E+03 -8.02544E+03  1.47220E+02 -1.14156E+04  6.70047E+03 -1.05592E+04  1.09683E+04 -3.03217E+03
  1.10495E+04  5.75013E+03  4.99677E+03  9.53640E+03 -2.20924E+03  1.14726E+04 -7.94153E+03  7.09736E+03
 -1.01723E+04  5.78265E+02 -8.13480E+03 -6.37784E+03 -9.76209E+02 -9.30959E+03  4.80934E+03 -6.90350E+03
  7.39424E+03 -2.46226E+03  4.99924E+03  1.63588E+03  1.52788E+03  2.98066E+03  1.26404E+03  1.60305E+03
  2.75600E+03  7.05333E+02  3.02542E+03  1.25918E+03  3.40112E+03  4.48036E+03  2.65805E+03  5.56526E+03
 -2.61636E+03  8.73650E+03 -7.87003E+03  8.84684E+03 -1.12367E+04  2.58681E+03 -1.15990E+04 -4.39977E+03
 -5.54512E+03 -1.10026E+04  1.74984E+03 -1.24319E+04  6.87268E+03 -7.53077E+03  8.82030E+03 -2.34355E+03
  7.21901E+03  4.25819E+03  1.30281E+03  6.70714E+03 -2.81874E+03  4.27554E+03 -4.51215E+03 -6.73169E+02
 -2.05216E+03 -4.69670E+03  2.86787E+03 -4.90695E+03  4.63114E+03 -2.34453E+03  4.50520E+03  6.17911E+02
  2.90026E+03  2.41000E+03  1.09405E+03  1.92086E+03 -7.93687E+02  1.71640E+03  1.48721E+03 -4.19505E+02
  1.61080E+03 -3.92806E+02  4.71049E+03  1.62350E+03  2.52438E+03  6.52352E+03 -1.30142E+03  7.83050E+03
 -5.32900E+03  5.08238E+03 -6.88689E+03  1.32627E+03 -6.30379E+03 -2.54136E+03 -2.40084E+03 -3.94624E+03
  9.93424E+02 -4.37719E+03  2.64696E+03 -1.92028E+03  2.38767E+03  2.07499E+03 -1.09450E+03  3.64912E+03
 -4.53777E+03  2.35460E+03 -5.24636E+03 -2.93144E+03 -3.36181E+03 -5.97484E+03  6.39278E+02 -6.33543E+03
  3.10692E+03 -3.24247E+03  4.32437E+03 -3.41064E+02  3.67617E+03  1.72188E+03  5.79777E+02  3.63014E+03
 -1.61825E+03  8.64430E+02 -2.81740E+03 -1.82583E+03  1.00800E+03 -4.54398E+03  5.33924E+03 -3.80549E+03
  6.29062E+03  2.91974E+02  7.07149E+03  4.51125E+03  2.16997E+03  6.69406E+03 -2.93061E+03  6.72276E+03
 -5.88513E+03  2.80347E+03 -5.86523E+03 -1.08441E+03 -3.13419E+03 -4.44730E+03  1.19216E+03 -4.07093E+03
  4.47178E+03 -2.18819E+03  3.92135E+03  1.75405E+03  1.05114E+03  3.75533E+03 -4.02096E+02  3.49834E+03
 -1.40632E+03  2.69052E+03 -1.66040E+03  1.04910E+03 -6.68588E+02  4.48032E+02 -9.62959E+02  1.45137E+03
 -1.59653E+03  2.62919E+03 -5.08594E+03  2.62493E+03 -6.79855E+03 -8.96336E+01 -8.04491E+03 -4.69567E+03
 -3.86965E+03 -9.00540E+03  1.89000E+03 -1.07888E+04  6.11370E+03 -8.12279E+03  1.02387E+04 -3.34762E+03
  9.59060E+03  1.78743E+03  5.80199E+03  6.49827E+03 -7.03946E+01  6.94981E+03 -3.12930E+03  5.13215E+03
 -4.28992E+03  2.33034E+03 -2.40400E+03 -4.86436E+02 -8.32773E+02 -2.09266E+02 -5.28907E+02  2.05128E+01
 -1.58566E+03 -2.61002E+02 -1.81916E+03 -2.81270E+02 -2.44453E+02 -1.54946E+03 -1.79997E+02 -3.16228E+03
  3.30375E+03 -2.38633E+03  3.92310E+03 -1.15742E+02  5.15776E+03  4.23553E+03  1.19342E+03  7.15587E+03
 -3.27122E+03  8.20275E+03 -7.71429E+03  4.82217E+03 -8.80040E+03 -1.01115E+03 -6.45012E+03 -5.47548E+03
 -2.95788E+03 -7.17493E+03  1.75546E+03 -6.37533E+03  4.18760E+03 -3.31460E+03  4.43340E+03  6.41766E+01
  2.77322E+03  2.12429E+03  1.43292E+02  1.75407E+03 -1.48886E+03 -3.93263E+02  4.65142E+02 -1.65071E+03
  2.12919E+03 -1.08847E+03  2.50969E+03  1.04152E+03  1.51985E+03  3.06906E+03  6.34287E+01  3.28578E+03
 -2.92303E+03  3.20782E+03 -4.38200E+03  2.92992E+02 -4.26988E+03 -3.45654E+03 -4.55101E+02 -5.90758E+03
  3.15358E+03 -4.43292E+03  5.13232E+03 -1.42726E+03  5.18890E+03  1.13883E+03  3.04831E+03  3.89455E+03
  7.06274E+02  4.75054E+03 -1.72875E+03  3.60020E+03 -3.16017E+03  1.91248E+03 -2.39506E+03  2.93457E+02
 -1.33282E+03 -2.68213E+02 -1.19570E+03  8.67230E+02 -2.34581E+03  3.58129E+02 -3.87040E+03 -8.11302E+02
 -3.24885E+03 -2.12403E+03 -9.06090E+02 -4.82446E+03  2.35270E+03 -5.07571E+03  4.01109E+03 -2.39368E+03
  4.31576E+03  3.15500E+02  2.47485E+03  2.97543E+03 -4.67230E+02  4.54304E+03 -2.97096E+03  3.31728E+03
