 $NMID ID='MM_0lb_SNR800_17hz_g45_7.RAW', FMTDAT='(8E13.5)'
 TRAMP=1., VOLUME=1. $END
  3.09840E+05  4.10404E+02  3.37354E+05  2.50386E+05  8.46168E+04  3.37424E+05 -1.32575E+05  2.50481E+05
 -1.90136E+05  8.27156E+04 -1.11368E+05 -3.25711E+04  1.26298E+03 -5.02426E+04  5.39157E+04  5.21399E+00
  3.51669E+04  5.30632E+04 -1.70840E+04  7.51621E+04 -6.03013E+04  6.30543E+04 -8.33178E+04  3.16575E+04
 -7.99605E+04 -1.11094E+04 -5.63350E+04 -5.04563E+04 -1.49335E+04 -6.84439E+04  2.69441E+04 -4.52018E+04
  3.91365E+04  3.73016E+03  1.55488E+04  4.71119E+04 -3.40236E+04  4.68246E+04 -6.55931E+04 -4.47686E+02
 -5.25097E+04 -5.59496E+04 -6.42523E+03 -7.55332E+04  3.31355E+04 -5.36317E+04  4.66354E+04 -1.65153E+04
  4.19224E+04  1.08931E+04  3.09821E+04  2.47718E+04  1.56561E+04  2.87682E+04 -4.95093E+03  2.67089E+04
 -2.17092E+04  1.26661E+04 -1.91341E+04 -4.49866E+03  4.75114E+03 -7.62826E+03  2.14587E+04  1.11431E+04
  7.40943E+03  3.38659E+04 -3.09241E+04  3.45424E+04 -6.17057E+04  2.10673E+03 -5.57048E+04 -4.18399E+04
 -1.25977E+04 -6.13343E+04  3.86040E+04 -4.41626E+04  5.63512E+04 -2.19890E+03  3.26198E+04  3.10032E+04
 -6.39541E+03  3.39028E+04 -2.89204E+04  1.42214E+04 -2.85644E+04 -5.23540E+03 -1.48865E+04 -1.02587E+04
 -7.56801E+03 -1.20037E+04 -1.00485E+03 -1.69334E+04  6.85261E+03 -2.26856E+04  1.49671E+04 -1.36209E+04
  1.21095E+04  4.25466E+03 -6.64671E+03  1.30818E+04 -1.97957E+04 -2.90469E+03 -8.17135E+03 -3.14675E+04
  2.14014E+04 -4.12897E+04  4.55613E+04 -1.90728E+04  4.25407E+04  1.86534E+04  1.48994E+04  4.23674E+04
 -1.57085E+04  3.13501E+04 -2.39958E+04  1.17767E+03 -8.67775E+03 -2.68575E+04  2.10517E+04 -3.19535E+04
  3.89413E+04 -7.73473E+03  3.27016E+04  2.31265E+04  1.61469E+04  4.35835E+04 -7.72312E+03  4.64604E+04
 -2.90123E+04  3.06348E+04 -3.85879E+04  8.59825E+03 -3.95476E+04 -1.56720E+04 -2.20891E+04 -3.50739E+04
  6.98077E+03 -3.51114E+04  2.96536E+04 -1.31377E+04  2.75981E+04  1.09068E+04  3.45838E+03  1.81551E+04
 -1.31757E+04  7.48625E+03 -9.86091E+03 -7.75407E+03  5.99856E+03 -1.03268E+04  1.75445E+04  6.45431E+03
  1.25697E+04  2.16815E+04 -6.52463E+03  2.40804E+04 -2.18601E+04  9.89292E+03 -2.61814E+04 -5.96706E+03
 -1.76693E+04 -1.66252E+04 -6.45470E+03 -1.76206E+04  3.88122E+03 -1.61851E+04  1.33189E+04 -1.54114E+04
  2.26546E+04 -1.19551E+04  2.91199E+04  1.69278E+03  2.18171E+04  1.72449E+04  4.39221E+03  3.34402E+04
 -1.64299E+04  2.84685E+04 -2.62528E+04  9.86366E+03 -2.01623E+04 -1.02816E+04 -4.15966E+03 -1.37163E+04
  2.59012E+03 -3.98437E+03 -2.94036E+03  5.47274E+03 -1.40093E+04  5.32730E+03 -1.42527E+04 -5.58402E+03
 -9.15148E+03 -1.63771E+04  4.49874E+03 -1.98526E+04  1.29298E+04 -1.47248E+04  1.54883E+04 -1.50695E+03
  9.44375E+03  1.12216E+04 -1.04324E+03  1.65404E+04 -1.08899E+04  9.29410E+03 -1.65088E+04 -3.56255E+03
 -1.19891E+04 -1.50161E+04 -1.57007E+03 -2.02065E+04  8.98682E+03 -1.64174E+04  1.68371E+04 -7.77070E+03
  1.54806E+04  6.78909E+02  1.05940E+04  3.71353E+03  5.64705E+03  7.88341E+02  8.30694E+03 -1.44024E+03
  1.46198E+04  2.96167E+03  1.61328E+04  1.30850E+04  9.80182E+03  2.62819E+04 -2.81688E+03  2.86503E+04
 -1.67244E+04  2.20574E+04 -2.62673E+04  1.06315E+04 -2.70692E+04 -1.81030E+03 -2.30088E+04 -1.53478E+04
 -1.06237E+04 -2.22903E+04  7.25755E+03 -2.04149E+04  1.77150E+04 -1.12997E+04  1.66013E+04  4.14380E+03
  6.38805E+03  1.20927E+04 -7.57081E+03  1.12690E+04 -1.40932E+04  2.36673E+03 -1.07098E+04 -8.54154E+03
 -3.32784E+02 -1.30971E+04  6.48565E+03 -9.93426E+03  8.51740E+03 -1.42531E+03  1.74180E+03  5.38147E+03
 -5.90609E+03  1.66181E+03 -4.21366E+03 -4.81409E+03  5.49894E+02 -1.11763E+04  8.35784E+03 -1.09829E+04
  1.30923E+04 -5.26810E+03  1.32974E+04  2.86819E+03  1.18739E+04  1.02732E+04  5.41212E+03  1.55348E+04
 -1.82595E+03  1.76206E+04 -1.09953E+04  1.10141E+04 -1.26665E+04  3.17598E+03 -9.11503E+03 -2.02538E+03
 -4.60422E+03 -3.48925E+03 -7.47186E+02  1.21398E+03 -2.35286E+03  2.40037E+03 -4.29279E+03  3.56417E+03
 -8.61500E+03 -5.62548E+02 -9.29938E+03 -7.53145E+03 -3.76733E+03 -1.24597E+04  4.02856E+03 -9.21939E+03
  7.83123E+03 -4.11615E+03  5.45679E+03  2.06019E+03  4.08162E+02  3.25362E+03 -3.80773E+03 -2.46553E+00
 -3.66190E+03 -5.41910E+03 -9.35376E+02 -8.20623E+03  4.75964E+03 -8.65678E+03  1.10123E+04 -4.61901E+03
  1.27727E+04  7.81611E+02  9.88998E+03  6.89096E+03  1.77405E+03  9.71794E+03 -5.62157E+03  9.05832E+03
 -7.30372E+03  2.78150E+03 -3.75936E+03 -1.32312E+03  1.18922E+03 -2.09137E+03  5.21839E+03 -1.37393E+03
  4.46658E+03  3.52119E+03  9.79159E+02  6.82775E+03 -4.99061E+03  6.73736E+03 -8.29359E+03  1.60004E+03
 -5.25000E+03 -4.01357E+03  1.47644E+02 -7.22686E+03  4.53147E+03 -3.50659E+03  4.06417E+03  1.42032E+03
  9.95456E+02  3.89207E+03 -4.56232E+03  5.43615E+03 -5.58042E+03  2.55227E+03 -5.33449E+03 -1.54867E+03
 -3.29484E+03 -6.79272E+03  1.51888E+03 -8.24705E+03  6.86670E+03 -5.06129E+03  7.31792E+03  1.17159E+03
  5.30937E+03  6.20084E+03  3.33954E+02  8.21016E+03 -5.83986E+03  4.56502E+03 -6.14134E+03 -4.50733E+02
 -6.27282E+03 -5.81923E+03 -1.42540E+03 -5.85860E+03  2.91251E+03 -5.26502E+03  3.27879E+03 -2.85871E+03
  3.02274E+03  3.06089E+02 -1.65895E+02  1.21537E+03  5.97716E+02 -8.05338E+02  5.45610E+02 -2.09724E+03
  4.41347E+03 -1.11738E+03  6.04846E+03  9.19197E+02  6.81006E+03  3.52926E+03  5.83981E+03  8.34114E+03
 -1.65901E+03  9.90742E+03 -8.82475E+03  7.58609E+03 -1.13723E+04  1.49313E+03 -8.82338E+03 -2.92725E+03
 -4.85411E+03 -7.50409E+03 -5.99696E+02 -6.19255E+03  2.13183E+03 -2.81272E+03  2.44308E+03 -2.36117E+03
  1.57985E+03 -1.70555E+03  2.38935E+03 -2.34393E+03  3.85390E+03 -1.55895E+03  4.05305E+03  6.87262E+01
  4.98690E+03  1.38685E+03  1.86406E+03  4.24533E+03 -1.77091E+03  3.64104E+03 -5.26283E+03  3.30044E+03
 -6.04389E+03 -1.20405E+03 -2.43692E+03 -4.12054E+03  2.35671E+02 -5.50125E+03  3.62724E+03 -6.47339E+03
  6.27364E+03 -3.76880E+03  7.67941E+03  3.27909E+02  5.86566E+03  5.06070E+03  1.35454E+03  7.08827E+03
 -2.68506E+03  6.58144E+03 -3.72196E+03  2.08019E+03 -2.59448E+03 -1.23505E+03 -7.28826E+02 -7.52896E+02
 -5.04188E+02  3.14819E+02 -7.89624E+02  1.87238E+03 -3.04112E+03  1.25840E+03 -4.72559E+03 -6.50748E+02
 -2.00271E+03 -4.23031E+03  8.34045E+02 -5.54986E+03  3.37180E+03 -5.03811E+03  4.73058E+03 -1.51520E+03
  4.94227E+03  2.94459E+03  2.20620E+03  4.14927E+03 -1.05903E+03  5.37059E+03 -3.11781E+03  3.09060E+03
 -4.64368E+03  7.59791E+02 -3.72147E+03 -2.85910E+03 -1.53701E+02 -3.93395E+03  2.05979E+03 -3.09956E+03
  3.16569E+03 -1.45878E+03  2.14117E+03  9.14599E+02  3.02908E+02  1.87384E+03  1.16042E+03  7.73961E+02
  1.68198E+03  6.21713E+02  1.34891E+03  1.08193E+03  1.33329E+03  2.43893E+03  1.46732E+03  2.14768E+03
 -1.49246E+03  3.61391E+03 -2.96252E+03  4.64618E+03 -4.24397E+03  1.58782E+03 -5.12114E+03 -6.73087E+02
 -2.17217E+03 -4.44140E+03  8.26148E+02 -5.60991E+03  2.43750E+03 -3.14799E+03  3.92274E+03 -1.09044E+03
  3.12243E+03  2.16197E+03  3.40711E+02  2.84555E+03 -1.07719E+03  1.40955E+03 -1.40972E+03  2.74287E+01
 -6.94817E+02 -1.69078E+03  1.39689E+03 -2.39719E+03  1.54792E+03 -1.05079E+03  1.89402E+03  4.17475E+02
  7.91034E+02  5.17905E+02  6.48067E+02 -7.01279E+01 -2.72095E+02  8.57897E+02  1.68315E+03 -6.13330E+02
 -8.21563E+00 -1.60663E+02  2.13192E+03  1.00432E+03  4.62916E+02  2.90471E+03 -4.14786E+02  3.41905E+03
 -1.62059E+03  1.41566E+03 -2.83944E+03  3.89787E+02 -2.75567E+03 -9.13879E+02 -5.04522E+02 -1.19001E+03
  1.98147E+02 -1.59452E+03  1.11045E+03 -8.05222E+02  1.03925E+03  1.55431E+03 -8.73991E+02  1.71141E+03
 -1.78885E+03  9.72577E+02 -1.63465E+03 -1.49860E+03 -1.18387E+03 -2.78689E+03  2.69602E+02 -1.83876E+03
  1.10164E+03 -1.03028E+03  9.27075E+02 -6.53570E+00  1.61364E+03 -4.62832E+01  5.41674E+02  1.16363E+03
 -4.34140E+02  3.24731E+02 -1.17498E+03 -4.68381E+02  5.13138E+02 -1.04185E+03  1.98778E+03 -1.31051E+03
  1.61091E+03  1.92568E+02  3.42810E+03  9.58079E+02  1.18362E+03  2.25460E+03 -4.45735E+02  2.19203E+03
 -1.92198E+03  4.55945E+02 -2.12451E+03 -2.45899E+02 -1.32332E+03 -1.62592E+03  5.86750E+02 -9.55188E+02
  1.92599E+03 -9.34234E+02  1.09796E+03  8.17503E+02  3.62889E+02  1.71247E+03 -1.12826E+02  1.29282E+03
 -6.45270E+02  1.09684E+03 -3.59208E+02  2.23037E+02 -8.05941E+01  2.28121E+02 -7.69585E+02  6.23394E+02
 -9.12750E+02  1.22890E+03 -2.13015E+03  7.05509E+02 -2.47484E+03 -5.21108E+01 -2.98146E+03 -1.36361E+03
 -1.41993E+03 -3.03053E+03  6.40472E+02 -3.70034E+03  1.57126E+03 -3.06763E+03  3.75666E+03 -1.25661E+03
  2.85418E+03 -2.78178E+01  1.59313E+03  2.10259E+03 -4.80959E+02  1.92382E+03 -8.01825E+02  1.82592E+03
 -1.03639E+03  1.09694E+03 -9.79835E+02 -4.23324E+02 -5.91374E+02  1.87753E+02 -5.40351E+02 -4.77643E+01
 -1.05518E+03 -5.56913E+01 -1.00813E+03 -8.77029E+01  5.52820E+01 -6.54787E+02 -3.11826E+02 -1.05005E+03
  1.80109E+03 -6.08300E+02  6.39759E+02  8.19731E+01  1.47445E+03  1.37254E+03 -3.26707E+02  1.75550E+03
 -1.52942E+03  3.11305E+03 -2.22249E+03  1.33742E+03 -2.43395E+03 -1.28005E+02 -1.63419E+03 -1.57179E+03
 -9.18258E+02 -1.95313E+03  5.81886E+02 -1.62808E+03  1.10144E+03 -1.14228E+03  1.17164E+03  3.28287E+02
  1.10152E+03  4.95189E+02  1.77729E+02  6.27007E+02 -4.35559E+02 -1.44167E+02 -1.39841E+01 -1.73869E+02
  4.91427E+02  9.87859E+01  4.42972E+02  5.32444E+02  3.65056E+02  8.37076E+02  3.60493E+02  6.30772E+02
 -9.23677E+02  5.85154E+02 -7.85609E+02  3.46143E+02 -8.64259E+02 -7.38185E+02 -1.67620E+02 -1.57535E+03
  6.51384E+02 -1.25567E+03  8.29216E+02 -1.05962E+02  1.48626E+03 -2.61951E+02  8.84915E+02  1.26535E+03
  4.37752E+02  9.51157E+02 -2.50458E+02  1.01555E+03 -8.75481E+02  8.24006E+02 -6.84401E+02  7.01814E+01
 -3.08842E+02  2.12473E+02 -4.87055E+02  4.35456E+02 -8.23177E+02  2.15180E+02 -1.26134E+03 -3.57972E+02
 -1.21415E+03  7.12718E+01 -3.55590E+02 -1.25154E+03  8.57394E+02 -1.97513E+03  1.13611E+03 -3.26593E+02
  9.73446E+02  3.05591E+02 -7.06402E+01  5.04873E+02 -1.44711E+02  1.02055E+03 -7.86488E+02  6.87471E+02
