 $NMID ID='MM_0lb_SNR800_12hz_g55_70.RAW', FMTDAT='(8E13.5)'
 TRAMP=1., VOLUME=1. $END
  3.09898E+05  4.69238E+02  3.38081E+05  2.50625E+05  8.47624E+04  3.38191E+05 -1.32750E+05  2.51499E+05
 -1.90532E+05  8.34591E+04 -1.12423E+05 -3.26138E+04  7.84211E+02 -5.03312E+04  5.38202E+04 -2.14065E+02
  3.56168E+04  5.24942E+04 -1.67098E+04  7.59362E+04 -6.10559E+04  6.42645E+04 -8.47601E+04  3.23218E+04
 -8.18257E+04 -1.15702E+04 -5.76533E+04 -5.17833E+04 -1.54581E+04 -7.03958E+04  2.77187E+04 -4.61806E+04
  4.05391E+04  3.70924E+03  1.62451E+04  4.81423E+04 -3.46248E+04  4.77247E+04 -6.74121E+04 -9.59387E+01
 -5.44084E+04 -5.74529E+04 -7.15922E+03 -7.85129E+04  3.43256E+04 -5.61162E+04  4.88705E+04 -1.78399E+04
  4.48902E+04  1.15905E+04  3.24325E+04  2.63897E+04  1.60348E+04  3.01755E+04 -5.30276E+03  2.77318E+04
 -2.19785E+04  1.19687E+04 -1.80692E+04 -5.49496E+03  6.59141E+03 -7.67351E+03  2.30021E+04  1.31689E+04
  7.01772E+03  3.64269E+04 -3.30746E+04  3.64875E+04 -6.48189E+04  2.55765E+03 -5.81483E+04 -4.40818E+04
 -1.23948E+04 -6.44683E+04  4.07950E+04 -4.64499E+04  5.99288E+04 -2.09791E+03  3.57627E+04  3.38304E+04
 -5.71876E+03  3.78912E+04 -3.11475E+04  1.75345E+04 -3.17820E+04 -3.91153E+03 -1.83739E+04 -1.19432E+04
 -8.96995E+03 -1.42049E+04 -1.98473E+02 -1.86575E+04  8.00561E+03 -2.35023E+04  1.54390E+04 -1.27699E+04
  1.07649E+04  5.54443E+03 -9.80855E+03  1.32782E+04 -2.23000E+04 -5.61641E+03 -8.79068E+03 -3.55514E+04
  2.42035E+04 -4.51865E+04  5.00708E+04 -2.03032E+04  4.69677E+04  2.02575E+04  1.63280E+04  4.58228E+04
 -1.63695E+04  3.49284E+04 -2.62422E+04  2.09474E+03 -1.08558E+04 -2.88282E+04  2.12474E+04 -3.54280E+04
  4.29482E+04 -9.98856E+03  3.84135E+04  2.47806E+04  1.97562E+04  4.91608E+04 -8.12929E+03  5.34126E+04
 -3.40810E+04  3.62054E+04 -4.51575E+04  1.04088E+04 -4.51961E+04 -1.74638E+04 -2.46859E+04 -4.03301E+04
  8.02130E+03 -3.99704E+04  3.28547E+04 -1.58627E+04  3.05249E+04  1.12212E+04  4.61112E+03  1.99386E+04
 -1.40385E+04  8.82340E+03 -1.07476E+04 -7.69849E+03  5.99098E+03 -1.10058E+04  1.86198E+04  5.95980E+03
  1.44882E+04  2.23744E+04 -5.35980E+03  2.59552E+04 -2.31054E+04  1.29442E+04 -2.98525E+04 -3.91673E+03
 -2.28740E+04 -1.78557E+04 -1.01299E+04 -2.26944E+04  3.79378E+03 -2.28744E+04  1.79284E+04 -2.03504E+04
  2.93567E+04 -1.36806E+04  3.55622E+04  4.00732E+03  2.54744E+04  2.23603E+04  4.09315E+03  3.85255E+04
 -1.87968E+04  3.20054E+04 -2.94865E+04  1.07747E+04 -2.15917E+04 -1.02139E+04 -4.66227E+03 -1.30619E+04
  1.06151E+03 -1.89594E+03 -6.37415E+03  7.61301E+03 -1.81162E+04  5.08824E+03 -1.82530E+04 -8.25883E+03
 -1.07824E+04 -2.08997E+04  5.87593E+03 -2.56777E+04  1.74125E+04 -1.81512E+04  2.05302E+04 -1.97536E+03
  1.31452E+04  1.47880E+04 -8.66535E+02  2.13130E+04 -1.46752E+04  1.23420E+04 -2.11663E+04 -4.27733E+03
 -1.55895E+04 -1.91867E+04 -1.91426E+03 -2.59556E+04  1.16231E+04 -2.10498E+04  2.12246E+04 -1.04307E+04
  1.95509E+04  1.74529E+02  1.41750E+04  4.64308E+03  7.73743E+03  1.34957E+03  1.11191E+04 -2.09990E+03
  1.98138E+04  3.01696E+03  2.25214E+04  1.64958E+04  1.48032E+04  3.39804E+04 -2.50083E+03  3.91354E+04
 -2.23941E+04  3.21884E+04 -3.66643E+04  1.63821E+04 -3.89821E+04 -3.42988E+03 -3.20029E+04 -2.27558E+04
 -1.33513E+04 -3.24204E+04  1.10846E+04 -2.85735E+04  2.46731E+04 -1.41209E+04  2.20152E+04  6.50359E+03
  7.73820E+03  1.65971E+04 -1.00127E+04  1.40187E+04 -1.82772E+04  2.32887E+03 -1.39552E+04 -1.14145E+04
 -8.79624E+01 -1.71636E+04  9.23532E+03 -1.32380E+04  1.15449E+04 -1.42515E+03  2.56455E+03  7.64007E+03
 -7.57963E+03  3.38521E+03 -7.61241E+03 -6.16484E+03 -1.10062E+03 -1.57301E+04  1.06360E+04 -1.70260E+04
  1.97084E+04 -9.07678E+03  2.20955E+04  3.28939E+03  1.92646E+04  1.58779E+04  9.05855E+03  2.49311E+04
 -4.26757E+03  2.64303E+04 -1.69454E+04  1.64838E+04 -1.89748E+04  3.46586E+03 -1.35991E+04 -4.72965E+03
 -6.13291E+03 -5.94889E+03 -9.73450E+02  8.58639E+02 -2.55383E+03  3.16671E+03 -6.18303E+03  4.73465E+03
 -1.22118E+04 -8.61500E+02 -1.29821E+04 -1.03001E+04 -5.21713E+03 -1.69814E+04  5.39739E+03 -1.36341E+04
  1.12311E+04 -5.59627E+03  8.04746E+03  3.39972E+03  2.37792E+02  5.33733E+03 -6.26339E+03 -1.72268E+02
 -6.06180E+03 -8.57083E+03 -5.90945E+02 -1.30780E+04  7.30544E+03 -1.39431E+04  1.69094E+04 -7.13307E+03
  1.93862E+04  2.05748E+03  1.43200E+04  1.13732E+04  2.89290E+03  1.58005E+04 -8.27056E+03  1.30982E+04
 -1.08659E+04  4.09388E+03 -5.48966E+03 -2.40389E+03  2.32802E+03 -3.33351E+03  6.95622E+03 -4.66434E+02
  6.25346E+03  6.16630E+03  1.09964E+03  1.07266E+04 -7.60278E+03  1.02648E+04 -1.34986E+04  2.44651E+03
 -9.07780E+03 -6.60729E+03  2.29818E+02 -1.14468E+04  6.99261E+03 -5.61574E+03  7.55663E+03  2.46873E+03
  1.52294E+03  7.92560E+03 -7.00733E+03  9.55922E+03 -1.07290E+04  4.54144E+03 -1.10651E+04 -3.58439E+03
 -6.58899E+03 -1.24961E+04  2.83426E+03 -1.44502E+04  1.18592E+04 -8.45031E+03  1.32457E+04  2.15926E+03
  8.20326E+03  1.06726E+04 -1.09141E+03  1.28797E+04 -9.55056E+03  7.21858E+03 -1.00154E+04 -1.12463E+03
 -8.84217E+03 -8.60974E+03 -1.96591E+03 -9.70190E+03  5.07151E+03 -7.93608E+03  6.26796E+03 -3.51459E+03
  4.11793E+03  1.29894E+03 -8.89657E+02  1.67140E+03  6.64803E+01 -2.48522E+03  1.76154E+03 -5.30430E+03
  8.84710E+03 -3.29565E+03  1.22300E+04  1.28526E+03  1.19577E+04  8.64580E+03  8.38165E+03  1.60008E+04
 -3.43244E+03  1.84265E+04 -1.57765E+04  1.32853E+04 -2.01144E+04  2.42481E+03 -1.62418E+04 -7.09650E+03
 -8.01492E+03 -1.33536E+04 -7.39921E+02 -1.13633E+04  3.78144E+03 -6.08929E+03  4.03913E+03 -3.89613E+03
  3.27887E+03 -2.50877E+03  3.24707E+03 -3.50427E+03  4.92816E+03 -2.73649E+03  5.98972E+03 -4.34530E+02
  8.30647E+03  1.98284E+03  4.36521E+03  7.35302E+03 -1.82159E+03  8.07442E+03 -8.72629E+03  6.21285E+03
 -1.12085E+04 -1.13821E+03 -6.38876E+03 -7.76813E+03 -9.67551E+02 -1.17987E+04  6.62113E+03 -1.16192E+04
  1.20993E+04 -7.02055E+03  1.50312E+04  1.81399E+03  1.07607E+04  9.98996E+03  1.82972E+03  1.33112E+04
 -5.29658E+03  1.10364E+04 -7.71354E+03  3.68725E+03 -5.09807E+03 -1.41130E+03 -2.03715E+03 -1.79627E+03
 -1.17525E+03  3.33187E+02 -2.22093E+03  2.50072E+03 -4.76786E+03  1.79325E+03 -7.81472E+03 -9.80616E+02
 -5.24044E+03 -7.89487E+03  5.52813E+02 -1.07426E+04  6.75480E+03 -9.84348E+03  1.03235E+04 -3.25226E+03
  1.06778E+04  5.29243E+03  4.68288E+03  9.52827E+03 -2.03990E+03  1.06991E+04 -7.19417E+03  6.79734E+03
 -9.93209E+03  3.05542E+02 -7.79404E+03 -6.47022E+03 -8.50393E+02 -8.93194E+03  4.06341E+03 -6.69251E+03
  6.75456E+03 -2.50762E+03  4.66666E+03  1.56467E+03  1.37147E+03  3.43147E+03  1.34785E+03  1.56758E+03
  2.49111E+03  8.51786E+02  2.55048E+03  1.29097E+03  3.17217E+03  4.04196E+03  2.76329E+03  5.90776E+03
 -2.13679E+03  8.13596E+03 -7.24968E+03  8.76460E+03 -1.03474E+04  2.13902E+03 -1.11807E+04 -4.11610E+03
 -5.45015E+03 -1.07369E+04  1.47123E+03 -1.19639E+04  6.19104E+03 -7.24687E+03  8.32774E+03 -2.16962E+03
  6.60942E+03  4.15010E+03  1.48128E+03  6.16380E+03 -2.70678E+03  3.78412E+03 -4.17337E+03 -5.89097E+02
 -2.01541E+03 -4.41131E+03  2.40015E+03 -4.46724E+03  4.35758E+03 -2.27644E+03  3.91602E+03  5.71279E+02
  2.50315E+03  2.04827E+03  1.17609E+03  1.45337E+03 -5.21693E+02  1.64060E+03  1.79793E+03 -6.62545E+02
  1.29366E+03 -5.36215E+02  4.58949E+03  1.30561E+03  1.83774E+03  5.95958E+03 -7.32048E+02  7.34195E+03
 -4.92622E+03  4.43397E+03 -6.60925E+03  1.32239E+03 -5.80470E+03 -2.13160E+03 -1.92145E+03 -3.99931E+03
  5.80410E+02 -3.87540E+03  2.63282E+03 -2.08180E+03  1.69573E+03  2.11710E+03 -9.05439E+02  3.30739E+03
 -4.45383E+03  1.71136E+03 -4.89407E+03 -2.60908E+03 -3.01300E+03 -5.80361E+03  7.65955E+02 -5.55133E+03
  3.14451E+03 -2.99499E+03  4.18196E+03 -2.69354E+02  3.21743E+03  9.29950E+02  7.37558E+02  3.05282E+03
 -1.84669E+03  7.31273E+02 -2.53826E+03 -1.81232E+03  1.25781E+03 -3.79775E+03  4.88026E+03 -3.22239E+03
  5.77685E+03  5.45315E+02  6.27555E+03  4.42782E+03  2.06278E+03  6.66491E+03 -2.12945E+03  6.13004E+03
 -5.31674E+03  2.38569E+03 -5.58901E+03 -5.09876E+02 -3.12303E+03 -4.46737E+03  1.29373E+03 -3.65314E+03
  4.34249E+03 -1.89479E+03  3.43966E+03  1.55050E+03  1.01651E+03  3.95002E+03 -3.59888E+02  3.06525E+03
 -1.90857E+03  2.05531E+03 -1.46110E+03  5.76510E+02 -5.60252E+02  1.06813E+03 -8.55056E+02  1.30497E+03
 -2.03370E+03  2.69251E+03 -4.23934E+03  2.08463E+03 -5.99611E+03  6.49789E+02 -7.23386E+03 -3.88630E+03
 -3.67380E+03 -8.26301E+03  1.75402E+03 -9.82662E+03  5.22268E+03 -7.29608E+03  9.30630E+03 -3.09630E+03
  8.36661E+03  1.47222E+03  5.04898E+03  5.88784E+03  3.59733E+02  6.24067E+03 -2.55330E+03  4.87379E+03
 -3.67299E+03  1.55864E+03 -2.02156E+03 -5.12708E+02 -8.55562E+02 -5.25246E+02 -7.23796E+02  1.59785E+02
 -1.53519E+03  4.75317E+01 -1.61701E+03 -2.15559E+02 -3.60111E+02 -1.51369E+03  8.91814E+01 -2.50008E+03
  2.84200E+03 -2.04795E+03  3.84467E+03  5.09166E+01  4.58385E+03  3.59765E+03  6.31063E+02  6.07323E+03
 -3.08570E+03  7.53213E+03 -6.64702E+03  4.20312E+03 -7.16734E+03 -5.24242E+02 -5.83140E+03 -4.58577E+03
 -2.90562E+03 -5.85814E+03  1.70946E+03 -5.57850E+03  3.69010E+03 -2.88000E+03  3.92679E+03  1.96907E+02
  2.48015E+03  2.16810E+03 -8.27785E+01  1.76965E+03 -1.18238E+03 -8.49135E+01  1.69001E+02 -1.70272E+03
  1.77017E+03 -6.17197E+02  2.08491E+03  9.85367E+02  1.53797E+03  2.13176E+03 -3.84662E+01  2.86726E+03
 -2.43007E+03  2.90054E+03 -3.67826E+03  7.35393E+01 -3.71625E+03 -2.56850E+03 -3.21328E+02 -4.79073E+03
  2.85949E+03 -3.82992E+03  4.23536E+03 -8.43169E+02  4.55534E+03  7.44424E+02  2.64755E+03  3.48243E+03
  1.05283E+03  3.51863E+03 -1.91271E+03  2.87847E+03 -2.26165E+03  1.87233E+03 -2.23358E+03  3.38184E+02
 -1.09731E+03 -1.77024E+01 -1.14884E+03  6.16255E+02 -2.19758E+03  6.59535E+02 -2.96595E+03 -8.43425E+02
 -3.07993E+03 -1.49948E+03 -1.15411E+03 -3.67027E+03  1.98174E+03 -4.63432E+03  3.51846E+03 -1.44254E+03
  3.91878E+03  7.36904E+02  1.48827E+03  2.10580E+03 -3.28673E+01  4.11952E+03 -2.84202E+03  2.52717E+03
