 $NMID ID='MM_0lb_SNR800_13hz_g55_24.RAW', FMTDAT='(8E13.5)'
 TRAMP=1., VOLUME=1. $END
  3.10012E+05  9.77525E+01  3.37705E+05  2.50435E+05  8.46683E+04  3.38304E+05 -1.32587E+05  2.51437E+05
 -1.90390E+05  8.33360E+04 -1.11910E+05 -3.23737E+04  3.71182E+02 -5.04516E+04  5.39467E+04 -2.40994E+02
  3.52580E+04  5.28364E+04 -1.66591E+04  7.59136E+04 -6.08125E+04  6.37685E+04 -8.50883E+04  3.20861E+04
 -8.18054E+04 -1.16091E+04 -5.71807E+04 -5.16435E+04 -1.54697E+04 -6.99149E+04  2.78652E+04 -4.61816E+04
  4.07211E+04  4.10121E+03  1.64202E+04  4.80737E+04 -3.45676E+04  4.73256E+04 -6.71929E+04  3.29131E+01
 -5.36425E+04 -5.70069E+04 -7.15926E+03 -7.78535E+04  3.43197E+04 -5.56450E+04  4.86439E+04 -1.76264E+04
  4.41865E+04  1.10217E+04  3.22521E+04  2.59037E+04  1.59583E+04  2.98879E+04 -5.50956E+03  2.76643E+04
 -2.20422E+04  1.23282E+04 -1.81869E+04 -5.32761E+03  6.06014E+03 -7.32558E+03  2.25409E+04  1.30381E+04
  7.22408E+03  3.61729E+04 -3.26712E+04  3.60811E+04 -6.43688E+04  2.29066E+03 -5.80215E+04 -4.31568E+04
 -1.26054E+04 -6.41627E+04  4.04187E+04 -4.61006E+04  5.93923E+04 -2.34121E+03  3.53025E+04  3.31489E+04
 -5.68683E+03  3.72792E+04 -3.07359E+04  1.72499E+04 -3.14881E+04 -4.04703E+03 -1.75474E+04 -1.11491E+04
 -8.56113E+03 -1.39689E+04 -6.56991E+02 -1.85713E+04  7.75107E+03 -2.32694E+04  1.54505E+04 -1.29349E+04
  1.09314E+04  5.42142E+03 -8.99222E+03  1.26992E+04 -2.22780E+04 -5.14445E+03 -8.24393E+03 -3.53914E+04
  2.35877E+04 -4.45132E+04  4.94009E+04 -2.03866E+04  4.62562E+04  2.02070E+04  1.63306E+04  4.52448E+04
 -1.63574E+04  3.42315E+04 -2.61220E+04  2.37277E+03 -1.05943E+04 -2.84684E+04  2.14687E+04 -3.51009E+04
  4.23011E+04 -1.00186E+04  3.72622E+04  2.41478E+04  1.95597E+04  4.82007E+04 -8.19498E+03  5.24679E+04
 -3.29271E+04  3.54364E+04 -4.41860E+04  1.02524E+04 -4.47762E+04 -1.74717E+04 -2.41889E+04 -3.96440E+04
  7.45131E+03 -3.94228E+04  3.21292E+04 -1.57388E+04  3.04178E+04  1.14029E+04  4.41343E+03  1.95357E+04
 -1.36123E+04  8.71557E+03 -1.06968E+04 -7.55773E+03  6.07099E+03 -1.07104E+04  1.83058E+04  5.99512E+03
  1.37066E+04  2.23472E+04 -5.74785E+03  2.56782E+04 -2.29293E+04  1.21597E+04 -2.92784E+04 -4.45278E+03
 -2.21990E+04 -1.77188E+04 -9.39706E+03 -2.19784E+04  4.38956E+03 -2.15738E+04  1.73261E+04 -1.96210E+04
  2.81671E+04 -1.33785E+04  3.47103E+04  3.04925E+03  2.49116E+04  2.14876E+04  4.32397E+03  3.80442E+04
 -1.83987E+04  3.14974E+04 -2.88348E+04  1.11782E+04 -2.16567E+04 -1.00650E+04 -4.52649E+03 -1.31098E+04
  1.20980E+03 -2.35261E+03 -5.80140E+03  7.36946E+03 -1.74297E+04  5.12182E+03 -1.73802E+04 -7.86971E+03
 -1.06989E+04 -2.01595E+04  5.47891E+03 -2.46520E+04  1.65130E+04 -1.75057E+04  1.94860E+04 -1.49510E+03
  1.22782E+04  1.44991E+04 -1.23363E+03  2.04623E+04 -1.40351E+04  1.15204E+04 -2.06541E+04 -4.32101E+03
 -1.51345E+04 -1.83825E+04 -1.98167E+03 -2.43944E+04  1.13219E+04 -2.03468E+04  2.03082E+04 -1.02927E+04
  1.93568E+04  5.24525E+01  1.38841E+04  4.30349E+03  7.28245E+03  9.67647E+02  1.04381E+04 -2.10993E+03
  1.87375E+04  2.77116E+03  2.09859E+04  1.62500E+04  1.43422E+04  3.24456E+04 -2.85367E+03  3.75136E+04
 -2.14666E+04  3.05119E+04 -3.48796E+04  1.52771E+04 -3.67443E+04 -2.87755E+03 -3.04954E+04 -2.12872E+04
 -1.27880E+04 -3.04131E+04  1.08153E+04 -2.73443E+04  2.34743E+04 -1.34984E+04  2.06340E+04  6.34025E+03
  7.53398E+03  1.56174E+04 -9.99321E+03  1.33949E+04 -1.75338E+04  2.76194E+03 -1.34804E+04 -1.10407E+04
 -1.52254E+02 -1.67882E+04  8.66579E+03 -1.20181E+04  1.09870E+04 -1.48697E+03  2.58987E+03  7.10617E+03
 -7.45004E+03  3.21172E+03 -7.31673E+03 -6.02972E+03 -8.60722E+02 -1.49979E+04  1.01959E+04 -1.56804E+04
  1.87381E+04 -8.15277E+03  2.05701E+04  3.23621E+03  1.77740E+04  1.47607E+04  8.31454E+03  2.27846E+04
 -3.85812E+03  2.46750E+04 -1.59413E+04  1.54563E+04 -1.77897E+04  3.81920E+03 -1.23799E+04 -4.13724E+03
 -5.86237E+03 -5.62653E+03 -6.41820E+02  6.18451E+02 -2.09700E+03  2.79213E+03 -6.04554E+03  4.62106E+03
 -1.13190E+04 -8.97089E+02 -1.19964E+04 -9.97316E+03 -4.94807E+03 -1.59804E+04  5.40979E+03 -1.23505E+04
  1.03615E+04 -5.43599E+03  7.44242E+03  3.60322E+03  7.27139E+01  5.07126E+03 -5.94130E+03 -2.29954E+02
 -5.77090E+03 -7.96606E+03 -8.25855E+02 -1.20828E+04  7.02687E+03 -1.26201E+04  1.55515E+04 -6.73441E+03
  1.81376E+04  1.67123E+03  1.36307E+04  1.06022E+04  2.61780E+03  1.46897E+04 -7.78942E+03  1.26766E+04
 -1.00268E+04  3.81669E+03 -5.45069E+03 -2.56624E+03  1.83633E+03 -3.55855E+03  6.92433E+03 -7.89199E+02
  6.03919E+03  5.26612E+03  1.28037E+03  9.79743E+03 -6.95033E+03  9.34336E+03 -1.24233E+04  2.52978E+03
 -8.00257E+03 -6.00046E+03  3.59310E+02 -1.06892E+04  6.63667E+03 -5.35820E+03  6.58395E+03  2.69178E+03
  1.64395E+03  6.91355E+03 -6.14524E+03  8.80211E+03 -9.64125E+03  3.71620E+03 -9.39633E+03 -3.37007E+03
 -5.55214E+03 -1.08469E+04  2.84347E+03 -1.34300E+04  1.13190E+04 -7.75606E+03  1.18699E+04  1.64297E+03
  7.85965E+03  1.00047E+04 -4.73130E+02  1.17176E+04 -8.82642E+03  6.69533E+03 -9.44330E+03 -1.06948E+03
 -8.50353E+03 -7.88333E+03 -1.67200E+03 -8.35318E+03  4.40898E+03 -7.37329E+03  5.60457E+03 -3.28890E+03
  3.66423E+03  1.19361E+03 -6.98597E+02  1.74262E+03  3.09801E+02 -1.93931E+03  1.34152E+03 -4.69188E+03
  7.96808E+03 -2.95761E+03  1.10571E+04  1.22739E+03  1.09323E+04  7.23293E+03  7.73151E+03  1.45253E+04
 -3.21067E+03  1.68535E+04 -1.41641E+04  1.22628E+04 -1.83081E+04  2.28611E+03 -1.45693E+04 -5.86145E+03
 -7.21739E+03 -1.22338E+04 -6.73089E+01 -1.04289E+04  3.90090E+03 -5.33535E+03  3.58365E+03 -3.55779E+03
  2.40820E+03 -2.17792E+03  3.15682E+03 -2.94598E+03  4.72343E+03 -2.69223E+03  6.03224E+03 -4.83067E+02
  7.67197E+03  1.85881E+03  3.53672E+03  6.47035E+03 -1.92921E+03  7.14538E+03 -8.01306E+03  5.44071E+03
 -1.01403E+04 -1.01823E+03 -5.81438E+03 -6.81609E+03 -5.99678E+02 -1.06442E+04  5.86684E+03 -1.05553E+04
  1.09218E+04 -6.01542E+03  1.32737E+04  1.73976E+03  9.11266E+03  9.04423E+03  1.59466E+03  1.19471E+04
 -4.81782E+03  1.01504E+04 -6.85217E+03  3.74214E+03 -4.53353E+03 -1.25251E+03 -2.12496E+03 -1.54280E+03
 -1.06286E+03  1.27943E+02 -1.62320E+03  2.75086E+03 -4.17893E+03  1.80066E+03 -7.24430E+03 -1.26523E+03
 -4.32910E+03 -6.85438E+03  3.21046E+02 -9.59429E+03  5.97371E+03 -8.89756E+03  9.38188E+03 -2.68191E+03
  9.40395E+03  4.70128E+03  4.27903E+03  8.30633E+03 -1.81424E+03  9.84967E+03 -6.63213E+03  5.86476E+03
 -8.75025E+03  4.98090E+02 -7.10078E+03 -5.65017E+03 -9.34953E+02 -7.75790E+03  3.88159E+03 -5.72212E+03
  6.07767E+03 -2.34966E+03  4.40591E+03  1.76822E+03  1.74961E+03  2.75997E+03  9.44430E+02  1.26902E+03
  2.20700E+03  9.97132E+02  2.47097E+03  1.28986E+03  2.70417E+03  3.90580E+03  2.24874E+03  4.62517E+03
 -2.20337E+03  7.01175E+03 -6.35137E+03  7.48161E+03 -8.84055E+03  2.05638E+03 -9.71670E+03 -3.33205E+03
 -4.52258E+03 -8.99051E+03  1.52178E+03 -1.00332E+04  5.52389E+03 -6.07975E+03  7.39904E+03 -1.97983E+03
  5.70206E+03  3.57896E+03  1.47680E+03  5.55436E+03 -2.44237E+03  3.14697E+03 -3.49861E+03 -5.06001E+02
 -1.77056E+03 -3.93528E+03  2.36459E+03 -3.79283E+03  3.51773E+03 -1.93933E+03  3.52985E+03  1.04528E+03
  2.06307E+03  1.71469E+03  1.11330E+03  1.06943E+03 -7.01043E+02  1.34487E+03  1.94590E+03 -4.79984E+02
  6.56515E+02 -2.52541E+02  3.81351E+03  1.33549E+03  2.07468E+03  4.85111E+03 -6.56858E+02  6.25640E+03
 -4.22026E+03  3.63114E+03 -5.01141E+03  1.26402E+03 -4.95708E+03 -1.52250E+03 -1.51398E+03 -3.04333E+03
  7.92519E+02 -3.37773E+03  2.63154E+03 -1.66073E+03  2.15547E+03  1.84044E+03 -1.11867E+03  3.15180E+03
 -3.78304E+03  2.00164E+03 -3.67062E+03 -2.48516E+03 -2.53302E+03 -4.79985E+03  7.84958E+02 -4.68526E+03
  2.53268E+03 -2.43984E+03  3.43392E+03  8.62087E+01  2.80472E+03  1.03114E+03  7.49582E+02  2.76976E+03
 -1.35586E+03  4.98880E+02 -2.37362E+03 -1.59007E+03  7.44447E+02 -2.92700E+03  4.10320E+03 -2.43954E+03
  4.90855E+03  3.97043E+02  5.33072E+03  3.29709E+03  2.09667E+03  5.13260E+03 -1.67629E+03  4.92235E+03
 -4.10462E+03  1.87959E+03 -4.50566E+03 -7.23300E+02 -2.21229E+03 -3.59815E+03  9.26716E+02 -2.82267E+03
  3.48114E+03 -1.96676E+03  2.49600E+03  1.44279E+03  9.77351E+02  2.82829E+03 -2.76884E+02  2.71831E+03
 -1.28705E+03  2.05087E+03 -1.03670E+03  5.83957E+02 -8.17065E+02  6.15110E+02 -1.07570E+03  1.23344E+03
 -1.67537E+03  2.12837E+03 -3.72744E+03  1.75331E+03 -4.93032E+03 -1.71586E+01 -5.92402E+03 -3.49168E+03
 -3.14867E+03 -6.54614E+03  1.30015E+03 -7.95607E+03  4.57097E+03 -6.31469E+03  7.44195E+03 -2.22807E+03
  7.14035E+03  1.05745E+03  4.15776E+03  4.97115E+03  1.74970E+02  5.46376E+03 -2.20424E+03  4.02401E+03
 -3.14994E+03  1.97219E+03 -1.63763E+03 -6.14073E+02 -6.19852E+02 -4.80894E+02 -7.48830E+02  1.68810E+02
 -1.53606E+03 -4.20148E+01 -1.50338E+03 -2.83822E+01 -5.31032E+02 -1.23130E+03 -3.79146E+02 -1.90437E+03
  2.45834E+03 -1.75823E+03  2.63350E+03  4.95615E+02  3.41196E+03  2.59878E+03  3.87471E+02  4.91243E+03
 -2.47524E+03  6.01576E+03 -4.98743E+03  3.28037E+03 -5.85604E+03 -4.97913E+02 -4.65345E+03 -4.09858E+03
 -2.27000E+03 -4.96257E+03  1.00540E+03 -4.65436E+03  3.02306E+03 -2.51635E+03  3.09657E+03  4.09683E+02
  1.71855E+03  1.63302E+03 -2.08330E+01  1.32966E+03 -6.16825E+02 -5.18371E+01  5.69886E+01 -1.17494E+03
  1.58456E+03 -4.82682E+02  1.79061E+03  7.70065E+02  1.22424E+03  2.18529E+03  7.30610E+02  2.35414E+03
 -2.36187E+03  2.01492E+03 -3.02975E+03  4.05416E+02 -2.90779E+03 -2.28166E+03 -3.31205E+02 -3.98743E+03
  2.21664E+03 -2.98082E+03  3.27046E+03 -5.97013E+02  3.70432E+03  6.36102E+02  2.42935E+03  2.80713E+03
  4.14493E+02  2.80736E+03 -1.00839E+03  2.43710E+03 -2.23208E+03  1.94127E+03 -1.60656E+03  2.40519E+02
 -9.12623E+02 -2.17961E+02 -1.03904E+03  5.08215E+02 -1.54997E+03  2.92206E+02 -2.63079E+03 -3.28907E+01
 -2.66212E+03 -1.25379E+03 -9.02811E+02 -2.93689E+03  1.63480E+03 -3.65298E+03  2.36073E+03 -1.68482E+03
  3.15150E+03  1.86463E+02  1.17779E+03  1.76254E+03 -1.77161E+02  3.22734E+03 -2.22624E+03  2.13460E+03
