 $NMID ID='MM_0lb_SNR800_10hz_g60_100.RAW', FMTDAT='(8E13.5)'
 TRAMP=1., VOLUME=1. $END
  3.09591E+05  8.14131E+02  3.38051E+05  2.50762E+05  8.50073E+04  3.38228E+05 -1.32788E+05  2.51848E+05
 -1.90661E+05  8.39606E+04 -1.12674E+05 -3.23856E+04  1.52650E+02 -5.07733E+04  5.36174E+04 -7.69047E+02
  3.56131E+04  5.29674E+04 -1.65813E+04  7.62332E+04 -6.13178E+04  6.44074E+04 -8.54189E+04  3.23536E+04
 -8.26737E+04 -1.18187E+04 -5.86093E+04 -5.28274E+04 -1.48777E+04 -7.11473E+04  2.79490E+04 -4.70127E+04
  4.10529E+04  3.88300E+03  1.65643E+04  4.85627E+04 -3.47948E+04  4.84588E+04 -6.82775E+04  3.95999E+01
 -5.47037E+04 -5.78763E+04 -7.28479E+03 -7.92505E+04  3.48090E+04 -5.68995E+04  4.95679E+04 -1.85713E+04
  4.55281E+04  1.13775E+04  3.28915E+04  2.68844E+04  1.59409E+04  3.07390E+04 -5.88875E+03  2.74733E+04
 -2.28638E+04  1.21689E+04 -1.80019E+04 -5.89036E+03  7.22922E+03 -7.24239E+03  2.38596E+04  1.37144E+04
  6.92974E+03  3.71737E+04 -3.38923E+04  3.74741E+04 -6.56445E+04  2.12861E+03 -5.94105E+04 -4.47374E+04
 -1.25307E+04 -6.60398E+04  4.16257E+04 -4.76008E+04  6.11949E+04 -2.99961E+03  3.69991E+04  3.42563E+04
 -5.45826E+03  3.94023E+04 -3.19426E+04  1.88552E+04 -3.32376E+04 -3.19008E+03 -1.97035E+04 -1.19483E+04
 -9.63227E+03 -1.53069E+04 -6.02890E+02 -1.97325E+04  8.55106E+03 -2.38060E+04  1.58454E+04 -1.23134E+04
  1.06708E+04  6.07297E+03 -1.07208E+04  1.34022E+04 -2.34720E+04 -6.81593E+03 -8.70428E+03 -3.77374E+04
  2.55201E+04 -4.67988E+04  5.26375E+04 -2.07794E+04  4.88888E+04  2.10145E+04  1.74078E+04  4.71864E+04
 -1.66845E+04  3.64293E+04 -2.78160E+04  2.74942E+03 -1.15260E+04 -2.94514E+04  2.14984E+04 -3.71184E+04
  4.47318E+04 -1.10235E+04  4.09201E+04  2.49589E+04  2.18721E+04  5.12958E+04 -8.33407E+03  5.61830E+04
 -3.53946E+04  3.84537E+04 -4.78736E+04  1.10927E+04 -4.72944E+04 -1.86207E+04 -2.63380E+04 -4.23172E+04
  7.70520E+03 -4.18692E+04  3.44692E+04 -1.71379E+04  3.24089E+04  1.08910E+04  5.23634E+03  2.07379E+04
 -1.38413E+04  9.61596E+03 -1.15861E+04 -7.08841E+03  5.71292E+03 -1.12053E+04  1.88614E+04  5.52548E+03
  1.50101E+04  2.29008E+04 -5.16186E+03  2.70298E+04 -2.38217E+04  1.42556E+04 -3.14418E+04 -2.72522E+03
 -2.55574E+04 -1.83358E+04 -1.16219E+04 -2.48165E+04  4.04397E+03 -2.55945E+04  2.03539E+04 -2.29402E+04
  3.23673E+04 -1.41344E+04  3.80169E+04  5.03168E+03  2.73549E+04  2.44020E+04  4.59751E+03  4.15519E+04
 -1.99758E+04  3.38685E+04 -3.06341E+04  1.18496E+04 -2.26890E+04 -1.02874E+04 -4.94782E+03 -1.27525E+04
  7.94990E+02 -1.20795E+03 -7.48305E+03  8.16436E+03 -2.06573E+04  4.91649E+03 -2.00852E+04 -9.71448E+03
 -1.21889E+04 -2.35767E+04  6.28195E+03 -2.75665E+04  1.86845E+04 -2.02208E+04  2.28548E+04 -1.67617E+03
  1.46346E+04  1.61004E+04 -1.62594E+03  2.33220E+04 -1.68290E+04  1.33799E+04 -2.38528E+04 -4.75848E+03
 -1.70217E+04 -2.15591E+04 -2.23483E+03 -2.83245E+04  1.25085E+04 -2.36762E+04  2.33730E+04 -1.22069E+04
  2.18041E+04 -4.60338E+02  1.62521E+04  4.92436E+03  8.54914E+03  1.20320E+03  1.22137E+04 -1.93476E+03
  2.24331E+04  2.58551E+03  2.56861E+04  1.82938E+04  1.70160E+04  3.75692E+04 -2.96215E+03  4.45473E+04
 -2.51001E+04  3.68433E+04 -4.18699E+04  1.91462E+04 -4.51589E+04 -3.50628E+03 -3.62779E+04 -2.60820E+04
 -1.45288E+04 -3.73652E+04  1.31276E+04 -3.24193E+04  2.81404E+04 -1.54151E+04  2.41446E+04  7.80632E+03
  7.91994E+03  1.88969E+04 -1.16730E+04  1.53579E+04 -2.00694E+04  2.59190E+03 -1.55728E+04 -1.26693E+04
 -4.40978E+02 -1.95429E+04  1.05318E+04 -1.44465E+04  1.33891E+04 -1.75399E+03  3.10728E+03  8.96761E+03
 -8.64266E+03  4.21451E+03 -9.18763E+03 -6.54940E+03 -1.64261E+03 -1.78992E+04  1.21788E+04 -1.99506E+04
  2.27914E+04 -1.11615E+04  2.60874E+04  3.16320E+03  2.27392E+04  1.86574E+04  1.06570E+04  2.95900E+04
 -5.24241E+03  3.09094E+04 -2.04100E+04  1.94880E+04 -2.25478E+04  3.98617E+03 -1.54415E+04 -5.57821E+03
 -6.37925E+03 -7.30575E+03 -5.00297E+02  6.26226E+02 -2.83671E+03  3.41156E+03 -6.81820E+03  5.40912E+03
 -1.40866E+04 -1.14607E+03 -1.48916E+04 -1.18654E+04 -6.06810E+03 -1.92714E+04  6.34146E+03 -1.52899E+04
  1.30082E+04 -6.52957E+03  9.33330E+03  4.20518E+03 -2.29778E+02  6.11191E+03 -8.00911E+03  1.40161E+02
 -7.69978E+03 -1.02233E+04 -1.56477E+03 -1.51463E+04  9.12783E+03 -1.67369E+04  2.02602E+04 -8.90269E+03
  2.35995E+04  2.06819E+03  1.73390E+04  1.42430E+04  3.38578E+03  1.87011E+04 -9.25134E+03  1.52673E+04
 -1.27958E+04  4.65864E+03 -6.24633E+03 -3.27620E+03  2.61610E+03 -4.43193E+03  8.33033E+03 -1.36575E+03
  7.28128E+03  7.06392E+03  1.34341E+03  1.29698E+04 -8.72665E+03  1.22324E+04 -1.54520E+04  2.74827E+03
 -1.12064E+04 -8.23992E+03  2.68827E+02 -1.30982E+04  8.57716E+03 -6.61270E+03  8.80723E+03  3.29491E+03
  2.13804E+03  9.77777E+03 -8.47412E+03  1.16446E+04 -1.35631E+04  5.26237E+03 -1.37415E+04 -4.75661E+03
 -7.92758E+03 -1.56891E+04  4.14054E+03 -1.79041E+04  1.52458E+04 -1.06320E+04  1.63763E+04  2.60615E+03
  1.02353E+04  1.31652E+04 -1.56346E+03  1.56707E+04 -1.12761E+04  8.71907E+03 -1.28528E+04 -1.25656E+03
 -1.02773E+04 -1.00988E+04 -1.26799E+03 -1.18737E+04  6.18326E+03 -9.59359E+03  7.88890E+03 -3.64038E+03
  4.98871E+03  2.55837E+03 -1.13171E+03  2.05304E+03 -4.52376E+02 -2.99529E+03  2.40222E+03 -7.27087E+03
  1.14496E+04 -4.61401E+03  1.54950E+04  1.88715E+03  1.53234E+04  1.08547E+04  1.02282E+04  2.07410E+04
 -4.89543E+03  2.37206E+04 -1.93518E+04  1.75147E+04 -2.49533E+04  3.34192E+03 -2.00513E+04 -8.93657E+03
 -9.91485E+03 -1.68445E+04 -2.09089E+02 -1.44758E+04  4.94992E+03 -7.95052E+03  5.11019E+03 -5.26335E+03
  3.94815E+03 -3.08803E+03  4.03746E+03 -4.02344E+03  5.75155E+03 -3.53973E+03  8.09227E+03 -1.34824E+03
  1.03641E+04  2.65122E+03  5.90450E+03  9.10071E+03 -2.02874E+03  1.09135E+04 -1.12294E+04  8.75216E+03
 -1.42951E+04 -1.25948E+03 -9.13898E+03 -1.01713E+04 -1.31211E+03 -1.53005E+04  8.70842E+03 -1.52089E+04
  1.58745E+04 -8.78400E+03  1.92775E+04  2.85893E+03  1.29638E+04  1.29482E+04  2.19657E+03  1.75065E+04
 -7.26897E+03  1.42141E+04 -1.00819E+04  4.97981E+03 -6.54239E+03 -1.69030E+03 -2.71278E+03 -2.24591E+03
 -1.45621E+03 -1.95848E+02 -2.02052E+03  3.18690E+03 -5.95972E+03  2.44262E+03 -1.03808E+04 -1.58533E+03
 -7.58131E+03 -9.78335E+03 -3.06305E+02 -1.42069E+04  8.60067E+03 -1.32495E+04  1.44135E+04 -3.67672E+03
  1.42890E+04  7.31286E+03  6.68300E+03  1.27501E+04 -2.61777E+03  1.44313E+04 -9.64385E+03  8.86305E+03
 -1.39862E+04  6.83924E+02 -1.04751E+04 -8.78955E+03 -6.32449E+02 -1.19579E+04  6.14549E+03 -8.69593E+03
  8.99390E+03 -3.02420E+03  6.08181E+03  2.35655E+03  1.99582E+03  4.31972E+03  1.67892E+03  2.14735E+03
  2.31621E+03  8.12439E+02  3.17220E+03  2.06505E+03  4.42386E+03  5.02745E+03  3.50332E+03  7.87995E+03
 -2.88297E+03  1.12085E+04 -1.01204E+04  1.15311E+04 -1.49467E+04  2.82366E+03 -1.50729E+04 -5.56931E+03
 -7.57529E+03 -1.44196E+04  1.89416E+03 -1.56118E+04  8.78255E+03 -1.03146E+04  1.19127E+04 -2.92358E+03
  9.06742E+03  5.36644E+03  2.08147E+03  8.27125E+03 -4.07795E+03  5.12252E+03 -5.90096E+03 -6.44391E+02
 -2.86402E+03 -5.79777E+03  3.03649E+03 -6.60136E+03  6.17551E+03 -3.01493E+03  5.61139E+03  1.19254E+03
  3.34222E+03  2.65710E+03  1.51518E+03  2.60583E+03 -1.00400E+03  1.93239E+03  1.89069E+03 -6.15892E+02
  2.37465E+03 -8.66997E+02  5.84575E+03  2.63274E+03  3.53982E+03  7.44718E+03 -1.21983E+03  9.96246E+03
 -6.67260E+03  6.52098E+03 -9.09249E+03  1.70512E+03 -8.13411E+03 -3.06804E+03 -2.87867E+03 -5.39170E+03
  8.80095E+02 -5.49829E+03  3.98128E+03 -2.50515E+03  3.00157E+03  2.61920E+03 -1.14394E+03  4.39182E+03
 -6.14330E+03  2.98161E+03 -6.75924E+03 -2.96745E+03 -3.83526E+03 -7.82347E+03  1.28452E+03 -7.71110E+03
  4.96525E+03 -4.55364E+03  5.85519E+03 -4.71732E+02  4.60908E+03  2.05055E+03  5.60601E+02  4.33500E+03
 -2.53064E+03  1.38065E+03 -3.22867E+03 -2.99054E+03  1.58952E+03 -6.10648E+03  7.43531E+03 -4.97294E+03
  9.29461E+03  3.88440E+02  8.92481E+03  6.02261E+03  2.78476E+03  9.12320E+03 -3.26856E+03  9.03435E+03
 -7.36497E+03  3.71585E+03 -8.14376E+03 -1.29071E+03 -4.27362E+03 -6.47193E+03  9.46158E+02 -5.52375E+03
  5.89159E+03 -2.74169E+03  4.82349E+03  2.81017E+03  1.56212E+03  5.35087E+03 -8.41413E+02  4.37150E+03
 -2.07056E+03  2.90908E+03 -2.11133E+03  1.30374E+03 -6.50087E+02  1.14867E+03 -1.80434E+03  1.69644E+03
 -2.33603E+03  3.28803E+03 -6.81194E+03  3.26613E+03 -9.25606E+03  3.81621E+02 -1.02491E+04 -6.18110E+03
 -5.54635E+03 -1.23645E+04  2.19161E+03 -1.37672E+04  8.46537E+03 -1.09425E+04  1.32733E+04 -4.02413E+03
  1.20103E+04  2.18554E+03  7.93538E+03  8.53399E+03  7.03789E+02  9.58864E+03 -3.99851E+03  7.32029E+03
 -5.47161E+03  2.66621E+03 -3.77579E+03 -9.37917E+02 -1.10534E+03 -7.36418E+02 -9.45620E+02 -2.90830E+02
 -1.82498E+03  3.07857E+02 -2.34204E+03 -3.50307E+02 -7.33169E+02 -2.18504E+03 -1.83292E+02 -3.61334E+03
  4.05182E+03 -3.01062E+03  5.57199E+03 -1.14649E+02  6.22389E+03  5.14966E+03  1.45518E+03  9.49495E+03
 -4.11284E+03  1.10960E+04 -9.76644E+03  6.41610E+03 -1.17074E+04 -9.53637E+02 -8.61521E+03 -6.96203E+03
 -3.79232E+03 -9.40775E+03  2.40601E+03 -9.10448E+03  5.93718E+03 -4.89872E+03  6.00981E+03  5.07964E+02
  3.28804E+03  2.88037E+03 -6.74657E+02  2.87772E+03 -1.52381E+03 -6.27194E+01  8.26522E+01 -2.44139E+03
  2.37645E+03 -1.49303E+03  3.68817E+03  1.25368E+03  2.18026E+03  3.93179E+03  6.22268E+02  4.60993E+03
 -4.15590E+03  4.23434E+03 -5.96806E+03  3.96247E+02 -5.63483E+03 -4.32868E+03 -4.85181E+02 -8.08092E+03
  4.63251E+03 -6.74992E+03  6.94565E+03 -2.05791E+03  7.18652E+03  1.73743E+03  4.09984E+03  6.03872E+03
  8.05899E+02  5.77936E+03 -2.53817E+03  4.85737E+03 -4.18638E+03  3.21903E+03 -3.21302E+03  5.60992E+02
 -1.22696E+03 -5.55733E+02 -1.54957E+03  1.15365E+03 -3.31831E+03  6.71751E+02 -4.73077E+03 -6.53741E+02
 -4.45786E+03 -3.27695E+03 -1.41732E+03 -6.41367E+03  3.34531E+03 -6.61626E+03  5.67223E+03 -3.17312E+03
  6.16459E+03  8.18978E+02  3.27957E+03  3.88565E+03 -3.91360E+02  6.13574E+03 -4.73277E+03  4.04503E+03
