 $NMID ID='MM_0lb_SNR800_13hz_g50_30.RAW', FMTDAT='(8E13.5)'
 TRAMP=1., VOLUME=1. $END
  3.09564E+05  2.27097E+02  3.37523E+05  2.50429E+05  8.48212E+04  3.37770E+05 -1.32411E+05  2.51364E+05
 -1.90419E+05  8.33703E+04 -1.12055E+05 -3.25943E+04  9.61941E+02 -5.05100E+04  5.38315E+04 -3.82450E+02
  3.57447E+04  5.27762E+04 -1.70264E+04  7.57839E+04 -6.09107E+04  6.41309E+04 -8.42824E+04  3.23511E+04
 -8.13513E+04 -1.17912E+04 -5.73010E+04 -5.15146E+04 -1.50342E+04 -7.00643E+04  2.77465E+04 -4.60206E+04
  4.02383E+04  3.65844E+03  1.59439E+04  4.81821E+04 -3.44186E+04  4.76410E+04 -6.69297E+04 -9.52414E+01
 -5.38588E+04 -5.70059E+04 -6.87886E+03 -7.75991E+04  3.45377E+04 -5.53453E+04  4.83676E+04 -1.72354E+04
  4.36647E+04  1.13494E+04  3.23025E+04  2.59670E+04  1.59155E+04  2.95626E+04 -5.36467E+03  2.76444E+04
 -2.22206E+04  1.23609E+04 -1.84458E+04 -4.96888E+03  6.04358E+03 -7.60365E+03  2.26130E+04  1.26283E+04
  7.09781E+03  3.54629E+04 -3.25359E+04  3.60554E+04 -6.41325E+04  1.93524E+03 -5.75877E+04 -4.31689E+04
 -1.24132E+04 -6.36981E+04  4.04695E+04 -4.56523E+04  5.88585E+04 -2.28404E+03  3.46510E+04  3.30807E+04
 -5.84941E+03  3.70269E+04 -3.04502E+04  1.62522E+04 -3.09937E+04 -4.56312E+03 -1.73323E+04 -1.10953E+04
 -8.39084E+03 -1.35794E+04 -3.09184E+02 -1.83077E+04  7.55782E+03 -2.31043E+04  1.55786E+04 -1.32928E+04
  1.12530E+04  5.27892E+03 -9.05993E+03  1.27828E+04 -2.19296E+04 -4.50347E+03 -8.65533E+03 -3.43161E+04
  2.34500E+04 -4.43232E+04  4.89012E+04 -1.99481E+04  4.57156E+04  1.98327E+04  1.59878E+04  4.47271E+04
 -1.61384E+04  3.40092E+04 -2.55936E+04  1.96254E+03 -1.02486E+04 -2.82370E+04  2.09590E+04 -3.41812E+04
  4.18488E+04 -9.81764E+03  3.66896E+04  2.38670E+04  1.88475E+04  4.76381E+04 -7.94115E+03  5.13890E+04
 -3.27415E+04  3.48201E+04 -4.35643E+04  9.96506E+03 -4.36259E+04 -1.70269E+04 -2.39969E+04 -3.88714E+04
  7.33068E+03 -3.86853E+04  3.22301E+04 -1.53775E+04  3.01823E+04  1.10985E+04  4.30224E+03  1.99292E+04
 -1.36417E+04  8.87752E+03 -1.05426E+04 -7.81273E+03  5.99660E+03 -1.08349E+04  1.83477E+04  6.01084E+03
  1.37857E+04  2.23781E+04 -5.95206E+03  2.55810E+04 -2.25694E+04  1.21454E+04 -2.88613E+04 -4.11685E+03
 -2.15308E+04 -1.79615E+04 -9.10364E+03 -2.14434E+04  3.98177E+03 -2.10313E+04  1.70215E+04 -1.93278E+04
  2.73090E+04 -1.27939E+04  3.40396E+04  2.86983E+03  2.46367E+04  2.08894E+04  4.08386E+03  3.72363E+04
 -1.81767E+04  3.08155E+04 -2.84822E+04  1.09234E+04 -2.14415E+04 -1.01603E+04 -4.66596E+03 -1.33846E+04
  1.19423E+03 -2.25480E+03 -5.25412E+03  7.28648E+03 -1.68868E+04  4.94444E+03 -1.73979E+04 -7.63369E+03
 -1.03892E+04 -1.98646E+04  5.55710E+03 -2.41491E+04  1.64305E+04 -1.72909E+04  1.92841E+04 -1.61188E+03
  1.20270E+04  1.35610E+04 -1.03803E+03  1.98447E+04 -1.37291E+04  1.15152E+04 -2.00846E+04 -3.87492E+03
 -1.46449E+04 -1.81074E+04 -1.61992E+03 -2.43225E+04  1.09757E+04 -1.94370E+04  2.01494E+04 -9.97308E+03
  1.87305E+04  1.49944E+02  1.34717E+04  4.59334E+03  7.23808E+03  8.67996E+02  9.91116E+03 -1.31389E+03
  1.82137E+04  2.73105E+03  2.05833E+04  1.58036E+04  1.35896E+04  3.18452E+04 -2.70102E+03  3.59641E+04
 -2.11045E+04  2.90955E+04 -3.40668E+04  1.48156E+04 -3.57627E+04 -3.00287E+03 -2.91747E+04 -2.08057E+04
 -1.23944E+04 -2.96183E+04  1.02875E+04 -2.64502E+04  2.28362E+04 -1.28261E+04  2.03813E+04  5.73926E+03
  7.46962E+03  1.56122E+04 -9.40691E+03  1.32996E+04 -1.66332E+04  2.85431E+03 -1.29535E+04 -1.05443E+04
 -2.32207E+02 -1.62644E+04  8.82618E+03 -1.19828E+04  1.06268E+04 -1.43624E+03  2.59407E+03  6.69474E+03
 -7.20820E+03  2.59486E+03 -6.67094E+03 -6.09365E+03 -8.37705E+02 -1.45224E+04  1.00196E+04 -1.53349E+04
  1.80339E+04 -8.30808E+03  1.95417E+04  2.95589E+03  1.74501E+04  1.41816E+04  8.08742E+03  2.16992E+04
 -3.58547E+03  2.39061E+04 -1.54581E+04  1.49782E+04 -1.72561E+04  3.57295E+03 -1.19386E+04 -4.02771E+03
 -5.61281E+03 -4.95690E+03 -8.92780E+02  1.10512E+03 -2.81864E+03  3.00246E+03 -5.57551E+03  4.90688E+03
 -1.11551E+04 -7.86069E+02 -1.16622E+04 -9.42838E+03 -4.96732E+03 -1.58301E+04  4.91971E+03 -1.21371E+04
  9.77765E+03 -5.45753E+03  7.08409E+03  3.18886E+03  1.79779E+02  4.63709E+03 -5.40650E+03 -2.82004E+01
 -5.73352E+03 -7.63701E+03 -9.13079E+02 -1.16311E+04  6.52916E+03 -1.22526E+04  1.52653E+04 -6.42603E+03
  1.78874E+04  1.75518E+03  1.30492E+04  1.03140E+04  2.52518E+03  1.40444E+04 -7.60726E+03  1.18889E+04
 -9.81008E+03  3.96774E+03 -5.06835E+03 -2.45708E+03  1.70135E+03 -3.08913E+03  6.70320E+03 -1.25724E+03
  5.61979E+03  5.10933E+03  1.22249E+03  9.40542E+03 -6.78712E+03  9.06924E+03 -1.16393E+04  2.50993E+03
 -7.76746E+03 -6.31324E+03  3.17222E+02 -1.03399E+04  6.03824E+03 -4.93756E+03  6.21202E+03  2.34424E+03
  1.56646E+03  6.71436E+03 -5.95171E+03  8.15007E+03 -9.48368E+03  3.81388E+03 -9.47890E+03 -3.09427E+03
 -5.46109E+03 -1.10660E+04  2.57905E+03 -1.25966E+04  1.09158E+04 -7.45304E+03  1.18123E+04  1.80223E+03
  7.57673E+03  9.20181E+03 -7.46208E+02  1.13393E+04 -8.16274E+03  6.52770E+03 -9.17970E+03 -1.00476E+03
 -8.50357E+03 -7.97197E+03 -1.76588E+03 -8.37421E+03  4.64101E+03 -7.02826E+03  5.45183E+03 -3.46297E+03
  4.05919E+03  9.98173E+02 -3.57089E+02  1.49195E+03  2.90348E+01 -1.72051E+03  1.35904E+03 -4.78259E+03
  7.56374E+03 -2.97505E+03  1.05828E+04  1.29525E+03  1.02061E+04  7.05419E+03  7.60655E+03  1.37094E+04
 -3.05559E+03  1.62960E+04 -1.37974E+04  1.20323E+04 -1.74677E+04  1.95503E+03 -1.41847E+04 -5.76185E+03
 -6.91894E+03 -1.17520E+04 -5.15256E+02 -9.66739E+03  3.90203E+03 -5.17175E+03  3.21731E+03 -3.49439E+03
  2.28733E+03 -2.50228E+03  3.14432E+03 -3.13546E+03  4.45339E+03 -2.31115E+03  5.75875E+03 -4.78548E+02
  7.41345E+03  1.77571E+03  3.10313E+03  6.36428E+03 -2.02786E+03  6.82801E+03 -7.77731E+03  5.42803E+03
 -9.47272E+03 -1.19358E+03 -5.50290E+03 -6.46675E+03 -2.41216E+02 -1.01610E+04  5.97739E+03 -1.00812E+04
  1.08007E+04 -5.83617E+03  1.24767E+04  1.14845E+03  8.91354E+03  8.90777E+03  1.40375E+03  1.14449E+04
 -4.54873E+03  1.01285E+04 -6.39480E+03  3.04683E+03 -4.42846E+03 -1.09013E+03 -1.61518E+03 -1.37450E+03
 -7.90992E+02  1.44459E+02 -1.38066E+03  2.39015E+03 -4.19605E+03  1.69199E+03 -6.84784E+03 -1.03151E+03
 -4.15017E+03 -6.82630E+03  3.48293E+02 -9.10572E+03  5.70624E+03 -8.46047E+03  8.61739E+03 -2.74218E+03
  9.15675E+03  4.86122E+03  3.82929E+03  7.96505E+03 -1.82627E+03  9.09482E+03 -6.38489E+03  5.61778E+03
 -8.27736E+03  7.41164E+02 -6.62193E+03 -5.74249E+03 -5.25051E+02 -7.33037E+03  3.85954E+03 -5.23517E+03
  5.73837E+03 -2.47173E+03  4.13283E+03  1.16878E+03  1.41758E+03  2.74256E+03  8.86218E+02  1.19893E+03
  2.01436E+03  1.00269E+03  2.03037E+03  1.69568E+03  2.37615E+03  3.64550E+03  2.24262E+03  4.35444E+03
 -2.39577E+03  6.83163E+03 -5.69759E+03  7.45629E+03 -8.56424E+03  1.98407E+03 -9.23901E+03 -2.91350E+03
 -4.08198E+03 -8.83328E+03  1.35423E+03 -1.00149E+04  4.81561E+03 -6.08427E+03  7.15603E+03 -1.55991E+03
  5.57231E+03  3.38755E+03  1.21126E+03  5.14966E+03 -2.28778E+03  3.12498E+03 -3.27758E+03 -3.80395E+02
 -1.91661E+03 -3.73070E+03  1.93706E+03 -3.65319E+03  3.55810E+03 -1.86649E+03  3.72657E+03  5.88842E+02
  1.87681E+03  1.52691E+03  9.60291E+02  1.17212E+03 -2.76766E+02  1.47399E+03  1.52010E+03 -2.52399E+02
  1.36480E+03 -4.75588E+02  3.56329E+03  1.45477E+03  1.68056E+03  4.69605E+03 -8.65602E+02  6.12259E+03
 -3.88209E+03  3.41870E+03 -5.52792E+03  9.51615E+02 -4.54577E+03 -1.54565E+03 -1.30589E+03 -3.29117E+03
  6.45863E+02 -3.39217E+03  2.00629E+03 -1.61362E+03  1.79028E+03  1.65053E+03 -9.36294E+02  2.80011E+03
 -3.69998E+03  1.68928E+03 -3.74734E+03 -2.19431E+03 -2.04385E+03 -4.59088E+03  5.11963E+02 -4.22005E+03
  2.22461E+03 -2.10801E+03  2.86034E+03 -8.21023E+01  2.69514E+03  1.14145E+03  6.97166E+02  2.32337E+03
 -1.49336E+03  7.04447E+02 -1.81488E+03 -1.35512E+03  8.88691E+02 -3.09183E+03  3.98555E+03 -2.93691E+03
  4.61667E+03  4.08558E+02  5.27325E+03  3.26011E+03  1.64515E+03  5.18123E+03 -1.58778E+03  5.32835E+03
 -4.12386E+03  1.71973E+03 -4.30822E+03 -7.20403E+02 -2.28962E+03 -3.36381E+03  1.01500E+03 -2.87455E+03
  3.56169E+03 -1.99552E+03  2.65802E+03  1.48865E+03  9.36371E+02  2.84093E+03 -1.56753E+02  2.88635E+03
 -9.40668E+02  1.74508E+03 -1.30157E+03  3.06912E+02 -3.76521E+02  5.49140E+02 -6.03847E+02  9.87564E+02
 -1.44193E+03  2.20335E+03 -4.07945E+03  1.69890E+03 -4.99224E+03  2.80361E+02 -5.86504E+03 -3.13184E+03
 -2.76160E+03 -6.90226E+03  1.33715E+03 -7.72418E+03  4.38939E+03 -5.87420E+03  7.52275E+03 -2.48977E+03
  6.54871E+03  7.08652E+02  3.87939E+03  4.41811E+03 -1.90866E+02  5.08171E+03 -2.05328E+03  3.51335E+03
 -2.78882E+03  1.71560E+03 -1.68604E+03 -7.34081E+02 -7.27326E+02 -2.73927E+02 -7.57964E+02 -1.46021E+02
 -1.15757E+03  2.56661E+02 -1.34743E+03 -2.31230E+02 -2.32355E+02 -1.21198E+03 -2.43593E+02 -1.99097E+03
  2.17767E+03 -1.29467E+03  2.53465E+03  1.43506E+02  3.06586E+03  2.38549E+03  6.30157E+02  4.90119E+03
 -2.38445E+03  5.92175E+03 -5.32535E+03  3.39092E+03 -5.97148E+03 -3.02236E+02 -4.18255E+03 -3.90410E+03
 -2.08590E+03 -4.72359E+03  1.26174E+03 -4.40001E+03  3.04040E+03 -2.55267E+03  2.82255E+03 -9.87493E+00
  2.07377E+03  1.45076E+03  1.41292E+02  1.32226E+03 -9.74041E+02 -1.44586E+02 -1.77642E+02 -8.43652E+02
  1.89940E+03 -3.32648E+02  1.49989E+03  7.04157E+02  1.18355E+03  1.75099E+03  2.29288E+02  1.93141E+03
 -2.05091E+03  2.04584E+03 -2.77607E+03  2.37315E+02 -2.54701E+03 -2.24319E+03  5.35435E+01 -4.02954E+03
  2.34728E+03 -2.84346E+03  3.20508E+03 -9.34548E+02  3.74271E+03  3.94037E+02  1.93711E+03  3.12217E+03
  6.17898E+02  2.80047E+03 -1.30116E+03  2.49830E+03 -1.68518E+03  1.45638E+03 -1.43010E+03  3.05785E+02
 -5.60907E+02  1.54095E+02 -1.28209E+03  3.34458E+02 -1.51006E+03  4.92251E+02 -2.36200E+03 -5.86946E+02
 -2.39118E+03 -1.30796E+03 -6.69912E+02 -3.25282E+03  1.14543E+03 -3.84696E+03  2.62190E+03 -1.22907E+03
  2.98239E+03  2.28803E+02  1.10966E+03  1.86333E+03 -1.55084E+02  2.87459E+03 -2.04341E+03  2.07651E+03
