 $NMID ID='MM_0lb_SNR800_13hz_g55_75.RAW', FMTDAT='(8E13.5)'
 TRAMP=1., VOLUME=1. $END
  3.09907E+05  5.07951E+02  3.37566E+05  2.50808E+05  8.47159E+04  3.38029E+05 -1.32609E+05  2.50887E+05
 -1.90917E+05  8.36734E+04 -1.11902E+05 -3.25763E+04  7.51186E+02 -5.07350E+04  5.37248E+04 -3.25947E+02
  3.55913E+04  5.30710E+04 -1.68300E+04  7.61203E+04 -6.08976E+04  6.37140E+04 -8.45452E+04  3.20299E+04
 -8.17764E+04 -1.15633E+04 -5.76790E+04 -5.16320E+04 -1.51315E+04 -7.01430E+04  2.75552E+04 -4.61731E+04
  4.09142E+04  3.65836E+03  1.62005E+04  4.79412E+04 -3.43302E+04  4.76613E+04 -6.75096E+04  1.32430E+02
 -5.39733E+04 -5.72059E+04 -6.88759E+03 -7.74763E+04  3.42330E+04 -5.57038E+04  4.85843E+04 -1.78443E+04
  4.40336E+04  1.15860E+04  3.24525E+04  2.57661E+04  1.58409E+04  2.96236E+04 -5.84951E+03  2.73491E+04
 -2.21681E+04  1.22713E+04 -1.84436E+04 -5.35125E+03  6.37904E+03 -7.62721E+03  2.25998E+04  1.25702E+04
  7.27356E+03  3.61453E+04 -3.25853E+04  3.63491E+04 -6.43415E+04  2.25942E+03 -5.77996E+04 -4.30644E+04
 -1.29396E+04 -6.40786E+04  4.06292E+04 -4.57084E+04  5.89757E+04 -2.44160E+03  3.52226E+04  3.29693E+04
 -5.71663E+03  3.76153E+04 -3.05196E+04  1.72916E+04 -3.14796E+04 -4.05674E+03 -1.76303E+04 -1.15173E+04
 -8.97522E+03 -1.40650E+04 -1.07139E+03 -1.89829E+04  7.75955E+03 -2.30794E+04  1.59570E+04 -1.29077E+04
  1.10134E+04  5.73590E+03 -9.12074E+03  1.29291E+04 -2.20844E+04 -5.16885E+03 -8.40219E+03 -3.51764E+04
  2.36041E+04 -4.45882E+04  4.95444E+04 -2.02607E+04  4.63856E+04  2.00384E+04  1.63698E+04  4.53584E+04
 -1.61679E+04  3.42069E+04 -2.67228E+04  1.81114E+03 -1.05029E+04 -2.86190E+04  2.13386E+04 -3.49725E+04
  4.23084E+04 -9.61101E+03  3.72991E+04  2.41838E+04  1.93003E+04  4.84684E+04 -7.80757E+03  5.29070E+04
 -3.32145E+04  3.54655E+04 -4.38737E+04  1.02735E+04 -4.45529E+04 -1.73436E+04 -2.43353E+04 -3.95294E+04
  7.57907E+03 -3.93143E+04  3.25882E+04 -1.56725E+04  3.02547E+04  1.08727E+04  4.31963E+03  1.98686E+04
 -1.39611E+04  8.77642E+03 -1.07659E+04 -7.50134E+03  5.83121E+03 -1.08520E+04  1.85427E+04  5.54057E+03
  1.37708E+04  2.22602E+04 -5.71969E+03  2.57872E+04 -2.29055E+04  1.23844E+04 -2.95637E+04 -4.05106E+03
 -2.22273E+04 -1.76873E+04 -9.10501E+03 -2.22826E+04  3.87518E+03 -2.18252E+04  1.66847E+04 -2.04449E+04
  2.83516E+04 -1.32377E+04  3.44552E+04  3.69263E+03  2.49056E+04  2.15805E+04  4.41596E+03  3.79367E+04
 -1.82615E+04  3.11367E+04 -2.91769E+04  1.11279E+04 -2.16387E+04 -1.02134E+04 -4.61020E+03 -1.32127E+04
  1.40101E+03 -2.07388E+03 -5.82277E+03  7.12422E+03 -1.77183E+04  5.25662E+03 -1.80223E+04 -8.01394E+03
 -1.07080E+04 -2.03991E+04  5.44409E+03 -2.44494E+04  1.62583E+04 -1.74722E+04  1.94432E+04 -1.78083E+03
  1.23945E+04  1.40289E+04 -1.17085E+03  2.03572E+04 -1.44125E+04  1.13238E+04 -2.06127E+04 -4.51439E+03
 -1.52478E+04 -1.87332E+04 -2.06687E+03 -2.45647E+04  1.11397E+04 -2.00442E+04  2.03285E+04 -1.03224E+04
  1.90757E+04 -2.47996E+02  1.35358E+04  4.39053E+03  7.34287E+03  1.09245E+03  1.01621E+04 -1.88209E+03
  1.89612E+04  2.67063E+03  2.12656E+04  1.61512E+04  1.41784E+04  3.24883E+04 -3.09982E+03  3.70033E+04
 -2.14223E+04  3.05775E+04 -3.48741E+04  1.53069E+04 -3.70060E+04 -2.65081E+03 -3.02051E+04 -2.15081E+04
 -1.26841E+04 -3.03927E+04  1.04042E+04 -2.73842E+04  2.37621E+04 -1.38387E+04  2.05053E+04  5.94805E+03
  7.42266E+03  1.58546E+04 -9.64652E+03  1.38902E+04 -1.74360E+04  2.62265E+03 -1.31129E+04 -1.10198E+04
 -7.37152E+02 -1.63009E+04  8.88680E+03 -1.24796E+04  1.09731E+04 -1.20193E+03  2.65961E+03  7.31017E+03
 -7.55195E+03  2.96490E+03 -6.79710E+03 -5.85756E+03 -8.46886E+02 -1.48506E+04  1.05916E+04 -1.58589E+04
  1.85865E+04 -8.44300E+03  2.04507E+04  2.83538E+03  1.78466E+04  1.43518E+04  8.27363E+03  2.32165E+04
 -4.28438E+03  2.47773E+04 -1.57099E+04  1.56586E+04 -1.79415E+04  3.39358E+03 -1.24534E+04 -4.55558E+03
 -5.55793E+03 -5.54978E+03 -6.61214E+02  7.28359E+02 -2.58443E+03  2.72508E+03 -5.79514E+03  4.79296E+03
 -1.16452E+04 -5.59536E+02 -1.20946E+04 -1.02781E+04 -4.88839E+03 -1.59170E+04  5.27978E+03 -1.26179E+04
  1.06584E+04 -5.75314E+03  7.30658E+03  3.66663E+03  1.78349E+02  4.99525E+03 -6.22623E+03 -4.29788E+02
 -5.41746E+03 -8.19616E+03 -8.88679E+02 -1.18172E+04  6.94352E+03 -1.27843E+04  1.58818E+04 -6.96375E+03
  1.82161E+04  1.56999E+03  1.30931E+04  1.08867E+04  2.59038E+03  1.45684E+04 -7.82190E+03  1.24170E+04
 -1.00554E+04  3.87871E+03 -5.33317E+03 -2.66049E+03  1.69744E+03 -3.46901E+03  6.85346E+03 -8.53708E+02
  5.78308E+03  5.52183E+03  9.25896E+02  9.69644E+03 -6.90615E+03  9.37463E+03 -1.20468E+04  2.31600E+03
 -7.72408E+03 -6.26474E+03  3.58286E+02 -1.05434E+04  6.43105E+03 -5.35243E+03  6.88119E+03  2.21104E+03
  1.21818E+03  7.09048E+03 -6.56394E+03  8.70285E+03 -9.83586E+03  3.66688E+03 -9.79200E+03 -3.35684E+03
 -5.49390E+03 -1.15608E+04  2.81997E+03 -1.31557E+04  1.11878E+04 -7.89875E+03  1.21234E+04  1.67024E+03
  7.58711E+03  9.68509E+03 -9.22916E+02  1.21451E+04 -8.52381E+03  6.65412E+03 -9.76054E+03 -6.64395E+02
 -8.53719E+03 -7.43730E+03 -1.53104E+03 -9.23783E+03  4.50756E+03 -7.45653E+03  5.67128E+03 -3.60362E+03
  3.91027E+03  1.00466E+03 -5.53147E+02  1.70502E+03 -2.44646E+02 -1.85779E+03  1.21918E+03 -4.62248E+03
  7.68091E+03 -2.98316E+03  1.09248E+04  1.26219E+03  1.09210E+04  6.99380E+03  7.61582E+03  1.45139E+04
 -3.45365E+03  1.61982E+04 -1.43255E+04  1.23421E+04 -1.81438E+04  2.52867E+03 -1.46577E+04 -6.04403E+03
 -7.18719E+03 -1.19737E+04 -2.95791E+02 -1.02876E+04  3.98118E+03 -5.29805E+03  3.62270E+03 -3.77764E+03
  2.62678E+03 -2.27110E+03  3.17620E+03 -3.05626E+03  4.87016E+03 -2.49062E+03  5.91784E+03 -4.69450E+02
  7.95439E+03  2.06231E+03  3.48324E+03  6.73236E+03 -2.08215E+03  7.32114E+03 -8.24866E+03  5.41544E+03
 -9.82823E+03 -1.20676E+03 -5.59749E+03 -6.73325E+03 -6.51367E+02 -1.06254E+04  6.13927E+03 -1.07018E+04
  1.13457E+04 -6.01455E+03  1.33209E+04  1.62716E+03  9.36166E+03  8.96795E+03  1.68051E+03  1.19953E+04
 -4.51697E+03  1.02658E+04 -6.55474E+03  3.38267E+03 -4.46758E+03 -9.86722E+02 -1.81724E+03 -1.33176E+03
 -1.18449E+03 -1.35242E+02 -1.72616E+03  2.66696E+03 -4.25939E+03  1.74286E+03 -7.16091E+03 -7.92319E+02
 -4.50249E+03 -7.39434E+03  5.86835E+02 -9.49799E+03  5.78627E+03 -8.72097E+03  9.07223E+03 -2.51906E+03
  9.00181E+03  4.71583E+03  4.30625E+03  8.13961E+03 -1.95892E+03  9.55227E+03 -6.74026E+03  5.98406E+03
 -8.57056E+03  4.81062E+02 -6.90014E+03 -5.63535E+03 -1.04198E+03 -7.73445E+03  4.17786E+03 -5.87465E+03
  6.04892E+03 -2.12566E+03  3.95090E+03  1.36131E+03  1.37198E+03  3.09744E+03  7.86811E+02  1.02974E+03
  2.48247E+03  7.23971E+02  2.47713E+03  1.58568E+03  3.08823E+03  3.29610E+03  2.61036E+03  4.75381E+03
 -1.89593E+03  7.42943E+03 -6.15292E+03  7.71894E+03 -8.66925E+03  2.22372E+03 -9.85267E+03 -2.98669E+03
 -4.33349E+03 -9.21656E+03  1.43805E+03 -1.03683E+04  5.34575E+03 -6.37509E+03  7.49258E+03 -2.06589E+03
  5.52235E+03  3.48305E+03  1.12618E+03  4.94744E+03 -2.28076E+03  3.42492E+03 -3.54504E+03 -6.50219E+02
 -1.72592E+03 -4.01922E+03  2.04095E+03 -4.23359E+03  3.74066E+03 -1.94776E+03  3.73964E+03  9.68896E+02
  2.12475E+03  1.60530E+03  1.29186E+03  9.16388E+02 -4.13879E+02  1.26371E+03  1.82964E+03 -2.87275E+02
  1.23385E+03 -5.62113E+02  3.93433E+03  1.42863E+03  1.88071E+03  4.96554E+03 -5.81948E+02  6.59414E+03
 -4.15143E+03  3.69478E+03 -5.56827E+03  1.50331E+03 -5.33868E+03 -1.99434E+03 -1.61361E+03 -3.48342E+03
  3.88659E+02 -3.33119E+03  2.18885E+03 -1.81181E+03  2.12194E+03  2.10989E+03 -9.69807E+02  2.67685E+03
 -3.33381E+03  1.79367E+03 -4.04307E+03 -2.19719E+03 -2.18238E+03 -5.22747E+03  5.51255E+02 -4.83992E+03
  2.33146E+03 -2.61040E+03  3.25289E+03 -3.21028E+02  2.99332E+03  1.39793E+03  4.03725E+02  2.91676E+03
 -1.26418E+03  7.54277E+02 -1.92452E+03 -1.25866E+03  1.03477E+03 -3.10393E+03  4.61771E+03 -2.80999E+03
  5.13580E+03  2.71930E+02  5.49565E+03  3.43249E+03  1.71928E+03  5.27681E+03 -1.96190E+03  5.01650E+03
 -4.31496E+03  2.11258E+03 -4.56868E+03 -8.94954E+02 -2.32164E+03 -3.43010E+03  7.94661E+02 -3.05275E+03
  3.46764E+03 -1.46911E+03  2.72989E+03  1.39461E+03  6.69061E+02  3.00442E+03 -2.82479E+02  2.44768E+03
 -1.44187E+03  1.95403E+03 -1.18232E+03  5.12023E+02 -3.23507E+02  7.33872E+02 -6.24179E+02  1.44531E+03
 -1.24993E+03  2.46789E+03 -3.67931E+03  1.78813E+03 -4.90401E+03  3.39656E+02 -6.35205E+03 -3.52920E+03
 -2.94812E+03 -6.56221E+03  1.34196E+03 -8.24138E+03  4.46886E+03 -6.28102E+03  7.63555E+03 -2.23444E+03
  7.49853E+03  1.30449E+03  4.40187E+03  4.60037E+03 -1.35288E+02  4.94599E+03 -2.27240E+03  4.26288E+03
 -3.10030E+03  1.76872E+03 -1.67255E+03 -5.62983E+02 -6.44374E+02 -3.54841E+02 -3.74089E+02 -7.03125E+01
 -1.47248E+03  2.78350E+02 -1.52073E+03  4.04117E+01 -8.80715E+01 -1.14573E+03 -4.26500E+02 -2.28809E+03
  2.58579E+03 -1.60386E+03  2.58967E+03 -2.56835E+01  3.34987E+03  2.80461E+03  5.63106E+02  4.74585E+03
 -2.69249E+03  6.30964E+03 -5.55870E+03  3.70128E+03 -5.96536E+03 -6.05485E+02 -4.28250E+03 -3.62269E+03
 -1.87670E+03 -4.81004E+03  1.25485E+03 -4.80697E+03  3.03234E+03 -2.51630E+03  3.18156E+03  4.00670E+02
  1.60904E+03  1.25262E+03 -1.78714E+02  1.34367E+03 -8.23222E+02  7.44336E+01 -9.88465E+01 -6.84978E+02
  1.72628E+03 -4.89015E+02  1.61643E+03  9.60614E+02  1.06323E+03  1.80993E+03  6.59125E+02  2.50276E+03
 -1.99319E+03  2.13741E+03 -2.81481E+03  1.42768E+02 -2.78820E+03 -1.97214E+03 -4.41446E+02 -3.81610E+03
  2.07818E+03 -3.16071E+03  3.61135E+03 -9.60552E+02  3.64843E+03  1.35752E+02  1.72755E+03  3.01045E+03
  6.92318E+02  2.87256E+03 -1.24769E+03  2.22340E+03 -2.12330E+03  1.16032E+03 -1.72851E+03  3.38936E+02
 -8.21743E+02 -1.10020E+02 -1.17191E+03  5.09559E+02 -1.75526E+03  5.90759E+02 -2.60820E+03 -4.89718E+02
 -2.55225E+03 -1.03649E+03 -7.87318E+02 -3.12468E+03  1.72065E+03 -3.73889E+03  2.32557E+03 -1.41005E+03
  2.78209E+03  3.46524E+02  9.60513E+02  1.83184E+03 -4.41537E+02  3.14905E+03 -1.93987E+03  1.92712E+03
