 $NMID ID='MM_0lb_SNR800_13hz_g60_39.RAW', FMTDAT='(8E13.5)'
 TRAMP=1., VOLUME=1. $END
  3.09899E+05  4.14448E+02  3.37660E+05  2.50603E+05  8.49849E+04  3.38250E+05 -1.32748E+05  2.51448E+05
 -1.90718E+05  8.35352E+04 -1.12416E+05 -3.24398E+04  5.88289E+02 -5.06507E+04  5.36896E+04 -2.49820E+02
  3.57059E+04  5.29229E+04 -1.66163E+04  7.59628E+04 -6.15588E+04  6.42071E+04 -8.49807E+04  3.18680E+04
 -8.20519E+04 -1.15163E+04 -5.77270E+04 -5.18374E+04 -1.50802E+04 -7.02672E+04  2.78239E+04 -4.63445E+04
  4.08078E+04  3.71614E+03  1.64862E+04  4.81612E+04 -3.44073E+04  4.78677E+04 -6.77138E+04  4.56455E+01
 -5.41887E+04 -5.73035E+04 -7.17287E+03 -7.82018E+04  3.42479E+04 -5.60882E+04  4.90489E+04 -1.82336E+04
  4.47360E+04  1.16519E+04  3.22586E+04  2.57545E+04  1.60835E+04  3.01365E+04 -5.50529E+03  2.75883E+04
 -2.22974E+04  1.21881E+04 -1.79411E+04 -5.29068E+03  6.30197E+03 -7.28427E+03  2.29689E+04  1.32169E+04
  6.85828E+03  3.63357E+04 -3.30797E+04  3.63373E+04 -6.47462E+04  2.34366E+03 -5.79376E+04 -4.34274E+04
 -1.27721E+04 -6.48176E+04  4.06203E+04 -4.64269E+04  5.99188E+04 -2.48897E+03  3.54905E+04  3.33840E+04
 -5.88285E+03  3.77450E+04 -3.10818E+04  1.76103E+04 -3.20316E+04 -3.81476E+03 -1.78272E+04 -1.13068E+04
 -8.96761E+03 -1.40203E+04 -5.13552E+02 -1.89827E+04  8.03197E+03 -2.29901E+04  1.52812E+04 -1.29187E+04
  1.08705E+04  5.73322E+03 -9.30611E+03  1.28402E+04 -2.21376E+04 -5.98442E+03 -8.33495E+03 -3.60811E+04
  2.40945E+04 -4.53845E+04  4.99773E+04 -2.04172E+04  4.70901E+04  2.00511E+04  1.65433E+04  4.54941E+04
 -1.61341E+04  3.48129E+04 -2.67259E+04  2.27286E+03 -1.06744E+04 -2.87374E+04  2.14626E+04 -3.52097E+04
  4.29336E+04 -9.89326E+03  3.80811E+04  2.43172E+04  1.98274E+04  4.91251E+04 -8.31213E+03  5.34156E+04
 -3.35679E+04  3.61643E+04 -4.47797E+04  1.04340E+04 -4.52074E+04 -1.74022E+04 -2.49552E+04 -4.00654E+04
  7.92337E+03 -4.01658E+04  3.28513E+04 -1.60454E+04  3.04403E+04  1.07645E+04  4.54516E+03  2.02200E+04
 -1.33864E+04  8.92056E+03 -1.05090E+04 -7.84099E+03  5.93066E+03 -1.08658E+04  1.86589E+04  5.55941E+03
  1.39436E+04  2.22926E+04 -5.78307E+03  2.58661E+04 -2.29763E+04  1.31808E+04 -2.96413E+04 -3.65285E+03
 -2.30495E+04 -1.80096E+04 -1.00774E+04 -2.26906E+04  4.47861E+03 -2.25264E+04  1.74018E+04 -2.03254E+04
  2.92729E+04 -1.33066E+04  3.51806E+04  4.07470E+03  2.51523E+04  2.19326E+04  4.55432E+03  3.86185E+04
 -1.84957E+04  3.22003E+04 -2.91773E+04  1.12870E+04 -2.17984E+04 -1.02009E+04 -4.86938E+03 -1.31249E+04
  9.92346E+02 -1.83879E+03 -5.87016E+03  7.58380E+03 -1.79833E+04  5.00315E+03 -1.77113E+04 -8.33655E+03
 -1.11666E+04 -2.06930E+04  6.05519E+03 -2.48204E+04  1.65127E+04 -1.81700E+04  2.02875E+04 -1.69903E+03
  1.28375E+04  1.46713E+04 -1.32135E+03  2.08032E+04 -1.48010E+04  1.18205E+04 -2.09500E+04 -4.69750E+03
 -1.55787E+04 -1.86933E+04 -2.01664E+03 -2.50044E+04  1.14565E+04 -2.10136E+04  2.09286E+04 -1.06363E+04
  1.92194E+04  5.74566E+01  1.40524E+04  4.78248E+03  7.51396E+03  9.61947E+02  1.06299E+04 -1.74926E+03
  1.96048E+04  2.94023E+03  2.19940E+04  1.65103E+04  1.45491E+04  3.30322E+04 -2.76586E+03  3.85791E+04
 -2.22106E+04  3.17305E+04 -3.59836E+04  1.62094E+04 -3.78673E+04 -2.80544E+03 -3.13792E+04 -2.20699E+04
 -1.31865E+04 -3.18214E+04  1.11137E+04 -2.83360E+04  2.41524E+04 -1.36866E+04  2.13538E+04  6.39621E+03
  7.73920E+03  1.64148E+04 -1.01199E+04  1.40139E+04 -1.78207E+04  2.77805E+03 -1.34538E+04 -1.12889E+04
 -2.48739E+02 -1.71297E+04  9.01271E+03 -1.27114E+04  1.17002E+04 -1.31178E+03  2.91078E+03  7.28134E+03
 -7.97956E+03  3.33995E+03 -7.24902E+03 -6.28501E+03 -1.09561E+03 -1.54956E+04  1.07604E+04 -1.63830E+04
  1.93498E+04 -8.90103E+03  2.11625E+04  3.19990E+03  1.84994E+04  1.51706E+04  8.48211E+03  2.38170E+04
 -4.52455E+03  2.55179E+04 -1.65580E+04  1.63576E+04 -1.84890E+04  3.30821E+03 -1.27916E+04 -4.67911E+03
 -5.77732E+03 -5.86883E+03 -6.64803E+02  4.91481E+02 -2.40284E+03  2.86128E+03 -5.99359E+03  4.74953E+03
 -1.20080E+04 -7.85385E+02 -1.25328E+04 -1.04917E+04 -5.27295E+03 -1.65823E+04  5.30006E+03 -1.34004E+04
  1.07226E+04 -5.68358E+03  7.69544E+03  3.28944E+03 -1.29945E+02  5.25146E+03 -5.96891E+03 -2.39265E+02
 -5.95522E+03 -8.24732E+03 -1.04412E+03 -1.28180E+04  6.88707E+03 -1.32115E+04  1.63471E+04 -7.24108E+03
  1.90017E+04  1.76856E+03  1.41660E+04  1.09108E+04  3.04840E+03  1.53871E+04 -7.94795E+03  1.26696E+04
 -1.02646E+04  3.92052E+03 -5.24589E+03 -2.68667E+03  1.73314E+03 -3.51582E+03  6.93761E+03 -1.11521E+03
  6.35170E+03  5.42607E+03  1.29047E+03  1.04536E+04 -7.04343E+03  9.93682E+03 -1.26153E+04  2.54753E+03
 -8.10578E+03 -6.46363E+03  3.61076E+02 -1.10103E+04  7.01869E+03 -5.84154E+03  7.30495E+03  2.67016E+03
  1.75686E+03  7.56509E+03 -6.43995E+03  9.02101E+03 -1.04683E+04  4.28077E+03 -1.03873E+04 -3.53401E+03
 -6.19590E+03 -1.21554E+04  2.67373E+03 -1.38109E+04  1.16358E+04 -8.32823E+03  1.25237E+04  2.73622E+03
  7.73834E+03  9.97871E+03 -8.15599E+02  1.22127E+04 -8.93776E+03  6.83216E+03 -9.86331E+03 -9.98033E+02
 -8.79624E+03 -8.63260E+03 -1.50674E+03 -8.95978E+03  4.78748E+03 -7.83385E+03  5.67245E+03 -3.58647E+03
  4.08629E+03  1.60291E+03 -7.00643E+02  1.71160E+03 -4.94379E+01 -2.06606E+03  1.56539E+03 -5.15839E+03
  8.11516E+03 -3.43982E+03  1.15366E+04  8.44923E+02  1.12024E+04  7.76562E+03  7.74488E+03  1.50866E+04
 -3.62752E+03  1.77884E+04 -1.46720E+04  1.30978E+04 -1.89588E+04  2.37437E+03 -1.48181E+04 -6.35025E+03
 -7.43151E+03 -1.24665E+04 -7.88430E+02 -1.03791E+04  4.04339E+03 -5.55827E+03  3.75814E+03 -3.99165E+03
  2.99423E+03 -2.33161E+03  3.24672E+03 -3.10670E+03  5.07936E+03 -2.65166E+03  6.44800E+03 -4.85302E+02
  8.00077E+03  1.66586E+03  3.97216E+03  6.60004E+03 -2.10552E+03  7.72922E+03 -8.24993E+03  5.93164E+03
 -1.01897E+04 -1.11159E+03 -6.36068E+03 -7.02346E+03 -6.45186E+02 -1.08956E+04  6.68535E+03 -1.08579E+04
  1.14483E+04 -6.07455E+03  1.34533E+04  1.52942E+03  9.64254E+03  9.44879E+03  1.65868E+03  1.24753E+04
 -4.88099E+03  1.05541E+04 -7.42303E+03  3.51225E+03 -4.79601E+03 -1.77945E+03 -1.94308E+03 -1.38699E+03
 -1.23835E+03  1.88747E+01 -1.43117E+03  2.60483E+03 -4.59165E+03  1.77439E+03 -7.63437E+03 -1.03934E+03
 -4.93344E+03 -7.15695E+03  1.15203E+02 -9.89343E+03  6.10644E+03 -9.45374E+03  9.17600E+03 -2.84748E+03
  9.34114E+03  4.79526E+03  4.41883E+03  8.39840E+03 -2.05369E+03  1.02271E+04 -6.87833E+03  6.25684E+03
 -9.14017E+03  6.07763E+02 -7.15618E+03 -5.78253E+03 -1.07022E+03 -8.39151E+03  4.32597E+03 -6.25462E+03
  6.28298E+03 -2.23543E+03  4.11582E+03  1.57050E+03  1.32232E+03  3.07300E+03  1.15734E+03  1.64437E+03
  2.21931E+03  4.90561E+02  2.52385E+03  1.66214E+03  2.94256E+03  3.94837E+03  2.79504E+03  4.57212E+03
 -2.34271E+03  7.36706E+03 -6.78056E+03  8.10509E+03 -9.23708E+03  2.07961E+03 -1.00960E+04 -3.48920E+03
 -4.63159E+03 -9.39276E+03  1.34237E+03 -1.05055E+04  5.52371E+03 -6.35589E+03  7.37919E+03 -1.85669E+03
  6.38942E+03  4.00798E+03  1.44509E+03  5.53379E+03 -2.45209E+03  3.60470E+03 -3.54643E+03 -6.42896E+02
 -1.74036E+03 -3.87934E+03  2.38716E+03 -3.95152E+03  3.85526E+03 -2.11150E+03  3.61328E+03  8.16870E+02
  2.18031E+03  1.70085E+03  1.03987E+03  1.14845E+03 -5.45986E+02  1.65318E+03  1.51553E+03 -2.32247E+02
  1.12081E+03 -6.13593E+02  3.94279E+03  1.39589E+03  1.64299E+03  5.26467E+03 -6.82134E+02  6.48627E+03
 -4.62215E+03  4.12962E+03 -5.78890E+03  9.18051E+02 -5.02222E+03 -2.08898E+03 -1.64333E+03 -3.22230E+03
  6.64353E+02 -3.16303E+03  1.84700E+03 -1.81656E+03  2.05853E+03  1.85207E+03 -8.54584E+02  3.15497E+03
 -3.65650E+03  1.76511E+03 -3.92204E+03 -2.67608E+03 -2.21603E+03 -4.86278E+03  6.26944E+02 -4.43265E+03
  2.76285E+03 -2.36177E+03  3.58397E+03 -2.30582E+02  2.90822E+03  1.18835E+03  1.94327E+02  2.63545E+03
 -1.54632E+03  5.95348E+02 -2.12059E+03 -1.29105E+03  1.06308E+03 -3.10746E+03  4.66217E+03 -2.80574E+03
  5.18316E+03  8.04995E+02  5.69123E+03  3.66491E+03  1.81946E+03  5.50045E+03 -1.68212E+03  5.11429E+03
 -4.47059E+03  1.98103E+03 -4.61886E+03 -5.67831E+02 -2.47147E+03 -3.61916E+03  8.25322E+02 -2.95317E+03
  3.48850E+03 -1.69471E+03  2.83604E+03  1.44443E+03  7.55575E+02  3.15168E+03 -2.14639E+02  2.93516E+03
 -1.20090E+03  2.18518E+03 -1.41708E+03  6.70951E+02 -3.00739E+02  9.36107E+02 -9.04883E+02  1.48114E+03
 -1.66710E+03  2.04662E+03 -3.90676E+03  1.83426E+03 -5.14712E+03  5.19193E+02 -6.65567E+03 -3.54250E+03
 -3.02519E+03 -6.88921E+03  1.09141E+03 -8.34743E+03  4.81899E+03 -6.51430E+03  7.76588E+03 -2.78449E+03
  7.01713E+03  8.79601E+02  4.09600E+03  4.62612E+03 -3.69267E+01  5.03638E+03 -1.65288E+03  3.76821E+03
 -3.09878E+03  1.66655E+03 -1.87680E+03 -8.68171E+02 -7.79938E+02 -7.74231E+00 -1.05963E+03 -2.47708E+02
 -1.17972E+03  2.35080E+02 -1.39841E+03 -7.43904E+01 -1.95490E+02 -1.07757E+03 -1.21474E+02 -2.07594E+03
  2.40725E+03 -1.82267E+03  2.69119E+03 -4.35284E+01  3.96323E+03  3.13524E+03  5.44585E+02  5.33073E+03
 -2.30694E+03  6.02513E+03 -5.63036E+03  3.73705E+03 -6.28082E+03 -2.58145E+02 -4.65757E+03 -3.96739E+03
 -2.31364E+03 -5.08731E+03  9.55466E+02 -4.53221E+03  2.98233E+03 -2.33711E+03  2.94289E+03  9.65304E+01
  1.76308E+03  1.52959E+03 -2.26764E+01  1.71872E+03 -8.48607E+02  7.22884E+01 -6.95117E+01 -1.24999E+03
  1.58857E+03 -9.06312E+02  2.02361E+03  9.63766E+02  1.37518E+03  1.63962E+03  1.04383E+02  2.29461E+03
 -2.13807E+03  2.09125E+03 -2.94486E+03  4.88580E+02 -2.96543E+03 -2.25599E+03 -3.89074E+02 -4.07907E+03
  1.89072E+03 -3.41232E+03  3.24185E+03 -1.07533E+03  3.42697E+03  5.87283E+02  1.89289E+03  2.78858E+03
  8.27022E+02  3.12988E+03 -1.26574E+03  2.64849E+03 -1.60262E+03  1.82439E+03 -1.28379E+03  2.40492E+02
 -4.02014E+02 -6.49807E+02 -1.10484E+03  6.41735E+02 -1.90483E+03  4.31615E+02 -2.19274E+03 -9.36841E+02
 -2.71539E+03 -8.50546E+02 -1.04992E+03 -3.17074E+03  1.36103E+03 -3.80767E+03  2.52475E+03 -1.51593E+03
  2.66286E+03  6.98515E+01  1.31473E+03  1.88328E+03 -3.45466E+02  2.98101E+03 -2.21724E+03  1.84072E+03
