 $NMID ID='MM_0lb_SNR800_15hz_g55_67.RAW', FMTDAT='(8E13.5)'
 TRAMP=1., VOLUME=1. $END
  3.10118E+05  7.57745E+02  3.37507E+05  2.50812E+05  8.48888E+04  3.37910E+05 -1.32904E+05  2.50876E+05
 -1.90422E+05  8.32384E+04 -1.11945E+05 -3.23411E+04  9.77387E+02 -5.07791E+04  5.36500E+04 -1.13174E+02
  3.55409E+04  5.27150E+04 -1.68701E+04  7.54732E+04 -6.08902E+04  6.37725E+04 -8.42242E+04  3.19124E+04
 -8.10668E+04 -1.15223E+04 -5.73051E+04 -5.16015E+04 -1.51009E+04 -6.94471E+04  2.71396E+04 -4.58947E+04
  4.03301E+04  3.87746E+03  1.58842E+04  4.78163E+04 -3.44943E+04  4.70536E+04 -6.64584E+04 -2.38739E+02
 -5.35952E+04 -5.67868E+04 -6.86164E+03 -7.72709E+04  3.39181E+04 -5.51405E+04  4.81333E+04 -1.76045E+04
  4.30677E+04  1.12938E+04  3.16351E+04  2.60187E+04  1.56735E+04  2.96053E+04 -5.45204E+03  2.75238E+04
 -2.19072E+04  1.23265E+04 -1.85343E+04 -5.04868E+03  5.91979E+03 -7.41185E+03  2.22834E+04  1.21947E+04
  7.26397E+03  3.52269E+04 -3.20535E+04  3.54846E+04 -6.34679E+04  2.17041E+03 -5.72140E+04 -4.26698E+04
 -1.24194E+04 -6.31894E+04  3.99041E+04 -4.51539E+04  5.82069E+04 -2.10136E+03  3.42897E+04  3.24121E+04
 -6.12269E+03  3.61277E+04 -3.02304E+04  1.59979E+04 -3.08967E+04 -4.46731E+03 -1.65261E+04 -1.10811E+04
 -8.13091E+03 -1.32482E+04 -9.12826E+02 -1.82129E+04  7.25404E+03 -2.32768E+04  1.55108E+04 -1.34196E+04
  1.11328E+04  5.11642E+03 -8.50538E+03  1.29552E+04 -2.13630E+04 -4.71338E+03 -8.55323E+03 -3.37134E+04
  2.30809E+04 -4.35622E+04  4.81164E+04 -1.95361E+04  4.53428E+04  1.95155E+04  1.55427E+04  4.43056E+04
 -1.59842E+04  3.33372E+04 -2.54253E+04  1.78604E+03 -9.91551E+03 -2.76769E+04  2.10042E+04 -3.38552E+04
  4.11131E+04 -8.82660E+03  3.52542E+04  2.35959E+04  1.79726E+04  4.63722E+04 -8.03907E+03  5.00580E+04
 -3.18481E+04  3.38325E+04 -4.20695E+04  9.54275E+03 -4.27507E+04 -1.67892E+04 -2.32703E+04 -3.77699E+04
  7.44432E+03 -3.79584E+04  3.11988E+04 -1.47816E+04  2.93176E+04  1.09424E+04  3.87666E+03  1.91054E+04
 -1.35234E+04  8.19087E+03 -1.05740E+04 -7.60828E+03  5.98238E+03 -1.07332E+04  1.80864E+04  6.03563E+03
  1.35490E+04  2.21495E+04 -6.05055E+03  2.51793E+04 -2.20632E+04  1.11879E+04 -2.80049E+04 -4.87615E+03
 -2.07319E+04 -1.70769E+04 -8.56202E+03 -2.05496E+04  3.85238E+03 -1.97050E+04  1.54348E+04 -1.82581E+04
  2.56194E+04 -1.24127E+04  3.25267E+04  2.89727E+03  2.39632E+04  1.97473E+04  4.25356E+03  3.61490E+04
 -1.75765E+04  3.05435E+04 -2.80088E+04  1.03520E+04 -2.08016E+04 -1.02769E+04 -4.39054E+03 -1.37094E+04
  1.80745E+03 -2.85997E+03 -4.62227E+03  6.46195E+03 -1.62381E+04  5.34192E+03 -1.62548E+04 -6.68465E+03
 -1.02714E+04 -1.88599E+04  5.54877E+03 -2.24450E+04  1.52317E+04 -1.66033E+04  1.80689E+04 -1.60738E+03
  1.14309E+04  1.28809E+04 -1.17153E+03  1.88571E+04 -1.31117E+04  1.10865E+04 -1.86710E+04 -3.64721E+03
 -1.43701E+04 -1.73435E+04 -1.62898E+03 -2.26096E+04  1.02759E+04 -1.82071E+04  1.87558E+04 -9.41507E+03
  1.77251E+04  4.80485E+02  1.26446E+04  4.47024E+03  6.78174E+03  1.07807E+03  9.36110E+03 -1.48223E+03
  1.72632E+04  2.99799E+03  1.92729E+04  1.49147E+04  1.27775E+04  3.01433E+04 -2.95296E+03  3.37693E+04
 -1.96450E+04  2.73233E+04 -3.13945E+04  1.35009E+04 -3.30969E+04 -2.29533E+03 -2.71667E+04 -1.90603E+04
 -1.16717E+04 -2.70356E+04  9.49983E+03 -2.45215E+04  2.09801E+04 -1.26241E+04  1.91596E+04  5.60570E+03
  7.10657E+03  1.39707E+04 -8.89919E+03  1.24588E+04 -1.59100E+04  2.32566E+03 -1.20033E+04 -9.86912E+03
 -3.88564E+02 -1.51281E+04  7.92665E+03 -1.15536E+04  1.02846E+04 -1.36713E+03  2.36660E+03  6.28757E+03
 -6.79639E+03  2.59781E+03 -5.90641E+03 -5.47206E+03 -1.68627E+02 -1.32822E+04  9.38119E+03 -1.38466E+04
  1.64680E+04 -6.90564E+03  1.75439E+04  2.93244E+03  1.50393E+04  1.27821E+04  7.22462E+03  2.01799E+04
 -3.36798E+03  2.21134E+04 -1.34957E+04  1.36173E+04 -1.54505E+04  3.01727E+03 -1.09601E+04 -3.50317E+03
 -5.33916E+03 -4.63017E+03 -8.44210E+02  9.99671E+02 -2.26207E+03  2.44328E+03 -5.21699E+03  4.27306E+03
 -1.01347E+04 -6.74071E+02 -1.08886E+04 -8.90434E+03 -4.36008E+03 -1.43992E+04  4.45223E+03 -1.12034E+04
  9.00595E+03 -4.76212E+03  6.45656E+03  2.62656E+03 -5.06639E+01  4.07731E+03 -5.00460E+03 -6.81758E+01
 -5.10667E+03 -7.38762E+03 -1.05724E+03 -1.03699E+04  5.81596E+03 -1.07515E+04  1.34024E+04 -5.42232E+03
  1.61236E+04  1.41794E+03  1.14098E+04  8.88506E+03  2.26339E+03  1.24340E+04 -6.64284E+03  1.09141E+04
 -9.13986E+03  3.20773E+03 -4.56295E+03 -1.89772E+03  1.63096E+03 -2.85073E+03  5.76338E+03 -7.41347E+02
  5.36556E+03  4.48048E+03  9.51413E+02  8.86267E+03 -6.00042E+03  8.61359E+03 -1.05420E+04  2.00689E+03
 -6.91977E+03 -5.33341E+03  2.65832E+02 -8.85302E+03  5.30131E+03 -4.53609E+03  5.42345E+03  1.77557E+03
  9.26954E+02  5.64697E+03 -5.51636E+03  7.11880E+03 -8.14329E+03  3.32346E+03 -7.45486E+03 -2.34796E+03
 -4.61387E+03 -9.56450E+03  2.21245E+03 -1.07580E+04  9.22783E+03 -6.83852E+03  9.96087E+03  1.59871E+03
  6.48768E+03  7.80073E+03 -4.14332E+02  1.04947E+04 -7.21344E+03  5.59153E+03 -8.07567E+03 -6.49621E+02
 -7.69769E+03 -6.99332E+03 -1.32484E+03 -7.11479E+03  3.97227E+03 -6.36144E+03  4.52832E+03 -3.24449E+03
  3.50472E+03  4.90369E+02 -3.51677E+02  1.34536E+03  2.26584E+02 -1.32202E+03  9.18935E+02 -3.56876E+03
  6.34120E+03 -2.10234E+03  8.76524E+03  1.08030E+03  8.66424E+03  5.55513E+03  6.85538E+03  1.16385E+04
 -2.36122E+03  1.36410E+04 -1.13337E+04  9.51694E+03 -1.49094E+04  2.34717E+03 -1.18916E+04 -4.74698E+03
 -6.10836E+03 -1.00570E+04 -6.85579E+02 -7.97031E+03  2.92241E+03 -4.26201E+03  2.77329E+03 -3.33772E+03
  2.02022E+03 -2.17198E+03  2.40065E+03 -2.92837E+03  4.62745E+03 -2.11014E+03  5.05723E+03 -1.72978E+01
  6.63862E+03  1.51404E+03  2.44409E+03  5.24922E+03 -1.60459E+03  5.24277E+03 -6.66561E+03  4.64244E+03
 -7.88349E+03 -1.11949E+03 -4.52858E+03 -5.48702E+03 -1.47272E+02 -8.23551E+03  4.73197E+03 -8.44948E+03
  8.44458E+03 -5.26385E+03  1.06195E+04  1.09544E+03  7.39228E+03  6.71562E+03  1.61553E+03  9.41708E+03
 -3.97836E+03  8.30399E+03 -5.58657E+03  2.47420E+03 -3.57693E+03 -1.11209E+03 -1.37044E+03 -1.13314E+03
 -5.95477E+02  3.89829E+02 -1.18937E+03  2.13306E+03 -3.79017E+03  1.28915E+03 -5.75855E+03 -9.25960E+02
 -3.09636E+03 -5.58976E+03  5.03716E+02 -7.22364E+03  4.26887E+03 -7.09322E+03  6.83831E+03 -2.12413E+03
  6.89262E+03  3.85896E+03  3.05513E+03  6.09808E+03 -1.43587E+03  7.37939E+03 -5.08696E+03  4.49445E+03
 -6.65858E+03  8.44994E+02 -5.54162E+03 -4.13498E+03 -6.36201E+02 -5.69497E+03  2.57167E+03 -4.32806E+03
  4.47045E+03 -1.71434E+03  3.26339E+03  8.63146E+02  1.15866E+03  2.49022E+03  1.01150E+03  8.79607E+02
  2.21978E+03  9.57445E+02  1.85191E+03  1.21143E+03  1.82216E+03  3.14850E+03  2.23391E+03  3.26667E+03
 -1.70426E+03  5.30354E+03 -4.57222E+03  6.34651E+03 -6.15576E+03  1.81927E+03 -7.32469E+03 -1.90444E+03
 -3.28027E+03 -6.78331E+03  9.15774E+02 -7.91768E+03  4.13038E+03 -4.87546E+03  5.44037E+03 -1.41439E+03
  4.42638E+03  2.76707E+03  6.65468E+02  3.76877E+03 -1.61010E+03  2.41661E+03 -2.40881E+03 -4.22198E+02
 -1.28170E+03 -2.87261E+03  1.68167E+03 -2.92858E+03  2.26014E+03 -1.52468E+03  2.66863E+03  2.09157E+02
  1.62776E+03  1.30618E+03  1.06545E+03  3.44789E+02 -5.13002E+02  9.99027E+02  1.73189E+03 -3.26520E+02
  4.57492E+02 -2.94638E+02  2.93640E+03  1.15705E+03  1.19905E+03  3.87629E+03 -7.43675E+02  4.89956E+03
 -3.21186E+03  2.65539E+03 -3.76502E+03  6.75771E+02 -3.87680E+03 -1.52580E+03 -9.61289E+02 -2.28881E+03
  5.31146E+02 -2.18579E+03  1.67631E+03 -1.19669E+03  1.42568E+03  1.60178E+03 -8.72886E+02  1.90438E+03
 -2.58459E+03  1.23460E+03 -2.48837E+03 -1.78717E+03 -1.40893E+03 -3.73985E+03  2.52631E+02 -3.12147E+03
  1.62035E+03 -1.39732E+03  2.02478E+03 -2.77802E+02  2.36721E+03  4.55694E+02  3.39273E+02  2.04919E+03
 -1.16834E+03  4.81597E+02 -1.85203E+03 -6.73509E+02  8.41467E+02 -2.27885E+03  3.21701E+03 -2.02205E+03
  3.37557E+03  2.33657E+02  4.40493E+03  2.05313E+03  1.99274E+03  3.89409E+03 -9.76617E+02  3.61923E+03
 -2.86525E+03  1.33370E+03 -3.41769E+03 -6.57946E+02 -1.40846E+03 -2.67874E+03  4.71148E+02 -1.71974E+03
  2.42929E+03 -1.15062E+03  1.80544E+03  1.07461E+03  3.32723E+02  2.11030E+03  1.30851E+02  2.12181E+03
 -6.71327E+02  1.47260E+03 -7.75788E+02  1.36847E+02 -3.99989E+02  7.37794E+02 -9.18992E+02  1.03270E+03
 -1.18691E+03  1.97492E+03 -2.90989E+03  1.02046E+03 -3.65385E+03  5.54692E+01 -3.97289E+03 -1.88530E+03
 -2.16887E+03 -4.62740E+03  1.15126E+03 -5.55367E+03  2.53188E+03 -4.57731E+03  5.04657E+03 -1.49885E+03
  4.81585E+03  4.83399E+02  2.47133E+03  2.87813E+03 -4.33343E+02  3.32264E+03 -1.39444E+03  2.69092E+03
 -1.94773E+03  1.16607E+03 -1.31655E+03 -3.94431E+02 -2.75004E+02 -3.76520E+01 -6.24822E+02 -2.49794E+02
 -1.46930E+03  5.19406E+02 -9.98202E+02 -9.34814E+01  7.00724E+01 -8.62112E+02 -3.33693E+02 -1.25702E+03
  2.13509E+03 -1.02619E+03  1.50562E+03 -4.92709E+01  2.55137E+03  2.00694E+03  5.49938E+01  3.28254E+03
 -1.90246E+03  3.83700E+03 -3.44300E+03  2.63681E+03 -3.88435E+03 -5.90070E+02 -2.74504E+03 -2.61290E+03
 -1.55276E+03 -3.16143E+03  6.41251E+02 -2.66687E+03  1.82485E+03 -1.58618E+03  1.94659E+03  1.87192E+02
  1.55559E+03  9.23920E+02 -1.14713E+01  8.23839E+02 -7.79643E+02 -1.38503E+02  1.02504E+02 -4.13345E+02
  9.44390E+02 -1.74233E+02  9.29352E+02  8.63775E+02  6.78184E+02  1.23118E+03  6.26652E+02  1.08989E+03
 -1.47778E+03  1.46014E+03 -1.63429E+03  9.97812E+01 -1.75671E+03 -1.16854E+03 -2.13906E+02 -2.59425E+03
  1.40088E+03 -1.68620E+03  1.87330E+03 -4.57649E+02  2.37727E+03  8.30406E+01  1.31904E+03  1.51461E+03
  4.77802E+02  1.21077E+03 -5.86491E+02  1.42762E+03 -1.01515E+03  7.42595E+02 -9.61666E+02  1.80909E+02
 -2.61136E+02  2.07143E+02 -6.91544E+02  2.73155E+02 -9.11651E+02  3.90389E+02 -1.42105E+03 -3.08873E+02
 -1.80376E+03 -5.72963E+02 -4.68073E+02 -1.80820E+03  9.13239E+02 -2.28985E+03  1.75417E+03 -7.59785E+02
  1.69332E+03  8.68079E+01  5.39391E+02  8.60757E+02 -1.52350E+02  1.63890E+03 -1.07188E+03  1.38031E+03
