 $NMID ID='MM_0lb_SNR800_12hz_g60_99.RAW', FMTDAT='(8E13.5)'
 TRAMP=1., VOLUME=1. $END
  3.09997E+05  8.55054E+01  3.37695E+05  2.50955E+05  8.47599E+04  3.37977E+05 -1.32800E+05  2.51617E+05
 -1.90840E+05  8.34214E+04 -1.12535E+05 -3.25158E+04  1.46497E+02 -5.06688E+04  5.36914E+04 -3.18152E+02
  3.54608E+04  5.29858E+04 -1.65012E+04  7.58092E+04 -6.12414E+04  6.41943E+04 -8.51850E+04  3.26216E+04
 -8.18321E+04 -1.16685E+04 -5.81307E+04 -5.17899E+04 -1.49979E+04 -7.06937E+04  2.79975E+04 -4.64400E+04
  4.06166E+04  3.62958E+03  1.66119E+04  4.81821E+04 -3.45885E+04  4.80614E+04 -6.78608E+04  2.99484E+02
 -5.47359E+04 -5.76639E+04 -7.28344E+03 -7.87289E+04  3.43719E+04 -5.65065E+04  4.92277E+04 -1.80002E+04
  4.43685E+04  1.16079E+04  3.26414E+04  2.62797E+04  1.60447E+04  3.05253E+04 -5.75555E+03  2.80611E+04
 -2.23258E+04  1.23422E+04 -1.82905E+04 -5.63136E+03  6.29166E+03 -7.38113E+03  2.31410E+04  1.33284E+04
  6.88956E+03  3.70684E+04 -3.33779E+04  3.69345E+04 -6.50404E+04  2.21705E+03 -5.84372E+04 -4.40223E+04
 -1.30115E+04 -6.50110E+04  4.13120E+04 -4.67949E+04  6.05705E+04 -2.44455E+03  3.62657E+04  3.39071E+04
 -5.37806E+03  3.85852E+04 -3.15369E+04  1.83520E+04 -3.24978E+04 -4.06140E+03 -1.86095E+04 -1.16503E+04
 -9.17022E+03 -1.48431E+04 -7.85823E+02 -1.89517E+04  7.77166E+03 -2.30964E+04  1.59765E+04 -1.28394E+04
  1.09053E+04  5.59118E+03 -9.75001E+03  1.31704E+04 -2.29640E+04 -6.00096E+03 -8.43646E+03 -3.61165E+04
  2.46867E+04 -4.58682E+04  5.08402E+04 -2.05832E+04  4.74368E+04  2.06512E+04  1.68817E+04  4.59006E+04
 -1.63028E+04  3.54453E+04 -2.69585E+04  2.17901E+03 -1.13694E+04 -2.90531E+04  2.14440E+04 -3.61201E+04
  4.36381E+04 -1.07488E+04  3.87056E+04  2.45982E+04  2.04680E+04  4.96725E+04 -8.20247E+03  5.45055E+04
 -3.43472E+04  3.68762E+04 -4.55752E+04  1.04399E+04 -4.57308E+04 -1.83117E+04 -2.51088E+04 -4.10018E+04
  7.42796E+03 -4.08796E+04  3.35048E+04 -1.62030E+04  3.13637E+04  1.12463E+04  5.16459E+03  2.04368E+04
 -1.41862E+04  9.12210E+03 -1.12232E+04 -7.41480E+03  5.95967E+03 -1.10427E+04  1.85861E+04  5.82794E+03
  1.41209E+04  2.23069E+04 -5.32139E+03  2.61727E+04 -2.32162E+04  1.31700E+04 -3.05576E+04 -3.51631E+03
 -2.39480E+04 -1.80865E+04 -1.08734E+04 -2.33670E+04  4.04027E+03 -2.36002E+04  1.82706E+04 -2.16085E+04
  3.05357E+04 -1.39013E+04  3.59865E+04  3.88233E+03  2.59348E+04  2.27790E+04  4.23394E+03  3.98833E+04
 -1.90961E+04  3.28676E+04 -2.99406E+04  1.15865E+04 -2.16686E+04 -1.02749E+04 -4.64798E+03 -1.28117E+04
  1.00827E+03 -1.58388E+03 -6.80626E+03  7.42210E+03 -1.88796E+04  5.12466E+03 -1.86601E+04 -8.70965E+03
 -1.13776E+04 -2.11050E+04  5.38683E+03 -2.59441E+04  1.74823E+04 -1.87053E+04  2.08239E+04 -1.75974E+03
  1.35185E+04  1.50878E+04 -1.48216E+03  2.17884E+04 -1.54611E+04  1.22149E+04 -2.17340E+04 -4.34348E+03
 -1.63640E+04 -1.93826E+04 -1.91330E+03 -2.66048E+04  1.21010E+04 -2.13466E+04  2.16823E+04 -1.07638E+04
  2.02550E+04 -3.93724E+02  1.46255E+04  4.78762E+03  7.72405E+03  1.11221E+03  1.15318E+04 -1.61042E+03
  2.03602E+04  2.74030E+03  2.31951E+04  1.70919E+04  1.56471E+04  3.49227E+04 -2.81850E+03  4.06625E+04
 -2.30121E+04  3.30206E+04 -3.80592E+04  1.68329E+04 -4.05056E+04 -3.21983E+03 -3.26074E+04 -2.33054E+04
 -1.37257E+04 -3.32268E+04  1.17139E+04 -2.96786E+04  2.54264E+04 -1.43361E+04  2.22387E+04  7.16879E+03
  7.79230E+03  1.71093E+04 -1.07175E+04  1.46062E+04 -1.82043E+04  2.75256E+03 -1.43177E+04 -1.15822E+04
  1.49854E+02 -1.72906E+04  9.58989E+03 -1.33058E+04  1.24354E+04 -1.01652E+03  2.98688E+03  8.03363E+03
 -7.81927E+03  3.63423E+03 -7.84947E+03 -6.44713E+03 -9.77516E+02 -1.62851E+04  1.07525E+04 -1.76768E+04
  2.08527E+04 -9.95451E+03  2.29104E+04  3.34262E+03  2.00674E+04  1.64608E+04  9.02721E+03  2.53662E+04
 -4.49844E+03  2.74051E+04 -1.79555E+04  1.70533E+04 -2.02186E+04  3.20597E+03 -1.34938E+04 -5.11617E+03
 -6.11975E+03 -6.43071E+03 -5.27024E+02  5.28512E+02 -2.69427E+03  3.52596E+03 -7.07572E+03  5.11119E+03
 -1.25798E+04 -7.01745E+02 -1.32094E+04 -1.07000E+04 -5.16400E+03 -1.74216E+04  5.83991E+03 -1.36546E+04
  1.13330E+04 -6.10547E+03  8.07410E+03  3.61443E+03 -1.89142E+02  5.40380E+03 -6.83778E+03 -3.15728E+02
 -6.33077E+03 -8.80662E+03 -9.41736E+02 -1.32835E+04  7.73518E+03 -1.39897E+04  1.73456E+04 -7.64926E+03
  2.06619E+04  1.91161E+03  1.48385E+04  1.22384E+04  2.82055E+03  1.66639E+04 -8.28315E+03  1.35178E+04
 -1.09490E+04  3.88950E+03 -5.53268E+03 -3.02609E+03  1.85505E+03 -3.43314E+03  7.53953E+03 -9.07194E+02
  6.95808E+03  6.00520E+03  1.35175E+03  1.09158E+04 -7.75415E+03  1.06497E+04 -1.36400E+04  2.37306E+03
 -9.32069E+03 -7.25427E+03  1.89348E+02 -1.19526E+04  7.33507E+03 -5.96640E+03  7.65056E+03  2.68314E+03
  1.59979E+03  8.40541E+03 -6.84319E+03  9.34807E+03 -1.11756E+04  4.51380E+03 -1.10057E+04 -3.85182E+03
 -6.48823E+03 -1.31519E+04  3.23359E+03 -1.50045E+04  1.28100E+04 -9.15141E+03  1.38678E+04  2.59610E+03
  8.56695E+03  1.08567E+04 -1.13134E+03  1.30168E+04 -9.83935E+03  7.43738E+03 -1.05317E+04 -1.05233E+03
 -9.10154E+03 -8.93564E+03 -1.58028E+03 -1.00323E+04  5.21949E+03 -8.41923E+03  6.22754E+03 -3.62024E+03
  4.21752E+03  1.97676E+03 -1.18836E+03  1.93292E+03 -4.97038E+02 -2.61132E+03  1.81070E+03 -5.78412E+03
  9.14857E+03 -3.65794E+03  1.28709E+04  1.66315E+03  1.22725E+04  8.43832E+03  8.68890E+03  1.69454E+04
 -4.04962E+03  1.93964E+04 -1.62796E+04  1.43424E+04 -2.12043E+04  2.91524E+03 -1.66485E+04 -7.11555E+03
 -8.64491E+03 -1.36184E+04 -5.42228E+02 -1.14427E+04  4.51844E+03 -5.90136E+03  4.06726E+03 -4.17979E+03
  2.75805E+03 -2.83828E+03  3.55186E+03 -2.97759E+03  5.14703E+03 -2.59192E+03  6.66149E+03 -8.38015E+02
  8.73866E+03  2.10306E+03  4.25680E+03  7.54527E+03 -1.96156E+03  8.81147E+03 -9.21658E+03  6.96090E+03
 -1.16251E+04 -1.16010E+03 -7.03124E+03 -7.83602E+03 -1.03682E+03 -1.23962E+04  6.56451E+03 -1.27715E+04
  1.28667E+04 -6.98357E+03  1.56592E+04  2.16319E+03  1.06373E+04  1.12384E+04  1.78403E+03  1.36471E+04
 -5.58319E+03  1.15759E+04 -8.14764E+03  3.89687E+03 -5.44735E+03 -1.70910E+03 -2.48619E+03 -1.59550E+03
 -1.22022E+03  1.12587E+01 -1.92278E+03  2.94366E+03 -5.12762E+03  1.83955E+03 -7.66306E+03 -9.45304E+02
 -4.97314E+03 -7.92331E+03  4.81191E+02 -1.12961E+04  6.94860E+03 -1.03748E+04  1.05713E+04 -3.11912E+03
  1.08316E+04  5.19349E+03  5.12868E+03  9.66858E+03 -2.21305E+03  1.12208E+04 -7.65936E+03  6.89190E+03
 -1.04371E+04  7.88043E+02 -7.94155E+03 -6.59620E+03 -5.30434E+02 -8.84112E+03  4.71079E+03 -7.13311E+03
  6.68271E+03 -2.15470E+03  4.83595E+03  1.93824E+03  1.64711E+03  3.42486E+03  1.33123E+03  1.61024E+03
  2.52402E+03  7.19496E+02  2.63615E+03  1.56343E+03  3.23952E+03  3.69899E+03  2.88710E+03  5.93620E+03
 -2.32800E+03  8.64389E+03 -7.40418E+03  8.89137E+03 -1.09387E+04  2.65430E+03 -1.16625E+04 -4.16220E+03
 -5.47059E+03 -1.07399E+04  1.58294E+03 -1.20421E+04  6.77941E+03 -7.49572E+03  9.33394E+03 -2.02547E+03
  7.34307E+03  4.26570E+03  1.72767E+03  6.25478E+03 -2.85093E+03  3.95532E+03 -4.02407E+03 -5.89524E+02
 -2.37527E+03 -4.71362E+03  2.49400E+03 -4.53573E+03  4.20607E+03 -2.35638E+03  4.27731E+03  1.03401E+03
  2.11360E+03  1.73194E+03  8.26960E+02  1.38435E+03 -8.41729E+02  1.43880E+03  1.34368E+03 -5.20796E+02
  1.59460E+03 -4.94192E+02  4.15966E+03  1.87776E+03  2.41979E+03  5.69691E+03 -6.27437E+02  7.65455E+03
 -4.81782E+03  4.73060E+03 -6.74089E+03  1.37793E+03 -6.30145E+03 -2.22091E+03 -2.36059E+03 -4.12413E+03
  3.75797E+02 -4.15948E+03  2.63225E+03 -1.95291E+03  2.76273E+03  2.38548E+03 -1.50839E+03  3.68551E+03
 -4.37542E+03  2.12832E+03 -4.76903E+03 -2.65875E+03 -2.76336E+03 -5.80936E+03  4.17987E+02 -5.79810E+03
  3.19831E+03 -3.35394E+03  4.15678E+03 -3.00417E+02  3.91747E+03  1.47013E+03  8.46707E+02  3.10615E+03
 -1.88510E+03  5.75438E+02 -2.42340E+03 -1.87954E+03  1.16966E+03 -4.35750E+03  5.12917E+03 -3.57184E+03
  6.49573E+03  2.80470E+02  6.96076E+03  3.86493E+03  2.29197E+03  6.55551E+03 -2.39585E+03  6.30785E+03
 -5.17436E+03  2.44906E+03 -5.84114E+03 -9.88294E+02 -3.41477E+03 -4.64882E+03  1.06917E+03 -3.56812E+03
  4.36439E+03 -2.03698E+03  3.26824E+03  1.48246E+03  1.18131E+03  3.95378E+03 -3.66453E+02  2.98345E+03
 -1.50728E+03  2.06875E+03 -1.45970E+03  9.34387E+02 -5.87719E+02  6.91494E+02 -1.00962E+03  1.37214E+03
 -2.10991E+03  2.66439E+03 -4.76026E+03  2.01560E+03 -6.24897E+03 -3.51347E+01 -7.64366E+03 -4.09072E+03
 -3.85303E+03 -8.32598E+03  1.63124E+03 -9.82076E+03  5.78745E+03 -7.59194E+03  9.27733E+03 -3.24557E+03
  8.73053E+03  1.67886E+03  5.32397E+03  5.93724E+03  3.90365E+02  6.69314E+03 -2.69206E+03  4.99878E+03
 -3.77716E+03  1.66315E+03 -1.94395E+03 -6.85953E+02 -6.34354E+02 -1.73345E+02 -7.35564E+02  2.90633E+02
 -1.85768E+03  2.31830E+02 -1.91369E+03  9.35498E+01 -4.86726E+02 -1.67881E+03 -1.90038E+01 -2.60465E+03
  2.90188E+03 -2.27954E+03  3.67342E+03 -4.35308E+01  4.60208E+03  3.47256E+03  9.36727E+02  6.11614E+03
 -2.89317E+03  7.74161E+03 -6.44434E+03  4.07208E+03 -7.24946E+03 -4.57115E+02 -5.47391E+03 -5.06441E+03
 -2.73723E+03 -6.38096E+03  1.70331E+03 -5.89498E+03  3.87997E+03 -3.09405E+03  3.87759E+03  3.49131E+02
  2.43505E+03  1.91550E+03  1.32428E+02  1.69146E+03 -1.18697E+03 -1.65513E+02  3.15583E+02 -1.56094E+03
  2.26527E+03 -7.28744E+02  2.19877E+03  6.99607E+02  1.41660E+03  2.35323E+03  1.92172E+02  3.12160E+03
 -2.42643E+03  2.91915E+03 -3.85017E+03  2.68308E+02 -3.54537E+03 -2.83634E+03 -8.47486E+02 -5.15870E+03
  3.13595E+03 -4.20868E+03  4.82187E+03 -1.35313E+03  4.65742E+03  7.57746E+02  2.23357E+03  3.86774E+03
  5.37135E+02  3.82478E+03 -1.15246E+03  2.99072E+03 -2.37430E+03  2.01966E+03 -1.89196E+03  3.57699E+02
 -9.88760E+02 -2.30302E+02 -1.19355E+03  4.17816E+02 -2.18281E+03  4.97649E+02 -3.10653E+03 -5.20991E+02
 -3.14157E+03 -1.42446E+03 -1.28352E+03 -4.15831E+03  1.83704E+03 -4.60371E+03  3.63034E+03 -1.70598E+03
  3.96393E+03  6.79731E+02  1.74903E+03  2.18202E+03 -5.55390E+02  3.79007E+03 -3.04158E+03  2.70713E+03
