 $NMID ID='MM_0lb_SNR800_9hz_g55_11.RAW', FMTDAT='(8E13.5)'
 TRAMP=1., VOLUME=1. $END
  3.09844E+05  2.83385E+02  3.38139E+05  2.50883E+05  8.46644E+04  3.38806E+05 -1.32948E+05  2.52030E+05
 -1.91038E+05  8.39315E+04 -1.12430E+05 -3.21794E+04  5.22217E+02 -5.06984E+04  5.33174E+04 -5.78464E+02
  3.57282E+04  5.30584E+04 -1.69660E+04  7.59244E+04 -6.13356E+04  6.44386E+04 -8.56230E+04  3.27864E+04
 -8.26282E+04 -1.19063E+04 -5.82629E+04 -5.20804E+04 -1.50061E+04 -7.14357E+04  2.87590E+04 -4.69090E+04
  4.14509E+04  3.73777E+03  1.67913E+04  4.85113E+04 -3.48888E+04  4.83799E+04 -6.78948E+04 -4.42138E+01
 -5.50458E+04 -5.81897E+04 -7.21844E+03 -7.93304E+04  3.49012E+04 -5.74060E+04  4.98932E+04 -1.86848E+04
  4.54844E+04  1.13303E+04  3.30272E+04  2.67066E+04  1.59784E+04  3.05318E+04 -6.18119E+03  2.78897E+04
 -2.22024E+04  1.15603E+04 -1.78408E+04 -5.72710E+03  7.31521E+03 -7.02445E+03  2.35301E+04  1.39566E+04
  6.91892E+03  3.75581E+04 -3.45311E+04  3.73398E+04 -6.56300E+04  1.98947E+03 -5.88295E+04 -4.47882E+04
 -1.27124E+04 -6.64775E+04  4.19007E+04 -4.77031E+04  6.14145E+04 -2.45507E+03  3.72712E+04  3.44012E+04
 -5.52543E+03  3.96326E+04 -3.18065E+04  1.87387E+04 -3.36478E+04 -3.56411E+03 -1.96642E+04 -1.21222E+04
 -9.91523E+03 -1.49719E+04 -1.91025E+02 -2.02609E+04  8.67967E+03 -2.34413E+04  1.60629E+04 -1.27952E+04
  1.05477E+04  6.42151E+03 -1.07781E+04  1.28277E+04 -2.34435E+04 -6.80018E+03 -8.39778E+03 -3.79311E+04
  2.55855E+04 -4.70710E+04  5.23500E+04 -2.09661E+04  4.88093E+04  2.06726E+04  1.77083E+04  4.73684E+04
 -1.66000E+04  3.65180E+04 -2.81943E+04  3.00575E+03 -1.20358E+04 -2.97631E+04  2.17870E+04 -3.72933E+04
  4.48060E+04 -1.11658E+04  4.14064E+04  2.52603E+04  2.18137E+04  5.12311E+04 -8.47915E+03  5.69252E+04
 -3.58627E+04  3.88932E+04 -4.83516E+04  1.18030E+04 -4.84025E+04 -1.85891E+04 -2.63265E+04 -4.26624E+04
  8.03324E+03 -4.27636E+04  3.42959E+04 -1.75118E+04  3.22335E+04  1.12868E+04  5.17057E+03  2.10960E+04
 -1.43120E+04  1.00765E+04 -1.12072E+04 -7.39426E+03  5.46602E+03 -1.12520E+04  1.92302E+04  5.59906E+03
  1.48119E+04  2.30349E+04 -5.48069E+03  2.72337E+04 -2.36258E+04  1.45960E+04 -3.17089E+04 -2.33641E+03
 -2.58261E+04 -1.85482E+04 -1.18933E+04 -2.56737E+04  4.30534E+03 -2.62692E+04  2.03640E+04 -2.36529E+04
  3.26524E+04 -1.43341E+04  3.86054E+04  4.80445E+03  2.74310E+04  2.50061E+04  4.24553E+03  4.18606E+04
 -2.03675E+04  3.37123E+04 -3.06258E+04  1.15250E+04 -2.26917E+04 -9.80314E+03 -5.11865E+03 -1.28532E+04
  9.12798E+02 -9.22125E+02 -7.89956E+03  8.34488E+03 -2.09697E+04  5.23101E+03 -2.04171E+04 -9.87810E+03
 -1.25999E+04 -2.39114E+04  6.08659E+03 -2.84735E+04  1.88678E+04 -2.00064E+04  2.28641E+04 -2.17611E+03
  1.48773E+04  1.64358E+04 -1.18500E+03  2.34602E+04 -1.72263E+04  1.37649E+04 -2.45078E+04 -4.68878E+03
 -1.75150E+04 -2.11594E+04 -2.34288E+03 -2.87576E+04  1.30065E+04 -2.37769E+04  2.31731E+04 -1.22159E+04
  2.23558E+04 -5.53421E+02  1.60526E+04  5.48317E+03  8.99379E+03  1.20425E+03  1.23061E+04 -1.80208E+03
  2.22603E+04  3.03418E+03  2.62123E+04  1.89856E+04  1.81679E+04  3.81467E+04 -2.35318E+03  4.57130E+04
 -2.58535E+04  3.78497E+04 -4.29760E+04  1.97489E+04 -4.57154E+04 -3.05824E+03 -3.69405E+04 -2.67015E+04
 -1.44164E+04 -3.79524E+04  1.36906E+04 -3.30052E+04  2.83757E+04 -1.54747E+04  2.43294E+04  8.33667E+03
  8.02250E+03  1.91477E+04 -1.17756E+04  1.57192E+04 -2.06031E+04  2.88129E+03 -1.53348E+04 -1.31435E+04
 -6.69450E+01 -2.01969E+04  1.06935E+04 -1.45083E+04  1.40261E+04 -1.63203E+03  3.34488E+03  9.05739E+03
 -8.74047E+03  4.34346E+03 -9.43267E+03 -7.09840E+03 -1.65791E+03 -1.89647E+04  1.24979E+04 -2.02053E+04
  2.38339E+04 -1.15078E+04  2.66883E+04  3.32476E+03  2.35790E+04  1.90509E+04  1.09704E+04  2.95175E+04
 -5.89228E+03  3.19125E+04 -2.06906E+04  1.98172E+04 -2.30105E+04  4.37081E+03 -1.55855E+04 -5.59178E+03
 -6.67679E+03 -7.55690E+03 -3.76926E+02  2.68840E+02 -2.88984E+03  3.89427E+03 -7.19345E+03  5.51211E+03
 -1.44223E+04 -9.75936E+02 -1.51567E+04 -1.19294E+04 -6.46549E+03 -1.93266E+04  6.52035E+03 -1.60226E+04
  1.35030E+04 -6.50710E+03  9.65429E+03  4.50282E+03 -3.14310E+02  6.70400E+03 -8.20177E+03 -3.42445E+02
 -7.79260E+03 -1.03197E+04 -1.15296E+03 -1.58943E+04  8.77146E+03 -1.68742E+04  2.05635E+04 -8.92326E+03
  2.45641E+04  2.58067E+03  1.75412E+04  1.47669E+04  3.72659E+03  1.98581E+04 -9.80927E+03  1.62124E+04
 -1.32054E+04  4.88677E+03 -6.62503E+03 -3.98435E+03  2.05396E+03 -4.70918E+03  8.39696E+03 -1.40788E+03
  7.52693E+03  7.33144E+03  9.70310E+02  1.27035E+04 -9.24386E+03  1.24886E+04 -1.62171E+04  2.62712E+03
 -1.08389E+04 -8.57867E+03  1.64158E+02 -1.41753E+04  9.16918E+03 -6.72013E+03  9.93196E+03  3.51178E+03
  2.74928E+03  1.06472E+04 -8.74269E+03  1.19886E+04 -1.41816E+04  5.42935E+03 -1.47025E+04 -5.17648E+03
 -8.07189E+03 -1.59671E+04  4.04273E+03 -1.92020E+04  1.57209E+04 -1.10814E+04  1.71940E+04  2.62829E+03
  1.07009E+04  1.35240E+04 -1.91799E+03  1.66058E+04 -1.21423E+04  9.21001E+03 -1.31890E+04 -1.37108E+03
 -1.08008E+04 -1.07224E+04 -1.63160E+03 -1.23347E+04  6.52342E+03 -9.85823E+03  7.97494E+03 -3.94318E+03
  4.89853E+03  2.61867E+03 -9.19553E+02  1.97085E+03 -8.08195E+02 -3.47068E+03  2.98318E+03 -7.76544E+03
  1.19783E+04 -5.02372E+03  1.65602E+04  1.86863E+03  1.58082E+04  1.17580E+04  1.06166E+04  2.17270E+04
 -5.39777E+03  2.49068E+04 -2.07293E+04  1.79581E+04 -2.69526E+04  3.32715E+03 -2.17504E+04 -9.61824E+03
 -1.07547E+04 -1.77839E+04 -3.34975E+02 -1.51134E+04  5.35762E+03 -8.75830E+03  5.55658E+03 -5.27698E+03
  4.19552E+03 -3.15615E+03  3.90688E+03 -3.94814E+03  5.95593E+03 -4.19196E+03  8.55031E+03 -1.31964E+03
  1.12743E+04  2.63993E+03  6.40686E+03  9.90216E+03 -1.99795E+03  1.19686E+04 -1.19128E+04  8.99677E+03
 -1.53886E+04 -1.65304E+03 -9.95851E+03 -1.07203E+04 -2.06301E+03 -1.64008E+04  8.81524E+03 -1.62885E+04
  1.69469E+04 -9.15518E+03  2.05457E+04  3.03053E+03  1.38849E+04  1.42739E+04  2.06127E+03  1.85264E+04
 -7.41174E+03  1.49340E+04 -1.09247E+04  5.20826E+03 -7.37057E+03 -1.33180E+03 -3.16488E+03 -2.07782E+03
 -9.62217E+02  2.05028E+02 -2.42466E+03  3.43454E+03 -6.41291E+03  2.45441E+03 -1.03661E+04 -1.55844E+03
 -7.74287E+03 -1.01574E+04 -1.11116E+02 -1.54429E+04  9.59585E+03 -1.41376E+04  1.51844E+04 -4.24555E+03
  1.52446E+04  7.52897E+03  6.84107E+03  1.39086E+04 -3.10866E+03  1.58270E+04 -1.11590E+04  9.46146E+03
 -1.43040E+04  7.65222E+02 -1.11005E+04 -9.68476E+03 -1.45495E+03 -1.30783E+04  6.95378E+03 -9.53476E+03
  9.73350E+03 -2.96326E+03  6.45469E+03  2.53294E+03  2.14869E+03  4.34083E+03  1.38548E+03  2.06653E+03
  3.07257E+03  9.02806E+02  3.76978E+03  2.27846E+03  4.76567E+03  5.04231E+03  4.02137E+03  8.40005E+03
 -2.99731E+03  1.24606E+04 -1.08936E+04  1.21970E+04 -1.63424E+04  3.07461E+03 -1.66220E+04 -6.84530E+03
 -7.88895E+03 -1.55897E+04  2.46641E+03 -1.70981E+04  9.70301E+03 -1.09888E+04  1.30919E+04 -2.63788E+03
  9.87568E+03  5.78733E+03  2.20466E+03  8.82690E+03 -4.16238E+03  5.89066E+03 -6.32893E+03 -1.23953E+03
 -2.70516E+03 -6.89537E+03  3.57376E+03 -7.26297E+03  6.47902E+03 -3.17801E+03  6.14199E+03  9.66016E+02
  3.79706E+03  3.33718E+03  1.58833E+03  2.82320E+03 -6.35460E+02  2.15716E+03  1.41883E+03 -7.85732E+02
  2.36950E+03 -1.09253E+03  6.66465E+03  2.50997E+03  3.58610E+03  8.15491E+03 -1.02921E+03  1.13215E+04
 -7.64873E+03  7.94461E+03 -1.01443E+04  2.30407E+03 -9.05301E+03 -3.12940E+03 -3.49433E+03 -6.16867E+03
  8.17191E+02 -6.29992E+03  3.97882E+03 -2.54262E+03  3.24878E+03  3.06101E+03 -1.53022E+03  4.79669E+03
 -6.72700E+03  3.10509E+03 -7.51027E+03 -3.57997E+03 -4.07220E+03 -8.79419E+03  1.52419E+03 -8.89820E+03
  5.60205E+03 -5.02100E+03  6.40948E+03 -7.78669E+02  5.32398E+03  2.47688E+03  1.12825E+03  4.70707E+03
 -3.33609E+03  1.76100E+03 -3.89674E+03 -3.23183E+03  1.20600E+03 -6.88285E+03  7.78663E+03 -5.41541E+03
  9.92088E+03  6.17163E+02  1.00540E+04  6.74371E+03  3.10128E+03  1.04994E+04 -3.84004E+03  9.95522E+03
 -9.03396E+03  4.09750E+03 -8.98002E+03 -1.68379E+03 -4.96730E+03 -6.81824E+03  1.32274E+03 -6.19515E+03
  6.21926E+03 -2.91298E+03  5.57032E+03  2.59881E+03  1.58197E+03  6.01491E+03 -5.54291E+02  5.11939E+03
 -2.87948E+03  3.47325E+03 -2.20092E+03  1.52375E+03 -1.00722E+03  1.27714E+03 -1.17153E+03  2.20972E+03
 -2.89442E+03  3.86761E+03 -6.96281E+03  3.09516E+03 -1.03513E+04  4.91645E+02 -1.13521E+04 -6.89542E+03
 -6.02145E+03 -1.34291E+04  2.62266E+03 -1.62264E+04  1.02756E+04 -1.25805E+04  1.52333E+04 -4.66225E+03
  1.44513E+04  3.04796E+03  8.76556E+03  9.56826E+03  8.71949E+02  1.08963E+04 -4.76201E+03  7.77399E+03
 -6.28960E+03  3.14133E+03 -3.54953E+03 -1.08136E+03 -1.10697E+03 -1.15509E+03 -8.36222E+02  3.33150E+02
 -1.74867E+03  2.79127E+02 -2.14845E+03 -4.63340E+02 -1.13787E+03 -2.55497E+03  1.76439E+02 -4.16156E+03
  4.95773E+03 -3.87885E+03  6.89513E+03 -1.08402E+02  7.13552E+03  5.55682E+03  1.99437E+03  1.08463E+04
 -4.66162E+03  1.21632E+04 -1.15860E+04  7.37491E+03 -1.35753E+04 -1.21008E+03 -9.74390E+03 -8.05257E+03
 -3.96954E+03 -1.13441E+04  3.05428E+03 -1.02122E+04  6.78547E+03 -5.54208E+03  7.14072E+03  3.58208E+02
  4.11842E+03  3.59365E+03 -9.05589E+02  3.09513E+03 -2.13378E+03  1.79094E+01 -2.37490E+02 -3.07957E+03
  3.37609E+03 -1.57744E+03  4.08918E+03  9.77324E+02  2.61641E+03  4.16436E+03  1.59332E+02  5.41862E+03
 -4.96566E+03  5.10316E+03 -7.67989E+03  9.88480E+02 -6.26494E+03 -5.29883E+03 -9.46474E+02 -9.26953E+03
  4.96037E+03 -7.74384E+03  8.17829E+03 -2.39896E+03  8.40339E+03  1.87426E+03  4.64997E+03  6.87988E+03
  1.17845E+03  7.37798E+03 -2.63185E+03  6.08258E+03 -5.11216E+03  3.13540E+03 -3.94641E+03  5.92879E+02
 -1.87534E+03 -6.97086E+01 -2.27195E+03  5.98779E+02 -4.14425E+03  1.13247E+03 -5.56851E+03 -9.56447E+02
 -5.48529E+03 -3.58666E+03 -1.98103E+03 -7.33351E+03  3.50687E+03 -7.86191E+03  6.50942E+03 -3.66909E+03
  7.42309E+03  1.04254E+03  3.79053E+03  5.34242E+03 -8.06133E+02  7.21099E+03 -5.80114E+03  4.73388E+03
