 $NMID ID='MM_0lb_SNR800_16hz_g45_21.RAW', FMTDAT='(8E13.5)'
 TRAMP=1., VOLUME=1. $END
  3.10043E+05  6.16218E+02  3.37315E+05  2.50467E+05  8.44071E+04  3.37147E+05 -1.32481E+05  2.50715E+05
 -1.90109E+05  8.26558E+04 -1.11408E+05 -3.25525E+04  1.45116E+03 -4.99333E+04  5.39158E+04 -8.74314E+01
  3.52866E+04  5.27850E+04 -1.68154E+04  7.50954E+04 -6.06983E+04  6.29871E+04 -8.34570E+04  3.19906E+04
 -8.03512E+04 -1.14613E+04 -5.64936E+04 -5.05800E+04 -1.49894E+04 -6.85550E+04  2.71956E+04 -4.53165E+04
  3.95323E+04  3.85155E+03  1.58192E+04  4.74099E+04 -3.43728E+04  4.64568E+04 -6.60614E+04 -3.10282E+02
 -5.25988E+04 -5.63394E+04 -6.34961E+03 -7.60556E+04  3.37512E+04 -5.37851E+04  4.70175E+04 -1.65589E+04
  4.25376E+04  1.10553E+04  3.14459E+04  2.48696E+04  1.57488E+04  2.86389E+04 -4.88199E+03  2.70807E+04
 -2.21094E+04  1.24698E+04 -1.87640E+04 -4.64479E+03  4.83622E+03 -7.36507E+03  2.18411E+04  1.16739E+04
  7.42696E+03  3.39163E+04 -3.09619E+04  3.47752E+04 -6.19913E+04  2.22314E+03 -5.60870E+04 -4.21060E+04
 -1.26253E+04 -6.18323E+04  3.90314E+04 -4.44707E+04  5.67887E+04 -2.28232E+03  3.31074E+04  3.14759E+04
 -6.24728E+03  3.43074E+04 -2.89567E+04  1.43436E+04 -2.92529E+04 -4.94570E+03 -1.55772E+04 -1.04062E+04
 -8.12131E+03 -1.20748E+04 -8.60361E+02 -1.72514E+04  6.82755E+03 -2.28891E+04  1.51004E+04 -1.37337E+04
  1.18814E+04  4.56378E+03 -7.22742E+03  1.28760E+04 -2.01201E+04 -3.47675E+03 -8.27115E+03 -3.19188E+04
  2.18371E+04 -4.17904E+04  4.63997E+04 -1.90616E+04  4.35765E+04  1.86663E+04  1.51021E+04  4.33042E+04
 -1.57961E+04  3.22417E+04 -2.40905E+04  1.31527E+03 -8.92627E+03 -2.69890E+04  2.08377E+04 -3.24877E+04
  3.93505E+04 -8.18683E+03  3.36221E+04  2.33504E+04  1.64885E+04  4.44186E+04 -7.84584E+03  4.76498E+04
 -3.02754E+04  3.17210E+04 -3.94851E+04  8.62188E+03 -4.02938E+04 -1.57254E+04 -2.22043E+04 -3.60838E+04
  7.28867E+03 -3.58266E+04  3.02991E+04 -1.36692E+04  2.82104E+04  1.07330E+04  3.19438E+03  1.82428E+04
 -1.32455E+04  7.54577E+03 -1.00521E+04 -7.55397E+03  6.06607E+03 -1.01310E+04  1.74567E+04  6.26872E+03
  1.28400E+04  2.19868E+04 -6.41579E+03  2.39936E+04 -2.18135E+04  9.98172E+03 -2.64675E+04 -5.54443E+03
 -1.83926E+04 -1.66911E+04 -6.98069E+03 -1.84609E+04  4.13644E+03 -1.68988E+04  1.41180E+04 -1.64226E+04
  2.36004E+04 -1.24548E+04  3.02777E+04  1.92436E+03  2.24507E+04  1.83679E+04  4.36436E+03  3.43773E+04
 -1.66211E+04  2.87750E+04 -2.70550E+04  1.00162E+04 -2.01622E+04 -1.02971E+04 -3.97262E+03 -1.33162E+04
  2.44380E+03 -3.16851E+03 -3.78482E+03  5.77190E+03 -1.43270E+04  5.35114E+03 -1.47113E+04 -6.01582E+03
 -9.42624E+03 -1.73067E+04  5.02057E+03 -2.09360E+04  1.43115E+04 -1.52587E+04  1.62213E+04 -1.57135E+03
  1.02299E+04  1.18899E+04 -9.41257E+02  1.71353E+04 -1.15993E+04  9.56529E+03 -1.68390E+04 -3.65524E+03
 -1.26576E+04 -1.51429E+04 -1.76234E+03 -2.07724E+04  9.19611E+03 -1.66599E+04  1.73784E+04 -8.49650E+03
  1.60870E+04  3.08551E+02  1.13403E+04  4.21311E+03  5.88242E+03  4.74081E+02  8.63151E+03 -1.35028E+03
  1.54989E+04  2.76063E+03  1.68518E+04  1.38771E+04  1.09078E+04  2.71343E+04 -2.99218E+03  3.00809E+04
 -1.78138E+04  2.34187E+04 -2.78610E+04  1.14108E+04 -2.84525E+04 -2.08883E+03 -2.41131E+04 -1.66602E+04
 -1.10268E+04 -2.38049E+04  8.18920E+03 -2.14881E+04  1.87289E+04 -1.16899E+04  1.71228E+04  4.66440E+03
  6.86235E+03  1.25777E+04 -8.14967E+03  1.12123E+04 -1.50357E+04  2.56306E+03 -1.11503E+04 -9.13218E+03
 -3.51943E+02 -1.38991E+04  6.80368E+03 -1.00531E+04  8.77535E+03 -1.38625E+03  1.74812E+03  5.89291E+03
 -5.81929E+03  2.03060E+03 -5.00193E+03 -4.96532E+03  1.63691E+02 -1.17869E+04  8.69254E+03 -1.16939E+04
  1.42614E+04 -5.99398E+03  1.47984E+04  2.77694E+03  1.28861E+04  1.12185E+04  6.22298E+03  1.70077E+04
 -2.20165E+03  1.90704E+04 -1.19821E+04  1.17480E+04 -1.32846E+04  3.33016E+03 -1.00191E+04 -2.66041E+03
 -4.77084E+03 -3.69178E+03 -1.11021E+03  1.17252E+03 -1.98511E+03  1.82552E+03 -4.15933E+03  4.08727E+03
 -9.06685E+03 -4.08574E+02 -9.87105E+03 -7.86746E+03 -3.86455E+03 -1.30695E+04  4.10788E+03 -9.92385E+03
  8.19738E+03 -4.17165E+03  6.08973E+03  2.67149E+03  4.01809E+02  3.87200E+03 -4.28646E+03 -1.80341E+02
 -3.78419E+03 -6.12126E+03 -7.91851E+02 -8.92571E+03  5.15252E+03 -9.31123E+03  1.18203E+04 -4.82585E+03
  1.34310E+04  9.39817E+02  1.02373E+04  7.53973E+03  2.14319E+03  1.04419E+04 -6.10664E+03  9.47076E+03
 -8.00980E+03  2.86157E+03 -4.15450E+03 -1.83405E+03  1.23410E+03 -2.32112E+03  5.45924E+03 -8.21142E+02
  4.76218E+03  3.80431E+03  9.67457E+02  7.42214E+03 -4.92616E+03  7.33218E+03 -9.12231E+03  2.14713E+03
 -5.82778E+03 -4.49922E+03  2.54009E+02 -7.51746E+03  4.43703E+03 -3.51676E+03  4.67437E+03  1.32028E+03
  1.02177E+03  4.47217E+03 -4.85252E+03  5.77634E+03 -6.41304E+03  2.92230E+03 -6.26408E+03 -1.82508E+03
 -3.77043E+03 -8.13636E+03  1.76733E+03 -9.02301E+03  7.34760E+03 -5.85969E+03  8.43469E+03  1.39587E+03
  5.81349E+03  6.49499E+03 -3.36158E+02  8.77840E+03 -6.08182E+03  4.97749E+03 -6.53560E+03 -2.90074E+02
 -6.80596E+03 -6.06160E+03 -1.53598E+03 -6.05016E+03  3.45772E+03 -5.71333E+03  3.71786E+03 -3.35200E+03
  3.33302E+03  2.69199E+02 -1.77920E+02  1.72520E+03  4.27707E+02 -8.20653E+02  3.41901E+02 -2.58583E+03
  5.04479E+03 -1.62742E+03  7.21473E+03  1.13598E+03  7.18153E+03  4.69337E+03  6.12873E+03  9.43392E+03
 -1.93384E+03  1.12762E+04 -9.50106E+03  8.39207E+03 -1.23877E+04  1.64966E+03 -1.02831E+04 -3.73594E+03
 -5.35084E+03 -8.29611E+03 -1.42822E+02 -6.77136E+03  2.70370E+03 -2.99388E+03  2.40440E+03 -2.47465E+03
  1.87136E+03 -1.67355E+03  2.57138E+03 -2.44716E+03  4.01110E+03 -1.74304E+03  4.23453E+03  1.44826E+02
  5.59369E+03  1.59834E+03  1.98203E+03  4.44295E+03 -1.53958E+03  4.21201E+03 -5.50229E+03  3.55267E+03
 -6.36891E+03 -1.10163E+03 -3.20767E+03 -4.37002E+03  1.59676E+01 -6.58658E+03  4.30425E+03 -7.15930E+03
  7.25798E+03 -4.14561E+03  9.08111E+03  2.16234E+02  6.30280E+03  5.80140E+03  1.46135E+03  7.67114E+03
 -2.93126E+03  7.21147E+03 -4.39974E+03  2.38855E+03 -2.90756E+03 -1.19015E+03 -9.89554E+02 -9.84476E+02
 -4.37090E+02  3.57605E+02 -9.50905E+02  2.03223E+03 -2.84482E+03  1.38599E+03 -5.28314E+03 -4.78470E+02
 -2.52204E+03 -5.28644E+03  1.00052E+03 -6.17134E+03  3.76575E+03 -5.77190E+03  5.53540E+03 -1.74250E+03
  5.46373E+03  3.07597E+03  2.59775E+03  5.13642E+03 -1.13461E+03  6.18660E+03 -3.95185E+03  3.81321E+03
 -5.50429E+03  5.70512E+02 -4.45470E+03 -3.41608E+03 -1.74678E+02 -4.40794E+03  2.14596E+03 -3.58756E+03
  3.77414E+03 -1.68309E+03  2.09313E+03  7.33952E+02  8.76039E+02  2.03719E+03  6.09105E+02  6.20176E+02
  1.81769E+03  8.39618E+02  1.66421E+03  1.16368E+03  1.51128E+03  2.56279E+03  1.49023E+03  2.71027E+03
 -1.24573E+03  3.93758E+03 -3.79082E+03  5.22461E+03 -4.41172E+03  1.51161E+03 -5.92385E+03 -1.45750E+03
 -2.70526E+03 -5.31499E+03  9.70895E+02 -6.41525E+03  3.23304E+03 -4.04045E+03  4.41326E+03 -1.02682E+03
  3.36294E+03  2.21673E+03  6.26128E+02  3.01368E+03 -1.34023E+03  1.56982E+03 -1.66400E+03 -6.60436E+01
 -1.15314E+03 -1.99957E+03  1.53508E+03 -2.07843E+03  2.09078E+03 -1.56538E+03  1.79608E+03  5.09181E+02
  1.16269E+03  4.12833E+02  8.77377E+02  1.34421E+02 -6.00501E+02  9.74849E+02  1.58625E+03 -4.02906E+02
  4.36363E+02  2.08227E+01  2.33771E+03  1.06135E+03  5.00813E+02  3.19284E+03 -3.92980E+02  4.02314E+03
 -2.37551E+03  1.54835E+03 -2.99964E+03  5.27400E+02 -3.03131E+03 -9.21070E+02 -3.35434E+02 -1.90670E+03
  4.72366E+02 -1.67126E+03  1.61086E+03 -9.55932E+02  1.03952E+03  1.36130E+03 -6.93527E+02  1.80174E+03
 -2.29670E+03  1.14101E+03 -2.11618E+03 -1.58189E+03 -1.25441E+03 -3.06320E+03  1.21130E+02 -2.43658E+03
  1.10573E+03 -1.16786E+03  1.44401E+03  3.48590E+02  1.87460E+03  1.93457E+02  1.15471E+02  1.58010E+03
 -4.62718E+02  5.65863E+02 -1.55509E+03 -5.78146E+02  8.16536E+02 -1.52218E+03  2.62918E+03 -1.58654E+03
  2.38455E+03  2.72929E+02  3.44676E+03  1.57155E+03  1.11907E+03  2.70702E+03 -7.78873E+02  2.96757E+03
 -2.28092E+03  7.21008E+02 -2.41522E+03 -5.42002E+02 -1.11990E+03 -1.97248E+03  5.45216E+02 -1.39214E+03
  2.16805E+03 -7.38284E+02  1.55922E+03  1.03201E+03  2.18389E+02  1.84114E+03  1.02065E+02  1.41072E+03
 -6.75871E+02  1.11301E+03 -8.62100E+02  3.45255E+02 -2.87878E+02  4.94605E+02 -9.03114E+02  7.49847E+02
 -1.04961E+03  1.18849E+03 -2.36587E+03  5.31615E+02 -2.78009E+03  1.65380E+02 -3.54476E+03 -1.65206E+03
 -1.46640E+03 -3.34680E+03  6.95072E+02 -4.50066E+03  2.07236E+03 -3.60823E+03  4.14588E+03 -1.48114E+03
  3.73504E+03  2.92548E+02  1.97382E+03  2.60165E+03 -1.70346E+02  2.50937E+03 -1.38248E+03  2.17466E+03
 -1.42492E+03  8.37012E+02 -7.46130E+02 -3.87387E+02 -5.67969E+02  2.79161E+02 -6.47016E+02 -1.32000E+02
 -1.36692E+03  1.79923E+02 -1.01531E+03 -1.00925E+01 -4.60276E+01 -8.29919E+02 -5.34837E+02 -1.34346E+03
  1.73056E+03 -1.09429E+03  1.11034E+03  1.48733E+02  1.92253E+03  1.60293E+03 -2.24713E+02  2.26639E+03
 -1.67094E+03  3.42266E+03 -2.66293E+03  1.85342E+03 -3.18362E+03 -2.19697E+02 -2.37788E+03 -2.26458E+03
 -1.41722E+03 -2.40742E+03  8.76657E+02 -2.00907E+03  1.56984E+03 -1.17202E+03  1.46484E+03  4.44590E+01
  8.13821E+02  9.18617E+02  1.32761E+02  6.48979E+02 -5.50267E+02 -2.04477E+02  1.80669E+01 -4.55868E+02
  6.83896E+02 -1.16955E+02  6.30785E+02  4.53823E+02  6.46252E+02  9.39873E+02  2.48490E+02  7.39418E+02
 -1.02639E+03  1.06701E+03 -1.23015E+03  2.54945E+02 -1.38871E+03 -1.01767E+03 -1.80320E+02 -2.13427E+03
  1.24478E+03 -1.28843E+03  1.40102E+03 -2.25262E+02  1.78326E+03 -2.05697E+02  1.05220E+03  1.44281E+03
  9.40293E+02  1.40541E+03 -4.26863E+02  9.26150E+02 -1.12838E+03  7.48984E+02 -7.74817E+02  4.97426E+01
 -4.77117E+02  7.44794E+01 -8.76124E+02  1.56173E+02 -8.53033E+02  4.94065E+02 -1.31893E+03 -3.80549E+02
 -1.52187E+03 -5.48428E+01 -5.55825E+01 -1.58180E+03  9.39478E+02 -2.32853E+03  1.08009E+03 -6.14025E+02
  1.40045E+03  7.33418E+00  4.96685E+01  1.01508E+03 -2.87935E+02  1.50047E+03 -9.60710E+02  1.03334E+03
