 $NMID ID='MM_0lb_SNR800_16hz_g40_68.RAW', FMTDAT='(8E13.5)'
 TRAMP=1., VOLUME=1. $END
  3.09540E+05  2.50483E+02  3.37322E+05  2.50750E+05  8.45568E+04  3.37513E+05 -1.32243E+05  2.50235E+05
 -1.90070E+05  8.27856E+04 -1.11270E+05 -3.28136E+04  1.47081E+03 -5.04388E+04  5.39320E+04 -1.10127E+02
  3.50765E+04  5.32174E+04 -1.69166E+04  7.51524E+04 -6.03909E+04  6.28527E+04 -8.31510E+04  3.15594E+04
 -7.97402E+04 -1.12082E+04 -5.65520E+04 -5.03465E+04 -1.50668E+04 -6.86410E+04  2.68190E+04 -4.50282E+04
  3.92008E+04  3.93841E+03  1.57076E+04  4.70307E+04 -3.41634E+04  4.64032E+04 -6.58956E+04 -2.65793E+02
 -5.25806E+04 -5.64844E+04 -6.43818E+03 -7.58114E+04  3.33535E+04 -5.36907E+04  4.64930E+04 -1.65309E+04
  4.20313E+04  1.09810E+04  3.10239E+04  2.46644E+04  1.59592E+04  2.85392E+04 -4.69863E+03  2.66540E+04
 -2.18886E+04  1.25358E+04 -1.89456E+04 -4.79494E+03  4.81339E+03 -7.27288E+03  2.17534E+04  1.16568E+04
  7.22380E+03  3.37199E+04 -3.10127E+04  3.45421E+04 -6.14926E+04  1.69194E+03 -5.59226E+04 -4.18314E+04
 -1.24357E+04 -6.14947E+04  3.85479E+04 -4.39022E+04  5.64274E+04 -2.08344E+03  3.25702E+04  3.14494E+04
 -6.38143E+03  3.38902E+04 -2.89102E+04  1.43148E+04 -2.82409E+04 -4.79176E+03 -1.50205E+04 -1.04734E+04
 -7.78046E+03 -1.18435E+04 -9.42217E+02 -1.69402E+04  6.99667E+03 -2.25236E+04  1.52951E+04 -1.36975E+04
  1.21657E+04  4.76589E+03 -6.89690E+03  1.30980E+04 -1.96958E+04 -3.27414E+03 -8.15858E+03 -3.13510E+04
  2.15395E+04 -4.13837E+04  4.57778E+04 -1.91675E+04  4.32376E+04  1.89941E+04  1.46586E+04  4.22959E+04
 -1.52416E+04  3.18764E+04 -2.41568E+04  1.23127E+03 -8.61380E+03 -2.71271E+04  2.08032E+04 -3.22904E+04
  3.92774E+04 -7.78012E+03  3.26086E+04  2.32881E+04  1.63821E+04  4.38004E+04 -8.12089E+03  4.67711E+04
 -2.92064E+04  3.09616E+04 -3.87489E+04  8.61872E+03 -3.96829E+04 -1.55592E+04 -2.18423E+04 -3.55922E+04
  7.04356E+03 -3.54489E+04  2.98532E+04 -1.32428E+04  2.77377E+04  1.08573E+04  3.21041E+03  1.81345E+04
 -1.31724E+04  7.72959E+03 -9.73901E+03 -7.70084E+03  5.61893E+03 -1.04118E+04  1.72199E+04  6.34808E+03
  1.26334E+04  2.16825E+04 -6.68075E+03  2.38710E+04 -2.17158E+04  9.86696E+03 -2.57291E+04 -6.03042E+03
 -1.81117E+04 -1.69469E+04 -6.48422E+03 -1.81216E+04  3.85089E+03 -1.61547E+04  1.33963E+04 -1.58141E+04
  2.29352E+04 -1.21846E+04  2.97032E+04  1.61895E+03  2.19850E+04  1.77129E+04  4.28477E+03  3.37575E+04
 -1.64710E+04  2.85482E+04 -2.66280E+04  9.91677E+03 -1.99943E+04 -1.03047E+04 -4.06066E+03 -1.38860E+04
  2.17108E+03 -3.61803E+03 -3.42297E+03  5.62241E+03 -1.40895E+04  5.29286E+03 -1.42725E+04 -5.50469E+03
 -9.08744E+03 -1.65464E+04  4.78497E+03 -2.05193E+04  1.38487E+04 -1.48066E+04  1.58200E+04 -1.64594E+03
  9.90792E+03  1.15765E+04 -1.01967E+03  1.69975E+04 -1.12256E+04  9.26695E+03 -1.68035E+04 -3.90076E+03
 -1.21846E+04 -1.54043E+04 -1.48785E+03 -2.05525E+04  8.97664E+03 -1.65649E+04  1.73333E+04 -8.08617E+03
  1.59106E+04  7.77015E+02  1.12527E+04  3.85848E+03  5.72544E+03  6.74316E+02  8.55429E+03 -1.54487E+03
  1.50099E+04  2.87597E+03  1.62427E+04  1.35985E+04  1.07248E+04  2.68590E+04 -2.97054E+03  2.92762E+04
 -1.71428E+04  2.27635E+04 -2.71063E+04  1.11557E+04 -2.79563E+04 -2.21943E+03 -2.34184E+04 -1.58620E+04
 -1.06476E+04 -2.30226E+04  7.89998E+03 -2.08777E+04  1.84531E+04 -1.16427E+04  1.70895E+04  4.48404E+03
  6.89501E+03  1.21575E+04 -7.92519E+03  1.12423E+04 -1.44431E+04  2.79187E+03 -1.08780E+04 -8.43461E+03
 -3.37048E+02 -1.33697E+04  6.77957E+03 -1.03175E+04  8.61076E+03 -1.42510E+03  1.78236E+03  5.50775E+03
 -5.97270E+03  1.93585E+03 -4.55863E+03 -4.97928E+03  1.67735E+02 -1.15673E+04  8.22721E+03 -1.14243E+04
  1.37828E+04 -5.68664E+03  1.39813E+04  2.88037E+03  1.23376E+04  1.12828E+04  5.80926E+03  1.62790E+04
 -1.78744E+03  1.84901E+04 -1.13183E+04  1.14595E+04 -1.27026E+04  3.07862E+03 -9.38650E+03 -2.65587E+03
 -4.79590E+03 -3.86761E+03 -1.02369E+03  1.15542E+03 -1.77510E+03  2.08111E+03 -4.16899E+03  3.92084E+03
 -9.11133E+03 -5.05753E+02 -9.53392E+03 -7.88263E+03 -3.95336E+03 -1.26742E+04  4.00773E+03 -9.45813E+03
  8.03935E+03 -4.26739E+03  5.94051E+03  2.47088E+03  5.27706E+02  3.31011E+03 -4.13743E+03 -2.33515E+02
 -4.02739E+03 -6.00471E+03 -9.06981E+02 -8.73661E+03  4.84712E+03 -9.01950E+03  1.17406E+04 -4.68447E+03
  1.34362E+04  9.18666E+02  9.90116E+03  7.41864E+03  2.21352E+03  1.01033E+04 -6.02191E+03  9.35390E+03
 -7.88503E+03  3.14979E+03 -4.21510E+03 -1.40789E+03  1.62847E+03 -2.27107E+03  5.33077E+03 -1.04160E+03
  4.53058E+03  3.94740E+03  1.23799E+03  7.41791E+03 -5.28125E+03  6.97776E+03 -8.84539E+03  2.09891E+03
 -5.66183E+03 -4.42457E+03  3.87914E+02 -7.75531E+03  4.50113E+03 -3.91253E+03  4.06022E+03  1.31288E+03
  6.49728E+02  4.23189E+03 -4.52363E+03  5.71272E+03 -6.12520E+03  2.69219E+03 -5.53296E+03 -1.78402E+03
 -3.85845E+03 -7.33631E+03  1.55014E+03 -8.50786E+03  7.33686E+03 -5.42163E+03  7.91074E+03  1.19028E+03
  5.55598E+03  6.26203E+03 -2.18394E+02  8.48006E+03 -5.87897E+03  4.78079E+03 -6.60473E+03 -6.93214E+02
 -6.35331E+03 -6.28397E+03 -1.19868E+03 -6.02922E+03  3.06564E+03 -5.51012E+03  3.67919E+03 -2.94682E+03
  2.83139E+03  4.53165E+02  4.81351E+01  1.28283E+03  4.26110E+02 -5.16516E+02  7.90461E+02 -2.57151E+03
  5.06047E+03 -1.42568E+03  7.08268E+03  9.24799E+02  6.98886E+03  3.95836E+03  6.15699E+03  9.25148E+03
 -1.92011E+03  1.09356E+04 -9.62646E+03  8.15143E+03 -1.23214E+04  1.45393E+03 -9.66386E+03 -3.44665E+03
 -5.02576E+03 -8.19284E+03 -3.02884E+02 -6.69285E+03  2.40215E+03 -3.00323E+03  2.03458E+03 -2.66605E+03
  1.62946E+03 -1.81590E+03  2.26750E+03 -2.49051E+03  3.95188E+03 -1.57713E+03  4.41644E+03  2.23110E+02
  5.40375E+03  1.51789E+03  1.87544E+03  4.54711E+03 -1.66820E+03  3.88981E+03 -5.65366E+03  3.49058E+03
 -6.58808E+03 -1.34947E+03 -3.10946E+03 -4.39697E+03  2.64856E+01 -6.71888E+03  3.94449E+03 -6.87621E+03
  6.85750E+03 -3.84637E+03  8.55719E+03  4.63624E+02  6.25200E+03  5.58399E+03  1.45800E+03  7.64704E+03
 -2.69838E+03  7.38177E+03 -4.47543E+03  2.43966E+03 -2.60000E+03 -1.17605E+03 -9.43680E+02 -9.05234E+02
 -5.28239E+02  4.08904E+02 -1.02642E+03  2.19651E+03 -3.17478E+03  1.35717E+03 -5.05779E+03 -6.07800E+02
 -2.19342E+03 -5.27949E+03  5.53499E+02 -6.15154E+03  3.63579E+03 -5.73777E+03  5.32981E+03 -1.77762E+03
  5.42953E+03  3.27355E+03  2.55138E+03  4.76672E+03 -9.74293E+02  5.86964E+03 -3.98269E+03  3.41873E+03
 -5.21590E+03  5.99734E+02 -4.66872E+03 -3.39106E+03 -4.47476E+02 -4.45103E+03  2.26368E+03 -3.32452E+03
  3.69642E+03 -1.42932E+03  2.29810E+03  6.56745E+02  7.38311E+02  2.00548E+03  8.43983E+02  9.44830E+02
  1.93434E+03  6.71837E+02  1.47951E+03  1.27776E+03  1.63621E+03  2.72867E+03  1.64073E+03  2.63722E+03
 -1.49097E+03  3.90949E+03 -3.47220E+03  5.19511E+03 -4.59669E+03  1.45109E+03 -5.75724E+03 -1.16840E+03
 -2.60576E+03 -5.24303E+03  7.87542E+02 -6.11844E+03  2.77651E+03 -3.50822E+03  4.66468E+03 -1.25615E+03
  3.31215E+03  2.11581E+03  5.98480E+02  2.89585E+03 -1.44355E+03  1.98434E+03 -1.61631E+03 -2.57114E+02
 -1.03790E+03 -2.18472E+03  1.35472E+03 -2.03417E+03  1.96630E+03 -1.22951E+03  2.10886E+03  5.36965E+02
  1.23186E+03  5.27952E+02  9.53723E+02  1.76247E+02 -4.55429E+02  8.68651E+02  1.50655E+03 -4.50025E+02
  3.11707E+02 -3.86431E+02  2.29240E+03  9.58363E+02  7.41123E+02  2.91333E+03 -3.29367E+02  3.98883E+03
 -2.46571E+03  1.72842E+03 -3.06570E+03  8.47451E+02 -3.28961E+03 -1.11107E+03 -7.19240E+02 -1.77043E+03
  6.38470E+02 -1.77318E+03  1.29698E+03 -7.23297E+02  9.39407E+02  1.56781E+03 -1.00807E+03  1.57119E+03
 -2.17135E+03  1.07788E+03 -2.00181E+03 -1.66769E+03 -1.02234E+03 -3.04307E+03  2.70611E+02 -2.54028E+03
  1.19462E+03 -1.40704E+03  1.48222E+03 -1.23743E+02  2.02328E+03  5.49787E+02  2.33486E+02  1.84531E+03
 -8.12580E+02  1.07381E+02 -1.18594E+03 -4.83769E+02  7.85825E+02 -1.90742E+03  2.43558E+03 -1.64415E+03
  2.41210E+03 -2.06277E+01  3.39850E+03  1.68646E+03  1.36559E+03  2.68113E+03 -7.69027E+02  2.66722E+03
 -2.29368E+03  5.12835E+02 -2.46979E+03 -1.35299E+02 -1.17034E+03 -1.86715E+03  5.34015E+02 -1.20516E+03
  2.07149E+03 -1.11173E+03  1.20243E+03  9.70380E+02  2.26082E+02  1.65560E+03  4.05675E+02  1.76614E+03
 -6.70569E+02  1.29932E+03 -5.77863E+02  1.40643E+02  5.22324E+01  3.83341E+02 -8.14872E+02  4.46768E+02
 -8.22934E+02  1.12214E+03 -2.40099E+03  9.82728E+02 -2.98056E+03  1.28148E+02 -3.56681E+03 -1.71076E+03
 -1.57109E+03 -3.69046E+03  9.72792E+02 -4.60061E+03  1.68482E+03 -3.78335E+03  4.38895E+03 -1.32409E+03
  4.02158E+03  6.88262E+01  2.10183E+03  2.56290E+03 -5.22740E+02  2.62043E+03 -1.03367E+03  1.84519E+03
 -1.59116E+03  8.41216E+02 -6.69581E+02 -1.89239E+02 -3.02620E+02  1.67365E+01 -6.14238E+02  3.97034E+01
 -1.24792E+03  8.59889E+01 -9.00174E+02 -1.81169E+01  2.54618E+02 -8.06502E+02 -3.77864E+02 -1.29668E+03
  1.84892E+03 -1.05703E+03  1.21630E+03  1.55083E+02  2.19843E+03  1.68726E+03 -1.35750E+02  2.66791E+03
 -1.33454E+03  3.51739E+03 -2.73148E+03  1.82306E+03 -2.65975E+03 -7.10188E+02 -2.35468E+03 -2.08557E+03
 -1.21183E+03 -2.63116E+03  4.76658E+02 -2.18698E+03  1.30725E+03 -1.00561E+03  1.34506E+03  3.80594E+02
  1.01892E+03  7.45289E+02  1.34144E+02  8.51443E+02 -7.82299E+02 -2.88652E+02 -1.11521E+02 -4.51541E+02
  9.21053E+02  3.92670E+02  7.17534E+02  3.61055E+02  2.50277E+02  7.65588E+02  3.30054E+02  6.63749E+02
 -1.04250E+03  1.32071E+03 -1.35129E+03  3.21977E+02 -1.21906E+03 -9.24860E+02 -3.41073E+02 -2.12521E+03
  1.18635E+03 -1.45393E+03  1.43515E+03 -1.39156E+02  1.66169E+03 -4.15129E+02  9.27048E+02  1.59359E+03
  2.80882E+02  1.20305E+03 -3.31373E+02  1.30373E+03 -9.51204E+02  1.15627E+03 -6.83593E+02  2.75992E+02
 -4.46532E+02 -1.54901E+02 -7.38567E+02  1.32513E+02 -9.49343E+02  2.67489E+02 -1.44409E+03 -1.85582E+02
 -1.54555E+03 -2.95441E+02 -6.39353E+02 -1.47961E+03  7.46425E+02 -1.93905E+03  1.38976E+03 -3.95151E+02
  1.23732E+03  4.08280E+02  9.82401E+01  8.62152E+02 -1.03655E+02  1.40694E+03 -8.75769E+02  1.40295E+03
