 $NMID ID='MM_0lb_SNR800_14hz_g60_59.RAW', FMTDAT='(8E13.5)'
 TRAMP=1., VOLUME=1. $END
  3.09846E+05  4.34839E+02  3.37730E+05  2.50604E+05  8.48560E+04  3.38202E+05 -1.32691E+05  2.51269E+05
 -1.90256E+05  8.33990E+04 -1.12027E+05 -3.25812E+04  7.89451E+02 -5.07656E+04  5.36614E+04 -3.27764E+02
  3.53929E+04  5.29684E+04 -1.64663E+04  7.57133E+04 -6.11678E+04  6.39571E+04 -8.45740E+04  3.19652E+04
 -8.14854E+04 -1.14991E+04 -5.75493E+04 -5.16689E+04 -1.54113E+04 -7.01393E+04  2.75648E+04 -4.58735E+04
  4.06804E+04  3.83993E+03  1.62291E+04  4.78693E+04 -3.48614E+04  4.75249E+04 -6.69476E+04 -3.04888E+02
 -5.43661E+04 -5.71259E+04 -7.35027E+03 -7.77456E+04  3.43848E+04 -5.54418E+04  4.87696E+04 -1.76003E+04
  4.38529E+04  1.18613E+04  3.21367E+04  2.56502E+04  1.56206E+04  3.00831E+04 -5.57378E+03  2.75868E+04
 -2.21258E+04  1.20734E+04 -1.86081E+04 -5.29577E+03  5.85110E+03 -7.66707E+03  2.26115E+04  1.27855E+04
  7.14404E+03  3.61947E+04 -3.26305E+04  3.58025E+04 -6.44408E+04  1.90108E+03 -5.76978E+04 -4.34280E+04
 -1.24308E+04 -6.41581E+04  4.09035E+04 -4.64711E+04  5.91812E+04 -2.21357E+03  3.50403E+04  3.30691E+04
 -5.87731E+03  3.75683E+04 -3.07449E+04  1.69574E+04 -3.12824E+04 -4.56604E+03 -1.79088E+04 -1.10457E+04
 -8.82585E+03 -1.38810E+04 -8.60833E+02 -1.84537E+04  7.69842E+03 -2.32545E+04  1.56706E+04 -1.31964E+04
  1.14565E+04  5.58263E+03 -8.67448E+03  1.31396E+04 -2.20031E+04 -5.38854E+03 -8.69900E+03 -3.49999E+04
  2.38144E+04 -4.46451E+04  4.95749E+04 -2.03656E+04  4.65239E+04  1.99299E+04  1.62632E+04  4.53882E+04
 -1.62668E+04  3.43265E+04 -2.59101E+04  2.07959E+03 -1.07581E+04 -2.82068E+04  2.13807E+04 -3.48622E+04
  4.23299E+04 -9.82946E+03  3.71379E+04  2.39742E+04  1.92142E+04  4.81807E+04 -8.01958E+03  5.20763E+04
 -3.29070E+04  3.52659E+04 -4.40331E+04  1.03833E+04 -4.46567E+04 -1.73513E+04 -2.43096E+04 -3.90950E+04
  7.25347E+03 -3.89651E+04  3.25787E+04 -1.54734E+04  3.03329E+04  1.06585E+04  4.29915E+03  1.93761E+04
 -1.37470E+04  8.62206E+03 -1.05555E+04 -8.01493E+03  5.98428E+03 -1.07354E+04  1.83220E+04  5.83355E+03
  1.40360E+04  2.25684E+04 -5.89403E+03  2.56715E+04 -2.25342E+04  1.25861E+04 -2.92620E+04 -4.26350E+03
 -2.19984E+04 -1.75764E+04 -9.50865E+03 -2.15683E+04  4.14292E+03 -2.13251E+04  1.70391E+04 -1.97865E+04
  2.78718E+04 -1.32579E+04  3.41271E+04  3.39877E+03  2.45657E+04  2.11692E+04  4.22413E+03  3.75284E+04
 -1.84041E+04  3.15507E+04 -2.85889E+04  1.10930E+04 -2.14499E+04 -1.02293E+04 -4.62500E+03 -1.30049E+04
  1.73141E+03 -2.12381E+03 -5.64994E+03  6.88576E+03 -1.69889E+04  5.10173E+03 -1.72736E+04 -8.20404E+03
 -1.07299E+04 -1.99796E+04  5.13236E+03 -2.42998E+04  1.60482E+04 -1.74963E+04  1.91661E+04 -1.91383E+03
  1.23505E+04  1.39661E+04 -1.03890E+03  2.02013E+04 -1.41250E+04  1.18076E+04 -2.01706E+04 -4.16743E+03
 -1.47985E+04 -1.81006E+04 -1.80646E+03 -2.45078E+04  1.12350E+04 -2.00337E+04  2.04220E+04 -1.02602E+04
  1.88283E+04  1.85016E+02  1.37682E+04  4.52992E+03  7.29961E+03  8.30570E+02  1.02340E+04 -1.91307E+03
  1.88236E+04  2.55845E+03  2.06835E+04  1.56949E+04  1.39733E+04  3.23036E+04 -2.88077E+03  3.65580E+04
 -2.13685E+04  2.95829E+04 -3.41945E+04  1.54024E+04 -3.61598E+04 -2.82358E+03 -2.97439E+04 -2.10089E+04
 -1.27770E+04 -2.99909E+04  1.01815E+04 -2.69577E+04  2.31481E+04 -1.33568E+04  2.04140E+04  6.25647E+03
  7.40585E+03  1.53503E+04 -9.56564E+03  1.33005E+04 -1.67475E+04  2.56922E+03 -1.27714E+04 -1.07851E+04
 -1.85044E+02 -1.63324E+04  8.37194E+03 -1.19513E+04  1.08041E+04 -1.32282E+03  2.43617E+03  6.83238E+03
 -7.36345E+03  2.75601E+03 -6.86756E+03 -6.10385E+03 -5.67971E+02 -1.48790E+04  9.82547E+03 -1.52241E+04
  1.81878E+04 -7.91985E+03  1.95219E+04  3.18575E+03  1.74718E+04  1.42716E+04  7.99016E+03  2.23839E+04
 -3.94993E+03  2.42211E+04 -1.55045E+04  1.48351E+04 -1.72609E+04  3.25917E+03 -1.23368E+04 -3.92880E+03
 -5.30598E+03 -5.84455E+03 -5.89160E+02  1.28155E+03 -2.85537E+03  2.65372E+03 -5.52996E+03  4.43626E+03
 -1.15011E+04 -4.31733E+02 -1.20213E+04 -9.40585E+03 -4.84653E+03 -1.56460E+04  4.85398E+03 -1.21018E+04
  1.01029E+04 -5.12542E+03  7.18885E+03  3.34192E+03 -5.39219E+01  5.02789E+03 -5.58923E+03  8.78707E+01
 -5.27846E+03 -7.98204E+03 -9.93266E+02 -1.15389E+04  6.61661E+03 -1.24708E+04  1.49156E+04 -6.22609E+03
  1.81273E+04  1.87110E+03  1.32118E+04  1.06392E+04  2.79388E+03  1.36940E+04 -7.51096E+03  1.20100E+04
 -9.67856E+03  3.76846E+03 -5.33152E+03 -2.55698E+03  1.64738E+03 -3.18571E+03  6.63883E+03 -6.06770E+02
  5.53640E+03  5.04506E+03  1.14796E+03  9.39927E+03 -6.83347E+03  9.37442E+03 -1.19131E+04  2.37490E+03
 -7.76079E+03 -5.94935E+03  1.05362E+02 -9.93550E+03  6.12821E+03 -4.90474E+03  6.58791E+03  2.24770E+03
  1.32175E+03  6.67243E+03 -6.05682E+03  8.29107E+03 -9.23160E+03  3.67266E+03 -9.08453E+03 -3.57612E+03
 -5.28807E+03 -1.07066E+04  2.39445E+03 -1.22438E+04  1.05356E+04 -7.67955E+03  1.11358E+04  1.88730E+03
  7.36088E+03  9.14503E+03 -6.92224E+02  1.16804E+04 -8.27950E+03  6.27817E+03 -8.90327E+03 -9.42202E+02
 -8.20800E+03 -7.80476E+03 -1.71876E+03 -8.29303E+03  4.30757E+03 -7.01423E+03  5.48004E+03 -3.26034E+03
  4.03312E+03  8.22716E+02 -4.65271E+02  1.65209E+03 -1.04044E+02 -1.93604E+03  1.48548E+03 -4.18648E+03
  7.68108E+03 -2.57640E+03  1.04902E+04  9.56482E+02  1.02970E+04  6.85522E+03  7.42555E+03  1.33593E+04
 -2.93256E+03  1.55819E+04 -1.34095E+04  1.16461E+04 -1.73540E+04  2.36140E+03 -1.36722E+04 -5.67700E+03
 -7.09590E+03 -1.12345E+04 -5.26421E+02 -9.36583E+03  3.60620E+03 -4.88044E+03  3.10715E+03 -3.77484E+03
  2.34532E+03 -2.20654E+03  2.78893E+03 -3.25152E+03  4.32352E+03 -2.17875E+03  5.65316E+03 -3.81415E+02
  7.42357E+03  1.74775E+03  3.03278E+03  5.73470E+03 -1.86340E+03  6.70126E+03 -7.67269E+03  5.30942E+03
 -9.32199E+03 -1.46401E+03 -5.09682E+03 -6.63181E+03 -3.75446E+02 -9.81354E+03  5.90998E+03 -9.71640E+03
  1.01423E+04 -5.91636E+03  1.20944E+04  1.32288E+03  8.59232E+03  8.26023E+03  1.47415E+03  1.09786E+04
 -4.52952E+03  9.85093E+03 -6.49639E+03  3.22486E+03 -4.12778E+03 -1.28313E+03 -1.58055E+03 -1.54418E+03
 -9.66158E+02  7.30136E+01 -1.70479E+03  2.22215E+03 -3.88073E+03  1.60933E+03 -6.68366E+03 -7.80938E+02
 -4.22738E+03 -6.77236E+03  6.37727E+02 -8.57740E+03  5.32331E+03 -8.20120E+03  8.26524E+03 -2.24751E+03
  8.14183E+03  4.05819E+03  3.71980E+03  7.34716E+03 -1.69111E+03  8.74425E+03 -5.99453E+03  5.18914E+03
 -7.86999E+03  8.93313E+02 -6.60160E+03 -5.46618E+03 -7.15364E+02 -6.84057E+03  3.36338E+03 -5.24647E+03
  5.46121E+03 -2.21817E+03  3.71998E+03  1.38657E+03  1.02347E+03  2.47396E+03  1.20190E+03  9.68388E+02
  1.82265E+03  1.00811E+03  2.18524E+03  1.14302E+03  2.61627E+03  2.97861E+03  2.70543E+03  4.38821E+03
 -1.94400E+03  6.35663E+03 -5.39450E+03  7.06986E+03 -8.10314E+03  1.78414E+03 -8.99593E+03 -2.82528E+03
 -3.84617E+03 -8.11348E+03  1.05874E+03 -9.58518E+03  4.66404E+03 -5.61254E+03  6.53299E+03 -1.46566E+03
  5.20418E+03  3.42048E+03  8.72525E+02  4.72035E+03 -2.02879E+03  2.65193E+03 -2.84943E+03 -3.71253E+02
 -1.40464E+03 -3.38754E+03  2.36502E+03 -3.83930E+03  3.16082E+03 -1.95905E+03  3.05381E+03  6.86171E+02
  1.80769E+03  1.11281E+03  8.43955E+02  8.08919E+02 -6.20494E+02  1.17453E+03  1.27985E+03 -4.92130E+02
  8.17090E+02 -4.02545E+02  3.39826E+03  1.26269E+03  1.59165E+03  4.57818E+03 -9.43208E+02  5.82756E+03
 -3.50291E+03  3.20316E+03 -4.76836E+03  7.91575E+02 -4.75456E+03 -1.75659E+03 -1.63421E+03 -2.83922E+03
  4.13531E+02 -2.65101E+03  2.35810E+03 -1.06309E+03  1.65751E+03  1.88269E+03 -1.22101E+03  2.56506E+03
 -3.32722E+03  1.25706E+03 -3.14424E+03 -1.93268E+03 -2.09667E+03 -4.33220E+03  6.63156E+02 -3.77403E+03
  2.27773E+03 -1.87732E+03  2.90486E+03 -3.27045E+02  2.69952E+03  6.76559E+02  1.94142E+02  2.28705E+03
 -1.37490E+03  3.71929E+02 -2.21244E+03 -1.33848E+03  9.66644E+02 -2.79482E+03  3.48641E+03 -2.03646E+03
  3.96774E+03 -5.19172E+01  4.95296E+03  2.66227E+03  1.84906E+03  4.45476E+03 -1.32970E+03  4.38066E+03
 -3.57329E+03  1.48041E+03 -3.81013E+03 -5.40616E+02 -2.04305E+03 -2.95302E+03  7.55375E+02 -2.53824E+03
  3.02290E+03 -1.81070E+03  2.45635E+03  1.03937E+03  3.84926E+02  2.68485E+03  7.42916E+01  2.28646E+03
 -1.18882E+03  1.72399E+03 -9.40212E+02  3.46350E+02 -4.94409E+02  6.55862E+02 -1.31379E+03  1.00795E+03
 -1.27163E+03  2.03844E+03 -3.54461E+03  1.46792E+03 -4.48909E+03  2.51405E+02 -5.60236E+03 -2.81884E+03
 -2.40949E+03 -5.79163E+03  9.99231E+02 -7.06035E+03  3.65405E+03 -5.27053E+03  6.52044E+03 -2.01671E+03
  5.67550E+03  4.92731E+02  3.52294E+03  4.15251E+03 -4.02928E+02  3.90880E+03 -1.86259E+03  3.29222E+03
 -2.40137E+03  1.15255E+03 -1.35155E+03 -2.18854E+02 -9.20286E+02  8.81361E+01 -5.39375E+02 -6.88656E+01
 -1.75532E+03  1.45330E+02 -1.57155E+03  9.48332E+01  3.34912E+01 -1.06825E+03 -3.89608E+01 -1.57705E+03
  2.15957E+03 -1.14462E+03  1.85116E+03  2.35783E+02  2.79110E+03  2.19402E+03  3.15020E+02  3.83373E+03
 -2.41195E+03  5.01970E+03 -4.30344E+03  3.21600E+03 -4.73264E+03 -2.26482E+02 -3.71231E+03 -3.44668E+03
 -1.88812E+03 -4.02216E+03  8.28473E+02 -3.79782E+03  2.39408E+03 -1.73262E+03  2.40977E+03  4.81248E+02
  1.72104E+03  1.22308E+03  9.71013E+01  1.13564E+03 -8.10862E+02 -6.82114E+00 -4.81103E+01 -8.15488E+02
  1.43364E+03 -1.63777E+02  1.54009E+03  9.58680E+02  8.15138E+02  1.56127E+03  4.18375E+02  1.85850E+03
 -1.70641E+03  1.99536E+03 -2.45282E+03  1.19710E+02 -2.26884E+03 -1.88213E+03  1.68010E+01 -3.23123E+03
  2.01293E+03 -2.27082E+03  2.69512E+03 -5.29380E+02  2.60576E+03 -1.11976E+02  1.12351E+03  2.38143E+03
  8.92361E+02  2.02873E+03 -8.70091E+02  1.92569E+03 -1.59751E+03  9.06792E+02 -9.91929E+02  1.86840E+02
 -5.44158E+02 -2.91184E+02 -8.44210E+02  5.18076E+02 -1.24537E+03  3.94664E+02 -1.86255E+03 -3.50521E+02
 -1.99426E+03 -7.19372E+02 -4.86727E+02 -2.70671E+03  1.50570E+03 -3.05142E+03  2.25708E+03 -1.13274E+03
  2.31340E+03  7.85880E+02  8.14456E+02  1.51657E+03 -2.48985E+02  2.70880E+03 -1.50916E+03  1.68181E+03
