 $NMID ID='MM_0lb_SNR800_13hz_g40_22.RAW', FMTDAT='(8E13.5)'
 TRAMP=1., VOLUME=1. $END
  3.09777E+05  3.45272E+02  3.37494E+05  2.50391E+05  8.48165E+04  3.38283E+05 -1.32573E+05  2.51021E+05
 -1.90576E+05  8.32481E+04 -1.11701E+05 -3.27361E+04  7.97750E+02 -5.07534E+04  5.39512E+04 -1.85274E+02
  3.55539E+04  5.25231E+04 -1.68143E+04  7.55167E+04 -6.08580E+04  6.33111E+04 -8.38391E+04  3.19574E+04
 -8.08129E+04 -1.13208E+04 -5.66640E+04 -5.12670E+04 -1.50111E+04 -6.96643E+04  2.74641E+04 -4.55683E+04
  3.98432E+04  3.66521E+03  1.61310E+04  4.73741E+04 -3.42743E+04  4.72440E+04 -6.66423E+04 -3.43809E+02
 -5.33911E+04 -5.67538E+04 -6.72476E+03 -7.66917E+04  3.38918E+04 -5.46411E+04  4.77694E+04 -1.72292E+04
  4.34412E+04  1.11974E+04  3.15143E+04  2.55342E+04  1.57676E+04  2.92478E+04 -5.25145E+03  2.72353E+04
 -2.20193E+04  1.24031E+04 -1.87308E+04 -4.88511E+03  5.46697E+03 -7.34011E+03  2.20805E+04  1.23618E+04
  7.25660E+03  3.53438E+04 -3.22259E+04  3.56107E+04 -6.33522E+04  2.01208E+03 -5.71789E+04 -4.26651E+04
 -1.24801E+04 -6.30352E+04  3.94967E+04 -4.50953E+04  5.81791E+04 -2.19609E+03  3.43148E+04  3.23273E+04
 -5.73030E+03  3.60631E+04 -2.99452E+04  1.57760E+04 -3.02145E+04 -4.97255E+03 -1.69893E+04 -1.09974E+04
 -8.53768E+03 -1.29240E+04 -9.08089E+02 -1.79999E+04  7.48390E+03 -2.30742E+04  1.57388E+04 -1.31924E+04
  1.15377E+04  5.23680E+03 -8.05446E+03  1.29944E+04 -2.12576E+04 -4.31400E+03 -8.35634E+03 -3.35673E+04
  2.26744E+04 -4.35413E+04  4.81003E+04 -1.99148E+04  4.48643E+04  1.92612E+04  1.55159E+04  4.44425E+04
 -1.56775E+04  3.33903E+04 -2.55115E+04  1.49357E+03 -9.94525E+03 -2.77942E+04  2.09029E+04 -3.38795E+04
  4.08341E+04 -8.73030E+03  3.56148E+04  2.33127E+04  1.81182E+04  4.63207E+04 -8.11005E+03  5.01456E+04
 -3.17999E+04  3.35063E+04 -4.21629E+04  9.52329E+03 -4.26236E+04 -1.66970E+04 -2.38667E+04 -3.77852E+04
  7.35719E+03 -3.79352E+04  3.13410E+04 -1.45017E+04  2.90195E+04  1.06357E+04  3.86016E+03  1.92130E+04
 -1.34427E+04  8.33905E+03 -1.02734E+04 -7.55983E+03  5.98037E+03 -1.04554E+04  1.78304E+04  5.95015E+03
  1.34661E+04  2.18379E+04 -5.90985E+03  2.52097E+04 -2.22913E+04  1.15966E+04 -2.75295E+04 -4.42300E+03
 -2.06450E+04 -1.71831E+04 -8.44096E+03 -2.07054E+04  4.13709E+03 -1.96413E+04  1.57095E+04 -1.82091E+04
  2.60945E+04 -1.25293E+04  3.25163E+04  2.93319E+03  2.40814E+04  1.96028E+04  4.30578E+03  3.63517E+04
 -1.80391E+04  3.04347E+04 -2.82210E+04  1.04053E+04 -2.10321E+04 -1.02131E+04 -4.32150E+03 -1.32546E+04
  1.99894E+03 -2.89593E+03 -4.74719E+03  6.58562E+03 -1.59473E+04  4.96318E+03 -1.63096E+04 -7.09507E+03
 -9.83724E+03 -1.89806E+04  5.11137E+03 -2.26977E+04  1.54627E+04 -1.69214E+04  1.82157E+04 -1.39718E+03
  1.13532E+04  1.30690E+04 -9.22420E+02  1.88908E+04 -1.29231E+04  1.06826E+04 -1.93186E+04 -4.03558E+03
 -1.42976E+04 -1.70273E+04 -1.78776E+03 -2.32208E+04  1.05698E+04 -1.88928E+04  1.92529E+04 -9.49957E+03
  1.78433E+04  1.36796E+02  1.28807E+04  4.26495E+03  6.67633E+03  8.10232E+02  9.57514E+03 -1.62539E+03
  1.75251E+04  2.58280E+03  1.94972E+04  1.53836E+04  1.27780E+04  3.05287E+04 -2.79446E+03  3.43179E+04
 -1.99953E+04  2.78267E+04 -3.21493E+04  1.42022E+04 -3.39985E+04 -2.54122E+03 -2.77236E+04 -1.94500E+04
 -1.18280E+04 -2.77549E+04  9.47054E+03 -2.51803E+04  2.17411E+04 -1.25852E+04  1.98262E+04  5.61359E+03
  7.32777E+03  1.40592E+04 -8.87803E+03  1.28726E+04 -1.65171E+04  2.55315E+03 -1.23102E+04 -1.03489E+04
  7.32328E+00 -1.55349E+04  8.06933E+03 -1.14636E+04  1.00499E+04 -1.38816E+03  2.14038E+03  6.64118E+03
 -7.16109E+03  2.58304E+03 -5.86668E+03 -5.69575E+03 -4.92018E+02 -1.34491E+04  9.52652E+03 -1.43639E+04
  1.67836E+04 -7.38878E+03  1.82687E+04  3.58750E+03  1.56276E+04  1.35931E+04  7.20914E+03  2.04535E+04
 -3.26999E+03  2.25065E+04 -1.42482E+04  1.41274E+04 -1.59458E+04  3.35683E+03 -1.11886E+04 -3.86212E+03
 -5.36525E+03 -4.74562E+03 -7.17029E+02  1.16546E+03 -2.25337E+03  2.56983E+03 -5.24220E+03  4.59642E+03
 -1.08300E+04 -6.85893E+02 -1.15641E+04 -9.25913E+03 -4.30138E+03 -1.48276E+04  4.52703E+03 -1.15456E+04
  9.83511E+03 -4.98264E+03  7.27393E+03  2.99137E+03  2.78753E+02  4.29205E+03 -5.30162E+03 -4.51480E+01
 -4.85352E+03 -7.05116E+03 -1.09699E+03 -1.08277E+04  5.94661E+03 -1.15424E+04  1.44543E+04 -5.92321E+03
  1.66725E+04  1.08801E+03  1.24378E+04  9.62860E+03  2.45046E+03  1.33016E+04 -7.03367E+03  1.11560E+04
 -9.51618E+03  3.65390E+03 -4.76978E+03 -2.03562E+03  1.74991E+03 -3.19057E+03  6.29108E+03 -1.18633E+03
  5.57390E+03  4.82776E+03  1.25081E+03  9.25883E+03 -6.38236E+03  8.70627E+03 -1.09467E+04  2.23834E+03
 -7.37815E+03 -5.76351E+03  3.63893E+01 -9.15238E+03  5.82165E+03 -4.86008E+03  5.99322E+03  1.94117E+03
  1.17455E+03  6.25262E+03 -5.91162E+03  7.27961E+03 -8.57702E+03  3.73467E+03 -8.68310E+03 -2.73840E+03
 -4.90185E+03 -1.01452E+04  2.40866E+03 -1.15468E+04  9.80955E+03 -7.35547E+03  1.07896E+04  2.12374E+03
  6.99741E+03  8.73731E+03 -5.04693E+02  1.07570E+04 -7.92851E+03  6.26783E+03 -8.33614E+03 -7.95245E+02
 -8.01067E+03 -7.22758E+03 -1.58131E+03 -8.22604E+03  4.22129E+03 -6.92322E+03  4.94708E+03 -2.96638E+03
  3.58336E+03  1.29423E+03 -7.19112E+02  1.47400E+03  1.72190E+02 -1.48082E+03  1.09641E+03 -4.13703E+03
  7.03884E+03 -2.49863E+03  9.82079E+03  1.13674E+03  9.99161E+03  6.18731E+03  7.05026E+03  1.29336E+04
 -2.81216E+03  1.49273E+04 -1.29999E+04  1.10792E+04 -1.63145E+04  2.24573E+03 -1.29575E+04 -5.39545E+03
 -6.88591E+03 -1.07408E+04 -5.54260E+02 -8.69095E+03  3.49041E+03 -4.68296E+03  3.03264E+03 -3.58104E+03
  2.16073E+03 -2.49475E+03  2.99236E+03 -2.95553E+03  4.55287E+03 -2.48245E+03  5.44176E+03 -2.88074E+02
  7.21879E+03  1.94781E+03  3.34737E+03  6.27606E+03 -1.60989E+03  6.11881E+03 -7.30876E+03  5.14233E+03
 -9.12044E+03 -1.10506E+03 -4.68523E+03 -6.21871E+03 -2.19184E+02 -9.38189E+03  5.66508E+03 -9.60460E+03
  9.85654E+03 -5.39370E+03  1.19615E+04  1.52171E+03  8.67267E+03  8.26554E+03  1.28211E+03  1.09158E+04
 -4.51827E+03  9.17053E+03 -5.97581E+03  3.13074E+03 -4.13829E+03 -1.09891E+03 -1.40210E+03 -8.48255E+02
 -8.73355E+02  3.54216E+02 -1.29002E+03  2.05620E+03 -4.07268E+03  1.27280E+03 -6.58957E+03 -6.87948E+02
 -3.91293E+03 -6.50224E+03  3.64944E+02 -8.37954E+03  5.32553E+03 -8.06986E+03  8.08430E+03 -2.43931E+03
  8.23944E+03  4.14735E+03  3.75980E+03  7.48898E+03 -1.30432E+03  8.55956E+03 -6.09716E+03  5.33511E+03
 -7.74705E+03  4.57415E+02 -5.79706E+03 -5.15587E+03 -4.97552E+02 -6.56067E+03  3.12353E+03 -4.98767E+03
  5.27005E+03 -1.69725E+03  3.77252E+03  1.20481E+03  1.43942E+03  2.42691E+03  1.06496E+03  1.41619E+03
  2.38126E+03  5.19608E+02  2.34594E+03  1.50771E+03  2.57959E+03  3.39625E+03  2.34228E+03  4.30235E+03
 -2.00487E+03  6.42489E+03 -5.88264E+03  7.26075E+03 -7.91518E+03  2.05615E+03 -8.70298E+03 -2.84399E+03
 -4.01761E+03 -8.05457E+03  1.24102E+03 -9.40825E+03  4.74713E+03 -5.73931E+03  6.92145E+03 -1.58450E+03
  5.10727E+03  3.53627E+03  9.41990E+02  4.78274E+03 -2.34908E+03  3.07678E+03 -2.83566E+03 -7.92798E+01
 -1.56696E+03 -3.34374E+03  1.95599E+03 -3.60721E+03  3.01373E+03 -2.09634E+03  3.25662E+03  7.93019E+02
  1.78677E+03  1.24786E+03  6.80332E+02  9.29835E+02 -6.17505E+02  1.32470E+03  1.82319E+03 -2.57194E+01
  9.06205E+02 -4.61897E+02  3.40914E+03  1.15357E+03  1.36123E+03  4.64285E+03 -6.99199E+02  5.72793E+03
 -3.91890E+03  3.76360E+03 -5.11921E+03  9.86968E+02 -4.52535E+03 -1.91787E+03 -1.42936E+03 -2.94517E+03
  5.76963E+02 -3.22497E+03  1.92965E+03 -1.30555E+03  1.94921E+03  1.81000E+03 -6.59249E+02  2.63199E+03
 -3.22006E+03  1.41312E+03 -3.54983E+03 -2.11280E+03 -1.92988E+03 -4.62335E+03  5.63224E+02 -4.41575E+03
  2.05413E+03 -2.02315E+03  3.19817E+03 -6.28896E+01  2.99249E+03  9.44411E+02  7.32990E+02  2.31267E+03
 -1.26332E+03  3.45367E+02 -2.15591E+03 -1.18761E+03  7.82642E+02 -2.77611E+03  3.86151E+03 -2.49120E+03
  4.61309E+03  8.31621E+01  5.16600E+03  2.89435E+03  1.58987E+03  4.76332E+03 -1.49903E+03  4.78789E+03
 -4.08312E+03  1.87061E+03 -4.07073E+03 -7.07724E+02 -2.49274E+03 -3.01509E+03  6.60075E+02 -2.62011E+03
  2.90734E+03 -1.60177E+03  2.35282E+03  1.51238E+03  7.45017E+02  3.13684E+03 -3.08698E+02  2.65491E+03
 -1.24680E+03  1.65095E+03 -1.23203E+03  2.48366E+02 -2.72964E+02  6.61345E+02 -9.32817E+02  1.10526E+03
 -1.38649E+03  1.98424E+03 -3.55752E+03  1.58701E+03 -4.91474E+03  7.36817E+01 -5.53605E+03 -3.21769E+03
 -3.16200E+03 -6.42949E+03  1.14725E+03 -7.33340E+03  4.25697E+03 -6.06216E+03  6.97559E+03 -2.36948E+03
  6.41795E+03  9.68931E+02  3.67775E+03  4.08364E+03 -1.52994E+02  4.76459E+03 -2.29322E+03  3.50835E+03
 -2.70334E+03  1.26692E+03 -1.50505E+03 -5.81612E+02 -7.19774E+02 -3.02684E+02 -7.12808E+02  7.87346E+01
 -1.80842E+03 -2.33104E+02 -1.21310E+03 -7.99245E+01 -3.59470E+01 -1.15767E+03 -2.46861E+02 -2.04171E+03
  2.75390E+03 -1.62141E+03  2.59559E+03 -3.35607E+01  3.15771E+03  3.01298E+03  6.33110E+02  4.76898E+03
 -2.29473E+03  5.44281E+03 -4.95933E+03  3.21874E+03 -5.52037E+03 -4.77869E+02 -3.68768E+03 -3.54132E+03
 -1.98493E+03 -4.57802E+03  1.38106E+03 -4.30020E+03  2.76854E+03 -2.12305E+03  2.93343E+03  5.34894E+01
  1.91076E+03  1.47724E+03  9.09613E+01  1.33231E+03 -8.83778E+02 -1.88048E+02 -1.63675E+01 -1.15494E+03
  1.24549E+03 -3.26979E+02  1.59928E+03  8.82767E+02  1.29801E+03  2.01607E+03  2.40991E+02  2.01588E+03
 -2.04936E+03  2.10170E+03 -2.91509E+03  4.94706E+01 -2.66943E+03 -2.11882E+03 -6.27357E+02 -3.70961E+03
  1.92737E+03 -2.99637E+03  2.94406E+03 -7.56329E+02  3.34544E+03  2.44527E+02  1.98370E+03  2.82164E+03
  4.78734E+02  2.87154E+03 -1.20243E+03  1.98942E+03 -2.06984E+03  1.35853E+03 -1.63720E+03  2.42713E+02
 -5.99942E+02  2.07734E+01 -1.12812E+03  3.80717E+02 -1.65767E+03  4.42857E+02 -2.08417E+03 -5.65795E+02
 -2.61558E+03 -1.19998E+03 -5.95467E+02 -2.83451E+03  1.64447E+03 -3.46844E+03  2.71777E+03 -1.28587E+03
  2.58987E+03  3.30655E+02  1.17566E+03  1.93033E+03 -1.97711E+02  3.00032E+03 -2.13089E+03  1.93848E+03
