 $NMID ID='MM_0lb_SNR800_17hz_g50_2.RAW', FMTDAT='(8E13.5)'
 TRAMP=1., VOLUME=1. $END
  3.09905E+05  4.24303E+02  3.37452E+05  2.50295E+05  8.43096E+04  3.37447E+05 -1.32480E+05  2.50665E+05
 -1.90005E+05  8.25362E+04 -1.11419E+05 -3.25696E+04  1.08755E+03 -5.03247E+04  5.37854E+04  6.82266E+01
  3.52656E+04  5.28374E+04 -1.67391E+04  7.51146E+04 -6.04864E+04  6.33609E+04 -8.35265E+04  3.16948E+04
 -8.01874E+04 -1.11968E+04 -5.66069E+04 -5.08637E+04 -1.51739E+04 -6.89810E+04  2.69536E+04 -4.50994E+04
  3.93268E+04  3.82276E+03  1.57139E+04  4.71761E+04 -3.41083E+04  4.66945E+04 -6.61807E+04 -2.55687E+00
 -5.28577E+04 -5.62876E+04 -6.61092E+03 -7.61208E+04  3.35351E+04 -5.38239E+04  4.69359E+04 -1.64485E+04
  4.24327E+04  1.11315E+04  3.11575E+04  2.48264E+04  1.58613E+04  2.88629E+04 -4.85760E+03  2.67107E+04
 -2.18009E+04  1.24910E+04 -1.88610E+04 -4.56361E+03  4.90845E+03 -7.53054E+03  2.19141E+04  1.15318E+04
  7.27248E+03  3.42589E+04 -3.12167E+04  3.49766E+04 -6.20982E+04  2.12345E+03 -5.60321E+04 -4.21643E+04
 -1.26375E+04 -6.18819E+04  3.89110E+04 -4.40244E+04  5.66363E+04 -2.09513E+03  3.27772E+04  3.12924E+04
 -6.42300E+03  3.43395E+04 -2.88319E+04  1.41908E+04 -2.88034E+04 -5.07321E+03 -1.54923E+04 -1.04246E+04
 -7.64264E+03 -1.19860E+04 -7.61407E+02 -1.73152E+04  7.17423E+03 -2.25944E+04  1.52064E+04 -1.37979E+04
  1.18317E+04  4.72490E+03 -7.14502E+03  1.30053E+04 -2.00048E+04 -3.24057E+03 -8.15606E+03 -3.18290E+04
  2.15682E+04 -4.16971E+04  4.62934E+04 -1.93000E+04  4.32177E+04  1.89381E+04  1.48910E+04  4.30017E+04
 -1.54612E+04  3.20312E+04 -2.42980E+04  1.31306E+03 -9.03242E+03 -2.70541E+04  2.10333E+04 -3.24225E+04
  3.93408E+04 -8.21465E+03  3.31163E+04  2.32892E+04  1.65975E+04  4.41273E+04 -7.77321E+03  4.71542E+04
 -2.97193E+04  3.15255E+04 -3.93757E+04  8.62659E+03 -4.01285E+04 -1.56836E+04 -2.21373E+04 -3.58769E+04
  7.17862E+03 -3.57566E+04  3.02234E+04 -1.33838E+04  2.78509E+04  1.09078E+04  3.49758E+03  1.84956E+04
 -1.34400E+04  7.81953E+03 -9.97426E+03 -7.80025E+03  5.97432E+03 -1.02238E+04  1.76865E+04  5.90846E+03
  1.24915E+04  2.18855E+04 -6.37444E+03  2.41107E+04 -2.18194E+04  1.01664E+04 -2.61622E+04 -5.81453E+03
 -1.80189E+04 -1.68350E+04 -6.63463E+03 -1.81018E+04  4.02427E+03 -1.65867E+04  1.38526E+04 -1.60765E+04
  2.33227E+04 -1.20777E+04  2.96706E+04  1.75529E+03  2.21385E+04  1.77460E+04  4.29192E+03  3.43213E+04
 -1.64728E+04  2.85783E+04 -2.67128E+04  9.78781E+03 -2.02639E+04 -1.01096E+04 -4.03953E+03 -1.39251E+04
  2.36384E+03 -3.95435E+03 -3.49089E+03  5.92270E+03 -1.42835E+04  5.43510E+03 -1.46326E+04 -5.60466E+03
 -9.16827E+03 -1.67871E+04  4.64410E+03 -2.07420E+04  1.34624E+04 -1.51618E+04  1.60419E+04 -1.36101E+03
  9.91812E+03  1.17523E+04 -6.89694E+02  1.71447E+04 -1.14176E+04  9.75245E+03 -1.67971E+04 -3.64076E+03
 -1.24374E+04 -1.52711E+04 -1.48358E+03 -2.07501E+04  9.68092E+03 -1.67506E+04  1.72571E+04 -7.98191E+03
  1.59813E+04  6.13571E+02  1.11928E+04  3.97341E+03  5.91540E+03  9.25659E+02  8.32427E+03 -1.48640E+03
  1.51029E+04  2.63206E+03  1.63365E+04  1.37033E+04  1.05205E+04  2.67861E+04 -2.84244E+03  2.97803E+04
 -1.75959E+04  2.30406E+04 -2.69122E+04  1.10686E+04 -2.80360E+04 -1.90895E+03 -2.37977E+04 -1.58771E+04
 -1.08783E+04 -2.30717E+04  7.50319E+03 -2.13260E+04  1.81956E+04 -1.16970E+04  1.71066E+04  4.28781E+03
  6.82859E+03  1.23624E+04 -7.81269E+03  1.12792E+04 -1.42937E+04  2.65639E+03 -1.09819E+04 -8.84297E+03
 -1.85096E+02 -1.35651E+04  6.47763E+03 -1.02837E+04  8.81465E+03 -1.19183E+03  1.62973E+03  5.46987E+03
 -6.00417E+03  1.92495E+03 -4.53699E+03 -4.91021E+03  2.64257E+02 -1.12845E+04  8.65594E+03 -1.14956E+04
  1.38061E+04 -5.67702E+03  1.44563E+04  2.65523E+03  1.23442E+04  1.07392E+04  5.92364E+03  1.63136E+04
 -2.33663E+03  1.80989E+04 -1.11410E+04  1.14216E+04 -1.29200E+04  3.23017E+03 -9.45997E+03 -2.56791E+03
 -4.64777E+03 -3.79060E+03 -1.01476E+03  1.63177E+03 -1.92978E+03  2.01854E+03 -4.00452E+03  4.11874E+03
 -8.94084E+03 -3.63317E+02 -9.40700E+03 -7.89856E+03 -3.72458E+03 -1.25814E+04  3.95653E+03 -9.35263E+03
  7.95288E+03 -4.44270E+03  5.75305E+03  2.14932E+03  4.07270E+02  3.52966E+03 -4.14918E+03 -7.85699E+01
 -3.98055E+03 -6.03033E+03 -6.11519E+02 -8.39054E+03  4.70481E+03 -9.04013E+03  1.14482E+04 -4.63532E+03
  1.34585E+04  6.07342E+02  9.92341E+03  7.32143E+03  1.86295E+03  1.01402E+04 -5.41278E+03  9.26930E+03
 -7.68279E+03  2.87314E+03 -3.91861E+03 -1.68233E+03  1.25620E+03 -2.22235E+03  5.21551E+03 -8.06969E+02
  4.58596E+03  3.73874E+03  8.00495E+02  6.92044E+03 -5.27129E+03  7.20061E+03 -8.98813E+03  1.66282E+03
 -5.60211E+03 -4.33228E+03  5.72523E+02 -7.51509E+03  4.55643E+03 -3.90960E+03  4.14078E+03  1.28331E+03
  8.62546E+02  4.05984E+03 -4.83261E+03  5.55057E+03 -6.03433E+03  3.02119E+03 -5.71621E+03 -1.72245E+03
 -3.53701E+03 -7.43000E+03  1.28888E+03 -8.54956E+03  7.21042E+03 -5.26205E+03  7.94996E+03  1.28497E+03
  5.14852E+03  6.14025E+03 -2.13588E+02  8.18617E+03 -6.03288E+03  4.65305E+03 -6.42340E+03 -7.76549E+02
 -6.63333E+03 -6.04547E+03 -1.48759E+03 -5.68428E+03  2.67631E+03 -5.03827E+03  3.33697E+03 -3.27592E+03
  2.96677E+03  3.70332E+02  2.39392E+01  1.36040E+03  5.35064E+02 -7.05407E+02  5.01218E+02 -2.69905E+03
  4.48817E+03 -1.14627E+03  6.45223E+03  6.73771E+02  6.92811E+03  4.26180E+03  6.10831E+03  8.96460E+03
 -1.74657E+03  1.00850E+04 -9.04379E+03  7.96000E+03 -1.16795E+04  1.50044E+03 -9.25536E+03 -3.29119E+03
 -5.07912E+03 -7.63083E+03 -4.79335E+02 -6.10583E+03  2.70794E+03 -2.87120E+03  2.15228E+03 -2.48234E+03
  1.51824E+03 -1.66416E+03  2.15501E+03 -2.16704E+03  3.62178E+03 -1.68309E+03  4.24853E+03  1.34428E+02
  5.29259E+03  1.62892E+03  1.62711E+03  3.91713E+03 -1.78169E+03  4.09783E+03 -5.31129E+03  3.28629E+03
 -6.09102E+03 -1.10963E+03 -2.54816E+03 -3.95560E+03  5.45675E+01 -6.22276E+03  3.73448E+03 -6.63432E+03
  6.30579E+03 -3.91572E+03  7.95573E+03  5.11307E+02  5.80832E+03  5.46059E+03  1.13792E+03  7.21110E+03
 -2.59745E+03  6.48280E+03 -3.96884E+03  2.29800E+03 -2.60370E+03 -1.03874E+03 -5.20699E+02 -7.78546E+02
 -6.52309E+02  3.46241E+02 -9.70663E+02  2.08592E+03 -2.86160E+03  1.26149E+03 -4.63919E+03 -4.13432E+02
 -2.09328E+03 -4.84454E+03  6.21646E+02 -5.84847E+03  3.26466E+03 -5.39696E+03  4.82157E+03 -1.31975E+03
  4.91470E+03  2.73308E+03  2.36707E+03  3.96487E+03 -9.22000E+02  5.39130E+03 -3.16027E+03  3.34791E+03
 -4.72630E+03  6.52457E+02 -4.00461E+03 -3.16315E+03 -2.24817E+02 -4.05527E+03  2.08299E+03 -3.11912E+03
  3.02671E+03 -1.58166E+03  2.12789E+03  7.01516E+02  7.37796E+02  1.51870E+03  9.41570E+02  6.23568E+02
  1.68840E+03  4.84431E+02  1.39806E+03  1.04823E+03  1.38628E+03  2.47774E+03  1.41940E+03  2.52546E+03
 -1.10666E+03  3.85209E+03 -3.30267E+03  4.72188E+03 -4.34317E+03  1.33122E+03 -5.46693E+03 -9.38770E+02
 -2.16527E+03 -4.54938E+03  8.62210E+02 -5.59181E+03  2.53556E+03 -3.10484E+03  3.78605E+03 -1.14263E+03
  2.92103E+03  2.04380E+03  5.25445E+02  2.67588E+03 -1.13906E+03  1.67000E+03 -1.33532E+03 -4.68839E+02
 -9.10746E+02 -2.11102E+03  1.21535E+03 -1.91108E+03  1.68315E+03 -1.13166E+03  2.01858E+03  3.00432E+02
  1.05240E+03  4.13955E+02  8.65110E+02  7.09173E+00 -3.08109E+02  9.62727E+02  1.67372E+03 -3.21490E+02
  3.55252E+02 -2.52967E+02  2.23857E+03  6.56571E+02  7.31497E+02  2.77747E+03 -4.94382E+02  3.47795E+03
 -2.30718E+03  1.85290E+03 -2.63453E+03  6.15105E+02 -2.61948E+03 -9.23539E+02 -4.88370E+02 -1.25918E+03
  6.36384E+02 -1.35144E+03  1.34583E+03 -1.14898E+03  4.45990E+02  1.42612E+03 -5.94067E+02  1.32198E+03
 -1.83536E+03  7.97876E+02 -1.52140E+03 -1.27350E+03 -9.65835E+02 -2.50500E+03  2.48801E+02 -2.23145E+03
  1.11460E+03 -8.72598E+02  1.00700E+03  3.31127E+02  1.80205E+03 -1.72810E+02  3.24076E+02  1.25097E+03
 -7.62897E+02  2.89288E+02 -9.04023E+02 -4.84524E+02  4.63634E+02 -1.35736E+03  2.21918E+03 -1.18056E+03
  1.76478E+03  8.68252E+01  3.25258E+03  1.38799E+03  1.10370E+03  2.25853E+03 -3.25126E+02  2.37925E+03
 -2.24109E+03  6.35686E+02 -2.00183E+03 -2.44686E+02 -9.53422E+02 -1.75480E+03  6.74884E+01 -7.92548E+02
  1.88793E+03 -8.41759E+02  8.38416E+02  7.59924E+02  2.92898E+02  1.46581E+03  2.16305E+02  1.19841E+03
 -6.00184E+02  1.44808E+03 -4.06816E+02  6.40881E+01  9.22000E+01  6.29195E+02 -7.74404E+02  6.42744E+02
 -3.87254E+02  1.06960E+03 -2.16464E+03  5.27215E+02 -2.41352E+03  7.11396E+01 -2.78741E+03 -1.12270E+03
 -1.40482E+03 -2.77191E+03  8.76850E+02 -3.70449E+03  1.58811E+03 -3.17528E+03  3.31842E+03 -1.19810E+03
  3.23362E+03  2.08696E+02  1.65106E+03  2.06794E+03 -3.89694E+02  2.12831E+03 -6.53321E+02  1.86874E+03
 -1.34800E+03  9.88432E+02 -8.69286E+02 -4.78283E+02 -4.12090E+02  1.77137E+02 -7.52329E+02  1.13297E+02
 -1.04511E+03 -4.04520E+02 -1.03399E+03 -7.15016E+01  4.73884E+02 -6.27823E+02 -4.66193E+02 -1.20020E+03
  1.54696E+03 -7.60957E+02  7.78271E+02  2.42976E+02  1.40915E+03  1.03348E+03 -3.60531E+02  2.05108E+03
 -1.04430E+03  2.85956E+03 -2.19565E+03  1.57525E+03 -2.13036E+03 -1.94689E+02 -1.96544E+03 -1.63317E+03
 -1.26084E+03 -2.15499E+03  3.18819E+02 -1.76742E+03  8.41327E+02 -9.27849E+02  1.05317E+03  2.89004E+02
  1.19038E+03  3.04068E+02 -1.99093E+02  5.26418E+02 -6.14078E+01 -1.96163E+02 -1.95901E+02 -2.27381E+02
  7.68381E+02 -6.70862E+01  4.46755E+02  5.48887E+02  3.45865E+02  7.19693E+02  1.89424E+02  9.36531E+02
 -1.10986E+03  1.10843E+03 -8.03853E+02  2.13180E+02 -9.67288E+02 -9.97647E+02 -2.34041E+01 -1.49567E+03
  9.74607E+02 -1.06327E+03  1.19979E+03 -4.65381E+01  1.39706E+03 -2.53411E+02  5.24413E+02  1.08738E+03
  4.93305E+02  7.90057E+02 -2.91877E+02  9.49846E+02 -4.85893E+02  7.74296E+02 -6.21002E+02  2.72139E+02
 -2.82336E+02 -1.94723E+02 -3.85857E+02  2.29422E+02 -5.25818E+02  2.35733E+02 -1.05221E+03 -2.15377E+02
 -1.34679E+03  3.01943E+02 -2.20411E+02 -1.27486E+03  6.22887E+02 -1.54465E+03  1.05009E+03 -3.66502E+02
  1.29924E+03  1.96138E+02 -1.87810E+02  4.40559E+02 -2.16061E+02  9.74810E+02 -4.78051E+02  8.74594E+02
