 $NMID ID='MM_0lb_SNR800_8hz_g60_20.RAW', FMTDAT='(8E13.5)'
 TRAMP=1., VOLUME=1. $END
  3.09959E+05  2.76537E+02  3.37898E+05  2.50854E+05  8.50912E+04  3.38892E+05 -1.32120E+05  2.52301E+05
 -1.91225E+05  8.34941E+04 -1.13287E+05 -3.26418E+04 -1.12379E+02 -5.08399E+04  5.37182E+04 -8.65866E+02
  3.54920E+04  5.26243E+04 -1.70537E+04  7.63504E+04 -6.17037E+04  6.51735E+04 -8.59602E+04  3.28755E+04
 -8.31452E+04 -1.18551E+04 -5.88901E+04 -5.30348E+04 -1.48356E+04 -7.16112E+04  2.86774E+04 -4.72098E+04
  4.19850E+04  3.70367E+03  1.68599E+04  4.88965E+04 -3.48712E+04  4.90397E+04 -6.87442E+04 -1.25372E+02
 -5.51023E+04 -5.87275E+04 -8.05487E+03 -7.96402E+04  3.51807E+04 -5.76704E+04  4.99785E+04 -1.88068E+04
  4.57382E+04  1.16320E+04  3.35820E+04  2.71921E+04  1.59774E+04  3.08722E+04 -5.84307E+03  2.79027E+04
 -2.23023E+04  1.17018E+04 -1.82482E+04 -6.14446E+03  7.82622E+03 -7.32180E+03  2.39288E+04  1.42987E+04
  7.10868E+03  3.80141E+04 -3.45215E+04  3.74064E+04 -6.68874E+04  2.13192E+03 -5.97071E+04 -4.54797E+04
 -1.31944E+04 -6.73367E+04  4.23480E+04 -4.84354E+04  6.23197E+04 -2.01761E+03  3.80178E+04  3.52015E+04
 -5.16944E+03  4.04544E+04 -3.24632E+04  1.98987E+04 -3.46331E+04 -3.12248E+03 -2.02882E+04 -1.24590E+04
 -1.04851E+04 -1.59354E+04  2.35119E+02 -2.02425E+04  9.24840E+03 -2.40219E+04  1.61935E+04 -1.22608E+04
  9.90598E+03  6.66652E+03 -1.13270E+04  1.24474E+04 -2.43804E+04 -7.35129E+03 -8.81572E+03 -3.94176E+04
  2.61054E+04 -4.85771E+04  5.38396E+04 -2.13207E+04  5.03602E+04  2.14220E+04  1.83790E+04  4.82750E+04
 -1.71077E+04  3.66301E+04 -2.86861E+04  3.17788E+03 -1.26230E+04 -3.03442E+04  2.21237E+04 -3.84514E+04
  4.57855E+04 -1.17259E+04  4.22666E+04  2.53360E+04  2.26055E+04  5.25114E+04 -8.41139E+03  5.87256E+04
 -3.64607E+04  4.03470E+04 -4.96547E+04  1.18330E+04 -4.93391E+04 -1.92347E+04 -2.70851E+04 -4.39946E+04
  8.00882E+03 -4.44798E+04  3.50921E+04 -1.81297E+04  3.36057E+04  1.16272E+04  5.77313E+03  2.14616E+04
 -1.38004E+04  1.04469E+04 -1.18789E+04 -7.19563E+03  5.70596E+03 -1.14078E+04  1.93974E+04  5.00585E+03
  1.55534E+04  2.31319E+04 -4.70726E+03  2.78448E+04 -2.40419E+04  1.54911E+04 -3.27976E+04 -2.29370E+03
 -2.76051E+04 -1.90851E+04 -1.34705E+04 -2.68365E+04  4.14812E+03 -2.79814E+04  2.15165E+04 -2.45601E+04
  3.41815E+04 -1.50098E+04  4.00533E+04  5.60817E+03  2.84315E+04  2.63655E+04  4.39538E+03  4.34315E+04
 -2.08638E+04  3.55451E+04 -3.16278E+04  1.21492E+04 -2.29198E+04 -1.02566E+04 -5.04315E+03 -1.26721E+04
  4.08633E+02 -3.43819E+02 -8.39668E+03  9.38525E+03 -2.20746E+04  5.08866E+03 -2.20313E+04 -1.10165E+04
 -1.28867E+04 -2.56523E+04  6.67566E+03 -2.93972E+04  2.04375E+04 -2.08833E+04  2.46377E+04 -2.00835E+03
  1.58519E+04  1.71834E+04 -1.47076E+03  2.48600E+04 -1.81149E+04  1.46953E+04 -2.53487E+04 -4.93284E+03
 -1.84092E+04 -2.26300E+04 -2.12161E+03 -3.05105E+04  1.33834E+04 -2.50433E+04  2.51238E+04 -1.28656E+04
  2.32807E+04 -4.08097E+02  1.76354E+04  5.19404E+03  9.51208E+03  1.27267E+03  1.30685E+04 -2.20962E+03
  2.38704E+04  2.63334E+03  2.81633E+04  2.03420E+04  1.97115E+04  4.06808E+04 -2.65123E+03  4.86648E+04
 -2.78809E+04  4.09073E+04 -4.64310E+04  2.15754E+04 -4.96454E+04 -3.48239E+03 -3.99194E+04 -2.86661E+04
 -1.54517E+04 -4.07443E+04  1.48995E+04 -3.59620E+04  3.12761E+04 -1.64192E+04  2.64693E+04  9.30830E+03
  8.83900E+03  2.03940E+04 -1.23989E+04  1.66342E+04 -2.17936E+04  2.53627E+03 -1.62237E+04 -1.41405E+04
 -5.51605E+02 -2.09610E+04  1.17822E+04 -1.54578E+04  1.41076E+04 -1.35235E+03  3.70836E+03  9.85328E+03
 -9.10447E+03  4.66345E+03 -9.84110E+03 -7.46689E+03 -2.40005E+03 -2.00527E+04  1.26251E+04 -2.20951E+04
  2.55327E+04 -1.28795E+04  2.95856E+04  2.94734E+03  2.59697E+04  2.07534E+04  1.23756E+04  3.30344E+04
 -6.52546E+03  3.50122E+04 -2.32655E+04  2.15377E+04 -2.57385E+04  4.32835E+03 -1.68970E+04 -6.94080E+03
 -7.45312E+03 -8.40871E+03 -2.97274E+02  1.06465E+01 -2.75743E+03  4.08899E+03 -8.18076E+03  6.17405E+03
 -1.61605E+04 -1.01490E+03 -1.59542E+04 -1.31125E+04 -6.53348E+03 -2.13775E+04  6.99452E+03 -1.73201E+04
  1.43118E+04 -7.25873E+03  1.03125E+04  4.69215E+03 -3.96725E+02  7.04642E+03 -9.35814E+03  8.12208E+01
 -8.56861E+03 -1.13767E+04 -9.68094E+02 -1.74142E+04  1.06353E+04 -1.86350E+04  2.24664E+04 -9.70677E+03
  2.66716E+04  2.99479E+03  1.94910E+04  1.63416E+04  3.56387E+03  2.24933E+04 -1.08493E+04  1.72926E+04
 -1.42945E+04  5.08289E+03 -7.61104E+03 -4.20769E+03  2.43889E+03 -5.38144E+03  8.97751E+03 -1.40051E+03
  8.38654E+03  7.64393E+03  1.41390E+03  1.39098E+04 -1.03048E+04  1.35847E+04 -1.78523E+04  3.18621E+03
 -1.22590E+04 -9.39017E+03  7.43119E+01 -1.53563E+04  1.05288E+04 -7.39644E+03  1.08605E+04  3.73397E+03
  2.69953E+03  1.21692E+04 -9.81573E+03  1.30068E+04 -1.60839E+04  5.83953E+03 -1.60925E+04 -5.96157E+03
 -9.64040E+03 -1.86972E+04  4.32782E+03 -2.16781E+04  1.84039E+04 -1.23273E+04  1.96635E+04  3.53399E+03
  1.11948E+04  1.55604E+04 -2.27392E+03  1.79011E+04 -1.33171E+04  9.66132E+03 -1.50207E+04 -1.41890E+03
 -1.19656E+04 -1.20271E+04 -1.94834E+03 -1.43088E+04  7.29524E+03 -1.10442E+04  8.95160E+03 -3.64607E+03
  5.20986E+03  2.99488E+03 -1.60515E+03  2.14605E+03 -1.09692E+03 -4.80159E+03  3.47432E+03 -9.17222E+03
  1.34217E+04 -6.56963E+03  1.91016E+04  1.77048E+03  1.85777E+04  1.36935E+04  1.17679E+04  2.49587E+04
 -5.83547E+03  2.85045E+04 -2.31016E+04  2.09057E+04 -3.01428E+04  4.31955E+03 -2.45399E+04 -1.08413E+04
 -1.25761E+04 -1.98323E+04  2.70796E+01 -1.70941E+04  5.97833E+03 -1.02615E+04  6.14612E+03 -5.99678E+03
  4.55138E+03 -3.59086E+03  4.84380E+03 -4.42330E+03  6.69141E+03 -4.17205E+03  9.43403E+03 -1.82954E+03
  1.24828E+04  2.96659E+03  7.01197E+03  1.16052E+04 -2.10256E+03  1.39125E+04 -1.32436E+04  9.98706E+03
 -1.76481E+04 -1.29105E+03 -1.15875E+04 -1.22900E+04 -1.94617E+03 -1.89098E+04  1.02169E+04 -1.88845E+04
  1.97995E+04 -9.85917E+03  2.31720E+04  3.59781E+03  1.59367E+04  1.60809E+04  2.26386E+03  2.11069E+04
 -8.76917E+03  1.71379E+04 -1.26518E+04  5.86838E+03 -8.50267E+03 -2.00596E+03 -3.70654E+03 -2.82061E+03
 -1.33350E+03 -3.62702E+02 -2.65230E+03  3.19570E+03 -6.90862E+03  2.47138E+03 -1.19547E+04 -2.32082E+03
 -9.12839E+03 -1.19446E+04 -2.05016E+02 -1.76920E+04  1.08124E+04 -1.58183E+04  1.77345E+04 -4.84635E+03
  1.75817E+04  8.12065E+03  8.36027E+03  1.61765E+04 -3.90921E+03  1.81942E+04 -1.32863E+04  1.12449E+04
 -1.74426E+04  3.58462E+02 -1.26473E+04 -1.07456E+04 -1.47777E+03 -1.52405E+04  7.68132E+03 -1.14301E+04
  1.15017E+04 -3.32946E+03  7.64364E+03  3.15107E+03  2.89214E+03  5.20684E+03  1.03486E+03  2.87511E+03
  3.40099E+03  1.38262E+03  4.24798E+03  2.14254E+03  5.73785E+03  6.05368E+03  5.10913E+03  1.00486E+04
 -2.88046E+03  1.46590E+04 -1.29670E+04  1.38657E+04 -1.87930E+04  4.07752E+03 -1.93959E+04 -8.40514E+03
 -9.03817E+03 -1.82202E+04  2.50666E+03 -2.04298E+04  1.17916E+04 -1.31768E+04  1.54531E+04 -3.84123E+03
  1.22296E+04  7.14180E+03  2.79538E+03  1.12943E+04 -5.42771E+03  7.02572E+03 -8.06001E+03 -1.18182E+03
 -4.23845E+03 -7.74741E+03  4.48008E+03 -8.32441E+03  7.64089E+03 -3.75880E+03  7.69889E+03  1.85112E+03
  4.53409E+03  3.62690E+03  1.64528E+03  3.20329E+03 -8.24296E+02  2.59257E+03  1.89641E+03 -1.16216E+03
  3.26896E+03 -1.13929E+03  7.89380E+03  3.29536E+03  4.31154E+03  9.87132E+03 -1.75811E+03  1.29217E+04
 -9.03284E+03  8.54300E+03 -1.20404E+04  2.15665E+03 -1.05474E+04 -3.80586E+03 -4.55622E+03 -7.04969E+03
  9.53677E+02 -7.42538E+03  4.47876E+03 -3.13725E+03  4.25718E+03  3.58664E+03 -1.83150E+03  6.60442E+03
 -7.60901E+03  3.40107E+03 -9.46522E+03 -4.10808E+03 -5.06053E+03 -1.04969E+04  1.90482E+03 -1.02331E+04
  6.50470E+03 -6.19808E+03  8.08962E+03 -3.63528E+02  6.31939E+03  2.74094E+03  9.40366E+02  5.91887E+03
 -4.00343E+03  1.51303E+03 -5.03679E+03 -4.19006E+03  2.08277E+03 -8.14927E+03  9.73985E+03 -6.50872E+03
  1.20993E+04  9.03327E+02  1.12363E+04  8.94966E+03  3.49204E+03  1.27667E+04 -4.72631E+03  1.16327E+04
 -1.08772E+04  5.30023E+03 -1.10552E+04 -1.76762E+03 -6.11028E+03 -8.09735E+03  2.10534E+03 -8.25772E+03
  7.48482E+03 -3.79539E+03  6.74623E+03  2.82581E+03  2.43921E+03  6.89867E+03 -1.01488E+03  6.81544E+03
 -3.24426E+03  3.91037E+03 -3.22679E+03  1.34924E+03 -1.41122E+03  1.54332E+03 -1.98560E+03  2.68013E+03
 -2.90473E+03  4.54576E+03 -8.67717E+03  4.58699E+03 -1.27387E+04  2.61092E+02 -1.41244E+04 -8.56780E+03
 -7.39540E+03 -1.70851E+04  3.32701E+03 -1.99089E+04  1.25212E+04 -1.54275E+04  1.85683E+04 -5.52332E+03
  1.75696E+04  3.99523E+03  1.09565E+04  1.18094E+04  1.04141E+03  1.37040E+04 -5.48949E+03  9.86207E+03
 -7.39685E+03  3.37528E+03 -5.00522E+03 -1.55135E+03 -1.28670E+03 -1.28058E+03 -5.01826E+02 -2.59425E+02
 -2.04327E+03  5.71456E+02 -2.76654E+03 -5.81605E+02 -1.34548E+03 -3.06821E+03  7.83583E+02 -4.96631E+03
  5.91850E+03 -4.41168E+03  8.52582E+03  1.00034E+02  9.41891E+03  6.96806E+03  2.58495E+03  1.35976E+04
 -6.15946E+03  1.52991E+04 -1.41413E+04  9.16630E+03 -1.67851E+04 -1.19797E+03 -1.25335E+04 -1.00927E+04
 -5.00773E+03 -1.42001E+04  3.03643E+03 -1.28569E+04  8.86927E+03 -7.43933E+03  9.16950E+03  2.11497E+02
  5.52751E+03  4.48896E+03 -6.99330E+02  4.04024E+03 -2.13405E+03 -1.52871E+02  1.15194E+02 -2.91972E+03
  4.37509E+03 -1.80228E+03  5.40290E+03  1.13538E+03  4.11955E+03  5.56102E+03 -1.20179E+02  7.44396E+03
 -5.93827E+03  6.37432E+03 -9.45675E+03  5.48680E+02 -8.66742E+03 -7.16114E+03 -1.31392E+03 -1.17985E+04
  6.39189E+03 -9.95941E+03  1.06880E+04 -3.30113E+03  1.09277E+04  3.19873E+03  6.24912E+03  8.52529E+03
  1.26654E+03  9.18291E+03 -3.63262E+03  8.01836E+03 -5.66856E+03  4.18464E+03 -5.04409E+03  4.14402E+02
 -2.69317E+03 -3.49683E+02 -2.75109E+03  1.35863E+03 -4.83471E+03  1.46154E+03 -6.94722E+03 -1.12609E+03
 -6.99954E+03 -5.04593E+03 -2.11103E+03 -9.09014E+03  4.48933E+03 -9.48740E+03  8.10807E+03 -4.62501E+03
  9.19952E+03  1.48187E+03  4.88702E+03  6.79111E+03 -4.57394E+02  9.04601E+03 -7.29991E+03  6.67604E+03
