 $NMID ID='MM_0lb_SNR800_12hz_g60_24.RAW', FMTDAT='(8E13.5)'
 TRAMP=1., VOLUME=1. $END
  3.09984E+05  5.79991E+02  3.37847E+05  2.50523E+05  8.46600E+04  3.38232E+05 -1.32488E+05  2.51667E+05
 -1.90430E+05  8.33536E+04 -1.12540E+05 -3.25339E+04  1.21600E+02 -5.04611E+04  5.35926E+04 -3.35936E+02
  3.55647E+04  5.28793E+04 -1.64462E+04  7.59103E+04 -6.15070E+04  6.42722E+04 -8.50345E+04  3.25618E+04
 -8.20351E+04 -1.17044E+04 -5.80630E+04 -5.19535E+04 -1.50047E+04 -7.06959E+04  2.80250E+04 -4.66474E+04
  4.06169E+04  3.95864E+03  1.67197E+04  4.80607E+04 -3.48630E+04  4.82053E+04 -6.76790E+04  1.92596E+02
 -5.44604E+04 -5.73898E+04 -7.39992E+03 -7.87020E+04  3.45076E+04 -5.62357E+04  4.93041E+04 -1.80773E+04
  4.41665E+04  1.14118E+04  3.26339E+04  2.64308E+04  1.58741E+04  3.02739E+04 -5.81034E+03  2.76203E+04
 -2.22694E+04  1.19494E+04 -1.86923E+04 -5.43119E+03  6.79533E+03 -7.79627E+03  2.34974E+04  1.34009E+04
  6.98321E+03  3.66375E+04 -3.33577E+04  3.67193E+04 -6.50651E+04  2.10690E+03 -5.82045E+04 -4.42536E+04
 -1.27201E+04 -6.51063E+04  4.12169E+04 -4.70345E+04  6.07385E+04 -2.33148E+03  3.59118E+04  3.35537E+04
 -5.60121E+03  3.84692E+04 -3.15243E+04  1.80900E+04 -3.24822E+04 -3.60966E+03 -1.85942E+04 -1.18834E+04
 -9.02745E+03 -1.48202E+04 -6.93691E+02 -1.97305E+04  8.22174E+03 -2.34458E+04  1.56638E+04 -1.26382E+04
  1.10770E+04  6.04776E+03 -9.67616E+03  1.29761E+04 -2.24829E+04 -5.99958E+03 -8.82451E+03 -3.63157E+04
  2.45258E+04 -4.58623E+04  5.10188E+04 -2.08539E+04  4.74534E+04  2.01276E+04  1.69133E+04  4.60850E+04
 -1.63401E+04  3.52220E+04 -2.66092E+04  2.17924E+03 -1.09236E+04 -2.89027E+04  2.15190E+04 -3.58293E+04
  4.36801E+04 -1.01445E+04  3.89038E+04  2.46282E+04  2.02058E+04  4.94463E+04 -8.48419E+03  5.43391E+04
 -3.39006E+04  3.67532E+04 -4.56595E+04  1.05400E+04 -4.63280E+04 -1.80476E+04 -2.53446E+04 -4.03359E+04
  7.58513E+03 -4.08194E+04  3.32600E+04 -1.64325E+04  3.13738E+04  1.09484E+04  5.04528E+03  2.05616E+04
 -1.38491E+04  9.45314E+03 -1.09082E+04 -7.65373E+03  5.53859E+03 -1.14379E+04  1.87041E+04  5.85979E+03
  1.45748E+04  2.25787E+04 -5.71621E+03  2.63832E+04 -2.31682E+04  1.34118E+04 -3.04742E+04 -3.56540E+03
 -2.39740E+04 -1.82050E+04 -1.08334E+04 -2.37672E+04  4.27241E+03 -2.37686E+04  1.80844E+04 -2.13282E+04
  3.03465E+04 -1.38631E+04  3.57930E+04  4.10913E+03  2.61124E+04  2.29991E+04  4.42209E+03  3.94975E+04
 -1.95156E+04  3.26827E+04 -2.97636E+04  1.13926E+04 -2.20608E+04 -1.02528E+04 -4.71903E+03 -1.31273E+04
  1.35906E+03 -1.42940E+03 -6.39848E+03  7.52496E+03 -1.88161E+04  4.87295E+03 -1.89285E+04 -8.89224E+03
 -1.14114E+04 -2.21551E+04  5.84662E+03 -2.63980E+04  1.74913E+04 -1.88379E+04  2.11970E+04 -1.61270E+03
  1.32928E+04  1.53377E+04 -1.34009E+03  2.17962E+04 -1.52069E+04  1.24015E+04 -2.16580E+04 -4.54802E+03
 -1.59218E+04 -1.96923E+04 -1.80307E+03 -2.59113E+04  1.19985E+04 -2.17544E+04  2.17204E+04 -1.13430E+04
  2.03117E+04 -3.76636E+02  1.45079E+04  5.03974E+03  7.94971E+03  1.49287E+03  1.10589E+04 -2.28633E+03
  2.05282E+04  2.92684E+03  2.32844E+04  1.70236E+04  1.55358E+04  3.49062E+04 -2.77168E+03  4.01547E+04
 -2.32459E+04  3.34059E+04 -3.81275E+04  1.71353E+04 -4.03697E+04 -2.96808E+03 -3.28032E+04 -2.33875E+04
 -1.36512E+04 -3.34648E+04  1.17357E+04 -2.96164E+04  2.53710E+04 -1.43726E+04  2.22284E+04  6.92212E+03
  8.01123E+03  1.67870E+04 -1.06213E+04  1.46007E+04 -1.85626E+04  2.64475E+03 -1.43239E+04 -1.21997E+04
 -2.75887E+02 -1.77915E+04  9.35227E+03 -1.30523E+04  1.19648E+04 -1.21878E+03  2.83338E+03  7.88895E+03
 -7.98763E+03  3.95011E+03 -8.05160E+03 -6.60350E+03 -1.44859E+03 -1.61515E+04  1.09571E+04 -1.77378E+04
  2.06711E+04 -9.87095E+03  2.26324E+04  3.25068E+03  1.99351E+04  1.61449E+04  9.35688E+03  2.53714E+04
 -4.59139E+03  2.70474E+04 -1.77849E+04  1.67310E+04 -1.95947E+04  4.04682E+03 -1.37350E+04 -4.85384E+03
 -6.05195E+03 -6.26963E+03 -5.80232E+02  5.98665E+02 -2.83909E+03  3.21166E+03 -6.58243E+03  4.96933E+03
 -1.29241E+04 -9.21597E+02 -1.32207E+04 -1.07041E+04 -5.49864E+03 -1.75240E+04  5.26214E+03 -1.35028E+04
  1.16757E+04 -6.17078E+03  8.59342E+03  3.81724E+03 -3.18091E+02  5.40191E+03 -6.89809E+03 -3.95299E+02
 -6.75880E+03 -9.15018E+03 -1.26718E+03 -1.32707E+04  7.68358E+03 -1.42250E+04  1.74747E+04 -7.73057E+03
  2.02083E+04  1.91210E+03  1.50312E+04  1.24042E+04  2.91113E+03  1.61677E+04 -8.44182E+03  1.36852E+04
 -1.13098E+04  3.87570E+03 -5.77402E+03 -2.89891E+03  1.65290E+03 -3.83055E+03  7.52058E+03 -9.20632E+02
  6.73243E+03  5.86326E+03  1.43731E+03  1.10635E+04 -7.55591E+03  1.07478E+04 -1.35372E+04  2.75530E+03
 -9.24233E+03 -7.16969E+03  2.61617E+02 -1.13889E+04  7.48510E+03 -6.07883E+03  7.83869E+03  2.57831E+03
  1.66362E+03  7.85544E+03 -6.93288E+03  9.85863E+03 -1.12546E+04  4.04421E+03 -1.15173E+04 -4.10546E+03
 -6.40673E+03 -1.30543E+04  3.44486E+03 -1.52316E+04  1.26846E+04 -8.97182E+03  1.40314E+04  2.27565E+03
  8.41341E+03  1.12732E+04 -1.01765E+03  1.34706E+04 -9.80533E+03  7.63378E+03 -1.04475E+04 -1.18192E+03
 -9.13428E+03 -9.07976E+03 -2.17738E+03 -9.89651E+03  5.07282E+03 -8.48752E+03  6.52342E+03 -3.53711E+03
  4.52101E+03  1.64599E+03 -7.57074E+02  1.78599E+03 -7.77300E+02 -2.57196E+03  1.80668E+03 -5.71937E+03
  9.34299E+03 -3.81667E+03  1.27507E+04  1.73560E+03  1.25988E+04  8.58845E+03  8.51239E+03  1.64382E+04
 -3.81501E+03  1.94440E+04 -1.63571E+04  1.40908E+04 -2.06114E+04  2.93498E+03 -1.66333E+04 -7.12457E+03
 -8.59249E+03 -1.36611E+04 -4.15137E+02 -1.13464E+04  4.15527E+03 -6.38449E+03  4.39113E+03 -4.01015E+03
  3.04504E+03 -2.67617E+03  3.54232E+03 -3.29192E+03  5.07709E+03 -2.92173E+03  6.64545E+03 -1.00870E+03
  8.36412E+03  1.83117E+03  4.48332E+03  7.23843E+03 -2.17639E+03  8.46890E+03 -9.25444E+03  6.72572E+03
 -1.16328E+04 -1.32334E+03 -7.03864E+03 -8.13921E+03 -6.17305E+02 -1.23376E+04  6.79405E+03 -1.23182E+04
  1.29173E+04 -7.13096E+03  1.51699E+04  1.76286E+03  1.07026E+04  1.09326E+04  1.76797E+03  1.36760E+04
 -5.70402E+03  1.15239E+04 -7.79662E+03  3.76309E+03 -5.78441E+03 -1.51414E+03 -2.56337E+03 -1.48253E+03
 -7.92089E+02  1.85542E+02 -1.69659E+03  2.94322E+03 -5.10045E+03  2.17998E+03 -8.21346E+03 -1.11596E+03
 -5.30578E+03 -7.82743E+03 -3.06998E+01 -1.15011E+04  6.94616E+03 -1.05091E+04  1.10362E+04 -3.38979E+03
  1.11294E+04  5.28906E+03  5.08490E+03  9.98560E+03 -2.19172E+03  1.13601E+04 -7.90536E+03  7.06080E+03
 -1.07151E+04  7.83459E+02 -8.21316E+03 -6.63132E+03 -7.84411E+02 -9.42709E+03  4.49802E+03 -6.69966E+03
  7.40028E+03 -2.08183E+03  4.54896E+03  1.67509E+03  1.86255E+03  3.50155E+03  1.28822E+03  1.36923E+03
  2.48831E+03  1.09318E+03  2.61250E+03  1.65872E+03  3.51213E+03  4.33571E+03  2.93809E+03  5.81556E+03
 -2.31495E+03  8.46894E+03 -7.68021E+03  9.00035E+03 -1.07280E+04  2.14645E+03 -1.15812E+04 -4.19122E+03
 -5.09273E+03 -1.10311E+04  1.80345E+03 -1.22594E+04  6.67050E+03 -7.11056E+03  8.76091E+03 -1.83481E+03
  6.96559E+03  3.88245E+03  1.28269E+03  6.41206E+03 -2.41752E+03  4.08955E+03 -4.46202E+03 -3.84198E+02
 -2.16934E+03 -4.73953E+03  2.42208E+03 -5.03911E+03  4.37993E+03 -2.21294E+03  4.38769E+03  8.38278E+02
  2.14922E+03  2.51943E+03  8.54737E+02  1.44272E+03 -3.72311E+02  1.54898E+03  1.66746E+03 -6.05051E+02
  1.52366E+03 -5.02282E+02  4.68016E+03  1.88244E+03  2.29371E+03  6.09165E+03 -6.75501E+02  7.93503E+03
 -4.78468E+03  4.83325E+03 -6.83010E+03  1.37680E+03 -6.14143E+03 -2.25504E+03 -2.21098E+03 -4.21923E+03
  7.88957E+02 -3.82572E+03  2.81056E+03 -2.00399E+03  2.40780E+03  2.16481E+03 -8.70085E+02  3.27229E+03
 -4.33711E+03  2.18691E+03 -4.94335E+03 -2.62604E+03 -2.48680E+03 -5.71825E+03  5.69690E+02 -5.81705E+03
  3.24801E+03 -3.32032E+03  4.40540E+03 -1.72248E+02  3.97456E+03  1.30097E+03  5.47753E+02  3.13957E+03
 -2.00321E+03  1.16611E+03 -2.10650E+03 -1.68891E+03  9.96234E+02 -4.25951E+03  4.87795E+03 -3.76598E+03
  6.32831E+03  8.27943E+02  6.73622E+03  4.21803E+03  2.35661E+03  6.86564E+03 -2.54603E+03  6.42227E+03
 -5.42885E+03  2.66870E+03 -5.55443E+03 -8.92141E+02 -3.23640E+03 -4.07619E+03  7.31606E+02 -4.06181E+03
  4.04655E+03 -1.71929E+03  3.28598E+03  1.62009E+03  1.64555E+03  3.78804E+03 -2.60987E+02  3.55176E+03
 -1.86121E+03  2.24076E+03 -1.60087E+03  5.67477E+02 -4.99364E+02  4.61643E+02 -1.33225E+03  9.74880E+02
 -1.70736E+03  2.75966E+03 -4.70167E+03  1.96440E+03 -6.44510E+03 -1.35564E+02 -7.48255E+03 -4.49532E+03
 -3.90850E+03 -8.54350E+03  1.49698E+03 -1.03763E+04  5.65826E+03 -7.81355E+03  9.59446E+03 -2.94685E+03
  8.62714E+03  1.60762E+03  5.27325E+03  6.11430E+03  3.66267E+02  6.47292E+03 -2.44759E+03  4.88406E+03
 -3.76737E+03  1.76624E+03 -2.23974E+03 -1.07383E+03 -6.46789E+02 -2.56447E+02 -1.03810E+03  1.68295E+02
 -1.43844E+03 -2.58998E+02 -1.77478E+03 -1.88380E+02 -8.21215E+01 -1.75448E+03  1.45078E+02 -2.37221E+03
  2.87817E+03 -2.31555E+03  3.66437E+03  2.09503E+02  4.44247E+03  3.70306E+03  8.17449E+02  6.21079E+03
 -3.15841E+03  7.75303E+03 -6.78840E+03  4.23947E+03 -7.61546E+03 -9.10934E+02 -5.50028E+03 -4.74071E+03
 -2.86010E+03 -6.21395E+03  1.66033E+03 -6.01369E+03  4.21320E+03 -2.87491E+03  4.18483E+03  2.78549E+02
  2.71080E+03  1.88314E+03 -4.31546E+01  1.69416E+03 -1.24901E+03  8.33132E+01  1.37578E+02 -1.45087E+03
  2.13582E+03 -9.41448E+02  2.30757E+03  1.06554E+03  1.14767E+03  2.34502E+03  1.13953E+02  3.30118E+03
 -2.92495E+03  2.94741E+03 -3.81033E+03  4.08587E+02 -3.57154E+03 -2.93606E+03 -4.34451E+02 -4.99619E+03
  2.70155E+03 -3.92862E+03  4.26533E+03 -1.16259E+03  4.58928E+03  6.29369E+02  2.61595E+03  3.74136E+03
  4.51704E+02  3.67894E+03 -1.67693E+03  2.97028E+03 -2.25204E+03  1.84978E+03 -2.00827E+03  2.17763E+02
 -1.13910E+03 -1.00831E+02 -1.32095E+03  4.96492E+02 -2.04857E+03  7.21078E+02 -3.16292E+03 -5.81098E+02
 -3.09218E+03 -1.67469E+03 -9.66422E+02 -3.80992E+03  2.13596E+03 -4.54801E+03  3.27886E+03 -2.18314E+03
  3.90034E+03  2.48965E+02  1.67053E+03  2.76651E+03 -2.90830E+02  4.24239E+03 -2.61352E+03  2.76982E+03
