 $NMID ID='MM_0lb_SNR800_11hz_g60_49.RAW', FMTDAT='(8E13.5)'
 TRAMP=1., VOLUME=1. $END
  3.09514E+05  3.52425E+01  3.37801E+05  2.50125E+05  8.50108E+04  3.38342E+05 -1.32393E+05  2.51750E+05
 -1.91020E+05  8.36469E+04 -1.12301E+05 -3.24703E+04  8.43582E+01 -5.08873E+04  5.37146E+04 -4.63567E+02
  3.53718E+04  5.28145E+04 -1.63668E+04  7.59585E+04 -6.14416E+04  6.42608E+04 -8.50632E+04  3.23905E+04
 -8.21032E+04 -1.16953E+04 -5.85264E+04 -5.23054E+04 -1.53044E+04 -7.14272E+04  2.83087E+04 -4.65640E+04
  4.08781E+04  3.80839E+03  1.65208E+04  4.85194E+04 -3.51230E+04  4.81782E+04 -6.82137E+04 -1.71970E+02
 -5.45585E+04 -5.77109E+04 -7.27932E+03 -7.89273E+04  3.46906E+04 -5.69819E+04  4.95564E+04 -1.81793E+04
  4.49521E+04  1.14181E+04  3.27438E+04  2.64112E+04  1.59195E+04  3.05710E+04 -5.88719E+03  2.77623E+04
 -2.21975E+04  1.18400E+04 -1.84699E+04 -5.61470E+03  7.12916E+03 -7.26070E+03  2.37138E+04  1.37442E+04
  7.24708E+03  3.71171E+04 -3.38087E+04  3.67374E+04 -6.56783E+04  2.03573E+03 -5.86297E+04 -4.43877E+04
 -1.24720E+04 -6.56548E+04  4.11699E+04 -4.70031E+04  6.08099E+04 -2.38231E+03  3.66274E+04  3.40614E+04
 -5.91976E+03  3.94158E+04 -3.15337E+04  1.85133E+04 -3.28401E+04 -3.67231E+03 -1.88547E+04 -1.16454E+04
 -9.50071E+03 -1.49592E+04 -4.76287E+02 -1.99510E+04  8.26452E+03 -2.36836E+04  1.57246E+04 -1.25093E+04
  1.06228E+04  6.30742E+03 -9.89756E+03  1.27767E+04 -2.30201E+04 -6.48023E+03 -8.73781E+03 -3.71365E+04
  2.48974E+04 -4.61766E+04  5.18652E+04 -2.06143E+04  4.82680E+04  2.07942E+04  1.72980E+04  4.65525E+04
 -1.68179E+04  3.57269E+04 -2.73185E+04  2.29370E+03 -1.12892E+04 -2.92581E+04  2.15324E+04 -3.63988E+04
  4.41030E+04 -1.09265E+04  3.97086E+04  2.52750E+04  2.06790E+04  5.04285E+04 -8.73488E+03  5.55235E+04
 -3.48860E+04  3.77738E+04 -4.66352E+04  1.11983E+04 -4.68990E+04 -1.80281E+04 -2.55242E+04 -4.18448E+04
  7.79584E+03 -4.15196E+04  3.36627E+04 -1.66150E+04  3.20880E+04  1.09289E+04  4.88268E+03  2.01658E+04
 -1.38046E+04  9.77377E+03 -1.13373E+04 -7.75638E+03  5.65609E+03 -1.14313E+04  1.89706E+04  5.51653E+03
  1.49332E+04  2.28605E+04 -5.55541E+03  2.65960E+04 -2.32697E+04  1.39240E+04 -3.11902E+04 -3.11294E+03
 -2.46401E+04 -1.84838E+04 -1.09589E+04 -2.42491E+04  4.16230E+03 -2.50011E+04  1.93776E+04 -2.21983E+04
  3.07530E+04 -1.45480E+04  3.69490E+04  4.46785E+03  2.69088E+04  2.34311E+04  4.36826E+03  4.09209E+04
 -1.94822E+04  3.34521E+04 -3.04227E+04  1.17504E+04 -2.21585E+04 -1.06757E+04 -5.05213E+03 -1.29855E+04
  5.37027E+02 -1.22329E+03 -7.00474E+03  8.28456E+03 -1.95846E+04  5.43192E+03 -1.95562E+04 -8.74589E+03
 -1.18697E+04 -2.26614E+04  5.80588E+03 -2.69138E+04  1.78525E+04 -1.90460E+04  2.22498E+04 -1.64669E+03
  1.36978E+04  1.54952E+04 -1.32735E+03  2.25103E+04 -1.57726E+04  1.29323E+04 -2.30441E+04 -4.71483E+03
 -1.66837E+04 -2.05655E+04 -2.18417E+03 -2.72645E+04  1.19764E+04 -2.24650E+04  2.24719E+04 -1.17118E+04
  2.10487E+04  3.67868E+01  1.50988E+04  5.27512E+03  8.64365E+03  1.06830E+03  1.19091E+04 -1.76676E+03
  2.11916E+04  2.88441E+03  2.39909E+04  1.74873E+04  1.65083E+04  3.63415E+04 -2.65795E+03  4.22253E+04
 -2.41279E+04  3.51032E+04 -3.96965E+04  1.84258E+04 -4.27520E+04 -3.04986E+03 -3.44288E+04 -2.50899E+04
 -1.37285E+04 -3.54894E+04  1.25714E+04 -3.10848E+04  2.68455E+04 -1.43740E+04  2.33642E+04  7.01209E+03
  8.06894E+03  1.77485E+04 -1.15517E+04  1.50472E+04 -1.89929E+04  2.33660E+03 -1.45571E+04 -1.23264E+04
  1.74144E+01 -1.85182E+04  1.02994E+04 -1.37362E+04  1.24499E+04 -1.51249E+03  3.07834E+03  8.15120E+03
 -8.30017E+03  3.84760E+03 -7.91229E+03 -6.74851E+03 -1.50732E+03 -1.73291E+04  1.12064E+04 -1.87069E+04
  2.18883E+04 -1.09400E+04  2.41642E+04  3.45510E+03  2.11667E+04  1.72786E+04  9.61720E+03  2.75893E+04
 -5.24107E+03  2.91846E+04 -1.90642E+04  1.80762E+04 -2.11773E+04  3.51789E+03 -1.46920E+04 -5.45735E+03
 -6.42451E+03 -6.69456E+03 -8.75308E+02  3.46858E+02 -2.98142E+03  3.47422E+03 -6.71232E+03  5.12571E+03
 -1.33924E+04 -7.07118E+02 -1.41687E+04 -1.14783E+04 -5.81858E+03 -1.82798E+04  6.15229E+03 -1.48607E+04
  1.21292E+04 -6.07317E+03  8.61601E+03  3.62745E+03 -2.34977E+02  5.90167E+03 -7.32481E+03 -8.82729E+01
 -7.10527E+03 -9.53460E+03 -1.12557E+03 -1.42618E+04  8.36938E+03 -1.53129E+04  1.87186E+04 -8.67436E+03
  2.21450E+04  1.75968E+03  1.58325E+04  1.32651E+04  2.82996E+03  1.77235E+04 -8.75759E+03  1.43631E+04
 -1.17496E+04  4.07112E+03 -6.01256E+03 -2.96285E+03  1.98650E+03 -4.21168E+03  7.69764E+03 -7.14976E+02
  7.11869E+03  6.78290E+03  1.01413E+03  1.17790E+04 -8.47250E+03  1.10623E+04 -1.42232E+04  2.68825E+03
 -9.89731E+03 -7.46800E+03  5.28032E+02 -1.23397E+04  7.82789E+03 -6.44692E+03  8.33126E+03  3.03572E+03
  1.54482E+03  8.67191E+03 -7.97666E+03  1.05411E+04 -1.24787E+04  4.69538E+03 -1.22845E+04 -4.15580E+03
 -7.34823E+03 -1.44276E+04  3.36922E+03 -1.63862E+04  1.39816E+04 -9.97153E+03  1.49960E+04  2.54775E+03
  9.00150E+03  1.19839E+04 -1.39645E+03  1.43531E+04 -1.05694E+04  8.18344E+03 -1.17411E+04 -8.44479E+02
 -9.97641E+03 -9.62239E+03 -1.56055E+03 -1.06889E+04  5.29475E+03 -8.80131E+03  6.73081E+03 -3.58023E+03
  4.65356E+03  1.57983E+03 -1.01230E+03  1.73855E+03 -3.24837E+02 -3.05343E+03  2.57689E+03 -6.51593E+03
  1.04318E+04 -4.07531E+03  1.41414E+04  1.51078E+03  1.41057E+04  9.56674E+03  9.53493E+03  1.87138E+04
 -4.28972E+03  2.12849E+04 -1.75704E+04  1.56052E+04 -2.30548E+04  2.72957E+03 -1.87375E+04 -8.31243E+03
 -9.60121E+03 -1.50272E+04 -1.81853E+02 -1.31603E+04  4.52333E+03 -7.40003E+03  4.86954E+03 -4.75216E+03
  3.33976E+03 -2.78388E+03  3.67208E+03 -3.46714E+03  4.89417E+03 -3.12889E+03  7.17785E+03 -1.05313E+03
  9.90939E+03  2.20031E+03  5.13966E+03  8.28375E+03 -1.91092E+03  9.80987E+03 -1.01521E+04  7.36834E+03
 -1.32064E+04 -1.39636E+03 -7.78701E+03 -9.14022E+03 -1.18144E+03 -1.42153E+04  7.96702E+03 -1.36871E+04
  1.44061E+04 -7.95109E+03  1.73147E+04  2.36120E+03  1.21497E+04  1.22163E+04  1.47017E+03  1.55045E+04
 -6.30677E+03  1.27726E+04 -9.03943E+03  4.52356E+03 -5.98552E+03 -2.12643E+03 -2.48558E+03 -1.72044E+03
 -1.58747E+03 -2.13784E+02 -2.30765E+03  2.66815E+03 -5.31320E+03  2.28369E+03 -9.02751E+03 -1.30769E+03
 -6.32127E+03 -9.32151E+03  2.91422E+02 -1.26511E+04  7.85960E+03 -1.17758E+04  1.25838E+04 -3.71182E+03
  1.29426E+04  6.42507E+03  5.47178E+03  1.10797E+04 -2.84426E+03  1.30276E+04 -9.01282E+03  7.91275E+03
 -1.16511E+04  6.70505E+02 -9.05475E+03 -7.61318E+03 -1.54042E+03 -1.05747E+04  5.83817E+03 -7.52087E+03
  7.95591E+03 -2.83720E+03  5.36097E+03  2.29567E+03  1.97181E+03  3.99632E+03  1.07700E+03  1.80239E+03
  2.69880E+03  1.03342E+03  3.02362E+03  1.60245E+03  3.44010E+03  4.23254E+03  3.08052E+03  6.74165E+03
 -2.53491E+03  9.77001E+03 -8.82553E+03  9.90915E+03 -1.25640E+04  2.59206E+03 -1.30877E+04 -5.07632E+03
 -6.21536E+03 -1.20911E+04  1.88812E+03 -1.38432E+04  7.60928E+03 -8.73289E+03  1.02220E+04 -2.46293E+03
  7.91844E+03  4.52040E+03  1.86504E+03  7.27233E+03 -3.85009E+03  4.87979E+03 -5.20583E+03 -8.11290E+02
 -2.11269E+03 -5.50136E+03  3.14315E+03 -6.09202E+03  4.97419E+03 -2.28198E+03  5.28628E+03  1.20021E+03
  2.78987E+03  2.37101E+03  1.41857E+03  1.65872E+03 -7.57346E+02  1.78160E+03  1.36397E+03 -2.45780E+02
  1.75593E+03 -4.81699E+02  5.27449E+03  1.92351E+03  2.58879E+03  6.55735E+03 -8.78298E+02  8.76972E+03
 -6.04094E+03  5.56109E+03 -7.73014E+03  1.26572E+03 -6.87922E+03 -3.01896E+03 -2.29530E+03 -4.40378E+03
  7.21781E+02 -4.43600E+03  3.29025E+03 -2.13036E+03  2.62901E+03  2.58866E+03 -1.50493E+03  3.95135E+03
 -5.22851E+03  2.45357E+03 -5.88691E+03 -3.09162E+03 -2.93532E+03 -6.96717E+03  1.21026E+03 -6.82965E+03
  3.80670E+03 -3.91271E+03  4.79232E+03 -1.70171E+02  3.86764E+03  1.81947E+03  7.70533E+02  3.78584E+03
 -2.21690E+03  1.12587E+03 -2.80022E+03 -2.16581E+03  8.81776E+02 -4.93787E+03  5.87821E+03 -4.11341E+03
  7.54724E+03  6.88692E+02  7.62642E+03  4.72007E+03  2.49152E+03  7.57314E+03 -2.69678E+03  7.48026E+03
 -6.16460E+03  2.96935E+03 -6.61876E+03 -8.65917E+02 -3.67162E+03 -4.81214E+03  7.19801E+02 -4.81898E+03
  4.89045E+03 -2.41371E+03  3.95874E+03  2.36771E+03  1.43541E+03  4.51623E+03 -7.52936E+02  4.09873E+03
 -1.90342E+03  2.80433E+03 -2.17545E+03  7.06260E+02 -6.38220E+02  1.13299E+03 -1.48086E+03  1.66113E+03
 -1.81922E+03  2.87767E+03 -5.52963E+03  2.66239E+03 -7.62176E+03  1.63692E+02 -9.01789E+03 -4.77971E+03
 -4.47100E+03 -1.01973E+04  1.88295E+03 -1.20675E+04  7.14593E+03 -9.50995E+03  1.09069E+04 -3.78337E+03
  1.03285E+04  2.39776E+03  6.33365E+03  7.23399E+03  5.22677E+02  8.29176E+03 -3.13657E+03  5.87492E+03
 -4.64960E+03  2.07781E+03 -3.00608E+03 -1.02711E+03 -9.41304E+02 -3.24263E+02 -7.13098E+02 -1.59555E+02
 -1.50057E+03  2.53148E+02 -1.60522E+03  8.17839E+01 -8.05553E+02 -1.47758E+03  4.05257E+00 -3.27941E+03
  3.42222E+03 -2.32672E+03  4.41779E+03  5.57449E+00  5.71379E+03  4.30747E+03  1.09555E+03  7.56805E+03
 -3.63937E+03  9.00837E+03 -8.09755E+03  5.19425E+03 -9.55351E+03 -1.01983E+03 -7.18045E+03 -5.88531E+03
 -3.13156E+03 -7.72505E+03  1.96724E+03 -7.17496E+03  4.91933E+03 -3.91651E+03  5.44532E+03  3.56410E+02
  2.81505E+03  2.43166E+03 -8.95435E+01  2.09445E+03 -1.77933E+03 -2.44133E+02 -1.77918E+02 -1.77861E+03
  2.59382E+03 -1.24846E+03  2.98767E+03  1.39231E+03  2.00223E+03  3.26132E+03  8.96062E+01  3.60620E+03
 -3.44656E+03  3.28484E+03 -5.05078E+03  6.18348E+02 -4.58940E+03 -3.83018E+03 -5.77946E+02 -6.24973E+03
  3.21562E+03 -5.05937E+03  5.52533E+03 -1.31123E+03  6.03709E+03  1.02518E+03  2.96242E+03  4.42500E+03
  1.00068E+03  4.91498E+03 -1.66119E+03  3.78441E+03 -3.36766E+03  2.69945E+03 -2.12104E+03  2.44275E+02
 -1.24136E+03  1.60046E+02 -1.21485E+03  8.13287E+02 -2.45403E+03  6.44277E+02 -3.63459E+03 -6.53920E+02
 -4.14968E+03 -2.46317E+03 -1.04306E+03 -5.43087E+03  2.47675E+03 -5.51559E+03  3.95638E+03 -2.34823E+03
  4.59867E+03  8.51529E+02  2.40333E+03  3.11129E+03 -2.90301E+02  4.94360E+03 -3.84831E+03  2.95008E+03
