 $NMID ID='MM_0lb_SNR800_14hz_g40_50.RAW', FMTDAT='(8E13.5)'
 TRAMP=1., VOLUME=1. $END
  3.09790E+05  4.85629E+02  3.37750E+05  2.50506E+05  8.45942E+04  3.37623E+05 -1.32552E+05  2.50941E+05
 -1.89946E+05  8.28535E+04 -1.11510E+05 -3.27981E+04  9.95693E+02 -5.06491E+04  5.39286E+04 -7.31825E+01
  3.48656E+04  5.29678E+04 -1.69690E+04  7.53360E+04 -6.08026E+04  6.29174E+04 -8.39115E+04  3.20096E+04
 -8.05395E+04 -1.14719E+04 -5.69017E+04 -5.06902E+04 -1.49266E+04 -6.90026E+04  2.68844E+04 -4.54311E+04
  3.99937E+04  3.78717E+03  1.61419E+04  4.78939E+04 -3.45715E+04  4.65774E+04 -6.62459E+04 -5.22803E+02
 -5.30687E+04 -5.64898E+04 -6.48051E+03 -7.69299E+04  3.37418E+04 -5.47331E+04  4.73310E+04 -1.70638E+04
  4.27545E+04  1.10168E+04  3.13114E+04  2.53625E+04  1.59327E+04  2.94823E+04 -5.13324E+03  2.74299E+04
 -2.18756E+04  1.20879E+04 -1.86770E+04 -4.82279E+03  5.09928E+03 -7.55920E+03  2.20442E+04  1.19127E+04
  7.25308E+03  3.49017E+04 -3.18070E+04  3.51103E+04 -6.27381E+04  2.34889E+03 -5.62068E+04 -4.24733E+04
 -1.25943E+04 -6.23967E+04  3.91867E+04 -4.47547E+04  5.73699E+04 -2.13478E+03  3.32994E+04  3.18095E+04
 -6.13261E+03  3.50076E+04 -2.97410E+04  1.50580E+04 -2.95739E+04 -4.59869E+03 -1.60953E+04 -1.11014E+04
 -8.26214E+03 -1.28412E+04 -9.36662E+02 -1.77374E+04  7.30947E+03 -2.28325E+04  1.53522E+04 -1.34207E+04
  1.16927E+04  4.72942E+03 -7.68024E+03  1.30283E+04 -2.06339E+04 -3.88785E+03 -8.44038E+03 -3.30469E+04
  2.23392E+04 -4.27467E+04  4.73600E+04 -1.95644E+04  4.41365E+04  1.90176E+04  1.51241E+04  4.37507E+04
 -1.56509E+04  3.31388E+04 -2.47000E+04  1.30606E+03 -9.28532E+03 -2.73522E+04  2.08976E+04 -3.32829E+04
  4.00961E+04 -8.51290E+03  3.45277E+04  2.30728E+04  1.73746E+04  4.53804E+04 -7.89237E+03  4.91588E+04
 -3.06328E+04  3.28776E+04 -4.05841E+04  9.41936E+03 -4.14494E+04 -1.61652E+04 -2.28478E+04 -3.69807E+04
  7.24756E+03 -3.65355E+04  3.07575E+04 -1.42203E+04  2.85966E+04  1.10799E+04  3.92297E+03  1.89174E+04
 -1.33170E+04  8.06860E+03 -1.00410E+04 -7.98828E+03  6.09670E+03 -1.04403E+04  1.75934E+04  6.48734E+03
  1.33749E+04  2.20745E+04 -5.99363E+03  2.44220E+04 -2.21198E+04  1.10247E+04 -2.69840E+04 -4.89521E+03
 -1.98881E+04 -1.70823E+04 -7.73500E+03 -1.94766E+04  4.09855E+03 -1.85067E+04  1.47469E+04 -1.74948E+04
  2.48805E+04 -1.26011E+04  3.13159E+04  1.96394E+03  2.30581E+04  1.89483E+04  4.20059E+03  3.51279E+04
 -1.73246E+04  2.96308E+04 -2.76014E+04  1.00116E+04 -2.03014E+04 -1.05133E+04 -3.99917E+03 -1.35697E+04
  2.33942E+03 -2.70097E+03 -4.46490E+03  6.31066E+03 -1.53932E+04  5.09764E+03 -1.58649E+04 -6.55235E+03
 -9.73308E+03 -1.81787E+04  4.87735E+03 -2.21896E+04  1.48434E+04 -1.60545E+04  1.75015E+04 -1.83369E+03
  1.09895E+04  1.27013E+04 -1.17661E+03  1.80253E+04 -1.26273E+04  1.00832E+04 -1.84047E+04 -3.78974E+03
 -1.35470E+04 -1.65626E+04 -1.40172E+03 -2.22359E+04  1.01808E+04 -1.82779E+04  1.84425E+04 -8.99313E+03
  1.69881E+04 -3.21441E+01  1.24010E+04  4.38932E+03  6.46987E+03  1.12816E+03  8.98699E+03 -1.55132E+03
  1.65446E+04  2.75983E+03  1.84061E+04  1.47287E+04  1.18568E+04  2.88967E+04 -2.86665E+03  3.27202E+04
 -1.91366E+04  2.60187E+04 -3.03315E+04  1.29540E+04 -3.19621E+04 -2.00033E+03 -2.62853E+04 -1.82945E+04
 -1.11993E+04 -2.61611E+04  9.04023E+03 -2.34771E+04  2.04928E+04 -1.21927E+04  1.86930E+04  4.98859E+03
  7.06832E+03  1.40898E+04 -8.68729E+03  1.20259E+04 -1.61755E+04  2.72373E+03 -1.20978E+04 -9.52339E+03
 -4.22033E+02 -1.48713E+04  7.70654E+03 -1.08948E+04  9.86990E+03 -1.24485E+03  1.94109E+03  6.27660E+03
 -6.56393E+03  2.16929E+03 -5.70911E+03 -5.42401E+03 -4.27012E+02 -1.26673E+04  9.47471E+03 -1.33258E+04
  1.59097E+04 -7.01912E+03  1.69725E+04  3.07913E+03  1.46782E+04  1.25409E+04  6.81674E+03  1.91108E+04
 -3.05432E+03  2.09218E+04 -1.33560E+04  1.33782E+04 -1.48644E+04  3.09375E+03 -1.07512E+04 -3.13589E+03
 -5.27281E+03 -4.83280E+03 -7.17017E+02  1.34020E+03 -2.27756E+03  2.51036E+03 -4.83200E+03  3.98840E+03
 -1.01085E+04 -4.02962E+02 -1.07895E+04 -8.78255E+03 -4.28133E+03 -1.43405E+04  4.40960E+03 -1.05018E+04
  8.98231E+03 -4.59076E+03  6.27211E+03  2.77247E+03  3.16726E+02  3.98535E+03 -4.86979E+03 -1.07189E+01
 -4.77068E+03 -6.77585E+03 -1.03895E+03 -9.98684E+03  5.82435E+03 -1.09006E+04  1.33401E+04 -5.38550E+03
  1.54905E+04  1.07196E+03  1.14766E+04  9.00594E+03  2.33381E+03  1.22061E+04 -6.97120E+03  1.06719E+04
 -8.84835E+03  2.99165E+03 -4.49688E+03 -1.77520E+03  1.72228E+03 -2.58754E+03  5.84796E+03 -7.96640E+02
  5.13847E+03  4.72693E+03  8.87375E+02  8.49202E+03 -5.97550E+03  8.06947E+03 -1.03720E+04  2.09466E+03
 -6.49693E+03 -5.01763E+03  3.11000E+02 -9.12531E+03  5.49762E+03 -4.66697E+03  5.36499E+03  1.58963E+03
  8.98652E+02  5.54694E+03 -5.20145E+03  7.23471E+03 -7.55213E+03  3.31407E+03 -7.63152E+03 -2.30161E+03
 -4.55996E+03 -9.21098E+03  2.12990E+03 -1.08820E+04  8.61102E+03 -6.69109E+03  1.00351E+04  1.69283E+03
  6.20314E+03  7.72451E+03 -3.01507E+02  1.00784E+04 -7.19149E+03  5.74458E+03 -7.25461E+03 -6.17218E+02
 -7.34757E+03 -7.23905E+03 -1.72246E+03 -7.41952E+03  3.88844E+03 -6.34186E+03  4.46089E+03 -3.06834E+03
  3.29184E+03  7.78401E+02 -5.67310E+02  1.68382E+03  6.53409E+01 -1.77703E+03  1.10307E+03 -3.52705E+03
  6.14455E+03 -1.93783E+03  8.66160E+03  8.11422E+02  8.91595E+03  5.58590E+03  6.67561E+03  1.15496E+04
 -2.66416E+03  1.35722E+04 -1.15845E+04  1.00028E+04 -1.50993E+04  1.82892E+03 -1.17175E+04 -5.12890E+03
 -6.32754E+03 -9.75682E+03 -4.59493E+02 -8.37300E+03  2.92326E+03 -4.18875E+03  2.84777E+03 -3.22273E+03
  2.09044E+03 -2.15296E+03  2.66479E+03 -2.80126E+03  4.01565E+03 -1.95743E+03  4.97287E+03 -4.89123E+01
  6.48990E+03  1.20706E+03  2.62156E+03  5.53020E+03 -1.74083E+03  5.38302E+03 -6.48596E+03  4.48646E+03
 -7.80683E+03 -1.29035E+03 -4.03453E+03 -5.60440E+03 -1.99777E+02 -8.35104E+03  5.34993E+03 -8.66557E+03
  8.83240E+03 -5.12113E+03  1.05174E+04  7.45162E+02  7.52835E+03  7.39725E+03  1.38073E+03  9.70352E+03
 -3.44519E+03  8.69798E+03 -5.32577E+03  2.88988E+03 -3.69587E+03 -1.23112E+03 -1.38082E+03 -7.69910E+02
 -1.21859E+03  2.47733E+02 -8.91607E+02  2.24976E+03 -3.57094E+03  1.22237E+03 -5.94942E+03 -7.61621E+02
 -3.42813E+03 -5.80353E+03  4.78056E+02 -7.49708E+03  4.69391E+03 -7.26730E+03  6.88677E+03 -1.78879E+03
  6.85005E+03  3.83670E+03  3.37711E+03  6.53242E+03 -1.52542E+03  7.79797E+03 -4.97219E+03  4.92132E+03
 -6.79233E+03  6.61266E+02 -5.83190E+03 -4.27697E+03 -4.95805E+02 -5.91638E+03  3.28898E+03 -4.40677E+03
  4.90526E+03 -1.67092E+03  3.25596E+03  7.79908E+02  7.55420E+02  2.45916E+03  1.08882E+03  8.42733E+02
  2.00203E+03  9.80914E+02  1.94375E+03  1.24248E+03  2.02479E+03  2.95190E+03  2.18961E+03  3.60728E+03
 -1.98319E+03  5.53259E+03 -5.18843E+03  6.23414E+03 -6.65193E+03  1.45105E+03 -7.38792E+03 -2.15235E+03
 -3.62474E+03 -6.77424E+03  1.26608E+03 -7.93738E+03  3.97953E+03 -4.63784E+03  5.75902E+03 -1.30507E+03
  4.73719E+03  2.94412E+03  9.34019E+02  4.38993E+03 -1.84613E+03  2.15319E+03 -2.67244E+03 -1.55705E+02
 -1.23622E+03 -3.21606E+03  1.74642E+03 -3.17143E+03  2.76316E+03 -1.98370E+03  2.83995E+03  6.58938E+02
  1.58133E+03  1.24881E+03  1.19767E+03  3.91758E+02 -5.07887E+02  1.28544E+03  1.46018E+03 -2.99462E+02
  8.94980E+02 -4.05596E+02  3.14934E+03  1.13652E+03  1.27403E+03  3.86168E+03 -7.14287E+02  4.97545E+03
 -3.19686E+03  3.01105E+03 -4.06276E+03  8.63728E+02 -3.73702E+03 -1.41144E+03 -1.32329E+03 -2.68368E+03
  5.49694E+02 -2.64903E+03  1.62898E+03 -1.10356E+03  1.31152E+03  1.49821E+03 -9.64000E+02  2.14213E+03
 -2.66335E+03  1.59103E+03 -2.75797E+03 -1.82452E+03 -1.50263E+03 -4.07451E+03  4.68833E+02 -3.15204E+03
  1.70399E+03 -1.62052E+03  2.19715E+03  2.65675E+02  2.29187E+03  3.77494E+02  4.02824E+02  1.84255E+03
 -1.31551E+03  3.73230E+02 -1.62597E+03 -8.52590E+02  6.74886E+02 -2.47163E+03  3.33993E+03 -2.04327E+03
  3.68044E+03  2.85832E+02  4.64474E+03  2.44818E+03  1.56247E+03  3.95364E+03 -9.62039E+02  3.97480E+03
 -3.22400E+03  1.54668E+03 -3.60073E+03 -2.13390E+02 -2.27185E+03 -3.03381E+03  5.29734E+02 -2.25401E+03
  2.73294E+03 -1.42373E+03  1.89542E+03  1.13738E+03  5.30219E+02  2.27097E+03 -1.82719E+01  2.43233E+03
 -9.88458E+02  1.98810E+03 -9.58549E+02  4.16823E+02 -1.67704E+02  4.08979E+02 -1.15853E+03  1.05472E+03
 -9.80695E+02  1.71737E+03 -3.05771E+03  1.46218E+03 -4.06583E+03 -3.23812E+02 -4.54766E+03 -2.50922E+03
 -2.30149E+03 -5.35849E+03  9.77003E+02 -6.21656E+03  3.43482E+03 -4.70211E+03  5.73971E+03 -1.94109E+03
  5.80208E+03  7.48844E+02  3.02039E+03  3.71308E+03 -1.64606E+02  3.61059E+03 -1.57232E+03  3.20810E+03
 -2.27225E+03  1.29896E+03 -1.28554E+03 -5.28793E+02 -7.00970E+02 -1.48467E+02 -9.05608E+02  2.63588E+02
 -1.11872E+03  2.34433E+02 -1.20649E+03  1.06211E+01 -2.55674E+02 -9.81046E+02 -5.67109E+01 -1.80982E+03
  2.01342E+03 -1.28959E+03  1.66195E+03  3.06806E+02  2.71251E+03  2.34680E+03  2.23450E+02  3.90931E+03
 -2.04221E+03  4.78915E+03 -4.18182E+03  2.71239E+03 -4.58241E+03 -1.16460E+02 -3.47902E+03 -3.06146E+03
 -1.85441E+03 -3.83637E+03  7.66365E+02 -3.52380E+03  2.53882E+03 -1.98887E+03  1.94621E+03  8.83700E+01
  1.29755E+03  1.07599E+03  1.00800E+02  1.14222E+03 -9.30018E+02 -3.98048E+02  4.66497E+01 -8.69630E+02
  1.17817E+03 -3.26713E+02  1.20962E+03  5.87907E+02  1.01445E+03  1.24850E+03  3.73797E+02  1.51659E+03
 -1.70670E+03  1.81496E+03 -2.09016E+03  3.54731E+02 -2.18448E+03 -1.90980E+03 -3.06443E+02 -2.96704E+03
  1.58934E+03 -2.33292E+03  2.69864E+03 -8.39364E+02  2.27863E+03 -1.59626E+02  1.34656E+03  2.48120E+03
  6.37514E+02  2.67998E+03 -7.73961E+02  1.90687E+03 -1.57115E+03  1.71084E+03 -1.37244E+03  3.22727E+02
 -1.80882E+02 -1.81079E+02 -8.29957E+02  1.38399E+02 -1.56488E+03  6.07191E+02 -1.87798E+03 -4.01994E+02
 -1.87508E+03 -1.19379E+03 -7.08965E+02 -2.44810E+03  1.27771E+03 -3.20833E+03  2.12156E+03 -1.08489E+03
  2.28056E+03  4.38879E+01  5.47800E+02  1.19997E+03 -4.06990E+02  2.14973E+03 -1.87659E+03  1.71456E+03
