 $NMID ID='MM_0lb_SNR800_13hz_g55_42.RAW', FMTDAT='(8E13.5)'
 TRAMP=1., VOLUME=1. $END
  3.09878E+05  2.43788E+02  3.37969E+05  2.50727E+05  8.49448E+04  3.38246E+05 -1.32657E+05  2.51641E+05
 -1.90363E+05  8.35702E+04 -1.12137E+05 -3.25605E+04  7.75957E+02 -5.07466E+04  5.35448E+04 -2.26299E+02
  3.50973E+04  5.27115E+04 -1.64763E+04  7.55332E+04 -6.08806E+04  6.40461E+04 -8.45740E+04  3.23390E+04
 -8.14128E+04 -1.14501E+04 -5.76113E+04 -5.19213E+04 -1.50835E+04 -7.03235E+04  2.78397E+04 -4.60044E+04
  4.01031E+04  3.80633E+03  1.65248E+04  4.82156E+04 -3.48311E+04  4.72294E+04 -6.70970E+04 -1.75317E+02
 -5.41156E+04 -5.71694E+04 -6.85880E+03 -7.78713E+04  3.43890E+04 -5.60383E+04  4.86321E+04 -1.77083E+04
  4.43719E+04  1.13043E+04  3.23767E+04  2.58158E+04  1.61318E+04  2.97540E+04 -5.27566E+03  2.77509E+04
 -2.23368E+04  1.23647E+04 -1.84050E+04 -5.49084E+03  6.07667E+03 -7.63317E+03  2.29473E+04  1.28604E+04
  7.21879E+03  3.61026E+04 -3.28158E+04  3.62229E+04 -6.42213E+04  2.27997E+03 -5.75735E+04 -4.36139E+04
 -1.26080E+04 -6.40514E+04  4.01295E+04 -4.64289E+04  5.93125E+04 -2.09216E+03  3.53839E+04  3.35181E+04
 -5.56812E+03  3.72641E+04 -3.07035E+04  1.68094E+04 -3.13513E+04 -4.41091E+03 -1.80171E+04 -1.11549E+04
 -8.64021E+03 -1.39417E+04 -5.80603E+02 -1.88304E+04  8.04385E+03 -2.29223E+04  1.56814E+04 -1.29550E+04
  1.14345E+04  5.82542E+03 -8.77672E+03  1.29104E+04 -2.20701E+04 -5.10440E+03 -8.58856E+03 -3.51313E+04
  2.38184E+04 -4.46366E+04  4.97422E+04 -2.02193E+04  4.63757E+04  1.97865E+04  1.64700E+04  4.52584E+04
 -1.63626E+04  3.44702E+04 -2.63584E+04  2.27169E+03 -1.06466E+04 -2.86278E+04  2.10460E+04 -3.50066E+04
  4.19054E+04 -9.83294E+03  3.77265E+04  2.43280E+04  1.89737E+04  4.80420E+04 -8.28296E+03  5.24616E+04
 -3.29717E+04  3.50665E+04 -4.39318E+04  1.01551E+04 -4.40824E+04 -1.71910E+04 -2.45656E+04 -3.95044E+04
  7.45006E+03 -3.89468E+04  3.24620E+04 -1.53061E+04  3.05139E+04  1.11788E+04  4.63223E+03  1.96041E+04
 -1.34235E+04  8.59733E+03 -1.05069E+04 -7.87370E+03  5.99022E+03 -1.05609E+04  1.86431E+04  5.73020E+03
  1.35307E+04  2.24313E+04 -5.80116E+03  2.56666E+04 -2.28371E+04  1.25743E+04 -2.96678E+04 -4.01939E+03
 -2.23461E+04 -1.78268E+04 -9.86587E+03 -2.20387E+04  4.27130E+03 -2.15851E+04  1.76019E+04 -1.97097E+04
  2.80714E+04 -1.32037E+04  3.42812E+04  3.38792E+03  2.49803E+04  2.15249E+04  4.45902E+03  3.81707E+04
 -1.82795E+04  3.15309E+04 -2.86864E+04  1.10214E+04 -2.14603E+04 -1.02921E+04 -4.84485E+03 -1.31583E+04
  1.58793E+03 -2.19053E+03 -5.62167E+03  7.44760E+03 -1.74283E+04  4.78053E+03 -1.75080E+04 -7.89570E+03
 -1.07020E+04 -2.03433E+04  5.67057E+03 -2.47922E+04  1.62363E+04 -1.77021E+04  1.94748E+04 -1.58789E+03
  1.25922E+04  1.41277E+04 -1.06344E+03  2.03456E+04 -1.43394E+04  1.15055E+04 -2.04289E+04 -4.07280E+03
 -1.50958E+04 -1.82058E+04 -2.00792E+03 -2.45966E+04  1.13792E+04 -2.03044E+04  2.06212E+04 -1.01659E+04
  1.90254E+04  3.88113E+01  1.40884E+04  4.64023E+03  7.33304E+03  1.08497E+03  1.04908E+04 -1.92333E+03
  1.85261E+04  2.98395E+03  2.17442E+04  1.61592E+04  1.41370E+04  3.25769E+04 -2.83825E+03  3.72778E+04
 -2.19126E+04  3.00907E+04 -3.51602E+04  1.54877E+04 -3.73378E+04 -2.45064E+03 -2.99952E+04 -2.11350E+04
 -1.26364E+04 -3.05573E+04  1.05681E+04 -2.69686E+04  2.29131E+04 -1.32586E+04  2.09137E+04  5.96453E+03
  7.29259E+03  1.56050E+04 -9.65672E+03  1.36796E+04 -1.74044E+04  2.53617E+03 -1.31688E+04 -1.12963E+04
 -4.98377E+02 -1.65202E+04  8.85078E+03 -1.22021E+04  1.10669E+04 -1.35336E+03  2.86756E+03  7.29120E+03
 -7.33383E+03  3.44368E+03 -7.12451E+03 -5.84709E+03 -4.88045E+02 -1.53759E+04  1.02219E+04 -1.58314E+04
  1.87518E+04 -8.55314E+03  2.03287E+04  2.85617E+03  1.76680E+04  1.49505E+04  8.20487E+03  2.29288E+04
 -3.89286E+03  2.49595E+04 -1.55805E+04  1.53994E+04 -1.82712E+04  3.40692E+03 -1.28158E+04 -4.36786E+03
 -5.77006E+03 -5.33351E+03 -7.17234E+02  4.93101E+02 -2.40258E+03  2.75907E+03 -5.72138E+03  4.64894E+03
 -1.19154E+04 -4.71825E+02 -1.24214E+04 -9.77776E+03 -4.96040E+03 -1.61847E+04  5.06380E+03 -1.25785E+04
  1.05012E+04 -5.20839E+03  7.35787E+03  3.28366E+03  8.93038E+01  4.62823E+03 -6.21266E+03 -1.98603E+02
 -5.83115E+03 -7.98314E+03 -1.02694E+03 -1.17542E+04  6.84072E+03 -1.28665E+04  1.60118E+04 -6.50825E+03
  1.83494E+04  2.02563E+03  1.35043E+04  1.08289E+04  2.61661E+03  1.46096E+04 -7.99693E+03  1.21995E+04
 -1.01849E+04  3.67348E+03 -5.62708E+03 -2.81977E+03  1.93318E+03 -3.19012E+03  6.44940E+03 -9.29360E+02
  6.38432E+03  5.32453E+03  1.05156E+03  9.86300E+03 -7.26617E+03  9.76144E+03 -1.21470E+04  2.01492E+03
 -8.23962E+03 -6.20548E+03  1.39877E+02 -1.05664E+04  6.26119E+03 -5.20977E+03  7.25253E+03  2.29503E+03
  1.20070E+03  7.11855E+03 -6.50715E+03  8.65884E+03 -9.46776E+03  4.10552E+03 -1.00986E+04 -3.39616E+03
 -5.60369E+03 -1.12434E+04  2.75314E+03 -1.29553E+04  1.11107E+04 -8.11796E+03  1.21069E+04  1.95686E+03
  7.61879E+03  9.47431E+03 -6.95792E+02  1.21629E+04 -8.34703E+03  6.93252E+03 -9.08299E+03 -1.11201E+03
 -8.01704E+03 -8.06139E+03 -1.55046E+03 -8.91555E+03  4.68680E+03 -7.04131E+03  5.78470E+03 -3.20498E+03
  3.95261E+03  1.37093E+03 -7.87600E+02  1.55816E+03  1.88716E+02 -1.93912E+03  1.54387E+03 -4.61896E+03
  8.38379E+03 -2.94965E+03  1.09502E+04  1.32936E+03  1.08691E+04  6.96657E+03  7.71867E+03  1.43883E+04
 -3.20636E+03  1.65478E+04 -1.39398E+04  1.24877E+04 -1.83261E+04  2.32018E+03 -1.47084E+04 -6.10694E+03
 -7.54915E+03 -1.20026E+04 -4.01030E+02 -1.00372E+04  3.45935E+03 -5.38662E+03  3.64857E+03 -3.93172E+03
  2.65993E+03 -2.36577E+03  3.01950E+03 -3.14513E+03  4.53409E+03 -2.58730E+03  6.20738E+03 -5.21510E+02
  7.64223E+03  1.84638E+03  3.55803E+03  6.70306E+03 -1.48809E+03  6.86738E+03 -7.79169E+03  5.88631E+03
 -9.84578E+03 -1.22407E+03 -5.65204E+03 -7.11406E+03 -2.59702E+02 -1.07786E+04  6.42626E+03 -1.05440E+04
  1.09051E+04 -5.93398E+03  1.33636E+04  1.61547E+03  9.40800E+03  8.73586E+03  1.92669E+03  1.19681E+04
 -4.76385E+03  1.00749E+04 -6.84755E+03  3.27194E+03 -4.22538E+03 -1.35154E+03 -1.57681E+03 -1.51176E+03
 -6.52231E+02  2.36063E+02 -1.96166E+03  2.37277E+03 -4.27797E+03  1.54320E+03 -7.26340E+03 -1.11435E+03
 -4.22997E+03 -6.92064E+03  1.51861E+02 -9.58072E+03  5.79019E+03 -9.10557E+03  8.96194E+03 -2.80870E+03
  9.11935E+03  4.88160E+03  4.15615E+03  8.11468E+03 -1.50136E+03  9.54928E+03 -6.36958E+03  5.85897E+03
 -8.65732E+03  6.12779E+02 -6.81053E+03 -5.53513E+03 -3.26984E+02 -7.46382E+03  3.44923E+03 -5.79284E+03
  5.87059E+03 -2.15379E+03  4.07807E+03  1.48619E+03  1.45412E+03  3.00561E+03  1.25279E+03  1.11650E+03
  2.06616E+03  5.37757E+02  2.06076E+03  1.57449E+03  2.27804E+03  3.50506E+03  2.78235E+03  4.74691E+03
 -1.84974E+03  6.95040E+03 -6.09170E+03  7.53927E+03 -9.13084E+03  2.06949E+03 -9.84553E+03 -3.26246E+03
 -4.22818E+03 -8.98719E+03  1.60210E+03 -1.01128E+04  5.46697E+03 -6.22130E+03  7.49131E+03 -1.75842E+03
  5.83456E+03  3.36023E+03  1.54429E+03  5.64260E+03 -2.22109E+03  3.50980E+03 -3.45406E+03 -5.42027E+02
 -1.71678E+03 -3.68529E+03  2.28204E+03 -4.01072E+03  3.43838E+03 -2.02829E+03  3.47942E+03  7.09009E+02
  2.39421E+03  1.40366E+03  1.09867E+03  1.05309E+03 -3.66377E+02  1.06809E+03  1.58236E+03 -3.37007E+02
  1.17143E+03 -4.43552E+02  3.82535E+03  1.58943E+03  2.02556E+03  4.96428E+03 -7.25199E+02  6.56163E+03
 -4.07691E+03  3.62876E+03 -5.49881E+03  1.17820E+03 -4.83106E+03 -1.86545E+03 -1.47349E+03 -3.17698E+03
  7.44273E+02 -3.02877E+03  2.38377E+03 -1.48760E+03  1.83714E+03  1.69933E+03 -9.62289E+02  2.78687E+03
 -3.78199E+03  1.90289E+03 -3.96917E+03 -2.33942E+03 -2.17474E+03 -4.95802E+03  6.83243E+02 -4.32097E+03
  2.14382E+03 -2.47166E+03  3.04668E+03 -8.27727E+01  3.24310E+03  7.65322E+02  4.82390E+02  2.21009E+03
 -1.57399E+03  8.56495E+02 -2.41887E+03 -1.18470E+03  1.01693E+03 -3.42982E+03  4.11632E+03 -2.89454E+03
  4.92520E+03  4.15471E+02  5.31729E+03  3.49179E+03  2.26148E+03  5.24872E+03 -1.70343E+03  5.06445E+03
 -4.26885E+03  1.90946E+03 -4.58100E+03 -9.02855E+02 -2.59844E+03 -3.60199E+03  1.00829E+03 -3.29489E+03
  3.08848E+03 -1.78713E+03  2.36850E+03  1.63794E+03  9.41712E+02  3.18466E+03 -3.26947E+02  2.80478E+03
 -1.12687E+03  1.83499E+03 -1.24796E+03  3.34364E+02 -8.54152E+02  6.19883E+02 -1.56889E+03  1.27022E+03
 -1.39887E+03  2.20718E+03 -3.66875E+03  1.66082E+03 -5.15964E+03  3.06723E+02 -6.24705E+03 -3.30692E+03
 -2.88344E+03 -6.94541E+03  1.17358E+03 -7.85330E+03  4.17801E+03 -6.45769E+03  7.56192E+03 -2.70046E+03
  7.15809E+03  8.53590E+02  3.95570E+03  4.61770E+03  1.18689E+02  5.09636E+03 -2.21771E+03  3.97138E+03
 -2.96581E+03  1.69150E+03 -1.76591E+03 -4.15048E+02 -9.54295E+02 -2.76546E+02 -6.52730E+02 -7.44697E+00
 -1.48229E+03 -2.44030E+02 -1.71468E+03 -9.76876E+01  3.21137E+01 -1.68563E+03 -1.33479E+02 -2.14690E+03
  2.18764E+03 -1.71987E+03  2.67666E+03  3.55863E+02  3.46375E+03  2.80373E+03  7.01330E+02  5.15806E+03
 -2.42400E+03  5.87579E+03 -5.23696E+03  3.26635E+03 -6.33338E+03 -4.27234E+02 -4.60442E+03 -3.81795E+03
 -2.23728E+03 -4.92342E+03  1.24167E+03 -4.53429E+03  2.87227E+03 -2.63106E+03  3.14305E+03  3.17064E+02
  1.87594E+03  1.38565E+03 -1.57436E+02  1.32345E+03 -1.17803E+03 -1.32606E+02 -6.09493E+01 -1.37715E+03
  1.58609E+03 -7.00987E+02  1.73331E+03  1.12267E+03  1.21775E+03  1.74207E+03  6.37969E+02  2.11505E+03
 -2.50246E+03  1.76647E+03 -3.05074E+03  2.43558E+02 -2.64904E+03 -2.11779E+03 -5.41359E+02 -4.16527E+03
  2.44301E+03 -3.12204E+03  3.46782E+03 -6.72304E+02  3.38024E+03  3.28943E+02  1.43524E+03  2.71790E+03
  6.77173E+02  2.69660E+03 -1.72456E+03  2.40453E+03 -2.00543E+03  1.63223E+03 -1.67874E+03  2.30407E+02
 -4.88964E+02 -4.96268E+01 -1.00584E+03  3.69462E+02 -1.82599E+03  6.03111E+02 -2.44004E+03 -7.01106E+02
 -2.79518E+03 -1.14540E+03 -4.15784E+02 -2.93078E+03  1.34438E+03 -3.83740E+03  2.29053E+03 -1.55939E+03
  2.99106E+03  4.92350E+02  1.39603E+03  1.81218E+03 -3.69680E+02  3.04136E+03 -2.00627E+03  2.04567E+03
