 $NMID ID='MM_0lb_SNR800_13hz_g60_54.RAW', FMTDAT='(8E13.5)'
 TRAMP=1., VOLUME=1. $END
  3.10196E+05  4.37804E+02  3.37506E+05  2.50415E+05  8.48091E+04  3.38122E+05 -1.32830E+05  2.51491E+05
 -1.90729E+05  8.36278E+04 -1.12176E+05 -3.25372E+04  4.83371E+02 -5.06848E+04  5.38697E+04 -3.92474E+02
  3.52944E+04  5.27134E+04 -1.67200E+04  7.60112E+04 -6.11047E+04  6.42776E+04 -8.44978E+04  3.23728E+04
 -8.20821E+04 -1.15765E+04 -5.77336E+04 -5.17519E+04 -1.51131E+04 -7.06584E+04  2.77043E+04 -4.61711E+04
  4.07024E+04  3.41790E+03  1.61138E+04  4.83259E+04 -3.48586E+04  4.77472E+04 -6.73327E+04  1.20119E+02
 -5.39676E+04 -5.72666E+04 -6.66127E+03 -7.82957E+04  3.42697E+04 -5.62096E+04  4.88379E+04 -1.81659E+04
  4.46908E+04  1.13326E+04  3.24903E+04  2.60533E+04  1.57692E+04  3.01333E+04 -5.52199E+03  2.74494E+04
 -2.21069E+04  1.26297E+04 -1.83855E+04 -5.17908E+03  6.56614E+03 -7.51647E+03  2.31268E+04  1.30222E+04
  7.05087E+03  3.64477E+04 -3.32451E+04  3.63849E+04 -6.46697E+04  2.24830E+03 -5.77986E+04 -4.36537E+04
 -1.24375E+04 -6.45568E+04  4.07026E+04 -4.66047E+04  5.97734E+04 -2.56442E+03  3.56175E+04  3.34118E+04
 -5.85854E+03  3.76081E+04 -3.08818E+04  1.73778E+04 -3.20782E+04 -3.86641E+03 -1.80814E+04 -1.14517E+04
 -9.20248E+03 -1.44274E+04 -7.48052E+02 -1.88491E+04  8.20194E+03 -2.34094E+04  1.56566E+04 -1.28678E+04
  1.08404E+04  5.84055E+03 -9.17770E+03  1.29469E+04 -2.24287E+04 -5.89371E+03 -8.15756E+03 -3.58417E+04
  2.43091E+04 -4.51687E+04  5.01149E+04 -2.03046E+04  4.69034E+04  1.98310E+04  1.67002E+04  4.56531E+04
 -1.62613E+04  3.50079E+04 -2.66530E+04  2.51893E+03 -1.08993E+04 -2.91117E+04  2.14641E+04 -3.53377E+04
  4.27294E+04 -9.87983E+03  3.80777E+04  2.45309E+04  2.00751E+04  4.89251E+04 -7.95584E+03  5.33999E+04
 -3.34462E+04  3.62188E+04 -4.46743E+04  1.04155E+04 -4.47040E+04 -1.81337E+04 -2.46811E+04 -3.99876E+04
  7.51521E+03 -3.99802E+04  3.29242E+04 -1.57183E+04  3.04567E+04  1.12123E+04  4.77310E+03  2.01141E+04
 -1.36066E+04  8.93586E+03 -1.08603E+04 -7.73759E+03  5.47019E+03 -1.13032E+04  1.83655E+04  6.12246E+03
  1.42563E+04  2.24748E+04 -5.63878E+03  2.61113E+04 -2.28751E+04  1.29544E+04 -2.94391E+04 -3.92251E+03
 -2.25429E+04 -1.79199E+04 -1.00974E+04 -2.25872E+04  4.28394E+03 -2.30858E+04  1.76797E+04 -2.06177E+04
  2.91737E+04 -1.34311E+04  3.52050E+04  3.74921E+03  2.51883E+04  2.21464E+04  4.52915E+03  3.86205E+04
 -1.89474E+04  3.20750E+04 -2.91218E+04  1.12361E+04 -2.16819E+04 -1.04248E+04 -4.70857E+03 -1.32010E+04
  1.52072E+03 -1.94308E+03 -5.95238E+03  7.47043E+03 -1.80199E+04  5.05970E+03 -1.81900E+04 -8.27644E+03
 -1.10557E+04 -2.09133E+04  5.65817E+03 -2.51282E+04  1.67657E+04 -1.82535E+04  2.00876E+04 -1.77036E+03
  1.26148E+04  1.43762E+04 -8.23821E+02  2.09617E+04 -1.48855E+04  1.19565E+04 -2.12275E+04 -4.23883E+03
 -1.54786E+04 -1.90076E+04 -2.12641E+03 -2.54263E+04  1.14007E+04 -2.05882E+04  2.10906E+04 -1.06017E+04
  1.97263E+04  5.15277E+02  1.43264E+04  4.80966E+03  7.64702E+03  1.30840E+03  1.07479E+04 -1.94653E+03
  1.91614E+04  2.70675E+03  2.20488E+04  1.62692E+04  1.48072E+04  3.33415E+04 -2.82415E+03  3.84204E+04
 -2.22501E+04  3.15780E+04 -3.61721E+04  1.62636E+04 -3.83109E+04 -2.97592E+03 -3.10967E+04 -2.22055E+04
 -1.28330E+04 -3.17733E+04  1.12927E+04 -2.80877E+04  2.42575E+04 -1.37492E+04  2.12555E+04  6.32076E+03
  7.90897E+03  1.63510E+04 -1.00037E+04  1.36759E+04 -1.76974E+04  2.89412E+03 -1.35933E+04 -1.10984E+04
 -4.60349E+02 -1.69988E+04  8.64797E+03 -1.27328E+04  1.16474E+04 -1.46586E+03  2.70022E+03  7.87621E+03
 -7.61361E+03  3.39299E+03 -7.58040E+03 -6.50919E+03 -1.03774E+03 -1.52943E+04  1.06331E+04 -1.63448E+04
  1.94717E+04 -9.01027E+03  2.12770E+04  3.03703E+03  1.86912E+04  1.50869E+04  8.59240E+03  2.39585E+04
 -3.99875E+03  2.55943E+04 -1.65342E+04  1.60700E+04 -1.87635E+04  3.87760E+03 -1.27757E+04 -4.70411E+03
 -5.83657E+03 -5.89861E+03 -8.80163E+02  7.05239E+02 -2.45275E+03  3.01943E+03 -6.13792E+03  4.48171E+03
 -1.20276E+04 -6.31600E+02 -1.27692E+04 -1.03544E+04 -4.88086E+03 -1.63071E+04  5.45079E+03 -1.30979E+04
  1.05784E+04 -5.73052E+03  7.74002E+03  3.41653E+03 -3.94091E+01  4.94465E+03 -6.19779E+03 -7.33035E+01
 -5.76182E+03 -8.37462E+03 -8.05298E+02 -1.23175E+04  7.06923E+03 -1.28656E+04  1.60477E+04 -6.87428E+03
  1.89467E+04  1.63178E+03  1.41492E+04  1.12901E+04  2.68526E+03  1.51884E+04 -8.15340E+03  1.27479E+04
 -1.05777E+04  3.69602E+03 -5.14536E+03 -2.45733E+03  1.69234E+03 -3.67205E+03  6.97892E+03 -9.14618E+02
  5.95475E+03  5.87189E+03  1.18563E+03  1.03721E+04 -7.32415E+03  1.01436E+04 -1.22750E+04  2.75584E+03
 -8.45307E+03 -6.17641E+03  2.10161E+02 -1.06406E+04  6.62316E+03 -5.52239E+03  6.75703E+03  2.70522E+03
  1.56517E+03  7.45548E+03 -6.48067E+03  8.66842E+03 -1.03278E+04  3.69944E+03 -1.00465E+04 -3.73011E+03
 -5.95913E+03 -1.16681E+04  2.91686E+03 -1.36971E+04  1.13523E+04 -8.35974E+03  1.26417E+04  2.12037E+03
  7.72472E+03  1.03434E+04 -8.38648E+02  1.21971E+04 -8.95479E+03  6.75490E+03 -9.66307E+03 -6.27560E+02
 -8.56192E+03 -8.48806E+03 -1.58045E+03 -9.37099E+03  4.68934E+03 -7.65564E+03  5.60266E+03 -3.35988E+03
  3.92875E+03  1.71416E+03 -6.86523E+02  1.65898E+03 -1.53759E+02 -2.36210E+03  1.61275E+03 -4.87158E+03
  8.27277E+03 -3.16543E+03  1.13677E+04  1.54252E+03  1.13553E+04  7.35276E+03  8.13225E+03  1.49674E+04
 -3.32751E+03  1.73880E+04 -1.49997E+04  1.29368E+04 -1.89729E+04  2.09647E+03 -1.53294E+04 -6.20944E+03
 -7.78512E+03 -1.26763E+04 -3.57494E+02 -1.07464E+04  3.82807E+03 -5.62164E+03  3.44177E+03 -3.97576E+03
  2.94566E+03 -2.38768E+03  3.05587E+03 -3.30883E+03  4.73986E+03 -2.74496E+03  6.18488E+03 -3.82774E+02
  8.24217E+03  2.00301E+03  3.96768E+03  6.63826E+03 -1.93833E+03  7.43748E+03 -8.10080E+03  6.37310E+03
 -1.04498E+04 -1.42730E+03 -6.12089E+03 -7.37644E+03 -7.62187E+02 -1.08353E+04  6.11894E+03 -1.11094E+04
  1.12280E+04 -6.30436E+03  1.36816E+04  1.26316E+03  9.50171E+03  9.40763E+03  1.79976E+03  1.25622E+04
 -4.87560E+03  1.02952E+04 -7.18002E+03  3.87840E+03 -4.69933E+03 -1.22291E+03 -1.77977E+03 -1.40092E+03
 -7.73186E+02  1.00032E+02 -1.39099E+03  2.16368E+03 -4.38053E+03  1.72394E+03 -7.25346E+03 -6.66382E+02
 -4.81590E+03 -7.26295E+03  3.60055E+02 -1.00194E+04  6.27427E+03 -9.19540E+03  9.30772E+03 -2.58360E+03
  9.85600E+03  4.99636E+03  4.19368E+03  8.77684E+03 -1.92726E+03  9.65099E+03 -6.96304E+03  6.24451E+03
 -9.18279E+03  6.95747E+02 -7.64507E+03 -5.78189E+03 -8.15708E+02 -8.01047E+03  4.08309E+03 -5.92199E+03
  6.36130E+03 -2.02476E+03  4.15041E+03  1.92069E+03  1.61204E+03  3.24679E+03  9.10215E+02  9.56813E+02
  2.36814E+03  9.74340E+02  2.72701E+03  1.31787E+03  2.74072E+03  3.72444E+03  2.96487E+03  4.94789E+03
 -1.94026E+03  7.41809E+03 -6.61191E+03  7.70593E+03 -9.51169E+03  2.45338E+03 -1.00270E+04 -3.22527E+03
 -4.73205E+03 -9.33713E+03  1.62036E+03 -1.07041E+04  5.36284E+03 -6.50500E+03  7.82797E+03 -1.64215E+03
  6.25409E+03  3.73190E+03  1.43623E+03  5.81779E+03 -2.33392E+03  3.63063E+03 -3.65354E+03 -2.35873E+02
 -1.66397E+03 -4.18878E+03  2.29900E+03 -3.76223E+03  3.66503E+03 -2.04943E+03  3.49339E+03  8.28874E+02
  2.16179E+03  1.57738E+03  8.94507E+02  1.30305E+03 -5.38998E+02  1.28790E+03  1.54632E+03 -5.42275E+02
  1.23478E+03 -2.45082E+02  4.14888E+03  1.63958E+03  1.76062E+03  5.48327E+03 -5.72337E+02  6.49537E+03
 -4.25350E+03  4.19892E+03 -5.52978E+03  7.78246E+02 -5.08586E+03 -2.06242E+03 -1.73326E+03 -3.62297E+03
  1.94295E+02 -3.97898E+03  2.29102E+03 -2.28686E+03  1.72669E+03  2.02968E+03 -1.19184E+03  2.75097E+03
 -3.55750E+03  1.70965E+03 -3.89597E+03 -1.97416E+03 -2.53627E+03 -5.02305E+03  3.88035E+02 -5.12416E+03
  2.90264E+03 -2.82872E+03  3.25983E+03 -2.76277E+02  3.03152E+03  7.70723E+02  2.94735E+02  3.02723E+03
 -1.55947E+03  1.17811E+03 -2.08843E+03 -1.40406E+03  8.90448E+02 -3.42905E+03  4.32036E+03 -3.21331E+03
  5.05633E+03  3.65817E+02  5.73778E+03  3.43639E+03  1.91058E+03  5.44484E+03 -1.78585E+03  5.03891E+03
 -4.49017E+03  2.25026E+03 -4.37334E+03 -7.88402E+02 -2.64145E+03 -3.66352E+03  7.47407E+02 -2.90275E+03
  3.60175E+03 -1.71889E+03  2.83646E+03  1.59175E+03  8.13417E+02  3.29946E+03 -4.92356E+02  2.79128E+03
 -1.37209E+03  2.20773E+03 -1.65350E+03  6.06493E+02 -6.81566E+02  1.01418E+03 -1.24310E+03  1.17174E+03
 -1.90844E+03  2.00958E+03 -4.34409E+03  1.61510E+03 -5.43688E+03 -1.55335E+02 -6.39776E+03 -3.23803E+03
 -2.95572E+03 -6.83430E+03  1.15683E+03 -8.05527E+03  4.53615E+03 -6.54664E+03  7.68892E+03 -2.61588E+03
  6.95919E+03  1.42791E+03  4.31025E+03  4.56093E+03  1.98879E+02  4.98982E+03 -2.92689E+03  4.11980E+03
 -3.21587E+03  1.51290E+03 -1.97801E+03 -4.82510E+02 -9.73769E+02 -3.57031E+01 -9.98651E+02  7.70137E+01
 -1.28891E+03  2.85369E+02 -1.53776E+03  6.39713E+01 -3.12226E+02 -1.44037E+03 -1.86110E+02 -1.86759E+03
  2.64901E+03 -1.68379E+03  2.57068E+03  4.64014E+02  3.76702E+03  3.01744E+03  4.91534E+02  5.15916E+03
 -2.76547E+03  6.47539E+03 -5.51876E+03  3.55399E+03 -6.37451E+03 -4.40543E+02 -4.69035E+03 -4.19586E+03
 -2.09169E+03 -5.03227E+03  1.08291E+03 -4.13425E+03  3.09087E+03 -2.23471E+03  3.37641E+03 -8.22457E+01
  2.03007E+03  1.41719E+03 -1.97089E+01  1.29341E+03 -1.20996E+03 -1.07612E+02  1.89141E+02 -1.28530E+03
  1.76954E+03 -4.37069E+02  1.69279E+03  9.89127E+02  1.15843E+03  1.58816E+03  4.27272E+02  2.20083E+03
 -2.02280E+03  1.96977E+03 -2.83982E+03  5.87489E+02 -2.99042E+03 -2.01001E+03 -7.17011E+02 -4.15785E+03
  2.39084E+03 -3.29519E+03  3.29402E+03 -1.08120E+03  3.62510E+03  6.79707E+02  2.01312E+03  2.80499E+03
  7.14620E+02  2.97566E+03 -1.31209E+03  2.50665E+03 -2.01267E+03  1.78614E+03 -1.59387E+03  1.56983E+02
 -6.54283E+02 -2.35081E+02 -1.21856E+03  4.51053E+02 -1.89895E+03  5.35891E+02 -2.42177E+03 -7.47278E+02
 -2.51055E+03 -1.31288E+03 -8.33465E+02 -3.09171E+03  1.65138E+03 -3.67862E+03  2.71433E+03 -1.60607E+03
  2.81259E+03  1.68137E+02  1.02089E+03  1.81476E+03 -1.57922E+02  3.01687E+03 -2.22639E+03  2.28873E+03
