 $NMID ID='MM_0lb_SNR800_9hz_g50_89.RAW', FMTDAT='(8E13.5)'
 TRAMP=1., VOLUME=1. $END
  3.10019E+05  3.25361E+02  3.38241E+05  2.50588E+05  8.47907E+04  3.38654E+05 -1.32829E+05  2.51755E+05
 -1.90852E+05  8.39312E+04 -1.12480E+05 -3.19937E+04  4.23496E+02 -5.11444E+04  5.38292E+04 -7.89185E+02
  3.56159E+04  5.29309E+04 -1.70431E+04  7.62226E+04 -6.06698E+04  6.47622E+04 -8.53420E+04  3.30393E+04
 -8.24635E+04 -1.15021E+04 -5.81007E+04 -5.23758E+04 -1.51869E+04 -7.14320E+04  2.80372E+04 -4.65603E+04
  4.12358E+04  4.03897E+03  1.67506E+04  4.85699E+04 -3.46550E+04  4.81310E+04 -6.81439E+04 -1.96684E+02
 -5.52019E+04 -5.79310E+04 -7.26597E+03 -7.89768E+04  3.45414E+04 -5.70088E+04  4.98229E+04 -1.83140E+04
  4.54294E+04  1.14845E+04  3.31140E+04  2.62135E+04  1.60947E+04  3.03644E+04 -5.80520E+03  2.75086E+04
 -2.28649E+04  1.19850E+04 -1.81513E+04 -5.32565E+03  7.04398E+03 -7.50837E+03  2.35322E+04  1.38497E+04
  7.01051E+03  3.78945E+04 -3.36182E+04  3.73505E+04 -6.57154E+04  2.16892E+03 -5.91444E+04 -4.42271E+04
 -1.24403E+04 -6.57478E+04  4.17941E+04 -4.76832E+04  6.10039E+04 -2.59017E+03  3.69336E+04  3.41665E+04
 -5.30162E+03  3.95435E+04 -3.18209E+04  1.88374E+04 -3.36137E+04 -3.82110E+03 -1.94960E+04 -1.20292E+04
 -9.76809E+03 -1.52906E+04 -2.13462E+02 -1.97453E+04  8.42330E+03 -2.36539E+04  1.56637E+04 -1.27818E+04
  1.05577E+04  6.32863E+03 -1.03448E+04  1.27100E+04 -2.34631E+04 -6.80114E+03 -8.56877E+03 -3.75256E+04
  2.49316E+04 -4.71017E+04  5.18694E+04 -2.11766E+04  4.81536E+04  2.04874E+04  1.74134E+04  4.67550E+04
 -1.71999E+04  3.64520E+04 -2.76430E+04  2.82046E+03 -1.16258E+04 -2.91717E+04  2.09258E+04 -3.66508E+04
  4.46634E+04 -1.10943E+04  4.03262E+04  2.52084E+04  2.15242E+04  5.10214E+04 -8.31873E+03  5.60509E+04
 -3.51174E+04  3.81060E+04 -4.71358E+04  1.11757E+04 -4.77676E+04 -1.85211E+04 -2.58487E+04 -4.20209E+04
  7.86357E+03 -4.21050E+04  3.45330E+04 -1.71396E+04  3.20776E+04  1.11150E+04  5.20980E+03  2.10051E+04
 -1.38027E+04  9.61630E+03 -1.10292E+04 -7.44518E+03  5.65819E+03 -1.12337E+04  1.85712E+04  5.32437E+03
  1.48886E+04  2.27772E+04 -5.62021E+03  2.71292E+04 -2.32517E+04  1.45041E+04 -3.19734E+04 -3.43210E+03
 -2.52274E+04 -1.86545E+04 -1.16024E+04 -2.54322E+04  4.20882E+03 -2.54698E+04  1.98733E+04 -2.25276E+04
  3.22714E+04 -1.39511E+04  3.80512E+04  4.89049E+03  2.72509E+04  2.44013E+04  4.32532E+03  4.11235E+04
 -1.96841E+04  3.37768E+04 -3.06857E+04  1.18612E+04 -2.24577E+04 -1.04398E+04 -5.19687E+03 -1.33261E+04
  6.86377E+02 -1.11503E+03 -7.27176E+03  8.24949E+03 -2.03054E+04  4.94573E+03 -2.01904E+04 -9.36588E+03
 -1.18444E+04 -2.36596E+04  6.06317E+03 -2.79581E+04  1.88055E+04 -1.98283E+04  2.27401E+04 -1.45821E+03
  1.44232E+04  1.61126E+04 -1.15726E+03  2.31225E+04 -1.68578E+04  1.33464E+04 -2.35643E+04 -4.88369E+03
 -1.69253E+04 -2.09689E+04 -2.24269E+03 -2.80011E+04  1.22773E+04 -2.36081E+04  2.33561E+04 -1.19910E+04
  2.20711E+04 -4.60728E+01  1.60118E+04  5.23278E+03  8.84512E+03  1.78225E+03  1.18149E+04 -2.06615E+03
  2.18138E+04  2.85897E+03  2.54743E+04  1.79592E+04  1.70269E+04  3.74433E+04 -2.57291E+03  4.40468E+04
 -2.52826E+04  3.68630E+04 -4.15661E+04  1.92222E+04 -4.45995E+04 -3.18550E+03 -3.61067E+04 -2.58464E+04
 -1.44485E+04 -3.74575E+04  1.32725E+04 -3.24489E+04  2.78920E+04 -1.53127E+04  2.41904E+04  8.11959E+03
  7.86642E+03  1.85060E+04 -1.15769E+04  1.57517E+04 -2.01347E+04  2.61620E+03 -1.58498E+04 -1.26277E+04
 -4.13346E+02 -1.95149E+04  1.03944E+04 -1.43130E+04  1.33842E+04 -1.31734E+03  3.58301E+03  8.65372E+03
 -8.56047E+03  4.10537E+03 -9.24469E+03 -6.84755E+03 -2.11047E+03 -1.79719E+04  1.17583E+04 -2.01882E+04
  2.27420E+04 -1.12126E+04  2.62609E+04  3.30023E+03  2.30160E+04  1.85466E+04  1.05343E+04  2.92226E+04
 -5.29953E+03  3.10514E+04 -1.99714E+04  1.94865E+04 -2.24985E+04  3.85878E+03 -1.55112E+04 -6.23438E+03
 -6.52603E+03 -7.30151E+03 -4.76660E+02  6.54450E+02 -3.35012E+03  3.06399E+03 -7.45060E+03  5.34731E+03
 -1.42792E+04 -1.01779E+03 -1.46818E+04 -1.21533E+04 -5.95527E+03 -1.93712E+04  6.40216E+03 -1.56392E+04
  1.28894E+04 -6.37752E+03  9.15517E+03  4.21967E+03 -4.65455E+02  6.23786E+03 -7.57279E+03  1.35192E+02
 -7.55395E+03 -1.00053E+04 -1.23136E+03 -1.49049E+04  9.14369E+03 -1.66700E+04  1.99111E+04 -8.96078E+03
  2.38640E+04  2.66808E+03  1.71398E+04  1.43671E+04  2.73344E+03  1.90546E+04 -9.70836E+03  1.54971E+04
 -1.24369E+04  4.59140E+03 -6.40508E+03 -3.77180E+03  1.99541E+03 -4.66933E+03  8.31398E+03 -6.83552E+02
  7.24460E+03  6.89901E+03  1.35714E+03  1.30099E+04 -8.96303E+03  1.21990E+04 -1.57196E+04  2.72392E+03
 -1.10679E+04 -8.90814E+03  1.72916E+02 -1.38774E+04  8.87815E+03 -7.06383E+03  9.55977E+03  3.15460E+03
  2.00702E+03  1.02646E+04 -8.31077E+03  1.14892E+04 -1.39362E+04  5.22919E+03 -1.42647E+04 -4.75905E+03
 -7.91834E+03 -1.60696E+04  3.80913E+03 -1.80593E+04  1.51569E+04 -1.08918E+04  1.69988E+04  3.15320E+03
  1.00426E+04  1.31699E+04 -1.47297E+03  1.58578E+04 -1.18199E+04  8.96471E+03 -1.27314E+04 -1.79136E+03
 -1.07318E+04 -1.07159E+04 -2.36439E+03 -1.19840E+04  6.43234E+03 -9.71629E+03  7.73766E+03 -3.60757E+03
  4.97575E+03  2.50536E+03 -9.77650E+02  2.07583E+03 -5.42693E+02 -3.55446E+03  2.60064E+03 -7.95048E+03
  1.11142E+04 -5.14783E+03  1.59358E+04  1.70688E+03  1.57601E+04  1.08627E+04  1.01735E+04  2.09676E+04
 -5.05086E+03  2.43452E+04 -1.97366E+04  1.78621E+04 -2.63270E+04  3.47514E+03 -2.07564E+04 -9.26072E+03
 -1.01701E+04 -1.71466E+04 -5.61287E+02 -1.47398E+04  5.35684E+03 -7.82271E+03  5.39777E+03 -5.05880E+03
  3.59394E+03 -3.12943E+03  3.81068E+03 -3.49596E+03  5.92143E+03 -3.57891E+03  8.19159E+03 -1.45901E+03
  1.07530E+04  2.22125E+03  5.95440E+03  9.08335E+03 -2.31983E+03  1.15572E+04 -1.13117E+04  8.90200E+03
 -1.46899E+04 -1.51724E+03 -9.53265E+03 -1.06479E+04 -1.63685E+03 -1.56417E+04  8.75352E+03 -1.59436E+04
  1.64835E+04 -8.92780E+03  1.99205E+04  2.87943E+03  1.36778E+04  1.38266E+04  1.95812E+03  1.81748E+04
 -7.25322E+03  1.44996E+04 -1.06457E+04  4.45557E+03 -7.29419E+03 -1.54907E+03 -3.01019E+03 -1.70543E+03
 -1.36882E+03 -7.64496E+01 -2.69371E+03  2.67517E+03 -6.11726E+03  2.74345E+03 -1.01861E+04 -1.81922E+03
 -7.16276E+03 -1.01434E+04 -3.19503E+02 -1.52059E+04  9.04371E+03 -1.40383E+04  1.51103E+04 -3.85639E+03
  1.41601E+04  7.06949E+03  6.60950E+03  1.32488E+04 -2.89386E+03  1.50029E+04 -1.06760E+04  9.39299E+03
 -1.43762E+04  3.04720E+02 -1.10237E+04 -8.94036E+03 -1.47581E+03 -1.27301E+04  6.32665E+03 -9.77166E+03
  9.21733E+03 -2.86506E+03  6.54264E+03  2.85630E+03  2.16110E+03  4.58278E+03  1.06241E+03  1.93878E+03
  2.51607E+03  1.21350E+03  3.57495E+03  1.87330E+03  4.65908E+03  5.09489E+03  3.78811E+03  8.01675E+03
 -2.65053E+03  1.13988E+04 -9.89212E+03  1.16910E+04 -1.57101E+04  2.96276E+03 -1.56999E+04 -6.62367E+03
 -7.17257E+03 -1.50674E+04  1.98898E+03 -1.65080E+04  9.40442E+03 -1.06165E+04  1.25220E+04 -2.52677E+03
  9.69964E+03  5.24297E+03  2.01316E+03  9.05520E+03 -4.04172E+03  5.56061E+03 -6.05513E+03 -1.34537E+03
 -3.04599E+03 -6.00779E+03  3.53532E+03 -6.35196E+03  6.58759E+03 -2.86647E+03  5.45386E+03  1.70203E+03
  3.76842E+03  2.95483E+03  1.39000E+03  2.43900E+03 -1.19384E+03  2.16187E+03  1.87455E+03 -4.25947E+02
  2.58080E+03 -9.88752E+02  5.83898E+03  2.48222E+03  3.68789E+03  8.46118E+03 -1.42525E+03  1.11382E+04
 -7.33779E+03  7.32808E+03 -9.72962E+03  1.86449E+03 -8.77165E+03 -3.45504E+03 -3.29209E+03 -6.12472E+03
  1.06341E+03 -6.30546E+03  4.12573E+03 -2.99424E+03  3.66224E+03  3.22999E+03 -1.21780E+03  4.85292E+03
 -6.38713E+03  3.27883E+03 -7.34821E+03 -3.66962E+03 -3.74313E+03 -7.79220E+03  1.07415E+03 -8.34122E+03
  4.67394E+03 -5.17584E+03  6.44035E+03 -8.63674E+02  5.08879E+03  2.20432E+03  8.30629E+02  4.23583E+03
 -3.00200E+03  1.86710E+03 -4.19856E+03 -3.14629E+03  1.47965E+03 -7.01300E+03  7.13607E+03 -5.17856E+03
  9.78449E+03  8.78038E+02  9.47195E+03  6.25788E+03  3.04625E+03  1.01696E+04 -4.08482E+03  9.60205E+03
 -8.33463E+03  3.84336E+03 -8.50520E+03 -1.09776E+03 -4.61862E+03 -6.58461E+03  1.33526E+03 -6.14975E+03
  6.21532E+03 -3.14601E+03  5.33302E+03  2.77647E+03  1.86202E+03  5.39736E+03 -9.98651E+02  4.67131E+03
 -3.05135E+03  3.13286E+03 -2.05195E+03  7.08533E+02 -1.11252E+03  1.35632E+03 -1.58001E+03  2.22738E+03
 -2.84986E+03  3.89939E+03 -7.12020E+03  3.54851E+03 -1.03922E+04 -4.61166E+01 -1.13126E+04 -6.75702E+03
 -5.93974E+03 -1.28645E+04  2.46256E+03 -1.54184E+04  9.67028E+03 -1.22264E+04  1.45331E+04 -4.95863E+03
  1.37360E+04  2.71744E+03  8.33415E+03  9.34631E+03  7.19167E+02  1.06368E+04 -4.41957E+03  7.70183E+03
 -6.13767E+03  2.63421E+03 -3.25827E+03 -1.21545E+03 -1.13777E+03 -1.11328E+03 -6.96719E+02  2.77662E+02
 -1.90397E+03  1.07898E+02 -2.36891E+03 -2.50223E+02 -9.92209E+02 -2.50154E+03  2.94264E+02 -3.62000E+03
  4.47164E+03 -3.23013E+03  6.46955E+03  5.73864E+02  7.13013E+03  5.55388E+03  2.26523E+03  1.05812E+04
 -4.59607E+03  1.23863E+04 -1.14255E+04  6.66643E+03 -1.28020E+04 -8.17850E+02 -9.97592E+03 -7.71596E+03
 -3.93158E+03 -1.08544E+04  3.18762E+03 -9.50540E+03  6.73303E+03 -5.50221E+03  7.04304E+03  2.58466E+02
  3.72484E+03  3.51566E+03 -5.70910E+02  2.59117E+03 -1.89063E+03 -2.11031E+02 -1.38483E+02 -2.56476E+03
  3.30860E+03 -1.67321E+03  4.16050E+03  1.58898E+03  3.12909E+03  4.27027E+03 -2.26057E+02  5.94030E+03
 -4.77201E+03  4.68406E+03 -7.25248E+03  5.97116E+02 -6.61774E+03 -4.94875E+03 -1.27842E+03 -8.80806E+03
  5.20962E+03 -7.25283E+03  8.56847E+03 -2.38806E+03  8.21542E+03  1.62912E+03  4.91500E+03  6.64280E+03
  3.89604E+02  6.95624E+03 -3.04948E+03  5.67498E+03 -4.34041E+03  3.18950E+03 -3.67281E+03  3.21713E+02
 -1.91721E+03 -1.72192E+02 -2.10810E+03  1.61869E+03 -4.04349E+03  1.15054E+03 -5.54140E+03 -1.23361E+03
 -5.11763E+03 -4.00314E+03 -1.60841E+03 -7.25284E+03  3.29743E+03 -7.39347E+03  6.25439E+03 -3.31038E+03
  7.17895E+03  6.90726E+02  4.06272E+03  5.25123E+03 -3.65454E+02  6.75393E+03 -5.30652E+03  4.74039E+03
