 $NMID ID='MM_0lb_SNR800_16hz_g50_71.RAW', FMTDAT='(8E13.5)'
 TRAMP=1., VOLUME=1. $END
  3.09602E+05  1.82252E+02  3.37555E+05  2.50604E+05  8.44892E+04  3.37828E+05 -1.32302E+05  2.50612E+05
 -1.90317E+05  8.29863E+04 -1.11493E+05 -3.25119E+04  1.00710E+03 -5.04326E+04  5.37659E+04 -9.74100E+01
  3.50894E+04  5.27642E+04 -1.68726E+04  7.52127E+04 -6.05939E+04  6.33746E+04 -8.34110E+04  3.17074E+04
 -8.04375E+04 -1.11162E+04 -5.68861E+04 -5.07431E+04 -1.50135E+04 -6.95241E+04  2.69632E+04 -4.52003E+04
  3.96768E+04  3.69050E+03  1.58562E+04  4.76118E+04 -3.43706E+04  4.66481E+04 -6.62276E+04 -2.67192E+02
 -5.28566E+04 -5.65278E+04 -6.70227E+03 -7.62095E+04  3.36735E+04 -5.43193E+04  4.72798E+04 -1.68839E+04
  4.27856E+04  1.11904E+04  3.16554E+04  2.51085E+04  1.59608E+04  2.92332E+04 -5.04819E+03  2.69987E+04
 -2.19812E+04  1.22361E+04 -1.89932E+04 -4.55429E+03  4.97047E+03 -7.51732E+03  2.19410E+04  1.18075E+04
  7.54609E+03  3.46105E+04 -3.12231E+04  3.47246E+04 -6.27950E+04  2.10825E+03 -5.66012E+04 -4.20487E+04
 -1.22965E+04 -6.26711E+04  3.90727E+04 -4.47338E+04  5.74822E+04 -1.89292E+03  3.31642E+04  3.18816E+04
 -6.30955E+03  3.51219E+04 -2.93462E+04  1.47346E+04 -2.93019E+04 -4.71966E+03 -1.56019E+04 -1.05487E+04
 -8.02524E+03 -1.27563E+04 -1.01640E+03 -1.74199E+04  7.29461E+03 -2.30904E+04  1.54923E+04 -1.34665E+04
  1.15759E+04  5.02401E+03 -7.30006E+03  1.30536E+04 -2.07392E+04 -3.85675E+03 -8.06886E+03 -3.25293E+04
  2.22146E+04 -4.24711E+04  4.66594E+04 -1.91415E+04  4.39214E+04  1.89871E+04  1.52176E+04  4.32783E+04
 -1.57243E+04  3.26123E+04 -2.46601E+04  1.15414E+03 -9.36473E+03 -2.69521E+04  2.08336E+04 -3.28874E+04
  3.99128E+04 -8.36687E+03  3.39273E+04  2.33420E+04  1.73710E+04  4.48121E+04 -8.02538E+03  4.84223E+04
 -3.04973E+04  3.26131E+04 -4.03478E+04  9.03187E+03 -4.08635E+04 -1.61738E+04 -2.29754E+04 -3.66017E+04
  7.06416E+03 -3.65699E+04  3.04144E+04 -1.39859E+04  2.85383E+04  1.10137E+04  3.57280E+03  1.86764E+04
 -1.33060E+04  7.82452E+03 -9.93687E+03 -7.52040E+03  5.91491E+03 -1.03241E+04  1.73355E+04  6.16807E+03
  1.30640E+04  2.18996E+04 -6.13125E+03  2.45932E+04 -2.19571E+04  1.07429E+04 -2.69791E+04 -5.50183E+03
 -1.90921E+04 -1.69730E+04 -7.27079E+03 -1.91098E+04  4.27050E+03 -1.77541E+04  1.42348E+04 -1.68898E+04
  2.43870E+04 -1.25316E+04  3.07649E+04  1.91314E+03  2.26686E+04  1.82869E+04  4.31555E+03  3.47868E+04
 -1.71676E+04  2.92691E+04 -2.70619E+04  1.06028E+04 -2.02349E+04 -1.04471E+04 -4.38144E+03 -1.39450E+04
  2.24280E+03 -3.31751E+03 -4.08731E+03  6.03005E+03 -1.51180E+04  5.21663E+03 -1.51816E+04 -6.22609E+03
 -9.31810E+03 -1.75149E+04  4.93563E+03 -2.15895E+04  1.43953E+04 -1.54084E+04  1.67419E+04 -1.36556E+03
  1.06923E+04  1.18475E+04 -7.22696E+02  1.75099E+04 -1.22852E+04  9.98720E+03 -1.78019E+04 -3.58000E+03
 -1.29062E+04 -1.59774E+04 -1.78564E+03 -2.10434E+04  9.36926E+03 -1.70919E+04  1.78513E+04 -8.34894E+03
  1.64534E+04  3.54856E+02  1.17784E+04  4.13583E+03  5.95444E+03  8.95537E+02  8.75769E+03 -1.64576E+03
  1.61732E+04  2.84085E+03  1.71542E+04  1.40816E+04  1.09737E+04  2.80160E+04 -3.34773E+03  3.08600E+04
 -1.81238E+04  2.47623E+04 -2.88498E+04  1.21195E+04 -2.97662E+04 -1.93801E+03 -2.52244E+04 -1.73283E+04
 -1.10552E+04 -2.46012E+04  8.36682E+03 -2.26955E+04  1.95489E+04 -1.17520E+04  1.75198E+04  4.61282E+03
  6.98030E+03  1.31419E+04 -8.07394E+03  1.19609E+04 -1.47517E+04  2.59424E+03 -1.14028E+04 -9.14720E+03
 -1.09502E+02 -1.40281E+04  7.19470E+03 -1.05027E+04  8.95112E+03 -1.31421E+03  1.69897E+03  5.83522E+03
 -6.34355E+03  1.71658E+03 -5.06512E+03 -4.93356E+03  1.40723E+02 -1.22200E+04  8.69679E+03 -1.23185E+04
  1.49964E+04 -6.29517E+03  1.51972E+04  2.75631E+03  1.33539E+04  1.15188E+04  6.29616E+03  1.75215E+04
 -2.58859E+03  1.94143E+04 -1.23603E+04  1.23666E+04 -1.39794E+04  3.27374E+03 -9.97552E+03 -2.60519E+03
 -4.67840E+03 -4.30583E+03 -8.20942E+02  1.01007E+03 -2.20208E+03  2.14865E+03 -4.59248E+03  3.77822E+03
 -9.44221E+03 -7.01657E+02 -1.03771E+04 -8.22400E+03 -3.96621E+03 -1.33054E+04  4.25020E+03 -1.00694E+04
  8.68603E+03 -4.44431E+03  6.23977E+03  2.51440E+03  4.85559E+02  3.83423E+03 -4.55600E+03 -2.80829E+02
 -4.07663E+03 -6.28790E+03 -7.91608E+02 -9.13694E+03  4.83874E+03 -9.65863E+03  1.23926E+04 -5.27251E+03
  1.41238E+04  7.23249E+02  1.06302E+04  7.64906E+03  2.20236E+03  1.08844E+04 -6.29533E+03  9.91599E+03
 -8.09823E+03  3.15731E+03 -4.02341E+03 -1.21993E+03  1.49542E+03 -2.60396E+03  5.52195E+03 -1.22099E+03
  4.74972E+03  3.97027E+03  1.13444E+03  7.64580E+03 -5.54869E+03  7.79608E+03 -9.61130E+03  2.08950E+03
 -6.14126E+03 -4.83078E+03  2.81620E+02 -8.35763E+03  4.58252E+03 -4.09450E+03  4.76554E+03  1.50861E+03
  1.19851E+03  4.55609E+03 -5.11796E+03  6.23515E+03 -6.70816E+03  2.72334E+03 -6.45584E+03 -1.96717E+03
 -4.02841E+03 -8.14853E+03  1.84126E+03 -9.50720E+03  8.00687E+03 -5.73646E+03  8.56137E+03  1.50954E+03
  5.49913E+03  6.75237E+03 -2.66515E+02  8.85131E+03 -6.56464E+03  5.25637E+03 -6.90793E+03 -5.27498E+02
 -6.66761E+03 -6.36469E+03 -1.60939E+03 -6.18883E+03  3.12970E+03 -5.82262E+03  4.19034E+03 -2.89943E+03
  3.23356E+03  3.76804E+02 -1.64581E+02  1.37022E+03  3.99175E+02 -5.54135E+02  9.08926E+02 -2.81913E+03
  5.41344E+03 -1.39945E+03  7.34099E+03  1.14969E+03  7.75899E+03  4.50934E+03  6.06686E+03  9.84918E+03
 -1.88859E+03  1.19485E+04 -1.03259E+04  8.45783E+03 -1.29156E+04  1.53277E+03 -1.03544E+04 -3.83032E+03
 -5.55398E+03 -8.55190E+03 -5.95162E+02 -6.72862E+03  2.73562E+03 -3.25135E+03  2.56172E+03 -2.88887E+03
  1.95902E+03 -1.64086E+03  2.55557E+03 -2.49989E+03  3.90351E+03 -2.03944E+03  4.34146E+03  2.44721E+02
  5.51243E+03  1.37287E+03  2.08526E+03  4.64447E+03 -1.75653E+03  4.41310E+03 -5.84906E+03  3.39886E+03
 -6.90818E+03 -9.68016E+02 -3.17370E+03 -4.65026E+03  3.96784E+02 -6.98460E+03  4.26479E+03 -7.62229E+03
  6.95670E+03 -4.08441E+03  8.91582E+03  7.78629E+02  6.42281E+03  6.02308E+03  1.33778E+03  8.09604E+03
 -3.01404E+03  7.46596E+03 -4.83170E+03  2.52310E+03 -2.73385E+03 -1.13866E+03 -9.96479E+02 -6.87849E+02
 -6.70432E+02  4.67930E+02 -9.64692E+02  2.01560E+03 -3.20828E+03  1.18344E+03 -5.50243E+03 -4.55979E+02
 -2.63969E+03 -5.06738E+03  6.19548E+02 -6.49322E+03  3.73993E+03 -5.88334E+03  5.73713E+03 -1.53969E+03
  6.01026E+03  3.17374E+03  2.80934E+03  4.85597E+03 -1.32483E+03  6.00892E+03 -3.85370E+03  3.97099E+03
 -5.50438E+03  7.55273E+02 -4.69099E+03 -3.56826E+03 -4.56956E+02 -4.53331E+03  2.38431E+03 -3.58855E+03
  4.06995E+03 -1.50273E+03  2.51974E+03  5.24107E+02  7.15782E+02  2.06980E+03  7.52399E+02  8.02343E+02
  1.87346E+03  7.90517E+02  1.64121E+03  1.32831E+03  1.50776E+03  2.89911E+03  1.82462E+03  2.70079E+03
 -1.55161E+03  4.57198E+03 -3.91414E+03  5.46655E+03 -5.06221E+03  1.52722E+03 -5.87377E+03 -1.40557E+03
 -2.90830E+03 -5.72074E+03  9.18882E+02 -6.57823E+03  3.29086E+03 -3.97205E+03  4.58818E+03 -1.02268E+03
  3.63018E+03  2.13423E+03  8.98091E+02  3.11619E+03 -9.14102E+02  2.06067E+03 -2.15080E+03 -2.14209E+02
 -1.12984E+03 -2.27097E+03  1.30260E+03 -1.98048E+03  1.96253E+03 -1.28392E+03  2.12799E+03  4.78422E+02
  1.21452E+03  9.39043E+02  1.03333E+03  1.31555E+02 -5.29931E+02  1.04462E+03  1.53230E+03 -1.72385E+02
  6.30334E+02 -2.64668E+02  2.30239E+03  7.63602E+02  8.36098E+02  3.16393E+03 -3.75333E+02  4.29722E+03
 -2.70802E+03  2.36859E+03 -3.25484E+03  6.75124E+02 -3.11334E+03 -1.37951E+03 -3.70215E+02 -1.61063E+03
  6.29276E+02 -1.83076E+03  1.31827E+03 -9.55257E+02  1.11012E+03  1.28652E+03 -1.16486E+03  2.00880E+03
 -2.46890E+03  1.11872E+03 -1.93981E+03 -1.69370E+03 -1.17119E+03 -3.04567E+03  4.67568E+02 -2.52834E+03
  1.25188E+03 -1.29473E+03  1.57101E+03 -1.35528E+01  2.12694E+03  3.73864E+02  4.21572E+02  1.69698E+03
 -6.71843E+02  3.42182E+02 -1.31052E+03 -9.13183E+02  9.19513E+02 -1.63145E+03  2.50913E+03 -1.30315E+03
  2.49183E+03  1.65860E+02  3.68162E+03  1.48546E+03  1.38210E+03  2.87540E+03 -5.32251E+02  3.13422E+03
 -2.38185E+03  7.12376E+02 -2.46291E+03 -3.39573E+02 -1.31502E+03 -2.15820E+03  5.95282E+02 -1.18847E+03
  1.89205E+03 -7.21103E+02  1.64857E+03  7.23113E+02  2.77745E+02  1.87019E+03  1.10458E+02  1.50029E+03
 -8.79763E+02  1.16605E+03 -8.60104E+02  4.17091E+02 -5.70748E+01  1.98091E+02 -6.83575E+02  6.61599E+02
 -8.60799E+02  1.39546E+03 -2.53992E+03  9.00326E+02 -3.03836E+03  3.29638E+01 -3.89171E+03 -1.83154E+03
 -1.49817E+03 -3.51478E+03  7.29729E+02 -4.34137E+03  2.20091E+03 -3.51341E+03  4.12215E+03 -1.16872E+03
  3.74576E+03  1.98466E+02  2.24805E+03  2.79723E+03 -3.93253E+02  2.35165E+03 -1.12240E+03  1.95812E+03
 -1.79181E+03  1.11988E+03 -9.22098E+02 -5.47776E+02 -3.04494E+02  4.91093E+01 -6.81574E+02  1.47912E+02
 -1.08463E+03  4.62717E+02 -1.14444E+03 -6.95897E+01  6.45292E+01 -9.55880E+02 -4.27485E+02 -1.56830E+03
  1.49678E+03 -1.05843E+03  1.02692E+03  1.36066E+02  1.77735E+03  1.56215E+03 -2.07465E+02  2.35578E+03
 -1.40348E+03  3.39236E+03 -2.78571E+03  2.05436E+03 -2.86808E+03 -6.07081E+02 -1.99026E+03 -1.88249E+03
 -1.10300E+03 -2.36359E+03  6.51044E+02 -2.14339E+03  1.67882E+03 -1.13285E+03  1.42235E+03  3.36026E+02
  1.41732E+03  5.15403E+02 -1.03905E+02  6.49212E+02 -6.13482E+02  5.71891E+01 -2.30941E+02 -4.52536E+02
  6.55120E+02  8.54309E+01  8.34360E+02  4.44462E+02  4.15298E+02  8.71983E+02  6.05276E+02  8.87684E+02
 -1.04592E+03  9.78911E+02 -1.07448E+03  2.31594E+01 -1.17704E+03 -9.45883E+02 -1.45094E+02 -1.98996E+03
  1.00981E+03 -1.31002E+03  1.45168E+03 -4.33297E+02  1.52584E+03 -2.35665E+02  9.35015E+02  1.43756E+03
  3.48838E+02  1.26509E+03 -6.10223E+02  1.13658E+03 -1.02373E+03  8.41428E+02 -5.64497E+02  2.76214E+02
 -5.93219E+02  7.18086E+01 -6.02803E+02  2.58711E+01 -8.30131E+02  3.98644E+02 -1.29539E+03 -3.93222E+02
 -1.30135E+03 -6.66187E+01 -3.73264E+02 -1.49490E+03  7.90346E+02 -2.11604E+03  1.63468E+03 -5.64372E+02
  1.31436E+03  2.19167E+02  1.27276E+02  9.54198E+02 -2.52435E+02  1.41319E+03 -1.02067E+03  9.14096E+02
