 $NMID ID='MM_0lb_SNR800_18hz_g45_25.RAW', FMTDAT='(8E13.5)'
 TRAMP=1., VOLUME=1. $END
  3.10028E+05  2.99287E+02  3.37247E+05  2.50523E+05  8.43844E+04  3.37327E+05 -1.32444E+05  2.50090E+05
 -1.89732E+05  8.26442E+04 -1.10716E+05 -3.27468E+04  1.16670E+03 -5.02757E+04  5.38061E+04  4.76744E+02
  3.48886E+04  5.30628E+04 -1.71752E+04  7.49570E+04 -6.06281E+04  6.30023E+04 -8.32366E+04  3.14588E+04
 -7.98131E+04 -1.11011E+04 -5.60767E+04 -5.04302E+04 -1.47469E+04 -6.83156E+04  2.65826E+04 -4.49174E+04
  3.91845E+04  4.15303E+03  1.54756E+04  4.69104E+04 -3.38859E+04  4.64224E+04 -6.54282E+04 -6.60447E+02
 -5.17652E+04 -5.59887E+04 -6.23366E+03 -7.52906E+04  3.33135E+04 -5.31379E+04  4.63834E+04 -1.61806E+04
  4.15558E+04  1.10440E+04  3.09842E+04  2.46206E+04  1.55783E+04  2.83186E+04 -4.46695E+03  2.67537E+04
 -2.14129E+04  1.26749E+04 -1.91616E+04 -4.29599E+03  4.33083E+03 -7.60340E+03  2.11161E+04  1.12581E+04
  7.37945E+03  3.33984E+04 -3.04725E+04  3.39284E+04 -6.12683E+04  2.25072E+03 -5.55979E+04 -4.10174E+04
 -1.24074E+04 -6.10696E+04  3.78944E+04 -4.33599E+04  5.57440E+04 -2.01072E+03  3.19340E+04  3.05207E+04
 -6.55699E+03  3.31939E+04 -2.85266E+04  1.36177E+04 -2.76289E+04 -5.31676E+03 -1.43988E+04 -1.00005E+04
 -7.28445E+03 -1.15718E+04 -1.37973E+03 -1.69207E+04  6.78446E+03 -2.24024E+04  1.49902E+04 -1.38724E+04
  1.22330E+04  4.28213E+03 -6.36767E+03  1.29324E+04 -1.94656E+04 -2.52419E+03 -8.09584E+03 -3.05553E+04
  2.10711E+04 -4.09012E+04  4.47876E+04 -1.85171E+04  4.22134E+04  1.83938E+04  1.42137E+04  4.17040E+04
 -1.50864E+04  3.10573E+04 -2.34294E+04  9.61818E+02 -8.10587E+03 -2.64491E+04  2.04890E+04 -3.13386E+04
  3.82206E+04 -7.37239E+03  3.15967E+04  2.26639E+04  1.51574E+04  4.26190E+04 -7.65343E+03  4.55465E+04
 -2.85916E+04  2.99489E+04 -3.74539E+04  8.33211E+03 -3.84447E+04 -1.50782E+04 -2.13160E+04 -3.45732E+04
  7.04214E+03 -3.43686E+04  2.95275E+04 -1.27817E+04  2.69093E+04  1.07547E+04  3.12929E+03  1.76420E+04
 -1.31579E+04  7.12705E+03 -9.73779E+03 -7.60110E+03  5.89391E+03 -1.00227E+04  1.73112E+04  6.12913E+03
  1.26090E+04  2.13995E+04 -6.67191E+03  2.33779E+04 -2.15854E+04  9.20144E+03 -2.50800E+04 -6.27246E+03
 -1.66127E+04 -1.64810E+04 -5.95467E+03 -1.70921E+04  3.86238E+03 -1.47937E+04  1.24516E+04 -1.47201E+04
  2.13295E+04 -1.18694E+04  2.84277E+04  9.12690E+02  2.12868E+04  1.63348E+04  4.07163E+03  3.26534E+04
 -1.62292E+04  2.76832E+04 -2.60407E+04  9.63785E+03 -1.96240E+04 -1.05333E+04 -4.12004E+03 -1.39098E+04
  2.73612E+03 -4.00581E+03 -2.79873E+03  5.50732E+03 -1.29851E+04  5.01414E+03 -1.35022E+04 -5.08419E+03
 -8.85474E+03 -1.54564E+04  4.27274E+03 -1.95505E+04  1.29961E+04 -1.42586E+04  1.48928E+04 -1.14239E+03
  9.11239E+03  1.05398E+04 -7.50819E+02  1.56958E+04 -1.05247E+04  8.89861E+03 -1.56734E+04 -3.52671E+03
 -1.18796E+04 -1.42933E+04 -1.31246E+03 -1.89676E+04  8.52234E+03 -1.55934E+04  1.64329E+04 -7.63349E+03
  1.49432E+04  5.02339E+02  1.03934E+04  3.87869E+03  5.17132E+03  5.39546E+02  7.88526E+03 -1.48175E+03
  1.40430E+04  2.57106E+03  1.50743E+04  1.30496E+04  9.34203E+03  2.49695E+04 -2.97626E+03  2.72090E+04
 -1.59635E+04  2.06790E+04 -2.46639E+04  9.84313E+03 -2.53387E+04 -1.68767E+03 -2.18771E+04 -1.46787E+04
 -1.03167E+04 -2.08858E+04  6.90941E+03 -1.95198E+04  1.69124E+04 -1.08588E+04  1.56807E+04  3.92827E+03
  6.57915E+03  1.13381E+04 -7.32358E+03  1.04439E+04 -1.36579E+04  2.68266E+03 -1.04825E+04 -8.11539E+03
 -1.08377E+02 -1.28830E+04  6.19059E+03 -9.53743E+03  8.22414E+03 -1.13980E+03  1.66982E+03  5.18529E+03
 -5.81419E+03  1.32657E+03 -3.79946E+03 -4.56326E+03  7.34408E+02 -1.02972E+04  7.91110E+03 -1.02652E+04
  1.23875E+04 -4.89620E+03  1.23533E+04  2.72002E+03  1.05463E+04  9.85248E+03  4.96940E+03  1.44475E+04
 -1.88844E+03  1.62307E+04 -1.02212E+04  1.02378E+04 -1.16068E+04  2.93964E+03 -8.61422E+03 -2.10757E+03
 -4.60148E+03 -3.33006E+03 -8.55064E+02  1.33131E+03 -2.09713E+03  2.25208E+03 -3.86814E+03  3.67814E+03
 -8.44950E+03 -4.04524E+02 -8.81933E+03 -7.47473E+03 -3.38011E+03 -1.18101E+04  3.69968E+03 -8.71115E+03
  7.61787E+03 -3.75742E+03  5.12716E+03  2.25308E+03  4.07009E+02  2.98289E+03 -3.36892E+03 -1.43455E+02
 -3.40180E+03 -5.61011E+03 -7.40834E+02 -7.20285E+03  4.07281E+03 -8.26055E+03  1.00420E+04 -3.90872E+03
  1.17353E+04  6.44924E+02  8.81591E+03  6.31872E+03  1.96586E+03  8.93180E+03 -5.24243E+03  8.45096E+03
 -6.98966E+03  2.69127E+03 -3.69220E+03 -1.09819E+03  1.38724E+03 -2.06914E+03  4.66222E+03 -1.16141E+03
  4.11055E+03  3.42155E+03  1.24692E+03  6.38206E+03 -4.54862E+03  6.55353E+03 -7.96639E+03  1.64638E+03
 -4.93376E+03 -3.80091E+03  2.25153E+02 -6.84441E+03  3.77677E+03 -3.46980E+03  3.66662E+03  1.09563E+03
  3.52559E+02  3.00873E+03 -4.17592E+03  4.93216E+03 -5.19854E+03  2.43535E+03 -4.90410E+03 -1.25161E+03
 -3.02097E+03 -6.20771E+03  1.47818E+03 -7.17107E+03  6.26651E+03 -4.78408E+03  6.50725E+03  7.42508E+02
  4.69910E+03  5.33689E+03  1.37292E+02  7.26598E+03 -5.30439E+03  4.28889E+03 -5.20739E+03 -2.87194E+02
 -5.95263E+03 -5.40613E+03 -1.63788E+03 -4.85324E+03  2.82152E+03 -4.97803E+03  3.22999E+03 -2.80670E+03
  2.80515E+03  2.86913E+02  1.95265E+02  1.28937E+03  3.85106E+02 -9.12903E+01  3.25363E+02 -2.01760E+03
  3.88381E+03 -7.65215E+02  5.37780E+03  1.02124E+03  5.60923E+03  3.26584E+03  5.58377E+03  7.20735E+03
 -1.22838E+03  8.67391E+03 -8.08040E+03  6.78654E+03 -1.01643E+04  9.21791E+02 -8.02899E+03 -2.73553E+03
 -4.33439E+03 -6.59889E+03 -3.52572E+02 -5.69385E+03  2.32226E+03 -2.41667E+03  2.17392E+03 -2.21701E+03
  1.15308E+03 -1.58838E+03  2.18543E+03 -2.60993E+03  3.48867E+03 -1.42305E+03  3.84318E+03  4.32890E+02
  4.56160E+03  1.27980E+03  9.40386E+02  3.48186E+03 -1.52355E+03  3.04816E+03 -4.56128E+03  2.59440E+03
 -5.12664E+03 -1.07741E+03 -2.08684E+03 -3.20276E+03  5.10789E+02 -5.35902E+03  3.27711E+03 -5.55394E+03
  5.20059E+03 -3.41053E+03  7.09393E+03  4.51024E+02  4.85856E+03  4.45102E+03  1.36193E+03  6.10698E+03
 -2.31054E+03  6.12809E+03 -3.55239E+03  2.02008E+03 -1.94075E+03 -1.04350E+03 -4.42111E+02 -7.74257E+02
 -3.84052E+02  1.36494E+02 -1.14447E+03  1.88637E+03 -2.70557E+03  7.89180E+02 -4.39269E+03 -5.05207E+02
 -1.58046E+03 -4.03369E+03  8.92829E+02 -5.10694E+03  2.85198E+03 -4.48062E+03  3.50056E+03 -9.73684E+02
  4.13961E+03  2.54856E+03  2.09655E+03  3.64978E+03 -7.30730E+02  4.62336E+03 -2.71491E+03  2.61367E+03
 -4.11706E+03  6.90296E+02 -3.47027E+03 -2.56632E+03 -2.04031E+02 -3.32973E+03  1.65586E+03 -2.56723E+03
  3.13535E+03 -1.30779E+03  2.02172E+03  7.71351E+02  6.06304E+02  1.66117E+03  9.49678E+02  5.96195E+02
  1.53356E+03  6.51104E+02  1.22811E+03  1.09163E+03  1.32384E+03  2.50957E+03  1.64157E+03  1.77611E+03
 -1.18375E+03  2.92993E+03 -2.62153E+03  4.12482E+03 -3.21774E+03  1.33381E+03 -4.21155E+03 -3.91134E+02
 -1.87231E+03 -3.97328E+03  6.49469E+02 -4.95578E+03  2.20467E+03 -2.74556E+03  3.40141E+03 -1.33514E+03
  2.36143E+03  1.81057E+03  2.37117E+02  2.40374E+03 -1.06436E+03  1.51167E+03 -1.06623E+03 -2.76952E+01
 -5.53730E+02 -1.65850E+03  1.33912E+03 -1.72728E+03  1.31598E+03 -9.95521E+02  1.40371E+03  5.36054E+02
  8.94566E+02  1.33254E+02  7.52795E+02 -4.15155E+02 -4.41955E+02  8.66311E+02  1.55114E+03 -1.97810E+02
  5.51707E+01 -1.44444E+02  2.04246E+03  8.61552E+02  3.50737E+02  2.28781E+03 -2.84059E+02  2.95581E+03
 -1.83342E+03  1.02426E+03 -2.03065E+03  6.19635E+02 -2.14228E+03 -7.65187E+02 -2.40525E+02 -6.97778E+02
  2.48663E+02 -1.33269E+03  1.10521E+03 -5.37558E+02  5.91029E+02  1.23047E+03 -4.58605E+02  1.06645E+03
 -1.41736E+03  8.32673E+02 -1.39013E+03 -1.12448E+03 -6.20245E+02 -2.11893E+03  2.21083E+02 -1.77161E+03
  4.98193E+02 -3.90819E+02  1.02576E+03  5.04942E+02  1.04903E+03 -1.12396E+02  4.85824E+02  1.37415E+03
 -3.95421E+02 -4.61226E+01 -1.20734E+03 -3.22621E+02  5.99218E+02 -1.23023E+03  1.88944E+03 -1.00763E+03
  1.64827E+03  3.87429E+02  2.99327E+03  7.44793E+02  1.41804E+03  1.69823E+03 -5.95222E+02  1.84557E+03
 -1.52528E+03  3.33605E+02 -1.53239E+03 -9.43690E+01 -9.56783E+02 -1.60645E+03 -8.57933E+01 -8.83613E+02
  1.65465E+03 -5.91863E+02  8.02887E+02  8.04375E+02  6.30579E+01  1.34603E+03  1.70104E+02  1.13530E+03
 -5.30044E+02  1.11105E+03 -5.50624E+02  3.14577E+02 -1.54214E+02  4.92940E+02 -6.99665E+02  5.79210E+02
 -5.59815E+02  1.05055E+03 -1.74191E+03  6.26043E+02 -1.88618E+03  3.47764E+02 -2.33354E+03 -1.33390E+03
 -8.60902E+02 -2.78323E+03  5.43369E+02 -2.68579E+03  1.25925E+03 -2.66717E+03  2.94899E+03 -1.11172E+03
  2.70302E+03 -4.19444E+00  1.31738E+03  1.57433E+03 -6.01969E+02  1.47056E+03 -8.12614E+02  1.33705E+03
 -1.52646E+03  7.03330E+02 -5.89389E+02 -3.42194E+02 -6.04239E+02  2.40488E+02 -7.42261E+02  1.79463E+01
 -9.49052E+02 -1.20241E+02 -1.13315E+03  8.43401E+00  1.80601E+02 -6.16794E+02 -3.20491E+02 -1.13874E+03
  1.33946E+03 -8.39894E+02  4.12350E+02  7.10885E+01  1.09347E+03  1.10184E+03 -3.39997E+02  1.63875E+03
 -1.34152E+03  2.46225E+03 -1.93624E+03  1.47547E+03 -1.80050E+03 -1.16041E+02 -1.43660E+03 -1.41665E+03
 -1.12841E+03 -1.33034E+03  3.92766E+02 -1.36964E+03  7.95010E+02 -9.20830E+02  6.57645E+02 -1.37832E+02
  1.04759E+03  4.22210E+02  1.68915E+02  5.63713E+02 -2.79100E+02  6.03675E+01 -1.53767E+02 -2.66056E+02
  4.76673E+02  1.91670E+02  4.08643E+02  3.44374E+02  2.29755E+02  5.56800E+02  2.93738E+02  3.74149E+02
 -8.45584E+02  6.10391E+02 -6.08735E+02  1.83064E+02 -8.64614E+02 -4.26532E+02 -3.48327E+01 -1.31223E+03
  8.61666E+02 -9.47815E+02  7.20182E+02  7.39344E+01  1.01187E+03 -4.05827E+02  6.87865E+02  8.95634E+02
  5.23367E+02  4.25509E+02 -2.28712E+02  5.91993E+02 -6.68788E+02  5.94481E+02 -6.20073E+02  1.18299E+02
 -1.73386E+02 -2.11863E+02 -4.44119E+02  1.81973E+02 -5.85228E+02  2.88567E+02 -8.40300E+02 -1.05581E+02
 -1.13476E+03  3.14690E+02 -1.20390E+02 -9.46412E+02  4.93974E+02 -1.61437E+03  1.07845E+03 -3.85974E+02
  6.55958E+02  7.06248E+01 -2.87494E+02  4.32726E+02  1.23318E+02  1.02685E+03 -5.02072E+02  1.02135E+03
