 $NMID ID='MM_0lb_SNR800_17hz_g50_49.RAW', FMTDAT='(8E13.5)'
 TRAMP=1., VOLUME=1. $END
  3.09705E+05  8.15774E+02  3.37363E+05  2.50299E+05  8.43390E+04  3.37485E+05 -1.32515E+05  2.50460E+05
 -1.90115E+05  8.27655E+04 -1.11290E+05 -3.27203E+04  1.14043E+03 -5.03916E+04  5.39591E+04  1.61469E+02
  3.54324E+04  5.30457E+04 -1.69268E+04  7.50014E+04 -6.07208E+04  6.31241E+04 -8.35321E+04  3.17678E+04
 -8.04646E+04 -1.11214E+04 -5.66616E+04 -5.07122E+04 -1.46422E+04 -6.89758E+04  2.68404E+04 -4.52149E+04
  3.92819E+04  4.06164E+03  1.62955E+04  4.70699E+04 -3.41502E+04  4.67353E+04 -6.58300E+04 -5.67194E+02
 -5.27707E+04 -5.63074E+04 -6.59538E+03 -7.59695E+04  3.35325E+04 -5.39535E+04  4.70662E+04 -1.70694E+04
  4.23518E+04  1.15452E+04  3.11840E+04  2.48007E+04  1.58564E+04  2.83924E+04 -4.69656E+03  2.67247E+04
 -2.18380E+04  1.26848E+04 -1.90424E+04 -4.58147E+03  4.69504E+03 -7.44362E+03  2.17089E+04  1.15354E+04
  7.52757E+03  3.37886E+04 -3.12822E+04  3.46330E+04 -6.21102E+04  2.22161E+03 -5.59755E+04 -4.17550E+04
 -1.27188E+04 -6.19367E+04  3.87425E+04 -4.40409E+04  5.66517E+04 -2.30678E+03  3.29581E+04  3.15611E+04
 -6.34444E+03  3.43026E+04 -2.92158E+04  1.46822E+04 -2.88343E+04 -4.89430E+03 -1.55953E+04 -1.05594E+04
 -7.69316E+03 -1.19487E+04 -9.91214E+02 -1.71680E+04  6.84852E+03 -2.28455E+04  1.49974E+04 -1.34864E+04
  1.20199E+04  4.65450E+03 -7.03745E+03  1.32010E+04 -2.02578E+04 -3.37573E+03 -8.09780E+03 -3.17944E+04
  2.14873E+04 -4.19206E+04  4.59694E+04 -1.89756E+04  4.32555E+04  1.86710E+04  1.49829E+04  4.26642E+04
 -1.57459E+04  3.19873E+04 -2.41993E+04  1.52664E+03 -8.87377E+03 -2.73014E+04  2.05566E+04 -3.21788E+04
  3.91129E+04 -8.08969E+03  3.28743E+04  2.32705E+04  1.65405E+04  4.42381E+04 -7.78928E+03  4.73180E+04
 -2.98839E+04  3.11219E+04 -3.92467E+04  8.74990E+03 -4.00520E+04 -1.58671E+04 -2.21393E+04 -3.59194E+04
  6.78973E+03 -3.57953E+04  3.00723E+04 -1.35568E+04  2.74550E+04  1.07190E+04  3.28428E+03  1.81441E+04
 -1.32234E+04  7.71522E+03 -1.00117E+04 -7.52930E+03  5.89106E+03 -1.04112E+04  1.75934E+04  6.26057E+03
  1.26662E+04  2.16146E+04 -6.42652E+03  2.41260E+04 -2.16181E+04  1.02127E+04 -2.62389E+04 -5.50472E+03
 -1.81009E+04 -1.67039E+04 -6.77548E+03 -1.85048E+04  4.07534E+03 -1.67044E+04  1.37024E+04 -1.59031E+04
  2.31847E+04 -1.22360E+04  2.99460E+04  1.64850E+03  2.21483E+04  1.76865E+04  3.93950E+03  3.37301E+04
 -1.68378E+04  2.84775E+04 -2.66123E+04  9.99782E+03 -1.99820E+04 -1.06200E+04 -4.28473E+03 -1.32920E+04
  2.21947E+03 -3.53160E+03 -3.60227E+03  5.72800E+03 -1.41032E+04  5.05608E+03 -1.46852E+04 -5.56089E+03
 -9.16258E+03 -1.65532E+04  4.62894E+03 -2.05621E+04  1.34558E+04 -1.48963E+04  1.59789E+04 -1.31309E+03
  9.74777E+03  1.17873E+04 -7.83532E+02  1.70081E+04 -1.14246E+04  9.65332E+03 -1.70477E+04 -3.99810E+03
 -1.21796E+04 -1.52636E+04 -1.46285E+03 -2.08859E+04  9.09974E+03 -1.68077E+04  1.74303E+04 -8.08253E+03
  1.58247E+04  5.40503E+02  1.14431E+04  4.29287E+03  5.88614E+03  8.42662E+02  8.24477E+03 -1.44594E+03
  1.53626E+04  3.03071E+03  1.63689E+04  1.34602E+04  1.04789E+04  2.69552E+04 -3.00719E+03  2.89941E+04
 -1.72851E+04  2.29424E+04 -2.72748E+04  1.13122E+04 -2.81196E+04 -1.96771E+03 -2.39914E+04 -1.62692E+04
 -1.06213E+04 -2.32481E+04  7.82553E+03 -2.11189E+04  1.85773E+04 -1.14578E+04  1.70468E+04  4.36936E+03
  6.75520E+03  1.23846E+04 -7.77158E+03  1.12003E+04 -1.42168E+04  2.66829E+03 -1.13810E+04 -8.66746E+03
  1.10654E+01 -1.34547E+04  7.12720E+03 -1.02990E+04  8.67326E+03 -1.26427E+03  1.82026E+03  5.53870E+03
 -5.73610E+03  1.79064E+03 -4.43582E+03 -4.84179E+03  2.05174E+02 -1.15039E+04  8.58278E+03 -1.14705E+04
  1.39440E+04 -5.57836E+03  1.40711E+04  2.78557E+03  1.22001E+04  1.08106E+04  5.77070E+03  1.62957E+04
 -2.21735E+03  1.82791E+04 -1.11741E+04  1.12979E+04 -1.30519E+04  3.10644E+03 -9.25391E+03 -2.40436E+03
 -4.82546E+03 -3.97609E+03 -8.46046E+02  9.75089E+02 -2.14715E+03  2.28063E+03 -4.30360E+03  3.50869E+03
 -8.73238E+03 -6.53511E+02 -9.72967E+03 -7.66834E+03 -3.91753E+03 -1.25179E+04  3.93314E+03 -9.64888E+03
  7.89736E+03 -4.41302E+03  6.03822E+03  2.48351E+03  6.96678E+02  3.31424E+03 -3.96677E+03  1.42978E+02
 -3.89377E+03 -5.69862E+03 -9.71288E+02 -8.57419E+03  4.54752E+03 -9.12248E+03  1.11248E+04 -4.60995E+03
  1.34504E+04  1.08943E+03  9.56398E+03  7.30648E+03  2.08823E+03  1.02238E+04 -6.03933E+03  9.28798E+03
 -7.50454E+03  2.90325E+03 -3.89004E+03 -1.28537E+03  1.39045E+03 -2.52067E+03  4.93795E+03 -1.01146E+03
  4.72561E+03  3.88666E+03  1.10684E+03  7.41648E+03 -5.09794E+03  7.23382E+03 -8.87954E+03  1.89934E+03
 -5.58071E+03 -4.48545E+03  2.58409E+02 -7.50673E+03  4.40501E+03 -3.68054E+03  4.39139E+03  1.13810E+03
  4.97927E+02  4.15668E+03 -4.48519E+03  5.42499E+03 -5.80151E+03  2.93618E+03 -5.67199E+03 -1.59092E+03
 -3.58799E+03 -7.60968E+03  1.61103E+03 -8.37072E+03  7.31760E+03 -5.36131E+03  7.76199E+03  1.27366E+03
  5.49676E+03  6.29275E+03 -1.17257E+02  8.18636E+03 -5.80004E+03  4.70880E+03 -6.32836E+03 -6.52841E+02
 -6.40682E+03 -5.68567E+03 -1.36777E+03 -5.59557E+03  3.00081E+03 -5.43171E+03  3.61566E+03 -3.11065E+03
  2.91880E+03  2.68031E+02 -1.34165E+02  1.40914E+03  1.29173E+02 -6.44970E+02  3.65321E+02 -2.55301E+03
  4.81869E+03 -1.33130E+03  6.37958E+03  1.20039E+03  6.92246E+03  3.92021E+03  5.63904E+03  8.92157E+03
 -1.83392E+03  1.04320E+04 -9.26933E+03  7.65870E+03 -1.17238E+04  1.52654E+03 -9.54373E+03 -3.36951E+03
 -4.78369E+03 -7.57171E+03 -4.24846E+02 -6.17747E+03  2.44942E+03 -2.98644E+03  2.24852E+03 -2.42595E+03
  1.68582E+03 -1.69277E+03  2.45670E+03 -2.40014E+03  3.73836E+03 -1.58129E+03  3.98664E+03  3.74500E+02
  5.37831E+03  1.61575E+03  1.57766E+03  4.19444E+03 -1.56012E+03  4.04977E+03 -5.15944E+03  3.60711E+03
 -5.87907E+03 -9.52228E+02 -2.65351E+03 -3.82869E+03  5.21717E+02 -5.99096E+03  3.86619E+03 -6.52683E+03
  6.23751E+03 -3.66443E+03  8.06138E+03  6.29918E+02  6.08939E+03  5.04787E+03  1.34371E+03  6.98963E+03
 -2.72417E+03  6.78287E+03 -4.14907E+03  2.31726E+03 -2.40619E+03 -9.82850E+02 -6.86828E+02 -9.04134E+02
 -5.79668E+02  6.77398E+02 -9.15069E+02  2.35044E+03 -3.05680E+03  8.62406E+02 -4.91469E+03 -3.60949E+02
 -2.30240E+03 -4.88273E+03  1.03123E+03 -5.55313E+03  3.59504E+03 -5.11860E+03  4.54683E+03 -1.41121E+03
  4.80679E+03  2.67691E+03  2.25064E+03  4.43543E+03 -1.02697E+03  5.41233E+03 -3.33903E+03  3.17376E+03
 -5.03157E+03  5.48621E+02 -4.39576E+03 -3.07282E+03 -5.08639E+02 -3.96850E+03  1.87514E+03 -2.94695E+03
  3.07111E+03 -1.67017E+03  2.07837E+03  7.82947E+02  6.10599E+02  1.78936E+03  7.32214E+02  6.72352E+02
  1.84077E+03  5.39625E+02  1.42922E+03  1.12561E+03  1.44727E+03  2.50409E+03  1.52402E+03  2.18381E+03
 -1.45818E+03  3.70658E+03 -3.39375E+03  4.73992E+03 -4.04077E+03  1.42487E+03 -5.38547E+03 -8.86618E+02
 -2.32379E+03 -4.37624E+03  7.30007E+02 -5.90629E+03  2.56309E+03 -3.23302E+03  3.87241E+03 -1.10234E+03
  3.21771E+03  1.83313E+03  3.34645E+02  2.92673E+03 -1.02903E+03  1.86913E+03 -1.45352E+03  1.09310E+02
 -9.34339E+02 -2.08511E+03  1.35762E+03 -2.15198E+03  1.79006E+03 -1.37069E+03  2.09027E+03  3.50394E+02
  1.14739E+03  4.89737E+02  9.65904E+02  3.10993E+01 -1.48567E+02  5.40973E+02  1.36893E+03 -3.25975E+02
  3.67963E+02 -2.01482E+02  2.25693E+03  4.70606E+02  4.95378E+02  3.05772E+03 -5.78491E+02  3.43605E+03
 -2.09248E+03  1.46939E+03 -2.61255E+03  4.63941E+02 -2.83779E+03 -9.46834E+02 -4.69873E+02 -1.37870E+03
  3.86429E+02 -1.92052E+03  1.01332E+03 -7.63114E+02  7.97896E+02  1.50371E+03 -9.08963E+02  1.78240E+03
 -1.93247E+03  7.27394E+02 -1.59038E+03 -1.59921E+03 -8.98129E+02 -2.58607E+03  1.34631E+02 -2.26719E+03
  4.44347E+02 -9.75965E+02  1.30051E+03  1.19197E+02  1.69569E+03  6.82117E+01  6.04733E+02  1.59149E+03
 -5.23787E+02  1.29479E+02 -1.05407E+03 -3.85591E+02  6.57435E+02 -1.31685E+03  2.03476E+03 -1.28501E+03
  2.16570E+03  3.14672E+02  3.22064E+03  1.29891E+03  9.80556E+02  2.10650E+03 -5.20727E+02  2.55623E+03
 -1.87436E+03  5.85013E+02 -2.13690E+03 -1.32909E+02 -1.15414E+03 -2.06063E+03  1.96166E+02 -1.00491E+03
  1.62831E+03 -1.13367E+03  1.10584E+03  7.16477E+02  1.79449E+02  1.74475E+03  2.36162E+02  1.18122E+03
 -6.76239E+02  1.17478E+03 -7.60877E+02  2.00861E+02 -1.41746E+01  6.01415E+02 -8.75556E+02  8.27117E+02
 -5.85230E+02  8.74223E+02 -1.89616E+03  7.70455E+02 -2.10524E+03  1.82610E+02 -3.18582E+03 -1.53733E+03
 -1.22555E+03 -3.09501E+03  5.83849E+02 -3.75338E+03  1.47854E+03 -2.80807E+03  3.57868E+03 -1.61269E+03
  3.40811E+03  9.89872E+01  1.59179E+03  2.07450E+03 -4.42054E+02  2.03292E+03 -8.97088E+02  1.81968E+03
 -1.10061E+03  7.77054E+02 -5.46731E+02 -5.28213E+02 -8.15615E+02  1.90359E+02 -6.59566E+02  8.38851E+01
 -1.16439E+03 -2.95398E+02 -1.09905E+03 -5.61008E+01 -1.81286E+02 -6.57029E+02 -9.24543E+01 -9.63175E+02
  1.63434E+03 -7.14927E+02  1.03420E+03 -2.24841E+02  1.46429E+03  1.43507E+03 -4.58918E+02  2.08590E+03
 -1.24283E+03  2.94566E+03 -2.09794E+03  1.52828E+03 -2.42336E+03 -6.83776E+01 -1.74074E+03 -1.95136E+03
 -9.66091E+02 -1.77852E+03  5.15354E+02 -1.41549E+03  1.24912E+03 -5.18072E+02  8.65109E+02  3.13853E+01
  5.73766E+02  6.17367E+02 -2.18548E+01  1.90175E+02 -7.99514E+02 -1.55950E+02 -3.15828E+02 -4.97786E+02
  7.06933E+02  8.14874E+01  5.13948E+02  5.59030E+02  1.76456E+02  6.46687E+02  2.81232E+02  1.02476E+03
 -7.78731E+02  9.02335E+02 -9.26101E+02 -1.56935E+02 -1.24555E+03 -5.68434E+02 -1.66462E+01 -1.62377E+03
  6.01607E+02 -7.93058E+02  8.88574E+02 -2.91610E+01  1.30157E+03 -3.75454E+02  1.07175E+03  1.12547E+03
  5.67813E+02  9.87704E+02 -3.54352E+02  7.11730E+02 -8.74107E+02  7.77876E+02 -4.09329E+02  7.61304E+01
 -2.72788E+02 -2.91402E+02 -7.76455E+02  3.03849E+02 -8.95488E+02  3.10927E+02 -9.09314E+02 -3.13223E+02
 -1.21692E+03  2.36388E+02 -6.02370E+02 -1.26326E+03  9.42895E+02 -1.90011E+03  9.52643E+02 -5.48589E+02
  8.20941E+02 -1.86239E+01 -6.37260E+01  3.71727E+02 -1.44305E+02  1.10384E+03 -7.13487E+02  9.12357E+02
