 $NMID ID='MM_0lb_SNR800_14hz_g50_85.RAW', FMTDAT='(8E13.5)'
 TRAMP=1., VOLUME=1. $END
  3.09830E+05  2.19481E+02  3.37941E+05  2.50277E+05  8.49033E+04  3.37927E+05 -1.32497E+05  2.50853E+05
 -1.90434E+05  8.32910E+04 -1.11894E+05 -3.24012E+04  7.92555E+02 -5.04340E+04  5.32741E+04 -9.52037E+01
  3.52975E+04  5.26567E+04 -1.66249E+04  7.55624E+04 -6.08154E+04  6.36514E+04 -8.40122E+04  3.20709E+04
 -8.12413E+04 -1.12689E+04 -5.72209E+04 -5.11841E+04 -1.48006E+04 -6.95517E+04  2.74380E+04 -4.59220E+04
  4.00957E+04  3.87663E+03  1.62881E+04  4.80115E+04 -3.45209E+04  4.74640E+04 -6.68989E+04 -9.12876E+01
 -5.34617E+04 -5.67604E+04 -6.65226E+03 -7.69924E+04  3.42429E+04 -5.50917E+04  4.78657E+04 -1.71609E+04
  4.35017E+04  1.12122E+04  3.17816E+04  2.56923E+04  1.59744E+04  2.95066E+04 -5.20098E+03  2.71277E+04
 -2.19267E+04  1.22920E+04 -1.84465E+04 -5.27363E+03  5.66046E+03 -7.35237E+03  2.24763E+04  1.24065E+04
  7.31232E+03  3.51218E+04 -3.22048E+04  3.57454E+04 -6.35954E+04  2.21449E+03 -5.72867E+04 -4.27712E+04
 -1.21207E+04 -6.28742E+04  3.97973E+04 -4.51173E+04  5.80497E+04 -1.81723E+03  3.42815E+04  3.24164E+04
 -5.89817E+03  3.62579E+04 -3.00419E+04  1.57789E+04 -3.00197E+04 -4.63789E+03 -1.64851E+04 -1.07497E+04
 -8.43695E+03 -1.35264E+04 -7.57285E+02 -1.81408E+04  7.86684E+03 -2.29904E+04  1.53524E+04 -1.31257E+04
  1.13242E+04  5.39660E+03 -8.29034E+03  1.28315E+04 -2.11585E+04 -4.27036E+03 -8.32084E+03 -3.42659E+04
  2.27240E+04 -4.37589E+04  4.84053E+04 -1.96650E+04  4.49177E+04  1.94583E+04  1.58738E+04  4.41098E+04
 -1.60478E+04  3.34864E+04 -2.50412E+04  2.20145E+03 -9.81346E+03 -2.78051E+04  2.09078E+04 -3.38914E+04
  4.14194E+04 -8.95486E+03  3.54737E+04  2.36853E+04  1.82955E+04  4.66459E+04 -7.92281E+03  5.02997E+04
 -3.17007E+04  3.35436E+04 -4.19679E+04  9.20864E+03 -4.25336E+04 -1.66612E+04 -2.35357E+04 -3.79486E+04
  7.39564E+03 -3.80391E+04  3.13866E+04 -1.47137E+04  2.94990E+04  1.08855E+04  4.27819E+03  1.91781E+04
 -1.33274E+04  8.44079E+03 -1.03251E+04 -7.92941E+03  5.94111E+03 -1.06010E+04  1.79733E+04  5.96199E+03
  1.35643E+04  2.22368E+04 -6.06805E+03  2.50802E+04 -2.22446E+04  1.14535E+04 -2.81827E+04 -4.84475E+03
 -2.09353E+04 -1.74053E+04 -8.10589E+03 -2.06928E+04  4.00807E+03 -1.98791E+04  1.59165E+04 -1.86225E+04
  2.62667E+04 -1.32303E+04  3.25631E+04  2.81795E+03  2.38684E+04  1.98629E+04  4.51434E+03  3.66782E+04
 -1.75738E+04  3.02272E+04 -2.77291E+04  1.06742E+04 -2.09358E+04 -1.03787E+04 -4.49960E+03 -1.37104E+04
  1.73224E+03 -2.60934E+03 -4.64722E+03  6.84134E+03 -1.67082E+04  5.31875E+03 -1.64468E+04 -6.96683E+03
 -1.00690E+04 -1.92091E+04  5.15709E+03 -2.30497E+04  1.53844E+04 -1.65895E+04  1.82863E+04 -1.54845E+03
  1.16557E+04  1.31262E+04 -9.10380E+02  1.88201E+04 -1.32524E+04  1.06174E+04 -1.92326E+04 -4.16547E+03
 -1.40016E+04 -1.72895E+04 -1.76354E+03 -2.30574E+04  1.06399E+04 -1.91213E+04  1.95652E+04 -9.63508E+03
  1.80088E+04  3.51837E+02  1.30339E+04  4.29120E+03  6.72746E+03  7.79894E+02  9.46300E+03 -1.52639E+03
  1.77567E+04  3.01046E+03  1.96198E+04  1.50730E+04  1.27372E+04  3.06550E+04 -2.88645E+03  3.39139E+04
 -2.02611E+04  2.78058E+04 -3.22867E+04  1.38184E+04 -3.35852E+04 -2.62908E+03 -2.77094E+04 -1.92261E+04
 -1.19132E+04 -2.77761E+04  9.45113E+03 -2.49151E+04  2.17700E+04 -1.26528E+04  1.91162E+04  5.44007E+03
  7.25407E+03  1.43927E+04 -9.18286E+03  1.27667E+04 -1.63855E+04  2.60211E+03 -1.26302E+04 -1.00758E+04
 -4.26478E+02 -1.57157E+04  8.23615E+03 -1.17503E+04  1.00870E+04 -1.49351E+03  1.82327E+03  6.80806E+03
 -6.93811E+03  2.38521E+03 -6.12591E+03 -5.51565E+03 -4.31120E+02 -1.36109E+04  9.51362E+03 -1.41756E+04
  1.67702E+04 -7.66040E+03  1.79104E+04  2.97084E+03  1.57876E+04  1.35560E+04  7.21093E+03  2.03635E+04
 -3.31689E+03  2.21063E+04 -1.44870E+04  1.41647E+04 -1.60763E+04  3.56703E+03 -1.14736E+04 -3.67368E+03
 -5.25906E+03 -4.73110E+03 -7.27356E+02  1.17606E+03 -2.44168E+03  2.54903E+03 -4.72701E+03  4.32331E+03
 -1.05958E+04 -7.89095E+02 -1.15036E+04 -9.31740E+03 -4.43484E+03 -1.48732E+04  4.89234E+03 -1.12669E+04
  9.54606E+03 -4.73428E+03  6.69568E+03  3.05236E+03  1.48829E+02  4.30837E+03 -5.58585E+03 -1.97907E+02
 -5.26225E+03 -7.04869E+03 -1.06306E+03 -1.08166E+04  6.16934E+03 -1.11829E+04  1.41765E+04 -6.21482E+03
  1.66411E+04  1.14528E+03  1.20056E+04  9.49730E+03  2.37824E+03  1.29320E+04 -7.11231E+03  1.13662E+04
 -9.34767E+03  3.54646E+03 -4.80825E+03 -2.15301E+03  1.91923E+03 -2.82550E+03  5.74259E+03 -8.52206E+02
  5.35777E+03  4.72424E+03  1.03313E+03  8.78158E+03 -6.22624E+03  8.65120E+03 -1.10518E+04  2.14163E+03
 -7.21663E+03 -5.24390E+03  2.68786E+02 -9.45767E+03  5.47448E+03 -4.59415E+03  6.10994E+03  1.64884E+03
  1.17255E+03  6.00054E+03 -5.68283E+03  7.48644E+03 -7.96792E+03  3.33808E+03 -8.15769E+03 -2.65842E+03
 -5.15175E+03 -9.76865E+03  2.39128E+03 -1.17042E+04  9.68247E+03 -7.20273E+03  1.05659E+04  1.61468E+03
  6.47571E+03  8.44048E+03 -2.29795E+02  1.06159E+04 -7.81203E+03  6.13559E+03 -8.28522E+03 -6.20843E+02
 -7.49697E+03 -7.12799E+03 -1.41452E+03 -7.89597E+03  4.30047E+03 -6.29956E+03  5.11766E+03 -2.84236E+03
  3.61729E+03  7.71883E+02 -3.92194E+02  1.50429E+03  2.13250E+02 -1.47041E+03  1.17855E+03 -4.11078E+03
  6.51801E+03 -2.32286E+03  9.58532E+03  1.23409E+03  9.43982E+03  6.11855E+03  7.21381E+03  1.26031E+04
 -2.90999E+03  1.43215E+04 -1.24558E+04  1.08175E+04 -1.57516E+04  1.81484E+03 -1.28058E+04 -4.85522E+03
 -6.43719E+03 -1.05859E+04 -4.40891E+02 -8.70783E+03  3.40944E+03 -4.37296E+03  3.15678E+03 -3.58001E+03
  2.57019E+03 -2.20441E+03  2.97971E+03 -2.99878E+03  4.49969E+03 -2.25888E+03  5.23927E+03 -6.92140E+02
  6.83485E+03  1.68651E+03  2.77486E+03  5.62559E+03 -1.95206E+03  6.18972E+03 -6.87246E+03  4.75586E+03
 -8.76577E+03 -1.17803E+03 -4.60328E+03 -5.90194E+03 -4.59339E+02 -8.74940E+03  5.09629E+03 -9.00667E+03
  9.15413E+03 -5.48080E+03  1.13374E+04  1.22129E+03  7.72591E+03  7.67061E+03  1.55851E+03  1.06088E+04
 -4.01185E+03  9.10584E+03 -5.96582E+03  3.02296E+03 -3.72000E+03 -1.26934E+03 -1.25907E+03 -1.31489E+03
 -8.32584E+02 -2.23991E+02 -1.37028E+03  2.24225E+03 -3.71652E+03  1.89949E+03 -6.66123E+03 -6.82869E+02
 -3.65385E+03 -6.68531E+03  7.19090E+02 -8.30093E+03  4.91037E+03 -7.48447E+03  7.47565E+03 -2.54411E+03
  7.48626E+03  4.08199E+03  3.83169E+03  6.63486E+03 -1.56641E+03  8.00545E+03 -5.29845E+03  5.13421E+03
 -7.57293E+03  3.51317E+02 -6.12524E+03 -4.59374E+03 -6.28634E+02 -6.73363E+03  3.36937E+03 -4.91526E+03
  4.92026E+03 -1.90205E+03  3.35514E+03  1.32533E+03  1.05546E+03  2.79117E+03  8.80714E+02  1.12231E+03
  2.10307E+03  9.71963E+02  1.87963E+03  1.60109E+03  2.23593E+03  3.12814E+03  2.01887E+03  4.03180E+03
 -1.85492E+03  5.70787E+03 -5.01604E+03  6.45322E+03 -7.16346E+03  1.75713E+03 -7.80104E+03 -2.24819E+03
 -3.93010E+03 -7.62340E+03  1.20103E+03 -8.38063E+03  4.09152E+03 -5.18360E+03  6.19928E+03 -1.71757E+03
  4.85964E+03  3.17075E+03  8.31325E+02  4.34254E+03 -2.02649E+03  2.84946E+03 -2.42207E+03 -8.91631E+01
 -1.46238E+03 -3.48128E+03  2.19553E+03 -3.39057E+03  3.07905E+03 -2.02610E+03  2.85406E+03  3.50242E+02
  1.37580E+03  1.32298E+03  8.61595E+02  9.89099E+02 -6.46052E+02  1.14134E+03  1.62988E+03 -4.90486E+01
  7.64252E+02 -6.25188E+02  3.23769E+03  1.23802E+03  1.15198E+03  4.07207E+03 -8.34959E+02  5.15355E+03
 -3.42695E+03  2.82164E+03 -4.49171E+03  8.11400E+02 -4.23082E+03 -1.41673E+03 -1.05864E+03 -2.94600E+03
  4.85563E+02 -2.69711E+03  1.88730E+03 -1.24632E+03  1.52316E+03  1.80450E+03 -1.03129E+03  2.21802E+03
 -2.89038E+03  1.51762E+03 -2.96733E+03 -2.04578E+03 -1.85925E+03 -3.97261E+03  5.61029E+02 -3.39942E+03
  1.49986E+03 -1.69167E+03  2.63883E+03  1.13530E+02  2.37253E+03  9.08375E+02  5.90704E+02  1.80594E+03
 -1.01762E+03  3.24405E+02 -1.47895E+03 -1.08194E+03  8.68410E+02 -2.71012E+03  3.49873E+03 -2.29645E+03
  3.90468E+03  5.83416E+02  4.72842E+03  2.46811E+03  1.65399E+03  4.15048E+03 -1.13764E+03  4.27381E+03
 -3.38111E+03  1.40174E+03 -3.72352E+03 -3.32469E+02 -2.00045E+03 -2.97456E+03  4.32382E+02 -2.32455E+03
  2.91978E+03 -1.39582E+03  2.32240E+03  1.12583E+03  7.11921E+02  2.56525E+03 -6.61689E+01  2.20854E+03
 -1.02560E+03  1.57350E+03 -8.89540E+02  2.39132E+02 -3.43347E+01  4.23515E+02 -7.86170E+02  1.10036E+03
 -1.42573E+03  1.61149E+03 -3.46256E+03  1.20763E+03 -4.28640E+03 -1.79800E+02 -4.90205E+03 -2.56724E+03
 -2.49883E+03 -5.46297E+03  1.14171E+03 -6.49844E+03  3.41497E+03 -5.42665E+03  6.21719E+03 -2.14722E+03
  5.36173E+03  1.03578E+03  3.36413E+03  3.43268E+03 -2.31493E+02  4.00048E+03 -1.70629E+03  3.47041E+03
 -2.21374E+03  1.20878E+03 -1.34243E+03 -7.36327E+02 -8.11794E+02 -1.08974E+02 -7.43005E+02 -3.51247E+01
 -1.30605E+03 -3.38556E+01 -1.37349E+03 -4.62362E+01 -1.94959E+01 -1.31269E+03  6.45562E+01 -1.97212E+03
  2.39327E+03 -1.63203E+03  2.06997E+03  2.49917E+02  2.84063E+03  2.13854E+03  1.73899E+02  3.78055E+03
 -2.01506E+03  4.93909E+03 -3.86808E+03  2.64656E+03 -4.64093E+03 -4.52515E+02 -3.56017E+03 -3.06348E+03
 -1.67182E+03 -4.17631E+03  9.48975E+02 -3.63785E+03  2.51819E+03 -1.78385E+03  2.51573E+03  2.81532E+02
  1.66995E+03  1.10723E+03 -1.19056E+01  1.31167E+03 -8.55536E+02  2.00737E+02 -3.55611E+01 -7.40747E+02
  1.06934E+03 -4.86719E+02  1.32265E+03  7.74966E+02  8.83061E+02  1.51368E+03  2.08217E+02  1.60531E+03
 -1.61154E+03  1.67694E+03 -2.03742E+03  7.76127E+01 -2.57941E+03 -1.34933E+03 -2.19491E+02 -2.69937E+03
  1.49855E+03 -2.46574E+03  2.63004E+03 -6.52412E+02  3.00722E+03  1.31107E+02  1.49940E+03  2.09805E+03
  6.53025E+02  2.46129E+03 -9.17066E+02  1.76976E+03 -1.44633E+03  1.09906E+03 -1.14593E+03  3.21542E+02
 -4.60499E+02 -1.45247E+02 -9.41036E+02  2.45687E+02 -1.44129E+03  6.66966E+02 -2.03465E+03 -5.64161E+02
 -2.28968E+03 -5.83332E+02 -8.09502E+02 -2.38693E+03  1.41462E+03 -3.02578E+03  2.10458E+03 -1.25776E+03
  2.40392E+03  3.60444E+01  7.12212E+02  1.69537E+03 -3.40235E+02  2.14572E+03 -1.86492E+03  1.57053E+03
