 $NMID ID='MM_0lb_SNR800_11hz_g60_58.RAW', FMTDAT='(8E13.5)'
 TRAMP=1., VOLUME=1. $END
  3.09922E+05  4.90918E+02  3.37771E+05  2.50490E+05  8.48383E+04  3.38302E+05 -1.32737E+05  2.51823E+05
 -1.90802E+05  8.39029E+04 -1.12491E+05 -3.23608E+04  3.18561E+02 -5.08035E+04  5.40008E+04 -3.22431E+02
  3.52880E+04  5.31047E+04 -1.67953E+04  7.59794E+04 -6.14183E+04  6.44494E+04 -8.55001E+04  3.24885E+04
 -8.22323E+04 -1.18375E+04 -5.76553E+04 -5.24428E+04 -1.47045E+04 -7.09443E+04  2.79803E+04 -4.65645E+04
  4.10282E+04  3.56482E+03  1.67700E+04  4.82815E+04 -3.48207E+04  4.79924E+04 -6.80072E+04 -1.22878E+02
 -5.49026E+04 -5.77225E+04 -7.23941E+03 -7.86132E+04  3.47580E+04 -5.71818E+04  4.95645E+04 -1.80367E+04
  4.48828E+04  1.15943E+04  3.26201E+04  2.62424E+04  1.60238E+04  3.01479E+04 -5.76883E+03  2.74848E+04
 -2.23590E+04  1.20222E+04 -1.78879E+04 -5.86359E+03  7.12657E+03 -7.38045E+03  2.35760E+04  1.40922E+04
  7.07444E+03  3.71446E+04 -3.34858E+04  3.70750E+04 -6.53454E+04  2.00384E+03 -5.86779E+04 -4.43919E+04
 -1.26812E+04 -6.55962E+04  4.14074E+04 -4.69132E+04  6.06023E+04 -2.67946E+03  3.64715E+04  3.43051E+04
 -5.76005E+03  3.93606E+04 -3.17866E+04  1.88522E+04 -3.30105E+04 -3.54024E+03 -1.90967E+04 -1.16282E+04
 -9.37955E+03 -1.49636E+04 -8.96349E+02 -1.91456E+04  8.41040E+03 -2.33762E+04  1.59872E+04 -1.26436E+04
  1.03647E+04  5.84037E+03 -9.99643E+03  1.27345E+04 -2.28122E+04 -6.57571E+03 -8.49071E+03 -3.68069E+04
  2.46806E+04 -4.64569E+04  5.15474E+04 -2.06482E+04  4.81447E+04  2.05437E+04  1.68036E+04  4.70076E+04
 -1.64866E+04  3.57645E+04 -2.74417E+04  2.26295E+03 -1.18713E+04 -2.96211E+04  2.14603E+04 -3.69428E+04
  4.41866E+04 -1.10808E+04  3.99518E+04  2.46692E+04  2.10560E+04  5.04505E+04 -8.11454E+03  5.52762E+04
 -3.50667E+04  3.76373E+04 -4.65548E+04  1.09371E+04 -4.67035E+04 -1.83506E+04 -2.58882E+04 -4.15327E+04
  7.89999E+03 -4.15710E+04  3.40715E+04 -1.65308E+04  3.18357E+04  1.09040E+04  4.74016E+03  2.08544E+04
 -1.36950E+04  9.52267E+03 -1.07413E+04 -7.45129E+03  5.54613E+03 -1.10500E+04  1.88573E+04  5.56077E+03
  1.47990E+04  2.26689E+04 -5.41280E+03  2.71561E+04 -2.29578E+04  1.38998E+04 -3.10976E+04 -3.23143E+03
 -2.44252E+04 -1.86917E+04 -1.09073E+04 -2.41279E+04  4.29835E+03 -2.45284E+04  1.91474E+04 -2.19433E+04
  3.12939E+04 -1.41358E+04  3.71468E+04  4.44453E+03  2.63636E+04  2.34314E+04  4.21232E+03  4.08596E+04
 -1.92436E+04  3.35829E+04 -3.04166E+04  1.19323E+04 -2.22863E+04 -1.06430E+04 -4.88599E+03 -1.29627E+04
  7.58259E+02 -1.49416E+03 -7.32051E+03  8.30037E+03 -1.98222E+04  5.05710E+03 -1.96040E+04 -8.84654E+03
 -1.17041E+04 -2.24474E+04  6.14976E+03 -2.72365E+04  1.77852E+04 -1.92086E+04  2.22446E+04 -1.71805E+03
  1.41052E+04  1.58390E+04 -1.10821E+03  2.24885E+04 -1.58565E+04  1.31153E+04 -2.25792E+04 -4.89532E+03
 -1.64739E+04 -2.02818E+04 -1.51515E+03 -2.70887E+04  1.21813E+04 -2.23918E+04  2.25033E+04 -1.17002E+04
  2.12358E+04  5.39928E+01  1.52207E+04  5.05488E+03  8.59574E+03  1.22744E+03  1.19216E+04 -1.86726E+03
  2.12181E+04  2.86537E+03  2.41931E+04  1.75384E+04  1.70202E+04  3.63592E+04 -2.99297E+03  4.22718E+04
 -2.41887E+04  3.52893E+04 -4.00795E+04  1.82014E+04 -4.29132E+04 -3.35008E+03 -3.46261E+04 -2.46921E+04
 -1.39673E+04 -3.56991E+04  1.25194E+04 -3.09199E+04  2.67705E+04 -1.50311E+04  2.32551E+04  7.25966E+03
  7.93610E+03  1.78820E+04 -1.09660E+04  1.47443E+04 -1.92720E+04  2.42822E+03 -1.46104E+04 -1.22042E+04
 -4.25904E+02 -1.85457E+04  1.00092E+04 -1.36116E+04  1.23938E+04 -1.22597E+03  3.11414E+03  8.18637E+03
 -8.16178E+03  3.72300E+03 -8.54935E+03 -6.66891E+03 -1.23947E+03 -1.71429E+04  1.14071E+04 -1.87657E+04
  2.18114E+04 -1.06330E+04  2.44192E+04  3.14393E+03  2.12444E+04  1.73356E+04  1.00450E+04  2.74623E+04
 -5.43822E+03  2.92590E+04 -1.92187E+04  1.82061E+04 -2.12198E+04  3.78930E+03 -1.45294E+04 -5.32584E+03
 -6.06480E+03 -7.04805E+03 -7.31533E+02  8.10560E+02 -2.82682E+03  3.27141E+03 -7.12487E+03  5.28525E+03
 -1.34988E+04 -9.31687E+02 -1.36920E+04 -1.10049E+04 -5.45095E+03 -1.83441E+04  6.11923E+03 -1.46434E+04
  1.19148E+04 -6.00259E+03  8.71060E+03  3.84757E+03 -2.88383E+02  5.59606E+03 -7.22985E+03 -6.81086E+01
 -7.11226E+03 -9.41907E+03 -8.55754E+02 -1.42558E+04  8.35785E+03 -1.51146E+04  1.84734E+04 -8.20579E+03
  2.15744E+04  2.06075E+03  1.60162E+04  1.31967E+04  3.09694E+03  1.75847E+04 -9.05699E+03  1.43224E+04
 -1.17875E+04  4.55525E+03 -5.94510E+03 -3.20406E+03  2.22281E+03 -4.02673E+03  7.34924E+03 -1.28055E+03
  6.75223E+03  6.63173E+03  1.19914E+03  1.15906E+04 -8.43072E+03  1.10151E+04 -1.43615E+04  2.78537E+03
 -9.57158E+03 -7.68499E+03  1.68072E+02 -1.22643E+04  8.04780E+03 -6.05341E+03  8.28345E+03  3.46721E+03
  1.69202E+03  9.20655E+03 -7.67489E+03  1.01522E+04 -1.26508E+04  4.49186E+03 -1.27643E+04 -4.70462E+03
 -6.90644E+03 -1.44788E+04  3.72536E+03 -1.63170E+04  1.42552E+04 -9.94281E+03  1.56347E+04  2.76031E+03
  9.09977E+03  1.15998E+04 -9.53806E+02  1.45774E+04 -1.04475E+04  7.96875E+03 -1.15827E+04 -1.40846E+03
 -9.99487E+03 -9.73735E+03 -1.64768E+03 -1.06976E+04  5.86501E+03 -8.87479E+03  6.93863E+03 -3.73204E+03
  4.75541E+03  2.18938E+03 -1.16513E+03  1.84494E+03 -2.40870E+02 -2.75927E+03  1.94342E+03 -6.65739E+03
  1.02486E+04 -4.25808E+03  1.39273E+04  1.41913E+03  1.39475E+04  1.01424E+04  9.12412E+03  1.85609E+04
 -4.46520E+03  2.13038E+04 -1.78722E+04  1.56320E+04 -2.31407E+04  2.54414E+03 -1.84616E+04 -7.69953E+03
 -9.51433E+03 -1.55684E+04 -2.57482E+02 -1.32615E+04  4.85600E+03 -7.17903E+03  4.67401E+03 -4.56792E+03
  3.22633E+03 -2.59779E+03  3.69802E+03 -3.57868E+03  5.83767E+03 -3.15167E+03  7.22024E+03 -1.33781E+03
  9.94507E+03  2.47768E+03  4.76342E+03  8.42671E+03 -1.92346E+03  9.55773E+03 -9.99365E+03  7.71309E+03
 -1.26297E+04 -1.27495E+03 -8.30321E+03 -9.23952E+03 -1.19600E+03 -1.38273E+04  8.15108E+03 -1.41028E+04
  1.44448E+04 -8.02205E+03  1.71116E+04  2.63949E+03  1.21141E+04  1.17333E+04  1.80653E+03  1.55978E+04
 -6.40040E+03  1.24584E+04 -9.05796E+03  4.72952E+03 -6.12643E+03 -1.32041E+03 -2.57950E+03 -2.02012E+03
 -1.45139E+03 -1.13986E+02 -2.18487E+03  2.46335E+03 -5.34735E+03  2.18892E+03 -9.13393E+03 -1.32851E+03
 -5.89238E+03 -8.68384E+03  2.34882E+01 -1.25500E+04  7.46868E+03 -1.15952E+04  1.27259E+04 -3.57634E+03
  1.26345E+04  6.16620E+03  5.72809E+03  1.12584E+04 -2.36306E+03  1.26651E+04 -9.07927E+03  7.69282E+03
 -1.13300E+04  5.35959E+02 -8.78837E+03 -7.58047E+03 -8.78242E+02 -1.03449E+04  5.28323E+03 -7.74951E+03
  7.61797E+03 -2.35890E+03  5.59094E+03  2.35632E+03  1.69910E+03  3.68072E+03  1.04993E+03  1.41692E+03
  2.57995E+03  7.76867E+02  3.33364E+03  1.59160E+03  3.82912E+03  4.43446E+03  3.44082E+03  6.61686E+03
 -2.39142E+03  9.66146E+03 -8.54212E+03  9.89787E+03 -1.26018E+04  3.10604E+03 -1.31969E+04 -5.05027E+03
 -6.33763E+03 -1.25488E+04  1.82800E+03 -1.36034E+04  7.80472E+03 -8.90900E+03  1.01889E+04 -2.37266E+03
  7.64598E+03  4.53100E+03  1.62808E+03  7.22521E+03 -3.48966E+03  4.63380E+03 -4.99430E+03 -6.47740E+02
 -2.66442E+03 -5.37863E+03  3.10521E+03 -5.40565E+03  5.23818E+03 -2.93133E+03  5.13430E+03  9.85628E+02
  2.85466E+03  2.33168E+03  1.04653E+03  1.82246E+03 -7.03799E+02  1.75815E+03  1.73763E+03 -2.01851E+02
  1.75396E+03 -7.27952E+02  5.39398E+03  1.90920E+03  3.06994E+03  6.38515E+03 -1.14829E+03  8.97412E+03
 -5.92790E+03  5.73559E+03 -8.02161E+03  1.68834E+03 -6.82575E+03 -3.03611E+03 -2.79307E+03 -4.86530E+03
  9.42082E+02 -4.82328E+03  3.12006E+03 -2.18669E+03  2.56965E+03  2.64181E+03 -1.33639E+03  3.82290E+03
 -5.20687E+03  2.33866E+03 -5.60858E+03 -2.96147E+03 -3.46418E+03 -6.87822E+03  9.70430E+02 -6.89210E+03
  3.58518E+03 -3.74601E+03  4.69404E+03 -5.47809E+02  3.83069E+03  1.55618E+03  3.64920E+02  3.73199E+03
 -2.00242E+03  1.06474E+03 -2.97533E+03 -2.09913E+03  8.39262E+02 -5.07092E+03  6.15417E+03 -4.24600E+03
  7.18914E+03  3.86179E+02  7.80057E+03  5.25604E+03  2.22219E+03  8.19318E+03 -2.51473E+03  7.79654E+03
 -6.25536E+03  3.01363E+03 -6.91232E+03 -9.40680E+02 -3.71751E+03 -4.94842E+03  1.23074E+03 -5.09354E+03
  4.94047E+03 -2.60865E+03  4.19711E+03  2.05389E+03  1.15697E+03  4.27542E+03 -5.62213E+02  3.73259E+03
 -1.89234E+03  2.69331E+03 -1.69909E+03  5.36772E+02 -7.08308E+02  8.72600E+02 -1.54008E+03  1.74436E+03
 -1.72160E+03  2.50711E+03 -5.16947E+03  2.71031E+03 -7.87449E+03  1.25672E+02 -8.92748E+03 -4.99924E+03
 -4.72628E+03 -1.02882E+04  2.12505E+03 -1.18400E+04  7.05556E+03 -9.37952E+03  1.16168E+04 -3.67167E+03
  1.07184E+04  1.89530E+03  6.20376E+03  6.84910E+03  4.67069E+02  8.20344E+03 -3.06474E+03  5.72120E+03
 -4.22996E+03  2.08565E+03 -2.74325E+03 -6.72696E+02 -1.08080E+03 -9.71336E+02 -6.56282E+02 -1.04626E+02
 -1.94388E+03 -7.61773E+01 -2.20932E+03 -6.14378E+02 -3.87250E+02 -1.78958E+03  3.53966E+01 -3.08681E+03
  3.48181E+03 -2.79051E+03  4.53421E+03  2.16277E+02  5.56834E+03  4.26268E+03  1.52042E+03  7.69327E+03
 -3.69911E+03  8.88695E+03 -8.21972E+03  5.15787E+03 -9.64996E+03 -6.40179E+02 -6.90241E+03 -5.78036E+03
 -3.21788E+03 -7.57386E+03  2.16152E+03 -7.21140E+03  4.73051E+03 -4.00729E+03  4.80537E+03  7.18760E+01
  2.58897E+03  2.61330E+03 -3.11015E+02  1.84341E+03 -1.31947E+03 -1.79727E+02 -1.51887E+02 -1.59446E+03
  2.99512E+03 -1.35220E+03  2.82194E+03  1.14642E+03  1.72723E+03  3.03405E+03  4.14392E+02  3.67471E+03
 -3.12467E+03  3.48185E+03 -4.77893E+03  6.07739E+01 -4.44946E+03 -3.42134E+03 -5.69452E+02 -6.35576E+03
  3.66551E+03 -5.35318E+03  5.43042E+03 -1.37590E+03  5.59765E+03  7.71847E+02  2.91380E+03  4.80405E+03
  7.87284E+02  4.82987E+03 -1.55541E+03  3.91216E+03 -3.21055E+03  2.14075E+03 -2.86545E+03  9.93504E+01
 -1.41357E+03 -1.32223E+02 -1.47868E+03  7.69476E+02 -2.76717E+03  7.29747E+02 -4.01708E+03 -4.87886E+02
 -3.71328E+03 -2.17295E+03 -1.24281E+03 -5.28652E+03  2.99834E+03 -5.84834E+03  4.07269E+03 -2.41229E+03
  5.02803E+03  5.61820E+02  2.05760E+03  3.07585E+03  4.48217E+02  4.93340E+03 -3.47773E+03  3.55951E+03
