 $NMID ID='MM_0lb_SNR800_17hz_g45_47.RAW', FMTDAT='(8E13.5)'
 TRAMP=1., VOLUME=1. $END
  3.09897E+05  4.54783E+02  3.37091E+05  2.50356E+05  8.45194E+04  3.37580E+05 -1.32705E+05  2.50627E+05
 -1.90052E+05  8.28405E+04 -1.11224E+05 -3.26334E+04  1.17610E+03 -5.02735E+04  5.40115E+04  1.62354E+02
  3.51459E+04  5.27107E+04 -1.71043E+04  7.52300E+04 -6.04406E+04  6.26555E+04 -8.32964E+04  3.15239E+04
 -7.99908E+04 -1.11078E+04 -5.61726E+04 -5.04358E+04 -1.48338E+04 -6.84732E+04  2.70267E+04 -4.49358E+04
  3.93129E+04  3.98676E+03  1.55361E+04  4.73244E+04 -3.43464E+04  4.66407E+04 -6.58942E+04 -4.81325E+02
 -5.24389E+04 -5.64019E+04 -6.37277E+03 -7.56403E+04  3.34370E+04 -5.36828E+04  4.66670E+04 -1.64745E+04
  4.21879E+04  1.14546E+04  3.11609E+04  2.49665E+04  1.59396E+04  2.84352E+04 -4.77881E+03  2.69002E+04
 -2.19428E+04  1.30026E+04 -1.91146E+04 -4.15000E+03  4.41343E+03 -7.25518E+03  2.16466E+04  1.12770E+04
  7.32826E+03  3.35509E+04 -3.07945E+04  3.48032E+04 -6.19780E+04  2.08308E+03 -5.58204E+04 -4.15119E+04
 -1.24666E+04 -6.14270E+04  3.87033E+04 -4.36976E+04  5.60275E+04 -2.02174E+03  3.22689E+04  3.10430E+04
 -6.69390E+03  3.36959E+04 -2.89852E+04  1.38948E+04 -2.83748E+04 -5.38007E+03 -1.51102E+04 -1.00164E+04
 -8.05337E+03 -1.17773E+04 -1.06922E+03 -1.71400E+04  6.71989E+03 -2.25774E+04  1.49966E+04 -1.38197E+04
  1.21150E+04  4.48999E+03 -6.68723E+03  1.30277E+04 -1.96240E+04 -3.12211E+03 -7.83568E+03 -3.15148E+04
  2.13038E+04 -4.11513E+04  4.55379E+04 -1.88236E+04  4.27138E+04  1.85485E+04  1.45480E+04  4.22430E+04
 -1.52870E+04  3.18436E+04 -2.37635E+04  1.31802E+03 -8.66015E+03 -2.66267E+04  2.07752E+04 -3.17701E+04
  3.88886E+04 -7.78073E+03  3.24436E+04  2.27922E+04  1.63495E+04  4.31111E+04 -7.67337E+03  4.63798E+04
 -2.92162E+04  3.08663E+04 -3.85546E+04  8.88007E+03 -3.94850E+04 -1.54605E+04 -2.18678E+04 -3.55937E+04
  6.78780E+03 -3.53682E+04  2.97806E+04 -1.31236E+04  2.73604E+04  1.08616E+04  3.11075E+03  1.81898E+04
 -1.34231E+04  7.65953E+03 -9.83989E+03 -7.58678E+03  5.85575E+03 -1.03816E+04  1.74860E+04  6.39951E+03
  1.25098E+04  2.17241E+04 -6.46261E+03  2.37165E+04 -2.13551E+04  9.88397E+03 -2.58815E+04 -5.87312E+03
 -1.77755E+04 -1.68181E+04 -6.46363E+03 -1.76134E+04  3.95397E+03 -1.56771E+04  1.35325E+04 -1.56361E+04
  2.23020E+04 -1.20514E+04  2.93374E+04  1.60420E+03  2.20772E+04  1.73282E+04  4.01158E+03  3.32070E+04
 -1.63458E+04  2.84431E+04 -2.64837E+04  9.38634E+03 -1.97775E+04 -1.03193E+04 -3.95747E+03 -1.39145E+04
  2.38857E+03 -3.61665E+03 -3.39707E+03  5.63480E+03 -1.40824E+04  5.12146E+03 -1.39674E+04 -5.67248E+03
 -8.58464E+03 -1.63524E+04  4.46918E+03 -2.03124E+04  1.32927E+04 -1.45126E+04  1.55272E+04 -1.56592E+03
  9.59288E+03  1.12406E+04 -8.01813E+02  1.64229E+04 -1.09219E+04  9.25810E+03 -1.63830E+04 -3.50555E+03
 -1.22530E+04 -1.47834E+04 -1.48975E+03 -1.97669E+04  8.69234E+03 -1.62028E+04  1.68520E+04 -7.51268E+03
  1.53406E+04  7.25127E+02  1.09769E+04  3.87387E+03  5.42882E+03  5.83524E+02  8.25678E+03 -1.24223E+03
  1.46525E+04  3.08923E+03  1.59306E+04  1.33991E+04  1.03743E+04  2.59793E+04 -3.15737E+03  2.83154E+04
 -1.69155E+04  2.22763E+04 -2.60197E+04  1.05863E+04 -2.69021E+04 -1.83563E+03 -2.26724E+04 -1.55219E+04
 -1.07618E+04 -2.21738E+04  7.53708E+03 -2.03870E+04  1.79404E+04 -1.13211E+04  1.65401E+04  4.11625E+03
  6.59723E+03  1.20375E+04 -7.57961E+03  1.11053E+04 -1.38052E+04  2.64368E+03 -1.08706E+04 -8.44611E+03
 -1.64147E+02 -1.33513E+04  6.64913E+03 -9.97217E+03  8.52235E+03 -1.61386E+03  1.55419E+03  5.47732E+03
 -5.96121E+03  1.84905E+03 -4.50021E+03 -4.82630E+03  1.57847E+02 -1.10987E+04  8.13659E+03 -1.10759E+04
  1.34318E+04 -5.62702E+03  1.34774E+04  2.46251E+03  1.18370E+04  1.03300E+04  5.37348E+03  1.54112E+04
 -2.04779E+03  1.75525E+04 -1.07653E+04  1.12440E+04 -1.24771E+04  2.83867E+03 -9.22083E+03 -2.10030E+03
 -4.59698E+03 -3.63594E+03 -8.49633E+02  1.33843E+03 -2.17961E+03  2.32371E+03 -3.89962E+03  3.77025E+03
 -8.77357E+03 -6.56793E+02 -9.48989E+03 -7.81427E+03 -3.72637E+03 -1.23565E+04  3.83738E+03 -9.35336E+03
  7.72751E+03 -3.96821E+03  5.71279E+03  2.38861E+03  4.41317E+02  3.50963E+03 -3.64363E+03 -1.95597E+02
 -4.02688E+03 -5.90182E+03 -7.46292E+02 -8.08262E+03  4.38108E+03 -8.74439E+03  1.09428E+04 -4.40329E+03
  1.28102E+04  5.80114E+02  9.64037E+03  6.99367E+03  2.13166E+03  9.43388E+03 -5.65006E+03  8.93959E+03
 -7.35125E+03  2.98330E+03 -3.80814E+03 -1.37253E+03  1.64178E+03 -2.31604E+03  5.21692E+03 -1.15826E+03
  4.55661E+03  3.63963E+03  9.93548E+02  6.74728E+03 -4.94402E+03  6.99832E+03 -8.61542E+03  2.08364E+03
 -5.43109E+03 -4.08974E+03 -6.85746E+01 -7.24067E+03  4.24232E+03 -3.47264E+03  4.07178E+03  1.52702E+03
  8.15252E+02  4.17623E+03 -4.41249E+03  5.33476E+03 -5.71186E+03  2.66306E+03 -5.24988E+03 -1.30246E+03
 -3.39031E+03 -6.75152E+03  1.49709E+03 -7.79896E+03  6.87277E+03 -5.35541E+03  7.30304E+03  1.34886E+03
  5.41965E+03  6.20226E+03  9.50525E+01  8.12426E+03 -5.75331E+03  4.63419E+03 -6.09514E+03 -5.29571E+02
 -6.00804E+03 -5.52122E+03 -1.33633E+03 -5.59641E+03  2.78204E+03 -5.35308E+03  3.27887E+03 -3.06579E+03
  3.09095E+03  3.77965E+02  9.64623E+00  1.44091E+03  5.35660E+02 -1.80820E+02  5.84577E+02 -2.51564E+03
  4.67248E+03 -1.09857E+03  6.32433E+03  8.72816E+02  6.26060E+03  3.89865E+03  5.76765E+03  8.22903E+03
 -1.57980E+03  1.00007E+04 -8.77343E+03  7.54449E+03 -1.11763E+04  1.56679E+03 -8.93185E+03 -3.26800E+03
 -4.74520E+03 -7.21606E+03 -5.37788E+02 -6.03066E+03  2.13081E+03 -2.85710E+03  2.27183E+03 -2.54124E+03
  1.39722E+03 -1.75730E+03  2.52155E+03 -2.32602E+03  3.66421E+03 -1.49705E+03  4.04634E+03  7.02246E+01
  5.05232E+03  1.42728E+03  1.51894E+03  3.84589E+03 -1.80395E+03  3.59665E+03 -4.80683E+03  3.25283E+03
 -5.57865E+03 -1.11453E+03 -2.48430E+03 -3.97514E+03  3.17425E+02 -5.83955E+03  3.66935E+03 -6.48021E+03
  6.31088E+03 -3.78873E+03  7.77782E+03  2.93437E+02  5.57001E+03  5.08143E+03  1.11576E+03  7.15141E+03
 -2.70904E+03  6.75974E+03 -4.07852E+03  2.04945E+03 -2.38483E+03 -1.24107E+03 -5.90408E+02 -7.02496E+02
 -7.36706E+02  2.37347E+02 -1.06111E+03  2.13442E+03 -3.01981E+03  1.08808E+03 -4.64881E+03 -6.36273E+02
 -1.95746E+03 -4.75731E+03  7.00689E+02 -5.33850E+03  3.35429E+03 -5.25153E+03  4.43563E+03 -1.49157E+03
  5.10958E+03  2.68329E+03  2.33617E+03  4.21917E+03 -1.02334E+03  4.99015E+03 -3.12839E+03  3.14991E+03
 -4.78526E+03  6.40691E+02 -3.83897E+03 -2.78573E+03 -5.71335E+02 -3.98445E+03  1.96870E+03 -3.28830E+03
  3.50103E+03 -1.27633E+03  2.00286E+03  5.56648E+02  6.64999E+02  1.96531E+03  8.65118E+02  4.30342E+02
  1.72268E+03  5.65404E+02  1.48373E+03  1.13681E+03  1.43931E+03  2.07881E+03  1.76618E+03  1.89301E+03
 -1.26620E+03  3.64624E+03 -3.09981E+03  4.61310E+03 -4.23878E+03  1.08830E+03 -5.12522E+03 -9.42312E+02
 -2.35258E+03 -4.68574E+03  5.72251E+02 -5.67039E+03  2.66416E+03 -3.09950E+03  3.60694E+03 -7.15498E+02
  3.07031E+03  1.91205E+03  6.02206E+02  2.73134E+03 -1.00514E+03  1.68309E+03 -1.56384E+03  1.22142E+02
 -7.20350E+02 -1.92853E+03  1.57007E+03 -2.33075E+03  1.65241E+03 -1.02532E+03  1.68848E+03  3.48964E+02
  8.42986E+02  5.47125E+02  5.26594E+02 -8.61294E+01 -3.55791E+02  6.68558E+02  1.19347E+03 -1.00621E+02
  4.17685E+02 -3.77626E+02  2.33219E+03  5.04818E+02  5.63968E+02  2.74253E+03 -4.82434E+02  3.27541E+03
 -2.43507E+03  1.24497E+03 -2.51761E+03  5.36000E+02 -2.66405E+03 -7.59934E+02 -3.24939E+02 -1.13704E+03
  5.58548E+02 -1.51094E+03  1.07156E+03 -8.10328E+02  7.49519E+02  1.51621E+03 -9.90186E+02  1.64483E+03
 -1.98886E+03  7.70172E+02 -1.82190E+03 -1.49673E+03 -8.90786E+02 -2.42790E+03  1.67587E+02 -1.95190E+03
  8.07498E+02 -5.64597E+02  1.17195E+03  3.00490E+02  1.59252E+03 -2.87033E+02  4.89435E+02  1.35715E+03
 -6.20167E+02  5.50231E+02 -7.75975E+02 -5.48762E+02  7.89991E+02 -1.26833E+03  2.29742E+03 -1.30723E+03
  2.07133E+03  1.09062E+02  3.20673E+03  1.28599E+03  1.19327E+03  2.22756E+03 -6.16372E+02  2.33177E+03
 -1.59457E+03  6.11010E+02 -2.03096E+03 -1.14572E+02 -1.24110E+03 -1.52244E+03  3.56492E+02 -7.52032E+02
  2.13257E+03 -9.10178E+02  9.80245E+02  6.13718E+02  2.91170E+02  1.59101E+03 -2.08447E+02  1.23781E+03
 -7.61149E+02  1.11097E+03 -3.86572E+02  1.50604E+02  2.54908E+01  2.94973E+02 -7.80232E+02  7.42112E+02
 -6.61957E+02  1.31612E+03 -2.18238E+03  6.19577E+02 -2.20306E+03  2.45964E+02 -3.13103E+03 -1.25155E+03
 -1.25680E+03 -3.13183E+03  4.21343E+02 -3.77530E+03  1.76100E+03 -2.92844E+03  3.56767E+03 -1.15175E+03
  3.03096E+03 -2.80452E+01  1.94088E+03  2.25115E+03 -3.91775E+02  1.95893E+03 -6.84804E+02  1.50346E+03
 -1.07381E+03  7.28712E+02 -7.70143E+02 -3.77694E+02  1.40635E+01  5.69287E+01 -6.31186E+02  1.12381E+02
 -1.11552E+03 -1.84689E+02 -9.49999E+02 -1.48011E+01  2.95158E+02 -5.30963E+02 -5.42089E+02 -1.06666E+03
  1.42682E+03 -6.69653E+02  6.40313E+02  1.69477E+02  1.40577E+03  1.16088E+03 -1.23534E+02  2.18431E+03
 -1.09976E+03  2.91310E+03 -1.99901E+03  1.57166E+03 -2.47963E+03  2.70277E+02 -1.66565E+03 -1.62849E+03
 -1.40145E+03 -2.07898E+03  2.86783E+02 -1.67610E+03  1.04265E+03 -8.37327E+02  1.08596E+03  4.42218E+02
  8.79616E+02  5.07355E+02  4.21068E+02  5.87231E+02 -6.26621E+02 -1.89338E+02 -3.79953E+02 -5.54679E+02
  8.24385E+02  1.58586E+02  5.05749E+02  4.43134E+02  4.05702E+02  7.23422E+02  6.60378E+02  1.77590E+02
 -8.70184E+02  9.66816E+02 -9.83885E+02  1.43416E+02 -1.15909E+03 -6.54799E+02 -2.08498E+02 -1.48330E+03
  8.70239E+02 -1.19340E+03  9.95856E+02  5.54991E+01  1.71359E+03 -3.35506E+02  9.26996E+02  8.95505E+02
  6.39061E+02  7.67812E+02 -4.12392E+02  9.09655E+02 -6.32370E+02  6.38587E+02 -7.19345E+02 -4.98166E+01
 -1.50138E+02 -2.53793E+02 -3.50952E+02  3.04486E+02 -7.23065E+02  2.65068E+02 -1.42930E+03 -5.57398E+02
 -1.23142E+03  4.78997E+01 -5.27314E+02 -1.36358E+03  7.38625E+02 -1.81659E+03  1.23565E+03 -5.96304E+02
  1.18584E+03 -2.45237E+02  1.81175E+02  5.25864E+02 -2.91864E+02  1.51034E+03 -7.13495E+02  8.42758E+02
