 $NMID ID='MM_0lb_SNR800_12hz_g50_5.RAW', FMTDAT='(8E13.5)'
 TRAMP=1., VOLUME=1. $END
  3.09866E+05  2.74726E+02  3.37783E+05  2.50515E+05  8.48441E+04  3.38042E+05 -1.32274E+05  2.51339E+05
 -1.90627E+05  8.36042E+04 -1.11931E+05 -3.22290E+04  5.39589E+02 -5.05462E+04  5.37431E+04 -4.14463E+02
  3.52525E+04  5.27210E+04 -1.64402E+04  7.55656E+04 -6.07499E+04  6.42712E+04 -8.47064E+04  3.24285E+04
 -8.18260E+04 -1.18487E+04 -5.79947E+04 -5.17045E+04 -1.48816E+04 -7.03121E+04  2.79713E+04 -4.65732E+04
  4.05182E+04  3.92678E+03  1.62133E+04  4.82931E+04 -3.45350E+04  4.78859E+04 -6.71645E+04 -3.70025E+02
 -5.42527E+04 -5.71530E+04 -7.23865E+03 -7.77161E+04  3.46133E+04 -5.56849E+04  4.87637E+04 -1.76561E+04
  4.43972E+04  1.14401E+04  3.22553E+04  2.59682E+04  1.58505E+04  2.98532E+04 -5.82277E+03  2.71996E+04
 -2.21597E+04  1.26999E+04 -1.81179E+04 -5.41940E+03  6.35580E+03 -7.57698E+03  2.29919E+04  1.28091E+04
  7.21733E+03  3.65683E+04 -3.29039E+04  3.61878E+04 -6.41272E+04  1.96976E+03 -5.80516E+04 -4.34811E+04
 -1.26413E+04 -6.41576E+04  4.00367E+04 -4.62827E+04  5.94762E+04 -2.14545E+03  3.53629E+04  3.30853E+04
 -5.86689E+03  3.75256E+04 -3.04736E+04  1.71919E+04 -3.16724E+04 -4.17071E+03 -1.77950E+04 -1.13738E+04
 -8.86251E+03 -1.36235E+04 -7.85630E+02 -1.90944E+04  7.89382E+03 -2.29537E+04  1.56864E+04 -1.29484E+04
  1.12561E+04  5.81709E+03 -9.14088E+03  1.29614E+04 -2.23229E+04 -5.27675E+03 -8.59026E+03 -3.48896E+04
  2.38233E+04 -4.49992E+04  4.96638E+04 -2.03401E+04  4.63568E+04  2.01270E+04  1.60854E+04  4.52679E+04
 -1.59533E+04  3.45320E+04 -2.64409E+04  2.17758E+03 -1.07474E+04 -2.84264E+04  2.10916E+04 -3.50276E+04
  4.27735E+04 -1.00228E+04  3.76764E+04  2.41876E+04  1.95737E+04  4.80328E+04 -8.28895E+03  5.25576E+04
 -3.33145E+04  3.55952E+04 -4.43834E+04  1.01595E+04 -4.46927E+04 -1.76144E+04 -2.49578E+04 -3.96877E+04
  7.93859E+03 -3.98080E+04  3.28191E+04 -1.56638E+04  3.04954E+04  1.08477E+04  4.58521E+03  1.98804E+04
 -1.35969E+04  8.79541E+03 -1.04077E+04 -7.82615E+03  5.70910E+03 -1.08442E+04  1.81900E+04  5.86783E+03
  1.41066E+04  2.21246E+04 -5.94237E+03  2.60070E+04 -2.26081E+04  1.25279E+04 -2.97422E+04 -3.90437E+03
 -2.25462E+04 -1.76926E+04 -9.45742E+03 -2.20762E+04  4.06086E+03 -2.20668E+04  1.73963E+04 -2.00003E+04
  2.87501E+04 -1.38275E+04  3.48476E+04  3.64970E+03  2.48393E+04  2.20131E+04  4.26028E+03  3.79474E+04
 -1.84069E+04  3.16675E+04 -2.86777E+04  1.10639E+04 -2.14509E+04 -1.03552E+04 -4.47605E+03 -1.31434E+04
  1.68841E+03 -2.18178E+03 -6.31672E+03  7.20060E+03 -1.80689E+04  4.87951E+03 -1.76487E+04 -7.97150E+03
 -1.10061E+04 -2.05621E+04  5.87032E+03 -2.50085E+04  1.66361E+04 -1.80115E+04  2.01460E+04 -1.81648E+03
  1.27518E+04  1.48151E+04 -1.52896E+03  2.06737E+04 -1.47391E+04  1.16543E+04 -2.06631E+04 -4.16010E+03
 -1.51962E+04 -1.88473E+04 -2.13266E+03 -2.50673E+04  1.13683E+04 -2.04902E+04  2.09178E+04 -1.06180E+04
  1.94368E+04 -1.38676E+02  1.39217E+04  4.66949E+03  7.53536E+03  1.16148E+03  1.04288E+04 -1.93447E+03
  1.93178E+04  2.75675E+03  2.16994E+04  1.61791E+04  1.45644E+04  3.28519E+04 -2.88406E+03  3.81579E+04
 -2.21141E+04  3.13801E+04 -3.59288E+04  1.57797E+04 -3.78108E+04 -2.69083E+03 -3.06576E+04 -2.20136E+04
 -1.25808E+04 -3.09985E+04  1.09763E+04 -2.78601E+04  2.38764E+04 -1.39250E+04  2.12985E+04  6.49435E+03
  7.70158E+03  1.59446E+04 -9.78220E+03  1.36865E+04 -1.77423E+04  2.79648E+03 -1.34624E+04 -1.09778E+04
 -2.84450E+02 -1.68923E+04  8.92242E+03 -1.25922E+04  1.14315E+04 -1.61971E+03  2.72660E+03  7.47660E+03
 -7.65672E+03  2.94149E+03 -7.10807E+03 -6.29912E+03 -9.69267E+02 -1.54411E+04  1.07367E+04 -1.60958E+04
  1.90976E+04 -8.75304E+03  2.12791E+04  3.20253E+03  1.85615E+04  1.55882E+04  8.22921E+03  2.35819E+04
 -4.00852E+03  2.55579E+04 -1.66134E+04  1.63335E+04 -1.82522E+04  3.61284E+03 -1.27020E+04 -4.61813E+03
 -5.53933E+03 -5.53871E+03 -8.27083E+02  8.74524E+02 -2.51233E+03  2.91942E+03 -6.30043E+03  4.71635E+03
 -1.22006E+04 -8.21363E+02 -1.28674E+04 -9.79015E+03 -5.24092E+03 -1.66247E+04  5.47030E+03 -1.28865E+04
  1.07234E+04 -5.40705E+03  7.75373E+03  3.60193E+03  3.40830E+00  5.11111E+03 -6.09818E+03 -5.26008E+01
 -6.06730E+03 -8.19203E+03 -1.08226E+03 -1.24712E+04  6.93942E+03 -1.31163E+04  1.63526E+04 -6.86907E+03
  1.88560E+04  1.76072E+03  1.41452E+04  1.13382E+04  2.98973E+03  1.49813E+04 -7.90294E+03  1.27120E+04
 -1.03901E+04  3.74920E+03 -5.68748E+03 -2.42725E+03  1.87444E+03 -3.67127E+03  6.58277E+03 -3.32186E+02
  6.35840E+03  5.68547E+03  1.22769E+03  1.02782E+04 -7.16848E+03  9.66891E+03 -1.25409E+04  2.13593E+03
 -8.58190E+03 -6.53711E+03  2.74476E+02 -1.11642E+04  7.47107E+03 -5.48524E+03  7.28371E+03  2.31578E+03
  1.86495E+03  7.46096E+03 -6.40505E+03  8.74015E+03 -1.01206E+04  4.15802E+03 -1.02935E+04 -3.61103E+03
 -5.94169E+03 -1.18721E+04  3.03056E+03 -1.39329E+04  1.21551E+04 -8.50402E+03  1.28164E+04  1.69144E+03
  7.77569E+03  1.07618E+04 -1.13859E+03  1.26658E+04 -8.89095E+03  7.26085E+03 -9.71201E+03 -1.17624E+03
 -8.67483E+03 -8.31482E+03 -1.55806E+03 -9.14998E+03  4.73803E+03 -7.32910E+03  5.93792E+03 -3.29782E+03
  4.34995E+03  1.15248E+03 -7.33358E+02  1.72707E+03 -4.48803E+02 -2.37428E+03  1.40493E+03 -5.25480E+03
  8.35491E+03 -3.30160E+03  1.19156E+04  1.41195E+03  1.16219E+04  7.90443E+03  7.97851E+03  1.52739E+04
 -3.65192E+03  1.77652E+04 -1.50121E+04  1.31870E+04 -1.95510E+04  2.12914E+03 -1.56697E+04 -6.04523E+03
 -7.52166E+03 -1.28023E+04 -1.88612E+02 -1.09847E+04  4.03189E+03 -5.91105E+03  3.65254E+03 -3.95350E+03
  2.53426E+03 -2.47656E+03  2.97818E+03 -3.43531E+03  4.74297E+03 -2.67191E+03  6.17333E+03 -8.49900E+02
  8.39103E+03  1.87772E+03  4.03406E+03  6.91538E+03 -2.00493E+03  7.77220E+03 -8.25934E+03  6.02930E+03
 -1.04930E+04 -1.25154E+03 -6.21065E+03 -7.30074E+03 -6.11706E+02 -1.15489E+04  6.61047E+03 -1.16702E+04
  1.20743E+04 -6.61020E+03  1.43063E+04  1.56779E+03  1.00827E+04  1.00664E+04  1.37005E+03  1.29221E+04
 -5.42835E+03  1.10454E+04 -7.74024E+03  3.70089E+03 -5.32000E+03 -1.53544E+03 -1.86527E+03 -1.65882E+03
 -8.32597E+02  3.52424E+02 -1.51771E+03  2.62898E+03 -4.64856E+03  1.94029E+03 -7.39024E+03 -8.61235E+02
 -4.52360E+03 -7.36025E+03  5.89767E+02 -1.06141E+04  6.22351E+03 -9.77427E+03  9.97694E+03 -2.94730E+03
  1.01480E+04  4.80441E+03  4.83810E+03  8.56250E+03 -1.88075E+03  1.06236E+04 -7.27193E+03  6.37273E+03
 -9.43581E+03  6.73467E+02 -7.51944E+03 -6.44671E+03 -6.99595E+02 -8.41294E+03  4.50225E+03 -6.44387E+03
  6.15609E+03 -2.12861E+03  4.15904E+03  1.68714E+03  1.68268E+03  3.25481E+03  1.21120E+03  1.45971E+03
  1.97613E+03  6.93500E+02  2.48006E+03  1.52857E+03  2.82033E+03  3.83843E+03  2.89388E+03  5.34357E+03
 -2.03497E+03  8.23959E+03 -6.87697E+03  8.18899E+03 -9.88619E+03  2.33601E+03 -1.08457E+04 -3.83081E+03
 -4.97253E+03 -9.78930E+03  1.46070E+03 -1.12609E+04  5.93676E+03 -7.09179E+03  8.25142E+03 -2.25987E+03
  6.47860E+03  3.67628E+03  1.54514E+03  5.73307E+03 -3.01254E+03  3.65443E+03 -3.88277E+03 -4.58865E+02
 -1.87106E+03 -4.54127E+03  2.45311E+03 -4.60493E+03  3.90767E+03 -2.36660E+03  3.93830E+03  9.97653E+02
  2.12608E+03  1.96524E+03  1.44056E+03  1.13151E+03 -5.52041E+02  1.56124E+03  1.49716E+03 -5.41658E+02
  1.26983E+03 -5.18199E+02  4.35869E+03  1.59876E+03  2.18652E+03  5.44716E+03 -8.41765E+02  7.06586E+03
 -4.61564E+03  4.21555E+03 -6.45091E+03  9.65433E+02 -5.60792E+03 -2.31552E+03 -1.73456E+03 -3.50223E+03
  7.50958E+02 -3.80180E+03  2.49392E+03 -1.91992E+03  2.01362E+03  2.13835E+03 -1.29443E+03  3.21013E+03
 -3.88953E+03  2.08321E+03 -4.40985E+03 -2.64797E+03 -2.47971E+03 -5.50551E+03  5.39153E+02 -5.11554E+03
  2.92028E+03 -2.99155E+03  3.89224E+03 -3.57973E+02  3.45167E+03  1.37212E+03  3.36112E+02  3.03545E+03
 -1.76266E+03  5.86513E+02 -2.55100E+03 -1.52463E+03  9.89200E+02 -3.99073E+03  4.95373E+03 -3.19405E+03
  5.58653E+03  6.82885E+02  6.23705E+03  3.77396E+03  1.84035E+03  6.17277E+03 -2.24771E+03  5.86541E+03
 -4.83229E+03  2.35699E+03 -4.96393E+03 -7.96179E+02 -2.93327E+03 -4.09927E+03  1.14274E+03 -3.64697E+03
  4.13136E+03 -1.76743E+03  3.28134E+03  1.86441E+03  1.06499E+03  3.66215E+03 -2.30873E+02  3.01972E+03
 -1.58028E+03  2.47116E+03 -1.55354E+03  6.69518E+02 -6.94943E+02  6.37891E+02 -1.47946E+03  1.48285E+03
 -1.59754E+03  2.84400E+03 -4.04427E+03  2.30948E+03 -6.02525E+03  2.87128E+02 -7.03545E+03 -4.14584E+03
 -3.46468E+03 -7.72778E+03  1.63972E+03 -9.27640E+03  5.36546E+03 -7.33921E+03  8.84325E+03 -2.93639E+03
  8.03409E+03  1.19825E+03  5.01119E+03  5.48937E+03  4.54392E+02  5.55666E+03 -2.29349E+03  4.45844E+03
 -3.31553E+03  1.63364E+03 -1.90766E+03 -8.80371E+02 -5.89812E+02 -5.32265E+02 -7.34059E+02 -2.71242E+02
 -1.10601E+03 -2.21070E+01 -1.69597E+03 -9.21818E+01 -1.29896E+02 -1.47904E+03  1.59115E+02 -2.41409E+03
  3.06642E+03 -2.07011E+03  3.35801E+03 -1.82417E+02  4.28206E+03  3.29792E+03  8.91342E+02  5.82501E+03
 -2.87078E+03  6.98334E+03 -6.38380E+03  4.22590E+03 -6.58036E+03 -2.51944E+02 -5.31518E+03 -4.28315E+03
 -2.21087E+03 -5.99746E+03  1.67598E+03 -5.70885E+03  3.49419E+03 -2.91157E+03  3.64753E+03  6.75744E+01
  2.27919E+03  1.63580E+03  2.48636E+02  1.54580E+03 -1.19065E+03 -1.54528E+02 -1.80518E+02 -1.55895E+03
  2.07429E+03 -5.64655E+02  2.11085E+03  5.63812E+02  1.17644E+03  2.18046E+03 -6.87102E+01  2.89207E+03
 -2.63463E+03  2.63920E+03 -3.39380E+03  6.88471E+02 -3.60072E+03 -2.75223E+03 -3.72979E+02 -4.74469E+03
  2.60957E+03 -4.03235E+03  4.38116E+03 -8.43689E+02  4.15782E+03  5.19089E+02  2.61627E+03  3.32761E+03
  4.17221E+02  3.87917E+03 -1.36881E+03  3.10646E+03 -2.30633E+03  1.94084E+03 -2.06007E+03  3.11617E+02
 -1.09206E+03 -5.45164E+02 -1.29446E+03  5.95079E+02 -2.09126E+03  3.36744E+02 -3.01360E+03 -7.34998E+02
 -3.21959E+03 -1.62234E+03 -9.45124E+02 -4.11736E+03  1.78927E+03 -4.49511E+03  3.24506E+03 -1.96884E+03
  3.46764E+03  3.23875E+02  1.54703E+03  2.33069E+03 -2.58492E+02  3.80924E+03 -2.62382E+03  2.66554E+03
