 $NMID ID='MM_0lb_SNR800_15hz_g55_29.RAW', FMTDAT='(8E13.5)'
 TRAMP=1., VOLUME=1. $END
  3.10016E+05  2.51756E+02  3.37609E+05  2.50696E+05  8.45005E+04  3.37806E+05 -1.32481E+05  2.50988E+05
 -1.90512E+05  8.33897E+04 -1.11718E+05 -3.25797E+04  6.75354E+02 -5.07002E+04  5.37851E+04 -5.17555E+00
  3.55620E+04  5.28428E+04 -1.69101E+04  7.55889E+04 -6.07556E+04  6.35620E+04 -8.42405E+04  3.21764E+04
 -8.09589E+04 -1.14561E+04 -5.72707E+04 -5.14806E+04 -1.51315E+04 -6.99987E+04  2.77990E+04 -4.57426E+04
  4.01538E+04  3.78611E+03  1.63202E+04  4.79219E+04 -3.45206E+04  4.69790E+04 -6.66024E+04 -1.03491E+02
 -5.35094E+04 -5.70490E+04 -6.94671E+03 -7.71424E+04  3.38637E+04 -5.51908E+04  4.79438E+04 -1.72737E+04
  4.32131E+04  1.14811E+04  3.16038E+04  2.56878E+04  1.59736E+04  2.90777E+04 -5.51384E+03  2.71872E+04
 -2.21984E+04  1.25014E+04 -1.85388E+04 -5.08197E+03  5.79961E+03 -7.31825E+03  2.23932E+04  1.25508E+04
  7.27073E+03  3.52136E+04 -3.20701E+04  3.55844E+04 -6.34129E+04  2.12695E+03 -5.73686E+04 -4.28368E+04
 -1.25253E+04 -6.34064E+04  3.96896E+04 -4.51819E+04  5.80810E+04 -2.20728E+03  3.41166E+04  3.21560E+04
 -5.88934E+03  3.60895E+04 -3.01349E+04  1.59611E+04 -3.02359E+04 -4.43595E+03 -1.68223E+04 -1.08060E+04
 -8.37148E+03 -1.33216E+04 -7.23507E+02 -1.81856E+04  7.43217E+03 -2.32506E+04  1.50886E+04 -1.33781E+04
  1.11526E+04  5.29779E+03 -8.35130E+03  1.29762E+04 -2.13229E+04 -4.43633E+03 -8.43761E+03 -3.38897E+04
  2.31955E+04 -4.32842E+04  4.80206E+04 -1.95501E+04  4.51762E+04  1.93234E+04  1.57254E+04  4.40363E+04
 -1.61754E+04  3.31357E+04 -2.54808E+04  1.98077E+03 -9.91903E+03 -2.80409E+04  2.13047E+04 -3.38870E+04
  4.11217E+04 -9.34666E+03  3.55479E+04  2.35713E+04  1.84896E+04  4.65057E+04 -7.91946E+03  5.02252E+04
 -3.16744E+04  3.40320E+04 -4.18846E+04  9.36384E+03 -4.25895E+04 -1.63292E+04 -2.37573E+04 -3.82018E+04
  7.20401E+03 -3.75987E+04  3.15537E+04 -1.45073E+04  2.88649E+04  1.08970E+04  3.90817E+03  1.95423E+04
 -1.36241E+04  8.42295E+03 -1.02007E+04 -7.67270E+03  5.86613E+03 -1.09802E+04  1.81423E+04  6.01753E+03
  1.33951E+04  2.20597E+04 -5.73844E+03  2.50193E+04 -2.19502E+04  1.16224E+04 -2.78591E+04 -4.82374E+03
 -2.07168E+04 -1.73170E+04 -8.23110E+03 -2.01314E+04  3.84392E+03 -1.95551E+04  1.59782E+04 -1.84067E+04
  2.60916E+04 -1.25302E+04  3.20180E+04  2.72845E+03  2.38039E+04  1.99272E+04  4.09041E+03  3.66412E+04
 -1.76160E+04  3.04200E+04 -2.77943E+04  1.03654E+04 -2.07318E+04 -1.03757E+04 -4.23203E+03 -1.36499E+04
  1.65076E+03 -2.88870E+03 -4.74332E+03  6.60446E+03 -1.63275E+04  4.92977E+03 -1.63817E+04 -6.88137E+03
 -9.60327E+03 -1.83496E+04  5.18848E+03 -2.28834E+04  1.52276E+04 -1.66974E+04  1.79711E+04 -1.68537E+03
  1.14161E+04  1.30668E+04 -1.05329E+03  1.91823E+04 -1.32317E+04  1.07142E+04 -1.88209E+04 -3.98529E+03
 -1.41548E+04 -1.67029E+04 -1.85648E+03 -2.29251E+04  1.02183E+04 -1.84794E+04  1.91110E+04 -9.05600E+03
  1.77555E+04  4.96404E+02  1.28980E+04  4.20001E+03  6.88670E+03  8.65931E+02  9.52433E+03 -1.52846E+03
  1.73635E+04  2.65669E+03  1.89758E+04  1.48472E+04  1.25385E+04  2.99508E+04 -3.09043E+03  3.38543E+04
 -1.95614E+04  2.70108E+04 -3.14482E+04  1.34133E+04 -3.32894E+04 -2.45835E+03 -2.75178E+04 -1.89876E+04
 -1.17922E+04 -2.71546E+04  9.17675E+03 -2.45974E+04  2.08266E+04 -1.25623E+04  1.88692E+04  5.30858E+03
  7.30379E+03  1.44495E+04 -8.82502E+03  1.25010E+04 -1.57186E+04  2.33647E+03 -1.20323E+04 -9.82513E+03
 -8.03944E+01 -1.51100E+04  7.79796E+03 -1.12867E+04  9.80676E+03 -1.21023E+03  2.42377E+03  6.50858E+03
 -6.48896E+03  2.44826E+03 -5.74312E+03 -5.22369E+03 -4.75933E+02 -1.33295E+04  9.55886E+03 -1.36798E+04
  1.65380E+04 -7.08432E+03  1.71746E+04  2.84165E+03  1.50719E+04  1.28880E+04  6.89271E+03  1.99269E+04
 -3.06983E+03  2.18804E+04 -1.35086E+04  1.35748E+04 -1.53986E+04  3.45088E+03 -1.09049E+04 -3.75954E+03
 -5.18867E+03 -4.83535E+03 -7.46281E+02  1.32194E+03 -2.20920E+03  2.44731E+03 -4.72764E+03  4.09954E+03
 -1.03458E+04 -6.91022E+02 -1.10401E+04 -8.72824E+03 -4.31562E+03 -1.46851E+04  4.93776E+03 -1.12563E+04
  9.18920E+03 -4.53392E+03  6.85468E+03  3.01054E+03  4.78390E+02  4.43527E+03 -4.64790E+03 -1.72167E+02
 -4.68675E+03 -7.24438E+03 -9.12505E+02 -1.01662E+04  5.99630E+03 -1.09457E+04  1.38569E+04 -5.74545E+03
  1.58900E+04  1.44338E+03  1.15966E+04  8.76094E+03  2.33239E+03  1.23695E+04 -6.87028E+03  1.05380E+04
 -8.94494E+03  3.32195E+03 -4.67584E+03 -2.08681E+03  1.52983E+03 -2.98964E+03  5.75951E+03 -1.20800E+03
  5.41780E+03  4.81504E+03  1.15325E+03  8.67910E+03 -5.74771E+03  8.53472E+03 -1.08015E+04  1.85743E+03
 -7.01188E+03 -5.10981E+03  5.04455E+02 -9.12517E+03  5.50523E+03 -4.57522E+03  5.31996E+03  1.68654E+03
  1.08624E+03  5.48042E+03 -5.48039E+03  6.77613E+03 -7.62264E+03  3.27991E+03 -7.91060E+03 -2.18929E+03
 -4.49168E+03 -9.31493E+03  1.82549E+03 -1.07343E+04  9.06393E+03 -6.62789E+03  1.00580E+04  1.80519E+03
  6.46242E+03  7.91035E+03 -5.25008E+02  1.01808E+04 -7.18056E+03  5.50950E+03 -7.74782E+03 -4.70970E+02
 -7.40079E+03 -6.82872E+03 -1.35871E+03 -7.12522E+03  3.92150E+03 -6.47087E+03  4.66704E+03 -3.18913E+03
  3.65863E+03  6.37056E+02 -5.72342E+01  1.28817E+03 -1.77014E+02 -1.43272E+03  5.97466E+02 -3.31627E+03
  6.21064E+03 -1.94158E+03  8.74231E+03  1.38152E+03  8.52170E+03  5.66902E+03  6.77621E+03  1.15048E+04
 -2.27983E+03  1.32699E+04 -1.15659E+04  1.00589E+04 -1.46866E+04  1.80821E+03 -1.20018E+04 -4.63770E+03
 -6.12961E+03 -9.89653E+03 -3.58767E+02 -8.29344E+03  2.87261E+03 -4.08457E+03  2.84033E+03 -3.07518E+03
  2.10859E+03 -2.20246E+03  2.93976E+03 -2.72312E+03  4.13421E+03 -2.22135E+03  5.06263E+03 -1.89260E+02
  6.26342E+03  1.60056E+03  2.62349E+03  5.27701E+03 -1.92653E+03  5.07988E+03 -6.29287E+03  4.26444E+03
 -7.73124E+03 -1.34414E+03 -3.92383E+03 -5.15418E+03 -1.04474E+02 -8.17658E+03  4.80951E+03 -8.46192E+03
  8.53496E+03 -4.70018E+03  1.05245E+04  8.55689E+02  7.52040E+03  6.91367E+03  1.27662E+03  9.29372E+03
 -3.70179E+03  8.63307E+03 -5.72624E+03  2.60845E+03 -3.35257E+03 -1.58826E+03 -1.16050E+03 -1.31904E+03
 -1.02026E+03  3.96642E+02 -1.17249E+03  2.05667E+03 -3.59402E+03  1.41378E+03 -5.89118E+03 -6.32719E+02
 -3.40551E+03 -5.64956E+03  6.26826E+02 -7.45019E+03  4.42525E+03 -6.98999E+03  6.74545E+03 -2.41894E+03
  6.91679E+03  3.73042E+03  3.24247E+03  6.13492E+03 -1.33199E+03  7.32961E+03 -4.73305E+03  4.45482E+03
 -6.59560E+03  7.87053E+02 -5.34680E+03 -4.41022E+03 -2.92242E+02 -5.75943E+03  2.79245E+03 -4.23030E+03
  4.65150E+03 -1.95060E+03  3.07314E+03  1.12488E+03  9.23793E+02  2.40343E+03  8.20011E+02  1.00555E+03
  1.85043E+03  4.24139E+02  1.68852E+03  1.51479E+03  2.02408E+03  2.98066E+03  1.98560E+03  3.25301E+03
 -1.71515E+03  5.46295E+03 -4.58785E+03  5.97266E+03 -6.29232E+03  1.87818E+03 -7.34323E+03 -1.95253E+03
 -3.23903E+03 -6.84697E+03  9.92393E+02 -7.99646E+03  3.83452E+03 -4.97066E+03  5.20257E+03 -1.09432E+03
  4.40348E+03  2.77733E+03  7.93210E+02  3.91136E+03 -1.82678E+03  2.44202E+03 -2.57627E+03 -3.52727E+02
 -1.26183E+03 -2.55237E+03  1.45756E+03 -2.75109E+03  2.58707E+03 -1.46660E+03  2.71090E+03  7.16202E+02
  1.43384E+03  1.15354E+03  9.47852E+02  5.31096E+02 -2.98177E+02  1.21949E+03  1.66435E+03 -4.30594E+02
  6.75348E+02 -3.46478E+02  2.98760E+03  1.15077E+03  1.10220E+03  3.67186E+03 -6.09981E+02  4.68562E+03
 -3.05117E+03  2.49458E+03 -3.74729E+03  8.42654E+02 -3.68135E+03 -1.23361E+03 -9.39223E+02 -2.09512E+03
  5.49610E+02 -2.85499E+03  1.71675E+03 -1.02566E+03  1.50742E+03  1.81731E+03 -1.00616E+03  1.98009E+03
 -2.33930E+03  1.51570E+03 -2.93395E+03 -1.74020E+03 -1.33137E+03 -3.53187E+03  4.49536E+02 -3.52052E+03
  1.68116E+03 -1.70277E+03  1.95557E+03 -3.38316E+01  2.21500E+03  4.20861E+02  3.64410E+02  2.01403E+03
 -1.21738E+03  5.06710E+02 -1.36131E+03 -9.29125E+02  1.02045E+03 -2.30469E+03  3.16177E+03 -1.86486E+03
  3.28637E+03  4.49326E+02  4.25242E+03  2.08936E+03  1.40243E+03  3.42822E+03 -8.28777E+02  3.61644E+03
 -2.90745E+03  1.28962E+03 -2.97006E+03 -3.82548E+02 -1.59596E+03 -2.58276E+03  5.83600E+02 -1.89362E+03
  2.74067E+03 -1.26299E+03  1.93058E+03  1.07163E+03  6.04200E+02  2.33223E+03  1.79991E+02  1.81885E+03
 -8.12751E+02  1.56626E+03 -9.74231E+02  2.71319E+02 -3.74695E+02  3.11547E+02 -8.72893E+02  8.09865E+02
 -1.01716E+03  1.76163E+03 -2.77341E+03  6.70038E+02 -3.32272E+03  3.42807E+02 -4.39083E+03 -2.07788E+03
 -2.26468E+03 -4.57703E+03  8.21831E+02 -5.73576E+03  2.79012E+03 -4.38516E+03  5.31306E+03 -1.40232E+03
  4.85583E+03  6.24659E+02  2.89319E+03  3.30153E+03 -4.30202E+02  3.37485E+03 -1.26150E+03  2.58106E+03
 -2.03178E+03  1.01897E+03 -8.77079E+02 -4.12148E+02 -3.61623E+02  1.02878E+02 -8.71685E+02 -1.05592E+02
 -1.32933E+03 -1.72569E+02 -1.14530E+03  3.49213E+00 -2.53889E+02 -9.63024E+02 -2.48934E+02 -9.16982E+02
  1.78954E+03 -1.14236E+03  1.65857E+03  2.15633E+01  2.24490E+03  1.59823E+03  6.32284E+01  3.27200E+03
 -1.67850E+03  3.91572E+03 -3.22484E+03  2.04521E+03 -4.24356E+03 -2.89642E+02 -2.59349E+03 -2.45638E+03
 -1.49524E+03 -2.88732E+03  6.08390E+02 -2.68839E+03  1.86259E+03 -1.33222E+03  1.89458E+03  1.43270E+02
  1.14123E+03  6.38070E+02  2.84272E+02  7.17749E+02 -4.36660E+02  5.44509E+01  1.77970E+02 -7.06692E+02
  1.30398E+03 -5.28173E+01  8.16138E+02  5.18793E+02  4.72692E+02  1.06111E+03  3.79364E+02  1.46209E+03
 -1.01580E+03  1.43914E+03 -2.08822E+03  6.74839E+01 -1.84570E+03 -1.29762E+03 -7.00694E+01 -2.91955E+03
  1.45930E+03 -1.90302E+03  1.82366E+03 -1.32156E+02  2.21556E+03  8.94274E+01  1.21792E+03  1.61553E+03
  5.33244E+02  1.65766E+03 -6.40799E+02  1.52500E+03 -1.46211E+03  7.68272E+02 -6.47620E+02  3.15460E+02
 -5.15167E+02  7.99695E+01 -8.74514E+02  5.61185E+02 -1.25168E+03  4.92390E+02 -1.49992E+03 -3.88188E+02
 -1.64696E+03 -2.36660E+02 -5.17690E+02 -2.04873E+03  1.09701E+03 -2.35046E+03  1.89220E+03 -9.85775E+02
  1.72626E+03  9.59145E+01  4.29448E+02  9.67917E+02 -2.03484E+02  1.46011E+03 -1.52964E+03  1.68385E+03
