 $NMID ID='MM_0lb_SNR800_20hz_g60_11.RAW', FMTDAT='(8E13.5)'
 TRAMP=1., VOLUME=1. $END
  3.09858E+05  2.80214E+02  3.37414E+05  2.50708E+05  8.43755E+04  3.37241E+05 -1.32468E+05  2.50590E+05
 -1.89680E+05  8.26822E+04 -1.11355E+05 -3.27421E+04  1.09706E+03 -5.03742E+04  5.38428E+04 -1.42238E+01
  3.52915E+04  5.28416E+04 -1.68900E+04  7.52511E+04 -6.06046E+04  6.33173E+04 -8.36642E+04  3.19580E+04
 -8.01538E+04 -1.13522E+04 -5.68720E+04 -5.05500E+04 -1.48326E+04 -6.89105E+04  2.67611E+04 -4.49468E+04
  3.93191E+04  3.83900E+03  1.57175E+04  4.72437E+04 -3.40194E+04  4.64799E+04 -6.59016E+04 -4.59954E+02
 -5.24845E+04 -5.64615E+04 -6.58196E+03 -7.57384E+04  3.35302E+04 -5.40907E+04  4.70847E+04 -1.66260E+04
  4.22680E+04  1.09182E+04  3.12053E+04  2.47829E+04  1.55485E+04  2.88129E+04 -4.60373E+03  2.70210E+04
 -2.14226E+04  1.28147E+04 -1.88919E+04 -4.42736E+03  4.63964E+03 -7.37493E+03  2.15632E+04  1.16352E+04
  7.42912E+03  3.39142E+04 -3.12519E+04  3.45854E+04 -6.18674E+04  2.17261E+03 -5.59028E+04 -4.18420E+04
 -1.25299E+04 -6.15998E+04  3.87356E+04 -4.39542E+04  5.61193E+04 -1.97845E+03  3.24063E+04  3.12757E+04
 -6.33647E+03  3.42287E+04 -2.89651E+04  1.42400E+04 -2.86393E+04 -5.15914E+03 -1.53208E+04 -1.03323E+04
 -7.69835E+03 -1.19419E+04 -1.03611E+03 -1.71457E+04  6.73179E+03 -2.27314E+04  1.48834E+04 -1.36227E+04
  1.22401E+04  4.45943E+03 -6.85075E+03  1.30654E+04 -1.97905E+04 -2.80270E+03 -8.14726E+03 -3.11201E+04
  2.13014E+04 -4.13252E+04  4.55544E+04 -1.88912E+04  4.31318E+04  1.87338E+04  1.48316E+04  4.21372E+04
 -1.53819E+04  3.17339E+04 -2.39858E+04  9.75454E+02 -8.59640E+03 -2.66717E+04  2.05819E+04 -3.19017E+04
  3.86297E+04 -7.69239E+03  3.24779E+04  2.30333E+04  1.59578E+04  4.35362E+04 -7.80360E+03  4.63060E+04
 -2.92166E+04  3.07837E+04 -3.86855E+04  8.98308E+03 -3.91792E+04 -1.54723E+04 -2.20267E+04 -3.52645E+04
  6.94961E+03 -3.49496E+04  2.95449E+04 -1.32509E+04  2.74612E+04  1.06644E+04  3.31775E+03  1.79890E+04
 -1.31322E+04  7.56239E+03 -9.68570E+03 -7.60538E+03  5.66755E+03 -1.00793E+04  1.71714E+04  6.27596E+03
  1.26039E+04  2.15703E+04 -6.32705E+03  2.36894E+04 -2.14311E+04  9.63628E+03 -2.54372E+04 -5.80972E+03
 -1.71349E+04 -1.67157E+04 -6.10951E+03 -1.72899E+04  3.86705E+03 -1.53446E+04  1.30472E+04 -1.51364E+04
  2.20882E+04 -1.19218E+04  2.89188E+04  1.03151E+03  2.16122E+04  1.68281E+04  4.04734E+03  3.31866E+04
 -1.63941E+04  2.80752E+04 -2.63316E+04  9.57849E+03 -1.97177E+04 -1.06275E+04 -3.95623E+03 -1.38959E+04
  2.67265E+03 -3.90715E+03 -3.01034E+03  5.51577E+03 -1.31894E+04  5.10207E+03 -1.36815E+04 -5.24263E+03
 -8.72615E+03 -1.58945E+04  4.71650E+03 -1.98303E+04  1.30193E+04 -1.41449E+04  1.49032E+04 -1.61044E+03
  9.31922E+03  1.09808E+04 -7.47338E+02  1.60899E+04 -1.04400E+04  8.83712E+03 -1.56917E+04 -3.24626E+03
 -1.17756E+04 -1.45010E+04 -1.31374E+03 -1.93912E+04  8.50086E+03 -1.54562E+04  1.60688E+04 -7.35834E+03
  1.46300E+04  5.39221E+02  1.06536E+04  3.89494E+03  5.32834E+03  4.08942E+02  7.83090E+03 -1.40435E+03
  1.41211E+04  2.71776E+03  1.48587E+04  1.28867E+04  9.26745E+03  2.50079E+04 -3.19775E+03  2.72386E+04
 -1.59083E+04  2.09080E+04 -2.46513E+04  9.72276E+03 -2.54191E+04 -2.04179E+03 -2.15341E+04 -1.45145E+04
 -1.04216E+04 -2.04483E+04  6.87402E+03 -1.94619E+04  1.68376E+04 -1.07783E+04  1.58225E+04  3.47059E+03
  6.38276E+03  1.10380E+04 -7.10732E+03  1.05982E+04 -1.33378E+04  2.73146E+03 -1.01800E+04 -7.97107E+03
  1.42229E+01 -1.25962E+04  6.18158E+03 -9.34968E+03  7.87138E+03 -1.48360E+03  1.53214E+03  4.81553E+03
 -5.58656E+03  1.54876E+03 -3.63500E+03 -4.66107E+03  6.04280E+02 -1.01019E+04  7.57060E+03 -1.01413E+04
  1.23219E+04 -4.56890E+03  1.20159E+04  2.99254E+03  1.03631E+04  9.61077E+03  4.76301E+03  1.38169E+04
 -1.56577E+03  1.54450E+04 -9.34348E+03  9.82519E+03 -1.11472E+04  3.15937E+03 -8.38130E+03 -1.97368E+03
 -4.42712E+03 -3.06980E+03 -8.68979E+02  1.28399E+03 -2.19753E+03  1.90132E+03 -3.73448E+03  3.51691E+03
 -7.71542E+03 -5.58330E+02 -8.64378E+03 -6.93885E+03 -3.56892E+03 -1.14610E+04  3.49414E+03 -8.41914E+03
  7.19253E+03 -3.72322E+03  5.17055E+03  2.08140E+03  5.48025E+02  2.94441E+03 -3.21540E+03 -9.17290E+01
 -3.07734E+03 -5.26346E+03 -7.74584E+02 -7.01413E+03  3.96637E+03 -7.72076E+03  9.66954E+03 -4.17397E+03
  1.12161E+04  5.24938E+02  8.67169E+03  5.83989E+03  1.79769E+03  8.56922E+03 -5.02365E+03  8.08740E+03
 -6.87984E+03  2.87239E+03 -3.36302E+03 -1.08278E+03  1.19406E+03 -1.80362E+03  4.79529E+03 -9.23849E+02
  3.95031E+03  3.05407E+03  6.75087E+02  6.00848E+03 -4.33560E+03  6.18340E+03 -7.69914E+03  1.63841E+03
 -4.71585E+03 -3.38958E+03  4.48234E+02 -6.50256E+03  3.47735E+03 -3.36614E+03  3.41137E+03  8.61316E+02
  2.95370E+02  2.92363E+03 -3.99112E+03  4.30522E+03 -4.62344E+03  2.47899E+03 -4.17344E+03 -1.03522E+03
 -2.40660E+03 -5.54805E+03  9.70349E+02 -6.40304E+03  5.53820E+03 -4.06587E+03  5.94110E+03  7.21292E+02
  4.33873E+03  4.83229E+03  1.14814E+02  6.70748E+03 -4.88008E+03  3.95785E+03 -4.98521E+03 -3.21142E+02
 -5.43885E+03 -4.80175E+03 -1.48941E+03 -4.54779E+03  2.52986E+03 -4.29761E+03  2.69457E+03 -2.95907E+03
  2.78008E+03  3.77220E+01  1.54016E+02  1.26708E+03  7.20282E+02 -8.41620E+01  5.36606E+01 -1.49937E+03
  3.60168E+03 -6.79675E+02  4.79541E+03  6.77443E+02  5.08982E+03  2.74564E+03  4.90175E+03  6.37355E+03
 -8.92584E+02  7.55668E+03 -6.97456E+03  5.82627E+03 -8.60847E+03  1.03786E+03 -7.01283E+03 -2.29145E+03
 -3.86308E+03 -5.89381E+03 -4.18107E+02 -5.02058E+03  2.21929E+03 -1.65945E+03  1.56825E+03 -2.00863E+03
  1.11540E+03 -1.19445E+03  1.70412E+03 -2.30279E+03  3.29366E+03 -1.39156E+03  3.36833E+03  5.39389E+02
  4.24081E+03  1.36342E+03  8.10276E+02  2.96882E+03 -1.37758E+03  2.36045E+03 -4.05109E+03  2.47859E+03
 -4.33610E+03 -1.13254E+03 -1.49022E+03 -2.98773E+03  5.86329E+02 -4.42675E+03  3.05447E+03 -4.34445E+03
  4.38518E+03 -2.83184E+03  6.26419E+03 -3.29802E+01  4.50381E+03  3.61565E+03  9.62847E+02  5.25691E+03
 -1.99118E+03  5.29756E+03 -2.70741E+03  1.58702E+03 -1.55231E+03 -1.04146E+03 -2.10389E+02 -3.84993E+02
 -2.23226E+02  4.40012E+02 -9.54214E+02  2.15756E+03 -2.27289E+03  1.02419E+03 -3.35792E+03 -4.59871E+02
 -1.14637E+03 -3.47113E+03  7.67312E+02 -4.23606E+03  2.38476E+03 -3.47968E+03  2.93632E+03 -7.57596E+02
  3.21885E+03  2.15036E+03  1.62145E+03  2.71646E+03 -8.11730E+02  3.93205E+03 -1.97196E+03  2.10016E+03
 -3.28926E+03  4.45228E+02 -3.00855E+03 -2.03052E+03 -1.83908E+02 -2.54456E+03  1.20626E+03 -2.03188E+03
  2.01407E+03 -1.09107E+03  1.33326E+03  3.38109E+02  4.02765E+02  1.87999E+03  9.24991E+02  3.65196E+02
  1.81102E+03  1.87663E+02  7.59683E+02  1.03714E+03  7.86698E+02  2.32535E+03  1.04333E+03  1.33052E+03
 -1.22419E+03  2.58571E+03 -1.92059E+03  3.46617E+03 -2.11189E+03  1.30704E+03 -3.10008E+03  4.26855E+01
 -1.19580E+03 -2.99421E+03  2.95666E+02 -3.64298E+03  1.46000E+03 -2.00673E+03  2.37157E+03 -9.21137E+02
  1.89197E+03  1.54369E+03  2.27014E+02  1.82482E+03 -5.47127E+02  8.91259E+02 -7.25470E+02 -1.03425E+02
 -5.59751E+02 -1.08155E+03  1.16198E+03 -1.14321E+03  8.18753E+02 -7.96842E+02  8.49042E+02  4.31624E+02
  5.74343E+02 -6.46921E+01  7.61282E+02 -3.83901E+02 -2.44603E+02  3.57068E+02  1.61342E+03 -1.28579E+02
 -3.33173E+02 -3.43134E+02  1.55507E+03  4.29542E+02 -9.19071E+01  1.88223E+03 -2.35192E+02  2.45094E+03
 -1.48311E+03  6.69585E+02 -1.46157E+03  1.81024E+02 -1.61347E+03 -5.18122E+02  1.35014E+02 -6.56943E+02
  1.59528E+02 -8.30685E+02  6.77575E+02 -5.95103E+02  6.24190E+02  1.13728E+03 -8.25404E+02  6.32206E+02
 -1.28964E+03  5.88601E+02 -6.92151E+02 -9.54695E+02 -4.19102E+02 -1.82381E+03 -8.88364E+01 -9.42526E+02
 -2.68708E+01 -3.22225E+02  4.53714E+02  4.76693E+02  8.81230E+02 -1.65084E+02  1.44577E+02  6.35389E+02
 -5.86743E+01 -2.57692E+02 -4.40875E+02  4.70799E+01  4.97106E+02 -4.74986E+02  1.47083E+03 -2.72596E+02
  8.61721E+02  1.79057E+02  2.34019E+03  1.78728E+02  1.06213E+03  7.36101E+02  5.96920E+01  1.15542E+03
 -6.99572E+02  7.48135E+01 -8.89116E+02 -7.37364E+01 -5.98637E+02 -1.22801E+03  4.15002E+02 -2.31271E+02
  1.31951E+03 -2.95931E+02  4.05752E+02  2.09212E+02 -6.20007E+01  1.07898E+03  3.07642E+02  1.08147E+03
 -3.59389E+02  8.25666E+02 -4.21704E+02  6.01883E+01  2.60118E+02  4.60588E+02 -6.36491E+02  3.81984E+02
 -5.94629E+02  6.87805E+02 -1.56338E+03  1.78727E+02 -1.41855E+03  3.59792E+02 -1.86636E+03 -7.32007E+02
 -1.01566E+03 -1.39856E+03  3.57374E+02 -2.05143E+03  4.23607E+02 -1.64057E+03  1.74769E+03 -7.92616E+02
  1.60669E+03 -2.48157E+02  7.81296E+02  1.11564E+03 -6.66011E+02  9.80762E+02 -5.91350E+02  7.45182E+02
 -5.44356E+02  7.06391E+02 -4.27748E+02 -2.01452E+02 -1.39177E+02  3.57211E+02 -5.86931E+02  2.02155E+02
 -7.95520E+02  9.11398E+01 -8.27882E+02 -9.09258E+01  3.71504E+02 -5.07382E+02 -3.21956E+02 -4.55392E+02
  1.18843E+03 -5.44404E+02  3.68355E+01  1.29715E+02  5.65210E+02  7.70618E+02 -6.68932E+02  6.03535E+02
 -9.13696E+02  1.74232E+03 -8.60045E+02  1.01868E+03 -7.25446E+02 -3.45187E+02 -7.09885E+02 -8.68378E+02
 -7.23454E+02 -6.62241E+02  2.96980E+02 -5.92301E+02 -1.69649E+01 -3.07014E+02  2.78547E+02  1.21516E+02
  3.83487E+02  4.69063E+02  5.35325E+01  3.43600E+02 -3.86462E+02 -1.93381E+00  1.50603E+01 -1.48085E+02
  3.88391E+02  1.81716E+02  1.68401E+02  2.50099E+02 -1.48247E+01  2.76575E+02  5.67247E+02 -2.04532E+02
 -2.26592E+02  1.60535E+02 -1.12993E+02  1.41028E+02 -5.35547E+02 -4.51239E+01 -1.56607E+02 -6.38446E+02
  1.55044E+02 -3.30399E+02  1.41565E+02  1.79325E+02  5.41669E+02 -5.32667E+02  5.14136E+02  5.74783E+02
  4.13806E+02 -2.74282E+01 -9.54189E-01  3.71023E+02 -1.75658E+02  3.16629E+02 -2.69031E+02  1.34722E+01
 -1.37928E+01 -7.51558E+01 -2.71400E+02 -7.71805E+00 -4.53738E+02  5.12958E+01 -5.97514E+02 -3.47657E+01
 -7.22240E+02  5.30997E+02 -2.49373E+02 -8.68262E+02  3.98471E+02 -1.08522E+03  4.21469E+02 -1.37068E+02
  3.99624E+02  1.02649E+01 -5.42486E+02 -5.50711E+00 -2.82044E+02  5.35557E+02 -1.42413E+02  3.96637E+02
