 $NMID ID='MM_0lb_SNR800_7hz_g40_15.RAW', FMTDAT='(8E13.5)'
 TRAMP=1., VOLUME=1. $END
  3.09460E+05  3.43794E+02  3.38430E+05  2.50812E+05  8.52089E+04  3.38527E+05 -1.33437E+05  2.52087E+05
 -1.91081E+05  8.38043E+04 -1.12661E+05 -3.22237E+04  2.19604E+02 -5.08246E+04  5.33461E+04 -5.58215E-01
  3.51767E+04  5.29552E+04 -1.63769E+04  7.62182E+04 -6.12151E+04  6.47444E+04 -8.53995E+04  3.26699E+04
 -8.25648E+04 -1.20389E+04 -5.81220E+04 -5.24184E+04 -1.51578E+04 -7.13401E+04  2.85662E+04 -4.72431E+04
  4.15500E+04  3.55533E+03  1.69627E+04  4.86447E+04 -3.49975E+04  4.80629E+04 -6.81800E+04 -2.69529E+02
 -5.50313E+04 -5.81556E+04 -7.29564E+03 -7.93302E+04  3.47776E+04 -5.70960E+04  5.01779E+04 -1.83553E+04
  4.59000E+04  1.19863E+04  3.28528E+04  2.71312E+04  1.58639E+04  3.05863E+04 -6.07129E+03  2.80755E+04
 -2.24550E+04  1.14462E+04 -1.79494E+04 -5.99906E+03  7.92982E+03 -7.50717E+03  2.41019E+04  1.43371E+04
  7.25642E+03  3.74911E+04 -3.45156E+04  3.73534E+04 -6.64804E+04  2.22007E+03 -5.92449E+04 -4.49555E+04
 -1.29714E+04 -6.65593E+04  4.18786E+04 -4.77788E+04  6.18943E+04 -2.64955E+03  3.80252E+04  3.43923E+04
 -5.23592E+03  4.00605E+04 -3.22590E+04  1.93027E+04 -3.41246E+04 -3.47473E+03 -2.00740E+04 -1.24529E+04
 -1.00136E+04 -1.59386E+04  8.07546E+01 -1.98191E+04  8.89968E+03 -2.30785E+04  1.62004E+04 -1.27631E+04
  1.02759E+04  6.44854E+03 -1.09032E+04  1.32333E+04 -2.40550E+04 -6.85349E+03 -8.95967E+03 -3.87199E+04
  2.56806E+04 -4.73463E+04  5.24796E+04 -2.10286E+04  4.91937E+04  2.11795E+04  1.80073E+04  4.74950E+04
 -1.66174E+04  3.69728E+04 -2.82895E+04  2.64748E+03 -1.22627E+04 -2.97682E+04  2.19913E+04 -3.76940E+04
  4.54039E+04 -1.13893E+04  4.18412E+04  2.55630E+04  2.22007E+04  5.21115E+04 -8.04173E+03  5.74442E+04
 -3.58151E+04  3.94436E+04 -4.89739E+04  1.13586E+04 -4.92162E+04 -1.87214E+04 -2.72788E+04 -4.31870E+04
  8.06330E+03 -4.34043E+04  3.50316E+04 -1.73790E+04  3.31771E+04  1.08767E+04  5.25820E+03  2.08305E+04
 -1.38886E+04  1.03051E+04 -1.13881E+04 -7.32683E+03  5.67703E+03 -1.20406E+04  1.87964E+04  5.46312E+03
  1.54745E+04  2.28636E+04 -4.91568E+03  2.73052E+04 -2.38351E+04  1.49001E+04 -3.27272E+04 -2.33166E+03
 -2.65481E+04 -1.82179E+04 -1.27948E+04 -2.62268E+04  4.79799E+03 -2.74945E+04  2.12325E+04 -2.39322E+04
  3.38554E+04 -1.47435E+04  3.96876E+04  5.21701E+03  2.82369E+04  2.55654E+04  4.28427E+03  4.22774E+04
 -2.02559E+04  3.46441E+04 -3.14375E+04  1.20829E+04 -2.29229E+04 -1.03049E+04 -5.00081E+03 -1.23774E+04
  7.89488E+02 -5.10348E+02 -8.20942E+03  8.80891E+03 -2.14657E+04  4.83063E+03 -2.08968E+04 -1.03880E+04
 -1.29772E+04 -2.51252E+04  6.62912E+03 -2.91799E+04  1.98182E+04 -2.04452E+04  2.42412E+04 -2.18305E+03
  1.50551E+04  1.71589E+04 -7.93843E+02  2.52185E+04 -1.76848E+04  1.40288E+04 -2.50619E+04 -5.67007E+03
 -1.86169E+04 -2.15888E+04 -1.97153E+03 -2.97586E+04  1.34607E+04 -2.45786E+04  2.42655E+04 -1.31240E+04
  2.30516E+04 -1.88462E+02  1.64224E+04  5.55106E+03  9.89770E+03  1.27789E+03  1.24808E+04 -2.14543E+03
  2.36108E+04  2.71021E+03  2.71750E+04  1.87504E+04  1.82300E+04  3.95330E+04 -2.42100E+03  4.68072E+04
 -2.70029E+04  3.98249E+04 -4.46124E+04  2.05742E+04 -4.81468E+04 -3.86590E+03 -3.84641E+04 -2.79470E+04
 -1.50353E+04 -3.98724E+04  1.38570E+04 -3.47982E+04  3.02790E+04 -1.62428E+04  2.56711E+04  8.46378E+03
  8.99681E+03  2.05164E+04 -1.18127E+04  1.64848E+04 -2.12006E+04  2.50878E+03 -1.62474E+04 -1.38866E+04
 -3.32799E+02 -2.02842E+04  1.11413E+04 -1.50942E+04  1.41063E+04 -1.22894E+03  3.42028E+03  9.28384E+03
 -9.63028E+03  4.50055E+03 -9.82420E+03 -7.63406E+03 -2.23289E+03 -1.94594E+04  1.27963E+04 -2.15357E+04
  2.51301E+04 -1.19711E+04  2.88878E+04  3.33254E+03  2.52279E+04  1.98757E+04  1.15018E+04  3.16777E+04
 -6.40235E+03  3.40363E+04 -2.24794E+04  2.09851E+04 -2.46385E+04  4.43801E+03 -1.69722E+04 -6.79068E+03
 -7.06058E+03 -8.33028E+03 -1.75547E+02  1.36182E+02 -3.46085E+03  3.48656E+03 -8.37044E+03  5.37801E+03
 -1.49919E+04 -1.09824E+03 -1.61915E+04 -1.23660E+04 -6.43251E+03 -2.05909E+04  6.93608E+03 -1.74376E+04
  1.42226E+04 -6.51574E+03  9.48654E+03  4.80354E+03 -5.80265E+02  6.66296E+03 -8.69648E+03 -1.39859E+02
 -8.35701E+03 -1.11818E+04 -8.46879E+02 -1.72340E+04  1.02600E+04 -1.84562E+04  2.19757E+04 -9.79005E+03
  2.59468E+04  3.03063E+03  1.92543E+04  1.60947E+04  3.85694E+03  2.09851E+04 -1.03438E+04  1.68168E+04
 -1.41145E+04  4.57527E+03 -7.27155E+03 -3.63313E+03  2.29821E+03 -4.90977E+03  9.10882E+03 -8.11192E+02
  8.55909E+03  7.74320E+03  9.15697E+02  1.43354E+04 -1.05634E+04  1.34055E+04 -1.64040E+04  3.08485E+03
 -1.18142E+04 -9.17058E+03 -3.78640E+02 -1.46374E+04  9.97722E+03 -7.78456E+03  1.01505E+04  3.88766E+03
  2.68484E+03  1.10631E+04 -8.72752E+03  1.30950E+04 -1.53573E+04  5.77565E+03 -1.61001E+04 -5.24413E+03
 -8.99534E+03 -1.82260E+04  4.61662E+03 -2.01732E+04  1.74458E+04 -1.19501E+04  1.93768E+04  3.50827E+03
  1.13062E+04  1.48135E+04 -1.65450E+03  1.78627E+04 -1.34524E+04  9.46796E+03 -1.47251E+04 -1.55730E+03
 -1.18092E+04 -1.14597E+04 -1.80279E+03 -1.36532E+04  7.41182E+03 -1.09685E+04  8.97071E+03 -3.81942E+03
  5.13499E+03  2.67921E+03 -1.54731E+03  1.79072E+03 -8.84816E+02 -3.99328E+03  3.07282E+03 -9.05888E+03
  1.26923E+04 -5.76392E+03  1.88574E+04  2.15003E+03  1.77840E+04  1.30298E+04  1.12493E+04  2.39827E+04
 -5.55274E+03  2.78521E+04 -2.28174E+04  2.02046E+04 -2.96380E+04  4.00607E+03 -2.36116E+04 -1.03581E+04
 -1.17049E+04 -1.93425E+04 -4.50838E+02 -1.66167E+04  5.94024E+03 -1.02042E+04  6.07370E+03 -5.55665E+03
  4.84961E+03 -2.93455E+03  4.06448E+03 -4.23485E+03  6.32092E+03 -4.28203E+03  9.39315E+03 -1.66926E+03
  1.23735E+04  3.07840E+03  7.06604E+03  1.15740E+04 -2.64222E+03  1.35658E+04 -1.27858E+04  1.04800E+04
 -1.68811E+04 -1.26072E+03 -1.12735E+04 -1.23447E+04 -1.67146E+03 -1.83479E+04  1.03945E+04 -1.84256E+04
  1.93224E+04 -1.04306E+04  2.30451E+04  3.40030E+03  1.55993E+04  1.61173E+04  2.04887E+03  2.05585E+04
 -8.89271E+03  1.69148E+04 -1.21384E+04  5.75924E+03 -7.92417E+03 -1.88914E+03 -3.95462E+03 -2.68581E+03
 -1.60957E+03  3.77929E+01 -2.82573E+03  3.35984E+03 -7.44320E+03  2.86328E+03 -1.15197E+04 -2.03265E+03
 -9.30583E+03 -1.21653E+04 -3.62327E+02 -1.71606E+04  1.05577E+04 -1.64309E+04  1.80019E+04 -5.06331E+03
  1.75356E+04  8.73039E+03  7.69620E+03  1.59543E+04 -3.63084E+03  1.79599E+04 -1.25656E+04  1.09919E+04
 -1.66872E+04  4.17436E+02 -1.25180E+04 -1.08146E+04 -1.67178E+03 -1.51405E+04  7.67660E+03 -1.15584E+04
  1.11487E+04 -3.49856E+03  7.66675E+03  3.39126E+03  2.79590E+03  5.30012E+03  1.55509E+03  2.26697E+03
  3.19405E+03  1.18712E+03  4.30518E+03  2.44183E+03  5.40815E+03  5.69096E+03  4.72602E+03  1.00467E+04
 -3.01530E+03  1.45751E+04 -1.25629E+04  1.38863E+04 -1.88760E+04  3.31732E+03 -1.90428E+04 -7.49208E+03
 -9.32539E+03 -1.85705E+04  2.76540E+03 -2.01989E+04  1.11590E+04 -1.31548E+04  1.47374E+04 -3.17230E+03
  1.14389E+04  6.53109E+03  2.30143E+03  1.07666E+04 -5.40050E+03  6.45688E+03 -7.75221E+03 -1.38604E+03
 -3.59402E+03 -7.96248E+03  4.08711E+03 -8.36499E+03  7.77284E+03 -3.86745E+03  7.17987E+03  1.63705E+03
  4.57397E+03  4.11777E+03  1.91863E+03  3.69084E+03 -9.57428E+02  2.77570E+03  2.18563E+03 -7.87189E+02
  3.26370E+03 -9.89959E+02  7.43545E+03  2.67675E+03  4.74691E+03  1.03470E+04 -1.88244E+03  1.32526E+04
 -8.77569E+03  9.30665E+03 -1.22850E+04  2.45375E+03 -1.08902E+04 -4.46479E+03 -4.29380E+03 -7.46890E+03
  9.33962E+02 -7.42832E+03  4.96738E+03 -3.48922E+03  3.90857E+03  3.62248E+03 -1.61989E+03  6.56687E+03
 -7.77920E+03  3.75925E+03 -8.92230E+03 -4.92798E+03 -5.15936E+03 -1.05389E+04  1.73836E+03 -1.08916E+04
  6.49670E+03 -6.39848E+03  8.00716E+03 -9.01115E+02  6.25149E+03  3.02470E+03  1.03570E+03  5.04155E+03
 -3.74737E+03  1.62545E+03 -4.80188E+03 -3.97572E+03  1.38177E+03 -7.80031E+03  9.79918E+03 -6.76323E+03
  1.24625E+04  4.31555E+02  1.12528E+04  8.66832E+03  3.64081E+03  1.36822E+04 -4.13760E+03  1.22121E+04
 -9.96888E+03  5.14348E+03 -1.09877E+04 -1.76334E+03 -6.31792E+03 -8.15376E+03  1.92625E+03 -8.79868E+03
  7.75418E+03 -3.37015E+03  7.08743E+03  3.69493E+03  2.19764E+03  6.89618E+03 -8.08975E+02  5.81462E+03
 -3.64262E+03  4.02281E+03 -3.07401E+03  1.01364E+03 -1.63215E+03  1.06175E+03 -2.06414E+03  2.93429E+03
 -3.41718E+03  4.47076E+03 -8.53332E+03  3.71033E+03 -1.29026E+04  3.44291E+02 -1.48535E+04 -8.49509E+03
 -7.79463E+03 -1.74902E+04  3.42026E+03 -1.97387E+04  1.24025E+04 -1.54482E+04  1.92190E+04 -5.60100E+03
  1.76937E+04  4.00535E+03  1.10755E+04  1.20698E+04  1.39241E+03  1.35287E+04 -5.17844E+03  1.00268E+04
 -7.71538E+03  3.55986E+03 -4.93569E+03 -1.15946E+03 -1.79416E+03 -1.84494E+03 -2.36886E+02  3.10511E+02
 -1.96695E+03  2.54637E+02 -2.79851E+03 -9.58512E+02 -1.14025E+03 -3.58243E+03  3.31398E+02 -4.97797E+03
  5.88671E+03 -4.01543E+03  8.81489E+03  2.91499E+02  9.64481E+03  7.25187E+03  2.94691E+03  1.38187E+04
 -6.83505E+03  1.53793E+04 -1.46384E+04  9.08001E+03 -1.77989E+04 -1.09976E+03 -1.27171E+04 -1.06320E+04
 -5.20865E+03 -1.42379E+04  3.67502E+03 -1.27204E+04  9.25600E+03 -6.98042E+03  9.06814E+03  2.26156E+02
  5.13822E+03  4.60523E+03 -4.00101E+02  4.10500E+03 -3.00268E+03 -5.40855E+01  1.99698E+02 -3.01118E+03
  4.48096E+03 -2.59316E+03  5.43963E+03  1.73411E+03  3.92253E+03  6.04215E+03 -1.70978E+02  7.60782E+03
 -6.18622E+03  6.46535E+03 -9.77540E+03  8.08944E+02 -9.10451E+03 -7.16675E+03 -1.69362E+03 -1.17047E+04
  7.31646E+03 -1.07450E+04  1.09463E+04 -3.43681E+03  1.12172E+04  3.05416E+03  6.62946E+03  8.84793E+03
  7.69698E+02  9.28885E+03 -3.54170E+03  7.25201E+03 -5.78716E+03  4.37464E+03 -4.95021E+03  6.78408E+02
 -2.58770E+03  4.89298E+01 -2.99267E+03  1.01387E+03 -5.61891E+03  1.86196E+03 -7.71159E+03 -1.54855E+03
 -6.62085E+03 -5.08546E+03 -2.72551E+03 -9.83060E+03  4.41163E+03 -9.63589E+03  9.07676E+03 -4.84974E+03
  9.98492E+03  1.18149E+03  5.33198E+03  7.38210E+03 -8.08453E+02  9.80909E+03 -7.99116E+03  6.82403E+03
