 $NMID ID='MM_0lb_SNR800_12hz_g40_66.RAW', FMTDAT='(8E13.5)'
 TRAMP=1., VOLUME=1. $END
  3.09151E+05  2.46367E+02  3.37467E+05  2.50600E+05  8.43854E+04  3.38156E+05 -1.32544E+05  2.51091E+05
 -1.90121E+05  8.34256E+04 -1.11706E+05 -3.27870E+04  7.50722E+02 -5.07332E+04  5.40473E+04 -2.84583E+02
  3.50861E+04  5.29948E+04 -1.68875E+04  7.57577E+04 -6.04738E+04  6.34825E+04 -8.41892E+04  3.21318E+04
 -8.14962E+04 -1.11693E+04 -5.76191E+04 -5.14206E+04 -1.51955E+04 -6.98472E+04  2.73539E+04 -4.61313E+04
  4.03149E+04  3.86326E+03  1.64202E+04  4.78215E+04 -3.43592E+04  4.71464E+04 -6.69420E+04  3.20174E+01
 -5.34885E+04 -5.72903E+04 -6.80556E+03 -7.70855E+04  3.38844E+04 -5.54342E+04  4.80183E+04 -1.75745E+04
  4.38096E+04  1.13961E+04  3.22616E+04  2.58798E+04  1.60080E+04  2.95745E+04 -5.30795E+03  2.73368E+04
 -2.21735E+04  1.22307E+04 -1.85437E+04 -5.30718E+03  5.47788E+03 -7.25495E+03  2.25501E+04  1.26246E+04
  7.04175E+03  3.59112E+04 -3.26759E+04  3.57235E+04 -6.38250E+04  2.11239E+03 -5.73693E+04 -4.29328E+04
 -1.25651E+04 -6.37810E+04  4.03488E+04 -4.56310E+04  5.86506E+04 -2.36091E+03  3.47743E+04  3.25657E+04
 -6.00228E+03  3.63361E+04 -3.00836E+04  1.62469E+04 -3.07841E+04 -4.29623E+03 -1.70557E+04 -1.13690E+04
 -8.40225E+03 -1.32694E+04 -4.55292E+02 -1.82598E+04  7.49964E+03 -2.30231E+04  1.53102E+04 -1.29270E+04
  1.11594E+04  5.54431E+03 -8.78108E+03  1.28925E+04 -2.14501E+04 -4.70919E+03 -8.06769E+03 -3.47609E+04
  2.34529E+04 -4.39633E+04  4.92675E+04 -1.96943E+04  4.60223E+04  1.98141E+04  1.56545E+04  4.45083E+04
 -1.58594E+04  3.42678E+04 -2.53948E+04  1.85313E+03 -1.01862E+04 -2.82614E+04  2.12989E+04 -3.40720E+04
  4.14721E+04 -9.61625E+03  3.66868E+04  2.38342E+04  1.88734E+04  4.74062E+04 -7.86236E+03  5.13674E+04
 -3.23332E+04  3.48050E+04 -4.32536E+04  9.99962E+03 -4.36280E+04 -1.68201E+04 -2.39272E+04 -3.88238E+04
  7.25065E+03 -3.85807E+04  3.18444E+04 -1.51577E+04  2.95880E+04  1.10280E+04  4.45798E+03  1.94272E+04
 -1.33756E+04  8.80729E+03 -1.04660E+04 -7.32321E+03  5.89927E+03 -1.09409E+04  1.81624E+04  6.05338E+03
  1.37963E+04  2.21889E+04 -5.74053E+03  2.58018E+04 -2.24001E+04  1.21425E+04 -2.90121E+04 -4.25857E+03
 -2.16260E+04 -1.79159E+04 -8.98381E+03 -2.13104E+04  4.04036E+03 -2.06772E+04  1.65656E+04 -1.92590E+04
  2.73556E+04 -1.31149E+04  3.38354E+04  3.46146E+03  2.46763E+04  2.08529E+04  4.41917E+03  3.74456E+04
 -1.81988E+04  3.12735E+04 -2.84365E+04  1.08253E+04 -2.13066E+04 -1.03137E+04 -4.64238E+03 -1.34044E+04
  1.85259E+03 -2.45475E+03 -5.50361E+03  7.23824E+03 -1.69309E+04  5.09622E+03 -1.69749E+04 -7.64241E+03
 -1.01166E+04 -1.99633E+04  5.33421E+03 -2.43696E+04  1.62528E+04 -1.68207E+04  1.90671E+04 -1.95821E+03
  1.18105E+04  1.37483E+04 -8.74759E+02  1.99372E+04 -1.41772E+04  1.13435E+04 -2.04454E+04 -4.31062E+03
 -1.43981E+04 -1.80275E+04 -1.72455E+03 -2.40236E+04  1.08440E+04 -1.96046E+04  2.01810E+04 -9.85269E+03
  1.85320E+04 -1.01437E+02  1.35494E+04  4.84385E+03  7.02150E+03  8.74184E+02  9.97635E+03 -2.00591E+03
  1.81345E+04  2.96415E+03  2.07481E+04  1.58830E+04  1.35754E+04  3.19193E+04 -2.86209E+03  3.63746E+04
 -2.11671E+04  2.93657E+04 -3.41552E+04  1.49346E+04 -3.54418E+04 -2.65374E+03 -2.93967E+04 -2.05414E+04
 -1.19754E+04 -2.99263E+04  1.02784E+04 -2.63038E+04  2.28028E+04 -1.29463E+04  2.04003E+04  5.81123E+03
  7.71053E+03  1.54015E+04 -9.71166E+03  1.32805E+04 -1.71929E+04  2.42109E+03 -1.29099E+04 -1.06704E+04
 -2.80535E+02 -1.60954E+04  8.47732E+03 -1.19460E+04  1.09445E+04 -1.17042E+03  2.49346E+03  6.77083E+03
 -7.59984E+03  2.77561E+03 -6.81578E+03 -5.77485E+03 -8.20914E+02 -1.44407E+04  1.02256E+04 -1.56804E+04
  1.77961E+04 -8.25608E+03  1.97505E+04  2.56563E+03  1.71274E+04  1.43993E+04  7.93643E+03  2.21886E+04
 -3.74565E+03  2.41216E+04 -1.55558E+04  1.48484E+04 -1.72817E+04  3.87510E+03 -1.22526E+04 -3.98983E+03
 -5.80097E+03 -5.34873E+03 -5.33976E+02  1.15340E+03 -2.66935E+03  2.89811E+03 -5.55560E+03  4.45528E+03
 -1.14364E+04 -5.29287E+02 -1.18782E+04 -9.54425E+03 -4.60288E+03 -1.55506E+04  5.07490E+03 -1.24383E+04
  1.03683E+04 -5.10950E+03  7.02749E+03  3.10470E+03  4.19955E+01  4.75904E+03 -5.55382E+03  6.33465E+01
 -5.63924E+03 -7.77665E+03 -1.01081E+03 -1.19108E+04  6.61256E+03 -1.24104E+04  1.52627E+04 -6.75425E+03
  1.78890E+04  1.75871E+03  1.33513E+04  1.06746E+04  2.69909E+03  1.43659E+04 -7.76395E+03  1.20891E+04
 -9.46128E+03  3.83250E+03 -4.88808E+03 -2.64749E+03  1.84896E+03 -3.23710E+03  6.79541E+03 -1.10135E+03
  5.84599E+03  5.19525E+03  1.21648E+03  9.74112E+03 -6.81438E+03  9.36484E+03 -1.20533E+04  2.52647E+03
 -8.16412E+03 -5.98382E+03  3.80611E+02 -1.04946E+04  6.34727E+03 -5.31097E+03  6.47428E+03  2.14365E+03
  1.13201E+03  6.41687E+03 -6.39033E+03  8.24232E+03 -9.43845E+03  3.71340E+03 -9.67373E+03 -3.36043E+03
 -5.57070E+03 -1.09632E+04  2.64242E+03 -1.32061E+04  1.12001E+04 -7.72214E+03  1.20652E+04  2.01916E+03
  7.54574E+03  9.72180E+03 -5.40669E+02  1.15538E+04 -8.57154E+03  6.42411E+03 -9.48234E+03 -4.13191E+02
 -8.61447E+03 -7.76337E+03 -1.52795E+03 -8.62369E+03  4.88084E+03 -7.11112E+03  5.62140E+03 -3.34667E+03
  4.01990E+03  1.23883E+03 -4.44220E+02  1.10134E+03 -7.34064E+01 -1.89676E+03  1.28316E+03 -4.93866E+03
  7.70139E+03 -3.13385E+03  1.07169E+04  1.41466E+03  1.07854E+04  7.63119E+03  8.03701E+03  1.43310E+04
 -2.97550E+03  1.68895E+04 -1.42125E+04  1.22299E+04 -1.79782E+04  2.19279E+03 -1.44163E+04 -5.69754E+03
 -7.58732E+03 -1.18156E+04 -7.32132E+02 -1.04703E+04  3.67225E+03 -5.27272E+03  3.33046E+03 -3.57913E+03
  2.78303E+03 -2.55142E+03  3.39813E+03 -3.37070E+03  4.65734E+03 -2.28796E+03  6.12858E+03 -5.87623E+02
  7.74942E+03  1.84856E+03  3.50783E+03  6.35343E+03 -1.81746E+03  7.34897E+03 -7.78394E+03  5.50025E+03
 -9.75323E+03 -1.21306E+03 -5.91975E+03 -6.86709E+03 -7.56559E+02 -1.04859E+04  5.90835E+03 -1.06507E+04
  1.09166E+04 -6.20761E+03  1.36281E+04  1.71073E+03  9.26117E+03  9.01294E+03  1.84974E+03  1.19646E+04
 -4.96914E+03  1.00183E+04 -7.12187E+03  3.53375E+03 -4.61711E+03 -1.23504E+03 -1.56779E+03 -1.22522E+03
 -7.78737E+02  7.06314E+01 -1.49407E+03  2.74956E+03 -4.59843E+03  1.56898E+03 -7.19847E+03 -1.00173E+03
 -4.69375E+03 -6.98550E+03  3.50363E+02 -9.64103E+03  5.72298E+03 -9.41184E+03  9.31316E+03 -2.62413E+03
  9.51622E+03  4.39694E+03  4.43248E+03  8.28121E+03 -1.90033E+03  9.78498E+03 -6.65955E+03  6.08650E+03
 -8.70578E+03  5.32501E+02 -7.24540E+03 -5.65487E+03 -6.31285E+02 -8.01532E+03  4.17843E+03 -5.71059E+03
  6.12103E+03 -2.12446E+03  3.85739E+03  1.37823E+03  1.28125E+03  3.09386E+03  1.02175E+03  1.05491E+03
  2.26955E+03  9.57511E+02  2.32727E+03  1.25705E+03  2.95059E+03  3.54987E+03  2.40796E+03  5.05248E+03
 -2.33392E+03  7.65018E+03 -6.48985E+03  8.25833E+03 -9.02590E+03  1.94453E+03 -9.64177E+03 -3.55887E+03
 -4.60560E+03 -9.36025E+03  1.12881E+03 -1.07222E+04  5.44567E+03 -6.51301E+03  7.64119E+03 -2.00117E+03
  5.94122E+03  3.78039E+03  1.68808E+03  5.33759E+03 -2.38961E+03  2.99380E+03 -3.72033E+03 -4.52375E+02
 -2.01168E+03 -4.00371E+03  2.20798E+03 -3.98505E+03  3.74422E+03 -2.20461E+03  3.61011E+03  4.59744E+02
  2.41639E+03  1.75061E+03  9.82183E+02  1.22110E+03 -7.67559E+02  1.73990E+03  1.33654E+03 -5.68357E+02
  1.32720E+03 -6.55986E+02  3.69892E+03  1.44550E+03  2.02233E+03  5.02366E+03 -4.08657E+02  6.52950E+03
 -4.34680E+03  4.02556E+03 -5.65586E+03  1.25050E+03 -5.44102E+03 -1.84219E+03 -1.86587E+03 -3.15585E+03
  5.16191E+02 -3.50907E+03  2.40485E+03 -1.61914E+03  1.78306E+03  1.96418E+03 -1.09557E+03  3.20652E+03
 -3.65653E+03  1.93462E+03 -4.17949E+03 -2.53204E+03 -2.23818E+03 -5.09062E+03  9.72961E+02 -4.99865E+03
  2.64859E+03 -2.79618E+03  3.32674E+03 -2.63205E+02  2.96207E+03  1.15854E+03  2.93934E+02  2.63809E+03
 -1.41126E+03  8.12659E+02 -2.45973E+03 -1.57550E+03  1.01816E+03 -3.81801E+03  4.61575E+03 -3.04212E+03
  5.07175E+03  5.98008E+02  5.98131E+03  3.30651E+03  1.92818E+03  5.58150E+03 -2.09504E+03  5.34360E+03
 -4.71645E+03  2.20286E+03 -4.75463E+03 -5.79591E+02 -2.61744E+03 -3.87622E+03  8.44814E+02 -3.55941E+03
  4.12013E+03 -2.04973E+03  3.08179E+03  1.35471E+03  9.04397E+02  3.23048E+03 -2.80469E+02  2.46670E+03
 -1.13859E+03  2.14371E+03 -1.33891E+03  7.26772E+02 -4.59281E+02  7.65321E+02 -1.33036E+03  9.50015E+02
 -1.56754E+03  2.41621E+03 -4.02729E+03  1.88566E+03 -5.47469E+03  2.25749E+02 -6.38790E+03 -3.66088E+03
 -3.27028E+03 -7.64286E+03  1.25583E+03 -8.67968E+03  5.10689E+03 -6.84530E+03  8.45490E+03 -2.84797E+03
  7.84108E+03  1.23056E+03  4.42498E+03  5.32048E+03 -9.43284E+01  5.91153E+03 -2.07094E+03  4.35624E+03
 -3.03724E+03  1.98535E+03 -2.17197E+03 -6.60122E+02 -7.26837E+02 -3.25253E+02 -8.52831E+02 -1.57068E+02
 -1.37698E+03  1.86007E+02 -1.54418E+03 -1.47079E+02 -3.38415E+02 -1.58414E+03  2.93916E+01 -2.22252E+03
  2.77939E+03 -1.90650E+03  2.96033E+03  1.20367E+02  3.69023E+03  2.93512E+03  5.50524E+02  5.08941E+03
 -2.45252E+03  6.70097E+03 -5.97806E+03  3.81293E+03 -6.86058E+03 -6.50062E+02 -5.34144E+03 -4.42090E+03
 -2.10611E+03 -5.69119E+03  1.30922E+03 -5.29968E+03  3.65347E+03 -2.80642E+03  3.55556E+03  3.43354E+02
  2.29140E+03  1.99325E+03 -1.04576E+02  1.47558E+03 -1.54652E+03 -3.90675E+02 -2.38994E+02 -1.12936E+03
  1.26483E+03 -1.98646E+02  2.10762E+03  9.17229E+02  8.87329E+02  1.70858E+03  5.42729E+02  2.35916E+03
 -2.42255E+03  2.26826E+03 -3.09753E+03 -5.96833E+01 -3.45561E+03 -2.63620E+03 -8.09212E+02 -4.43883E+03
  2.21758E+03 -3.36465E+03  3.95461E+03 -8.13356E+02  3.79396E+03  5.25260E+02  2.18281E+03  3.35163E+03
  8.28511E+02  3.44939E+03 -1.22747E+03  3.17117E+03 -2.18892E+03  1.91479E+03 -2.08100E+03  2.11633E+02
 -9.18831E+02 -1.98374E+02 -1.24068E+03  4.87263E+02 -1.98085E+03  7.30768E+02 -3.02040E+03 -2.88965E+02
 -2.93703E+03 -1.46352E+03 -8.51207E+02 -3.74636E+03  1.85250E+03 -3.80211E+03  3.36216E+03 -1.95783E+03
  2.99384E+03  6.83801E+02  1.51073E+03  2.24055E+03 -2.10444E+02  3.72265E+03 -2.47065E+03  2.38735E+03
