 $NMID ID='MM_0lb_SNR800_11hz_g40_62.RAW', FMTDAT='(8E13.5)'
 TRAMP=1., VOLUME=1. $END
  3.09808E+05  3.74683E+02  3.37794E+05  2.50871E+05  8.46680E+04  3.38196E+05 -1.32603E+05  2.51184E+05
 -1.90366E+05  8.35077E+04 -1.12169E+05 -3.28379E+04  4.92688E+02 -5.08336E+04  5.39155E+04 -2.57774E+02
  3.56143E+04  5.31358E+04 -1.66921E+04  7.54865E+04 -6.12394E+04  6.40886E+04 -8.45094E+04  3.20983E+04
 -8.12496E+04 -1.14112E+04 -5.74817E+04 -5.15698E+04 -1.48730E+04 -7.02226E+04  2.77079E+04 -4.63126E+04
  4.08025E+04  3.75718E+03  1.65844E+04  4.78999E+04 -3.43511E+04  4.76388E+04 -6.71435E+04 -3.97624E+01
 -5.41055E+04 -5.74158E+04 -7.02950E+03 -7.76200E+04  3.43088E+04 -5.60544E+04  4.86677E+04 -1.76596E+04
  4.40059E+04  1.11634E+04  3.19631E+04  2.59790E+04  1.60301E+04  3.00188E+04 -5.37109E+03  2.74573E+04
 -2.23905E+04  1.20647E+04 -1.84060E+04 -5.37745E+03  6.29812E+03 -7.44123E+03  2.25531E+04  1.27735E+04
  7.16746E+03  3.62747E+04 -3.29477E+04  3.58607E+04 -6.41718E+04  2.11345E+03 -5.72356E+04 -4.30443E+04
 -1.23918E+04 -6.43174E+04  4.05017E+04 -4.59304E+04  5.94797E+04 -2.14218E+03  3.52492E+04  3.30804E+04
 -5.85843E+03  3.73917E+04 -3.09233E+04  1.70446E+04 -3.09532E+04 -4.03399E+03 -1.78889E+04 -1.15730E+04
 -9.17408E+03 -1.41458E+04 -4.70153E+02 -1.84335E+04  7.96399E+03 -2.32360E+04  1.57439E+04 -1.32293E+04
  1.14617E+04  5.75569E+03 -8.55777E+03  1.30462E+04 -2.16342E+04 -4.94776E+03 -8.64171E+03 -3.53481E+04
  2.38048E+04 -4.48634E+04  4.95146E+04 -2.03623E+04  4.64736E+04  1.97935E+04  1.62364E+04  4.54055E+04
 -1.62818E+04  3.46468E+04 -2.65514E+04  1.83830E+03 -1.04414E+04 -2.83717E+04  2.09328E+04 -3.47631E+04
  4.24273E+04 -9.94932E+03  3.76195E+04  2.40937E+04  1.95520E+04  4.81766E+04 -8.19720E+03  5.27127E+04
 -3.34822E+04  3.57696E+04 -4.45605E+04  1.01850E+04 -4.42598E+04 -1.72393E+04 -2.40354E+04 -3.95416E+04
  7.63471E+03 -3.94972E+04  3.26100E+04 -1.57377E+04  3.01440E+04  1.07771E+04  4.68159E+03  1.99654E+04
 -1.36973E+04  8.58953E+03 -1.05373E+04 -7.34799E+03  5.77488E+03 -1.07883E+04  1.87085E+04  6.07318E+03
  1.40835E+04  2.24015E+04 -5.38877E+03  2.58984E+04 -2.23778E+04  1.25371E+04 -2.94499E+04 -4.02580E+03
 -2.26924E+04 -1.75611E+04 -9.61419E+03 -2.19944E+04  4.33260E+03 -2.20085E+04  1.73415E+04 -2.02945E+04
  2.85261E+04 -1.32615E+04  3.49616E+04  3.40752E+03  2.53980E+04  2.19825E+04  3.95312E+03  3.80641E+04
 -1.87738E+04  3.20618E+04 -2.87080E+04  1.10144E+04 -2.09851E+04 -1.00515E+04 -4.83537E+03 -1.29767E+04
  1.30548E+03 -2.09448E+03 -5.97010E+03  7.60694E+03 -1.77451E+04  5.25772E+03 -1.79707E+04 -8.24715E+03
 -1.09727E+04 -2.06077E+04  5.51762E+03 -2.51099E+04  1.64314E+04 -1.78924E+04  1.98335E+04 -1.55138E+03
  1.25257E+04  1.43180E+04 -1.28497E+03  2.07915E+04 -1.42493E+04  1.20341E+04 -2.08091E+04 -4.57330E+03
 -1.56793E+04 -1.87160E+04 -1.88821E+03 -2.50238E+04  1.15354E+04 -2.07464E+04  2.02442E+04 -1.05330E+04
  1.92416E+04  9.13486E+01  1.41811E+04  4.40531E+03  7.57581E+03  1.36322E+03  1.07118E+04 -2.09549E+03
  1.90377E+04  2.63438E+03  2.14179E+04  1.61704E+04  1.47566E+04  3.32209E+04 -2.59741E+03  3.82007E+04
 -2.20850E+04  3.13447E+04 -3.58565E+04  1.55891E+04 -3.80765E+04 -2.78162E+03 -3.13447E+04 -2.22681E+04
 -1.25630E+04 -3.14950E+04  1.06681E+04 -2.80462E+04  2.43330E+04 -1.39550E+04  2.13981E+04  6.30899E+03
  7.60647E+03  1.60329E+04 -9.98877E+03  1.36253E+04 -1.76671E+04  2.41623E+03 -1.34085E+04 -1.14838E+04
 -2.34518E+02 -1.70154E+04  9.27797E+03 -1.28905E+04  1.15635E+04 -9.65174E+02  2.65017E+03  7.34178E+03
 -7.34457E+03  3.36156E+03 -7.11698E+03 -5.88980E+03 -1.18744E+03 -1.54250E+04  1.03606E+04 -1.67143E+04
  1.93016E+04 -8.87175E+03  2.13838E+04  3.39226E+03  1.88014E+04  1.57123E+04  8.63097E+03  2.38529E+04
 -4.35798E+03  2.57211E+04 -1.66671E+04  1.61301E+04 -1.85184E+04  3.79248E+03 -1.26133E+04 -4.38115E+03
 -5.77943E+03 -6.06678E+03 -4.89934E+02  8.62940E+02 -2.63639E+03  3.24553E+03 -6.32242E+03  4.90016E+03
 -1.19555E+04 -6.29614E+02 -1.24875E+04 -1.01317E+04 -5.16562E+03 -1.66636E+04  5.27569E+03 -1.33856E+04
  1.10440E+04 -5.37872E+03  7.48488E+03  3.47406E+03  2.64833E+01  5.16913E+03 -6.22679E+03 -6.71838E+01
 -6.31543E+03 -8.37939E+03 -9.51715E+02 -1.27212E+04  7.11430E+03 -1.34333E+04  1.64174E+04 -7.02166E+03
  1.95632E+04  1.90611E+03  1.40012E+04  1.15212E+04  2.82587E+03  1.56354E+04 -8.09824E+03  1.29070E+04
 -1.07407E+04  3.65987E+03 -5.56604E+03 -2.59659E+03  1.82181E+03 -3.69519E+03  7.11523E+03 -7.81117E+02
  6.24931E+03  6.04438E+03  1.20592E+03  1.06981E+04 -7.26031E+03  9.86173E+03 -1.26587E+04  3.13931E+03
 -8.51587E+03 -6.33628E+03  1.35220E+02 -1.09459E+04  6.96703E+03 -5.66151E+03  7.08644E+03  2.77497E+03
  1.47295E+03  7.70691E+03 -7.02423E+03  8.92836E+03 -1.05335E+04  4.05382E+03 -1.07734E+04 -3.61385E+03
 -6.34411E+03 -1.22332E+04  3.33979E+03 -1.45836E+04  1.20793E+04 -8.45502E+03  1.33756E+04  2.43832E+03
  7.86737E+03  1.03487E+04 -1.09203E+03  1.26243E+04 -9.17636E+03  7.06989E+03 -9.90979E+03 -6.99250E+02
 -8.51126E+03 -8.56838E+03 -1.57504E+03 -9.76408E+03  5.13426E+03 -7.75865E+03  5.83524E+03 -3.28543E+03
  4.21903E+03  1.58287E+03 -6.83628E+02  1.74691E+03  1.01300E+01 -2.23150E+03  1.63428E+03 -5.82283E+03
  8.65149E+03 -3.43507E+03  1.25886E+04  1.33233E+03  1.22246E+04  8.27463E+03  8.38620E+03  1.60210E+04
 -3.65954E+03  1.85420E+04 -1.55614E+04  1.35272E+04 -2.00398E+04  2.88630E+03 -1.59705E+04 -6.84478E+03
 -8.27324E+03 -1.32369E+04 -3.54214E+02 -1.10683E+04  4.13531E+03 -5.84326E+03  4.00985E+03 -4.31395E+03
  2.94249E+03 -2.55975E+03  3.41988E+03 -3.38933E+03  5.08767E+03 -2.93302E+03  6.34811E+03 -7.22145E+02
  8.53050E+03  1.95023E+03  3.94085E+03  7.24802E+03 -1.97759E+03  8.45562E+03 -8.96395E+03  6.33271E+03
 -1.12917E+04 -1.02821E+03 -6.90751E+03 -7.79099E+03 -4.33843E+02 -1.16530E+04  6.68550E+03 -1.23094E+04
  1.20908E+04 -6.58128E+03  1.46672E+04  1.73991E+03  1.05163E+04  1.04038E+04  1.84946E+03  1.35635E+04
 -5.30596E+03  1.10870E+04 -7.96924E+03  3.73243E+03 -5.00446E+03 -1.52135E+03 -1.87337E+03 -1.05905E+03
 -1.33743E+03  1.13820E+01 -1.64732E+03  2.58883E+03 -4.68373E+03  1.77464E+03 -7.91924E+03 -1.33308E+03
 -5.17371E+03 -7.81702E+03  1.70313E+02 -1.08117E+04  6.54017E+03 -1.01661E+04  1.09188E+04 -3.30608E+03
  1.09831E+04  5.41026E+03  5.12787E+03  9.80555E+03 -2.36114E+03  1.15194E+04 -7.82934E+03  6.81943E+03
 -1.00091E+04  3.48129E+02 -8.04688E+03 -6.41657E+03 -7.82248E+02 -9.21829E+03  4.93758E+03 -6.80021E+03
  6.73139E+03 -2.33569E+03  4.74545E+03  1.82445E+03  1.52826E+03  3.40167E+03  9.68116E+02  1.77627E+03
  2.49722E+03  5.02820E+02  2.95944E+03  1.75557E+03  3.05935E+03  4.14111E+03  2.93494E+03  5.83160E+03
 -2.39371E+03  8.98378E+03 -7.70450E+03  8.88823E+03 -1.05949E+04  2.19229E+03 -1.18689E+04 -4.23710E+03
 -5.58329E+03 -1.06017E+04  1.52094E+03 -1.21126E+04  6.30905E+03 -7.15921E+03  8.62492E+03 -2.15773E+03
  6.96077E+03  4.29052E+03  1.53987E+03  6.12076E+03 -2.74391E+03  3.91510E+03 -4.14075E+03 -5.96402E+02
 -2.16810E+03 -4.88528E+03  2.90299E+03 -4.46180E+03  4.38496E+03 -2.10653E+03  4.54841E+03  1.09862E+03
  2.35871E+03  2.10403E+03  1.29906E+03  1.62927E+03 -7.30449E+02  1.19510E+03  1.98011E+03 -4.47633E+02
  1.71394E+03 -8.26271E+02  4.22876E+03  1.42992E+03  1.78496E+03  5.65728E+03 -7.85732E+02  7.54817E+03
 -5.06186E+03  4.63919E+03 -7.11651E+03  1.48575E+03 -5.83916E+03 -2.55496E+03 -2.10941E+03 -3.94303E+03
  6.93715E+02 -4.47752E+03  2.72218E+03 -1.79360E+03  2.09169E+03  2.27962E+03 -1.16399E+03  3.56157E+03
 -4.55645E+03  2.10839E+03 -4.89558E+03 -3.03871E+03 -2.94636E+03 -5.61580E+03  8.16639E+02 -5.89855E+03
  3.24176E+03 -3.26776E+03  4.19944E+03 -2.85784E+02  3.35553E+03  1.04040E+03  4.94554E+02  3.31382E+03
 -1.88184E+03  4.01817E+02 -2.60782E+03 -1.79243E+03  1.21602E+03 -4.26523E+03  5.20915E+03 -3.65782E+03
  6.24451E+03  6.36942E+02  6.35220E+03  4.12712E+03  2.29242E+03  6.75294E+03 -2.41010E+03  6.82380E+03
 -5.85641E+03  2.87735E+03 -5.58537E+03 -7.63733E+02 -3.15771E+03 -4.45704E+03  1.12125E+03 -3.79818E+03
  4.27905E+03 -2.13154E+03  3.45047E+03  1.87559E+03  1.29414E+03  3.55685E+03 -1.77609E+02  3.68937E+03
 -1.96105E+03  2.13944E+03 -1.54632E+03  5.39849E+02 -5.90590E+02  7.30558E+02 -1.48583E+03  1.36867E+03
 -1.85248E+03  2.88036E+03 -4.88783E+03  2.25015E+03 -6.68894E+03  6.32177E+01 -8.09543E+03 -4.49394E+03
 -3.82030E+03 -9.06057E+03  1.56103E+03 -1.03957E+04  6.14406E+03 -7.92050E+03  1.00587E+04 -3.17739E+03
  9.08022E+03  1.83746E+03  5.29025E+03  6.31339E+03  2.12292E+02  6.61874E+03 -2.88795E+03  5.08975E+03
 -4.22940E+03  1.91608E+03 -2.41129E+03 -8.47675E+02 -7.42512E+02 -4.10652E+02 -7.66507E+02 -2.99918E+02
 -1.47690E+03  4.71970E+02 -1.74213E+03 -2.69484E+02 -3.48299E+02 -2.03357E+03 -8.78770E+00 -2.51203E+03
  3.12720E+03 -2.16406E+03  3.74500E+03 -1.59856E+02  5.25953E+03  4.37216E+03  1.20393E+03  7.00773E+03
 -3.14416E+03  7.87170E+03 -7.56729E+03  4.88033E+03 -7.87384E+03 -3.62613E+02 -6.11605E+03 -5.32610E+03
 -2.91850E+03 -7.06667E+03  1.84131E+03 -6.25534E+03  4.30912E+03 -3.18900E+03  4.35135E+03  5.23339E+00
  2.39739E+03  2.09943E+03 -9.33047E+01  1.58798E+03 -1.26393E+03 -2.31466E+02  2.43254E+02 -1.74135E+03
  2.19235E+03 -1.03283E+03  2.93139E+03  6.19948E+02  1.57830E+03  2.44037E+03  4.24658E+02  3.03448E+03
 -2.95711E+03  3.27972E+03 -4.42121E+03  2.96814E+02 -4.09377E+03 -3.16268E+03 -5.48273E+02 -5.44001E+03
  2.78023E+03 -4.15840E+03  4.88941E+03 -1.34008E+03  5.01379E+03  9.01705E+02  2.89990E+03  3.89131E+03
  4.25073E+02  4.30151E+03 -1.36650E+03  3.63295E+03 -2.54899E+03  1.90745E+03 -2.13761E+03  2.11749E+02
 -1.37651E+03 -2.11917E+02 -9.60416E+02  9.39679E+02 -2.35678E+03  7.86379E+02 -3.58306E+03 -9.96210E+02
 -3.82228E+03 -2.31386E+03 -1.46102E+03 -4.67551E+03  2.23962E+03 -4.97241E+03  3.98520E+03 -2.10261E+03
  4.26432E+03  3.58732E+02  2.35353E+03  2.65859E+03 -5.53801E+02  4.25781E+03 -3.50185E+03  2.39891E+03
