 $NMID ID='MM_0lb_SNR800_14hz_g40_59.RAW', FMTDAT='(8E13.5)'
 TRAMP=1., VOLUME=1. $END
  3.10145E+05  3.26535E+02  3.37410E+05  2.50821E+05  8.46350E+04  3.37950E+05 -1.32531E+05  2.50948E+05
 -1.89925E+05  8.28543E+04 -1.11483E+05 -3.25951E+04  8.53701E+02 -5.03138E+04  5.38158E+04 -1.02348E+02
  3.51497E+04  5.29052E+04 -1.66426E+04  7.53452E+04 -6.06754E+04  6.33375E+04 -8.35918E+04  3.21334E+04
 -8.05132E+04 -1.13011E+04 -5.69946E+04 -5.06863E+04 -1.48977E+04 -6.95060E+04  2.74755E+04 -4.57230E+04
  3.98980E+04  4.02126E+03  1.61776E+04  4.73001E+04 -3.40642E+04  4.69565E+04 -6.64489E+04 -7.81626E+01
 -5.30770E+04 -5.68509E+04 -6.72936E+03 -7.64644E+04  3.35855E+04 -5.44647E+04  4.74037E+04 -1.71343E+04
  4.30303E+04  1.12081E+04  3.15246E+04  2.51605E+04  1.58718E+04  2.91817E+04 -5.09805E+03  2.69615E+04
 -2.20752E+04  1.27434E+04 -1.86854E+04 -4.84175E+03  5.17644E+03 -7.41959E+03  2.21211E+04  1.19047E+04
  7.18373E+03  3.48324E+04 -3.15633E+04  3.51618E+04 -6.26128E+04  2.21848E+03 -5.67951E+04 -4.25369E+04
 -1.25412E+04 -6.25081E+04  3.92687E+04 -4.47934E+04  5.76714E+04 -2.09879E+03  3.36167E+04  3.13663E+04
 -6.30264E+03  3.54636E+04 -2.95822E+04  1.50640E+04 -2.99468E+04 -4.79223E+03 -1.59894E+04 -1.06664E+04
 -7.75541E+03 -1.28861E+04 -7.19671E+02 -1.75930E+04  7.75420E+03 -2.26993E+04  1.54601E+04 -1.38753E+04
  1.11045E+04  4.90599E+03 -7.90032E+03  1.31558E+04 -2.07479E+04 -3.92471E+03 -7.91682E+03 -3.28697E+04
  2.23685E+04 -4.28125E+04  4.69217E+04 -1.93565E+04  4.42001E+04  1.89448E+04  1.52392E+04  4.35577E+04
 -1.58454E+04  3.27125E+04 -2.47704E+04  1.57618E+03 -9.60816E+03 -2.73104E+04  2.11859E+04 -3.31761E+04
  4.04574E+04 -8.79308E+03  3.44881E+04  2.34989E+04  1.75814E+04  4.58355E+04 -7.73117E+03  4.88351E+04
 -3.06023E+04  3.28157E+04 -4.11494E+04  9.38871E+03 -4.16138E+04 -1.59031E+04 -2.30801E+04 -3.70038E+04
  7.37675E+03 -3.68751E+04  3.09327E+04 -1.40457E+04  2.89659E+04  1.08232E+04  3.47631E+03  1.92522E+04
 -1.37606E+04  8.10600E+03 -1.01539E+04 -7.84686E+03  5.87978E+03 -1.05102E+04  1.80695E+04  5.97032E+03
  1.31870E+04  2.18660E+04 -6.18301E+03  2.48287E+04 -2.21827E+04  1.12132E+04 -2.73490E+04 -4.79450E+03
 -1.93984E+04 -1.72980E+04 -7.57336E+03 -1.95267E+04  4.12348E+03 -1.82956E+04  1.50781E+04 -1.71467E+04
  2.50906E+04 -1.26045E+04  3.15234E+04  2.24559E+03  2.31300E+04  1.90936E+04  4.27842E+03  3.56829E+04
 -1.75740E+04  2.96573E+04 -2.76064E+04  1.04787E+04 -2.03883E+04 -1.04168E+04 -4.16758E+03 -1.34097E+04
  1.98307E+03 -2.88764E+03 -4.75017E+03  6.71063E+03 -1.56253E+04  5.16993E+03 -1.58102E+04 -6.75366E+03
 -9.78005E+03 -1.81156E+04  5.00034E+03 -2.23691E+04  1.46614E+04 -1.58131E+04  1.76018E+04 -1.54456E+03
  1.07959E+04  1.26186E+04 -9.10774E+02  1.81575E+04 -1.24985E+04  1.01780E+04 -1.84934E+04 -3.91216E+03
 -1.34227E+04 -1.64158E+04 -1.80216E+03 -2.22400E+04  1.02074E+04 -1.80365E+04  1.81116E+04 -9.24858E+03
  1.71071E+04 -1.24224E+02  1.19526E+04  4.07540E+03  6.52659E+03  1.06632E+03  9.44298E+03 -1.45175E+03
  1.67574E+04  2.93584E+03  1.83277E+04  1.45440E+04  1.18511E+04  2.92298E+04 -2.85149E+03  3.26045E+04
 -1.90869E+04  2.60073E+04 -3.00373E+04  1.26685E+04 -3.15805E+04 -2.29552E+03 -2.63432E+04 -1.83550E+04
 -1.18196E+04 -2.60340E+04  8.82084E+03 -2.38228E+04  2.05264E+04 -1.21700E+04  1.84451E+04  5.07919E+03
  7.09471E+03  1.37622E+04 -8.67783E+03  1.21527E+04 -1.56012E+04  2.86905E+03 -1.23579E+04 -9.36658E+03
 -1.49302E+02 -1.46840E+04  7.36174E+03 -1.09931E+04  9.65879E+03 -1.49804E+03  1.99879E+03  6.48070E+03
 -6.66980E+03  2.48124E+03 -5.38682E+03 -5.46163E+03 -2.87515E+02 -1.29079E+04  9.39023E+03 -1.31554E+04
  1.58230E+04 -6.66971E+03  1.68148E+04  2.83876E+03  1.43827E+04  1.28098E+04  6.97365E+03  1.93077E+04
 -3.10760E+03  2.09097E+04 -1.32102E+04  1.30928E+04 -1.50822E+04  3.18204E+03 -1.02969E+04 -3.13442E+03
 -4.81761E+03 -4.69316E+03 -1.06685E+03  1.20117E+03 -2.56170E+03  2.82944E+03 -4.98549E+03  4.13551E+03
 -9.96200E+03 -5.76012E+02 -1.06971E+04 -8.65353E+03 -4.29394E+03 -1.40295E+04  4.52386E+03 -1.09983E+04
  9.12230E+03 -4.53544E+03  6.18397E+03  2.88811E+03  1.67429E+02  4.07245E+03 -4.81751E+03 -8.37794E+01
 -4.98340E+03 -6.78454E+03 -9.05659E+02 -1.00678E+04  5.59113E+03 -1.06472E+04  1.35640E+04 -5.34997E+03
  1.58260E+04  1.12587E+03  1.15692E+04  8.68149E+03  2.19036E+03  1.23317E+04 -6.66953E+03  1.04966E+04
 -8.62980E+03  3.13072E+03 -4.42616E+03 -2.12622E+03  1.55691E+03 -2.85883E+03  5.91511E+03 -1.14220E+03
  4.93262E+03  4.89700E+03  1.43415E+03  8.54267E+03 -6.11792E+03  7.93927E+03 -1.03119E+04  2.14485E+03
 -6.61803E+03 -5.18931E+03  1.76793E+02 -9.02593E+03  5.26482E+03 -4.51257E+03  5.05505E+03  1.57160E+03
  9.22827E+02  5.42390E+03 -5.18303E+03  6.70049E+03 -7.46053E+03  3.55592E+03 -7.51433E+03 -2.46214E+03
 -4.43030E+03 -9.14579E+03  2.25935E+03 -1.09012E+04  8.78885E+03 -6.97292E+03  9.98918E+03  1.44466E+03
  6.48556E+03  7.81571E+03 -5.45423E+02  9.94610E+03 -6.99498E+03  5.70819E+03 -7.45292E+03 -5.45366E+02
 -7.14920E+03 -6.87026E+03 -1.50263E+03 -7.53313E+03  3.77557E+03 -6.66993E+03  4.67837E+03 -2.94178E+03
  3.75795E+03  5.73932E+02 -4.24164E+02  1.70154E+03  2.17389E+02 -1.44417E+03  7.61991E+02 -3.63580E+03
  6.12917E+03 -2.04742E+03  8.96676E+03  1.27383E+03  8.94186E+03  5.53402E+03  6.64561E+03  1.13745E+04
 -2.48536E+03  1.34960E+04 -1.16095E+04  1.00055E+04 -1.48029E+04  1.98761E+03 -1.20947E+04 -4.58370E+03
 -6.01420E+03 -9.94230E+03 -4.49237E+02 -7.87876E+03  3.29426E+03 -4.02720E+03  2.58558E+03 -2.90339E+03
  1.73837E+03 -1.95406E+03  2.63154E+03 -2.85910E+03  4.27628E+03 -2.02078E+03  5.15801E+03 -4.05763E+02
  6.70844E+03  1.80473E+03  2.25680E+03  5.32062E+03 -1.75513E+03  5.52297E+03 -6.54450E+03  4.50707E+03
 -8.15262E+03 -1.09474E+03 -4.01732E+03 -5.47121E+03 -1.50230E+02 -8.22528E+03  5.07932E+03 -8.74916E+03
  8.25388E+03 -5.08878E+03  1.08404E+04  9.84812E+02  7.60839E+03  7.11686E+03  1.42455E+03  9.82813E+03
 -3.71196E+03  8.54891E+03 -5.25986E+03  2.73529E+03 -3.76834E+03 -1.32537E+03 -9.96871E+02 -1.26539E+03
 -8.39996E+02  3.01140E+02 -1.24886E+03  2.35879E+03 -3.61487E+03  1.38029E+03 -5.68361E+03 -6.99684E+02
 -3.33601E+03 -5.91415E+03  3.96880E+02 -7.76409E+03  4.43479E+03 -7.01194E+03  7.04950E+03 -1.94541E+03
  7.21115E+03  3.53101E+03  3.18833E+03  6.33735E+03 -1.39065E+03  7.74608E+03 -5.04929E+03  4.69118E+03
 -6.60122E+03  5.30813E+02 -5.67933E+03 -4.67519E+03 -4.86459E+02 -6.00858E+03  3.00791E+03 -4.51497E+03
  5.00860E+03 -1.74748E+03  2.86585E+03  9.89864E+02  1.37207E+03  2.47020E+03  1.06495E+03  4.92270E+02
  2.02752E+03  5.06525E+02  1.84898E+03  1.34441E+03  1.93318E+03  3.12245E+03  2.11017E+03  3.56535E+03
 -1.76435E+03  5.80186E+03 -4.76805E+03  6.34479E+03 -6.61592E+03  1.76996E+03 -7.65357E+03 -1.82176E+03
 -3.68029E+03 -7.31120E+03  8.88021E+02 -8.16102E+03  4.25747E+03 -4.89098E+03  5.96966E+03 -1.37879E+03
  4.53270E+03  3.01628E+03  1.03705E+03  4.18089E+03 -1.58655E+03  2.82045E+03 -2.45563E+03 -1.03956E+02
 -1.31389E+03 -2.95919E+03  1.61215E+03 -2.77030E+03  2.90177E+03 -1.61594E+03  2.65133E+03  7.70280E+02
  1.40188E+03  9.74821E+02  7.92200E+02  8.76905E+02 -4.45950E+02  1.35811E+03  1.48938E+03 -2.88660E+02
  6.63773E+02 -5.23557E+02  2.90544E+03  9.28577E+02  1.36637E+03  3.91164E+03 -3.97688E+02  5.17445E+03
 -3.51765E+03  2.89342E+03 -4.17047E+03  8.49259E+02 -4.15648E+03 -1.53228E+03 -1.36659E+03 -2.29942E+03
  4.75009E+02 -2.38341E+03  1.86317E+03 -1.57865E+03  1.36495E+03  1.49229E+03 -1.03012E+03  2.35538E+03
 -2.76386E+03  1.29800E+03 -2.94905E+03 -2.30084E+03 -1.75316E+03 -3.90704E+03  7.65591E+02 -3.32957E+03
  1.82018E+03 -1.83747E+03  2.11999E+03  9.16213E+01  2.30005E+03  3.47175E+02  4.02590E+02  2.23013E+03
 -9.67800E+02  5.23283E+02 -1.69712E+03 -7.19400E+02  1.18563E+03 -2.70695E+03  3.23642E+03 -2.22939E+03
  3.53020E+03  2.22108E+02  4.61843E+03  2.45416E+03  1.87796E+03  4.03023E+03 -1.01700E+03  3.93381E+03
 -3.29173E+03  1.34569E+03 -3.28970E+03 -2.14785E+02 -1.79251E+03 -2.81064E+03  6.34027E+02 -2.30779E+03
  2.81986E+03 -1.28704E+03  1.69578E+03  1.41936E+03  2.96464E+02  2.13457E+03 -1.54076E+01  2.12014E+03
 -8.51283E+02  1.79667E+03 -1.35684E+03  4.63346E+02 -1.21946E+01  5.53895E+02 -1.05535E+03  7.63891E+02
 -1.26229E+03  1.44819E+03 -3.04042E+03  1.14102E+03 -3.87854E+03  3.13336E+02 -4.67024E+03 -2.61150E+03
 -2.37324E+03 -5.09100E+03  1.29000E+03 -6.18168E+03  3.16558E+03 -4.97110E+03  5.96433E+03 -1.85675E+03
  5.46485E+03  6.02406E+02  3.38919E+03  3.61093E+03 -2.25396E+02  3.91126E+03 -1.52677E+03  3.00138E+03
 -2.42007E+03  1.26442E+03 -1.21464E+03 -2.36699E+02 -7.07698E+02 -1.70687E+02 -8.22530E+02 -3.47751E+01
 -1.34113E+03  4.67194E+01 -1.21970E+03 -9.74682E+01 -3.73998E+02 -1.18895E+03 -3.29686E+02 -1.35982E+03
  2.00505E+03 -1.12663E+03  2.02839E+03  1.69190E+02  2.58506E+03  2.37415E+03  3.71796E+02  3.86601E+03
 -1.84735E+03  4.82388E+03 -4.08769E+03  2.91373E+03 -4.60530E+03 -4.94918E+02 -3.37804E+03 -2.91774E+03
 -1.85395E+03 -4.11926E+03  1.03605E+03 -3.34357E+03  2.21677E+03 -1.82734E+03  2.30445E+03  1.19672E+02
  1.69498E+03  9.36761E+02  1.47497E+01  1.04517E+03 -7.49149E+02  4.87376E+00  1.89979E+02 -9.59794E+02
  1.35814E+03 -2.36787E+02  1.17083E+03  5.34368E+02  7.73558E+02  1.25079E+03  2.79107E+02  1.47209E+03
 -1.69484E+03  1.87473E+03 -1.95356E+03  3.97768E+02 -2.45922E+03 -1.56853E+03 -1.70498E+02 -3.05000E+03
  1.75995E+03 -2.31116E+03  2.49274E+03 -6.35759E+02  2.68544E+03  2.61623E+02  1.55335E+03  2.05951E+03
  1.01978E+03  1.84733E+03 -1.30568E+03  1.57854E+03 -1.61525E+03  1.32932E+03 -1.11909E+03  1.15406E+02
 -9.29920E+02 -3.07798E+02 -1.00547E+03  5.22138E+02 -1.57678E+03  2.29785E+02 -1.77492E+03 -6.87504E+02
 -2.03110E+03 -6.65745E+02 -7.54667E+02 -2.30025E+03  1.51725E+03 -3.09035E+03  2.33354E+03 -1.11034E+03
  2.32797E+03  2.69485E+01  7.52256E+02  1.36764E+03 -1.42032E+02  2.04836E+03 -1.56931E+03  1.62721E+03
