 $NMID ID='MM_0lb_SNR800_18hz_g40_36.RAW', FMTDAT='(8E13.5)'
 TRAMP=1., VOLUME=1. $END
  3.09796E+05  5.32056E+02  3.37464E+05  2.50303E+05  8.41027E+04  3.37266E+05 -1.32380E+05  2.50060E+05
 -1.89588E+05  8.24812E+04 -1.10832E+05 -3.29811E+04  1.65350E+03 -5.06080E+04  5.39510E+04  2.07064E+02
  3.50590E+04  5.27322E+04 -1.70371E+04  7.49999E+04 -6.00789E+04  6.25216E+04 -8.27877E+04  3.13920E+04
 -7.93153E+04 -1.09826E+04 -5.60395E+04 -5.00747E+04 -1.48911E+04 -6.79874E+04  2.66398E+04 -4.46579E+04
  3.88765E+04  3.66593E+03  1.54651E+04  4.67383E+04 -3.38516E+04  4.60396E+04 -6.50783E+04 -3.83790E+02
 -5.17920E+04 -5.59688E+04 -6.05933E+03 -7.50724E+04  3.30002E+04 -5.28125E+04  4.61380E+04 -1.63083E+04
  4.12786E+04  1.11038E+04  3.05386E+04  2.43168E+04  1.57163E+04  2.83746E+04 -4.54530E+03  2.67520E+04
 -2.13791E+04  1.29289E+04 -1.94658E+04 -4.67793E+03  3.93299E+03 -7.79379E+03  2.11052E+04  1.05819E+04
  7.52896E+03  3.29117E+04 -3.03211E+04  3.39318E+04 -6.07903E+04  1.97812E+03 -5.54464E+04 -4.11331E+04
 -1.23592E+04 -6.02717E+04  3.78078E+04 -4.31916E+04  5.50690E+04 -2.01913E+03  3.15491E+04  3.03051E+04
 -6.54693E+03  3.27402E+04 -2.82885E+04  1.31255E+04 -2.73934E+04 -5.45448E+03 -1.41148E+04 -9.85792E+03
 -7.14411E+03 -1.09873E+04 -9.37980E+02 -1.66434E+04  6.60584E+03 -2.25878E+04  1.50413E+04 -1.38683E+04
  1.23596E+04  3.82063E+03 -5.91851E+03  1.30892E+04 -1.91937E+04 -2.35328E+03 -7.99560E+03 -2.98653E+04
  2.03064E+04 -4.02406E+04  4.42276E+04 -1.85119E+04  4.15174E+04  1.84007E+04  1.41748E+04  4.15825E+04
 -1.52573E+04  3.10410E+04 -2.32012E+04  8.93795E+02 -8.08862E+03 -2.63814E+04  2.02370E+04 -3.06750E+04
  3.76818E+04 -7.17983E+03  3.13853E+04  2.25616E+04  1.51862E+04  4.20895E+04 -7.83702E+03  4.46262E+04
 -2.81439E+04  2.93640E+04 -3.71785E+04  8.31757E+03 -3.80069E+04 -1.49190E+04 -2.11391E+04 -3.39846E+04
  6.63184E+03 -3.36846E+04  2.86354E+04 -1.23899E+04  2.67625E+04  1.05321E+04  3.08457E+03  1.73895E+04
 -1.29695E+04  7.39228E+03 -9.53512E+03 -7.69073E+03  6.02259E+03 -1.02428E+04  1.73538E+04  6.52772E+03
  1.21173E+04  2.15468E+04 -6.78989E+03  2.32205E+04 -2.13886E+04  8.98668E+03 -2.52351E+04 -6.23871E+03
 -1.65405E+04 -1.65935E+04 -5.27162E+03 -1.66412E+04  3.64087E+03 -1.43441E+04  1.22237E+04 -1.41661E+04
  2.10380E+04 -1.16467E+04  2.77815E+04  1.02002E+03  2.12630E+04  1.60836E+04  3.91329E+03  3.20932E+04
 -1.61776E+04  2.70337E+04 -2.59561E+04  9.28904E+03 -1.95304E+04 -1.04037E+04 -3.99137E+03 -1.40045E+04
  2.66758E+03 -4.12240E+03 -2.32303E+03  5.51967E+03 -1.29849E+04  4.92342E+03 -1.29341E+04 -4.94120E+03
 -8.37270E+03 -1.53802E+04  4.60519E+03 -1.91329E+04  1.26590E+04 -1.39846E+04  1.46592E+04 -1.49330E+03
  8.56607E+03  1.05183E+04 -7.83372E+02  1.55209E+04 -1.00779E+04  8.46638E+03 -1.52220E+04 -3.29584E+03
 -1.13247E+04 -1.37333E+04 -1.47018E+03 -1.88014E+04  8.60230E+03 -1.51841E+04  1.59817E+04 -6.90113E+03
  1.41968E+04  8.96366E+02  1.04317E+04  3.90005E+03  4.99230E+03  6.32398E+02  7.75869E+03 -1.47268E+03
  1.40081E+04  2.46213E+03  1.44762E+04  1.26426E+04  9.08755E+03  2.45524E+04 -2.80323E+03  2.62983E+04
 -1.52810E+04  2.00450E+04 -2.42179E+04  9.56320E+03 -2.47464E+04 -1.90938E+03 -2.10682E+04 -1.37707E+04
 -9.73798E+03 -2.02234E+04  6.51236E+03 -1.87383E+04  1.66458E+04 -1.10854E+04  1.53324E+04  3.57638E+03
  6.40231E+03  1.10923E+04 -6.74010E+03  1.03199E+04 -1.32750E+04  2.47882E+03 -1.01408E+04 -7.85215E+03
 -1.79674E+02 -1.22615E+04  5.77904E+03 -9.35576E+03  7.85148E+03 -1.45797E+03  1.24739E+03  5.11912E+03
 -5.34640E+03  1.23540E+03 -3.56890E+03 -4.47711E+03  7.73461E+02 -1.02089E+04  7.65623E+03 -9.85686E+03
  1.21704E+04 -4.88037E+03  1.17010E+04  2.61807E+03  1.02237E+04  9.47075E+03  4.80497E+03  1.38401E+04
 -1.70526E+03  1.57639E+04 -9.80643E+03  1.00588E+04 -1.07624E+04  2.85160E+03 -8.47375E+03 -1.69779E+03
 -4.20315E+03 -3.35607E+03 -3.99564E+02  1.41661E+03 -1.80421E+03  1.81820E+03 -3.49114E+03  3.38214E+03
 -8.07231E+03 -4.95317E+02 -8.52460E+03 -7.10154E+03 -3.65555E+03 -1.12457E+04  3.51643E+03 -8.79254E+03
  7.38110E+03 -3.93238E+03  5.05520E+03  1.88840E+03  5.22184E+02  3.16481E+03 -3.38574E+03 -2.94870E+02
 -3.54712E+03 -5.08449E+03 -6.24288E+02 -6.89498E+03  4.01205E+03 -7.78237E+03  9.96710E+03 -4.22598E+03
  1.17290E+04  5.33271E+02  8.62997E+03  5.82419E+03  2.12313E+03  8.25502E+03 -4.95445E+03  8.25647E+03
 -6.84304E+03  2.77424E+03 -3.77072E+03 -1.08068E+03  1.40614E+03 -1.82822E+03  4.74668E+03 -1.03810E+03
  4.23915E+03  3.24597E+03  1.13452E+03  6.17495E+03 -4.43278E+03  6.31989E+03 -7.84597E+03  1.56404E+03
 -5.06331E+03 -3.63890E+03  3.80379E+02 -6.55596E+03  3.77025E+03 -3.33563E+03  3.51910E+03  9.10716E+02
  5.50005E+02  3.46954E+03 -4.05621E+03  4.48021E+03 -4.50434E+03  2.76457E+03 -4.56920E+03 -1.19181E+03
 -2.73267E+03 -5.99750E+03  1.19520E+03 -7.09892E+03  6.24483E+03 -4.59090E+03  6.29481E+03  1.05014E+03
  4.67623E+03  5.23157E+03  1.30150E+02  7.23435E+03 -4.80651E+03  4.27131E+03 -5.08330E+03 -3.29288E+02
 -5.75166E+03 -5.06789E+03 -1.21012E+03 -4.98447E+03  2.71247E+03 -4.49163E+03  2.80057E+03 -2.92273E+03
  2.66818E+03  1.83287E+02  1.25639E+02  1.28413E+03  5.52395E+02 -4.35922E+02  5.09082E+01 -1.74497E+03
  3.72273E+03 -8.05362E+02  5.25007E+03  6.85669E+02  5.66864E+03  2.79157E+03  5.36459E+03  7.32696E+03
 -1.22685E+03  8.59513E+03 -7.88224E+03  6.34043E+03 -1.00381E+04  1.19386E+03 -8.11972E+03 -2.68943E+03
 -4.36391E+03 -6.52758E+03 -4.40699E+02 -5.18309E+03  1.99426E+03 -2.22618E+03  1.65235E+03 -2.26254E+03
  1.41105E+03 -1.61126E+03  2.33358E+03 -2.16794E+03  3.68596E+03 -1.42428E+03  3.70725E+03  4.25375E+02
  4.66455E+03  1.08234E+03  1.17842E+03  3.22017E+03 -1.61637E+03  2.79423E+03 -4.40834E+03  2.46032E+03
 -5.05901E+03 -1.20321E+03 -2.03077E+03 -3.24366E+03  5.12453E+02 -4.95536E+03  3.02054E+03 -5.54018E+03
  5.13900E+03 -3.42546E+03  6.71844E+03  1.72248E+02  4.65107E+03  4.00335E+03  9.30695E+02  6.03540E+03
 -2.19100E+03  6.00184E+03 -3.45374E+03  1.65560E+03 -1.77838E+03 -1.04280E+03 -6.87835E+02 -5.75288E+02
 -6.70000E+02  6.53267E+02 -1.04711E+03  1.71080E+03 -2.59290E+03  1.15047E+03 -4.22826E+03 -3.37553E+02
 -1.62045E+03 -4.08893E+03  7.21506E+02 -4.59912E+03  2.83861E+03 -4.56873E+03  3.91565E+03 -1.05135E+03
  4.31471E+03  2.42458E+03  1.89957E+03  3.45682E+03 -8.28991E+02  4.56357E+03 -2.58076E+03  3.02439E+03
 -3.87002E+03  5.05517E+02 -3.59561E+03 -2.19458E+03 -2.74757E+02 -3.31843E+03  1.82304E+03 -2.49387E+03
  2.87820E+03 -1.55416E+03  1.89228E+03  5.44282E+02  3.92871E+02  1.68684E+03  6.66905E+02  8.63685E+02
  1.84810E+03  4.78910E+02  9.70553E+02  1.13586E+03  1.39658E+03  2.23621E+03  1.12046E+03  2.02975E+03
 -1.31454E+03  3.07272E+03 -2.47203E+03  4.14468E+03 -3.17112E+03  1.22816E+03 -4.12478E+03 -7.06089E+02
 -1.57558E+03 -3.65813E+03  6.68581E+02 -4.85333E+03  1.87173E+03 -2.68169E+03  3.09230E+03 -8.40869E+02
  2.61797E+03  1.95913E+03  3.69680E+02  2.36273E+03 -1.01284E+03  1.25589E+03 -1.24292E+03 -1.06826E+02
 -6.09218E+02 -1.33934E+03  1.17216E+03 -1.64670E+03  1.51511E+03 -1.08291E+03  1.51822E+03  1.93700E+02
  1.00335E+03  4.92481E+02  4.83915E+02 -3.21906E+02 -3.37068E+02  8.37702E+02  1.36106E+03 -7.82200E+01
  2.62902E+01  5.10915E+01  1.91803E+03  7.61199E+02  1.87741E+02  2.32910E+03 -4.64296E+02  2.97519E+03
 -1.59486E+03  1.09778E+03 -2.22926E+03  5.01055E+02 -2.13944E+03 -4.66358E+02 -1.22267E+02 -1.27878E+03
  3.67639E+02 -1.46818E+03  1.05443E+03 -7.32618E+02  8.67450E+02  1.16760E+03 -6.84178E+02  9.63049E+02
 -1.71464E+03  6.99642E+02 -1.31006E+03 -1.32453E+03 -6.29624E+02 -2.22499E+03 -1.06468E+02 -1.52264E+03
  5.49261E+02 -5.43289E+02  9.59285E+02 -1.25456E+02  1.51114E+03 -1.98883E+02  4.03065E+02  1.32007E+03
 -3.41708E+02  2.37350E+02 -1.01619E+03 -3.35709E+02  6.59327E+02 -8.84818E+02  1.60750E+03 -7.75765E+02
  1.21909E+03  2.66135E+02  2.74790E+03  1.19649E+03  1.16544E+03  1.86018E+03 -4.39235E+02  2.06755E+03
 -1.76056E+03  3.51596E+02 -1.45104E+03  1.42670E+02 -7.73869E+02 -1.54687E+03  4.68992E+02 -6.76806E+02
  1.62737E+03 -6.38912E+02  5.22528E+02  6.86766E+02  4.31499E+02  1.62593E+03  2.90230E+02  1.35422E+03
 -3.47738E+02  1.10947E+03 -5.34886E+02 -1.71236E+01  9.11622E+01  2.32850E+02 -7.02745E+02  5.61996E+02
 -6.79522E+02  1.45174E+03 -1.84009E+03  6.93341E+02 -1.85372E+03  5.24874E+01 -2.60794E+03 -1.11535E+03
 -1.14573E+03 -2.50596E+03  5.72920E+02 -3.10105E+03  1.17885E+03 -2.58689E+03  3.03609E+03 -1.17423E+03
  2.62616E+03  1.62162E+02  1.37195E+03  1.72919E+03 -4.17575E+02  1.61504E+03 -7.48256E+02  1.30301E+03
 -1.12244E+03  7.66238E+02 -5.03482E+02 -2.83657E+02 -5.12627E+02  1.97634E+02 -7.28405E+02 -1.71520E+02
 -1.02080E+03 -6.52551E+01 -9.13532E+02  1.76744E+02  2.08739E+02 -3.60860E+02 -4.60792E+02 -9.43294E+02
  1.41273E+03 -7.54509E+02  4.89245E+02  3.55239E+02  1.02055E+03  1.04839E+03 -4.15131E+02  1.61675E+03
 -1.18113E+03  2.37466E+03 -2.02149E+03  1.47005E+03 -1.97257E+03 -4.77919E+02 -1.07756E+03 -1.46746E+03
 -1.01463E+03 -1.79218E+03  3.60116E+02 -1.48478E+03  6.20849E+02 -6.63466E+02  6.35622E+02  2.86506E+02
  4.79699E+02  6.09863E+02  1.24881E+02  5.56926E+02 -3.30959E+02 -1.68706E+01 -4.16126E+02 -3.19495E+02
  4.82384E+02  5.70909E+01  4.36606E+02  5.06046E+02  3.01882E+02  6.79379E+02  5.85673E+02  1.82276E+02
 -6.10162E+02  6.04140E+02 -6.11071E+02  2.96787E+02 -7.61307E+02 -6.71798E+02  1.17579E+02 -1.05412E+03
  3.06555E+02 -7.69833E+02  4.36341E+02  8.09673E+01  9.17463E+02 -6.15394E+02  6.85510E+02  9.22476E+02
  4.72716E+02  7.00719E+02 -5.74341E+01  5.17205E+02 -6.75523E+02  5.14072E+02 -5.08008E+02 -7.19897E+01
  1.76360E+02 -2.75891E+02 -4.79546E+02  1.44071E+02 -8.24374E+02  1.24383E+02 -8.77238E+02 -2.94852E+02
 -1.26272E+03  3.52020E+02 -7.47113E+02 -1.02510E+03  8.20783E+02 -1.65136E+03  8.33259E+02 -2.74868E+02
  6.40599E+02  1.26073E+02 -2.60747E+02  4.79651E+02 -2.12782E+02  7.66754E+02 -2.50955E+02  6.58159E+02
