 $NMID ID='MM_0lb_SNR800_15hz_g50_8.RAW', FMTDAT='(8E13.5)'
 TRAMP=1., VOLUME=1. $END
  3.09997E+05  6.61567E+02  3.37638E+05  2.50846E+05  8.46522E+04  3.38007E+05 -1.32530E+05  2.50879E+05
 -1.90065E+05  8.31767E+04 -1.11679E+05 -3.24513E+04  1.03906E+03 -5.05763E+04  5.36568E+04 -3.50933E+02
  3.54994E+04  5.30834E+04 -1.68525E+04  7.52529E+04 -6.08205E+04  6.32784E+04 -8.37882E+04  3.21537E+04
 -8.08471E+04 -1.14129E+04 -5.73563E+04 -5.12408E+04 -1.51019E+04 -6.95774E+04  2.72372E+04 -4.53326E+04
  3.98812E+04  3.94028E+03  1.59694E+04  4.77585E+04 -3.42675E+04  4.70819E+04 -6.63497E+04 -2.08384E+02
 -5.32867E+04 -5.66241E+04 -6.55193E+03 -7.67106E+04  3.37258E+04 -5.47024E+04  4.77011E+04 -1.72731E+04
  4.28114E+04  1.10434E+04  3.16982E+04  2.52651E+04  1.59016E+04  2.93283E+04 -4.88533E+03  2.71799E+04
 -2.23364E+04  1.23745E+04 -1.87049E+04 -4.91595E+03  5.35942E+03 -7.62500E+03  2.22500E+04  1.19689E+04
  7.43089E+03  3.53297E+04 -3.18516E+04  3.54332E+04 -6.28633E+04  2.26932E+03 -5.67663E+04 -4.24582E+04
 -1.23902E+04 -6.27610E+04  3.95169E+04 -4.50622E+04  5.77727E+04 -2.13801E+03  3.38066E+04  3.21671E+04
 -6.11439E+03  3.56443E+04 -2.98870E+04  1.55277E+04 -2.97234E+04 -4.79406E+03 -1.63670E+04 -1.06004E+04
 -8.11751E+03 -1.25048E+04 -9.87275E+02 -1.78000E+04  7.21569E+03 -2.33174E+04  1.52322E+04 -1.33546E+04
  1.12823E+04  5.07397E+03 -7.87295E+03  1.27632E+04 -2.10242E+04 -3.85599E+03 -8.03457E+03 -3.31513E+04
  2.26750E+04 -4.29236E+04  4.73910E+04 -1.94078E+04  4.44692E+04  1.96767E+04  1.52140E+04  4.35536E+04
 -1.62320E+04  3.30311E+04 -2.50112E+04  2.01832E+03 -9.43011E+03 -2.78275E+04  2.07898E+04 -3.35181E+04
  4.06111E+04 -9.10895E+03  3.52353E+04  2.38332E+04  1.74580E+04  4.54816E+04 -7.87688E+03  4.91942E+04
 -3.11221E+04  3.30955E+04 -4.12904E+04  9.38412E+03 -4.17859E+04 -1.61817E+04 -2.30557E+04 -3.72241E+04
  7.04715E+03 -3.71700E+04  3.10768E+04 -1.45791E+04  2.87322E+04  1.11745E+04  3.77867E+03  1.89693E+04
 -1.35266E+04  8.39393E+03 -1.04876E+04 -7.77784E+03  5.96949E+03 -1.07712E+04  1.77704E+04  6.05526E+03
  1.32753E+04  2.16838E+04 -5.99903E+03  2.47490E+04 -2.22340E+04  1.12104E+04 -2.73454E+04 -5.37967E+03
 -1.99085E+04 -1.70600E+04 -7.96304E+03 -1.97960E+04  4.06069E+03 -1.87767E+04  1.50557E+04 -1.79095E+04
  2.56641E+04 -1.22776E+04  3.17926E+04  2.42403E+03  2.35699E+04  1.91914E+04  4.38131E+03  3.55394E+04
 -1.73742E+04  2.99633E+04 -2.75676E+04  9.97183E+03 -2.04246E+04 -1.07317E+04 -4.31120E+03 -1.36557E+04
  1.83841E+03 -2.84398E+03 -4.32848E+03  6.53160E+03 -1.55363E+04  4.99062E+03 -1.58704E+04 -6.55822E+03
 -9.76415E+03 -1.81680E+04  4.93330E+03 -2.21292E+04  1.45199E+04 -1.62479E+04  1.72036E+04 -1.58688E+03
  1.09195E+04  1.23992E+04 -5.98635E+02  1.85477E+04 -1.24445E+04  1.04809E+04 -1.86700E+04 -3.83496E+03
 -1.34693E+04 -1.66012E+04 -1.47231E+03 -2.21724E+04  9.97259E+03 -1.82142E+04  1.86787E+04 -8.70562E+03
  1.71349E+04  4.00375E+02  1.26195E+04  4.49778E+03  6.52588E+03  8.70538E+02  8.89194E+03 -1.55363E+03
  1.67334E+04  2.47272E+03  1.83698E+04  1.44874E+04  1.20323E+04  2.90306E+04 -2.80745E+03  3.24717E+04
 -1.91106E+04  2.60852E+04 -3.03450E+04  1.29933E+04 -3.19642E+04 -2.45519E+03 -2.63531E+04 -1.84666E+04
 -1.12996E+04 -2.58437E+04  8.75462E+03 -2.36710E+04  2.03883E+04 -1.25053E+04  1.84660E+04  5.05609E+03
  7.13297E+03  1.39497E+04 -8.82827E+03  1.20190E+04 -1.59510E+04  2.84036E+03 -1.18586E+04 -9.17342E+03
 -8.63280E+01 -1.49397E+04  7.39938E+03 -1.13318E+04  9.81975E+03 -1.49097E+03  1.82701E+03  6.31718E+03
 -6.43290E+03  2.18597E+03 -5.39943E+03 -5.51811E+03 -1.80780E+02 -1.28387E+04  9.43645E+03 -1.32775E+04
  1.57034E+04 -7.08839E+03  1.67859E+04  2.97539E+03  1.44042E+04  1.27397E+04  6.51668E+03  1.89533E+04
 -2.81054E+03  2.10696E+04 -1.32469E+04  1.31667E+04 -1.44934E+04  3.16928E+03 -1.11414E+04 -3.21104E+03
 -5.36030E+03 -4.77144E+03 -6.72690E+02  9.92554E+02 -2.27083E+03  2.17238E+03 -4.62552E+03  4.15890E+03
 -9.86639E+03 -4.98151E+02 -1.05469E+04 -9.01870E+03 -4.12978E+03 -1.38610E+04  4.34288E+03 -1.11428E+04
  8.84303E+03 -4.74741E+03  6.03507E+03  2.92989E+03  3.67662E+02  4.01455E+03 -4.78438E+03 -3.13529E+02
 -4.67269E+03 -6.88278E+03 -5.21629E+02 -9.97987E+03  5.61850E+03 -1.05909E+04  1.31343E+04 -5.33177E+03
  1.52803E+04  1.02639E+03  1.11529E+04  8.76916E+03  2.36433E+03  1.16999E+04 -7.13568E+03  1.06187E+04
 -8.57344E+03  3.76739E+03 -4.55404E+03 -1.84123E+03  1.36629E+03 -2.71385E+03  5.94671E+03 -6.93065E+02
  4.91402E+03  4.51179E+03  1.05542E+03  8.42185E+03 -5.77190E+03  8.25793E+03 -1.01609E+04  1.95691E+03
 -6.71139E+03 -5.01414E+03  2.50103E+02 -8.72486E+03  5.22483E+03 -4.66660E+03  5.04868E+03  1.74421E+03
  9.84830E+02  5.31681E+03 -5.09169E+03  7.08624E+03 -7.49900E+03  3.00012E+03 -7.29104E+03 -2.54255E+03
 -4.55358E+03 -9.01279E+03  1.85534E+03 -1.04570E+04  8.48620E+03 -6.44987E+03  9.59808E+03  1.91018E+03
  6.10071E+03  7.75333E+03 -5.22765E+02  9.88624E+03 -7.07399E+03  5.78616E+03 -7.53939E+03 -7.88351E+02
 -6.98427E+03 -6.68117E+03 -1.46993E+03 -7.30043E+03  3.54723E+03 -5.87788E+03  4.29088E+03 -3.17980E+03
  3.50190E+03  7.36538E+02 -6.92798E+01  1.52091E+03  1.28172E+01 -1.18357E+03  1.06809E+03 -3.34669E+03
  5.94517E+03 -1.86147E+03  8.48157E+03  1.09167E+03  8.23468E+03  5.44233E+03  6.48980E+03  1.13504E+04
 -2.22727E+03  1.30220E+04 -1.11766E+04  9.34821E+03 -1.45013E+04  1.79733E+03 -1.13904E+04 -4.35383E+03
 -5.75022E+03 -9.52657E+03 -5.52864E+02 -7.89738E+03  3.04028E+03 -3.70611E+03  2.76229E+03 -3.12548E+03
  2.36254E+03 -1.68810E+03  2.64024E+03 -2.79574E+03  4.38275E+03 -1.92255E+03  5.09324E+03 -1.06265E+02
  6.27972E+03  1.42700E+03  2.64392E+03  4.97043E+03 -1.78520E+03  5.26965E+03 -6.51094E+03  4.29624E+03
 -7.76604E+03 -1.07262E+03 -3.87438E+03 -4.95034E+03  2.23665E+02 -7.72394E+03  4.52482E+03 -8.38882E+03
  8.23283E+03 -4.92510E+03  9.94152E+03  8.10643E+02  7.22720E+03  6.66934E+03  1.16093E+03  9.21690E+03
 -3.39249E+03  8.33218E+03 -5.21670E+03  2.71438E+03 -3.13794E+03 -1.13677E+03 -1.27133E+03 -1.18796E+03
 -7.00639E+02  3.26372E+02 -1.29156E+03  2.29241E+03 -3.46645E+03  1.19325E+03 -5.62577E+03 -5.66676E+02
 -3.48899E+03 -5.85579E+03  8.53137E+02 -7.38853E+03  4.29867E+03 -6.55316E+03  6.53723E+03 -2.13656E+03
  6.89715E+03  3.75963E+03  3.15426E+03  5.90751E+03 -1.57396E+03  6.97499E+03 -4.54090E+03  4.11058E+03
 -6.29747E+03  6.28710E+02 -5.58253E+03 -4.08461E+03 -5.21009E+02 -5.68158E+03  2.80289E+03 -4.14700E+03
  4.42528E+03 -1.92591E+03  2.61798E+03  9.58026E+02  1.13976E+03  2.74942E+03  1.09175E+03  1.09934E+03
  2.09594E+03  7.45058E+02  1.85930E+03  1.30590E+03  1.83199E+03  2.82157E+03  2.02101E+03  3.21985E+03
 -1.72349E+03  5.11940E+03 -3.90641E+03  5.81368E+03 -6.00744E+03  1.56200E+03 -6.80579E+03 -1.87010E+03
 -3.07307E+03 -6.56985E+03  1.10518E+03 -7.35391E+03  3.61805E+03 -4.42284E+03  5.58364E+03 -1.27801E+03
  4.05539E+03  2.93888E+03  7.44391E+02  3.92059E+03 -1.77631E+03  2.20308E+03 -2.13106E+03 -4.98510E+01
 -1.25450E+03 -3.00568E+03  1.57343E+03 -2.71633E+03  2.47798E+03 -1.58520E+03  2.41139E+03  4.61784E+02
  1.47386E+03  9.25802E+02  1.05535E+03  2.56846E+02 -3.33703E+02  1.11361E+03  1.56526E+03 -3.69303E+02
  5.38407E+02 -4.51434E+02  2.88564E+03  8.43131E+02  8.49412E+02  3.40490E+03 -5.27631E+02  4.82866E+03
 -2.79635E+03  2.60715E+03 -3.84237E+03  9.59165E+02 -3.77480E+03 -1.41989E+03 -8.68963E+02 -2.21517E+03
  5.12055E+02 -2.06147E+03  1.83850E+03 -1.19713E+03  1.35388E+03  1.41676E+03 -1.02733E+03  1.75885E+03
 -2.36194E+03  1.23082E+03 -2.43486E+03 -1.83329E+03 -1.49175E+03 -3.78632E+03  3.63820E+02 -3.00984E+03
  1.28466E+03 -1.42948E+03  2.18880E+03 -1.44724E+02  2.40522E+03  4.20737E+02  4.39859E+02  1.78774E+03
 -1.22478E+03  4.22050E+02 -1.72451E+03 -9.18680E+02  8.94945E+02 -2.03172E+03  3.13520E+03 -2.06423E+03
  3.22532E+03  4.03817E+02  4.07792E+03  1.96958E+03  1.56172E+03  3.53590E+03 -1.04384E+03  3.78771E+03
 -3.13106E+03  1.13197E+03 -2.87119E+03 -2.66182E+02 -1.68919E+03 -2.44062E+03  6.28024E+02 -1.59584E+03
  2.43160E+03 -1.38166E+03  1.86445E+03  1.33321E+03  4.57981E+02  2.26853E+03  2.58723E+01  1.91797E+03
 -5.31782E+02  1.65044E+03 -8.10967E+02  2.19967E+02 -1.80645E+02  5.44264E+02 -1.32685E+03  8.09421E+02
 -1.24999E+03  1.43783E+03 -2.82254E+03  1.27993E+03 -3.52826E+03  2.16625E+02 -4.33780E+03 -2.12054E+03
 -1.86320E+03 -4.41148E+03  9.68542E+02 -5.20936E+03  2.64181E+03 -4.41165E+03  4.95538E+03 -1.93041E+03
  4.37136E+03  4.36828E+02  2.71019E+03  2.91545E+03 -4.05173E+02  3.28339E+03 -1.51913E+03  2.51132E+03
 -1.96039E+03  1.03448E+03 -1.30577E+03 -4.92831E+02 -5.48457E+02 -9.45406E+01 -5.00552E+02  4.48061E+01
 -9.37704E+02  3.75028E+02 -1.36695E+03 -2.30590E+02  2.28844E+02 -8.01463E+02 -4.02817E+02 -1.41467E+03
  1.78336E+03 -1.36727E+03  1.77036E+03 -3.67443E+00  2.10755E+03  1.83328E+03  1.79098E+02  3.03431E+03
 -1.85734E+03  4.05207E+03 -3.42590E+03  2.96994E+03 -3.92116E+03 -2.11221E+02 -2.78049E+03 -2.67343E+03
 -1.21041E+03 -3.20167E+03  6.93705E+02 -2.79385E+03  1.81190E+03 -1.68927E+03  2.01211E+03  2.25017E+02
  1.10479E+03  1.02688E+03 -2.46842E+02  9.11783E+02 -5.78594E+02 -2.70849E+02  1.90383E+02 -1.99464E+02
  1.21262E+03 -4.34437E+02  1.06347E+03  6.16262E+02  4.89982E+02  8.31521E+02  3.68117E+02  1.09873E+03
 -1.56995E+03  1.46427E+03 -1.82960E+03  6.33031E+01 -1.73212E+03 -1.28419E+03  1.38962E+01 -2.68308E+03
  1.15687E+03 -1.51356E+03  1.77648E+03 -5.25990E+02  2.32191E+03 -3.61521E+02  1.09078E+03  2.11848E+03
  4.41841E+02  1.61560E+03 -7.39341E+02  1.57696E+03 -1.20368E+03  8.85802E+02 -9.96883E+02  1.67473E+02
 -4.89415E+02 -2.77829E+02 -1.13781E+03  1.79702E+02 -8.99139E+02  2.41459E+02 -1.59460E+03 -4.89772E+02
 -2.03782E+03 -4.31792E+02 -5.27805E+02 -1.74527E+03  1.38833E+03 -2.46388E+03  1.66282E+03 -8.84905E+02
  2.04037E+03 -2.14800E+02  3.48515E+02  1.06463E+03 -2.48476E+02  1.96875E+03 -1.04301E+03  1.32613E+03
