 $NMID ID='MM_0lb_SNR800_16hz_g45_68.RAW', FMTDAT='(8E13.5)'
 TRAMP=1., VOLUME=1. $END
  3.09816E+05  4.08057E+02  3.37403E+05  2.50405E+05  8.43340E+04  3.37625E+05 -1.32372E+05  2.50566E+05
 -1.89780E+05  8.27949E+04 -1.11405E+05 -3.27472E+04  1.30989E+03 -5.04157E+04  5.39855E+04  7.59192E+01
  3.49785E+04  5.27488E+04 -1.69132E+04  7.49224E+04 -6.07454E+04  6.26790E+04 -8.33359E+04  3.16945E+04
 -8.01182E+04 -1.12382E+04 -5.68026E+04 -5.07471E+04 -1.50069E+04 -6.89918E+04  2.71901E+04 -4.51915E+04
  3.92096E+04  3.75396E+03  1.57257E+04  4.74613E+04 -3.42174E+04  4.68276E+04 -6.58476E+04 -5.41756E+02
 -5.22019E+04 -5.65034E+04 -6.57631E+03 -7.58843E+04  3.34119E+04 -5.42174E+04  4.72743E+04 -1.65425E+04
  4.22172E+04  1.11299E+04  3.13187E+04  2.49875E+04  1.59439E+04  2.86794E+04 -5.01460E+03  2.72228E+04
 -2.18336E+04  1.27082E+04 -1.86173E+04 -5.03831E+03  4.69613E+03 -7.80039E+03  2.15787E+04  1.16868E+04
  7.32878E+03  3.40978E+04 -3.12847E+04  3.49411E+04 -6.19049E+04  2.12541E+03 -5.56281E+04 -4.18525E+04
 -1.28419E+04 -6.18876E+04  3.88486E+04 -4.42460E+04  5.65984E+04 -2.03431E+03  3.30135E+04  3.14376E+04
 -6.33585E+03  3.46757E+04 -2.92074E+04  1.43883E+04 -2.85693E+04 -4.93687E+03 -1.53795E+04 -1.04065E+04
 -7.96032E+03 -1.22064E+04 -9.74805E+02 -1.72482E+04  7.26927E+03 -2.26841E+04  1.51786E+04 -1.36204E+04
  1.17379E+04  4.49028E+03 -6.61239E+03  1.33178E+04 -2.03344E+04 -3.41489E+03 -8.33871E+03 -3.18169E+04
  2.17928E+04 -4.18334E+04  4.63848E+04 -1.88420E+04  4.35916E+04  1.86599E+04  1.47404E+04  4.30309E+04
 -1.56421E+04  3.22205E+04 -2.42725E+04  1.13103E+03 -9.14746E+03 -2.71490E+04  2.08029E+04 -3.23042E+04
  3.95021E+04 -8.12408E+03  3.32523E+04  2.31967E+04  1.66244E+04  4.43256E+04 -7.73186E+03  4.75422E+04
 -2.99967E+04  3.14604E+04 -3.94245E+04  8.72298E+03 -4.04007E+04 -1.56421E+04 -2.24195E+04 -3.58027E+04
  7.21620E+03 -3.59217E+04  3.01078E+04 -1.37424E+04  2.79496E+04  1.06030E+04  3.31405E+03  1.86763E+04
 -1.33946E+04  7.88154E+03 -9.80318E+03 -7.73384E+03  5.93606E+03 -1.03625E+04  1.77180E+04  6.29257E+03
  1.28421E+04  2.18946E+04 -6.38426E+03  2.40834E+04 -2.20867E+04  1.02009E+04 -2.65471E+04 -5.46631E+03
 -1.86463E+04 -1.69116E+04 -6.87960E+03 -1.85187E+04  4.01443E+03 -1.68623E+04  1.41183E+04 -1.61000E+04
  2.34103E+04 -1.24304E+04  3.03209E+04  1.89134E+03  2.24136E+04  1.78243E+04  4.30489E+03  3.40117E+04
 -1.68684E+04  2.89354E+04 -2.69607E+04  9.81175E+03 -2.01597E+04 -1.02717E+04 -4.32911E+03 -1.38093E+04
  2.17579E+03 -3.64088E+03 -3.45939E+03  5.87906E+03 -1.44419E+04  5.33239E+03 -1.47055E+04 -5.85671E+03
 -9.50348E+03 -1.71749E+04  4.67646E+03 -2.08505E+04  1.38727E+04 -1.52587E+04  1.64965E+04 -1.59781E+03
  9.82382E+03  1.18952E+04 -9.64573E+02  1.70804E+04 -1.14624E+04  9.40482E+03 -1.73145E+04 -3.84541E+03
 -1.24029E+04 -1.55740E+04 -1.55365E+03 -2.08846E+04  9.32608E+03 -1.69084E+04  1.74359E+04 -8.16451E+03
  1.62274E+04  2.12778E+02  1.13960E+04  4.24549E+03  5.90033E+03  4.66252E+02  8.50001E+03 -1.50811E+03
  1.54989E+04  2.67441E+03  1.67285E+04  1.38072E+04  1.08914E+04  2.71972E+04 -3.02654E+03  2.98556E+04
 -1.79512E+04  2.34656E+04 -2.81573E+04  1.16739E+04 -2.88291E+04 -1.98242E+03 -2.42691E+04 -1.67769E+04
 -1.05651E+04 -2.38299E+04  8.15534E+03 -2.16396E+04  1.87434E+04 -1.18023E+04  1.74770E+04  4.62843E+03
  6.46546E+03  1.26117E+04 -7.87307E+03  1.14775E+04 -1.46949E+04  2.65303E+03 -1.12144E+04 -8.87268E+03
 -1.29942E+02 -1.39163E+04  7.12377E+03 -1.02762E+04  8.80292E+03 -1.15182E+03  1.79630E+03  5.69336E+03
 -6.32810E+03  2.18656E+03 -4.58471E+03 -5.24107E+03  2.76271E+02 -1.17544E+04  8.63212E+03 -1.15599E+04
  1.42522E+04 -6.04056E+03  1.47987E+04  2.73862E+03  1.25548E+04  1.12582E+04  6.11486E+03  1.68274E+04
 -2.26651E+03  1.89210E+04 -1.15541E+04  1.16369E+04 -1.33550E+04  3.13386E+03 -9.75172E+03 -2.66426E+03
 -4.84343E+03 -4.33668E+03 -6.46154E+02  1.05930E+03 -2.04944E+03  2.27679E+03 -4.34861E+03  4.15065E+03
 -9.34501E+03 -6.85469E+02 -9.67555E+03 -8.14902E+03 -4.18903E+03 -1.28996E+04  4.11152E+03 -9.64846E+03
  8.27963E+03 -4.12171E+03  5.90961E+03  2.84771E+03  3.68193E+02  3.56456E+03 -4.33202E+03  1.81977E+00
 -3.95429E+03 -5.94998E+03 -9.19214E+02 -8.84035E+03  5.08808E+03 -9.51508E+03  1.16536E+04 -5.05101E+03
  1.41279E+04  1.06902E+03  9.98139E+03  7.77974E+03  1.84152E+03  1.06257E+04 -6.31617E+03  9.50333E+03
 -8.17245E+03  2.93953E+03 -4.08458E+03 -1.97226E+03  1.63612E+03 -2.37938E+03  5.29845E+03 -1.17721E+03
  4.77100E+03  3.87511E+03  1.16925E+03  7.30897E+03 -5.47433E+03  7.43963E+03 -9.13796E+03  2.06271E+03
 -6.02794E+03 -4.15081E+03  4.83207E+02 -7.60471E+03  4.49563E+03 -3.97646E+03  4.54253E+03  1.16977E+03
  6.94770E+02  4.68331E+03 -5.02334E+03  5.46120E+03 -6.53727E+03  2.89179E+03 -6.20080E+03 -1.72698E+03
 -3.96466E+03 -7.50253E+03  1.78196E+03 -9.13460E+03  7.60879E+03 -5.99690E+03  8.31196E+03  1.09274E+03
  5.38986E+03  6.52755E+03 -2.80743E+02  8.59683E+03 -6.12494E+03  5.07453E+03 -6.33697E+03 -7.50240E+02
 -6.95407E+03 -5.93366E+03 -1.68367E+03 -6.29722E+03  3.05601E+03 -5.49307E+03  3.63186E+03 -3.26870E+03
  3.31758E+03  6.28496E+02 -1.94347E+02  1.75876E+03  6.04964E+02 -8.09907E+02  3.03871E+02 -2.67207E+03
  5.39429E+03 -1.45537E+03  7.26977E+03  9.49072E+02  7.21655E+03  4.32574E+03  6.43601E+03  9.28759E+03
 -1.65719E+03  1.09812E+04 -9.81848E+03  8.35354E+03 -1.26330E+04  1.43566E+03 -1.01124E+04 -3.76151E+03
 -5.45118E+03 -8.50606E+03 -2.80612E+02 -6.60270E+03  2.52731E+03 -3.37155E+03  2.41388E+03 -2.51195E+03
  1.65077E+03 -1.70730E+03  2.44108E+03 -2.94246E+03  3.80640E+03 -1.74744E+03  4.41625E+03  1.19275E+02
  5.50304E+03  1.28421E+03  1.96969E+03  4.35440E+03 -1.75316E+03  4.53802E+03 -5.54245E+03  3.46561E+03
 -6.61394E+03 -1.17305E+03 -3.10123E+03 -4.22310E+03  1.64310E+02 -6.45794E+03  4.03372E+03 -7.36216E+03
  6.87155E+03 -4.41957E+03  8.77431E+03  4.66965E+02  6.30608E+03  5.79060E+03  1.00992E+03  7.85962E+03
 -2.99761E+03  7.03733E+03 -4.69529E+03  2.20463E+03 -2.72203E+03 -9.55711E+02 -1.03521E+03 -7.08209E+02
 -5.73393E+02  2.73700E+02 -1.17865E+03  2.14085E+03 -2.81865E+03  9.73052E+02 -5.48803E+03 -5.08573E+02
 -2.27880E+03 -5.14709E+03  6.77826E+02 -6.50126E+03  4.04171E+03 -5.68748E+03  5.55129E+03 -1.71985E+03
  5.85108E+03  3.32252E+03  2.37543E+03  4.94039E+03 -1.40546E+03  6.26540E+03 -3.98177E+03  3.82366E+03
 -5.40358E+03  6.54026E+02 -4.53225E+03 -3.55429E+03 -1.15407E+02 -4.76296E+03  2.34963E+03 -3.27200E+03
  3.65607E+03 -1.79574E+03  2.74793E+03  9.67761E+02  9.84663E+02  2.13785E+03  9.49567E+02  8.52608E+02
  1.92508E+03  6.56610E+02  1.71484E+03  1.02022E+03  1.63110E+03  2.56914E+03  1.90983E+03  2.87758E+03
 -1.53481E+03  4.22517E+03 -3.48533E+03  5.18820E+03 -5.00921E+03  1.60122E+03 -5.89287E+03 -1.40322E+03
 -2.65762E+03 -5.48815E+03  9.91473E+02 -6.48877E+03  3.04520E+03 -3.61740E+03  4.56547E+03 -1.15064E+03
  3.41688E+03  2.10008E+03  8.22546E+02  3.12771E+03 -1.12723E+03  1.91580E+03 -1.75185E+03 -2.97775E+02
 -8.84035E+02 -2.30257E+03  1.58132E+03 -2.02808E+03  2.13466E+03 -1.32833E+03  2.09198E+03  3.06727E+02
  9.83920E+02  6.07106E+02  8.43821E+02  3.99411E+02 -4.17710E+02  1.02110E+03  1.43038E+03 -1.30488E+02
  3.52683E+02 -6.46967E+02  2.54740E+03  8.28515E+02  9.76158E+02  3.30968E+03 -2.96911E+02  4.08086E+03
 -2.76594E+03  1.89093E+03 -3.05435E+03  7.95719E+02 -2.99488E+03 -9.21656E+02 -6.74654E+02 -1.72949E+03
  4.95348E+02 -2.18269E+03  1.09596E+03 -1.00618E+03  1.05340E+03  1.52673E+03 -5.75775E+02  1.77535E+03
 -2.20797E+03  9.06540E+02 -2.07445E+03 -1.82553E+03 -1.28256E+03 -3.01181E+03  2.91385E+02 -2.81894E+03
  1.30030E+03 -1.02185E+03  1.68073E+03  2.26223E+02  1.81591E+03  3.02598E+02  6.62868E+02  1.94312E+03
 -6.97189E+02  1.87512E+02 -1.48247E+03 -5.90976E+02  7.71624E+02 -1.71376E+03  2.38978E+03 -1.22889E+03
  2.60711E+03  5.85723E+01  3.65969E+03  1.51214E+03  1.29910E+03  2.85265E+03 -4.51436E+02  2.81962E+03
 -2.52381E+03  1.16052E+03 -2.64742E+03 -5.57283E+02 -1.19243E+03 -2.04647E+03  4.24980E+02 -1.21613E+03
  2.08775E+03 -1.37506E+03  1.49791E+03  1.12284E+03  2.20712E+02  1.65655E+03  3.06078E+01  1.55373E+03
 -4.23179E+02  1.25202E+03 -7.31467E+02  7.00844E+02 -2.18031E+02  2.97142E+02 -8.33099E+02  8.60054E+02
 -7.05876E+02  1.38127E+03 -2.42222E+03  9.09529E+02 -2.68751E+03  1.93039E+02 -3.35135E+03 -1.59752E+03
 -1.69644E+03 -3.71424E+03  5.99283E+02 -4.50976E+03  2.00295E+03 -3.72327E+03  3.97822E+03 -1.32404E+03
  3.75718E+03  3.40391E+02  2.28717E+03  2.29667E+03 -3.08189E+02  2.49757E+03 -1.14121E+03  2.11713E+03
 -1.68389E+03  9.56484E+02 -8.64626E+02 -5.55141E+02 -5.69241E+02  3.97295E+02 -8.62356E+02  1.04081E+02
 -1.02533E+03 -9.28788E+00 -1.11113E+03  7.09081E+01  3.12797E+02 -7.91844E+02 -6.10967E+02 -1.40795E+03
  1.55674E+03 -1.17920E+03  1.04849E+03  1.76001E+02  1.91190E+03  1.45464E+03  1.42276E+02  2.63792E+03
 -1.44561E+03  3.55353E+03 -2.75631E+03  1.69160E+03 -3.02234E+03 -2.44556E+02 -2.07625E+03 -1.88480E+03
 -1.36601E+03 -2.36313E+03  6.71316E+02 -2.38712E+03  1.45994E+03 -1.21246E+03  1.71020E+03  2.86069E+02
  1.30772E+03  7.61736E+02 -1.46199E+02  6.42011E+02 -4.93280E+02  1.29045E+02 -5.58766E+01 -5.91069E+02
  8.94867E+02  2.89022E+02  9.26304E+02  3.25578E+02  4.69891E+02  7.13157E+02  5.12080E+02  8.05674E+02
 -1.19709E+03  8.48295E+02 -1.51737E+03  6.74229E+00 -1.33443E+03 -9.22879E+02 -3.14488E+02 -2.03278E+03
  1.14545E+03 -1.66254E+03  1.42005E+03 -5.05677E+02  1.52005E+03 -2.43982E+02  9.57628E+02  1.38344E+03
  2.82935E+02  1.27854E+03 -4.92369E+02  1.05048E+03 -1.35184E+03  1.07992E+03 -6.87930E+02  1.95065E+02
 -5.62105E+02 -6.38773E+02 -9.40962E+02  1.03708E+02 -1.12116E+03  3.86086E+02 -1.00962E+03 -3.48326E+02
 -1.71073E+03 -1.17764E+02 -6.34382E+02 -1.55298E+03  1.19124E+03 -2.14434E+03  1.14326E+03 -5.29995E+02
  1.25826E+03  1.29819E+02  3.16245E+02  7.90125E+02 -3.27750E+02  1.26136E+03 -8.64956E+02  1.22429E+03
