 $NMID ID='MM_0lb_SNR800_17hz_g55_24.RAW', FMTDAT='(8E13.5)'
 TRAMP=1., VOLUME=1. $END
  3.09929E+05  4.83443E+02  3.37368E+05  2.50541E+05  8.45021E+04  3.37850E+05 -1.32693E+05  2.50787E+05
 -1.89835E+05  8.29670E+04 -1.11389E+05 -3.25843E+04  1.13998E+03 -5.05665E+04  5.41331E+04 -3.31324E+02
  3.50434E+04  5.28333E+04 -1.69372E+04  7.54514E+04 -6.05254E+04  6.31809E+04 -8.39267E+04  3.17274E+04
 -8.06191E+04 -1.13403E+04 -5.71378E+04 -5.09653E+04 -1.50163E+04 -6.91567E+04  2.70130E+04 -4.55091E+04
  3.95693E+04  4.14830E+03  1.57304E+04  4.75893E+04 -3.43433E+04  4.68143E+04 -6.61922E+04 -4.36466E+02
 -5.27574E+04 -5.66455E+04 -6.48676E+03 -7.60772E+04  3.35032E+04 -5.45906E+04  4.73596E+04 -1.68785E+04
  4.24407E+04  1.14595E+04  3.14226E+04  2.52724E+04  1.57922E+04  2.92894E+04 -4.88768E+03  2.69718E+04
 -2.19911E+04  1.25700E+04 -1.89883E+04 -4.70212E+03  5.04573E+03 -7.38782E+03  2.15540E+04  1.15104E+04
  7.30238E+03  3.43689E+04 -3.15512E+04  3.50048E+04 -6.25987E+04  2.01328E+03 -5.63347E+04 -4.22035E+04
 -1.24082E+04 -6.23498E+04  3.93768E+04 -4.46923E+04  5.72749E+04 -2.21959E+03  3.34907E+04  3.20200E+04
 -6.19717E+03  3.50667E+04 -2.95285E+04  1.49207E+04 -2.94989E+04 -4.92469E+03 -1.57969E+04 -1.06000E+04
 -7.95291E+03 -1.25018E+04 -9.44211E+02 -1.74645E+04  7.26172E+03 -2.27544E+04  1.49888E+04 -1.35170E+04
  1.16620E+04  4.53001E+03 -7.51827E+03  1.30351E+04 -2.04435E+04 -3.59611E+03 -8.35324E+03 -3.24968E+04
  2.20291E+04 -4.22862E+04  4.68605E+04 -1.92528E+04  4.39416E+04  1.89135E+04  1.51105E+04  4.30832E+04
 -1.54427E+04  3.22377E+04 -2.47072E+04  1.56094E+03 -9.13717E+03 -2.71978E+04  2.09734E+04 -3.27012E+04
  3.99519E+04 -8.02416E+03  3.37501E+04  2.31171E+04  1.72102E+04  4.51667E+04 -7.99171E+03  4.82977E+04
 -3.04869E+04  3.20699E+04 -3.99623E+04  9.16776E+03 -4.08177E+04 -1.60983E+04 -2.24826E+04 -3.62895E+04
  7.17761E+03 -3.61859E+04  3.04505E+04 -1.38263E+04  2.82932E+04  1.05078E+04  3.86675E+03  1.85339E+04
 -1.32672E+04  7.72158E+03 -1.02411E+04 -7.31737E+03  6.05803E+03 -1.05393E+04  1.78069E+04  6.41959E+03
  1.30388E+04  2.18419E+04 -6.09207E+03  2.41336E+04 -2.16935E+04  1.05837E+04 -2.67414E+04 -5.47260E+03
 -1.90712E+04 -1.69517E+04 -7.24518E+03 -1.87036E+04  4.28649E+03 -1.73306E+04  1.42915E+04 -1.65635E+04
  2.42138E+04 -1.24222E+04  3.06506E+04  1.88317E+03  2.25864E+04  1.82529E+04  4.12947E+03  3.46815E+04
 -1.70054E+04  2.93397E+04 -2.68707E+04  1.00578E+04 -2.01400E+04 -1.02117E+04 -4.40337E+03 -1.37235E+04
  2.09287E+03 -3.26057E+03 -4.09236E+03  6.01404E+03 -1.48844E+04  5.20039E+03 -1.52284E+04 -6.14537E+03
 -9.48663E+03 -1.70991E+04  4.71211E+03 -2.14194E+04  1.39782E+04 -1.52302E+04  1.61959E+04 -1.90333E+03
  1.00760E+04  1.21465E+04 -1.24670E+03  1.75373E+04 -1.18295E+04  9.99162E+03 -1.75075E+04 -3.46937E+03
 -1.26755E+04 -1.54427E+04 -1.69049E+03 -2.10314E+04  9.55837E+03 -1.67379E+04  1.78601E+04 -8.43352E+03
  1.61464E+04  6.43238E+02  1.17021E+04  4.33032E+03  5.91325E+03  5.86850E+02  8.66764E+03 -1.36050E+03
  1.54688E+04  2.93691E+03  1.73459E+04  1.37368E+04  1.09240E+04  2.75554E+04 -3.03272E+03  3.06529E+04
 -1.79487E+04  2.38332E+04 -2.82824E+04  1.18395E+04 -2.90631E+04 -2.16733E+03 -2.47921E+04 -1.67031E+04
 -1.13606E+04 -2.39268E+04  8.03663E+03 -2.21001E+04  1.91896E+04 -1.20715E+04  1.71765E+04  4.34574E+03
  6.70329E+03  1.26972E+04 -7.82602E+03  1.13322E+04 -1.47741E+04  2.65088E+03 -1.13945E+04 -8.99974E+03
 -1.46405E+02 -1.39194E+04  7.11134E+03 -1.05015E+04  9.20893E+03 -1.30940E+03  1.68158E+03  5.58118E+03
 -6.30478E+03  1.86021E+03 -4.62320E+03 -5.25203E+03  1.13063E+02 -1.18808E+04  8.71576E+03 -1.23084E+04
  1.43092E+04 -5.94539E+03  1.46181E+04  2.59148E+03  1.29106E+04  1.12814E+04  6.00088E+03  1.68387E+04
 -2.28834E+03  1.90078E+04 -1.16236E+04  1.19170E+04 -1.31550E+04  3.24737E+03 -9.82785E+03 -2.71010E+03
 -4.91565E+03 -4.37668E+03 -3.78987E+02  1.21479E+03 -2.18009E+03  2.26991E+03 -4.24552E+03  3.85616E+03
 -9.16750E+03 -5.32393E+02 -9.73517E+03 -8.00038E+03 -3.98318E+03 -1.29822E+04  4.06570E+03 -9.68472E+03
  8.62000E+03 -4.40493E+03  6.03759E+03  2.34659E+03  1.31489E+02  3.74631E+03 -4.02527E+03  8.33775E+00
 -4.21068E+03 -6.07845E+03 -9.04607E+02 -8.57875E+03  4.69813E+03 -9.28714E+03  1.18080E+04 -4.91683E+03
  1.37179E+04  8.27288E+02  1.04185E+04  7.71487E+03  2.21765E+03  1.02689E+04 -6.31738E+03  9.54788E+03
 -8.05452E+03  3.27629E+03 -4.13583E+03 -1.42064E+03  1.45827E+03 -2.19016E+03  5.55429E+03 -1.15102E+03
  4.66708E+03  3.84906E+03  1.09052E+03  7.35548E+03 -5.25838E+03  7.55706E+03 -9.09943E+03  2.18819E+03
 -5.68958E+03 -4.38508E+03  4.66419E+02 -7.96776E+03  4.48488E+03 -3.56753E+03  4.46696E+03  1.29589E+03
  6.23915E+02  4.56516E+03 -4.89148E+03  5.89286E+03 -6.45978E+03  2.85666E+03 -5.82681E+03 -1.82974E+03
 -3.81152E+03 -7.54762E+03  1.71812E+03 -8.70546E+03  7.31513E+03 -5.74199E+03  8.00335E+03  1.22802E+03
  5.60440E+03  6.59196E+03 -3.93833E+02  8.59043E+03 -6.01792E+03  4.84625E+03 -6.28453E+03 -3.65764E+02
 -6.58482E+03 -5.93471E+03 -1.55115E+03 -6.17843E+03  3.05865E+03 -5.51568E+03  3.81562E+03 -2.99581E+03
  3.21930E+03  4.83247E+02  2.74028E+01  1.46108E+03  2.27669E+02 -7.51148E+02  3.07376E+02 -2.51339E+03
  4.80787E+03 -1.28954E+03  6.99539E+03  9.45307E+02  6.92297E+03  4.45874E+03  5.87402E+03  9.04659E+03
 -1.80434E+03  1.09626E+04 -9.11331E+03  8.14881E+03 -1.19537E+04  1.52543E+03 -9.44742E+03 -3.65263E+03
 -4.84088E+03 -7.81764E+03 -5.97612E+02 -6.37374E+03  2.54687E+03 -3.10980E+03  2.17083E+03 -2.25889E+03
  1.58582E+03 -1.65530E+03  2.52183E+03 -2.61919E+03  3.70316E+03 -1.63066E+03  4.10727E+03  1.73181E+02
  5.09714E+03  9.67723E+02  1.70070E+03  4.27304E+03 -1.69844E+03  3.91426E+03 -5.30153E+03  3.56605E+03
 -6.13409E+03 -8.68708E+02 -2.74482E+03 -4.14545E+03  1.48244E+01 -6.29040E+03  3.90193E+03 -6.61668E+03
  6.79967E+03 -3.78479E+03  8.48568E+03  4.75647E+02  5.85470E+03  5.41105E+03  1.05220E+03  7.41217E+03
 -3.00409E+03  6.95534E+03 -4.02355E+03  2.24366E+03 -2.48909E+03 -1.28457E+03 -7.28042E+02 -9.69235E+02
 -7.57217E+02  4.93704E+02 -9.89142E+02  2.30072E+03 -3.29605E+03  1.49270E+03 -4.60246E+03 -5.58795E+02
 -2.22590E+03 -4.57763E+03  8.03668E+02 -5.57236E+03  3.19998E+03 -5.83697E+03  5.08103E+03 -1.49121E+03
  5.34237E+03  3.04428E+03  2.32047E+03  4.42820E+03 -8.90680E+02  5.50738E+03 -3.44855E+03  3.56441E+03
 -4.95100E+03  7.75225E+02 -4.34546E+03 -2.96157E+03 -3.93441E+02 -3.98682E+03  1.92444E+03 -3.01722E+03
  3.67612E+03 -1.62602E+03  2.36782E+03  5.51850E+02  7.82793E+02  1.74187E+03  9.38362E+02  7.66860E+02
  1.69019E+03  6.92009E+02  1.26907E+03  1.03988E+03  1.61538E+03  2.70987E+03  1.72682E+03  2.02320E+03
 -1.39928E+03  4.03199E+03 -3.24005E+03  4.65916E+03 -4.39811E+03  1.73549E+03 -5.34902E+03 -9.77281E+02
 -2.57349E+03 -4.77993E+03  9.44352E+02 -5.97874E+03  2.49089E+03 -3.42945E+03  3.95207E+03 -1.17577E+03
  3.30851E+03  1.97815E+03  6.56949E+02  2.83984E+03 -1.14216E+03  1.72891E+03 -1.54553E+03 -1.88012E+02
 -8.13598E+02 -1.95159E+03  1.47384E+03 -2.07633E+03  1.90315E+03 -1.22921E+03  1.82989E+03  2.53452E+02
  1.01276E+03  6.19643E+02  9.57406E+02  7.26874E+01 -1.68441E+02  7.05099E+02  1.58276E+03 -3.07126E+01
  1.58731E+02 -1.63504E+02  2.32561E+03  5.18091E+02  4.41923E+02  2.60299E+03 -2.18504E+02  3.57893E+03
 -2.03725E+03  1.73799E+03 -2.76512E+03  3.09585E+02 -2.55802E+03 -7.93363E+02 -4.39623E+02 -1.52052E+03
  2.81884E+02 -1.83337E+03  1.37801E+03 -8.78855E+02  7.82444E+02  1.16937E+03 -5.65531E+02  1.52489E+03
 -1.62336E+03  8.57262E+02 -1.61511E+03 -1.51895E+03 -1.16909E+03 -2.65381E+03  4.36302E+02 -2.31387E+03
  8.74830E+02 -7.20814E+02  1.41268E+03  1.09758E+02  1.71389E+03  7.36759E+01  1.91691E+02  1.51261E+03
 -5.82320E+02  1.57336E+02 -1.35101E+03 -3.70687E+02  6.33796E+02 -1.15955E+03  2.26902E+03 -1.27732E+03
  1.70384E+03  1.99737E+02  3.05833E+03  1.08877E+03  1.49826E+03  2.32099E+03 -6.13891E+02  2.53333E+03
 -1.82057E+03  6.98959E+02 -2.09545E+03 -2.14542E+02 -1.27958E+03 -1.73229E+03  1.80760E+02 -1.01843E+03
  1.80044E+03 -9.23315E+02  1.41330E+03  7.67516E+02  3.70083E+02  1.84093E+03  4.39428E+02  1.49864E+03
 -5.46327E+02  1.17988E+03 -4.92232E+02  3.82247E+02 -3.04047E+02  3.14145E+02 -7.53301E+02  4.85631E+02
 -7.68061E+02  1.07582E+03 -2.20438E+03  8.17517E+02 -2.26162E+03  1.36605E+02 -2.93190E+03 -1.42586E+03
 -1.56944E+03 -3.03906E+03  7.11675E+02 -3.79614E+03  1.49280E+03 -3.00167E+03  3.56146E+03 -1.46695E+03
  3.10381E+03 -1.40920E+02  1.65354E+03  2.09604E+03 -3.34566E+02  2.13642E+03 -9.60940E+02  1.73797E+03
 -1.24200E+03  9.91773E+02 -9.39301E+02 -4.57735E+02 -6.32312E+02  1.62005E+02 -6.35279E+02  2.74351E+01
 -1.24643E+03  1.36783E+02 -9.04797E+02 -1.12363E+02  2.25405E+02 -9.52562E+02 -5.91295E+02 -1.05850E+03
  1.66680E+03 -8.02377E+02  9.25272E+02  2.29691E+01  1.56018E+03  1.39659E+03 -1.52221E+02  2.15842E+03
 -1.47829E+03  3.08861E+03 -1.94098E+03  1.62143E+03 -2.63742E+03 -2.22831E+02 -1.50581E+03 -1.81126E+03
 -1.16717E+03 -1.57495E+03  4.60010E+02 -1.78385E+03  1.14196E+03 -8.28699E+02  1.03370E+03  9.65876E+01
  5.73258E+02  6.32129E+02 -6.79957E+01  6.57998E+02 -2.18111E+02 -1.04373E+02  1.79264E+01 -5.34323E+02
  7.08507E+02  2.98558E+02  1.28440E+02  1.78787E+02  7.36823E+01  8.41559E+02  1.61966E+02  6.65385E+02
 -7.18308E+02  9.26152E+02 -7.31207E+02  3.07626E+02 -1.03044E+03 -7.56830E+02 -9.60851E+01 -1.74415E+03
  6.91838E+02 -1.07019E+03  6.44327E+02 -1.13254E+02  1.12570E+03 -6.63935E+02  7.29710E+02  1.26604E+03
  5.64381E+02  7.59927E+02 -5.88703E+02  7.85142E+02 -9.00570E+02  5.43938E+02 -6.10457E+02 -5.66705E+01
 -2.65770E+02 -4.07287E+01 -3.85822E+02 -1.08410E+00 -7.17791E+02  6.12802E+00 -9.78860E+02 -4.56686E+02
 -7.28146E+02  2.09628E+02 -5.26193E+02 -1.20612E+03  6.54215E+02 -1.86872E+03  1.06073E+03 -5.22309E+02
  1.20687E+03  3.00696E+02  1.03266E+02  2.62077E+02 -2.66090E+02  1.14431E+03 -5.48241E+02  5.95606E+02
