 $NMID ID='MM_0lb_SNR800_7hz_g60_94.RAW', FMTDAT='(8E13.5)'
 TRAMP=1., VOLUME=1. $END
  3.09967E+05  2.04935E+02  3.38057E+05  2.51295E+05  8.51310E+04  3.38495E+05 -1.33031E+05  2.52154E+05
 -1.91389E+05  8.39373E+04 -1.13503E+05 -3.25216E+04  3.44966E+01 -5.08570E+04  5.33175E+04 -5.74266E+02
  3.58333E+04  5.30437E+04 -1.64362E+04  7.61656E+04 -6.16815E+04  6.49060E+04 -8.58669E+04  3.31287E+04
 -8.31003E+04 -1.18243E+04 -5.86569E+04 -5.27301E+04 -1.46956E+04 -7.20461E+04  2.88129E+04 -4.76348E+04
  4.17161E+04  3.61020E+03  1.71266E+04  4.89022E+04 -3.50956E+04  4.90652E+04 -6.90518E+04  5.97709E+02
 -5.59828E+04 -5.79141E+04 -7.47987E+03 -7.98032E+04  3.60708E+04 -5.80419E+04  5.08495E+04 -1.88553E+04
  4.61199E+04  1.17919E+04  3.39379E+04  2.75256E+04  1.57110E+04  3.18751E+04 -6.14882E+03  2.81025E+04
 -2.29446E+04  1.15758E+04 -1.74357E+04 -6.45340E+03  7.92462E+03 -7.35211E+03  2.41111E+04  1.46914E+04
  7.39819E+03  3.89468E+04 -3.49632E+04  3.79198E+04 -6.71599E+04  1.73832E+03 -6.00503E+04 -4.56875E+04
 -1.29224E+04 -6.78849E+04  4.27080E+04 -4.85663E+04  6.30703E+04 -2.83817E+03  3.79279E+04  3.56760E+04
 -5.55484E+03  4.15952E+04 -3.21449E+04  2.04495E+04 -3.49664E+04 -2.79598E+03 -2.11446E+04 -1.23322E+04
 -1.00708E+04 -1.64917E+04 -1.38331E+02 -2.06566E+04  8.65889E+03 -2.39293E+04  1.58766E+04 -1.20334E+04
  9.87666E+03  6.69893E+03 -1.16382E+04  1.28709E+04 -2.49633E+04 -8.01237E+03 -8.96881E+03 -3.98067E+04
  2.64737E+04 -4.89669E+04  5.43692E+04 -2.13342E+04  5.05545E+04  2.19829E+04  1.87150E+04  4.89457E+04
 -1.75896E+04  3.75898E+04 -2.85099E+04  2.87777E+03 -1.26713E+04 -3.01076E+04  2.17955E+04 -3.86995E+04
  4.65143E+04 -1.25657E+04  4.36371E+04  2.56064E+04  2.31463E+04  5.37909E+04 -8.48447E+03  5.94566E+04
 -3.74518E+04  4.09476E+04 -5.14085E+04  1.19294E+04 -5.03886E+04 -1.95121E+04 -2.71996E+04 -4.48122E+04
  8.30349E+03 -4.47275E+04  3.59690E+04 -1.85205E+04  3.38414E+04  1.15158E+04  5.56667E+03  2.22965E+04
 -1.43219E+04  1.06201E+04 -1.17271E+04 -7.28579E+03  5.64230E+03 -1.16416E+04  2.00115E+04  5.33360E+03
  1.59390E+04  2.29917E+04 -4.79207E+03  2.84463E+04 -2.39142E+04  1.61488E+04 -3.36525E+04 -1.85131E+03
 -2.82749E+04 -1.87760E+04 -1.36831E+04 -2.80091E+04  4.39719E+03 -2.95356E+04  2.24157E+04 -2.56597E+04
  3.59203E+04 -1.49245E+04  4.13305E+04  6.37760E+03  2.91641E+04  2.69801E+04  4.92951E+03  4.45047E+04
 -2.12526E+04  3.63906E+04 -3.20366E+04  1.26511E+04 -2.31247E+04 -1.02993E+04 -5.05456E+03 -1.26017E+04
  1.34264E+02  1.01706E+02 -9.48579E+03  9.23986E+03 -2.29437E+04  4.55269E+03 -2.25637E+04 -1.11347E+04
 -1.30938E+04 -2.55480E+04  6.10445E+03 -3.09006E+04  2.08454E+04 -2.18398E+04  2.56838E+04 -2.47184E+03
  1.62633E+04  1.79479E+04 -1.51636E+03  2.58671E+04 -1.87648E+04  1.50013E+04 -2.66733E+04 -5.75731E+03
 -1.92983E+04 -2.32103E+04 -2.19735E+03 -3.15052E+04  1.37201E+04 -2.64122E+04  2.58061E+04 -1.35135E+04
  2.50123E+04 -6.49160E+02  1.80952E+04  5.34770E+03  9.70421E+03  1.70507E+03  1.40254E+04 -2.38757E+03
  2.52708E+04  2.61504E+03  3.00626E+04  2.06462E+04  2.01031E+04  4.24597E+04 -2.66343E+03  5.09436E+04
 -2.83918E+04  4.32912E+04 -4.80967E+04  2.29730E+04 -5.19050E+04 -3.76395E+03 -4.18507E+04 -3.06023E+04
 -1.60225E+04 -4.35967E+04  1.58967E+04 -3.82172E+04  3.19051E+04 -1.74289E+04  2.71677E+04  9.15533E+03
  8.50559E+03  2.12253E+04 -1.33217E+04  1.75381E+04 -2.27963E+04  2.49621E+03 -1.69640E+04 -1.51510E+04
 -9.45562E+00 -2.19293E+04  1.21380E+04 -1.65323E+04  1.49107E+04 -1.27217E+03  3.69842E+03  1.02770E+04
 -1.02246E+04  5.57800E+03 -1.08595E+04 -7.76277E+03 -2.52178E+03 -2.11741E+04  1.32896E+04 -2.35358E+04
  2.68735E+04 -1.36786E+04  3.20104E+04  3.79182E+03  2.77788E+04  2.20033E+04  1.26444E+04  3.46684E+04
 -6.63924E+03  3.70451E+04 -2.47623E+04  2.23466E+04 -2.72833E+04  3.22812E+03 -1.81191E+04 -7.21719E+03
 -7.31801E+03 -9.09860E+03  6.46226E+00  8.55071E+01 -3.32109E+03  4.54001E+03 -8.98334E+03  6.06972E+03
 -1.66768E+04 -1.54722E+03 -1.70725E+04 -1.36391E+04 -6.79256E+03 -2.27520E+04  7.55757E+03 -1.84321E+04
  1.48373E+04 -7.46474E+03  1.04594E+04  5.48483E+03 -9.06947E+02  7.59401E+03 -9.94956E+03  1.03208E+02
 -1.00079E+04 -1.21922E+04 -1.63901E+03 -1.84875E+04  1.14813E+04 -1.99533E+04  2.40846E+04 -1.08683E+04
  2.84292E+04  3.33661E+03  2.01514E+04  1.78153E+04  3.86803E+03  2.35472E+04 -1.15546E+04  1.85792E+04
 -1.49062E+04  5.43196E+03 -7.26915E+03 -4.26172E+03  2.43382E+03 -5.42601E+03  9.59185E+03 -1.80781E+03
  8.76134E+03  8.59811E+03  2.06303E+03  1.56006E+04 -1.06009E+04  1.39751E+04 -1.82499E+04  3.37071E+03
 -1.35146E+04 -9.91515E+03  2.20650E+02 -1.62867E+04  1.09169E+04 -8.29295E+03  1.13012E+04  3.98831E+03
  3.16991E+03  1.32559E+04 -1.02301E+04  1.45254E+04 -1.75444E+04  6.37925E+03 -1.82768E+04 -6.94191E+03
 -1.00640E+04 -1.99988E+04  5.13663E+03 -2.25790E+04  1.91189E+04 -1.37102E+04  2.14484E+04  3.91562E+03
  1.24015E+04  1.67239E+04 -2.45120E+03  1.95386E+04 -1.47613E+04  1.07476E+04 -1.60351E+04 -1.59010E+03
 -1.28167E+04 -1.25675E+04 -2.21992E+03 -1.51793E+04  7.81453E+03 -1.22938E+04  9.68613E+03 -3.86091E+03
  5.62983E+03  2.97366E+03 -1.75151E+03  2.65753E+03 -1.35517E+03 -4.53547E+03  3.48858E+03 -9.99972E+03
  1.50296E+04 -6.34151E+03  2.08167E+04  2.34212E+03  2.02736E+04  1.49388E+04  1.24881E+04  2.69846E+04
 -6.22572E+03  3.07289E+04 -2.55377E+04  2.24992E+04 -3.28878E+04  4.33558E+03 -2.67049E+04 -1.22179E+04
 -1.34021E+04 -2.19683E+04 -1.02896E+03 -1.86996E+04  7.17614E+03 -1.08029E+04  7.35754E+03 -6.45569E+03
  5.04011E+03 -4.19230E+03  4.72145E+03 -4.70882E+03  6.74265E+03 -4.26873E+03  1.00688E+04 -2.15646E+03
  1.35914E+04  2.73290E+03  7.98254E+03  1.21713E+04 -2.64507E+03  1.52545E+04 -1.47338E+04  1.17871E+04
 -1.90908E+04 -1.29400E+03 -1.30555E+04 -1.34230E+04 -2.26106E+03 -2.10291E+04  1.14011E+04 -2.12679E+04
  2.16440E+04 -1.19548E+04  2.54401E+04  3.85314E+03  1.71795E+04  1.81507E+04  2.41480E+03  2.32994E+04
 -1.00276E+04  1.87546E+04 -1.37050E+04  6.82359E+03 -9.74313E+03 -1.92770E+03 -4.47257E+03 -2.75759E+03
 -2.43503E+03 -2.77004E+02 -2.98197E+03  3.34120E+03 -7.51230E+03  2.66490E+03 -1.28283E+04 -1.82230E+03
 -1.00636E+04 -1.25432E+04 -7.33951E+02 -1.96488E+04  1.19132E+04 -1.84303E+04  1.99673E+04 -5.99662E+03
  1.97146E+04  9.62080E+03  9.55032E+03  1.82192E+04 -4.13313E+03  1.96670E+04 -1.43787E+04  1.23546E+04
 -1.86526E+04  6.82782E+02 -1.42584E+04 -1.21193E+04 -2.09346E+03 -1.75691E+04  8.97004E+03 -1.25796E+04
  1.30889E+04 -3.78451E+03  8.70077E+03  3.88172E+03  3.13325E+03  5.65858E+03  1.50196E+03  2.58090E+03
  3.64603E+03  1.60132E+03  4.76943E+03  2.17643E+03  5.87901E+03  6.23354E+03  5.32507E+03  1.11939E+04
 -4.07158E+03  1.62660E+04 -1.43555E+04  1.57914E+04 -2.18176E+04  4.08338E+03 -2.15967E+04 -9.53040E+03
 -1.08822E+04 -2.12992E+04  3.56360E+03 -2.28376E+04  1.27698E+04 -1.46105E+04  1.70014E+04 -3.64943E+03
  1.27892E+04  7.61505E+03  2.86695E+03  1.19838E+04 -6.64945E+03  7.88358E+03 -9.01319E+03 -1.19667E+03
 -3.99190E+03 -9.02062E+03  5.18218E+03 -9.41271E+03  9.03789E+03 -4.39649E+03  8.83837E+03  2.05622E+03
  4.90722E+03  4.13988E+03  1.95359E+03  4.23026E+03 -8.29075E+02  2.59479E+03  1.77456E+03 -1.00355E+03
  3.48430E+03 -1.01883E+03  8.13653E+03  3.57810E+03  5.19776E+03  1.14110E+04 -1.89656E+03  1.47438E+04
 -1.06603E+04  1.00245E+04 -1.36920E+04  2.75263E+03 -1.23227E+04 -4.59554E+03 -5.13580E+03 -8.51740E+03
  1.09795E+03 -8.23907E+03  5.51132E+03 -3.90604E+03  4.81555E+03  4.14429E+03 -2.02763E+03  7.07569E+03
 -8.99002E+03  4.47196E+03 -1.11165E+04 -4.76429E+03 -6.29849E+03 -1.12992E+04  1.64555E+03 -1.26214E+04
  7.76432E+03 -7.43454E+03  9.41115E+03 -1.52717E+03  7.05623E+03  3.70413E+03  1.01758E+03  7.10936E+03
 -4.29711E+03  1.81382E+03 -5.18659E+03 -4.78493E+03  1.78283E+03 -9.90677E+03  1.05352E+04 -7.20320E+03
  1.45885E+04  1.22264E+03  1.29293E+04  1.03108E+04  3.72568E+03  1.49047E+04 -5.64806E+03  1.36229E+04
 -1.16707E+04  6.66561E+03 -1.28579E+04 -2.03719E+03 -6.48676E+03 -9.09065E+03  2.46116E+03 -9.90829E+03
  9.07416E+03 -4.24952E+03  8.16641E+03  3.90379E+03  3.19349E+03  8.30962E+03 -1.25550E+03  6.67073E+03
 -4.18757E+03  4.52552E+03 -3.98123E+03  1.71885E+03 -1.90733E+03  1.27282E+03 -2.10495E+03  2.91755E+03
 -3.80425E+03  5.43780E+03 -9.32866E+03  4.68861E+03 -1.54279E+04  5.29910E+02 -1.61499E+04 -9.76506E+03
 -8.66698E+03 -2.01791E+04  3.78506E+03 -2.25628E+04  1.47892E+04 -1.76491E+04  2.19101E+04 -6.82252E+03
  2.02379E+04  4.69383E+03  1.27555E+04  1.41390E+04  1.72091E+03  1.58930E+04 -7.06606E+03  1.18060E+04
 -9.19613E+03  3.81171E+03 -5.96096E+03 -2.25148E+03 -1.92131E+03 -1.42758E+03 -4.00863E+02 -1.93938E+02
 -2.34829E+03  8.83322E+01 -3.29483E+03 -3.84968E+02 -1.05016E+03 -3.28850E+03  3.75357E+02 -5.62728E+03
  6.89183E+03 -4.73023E+03  9.94565E+03  3.56365E+01  1.08677E+04  8.29461E+03  4.08881E+03  1.63230E+04
 -6.87960E+03  1.79466E+04 -1.70148E+04  1.04438E+04 -2.03689E+04 -1.32242E+03 -1.45145E+04 -1.25475E+04
 -5.97034E+03 -1.64145E+04  4.17349E+03 -1.53964E+04  1.05384E+04 -8.66377E+03  1.11087E+04  7.84776E+02
  5.51670E+03  5.11395E+03 -2.27076E+02  4.53761E+03 -2.70661E+03 -7.92093E+02  9.14745E+02 -4.47577E+03
  5.21351E+03 -2.46446E+03  6.71354E+03  1.53339E+03  4.26781E+03  6.52288E+03  1.18640E+02  8.89430E+03
 -7.41282E+03  7.91671E+03 -1.14426E+04  1.06061E+03 -9.91699E+03 -7.76645E+03 -1.63821E+03 -1.37842E+04
  7.96242E+03 -1.21047E+04  1.30568E+04 -4.21926E+03  1.29330E+04  3.52183E+03  7.72407E+03  1.00859E+04
  1.10581E+03  1.12066E+04 -4.87227E+03  9.34212E+03 -7.29630E+03  4.80212E+03 -6.23454E+03  4.91576E+02
 -3.53021E+03 -6.75813E+01 -3.37074E+03  1.30481E+03 -6.21533E+03  2.16146E+03 -8.77661E+03 -1.45839E+03
 -8.11830E+03 -6.24908E+03 -2.77730E+03 -1.11352E+04  5.45480E+03 -1.18535E+04  1.06562E+04 -5.99185E+03
  1.17554E+04  1.50814E+03  6.74776E+03  8.11635E+03 -7.88962E+02  1.16153E+04 -9.00489E+03  7.06656E+03
