 $NMID ID='MM_0lb_SNR800_17hz_g50_30.RAW', FMTDAT='(8E13.5)'
 TRAMP=1., VOLUME=1. $END
  3.09640E+05  4.93640E+02  3.37463E+05  2.50197E+05  8.46307E+04  3.37712E+05 -1.32506E+05  2.50616E+05
 -1.89708E+05  8.28493E+04 -1.11353E+05 -3.25573E+04  1.08233E+03 -5.03261E+04  5.40455E+04  3.22879E+02
  3.53247E+04  5.27743E+04 -1.67356E+04  7.53128E+04 -6.04456E+04  6.30788E+04 -8.33586E+04  3.18519E+04
 -8.01145E+04 -1.09611E+04 -5.68167E+04 -5.06987E+04 -1.49791E+04 -6.90258E+04  2.70528E+04 -4.51070E+04
  3.95382E+04  3.93230E+03  1.57272E+04  4.74996E+04 -3.39935E+04  4.66727E+04 -6.60378E+04 -3.62697E+02
 -5.25294E+04 -5.65353E+04 -6.56471E+03 -7.58807E+04  3.35018E+04 -5.38346E+04  4.68028E+04 -1.67049E+04
  4.22748E+04  1.11553E+04  3.13538E+04  2.47764E+04  1.58227E+04  2.86121E+04 -5.07816E+03  2.71627E+04
 -2.20065E+04  1.24605E+04 -1.89003E+04 -4.38320E+03  4.91023E+03 -7.60391E+03  2.19091E+04  1.15001E+04
  7.30849E+03  3.42859E+04 -3.11733E+04  3.47450E+04 -6.20624E+04  2.37302E+03 -5.58357E+04 -4.18963E+04
 -1.23248E+04 -6.19360E+04  3.87841E+04 -4.41260E+04  5.64919E+04 -1.90777E+03  3.28405E+04  3.15931E+04
 -6.33410E+03  3.43093E+04 -2.89904E+04  1.44163E+04 -2.88553E+04 -4.79380E+03 -1.54111E+04 -1.05588E+04
 -7.61317E+03 -1.20616E+04 -7.40469E+02 -1.71911E+04  6.97316E+03 -2.24737E+04  1.52574E+04 -1.37355E+04
  1.19285E+04  4.53295E+03 -6.98994E+03  1.32773E+04 -2.01861E+04 -3.28415E+03 -8.20629E+03 -3.17966E+04
  2.16698E+04 -4.18442E+04  4.61097E+04 -1.90517E+04  4.34238E+04  1.89432E+04  1.48518E+04  4.25391E+04
 -1.55718E+04  3.21806E+04 -2.42441E+04  1.29946E+03 -8.91273E+03 -2.72472E+04  2.05114E+04 -3.20424E+04
  3.92676E+04 -8.07429E+03  3.33016E+04  2.32442E+04  1.63442E+04  4.43194E+04 -7.81682E+03  4.74525E+04
 -2.98327E+04  3.12659E+04 -3.93366E+04  8.94276E+03 -4.00604E+04 -1.58795E+04 -2.22947E+04 -3.58753E+04
  7.04826E+03 -3.57333E+04  3.03281E+04 -1.35255E+04  2.77003E+04  1.07310E+04  3.46945E+03  1.84688E+04
 -1.31527E+04  7.61251E+03 -9.98329E+03 -7.75539E+03  5.77604E+03 -1.03450E+04  1.77808E+04  6.44159E+03
  1.26632E+04  2.20062E+04 -6.63784E+03  2.40626E+04 -2.17720E+04  1.03980E+04 -2.60296E+04 -5.64347E+03
 -1.83640E+04 -1.66959E+04 -6.65448E+03 -1.84507E+04  3.78569E+03 -1.67621E+04  1.38925E+04 -1.58270E+04
  2.33491E+04 -1.19270E+04  2.99303E+04  1.92307E+03  2.24045E+04  1.76156E+04  4.13666E+03  3.41204E+04
 -1.68903E+04  2.90862E+04 -2.66399E+04  9.78509E+03 -2.01618E+04 -1.03575E+04 -4.10310E+03 -1.38084E+04
  2.35956E+03 -3.85521E+03 -3.36437E+03  5.85980E+03 -1.38630E+04  5.29389E+03 -1.47112E+04 -5.71135E+03
 -9.24389E+03 -1.69116E+04  4.88380E+03 -2.10598E+04  1.37947E+04 -1.45735E+04  1.56786E+04 -1.55253E+03
  1.00679E+04  1.15816E+04 -9.84297E+02  1.71724E+04 -1.15262E+04  9.66516E+03 -1.68161E+04 -3.75820E+03
 -1.25144E+04 -1.54090E+04 -1.69785E+03 -2.06334E+04  9.28788E+03 -1.66079E+04  1.72425E+04 -8.12466E+03
  1.57686E+04  3.14346E+02  1.13792E+04  4.10711E+03  5.83251E+03  6.54312E+02  8.15623E+03 -1.32772E+03
  1.51014E+04  2.57379E+03  1.64856E+04  1.34688E+04  1.04973E+04  2.65491E+04 -3.25809E+03  2.93268E+04
 -1.72499E+04  2.26940E+04 -2.70074E+04  1.13125E+04 -2.81407E+04 -1.81706E+03 -2.36415E+04 -1.61596E+04
 -1.10219E+04 -2.29041E+04  7.90130E+03 -2.12199E+04  1.83389E+04 -1.18325E+04  1.70007E+04  4.36233E+03
  6.99198E+03  1.24528E+04 -7.76561E+03  1.11016E+04 -1.45766E+04  2.46770E+03 -1.11599E+04 -8.79213E+03
 -2.23422E+02 -1.34394E+04  6.58291E+03 -1.01659E+04  8.83630E+03 -1.27516E+03  2.06019E+03  5.43588E+03
 -6.06531E+03  1.66973E+03 -4.54241E+03 -4.99610E+03  3.60474E+02 -1.09331E+04  8.38703E+03 -1.14332E+04
  1.37295E+04 -5.72572E+03  1.41029E+04  2.83673E+03  1.22196E+04  1.10651E+04  5.65006E+03  1.62735E+04
 -2.08209E+03  1.82479E+04 -1.10888E+04  1.12887E+04 -1.30324E+04  3.00282E+03 -9.70354E+03 -2.51489E+03
 -4.85758E+03 -3.74478E+03 -1.09063E+03  1.44419E+03 -2.50611E+03  2.24502E+03 -4.20725E+03  3.54406E+03
 -8.95183E+03 -6.40007E+02 -9.49901E+03 -7.84427E+03 -3.98064E+03 -1.27517E+04  3.84733E+03 -9.63639E+03
  8.08660E+03 -4.03301E+03  5.74356E+03  2.55602E+03  4.16029E+02  3.52115E+03 -4.05079E+03 -2.15894E+02
 -4.17749E+03 -5.87233E+03 -7.78398E+02 -8.42284E+03  4.86085E+03 -9.09482E+03  1.15076E+04 -4.57092E+03
  1.32366E+04  7.74800E+02  9.89047E+03  7.17082E+03  2.11490E+03  9.91072E+03 -5.95062E+03  8.89954E+03
 -7.93724E+03  3.00933E+03 -4.18504E+03 -1.75138E+03  1.61255E+03 -2.27487E+03  5.43157E+03 -9.76128E+02
  4.77369E+03  3.94455E+03  1.08865E+03  7.26196E+03 -4.96725E+03  7.06940E+03 -8.99575E+03  1.87656E+03
 -5.58390E+03 -3.96435E+03  4.58012E+01 -7.49866E+03  4.11907E+03 -3.69575E+03  4.34947E+03  1.35888E+03
  6.60070E+02  4.12736E+03 -4.38406E+03  5.66700E+03 -5.93371E+03  2.80931E+03 -5.89517E+03 -1.79832E+03
 -3.70255E+03 -7.18274E+03  1.59818E+03 -8.18383E+03  7.24623E+03 -5.32788E+03  7.93961E+03  9.68578E+02
  5.40829E+03  6.24694E+03  3.13421E+02  8.40588E+03 -6.15308E+03  4.55855E+03 -6.32870E+03 -3.84505E+02
 -6.32834E+03 -5.57604E+03 -1.58168E+03 -5.97264E+03  3.04590E+03 -5.40652E+03  3.60105E+03 -2.98861E+03
  3.39769E+03  4.53806E+02 -1.10368E+02  1.23939E+03  5.21245E+02 -6.67727E+02  3.81746E+02 -2.83676E+03
  4.60466E+03 -1.35550E+03  6.40516E+03  8.74380E+02  6.95600E+03  4.06100E+03  5.85259E+03  8.50621E+03
 -1.68077E+03  1.03667E+04 -9.00731E+03  7.79151E+03 -1.16165E+04  1.39445E+03 -9.33895E+03 -3.37991E+03
 -4.79815E+03 -7.74147E+03 -6.37445E+02 -5.81292E+03  2.37293E+03 -2.95851E+03  2.01904E+03 -2.33983E+03
  1.73970E+03 -1.53497E+03  2.39284E+03 -2.75257E+03  3.78559E+03 -1.70820E+03  4.02538E+03  8.66426E+01
  4.99513E+03  1.37379E+03  1.59062E+03  3.88670E+03 -1.62680E+03  3.44993E+03 -5.14587E+03  3.13386E+03
 -6.03406E+03 -7.99898E+02 -2.81607E+03 -3.94952E+03  3.55925E+02 -6.22571E+03  3.66760E+03 -6.65928E+03
  6.31034E+03 -3.80779E+03  7.97753E+03  4.08091E+02  5.62670E+03  5.43406E+03  9.46163E+02  7.35406E+03
 -2.66090E+03  6.85280E+03 -3.91276E+03  2.39603E+03 -2.45887E+03 -1.00617E+03 -7.12537E+02 -5.94804E+02
 -5.20392E+02  6.00458E+02 -1.15216E+03  2.23528E+03 -2.85823E+03  1.23537E+03 -4.65803E+03 -5.60672E+02
 -2.22187E+03 -4.77497E+03  7.00454E+02 -5.76237E+03  3.22530E+03 -5.28903E+03  4.68738E+03 -1.70079E+03
  5.01549E+03  2.56462E+03  2.41034E+03  4.33305E+03 -1.10894E+03  5.41007E+03 -3.57573E+03  3.14258E+03
 -4.91561E+03  3.03339E+02 -3.94575E+03 -3.02154E+03 -5.46550E+02 -3.84545E+03  2.04932E+03 -3.14400E+03
  3.46289E+03 -1.50880E+03  2.10064E+03  8.31688E+02  6.88181E+02  1.93862E+03  1.23180E+03  7.16539E+02
  1.72738E+03  5.77973E+02  1.42045E+03  8.49119E+02  1.18248E+03  2.51540E+03  1.64226E+03  2.43224E+03
 -1.42266E+03  3.62525E+03 -3.25347E+03  5.09840E+03 -4.15356E+03  1.37315E+03 -5.27707E+03 -1.17595E+03
 -2.62168E+03 -4.43949E+03  7.92218E+02 -5.86151E+03  2.72379E+03 -3.34897E+03  3.75138E+03 -9.49684E+02
  3.20824E+03  2.04356E+03  5.74445E+02  3.16805E+03 -1.03945E+03  1.34194E+03 -1.40940E+03  6.62245E+01
 -7.54299E+02 -1.75571E+03  1.47393E+03 -1.77355E+03  1.73125E+03 -1.16758E+03  1.68327E+03  7.59126E+02
  1.05312E+03  6.65292E+02  9.89305E+02 -9.63910E+01 -4.06975E+02  7.84273E+02  1.61925E+03 -2.09617E+02
  1.67362E+02 -1.65682E+02  2.05805E+03  7.34604E+02  3.57171E+02  2.94978E+03 -3.24151E+02  3.52251E+03
 -1.89154E+03  1.59246E+03 -2.73136E+03  2.65180E+02 -2.67934E+03 -1.02644E+03 -3.72702E+02 -1.41265E+03
  3.07824E+02 -1.72804E+03  1.10664E+03 -6.74049E+02  7.44247E+02  1.27420E+03 -7.64879E+02  1.21111E+03
 -1.89845E+03  8.67496E+02 -1.84420E+03 -1.55569E+03 -9.67582E+02 -2.81316E+03  2.71921E+02 -2.12533E+03
  7.99998E+02 -8.14216E+02  1.25002E+03  2.61947E+01  1.38229E+03  1.43104E+02  1.61145E+02  1.18037E+03
 -6.26026E+02  3.12497E+02 -1.25612E+03 -1.89224E+02  5.29658E+02 -1.27029E+03  2.22322E+03 -1.05957E+03
  2.01989E+03 -3.11236E+01  3.10420E+03  1.13023E+03  1.25683E+03  2.24026E+03 -1.00046E+03  2.30364E+03
 -1.95863E+03  6.33071E+02 -2.01910E+03  4.51216E+00 -7.71263E+02 -1.94562E+03  5.05908E+02 -1.13224E+03
  1.92533E+03 -1.01805E+03  1.12428E+03  1.05179E+03  2.15918E+02  1.66520E+03  5.23233E+01  1.59646E+03
 -3.67031E+02  1.35729E+03 -6.00892E+02  3.68187E+02  7.99017E+01  2.48076E+02 -5.99966E+02  7.33835E+02
 -8.25409E+02  1.38650E+03 -1.96542E+03  3.68471E+02 -2.32952E+03  1.32689E+02 -2.85444E+03 -1.11084E+03
 -1.20689E+03 -3.24322E+03  6.91596E+02 -3.47032E+03  1.49949E+03 -3.12045E+03  3.77965E+03 -1.36005E+03
  3.21028E+03  1.29910E+02  1.73295E+03  2.53692E+03 -4.53404E+02  2.04124E+03 -1.06656E+03  1.74049E+03
 -1.14407E+03  8.65777E+02 -8.02783E+02 -6.97579E+01 -6.02459E+02  2.59989E+02 -5.04255E+02  5.55229E+00
 -7.73025E+02 -1.76751E+02 -9.33061E+02 -4.55740E+00  2.19388E+02 -9.15624E+02 -4.91770E+02 -1.23915E+03
  1.55339E+03 -8.93292E+02  8.36925E+02 -4.65788E+01  1.39792E+03  1.38761E+03 -5.26688E+02  2.30823E+03
 -1.10952E+03  2.79527E+03 -1.97365E+03  1.65068E+03 -2.55663E+03 -2.22136E+02 -1.83553E+03 -1.83853E+03
 -1.11950E+03 -1.68606E+03  3.78744E+02 -1.70765E+03  6.79073E+02 -7.02123E+02  1.18358E+03  1.60574E+02
  9.95898E+02  2.66537E+02  1.42739E+02  4.68953E+02 -4.25678E+02  2.38993E+02 -1.54460E+02 -3.72383E+02
  5.98682E+02  1.69023E+02  4.15713E+02  6.12536E+02  1.66203E+02  8.19971E+02  3.93551E+02  5.72307E+02
 -7.68552E+02  9.92473E+02 -9.13863E+02  2.73292E+02 -1.13821E+03 -7.16567E+02  8.74688E+00 -1.61646E+03
  5.67641E+02 -1.11785E+03  1.05928E+03  1.06673E+01  1.49810E+03 -6.06873E+02  5.84594E+02  1.00241E+03
  2.75764E+02  7.23219E+02 -2.98729E+02  7.05138E+02 -6.39499E+02  8.49127E+02 -3.55249E+02  1.47704E+02
 -1.69644E+02 -4.01285E+01 -3.57342E+02  7.53203E+01 -7.70753E+02  5.81334E+02 -1.03873E+03 -4.19841E+01
 -1.14714E+03 -2.92112E+01 -6.09230E+01 -1.36966E+03  6.97286E+02 -2.09035E+03  1.27635E+03 -4.59854E+02
  1.07943E+03  3.26760E+02  2.52898E+02  6.20372E+02 -3.24518E+02  1.31291E+03 -6.49082E+02  9.24756E+02
