 $NMID ID='MM_0lb_SNR800_12hz_g60_29.RAW', FMTDAT='(8E13.5)'
 TRAMP=1., VOLUME=1. $END
  3.10080E+05  2.80580E+02  3.37638E+05  2.51007E+05  8.50667E+04  3.38492E+05 -1.32443E+05  2.52309E+05
 -1.90811E+05  8.40097E+04 -1.12551E+05 -3.25276E+04  4.63760E+02 -5.09215E+04  5.37216E+04 -5.08086E+02
  3.53715E+04  5.25334E+04 -1.67995E+04  7.59225E+04 -6.14837E+04  6.42461E+04 -8.51980E+04  3.29765E+04
 -8.20081E+04 -1.14809E+04 -5.79693E+04 -5.20334E+04 -1.52253E+04 -7.05584E+04  2.80671E+04 -4.63284E+04
  4.10325E+04  3.88691E+03  1.64598E+04  4.85444E+04 -3.47812E+04  4.78062E+04 -6.77828E+04  9.54632E+01
 -5.45174E+04 -5.71649E+04 -7.15393E+03 -7.86645E+04  3.43589E+04 -5.67026E+04  4.90395E+04 -1.81548E+04
  4.47580E+04  1.13371E+04  3.28861E+04  2.62143E+04  1.60145E+04  3.01920E+04 -5.69672E+03  2.74798E+04
 -2.21651E+04  1.20593E+04 -1.79068E+04 -5.47060E+03  6.41997E+03 -7.41661E+03  2.31352E+04  1.32512E+04
  7.37791E+03  3.68424E+04 -3.32140E+04  3.69064E+04 -6.52900E+04  1.97490E+03 -5.83455E+04 -4.40242E+04
 -1.24021E+04 -6.54852E+04  4.09842E+04 -4.68349E+04  6.01686E+04 -2.65058E+03  3.59634E+04  3.38871E+04
 -5.53438E+03  3.85222E+04 -3.14650E+04  1.80085E+04 -3.23532E+04 -3.58049E+03 -1.81369E+04 -1.14921E+04
 -9.19290E+03 -1.45663E+04 -6.67025E+02 -1.91959E+04  8.07790E+03 -2.33905E+04  1.57568E+04 -1.28024E+04
  1.08711E+04  6.34116E+03 -9.81441E+03  1.29208E+04 -2.29731E+04 -6.05457E+03 -8.43586E+03 -3.64629E+04
  2.43257E+04 -4.60542E+04  5.11890E+04 -2.04412E+04  4.78280E+04  2.03497E+04  1.69247E+04  4.62922E+04
 -1.64582E+04  3.56790E+04 -2.68528E+04  3.00696E+03 -1.12668E+04 -2.92010E+04  2.14036E+04 -3.59367E+04
  4.33477E+04 -1.03880E+04  3.86123E+04  2.43680E+04  2.01427E+04  4.98219E+04 -8.26984E+03  5.42148E+04
 -3.39601E+04  3.66110E+04 -4.58631E+04  1.05902E+04 -4.59962E+04 -1.78597E+04 -2.51385E+04 -4.09400E+04
  7.65990E+03 -4.05833E+04  3.35885E+04 -1.62437E+04  3.11509E+04  1.11262E+04  4.99588E+03  2.04490E+04
 -1.35932E+04  9.38795E+03 -1.08327E+04 -7.38025E+03  5.69873E+03 -1.15844E+04  1.82577E+04  5.70693E+03
  1.42148E+04  2.24004E+04 -5.58433E+03  2.64143E+04 -2.27928E+04  1.32401E+04 -3.04465E+04 -3.42647E+03
 -2.36992E+04 -1.80962E+04 -1.06609E+04 -2.34439E+04  4.22802E+03 -2.36480E+04  1.86887E+04 -2.13388E+04
  2.97764E+04 -1.37309E+04  3.60260E+04  4.13973E+03  2.58157E+04  2.28010E+04  4.47108E+03  3.94420E+04
 -1.94863E+04  3.24826E+04 -2.95535E+04  1.15172E+04 -2.22339E+04 -1.02745E+04 -4.66430E+03 -1.28331E+04
  1.11791E+03 -1.95602E+03 -6.15820E+03  7.53471E+03 -1.89001E+04  5.01870E+03 -1.91795E+04 -8.81953E+03
 -1.13647E+04 -2.15667E+04  6.09163E+03 -2.64016E+04  1.74672E+04 -1.86443E+04  2.11535E+04 -1.57121E+03
  1.34002E+04  1.53282E+04 -1.32721E+03  2.19014E+04 -1.57960E+04  1.26784E+04 -2.14759E+04 -4.31052E+03
 -1.63041E+04 -1.97647E+04 -2.01072E+03 -2.63812E+04  1.19653E+04 -2.15494E+04  2.18127E+04 -1.11996E+04
  2.04132E+04  1.19643E+02  1.49261E+04  5.21191E+03  8.26563E+03  1.36670E+03  1.13721E+04 -2.06445E+03
  2.02246E+04  3.17406E+03  2.31687E+04  1.73066E+04  1.58081E+04  3.48286E+04 -2.65861E+03  4.07404E+04
 -2.31420E+04  3.34501E+04 -3.80451E+04  1.71729E+04 -4.01593E+04 -3.15207E+03 -3.31592E+04 -2.37362E+04
 -1.32046E+04 -3.34172E+04  1.20472E+04 -2.98152E+04  2.54975E+04 -1.44749E+04  2.25407E+04  7.07673E+03
  7.69621E+03  1.68353E+04 -1.06166E+04  1.44270E+04 -1.89040E+04  2.46142E+03 -1.40603E+04 -1.18512E+04
 -8.90224E+01 -1.78483E+04  9.27889E+03 -1.28880E+04  1.21147E+04 -1.14579E+03  3.36431E+03  7.64181E+03
 -8.00559E+03  3.70323E+03 -7.87837E+03 -6.55208E+03 -1.40685E+03 -1.65682E+04  1.09899E+04 -1.74443E+04
  2.00032E+04 -9.55298E+03  2.29097E+04  3.35077E+03  1.99749E+04  1.62858E+04  9.27752E+03  2.55935E+04
 -4.66538E+03  2.73786E+04 -1.78358E+04  1.71166E+04 -1.97256E+04  3.49120E+03 -1.39463E+04 -4.80286E+03
 -5.90422E+03 -6.69712E+03 -5.91890E+02  1.11450E+03 -2.83468E+03  3.10789E+03 -6.59545E+03  5.13204E+03
 -1.27190E+04 -7.82510E+02 -1.33192E+04 -1.06255E+04 -5.34440E+03 -1.74307E+04  5.54662E+03 -1.38875E+04
  1.17525E+04 -5.80417E+03  8.22536E+03  4.09675E+03 -2.02909E+02  5.45843E+03 -6.81290E+03  6.43446E+01
 -6.18587E+03 -9.20100E+03 -1.15971E+03 -1.33175E+04  7.71243E+03 -1.40674E+04  1.78497E+04 -7.82558E+03
  2.05033E+04  2.22980E+03  1.49008E+04  1.21292E+04  2.77710E+03  1.64593E+04 -8.09631E+03  1.35245E+04
 -1.10564E+04  3.67791E+03 -5.64280E+03 -2.54873E+03  2.30105E+03 -3.82607E+03  7.32349E+03 -7.66502E+02
  6.66204E+03  6.03887E+03  9.58069E+02  1.11508E+04 -7.99672E+03  1.04117E+04 -1.35810E+04  2.29248E+03
 -8.99157E+03 -6.86554E+03  3.40921E+02 -1.15297E+04  7.16656E+03 -5.71059E+03  7.68451E+03  2.74463E+03
  1.25109E+03  8.25444E+03 -7.31184E+03  9.85496E+03 -1.13530E+04  4.42979E+03 -1.11177E+04 -4.09560E+03
 -6.66119E+03 -1.30468E+04  3.30613E+03 -1.47024E+04  1.26212E+04 -8.75585E+03  1.38181E+04  2.24539E+03
  8.57024E+03  1.11470E+04 -8.92482E+02  1.37124E+04 -1.00090E+04  7.38753E+03 -1.07148E+04 -1.18728E+03
 -9.09300E+03 -8.87741E+03 -1.43672E+03 -1.00433E+04  5.31361E+03 -8.07678E+03  6.54569E+03 -3.35384E+03
  4.37585E+03  1.53080E+03 -9.74428E+02  1.79957E+03  7.29088E-01 -2.60843E+03  1.69888E+03 -5.55713E+03
  9.30533E+03 -3.46486E+03  1.29310E+04  1.38632E+03  1.25414E+04  8.75675E+03  8.94469E+03  1.67266E+04
 -3.74913E+03  1.92483E+04 -1.62540E+04  1.46139E+04 -2.10741E+04  2.79706E+03 -1.67258E+04 -6.92182E+03
 -8.44828E+03 -1.37679E+04 -2.15362E+02 -1.14864E+04  4.56703E+03 -6.70085E+03  4.10585E+03 -4.29840E+03
  2.98497E+03 -2.70033E+03  3.26265E+03 -3.71111E+03  4.64925E+03 -2.76299E+03  6.46162E+03 -8.35268E+02
  9.04666E+03  2.00858E+03  4.45867E+03  7.47635E+03 -2.03366E+03  8.68264E+03 -9.30005E+03  7.02843E+03
 -1.15171E+04 -1.48448E+03 -7.13000E+03 -8.17051E+03 -3.30548E+02 -1.21308E+04  6.85508E+03 -1.24259E+04
  1.29897E+04 -6.72809E+03  1.54592E+04  2.04577E+03  1.05795E+04  1.06734E+04  1.72059E+03  1.37320E+04
 -6.07557E+03  1.18866E+04 -8.08972E+03  3.82807E+03 -5.24143E+03 -1.52427E+03 -2.52279E+03 -1.45414E+03
 -8.99657E+02 -3.56564E+01 -2.14767E+03  2.48215E+03 -4.55757E+03  1.90171E+03 -8.17429E+03 -1.06662E+03
 -5.02812E+03 -8.15763E+03  6.72936E+01 -1.12221E+04  6.94453E+03 -1.04541E+04  1.06863E+04 -3.16021E+03
  1.08245E+04  5.81379E+03  5.08810E+03  1.00113E+04 -2.17862E+03  1.11478E+04 -7.95123E+03  7.09862E+03
 -1.04136E+04  3.09449E+02 -8.22533E+03 -6.47866E+03 -8.76340E+02 -9.17097E+03  4.71819E+03 -6.94202E+03
  6.78469E+03 -2.58186E+03  4.85535E+03  2.04225E+03  1.58284E+03  3.49872E+03  1.26687E+03  1.49371E+03
  2.38398E+03  8.90486E+02  2.59840E+03  1.24584E+03  3.14934E+03  4.12194E+03  3.03932E+03  5.47931E+03
 -2.54649E+03  8.68481E+03 -7.59876E+03  9.27082E+03 -1.10162E+04  2.45161E+03 -1.17808E+04 -4.16439E+03
 -5.70163E+03 -1.08470E+04  1.75225E+03 -1.20384E+04  6.68549E+03 -8.03013E+03  9.07637E+03 -2.13069E+03
  7.11763E+03  4.14684E+03  1.36585E+03  6.53332E+03 -2.73765E+03  4.23251E+03 -4.64155E+03 -7.63379E+02
 -2.20458E+03 -4.65263E+03  2.63807E+03 -4.87778E+03  4.71597E+03 -2.43646E+03  4.35468E+03  7.09301E+02
  2.70724E+03  1.79263E+03  1.40325E+03  1.53092E+03 -7.57870E+02  1.50083E+03  1.55101E+03 -5.59709E+02
  1.32125E+03 -2.66138E+02  4.27835E+03  1.54138E+03  2.35380E+03  6.01041E+03 -1.03019E+03  7.31097E+03
 -4.83690E+03  4.91430E+03 -6.86147E+03  1.61192E+03 -6.25202E+03 -2.11783E+03 -2.00591E+03 -3.77432E+03
  6.58287E+02 -4.10489E+03  2.70383E+03 -1.79137E+03  2.41338E+03  2.15789E+03 -1.42324E+03  3.56031E+03
 -4.42388E+03  2.31776E+03 -5.17640E+03 -2.91990E+03 -2.78355E+03 -5.81613E+03  7.88739E+02 -5.92991E+03
  3.09160E+03 -3.14738E+03  3.91091E+03 -1.31478E+02  3.75863E+03  1.01750E+03  3.90138E+02  3.27018E+03
 -2.17707E+03  9.72897E+02 -2.77754E+03 -1.57125E+03  1.02617E+03 -3.75365E+03  5.22907E+03 -3.57362E+03
  6.22549E+03  4.08271E+02  6.40450E+03  4.31770E+03  2.18813E+03  6.17235E+03 -2.09791E+03  6.39349E+03
 -5.41076E+03  2.59025E+03 -5.66784E+03 -8.92722E+02 -2.55910E+03 -4.31073E+03  1.28082E+03 -3.78304E+03
  4.39455E+03 -2.25109E+03  3.25706E+03  2.04658E+03  1.19898E+03  3.92123E+03 -5.09329E+02  3.10629E+03
 -1.47313E+03  2.30520E+03 -1.51540E+03  7.36689E+02 -7.99493E+02  5.54549E+02 -1.27552E+03  1.20919E+03
 -1.57037E+03  2.56542E+03 -5.04779E+03  1.88762E+03 -6.04981E+03  4.18882E+02 -7.42009E+03 -4.48011E+03
 -3.80029E+03 -8.41548E+03  1.83424E+03 -1.03204E+04  6.02372E+03 -7.89249E+03  9.58068E+03 -3.08532E+03
  9.01101E+03  1.58569E+03  5.41551E+03  5.66439E+03  3.96350E+01  6.39131E+03 -2.51103E+03  4.96677E+03
 -3.64792E+03  2.31789E+03 -2.04394E+03 -7.07055E+02 -8.71668E+02 -5.87718E+02 -8.08655E+02 -3.45746E-01
 -1.82824E+03 -6.04247E+01 -1.51818E+03 -1.11220E+02 -4.08613E+02 -1.48430E+03  3.67623E+01 -2.59223E+03
  2.95719E+03 -2.30208E+03  3.37013E+03 -3.36809E+02  4.26905E+03  3.49224E+03  9.82213E+02  6.13695E+03
 -2.84347E+03  7.53932E+03 -6.72686E+03  4.47030E+03 -7.66049E+03 -9.05806E+02 -5.37492E+03 -4.75427E+03
 -2.44043E+03 -6.35930E+03  1.36640E+03 -5.70655E+03  3.97529E+03 -3.11626E+03  4.02483E+03  3.32684E+01
  2.31924E+03  2.38911E+03 -3.73881E+02  2.14885E+03 -1.22803E+03 -2.15966E+02 -2.95800E+02 -1.28194E+03
  2.00333E+03 -7.91536E+02  1.88194E+03  1.35372E+03  1.77683E+03  2.45213E+03  5.44906E+02  3.13404E+03
 -2.88825E+03  2.80039E+03 -4.27778E+03  2.71941E+02 -3.74552E+03 -2.60605E+03 -6.44595E+02 -5.02090E+03
  2.92087E+03 -4.02211E+03  4.17266E+03 -1.19392E+03  4.77067E+03  6.03740E+02  2.67020E+03  3.77321E+03
  6.59030E+02  4.09360E+03 -1.60405E+03  2.99874E+03 -2.51550E+03  1.88583E+03 -2.24679E+03  9.44965E+01
 -1.10372E+03 -3.64468E+02 -1.35753E+03  5.74983E+02 -1.89439E+03  7.47618E+02 -2.96840E+03 -5.96462E+02
 -3.20031E+03 -1.66129E+03 -1.00698E+03 -3.88481E+03  1.66183E+03 -4.71487E+03  3.42508E+03 -1.96231E+03
  3.84633E+03  4.13931E+02  1.85446E+03  2.75422E+03 -1.64815E+02  4.17731E+03 -2.64546E+03  2.70340E+03
