 $NMID ID='MM_0lb_SNR800_10hz_g60_58.RAW', FMTDAT='(8E13.5)'
 TRAMP=1., VOLUME=1. $END
  3.09744E+05  1.61402E+02  3.38002E+05  2.50333E+05  8.48496E+04  3.38459E+05 -1.32340E+05  2.51881E+05
 -1.90744E+05  8.34050E+04 -1.12752E+05 -3.20998E+04  2.22521E+02 -5.11570E+04  5.38922E+04 -4.44967E+02
  3.58692E+04  5.28159E+04 -1.62759E+04  7.57914E+04 -6.14938E+04  6.49738E+04 -8.54898E+04  3.26272E+04
 -8.28016E+04 -1.16475E+04 -5.82101E+04 -5.22683E+04 -1.53185E+04 -7.10938E+04  2.81412E+04 -4.69135E+04
  4.09709E+04  3.48703E+03  1.69483E+04  4.82080E+04 -3.47157E+04  4.83245E+04 -6.76478E+04  4.21337E+01
 -5.50432E+04 -5.79765E+04 -7.27788E+03 -7.91145E+04  3.47908E+04 -5.74313E+04  4.99671E+04 -1.83821E+04
  4.56288E+04  1.16109E+04  3.30587E+04  2.66557E+04  1.59536E+04  3.03704E+04 -6.01829E+03  2.75425E+04
 -2.25641E+04  1.19345E+04 -1.82710E+04 -6.10249E+03  7.06169E+03 -7.34241E+03  2.37886E+04  1.38616E+04
  7.09175E+03  3.78554E+04 -3.40938E+04  3.71869E+04 -6.57351E+04  2.48461E+03 -5.91764E+04 -4.46545E+04
 -1.25637E+04 -6.57303E+04  4.18634E+04 -4.74973E+04  6.13241E+04 -2.35879E+03  3.68744E+04  3.45752E+04
 -5.53521E+03  3.94999E+04 -3.16452E+04  1.88073E+04 -3.34324E+04 -3.72826E+03 -1.95857E+04 -1.18851E+04
 -9.48010E+03 -1.52975E+04 -4.32611E+02 -2.01047E+04  8.56768E+03 -2.35352E+04  1.58002E+04 -1.23897E+04
  1.05052E+04  6.37551E+03 -1.05253E+04  1.22411E+04 -2.37203E+04 -6.81017E+03 -8.76501E+03 -3.77469E+04
  2.56318E+04 -4.71352E+04  5.25563E+04 -2.11781E+04  4.89482E+04  2.09797E+04  1.76675E+04  4.72321E+04
 -1.68877E+04  3.64281E+04 -2.77557E+04  2.68963E+03 -1.19339E+04 -2.95980E+04  2.11067E+04 -3.68659E+04
  4.48147E+04 -1.10472E+04  4.02277E+04  2.49087E+04  2.14775E+04  5.10488E+04 -8.33229E+03  5.64452E+04
 -3.52586E+04  3.85885E+04 -4.72454E+04  1.12091E+04 -4.79083E+04 -1.83567E+04 -2.67243E+04 -4.24396E+04
  7.70618E+03 -4.26663E+04  3.45459E+04 -1.66589E+04  3.23731E+04  1.11616E+04  4.95777E+03  2.10995E+04
 -1.40751E+04  9.84775E+03 -1.08457E+04 -7.47800E+03  5.49481E+03 -1.11916E+04  1.93111E+04  5.66152E+03
  1.51499E+04  2.24192E+04 -5.20483E+03  2.74613E+04 -2.36319E+04  1.43445E+04 -3.12649E+04 -2.95569E+03
 -2.53736E+04 -1.87303E+04 -1.20532E+04 -2.51034E+04  4.64569E+03 -2.57815E+04  2.01716E+04 -2.32762E+04
  3.25996E+04 -1.42935E+04  3.81905E+04  4.89701E+03  2.72648E+04  2.46428E+04  4.38625E+03  4.18918E+04
 -1.97160E+04  3.42110E+04 -3.05549E+04  1.24777E+04 -2.22717E+04 -9.94713E+03 -4.92510E+03 -1.24906E+04
  1.01785E+03 -1.23052E+03 -7.69206E+03  8.41542E+03 -2.06022E+04  5.08957E+03 -2.02520E+04 -9.86518E+03
 -1.17345E+04 -2.35464E+04  5.99344E+03 -2.79599E+04  1.92148E+04 -1.97455E+04  2.31976E+04 -1.90693E+03
  1.46152E+04  1.62012E+04 -1.37843E+03  2.32165E+04 -1.65702E+04  1.33862E+04 -2.37379E+04 -4.42269E+03
 -1.73438E+04 -2.10720E+04 -2.03757E+03 -2.81696E+04  1.26350E+04 -2.35508E+04  2.34999E+04 -1.21117E+04
  2.23013E+04 -2.41297E+02  1.58838E+04  4.83691E+03  8.94619E+03  1.10131E+03  1.25320E+04 -1.78368E+03
  2.18664E+04  2.86547E+03  2.56163E+04  1.82577E+04  1.74805E+04  3.79643E+04 -2.62346E+03  4.46588E+04
 -2.55108E+04  3.73025E+04 -4.20489E+04  1.90266E+04 -4.48124E+04 -3.41493E+03 -3.59711E+04 -2.60348E+04
 -1.42590E+04 -3.73242E+04  1.29527E+04 -3.25358E+04  2.77866E+04 -1.55186E+04  2.42573E+04  7.79189E+03
  8.37626E+03  1.87185E+04 -1.18319E+04  1.56667E+04 -2.01749E+04  2.83945E+03 -1.50483E+04 -1.30729E+04
 -3.90844E+02 -1.93671E+04  1.05157E+04 -1.43619E+04  1.36215E+04 -1.31911E+03  3.96183E+03  8.52983E+03
 -8.80768E+03  4.21874E+03 -9.15263E+03 -7.13548E+03 -1.51793E+03 -1.78452E+04  1.16678E+04 -1.98933E+04
  2.28180E+04 -1.13011E+04  2.59529E+04  3.04402E+03  2.31271E+04  1.84282E+04  1.08968E+04  2.90581E+04
 -6.07056E+03  3.12815E+04 -2.05738E+04  1.91786E+04 -2.25241E+04  4.10429E+03 -1.56254E+04 -5.95698E+03
 -6.49823E+03 -7.53955E+03 -6.54950E+02  4.01186E+02 -2.94155E+03  3.21713E+03 -7.30547E+03  5.32777E+03
 -1.43290E+04 -8.97833E+02 -1.45310E+04 -1.15767E+04 -6.18796E+03 -1.95691E+04  6.10196E+03 -1.58092E+04
  1.25148E+04 -6.33556E+03  9.06667E+03  4.37499E+03 -2.89640E+02  6.36814E+03 -8.10088E+03 -2.70175E+02
 -7.62610E+03 -9.94841E+03 -1.14141E+03 -1.53672E+04  9.24883E+03 -1.63825E+04  1.99152E+04 -9.07807E+03
  2.34289E+04  2.32742E+03  1.75680E+04  1.45800E+04  3.15150E+03  1.86553E+04 -9.47636E+03  1.54279E+04
 -1.28007E+04  4.39192E+03 -6.40944E+03 -3.24202E+03  2.25711E+03 -4.43624E+03  8.31063E+03 -9.22061E+02
  7.34718E+03  6.88627E+03  1.11674E+03  1.24337E+04 -9.53675E+03  1.19823E+04 -1.50772E+04  2.74106E+03
 -1.05207E+04 -8.21070E+03  5.90154E+02 -1.36997E+04  8.80817E+03 -6.92117E+03  9.18544E+03  3.71230E+03
  2.29701E+03  1.00314E+04 -8.22204E+03  1.15256E+04 -1.34391E+04  4.92367E+03 -1.36689E+04 -5.07672E+03
 -7.68170E+03 -1.58253E+04  3.88092E+03 -1.82732E+04  1.54168E+04 -1.04316E+04  1.65699E+04  3.04283E+03
  1.00228E+04  1.33393E+04 -1.13665E+03  1.55490E+04 -1.18906E+04  8.88896E+03 -1.21531E+04 -8.63107E+02
 -1.06881E+04 -1.08007E+04 -1.77181E+03 -1.17585E+04  6.18120E+03 -1.00297E+04  7.90981E+03 -3.55365E+03
  4.56666E+03  2.13856E+03 -1.30852E+03  1.82064E+03 -8.04811E+02 -3.14080E+03  2.54676E+03 -7.08264E+03
  1.13941E+04 -4.75143E+03  1.58578E+04  1.86594E+03  1.58878E+04  1.08231E+04  9.74920E+03  2.06302E+04
 -4.93871E+03  2.36315E+04 -1.91171E+04  1.73986E+04 -2.53598E+04  3.43131E+03 -2.06820E+04 -8.54757E+03
 -1.03643E+04 -1.68118E+04 -3.66371E+02 -1.45436E+04  5.35322E+03 -8.37762E+03  4.78745E+03 -4.82522E+03
  3.97893E+03 -2.91743E+03  3.84640E+03 -3.83143E+03  5.74759E+03 -3.52632E+03  7.63257E+03 -1.21067E+03
  1.05143E+04  2.26104E+03  6.00414E+03  9.54826E+03 -2.38864E+03  1.09922E+04 -1.11486E+04  8.26751E+03
 -1.39848E+04 -1.63785E+03 -9.05002E+03 -9.82717E+03 -1.57503E+03 -1.52437E+04  8.70084E+03 -1.57239E+04
  1.60510E+04 -8.44610E+03  1.91801E+04  2.84832E+03  1.29402E+04  1.31510E+04  1.94299E+03  1.75646E+04
 -7.24500E+03  1.41880E+04 -1.02409E+04  4.82646E+03 -6.80593E+03 -1.72454E+03 -2.89458E+03 -2.16803E+03
 -1.52224E+03 -1.25672E+02 -2.38585E+03  2.99423E+03 -6.00137E+03  2.01846E+03 -9.87832E+03 -1.38059E+03
 -6.72295E+03 -9.95194E+03 -2.21178E+02 -1.39611E+04  8.84460E+03 -1.31750E+04  1.38915E+04 -4.32504E+03
  1.42038E+04  6.80436E+03  6.85319E+03  1.25219E+04 -2.84565E+03  1.43160E+04 -9.97034E+03  9.37967E+03
 -1.33955E+04  6.27007E+02 -1.03652E+04 -8.63636E+03 -1.32232E+03 -1.22306E+04  6.08467E+03 -8.73207E+03
  9.14822E+03 -2.56624E+03  6.19859E+03  1.94994E+03  2.14897E+03  4.53308E+03  1.57500E+03  1.79749E+03
  3.12740E+03  1.41158E+03  3.49825E+03  2.09908E+03  4.12102E+03  5.05198E+03  3.75878E+03  7.38280E+03
 -2.78003E+03  1.13579E+04 -1.00554E+04  1.12849E+04 -1.46605E+04  2.98692E+03 -1.52215E+04 -5.99213E+03
 -7.18330E+03 -1.43486E+04  2.04184E+03 -1.59040E+04  9.06740E+03 -9.97834E+03  1.16375E+04 -2.55736E+03
  9.12900E+03  5.46797E+03  2.22917E+03  8.26189E+03 -3.84822E+03  5.44562E+03 -5.90642E+03 -8.30373E+02
 -3.02004E+03 -6.11557E+03  3.11598E+03 -6.86410E+03  5.93784E+03 -3.20886E+03  5.65357E+03  1.42424E+03
  3.53790E+03  2.97334E+03  1.57569E+03  2.49244E+03 -9.25279E+02  1.91674E+03  1.77496E+03 -9.84074E+02
  1.89381E+03 -5.22414E+02  5.56040E+03  2.26877E+03  3.13075E+03  7.62932E+03 -1.18100E+03  1.01198E+04
 -6.39033E+03  6.48069E+03 -9.12406E+03  2.03803E+03 -7.99080E+03 -3.45674E+03 -2.96452E+03 -5.22923E+03
  8.51498E+02 -5.54663E+03  3.54424E+03 -2.68657E+03  3.27780E+03  2.71731E+03 -1.57694E+03  5.02787E+03
 -6.12993E+03  2.85981E+03 -6.90745E+03 -3.73881E+03 -3.78170E+03 -7.95773E+03  7.73629E+02 -7.72796E+03
  4.81971E+03 -4.60353E+03  5.65358E+03 -8.69603E+02  4.54701E+03  2.02385E+03  5.18249E+02  4.31629E+03
 -2.81231E+03  1.54633E+03 -3.44475E+03 -2.76781E+03  1.56764E+03 -6.24210E+03  6.63232E+03 -5.16645E+03
  9.39152E+03  6.78615E+02  8.79112E+03  6.11505E+03  2.94427E+03  9.49233E+03 -3.35548E+03  8.60188E+03
 -7.56157E+03  3.60458E+03 -7.78489E+03 -1.29313E+03 -4.07726E+03 -5.92990E+03  1.57416E+03 -5.39944E+03
  5.49687E+03 -2.93095E+03  5.01298E+03  2.59682E+03  1.71076E+03  5.10628E+03 -8.32198E+02  4.30105E+03
 -2.31806E+03  2.93148E+03 -1.93993E+03  1.14360E+03 -1.17422E+03  1.02359E+03 -1.67044E+03  1.94023E+03
 -2.21557E+03  3.50090E+03 -6.55663E+03  3.10331E+03 -8.82281E+03  1.26125E+02 -1.03426E+04 -6.21149E+03
 -5.29432E+03 -1.24398E+04  2.41205E+03 -1.39625E+04  8.95339E+03 -1.11608E+04  1.34373E+04 -4.31368E+03
  1.25374E+04  2.74988E+03  7.64616E+03  8.54621E+03  6.32659E+02  9.62774E+03 -3.99914E+03  7.16204E+03
 -5.32219E+03  2.53208E+03 -3.42560E+03 -1.16340E+03 -9.38224E+02 -8.50196E+02 -5.13207E+02  4.70671E+02
 -1.68828E+03  1.11695E+02 -2.36672E+03 -1.35911E+02 -7.84912E+02 -2.29220E+03  3.32587E+02 -3.55951E+03
  4.11856E+03 -2.94097E+03  5.79842E+03 -2.51398E+01  6.58517E+03  5.14490E+03  1.34616E+03  9.20155E+03
 -4.50783E+03  1.04327E+04 -9.99297E+03  6.15026E+03 -1.13496E+04 -1.18278E+03 -8.58552E+03 -6.90157E+03
 -3.59184E+03 -9.56908E+03  2.60240E+03 -8.61820E+03  6.10124E+03 -4.61694E+03  6.27772E+03  2.11477E+02
  3.55959E+03  3.43996E+03 -4.77996E+02  2.33774E+03 -1.92830E+03 -3.66604E+02 -5.53519E-01 -2.29738E+03
  2.88530E+03 -1.39167E+03  3.22319E+03  1.08847E+03  2.22240E+03  3.40638E+03  2.94126E+02  4.89932E+03
 -4.09591E+03  3.82925E+03 -6.46492E+03  6.67377E+02 -5.52997E+03 -4.12463E+03 -9.32708E+02 -7.79084E+03
  4.32378E+03 -6.61856E+03  7.29430E+03 -2.02181E+03  7.15471E+03  1.56228E+03  4.12995E+03  5.88099E+03
  1.03531E+03  6.41887E+03 -2.00843E+03  5.40870E+03 -4.14640E+03  3.31138E+03 -3.30830E+03  2.14248E+02
 -1.62456E+03 -4.17659E+02 -1.56922E+03  7.49587E+02 -3.24006E+03  8.52447E+02 -4.88709E+03 -1.06499E+03
 -4.76118E+03 -3.14602E+03 -1.39664E+03 -6.36517E+03  2.93374E+03 -6.58167E+03  5.42690E+03 -3.12657E+03
  6.12473E+03  8.42437E+02  3.03944E+03  4.25626E+03 -2.58569E+02  6.18833E+03 -4.69019E+03  3.85546E+03
