 $NMID ID='MM_0lb_SNR800_12hz_g45_15.RAW', FMTDAT='(8E13.5)'
 TRAMP=1., VOLUME=1. $END
  3.10060E+05  5.93919E+02  3.37621E+05  2.50513E+05  8.49123E+04  3.37953E+05 -1.32324E+05  2.51376E+05
 -1.90206E+05  8.34699E+04 -1.12010E+05 -3.24613E+04  1.15050E+03 -5.06223E+04  5.40843E+04 -3.79623E+02
  3.52494E+04  5.27071E+04 -1.65790E+04  7.56964E+04 -6.10158E+04  6.36758E+04 -8.42317E+04  3.21629E+04
 -8.12092E+04 -1.17567E+04 -5.74211E+04 -5.13290E+04 -1.49983E+04 -6.99447E+04  2.74698E+04 -4.57939E+04
  4.02764E+04  3.74432E+03  1.62963E+04  4.79780E+04 -3.48708E+04  4.75658E+04 -6.71571E+04  3.52801E+01
 -5.38500E+04 -5.73804E+04 -6.77566E+03 -7.76966E+04  3.39926E+04 -5.52656E+04  4.84850E+04 -1.78907E+04
  4.39329E+04  1.11505E+04  3.24352E+04  2.56369E+04  1.57333E+04  2.98115E+04 -5.65072E+03  2.76313E+04
 -2.22684E+04  1.22369E+04 -1.85015E+04 -5.15055E+03  6.24704E+03 -7.30467E+03  2.27846E+04  1.24956E+04
  7.02877E+03  3.57797E+04 -3.23879E+04  3.59819E+04 -6.41669E+04  1.89568E+03 -5.74343E+04 -4.33239E+04
 -1.25744E+04 -6.35135E+04  4.02172E+04 -4.59060E+04  5.92181E+04 -2.42834E+03  3.47143E+04  3.34103E+04
 -5.80839E+03  3.69094E+04 -3.02754E+04  1.69947E+04 -3.09741E+04 -4.15150E+03 -1.74156E+04 -1.15772E+04
 -8.56297E+03 -1.36074E+04 -5.98491E+02 -1.83611E+04  7.64757E+03 -2.31448E+04  1.59569E+04 -1.30196E+04
  1.09079E+04  5.14378E+03 -8.84535E+03  1.31814E+04 -2.17302E+04 -5.11820E+03 -8.53841E+03 -3.47736E+04
  2.34891E+04 -4.44045E+04  4.93166E+04 -1.97388E+04  4.60881E+04  1.96605E+04  1.61896E+04  4.48375E+04
 -1.61650E+04  3.40747E+04 -2.60877E+04  1.91938E+03 -1.06648E+04 -2.82614E+04  2.10410E+04 -3.48228E+04
  4.20783E+04 -9.70166E+03  3.70571E+04  2.37851E+04  1.90575E+04  4.80044E+04 -8.33084E+03  5.21299E+04
 -3.25273E+04  3.51280E+04 -4.37861E+04  1.01488E+04 -4.39149E+04 -1.71831E+04 -2.42649E+04 -3.89871E+04
  7.68485E+03 -3.92739E+04  3.23072E+04 -1.53230E+04  3.01013E+04  1.10641E+04  4.68641E+03  1.96066E+04
 -1.35803E+04  9.10550E+03 -1.03969E+04 -7.68624E+03  5.73421E+03 -1.14838E+04  1.82732E+04  5.99059E+03
  1.39448E+04  2.21953E+04 -5.58669E+03  2.56247E+04 -2.24006E+04  1.25240E+04 -2.90021E+04 -4.27498E+03
 -2.17047E+04 -1.76679E+04 -9.29170E+03 -2.17097E+04  4.11173E+03 -2.13765E+04  1.69789E+04 -1.98390E+04
  2.80433E+04 -1.31636E+04  3.42947E+04  3.39330E+03  2.48914E+04  2.16004E+04  4.38071E+03  3.78477E+04
 -1.82816E+04  3.17859E+04 -2.84230E+04  1.09850E+04 -2.14634E+04 -1.01650E+04 -4.71268E+03 -1.33690E+04
  1.63985E+03 -2.42231E+03 -5.50722E+03  7.28636E+03 -1.76961E+04  5.64368E+03 -1.73855E+04 -7.34781E+03
 -1.05660E+04 -2.01365E+04  5.69219E+03 -2.42284E+04  1.64765E+04 -1.73167E+04  1.92022E+04 -1.65713E+03
  1.22118E+04  1.39911E+04 -1.55308E+03  2.01300E+04 -1.42182E+04  1.14734E+04 -2.01721E+04 -4.24079E+03
 -1.51908E+04 -1.80482E+04 -2.12992E+03 -2.41792E+04  1.10500E+04 -1.98998E+04  2.06476E+04 -1.01196E+04
  1.88775E+04  1.20590E+02  1.37543E+04  4.70329E+03  7.31352E+03  9.45799E+02  1.02896E+04 -1.78716E+03
  1.86688E+04  2.72654E+03  2.13405E+04  1.58788E+04  1.40668E+04  3.24761E+04 -2.83239E+03  3.71977E+04
 -2.14408E+04  3.02174E+04 -3.49321E+04  1.53606E+04 -3.67429E+04 -2.65488E+03 -2.99994E+04 -2.14472E+04
 -1.25062E+04 -3.03735E+04  1.07685E+04 -2.70941E+04  2.31691E+04 -1.35663E+04  2.07442E+04  5.97105E+03
  7.59870E+03  1.57519E+04 -9.50862E+03  1.34722E+04 -1.74152E+04  2.73420E+03 -1.26268E+04 -1.08874E+04
 -7.00856E+02 -1.65882E+04  8.36769E+03 -1.24156E+04  1.12076E+04 -1.61567E+03  2.39516E+03  7.09317E+03
 -7.47161E+03  2.62030E+03 -6.83470E+03 -6.11683E+03 -9.74573E+02 -1.48786E+04  9.99722E+03 -1.58916E+04
  1.83992E+04 -8.48377E+03  2.02782E+04  3.23413E+03  1.75263E+04  1.46960E+04  8.60411E+03  2.31413E+04
 -3.79392E+03  2.51416E+04 -1.58938E+04  1.55062E+04 -1.75549E+04  3.75185E+03 -1.23720E+04 -4.22299E+03
 -5.65362E+03 -5.88976E+03 -1.06546E+03  8.54955E+02 -2.52071E+03  2.88375E+03 -5.98593E+03  4.25275E+03
 -1.14456E+04 -8.03601E+02 -1.23127E+04 -9.82069E+03 -5.48136E+03 -1.59799E+04  5.24564E+03 -1.28679E+04
  1.05375E+04 -5.17574E+03  7.47120E+03  3.46909E+03  1.87106E+02  4.90692E+03 -6.30843E+03 -5.13453E+02
 -5.92029E+03 -8.03163E+03 -8.09747E+02 -1.19474E+04  6.77424E+03 -1.29288E+04  1.58930E+04 -6.36659E+03
  1.85268E+04  1.64851E+03  1.34376E+04  1.06592E+04  2.44857E+03  1.48514E+04 -7.96604E+03  1.25928E+04
 -9.98254E+03  3.43951E+03 -5.19906E+03 -2.38993E+03  2.02913E+03 -3.22916E+03  6.66175E+03 -1.16400E+03
  5.99154E+03  5.80886E+03  1.06912E+03  1.00080E+04 -7.23218E+03  9.56916E+03 -1.21669E+04  2.51177E+03
 -8.29508E+03 -6.36464E+03  1.92125E+01 -1.07281E+04  6.76264E+03 -5.48096E+03  7.24000E+03  2.34425E+03
  1.45049E+03  7.03419E+03 -6.82798E+03  8.97194E+03 -9.92352E+03  4.18609E+03 -9.43137E+03 -3.18792E+03
 -5.78403E+03 -1.15152E+04  2.53622E+03 -1.33791E+04  1.11077E+04 -8.36594E+03  1.23660E+04  2.28498E+03
  7.39684E+03  9.71214E+03 -9.43462E+02  1.22537E+04 -8.77646E+03  6.74820E+03 -9.61037E+03 -1.28680E+03
 -8.59034E+03 -8.04515E+03 -1.63124E+03 -9.17016E+03  4.63742E+03 -7.58083E+03  5.67854E+03 -3.42300E+03
  4.17846E+03  1.39264E+03 -3.61224E+02  1.67298E+03  7.65318E+01 -1.85929E+03  1.66102E+03 -5.15231E+03
  7.93916E+03 -3.13788E+03  1.13133E+04  1.26986E+03  1.11641E+04  7.72198E+03  7.87318E+03  1.49022E+04
 -3.34272E+03  1.71830E+04 -1.43660E+04  1.29228E+04 -1.85752E+04  2.36143E+03 -1.51176E+04 -6.30033E+03
 -7.70401E+03 -1.23311E+04 -6.48386E+02 -1.04278E+04  3.51182E+03 -5.55465E+03  3.75151E+03 -3.76309E+03
  2.37869E+03 -2.05346E+03  3.01929E+03 -3.22926E+03  4.44841E+03 -2.70616E+03  6.26554E+03 -5.74376E+02
  7.98025E+03  1.87182E+03  4.02259E+03  7.01114E+03 -1.94800E+03  7.41928E+03 -8.09041E+03  5.96335E+03
 -1.03531E+04 -1.29058E+03 -6.09306E+03 -6.86323E+03 -7.88897E+02 -1.10130E+04  6.08413E+03 -1.10867E+04
  1.15105E+04 -6.26080E+03  1.38706E+04  1.37602E+03  9.47241E+03  9.44005E+03  1.58959E+03  1.24482E+04
 -5.34002E+03  1.01922E+04 -7.08745E+03  3.64765E+03 -4.57054E+03 -1.70580E+03 -1.78214E+03 -1.52118E+03
 -1.06046E+03 -1.02173E+02 -1.77279E+03  2.73271E+03 -4.75791E+03  1.78643E+03 -7.21737E+03 -1.07618E+03
 -4.56730E+03 -7.43735E+03  1.58223E+02 -1.01934E+04  6.05686E+03 -9.28622E+03  9.71520E+03 -2.52933E+03
  9.89628E+03  4.89496E+03  4.32655E+03  8.88339E+03 -2.12153E+03  1.01464E+04 -6.96673E+03  6.54555E+03
 -9.32829E+03  6.78694E+02 -7.39485E+03 -5.89890E+03 -7.26837E+02 -8.35029E+03  3.86411E+03 -6.13167E+03
  6.12997E+03 -1.98176E+03  4.09825E+03  9.95559E+02  1.42334E+03  3.09082E+03  8.74597E+02  1.41664E+03
  2.38236E+03  9.84652E+02  2.39105E+03  1.61773E+03  3.15541E+03  3.91001E+03  2.89371E+03  4.86089E+03
 -2.08866E+03  7.78645E+03 -6.67384E+03  8.55231E+03 -9.55150E+03  2.05051E+03 -1.00965E+04 -3.47819E+03
 -4.88823E+03 -9.28216E+03  1.45182E+03 -1.10174E+04  5.97301E+03 -6.93806E+03  7.90174E+03 -2.15570E+03
  6.40247E+03  4.01069E+03  1.20080E+03  5.73734E+03 -2.68895E+03  3.31088E+03 -3.74431E+03 -9.83490E+01
 -1.98433E+03 -4.03302E+03  2.59685E+03 -4.31566E+03  4.14514E+03 -1.93851E+03  3.89683E+03  1.07712E+03
  2.03300E+03  1.96441E+03  1.01928E+03  1.12860E+03 -8.35034E+02  1.46146E+03  1.75925E+03 -1.43427E+02
  1.27217E+03 -7.16889E+02  3.89793E+03  1.97539E+03  1.61375E+03  5.48416E+03 -9.16098E+02  6.75767E+03
 -4.39997E+03  4.03119E+03 -5.95557E+03  1.31960E+03 -5.60330E+03 -2.30839E+03 -1.61150E+03 -3.72153E+03
  6.98004E+02 -3.36925E+03  2.51493E+03 -1.89921E+03  2.10448E+03  2.23962E+03 -1.11644E+03  3.49506E+03
 -3.76581E+03  1.97783E+03 -4.32039E+03 -2.60995E+03 -2.77063E+03 -5.09236E+03  7.23602E+02 -4.87694E+03
  2.70152E+03 -2.84204E+03  3.42382E+03 -1.85179E+02  3.34976E+03  9.60648E+02  6.64141E+02  2.91385E+03
 -1.90759E+03  7.36494E+02 -1.99331E+03 -1.59143E+03  7.56944E+02 -3.79447E+03  4.42822E+03 -3.09763E+03
  5.49942E+03  5.17826E+02  6.06595E+03  3.70260E+03  2.14839E+03  5.82779E+03 -1.85598E+03  5.52891E+03
 -4.90999E+03  2.14730E+03 -5.00706E+03 -5.55338E+02 -2.70350E+03 -4.09907E+03  1.13565E+03 -3.27328E+03
  3.78146E+03 -1.68261E+03  2.88235E+03  1.85882E+03  1.15329E+03  3.53649E+03 -2.72140E+02  3.15618E+03
 -1.61820E+03  2.04398E+03 -1.46910E+03  7.24876E+02 -8.72261E+02  5.54638E+02 -1.31138E+03  1.27787E+03
 -1.70809E+03  2.69729E+03 -4.33355E+03  1.96269E+03 -5.95039E+03  1.48361E+02 -7.05159E+03 -4.06338E+03
 -3.39678E+03 -7.81054E+03  1.23029E+03 -8.73505E+03  5.16990E+03 -7.29053E+03  8.46668E+03 -2.60110E+03
  7.96922E+03  1.03019E+03  4.84974E+03  5.45402E+03  3.36516E+02  5.97494E+03 -2.27712E+03  4.43406E+03
 -3.77725E+03  1.66172E+03 -2.12498E+03 -3.71065E+02 -7.11953E+02 -5.65526E+02 -5.18282E+02 -2.71530E+02
 -1.52881E+03  2.05879E+02 -1.79307E+03 -1.28150E+02 -3.79944E+02 -1.53929E+03 -6.95457E+01 -2.33575E+03
  2.78252E+03 -1.67338E+03  2.95717E+03  1.41395E+02  4.19378E+03  2.77122E+03  7.95737E+02  6.02632E+03
 -3.16996E+03  6.85056E+03 -6.15269E+03  3.96366E+03 -7.30210E+03 -4.25724E+02 -5.08977E+03 -4.26294E+03
 -2.17673E+03 -5.64753E+03  1.35885E+03 -5.62482E+03  3.30514E+03 -3.07858E+03  3.68246E+03  4.14897E+02
  2.14769E+03  1.85727E+03  6.09743E+01  1.77458E+03 -9.14817E+02 -1.65749E+02 -3.90549E+01 -1.32870E+03
  1.91790E+03 -6.90741E+02  1.95810E+03  7.39780E+02  1.34165E+03  2.02909E+03  2.80827E+02  2.70700E+03
 -2.18589E+03  2.39843E+03 -3.71924E+03  3.74039E+02 -3.43881E+03 -2.60104E+03 -4.26192E+02 -4.94255E+03
  2.13240E+03 -3.64247E+03  4.17748E+03 -1.18700E+03  4.39172E+03  6.25565E+02  2.46335E+03  3.33749E+03
  7.06828E+02  3.27807E+03 -1.37734E+03  2.57106E+03 -2.28628E+03  1.69828E+03 -1.81467E+03  6.03352E+02
 -7.34580E+02 -4.23268E+02 -1.28363E+03  4.16252E+02 -1.80886E+03  6.86163E+02 -2.69211E+03 -5.87687E+02
 -2.82280E+03 -1.41406E+03 -7.76919E+02 -3.78133E+03  1.88677E+03 -4.10360E+03  3.25232E+03 -1.70950E+03
  3.45316E+03  7.45642E+01  1.14065E+03  2.39359E+03 -2.78659E+02  3.62143E+03 -2.44455E+03  2.58268E+03
