 $NMID ID='MM_0lb_SNR800_20hz_g55_77.RAW', FMTDAT='(8E13.5)'
 TRAMP=1., VOLUME=1. $END
  3.09767E+05  2.68486E+02  3.37547E+05  2.50380E+05  8.43192E+04  3.37211E+05 -1.32589E+05  2.50306E+05
 -1.89611E+05  8.28014E+04 -1.11203E+05 -3.26363E+04  1.14273E+03 -5.02447E+04  5.42541E+04 -1.27305E+01
  3.52302E+04  5.27007E+04 -1.68495E+04  7.50163E+04 -6.04057E+04  6.29395E+04 -8.31990E+04  3.14689E+04
 -7.97918E+04 -1.11996E+04 -5.64933E+04 -5.02973E+04 -1.51960E+04 -6.86341E+04  2.68790E+04 -4.50854E+04
  3.94537E+04  4.14279E+03  1.56956E+04  4.71710E+04 -3.42170E+04  4.63544E+04 -6.56095E+04 -6.61293E+02
 -5.20568E+04 -5.59728E+04 -6.38242E+03 -7.52618E+04  3.32283E+04 -5.35579E+04  4.62955E+04 -1.66084E+04
  4.19040E+04  1.11607E+04  3.12650E+04  2.46348E+04  1.58890E+04  2.82817E+04 -4.60667E+03  2.69536E+04
 -2.17819E+04  1.25503E+04 -1.89523E+04 -4.29070E+03  4.42671E+03 -7.41482E+03  2.11481E+04  1.08542E+04
  7.43561E+03  3.35402E+04 -3.07380E+04  3.42404E+04 -6.13999E+04  2.12786E+03 -5.52974E+04 -4.11721E+04
 -1.25372E+04 -6.10439E+04  3.81886E+04 -4.37343E+04  5.57025E+04 -1.70180E+03  3.20085E+04  3.08489E+04
 -6.50597E+03  3.31056E+04 -2.85235E+04  1.36678E+04 -2.77729E+04 -5.30300E+03 -1.45245E+04 -1.01423E+04
 -7.49254E+03 -1.16789E+04 -9.74498E+02 -1.69651E+04  6.74653E+03 -2.27322E+04  1.50450E+04 -1.36989E+04
  1.19530E+04  4.40064E+03 -6.42516E+03  1.31204E+04 -1.91343E+04 -2.51341E+03 -7.91934E+03 -3.07241E+04
  2.10305E+04 -4.05393E+04  4.45985E+04 -1.85055E+04  4.19418E+04  1.84453E+04  1.44971E+04  4.20661E+04
 -1.55873E+04  3.11932E+04 -2.33945E+04  9.92024E+02 -8.50871E+03 -2.65655E+04  2.04251E+04 -3.12178E+04
  3.79907E+04 -7.24759E+03  3.14658E+04  2.27875E+04  1.54961E+04  4.25267E+04 -7.70682E+03  4.52021E+04
 -2.88170E+04  2.98263E+04 -3.72445E+04  8.43526E+03 -3.83600E+04 -1.50855E+04 -2.12316E+04 -3.42945E+04
  6.84233E+03 -3.40059E+04  2.90512E+04 -1.28721E+04  2.68886E+04  1.06374E+04  3.00428E+03  1.77141E+04
 -1.31765E+04  7.25383E+03 -9.42651E+03 -7.46174E+03  6.34455E+03 -1.03148E+04  1.74368E+04  6.75105E+03
  1.22889E+04  2.16073E+04 -6.84718E+03  2.33753E+04 -2.12896E+04  8.89132E+03 -2.48532E+04 -6.12165E+03
 -1.66940E+04 -1.63632E+04 -5.62377E+03 -1.68752E+04  3.83552E+03 -1.47238E+04  1.23529E+04 -1.44669E+04
  2.10045E+04 -1.15543E+04  2.80136E+04  1.05040E+03  2.14003E+04  1.63026E+04  4.11829E+03  3.22103E+04
 -1.57765E+04  2.74059E+04 -2.56856E+04  9.36951E+03 -1.95894E+04 -1.02902E+04 -3.88705E+03 -1.37835E+04
  2.70978E+03 -4.52693E+03 -2.52978E+03  5.14159E+03 -1.28643E+04  5.45548E+03 -1.36684E+04 -5.00421E+03
 -8.47528E+03 -1.51363E+04  4.76229E+03 -1.94463E+04  1.21142E+04 -1.38725E+04  1.45390E+04 -1.32292E+03
  8.79630E+03  1.06141E+04 -8.50766E+02  1.55998E+04 -1.00089E+04  8.79632E+03 -1.49701E+04 -2.99507E+03
 -1.13744E+04 -1.35817E+04 -1.32625E+03 -1.85337E+04  8.84906E+03 -1.48582E+04  1.59857E+04 -7.10747E+03
  1.41975E+04  9.06108E+02  1.00115E+04  3.69440E+03  5.05326E+03  5.31674E+02  7.48960E+03 -1.35946E+03
  1.38365E+04  2.40310E+03  1.45053E+04  1.25669E+04  9.00382E+03  2.38913E+04 -3.04988E+03  2.59202E+04
 -1.54581E+04  1.94744E+04 -2.37778E+04  9.37948E+03 -2.41912E+04 -1.70378E+03 -2.07122E+04 -1.37252E+04
 -9.97388E+03 -1.99160E+04  6.52915E+03 -1.84521E+04  1.61753E+04 -1.07549E+04  1.51038E+04  3.36380E+03
  6.50859E+03  1.11383E+04 -6.79561E+03  1.02120E+04 -1.31236E+04  2.81497E+03 -9.91952E+03 -7.64204E+03
 -1.86251E+02 -1.22150E+04  6.11658E+03 -9.47286E+03  7.64658E+03 -1.36014E+03  1.15534E+03  4.78755E+03
 -5.58730E+03  1.23019E+03 -3.63965E+03 -4.61530E+03  7.51722E+02 -9.89588E+03  7.57636E+03 -9.52961E+03
  1.18465E+04 -4.18412E+03  1.14389E+04  2.75274E+03  9.72431E+03  9.42047E+03  4.66150E+03  1.33860E+04
 -1.27390E+03  1.51858E+04 -9.08209E+03  9.88340E+03 -1.03846E+04  3.18793E+03 -8.10520E+03 -1.68067E+03
 -4.43519E+03 -3.20549E+03 -6.86036E+02  1.58229E+03 -1.84248E+03  2.00212E+03 -3.46366E+03  3.64511E+03
 -7.74334E+03 -4.36339E+02 -8.25049E+03 -6.82405E+03 -3.31239E+03 -1.11824E+04  3.09575E+03 -7.96623E+03
  6.92195E+03 -3.80829E+03  5.36173E+03  2.24998E+03  5.58911E+02  2.82398E+03 -2.95854E+03  3.90184E+01
 -3.01978E+03 -4.77344E+03 -9.22211E+02 -6.73708E+03  3.45851E+03 -7.45781E+03  9.28542E+03 -3.76896E+03
  1.10805E+04  5.69268E+02  8.32570E+03  5.81141E+03  1.79725E+03  8.03978E+03 -5.00766E+03  7.80895E+03
 -6.62296E+03  2.67873E+03 -3.42699E+03 -1.32916E+03  1.32145E+03 -2.05387E+03  4.43074E+03 -7.36304E+02
  3.92463E+03  3.20178E+03  8.05223E+02  5.75636E+03 -4.06429E+03  5.93773E+03 -7.57895E+03  1.77649E+03
 -4.30194E+03 -3.40724E+03  1.09781E+02 -6.18285E+03  3.45862E+03 -2.88033E+03  3.40001E+03  8.41895E+02
  3.43746E+02  3.23147E+03 -3.89969E+03  4.12836E+03 -4.47552E+03  2.12907E+03 -3.85024E+03 -8.24622E+02
 -2.54445E+03 -5.31026E+03  1.03493E+03 -6.15102E+03  5.49967E+03 -3.98593E+03  5.55861E+03  8.50418E+02
  4.37808E+03  4.49372E+03  1.95467E+02  6.78044E+03 -4.41571E+03  3.71252E+03 -4.81754E+03 -2.62082E+02
 -5.37153E+03 -4.95338E+03 -1.16804E+03 -4.45089E+03  2.25860E+03 -4.07657E+03  2.73126E+03 -2.80799E+03
  2.49303E+03  6.88580E+01 -1.87228E+01  1.11739E+03  1.02004E+03  4.32242E+01 -6.67285E+01 -1.38298E+03
  2.94759E+03 -5.56835E+02  4.58286E+03  6.07267E+02  4.81359E+03  2.42826E+03  5.03960E+03  6.29304E+03
 -8.13589E+02  7.29308E+03 -6.80285E+03  5.88159E+03 -8.85989E+03  1.04228E+03 -6.83963E+03 -2.24337E+03
 -3.92670E+03 -5.92415E+03 -3.17362E+02 -4.37540E+03  1.97638E+03 -1.85581E+03  1.48118E+03 -1.88099E+03
  1.03260E+03 -1.24715E+03  1.79755E+03 -2.09778E+03  3.24565E+03 -1.03523E+03  3.38758E+03  3.44833E+02
  4.07980E+03  1.15984E+03  7.10463E+02  2.68572E+03 -1.38595E+03  1.93930E+03 -4.05306E+03  2.28858E+03
 -4.43006E+03 -1.00338E+03 -1.32488E+03 -2.79677E+03  6.95620E+02 -4.23091E+03  2.96642E+03 -4.54695E+03
  4.26602E+03 -2.86549E+03  5.94151E+03  1.26870E+02  4.21510E+03  3.60299E+03  9.79387E+02  5.03361E+03
 -1.60858E+03  4.97645E+03 -2.79296E+03  1.59329E+03 -1.39836E+03 -7.72382E+02 -5.19407E+02 -3.84713E+02
 -4.50534E+02  2.73867E+02 -1.05657E+03  1.86694E+03 -2.21703E+03  8.47122E+02 -3.60403E+03 -2.85091E+02
 -1.10053E+03 -3.82983E+03  8.31523E+02 -3.89330E+03  2.03035E+03 -3.71524E+03  2.94230E+03 -1.04748E+03
  3.43568E+03  2.15876E+03  1.49814E+03  2.35361E+03 -7.14316E+02  3.61251E+03 -2.28204E+03  2.22507E+03
 -2.90081E+03  8.44096E+02 -2.88898E+03 -1.90273E+03 -3.56587E+01 -2.70516E+03  1.26202E+03 -2.05458E+03
  2.26743E+03 -1.08913E+03  1.30520E+03  3.79608E+02  1.21421E+02  1.61943E+03  6.78089E+02  3.03031E+02
  1.20696E+03  3.69070E+02  1.14398E+03  5.90935E+02  9.49828E+02  2.12681E+03  1.27242E+03  1.03215E+03
 -1.16752E+03  2.29486E+03 -1.80475E+03  3.40194E+03 -2.16805E+03  1.00691E+03 -3.13444E+03 -1.38389E+02
 -1.24623E+03 -3.00071E+03  5.24192E+02 -4.02625E+03  1.40893E+03 -2.02630E+03  2.56206E+03 -7.64206E+02
  1.94754E+03  1.65799E+03  4.30940E+02  1.70709E+03 -3.50272E+02  7.60428E+02 -6.72655E+02 -1.75017E+02
 -5.08222E+02 -1.22133E+03  1.19804E+03 -1.03840E+03  9.53861E+02 -9.85530E+02  8.15391E+02  2.41791E+02
  6.30876E+02  9.91044E+01  7.44546E+02 -6.37694E+02 -2.29409E+02  5.69635E+02  1.79550E+03 -1.29330E+02
 -1.20773E+02 -2.27720E+02  1.45924E+03  4.92727E+02 -8.18047E+01  2.05382E+03 -3.47992E+02  2.51703E+03
 -1.24561E+03  7.67593E+02 -1.45419E+03  5.39119E+02 -1.99123E+03 -5.73843E+02 -2.18690E+01 -7.76484E+02
  5.35835E+02 -1.02557E+03  7.31902E+02 -8.18403E+02  6.85345E+02  1.15353E+03 -3.75873E+02  1.00566E+03
 -1.13659E+03  4.51740E+02 -6.35946E+02 -1.22313E+03 -4.41378E+02 -1.51901E+03 -1.49729E+01 -1.08150E+03
  6.35981E+01 -2.47169E+02  2.65898E+02  3.56618E+02  1.40226E+03 -1.81382E+02  5.85074E+02  1.21904E+03
  2.07587E+02 -8.67846E+00 -8.19790E+02  1.17258E+02  3.27410E+02 -4.22870E+02  1.44065E+03 -4.92444E+02
  8.63858E+02  2.99106E+02  2.30789E+03  8.10127E+01  1.05083E+03  1.05417E+03  1.28792E+02  1.23588E+03
 -1.08104E+03 -2.43902E+02 -1.13338E+03 -3.09271E+01 -5.65763E+02 -8.77796E+02  1.00164E+02 -6.70802E+01
  1.20981E+03 -5.54397E+02  2.62820E+02  3.55766E+02  5.10250E+01  1.01200E+03  3.01176E+02  8.22457E+02
 -2.08825E+02  9.65532E+02 -2.42202E+02  1.37092E+02  2.27208E+02  3.00645E+02 -8.42750E+02  4.89955E+02
 -4.07701E+02  8.52673E+02 -1.49873E+03  1.49511E+02 -9.60658E+02 -5.93372E+01 -2.05761E+03 -5.93313E+02
 -6.59805E+02 -1.51685E+03  3.66546E+02 -1.90730E+03  6.39278E+02 -1.79502E+03  1.67930E+03 -4.89427E+02
  1.78534E+03 -3.39747E+02  9.99717E+02  1.23797E+03 -6.94201E+02  8.63070E+02 -5.58904E+02  8.70250E+02
 -4.95330E+02  7.69621E+02 -4.73012E+02 -1.47772E+02 -3.67444E+02  3.86031E+02 -6.07844E+02  7.00825E+01
 -1.08634E+03 -3.03540E+02 -8.64641E+02  7.91157E+01  2.11367E+02 -5.22109E+02 -6.29925E+02 -6.64094E+02
  9.52475E+02 -2.77010E+02 -1.11171E+02  8.08774E+01  7.32209E+02  7.40913E+02 -4.52811E+02  7.27391E+02
 -3.78146E+02  1.71357E+03 -1.09945E+03  9.59597E+02 -1.03909E+03 -2.94287E+02 -8.95731E+02 -9.36132E+02
 -7.83758E+02 -7.18437E+02  3.71528E+01 -5.23813E+02  3.42867E+02 -2.51592E+02  3.85852E+02  9.65993E+01
  5.79163E+02  2.44316E+01  2.54829E+02  3.08984E+02 -2.23592E+02 -1.27420E+02 -1.09084E+02 -2.10864E+01
  2.85661E+02  3.19276E+02 -5.22731E+01  2.53312E+02  2.39867E+01  3.57338E+02  5.01749E+02 -9.38374E+01
 -3.27276E+02  4.53094E+02 -2.09634E+02  2.00113E+01 -4.06765E+02 -1.67245E+02  1.22512E+02 -8.15257E+02
 -1.45196E+02 -2.64805E+02 -4.59889E+02  3.28433E+01  6.71605E+02 -3.83275E+02  2.60423E+02  4.72759E+02
  4.22461E+02  5.48068E+01  1.11373E+02  3.23520E+02 -3.08047E+02  5.49140E+02 -3.07495E+02  3.44861E+02
  9.59456E+01 -2.18317E+01 -1.94146E+02  2.01733E+02 -5.78744E+02  3.58623E+02 -4.87115E+02 -1.20485E+02
 -9.10576E+02  2.45544E+02 -2.55925E+02 -5.07452E+02  2.99579E+02 -1.36583E+03  1.68421E+02  2.80074E+01
  5.26219E+02  7.60334E+01 -5.88354E+02 -1.52307E+02 -1.40517E+02  4.43723E+02 -1.79100E+02  3.93876E+02
