 $NMID ID='MM_0lb_SNR800_16hz_g55_17.RAW', FMTDAT='(8E13.5)'
 TRAMP=1., VOLUME=1. $END
  3.09638E+05  2.20431E+02  3.37496E+05  2.50722E+05  8.48062E+04  3.38041E+05 -1.32568E+05  2.51113E+05
 -1.90482E+05  8.28340E+04 -1.11703E+05 -3.25634E+04  7.46128E+02 -5.02436E+04  5.38918E+04  3.01500E+01
  3.54946E+04  5.27719E+04 -1.67033E+04  7.53749E+04 -6.06698E+04  6.34332E+04 -8.38209E+04  3.19597E+04
 -8.06044E+04 -1.13999E+04 -5.70277E+04 -5.10078E+04 -1.49686E+04 -6.92888E+04  2.74810E+04 -4.54201E+04
  4.00530E+04  3.59828E+03  1.57198E+04  4.77362E+04 -3.44497E+04  4.70579E+04 -6.64801E+04 -5.02463E+02
 -5.31458E+04 -5.64321E+04 -6.79741E+03 -7.66711E+04  3.37985E+04 -5.47942E+04  4.79321E+04 -1.68891E+04
  4.30529E+04  1.12675E+04  3.17254E+04  2.50408E+04  1.60028E+04  2.97274E+04 -5.15530E+03  2.70595E+04
 -2.20173E+04  1.24285E+04 -1.88895E+04 -4.76225E+03  5.56882E+03 -7.29644E+03  2.21372E+04  1.20583E+04
  6.99893E+03  3.48046E+04 -3.20467E+04  3.51169E+04 -6.28367E+04  2.06898E+03 -5.64928E+04 -4.25031E+04
 -1.26389E+04 -6.26788E+04  3.96152E+04 -4.50364E+04  5.80232E+04 -2.00948E+03  3.37868E+04  3.22567E+04
 -6.24444E+03  3.55556E+04 -2.95681E+04  1.53773E+04 -2.96323E+04 -4.60933E+03 -1.65111E+04 -1.09286E+04
 -8.20439E+03 -1.26957E+04 -8.98593E+02 -1.77876E+04  7.15248E+03 -2.29253E+04  1.53904E+04 -1.34193E+04
  1.12770E+04  4.90751E+03 -7.71574E+03  1.26698E+04 -2.07400E+04 -3.89279E+03 -8.01582E+03 -3.31321E+04
  2.23735E+04 -4.28900E+04  4.72676E+04 -1.92868E+04  4.46238E+04  1.95039E+04  1.53553E+04  4.40570E+04
 -1.56403E+04  3.30219E+04 -2.48506E+04  1.69373E+03 -9.34358E+03 -2.72628E+04  2.09177E+04 -3.31796E+04
  4.06197E+04 -8.69781E+03  3.47341E+04  2.35135E+04  1.75620E+04  4.56916E+04 -7.84280E+03  4.93431E+04
 -3.10754E+04  3.26238E+04 -4.08468E+04  9.53562E+03 -4.17710E+04 -1.60998E+04 -2.28193E+04 -3.72438E+04
  7.04171E+03 -3.68490E+04  3.12998E+04 -1.42981E+04  2.85257E+04  1.10298E+04  4.06857E+03  1.88285E+04
 -1.33598E+04  8.35576E+03 -1.02112E+04 -7.57273E+03  5.87534E+03 -1.01550E+04  1.76458E+04  6.28854E+03
  1.31262E+04  2.19385E+04 -6.29137E+03  2.46487E+04 -2.21990E+04  1.10419E+04 -2.73300E+04 -5.29095E+03
 -2.00324E+04 -1.70978E+04 -7.91690E+03 -1.94624E+04  3.86359E+03 -1.82749E+04  1.51442E+04 -1.74450E+04
  2.49664E+04 -1.25549E+04  3.14021E+04  2.35522E+03  2.33794E+04  1.90838E+04  4.16531E+03  3.54653E+04
 -1.74578E+04  2.97619E+04 -2.71273E+04  1.03270E+04 -2.04740E+04 -1.04700E+04 -4.12301E+03 -1.34053E+04
  2.15266E+03 -3.23531E+03 -4.23025E+03  6.20753E+03 -1.52627E+04  5.31687E+03 -1.56474E+04 -6.68719E+03
 -9.76076E+03 -1.82223E+04  4.99668E+03 -2.20028E+04  1.43802E+04 -1.59786E+04  1.71353E+04 -1.55384E+03
  1.08790E+04  1.24964E+04 -7.70557E+02  1.82171E+04 -1.21311E+04  1.02719E+04 -1.83048E+04 -4.13510E+03
 -1.30510E+04 -1.64310E+04 -1.62517E+03 -2.19351E+04  1.01197E+04 -1.75233E+04  1.86142E+04 -8.98994E+03
  1.70047E+04  3.48827E+02  1.22682E+04  4.15797E+03  6.15883E+03  1.11974E+03  9.02288E+03 -1.52898E+03
  1.64771E+04  2.83404E+03  1.82143E+04  1.44092E+04  1.17387E+04  2.83672E+04 -2.96268E+03  3.22110E+04
 -1.87263E+04  2.54843E+04 -2.96462E+04  1.28831E+04 -3.09970E+04 -2.29682E+03 -2.58150E+04 -1.75827E+04
 -1.14231E+04 -2.53755E+04  8.57797E+03 -2.30416E+04  2.00705E+04 -1.21542E+04  1.80348E+04  4.95119E+03
  6.77899E+03  1.32719E+04 -8.39678E+03  1.21443E+04 -1.53795E+04  2.58753E+03 -1.19267E+04 -9.42578E+03
 -3.96283E+01 -1.45430E+04  7.32528E+03 -1.09341E+04  9.42307E+03 -1.42934E+03  1.86356E+03  6.03239E+03
 -6.65350E+03  2.00834E+03 -5.07322E+03 -5.19298E+03 -3.99765E+01 -1.23928E+04  9.01147E+03 -1.25689E+04
  1.56309E+04 -6.64968E+03  1.61763E+04  2.81001E+03  1.37890E+04  1.17221E+04  6.78646E+03  1.84256E+04
 -2.67942E+03  2.03250E+04 -1.28714E+04  1.25595E+04 -1.43012E+04  3.06866E+03 -1.04261E+04 -3.17004E+03
 -5.02838E+03 -4.62901E+03 -6.55400E+02  1.13123E+03 -2.27589E+03  2.50319E+03 -4.49848E+03  3.97407E+03
 -9.71951E+03 -6.34783E+02 -1.05241E+04 -8.62476E+03 -4.05900E+03 -1.36901E+04  4.02469E+03 -1.04795E+04
  8.75103E+03 -4.39703E+03  6.03747E+03  2.81311E+03  3.99521E+02  3.99718E+03 -4.69565E+03  7.21038E+01
 -4.21771E+03 -6.36181E+03 -8.53050E+02 -9.52087E+03  5.31293E+03 -1.02855E+04  1.25792E+04 -5.25403E+03
  1.47884E+04  1.21358E+03  1.11132E+04  8.46652E+03  1.94758E+03  1.14342E+04 -6.35192E+03  1.01810E+04
 -8.34020E+03  3.21424E+03 -4.33501E+03 -2.07823E+03  1.63668E+03 -2.88179E+03  5.47986E+03 -1.12325E+03
  5.02125E+03  4.14742E+03  1.08012E+03  8.26612E+03 -5.66086E+03  8.00184E+03 -1.00021E+04  1.91132E+03
 -6.66251E+03 -5.05173E+03  4.25778E+02 -8.06604E+03  5.37440E+03 -3.90784E+03  4.59007E+03  1.77276E+03
  8.69952E+02  4.90066E+03 -5.21090E+03  6.58995E+03 -7.09389E+03  2.80507E+03 -6.91571E+03 -2.05399E+03
 -4.28969E+03 -8.45414E+03  2.08770E+03 -9.75641E+03  8.45244E+03 -6.20634E+03  9.09548E+03  1.52009E+03
  5.77140E+03  7.27111E+03 -2.58901E+02  9.31484E+03 -6.75317E+03  5.25016E+03 -7.01237E+03 -5.77232E+02
 -6.63181E+03 -6.25881E+03 -1.46043E+03 -6.69580E+03  3.53495E+03 -5.82921E+03  3.94508E+03 -2.99382E+03
  3.65139E+03  8.70942E+02 -3.31662E+02  1.08572E+03  8.64168E+01 -7.50802E+02  9.57647E+02 -3.39248E+03
  5.41360E+03 -1.70983E+03  7.74623E+03  9.05433E+02  8.08749E+03  4.66933E+03  6.42990E+03  1.03460E+04
 -2.25373E+03  1.18448E+04 -1.05208E+04  9.02065E+03 -1.34981E+04  1.67233E+03 -1.05505E+04 -4.02317E+03
 -5.41838E+03 -8.80119E+03 -3.85194E+02 -7.23904E+03  2.67159E+03 -3.86927E+03  2.58467E+03 -2.88952E+03
  1.59125E+03 -2.06357E+03  2.30121E+03 -2.76856E+03  3.78199E+03 -1.89886E+03  4.75519E+03 -1.81275E+02
  5.82061E+03  1.52837E+03  1.97435E+03  4.80493E+03 -1.56748E+03  4.55260E+03 -5.87372E+03  4.10288E+03
 -7.18069E+03 -1.27132E+03 -3.17806E+03 -5.01416E+03  2.90438E+02 -7.11973E+03  4.60648E+03 -7.59705E+03
  7.65981E+03 -4.50710E+03  9.24544E+03  6.95305E+02  6.66253E+03  6.23993E+03  1.05457E+03  8.45141E+03
 -2.91333E+03  7.32584E+03 -4.76690E+03  2.65995E+03 -3.24934E+03 -9.35976E+02 -9.77613E+02 -7.73997E+02
 -9.27076E+02  2.69823E+02 -1.25428E+03  2.06924E+03 -3.11083E+03  1.70460E+03 -5.22147E+03 -9.31956E+02
 -2.78658E+03 -5.32961E+03  7.16454E+02 -6.54092E+03  3.89837E+03 -6.37368E+03  5.70069E+03 -1.54897E+03
  6.15341E+03  3.26083E+03  2.74159E+03  5.28593E+03 -1.25389E+03  6.59821E+03 -4.01427E+03  4.02041E+03
 -5.91644E+03  5.82886E+02 -4.60102E+03 -3.52496E+03 -5.46937E+02 -5.25303E+03  3.13972E+03 -3.81781E+03
  3.90359E+03 -1.64045E+03  2.52365E+03  1.26202E+03  2.33551E+02  2.30442E+03  8.67184E+02  5.73400E+02
  1.84602E+03  6.49917E+02  1.43098E+03  1.15989E+03  1.45248E+03  2.85302E+03  1.89726E+03  2.86992E+03
 -1.61384E+03  4.62305E+03 -4.02720E+03  5.39990E+03 -5.12490E+03  1.26404E+03 -6.22905E+03 -1.49789E+03
 -3.00930E+03 -5.67854E+03  1.08165E+03 -6.84221E+03  3.17387E+03 -3.85486E+03  4.55507E+03 -1.39278E+03
  3.51593E+03  2.57259E+03  9.46434E+02  3.48683E+03 -1.32838E+03  2.28593E+03 -1.97367E+03 -2.05087E+02
 -1.17686E+03 -2.25903E+03  1.93335E+03 -2.05582E+03  2.12377E+03 -1.08688E+03  2.29503E+03  4.61691E+02
  1.42852E+03  7.34224E+02  1.22085E+03  2.45897E+02 -4.92253E+02  1.06567E+03  1.52416E+03  7.69153E+01
  3.28067E+02 -4.79990E+02  2.36160E+03  9.76362E+02  6.81281E+02  3.34592E+03 -5.68646E+02  4.33754E+03
 -2.62503E+03  2.07067E+03 -3.24636E+03  4.74545E+02 -3.27295E+03 -9.33274E+02 -6.46831E+02 -1.89433E+03
  5.75674E+02 -1.83370E+03  1.16147E+03 -8.97617E+02  1.12841E+03  1.39498E+03 -8.70627E+02  1.63995E+03
 -2.28442E+03  9.43269E+02 -2.09873E+03 -1.58413E+03 -1.47197E+03 -3.16456E+03  6.57711E+02 -2.70570E+03
  9.35203E+02 -1.30682E+03  1.48463E+03  3.90129E+02  1.99167E+03  3.40366E+02  3.25677E+02  1.47762E+03
 -8.82291E+02  6.59922E+01 -1.39587E+03 -7.04998E+02  6.07717E+02 -1.77483E+03  2.73214E+03 -1.47151E+03
  2.35719E+03  2.53249E+02  3.66736E+03  1.56456E+03  1.51206E+03  2.77672E+03 -7.11192E+02  2.93073E+03
 -2.25609E+03  9.23631E+02 -2.74411E+03 -2.25538E+02 -1.53047E+03 -1.90625E+03  7.27619E+02 -1.24093E+03
  2.24764E+03 -1.20055E+03  1.32109E+03  1.15770E+03  2.01373E+02  1.88178E+03  2.10103E+02  1.93822E+03
 -7.47783E+02  1.00231E+03 -7.39531E+02  3.51904E+02 -1.41773E+02  5.18515E+02 -1.07647E+03  4.68164E+02
 -8.13597E+02  1.44152E+03 -2.82694E+03  7.41580E+02 -2.79684E+03 -5.53769E+01 -3.97091E+03 -1.57190E+03
 -1.90365E+03 -3.51589E+03  7.97311E+02 -4.43590E+03  2.09920E+03 -3.79989E+03  4.06160E+03 -1.48047E+03
  3.66194E+03  3.02083E+02  2.11555E+03  2.59895E+03 -2.92216E+02  2.72623E+03 -1.26037E+03  2.11289E+03
 -1.94871E+03  9.45014E+02 -8.07147E+02 -2.96773E+02 -2.45808E+02  2.84486E+02 -5.65605E+02 -1.08965E+02
 -1.07670E+03 -3.86035E+02 -7.60948E+02 -2.07265E+02  6.73415E+01 -8.95389E+02 -2.33433E+02 -1.25804E+03
  1.79145E+03 -9.09680E+02  1.07820E+03  1.08381E+02  1.65530E+03  1.48861E+03 -2.80708E+02  2.29138E+03
 -1.74244E+03  3.38471E+03 -2.79411E+03  1.75696E+03 -3.18606E+03 -3.63872E+01 -2.38015E+03 -2.16340E+03
 -1.30804E+03 -2.35058E+03  4.64333E+02 -2.52439E+03  1.51206E+03 -1.04933E+03  1.73142E+03 -3.07625E+00
  9.88619E+02  6.05690E+02  1.14435E+02  5.60356E+02 -5.03569E+02 -1.63945E+02 -1.85902E+02 -3.67039E+02
  7.04715E+02  3.21779E-01  8.62687E+02  7.20483E+02  4.87997E+02  7.43885E+02  4.92990E+02  7.11960E+02
 -9.02916E+02  9.49390E+02 -1.45925E+03  3.51853E+02 -1.27297E+03 -9.77528E+02  5.75418E+01 -2.22924E+03
  1.05175E+03 -1.52715E+03  1.32291E+03 -2.00219E+02  1.81068E+03 -1.53841E+02  8.44708E+02  1.45200E+03
  8.75064E+02  7.74038E+02 -4.32876E+02  1.12818E+03 -1.05007E+03  6.71757E+02 -6.88185E+02 -2.87503E+01
 -1.57460E+02  5.24008E+01 -8.11921E+02  2.00322E+02 -1.13750E+03  2.77449E+02 -1.20878E+03 -3.49002E+02
 -1.69949E+03  8.33055E+01 -4.77074E+02 -1.50230E+03  1.02606E+03 -2.22241E+03  1.13110E+03 -4.76895E+02
  1.51014E+03  1.42231E+02  5.30482E+01  7.13540E+02 -2.39678E+02  1.52162E+03 -1.29017E+03  1.05891E+03
