 $NMID ID='MM_0lb_SNR800_8hz_g50_11.RAW', FMTDAT='(8E13.5)'
 TRAMP=1., VOLUME=1. $END
  3.09831E+05  4.73498E+02  3.37321E+05  2.50439E+05  8.51635E+04  3.38787E+05 -1.32282E+05  2.52023E+05
 -1.90989E+05  8.39813E+04 -1.12877E+05 -3.23858E+04  4.57211E+02 -5.05020E+04  5.38420E+04 -8.13832E+02
  3.57023E+04  5.29088E+04 -1.63525E+04  7.60799E+04 -6.17781E+04  6.50063E+04 -8.57797E+04  3.28038E+04
 -8.23708E+04 -1.15804E+04 -5.87039E+04 -5.29543E+04 -1.51252E+04 -7.13233E+04  2.87653E+04 -4.73439E+04
  4.11708E+04  3.50536E+03  1.72099E+04  4.87478E+04 -3.52604E+04  4.85162E+04 -6.84113E+04  2.58487E+02
 -5.53168E+04 -5.80405E+04 -7.46601E+03 -7.96926E+04  3.50490E+04 -5.74942E+04  4.98595E+04 -1.87730E+04
  4.55711E+04  1.19392E+04  3.37657E+04  2.69002E+04  1.59920E+04  3.11275E+04 -5.66017E+03  2.83550E+04
 -2.26038E+04  1.18580E+04 -1.82687E+04 -6.11425E+03  7.79130E+03 -7.40319E+03  2.34928E+04  1.40102E+04
  7.04848E+03  3.78858E+04 -3.42342E+04  3.72699E+04 -6.60181E+04  2.00970E+03 -5.88674E+04 -4.45254E+04
 -1.24628E+04 -6.59936E+04  4.21683E+04 -4.78384E+04  6.15082E+04 -3.07007E+03  3.67805E+04  3.51762E+04
 -5.64690E+03  4.01195E+04 -3.22436E+04  1.90396E+04 -3.42291E+04 -3.14548E+03 -1.99689E+04 -1.22143E+04
 -9.57676E+03 -1.55678E+04 -4.01693E+01 -2.03891E+04  8.49108E+03 -2.35865E+04  1.60733E+04 -1.22200E+04
  9.95080E+03  6.66655E+03 -1.06668E+04  1.28082E+04 -2.40610E+04 -7.01722E+03 -8.40795E+03 -3.79778E+04
  2.58104E+04 -4.75359E+04  5.26770E+04 -2.11174E+04  4.93537E+04  2.09688E+04  1.75963E+04  4.79016E+04
 -1.69610E+04  3.68153E+04 -2.78649E+04  2.93066E+03 -1.21346E+04 -2.97599E+04  2.12328E+04 -3.76749E+04
  4.48773E+04 -1.14164E+04  4.16352E+04  2.51702E+04  2.25088E+04  5.21344E+04 -8.25917E+03  5.72842E+04
 -3.58442E+04  3.92381E+04 -4.86261E+04  1.15816E+04 -4.87044E+04 -1.89741E+04 -2.64834E+04 -4.30212E+04
  7.88677E+03 -4.28902E+04  3.45045E+04 -1.75173E+04  3.29861E+04  1.07149E+04  5.52999E+03  2.06473E+04
 -1.37928E+04  9.74313E+03 -1.15700E+04 -7.63763E+03  5.60238E+03 -1.16649E+04  1.90165E+04  5.49700E+03
  1.50410E+04  2.29825E+04 -4.67759E+03  2.73222E+04 -2.34329E+04  1.51509E+04 -3.21584E+04 -2.67296E+03
 -2.66692E+04 -1.84219E+04 -1.22661E+04 -2.61759E+04  4.56965E+03 -2.68942E+04  2.09214E+04 -2.41818E+04
  3.28224E+04 -1.45655E+04  3.93052E+04  5.55341E+03  2.81926E+04  2.51340E+04  4.39691E+03  4.23250E+04
 -2.06757E+04  3.48508E+04 -3.07455E+04  1.20848E+04 -2.27834E+04 -1.01428E+04 -5.05097E+03 -1.25901E+04
  3.24998E+02 -9.02571E+02 -7.86545E+03  8.55490E+03 -2.12867E+04  4.90862E+03 -2.06757E+04 -9.88765E+03
 -1.26117E+04 -2.43832E+04  6.27245E+03 -2.85481E+04  1.98779E+04 -2.08479E+04  2.33982E+04 -1.53334E+03
  1.51732E+04  1.65872E+04 -1.52090E+03  2.45433E+04 -1.70770E+04  1.40976E+04 -2.42017E+04 -4.63183E+03
 -1.80349E+04 -2.17367E+04 -2.46656E+03 -2.90831E+04  1.26428E+04 -2.39285E+04  2.41015E+04 -1.26280E+04
  2.33374E+04 -4.78022E+02  1.64109E+04  5.30463E+03  8.80966E+03  1.49144E+03  1.28747E+04 -2.06429E+03
  2.31833E+04  2.72751E+03  2.68850E+04  1.89153E+04  1.82929E+04  3.89466E+04 -2.30473E+03  4.61955E+04
 -2.63404E+04  3.94053E+04 -4.36680E+04  2.04209E+04 -4.76662E+04 -3.20843E+03 -3.82171E+04 -2.72826E+04
 -1.49952E+04 -3.94643E+04  1.39155E+04 -3.42937E+04  2.96561E+04 -1.61060E+04  2.51455E+04  8.35472E+03
  8.72444E+03  1.93245E+04 -1.20477E+04  1.59688E+04 -2.09492E+04  2.61636E+03 -1.61626E+04 -1.33099E+04
  2.10140E+02 -2.05314E+04  1.11795E+04 -1.51339E+04  1.41180E+04 -1.47800E+03  4.05126E+03  9.44484E+03
 -8.96792E+03  4.75262E+03 -1.00661E+04 -6.65444E+03 -2.23153E+03 -1.90600E+04  1.24285E+04 -2.08610E+04
  2.38545E+04 -1.18918E+04  2.82833E+04  3.66120E+03  2.44126E+04  1.96684E+04  1.09155E+04  3.12983E+04
 -6.45653E+03  3.31990E+04 -2.13558E+04  2.03441E+04 -2.44096E+04  4.17706E+03 -1.61222E+04 -6.22591E+03
 -6.46162E+03 -7.72676E+03 -9.34943E+02  1.08379E+02 -3.59683E+03  3.88622E+03 -7.97594E+03  5.96128E+03
 -1.47636E+04 -1.08640E+03 -1.58549E+04 -1.25560E+04 -6.34750E+03 -2.05358E+04  7.05973E+03 -1.66372E+04
  1.39051E+04 -6.48989E+03  1.01859E+04  4.42997E+03 -1.75364E+02  6.64478E+03 -8.32607E+03 -2.51832E+02
 -8.05195E+03 -1.07951E+04 -9.30197E+02 -1.64618E+04  9.71578E+03 -1.72743E+04  2.13429E+04 -9.29024E+03
  2.47206E+04  2.49978E+03  1.83961E+04  1.58400E+04  3.63993E+03  2.04292E+04 -1.03199E+04  1.63985E+04
 -1.37198E+04  4.58856E+03 -7.14220E+03 -3.77874E+03  2.12655E+03 -4.80714E+03  8.35646E+03 -1.49192E+03
  7.75569E+03  7.41398E+03  1.19586E+03  1.33210E+04 -9.58014E+03  1.30822E+04 -1.62683E+04  2.98161E+03
 -1.17529E+04 -9.22305E+03  6.87570E+02 -1.44200E+04  9.82185E+03 -7.72724E+03  9.92480E+03  4.18158E+03
  2.53221E+03  1.09898E+04 -9.06741E+03  1.30887E+04 -1.53363E+04  5.73682E+03 -1.51952E+04 -5.17919E+03
 -9.05510E+03 -1.72772E+04  4.21278E+03 -1.95893E+04  1.66006E+04 -1.14491E+04  1.82790E+04  3.46136E+03
  1.06111E+04  1.42105E+04 -1.71195E+03  1.69246E+04 -1.29962E+04  9.12840E+03 -1.40486E+04 -1.53403E+03
 -1.17350E+04 -1.13916E+04 -1.56710E+03 -1.32023E+04  7.02549E+03 -1.03993E+04  8.36029E+03 -3.82161E+03
  5.45509E+03  2.65317E+03 -1.50639E+03  2.28290E+03 -1.12960E+03 -4.11450E+03  2.94696E+03 -8.45688E+03
  1.24285E+04 -5.45785E+03  1.82149E+04  1.80028E+03  1.69079E+04  1.25325E+04  1.06105E+04  2.31818E+04
 -5.80436E+03  2.64251E+04 -2.18096E+04  1.94005E+04 -2.84084E+04  3.64090E+03 -2.28884E+04 -1.00777E+04
 -1.15825E+04 -1.90046E+04 -4.92383E+02 -1.62981E+04  5.28636E+03 -9.25278E+03  5.99735E+03 -5.67513E+03
  4.34105E+03 -2.65470E+03  4.34540E+03 -3.97916E+03  5.76143E+03 -3.80665E+03  8.39898E+03 -1.83662E+03
  1.16419E+04  2.52551E+03  6.89122E+03  9.96239E+03 -2.33931E+03  1.30473E+04 -1.24614E+04  9.45630E+03
 -1.67026E+04 -1.03105E+03 -1.03341E+04 -1.17866E+04 -1.58179E+03 -1.76376E+04  9.35558E+03 -1.78133E+04
  1.86604E+04 -9.31099E+03  2.16506E+04  2.82558E+03  1.50141E+04  1.54137E+04  2.38804E+03  1.96339E+04
 -8.24810E+03  1.59955E+04 -1.17920E+04  5.49109E+03 -7.96059E+03 -1.58473E+03 -3.24898E+03 -2.44366E+03
 -1.29990E+03 -2.01696E+02 -2.53145E+03  3.03954E+03 -6.72218E+03  2.62471E+03 -1.08412E+04 -1.66311E+03
 -8.51522E+03 -1.14325E+04 -1.19036E+02 -1.65837E+04  1.01685E+04 -1.50499E+04  1.67590E+04 -5.15745E+03
  1.65865E+04  7.84808E+03  7.30562E+03  1.44779E+04 -3.37355E+03  1.68953E+04 -1.22463E+04  1.05573E+04
 -1.54489E+04  1.00625E+03 -1.16385E+04 -1.03024E+04 -9.55995E+02 -1.41235E+04  7.41595E+03 -1.04135E+04
  1.02534E+04 -3.05610E+03  7.54928E+03  3.05200E+03  2.93591E+03  4.69815E+03  1.28933E+03  2.60020E+03
  3.29768E+03  1.14512E+03  3.74242E+03  2.20411E+03  5.17697E+03  5.81295E+03  4.18055E+03  8.98742E+03
 -3.52952E+03  1.35185E+04 -1.20286E+04  1.31760E+04 -1.75160E+04  3.55883E+03 -1.76476E+04 -8.13665E+03
 -9.00263E+03 -1.72278E+04  2.98384E+03 -1.82615E+04  1.06191E+04 -1.22002E+04  1.37431E+04 -3.29586E+03
  1.02190E+04  6.32570E+03  2.04414E+03  9.66251E+03 -5.21530E+03  6.33138E+03 -6.96297E+03 -6.60120E+02
 -3.29175E+03 -7.51275E+03  4.06709E+03 -7.87016E+03  7.85801E+03 -3.61115E+03  6.89731E+03  1.78571E+03
  4.24025E+03  3.64955E+03  1.26145E+03  3.24608E+03 -8.36893E+02  2.82390E+03  1.16213E+03 -6.18189E+02
  3.13325E+03 -9.67573E+02  6.70247E+03  2.97916E+03  4.24128E+03  9.70447E+03 -1.02996E+03  1.20194E+04
 -8.44741E+03  8.10297E+03 -1.09977E+04  2.22173E+03 -9.77228E+03 -3.89649E+03 -4.19582E+03 -7.01875E+03
  9.02803E+02 -6.82884E+03  4.74287E+03 -3.35576E+03  3.96391E+03  3.02509E+03 -1.34428E+03  5.77208E+03
 -7.32767E+03  3.93808E+03 -7.88892E+03 -3.93557E+03 -4.75038E+03 -9.67421E+03  1.35415E+03 -9.90062E+03
  5.60340E+03 -6.15019E+03  7.39509E+03 -6.14363E+02  5.83557E+03  2.48666E+03  3.94013E+02  5.20182E+03
 -3.58072E+03  1.48536E+03 -4.58766E+03 -3.26791E+03  1.95181E+03 -7.69219E+03  9.09633E+03 -6.57343E+03
  1.14715E+04  4.71006E+02  1.09892E+04  7.60976E+03  3.61373E+03  1.15480E+04 -4.35052E+03  1.13499E+04
 -9.60280E+03  5.13880E+03 -1.00080E+04 -1.39757E+03 -5.55115E+03 -7.24959E+03  2.00731E+03 -7.75337E+03
  7.69825E+03 -3.46358E+03  6.14474E+03  3.21630E+03  2.16145E+03  6.96662E+03 -1.02482E+03  5.90788E+03
 -2.77048E+03  3.53219E+03 -2.70862E+03  1.20533E+03 -1.47086E+03  1.23074E+03 -1.91660E+03  2.62600E+03
 -3.06762E+03  4.25663E+03 -7.87335E+03  4.04761E+03 -1.19405E+04  2.08041E+02 -1.30022E+04 -7.91462E+03
 -6.87068E+03 -1.59315E+04  3.10569E+03 -1.85064E+04  1.15161E+04 -1.40050E+04  1.72642E+04 -5.31535E+03
  1.61927E+04  3.39097E+03  9.76062E+03  1.08215E+04  6.75190E+02  1.27884E+04 -5.15634E+03  9.25917E+03
 -6.75406E+03  3.20997E+03 -4.64141E+03 -1.51056E+03 -1.29455E+03 -6.39237E+02 -6.12020E+02  1.49205E+02
 -2.03079E+03  1.92416E+02 -2.23168E+03 -6.91313E+02 -1.38909E+03 -2.91495E+03  3.50281E+02 -4.52829E+03
  5.42722E+03 -4.05432E+03  7.76810E+03 -3.51538E+02  8.70590E+03  6.55500E+03  2.95744E+03  1.23306E+04
 -5.70233E+03  1.41570E+04 -1.37170E+04  8.27458E+03 -1.52555E+04 -1.14249E+03 -1.18154E+04 -9.31040E+03
 -4.88653E+03 -1.30689E+04  2.69657E+03 -1.18509E+04  8.23442E+03 -6.01202E+03  8.19240E+03  2.15143E+02
  4.73567E+03  4.11390E+03 -3.60418E+02  3.20052E+03 -2.12374E+03  2.52566E+01  1.05866E+02 -2.86193E+03
  4.10468E+03 -1.95238E+03  4.96447E+03  1.19796E+03  3.55493E+03  5.20416E+03  2.77039E+02  6.89654E+03
 -5.67139E+03  5.92379E+03 -9.04147E+03  4.47116E+02 -7.82029E+03 -6.11442E+03 -9.62321E+02 -1.07169E+04
  5.93499E+03 -8.83953E+03  1.02073E+04 -2.57486E+03  9.82282E+03  2.45186E+03  5.73949E+03  8.21362E+03
  9.99660E+02  8.42661E+03 -3.31158E+03  6.96645E+03 -5.14915E+03  4.07044E+03 -4.62077E+03  5.81934E+02
 -2.21135E+03 -4.53459E+02 -2.49552E+03  1.11799E+03 -4.27332E+03  1.14642E+03 -6.62878E+03 -9.72532E+02
 -6.36482E+03 -5.02407E+03 -1.90499E+03 -9.03709E+03  3.65422E+03 -9.06109E+03  7.70453E+03 -4.15673E+03
  8.73361E+03  1.20477E+03  4.77474E+03  5.98625E+03 -9.31064E+02  8.96378E+03 -6.91066E+03  5.22874E+03
