 $NMID ID='MM_0lb_SNR800_15hz_g40_10.RAW', FMTDAT='(8E13.5)'
 TRAMP=1., VOLUME=1. $END
  3.09892E+05  2.73674E+02  3.37454E+05  2.50573E+05  8.45732E+04  3.37661E+05 -1.32474E+05  2.50720E+05
 -1.89921E+05  8.29778E+04 -1.11344E+05 -3.26314E+04  1.22477E+03 -5.02741E+04  5.40116E+04  9.27549E+01
  3.53423E+04  5.31318E+04 -1.70699E+04  7.50537E+04 -6.04780E+04  6.30161E+04 -8.33295E+04  3.17247E+04
 -8.03978E+04 -1.14778E+04 -5.67543E+04 -5.07683E+04 -1.49193E+04 -6.88156E+04  2.70681E+04 -4.53722E+04
  3.94886E+04  4.10041E+03  1.56586E+04  4.75134E+04 -3.40289E+04  4.63214E+04 -6.59965E+04 -5.59845E+02
 -5.26233E+04 -5.63867E+04 -6.75813E+03 -7.58321E+04  3.35700E+04 -5.42653E+04  4.70268E+04 -1.68869E+04
  4.24124E+04  1.13804E+04  3.14506E+04  2.48892E+04  1.57007E+04  2.88718E+04 -4.78052E+03  2.67691E+04
 -2.19603E+04  1.24061E+04 -1.88370E+04 -4.47853E+03  4.78832E+03 -7.57839E+03  2.19731E+04  1.16524E+04
  7.26867E+03  3.41711E+04 -3.10866E+04  3.50082E+04 -6.23777E+04  2.21640E+03 -5.64230E+04 -4.20060E+04
 -1.24420E+04 -6.20228E+04  3.88650E+04 -4.42456E+04  5.67978E+04 -2.21359E+03  3.31982E+04  3.16334E+04
 -6.43210E+03  3.47205E+04 -2.91493E+04  1.46485E+04 -2.91692E+04 -4.76575E+03 -1.54021E+04 -1.02454E+04
 -7.97908E+03 -1.23102E+04 -1.08377E+03 -1.73868E+04  7.15363E+03 -2.25467E+04  1.53454E+04 -1.36026E+04
  1.14538E+04  4.78829E+03 -7.01505E+03  1.30371E+04 -2.04519E+04 -3.35506E+03 -8.56615E+03 -3.20836E+04
  2.19468E+04 -4.21370E+04  4.67719E+04 -1.92089E+04  4.36124E+04  1.90505E+04  1.51555E+04  4.30994E+04
 -1.57435E+04  3.21123E+04 -2.45888E+04  1.54379E+03 -9.29128E+03 -2.70697E+04  2.07186E+04 -3.24737E+04
  3.96610E+04 -8.26607E+03  3.34980E+04  2.33086E+04  1.67218E+04  4.46752E+04 -7.74838E+03  4.80250E+04
 -3.03010E+04  3.18187E+04 -3.96587E+04  9.13423E+03 -4.05886E+04 -1.59111E+04 -2.23462E+04 -3.64457E+04
  7.11445E+03 -3.59653E+04  3.01076E+04 -1.38972E+04  2.84156E+04  1.06534E+04  3.41787E+03  1.87439E+04
 -1.34258E+04  7.94898E+03 -9.80538E+03 -7.49314E+03  6.00235E+03 -1.04919E+04  1.75458E+04  6.14849E+03
  1.30287E+04  2.19082E+04 -6.17369E+03  2.42414E+04 -2.18257E+04  1.05298E+04 -2.64592E+04 -5.64112E+03
 -1.86417E+04 -1.68191E+04 -6.93546E+03 -1.87404E+04  3.98345E+03 -1.74908E+04  1.40884E+04 -1.63088E+04
  2.36045E+04 -1.20848E+04  3.06704E+04  1.99167E+03  2.25594E+04  1.84517E+04  4.14756E+03  3.45994E+04
 -1.68274E+04  2.93100E+04 -2.70991E+04  1.01005E+04 -2.03834E+04 -1.05502E+04 -4.41629E+03 -1.35882E+04
  2.00702E+03 -3.48903E+03 -3.69007E+03  6.04678E+03 -1.46100E+04  5.64038E+03 -1.53533E+04 -5.97175E+03
 -9.62302E+03 -1.73512E+04  4.88697E+03 -2.14628E+04  1.39539E+04 -1.53217E+04  1.66479E+04 -1.67995E+03
  1.04477E+04  1.21294E+04 -5.32056E+02  1.72975E+04 -1.18878E+04  1.00090E+04 -1.75921E+04 -3.93264E+03
 -1.30915E+04 -1.56209E+04 -1.85780E+03 -2.16502E+04  9.71774E+03 -1.73441E+04  1.78510E+04 -8.45044E+03
  1.65827E+04  6.85230E+02  1.17677E+04  4.41803E+03  5.97464E+03  9.00692E+02  8.72724E+03 -1.15048E+03
  1.59692E+04  2.69301E+03  1.74819E+04  1.42908E+04  1.12738E+04  2.80122E+04 -3.13120E+03  3.08783E+04
 -1.81027E+04  2.43880E+04 -2.86585E+04  1.21169E+04 -2.97093E+04 -2.19037E+03 -2.49864E+04 -1.69856E+04
 -1.08993E+04 -2.43174E+04  8.37587E+03 -2.23377E+04  1.91244E+04 -1.18912E+04  1.74671E+04  4.88907E+03
  6.82708E+03  1.27233E+04 -8.01184E+03  1.18359E+04 -1.49253E+04  2.34020E+03 -1.12447E+04 -9.18837E+03
 -1.85408E+02 -1.43526E+04  7.76416E+03 -1.04978E+04  9.14995E+03 -1.31466E+03  1.93508E+03  6.00777E+03
 -6.22136E+03  2.18713E+03 -4.85890E+03 -5.21217E+03 -8.67256E+01 -1.20097E+04  8.81767E+03 -1.28007E+04
  1.48278E+04 -6.55657E+03  1.54296E+04  2.63649E+03  1.32786E+04  1.17972E+04  5.95719E+03  1.77185E+04
 -2.56054E+03  1.98877E+04 -1.19989E+04  1.20283E+04 -1.38515E+04  3.18107E+03 -1.01076E+04 -2.74751E+03
 -5.22687E+03 -4.22576E+03 -9.12946E+02  1.41860E+03 -2.38009E+03  2.29919E+03 -4.68574E+03  4.00314E+03
 -9.42323E+03 -5.60650E+02 -1.03192E+04 -8.33081E+03 -4.01915E+03 -1.34032E+04  4.30504E+03 -1.01187E+04
  8.67579E+03 -4.23753E+03  5.67728E+03  2.57497E+03  1.41495E+02  3.72002E+03 -4.49696E+03 -2.31961E+02
 -4.42082E+03 -6.09413E+03 -9.71914E+02 -9.13013E+03  5.34682E+03 -1.01006E+04  1.25934E+04 -5.33340E+03
  1.43436E+04  1.04863E+03  1.06827E+04  8.09361E+03  2.13164E+03  1.11273E+04 -6.11668E+03  9.86021E+03
 -8.25231E+03  3.22663E+03 -4.07631E+03 -1.68481E+03  1.78763E+03 -2.42301E+03  5.61609E+03 -8.00877E+02
  4.35968E+03  4.18539E+03  1.00169E+03  7.91784E+03 -5.39867E+03  7.99236E+03 -9.65472E+03  1.87435E+03
 -6.30387E+03 -4.64676E+03  5.88933E+02 -8.37203E+03  5.00467E+03 -4.14287E+03  5.02866E+03  1.80925E+03
  8.82415E+02  4.87838E+03 -5.23890E+03  6.53371E+03 -6.89452E+03  3.32070E+03 -6.70904E+03 -2.12423E+03
 -3.86754E+03 -8.22250E+03  1.67585E+03 -9.66692E+03  8.29459E+03 -5.88736E+03  8.96689E+03  1.40522E+03
  5.61087E+03  7.08192E+03 -8.16421E+01  9.23271E+03 -6.35097E+03  5.31784E+03 -7.07958E+03 -7.29451E+02
 -6.93289E+03 -6.50555E+03 -1.29443E+03 -6.94248E+03  3.35896E+03 -6.08578E+03  4.11640E+03 -3.09049E+03
  3.31045E+03  4.44599E+02 -3.59747E+02  1.41221E+03  3.10225E+02 -7.58266E+02  5.64168E+02 -3.38578E+03
  5.72148E+03 -1.85252E+03  7.79547E+03  9.20871E+02  7.93477E+03  5.04290E+03  6.17459E+03  1.04705E+04
 -2.15518E+03  1.20190E+04 -1.05992E+04  9.12577E+03 -1.31557E+04  1.89901E+03 -1.07830E+04 -3.95644E+03
 -5.22076E+03 -9.09029E+03 -2.63412E+01 -7.31349E+03  2.67572E+03 -3.63275E+03  2.22680E+03 -2.81528E+03
  1.86340E+03 -2.10201E+03  2.53190E+03 -2.87226E+03  4.10964E+03 -1.69409E+03  4.74877E+03 -2.49376E+02
  5.53627E+03  1.19398E+03  2.00903E+03  4.48499E+03 -1.76885E+03  4.61916E+03 -5.95416E+03  4.12741E+03
 -7.12590E+03 -1.13503E+03 -3.52991E+03 -4.74823E+03  1.70657E+02 -7.12188E+03  4.47571E+03 -7.82424E+03
  7.66538E+03 -4.23086E+03  9.78557E+03  7.51768E+02  6.69819E+03  6.29922E+03  1.52922E+03  8.74621E+03
 -3.51522E+03  7.82941E+03 -4.91411E+03  2.61610E+03 -2.96120E+03 -7.95501E+02 -8.93660E+02 -7.68764E+02
 -1.07787E+03  4.93962E+02 -1.30340E+03  2.28161E+03 -3.17145E+03  1.53136E+03 -5.56041E+03 -7.31305E+02
 -2.75063E+03 -5.19188E+03  5.56385E+02 -6.75136E+03  4.07161E+03 -6.35117E+03  6.07670E+03 -2.14143E+03
  6.63494E+03  3.38577E+03  2.82811E+03  5.78513E+03 -1.29392E+03  6.66231E+03 -4.29353E+03  4.07726E+03
 -5.75973E+03  6.41195E+02 -4.90502E+03 -3.74272E+03 -2.46749E+02 -5.83680E+03  2.62347E+03 -3.64175E+03
  4.05705E+03 -1.61822E+03  3.04347E+03  1.13307E+03  6.97588E+02  2.37796E+03  1.09535E+03  1.15791E+03
  2.06422E+03  6.26889E+02  1.79701E+03  1.10634E+03  1.98449E+03  2.84717E+03  1.90920E+03  3.10131E+03
 -1.71425E+03  4.73161E+03 -3.82039E+03  5.64262E+03 -5.58824E+03  1.93419E+03 -6.78078E+03 -1.84754E+03
 -3.03278E+03 -6.34144E+03  8.11406E+02 -7.04281E+03  3.67788E+03 -4.35381E+03  4.97342E+03 -1.50286E+03
  4.12253E+03  2.51017E+03  6.08315E+02  3.48161E+03 -1.65910E+03  2.31129E+03 -2.24969E+03 -2.60896E+02
 -1.31269E+03 -2.75521E+03  1.79396E+03 -2.44916E+03  2.60007E+03 -1.45066E+03  2.05332E+03  5.04631E+02
  1.37710E+03  1.04377E+03  1.19605E+03  3.70382E+02 -3.78670E+02  1.10725E+03  1.59313E+03 -6.06683E+02
  4.32287E+02 -2.54377E+02  2.77973E+03  7.81830E+02  7.12871E+02  3.73437E+03 -5.57741E+02  4.63891E+03
 -2.73063E+03  2.36359E+03 -3.48208E+03  9.06396E+02 -3.48236E+03 -1.31482E+03 -7.83098E+02 -1.95626E+03
  5.90760E+02 -2.16735E+03  1.78571E+03 -7.54109E+02  1.44730E+03  1.52212E+03 -7.84114E+02  1.86956E+03
 -2.36985E+03  1.38137E+03 -2.37444E+03 -1.76404E+03 -1.51117E+03 -3.37659E+03  4.93351E+02 -3.24796E+03
  1.37898E+03 -1.43256E+03  2.11646E+03  2.53730E+02  1.86364E+03  1.52495E+02  2.79473E+02  1.88121E+03
 -8.20078E+02  2.38592E+02 -1.41110E+03 -1.08454E+03  9.40717E+02 -1.73765E+03  2.83758E+03 -1.98074E+03
  2.95311E+03  3.74483E+02  3.92884E+03  1.50209E+03  1.33550E+03  3.30648E+03 -9.15774E+02  3.51003E+03
 -2.54725E+03  1.02380E+03 -2.89867E+03 -4.18270E+02 -1.59252E+03 -2.45953E+03  3.50579E+02 -1.55910E+03
  2.41414E+03 -1.41462E+03  1.61912E+03  1.17154E+03  8.75252E+02  2.28080E+03  3.47632E+02  1.94318E+03
 -8.66692E+02  1.89542E+03 -7.80162E+02  2.74351E+02 -3.55221E+01  5.41278E+02 -1.02116E+03  5.48874E+02
 -1.08111E+03  1.55222E+03 -2.42956E+03  1.17617E+03 -3.38313E+03  1.37350E+02 -4.16811E+03 -2.01340E+03
 -1.81532E+03 -4.39555E+03  7.27766E+02 -5.19984E+03  2.91064E+03 -4.47582E+03  5.06634E+03 -1.93267E+03
  4.62569E+03  3.40395E+02  2.42669E+03  3.20675E+03 -8.84242E+01  3.13454E+03 -1.17097E+03  2.22089E+03
 -2.14486E+03  1.34574E+03 -1.07720E+03 -2.16542E+02 -5.46532E+02  5.12931E+01 -7.94365E+02  5.69742E+01
 -1.41773E+03  8.05441E+01 -1.07151E+03  4.14419E+01  5.34169E+00 -1.20667E+03 -1.89214E+02 -1.46530E+03
  2.11122E+03 -1.04951E+03  1.61444E+03 -7.46051E+01  2.07264E+03  1.81496E+03 -1.30021E+02  3.13662E+03
 -1.61696E+03  3.83186E+03 -3.36115E+03  2.51452E+03 -3.64883E+03 -2.38869E+02 -2.69091E+03 -2.22904E+03
 -1.46017E+03 -2.72068E+03  5.75581E+02 -2.70372E+03  1.63223E+03 -1.49128E+03  1.81367E+03  2.68369E+02
  1.46672E+03  9.63529E+02  4.08586E+02  7.89280E+02 -7.51040E+02 -3.71951E+02 -9.28330E-02 -5.47071E+02
  1.16431E+03 -1.32548E+02  1.15655E+03  6.08285E+02  3.83240E+02  1.23934E+03  2.53488E+02  9.90311E+02
 -1.22539E+03  1.34682E+03 -1.72316E+03  1.42899E+02 -1.83016E+03 -1.09881E+03 -8.50399E+01 -2.64851E+03
  1.17218E+03 -1.89542E+03  1.78793E+03 -6.00845E+02  2.28598E+03  3.37789E+02  1.08032E+03  1.67067E+03
  4.22559E+02  2.00406E+03 -6.61762E+02  1.40433E+03 -1.13539E+03  9.80875E+02 -7.13853E+02  5.37314E+00
 -4.30646E+02  6.27216E+01 -5.38268E+02  4.84826E+02 -8.59818E+02  1.36587E+02 -1.48871E+03 -3.86750E+02
 -1.66864E+03 -4.31902E+02 -8.56375E+02 -1.71917E+03  1.19952E+03 -2.25931E+03  1.41861E+03 -8.04878E+02
  1.71063E+03  2.31799E+02  5.04677E+02  1.13633E+03 -3.05770E+02  1.79345E+03 -1.21967E+03  1.45184E+03
