 $NMID ID='MM_0lb_SNR800_9hz_g55_54.RAW', FMTDAT='(8E13.5)'
 TRAMP=1., VOLUME=1. $END
  3.09774E+05  4.38783E+02  3.37935E+05  2.50747E+05  8.50644E+04  3.38667E+05 -1.32639E+05  2.52004E+05
 -1.91060E+05  8.40660E+04 -1.12676E+05 -3.24387E+04  3.46268E+02 -5.04396E+04  5.36349E+04 -5.51769E+02
  3.55662E+04  5.28125E+04 -1.65276E+04  7.60867E+04 -6.11875E+04  6.44549E+04 -8.55773E+04  3.21517E+04
 -8.23353E+04 -1.19390E+04 -5.84960E+04 -5.24960E+04 -1.49201E+04 -7.14122E+04  2.85439E+04 -4.69584E+04
  4.16119E+04  3.55915E+03  1.68375E+04  4.91104E+04 -3.44444E+04  4.84685E+04 -6.83229E+04 -2.13360E+02
 -5.52708E+04 -5.79661E+04 -7.32538E+03 -7.94193E+04  3.47621E+04 -5.70092E+04  5.03139E+04 -1.82412E+04
  4.56517E+04  1.17731E+04  3.28540E+04  2.64251E+04  1.59903E+04  3.07487E+04 -6.37905E+03  2.76451E+04
 -2.25076E+04  1.16708E+04 -1.79752E+04 -5.38807E+03  7.20407E+03 -7.53825E+03  2.39271E+04  1.36772E+04
  7.21174E+03  3.76598E+04 -3.37880E+04  3.73494E+04 -6.60108E+04  2.20583E+03 -5.93272E+04 -4.45339E+04
 -1.26163E+04 -6.58473E+04  4.15203E+04 -4.74046E+04  6.18917E+04 -2.95400E+03  3.66187E+04  3.44766E+04
 -5.45386E+03  3.97116E+04 -3.20306E+04  1.90768E+04 -3.37098E+04 -3.46801E+03 -1.95864E+04 -1.21843E+04
 -9.81163E+03 -1.55839E+04 -5.57279E+02 -1.97627E+04  8.44490E+03 -2.35151E+04  1.59541E+04 -1.29250E+04
  1.02946E+04  6.04968E+03 -1.05084E+04  1.27268E+04 -2.34470E+04 -7.03831E+03 -9.04632E+03 -3.80877E+04
  2.54005E+04 -4.72942E+04  5.21584E+04 -2.11048E+04  4.89094E+04  2.12537E+04  1.75968E+04  4.73052E+04
 -1.69491E+04  3.63513E+04 -2.81638E+04  2.67962E+03 -1.22686E+04 -2.95107E+04  2.18136E+04 -3.69820E+04
  4.50080E+04 -1.14178E+04  4.10201E+04  2.47652E+04  2.14801E+04  5.13624E+04 -8.19566E+03  5.67663E+04
 -3.58527E+04  3.87640E+04 -4.78815E+04  1.12485E+04 -4.80797E+04 -1.87010E+04 -2.66097E+04 -4.28158E+04
  7.94379E+03 -4.25886E+04  3.39579E+04 -1.73077E+04  3.20831E+04  1.15943E+04  5.27240E+03  2.11130E+04
 -1.39343E+04  9.71011E+03 -1.14047E+04 -7.21166E+03  5.71627E+03 -1.15574E+04  1.90380E+04  5.25784E+03
  1.51687E+04  2.25921E+04 -5.35475E+03  2.71164E+04 -2.33318E+04  1.42770E+04 -3.18935E+04 -2.84688E+03
 -2.58134E+04 -1.87285E+04 -1.21464E+04 -2.59131E+04  4.45349E+03 -2.64977E+04  1.97944E+04 -2.34551E+04
  3.27810E+04 -1.44973E+04  3.84608E+04  5.37289E+03  2.74564E+04  2.48863E+04  4.61322E+03  4.19968E+04
 -1.99221E+04  3.41939E+04 -3.04524E+04  1.23158E+04 -2.26474E+04 -1.02952E+04 -5.22816E+03 -1.32032E+04
  5.80154E+02 -4.04870E+02 -7.94684E+03  8.35916E+03 -2.06097E+04  5.57650E+03 -2.07758E+04 -9.57016E+03
 -1.21954E+04 -2.40239E+04  6.00660E+03 -2.83978E+04  1.88930E+04 -2.02462E+04  2.32908E+04 -1.73639E+03
  1.49961E+04  1.58092E+04 -1.53838E+03  2.39256E+04 -1.70534E+04  1.39080E+04 -2.43592E+04 -4.52916E+03
 -1.77410E+04 -2.12171E+04 -2.24872E+03 -2.85099E+04  1.31589E+04 -2.35589E+04  2.38208E+04 -1.22156E+04
  2.26136E+04 -6.75311E+02  1.61073E+04  5.19889E+03  9.13792E+03  1.61860E+03  1.24852E+04 -2.14269E+03
  2.24164E+04  2.93225E+03  2.60622E+04  1.82736E+04  1.76737E+04  3.85484E+04 -2.74173E+03  4.46495E+04
 -2.60142E+04  3.82165E+04 -4.26517E+04  1.97238E+04 -4.57664E+04 -3.42092E+03 -3.66685E+04 -2.65186E+04
 -1.45769E+04 -3.85897E+04  1.35865E+04 -3.36301E+04  2.88114E+04 -1.54134E+04  2.45083E+04  8.12989E+03
  8.11440E+03  1.89324E+04 -1.20473E+04  1.60324E+04 -1.99677E+04  2.82770E+03 -1.56477E+04 -1.33137E+04
 -4.36855E+02 -1.95932E+04  1.06947E+04 -1.47477E+04  1.37860E+04 -8.98615E+02  3.32205E+03  9.05394E+03
 -8.97903E+03  4.36283E+03 -9.31777E+03 -7.00644E+03 -2.05705E+03 -1.83627E+04  1.20767E+04 -2.03937E+04
  2.37959E+04 -1.11229E+04  2.71237E+04  3.42266E+03  2.37387E+04  1.93416E+04  1.07348E+04  2.97961E+04
 -6.08072E+03  3.22021E+04 -2.12867E+04  2.02185E+04 -2.29927E+04  4.09207E+03 -1.57331E+04 -6.17277E+03
 -6.27207E+03 -7.23045E+03 -4.57482E+02 -1.78539E+02 -2.89383E+03  3.20694E+03 -7.53553E+03  5.71096E+03
 -1.43099E+04 -8.69884E+02 -1.49414E+04 -1.19443E+04 -6.05787E+03 -2.03309E+04  6.37343E+03 -1.64219E+04
  1.31598E+04 -6.51565E+03  9.01572E+03  4.33873E+03 -4.89625E+02  6.60068E+03 -7.97404E+03 -2.32418E+02
 -7.71182E+03 -1.02988E+04 -1.04864E+03 -1.61634E+04  9.14621E+03 -1.68503E+04  2.07962E+04 -9.14321E+03
  2.42563E+04  2.75448E+03  1.81117E+04  1.53676E+04  3.24264E+03  1.96978E+04 -9.64178E+03  1.60635E+04
 -1.30668E+04  4.31770E+03 -6.37529E+03 -3.65861E+03  2.21344E+03 -4.74659E+03  8.47775E+03 -1.31535E+03
  7.55638E+03  7.40649E+03  1.14552E+03  1.31086E+04 -9.66665E+03  1.24342E+04 -1.64109E+04  3.23233E+03
 -1.09728E+04 -8.96281E+03  2.62099E+02 -1.38362E+04  8.69461E+03 -7.00857E+03  9.92099E+03  3.11424E+03
  2.19901E+03  1.03343E+04 -8.66695E+03  1.21443E+04 -1.45553E+04  5.28243E+03 -1.46698E+04 -5.56915E+03
 -8.30898E+03 -1.66227E+04  4.27714E+03 -1.89684E+04  1.58747E+04 -1.09256E+04  1.74754E+04  3.24495E+03
  1.03305E+04  1.38244E+04 -1.60837E+03  1.60980E+04 -1.20539E+04  8.93668E+03 -1.35824E+04 -1.44622E+03
 -1.11664E+04 -1.09772E+04 -1.98993E+03 -1.26748E+04  6.77384E+03 -1.01860E+04  7.56010E+03 -3.74449E+03
  5.03469E+03  2.26827E+03 -1.29455E+03  2.17987E+03 -9.11299E+02 -4.14126E+03  3.19352E+03 -7.64442E+03
  1.17451E+04 -5.14143E+03  1.67867E+04  1.60378E+03  1.63583E+04  1.10069E+04  1.07540E+04  2.18453E+04
 -5.09419E+03  2.45911E+04 -2.02452E+04  1.86181E+04 -2.66092E+04  3.65237E+03 -2.15767E+04 -9.00042E+03
 -1.07224E+04 -1.76055E+04 -3.40800E+02 -1.54027E+04  5.56887E+03 -8.96633E+03  5.73150E+03 -5.31442E+03
  4.22039E+03 -3.30647E+03  4.10428E+03 -4.23317E+03  6.49314E+03 -3.91599E+03  8.27957E+03 -1.82667E+03
  1.11386E+04  2.33916E+03  6.18996E+03  9.85958E+03 -2.27679E+03  1.16440E+04 -1.19201E+04  9.56899E+03
 -1.54668E+04 -1.20711E+03 -9.75066E+03 -1.05168E+04 -1.64940E+03 -1.71150E+04  8.91894E+03 -1.65780E+04
  1.71902E+04 -9.31612E+03  2.05662E+04  2.69334E+03  1.41082E+04  1.42346E+04  2.16813E+03  1.84920E+04
 -7.61434E+03  1.47030E+04 -1.06291E+04  5.39326E+03 -7.55203E+03 -1.53485E+03 -3.12594E+03 -2.38944E+03
 -1.83139E+03  6.22745E+01 -2.12869E+03  2.80711E+03 -6.00690E+03  2.66884E+03 -1.06827E+04 -1.65033E+03
 -7.57356E+03 -1.02830E+04 -3.26235E+02 -1.55036E+04  9.09235E+03 -1.43450E+04  1.53327E+04 -4.18685E+03
  1.51972E+04  7.71983E+03  7.04192E+03  1.38021E+04 -2.85429E+03  1.57987E+04 -1.09988E+04  9.48778E+03
 -1.47759E+04  4.17614E+02 -1.09704E+04 -9.42827E+03 -1.27947E+03 -1.29682E+04  6.96687E+03 -9.35474E+03
  9.86864E+03 -2.65123E+03  7.01570E+03  2.97626E+03  2.45373E+03  4.29910E+03  1.35993E+03  2.30304E+03
  2.70280E+03  1.26561E+03  3.11098E+03  2.15653E+03  5.00814E+03  5.25549E+03  4.02779E+03  8.26236E+03
 -3.57292E+03  1.20215E+04 -1.07125E+04  1.19230E+04 -1.57535E+04  2.86517E+03 -1.64123E+04 -6.54557E+03
 -7.74293E+03 -1.63382E+04  2.29722E+03 -1.72897E+04  9.71197E+03 -1.13030E+04  1.28205E+04 -2.75623E+03
  1.02342E+04  5.58894E+03  2.39346E+03  9.16764E+03 -4.60595E+03  5.78535E+03 -6.38698E+03 -1.21848E+03
 -3.41539E+03 -6.84634E+03  3.91116E+03 -6.86721E+03  6.70712E+03 -3.46305E+03  6.17888E+03  1.40204E+03
  3.72377E+03  2.91427E+03  1.18264E+03  2.90075E+03 -1.25195E+03  2.71984E+03  1.93577E+03 -5.30437E+02
  2.06349E+03 -1.20331E+03  6.33769E+03  2.49251E+03  3.64954E+03  8.02759E+03 -1.50867E+03  1.11163E+04
 -7.87921E+03  7.33320E+03 -1.01142E+04  1.82687E+03 -8.92003E+03 -3.91695E+03 -3.81935E+03 -6.44823E+03
  9.04256E+02 -6.28288E+03  4.31677E+03 -3.04516E+03  3.61105E+03  2.84953E+03 -1.59302E+03  5.08133E+03
 -6.03044E+03  2.84541E+03 -7.07844E+03 -3.83715E+03 -4.58982E+03 -8.55480E+03  1.47299E+03 -8.59062E+03
  5.14430E+03 -5.08710E+03  6.93980E+03 -4.68124E+02  5.49622E+03  2.61692E+03  5.90884E+02  4.97741E+03
 -3.45211E+03  1.23416E+03 -3.93939E+03 -3.22586E+03  1.46936E+03 -6.69133E+03  7.80486E+03 -5.85104E+03
  1.04198E+04  3.72715E+02  9.40237E+03  7.08377E+03  3.47314E+03  1.05421E+04 -3.92889E+03  9.72693E+03
 -8.71793E+03  4.59768E+03 -8.82164E+03 -1.22508E+03 -4.54605E+03 -6.59348E+03  1.82915E+03 -6.87683E+03
  6.51015E+03 -2.52787E+03  6.05459E+03  2.62265E+03  1.78816E+03  5.61117E+03 -9.43939E+02  4.95462E+03
 -2.88129E+03  3.28047E+03 -2.83837E+03  1.13633E+03 -1.25182E+03  1.03805E+03 -1.48242E+03  2.01070E+03
 -3.01388E+03  4.02935E+03 -7.06772E+03  3.50343E+03 -1.05896E+04 -7.63450E+01 -1.18757E+04 -6.48328E+03
 -5.88096E+03 -1.38320E+04  2.95653E+03 -1.57368E+04  1.01269E+04 -1.26229E+04  1.53335E+04 -4.97496E+03
  1.43994E+04  2.91339E+03  8.81786E+03  1.01617E+04  9.23820E+02  1.11975E+04 -4.42578E+03  8.09294E+03
 -6.19007E+03  2.83455E+03 -3.73719E+03 -1.37910E+03 -1.06036E+03 -1.24957E+03 -6.38700E+02  7.21500E+01
 -2.24399E+03  2.03471E+02 -2.37976E+03 -2.51986E+02 -8.82866E+02 -2.77967E+03 -2.71409E+01 -4.27309E+03
  4.77283E+03 -3.69859E+03  6.88679E+03 -1.34457E+02  7.73888E+03  6.12135E+03  2.25114E+03  1.07591E+04
 -5.44501E+03  1.21992E+04 -1.14445E+04  7.28629E+03 -1.33611E+04 -1.47562E+03 -1.01444E+04 -8.33625E+03
 -4.14729E+03 -1.14466E+04  2.93349E+03 -1.01617E+04  6.87845E+03 -5.42996E+03  7.09511E+03  1.57785E+02
  4.16262E+03  3.15312E+03 -3.05831E+02  3.37593E+03 -2.48454E+03 -2.06400E+02 -1.71414E+01 -2.25099E+03
  3.28153E+03 -1.71553E+03  4.18889E+03  1.11160E+03  2.93175E+03  4.14836E+03  5.13357E+02  5.55544E+03
 -4.54352E+03  5.19546E+03 -7.51934E+03  5.00505E+02 -6.63559E+03 -5.44057E+03 -1.04843E+03 -9.48600E+03
  5.50351E+03 -7.66035E+03  8.16622E+03 -2.35916E+03  8.68154E+03  2.22791E+03  4.94002E+03  7.11028E+03
  3.85474E+02  7.19860E+03 -2.74749E+03  6.28444E+03 -4.55410E+03  3.02796E+03 -3.94335E+03  4.97002E+02
 -1.83370E+03 -1.72524E+02 -2.45054E+03  1.34015E+03 -4.15105E+03  8.33439E+02 -5.40123E+03 -7.29458E+02
 -5.37341E+03 -3.75246E+03 -1.71041E+03 -7.40684E+03  3.38658E+03 -7.53311E+03  6.58413E+03 -3.82541E+03
  7.26559E+03  1.20742E+03  3.78928E+03  5.37898E+03 -2.57562E+02  7.39318E+03 -5.37489E+03  4.77899E+03
