 $NMID ID='MM_0lb_SNR800_7hz_g45_100.RAW', FMTDAT='(8E13.5)'
 TRAMP=1., VOLUME=1. $END
  3.09888E+05  3.58387E+02  3.38413E+05  2.51053E+05  8.49498E+04  3.38253E+05 -1.32771E+05  2.51953E+05
 -1.90933E+05  8.41311E+04 -1.12677E+05 -3.23938E+04 -1.00799E+02 -5.09478E+04  5.37063E+04 -3.81883E+02
  3.60906E+04  5.28900E+04 -1.68918E+04  7.63619E+04 -6.12558E+04  6.44088E+04 -8.61738E+04  3.26463E+04
 -8.24603E+04 -1.21592E+04 -5.84452E+04 -5.27369E+04 -1.50876E+04 -7.10472E+04  2.81297E+04 -4.70423E+04
  4.14627E+04  3.60576E+03  1.70968E+04  4.87693E+04 -3.54272E+04  4.85565E+04 -6.87377E+04  2.84369E+02
 -5.55459E+04 -5.78044E+04 -6.89884E+03 -7.93818E+04  3.50819E+04 -5.75694E+04  5.02560E+04 -1.80862E+04
  4.55354E+04  1.16494E+04  3.29976E+04  2.70537E+04  1.55463E+04  3.14659E+04 -5.98806E+03  2.75019E+04
 -2.23733E+04  1.21653E+04 -1.79305E+04 -5.96156E+03  7.21093E+03 -7.14363E+03  2.36145E+04  1.42745E+04
  7.19049E+03  3.76455E+04 -3.43731E+04  3.74704E+04 -6.70142E+04  2.39238E+03 -5.94493E+04 -4.51950E+04
 -1.27480E+04 -6.65170E+04  4.18013E+04 -4.77846E+04  6.19342E+04 -2.93882E+03  3.72556E+04  3.48035E+04
 -5.39840E+03  4.07468E+04 -3.22663E+04  1.94625E+04 -3.41234E+04 -2.97353E+03 -2.04759E+04 -1.21621E+04
 -9.49869E+03 -1.57711E+04 -2.69237E+02 -1.94716E+04  8.59847E+03 -2.34618E+04  1.60713E+04 -1.23265E+04
  1.00444E+04  6.84581E+03 -1.14013E+04  1.29298E+04 -2.39990E+04 -7.55404E+03 -8.81876E+03 -3.91811E+04
  2.54705E+04 -4.80206E+04  5.36879E+04 -2.13865E+04  4.99181E+04  2.12443E+04  1.77163E+04  4.81073E+04
 -1.74669E+04  3.65885E+04 -2.83995E+04  2.63241E+03 -1.23807E+04 -2.97595E+04  2.20478E+04 -3.81125E+04
  4.54282E+04 -1.14636E+04  4.22101E+04  2.53835E+04  2.24319E+04  5.26734E+04 -8.27961E+03  5.82861E+04
 -3.61385E+04  3.98252E+04 -4.89375E+04  1.17742E+04 -4.89344E+04 -1.93780E+04 -2.71065E+04 -4.39474E+04
  7.75439E+03 -4.35193E+04  3.52666E+04 -1.77794E+04  3.28474E+04  1.10336E+04  5.72689E+03  2.15050E+04
 -1.44185E+04  1.02581E+04 -1.16230E+04 -7.57821E+03  5.51678E+03 -1.15522E+04  1.88877E+04  5.41071E+03
  1.51922E+04  2.31510E+04 -5.15560E+03  2.75003E+04 -2.35448E+04  1.55481E+04 -3.28733E+04 -2.62525E+03
 -2.72862E+04 -1.86445E+04 -1.25697E+04 -2.65170E+04  4.36133E+03 -2.80511E+04  2.12990E+04 -2.49021E+04
  3.44443E+04 -1.49186E+04  4.03179E+04  5.66963E+03  2.80950E+04  2.57700E+04  4.89376E+03  4.31337E+04
 -2.09690E+04  3.52606E+04 -3.14342E+04  1.25390E+04 -2.28212E+04 -1.00521E+04 -4.78598E+03 -1.26476E+04
  2.22206E+02 -4.56337E+02 -8.43985E+03  9.02761E+03 -2.14329E+04  5.15620E+03 -2.12224E+04 -1.03430E+04
 -1.25888E+04 -2.46351E+04  6.35533E+03 -2.93667E+04  2.03685E+04 -2.12240E+04  2.41812E+04 -1.92310E+03
  1.54960E+04  1.74109E+04 -1.29348E+03  2.50424E+04 -1.80018E+04  1.42424E+04 -2.51570E+04 -5.02240E+03
 -1.82913E+04 -2.23495E+04 -2.15300E+03 -3.00561E+04  1.34794E+04 -2.50068E+04  2.46732E+04 -1.32555E+04
  2.42458E+04 -9.91926E+02  1.71731E+04  5.90771E+03  9.72581E+03  1.27196E+03  1.29031E+04 -2.00101E+03
  2.33537E+04  2.98377E+03  2.75799E+04  1.94212E+04  1.85524E+04  4.01887E+04 -2.60094E+03  4.78608E+04
 -2.71163E+04  4.07103E+04 -4.56171E+04  2.14845E+04 -4.91061E+04 -3.46524E+03 -3.93721E+04 -2.87652E+04
 -1.53866E+04 -4.00476E+04  1.42306E+04 -3.51775E+04  3.04132E+04 -1.58308E+04  2.59618E+04  8.94658E+03
  8.68325E+03  2.04071E+04 -1.24949E+04  1.64298E+04 -2.11406E+04  2.10297E+03 -1.60970E+04 -1.39651E+04
 -7.53632E+02 -2.04424E+04  1.12995E+04 -1.53971E+04  1.42203E+04 -1.52137E+03  4.01274E+03  9.46291E+03
 -9.26578E+03  4.65259E+03 -1.02504E+04 -7.64109E+03 -2.50757E+03 -1.97127E+04  1.27095E+04 -2.19104E+04
  2.53929E+04 -1.26979E+04  2.94052E+04  3.75552E+03  2.58394E+04  2.02687E+04  1.21159E+04  3.26363E+04
 -6.31449E+03  3.46433E+04 -2.30515E+04  2.10327E+04 -2.49418E+04  4.18854E+03 -1.68463E+04 -6.71472E+03
 -7.20180E+03 -7.63297E+03 -7.09616E+02  2.74132E+02 -3.41213E+03  4.05861E+03 -7.93579E+03  6.13726E+03
 -1.62744E+04 -1.11924E+03 -1.62255E+04 -1.31565E+04 -6.88794E+03 -2.12790E+04  6.80565E+03 -1.77527E+04
  1.43315E+04 -7.37293E+03  1.04084E+04  4.88408E+03 -5.94723E+02  7.06261E+03 -8.82019E+03 -1.62527E+02
 -8.40636E+03 -1.16476E+04 -1.38878E+03 -1.73413E+04  1.04155E+04 -1.86161E+04  2.24188E+04 -9.96625E+03
  2.65700E+04  3.08250E+03  1.89624E+04  1.60574E+04  3.58881E+03  2.15734E+04 -1.05803E+04  1.72860E+04
 -1.35770E+04  4.56029E+03 -6.88466E+03 -3.95951E+03  2.32444E+03 -5.22694E+03  8.84014E+03 -1.08867E+03
  8.17593E+03  7.87438E+03  1.10266E+03  1.45674E+04 -1.04405E+04  1.33253E+04 -1.78313E+04  3.33982E+03
 -1.20680E+04 -9.18127E+03  1.15766E+02 -1.54431E+04  1.02590E+04 -7.94059E+03  1.11125E+04  3.90631E+03
  2.79897E+03  1.19387E+04 -9.27158E+03  1.30018E+04 -1.58040E+04  5.76816E+03 -1.64540E+04 -6.01906E+03
 -9.55530E+03 -1.78278E+04  4.13600E+03 -2.14156E+04  1.77424E+04 -1.25844E+04  1.95115E+04  3.27040E+03
  1.10856E+04  1.50644E+04 -2.07507E+03  1.79056E+04 -1.34205E+04  9.72499E+03 -1.47623E+04 -1.94219E+03
 -1.21295E+04 -1.19991E+04 -1.96373E+03 -1.38243E+04  7.21194E+03 -1.11699E+04  9.17598E+03 -3.58402E+03
  5.81713E+03  2.32100E+03 -1.62074E+03  2.00114E+03 -1.05717E+03 -4.29147E+03  3.36047E+03 -9.11448E+03
  1.38065E+04 -5.70903E+03  1.86686E+04  1.62135E+03  1.87467E+04  1.33132E+04  1.14104E+04  2.54862E+04
 -6.17952E+03  2.85529E+04 -2.28942E+04  2.09253E+04 -3.02689E+04  3.73835E+03 -2.41231E+04 -1.09343E+04
 -1.21060E+04 -2.00891E+04 -5.78224E+02 -1.71881E+04  6.57255E+03 -9.83005E+03  6.64507E+03 -6.41096E+03
  5.07497E+03 -3.36617E+03  4.40193E+03 -4.62862E+03  6.67124E+03 -4.01490E+03  9.65435E+03 -1.99929E+03
  1.30246E+04  2.67480E+03  7.32887E+03  1.14770E+04 -2.70835E+03  1.36769E+04 -1.32799E+04  1.03598E+04
 -1.76751E+04 -1.63241E+03 -1.17804E+04 -1.28328E+04 -1.63020E+03 -1.88457E+04  1.04424E+04 -1.87407E+04
  1.99595E+04 -1.04111E+04  2.31822E+04  3.05023E+03  1.61639E+04  1.64036E+04  2.52398E+03  2.13208E+04
 -9.15524E+03  1.68039E+04 -1.26632E+04  5.84952E+03 -8.84354E+03 -1.90637E+03 -4.10547E+03 -2.48254E+03
 -1.85536E+03 -2.95644E+02 -2.36591E+03  3.67092E+03 -7.25245E+03  3.03025E+03 -1.23697E+04 -1.99293E+03
 -9.33832E+03 -1.16405E+04 -7.46199E+01 -1.79717E+04  1.13790E+04 -1.67605E+04  1.79063E+04 -4.97017E+03
  1.77769E+04  8.27766E+03  8.64915E+03  1.62505E+04 -3.75309E+03  1.88304E+04 -1.32966E+04  1.08914E+04
 -1.71103E+04  4.35051E+02 -1.29399E+04 -1.09116E+04 -1.41311E+03 -1.52000E+04  8.19133E+03 -1.13737E+04
  1.17857E+04 -3.37615E+03  7.84370E+03  3.28792E+03  2.89474E+03  5.42772E+03  1.68069E+03  2.60168E+03
  2.88035E+03  1.69812E+03  4.41865E+03  2.41145E+03  5.41753E+03  6.08150E+03  4.81568E+03  1.01828E+04
 -3.26670E+03  1.50206E+04 -1.31788E+04  1.43084E+04 -1.97712E+04  3.51736E+03 -1.97944E+04 -8.36629E+03
 -9.79081E+03 -1.87857E+04  2.80757E+03 -2.02890E+04  1.17455E+04 -1.31019E+04  1.50631E+04 -3.43364E+03
  1.22097E+04  6.67729E+03  2.89732E+03  1.08994E+04 -5.41822E+03  6.95531E+03 -8.35441E+03 -1.18246E+03
 -3.37494E+03 -8.31544E+03  3.67660E+03 -7.92399E+03  8.22121E+03 -4.16620E+03  7.23487E+03  1.53250E+03
  4.79940E+03  4.01685E+03  1.97286E+03  3.66217E+03 -8.53185E+02  2.95798E+03  1.91734E+03 -1.39051E+03
  3.26815E+03 -8.13807E+02  7.55226E+03  2.90866E+03  4.88890E+03  9.89607E+03 -1.54135E+03  1.36771E+04
 -9.59818E+03  9.33111E+03 -1.24715E+04  2.56945E+03 -1.11780E+04 -4.18671E+03 -4.84609E+03 -7.55475E+03
  1.51808E+03 -7.48519E+03  4.90651E+03 -3.46910E+03  4.21871E+03  3.76558E+03 -2.45963E+03  6.06458E+03
 -8.15517E+03  3.32578E+03 -8.98495E+03 -3.99400E+03 -5.30725E+03 -1.02103E+04  1.51923E+03 -1.10685E+04
  7.08302E+03 -7.03599E+03  8.03103E+03 -5.76621E+02  6.33040E+03  3.59939E+03  8.90058E+02  5.34544E+03
 -4.11588E+03  2.04414E+03 -5.03533E+03 -3.82905E+03  1.94537E+03 -8.83528E+03  9.90320E+03 -6.85443E+03
  1.33373E+04  1.05249E+03  1.16888E+04  8.93652E+03  3.51081E+03  1.31775E+04 -5.13132E+03  1.26370E+04
 -1.07829E+04  5.87218E+03 -1.10169E+04 -1.42753E+03 -6.38804E+03 -8.53449E+03  1.87208E+03 -8.20813E+03
  8.34522E+03 -3.82855E+03  7.11556E+03  3.48112E+03  2.64854E+03  7.67939E+03 -1.12650E+03  6.01046E+03
 -3.36917E+03  3.71101E+03 -3.11363E+03  1.17282E+03 -1.75698E+03  1.67415E+03 -2.00201E+03  2.81178E+03
 -3.02358E+03  5.04546E+03 -8.29298E+03  4.25880E+03 -1.32847E+04  2.12628E+02 -1.49316E+04 -9.16137E+03
 -7.65240E+03 -1.79799E+04  3.77031E+03 -2.02006E+04  1.30913E+04 -1.62089E+04  1.90838E+04 -5.94140E+03
  1.77452E+04  3.66959E+03  1.12674E+04  1.30545E+04  1.24895E+03  1.43057E+04 -5.91644E+03  1.09705E+04
 -7.52972E+03  3.90514E+03 -5.16945E+03 -1.69667E+03 -7.81638E+02 -1.69600E+03 -4.73110E+02 -2.75054E+02
 -2.44087E+03  6.40619E+02 -3.17987E+03 -7.87088E+02 -1.27351E+03 -3.47336E+03  7.54571E+02 -5.35422E+03
  5.83928E+03 -4.72599E+03  9.24181E+03  7.35740E+01  9.60180E+03  7.57136E+03  3.25959E+03  1.43841E+04
 -6.78865E+03  1.64723E+04 -1.52234E+04  9.55422E+03 -1.74104E+04 -1.29274E+03 -1.29701E+04 -1.05161E+04
 -5.28951E+03 -1.49791E+04  3.47181E+03 -1.35412E+04  9.64974E+03 -7.48562E+03  9.82279E+03  3.83431E+02
  4.90694E+03  4.67462E+03 -8.05955E+02  4.10896E+03 -2.54664E+03 -4.77615E+02  1.72997E+02 -3.38203E+03
  4.56235E+03 -2.41108E+03  5.14768E+03  1.76720E+03  3.97777E+03  5.64376E+03  6.25138E+01  7.83926E+03
 -6.80089E+03  6.82772E+03 -1.01760E+04 -2.07338E+01 -9.05370E+03 -7.20580E+03 -2.03679E+03 -1.25943E+04
  7.31163E+03 -9.82427E+03  1.19410E+04 -3.09301E+03  1.13950E+04  3.45158E+03  6.50721E+03  9.12688E+03
  1.20243E+03  1.00928E+04 -4.14860E+03  7.90342E+03 -6.48478E+03  4.00397E+03 -5.33669E+03  7.21490E+02
 -2.75670E+03  6.91344E+01 -2.94989E+03  9.91670E+02 -5.24100E+03  1.33167E+03 -7.48850E+03 -1.08918E+03
 -7.22940E+03 -5.05271E+03 -2.25321E+03 -9.85697E+03  4.65515E+03 -9.89221E+03  9.14081E+03 -4.92129E+03
  1.03585E+04  1.52779E+03  5.85605E+03  7.31380E+03 -9.23007E+02  1.05796E+04 -7.81952E+03  6.54764E+03
