 $NMID ID='MM_0lb_SNR800_15hz_g55_84.RAW', FMTDAT='(8E13.5)'
 TRAMP=1., VOLUME=1. $END
  3.09649E+05  5.22086E+02  3.37597E+05  2.50501E+05  8.44688E+04  3.37905E+05 -1.32656E+05  2.51122E+05
 -1.90211E+05  8.30356E+04 -1.11853E+05 -3.24948E+04  8.86802E+02 -5.05321E+04  5.40203E+04 -1.67051E+02
  3.54789E+04  5.27576E+04 -1.66464E+04  7.54417E+04 -6.07191E+04  6.35047E+04 -8.42572E+04  3.19953E+04
 -8.09763E+04 -1.16332E+04 -5.75018E+04 -5.13107E+04 -1.50252E+04 -6.96844E+04  2.74207E+04 -4.55426E+04
  4.01464E+04  3.72328E+03  1.62766E+04  4.73861E+04 -3.43835E+04  4.71187E+04 -6.66137E+04 -4.35714E+02
 -5.36096E+04 -5.67153E+04 -6.88810E+03 -7.71064E+04  3.37060E+04 -5.47779E+04  4.79048E+04 -1.72470E+04
  4.34844E+04  1.12514E+04  3.18728E+04  2.55084E+04  1.57431E+04  2.91423E+04 -5.18493E+03  2.75839E+04
 -2.21867E+04  1.24031E+04 -1.86683E+04 -5.07848E+03  5.62397E+03 -7.65774E+03  2.22952E+04  1.22674E+04
  7.54191E+03  3.54200E+04 -3.20733E+04  3.54147E+04 -6.32913E+04  2.23312E+03 -5.70487E+04 -4.28416E+04
 -1.26292E+04 -6.33489E+04  3.97774E+04 -4.53606E+04  5.81113E+04 -2.26937E+03  3.44225E+04  3.24374E+04
 -6.09765E+03  3.60776E+04 -2.98998E+04  1.60588E+04 -3.04627E+04 -4.74437E+03 -1.67563E+04 -1.09713E+04
 -8.28960E+03 -1.30919E+04 -9.63396E+02 -1.84120E+04  7.81475E+03 -2.31335E+04  1.52636E+04 -1.32158E+04
  1.13177E+04  5.40238E+03 -8.34465E+03  1.29301E+04 -2.11615E+04 -4.40385E+03 -8.09349E+03 -3.35628E+04
  2.28786E+04 -4.34408E+04  4.83186E+04 -1.97621E+04  4.55003E+04  1.94326E+04  1.56196E+04  4.42924E+04
 -1.57546E+04  3.32611E+04 -2.52720E+04  1.85427E+03 -9.80897E+03 -2.78107E+04  2.10164E+04 -3.39168E+04
  4.11636E+04 -8.82327E+03  3.58729E+04  2.36748E+04  1.81688E+04  4.64262E+04 -8.28971E+03  5.06260E+04
 -3.18611E+04  3.37369E+04 -4.19429E+04  9.65843E+03 -4.26441E+04 -1.67908E+04 -2.33384E+04 -3.78056E+04
  7.54981E+03 -3.74948E+04  3.16730E+04 -1.46124E+04  2.91507E+04  1.10127E+04  4.13176E+03  1.90687E+04
 -1.34510E+04  8.05527E+03 -1.03110E+04 -7.41180E+03  5.63670E+03 -1.07211E+04  1.79371E+04  6.26676E+03
  1.32401E+04  2.20552E+04 -6.26631E+03  2.48102E+04 -2.24806E+04  1.17311E+04 -2.80218E+04 -4.66781E+03
 -2.04416E+04 -1.71264E+04 -8.42502E+03 -2.05115E+04  4.12948E+03 -1.98339E+04  1.54018E+04 -1.81489E+04
  2.61676E+04 -1.27867E+04  3.23818E+04  2.57346E+03  2.36772E+04  1.94726E+04  4.30337E+03  3.60248E+04
 -1.77799E+04  3.03618E+04 -2.78725E+04  1.04497E+04 -2.03331E+04 -1.04120E+04 -4.33067E+03 -1.36959E+04
  1.72837E+03 -2.83795E+03 -4.85319E+03  6.28636E+03 -1.61065E+04  5.38484E+03 -1.64142E+04 -6.83325E+03
 -1.02048E+04 -1.90853E+04  5.25896E+03 -2.30151E+04  1.52193E+04 -1.65745E+04  1.80665E+04 -1.67365E+03
  1.13139E+04  1.31030E+04 -1.01379E+03  1.86491E+04 -1.29266E+04  1.06829E+04 -1.90446E+04 -4.16149E+03
 -1.38555E+04 -1.69860E+04 -1.51243E+03 -2.28923E+04  1.01363E+04 -1.85924E+04  1.88938E+04 -9.41465E+03
  1.76464E+04  4.65156E+02  1.26996E+04  4.25769E+03  6.59225E+03  8.36968E+02  9.64723E+03 -1.39128E+03
  1.72790E+04  2.71825E+03  1.88755E+04  1.49047E+04  1.24030E+04  3.01364E+04 -2.86772E+03  3.37975E+04
 -1.96668E+04  2.68909E+04 -3.17900E+04  1.34516E+04 -3.28987E+04 -2.40635E+03 -2.72641E+04 -1.87569E+04
 -1.18822E+04 -2.71188E+04  9.72220E+03 -2.42525E+04  2.08062E+04 -1.27234E+04  1.93288E+04  5.55055E+03
  7.13839E+03  1.40816E+04 -8.91247E+03  1.26000E+04 -1.59963E+04  2.51445E+03 -1.23820E+04 -9.74575E+03
 -8.69531E+01 -1.51480E+04  7.79787E+03 -1.12803E+04  9.94821E+03 -1.23403E+03  2.25399E+03  6.39544E+03
 -6.85690E+03  2.47511E+03 -5.66178E+03 -5.57422E+03 -6.91967E+02 -1.31664E+04  9.63937E+03 -1.37278E+04
  1.61449E+04 -7.25445E+03  1.76293E+04  3.12411E+03  1.51318E+04  1.32049E+04  6.97551E+03  1.96411E+04
 -3.29572E+03  2.18590E+04 -1.34817E+04  1.36064E+04 -1.54798E+04  3.34853E+03 -1.10782E+04 -3.36135E+03
 -5.08519E+03 -4.85449E+03 -8.28702E+02  1.46765E+03 -2.48675E+03  2.65776E+03 -5.50006E+03  4.26748E+03
 -1.01500E+04 -6.91444E+02 -1.09995E+04 -8.89924E+03 -4.20209E+03 -1.45414E+04  4.45387E+03 -1.10127E+04
  9.35872E+03 -4.36298E+03  6.40947E+03  2.91800E+03  8.29422E+01  4.43936E+03 -4.90846E+03 -2.27839E+02
 -4.91096E+03 -6.86591E+03 -1.07636E+03 -1.02194E+04  5.79170E+03 -1.09504E+04  1.35236E+04 -5.51240E+03
  1.57421E+04  1.42955E+03  1.15302E+04  9.03545E+03  2.16263E+03  1.26052E+04 -6.71704E+03  1.09476E+04
 -9.03057E+03  3.66421E+03 -4.97051E+03 -2.06665E+03  1.93554E+03 -2.45908E+03  6.00698E+03 -8.46438E+02
  5.33745E+03  4.76671E+03  8.79718E+02  8.37296E+03 -6.11921E+03  8.40871E+03 -1.03524E+04  2.24213E+03
 -7.05180E+03 -5.27244E+03  9.52085E+01 -9.06331E+03  5.26269E+03 -4.60138E+03  5.81241E+03  1.76590E+03
  8.09548E+02  5.55950E+03 -5.48291E+03  7.06070E+03 -7.87602E+03  3.37523E+03 -7.76541E+03 -2.39998E+03
 -4.52784E+03 -9.55680E+03  1.93294E+03 -1.04608E+04  9.09887E+03 -6.90523E+03  1.01899E+04  1.47192E+03
  6.43346E+03  8.00167E+03 -5.56098E+02  1.00308E+04 -6.67796E+03  5.63485E+03 -7.68043E+03 -6.45299E+02
 -7.51233E+03 -6.74872E+03 -1.55778E+03 -7.49188E+03  3.84720E+03 -6.83936E+03  4.53166E+03 -3.12411E+03
  3.53092E+03  6.96150E+02 -3.04362E+02  1.40207E+03 -1.96854E+02 -1.42589E+03  9.72135E+02 -3.70760E+03
  6.21011E+03 -2.08397E+03  8.63129E+03  9.93346E+02  9.10021E+03  5.81942E+03  6.84263E+03  1.15125E+04
 -2.43978E+03  1.31760E+04 -1.17447E+04  1.01440E+04 -1.46372E+04  1.61093E+03 -1.17694E+04 -4.50783E+03
 -5.92789E+03 -1.00542E+04 -4.30221E+02 -8.26271E+03  3.28337E+03 -3.90622E+03  2.86327E+03 -3.33671E+03
  1.99908E+03 -1.95914E+03  2.69918E+03 -2.89899E+03  4.13482E+03 -2.13266E+03  4.99954E+03 -5.30925E+02
  6.75121E+03  1.38775E+03  2.49786E+03  5.33226E+03 -1.87834E+03  5.45127E+03 -6.56242E+03  4.22238E+03
 -7.76514E+03 -1.13525E+03 -4.14843E+03 -5.77622E+03 -1.26043E+02 -8.38520E+03  4.71316E+03 -8.50870E+03
  8.43039E+03 -4.93732E+03  1.04342E+04  1.02928E+03  7.55467E+03  6.87133E+03  1.37454E+03  9.46030E+03
 -3.90196E+03  8.40908E+03 -5.25745E+03  2.83135E+03 -3.72095E+03 -1.31069E+03 -1.64487E+03 -1.04790E+03
 -6.03669E+02  2.47949E+02 -1.42407E+03  2.38474E+03 -3.61413E+03  1.55472E+03 -5.72406E+03 -9.24753E+02
 -3.30120E+03 -5.99671E+03  4.31837E+02 -7.58628E+03  4.26627E+03 -6.88681E+03  6.93006E+03 -2.01066E+03
  7.26760E+03  3.70226E+03  3.24027E+03  6.38956E+03 -1.12726E+03  7.44525E+03 -4.81119E+03  4.52546E+03
 -6.61458E+03  6.72011E+02 -5.21697E+03 -4.12163E+03 -5.31540E+02 -5.71484E+03  3.00402E+03 -4.25744E+03
  4.58181E+03 -1.71728E+03  3.19371E+03  1.35543E+03  1.09423E+03  2.46698E+03  6.20500E+02  7.98371E+02
  2.01936E+03  3.87845E+02  1.97208E+03  1.22683E+03  2.05206E+03  2.82647E+03  2.00497E+03  3.38144E+03
 -1.72071E+03  5.33162E+03 -4.39549E+03  6.03380E+03 -6.50820E+03  1.53590E+03 -7.12675E+03 -2.24264E+03
 -3.06349E+03 -6.48005E+03  1.21107E+03 -7.89054E+03  3.74316E+03 -4.34130E+03  5.53267E+03 -1.42719E+03
  4.38201E+03  2.94927E+03  9.91598E+02  4.05236E+03 -1.51906E+03  2.25009E+03 -2.52177E+03 -6.25457E+02
 -9.26232E+02 -2.74095E+03  2.03971E+03 -2.95914E+03  2.55573E+03 -1.36422E+03  2.41365E+03  6.14308E+02
  1.33144E+03  1.01639E+03  8.36156E+02  5.16151E+02 -4.67174E+02  1.20380E+03  1.48228E+03 -2.33256E+02
  9.29055E+02 -3.16045E+02  2.83325E+03  1.15902E+03  9.32536E+02  3.97643E+03 -3.93528E+02  4.82426E+03
 -3.06218E+03  2.49416E+03 -4.14409E+03  8.17032E+02 -3.92601E+03 -1.57294E+03 -9.38978E+02 -2.06833E+03
  3.91156E+02 -2.54680E+03  1.70200E+03 -1.32949E+03  1.50253E+03  1.35603E+03 -9.09268E+02  2.13364E+03
 -2.40449E+03  1.56652E+03 -2.64852E+03 -1.56427E+03 -1.62647E+03 -3.51474E+03  1.74201E+02 -3.39269E+03
  1.65914E+03 -1.57759E+03  1.68761E+03 -1.08382E+02  2.26199E+03  6.01058E+02  4.59821E+02  1.65544E+03
 -7.69414E+02  3.18176E+01 -1.56286E+03 -5.86920E+02  7.56036E+02 -2.14186E+03  3.18203E+03 -1.73152E+03
  3.29838E+03  3.17413E+02  4.44890E+03  2.11476E+03  1.53726E+03  3.48457E+03 -8.37766E+02  3.54982E+03
 -2.91140E+03  1.09077E+03 -3.25243E+03 -3.67728E+02 -1.46831E+03 -2.76570E+03  4.64882E+02 -1.90128E+03
  2.46151E+03 -1.24001E+03  1.63386E+03  8.25855E+02  9.22517E+02  2.33125E+03 -1.62515E+02  1.99704E+03
 -7.88867E+02  1.50527E+03 -8.79670E+02  4.45625E+02 -4.02250E+02  6.60814E+02 -9.73486E+02  8.65114E+02
 -1.10843E+03  1.50443E+03 -2.61030E+03  1.28498E+03 -3.46197E+03  4.55555E+02 -4.10182E+03 -2.17742E+03
 -1.87458E+03 -4.67359E+03  1.03828E+03 -5.35038E+03  2.88491E+03 -4.46456E+03  4.96546E+03 -1.83466E+03
  5.09843E+03  5.27399E+02  2.34906E+03  3.21764E+03 -5.42456E+02  3.32799E+03 -1.29555E+03  2.34934E+03
 -1.98189E+03  1.08853E+03 -1.14799E+03 -3.74670E+02 -7.13318E+02  1.81992E+01 -5.47238E+02 -6.41877E+01
 -1.56877E+03 -1.01963E+01 -1.25521E+03 -4.04413E+02 -2.95370E+02 -7.11096E+02 -6.14198E+01 -1.30241E+03
  1.76226E+03 -1.25772E+03  1.37642E+03  2.68957E+02  2.34672E+03  1.86506E+03  1.87101E+02  3.09834E+03
 -1.88786E+03  4.17734E+03 -3.63729E+03  2.57061E+03 -3.65541E+03 -2.81057E+02 -2.78852E+03 -2.52524E+03
 -1.47647E+03 -3.11162E+03  6.80762E+02 -2.67823E+03  1.86587E+03 -1.53667E+03  1.87892E+03 -1.22306E+02
  1.16923E+03  1.05672E+03 -1.60816E+01  9.51257E+02 -5.07374E+02 -1.34157E+02  1.53401E+02 -5.05717E+02
  7.99198E+02 -1.48314E+02  1.03713E+03  4.79377E+02  7.14462E+02  1.39163E+03  1.26976E+02  1.26120E+03
 -1.33873E+03  1.69139E+03 -1.71556E+03  4.21950E+02 -1.95454E+03 -1.37143E+03 -6.53593E+01 -2.53188E+03
  1.34092E+03 -1.82611E+03  1.56539E+03 -5.90632E+02  2.08604E+03 -3.57315E+02  1.14361E+03  2.11118E+03
  6.84937E+02  1.62109E+03 -5.47905E+02  1.66417E+03 -1.32296E+03  1.19826E+03 -1.04628E+03  4.05955E+01
 -9.44698E+02 -2.27899E+02 -7.32721E+02  2.10225E+02 -1.09816E+03  5.22059E+02 -1.28259E+03 -5.10009E+02
 -2.00209E+03 -2.59837E+02 -6.26882E+02 -1.98805E+03  1.05197E+03 -2.47496E+03  1.37329E+03 -9.82876E+02
  1.64196E+03  5.19030E+02  2.58643E+02  1.06362E+03 -2.30703E+02  2.06233E+03 -1.42905E+03  1.57912E+03
