 $NMID ID='MM_0lb_SNR800_15hz_g50_22.RAW', FMTDAT='(8E13.5)'
 TRAMP=1., VOLUME=1. $END
  3.09899E+05  1.01480E+02  3.37614E+05  2.50465E+05  8.47959E+04  3.37704E+05 -1.32635E+05  2.50551E+05
 -1.90200E+05  8.30043E+04 -1.11331E+05 -3.27813E+04  1.14700E+03 -5.05233E+04  5.39570E+04  4.33639E+02
  3.52199E+04  5.29864E+04 -1.71168E+04  7.54726E+04 -6.06185E+04  6.33786E+04 -8.42429E+04  3.19794E+04
 -8.09147E+04 -1.17651E+04 -5.70365E+04 -5.14951E+04 -1.51217E+04 -6.95491E+04  2.69283E+04 -4.54662E+04
  3.98690E+04  3.71259E+03  1.59790E+04  4.76481E+04 -3.43454E+04  4.72256E+04 -6.63971E+04  9.12219E+00
 -5.29587E+04 -5.67165E+04 -6.80811E+03 -7.66645E+04  3.39719E+04 -5.49215E+04  4.76497E+04 -1.70126E+04
  4.29418E+04  1.14160E+04  3.18908E+04  2.51328E+04  1.58754E+04  2.95319E+04 -5.15210E+03  2.73799E+04
 -2.20389E+04  1.26764E+04 -1.89809E+04 -4.83090E+03  5.21228E+03 -7.36412E+03  2.22348E+04  1.21874E+04
  7.36690E+03  3.51967E+04 -3.18557E+04  3.53467E+04 -6.30036E+04  2.18003E+03 -5.69995E+04 -4.21906E+04
 -1.19341E+04 -6.28875E+04  3.95707E+04 -4.49963E+04  5.78502E+04 -2.28200E+03  3.39344E+04  3.22049E+04
 -5.68155E+03  3.53810E+04 -2.94092E+04  1.56045E+04 -2.97088E+04 -5.00234E+03 -1.62599E+04 -1.07995E+04
 -8.16332E+03 -1.28666E+04 -8.97177E+02 -1.75626E+04  7.41358E+03 -2.30932E+04  1.55067E+04 -1.32313E+04
  1.12411E+04  4.91728E+03 -7.70120E+03  1.29100E+04 -2.07708E+04 -3.97751E+03 -8.40225E+03 -3.31095E+04
  2.23333E+04 -4.28320E+04  4.76217E+04 -1.96072E+04  4.46178E+04  1.95429E+04  1.56523E+04  4.35941E+04
 -1.57359E+04  3.32076E+04 -2.50583E+04  1.40159E+03 -9.27877E+03 -2.79703E+04  2.13834E+04 -3.34712E+04
  4.05436E+04 -8.56584E+03  3.48495E+04  2.37217E+04  1.77304E+04  4.55446E+04 -7.92899E+03  4.95474E+04
 -3.12652E+04  3.28867E+04 -4.12634E+04  9.42923E+03 -4.15015E+04 -1.63874E+04 -2.29454E+04 -3.70870E+04
  7.45440E+03 -3.68061E+04  3.09337E+04 -1.43115E+04  2.87010E+04  1.10748E+04  3.64654E+03  1.85737E+04
 -1.33039E+04  8.19476E+03 -1.02085E+04 -7.57894E+03  5.62456E+03 -1.07467E+04  1.80560E+04  6.04578E+03
  1.33386E+04  2.16618E+04 -6.48678E+03  2.47080E+04 -2.20316E+04  1.12450E+04 -2.75653E+04 -4.78089E+03
 -1.98926E+04 -1.70709E+04 -7.96020E+03 -1.95870E+04  4.00856E+03 -1.87241E+04  1.53049E+04 -1.76558E+04
  2.51155E+04 -1.23976E+04  3.19362E+04  2.42438E+03  2.34233E+04  1.94544E+04  3.90586E+03  3.59384E+04
 -1.73571E+04  2.97054E+04 -2.72859E+04  1.05495E+04 -2.05154E+04 -1.03788E+04 -4.30162E+03 -1.37680E+04
  2.18124E+03 -3.39306E+03 -4.05886E+03  6.36054E+03 -1.56287E+04  4.95986E+03 -1.57234E+04 -6.56627E+03
 -9.84252E+03 -1.83956E+04  5.03911E+03 -2.22401E+04  1.47189E+04 -1.56980E+04  1.73622E+04 -1.49882E+03
  1.10199E+04  1.29574E+04 -1.00846E+03  1.83924E+04 -1.22202E+04  1.04554E+04 -1.85915E+04 -4.10756E+03
 -1.34971E+04 -1.66664E+04 -1.72458E+03 -2.21733E+04  9.99340E+03 -1.80114E+04  1.88212E+04 -8.96366E+03
  1.70684E+04  5.57659E+02  1.23824E+04  4.19975E+03  6.50732E+03  1.04027E+03  9.56959E+03 -1.34625E+03
  1.67724E+04  2.78551E+03  1.82653E+04  1.45956E+04  1.21059E+04  2.94263E+04 -2.69274E+03  3.27998E+04
 -1.89060E+04  2.57863E+04 -3.04083E+04  1.28349E+04 -3.19018E+04 -2.35362E+03 -2.62699E+04 -1.83147E+04
 -1.16360E+04 -2.62912E+04  8.74794E+03 -2.34547E+04  2.05948E+04 -1.22248E+04  1.84458E+04  5.14263E+03
  6.95034E+03  1.38485E+04 -8.81523E+03  1.20085E+04 -1.57966E+04  2.69721E+03 -1.19944E+04 -9.81269E+03
 -8.56074E+01 -1.45566E+04  7.64550E+03 -1.09006E+04  9.53425E+03 -1.10052E+03  2.32662E+03  6.18549E+03
 -6.65565E+03  2.19610E+03 -5.98262E+03 -5.57953E+03 -1.43730E+02 -1.29543E+04  8.94528E+03 -1.32881E+04
  1.59818E+04 -7.14964E+03  1.62865E+04  3.09108E+03  1.48192E+04  1.21860E+04  6.35863E+03  1.90820E+04
 -2.92598E+03  2.08144E+04 -1.29505E+04  1.29863E+04 -1.50161E+04  3.38735E+03 -1.05313E+04 -2.91501E+03
 -5.43208E+03 -4.88145E+03 -6.03611E+02  9.17407E+02 -2.24354E+03  2.61967E+03 -4.92710E+03  4.11289E+03
 -1.00328E+04 -6.22667E+02 -1.06073E+04 -8.63892E+03 -4.44837E+03 -1.41758E+04  4.39865E+03 -1.06419E+04
  9.10425E+03 -4.70479E+03  6.82715E+03  2.77793E+03  4.09440E+02  4.30457E+03 -4.78113E+03 -8.07422E+01
 -4.67317E+03 -6.84592E+03 -6.37575E+02 -9.64438E+03  5.50388E+03 -1.02660E+04  1.30125E+04 -5.71640E+03
  1.53568E+04  1.23520E+03  1.14566E+04  8.91276E+03  2.27509E+03  1.18778E+04 -6.65837E+03  1.04798E+04
 -8.69685E+03  3.33096E+03 -4.48319E+03 -1.41305E+03  1.40337E+03 -2.77924E+03  6.11510E+03 -9.76597E+02
  4.97501E+03  4.23776E+03  8.03177E+02  8.06752E+03 -6.08631E+03  7.90446E+03 -1.03733E+04  2.02013E+03
 -6.92920E+03 -4.89672E+03  4.20024E+02 -8.69047E+03  5.26099E+03 -4.36254E+03  5.12685E+03  1.77189E+03
  9.20336E+02  5.32768E+03 -5.22741E+03  6.92584E+03 -7.31815E+03  3.22545E+03 -7.33826E+03 -2.28230E+03
 -4.10037E+03 -9.06457E+03  1.98445E+03 -1.05992E+04  9.09206E+03 -6.55266E+03  9.47768E+03  1.60174E+03
  6.00155E+03  7.51911E+03 -4.58223E+02  9.74725E+03 -6.92159E+03  5.14982E+03 -7.20411E+03 -3.72711E+02
 -7.21342E+03 -6.49398E+03 -1.51583E+03 -7.17015E+03  3.55132E+03 -6.19723E+03  4.33460E+03 -2.89662E+03
  3.65082E+03  9.23859E+02 -5.04210E+02  1.65935E+03 -8.48339E+01 -1.00357E+03  1.01942E+03 -3.65396E+03
  6.18982E+03 -1.76411E+03  8.54501E+03  6.97663E+02  8.83907E+03  5.49105E+03  6.50405E+03  1.13898E+04
 -2.35338E+03  1.29765E+04 -1.10589E+04  9.59011E+03 -1.43760E+04  1.79455E+03 -1.15259E+04 -4.53469E+03
 -5.77353E+03 -9.67385E+03 -5.24880E+02 -7.59019E+03  2.86549E+03 -3.80459E+03  2.63692E+03 -3.37345E+03
  2.03078E+03 -1.91864E+03  2.82673E+03 -2.68764E+03  4.43999E+03 -2.09240E+03  4.88855E+03 -1.78921E+02
  6.14490E+03  1.78152E+03  2.50045E+03  5.28258E+03 -1.63615E+03  5.30724E+03 -6.54604E+03  4.41444E+03
 -7.56766E+03 -1.18548E+03 -3.75950E+03 -5.20230E+03  3.69274E+01 -7.93816E+03  4.70117E+03 -8.37450E+03
  8.18942E+03 -4.85723E+03  1.02978E+04  1.00908E+03  6.94029E+03  6.93583E+03  1.08282E+03  9.43481E+03
 -3.72935E+03  8.08247E+03 -5.23474E+03  2.88280E+03 -3.33291E+03 -1.25455E+03 -1.51619E+03 -9.82687E+02
 -7.20706E+02 -2.82033E+01 -1.42608E+03  2.26375E+03 -3.92017E+03  1.47978E+03 -5.92125E+03 -9.39327E+02
 -3.06912E+03 -5.76779E+03  7.13621E+02 -7.44263E+03  4.44593E+03 -6.79563E+03  6.43532E+03 -1.94038E+03
  7.16003E+03  3.43788E+03  2.99737E+03  5.85233E+03 -1.24594E+03  7.16478E+03 -4.53116E+03  4.59372E+03
 -6.50139E+03  5.48632E+02 -4.87531E+03 -4.17224E+03 -5.29373E+02 -5.32894E+03  3.01751E+03 -4.27241E+03
  4.35626E+03 -1.51194E+03  2.89758E+03  9.49388E+02  1.17719E+03  2.25509E+03  1.00604E+03  9.17827E+02
  1.80138E+03  6.94345E+02  1.76918E+03  1.21400E+03  1.64323E+03  2.60174E+03  2.14809E+03  2.93320E+03
 -1.86643E+03  5.14165E+03 -4.21743E+03  6.04892E+03 -6.11531E+03  1.76297E+03 -6.89859E+03 -2.08655E+03
 -2.97435E+03 -6.35487E+03  1.10392E+03 -7.50044E+03  3.52520E+03 -4.67378E+03  5.28303E+03 -1.73524E+03
  4.04829E+03  2.75431E+03  7.75371E+02  3.94730E+03 -1.39317E+03  2.22666E+03 -2.12302E+03 -4.45577E+02
 -1.03583E+03 -2.80512E+03  1.72929E+03 -2.30084E+03  2.28879E+03 -1.60657E+03  2.42974E+03  7.19530E+02
  1.23270E+03  8.41253E+02  8.53715E+02  3.95689E+02 -4.59728E+02  1.11887E+03  1.62325E+03 -3.27554E+02
  4.74427E+02 -4.01931E+02  2.48492E+03  1.06773E+03  9.98938E+02  3.89049E+03 -4.53825E+02  4.68314E+03
 -3.04466E+03  2.51678E+03 -4.01609E+03  7.05651E+02 -4.07535E+03 -1.44448E+03 -9.38863E+02 -2.06339E+03
  5.11039E+02 -2.31938E+03  1.57703E+03 -1.27441E+03  1.27050E+03  1.61909E+03 -9.95357E+02  2.00805E+03
 -2.56862E+03  1.30684E+03 -2.57927E+03 -2.09498E+03 -1.48980E+03 -3.69269E+03  2.09636E+02 -2.86783E+03
  1.41715E+03 -1.68696E+03  2.11182E+03  1.17282E+02  2.05880E+03  3.84075E+02  7.23850E+02  1.95167E+03
 -1.10704E+03  4.64753E+02 -1.53954E+03 -5.97680E+02  1.02584E+03 -1.61620E+03  2.91880E+03 -1.60168E+03
  3.21841E+03  5.69965E+02  4.25719E+03  2.07984E+03  1.38638E+03  3.55852E+03 -9.27871E+02  3.45459E+03
 -2.77417E+03  1.29261E+03 -2.94596E+03 -1.82689E+02 -1.51928E+03 -2.31482E+03  9.37548E+02 -1.86930E+03
  2.65506E+03 -1.22176E+03  1.36032E+03  8.63561E+02  3.98285E+02  2.15913E+03 -3.35756E+01  1.65625E+03
 -8.49033E+02  1.66494E+03 -7.88944E+02  5.87619E+02 -1.34737E+02  9.43525E+02 -9.62660E+02  8.02495E+02
 -9.12803E+02  1.44656E+03 -2.82913E+03  1.06275E+03 -3.45581E+03  2.59316E+02 -4.24746E+03 -1.85672E+03
 -2.10508E+03 -4.87623E+03  9.35291E+02 -5.58859E+03  2.86884E+03 -4.34140E+03  5.18781E+03 -1.66502E+03
  4.72534E+03  6.65724E+02  2.42824E+03  3.18879E+03 -3.19461E+02  3.16037E+03 -9.94723E+02  2.51427E+03
 -1.89084E+03  1.16438E+03 -1.35041E+03 -3.31292E+02 -5.77655E+02 -4.57798E+01 -5.70998E+02 -3.32071E+01
 -1.14772E+03  2.49506E+02 -9.71948E+02  2.60920E+01  2.02637E+02 -8.33141E+02 -4.04410E+02 -1.42235E+03
  2.11931E+03 -1.37772E+03  1.39189E+03  1.28658E+02  2.64051E+03  2.02282E+03  4.10565E+01  3.38212E+03
 -1.65799E+03  3.95230E+03 -3.36812E+03  2.58284E+03 -3.72326E+03 -5.52943E+02 -2.68986E+03 -2.34317E+03
 -1.33388E+03 -3.19536E+03  8.99641E+02 -2.59341E+03  1.78562E+03 -1.60759E+03  2.12647E+03  9.65912E+01
  1.01962E+03  1.04281E+03 -1.32833E+02  1.06550E+03 -6.38802E+02 -1.96260E+02 -8.10351E+01 -7.79318E+02
  7.46567E+02  8.86475E+01  1.15612E+03  5.52243E+02  6.02029E+02  1.45184E+03  2.95787E+02  1.32496E+03
 -1.49266E+03  1.45613E+03 -1.80240E+03  2.46985E+02 -1.75415E+03 -1.25419E+03 -6.32368E+01 -2.82163E+03
  1.26733E+03 -1.82941E+03  2.05121E+03  1.04915E+01  2.44322E+03 -4.10507E+02  6.00261E+02  1.44910E+03
  5.31787E+02  1.49635E+03 -9.91313E+02  1.58110E+03 -1.49226E+03  1.10644E+03 -7.70359E+02  1.92711E+02
 -6.38003E+02 -3.16662E+02 -6.22517E+02  1.42484E+02 -1.10651E+03 -1.18835E+02 -1.56204E+03 -3.57698E+02
 -1.86779E+03 -5.33641E+02 -3.21734E+02 -1.94669E+03  1.07767E+03 -2.55069E+03  1.64115E+03 -9.05301E+02
  1.68480E+03  2.70753E+02  4.80246E+02  1.04031E+03 -8.25574E+01  1.84047E+03 -1.17183E+03  1.32026E+03
