 $NMID ID='MM_0lb_SNR800_15hz_g45_13.RAW', FMTDAT='(8E13.5)'
 TRAMP=1., VOLUME=1. $END
  3.09827E+05  5.66223E+02  3.37376E+05  2.50539E+05  8.47553E+04  3.37536E+05 -1.32756E+05  2.50829E+05
 -1.89904E+05  8.29377E+04 -1.11659E+05 -3.27002E+04  1.14625E+03 -5.07307E+04  5.39069E+04 -2.08448E+01
  3.50484E+04  5.27928E+04 -1.68573E+04  7.54806E+04 -6.05341E+04  6.32592E+04 -8.37954E+04  3.17627E+04
 -8.06960E+04 -1.14012E+04 -5.68025E+04 -5.12121E+04 -1.49279E+04 -6.89995E+04  2.74179E+04 -4.53284E+04
  3.99769E+04  3.97048E+03  1.60392E+04  4.73949E+04 -3.42822E+04  4.69029E+04 -6.62200E+04 -6.04253E+01
 -5.28052E+04 -5.59431E+04 -6.23547E+03 -7.67857E+04  3.36146E+04 -5.43387E+04  4.72470E+04 -1.67985E+04
  4.29717E+04  1.14075E+04  3.10777E+04  2.49913E+04  1.57454E+04  2.89234E+04 -5.02407E+03  2.69858E+04
 -2.19497E+04  1.23776E+04 -1.87630E+04 -4.77119E+03  5.14345E+03 -7.54204E+03  2.19711E+04  1.18639E+04
  7.41442E+03  3.46479E+04 -3.15446E+04  3.49429E+04 -6.27036E+04  2.34094E+03 -5.63077E+04 -4.23895E+04
 -1.24891E+04 -6.24014E+04  3.93393E+04 -4.50521E+04  5.70246E+04 -2.07793E+03  3.34069E+04  3.19216E+04
 -6.39944E+03  3.51348E+04 -2.91979E+04  1.48868E+04 -2.89930E+04 -4.53127E+03 -1.56896E+04 -1.06548E+04
 -7.88866E+03 -1.26094E+04 -6.47986E+02 -1.78713E+04  7.13799E+03 -2.26651E+04  1.52955E+04 -1.31532E+04
  1.17311E+04  4.49293E+03 -7.52971E+03  1.32630E+04 -2.09197E+04 -4.03525E+03 -8.23912E+03 -3.28112E+04
  2.19950E+04 -4.25847E+04  4.69498E+04 -1.93203E+04  4.42345E+04  1.89115E+04  1.52157E+04  4.32905E+04
 -1.55399E+04  3.25445E+04 -2.46829E+04  1.48179E+03 -9.34081E+03 -2.74626E+04  2.09751E+04 -3.29405E+04
  3.99670E+04 -8.35652E+03  3.44840E+04  2.34717E+04  1.71676E+04  4.51445E+04 -8.20901E+03  4.86739E+04
 -3.04417E+04  3.23881E+04 -4.03909E+04  9.11006E+03 -4.12165E+04 -1.60304E+04 -2.27529E+04 -3.69414E+04
  7.26563E+03 -3.65725E+04  3.10886E+04 -1.40772E+04  2.84257E+04  1.10548E+04  3.71659E+03  1.86651E+04
 -1.35344E+04  8.05749E+03 -1.00596E+04 -7.61131E+03  5.88789E+03 -1.08349E+04  1.74595E+04  6.41560E+03
  1.29868E+04  2.18560E+04 -6.28387E+03  2.43467E+04 -2.14322E+04  1.07820E+04 -2.71404E+04 -5.12262E+03
 -1.91511E+04 -1.70226E+04 -7.46083E+03 -1.94725E+04  3.94670E+03 -1.79388E+04  1.49503E+04 -1.70590E+04
  2.44476E+04 -1.28053E+04  3.11155E+04  2.30614E+03  2.30352E+04  1.86068E+04  4.23356E+03  3.50492E+04
 -1.75225E+04  2.93997E+04 -2.74426E+04  1.00265E+04 -2.07108E+04 -1.04393E+04 -4.27410E+03 -1.37027E+04
  2.21903E+03 -2.90289E+03 -4.21171E+03  6.35458E+03 -1.51724E+04  5.03669E+03 -1.56091E+04 -6.33685E+03
 -9.48288E+03 -1.75798E+04  4.78636E+03 -2.20368E+04  1.44807E+04 -1.56796E+04  1.70642E+04 -1.60446E+03
  1.02701E+04  1.25040E+04 -1.10610E+03  1.80825E+04 -1.21754E+04  1.01800E+04 -1.78671E+04 -4.08943E+03
 -1.32990E+04 -1.63167E+04 -2.04584E+03 -2.15967E+04  9.84566E+03 -1.76682E+04  1.81915E+04 -8.85083E+03
  1.66208E+04  4.09326E+02  1.19550E+04  4.15991E+03  6.24574E+03  8.08878E+02  8.82526E+03 -1.74692E+03
  1.62004E+04  2.62325E+03  1.80380E+04  1.42706E+04  1.16920E+04  2.84131E+04 -2.98584E+03  3.16565E+04
 -1.85134E+04  2.50304E+04 -2.96139E+04  1.24140E+04 -3.06426E+04 -2.23427E+03 -2.58114E+04 -1.75270E+04
 -1.13062E+04 -2.55447E+04  8.95941E+03 -2.30355E+04  1.97708E+04 -1.19036E+04  1.81205E+04  4.70690E+03
  7.05407E+03  1.32255E+04 -8.24411E+03  1.20860E+04 -1.54673E+04  2.48976E+03 -1.16662E+04 -9.22542E+03
  1.31382E+02 -1.44188E+04  7.62191E+03 -1.07786E+04  9.33959E+03 -1.26801E+03  2.22857E+03  6.22821E+03
 -6.54095E+03  2.10591E+03 -5.24799E+03 -5.52569E+03  1.64630E+02 -1.25139E+04  9.06466E+03 -1.29569E+04
  1.53217E+04 -6.57330E+03  1.58716E+04  3.20186E+03  1.39313E+04  1.18817E+04  6.62693E+03  1.82925E+04
 -2.82701E+03  2.01387E+04 -1.26533E+04  1.27082E+04 -1.43798E+04  3.11554E+03 -1.03996E+04 -3.30411E+03
 -5.09511E+03 -4.38369E+03 -6.84746E+02  1.25797E+03 -2.04248E+03  2.40112E+03 -4.86385E+03  3.74377E+03
 -9.78334E+03 -8.13649E+02 -1.03167E+04 -8.30883E+03 -4.20855E+03 -1.37053E+04  4.13471E+03 -1.02923E+04
  8.91966E+03 -4.55150E+03  6.25362E+03  2.68344E+03  2.43504E+02  3.75555E+03 -4.61743E+03 -9.51205E+01
 -4.78043E+03 -6.50285E+03 -9.01961E+02 -9.51060E+03  5.46801E+03 -1.02954E+04  1.24465E+04 -5.40257E+03
  1.48229E+04  8.81981E+02  1.09323E+04  7.92608E+03  2.13314E+03  1.15255E+04 -6.70031E+03  1.01864E+04
 -8.37477E+03  3.19938E+03 -4.47988E+03 -1.54653E+03  1.43460E+03 -2.69985E+03  5.46426E+03 -8.50557E+02
  5.03185E+03  4.04313E+03  1.24557E+03  7.87029E+03 -5.61822E+03  7.76404E+03 -9.75939E+03  2.05839E+03
 -5.97454E+03 -4.96937E+03  4.71651E+01 -8.46754E+03  5.22807E+03 -4.14284E+03  4.73907E+03  1.57052E+03
  1.14110E+03  5.44275E+03 -5.19609E+03  6.60502E+03 -7.13256E+03  2.97026E+03 -7.05959E+03 -2.31016E+03
 -4.42634E+03 -8.55815E+03  2.26956E+03 -9.98579E+03  8.61576E+03 -6.28088E+03  9.25328E+03  1.40831E+03
  5.81790E+03  7.47550E+03 -1.04611E+02  9.48176E+03 -6.54594E+03  5.47497E+03 -7.43316E+03 -5.39183E+02
 -6.84386E+03 -6.52193E+03 -1.13695E+03 -6.81754E+03  3.54895E+03 -5.98868E+03  3.85668E+03 -2.84096E+03
  3.36290E+03  7.16193E+02 -2.64920E+02  1.31710E+03 -1.22988E+02 -9.34149E+02  7.44342E+02 -3.39733E+03
  5.78058E+03 -1.93339E+03  8.01923E+03  9.11085E+02  8.23940E+03  5.16606E+03  6.32571E+03  1.04932E+04
 -2.19500E+03  1.24694E+04 -1.05969E+04  9.09206E+03 -1.39375E+04  1.87883E+03 -1.10439E+04 -3.95984E+03
 -5.92467E+03 -8.86935E+03 -2.98355E+02 -7.54368E+03  2.84317E+03 -3.86609E+03  2.42105E+03 -3.11854E+03
  2.23902E+03 -2.10452E+03  2.76319E+03 -2.65718E+03  4.26321E+03 -1.83580E+03  4.95454E+03 -1.01194E+02
  5.90339E+03  1.40054E+03  2.55929E+03  5.07240E+03 -1.73236E+03  4.61413E+03 -6.27640E+03  4.14245E+03
 -7.18763E+03 -9.31848E+02 -3.60354E+03 -5.10878E+03  3.31278E+02 -7.36082E+03  4.28851E+03 -7.92541E+03
  8.00132E+03 -4.32764E+03  9.81687E+03  7.42518E+02  7.03807E+03  6.37463E+03  1.35906E+03  8.85317E+03
 -3.21238E+03  7.79811E+03 -5.15720E+03  2.67785E+03 -2.98934E+03 -1.37447E+03 -9.66699E+02 -1.09793E+03
 -9.38121E+02  4.58688E+02 -1.46165E+03  2.18215E+03 -3.13442E+03  1.52653E+03 -5.48863E+03 -6.84098E+02
 -3.13994E+03 -5.23462E+03  5.67077E+02 -6.96519E+03  4.33921E+03 -6.84384E+03  6.30377E+03 -1.76245E+03
  6.48053E+03  3.73537E+03  3.06777E+03  5.68877E+03 -1.24005E+03  6.50653E+03 -4.27161E+03  4.07065E+03
 -6.01271E+03  6.90864E+02 -5.10812E+03 -4.26491E+03 -4.06498E+02 -5.42493E+03  2.69887E+03 -3.84940E+03
  4.02424E+03 -1.68483E+03  2.90604E+03  8.14245E+02  9.49889E+02  2.11432E+03  1.05657E+03  8.63441E+02
  1.69125E+03  1.08209E+03  1.58138E+03  1.61141E+03  1.86689E+03  2.98296E+03  1.88176E+03  3.26675E+03
 -1.82950E+03  5.00247E+03 -4.02895E+03  5.93554E+03 -5.84471E+03  1.52935E+03 -6.73458E+03 -1.69474E+03
 -2.98887E+03 -6.19371E+03  1.04345E+03 -7.49575E+03  3.50975E+03 -4.16755E+03  5.11698E+03 -1.22055E+03
  4.02702E+03  2.35090E+03  8.96764E+02  3.57554E+03 -1.31169E+03  2.36507E+03 -2.27019E+03 -3.08353E+02
 -1.16352E+03 -2.76742E+03  1.60977E+03 -2.67339E+03  2.38846E+03 -1.53077E+03  2.61783E+03  3.57676E+02
  1.35541E+03  6.17413E+02  1.00993E+03 -1.41038E+02 -4.84697E+02  8.22219E+02  1.71938E+03 -3.00721E+02
  6.53806E+02 -3.48203E+02  2.84773E+03  1.15525E+03  1.03399E+03  3.55185E+03 -6.45424E+02  4.59513E+03
 -2.57579E+03  2.27822E+03 -3.93590E+03  7.86865E+02 -3.58401E+03 -1.61640E+03 -9.23649E+02 -2.07498E+03
  8.14456E+02 -2.35459E+03  1.43313E+03 -1.17661E+03  1.43480E+03  1.90925E+03 -7.26917E+02  2.12051E+03
 -2.56807E+03  1.08533E+03 -2.32527E+03 -1.71064E+03 -1.54486E+03 -3.20375E+03  2.50369E+02 -2.81116E+03
  1.58154E+03 -1.61378E+03  2.02826E+03  9.75378E+01  2.06535E+03  3.20183E+02  4.30471E+02  1.79480E+03
 -8.97547E+02  9.77190E+01 -1.31834E+03 -7.12763E+02  1.04585E+03 -2.09553E+03  2.91757E+03 -1.88088E+03
  3.12146E+03  1.40449E+02  4.45598E+03  1.75220E+03  1.59501E+03  3.15561E+03 -1.02343E+03  3.36798E+03
 -2.96881E+03  9.45865E+02 -2.69612E+03 -1.06752E+02 -1.42094E+03 -2.41895E+03  6.31512E+02 -1.89659E+03
  2.41684E+03 -1.36890E+03  1.56330E+03  1.02998E+03  8.07414E+02  2.15596E+03 -1.37946E+02  2.19904E+03
 -9.09100E+02  1.73389E+03 -6.06105E+02  7.08652E+02 -2.15640E+02  3.16956E+02 -7.63902E+02  8.04215E+02
 -8.73475E+02  1.60419E+03 -2.48994E+03  8.48841E+02 -3.20830E+03  2.57739E+02 -4.43042E+03 -2.12975E+03
 -1.62963E+03 -4.61596E+03  8.57021E+02 -5.30703E+03  2.61837E+03 -4.44708E+03  5.04051E+03 -1.62072E+03
  4.78449E+03  3.97710E+02  2.84751E+03  3.20667E+03 -2.14649E+02  3.15165E+03 -1.47640E+03  2.30863E+03
 -2.09607E+03  1.21944E+03 -1.26156E+03 -4.07837E+02 -5.42039E+02 -1.02620E+02 -8.28218E+02  4.59453E+01
 -1.11610E+03  1.22219E+02 -9.13341E+02  7.18279E+01 -5.81152E+01 -1.22261E+03 -1.45397E+02 -1.78396E+03
  1.58904E+03 -1.18608E+03  1.28808E+03  2.83107E+02  2.21079E+03  1.76344E+03 -5.58217E+00  3.07432E+03
 -1.52658E+03  4.16775E+03 -3.52585E+03  2.22322E+03 -3.96325E+03 -3.73630E+02 -2.79609E+03 -2.71859E+03
 -1.24353E+03 -3.00005E+03  8.23777E+02 -2.75358E+03  1.61158E+03 -1.35270E+03  1.84778E+03  3.30240E+02
  1.30535E+03  7.54302E+02  2.51328E+02  1.02092E+03 -8.81443E+02  2.58115E+01  9.97002E+00 -8.44148E+02
  1.04859E+03 -2.65860E+02  9.55992E+02  8.60276E+02  5.37361E+02  1.11384E+03  5.11040E+02  1.11437E+03
 -1.05670E+03  1.39152E+03 -1.63729E+03  7.63495E+00 -1.97728E+03 -1.33163E+03  1.22305E+01 -2.17016E+03
  1.55503E+03 -1.86244E+03  1.57311E+03 -3.79269E+02  2.18414E+03 -3.87810E+02  1.22993E+03  1.71976E+03
  4.06833E+02  1.59208E+03 -4.36957E+02  1.62094E+03 -1.47164E+03  1.02703E+03 -1.16515E+03  4.16225E+02
 -5.33498E+02 -2.32387E+02 -6.33982E+02  6.13580E+02 -1.19918E+03 -6.06890E+01 -1.43814E+03 -3.49059E+02
 -1.55326E+03 -6.70817E+02 -7.92593E+02 -1.53253E+03  1.06779E+03 -2.57478E+03  1.70733E+03 -9.85842E+02
  1.76550E+03  1.77033E+02  3.83899E+02  8.58615E+02 -1.61687E+02  1.80167E+03 -1.08979E+03  1.29916E+03
