 $NMID ID='MM_0lb_SNR800_16hz_g55_38.RAW', FMTDAT='(8E13.5)'
 TRAMP=1., VOLUME=1. $END
  3.09925E+05  9.00390E+01  3.37514E+05  2.50454E+05  8.45247E+04  3.38033E+05 -1.32690E+05  2.50713E+05
 -1.90094E+05  8.31022E+04 -1.11459E+05 -3.25299E+04  6.13486E+02 -5.04788E+04  5.37638E+04 -2.72883E+02
  3.52845E+04  5.29913E+04 -1.68496E+04  7.54556E+04 -6.06871E+04  6.37233E+04 -8.41273E+04  3.19206E+04
 -8.09439E+04 -1.14522E+04 -5.71312E+04 -5.14196E+04 -1.48715E+04 -6.93961E+04  2.71888E+04 -4.55307E+04
  4.01090E+04  3.84928E+03  1.59413E+04  4.75354E+04 -3.44802E+04  4.70590E+04 -6.62647E+04 -5.65450E+02
 -5.33514E+04 -5.67145E+04 -6.51592E+03 -7.67920E+04  3.38040E+04 -5.47161E+04  4.76892E+04 -1.73379E+04
  4.31146E+04  1.14917E+04  3.17474E+04  2.51060E+04  1.58724E+04  2.93144E+04 -5.15717E+03  2.71547E+04
 -2.19782E+04  1.23791E+04 -1.86388E+04 -4.92865E+03  5.47575E+03 -7.14577E+03  2.21878E+04  1.21575E+04
  7.07990E+03  3.51176E+04 -3.20583E+04  3.52242E+04 -6.30492E+04  2.08261E+03 -5.64559E+04 -4.22224E+04
 -1.23844E+04 -6.26502E+04  3.96313E+04 -4.49831E+04  5.78973E+04 -2.16379E+03  3.36339E+04  3.21566E+04
 -6.27806E+03  3.55059E+04 -2.94586E+04  1.52793E+04 -2.99152E+04 -4.86065E+03 -1.64862E+04 -1.05220E+04
 -8.01875E+03 -1.28371E+04 -7.11057E+02 -1.74511E+04  7.24806E+03 -2.26327E+04  1.53666E+04 -1.32567E+04
  1.15327E+04  4.94557E+03 -7.93679E+03  1.31439E+04 -2.06822E+04 -4.09348E+03 -7.97969E+03 -3.31277E+04
  2.23322E+04 -4.29968E+04  4.74845E+04 -1.92276E+04  4.43966E+04  1.92434E+04  1.53020E+04  4.38122E+04
 -1.57759E+04  3.30072E+04 -2.48892E+04  1.67678E+03 -9.60893E+03 -2.75694E+04  2.07383E+04 -3.33123E+04
  4.00494E+04 -8.69689E+03  3.49701E+04  2.35250E+04  1.75299E+04  4.54856E+04 -8.03984E+03  4.94640E+04
 -3.07034E+04  3.30485E+04 -4.09745E+04  9.26721E+03 -4.15640E+04 -1.60587E+04 -2.31101E+04 -3.73980E+04
  7.23983E+03 -3.71213E+04  3.11302E+04 -1.44363E+04  2.86872E+04  1.09172E+04  3.69209E+03  1.89982E+04
 -1.31703E+04  8.18605E+03 -1.03259E+04 -7.79175E+03  5.78800E+03 -1.04577E+04  1.77307E+04  6.15226E+03
  1.30332E+04  2.21063E+04 -5.95213E+03  2.45372E+04 -2.23943E+04  1.07501E+04 -2.73745E+04 -5.24618E+03
 -1.95833E+04 -1.69000E+04 -7.78069E+03 -1.97920E+04  3.65889E+03 -1.83383E+04  1.50626E+04 -1.74708E+04
  2.49172E+04 -1.25386E+04  3.16369E+04  2.31456E+03  2.32701E+04  1.93046E+04  4.26599E+03  3.55457E+04
 -1.73788E+04  2.94683E+04 -2.78157E+04  1.03720E+04 -2.05536E+04 -1.03662E+04 -4.25432E+03 -1.34393E+04
  1.93170E+03 -3.58778E+03 -4.52861E+03  6.48885E+03 -1.56210E+04  5.00874E+03 -1.54876E+04 -6.49173E+03
 -9.77272E+03 -1.84742E+04  4.94482E+03 -2.21889E+04  1.45149E+04 -1.59766E+04  1.71334E+04 -1.51360E+03
  1.07678E+04  1.26287E+04 -1.25334E+03  1.80485E+04 -1.25072E+04  1.02702E+04 -1.82493E+04 -3.87552E+03
 -1.32129E+04 -1.63941E+04 -1.97716E+03 -2.17994E+04  9.94106E+03 -1.83053E+04  1.81714E+04 -8.96788E+03
  1.68669E+04  6.58499E+02  1.21550E+04  4.18414E+03  6.55420E+03  8.67743E+02  9.07177E+03 -1.84010E+03
  1.63104E+04  2.69085E+03  1.83646E+04  1.42705E+04  1.17683E+04  2.89461E+04 -3.04252E+03  3.19203E+04
 -1.83700E+04  2.54767E+04 -2.98841E+04  1.25894E+04 -3.08146E+04 -2.01573E+03 -2.60970E+04 -1.79691E+04
 -1.14078E+04 -2.53933E+04  8.61126E+03 -2.31276E+04  1.99129E+04 -1.21629E+04  1.81247E+04  5.12027E+03
  7.15041E+03  1.36196E+04 -8.48950E+03  1.19765E+04 -1.51972E+04  2.63641E+03 -1.17976E+04 -9.30302E+03
 -1.26082E+02 -1.42457E+04  7.70753E+03 -1.07662E+04  9.48224E+03 -1.28297E+03  1.85962E+03  6.12323E+03
 -6.77935E+03  2.02284E+03 -5.43875E+03 -5.37912E+03  4.39825E+01 -1.24214E+04  9.11057E+03 -1.27670E+04
  1.55693E+04 -6.60688E+03  1.61246E+04  3.12249E+03  1.38395E+04  1.23210E+04  6.57760E+03  1.82522E+04
 -3.05859E+03  2.02660E+04 -1.25530E+04  1.26511E+04 -1.43405E+04  3.24482E+03 -1.04413E+04 -3.22406E+03
 -5.19531E+03 -4.23485E+03 -1.05655E+03  9.80991E+02 -1.87840E+03  2.31968E+03 -4.74079E+03  4.03365E+03
 -9.67113E+03 -5.65391E+02 -1.04304E+04 -8.39516E+03 -4.39260E+03 -1.37919E+04  4.18904E+03 -1.02875E+04
  8.81489E+03 -4.47791E+03  6.38778E+03  2.83594E+03 -2.73661E+01  3.83863E+03 -4.71133E+03  8.88601E+01
 -4.37237E+03 -6.59276E+03 -9.10045E+02 -9.29772E+03  5.20405E+03 -1.01434E+04  1.25331E+04 -5.34272E+03
  1.48115E+04  1.58618E+03  1.10017E+04  8.34828E+03  1.82539E+03  1.14312E+04 -6.52562E+03  1.00860E+04
 -8.65954E+03  3.28288E+03 -4.20310E+03 -1.80923E+03  1.53368E+03 -2.42194E+03  5.56433E+03 -8.18643E+02
  4.85242E+03  4.46154E+03  9.80522E+02  7.95456E+03 -5.65106E+03  7.84198E+03 -9.76782E+03  2.39168E+03
 -6.37889E+03 -4.91438E+03  2.21533E+02 -8.35998E+03  5.31002E+03 -4.25503E+03  5.30173E+03  1.49976E+03
  6.81560E+02  4.92012E+03 -5.10867E+03  6.26850E+03 -6.66481E+03  3.01046E+03 -6.44215E+03 -2.09457E+03
 -4.26059E+03 -8.25900E+03  1.59019E+03 -9.63362E+03  8.24909E+03 -6.25091E+03  9.02739E+03  1.54436E+03
  5.84521E+03  7.23481E+03 -4.79034E+02  9.11181E+03 -6.36935E+03  5.46019E+03 -7.13423E+03 -6.69280E+02
 -6.92693E+03 -6.58286E+03 -1.62253E+03 -6.80467E+03  3.34323E+03 -6.14647E+03  3.74582E+03 -3.11675E+03
  3.42634E+03  6.61862E+02 -2.40085E+02  1.47425E+03  2.98206E+02 -9.69544E+02  9.37621E+02 -3.16229E+03
  5.67100E+03 -1.75179E+03  7.56648E+03  1.05925E+03  8.01127E+03  5.04750E+03  6.52252E+03  1.03742E+04
 -1.98510E+03  1.19361E+04 -1.04131E+04  8.78080E+03 -1.36251E+04  1.74415E+03 -1.08008E+04 -4.16512E+03
 -5.93357E+03 -8.88613E+03 -7.53693E+02 -7.31077E+03  2.66095E+03 -3.41804E+03  2.54491E+03 -2.66168E+03
  1.87324E+03 -1.93221E+03  2.39829E+03 -2.50092E+03  4.03615E+03 -2.02426E+03  4.63408E+03 -2.50520E+02
  5.89355E+03  1.45273E+03  2.01378E+03  4.48036E+03 -1.50857E+03  4.91856E+03 -5.85113E+03  3.68735E+03
 -7.12710E+03 -1.07659E+03 -3.44683E+03 -4.97404E+03  1.68979E+02 -7.35519E+03  4.26603E+03 -7.58078E+03
  7.39615E+03 -4.30988E+03  9.37624E+03  7.36831E+02  6.89360E+03  5.93618E+03  1.44655E+03  8.45742E+03
 -3.23422E+03  7.53441E+03 -4.83596E+03  2.42194E+03 -2.77175E+03 -1.03667E+03 -9.71858E+02 -1.24568E+03
 -6.39860E+02  3.71881E+02 -1.17106E+03  2.02549E+03 -3.07283E+03  1.48226E+03 -5.11340E+03 -7.02762E+02
 -2.89609E+03 -5.24457E+03  5.82649E+02 -6.63912E+03  3.94502E+03 -6.04561E+03  6.03837E+03 -1.70254E+03
  6.19792E+03  3.37994E+03  2.70243E+03  5.32812E+03 -1.22415E+03  6.55830E+03 -4.14268E+03  3.95788E+03
 -5.72800E+03  5.32208E+02 -4.94891E+03 -3.40875E+03 -1.83692E+02 -4.94084E+03  2.60986E+03 -3.55126E+03
  3.81673E+03 -1.65166E+03  2.53657E+03  8.55678E+02  8.54850E+02  1.95461E+03  8.77876E+02  8.14665E+02
  1.92687E+03  7.51366E+02  1.44881E+03  1.18833E+03  1.90623E+03  3.01003E+03  1.75434E+03  3.09562E+03
 -1.62141E+03  4.75741E+03 -3.74925E+03  5.34028E+03 -5.19981E+03  1.52396E+03 -6.43811E+03 -1.63057E+03
 -2.77485E+03 -5.49328E+03  1.01795E+03 -6.51984E+03  3.20750E+03 -4.00638E+03  4.76133E+03 -1.24428E+03
  3.66650E+03  2.64558E+03  8.93935E+02  3.49320E+03 -1.53386E+03  2.11712E+03 -1.70167E+03 -9.99228E+01
 -1.08991E+03 -2.34245E+03  1.69034E+03 -2.31864E+03  2.38708E+03 -1.21908E+03  2.22812E+03  3.88901E+02
  1.35274E+03  8.24902E+02  6.67933E+02  9.02071E+01 -7.06365E+02  1.17056E+03  1.52722E+03 -3.49505E+02
  6.74513E+02 -4.38657E+02  2.44280E+03  1.05530E+03  7.15570E+02  3.62436E+03 -5.23062E+02  4.10777E+03
 -2.41333E+03  2.04766E+03 -3.17839E+03  6.09668E+02 -3.04681E+03 -1.12576E+03 -6.01778E+02 -1.79623E+03
  6.32368E+02 -1.88860E+03  1.58017E+03 -8.66579E+02  9.51305E+02  1.42413E+03 -1.02989E+03  1.94693E+03
 -2.40885E+03  1.08835E+03 -2.29141E+03 -1.61408E+03 -1.19280E+03 -3.10360E+03  4.28783E+02 -2.76499E+03
  1.07847E+03 -1.43441E+03  1.47096E+03 -2.10067E+02  2.12353E+03  1.10352E+02  5.39649E+02  1.67426E+03
 -5.84153E+02  2.06961E+02 -1.40094E+03 -4.89068E+02  6.71161E+02 -1.87790E+03  2.74825E+03 -1.48194E+03
  2.60218E+03  4.40036E+02  3.69689E+03  1.76174E+03  1.34881E+03  2.87377E+03 -6.58986E+02  3.11223E+03
 -2.55365E+03  7.68336E+02 -2.31051E+03 -4.58080E+02 -1.41896E+03 -1.67797E+03  4.60143E+02 -1.40084E+03
  2.36555E+03 -1.19921E+03  1.75595E+03  1.04178E+03  5.22612E+02  2.03412E+03  1.43424E+02  1.64067E+03
 -8.89724E+02  1.25644E+03 -6.52079E+02  1.09911E+02 -5.00143E+01  6.04059E+02 -1.01108E+03  9.45239E+02
 -7.91214E+02  1.42203E+03 -2.41961E+03  9.82550E+02 -2.64517E+03  7.46367E+01 -3.64149E+03 -1.81054E+03
 -1.71306E+03 -3.86169E+03  6.17954E+02 -4.41657E+03  2.07221E+03 -3.50405E+03  4.29422E+03 -1.43295E+03
  3.70199E+03  4.22608E+02  1.89805E+03  2.70647E+03 -2.74472E+02  2.54141E+03 -1.14845E+03  2.22188E+03
 -1.36078E+03  1.41267E+03 -8.75783E+02 -8.36611E+01 -6.40035E+02  2.93920E+02 -5.64137E+02 -1.40301E+02
 -1.12590E+03  1.40043E+02 -9.41979E+02 -9.30205E+00 -8.04066E+01 -6.44699E+02 -2.30799E+02 -1.24146E+03
  1.71782E+03 -5.88761E+02  9.80333E+02  5.12212E+01  2.17210E+03  1.55986E+03 -2.62416E+02  2.17868E+03
 -1.71396E+03  3.21467E+03 -2.78611E+03  1.98284E+03 -2.95215E+03 -2.63873E+02 -2.14323E+03 -1.81282E+03
 -1.05167E+03 -2.82540E+03  7.78605E+02 -2.17864E+03  1.11421E+03 -1.22446E+03  1.17639E+03  1.32113E+02
  1.13547E+03  8.92320E+02 -5.85938E+01  3.43905E+02 -5.69618E+02 -1.21169E+02 -1.08443E+02 -5.80789E+02
  7.82610E+02  2.74575E+00  6.45764E+02  6.19775E+02  5.07124E+02  6.51329E+02  3.74558E+02  7.75352E+02
 -9.79635E+02  8.44885E+02 -1.72363E+03  1.41142E+02 -1.23870E+03 -1.19365E+03  1.41816E+02 -1.84251E+03
  7.17349E+02 -1.29731E+03  1.78244E+03 -4.37444E+02  1.60705E+03 -5.38252E+02  7.22079E+02  1.70003E+03
  3.84996E+02  1.14810E+03 -4.96486E+02  1.20663E+03 -8.16062E+02  8.89565E+02 -8.70048E+02  1.18448E+02
 -6.90440E+02 -2.74637E+02 -5.20489E+02  1.42471E+02 -6.80067E+02 -1.99245E+02 -1.31739E+03 -2.90830E+02
 -1.36857E+03 -2.70995E+02 -5.38392E+02 -1.60697E+03  1.09810E+03 -2.08582E+03  1.12761E+03 -5.93715E+02
  1.35659E+03  1.49314E+02  2.35577E+02  7.89652E+02 -2.08176E+02  1.45660E+03 -7.95182E+02  1.08924E+03
