 $NMID ID='MM_0lb_SNR800_8hz_g45_42.RAW', FMTDAT='(8E13.5)'
 TRAMP=1., VOLUME=1. $END
  3.09625E+05  2.26017E+02  3.37985E+05  2.50749E+05  8.50583E+04  3.38664E+05 -1.32500E+05  2.51921E+05
 -1.90914E+05  8.38791E+04 -1.12407E+05 -3.21864E+04  2.65644E+02 -5.07823E+04  5.40984E+04 -5.47586E+02
  3.58554E+04  5.30609E+04 -1.66959E+04  7.58445E+04 -6.14175E+04  6.43912E+04 -8.52989E+04  3.27500E+04
 -8.25268E+04 -1.12966E+04 -5.82654E+04 -5.21891E+04 -1.50896E+04 -7.12644E+04  2.79211E+04 -4.67038E+04
  4.11382E+04  3.75499E+03  1.69161E+04  4.85777E+04 -3.50780E+04  4.82264E+04 -6.82139E+04  2.79458E+02
 -5.51679E+04 -5.77540E+04 -7.08618E+03 -7.92081E+04  3.50888E+04 -5.68111E+04  4.98547E+04 -1.83282E+04
  4.57674E+04  1.18904E+04  3.27916E+04  2.65751E+04  1.61556E+04  3.07819E+04 -5.81851E+03  2.79086E+04
 -2.29202E+04  1.16958E+04 -1.84759E+04 -5.72667E+03  6.80728E+03 -7.31036E+03  2.38203E+04  1.41605E+04
  6.93907E+03  3.77990E+04 -3.39335E+04  3.73443E+04 -6.62014E+04  2.27108E+03 -5.89659E+04 -4.52074E+04
 -1.25907E+04 -6.61454E+04  4.17414E+04 -4.78359E+04  6.19585E+04 -2.77242E+03  3.70536E+04  3.48199E+04
 -5.31504E+03  3.95433E+04 -3.21975E+04  1.90357E+04 -3.35683E+04 -3.32150E+03 -1.95148E+04 -1.18774E+04
 -9.42908E+03 -1.53938E+04 -3.05368E+02 -1.98396E+04  8.70856E+03 -2.36362E+04  1.62791E+04 -1.27390E+04
  1.00046E+04  6.38737E+03 -1.06760E+04  1.29102E+04 -2.39642E+04 -7.35684E+03 -8.75504E+03 -3.82292E+04
  2.54062E+04 -4.66422E+04  5.23893E+04 -2.12866E+04  4.91955E+04  2.10087E+04  1.79505E+04  4.71110E+04
 -1.68687E+04  3.64025E+04 -2.77248E+04  2.56491E+03 -1.14880E+04 -2.97848E+04  2.16143E+04 -3.70724E+04
  4.46999E+04 -1.13813E+04  4.04855E+04  2.52832E+04  2.21747E+04  5.14794E+04 -8.42008E+03  5.65543E+04
 -3.59672E+04  3.89651E+04 -4.80947E+04  1.10426E+04 -4.83012E+04 -1.84853E+04 -2.64837E+04 -4.24939E+04
  8.02286E+03 -4.24063E+04  3.47290E+04 -1.70111E+04  3.22980E+04  1.15089E+04  5.38469E+03  2.12692E+04
 -1.43352E+04  9.76553E+03 -1.14851E+04 -7.57808E+03  5.65402E+03 -1.12695E+04  1.90218E+04  5.47613E+03
  1.51668E+04  2.27693E+04 -5.03380E+03  2.75150E+04 -2.35218E+04  1.47134E+04 -3.18170E+04 -2.34480E+03
 -2.60092E+04 -1.81594E+04 -1.21426E+04 -2.52005E+04  4.48545E+03 -2.62513E+04  2.05064E+04 -2.33351E+04
  3.29124E+04 -1.40583E+04  3.88128E+04  5.27121E+03  2.73555E+04  2.51835E+04  4.52571E+03  4.21078E+04
 -2.03101E+04  3.44751E+04 -3.08253E+04  1.15965E+04 -2.26503E+04 -1.00587E+04 -4.93581E+03 -1.27839E+04
  2.91595E+02 -8.03820E+02 -8.54348E+03  8.29848E+03 -2.03831E+04  5.01211E+03 -2.05716E+04 -9.78720E+03
 -1.23336E+04 -2.40837E+04  5.99825E+03 -2.84259E+04  1.91103E+04 -2.05444E+04  2.37994E+04 -2.00751E+03
  1.43494E+04  1.70183E+04 -1.27530E+03  2.40185E+04 -1.72686E+04  1.37817E+04 -2.40806E+04 -4.93771E+03
 -1.73290E+04 -2.11328E+04 -2.34476E+03 -2.84849E+04  1.31313E+04 -2.39385E+04  2.38993E+04 -1.23038E+04
  2.26706E+04 -2.82680E+02  1.68978E+04  5.37719E+03  9.08938E+03  1.63389E+03  1.26970E+04 -2.27591E+03
  2.22664E+04  2.74832E+03  2.63640E+04  1.92029E+04  1.76043E+04  3.87980E+04 -2.55322E+03  4.53715E+04
 -2.60588E+04  3.81503E+04 -4.34782E+04  2.01264E+04 -4.61142E+04 -3.36651E+03 -3.73505E+04 -2.72675E+04
 -1.47666E+04 -3.87283E+04  1.34300E+04 -3.34061E+04  2.88570E+04 -1.55512E+04  2.48061E+04  8.67930E+03
  8.16216E+03  1.91146E+04 -1.20915E+04  1.58385E+04 -2.03345E+04  2.80533E+03 -1.58614E+04 -1.32815E+04
 -1.38967E+02 -2.00927E+04  1.09267E+04 -1.46881E+04  1.39401E+04 -1.41685E+03  3.75527E+03  8.81037E+03
 -9.17287E+03  4.71604E+03 -9.62088E+03 -7.64180E+03 -2.24657E+03 -1.83926E+04  1.25266E+04 -2.05980E+04
  2.35253E+04 -1.18316E+04  2.77118E+04  3.59634E+03  2.41470E+04  1.87330E+04  1.14737E+04  3.03076E+04
 -5.81308E+03  3.24047E+04 -2.15361E+04  1.98925E+04 -2.39132E+04  3.70361E+03 -1.62368E+04 -6.39266E+03
 -6.88780E+03 -7.44891E+03 -5.74272E+02  3.28855E+02 -2.85827E+03  3.28838E+03 -7.60211E+03  6.08356E+03
 -1.52963E+04 -1.19556E+03 -1.53540E+04 -1.24069E+04 -6.14905E+03 -2.02083E+04  6.75794E+03 -1.62936E+04
  1.33413E+04 -6.70408E+03  9.15969E+03  4.54302E+03 -5.46685E+02  6.54741E+03 -7.93211E+03 -3.81148E+02
 -7.71663E+03 -1.09937E+04 -1.10148E+03 -1.63472E+04  9.55236E+03 -1.68772E+04  2.15174E+04 -8.77242E+03
  2.48423E+04  2.06710E+03  1.79979E+04  1.52743E+04  3.64257E+03  2.02504E+04 -1.03855E+04  1.59590E+04
 -1.32779E+04  4.28323E+03 -6.81920E+03 -3.79713E+03  2.05601E+03 -4.96024E+03  8.66278E+03 -9.45016E+02
  7.72086E+03  7.01471E+03  7.15688E+02  1.34505E+04 -9.54943E+03  1.26080E+04 -1.60386E+04  3.16058E+03
 -1.13092E+04 -8.71438E+03  1.63740E+02 -1.42464E+04  9.01570E+03 -7.47669E+03  9.97823E+03  3.43051E+03
  2.41129E+03  1.09180E+04 -8.10462E+03  1.22703E+04 -1.45883E+04  5.87583E+03 -1.54720E+04 -5.65818E+03
 -8.81317E+03 -1.67588E+04  3.70971E+03 -1.93348E+04  1.62670E+04 -1.10953E+04  1.78863E+04  3.14455E+03
  1.04520E+04  1.40614E+04 -1.86529E+03  1.66781E+04 -1.20475E+04  9.45532E+03 -1.30618E+04 -1.74872E+03
 -1.14584E+04 -1.13173E+04 -1.43355E+03 -1.26057E+04  6.85908E+03 -9.85728E+03  8.31959E+03 -3.65476E+03
  5.28880E+03  2.35091E+03 -1.42673E+03  1.71020E+03 -7.87881E+02 -3.73766E+03  2.82759E+03 -7.57783E+03
  1.21906E+04 -5.21953E+03  1.72143E+04  2.06575E+03  1.66974E+04  1.21180E+04  1.04582E+04  2.24886E+04
 -5.26032E+03  2.55950E+04 -2.10391E+04  1.92083E+04 -2.76778E+04  3.66243E+03 -2.26143E+04 -9.94030E+03
 -1.06039E+04 -1.86832E+04 -1.12453E+02 -1.53114E+04  5.77193E+03 -9.31458E+03  5.55970E+03 -5.83773E+03
  3.80685E+03 -3.31972E+03  4.10038E+03 -3.79245E+03  5.73375E+03 -3.64476E+03  8.74907E+03 -2.02863E+03
  1.18817E+04  2.39149E+03  6.26382E+03  1.01001E+04 -2.68528E+03  1.20534E+04 -1.18082E+04  9.95076E+03
 -1.59763E+04 -1.10640E+03 -9.99370E+03 -1.12492E+04 -1.58717E+03 -1.70786E+04  9.15474E+03 -1.73202E+04
  1.77892E+04 -9.27719E+03  2.06621E+04  2.77952E+03  1.42602E+04  1.52249E+04  2.13913E+03  1.89504E+04
 -8.04338E+03  1.50677E+04 -1.11849E+04  5.45444E+03 -7.92456E+03 -1.76602E+03 -3.62666E+03 -2.30502E+03
 -1.20365E+03 -3.32539E+02 -2.50583E+03  3.15346E+03 -6.53989E+03  2.55384E+03 -1.10097E+04 -1.71222E+03
 -8.33745E+03 -1.11248E+04 -8.28973E+01 -1.54594E+04  1.02068E+04 -1.46884E+04  1.58336E+04 -4.39353E+03
  1.60361E+04  7.46508E+03  7.29068E+03  1.43018E+04 -3.49778E+03  1.61589E+04 -1.18642E+04  1.06422E+04
 -1.50355E+04  3.42877E+02 -1.15626E+04 -9.35940E+03 -1.15585E+03 -1.36892E+04  7.30970E+03 -1.05529E+04
  1.02967E+04 -3.65811E+03  6.89307E+03  2.57673E+03  2.77154E+03  4.93977E+03  1.73049E+03  2.10731E+03
  2.71941E+03  8.28157E+02  4.00619E+03  1.95951E+03  5.26127E+03  5.51743E+03  3.81149E+03  8.46408E+03
 -3.49472E+03  1.28542E+04 -1.17128E+04  1.29221E+04 -1.70580E+04  3.50428E+03 -1.76068E+04 -7.04560E+03
 -8.29057E+03 -1.64759E+04  2.35253E+03 -1.83987E+04  1.03638E+04 -1.15590E+04  1.37670E+04 -2.97239E+03
  1.05265E+04  5.90283E+03  2.74319E+03  9.49610E+03 -5.17630E+03  6.09951E+03 -6.91733E+03 -1.01293E+03
 -3.60942E+03 -7.34018E+03  3.99755E+03 -7.65277E+03  6.83829E+03 -3.69640E+03  6.71452E+03  1.44328E+03
  4.32745E+03  3.11587E+03  1.53470E+03  2.81956E+03 -8.50874E+02  2.34532E+03  2.03209E+03 -8.77167E+02
  2.92223E+03 -9.37663E+02  6.51376E+03  2.55896E+03  4.12335E+03  8.62027E+03 -1.60864E+03  1.17396E+04
 -8.38358E+03  7.87672E+03 -1.08460E+04  2.30709E+03 -9.57195E+03 -3.93429E+03 -3.70142E+03 -6.78738E+03
  1.14350E+03 -6.90067E+03  4.53816E+03 -3.16898E+03  3.51320E+03  3.30871E+03 -1.75346E+03  5.78935E+03
 -7.15065E+03  2.76794E+03 -7.98981E+03 -3.62846E+03 -4.29045E+03 -8.83167E+03  1.48888E+03 -9.61517E+03
  5.64782E+03 -5.51824E+03  7.22753E+03 -1.05651E+03  5.55909E+03  2.48087E+03  6.69789E+02  5.18519E+03
 -3.15242E+03  1.33134E+03 -3.84022E+03 -3.47095E+03  1.63441E+03 -7.36504E+03  8.54413E+03 -6.13037E+03
  1.10857E+04  1.18689E+03  1.04318E+04  7.38509E+03  3.69683E+03  1.18354E+04 -4.03604E+03  1.07813E+04
 -9.30516E+03  4.71468E+03 -1.00043E+04 -1.59529E+03 -4.98606E+03 -7.17686E+03  1.99739E+03 -6.72801E+03
  6.61289E+03 -3.08591E+03  6.25704E+03  3.33159E+03  1.76445E+03  6.15507E+03 -1.47109E+03  5.72698E+03
 -2.79721E+03  3.23925E+03 -3.10590E+03  1.06868E+03 -1.64197E+03  1.62211E+03 -1.77278E+03  2.45239E+03
 -3.09651E+03  4.40551E+03 -7.50071E+03  3.67331E+03 -1.16683E+04  7.36588E+01 -1.27451E+04 -7.53947E+03
 -6.49808E+03 -1.50065E+04  2.85957E+03 -1.76373E+04  1.11923E+04 -1.36576E+04  1.63585E+04 -5.33699E+03
  1.55358E+04  3.10908E+03  9.60825E+03  1.07069E+04  8.89345E+02  1.20436E+04 -4.87935E+03  9.25922E+03
 -6.93144E+03  3.66439E+03 -4.19914E+03 -1.69130E+03 -7.68769E+02 -1.13315E+03 -7.04941E+02  5.20485E+02
 -2.07993E+03  5.49599E+02 -2.39425E+03 -6.84939E+02 -1.09456E+03 -2.65418E+03  8.03117E+02 -4.27136E+03
  5.24492E+03 -3.55960E+03  7.15636E+03  1.05245E+02  8.72421E+03  6.90519E+03  2.02884E+03  1.19399E+04
 -5.79940E+03  1.41659E+04 -1.31939E+04  8.20822E+03 -1.47163E+04 -1.29002E+03 -1.08540E+04 -9.17639E+03
 -4.63563E+03 -1.25196E+04  3.52191E+03 -1.14694E+04  7.71005E+03 -6.66802E+03  8.23128E+03  5.64585E+02
  4.45556E+03  3.87514E+03 -3.00828E+02  3.70781E+03 -2.48698E+03  1.83908E+02 -4.35033E+01 -3.10381E+03
  4.19764E+03 -1.86100E+03  5.42043E+03  1.27876E+03  4.01456E+03  5.17322E+03  1.50794E+01  6.20859E+03
 -5.41913E+03  5.36396E+03 -8.75357E+03  3.50719E+02 -7.46355E+03 -6.01265E+03 -1.19466E+03 -1.02063E+04
  5.85687E+03 -8.82767E+03  9.91073E+03 -2.58414E+03  9.50409E+03  2.53491E+03  5.71467E+03  7.72459E+03
  1.15977E+03  8.28757E+03 -3.50277E+03  6.33652E+03 -5.40737E+03  3.95412E+03 -4.49715E+03  6.48937E+02
 -2.18401E+03 -4.22312E+00 -2.72340E+03  1.27176E+03 -4.66071E+03  1.72424E+03 -6.23837E+03 -1.36489E+03
 -5.95064E+03 -4.37825E+03 -1.33255E+03 -8.15217E+03  3.93816E+03 -8.82375E+03  7.52231E+03 -4.59075E+03
  8.57999E+03  1.04246E+03  4.33406E+03  5.73517E+03 -8.29661E+02  8.29198E+03 -6.52071E+03  5.12557E+03
