 $NMID ID='MM_0lb_SNR800_11hz_g45_14.RAW', FMTDAT='(8E13.5)'
 TRAMP=1., VOLUME=1. $END
  3.09859E+05  3.77881E+02  3.37655E+05  2.50956E+05  8.47009E+04  3.38361E+05 -1.32787E+05  2.51624E+05
 -1.90433E+05  8.34351E+04 -1.11618E+05 -3.25416E+04  3.70837E+02 -5.08400E+04  5.37340E+04 -6.02092E+02
  3.52138E+04  5.27941E+04 -1.67588E+04  7.55713E+04 -6.10089E+04  6.39976E+04 -8.50901E+04  3.24987E+04
 -8.18646E+04 -1.13854E+04 -5.77888E+04 -5.16789E+04 -1.51037E+04 -7.02692E+04  2.77018E+04 -4.61514E+04
  4.05591E+04  3.65111E+03  1.62246E+04  4.81620E+04 -3.46551E+04  4.74291E+04 -6.74837E+04  6.73397E+00
 -5.38780E+04 -5.70184E+04 -6.74129E+03 -7.80501E+04  3.41710E+04 -5.61600E+04  4.90539E+04 -1.78235E+04
  4.44445E+04  1.11214E+04  3.24971E+04  2.58394E+04  1.60728E+04  3.00653E+04 -5.52866E+03  2.74743E+04
 -2.22517E+04  1.21826E+04 -1.82567E+04 -5.41408E+03  6.37369E+03 -7.66701E+03  2.30718E+04  1.28165E+04
  7.22196E+03  3.64032E+04 -3.32070E+04  3.62528E+04 -6.45815E+04  1.89618E+03 -5.77228E+04 -4.37664E+04
 -1.25028E+04 -6.45687E+04  4.08932E+04 -4.64098E+04  5.96053E+04 -2.09950E+03  3.53672E+04  3.32502E+04
 -5.67112E+03  3.81611E+04 -3.08695E+04  1.74033E+04 -3.21006E+04 -3.74574E+03 -1.78165E+04 -1.14970E+04
 -9.00991E+03 -1.42326E+04 -5.28675E+02 -1.88442E+04  8.27398E+03 -2.30341E+04  1.55422E+04 -1.30892E+04
  1.09502E+04  5.72534E+03 -9.25284E+03  1.28583E+04 -2.22011E+04 -5.65554E+03 -8.39463E+03 -3.56004E+04
  2.38206E+04 -4.51859E+04  5.01088E+04 -2.02450E+04  4.65085E+04  2.00326E+04  1.63568E+04  4.58411E+04
 -1.66060E+04  3.47766E+04 -2.63991E+04  2.10578E+03 -1.05048E+04 -2.85958E+04  2.10632E+04 -3.50275E+04
  4.33983E+04 -1.00695E+04  3.78680E+04  2.44817E+04  1.96837E+04  4.87196E+04 -8.22720E+03  5.28522E+04
 -3.33597E+04  3.59797E+04 -4.43639E+04  1.01010E+04 -4.48165E+04 -1.75977E+04 -2.46065E+04 -3.99742E+04
  7.78195E+03 -3.99954E+04  3.28217E+04 -1.57153E+04  3.02270E+04  1.12033E+04  4.40820E+03  1.96410E+04
 -1.34364E+04  9.31742E+03 -1.03721E+04 -7.75394E+03  5.83554E+03 -1.06718E+04  1.80478E+04  6.05199E+03
  1.41616E+04  2.22719E+04 -5.45767E+03  2.58250E+04 -2.28055E+04  1.26014E+04 -3.01834E+04 -3.91742E+03
 -2.29749E+04 -1.79900E+04 -9.97836E+03 -2.26201E+04  4.29945E+03 -2.27660E+04  1.73579E+04 -2.04961E+04
  2.92441E+04 -1.38163E+04  3.51041E+04  3.87772E+03  2.53900E+04  2.22865E+04  4.53894E+03  3.87755E+04
 -1.89616E+04  3.20953E+04 -2.92159E+04  1.13284E+04 -2.17270E+04 -1.04696E+04 -4.28253E+03 -1.30701E+04
  1.16433E+03 -1.80117E+03 -6.22292E+03  7.45548E+03 -1.83912E+04  5.13309E+03 -1.78824E+04 -8.12213E+03
 -1.07180E+04 -2.12346E+04  5.63942E+03 -2.54969E+04  1.72975E+04 -1.82173E+04  2.03042E+04 -1.68437E+03
  1.28857E+04  1.48235E+04 -1.37925E+03  2.06916E+04 -1.46668E+04  1.22903E+04 -2.10834E+04 -4.59118E+03
 -1.55699E+04 -1.89883E+04 -1.76754E+03 -2.56817E+04  1.12477E+04 -2.07587E+04  2.12298E+04 -1.09025E+04
  2.00396E+04  1.09618E+01  1.42583E+04  4.68321E+03  7.44064E+03  1.31767E+03  1.08899E+04 -1.91831E+03
  1.95992E+04  3.03581E+03  2.24125E+04  1.63546E+04  1.52203E+04  3.40386E+04 -3.04862E+03  3.93058E+04
 -2.27699E+04  3.19580E+04 -3.69908E+04  1.67327E+04 -3.86778E+04 -2.81830E+03 -3.19409E+04 -2.23583E+04
 -1.32457E+04 -3.23937E+04  1.11699E+04 -2.85684E+04  2.48285E+04 -1.39871E+04  2.16236E+04  6.46999E+03
  7.32115E+03  1.64305E+04 -1.02412E+04  1.36757E+04 -1.80177E+04  2.27250E+03 -1.38205E+04 -1.13710E+04
 -5.50468E+02 -1.73298E+04  9.44462E+03 -1.27553E+04  1.14973E+04 -1.58715E+03  2.86725E+03  7.37890E+03
 -8.08395E+03  3.20718E+03 -7.49509E+03 -6.29517E+03 -1.37938E+03 -1.56522E+04  1.06474E+04 -1.71050E+04
  1.98204E+04 -9.42132E+03  2.19303E+04  2.97876E+03  1.92131E+04  1.56195E+04  8.86786E+03  2.47476E+04
 -4.45197E+03  2.67391E+04 -1.70998E+04  1.60028E+04 -1.92698E+04  3.71803E+03 -1.34291E+04 -4.65654E+03
 -5.67082E+03 -6.17988E+03 -2.96136E+02  6.86085E+02 -2.83106E+03  2.86332E+03 -6.21493E+03  4.49796E+03
 -1.21879E+04 -5.73237E+02 -1.30113E+04 -1.03603E+04 -5.27653E+03 -1.73154E+04  5.50221E+03 -1.35568E+04
  1.09672E+04 -5.23661E+03  7.84869E+03  3.45765E+03 -1.25968E+02  5.09839E+03 -6.36017E+03  9.27014E+01
 -5.88052E+03 -8.41036E+03 -9.59563E+02 -1.33817E+04  7.70835E+03 -1.35877E+04  1.68756E+04 -7.49851E+03
  1.97976E+04  1.66318E+03  1.46453E+04  1.16387E+04  3.36394E+03  1.57516E+04 -8.49453E+03  1.30743E+04
 -1.08506E+04  4.07384E+03 -5.47330E+03 -2.88307E+03  2.09077E+03 -3.93801E+03  7.24168E+03 -8.08900E+02
  6.37802E+03  6.01535E+03  1.06629E+03  1.05909E+04 -7.88060E+03  1.06563E+04 -1.32615E+04  2.45954E+03
 -9.12429E+03 -7.03095E+03  3.87519E+02 -1.12107E+04  7.43093E+03 -5.89193E+03  7.40678E+03  2.75103E+03
  1.46408E+03  7.90197E+03 -6.88342E+03  9.36549E+03 -1.06605E+04  4.29195E+03 -1.10744E+04 -3.93776E+03
 -6.01201E+03 -1.27528E+04  3.09150E+03 -1.48433E+04  1.23184E+04 -8.56275E+03  1.35305E+04  2.32954E+03
  8.38238E+03  1.07406E+04 -1.09539E+03  1.30348E+04 -9.49791E+03  7.44675E+03 -1.00753E+04 -9.24592E+02
 -9.11324E+03 -8.77588E+03 -1.76829E+03 -9.77900E+03  4.99402E+03 -8.14665E+03  6.18369E+03 -3.60372E+03
  4.42446E+03  1.42884E+03 -7.22067E+02  1.90751E+03 -2.57764E+02 -2.24003E+03  1.87922E+03 -6.08974E+03
  9.13719E+03 -3.61322E+03  1.26823E+04  1.61830E+03  1.26763E+04  8.70914E+03  8.28652E+03  1.68347E+04
 -3.84529E+03  1.88187E+04 -1.61881E+04  1.44549E+04 -2.06929E+04  2.75777E+03 -1.69201E+04 -7.01879E+03
 -8.28031E+03 -1.37075E+04 -4.64622E+02 -1.14833E+04  4.38916E+03 -6.56320E+03  4.19498E+03 -3.95279E+03
  3.46005E+03 -2.63190E+03  3.31173E+03 -3.21526E+03  5.51326E+03 -2.85587E+03  6.52241E+03 -6.50845E+02
  8.58667E+03  1.66657E+03  4.68317E+03  7.54515E+03 -2.01683E+03  8.58778E+03 -9.03814E+03  6.54498E+03
 -1.14738E+04 -1.10409E+03 -6.84862E+03 -8.05199E+03 -5.66719E+02 -1.22957E+04  6.71613E+03 -1.21903E+04
  1.26777E+04 -7.21061E+03  1.50019E+04  1.75911E+03  1.06774E+04  1.07351E+04  1.75684E+03  1.39136E+04
 -5.63027E+03  1.16803E+04 -7.98346E+03  4.06354E+03 -5.39865E+03 -1.81356E+03 -1.84712E+03 -1.95012E+03
 -9.09768E+02 -1.06789E+02 -1.51037E+03  2.63437E+03 -4.83636E+03  1.81923E+03 -8.20625E+03 -7.96460E+02
 -5.34231E+03 -8.17113E+03  3.32012E+02 -1.13105E+04  7.10490E+03 -1.05324E+04  1.10484E+04 -3.21980E+03
  1.10711E+04  5.68615E+03  5.44083E+03  9.63692E+03 -2.10511E+03  1.11795E+04 -7.78495E+03  7.12458E+03
 -1.03832E+04  2.38770E+02 -8.31846E+03 -6.50013E+03 -5.14583E+02 -9.32118E+03  4.66927E+03 -7.15833E+03
  7.45192E+03 -2.47247E+03  4.82714E+03  1.74234E+03  1.73493E+03  3.20150E+03  1.07910E+03  1.72849E+03
  2.20205E+03  1.13096E+03  2.90711E+03  1.48491E+03  3.32287E+03  4.05397E+03  3.27658E+03  5.84338E+03
 -2.32617E+03  8.79301E+03 -7.73749E+03  9.19474E+03 -1.09338E+04  2.21557E+03 -1.16658E+04 -4.29660E+03
 -5.48440E+03 -1.10575E+04  1.41022E+03 -1.23058E+04  6.66256E+03 -7.65251E+03  8.99069E+03 -2.00675E+03
  7.24479E+03  4.42423E+03  1.59245E+03  6.49550E+03 -3.08690E+03  4.29814E+03 -4.23972E+03 -8.52602E+02
 -2.06549E+03 -4.85495E+03  2.25490E+03 -4.75994E+03  4.56287E+03 -2.43107E+03  4.46254E+03  9.87852E+02
  2.92870E+03  2.40640E+03  1.03903E+03  1.60007E+03 -8.71662E+02  1.75724E+03  1.58977E+03 -5.72101E+02
  1.71384E+03 -5.67188E+02  4.52794E+03  1.62083E+03  2.22727E+03  5.94557E+03 -1.30792E+03  8.01706E+03
 -5.20687E+03  5.12427E+03 -6.73337E+03  1.22647E+03 -6.36033E+03 -2.55199E+03 -2.03404E+03 -3.95129E+03
  6.87409E+02 -4.12350E+03  2.90092E+03 -2.21443E+03  2.49112E+03  2.27948E+03 -9.24665E+02  4.06095E+03
 -4.58778E+03  2.12148E+03 -5.08842E+03 -2.94036E+03 -2.85701E+03 -6.28067E+03  8.94979E+02 -5.75925E+03
  3.12452E+03 -3.70815E+03  4.14720E+03 -1.02714E+02  3.39434E+03  1.59532E+03  6.87116E+02  3.27713E+03
 -1.75797E+03  6.46765E+02 -2.52281E+03 -1.88403E+03  1.13510E+03 -4.43815E+03  5.55009E+03 -3.71351E+03
  6.71534E+03  3.36767E+02  6.87206E+03  4.22850E+03  2.20825E+03  7.19981E+03 -2.54355E+03  7.03613E+03
 -6.02210E+03  2.87417E+03 -5.85537E+03 -1.03899E+03 -3.47776E+03 -4.62487E+03  1.00074E+03 -4.52567E+03
  4.71799E+03 -2.06578E+03  3.64271E+03  1.81553E+03  1.18506E+03  3.91130E+03 -2.28986E+02  3.44114E+03
 -1.74290E+03  2.45349E+03 -1.15342E+03  9.53996E+02 -4.21710E+02  9.02400E+02 -8.00972E+02  1.68759E+03
 -2.16535E+03  2.93267E+03 -5.06451E+03  2.19551E+03 -6.75097E+03  1.70185E+02 -7.89625E+03 -4.45531E+03
 -3.97710E+03 -9.48845E+03  1.79221E+03 -1.08042E+04  6.44163E+03 -8.31000E+03  1.03726E+04 -2.93178E+03
  9.68658E+03  2.13606E+03  5.58211E+03  6.22533E+03  2.08603E+02  6.95015E+03 -2.98718E+03  5.08258E+03
 -3.89596E+03  2.05319E+03 -2.49113E+03 -7.79051E+02 -1.27130E+03 -7.91098E+02 -6.57245E+02 -1.43783E+02
 -1.50079E+03  4.31304E+01 -1.96369E+03  4.72318E+01 -6.77126E+01 -1.64977E+03 -7.35518E+01 -2.55405E+03
  3.38096E+03 -2.27724E+03  3.94219E+03 -6.42104E+00  4.70715E+03  3.63678E+03  9.08180E+02  7.06116E+03
 -3.29185E+03  8.18107E+03 -7.80480E+03  4.84237E+03 -8.44218E+03 -1.01874E+03 -6.62983E+03 -5.43447E+03
 -2.53830E+03 -7.03782E+03  2.02785E+03 -6.78483E+03  4.85299E+03 -3.29569E+03  4.44592E+03  3.95951E+02
  2.45551E+03  2.03375E+03 -2.56488E+02  2.15320E+03 -1.48112E+03 -5.19311E+01 -1.76426E+01 -1.44798E+03
  1.95180E+03 -7.61515E+02  2.30793E+03  8.09302E+02  1.93310E+03  2.53426E+03  2.96923E+02  3.78840E+03
 -2.65170E+03  3.47222E+03 -4.70572E+03  6.51186E+02 -4.34184E+03 -3.16135E+03 -9.22744E+02 -5.50808E+03
  3.04395E+03 -4.74964E+03  5.06220E+03 -1.58927E+03  5.39629E+03  1.17598E+03  3.11914E+03  3.96529E+03
  6.11903E+02  4.34127E+03 -1.66521E+03  3.43447E+03 -2.57199E+03  2.38470E+03 -2.37758E+03  6.22545E+02
 -1.19931E+03 -1.35874E+02 -1.69781E+03  8.87718E+02 -2.53641E+03  9.13437E+02 -3.57490E+03 -4.48287E+02
 -3.46823E+03 -2.38703E+03 -5.09350E+02 -4.66330E+03  2.32674E+03 -4.86841E+03  3.85062E+03 -2.00618E+03
  4.17467E+03  4.42886E+02  2.24062E+03  3.10890E+03 -8.18168E+01  4.33144E+03 -3.24969E+03  3.04959E+03
