 $NMID ID='MM_0lb_SNR800_9hz_g60_82.RAW', FMTDAT='(8E13.5)'
 TRAMP=1., VOLUME=1. $END
  3.09976E+05  3.26139E+02  3.37946E+05  2.51358E+05  8.49193E+04  3.38711E+05 -1.32412E+05  2.52019E+05
 -1.90757E+05  8.41781E+04 -1.13185E+05 -3.26098E+04  2.21371E+02 -5.07832E+04  5.34781E+04 -7.41549E+02
  3.57623E+04  5.29070E+04 -1.67456E+04  7.63087E+04 -6.15722E+04  6.40721E+04 -8.57696E+04  3.24844E+04
 -8.30661E+04 -1.18822E+04 -5.83600E+04 -5.29527E+04 -1.49346E+04 -7.13844E+04  2.80930E+04 -4.70952E+04
  4.17526E+04  3.71075E+03  1.70917E+04  4.82242E+04 -3.49633E+04  4.85089E+04 -6.84089E+04  1.85438E+02
 -5.51701E+04 -5.79162E+04 -7.03920E+03 -7.96450E+04  3.52477E+04 -5.77056E+04  5.00856E+04 -1.87888E+04
  4.58699E+04  1.16835E+04  3.28132E+04  2.72862E+04  1.59654E+04  3.04062E+04 -5.85080E+03  2.76756E+04
 -2.26233E+04  1.21018E+04 -1.78119E+04 -5.52028E+03  7.26533E+03 -7.21295E+03  2.34862E+04  1.40936E+04
  7.09618E+03  3.80345E+04 -3.44061E+04  3.77492E+04 -6.62709E+04  1.93294E+03 -5.93305E+04 -4.50629E+04
 -1.29232E+04 -6.63887E+04  4.18360E+04 -4.76048E+04  6.20000E+04 -2.53730E+03  3.73356E+04  3.48541E+04
 -5.01403E+03  4.02920E+04 -3.22906E+04  1.93619E+04 -3.41939E+04 -2.80616E+03 -1.98397E+04 -1.22355E+04
 -9.83662E+03 -1.54903E+04 -4.14773E+02 -1.99989E+04  8.73031E+03 -2.35362E+04  1.59740E+04 -1.24214E+04
  1.05480E+04  6.45239E+03 -1.05561E+04  1.29002E+04 -2.42025E+04 -6.68187E+03 -8.82957E+03 -3.88030E+04
  2.56449E+04 -4.73478E+04  5.29792E+04 -2.10339E+04  4.97853E+04  2.11504E+04  1.77988E+04  4.75064E+04
 -1.72841E+04  3.66440E+04 -2.77352E+04  3.04326E+03 -1.19292E+04 -2.94044E+04  2.17457E+04 -3.73891E+04
  4.52838E+04 -1.14841E+04  4.18963E+04  2.54640E+04  2.23335E+04  5.22303E+04 -8.35588E+03  5.72077E+04
 -3.65292E+04  3.92448E+04 -4.86754E+04  1.12116E+04 -4.90889E+04 -1.87382E+04 -2.66320E+04 -4.32174E+04
  8.15291E+03 -4.33230E+04  3.50232E+04 -1.77104E+04  3.27449E+04  1.09868E+04  5.73362E+03  2.13137E+04
 -1.35653E+04  1.00572E+04 -1.14458E+04 -7.99557E+03  5.40955E+03 -1.17513E+04  1.86152E+04  5.46680E+03
  1.51999E+04  2.28553E+04 -5.20222E+03  2.74385E+04 -2.36678E+04  1.49100E+04 -3.25071E+04 -2.45020E+03
 -2.65857E+04 -1.89189E+04 -1.23900E+04 -2.62307E+04  4.28279E+03 -2.71494E+04  2.07574E+04 -2.38346E+04
  3.28680E+04 -1.47017E+04  3.95647E+04  5.56529E+03  2.78898E+04  2.55050E+04  4.08259E+03  4.23527E+04
 -1.97131E+04  3.44215E+04 -3.14172E+04  1.20305E+04 -2.29320E+04 -1.02250E+04 -4.96711E+03 -1.22340E+04
  5.75429E+02 -7.64340E+02 -8.32849E+03  8.75476E+03 -2.11039E+04  4.89301E+03 -2.11323E+04 -1.02124E+04
 -1.25523E+04 -2.44695E+04  5.51424E+03 -2.87637E+04  1.91262E+04 -2.03931E+04  2.38579E+04 -2.15624E+03
  1.53942E+04  1.70150E+04 -1.29777E+03  2.43697E+04 -1.75579E+04  1.39323E+04 -2.51808E+04 -4.54727E+03
 -1.82170E+04 -2.16712E+04 -1.91470E+03 -2.88034E+04  1.32411E+04 -2.44689E+04  2.39653E+04 -1.28138E+04
  2.28400E+04 -5.49256E+02  1.64167E+04  5.09987E+03  8.59864E+03  1.67136E+03  1.29610E+04 -1.82818E+03
  2.31239E+04  2.46622E+03  2.69414E+04  1.89554E+04  1.86773E+04  3.93869E+04 -2.99275E+03  4.65189E+04
 -2.62399E+04  3.87147E+04 -4.37845E+04  2.00262E+04 -4.70179E+04 -3.96405E+03 -3.84119E+04 -2.77041E+04
 -1.50156E+04 -3.92937E+04  1.37460E+04 -3.43799E+04  2.90852E+04 -1.55736E+04  2.52903E+04  8.81454E+03
  8.47116E+03  1.97588E+04 -1.21078E+04  1.64285E+04 -2.09244E+04  2.92781E+03 -1.62741E+04 -1.31932E+04
 -6.02948E+02 -1.98189E+04  1.09223E+04 -1.49357E+04  1.38164E+04 -1.44605E+03  3.84383E+03  9.22967E+03
 -8.96132E+03  4.30837E+03 -9.51166E+03 -7.28613E+03 -2.53252E+03 -1.91077E+04  1.25430E+04 -2.09126E+04
  2.42042E+04 -1.20062E+04  2.76844E+04  3.34087E+03  2.44222E+04  1.96730E+04  1.15034E+04  3.10095E+04
 -5.98477E+03  3.29318E+04 -2.16442E+04  2.04927E+04 -2.40262E+04  4.04102E+03 -1.63034E+04 -6.50316E+03
 -6.29351E+03 -7.95035E+03 -5.57217E+02  2.35760E+02 -3.20774E+03  3.45174E+03 -7.84019E+03  5.50925E+03
 -1.48894E+04 -7.74904E+02 -1.56940E+04 -1.22829E+04 -6.04413E+03 -2.02954E+04  6.63081E+03 -1.65379E+04
  1.35926E+04 -6.72165E+03  9.89443E+03  4.38887E+03 -6.78286E+02  6.77589E+03 -8.23073E+03 -1.33303E+01
 -8.00062E+03 -1.08968E+04 -1.22676E+03 -1.65147E+04  9.58743E+03 -1.73754E+04  2.13521E+04 -9.43354E+03
  2.47363E+04  2.46228E+03  1.81121E+04  1.51501E+04  3.79057E+03  2.05591E+04 -1.00360E+04  1.59660E+04
 -1.33930E+04  4.58529E+03 -6.74891E+03 -3.72279E+03  2.42634E+03 -4.85901E+03  8.98042E+03 -1.06804E+03
  7.61190E+03  7.50923E+03  1.15510E+03  1.33789E+04 -9.58989E+03  1.25049E+04 -1.66499E+04  3.23883E+03
 -1.12628E+04 -8.68623E+03  2.28363E+02 -1.41386E+04  9.18102E+03 -7.32128E+03  1.00433E+04  3.41363E+03
  2.72524E+03  1.09465E+04 -8.82094E+03  1.25172E+04 -1.48558E+04  4.98466E+03 -1.51973E+04 -6.02725E+03
 -8.43828E+03 -1.70962E+04  4.35109E+03 -1.91316E+04  1.70972E+04 -1.13250E+04  1.85985E+04  3.60617E+03
  1.02602E+04  1.42483E+04 -1.72956E+03  1.66150E+04 -1.21510E+04  9.27014E+03 -1.37533E+04 -1.31609E+03
 -1.15379E+04 -1.10591E+04 -1.68685E+03 -1.29367E+04  6.49555E+03 -1.01393E+04  8.49889E+03 -3.62536E+03
  5.25311E+03  2.24615E+03 -1.14353E+03  2.21754E+03 -1.11976E+03 -3.57944E+03  2.65973E+03 -8.55562E+03
  1.20027E+04 -5.32119E+03  1.73558E+04  1.94800E+03  1.69959E+04  1.19236E+04  1.08737E+04  2.28919E+04
 -5.12361E+03  2.57725E+04 -2.10887E+04  1.87061E+04 -2.76803E+04  3.68719E+03 -2.20233E+04 -9.66328E+03
 -1.13252E+04 -1.82032E+04 -4.56147E+02 -1.51403E+04  5.72093E+03 -8.94442E+03  5.65687E+03 -5.53177E+03
  4.31311E+03 -3.22926E+03  3.90912E+03 -4.04147E+03  6.17572E+03 -3.91344E+03  8.67556E+03 -1.47176E+03
  1.16102E+04  2.16601E+03  6.52532E+03  9.85939E+03 -2.42364E+03  1.18974E+04 -1.23268E+04  9.48087E+03
 -1.55404E+04 -1.14647E+03 -1.04518E+04 -1.14322E+04 -1.38268E+03 -1.74416E+04  9.20096E+03 -1.73791E+04
  1.80123E+04 -9.45163E+03  2.11691E+04  2.86352E+03  1.48126E+04  1.51102E+04  2.38744E+03  1.86451E+04
 -7.93315E+03  1.53922E+04 -1.08254E+04  5.37391E+03 -7.93334E+03 -1.61437E+03 -3.44119E+03 -2.25168E+03
 -1.65025E+03 -3.98559E+02 -2.76862E+03  3.04768E+03 -6.83717E+03  2.77138E+03 -1.07856E+04 -1.72240E+03
 -7.76289E+03 -1.10902E+04 -8.51540E+00 -1.55108E+04  1.00301E+04 -1.49167E+04  1.63019E+04 -4.32065E+03
  1.59418E+04  7.46678E+03  7.49472E+03  1.42457E+04 -3.31068E+03  1.60677E+04 -1.18809E+04  1.02190E+04
 -1.46829E+04  1.95470E+02 -1.14978E+04 -9.78731E+03 -9.03483E+02 -1.35567E+04  7.21351E+03 -9.94766E+03
  1.02622E+04 -3.58282E+03  6.84858E+03  3.06095E+03  2.53542E+03  4.78385E+03  1.64110E+03  1.83140E+03
  3.36310E+03  1.29693E+03  4.01184E+03  1.92184E+03  4.76178E+03  5.74671E+03  3.89533E+03  8.67745E+03
 -3.22708E+03  1.30726E+04 -1.14983E+04  1.26388E+04 -1.66193E+04  3.17464E+03 -1.68697E+04 -7.64700E+03
 -8.74946E+03 -1.63769E+04  1.81085E+03 -1.79189E+04  1.01877E+04 -1.14910E+04  1.34386E+04 -2.86655E+03
  1.03926E+04  6.18309E+03  2.29029E+03  9.11376E+03 -4.76667E+03  5.66046E+03 -7.03534E+03 -1.18259E+03
 -3.53982E+03 -7.04603E+03  3.92133E+03 -6.87450E+03  6.91752E+03 -3.64970E+03  7.04882E+03  1.48205E+03
  4.31143E+03  3.41240E+03  1.47612E+03  3.46147E+03 -7.97347E+02  1.89280E+03  1.81946E+03 -2.03463E+02
  2.82050E+03 -6.33918E+02  6.83934E+03  2.68453E+03  3.78707E+03  8.78192E+03 -1.41090E+03  1.15880E+04
 -7.91732E+03  8.02031E+03 -1.03740E+04  2.19465E+03 -9.23346E+03 -3.48141E+03 -3.79055E+03 -6.84609E+03
  8.54357E+02 -6.75747E+03  4.22785E+03 -2.94032E+03  3.50773E+03  3.49144E+03 -1.43932E+03  5.35270E+03
 -7.06020E+03  3.43328E+03 -8.02520E+03 -3.90903E+03 -4.56944E+03 -9.24548E+03  1.48143E+03 -9.17635E+03
  5.43174E+03 -5.06024E+03  6.71900E+03 -6.46345E+02  5.01312E+03  2.63926E+03  6.67834E+02  4.74266E+03
 -3.31151E+03  1.29739E+03 -3.74734E+03 -3.30116E+03  1.13629E+03 -7.05083E+03  8.04969E+03 -5.95593E+03
  1.14184E+04  1.23372E+03  1.03387E+04  7.49128E+03  3.34278E+03  1.08838E+04 -4.18155E+03  1.01827E+04
 -8.99428E+03  4.63880E+03 -9.44082E+03 -1.54573E+03 -5.12874E+03 -7.14543E+03  1.62476E+03 -6.90495E+03
  6.87928E+03 -3.36260E+03  5.75863E+03  2.77617E+03  2.16331E+03  6.23971E+03 -6.23313E+02  5.57539E+03
 -2.95038E+03  3.86510E+03 -2.93387E+03  1.18975E+03 -8.29283E+02  9.85476E+02 -1.68168E+03  2.09780E+03
 -2.70256E+03  4.30561E+03 -7.21149E+03  3.35846E+03 -1.08036E+04  2.99282E+02 -1.23021E+04 -7.41366E+03
 -6.36839E+03 -1.45769E+04  3.05927E+03 -1.65086E+04  1.05699E+04 -1.28825E+04  1.58408E+04 -4.87752E+03
  1.44901E+04  3.09883E+03  8.64671E+03  1.03279E+04  1.09057E+03  1.11613E+04 -4.81841E+03  8.77918E+03
 -6.51011E+03  3.22535E+03 -3.90666E+03 -1.12000E+03 -1.66576E+03 -9.88062E+02 -1.24493E+03 -1.05446E+02
 -1.72318E+03  4.05091E+02 -2.18899E+03 -6.39713E+02 -6.87142E+02 -2.92808E+03  7.12990E+02 -4.30248E+03
  4.93876E+03 -3.83553E+03  7.02078E+03  4.98161E+01  8.16599E+03  5.77962E+03  1.96128E+03  1.15832E+04
 -5.42714E+03  1.26748E+04 -1.18370E+04  7.65535E+03 -1.35268E+04 -1.14075E+03 -1.03729E+04 -8.59617E+03
 -4.27819E+03 -1.16789E+04  3.47170E+03 -1.07431E+04  7.27279E+03 -6.10479E+03  7.41093E+03 -1.35811E+02
  4.18523E+03  3.78346E+03 -6.53984E+02  3.39724E+03 -2.09452E+03 -5.51072E+02  2.00498E+02 -3.16565E+03
  3.55742E+03 -1.65870E+03  4.59721E+03  1.29242E+03  2.89441E+03  4.57808E+03  3.08173E+02  5.76351E+03
 -4.92057E+03  5.10803E+03 -7.74929E+03  6.67191E+02 -6.95845E+03 -5.61978E+03 -9.70803E+02 -9.47337E+03
  5.38978E+03 -8.07831E+03  8.77115E+03 -2.73566E+03  8.71979E+03  2.30185E+03  4.96722E+03  6.99975E+03
  1.13122E+03  7.59564E+03 -3.07871E+03  6.50540E+03 -4.51679E+03  3.39575E+03 -4.20673E+03  2.04241E+02
 -2.41915E+03 -4.80369E+02 -2.14901E+03  5.86734E+02 -3.95062E+03  1.30265E+03 -5.77055E+03 -1.42706E+03
 -5.16032E+03 -4.42286E+03 -1.81892E+03 -7.88767E+03  3.64618E+03 -8.20437E+03  7.01025E+03 -3.91756E+03
  7.64772E+03  7.94501E+02  4.49094E+03  5.38427E+03 -1.66811E+02  7.60239E+03 -5.74787E+03  4.41463E+03
