 $NMID ID='MM_0lb_SNR800_8hz_g40_90.RAW', FMTDAT='(8E13.5)'
 TRAMP=1., VOLUME=1. $END
  3.09805E+05  2.32078E+02  3.37707E+05  2.50703E+05  8.47902E+04  3.38627E+05 -1.32446E+05  2.51685E+05
 -1.91144E+05  8.35723E+04 -1.12410E+05 -3.26682E+04  2.54010E+02 -5.09275E+04  5.34615E+04 -4.64041E+02
  3.57371E+04  5.31068E+04 -1.67395E+04  7.62471E+04 -6.15069E+04  6.42127E+04 -8.55115E+04  3.29274E+04
 -8.24601E+04 -1.13903E+04 -5.79568E+04 -5.25603E+04 -1.53372E+04 -7.07926E+04  2.85469E+04 -4.65651E+04
  4.12750E+04  4.02145E+03  1.68503E+04  4.85161E+04 -3.47287E+04  4.86552E+04 -6.80546E+04  3.04901E+01
 -5.51157E+04 -5.72706E+04 -7.01508E+03 -7.92908E+04  3.43105E+04 -5.72817E+04  5.00882E+04 -1.80651E+04
  4.53805E+04  1.14646E+04  3.31651E+04  2.65063E+04  1.57760E+04  3.02327E+04 -5.81410E+03  2.76791E+04
 -2.23057E+04  1.20741E+04 -1.80905E+04 -5.57904E+03  6.95955E+03 -7.52399E+03  2.32339E+04  1.34799E+04
  6.89070E+03  3.76154E+04 -3.43242E+04  3.71398E+04 -6.57430E+04  2.01323E+03 -5.88930E+04 -4.42524E+04
 -1.24734E+04 -6.58963E+04  4.19720E+04 -4.75115E+04  6.15223E+04 -2.46380E+03  3.68367E+04  3.41523E+04
 -5.31559E+03  3.95893E+04 -3.19538E+04  1.88493E+04 -3.33177E+04 -3.64868E+03 -1.92532E+04 -1.19363E+04
 -9.79945E+03 -1.53374E+04 -4.00881E+02 -2.01354E+04  8.28143E+03 -2.35668E+04  1.60408E+04 -1.25467E+04
  1.02985E+04  5.78678E+03 -1.05372E+04  1.27049E+04 -2.34911E+04 -6.43209E+03 -8.52396E+03 -3.74740E+04
  2.51480E+04 -4.66698E+04  5.19651E+04 -2.12433E+04  4.86475E+04  2.11277E+04  1.74095E+04  4.68753E+04
 -1.67772E+04  3.63304E+04 -2.76897E+04  2.82913E+03 -1.13732E+04 -2.95162E+04  2.11837E+04 -3.71039E+04
  4.47096E+04 -1.10836E+04  4.05373E+04  2.43102E+04  2.15984E+04  5.11624E+04 -8.49883E+03  5.63544E+04
 -3.53044E+04  3.82570E+04 -4.77460E+04  1.12105E+04 -4.75399E+04 -1.92934E+04 -2.62125E+04 -4.22790E+04
  7.67121E+03 -4.20880E+04  3.39785E+04 -1.70699E+04  3.25783E+04  1.11651E+04  5.27000E+03  2.08288E+04
 -1.41696E+04  9.81922E+03 -1.12345E+04 -7.55512E+03  5.59891E+03 -1.11900E+04  1.87925E+04  5.80519E+03
  1.48732E+04  2.25405E+04 -5.47095E+03  2.67533E+04 -2.34302E+04  1.40992E+04 -3.19636E+04 -2.81719E+03
 -2.54192E+04 -1.88823E+04 -1.18992E+04 -2.52638E+04  4.35797E+03 -2.57535E+04  1.99100E+04 -2.29735E+04
  3.26148E+04 -1.42743E+04  3.83966E+04  5.17806E+03  2.71871E+04  2.45415E+04  4.32193E+03  4.08958E+04
 -1.97324E+04  3.42492E+04 -3.04957E+04  1.16779E+04 -2.23846E+04 -1.04236E+04 -4.85906E+03 -1.30092E+04
  4.25926E+02 -1.10573E+03 -7.69984E+03  8.43403E+03 -2.07316E+04  4.97158E+03 -2.04325E+04 -9.33725E+03
 -1.21942E+04 -2.34889E+04  5.82673E+03 -2.83903E+04  1.90666E+04 -1.94495E+04  2.29061E+04 -1.78505E+03
  1.47085E+04  1.60507E+04 -8.40221E+02  2.35640E+04 -1.69412E+04  1.35027E+04 -2.38138E+04 -4.94801E+03
 -1.72110E+04 -2.11978E+04 -2.09631E+03 -2.81133E+04  1.22501E+04 -2.36455E+04  2.32641E+04 -1.22468E+04
  2.20343E+04 -1.78827E+02  1.55453E+04  4.82682E+03  9.12821E+03  1.58506E+03  1.19962E+04 -2.18768E+03
  2.26158E+04  3.05518E+03  2.59772E+04  1.83585E+04  1.78317E+04  3.76845E+04 -2.50677E+03  4.49824E+04
 -2.59363E+04  3.72460E+04 -4.20800E+04  1.95879E+04 -4.50324E+04 -3.40120E+03 -3.65159E+04 -2.63536E+04
 -1.44792E+04 -3.77010E+04  1.32612E+04 -3.31961E+04  2.81671E+04 -1.55224E+04  2.46678E+04  7.78070E+03
  8.19087E+03  1.88236E+04 -1.14343E+04  1.56343E+04 -2.06027E+04  2.45901E+03 -1.56268E+04 -1.34787E+04
 -7.08432E+02 -1.92410E+04  1.04201E+04 -1.45320E+04  1.36585E+04 -1.34266E+03  3.67920E+03  9.00705E+03
 -8.89695E+03  4.22554E+03 -9.08587E+03 -7.19279E+03 -1.75375E+03 -1.86235E+04  1.23663E+04 -1.99735E+04
  2.32986E+04 -1.14274E+04  2.68211E+04  3.59655E+03  2.35884E+04  1.90016E+04  1.12263E+04  2.96280E+04
 -5.65301E+03  3.17148E+04 -2.10006E+04  1.94099E+04 -2.33066E+04  3.93989E+03 -1.58094E+04 -5.71324E+03
 -6.82815E+03 -7.41799E+03 -8.70805E+02 -6.33737E+01 -2.81042E+03  3.33301E+03 -7.88009E+03  5.67255E+03
 -1.42376E+04 -9.44522E+02 -1.51480E+04 -1.21347E+04 -6.03164E+03 -1.93977E+04  6.50769E+03 -1.61917E+04
  1.31591E+04 -6.74949E+03  9.15187E+03  4.53203E+03 -3.92614E+02  6.57705E+03 -7.91782E+03  2.08507E+02
 -7.99383E+03 -1.00354E+04 -1.14263E+03 -1.60669E+04  9.23567E+03 -1.68423E+04  2.07508E+04 -8.61202E+03
  2.39391E+04  2.40600E+03  1.75189E+04  1.42199E+04  3.45718E+03  1.96346E+04 -9.86408E+03  1.60702E+04
 -1.24451E+04  4.78347E+03 -6.51795E+03 -3.58265E+03  2.86038E+03 -4.58280E+03  8.21683E+03 -8.67260E+02
  7.74876E+03  7.34093E+03  1.09572E+03  1.32626E+04 -9.56116E+03  1.26666E+04 -1.57281E+04  3.31978E+03
 -1.14214E+04 -8.31099E+03  8.73950E+01 -1.39062E+04  9.20069E+03 -6.74782E+03  9.59345E+03  3.21639E+03
  2.36618E+03  1.01353E+04 -8.34355E+03  1.17807E+04 -1.43446E+04  5.74387E+03 -1.43294E+04 -5.11438E+03
 -8.54360E+03 -1.64466E+04  4.49636E+03 -1.87757E+04  1.59428E+04 -1.09424E+04  1.73236E+04  3.10501E+03
  1.05826E+04  1.40185E+04 -1.42730E+03  1.66210E+04 -1.19678E+04  9.01708E+03 -1.32630E+04 -1.31475E+03
 -1.14241E+04 -1.09287E+04 -1.51385E+03 -1.26970E+04  6.61717E+03 -9.68542E+03  7.99045E+03 -4.18554E+03
  5.10561E+03  2.14313E+03 -1.43527E+03  2.28783E+03 -1.20249E+03 -3.69788E+03  2.78444E+03 -7.90315E+03
  1.14257E+04 -5.19029E+03  1.68747E+04  2.12902E+03  1.62101E+04  1.16340E+04  1.06824E+04  2.17230E+04
 -5.41378E+03  2.51348E+04 -2.05932E+04  1.85963E+04 -2.67720E+04  3.56556E+03 -2.12723E+04 -9.21225E+03
 -1.06400E+04 -1.78635E+04 -8.04333E+01 -1.52501E+04  5.18748E+03 -8.33597E+03  5.63872E+03 -5.93089E+03
  3.62052E+03 -3.09022E+03  3.63336E+03 -3.90516E+03  5.87369E+03 -3.64545E+03  8.62901E+03 -1.82636E+03
  1.12176E+04  2.67728E+03  6.31803E+03  9.86459E+03 -2.47520E+03  1.23705E+04 -1.17384E+04  8.98981E+03
 -1.53534E+04 -1.37124E+03 -1.03163E+04 -1.10229E+04 -1.17492E+03 -1.66583E+04  9.28717E+03 -1.63313E+04
  1.70607E+04 -9.37583E+03  2.05269E+04  2.84618E+03  1.41365E+04  1.44295E+04  2.11214E+03  1.89714E+04
 -7.31667E+03  1.49241E+04 -1.05879E+04  5.28559E+03 -7.43234E+03 -2.09018E+03 -2.98984E+03 -2.47058E+03
 -1.80964E+03  1.44187E+01 -2.73901E+03  2.91527E+03 -6.24123E+03  2.72123E+03 -1.09796E+04 -1.62160E+03
 -7.92930E+03 -1.02762E+04 -3.03109E+01 -1.52935E+04  9.38828E+03 -1.42709E+04  1.62000E+04 -4.19050E+03
  1.56517E+04  7.25592E+03  7.52144E+03  1.38601E+04 -2.87539E+03  1.56752E+04 -1.14328E+04  9.80877E+03
 -1.49179E+04  2.58679E+02 -1.13062E+04 -9.45062E+03 -1.73738E+03 -1.29974E+04  7.01645E+03 -9.89534E+03
  1.00507E+04 -3.05114E+03  6.61709E+03  2.71092E+03  2.70881E+03  4.45660E+03  1.14026E+03  2.34539E+03
  2.66138E+03  1.38016E+03  4.07245E+03  2.09941E+03  4.38052E+03  5.14641E+03  4.44988E+03  8.32848E+03
 -2.89193E+03  1.26188E+04 -1.08221E+04  1.24913E+04 -1.64460E+04  3.13949E+03 -1.68090E+04 -6.90445E+03
 -8.40762E+03 -1.63321E+04  2.44919E+03 -1.74493E+04  9.63135E+03 -1.11007E+04  1.33342E+04 -2.81399E+03
  1.01479E+04  6.11359E+03  2.19856E+03  9.18042E+03 -4.63366E+03  6.08287E+03 -6.82806E+03 -9.66071E+02
 -3.48260E+03 -7.41520E+03  3.47129E+03 -7.50994E+03  6.63025E+03 -3.46615E+03  6.71704E+03  1.60574E+03
  3.77846E+03  3.48865E+03  1.95193E+03  2.76651E+03 -1.04655E+03  1.67412E+03  1.65096E+03 -8.38141E+02
  2.75174E+03 -1.13359E+03  6.31171E+03  3.13480E+03  3.79401E+03  8.73702E+03 -1.62822E+03  1.11763E+04
 -7.85090E+03  8.06980E+03 -1.04716E+04  2.06879E+03 -9.06661E+03 -3.89246E+03 -3.89383E+03 -6.93372E+03
  6.28009E+02 -6.61365E+03  3.96017E+03 -3.08857E+03  3.63679E+03  3.19509E+03 -1.57325E+03  6.36166E+03
 -6.72113E+03  2.96588E+03 -7.80182E+03 -4.08109E+03 -4.31975E+03 -9.19816E+03  1.49253E+03 -9.22614E+03
  5.61893E+03 -5.03625E+03  6.72146E+03 -7.13352E+02  5.06522E+03  2.45138E+03  8.71208E+02  4.65780E+03
 -3.23003E+03  1.64593E+03 -4.44022E+03 -3.39036E+03  1.57042E+03 -6.94601E+03  7.82650E+03 -6.01531E+03
  1.05639E+04  5.20308E+02  9.92790E+03  7.51528E+03  3.38692E+03  1.16514E+04 -4.15264E+03  1.05196E+04
 -8.91575E+03  4.67886E+03 -8.86204E+03 -1.93007E+03 -4.81823E+03 -6.99574E+03  1.66356E+03 -6.87259E+03
  6.44659E+03 -3.68501E+03  5.79085E+03  2.60987E+03  2.20455E+03  5.73486E+03 -8.34341E+02  5.34475E+03
 -3.13872E+03  3.69547E+03 -2.71772E+03  1.38200E+03 -9.46627E+02  1.51053E+03 -1.34257E+03  2.54213E+03
 -3.02792E+03  4.80988E+03 -7.26529E+03  3.74753E+03 -1.12347E+04  4.91368E+02 -1.18448E+04 -7.37320E+03
 -6.53274E+03 -1.47157E+04  2.59176E+03 -1.70673E+04  1.07638E+04 -1.34493E+04  1.56528E+04 -4.66029E+03
  1.49357E+04  3.30650E+03  9.09564E+03  1.04672E+04  6.99870E+02  1.15011E+04 -4.45586E+03  8.80001E+03
 -6.63483E+03  2.99328E+03 -4.06369E+03 -1.75889E+03 -1.13820E+03 -1.30499E+03 -5.08520E+02 -3.68813E+02
 -1.75360E+03  4.49095E+02 -2.33383E+03 -7.16693E+02 -8.55119E+02 -2.94918E+03 -5.01575E+01 -4.53324E+03
  4.99542E+03 -3.76227E+03  7.33944E+03 -3.03889E+02  8.22671E+03  6.51096E+03  2.04764E+03  1.18794E+04
 -5.64230E+03  1.31982E+04 -1.30222E+04  7.89987E+03 -1.46687E+04 -9.04789E+02 -1.08016E+04 -9.03124E+03
 -4.59178E+03 -1.20040E+04  2.97786E+03 -1.10758E+04  7.72484E+03 -5.95671E+03  8.47380E+03  5.74317E+02
  4.18482E+03  4.10594E+03 -4.05207E+02  4.14332E+03 -2.05206E+03 -3.58970E+01  2.02799E+02 -3.03830E+03
  3.53157E+03 -1.95227E+03  5.28742E+03  1.45014E+03  3.84790E+03  4.57462E+03 -1.15808E+02  6.32197E+03
 -4.98134E+03  5.42495E+03 -7.84402E+03  4.56242E+02 -7.28487E+03 -6.06173E+03 -1.37529E+03 -9.48800E+03
  5.69498E+03 -8.48917E+03  9.14167E+03 -2.74216E+03  9.89121E+03  2.51336E+03  5.15243E+03  7.29965E+03
  9.06592E+02  8.26418E+03 -2.86220E+03  6.76725E+03 -5.02223E+03  3.76859E+03 -4.21319E+03  4.62309E+02
 -2.25816E+03 -4.67802E+02 -2.19022E+03  9.98115E+02 -4.17761E+03  1.71959E+03 -6.45516E+03 -9.28351E+02
 -5.38514E+03 -4.31609E+03 -2.04674E+03 -7.86915E+03  3.59908E+03 -7.60637E+03  7.70532E+03 -4.02266E+03
  7.89791E+03  8.30557E+02  4.64432E+03  5.55452E+03 -1.19062E+02  8.39483E+03 -6.10516E+03  5.09860E+03
