 $NMID ID='MM_0lb_SNR800_15hz_g55_34.RAW', FMTDAT='(8E13.5)'
 TRAMP=1., VOLUME=1. $END
  3.09988E+05  2.47458E+02  3.37530E+05  2.50308E+05  8.47067E+04  3.38134E+05 -1.32661E+05  2.51166E+05
 -1.90178E+05  8.32150E+04 -1.11951E+05 -3.27036E+04  7.70191E+02 -5.04692E+04  5.41420E+04 -1.52356E+02
  3.53564E+04  5.31528E+04 -1.65934E+04  7.57010E+04 -6.06457E+04  6.36861E+04 -8.40827E+04  3.20097E+04
 -8.10702E+04 -1.13977E+04 -5.74426E+04 -5.13707E+04 -1.51890E+04 -6.97698E+04  2.75457E+04 -4.59077E+04
  4.02548E+04  4.01001E+03  1.63451E+04  4.81102E+04 -3.42310E+04  4.68515E+04 -6.66676E+04 -1.87029E+02
 -5.34379E+04 -5.67089E+04 -6.53106E+03 -7.71633E+04  3.40451E+04 -5.49145E+04  4.76518E+04 -1.71767E+04
  4.36279E+04  1.11014E+04  3.16120E+04  2.53614E+04  1.56301E+04  2.96841E+04 -5.09912E+03  2.74423E+04
 -2.21105E+04  1.23885E+04 -1.86448E+04 -4.89217E+03  5.65458E+03 -7.56067E+03  2.23348E+04  1.21775E+04
  7.18207E+03  3.54985E+04 -3.23193E+04  3.53673E+04 -6.36000E+04  2.14466E+03 -5.69320E+04 -4.27823E+04
 -1.26253E+04 -6.31511E+04  3.97182E+04 -4.54527E+04  5.80701E+04 -2.26723E+03  3.41929E+04  3.25126E+04
 -5.98062E+03  3.63287E+04 -2.99703E+04  1.59726E+04 -3.07510E+04 -4.73802E+03 -1.65234E+04 -1.13411E+04
 -8.06866E+03 -1.29647E+04 -8.33614E+02 -1.81469E+04  7.44565E+03 -2.30421E+04  1.53291E+04 -1.28922E+04
  1.13981E+04  5.04731E+03 -8.27737E+03  1.29896E+04 -2.12379E+04 -4.39535E+03 -8.34010E+03 -3.39564E+04
  2.29953E+04 -4.36603E+04  4.82620E+04 -1.96805E+04  4.51460E+04  1.98712E+04  1.58979E+04  4.41800E+04
 -1.61080E+04  3.36013E+04 -2.55512E+04  1.71800E+03 -9.84374E+03 -2.77784E+04  2.09492E+04 -3.37136E+04
  4.11535E+04 -9.32974E+03  3.60555E+04  2.35036E+04  1.81244E+04  4.63124E+04 -7.55666E+03  5.01262E+04
 -3.16246E+04  3.40802E+04 -4.20163E+04  9.52522E+03 -4.25690E+04 -1.64804E+04 -2.33289E+04 -3.77932E+04
  7.43879E+03 -3.76741E+04  3.13680E+04 -1.46827E+04  2.94271E+04  1.10862E+04  4.03466E+03  1.94088E+04
 -1.37491E+04  8.03359E+03 -1.06744E+04 -7.35744E+03  5.84859E+03 -1.02343E+04  1.80952E+04  6.12997E+03
  1.34656E+04  2.19919E+04 -6.29570E+03  2.51753E+04 -2.23257E+04  1.16276E+04 -2.77532E+04 -4.76994E+03
 -2.05304E+04 -1.70746E+04 -8.31998E+03 -2.03069E+04  4.11149E+03 -1.94729E+04  1.57811E+04 -1.81959E+04
  2.60997E+04 -1.26378E+04  3.26846E+04  2.80696E+03  2.36683E+04  1.99248E+04  4.15743E+03  3.61155E+04
 -1.77659E+04  3.04450E+04 -2.79265E+04  1.05886E+04 -2.08066E+04 -1.02272E+04 -4.53278E+03 -1.29481E+04
  1.77321E+03 -3.04521E+03 -4.80714E+03  6.36831E+03 -1.60201E+04  5.38804E+03 -1.61399E+04 -6.92499E+03
 -1.01269E+04 -1.87988E+04  5.16753E+03 -2.29699E+04  1.51027E+04 -1.66515E+04  1.81931E+04 -1.56556E+03
  1.11514E+04  1.31366E+04 -1.07001E+03  1.89040E+04 -1.28539E+04  1.10042E+04 -1.89656E+04 -3.89139E+03
 -1.39110E+04 -1.69973E+04 -1.45027E+03 -2.27077E+04  1.05523E+04 -1.88562E+04  1.88207E+04 -9.25438E+03
  1.76785E+04  1.19593E+02  1.29921E+04  4.65443E+03  6.71144E+03  7.60497E+02  9.36755E+03 -1.74763E+03
  1.70047E+04  2.52451E+03  1.92207E+04  1.51788E+04  1.25515E+04  2.97817E+04 -2.72757E+03  3.39228E+04
 -1.97488E+04  2.68370E+04 -3.15652E+04  1.33407E+04 -3.27740E+04 -2.38183E+03 -2.72712E+04 -1.88720E+04
 -1.17632E+04 -2.70737E+04  9.47340E+03 -2.44190E+04  2.12182E+04 -1.24957E+04  1.88883E+04  5.06655E+03
  7.32762E+03  1.42296E+04 -8.83317E+03  1.22969E+04 -1.56609E+04  2.75677E+03 -1.23121E+04 -1.02772E+04
 -3.18381E-01 -1.54521E+04  7.85678E+03 -1.12931E+04  9.94570E+03 -1.20282E+03  2.05552E+03  6.61987E+03
 -6.67590E+03  2.24745E+03 -6.14790E+03 -5.63166E+03 -4.11421E+02 -1.32379E+04  9.33485E+03 -1.38269E+04
  1.62987E+04 -7.58705E+03  1.74501E+04  3.02367E+03  1.53670E+04  1.28039E+04  7.09117E+03  1.97140E+04
 -3.51843E+03  2.15500E+04 -1.39104E+04  1.37468E+04 -1.58646E+04  3.22078E+03 -1.09824E+04 -3.43324E+03
 -5.14322E+03 -4.73702E+03 -4.77764E+02  1.03707E+03 -2.36273E+03  2.44563E+03 -4.96712E+03  3.91865E+03
 -1.05139E+04 -6.07566E+02 -1.09701E+04 -8.61027E+03 -4.35756E+03 -1.43134E+04  4.61748E+03 -1.13123E+04
  9.59379E+03 -4.61813E+03  6.62410E+03  2.75367E+03  5.26632E+02  4.17443E+03 -4.81103E+03  6.21366E+01
 -4.79496E+03 -7.12354E+03 -9.60433E+02 -1.06936E+04  5.77355E+03 -1.10179E+04  1.36192E+04 -5.95763E+03
  1.60701E+04  1.42766E+03  1.14421E+04  8.95986E+03  2.32034E+03  1.22646E+04 -6.79460E+03  1.08384E+04
 -9.00612E+03  3.41353E+03 -4.70155E+03 -2.39946E+03  1.55330E+03 -2.90460E+03  6.20235E+03 -1.27339E+03
  5.23876E+03  4.68748E+03  8.37774E+02  8.33796E+03 -6.08535E+03  8.31920E+03 -1.03992E+04  2.25135E+03
 -6.91787E+03 -5.38329E+03  1.61873E+02 -9.13302E+03  5.51085E+03 -4.43839E+03  5.81971E+03  1.40088E+03
  1.18462E+03  5.81264E+03 -5.28116E+03  6.62830E+03 -7.65518E+03  3.38970E+03 -7.78998E+03 -2.40418E+03
 -4.71979E+03 -8.91308E+03  2.12941E+03 -1.08051E+04  9.20824E+03 -6.72857E+03  9.90349E+03  1.48610E+03
  6.52023E+03  7.98949E+03 -2.40865E+02  1.01515E+04 -7.24611E+03  5.58168E+03 -7.89612E+03 -8.39715E+02
 -7.37466E+03 -6.84553E+03 -1.53143E+03 -7.42075E+03  3.90722E+03 -6.14418E+03  4.02683E+03 -3.22840E+03
  3.48375E+03  7.78076E+02 -2.26621E+02  1.24745E+03  8.88464E+01 -1.32861E+03  5.73916E+02 -3.81190E+03
  6.29819E+03 -1.86998E+03  9.06324E+03  1.05120E+03  8.92748E+03  5.45425E+03  6.51701E+03  1.13720E+04
 -2.36031E+03  1.35411E+04 -1.17393E+04  1.01370E+04 -1.46685E+04  2.10342E+03 -1.18877E+04 -4.52616E+03
 -6.28669E+03 -9.90123E+03 -2.99061E+02 -8.05745E+03  3.34647E+03 -4.10499E+03  2.73083E+03 -2.83644E+03
  1.73191E+03 -2.01413E+03  2.87924E+03 -2.99119E+03  4.35169E+03 -2.09339E+03  5.12570E+03 -4.21936E+02
  6.15562E+03  1.56512E+03  2.21369E+03  5.18702E+03 -1.68767E+03  5.53904E+03 -6.54055E+03  4.51612E+03
 -7.63101E+03 -8.93616E+02 -3.83379E+03 -5.49616E+03 -2.48685E+02 -8.58739E+03  4.53483E+03 -8.45984E+03
  8.57899E+03 -4.88828E+03  1.06841E+04  8.22108E+02  7.33393E+03  6.98761E+03  1.48784E+03  9.62647E+03
 -3.54102E+03  8.37568E+03 -5.77935E+03  2.93241E+03 -3.39692E+03 -1.45598E+03 -8.88597E+02 -1.08765E+03
 -5.63270E+02  1.53627E+02 -1.18602E+03  2.49474E+03 -3.33006E+03  1.82108E+03 -6.00178E+03 -7.70548E+02
 -2.85592E+03 -5.88373E+03  4.70418E+02 -7.31226E+03  4.75945E+03 -7.27161E+03  6.52694E+03 -1.90897E+03
  7.19888E+03  3.49715E+03  3.50469E+03  6.03598E+03 -1.04747E+03  7.25017E+03 -4.92851E+03  4.42637E+03
 -6.85368E+03  5.13978E+02 -5.74753E+03 -4.12181E+03 -5.34654E+02 -5.59254E+03  3.02226E+03 -4.53768E+03
  4.58448E+03 -1.72812E+03  3.04109E+03  1.17647E+03  1.21154E+03  2.67290E+03  1.17859E+03  8.84053E+02
  2.07260E+03  3.46559E+02  1.70410E+03  1.22250E+03  2.33789E+03  3.40550E+03  1.98962E+03  3.34965E+03
 -1.61653E+03  5.28451E+03 -4.52999E+03  5.83579E+03 -6.39983E+03  1.50646E+03 -6.98446E+03 -2.18344E+03
 -3.54305E+03 -6.56101E+03  1.12326E+03 -8.03981E+03  3.86570E+03 -4.76815E+03  5.38763E+03 -1.43916E+03
  4.14600E+03  3.11433E+03  1.00255E+03  3.99040E+03 -1.56992E+03  2.36604E+03 -2.35580E+03 -2.45785E+02
 -1.33565E+03 -2.71109E+03  1.82737E+03 -2.88139E+03  2.74121E+03 -1.48150E+03  2.32271E+03  5.20621E+02
  1.62911E+03  9.24151E+02  8.51168E+02  4.85954E+02 -3.69135E+02  1.01698E+03  1.49737E+03 -5.75858E+02
  4.28295E+02 -4.41439E+02  2.98903E+03  8.83380E+02  1.18135E+03  3.76189E+03 -5.09007E+02  4.88812E+03
 -3.05348E+03  2.47762E+03 -3.96866E+03  8.06244E+02 -3.80840E+03 -1.32845E+03 -1.40291E+03 -2.14585E+03
  4.45443E+02 -2.54057E+03  1.57553E+03 -1.25932E+03  1.45619E+03  1.62672E+03 -6.99895E+02  1.77541E+03
 -2.50829E+03  1.43058E+03 -2.48652E+03 -2.07961E+03 -1.70781E+03 -3.67913E+03  3.46710E+02 -3.49314E+03
  1.57555E+03 -1.22154E+03  2.15262E+03 -1.83140E+02  2.24607E+03  4.47110E+02  1.42060E+02  2.03260E+03
 -9.45682E+02  1.30654E+02 -1.68959E+03 -6.78120E+02  8.34038E+02 -1.90296E+03  2.88127E+03 -1.83539E+03
  2.93497E+03  4.28840E+02  4.38220E+03  1.91157E+03  1.57659E+03  3.39984E+03 -9.61471E+02  3.38369E+03
 -2.83905E+03  1.15203E+03 -3.02821E+03 -4.44802E+02 -1.72595E+03 -2.25596E+03  4.46573E+02 -1.77906E+03
  2.60078E+03 -1.52117E+03  1.56490E+03  9.87082E+02  6.45750E+02  2.52045E+03  1.41590E+02  1.85958E+03
 -9.63203E+02  1.64599E+03 -8.37479E+02  1.99690E+02 -3.17704E+02  4.52738E+02 -9.44802E+02  7.01456E+02
 -9.31860E+02  2.01473E+03 -2.77462E+03  9.44925E+02 -3.30663E+03  7.22191E+01 -4.21740E+03 -2.35458E+03
 -1.75478E+03 -4.49618E+03  9.51207E+02 -5.58766E+03  2.96364E+03 -4.47880E+03  5.45540E+03 -1.59760E+03
  4.58834E+03  5.20974E+02  2.79916E+03  3.07268E+03 -4.45683E+02  3.39576E+03 -1.25013E+03  2.66011E+03
 -2.12171E+03  1.01523E+03 -1.41837E+03 -5.40304E+02 -6.41471E+02 -1.41566E+02 -6.18521E+02 -7.56319E+01
 -1.06872E+03 -8.30381E+00 -9.98900E+02 -5.30956E+00 -2.80453E+01 -1.11308E+03 -3.83723E+02 -1.37643E+03
  1.94911E+03 -8.52603E+02  1.43610E+03 -2.13602E+02  1.89057E+03  1.70991E+03 -2.08920E+02  3.13951E+03
 -1.48062E+03  4.24964E+03 -3.54128E+03  2.17248E+03 -3.74664E+03 -2.09410E+02 -2.85040E+03 -2.72899E+03
 -1.44085E+03 -3.13774E+03  5.76823E+02 -2.89320E+03  1.90886E+03 -1.30208E+03  1.75587E+03  2.57899E+02
  8.57523E+02  1.00272E+03  8.55398E+01  1.23332E+03 -2.78959E+02  1.72950E+02  1.28603E+02 -6.19781E+02
  9.72423E+02 -1.72237E+02  5.94083E+02  6.27373E+02  2.76201E+02  1.12173E+03  4.13677E+02  1.38811E+03
 -1.01978E+03  1.12359E+03 -1.63503E+03  1.13374E+02 -2.08526E+03 -1.38467E+03 -2.50709E+01 -2.87403E+03
  1.28225E+03 -1.98215E+03  1.56653E+03 -5.58076E+02  2.20120E+03  5.74592E+01  1.06731E+03  1.75044E+03
  6.98625E+02  1.69642E+03 -4.67907E+02  1.63854E+03 -7.98270E+02  1.01380E+03 -8.59459E+02  2.76336E+02
 -4.02997E+02 -2.14903E+02 -9.67783E+02  6.70225E+02 -1.11239E+03 -1.58590E+01 -1.45071E+03 -4.75179E+02
 -1.83543E+03 -5.09475E+02 -4.24025E+02 -2.35755E+03  1.45670E+03 -2.65488E+03  2.08568E+03 -8.03180E+02
  1.93926E+03  3.15136E+02  2.01603E+02  8.30287E+02 -2.13856E+02  1.97266E+03 -1.39388E+03  1.47461E+03
