 $NMID ID='MM_0lb_SNR800_13hz_g60_51.RAW', FMTDAT='(8E13.5)'
 TRAMP=1., VOLUME=1. $END
  3.09490E+05  6.57548E+02  3.37796E+05  2.50660E+05  8.47741E+04  3.38399E+05 -1.32492E+05  2.51736E+05
 -1.90619E+05  8.34782E+04 -1.12049E+05 -3.23901E+04  5.07474E+02 -5.05268E+04  5.35396E+04 -4.33273E+02
  3.56433E+04  5.29867E+04 -1.66645E+04  7.57594E+04 -6.12082E+04  6.42646E+04 -8.50038E+04  3.26878E+04
 -8.15313E+04 -1.16187E+04 -5.80743E+04 -5.18772E+04 -1.54223E+04 -7.04769E+04  2.76128E+04 -4.61801E+04
  4.09149E+04  3.86898E+03  1.64106E+04  4.83967E+04 -3.46537E+04  4.77954E+04 -6.76563E+04 -8.27732E+00
 -5.39939E+04 -5.73539E+04 -6.79737E+03 -7.82598E+04  3.44620E+04 -5.62127E+04  4.89214E+04 -1.76325E+04
  4.44512E+04  1.13985E+04  3.22609E+04  2.59525E+04  1.61992E+04  3.01210E+04 -5.30273E+03  2.75960E+04
 -2.22679E+04  1.19060E+04 -1.81438E+04 -5.48280E+03  6.56707E+03 -7.81964E+03  2.28381E+04  1.32025E+04
  7.17580E+03  3.63430E+04 -3.30762E+04  3.63371E+04 -6.50184E+04  1.94089E+03 -5.80954E+04 -4.40062E+04
 -1.27892E+04 -6.46626E+04  4.07571E+04 -4.65827E+04  5.95833E+04 -2.00959E+03  3.55712E+04  3.31608E+04
 -5.73094E+03  3.77822E+04 -3.07964E+04  1.74974E+04 -3.19974E+04 -3.91225E+03 -1.80360E+04 -1.15454E+04
 -9.27835E+03 -1.41828E+04 -4.51388E+02 -1.89701E+04  8.25856E+03 -2.34602E+04  1.55126E+04 -1.29753E+04
  1.10503E+04  5.80393E+03 -9.21436E+03  1.32579E+04 -2.27333E+04 -5.26909E+03 -8.52485E+03 -3.58530E+04
  2.38778E+04 -4.49418E+04  4.99954E+04 -2.03011E+04  4.67899E+04  2.03677E+04  1.68217E+04  4.60872E+04
 -1.61718E+04  3.47761E+04 -2.66299E+04  2.04812E+03 -1.04755E+04 -2.90326E+04  2.13226E+04 -3.55766E+04
  4.31949E+04 -1.01924E+04  3.80545E+04  2.47499E+04  1.98660E+04  4.86877E+04 -8.23933E+03  5.31989E+04
 -3.35220E+04  3.60823E+04 -4.47008E+04  1.04048E+04 -4.51160E+04 -1.74451E+04 -2.48813E+04 -4.02251E+04
  7.73858E+03 -4.00686E+04  3.25783E+04 -1.57936E+04  3.06703E+04  1.10917E+04  4.77961E+03  2.01821E+04
 -1.35261E+04  9.31620E+03 -1.06329E+04 -7.56842E+03  5.98856E+03 -1.10140E+04  1.84002E+04  5.27347E+03
  1.38855E+04  2.22463E+04 -5.61456E+03  2.56927E+04 -2.26180E+04  1.24854E+04 -2.95331E+04 -4.10382E+03
 -2.29978E+04 -1.79060E+04 -1.05667E+04 -2.23217E+04  4.41981E+03 -2.23317E+04  1.77644E+04 -2.04234E+04
  2.90447E+04 -1.34250E+04  3.54473E+04  4.07036E+03  2.53564E+04  2.22519E+04  4.02482E+03  3.89274E+04
 -1.89683E+04  3.21126E+04 -2.89156E+04  1.10006E+04 -2.19640E+04 -1.04255E+04 -4.41739E+03 -1.30304E+04
  1.38567E+03 -1.86291E+03 -6.08835E+03  7.40924E+03 -1.77045E+04  5.42488E+03 -1.83788E+04 -8.06136E+03
 -1.09867E+04 -2.12162E+04  5.54296E+03 -2.51960E+04  1.69785E+04 -1.80974E+04  2.06355E+04 -1.62580E+03
  1.27834E+04  1.45872E+04 -1.10298E+03  2.09627E+04 -1.44269E+04  1.17341E+04 -2.10866E+04 -4.35097E+03
 -1.56662E+04 -1.87655E+04 -1.49276E+03 -2.53749E+04  1.10774E+04 -2.08538E+04  2.08532E+04 -1.07220E+04
  1.98267E+04  1.11897E+02  1.39183E+04  4.75890E+03  7.70290E+03  1.29009E+03  1.09213E+04 -1.50855E+03
  1.94801E+04  2.81409E+03  2.18906E+04  1.64182E+04  1.44350E+04  3.32652E+04 -2.60653E+03  3.84872E+04
 -2.18685E+04  3.19180E+04 -3.58769E+04  1.58573E+04 -3.81518E+04 -2.75138E+03 -3.12444E+04 -2.19641E+04
 -1.30566E+04 -3.16869E+04  1.10302E+04 -2.83747E+04  2.43079E+04 -1.37399E+04  2.15874E+04  6.35341E+03
  7.68481E+03  1.61767E+04 -9.96506E+03  1.42114E+04 -1.77425E+04  2.53425E+03 -1.34519E+04 -1.08816E+04
  3.11687E+00 -1.67977E+04  8.93091E+03 -1.26183E+04  1.17508E+04 -9.28874E+02  2.91517E+03  7.42699E+03
 -8.05248E+03  3.52719E+03 -7.33300E+03 -6.22000E+03 -9.15922E+02 -1.51691E+04  1.04975E+04 -1.64854E+04
  1.91506E+04 -8.98866E+03  2.11248E+04  2.94784E+03  1.84216E+04  1.51538E+04  8.84775E+03  2.42225E+04
 -3.98520E+03  2.58891E+04 -1.65251E+04  1.59522E+04 -1.85374E+04  3.29657E+03 -1.32525E+04 -4.39503E+03
 -5.90859E+03 -5.95741E+03 -8.67267E+02  1.07640E+03 -2.67905E+03  3.20896E+03 -6.19979E+03  4.74430E+03
 -1.19852E+04 -8.07418E+02 -1.22789E+04 -1.02004E+04 -5.19465E+03 -1.65922E+04  5.35780E+03 -1.34961E+04
  1.08358E+04 -5.55028E+03  7.77361E+03  3.73407E+03 -9.18359E+01  4.93732E+03 -6.25433E+03 -3.57729E+02
 -6.00335E+03 -8.15223E+03 -1.07338E+03 -1.23050E+04  7.10718E+03 -1.29439E+04  1.62123E+04 -7.07119E+03
  1.93192E+04  1.76446E+03  1.38630E+04  1.12542E+04  2.64013E+03  1.51821E+04 -7.95348E+03  1.26751E+04
 -1.05818E+04  3.95065E+03 -5.47896E+03 -2.89692E+03  1.97816E+03 -3.49964E+03  6.74984E+03 -1.04138E+03
  6.49730E+03  5.76371E+03  9.99140E+02  1.04399E+04 -7.49852E+03  9.50407E+03 -1.25814E+04  2.31291E+03
 -8.13193E+03 -6.41360E+03  4.99680E+02 -1.08381E+04  6.55901E+03 -5.60523E+03  7.26344E+03  2.25313E+03
  1.38708E+03  7.51225E+03 -6.41801E+03  8.65231E+03 -1.03203E+04  3.82695E+03 -1.03440E+04 -3.92202E+03
 -5.87034E+03 -1.19812E+04  2.67661E+03 -1.35826E+04  1.16127E+04 -8.38242E+03  1.26196E+04  2.33591E+03
  7.79079E+03  9.88979E+03 -1.17718E+03  1.22154E+04 -9.10240E+03  6.99456E+03 -9.75084E+03 -8.98125E+02
 -8.62473E+03 -8.35294E+03 -1.64015E+03 -9.02926E+03  4.91758E+03 -7.66993E+03  5.92313E+03 -3.56153E+03
  4.06019E+03  1.12234E+03 -6.05133E+02  1.82286E+03 -2.05993E+02 -2.12077E+03  1.71163E+03 -5.18014E+03
  8.33811E+03 -3.01784E+03  1.17204E+04  1.09741E+03  1.17154E+04  7.68431E+03  8.18950E+03  1.50285E+04
 -3.41605E+03  1.73342E+04 -1.47653E+04  1.30658E+04 -1.90300E+04  2.45758E+03 -1.52095E+04 -6.31478E+03
 -7.67802E+03 -1.28135E+04 -8.73219E+01 -1.04170E+04  3.79305E+03 -5.67514E+03  3.87298E+03 -4.03853E+03
  2.31523E+03 -2.48913E+03  3.02617E+03 -3.22318E+03  4.95920E+03 -2.55188E+03  6.05746E+03 -1.68123E+02
  7.69243E+03  1.63010E+03  3.81480E+03  6.96140E+03 -1.95043E+03  7.60828E+03 -8.17733E+03  6.20991E+03
 -1.04945E+04 -1.24478E+03 -6.27243E+03 -7.08076E+03 -3.89438E+02 -1.11538E+04  6.50770E+03 -1.12260E+04
  1.13253E+04 -6.25185E+03  1.36010E+04  1.60761E+03  9.83183E+03  9.66115E+03  1.68318E+03  1.23116E+04
 -4.95680E+03  1.05717E+04 -7.37330E+03  3.79821E+03 -5.02682E+03 -1.37444E+03 -1.78857E+03 -1.56720E+03
 -1.12426E+03  1.47111E+02 -1.64435E+03  2.62421E+03 -4.27917E+03  1.83164E+03 -7.20471E+03 -6.08392E+02
 -4.88941E+03 -7.32437E+03  5.66586E+02 -9.97027E+03  6.21288E+03 -9.31540E+03  9.34478E+03 -2.73779E+03
  9.38927E+03  4.85647E+03  4.44401E+03  8.34097E+03 -1.96944E+03  1.00439E+04 -6.80895E+03  6.22110E+03
 -9.06032E+03  2.12454E+02 -7.17710E+03 -5.90872E+03 -6.07846E+02 -7.91918E+03  4.04014E+03 -5.86493E+03
  6.15341E+03 -2.46660E+03  4.22103E+03  1.95862E+03  1.24100E+03  3.14234E+03  1.37249E+03  9.14486E+02
  2.23331E+03  8.83155E+02  2.27415E+03  1.61985E+03  2.79587E+03  3.51609E+03  2.62995E+03  4.74484E+03
 -2.14550E+03  7.43093E+03 -6.72709E+03  7.87489E+03 -9.50398E+03  1.93409E+03 -9.92509E+03 -3.58862E+03
 -4.78270E+03 -9.38676E+03  1.47659E+03 -1.04470E+04  5.92360E+03 -6.74019E+03  7.90048E+03 -1.87778E+03
  6.13732E+03  3.49189E+03  1.17140E+03  5.56866E+03 -2.82607E+03  3.14841E+03 -3.82338E+03 -4.97321E+02
 -1.77291E+03 -3.84534E+03  2.20864E+03 -3.47522E+03  3.90516E+03 -2.03288E+03  3.59644E+03  7.34579E+02
  2.25937E+03  1.87342E+03  9.90744E+02  9.89871E+02 -8.04522E+02  1.21843E+03  1.80648E+03 -6.51072E+02
  1.33289E+03 -2.38163E+02  3.96604E+03  1.51440E+03  1.63743E+03  5.35762E+03 -5.87105E+02  6.61367E+03
 -4.14109E+03  3.78965E+03 -5.77004E+03  1.15802E+03 -5.43194E+03 -1.99094E+03 -1.77776E+03 -3.24960E+03
  7.90174E+02 -3.58895E+03  2.32948E+03 -1.53322E+03  1.71523E+03  2.19863E+03 -1.28984E+03  3.02273E+03
 -3.71530E+03  1.72048E+03 -3.94489E+03 -2.42587E+03 -2.07815E+03 -5.04268E+03  3.66816E+02 -4.94842E+03
  2.32102E+03 -2.76465E+03  3.20439E+03 -8.58865E+00  3.01576E+03  9.27062E+02  3.35683E+02  2.64035E+03
 -1.62747E+03  5.86968E+02 -2.05966E+03 -1.41085E+03  1.00240E+03 -3.37684E+03  4.26696E+03 -3.05201E+03
  4.86983E+03  1.66131E+02  5.80877E+03  3.61363E+03  1.85849E+03  5.39059E+03 -1.73653E+03  5.28611E+03
 -4.06492E+03  1.96321E+03 -4.64843E+03 -7.94020E+02 -2.59784E+03 -3.88487E+03  7.60343E+02 -3.11462E+03
  3.59809E+03 -1.48735E+03  2.73630E+03  1.30310E+03  7.23044E+02  2.98869E+03 -4.07379E+02  2.63502E+03
 -1.24120E+03  2.14758E+03 -1.27774E+03  4.03479E+02 -2.39429E+02  1.04336E+03 -8.59009E+02  1.39999E+03
 -1.52116E+03  2.25615E+03 -3.96913E+03  1.83226E+03 -5.22533E+03  4.68199E+01 -6.25346E+03 -3.36225E+03
 -3.35778E+03 -6.95632E+03  1.25896E+03 -8.07151E+03  5.18469E+03 -6.47693E+03  7.55125E+03 -2.43263E+03
  6.98279E+03  1.40667E+03  4.52181E+03  5.03403E+03  1.21769E+02  5.28200E+03 -1.84041E+03  4.24205E+03
 -3.08690E+03  1.64935E+03 -1.46022E+03 -7.11069E+02 -9.35377E+02 -4.69539E+02 -7.86433E+02  2.38358E+02
 -1.62081E+03 -1.93064E+02 -1.41645E+03  1.55142E+02 -2.20533E+02 -1.34203E+03 -3.76187E+02 -2.46314E+03
  2.32083E+03 -1.87947E+03  2.75856E+03  1.32900E+02  3.51383E+03  2.91598E+03  4.75027E+02  5.03565E+03
 -2.59070E+03  6.48111E+03 -5.27074E+03  3.42127E+03 -6.24916E+03 -4.91220E+02 -5.13396E+03 -4.07065E+03
 -2.20871E+03 -5.34249E+03  1.39651E+03 -4.68334E+03  2.94589E+03 -2.47602E+03  3.08214E+03  1.45798E+02
  1.79319E+03  1.78311E+03 -2.53217E+02  1.14174E+03 -8.80254E+02 -1.26843E+02  2.59759E+02 -1.13340E+03
  1.50064E+03 -5.63717E+02  1.85352E+03  6.11502E+02  9.82774E+02  1.89556E+03  6.46814E+01  2.48871E+03
 -1.97982E+03  2.04037E+03 -2.99333E+03  2.81738E+02 -2.63389E+03 -2.44826E+03 -4.52985E+02 -3.96342E+03
  2.09058E+03 -2.57795E+03  3.37427E+03 -8.91247E+02  3.25256E+03  2.61974E+02  2.10484E+03  3.04156E+03
  6.44803E+02  3.21747E+03 -7.74302E+02  2.40788E+03 -1.90718E+03  1.51048E+03 -1.84811E+03  3.36785E+02
 -5.75753E+02  4.83255E+00 -1.11149E+03  2.95856E+02 -1.98101E+03  5.82336E+02 -2.04047E+03 -4.47686E+02
 -2.70414E+03 -1.39496E+03 -9.60870E+02 -3.44840E+03  1.49824E+03 -3.68003E+03  2.92263E+03 -1.39441E+03
  2.94468E+03  2.54792E+02  8.34693E+02  1.85028E+03 -4.06336E+02  2.90459E+03 -2.09883E+03  1.90636E+03
