 $NMID ID='MM_0lb_SNR800_13hz_g40_48.RAW', FMTDAT='(8E13.5)'
 TRAMP=1., VOLUME=1. $END
  3.10014E+05  6.86228E+02  3.37826E+05  2.50583E+05  8.47426E+04  3.37884E+05 -1.32503E+05  2.50868E+05
 -1.90327E+05  8.32389E+04 -1.11966E+05 -3.21927E+04  1.02447E+03 -5.04565E+04  5.40626E+04 -1.48139E+02
  3.55202E+04  5.27052E+04 -1.66657E+04  7.53622E+04 -6.04836E+04  6.35161E+04 -8.41944E+04  3.16906E+04
 -8.10730E+04 -1.14201E+04 -5.71385E+04 -5.13109E+04 -1.50351E+04 -6.97407E+04  2.76168E+04 -4.60127E+04
  3.99217E+04  3.83619E+03  1.62335E+04  4.75669E+04 -3.43467E+04  4.72247E+04 -6.63926E+04 -7.20997E+01
 -5.34008E+04 -5.68788E+04 -6.97160E+03 -7.65439E+04  3.41903E+04 -5.52126E+04  4.75963E+04 -1.74141E+04
  4.32417E+04  1.13213E+04  3.18300E+04  2.55215E+04  1.55557E+04  2.94956E+04 -4.81969E+03  2.72180E+04
 -2.19403E+04  1.24406E+04 -1.85069E+04 -4.91790E+03  5.22308E+03 -7.42014E+03  2.24092E+04  1.24290E+04
  7.10816E+03  3.52540E+04 -3.21444E+04  3.53286E+04 -6.34019E+04  2.20300E+03 -5.67656E+04 -4.24072E+04
 -1.25227E+04 -6.31743E+04  3.96968E+04 -4.52925E+04  5.79008E+04 -2.41493E+03  3.40607E+04  3.21955E+04
 -6.03612E+03  3.60466E+04 -3.00698E+04  1.55156E+04 -3.00786E+04 -4.54289E+03 -1.67357E+04 -1.07134E+04
 -8.30543E+03 -1.31280E+04 -9.42822E+02 -1.81820E+04  7.45666E+03 -2.28581E+04  1.49430E+04 -1.32894E+04
  1.12646E+04  5.23714E+03 -8.25083E+03  1.26001E+04 -2.10790E+04 -4.65059E+03 -8.23106E+03 -3.34211E+04
  2.29198E+04 -4.35045E+04  4.80051E+04 -1.96287E+04  4.52911E+04  1.94984E+04  1.56689E+04  4.41819E+04
 -1.57973E+04  3.34032E+04 -2.52603E+04  1.75844E+03 -9.60650E+03 -2.74306E+04  2.10278E+04 -3.38466E+04
  4.10707E+04 -9.09831E+03  3.54184E+04  2.36567E+04  1.84572E+04  4.61334E+04 -8.09240E+03  5.03825E+04
 -3.13704E+04  3.36848E+04 -4.19992E+04  9.48757E+03 -4.24389E+04 -1.67047E+04 -2.35086E+04 -3.82043E+04
  7.44994E+03 -3.74489E+04  3.12506E+04 -1.46262E+04  2.95052E+04  1.07493E+04  3.61138E+03  1.92729E+04
 -1.32956E+04  8.06355E+03 -1.02829E+04 -7.78330E+03  5.88753E+03 -1.06375E+04  1.79812E+04  5.90948E+03
  1.38127E+04  2.19127E+04 -5.77923E+03  2.51363E+04 -2.22090E+04  1.15435E+04 -2.78332E+04 -4.79711E+03
 -2.04467E+04 -1.73891E+04 -8.47497E+03 -2.00250E+04  3.90523E+03 -1.97462E+04  1.55088E+04 -1.83339E+04
  2.62373E+04 -1.28438E+04  3.27164E+04  2.49863E+03  2.35391E+04  1.99573E+04  4.15860E+03  3.65605E+04
 -1.74584E+04  3.06065E+04 -2.82246E+04  1.04657E+04 -2.07810E+04 -1.03245E+04 -4.37077E+03 -1.34914E+04
  1.66898E+03 -2.55659E+03 -5.01564E+03  6.59159E+03 -1.64214E+04  5.53807E+03 -1.65470E+04 -7.12718E+03
 -1.03146E+04 -1.89650E+04  5.26576E+03 -2.29250E+04  1.52734E+04 -1.65975E+04  1.81699E+04 -1.36120E+03
  1.13509E+04  1.32855E+04 -9.68404E+02  1.88483E+04 -1.32622E+04  1.06268E+04 -1.91494E+04 -4.28577E+03
 -1.41116E+04 -1.71392E+04 -1.85795E+03 -2.30815E+04  1.03400E+04 -1.86313E+04  1.94091E+04 -9.44768E+03
  1.76675E+04  1.98913E+02  1.26611E+04  4.51626E+03  6.88453E+03  8.88789E+02  9.57770E+03 -1.33880E+03
  1.74148E+04  2.69295E+03  1.94932E+04  1.51998E+04  1.29483E+04  3.03279E+04 -3.23324E+03  3.43331E+04
 -1.97714E+04  2.74999E+04 -3.20468E+04  1.38636E+04 -3.34529E+04 -2.45807E+03 -2.80134E+04 -1.94422E+04
 -1.19788E+04 -2.78291E+04  9.34606E+03 -2.48434E+04  2.17905E+04 -1.28467E+04  1.92806E+04  5.52742E+03
  7.51005E+03  1.46138E+04 -9.00014E+03  1.27675E+04 -1.64299E+04  2.37881E+03 -1.26875E+04 -1.03914E+04
 -4.90700E+02 -1.53016E+04  8.39691E+03 -1.16348E+04  1.03455E+04 -1.73295E+03  2.06025E+03  6.69125E+03
 -6.97191E+03  2.59179E+03 -6.21524E+03 -5.64459E+03 -4.86029E+02 -1.34258E+04  9.74232E+03 -1.41160E+04
  1.66520E+04 -7.29403E+03  1.83852E+04  3.27120E+03  1.59339E+04  1.33197E+04  7.34470E+03  2.05914E+04
 -3.20049E+03  2.23877E+04 -1.45763E+04  1.39384E+04 -1.64016E+04  3.27024E+03 -1.16321E+04 -3.41142E+03
 -5.26936E+03 -4.94085E+03 -5.27168E+02  1.11341E+03 -2.46593E+03  2.46021E+03 -5.19693E+03  4.21828E+03
 -1.08479E+04 -4.81181E+02 -1.13782E+04 -9.08074E+03 -4.46351E+03 -1.48040E+04  4.85275E+03 -1.15465E+04
  9.69742E+03 -4.89806E+03  6.95171E+03  3.07015E+03 -8.88877E+01  4.42957E+03 -5.53695E+03 -4.12759E+02
 -5.39288E+03 -7.38444E+03 -8.26980E+02 -1.07282E+04  6.20554E+03 -1.14910E+04  1.42523E+04 -5.92028E+03
  1.69817E+04  1.30498E+03  1.21477E+04  9.70707E+03  2.19671E+03  1.29937E+04 -6.87655E+03  1.18432E+04
 -9.36900E+03  3.44202E+03 -4.94519E+03 -2.17276E+03  1.78495E+03 -3.18526E+03  6.17228E+03 -9.65738E+02
  5.45887E+03  5.01488E+03  9.28224E+02  8.90019E+03 -6.28171E+03  9.00258E+03 -1.09235E+04  2.26560E+03
 -7.28595E+03 -5.48284E+03  1.95060E+02 -9.58094E+03  6.08524E+03 -4.87204E+03  6.08130E+03  2.06750E+03
  1.32834E+03  6.03353E+03 -6.13143E+03  7.38975E+03 -8.79231E+03  3.20550E+03 -8.27247E+03 -3.03461E+03
 -5.18130E+03 -1.00819E+04  2.34349E+03 -1.18519E+04  9.98030E+03 -7.33255E+03  1.08127E+04  1.81074E+03
  6.90171E+03  8.65527E+03 -6.62480E+02  1.10146E+04 -7.71670E+03  6.34084E+03 -8.24474E+03 -5.61923E+02
 -7.70633E+03 -7.80284E+03 -1.59696E+03 -8.25838E+03  4.06687E+03 -6.57490E+03  5.03301E+03 -3.02243E+03
  3.74595E+03  1.02656E+03 -4.07452E+02  1.44203E+03 -6.79090E+01 -1.45943E+03  1.17543E+03 -4.39702E+03
  6.77680E+03 -2.44889E+03  9.52298E+03  1.03210E+03  9.74322E+03  6.70901E+03  7.21557E+03  1.29441E+04
 -2.75652E+03  1.48924E+04 -1.28176E+04  1.11013E+04 -1.68663E+04  1.96243E+03 -1.31596E+04 -5.10065E+03
 -6.71847E+03 -1.09753E+04 -3.02324E+02 -8.83750E+03  3.51955E+03 -4.64943E+03  3.03176E+03 -3.37857E+03
  2.45676E+03 -2.27706E+03  2.88107E+03 -3.00998E+03  4.58409E+03 -2.20161E+03  5.49695E+03 -1.00899E+02
  7.19907E+03  1.31154E+03  3.03240E+03  5.49779E+03 -1.91830E+03  6.32705E+03 -6.96366E+03  5.17150E+03
 -8.91097E+03 -1.11766E+03 -5.01598E+03 -6.22467E+03  1.75979E+02 -9.18446E+03  5.53309E+03 -9.50784E+03
  9.63975E+03 -5.50187E+03  1.15209E+04  1.24908E+03  8.32118E+03  8.08838E+03  1.11304E+03  1.08013E+04
 -4.52066E+03  9.50830E+03 -6.35781E+03  3.07854E+03 -4.10555E+03 -1.11679E+03 -1.42622E+03 -1.19160E+03
 -9.44024E+02 -3.26760E+00 -1.30107E+03  2.21968E+03 -4.12238E+03  1.74498E+03 -6.40032E+03 -6.48971E+02
 -4.03253E+03 -6.47721E+03  3.23127E+02 -8.60226E+03  5.14329E+03 -7.98880E+03  7.71947E+03 -2.56681E+03
  8.07099E+03  4.36766E+03  3.62288E+03  7.57549E+03 -1.74837E+03  8.73799E+03 -5.75026E+03  5.79780E+03
 -7.92682E+03  4.41841E+02 -6.17063E+03 -5.31666E+03 -4.63419E+02 -6.64060E+03  3.62535E+03 -5.08339E+03
  4.95491E+03 -1.49801E+03  3.71931E+03  1.01522E+03  1.45944E+03  2.72358E+03  9.01435E+02  1.09782E+03
  1.97462E+03  9.53822E+02  2.55717E+03  1.25114E+03  2.80007E+03  3.18318E+03  2.02736E+03  4.14118E+03
 -2.04465E+03  6.66557E+03 -5.29465E+03  7.23623E+03 -8.03064E+03  1.89667E+03 -8.68414E+03 -3.08216E+03
 -3.77185E+03 -8.48801E+03  1.15700E+03 -9.20441E+03  4.80321E+03 -5.41797E+03  6.61949E+03 -1.98389E+03
  5.12259E+03  3.34119E+03  1.06116E+03  5.05070E+03 -2.16782E+03  2.83607E+03 -3.20102E+03 -7.09583E+02
 -1.35132E+03 -3.59495E+03  2.26322E+03 -3.41698E+03  3.18871E+03 -1.80706E+03  3.11726E+03  5.62030E+02
  1.58828E+03  1.23983E+03  1.02794E+03  8.10789E+02 -5.74453E+02  1.46168E+03  1.42695E+03 -3.83204E+02
  9.53503E+02 -3.79131E+02  3.56690E+03  1.27558E+03  1.23002E+03  4.58777E+03 -6.53479E+02  5.85100E+03
 -3.84183E+03  3.47999E+03 -4.98820E+03  9.21105E+02 -4.57340E+03 -1.70728E+03 -1.49937E+03 -3.18520E+03
  2.55689E+02 -2.85385E+03  1.96168E+03 -1.15664E+03  1.81671E+03  1.95057E+03 -8.35660E+02  2.56241E+03
 -3.45197E+03  1.40268E+03 -3.50160E+03 -2.37431E+03 -1.77876E+03 -4.36025E+03  3.75659E+02 -4.08488E+03
  1.92258E+03 -2.13742E+03  2.88993E+03 -1.23602E+02  2.86718E+03  6.36643E+02  5.82078E+02  2.42215E+03
 -1.16550E+03  5.81062E+02 -1.79016E+03 -1.28848E+03  8.30909E+02 -3.03501E+03  4.33386E+03 -2.22059E+03
  4.23299E+03  3.36107E+02  5.20465E+03  3.09415E+03  1.90993E+03  5.04821E+03 -1.72324E+03  4.80933E+03
 -3.78136E+03  1.86761E+03 -4.31067E+03 -3.70874E+02 -2.29327E+03 -3.24621E+03  6.76907E+02 -2.56080E+03
  3.15850E+03 -1.57534E+03  2.24024E+03  1.46746E+03  9.10198E+02  2.53018E+03 -4.71244E+02  2.62348E+03
 -1.24251E+03  1.98279E+03 -1.08962E+03  5.48329E+02 -5.18987E+02  6.93895E+02 -9.90479E+02  1.23862E+03
 -1.10127E+03  2.04186E+03 -3.95682E+03  1.66397E+03 -4.74309E+03  1.82497E+02 -5.54812E+03 -2.95594E+03
 -2.98445E+03 -6.06628E+03  1.29106E+03 -7.21907E+03  4.22209E+03 -5.75736E+03  7.07992E+03 -2.41224E+03
  6.45528E+03  1.10908E+03  3.85865E+03  4.41157E+03 -1.08094E+02  4.70805E+03 -1.97819E+03  3.71412E+03
 -2.55804E+03  1.42537E+03 -1.47482E+03 -6.40605E+02 -9.00712E+02 -1.07961E+02 -8.63263E+02 -1.38149E+02
 -1.59894E+03 -2.09927E+02 -1.36549E+03 -1.21509E+02  1.30570E+02 -8.20219E+02  3.77920E+02 -2.39891E+03
  2.50015E+03 -1.50184E+03  2.54058E+03  2.39147E+02  3.30892E+03  2.86334E+03  4.75975E+02  4.84736E+03
 -2.40371E+03  5.85341E+03 -4.88208E+03  3.13381E+03 -5.89049E+03 -4.33328E+02 -4.00799E+03 -3.42880E+03
 -2.11664E+03 -4.68455E+03  1.16087E+03 -4.09552E+03  2.31580E+03 -2.14955E+03  2.54342E+03  1.77519E+02
  1.72636E+03  1.29122E+03 -7.33556E+01  1.24378E+03 -1.09600E+03  1.56819E+02 -2.26161E+02 -7.26375E+02
  1.22180E+03 -3.68839E+02  1.42119E+03  1.09066E+03  1.22314E+03  1.94051E+03  2.85301E+02  2.24005E+03
 -1.87276E+03  2.11961E+03 -2.85822E+03  1.85543E+02 -2.68519E+03 -2.16995E+03 -5.05924E+02 -3.81822E+03
  1.95568E+03 -2.92932E+03  3.13430E+03 -8.34161E+02  3.57745E+03  5.11244E+02  2.02141E+03  2.41612E+03
  5.28279E+02  2.79747E+03 -1.23594E+03  2.35522E+03 -2.07059E+03  1.18051E+03 -1.51678E+03  8.53236E+00
 -1.03923E+03  9.37242E+01 -1.27690E+03  1.34366E+02 -1.92322E+03  2.32456E+02 -2.35047E+03 -4.23840E+02
 -2.45821E+03 -1.16600E+03 -8.24039E+02 -2.87252E+03  1.58506E+03 -3.42123E+03  2.58894E+03 -1.36622E+03
  2.77713E+03  4.30698E+02  1.26108E+03  1.70771E+03 -3.12248E+02  3.01887E+03 -1.80165E+03  2.00992E+03
