 $NMID ID='MM_0lb_SNR800_13hz_g40_37.RAW', FMTDAT='(8E13.5)'
 TRAMP=1., VOLUME=1. $END
  3.09984E+05  3.38869E+02  3.37490E+05  2.50864E+05  8.45442E+04  3.37882E+05 -1.32496E+05  2.50948E+05
 -1.90478E+05  8.27576E+04 -1.11564E+05 -3.27231E+04  1.06491E+03 -5.03575E+04  5.41192E+04 -1.62127E+01
  3.53958E+04  5.28659E+04 -1.66123E+04  7.53659E+04 -6.09599E+04  6.35462E+04 -8.42050E+04  3.19834E+04
 -8.06463E+04 -1.14513E+04 -5.74972E+04 -5.13820E+04 -1.49362E+04 -6.92711E+04  2.73246E+04 -4.60739E+04
  4.00432E+04  3.60075E+03  1.58711E+04  4.78178E+04 -3.41730E+04  4.70311E+04 -6.65337E+04 -2.01740E+02
 -5.33504E+04 -5.68147E+04 -6.61913E+03 -7.69299E+04  3.40331E+04 -5.50669E+04  4.79013E+04 -1.73650E+04
  4.30431E+04  1.10095E+04  3.17333E+04  2.52641E+04  1.57172E+04  2.95121E+04 -5.23591E+03  2.72473E+04
 -2.20959E+04  1.25486E+04 -1.84515E+04 -5.07342E+03  5.50238E+03 -7.26519E+03  2.21863E+04  1.25061E+04
  7.38768E+03  3.50658E+04 -3.21408E+04  3.52315E+04 -6.32703E+04  2.03407E+03 -5.68762E+04 -4.28240E+04
 -1.24432E+04 -6.30266E+04  3.98009E+04 -4.54128E+04  5.77650E+04 -1.99071E+03  3.41220E+04  3.24460E+04
 -6.02779E+03  3.61388E+04 -2.95346E+04  1.58663E+04 -3.04591E+04 -4.61754E+03 -1.63312E+04 -1.11772E+04
 -8.31964E+03 -1.33994E+04 -1.01099E+03 -1.81854E+04  7.52353E+03 -2.29858E+04  1.54578E+04 -1.31022E+04
  1.15085E+04  5.31337E+03 -8.26617E+03  1.30459E+04 -2.06738E+04 -4.51579E+03 -8.13290E+03 -3.35871E+04
  2.25462E+04 -4.33305E+04  4.82994E+04 -1.94392E+04  4.47198E+04  1.95856E+04  1.56075E+04  4.40961E+04
 -1.59373E+04  3.34924E+04 -2.49968E+04  1.57928E+03 -9.79927E+03 -2.76046E+04  2.09284E+04 -3.40318E+04
  4.11947E+04 -9.16121E+03  3.55861E+04  2.36196E+04  1.79390E+04  4.62887E+04 -8.01883E+03  5.02698E+04
 -3.16306E+04  3.36307E+04 -4.17886E+04  9.72599E+03 -4.24454E+04 -1.66393E+04 -2.34204E+04 -3.80235E+04
  7.16441E+03 -3.76550E+04  3.16059E+04 -1.44744E+04  2.93670E+04  1.08553E+04  3.75776E+03  1.92727E+04
 -1.36633E+04  8.39881E+03 -1.03095E+04 -7.40170E+03  5.91857E+03 -1.05499E+04  1.77569E+04  5.84816E+03
  1.33710E+04  2.22999E+04 -6.05317E+03  2.51648E+04 -2.25344E+04  1.15920E+04 -2.81246E+04 -4.63688E+03
 -2.08112E+04 -1.75192E+04 -8.35060E+03 -2.04678E+04  3.88233E+03 -1.97383E+04  1.60908E+04 -1.82971E+04
  2.59125E+04 -1.27890E+04  3.27372E+04  2.74469E+03  2.38816E+04  2.03184E+04  3.99706E+03  3.62331E+04
 -1.80005E+04  3.04217E+04 -2.79631E+04  1.05091E+04 -2.11161E+04 -1.00951E+04 -4.05206E+03 -1.34106E+04
  1.64031E+03 -2.56237E+03 -4.82919E+03  6.79961E+03 -1.62968E+04  5.35487E+03 -1.64807E+04 -6.83505E+03
 -1.02426E+04 -1.86974E+04  5.09875E+03 -2.31714E+04  1.50447E+04 -1.69289E+04  1.83503E+04 -1.49678E+03
  1.14152E+04  1.33329E+04 -8.89653E+02  1.86623E+04 -1.31544E+04  1.08520E+04 -1.94213E+04 -4.09237E+03
 -1.39099E+04 -1.71549E+04 -1.80051E+03 -2.29360E+04  1.06841E+04 -1.88948E+04  1.92362E+04 -9.58812E+03
  1.80018E+04  4.48375E+02  1.27950E+04  4.57994E+03  6.47027E+03  1.04616E+03  9.62200E+03 -1.48295E+03
  1.74451E+04  2.73253E+03  1.94088E+04  1.51864E+04  1.29144E+04  3.02100E+04 -2.88883E+03  3.43035E+04
 -1.99001E+04  2.77639E+04 -3.21512E+04  1.39950E+04 -3.39678E+04 -2.28698E+03 -2.81735E+04 -1.95440E+04
 -1.21582E+04 -2.75374E+04  9.65441E+03 -2.51516E+04  2.13640E+04 -1.30016E+04  1.93864E+04  5.37170E+03
  7.23544E+03  1.44175E+04 -9.14995E+03  1.28858E+04 -1.62448E+04  2.67392E+03 -1.24244E+04 -9.88877E+03
 -4.29566E+02 -1.53970E+04  7.95805E+03 -1.15384E+04  1.00129E+04 -1.28845E+03  2.29145E+03  6.51936E+03
 -6.98653E+03  2.59532E+03 -6.18391E+03 -5.94420E+03 -2.52070E+02 -1.34333E+04  9.57607E+03 -1.43357E+04
  1.68222E+04 -7.61994E+03  1.81589E+04  2.83624E+03  1.55403E+04  1.32284E+04  7.32199E+03  2.07644E+04
 -3.40733E+03  2.26170E+04 -1.42053E+04  1.38979E+04 -1.62925E+04  3.50420E+03 -1.15646E+04 -3.60998E+03
 -5.61530E+03 -4.95343E+03 -7.38556E+02  1.14144E+03 -2.25256E+03  2.71752E+03 -5.22306E+03  4.52794E+03
 -1.09361E+04 -5.94056E+02 -1.15821E+04 -9.05609E+03 -4.69021E+03 -1.50279E+04  4.79080E+03 -1.15077E+04
  9.55905E+03 -5.06742E+03  6.80428E+03  2.98107E+03  2.03015E+01  4.36616E+03 -5.25241E+03 -3.17569E+02
 -5.17838E+03 -7.41472E+03 -1.10359E+03 -1.11205E+04  6.23334E+03 -1.14975E+04  1.44183E+04 -6.14438E+03
  1.69605E+04  1.19844E+03  1.25247E+04  9.85633E+03  2.12788E+03  1.30645E+04 -7.09913E+03  1.12171E+04
 -9.38817E+03  3.39188E+03 -4.45487E+03 -2.26392E+03  2.20228E+03 -3.03096E+03  6.25210E+03 -1.01530E+03
  5.77202E+03  4.47678E+03  9.13482E+02  8.98640E+03 -6.59703E+03  8.98122E+03 -1.09213E+04  2.11789E+03
 -7.44537E+03 -5.47879E+03  1.47834E+02 -9.58918E+03  6.20192E+03 -4.95121E+03  6.01811E+03  1.78150E+03
  1.31496E+03  6.37777E+03 -6.18781E+03  7.51822E+03 -8.44422E+03  3.65953E+03 -8.70468E+03 -2.77763E+03
 -4.93224E+03 -9.79110E+03  1.99571E+03 -1.16941E+04  1.03000E+04 -7.24342E+03  1.11459E+04  1.54512E+03
  6.97555E+03  8.78153E+03 -3.69358E+02  1.08993E+04 -7.70115E+03  6.02755E+03 -8.30711E+03 -7.43601E+02
 -7.59835E+03 -7.70296E+03 -1.73741E+03 -7.90412E+03  4.32882E+03 -6.76837E+03  4.83791E+03 -3.26576E+03
  3.55105E+03  1.05073E+03 -3.85411E+02  1.53922E+03 -1.28685E+02 -1.93954E+03  1.36088E+03 -4.28251E+03
  7.09098E+03 -2.39555E+03  9.81948E+03  1.36481E+03  9.90374E+03  6.25131E+03  7.35553E+03  1.27115E+04
 -2.60204E+03  1.51890E+04 -1.26658E+04  1.12163E+04 -1.62914E+04  2.14065E+03 -1.32299E+04 -5.49064E+03
 -6.60510E+03 -1.07693E+04 -4.64164E+02 -8.74181E+03  3.63505E+03 -4.58156E+03  3.22663E+03 -3.20813E+03
  2.49794E+03 -2.11595E+03  2.83265E+03 -2.87984E+03  4.70390E+03 -2.15359E+03  5.48010E+03 -4.69616E+02
  7.11286E+03  1.79138E+03  3.04787E+03  5.92936E+03 -1.89714E+03  6.31076E+03 -7.45579E+03  5.18948E+03
 -8.86887E+03 -1.30162E+03 -4.86651E+03 -5.80994E+03 -2.53550E+02 -9.47845E+03  5.66932E+03 -9.53174E+03
  9.85002E+03 -5.50770E+03  1.18724E+04  1.16107E+03  8.61226E+03  7.93745E+03  1.53365E+03  1.07317E+04
 -4.11040E+03  9.49210E+03 -6.31055E+03  3.26019E+03 -3.93805E+03 -1.40579E+03 -1.62694E+03 -1.27365E+03
 -5.59482E+02 -2.84858E+01 -1.22638E+03  2.54052E+03 -4.47836E+03  1.65003E+03 -6.33599E+03 -6.58012E+02
 -3.99533E+03 -6.51777E+03  5.48860E+02 -8.45482E+03  5.35959E+03 -7.92689E+03  8.31675E+03 -2.33532E+03
  8.17682E+03  4.40673E+03  3.87249E+03  7.21861E+03 -2.02333E+03  8.35297E+03 -5.77861E+03  5.20782E+03
 -7.96832E+03  4.73740E+02 -6.25101E+03 -4.89965E+03 -6.81316E+02 -6.83177E+03  3.36541E+03 -5.36427E+03
  5.60340E+03 -1.83181E+03  3.72895E+03  1.54374E+03  1.07463E+03  2.98569E+03  1.09826E+03  1.47537E+03
  1.94010E+03  8.96790E+02  2.16301E+03  1.46636E+03  2.70776E+03  3.27177E+03  2.11952E+03  4.02143E+03
 -1.95166E+03  6.62428E+03 -5.37288E+03  7.06677E+03 -8.17536E+03  1.84960E+03 -8.84804E+03 -2.96390E+03
 -4.12738E+03 -8.07418E+03  1.39273E+03 -9.29662E+03  4.76228E+03 -5.67330E+03  6.94567E+03 -1.77258E+03
  4.94856E+03  3.01751E+03  1.20049E+03  4.77545E+03 -2.22926E+03  3.28762E+03 -3.16548E+03 -2.01849E+02
 -1.36421E+03 -3.70105E+03  2.25294E+03 -3.67755E+03  3.12915E+03 -1.66062E+03  3.48577E+03  6.33490E+02
  1.40977E+03  1.69434E+03  8.96379E+02  6.12862E+02 -5.76777E+02  1.34888E+03  1.80627E+03 -6.48067E+02
  9.46687E+02 -4.17851E+02  3.74475E+03  1.20649E+03  1.89134E+03  4.15141E+03 -7.26044E+02  5.74074E+03
 -3.72875E+03  3.31260E+03 -5.21299E+03  7.38837E+02 -4.82513E+03 -1.45216E+03 -1.42515E+03 -2.89390E+03
  4.39347E+02 -3.25685E+03  1.90138E+03 -1.49541E+03  1.66833E+03  2.03481E+03 -9.72208E+02  2.42177E+03
 -3.31950E+03  1.38291E+03 -3.58719E+03 -2.14793E+03 -1.97639E+03 -4.88580E+03  4.82759E+02 -4.03908E+03
  1.88724E+03 -2.11226E+03  2.98666E+03  6.01585E+01  2.70028E+03  7.05888E+02  4.08851E+02  2.64818E+03
 -1.19093E+03  9.53421E+02 -1.96487E+03 -1.46467E+03  1.23646E+03 -2.80890E+03  3.63589E+03 -2.32140E+03
  4.58088E+03  3.48861E+02  5.09486E+03  2.77320E+03  1.56180E+03  4.92927E+03 -1.29275E+03  4.35102E+03
 -3.81772E+03  1.78676E+03 -4.14228E+03 -5.30281E+02 -2.49624E+03 -3.21682E+03  7.59666E+02 -2.45530E+03
  3.21179E+03 -1.91095E+03  2.55038E+03  1.21359E+03  5.47291E+02  3.00304E+03 -2.21993E+02  2.25355E+03
 -9.88947E+02  1.60269E+03 -1.30018E+03  4.59063E+02 -5.80605E+02  6.51323E+02 -8.48365E+02  8.92432E+02
 -1.66055E+03  1.98854E+03 -3.54429E+03  1.38181E+03 -4.78665E+03  3.87572E+01 -5.61801E+03 -3.27071E+03
 -3.11779E+03 -6.39606E+03  9.44949E+02 -7.28588E+03  3.89196E+03 -5.98221E+03  6.63548E+03 -2.54242E+03
  6.66928E+03  9.53440E+02  3.95591E+03  4.39338E+03  1.23066E+02  4.79114E+03 -2.05747E+03  3.48406E+03
 -2.93379E+03  1.49685E+03 -1.70396E+03 -4.84846E+02 -6.82772E+02 -2.72902E+01 -4.07201E+02 -5.16160E+02
 -1.47983E+03 -2.64332E+02 -1.62251E+03 -8.78539E+01 -3.51154E+02 -1.44292E+03 -3.40549E+02 -2.01777E+03
  2.20352E+03 -1.12952E+03  2.36282E+03 -2.28249E+01  3.23236E+03  2.48601E+03  6.91701E+02  4.56592E+03
 -2.32941E+03  5.94995E+03 -4.94087E+03  3.39315E+03 -5.28914E+03 -4.83980E+02 -4.02447E+03 -3.84179E+03
 -1.85019E+03 -4.84281E+03  1.09472E+03 -4.12766E+03  2.61930E+03 -2.18814E+03  2.94107E+03  2.24428E+02
  1.49975E+03  1.32674E+03 -2.99098E+02  1.12214E+03 -8.48562E+02 -3.71106E+02 -1.90700E+01 -8.24528E+02
  1.67317E+03 -4.18040E+02  1.50604E+03  7.64675E+02  1.11127E+03  1.63063E+03  3.69326E+02  1.87090E+03
 -1.97858E+03  2.22511E+03 -2.94303E+03  5.21235E+02 -2.62001E+03 -1.73952E+03 -2.60187E+01 -3.51634E+03
  2.10835E+03 -2.67770E+03  3.10250E+03 -1.13450E+03  3.57346E+03  1.54428E+02  2.04606E+03  2.86304E+03
  5.81058E+02  2.96260E+03 -1.33095E+03  2.13589E+03 -1.71464E+03  1.37082E+03 -1.75978E+03  4.69053E+01
 -8.63744E+02 -1.18070E+02 -1.10348E+03  3.08064E+02 -1.50178E+03  6.15642E+02 -2.14556E+03 -6.60168E+02
 -2.29270E+03 -9.15701E+02 -1.01200E+03 -3.25962E+03  1.71801E+03 -3.31333E+03  2.68726E+03 -1.44955E+03
  3.06968E+03  4.00261E+02  1.11566E+03  1.85955E+03 -1.40568E+02  2.99749E+03 -1.96147E+03  1.98702E+03
