 $NMID ID='MM_0lb_SNR800_9hz_g60_35.RAW', FMTDAT='(8E13.5)'
 TRAMP=1., VOLUME=1. $END
  3.09449E+05 -5.00053E+01  3.38340E+05  2.50958E+05  8.48390E+04  3.38807E+05 -1.32725E+05  2.52025E+05
 -1.91165E+05  8.42186E+04 -1.12773E+05 -3.23409E+04  9.91156E+01 -5.12261E+04  5.35466E+04 -7.54587E+02
  3.53572E+04  5.29520E+04 -1.65418E+04  7.59211E+04 -6.12743E+04  6.47939E+04 -8.53653E+04  3.28470E+04
 -8.23361E+04 -1.18327E+04 -5.84734E+04 -5.22613E+04 -1.50885E+04 -7.08244E+04  2.78584E+04 -4.76224E+04
  4.16245E+04  3.48804E+03  1.69634E+04  4.86346E+04 -3.49186E+04  4.87219E+04 -6.83540E+04 -2.57201E+02
 -5.50520E+04 -5.79128E+04 -7.78066E+03 -7.96696E+04  3.49359E+04 -5.77876E+04  5.03132E+04 -1.85196E+04
  4.56451E+04  1.12760E+04  3.29858E+04  2.67684E+04  1.58526E+04  3.07739E+04 -6.03486E+03  2.80631E+04
 -2.23827E+04  1.16885E+04 -1.78232E+04 -5.85847E+03  7.62988E+03 -6.77927E+03  2.37734E+04  1.39413E+04
  6.97722E+03  3.82581E+04 -3.45636E+04  3.71173E+04 -6.62380E+04  2.17405E+03 -5.96181E+04 -4.49953E+04
 -1.25045E+04 -6.61497E+04  4.21744E+04 -4.77348E+04  6.18831E+04 -2.56363E+03  3.72833E+04  3.52291E+04
 -5.45329E+03  4.03822E+04 -3.19821E+04  1.95246E+04 -3.40440E+04 -3.04603E+03 -1.98734E+04 -1.20020E+04
 -9.98743E+03 -1.54463E+04 -4.41817E+02 -1.99383E+04  8.46302E+03 -2.34764E+04  1.60707E+04 -1.24555E+04
  1.00882E+04  6.39626E+03 -1.12377E+04  1.28564E+04 -2.37458E+04 -7.06483E+03 -8.34430E+03 -3.82795E+04
  2.61760E+04 -4.76998E+04  5.27519E+04 -2.09060E+04  4.95212E+04  2.16612E+04  1.76655E+04  4.77775E+04
 -1.64011E+04  3.65599E+04 -2.80294E+04  2.78867E+03 -1.19259E+04 -2.98231E+04  2.17260E+04 -3.76100E+04
  4.52658E+04 -1.15385E+04  4.11791E+04  2.50992E+04  2.19808E+04  5.23529E+04 -8.26024E+03  5.76767E+04
 -3.61459E+04  3.93610E+04 -4.91522E+04  1.14364E+04 -4.86037E+04 -1.86894E+04 -2.68777E+04 -4.30012E+04
  7.94323E+03 -4.29072E+04  3.47889E+04 -1.75098E+04  3.26801E+04  1.09226E+04  5.33532E+03  2.12235E+04
 -1.39588E+04  9.79085E+03 -1.16473E+04 -7.28809E+03  5.79316E+03 -1.15058E+04  1.97970E+04  5.64870E+03
  1.54987E+04  2.27484E+04 -4.61442E+03  2.74899E+04 -2.38123E+04  1.48179E+04 -3.21297E+04 -2.63499E+03
 -2.62025E+04 -1.90476E+04 -1.26566E+04 -2.61354E+04  4.57674E+03 -2.73280E+04  2.04847E+04 -2.41998E+04
  3.36856E+04 -1.46932E+04  3.89439E+04  5.51993E+03  2.76025E+04  2.53223E+04  4.23063E+03  4.22126E+04
 -2.04135E+04  3.47456E+04 -3.12384E+04  1.20685E+04 -2.24413E+04 -1.01064E+04 -5.15820E+03 -1.28586E+04
  8.65279E+02 -6.94188E+02 -8.18218E+03  8.58920E+03 -2.10845E+04  5.35269E+03 -2.09037E+04 -1.02941E+04
 -1.23552E+04 -2.47175E+04  5.96068E+03 -2.87147E+04  1.92264E+04 -2.07042E+04  2.32057E+04 -1.65698E+03
  1.53115E+04  1.68256E+04 -1.55709E+03  2.44084E+04 -1.73091E+04  1.38697E+04 -2.43277E+04 -5.41013E+03
 -1.82424E+04 -2.17789E+04 -2.52149E+03 -2.90271E+04  1.30473E+04 -2.45199E+04  2.43596E+04 -1.23300E+04
  2.32854E+04 -4.03788E+02  1.64204E+04  5.65602E+03  9.13099E+03  1.68578E+03  1.30923E+04 -1.90169E+03
  2.33518E+04  3.24970E+03  2.68323E+04  1.89557E+04  1.85030E+04  3.93714E+04 -2.60395E+03  4.68250E+04
 -2.66207E+04  3.92588E+04 -4.43388E+04  2.05088E+04 -4.72664E+04 -3.62301E+03 -3.78288E+04 -2.76044E+04
 -1.48147E+04 -3.93060E+04  1.40177E+04 -3.42433E+04  2.91792E+04 -1.58431E+04  2.50447E+04  8.37251E+03
  8.61588E+03  1.95725E+04 -1.22128E+04  1.63219E+04 -2.11802E+04  2.55055E+03 -1.62923E+04 -1.37694E+04
 -6.21100E+02 -2.01761E+04  1.11134E+04 -1.48353E+04  1.46126E+04 -1.13632E+03  3.69673E+03  9.24107E+03
 -9.37982E+03  4.47837E+03 -9.96644E+03 -7.27257E+03 -2.12561E+03 -1.92068E+04  1.24447E+04 -2.08895E+04
  2.44940E+04 -1.16817E+04  2.80443E+04  3.15254E+03  2.43231E+04  1.95839E+04  1.10028E+04  3.09503E+04
 -6.07143E+03  3.33588E+04 -2.18581E+04  2.04156E+04 -2.38789E+04  4.06830E+03 -1.62594E+04 -6.35347E+03
 -6.67695E+03 -7.52693E+03 -5.23558E+02  3.50674E+02 -2.96456E+03  3.96200E+03 -7.70520E+03  5.75712E+03
 -1.46876E+04 -4.96597E+02 -1.55330E+04 -1.23913E+04 -6.18430E+03 -2.00067E+04  6.32728E+03 -1.65498E+04
  1.36386E+04 -6.75373E+03  9.55083E+03  4.58950E+03 -9.84731E+02  6.62653E+03 -8.39245E+03 -5.88200E+01
 -7.93319E+03 -1.09674E+04 -1.06526E+03 -1.65505E+04  1.00367E+04 -1.67681E+04  2.14700E+04 -9.55983E+03
  2.50005E+04  2.48988E+03  1.84837E+04  1.53488E+04  3.25193E+03  2.00296E+04 -1.02140E+04  1.61334E+04
 -1.34239E+04  4.71586E+03 -6.67680E+03 -3.61991E+03  2.40885E+03 -4.92015E+03  8.57008E+03 -1.03521E+03
  7.68288E+03  7.47066E+03  1.47938E+03  1.33949E+04 -9.46968E+03  1.26985E+04 -1.63253E+04  2.64073E+03
 -1.13922E+04 -8.55537E+03  1.18106E+02 -1.43999E+04  9.27568E+03 -7.29173E+03  9.78315E+03  3.10911E+03
  2.61301E+03  1.09433E+04 -8.84498E+03  1.22839E+04 -1.47947E+04  5.35797E+03 -1.53545E+04 -5.43894E+03
 -8.76623E+03 -1.73353E+04  4.37824E+03 -1.96872E+04  1.62266E+04 -1.16728E+04  1.81674E+04  3.44311E+03
  1.05729E+04  1.43482E+04 -1.94550E+03  1.71330E+04 -1.22049E+04  9.45120E+03 -1.34078E+04 -1.43451E+03
 -1.12610E+04 -1.11073E+04 -1.65617E+03 -1.30245E+04  6.87504E+03 -1.04157E+04  8.34188E+03 -3.54293E+03
  5.42446E+03  2.61286E+03 -1.23833E+03  2.03061E+03 -1.21722E+03 -3.72644E+03  2.86953E+03 -7.92512E+03
  1.21409E+04 -5.71166E+03  1.70463E+04  1.96940E+03  1.66542E+04  1.19327E+04  1.06930E+04  2.23181E+04
 -5.41268E+03  2.58457E+04 -2.14688E+04  1.88583E+04 -2.79057E+04  3.56287E+03 -2.22472E+04 -1.00307E+04
 -1.11241E+04 -1.81216E+04 -6.25629E+02 -1.57199E+04  5.50478E+03 -8.95415E+03  5.90060E+03 -5.83162E+03
  4.29396E+03 -3.29284E+03  3.90508E+03 -4.85270E+03  5.96735E+03 -3.58662E+03  8.66572E+03 -1.60398E+03
  1.13108E+04  2.47523E+03  6.15410E+03  1.00091E+04 -2.44563E+03  1.25222E+04 -1.21215E+04  9.56666E+03
 -1.58081E+04 -1.30213E+03 -1.09821E+04 -1.10857E+04 -1.32582E+03 -1.71069E+04  9.70360E+03 -1.70544E+04
  1.77395E+04 -9.57601E+03  2.10759E+04  3.33162E+03  1.47557E+04  1.49204E+04  2.07705E+03  1.91431E+04
 -7.94283E+03  1.53524E+04 -1.08913E+04  5.41173E+03 -7.87527E+03 -1.60623E+03 -3.11938E+03 -2.28638E+03
 -1.37050E+03  3.88079E+00 -2.57546E+03  2.91599E+03 -6.42281E+03  2.25267E+03 -1.08876E+04 -1.62512E+03
 -7.91444E+03 -1.08374E+04 -2.77437E+02 -1.59754E+04  9.95350E+03 -1.42123E+04  1.59471E+04 -4.39683E+03
  1.55022E+04  7.62009E+03  7.23402E+03  1.41715E+04 -2.92984E+03  1.60152E+04 -1.17473E+04  1.02863E+04
 -1.52090E+04  5.41306E+02 -1.18828E+04 -9.75431E+03 -1.54906E+03 -1.36410E+04  6.53009E+03 -9.76598E+03
  1.02474E+04 -2.90706E+03  6.98945E+03  3.31852E+03  2.50038E+03  4.83568E+03  1.49959E+03  1.97643E+03
  3.04112E+03  1.50311E+03  3.74067E+03  2.01624E+03  4.83110E+03  5.15052E+03  4.02159E+03  9.28202E+03
 -3.15987E+03  1.29634E+04 -1.14360E+04  1.22279E+04 -1.67664E+04  3.66133E+03 -1.70780E+04 -7.28893E+03
 -8.65452E+03 -1.67686E+04  2.28271E+03 -1.78652E+04  9.92823E+03 -1.18278E+04  1.35356E+04 -3.38468E+03
  1.00276E+04  6.40947E+03  2.38895E+03  9.64686E+03 -5.21684E+03  6.27088E+03 -6.81407E+03 -9.51862E+02
 -3.39666E+03 -7.21095E+03  4.03996E+03 -7.45335E+03  6.63632E+03 -3.43382E+03  6.78957E+03  1.89049E+03
  4.41531E+03  3.58734E+03  1.70378E+03  3.03814E+03 -1.14285E+03  2.82464E+03  1.78875E+03 -6.52247E+02
  2.91271E+03 -9.64670E+02  6.62820E+03  2.29678E+03  3.84178E+03  8.66085E+03 -1.34958E+03  1.12264E+04
 -7.50006E+03  7.31042E+03 -1.03481E+04  2.09826E+03 -9.60264E+03 -3.66470E+03 -3.82271E+03 -6.80879E+03
  9.76912E+02 -6.19375E+03  4.82800E+03 -2.92668E+03  3.84866E+03  3.16531E+03 -1.45256E+03  5.54996E+03
 -6.57751E+03  3.31124E+03 -7.71316E+03 -3.55390E+03 -4.58344E+03 -8.84158E+03  1.12831E+03 -9.46964E+03
  5.38211E+03 -5.50599E+03  6.59985E+03 -6.25932E+02  5.45058E+03  2.51019E+03  1.17974E+03  5.12822E+03
 -3.06311E+03  1.24505E+03 -3.87774E+03 -3.23292E+03  1.44006E+03 -6.81789E+03  8.67169E+03 -5.79620E+03
  1.07719E+04  6.81882E+02  1.02148E+04  7.13692E+03  3.36841E+03  1.13082E+04 -3.80559E+03  1.03991E+04
 -9.11127E+03  4.78090E+03 -8.97380E+03 -1.43676E+03 -4.78586E+03 -7.32294E+03  1.44757E+03 -6.77777E+03
  6.92109E+03 -2.85108E+03  6.09550E+03  2.66690E+03  1.96663E+03  6.08060E+03 -8.55515E+02  4.95169E+03
 -3.07227E+03  3.99292E+03 -2.69960E+03  9.70259E+02 -1.22249E+03  1.75316E+03 -1.44682E+03  2.09495E+03
 -2.45845E+03  4.24380E+03 -7.32443E+03  3.72807E+03 -1.06972E+04  1.28796E+02 -1.23596E+04 -6.70946E+03
 -6.56719E+03 -1.40106E+04  2.79691E+03 -1.70274E+04  1.04553E+04 -1.30387E+04  1.54493E+04 -4.78131E+03
  1.47020E+04  2.87087E+03  9.08180E+03  9.87136E+03  1.01064E+03  1.13823E+04 -4.80456E+03  8.76276E+03
 -6.26219E+03  3.10522E+03 -3.71713E+03 -1.28847E+03 -1.23878E+03 -1.34889E+03 -5.30809E+02  2.48007E+01
 -1.87818E+03  2.00058E+02 -2.62628E+03 -1.20343E+02 -2.59131E+02 -2.65035E+03  2.97070E+02 -4.11537E+03
  4.35801E+03 -3.69933E+03  6.67509E+03  7.66753E+01  8.09621E+03  6.31642E+03  2.39456E+03  1.15165E+04
 -5.26786E+03  1.29383E+04 -1.20501E+04  7.62536E+03 -1.35291E+04 -1.32720E+03 -1.01659E+04 -8.72315E+03
 -4.30367E+03 -1.16805E+04  3.33515E+03 -1.07852E+04  6.90614E+03 -5.99677E+03  7.29788E+03  2.05353E+02
  4.32306E+03  3.67312E+03 -4.04660E+02  3.78376E+03 -2.05360E+03  4.66459E+01 -4.54501E+01 -2.91813E+03
  3.81305E+03 -1.96524E+03  4.58365E+03  1.42212E+03  3.23738E+03  4.32926E+03  4.95169E+02  5.71834E+03
 -4.87664E+03  5.34503E+03 -7.71911E+03  4.14028E+02 -7.07779E+03 -5.66555E+03 -1.08573E+03 -9.63810E+03
  5.76709E+03 -7.84380E+03  9.43693E+03 -2.41482E+03  8.68408E+03  2.76561E+03  5.33461E+03  7.19337E+03
  7.16810E+02  7.11101E+03 -3.42629E+03  5.84065E+03 -5.44741E+03  3.41082E+03 -4.00900E+03  2.42816E+02
 -2.32158E+03 -2.83403E+02 -2.38786E+03  8.00755E+02 -4.14917E+03  1.51451E+03 -6.01288E+03 -1.11215E+03
 -5.67680E+03 -4.01470E+03 -1.81415E+03 -7.81265E+03  3.32324E+03 -8.02620E+03  7.06340E+03 -3.92758E+03
  7.37531E+03  1.00464E+03  3.88707E+03  5.64674E+03 -9.22075E+02  7.67566E+03 -5.77279E+03  5.39231E+03
