 $NMID ID='MM_0lb_SNR800_19hz_g55_83.RAW', FMTDAT='(8E13.5)'
 TRAMP=1., VOLUME=1. $END
  3.09960E+05  5.79546E+02  3.37384E+05  2.50563E+05  8.45070E+04  3.37687E+05 -1.32336E+05  2.50336E+05
 -1.89693E+05  8.25607E+04 -1.11487E+05 -3.28143E+04  1.37221E+03 -5.00971E+04  5.40505E+04  5.27329E+01
  3.51386E+04  5.26913E+04 -1.69977E+04  7.51229E+04 -6.05629E+04  6.30467E+04 -8.33321E+04  3.16789E+04
 -8.02221E+04 -1.12321E+04 -5.68362E+04 -5.06051E+04 -1.51304E+04 -6.86830E+04  2.67876E+04 -4.51458E+04
  3.91608E+04  3.92856E+03  1.57562E+04  4.73372E+04 -3.40324E+04  4.64486E+04 -6.57271E+04 -3.78791E+02
 -5.24224E+04 -5.60869E+04 -6.16966E+03 -7.58656E+04  3.35187E+04 -5.37995E+04  4.66740E+04 -1.65336E+04
  4.20438E+04  1.11896E+04  3.09865E+04  2.48391E+04  1.57225E+04  2.85707E+04 -4.74845E+03  2.71494E+04
 -2.19305E+04  1.27811E+04 -1.90648E+04 -4.55463E+03  4.48245E+03 -7.47490E+03  2.15315E+04  1.13538E+04
  7.45128E+03  3.37792E+04 -3.08602E+04  3.45066E+04 -6.17741E+04  2.04023E+03 -5.59606E+04 -4.17744E+04
 -1.23953E+04 -6.13269E+04  3.84556E+04 -4.39260E+04  5.62348E+04 -2.23400E+03  3.26419E+04  3.11456E+04
 -6.55959E+03  3.35318E+04 -2.88990E+04  1.40816E+04 -2.80980E+04 -5.05767E+03 -1.51159E+04 -1.03111E+04
 -7.59788E+03 -1.19444E+04 -1.36596E+03 -1.69275E+04  6.91623E+03 -2.25812E+04  1.51465E+04 -1.38138E+04
  1.21164E+04  4.37138E+03 -6.62707E+03  1.32277E+04 -1.99659E+04 -3.10438E+03 -8.21369E+03 -3.13155E+04
  2.12537E+04 -4.11463E+04  4.55017E+04 -1.88749E+04  4.27153E+04  1.85439E+04  1.46365E+04  4.21298E+04
 -1.55637E+04  3.18616E+04 -2.38778E+04  1.21857E+03 -8.61334E+03 -2.65272E+04  2.05494E+04 -3.20605E+04
  3.84984E+04 -7.50667E+03  3.23732E+04  2.29549E+04  1.59978E+04  4.33939E+04 -7.65486E+03  4.61248E+04
 -2.89777E+04  3.06375E+04 -3.82412E+04  8.52377E+03 -3.93130E+04 -1.54556E+04 -2.16212E+04 -3.52058E+04
  6.95659E+03 -3.49386E+04  2.95439E+04 -1.30902E+04  2.71249E+04  1.07387E+04  2.95957E+03  1.79797E+04
 -1.31969E+04  7.35761E+03 -9.73939E+03 -7.59254E+03  6.11898E+03 -1.03747E+04  1.71686E+04  5.93696E+03
  1.23177E+04  2.15969E+04 -6.51103E+03  2.37851E+04 -2.16283E+04  9.71450E+03 -2.56472E+04 -5.97774E+03
 -1.74933E+04 -1.65543E+04 -6.17965E+03 -1.74498E+04  3.74330E+03 -1.51327E+04  1.28397E+04 -1.49252E+04
  2.20867E+04 -1.17846E+04  2.86451E+04  1.27378E+03  2.16708E+04  1.67920E+04  3.98058E+03  3.29739E+04
 -1.63274E+04  2.81504E+04 -2.60644E+04  9.62440E+03 -1.98370E+04 -1.04551E+04 -3.92736E+03 -1.39029E+04
  2.60078E+03 -3.99712E+03 -3.15244E+03  5.81450E+03 -1.34958E+04  5.22311E+03 -1.39168E+04 -5.33054E+03
 -9.05882E+03 -1.60812E+04  4.47491E+03 -1.99316E+04  1.28824E+04 -1.42740E+04  1.54404E+04 -1.69923E+03
  9.29266E+03  1.10256E+04 -8.76855E+02  1.60583E+04 -1.06894E+04  9.01894E+03 -1.60101E+04 -3.23795E+03
 -1.18280E+04 -1.47265E+04 -1.35246E+03 -1.95359E+04  8.83158E+03 -1.59598E+04  1.64939E+04 -7.47623E+03
  1.49012E+04  4.58676E+02  1.06581E+04  4.00233E+03  5.88565E+03  9.31109E+02  7.94246E+03 -1.46703E+03
  1.44185E+04  2.50799E+03  1.53669E+04  1.28614E+04  9.29029E+03  2.51688E+04 -3.21126E+03  2.72566E+04
 -1.62172E+04  2.09613E+04 -2.50175E+04  1.01746E+04 -2.58114E+04 -1.78730E+03 -2.19916E+04 -1.47894E+04
 -1.01644E+04 -2.10805E+04  7.17611E+03 -1.96002E+04  1.69090E+04 -1.12124E+04  1.59196E+04  3.89841E+03
  6.74288E+03  1.13918E+04 -7.18860E+03  1.06300E+04 -1.33960E+04  2.50632E+03 -1.03855E+04 -7.97221E+03
 -4.18522E+01 -1.27236E+04  6.26817E+03 -9.44285E+03  8.03648E+03 -1.37772E+03  1.53601E+03  4.88397E+03
 -5.67747E+03  1.42674E+03 -3.70206E+03 -4.66999E+03  3.92596E+02 -1.02861E+04  7.93410E+03 -1.03155E+04
  1.22566E+04 -5.09140E+03  1.25050E+04  2.66540E+03  1.05958E+04  9.84083E+03  5.06599E+03  1.46860E+04
 -1.64114E+03  1.62990E+04 -9.65216E+03  1.04004E+04 -1.16789E+04  2.88900E+03 -8.56780E+03 -2.14379E+03
 -4.56070E+03 -3.24038E+03 -7.61749E+02  1.49465E+03 -1.66002E+03  1.94017E+03 -3.54186E+03  3.62935E+03
 -8.26194E+03 -5.87413E+02 -8.97036E+03 -7.27850E+03 -3.69329E+03 -1.15360E+04  3.39934E+03 -8.59323E+03
  7.19799E+03 -3.74476E+03  5.27685E+03  2.11834E+03  7.23544E+02  3.04800E+03 -3.53003E+03  9.57747E+01
 -3.18017E+03 -5.39310E+03 -6.33580E+02 -7.30291E+03  4.05919E+03 -8.20730E+03  9.92678E+03 -3.94408E+03
  1.16875E+04  6.51578E+02  8.73703E+03  6.09717E+03  2.04381E+03  8.70691E+03 -5.40941E+03  8.30218E+03
 -6.95486E+03  2.58456E+03 -3.47261E+03 -1.20231E+03  1.42843E+03 -1.94368E+03  4.94394E+03 -9.13674E+02
  4.10184E+03  3.41326E+03  1.19736E+03  6.54123E+03 -4.57729E+03  6.47872E+03 -7.93662E+03  1.62122E+03
 -4.76944E+03 -3.44937E+03  3.76851E+02 -6.73043E+03  3.68411E+03 -3.60922E+03  3.62159E+03  1.03426E+03
  2.96690E+02  3.52918E+03 -4.10895E+03  4.67077E+03 -4.71233E+03  2.65420E+03 -4.63648E+03 -1.07741E+03
 -2.99193E+03 -5.87593E+03  1.17824E+03 -7.03786E+03  5.99383E+03 -4.70509E+03  6.72845E+03  1.23146E+03
  4.51938E+03  5.63354E+03 -8.12500E+01  7.42995E+03 -5.09501E+03  4.13080E+03 -5.12488E+03 -5.53532E+02
 -5.73539E+03 -5.13759E+03 -1.15366E+03 -5.08408E+03  2.75453E+03 -4.51527E+03  2.70618E+03 -2.72878E+03
  2.67852E+03  3.65633E+02 -1.61334E+02  1.23916E+03  6.77574E+02 -6.39804E+01 -4.34248E+01 -1.92127E+03
  3.93164E+03 -7.05845E+02  5.46601E+03  7.24523E+02  5.57251E+03  2.93328E+03  4.99858E+03  7.05352E+03
 -1.11876E+03  8.48891E+03 -7.49941E+03  6.39109E+03 -9.89118E+03  1.37362E+03 -7.76082E+03 -2.55138E+03
 -3.64457E+03 -6.62192E+03 -2.91254E+02 -4.69166E+03  2.23035E+03 -2.45679E+03  1.79157E+03 -1.92610E+03
  1.42494E+03 -1.83929E+03  2.07898E+03 -2.25305E+03  3.43142E+03 -1.09819E+03  3.57182E+03  3.56312E+02
  4.07172E+03  1.11120E+03  1.09748E+03  3.35352E+03 -1.30532E+03  2.88962E+03 -4.38435E+03  2.37909E+03
 -4.51696E+03 -8.23230E+02 -1.74424E+03 -3.29855E+03  4.48354E+02 -4.49872E+03  3.18454E+03 -5.51316E+03
  4.95292E+03 -3.28324E+03  6.40695E+03  2.02466E+02  4.76038E+03  4.06277E+03  8.47844E+02  5.70770E+03
 -2.07541E+03  5.96342E+03 -3.27783E+03  1.58256E+03 -1.82884E+03 -1.11903E+03 -4.01258E+02 -2.26829E+02
 -2.57798E+02  5.30455E+02 -9.52144E+02  1.95848E+03 -2.83916E+03  1.14959E+03 -3.95766E+03 -6.48454E+02
 -1.56245E+03 -3.83043E+03  6.55803E+02 -4.52447E+03  2.50289E+03 -4.24768E+03  3.17881E+03 -1.16419E+03
  3.99434E+03  2.16296E+03  1.76952E+03  3.20870E+03 -6.09648E+02  4.26349E+03 -2.41050E+03  2.35281E+03
 -3.55781E+03  5.91632E+02 -3.38229E+03 -2.37292E+03 -1.59319E+02 -3.06760E+03  1.44906E+03 -2.27459E+03
  2.79655E+03 -1.53633E+03  1.64827E+03  6.30485E+02  5.13509E+02  1.43112E+03  7.94709E+02  4.04616E+02
  1.40730E+03  9.03062E+02  9.04493E+02  8.62452E+02  9.73627E+02  2.16217E+03  1.23638E+03  1.47719E+03
 -1.36286E+03  2.66241E+03 -2.06400E+03  3.62916E+03 -2.83312E+03  1.21800E+03 -3.76544E+03 -6.38310E+02
 -1.45646E+03 -3.47118E+03  8.97452E+02 -4.57379E+03  1.80662E+03 -2.46634E+03  2.75394E+03 -6.50941E+02
  2.28407E+03  1.56156E+03  5.01391E+02  2.31039E+03 -4.74876E+02  1.33606E+03 -8.61609E+02  4.41483E+01
 -2.88508E+02 -1.25609E+03  1.23596E+03 -1.31478E+03  1.36482E+03 -7.97235E+02  1.30772E+03  3.68501E+02
  4.57971E+02  1.11393E+02  7.20397E+02 -1.77470E+02 -2.11226E+02  6.78353E+02  1.55646E+03 -3.78581E+01
  8.74593E+01 -1.07327E+02  1.77805E+03  5.14060E+02  1.76971E+02  2.22376E+03 -6.20457E+02  2.74110E+03
 -1.44729E+03  9.70817E+02 -1.98253E+03  2.16474E+02 -2.28360E+03 -5.75061E+02 -3.25424E+02 -9.11225E+02
  3.91186E+02 -8.34028E+02  7.35434E+02 -6.47172E+02  5.98413E+02  1.25226E+03 -7.49844E+02  1.00049E+03
 -1.43987E+03  8.85029E+02 -8.10246E+02 -1.34704E+03 -7.90922E+02 -1.93096E+03  2.57049E+02 -1.32855E+03
  3.86028E+02 -4.40576E+02  7.82866E+02  1.58474E+02  1.06689E+03 -1.05622E+02  4.54043E+02  1.10359E+03
 -1.95179E+02  8.20159E+01 -8.55420E+02 -3.20959E+02  8.23371E+02 -4.19673E+02  1.29999E+03 -6.36082E+02
  8.33717E+02  3.42940E+02  2.73929E+03  7.08491E+02  9.87090E+02  1.41556E+03 -2.62828E+02  1.70944E+03
 -1.19847E+03 -1.20831E+02 -1.31189E+03  2.49801E+01 -8.92038E+02 -1.30742E+03  2.25054E+02 -5.48874E+02
  1.53326E+03 -4.82269E+02  6.72187E+02  8.87350E+02  9.30181E+01  1.15006E+03  3.23617E+02  7.60652E+02
 -5.64163E+02  8.69071E+02 -2.14749E+02  1.73938E+02  5.61017E+01  4.20607E+02 -8.29245E+02  5.69826E+02
 -4.40581E+02  8.86562E+02 -1.38201E+03  4.28172E+02 -1.50343E+03  5.13763E+02 -2.27393E+03 -8.49361E+02
 -9.21910E+02 -2.06640E+03  6.16985E+02 -2.42096E+03  5.31024E+02 -2.20400E+03  2.49384E+03 -9.83696E+02
  1.98637E+03 -4.13141E+02  8.62117E+02  1.34996E+03 -5.79092E+02  1.32701E+03 -6.53749E+02  1.04183E+03
 -9.40737E+02  6.51607E+02 -5.38889E+02 -1.31009E+02 -4.07910E+02  4.67964E+02 -5.53497E+02 -4.53088E+00
 -9.08516E+02 -1.98855E+02 -8.16381E+02  1.10325E+02  3.63484E+02 -3.92078E+02 -5.48800E+01 -4.81593E+02
  9.01942E+02 -6.63091E+02  3.98278E+01  1.10324E+02  9.73862E+02  6.13193E+02 -3.91947E+02  7.87703E+02
 -9.93257E+02  2.00431E+03 -1.48361E+03  1.00229E+03 -1.54705E+03 -3.03067E+02 -9.84959E+02 -8.59135E+02
 -8.49154E+02 -1.30037E+03  5.00182E+01 -8.93172E+02  4.44734E+02 -5.62637E+02  5.45743E+02  2.36075E+02
  8.59343E+02  1.47076E+02  2.08965E+02  1.72049E+02 -3.42041E+02 -6.24027E+01  1.78061E+01 -1.20060E+02
  3.68849E+02  1.83776E+02 -6.35164E+01  3.57566E+02 -1.82227E+01  1.84633E+02  3.38949E+02  3.62731E+02
 -2.63395E+02  4.87261E+02 -5.04709E+02  1.21256E+02 -7.74384E+02 -3.80392E+02  2.19186E+02 -9.15998E+02
  4.54185E+02 -5.05809E+02  2.78233E+02  3.22550E+01  8.97104E+02 -5.64344E+02  3.69928E+02  5.99521E+02
  5.04579E+02  6.38835E+02 -1.17024E+02  5.06410E+02 -7.69791E+02  6.42286E+02 -3.13614E+02  1.36776E+02
 -1.43922E+02 -2.03257E+02 -3.73291E+02 -3.40739E+01 -5.30234E+02  1.93431E+02 -9.04371E+02  1.33132E+01
 -1.10064E+03  5.28056E+02 -3.51543E+02 -1.10927E+03  2.78615E+02 -1.58055E+03  4.85358E+02 -1.39679E+02
  5.93376E+02  1.57238E+02 -3.91495E+02  4.41381E+02 -1.32639E+02  7.55836E+02 -1.96299E+02  8.68040E+02
