 $NMID ID='MM_0lb_SNR800_19hz_g45_17.RAW', FMTDAT='(8E13.5)'
 TRAMP=1., VOLUME=1. $END
  3.09570E+05  3.50756E+02  3.37250E+05  2.50399E+05  8.43291E+04  3.36992E+05 -1.32565E+05  2.49849E+05
 -1.89880E+05  8.23042E+04 -1.10831E+05 -3.28325E+04  1.47685E+03 -5.01711E+04  5.36591E+04  5.21769E+02
  3.52721E+04  5.29558E+04 -1.70007E+04  7.47005E+04 -6.02633E+04  6.23726E+04 -8.27632E+04  3.14356E+04
 -7.91979E+04 -1.12776E+04 -5.59737E+04 -4.99163E+04 -1.47366E+04 -6.80665E+04  2.65688E+04 -4.49199E+04
  3.85973E+04  3.91328E+03  1.54517E+04  4.70370E+04 -3.36627E+04  4.59564E+04 -6.50791E+04 -5.50726E+02
 -5.19394E+04 -5.55177E+04 -6.06177E+03 -7.50354E+04  3.30050E+04 -5.29713E+04  4.58300E+04 -1.61832E+04
  4.14495E+04  1.11152E+04  3.06710E+04  2.42485E+04  1.57353E+04  2.81573E+04 -4.51893E+03  2.65574E+04
 -2.18217E+04  1.27716E+04 -1.91186E+04 -4.42449E+03  4.05412E+03 -7.37220E+03  2.11570E+04  1.08346E+04
  7.38682E+03  3.31025E+04 -3.01854E+04  3.38161E+04 -6.07845E+04  2.28215E+03 -5.52230E+04 -4.08016E+04
 -1.21034E+04 -6.04262E+04  3.79171E+04 -4.32284E+04  5.51636E+04 -1.82055E+03  3.15101E+04  3.03173E+04
 -6.63475E+03  3.27201E+04 -2.80111E+04  1.28625E+04 -2.68959E+04 -5.29807E+03 -1.42041E+04 -9.95334E+03
 -7.25512E+03 -1.09892E+04 -1.13010E+03 -1.64034E+04  6.49100E+03 -2.23823E+04  1.51553E+04 -1.38884E+04
  1.25795E+04  4.12709E+03 -5.82971E+03  1.30456E+04 -1.89469E+04 -2.18978E+03 -8.16408E+03 -3.00612E+04
  2.04137E+04 -3.99284E+04  4.42756E+04 -1.83285E+04  4.15524E+04  1.82234E+04  1.41303E+04  4.11970E+04
 -1.51660E+04  3.07152E+04 -2.33616E+04  1.04981E+03 -7.79442E+03 -2.60479E+04  2.02126E+04 -3.05819E+04
  3.76393E+04 -6.88290E+03  3.09571E+04  2.27351E+04  1.48958E+04  4.19463E+04 -7.70215E+03  4.45256E+04
 -2.81137E+04  2.92225E+04 -3.69144E+04  7.98978E+03 -3.75412E+04 -1.49680E+04 -2.09482E+04 -3.38462E+04
  6.74370E+03 -3.35808E+04  2.87253E+04 -1.24050E+04  2.67242E+04  1.07990E+04  2.64182E+03  1.75371E+04
 -1.32215E+04  7.32112E+03 -9.69013E+03 -7.71296E+03  6.03381E+03 -1.02426E+04  1.70562E+04  6.44023E+03
  1.19600E+04  2.15861E+04 -6.81541E+03  2.33029E+04 -2.11971E+04  8.81245E+03 -2.46903E+04 -6.62833E+03
 -1.63593E+04 -1.60661E+04 -5.00533E+03 -1.60335E+04  3.82391E+03 -1.41674E+04  1.21862E+04 -1.37534E+04
  2.05847E+04 -1.14147E+04  2.77258E+04  9.45841E+02  2.07990E+04  1.61684E+04  4.00556E+03  3.20129E+04
 -1.56228E+04  2.68909E+04 -2.54482E+04  9.13267E+03 -1.95364E+04 -1.03530E+04 -3.74608E+03 -1.39850E+04
  2.44592E+03 -4.40651E+03 -2.37156E+03  5.13063E+03 -1.22710E+04  5.47643E+03 -1.27152E+04 -4.54441E+03
 -8.60648E+03 -1.51055E+04  4.13713E+03 -1.88041E+04  1.23774E+04 -1.36027E+04  1.41910E+04 -1.52715E+03
  8.30913E+03  1.05488E+04 -9.52571E+02  1.53971E+04 -1.01548E+04  8.49409E+03 -1.48381E+04 -3.66712E+03
 -1.11911E+04 -1.38744E+04 -1.56269E+03 -1.84711E+04  8.44627E+03 -1.51146E+04  1.56046E+04 -7.14399E+03
  1.41760E+04  7.34734E+02  1.00888E+04  3.72604E+03  4.91359E+03  9.89014E+01  7.30234E+03 -1.15704E+03
  1.32825E+04  2.66415E+03  1.39586E+04  1.22036E+04  8.58084E+03  2.41497E+04 -3.21058E+03  2.55892E+04
 -1.49795E+04  1.93699E+04 -2.35499E+04  9.40741E+03 -2.39226E+04 -1.78890E+03 -2.04343E+04 -1.35403E+04
 -9.85514E+03 -1.92886E+04  6.48244E+03 -1.81406E+04  1.59916E+04 -1.07717E+04  1.53772E+04  3.38048E+03
  6.41702E+03  1.07855E+04 -6.77539E+03  1.01706E+04 -1.28611E+04  2.47259E+03 -1.01185E+04 -7.58073E+03
  9.22957E+00 -1.17265E+04  5.99686E+03 -9.35497E+03  7.52440E+03 -1.43405E+03  1.26824E+03  4.62662E+03
 -5.16810E+03  8.90891E+02 -3.42622E+03 -4.40508E+03  8.22931E+02 -9.75025E+03  7.88679E+03 -9.32048E+03
  1.13422E+04 -4.33696E+03  1.12024E+04  2.63573E+03  9.67115E+03  8.81952E+03  4.85918E+03  1.32344E+04
 -1.24327E+03  1.52184E+04 -8.79131E+03  9.70176E+03 -1.09162E+04  2.91639E+03 -8.07065E+03 -1.61430E+03
 -4.38905E+03 -3.41908E+03 -9.96126E+02  1.41738E+03 -1.95699E+03  1.82762E+03 -3.57063E+03  3.42419E+03
 -7.49263E+03 -5.50960E+02 -8.66560E+03 -6.99160E+03 -3.48401E+03 -1.10034E+04  3.65967E+03 -8.23566E+03
  6.69391E+03 -3.55038E+03  4.91813E+03  2.17208E+03  4.47605E+02  2.41775E+03 -3.06399E+03 -1.98763E+02
 -3.10253E+03 -5.12227E+03 -9.26974E+02 -6.82220E+03  3.74894E+03 -7.49065E+03  9.40156E+03 -3.88637E+03
  1.12933E+04  4.45473E+02  8.34744E+03  5.73742E+03  1.81928E+03  8.16403E+03 -5.04577E+03  7.82285E+03
 -6.71596E+03  2.70737E+03 -3.74415E+03 -9.49223E+02  1.18566E+03 -1.89470E+03  4.35003E+03 -1.07699E+03
  3.95301E+03  3.40097E+03  1.01865E+03  6.04353E+03 -4.12540E+03  6.10619E+03 -7.59031E+03  1.62339E+03
 -4.62988E+03 -3.27677E+03  1.14158E+02 -6.39035E+03  3.48648E+03 -3.13963E+03  3.45551E+03  6.48780E+02
  2.58304E+02  3.35281E+03 -3.75151E+03  4.56983E+03 -4.37544E+03  2.11026E+03 -4.02030E+03 -1.29425E+03
 -2.71903E+03 -5.30659E+03  8.18729E+02 -6.65564E+03  5.48089E+03 -4.25319E+03  6.18773E+03  7.84935E+02
  4.28341E+03  5.07868E+03  1.32847E+02  7.18235E+03 -4.61120E+03  3.95950E+03 -4.79206E+03 -2.92858E+02
 -5.64665E+03 -5.06755E+03 -1.49742E+03 -4.51457E+03  2.41192E+03 -4.61844E+03  2.71088E+03 -2.90274E+03
  2.73067E+03  3.18498E+02  1.37065E+02  1.28733E+03  5.48940E+02 -2.09477E+02  2.59222E+01 -1.84496E+03
  3.63111E+03 -4.65351E+02  4.71884E+03  7.50333E+02  5.33407E+03  2.57643E+03  5.05196E+03  6.51979E+03
 -1.07184E+03  7.82643E+03 -7.19663E+03  5.96948E+03 -9.18670E+03  9.68276E+02 -7.04148E+03 -2.29331E+03
 -3.90885E+03 -6.13452E+03 -2.21416E+02 -4.84713E+03  1.82307E+03 -2.05799E+03  1.70768E+03 -2.21554E+03
  1.08464E+03 -1.30692E+03  1.82440E+03 -2.10223E+03  3.27239E+03 -1.43037E+03  2.95265E+03  7.21715E+02
  4.30808E+03  1.35011E+03  1.26764E+03  3.16348E+03 -1.70250E+03  2.55875E+03 -4.61046E+03  2.44322E+03
 -4.60247E+03 -1.05060E+03 -1.87829E+03 -3.10556E+03  5.17532E+02 -4.49884E+03  3.21178E+03 -5.04407E+03
  4.42813E+03 -3.14481E+03  6.30880E+03  1.63373E+02  4.83344E+03  3.81719E+03  9.53841E+02  5.75246E+03
 -2.16391E+03  5.71117E+03 -3.21922E+03  1.76983E+03 -1.51481E+03 -1.22572E+03 -2.49145E+02 -5.14456E+02
 -6.66863E+02  2.06414E+02 -6.94879E+02  1.88276E+03 -2.20303E+03  1.07963E+03 -3.67681E+03 -3.25381E+02
 -1.46699E+03 -4.02723E+03  8.40817E+02 -4.29853E+03  2.48214E+03 -4.26625E+03  3.01278E+03 -1.05664E+03
  3.74035E+03  1.97079E+03  1.92556E+03  3.19123E+03 -4.47712E+02  4.04700E+03 -2.65163E+03  2.57352E+03
 -3.36962E+03  6.94521E+02 -2.88490E+03 -2.43069E+03 -3.03736E+01 -3.06669E+03  1.46435E+03 -2.09953E+03
  2.38265E+03 -1.31779E+03  1.49917E+03  4.39733E+02  5.46198E+02  1.79673E+03  7.58676E+02  2.42112E+02
  1.58149E+03  7.73736E+02  1.01185E+03  1.03798E+03  9.04444E+02  2.09318E+03  1.48653E+03  1.49350E+03
 -1.15867E+03  2.74850E+03 -2.25580E+03  3.67884E+03 -2.49472E+03  1.04678E+03 -3.75286E+03 -5.27227E+02
 -1.68256E+03 -3.35364E+03  7.63018E+02 -4.45246E+03  1.63785E+03 -2.31693E+03  2.77889E+03 -9.12558E+02
  2.19610E+03  1.60583E+03  2.16055E+02  2.36022E+03 -6.07882E+02  1.24483E+03 -9.31666E+02 -1.02336E+02
 -4.05498E+02 -1.46075E+03  1.53786E+03 -1.33606E+03  1.14528E+03 -8.84556E+02  1.29833E+03  1.65487E+02
  9.17424E+02  2.04114E+02  5.57374E+02 -3.00762E+02 -1.36195E+02  8.67902E+02  1.54294E+03 -2.59771E+02
 -3.01163E+02 -1.11593E+02  1.66012E+03  3.13338E+02  2.54174E+02  2.24428E+03 -2.53135E+02  2.48635E+03
 -1.46874E+03  8.16476E+02 -1.67881E+03  1.71663E+02 -2.03809E+03 -8.98035E+02 -1.30645E+02 -7.72271E+02
  3.03743E+02 -1.29261E+03  8.13783E+02 -3.27473E+02  3.04407E+02  1.16937E+03 -6.41536E+02  1.17483E+03
 -1.38291E+03  6.47022E+02 -1.18086E+03 -1.36884E+03 -3.66418E+02 -2.06501E+03  1.15380E+02 -1.39846E+03
  2.41586E+02 -4.19330E+02  8.38912E+02  9.68729E+01  1.15057E+03 -1.74693E+02  3.13496E+02  1.04291E+03
 -2.32910E+02  3.03347E+02 -7.66154E+02 -6.85126E+01  7.39340E+02 -7.55082E+02  1.62934E+03 -8.92536E+02
  1.07002E+03  5.31710E+02  2.41223E+03  5.09263E+02  1.20005E+03  1.57833E+03 -2.14932E+02  1.71850E+03
 -1.22957E+03  2.43176E+02 -1.26959E+03 -1.48839E+02 -7.14081E+02 -9.75000E+02  8.94270E+01 -2.19332E+02
  1.49794E+03 -1.06096E+03  6.58201E+02  6.35288E+02  1.25896E+02  1.03472E+03  1.33102E+02  1.02961E+03
 -4.30505E+02  1.19566E+03 -5.82972E+02  3.48391E+02  1.06693E+01  4.84124E+02 -8.56812E+02  5.95197E+02
 -4.48652E+02  1.03822E+03 -1.63356E+03  5.00051E+02 -1.62657E+03  4.10839E+02 -2.40242E+03 -9.23638E+02
 -8.32795E+02 -2.11745E+03  7.44877E+02 -2.51105E+03  1.03871E+03 -2.14743E+03  2.44489E+03 -9.82687E+02
  1.99629E+03 -1.30324E+02  9.06958E+02  1.37303E+03 -6.11689E+02  1.35567E+03 -8.29157E+02  1.19031E+03
 -8.65931E+02  4.97320E+02 -7.02082E+02 -5.51492E+02 -5.87585E+02  2.10891E+02 -5.61966E+02  2.94040E+02
 -8.72108E+02  1.04239E+02 -1.00595E+03  2.20635E+02  2.15062E+02 -6.50546E+02 -3.75760E+02 -7.01299E+02
  1.46435E+03 -9.18204E+02  2.89943E+02  1.57231E+02  1.19065E+03  9.85734E+02 -5.26319E+02  1.39429E+03
 -1.08846E+03  1.98653E+03 -1.46522E+03  1.43252E+03 -1.47428E+03 -9.76682E+01 -1.03715E+03 -9.70808E+02
 -8.85115E+02 -1.30130E+03  9.99250E+01 -1.33162E+03  3.97116E+02 -3.40602E+02  9.24843E+02  2.67278E+02
  4.77945E+02  3.59478E+02 -1.01413E+02  3.86201E+02 -6.06756E+02  1.18543E+01 -1.81147E+02 -2.09307E+02
  3.22744E+02  2.69572E+02  1.84272E+02  5.99726E+02  6.41116E+01  3.63260E+02  3.66402E+02  2.56088E+01
 -4.49802E+02  5.21723E+02 -1.78427E+02  2.61967E+02 -5.50312E+02 -4.45593E+02 -2.42195E+01 -1.10503E+03
  3.59133E+02 -8.41750E+02  5.88321E+02 -1.50904E+02  1.09122E+03 -5.29158E+02  5.86174E+02  8.04018E+02
  3.18337E+02  5.10112E+02 -3.34553E+02  5.05776E+02 -5.97765E+02  4.29538E+02 -4.84826E+02  2.23308E+02
  7.03725E+01 -1.91493E+02 -3.99350E+02  2.23828E+02 -5.09775E+02  1.68859E+00 -6.97373E+02 -1.14844E+01
 -1.00622E+03  4.22543E+02 -7.22511E+01 -8.80507E+02  8.07547E+02 -1.51317E+03  4.84018E+02 -2.69270E+02
  6.05086E+02  1.64261E+02 -5.93177E+02  1.22278E+02 -1.86733E+02  8.42279E+02 -3.95049E+02  8.44754E+02
