 $NMID ID='MM_0lb_SNR800_16hz_g55_41.RAW', FMTDAT='(8E13.5)'
 TRAMP=1., VOLUME=1. $END
  3.09648E+05  4.45355E+02  3.37487E+05  2.50430E+05  8.47528E+04  3.37916E+05 -1.32432E+05  2.50981E+05
 -1.90288E+05  8.29745E+04 -1.11944E+05 -3.25569E+04  1.17234E+03 -5.06636E+04  5.40274E+04  1.18992E+02
  3.55121E+04  5.31677E+04 -1.67789E+04  7.51591E+04 -6.07911E+04  6.34576E+04 -8.38309E+04  3.20695E+04
 -8.06812E+04 -1.13196E+04 -5.71473E+04 -5.10438E+04 -1.51304E+04 -6.92056E+04  2.71091E+04 -4.56866E+04
  3.99652E+04  3.76475E+03  1.62200E+04  4.77659E+04 -3.43802E+04  4.71051E+04 -6.66020E+04 -3.01846E+02
 -5.34723E+04 -5.66447E+04 -6.44425E+03 -7.68908E+04  3.40292E+04 -5.47808E+04  4.78269E+04 -1.70612E+04
  4.31994E+04  1.09917E+04  3.16097E+04  2.53838E+04  1.62122E+04  2.90872E+04 -5.03093E+03  2.72743E+04
 -2.20329E+04  1.25737E+04 -1.86506E+04 -5.06229E+03  5.49382E+03 -7.57561E+03  2.20326E+04  1.22326E+04
  7.16010E+03  3.50526E+04 -3.20579E+04  3.54016E+04 -6.29624E+04  2.26452E+03 -5.70272E+04 -4.25643E+04
 -1.22990E+04 -6.28678E+04  3.94660E+04 -4.49968E+04  5.79847E+04 -2.29019E+03  3.36690E+04  3.20861E+04
 -6.20320E+03  3.56996E+04 -2.99186E+04  1.52459E+04 -2.96548E+04 -4.67442E+03 -1.64350E+04 -1.08435E+04
 -8.28478E+03 -1.25640E+04 -8.41487E+02 -1.79073E+04  7.26599E+03 -2.29777E+04  1.52867E+04 -1.37169E+04
  1.15776E+04  4.87222E+03 -7.69300E+03  1.30137E+04 -2.10348E+04 -3.92573E+03 -8.34457E+03 -3.31801E+04
  2.24064E+04 -4.29060E+04  4.76452E+04 -1.94534E+04  4.43861E+04  1.93207E+04  1.56964E+04  4.36191E+04
 -1.58441E+04  3.31293E+04 -2.49749E+04  1.58500E+03 -9.65897E+03 -2.74308E+04  2.07821E+04 -3.31843E+04
  4.01939E+04 -8.52115E+03  3.47551E+04  2.37741E+04  1.73901E+04  4.57951E+04 -8.06504E+03  4.88984E+04
 -3.10509E+04  3.30760E+04 -4.08130E+04  9.19974E+03 -4.18261E+04 -1.61997E+04 -2.31063E+04 -3.75586E+04
  7.64524E+03 -3.68197E+04  3.10322E+04 -1.43410E+04  2.90517E+04  1.08316E+04  3.72961E+03  1.87050E+04
 -1.33521E+04  8.01408E+03 -9.99117E+03 -7.60612E+03  5.80809E+03 -1.05992E+04  1.78136E+04  6.14436E+03
  1.33134E+04  2.16001E+04 -5.84895E+03  2.46596E+04 -2.21129E+04  1.10339E+04 -2.74282E+04 -5.26832E+03
 -1.97404E+04 -1.71583E+04 -7.29249E+03 -1.95221E+04  3.80366E+03 -1.84869E+04  1.51292E+04 -1.72310E+04
  2.48534E+04 -1.27084E+04  3.15165E+04  2.82505E+03  2.31303E+04  1.89004E+04  4.43986E+03  3.55380E+04
 -1.73298E+04  2.96759E+04 -2.72275E+04  1.02624E+04 -2.03449E+04 -1.01063E+04 -4.25762E+03 -1.35242E+04
  2.08591E+03 -3.21781E+03 -4.42975E+03  6.36950E+03 -1.52283E+04  4.96053E+03 -1.55991E+04 -6.58923E+03
 -9.94534E+03 -1.79916E+04  4.85347E+03 -2.18321E+04  1.48869E+04 -1.54138E+04  1.74003E+04 -1.50672E+03
  1.08107E+04  1.24150E+04 -1.11042E+03  1.80174E+04 -1.24176E+04  1.01634E+04 -1.83922E+04 -3.76763E+03
 -1.33530E+04 -1.61878E+04 -1.75840E+03 -2.19846E+04  9.83794E+03 -1.79932E+04  1.83593E+04 -8.67541E+03
  1.67796E+04  2.78943E+02  1.25686E+04  4.26786E+03  6.22926E+03  1.08319E+03  9.12372E+03 -1.72358E+03
  1.65644E+04  2.61992E+03  1.81189E+04  1.44377E+04  1.17388E+04  2.86445E+04 -3.05349E+03  3.22059E+04
 -1.88543E+04  2.57522E+04 -2.94881E+04  1.23232E+04 -3.10426E+04 -2.09914E+03 -2.56900E+04 -1.81543E+04
 -1.10732E+04 -2.56603E+04  8.56462E+03 -2.31667E+04  2.00389E+04 -1.20787E+04  1.83198E+04  5.19416E+03
  6.80669E+03  1.32461E+04 -8.36524E+03  1.17120E+04 -1.54741E+04  2.72638E+03 -1.17788E+04 -9.17982E+03
 -5.34634E+01 -1.44737E+04  7.45034E+03 -1.10962E+04  9.56776E+03 -1.31945E+03  2.05815E+03  6.25392E+03
 -6.68425E+03  2.16997E+03 -5.33297E+03 -5.27202E+03 -3.62084E+02 -1.22684E+04  9.03643E+03 -1.29335E+04
  1.51386E+04 -6.47629E+03  1.59436E+04  2.90279E+03  1.37898E+04  1.22503E+04  6.44782E+03  1.83896E+04
 -2.91319E+03  2.02650E+04 -1.27616E+04  1.27052E+04 -1.45312E+04  3.08905E+03 -1.02536E+04 -3.08084E+03
 -5.37090E+03 -4.68933E+03 -9.11136E+02  1.22674E+03 -1.99639E+03  2.20202E+03 -4.50314E+03  4.27706E+03
 -9.85041E+03 -6.66431E+02 -1.04977E+04 -8.26099E+03 -4.16481E+03 -1.37390E+04  3.99340E+03 -1.03416E+04
  8.70782E+03 -4.57987E+03  5.96623E+03  2.93635E+03  3.62597E+02  3.83306E+03 -4.88782E+03 -3.78521E+02
 -4.35402E+03 -6.54311E+03 -8.72373E+02 -9.36082E+03  5.49838E+03 -1.01225E+04  1.24101E+04 -5.46716E+03
  1.47352E+04  1.10975E+03  1.10479E+04  8.12846E+03  2.08565E+03  1.13526E+04 -6.52252E+03  1.00854E+04
 -8.34668E+03  3.39862E+03 -4.22907E+03 -1.47261E+03  1.53012E+03 -2.82916E+03  5.84169E+03 -1.27596E+03
  5.11540E+03  4.49075E+03  1.02356E+03  7.85622E+03 -5.72174E+03  7.70170E+03 -9.88272E+03  2.10641E+03
 -6.63775E+03 -5.06380E+03  3.04122E+02 -8.48917E+03  4.79754E+03 -4.28197E+03  5.02323E+03  1.55669E+03
  6.79294E+02  4.62332E+03 -5.09000E+03  6.52277E+03 -6.94067E+03  2.89002E+03 -6.81945E+03 -2.21351E+03
 -4.07364E+03 -8.39623E+03  1.90143E+03 -9.80181E+03  8.08545E+03 -6.25318E+03  8.96758E+03  1.63804E+03
  6.12954E+03  7.29424E+03 -8.19945E+01  9.51951E+03 -6.75540E+03  5.38151E+03 -6.98836E+03 -6.76129E+02
 -7.17363E+03 -6.53678E+03 -1.41024E+03 -6.86113E+03  3.35595E+03 -5.61170E+03  3.86065E+03 -2.86380E+03
  3.10729E+03  5.79939E+02 -2.97950E+02  1.30272E+03  2.89985E+02 -9.93386E+02  9.43442E+02 -3.13459E+03
  5.68045E+03 -1.73189E+03  7.38534E+03  1.09795E+03  7.72486E+03  5.19317E+03  6.12887E+03  1.01358E+04
 -1.69860E+03  1.15948E+04 -1.04575E+04  8.81291E+03 -1.35243E+04  1.80850E+03 -1.05405E+04 -4.01267E+03
 -5.65099E+03 -8.96899E+03 -3.78872E+02 -7.20794E+03  2.82850E+03 -3.70124E+03  2.49319E+03 -2.59516E+03
  1.69219E+03 -2.04031E+03  2.45243E+03 -2.34273E+03  4.28712E+03 -1.56228E+03  4.40159E+03 -6.51355E+01
  5.73381E+03  1.47291E+03  2.36405E+03  4.58409E+03 -1.84385E+03  4.38870E+03 -6.03803E+03  3.89013E+03
 -7.23337E+03 -1.13114E+03 -3.43110E+03 -4.84770E+03  1.09018E+02 -7.12051E+03  4.55572E+03 -7.57257E+03
  7.57816E+03 -4.69875E+03  9.20501E+03  9.08237E+02  6.72195E+03  5.92536E+03  1.38720E+03  8.40668E+03
 -3.24282E+03  7.68238E+03 -4.96557E+03  2.75248E+03 -2.82441E+03 -1.08292E+03 -1.01408E+03 -7.21695E+02
 -7.32205E+02  4.88079E+02 -1.07915E+03  2.23437E+03 -3.26761E+03  1.45234E+03 -5.41112E+03 -4.64026E+02
 -2.99290E+03 -5.14572E+03  7.42056E+02 -6.51063E+03  4.08459E+03 -6.34068E+03  5.46956E+03 -1.49229E+03
  6.02051E+03  3.27501E+03  2.97292E+03  5.64889E+03 -1.23624E+03  6.14771E+03 -4.14762E+03  3.93481E+03
 -5.74761E+03  5.20852E+02 -4.44761E+03 -3.87066E+03 -6.31066E+02 -4.84244E+03  2.65019E+03 -3.56554E+03
  3.93631E+03 -1.57794E+03  2.63521E+03  1.10809E+03  6.74999E+02  2.17173E+03  9.88594E+02  9.93205E+02
  1.95972E+03  9.61605E+02  1.36336E+03  1.09388E+03  1.76083E+03  3.09505E+03  1.86225E+03  2.91784E+03
 -1.47877E+03  4.69702E+03 -3.66887E+03  5.56450E+03 -5.51268E+03  1.44905E+03 -6.17913E+03 -1.60673E+03
 -2.63403E+03 -5.73028E+03  8.79511E+02 -6.81953E+03  3.32403E+03 -4.04362E+03  4.98816E+03 -1.21887E+03
  3.63137E+03  2.61365E+03  6.90264E+02  2.99579E+03 -1.18990E+03  1.94168E+03 -2.08812E+03 -3.59391E+02
 -1.01159E+03 -2.39996E+03  1.92882E+03 -2.48113E+03  2.16258E+03 -1.35744E+03  1.98160E+03  7.04190E+02
  1.42538E+03  9.28579E+02  9.42650E+02  1.85728E+02 -4.60667E+02  9.26758E+02  1.92151E+03 -3.25213E+02
  3.08481E+02 -2.95549E+02  2.67278E+03  9.90629E+02  9.90400E+02  3.23669E+03 -2.86602E+02  4.45104E+03
 -2.34154E+03  2.20403E+03 -3.19560E+03  7.11201E+02 -3.42892E+03 -1.26605E+03 -7.97042E+02 -1.84826E+03
  5.62733E+02 -1.96647E+03  1.41005E+03 -1.18425E+03  8.56082E+02  1.35023E+03 -6.39621E+02  1.82440E+03
 -2.15615E+03  1.20803E+03 -2.08198E+03 -1.73041E+03 -1.29189E+03 -2.93775E+03  8.76092E+01 -2.59582E+03
  1.08732E+03 -9.99182E+02  1.71568E+03  2.87697E+00  2.01783E+03  2.51496E+02  3.82698E+02  1.90915E+03
 -9.40979E+02  1.10868E+02 -1.52426E+03 -4.54419E+02  6.21552E+02 -1.33282E+03  2.33041E+03 -1.45746E+03
  2.78711E+03  1.33795E+02  3.47243E+03  1.92561E+03  1.16528E+03  2.87204E+03 -8.27733E+02  2.59491E+03
 -2.63323E+03  7.63833E+02 -2.48965E+03 -5.61229E+01 -1.28204E+03 -2.18349E+03  4.81137E+02 -1.24800E+03
  2.23399E+03 -1.25091E+03  1.17725E+03  9.00390E+02  5.52662E+02  2.10817E+03  3.39699E+02  1.66832E+03
 -6.45349E+02  1.04073E+03 -6.97541E+02  2.70885E+02 -1.72469E+02  4.64410E+02 -7.15387E+02  5.98905E+02
 -7.37547E+02  1.26918E+03 -2.58427E+03  7.69307E+02 -3.02226E+03 -2.41273E+01 -3.58373E+03 -1.51873E+03
 -1.79006E+03 -3.84194E+03  8.84626E+02 -4.63236E+03  2.05006E+03 -3.74556E+03  4.58892E+03 -1.75804E+03
  3.62501E+03 -5.32574E+01  1.96768E+03  2.61750E+03 -1.22844E+02  2.71630E+03 -7.97279E+02  2.50217E+03
 -1.42413E+03  1.43010E+03 -9.02184E+02 -5.88140E+02 -5.48848E+02  1.22215E+02 -6.71359E+02 -4.09825E+01
 -1.10069E+03 -1.54836E+02 -1.18418E+03  8.64342E+01  3.54516E+02 -1.11707E+03 -5.06261E+02 -1.06220E+03
  1.91622E+03 -8.72335E+02  8.84875E+02 -1.60012E+02  1.74933E+03  1.31766E+03 -1.19614E+00  2.45521E+03
 -1.54796E+03  3.34274E+03 -2.78372E+03  2.19765E+03 -2.89447E+03 -1.39041E+02 -2.30549E+03 -1.95388E+03
 -1.10100E+03 -2.30882E+03  5.56609E+02 -2.36498E+03  1.32923E+03 -1.28987E+03  1.31775E+03  2.70248E+02
  1.07388E+03  4.79466E+02  3.24299E+02  7.11173E+02 -5.48768E+02 -2.20584E+02 -7.62482E+01 -3.01978E+02
  9.35242E+02 -1.06534E+02  8.72176E+02  1.95267E+02  1.65332E+02  1.09756E+03  4.70485E+02  9.05314E+02
 -9.11294E+02  1.26716E+03 -1.53851E+03  1.48208E+02 -1.44640E+03 -1.01941E+03 -1.11996E+02 -1.99698E+03
  1.04587E+03 -9.87245E+02  1.29881E+03 -1.64885E+02  1.66621E+03 -4.22918E+02  9.42237E+02  1.33933E+03
  5.07655E+02  1.21367E+03 -3.73040E+02  1.26658E+03 -9.38278E+02  5.43718E+02 -7.69481E+02  1.88445E+02
 -1.57810E+02 -4.24378E+02 -5.76665E+02  8.77565E+01 -9.43775E+02  3.21976E+02 -1.14137E+03 -4.17912E+02
 -1.19213E+03 -1.95782E+02 -8.28633E+02 -1.65675E+03  1.05672E+03 -2.07539E+03  1.19753E+03 -6.91196E+02
  1.48247E+03  3.55419E+02  2.12098E+02  9.17543E+02 -8.57801E+01  1.42241E+03 -8.05950E+02  1.30965E+03
