 $NMID ID='MM_0lb_SNR800_12hz_g40_24.RAW', FMTDAT='(8E13.5)'
 TRAMP=1., VOLUME=1. $END
  3.09501E+05  5.67822E+02  3.37376E+05  2.50774E+05  8.48379E+04  3.38036E+05 -1.32403E+05  2.51051E+05
 -1.90046E+05  8.34082E+04 -1.11766E+05 -3.27358E+04  6.01802E+02 -5.06283E+04  5.40265E+04 -3.11725E+02
  3.54708E+04  5.27517E+04 -1.70170E+04  7.53172E+04 -6.09784E+04  6.36375E+04 -8.42045E+04  3.21085E+04
 -8.14385E+04 -1.16321E+04 -5.71231E+04 -5.12358E+04 -1.49854E+04 -6.95128E+04  2.73421E+04 -4.58540E+04
  3.98448E+04  3.87174E+03  1.62819E+04  4.77964E+04 -3.46738E+04  4.74516E+04 -6.71836E+04  8.55922E-01
 -5.32654E+04 -5.68368E+04 -6.93106E+03 -7.74323E+04  3.39493E+04 -5.51891E+04  4.83328E+04 -1.72673E+04
  4.39788E+04  1.15335E+04  3.15740E+04  2.57254E+04  1.59297E+04  2.94705E+04 -5.45849E+03  2.74318E+04
 -2.23987E+04  1.20979E+04 -1.86307E+04 -5.18204E+03  5.89106E+03 -7.40432E+03  2.25373E+04  1.23411E+04
  7.30926E+03  3.57214E+04 -3.25483E+04  3.54363E+04 -6.35209E+04  2.23628E+03 -5.73423E+04 -4.30035E+04
 -1.23469E+04 -6.34492E+04  3.97028E+04 -4.57247E+04  5.88889E+04 -2.24526E+03  3.43318E+04  3.29232E+04
 -6.21800E+03  3.66584E+04 -3.04820E+04  1.62874E+04 -3.07158E+04 -4.31820E+03 -1.71226E+04 -1.09779E+04
 -8.55543E+03 -1.36398E+04 -6.12175E+02 -1.82190E+04  7.58649E+03 -2.29279E+04  1.52999E+04 -1.33820E+04
  1.12674E+04  5.17130E+03 -8.38218E+03  1.30514E+04 -2.17432E+04 -5.07462E+03 -8.02688E+03 -3.44436E+04
  2.29066E+04 -4.42245E+04  4.87704E+04 -2.01071E+04  4.57132E+04  1.96280E+04  1.57975E+04  4.44214E+04
 -1.61864E+04  3.39756E+04 -2.55915E+04  1.80843E+03 -1.03333E+04 -2.81291E+04  2.12071E+04 -3.42987E+04
  4.15924E+04 -9.29364E+03  3.64492E+04  2.37414E+04  1.88065E+04  4.74791E+04 -8.02475E+03  5.13371E+04
 -3.22507E+04  3.43393E+04 -4.32872E+04  9.62447E+03 -4.34305E+04 -1.67908E+04 -2.38130E+04 -3.85720E+04
  7.38063E+03 -3.85473E+04  3.19823E+04 -1.51442E+04  2.97015E+04  1.10252E+04  4.17798E+03  1.94788E+04
 -1.36985E+04  8.56093E+03 -1.03899E+04 -7.38103E+03  6.08342E+03 -1.06093E+04  1.78786E+04  5.99635E+03
  1.40624E+04  2.20985E+04 -5.67069E+03  2.54378E+04 -2.24104E+04  1.21983E+04 -2.88385E+04 -4.45116E+03
 -2.13941E+04 -1.75360E+04 -9.00124E+03 -2.12690E+04  4.09120E+03 -2.09578E+04  1.65096E+04 -1.92967E+04
  2.73817E+04 -1.31193E+04  3.35351E+04  3.09185E+03  2.46781E+04  2.08813E+04  4.28408E+03  3.75295E+04
 -1.80408E+04  3.10546E+04 -2.82417E+04  1.10319E+04 -2.12508E+04 -1.05246E+04 -4.46373E+03 -1.32484E+04
  1.87713E+03 -2.77579E+03 -5.25771E+03  7.04091E+03 -1.68831E+04  4.98366E+03 -1.74204E+04 -7.99107E+03
 -1.04557E+04 -1.99218E+04  5.28226E+03 -2.42519E+04  1.58706E+04 -1.70450E+04  1.92275E+04 -1.66937E+03
  1.23048E+04  1.37623E+04 -9.17254E+02  1.95597E+04 -1.36313E+04  1.15290E+04 -2.01225E+04 -4.54969E+03
 -1.46176E+04 -1.78931E+04 -1.94206E+03 -2.38201E+04  1.11706E+04 -1.96884E+04  2.00806E+04 -1.00746E+04
  1.88048E+04  3.83721E+02  1.34208E+04  4.56247E+03  7.21895E+03  8.24452E+02  1.01644E+04 -1.48442E+03
  1.85123E+04  2.87070E+03  2.05121E+04  1.62334E+04  1.37620E+04  3.17079E+04 -3.03057E+03  3.64398E+04
 -2.09570E+04  2.95008E+04 -3.41112E+04  1.47590E+04 -3.61069E+04 -2.53276E+03 -2.96200E+04 -2.06628E+04
 -1.28073E+04 -2.93439E+04  1.06123E+04 -2.64390E+04  2.29693E+04 -1.37380E+04  2.01745E+04  5.97277E+03
  7.47932E+03  1.52446E+04 -9.71305E+03  1.32447E+04 -1.71435E+04  2.50703E+03 -1.31575E+04 -1.07108E+04
 -1.19808E+02 -1.63919E+04  8.45062E+03 -1.17045E+04  1.09749E+04 -1.30526E+03  2.52035E+03  7.16266E+03
 -7.24566E+03  3.20802E+03 -6.53509E+03 -5.80028E+03 -5.78012E+02 -1.45318E+04  9.73601E+03 -1.53523E+04
  1.78693E+04 -8.38271E+03  1.94082E+04  3.45628E+03  1.71180E+04  1.46294E+04  7.50948E+03  2.23177E+04
 -3.85031E+03  2.36465E+04 -1.53941E+04  1.56119E+04 -1.73842E+04  3.39633E+03 -1.20331E+04 -4.07862E+03
 -5.48817E+03 -5.62774E+03 -1.04948E+03  5.28540E+02 -2.53372E+03  2.92918E+03 -5.30146E+03  4.41595E+03
 -1.12256E+04 -6.28491E+02 -1.15516E+04 -9.60848E+03 -4.77882E+03 -1.56405E+04  5.25255E+03 -1.23822E+04
  1.00974E+04 -5.27791E+03  7.04823E+03  2.84103E+03  1.09011E+02  4.72850E+03 -6.35076E+03 -1.23118E+02
 -5.64389E+03 -7.81923E+03 -1.07108E+03 -1.17824E+04  6.76074E+03 -1.24180E+04  1.52705E+04 -6.29198E+03
  1.78453E+04  1.85089E+03  1.31089E+04  1.07344E+04  2.51418E+03  1.42849E+04 -7.69971E+03  1.22167E+04
 -9.78994E+03  3.66916E+03 -5.25487E+03 -2.45644E+03  1.99275E+03 -3.28720E+03  6.65974E+03 -9.42768E+02
  5.73696E+03  5.06815E+03  1.20006E+03  9.82217E+03 -6.59913E+03  9.49493E+03 -1.20805E+04  2.21347E+03
 -7.77314E+03 -6.27456E+03  3.79430E+02 -1.02909E+04  6.14442E+03 -5.21493E+03  6.35369E+03  2.43411E+03
  1.45858E+03  6.71057E+03 -6.47793E+03  8.44647E+03 -9.48921E+03  3.50184E+03 -9.75873E+03 -3.21479E+03
 -5.94520E+03 -1.11595E+04  2.56220E+03 -1.28005E+04  1.09028E+04 -7.87809E+03  1.19877E+04  2.15898E+03
  7.46742E+03  9.60686E+03 -1.06615E+03  1.15985E+04 -8.93284E+03  6.58385E+03 -9.61016E+03 -8.91331E+02
 -8.55155E+03 -8.03032E+03 -1.85956E+03 -8.98624E+03  4.27090E+03 -7.05964E+03  5.70808E+03 -3.41930E+03
  3.54668E+03  1.07549E+03 -5.71410E+02  1.81940E+03  9.22805E+01 -2.01891E+03  1.55663E+03 -4.91116E+03
  8.06882E+03 -2.93469E+03  1.09225E+04  1.36723E+03  1.11505E+04  7.40925E+03  7.91117E+03  1.44189E+04
 -3.43606E+03  1.65435E+04 -1.39810E+04  1.22599E+04 -1.84642E+04  2.41179E+03 -1.41823E+04 -6.20793E+03
 -7.62138E+03 -1.17295E+04 -4.38495E+02 -1.01337E+04  3.57762E+03 -5.15882E+03  3.81204E+03 -3.56815E+03
  2.40930E+03 -2.47353E+03  3.38344E+03 -3.20190E+03  4.72137E+03 -2.69677E+03  6.06895E+03 -7.01236E+02
  7.67754E+03  1.63957E+03  3.77991E+03  6.19016E+03 -1.79306E+03  7.19294E+03 -8.34315E+03  5.84322E+03
 -9.85400E+03 -1.28832E+03 -5.60656E+03 -6.90622E+03 -5.59231E+02 -1.05609E+04  6.31385E+03 -1.08962E+04
  1.10261E+04 -6.23069E+03  1.33492E+04  1.46764E+03  9.41111E+03  9.19078E+03  1.38728E+03  1.22152E+04
 -4.71006E+03  1.01267E+04 -7.03591E+03  3.58588E+03 -4.79723E+03 -1.35894E+03 -1.81566E+03 -1.46056E+03
 -1.29278E+03  2.21951E+02 -1.54056E+03  2.61054E+03 -4.44287E+03  1.94977E+03 -7.24765E+03 -8.25160E+02
 -4.55804E+03 -7.31002E+03  6.42128E+02 -9.73643E+03  5.97680E+03 -8.95278E+03  9.67550E+03 -2.57188E+03
  9.33197E+03  4.75578E+03  4.27666E+03  8.32310E+03 -1.62903E+03  9.87809E+03 -6.70120E+03  5.87262E+03
 -8.98746E+03  4.51188E+02 -7.19952E+03 -5.61760E+03 -8.21806E+02 -8.03280E+03  3.91371E+03 -6.06891E+03
  5.80357E+03 -2.17591E+03  4.27713E+03  1.55245E+03  1.46434E+03  3.12801E+03  1.38331E+03  1.36668E+03
  2.16064E+03  8.79773E+02  2.40045E+03  1.36841E+03  2.66825E+03  3.70382E+03  2.60129E+03  5.02079E+03
 -2.04201E+03  7.29326E+03 -6.39987E+03  8.24907E+03 -8.98160E+03  2.11009E+03 -9.68883E+03 -3.42339E+03
 -4.94528E+03 -9.10906E+03  1.33490E+03 -1.02867E+04  5.56029E+03 -6.30110E+03  8.13001E+03 -1.71948E+03
  5.80053E+03  3.84516E+03  1.05152E+03  5.16248E+03 -2.63355E+03  3.38431E+03 -3.48670E+03 -4.91138E+02
 -1.64882E+03 -3.95146E+03  2.53187E+03 -4.37068E+03  3.82666E+03 -2.18638E+03  3.41739E+03  8.17864E+02
  2.04361E+03  1.72594E+03  1.25428E+03  8.87399E+02 -7.40270E+02  1.46823E+03  1.73386E+03 -2.45533E+02
  1.38375E+03 -8.23337E+02  3.88851E+03  1.15763E+03  2.20672E+03  5.25096E+03 -1.07878E+03  6.47774E+03
 -4.18409E+03  3.95748E+03 -6.30189E+03  1.17987E+03 -5.04520E+03 -1.95552E+03 -1.85632E+03 -3.48903E+03
  4.56170E+02 -3.40759E+03  2.41191E+03 -1.74594E+03  2.03035E+03  1.97700E+03 -9.81147E+02  2.93930E+03
 -4.04110E+03  1.79721E+03 -4.05678E+03 -2.51920E+03 -2.21531E+03 -5.01748E+03  2.56082E+02 -4.99110E+03
  2.30712E+03 -2.85759E+03  3.42065E+03 -3.24550E+02  3.25783E+03  1.01993E+03  8.80104E+02  2.87565E+03
 -1.56497E+03  7.09037E+02 -2.39611E+03 -1.27672E+03  1.01502E+03 -3.79882E+03  4.36077E+03 -2.97021E+03
  5.61100E+03  2.38030E+02  5.98816E+03  3.46337E+03  2.03722E+03  5.85467E+03 -1.96410E+03  5.44354E+03
 -4.41631E+03  2.32414E+03 -4.86549E+03 -9.98696E+02 -3.04530E+03 -3.94433E+03  9.35656E+02 -3.19594E+03
  3.66253E+03 -1.90053E+03  2.80458E+03  1.63292E+03  7.78639E+02  3.22072E+03 -7.26628E+01  3.01209E+03
 -1.24349E+03  2.12307E+03 -1.32255E+03  3.77769E+02 -7.37479E+02  4.99194E+02 -9.83678E+02  1.27279E+03
 -1.79836E+03  2.27660E+03 -4.10365E+03  2.17755E+03 -5.84891E+03  2.31983E+02 -6.53133E+03 -3.69980E+03
 -3.54511E+03 -7.65158E+03  1.63532E+03 -8.76324E+03  5.16698E+03 -6.45153E+03  8.27625E+03 -2.89178E+03
  7.36671E+03  1.09198E+03  4.74750E+03  5.23920E+03 -1.70710E+02  5.54908E+03 -2.30762E+03  4.19768E+03
 -3.19894E+03  1.62964E+03 -2.21588E+03 -7.07670E+02 -5.70015E+02 -1.60605E+02 -7.62123E+02 -2.09270E+01
 -1.57576E+03  1.24896E+02 -1.21229E+03 -1.85547E+02 -1.30167E+02 -1.45961E+03 -6.84806E+01 -2.25826E+03
  2.86654E+03 -1.85218E+03  3.16118E+03  1.05083E+02  4.04768E+03  3.22633E+03  6.86123E+02  5.52108E+03
 -3.28784E+03  7.23880E+03 -6.00093E+03  4.02960E+03 -7.14407E+03 -5.47848E+02 -4.96648E+03 -4.59552E+03
 -2.28444E+03 -5.64751E+03  1.23536E+03 -5.01272E+03  3.15855E+03 -3.10294E+03  3.55503E+03  2.48894E+02
  2.03594E+03  1.76187E+03 -8.26773E+01  1.46278E+03 -1.01861E+03 -8.29197E+01 -1.12718E+01 -9.63686E+02
  1.79981E+03 -7.21573E+02  2.04703E+03  9.46937E+02  1.43269E+03  2.29603E+03  3.35773E+02  2.54110E+03
 -2.38717E+03  2.29549E+03 -3.73444E+03  5.63209E+02 -3.02474E+03 -2.55245E+03 -3.21478E+02 -4.76366E+03
  2.86706E+03 -3.44509E+03  3.71722E+03 -1.10008E+03  4.17260E+03  6.93917E+02  2.19132E+03  3.17886E+03
  5.03005E+02  3.59401E+03 -1.68600E+03  2.82799E+03 -2.58869E+03  1.67065E+03 -2.05577E+03  2.49538E+02
 -1.03512E+03 -8.16195E+01 -9.09353E+02  5.03407E+02 -2.09260E+03  7.21432E+02 -2.91424E+03 -5.82878E+02
 -2.70959E+03 -1.74169E+03 -8.62392E+02 -3.59215E+03  1.73880E+03 -4.10791E+03  3.06904E+03 -1.66463E+03
  3.20619E+03  6.55402E+02  1.45361E+03  2.28146E+03  2.12113E+02  3.73280E+03 -2.47242E+03  2.53602E+03
