 $NMID ID='MM_0lb_SNR800_8hz_g60_60.RAW', FMTDAT='(8E13.5)'
 TRAMP=1., VOLUME=1. $END
  3.10057E+05  2.91805E+02  3.38204E+05  2.50672E+05  8.48648E+04  3.38305E+05 -1.32760E+05  2.52002E+05
 -1.90825E+05  8.38645E+04 -1.12848E+05 -3.18844E+04  3.30619E+01 -5.11810E+04  5.31749E+04 -5.25909E+02
  3.58620E+04  5.28037E+04 -1.67381E+04  7.62134E+04 -6.11873E+04  6.49604E+04 -8.61775E+04  3.24804E+04
 -8.30455E+04 -1.20496E+04 -5.88416E+04 -5.31793E+04 -1.53349E+04 -7.13443E+04  2.87502E+04 -4.69748E+04
  4.19401E+04  3.56179E+03  1.70289E+04  4.88538E+04 -3.50517E+04  4.82310E+04 -6.92110E+04  1.82347E+02
 -5.52910E+04 -5.82758E+04 -7.83768E+03 -7.94348E+04  3.49769E+04 -5.80686E+04  5.04782E+04 -1.82351E+04
  4.59041E+04  1.16105E+04  3.29354E+04  2.72829E+04  1.61859E+04  3.11584E+04 -6.26942E+03  2.84576E+04
 -2.25022E+04  1.18539E+04 -1.79764E+04 -6.11779E+03  7.96352E+03 -7.16567E+03  2.42430E+04  1.43427E+04
  6.79553E+03  3.81980E+04 -3.42885E+04  3.79419E+04 -6.69942E+04  1.98993E+03 -5.98426E+04 -4.52625E+04
 -1.26539E+04 -6.67849E+04  4.24503E+04 -4.81972E+04  6.22504E+04 -2.21673E+03  3.75629E+04  3.53828E+04
 -5.51164E+03  4.08389E+04 -3.27888E+04  2.01680E+04 -3.45504E+04 -2.93226E+03 -2.02505E+04 -1.27335E+04
 -9.78731E+03 -1.60764E+04 -2.16473E+02 -2.03575E+04  8.25868E+03 -2.38213E+04  1.62094E+04 -1.22564E+04
  1.00619E+04  6.94575E+03 -1.15705E+04  1.28068E+04 -2.47023E+04 -7.64255E+03 -9.03541E+03 -3.90495E+04
  2.62607E+04 -4.88224E+04  5.35405E+04 -2.15094E+04  4.98036E+04  2.12995E+04  1.78390E+04  4.79800E+04
 -1.74380E+04  3.71113E+04 -2.83399E+04  3.06140E+03 -1.25079E+04 -3.00256E+04  2.16155E+04 -3.83644E+04
  4.62845E+04 -1.22523E+04  4.27026E+04  2.55939E+04  2.31309E+04  5.29063E+04 -8.44047E+03  5.87544E+04
 -3.71958E+04  3.99181E+04 -5.01402E+04  1.17257E+04 -4.98136E+04 -1.93055E+04 -2.68684E+04 -4.42473E+04
  7.69280E+03 -4.36354E+04  3.53616E+04 -1.80330E+04  3.29528E+04  1.13746E+04  6.12650E+03  2.16250E+04
 -1.41279E+04  1.05970E+04 -1.11344E+04 -7.26874E+03  5.65499E+03 -1.18523E+04  1.88622E+04  5.62386E+03
  1.54386E+04  2.26934E+04 -4.50232E+03  2.76939E+04 -2.37120E+04  1.57335E+04 -3.29420E+04 -2.31792E+03
 -2.73867E+04 -1.86228E+04 -1.29818E+04 -2.67566E+04  4.24070E+03 -2.78143E+04  2.17770E+04 -2.50524E+04
  3.44622E+04 -1.52078E+04  4.02710E+04  5.80318E+03  2.81067E+04  2.58922E+04  4.45553E+03  4.30789E+04
 -2.09834E+04  3.53629E+04 -3.16842E+04  1.23884E+04 -2.29037E+04 -1.00380E+04 -4.90268E+03 -1.24324E+04
  4.36555E+02 -1.83946E+02 -8.63461E+03  8.70046E+03 -2.22486E+04  5.00337E+03 -2.16593E+04 -1.06924E+04
 -1.28160E+04 -2.51349E+04  6.24818E+03 -2.98894E+04  1.98051E+04 -2.08877E+04  2.45531E+04 -2.01660E+03
  1.56865E+04  1.77756E+04 -1.04167E+03  2.47653E+04 -1.80738E+04  1.46779E+04 -2.54818E+04 -5.42492E+03
 -1.86882E+04 -2.23482E+04 -2.77667E+03 -3.03537E+04  1.36952E+04 -2.55224E+04  2.43739E+04 -1.30132E+04
  2.39804E+04 -7.78161E+02  1.69370E+04  5.31820E+03  9.98108E+03  1.66283E+03  1.35473E+04 -2.60175E+03
  2.39599E+04  2.99566E+03  2.85223E+04  1.96408E+04  1.95660E+04  4.06757E+04 -2.38491E+03  4.88974E+04
 -2.71941E+04  4.11169E+04 -4.60336E+04  2.17823E+04 -4.94537E+04 -3.24979E+03 -3.98864E+04 -2.88884E+04
 -1.54151E+04 -4.09449E+04  1.47397E+04 -3.59572E+04  3.10033E+04 -1.57582E+04  2.61986E+04  8.99568E+03
  8.02468E+03  2.06339E+04 -1.28770E+04  1.70021E+04 -2.17316E+04  2.73654E+03 -1.61845E+04 -1.41494E+04
 -3.29690E+02 -2.09993E+04  1.19310E+04 -1.54058E+04  1.49251E+04 -1.32740E+03  3.73914E+03  9.56625E+03
 -9.45427E+03  4.75459E+03 -1.07964E+04 -7.92076E+03 -2.40621E+03 -1.97125E+04  1.30478E+04 -2.22401E+04
  2.51875E+04 -1.28740E+04  2.96386E+04  3.46473E+03  2.61003E+04  2.06917E+04  1.26292E+04  3.26629E+04
 -6.42033E+03  3.52079E+04 -2.31414E+04  2.16772E+04 -2.55242E+04  3.64447E+03 -1.70163E+04 -6.80587E+03
 -6.67573E+03 -8.33662E+03 -2.94476E+02  4.65183E+01 -3.21233E+03  4.00320E+03 -8.12054E+03  5.66529E+03
 -1.54257E+04 -1.27794E+03 -1.66480E+04 -1.31878E+04 -6.40549E+03 -2.16320E+04  7.24491E+03 -1.79322E+04
  1.46296E+04 -7.32900E+03  9.99756E+03  4.87748E+03 -1.41991E+02  6.34800E+03 -9.59248E+03 -5.12233E+02
 -8.73522E+03 -1.09233E+04 -1.00332E+03 -1.78845E+04  1.05278E+04 -1.85005E+04  2.26535E+04 -9.93808E+03
  2.70299E+04  3.05328E+03  1.99046E+04  1.67828E+04  3.78831E+03  2.21921E+04 -1.10366E+04  1.71845E+04
 -1.41253E+04  4.74799E+03 -7.05137E+03 -4.01537E+03  2.53122E+03 -5.11610E+03  9.62385E+03 -1.06816E+03
  8.41024E+03  8.30992E+03  1.64000E+03  1.45993E+04 -1.01942E+04  1.33828E+04 -1.76697E+04  3.19991E+03
 -1.20902E+04 -8.74580E+03 -3.34114E+01 -1.54320E+04  1.07727E+04 -7.60882E+03  1.09986E+04  3.96472E+03
  3.01714E+03  1.17364E+04 -9.59737E+03  1.31971E+04 -1.58412E+04  5.70532E+03 -1.63489E+04 -6.44270E+03
 -9.69862E+03 -1.85828E+04  4.57974E+03 -2.15093E+04  1.80613E+04 -1.23732E+04  2.00257E+04  3.72655E+03
  1.12302E+04  1.57539E+04 -2.29616E+03  1.81880E+04 -1.32473E+04  1.01308E+04 -1.46103E+04 -1.70053E+03
 -1.22373E+04 -1.16906E+04 -2.15620E+03 -1.42631E+04  7.56893E+03 -1.08623E+04  8.56025E+03 -4.16567E+03
  5.96671E+03  2.55656E+03 -1.32320E+03  2.36443E+03 -1.61804E+03 -4.78406E+03  3.40828E+03 -9.47845E+03
  1.36820E+04 -6.29989E+03  1.90290E+04  1.77354E+03  1.87703E+04  1.33638E+04  1.16736E+04  2.47328E+04
 -5.85146E+03  2.82954E+04 -2.32223E+04  2.09389E+04 -3.04656E+04  4.18599E+03 -2.43373E+04 -1.07432E+04
 -1.21045E+04 -2.00855E+04 -7.49623E+02 -1.74828E+04  6.05134E+03 -9.92478E+03  6.10066E+03 -6.31210E+03
  4.64026E+03 -3.98654E+03  4.61647E+03 -4.50730E+03  6.73186E+03 -3.90899E+03  9.86787E+03 -1.82264E+03
  1.28573E+04  2.72709E+03  7.15791E+03  1.10846E+04 -2.38904E+03  1.37437E+04 -1.31018E+04  1.04275E+04
 -1.75444E+04 -1.48406E+03 -1.14200E+04 -1.26919E+04 -1.89583E+03 -1.89719E+04  1.02751E+04 -1.92343E+04
  2.00394E+04 -1.04092E+04  2.32729E+04  3.36143E+03  1.60558E+04  1.69650E+04  2.43386E+03  2.15178E+04
 -8.76194E+03  1.68977E+04 -1.23174E+04  5.52213E+03 -8.59859E+03 -2.24273E+03 -3.39309E+03 -2.89215E+03
 -1.82088E+03 -5.08372E+02 -2.64598E+03  2.88445E+03 -7.23765E+03  2.68813E+03 -1.16758E+04 -1.61295E+03
 -9.08639E+03 -1.17329E+04 -3.53619E+02 -1.72620E+04  1.08311E+04 -1.62761E+04  1.77887E+04 -4.66628E+03
  1.75838E+04  8.59237E+03  8.19281E+03  1.59788E+04 -3.47371E+03  1.78996E+04 -1.30042E+04  1.09465E+04
 -1.73081E+04  5.76635E+02 -1.30171E+04 -1.11572E+04 -1.51506E+03 -1.51594E+04  7.81123E+03 -1.12053E+04
  1.09693E+04 -3.30719E+03  7.87330E+03  2.44236E+03  3.10380E+03  5.22889E+03  1.37123E+03  2.62941E+03
  2.98834E+03  1.81192E+03  4.65383E+03  2.27154E+03  5.24258E+03  6.15259E+03  4.22541E+03  9.94004E+03
 -3.80819E+03  1.40381E+04 -1.27808E+04  1.39124E+04 -1.92880E+04  3.80125E+03 -1.89656E+04 -8.44904E+03
 -9.58060E+03 -1.83734E+04  2.74419E+03 -1.99251E+04  1.15211E+04 -1.31711E+04  1.48765E+04 -3.42457E+03
  1.14594E+04  6.82190E+03  2.47937E+03  1.04891E+04 -5.16843E+03  6.91271E+03 -8.04572E+03 -9.44952E+02
 -3.55950E+03 -8.22388E+03  4.54935E+03 -8.71098E+03  8.10411E+03 -4.14854E+03  7.87413E+03  1.40943E+03
  4.48138E+03  3.69276E+03  1.06435E+03  3.27325E+03 -1.34357E+03  2.44240E+03  1.44198E+03 -5.55474E+02
  3.48090E+03 -7.95664E+02  7.25233E+03  3.18265E+03  4.52614E+03  9.92418E+03 -1.56681E+03  1.36576E+04
 -8.93420E+03  9.03023E+03 -1.22556E+04  2.77767E+03 -1.08381E+04 -4.02750E+03 -4.52676E+03 -7.25552E+03
  1.01966E+03 -7.06676E+03  4.72521E+03 -3.16051E+03  3.90638E+03  4.27640E+03 -2.13074E+03  6.12407E+03
 -8.15787E+03  3.76262E+03 -8.87558E+03 -4.15777E+03 -5.05979E+03 -1.03775E+04  1.40083E+03 -1.03495E+04
  6.29402E+03 -6.43132E+03  7.77487E+03 -9.36709E+02  6.18805E+03  2.71775E+03  2.23419E+02  5.54568E+03
 -3.72120E+03  1.72127E+03 -5.16191E+03 -3.58552E+03  1.56474E+03 -8.67483E+03  9.36230E+03 -7.02952E+03
  1.23270E+04  6.70511E+02  1.16945E+04  8.17421E+03  3.67937E+03  1.32257E+04 -4.40985E+03  1.17677E+04
 -1.02825E+04  5.62007E+03 -1.13214E+04 -1.69294E+03 -5.83210E+03 -8.25894E+03  2.26957E+03 -8.16167E+03
  8.05496E+03 -3.75367E+03  7.02369E+03  3.00233E+03  2.75083E+03  6.64610E+03 -8.10278E+02  5.75120E+03
 -3.59542E+03  4.16160E+03 -3.24229E+03  1.44784E+03 -1.40123E+03  1.28333E+03 -1.67723E+03  2.23947E+03
 -3.07488E+03  4.65852E+03 -8.43756E+03  4.38218E+03 -1.27919E+04  2.86753E+02 -1.44602E+04 -8.55826E+03
 -7.43689E+03 -1.73391E+04  3.29391E+03 -1.97353E+04  1.24335E+04 -1.55002E+04  1.85449E+04 -5.64686E+03
  1.74399E+04  4.08382E+03  1.09265E+04  1.16811E+04  1.63021E+03  1.34419E+04 -5.04800E+03  1.04890E+04
 -7.44740E+03  3.86502E+03 -5.20906E+03 -1.50832E+03 -1.37445E+03 -1.33108E+03 -6.68573E+02 -3.89574E+02
 -2.29644E+03  5.64995E+02 -2.72904E+03 -6.44752E+02 -5.97572E+02 -3.31371E+03  4.75771E+02 -5.31861E+03
  6.13348E+03 -5.03519E+03  8.87207E+03 -2.05296E+02  9.55846E+03  7.05476E+03  2.71273E+03  1.33793E+04
 -6.84912E+03  1.50689E+04 -1.42422E+04  8.92252E+03 -1.68854E+04 -1.11680E+03 -1.26545E+04 -1.02083E+04
 -5.22686E+03 -1.42750E+04  3.80222E+03 -1.27336E+04  8.46698E+03 -7.07462E+03  9.40729E+03  3.79185E+01
  4.73744E+03  4.49038E+03 -6.28873E+02  3.51106E+03 -2.78270E+03  7.78928E+01 -3.38709E+01 -3.04400E+03
  4.00939E+03 -2.60884E+03  5.57793E+03  1.80432E+03  3.82970E+03  5.09414E+03  3.70650E+02  7.84259E+03
 -5.62291E+03  6.30991E+03 -8.92088E+03  9.64553E+02 -8.54391E+03 -6.38308E+03 -1.53727E+03 -1.18021E+04
  6.39559E+03 -9.58809E+03  1.09538E+04 -3.13399E+03  1.05102E+04  2.87755E+03  6.40198E+03  8.62498E+03
  9.98735E+02  8.81295E+03 -3.43918E+03  6.91263E+03 -5.85635E+03  3.63094E+03 -4.71212E+03  4.33296E+02
 -2.39602E+03 -4.41783E+02 -3.06410E+03  1.38057E+03 -4.84952E+03  1.80975E+03 -6.96557E+03 -1.38747E+03
 -7.06780E+03 -5.13332E+03 -1.86262E+03 -9.25872E+03  4.07405E+03 -9.76572E+03  8.46728E+03 -4.56027E+03
  9.37475E+03  1.31920E+03  5.25881E+03  6.76137E+03 -7.51476E+02  9.23920E+03 -6.60749E+03  6.23335E+03
