 $NMID ID='MM_0lb_SNR800_16hz_g50_100.RAW', FMTDAT='(8E13.5)'
 TRAMP=1., VOLUME=1. $END
  3.09709E+05  5.07683E+02  3.37470E+05  2.50585E+05  8.47411E+04  3.37651E+05 -1.32578E+05  2.50556E+05
 -1.90119E+05  8.29432E+04 -1.11930E+05 -3.26213E+04  1.22711E+03 -5.04891E+04  5.39785E+04  8.28540E+01
  3.51436E+04  5.26060E+04 -1.69749E+04  7.53799E+04 -6.06846E+04  6.33496E+04 -8.36255E+04  3.17339E+04
 -8.07391E+04 -1.11426E+04 -5.68947E+04 -5.07231E+04 -1.49704E+04 -6.93597E+04  2.69440E+04 -4.54561E+04
  3.94090E+04  3.88487E+03  1.59594E+04  4.78251E+04 -3.40603E+04  4.67082E+04 -6.63108E+04 -3.60007E+02
 -5.29394E+04 -5.68199E+04 -6.56055E+03 -7.63606E+04  3.36533E+04 -5.46251E+04  4.74579E+04 -1.67999E+04
  4.28801E+04  1.14108E+04  3.13618E+04  2.51850E+04  1.61253E+04  2.90692E+04 -4.70493E+03  2.72994E+04
 -2.18488E+04  1.23576E+04 -1.87228E+04 -4.79972E+03  5.02197E+03 -7.57313E+03  2.17778E+04  1.16323E+04
  7.12879E+03  3.45438E+04 -3.15535E+04  3.51043E+04 -6.25538E+04  2.32167E+03 -5.67687E+04 -4.23596E+04
 -1.24459E+04 -6.25137E+04  3.89868E+04 -4.47378E+04  5.71805E+04 -1.99066E+03  3.30551E+04  3.15725E+04
 -6.21501E+03  3.50922E+04 -2.95039E+04  1.51793E+04 -2.94255E+04 -4.90604E+03 -1.55756E+04 -1.05397E+04
 -8.29624E+03 -1.24958E+04 -9.02046E+02 -1.76606E+04  7.37778E+03 -2.27241E+04  1.52433E+04 -1.34492E+04
  1.16288E+04  4.87233E+03 -7.54609E+03  1.30143E+04 -2.02086E+04 -3.49061E+03 -8.01787E+03 -3.25595E+04
  2.22007E+04 -4.23472E+04  4.69983E+04 -1.95703E+04  4.39415E+04  1.89077E+04  1.53441E+04  4.31323E+04
 -1.58703E+04  3.27013E+04 -2.45751E+04  1.56945E+03 -8.95499E+03 -2.74507E+04  2.11214E+04 -3.27517E+04
  3.99512E+04 -8.61599E+03  3.40973E+04  2.35634E+04  1.70585E+04  4.51831E+04 -8.17903E+03  4.80061E+04
 -3.01876E+04  3.22578E+04 -4.00829E+04  8.95672E+03 -4.07786E+04 -1.60058E+04 -2.26360E+04 -3.69704E+04
  7.04420E+03 -3.64372E+04  3.07891E+04 -1.40703E+04  2.80022E+04  1.11871E+04  3.53133E+03  1.85741E+04
 -1.33287E+04  8.10905E+03 -1.00213E+04 -7.85620E+03  5.54964E+03 -1.03777E+04  1.75946E+04  6.02622E+03
  1.31836E+04  2.20828E+04 -6.49562E+03  2.44421E+04 -2.21094E+04  1.05472E+04 -2.69450E+04 -5.39282E+03
 -1.88912E+04 -1.68035E+04 -7.29257E+03 -1.86348E+04  3.84223E+03 -1.78747E+04  1.44114E+04 -1.66054E+04
  2.40661E+04 -1.21473E+04  3.08303E+04  2.13962E+03  2.27873E+04  1.85745E+04  4.23100E+03  3.49019E+04
 -1.69825E+04  2.93569E+04 -2.71114E+04  9.93501E+03 -2.03288E+04 -1.02337E+04 -4.32221E+03 -1.36062E+04
  1.99056E+03 -3.48373E+03 -4.08919E+03  6.17180E+03 -1.47859E+04  5.15637E+03 -1.51613E+04 -6.29781E+03
 -9.63730E+03 -1.72798E+04  5.30875E+03 -2.16210E+04  1.44385E+04 -1.53122E+04  1.65406E+04 -1.09823E+03
  1.02170E+04  1.25072E+04 -9.52811E+02  1.74822E+04 -1.19554E+04  1.00229E+04 -1.76128E+04 -3.70508E+03
 -1.30062E+04 -1.58403E+04 -1.73324E+03 -2.13884E+04  9.95273E+03 -1.74021E+04  1.79336E+04 -8.66879E+03
  1.63856E+04  8.03257E+02  1.17266E+04  4.19636E+03  6.16340E+03  7.22511E+02  8.77050E+03 -1.32881E+03
  1.59924E+04  2.84256E+03  1.74272E+04  1.39633E+04  1.12734E+04  2.79418E+04 -3.08268E+03  3.12882E+04
 -1.78046E+04  2.43030E+04 -2.88078E+04  1.20225E+04 -2.99621E+04 -2.10705E+03 -2.48652E+04 -1.71044E+04
 -1.12099E+04 -2.45589E+04  8.37357E+03 -2.22954E+04  1.93467E+04 -1.19343E+04  1.79635E+04  4.54239E+03
  6.87047E+03  1.29725E+04 -7.93741E+03  1.19367E+04 -1.48280E+04  2.52114E+03 -1.15891E+04 -9.32306E+03
  6.23172E+01 -1.41753E+04  7.32481E+03 -1.05785E+04  9.01278E+03 -1.29272E+03  1.51829E+03  6.09821E+03
 -6.51290E+03  2.11123E+03 -4.99712E+03 -5.39775E+03 -1.58952E+02 -1.19772E+04  8.63284E+03 -1.26510E+04
  1.46942E+04 -6.36346E+03  1.53772E+04  2.60283E+03  1.31975E+04  1.17097E+04  6.38285E+03  1.74342E+04
 -2.64263E+03  1.97114E+04 -1.22724E+04  1.21255E+04 -1.37794E+04  3.02842E+03 -1.00861E+04 -2.74630E+03
 -4.81498E+03 -4.49348E+03 -6.14442E+02  1.31940E+03 -1.94106E+03  2.24733E+03 -4.23371E+03  4.04876E+03
 -9.47291E+03 -4.00125E+02 -9.91696E+03 -8.41034E+03 -4.12233E+03 -1.33254E+04  4.11230E+03 -1.03447E+04
  8.32861E+03 -4.32475E+03  6.24319E+03  2.95096E+03  6.33854E+02  3.87513E+03 -4.45185E+03 -1.11000E+02
 -4.38872E+03 -6.07118E+03 -1.12494E+03 -9.09723E+03  5.13854E+03 -9.74707E+03  1.20184E+04 -4.95060E+03
  1.42153E+04  9.87578E+02  1.08384E+04  7.98709E+03  1.84531E+03  1.08830E+04 -6.42129E+03  9.81596E+03
 -8.05686E+03  3.23895E+03 -4.08905E+03 -1.75332E+03  1.27684E+03 -2.25256E+03  5.49204E+03 -1.08979E+03
  4.93085E+03  4.15212E+03  1.06564E+03  7.66104E+03 -5.47269E+03  7.64065E+03 -9.62412E+03  1.96352E+03
 -6.01913E+03 -4.48958E+03  2.65480E+02 -8.18744E+03  4.80858E+03 -3.97333E+03  4.95499E+03  1.28526E+03
  1.12260E+03  4.75659E+03 -4.82016E+03  6.35246E+03 -6.58118E+03  2.90234E+03 -6.19974E+03 -1.87428E+03
 -3.88183E+03 -8.06311E+03  1.74331E+03 -9.28214E+03  8.30424E+03 -5.91548E+03  8.41241E+03  1.61011E+03
  5.40518E+03  6.78948E+03 -6.44288E+02  9.24150E+03 -6.55308E+03  5.23239E+03 -6.73115E+03 -5.74466E+02
 -6.71850E+03 -6.20431E+03 -1.77049E+03 -6.64242E+03  3.38724E+03 -5.95517E+03  3.81038E+03 -2.79108E+03
  3.42107E+03  9.53167E+02 -2.49588E+02  1.43283E+03  2.20815E+02 -7.45602E+02  5.89804E+02 -3.25718E+03
  5.33670E+03 -1.20454E+03  7.21466E+03  9.07907E+02  7.31257E+03  4.52205E+03  6.36747E+03  9.73777E+03
 -2.02859E+03  1.16322E+04 -1.00422E+04  8.62798E+03 -1.31162E+04  1.54806E+03 -1.04002E+04 -3.58220E+03
 -5.54668E+03 -8.69077E+03 -3.34006E+02 -6.81829E+03  2.67193E+03 -3.76214E+03  2.46343E+03 -2.79644E+03
  1.65824E+03 -1.91369E+03  2.50873E+03 -2.44937E+03  3.89136E+03 -1.52875E+03  4.53834E+03  2.04139E+02
  5.59077E+03  1.58540E+03  1.97718E+03  4.41033E+03 -1.53082E+03  4.58469E+03 -5.89410E+03  3.56407E+03
 -6.69274E+03 -1.42820E+03 -2.82629E+03 -4.43204E+03  8.27694E+01 -6.87134E+03  4.40376E+03 -7.22198E+03
  7.28674E+03 -4.26019E+03  9.01336E+03  7.07454E+02  6.69188E+03  6.20609E+03  1.22602E+03  8.09458E+03
 -3.19818E+03  7.39858E+03 -4.69878E+03  2.44773E+03 -2.80724E+03 -1.37848E+03 -9.78707E+02 -9.66718E+02
 -8.93871E+02  3.69103E+02 -1.24886E+03  2.24705E+03 -3.08452E+03  1.30832E+03 -5.38675E+03 -3.89713E+02
 -2.74492E+03 -5.18013E+03  3.13189E+02 -6.08627E+03  3.95391E+03 -5.84267E+03  5.31848E+03 -1.62259E+03
  6.16785E+03  3.10999E+03  2.58328E+03  4.76155E+03 -1.18512E+03  5.82455E+03 -4.07691E+03  3.73161E+03
 -5.47600E+03  7.55585E+02 -4.69763E+03 -3.46221E+03 -4.13561E+02 -4.86894E+03  2.37734E+03 -3.99217E+03
  3.73185E+03 -1.61801E+03  2.68292E+03  6.59896E+02  4.78454E+02  2.23547E+03  1.04676E+03  7.83952E+02
  1.87130E+03  8.95589E+02  1.45227E+03  1.14764E+03  1.72995E+03  2.85845E+03  1.83959E+03  2.76173E+03
 -1.57433E+03  4.52663E+03 -3.85859E+03  5.04813E+03 -5.16832E+03  1.72986E+03 -6.05707E+03 -1.57216E+03
 -2.70634E+03 -5.50009E+03  8.60412E+02 -6.48597E+03  2.83618E+03 -4.12290E+03  4.55235E+03 -1.19844E+03
  3.55444E+03  2.61832E+03  3.48075E+02  3.28143E+03 -1.57040E+03  1.89425E+03 -1.89278E+03 -3.18502E+02
 -7.35014E+02 -2.28802E+03  1.73104E+03 -2.24320E+03  2.13516E+03 -1.32900E+03  1.86344E+03  5.54960E+02
  1.43919E+03  6.20787E+02  9.51552E+02  3.31714E+02 -5.39142E+02  9.57117E+02  1.57162E+03 -5.50354E+02
  2.13404E+02 -4.34832E+02  2.62471E+03  7.50552E+02  8.44653E+02  3.18731E+03 -5.09601E+02  3.96604E+03
 -2.38978E+03  1.96266E+03 -2.97489E+03  7.15862E+02 -3.34505E+03 -1.04062E+03 -6.02409E+02 -1.72964E+03
  2.94611E+02 -1.85837E+03  1.25713E+03 -9.29362E+02  1.06731E+03  1.62251E+03 -9.74400E+02  1.64589E+03
 -2.25070E+03  1.42245E+03 -1.94610E+03 -1.80269E+03 -1.32128E+03 -3.14343E+03  4.30274E+02 -2.54096E+03
  1.23097E+03 -1.10043E+03  1.62402E+03 -3.56605E+01  1.95994E+03  3.98380E+02  4.07170E+02  1.51830E+03
 -9.69615E+02  2.11947E+02 -1.36770E+03 -5.56099E+02  5.82405E+02 -1.51825E+03  2.48400E+03 -1.52856E+03
  2.30175E+03  4.78509E+02  3.83981E+03  1.47028E+03  1.22862E+03  2.87447E+03 -7.21687E+02  2.82834E+03
 -2.45843E+03  6.36321E+02 -2.54970E+03 -2.59565E+02 -1.21292E+03 -1.94739E+03  2.99380E+02 -1.60999E+03
  2.06258E+03 -8.65073E+02  1.36397E+03  7.26987E+02  5.23738E+02  1.84764E+03  1.92313E+02  1.75271E+03
 -6.54425E+02  1.23492E+03 -6.57130E+02  4.05790E+02 -3.39404E+02  4.88206E+02 -1.01528E+03  5.63529E+02
 -8.56415E+02  1.69189E+03 -2.58663E+03  8.09313E+02 -2.83072E+03  1.40637E+02 -3.73890E+03 -1.69843E+03
 -1.55389E+03 -3.67057E+03  5.33033E+02 -4.51460E+03  1.81288E+03 -3.77884E+03  4.31260E+03 -1.76851E+03
  3.92917E+03  1.85323E+02  2.04347E+03  2.48749E+03 -4.48007E+02  2.75601E+03 -1.28176E+03  2.12022E+03
 -1.82832E+03  8.83029E+02 -8.42511E+02 -3.80251E+02 -5.94336E+02  1.50040E+02 -6.52608E+02 -8.72536E+01
 -1.12952E+03  1.12383E+02 -1.11290E+03  1.11343E+02  2.48602E+02 -9.23632E+02 -1.33293E+02 -1.24970E+03
  1.45365E+03 -7.49282E+02  1.05348E+03 -1.01732E+02  1.90495E+03  1.68046E+03  8.84828E+01  2.59456E+03
 -1.56874E+03  3.50442E+03 -2.82513E+03  2.05776E+03 -3.16489E+03 -3.39186E+02 -2.01345E+03 -2.01752E+03
 -1.36515E+03 -2.43549E+03  4.26372E+02 -2.17939E+03  1.33129E+03 -1.13490E+03  1.56666E+03  1.03752E+02
  1.14839E+03  7.93247E+02 -9.43019E+00  4.54143E+02 -3.58869E+02  7.26953E+01 -1.32652E+02 -5.06258E+02
  7.07286E+02  4.39216E+01  7.09641E+02  5.22448E+02  3.63355E+02  8.74696E+02  4.19498E+02  7.03682E+02
 -8.92286E+02  8.42632E+02 -1.27341E+03  3.61318E+02 -1.04786E+03 -8.07951E+02 -1.63588E+02 -2.14915E+03
  1.03573E+03 -1.54109E+03  1.48593E+03 -2.86087E+02  1.81710E+03 -2.70006E+02  1.17288E+03  1.79977E+03
  4.18947E+02  1.28815E+03 -5.82058E+02  1.21355E+03 -8.89470E+02  5.11332E+02 -9.18807E+02 -1.17084E+02
 -1.52785E+02 -8.14775E+01 -6.12961E+02  2.81693E+02 -9.36916E+02  1.73162E+02 -1.30336E+03 -4.10917E+02
 -1.41072E+03 -2.47280E+02 -6.53446E+02 -1.47002E+03  8.41512E+02 -2.11162E+03  1.30299E+03 -6.01581E+02
  1.50036E+03  5.39395E+01  3.94956E-01  7.26267E+02 -1.78698E+02  1.30493E+03 -1.10561E+03  1.00681E+03
