 $NMID ID='MM_0lb_SNR800_16hz_g55_27.RAW', FMTDAT='(8E13.5)'
 TRAMP=1., VOLUME=1. $END
  3.09654E+05  1.74901E+02  3.37602E+05  2.50349E+05  8.46787E+04  3.37919E+05 -1.32654E+05  2.51026E+05
 -1.90065E+05  8.31059E+04 -1.11568E+05 -3.29531E+04  9.40945E+02 -5.01815E+04  5.39784E+04 -7.32455E+01
  3.54132E+04  5.29296E+04 -1.67141E+04  7.56171E+04 -6.08104E+04  6.35874E+04 -8.40245E+04  3.18629E+04
 -8.08676E+04 -1.09967E+04 -5.69939E+04 -5.08662E+04 -1.49099E+04 -6.93936E+04  2.75267E+04 -4.55406E+04
  3.95970E+04  4.03044E+03  1.64776E+04  4.74363E+04 -3.41927E+04  4.71277E+04 -6.66650E+04 -1.63759E+02
 -5.31282E+04 -5.68244E+04 -6.86440E+03 -7.64738E+04  3.37662E+04 -5.45220E+04  4.77031E+04 -1.68484E+04
  4.31133E+04  1.13485E+04  3.18674E+04  2.53225E+04  1.58095E+04  2.91555E+04 -5.14692E+03  2.73310E+04
 -2.21921E+04  1.23475E+04 -1.84898E+04 -5.02195E+03  5.17092E+03 -7.35060E+03  2.21347E+04  1.19749E+04
  7.17629E+03  3.50688E+04 -3.18962E+04  3.48714E+04 -6.27344E+04  2.04487E+03 -5.65774E+04 -4.28694E+04
 -1.27477E+04 -6.26877E+04  3.94206E+04 -4.48716E+04  5.77646E+04 -2.21818E+03  3.40467E+04  3.17423E+04
 -6.08105E+03  3.56700E+04 -2.97027E+04  1.55092E+04 -2.99416E+04 -4.55495E+03 -1.64970E+04 -1.05994E+04
 -8.35683E+03 -1.24459E+04 -1.02681E+03 -1.78501E+04  7.08537E+03 -2.30915E+04  1.54297E+04 -1.35923E+04
  1.16322E+04  5.08774E+03 -7.75459E+03  1.29787E+04 -2.10285E+04 -4.08727E+03 -8.10250E+03 -3.31325E+04
  2.25719E+04 -4.30100E+04  4.75614E+04 -1.94237E+04  4.44817E+04  1.90946E+04  1.52111E+04  4.32239E+04
 -1.58931E+04  3.29036E+04 -2.46686E+04  1.46311E+03 -9.54493E+03 -2.75505E+04  2.11129E+04 -3.32325E+04
  4.06241E+04 -8.60383E+03  3.46932E+04  2.34996E+04  1.76290E+04  4.56409E+04 -8.33510E+03  4.92657E+04
 -3.07645E+04  3.30289E+04 -4.10145E+04  9.48299E+03 -4.18342E+04 -1.62298E+04 -2.28092E+04 -3.74428E+04
  7.22774E+03 -3.71213E+04  3.11162E+04 -1.43417E+04  2.85956E+04  1.09674E+04  3.70263E+03  1.88271E+04
 -1.33540E+04  8.13432E+03 -1.03160E+04 -7.88256E+03  5.60635E+03 -1.06394E+04  1.78347E+04  6.09973E+03
  1.31870E+04  2.21585E+04 -6.42955E+03  2.47414E+04 -2.21760E+04  1.09379E+04 -2.73541E+04 -4.94355E+03
 -1.98413E+04 -1.71069E+04 -7.89038E+03 -1.98121E+04  3.99484E+03 -1.85976E+04  1.49988E+04 -1.73398E+04
  2.49419E+04 -1.28907E+04  3.15517E+04  2.48957E+03  2.31211E+04  1.95234E+04  4.18359E+03  3.54019E+04
 -1.73033E+04  2.94893E+04 -2.71714E+04  1.04361E+04 -2.07182E+04 -1.00793E+04 -4.22843E+03 -1.35122E+04
  1.74385E+03 -3.12871E+03 -4.06915E+03  6.28022E+03 -1.51984E+04  5.06092E+03 -1.56051E+04 -6.40495E+03
 -9.48277E+03 -1.81197E+04  4.89857E+03 -2.20229E+04  1.45288E+04 -1.60454E+04  1.72869E+04 -1.73568E+03
  1.06703E+04  1.24023E+04 -1.00981E+03  1.80228E+04 -1.26035E+04  1.03524E+04 -1.77518E+04 -3.73868E+03
 -1.33129E+04 -1.60463E+04 -1.48983E+03 -2.18012E+04  1.01634E+04 -1.80232E+04  1.80859E+04 -8.69138E+03
  1.70171E+04  5.04171E+02  1.20529E+04  4.18516E+03  6.18687E+03  8.57590E+02  9.07012E+03 -1.41521E+03
  1.64534E+04  2.54840E+03  1.78963E+04  1.44765E+04  1.18010E+04  2.86909E+04 -2.75111E+03  3.20454E+04
 -1.86416E+04  2.53176E+04 -2.96068E+04  1.23214E+04 -3.07453E+04 -2.24582E+03 -2.59584E+04 -1.77918E+04
 -1.11221E+04 -2.53993E+04  8.70483E+03 -2.31896E+04  2.04514E+04 -1.24421E+04  1.81596E+04  4.85506E+03
  6.95516E+03  1.36788E+04 -8.54904E+03  1.18317E+04 -1.50484E+04  2.83776E+03 -1.17538E+04 -9.59281E+03
 -2.24608E+02 -1.42694E+04  7.33062E+03 -1.07670E+04  9.45053E+03 -1.13599E+03  1.98347E+03  6.12951E+03
 -6.38932E+03  2.17171E+03 -5.20423E+03 -5.13638E+03  6.17882E+01 -1.25464E+04  8.98152E+03 -1.26713E+04
  1.54889E+04 -6.37346E+03  1.61626E+04  2.88627E+03  1.36078E+04  1.20783E+04  6.75177E+03  1.83960E+04
 -2.76484E+03  2.02378E+04 -1.24634E+04  1.27414E+04 -1.41735E+04  3.33601E+03 -1.04062E+04 -3.04477E+03
 -5.13947E+03 -3.77189E+03 -4.88420E+02  1.38929E+03 -2.28115E+03  2.34952E+03 -4.85259E+03  3.94075E+03
 -9.75812E+03 -3.93780E+02 -1.03436E+04 -8.49056E+03 -4.26671E+03 -1.36936E+04  4.31329E+03 -1.06035E+04
  8.87186E+03 -4.90136E+03  6.30836E+03  2.85062E+03  4.39004E+02  3.66244E+03 -4.63773E+03 -2.92967E+02
 -4.33622E+03 -6.56245E+03 -9.23737E+02 -9.31087E+03  5.24552E+03 -9.80641E+03  1.24343E+04 -5.33515E+03
  1.48331E+04  1.14775E+03  1.09283E+04  8.21168E+03  2.18163E+03  1.12922E+04 -6.66353E+03  1.05066E+04
 -8.83512E+03  3.58434E+03 -4.46961E+03 -1.95566E+03  1.37946E+03 -2.67391E+03  5.49718E+03 -1.07762E+03
  4.90933E+03  4.35974E+03  1.36598E+03  8.02992E+03 -5.59968E+03  8.04653E+03 -9.66532E+03  1.79187E+03
 -6.73425E+03 -4.49702E+03  4.86682E+02 -8.17541E+03  5.05801E+03 -4.14774E+03  4.60118E+03  1.72336E+03
  9.71934E+02  4.99472E+03 -5.08312E+03  6.38773E+03 -7.00796E+03  3.17261E+03 -6.76207E+03 -2.24977E+03
 -4.23700E+03 -8.36044E+03  1.92158E+03 -9.83460E+03  8.12731E+03 -6.13862E+03  9.07827E+03  1.10879E+03
  6.10986E+03  7.15221E+03 -9.18631E+01  9.21216E+03 -6.80212E+03  5.27417E+03 -7.20510E+03 -3.53172E+02
 -6.85460E+03 -6.24115E+03 -1.56152E+03 -6.56785E+03  3.23806E+03 -5.98749E+03  4.04078E+03 -2.70988E+03
  3.38307E+03  3.50830E+02 -1.56373E+02  1.48672E+03  1.67858E+02 -1.02908E+03  3.91659E+02 -3.08421E+03
  5.46775E+03 -1.57872E+03  7.73789E+03  1.23474E+03  7.85582E+03  4.98787E+03  6.58946E+03  1.01848E+04
 -2.19330E+03  1.22767E+04 -1.02637E+04  9.02268E+03 -1.33049E+04  1.73169E+03 -1.05052E+04 -4.04242E+03
 -5.62045E+03 -9.07963E+03 -1.27225E+02 -7.21625E+03  2.88362E+03 -3.49227E+03  2.38890E+03 -2.76643E+03
  1.92397E+03 -2.06090E+03  2.33469E+03 -3.00929E+03  3.95078E+03 -1.70281E+03  4.69756E+03  2.14033E+02
  5.72212E+03  1.34403E+03  2.02890E+03  4.87791E+03 -1.89033E+03  4.42934E+03 -5.92544E+03  3.68911E+03
 -6.94072E+03 -9.58017E+02 -3.25825E+03 -4.96841E+03  9.27858E+00 -7.00092E+03  4.52887E+03 -7.49894E+03
  7.44894E+03 -4.82917E+03  9.40929E+03  8.11748E+02  6.92556E+03  5.79818E+03  1.31319E+03  8.54738E+03
 -3.07736E+03  7.64667E+03 -4.94275E+03  2.29251E+03 -3.17251E+03 -9.49110E+02 -9.99292E+02 -8.90000E+02
 -7.35121E+02  3.46194E+02 -1.15441E+03  2.34280E+03 -3.42204E+03  1.49672E+03 -5.05250E+03 -6.54168E+02
 -2.63313E+03 -5.06963E+03  6.35576E+02 -6.98863E+03  4.26098E+03 -6.23626E+03  5.60433E+03 -1.52381E+03
  6.32922E+03  3.58211E+03  2.63574E+03  5.24933E+03 -1.22920E+03  6.68904E+03 -4.11702E+03  3.73355E+03
 -5.62106E+03  4.39793E+02 -4.79299E+03 -3.79327E+03 -4.11145E+02 -4.92332E+03  2.31584E+03 -3.77703E+03
  3.83567E+03 -1.44953E+03  2.53239E+03  7.82487E+02  6.54177E+02  2.13183E+03  1.12387E+03  6.81331E+02
  1.61545E+03  4.99987E+02  2.02535E+03  1.15150E+03  1.72443E+03  2.69558E+03  1.65615E+03  3.00473E+03
 -1.61837E+03  4.59642E+03 -3.87098E+03  5.40052E+03 -5.03467E+03  1.63938E+03 -6.24929E+03 -1.17277E+03
 -3.00082E+03 -5.44575E+03  1.24227E+03 -6.57886E+03  2.84073E+03 -3.87273E+03  4.59537E+03 -1.13887E+03
  3.79570E+03  2.75298E+03  7.67454E+02  3.50214E+03 -1.57972E+03  1.87268E+03 -1.73682E+03 -3.83243E+02
 -1.08664E+03 -2.14613E+03  1.63121E+03 -2.14542E+03  1.89668E+03 -1.38031E+03  2.38664E+03  5.51226E+02
  1.41554E+03  7.60330E+02  9.62472E+02  5.41233E+01 -4.68094E+02  8.05353E+02  1.79808E+03 -2.50724E+02
  4.63693E+02 -1.27876E+02  2.40608E+03  1.16831E+03  1.12999E+03  3.21747E+03 -5.08603E+02  4.16207E+03
 -2.41232E+03  1.97862E+03 -3.14259E+03  7.53217E+02 -3.52341E+03 -1.45729E+03 -8.99109E+02 -1.82148E+03
  5.82129E+02 -1.93278E+03  1.47711E+03 -1.16612E+03  9.16837E+02  1.58225E+03 -1.05162E+03  1.63240E+03
 -2.60512E+03  1.17308E+03 -2.14337E+03 -1.87542E+03 -1.34991E+03 -2.85458E+03  3.64997E+02 -2.56597E+03
  7.59541E+02 -1.40267E+03  1.76199E+03  2.76676E+01  1.85430E+03  1.98135E+02  8.98842E+01  1.75895E+03
 -9.41470E+02  2.94583E+02 -1.44826E+03 -6.71146E+02  7.21751E+02 -1.68453E+03  2.49478E+03 -1.57898E+03
  2.63620E+03  5.50591E+02  3.80458E+03  1.70401E+03  1.25155E+03  2.82603E+03 -8.79691E+02  3.07107E+03
 -2.72225E+03  6.54149E+02 -2.41369E+03 -2.83206E+02 -1.34674E+03 -1.94621E+03  4.93084E+02 -1.49855E+03
  1.98328E+03 -8.83843E+02  1.12942E+03  7.23649E+02  5.29589E+02  1.67985E+03 -2.18041E+02  1.55656E+03
 -6.80655E+02  1.64087E+03 -6.02628E+02  2.55821E+02 -1.00731E+01  4.24900E+02 -7.39640E+02  7.91327E+02
 -1.01028E+03  1.25225E+03 -2.75778E+03  1.02592E+03 -3.05649E+03  1.35068E+02 -3.48614E+03 -1.67581E+03
 -1.77153E+03 -3.92751E+03  6.98459E+02 -4.37792E+03  2.19258E+03 -3.59015E+03  4.41257E+03 -1.57874E+03
  3.60592E+03  4.22096E+02  2.24073E+03  2.60264E+03 -5.05376E+02  2.58033E+03 -1.40761E+03  2.23861E+03
 -1.76197E+03  1.00726E+03 -9.75904E+02 -4.05469E+02 -6.66706E+02 -9.53937E+01 -5.44994E+02  5.56320E+01
 -1.21673E+03 -4.61158E+01 -9.63833E+02  8.83745E+01  1.14268E+02 -9.50233E+02 -4.08937E+02 -1.16364E+03
  1.56635E+03 -6.42038E+02  1.05377E+03  1.83876E+02  1.87024E+03  1.71416E+03  2.24975E+02  2.58477E+03
 -1.36353E+03  3.43264E+03 -2.67896E+03  1.98569E+03 -3.15253E+03 -1.01750E+02 -2.20424E+03 -1.97383E+03
 -1.18279E+03 -2.33444E+03  6.25783E+02 -2.32283E+03  1.55027E+03 -1.32953E+03  1.31257E+03  3.81127E+01
  7.86989E+02  6.99854E+02 -4.28443E+01  6.25314E+02 -4.97740E+02 -1.27919E+02 -6.18178E+01 -5.57007E+02
  6.33825E+02 -3.33752E+01  7.29572E+02  4.54762E+02  4.22818E+02  7.68939E+02  6.99842E+01  9.06476E+02
 -1.15557E+03  1.03471E+03 -1.20263E+03  2.63585E+02 -1.21853E+03 -9.34275E+02  7.14046E+01 -2.05230E+03
  1.22907E+03 -1.22326E+03  1.32491E+03 -3.85037E+02  1.48321E+03 -3.08464E+02  9.15631E+02  1.33836E+03
  3.16802E+02  1.19789E+03 -2.91957E+02  1.27609E+03 -9.81708E+02  7.56761E+02 -8.57805E+02  5.74969E+01
 -6.67493E+02 -3.81927E+02 -4.65456E+02  2.38450E+02 -1.17053E+03  3.66199E+02 -1.21677E+03 -5.61729E+02
 -1.46338E+03 -1.91234E+01 -2.31910E+02 -1.81032E+03  8.28822E+02 -2.04713E+03  1.54837E+03 -5.55243E+02
  1.33479E+03  3.70931E+02  2.08892E+02  8.05431E+02 -2.07979E+02  1.22768E+03 -9.00586E+02  1.36961E+03
