 $NMID ID='MM_0lb_SNR800_19hz_g55_60.RAW', FMTDAT='(8E13.5)'
 TRAMP=1., VOLUME=1. $END
  3.09641E+05  3.12010E+02  3.37330E+05  2.50435E+05  8.44933E+04  3.37628E+05 -1.32701E+05  2.50357E+05
 -1.89894E+05  8.26189E+04 -1.11335E+05 -3.23199E+04  1.14280E+03 -5.02298E+04  5.40185E+04  4.10271E+01
  3.50485E+04  5.29934E+04 -1.68928E+04  7.51146E+04 -6.03757E+04  6.29747E+04 -8.32036E+04  3.16553E+04
 -8.02457E+04 -1.12114E+04 -5.65066E+04 -5.07117E+04 -1.48166E+04 -6.87284E+04  2.67554E+04 -4.53724E+04
  3.95830E+04  3.98958E+03  1.57784E+04  4.71490E+04 -3.40793E+04  4.65103E+04 -6.56374E+04 -3.23699E+02
 -5.19643E+04 -5.63643E+04 -6.36924E+03 -7.55748E+04  3.32733E+04 -5.35326E+04  4.65191E+04 -1.62987E+04
  4.22546E+04  1.11684E+04  3.13082E+04  2.48650E+04  1.58794E+04  2.85349E+04 -5.06288E+03  2.68144E+04
 -2.18595E+04  1.25025E+04 -1.89797E+04 -4.50539E+03  4.68853E+03 -7.37254E+03  2.16408E+04  1.13836E+04
  7.33063E+03  3.35680E+04 -3.06953E+04  3.47008E+04 -6.18692E+04  2.07639E+03 -5.58330E+04 -4.12816E+04
 -1.26427E+04 -6.14238E+04  3.86287E+04 -4.39375E+04  5.61093E+04 -2.10442E+03  3.26473E+04  3.13368E+04
 -6.15198E+03  3.38397E+04 -2.90914E+04  1.39210E+04 -2.84663E+04 -5.24860E+03 -1.49593E+04 -9.96860E+03
 -7.42160E+03 -1.19624E+04 -9.93295E+02 -1.66954E+04  6.73491E+03 -2.27424E+04  1.50249E+04 -1.38987E+04
  1.21057E+04  4.73374E+03 -6.77804E+03  1.29984E+04 -1.99758E+04 -2.63094E+03 -8.31842E+03 -3.10977E+04
  2.12048E+04 -4.10344E+04  4.53002E+04 -1.86852E+04  4.25182E+04  1.84789E+04  1.45632E+04  4.23542E+04
 -1.53294E+04  3.16525E+04 -2.39204E+04  9.23527E+02 -8.54472E+03 -2.68734E+04  2.04937E+04 -3.17006E+04
  3.86845E+04 -7.72186E+03  3.24256E+04  2.30008E+04  1.60990E+04  4.34212E+04 -7.83101E+03  4.63143E+04
 -2.89957E+04  3.03900E+04 -3.82309E+04  8.23987E+03 -3.91592E+04 -1.51297E+04 -2.14408E+04 -3.50380E+04
  6.93394E+03 -3.48317E+04  2.98461E+04 -1.30034E+04  2.72211E+04  1.08094E+04  3.33806E+03  1.80253E+04
 -1.32257E+04  7.55375E+03 -9.62324E+03 -7.85804E+03  5.92577E+03 -1.01465E+04  1.72802E+04  6.28229E+03
  1.26349E+04  2.19137E+04 -6.65484E+03  2.38659E+04 -2.16867E+04  9.52316E+03 -2.58068E+04 -5.90085E+03
 -1.72080E+04 -1.66893E+04 -6.15250E+03 -1.71118E+04  3.62593E+03 -1.54688E+04  1.30618E+04 -1.51130E+04
  2.20835E+04 -1.19600E+04  2.88692E+04  1.38150E+03  2.16876E+04  1.68167E+04  3.93494E+03  3.31549E+04
 -1.64850E+04  2.81450E+04 -2.60376E+04  9.40913E+03 -1.97868E+04 -1.07155E+04 -3.98945E+03 -1.37870E+04
  2.58321E+03 -4.13565E+03 -2.86406E+03  5.73629E+03 -1.35356E+04  5.29693E+03 -1.36621E+04 -5.29992E+03
 -8.82636E+03 -1.59814E+04  4.75266E+03 -1.96791E+04  1.27381E+04 -1.40095E+04  1.50113E+04 -1.59072E+03
  9.41075E+03  1.10772E+04 -6.21492E+02  1.63621E+04 -1.07211E+04  9.09772E+03 -1.57705E+04 -3.35433E+03
 -1.18437E+04 -1.44384E+04 -1.61464E+03 -1.94859E+04  8.79640E+03 -1.56141E+04  1.64921E+04 -7.73850E+03
  1.48868E+04  3.93206E+02  1.08050E+04  4.07935E+03  5.24599E+03  5.28227E+02  7.88395E+03 -1.41327E+03
  1.40151E+04  2.64981E+03  1.50072E+04  1.27439E+04  9.33744E+03  2.52799E+04 -2.97713E+03  2.73084E+04
 -1.60939E+04  2.10611E+04 -2.52582E+04  1.03833E+04 -2.57338E+04 -1.77821E+03 -2.19782E+04 -1.45527E+04
 -1.05556E+04 -2.10283E+04  6.93918E+03 -1.94067E+04  1.68293E+04 -1.10292E+04  1.60102E+04  3.63654E+03
  6.65296E+03  1.17579E+04 -7.14166E+03  1.07458E+04 -1.35336E+04  2.83225E+03 -1.06837E+04 -8.20698E+03
 -2.10752E+02 -1.26433E+04  6.51897E+03 -9.69492E+03  8.02350E+03 -1.40873E+03  1.62999E+03  4.94019E+03
 -5.73173E+03  1.38140E+03 -3.83397E+03 -4.77538E+03  7.18667E+02 -1.01315E+04  8.05141E+03 -1.01738E+04
  1.26635E+04 -4.69307E+03  1.22438E+04  2.90050E+03  1.07792E+04  9.60751E+03  4.97333E+03  1.44321E+04
 -1.94957E+03  1.62379E+04 -1.00235E+04  1.04447E+04 -1.18391E+04  2.94515E+03 -8.49023E+03 -1.91454E+03
 -4.26370E+03 -3.36529E+03 -6.83434E+02  1.31370E+03 -2.05490E+03  2.38157E+03 -3.78429E+03  3.60670E+03
 -8.00070E+03 -4.52455E+02 -9.04446E+03 -7.28216E+03 -3.55329E+03 -1.14550E+04  3.69765E+03 -8.70195E+03
  7.13258E+03 -3.55135E+03  5.34001E+03  2.27711E+03  5.34902E+02  2.95881E+03 -3.68187E+03 -6.54661E+01
 -3.56965E+03 -5.26909E+03 -6.58982E+02 -7.29215E+03  4.00055E+03 -8.11105E+03  1.01334E+04 -3.97606E+03
  1.18747E+04  4.46748E+02  8.88535E+03  6.17429E+03  1.69508E+03  8.88500E+03 -5.18819E+03  8.51302E+03
 -6.95318E+03  2.46968E+03 -3.63136E+03 -1.21386E+03  1.60042E+03 -2.01102E+03  4.87915E+03 -1.12167E+03
  4.27131E+03  3.35328E+03  1.09320E+03  6.26436E+03 -4.56164E+03  6.26492E+03 -7.69603E+03  1.52672E+03
 -5.23531E+03 -3.70010E+03  2.32262E+02 -6.53259E+03  3.71052E+03 -3.37652E+03  3.53216E+03  1.22903E+03
  4.41125E+02  3.43018E+03 -4.16567E+03  5.05983E+03 -4.98916E+03  2.45017E+03 -4.45020E+03 -1.07402E+03
 -2.75475E+03 -6.07355E+03  1.18692E+03 -7.15882E+03  5.79659E+03 -4.52669E+03  6.29769E+03  9.24631E+02
  4.69743E+03  5.34965E+03  1.15985E+02  7.16074E+03 -5.13961E+03  4.41759E+03 -5.00447E+03 -5.29905E+02
 -5.66385E+03 -5.16242E+03 -1.44847E+03 -4.86608E+03  2.76860E+03 -4.90332E+03  2.77185E+03 -2.83628E+03
  2.83720E+03 -2.37651E+01  2.40981E+02  1.37017E+03  4.65865E+02 -1.09770E+02  1.48606E+02 -1.87178E+03
  3.91144E+03 -7.19567E+02  5.11409E+03  5.74451E+02  5.62388E+03  3.08921E+03  5.37806E+03  7.02750E+03
 -9.94152E+02  8.40326E+03 -7.66699E+03  6.46750E+03 -9.59142E+03  1.24658E+03 -7.77726E+03 -2.56231E+03
 -4.14491E+03 -6.45003E+03 -3.10985E+02 -4.93629E+03  2.12734E+03 -1.88355E+03  1.55422E+03 -1.92574E+03
  1.35888E+03 -1.36290E+03  2.48775E+03 -2.07644E+03  3.50549E+03 -1.24813E+03  3.32161E+03  5.32306E+02
  4.59914E+03  1.01735E+03  1.12057E+03  3.48757E+03 -1.34509E+03  2.64430E+03 -4.58465E+03  2.41281E+03
 -4.91656E+03 -9.11970E+02 -1.74368E+03 -3.20156E+03  4.03280E+02 -5.06393E+03  3.32465E+03 -5.16959E+03
  4.82673E+03 -3.01687E+03  6.57775E+03  2.61279E+02  4.72466E+03  4.06849E+03  1.06511E+03  5.75914E+03
 -2.07184E+03  5.59061E+03 -3.14729E+03  1.87363E+03 -1.91619E+03 -1.19156E+03 -4.29246E+02 -5.94489E+02
 -5.20380E+02  6.70825E+02 -9.70426E+02  1.84444E+03 -2.42783E+03  9.93855E+02 -3.97558E+03 -5.61354E+02
 -1.77213E+03 -3.87176E+03  8.19504E+02 -4.49622E+03  2.51637E+03 -4.10345E+03  3.10234E+03 -9.69501E+02
  3.97980E+03  2.44394E+03  1.46942E+03  3.16739E+03 -8.49646E+02  4.34145E+03 -2.46025E+03  2.63131E+03
 -3.64531E+03  5.02833E+02 -3.13540E+03 -2.60258E+03 -8.61223E+01 -2.88897E+03  1.27482E+03 -2.25526E+03
  2.56844E+03 -1.08582E+03  1.77608E+03  2.63399E+02  7.30377E+02  1.62735E+03  5.29295E+02  6.41276E+02
  1.57431E+03  4.62074E+02  1.56454E+03  8.74994E+02  1.24986E+03  2.02953E+03  1.73812E+03  1.63911E+03
 -1.21315E+03  2.46622E+03 -2.21906E+03  3.74280E+03 -2.97213E+03  1.28608E+03 -4.01626E+03 -3.99577E+02
 -1.41232E+03 -3.55031E+03  6.13830E+02 -4.40845E+03  1.91199E+03 -2.33061E+03  2.86964E+03 -9.08809E+02
  2.39857E+03  2.03253E+03  5.21244E+02  2.19862E+03 -7.41731E+02  1.13792E+03 -1.05883E+03 -8.25326E+01
 -7.66108E+02 -1.34027E+03  1.26227E+03 -1.20843E+03  1.20429E+03 -9.67760E+02  1.30336E+03  2.31891E+02
  6.72918E+02  5.27274E+00  7.96544E+02 -3.02187E+02 -4.67208E+02  5.92457E+02  1.38542E+03 -3.02535E+02
  1.48756E+02  1.32726E+02  1.81388E+03  5.44011E+02  1.60213E+02  1.95697E+03 -1.78149E+02  2.75590E+03
 -1.23891E+03  9.78293E+02 -1.98519E+03  2.20466E+02 -2.08344E+03 -6.84846E+02  3.62399E+01 -1.05039E+03
  2.87501E+02 -1.34381E+03  9.45101E+02 -6.55669E+02  5.52070E+02  1.40140E+03 -4.34384E+02  8.97549E+02
 -1.25568E+03  6.95617E+02 -9.15522E+02 -1.44190E+03 -4.12457E+02 -2.19591E+03  1.38938E+02 -1.25289E+03
 -5.06505E+01 -4.97860E+02  6.38770E+02  1.00950E+02  1.45659E+03 -2.47319E+02  5.95366E+02  9.32330E+02
 -2.18785E+02  1.68522E+02 -5.84906E+02 -4.17762E+01  5.20513E+02 -4.03875E+02  1.58895E+03 -9.78012E+02
  1.27108E+03  1.60118E+02  2.62389E+03  8.03378E+02  1.17933E+03  1.31799E+03 -4.08653E+02  1.53913E+03
 -1.43043E+03  2.45439E+02 -1.44906E+03  1.80525E+02 -9.73808E+02 -9.78061E+02  2.25215E+02 -5.13587E+02
  1.49281E+03 -6.21858E+02  6.28610E+02  6.53120E+02 -8.32863E+01  8.46144E+02  2.49783E+02  7.91010E+02
 -3.33869E+02  1.07212E+03 -5.43532E+02  1.07007E+02 -3.61168E+02  4.38581E+02 -7.84406E+02  6.85942E+02
 -6.04760E+02  1.10274E+03 -1.70636E+03  4.53226E+02 -1.22040E+03  4.43082E+01 -2.14634E+03 -7.34781E+02
 -8.16217E+02 -1.92977E+03  2.79821E+02 -2.54487E+03  1.01603E+03 -2.13352E+03  2.24143E+03 -9.57309E+02
  1.98336E+03 -7.30984E+01  1.10224E+03  1.27628E+03 -4.59378E+02  1.29833E+03 -4.38113E+02  9.28837E+02
 -6.52812E+02  7.38034E+02 -5.44830E+02 -4.45521E+02 -5.69829E+02  4.17790E+02 -5.36351E+02 -2.04064E+02
 -1.16276E+03 -1.80750E+02 -9.72194E+02 -1.01823E+02  3.48907E+02 -3.01901E+02 -3.61566E+02 -5.78666E+02
  1.32564E+03 -6.38748E+02  1.29757E+02 -3.12509E+01  1.01139E+03  9.67630E+02 -5.31145E+02  1.12413E+03
 -8.78779E+02  1.95332E+03 -1.20397E+03  1.27689E+03 -1.20748E+03 -9.85540E+01 -1.02497E+03 -8.90904E+02
 -8.35798E+02 -9.79760E+02  4.79969E+02 -1.16207E+03  3.26865E+02 -5.08761E+02  5.38582E+02  3.17899E+02
  5.06638E+02  3.31006E+02  3.48248E+02  4.73087E+02 -7.96233E+00  2.05234E+01  1.19961E+02 -1.63091E+02
  4.68029E+02  2.90408E+02  2.08653E+01  3.78653E+02 -6.42471E+01  4.03925E+02  4.22207E+02  1.60647E+02
 -4.02018E+02  5.41555E+02 -3.93114E+02  2.82915E+02 -4.12686E+02 -4.57226E+02 -2.25251E+02 -1.03362E+03
  2.75731E+02 -3.05895E+02  3.96714E+02 -1.07850E+02  6.73863E+02 -5.60758E+02  2.64762E+02  8.36393E+02
  5.76810E+02  3.99705E+02 -3.21554E+02  2.13870E+02 -5.93377E+02  4.91275E+02 -3.22197E+02 -1.00691E+02
  1.31641E+01 -5.81370E+01 -6.24145E+02  7.81811E+01 -7.00567E+02  4.74564E+00 -4.90522E+02 -2.44947E+02
 -1.00208E+03  5.00493E+02 -4.40571E+02 -7.85686E+02  7.96211E+02 -1.53984E+03  6.67386E+02 -1.60312E+02
  5.84219E+02  9.16211E+01 -2.20572E+02  8.35293E+01 -1.60796E+02  5.81541E+02 -2.33165E+02  5.96761E+02
