 $NMID ID='MM_0lb_SNR800_7hz_g60_88.RAW', FMTDAT='(8E13.5)'
 TRAMP=1., VOLUME=1. $END
  3.09787E+05  8.03528E+01  3.37731E+05  2.51164E+05  8.50141E+04  3.39073E+05 -1.33011E+05  2.51901E+05
 -1.91257E+05  8.41907E+04 -1.12768E+05 -3.23408E+04  9.42163E+01 -5.12171E+04  5.39614E+04 -9.05646E+02
  3.58689E+04  5.31025E+04 -1.65795E+04  7.65371E+04 -6.14046E+04  6.49202E+04 -8.58475E+04  3.31744E+04
 -8.31401E+04 -1.16159E+04 -5.85435E+04 -5.29965E+04 -1.50603E+04 -7.20505E+04  2.84510E+04 -4.72425E+04
  4.12444E+04  3.09679E+03  1.69551E+04  4.89029E+04 -3.52554E+04  4.92428E+04 -6.88677E+04  4.85401E+02
 -5.56787E+04 -5.81602E+04 -7.83552E+03 -8.05488E+04  3.51521E+04 -5.78360E+04  5.12996E+04 -1.89414E+04
  4.62045E+04  1.13075E+04  3.33152E+04  2.75631E+04  1.62617E+04  3.15683E+04 -6.08149E+03  2.84222E+04
 -2.27540E+04  1.19087E+04 -1.75605E+04 -5.82509E+03  7.45868E+03 -6.87505E+03  2.40067E+04  1.44923E+04
  6.53440E+03  3.88586E+04 -3.50720E+04  3.85409E+04 -6.72938E+04  2.14294E+03 -6.02314E+04 -4.54653E+04
 -1.27865E+04 -6.75198E+04  4.26160E+04 -4.82187E+04  6.32107E+04 -2.02440E+03  3.81291E+04  3.54850E+04
 -5.02366E+03  4.12824E+04 -3.30431E+04  1.99337E+04 -3.53226E+04 -3.07165E+03 -2.09008E+04 -1.21989E+04
 -1.07572E+04 -1.65918E+04 -5.39930E+02 -2.08472E+04  8.55808E+03 -2.38885E+04  1.60630E+04 -1.23315E+04
  9.16897E+03  6.78143E+03 -1.14665E+04  1.34543E+04 -2.47396E+04 -8.32374E+03 -9.12030E+03 -3.96521E+04
  2.68035E+04 -4.90044E+04  5.41296E+04 -2.16485E+04  5.15475E+04  2.17105E+04  1.78616E+04  4.89994E+04
 -1.68894E+04  3.80151E+04 -2.92265E+04  2.94773E+03 -1.25960E+04 -3.08168E+04  2.17812E+04 -3.89103E+04
  4.69371E+04 -1.24032E+04  4.33895E+04  2.52440E+04  2.34064E+04  5.38541E+04 -8.13456E+03  5.97518E+04
 -3.74536E+04  4.12324E+04 -5.08907E+04  1.20852E+04 -5.09427E+04 -1.95409E+04 -2.76422E+04 -4.46562E+04
  8.27835E+03 -4.46746E+04  3.55561E+04 -1.85211E+04  3.37842E+04  1.15622E+04  6.04888E+03  2.17126E+04
 -1.38932E+04  1.01697E+04 -1.18558E+04 -7.44256E+03  5.63372E+03 -1.13494E+04  1.90292E+04  5.19728E+03
  1.53523E+04  2.28749E+04 -4.54425E+03  2.85323E+04 -2.42515E+04  1.60962E+04 -3.37742E+04 -2.00152E+03
 -2.85840E+04 -1.88902E+04 -1.36998E+04 -2.76351E+04  4.34870E+03 -2.94056E+04  2.26135E+04 -2.54790E+04
  3.55086E+04 -1.57222E+04  4.19813E+04  6.16557E+03  2.91806E+04  2.76960E+04  5.02353E+03  4.45911E+04
 -2.10635E+04  3.58916E+04 -3.21585E+04  1.28054E+04 -2.31570E+04 -1.03483E+04 -5.52837E+03 -1.27067E+04
 -2.95201E+01 -2.76821E+02 -9.30227E+03  8.92597E+03 -2.29589E+04  4.91794E+03 -2.19888E+04 -1.07062E+04
 -1.32955E+04 -2.58960E+04  6.39271E+03 -3.03908E+04  2.09945E+04 -2.16800E+04  2.56843E+04 -2.07421E+03
  1.64478E+04  1.83272E+04 -1.58173E+03  2.59264E+04 -1.84718E+04  1.46401E+04 -2.64427E+04 -5.30970E+03
 -1.92100E+04 -2.35519E+04 -2.26670E+03 -3.10170E+04  1.44421E+04 -2.63983E+04  2.56019E+04 -1.43873E+04
  2.41018E+04 -3.94722E+02  1.81014E+04  5.35036E+03  1.00342E+04  1.23017E+03  1.40017E+04 -2.59906E+03
  2.49683E+04  3.09276E+03  2.89805E+04  2.05784E+04  2.05239E+04  4.22821E+04 -2.76031E+03  5.09037E+04
 -2.87004E+04  4.33540E+04 -4.85630E+04  2.25339E+04 -5.16799E+04 -3.97370E+03 -4.15231E+04 -3.01509E+04
 -1.60090E+04 -4.32555E+04  1.50169E+04 -3.74604E+04  3.26175E+04 -1.68213E+04  2.74061E+04  9.52886E+03
  8.40873E+03  2.19648E+04 -1.31281E+04  1.77492E+04 -2.28890E+04  2.46118E+03 -1.66797E+04 -1.46846E+04
 -1.55057E+02 -2.21440E+04  1.20584E+04 -1.61004E+04  1.52640E+04 -1.27770E+03  3.87269E+03  1.02384E+04
 -9.71975E+03  5.32583E+03 -1.11671E+04 -8.16531E+03 -2.52325E+03 -2.12616E+04  1.33905E+04 -2.32544E+04
  2.66868E+04 -1.29843E+04  3.15900E+04  3.64729E+03  2.79545E+04  2.22104E+04  1.26591E+04  3.46134E+04
 -6.65673E+03  3.71553E+04 -2.46259E+04  2.27810E+04 -2.68351E+04  4.40976E+03 -1.82477E+04 -7.52937E+03
 -7.56863E+03 -8.77240E+03 -8.48929E+02  5.23241E+02 -3.67457E+03  3.89285E+03 -9.05703E+03  6.37475E+03
 -1.61973E+04 -9.13955E+02 -1.71982E+04 -1.35115E+04 -7.23750E+03 -2.25200E+04  7.30042E+03 -1.83882E+04
  1.49236E+04 -7.49008E+03  1.03820E+04  5.49207E+03 -5.63660E+02  7.67406E+03 -9.71757E+03 -9.08042E+01
 -9.12425E+03 -1.18254E+04 -9.71980E+02 -1.84250E+04  1.13290E+04 -1.95662E+04  2.41028E+04 -1.10228E+04
  2.81553E+04  3.04719E+03  2.09782E+04  1.77027E+04  3.53001E+03  2.37755E+04 -1.18400E+04  1.81076E+04
 -1.48549E+04  5.28305E+03 -7.69302E+03 -3.98097E+03  2.83981E+03 -5.70293E+03  9.72402E+03 -7.99864E+02
  9.20411E+03  8.29283E+03  1.36611E+03  1.53335E+04 -1.06163E+04  1.46515E+04 -1.84089E+04  3.02434E+03
 -1.32072E+04 -1.04384E+04  9.16335E+01 -1.61874E+04  1.07070E+04 -8.96422E+03  1.17189E+04  4.36790E+03
  3.31729E+03  1.27820E+04 -1.03281E+04  1.45201E+04 -1.75167E+04  6.39311E+03 -1.80270E+04 -7.09994E+03
 -9.96146E+03 -1.99785E+04  5.03953E+03 -2.32481E+04  1.97507E+04 -1.32801E+04  2.11435E+04  3.67347E+03
  1.26739E+04  1.67290E+04 -2.44993E+03  1.90578E+04 -1.48659E+04  1.09736E+04 -1.65178E+04 -1.37491E+03
 -1.28325E+04 -1.25324E+04 -1.55045E+03 -1.44963E+04  7.65428E+03 -1.10958E+04  9.80993E+03 -3.89494E+03
  6.16794E+03  3.16893E+03 -1.74445E+03  2.65777E+03 -1.03697E+03 -4.92571E+03  4.10056E+03 -1.00720E+04
  1.50702E+04 -7.01246E+03  2.08583E+04  2.23096E+03  2.02204E+04  1.46853E+04  1.20654E+04  2.73323E+04
 -6.58664E+03  3.10118E+04 -2.51912E+04  2.28842E+04 -3.29107E+04  4.13610E+03 -2.67838E+04 -1.18344E+04
 -1.35169E+04 -2.22079E+04 -5.30973E+02 -1.91085E+04  6.20533E+03 -1.11104E+04  6.65459E+03 -6.77850E+03
  4.83048E+03 -4.08675E+03  4.25233E+03 -4.72028E+03  6.83334E+03 -4.83895E+03  1.03796E+04 -2.16508E+03
  1.36195E+04  2.99759E+03  8.38206E+03  1.25029E+04 -2.52377E+03  1.53976E+04 -1.46263E+04  1.16804E+04
 -1.89893E+04 -1.70406E+03 -1.34516E+04 -1.33966E+04 -2.28461E+03 -2.10097E+04  1.16015E+04 -2.08501E+04
  2.17867E+04 -1.12390E+04  2.54251E+04  3.78353E+03  1.77936E+04  1.80576E+04  2.58133E+03  2.34682E+04
 -9.75088E+03  1.85112E+04 -1.37980E+04  6.51160E+03 -9.90146E+03 -2.19058E+03 -4.41979E+03 -2.88669E+03
 -1.93594E+03 -4.30070E+02 -3.26445E+03  3.38212E+03 -8.01310E+03  2.83472E+03 -1.29641E+04 -1.92424E+03
 -9.88755E+03 -1.29357E+04 -2.81838E+02 -1.92274E+04  1.20811E+04 -1.78897E+04  2.05613E+04 -5.64600E+03
  1.95512E+04  9.77525E+03  9.48353E+03  1.79226E+04 -3.84284E+03  2.00062E+04 -1.42255E+04  1.26144E+04
 -1.94287E+04  3.58199E+02 -1.36518E+04 -1.22614E+04 -1.58406E+03 -1.71112E+04  8.63657E+03 -1.21537E+04
  1.25307E+04 -3.51066E+03  8.77739E+03  3.73033E+03  3.11487E+03  5.68479E+03  1.49362E+03  2.92236E+03
  3.41608E+03  1.67353E+03  4.80481E+03  2.76178E+03  6.37715E+03  6.21459E+03  5.18789E+03  1.10244E+04
 -3.63423E+03  1.63251E+04 -1.43823E+04  1.55926E+04 -2.19896E+04  3.93582E+03 -2.16370E+04 -9.36991E+03
 -1.03793E+04 -2.06519E+04  3.18224E+03 -2.19871E+04  1.26281E+04 -1.47065E+04  1.71000E+04 -3.99396E+03
  1.32955E+04  7.79207E+03  3.01749E+03  1.20837E+04 -6.32109E+03  8.21277E+03 -8.57766E+03 -1.35566E+03
 -4.33179E+03 -9.48792E+03  4.60292E+03 -9.42134E+03  9.07839E+03 -4.55333E+03  8.39197E+03  1.84848E+03
  5.58280E+03  4.88804E+03  1.74416E+03  4.20171E+03 -1.25430E+03  2.37703E+03  1.72166E+03 -7.54506E+02
  3.75551E+03 -1.50675E+03  8.56734E+03  3.34257E+03  4.83616E+03  1.06659E+04 -1.63744E+03  1.51880E+04
 -9.69470E+03  1.04338E+04 -1.38115E+04  2.95289E+03 -1.19786E+04 -4.44974E+03 -5.11645E+03 -8.33884E+03
  7.54837E+02 -8.57680E+03  5.92618E+03 -3.90189E+03  4.68349E+03  3.96314E+03 -1.62135E+03  7.20699E+03
 -8.83476E+03  4.25908E+03 -1.00138E+04 -4.99053E+03 -5.69830E+03 -1.19008E+04  2.19361E+03 -1.19023E+04
  7.63351E+03 -6.91001E+03  9.34839E+03 -9.56545E+02  7.17900E+03  3.72421E+03  1.20567E+03  6.32327E+03
 -4.71031E+03  1.84229E+03 -5.24638E+03 -4.25946E+03  1.78262E+03 -9.76479E+03  1.09381E+04 -7.95760E+03
  1.45203E+04  1.31561E+03  1.30158E+04  9.53788E+03  3.25963E+03  1.52025E+04 -5.27806E+03  1.42548E+04
 -1.22669E+04  6.59632E+03 -1.26765E+04 -2.44269E+03 -6.44639E+03 -9.53091E+03  2.26461E+03 -9.58729E+03
  8.55228E+03 -4.96171E+03  7.54710E+03  4.14981E+03  2.56170E+03  7.93232E+03 -1.69920E+03  7.39863E+03
 -3.92639E+03  4.31700E+03 -3.57708E+03  1.80216E+03 -1.83233E+03  1.15565E+03 -2.24162E+03  2.47730E+03
 -3.43697E+03  5.31945E+03 -9.47512E+03  5.40537E+03 -1.47587E+04  2.86060E+01 -1.65982E+04 -9.63078E+03
 -8.73248E+03 -1.96515E+04  3.74893E+03 -2.32212E+04  1.46828E+04 -1.76963E+04  2.17993E+04 -6.72547E+03
  2.03397E+04  4.42321E+03  1.20814E+04  1.43623E+04  1.44683E+03  1.59899E+04 -5.87368E+03  1.22037E+04
 -9.09838E+03  4.11247E+03 -5.14053E+03 -1.83384E+03 -1.73654E+03 -2.19660E+03 -5.92727E+02 -9.88914E+01
 -2.43671E+03  7.34831E+02 -2.86831E+03 -7.22150E+02 -1.12292E+03 -3.62933E+03  6.80438E+02 -5.54473E+03
  6.28487E+03 -5.12131E+03  1.03291E+04  1.36098E+02  1.12224E+04  8.82458E+03  3.83834E+03  1.57045E+04
 -7.05431E+03  1.78054E+04 -1.71381E+04  1.07423E+04 -1.98349E+04 -1.97613E+03 -1.51457E+04 -1.24193E+04
 -5.67582E+03 -1.63226E+04  4.63678E+03 -1.52347E+04  1.06516E+04 -8.35855E+03  1.13366E+04  7.24408E+02
  5.69066E+03  5.64698E+03 -1.34453E+03  4.93121E+03 -2.71542E+03 -2.96619E+02  2.03983E+02 -3.95898E+03
  4.88717E+03 -2.47439E+03  7.20629E+03  1.96412E+03  4.31097E+03  6.48894E+03  3.57587E+02  8.90457E+03
 -7.23202E+03  7.67916E+03 -1.12026E+04  5.69348E+02 -9.92800E+03 -8.27153E+03 -1.72806E+03 -1.42766E+04
  7.93450E+03 -1.17983E+04  1.28974E+04 -3.59251E+03  1.25752E+04  4.28359E+03  7.38180E+03  9.97325E+03
  1.25144E+03  1.14029E+04 -4.68356E+03  9.01274E+03 -6.95372E+03  4.59651E+03 -5.81676E+03  6.16982E+02
 -3.36140E+03 -4.47338E+02 -2.56877E+03  1.26435E+03 -6.09723E+03  2.12065E+03 -8.29203E+03 -1.01610E+03
 -7.99681E+03 -6.83045E+03 -2.89549E+03 -1.08877E+04  5.08998E+03 -1.15024E+04  1.01381E+04 -5.28372E+03
  1.15769E+04  1.33687E+03  6.73458E+03  8.19543E+03 -1.69994E+03  1.12033E+04 -8.57432E+03  7.37561E+03
