 $NMID ID='MM_0lb_SNR800_10hz_g45_83.RAW', FMTDAT='(8E13.5)'
 TRAMP=1., VOLUME=1. $END
  3.09980E+05  4.87677E+02  3.37818E+05  2.50528E+05  8.45991E+04  3.38674E+05 -1.32600E+05  2.51676E+05
 -1.90360E+05  8.33016E+04 -1.12055E+05 -3.21602E+04  5.45213E+02 -5.07190E+04  5.36438E+04 -4.81013E+02
  3.55991E+04  5.30038E+04 -1.70341E+04  7.54976E+04 -6.08902E+04  6.41281E+04 -8.50437E+04  3.30286E+04
 -8.22957E+04 -1.16616E+04 -5.81338E+04 -5.17598E+04 -1.52878E+04 -7.03838E+04  2.80831E+04 -4.64760E+04
  4.08467E+04  4.04975E+03  1.68633E+04  4.81470E+04 -3.48569E+04  4.77818E+04 -6.75847E+04  3.31743E+01
 -5.44461E+04 -5.72027E+04 -6.95696E+03 -7.85362E+04  3.48402E+04 -5.63746E+04  4.92285E+04 -1.84677E+04
  4.44932E+04  1.11525E+04  3.23282E+04  2.60164E+04  1.59900E+04  2.98852E+04 -5.70829E+03  2.75230E+04
 -2.21138E+04  1.18566E+04 -1.86884E+04 -5.13382E+03  6.31851E+03 -7.54864E+03  2.30808E+04  1.33888E+04
  7.19784E+03  3.65100E+04 -3.31793E+04  3.66266E+04 -6.50381E+04  2.28829E+03 -5.82753E+04 -4.37381E+04
 -1.26658E+04 -6.47076E+04  4.10493E+04 -4.66285E+04  6.04896E+04 -2.35136E+03  3.59623E+04  3.37546E+04
 -5.99291E+03  3.86995E+04 -3.11432E+04  1.77227E+04 -3.23537E+04 -4.10127E+03 -1.82335E+04 -1.15588E+04
 -9.04602E+03 -1.45408E+04 -8.56251E+02 -1.90683E+04  8.53544E+03 -2.34682E+04  1.58823E+04 -1.28939E+04
  1.08479E+04  6.28715E+03 -9.54279E+03  1.29742E+04 -2.28757E+04 -6.02024E+03 -9.02057E+03 -3.62390E+04
  2.43005E+04 -4.55109E+04  5.05080E+04 -2.05383E+04  4.74395E+04  2.01823E+04  1.61435E+04  4.60463E+04
 -1.66401E+04  3.52499E+04 -2.70416E+04  2.50517E+03 -1.06146E+04 -2.88071E+04  2.13749E+04 -3.59313E+04
  4.39305E+04 -1.03113E+04  3.88594E+04  2.44611E+04  2.00700E+04  4.95438E+04 -8.25191E+03  5.41824E+04
 -3.41638E+04  3.69009E+04 -4.61278E+04  1.05702E+04 -4.59608E+04 -1.79329E+04 -2.51469E+04 -4.11364E+04
  7.74769E+03 -4.05752E+04  3.33501E+04 -1.65134E+04  3.12792E+04  1.09857E+04  4.78837E+03  2.03626E+04
 -1.42845E+04  9.39765E+03 -1.10534E+04 -7.70513E+03  5.60907E+03 -1.11981E+04  1.82442E+04  5.36028E+03
  1.41166E+04  2.24401E+04 -5.38197E+03  2.65553E+04 -2.30031E+04  1.31783E+04 -3.04336E+04 -3.79102E+03
 -2.38883E+04 -1.84107E+04 -1.05868E+04 -2.37706E+04  4.19945E+03 -2.35589E+04  1.85626E+04 -2.13854E+04
  2.99799E+04 -1.40044E+04  3.63285E+04  4.15606E+03  2.61110E+04  2.26403E+04  4.10028E+03  3.96907E+04
 -1.94042E+04  3.28778E+04 -2.95686E+04  1.15798E+04 -2.20322E+04 -1.04174E+04 -4.80583E+03 -1.30372E+04
  9.35395E+02 -1.80729E+03 -7.16820E+03  7.94052E+03 -1.93063E+04  5.54734E+03 -1.93326E+04 -8.69822E+03
 -1.12277E+04 -2.21050E+04  5.63526E+03 -2.64773E+04  1.77784E+04 -1.88730E+04  2.14778E+04 -1.47942E+03
  1.34560E+04  1.51417E+04 -1.21490E+03  2.22704E+04 -1.55059E+04  1.22841E+04 -2.22382E+04 -5.09478E+03
 -1.61564E+04 -1.94875E+04 -2.12200E+03 -2.67894E+04  1.18959E+04 -2.16876E+04  2.21847E+04 -1.10548E+04
  2.07025E+04 -2.49591E+02  1.49782E+04  5.19319E+03  8.02967E+03  1.23848E+03  1.15231E+04 -1.93007E+03
  2.04462E+04  2.96536E+03  2.36483E+04  1.72151E+04  1.57994E+04  3.54273E+04 -2.61181E+03  4.14422E+04
 -2.37736E+04  3.41282E+04 -3.85219E+04  1.75848E+04 -4.09171E+04 -3.12012E+03 -3.34095E+04 -2.39278E+04
 -1.34868E+04 -3.42421E+04  1.22011E+04 -3.03872E+04  2.60081E+04 -1.46567E+04  2.27793E+04  7.27323E+03
  7.54526E+03  1.74796E+04 -1.06968E+04  1.47929E+04 -1.86887E+04  2.55766E+03 -1.44069E+04 -1.20277E+04
  4.05698E+01 -1.81771E+04  9.46886E+03 -1.31413E+04  1.27578E+04 -1.38439E+03  2.88808E+03  8.38640E+03
 -8.16378E+03  3.64027E+03 -8.08383E+03 -6.59892E+03 -1.21502E+03 -1.67895E+04  1.12175E+04 -1.78683E+04
  2.09335E+04 -1.00899E+04  2.36599E+04  2.75435E+03  2.06496E+04  1.68028E+04  9.35093E+03  2.63007E+04
 -4.71359E+03  2.86660E+04 -1.86762E+04  1.75791E+04 -2.04282E+04  3.45503E+03 -1.41774E+04 -4.96009E+03
 -6.04150E+03 -6.42337E+03 -8.28610E+02  5.82865E+02 -2.85330E+03  3.41248E+03 -6.87535E+03  4.95418E+03
 -1.32217E+04 -8.48739E+02 -1.38302E+04 -1.14532E+04 -5.01188E+03 -1.80256E+04  5.93124E+03 -1.42446E+04
  1.16797E+04 -6.17992E+03  8.57451E+03  3.92616E+03 -2.62968E+02  5.59941E+03 -6.99860E+03 -3.10275E+02
 -6.64923E+03 -9.44416E+03 -1.25789E+03 -1.40738E+04  8.41409E+03 -1.46407E+04  1.82130E+04 -7.93753E+03
  2.12250E+04  1.70282E+03  1.56451E+04  1.30474E+04  3.09974E+03  1.72088E+04 -8.95581E+03  1.41809E+04
 -1.14120E+04  3.93851E+03 -5.88269E+03 -3.02411E+03  1.99031E+03 -3.96101E+03  7.75145E+03 -1.16830E+03
  6.49349E+03  6.47013E+03  1.04708E+03  1.13238E+04 -8.44569E+03  1.08583E+04 -1.38917E+04  2.51207E+03
 -1.01722E+04 -7.27216E+03  3.05209E+02 -1.20854E+04  7.60752E+03 -6.04905E+03  8.33916E+03  2.97901E+03
  1.96357E+03  9.05931E+03 -7.41445E+03  1.03706E+04 -1.21714E+04  4.67392E+03 -1.20056E+04 -4.57426E+03
 -7.07964E+03 -1.39877E+04  3.42978E+03 -1.61130E+04  1.36464E+04 -9.84206E+03  1.47579E+04  2.62093E+03
  9.12298E+03  1.20771E+04 -1.29064E+03  1.38223E+04 -1.03307E+04  8.21274E+03 -1.11680E+04 -1.22827E+03
 -9.88798E+03 -9.32951E+03 -1.76803E+03 -1.04218E+04  5.45692E+03 -9.03963E+03  6.41400E+03 -3.48481E+03
  4.58214E+03  1.90757E+03 -4.85044E+02  2.08449E+03 -6.97015E+02 -2.97997E+03  2.30097E+03 -6.62029E+03
  1.03227E+04 -4.09062E+03  1.45214E+04  1.70435E+03  1.39625E+04  9.72613E+03  9.26969E+03  1.83141E+04
 -4.22937E+03  2.12304E+04 -1.76654E+04  1.57593E+04 -2.28331E+04  3.01280E+03 -1.83696E+04 -8.03704E+03
 -9.25862E+03 -1.51307E+04 -5.33563E+02 -1.29540E+04  4.95103E+03 -7.31881E+03  4.46423E+03 -4.66872E+03
  3.62124E+03 -2.66447E+03  3.64825E+03 -3.67226E+03  4.88566E+03 -3.12384E+03  7.58173E+03 -1.05564E+03
  9.65146E+03  2.09133E+03  4.94538E+03  8.26086E+03 -2.52438E+03  9.51082E+03 -1.00193E+04  7.26332E+03
 -1.29302E+04 -1.30802E+03 -8.07268E+03 -8.90052E+03 -6.61072E+02 -1.39983E+04  7.98248E+03 -1.40219E+04
  1.40655E+04 -7.71610E+03  1.71215E+04  2.01951E+03  1.17244E+04  1.15428E+04  1.57199E+03  1.54716E+04
 -6.46924E+03  1.26719E+04 -9.21256E+03  4.60949E+03 -6.17296E+03 -1.41790E+03 -2.53821E+03 -1.51311E+03
 -1.38820E+03 -2.42461E+02 -1.81089E+03  2.99407E+03 -5.70998E+03  2.23684E+03 -8.73059E+03 -8.01170E+02
 -6.36652E+03 -9.08891E+03 -1.06298E+02 -1.28474E+04  7.86431E+03 -1.19184E+04  1.24812E+04 -3.70569E+03
  1.24563E+04  6.34926E+03  5.43860E+03  1.12837E+04 -2.83247E+03  1.27114E+04 -8.89970E+03  7.89900E+03
 -1.20137E+04  4.52107E+02 -9.12932E+03 -7.42717E+03 -1.07227E+03 -1.07379E+04  5.40258E+03 -7.63815E+03
  7.74078E+03 -2.36204E+03  5.31658E+03  1.99601E+03  1.83736E+03  3.64452E+03  1.22942E+03  1.79763E+03
  2.69873E+03  1.00920E+03  2.80228E+03  1.53721E+03  3.92890E+03  4.86842E+03  3.27965E+03  6.32661E+03
 -3.09148E+03  1.03026E+04 -9.02529E+03  1.02595E+04 -1.29941E+04  2.56406E+03 -1.34461E+04 -5.16727E+03
 -6.46136E+03 -1.25555E+04  2.13984E+03 -1.41532E+04  7.39870E+03 -8.89968E+03  1.05583E+04 -2.44338E+03
  8.33236E+03  4.84048E+03  1.94714E+03  7.70662E+03 -3.65103E+03  5.00454E+03 -5.13598E+03 -6.47859E+02
 -2.42970E+03 -5.68888E+03  3.04975E+03 -5.56272E+03  5.32545E+03 -2.80785E+03  4.85532E+03  1.10827E+03
  2.85566E+03  2.61673E+03  1.41137E+03  1.62925E+03 -7.83910E+02  1.92653E+03  1.57984E+03 -4.54724E+02
  1.97185E+03 -6.61165E+02  5.17040E+03  2.18990E+03  2.79949E+03  7.21685E+03 -1.13483E+03  9.18087E+03
 -6.07734E+03  5.89054E+03 -8.23831E+03  1.52976E+03 -7.37992E+03 -2.73522E+03 -2.66322E+03 -4.91508E+03
  8.48203E+02 -5.42539E+03  3.31090E+03 -2.35499E+03  2.87610E+03  2.67938E+03 -1.13269E+03  4.27487E+03
 -4.87589E+03  2.35539E+03 -6.13379E+03 -2.96989E+03 -3.58858E+03 -6.96044E+03  1.03113E+03 -7.09937E+03
  4.16250E+03 -4.18206E+03  5.43248E+03 -3.97832E+02  4.15053E+03  1.79783E+03  6.29927E+02  4.16451E+03
 -2.43260E+03  8.93777E+02 -2.91464E+03 -2.85117E+03  1.37837E+03 -5.03212E+03  6.25909E+03 -4.48293E+03
  7.89397E+03  7.38670E+02  7.81213E+03  5.36085E+03  2.72519E+03  8.58521E+03 -2.40797E+03  7.98577E+03
 -6.51204E+03  3.31150E+03 -6.62937E+03 -8.93645E+02 -3.93020E+03 -5.66682E+03  1.20555E+03 -5.17458E+03
  5.51468E+03 -2.61758E+03  4.16930E+03  2.52422E+03  1.56390E+03  4.90010E+03 -4.36045E+02  4.02166E+03
 -2.18714E+03  2.53382E+03 -2.05204E+03  1.08130E+03 -1.07337E+03  7.36547E+02 -1.44954E+03  1.66578E+03
 -2.10316E+03  2.96786E+03 -5.71377E+03  2.86670E+03 -8.26355E+03  3.33048E+01 -9.20011E+03 -5.20070E+03
 -4.83276E+03 -1.10127E+04  2.35939E+03 -1.28347E+04  7.97209E+03 -9.51842E+03  1.20170E+04 -3.74371E+03
  1.11043E+04  1.95488E+03  6.78144E+03  7.49654E+03  3.31652E+02  8.88836E+03 -3.48518E+03  6.37401E+03
 -4.84930E+03  2.44018E+03 -2.81603E+03 -8.54777E+02 -8.81313E+02 -7.10412E+02 -8.56547E+02 -3.26165E+02
 -1.42031E+03  3.65931E+02 -1.99655E+03 -2.67961E+02 -6.65844E+02 -2.31405E+03 -9.52489E+01 -3.20655E+03
  3.69766E+03 -2.36677E+03  4.71586E+03 -1.47169E+01  6.21988E+03  4.77286E+03  1.44749E+03  8.54181E+03
 -4.38829E+03  9.97119E+03 -9.17351E+03  5.58394E+03 -1.00916E+04 -8.57178E+02 -7.42463E+03 -6.58284E+03
 -3.27875E+03 -8.91512E+03  1.83463E+03 -7.66392E+03  5.56810E+03 -4.15161E+03  5.40907E+03  2.57436E+01
  2.86373E+03  2.90063E+03 -4.38992E+02  2.47433E+03 -1.87808E+03 -4.36375E+02  3.28173E+02 -1.99019E+03
  2.85663E+03 -9.96306E+02  3.39687E+03  1.23018E+03  2.03990E+03  3.32535E+03  4.07187E+02  4.19776E+03
 -3.71351E+03  3.84580E+03 -5.63393E+03  1.40567E+02 -4.92875E+03 -3.77605E+03 -1.06540E+03 -7.16626E+03
  4.24705E+03 -5.46974E+03  6.26129E+03 -1.97210E+03  6.37144E+03  1.41364E+03  3.70389E+03  5.39866E+03
  3.73729E+02  5.12068E+03 -2.16055E+03  4.26859E+03 -3.48705E+03  2.42059E+03 -2.84098E+03  4.00955E+02
 -1.32551E+03 -2.07066E+02 -1.61562E+03  6.53261E+02 -3.01042E+03  1.35558E+03 -4.52776E+03 -8.54698E+02
 -4.25055E+03 -2.15991E+03 -1.06532E+03 -5.69448E+03  2.61631E+03 -6.23103E+03  4.74896E+03 -2.75582E+03
  5.93969E+03  5.70934E+02  2.65632E+03  3.50540E+03 -4.99193E+02  5.56979E+03 -4.49420E+03  3.75491E+03
