 $NMID ID='MM_0lb_SNR800_18hz_g45_73.RAW', FMTDAT='(8E13.5)'
 TRAMP=1., VOLUME=1. $END
  3.09981E+05  7.22255E+02  3.37313E+05  2.50149E+05  8.44776E+04  3.37386E+05 -1.32440E+05  2.50074E+05
 -1.89592E+05  8.22793E+04 -1.11035E+05 -3.28798E+04  1.30198E+03 -5.04715E+04  5.40387E+04  1.05030E+02
  3.51238E+04  5.28324E+04 -1.71070E+04  7.49883E+04 -6.03426E+04  6.30065E+04 -8.28948E+04  3.15492E+04
 -7.94765E+04 -1.12146E+04 -5.64678E+04 -5.00702E+04 -1.52708E+04 -6.80309E+04  2.69259E+04 -4.49114E+04
  3.88594E+04  3.98273E+03  1.57017E+04  4.70440E+04 -3.39067E+04  4.61975E+04 -6.54502E+04 -4.61172E+02
 -5.20869E+04 -5.61478E+04 -6.15364E+03 -7.52502E+04  3.29858E+04 -5.34132E+04  4.64582E+04 -1.64491E+04
  4.16557E+04  1.12184E+04  3.09365E+04  2.46099E+04  1.59037E+04  2.79959E+04 -4.71440E+03  2.64913E+04
 -2.18234E+04  1.28110E+04 -1.88508E+04 -4.54444E+03  4.47929E+03 -7.37131E+03  2.12699E+04  1.12382E+04
  7.35360E+03  3.31872E+04 -3.05009E+04  3.40351E+04 -6.12241E+04  2.37757E+03 -5.54321E+04 -4.11425E+04
 -1.23208E+04 -6.10039E+04  3.81362E+04 -4.34330E+04  5.56903E+04 -1.79195E+03  3.23120E+04  3.05664E+04
 -6.21138E+03  3.31345E+04 -2.85136E+04  1.37662E+04 -2.77146E+04 -5.43525E+03 -1.44763E+04 -9.79529E+03
 -7.32393E+03 -1.14602E+04 -1.03577E+03 -1.65898E+04  6.83573E+03 -2.26752E+04  1.49838E+04 -1.39319E+04
  1.22368E+04  4.24312E+03 -6.47786E+03  1.30187E+04 -1.93878E+04 -2.48108E+03 -7.91609E+03 -3.08077E+04
  2.07762E+04 -4.10663E+04  4.52104E+04 -1.85747E+04  4.19382E+04  1.82612E+04  1.42187E+04  4.16459E+04
 -1.54945E+04  3.11995E+04 -2.34359E+04  1.15672E+03 -8.28462E+03 -2.64449E+04  2.04002E+04 -3.15644E+04
  3.79770E+04 -7.40208E+03  3.15473E+04  2.26459E+04  1.59033E+04  4.25379E+04 -7.89542E+03  4.56896E+04
 -2.86557E+04  2.98105E+04 -3.74736E+04  8.39510E+03 -3.83530E+04 -1.53133E+04 -2.16191E+04 -3.44242E+04
  7.04423E+03 -3.42457E+04  2.96013E+04 -1.28548E+04  2.65273E+04  1.06916E+04  3.38045E+03  1.76116E+04
 -1.30160E+04  7.57139E+03 -9.53841E+03 -7.76321E+03  6.16123E+03 -1.00889E+04  1.73152E+04  6.52844E+03
  1.23292E+04  2.15237E+04 -6.68115E+03  2.33470E+04 -2.15522E+04  9.28070E+03 -2.52427E+04 -5.96410E+03
 -1.70999E+04 -1.64676E+04 -6.00024E+03 -1.71141E+04  3.62235E+03 -1.49774E+04  1.25271E+04 -1.48270E+04
  2.14189E+04 -1.15814E+04  2.83769E+04  1.24877E+03  2.11336E+04  1.66347E+04  4.09441E+03  3.25831E+04
 -1.62717E+04  2.75455E+04 -2.59886E+04  9.31092E+03 -1.96340E+04 -1.05044E+04 -3.91002E+03 -1.39747E+04
  2.58761E+03 -4.04886E+03 -2.79798E+03  5.35053E+03 -1.31679E+04  5.07482E+03 -1.35026E+04 -5.09333E+03
 -9.15227E+03 -1.58252E+04  4.47071E+03 -1.97502E+04  1.25713E+04 -1.40758E+04  1.48659E+04 -1.41411E+03
  9.13138E+03  1.09214E+04 -7.40409E+02  1.59192E+04 -1.02926E+04  9.05535E+03 -1.57751E+04 -3.47979E+03
 -1.16161E+04 -1.42154E+04 -1.39967E+03 -1.94786E+04  8.74327E+03 -1.56899E+04  1.62511E+04 -7.42401E+03
  1.49586E+04  5.75376E+02  1.05410E+04  3.93754E+03  5.24317E+03  5.91587E+02  7.66768E+03 -1.28114E+03
  1.40739E+04  2.69972E+03  1.48485E+04  1.28333E+04  9.50870E+03  2.50043E+04 -3.04896E+03  2.70023E+04
 -1.62102E+04  2.04539E+04 -2.49821E+04  9.86927E+03 -2.55711E+04 -1.74466E+03 -2.15991E+04 -1.46829E+04
 -9.84678E+03 -2.07943E+04  6.72585E+03 -1.95200E+04  1.71828E+04 -1.10350E+04  1.57517E+04  3.68216E+03
  6.75946E+03  1.11968E+04 -7.22617E+03  1.05537E+04 -1.34630E+04  2.45624E+03 -1.03510E+04 -7.83235E+03
  1.31147E+02 -1.26704E+04  6.28367E+03 -9.54079E+03  7.98584E+03 -1.50267E+03  1.64677E+03  5.09298E+03
 -5.59288E+03  1.21534E+03 -3.82722E+03 -4.45104E+03  2.05286E+02 -1.01870E+04  7.84121E+03 -1.03801E+04
  1.26020E+04 -4.98750E+03  1.22934E+04  2.84476E+03  1.05959E+04  9.61934E+03  4.99886E+03  1.46250E+04
 -1.90962E+03  1.64644E+04 -9.89094E+03  1.01660E+04 -1.13877E+04  2.93308E+03 -8.61770E+03 -2.09236E+03
 -4.69023E+03 -3.29256E+03 -5.19907E+02  1.52816E+03 -2.05949E+03  1.85812E+03 -3.66063E+03  3.60558E+03
 -8.26273E+03 -4.22344E+02 -9.14164E+03 -7.31416E+03 -3.65884E+03 -1.18220E+04  3.57062E+03 -8.72454E+03
  7.06869E+03 -3.90882E+03  5.27198E+03  2.02569E+03  4.54891E+02  3.04477E+03 -3.68887E+03 -1.84976E+02
 -3.45091E+03 -5.55529E+03 -9.44058E+02 -7.45019E+03  4.15488E+03 -8.12264E+03  1.00689E+04 -4.27503E+03
  1.19782E+04  7.01202E+02  8.78101E+03  6.37790E+03  1.62506E+03  8.90202E+03 -5.45571E+03  8.29522E+03
 -7.06444E+03  2.73769E+03 -3.67530E+03 -1.08058E+03  8.28175E+02 -1.85496E+03  4.63027E+03 -9.67500E+02
  4.12148E+03  3.34825E+03  1.24032E+03  6.50412E+03 -4.36698E+03  6.49610E+03 -8.17935E+03  1.59384E+03
 -5.24496E+03 -3.55280E+03  2.07915E+02 -6.94376E+03  3.65845E+03 -3.38973E+03  3.80405E+03  9.63277E+02
  5.04660E+02  3.56530E+03 -4.36668E+03  4.91822E+03 -5.07643E+03  2.42969E+03 -4.61147E+03 -1.44899E+03
 -2.75834E+03 -6.20369E+03  1.12727E+03 -7.47280E+03  6.47617E+03 -4.88484E+03  6.55644E+03  9.33189E+02
  4.89224E+03  5.54312E+03  1.61879E+02  7.33268E+03 -4.97254E+03  4.64098E+03 -5.28218E+03 -6.38911E+02
 -6.08238E+03 -5.14307E+03 -1.26073E+03 -5.18885E+03  2.76881E+03 -4.95569E+03  3.10915E+03 -2.93319E+03
  2.66585E+03  1.55191E+02 -1.98283E+02  1.30016E+03  4.72639E+02 -3.37357E+02  3.30475E+02 -1.96767E+03
  3.72702E+03 -5.00535E+02  5.27712E+03  5.12936E+02  5.79717E+03  3.23872E+03  5.26233E+03  7.32359E+03
 -1.41488E+03  9.06111E+03 -8.06332E+03  6.69844E+03 -1.04992E+04  1.29227E+03 -8.25160E+03 -2.75408E+03
 -4.53414E+03 -6.65407E+03 -4.84493E+02 -5.43846E+03  2.40007E+03 -2.26207E+03  1.76984E+03 -2.21491E+03
  1.38107E+03 -1.48128E+03  2.32374E+03 -2.35762E+03  3.89101E+03 -1.50590E+03  3.31973E+03  2.33119E+02
  4.88600E+03  9.71276E+02  1.22371E+03  3.42707E+03 -1.48305E+03  3.15774E+03 -4.56891E+03  2.57357E+03
 -5.19098E+03 -1.01508E+03 -1.93778E+03 -3.33254E+03  1.49872E+02 -5.11417E+03  3.34320E+03 -5.36475E+03
  5.41801E+03 -3.37599E+03  6.98245E+03  3.65671E+01  5.08056E+03  4.31223E+03  1.32383E+03  6.26372E+03
 -2.39249E+03  6.07875E+03 -3.34394E+03  1.80115E+03 -1.87960E+03 -1.05515E+03 -6.35982E+02 -8.41785E+02
 -4.70139E+02  3.81870E+02 -7.34911E+02  2.19995E+03 -2.62551E+03  1.17288E+03 -4.31864E+03 -6.04991E+02
 -1.83814E+03 -3.96035E+03  8.37528E+02 -4.74870E+03  2.82218E+03 -4.49657E+03  3.81197E+03 -9.28582E+02
  4.50000E+03  2.08852E+03  1.75670E+03  3.51165E+03 -9.04092E+02  4.67892E+03 -2.77726E+03  2.70082E+03
 -4.00332E+03  7.75912E+02 -3.40401E+03 -2.67165E+03 -2.18836E+02 -3.36432E+03  1.54370E+03 -2.91009E+03
  2.84084E+03 -1.41117E+03  1.88779E+03  5.11621E+02  6.01994E+02  1.53562E+03  7.02921E+02  2.83248E+02
  1.57591E+03  2.20270E+02  1.22843E+03  1.07919E+03  1.30257E+03  2.04817E+03  1.42372E+03  1.85379E+03
 -1.52724E+03  3.17801E+03 -2.54231E+03  4.39613E+03 -3.12997E+03  1.16096E+03 -4.39522E+03 -5.41802E+02
 -1.87068E+03 -3.84277E+03  9.74038E+02 -4.74865E+03  2.01378E+03 -2.73362E+03  3.33015E+03 -1.01575E+03
  2.48747E+03  1.92299E+03  5.14393E+02  2.55693E+03 -9.54612E+02  1.34862E+03 -1.15640E+03 -2.06139E+02
 -5.99542E+02 -1.74496E+03  1.41653E+03 -1.58616E+03  1.46717E+03 -9.10514E+02  1.55909E+03  4.97721E+02
  8.64372E+02  1.99809E+02  9.27774E+02 -1.46508E+02 -4.45571E+02  8.84280E+02  1.49453E+03 -1.19380E+02
  1.38297E+01 -2.66897E+02  1.60892E+03  7.81498E+02  3.11955E+02  2.45309E+03 -5.88043E+02  2.93097E+03
 -1.99819E+03  1.22280E+03 -2.56264E+03  1.98819E+02 -2.29477E+03 -7.85077E+02 -2.10507E+02 -1.27420E+03
  3.64014E+02 -1.12737E+03  1.00867E+03 -6.36168E+02  4.84516E+02  1.35805E+03 -6.96164E+02  1.28673E+03
 -1.89167E+03  6.99308E+02 -1.06839E+03 -1.48701E+03 -1.06931E+03 -2.35173E+03  1.97437E+02 -1.67590E+03
  6.39337E+02 -6.71345E+02  8.27278E+02  1.20678E+02  1.48031E+03 -1.43383E+02  4.36479E+02  1.11311E+03
 -2.89848E+02  1.42968E+02 -8.97840E+02 -2.50617E+02  6.17650E+02 -1.10747E+03  1.48334E+03 -1.12379E+03
  1.32922E+03  3.15343E+02  2.79378E+03  6.75159E+02  1.39486E+03  1.71035E+03 -5.45076E+02  1.81969E+03
 -1.70133E+03  3.98732E+02 -1.69524E+03 -3.36612E+02 -1.07300E+03 -1.39703E+03  3.56794E+02 -7.20852E+02
  1.45102E+03 -6.99132E+02  8.99469E+02  8.57727E+02  9.14988E+01  1.26068E+03  2.10078E+02  1.35273E+03
 -6.56473E+02  1.31312E+03 -7.21539E+02  1.28467E+02  1.17311E+02  4.47172E+02 -6.74566E+02  2.11572E+02
 -6.88269E+02  1.15655E+03 -1.96685E+03  6.17074E+02 -1.67256E+03  1.43456E+02 -2.52379E+03 -1.18376E+03
 -9.07125E+02 -2.67601E+03  6.34632E+02 -3.15674E+03  1.32816E+03 -2.88526E+03  2.83995E+03 -1.17199E+03
  2.80350E+03 -1.66143E+02  1.41174E+03  1.51783E+03 -4.62808E+02  1.56302E+03 -6.26389E+02  1.45431E+03
 -7.69522E+02  6.97714E+02 -5.52966E+02 -1.24905E+02 -6.70856E+02  2.99757E+02 -8.22387E+02  1.45375E+01
 -1.16073E+03 -1.33764E+02 -7.16885E+02  2.54578E+02  2.41975E+01 -5.71129E+02 -5.72095E+02 -7.82322E+02
  1.32481E+03 -4.04863E+02  6.02614E+02  1.76256E+02  1.33917E+03  1.09070E+03 -2.35332E+02  1.44994E+03
 -9.93977E+02  2.56396E+03 -1.77205E+03  1.55822E+03 -2.11545E+03 -1.16336E+02 -1.45691E+03 -1.42016E+03
 -9.02335E+02 -1.17660E+03  2.67827E+02 -1.43966E+03  7.07148E+02 -5.80723E+02  8.45850E+02  1.69592E+02
  5.91210E+02  1.51106E+02  1.22208E+02  3.83398E+02 -4.48202E+02 -9.11770E+00 -1.10435E+02 -2.83722E+02
  2.33639E+02 -9.61658E+01  2.89618E+02  6.40601E+02  2.54263E+02  7.13447E+02  2.95867E+02  5.95071E+01
 -6.46022E+02  7.74320E+02 -8.50644E+02  2.84321E+02 -8.80738E+02 -6.45783E+02  1.10572E+02 -1.33672E+03
  5.32274E+02 -8.50160E+02  7.76933E+02  2.45640E+02  1.08343E+03 -6.99162E+02  6.65773E+02  7.73502E+02
  6.61412E+02  4.26840E+02 -1.37536E+02  4.90286E+02 -7.48223E+02  6.33685E+02 -2.31617E+02 -1.21581E+02
 -3.49771E+02 -2.01459E+02 -4.68158E+02  2.07949E+02 -6.54051E+02 -2.26278E+01 -1.00452E+03 -2.37989E+02
 -1.06828E+03  1.65294E+02 -3.36310E+02 -1.24919E+03  8.59684E+02 -1.78141E+03  8.43552E+02 -1.92047E+02
  7.62923E+02 -1.03252E+02 -3.54511E+02  4.93536E+02 -1.23823E+02  1.09471E+03 -3.40338E+02  8.21295E+02
