 $NMID ID='MM_0lb_SNR800_10hz_g45_70.RAW', FMTDAT='(8E13.5)'
 TRAMP=1., VOLUME=1. $END
  3.09548E+05  5.28537E+02  3.37959E+05  2.50882E+05  8.48954E+04  3.38310E+05 -1.32349E+05  2.51258E+05
 -1.90557E+05  8.33595E+04 -1.12378E+05 -3.23230E+04  5.45953E+02 -5.01866E+04  5.36598E+04 -2.17273E+02
  3.48177E+04  5.25966E+04 -1.66587E+04  7.58827E+04 -6.12324E+04  6.37485E+04 -8.47869E+04  3.23342E+04
 -8.20794E+04 -1.14760E+04 -5.77555E+04 -5.22983E+04 -1.52110E+04 -7.05258E+04  2.76594E+04 -4.65369E+04
  4.10502E+04  4.02185E+03  1.63213E+04  4.88870E+04 -3.46870E+04  4.79998E+04 -6.76530E+04 -1.12707E+02
 -5.48181E+04 -5.78433E+04 -6.47696E+03 -7.79174E+04  3.43938E+04 -5.64989E+04  4.92737E+04 -1.79411E+04
  4.48182E+04  1.15004E+04  3.29266E+04  2.61634E+04  1.57580E+04  3.00103E+04 -5.87610E+03  2.77625E+04
 -2.23425E+04  1.21404E+04 -1.82233E+04 -5.43670E+03  6.58629E+03 -7.31756E+03  2.32189E+04  1.34992E+04
  6.78876E+03  3.66741E+04 -3.32302E+04  3.65548E+04 -6.51028E+04  1.94777E+03 -5.81382E+04 -4.36170E+04
 -1.24137E+04 -6.48642E+04  4.12589E+04 -4.68964E+04  6.01030E+04 -2.48868E+03  3.56520E+04  3.36860E+04
 -5.56174E+03  3.85056E+04 -3.11893E+04  1.78151E+04 -3.28080E+04 -3.77460E+03 -1.85736E+04 -1.16273E+04
 -9.22603E+03 -1.45219E+04 -7.45510E+02 -1.91795E+04  8.02666E+03 -2.34099E+04  1.60163E+04 -1.26441E+04
  1.08214E+04  6.01024E+03 -9.69302E+03  1.30415E+04 -2.27135E+04 -5.75162E+03 -8.51543E+03 -3.64893E+04
  2.44085E+04 -4.54458E+04  5.05334E+04 -2.06008E+04  4.79879E+04  2.04098E+04  1.67196E+04  4.67267E+04
 -1.66004E+04  3.50611E+04 -2.70639E+04  2.46801E+03 -1.12075E+04 -2.89218E+04  2.17433E+04 -3.61252E+04
  4.39239E+04 -1.01245E+04  3.85570E+04  2.44048E+04  2.03557E+04  4.94204E+04 -8.53977E+03  5.41764E+04
 -3.43450E+04  3.71402E+04 -4.58704E+04  1.08459E+04 -4.57967E+04 -1.80289E+04 -2.53840E+04 -4.06820E+04
  7.75741E+03 -4.10326E+04  3.36440E+04 -1.65866E+04  3.11309E+04  1.09291E+04  4.88764E+03  2.01160E+04
 -1.37199E+04  9.42263E+03 -1.07058E+04 -7.65316E+03  5.71494E+03 -1.13350E+04  1.87109E+04  5.31340E+03
  1.45224E+04  2.21098E+04 -5.70231E+03  2.59857E+04 -2.30688E+04  1.34705E+04 -3.01892E+04 -3.54265E+03
 -2.41629E+04 -1.77913E+04 -1.02691E+04 -2.35316E+04  4.37478E+03 -2.37009E+04  1.85425E+04 -2.13446E+04
  3.03859E+04 -1.35731E+04  3.60398E+04  4.56706E+03  2.58963E+04  2.31496E+04  4.21493E+03  3.96045E+04
 -1.89271E+04  3.27809E+04 -2.98584E+04  1.11789E+04 -2.18368E+04 -1.04967E+04 -4.69559E+03 -1.32105E+04
  9.48054E+02 -1.69948E+03 -6.86672E+03  7.51329E+03 -1.92034E+04  5.16340E+03 -1.89595E+04 -8.76200E+03
 -1.13758E+04 -2.20408E+04  6.01603E+03 -2.63426E+04  1.74443E+04 -1.87090E+04  2.10995E+04 -1.98488E+03
  1.36032E+04  1.50810E+04 -1.58952E+03  2.17879E+04 -1.56246E+04  1.29836E+04 -2.22821E+04 -4.29288E+03
 -1.62706E+04 -1.97147E+04 -2.04994E+03 -2.64242E+04  1.20292E+04 -2.20772E+04  2.20837E+04 -1.09526E+04
  2.08105E+04 -1.84575E+02  1.46024E+04  4.94033E+03  8.17583E+03  1.30885E+03  1.16554E+04 -1.70161E+03
  2.07550E+04  2.60650E+03  2.35143E+04  1.74998E+04  1.59638E+04  3.55288E+04 -3.10724E+03  4.13103E+04
 -2.35442E+04  3.40695E+04 -3.92100E+04  1.76173E+04 -4.14629E+04 -2.76156E+03 -3.36707E+04 -2.38820E+04
 -1.36063E+04 -3.42615E+04  1.19717E+04 -3.02877E+04  2.61922E+04 -1.49217E+04  2.27261E+04  7.28021E+03
  7.63025E+03  1.71386E+04 -1.07029E+04  1.48265E+04 -1.92989E+04  2.50148E+03 -1.43668E+04 -1.23965E+04
 -6.11335E+02 -1.82464E+04  9.44516E+03 -1.34814E+04  1.26640E+04 -1.10754E+03  3.18606E+03  8.17575E+03
 -8.11940E+03  4.20273E+03 -8.04775E+03 -6.53514E+03 -1.36297E+03 -1.70173E+04  1.10579E+04 -1.79989E+04
  2.10243E+04 -1.02480E+04  2.35257E+04  3.31084E+03  2.07439E+04  1.68599E+04  9.47281E+03  2.64841E+04
 -4.81327E+03  2.87799E+04 -1.86192E+04  1.75941E+04 -1.99751E+04  3.86586E+03 -1.40455E+04 -5.67699E+03
 -5.95224E+03 -6.90370E+03 -8.17609E+02  5.79724E+02 -2.79184E+03  3.22897E+03 -6.75534E+03  5.25563E+03
 -1.36290E+04 -9.37967E+02 -1.35793E+04 -1.10617E+04 -5.50823E+03 -1.78837E+04  6.40437E+03 -1.45499E+04
  1.22976E+04 -5.87352E+03  8.32709E+03  3.72921E+03 -8.48787E+01  5.60951E+03 -7.34973E+03 -1.16408E+02
 -6.55292E+03 -9.37218E+03 -1.51932E+03 -1.39112E+04  8.21454E+03 -1.47179E+04  1.83740E+04 -8.09264E+03
  2.14409E+04  2.18826E+03  1.56249E+04  1.30637E+04  2.85379E+03  1.72374E+04 -8.57512E+03  1.44143E+04
 -1.18384E+04  4.26754E+03 -5.60924E+03 -2.85892E+03  2.45708E+03 -4.12173E+03  7.54510E+03 -1.01802E+03
  6.92321E+03  6.35087E+03  1.22640E+03  1.18723E+04 -8.44254E+03  1.09580E+04 -1.43792E+04  2.72232E+03
 -9.92857E+03 -7.57210E+03  9.73317E+01 -1.24045E+04  7.92476E+03 -6.06208E+03  8.53305E+03  3.12193E+03
  1.88263E+03  9.16791E+03 -7.44276E+03  1.05247E+04 -1.18972E+04  5.00616E+03 -1.22607E+04 -4.74903E+03
 -7.11537E+03 -1.41886E+04  3.21099E+03 -1.62566E+04  1.38287E+04 -9.46624E+03  1.52429E+04  2.35173E+03
  9.26285E+03  1.15944E+04 -1.17731E+03  1.42310E+04 -1.04082E+04  7.69295E+03 -1.14353E+04 -7.94785E+02
 -9.58586E+03 -9.44256E+03 -1.72175E+03 -1.06642E+04  5.86880E+03 -8.94426E+03  6.75631E+03 -3.40993E+03
  4.74809E+03  1.78648E+03 -9.52580E+02  1.75884E+03 -5.16913E+02 -2.85230E+03  2.08895E+03 -6.68963E+03
  9.91427E+03 -4.02024E+03  1.44508E+04  1.26490E+03  1.39901E+04  9.35276E+03  9.68773E+03  1.84542E+04
 -4.28020E+03  2.11974E+04 -1.75897E+04  1.59870E+04 -2.29136E+04  3.17427E+03 -1.80003E+04 -8.02723E+03
 -9.23919E+03 -1.50512E+04 -5.89505E+02 -1.28516E+04  4.94427E+03 -7.23994E+03  4.49481E+03 -5.16442E+03
  3.42740E+03 -2.91201E+03  3.47916E+03 -3.92385E+03  5.58714E+03 -3.22264E+03  7.09327E+03 -1.06195E+03
  9.89978E+03  2.42248E+03  4.80079E+03  8.38349E+03 -2.07028E+03  9.76772E+03 -1.02891E+04  7.77916E+03
 -1.33925E+04 -1.56091E+03 -7.67475E+03 -8.77015E+03 -1.10993E+03 -1.40911E+04  7.50995E+03 -1.36266E+04
  1.43893E+04 -7.50268E+03  1.72463E+04  2.05353E+03  1.16631E+04  1.22188E+04  1.78593E+03  1.56517E+04
 -6.38405E+03  1.26299E+04 -9.01371E+03  4.34289E+03 -6.42494E+03 -1.96601E+03 -2.41349E+03 -1.99050E+03
 -1.21474E+03 -1.78645E+01 -1.90673E+03  2.71251E+03 -5.64835E+03  1.93983E+03 -9.18637E+03 -1.17615E+03
 -5.99637E+03 -8.99538E+03 -8.08595E-02 -1.26880E+04  7.87234E+03 -1.15814E+04  1.29672E+04 -3.57671E+03
  1.26843E+04  6.29822E+03  6.14252E+03  1.11963E+04 -2.50968E+03  1.28512E+04 -9.02286E+03  8.07298E+03
 -1.22908E+04  3.25939E+02 -9.34068E+03 -7.77756E+03 -1.14657E+03 -1.05131E+04  5.93268E+03 -7.33142E+03
  8.03158E+03 -2.66718E+03  5.18289E+03  1.90794E+03  2.44450E+03  3.97509E+03  1.27446E+03  1.68516E+03
  2.78627E+03  9.09036E+02  3.15294E+03  1.64771E+03  3.86376E+03  4.70218E+03  3.25011E+03  6.80011E+03
 -2.68723E+03  1.02389E+04 -8.93718E+03  1.03348E+04 -1.29770E+04  3.29792E+03 -1.35854E+04 -5.36273E+03
 -6.41158E+03 -1.24176E+04  1.81161E+03 -1.39599E+04  7.57648E+03 -9.12075E+03  1.03736E+04 -2.45480E+03
  8.43931E+03  5.29979E+03  1.94098E+03  7.34255E+03 -3.53891E+03  4.75271E+03 -5.11327E+03 -6.97209E+02
 -2.55308E+03 -5.45682E+03  3.18475E+03 -5.44266E+03  5.12972E+03 -2.81609E+03  5.22337E+03  1.29746E+03
  3.29470E+03  2.79888E+03  1.43131E+03  2.11232E+03 -5.99428E+02  1.62908E+03  1.30315E+03 -3.88396E+02
  1.91409E+03 -6.91504E+02  5.22506E+03  2.11304E+03  2.60442E+03  7.19199E+03 -1.29064E+03  9.03246E+03
 -5.86448E+03  5.88084E+03 -8.32606E+03  1.74697E+03 -7.17880E+03 -2.70121E+03 -2.65127E+03 -5.20605E+03
  8.21226E+02 -4.80473E+03  3.11844E+03 -2.67651E+03  2.61378E+03  2.68225E+03 -9.50799E+02  4.03698E+03
 -5.10159E+03  2.33574E+03 -5.84658E+03 -2.95119E+03 -3.49711E+03 -6.51499E+03  8.79415E+02 -6.85740E+03
  4.07655E+03 -4.10374E+03  4.56498E+03 -1.22936E+02  4.70001E+03  1.67076E+03  7.90443E+02  4.05969E+03
 -2.21716E+03  1.17248E+03 -3.68411E+03 -2.20302E+03  1.03700E+03 -5.41738E+03  6.32538E+03 -4.21456E+03
  7.87826E+03  5.66890E+02  7.79991E+03  5.12246E+03  2.73223E+03  8.44451E+03 -2.88110E+03  7.95670E+03
 -6.69775E+03  3.21622E+03 -6.59747E+03 -1.21109E+03 -3.96846E+03 -5.19093E+03  1.32036E+03 -4.73417E+03
  5.14120E+03 -2.38568E+03  4.03395E+03  2.52976E+03  1.64974E+03  4.19124E+03 -3.67996E+02  4.09601E+03
 -2.18643E+03  2.76554E+03 -1.77834E+03  7.17620E+02 -7.83908E+02  9.40217E+02 -1.47136E+03  1.64879E+03
 -2.19449E+03  3.48499E+03 -5.36845E+03  2.60257E+03 -8.17838E+03 -2.03101E+02 -9.54195E+03 -5.71951E+03
 -4.65213E+03 -1.09384E+04  2.12392E+03 -1.25835E+04  7.69088E+03 -1.00381E+04  1.23219E+04 -3.51224E+03
  1.11176E+04  1.80458E+03  6.62624E+03  7.21674E+03  2.58759E+02  8.70407E+03 -3.47398E+03  6.75898E+03
 -4.92466E+03  2.33643E+03 -2.82001E+03 -1.13240E+03 -7.14337E+02 -6.26271E+02 -4.70539E+02 -2.34573E+02
 -1.56970E+03  1.82251E+02 -2.40807E+03 -3.90559E+02 -2.21970E+02 -2.22281E+03  1.44972E+02 -3.00628E+03
  3.96160E+03 -2.45114E+03  5.31921E+03  1.20870E+02  5.88883E+03  4.85951E+03  1.32656E+03  8.26772E+03
 -4.24785E+03  9.76540E+03 -8.90661E+03  5.19746E+03 -1.00932E+04 -8.02303E+02 -7.21524E+03 -5.99740E+03
 -3.22909E+03 -8.63582E+03  2.01019E+03 -7.38560E+03  5.25229E+03 -4.30716E+03  5.55818E+03  3.27829E+02
  3.32640E+03  3.01354E+03 -7.09792E+02  2.44343E+03 -1.59751E+03 -8.47072E+01  5.37014E+01 -2.17993E+03
  2.51554E+03 -1.22941E+03  3.11619E+03  1.11965E+03  2.12579E+03  3.60131E+03  4.44103E+02  4.44203E+03
 -3.53590E+03  3.40206E+03 -5.77779E+03  7.39483E+02 -5.22202E+03 -3.95126E+03 -6.72358E+02 -7.24493E+03
  4.27267E+03 -6.02351E+03  6.58442E+03 -1.72579E+03  6.38197E+03  1.86079E+03  4.00058E+03  5.50087E+03
  8.81450E+02  5.28989E+03 -2.39854E+03  4.48232E+03 -3.44707E+03  2.07678E+03 -2.90399E+03  7.35736E+02
 -1.61016E+03 -2.52268E+02 -1.72194E+03  7.78519E+02 -2.67687E+03  9.23111E+02 -4.14282E+03 -6.27132E+02
 -4.05291E+03 -2.61082E+03 -1.27481E+03 -5.59273E+03  2.47212E+03 -6.19176E+03  4.84798E+03 -2.75295E+03
  5.88186E+03  4.90541E+02  2.90487E+03  3.98520E+03 -5.69387E+02  5.27372E+03 -4.37384E+03  3.56346E+03
