 $NMID ID='MM_0lb_SNR800_18hz_g55_23.RAW', FMTDAT='(8E13.5)'
 TRAMP=1., VOLUME=1. $END
  3.09781E+05  1.91940E+02  3.37544E+05  2.50371E+05  8.45310E+04  3.37410E+05 -1.32455E+05  2.50956E+05
 -1.89838E+05  8.30804E+04 -1.11284E+05 -3.24888E+04  7.80069E+02 -5.05112E+04  5.39332E+04  3.30497E+02
  3.51373E+04  5.25159E+04 -1.70897E+04  7.51044E+04 -6.04712E+04  6.30915E+04 -8.36157E+04  3.18510E+04
 -8.02658E+04 -1.13836E+04 -5.70322E+04 -5.06191E+04 -1.48427E+04 -6.87327E+04  2.72310E+04 -4.52188E+04
  3.99378E+04  4.08763E+03  1.59932E+04  4.74461E+04 -3.39806E+04  4.69505E+04 -6.58220E+04 -4.33146E+02
 -5.27072E+04 -5.65260E+04 -6.53298E+03 -7.60017E+04  3.37551E+04 -5.39239E+04  4.72258E+04 -1.66938E+04
  4.23062E+04  1.12672E+04  3.13292E+04  2.49700E+04  1.58988E+04  2.91734E+04 -4.73006E+03  2.69879E+04
 -2.20702E+04  1.24207E+04 -1.87240E+04 -4.39116E+03  4.94299E+03 -7.73216E+03  2.16730E+04  1.16356E+04
  7.58235E+03  3.42004E+04 -3.13238E+04  3.46064E+04 -6.21696E+04  2.10438E+03 -5.62399E+04 -4.20699E+04
 -1.25501E+04 -6.19795E+04  3.85973E+04 -4.42550E+04  5.65140E+04 -1.96845E+03  3.27125E+04  3.12426E+04
 -6.26770E+03  3.43516E+04 -2.92582E+04  1.42722E+04 -2.85090E+04 -4.75842E+03 -1.53672E+04 -1.04984E+04
 -7.95809E+03 -1.20957E+04 -9.25021E+02 -1.70782E+04  7.24386E+03 -2.26786E+04  1.50647E+04 -1.38498E+04
  1.19582E+04  4.77133E+03 -6.92908E+03  1.30567E+04 -2.01117E+04 -3.35276E+03 -8.27593E+03 -3.17274E+04
  2.16445E+04 -4.19038E+04  4.62647E+04 -1.91781E+04  4.30960E+04  1.89494E+04  1.51171E+04  4.25844E+04
 -1.54313E+04  3.20324E+04 -2.45112E+04  1.67426E+03 -9.17714E+03 -2.68808E+04  2.08085E+04 -3.23646E+04
  3.93561E+04 -8.31200E+03  3.31822E+04  2.34296E+04  1.66743E+04  4.42308E+04 -7.87232E+03  4.72362E+04
 -2.96587E+04  3.14021E+04 -3.92228E+04  8.90024E+03 -4.01457E+04 -1.55601E+04 -2.21144E+04 -3.58194E+04
  7.40629E+03 -3.56789E+04  2.99204E+04 -1.34219E+04  2.77395E+04  1.09901E+04  3.30592E+03  1.83030E+04
 -1.33261E+04  7.76735E+03 -9.88651E+03 -7.82662E+03  5.51265E+03 -1.02364E+04  1.74798E+04  6.17585E+03
  1.27363E+04  2.15929E+04 -6.39262E+03  2.38628E+04 -2.15481E+04  1.00907E+04 -2.60796E+04 -5.85719E+03
 -1.82423E+04 -1.68942E+04 -6.94187E+03 -1.82812E+04  3.83760E+03 -1.67493E+04  1.36879E+04 -1.58646E+04
  2.29999E+04 -1.19729E+04  2.97740E+04  1.68320E+03  2.21037E+04  1.76095E+04  4.24269E+03  3.36919E+04
 -1.66533E+04  2.85219E+04 -2.67407E+04  1.00799E+04 -2.00391E+04 -1.02029E+04 -4.32760E+03 -1.37001E+04
  2.16260E+03 -3.57767E+03 -3.08952E+03  5.99328E+03 -1.41030E+04  5.40842E+03 -1.46059E+04 -5.67898E+03
 -9.01900E+03 -1.64007E+04  4.76277E+03 -2.07117E+04  1.33158E+04 -1.47573E+04  1.58535E+04 -1.45465E+03
  9.43925E+03  1.15766E+04 -8.58639E+02  1.65625E+04 -1.12089E+04  9.49884E+03 -1.66053E+04 -3.69326E+03
 -1.25162E+04 -1.51611E+04 -1.42867E+03 -2.02568E+04  9.24006E+03 -1.65714E+04  1.71403E+04 -7.84701E+03
  1.55495E+04  5.39588E+02  1.10881E+04  4.25384E+03  5.70575E+03  6.14191E+02  8.02191E+03 -1.38978E+03
  1.49059E+04  2.83369E+03  1.61252E+04  1.34746E+04  1.03401E+04  2.61420E+04 -3.06501E+03  2.86572E+04
 -1.67873E+04  2.24867E+04 -2.67181E+04  1.08567E+04 -2.74443E+04 -1.91221E+03 -2.34634E+04 -1.55962E+04
 -1.06250E+04 -2.24927E+04  7.51586E+03 -2.07247E+04  1.84248E+04 -1.14272E+04  1.68780E+04  4.34862E+03
  6.83908E+03  1.24303E+04 -7.37084E+03  1.09665E+04 -1.44028E+04  2.63620E+03 -1.07894E+04 -8.49619E+03
 -6.19234E+01 -1.31646E+04  6.46592E+03 -9.90860E+03  8.47659E+03 -1.37526E+03  1.64066E+03  5.53908E+03
 -5.68064E+03  1.79920E+03 -4.12828E+03 -4.91992E+03  3.98475E+02 -1.11803E+04  8.19740E+03 -1.09833E+04
  1.35289E+04 -5.53492E+03  1.36490E+04  3.02304E+03  1.15689E+04  1.03097E+04  5.89961E+03  1.57199E+04
 -2.25357E+03  1.75473E+04 -1.06772E+04  1.11919E+04 -1.24909E+04  2.75732E+03 -8.92316E+03 -2.26187E+03
 -4.69181E+03 -3.62821E+03 -9.31145E+02  1.11632E+03 -1.91928E+03  2.25765E+03 -4.07467E+03  3.53371E+03
 -8.46213E+03 -5.27985E+02 -9.47867E+03 -7.77343E+03 -3.64390E+03 -1.22471E+04  4.11288E+03 -9.26893E+03
  7.74738E+03 -4.01621E+03  5.58295E+03  2.49412E+03  7.77205E+02  3.24558E+03 -4.03695E+03  1.72353E+01
 -3.95188E+03 -5.68848E+03 -8.65713E+02 -8.27567E+03  4.48946E+03 -8.74176E+03  1.05929E+04 -4.58318E+03
  1.30366E+04  5.87186E+02  9.45720E+03  7.13141E+03  1.82900E+03  9.57868E+03 -5.48828E+03  9.15926E+03
 -7.26380E+03  3.13038E+03 -3.76936E+03 -1.38879E+03  1.44868E+03 -1.89547E+03  5.08795E+03 -8.95095E+02
  4.51373E+03  3.54625E+03  1.35896E+03  6.97605E+03 -5.23185E+03  6.71260E+03 -8.48211E+03  1.99715E+03
 -5.34328E+03 -3.90985E+03  3.90515E+02 -7.41844E+03  4.20334E+03 -3.45138E+03  3.96723E+03  1.22695E+03
  6.93323E+02  3.69295E+03 -4.34486E+03  5.02309E+03 -5.24739E+03  2.45758E+03 -5.28589E+03 -1.48193E+03
 -3.22379E+03 -6.87614E+03  1.60150E+03 -8.01470E+03  6.53639E+03 -5.24214E+03  7.04231E+03  1.28505E+03
  4.94711E+03  5.91141E+03  8.26922E+01  7.63436E+03 -5.60938E+03  4.40716E+03 -5.59952E+03 -3.56067E+02
 -6.05998E+03 -5.60386E+03 -1.55620E+03 -5.54064E+03  2.79499E+03 -4.80094E+03  3.24724E+03 -3.00712E+03
  2.87288E+03  3.33368E+02 -2.14930E+02  1.36376E+03  6.49835E+02 -3.35812E+02  3.87330E+02 -1.86305E+03
  4.38111E+03 -8.94468E+02  5.93314E+03  7.11576E+02  6.04634E+03  3.39579E+03  5.39566E+03  8.04076E+03
 -1.19481E+03  9.39015E+03 -8.51611E+03  6.98849E+03 -1.06323E+04  1.37799E+03 -8.52541E+03 -3.04817E+03
 -4.48789E+03 -7.26172E+03 -9.93013E+01 -5.95401E+03  2.57807E+03 -2.37120E+03  1.89487E+03 -2.33430E+03
  1.55550E+03 -1.55138E+03  2.13587E+03 -2.39970E+03  3.60320E+03 -1.70123E+03  4.06566E+03  5.81952E+02
  4.98275E+03  1.14759E+03  1.58011E+03  3.79956E+03 -1.50948E+03  3.28825E+03 -4.87190E+03  3.10699E+03
 -5.94301E+03 -9.17079E+02 -2.31825E+03 -3.76153E+03  9.24096E+01 -5.97587E+03  3.32591E+03 -5.76998E+03
  6.03620E+03 -3.40586E+03  7.26361E+03  3.25493E+02  5.47777E+03  4.87857E+03  1.26017E+03  6.46941E+03
 -2.31612E+03  6.18168E+03 -3.68590E+03  1.98509E+03 -1.94131E+03 -7.66586E+02 -5.28613E+02 -6.28800E+02
 -6.45077E+02  3.24168E+02 -9.98073E+02  2.17491E+03 -2.41407E+03  1.12213E+03 -4.35771E+03 -3.14569E+02
 -1.69214E+03 -4.15886E+03  8.31203E+02 -4.82358E+03  2.87955E+03 -4.73569E+03  3.93716E+03 -1.58410E+03
  4.38616E+03  2.40347E+03  1.98064E+03  3.89119E+03 -8.54558E+02  4.74781E+03 -3.11665E+03  2.95816E+03
 -4.38813E+03  5.49869E+02 -3.34842E+03 -2.35360E+03 -4.64808E+02 -3.38315E+03  1.91908E+03 -2.55912E+03
  2.93057E+03 -1.61228E+03  2.01883E+03  4.00045E+02  5.61290E+02  1.67400E+03  9.81479E+02  7.41263E+02
  1.85434E+03  5.45853E+02  1.06686E+03  9.92958E+02  1.29693E+03  2.30886E+03  1.43978E+03  2.00671E+03
 -1.15017E+03  3.08042E+03 -3.07130E+03  4.27263E+03 -3.36571E+03  1.30856E+03 -4.36494E+03 -2.93576E+02
 -2.17064E+03 -4.16797E+03  5.65714E+02 -5.04436E+03  1.97141E+03 -2.98428E+03  3.10369E+03 -9.48124E+02
  2.58190E+03  1.78114E+03  2.93316E+02  2.55442E+03 -8.36154E+02  1.29244E+03 -1.17358E+03 -1.71041E+02
 -7.13666E+02 -1.78522E+03  1.32677E+03 -1.69692E+03  1.45701E+03 -7.94469E+02  1.44013E+03  1.25686E+02
  1.07523E+03  4.07718E+02  7.60011E+02 -3.95379E+02 -4.21095E+02  9.84238E+02  1.64583E+03 -1.00486E+02
  2.89828E+01 -3.54251E+02  1.98716E+03  5.85835E+02  2.39662E+02  2.43213E+03 -4.27053E+02  3.12816E+03
 -1.36569E+03  1.21210E+03 -2.08641E+03  2.16044E+02 -2.47505E+03 -8.03280E+02 -1.58555E+02 -1.36144E+03
  2.67221E+02 -1.06447E+03  1.13266E+03 -6.99147E+02  7.51735E+02  1.48121E+03 -7.78888E+02  1.32553E+03
 -1.70947E+03  8.08921E+02 -1.27555E+03 -1.53138E+03 -9.55644E+02 -2.47505E+03  2.27054E+02 -1.55103E+03
  6.12061E+02 -4.65197E+02  8.16365E+02  2.07778E+02  1.47087E+03  9.47508E+01  3.28188E+02  1.42240E+03
 -6.46592E+02  8.82021E+01 -1.09185E+03 -3.38428E+02  6.51446E+02 -1.09275E+03  1.94184E+03 -1.05291E+03
  1.25685E+03  5.45419E+02  2.87071E+03  6.82534E+02  1.14471E+03  1.69939E+03 -5.79358E+02  1.84157E+03
 -1.48534E+03  3.37269E+02 -1.92067E+03 -3.66326E+02 -9.24557E+02 -1.66857E+03  5.56471E+02 -6.61771E+02
  1.37254E+03 -8.13567E+02  7.21191E+02  7.94020E+02  2.68802E+01  1.48417E+03  1.53210E+02  1.20407E+03
 -3.25181E+02  9.28628E+02 -4.68959E+02  5.01079E+02 -2.32489E+01  4.50532E+02 -7.50401E+02  5.63816E+02
 -5.75180E+02  1.15545E+03 -2.07407E+03  6.55810E+02 -1.57946E+03  2.68156E+02 -2.31698E+03 -1.25418E+03
 -7.77318E+02 -2.48220E+03  3.13376E+02 -2.87687E+03  1.02235E+03 -2.78781E+03  2.78005E+03 -1.04386E+03
  2.16374E+03 -1.49835E+01  1.02632E+03  1.95444E+03 -5.55511E+02  1.91906E+03 -4.91615E+02  1.12166E+03
 -1.10717E+03  8.69148E+02 -5.58218E+02 -8.63208E+01 -4.60745E+02  3.18768E+02 -6.04905E+02 -1.02584E+02
 -1.18735E+03 -1.97205E+02 -1.02317E+03 -5.99456E+01  2.20410E+02 -4.75102E+02 -2.76502E+02 -9.47970E+02
  1.27449E+03 -3.75970E+02  3.23140E+02  1.86918E+02  1.27755E+03  8.43596E+02 -3.91693E+02  1.63161E+03
 -9.22483E+02  2.10751E+03 -1.55062E+03  1.34511E+03 -1.98785E+03 -2.22525E+02 -1.27252E+03 -9.92492E+02
 -8.36434E+02 -1.54879E+03  2.04309E+02 -1.20588E+03  9.39496E+02 -6.87409E+02  6.99634E+02  1.31987E+02
  9.93526E+02  3.44715E+02 -8.82660E+01  3.72206E+02 -3.66466E+02  5.74797E+01 -1.83232E+02 -2.02029E+02
  4.70724E+02  9.79021E+01  1.93924E+02  1.17512E+02 -1.09666E+02  5.21439E+02  4.05502E+02  2.91399E+02
 -5.25184E+02  6.54542E+02 -7.22409E+02  2.07498E+02 -9.07891E+02 -3.84778E+02 -7.62293E+01 -1.44498E+03
  6.71315E+02 -7.26206E+02  6.12115E+02  2.11327E+02  1.10494E+03 -6.88740E+02  3.86798E+02  8.70264E+02
  4.95826E+02  7.24867E+02  2.68081E+01  6.03687E+02 -6.82220E+02  7.81935E+02 -7.50115E+02  1.53451E+02
  7.25488E+01 -1.66422E+02 -3.65872E+02  9.80430E+01 -4.72974E+02 -2.06355E+01 -6.57994E+02 -1.34200E+02
 -1.01662E+03  3.41949E+02 -3.91806E+02 -9.57502E+02  9.47675E+02 -1.91640E+03  7.89447E+02 -4.79404E+02
  7.56821E+02  5.73190E+01 -4.43214E+02  2.03425E+02 -1.20390E+02  5.30120E+02 -4.44218E+02  7.32368E+02
