 $NMID ID='MM_0lb_SNR800_17hz_g50_94.RAW', FMTDAT='(8E13.5)'
 TRAMP=1., VOLUME=1. $END
  3.09737E+05  5.43140E+02  3.37498E+05  2.50482E+05  8.46885E+04  3.37385E+05 -1.32293E+05  2.50683E+05
 -1.89914E+05  8.26315E+04 -1.11220E+05 -3.28137E+04  1.21297E+03 -5.04591E+04  5.37318E+04  1.16402E+02
  3.51595E+04  5.24082E+04 -1.65603E+04  7.50409E+04 -6.06236E+04  6.31350E+04 -8.34370E+04  3.17093E+04
 -8.04058E+04 -1.13933E+04 -5.69235E+04 -5.09214E+04 -1.50587E+04 -6.90137E+04  2.69245E+04 -4.52915E+04
  3.96538E+04  3.88631E+03  1.60252E+04  4.71604E+04 -3.43028E+04  4.64153E+04 -6.59348E+04 -6.60178E+02
 -5.25598E+04 -5.64383E+04 -6.63755E+03 -7.61204E+04  3.36642E+04 -5.38921E+04  4.70279E+04 -1.66562E+04
  4.23969E+04  1.10402E+04  3.12089E+04  2.49850E+04  1.60095E+04  2.86290E+04 -4.99407E+03  2.67428E+04
 -2.18123E+04  1.26662E+04 -1.89743E+04 -4.90866E+03  4.89817E+03 -7.60485E+03  2.14321E+04  1.15591E+04
  7.10508E+03  3.40951E+04 -3.11803E+04  3.46674E+04 -6.23726E+04  2.12721E+03 -5.62854E+04 -4.20212E+04
 -1.25490E+04 -6.16490E+04  3.88331E+04 -4.43995E+04  5.67855E+04 -2.09803E+03  3.29134E+04  3.12391E+04
 -6.13872E+03  3.43461E+04 -2.88506E+04  1.43438E+04 -2.87090E+04 -4.72066E+03 -1.56343E+04 -1.04960E+04
 -7.70917E+03 -1.21885E+04 -9.28289E+02 -1.70844E+04  6.85879E+03 -2.28997E+04  1.53761E+04 -1.36911E+04
  1.18378E+04  4.79036E+03 -7.05010E+03  1.31666E+04 -2.02600E+04 -3.23862E+03 -8.31768E+03 -3.16676E+04
  2.17008E+04 -4.17906E+04  4.62783E+04 -1.90797E+04  4.30335E+04  1.85376E+04  1.49806E+04  4.26957E+04
 -1.54987E+04  3.21039E+04 -2.40591E+04  1.67653E+03 -8.73793E+03 -2.67637E+04  2.07880E+04 -3.21996E+04
  3.91856E+04 -8.24725E+03  3.33294E+04  2.31435E+04  1.67173E+04  4.43092E+04 -7.93640E+03  4.71528E+04
 -2.97916E+04  3.17078E+04 -3.93454E+04  8.69036E+03 -4.01518E+04 -1.59770E+04 -2.20847E+04 -3.59777E+04
  7.06722E+03 -3.53671E+04  3.03307E+04 -1.36946E+04  2.79152E+04  1.06727E+04  3.30722E+03  1.82757E+04
 -1.32220E+04  7.67953E+03 -1.02441E+04 -7.69136E+03  6.34089E+03 -1.05699E+04  1.75200E+04  6.43091E+03
  1.27120E+04  2.17922E+04 -6.34001E+03  2.40074E+04 -2.16614E+04  9.89537E+03 -2.61718E+04 -5.76416E+03
 -1.81874E+04 -1.66690E+04 -6.87378E+03 -1.83451E+04  3.96637E+03 -1.67486E+04  1.38518E+04 -1.58383E+04
  2.32982E+04 -1.21403E+04  2.98993E+04  1.61846E+03  2.23908E+04  1.77859E+04  3.95438E+03  3.39904E+04
 -1.67186E+04  2.85649E+04 -2.67595E+04  1.00133E+04 -1.99376E+04 -1.02306E+04 -3.82976E+03 -1.38199E+04
  2.29248E+03 -3.79056E+03 -3.55168E+03  5.74178E+03 -1.43340E+04  5.23811E+03 -1.45418E+04 -5.77743E+03
 -9.16474E+03 -1.65461E+04  4.57687E+03 -2.08274E+04  1.36536E+04 -1.48379E+04  1.59323E+04 -1.65237E+03
  1.01255E+04  1.17113E+04 -9.36196E+02  1.70058E+04 -1.13123E+04  9.32123E+03 -1.65865E+04 -3.47701E+03
 -1.24621E+04 -1.53374E+04 -1.72778E+03 -2.03883E+04  9.41278E+03 -1.65747E+04  1.72352E+04 -8.14490E+03
  1.60101E+04  6.22676E+02  1.11630E+04  4.07644E+03  5.99858E+03  4.60700E+02  8.28125E+03 -1.46634E+03
  1.51550E+04  2.67555E+03  1.64251E+04  1.38640E+04  1.04448E+04  2.65838E+04 -3.07794E+03  2.95129E+04
 -1.72766E+04  2.27005E+04 -2.71262E+04  1.11822E+04 -2.78995E+04 -1.92267E+03 -2.38276E+04 -1.59809E+04
 -1.07422E+04 -2.30427E+04  7.86227E+03 -2.13299E+04  1.84208E+04 -1.14428E+04  1.71379E+04  4.31994E+03
  7.03051E+03  1.24072E+04 -7.72383E+03  1.10961E+04 -1.43145E+04  2.59581E+03 -1.11021E+04 -8.86968E+03
  8.47109E+00 -1.35153E+04  6.60877E+03 -1.01937E+04  8.43141E+03 -1.41359E+03  1.37599E+03  5.54226E+03
 -6.04091E+03  1.67595E+03 -4.23612E+03 -5.20417E+03  2.27850E+02 -1.16361E+04  8.26105E+03 -1.14942E+04
  1.35623E+04 -5.60441E+03  1.39998E+04  2.88780E+03  1.21688E+04  1.09044E+04  5.94415E+03  1.62671E+04
 -2.12123E+03  1.82312E+04 -1.11006E+04  1.13744E+04 -1.30298E+04  3.26727E+03 -9.52138E+03 -2.44105E+03
 -4.64875E+03 -3.96417E+03 -9.82584E+02  1.20297E+03 -1.95908E+03  1.99628E+03 -4.39940E+03  3.79923E+03
 -8.98217E+03 -3.80822E+02 -9.67188E+03 -8.05575E+03 -3.82057E+03 -1.26340E+04  3.75861E+03 -9.51464E+03
  7.66771E+03 -4.20702E+03  5.76041E+03  2.96172E+03  5.42042E+02  3.55768E+03 -3.99284E+03 -1.83828E+02
 -3.85906E+03 -6.24116E+03 -7.05757E+02 -8.17351E+03  4.88562E+03 -9.07935E+03  1.14472E+04 -4.57617E+03
  1.30635E+04  8.49230E+02  9.93473E+03  7.38928E+03  2.00831E+03  9.65538E+03 -5.82718E+03  9.44527E+03
 -7.81862E+03  3.23434E+03 -3.99510E+03 -1.43823E+03  1.40838E+03 -2.21418E+03  5.20500E+03 -1.01667E+03
  4.71621E+03  3.89190E+03  1.22299E+03  7.17735E+03 -5.15132E+03  7.14435E+03 -8.91788E+03  2.07010E+03
 -5.55625E+03 -4.19361E+03  5.74419E+02 -7.80179E+03  4.26344E+03 -3.90128E+03  3.91584E+03  1.40122E+03
  5.49985E+02  4.25635E+03 -4.62532E+03  5.59090E+03 -6.23116E+03  2.77522E+03 -5.74608E+03 -1.89658E+03
 -3.51902E+03 -7.29538E+03  1.50504E+03 -8.58369E+03  7.07923E+03 -5.38957E+03  7.49008E+03  1.09390E+03
  5.68373E+03  6.12369E+03 -2.74758E+02  8.26680E+03 -5.79298E+03  4.86191E+03 -6.33569E+03 -6.59502E+02
 -6.32394E+03 -5.80199E+03 -1.46532E+03 -5.81268E+03  2.82819E+03 -5.44486E+03  3.28685E+03 -3.04535E+03
  3.23677E+03  5.45444E+02 -3.89632E+01  1.39724E+03  5.29389E+02 -5.92294E+02  1.52352E+02 -2.34327E+03
  5.25757E+03 -1.25436E+03  6.68194E+03  8.84446E+02  6.80501E+03  3.71880E+03  6.08549E+03  8.67493E+03
 -1.88242E+03  1.03771E+04 -8.88916E+03  7.97817E+03 -1.15719E+04  1.42591E+03 -9.04335E+03 -3.30442E+03
 -4.89674E+03 -7.74184E+03 -2.47752E+02 -6.16663E+03  2.21877E+03 -2.73763E+03  2.11273E+03 -2.82939E+03
  1.39222E+03 -1.90458E+03  2.52558E+03 -2.69877E+03  3.69617E+03 -1.41036E+03  4.21757E+03  4.20984E+02
  5.01467E+03  1.38733E+03  1.54083E+03  4.09306E+03 -1.58068E+03  3.59070E+03 -5.33745E+03  3.21794E+03
 -5.86934E+03 -1.16351E+03 -2.55462E+03 -3.90322E+03  3.78611E+02 -6.27253E+03  3.56563E+03 -6.67603E+03
  6.32564E+03 -3.88547E+03  8.16857E+03  4.63266E+02  5.81890E+03  5.08065E+03  1.26047E+03  7.24179E+03
 -2.89568E+03  6.52674E+03 -4.22660E+03  2.33653E+03 -2.25168E+03 -1.06622E+03 -9.43643E+02 -7.88782E+02
 -9.01153E+02  3.58431E+02 -1.20287E+03  2.36229E+03 -3.04914E+03  1.19872E+03 -4.96554E+03 -4.40421E+02
 -2.06963E+03 -4.64588E+03  9.31983E+02 -5.59911E+03  3.27998E+03 -5.27756E+03  4.68924E+03 -1.29291E+03
  5.09569E+03  2.87661E+03  2.31642E+03  4.11296E+03 -1.08579E+03  5.31943E+03 -3.32260E+03  3.22150E+03
 -5.02503E+03  7.04793E+02 -3.91926E+03 -2.94077E+03 -4.10312E+02 -4.09919E+03  1.95594E+03 -3.12306E+03
  3.39016E+03 -1.42756E+03  1.94163E+03  3.50639E+02  3.73596E+02  1.78676E+03  1.06972E+03  8.45427E+02
  1.67880E+03  7.70663E+02  1.66157E+03  9.14208E+02  1.23905E+03  2.60613E+03  1.68475E+03  2.21180E+03
 -1.64055E+03  3.80809E+03 -3.26265E+03  4.87276E+03 -4.11844E+03  1.29983E+03 -5.31523E+03 -9.89421E+02
 -2.45257E+03 -5.03294E+03  9.09753E+02 -5.88489E+03  2.94802E+03 -3.44684E+03  3.84278E+03 -1.11297E+03
  3.33041E+03  2.12306E+03  3.88160E+02  2.87156E+03 -1.04127E+03  1.56334E+03 -1.54548E+03 -1.92232E+02
 -6.34294E+02 -1.78100E+03  1.22252E+03 -1.92499E+03  1.57625E+03 -1.43591E+03  1.77311E+03  4.29628E+02
  1.05600E+03  3.51374E+02  8.02481E+02  2.98209E+02 -2.35795E+02  9.88255E+02  1.46887E+03 -1.41556E+02
 -1.32854E+01 -4.11474E+02  2.11221E+03  5.71680E+02  3.71593E+02  2.71497E+03 -5.33555E+02  3.77002E+03
 -2.25784E+03  1.64840E+03 -2.82644E+03  5.60298E+02 -2.72254E+03 -1.25201E+03 -3.75120E+02 -1.39930E+03
  6.95566E+02 -1.30692E+03  1.07478E+03 -1.13096E+03  5.18729E+02  1.15534E+03 -7.56165E+02  1.74240E+03
 -1.89619E+03  9.42583E+02 -1.83981E+03 -1.66415E+03 -8.59317E+02 -2.78540E+03  4.42649E+02 -2.20595E+03
  8.27472E+02 -8.84422E+02  1.19877E+03  3.99261E+01  1.53960E+03  2.17702E+02  2.04878E+02  1.40407E+03
 -2.93929E+02  1.64376E+02 -1.19536E+03 -1.80958E+02  6.82272E+02 -1.09457E+03  2.17886E+03 -1.28339E+03
  1.96361E+03  3.62155E+02  3.20369E+03  1.04433E+03  1.38007E+03  2.08654E+03 -4.48153E+02  2.38545E+03
 -1.90610E+03  4.86037E+02 -2.06469E+03 -2.32632E+02 -1.03346E+03 -1.61572E+03  2.96281E+02 -8.97480E+02
  1.71928E+03 -6.67037E+02  1.13171E+03  9.04329E+02  3.78623E+02  1.40709E+03  7.20179E+01  1.32805E+03
 -2.77884E+02  1.44583E+03 -7.07395E+02  2.39022E+02 -1.76419E+02  6.31032E+02 -9.03024E+02  5.86814E+02
 -5.47417E+02  9.31533E+02 -2.24323E+03  6.36849E+02 -2.47982E+03  5.32178E+01 -2.71353E+03 -1.61160E+03
 -1.41432E+03 -3.17772E+03  5.43151E+02 -3.71671E+03  1.67956E+03 -3.10242E+03  3.40817E+03 -1.17829E+03
  2.84037E+03  6.88231E+01  1.47817E+03  2.06867E+03 -6.42339E+02  1.87303E+03 -8.67037E+02  1.86975E+03
 -1.29165E+03  7.65221E+02 -5.33233E+02 -4.81478E+02 -4.13946E+02  2.92278E+01 -3.32059E+02  2.69764E+02
 -1.04706E+03 -2.73873E+02 -1.00740E+03  3.66509E+02  2.40681E+01 -3.95023E+02 -4.93410E+02 -1.23594E+03
  1.53281E+03 -5.17493E+02  8.24572E+02  2.14146E+02  1.29493E+03  1.39628E+03 -2.45208E+02  1.86947E+03
 -1.19083E+03  2.70265E+03 -2.08624E+03  1.52922E+03 -2.27775E+03 -2.02458E+02 -1.79917E+03 -1.64501E+03
 -1.16309E+03 -2.06469E+03  4.69891E+02 -1.90241E+03  8.79587E+02 -6.38152E+02  1.28008E+03  1.38042E+02
  9.69622E+02  7.54605E+02  7.63202E+01  6.50339E+02 -4.28053E+02 -1.99970E+01 -2.92523E+02 -2.04710E+02
  5.48188E+02 -3.56056E+01  5.00679E+02  2.29291E+02 -1.32373E+00  7.42545E+02  3.68127E+02  5.83574E+02
 -9.16341E+02  9.96684E+02 -1.09523E+03 -1.68912E+02 -1.23096E+03 -7.52426E+02 -9.92633E+01 -1.71129E+03
  6.00566E+02 -1.42320E+03  8.07650E+02 -3.08592E+02  1.36947E+03 -3.47836E+02  5.18227E+02  9.06704E+02
  7.72738E+02  4.57707E+02 -3.52845E+02  8.44471E+02 -8.02244E+02  9.32032E+02 -3.65290E+02  1.91699E+02
 -4.15917E+02 -2.86782E+02 -7.13959E+02  4.49953E+02 -6.42928E+02  1.64589E+02 -1.23774E+03 -1.37006E+02
 -1.06940E+03  1.10789E+02 -6.48846E+02 -1.16219E+03  1.05294E+03 -1.98638E+03  1.30992E+03 -7.07349E+02
  9.41221E+02  1.78379E+02 -1.74790E+02  8.33665E+02 -3.94020E+02  1.35331E+03 -6.58611E+02  8.45063E+02
