 $NMID ID='MM_0lb_SNR800_12hz_g50_100.RAW', FMTDAT='(8E13.5)'
 TRAMP=1., VOLUME=1. $END
  3.09640E+05  3.61634E+02  3.37573E+05  2.50815E+05  8.48129E+04  3.38383E+05 -1.32833E+05  2.51483E+05
 -1.90497E+05  8.37416E+04 -1.12342E+05 -3.25276E+04  8.82151E+02 -5.02305E+04  5.36130E+04 -1.33269E+02
  3.53469E+04  5.28268E+04 -1.70002E+04  7.60830E+04 -6.07425E+04  6.38525E+04 -8.47058E+04  3.20165E+04
 -8.18004E+04 -1.16690E+04 -5.73294E+04 -5.19825E+04 -1.51625E+04 -7.03036E+04  2.78505E+04 -4.64113E+04
  4.08378E+04  4.13804E+03  1.64741E+04  4.82367E+04 -3.43506E+04  4.77396E+04 -6.72443E+04 -8.96839E+01
 -5.40664E+04 -5.68250E+04 -6.81602E+03 -7.80202E+04  3.42984E+04 -5.58470E+04  4.87540E+04 -1.77300E+04
  4.38492E+04  1.16541E+04  3.23227E+04  2.63708E+04  1.58451E+04  3.00667E+04 -5.63552E+03  2.75485E+04
 -2.23190E+04  1.19951E+04 -1.83781E+04 -5.26383E+03  6.10951E+03 -7.13312E+03  2.30437E+04  1.26502E+04
  7.26791E+03  3.61393E+04 -3.28108E+04  3.62430E+04 -6.43591E+04  1.95874E+03 -5.76909E+04 -4.34586E+04
 -1.24737E+04 -6.43278E+04  4.03917E+04 -4.63258E+04  5.94776E+04 -2.08608E+03  3.52571E+04  3.30813E+04
 -5.66144E+03  3.74494E+04 -3.04559E+04  1.71801E+04 -3.10117E+04 -4.25988E+03 -1.79029E+04 -1.14567E+04
 -8.64852E+03 -1.40287E+04 -4.94509E+02 -1.87725E+04  7.96371E+03 -2.31992E+04  1.56265E+04 -1.25522E+04
  1.05666E+04  5.66836E+03 -9.23357E+03  1.29346E+04 -2.21870E+04 -5.29451E+03 -8.40988E+03 -3.51888E+04
  2.38515E+04 -4.50327E+04  4.99960E+04 -2.08788E+04  4.67921E+04  1.99807E+04  1.61844E+04  4.52096E+04
 -1.64547E+04  3.45466E+04 -2.61762E+04  2.26031E+03 -1.06075E+04 -2.83269E+04  2.08201E+04 -3.51038E+04
  4.25462E+04 -1.00437E+04  3.72465E+04  2.42919E+04  1.92680E+04  4.83117E+04 -7.82364E+03  5.23779E+04
 -3.30984E+04  3.54050E+04 -4.41546E+04  1.02697E+04 -4.44955E+04 -1.74167E+04 -2.46712E+04 -3.98493E+04
  7.12837E+03 -3.94345E+04  3.26291E+04 -1.56343E+04  3.04706E+04  1.09858E+04  4.56890E+03  1.98405E+04
 -1.37307E+04  8.87821E+03 -1.09196E+04 -7.49138E+03  5.76994E+03 -1.10877E+04  1.85661E+04  6.17503E+03
  1.39778E+04  2.23543E+04 -5.67035E+03  2.59101E+04 -2.24736E+04  1.28808E+04 -2.99052E+04 -4.11982E+03
 -2.21983E+04 -1.78297E+04 -9.81068E+03 -2.24783E+04  4.04510E+03 -2.21543E+04  1.73842E+04 -2.07485E+04
  2.86271E+04 -1.34006E+04  3.52162E+04  3.57263E+03  2.51749E+04  2.16128E+04  4.37295E+03  3.85936E+04
 -1.85244E+04  3.17995E+04 -2.90355E+04  1.12782E+04 -2.12437E+04 -1.05033E+04 -4.71187E+03 -1.31529E+04
  1.23732E+03 -2.22723E+03 -5.71432E+03  7.24051E+03 -1.79357E+04  5.22217E+03 -1.77497E+04 -8.04148E+03
 -1.10804E+04 -2.04844E+04  5.52422E+03 -2.45592E+04  1.67658E+04 -1.76949E+04  2.00573E+04 -1.44570E+03
  1.26181E+04  1.43390E+04 -1.11560E+03  2.06020E+04 -1.47048E+04  1.20254E+04 -2.06801E+04 -4.07485E+03
 -1.52665E+04 -1.88683E+04 -2.12578E+03 -2.48687E+04  1.09398E+04 -2.06273E+04  2.05103E+04 -1.01401E+04
  1.95887E+04 -2.12416E+02  1.40187E+04  4.77410E+03  7.58982E+03  1.28984E+03  1.07867E+04 -1.81174E+03
  1.93997E+04  2.86686E+03  2.16419E+04  1.61406E+04  1.45718E+04  3.35397E+04 -2.80702E+03  3.78266E+04
 -2.17324E+04  3.12201E+04 -3.58230E+04  1.60018E+04 -3.76542E+04 -2.69475E+03 -3.09765E+04 -2.22799E+04
 -1.30919E+04 -3.14532E+04  1.08770E+04 -2.77051E+04  2.40002E+04 -1.35228E+04  2.14531E+04  5.97137E+03
  7.78950E+03  1.60743E+04 -1.01403E+04  1.34654E+04 -1.78134E+04  2.70892E+03 -1.35198E+04 -1.12883E+04
 -4.35514E+02 -1.67163E+04  8.82473E+03 -1.26778E+04  1.17336E+04 -1.13445E+03  2.73114E+03  7.48627E+03
 -7.56275E+03  2.93219E+03 -7.18660E+03 -6.12743E+03 -4.88395E+02 -1.49832E+04  1.05971E+04 -1.64127E+04
  1.89401E+04 -8.80921E+03  2.08622E+04  3.32381E+03  1.84159E+04  1.52627E+04  8.49216E+03  2.39220E+04
 -4.25402E+03  2.58386E+04 -1.67071E+04  1.58230E+04 -1.82943E+04  3.52325E+03 -1.29112E+04 -4.50675E+03
 -5.61334E+03 -5.84127E+03 -6.63202E+02  1.00422E+03 -2.68113E+03  2.70439E+03 -6.16914E+03  4.85632E+03
 -1.16948E+04 -7.40796E+02 -1.27917E+04 -1.00770E+04 -5.04875E+03 -1.64474E+04  5.57298E+03 -1.31158E+04
  1.09156E+04 -5.06078E+03  7.71535E+03  3.76012E+03 -1.18226E+02  5.08954E+03 -6.07818E+03 -4.23477E+01
 -6.09686E+03 -8.23286E+03 -8.83495E+02 -1.23846E+04  7.19534E+03 -1.34464E+04  1.61116E+04 -7.30743E+03
  1.89191E+04  1.49298E+03  1.40839E+04  1.14473E+04  2.44520E+03  1.51240E+04 -7.80159E+03  1.27260E+04
 -1.03495E+04  4.01738E+03 -5.30831E+03 -2.89685E+03  1.88519E+03 -3.50267E+03  6.69376E+03 -1.23158E+03
  6.20987E+03  5.45159E+03  1.12594E+03  1.01030E+04 -7.63446E+03  9.80222E+03 -1.25425E+04  2.44715E+03
 -8.67509E+03 -6.43715E+03  2.26266E+02 -1.06090E+04  6.70778E+03 -5.52727E+03  7.21927E+03  2.47370E+03
  1.66832E+03  7.40286E+03 -6.65868E+03  8.56950E+03 -1.02823E+04  4.25558E+03 -1.01447E+04 -3.46247E+03
 -6.15482E+03 -1.20403E+04  3.00831E+03 -1.35958E+04  1.16182E+04 -8.27338E+03  1.28371E+04  2.21429E+03
  8.10907E+03  1.03706E+04 -8.46374E+02  1.24730E+04 -9.37141E+03  7.22604E+03 -9.88665E+03 -7.19968E+02
 -8.64035E+03 -8.47060E+03 -1.49689E+03 -9.15856E+03  5.03969E+03 -7.49128E+03  5.67178E+03 -3.48531E+03
  4.04192E+03  1.35364E+03 -7.66948E+02  1.78012E+03  4.68590E+01 -1.97305E+03  1.73918E+03 -5.18540E+03
  8.60658E+03 -3.56325E+03  1.19857E+04  1.45186E+03  1.15856E+04  7.87258E+03  8.14449E+03  1.55776E+04
 -3.59270E+03  1.79621E+04 -1.49059E+04  1.28347E+04 -1.96735E+04  2.64892E+03 -1.53686E+04 -6.64510E+03
 -8.10408E+03 -1.26561E+04 -4.44001E+02 -1.07628E+04  3.69730E+03 -5.83537E+03  4.13213E+03 -3.85175E+03
  2.66873E+03 -2.44125E+03  3.03765E+03 -3.31557E+03  4.80358E+03 -2.70487E+03  6.19968E+03 -4.87319E+02
  8.27246E+03  1.83142E+03  3.86749E+03  7.07962E+03 -1.80522E+03  7.83576E+03 -8.54128E+03  6.39952E+03
 -1.06429E+04 -1.13989E+03 -6.28096E+03 -7.62861E+03 -7.23676E+02 -1.12244E+04  6.84216E+03 -1.14916E+04
  1.16250E+04 -6.64328E+03  1.45446E+04  1.34376E+03  9.51503E+03  9.67300E+03  1.77141E+03  1.29439E+04
 -5.35204E+03  1.08610E+04 -7.43718E+03  3.66791E+03 -5.28142E+03 -1.47417E+03 -2.02502E+03 -1.43091E+03
 -8.33453E+02  9.98065E+01 -1.85592E+03  2.37700E+03 -4.84647E+03  1.97632E+03 -7.89125E+03 -1.25677E+03
 -5.02877E+03 -7.65675E+03  9.39893E+01 -1.07480E+04  6.52324E+03 -9.67344E+03  1.01126E+04 -2.99176E+03
  1.03451E+04  5.19775E+03  4.41432E+03  8.75526E+03 -1.99147E+03  1.07966E+04 -7.29799E+03  6.45426E+03
 -9.66590E+03  5.44811E+02 -7.63353E+03 -6.32813E+03 -5.23790E+02 -8.05248E+03  4.38625E+03 -6.60733E+03
  6.73078E+03 -1.99020E+03  4.60585E+03  1.75973E+03  1.15671E+03  3.23934E+03  1.13418E+03  1.36873E+03
  2.59991E+03  7.02266E+02  2.64273E+03  1.35477E+03  2.94419E+03  3.61988E+03  2.63246E+03  5.30940E+03
 -2.34388E+03  7.75176E+03 -7.42027E+03  8.43046E+03 -9.81204E+03  2.32087E+03 -1.04388E+04 -3.53213E+03
 -4.95034E+03 -9.96615E+03  1.39729E+03 -1.10040E+04  5.94907E+03 -6.97167E+03  8.61337E+03 -1.88945E+03
  6.56001E+03  4.23123E+03  1.61547E+03  5.80182E+03 -2.88765E+03  3.59960E+03 -4.22615E+03 -6.52455E+02
 -1.69746E+03 -4.30770E+03  2.56609E+03 -4.50352E+03  4.04735E+03 -1.76768E+03  3.91378E+03  7.20261E+02
  2.34142E+03  1.67582E+03  1.16145E+03  1.27187E+03 -5.42743E+02  1.27676E+03  1.92827E+03 -4.02848E+02
  1.62547E+03 -6.62400E+02  3.97031E+03  1.64642E+03  2.25834E+03  5.35685E+03 -9.70430E+02  7.28726E+03
 -4.79881E+03  4.28503E+03 -6.44062E+03  8.64544E+02 -5.85008E+03 -2.11810E+03 -1.71657E+03 -3.51485E+03
  5.75094E+02 -3.49622E+03  2.67317E+03 -1.75507E+03  2.15626E+03  2.68867E+03 -9.01209E+02  3.09808E+03
 -3.92469E+03  1.79241E+03 -4.40723E+03 -2.36674E+03 -2.26422E+03 -5.40619E+03  5.32849E+02 -5.60798E+03
  3.08110E+03 -2.79518E+03  4.14584E+03 -3.31532E+02  3.23425E+03  1.04744E+03  5.65902E+02  3.05618E+03
 -1.98537E+03  9.26559E+02 -2.48438E+03 -1.32886E+03  1.08372E+03 -3.75040E+03  5.04112E+03 -2.77467E+03
  5.60790E+03  6.61642E+02  6.35168E+03  3.65383E+03  1.93133E+03  5.95740E+03 -2.08217E+03  5.71858E+03
 -5.08533E+03  2.47300E+03 -5.24523E+03 -5.95171E+02 -2.88614E+03 -3.92889E+03  1.04189E+03 -3.55507E+03
  3.82224E+03 -1.92747E+03  3.11839E+03  1.65928E+03  8.06310E+02  3.60321E+03  2.23899E+01  3.04609E+03
 -1.25178E+03  2.13429E+03 -1.39346E+03  7.44640E+02 -5.15317E+02  6.65138E+02 -9.02664E+02  1.42127E+03
 -1.46758E+03  2.38731E+03 -4.05969E+03  2.20725E+03 -5.76339E+03  3.07001E+01 -6.68996E+03 -3.55455E+03
 -3.45618E+03 -8.07098E+03  1.70151E+03 -9.17341E+03  5.30861E+03 -7.25976E+03  8.84197E+03 -2.70460E+03
  8.00622E+03  1.20678E+03  4.56056E+03  5.41535E+03 -2.12392E+00  6.06035E+03 -2.33667E+03  4.16789E+03
 -3.43451E+03  1.75362E+03 -2.19019E+03 -9.00086E+02 -8.57472E+02 -3.64918E+02 -2.98500E+02  4.01382E+01
 -1.70144E+03  4.45416E+01 -1.44600E+03 -2.92732E+02 -5.43828E+02 -1.93321E+03  1.11917E+02 -2.34789E+03
  2.87704E+03 -2.14363E+03  3.48035E+03 -1.45663E+02  4.02690E+03  3.35415E+03  5.60045E+02  6.04308E+03
 -2.77262E+03  6.74939E+03 -6.46107E+03  4.28222E+03 -7.20818E+03 -5.46076E+02 -5.51159E+03 -4.35452E+03
 -2.23507E+03 -5.82793E+03  1.50563E+03 -5.63761E+03  3.50869E+03 -2.71821E+03  3.85928E+03  1.76994E+02
  2.07204E+03  1.93397E+03 -2.90607E+02  1.52601E+03 -1.06970E+03 -9.53319E+01  1.69378E+02 -1.52525E+03
  1.75163E+03 -4.75919E+02  2.49129E+03  8.11151E+02  1.58871E+03  2.49064E+03  2.61623E+02  2.94588E+03
 -2.31213E+03  2.85998E+03 -3.82428E+03  3.06023E+02 -3.31741E+03 -3.00114E+03 -7.73103E+02 -4.56926E+03
  2.60123E+03 -3.92795E+03  4.15135E+03 -9.82622E+02  4.00032E+03  7.20305E+02  2.55666E+03  3.34224E+03
  7.31224E+02  3.58571E+03 -1.28855E+03  2.51430E+03 -2.51417E+03  1.79596E+03 -1.60298E+03  5.45470E+02
 -9.61256E+02 -1.82233E+02 -1.18510E+03  1.03842E+03 -1.77112E+03  7.68100E+02 -2.95362E+03 -4.24578E+02
 -2.89495E+03 -1.66601E+03 -7.73345E+02 -3.91557E+03  1.87093E+03 -4.46681E+03  3.23615E+03 -1.93048E+03
  3.39809E+03  4.89809E+02  1.72569E+03  2.55767E+03 -3.17773E+02  3.60325E+03 -2.64304E+03  2.45198E+03
