 $NMID ID='MM_0lb_SNR800_8hz_g55_9.RAW', FMTDAT='(8E13.5)'
 TRAMP=1., VOLUME=1. $END
  3.09557E+05  7.73523E+02  3.37559E+05  2.50813E+05  8.49025E+04  3.38861E+05 -1.32792E+05  2.52399E+05
 -1.91056E+05  8.36117E+04 -1.12901E+05 -3.24954E+04 -5.85864E+01 -5.06455E+04  5.35163E+04 -4.75372E+02
  3.55838E+04  5.29369E+04 -1.64481E+04  7.64610E+04 -6.14900E+04  6.50703E+04 -8.58602E+04  3.29191E+04
 -8.29224E+04 -1.18912E+04 -5.85524E+04 -5.30770E+04 -1.52556E+04 -7.12414E+04  2.83675E+04 -4.71815E+04
  4.18871E+04  3.40609E+03  1.69062E+04  4.88438E+04 -3.49695E+04  4.85380E+04 -6.81439E+04  1.88086E+02
 -5.50618E+04 -5.77414E+04 -7.87632E+03 -7.94250E+04  3.52972E+04 -5.75189E+04  4.98735E+04 -1.81376E+04
  4.59471E+04  1.17229E+04  3.35303E+04  2.68133E+04  1.57091E+04  3.11850E+04 -5.79730E+03  2.80554E+04
 -2.25333E+04  1.16638E+04 -1.77900E+04 -6.11208E+03  7.56004E+03 -7.33696E+03  2.37118E+04  1.40914E+04
  7.01094E+03  3.81502E+04 -3.47313E+04  3.74065E+04 -6.63353E+04  1.99197E+03 -5.91660E+04 -4.55817E+04
 -1.22512E+04 -6.68044E+04  4.21363E+04 -4.83451E+04  6.20113E+04 -2.41051E+03  3.72762E+04  3.47746E+04
 -5.48005E+03  4.03544E+04 -3.25088E+04  1.97177E+04 -3.42719E+04 -3.17963E+03 -2.02974E+04 -1.23896E+04
 -9.84711E+03 -1.56837E+04 -1.82456E+02 -2.02647E+04  8.96628E+03 -2.36589E+04  1.60743E+04 -1.25362E+04
  9.82490E+03  6.34785E+03 -1.11526E+04  1.27724E+04 -2.42884E+04 -7.30787E+03 -8.43745E+03 -3.84102E+04
  2.57431E+04 -4.79923E+04  5.28773E+04 -2.12084E+04  5.00064E+04  2.14125E+04  1.77775E+04  4.80936E+04
 -1.69530E+04  3.74017E+04 -2.82515E+04  2.70511E+03 -1.21023E+04 -3.01035E+04  2.19716E+04 -3.79119E+04
  4.54044E+04 -1.15805E+04  4.18517E+04  2.54136E+04  2.23082E+04  5.22284E+04 -8.33040E+03  5.77290E+04
 -3.65593E+04  3.92755E+04 -4.88237E+04  1.16473E+04 -4.93502E+04 -1.93292E+04 -2.66620E+04 -4.33139E+04
  8.28216E+03 -4.30294E+04  3.52917E+04 -1.76893E+04  3.31178E+04  1.13611E+04  5.83240E+03  2.12341E+04
 -1.41323E+04  1.00500E+04 -1.16587E+04 -7.36964E+03  5.52540E+03 -1.17790E+04  1.88816E+04  5.57692E+03
  1.50392E+04  2.27679E+04 -5.36423E+03  2.77635E+04 -2.34834E+04  1.50253E+04 -3.26639E+04 -2.27287E+03
 -2.63736E+04 -1.83718E+04 -1.23530E+04 -2.61511E+04  4.69632E+03 -2.80797E+04  2.10614E+04 -2.41317E+04
  3.40566E+04 -1.47844E+04  3.97656E+04  5.82299E+03  2.80461E+04  2.53938E+04  5.10303E+03  4.27071E+04
 -2.03287E+04  3.47752E+04 -3.12839E+04  1.19676E+04 -2.25749E+04 -1.03127E+04 -5.17116E+03 -1.23940E+04
  2.20918E+02 -8.77455E+02 -8.36514E+03  8.86624E+03 -2.14630E+04  5.24744E+03 -2.18554E+04 -1.03457E+04
 -1.24469E+04 -2.50779E+04  6.41393E+03 -2.87072E+04  1.96689E+04 -2.06846E+04  2.40692E+04 -1.83746E+03
  1.58161E+04  1.72309E+04 -1.39645E+03  2.46112E+04 -1.72674E+04  1.40393E+04 -2.49576E+04 -5.07181E+03
 -1.82095E+04 -2.23490E+04 -2.61794E+03 -2.93556E+04  1.37323E+04 -2.51384E+04  2.46311E+04 -1.28279E+04
  2.31185E+04 -2.28208E+02  1.73497E+04  5.34796E+03  9.44208E+03  1.90233E+03  1.28466E+04 -1.98470E+03
  2.28963E+04  2.80682E+03  2.73321E+04  1.90286E+04  1.88120E+04  3.97709E+04 -2.95361E+03  4.76525E+04
 -2.72612E+04  3.95544E+04 -4.48341E+04  2.06931E+04 -4.81196E+04 -3.42497E+03 -3.85191E+04 -2.84437E+04
 -1.50591E+04 -4.02716E+04  1.47331E+04 -3.52282E+04  3.00663E+04 -1.62365E+04  2.59179E+04  8.66138E+03
  9.13920E+03  2.05095E+04 -1.22971E+04  1.66927E+04 -2.13927E+04  2.42619E+03 -1.63925E+04 -1.36676E+04
 -4.33800E+02 -2.01648E+04  1.09853E+04 -1.52586E+04  1.49481E+04 -9.51486E+02  3.87546E+03  9.43852E+03
 -9.75262E+03  4.34904E+03 -1.05702E+04 -7.52756E+03 -2.18904E+03 -1.99012E+04  1.26457E+04 -2.22198E+04
  2.51027E+04 -1.25584E+04  2.86927E+04  3.18541E+03  2.52041E+04  2.00381E+04  1.20260E+04  3.20275E+04
 -6.69051E+03  3.39628E+04 -2.23042E+04  2.11681E+04 -2.42969E+04  3.96928E+03 -1.67086E+04 -6.85895E+03
 -6.77167E+03 -8.04087E+03 -9.54418E+01  4.63863E+02 -2.83944E+03  3.86208E+03 -8.16186E+03  5.75496E+03
 -1.54364E+04 -1.33056E+03 -1.56544E+04 -1.23928E+04 -6.30193E+03 -2.08841E+04  7.17582E+03 -1.71000E+04
  1.38396E+04 -6.96309E+03  9.70158E+03  4.61757E+03 -7.21893E+02  6.42058E+03 -8.98578E+03  4.71508E+01
 -8.63535E+03 -1.09609E+04 -9.89309E+02 -1.70625E+04  1.02998E+04 -1.78478E+04  2.20471E+04 -9.62601E+03
  2.59220E+04  2.97741E+03  1.86420E+04  1.60070E+04  3.54236E+03  2.12843E+04 -1.08059E+04  1.71289E+04
 -1.41198E+04  4.55637E+03 -7.25186E+03 -4.04648E+03  2.40862E+03 -5.04044E+03  9.23910E+03 -7.00933E+02
  8.28195E+03  7.75552E+03  1.14040E+03  1.36833E+04 -9.76498E+03  1.32186E+04 -1.71140E+04  2.69265E+03
 -1.19169E+04 -9.27934E+03 -1.19068E+02 -1.48743E+04  1.00947E+04 -7.39069E+03  1.07212E+04  4.14533E+03
  2.40401E+03  1.11619E+04 -9.03530E+03  1.26162E+04 -1.51067E+04  5.40066E+03 -1.62481E+04 -6.02069E+03
 -8.91836E+03 -1.82541E+04  4.92893E+03 -2.01823E+04  1.76535E+04 -1.21657E+04  1.89674E+04  3.33912E+03
  1.08225E+04  1.50734E+04 -1.98477E+03  1.79425E+04 -1.32113E+04  9.84342E+03 -1.45133E+04 -1.66905E+03
 -1.14845E+04 -1.14150E+04 -1.75536E+03 -1.39351E+04  7.61631E+03 -1.06331E+04  8.90580E+03 -3.89227E+03
  5.20448E+03  2.51387E+03 -1.33835E+03  2.34554E+03 -1.19183E+03 -4.26120E+03  3.03639E+03 -8.65345E+03
  1.30749E+04 -5.71635E+03  1.82750E+04  1.88423E+03  1.80024E+04  1.24890E+04  1.15990E+04  2.34690E+04
 -5.57458E+03  2.71948E+04 -2.23196E+04  2.03278E+04 -2.90417E+04  3.95008E+03 -2.36640E+04 -1.05493E+04
 -1.18220E+04 -1.93123E+04 -3.73706E+02 -1.66491E+04  6.24704E+03 -9.63461E+03  6.27303E+03 -5.68913E+03
  4.52884E+03 -3.37254E+03  4.19674E+03 -4.61022E+03  6.52381E+03 -4.10325E+03  8.67239E+03 -1.66248E+03
  1.20984E+04  2.58654E+03  6.95422E+03  1.02643E+04 -2.12965E+03  1.33362E+04 -1.27201E+04  1.00936E+04
 -1.70394E+04 -1.31935E+03 -1.12647E+04 -1.17737E+04 -1.58766E+03 -1.81629E+04  9.76035E+03 -1.81131E+04
  1.88759E+04 -9.81006E+03  2.27198E+04  3.04766E+03  1.57463E+04  1.58310E+04  2.31526E+03  2.06657E+04
 -8.66803E+03  1.61857E+04 -1.19936E+04  6.21514E+03 -8.88913E+03 -1.66689E+03 -3.78925E+03 -2.63952E+03
 -1.59477E+03 -2.17389E+02 -2.67071E+03  3.44616E+03 -6.91628E+03  2.86908E+03 -1.14539E+04 -1.88404E+03
 -9.06431E+03 -1.12555E+04 -6.95221E+01 -1.71756E+04  1.00561E+04 -1.54777E+04  1.69585E+04 -4.85084E+03
  1.65250E+04  8.60869E+03  8.12814E+03  1.55832E+04 -3.58112E+03  1.70724E+04 -1.27837E+04  1.11739E+04
 -1.70067E+04  3.77754E+02 -1.24130E+04 -1.06018E+04 -1.34964E+03 -1.44012E+04  7.59585E+03 -1.04553E+04
  1.09017E+04 -3.24756E+03  7.54845E+03  3.38119E+03  2.82110E+03  5.33660E+03  1.90797E+03  2.39246E+03
  3.36941E+03  9.71557E+02  4.11350E+03  1.36183E+03  5.22106E+03  5.40442E+03  4.40193E+03  9.27944E+03
 -3.44392E+03  1.38179E+04 -1.25757E+04  1.36349E+04 -1.81285E+04  3.42926E+03 -1.84627E+04 -8.12853E+03
 -9.06923E+03 -1.80910E+04  2.40600E+03 -1.92766E+04  1.06868E+04 -1.22184E+04  1.45086E+04 -3.09590E+03
  1.15896E+04  6.73642E+03  2.71964E+03  1.03089E+04 -4.95442E+03  6.61687E+03 -7.55801E+03 -9.79201E+02
 -3.20713E+03 -7.58634E+03  3.95736E+03 -7.93342E+03  7.66309E+03 -3.08315E+03  7.53249E+03  2.08065E+03
  4.33514E+03  3.63901E+03  2.01445E+03  3.33281E+03 -1.05757E+03  2.16074E+03  1.74240E+03 -9.95999E+02
  3.33462E+03 -8.38639E+02  7.39264E+03  3.17566E+03  4.26300E+03  9.82351E+03 -1.15776E+03  1.24553E+04
 -8.42193E+03  8.41755E+03 -1.20089E+04  2.08308E+03 -9.78563E+03 -3.88819E+03 -4.38331E+03 -7.33928E+03
  1.07253E+03 -6.85743E+03  4.89340E+03 -3.65939E+03  3.37094E+03  3.10511E+03 -1.60293E+03  5.93518E+03
 -7.65951E+03  3.90361E+03 -8.88503E+03 -3.83027E+03 -5.20212E+03 -9.51246E+03  1.51307E+03 -1.04327E+04
  6.07387E+03 -6.47934E+03  7.02724E+03 -1.24157E+03  6.03351E+03  2.72342E+03  7.89794E+02  5.24091E+03
 -3.57846E+03  1.96714E+03 -4.38043E+03 -3.90098E+03  1.65269E+03 -7.89791E+03  9.12427E+03 -6.61645E+03
  1.16500E+04  6.20270E+02  1.09698E+04  8.22886E+03  3.68443E+03  1.26976E+04 -4.24213E+03  1.12647E+04
 -9.90655E+03  5.12469E+03 -1.08549E+04 -1.85226E+03 -6.10609E+03 -7.84840E+03  1.75028E+03 -8.07205E+03
  7.22594E+03 -3.40447E+03  6.39790E+03  3.35654E+03  2.14364E+03  6.84362E+03 -1.69666E+03  5.80507E+03
 -3.13236E+03  4.01626E+03 -2.78563E+03  1.42459E+03 -1.20061E+03  1.51932E+03 -1.98375E+03  2.27242E+03
 -2.67553E+03  4.80302E+03 -8.24516E+03  4.24883E+03 -1.24781E+04  4.71511E+02 -1.36684E+04 -8.11826E+03
 -6.87566E+03 -1.60616E+04  3.11851E+03 -1.88544E+04  1.13563E+04 -1.48695E+04  1.82963E+04 -5.56660E+03
  1.69582E+04  3.81157E+03  1.03239E+04  1.14315E+04  8.43367E+02  1.30591E+04 -4.72608E+03  9.75298E+03
 -7.29315E+03  3.41879E+03 -4.37762E+03 -1.27957E+03 -1.63158E+03 -1.00988E+03 -6.55536E+02 -4.51959E+02
 -1.77208E+03  2.40072E+02 -2.86145E+03 -5.37201E+02 -9.50443E+02 -2.88976E+03  3.70267E+02 -4.27285E+03
  6.01980E+03 -4.56814E+03  8.45807E+03  6.28830E+01  8.80338E+03  6.62553E+03  2.62275E+03  1.32389E+04
 -6.11901E+03  1.46788E+04 -1.36676E+04  9.01129E+03 -1.55619E+04 -1.42340E+03 -1.19916E+04 -1.00754E+04
 -5.08449E+03 -1.29967E+04  3.21591E+03 -1.23325E+04  8.39392E+03 -6.85394E+03  8.67863E+03  4.69143E+02
  4.62878E+03  4.07651E+03 -3.74736E+02  3.67210E+03 -2.28449E+03 -7.09934E+01  2.45376E+02 -3.43445E+03
  4.11544E+03 -1.74880E+03  4.99237E+03  1.46449E+03  3.82385E+03  5.28847E+03  3.11909E+02  6.81954E+03
 -6.62205E+03  6.21516E+03 -8.99591E+03  8.15163E+02 -8.23212E+03 -6.28850E+03 -8.46543E+02 -1.07031E+04
  5.94871E+03 -9.61585E+03  1.02946E+04 -2.04330E+03  9.87002E+03  2.80331E+03  5.91234E+03  8.71027E+03
  7.07512E+02  8.89684E+03 -3.66126E+03  7.19700E+03 -5.51262E+03  3.85036E+03 -4.59473E+03  7.25962E+02
 -2.71188E+03 -3.51375E+02 -2.46286E+03  9.69259E+02 -4.28974E+03  1.72428E+03 -7.08248E+03 -1.36467E+03
 -6.45608E+03 -5.01160E+03 -1.98056E+03 -9.31656E+03  4.37108E+03 -9.21371E+03  8.38492E+03 -4.06983E+03
  9.16562E+03  1.13447E+03  5.33533E+03  6.40182E+03 -9.34715E+02  8.97229E+03 -7.05878E+03  5.54354E+03
