 $NMID ID='MM_0lb_SNR800_18hz_g60_49.RAW', FMTDAT='(8E13.5)'
 TRAMP=1., VOLUME=1. $END
  3.09716E+05  4.34680E+02  3.37387E+05  2.50685E+05  8.47151E+04  3.37621E+05 -1.32543E+05  2.50835E+05
 -1.90159E+05  8.31456E+04 -1.11609E+05 -3.28142E+04  9.52056E+02 -5.04375E+04  5.42223E+04 -6.28096E+01
  3.50556E+04  5.27744E+04 -1.67775E+04  7.53089E+04 -6.07592E+04  6.37342E+04 -8.37293E+04  3.16621E+04
 -8.05295E+04 -1.13687E+04 -5.71333E+04 -5.11780E+04 -1.52401E+04 -6.94234E+04  2.75259E+04 -4.57300E+04
  3.96373E+04  3.68814E+03  1.60529E+04  4.74136E+04 -3.42408E+04  4.68958E+04 -6.63629E+04 -1.20324E+01
 -5.29923E+04 -5.64615E+04 -6.69093E+03 -7.64862E+04  3.34931E+04 -5.43863E+04  4.73787E+04 -1.67252E+04
  4.29952E+04  1.13098E+04  3.14839E+04  2.50615E+04  1.62314E+04  2.91331E+04 -4.98836E+03  2.75184E+04
 -2.19661E+04  1.24730E+04 -1.87816E+04 -4.79736E+03  5.29842E+03 -7.38598E+03  2.19460E+04  1.21301E+04
  7.02080E+03  3.44556E+04 -3.17973E+04  3.51733E+04 -6.25969E+04  2.19933E+03 -5.65793E+04 -4.22744E+04
 -1.24748E+04 -6.22861E+04  3.92304E+04 -4.49167E+04  5.73437E+04 -2.14124E+03  3.31354E+04  3.16460E+04
 -6.48914E+03  3.51236E+04 -2.94071E+04  1.50561E+04 -2.92444E+04 -4.40908E+03 -1.60416E+04 -1.05645E+04
 -7.97845E+03 -1.23687E+04 -7.27100E+02 -1.77333E+04  7.35237E+03 -2.28583E+04  1.53148E+04 -1.33564E+04
  1.16352E+04  4.89850E+03 -7.51225E+03  1.30031E+04 -2.03382E+04 -4.07463E+03 -8.49790E+03 -3.26396E+04
  2.21214E+04 -4.25347E+04  4.69069E+04 -1.91486E+04  4.38527E+04  1.88302E+04  1.47117E+04  4.33985E+04
 -1.56305E+04  3.26303E+04 -2.50107E+04  1.35302E+03 -9.24429E+03 -2.73304E+04  2.12852E+04 -3.29854E+04
  3.97240E+04 -8.28680E+03  3.39372E+04  2.31132E+04  1.69391E+04  4.45135E+04 -7.75365E+03  4.85776E+04
 -3.00966E+04  3.21295E+04 -4.01525E+04  9.15266E+03 -4.09089E+04 -1.57140E+04 -2.27408E+04 -3.66302E+04
  7.19336E+03 -3.62106E+04  3.05553E+04 -1.41396E+04  2.85299E+04  1.07116E+04  3.39689E+03  1.85887E+04
 -1.32589E+04  7.86773E+03 -9.92556E+03 -7.47437E+03  5.64896E+03 -1.06604E+04  1.75210E+04  6.54880E+03
  1.31869E+04  2.18080E+04 -6.35253E+03  2.40345E+04 -2.18702E+04  1.06725E+04 -2.68066E+04 -5.23827E+03
 -1.89510E+04 -1.68697E+04 -7.16801E+03 -1.86189E+04  3.96459E+03 -1.77757E+04  1.43624E+04 -1.63459E+04
  2.40113E+04 -1.21693E+04  3.03251E+04  2.13506E+03  2.24768E+04  1.82432E+04  4.20642E+03  3.44489E+04
 -1.67035E+04  2.91900E+04 -2.71781E+04  9.84273E+03 -2.03571E+04 -1.03626E+04 -4.22777E+03 -1.35810E+04
  2.16535E+03 -3.54601E+03 -3.86850E+03  6.14153E+03 -1.45115E+04  5.16224E+03 -1.48300E+04 -5.94096E+03
 -9.20767E+03 -1.71782E+04  4.79631E+03 -2.12892E+04  1.41565E+04 -1.53782E+04  1.62978E+04 -1.66024E+03
  1.01266E+04  1.19072E+04 -1.25044E+03  1.74106E+04 -1.16744E+04  9.93656E+03 -1.73027E+04 -3.76444E+03
 -1.28042E+04 -1.56100E+04 -1.53976E+03 -2.06912E+04  9.46247E+03 -1.68367E+04  1.73756E+04 -8.00066E+03
  1.61550E+04  4.71893E+02  1.16770E+04  4.11043E+03  5.92857E+03  6.59840E+02  8.30721E+03 -1.26902E+03
  1.56758E+04  2.42475E+03  1.66194E+04  1.35048E+04  1.08469E+04  2.70754E+04 -2.82476E+03  3.00869E+04
 -1.74721E+04  2.33069E+04 -2.76509E+04  1.12769E+04 -2.86296E+04 -2.09028E+03 -2.38387E+04 -1.64676E+04
 -1.09307E+04 -2.34707E+04  7.94835E+03 -2.16729E+04  1.89194E+04 -1.17663E+04  1.72699E+04  4.57842E+03
  6.95601E+03  1.24993E+04 -7.73160E+03  1.16327E+04 -1.41700E+04  2.46834E+03 -1.10549E+04 -8.79675E+03
  1.34563E+02 -1.36154E+04  6.99760E+03 -1.02653E+04  8.91941E+03 -1.73541E+03  1.73838E+03  5.45111E+03
 -6.31849E+03  1.83433E+03 -4.63481E+03 -5.20982E+03  2.61696E+02 -1.16202E+04  8.66716E+03 -1.15081E+04
  1.42063E+04 -5.88531E+03  1.42685E+04  2.65422E+03  1.22049E+04  1.06683E+04  5.90142E+03  1.66075E+04
 -1.96243E+03  1.81194E+04 -1.12770E+04  1.15064E+04 -1.30621E+04  3.13060E+03 -9.54518E+03 -2.58840E+03
 -4.80809E+03 -3.99241E+03 -7.84583E+02  1.30120E+03 -1.88221E+03  2.30109E+03 -4.15581E+03  3.53442E+03
 -8.89133E+03 -6.56270E+02 -9.54537E+03 -7.92373E+03 -3.99204E+03 -1.25759E+04  3.66887E+03 -9.49254E+03
  8.11285E+03 -4.19408E+03  5.87518E+03  2.46239E+03  5.89664E+02  3.70431E+03 -4.00249E+03 -2.08132E+02
 -3.69685E+03 -5.76256E+03 -9.86476E+02 -8.38565E+03  4.61545E+03 -9.05957E+03  1.12650E+04 -4.76325E+03
  1.32814E+04  9.55475E+02  9.79769E+03  7.12440E+03  2.03109E+03  1.00582E+04 -6.13230E+03  9.19602E+03
 -7.37053E+03  3.22575E+03 -3.81713E+03 -1.51421E+03  1.46750E+03 -2.37041E+03  5.10868E+03 -9.95846E+02
  4.45781E+03  3.80230E+03  8.40835E+02  7.10801E+03 -4.77185E+03  7.14069E+03 -8.75311E+03  1.93409E+03
 -5.59052E+03 -4.14099E+03  1.18427E+02 -7.60818E+03  4.44072E+03 -3.62316E+03  4.34132E+03  1.22446E+03
  6.97015E+02  4.34337E+03 -4.57395E+03  5.46599E+03 -5.73774E+03  2.78413E+03 -5.54356E+03 -1.80670E+03
 -3.29912E+03 -6.98028E+03  1.60436E+03 -8.18648E+03  6.93845E+03 -5.27496E+03  7.20542E+03  1.26414E+03
  5.42613E+03  6.25043E+03  1.83324E+02  8.10566E+03 -5.91684E+03  4.77056E+03 -6.26177E+03 -6.42318E+02
 -6.18284E+03 -5.73863E+03 -1.29084E+03 -5.71189E+03  2.94656E+03 -5.24845E+03  3.40865E+03 -3.09575E+03
  2.89782E+03  2.33533E+02 -7.42215E+00  1.20845E+03  6.57227E+02 -2.40628E+02  4.67812E+02 -2.49041E+03
  4.53144E+03 -1.15000E+03  6.51653E+03  7.81270E+02  6.31303E+03  3.58345E+03  5.66595E+03  8.43645E+03
 -1.49603E+03  9.77890E+03 -8.89568E+03  7.21346E+03 -1.11368E+04  1.35999E+03 -9.07057E+03 -3.11576E+03
 -4.92156E+03 -7.56780E+03 -3.77972E+02 -5.65784E+03  2.51294E+03 -2.58102E+03  1.80689E+03 -2.46708E+03
  1.61148E+03 -1.55045E+03  2.13134E+03 -2.60058E+03  3.86991E+03 -1.26516E+03  4.24154E+03  2.85776E+02
  5.10975E+03  1.37561E+03  1.16282E+03  3.86197E+03 -1.42031E+03  3.60767E+03 -5.04155E+03  3.14600E+03
 -5.42888E+03 -1.15609E+03 -2.18502E+03 -3.89594E+03  1.70225E+02 -5.99752E+03  3.64844E+03 -6.02170E+03
  6.03097E+03 -3.66875E+03  7.42447E+03  5.75350E+02  5.51464E+03  4.77818E+03  1.19784E+03  6.77160E+03
 -2.50436E+03  6.39701E+03 -3.93191E+03  1.84919E+03 -2.45875E+03 -9.12579E+02 -9.20860E+02 -7.24159E+02
 -7.08437E+02  3.55784E+02 -1.02605E+03  1.97098E+03 -2.77737E+03  1.13381E+03 -4.48594E+03 -4.73898E+02
 -1.89350E+03 -4.54025E+03  4.59394E+02 -5.29519E+03  3.38366E+03 -4.73027E+03  4.11268E+03 -1.39471E+03
  4.42865E+03  2.70733E+03  2.03299E+03  3.88123E+03 -1.10338E+03  4.86356E+03 -3.06461E+03  3.14812E+03
 -4.37776E+03  4.65413E+02 -3.80887E+03 -2.72490E+03 -3.03744E+02 -3.57966E+03  1.62814E+03 -2.95835E+03
  2.96948E+03 -1.22569E+03  1.77234E+03  4.25498E+02  2.52772E+02  2.07007E+03  1.01364E+03  2.70613E+02
  1.89010E+03  6.91759E+02  1.19246E+03  8.96497E+02  1.15911E+03  2.04533E+03  1.79703E+03  2.02550E+03
 -1.15107E+03  3.57522E+03 -2.94535E+03  4.47660E+03 -3.54939E+03  1.57120E+03 -4.92181E+03 -6.10693E+02
 -2.05394E+03 -4.25730E+03  1.14979E+03 -5.16061E+03  2.07729E+03 -2.85962E+03  3.41857E+03 -9.91258E+02
  2.79718E+03  1.86795E+03  7.40869E+02  2.57932E+03 -8.84961E+02  1.66790E+03 -1.12875E+03  5.03847E+01
 -7.43752E+02 -1.84614E+03  1.05578E+03 -1.56203E+03  1.35977E+03 -1.09999E+03  1.76471E+03  4.50777E+02
  6.42656E+02  5.70760E+02  8.09687E+02 -2.71429E+02 -4.11601E+02  7.95134E+02  1.50185E+03 -2.91938E+02
  4.05013E+02 -4.59261E+02  1.80181E+03  8.06009E+02  3.28779E+02  2.60069E+03 -1.92795E+02  3.14620E+03
 -1.71406E+03  1.29629E+03 -2.36705E+03  4.64513E+02 -2.27961E+03 -1.03564E+03 -2.63539E+02 -1.41539E+03
  4.90353E+02 -1.11857E+03  1.08417E+03 -8.19383E+02  8.97427E+02  1.49734E+03 -9.21121E+02  1.03807E+03
 -1.43060E+03  8.68755E+02 -1.36302E+03 -1.28262E+03 -1.07852E+03 -2.43313E+03  4.30429E+02 -1.66981E+03
  7.08417E+02 -5.99509E+02  9.39300E+02  1.83715E+01  1.38820E+03  1.53119E+02  5.56666E+01  1.13973E+03
 -4.40486E+02 -2.92326E+01 -7.63628E+02 -2.37444E+02  8.63674E+02 -8.81357E+02  1.87897E+03 -1.05954E+03
  1.36924E+03  1.04234E+02  3.13626E+03  7.65029E+02  1.26003E+03  1.62624E+03 -4.19433E+02  2.01145E+03
 -1.59394E+03  4.02042E+02 -1.48677E+03 -2.94204E+02 -8.99024E+02 -1.54478E+03 -1.76195E+01 -8.52556E+02
  1.63262E+03 -7.06481E+02  8.25267E+02  8.21187E+02  2.63510E+02  1.35683E+03  1.84804E+02  9.58329E+02
 -4.54791E+02  1.16327E+03 -5.15879E+02 -7.53001E+01  2.26054E+02  3.53335E+02 -9.72941E+02  4.33956E+02
 -5.72372E+02  1.19398E+03 -1.83049E+03  3.57784E+02 -1.89134E+03  1.03467E+02 -2.68496E+03 -1.16043E+03
 -1.33960E+03 -2.53800E+03  7.14701E+02 -3.16278E+03  1.49198E+03 -2.81745E+03  3.03559E+03 -8.47236E+02
  2.48698E+03  2.32014E+02  1.35663E+03  1.76042E+03 -6.28456E+02  1.62419E+03 -8.45947E+02  1.34696E+03
 -9.49583E+02  7.55394E+02 -6.44761E+02 -1.47019E+02 -3.88935E+02  5.61106E+02 -8.34003E+02 -9.15065E+01
 -1.10963E+03 -6.34286E+01 -7.65754E+02  1.37060E+02  1.62809E+02 -5.90444E+02 -3.10269E+02 -1.04844E+03
  1.07694E+03 -5.04629E+02  4.71535E+02  1.98941E+02  1.27516E+03  9.48533E+02 -1.06232E+02  1.36401E+03
 -1.09648E+03  2.27738E+03 -1.73737E+03  1.15528E+03 -1.82106E+03 -3.23251E+02 -1.34862E+03 -1.50286E+03
 -9.89643E+02 -1.32121E+03  5.43831E+02 -1.13975E+03  8.14560E+02 -3.25643E+02  6.88020E+02  1.41901E+02
  7.65207E+02  2.90402E+02  1.85807E+02  3.25615E+02 -3.75499E+02  3.59378E+02 -1.80256E+02 -1.05041E+02
  6.63152E+02  3.96124E+02  3.41402E+02  4.55970E+02 -1.17996E+02  3.91193E+02  5.00975E+02  3.33574E+02
 -7.90110E+02  7.28602E+02 -2.38612E+02  2.21793E+02 -6.90299E+02 -6.62698E+02  3.05324E+02 -1.08074E+03
  4.80411E+02 -6.59616E+02  6.75132E+02 -6.34983E+01  9.14109E+02 -4.73844E+02  5.16827E+02  8.15433E+02
  2.60970E+02  5.54348E+02 -1.49425E+02  6.47993E+02 -4.69130E+02  5.73473E+02 -3.61568E+02  1.85665E+02
 -1.04149E+02 -1.10693E+02 -4.61525E+02  1.73586E+02 -3.75030E+02  1.67815E+02 -9.67745E+02 -2.71337E+02
 -9.07498E+02  2.36375E+02 -3.65962E+02 -9.42310E+02  7.65262E+02 -1.41298E+03  5.71799E+02 -2.50576E+02
  4.78969E+02  3.99662E+01 -3.74008E+02  2.19505E+02 -3.89260E+02  3.51312E+02 -3.76858E+02  6.67207E+02
