 $NMID ID='MM_0lb_SNR800_12hz_g55_32.RAW', FMTDAT='(8E13.5)'
 TRAMP=1., VOLUME=1. $END
  3.10008E+05  2.59235E+02  3.38074E+05  2.50888E+05  8.48074E+04  3.38145E+05 -1.32735E+05  2.51546E+05
 -1.90624E+05  8.34866E+04 -1.12349E+05 -3.20147E+04  7.87016E+02 -5.03942E+04  5.35157E+04 -2.03563E+02
  3.53385E+04  5.26331E+04 -1.68075E+04  7.56618E+04 -6.07233E+04  6.40724E+04 -8.46846E+04  3.21954E+04
 -8.19071E+04 -1.18095E+04 -5.75609E+04 -5.16790E+04 -1.50558E+04 -7.05721E+04  2.82662E+04 -4.62900E+04
  4.06632E+04  3.68970E+03  1.66618E+04  4.81461E+04 -3.44141E+04  4.77155E+04 -6.76107E+04  2.78566E+02
 -5.43862E+04 -5.74532E+04 -7.19186E+03 -7.79323E+04  3.42917E+04 -5.64379E+04  4.85923E+04 -1.76420E+04
  4.45101E+04  1.12258E+04  3.24578E+04  2.58059E+04  1.60154E+04  3.01543E+04 -5.52664E+03  2.75060E+04
 -2.25143E+04  1.22220E+04 -1.81234E+04 -5.34386E+03  6.57488E+03 -7.54366E+03  2.28704E+04  1.33555E+04
  7.29217E+03  3.62332E+04 -3.33193E+04  3.63826E+04 -6.47450E+04  2.05704E+03 -5.77436E+04 -4.38817E+04
 -1.26648E+04 -6.43423E+04  4.07387E+04 -4.63669E+04  5.99205E+04 -2.42768E+03  3.53997E+04  3.34250E+04
 -5.62107E+03  3.81341E+04 -3.10834E+04  1.74885E+04 -3.20149E+04 -3.67936E+03 -1.79635E+04 -1.12944E+04
 -8.90856E+03 -1.45815E+04 -5.84312E+02 -1.87613E+04  8.05929E+03 -2.32684E+04  1.54423E+04 -1.32810E+04
  1.11450E+04  6.01506E+03 -9.61993E+03  1.27207E+04 -2.24349E+04 -5.71129E+03 -8.53428E+03 -3.57952E+04
  2.39099E+04 -4.53724E+04  5.03407E+04 -2.03829E+04  4.67607E+04  1.96238E+04  1.64229E+04  4.55813E+04
 -1.64484E+04  3.52078E+04 -2.70188E+04  2.46284E+03 -1.11263E+04 -2.84537E+04  2.14319E+04 -3.53863E+04
  4.30125E+04 -1.03038E+04  3.81924E+04  2.44930E+04  2.00774E+04  4.91986E+04 -8.35738E+03  5.36060E+04
 -3.32469E+04  3.61792E+04 -4.50328E+04  9.95224E+03 -4.49322E+04 -1.75911E+04 -2.48667E+04 -4.01338E+04
  7.69357E+03 -4.01653E+04  3.28546E+04 -1.58654E+04  3.07022E+04  1.08080E+04  4.80358E+03  2.01291E+04
 -1.35709E+04  9.08638E+03 -1.04870E+04 -7.95804E+03  5.53727E+03 -1.09687E+04  1.86073E+04  5.64241E+03
  1.41022E+04  2.23608E+04 -5.71866E+03  2.60831E+04 -2.28100E+04  1.28824E+04 -3.00132E+04 -3.91694E+03
 -2.30438E+04 -1.81281E+04 -9.92269E+03 -2.29342E+04  3.81553E+03 -2.27885E+04  1.79275E+04 -2.07541E+04
  2.92707E+04 -1.33993E+04  3.53136E+04  4.08210E+03  2.53901E+04  2.20332E+04  4.47682E+03  3.90649E+04
 -1.87738E+04  3.26541E+04 -2.94363E+04  1.11556E+04 -2.17541E+04 -1.03032E+04 -4.58388E+03 -1.34624E+04
  1.25883E+03 -2.04266E+03 -6.31077E+03  7.35765E+03 -1.81761E+04  5.21320E+03 -1.85127E+04 -8.39448E+03
 -1.08436E+04 -2.15186E+04  5.75095E+03 -2.55590E+04  1.70578E+04 -1.81198E+04  2.04469E+04 -1.81442E+03
  1.29531E+04  1.48617E+04 -1.48971E+03  2.12960E+04 -1.49374E+04  1.22851E+04 -2.11020E+04 -4.13330E+03
 -1.54484E+04 -1.93664E+04 -2.10093E+03 -2.55007E+04  1.14430E+04 -2.12975E+04  2.10021E+04 -1.06366E+04
  1.99699E+04 -1.79590E+02  1.44157E+04  4.87396E+03  7.85924E+03  1.11021E+03  1.11960E+04 -1.95898E+03
  1.96654E+04  2.99790E+03  2.24462E+04  1.66164E+04  1.53847E+04  3.36260E+04 -2.74299E+03  3.90829E+04
 -2.25865E+04  3.24720E+04 -3.68419E+04  1.64804E+04 -3.88467E+04 -3.26625E+03 -3.15322E+04 -2.25547E+04
 -1.31619E+04 -3.23015E+04  1.12688E+04 -2.90027E+04  2.45659E+04 -1.42584E+04  2.16022E+04  6.44727E+03
  7.28072E+03  1.63237E+04 -1.00718E+04  1.38156E+04 -1.78655E+04  2.82715E+03 -1.36353E+04 -1.13153E+04
 -8.24400E+01 -1.75612E+04  8.95112E+03 -1.27907E+04  1.19233E+04 -1.40638E+03  2.79775E+03  7.53594E+03
 -7.94496E+03  3.34506E+03 -7.43810E+03 -6.35509E+03 -1.57958E+03 -1.52877E+04  1.07236E+04 -1.69306E+04
  1.96037E+04 -9.00628E+03  2.17610E+04  3.32242E+03  1.91410E+04  1.58231E+04  8.51879E+03  2.51248E+04
 -4.26134E+03  2.64725E+04 -1.71381E+04  1.66185E+04 -1.91943E+04  3.55994E+03 -1.35078E+04 -4.59098E+03
 -5.64562E+03 -5.85884E+03 -5.06680E+02  7.31110E+02 -2.80983E+03  3.44298E+03 -6.39140E+03  5.15901E+03
 -1.24683E+04 -1.05781E+03 -1.32314E+04 -9.80204E+03 -5.45285E+03 -1.66802E+04  5.73811E+03 -1.33172E+04
  1.10589E+04 -5.79011E+03  8.40429E+03  4.08339E+03 -3.52926E+02  5.36769E+03 -6.55193E+03  1.90578E+02
 -6.39693E+03 -8.69580E+03 -7.80169E+02 -1.24490E+04  7.35671E+03 -1.37756E+04  1.71191E+04 -7.01498E+03
  1.94143E+04  1.78957E+03  1.41490E+04  1.14455E+04  2.46771E+03  1.58157E+04 -7.91833E+03  1.30760E+04
 -1.08072E+04  3.95735E+03 -5.64098E+03 -2.70552E+03  1.83049E+03 -3.70435E+03  7.33783E+03 -8.19453E+02
  6.42861E+03  5.76266E+03  1.26612E+03  1.03209E+04 -7.58812E+03  1.01471E+04 -1.32092E+04  2.58312E+03
 -8.92709E+03 -6.68025E+03  1.31862E+02 -1.11345E+04  6.97017E+03 -5.44860E+03  7.41625E+03  2.57406E+03
  1.71359E+03  7.85381E+03 -7.00804E+03  9.38041E+03 -1.06153E+04  4.22758E+03 -1.05955E+04 -3.90099E+03
 -6.64961E+03 -1.22464E+04  3.01824E+03 -1.44184E+04  1.21748E+04 -8.67890E+03  1.32560E+04  2.17573E+03
  8.06040E+03  1.06160E+04 -1.24157E+03  1.31567E+04 -9.37225E+03  7.43332E+03 -1.02070E+04 -7.88191E+02
 -8.83890E+03 -8.63229E+03 -1.76908E+03 -9.78842E+03  4.93094E+03 -8.20490E+03  6.02777E+03 -2.96279E+03
  3.93797E+03  1.21804E+03 -1.15424E+03  1.86185E+03 -3.51897E+02 -2.32020E+03  1.81394E+03 -5.23150E+03
  8.53929E+03 -3.19125E+03  1.21205E+04  1.27058E+03  1.18706E+04  8.25108E+03  8.56507E+03  1.63770E+04
 -3.54902E+03  1.84606E+04 -1.55388E+04  1.36152E+04 -2.00687E+04  2.57734E+03 -1.61249E+04 -6.87336E+03
 -8.38475E+03 -1.33049E+04 -3.40104E+02 -1.11340E+04  4.17896E+03 -5.85034E+03  3.98203E+03 -3.99086E+03
  2.96990E+03 -2.56847E+03  2.95556E+03 -3.19893E+03  5.07162E+03 -3.05606E+03  6.46540E+03 -6.17039E+02
  8.60095E+03  1.84253E+03  3.82823E+03  7.22865E+03 -1.84658E+03  7.97932E+03 -8.93357E+03  6.65791E+03
 -1.11299E+04 -1.42347E+03 -6.54852E+03 -8.01845E+03 -6.88205E+02 -1.14143E+04  6.58531E+03 -1.18120E+04
  1.24206E+04 -7.22928E+03  1.46147E+04  1.70379E+03  1.04454E+04  1.03899E+04  1.70056E+03  1.39341E+04
 -5.38439E+03  1.13479E+04 -7.85593E+03  3.60146E+03 -5.69720E+03 -1.71331E+03 -2.02211E+03 -1.62594E+03
 -1.06345E+03  8.57059E+01 -2.00602E+03  2.49505E+03 -4.68594E+03  1.67222E+03 -7.50781E+03 -8.98463E+02
 -4.66993E+03 -8.17682E+03  5.19711E+02 -1.10998E+04  6.37829E+03 -9.95718E+03  1.02751E+04 -2.93608E+03
  1.04932E+04  5.21201E+03  4.94306E+03  9.43847E+03 -1.78012E+03  1.08160E+04 -7.54067E+03  6.95360E+03
 -1.04365E+04  7.19051E+02 -7.83269E+03 -6.25627E+03 -2.18865E+02 -8.88563E+03  4.38528E+03 -6.47474E+03
  6.67308E+03 -2.08041E+03  4.72652E+03  1.79993E+03  1.54284E+03  3.37791E+03  1.23917E+03  1.05100E+03
  2.40324E+03  1.27443E+03  2.57219E+03  1.79208E+03  2.94694E+03  3.76935E+03  2.70461E+03  5.33232E+03
 -2.48297E+03  8.31398E+03 -7.11896E+03  8.68985E+03 -1.00745E+04  2.38857E+03 -1.09831E+04 -3.91505E+03
 -5.42100E+03 -1.00174E+04  1.63553E+03 -1.16043E+04  5.92173E+03 -7.47020E+03  8.77758E+03 -1.99492E+03
  6.62076E+03  3.85668E+03  1.50478E+03  6.17294E+03 -2.43365E+03  3.56368E+03 -4.44155E+03 -6.14868E+02
 -2.08782E+03 -4.38301E+03  2.52950E+03 -4.85400E+03  3.98230E+03 -2.42113E+03  4.12118E+03  8.93357E+02
  2.42630E+03  2.07250E+03  1.38963E+03  1.34606E+03 -6.85688E+02  1.53213E+03  1.57001E+03 -2.78373E+02
  1.41913E+03 -7.39259E+02  4.06840E+03  1.60521E+03  2.16043E+03  5.65518E+03 -9.73019E+02  7.19728E+03
 -4.84526E+03  4.52295E+03 -6.36505E+03  1.30174E+03 -5.80950E+03 -2.02578E+03 -1.85788E+03 -4.12902E+03
  1.04567E+03 -4.01309E+03  2.88576E+03 -1.97849E+03  2.24272E+03  2.23606E+03 -9.67380E+02  3.46315E+03
 -3.90297E+03  1.79111E+03 -4.62707E+03 -2.35286E+03 -2.64561E+03 -5.52172E+03  7.02333E+02 -5.51636E+03
  2.93827E+03 -3.01204E+03  3.83116E+03 -3.23023E+02  3.32216E+03  9.76969E+02  4.66699E+02  2.91215E+03
 -1.78737E+03  5.66637E+02 -2.51478E+03 -1.78952E+03  1.14747E+03 -3.91691E+03  4.79107E+03 -3.14799E+03
  6.02497E+03  4.79770E+02  6.22288E+03  4.26914E+03  2.00016E+03  6.34694E+03 -2.03372E+03  6.05118E+03
 -5.27422E+03  2.59000E+03 -5.53673E+03 -9.82743E+02 -3.24281E+03 -4.25106E+03  9.67315E+02 -3.14426E+03
  4.31646E+03 -1.85128E+03  3.45744E+03  1.86177E+03  1.49664E+03  3.60131E+03 -5.63672E+02  3.14378E+03
 -8.67055E+02  2.43391E+03 -1.62235E+03  6.53971E+02 -6.42135E+02  6.54501E+02 -1.48812E+03  1.41346E+03
 -1.62732E+03  2.79199E+03 -4.36741E+03  1.98208E+03 -6.07382E+03  2.73031E+02 -6.90728E+03 -4.30769E+03
 -3.92077E+03 -8.10774E+03  1.50875E+03 -9.55630E+03  5.61681E+03 -7.63372E+03  9.18605E+03 -2.68861E+03
  8.32984E+03  1.59863E+03  4.80656E+03  5.48091E+03  1.94910E+02  6.16220E+03 -2.67608E+03  4.62710E+03
 -3.68000E+03  2.10230E+03 -2.06236E+03 -5.22110E+02 -7.43226E+02 -4.32745E+02 -7.07165E+02  2.50997E+01
 -1.51706E+03 -2.51628E+02 -1.65193E+03 -2.58089E+02 -2.61311E+02 -2.00921E+03  1.34770E+02 -2.46931E+03
  2.72746E+03 -1.91165E+03  3.21291E+03 -1.13783E+02  4.11015E+03  3.18515E+03  6.99805E+02  6.10688E+03
 -3.13148E+03  7.46441E+03 -6.55310E+03  4.31502E+03 -7.28233E+03 -4.68579E+02 -5.67356E+03 -4.52712E+03
 -2.72871E+03 -6.09598E+03  1.79173E+03 -5.92638E+03  3.64932E+03 -3.03392E+03  3.93478E+03  4.68361E+02
  1.91891E+03  1.76301E+03  3.03827E+01  1.87310E+03 -1.01363E+03 -1.38066E+02  2.04988E+02 -1.04449E+03
  1.98872E+03 -4.92392E+02  2.11944E+03  8.99271E+02  1.78912E+03  2.36150E+03  2.60758E+02  3.07238E+03
 -2.76793E+03  2.81928E+03 -3.75465E+03  5.23059E+02 -3.31214E+03 -2.84379E+03 -3.29153E+02 -4.79691E+03
  2.66213E+03 -4.04034E+03  4.63600E+03 -1.33941E+03  4.56482E+03  9.67750E+02  2.34855E+03  3.76544E+03
  3.96494E+02  3.58506E+03 -1.35259E+03  3.13314E+03 -2.63445E+03  1.78317E+03 -1.67805E+03  5.28261E+02
 -8.88741E+02 -1.09823E+02 -1.58880E+03  4.17310E+02 -2.51787E+03  4.79893E+02 -2.93442E+03 -1.02290E+03
 -2.99870E+03 -1.64233E+03 -1.01855E+03 -3.94193E+03  1.63333E+03 -4.38782E+03  3.24503E+03 -1.75166E+03
  3.90996E+03  3.53763E+01  1.55903E+03  2.68537E+03 -5.39721E+01  3.84771E+03 -2.80522E+03  2.87629E+03
