 $NMID ID='MM_0lb_SNR800_11hz_g45_99.RAW', FMTDAT='(8E13.5)'
 TRAMP=1., VOLUME=1. $END
  3.09903E+05  1.88812E+02  3.37748E+05  2.50329E+05  8.48818E+04  3.38258E+05 -1.32322E+05  2.51672E+05
 -1.90568E+05  8.33777E+04 -1.12037E+05 -3.26720E+04  4.96114E+02 -5.05276E+04  5.36419E+04 -6.50916E+02
  3.54629E+04  5.32418E+04 -1.64936E+04  7.53500E+04 -6.10995E+04  6.37880E+04 -8.49370E+04  3.26873E+04
 -8.16684E+04 -1.16884E+04 -5.75476E+04 -5.17742E+04 -1.50701E+04 -6.95636E+04  2.76294E+04 -4.60869E+04
  4.08569E+04  3.87065E+03  1.62072E+04  4.79436E+04 -3.45569E+04  4.74859E+04 -6.75542E+04  2.77422E+02
 -5.39777E+04 -5.71643E+04 -6.75064E+03 -7.82850E+04  3.46088E+04 -5.60064E+04  4.88236E+04 -1.78939E+04
  4.44779E+04  1.15361E+04  3.23456E+04  2.60407E+04  1.58345E+04  2.99166E+04 -5.78571E+03  2.73011E+04
 -2.19463E+04  1.20517E+04 -1.82719E+04 -5.37781E+03  6.27611E+03 -7.63129E+03  2.28258E+04  1.32513E+04
  6.66709E+03  3.60535E+04 -3.32580E+04  3.67015E+04 -6.45764E+04  2.44386E+03 -5.81235E+04 -4.38715E+04
 -1.24997E+04 -6.46749E+04  4.07303E+04 -4.61692E+04  5.92690E+04 -2.60882E+03  3.54213E+04  3.32122E+04
 -5.85148E+03  3.75228E+04 -3.08483E+04  1.74556E+04 -3.19830E+04 -4.20822E+03 -1.77431E+04 -1.16351E+04
 -9.15389E+03 -1.39374E+04 -5.96592E+02 -1.90628E+04  7.98950E+03 -2.32854E+04  1.56462E+04 -1.30111E+04
  1.11319E+04  5.69707E+03 -9.19308E+03  1.26648E+04 -2.22208E+04 -5.53132E+03 -8.39543E+03 -3.56480E+04
  2.37687E+04 -4.50375E+04  4.99587E+04 -2.02507E+04  4.67382E+04  2.04492E+04  1.66419E+04  4.57066E+04
 -1.66778E+04  3.45339E+04 -2.61161E+04  2.27499E+03 -1.09050E+04 -2.84760E+04  2.12920E+04 -3.54481E+04
  4.31046E+04 -9.75469E+03  3.79387E+04  2.43802E+04  1.97866E+04  4.85236E+04 -8.23711E+03  5.31463E+04
 -3.33698E+04  3.60609E+04 -4.46385E+04  1.03324E+04 -4.49786E+04 -1.75196E+04 -2.46731E+04 -4.01600E+04
  8.05901E+03 -3.96402E+04  3.27038E+04 -1.58865E+04  3.06232E+04  1.12030E+04  4.41846E+03  2.00343E+04
 -1.35828E+04  8.87273E+03 -1.07621E+04 -7.53737E+03  5.77113E+03 -1.09796E+04  1.85638E+04  5.89647E+03
  1.43541E+04  2.23820E+04 -5.52938E+03  2.61255E+04 -2.31228E+04  1.28584E+04 -2.96979E+04 -4.02376E+03
 -2.30884E+04 -1.78296E+04 -9.65078E+03 -2.27291E+04  4.01612E+03 -2.26783E+04  1.78069E+04 -2.07903E+04
  2.92080E+04 -1.33638E+04  3.52348E+04  3.57411E+03  2.53009E+04  2.15860E+04  4.38920E+03  3.88609E+04
 -1.85692E+04  3.18548E+04 -2.92816E+04  1.09167E+04 -2.13482E+04 -1.03470E+04 -4.66085E+03 -1.33823E+04
  1.47130E+03 -1.81931E+03 -6.22268E+03  7.88309E+03 -1.82336E+04  4.86180E+03 -1.79728E+04 -8.45030E+03
 -1.10900E+04 -2.09345E+04  5.42203E+03 -2.52944E+04  1.68774E+04 -1.83903E+04  2.04262E+04 -1.91933E+03
  1.28370E+04  1.42473E+04 -9.65207E+02  2.08954E+04 -1.50806E+04  1.18713E+04 -2.12630E+04 -4.55957E+03
 -1.53107E+04 -1.92610E+04 -2.07721E+03 -2.56679E+04  1.12675E+04 -2.12548E+04  2.12321E+04 -1.06501E+04
  2.01723E+04 -1.51255E+02  1.46209E+04  5.00713E+03  7.76177E+03  1.33499E+03  1.06599E+04 -1.79647E+03
  1.95595E+04  2.53156E+03  2.22196E+04  1.65721E+04  1.52388E+04  3.36353E+04 -2.70560E+03  3.92711E+04
 -2.25133E+04  3.23104E+04 -3.65633E+04  1.63403E+04 -3.89129E+04 -2.90386E+03 -3.21077E+04 -2.22185E+04
 -1.29021E+04 -3.22078E+04  1.07953E+04 -2.87056E+04  2.46669E+04 -1.37826E+04  2.16620E+04  6.33678E+03
  7.59608E+03  1.65155E+04 -1.04323E+04  1.43113E+04 -1.78456E+04  2.54751E+03 -1.38828E+04 -1.09161E+04
 -1.48564E+02 -1.72681E+04  9.46130E+03 -1.27376E+04  1.16198E+04 -1.74294E+03  2.91402E+03  7.68817E+03
 -7.76794E+03  3.50398E+03 -7.44133E+03 -6.13003E+03 -8.97415E+02 -1.60140E+04  1.03923E+04 -1.68056E+04
  1.98573E+04 -9.23628E+03  2.17281E+04  3.17649E+03  1.92650E+04  1.62596E+04  8.88655E+03  2.46929E+04
 -4.37440E+03  2.66973E+04 -1.73860E+04  1.66668E+04 -1.90570E+04  3.70456E+03 -1.33899E+04 -4.68260E+03
 -6.07853E+03 -6.10331E+03 -8.14739E+02  6.98925E+02 -2.64192E+03  3.28395E+03 -6.05642E+03  4.86823E+03
 -1.27114E+04 -8.48395E+02 -1.29525E+04 -1.02960E+04 -4.88600E+03 -1.72064E+04  5.85617E+03 -1.33127E+04
  1.07126E+04 -5.36471E+03  7.88777E+03  3.70810E+03 -3.45921E+02  5.41007E+03 -6.85298E+03 -8.37675E+01
 -6.39915E+03 -8.63989E+03 -1.27130E+03 -1.30211E+04  7.12512E+03 -1.36855E+04  1.65565E+04 -7.16576E+03
  2.01976E+04  1.66706E+03  1.46411E+04  1.21057E+04  3.13481E+03  1.56054E+04 -8.16682E+03  1.32253E+04
 -1.09850E+04  3.84020E+03 -5.81509E+03 -2.89583E+03  1.97054E+03 -3.61023E+03  7.03714E+03 -1.23324E+03
  6.28653E+03  5.48222E+03  1.08461E+03  1.07589E+04 -7.18416E+03  1.04064E+04 -1.33122E+04  2.71482E+03
 -9.24614E+03 -6.48834E+03  2.70357E+02 -1.14214E+04  7.19754E+03 -5.90269E+03  7.51648E+03  2.63413E+03
  1.82581E+03  8.06221E+03 -6.94351E+03  9.07786E+03 -1.05896E+04  4.48876E+03 -1.11059E+04 -4.00631E+03
 -6.52309E+03 -1.26807E+04  2.87971E+03 -1.45704E+04  1.24983E+04 -8.67120E+03  1.36192E+04  2.36925E+03
  8.15525E+03  1.05871E+04 -1.07946E+03  1.30519E+04 -9.61791E+03  7.06366E+03 -1.05071E+04 -9.51970E+02
 -9.28338E+03 -8.83880E+03 -1.73285E+03 -9.77956E+03  5.34405E+03 -7.77279E+03  6.17765E+03 -3.40711E+03
  4.33306E+03  1.56070E+03 -6.50518E+02  1.82869E+03 -4.22031E+02 -1.91967E+03  1.84802E+03 -5.94442E+03
  9.31902E+03 -3.40158E+03  1.32118E+04  1.52417E+03  1.23323E+04  8.59303E+03  8.93245E+03  1.65369E+04
 -3.59651E+03  1.91564E+04 -1.57911E+04  1.41698E+04 -2.09936E+04  2.75203E+03 -1.68256E+04 -6.75709E+03
 -8.30238E+03 -1.34537E+04 -7.91311E+02 -1.12850E+04  4.20073E+03 -6.37293E+03  4.07550E+03 -4.32697E+03
  3.15549E+03 -2.68551E+03  3.36441E+03 -3.44322E+03  5.02153E+03 -3.12829E+03  6.22769E+03 -9.51181E+02
  8.98791E+03  1.87838E+03  4.25221E+03  7.25867E+03 -1.87279E+03  8.60420E+03 -9.04422E+03  6.46774E+03
 -1.12995E+04 -1.39217E+03 -6.82495E+03 -8.02826E+03 -7.51257E+02 -1.20509E+04  6.76330E+03 -1.23254E+04
  1.26151E+04 -7.00476E+03  1.53995E+04  1.88236E+03  1.06205E+04  1.09194E+04  1.96322E+03  1.36390E+04
 -5.68571E+03  1.16076E+04 -8.29186E+03  4.31042E+03 -5.34355E+03 -1.51455E+03 -1.98859E+03 -1.59190E+03
 -1.20649E+03  1.23766E+02 -1.85156E+03  2.39487E+03 -5.10570E+03  2.26988E+03 -8.24735E+03 -7.94125E+02
 -5.17865E+03 -7.81789E+03 -8.22083E+01 -1.12463E+04  6.66777E+03 -1.06049E+04  1.09885E+04 -3.26531E+03
  1.10129E+04  5.43834E+03  5.39649E+03  9.76715E+03 -2.23127E+03  1.14966E+04 -8.02428E+03  6.92423E+03
 -1.07854E+04  6.53223E+02 -8.29355E+03 -6.83144E+03 -4.74598E+02 -9.20018E+03  4.62449E+03 -6.91185E+03
  7.07120E+03 -2.62017E+03  4.81599E+03  1.90308E+03  1.88697E+03  3.19012E+03  1.33062E+03  1.41595E+03
  2.20927E+03  4.87067E+02  2.51820E+03  1.64298E+03  3.32032E+03  4.18057E+03  3.04657E+03  5.64146E+03
 -2.45038E+03  8.67064E+03 -7.94780E+03  9.12021E+03 -1.12711E+04  2.54882E+03 -1.17046E+04 -4.50767E+03
 -5.29782E+03 -1.10899E+04  1.47076E+03 -1.25430E+04  6.25282E+03 -7.83212E+03  9.05915E+03 -2.10147E+03
  7.12253E+03  4.37627E+03  1.56823E+03  6.78638E+03 -3.04367E+03  4.05339E+03 -4.18332E+03 -7.58941E+02
 -2.09222E+03 -4.53709E+03  2.43504E+03 -5.02124E+03  4.48344E+03 -2.38578E+03  4.20126E+03  1.25650E+03
  2.84512E+03  2.10903E+03  1.34714E+03  1.50338E+03 -7.49255E+02  1.45925E+03  1.60688E+03 -7.67242E+02
  1.86810E+03 -4.33083E+02  4.50371E+03  1.76376E+03  2.48436E+03  6.00355E+03 -1.03169E+03  7.82898E+03
 -5.15229E+03  4.96616E+03 -7.19266E+03  1.59338E+03 -6.50828E+03 -2.38885E+03 -1.86348E+03 -4.09969E+03
  8.33844E+02 -4.68312E+03  2.83536E+03 -1.94250E+03  2.51341E+03  2.32282E+03 -1.20863E+03  4.03354E+03
 -4.77294E+03  2.19683E+03 -5.02515E+03 -2.69937E+03 -2.87095E+03 -6.37098E+03  8.18745E+02 -6.09407E+03
  3.20761E+03 -3.47090E+03  4.45749E+03 -3.30061E+02  3.57552E+03  1.69471E+03  6.94109E+02  3.00441E+03
 -1.82817E+03  1.11779E+03 -2.95538E+03 -2.22064E+03  8.40771E+02 -4.68673E+03  5.20680E+03 -3.79870E+03
  6.48226E+03  5.10285E+02  6.90847E+03  4.27475E+03  2.38938E+03  7.25729E+03 -2.51160E+03  6.87184E+03
 -5.50332E+03  3.07506E+03 -6.03166E+03 -9.33716E+02 -2.95085E+03 -4.72357E+03  9.18740E+02 -4.61825E+03
  4.51805E+03 -2.01402E+03  3.50232E+03  1.69921E+03  1.34362E+03  3.85482E+03 -4.62428E+02  3.53094E+03
 -1.79076E+03  2.68972E+03 -1.42812E+03  7.67615E+02 -1.00985E+03  8.20869E+02 -1.04900E+03  1.32297E+03
 -1.65243E+03  2.59654E+03 -5.01312E+03  2.54699E+03 -6.75110E+03  2.89945E+02 -8.19138E+03 -4.41614E+03
 -4.05171E+03 -9.56094E+03  2.11754E+03 -1.02267E+04  6.14670E+03 -8.11962E+03  1.01360E+04 -3.43271E+03
  9.31131E+03  1.57557E+03  5.81032E+03  6.38721E+03  2.63173E+01  6.96831E+03 -2.66998E+03  5.27820E+03
 -4.06354E+03  2.23067E+03 -2.46461E+03 -1.29527E+03 -1.04611E+03 -7.40225E+02 -5.99048E+02  6.63621E+01
 -1.57984E+03 -7.48802E+01 -1.61389E+03 -3.86866E+02 -5.32092E+02 -1.39211E+03 -3.31033E+01 -2.84250E+03
  3.15646E+03 -2.34026E+03  4.41782E+03 -1.95708E+01  4.93730E+03  3.65464E+03  1.07537E+03  6.99659E+03
 -3.54849E+03  8.33921E+03 -7.32425E+03  5.05983E+03 -8.33959E+03 -5.21414E+02 -6.35134E+03 -5.34014E+03
 -2.89830E+03 -7.08277E+03  1.69116E+03 -6.54513E+03  4.27696E+03 -3.25205E+03  4.56921E+03  1.51292E+02
  2.78334E+03  1.82367E+03 -2.05249E+02  2.05021E+03 -1.61752E+03 -3.68859E+01  2.53551E+02 -1.81745E+03
  2.31393E+03 -8.57471E+02  2.65576E+03  6.61820E+02  1.91699E+03  2.78469E+03  1.42677E+02  3.51964E+03
 -2.96752E+03  3.00405E+03 -4.48115E+03  3.96769E+02 -4.02503E+03 -3.38833E+03 -6.57277E+02 -5.74938E+03
  3.03515E+03 -4.75787E+03  5.13115E+03 -1.10078E+03  4.85482E+03  6.43116E+02  2.71047E+03  4.35895E+03
  1.02982E+03  4.34374E+03 -1.77094E+03  3.68092E+03 -2.90915E+03  2.41557E+03 -2.24769E+03  2.60952E+02
 -1.42868E+03  8.44219E+01 -1.23200E+03  4.48478E+02 -2.42738E+03  5.05966E+02 -3.02186E+03 -5.17234E+02
 -3.33111E+03 -2.09176E+03 -9.79388E+02 -4.50946E+03  2.51345E+03 -4.99420E+03  4.24226E+03 -2.06140E+03
  4.37119E+03  1.42283E+02  2.18584E+03  2.71707E+03 -2.61292E+02  4.58817E+03 -3.66812E+03  2.83015E+03
