 $NMID ID='MM_0lb_SNR800_9hz_g40_92.RAW', FMTDAT='(8E13.5)'
 TRAMP=1., VOLUME=1. $END
  3.10291E+05  4.10243E+02  3.37885E+05  2.50940E+05  8.50177E+04  3.38513E+05 -1.32500E+05  2.51659E+05
 -1.91045E+05  8.39885E+04 -1.12831E+05 -3.29906E+04  4.60615E+01 -5.08778E+04  5.36579E+04 -4.21723E+02
  3.56813E+04  5.28845E+04 -1.67961E+04  7.58507E+04 -6.07202E+04  6.40012E+04 -8.50326E+04  3.23101E+04
 -8.23070E+04 -1.17698E+04 -5.79498E+04 -5.19862E+04 -1.47932E+04 -7.09555E+04  2.80775E+04 -4.67276E+04
  4.07526E+04  3.35267E+03  1.65260E+04  4.79313E+04 -3.47560E+04  4.78986E+04 -6.78851E+04  1.36970E+02
 -5.45476E+04 -5.77705E+04 -7.19060E+03 -7.91472E+04  3.44825E+04 -5.66657E+04  4.92461E+04 -1.77635E+04
  4.45805E+04  1.11848E+04  3.30412E+04  2.62437E+04  1.56435E+04  3.04486E+04 -5.47944E+03  2.76420E+04
 -2.22458E+04  1.18964E+04 -1.83494E+04 -5.68331E+03  7.01956E+03 -7.15340E+03  2.28910E+04  1.34328E+04
  7.26731E+03  3.66852E+04 -3.34564E+04  3.66951E+04 -6.55330E+04  2.03203E+03 -5.82890E+04 -4.42766E+04
 -1.25785E+04 -6.53348E+04  4.11465E+04 -4.68845E+04  6.07984E+04 -2.46670E+03  3.62936E+04  3.39745E+04
 -5.50974E+03  3.89230E+04 -3.17644E+04  1.84517E+04 -3.26928E+04 -3.89312E+03 -1.89243E+04 -1.16728E+04
 -9.13590E+03 -1.42355E+04 -3.05301E+02 -1.92250E+04  8.05684E+03 -2.34904E+04  1.56442E+04 -1.27872E+04
  1.04564E+04  5.93056E+03 -9.95936E+03  1.30235E+04 -2.26098E+04 -6.24837E+03 -8.56059E+03 -3.67129E+04
  2.43706E+04 -4.63569E+04  5.10454E+04 -2.05109E+04  4.78543E+04  2.05365E+04  1.69326E+04  4.64370E+04
 -1.70310E+04  3.54898E+04 -2.73833E+04  2.62044E+03 -1.13611E+04 -2.88879E+04  2.14782E+04 -3.58277E+04
  4.39194E+04 -1.05862E+04  3.95761E+04  2.48560E+04  2.06576E+04  5.03366E+04 -8.22764E+03  5.51823E+04
 -3.47393E+04  3.74574E+04 -4.64607E+04  1.08954E+04 -4.66297E+04 -1.82933E+04 -2.55717E+04 -4.13740E+04
  7.36514E+03 -4.08845E+04  3.34356E+04 -1.68129E+04  3.14682E+04  1.10269E+04  4.98597E+03  2.02958E+04
 -1.35828E+04  9.84290E+03 -1.09334E+04 -7.56995E+03  5.63362E+03 -1.10050E+04  1.87656E+04  5.23982E+03
  1.39702E+04  2.25769E+04 -5.37751E+03  2.64885E+04 -2.30920E+04  1.37300E+04 -3.08807E+04 -3.40552E+03
 -2.47250E+04 -1.82427E+04 -1.10322E+04 -2.41115E+04  4.18904E+03 -2.41746E+04  1.93173E+04 -2.23046E+04
  3.09705E+04 -1.39964E+04  3.69525E+04  4.71550E+03  2.64202E+04  2.34835E+04  4.65377E+03  4.03396E+04
 -1.91776E+04  3.28442E+04 -2.98886E+04  1.12763E+04 -2.21969E+04 -1.02416E+04 -4.49730E+03 -1.26730E+04
  8.81180E+02 -1.65061E+03 -6.93113E+03  7.78829E+03 -1.92723E+04  5.20868E+03 -1.93103E+04 -8.89588E+03
 -1.17247E+04 -2.23617E+04  6.01560E+03 -2.68994E+04  1.80347E+04 -1.92266E+04  2.16856E+04 -1.69187E+03
  1.41680E+04  1.57128E+04 -1.52088E+03  2.24698E+04 -1.59504E+04  1.23434E+04 -2.28158E+04 -4.72115E+03
 -1.66769E+04 -2.04063E+04 -2.01734E+03 -2.68460E+04  1.22346E+04 -2.28701E+04  2.22236E+04 -1.21705E+04
  2.12418E+04 -2.23076E+02  1.52881E+04  5.52290E+03  7.98469E+03  1.59199E+03  1.18859E+04 -2.25669E+03
  2.14796E+04  3.01400E+03  2.45038E+04  1.75679E+04  1.60527E+04  3.61656E+04 -2.91139E+03  4.23469E+04
 -2.44005E+04  3.52145E+04 -4.01512E+04  1.81960E+04 -4.26884E+04 -3.59357E+03 -3.50520E+04 -2.49807E+04
 -1.38873E+04 -3.56931E+04  1.24059E+04 -3.07777E+04  2.67862E+04 -1.50842E+04  2.33962E+04  7.36838E+03
  7.74311E+03  1.78562E+04 -1.07989E+04  1.51093E+04 -1.96026E+04  2.58454E+03 -1.46537E+04 -1.27044E+04
 -4.36255E+01 -1.86463E+04  1.02237E+04 -1.35550E+04  1.26241E+04 -1.13581E+03  3.26874E+03  8.39136E+03
 -8.10666E+03  3.90575E+03 -8.40098E+03 -6.60484E+03 -1.74322E+03 -1.74699E+04  1.11933E+04 -1.88405E+04
  2.14982E+04 -1.09226E+04  2.46566E+04  3.25979E+03  2.17361E+04  1.75955E+04  1.02574E+04  2.78741E+04
 -5.29319E+03  2.95639E+04 -1.97540E+04  1.84015E+04 -2.15050E+04  4.03823E+03 -1.51123E+04 -5.71967E+03
 -6.25333E+03 -6.91856E+03 -8.88798E+02  7.01217E+02 -2.79171E+03  2.98716E+03 -7.01794E+03  5.68831E+03
 -1.35945E+04 -1.02337E+03 -1.40840E+04 -1.13618E+04 -5.48313E+03 -1.90197E+04  6.11717E+03 -1.52418E+04
  1.18825E+04 -6.39500E+03  8.51061E+03  4.29274E+03 -9.42397E+01  6.07861E+03 -7.23526E+03 -3.24348E+02
 -6.69689E+03 -9.40841E+03 -9.97009E+02 -1.50713E+04  8.73098E+03 -1.54099E+04  1.91163E+04 -8.56387E+03
  2.21528E+04  2.30138E+03  1.60102E+04  1.35958E+04  2.95811E+03  1.83280E+04 -8.96392E+03  1.48189E+04
 -1.21845E+04  4.08990E+03 -6.57795E+03 -3.09086E+03  2.21237E+03 -4.00792E+03  8.08160E+03 -1.15635E+03
  7.17736E+03  6.64638E+03  1.35028E+03  1.20535E+04 -9.04162E+03  1.16414E+04 -1.49277E+04  2.67571E+03
 -1.01275E+04 -7.93053E+03  1.15555E+02 -1.25966E+04  8.40815E+03 -6.64929E+03  8.73399E+03  3.25650E+03
  1.93912E+03  9.64788E+03 -7.90456E+03  1.09662E+04 -1.27652E+04  4.45434E+03 -1.30280E+04 -4.41779E+03
 -7.82829E+03 -1.46001E+04  3.63360E+03 -1.71476E+04  1.43013E+04 -1.01553E+04  1.58963E+04  2.66924E+03
  9.61813E+03  1.26318E+04 -1.59510E+03  1.47807E+04 -1.09606E+04  8.24665E+03 -1.20121E+04 -1.03319E+03
 -1.04185E+04 -1.01994E+04 -1.66939E+03 -1.13905E+04  6.03674E+03 -8.71799E+03  7.30199E+03 -3.59485E+03
  5.11889E+03  1.85186E+03 -1.17193E+03  1.73424E+03  8.58480E+01 -3.04724E+03  2.64936E+03 -7.06710E+03
  1.07923E+04 -4.45495E+03  1.54534E+04  1.64228E+03  1.47378E+04  1.01343E+04  9.74409E+03  1.95547E+04
 -4.55558E+03  2.23499E+04 -1.86600E+04  1.68755E+04 -2.43095E+04  3.36872E+03 -2.00005E+04 -8.70912E+03
 -9.64296E+03 -1.60660E+04 -7.44492E+01 -1.38847E+04  4.60088E+03 -7.68743E+03  4.98556E+03 -5.00641E+03
  3.65448E+03 -2.89739E+03  3.79375E+03 -3.90028E+03  5.65273E+03 -3.56223E+03  7.59519E+03 -1.56518E+03
  9.96269E+03  2.38453E+03  5.29276E+03  8.89524E+03 -2.43201E+03  1.05156E+04 -1.05517E+04  8.16449E+03
 -1.37577E+04 -1.37878E+03 -8.61187E+03 -9.58076E+03 -1.57086E+03 -1.44917E+04  8.43191E+03 -1.50076E+04
  1.59915E+04 -8.07621E+03  1.83723E+04  2.82814E+03  1.30153E+04  1.28997E+04  2.25077E+03  1.66457E+04
 -6.92348E+03  1.38661E+04 -9.77385E+03  4.92336E+03 -6.89113E+03 -1.51898E+03 -3.15310E+03 -2.09169E+03
 -1.15325E+03 -3.47979E+02 -2.24692E+03  2.52720E+03 -5.73085E+03  2.68406E+03 -9.58004E+03 -1.41952E+03
 -6.85884E+03 -9.89804E+03 -1.32123E+02 -1.42580E+04  8.06182E+03 -1.29041E+04  1.38743E+04 -4.08407E+03
  1.37053E+04  6.96835E+03  6.14283E+03  1.20995E+04 -2.77459E+03  1.38393E+04 -1.01231E+04  8.42473E+03
 -1.30032E+04  5.53925E+02 -9.97243E+03 -8.04238E+03 -9.15016E+02 -1.15708E+04  5.82218E+03 -8.50998E+03
  8.91452E+03 -2.96457E+03  6.37158E+03  2.54997E+03  2.22289E+03  4.19742E+03  1.55384E+03  2.18329E+03
  2.67841E+03  9.27827E+02  3.40906E+03  1.81922E+03  4.51820E+03  4.80565E+03  3.50938E+03  7.23692E+03
 -2.53211E+03  1.09405E+04 -9.37116E+03  1.13275E+04 -1.40179E+04  2.92867E+03 -1.48274E+04 -6.68514E+03
 -6.92579E+03 -1.39069E+04  2.54090E+03 -1.55833E+04  8.41765E+03 -9.87943E+03  1.12603E+04 -2.55318E+03
  8.71033E+03  5.54188E+03  1.97411E+03  8.45093E+03 -4.27367E+03  5.31700E+03 -5.68833E+03 -6.25224E+02
 -2.79862E+03 -6.06612E+03  3.44196E+03 -6.25221E+03  5.68439E+03 -2.88034E+03  5.79383E+03  1.50875E+03
  3.61099E+03  3.13709E+03  1.48885E+03  1.81009E+03 -6.03548E+02  1.74321E+03  1.55725E+03 -3.51107E+02
  2.21456E+03 -7.32460E+02  5.89641E+03  2.55862E+03  3.04019E+03  7.43928E+03 -1.26465E+03  1.00188E+04
 -6.89590E+03  6.28950E+03 -9.09988E+03  1.48708E+03 -8.25792E+03 -3.21529E+03 -3.31706E+03 -5.71408E+03
  5.74190E+02 -5.75694E+03  4.00002E+03 -2.66439E+03  3.22368E+03  2.27172E+03 -1.56608E+03  4.68310E+03
 -5.87506E+03  2.97138E+03 -7.07291E+03 -3.76170E+03 -3.54614E+03 -7.98865E+03  1.47987E+03 -7.68434E+03
  4.91182E+03 -4.75999E+03  6.17318E+03 -7.91849E+02  5.10804E+03  2.16484E+03  3.38846E+02  4.60024E+03
 -2.59835E+03  1.08240E+03 -3.30550E+03 -2.82935E+03  1.49574E+03 -5.99233E+03  7.11064E+03 -4.51408E+03
  8.93864E+03  5.60983E+02  9.06616E+03  6.47154E+03  3.12686E+03  9.26793E+03 -3.13814E+03  9.01696E+03
 -7.72007E+03  3.61257E+03 -7.97923E+03 -1.34890E+03 -4.28653E+03 -6.10592E+03  1.68141E+03 -5.71289E+03
  6.19408E+03 -2.82137E+03  5.20414E+03  2.52151E+03  1.90708E+03  4.88109E+03 -7.65693E+02  4.74825E+03
 -2.23160E+03  3.07401E+03 -2.22651E+03  6.46515E+02 -8.40097E+02  1.00727E+03 -1.65626E+03  2.19744E+03
 -2.60780E+03  4.10123E+03 -6.14932E+03  3.49575E+03 -9.07475E+03  3.84592E+02 -1.01976E+04 -6.35135E+03
 -5.58593E+03 -1.22332E+04  2.78106E+03 -1.46265E+04  8.87559E+03 -1.12598E+04  1.30800E+04 -4.07472E+03
  1.26977E+04  2.84542E+03  7.81448E+03  8.82643E+03  6.87192E+02  9.53073E+03 -4.17089E+03  6.89398E+03
 -5.62058E+03  2.38460E+03 -3.25867E+03 -1.27301E+03 -1.36807E+03 -8.90094E+02 -1.03012E+03 -2.64713E+02
 -1.97166E+03  4.23692E+02 -2.42967E+03 -5.15058E+02 -5.66990E+02 -2.36202E+03 -4.94135E+01 -3.75021E+03
  4.48444E+03 -3.08612E+03  6.03347E+03 -2.85265E+02  6.81671E+03  5.15061E+03  2.05179E+03  9.48912E+03
 -4.76984E+03  1.10663E+04 -1.02275E+04  6.60031E+03 -1.21076E+04 -9.28415E+02 -8.82420E+03 -7.15103E+03
 -3.88584E+03 -9.97865E+03  2.47082E+03 -9.26244E+03  6.36156E+03 -4.84979E+03  6.23956E+03  4.00898E+02
  3.27012E+03  3.04968E+03 -6.73948E+02  2.68921E+03 -1.77557E+03 -4.54010E+02  1.61476E+02 -2.27751E+03
  3.27262E+03 -1.25358E+03  3.95399E+03  1.13068E+03  2.78722E+03  4.02797E+03  4.98575E+02  5.14109E+03
 -4.05928E+03  4.30785E+03 -6.38057E+03  7.54089E+02 -6.17597E+03 -4.57886E+03 -9.03315E+02 -8.60333E+03
  4.56683E+03 -7.03143E+03  7.93500E+03 -2.16889E+03  7.55669E+03  1.75356E+03  4.60786E+03  6.48552E+03
  7.26653E+02  6.58897E+03 -2.52271E+03  5.41938E+03 -4.27065E+03  3.09816E+03 -3.85221E+03  4.35029E+02
 -1.77148E+03 -5.53480E+02 -1.87926E+03  8.72952E+02 -3.72036E+03  1.41337E+03 -5.11809E+03 -1.07995E+03
 -5.26571E+03 -3.11081E+03 -1.46437E+03 -6.76218E+03  3.25854E+03 -7.08297E+03  5.85771E+03 -3.69652E+03
  6.40771E+03  4.16802E+02  3.27738E+03  5.13480E+03 -5.56404E+02  5.90867E+03 -4.76482E+03  4.27456E+03
