 $NMID ID='MM_0lb_SNR800_16hz_g45_60.RAW', FMTDAT='(8E13.5)'
 TRAMP=1., VOLUME=1. $END
  3.09734E+05  4.57026E+02  3.37605E+05  2.50441E+05  8.46624E+04  3.37591E+05 -1.32371E+05  2.50819E+05
 -1.89939E+05  8.28437E+04 -1.11388E+05 -3.26008E+04  1.24693E+03 -5.05246E+04  5.37887E+04  1.22240E+02
  3.52221E+04  5.29813E+04 -1.70047E+04  7.50985E+04 -6.03252E+04  6.30053E+04 -8.37928E+04  3.18827E+04
 -8.05937E+04 -1.08862E+04 -5.67575E+04 -5.08430E+04 -1.49832E+04 -6.88763E+04  2.73233E+04 -4.51961E+04
  3.96318E+04  3.79452E+03  1.59414E+04  4.74034E+04 -3.37673E+04  4.68160E+04 -6.61970E+04 -5.12407E+02
 -5.25264E+04 -5.64051E+04 -6.81759E+03 -7.60329E+04  3.34248E+04 -5.41641E+04  4.73387E+04 -1.65648E+04
  4.23122E+04  1.12397E+04  3.13307E+04  2.46179E+04  1.56129E+04  2.89981E+04 -4.90871E+03  2.71649E+04
 -2.18182E+04  1.28266E+04 -1.88817E+04 -4.73938E+03  5.21328E+03 -7.66384E+03  2.17058E+04  1.17940E+04
  7.25840E+03  3.42910E+04 -3.11438E+04  3.45669E+04 -6.21016E+04  2.31655E+03 -5.60868E+04 -4.17628E+04
 -1.24677E+04 -6.20168E+04  3.87893E+04 -4.43310E+04  5.68537E+04 -2.29269E+03  3.30154E+04  3.12305E+04
 -6.07842E+03  3.46479E+04 -2.90743E+04  1.43531E+04 -2.88084E+04 -5.14960E+03 -1.57270E+04 -1.06293E+04
 -7.81441E+03 -1.20936E+04 -5.85943E+02 -1.69889E+04  6.82176E+03 -2.28398E+04  1.52607E+04 -1.37146E+04
  1.20905E+04  4.75866E+03 -7.10991E+03  1.29720E+04 -2.02752E+04 -3.44586E+03 -7.96059E+03 -3.17078E+04
  2.15750E+04 -4.18219E+04  4.63444E+04 -1.91209E+04  4.32894E+04  1.87605E+04  1.47470E+04  4.29605E+04
 -1.54923E+04  3.20288E+04 -2.44868E+04  1.45126E+03 -8.80835E+03 -2.70512E+04  2.07149E+04 -3.26654E+04
  3.95269E+04 -8.33881E+03  3.33309E+04  2.29135E+04  1.67276E+04  4.45305E+04 -8.06527E+03  4.77600E+04
 -2.98379E+04  3.16686E+04 -3.93441E+04  8.88398E+03 -4.04221E+04 -1.55721E+04 -2.20506E+04 -3.59681E+04
  6.93378E+03 -3.57067E+04  3.05494E+04 -1.36643E+04  2.79191E+04  1.08593E+04  3.42635E+03  1.85793E+04
 -1.31784E+04  7.93514E+03 -9.79506E+03 -7.67217E+03  5.74744E+03 -1.05872E+04  1.74983E+04  6.26371E+03
  1.30280E+04  2.18380E+04 -6.58954E+03  2.41322E+04 -2.19743E+04  1.03897E+04 -2.63736E+04 -5.45369E+03
 -1.85957E+04 -1.68305E+04 -6.77026E+03 -1.87487E+04  4.09082E+03 -1.69046E+04  1.42064E+04 -1.60897E+04
  2.33734E+04 -1.22913E+04  3.01081E+04  1.95378E+03  2.24966E+04  1.81947E+04  3.94669E+03  3.40782E+04
 -1.68159E+04  2.90845E+04 -2.68773E+04  9.79571E+03 -2.03961E+04 -1.04318E+04 -4.38198E+03 -1.36812E+04
  2.11112E+03 -3.66633E+03 -4.00918E+03  5.83047E+03 -1.44089E+04  4.95490E+03 -1.47102E+04 -5.62209E+03
 -9.27092E+03 -1.71126E+04  4.85136E+03 -2.09734E+04  1.32957E+04 -1.52776E+04  1.62589E+04 -1.53467E+03
  9.97285E+03  1.19654E+04 -9.18474E+02  1.70261E+04 -1.18361E+04  9.83743E+03 -1.72242E+04 -3.64705E+03
 -1.28783E+04 -1.55952E+04 -1.85337E+03 -2.05300E+04  9.11865E+03 -1.70428E+04  1.74258E+04 -8.34434E+03
  1.57519E+04  4.35027E+02  1.14683E+04  3.98954E+03  5.93838E+03  7.81102E+02  8.44261E+03 -1.70696E+03
  1.51760E+04  2.59870E+03  1.70347E+04  1.36948E+04  1.05071E+04  2.72248E+04 -2.83779E+03  3.03125E+04
 -1.74568E+04  2.38120E+04 -2.79875E+04  1.13516E+04 -2.87131E+04 -2.25960E+03 -2.41710E+04 -1.63501E+04
 -1.09401E+04 -2.36343E+04  8.06523E+03 -2.17402E+04  1.88307E+04 -1.14659E+04  1.72860E+04  4.36608E+03
  6.65666E+03  1.25805E+04 -7.96527E+03  1.14704E+04 -1.46805E+04  2.83642E+03 -1.11917E+04 -8.89205E+03
 -5.86284E+01 -1.38172E+04  6.77008E+03 -1.03680E+04  9.06318E+03 -1.12832E+03  1.97861E+03  5.67979E+03
 -6.32223E+03  2.17293E+03 -4.84998E+03 -4.78127E+03  3.95768E+01 -1.17410E+04  8.50989E+03 -1.21040E+04
  1.44240E+04 -5.87062E+03  1.46944E+04  2.89331E+03  1.24659E+04  1.12189E+04  5.97787E+03  1.66665E+04
 -2.32218E+03  1.83891E+04 -1.14242E+04  1.19222E+04 -1.34895E+04  2.98683E+03 -9.64224E+03 -2.73144E+03
 -5.03840E+03 -3.85503E+03 -5.77036E+02  1.22613E+03 -1.96120E+03  2.22636E+03 -4.32799E+03  3.99017E+03
 -9.29245E+03 -4.84610E+02 -9.96731E+03 -8.15942E+03 -3.85658E+03 -1.28440E+04  4.23334E+03 -9.80301E+03
  8.22070E+03 -4.32917E+03  5.99505E+03  2.30453E+03  3.44189E+02  3.72387E+03 -4.30420E+03  8.58421E+01
 -4.15445E+03 -6.22450E+03 -9.28332E+02 -8.59733E+03  4.90051E+03 -9.51745E+03  1.18417E+04 -5.14599E+03
  1.38934E+04  1.30665E+03  1.02298E+04  7.42782E+03  2.15236E+03  1.08076E+04 -5.81306E+03  9.70494E+03
 -7.77514E+03  3.06705E+03 -4.01457E+03 -1.84562E+03  1.52968E+03 -2.17034E+03  5.26919E+03 -1.13373E+03
  4.90268E+03  3.69104E+03  1.17461E+03  7.43871E+03 -5.30081E+03  7.46394E+03 -9.14691E+03  1.96043E+03
 -5.62909E+03 -4.70691E+03  3.59506E+02 -8.00881E+03  4.40917E+03 -3.91597E+03  4.42211E+03  1.28208E+03
  1.07304E+03  4.28710E+03 -4.89081E+03  5.92638E+03 -6.76095E+03  3.22187E+03 -6.20414E+03 -2.15645E+03
 -3.84456E+03 -7.57678E+03  1.14288E+03 -8.86800E+03  7.74990E+03 -5.77377E+03  8.24629E+03  1.33805E+03
  5.49585E+03  6.64082E+03 -1.16082E+02  8.79925E+03 -6.42947E+03  5.12783E+03 -6.74273E+03 -4.31701E+02
 -6.49215E+03 -5.70039E+03 -1.75277E+03 -6.00383E+03  3.42450E+03 -5.22111E+03  3.67100E+03 -2.94793E+03
  3.22083E+03  5.31201E+02 -3.36624E+02  1.52895E+03  2.92618E+02 -8.08653E+02  4.88806E+02 -2.85051E+03
  5.08756E+03 -1.26560E+03  7.11242E+03  7.74395E+02  7.48268E+03  4.29591E+03  6.34078E+03  9.46220E+03
 -1.54329E+03  1.09794E+04 -9.87084E+03  8.54226E+03 -1.26851E+04  1.45959E+03 -9.87146E+03 -3.79137E+03
 -5.38207E+03 -8.20793E+03 -5.50043E+02 -6.91199E+03  2.73144E+03 -3.13978E+03  2.33849E+03 -2.54398E+03
  1.49698E+03 -1.63853E+03  2.40327E+03 -2.60161E+03  3.61995E+03 -1.68304E+03  4.31472E+03  2.95442E+02
  5.75704E+03  1.37861E+03  1.72686E+03  4.38956E+03 -1.62023E+03  4.31815E+03 -5.56229E+03  3.67395E+03
 -6.50341E+03 -9.59035E+02 -3.03961E+03 -4.56148E+03  2.10949E+02 -6.42736E+03  4.16009E+03 -7.13764E+03
  6.71267E+03 -4.32623E+03  8.64551E+03  5.66793E+02  6.41323E+03  5.71508E+03  1.27669E+03  7.87036E+03
 -3.09613E+03  7.16264E+03 -4.45336E+03  2.43896E+03 -2.88214E+03 -1.47831E+03 -7.19865E+02 -1.08499E+03
 -4.60239E+02  1.68297E+02 -8.92310E+02  2.14706E+03 -3.31502E+03  1.48328E+03 -4.87551E+03 -2.72928E+02
 -2.09849E+03 -4.88626E+03  5.48585E+02 -6.35320E+03  3.66276E+03 -6.03344E+03  5.11570E+03 -1.53507E+03
  5.63326E+03  3.27000E+03  2.66017E+03  4.86139E+03 -1.45488E+03  6.06217E+03 -3.93118E+03  3.64878E+03
 -5.14930E+03  6.13709E+02 -4.58378E+03 -3.50622E+03 -4.73234E+02 -4.65669E+03  2.41086E+03 -3.58056E+03
  4.02648E+03 -1.93877E+03  2.19504E+03  7.05998E+02  4.60814E+02  2.07198E+03  8.93130E+02  8.41248E+02
  1.92574E+03  7.28141E+02  1.64072E+03  1.41261E+03  1.68769E+03  2.62332E+03  1.60130E+03  2.70235E+03
 -1.34807E+03  4.53773E+03 -3.65942E+03  5.25948E+03 -4.94082E+03  1.40480E+03 -6.08477E+03 -1.23878E+03
 -2.62527E+03 -5.38117E+03  8.25672E+02 -6.63784E+03  3.02572E+03 -3.61943E+03  4.63227E+03 -1.22722E+03
  3.41610E+03  2.32557E+03  6.29629E+02  3.25750E+03 -1.08211E+03  1.66702E+03 -2.11798E+03 -2.78892E+02
 -9.24541E+02 -2.20536E+03  1.59718E+03 -2.70724E+03  1.82800E+03 -1.12390E+03  2.34388E+03  2.27072E+02
  1.25335E+03  7.31230E+02  6.16651E+02  3.25498E+02 -1.85305E+02  8.74761E+02  1.49469E+03 -3.29790E+02
  5.66344E+02 -1.42932E+02  2.37509E+03  4.10462E+02  9.25229E+02  3.02289E+03 -6.20497E+02  4.04199E+03
 -2.49667E+03  1.90811E+03 -2.91967E+03  6.25517E+02 -2.81011E+03 -1.16093E+03 -2.94797E+02 -1.41738E+03
  3.42491E+02 -1.79484E+03  1.29023E+03 -9.65255E+02  8.04231E+02  1.46392E+03 -9.99662E+02  1.66175E+03
 -2.30816E+03  9.42338E+02 -1.81362E+03 -1.80622E+03 -1.38861E+03 -2.86717E+03  5.33256E+02 -2.61585E+03
  1.04344E+03 -1.34748E+03  1.62514E+03  2.85693E+01  1.79579E+03  2.98390E+02  4.81314E+02  1.67060E+03
 -6.82802E+02  8.78273E+01 -1.48280E+03 -3.27557E+02  8.35666E+02 -1.65053E+03  2.45233E+03 -1.63089E+03
  2.55936E+03  1.23288E+02  3.94279E+03  1.53809E+03  1.38011E+03  2.77093E+03 -7.90621E+02  2.81132E+03
 -2.28439E+03  8.39333E+02 -2.44666E+03 -3.08363E+02 -1.59248E+03 -2.03144E+03  6.76832E+02 -1.12142E+03
  1.97637E+03 -9.62420E+02  1.37114E+03  8.01003E+02  4.75014E+02  1.72381E+03  3.27935E+02  1.66705E+03
 -8.17243E+02  1.11171E+03 -7.48462E+02  3.45092E+02 -1.88620E+02  6.43027E+02 -1.06334E+03  1.00338E+03
 -9.87595E+02  1.38545E+03 -2.53671E+03  1.06516E+03 -2.64679E+03 -6.51274E+01 -3.53414E+03 -1.91340E+03
 -1.77788E+03 -3.84794E+03  7.45952E+02 -4.48427E+03  2.51464E+03 -3.68238E+03  4.18459E+03 -1.58177E+03
  3.60752E+03  1.73383E+02  2.44337E+03  2.64007E+03 -1.15699E+02  2.71261E+03 -1.28369E+03  1.90491E+03
 -1.40145E+03  1.02114E+03 -1.09200E+03 -2.25441E+02 -2.96033E+02  2.14053E+02 -5.69583E+02  4.59386E+00
 -1.03944E+03 -4.90289E+01 -1.30391E+03 -1.45046E+02 -3.05509E+01 -6.46841E+02 -3.55163E+02 -1.15361E+03
  1.95237E+03 -6.81191E+02  1.34841E+03  1.27358E+02  1.89574E+03  1.64915E+03  1.13661E+02  2.52586E+03
 -1.55742E+03  3.33724E+03 -3.19587E+03  1.93184E+03 -3.02688E+03 -3.62987E+02 -2.07105E+03 -2.08358E+03
 -1.10159E+03 -2.55489E+03  5.47568E+02 -2.18487E+03  1.17319E+03 -1.23140E+03  1.33762E+03  2.16815E+01
  1.11201E+03  5.97687E+02 -2.09107E+01  7.76911E+02 -4.77254E+02 -1.59250E+01 -3.38416E+02 -4.50214E+02
  4.74314E+02  3.03912E+01  6.44859E+02  5.17733E+02  6.17388E+02  6.22064E+02  2.77584E+02  7.56460E+02
 -9.72164E+02  1.20776E+03 -1.43182E+03  2.78677E+02 -1.42006E+03 -1.08113E+03 -1.51718E+02 -2.15275E+03
  1.04270E+03 -1.47758E+03  1.36099E+03 -2.93174E+02  1.48826E+03 -3.80092E+02  1.30107E+03  1.53735E+03
  5.60649E+02  1.26669E+03 -2.69612E+02  6.79239E+02 -1.30201E+03  6.76776E+02 -1.02265E+03  1.30020E+02
 -4.01181E+02 -1.33224E+02 -5.85793E+02  1.21397E+02 -5.35929E+02  2.78000E+02 -1.36003E+03 -2.06603E+02
 -1.30111E+03 -2.18184E+02 -4.91101E+02 -1.60270E+03  1.08996E+03 -2.20230E+03  1.39493E+03 -7.80698E+02
  1.28144E+03 -4.65828E+01  4.20366E+01  5.22595E+02 -1.29334E+02  1.29785E+03 -7.26312E+02  1.12782E+03
