 $NMID ID='MM_0lb_SNR800_12hz_g55_51.RAW', FMTDAT='(8E13.5)'
 TRAMP=1., VOLUME=1. $END
  3.09860E+05  3.05558E+02  3.37780E+05  2.50447E+05  8.48630E+04  3.38249E+05 -1.32788E+05  2.51763E+05
 -1.90972E+05  8.36002E+04 -1.12559E+05 -3.23326E+04  5.25651E+02 -5.08924E+04  5.38250E+04 -5.43748E+02
  3.52521E+04  5.28868E+04 -1.68448E+04  7.57820E+04 -6.11967E+04  6.40165E+04 -8.48670E+04  3.19979E+04
 -8.19673E+04 -1.19705E+04 -5.77453E+04 -5.15313E+04 -1.51481E+04 -7.01648E+04  2.75310E+04 -4.63600E+04
  4.07915E+04  3.67551E+03  1.61460E+04  4.81273E+04 -3.45934E+04  4.74887E+04 -6.77155E+04 -3.53148E+02
 -5.41400E+04 -5.74463E+04 -7.43589E+03 -7.79800E+04  3.46719E+04 -5.62269E+04  4.90468E+04 -1.78271E+04
  4.43951E+04  1.12718E+04  3.26058E+04  2.59141E+04  1.60963E+04  2.97935E+04 -5.55559E+03  2.80282E+04
 -2.20154E+04  1.21601E+04 -1.82749E+04 -5.74583E+03  6.42875E+03 -7.45368E+03  2.29295E+04  1.32348E+04
  7.05299E+03  3.64249E+04 -3.28131E+04  3.63504E+04 -6.45657E+04  2.29785E+03 -5.80212E+04 -4.35988E+04
 -1.27425E+04 -6.45871E+04  4.08169E+04 -4.66538E+04  5.97609E+04 -2.60249E+03  3.56567E+04  3.35811E+04
 -5.84176E+03  3.80752E+04 -3.09840E+04  1.76465E+04 -3.20429E+04 -4.11945E+03 -1.81524E+04 -1.14788E+04
 -8.95073E+03 -1.44218E+04 -5.41448E+02 -1.88074E+04  7.85877E+03 -2.31597E+04  1.52720E+04 -1.29725E+04
  1.07502E+04  6.06500E+03 -9.44930E+03  1.26100E+04 -2.22908E+04 -5.99374E+03 -8.36966E+03 -3.58184E+04
  2.42842E+04 -4.52738E+04  5.05236E+04 -2.00140E+04  4.68040E+04  2.02240E+04  1.63543E+04  4.55475E+04
 -1.63255E+04  3.50066E+04 -2.65530E+04  2.08464E+03 -1.05847E+04 -2.87460E+04  2.14112E+04 -3.53276E+04
  4.28725E+04 -1.01262E+04  3.80448E+04  2.40863E+04  1.97490E+04  4.87602E+04 -8.21259E+03  5.32045E+04
 -3.33251E+04  3.65290E+04 -4.53061E+04  1.01870E+04 -4.50692E+04 -1.77424E+04 -2.49762E+04 -3.98833E+04
  7.43294E+03 -4.00777E+04  3.29138E+04 -1.61038E+04  3.07731E+04  1.11430E+04  4.41954E+03  2.03809E+04
 -1.37691E+04  8.85806E+03 -1.07656E+04 -7.81811E+03  5.67444E+03 -1.09391E+04  1.86099E+04  5.62750E+03
  1.44339E+04  2.26179E+04 -5.32200E+03  2.63016E+04 -2.32209E+04  1.30405E+04 -2.96632E+04 -3.93927E+03
 -2.29205E+04 -1.82419E+04 -1.00099E+04 -2.25245E+04  4.14520E+03 -2.32815E+04  1.75821E+04 -2.05650E+04
  2.91122E+04 -1.33787E+04  3.55023E+04  3.87275E+03  2.57446E+04  2.23118E+04  4.44995E+03  3.88835E+04
 -1.84763E+04  3.21211E+04 -2.89881E+04  1.13978E+04 -2.19720E+04 -1.05701E+04 -4.46170E+03 -1.31283E+04
  1.37637E+03 -1.81108E+03 -6.23036E+03  7.65009E+03 -1.85210E+04  5.14597E+03 -1.83277E+04 -8.57824E+03
 -1.08973E+04 -2.12884E+04  5.60229E+03 -2.54419E+04  1.69369E+04 -1.83318E+04  2.04357E+04 -1.53565E+03
  1.30674E+04  1.52516E+04 -8.68311E+02  2.13918E+04 -1.49259E+04  1.19819E+04 -2.16378E+04 -4.23242E+03
 -1.58488E+04 -1.89339E+04 -2.10595E+03 -2.54391E+04  1.17454E+04 -2.10072E+04  2.11588E+04 -1.05240E+04
  2.01614E+04 -3.84871E+01  1.45370E+04  4.84620E+03  7.82019E+03  1.11968E+03  1.09973E+04 -2.01037E+03
  1.97346E+04  2.74771E+03  2.26584E+04  1.68476E+04  1.47334E+04  3.41441E+04 -2.70654E+03  3.92860E+04
 -2.26427E+04  3.20812E+04 -3.67379E+04  1.62878E+04 -3.89161E+04 -2.27063E+03 -3.18023E+04 -2.24905E+04
 -1.29382E+04 -3.26708E+04  1.12217E+04 -2.84378E+04  2.41786E+04 -1.42642E+04  2.15786E+04  6.49802E+03
  7.43408E+03  1.63533E+04 -1.01998E+04  1.42914E+04 -1.79084E+04  2.63267E+03 -1.38357E+04 -1.15056E+04
 -2.00985E+02 -1.76723E+04  8.88685E+03 -1.30660E+04  1.18812E+04 -1.40008E+03  3.10496E+03  7.65537E+03
 -8.05467E+03  3.28634E+03 -7.30923E+03 -6.23402E+03 -8.29782E+02 -1.60997E+04  1.09012E+04 -1.70161E+04
  1.98506E+04 -9.53089E+03  2.20925E+04  3.19662E+03  1.94258E+04  1.59864E+04  8.66688E+03  2.46584E+04
 -4.74922E+03  2.66239E+04 -1.70237E+04  1.63979E+04 -1.96002E+04  4.11965E+03 -1.30731E+04 -4.52535E+03
 -5.78486E+03 -6.27937E+03 -9.94251E+02  1.22850E+02 -2.83140E+03  3.14307E+03 -6.13342E+03  4.54243E+03
 -1.21043E+04 -9.92138E+02 -1.34060E+04 -1.03373E+04 -4.82595E+03 -1.74290E+04  5.65056E+03 -1.33087E+04
  1.11120E+04 -5.70413E+03  7.81170E+03  3.65067E+03  1.77798E+02  5.02943E+03 -6.61976E+03  7.02224E+01
 -6.06052E+03 -8.42214E+03 -1.12368E+03 -1.29558E+04  7.32058E+03 -1.37084E+04  1.68024E+04 -6.96430E+03
  1.96885E+04  1.66728E+03  1.42087E+04  1.18594E+04  2.68484E+03  1.58215E+04 -8.31866E+03  1.33315E+04
 -1.10026E+04  4.27676E+03 -5.24555E+03 -2.68763E+03  1.97980E+03 -3.38288E+03  7.25532E+03 -8.76284E+02
  6.52391E+03  5.79753E+03  1.18505E+03  1.06574E+04 -7.66144E+03  1.05038E+04 -1.28032E+04  2.09811E+03
 -8.81522E+03 -6.83152E+03  2.58008E+02 -1.11975E+04  6.98508E+03 -5.63044E+03  7.43509E+03  2.53240E+03
  1.53767E+03  8.22592E+03 -6.65601E+03  9.11446E+03 -1.09563E+04  4.18112E+03 -1.06370E+04 -3.54299E+03
 -6.42253E+03 -1.27324E+04  3.15980E+03 -1.43841E+04  1.22519E+04 -8.69808E+03  1.31412E+04  2.44070E+03
  7.98108E+03  1.01435E+04 -5.61200E+02  1.26169E+04 -9.13612E+03  7.20713E+03 -1.01920E+04 -1.19435E+03
 -9.09717E+03 -8.75344E+03 -1.69546E+03 -9.70698E+03  5.11362E+03 -7.99910E+03  6.01128E+03 -3.32613E+03
  4.21828E+03  1.52095E+03 -4.79574E+02  1.76314E+03 -5.05652E+02 -2.42948E+03  1.82625E+03 -5.97731E+03
  8.68992E+03 -3.55227E+03  1.24655E+04  1.30885E+03  1.23569E+04  7.87450E+03  8.37995E+03  1.58499E+04
 -3.89060E+03  1.86417E+04 -1.58437E+04  1.35622E+04 -2.01440E+04  2.60027E+03 -1.60175E+04 -6.49566E+03
 -8.23109E+03 -1.35416E+04 -4.42696E+02 -1.14917E+04  4.24284E+03 -6.46893E+03  3.60167E+03 -4.02346E+03
  3.02318E+03 -2.72703E+03  3.53762E+03 -3.13206E+03  4.76382E+03 -2.51148E+03  6.20840E+03 -9.28640E+02
  8.31640E+03  2.21254E+03  4.12263E+03  7.24831E+03 -2.41639E+03  8.44258E+03 -8.64713E+03  6.56582E+03
 -1.12824E+04 -1.46414E+03 -6.70044E+03 -7.73265E+03 -7.53856E+02 -1.17863E+04  6.44318E+03 -1.19294E+04
  1.23826E+04 -6.98489E+03  1.47325E+04  1.93946E+03  1.02455E+04  1.02664E+04  1.69907E+03  1.32399E+04
 -5.25320E+03  1.13641E+04 -7.75944E+03  3.81928E+03 -5.20209E+03 -1.72933E+03 -1.90617E+03 -1.58495E+03
 -1.24290E+03  1.86844E+02 -1.70497E+03  2.88113E+03 -4.72376E+03  1.88679E+03 -7.89204E+03 -1.01965E+03
 -5.17758E+03 -8.29919E+03  5.48428E+02 -1.05333E+04  7.00577E+03 -1.00183E+04  1.00866E+04 -3.22222E+03
  1.04793E+04  5.22272E+03  5.24145E+03  9.23343E+03 -2.05990E+03  1.08104E+04 -7.37385E+03  6.58920E+03
 -9.79227E+03  6.81387E+02 -7.78483E+03 -6.45657E+03 -5.25895E+02 -8.68114E+03  4.45811E+03 -6.90208E+03
  6.79881E+03 -2.35858E+03  4.59483E+03  1.70220E+03  1.76214E+03  3.59712E+03  1.34113E+03  1.28306E+03
  2.30518E+03  9.93485E+02  2.39741E+03  1.51653E+03  3.31134E+03  4.19714E+03  2.84462E+03  5.47847E+03
 -2.19964E+03  8.44477E+03 -7.32305E+03  8.56450E+03 -1.00681E+04  2.29717E+03 -1.12263E+04 -3.88716E+03
 -4.73203E+03 -1.02165E+04  1.88704E+03 -1.20717E+04  6.34577E+03 -7.00776E+03  8.76658E+03 -1.80948E+03
  6.64668E+03  3.89139E+03  1.50252E+03  5.84772E+03 -2.96097E+03  3.75613E+03 -4.06235E+03 -7.53162E+02
 -1.78269E+03 -4.23934E+03  2.28575E+03 -4.45330E+03  4.29847E+03 -2.18476E+03  4.21565E+03  1.02297E+03
  2.53133E+03  1.98226E+03  1.20898E+03  1.19613E+03 -3.50325E+02  1.59330E+03  1.81697E+03 -5.31315E+02
  1.90381E+03 -9.10931E+02  4.25097E+03  1.55749E+03  2.05981E+03  5.58853E+03 -8.89868E+02  7.07805E+03
 -4.78705E+03  4.04713E+03 -6.39932E+03  1.42111E+03 -5.88648E+03 -2.24544E+03 -2.17687E+03 -3.65031E+03
  4.18016E+02 -3.83947E+03  2.49999E+03 -1.73032E+03  2.04398E+03  2.11630E+03 -7.98162E+02  3.51469E+03
 -4.20018E+03  2.14254E+03 -4.48302E+03 -2.51308E+03 -2.36471E+03 -5.70338E+03  8.04911E+02 -5.43003E+03
  3.10939E+03 -2.90321E+03  3.90655E+03 -8.12812E+01  3.28941E+03  1.53369E+03  6.36170E+02  2.48285E+03
 -1.75953E+03  7.58260E+02 -2.42915E+03 -1.69965E+03  1.26027E+03 -3.93004E+03  4.89602E+03 -3.37860E+03
  5.95076E+03  2.40625E+02  6.56027E+03  3.62951E+03  2.29951E+03  6.42795E+03 -1.99075E+03  6.15557E+03
 -5.26833E+03  2.27098E+03 -5.24034E+03 -8.32529E+02 -2.66640E+03 -4.22547E+03  1.19525E+03 -3.66626E+03
  4.03156E+03 -1.88780E+03  3.20838E+03  1.86137E+03  1.02287E+03  3.77309E+03 -6.97717E+02  3.22146E+03
 -1.59937E+03  2.11934E+03 -1.66418E+03  4.11433E+02 -2.20564E+02  9.16877E+02 -1.27985E+03  1.22825E+03
 -1.59189E+03  2.67446E+03 -4.54434E+03  2.06597E+03 -6.20481E+03  2.95597E+02 -7.45929E+03 -4.05840E+03
 -3.53512E+03 -8.14679E+03  1.70403E+03 -9.70363E+03  5.40454E+03 -7.71158E+03  9.20060E+03 -3.04762E+03
  8.42742E+03  1.56188E+03  5.05982E+03  5.78652E+03  4.97352E+02  6.19212E+03 -2.79831E+03  4.60140E+03
 -3.62778E+03  1.83003E+03 -2.08030E+03 -6.85022E+02 -9.77857E+02 -3.54548E+02 -1.04396E+03 -1.44806E+02
 -1.61390E+03  2.15423E+02 -1.42130E+03 -4.19552E+02 -5.11162E+02 -1.73157E+03  1.52515E+01 -2.66437E+03
  2.77710E+03 -1.95495E+03  3.83111E+03 -1.53656E+02  4.58802E+03  3.56116E+03  1.02360E+03  6.07015E+03
 -2.86374E+03  7.07733E+03 -6.49703E+03  4.24707E+03 -7.43581E+03 -5.06038E+02 -5.60710E+03 -4.57624E+03
 -2.74817E+03 -6.35037E+03  1.14774E+03 -5.60640E+03  3.78020E+03 -3.04767E+03  4.06362E+03  4.95556E+02
  2.22088E+03  1.77226E+03 -8.33740E+01  1.53864E+03 -1.14786E+03 -1.14676E+02 -1.10629E+02 -1.19811E+03
  1.98817E+03 -4.44790E+02  2.32410E+03  7.97438E+02  1.09753E+03  2.44400E+03  2.59473E+02  2.87833E+03
 -2.45590E+03  3.13431E+03 -3.93601E+03  6.74910E+02 -3.55528E+03 -2.76338E+03 -3.70158E+02 -4.91172E+03
  2.82299E+03 -3.98055E+03  4.56296E+03 -1.22577E+03  4.66332E+03  8.00682E+02  2.10456E+03  3.48936E+03
  6.07526E+02  3.36726E+03 -1.42549E+03  3.38797E+03 -2.38723E+03  1.98151E+03 -2.26081E+03  1.83801E+02
 -1.06303E+03 -1.72480E+02 -1.14997E+03  4.97674E+02 -2.46876E+03  7.70561E+02 -2.78223E+03 -8.06424E+02
 -3.27810E+03 -1.53461E+03 -9.01668E+02 -3.75543E+03  1.64276E+03 -4.48674E+03  3.59409E+03 -1.92739E+03
  4.03223E+03  4.54235E+02  1.60563E+03  2.44707E+03 -5.14265E+02  3.83977E+03 -2.77351E+03  2.52228E+03
