 $NMID ID='MM_0lb_SNR800_13hz_g45_14.RAW', FMTDAT='(8E13.5)'
 TRAMP=1., VOLUME=1. $END
  3.09748E+05  6.91192E+02  3.37462E+05  2.50398E+05  8.48474E+04  3.37881E+05 -1.32581E+05  2.51186E+05
 -1.90139E+05  8.30614E+04 -1.12295E+05 -3.25675E+04  6.16436E+02 -5.02908E+04  5.36420E+04 -1.67884E+02
  3.55377E+04  5.27973E+04 -1.67834E+04  7.52442E+04 -6.08111E+04  6.38652E+04 -8.42332E+04  3.16683E+04
 -8.09590E+04 -1.16574E+04 -5.72106E+04 -5.10041E+04 -1.48721E+04 -6.96400E+04  2.73763E+04 -4.57701E+04
  4.02051E+04  3.65082E+03  1.64002E+04  4.78342E+04 -3.42752E+04  4.76171E+04 -6.68416E+04 -4.52410E+02
 -5.37376E+04 -5.71203E+04 -7.05572E+03 -7.73003E+04  3.42160E+04 -5.50168E+04  4.82283E+04 -1.68895E+04
  4.32474E+04  1.13663E+04  3.21093E+04  2.54946E+04  1.53931E+04  2.94872E+04 -5.43128E+03  2.74644E+04
 -2.21431E+04  1.22648E+04 -1.85292E+04 -4.89172E+03  5.84042E+03 -7.51579E+03  2.23812E+04  1.22524E+04
  7.05736E+03  3.53083E+04 -3.22702E+04  3.57894E+04 -6.33594E+04  2.14207E+03 -5.74995E+04 -4.27194E+04
 -1.24235E+04 -6.34756E+04  3.98580E+04 -4.54553E+04  5.85049E+04 -2.20132E+03  3.44632E+04  3.27675E+04
 -6.09017E+03  3.61027E+04 -3.00197E+04  1.61029E+04 -3.07975E+04 -4.46735E+03 -1.68692E+04 -1.08320E+04
 -8.76072E+03 -1.33749E+04 -7.41766E+02 -1.84735E+04  7.87251E+03 -2.28325E+04  1.55828E+04 -1.34747E+04
  1.15311E+04  5.18460E+03 -8.72629E+03  1.27566E+04 -2.13057E+04 -4.38124E+03 -8.88011E+03 -3.39758E+04
  2.29808E+04 -4.39732E+04  4.81877E+04 -1.95942E+04  4.50787E+04  1.96260E+04  1.58563E+04  4.47033E+04
 -1.59321E+04  3.36886E+04 -2.55995E+04  2.04939E+03 -1.01082E+04 -2.78464E+04  2.10509E+04 -3.39381E+04
  4.15644E+04 -9.27904E+03  3.61375E+04  2.39855E+04  1.87846E+04  4.71989E+04 -8.06854E+03  5.04846E+04
 -3.17549E+04  3.42517E+04 -4.27557E+04  9.45876E+03 -4.30505E+04 -1.68644E+04 -2.36501E+04 -3.86056E+04
  7.04460E+03 -3.80849E+04  3.14901E+04 -1.51334E+04  2.95334E+04  1.10579E+04  4.40811E+03  1.96808E+04
 -1.36340E+04  8.97157E+03 -1.01961E+04 -7.44160E+03  5.73471E+03 -1.06718E+04  1.79288E+04  5.94196E+03
  1.38147E+04  2.21037E+04 -5.97027E+03  2.52537E+04 -2.23621E+04  1.15122E+04 -2.83928E+04 -4.56027E+03
 -2.10656E+04 -1.77836E+04 -9.04341E+03 -2.07344E+04  3.97269E+03 -2.03185E+04  1.62263E+04 -1.85299E+04
  2.66677E+04 -1.30211E+04  3.30800E+04  2.91121E+03  2.40963E+04  2.03585E+04  4.36918E+03  3.69909E+04
 -1.80357E+04  3.06670E+04 -2.83148E+04  1.07780E+04 -2.10678E+04 -1.01832E+04 -4.67259E+03 -1.34886E+04
  1.45382E+03 -2.45620E+03 -4.72786E+03  6.76711E+03 -1.65008E+04  4.99474E+03 -1.65570E+04 -7.10875E+03
 -1.03140E+04 -1.95393E+04  5.08937E+03 -2.35159E+04  1.53982E+04 -1.67258E+04  1.85582E+04 -1.60270E+03
  1.15185E+04  1.35097E+04 -9.16170E+02  1.96195E+04 -1.38137E+04  1.09477E+04 -1.92044E+04 -3.82419E+03
 -1.45474E+04 -1.73741E+04 -1.92995E+03 -2.34071E+04  1.05878E+04 -1.94027E+04  1.92685E+04 -9.53787E+03
  1.80877E+04  8.93001E+01  1.30689E+04  4.40625E+03  6.98859E+03  1.10245E+03  9.75535E+03 -1.50614E+03
  1.80108E+04  3.11137E+03  1.99772E+04  1.57211E+04  1.31223E+04  3.09789E+04 -3.12876E+03  3.52700E+04
 -2.05779E+04  2.82388E+04 -3.29490E+04  1.43085E+04 -3.46588E+04 -2.51969E+03 -2.89738E+04 -1.99493E+04
 -1.22053E+04 -2.84412E+04  9.79545E+03 -2.58588E+04  2.19088E+04 -1.31608E+04  1.98374E+04  5.70834E+03
  7.18025E+03  1.50425E+04 -9.45492E+03  1.30465E+04 -1.65733E+04  2.53787E+03 -1.28926E+04 -1.03177E+04
 -3.12566E+02 -1.59726E+04  8.02686E+03 -1.17071E+04  1.03564E+04 -1.44834E+03  2.30715E+03  7.06987E+03
 -6.83627E+03  2.54323E+03 -6.27065E+03 -5.79811E+03 -5.25879E+02 -1.40009E+04  9.99783E+03 -1.46928E+04
  1.73517E+04 -7.96499E+03  1.89509E+04  3.21610E+03  1.63663E+04  1.39919E+04  7.52762E+03  2.14350E+04
 -3.60566E+03  2.29996E+04 -1.47642E+04  1.46794E+04 -1.65152E+04  3.25384E+03 -1.20360E+04 -4.05635E+03
 -5.33163E+03 -5.02595E+03 -6.01830E+02  8.86468E+02 -2.63118E+03  2.75240E+03 -5.39297E+03  4.43137E+03
 -1.09276E+04 -6.33924E+02 -1.15355E+04 -9.18230E+03 -4.74984E+03 -1.53333E+04  4.71518E+03 -1.17954E+04
  9.78013E+03 -4.96990E+03  7.05747E+03  3.15865E+03  1.07247E+02  4.32078E+03 -5.50392E+03  6.31244E+01
 -5.20439E+03 -7.39662E+03 -8.02340E+02 -1.10364E+04  6.56800E+03 -1.18594E+04  1.49124E+04 -6.54296E+03
  1.75228E+04  1.37422E+03  1.25159E+04  1.01211E+04  2.44726E+03  1.32375E+04 -7.15656E+03  1.16748E+04
 -9.66822E+03  3.70443E+03 -5.23083E+03 -2.02493E+03  1.53663E+03 -3.24486E+03  6.71266E+03 -1.12808E+03
  5.76863E+03  5.05994E+03  1.22441E+03  9.01770E+03 -6.77769E+03  8.85322E+03 -1.14715E+04  2.19871E+03
 -7.63800E+03 -5.60867E+03  6.08302E+02 -9.97984E+03  6.27971E+03 -4.98997E+03  6.25708E+03  2.05091E+03
  1.39514E+03  6.51367E+03 -5.94547E+03  7.95469E+03 -9.15223E+03  4.03328E+03 -8.79715E+03 -3.06759E+03
 -5.27467E+03 -1.05394E+04  2.12531E+03 -1.19199E+04  1.01194E+04 -7.63344E+03  1.16147E+04  1.82110E+03
  6.89437E+03  8.89797E+03 -7.46881E+02  1.11311E+04 -8.14047E+03  6.41403E+03 -8.80500E+03 -6.39039E+02
 -8.05479E+03 -7.80085E+03 -1.55599E+03 -8.42922E+03  4.36571E+03 -7.05666E+03  4.91420E+03 -3.21227E+03
  4.25154E+03  1.11947E+03 -2.56531E+02  1.50259E+03  1.53597E+02 -1.65704E+03  9.53723E+02 -4.45486E+03
  6.85788E+03 -2.53159E+03  9.89941E+03  1.00751E+03  1.01273E+04  6.44371E+03  7.63220E+03  1.34754E+04
 -2.84967E+03  1.54192E+04 -1.31569E+04  1.16859E+04 -1.72212E+04  2.09981E+03 -1.36949E+04 -5.50195E+03
 -6.95249E+03 -1.12861E+04 -3.90699E+02 -9.23387E+03  3.43882E+03 -5.26758E+03  3.38217E+03 -3.51791E+03
  2.31924E+03 -2.01277E+03  2.89334E+03 -3.06104E+03  4.61256E+03 -2.36132E+03  5.66518E+03 -6.32134E+02
  7.27948E+03  1.65843E+03  3.24420E+03  6.31058E+03 -1.96889E+03  6.55553E+03 -7.66983E+03  5.09422E+03
 -9.42430E+03 -1.02664E+03 -5.38960E+03 -6.01735E+03 -1.09142E+02 -9.97000E+03  5.41341E+03 -1.00364E+04
  1.00485E+04 -5.45464E+03  1.23192E+04  1.07585E+03  8.72066E+03  8.30568E+03  1.64789E+03  1.10649E+04
 -4.67212E+03  9.48070E+03 -6.65332E+03  3.31878E+03 -3.94412E+03 -1.83469E+03 -1.76321E+03 -1.26192E+03
 -9.27358E+02 -1.22212E+02 -1.64694E+03  2.73658E+03 -4.09139E+03  1.64443E+03 -6.40275E+03 -8.58663E+02
 -4.06495E+03 -6.66294E+03  1.39568E+02 -9.16341E+03  5.42871E+03 -8.52833E+03  8.74086E+03 -2.35980E+03
  8.70503E+03  4.36490E+03  3.96736E+03  7.80803E+03 -1.64318E+03  8.95683E+03 -5.64284E+03  5.64996E+03
 -8.05051E+03  5.22683E+02 -6.53097E+03 -5.54348E+03 -5.51696E+02 -6.96700E+03  3.73323E+03 -5.25435E+03
  5.65331E+03 -1.73965E+03  3.67893E+03  1.87151E+03  1.45631E+03  2.92023E+03  9.61357E+02  8.74259E+02
  2.16400E+03  8.97381E+02  1.96138E+03  1.66514E+03  2.47458E+03  3.48539E+03  2.20933E+03  4.20032E+03
 -2.07279E+03  6.56807E+03 -5.67684E+03  7.24601E+03 -8.15521E+03  2.16204E+03 -8.79451E+03 -2.82238E+03
 -4.13496E+03 -8.39522E+03  1.64155E+03 -9.49280E+03  5.07563E+03 -5.73326E+03  6.69111E+03 -1.57493E+03
  5.44809E+03  3.06752E+03  1.21298E+03  5.11485E+03 -1.93354E+03  2.84877E+03 -3.02069E+03 -4.50275E+02
 -1.41865E+03 -3.59059E+03  2.20309E+03 -3.48087E+03  3.33075E+03 -1.66166E+03  3.03758E+03  7.76402E+02
  1.82109E+03  1.47961E+03  1.04676E+03  9.51699E+02 -7.72290E+02  1.10396E+03  1.47507E+03 -3.87784E+02
  1.09753E+03 -1.24386E+02  3.86919E+03  1.49582E+03  1.59072E+03  4.86843E+03 -4.95296E+02  6.11364E+03
 -3.78742E+03  3.27107E+03 -5.02650E+03  5.52993E+02 -4.89756E+03 -1.89568E+03 -1.61921E+03 -2.95082E+03
  6.13506E+02 -2.79409E+03  1.95649E+03 -1.39838E+03  1.42080E+03  1.92625E+03 -1.39280E+03  2.87661E+03
 -3.40624E+03  1.50275E+03 -3.48151E+03 -2.09972E+03 -2.17635E+03 -4.54551E+03  8.21437E+02 -4.30020E+03
  2.40025E+03 -2.39344E+03  2.75606E+03 -3.29961E+02  2.78783E+03  1.00478E+03  3.94135E+02  2.63616E+03
 -1.55179E+03  7.40401E+02 -2.21316E+03 -1.52800E+03  9.03288E+02 -2.87897E+03  3.97017E+03 -2.62329E+03
  4.72727E+03  5.01277E+02  5.60660E+03  3.15476E+03  1.67435E+03  5.16549E+03 -1.38794E+03  4.85737E+03
 -4.02620E+03  1.64238E+03 -4.45000E+03 -6.41428E+02 -2.18688E+03 -3.14910E+03  5.84427E+02 -2.77360E+03
  3.49983E+03 -1.75846E+03  2.44138E+03  1.57432E+03  8.68523E+02  2.94669E+03 -4.92879E+02  2.38382E+03
 -1.28950E+03  1.89874E+03 -9.52048E+02  3.98270E+02 -4.22799E+02  6.40874E+02 -8.85909E+02  1.46397E+03
 -1.28426E+03  1.88191E+03 -3.48995E+03  1.80181E+03 -4.49799E+03  8.61252E+01 -5.85032E+03 -3.26974E+03
 -2.81361E+03 -6.35761E+03  1.22017E+03 -7.29134E+03  4.14909E+03 -5.89260E+03  7.08486E+03 -2.02012E+03
  6.55584E+03  1.04230E+03  4.03929E+03  4.59756E+03 -3.24303E+02  4.89648E+03 -1.90181E+03  3.66423E+03
 -2.91676E+03  1.57601E+03 -1.50765E+03 -2.19847E+02 -4.87243E+02 -3.32341E+02 -7.33579E+02  6.93146E+00
 -1.63114E+03  2.61551E+02 -1.74158E+03 -3.75980E+02  1.40298E+02 -1.62663E+03 -1.59002E+02 -2.04330E+03
  2.45924E+03 -1.73077E+03  2.66844E+03  6.09556E+01  3.63034E+03  2.64638E+03  4.22649E+02  4.77445E+03
 -2.40834E+03  5.65073E+03 -5.15653E+03  3.23450E+03 -5.86522E+03 -3.95940E+02 -4.19702E+03 -3.81107E+03
 -2.40379E+03 -4.59407E+03  1.26509E+03 -4.24166E+03  3.05674E+03 -2.42045E+03  3.04000E+03 -8.20023E+01
  1.83516E+03  1.26116E+03  2.06222E+02  1.13091E+03 -1.00631E+03  2.04532E+01  1.06030E+02 -1.10530E+03
  1.71665E+03 -5.16695E+02  1.31483E+03  7.12176E+02  9.57261E+02  1.63075E+03  2.68000E+02  1.96737E+03
 -1.69783E+03  2.10036E+03 -2.96025E+03  2.87956E+02 -2.79531E+03 -1.90619E+03 -2.85950E+02 -3.92538E+03
  2.20554E+03 -2.96649E+03  3.12926E+03 -4.02217E+02  3.10666E+03  2.32841E+02  1.72343E+03  2.81120E+03
  2.90034E+02  2.65558E+03 -6.71839E+02  2.28684E+03 -2.03678E+03  1.23757E+03 -1.32378E+03  3.24253E+02
 -6.20121E+02 -3.13606E+02 -1.04319E+03  2.69830E+02 -1.84380E+03  3.68354E+02 -2.19324E+03 -4.67541E+02
 -2.51622E+03 -1.15916E+03 -6.77110E+02 -3.34552E+03  1.47298E+03 -3.52835E+03  2.83879E+03 -1.38911E+03
  2.61012E+03  4.51724E+02  8.28861E+02  1.75769E+03 -1.01396E+02  2.98443E+03 -1.85604E+03  2.16389E+03
