 $NMID ID='MM_0lb_SNR800_11hz_g60_35.RAW', FMTDAT='(8E13.5)'
 TRAMP=1., VOLUME=1. $END
  3.09608E+05  6.39409E+01  3.37289E+05  2.50928E+05  8.48929E+04  3.38457E+05 -1.32940E+05  2.51522E+05
 -1.90743E+05  8.40835E+04 -1.12403E+05 -3.23527E+04  4.32366E+02 -5.04566E+04  5.35521E+04 -4.64452E+02
  3.54875E+04  5.29684E+04 -1.66242E+04  7.58696E+04 -6.10205E+04  6.45628E+04 -8.51535E+04  3.22503E+04
 -8.27101E+04 -1.15836E+04 -5.83333E+04 -5.26107E+04 -1.51625E+04 -7.08858E+04  2.80996E+04 -4.66650E+04
  4.08160E+04  3.84135E+03  1.65645E+04  4.82146E+04 -3.45314E+04  4.78088E+04 -6.81213E+04  2.54012E+02
 -5.52665E+04 -5.73894E+04 -7.10698E+03 -7.86058E+04  3.46157E+04 -5.68824E+04  4.94660E+04 -1.83976E+04
  4.47937E+04  1.15673E+04  3.28245E+04  2.63701E+04  1.60644E+04  3.06171E+04 -5.74410E+03  2.76984E+04
 -2.21168E+04  1.21093E+04 -1.78222E+04 -5.44834E+03  6.72656E+03 -7.33838E+03  2.33683E+04  1.35977E+04
  7.14791E+03  3.72193E+04 -3.36254E+04  3.69789E+04 -6.55596E+04  2.15215E+03 -5.85567E+04 -4.41949E+04
 -1.28327E+04 -6.56630E+04  4.11596E+04 -4.72914E+04  6.13902E+04 -2.83172E+03  3.61673E+04  3.41652E+04
 -5.60933E+03  3.92364E+04 -3.15631E+04  1.84267E+04 -3.27452E+04 -3.50951E+03 -1.93919E+04 -1.21160E+04
 -9.04893E+03 -1.47358E+04 -5.55927E+02 -1.95024E+04  8.13723E+03 -2.35857E+04  1.58921E+04 -1.27211E+04
  1.03608E+04  6.22737E+03 -1.02398E+04  1.28511E+04 -2.29294E+04 -6.25651E+03 -8.33121E+03 -3.69638E+04
  2.45042E+04 -4.66771E+04  5.17968E+04 -2.09658E+04  4.81192E+04  2.06471E+04  1.68973E+04  4.67715E+04
 -1.63670E+04  3.58207E+04 -2.71042E+04  2.08222E+03 -1.14322E+04 -2.89323E+04  2.17477E+04 -3.66603E+04
  4.43622E+04 -1.07391E+04  3.99557E+04  2.49485E+04  2.05314E+04  5.01318E+04 -8.22865E+03  5.50501E+04
 -3.51697E+04  3.74259E+04 -4.68956E+04  1.08580E+04 -4.70920E+04 -1.87224E+04 -2.58288E+04 -4.14770E+04
  7.67175E+03 -4.12272E+04  3.39146E+04 -1.67364E+04  3.20728E+04  1.11090E+04  4.97798E+03  2.06425E+04
 -1.37476E+04  9.42824E+03 -1.11773E+04 -7.82773E+03  5.59578E+03 -1.13369E+04  1.87362E+04  5.50643E+03
  1.43674E+04  2.18074E+04 -5.52761E+03  2.67459E+04 -2.26795E+04  1.37537E+04 -3.11369E+04 -3.15675E+03
 -2.44331E+04 -1.83317E+04 -1.10650E+04 -2.42339E+04  4.14830E+03 -2.49270E+04  1.94053E+04 -2.20779E+04
  3.13614E+04 -1.38774E+04  3.71945E+04  4.28205E+03  2.66055E+04  2.38600E+04  3.96352E+03  4.01389E+04
 -1.94174E+04  3.33121E+04 -2.99460E+04  1.17764E+04 -2.22772E+04 -1.04002E+04 -4.53002E+03 -1.29500E+04
  7.50507E+02 -1.21731E+03 -7.22567E+03  8.28420E+03 -1.94327E+04  4.90928E+03 -1.94763E+04 -9.18887E+03
 -1.13736E+04 -2.29582E+04  6.20853E+03 -2.72892E+04  1.78502E+04 -1.91173E+04  2.14456E+04 -2.02011E+03
  1.41523E+04  1.59515E+04 -1.31436E+03  2.28699E+04 -1.58754E+04  1.31104E+04 -2.30964E+04 -4.61571E+03
 -1.66573E+04 -2.00804E+04 -2.01338E+03 -2.69551E+04  1.25573E+04 -2.27601E+04  2.25865E+04 -1.14955E+04
  2.13184E+04 -3.53990E+01  1.52980E+04  5.28839E+03  8.37313E+03  9.35113E+02  1.17215E+04 -2.07031E+03
  2.11949E+04  3.13897E+03  2.43219E+04  1.81088E+04  1.63957E+04  3.62780E+04 -2.20249E+03  4.24273E+04
 -2.44090E+04  3.48465E+04 -4.02700E+04  1.80346E+04 -4.23861E+04 -3.23830E+03 -3.44701E+04 -2.50741E+04
 -1.39546E+04 -3.57336E+04  1.22624E+04 -3.14297E+04  2.67364E+04 -1.49623E+04  2.35409E+04  7.25561E+03
  7.94314E+03  1.77907E+04 -1.09878E+04  1.49213E+04 -1.91919E+04  2.56956E+03 -1.46718E+04 -1.23338E+04
 -2.46978E+02 -1.85416E+04  9.82389E+03 -1.38939E+04  1.23130E+04 -1.66922E+03  3.45775E+03  8.29658E+03
 -8.74980E+03  3.77649E+03 -8.51373E+03 -6.69309E+03 -1.77006E+03 -1.71836E+04  1.13602E+04 -1.88286E+04
  2.17668E+04 -1.01499E+04  2.44283E+04  3.25461E+03  2.15571E+04  1.74702E+04  9.98596E+03  2.74477E+04
 -5.43005E+03  2.92134E+04 -1.91889E+04  1.84289E+04 -2.08348E+04  4.15205E+03 -1.44591E+04 -5.15298E+03
 -6.10142E+03 -6.79081E+03 -1.06185E+03  7.16099E+02 -2.39083E+03  3.40976E+03 -6.97165E+03  5.42524E+03
 -1.34023E+04 -9.76728E+02 -1.34312E+04 -1.12366E+04 -5.95854E+03 -1.82260E+04  6.37330E+03 -1.51128E+04
  1.19328E+04 -6.30769E+03  8.59875E+03  3.66113E+03 -6.09615E+02  5.96330E+03 -7.24465E+03 -2.00682E+02
 -7.14032E+03 -9.55921E+03 -1.15166E+03 -1.46087E+04  8.34886E+03 -1.56636E+04  1.87960E+04 -8.10561E+03
  2.17322E+04  2.32758E+03  1.57487E+04  1.31458E+04  3.17071E+03  1.80184E+04 -8.84318E+03  1.48274E+04
 -1.18643E+04  4.30383E+03 -6.26393E+03 -3.10545E+03  2.07227E+03 -4.47232E+03  7.99641E+03 -1.02191E+03
  7.30843E+03  6.36855E+03  1.13413E+03  1.12724E+04 -8.43725E+03  1.13285E+04 -1.44307E+04  2.54573E+03
 -1.02270E+04 -7.57802E+03  3.40119E+01 -1.25090E+04  7.93979E+03 -6.03645E+03  8.60920E+03  2.96781E+03
  1.94688E+03  9.40263E+03 -7.31113E+03  1.02947E+04 -1.24879E+04  4.55976E+03 -1.27682E+04 -4.55357E+03
 -7.43361E+03 -1.45185E+04  3.72387E+03 -1.65818E+04  1.42283E+04 -9.98574E+03  1.52877E+04  2.11202E+03
  9.16260E+03  1.22455E+04 -1.36209E+03  1.43772E+04 -1.06202E+04  8.10578E+03 -1.19257E+04 -1.19018E+03
 -9.84598E+03 -9.74327E+03 -1.78709E+03 -1.13284E+04  6.02918E+03 -8.62876E+03  6.77717E+03 -3.34473E+03
  4.74271E+03  1.81977E+03 -8.18576E+02  1.77663E+03 -8.09708E+02 -2.78349E+03  2.04207E+03 -6.76317E+03
  1.02180E+04 -4.23644E+03  1.40739E+04  1.74929E+03  1.40809E+04  9.42792E+03  9.29283E+03  1.90124E+04
 -4.25582E+03  2.13466E+04 -1.77898E+04  1.60578E+04 -2.32124E+04  3.19220E+03 -1.87648E+04 -7.53819E+03
 -9.30092E+03 -1.53689E+04 -3.71477E+02 -1.27382E+04  4.49774E+03 -7.40811E+03  4.49330E+03 -4.78741E+03
  3.56281E+03 -3.20799E+03  3.63552E+03 -3.10910E+03  5.65282E+03 -3.09436E+03  7.17357E+03 -1.16098E+03
  9.81092E+03  1.83130E+03  4.93234E+03  8.15629E+03 -2.42342E+03  9.62869E+03 -1.00393E+04  7.60121E+03
 -1.28534E+04 -1.13621E+03 -7.70040E+03 -9.17907E+03 -1.09096E+03 -1.37143E+04  7.65877E+03 -1.38232E+04
  1.44607E+04 -7.33620E+03  1.69805E+04  2.07927E+03  1.23587E+04  1.19363E+04  2.02742E+03  1.55294E+04
 -6.16748E+03  1.32093E+04 -9.05731E+03  4.26619E+03 -6.11928E+03 -1.65803E+03 -2.40086E+03 -2.14715E+03
 -1.37719E+03 -4.77475E+01 -2.20515E+03  2.74944E+03 -5.42810E+03  2.41235E+03 -8.95527E+03 -1.09169E+03
 -6.30249E+03 -8.86273E+03  2.46087E+02 -1.28975E+04  7.76400E+03 -1.13759E+04  1.27150E+04 -3.44947E+03
  1.21092E+04  6.09130E+03  5.45857E+03  1.11597E+04 -2.39390E+03  1.29394E+04 -9.24423E+03  8.16034E+03
 -1.19021E+04  8.24121E+02 -9.17156E+03 -7.45457E+03 -1.04383E+03 -1.05274E+04  5.40186E+03 -7.57705E+03
  7.46223E+03 -2.63403E+03  5.44335E+03  2.19605E+03  1.94913E+03  3.70267E+03  1.15896E+03  1.56750E+03
  2.53318E+03  1.04794E+03  3.24732E+03  1.63573E+03  3.73816E+03  4.44688E+03  3.40831E+03  6.86557E+03
 -2.44324E+03  9.68930E+03 -8.69672E+03  9.87417E+03 -1.28207E+04  2.81689E+03 -1.36706E+04 -5.35921E+03
 -6.10301E+03 -1.26180E+04  1.85408E+03 -1.44379E+04  7.37107E+03 -8.60996E+03  1.03936E+04 -2.50444E+03
  8.05403E+03  4.94564E+03  1.59926E+03  7.16126E+03 -3.80864E+03  4.36965E+03 -5.01290E+03 -9.43446E+02
 -2.53217E+03 -5.08305E+03  2.82360E+03 -5.67541E+03  5.32820E+03 -2.98311E+03  5.25775E+03  1.19641E+03
  3.27280E+03  2.60713E+03  1.15177E+03  1.98657E+03 -1.02439E+03  1.75572E+03  1.23054E+03 -7.02382E+02
  1.97473E+03 -6.44533E+02  5.26173E+03  2.22436E+03  2.32863E+03  7.00466E+03 -1.19526E+03  8.68343E+03
 -5.47352E+03  5.83429E+03 -7.72860E+03  1.59307E+03 -7.32517E+03 -2.67979E+03 -2.96204E+03 -4.88884E+03
  1.14124E+03 -4.85412E+03  3.51781E+03 -2.17181E+03  2.80854E+03  2.78605E+03 -1.01702E+03  4.02021E+03
 -4.84766E+03  2.39722E+03 -5.43759E+03 -2.85625E+03 -3.38001E+03 -6.94848E+03  1.19262E+03 -6.81851E+03
  3.90360E+03 -3.93061E+03  4.35432E+03 -4.23000E+02  4.21927E+03  1.35232E+03  4.86154E+02  3.98783E+03
 -2.48630E+03  9.17320E+02 -3.18254E+03 -2.05450E+03  1.49027E+03 -4.86832E+03  6.12814E+03 -4.66803E+03
  7.60054E+03  4.14594E+02  7.06939E+03  4.87605E+03  2.29810E+03  7.89929E+03 -2.60064E+03  7.91913E+03
 -6.25738E+03  2.99146E+03 -6.31609E+03 -1.37072E+03 -3.64439E+03 -4.91833E+03  1.32850E+03 -4.80875E+03
  4.71956E+03 -2.47028E+03  4.16217E+03  2.04039E+03  1.39651E+03  4.77037E+03 -7.67924E+02  3.93374E+03
 -1.97296E+03  3.02236E+03 -1.77687E+03  1.05751E+03 -7.33868E+02  5.78195E+02 -1.27645E+03  1.84616E+03
 -2.16258E+03  2.99943E+03 -5.14274E+03  2.66424E+03 -7.82654E+03 -3.91131E+00 -8.73320E+03 -5.17274E+03
 -4.90460E+03 -1.08904E+04  2.14522E+03 -1.18470E+04  7.29141E+03 -9.14631E+03  1.15354E+04 -3.60990E+03
  1.07376E+04  1.89231E+03  6.12822E+03  7.45681E+03  1.07355E+02  7.65658E+03 -2.95714E+03  6.33877E+03
 -4.64390E+03  2.49129E+03 -2.27828E+03 -6.42901E+02 -6.91462E+02 -6.41061E+02 -9.15867E+02 -2.33430E+02
 -1.72909E+03  1.49523E+02 -1.81481E+03 -2.17635E+02 -2.38531E+02 -2.26775E+03  4.85826E+02 -3.26323E+03
  3.23060E+03 -2.37768E+03  4.35366E+03  1.78301E+02  5.34098E+03  4.35101E+03  1.83397E+03  7.56152E+03
 -3.60536E+03  9.19142E+03 -8.17056E+03  5.11983E+03 -9.60316E+03 -6.84583E+02 -7.00766E+03 -6.06051E+03
 -3.00216E+03 -8.13256E+03  1.75535E+03 -7.27256E+03  4.75839E+03 -4.10830E+03  5.13968E+03  4.47697E+02
  2.88599E+03  2.29015E+03 -4.06673E+02  2.01865E+03 -1.62266E+03 -8.04878E+01 -2.81308E+02 -1.69243E+03
  2.83608E+03 -1.46658E+03  3.05940E+03  1.21707E+03  1.81997E+03  3.42665E+03  1.53061E+02  3.89019E+03
 -3.16401E+03  3.22751E+03 -4.97885E+03  2.55782E+02 -4.59336E+03 -3.70690E+03 -7.06933E+02 -6.54122E+03
  3.64857E+03 -5.14306E+03  5.57265E+03 -1.48329E+03  5.70839E+03  1.44565E+03  3.63045E+03  4.62653E+03
  8.10996E+02  4.47528E+03 -1.88466E+03  3.79097E+03 -3.63646E+03  2.44529E+03 -2.66760E+03  2.54132E+02
 -1.60611E+03 -2.67923E+02 -1.60609E+03  6.98056E+02 -3.10721E+03  7.68242E+02 -4.15681E+03 -7.97839E+02
 -4.12807E+03 -2.42317E+03 -1.30042E+03 -5.01470E+03  2.26698E+03 -5.16260E+03  4.60179E+03 -2.53485E+03
  5.01043E+03  4.94350E+02  2.23742E+03  3.50274E+03 -5.25907E+02  5.06036E+03 -3.95888E+03  3.47818E+03
