 $NMID ID='MM_0lb_SNR800_16hz_g45_47.RAW', FMTDAT='(8E13.5)'
 TRAMP=1., VOLUME=1. $END
  3.10017E+05  6.15382E+02  3.37583E+05  2.50491E+05  8.45370E+04  3.37321E+05 -1.32474E+05  2.50415E+05
 -1.89945E+05  8.24074E+04 -1.11191E+05 -3.29107E+04  1.20241E+03 -5.00859E+04  5.39230E+04  7.61739E+00
  3.52532E+04  5.28989E+04 -1.67615E+04  7.51892E+04 -6.04763E+04  6.29258E+04 -8.35923E+04  3.15606E+04
 -8.03827E+04 -1.10899E+04 -5.69158E+04 -5.07996E+04 -1.49699E+04 -6.87864E+04  2.70376E+04 -4.52936E+04
  3.93458E+04  3.79976E+03  1.59060E+04  4.78405E+04 -3.42103E+04  4.66234E+04 -6.60269E+04 -2.25209E+02
 -5.26603E+04 -5.66252E+04 -6.58571E+03 -7.60258E+04  3.35174E+04 -5.40623E+04  4.70625E+04 -1.66757E+04
  4.22949E+04  1.12257E+04  3.12777E+04  2.48223E+04  1.59172E+04  2.90764E+04 -4.69377E+03  2.69737E+04
 -2.19540E+04  1.26785E+04 -1.84899E+04 -4.67109E+03  4.86676E+03 -7.53938E+03  2.14295E+04  1.16727E+04
  7.15608E+03  3.42094E+04 -3.13955E+04  3.49781E+04 -6.22902E+04  2.25214E+03 -5.60372E+04 -4.19518E+04
 -1.23707E+04 -6.18683E+04  3.89528E+04 -4.44872E+04  5.67127E+04 -2.30875E+03  3.29002E+04  3.12083E+04
 -6.19685E+03  3.43172E+04 -2.92826E+04  1.44058E+04 -2.88508E+04 -4.75784E+03 -1.53370E+04 -1.04876E+04
 -7.42764E+03 -1.22167E+04 -9.24290E+02 -1.72255E+04  6.89213E+03 -2.26205E+04  1.53500E+04 -1.36531E+04
  1.18137E+04  4.70522E+03 -7.35327E+03  1.30072E+04 -2.03572E+04 -3.58706E+03 -8.29926E+03 -3.17175E+04
  2.18667E+04 -4.20036E+04  4.61247E+04 -1.89922E+04  4.34183E+04  1.89261E+04  1.50251E+04  4.31090E+04
 -1.57646E+04  3.20741E+04 -2.43548E+04  1.40880E+03 -8.97799E+03 -2.68811E+04  2.08550E+04 -3.28184E+04
  3.94308E+04 -8.06582E+03  3.32258E+04  2.30799E+04  1.65670E+04  4.42806E+04 -7.75973E+03  4.75254E+04
 -3.00393E+04  3.16747E+04 -3.93913E+04  8.68046E+03 -4.01790E+04 -1.56359E+04 -2.22800E+04 -3.61157E+04
  7.19355E+03 -3.61300E+04  3.01493E+04 -1.34078E+04  2.81291E+04  1.07986E+04  3.44295E+03  1.84374E+04
 -1.29792E+04  7.89061E+03 -1.01385E+04 -7.59092E+03  5.95928E+03 -1.03738E+04  1.77848E+04  6.25192E+03
  1.28736E+04  2.15530E+04 -6.53604E+03  2.41649E+04 -2.19043E+04  1.03906E+04 -2.61526E+04 -5.71106E+03
 -1.86455E+04 -1.68244E+04 -6.65020E+03 -1.85627E+04  3.97423E+03 -1.72546E+04  1.39531E+04 -1.61772E+04
  2.35211E+04 -1.20993E+04  3.00360E+04  1.91453E+03  2.24995E+04  1.79514E+04  3.99998E+03  3.43143E+04
 -1.69060E+04  2.85272E+04 -2.68222E+04  9.92604E+03 -2.00207E+04 -1.01572E+04 -4.16567E+03 -1.37032E+04
  2.22356E+03 -3.42959E+03 -3.91882E+03  5.88530E+03 -1.43522E+04  5.19379E+03 -1.45613E+04 -5.85806E+03
 -9.18726E+03 -1.71415E+04  4.55570E+03 -2.10929E+04  1.40729E+04 -1.50856E+04  1.63452E+04 -1.30203E+03
  1.00016E+04  1.19467E+04 -1.14870E+03  1.70438E+04 -1.16123E+04  9.62799E+03 -1.68511E+04 -3.81026E+03
 -1.29740E+04 -1.56082E+04 -1.37930E+03 -2.04785E+04  9.30031E+03 -1.68081E+04  1.76370E+04 -8.39805E+03
  1.58834E+04  2.45682E+02  1.13822E+04  4.03137E+03  5.80416E+03  6.62382E+02  8.34948E+03 -1.49632E+03
  1.55682E+04  2.57836E+03  1.67208E+04  1.41386E+04  1.08248E+04  2.71115E+04 -3.09968E+03  3.01272E+04
 -1.77646E+04  2.35511E+04 -2.77912E+04  1.16915E+04 -2.87212E+04 -2.05706E+03 -2.42325E+04 -1.65737E+04
 -1.10445E+04 -2.38321E+04  7.67860E+03 -2.17219E+04  1.92066E+04 -1.16528E+04  1.73179E+04  4.52768E+03
  6.49647E+03  1.26287E+04 -7.71980E+03  1.14249E+04 -1.48160E+04  2.71073E+03 -1.15707E+04 -9.03058E+03
 -4.12352E+02 -1.36934E+04  6.65784E+03 -1.03652E+04  8.95707E+03 -1.34974E+03  1.90754E+03  5.65064E+03
 -6.04450E+03  2.07411E+03 -4.68077E+03 -5.06852E+03  1.22293E+02 -1.17036E+04  8.49937E+03 -1.18671E+04
  1.44429E+04 -5.76699E+03  1.49730E+04  2.87137E+03  1.27201E+04  1.09447E+04  6.00122E+03  1.67788E+04
 -2.34912E+03  1.88310E+04 -1.16263E+04  1.20862E+04 -1.35092E+04  3.18921E+03 -9.60555E+03 -2.53542E+03
 -4.74577E+03 -3.98020E+03 -6.57830E+02  1.39114E+03 -2.01296E+03  2.34517E+03 -4.26751E+03  3.68353E+03
 -9.05594E+03 -6.51963E+02 -9.81565E+03 -8.06025E+03 -4.13141E+03 -1.30316E+04  4.30443E+03 -9.91240E+03
  8.48819E+03 -4.49808E+03  6.40512E+03  2.49012E+03  3.74278E+02  3.69932E+03 -4.09972E+03  1.04477E+01
 -4.07689E+03 -6.11029E+03 -1.08286E+03 -8.69567E+03  4.66356E+03 -9.37352E+03  1.19297E+04 -4.93140E+03
  1.40665E+04  9.77273E+02  1.02781E+04  7.55897E+03  1.86255E+03  1.03150E+04 -6.09191E+03  9.77376E+03
 -8.02946E+03  3.02433E+03 -3.90839E+03 -1.79504E+03  1.43754E+03 -2.53697E+03  5.53315E+03 -1.10067E+03
  4.66337E+03  4.21892E+03  1.17052E+03  7.53628E+03 -5.52773E+03  7.51687E+03 -9.31301E+03  1.82838E+03
 -5.75259E+03 -4.36915E+03  1.63686E+02 -7.91838E+03  4.92645E+03 -3.91571E+03  4.54066E+03  1.35665E+03
  5.58817E+02  4.33216E+03 -5.12921E+03  5.90840E+03 -6.34950E+03  2.88455E+03 -6.31801E+03 -1.72695E+03
 -3.73626E+03 -7.69105E+03  1.78076E+03 -9.11604E+03  7.59232E+03 -5.72601E+03  8.28851E+03  1.41048E+03
  5.37326E+03  6.79947E+03  2.72699E+01  8.82483E+03 -6.09541E+03  5.18083E+03 -6.61476E+03 -4.68654E+02
 -6.69465E+03 -5.88360E+03 -1.72010E+03 -6.09554E+03  3.32638E+03 -5.52266E+03  3.42885E+03 -3.11389E+03
  3.25128E+03  3.04728E+02 -2.87192E+02  1.60325E+03  3.35732E+02 -7.83759E+02  4.99937E+02 -2.91011E+03
  5.09883E+03 -1.48602E+03  6.97527E+03  6.92228E+02  7.37607E+03  4.16910E+03  5.95978E+03  9.44388E+03
 -2.05855E+03  1.12011E+04 -9.55813E+03  8.19812E+03 -1.23473E+04  1.73518E+03 -1.02578E+04 -3.74132E+03
 -4.87694E+03 -7.99967E+03 -4.33353E+02 -6.79957E+03  2.78373E+03 -3.47693E+03  2.59426E+03 -2.60732E+03
  1.78483E+03 -1.82820E+03  2.33081E+03 -2.69807E+03  3.72045E+03 -1.47130E+03  4.46532E+03  1.22413E+02
  5.54371E+03  1.37625E+03  2.07624E+03  4.33525E+03 -1.98557E+03  4.27445E+03 -5.56723E+03  3.46269E+03
 -6.65052E+03 -1.06019E+03 -2.92217E+03 -4.36513E+03  2.77954E+02 -6.88640E+03  4.10210E+03 -7.01051E+03
  7.07041E+03 -4.21668E+03  8.81136E+03  5.19017E+02  6.20089E+03  5.76696E+03  1.16744E+03  7.91975E+03
 -2.96203E+03  7.23934E+03 -4.47136E+03  2.44711E+03 -2.75008E+03 -1.03010E+03 -9.06913E+02 -7.44346E+02
 -5.11130E+02  1.63709E+02 -1.14285E+03  2.20421E+03 -3.14012E+03  1.23422E+03 -5.22295E+03 -4.74730E+02
 -2.55310E+03 -5.08993E+03  7.15169E+02 -6.24302E+03  3.98341E+03 -5.52682E+03  5.13934E+03 -1.23756E+03
  5.67975E+03  3.11318E+03  2.58238E+03  5.07920E+03 -1.12011E+03  6.14117E+03 -3.78749E+03  3.56133E+03
 -5.38570E+03  3.48583E+02 -4.55819E+03 -3.41076E+03 -2.40203E+02 -4.53094E+03  2.19224E+03 -3.52235E+03
  3.79859E+03 -1.63674E+03  2.33564E+03  5.54879E+02  5.47874E+02  2.27239E+03  8.52188E+02  1.05458E+03
  1.91052E+03  5.91092E+02  1.59837E+03  1.28774E+03  1.52223E+03  2.69885E+03  1.69788E+03  2.65726E+03
 -1.63847E+03  4.32451E+03 -3.75924E+03  5.41157E+03 -5.04539E+03  1.59621E+03 -5.96719E+03 -1.54472E+03
 -2.80211E+03 -5.24455E+03  9.42149E+02 -6.48305E+03  2.82916E+03 -3.68680E+03  4.48375E+03 -7.68420E+02
  3.55905E+03  2.32441E+03  5.25365E+02  3.18802E+03 -1.44627E+03  1.92187E+03 -1.73754E+03 -2.92398E+02
 -7.50293E+02 -2.18641E+03  1.91452E+03 -2.19353E+03  2.15757E+03 -1.11130E+03  2.11795E+03  6.47626E+02
  1.10430E+03  5.04037E+02  6.59731E+02  3.93072E+02 -1.71676E+02  9.44058E+02  1.34854E+03 -3.88057E+02
  6.08935E+02 -7.90228E+00  2.40240E+03  1.09141E+03  8.47520E+02  3.34101E+03 -5.07340E+02  3.94636E+03
 -2.40350E+03  2.18267E+03 -3.22411E+03  4.36398E+02 -3.08880E+03 -9.51738E+02 -8.54835E+02 -1.57630E+03
  5.95048E+02 -1.48656E+03  1.50312E+03 -9.21031E+02  9.26759E+02  1.63994E+03 -8.65447E+02  1.53820E+03
 -2.08088E+03  1.13503E+03 -1.80915E+03 -1.73601E+03 -1.22984E+03 -3.09912E+03  6.16981E+02 -2.25582E+03
  1.09744E+03 -1.07630E+03  1.64370E+03 -1.54621E+00  1.86181E+03  1.10797E+02  4.76072E+02  1.81964E+03
 -6.27970E+02  5.85453E+02 -1.12248E+03 -3.77220E+02  8.80551E+02 -1.48905E+03  2.73211E+03 -1.65588E+03
  2.57756E+03 -6.32580E+01  3.72628E+03  1.56854E+03  1.58260E+03  2.66271E+03 -5.98134E+02  2.84104E+03
 -2.38635E+03  7.20716E+02 -2.48456E+03 -3.56682E+02 -1.22000E+03 -1.98980E+03  5.30626E+02 -1.46596E+03
  2.25720E+03 -1.12985E+03  1.51634E+03  9.15095E+02  2.97780E+02  1.68460E+03 -1.19314E+02  1.58430E+03
 -4.82708E+02  1.36578E+03 -8.65724E+02  5.19354E+02 -2.90375E+02  3.84287E+02 -7.36645E+02  9.61214E+02
 -9.85848E+02  1.51962E+03 -2.43345E+03  9.01284E+02 -2.74475E+03 -7.93185E+01 -3.27566E+03 -1.69605E+03
 -1.74412E+03 -3.50381E+03  7.53119E+02 -4.64695E+03  2.20699E+03 -3.65521E+03  4.24445E+03 -1.28822E+03
  4.17928E+03  2.84151E+02  2.22115E+03  2.50394E+03 -3.51958E+02  2.37826E+03 -1.21299E+03  2.17179E+03
 -1.64303E+03  1.14474E+03 -8.42435E+02 -5.56753E+02 -4.16606E+02  8.99595E+01 -6.19609E+02 -5.73996E+01
 -1.31853E+03  1.47783E+02 -1.21392E+03 -9.13811E+01  1.64695E+02 -9.43631E+02 -4.49349E+02 -1.49464E+03
  1.76485E+03 -1.18295E+03  1.11449E+03 -2.52113E+01  1.92123E+03  1.57384E+03  1.03620E+01  2.47188E+03
 -1.45356E+03  3.26925E+03 -3.14581E+03  2.05936E+03 -2.85640E+03 -2.10709E+02 -2.37932E+03 -2.08257E+03
 -9.93515E+02 -2.55714E+03  1.23199E+02 -2.21091E+03  1.30633E+03 -9.07987E+02  1.42819E+03  3.10406E+02
  1.00080E+03  5.78658E+02  1.19478E+01  7.18308E+02 -9.39474E+02 -2.93403E+02 -2.81960E+02 -4.52029E+02
  9.49994E+02  8.91070E+01  8.91696E+02  5.47137E+02  3.14142E+02  7.19667E+02  5.55959E+02  7.69817E+02
 -1.18733E+03  9.31904E+02 -1.16565E+03  9.93216E+01 -1.32935E+03 -1.05550E+03  6.13404E+01 -2.08021E+03
  1.08130E+03 -1.47904E+03  1.41168E+03 -4.02571E+02  1.68100E+03 -1.98641E+02  1.00924E+03  1.09617E+03
  3.34643E+02  1.18380E+03 -3.18284E+02  1.17970E+03 -1.18877E+03  6.95763E+02 -9.07168E+02 -5.37027E+01
 -3.47658E+02  8.02183E-01 -7.04825E+02  3.76045E+02 -8.00831E+02  5.92145E+01 -1.17821E+03 -3.52563E+02
 -1.22567E+03 -1.26829E+02 -5.05818E+02 -1.63441E+03  9.84690E+02 -2.13814E+03  1.31926E+03 -5.81444E+02
  1.40991E+03  2.14275E+02  5.78493E+01  7.18152E+02 -6.07311E+02  1.44807E+03 -6.55325E+02  1.02536E+03
