 $NMID ID='MM_0lb_SNR800_9hz_g55_73.RAW', FMTDAT='(8E13.5)'
 TRAMP=1., VOLUME=1. $END
  3.09957E+05  3.49761E+02  3.37937E+05  2.50985E+05  8.52355E+04  3.38347E+05 -1.32353E+05  2.52008E+05
 -1.91201E+05  8.40950E+04 -1.12640E+05 -3.22926E+04  3.18564E+02 -5.09901E+04  5.31123E+04 -4.64378E+02
  3.54024E+04  5.30140E+04 -1.68487E+04  7.64519E+04 -6.13446E+04  6.44897E+04 -8.52424E+04  3.24292E+04
 -8.27234E+04 -1.17785E+04 -5.83387E+04 -5.22849E+04 -1.49870E+04 -7.09407E+04  2.81095E+04 -4.68692E+04
  4.11122E+04  3.57351E+03  1.71084E+04  4.84383E+04 -3.48576E+04  4.85092E+04 -6.82548E+04 -1.04185E+02
 -5.49135E+04 -5.76719E+04 -7.25432E+03 -7.93750E+04  3.49491E+04 -5.67923E+04  4.99544E+04 -1.84611E+04
  4.52679E+04  1.14171E+04  3.27170E+04  2.68538E+04  1.61998E+04  3.03902E+04 -5.82092E+03  2.78488E+04
 -2.26535E+04  1.19951E+04 -1.78211E+04 -5.70727E+03  7.43006E+03 -7.76233E+03  2.37910E+04  1.40064E+04
  7.22299E+03  3.75591E+04 -3.38618E+04  3.71554E+04 -6.62520E+04  2.48788E+03 -5.91803E+04 -4.47862E+04
 -1.30630E+04 -6.62044E+04  4.16395E+04 -4.79635E+04  6.15018E+04 -2.18522E+03  3.69588E+04  3.47066E+04
 -5.31232E+03  3.98668E+04 -3.17674E+04  1.87835E+04 -3.36022E+04 -3.30842E+03 -1.96918E+04 -1.19518E+04
 -9.90274E+03 -1.51673E+04 -7.05555E+02 -1.99316E+04  8.60603E+03 -2.38595E+04  1.58148E+04 -1.22538E+04
  1.02585E+04  6.44444E+03 -1.07238E+04  1.30969E+04 -2.36134E+04 -6.82708E+03 -8.97225E+03 -3.81734E+04
  2.55477E+04 -4.69304E+04  5.24424E+04 -2.10886E+04  4.92710E+04  2.09825E+04  1.75169E+04  4.72339E+04
 -1.66475E+04  3.67475E+04 -2.78909E+04  2.47908E+03 -1.21637E+04 -2.94491E+04  2.17857E+04 -3.73080E+04
  4.53574E+04 -1.08586E+04  4.07630E+04  2.52099E+04  2.17248E+04  5.17225E+04 -9.01842E+03  5.70796E+04
 -3.60950E+04  3.91462E+04 -4.78569E+04  1.12946E+04 -4.80738E+04 -1.85710E+04 -2.67700E+04 -4.23846E+04
  7.73746E+03 -4.25169E+04  3.46225E+04 -1.70861E+04  3.26103E+04  1.16722E+04  5.28557E+03  2.10883E+04
 -1.39159E+04  1.01131E+04 -1.12999E+04 -7.82686E+03  5.66843E+03 -1.10276E+04  1.86957E+04  5.29254E+03
  1.50882E+04  2.28379E+04 -4.85503E+03  2.72920E+04 -2.38212E+04  1.40727E+04 -3.18735E+04 -3.18874E+03
 -2.62550E+04 -1.85915E+04 -1.22228E+04 -2.52032E+04  4.30953E+03 -2.61291E+04  2.01412E+04 -2.37268E+04
  3.25267E+04 -1.41604E+04  3.86388E+04  5.07771E+03  2.75203E+04  2.50313E+04  4.51947E+03  4.19721E+04
 -2.02406E+04  3.41797E+04 -3.07837E+04  1.20851E+04 -2.24778E+04 -1.03044E+04 -4.96474E+03 -1.30113E+04
  5.97472E+02 -8.79740E+02 -7.99364E+03  8.32358E+03 -2.08630E+04  5.08326E+03 -2.08444E+04 -9.92991E+03
 -1.23157E+04 -2.39697E+04  6.33458E+03 -2.82816E+04  1.92084E+04 -2.01524E+04  2.31257E+04 -1.95154E+03
  1.48657E+04  1.67715E+04 -1.48350E+03  2.40536E+04 -1.66462E+04  1.41607E+04 -2.43025E+04 -5.08571E+03
 -1.75795E+04 -2.12525E+04 -2.37226E+03 -2.83608E+04  1.28757E+04 -2.36485E+04  2.34017E+04 -1.21639E+04
  2.22929E+04 -3.50557E+02  1.62824E+04  5.24650E+03  9.14409E+03  1.71883E+03  1.23370E+04 -2.16233E+03
  2.24027E+04  2.57014E+03  2.58532E+04  1.85341E+04  1.78126E+04  3.86692E+04 -2.74431E+03  4.50562E+04
 -2.53939E+04  3.79892E+04 -4.26874E+04  2.00516E+04 -4.57424E+04 -3.15070E+03 -3.69424E+04 -2.69170E+04
 -1.42927E+04 -3.85289E+04  1.38268E+04 -3.33625E+04  2.88137E+04 -1.58269E+04  2.49056E+04  8.01759E+03
  8.41234E+03  1.87795E+04 -1.21680E+04  1.61159E+04 -2.05401E+04  2.74491E+03 -1.52956E+04 -1.31348E+04
 -5.44766E+02 -1.96339E+04  1.09611E+04 -1.41931E+04  1.35200E+04 -1.49027E+03  3.61429E+03  8.89208E+03
 -8.93873E+03  4.18232E+03 -9.72180E+03 -6.87333E+03 -1.94830E+03 -1.86769E+04  1.21184E+04 -2.03892E+04
  2.37353E+04 -1.11352E+04  2.68998E+04  3.42474E+03  2.37839E+04  1.89435E+04  1.08770E+04  3.03494E+04
 -5.67764E+03  3.22404E+04 -2.12293E+04  1.99141E+04 -2.36742E+04  4.09226E+03 -1.58529E+04 -5.97706E+03
 -6.90483E+03 -7.51101E+03 -7.33060E+02 -8.47160E+01 -2.49652E+03  3.68261E+03 -7.56180E+03  5.51455E+03
 -1.40797E+04 -1.32928E+03 -1.51508E+04 -1.20319E+04 -5.75252E+03 -2.03301E+04  6.87179E+03 -1.61620E+04
  1.34896E+04 -6.77229E+03  9.49043E+03  4.19878E+03 -6.88441E+02  5.97680E+03 -8.01017E+03 -2.27352E+02
 -7.80687E+03 -1.04084E+04 -1.21647E+03 -1.59929E+04  9.66815E+03 -1.67721E+04  2.06937E+04 -9.12784E+03
  2.40033E+04  2.76955E+03  1.75481E+04  1.52770E+04  3.12855E+03  2.00746E+04 -1.03843E+04  1.60708E+04
 -1.28305E+04  4.67676E+03 -6.81618E+03 -3.41149E+03  2.71581E+03 -4.63311E+03  8.19329E+03 -1.37654E+03
  7.50228E+03  7.22396E+03  1.26470E+03  1.32517E+04 -9.16411E+03  1.27584E+04 -1.61849E+04  2.57894E+03
 -1.09511E+04 -8.42850E+03 -1.56057E+02 -1.36037E+04  9.16352E+03 -6.72643E+03  9.98105E+03  3.64583E+03
  2.22438E+03  1.05779E+04 -8.64014E+03  1.16370E+04 -1.35533E+04  5.43541E+03 -1.49851E+04 -5.38386E+03
 -8.43094E+03 -1.66247E+04  3.80657E+03 -1.88693E+04  1.62606E+04 -1.10988E+04  1.73498E+04  3.44206E+03
  1.02510E+04  1.38728E+04 -2.04676E+03  1.58777E+04 -1.19326E+04  8.69398E+03 -1.31569E+04 -1.51872E+03
 -1.09751E+04 -1.10074E+04 -1.44166E+03 -1.28852E+04  6.31825E+03 -9.74329E+03  8.14193E+03 -3.86740E+03
  5.10994E+03  2.21926E+03 -1.18614E+03  2.07729E+03 -6.55769E+02 -3.25983E+03  2.80605E+03 -7.29220E+03
  1.21228E+04 -4.72378E+03  1.65581E+04  1.52739E+03  1.61795E+04  1.18673E+04  1.02421E+04  2.15936E+04
 -5.22391E+03  2.51621E+04 -2.06258E+04  1.82783E+04 -2.62053E+04  4.19905E+03 -2.14499E+04 -9.42066E+03
 -1.04905E+04 -1.79149E+04 -4.44324E+02 -1.51411E+04  5.43235E+03 -8.70728E+03  5.76326E+03 -5.69296E+03
  3.85122E+03 -3.11834E+03  3.99947E+03 -4.16139E+03  5.86516E+03 -3.74992E+03  8.19568E+03 -1.43310E+03
  1.08817E+04  2.60238E+03  6.13894E+03  1.00125E+04 -2.50176E+03  1.16849E+04 -1.21670E+04  9.07657E+03
 -1.51690E+04 -1.34001E+03 -9.68551E+03 -1.03292E+04 -1.16212E+03 -1.63859E+04  9.12365E+03 -1.61031E+04
  1.69018E+04 -9.10420E+03  2.02675E+04  2.87612E+03  1.43491E+04  1.44395E+04  2.35678E+03  1.83855E+04
 -7.59390E+03  1.48254E+04 -1.07949E+04  5.00019E+03 -7.46309E+03 -1.77084E+03 -3.14137E+03 -2.28297E+03
 -1.58434E+03 -5.58276E+00 -2.40862E+03  2.92939E+03 -6.80666E+03  2.62105E+03 -1.05616E+04 -1.57131E+03
 -7.92727E+03 -1.06634E+04  1.45941E+02 -1.55621E+04  9.24576E+03 -1.44717E+04  1.55004E+04 -3.92811E+03
  1.50567E+04  7.41801E+03  7.07369E+03  1.38654E+04 -3.37367E+03  1.55603E+04 -1.14673E+04  9.40508E+03
 -1.45758E+04  8.21718E+02 -1.10554E+04 -9.19066E+03 -1.47988E+03 -1.29827E+04  6.39027E+03 -9.74807E+03
  1.00863E+04 -3.24175E+03  6.80321E+03  2.58812E+03  2.24775E+03  4.57366E+03  1.48487E+03  1.92629E+03
  2.57295E+03  1.27859E+03  3.67879E+03  2.14108E+03  4.60159E+03  5.12030E+03  4.08074E+03  7.89263E+03
 -3.33949E+03  1.24767E+04 -1.10632E+04  1.22577E+04 -1.59004E+04  3.11871E+03 -1.65332E+04 -6.99497E+03
 -7.59729E+03 -1.57883E+04  2.30524E+03 -1.73236E+04  9.42370E+03 -1.07046E+04  1.25286E+04 -2.92191E+03
  9.86866E+03  6.20005E+03  1.88117E+03  8.88496E+03 -4.66484E+03  5.94031E+03 -6.51642E+03 -1.41832E+03
 -3.28072E+03 -6.60220E+03  3.78814E+03 -6.73732E+03  6.82518E+03 -3.35635E+03  6.53925E+03  1.28501E+03
  3.19286E+03  3.39671E+03  1.85667E+03  2.75473E+03 -1.01239E+03  2.61318E+03  1.50700E+03 -8.72537E+02
  2.32526E+03 -9.36421E+02  6.32887E+03  2.55221E+03  3.33060E+03  8.87630E+03 -1.27329E+03  1.14513E+04
 -7.37297E+03  7.27120E+03 -9.93646E+03  2.45919E+03 -9.17187E+03 -3.72376E+03 -3.68903E+03 -6.33321E+03
  5.96403E+02 -6.00924E+03  4.14763E+03 -2.88121E+03  3.83515E+03  3.17761E+03 -1.26842E+03  5.05445E+03
 -6.99006E+03  2.78909E+03 -7.53432E+03 -3.61181E+03 -4.55674E+03 -8.75875E+03  1.01827E+03 -9.15355E+03
  5.11066E+03 -5.70120E+03  6.76284E+03 -3.39982E+02  5.15698E+03  2.42139E+03  4.68325E+02  4.93922E+03
 -3.01352E+03  1.65943E+03 -4.23424E+03 -3.24258E+03  1.71072E+03 -6.52249E+03  8.17409E+03 -5.18012E+03
  9.90758E+03  7.37088E+02  9.56154E+03  7.22745E+03  3.13487E+03  1.09937E+04 -4.06093E+03  9.97776E+03
 -8.60670E+03  4.68999E+03 -9.15181E+03 -1.35865E+03 -4.96292E+03 -6.79041E+03  1.79294E+03 -6.30055E+03
  6.26182E+03 -2.98224E+03  5.78540E+03  2.84790E+03  2.02202E+03  5.75359E+03 -9.79977E+02  5.07787E+03
 -2.71847E+03  3.34467E+03 -2.13520E+03  1.47719E+03 -9.77810E+02  1.23593E+03 -2.16556E+03  2.11573E+03
 -2.60257E+03  4.13467E+03 -7.20319E+03  3.75247E+03 -1.04592E+04  3.61162E+02 -1.14815E+04 -6.64403E+03
 -5.98842E+03 -1.42284E+04  2.73990E+03 -1.61114E+04  9.73659E+03 -1.21949E+04  1.54293E+04 -4.77203E+03
  1.42720E+04  2.61506E+03  8.71741E+03  9.36587E+03  6.45456E+02  1.14485E+04 -4.36142E+03  7.90327E+03
 -6.91131E+03  3.12330E+03 -3.72793E+03 -1.51016E+03 -1.20056E+03 -1.04229E+03 -6.12184E+02 -5.76944E+02
 -1.98890E+03  3.16238E+02 -2.72842E+03 -4.90681E+02 -7.52712E+02 -2.95517E+03  6.52552E+02 -3.87965E+03
  4.81224E+03 -3.63344E+03  6.98851E+03 -3.42018E+01  7.83450E+03  6.11163E+03  2.39516E+03  1.08322E+04
 -4.88111E+03  1.24334E+04 -1.16397E+04  7.13927E+03 -1.32970E+04 -1.00806E+03 -9.79027E+03 -8.25381E+03
 -3.77098E+03 -1.09178E+04  3.24277E+03 -1.01913E+04  7.37294E+03 -5.33288E+03  7.17793E+03  3.79525E+02
  4.23752E+03  3.89200E+03 -7.36164E+02  3.30824E+03 -2.25946E+03 -2.69489E+02  5.33794E+02 -2.88523E+03
  3.43268E+03 -1.67924E+03  4.42323E+03  1.41582E+03  2.92481E+03  4.31968E+03 -1.09645E+02  5.70365E+03
 -5.02858E+03  5.29450E+03 -7.13708E+03  5.59530E+02 -6.65951E+03 -5.28100E+03 -1.09711E+03 -9.04714E+03
  5.53647E+03 -7.49145E+03  7.89895E+03 -2.54299E+03  7.70741E+03  2.11969E+03  4.92936E+03  7.00832E+03
  9.44969E+02  7.58404E+03 -2.76029E+03  5.84968E+03 -4.39241E+03  3.43593E+03 -3.93559E+03 -1.63152E+02
 -2.02366E+03 -1.02821E+02 -2.14847E+03  1.17144E+03 -3.75692E+03  1.36288E+03 -5.81650E+03 -1.15310E+03
 -5.48204E+03 -3.40057E+03 -1.93300E+03 -7.21891E+03  3.24993E+03 -7.77130E+03  6.64726E+03 -4.05098E+03
  6.75683E+03  8.29838E+02  4.02948E+03  5.38873E+03 -8.57342E+01  7.15331E+03 -5.84095E+03  4.82026E+03
