 $NMID ID='MM_0lb_SNR800_7hz_g40_92.RAW', FMTDAT='(8E13.5)'
 TRAMP=1., VOLUME=1. $END
  3.09677E+05  4.04745E+02  3.37636E+05  2.50518E+05  8.54376E+04  3.38540E+05 -1.33100E+05  2.51868E+05
 -1.91283E+05  8.37027E+04 -1.12713E+05 -3.22992E+04  2.37165E+02 -5.09529E+04  5.38796E+04 -1.73656E+02
  3.51565E+04  5.25561E+04 -1.66236E+04  7.65229E+04 -6.16773E+04  6.45778E+04 -8.57485E+04  3.26627E+04
 -8.25699E+04 -1.18367E+04 -5.81647E+04 -5.26864E+04 -1.50983E+04 -7.08473E+04  2.82642E+04 -4.67079E+04
  4.17298E+04  3.48666E+03  1.70650E+04  4.84295E+04 -3.50360E+04  4.83185E+04 -6.84456E+04  3.65467E+02
 -5.54294E+04 -5.80100E+04 -7.57098E+03 -7.95464E+04  3.56380E+04 -5.79015E+04  5.05649E+04 -1.85736E+04
  4.52012E+04  1.18391E+04  3.31403E+04  2.71223E+04  1.56184E+04  3.07392E+04 -6.05030E+03  2.78956E+04
 -2.27004E+04  1.14197E+04 -1.79054E+04 -5.50069E+03  7.74386E+03 -7.32146E+03  2.39071E+04  1.40889E+04
  7.38996E+03  3.80069E+04 -3.41593E+04  3.77461E+04 -6.65110E+04  2.48561E+03 -5.93740E+04 -4.50754E+04
 -1.28660E+04 -6.62851E+04  4.20538E+04 -4.82201E+04  6.14832E+04 -2.58246E+03  3.73122E+04  3.48512E+04
 -5.71963E+03  4.04503E+04 -3.21344E+04  1.98133E+04 -3.43686E+04 -3.14976E+03 -2.01915E+04 -1.22611E+04
 -1.00381E+04 -1.54290E+04 -1.94104E+02 -2.01185E+04  8.46693E+03 -2.35371E+04  1.58766E+04 -1.23956E+04
  9.77109E+03  6.10159E+03 -1.12105E+04  1.27284E+04 -2.42314E+04 -7.25707E+03 -8.53043E+03 -3.86312E+04
  2.57038E+04 -4.79987E+04  5.26620E+04 -2.13895E+04  4.93313E+04  2.14220E+04  1.70368E+04  4.78656E+04
 -1.69531E+04  3.67207E+04 -2.82903E+04  3.01973E+03 -1.21010E+04 -2.95647E+04  2.21034E+04 -3.78319E+04
  4.53177E+04 -1.15998E+04  4.14148E+04  2.54219E+04  2.22882E+04  5.18453E+04 -8.03262E+03  5.78385E+04
 -3.61296E+04  3.93376E+04 -4.91182E+04  1.12890E+04 -4.88254E+04 -1.88710E+04 -2.68084E+04 -4.34559E+04
  7.61935E+03 -4.35101E+04  3.49256E+04 -1.76047E+04  3.27993E+04  1.13091E+04  5.58842E+03  2.18249E+04
 -1.45011E+04  9.61645E+03 -1.13672E+04 -7.49913E+03  5.38020E+03 -1.12472E+04  1.92635E+04  4.92577E+03
  1.52559E+04  2.30530E+04 -4.60424E+03  2.71073E+04 -2.33207E+04  1.52076E+04 -3.21538E+04 -2.70214E+03
 -2.59897E+04 -1.85343E+04 -1.24299E+04 -2.61273E+04  4.24209E+03 -2.75590E+04  2.14422E+04 -2.44927E+04
  3.36546E+04 -1.45604E+04  3.88700E+04  5.23728E+03  2.78697E+04  2.58123E+04  4.48051E+03  4.26288E+04
 -2.07269E+04  3.49852E+04 -3.14335E+04  1.25274E+04 -2.25763E+04 -9.97903E+03 -4.86278E+03 -1.27472E+04
  7.22873E+02 -6.26101E+02 -8.11565E+03  8.50969E+03 -2.15893E+04  5.15279E+03 -2.12905E+04 -1.04851E+04
 -1.25867E+04 -2.43444E+04  6.40948E+03 -2.86601E+04  1.96871E+04 -2.08452E+04  2.39492E+04 -1.63815E+03
  1.57169E+04  1.72303E+04 -1.93451E+03  2.47919E+04 -1.72099E+04  1.39892E+04 -2.50323E+04 -5.14711E+03
 -1.84167E+04 -2.19535E+04 -2.06753E+03 -2.94780E+04  1.39995E+04 -2.47903E+04  2.42055E+04 -1.29150E+04
  2.28920E+04 -3.00854E+02  1.69699E+04  5.62510E+03  9.14551E+03  1.46321E+03  1.30072E+04 -2.20048E+03
  2.32752E+04  3.02498E+03  2.73330E+04  1.90514E+04  1.84366E+04  3.96266E+04 -2.88740E+03  4.69367E+04
 -2.70364E+04  3.93722E+04 -4.48119E+04  2.05116E+04 -4.80546E+04 -2.96766E+03 -3.84622E+04 -2.85567E+04
 -1.47847E+04 -4.02090E+04  1.39683E+04 -3.46105E+04  2.99010E+04 -1.63222E+04  2.55682E+04  8.56141E+03
  8.19905E+03  2.03208E+04 -1.22633E+04  1.63302E+04 -2.07370E+04  2.28516E+03 -1.65030E+04 -1.35185E+04
  7.18134E+01 -2.09609E+04  1.13293E+04 -1.48466E+04  1.41308E+04 -1.19793E+03  3.50299E+03  9.29916E+03
 -9.48367E+03  5.01483E+03 -1.00747E+04 -7.40180E+03 -2.63014E+03 -1.95564E+04  1.29766E+04 -2.16139E+04
  2.42145E+04 -1.21286E+04  2.86279E+04  3.53898E+03  2.48247E+04  2.04028E+04  1.13402E+04  3.16999E+04
 -6.02965E+03  3.39320E+04 -2.24273E+04  2.09239E+04 -2.46309E+04  4.27808E+03 -1.66936E+04 -6.53880E+03
 -6.93913E+03 -8.12906E+03 -6.18769E+02  2.88892E+02 -3.08098E+03  3.71816E+03 -8.04240E+03  5.53866E+03
 -1.54525E+04 -1.28425E+03 -1.59635E+04 -1.27299E+04 -6.09921E+03 -2.05230E+04  7.25087E+03 -1.68798E+04
  1.40567E+04 -7.10008E+03  9.55443E+03  4.78709E+03 -5.84925E+02  6.63388E+03 -9.08588E+03 -2.64775E+02
 -8.24018E+03 -1.07237E+04 -1.17991E+03 -1.69605E+04  1.01774E+04 -1.80900E+04  2.18032E+04 -9.97019E+03
  2.57947E+04  2.86230E+03  1.87579E+04  1.63270E+04  3.45472E+03  2.14520E+04 -1.05689E+04  1.73447E+04
 -1.36386E+04  5.14561E+03 -7.16439E+03 -3.87011E+03  2.63096E+03 -4.69074E+03  9.57106E+03 -1.04777E+03
  8.03295E+03  8.14225E+03  1.38523E+03  1.36249E+04 -1.03618E+04  1.32478E+04 -1.71011E+04  3.08471E+03
 -1.19749E+04 -9.02095E+03  1.25587E+02 -1.49247E+04  1.02475E+04 -7.24537E+03  1.04407E+04  3.54279E+03
  3.00301E+03  1.12778E+04 -8.62945E+03  1.28574E+04 -1.58673E+04  5.29128E+03 -1.59935E+04 -6.11082E+03
 -8.96796E+03 -1.82038E+04  4.74816E+03 -2.01995E+04  1.73224E+04 -1.20694E+04  1.92754E+04  4.07268E+03
  1.12921E+04  1.53879E+04 -2.34086E+03  1.74336E+04 -1.33442E+04  9.62768E+03 -1.48067E+04 -1.52612E+03
 -1.19294E+04 -1.20027E+04 -1.95012E+03 -1.36053E+04  6.65704E+03 -1.11033E+04  9.18571E+03 -3.93031E+03
  5.09094E+03  2.63824E+03 -1.68816E+03  2.49159E+03 -5.74898E+02 -4.20706E+03  3.10232E+03 -8.63650E+03
  1.35886E+04 -5.62170E+03  1.84141E+04  1.96986E+03  1.80679E+04  1.30695E+04  1.16115E+04  2.38502E+04
 -5.98922E+03  2.78370E+04 -2.26394E+04  2.02598E+04 -2.90816E+04  3.92727E+03 -2.39134E+04 -1.06770E+04
 -1.17994E+04 -1.92872E+04 -8.00401E+02 -1.65944E+04  6.10217E+03 -9.83246E+03  5.91422E+03 -6.08072E+03
  4.73547E+03 -3.75817E+03  5.18004E+03 -4.23753E+03  6.24255E+03 -4.21313E+03  9.09291E+03 -1.71359E+03
  1.22533E+04  2.43777E+03  6.58243E+03  1.05909E+04 -2.25857E+03  1.37110E+04 -1.30290E+04  1.08203E+04
 -1.68614E+04 -1.40156E+03 -1.12615E+04 -1.21550E+04 -1.66482E+03 -1.88986E+04  9.88289E+03 -1.83046E+04
  1.92993E+04 -1.05484E+04  2.25524E+04  3.24859E+03  1.60359E+04  1.65158E+04  2.43079E+03  2.10739E+04
 -8.76375E+03  1.67554E+04 -1.26749E+04  5.90452E+03 -7.96180E+03 -2.45348E+03 -3.81222E+03 -2.12581E+03
 -1.44445E+03 -1.74601E+02 -2.82880E+03  3.20601E+03 -7.14856E+03  3.07016E+03 -1.17452E+04 -1.99098E+03
 -8.68477E+03 -1.19996E+04 -5.55414E+02 -1.74611E+04  1.07316E+04 -1.57418E+04  1.78001E+04 -4.90035E+03
  1.71034E+04  8.24217E+03  7.92238E+03  1.63825E+04 -3.84078E+03  1.75236E+04 -1.32802E+04  1.11106E+04
 -1.65817E+04  4.47657E+02 -1.28570E+04 -1.08377E+04 -1.60688E+03 -1.48322E+04  7.55179E+03 -1.08346E+04
  1.09944E+04 -3.07397E+03  7.86345E+03  2.84330E+03  2.63170E+03  4.69460E+03  2.02965E+03  2.68781E+03
  2.98631E+03  1.31480E+03  4.37865E+03  1.82217E+03  5.44686E+03  5.80534E+03  4.45698E+03  9.43989E+03
 -3.50674E+03  1.39896E+04 -1.25196E+04  1.41091E+04 -1.90299E+04  3.62308E+03 -1.87948E+04 -8.13134E+03
 -9.73001E+03 -1.82207E+04  2.59926E+03 -1.98829E+04  1.14233E+04 -1.26362E+04  1.52930E+04 -3.31431E+03
  1.17549E+04  6.86487E+03  2.79775E+03  1.06861E+04 -5.66372E+03  7.16610E+03 -7.58028E+03 -9.40327E+02
 -3.88208E+03 -7.72271E+03  3.93599E+03 -8.24176E+03  7.99789E+03 -4.10093E+03  7.60472E+03  1.37432E+03
  3.86558E+03  4.13756E+03  1.71350E+03  3.33330E+03 -6.46859E+02  2.39524E+03  1.62725E+03 -8.06885E+02
  2.90929E+03 -1.32872E+03  7.68958E+03  3.18616E+03  4.40160E+03  9.31143E+03 -1.64528E+03  1.36708E+04
 -8.58912E+03  8.57057E+03 -1.24089E+04  2.45343E+03 -1.07357E+04 -4.12197E+03 -4.43016E+03 -7.64525E+03
  1.24086E+03 -7.73010E+03  4.64297E+03 -3.63351E+03  4.01387E+03  3.32565E+03 -1.76325E+03  5.93269E+03
 -8.05343E+03  3.33953E+03 -9.20945E+03 -3.99549E+03 -4.74587E+03 -1.04577E+04  1.34910E+03 -1.05612E+04
  6.62402E+03 -6.75790E+03  7.89379E+03 -1.36316E+03  6.34976E+03  3.41223E+03  8.71542E+02  5.44230E+03
 -3.66249E+03  1.59327E+03 -4.76417E+03 -3.64029E+03  2.18364E+03 -8.16802E+03  9.57133E+03 -6.89329E+03
  1.27994E+04  9.62087E+02  1.14491E+04  8.82314E+03  4.03820E+03  1.35530E+04 -4.98382E+03  1.20309E+04
 -1.10682E+04  5.22956E+03 -1.08824E+04 -1.71248E+03 -5.98598E+03 -8.39799E+03  2.04264E+03 -8.16510E+03
  7.39300E+03 -3.72879E+03  6.76878E+03  3.01494E+03  1.98293E+03  7.57358E+03 -1.29351E+03  6.15853E+03
 -3.41323E+03  3.77423E+03 -2.91823E+03  1.12222E+03 -1.61540E+03  1.36778E+03 -1.50032E+03  2.55889E+03
 -3.18178E+03  4.68766E+03 -8.60337E+03  4.80884E+03 -1.27510E+04 -3.85889E+01 -1.43937E+04 -8.42071E+03
 -7.78914E+03 -1.75517E+04  3.69248E+03 -1.99870E+04  1.25088E+04 -1.49981E+04  1.90055E+04 -5.85452E+03
  1.80192E+04  3.92654E+03  1.10954E+04  1.24253E+04  1.37932E+03  1.37967E+04 -5.27493E+03  1.00732E+04
 -7.64781E+03  3.66218E+03 -4.53798E+03 -1.69122E+03 -1.42352E+03 -1.10496E+03 -6.41364E+02 -3.24511E+02
 -2.62258E+03  5.31155E+02 -2.78375E+03 -5.25689E+02 -9.72774E+02 -3.34607E+03  3.95926E+02 -5.19377E+03
  5.76606E+03 -4.42859E+03  8.73696E+03  1.70996E+00  9.30944E+03  7.16065E+03  2.95098E+03  1.38843E+04
 -6.79427E+03  1.60254E+04 -1.50198E+04  9.52899E+03 -1.75656E+04 -1.23676E+03 -1.28528E+04 -1.06244E+04
 -5.13642E+03 -1.38409E+04  4.01576E+03 -1.35698E+04  9.23802E+03 -7.43982E+03  9.75041E+03  5.52188E+02
  4.96228E+03  4.79965E+03 -8.49703E+02  4.10819E+03 -2.46557E+03 -4.49709E+02  2.24008E+02 -2.84971E+03
  4.18293E+03 -2.14593E+03  5.87292E+03  1.51124E+03  3.79139E+03  5.52929E+03 -2.93360E+02  7.33218E+03
 -6.40249E+03  6.40589E+03 -9.53837E+03  4.16981E+02 -8.64045E+03 -7.08813E+03 -1.35004E+03 -1.21746E+04
  6.64504E+03 -1.02300E+04  1.12653E+04 -3.17040E+03  1.06255E+04  3.13931E+03  6.58895E+03  8.93045E+03
  9.54721E+02  9.74904E+03 -4.26757E+03  8.07082E+03 -6.34147E+03  4.02175E+03 -5.57334E+03  6.26928E+02
 -2.83908E+03 -1.53709E+02 -2.54506E+03  1.49800E+03 -5.09577E+03  1.30776E+03 -7.80795E+03 -1.61438E+03
 -6.87374E+03 -5.53036E+03 -1.97404E+03 -9.50634E+03  4.54349E+03 -9.98590E+03  8.64015E+03 -4.72740E+03
  9.83205E+03  1.50609E+03  5.24194E+03  7.12642E+03 -8.73981E+02  9.89366E+03 -7.85045E+03  6.37690E+03
