 $NMID ID='MM_0lb_SNR800_20hz_g45_100.RAW', FMTDAT='(8E13.5)'
 TRAMP=1., VOLUME=1. $END
  3.09947E+05  3.66721E+02  3.37140E+05  2.50151E+05  8.43403E+04  3.37346E+05 -1.32510E+05  2.50037E+05
 -1.89450E+05  8.23304E+04 -1.10788E+05 -3.29955E+04  1.84197E+03 -5.01355E+04  5.37502E+04  4.97341E+02
  3.49415E+04  5.27665E+04 -1.69728E+04  7.46618E+04 -6.02116E+04  6.24765E+04 -8.25488E+04  3.10858E+04
 -7.92700E+04 -1.10963E+04 -5.57578E+04 -4.97727E+04 -1.49358E+04 -6.76939E+04  2.65096E+04 -4.45832E+04
  3.87488E+04  3.67698E+03  1.53001E+04  4.65812E+04 -3.38661E+04  4.59087E+04 -6.49022E+04 -4.08522E+02
 -5.13748E+04 -5.53577E+04 -5.95100E+03 -7.44213E+04  3.26616E+04 -5.24943E+04  4.55443E+04 -1.58190E+04
  4.10210E+04  1.10791E+04  3.04061E+04  2.41671E+04  1.56001E+04  2.79901E+04 -4.50635E+03  2.66260E+04
 -2.17256E+04  1.29584E+04 -1.93665E+04 -3.99819E+03  3.83034E+03 -7.56759E+03  2.10786E+04  1.04286E+04
  7.49470E+03  3.26560E+04 -3.00090E+04  3.34144E+04 -6.03337E+04  2.10971E+03 -5.47497E+04 -4.07544E+04
 -1.23537E+04 -5.99451E+04  3.76642E+04 -4.24672E+04  5.43694E+04 -1.82306E+03  3.10184E+04  2.96076E+04
 -6.44880E+03  3.19887E+04 -2.79225E+04  1.24330E+04 -2.65568E+04 -5.76618E+03 -1.39559E+04 -1.00348E+04
 -6.98314E+03 -1.07982E+04 -9.95955E+02 -1.62689E+04  6.25765E+03 -2.21745E+04  1.49204E+04 -1.42850E+04
  1.26239E+04  3.80731E+03 -5.53418E+03  1.32256E+04 -1.85884E+04 -1.96262E+03 -7.96035E+03 -2.91730E+04
  2.00790E+04 -3.93916E+04  4.35138E+04 -1.82042E+04  4.10470E+04  1.78067E+04  1.36340E+04  4.05115E+04
 -1.49155E+04  3.02872E+04 -2.28620E+04  8.13321E+02 -7.75878E+03 -2.59032E+04  2.00730E+04 -3.01627E+04
  3.69303E+04 -6.90285E+03  3.00809E+04  2.20433E+04  1.44487E+04  4.12434E+04 -7.70607E+03  4.37133E+04
 -2.70558E+04  2.87196E+04 -3.56557E+04  8.06377E+03 -3.70109E+04 -1.45183E+04 -2.05751E+04 -3.32361E+04
  6.74573E+03 -3.29064E+04  2.84293E+04 -1.20512E+04  2.61241E+04  1.08049E+04  2.84461E+03  1.72641E+04
 -1.29243E+04  7.12760E+03 -9.29262E+03 -7.79958E+03  5.93512E+03 -9.78358E+03  1.70789E+04  6.72005E+03
  1.18337E+04  2.15699E+04 -6.77417E+03  2.28683E+04 -2.13692E+04  8.17849E+03 -2.38850E+04 -6.92602E+03
 -1.51718E+04 -1.60462E+04 -4.62480E+03 -1.54305E+04  4.11310E+03 -1.31297E+04  1.14434E+04 -1.30224E+04
  1.96281E+04 -1.10378E+04  2.65574E+04  3.86946E+02  2.03176E+04  1.53052E+04  4.02995E+03  3.11934E+04
 -1.53309E+04  2.68292E+04 -2.55229E+04  9.21417E+03 -1.90701E+04 -1.01738E+04 -4.19199E+03 -1.41155E+04
  2.85122E+03 -4.58021E+03 -1.85251E+03  4.83134E+03 -1.18504E+04  5.29022E+03 -1.22438E+04 -4.36562E+03
 -8.20565E+03 -1.40316E+04  4.53349E+03 -1.79836E+04  1.14702E+04 -1.32985E+04  1.34833E+04 -1.48496E+03
  8.13545E+03  9.92709E+03 -7.97292E+02  1.43760E+04 -9.43817E+03  8.03092E+03 -1.42397E+04 -2.95804E+03
 -1.08287E+04 -1.32905E+04 -1.50302E+03 -1.79284E+04  8.04837E+03 -1.41482E+04  1.53290E+04 -6.69483E+03
  1.35969E+04  7.38267E+02  9.74128E+03  3.77533E+03  4.59358E+03  4.13785E+02  6.74964E+03 -1.33520E+03
  1.28410E+04  2.68685E+03  1.31795E+04  1.20907E+04  8.12085E+03  2.27391E+04 -3.36232E+03  2.41764E+04
 -1.46231E+04  1.79157E+04 -2.23694E+04  8.86718E+03 -2.23338E+04 -1.48938E+03 -1.94534E+04 -1.26394E+04
 -9.63116E+03 -1.80261E+04  6.21187E+03 -1.75266E+04  1.52309E+04 -1.03811E+04  1.42458E+04  3.19927E+03
  6.31821E+03  1.02334E+04 -6.38050E+03  9.81668E+03 -1.25048E+04  2.71612E+03 -9.65440E+03 -7.50849E+03
 -2.71506E+02 -1.14421E+04  5.68802E+03 -8.90685E+03  7.03131E+03 -1.26044E+03  9.98401E+02  4.46424E+03
 -5.10327E+03  8.55781E+02 -3.01548E+03 -4.51897E+03  9.44702E+02 -9.32247E+03  7.37002E+03 -8.82017E+03
  1.09103E+04 -4.06893E+03  1.01580E+04  2.75200E+03  8.67184E+03  8.32268E+03  4.36335E+03  1.19734E+04
 -1.22168E+03  1.40177E+04 -8.21418E+03  8.90100E+03 -9.85099E+03  2.81494E+03 -7.75852E+03 -1.57293E+03
 -4.44432E+03 -2.83245E+03 -4.99991E+02  1.64743E+03 -1.85344E+03  1.90460E+03 -2.94025E+03  3.41370E+03
 -7.54657E+03 -3.77820E+02 -8.15774E+03 -6.59125E+03 -3.48753E+03 -1.06035E+04  3.25335E+03 -7.72345E+03
  6.57384E+03 -3.47829E+03  4.75035E+03  1.68856E+03  6.15191E+02  2.77811E+03 -2.86847E+03 -2.20335E+00
 -2.92752E+03 -4.66241E+03 -7.81040E+02 -6.32017E+03  3.27443E+03 -7.02640E+03  8.68380E+03 -3.68031E+03
  1.06787E+04  5.82417E+02  7.53687E+03  5.39124E+03  1.51773E+03  7.56148E+03 -4.83380E+03  7.50325E+03
 -6.47758E+03  2.77521E+03 -3.19827E+03 -1.16657E+03  1.09982E+03 -1.51498E+03  4.38371E+03 -1.16955E+03
  3.92821E+03  2.97225E+03  1.10427E+03  5.79797E+03 -3.80368E+03  5.73104E+03 -6.93385E+03  1.70968E+03
 -4.18184E+03 -3.08175E+03  5.40741E+02 -5.74378E+03  3.26465E+03 -2.66536E+03  2.74594E+03  8.36463E+02
  1.98303E+02  2.49772E+03 -3.65356E+03  3.84045E+03 -3.68727E+03  1.90498E+03 -3.49064E+03 -6.59344E+02
 -2.52858E+03 -4.99592E+03  9.58329E+02 -6.23502E+03  4.94320E+03 -3.97299E+03  5.33831E+03  6.68450E+02
  4.06691E+03  4.59053E+03  2.22129E+02  6.32931E+03 -4.31458E+03  3.67299E+03 -4.33052E+03 -2.59729E+02
 -5.33554E+03 -4.65501E+03 -1.29897E+03 -4.29094E+03  2.16211E+03 -3.93352E+03  2.34135E+03 -2.85750E+03
  2.84486E+03  8.25490E+01  3.06441E+02  1.22899E+03  6.23210E+02  1.54923E+02  9.49146E+01 -1.44650E+03
  3.18558E+03 -5.55455E+02  4.06995E+03  7.08082E+02  4.50627E+03  2.35654E+03  4.81105E+03  5.69829E+03
 -1.03449E+03  7.01212E+03 -6.44711E+03  5.51719E+03 -8.44008E+03  9.89198E+02 -6.48008E+03 -1.83681E+03
 -3.55497E+03 -5.33149E+03 -4.04729E+02 -4.39889E+03  1.76327E+03 -1.56704E+03  1.39482E+03 -1.81011E+03
  7.06501E+02 -1.41756E+03  2.08857E+03 -2.29948E+03  3.46417E+03 -1.27319E+03  3.00453E+03  5.40011E+02
  3.92100E+03  1.20713E+03  4.35494E+02  2.79862E+03 -1.30076E+03  1.93499E+03 -3.73015E+03  1.84055E+03
 -4.37021E+03 -1.23517E+03 -1.04085E+03 -2.80786E+03  7.06106E+02 -4.25786E+03  2.65594E+03 -4.29728E+03
  4.07375E+03 -2.93893E+03  5.60742E+03 -1.70477E+02  4.21550E+03  3.34667E+03  1.17601E+03  5.01378E+03
 -1.59444E+03  5.04209E+03 -2.48253E+03  1.75845E+03 -1.66333E+03 -9.37668E+02 -2.40658E+01 -5.17777E+02
 -3.75630E+02  3.12371E+02 -9.85338E+02  1.95184E+03 -2.13753E+03  9.34250E+02 -3.45654E+03 -1.48777E+02
 -9.31997E+02 -3.52874E+03  7.02232E+02 -3.77814E+03  2.16353E+03 -3.68093E+03  2.75243E+03 -9.48057E+02
  3.07895E+03  2.12761E+03  1.03536E+03  2.54885E+03 -7.83882E+02  3.41789E+03 -1.74878E+03  2.22844E+03
 -2.93240E+03  4.52033E+02 -2.94713E+03 -1.91626E+03 -7.83148E+01 -2.43560E+03  1.21188E+03 -1.87665E+03
  2.06842E+03 -1.38170E+03  1.30366E+03  2.09828E+02  5.41647E+02  1.25780E+03  6.25486E+02  4.99024E+02
  1.42037E+03  4.29208E+02  1.08725E+03  8.37946E+02  7.93174E+02  2.17316E+03  1.20548E+03  1.19750E+03
 -8.95111E+02  2.14207E+03 -1.91996E+03  3.46365E+03 -2.18396E+03  1.32955E+03 -3.22977E+03 -1.96505E+01
 -1.50754E+03 -2.81645E+03  3.99233E+02 -3.85898E+03  1.43354E+03 -1.90697E+03  2.17714E+03 -6.86844E+02
  1.89255E+03  1.91293E+03  4.74486E+02  1.78023E+03 -3.85367E+02  8.89592E+02 -5.87969E+02  2.74880E+01
 -2.47016E+02 -1.25965E+03  9.25936E+02 -1.17915E+03  1.17660E+03 -1.32884E+03  1.02477E+03  5.08178E+02
  5.57520E+02  3.14039E+02  1.04409E+03 -5.66237E+02 -3.46921E+02  6.97157E+02  1.67665E+03 -2.01486E+02
 -9.83833E+01 -1.56009E+02  1.52847E+03  5.31888E+02  8.18937E+01  1.92477E+03 -1.87298E+02  2.36937E+03
 -1.51636E+03  7.55428E+02 -1.58618E+03  3.23922E+02 -1.59200E+03 -4.16654E+02  1.84197E+01 -8.99167E+02
  5.48896E+02 -9.58798E+02  7.64976E+02 -6.66294E+02  4.36882E+02  1.13676E+03 -7.75090E+02  9.08229E+02
 -1.24534E+03  7.89724E+02 -6.55672E+02 -1.21691E+03 -1.83254E+02 -1.52033E+03 -7.25902E+01 -1.18680E+03
  2.03619E+01 -3.52730E+02  8.29085E+01  3.91438E+00  1.11482E+03 -3.55126E+02  1.55879E+02  1.17799E+03
 -1.34294E+02  5.20175E+00 -9.59939E+02 -2.82009E+01  7.40801E+02 -8.59265E+02  1.24886E+03 -5.86920E+02
  6.78491E+02  2.61460E+02  2.30173E+03  4.58511E+02  8.37638E+02  8.09074E+02  4.02721E+01  1.12833E+03
 -8.04232E+02  3.51550E+01 -1.09283E+03 -1.86556E+01 -3.99167E+02 -1.01024E+03  1.52049E+02 -4.82506E+02
  1.39120E+03 -6.42230E+02  4.54476E+02  6.08780E+02  1.39546E+02  1.35667E+03  2.01932E+02  8.09846E+02
 -2.07889E+02  1.05515E+03 -2.40115E+02  2.97276E+01  9.24150E+01  1.57809E+02 -8.08840E+02  5.57612E+02
 -4.69338E+02  8.74148E+02 -1.44010E+03  5.06910E+02 -1.35400E+03  1.40539E+02 -1.69051E+03 -4.57668E+02
 -7.59780E+02 -1.53833E+03  5.04321E+02 -2.26061E+03  4.36208E+02 -1.98919E+03  2.10208E+03 -8.20554E+02
  1.86629E+03 -4.93309E+02  9.22084E+02  9.87975E+02 -8.36116E+02  7.32772E+02 -3.56711E+02  1.05435E+03
 -7.20141E+02  4.64402E+02 -3.40205E+02 -1.78963E+02 -3.90982E+02  3.47066E+02 -4.71442E+02  3.12224E+00
 -1.34403E+03  1.06762E+02 -8.11014E+02  2.92999E+02  2.34336E+02 -4.50153E+02 -7.77861E+02 -8.65374E+02
  1.11027E+03 -3.14312E+02  2.36765E+02  1.47414E+02  7.59885E+02  8.72906E+02 -7.24826E+02  1.15483E+03
 -7.13382E+02  1.98418E+03 -8.76034E+02  9.01840E+02 -1.34683E+03 -3.30200E+02 -5.74466E+02 -1.04891E+03
 -7.30469E+02 -8.84777E+02  1.06419E+02 -6.09103E+02  2.23981E+02 -8.25154E+01  2.82470E+02  2.21076E+02
  7.83471E+02  1.52128E+02 -1.72135E+01  1.60127E+02 -1.53347E+02  3.57820E+00  1.65339E+02 -3.34812E+02
  5.20638E+02  3.67825E+02  1.68102E+02  6.00300E+02 -1.02418E+02  3.82682E+02  5.87955E+02  1.76215E+02
 -5.73793E+02  4.66685E+02 -5.32060E+02  3.30383E+01 -6.12664E+02 -2.11856E+02  1.22399E+02 -1.01143E+03
  2.50239E+02 -8.35308E+02  2.43263E+02  1.64656E+02  4.00744E+02 -7.53852E+02  4.19543E+02  7.77489E+02
  5.85960E+02  2.13090E+02 -1.91622E+02  5.10100E+02 -3.83755E+02  5.28769E+02 -2.91221E+02  2.14565E+02
  1.85764E+01 -2.95968E+02 -3.61744E+02 -9.36019E+01 -3.75992E+02  1.39672E+02 -7.76422E+02 -2.30079E+02
 -6.02207E+02  2.83495E+02 -4.40464E+02 -5.74563E+02  5.33206E+02 -1.16318E+03  5.71228E+02  6.10298E+01
  5.86475E+02  1.87322E+02 -4.25806E+02  1.07785E+01 -2.53608E+02  4.22387E+02 -1.21488E+02  6.92203E+02
