 $NMID ID='MM_0lb_SNR800_17hz_g45_50.RAW', FMTDAT='(8E13.5)'
 TRAMP=1., VOLUME=1. $END
  3.09837E+05  7.37254E+02  3.37452E+05  2.50241E+05  8.43727E+04  3.37197E+05 -1.32433E+05  2.50277E+05
 -1.89725E+05  8.26996E+04 -1.11077E+05 -3.27274E+04  1.04160E+03 -5.02400E+04  5.38849E+04  2.09792E+02
  3.51464E+04  5.29731E+04 -1.68945E+04  7.48665E+04 -6.02477E+04  6.27623E+04 -8.34515E+04  3.15189E+04
 -8.01087E+04 -1.11434E+04 -5.63584E+04 -5.02833E+04 -1.48274E+04 -6.86283E+04  2.71065E+04 -4.52678E+04
  3.91278E+04  3.89436E+03  1.56651E+04  4.72386E+04 -3.39316E+04  4.63763E+04 -6.53909E+04 -4.13256E+02
 -5.22636E+04 -5.63054E+04 -6.32660E+03 -7.58055E+04  3.31821E+04 -5.37122E+04  4.64358E+04 -1.66555E+04
  4.22239E+04  1.11474E+04  3.09742E+04  2.47281E+04  1.60441E+04  2.83496E+04 -4.72703E+03  2.68688E+04
 -2.17154E+04  1.26469E+04 -1.91049E+04 -4.57471E+03  4.81548E+03 -7.41016E+03  2.15748E+04  1.14059E+04
  7.42288E+03  3.38062E+04 -3.07528E+04  3.42031E+04 -6.15642E+04  2.31046E+03 -5.56695E+04 -4.17127E+04
 -1.24722E+04 -6.12943E+04  3.85672E+04 -4.40248E+04  5.61649E+04 -1.67732E+03  3.22724E+04  3.12689E+04
 -6.26933E+03  3.37371E+04 -2.87654E+04  1.41123E+04 -2.80978E+04 -5.05367E+03 -1.49873E+04 -1.02178E+04
 -7.60645E+03 -1.18162E+04 -9.64324E+02 -1.68720E+04  6.85128E+03 -2.28388E+04  1.52697E+04 -1.37791E+04
  1.18612E+04  4.17351E+03 -6.61791E+03  1.30554E+04 -1.96703E+04 -2.90722E+03 -8.01003E+03 -3.12044E+04
  2.10737E+04 -4.14937E+04  4.54569E+04 -1.88177E+04  4.29351E+04  1.84602E+04  1.47504E+04  4.22446E+04
 -1.57519E+04  3.16072E+04 -2.39523E+04  1.00655E+03 -8.59559E+03 -2.65133E+04  2.04771E+04 -3.16447E+04
  3.86595E+04 -7.72863E+03  3.26856E+04  2.29059E+04  1.62501E+04  4.35505E+04 -8.02183E+03  4.62784E+04
 -2.93521E+04  3.08283E+04 -3.84730E+04  8.66940E+03 -3.93766E+04 -1.54194E+04 -2.19780E+04 -3.54322E+04
  6.97175E+03 -3.49812E+04  2.99688E+04 -1.31689E+04  2.75892E+04  1.07737E+04  3.31443E+03  1.81281E+04
 -1.31003E+04  7.71738E+03 -9.80236E+03 -7.61420E+03  5.63688E+03 -1.02884E+04  1.73322E+04  6.37699E+03
  1.25313E+04  2.13121E+04 -6.27328E+03  2.37463E+04 -2.19326E+04  9.95542E+03 -2.57250E+04 -6.04788E+03
 -1.75231E+04 -1.65401E+04 -6.61112E+03 -1.79667E+04  3.90394E+03 -1.60673E+04  1.32973E+04 -1.52986E+04
  2.24103E+04 -1.17651E+04  2.92824E+04  1.77293E+03  2.19768E+04  1.73585E+04  3.98745E+03  3.33080E+04
 -1.64529E+04  2.82672E+04 -2.61137E+04  9.52685E+03 -1.99564E+04 -1.06416E+04 -4.21739E+03 -1.36992E+04
  2.82290E+03 -4.09733E+03 -3.18438E+03  5.85431E+03 -1.36174E+04  5.28390E+03 -1.44888E+04 -5.72098E+03
 -9.09701E+03 -1.63757E+04  4.55495E+03 -2.02409E+04  1.33255E+04 -1.46412E+04  1.54787E+04 -1.52041E+03
  9.50297E+03  1.12606E+04 -8.05691E+02  1.66069E+04 -1.10760E+04  9.26912E+03 -1.62065E+04 -3.63234E+03
 -1.23434E+04 -1.48934E+04 -1.78273E+03 -2.01747E+04  9.39475E+03 -1.59902E+04  1.72354E+04 -7.52031E+03
  1.54692E+04  8.48036E+02  1.10397E+04  3.67831E+03  5.82539E+03  8.19637E+02  8.19617E+03 -1.62290E+03
  1.49121E+04  2.63708E+03  1.58244E+04  1.34512E+04  9.94210E+03  2.60291E+04 -3.31648E+03  2.84039E+04
 -1.68536E+04  2.21423E+04 -2.64773E+04  1.07175E+04 -2.69388E+04 -1.79037E+03 -2.29864E+04 -1.52787E+04
 -1.04714E+04 -2.22003E+04  7.46741E+03 -2.06308E+04  1.80631E+04 -1.14099E+04  1.65354E+04  3.93510E+03
  6.60419E+03  1.20192E+04 -7.34479E+03  1.10300E+04 -1.40396E+04  2.86084E+03 -1.08909E+04 -8.51913E+03
 -2.19216E+02 -1.29969E+04  6.79907E+03 -9.76888E+03  8.48534E+03 -1.46172E+03  1.27662E+03  5.43753E+03
 -5.84283E+03  1.55531E+03 -4.03955E+03 -4.65350E+03  2.89110E+02 -1.13497E+04  8.22768E+03 -1.10949E+04
  1.31767E+04 -5.39031E+03  1.35136E+04  2.61859E+03  1.16537E+04  1.01912E+04  5.36930E+03  1.54040E+04
 -2.11888E+03  1.74115E+04 -1.09110E+04  1.09675E+04 -1.23584E+04  2.95419E+03 -8.99095E+03 -2.09650E+03
 -4.69358E+03 -3.71071E+03 -7.17673E+02  1.35232E+03 -2.44074E+03  1.90830E+03 -4.05009E+03  3.77364E+03
 -8.68041E+03 -4.94344E+02 -9.27477E+03 -7.59020E+03 -3.84101E+03 -1.23960E+04  3.71205E+03 -9.47712E+03
  7.71024E+03 -3.84520E+03  5.49413E+03  2.17271E+03  4.93042E+02  3.17809E+03 -3.78236E+03 -3.46054E+02
 -3.64668E+03 -5.68505E+03 -6.56157E+02 -8.33484E+03  4.48819E+03 -8.78397E+03  1.08530E+04 -4.74865E+03
  1.30456E+04  5.58839E+02  9.56082E+03  6.93664E+03  2.14608E+03  9.73999E+03 -5.59446E+03  9.16342E+03
 -7.47519E+03  2.89666E+03 -3.96242E+03 -1.36740E+03  1.35871E+03 -2.58815E+03  5.08235E+03 -1.25349E+03
  4.60082E+03  3.96702E+03  1.18023E+03  7.20667E+03 -4.63661E+03  6.71252E+03 -8.43931E+03  1.68157E+03
 -5.60508E+03 -4.02559E+03  4.47853E+02 -7.23757E+03  4.14480E+03 -3.56301E+03  4.13022E+03  1.26897E+03
  8.59627E+02  3.91581E+03 -4.35224E+03  5.26885E+03 -5.68833E+03  2.52482E+03 -5.66204E+03 -1.60966E+03
 -3.39114E+03 -6.90851E+03  1.61470E+03 -8.19124E+03  6.36611E+03 -5.30043E+03  7.21186E+03  1.11308E+03
  5.38282E+03  5.94534E+03 -1.42655E+02  8.31637E+03 -5.86384E+03  4.90130E+03 -6.00831E+03 -7.76590E+02
 -6.09428E+03 -5.34799E+03 -1.52495E+03 -5.71172E+03  2.74603E+03 -5.31185E+03  3.17119E+03 -2.84489E+03
  3.23121E+03  4.03122E+02  3.65185E+02  1.27682E+03  2.23521E+02 -4.39775E+02  3.81115E+02 -2.40792E+03
  4.63694E+03 -9.34553E+02  6.19439E+03  5.39197E+02  6.34333E+03  3.89684E+03  5.84163E+03  8.60591E+03
 -1.54959E+03  9.60184E+03 -8.87346E+03  7.52106E+03 -1.13997E+04  1.24311E+03 -8.81876E+03 -3.22067E+03
 -4.73022E+03 -7.61281E+03 -4.94856E+02 -5.86728E+03  2.28279E+03 -2.50421E+03  2.24094E+03 -2.30709E+03
  1.49530E+03 -1.84484E+03  2.31867E+03 -2.75020E+03  3.77931E+03 -1.76425E+03  3.97422E+03  3.09609E+02
  5.14702E+03  1.27825E+03  1.59376E+03  3.79778E+03 -1.65089E+03  3.38397E+03 -4.91129E+03  3.33427E+03
 -5.93346E+03 -1.28936E+03 -2.51533E+03 -3.83833E+03  4.89051E+02 -5.94763E+03  3.53403E+03 -6.27465E+03
  6.21430E+03 -3.95295E+03  7.71922E+03  4.86813E+02  5.56307E+03  4.85131E+03  1.24262E+03  7.07320E+03
 -2.48073E+03  6.42059E+03 -4.18569E+03  2.13612E+03 -2.18336E+03 -1.19270E+03 -8.68059E+02 -9.77458E+02
 -2.48261E+02  1.91069E+02 -9.88982E+02  2.25394E+03 -2.91645E+03  1.31575E+03 -4.45303E+03 -4.33924E+02
 -1.84119E+03 -4.76124E+03  6.07214E+02 -5.39772E+03  3.02915E+03 -5.03210E+03  4.59163E+03 -1.45945E+03
  5.03624E+03  2.86042E+03  2.38988E+03  4.41113E+03 -7.36376E+02  5.38991E+03 -3.31486E+03  3.24364E+03
 -4.64017E+03  4.13542E+02 -4.15204E+03 -3.17949E+03 -6.61103E+02 -4.10509E+03  1.72092E+03 -2.95760E+03
  3.23961E+03 -1.35769E+03  1.90832E+03  7.16445E+02  6.46944E+02  1.84420E+03  7.06353E+02  6.99316E+02
  2.01313E+03  4.82126E+02  1.39680E+03  1.33922E+03  1.12720E+03  2.59638E+03  1.41121E+03  2.10778E+03
 -1.66675E+03  3.85230E+03 -3.37259E+03  4.95541E+03 -3.95040E+03  1.49812E+03 -5.00103E+03 -9.98930E+02
 -1.91942E+03 -4.19613E+03  7.35430E+02 -5.58069E+03  2.29197E+03 -3.25294E+03  3.72910E+03 -1.21866E+03
  3.01618E+03  2.22875E+03  6.24115E+02  2.96545E+03 -9.84580E+02  1.51063E+03 -1.18693E+03 -7.58910E+01
 -9.20340E+02 -1.88707E+03  1.53128E+03 -1.94864E+03  1.76302E+03 -1.26664E+03  1.63248E+03  5.27033E+02
  7.85417E+02  7.81578E+02  7.92482E+02  1.23335E+01 -5.08586E+02  8.41295E+02  1.77211E+03 -2.29126E+02
  1.54637E+02 -2.97204E+02  2.09410E+03  7.45970E+02  3.45260E+02  2.85992E+03 -3.77690E+02  3.82438E+03
 -2.18700E+03  1.29053E+03 -2.71291E+03  7.50737E+02 -2.64431E+03 -7.43475E+02 -2.84880E+02 -1.31466E+03
  6.10839E+02 -1.32132E+03  1.16785E+03 -9.40021E+02  1.10397E+03  1.55480E+03 -9.27218E+02  1.20826E+03
 -1.87165E+03  7.43218E+02 -1.64296E+03 -1.51977E+03 -1.02972E+03 -2.90493E+03  3.68561E+02 -2.36847E+03
  7.76298E+02 -6.86492E+02  1.08617E+03  9.64685E+01  1.81151E+03  2.38452E+02  4.29202E+02  1.46448E+03
 -7.25431E+02  1.55914E+02 -1.22602E+03 -5.84107E+02  6.37352E+02 -1.23458E+03  2.01806E+03 -1.00327E+03
  1.79316E+03  4.38668E+02  3.06595E+03  1.20577E+03  1.23487E+03  2.14535E+03 -9.10884E+02  2.69574E+03
 -1.97191E+03  5.57427E+02 -1.84533E+03 -1.06213E+02 -1.08975E+03 -1.79055E+03  2.98877E+02 -9.08484E+02
  1.70583E+03 -6.84589E+02  1.04968E+03  8.97473E+02  1.07171E+02  1.67613E+03  5.24141E+02  1.36905E+03
 -5.94460E+02  1.25384E+03 -6.38215E+02  8.27532E+01 -2.09171E+02  9.72584E+02 -6.45015E+02  5.70808E+02
 -7.00748E+02  1.40752E+03 -2.29320E+03  7.20994E+02 -2.19033E+03  3.22473E+02 -3.26113E+03 -1.28147E+03
 -1.38295E+03 -2.80838E+03  8.08643E+02 -3.45188E+03  1.69386E+03 -2.97345E+03  3.52605E+03 -1.35360E+03
  3.15434E+03 -2.88900E+02  1.85086E+03  2.09580E+03 -4.07410E+02  2.30347E+03 -7.74376E+02  1.65477E+03
 -1.27950E+03  9.20008E+02 -6.04760E+02  8.17082E+01 -5.64539E+02  3.18439E+02 -8.17591E+02  8.32416E+01
 -7.71599E+02 -7.93146E+01 -9.19223E+02  5.69401E+01  2.84653E+02 -8.31304E+02 -1.94657E+02 -1.15139E+03
  1.56008E+03 -8.47098E+02  7.74812E+02  4.95610E+01  1.62496E+03  1.20573E+03 -4.54743E+02  1.92713E+03
 -1.18296E+03  2.94118E+03 -2.33770E+03  1.68979E+03 -2.20494E+03 -1.95848E+02 -1.55944E+03 -1.41832E+03
 -1.06483E+03 -1.91298E+03  3.07542E+02 -2.05437E+03  9.06556E+02 -8.09299E+02  1.00496E+03  9.78482E+01
  6.36036E+02  7.18332E+02  1.14251E+01  4.29540E+02 -4.35997E+02  6.52708E+01 -1.05984E+02 -3.88641E+02
  4.62733E+02 -1.19879E+02  6.30723E+02  5.97060E+02  3.12519E+02  7.47855E+02  6.57314E+02  5.82361E+02
 -7.62161E+02  8.81623E+02 -1.17252E+03  4.52566E+01 -1.00109E+03 -5.83409E+02  1.95455E+02 -1.59321E+03
  6.70403E+02 -1.19855E+03  8.96591E+02 -3.66881E+02  1.32471E+03 -5.36280E+02  3.54308E+02  1.20273E+03
  3.76217E+02  7.84171E+02 -2.04124E+02  9.91461E+02 -6.11329E+02  1.19165E+03 -6.50082E+02  1.05300E+02
 -3.14200E+02 -1.18858E+01 -3.92606E+02 -1.41717E+02 -6.31707E+02  1.00962E+02 -1.02697E+03 -5.65462E+02
 -1.19815E+03 -6.08552E+01 -5.57099E+02 -1.20743E+03  8.39167E+02 -2.02008E+03  9.71524E+02 -3.02693E+02
  1.07584E+03  1.16457E+02  1.37418E+02  5.83302E+02 -1.05119E+02  1.27744E+03 -5.36573E+02  7.47415E+02
