 $NMID ID='MM_0lb_SNR800_12hz_g40_69.RAW', FMTDAT='(8E13.5)'
 TRAMP=1., VOLUME=1. $END
  3.09876E+05  6.48086E+01  3.37352E+05  2.50855E+05  8.49538E+04  3.38102E+05 -1.32601E+05  2.51198E+05
 -1.90625E+05  8.32700E+04 -1.12052E+05 -3.25442E+04  9.88066E+02 -5.01414E+04  5.39766E+04 -4.10069E+02
  3.52155E+04  5.27146E+04 -1.68655E+04  7.54254E+04 -6.06202E+04  6.36023E+04 -8.42303E+04  3.21465E+04
 -8.10274E+04 -1.15833E+04 -5.74905E+04 -5.13656E+04 -1.51628E+04 -6.97445E+04  2.73290E+04 -4.56963E+04
  4.02082E+04  3.92198E+03  1.63380E+04  4.79384E+04 -3.42851E+04  4.76474E+04 -6.68085E+04 -2.22490E+02
 -5.34448E+04 -5.70279E+04 -6.86905E+03 -7.71549E+04  3.42301E+04 -5.52479E+04  4.84874E+04 -1.74624E+04
  4.34103E+04  1.12363E+04  3.20043E+04  2.57954E+04  1.60313E+04  2.96109E+04 -5.27403E+03  2.73615E+04
 -2.18344E+04  1.22159E+04 -1.85400E+04 -5.45064E+03  5.79968E+03 -7.10511E+03  2.24096E+04  1.27053E+04
  7.10585E+03  3.55780E+04 -3.29245E+04  3.56132E+04 -6.39868E+04  1.99155E+03 -5.76338E+04 -4.30880E+04
 -1.26060E+04 -6.36401E+04  4.02392E+04 -4.54972E+04  5.88807E+04 -2.43039E+03  3.42614E+04  3.28081E+04
 -6.11497E+03  3.66769E+04 -3.02735E+04  1.64570E+04 -3.08845E+04 -4.14272E+03 -1.71383E+04 -1.10051E+04
 -8.31557E+03 -1.33674E+04 -3.85005E+02 -1.84576E+04  7.57935E+03 -2.31518E+04  1.55554E+04 -1.30259E+04
  1.09549E+04  5.35350E+03 -8.83435E+03  1.26975E+04 -2.17674E+04 -4.45842E+03 -8.18711E+03 -3.44276E+04
  2.32823E+04 -4.41392E+04  4.85965E+04 -1.96656E+04  4.56099E+04  1.96522E+04  1.64015E+04  4.47658E+04
 -1.58995E+04  3.41881E+04 -2.59607E+04  2.31345E+03 -1.02774E+04 -2.82365E+04  2.13502E+04 -3.41508E+04
  4.18243E+04 -9.33686E+03  3.63734E+04  2.41613E+04  1.87708E+04  4.72616E+04 -7.91390E+03  5.14457E+04
 -3.23406E+04  3.48410E+04 -4.31308E+04  9.22111E+03 -4.37090E+04 -1.70770E+04 -2.38539E+04 -3.83568E+04
  7.43523E+03 -3.85174E+04  3.20627E+04 -1.53140E+04  3.01598E+04  1.08999E+04  4.35960E+03  1.97131E+04
 -1.30384E+04  8.85323E+03 -1.05822E+04 -7.56622E+03  5.75433E+03 -1.04527E+04  1.76823E+04  6.11586E+03
  1.35283E+04  2.19477E+04 -5.63903E+03  2.49987E+04 -2.27038E+04  1.22644E+04 -2.88646E+04 -4.18552E+03
 -2.14919E+04 -1.77683E+04 -9.26727E+03 -2.13016E+04  4.21903E+03 -2.08425E+04  1.66285E+04 -1.91592E+04
  2.74552E+04 -1.30286E+04  3.32156E+04  3.26812E+03  2.41550E+04  2.09571E+04  4.28661E+03  3.66859E+04
 -1.85805E+04  3.09988E+04 -2.83944E+04  1.05581E+04 -2.11485E+04 -1.05406E+04 -4.53266E+03 -1.33680E+04
  1.85920E+03 -2.54029E+03 -5.26945E+03  7.05952E+03 -1.68491E+04  5.18699E+03 -1.72326E+04 -7.18874E+03
 -1.05572E+04 -1.95562E+04  5.35265E+03 -2.39144E+04  1.61551E+04 -1.68698E+04  1.89249E+04 -1.60283E+03
  1.18233E+04  1.40308E+04 -9.99625E+02  1.95626E+04 -1.35299E+04  1.11996E+04 -2.01082E+04 -3.67035E+03
 -1.47511E+04 -1.77311E+04 -1.74910E+03 -2.43130E+04  1.09489E+04 -1.95736E+04  1.97605E+04 -9.92775E+03
  1.88071E+04  3.01097E+01  1.37078E+04  4.30211E+03  7.08286E+03  8.43170E+02  1.01004E+04 -1.89862E+03
  1.86402E+04  2.92005E+03  2.06359E+04  1.58113E+04  1.34298E+04  3.18557E+04 -2.51655E+03  3.64403E+04
 -2.12241E+04  2.92772E+04 -3.39619E+04  1.49796E+04 -3.55028E+04 -2.80529E+03 -2.94352E+04 -2.07403E+04
 -1.26197E+04 -2.95988E+04  1.01648E+04 -2.64843E+04  2.31472E+04 -1.32437E+04  2.01501E+04  5.73417E+03
  7.58336E+03  1.52988E+04 -9.61396E+03  1.33078E+04 -1.72431E+04  2.55475E+03 -1.27920E+04 -1.05960E+04
 -8.44662E+01 -1.64027E+04  8.43322E+03 -1.19926E+04  1.08656E+04 -1.88186E+03  2.35363E+03  7.45505E+03
 -7.31146E+03  3.12112E+03 -6.55572E+03 -5.99972E+03 -8.66941E+02 -1.45080E+04  1.01281E+04 -1.52077E+04
  1.82830E+04 -8.52785E+03  2.00659E+04  3.05202E+03  1.69593E+04  1.47118E+04  8.19772E+03  2.21218E+04
 -3.58282E+03  2.43447E+04 -1.54867E+04  1.49542E+04 -1.75578E+04  3.47860E+03 -1.19930E+04 -4.26510E+03
 -5.63176E+03 -5.36083E+03 -6.30832E+02  9.59226E+02 -2.24436E+03  2.47003E+03 -5.64707E+03  4.59162E+03
 -1.14237E+04 -7.74152E+02 -1.20622E+04 -9.83338E+03 -4.52988E+03 -1.59477E+04  5.12352E+03 -1.22779E+04
  1.02044E+04 -5.18232E+03  7.18188E+03  3.28956E+03 -7.42443E+01  4.81677E+03 -5.75228E+03 -7.55129E+01
 -5.65328E+03 -8.16167E+03 -8.07041E+02 -1.17380E+04  6.61372E+03 -1.22627E+04  1.53324E+04 -6.53874E+03
  1.80639E+04  2.04034E+03  1.33123E+04  1.05862E+04  2.56565E+03  1.44309E+04 -7.59490E+03  1.20519E+04
 -9.91043E+03  3.89614E+03 -4.98776E+03 -2.22771E+03  1.88878E+03 -3.37718E+03  6.64131E+03 -1.04268E+03
  5.65683E+03  5.51372E+03  9.61868E+02  9.69913E+03 -7.08690E+03  9.31548E+03 -1.23024E+04  2.39821E+03
 -7.95017E+03 -5.85920E+03 -2.01108E+02 -1.04931E+04  6.68122E+03 -5.20014E+03  6.52856E+03  2.28490E+03
  1.48398E+03  7.12817E+03 -6.10880E+03  8.05084E+03 -9.55550E+03  3.78089E+03 -9.40729E+03 -3.28054E+03
 -5.49822E+03 -1.11877E+04  2.83972E+03 -1.30270E+04  1.09459E+04 -8.07721E+03  1.19166E+04  2.13030E+03
  7.51091E+03  9.48607E+03 -8.60192E+02  1.16170E+04 -8.49561E+03  6.51180E+03 -9.19595E+03 -6.20525E+02
 -8.24891E+03 -7.94178E+03 -2.01399E+03 -8.47477E+03  4.44805E+03 -6.82670E+03  5.55292E+03 -3.17282E+03
  4.13078E+03  1.24667E+03 -4.84018E+02  1.90417E+03 -9.07143E+01 -1.73044E+03  1.21268E+03 -4.59711E+03
  7.91706E+03 -3.29131E+03  1.09959E+04  1.14530E+03  1.12046E+04  7.46198E+03  8.01578E+03  1.44303E+04
 -3.08814E+03  1.70591E+04 -1.42948E+04  1.25416E+04 -1.80131E+04  2.36338E+03 -1.47689E+04 -5.57821E+03
 -7.75234E+03 -1.18917E+04 -6.70782E+02 -1.02764E+04  4.06214E+03 -5.55665E+03  3.46986E+03 -3.79780E+03
  2.58994E+03 -2.24875E+03  3.23854E+03 -2.86081E+03  4.34968E+03 -2.23836E+03  6.02283E+03 -3.41382E+02
  7.72874E+03  2.13323E+03  3.60830E+03  6.48263E+03 -1.94607E+03  6.90720E+03 -8.44151E+03  5.51843E+03
 -9.93423E+03 -1.15294E+03 -5.76742E+03 -7.04830E+03 -5.24453E+02 -1.05719E+04  6.03011E+03 -1.07555E+04
  1.10430E+04 -6.22150E+03  1.29674E+04  1.28762E+03  9.45710E+03  9.45997E+03  1.53240E+03  1.17055E+04
 -4.76679E+03  1.00451E+04 -7.27229E+03  3.36491E+03 -4.51803E+03 -1.33063E+03 -1.84866E+03 -1.44285E+03
 -9.42659E+02  3.78629E+02 -1.66920E+03  2.40687E+03 -4.09702E+03  1.87346E+03 -7.01625E+03 -1.31359E+03
 -4.39905E+03 -6.95525E+03  6.53122E+02 -9.83358E+03  6.04644E+03 -9.02997E+03  9.14504E+03 -2.70024E+03
  9.30187E+03  5.00662E+03  4.14169E+03  8.35001E+03 -1.85079E+03  9.72987E+03 -6.55577E+03  5.98383E+03
 -8.46786E+03  5.86966E+02 -7.02081E+03 -6.25583E+03 -4.85315E+02 -7.68485E+03  3.87287E+03 -5.98711E+03
  5.69334E+03 -2.29874E+03  4.07769E+03  1.28920E+03  1.15750E+03  3.04407E+03  1.10252E+03  1.50795E+03
  2.27446E+03  9.63826E+02  2.08579E+03  1.64270E+03  2.65241E+03  3.79935E+03  2.51866E+03  5.00213E+03
 -2.44822E+03  7.32428E+03 -6.47496E+03  7.91110E+03 -9.54175E+03  1.60877E+03 -9.70802E+03 -3.45148E+03
 -4.96064E+03 -9.59390E+03  1.32353E+03 -1.08548E+04  5.83859E+03 -6.39725E+03  7.64417E+03 -2.07058E+03
  5.92921E+03  3.64100E+03  1.51184E+03  5.06167E+03 -2.86773E+03  3.43876E+03 -3.63880E+03 -6.13762E+02
 -1.76373E+03 -3.78879E+03  2.19923E+03 -3.89545E+03  3.73805E+03 -1.84759E+03  3.68809E+03  9.17771E+02
  2.20012E+03  2.09222E+03  1.26165E+03  1.05028E+03 -7.45787E+02  1.54260E+03  1.45656E+03 -4.66565E+02
  1.35354E+03 -4.88571E+02  3.89254E+03  1.77702E+03  2.17503E+03  5.57783E+03 -5.30120E+02  7.34634E+03
 -4.57972E+03  3.70033E+03 -6.04131E+03  9.73301E+02 -5.43753E+03 -1.96318E+03 -1.62764E+03 -3.53107E+03
  8.26889E+02 -3.28357E+03  2.42524E+03 -1.73923E+03  2.24824E+03  1.97947E+03 -7.36835E+02  3.04429E+03
 -3.59188E+03  2.04773E+03 -4.17188E+03 -2.36100E+03 -2.23015E+03 -5.12018E+03  6.76086E+02 -4.49928E+03
  2.68619E+03 -2.93063E+03  3.36892E+03 -8.91467E+01  3.17998E+03  1.16466E+03  6.31163E+02  2.95497E+03
 -2.00237E+03  8.53930E+02 -2.27322E+03 -1.28391E+03  8.73800E+02 -3.87906E+03  4.65366E+03 -2.83594E+03
  4.93361E+03  9.59996E+01  6.31505E+03  3.78597E+03  2.07765E+03  5.77743E+03 -1.60110E+03  5.48154E+03
 -4.71454E+03  2.27507E+03 -4.68145E+03 -4.64882E+02 -2.65053E+03 -3.91251E+03  8.04005E+02 -3.34031E+03
  3.93210E+03 -2.02522E+03  2.75573E+03  1.78667E+03  8.24466E+02  3.05210E+03 -2.28001E+02  2.89856E+03
 -1.89294E+03  2.03826E+03 -1.45954E+03  3.01483E+02 -1.76540E+02  3.47181E+02 -1.01596E+03  1.09729E+03
 -1.64163E+03  2.52850E+03 -4.03610E+03  1.97200E+03 -5.68192E+03  1.28202E+02 -6.81247E+03 -3.71970E+03
 -3.56338E+03 -7.43686E+03  1.90359E+03 -8.91170E+03  4.95616E+03 -7.05765E+03  8.38252E+03 -2.86026E+03
  7.62987E+03  1.16608E+03  4.49807E+03  5.36578E+03 -1.72598E+02  5.66129E+03 -2.21965E+03  4.37672E+03
 -3.21659E+03  1.90602E+03 -2.04987E+03 -7.62902E+02 -1.03766E+03 -5.95453E+02 -6.57069E+02  9.37478E+01
 -1.40182E+03 -3.01395E+01 -1.46219E+03 -2.96056E+02 -3.56998E+02 -1.28306E+03 -2.16224E+02 -2.27641E+03
  2.89156E+03 -1.56829E+03  3.18230E+03  2.86359E+01  3.72818E+03  3.18802E+03  8.61879E+02  5.59990E+03
 -2.72898E+03  6.68063E+03 -5.83187E+03  3.90998E+03 -7.00064E+03 -8.25267E+02 -5.21111E+03 -3.97615E+03
 -2.31795E+03 -5.41780E+03  1.48814E+03 -4.82895E+03  3.62476E+03 -3.14498E+03  3.64881E+03  3.60645E+02
  2.25217E+03  2.19454E+03  6.42534E+01  1.55849E+03 -8.61592E+02 -3.81979E+02  4.12078E+01 -1.10115E+03
  1.81233E+03 -3.81065E+02  1.79801E+03  1.08903E+03  1.44279E+03  1.91741E+03  2.94407E+02  2.46715E+03
 -2.53422E+03  2.40085E+03 -3.96852E+03  4.87960E+02 -3.19378E+03 -2.67159E+03 -6.39937E+02 -4.45627E+03
  2.66948E+03 -3.76227E+03  3.88406E+03 -9.96454E+02  4.09205E+03  7.61359E+02  2.28653E+03  3.95935E+03
  7.63321E+02  3.21866E+03 -1.62064E+03  2.78771E+03 -2.55256E+03  1.92655E+03 -1.77714E+03  2.59880E+02
 -1.36097E+03 -3.40823E+02 -1.09278E+03  2.02564E+02 -2.03080E+03  6.41604E+02 -2.78074E+03 -8.63874E+02
 -3.07639E+03 -1.71613E+03 -1.22185E+03 -3.62749E+03  2.17032E+03 -4.37994E+03  3.22622E+03 -1.63862E+03
  3.42327E+03  3.65480E+02  1.72677E+03  2.35986E+03 -2.48933E+02  3.83701E+03 -2.48881E+03  2.50052E+03
