 $NMID ID='MM_0lb_SNR800_8hz_g60_76.RAW', FMTDAT='(8E13.5)'
 TRAMP=1., VOLUME=1. $END
  3.09712E+05  1.42333E+02  3.37995E+05  2.51013E+05  8.52585E+04  3.38951E+05 -1.33070E+05  2.52170E+05
 -1.90979E+05  8.38567E+04 -1.12800E+05 -3.25577E+04 -1.54996E+02 -5.05871E+04  5.35124E+04 -4.57297E+02
  3.55644E+04  5.28226E+04 -1.68691E+04  7.61839E+04 -6.15349E+04  6.48948E+04 -8.56652E+04  3.23990E+04
 -8.35186E+04 -1.21203E+04 -5.84846E+04 -5.30458E+04 -1.51977E+04 -7.12840E+04  2.84234E+04 -4.71140E+04
  4.13637E+04  3.64186E+03  1.74873E+04  4.86801E+04 -3.49671E+04  4.87565E+04 -6.87981E+04  3.91400E+02
 -5.56152E+04 -5.78369E+04 -7.84088E+03 -8.02438E+04  3.49987E+04 -5.75684E+04  5.07886E+04 -1.90717E+04
  4.60750E+04  1.16320E+04  3.32173E+04  2.70354E+04  1.58993E+04  3.07881E+04 -6.17741E+03  2.79501E+04
 -2.25342E+04  1.18637E+04 -1.77336E+04 -6.29419E+03  7.56794E+03 -7.45694E+03  2.43295E+04  1.38375E+04
  6.98376E+03  3.85822E+04 -3.48810E+04  3.83164E+04 -6.65600E+04  2.29778E+03 -5.97062E+04 -4.49191E+04
 -1.27507E+04 -6.66821E+04  4.22990E+04 -4.79583E+04  6.27299E+04 -2.57710E+03  3.74936E+04  3.54295E+04
 -4.74486E+03  4.06766E+04 -3.26161E+04  2.03221E+04 -3.43733E+04 -3.22542E+03 -2.00738E+04 -1.21476E+04
 -1.02041E+04 -1.55816E+04 -1.78664E+02 -1.99703E+04  8.65272E+03 -2.33241E+04  1.60449E+04 -1.21435E+04
  9.97864E+03  6.67940E+03 -1.12739E+04  1.30293E+04 -2.44438E+04 -7.59077E+03 -8.81104E+03 -3.89836E+04
  2.66334E+04 -4.79524E+04  5.35395E+04 -2.13780E+04  4.99494E+04  2.12716E+04  1.79300E+04  4.83278E+04
 -1.70377E+04  3.71923E+04 -2.83810E+04  3.18890E+03 -1.25978E+04 -3.04953E+04  2.16178E+04 -3.81955E+04
  4.66010E+04 -1.20432E+04  4.23896E+04  2.49867E+04  2.28905E+04  5.29486E+04 -8.50890E+03  5.88503E+04
 -3.70999E+04  4.01943E+04 -4.96166E+04  1.22214E+04 -4.94171E+04 -1.96978E+04 -2.73494E+04 -4.37825E+04
  8.21087E+03 -4.34349E+04  3.54114E+04 -1.79087E+04  3.29249E+04  1.08572E+04  5.28932E+03  2.13866E+04
 -1.39995E+04  1.05770E+04 -1.15002E+04 -7.76307E+03  5.55309E+03 -1.16614E+04  1.93861E+04  5.14210E+03
  1.54482E+04  2.27868E+04 -4.61347E+03  2.78128E+04 -2.39539E+04  1.58117E+04 -3.32553E+04 -1.87960E+03
 -2.76342E+04 -1.87460E+04 -1.29495E+04 -2.68855E+04  4.25476E+03 -2.81441E+04  2.15742E+04 -2.50420E+04
  3.47783E+04 -1.46010E+04  4.06386E+04  6.11888E+03  2.83011E+04  2.61394E+04  4.44698E+03  4.36559E+04
 -2.01158E+04  3.57764E+04 -3.21174E+04  1.22838E+04 -2.33094E+04 -1.01217E+04 -5.49815E+03 -1.26650E+04
  5.57302E+02 -6.04885E+02 -8.80913E+03  8.64545E+03 -2.18245E+04  4.84769E+03 -2.15098E+04 -1.04213E+04
 -1.23592E+04 -2.53986E+04  6.35386E+03 -2.92695E+04  2.02203E+04 -2.13696E+04  2.49901E+04 -1.77457E+03
  1.56777E+04  1.75975E+04 -1.24940E+03  2.49718E+04 -1.76068E+04  1.39387E+04 -2.55107E+04 -5.57593E+03
 -1.83914E+04 -2.24516E+04 -2.18285E+03 -2.99809E+04  1.37207E+04 -2.54313E+04  2.50987E+04 -1.31787E+04
  2.37837E+04 -7.62010E+02  1.72308E+04  5.54181E+03  9.82210E+03  1.41101E+03  1.33134E+04 -2.15264E+03
  2.39207E+04  2.60796E+03  2.82411E+04  1.95118E+04  1.92638E+04  4.06870E+04 -2.83993E+03  4.87741E+04
 -2.73335E+04  4.09619E+04 -4.60731E+04  2.12204E+04 -4.93899E+04 -3.68016E+03 -3.96120E+04 -2.88018E+04
 -1.51128E+04 -4.07548E+04  1.49568E+04 -3.59579E+04  3.04681E+04 -1.66202E+04  2.66103E+04  8.81944E+03
  8.37534E+03  2.07034E+04 -1.29344E+04  1.69193E+04 -2.18957E+04  2.71070E+03 -1.64121E+04 -1.38490E+04
 -6.70793E+02 -2.11318E+04  1.15540E+04 -1.54749E+04  1.47073E+04 -1.23707E+03  3.79522E+03  1.00165E+04
 -9.02742E+03  5.05399E+03 -1.04878E+04 -7.63260E+03 -2.35394E+03 -2.03958E+04  1.28649E+04 -2.24523E+04
  2.57049E+04 -1.30842E+04  2.98914E+04  3.63814E+03  2.62940E+04  2.07128E+04  1.20675E+04  3.28797E+04
 -6.86089E+03  3.52071E+04 -2.30300E+04  2.13879E+04 -2.55402E+04  4.70927E+03 -1.74024E+04 -6.85488E+03
 -6.96518E+03 -8.24393E+03 -4.52690E+02  5.36692E+02 -3.36951E+03  4.30061E+03 -8.29444E+03  5.96253E+03
 -1.61054E+04 -1.37878E+03 -1.64446E+04 -1.36063E+04 -6.44144E+03 -2.17844E+04  7.26920E+03 -1.72855E+04
  1.47284E+04 -7.46181E+03  1.00565E+04  4.81341E+03 -5.67032E+02  7.10426E+03 -8.87087E+03 -1.72296E+02
 -8.33300E+03 -1.12000E+04 -1.20748E+03 -1.77809E+04  1.03586E+04 -1.85984E+04  2.22513E+04 -1.03490E+04
  2.66347E+04  3.04896E+03  1.89318E+04  1.71134E+04  3.69462E+03  2.15368E+04 -1.05760E+04  1.67713E+04
 -1.41867E+04  4.82166E+03 -7.56263E+03 -4.37511E+03  2.31242E+03 -5.14534E+03  9.17836E+03 -1.23464E+03
  7.99479E+03  8.26877E+03  1.27642E+03  1.42233E+04 -9.81727E+03  1.37041E+04 -1.73738E+04  3.16232E+03
 -1.24109E+04 -9.57855E+03  8.13053E+01 -1.52524E+04  1.01353E+04 -7.70305E+03  1.12494E+04  4.27851E+03
  2.51621E+03  1.19260E+04 -9.16514E+03  1.36063E+04 -1.58813E+04  5.89092E+03 -1.60947E+04 -5.68044E+03
 -9.52863E+03 -1.87387E+04  4.51104E+03 -2.10885E+04  1.77725E+04 -1.24834E+04  1.98586E+04  3.67982E+03
  1.13081E+04  1.54061E+04 -2.57233E+03  1.83723E+04 -1.37483E+04  9.88551E+03 -1.44071E+04 -1.49124E+03
 -1.17284E+04 -1.16691E+04 -1.93222E+03 -1.41639E+04  7.21664E+03 -1.13721E+04  9.36965E+03 -4.63103E+03
  5.91499E+03  2.66640E+03 -1.77164E+03  2.55896E+03 -1.06785E+03 -4.00789E+03  3.58766E+03 -9.03031E+03
  1.34340E+04 -6.29971E+03  1.90810E+04  1.70154E+03  1.82045E+04  1.35540E+04  1.15015E+04  2.49373E+04
 -6.26292E+03  2.84476E+04 -2.35172E+04  2.09333E+04 -3.04069E+04  4.25584E+03 -2.47138E+04 -1.11595E+04
 -1.21257E+04 -2.02154E+04  4.62358E+01 -1.72373E+04  6.55505E+03 -9.86541E+03  6.42494E+03 -6.09996E+03
  4.21500E+03 -3.81504E+03  4.15894E+03 -3.92924E+03  6.26599E+03 -3.95780E+03  9.24461E+03 -1.75711E+03
  1.24135E+04  3.00110E+03  7.23313E+03  1.10854E+04 -2.51567E+03  1.37429E+04 -1.34511E+04  1.03606E+04
 -1.72614E+04 -1.06588E+03 -1.09625E+04 -1.19767E+04 -1.41255E+03 -1.89085E+04  1.03036E+04 -1.92843E+04
  1.96245E+04 -1.03643E+04  2.36874E+04  3.21217E+03  1.61385E+04  1.66493E+04  2.45039E+03  2.12959E+04
 -9.11172E+03  1.69405E+04 -1.23805E+04  5.73769E+03 -8.66820E+03 -2.03820E+03 -3.29746E+03 -2.73545E+03
 -2.12927E+03 -3.15993E+02 -2.62209E+03  3.15735E+03 -7.22303E+03  3.30453E+03 -1.18131E+04 -1.42019E+03
 -8.87461E+03 -1.18382E+04 -3.72297E+02 -1.77853E+04  1.10344E+04 -1.60803E+04  1.80120E+04 -5.24845E+03
  1.79282E+04  8.60834E+03  8.24371E+03  1.56507E+04 -3.79632E+03  1.82943E+04 -1.29332E+04  1.15575E+04
 -1.74614E+04  4.92050E+02 -1.27359E+04 -1.12615E+04 -1.32931E+03 -1.55147E+04  7.86122E+03 -1.09102E+04
  1.14510E+04 -3.81402E+03  7.97417E+03  3.17738E+03  2.41503E+03  5.01639E+03  1.56232E+03  2.08730E+03
  3.72222E+03  1.48511E+03  4.32199E+03  2.37947E+03  5.46858E+03  6.42407E+03  4.59859E+03  1.00324E+04
 -3.94063E+03  1.46892E+04 -1.29290E+04  1.42207E+04 -1.91649E+04  3.02760E+03 -1.92986E+04 -8.50920E+03
 -9.70980E+03 -1.82379E+04  2.10574E+03 -2.04451E+04  1.15012E+04 -1.30619E+04  1.52979E+04 -3.34837E+03
  1.14392E+04  6.83520E+03  2.80682E+03  1.05724E+04 -4.97460E+03  6.50938E+03 -7.71671E+03 -1.18509E+03
 -3.52933E+03 -7.96956E+03  4.14777E+03 -7.89397E+03  7.61088E+03 -3.90876E+03  7.56579E+03  1.87223E+03
  4.56393E+03  3.80439E+03  1.70190E+03  3.44574E+03 -9.58959E+02  2.58683E+03  1.84980E+03 -1.03437E+03
  3.37700E+03 -1.39618E+03  7.98667E+03  2.90854E+03  4.70674E+03  9.92390E+03 -1.90042E+03  1.34448E+04
 -9.35692E+03  8.87985E+03 -1.24174E+04  2.04971E+03 -1.07388E+04 -4.70821E+03 -4.46776E+03 -7.72997E+03
  9.83914E+02 -7.44300E+03  4.92317E+03 -3.70765E+03  3.92679E+03  3.25230E+03 -1.47000E+03  6.66229E+03
 -7.46544E+03  3.49607E+03 -9.10678E+03 -3.95707E+03 -5.43277E+03 -1.05380E+04  1.63193E+03 -1.10638E+04
  6.70133E+03 -6.02339E+03  7.52036E+03 -3.18393E+02  6.34502E+03  3.27581E+03  9.06198E+02  5.44270E+03
 -3.81427E+03  1.73299E+03 -4.44983E+03 -3.86319E+03  2.10831E+03 -8.04076E+03  9.44662E+03 -6.91031E+03
  1.21788E+04  5.12491E+02  1.17320E+04  7.90907E+03  3.55998E+03  1.28852E+04 -4.21808E+03  1.18432E+04
 -1.02590E+04  5.08613E+03 -1.05502E+04 -1.62992E+03 -6.21764E+03 -7.91326E+03  2.01731E+03 -7.84881E+03
  7.82018E+03 -4.17885E+03  6.60505E+03  3.06316E+03  2.65632E+03  6.72342E+03 -1.25141E+03  6.12998E+03
 -3.63200E+03  3.83806E+03 -3.34458E+03  1.59662E+03 -1.62377E+03  1.23966E+03 -1.50737E+03  2.72248E+03
 -3.12726E+03  5.18651E+03 -8.46947E+03  4.40661E+03 -1.26118E+04 -1.91106E+01 -1.43150E+04 -8.57122E+03
 -7.47419E+03 -1.74316E+04  3.08221E+03 -1.95150E+04  1.25994E+04 -1.52163E+04  1.84108E+04 -5.58971E+03
  1.78117E+04  3.49309E+03  1.11729E+04  1.18055E+04  1.48333E+03  1.37941E+04 -5.20727E+03  1.00453E+04
 -7.40641E+03  3.45234E+03 -4.79712E+03 -1.19286E+03 -1.66131E+03 -1.37600E+03 -3.84328E+02 -1.29206E+02
 -2.03160E+03  2.16306E+02 -2.68319E+03 -4.10390E+02 -1.22379E+03 -3.93382E+03 -1.50481E+01 -5.03275E+03
  5.98072E+03 -4.23588E+03  8.04182E+03  2.18042E+02  9.87705E+03  7.32425E+03  2.45144E+03  1.34331E+04
 -6.34905E+03  1.54586E+04 -1.42405E+04  8.83802E+03 -1.63815E+04 -8.22542E+02 -1.23069E+04 -1.03007E+04
 -5.28503E+03 -1.40510E+04  3.17453E+03 -1.27245E+04  8.52948E+03 -7.31523E+03  9.00042E+03  5.00603E+02
  5.04856E+03  4.80760E+03 -6.65755E+02  4.01308E+03 -2.82568E+03 -1.73709E+02  3.73810E+02 -3.42439E+03
  4.45994E+03 -2.12805E+03  5.48336E+03  1.98388E+03  3.80794E+03  5.83140E+03  2.55234E+02  7.32142E+03
 -6.09029E+03  6.07443E+03 -1.02363E+04  7.56983E+02 -8.66398E+03 -6.49913E+03 -1.22110E+03 -1.15319E+04
  6.65410E+03 -9.88736E+03  1.11083E+04 -2.94568E+03  1.07232E+04  3.14927E+03  6.51130E+03  8.36761E+03
  8.23331E+02  9.24475E+03 -3.45588E+03  7.35741E+03 -5.87463E+03  4.06159E+03 -4.79413E+03  6.73360E+02
 -1.89619E+03  3.39047E+00 -3.02225E+03  1.05805E+03 -4.79550E+03  2.41436E+03 -6.93520E+03 -1.39367E+03
 -6.50463E+03 -4.96357E+03 -2.02526E+03 -9.26207E+03  4.16534E+03 -9.55667E+03  8.48153E+03 -4.82352E+03
  9.59892E+03  1.04840E+03  5.18906E+03  6.95136E+03 -5.28653E+02  9.52971E+03 -7.34923E+03  6.02330E+03
