 $NMID ID='MM_0lb_SNR800_19hz_g40_23.RAW', FMTDAT='(8E13.5)'
 TRAMP=1., VOLUME=1. $END
  3.09985E+05  3.12465E+02  3.37233E+05  2.50278E+05  8.42781E+04  3.37128E+05 -1.32182E+05  2.49895E+05
 -1.89491E+05  8.23597E+04 -1.10843E+05 -3.28105E+04  1.60906E+03 -5.01745E+04  5.40037E+04  2.77988E+02
  3.47621E+04  5.29550E+04 -1.69998E+04  7.46970E+04 -6.01714E+04  6.24145E+04 -8.26860E+04  3.12892E+04
 -7.90588E+04 -1.10968E+04 -5.59599E+04 -4.95084E+04 -1.49559E+04 -6.77220E+04  2.63461E+04 -4.45096E+04
  3.86462E+04  3.96837E+03  1.51865E+04  4.67709E+04 -3.39449E+04  4.59943E+04 -6.47558E+04 -5.10622E+02
 -5.14860E+04 -5.55113E+04 -6.24920E+03 -7.46798E+04  3.30813E+04 -5.27143E+04  4.54409E+04 -1.61178E+04
  4.09245E+04  1.08751E+04  3.01425E+04  2.40095E+04  1.55225E+04  2.81248E+04 -4.35994E+03  2.66550E+04
 -2.15123E+04  1.28425E+04 -1.94355E+04 -4.05964E+03  3.72207E+03 -7.66387E+03  2.08776E+04  1.05781E+04
  7.36057E+03  3.27171E+04 -3.01857E+04  3.34636E+04 -6.09236E+04  2.41160E+03 -5.46080E+04 -4.07375E+04
 -1.21757E+04 -6.00292E+04  3.75317E+04 -4.28021E+04  5.48882E+04 -1.90375E+03  3.10139E+04  2.98120E+04
 -6.63633E+03  3.19664E+04 -2.77358E+04  1.26372E+04 -2.65317E+04 -5.53839E+03 -1.38787E+04 -9.99133E+03
 -7.08712E+03 -1.09312E+04 -1.25750E+03 -1.62147E+04  6.35900E+03 -2.24107E+04  1.49011E+04 -1.42102E+04
  1.21037E+04  4.09170E+03 -5.46199E+03  1.29131E+04 -1.88713E+04 -1.88740E+03 -8.30341E+03 -2.92621E+04
  2.03229E+04 -3.96461E+04  4.37197E+04 -1.83149E+04  4.11850E+04  1.80511E+04  1.40985E+04  4.07893E+04
 -1.51748E+04  3.05953E+04 -2.27729E+04  8.17946E+02 -7.50383E+03 -2.58863E+04  2.02339E+04 -3.04755E+04
  3.72508E+04 -6.79851E+03  3.03409E+04  2.27649E+04  1.44597E+04  4.13837E+04 -7.72561E+03  4.36569E+04
 -2.74330E+04  2.88963E+04 -3.56681E+04  7.92323E+03 -3.68861E+04 -1.47078E+04 -2.05317E+04 -3.33589E+04
  6.48942E+03 -3.32319E+04  2.85504E+04 -1.20592E+04  2.61169E+04  1.05777E+04  2.63231E+03  1.75039E+04
 -1.27567E+04  7.03044E+03 -9.63434E+03 -7.75543E+03  5.96287E+03 -1.00198E+04  1.73778E+04  6.48213E+03
  1.20694E+04  2.15821E+04 -6.68327E+03  2.28519E+04 -2.09890E+04  8.73851E+03 -2.44230E+04 -6.54358E+03
 -1.57000E+04 -1.61607E+04 -4.99775E+03 -1.58676E+04  3.74252E+03 -1.33210E+04  1.19957E+04 -1.31923E+04
  1.99880E+04 -1.15419E+04  2.71040E+04  5.39621E+02  2.04167E+04  1.53845E+04  3.95293E+03  3.15449E+04
 -1.57316E+04  2.65170E+04 -2.53605E+04  8.95143E+03 -1.94282E+04 -1.04774E+04 -3.76177E+03 -1.36522E+04
  2.84695E+03 -4.61482E+03 -1.98944E+03  4.89257E+03 -1.22109E+04  5.37427E+03 -1.28948E+04 -4.39884E+03
 -8.32112E+03 -1.44298E+04  4.22578E+03 -1.83358E+04  1.18659E+04 -1.35100E+04  1.39493E+04 -1.18416E+03
  8.16782E+03  1.02979E+04 -8.05211E+02  1.50128E+04 -9.68577E+03  8.40773E+03 -1.44590E+04 -3.21459E+03
 -1.10267E+04 -1.33280E+04 -1.22271E+03 -1.82541E+04  8.25961E+03 -1.44517E+04  1.54983E+04 -6.74180E+03
  1.37593E+04  6.47134E+02  9.74643E+03  3.63205E+03  4.52356E+03  5.61996E+02  7.03347E+03 -1.35047E+03
  1.32629E+04  2.54392E+03  1.37932E+04  1.21546E+04  8.23900E+03  2.35684E+04 -3.19489E+03  2.49324E+04
 -1.45306E+04  1.86696E+04 -2.26918E+04  8.58355E+03 -2.31815E+04 -1.58840E+03 -1.95667E+04 -1.31747E+04
 -9.76399E+03 -1.86755E+04  6.46472E+03 -1.74521E+04  1.54776E+04 -1.05480E+04  1.47618E+04  3.38404E+03
  6.52803E+03  1.05999E+04 -6.87944E+03  9.89982E+03 -1.27802E+04  2.71507E+03 -9.74224E+03 -7.65144E+03
 -2.96929E+02 -1.18603E+04  5.61876E+03 -8.84075E+03  7.15745E+03 -1.39665E+03  9.37477E+02  4.64045E+03
 -5.10949E+03  8.59401E+02 -3.19936E+03 -4.52210E+03  7.93150E+02 -9.54717E+03  7.43709E+03 -9.24480E+03
  1.11926E+04 -4.19876E+03  1.08593E+04  2.97632E+03  8.96954E+03  8.55684E+03  4.52098E+03  1.27247E+04
 -1.63375E+03  1.44399E+04 -8.59250E+03  9.14237E+03 -1.03676E+04  2.67016E+03 -8.04384E+03 -1.71481E+03
 -4.44074E+03 -3.03210E+03 -1.24288E+03  1.45545E+03 -1.94264E+03  1.79186E+03 -3.43084E+03  3.24723E+03
 -7.63053E+03 -5.17392E+02 -8.09467E+03 -6.74780E+03 -3.20540E+03 -1.09695E+04  3.15426E+03 -7.92442E+03
  7.11170E+03 -3.52749E+03  5.29001E+03  2.10752E+03  6.47753E+02  2.91997E+03 -3.00477E+03 -3.63225E+02
 -3.03318E+03 -4.72812E+03 -8.11753E+02 -6.80982E+03  3.47055E+03 -7.46391E+03  8.75499E+03 -3.84373E+03
  1.07095E+04  5.06023E+02  8.12868E+03  5.66901E+03  1.87436E+03  7.74638E+03 -4.90472E+03  7.90610E+03
 -6.50831E+03  2.81680E+03 -3.30139E+03 -9.84573E+02  1.26276E+03 -1.73320E+03  4.49877E+03 -1.06529E+03
  3.90509E+03  3.02694E+03  9.73675E+02  5.90393E+03 -4.25288E+03  5.88409E+03 -7.10777E+03  1.86565E+03
 -4.52686E+03 -3.39003E+03 -1.79417E+00 -6.14799E+03  3.40831E+03 -3.16802E+03  3.24329E+03  7.78488E+02
  4.87897E+02  2.83938E+03 -3.93241E+03  4.35891E+03 -4.51065E+03  2.18694E+03 -3.93023E+03 -7.72072E+02
 -2.41861E+03 -5.14209E+03  9.58425E+02 -6.33134E+03  5.34616E+03 -4.02993E+03  5.92123E+03  6.41981E+02
  4.28163E+03  4.85004E+03  1.35570E+02  6.71911E+03 -4.62115E+03  3.64142E+03 -4.67922E+03 -5.15349E+02
 -5.60098E+03 -4.79395E+03 -1.55480E+03 -4.40949E+03  2.52013E+03 -4.29903E+03  2.56198E+03 -2.77540E+03
  2.66475E+03  1.83345E+02  5.96073E+02  1.24945E+03  5.70510E+02 -2.99715E+02 -6.42793E+01 -1.28074E+03
  3.27942E+03 -5.17861E+02  4.51217E+03  6.90679E+02  5.25852E+03  2.52893E+03  4.91899E+03  6.50565E+03
 -1.18224E+03  7.50957E+03 -6.96474E+03  5.99260E+03 -9.20907E+03  1.11665E+03 -6.87892E+03 -2.35373E+03
 -3.94206E+03 -6.09404E+03 -5.07851E+02 -4.47816E+03  1.94648E+03 -1.73977E+03  1.57147E+03 -2.12893E+03
  1.14077E+03 -1.62405E+03  2.17069E+03 -2.21527E+03  3.65384E+03 -1.34817E+03  3.04319E+03  3.97554E+02
  4.38903E+03  1.13153E+03  7.04227E+02  3.13973E+03 -1.54737E+03  2.31598E+03 -4.11875E+03  2.46400E+03
 -4.29959E+03 -9.22295E+02 -1.66545E+03 -2.91996E+03  7.95258E+02 -4.54301E+03  2.99268E+03 -4.88443E+03
  4.40928E+03 -2.88433E+03  6.09498E+03  5.11438E+01  4.53141E+03  3.79405E+03  1.11532E+03  5.41147E+03
 -2.01943E+03  5.72734E+03 -2.94047E+03  1.58178E+03 -1.59762E+03 -9.74215E+02 -6.30505E+02 -2.97752E+02
 -3.11487E+02  3.35058E+02 -9.89372E+02  1.76722E+03 -2.04385E+03  9.49668E+02 -3.66777E+03 -3.31800E+02
 -1.40371E+03 -3.74407E+03  7.79511E+02 -4.32204E+03  2.30784E+03 -3.87724E+03  2.99343E+03 -1.09115E+03
  3.63656E+03  2.01425E+03  1.73418E+03  3.05517E+03 -7.74413E+02  4.20542E+03 -2.49891E+03  2.26987E+03
 -3.37206E+03  6.16196E+02 -2.98995E+03 -2.16946E+03 -2.32697E+02 -2.68643E+03  1.32778E+03 -2.26757E+03
  2.44322E+03 -1.34349E+03  1.53917E+03  1.45183E+02  5.92502E+02  1.63057E+03  9.53896E+02  3.30713E+02
  1.55982E+03  4.46055E+02  8.44854E+02  1.00346E+03  1.15954E+03  2.11043E+03  1.29377E+03  1.40613E+03
 -1.04064E+03  2.47757E+03 -2.17969E+03  3.65093E+03 -2.42508E+03  9.59398E+02 -3.78033E+03 -2.24593E+02
 -1.59279E+03 -3.21519E+03  4.60264E+02 -4.45566E+03  1.81368E+03 -2.31009E+03  2.58355E+03 -9.52207E+02
  2.56444E+03  1.70537E+03  4.93093E+02  1.88809E+03 -6.92471E+02  1.22912E+03 -1.12585E+03 -2.10305E+02
 -3.68037E+02 -1.25401E+03  1.10533E+03 -1.28013E+03  1.28004E+03 -6.11182E+02  1.01099E+03  4.44358E+02
  7.41235E+02  4.11180E+02  7.39541E+02 -4.97552E+02 -2.00700E+02  6.58514E+02  1.73601E+03 -1.96167E+02
 -4.48006E+01 -3.73194E+02  1.77256E+03  5.00909E+02  3.39426E+02  2.39297E+03 -1.80516E+02  2.68274E+03
 -1.19271E+03  8.69368E+02 -1.89160E+03  1.75488E+02 -1.95344E+03 -5.41227E+02 -6.25570E+01 -6.92650E+02
  1.62531E+02 -1.10570E+03  9.00354E+02 -5.94196E+02  5.97207E+02  1.20683E+03 -4.79508E+02  9.85296E+02
 -1.36678E+03  4.51801E+02 -9.68761E+02 -1.50218E+03 -6.61192E+02 -1.80050E+03  1.43383E+02 -1.42825E+03
  3.50657E+02 -5.23286E+02  6.70523E+02  2.77823E+02  1.02937E+03 -1.30916E+02  2.42148E+02  9.26081E+02
 -4.80171E+02 -7.67197E+00 -9.54286E+02  4.07718E+01  2.53932E+02 -5.69772E+02  1.31799E+03 -6.11875E+02
  1.19396E+03  3.79650E+02  2.56122E+03  7.00751E+02  1.01697E+03  1.18309E+03  5.37000E+01  1.67979E+03
 -1.43678E+03  1.06411E+02 -1.60694E+03  4.21001E+01 -6.89520E+02 -1.21272E+03  3.86575E+02 -4.69178E+02
  1.16187E+03 -5.80557E+02  6.32513E+02  4.53098E+02  1.73148E+01  1.13907E+03  2.21881E+02  1.05343E+03
 -3.63470E+02  1.39246E+03 -3.33896E+02  1.22561E+02  1.88968E+02  3.71388E+02 -6.09213E+02  3.70675E+02
 -7.62774E+02  1.16096E+03 -1.59011E+03  4.69872E+02 -1.39463E+03  3.71832E+02 -2.38151E+03 -7.00368E+02
 -8.38662E+02 -2.42993E+03  2.37536E+02 -2.63050E+03  6.05305E+02 -2.19032E+03  2.60934E+03 -8.24505E+02
  2.23469E+03  5.46408E-01  9.94985E+02  1.44786E+03 -5.53805E+02  9.81993E+02 -3.70702E+02  1.19375E+03
 -9.01354E+02  6.25860E+02 -6.45997E+02 -1.77278E+02 -7.59589E+02  1.58602E+02 -7.98497E+02  1.12229E+02
 -8.79121E+02 -2.62454E+02 -9.68313E+02  5.17073E+01  2.98906E+02 -6.79526E+02 -5.65168E+02 -7.98742E+02
  1.28194E+03 -4.78629E+02 -8.89414E+01  1.95370E+02  1.15560E+03  1.08470E+03 -4.21999E+02  1.30442E+03
 -1.14253E+03  2.24568E+03 -1.34125E+03  1.11842E+03 -1.47556E+03 -3.43450E+02 -8.17361E+02 -1.29811E+03
 -8.78548E+02 -1.17803E+03  2.35924E+02 -1.28136E+03  4.48838E+02 -4.80442E+02  5.97137E+02  1.67902E+02
  3.94167E+02  2.21831E+02  2.22716E+02  9.83893E+01 -2.71046E+02  6.59428E+01 -1.67569E+02 -4.17968E+01
  4.11442E+02  3.68590E+02  1.81269E+02  5.40854E+02  3.19221E+01  3.47049E+02  3.28846E+02  1.85045E+02
 -6.22695E+02  5.97661E+02 -4.56539E+02  1.07108E+02 -5.18784E+02 -5.41706E+02 -9.82855E+01 -1.20361E+03
  3.56846E+02 -7.66082E+02  2.22150E+02  1.95065E+02  9.21484E+02 -5.12169E+02  2.86860E+02  3.97435E+02
  6.42635E+02  4.94581E+02  2.85768E+00  7.64259E+02 -2.58516E+02  6.57745E+02 -4.46741E+02  2.21187E+02
 -3.10095E+00 -1.32775E+02 -3.75174E+02  5.39111E+01 -5.38426E+02  4.15689E+01 -6.33063E+02 -2.72849E+02
 -1.07153E+03  2.45746E+02 -2.17086E+02 -7.28096E+02  5.79266E+02 -1.51126E+03  5.67499E+02 -1.69018E+02
  6.95907E+02  1.04229E+02  8.72919E+01  4.02306E+02 -5.85756E+01  6.97649E+02 -3.19742E+02  4.99082E+02
