 $NMID ID='MM_0lb_SNR800_8hz_g50_68.RAW', FMTDAT='(8E13.5)'
 TRAMP=1., VOLUME=1. $END
  3.09682E+05  2.24476E+02  3.37776E+05  2.51431E+05  8.49049E+04  3.38876E+05 -1.33004E+05  2.51639E+05
 -1.91021E+05  8.37324E+04 -1.12779E+05 -3.24470E+04  2.38506E+02 -5.04452E+04  5.38332E+04 -8.10074E+02
  3.55580E+04  5.26063E+04 -1.66482E+04  7.63393E+04 -6.10299E+04  6.45504E+04 -8.55283E+04  3.27362E+04
 -8.27932E+04 -1.17978E+04 -5.81809E+04 -5.27592E+04 -1.51455E+04 -7.14418E+04  2.82313E+04 -4.71476E+04
  4.13146E+04  3.62529E+03  1.67999E+04  4.86011E+04 -3.45864E+04  4.84718E+04 -6.83971E+04  3.89345E+02
 -5.49113E+04 -5.79830E+04 -7.34822E+03 -7.92459E+04  3.48737E+04 -5.72640E+04  5.01419E+04 -1.87769E+04
  4.53224E+04  1.12411E+04  3.30993E+04  2.67852E+04  1.65005E+04  3.07357E+04 -5.82269E+03  2.73612E+04
 -2.26606E+04  1.17314E+04 -1.76275E+04 -5.82863E+03  7.35745E+03 -7.20058E+03  2.38071E+04  1.41692E+04
  7.32584E+03  3.76956E+04 -3.44127E+04  3.75276E+04 -6.64440E+04  2.49299E+03 -5.89138E+04 -4.47937E+04
 -1.26125E+04 -6.62438E+04  4.15671E+04 -4.79470E+04  6.19619E+04 -2.66264E+03  3.71915E+04  3.46551E+04
 -4.67468E+03  4.02312E+04 -3.21795E+04  1.92060E+04 -3.36717E+04 -3.50601E+03 -1.97478E+04 -1.28029E+04
 -1.01691E+04 -1.54390E+04 -4.31336E+02 -1.98236E+04  8.44628E+03 -2.36395E+04  1.60661E+04 -1.25950E+04
  1.01625E+04  6.29621E+03 -1.08207E+04  1.27968E+04 -2.38698E+04 -6.78677E+03 -8.63061E+03 -3.84899E+04
  2.57585E+04 -4.76370E+04  5.27434E+04 -2.14481E+04  4.93839E+04  2.10895E+04  1.74496E+04  4.81085E+04
 -1.67108E+04  3.67607E+04 -2.83035E+04  2.94756E+03 -1.19434E+04 -2.98852E+04  2.20705E+04 -3.72794E+04
  4.50454E+04 -1.14296E+04  4.11483E+04  2.47626E+04  2.21325E+04  5.15635E+04 -8.71887E+03  5.73016E+04
 -3.61432E+04  3.93025E+04 -4.84602E+04  1.12783E+04 -4.87475E+04 -1.86215E+04 -2.72433E+04 -4.30744E+04
  7.97952E+03 -4.26935E+04  3.48405E+04 -1.77953E+04  3.31319E+04  1.11519E+04  6.08380E+03  2.14973E+04
 -1.39911E+04  9.79108E+03 -1.14444E+04 -7.50461E+03  5.58047E+03 -1.13478E+04  1.89875E+04  5.58692E+03
  1.48050E+04  2.28475E+04 -4.75406E+03  2.76771E+04 -2.38116E+04  1.47934E+04 -3.24245E+04 -2.34101E+03
 -2.64765E+04 -1.90426E+04 -1.23461E+04 -2.57343E+04  4.04961E+03 -2.67954E+04  2.07429E+04 -2.43460E+04
  3.33946E+04 -1.43591E+04  3.90891E+04  5.19645E+03  2.76770E+04  2.53577E+04  4.14346E+03  4.25014E+04
 -2.02285E+04  3.45343E+04 -3.11721E+04  1.20933E+04 -2.28744E+04 -1.03608E+04 -4.91175E+03 -1.27327E+04
  9.95271E+02 -8.66627E+02 -8.51688E+03  8.70944E+03 -2.10387E+04  4.89194E+03 -2.07915E+04 -1.00116E+04
 -1.19176E+04 -2.44383E+04  5.90038E+03 -2.85458E+04  1.93729E+04 -2.00732E+04  2.34510E+04 -1.50054E+03
  1.52570E+04  1.69471E+04 -1.66422E+03  2.41588E+04 -1.75671E+04  1.36319E+04 -2.50666E+04 -5.03038E+03
 -1.79007E+04 -2.18326E+04 -2.77404E+03 -2.90352E+04  1.31153E+04 -2.43401E+04  2.42997E+04 -1.25789E+04
  2.29839E+04 -3.61193E+02  1.66115E+04  5.29683E+03  9.26655E+03  1.89144E+03  1.30071E+04 -2.22976E+03
  2.30463E+04  2.92246E+03  2.67880E+04  1.91179E+04  1.86347E+04  3.89985E+04 -2.73880E+03  4.64789E+04
 -2.64803E+04  3.88432E+04 -4.39945E+04  2.00473E+04 -4.73036E+04 -3.59155E+03 -3.79541E+04 -2.79157E+04
 -1.46471E+04 -3.98073E+04  1.40291E+04 -3.43742E+04  2.91833E+04 -1.58377E+04  2.51271E+04  7.97827E+03
  8.22293E+03  1.99785E+04 -1.19318E+04  1.62391E+04 -2.10712E+04  2.64477E+03 -1.57239E+04 -1.32534E+04
 -8.41418E+02 -1.96869E+04  1.08034E+04 -1.46295E+04  1.39182E+04 -1.38231E+03  3.90930E+03  8.82949E+03
 -9.24888E+03  4.36527E+03 -9.95969E+03 -7.32551E+03 -2.23385E+03 -1.89727E+04  1.23205E+04 -2.09872E+04
  2.41855E+04 -1.15254E+04  2.79804E+04  3.22712E+03  2.46653E+04  1.95184E+04  1.13200E+04  3.12442E+04
 -5.95074E+03  3.31926E+04 -2.19487E+04  2.04445E+04 -2.39926E+04  4.18412E+03 -1.63135E+04 -6.70908E+03
 -6.56074E+03 -8.13916E+03 -7.61729E+02  4.07767E+02 -2.59845E+03  3.77207E+03 -7.89961E+03  5.69389E+03
 -1.46490E+04 -9.12452E+02 -1.55523E+04 -1.23133E+04 -6.01093E+03 -2.02875E+04  7.18917E+03 -1.69727E+04
  1.38581E+04 -6.48509E+03  9.60164E+03  4.19248E+03 -6.02394E+02  6.37689E+03 -8.62398E+03 -3.19714E+02
 -8.64581E+03 -1.07636E+04 -7.16145E+02 -1.69926E+04  9.48548E+03 -1.73887E+04  2.09212E+04 -9.60764E+03
  2.53839E+04  2.68875E+03  1.81311E+04  1.56058E+04  3.11619E+03  2.00348E+04 -1.03771E+04  1.65098E+04
 -1.35823E+04  4.35291E+03 -6.98214E+03 -4.25303E+03  2.36857E+03 -5.24330E+03  8.67804E+03 -1.60056E+03
  7.72695E+03  7.66756E+03  1.56317E+03  1.33214E+04 -9.93019E+03  1.27362E+04 -1.62975E+04  3.19862E+03
 -1.17667E+04 -9.14808E+03  3.00903E+02 -1.44855E+04  9.60302E+03 -7.47544E+03  1.02069E+04  3.60607E+03
  2.73328E+03  1.18061E+04 -8.77095E+03  1.24376E+04 -1.49718E+04  5.59852E+03 -1.56509E+04 -5.33044E+03
 -9.28713E+03 -1.74172E+04  4.53225E+03 -2.02144E+04  1.70461E+04 -1.16854E+04  1.83663E+04  3.22645E+03
  1.07735E+04  1.46389E+04 -2.06834E+03  1.74297E+04 -1.29166E+04  9.76220E+03 -1.34693E+04 -1.35487E+03
 -1.13456E+04 -1.16143E+04 -1.88160E+03 -1.29422E+04  6.80843E+03 -1.01856E+04  8.39940E+03 -3.80020E+03
  5.84655E+03  2.33701E+03 -1.28913E+03  1.85050E+03 -1.16830E+03 -3.68652E+03  3.13781E+03 -8.60367E+03
  1.26590E+04 -5.53970E+03  1.76529E+04  1.75379E+03  1.72027E+04  1.21136E+04  1.09436E+04  2.31437E+04
 -5.81183E+03  2.61250E+04 -2.17950E+04  1.96750E+04 -2.84194E+04  3.64942E+03 -2.31811E+04 -1.00552E+04
 -1.12962E+04 -1.87278E+04 -5.39982E+02 -1.60892E+04  6.15329E+03 -9.22373E+03  6.22386E+03 -5.37279E+03
  4.20484E+03 -3.23581E+03  3.94599E+03 -4.21616E+03  6.18465E+03 -4.02190E+03  8.90908E+03 -1.51717E+03
  1.16896E+04  2.92436E+03  6.48643E+03  1.06046E+04 -2.53469E+03  1.29477E+04 -1.24274E+04  9.54291E+03
 -1.62788E+04 -1.18233E+03 -1.09888E+04 -1.15523E+04 -1.26049E+03 -1.70688E+04  9.35036E+03 -1.77601E+04
  1.84274E+04 -9.72955E+03  2.17510E+04  2.85433E+03  1.47667E+04  1.51767E+04  2.42420E+03  1.98735E+04
 -8.44025E+03  1.54026E+04 -1.19737E+04  5.66538E+03 -8.30993E+03 -1.66409E+03 -3.64650E+03 -2.27405E+03
 -1.68734E+03  2.42242E+01 -2.57289E+03  2.94076E+03 -6.46103E+03  2.44860E+03 -1.16208E+04 -1.31353E+03
 -8.59636E+03 -1.11288E+04 -9.48774E+01 -1.69113E+04  1.00452E+04 -1.54086E+04  1.66926E+04 -4.72203E+03
  1.58649E+04  7.96537E+03  7.49639E+03  1.52505E+04 -3.40087E+03  1.68642E+04 -1.24344E+04  1.01869E+04
 -1.57450E+04 -3.13135E+01 -1.20942E+04 -1.01321E+04 -1.36757E+03 -1.39577E+04  7.21512E+03 -1.05222E+04
  1.07937E+04 -3.41666E+03  7.19585E+03  2.73223E+03  2.99747E+03  4.99669E+03  1.46230E+03  2.25790E+03
  3.04856E+03  1.01390E+03  3.50582E+03  1.89451E+03  5.37512E+03  5.52385E+03  4.30670E+03  9.00479E+03
 -2.91217E+03  1.33767E+04 -1.18334E+04  1.30030E+04 -1.73487E+04  3.19175E+03 -1.77445E+04 -7.55997E+03
 -8.31610E+03 -1.71209E+04  2.17308E+03 -1.82133E+04  1.03204E+04 -1.17516E+04  1.40474E+04 -2.89438E+03
  1.06161E+04  5.99801E+03  2.65109E+03  9.87669E+03 -4.87502E+03  6.37624E+03 -7.19184E+03 -8.69813E+02
 -3.77533E+03 -7.72658E+03  4.04021E+03 -7.75901E+03  7.04393E+03 -3.64779E+03  6.24892E+03  1.51775E+03
  4.28945E+03  3.76597E+03  1.33436E+03  3.17367E+03 -7.92031E+02  2.23193E+03  1.52620E+03 -7.06226E+02
  2.62315E+03 -1.28087E+03  7.10034E+03  3.10112E+03  4.15338E+03  9.52912E+03 -1.16518E+03  1.21528E+04
 -8.23532E+03  8.03357E+03 -1.12187E+04  2.37842E+03 -1.00547E+04 -3.90726E+03 -4.23455E+03 -7.03765E+03
  1.13158E+03 -6.90084E+03  4.75545E+03 -3.26265E+03  4.12219E+03  3.17664E+03 -1.92361E+03  5.50115E+03
 -7.37339E+03  3.69061E+03 -8.52521E+03 -4.01999E+03 -4.66939E+03 -9.56869E+03  1.75563E+03 -9.59642E+03
  5.85933E+03 -5.52969E+03  7.03530E+03 -9.60988E+02  5.54094E+03  2.62482E+03  6.20952E+02  4.54233E+03
 -3.69397E+03  1.56014E+03 -4.09050E+03 -3.76993E+03  1.69538E+03 -7.69679E+03  8.64317E+03 -6.63419E+03
  1.10575E+04  5.20089E+02  1.09280E+04  7.56440E+03  3.43797E+03  1.12953E+04 -3.91461E+03  1.11050E+04
 -9.43243E+03  4.76628E+03 -9.90411E+03 -1.63195E+03 -5.13549E+03 -7.49249E+03  2.08099E+03 -7.33779E+03
  6.96910E+03 -3.56442E+03  6.59003E+03  3.45794E+03  2.51130E+03  6.28537E+03 -1.09085E+03  5.75289E+03
 -3.31363E+03  3.68739E+03 -2.71580E+03  1.22624E+03 -1.94653E+03  8.42950E+02 -1.48127E+03  2.50980E+03
 -3.26056E+03  4.42191E+03 -8.02915E+03  4.18772E+03 -1.15922E+04  1.59632E+02 -1.32369E+04 -7.64806E+03
 -6.59285E+03 -1.55599E+04  3.27796E+03 -1.80203E+04  1.10399E+04 -1.40714E+04  1.70395E+04 -5.14762E+03
  1.62955E+04  3.16557E+03  9.89471E+03  1.10490E+04  9.26912E+02  1.25735E+04 -5.23557E+03  9.30973E+03
 -7.06156E+03  3.39689E+03 -4.00944E+03 -1.33282E+03 -1.24605E+03 -1.09937E+03 -5.53925E+02 -3.57802E+02
 -1.70955E+03  7.42652E+02 -3.01982E+03 -2.99293E+02 -5.74814E+02 -3.18850E+03  7.40849E+02 -4.67422E+03
  5.92154E+03 -3.99968E+03  7.55623E+03 -3.22205E+01  9.29701E+03  6.20852E+03  2.19920E+03  1.28089E+04
 -5.59447E+03  1.42727E+04 -1.34936E+04  8.28005E+03 -1.49383E+04 -1.44782E+03 -1.14298E+04 -9.17524E+03
 -4.47700E+03 -1.28482E+04  3.47716E+03 -1.17080E+04  8.32645E+03 -6.59974E+03  8.06855E+03  4.60184E+02
  4.37290E+03  4.17091E+03 -2.48902E+02  3.21472E+03 -2.10953E+03 -5.04821E+02  2.16357E+02 -3.19828E+03
  3.84935E+03 -1.70079E+03  5.25999E+03  1.57652E+03  3.92027E+03  4.58643E+03  1.25539E+01  6.52569E+03
 -5.49505E+03  5.57780E+03 -8.79275E+03  2.88740E+02 -7.58296E+03 -6.30836E+03 -1.59592E+03 -1.04152E+04
  5.96162E+03 -8.73227E+03  9.61909E+03 -2.65959E+03  9.86745E+03  2.47579E+03  6.00499E+03  8.03796E+03
  1.37636E+03  8.74865E+03 -3.55110E+03  6.83822E+03 -5.49884E+03  3.60557E+03 -4.41044E+03  3.03606E+02
 -2.32803E+03  3.29513E+02 -1.99414E+03  1.15129E+03 -4.33986E+03  1.10551E+03 -6.40030E+03 -1.38070E+03
 -6.35410E+03 -4.81945E+03 -2.10085E+03 -8.59682E+03  3.92279E+03 -8.93971E+03  7.71571E+03 -4.41540E+03
  8.46230E+03  1.39623E+03  5.12404E+03  6.30865E+03 -8.37553E+02  8.76117E+03 -6.32645E+03  5.84394E+03
