 $NMID ID='MM_0lb_SNR800_13hz_g55_57.RAW', FMTDAT='(8E13.5)'
 TRAMP=1., VOLUME=1. $END
  3.09797E+05  3.94747E+02  3.37763E+05  2.50458E+05  8.47090E+04  3.38394E+05 -1.32579E+05  2.51194E+05
 -1.90490E+05  8.31681E+04 -1.12217E+05 -3.22985E+04  5.61918E+02 -5.06669E+04  5.35184E+04 -3.23106E+02
  3.52252E+04  5.29891E+04 -1.65799E+04  7.58129E+04 -6.10489E+04  6.35503E+04 -8.44062E+04  3.18224E+04
 -8.12271E+04 -1.14679E+04 -5.76017E+04 -5.18118E+04 -1.49531E+04 -7.00736E+04  2.79711E+04 -4.61843E+04
  4.04277E+04  3.75452E+03  1.67334E+04  4.81147E+04 -3.44071E+04  4.73926E+04 -6.75026E+04 -1.12666E+02
 -5.39409E+04 -5.71701E+04 -6.86846E+03 -7.75388E+04  3.43986E+04 -5.58666E+04  4.86253E+04 -1.74802E+04
  4.39583E+04  1.11501E+04  3.23442E+04  2.58635E+04  1.59675E+04  2.98003E+04 -5.72218E+03  2.76512E+04
 -2.21982E+04  1.23981E+04 -1.80239E+04 -5.51200E+03  6.14230E+03 -7.26638E+03  2.29811E+04  1.25893E+04
  7.01259E+03  3.60229E+04 -3.28061E+04  3.60990E+04 -6.41868E+04  2.20177E+03 -5.77408E+04 -4.35727E+04
 -1.27108E+04 -6.39221E+04  4.03137E+04 -4.57386E+04  5.95319E+04 -2.48055E+03  3.49383E+04  3.32603E+04
 -5.63488E+03  3.76638E+04 -3.10307E+04  1.68492E+04 -3.13008E+04 -3.97163E+03 -1.76027E+04 -1.14330E+04
 -9.05027E+03 -1.39693E+04 -9.40928E+02 -1.84406E+04  8.13792E+03 -2.29522E+04  1.54697E+04 -1.28645E+04
  1.11129E+04  5.62109E+03 -8.90993E+03  1.29206E+04 -2.18898E+04 -5.13456E+03 -8.49112E+03 -3.48979E+04
  2.36365E+04 -4.48607E+04  4.93819E+04 -2.03160E+04  4.64011E+04  1.99268E+04  1.61994E+04  4.52314E+04
 -1.62535E+04  3.43123E+04 -2.63185E+04  2.23979E+03 -1.04429E+04 -2.84035E+04  2.11597E+04 -3.52288E+04
  4.28138E+04 -9.81925E+03  3.73034E+04  2.39777E+04  1.95887E+04  4.80432E+04 -7.86692E+03  5.23333E+04
 -3.28474E+04  3.54746E+04 -4.37827E+04  1.01364E+04 -4.41972E+04 -1.73660E+04 -2.44426E+04 -3.89360E+04
  7.55648E+03 -3.89556E+04  3.22622E+04 -1.54484E+04  3.00385E+04  1.09278E+04  4.61146E+03  2.01833E+04
 -1.37730E+04  8.62668E+03 -1.05256E+04 -7.43358E+03  5.73202E+03 -1.10252E+04  1.81357E+04  5.74852E+03
  1.36470E+04  2.25218E+04 -5.60181E+03  2.55250E+04 -2.24590E+04  1.24509E+04 -2.94890E+04 -4.36240E+03
 -2.23585E+04 -1.77702E+04 -9.55624E+03 -2.19293E+04  4.40727E+03 -2.16146E+04  1.69830E+04 -1.96535E+04
  2.79496E+04 -1.31653E+04  3.43406E+04  3.52242E+03  2.47149E+04  2.16169E+04  4.43841E+03  3.78854E+04
 -1.83604E+04  3.16052E+04 -2.89685E+04  1.09532E+04 -2.12063E+04 -1.05180E+04 -4.60983E+03 -1.30822E+04
  1.53978E+03 -2.34252E+03 -5.63356E+03  7.29174E+03 -1.76016E+04  5.26975E+03 -1.75781E+04 -8.00597E+03
 -1.07896E+04 -2.04161E+04  5.35007E+03 -2.47131E+04  1.62083E+04 -1.75359E+04  1.99328E+04 -1.54581E+03
  1.24684E+04  1.45164E+04 -5.85543E+02  2.02769E+04 -1.42837E+04  1.16105E+04 -2.05521E+04 -4.19864E+03
 -1.51678E+04 -1.84535E+04 -2.01397E+03 -2.49219E+04  1.11527E+04 -2.03298E+04  2.05903E+04 -1.05183E+04
  1.94359E+04 -4.81269E+01  1.42459E+04  4.73063E+03  7.21164E+03  1.05319E+03  1.03514E+04 -1.78417E+03
  1.92047E+04  2.84915E+03  2.10546E+04  1.62933E+04  1.42908E+04  3.24858E+04 -3.05275E+03  3.73831E+04
 -2.16096E+04  3.03363E+04 -3.48326E+04  1.53266E+04 -3.69772E+04 -2.82921E+03 -3.00802E+04 -2.16765E+04
 -1.24321E+04 -3.06097E+04  1.08343E+04 -2.73602E+04  2.32460E+04 -1.35124E+04  2.07583E+04  6.27287E+03
  7.34374E+03  1.56729E+04 -9.39349E+03  1.34893E+04 -1.74661E+04  2.29792E+03 -1.32943E+04 -1.06703E+04
 -4.03657E+02 -1.63451E+04  8.62968E+03 -1.23617E+04  1.12432E+04 -1.23414E+03  2.66032E+03  7.17305E+03
 -7.56079E+03  3.05137E+03 -6.76567E+03 -5.95444E+03 -1.23026E+03 -1.51384E+04  1.01794E+04 -1.56430E+04
  1.85680E+04 -8.57703E+03  2.00628E+04  3.00068E+03  1.76197E+04  1.50868E+04  8.39943E+03  2.31135E+04
 -3.89510E+03  2.48613E+04 -1.57501E+04  1.57774E+04 -1.78283E+04  3.39236E+03 -1.27332E+04 -4.42200E+03
 -5.54515E+03 -5.51948E+03 -5.93401E+02  7.35007E+02 -2.69972E+03  2.55152E+03 -5.59335E+03  4.62441E+03
 -1.18410E+04 -7.08655E+02 -1.23612E+04 -9.85606E+03 -5.07057E+03 -1.59331E+04  4.90569E+03 -1.25596E+04
  1.04689E+04 -5.24185E+03  7.59653E+03  3.31683E+03 -8.97637E+01  4.98502E+03 -5.89239E+03 -2.06862E+02
 -5.65280E+03 -8.16277E+03 -1.02175E+03 -1.18614E+04  7.31587E+03 -1.28047E+04  1.54091E+04 -6.30538E+03
  1.83060E+04  1.72247E+03  1.34055E+04  1.09203E+04  2.61816E+03  1.49119E+04 -7.56430E+03  1.23430E+04
 -9.92438E+03  3.73190E+03 -5.10902E+03 -2.90956E+03  1.86200E+03 -3.53879E+03  6.62342E+03 -9.75820E+02
  5.92571E+03  5.57005E+03  1.23524E+03  9.70371E+03 -6.91451E+03  9.49422E+03 -1.19175E+04  2.43590E+03
 -8.43101E+03 -6.48665E+03  7.35782E+01 -1.07585E+04  6.46585E+03 -5.46348E+03  6.64181E+03  2.38818E+03
  1.59478E+03  6.90443E+03 -6.11790E+03  8.60764E+03 -9.36294E+03  3.62707E+03 -9.59050E+03 -3.45719E+03
 -5.93772E+03 -1.10018E+04  2.62865E+03 -1.31236E+04  1.11352E+04 -8.17299E+03  1.21019E+04  2.00127E+03
  7.66525E+03  9.56193E+03 -6.75528E+02  1.23042E+04 -8.27718E+03  6.77296E+03 -9.29745E+03 -5.90731E+02
 -8.22451E+03 -8.06887E+03 -1.83511E+03 -8.87572E+03  4.43937E+03 -7.30685E+03  5.43367E+03 -3.15566E+03
  3.75417E+03  1.21257E+03 -6.07175E+02  1.89575E+03 -5.70145E+02 -2.06634E+03  1.17767E+03 -4.83877E+03
  7.70636E+03 -2.71367E+03  1.09098E+04  1.81761E+03  1.09595E+04  7.47590E+03  7.58725E+03  1.43275E+04
 -3.44390E+03  1.68156E+04 -1.42547E+04  1.26668E+04 -1.82222E+04  2.47485E+03 -1.48173E+04 -6.03102E+03
 -7.40651E+03 -1.22852E+04 -3.18421E+02 -9.80962E+03  3.72232E+03 -5.54303E+03  3.57468E+03 -4.03491E+03
  2.57323E+03 -2.37618E+03  3.40141E+03 -3.52399E+03  4.90207E+03 -2.46211E+03  6.05463E+03 -5.32760E+02
  7.76703E+03  1.84904E+03  3.72155E+03  6.80531E+03 -2.21501E+03  7.30484E+03 -8.15050E+03  5.59526E+03
 -1.00244E+04 -1.35824E+03 -5.48770E+03 -6.70958E+03 -3.77802E+02 -1.04125E+04  5.90981E+03 -1.06925E+04
  1.10893E+04 -5.93910E+03  1.33076E+04  1.36227E+03  9.34713E+03  9.22552E+03  1.65705E+03  1.20807E+04
 -4.73769E+03  1.01961E+04 -6.89723E+03  3.48168E+03 -4.45895E+03 -1.25113E+03 -1.56430E+03 -1.66579E+03
 -7.09999E+02  2.19058E+02 -2.03552E+03  2.61757E+03 -4.71830E+03  1.76716E+03 -7.00808E+03 -7.84975E+02
 -4.50544E+03 -6.99547E+03  2.53095E+02 -9.74920E+03  5.92625E+03 -8.82555E+03  9.08359E+03 -2.52089E+03
  8.79036E+03  4.62016E+03  4.48994E+03  8.19235E+03 -1.80613E+03  9.56089E+03 -6.23381E+03  6.12294E+03
 -8.98535E+03  6.23780E+02 -7.18242E+03 -5.72711E+03 -7.18447E+02 -7.70092E+03  3.97686E+03 -5.86430E+03
  5.96246E+03 -2.09578E+03  4.26497E+03  1.65735E+03  1.43590E+03  2.73946E+03  1.03820E+03  1.55304E+03
  2.31812E+03  8.16071E+02  2.20615E+03  1.15558E+03  2.94358E+03  3.31759E+03  2.37379E+03  4.67523E+03
 -2.38133E+03  7.13546E+03 -6.31053E+03  7.65269E+03 -8.82674E+03  2.02913E+03 -9.72070E+03 -3.25268E+03
 -4.42996E+03 -9.14528E+03  1.18703E+03 -1.00795E+04  5.31596E+03 -6.28798E+03  7.37083E+03 -1.99333E+03
  5.41945E+03  3.60293E+03  1.17504E+03  5.11010E+03 -2.32817E+03  3.23737E+03 -3.36174E+03 -4.51712E+02
 -1.93702E+03 -3.47090E+03  2.55251E+03 -3.54556E+03  3.66918E+03 -2.13483E+03  3.82553E+03  8.74724E+02
  1.96476E+03  1.84836E+03  1.07765E+03  9.53421E+02 -2.63653E+02  1.18233E+03  1.51310E+03 -3.39325E+02
  1.22003E+03 -3.74616E+02  3.85673E+03  1.24991E+03  1.51370E+03  4.84115E+03 -7.61165E+02  6.53382E+03
 -3.97304E+03  3.60708E+03 -5.37788E+03  9.14312E+02 -4.90522E+03 -2.22242E+03 -1.76635E+03 -3.11820E+03
  5.90501E+02 -3.09811E+03  1.95130E+03 -1.60503E+03  1.78023E+03  1.83842E+03 -1.04697E+03  2.77493E+03
 -3.57453E+03  1.79249E+03 -3.61852E+03 -2.28554E+03 -2.11886E+03 -4.96953E+03  6.27994E+02 -4.76378E+03
  2.34596E+03 -2.60019E+03  2.77073E+03  2.26063E+02  2.78454E+03  7.41706E+02  6.34353E+02  2.50894E+03
 -1.60597E+03  7.63363E+02 -2.02884E+03 -1.31497E+03  8.08284E+02 -3.41412E+03  4.03822E+03 -2.88185E+03
  5.11731E+03  2.78281E+02  5.74791E+03  3.19337E+03  1.90447E+03  5.12586E+03 -1.43498E+03  5.24103E+03
 -4.39514E+03  1.95048E+03 -4.22065E+03 -8.82967E+02 -2.54626E+03 -3.33267E+03  6.48290E+02 -2.84425E+03
  3.28168E+03 -1.77417E+03  2.54139E+03  1.42601E+03  6.14417E+02  3.20744E+03 -2.93735E+02  2.63405E+03
 -1.24306E+03  1.90365E+03 -1.19511E+03  3.15760E+02 -5.35470E+02  6.68163E+02 -9.66431E+02  1.30595E+03
 -1.39169E+03  1.98731E+03 -4.06887E+03  1.87151E+03 -5.27712E+03  2.60064E+02 -6.03388E+03 -3.17855E+03
 -3.06858E+03 -6.71887E+03  1.46046E+03 -7.90312E+03  4.54142E+03 -6.14303E+03  7.55845E+03 -2.22202E+03
  6.67066E+03  1.35987E+03  4.02573E+03  4.80076E+03 -4.51072E+02  5.50652E+03 -1.90113E+03  3.98713E+03
 -2.98212E+03  1.47328E+03 -1.61321E+03 -9.69115E+02 -9.43375E+02 -3.99331E+02 -1.01389E+03 -1.26161E+02
 -1.61692E+03 -1.53130E+02 -1.21556E+03 -1.59906E+02 -2.78447E+02 -1.35378E+03  6.06509E+01 -1.99497E+03
  2.56244E+03 -1.77369E+03  2.79128E+03 -1.10622E+02  3.36599E+03  2.94887E+03  4.74125E+02  4.92140E+03
 -2.64277E+03  5.65122E+03 -5.36879E+03  3.59132E+03 -5.98632E+03 -4.02551E+02 -4.41436E+03 -3.92220E+03
 -2.06838E+03 -4.88677E+03  9.22915E+02 -4.83774E+03  2.97716E+03 -2.28525E+03  3.21700E+03  1.68851E+02
  1.65207E+03  1.35441E+03 -7.79608E+01  1.62169E+03 -1.00592E+03 -2.70582E+01  2.01415E+02 -1.03074E+03
  1.51147E+03 -2.66666E+02  1.82919E+03  1.07497E+03  1.21677E+03  1.54358E+03  6.41928E+02  2.27741E+03
 -2.12014E+03  2.05937E+03 -2.76587E+03  3.20676E+02 -2.65927E+03 -2.15557E+03 -3.24722E+02 -3.89418E+03
  1.79659E+03 -3.30445E+03  3.35602E+03 -6.21413E+02  3.95485E+03  4.10210E+02  2.09822E+03  2.92439E+03
  9.06179E+02  3.02434E+03 -1.12197E+03  2.49776E+03 -2.13560E+03  1.89298E+03 -1.56553E+03  2.34882E+02
 -6.99229E+02  7.42923E+01 -1.07536E+03  6.56139E+02 -1.75426E+03  6.58311E+02 -2.96281E+03 -7.23515E+02
 -2.26961E+03 -1.41451E+03 -5.25433E+02 -3.12849E+03  1.13476E+03 -3.44393E+03  2.75813E+03 -1.24751E+03
  2.90232E+03  4.00033E+02  1.23265E+03  2.07246E+03 -1.13000E+02  2.74014E+03 -1.91030E+03  2.29190E+03
