 $NMID ID='MM_0lb_SNR800_12hz_g50_36.RAW', FMTDAT='(8E13.5)'
 TRAMP=1., VOLUME=1. $END
  3.09738E+05  4.54536E+02  3.37322E+05  2.50718E+05  8.48258E+04  3.38208E+05 -1.32800E+05  2.51536E+05
 -1.90743E+05  8.33240E+04 -1.11966E+05 -3.27159E+04  6.24062E+02 -5.06740E+04  5.34685E+04 -4.82313E+02
  3.53972E+04  5.31875E+04 -1.69040E+04  7.57016E+04 -6.08960E+04  6.39698E+04 -8.45933E+04  3.23548E+04
 -8.16005E+04 -1.14302E+04 -5.76698E+04 -5.15641E+04 -1.51195E+04 -7.02212E+04  2.77775E+04 -4.62397E+04
  4.07027E+04  3.39241E+03  1.61040E+04  4.80411E+04 -3.44099E+04  4.76611E+04 -6.74918E+04 -1.99708E+02
 -5.39459E+04 -5.72141E+04 -7.11814E+03 -7.79475E+04  3.42802E+04 -5.57693E+04  4.86300E+04 -1.78457E+04
  4.45552E+04  1.13321E+04  3.23935E+04  2.61076E+04  1.57053E+04  2.99052E+04 -5.18403E+03  2.73785E+04
 -2.20179E+04  1.22590E+04 -1.84391E+04 -5.30784E+03  6.02962E+03 -7.37067E+03  2.27423E+04  1.28049E+04
  6.85762E+03  3.61337E+04 -3.27605E+04  3.62658E+04 -6.42667E+04  2.01466E+03 -5.80906E+04 -4.34877E+04
 -1.23055E+04 -6.44115E+04  4.02381E+04 -4.63446E+04  5.93030E+04 -2.41582E+03  3.51354E+04  3.33529E+04
 -5.56276E+03  3.75410E+04 -3.09420E+04  1.73493E+04 -3.18391E+04 -4.41850E+03 -1.78451E+04 -1.12999E+04
 -8.66150E+03 -1.39742E+04 -5.75586E+02 -1.86983E+04  8.16356E+03 -2.30248E+04  1.55070E+04 -1.30507E+04
  1.12472E+04  5.50306E+03 -9.25280E+03  1.29191E+04 -2.16904E+04 -5.32203E+03 -8.68612E+03 -3.47128E+04
  2.37073E+04 -4.47765E+04  4.96284E+04 -2.01607E+04  4.65562E+04  1.99916E+04  1.63476E+04  4.53591E+04
 -1.59460E+04  3.43991E+04 -2.60912E+04  2.10557E+03 -1.03385E+04 -2.82078E+04  2.11419E+04 -3.54570E+04
  4.25178E+04 -9.94726E+03  3.80134E+04  2.44147E+04  1.93386E+04  4.80804E+04 -8.32945E+03  5.27470E+04
 -3.31056E+04  3.58132E+04 -4.43143E+04  9.98379E+03 -4.45648E+04 -1.73946E+04 -2.46221E+04 -3.96215E+04
  7.61905E+03 -3.91918E+04  3.23568E+04 -1.57378E+04  3.03778E+04  1.08823E+04  4.55345E+03  1.98724E+04
 -1.36292E+04  8.90740E+03 -1.07096E+04 -7.58100E+03  5.78221E+03 -1.10920E+04  1.81424E+04  5.89648E+03
  1.42217E+04  2.24057E+04 -5.96948E+03  2.61301E+04 -2.28865E+04  1.26460E+04 -2.94408E+04 -3.88941E+03
 -2.23053E+04 -1.79241E+04 -9.56308E+03 -2.22493E+04  4.32931E+03 -2.17751E+04  1.73846E+04 -2.00158E+04
  2.85340E+04 -1.31937E+04  3.47315E+04  3.66675E+03  2.51264E+04  2.19107E+04  4.33286E+03  3.84539E+04
 -1.83956E+04  3.18095E+04 -2.91418E+04  1.12747E+04 -2.18279E+04 -1.03090E+04 -4.58013E+03 -1.33102E+04
  1.30377E+03 -2.36771E+03 -6.23392E+03  7.32712E+03 -1.73041E+04  5.38026E+03 -1.79224E+04 -8.21313E+03
 -1.07986E+04 -2.06609E+04  5.37423E+03 -2.49733E+04  1.64110E+04 -1.79282E+04  2.00148E+04 -1.62285E+03
  1.24189E+04  1.43036E+04 -1.21683E+03  2.07714E+04 -1.44961E+04  1.15858E+04 -2.07716E+04 -4.58348E+03
 -1.50554E+04 -1.88137E+04 -1.94593E+03 -2.50217E+04  1.13406E+04 -2.06306E+04  2.04971E+04 -1.02945E+04
  1.99614E+04 -1.15146E+02  1.39374E+04  4.55516E+03  7.40357E+03  1.22295E+03  1.09098E+04 -1.91555E+03
  1.92733E+04  2.77432E+03  2.13948E+04  1.63930E+04  1.42424E+04  3.31193E+04 -2.87445E+03  3.82246E+04
 -2.18791E+04  3.12074E+04 -3.58270E+04  1.56980E+04 -3.78149E+04 -2.74081E+03 -3.09988E+04 -2.22360E+04
 -1.29098E+04 -3.11714E+04  1.09976E+04 -2.73745E+04  2.40758E+04 -1.39838E+04  2.12824E+04  6.14827E+03
  7.55854E+03  1.59747E+04 -9.96736E+03  1.37394E+04 -1.78388E+04  2.63860E+03 -1.35803E+04 -1.10232E+04
 -1.69960E+02 -1.69668E+04  8.77322E+03 -1.24217E+04  1.12627E+04 -1.62301E+03  2.66857E+03  7.28672E+03
 -7.61529E+03  3.41673E+03 -7.67219E+03 -6.12123E+03 -1.07541E+03 -1.51267E+04  1.06242E+04 -1.62869E+04
  1.89259E+04 -8.50926E+03  2.10330E+04  3.01700E+03  1.84002E+04  1.56583E+04  8.58165E+03  2.35804E+04
 -4.24486E+03  2.55407E+04 -1.64218E+04  1.57928E+04 -1.86312E+04  3.24664E+03 -1.26710E+04 -4.18806E+03
 -5.68669E+03 -5.68390E+03 -7.14290E+02  8.05980E+02 -2.52179E+03  3.07400E+03 -5.82841E+03  4.60193E+03
 -1.19091E+04 -9.89881E+02 -1.28726E+04 -1.04685E+04 -5.16399E+03 -1.64612E+04  5.53586E+03 -1.31699E+04
  1.06692E+04 -5.94890E+03  7.55571E+03  3.38150E+03 -2.57577E+02  4.74941E+03 -5.95092E+03 -1.82850E+02
 -5.92131E+03 -8.17368E+03 -1.06244E+03 -1.25172E+04  7.10665E+03 -1.31975E+04  1.63665E+04 -6.97950E+03
  1.88735E+04  1.76132E+03  1.39658E+04  1.14430E+04  2.94893E+03  1.50005E+04 -7.88476E+03  1.29112E+04
 -1.04966E+04  3.68578E+03 -5.43650E+03 -2.42051E+03  2.00953E+03 -3.77067E+03  6.75587E+03 -8.11472E+02
  6.02824E+03  5.80701E+03  1.21147E+03  1.03173E+04 -7.15781E+03  9.98414E+03 -1.25488E+04  2.35462E+03
 -8.54242E+03 -6.69125E+03  2.76185E+02 -1.05437E+04  6.96634E+03 -5.67499E+03  7.41983E+03  2.21979E+03
  1.57070E+03  7.55100E+03 -6.47285E+03  8.84262E+03 -1.01189E+04  3.66969E+03 -1.02834E+04 -3.34488E+03
 -5.67804E+03 -1.19359E+04  2.89552E+03 -1.40544E+04  1.17821E+04 -8.70506E+03  1.25090E+04  2.03899E+03
  7.93301E+03  1.00925E+04 -9.47104E+02  1.29073E+04 -9.12143E+03  7.67804E+03 -1.00015E+04 -7.77696E+02
 -8.58013E+03 -8.59864E+03 -1.38405E+03 -9.16982E+03  4.89330E+03 -7.49098E+03  5.94319E+03 -3.67645E+03
  3.94864E+03  1.23183E+03 -4.37089E+02  1.88701E+03 -6.25883E+02 -1.98935E+03  1.54126E+03 -5.25711E+03
  8.71136E+03 -3.50001E+03  1.19998E+04  1.21060E+03  1.17739E+04  8.05372E+03  7.94851E+03  1.51629E+04
 -3.46549E+03  1.76764E+04 -1.47790E+04  1.30948E+04 -1.96781E+04  2.59907E+03 -1.54950E+04 -6.47429E+03
 -7.89681E+03 -1.29294E+04 -2.41351E+02 -1.08693E+04  4.03302E+03 -5.94764E+03  3.96116E+03 -3.56390E+03
  3.21139E+03 -2.51466E+03  3.29454E+03 -3.20054E+03  4.64121E+03 -2.21819E+03  6.32991E+03 -6.90008E+02
  7.83385E+03  1.79717E+03  4.20894E+03  6.91828E+03 -2.12664E+03  7.90401E+03 -8.16005E+03  6.15674E+03
 -1.09234E+04 -1.31410E+03 -6.15021E+03 -7.38857E+03 -7.75980E+02 -1.12306E+04  6.48996E+03 -1.17530E+04
  1.16716E+04 -6.54472E+03  1.42329E+04  1.26265E+03  9.94228E+03  9.86717E+03  1.48293E+03  1.30870E+04
 -5.29482E+03  1.07673E+04 -7.53185E+03  3.62525E+03 -5.14771E+03 -1.38622E+03 -2.11264E+03 -1.82885E+03
 -5.32618E+02  1.32242E+02 -1.71374E+03  2.71172E+03 -4.63502E+03  2.23843E+03 -7.75933E+03 -8.37867E+02
 -4.66238E+03 -7.70518E+03  2.98939E+02 -1.03818E+04  6.45653E+03 -9.73372E+03  9.73969E+03 -2.70080E+03
  1.02683E+04  4.79306E+03  4.90778E+03  9.21111E+03 -2.34779E+03  1.05483E+04 -7.21362E+03  6.40081E+03
 -9.54822E+03  6.78252E+02 -7.59300E+03 -6.17290E+03 -7.55429E+02 -8.07890E+03  4.18180E+03 -6.38776E+03
  6.20298E+03 -2.25467E+03  4.53252E+03  2.04380E+03  1.39386E+03  3.07718E+03  1.16744E+03  1.67089E+03
  2.38787E+03  9.02237E+02  2.18372E+03  1.49911E+03  2.96897E+03  4.34631E+03  2.70685E+03  5.10381E+03
 -2.01183E+03  7.97056E+03 -7.03626E+03  8.11419E+03 -9.53926E+03  2.21676E+03 -1.08522E+04 -3.70205E+03
 -4.63555E+03 -1.02860E+04  1.43573E+03 -1.15238E+04  5.99884E+03 -6.86757E+03  8.37014E+03 -2.17744E+03
  6.83617E+03  3.75332E+03  8.10530E+02  5.91690E+03 -2.65654E+03  3.49800E+03 -3.91059E+03 -6.24790E+02
 -2.02229E+03 -3.96688E+03  2.86541E+03 -4.17512E+03  3.72815E+03 -2.49685E+03  4.27565E+03  1.11910E+03
  2.22336E+03  1.67411E+03  1.25834E+03  1.17177E+03 -6.66601E+02  1.35954E+03  1.48210E+03 -3.59569E+02
  1.39517E+03 -6.42787E+02  4.07617E+03  1.34035E+03  2.10235E+03  5.18447E+03 -7.26029E+02  7.14965E+03
 -4.78047E+03  4.17688E+03 -5.75123E+03  1.57650E+03 -5.61324E+03 -1.95373E+03 -1.57413E+03 -3.53808E+03
  6.47479E+02 -3.77867E+03  2.84635E+03 -1.73266E+03  2.09836E+03  1.94543E+03 -6.34344E+02  3.30034E+03
 -4.18058E+03  1.83824E+03 -4.62813E+03 -2.35940E+03 -1.88727E+03 -5.44667E+03  5.88598E+02 -5.64833E+03
  3.14743E+03 -3.01986E+03  3.63553E+03  2.51497E+01  3.39836E+03  1.31508E+03  6.71781E+02  2.85097E+03
 -2.30990E+03  5.50665E+02 -2.46998E+03 -1.62583E+03  1.03044E+03 -3.89985E+03  4.79310E+03 -3.08667E+03
  5.69792E+03  4.45792E+02  6.41552E+03  4.17245E+03  2.01061E+03  6.04604E+03 -2.08455E+03  5.86838E+03
 -4.85011E+03  2.59905E+03 -5.36400E+03 -6.38355E+02 -2.81692E+03 -4.20503E+03  8.52913E+02 -3.68879E+03
  4.11802E+03 -2.02764E+03  2.94262E+03  1.60649E+03  9.63079E+02  3.79867E+03 -4.86540E+02  2.97229E+03
 -1.24423E+03  2.11757E+03 -1.51276E+03  3.38023E+02 -7.39572E+02  5.71628E+02 -1.63939E+03  1.61383E+03
 -2.16132E+03  2.42285E+03 -4.73624E+03  2.07188E+03 -6.62869E+03 -9.25269E+01 -7.14519E+03 -3.81269E+03
 -3.91478E+03 -7.98068E+03  1.57540E+03 -9.18395E+03  5.49320E+03 -7.34187E+03  8.64735E+03 -2.97842E+03
  8.25408E+03  1.30992E+03  4.82042E+03  5.50500E+03  1.49981E+02  6.42110E+03 -2.10217E+03  4.54928E+03
 -3.13294E+03  1.84400E+03 -2.01020E+03 -5.92815E+02 -8.49189E+02 -3.70784E+02 -7.11847E+02 -3.28557E+02
 -1.29057E+03  6.64274E+01 -1.81674E+03 -3.92378E+02 -1.32872E+02 -1.41396E+03 -2.25584E+02 -2.46834E+03
  2.93979E+03 -1.96017E+03  3.68982E+03 -1.34778E+02  4.29930E+03  3.06945E+03  9.42708E+02  6.12639E+03
 -3.53172E+03  7.11436E+03 -6.20717E+03  3.96952E+03 -7.06488E+03 -8.30797E+02 -4.98059E+03 -4.42399E+03
 -2.72772E+03 -5.87041E+03  1.70622E+03 -5.14589E+03  3.86842E+03 -3.07999E+03  3.84939E+03 -1.14621E+02
  2.38370E+03  2.03787E+03 -1.83529E+02  1.75396E+03 -1.05805E+03 -2.58107E+02  1.37137E+02 -1.24816E+03
  1.59995E+03 -5.78396E+02  2.33652E+03  9.64159E+02  1.33194E+03  2.39523E+03 -9.52438E+01  2.83139E+03
 -2.34235E+03  2.75940E+03 -3.56578E+03  4.92216E+02 -3.60654E+03 -2.83371E+03 -3.34054E+02 -4.71624E+03
  2.76327E+03 -3.91253E+03  4.21307E+03 -1.05648E+03  4.36824E+03  3.84498E+02  2.24579E+03  3.66592E+03
  7.43780E+02  3.44985E+03 -1.28904E+03  2.88146E+03 -2.35348E+03  1.67548E+03 -2.17711E+03  4.89635E+02
 -1.21685E+03 -1.12902E+02 -1.11881E+03  7.22263E+02 -1.62767E+03  5.74680E+02 -3.08132E+03 -6.46906E+02
 -2.99555E+03 -1.20323E+03 -1.34064E+03 -3.60048E+03  1.71928E+03 -4.40105E+03  3.52534E+03 -1.51206E+03
  3.46996E+03  5.17144E+02  1.61021E+03  2.38354E+03 -2.30576E+02  3.94681E+03 -2.91682E+03  2.54309E+03
