 $NMID ID='MM_0lb_SNR800_17hz_g40_83.RAW', FMTDAT='(8E13.5)'
 TRAMP=1., VOLUME=1. $END
  3.09768E+05  6.25073E+02  3.37082E+05  2.50737E+05  8.43584E+04  3.37149E+05 -1.32571E+05  2.50391E+05
 -1.89715E+05  8.24167E+04 -1.10984E+05 -3.29324E+04  1.70822E+03 -5.04365E+04  5.41131E+04  8.33522E+01
  3.48383E+04  5.29354E+04 -1.69628E+04  7.49804E+04 -6.06619E+04  6.28062E+04 -8.30795E+04  3.15484E+04
 -7.97615E+04 -1.12622E+04 -5.67035E+04 -5.01741E+04 -1.45943E+04 -6.82799E+04  2.65832E+04 -4.48750E+04
  3.90401E+04  4.01626E+03  1.57108E+04  4.73884E+04 -3.38633E+04  4.63316E+04 -6.55699E+04 -5.55264E+02
 -5.21945E+04 -5.61099E+04 -6.18987E+03 -7.52403E+04  3.30931E+04 -5.30639E+04  4.64476E+04 -1.66706E+04
  4.15494E+04  1.12352E+04  3.08998E+04  2.43331E+04  1.59077E+04  2.83111E+04 -4.61820E+03  2.69348E+04
 -2.18530E+04  1.26507E+04 -1.92198E+04 -4.20755E+03  4.44694E+03 -7.38570E+03  2.12875E+04  1.12324E+04
  7.45737E+03  3.33748E+04 -3.07805E+04  3.41732E+04 -6.13182E+04  2.15883E+03 -5.56917E+04 -4.14179E+04
 -1.24363E+04 -6.10881E+04  3.78951E+04 -4.36671E+04  5.54470E+04 -1.80553E+03  3.18403E+04  3.09245E+04
 -6.31579E+03  3.33685E+04 -2.84793E+04  1.39076E+04 -2.76408E+04 -5.50660E+03 -1.49626E+04 -1.01970E+04
 -7.44473E+03 -1.14500E+04 -1.10859E+03 -1.68751E+04  6.62016E+03 -2.27559E+04  1.50289E+04 -1.37013E+04
  1.23229E+04  4.44196E+03 -6.16828E+03  1.30878E+04 -1.94098E+04 -2.64257E+03 -8.14949E+03 -3.07370E+04
  2.07588E+04 -4.08630E+04  4.48454E+04 -1.88012E+04  4.23646E+04  1.82022E+04  1.44771E+04  4.21887E+04
 -1.55341E+04  3.13735E+04 -2.36349E+04  1.02707E+03 -8.70307E+03 -2.62873E+04  2.05132E+04 -3.15652E+04
  3.84895E+04 -7.43391E+03  3.17064E+04  2.27762E+04  1.57265E+04  4.31337E+04 -7.90014E+03  4.54831E+04
 -2.90635E+04  3.01976E+04 -3.78818E+04  8.32758E+03 -3.88161E+04 -1.53299E+04 -2.14482E+04 -3.48773E+04
  7.00326E+03 -3.45145E+04  2.94337E+04 -1.29155E+04  2.71569E+04  1.10128E+04  2.98478E+03  1.78492E+04
 -1.29869E+04  7.74488E+03 -9.69135E+03 -7.64166E+03  6.02735E+03 -1.02962E+04  1.74276E+04  6.51840E+03
  1.25083E+04  2.16792E+04 -6.58249E+03  2.35255E+04 -2.13788E+04  9.51991E+03 -2.53133E+04 -6.22065E+03
 -1.71451E+04 -1.66134E+04 -5.72022E+03 -1.72011E+04  3.91939E+03 -1.51856E+04  1.27732E+04 -1.49348E+04
  2.20051E+04 -1.15970E+04  2.87063E+04  1.60408E+03  2.15887E+04  1.66307E+04  4.04308E+03  3.32412E+04
 -1.63282E+04  2.79608E+04 -2.60652E+04  9.39147E+03 -1.99135E+04 -1.05882E+04 -4.14909E+03 -1.36176E+04
  2.65232E+03 -3.88737E+03 -2.84235E+03  5.52241E+03 -1.33282E+04  5.22673E+03 -1.40279E+04 -5.02949E+03
 -8.84758E+03 -1.59743E+04  4.73187E+03 -1.99451E+04  1.27750E+04 -1.42496E+04  1.48869E+04 -1.44820E+03
  9.07220E+03  1.12496E+04 -7.45506E+02  1.61163E+04 -1.04880E+04  9.03822E+03 -1.59278E+04 -3.56288E+03
 -1.18747E+04 -1.46093E+04 -1.51586E+03 -1.94555E+04  8.77318E+03 -1.56651E+04  1.66093E+04 -7.62738E+03
  1.50401E+04  6.47735E+02  1.06167E+04  3.73163E+03  5.29622E+03  4.16916E+02  8.01980E+03 -1.42702E+03
  1.43037E+04  2.98362E+03  1.53623E+04  1.28781E+04  9.67716E+03  2.54124E+04 -3.04509E+03  2.77173E+04
 -1.62184E+04  2.09633E+04 -2.55203E+04  1.05254E+04 -2.60910E+04 -2.21272E+03 -2.22200E+04 -1.52799E+04
 -1.03827E+04 -2.13216E+04  7.14893E+03 -2.01002E+04  1.71327E+04 -1.12047E+04  1.61492E+04  3.73531E+03
  6.69699E+03  1.14687E+04 -7.70078E+03  1.06134E+04 -1.37722E+04  2.84452E+03 -1.06053E+04 -8.34481E+03
 -1.04698E+02 -1.28023E+04  6.18101E+03 -9.63787E+03  8.32284E+03 -1.35819E+03  1.39173E+03  5.16596E+03
 -5.70599E+03  1.99648E+03 -3.95692E+03 -4.66656E+03  4.87924E+02 -1.06401E+04  7.87639E+03 -1.06646E+04
  1.26264E+04 -5.08367E+03  1.29411E+04  2.84207E+03  1.13891E+04  9.82726E+03  5.40262E+03  1.49944E+04
 -1.89752E+03  1.71312E+04 -1.05392E+04  1.09264E+04 -1.20938E+04  3.04853E+03 -8.75742E+03 -2.53953E+03
 -4.45163E+03 -3.98191E+03 -5.14130E+02  1.62689E+03 -2.07173E+03  2.14635E+03 -4.17879E+03  3.51534E+03
 -8.27233E+03 -5.08542E+02 -9.26787E+03 -7.49414E+03 -3.66478E+03 -1.22391E+04  3.64084E+03 -8.95217E+03
  7.73166E+03 -3.89253E+03  5.65992E+03  2.09842E+03  5.99496E+02  3.16014E+03 -3.68749E+03 -2.35813E+02
 -3.51429E+03 -5.70791E+03 -6.65943E+02 -7.75246E+03  4.07286E+03 -8.32990E+03  1.05360E+04 -4.38451E+03
  1.25886E+04  7.37279E+02  9.36861E+03  6.89734E+03  1.95789E+03  9.68569E+03 -5.22761E+03  8.72938E+03
 -7.27095E+03  2.92122E+03 -3.86890E+03 -1.21110E+03  1.32423E+03 -2.02389E+03  4.77887E+03 -1.22326E+03
  4.48886E+03  3.33406E+03  6.94644E+02  6.64149E+03 -4.72273E+03  6.74542E+03 -8.42099E+03  1.81831E+03
 -5.24514E+03 -3.61895E+03 -1.84911E+01 -7.12884E+03  4.25211E+03 -3.48890E+03  3.78880E+03  1.14826E+03
  8.15058E+02  3.71507E+03 -4.24831E+03  5.15214E+03 -5.67067E+03  2.30739E+03 -5.04156E+03 -1.34698E+03
 -3.33568E+03 -6.80698E+03  1.55673E+03 -8.00345E+03  6.69651E+03 -5.11123E+03  7.25950E+03  9.13622E+02
  5.31516E+03  5.88220E+03 -3.55651E+01  7.73977E+03 -5.49799E+03  4.51896E+03 -5.78777E+03 -3.53068E+02
 -5.93953E+03 -5.63583E+03 -1.27006E+03 -5.56361E+03  2.27416E+03 -4.95386E+03  3.35315E+03 -2.91064E+03
  2.87661E+03  4.22703E+02  1.25041E+00  1.21604E+03  2.83638E+02 -4.30938E+02  3.24616E+02 -2.49427E+03
  4.54425E+03 -1.17753E+03  6.02162E+03  1.03961E+03  6.12882E+03  3.43139E+03  5.38714E+03  7.87108E+03
 -1.46385E+03  9.72438E+03 -8.79014E+03  7.22472E+03 -1.07627E+04  1.39772E+03 -8.90398E+03 -3.04814E+03
 -4.69882E+03 -7.38627E+03 -2.71344E+02 -6.02084E+03  2.38150E+03 -2.33848E+03  1.97714E+03 -2.36924E+03
  1.65068E+03 -1.58578E+03  2.24336E+03 -2.63153E+03  3.83341E+03 -1.43709E+03  3.74306E+03  3.46230E+02
  4.76868E+03  1.39316E+03  1.27219E+03  3.93716E+03 -1.56687E+03  3.37531E+03 -4.79900E+03  3.01307E+03
 -5.75544E+03 -9.15798E+02 -2.47885E+03 -3.84480E+03  1.84352E+02 -5.75534E+03  3.39863E+03 -6.06165E+03
  6.03072E+03 -3.60884E+03  7.66921E+03  2.80892E+02  5.64518E+03  4.89574E+03  9.63532E+02  6.57708E+03
 -2.30973E+03  6.21030E+03 -3.80028E+03  2.23413E+03 -2.42323E+03 -1.27449E+03 -8.80152E+02 -9.14464E+02
 -6.29553E+02  4.43165E+02 -1.04158E+03  1.97020E+03 -2.65313E+03  1.10912E+03 -4.47617E+03 -5.22234E+02
 -1.95761E+03 -4.64912E+03  1.04486E+03 -5.38901E+03  3.04399E+03 -5.11845E+03  4.55336E+03 -1.37059E+03
  4.78016E+03  2.79780E+03  2.54553E+03  4.08980E+03 -7.38114E+02  5.19929E+03 -3.12629E+03  3.25797E+03
 -4.44754E+03  5.66393E+02 -4.28172E+03 -3.11019E+03 -3.38361E+02 -3.80450E+03  2.03916E+03 -2.93612E+03
  3.06251E+03 -1.35909E+03  2.11884E+03  4.15992E+02  1.79258E+02  1.63429E+03  1.06582E+03  5.36592E+02
  1.59502E+03  4.55911E+02  1.46903E+03  1.30233E+03  1.29869E+03  2.54625E+03  1.51388E+03  2.21368E+03
 -1.52977E+03  3.78160E+03 -3.09363E+03  4.32947E+03 -3.69160E+03  1.57211E+03 -4.93685E+03 -9.69569E+02
 -1.98155E+03 -4.43738E+03  5.84746E+02 -5.32881E+03  2.46241E+03 -3.08617E+03  3.80534E+03 -1.15656E+03
  2.92723E+03  1.84041E+03  5.07196E+02  2.76413E+03 -7.69585E+02  1.49845E+03 -1.51058E+03 -2.98793E+02
 -6.75908E+02 -1.77763E+03  1.22290E+03 -2.14116E+03  1.65781E+03 -1.08838E+03  1.65404E+03  5.95523E+02
  1.05321E+03  6.35951E+02  6.25320E+02 -3.51858E+02 -5.28123E+02  9.12839E+02  1.48165E+03 -3.29722E+02
  5.27682E+01 -3.35259E+02  2.34535E+03  7.24991E+02  4.61011E+02  2.76652E+03 -3.54085E+02  3.31433E+03
 -1.96765E+03  1.74576E+03 -2.57028E+03  4.03878E+02 -2.64937E+03 -8.66052E+02 -6.70469E+02 -1.52450E+03
  4.95912E+02 -1.52612E+03  9.30644E+02 -9.62264E+02  5.01555E+02  1.35279E+03 -8.71036E+02  1.50665E+03
 -1.85017E+03  8.90994E+02 -1.73852E+03 -1.64847E+03 -6.27871E+02 -2.47007E+03  2.43446E+02 -2.13405E+03
  6.33694E+02 -1.23885E+03  1.40461E+03  2.41044E+02  1.48602E+03 -3.25343E+01  4.18856E+01  1.16851E+03
 -4.02238E+02  2.06540E+02 -1.20855E+03 -2.62830E+02  5.84734E+02 -1.40417E+03  2.18165E+03 -1.18934E+03
  1.89148E+03  3.40285E+02  2.89109E+03  1.29445E+03  1.18275E+03  2.34873E+03 -5.49123E+02  2.24023E+03
 -2.03878E+03  4.52546E+02 -1.84803E+03 -2.56469E+02 -1.02715E+03 -1.59273E+03  3.46083E+02 -8.20855E+02
  1.47704E+03 -8.08710E+02  1.17686E+03  6.31584E+02  4.38635E+02  1.76837E+03  5.66081E+01  1.36573E+03
 -4.39503E+02  1.22879E+03 -7.59542E+02  3.57004E+02 -1.17300E+02  5.23261E+02 -8.33728E+02  8.00037E+02
 -7.89104E+02  1.09861E+03 -1.99008E+03  7.05006E+02 -2.31989E+03  1.73634E+02 -2.85035E+03 -1.39436E+03
 -1.20191E+03 -2.97161E+03  5.03751E+02 -3.86970E+03  1.80284E+03 -3.26807E+03  3.26787E+03 -1.43652E+03
  3.20683E+03  3.02084E+02  1.87230E+03  2.09660E+03 -3.93358E+02  2.02454E+03 -7.95538E+02  1.86485E+03
 -1.20357E+03  8.90900E+02 -5.18506E+02 -4.11036E+02 -5.55102E+02  1.62013E+02 -6.59457E+02  1.19544E+02
 -9.73866E+02 -6.45686E+01 -8.15179E+02  3.85271E+01  1.06932E+02 -7.59789E+02 -5.27905E+02 -1.14609E+03
  1.33026E+03 -7.16571E+02  6.92298E+02  2.70911E+02  1.46677E+03  1.12700E+03 -1.22487E+02  1.95321E+03
 -1.35723E+03  2.76196E+03 -2.25256E+03  1.42909E+03 -2.47648E+03 -2.91976E+02 -1.68202E+03 -1.78341E+03
 -1.13948E+03 -2.42389E+03  6.43856E+02 -1.63759E+03  1.23791E+03 -9.10495E+02  1.33454E+03  7.55463E+01
  7.55846E+02  6.87826E+02  1.21081E+02  3.79568E+02 -4.80705E+02 -1.31430E+02  1.66650E+02 -6.60626E+02
  5.86740E+02  1.95262E+02  4.38163E+02  5.17441E+02  1.05236E+02  6.41355E+02  6.12826E+02  8.18424E+02
 -7.62641E+02  1.07881E+03 -9.39960E+02  3.08898E+02 -9.50596E+02 -9.89010E+02 -2.59234E+02 -1.48510E+03
  7.21148E+02 -8.00035E+02  1.19512E+03  2.02049E+01  1.10258E+03 -6.35177E+02  6.51669E+02  1.16277E+03
  7.26941E+02  9.59072E+02 -4.25498E+01  8.03480E+02 -7.87530E+02  5.95254E+02 -5.81739E+02  2.33438E+02
 -2.42182E+02 -1.26614E+02 -5.68405E+02 -5.06333E+01 -6.92392E+02  1.76646E+02 -9.93968E+02 -1.00579E+02
 -1.26920E+03  1.35529E+02 -3.37104E+02 -1.35333E+03  9.20829E+02 -1.81716E+03  8.13571E+02 -6.73233E+02
  1.13258E+03  2.82232E+02 -1.42072E+02  4.27703E+02  8.38808E+01  1.35121E+03 -4.49449E+02  9.46530E+02
