 $NMID ID='MM_0lb_SNR800_15hz_g50_17.RAW', FMTDAT='(8E13.5)'
 TRAMP=1., VOLUME=1. $END
  3.09790E+05  2.23067E+02  3.37648E+05  2.50508E+05  8.49133E+04  3.37777E+05 -1.32586E+05  2.50875E+05
 -1.90075E+05  8.28999E+04 -1.11697E+05 -3.25374E+04  9.67733E+02 -5.03761E+04  5.35026E+04 -1.21969E+02
  3.52635E+04  5.28862E+04 -1.68476E+04  7.54682E+04 -6.09360E+04  6.34742E+04 -8.39330E+04  3.21985E+04
 -8.11650E+04 -1.14980E+04 -5.71673E+04 -5.12754E+04 -1.51935E+04 -6.96182E+04  2.70457E+04 -4.55505E+04
  4.03990E+04  3.88307E+03  1.61530E+04  4.76382E+04 -3.42407E+04  4.68727E+04 -6.64335E+04 -1.06913E+02
 -5.31854E+04 -5.67724E+04 -6.74792E+03 -7.68008E+04  3.37326E+04 -5.48371E+04  4.78553E+04 -1.74054E+04
  4.29683E+04  1.10811E+04  3.14389E+04  2.53149E+04  1.57959E+04  2.93977E+04 -5.06536E+03  2.71115E+04
 -2.23024E+04  1.25386E+04 -1.85633E+04 -4.60095E+03  5.61079E+03 -7.62697E+03  2.22749E+04  1.19338E+04
  7.55552E+03  3.50633E+04 -3.21168E+04  3.51784E+04 -6.33066E+04  1.81661E+03 -5.66321E+04 -4.23365E+04
 -1.23357E+04 -6.28533E+04  3.95524E+04 -4.49814E+04  5.77679E+04 -2.09821E+03  3.37313E+04  3.22757E+04
 -6.14797E+03  3.57896E+04 -2.98986E+04  1.55813E+04 -2.99156E+04 -4.37449E+03 -1.62132E+04 -1.08091E+04
 -8.33943E+03 -1.28949E+04 -8.08372E+02 -1.79753E+04  7.40977E+03 -2.30174E+04  1.51715E+04 -1.36038E+04
  1.15361E+04  4.95049E+03 -7.82939E+03  1.26189E+04 -2.09045E+04 -3.68695E+03 -8.21383E+03 -3.29167E+04
  2.25464E+04 -4.29357E+04  4.78412E+04 -1.94447E+04  4.47197E+04  1.93910E+04  1.54847E+04  4.38453E+04
 -1.60227E+04  3.33249E+04 -2.49119E+04  1.73335E+03 -9.52858E+03 -2.72773E+04  2.08133E+04 -3.33225E+04
  4.06571E+04 -8.64472E+03  3.48212E+04  2.35537E+04  1.75732E+04  4.55762E+04 -8.00955E+03  4.92795E+04
 -3.10033E+04  3.29795E+04 -4.14565E+04  9.26670E+03 -4.18273E+04 -1.64764E+04 -2.31184E+04 -3.72110E+04
  7.17362E+03 -3.75582E+04  3.10504E+04 -1.45046E+04  2.85966E+04  1.08170E+04  3.89423E+03  1.91387E+04
 -1.33493E+04  8.01969E+03 -1.01587E+04 -7.55265E+03  5.99208E+03 -1.04626E+04  1.79041E+04  6.20972E+03
  1.32377E+04  2.22045E+04 -6.01306E+03  2.45804E+04 -2.23168E+04  1.10800E+04 -2.79003E+04 -5.04859E+03
 -1.97163E+04 -1.72334E+04 -7.41053E+03 -1.98445E+04  3.86759E+03 -1.85480E+04  1.51663E+04 -1.73225E+04
  2.53422E+04 -1.25195E+04  3.16526E+04  2.32477E+03  2.33181E+04  1.90696E+04  4.34007E+03  3.55486E+04
 -1.73419E+04  2.99045E+04 -2.77380E+04  1.03314E+04 -2.07246E+04 -1.02568E+04 -4.05216E+03 -1.36153E+04
  1.76527E+03 -3.04636E+03 -4.90944E+03  6.29422E+03 -1.56350E+04  5.05805E+03 -1.58060E+04 -6.48816E+03
 -9.71111E+03 -1.85392E+04  5.26067E+03 -2.24696E+04  1.48293E+04 -1.60437E+04  1.75518E+04 -1.55901E+03
  1.11222E+04  1.28645E+04 -1.12755E+03  1.84480E+04 -1.27237E+04  1.05378E+04 -1.80928E+04 -3.85912E+03
 -1.33998E+04 -1.66691E+04 -1.78702E+03 -2.20656E+04  1.02248E+04 -1.81503E+04  1.84338E+04 -8.91317E+03
  1.72752E+04  5.00084E+02  1.23036E+04  4.60063E+03  6.39656E+03  8.44476E+02  9.33006E+03 -1.75176E+03
  1.66473E+04  2.58473E+03  1.84591E+04  1.43607E+04  1.17476E+04  2.92429E+04 -3.03275E+03  3.26080E+04
 -1.91189E+04  2.61276E+04 -3.00910E+04  1.28149E+04 -3.18594E+04 -2.57808E+03 -2.64997E+04 -1.82992E+04
 -1.16336E+04 -2.61430E+04  9.11406E+03 -2.35583E+04  2.06896E+04 -1.24493E+04  1.84609E+04  4.93409E+03
  6.80486E+03  1.37822E+04 -8.49106E+03  1.19097E+04 -1.53136E+04  2.92156E+03 -1.21148E+04 -9.62601E+03
 -3.59753E+02 -1.47148E+04  7.49219E+03 -1.12354E+04  9.71716E+03 -1.13775E+03  1.92548E+03  6.21428E+03
 -6.88604E+03  2.28277E+03 -5.91206E+03 -5.20260E+03 -2.48588E+02 -1.29785E+04  9.29419E+03 -1.31811E+04
  1.55271E+04 -6.96270E+03  1.68344E+04  3.09687E+03  1.42861E+04  1.24520E+04  6.84094E+03  1.92879E+04
 -2.83018E+03  2.06972E+04 -1.30498E+04  1.32628E+04 -1.50477E+04  3.38174E+03 -1.06682E+04 -3.14028E+03
 -5.33204E+03 -4.43713E+03 -7.12605E+02  1.34415E+03 -2.36569E+03  2.53787E+03 -4.82441E+03  4.50339E+03
 -1.01689E+04 -4.95827E+02 -1.06785E+04 -8.86051E+03 -4.21005E+03 -1.38500E+04  4.53157E+03 -1.04130E+04
  8.70796E+03 -4.55375E+03  6.39367E+03  2.76611E+03 -1.77543E+01  4.14657E+03 -4.70312E+03 -1.77866E+02
 -4.67471E+03 -6.48450E+03 -1.18580E+03 -1.00477E+04  5.58121E+03 -1.05535E+04  1.30850E+04 -5.57737E+03
  1.52808E+04  1.22657E+03  1.16727E+04  8.70812E+03  2.17934E+03  1.18806E+04 -6.52469E+03  1.06290E+04
 -8.88666E+03  3.34136E+03 -4.64780E+03 -1.81337E+03  1.50795E+03 -2.62311E+03  5.77017E+03 -9.08500E+02
  5.38674E+03  4.19253E+03  1.04868E+03  8.29084E+03 -5.91217E+03  7.90245E+03 -1.00980E+04  1.82743E+03
 -6.74226E+03 -4.90349E+03  5.00775E+02 -8.54496E+03  5.30864E+03 -4.49398E+03  5.37371E+03  1.85432E+03
  1.23712E+03  5.20325E+03 -5.41978E+03  6.82953E+03 -7.56099E+03  3.33750E+03 -7.24958E+03 -2.29362E+03
 -4.54336E+03 -8.82148E+03  1.83476E+03 -1.04659E+04  8.88164E+03 -6.64823E+03  9.95917E+03  1.65227E+03
  6.26090E+03  7.65855E+03 -3.49213E+02  9.47612E+03 -7.30110E+03  5.56351E+03 -7.69075E+03 -9.45620E+02
 -7.26645E+03 -6.71820E+03 -1.53090E+03 -7.06961E+03  3.71514E+03 -6.24153E+03  4.04136E+03 -3.16888E+03
  3.63750E+03  7.62232E+02 -2.00764E+02  1.74030E+03 -1.03819E+01 -1.45300E+03  9.18234E+02 -3.10090E+03
  6.31834E+03 -2.03922E+03  8.38525E+03  8.69249E+02  8.42520E+03  5.42802E+03  6.76643E+03  1.09617E+04
 -2.08619E+03  1.28929E+04 -1.06132E+04  9.66979E+03 -1.44146E+04  1.75473E+03 -1.15796E+04 -4.49158E+03
 -6.06274E+03 -9.60295E+03 -3.75632E+02 -7.88466E+03  3.30306E+03 -3.66780E+03  2.53953E+03 -3.24785E+03
  2.08427E+03 -2.00045E+03  2.83716E+03 -2.62376E+03  4.17994E+03 -1.86115E+03  4.52073E+03  1.66706E+01
  6.34013E+03  1.29214E+03  2.72267E+03  5.26492E+03 -1.55792E+03  5.38018E+03 -6.12211E+03  4.32001E+03
 -7.90905E+03 -1.03273E+03 -3.90362E+03 -5.19031E+03  1.35114E+02 -7.88327E+03  4.86139E+03 -7.95426E+03
  8.28134E+03 -4.72630E+03  1.01752E+04  8.71698E+02  6.97500E+03  6.59900E+03  1.37645E+03  9.04394E+03
 -3.28391E+03  8.32769E+03 -5.03230E+03  2.81008E+03 -3.21230E+03 -1.17758E+03 -1.37688E+03 -9.37978E+02
 -7.71739E+02  3.17403E+02 -1.32491E+03  2.34607E+03 -3.77938E+03  1.45269E+03 -5.47578E+03 -6.02504E+02
 -3.34636E+03 -5.82014E+03  4.78035E+02 -7.49378E+03  4.48582E+03 -6.61717E+03  6.46034E+03 -1.91921E+03
  6.90039E+03  3.64668E+03  3.14264E+03  5.82654E+03 -1.40624E+03  6.95764E+03 -4.46952E+03  4.41129E+03
 -6.40161E+03  7.07628E+02 -4.94292E+03 -4.10864E+03 -7.13513E+02 -5.49118E+03  2.94256E+03 -4.38476E+03
  4.20426E+03 -1.76130E+03  2.96732E+03  9.33709E+02  8.29033E+02  2.25471E+03  1.09204E+03  1.02491E+03
  2.01444E+03  7.36352E+02  1.79285E+03  1.27594E+03  1.81703E+03  2.85039E+03  1.77837E+03  3.16886E+03
 -1.61549E+03  4.89226E+03 -4.46291E+03  5.77309E+03 -6.20855E+03  1.67432E+03 -7.20094E+03 -1.95575E+03
 -2.96382E+03 -6.65075E+03  8.50709E+02 -7.72385E+03  3.50763E+03 -4.41399E+03  5.37379E+03 -1.39830E+03
  4.21869E+03  2.62632E+03  1.12149E+03  3.89583E+03 -1.60423E+03  2.18026E+03 -1.96152E+03 -3.39684E+02
 -1.22225E+03 -2.72559E+03  1.59089E+03 -2.92596E+03  2.59649E+03 -1.38601E+03  2.71381E+03  5.50642E+02
  1.65112E+03  7.94169E+02  1.07905E+03  1.81164E+02 -3.25435E+02  8.43017E+02  1.77413E+03 -1.10114E+02
  6.32570E+02 -2.00323E+02  2.43580E+03  9.68549E+02  8.24076E+02  3.51573E+03 -5.44104E+02  4.72866E+03
 -2.82359E+03  2.30108E+03 -3.97583E+03  7.03310E+02 -3.48472E+03 -1.44985E+03 -7.99888E+02 -1.76206E+03
  4.28008E+02 -2.40596E+03  1.63455E+03 -1.29920E+03  1.42292E+03  1.42080E+03 -8.90946E+02  1.93931E+03
 -2.30882E+03  1.40570E+03 -2.93115E+03 -1.71713E+03 -1.43813E+03 -3.64399E+03  4.00743E+02 -3.27554E+03
  1.43684E+03 -1.38866E+03  1.73446E+03  1.08125E+01  2.44469E+03  1.99428E+02  4.26353E+02  2.11909E+03
 -9.58176E+02  3.53096E+02 -1.49201E+03 -7.89008E+02  8.23406E+02 -2.01090E+03  3.19072E+03 -1.80941E+03
  3.31113E+03  4.91440E+02  4.17738E+03  1.99207E+03  1.33517E+03  3.50596E+03 -1.01571E+03  3.51213E+03
 -2.83134E+03  1.16287E+03 -2.87422E+03 -5.12659E+02 -1.78081E+03 -2.40261E+03  6.25014E+02 -1.63280E+03
  2.40097E+03 -1.32469E+03  1.59557E+03  1.15260E+03  9.04654E+02  2.25677E+03 -3.08692E+02  1.94036E+03
 -7.87371E+02  1.55016E+03 -1.09038E+03  2.59195E+02 -3.80771E+02  6.11761E+02 -9.57735E+02  1.23893E+03
 -1.09361E+03  1.22779E+03 -2.74937E+03  1.13711E+03 -3.58362E+03  2.73466E+02 -4.39905E+03 -2.19575E+03
 -1.76070E+03 -4.51961E+03  5.21562E+02 -5.55095E+03  2.61172E+03 -4.35631E+03  5.01824E+03 -1.61873E+03
  4.41079E+03  2.91078E+02  2.34402E+03  3.23271E+03 -3.01921E+02  3.04346E+03 -1.44113E+03  2.64711E+03
 -1.91123E+03  1.05145E+03 -8.53681E+02 -7.02672E+02 -5.17778E+02  3.15726E+01 -4.67978E+02  3.22818E+02
 -1.41329E+03  1.29049E+01 -1.25316E+03 -2.11457E+01  2.18752E+02 -9.60858E+02 -1.70488E+02 -1.19481E+03
  2.15064E+03 -1.24830E+03  1.48794E+03 -1.94798E+02  2.48783E+03  1.88629E+03 -2.78141E+02  3.26966E+03
 -1.71449E+03  4.05892E+03 -3.85438E+03  2.20839E+03 -3.99513E+03 -3.82656E+02 -2.74827E+03 -2.56509E+03
 -1.65390E+03 -3.03978E+03  5.46956E+02 -2.79626E+03  1.80528E+03 -1.51991E+03  2.01337E+03  1.61296E+02
  1.41543E+03  9.44633E+02  1.54207E+01  9.41629E+02 -8.36607E+02  4.27688E+01 -9.79315E+01 -3.99937E+02
  1.20717E+03  1.16490E+02  9.82435E+02  6.57085E+02  5.51130E+02  1.33423E+03  5.49018E+02  1.06707E+03
 -1.39482E+03  1.36950E+03 -1.77538E+03  1.90506E+02 -1.93355E+03 -1.20317E+03 -3.86767E+00 -2.49902E+03
  1.32825E+03 -2.10736E+03  1.58352E+03 -4.99918E+02  1.91780E+03 -1.54825E+02  1.17262E+03  2.01386E+03
  5.02242E+02  1.56787E+03 -4.18513E+02  1.01420E+03 -1.19454E+03  1.26362E+03 -9.72664E+02  2.99465E+02
 -3.74063E+02 -2.21494E+02 -5.19597E+02  2.49876E+02 -1.16842E+03  1.17126E+02 -1.38736E+03 -2.45855E+02
 -1.82144E+03 -6.82468E+02 -8.42783E+02 -1.51132E+03  9.02474E+02 -2.59425E+03  1.43456E+03 -7.17513E+02
  1.78862E+03 -1.90707E+01  3.64595E+02  1.28386E+03 -2.22095E+02  1.69369E+03 -9.68371E+02  1.12364E+03
