 $NMID ID='MM_0lb_SNR800_18hz_g40_12.RAW', FMTDAT='(8E13.5)'
 TRAMP=1., VOLUME=1. $END
  3.09711E+05  5.47871E+02  3.37186E+05  2.50249E+05  8.42087E+04  3.37379E+05 -1.32250E+05  2.50135E+05
 -1.89607E+05  8.23340E+04 -1.10972E+05 -3.28926E+04  1.30076E+03 -5.00465E+04  5.39642E+04  3.47072E+02
  3.49422E+04  5.25087E+04 -1.70466E+04  7.48897E+04 -6.03502E+04  6.27480E+04 -8.25783E+04  3.15035E+04
 -7.94702E+04 -1.07792E+04 -5.62036E+04 -5.00374E+04 -1.48377E+04 -6.79493E+04  2.65535E+04 -4.46258E+04
  3.89394E+04  3.84569E+03  1.53533E+04  4.71062E+04 -3.40405E+04  4.59292E+04 -6.48838E+04 -8.13272E+02
 -5.19763E+04 -5.55225E+04 -5.92415E+03 -7.47291E+04  3.28883E+04 -5.29059E+04  4.61552E+04 -1.60316E+04
  4.12640E+04  1.14745E+04  3.05021E+04  2.42110E+04  1.58063E+04  2.80135E+04 -4.59638E+03  2.66521E+04
 -2.16214E+04  1.28255E+04 -1.94307E+04 -4.41771E+03  4.54222E+03 -7.62056E+03  2.09869E+04  1.07400E+04
  7.32369E+03  3.30578E+04 -3.01125E+04  3.37301E+04 -6.09074E+04  2.27436E+03 -5.53076E+04 -4.07010E+04
 -1.24422E+04 -6.04681E+04  3.76135E+04 -4.31887E+04  5.51627E+04 -1.69146E+03  3.13452E+04  3.03363E+04
 -6.47597E+03  3.28502E+04 -2.83870E+04  1.29066E+04 -2.70917E+04 -4.95962E+03 -1.42768E+04 -9.87395E+03
 -7.18550E+03 -1.10535E+04 -1.02604E+03 -1.63438E+04  6.43708E+03 -2.25435E+04  1.51006E+04 -1.39218E+04
  1.24079E+04  4.06991E+03 -5.99976E+03  1.30598E+04 -1.90398E+04 -2.19576E+03 -8.00313E+03 -3.00038E+04
  2.07016E+04 -3.98843E+04  4.44906E+04 -1.81294E+04  4.16718E+04  1.83016E+04  1.41406E+04  4.14662E+04
 -1.51464E+04  3.05505E+04 -2.33524E+04  8.96951E+02 -8.33370E+03 -2.61172E+04  2.03258E+04 -3.09230E+04
  3.79074E+04 -7.30464E+03  3.11570E+04  2.25777E+04  1.47950E+04  4.22721E+04 -7.65250E+03  4.45622E+04
 -2.83552E+04  2.94433E+04 -3.66940E+04  8.14112E+03 -3.77127E+04 -1.47399E+04 -2.12197E+04 -3.42990E+04
  7.03271E+03 -3.35980E+04  2.89259E+04 -1.26380E+04  2.66067E+04  1.06969E+04  3.19071E+03  1.74787E+04
 -1.30003E+04  7.34993E+03 -9.73057E+03 -7.79387E+03  5.68656E+03 -1.00894E+04  1.70276E+04  6.57249E+03
  1.22582E+04  2.14959E+04 -6.81813E+03  2.33495E+04 -2.12572E+04  8.81384E+03 -2.50811E+04 -6.53060E+03
 -1.64964E+04 -1.64004E+04 -5.27401E+03 -1.64541E+04  3.93782E+03 -1.43194E+04  1.18780E+04 -1.41155E+04
  2.11957E+04 -1.16456E+04  2.78052E+04  1.06098E+03  2.11340E+04  1.62131E+04  4.17826E+03  3.22460E+04
 -1.59688E+04  2.73882E+04 -2.58663E+04  9.43381E+03 -1.95421E+04 -1.03522E+04 -3.96438E+03 -1.39280E+04
  2.52148E+03 -4.17339E+03 -2.68456E+03  5.58498E+03 -1.25262E+04  5.08244E+03 -1.33137E+04 -4.66249E+03
 -8.61599E+03 -1.53126E+04  4.56790E+03 -1.88972E+04  1.24989E+04 -1.38077E+04  1.45658E+04 -1.46757E+03
  8.74027E+03  1.07943E+04 -7.80047E+02  1.55320E+04 -1.01226E+04  8.57335E+03 -1.52502E+04 -3.55971E+03
 -1.13000E+04 -1.41439E+04 -1.39336E+03 -1.88481E+04  8.41904E+03 -1.50295E+04  1.59035E+04 -7.07399E+03
  1.43116E+04  6.90774E+02  1.03890E+04  3.75152E+03  4.99861E+03  5.48587E+02  7.35172E+03 -1.03624E+03
  1.39448E+04  3.01379E+03  1.47294E+04  1.26797E+04  9.00500E+03  2.47365E+04 -3.07045E+03  2.62660E+04
 -1.56298E+04  1.99922E+04 -2.40572E+04  9.58080E+03 -2.45393E+04 -1.39866E+03 -2.11693E+04 -1.42858E+04
 -1.00366E+04 -2.03863E+04  6.62780E+03 -1.86541E+04  1.63240E+04 -1.08419E+04  1.56946E+04  3.49244E+03
  6.77266E+03  1.09404E+04 -6.95886E+03  1.06315E+04 -1.31574E+04  2.46091E+03 -1.02583E+04 -8.17640E+03
  3.74922E+01 -1.22678E+04  6.12511E+03 -9.45215E+03  7.71148E+03 -1.33512E+03  1.68136E+03  4.89123E+03
 -5.50595E+03  1.17666E+03 -3.60256E+03 -4.23924E+03  5.17572E+02 -9.95875E+03  7.82044E+03 -9.68328E+03
  1.20667E+04 -4.90928E+03  1.17551E+04  2.84448E+03  1.00514E+04  9.53377E+03  4.88500E+03  1.37419E+04
 -1.63353E+03  1.57277E+04 -9.30159E+03  1.00637E+04 -1.13504E+04  2.76253E+03 -8.47995E+03 -1.57799E+03
 -4.74830E+03 -3.26933E+03 -7.64292E+02  1.44969E+03 -1.87035E+03  2.17923E+03 -3.42108E+03  3.57819E+03
 -7.71587E+03 -5.66276E+02 -8.41194E+03 -7.02807E+03 -3.25279E+03 -1.14233E+04  3.20111E+03 -8.71906E+03
  7.09596E+03 -3.72548E+03  5.26789E+03  2.38453E+03  6.53140E+02  3.23861E+03 -3.63270E+03 -5.20986E+00
 -3.41856E+03 -5.39375E+03 -9.64534E+02 -7.18212E+03  3.90775E+03 -7.57479E+03  9.77087E+03 -3.96014E+03
  1.14713E+04  6.04129E+02  8.96264E+03  6.15192E+03  1.59947E+03  8.62093E+03 -5.15695E+03  8.11828E+03
 -7.05465E+03  2.97585E+03 -3.45737E+03 -1.30872E+03  1.26254E+03 -2.20973E+03  4.83590E+03 -7.78495E+02
  4.17665E+03  3.22781E+03  9.12995E+02  6.30830E+03 -4.51591E+03  6.29664E+03 -8.20862E+03  1.76488E+03
 -4.77890E+03 -3.86984E+03  1.33689E+02 -6.84748E+03  3.69045E+03 -3.07695E+03  3.72224E+03  1.00064E+03
  7.30291E+02  3.34906E+03 -4.17239E+03  4.73874E+03 -4.81624E+03  2.25509E+03 -4.58492E+03 -1.22404E+03
 -2.95497E+03 -5.90241E+03  8.66617E+02 -7.06407E+03  5.42934E+03 -4.31906E+03  6.37240E+03  9.55143E+02
  4.63982E+03  5.13348E+03  2.70124E+02  7.40574E+03 -5.17940E+03  4.07639E+03 -5.36652E+03 -4.97353E+02
 -5.66219E+03 -5.18652E+03 -1.62061E+03 -5.14726E+03  2.49490E+03 -4.63494E+03  2.58319E+03 -3.25070E+03
  2.86754E+03  4.76381E+02  1.52755E+01  1.34538E+03  4.92978E+02 -2.46104E+02  4.86305E+02 -2.05580E+03
  3.81831E+03 -6.39963E+02  5.42513E+03  8.72284E+02  5.71140E+03  3.11038E+03  5.05082E+03  7.22868E+03
 -1.10891E+03  8.57744E+03 -7.80135E+03  6.88692E+03 -9.81955E+03  1.27395E+03 -8.07577E+03 -2.49593E+03
 -4.36697E+03 -6.34610E+03 -4.60326E+02 -5.34406E+03  2.12044E+03 -2.22860E+03  1.47418E+03 -2.10066E+03
  1.15339E+03 -1.56260E+03  2.17558E+03 -2.06876E+03  3.59452E+03 -1.23576E+03  3.71451E+03  1.81607E+02
  4.69067E+03  1.28246E+03  1.49273E+03  3.56138E+03 -1.34891E+03  2.67744E+03 -4.33207E+03  2.79558E+03
 -5.18388E+03 -9.68852E+02 -1.74752E+03 -3.33917E+03  3.25675E+02 -4.79906E+03  3.10140E+03 -5.33195E+03
  5.12232E+03 -3.40133E+03  6.95634E+03  2.98880E+02  5.14287E+03  4.39897E+03  1.32985E+03  6.09530E+03
 -2.24647E+03  6.19850E+03 -3.40406E+03  1.99455E+03 -1.95679E+03 -9.72370E+02 -5.22669E+02 -6.38212E+02
 -4.49472E+02  4.95767E+02 -8.66601E+02  2.03980E+03 -2.58630E+03  1.14213E+03 -3.99200E+03 -3.68574E+02
 -1.55187E+03 -4.04243E+03  6.54429E+02 -4.64173E+03  2.83310E+03 -4.43110E+03  3.63128E+03 -1.53545E+03
  4.18394E+03  2.38551E+03  1.61397E+03  3.82619E+03 -1.01383E+03  4.78306E+03 -2.53089E+03  2.50911E+03
 -3.79863E+03  7.85840E+02 -3.41477E+03 -2.66995E+03  1.77416E+02 -3.30135E+03  1.80477E+03 -2.54201E+03
  2.74315E+03 -1.16875E+03  1.66738E+03  5.58338E+02  5.96198E+02  1.70595E+03  6.85680E+02  5.68211E+02
  1.73568E+03  6.24559E+02  1.03031E+03  9.53316E+02  8.74077E+02  2.26888E+03  1.57275E+03  1.91769E+03
 -1.31705E+03  3.02099E+03 -2.69310E+03  4.30691E+03 -3.23850E+03  1.00775E+03 -4.51950E+03 -3.29156E+02
 -1.76270E+03 -3.75664E+03  5.74418E+02 -4.76311E+03  1.94664E+03 -2.64901E+03  3.22209E+03 -1.26618E+03
  2.46898E+03  1.88801E+03  4.77659E+02  2.36293E+03 -8.78290E+02  1.46725E+03 -1.20347E+03 -1.46008E+02
 -6.90253E+02 -1.67340E+03  1.28605E+03 -1.49310E+03  1.42876E+03 -9.88511E+02  1.31166E+03  1.76482E+02
  8.05867E+02  2.41288E+02  7.35357E+02 -1.22882E+02 -2.96452E+02  5.96457E+02  1.17000E+03 -7.98095E+01
 -2.04687E+01 -2.49547E+02  1.88821E+03  5.79267E+02  4.15865E+02  2.18168E+03 -6.52203E+02  3.09157E+03
 -1.91076E+03  1.20772E+03 -2.45529E+03  7.32981E+00 -2.36013E+03 -5.79413E+02 -5.14581E+02 -9.25322E+02
  2.35994E+02 -1.42848E+03  8.29922E+02 -6.05998E+02  6.80427E+02  1.28299E+03 -8.50388E+02  1.33322E+03
 -1.62258E+03  7.14676E+02 -1.39136E+03 -1.14957E+03 -1.12036E+03 -2.20644E+03  2.62290E+02 -1.36859E+03
  5.46481E+02 -6.10761E+02  9.29082E+02  9.31733E+01  1.46851E+03 -1.74829E+01  2.68813E+02  1.54993E+03
 -6.33177E+02  8.73026E+01 -1.07859E+03 -9.52483E+01  5.58262E+02 -6.68236E+02  1.76233E+03 -8.95535E+02
  1.13597E+03  2.81764E+02  2.87669E+03  6.38777E+02  1.12702E+03  1.74897E+03 -3.24782E+02  1.93167E+03
 -1.48533E+03  5.66408E+02 -1.81581E+03 -2.63263E+02 -1.09381E+03 -1.43632E+03  3.48641E+02 -6.28233E+02
  1.50456E+03 -8.33797E+02  6.23019E+02  6.54843E+02  3.03023E+01  1.54599E+03  3.62317E+02  1.29937E+03
 -7.90321E+01  1.04492E+03 -5.63838E+02  2.82989E+02 -5.55848E+01  4.28166E+02 -8.80997E+02  5.61250E+02
 -6.31967E+02  1.18255E+03 -1.73012E+03  5.96257E+02 -1.71133E+03 -2.20439E+01 -2.67742E+03 -9.51705E+02
 -1.35372E+03 -2.68904E+03  8.18611E+02 -2.93815E+03  1.21284E+03 -2.65301E+03  3.01294E+03 -1.13455E+03
  2.48171E+03  5.60243E+01  1.52723E+03  1.83466E+03 -6.19229E+02  1.52568E+03 -8.33076E+02  1.18907E+03
 -1.00495E+03  1.13121E+03 -9.08592E+02 -1.49171E+02 -4.10275E+02  2.82643E+02 -3.78524E+02 -1.49281E+02
 -1.09350E+03  4.38597E+02 -8.17313E+02 -1.18468E+01  2.04237E+02 -7.64572E+02 -4.05436E+02 -1.09006E+03
  1.49876E+03 -6.87762E+02  5.76270E+02  2.48601E+02  1.34568E+03  9.63965E+02 -3.82709E+02  1.57616E+03
 -8.70367E+02  2.73988E+03 -1.68422E+03  1.41498E+03 -2.02355E+03 -2.55575E+02 -1.32708E+03 -1.69309E+03
 -9.44289E+02 -1.44623E+03  2.51587E+02 -1.30930E+03  8.49977E+02 -5.69369E+02  9.21720E+02  1.97961E+02
  6.63725E+02  3.95485E+02  8.19111E+01  5.49657E+02 -3.71731E+02  2.65775E+02 -2.34326E+02 -1.21076E+02
  7.23782E+02  9.72022E+01  1.36783E+02  1.68174E+02  1.14600E+02  9.62288E+02  3.13894E+02  4.29395E+02
 -7.71510E+02  1.02433E+03 -7.71956E+02  8.23387E+01 -1.11171E+03 -6.62337E+02 -1.79981E+02 -1.31710E+03
  4.41145E+02 -8.07131E+02  6.96140E+02  2.26826E+00  1.37274E+03 -3.47278E+02  6.70661E+02  7.81210E+02
  6.89064E+02  7.61899E+02 -2.06264E+01  8.33814E+02 -4.18619E+02  7.30047E+02 -6.44859E+02  1.62080E+02
  1.30725E+02 -9.26601E+01 -4.70053E+02  1.70449E+02 -6.30443E+02 -6.70277E+01 -9.10474E+02 -2.03581E+02
 -9.34117E+02  1.22678E+02 -3.88436E+02 -7.63967E+02  6.78994E+02 -1.92558E+03  9.62985E+02 -2.63415E+02
  7.35129E+02 -4.50649E+01 -3.25735E+02  5.35629E+02 -1.36078E+02  8.81460E+02 -5.70215E+02  7.71815E+02
