 $NMID ID='MM_0lb_SNR800_8hz_g40_31.RAW', FMTDAT='(8E13.5)'
 TRAMP=1., VOLUME=1. $END
  3.09446E+05  3.70798E+02  3.37847E+05  2.50706E+05  8.50321E+04  3.38255E+05 -1.32929E+05  2.51812E+05
 -1.90363E+05  8.38183E+04 -1.12663E+05 -3.24781E+04  2.10153E+02 -5.05179E+04  5.38872E+04 -5.45211E+02
  3.58744E+04  5.28388E+04 -1.66004E+04  7.58811E+04 -6.13573E+04  6.40683E+04 -8.53075E+04  3.22513E+04
 -8.25066E+04 -1.19556E+04 -5.78528E+04 -5.25640E+04 -1.51807E+04 -7.10311E+04  2.77411E+04 -4.66236E+04
  4.10179E+04  3.73716E+03  1.65625E+04  4.81655E+04 -3.50068E+04  4.79759E+04 -6.84638E+04  5.83257E+02
 -5.44931E+04 -5.77778E+04 -7.35559E+03 -7.86692E+04  3.48436E+04 -5.68358E+04  4.92084E+04 -1.81093E+04
  4.51498E+04  1.14367E+04  3.30280E+04  2.66764E+04  1.55807E+04  3.06311E+04 -6.04788E+03  2.85726E+04
 -2.25826E+04  1.16425E+04 -1.81121E+04 -5.44456E+03  7.22163E+03 -7.52008E+03  2.34759E+04  1.38467E+04
  7.41931E+03  3.78251E+04 -3.36475E+04  3.71536E+04 -6.60747E+04  2.08162E+03 -5.88235E+04 -4.42101E+04
 -1.29672E+04 -6.62042E+04  4.14499E+04 -4.72322E+04  6.14584E+04 -2.65282E+03  3.67808E+04  3.41780E+04
 -5.66721E+03  3.96556E+04 -3.19375E+04  1.86649E+04 -3.31327E+04 -3.31777E+03 -1.91976E+04 -1.24039E+04
 -9.15705E+03 -1.51426E+04 -7.91356E+02 -1.96265E+04  8.47665E+03 -2.35195E+04  1.56345E+04 -1.24824E+04
  1.06687E+04  6.52451E+03 -1.07252E+04  1.30993E+04 -2.34777E+04 -6.35333E+03 -8.85566E+03 -3.74541E+04
  2.51965E+04 -4.69346E+04  5.19558E+04 -2.09964E+04  4.90069E+04  2.08875E+04  1.79737E+04  4.70434E+04
 -1.65276E+04  3.61113E+04 -2.76977E+04  2.72104E+03 -1.22777E+04 -2.99001E+04  2.15677E+04 -3.71610E+04
  4.47842E+04 -1.13560E+04  4.04588E+04  2.55003E+04  2.13708E+04  5.08606E+04 -8.26126E+03  5.64754E+04
 -3.54837E+04  3.88803E+04 -4.80994E+04  1.14544E+04 -4.77601E+04 -1.86278E+04 -2.61621E+04 -4.22669E+04
  8.27210E+03 -4.25383E+04  3.44078E+04 -1.72333E+04  3.19784E+04  1.10518E+04  5.24369E+03  2.10157E+04
 -1.43595E+04  9.84619E+03 -1.09729E+04 -7.11926E+03  5.60298E+03 -1.12729E+04  1.87260E+04  5.63627E+03
  1.49639E+04  2.25995E+04 -5.25071E+03  2.69403E+04 -2.35243E+04  1.44638E+04 -3.14828E+04 -2.82115E+03
 -2.57759E+04 -1.84386E+04 -1.16220E+04 -2.50406E+04  4.26410E+03 -2.55938E+04  2.06038E+04 -2.28720E+04
  3.24826E+04 -1.43724E+04  3.80508E+04  4.96624E+03  2.69986E+04  2.43454E+04  4.39054E+03  4.11861E+04
 -1.99869E+04  3.38804E+04 -3.07049E+04  1.15191E+04 -2.21615E+04 -1.03645E+04 -4.90279E+03 -1.31494E+04
  5.76795E+02 -1.38586E+03 -7.49457E+03  7.93785E+03 -2.06944E+04  5.12118E+03 -2.01822E+04 -9.79309E+03
 -1.19341E+04 -2.34771E+04  6.03200E+03 -2.79072E+04  1.89552E+04 -1.97206E+04  2.29554E+04 -2.11185E+03
  1.47527E+04  1.62435E+04 -9.68502E+02  2.34381E+04 -1.64945E+04  1.33514E+04 -2.38908E+04 -4.74076E+03
 -1.73223E+04 -2.05349E+04 -2.30202E+03 -2.82629E+04  1.29529E+04 -2.35508E+04  2.34474E+04 -1.23284E+04
  2.20494E+04 -4.77816E+02  1.60517E+04  5.32588E+03  9.21277E+03  1.26503E+03  1.21524E+04 -1.63203E+03
  2.25293E+04  2.74858E+03  2.54992E+04  1.80145E+04  1.72838E+04  3.76523E+04 -2.68242E+03  4.47920E+04
 -2.56439E+04  3.74805E+04 -4.28295E+04  1.92660E+04 -4.51999E+04 -3.44066E+03 -3.68378E+04 -2.64412E+04
 -1.44269E+04 -3.73284E+04  1.32704E+04 -3.33924E+04  2.82633E+04 -1.52620E+04  2.44189E+04  8.08419E+03
  8.12625E+03  1.90988E+04 -1.14279E+04  1.56606E+04 -2.07422E+04  2.62386E+03 -1.52846E+04 -1.33818E+04
  1.36308E+02 -1.97539E+04  1.05729E+04 -1.43329E+04  1.34004E+04 -1.42081E+03  3.50845E+03  8.94346E+03
 -8.54329E+03  4.43473E+03 -9.33484E+03 -6.93584E+03 -1.95502E+03 -1.81549E+04  1.23371E+04 -1.98938E+04
  2.35646E+04 -1.16613E+04  2.69246E+04  3.23605E+03  2.34901E+04  1.86742E+04  1.10948E+04  3.00917E+04
 -5.63191E+03  3.16778E+04 -2.09566E+04  1.99354E+04 -2.28880E+04  4.43013E+03 -1.55554E+04 -5.94261E+03
 -6.50507E+03 -7.32687E+03 -5.39206E+02  3.67456E+02 -3.19813E+03  3.17898E+03 -7.42929E+03  5.44680E+03
 -1.44733E+04 -7.26823E+02 -1.52014E+04 -1.18374E+04 -6.31894E+03 -1.93971E+04  6.36194E+03 -1.62080E+04
  1.32356E+04 -6.78655E+03  9.47450E+03  4.31306E+03 -5.91730E+02  6.36333E+03 -8.24213E+03  4.08926E+02
 -7.57524E+03 -1.04364E+04 -1.19437E+03 -1.59869E+04  9.65303E+03 -1.68808E+04  2.00603E+04 -8.83069E+03
  2.37317E+04  2.23373E+03  1.76656E+04  1.42054E+04  3.83575E+03  1.94866E+04 -9.64836E+03  1.60055E+04
 -1.27002E+04  4.83969E+03 -6.56410E+03 -3.25940E+03  2.55373E+03 -5.00902E+03  8.34540E+03 -1.57336E+03
  7.70209E+03  7.15188E+03  1.08169E+03  1.27144E+04 -9.11447E+03  1.21024E+04 -1.60282E+04  2.97297E+03
 -1.11722E+04 -8.42091E+03  5.70500E+01 -1.42473E+04  8.60290E+03 -7.18637E+03  9.89832E+03  3.15282E+03
  2.41078E+03  1.03764E+04 -8.65904E+03  1.23377E+04 -1.43046E+04  5.43773E+03 -1.48756E+04 -5.51469E+03
 -8.15792E+03 -1.63123E+04  4.05473E+03 -1.88226E+04  1.59311E+04 -1.13306E+04  1.75836E+04  3.15662E+03
  1.04703E+04  1.38656E+04 -1.39919E+03  1.65421E+04 -1.20000E+04  9.02323E+03 -1.36601E+04 -1.21925E+03
 -1.10447E+04 -1.07639E+04 -1.49217E+03 -1.24087E+04  6.90389E+03 -9.76137E+03  8.49000E+03 -3.77720E+03
  4.79458E+03  2.25770E+03 -1.23697E+03  2.08494E+03 -5.00244E+02 -3.69617E+03  3.04944E+03 -7.84358E+03
  1.18900E+04 -4.77792E+03  1.66668E+04  1.72666E+03  1.56930E+04  1.15898E+04  1.02510E+04  2.19066E+04
 -5.12753E+03  2.48968E+04 -2.07448E+04  1.84866E+04 -2.65384E+04  3.38492E+03 -2.16742E+04 -9.37345E+03
 -1.06602E+04 -1.78421E+04 -2.45937E+02 -1.57852E+04  5.64835E+03 -8.48211E+03  5.67138E+03 -5.28761E+03
  4.16302E+03 -3.44447E+03  4.24708E+03 -4.23062E+03  5.90662E+03 -3.77883E+03  8.60718E+03 -1.90117E+03
  1.14597E+04  2.97865E+03  6.42486E+03  9.64604E+03 -2.34653E+03  1.23798E+04 -1.17440E+04  8.98414E+03
 -1.54259E+04 -1.44105E+03 -1.00341E+04 -1.04763E+04 -1.48577E+03 -1.65015E+04  8.95408E+03 -1.64936E+04
  1.76704E+04 -9.06649E+03  2.05391E+04  2.94963E+03  1.42896E+04  1.47718E+04  1.96240E+03  1.83119E+04
 -8.17524E+03  1.49558E+04 -1.08253E+04  5.44180E+03 -7.88518E+03 -2.26296E+03 -3.26192E+03 -2.20399E+03
 -1.41077E+03 -2.63036E+02 -2.44735E+03  3.47352E+03 -6.08487E+03  2.66020E+03 -1.11750E+04 -1.48625E+03
 -7.85585E+03 -1.04434E+04 -1.07355E+02 -1.56938E+04  9.68965E+03 -1.44708E+04  1.55145E+04 -4.80976E+03
  1.51009E+04  7.38315E+03  6.87273E+03  1.37984E+04 -3.19398E+03  1.59239E+04 -1.13204E+04  9.45783E+03
 -1.49250E+04  7.22880E+02 -1.13943E+04 -9.65356E+03 -1.48107E+03 -1.35652E+04  7.19182E+03 -9.78332E+03
  1.00027E+04 -3.00792E+03  6.94230E+03  2.69700E+03  2.39825E+03  5.01184E+03  1.32965E+03  2.03120E+03
  3.35539E+03  1.24227E+03  4.11872E+03  2.07068E+03  4.45032E+03  5.23238E+03  4.30122E+03  8.46533E+03
 -3.27037E+03  1.23414E+04 -1.06225E+04  1.25442E+04 -1.63291E+04  3.26958E+03 -1.69238E+04 -6.93318E+03
 -8.28915E+03 -1.61856E+04  2.57713E+03 -1.78088E+04  9.83101E+03 -1.10929E+04  1.31918E+04 -2.79606E+03
  1.05661E+04  6.06950E+03  2.15439E+03  9.15079E+03 -4.20512E+03  5.81001E+03 -6.62653E+03 -8.91346E+02
 -3.15357E+03 -6.68433E+03  3.97340E+03 -7.25039E+03  6.30530E+03 -3.56394E+03  5.91419E+03  1.63961E+03
  3.87810E+03  3.34656E+03  1.49968E+03  2.69388E+03 -8.28203E+02  2.08484E+03  1.43841E+03 -4.43172E+02
  2.61851E+03 -1.19236E+03  6.54257E+03  2.57514E+03  3.98477E+03  8.78614E+03 -1.43412E+03  1.12896E+04
 -7.88571E+03  7.70983E+03 -1.07116E+04  2.19602E+03 -8.96180E+03 -3.65846E+03 -3.63991E+03 -6.67916E+03
  5.93194E+02 -6.65738E+03  3.90017E+03 -2.69480E+03  3.26461E+03  3.24417E+03 -1.33659E+03  5.58492E+03
 -6.96866E+03  3.37930E+03 -7.82253E+03 -4.21407E+03 -4.42917E+03 -9.06221E+03  1.27157E+03 -9.38739E+03
  5.59195E+03 -5.26480E+03  6.70719E+03 -8.56168E+02  5.46603E+03  2.08507E+03  3.92077E+02  5.06736E+03
 -3.55378E+03  1.46543E+03 -3.95935E+03 -3.14402E+03  1.45861E+03 -7.56237E+03  8.51564E+03 -6.11263E+03
  1.05035E+04  5.56591E+02  1.03071E+04  6.83418E+03  3.14487E+03  1.11710E+04 -4.08332E+03  1.06625E+04
 -8.79647E+03  4.51280E+03 -9.55684E+03 -1.89060E+03 -5.39039E+03 -7.09780E+03  1.69605E+03 -7.18520E+03
  6.15156E+03 -3.32454E+03  5.81611E+03  2.84754E+03  1.94832E+03  6.28908E+03 -6.84314E+02  5.30336E+03
 -2.78471E+03  3.61927E+03 -2.64238E+03  1.13274E+03 -1.87092E+03  1.60008E+03 -2.00288E+03  2.02307E+03
 -2.70979E+03  4.10480E+03 -7.94515E+03  3.78755E+03 -1.08371E+04  2.73811E+02 -1.26371E+04 -7.27316E+03
 -6.64669E+03 -1.48730E+04  3.12826E+03 -1.70136E+04  1.08760E+04 -1.32065E+04  1.61209E+04 -5.22053E+03
  1.50775E+04  3.13853E+03  9.30630E+03  1.01503E+04  1.05006E+03  1.17508E+04 -4.44711E+03  8.44092E+03
 -6.54769E+03  3.11280E+03 -4.30968E+03 -1.24157E+03 -1.19025E+03 -1.01527E+03 -4.64855E+02  5.29608E+02
 -1.75536E+03  1.75829E+02 -2.60732E+03 -4.15244E+02 -1.00107E+03 -2.96487E+03  3.69794E+02 -4.43840E+03
  4.96618E+03 -4.06223E+03  7.02169E+03 -2.71572E+02  8.15252E+03  6.08984E+03  2.20959E+03  1.19375E+04
 -6.07342E+03  1.30908E+04 -1.21657E+04  7.90353E+03 -1.42106E+04 -1.27265E+03 -1.06040E+04 -8.59296E+03
 -4.55185E+03 -1.22315E+04  3.10116E+03 -1.13264E+04  7.71347E+03 -5.64881E+03  7.88603E+03  2.37918E+01
  4.29261E+03  3.85783E+03 -2.42343E+02  3.49408E+03 -2.37475E+03  3.08427E+01  2.00817E+02 -2.49105E+03
  3.49108E+03 -1.64090E+03  4.59301E+03  9.34374E+02  3.74478E+03  5.01840E+03  2.97038E+02  5.93326E+03
 -5.30389E+03  5.62187E+03 -7.45037E+03  6.99568E+02 -7.19939E+03 -5.71950E+03 -1.27703E+03 -9.90743E+03
  5.99879E+03 -8.33203E+03  9.27081E+03 -2.40100E+03  9.36930E+03  1.83771E+03  4.99950E+03  7.55442E+03
  1.19771E+03  8.05547E+03 -2.72328E+03  6.31173E+03 -5.19215E+03  3.22970E+03 -3.79374E+03  7.49342E+02
 -2.87984E+03 -1.23851E+02 -2.22724E+03  1.20692E+03 -4.17141E+03  1.56579E+03 -5.88794E+03 -1.02715E+03
 -5.95919E+03 -4.63366E+03 -1.45505E+03 -8.12825E+03  3.78516E+03 -8.55477E+03  7.30506E+03 -3.89044E+03
  8.10680E+03  1.21689E+03  4.42927E+03  5.58092E+03 -1.04719E+03  7.93278E+03 -6.16733E+03  5.43491E+03
