 $NMID ID='MM_0lb_SNR800_14hz_g40_45.RAW', FMTDAT='(8E13.5)'
 TRAMP=1., VOLUME=1. $END
  3.09968E+05  2.26525E+02  3.37278E+05  2.50488E+05  8.45666E+04  3.37946E+05 -1.32178E+05  2.51070E+05
 -1.90167E+05  8.29326E+04 -1.11315E+05 -3.26940E+04  1.04514E+03 -5.03506E+04  5.40275E+04 -2.39311E+00
  3.53750E+04  5.29744E+04 -1.70138E+04  7.54165E+04 -6.09487E+04  6.36492E+04 -8.37852E+04  3.17982E+04
 -8.02700E+04 -1.10948E+04 -5.69617E+04 -5.08086E+04 -1.47657E+04 -6.92722E+04  2.70427E+04 -4.53281E+04
  3.96594E+04  4.17020E+03  1.60770E+04  4.76629E+04 -3.39505E+04  4.68039E+04 -6.65482E+04 -5.51369E+02
 -5.25895E+04 -5.68448E+04 -6.49148E+03 -7.67042E+04  3.35925E+04 -5.45516E+04  4.73209E+04 -1.68286E+04
  4.27223E+04  1.13082E+04  3.16182E+04  2.54080E+04  1.57334E+04  2.90368E+04 -5.02574E+03  2.71268E+04
 -2.18140E+04  1.27047E+04 -1.89592E+04 -4.59524E+03  5.27014E+03 -6.99247E+03  2.20215E+04  1.18425E+04
  7.43649E+03  3.43321E+04 -3.16636E+04  3.53081E+04 -6.26660E+04  2.17975E+03 -5.67465E+04 -4.25710E+04
 -1.23815E+04 -6.25410E+04  3.93704E+04 -4.47252E+04  5.76112E+04 -2.14828E+03  3.31950E+04  3.17656E+04
 -6.19508E+03  3.53036E+04 -2.94593E+04  1.51943E+04 -2.95640E+04 -4.55612E+03 -1.60310E+04 -1.06980E+04
 -7.93554E+03 -1.27339E+04 -9.37247E+02 -1.72939E+04  7.49965E+03 -2.31366E+04  1.54640E+04 -1.34283E+04
  1.14484E+04  4.88430E+03 -7.75454E+03  1.28838E+04 -2.06887E+04 -3.99531E+03 -8.37555E+03 -3.30035E+04
  2.21768E+04 -4.26238E+04  4.74544E+04 -1.93994E+04  4.42167E+04  1.92933E+04  1.55509E+04  4.34174E+04
 -1.59096E+04  3.27651E+04 -2.45481E+04  1.71147E+03 -9.35705E+03 -2.75101E+04  2.08659E+04 -3.31969E+04
  4.04549E+04 -8.71117E+03  3.46038E+04  2.33696E+04  1.71947E+04  4.54755E+04 -8.05156E+03  4.91350E+04
 -3.06790E+04  3.26780E+04 -4.10940E+04  9.49341E+03 -4.15504E+04 -1.64486E+04 -2.30745E+04 -3.70935E+04
  7.24956E+03 -3.71110E+04  3.11577E+04 -1.43088E+04  2.84273E+04  1.06804E+04  3.99978E+03  1.87240E+04
 -1.33196E+04  8.16550E+03 -1.03247E+04 -7.69620E+03  5.77514E+03 -1.05969E+04  1.77376E+04  6.13280E+03
  1.32299E+04  2.20099E+04 -6.69928E+03  2.44553E+04 -2.22789E+04  1.12387E+04 -2.74197E+04 -5.12484E+03
 -1.95530E+04 -1.72046E+04 -8.06483E+03 -1.96753E+04  3.72393E+03 -1.84748E+04  1.51250E+04 -1.73564E+04
  2.52094E+04 -1.28625E+04  3.12192E+04  2.19704E+03  2.31431E+04  1.92958E+04  4.23329E+03  3.56373E+04
 -1.74854E+04  2.97152E+04 -2.74862E+04  1.00482E+04 -2.07486E+04 -1.03634E+04 -4.22639E+03 -1.36191E+04
  2.01091E+03 -3.02709E+03 -4.23479E+03  6.43385E+03 -1.56891E+04  5.02498E+03 -1.57095E+04 -6.62820E+03
 -9.75449E+03 -1.81060E+04  5.04534E+03 -2.19752E+04  1.45518E+04 -1.60699E+04  1.73081E+04 -1.59099E+03
  1.11078E+04  1.29353E+04 -1.14171E+03  1.82808E+04 -1.24236E+04  1.03837E+04 -1.83804E+04 -3.81339E+03
 -1.34626E+04 -1.62762E+04 -1.43338E+03 -2.22996E+04  1.00901E+04 -1.81732E+04  1.84280E+04 -8.74621E+03
  1.70098E+04  2.91091E+02  1.24228E+04  4.20390E+03  6.42532E+03  6.46158E+02  8.89972E+03 -1.35509E+03
  1.62476E+04  2.82209E+03  1.85002E+04  1.45547E+04  1.19398E+04  2.93815E+04 -3.10255E+03  3.24559E+04
 -1.90451E+04  2.60703E+04 -3.05021E+04  1.30322E+04 -3.15330E+04 -2.45323E+03 -2.62571E+04 -1.83320E+04
 -1.16672E+04 -2.60500E+04  8.94912E+03 -2.36080E+04  2.04161E+04 -1.23707E+04  1.85870E+04  5.06241E+03
  7.08679E+03  1.37853E+04 -8.43960E+03  1.21109E+04 -1.54768E+04  2.34747E+03 -1.21245E+04 -9.69515E+03
 -3.30729E+02 -1.45811E+04  7.39576E+03 -1.08032E+04  9.68878E+03 -1.48991E+03  2.19240E+03  6.20787E+03
 -6.46044E+03  2.06474E+03 -5.64211E+03 -5.15299E+03 -3.83504E+02 -1.27222E+04  9.51463E+03 -1.31752E+04
  1.56962E+04 -7.19890E+03  1.71012E+04  3.01481E+03  1.47816E+04  1.24998E+04  6.93383E+03  1.89056E+04
 -3.08757E+03  2.11026E+04 -1.31951E+04  1.30208E+04 -1.48921E+04  3.45793E+03 -1.06492E+04 -2.94805E+03
 -5.00312E+03 -4.50628E+03 -6.45849E+02  9.49915E+02 -2.17620E+03  2.27564E+03 -4.67178E+03  3.92233E+03
 -9.92604E+03 -7.88793E+02 -1.08585E+04 -8.78623E+03 -4.37005E+03 -1.41863E+04  4.74172E+03 -1.06823E+04
  9.05406E+03 -4.92740E+03  6.67016E+03  2.67210E+03  4.40429E+02  3.97552E+03 -5.25072E+03 -5.53183E+01
 -4.95599E+03 -6.96112E+03 -8.76102E+02 -9.95275E+03  5.82353E+03 -1.07104E+04  1.34191E+04 -5.89559E+03
  1.56456E+04  1.15994E+03  1.14539E+04  8.87846E+03  2.19586E+03  1.20415E+04 -6.69962E+03  1.05916E+04
 -8.58189E+03  3.09286E+03 -4.26960E+03 -1.94275E+03  1.59020E+03 -2.97822E+03  5.99566E+03 -1.62741E+03
  5.09280E+03  4.67523E+03  1.37389E+03  8.31049E+03 -5.93871E+03  8.36666E+03 -1.03799E+04  2.10503E+03
 -6.58745E+03 -5.02604E+03  5.58298E+02 -8.71297E+03  5.28656E+03 -4.24801E+03  5.42304E+03  1.72895E+03
  8.31971E+02  5.27876E+03 -5.31251E+03  6.81961E+03 -7.70553E+03  3.03484E+03 -7.71626E+03 -2.56814E+03
 -4.70707E+03 -9.23196E+03  2.00370E+03 -1.04471E+04  9.20426E+03 -6.88290E+03  9.79849E+03  1.58266E+03
  6.11661E+03  7.97055E+03 -4.16800E+02  1.00273E+04 -7.31946E+03  5.56941E+03 -7.57564E+03 -8.70453E+02
 -7.37846E+03 -7.04716E+03 -1.54005E+03 -7.44039E+03  3.68768E+03 -6.06082E+03  4.27929E+03 -3.13454E+03
  3.41308E+03  6.96496E+02 -4.07545E+02  1.48552E+03  1.37646E+02 -1.36601E+03  7.66296E+02 -3.70834E+03
  6.31783E+03 -2.19472E+03  8.81158E+03  1.13542E+03  9.05127E+03  5.73587E+03  6.90181E+03  1.12072E+04
 -2.36464E+03  1.33343E+04 -1.18976E+04  1.00674E+04 -1.49785E+04  1.79881E+03 -1.19006E+04 -4.60790E+03
 -6.00071E+03 -9.94982E+03 -5.23170E+02 -8.30396E+03  2.92647E+03 -4.38954E+03  2.99126E+03 -3.19293E+03
  1.98688E+03 -2.13183E+03  2.46948E+03 -2.86147E+03  4.13473E+03 -2.03328E+03  4.93279E+03 -1.61502E+02
  6.30397E+03  1.59152E+03  2.50487E+03  5.40157E+03 -1.88848E+03  5.60615E+03 -6.87869E+03  4.23842E+03
 -8.26213E+03 -1.09365E+03 -4.36864E+03 -5.49270E+03 -1.25715E+02 -8.18800E+03  4.96972E+03 -8.82493E+03
  8.85238E+03 -4.91197E+03  1.08199E+04  1.18442E+03  7.74444E+03  7.53233E+03  1.22562E+03  9.70621E+03
 -3.56381E+03  8.53042E+03 -5.35720E+03  2.76103E+03 -3.80945E+03 -1.41361E+03 -1.28415E+03 -1.18167E+03
 -4.66309E+02  1.70892E+02 -1.36114E+03  2.24443E+03 -3.62594E+03  1.59482E+03 -5.81247E+03 -8.89755E+02
 -3.29921E+03 -5.69225E+03  5.02554E+02 -7.69889E+03  4.68046E+03 -7.32658E+03  7.07606E+03 -2.25320E+03
  7.24801E+03  3.79408E+03  3.38654E+03  6.52011E+03 -1.39688E+03  7.64923E+03 -5.08162E+03  5.33885E+03
 -6.82300E+03  6.61478E+02 -5.83537E+03 -4.40794E+03 -5.30148E+02 -6.07044E+03  3.36835E+03 -4.56498E+03
  4.71037E+03 -1.55446E+03  3.36552E+03  1.04228E+03  1.16158E+03  2.53386E+03  8.16047E+02  7.74843E+02
  2.09128E+03  9.29995E+02  2.01485E+03  1.09642E+03  1.93065E+03  2.98981E+03  2.34111E+03  3.95368E+03
 -1.36192E+03  5.40846E+03 -5.04606E+03  6.33976E+03 -7.16192E+03  1.70573E+03 -7.53023E+03 -2.27071E+03
 -3.51767E+03 -7.00530E+03  1.19475E+03 -8.05158E+03  4.17795E+03 -4.88036E+03  5.97357E+03 -1.67912E+03
  4.51074E+03  2.92778E+03  9.39165E+02  4.11005E+03 -1.66131E+03  2.52794E+03 -2.60490E+03  8.58682E+01
 -1.24145E+03 -2.78562E+03  2.13875E+03 -2.97935E+03  2.72895E+03 -1.42293E+03  2.68242E+03  3.74181E+02
  1.70558E+03  1.20983E+03  1.26517E+03  7.40233E+02 -4.77343E+02  1.16300E+03  1.84083E+03 -1.85821E+02
  8.06607E+02 -3.86469E+02  2.76938E+03  1.33339E+03  1.37590E+03  3.92776E+03 -6.46726E+02  5.14717E+03
 -3.22184E+03  3.06411E+03 -4.48861E+03  7.93318E+02 -4.15751E+03 -1.40439E+03 -1.05712E+03 -2.18994E+03
  5.91130E+02 -2.62143E+03  1.79234E+03 -1.08703E+03  1.49258E+03  1.59591E+03 -1.09775E+03  2.39669E+03
 -3.01091E+03  1.50253E+03 -2.99060E+03 -2.06707E+03 -1.70565E+03 -3.69960E+03  4.98542E+02 -3.61605E+03
  1.71414E+03 -1.73412E+03  2.21735E+03 -2.30847E+02  2.36501E+03  5.45327E+02  5.36542E+02  1.94181E+03
 -7.97445E+02  3.29931E+02 -1.83822E+03 -9.50104E+02  8.48525E+02 -2.45479E+03  3.41851E+03 -1.90397E+03
  3.77446E+03  5.20926E+02  4.73611E+03  2.13464E+03  1.68134E+03  4.07356E+03 -1.24690E+03  3.96528E+03
 -3.22674E+03  1.45678E+03 -3.52144E+03 -3.25056E+02 -1.59454E+03 -2.52397E+03  3.51703E+02 -1.99647E+03
  2.84777E+03 -1.14246E+03  1.73717E+03  1.26748E+03  7.64192E+02  2.67078E+03 -2.43817E+02  1.93286E+03
 -1.27725E+03  1.70991E+03 -9.81583E+02  1.53632E+02 -4.22155E+02  7.32702E+02 -1.15955E+03  1.08114E+03
 -7.93103E+02  1.82915E+03 -3.03175E+03  1.16459E+03 -4.07582E+03 -2.63108E+01 -4.88583E+03 -2.57889E+03
 -2.48137E+03 -5.51169E+03  9.05611E+02 -6.16469E+03  3.29373E+03 -5.04889E+03  5.66387E+03 -2.00137E+03
  5.41696E+03  5.75749E+02  2.78808E+03  3.71550E+03  2.00364E+02  3.91084E+03 -1.24010E+03  3.15655E+03
 -2.50961E+03  1.27238E+03 -1.30121E+03 -5.86016E+02 -9.37985E+02 -9.26730E+01 -8.58160E+02  3.88919E+02
 -1.41388E+03 -1.04425E+02 -1.24603E+03 -2.11504E+02 -1.66633E+02 -9.77122E+02 -2.08334E+02 -1.63157E+03
  2.07903E+03 -1.57686E+03  2.05868E+03  4.82321E+01  2.70781E+03  2.24285E+03  4.17065E+02  3.91934E+03
 -1.96464E+03  4.59488E+03 -3.99979E+03  2.81978E+03 -4.60165E+03 -7.57697E+02 -3.44989E+03 -3.01985E+03
 -1.62000E+03 -3.43601E+03  8.37929E+02 -3.36402E+03  2.39027E+03 -1.90277E+03  2.34307E+03  3.18285E+02
  1.67397E+03  1.05955E+03  1.06313E+02  9.38723E+02 -8.01766E+02 -1.73943E+02 -2.55628E+02 -4.82645E+02
  1.10928E+03 -3.34742E+02  1.15535E+03  5.90230E+02  6.04918E+02  1.35206E+03  7.11825E+02  1.58716E+03
 -1.75735E+03  1.77332E+03 -2.21008E+03  4.67753E+01 -2.20965E+03 -1.57204E+03 -1.47747E+02 -3.21410E+03
  1.76146E+03 -2.49599E+03  2.58723E+03 -5.48757E+02  2.26310E+03  3.93822E+02  1.44419E+03  1.98398E+03
  7.01750E+02  2.04081E+03 -6.35006E+02  1.77739E+03 -1.46565E+03  1.23277E+03 -1.54922E+03  3.43139E+02
 -2.69872E+02 -2.63135E+02 -5.42812E+02  7.29276E+02 -1.43281E+03  3.44478E+02 -1.80274E+03 -3.63421E+02
 -2.12095E+03 -7.06585E+02 -7.28930E+02 -2.19151E+03  1.32019E+03 -3.03811E+03  1.94146E+03 -9.52083E+02
  2.16666E+03  2.57001E+02  5.14603E+02  1.42977E+03 -2.01412E+02  2.45070E+03 -1.63461E+03  1.58412E+03
