 $NMID ID='MM_0lb_SNR800_10hz_g55_90.RAW', FMTDAT='(8E13.5)'
 TRAMP=1., VOLUME=1. $END
  3.10031E+05  4.65708E+02  3.37885E+05  2.50637E+05  8.50241E+04  3.38239E+05 -1.32621E+05  2.51876E+05
 -1.90782E+05  8.40172E+04 -1.12374E+05 -3.22337E+04  2.46066E+02 -5.08050E+04  5.39371E+04 -6.84746E+02
  3.50890E+04  5.31369E+04 -1.70240E+04  7.57168E+04 -6.15341E+04  6.40439E+04 -8.50609E+04  3.25300E+04
 -8.22186E+04 -1.17786E+04 -5.79005E+04 -5.23422E+04 -1.50834E+04 -7.07051E+04  2.78953E+04 -4.67784E+04
  4.09695E+04  3.61496E+03  1.63037E+04  4.81462E+04 -3.46364E+04  4.80349E+04 -6.80928E+04  2.18400E+02
 -5.46378E+04 -5.78670E+04 -7.35755E+03 -7.86234E+04  3.45726E+04 -5.65429E+04  4.94085E+04 -1.84679E+04
  4.49436E+04  1.15460E+04  3.28815E+04  2.65583E+04  1.59221E+04  3.06323E+04 -5.82725E+03  2.73522E+04
 -2.27521E+04  1.21623E+04 -1.80743E+04 -5.11269E+03  7.03595E+03 -7.07090E+03  2.34466E+04  1.33438E+04
  6.99715E+03  3.71780E+04 -3.36076E+04  3.68079E+04 -6.55276E+04  2.04521E+03 -5.84820E+04 -4.43792E+04
 -1.28154E+04 -6.54854E+04  4.16284E+04 -4.70205E+04  6.10963E+04 -2.54642E+03  3.64111E+04  3.45047E+04
 -5.36406E+03  3.92351E+04 -3.16574E+04  1.85818E+04 -3.32669E+04 -3.31205E+03 -1.91277E+04 -1.16507E+04
 -9.27165E+03 -1.51579E+04 -6.93997E+02 -1.94971E+04  8.70615E+03 -2.35465E+04  1.57707E+04 -1.30711E+04
  1.04670E+04  6.07641E+03 -1.04663E+04  1.28406E+04 -2.35375E+04 -6.53728E+03 -8.46374E+03 -3.72074E+04
  2.51543E+04 -4.69101E+04  5.19471E+04 -2.09013E+04  4.82860E+04  2.09083E+04  1.71757E+04  4.67639E+04
 -1.66223E+04  3.57939E+04 -2.77308E+04  2.69515E+03 -1.18539E+04 -2.93601E+04  2.14777E+04 -3.67815E+04
  4.43522E+04 -1.10423E+04  4.03102E+04  2.46483E+04  2.08479E+04  5.07009E+04 -8.48043E+03  5.54388E+04
 -3.50432E+04  3.78840E+04 -4.70925E+04  1.11122E+04 -4.71218E+04 -1.83161E+04 -2.59831E+04 -4.16997E+04
  7.91115E+03 -4.16523E+04  3.40419E+04 -1.69625E+04  3.18572E+04  1.08549E+04  5.25818E+03  2.07951E+04
 -1.38663E+04  9.12587E+03 -1.13400E+04 -7.61023E+03  5.33265E+03 -1.10689E+04  1.88486E+04  5.66682E+03
  1.47053E+04  2.29356E+04 -5.12742E+03  2.67438E+04 -2.36226E+04  1.43467E+04 -3.15585E+04 -3.58360E+03
 -2.53389E+04 -1.84178E+04 -1.11869E+04 -2.46866E+04  4.27056E+03 -2.51756E+04  1.94695E+04 -2.23297E+04
  3.14364E+04 -1.42100E+04  3.73988E+04  4.44517E+03  2.64232E+04  2.43815E+04  4.44139E+03  4.04093E+04
 -2.01333E+04  3.37698E+04 -3.07881E+04  1.16113E+04 -2.20669E+04 -1.03301E+04 -4.63174E+03 -1.29679E+04
  9.34260E+02 -1.36866E+03 -7.25171E+03  7.81486E+03 -1.98899E+04  4.80967E+03 -1.97258E+04 -9.27898E+03
 -1.19726E+04 -2.29462E+04  6.06026E+03 -2.73061E+04  1.85547E+04 -1.93873E+04  2.28370E+04 -1.99062E+03
  1.40801E+04  1.61570E+04 -1.25085E+03  2.29898E+04 -1.64214E+04  1.33537E+04 -2.31776E+04 -5.17287E+03
 -1.68057E+04 -2.07149E+04 -2.20246E+03 -2.72909E+04  1.23506E+04 -2.29278E+04  2.24462E+04 -1.18513E+04
  2.13523E+04  5.82772E+01  1.55869E+04  5.27859E+03  8.79472E+03  8.89700E+02  1.18215E+04 -1.88216E+03
  2.11746E+04  2.86680E+03  2.49666E+04  1.77942E+04  1.66633E+04  3.68065E+04 -2.58909E+03  4.30661E+04
 -2.47727E+04  3.58012E+04 -4.04608E+04  1.85652E+04 -4.37624E+04 -3.24791E+03 -3.53365E+04 -2.49068E+04
 -1.41496E+04 -3.61331E+04  1.26745E+04 -3.15936E+04  2.72868E+04 -1.50150E+04  2.36897E+04  7.24250E+03
  8.29947E+03  1.87138E+04 -1.13944E+04  1.52373E+04 -1.96057E+04  2.56115E+03 -1.48017E+04 -1.26295E+04
 -1.87887E+02 -1.88448E+04  1.01534E+04 -1.43263E+04  1.26451E+04 -1.21360E+03  3.25210E+03  8.61214E+03
 -8.45049E+03  4.09536E+03 -8.75929E+03 -6.94544E+03 -1.52643E+03 -1.74406E+04  1.21554E+04 -1.94503E+04
  2.22217E+04 -1.10437E+04  2.47374E+04  3.19962E+03  2.19986E+04  1.81072E+04  9.93038E+03  2.80722E+04
 -5.06832E+03  3.03513E+04 -2.01679E+04  1.84833E+04 -2.17724E+04  3.64955E+03 -1.46371E+04 -5.59770E+03
 -6.30020E+03 -7.06505E+03 -1.11347E+03  7.13420E+02 -2.62052E+03  3.64195E+03 -7.15065E+03  5.23115E+03
 -1.37613E+04 -9.66640E+02 -1.47190E+04 -1.16243E+04 -5.83591E+03 -1.88563E+04  6.56248E+03 -1.48834E+04
  1.27909E+04 -6.23068E+03  8.53406E+03  4.27195E+03 -1.98114E+02  5.91449E+03 -7.76352E+03 -1.60701E+02
 -7.37005E+03 -9.56524E+03 -9.91440E+02 -1.46758E+04  8.68548E+03 -1.59378E+04  1.93967E+04 -8.46295E+03
  2.27899E+04  2.48143E+03  1.64814E+04  1.37673E+04  2.91950E+03  1.83617E+04 -9.06761E+03  1.49776E+04
 -1.21810E+04  4.33950E+03 -6.33882E+03 -3.34708E+03  2.06432E+03 -3.86368E+03  8.61041E+03 -9.61978E+02
  7.74044E+03  6.41333E+03  1.32838E+03  1.18989E+04 -8.66326E+03  1.14405E+04 -1.52225E+04  3.06584E+03
 -1.02750E+04 -7.71515E+03 -5.88596E+01 -1.27823E+04  8.39717E+03 -6.77850E+03  8.95648E+03  3.17874E+03
  2.57522E+03  9.48919E+03 -7.81287E+03  1.10956E+04 -1.29281E+04  5.03632E+03 -1.30633E+04 -4.66069E+03
 -7.93969E+03 -1.49844E+04  3.43512E+03 -1.73854E+04  1.46965E+04 -1.04323E+04  1.58791E+04  3.16361E+03
  9.41802E+03  1.27799E+04 -1.37576E+03  1.50944E+04 -1.11696E+04  8.37739E+03 -1.21826E+04 -1.45729E+03
 -1.01661E+04 -1.01104E+04 -1.69344E+03 -1.12159E+04  6.24441E+03 -9.25631E+03  7.50679E+03 -3.59226E+03
  4.63185E+03  1.76385E+03 -9.57612E+02  1.60773E+03 -1.01602E+03 -3.09239E+03  2.27137E+03 -7.31942E+03
  1.08823E+04 -4.51057E+03  1.50040E+04  2.28770E+03  1.45069E+04  1.03251E+04  9.66398E+03  1.95132E+04
 -4.54269E+03  2.28987E+04 -1.86300E+04  1.63339E+04 -2.44974E+04  3.28015E+03 -1.98225E+04 -8.06434E+03
 -9.87309E+03 -1.61101E+04 -7.08344E+02 -1.36607E+04  4.99298E+03 -7.37599E+03  5.04776E+03 -5.00994E+03
  3.50003E+03 -3.01759E+03  3.75515E+03 -3.72665E+03  6.02029E+03 -3.27809E+03  7.57128E+03 -1.45294E+03
  9.91672E+03  2.28721E+03  5.72549E+03  8.74918E+03 -2.16454E+03  1.05137E+04 -1.05144E+04  8.15974E+03
 -1.37812E+04 -1.39924E+03 -8.23201E+03 -9.43359E+03 -1.19024E+03 -1.49928E+04  8.38174E+03 -1.48031E+04
  1.54757E+04 -8.19719E+03  1.87992E+04  2.63965E+03  1.27099E+04  1.26174E+04  1.80184E+03  1.65579E+04
 -6.65658E+03  1.30190E+04 -9.78521E+03  4.40054E+03 -6.63443E+03 -1.60898E+03 -2.77369E+03 -2.09432E+03
 -1.22743E+03  5.36113E+02 -2.61890E+03  2.91189E+03 -5.24302E+03  1.86578E+03 -9.62562E+03 -1.41235E+03
 -6.74530E+03 -9.21717E+03  2.19593E+02 -1.36981E+04  8.28085E+03 -1.23437E+04  1.35503E+04 -3.61475E+03
  1.35432E+04  6.74898E+03  6.32124E+03  1.22438E+04 -2.62281E+03  1.36836E+04 -1.00363E+04  8.78162E+03
 -1.26310E+04  4.43506E+02 -9.84134E+03 -8.43214E+03 -1.05603E+03 -1.13807E+04  5.72034E+03 -8.41699E+03
  8.46046E+03 -2.57139E+03  5.47960E+03  2.64415E+03  1.86670E+03  4.10841E+03  1.77118E+03  2.09050E+03
  2.55839E+03  1.18990E+03  3.40782E+03  1.83137E+03  4.13165E+03  4.96359E+03  3.55543E+03  7.40474E+03
 -2.70583E+03  1.09751E+04 -9.57406E+03  1.12803E+04 -1.38830E+04  3.09827E+03 -1.46347E+04 -5.91449E+03
 -6.77374E+03 -1.37027E+04  2.16204E+03 -1.51923E+04  7.99156E+03 -9.74270E+03  1.12290E+04 -2.28406E+03
  8.96303E+03  5.05479E+03  1.78321E+03  7.99212E+03 -3.81271E+03  5.21018E+03 -5.52241E+03 -8.25824E+02
 -2.42398E+03 -6.01083E+03  3.14925E+03 -5.92967E+03  5.71682E+03 -3.13101E+03  5.60082E+03  1.30401E+03
  3.41317E+03  2.51871E+03  1.38419E+03  2.33897E+03 -5.61878E+02  1.81825E+03  1.95426E+03 -7.49787E+02
  2.23163E+03 -3.13185E+02  5.86101E+03  2.26979E+03  3.01546E+03  7.36144E+03 -1.12387E+03  9.52431E+03
 -6.60071E+03  6.31445E+03 -8.93043E+03  1.82890E+03 -7.78021E+03 -3.11187E+03 -2.92385E+03 -5.17584E+03
  1.08089E+03 -5.43158E+03  3.74286E+03 -2.77669E+03  3.13051E+03  2.45496E+03 -1.13691E+03  4.24741E+03
 -5.62250E+03  2.45479E+03 -6.43876E+03 -3.51884E+03 -3.53285E+03 -7.61463E+03  8.75728E+02 -7.45933E+03
  4.80883E+03 -4.45947E+03  5.46629E+03 -8.31937E+02  4.89513E+03  1.67574E+03  7.38689E+02  4.05584E+03
 -2.57275E+03  9.41717E+02 -3.21776E+03 -2.64452E+03  1.57599E+03 -6.05876E+03  6.58555E+03 -4.65989E+03
  8.72532E+03  4.63138E+02  8.44661E+03  5.62680E+03  2.74760E+03  8.82883E+03 -3.27303E+03  8.31030E+03
 -6.83143E+03  4.00140E+03 -7.87895E+03 -1.10663E+03 -4.21276E+03 -5.75885E+03  1.45201E+03 -5.61494E+03
  5.22675E+03 -2.65318E+03  4.25827E+03  2.27280E+03  1.65261E+03  5.26343E+03 -6.93027E+02  4.21884E+03
 -2.38602E+03  2.57864E+03 -2.25650E+03  5.66946E+02 -8.35529E+02  8.00603E+02 -1.59275E+03  1.87802E+03
 -2.78007E+03  3.63858E+03 -6.17761E+03  3.03995E+03 -8.63818E+03  5.08510E+02 -1.03475E+04 -6.05571E+03
 -4.94142E+03 -1.14571E+04  2.37052E+03 -1.36670E+04  8.54908E+03 -1.06583E+04  1.31234E+04 -4.10236E+03
  1.19138E+04  2.29036E+03  6.96988E+03  8.11129E+03  2.45549E+02  9.24812E+03 -3.96075E+03  6.68367E+03
 -5.26980E+03  2.43830E+03 -3.00287E+03 -1.23675E+03 -9.82524E+02 -1.01383E+03 -2.19456E+02 -1.16388E+02
 -1.87107E+03  3.75162E+02 -1.88300E+03 -1.87690E+02 -5.71028E+02 -1.90766E+03  2.56636E+02 -3.76088E+03
  3.85548E+03 -2.96640E+03  5.63288E+03  1.54838E+02  6.40819E+03  5.05266E+03  1.61309E+03  9.24908E+03
 -4.46669E+03  1.01399E+04 -1.00298E+04  5.96757E+03 -1.09409E+04 -5.89161E+02 -8.09988E+03 -6.87137E+03
 -3.64258E+03 -8.92451E+03  2.23398E+03 -8.48524E+03  5.68974E+03 -4.50408E+03  5.99393E+03  4.93098E+01
  2.92313E+03  2.61934E+03 -1.42443E+02  2.38419E+03 -1.49749E+03 -5.45758E+01 -4.36371E+02 -1.86185E+03
  3.14319E+03 -1.25488E+03  3.62552E+03  1.49687E+03  2.38501E+03  3.33196E+03 -8.52322E+01  4.27325E+03
 -4.05508E+03  3.98930E+03 -6.13546E+03  3.95706E+02 -5.51816E+03 -4.02556E+03 -6.29886E+02 -7.56052E+03
  3.99762E+03 -5.98780E+03  6.91469E+03 -1.87748E+03  7.39224E+03  1.78303E+03  3.98815E+03  5.23464E+03
  5.88335E+02  5.88801E+03 -2.08589E+03  4.79211E+03 -3.37534E+03  3.25089E+03 -2.94801E+03  2.26561E+02
 -2.00499E+03 -3.17215E+02 -2.09271E+03  9.11083E+02 -3.23145E+03  9.93418E+02 -4.69060E+03 -6.68278E+02
 -4.21895E+03 -3.12074E+03 -1.34344E+03 -5.93905E+03  2.68507E+03 -6.33028E+03  5.05245E+03 -2.93482E+03
  6.12892E+03  7.21791E+02  3.12081E+03  3.82911E+03 -2.47367E+02  5.86180E+03 -4.34897E+03  4.01581E+03
