 $NMID ID='MM_0lb_SNR800_8hz_g40_74.RAW', FMTDAT='(8E13.5)'
 TRAMP=1., VOLUME=1. $END
  3.09975E+05  4.59128E+02  3.37814E+05  2.51178E+05  8.49512E+04  3.38420E+05 -1.32567E+05  2.51791E+05
 -1.90862E+05  8.39151E+04 -1.12195E+05 -3.26341E+04  4.65265E+02 -5.07755E+04  5.37274E+04 -5.43296E+02
  3.52317E+04  5.31128E+04 -1.67018E+04  7.62373E+04 -6.09759E+04  6.41071E+04 -8.51132E+04  3.26410E+04
 -8.25068E+04 -1.17678E+04 -5.87167E+04 -5.24857E+04 -1.51351E+04 -7.12991E+04  2.79271E+04 -4.71338E+04
  4.10656E+04  3.60926E+03  1.66951E+04  4.86897E+04 -3.45965E+04  4.83485E+04 -6.84674E+04 -6.37560E+01
 -5.50168E+04 -5.78067E+04 -7.20062E+03 -7.88016E+04  3.51440E+04 -5.65520E+04  4.95895E+04 -1.85825E+04
  4.47454E+04  1.15207E+04  3.26581E+04  2.68010E+04  1.59979E+04  3.07489E+04 -5.73756E+03  2.78056E+04
 -2.23092E+04  1.18686E+04 -1.79722E+04 -5.94975E+03  7.18851E+03 -7.33179E+03  2.41814E+04  1.35584E+04
  7.24080E+03  3.73399E+04 -3.37238E+04  3.71340E+04 -6.58493E+04  1.70479E+03 -5.87985E+04 -4.45182E+04
 -1.27888E+04 -6.57813E+04  4.15740E+04 -4.72367E+04  6.11121E+04 -2.60371E+03  3.68948E+04  3.46838E+04
 -5.35666E+03  3.95982E+04 -3.17480E+04  1.84766E+04 -3.31469E+04 -3.29793E+03 -1.94456E+04 -1.17341E+04
 -9.63184E+03 -1.49963E+04 -3.92171E+02 -1.97804E+04  8.76012E+03 -2.35288E+04  1.60030E+04 -1.28760E+04
  1.07493E+04  6.25876E+03 -1.04826E+04  1.30918E+04 -2.32549E+04 -7.06272E+03 -8.54276E+03 -3.72624E+04
  2.49553E+04 -4.69704E+04  5.21275E+04 -2.08373E+04  4.91233E+04  2.07342E+04  1.76709E+04  4.72443E+04
 -1.66754E+04  3.60907E+04 -2.79416E+04  2.40530E+03 -1.12347E+04 -2.93961E+04  2.17752E+04 -3.69511E+04
  4.46784E+04 -1.09427E+04  4.04040E+04  2.49630E+04  2.14616E+04  5.12522E+04 -8.86437E+03  5.62939E+04
 -3.57885E+04  3.82763E+04 -4.75495E+04  1.10615E+04 -4.79325E+04 -1.87156E+04 -2.64866E+04 -4.16350E+04
  8.15098E+03 -4.22112E+04  3.42950E+04 -1.69687E+04  3.21600E+04  1.09105E+04  5.21054E+03  2.09608E+04
 -1.39208E+04  9.90074E+03 -1.12377E+04 -7.59706E+03  6.07285E+03 -1.10674E+04  1.86977E+04  5.52587E+03
  1.51399E+04  2.26132E+04 -5.41366E+03  2.73255E+04 -2.34802E+04  1.43085E+04 -3.15358E+04 -3.00099E+03
 -2.55897E+04 -1.87030E+04 -1.17430E+04 -2.52660E+04  4.44902E+03 -2.56060E+04  1.99869E+04 -2.30256E+04
  3.19954E+04 -1.46742E+04  3.83929E+04  5.00633E+03  2.68315E+04  2.41957E+04  4.72673E+03  4.20044E+04
 -1.97739E+04  3.38909E+04 -3.06708E+04  1.18437E+04 -2.28224E+04 -1.00799E+04 -4.85712E+03 -1.25220E+04
  5.13750E+02 -9.73441E+02 -7.83340E+03  8.45006E+03 -2.03491E+04  4.82229E+03 -2.04918E+04 -9.94653E+03
 -1.21049E+04 -2.33615E+04  6.33377E+03 -2.81037E+04  1.92234E+04 -1.98768E+04  2.30124E+04 -2.04417E+03
  1.46646E+04  1.61912E+04 -1.03623E+03  2.40149E+04 -1.68614E+04  1.33355E+04 -2.37179E+04 -5.15475E+03
 -1.73901E+04 -2.10487E+04 -2.28814E+03 -2.81819E+04  1.32370E+04 -2.33426E+04  2.31679E+04 -1.21313E+04
  2.19780E+04 -3.23114E+02  1.61710E+04  5.38152E+03  9.14014E+03  1.26575E+03  1.19891E+04 -1.69448E+03
  2.24182E+04  2.44246E+03  2.62016E+04  1.84138E+04  1.76086E+04  3.79118E+04 -2.83241E+03  4.49434E+04
 -2.55968E+04  3.74589E+04 -4.20147E+04  1.94726E+04 -4.50434E+04 -3.25115E+03 -3.63578E+04 -2.64903E+04
 -1.42882E+04 -3.75136E+04  1.30146E+04 -3.31072E+04  2.81886E+04 -1.54748E+04  2.42514E+04  8.15487E+03
  8.14491E+03  1.87952E+04 -1.18476E+04  1.55007E+04 -2.08750E+04  2.52048E+03 -1.53102E+04 -1.29882E+04
 -5.00012E+02 -1.97472E+04  1.07772E+04 -1.44327E+04  1.38054E+04 -1.91819E+03  2.86269E+03  8.72459E+03
 -8.69013E+03  4.45055E+03 -8.88124E+03 -7.64331E+03 -1.82481E+03 -1.83248E+04  1.18556E+04 -2.00538E+04
  2.31929E+04 -1.16419E+04  2.63780E+04  3.44436E+03  2.34868E+04  1.89093E+04  1.03734E+04  2.94253E+04
 -5.66160E+03  3.16242E+04 -2.08970E+04  1.99941E+04 -2.29686E+04  3.95615E+03 -1.57000E+04 -6.04390E+03
 -6.80782E+03 -7.69137E+03 -4.48350E+02  1.31747E+02 -3.04404E+03  3.66970E+03 -7.73013E+03  5.24118E+03
 -1.46531E+04 -1.34038E+03 -1.53102E+04 -1.15855E+04 -6.01436E+03 -1.99531E+04  6.34758E+03 -1.62502E+04
  1.31626E+04 -6.72289E+03  9.61958E+03  4.15577E+03 -6.82516E+02  6.45628E+03 -8.02752E+03 -3.91115E+02
 -7.62514E+03 -1.01481E+04 -1.16568E+03 -1.57851E+04  9.37945E+03 -1.69300E+04  2.05225E+04 -9.09185E+03
  2.38652E+04  2.80684E+03  1.73889E+04  1.48552E+04  3.18596E+03  1.95129E+04 -9.88792E+03  1.59502E+04
 -1.30318E+04  4.24144E+03 -6.34530E+03 -3.69559E+03  1.96223E+03 -4.72298E+03  8.48885E+03 -1.48309E+03
  7.58623E+03  7.11476E+03  1.48083E+03  1.30830E+04 -9.56327E+03  1.24067E+04 -1.58000E+04  3.08185E+03
 -1.13052E+04 -8.28296E+03  2.49810E+02 -1.35867E+04  9.10352E+03 -6.77216E+03  9.37458E+03  3.49711E+03
  1.99798E+03  1.07784E+04 -8.28409E+03  1.20710E+04 -1.38304E+04  5.30744E+03 -1.45318E+04 -5.08264E+03
 -8.21832E+03 -1.67054E+04  3.99126E+03 -1.85823E+04  1.59312E+04 -1.10684E+04  1.74278E+04  3.06336E+03
  1.07244E+04  1.38594E+04 -1.99324E+03  1.61976E+04 -1.23425E+04  8.54901E+03 -1.35395E+04 -1.43716E+03
 -1.10189E+04 -1.08388E+04 -1.84362E+03 -1.25908E+04  6.71597E+03 -1.00861E+04  7.87178E+03 -3.67102E+03
  5.12334E+03  2.15291E+03 -1.08049E+03  1.83917E+03 -1.23028E+03 -3.75535E+03  2.55737E+03 -7.75933E+03
  1.24509E+04 -4.58885E+03  1.69846E+04  1.37620E+03  1.65905E+04  1.19048E+04  1.06691E+04  2.17918E+04
 -5.16730E+03  2.46992E+04 -2.03420E+04  1.85430E+04 -2.67209E+04  3.51269E+03 -2.15666E+04 -9.58954E+03
 -1.08868E+04 -1.77517E+04 -3.32675E+02 -1.53032E+04  5.16380E+03 -8.83239E+03  4.98219E+03 -5.35740E+03
  4.03256E+03 -3.38272E+03  4.50916E+03 -4.00623E+03  5.78543E+03 -3.86611E+03  8.46720E+03 -1.13316E+03
  1.15507E+04  2.39561E+03  6.04104E+03  1.00333E+04 -2.38722E+03  1.16772E+04 -1.15537E+04  9.22631E+03
 -1.55110E+04 -1.37552E+03 -1.01543E+04 -1.12135E+04 -1.67251E+03 -1.66711E+04  9.32163E+03 -1.64104E+04
  1.73945E+04 -9.24178E+03  2.02588E+04  2.93996E+03  1.41341E+04  1.43798E+04  2.19858E+03  1.89456E+04
 -7.81132E+03  1.47575E+04 -1.06874E+04  5.24767E+03 -7.38075E+03 -1.46457E+03 -3.56323E+03 -2.42840E+03
 -1.52088E+03  3.51652E+01 -2.82378E+03  3.35761E+03 -6.42097E+03  2.89272E+03 -1.08930E+04 -1.69811E+03
 -7.84667E+03 -1.07031E+04  2.87080E+02 -1.56564E+04  9.23323E+03 -1.43086E+04  1.54501E+04 -4.09944E+03
  1.57399E+04  7.60014E+03  7.35499E+03  1.44335E+04 -3.17328E+03  1.60644E+04 -1.08668E+04  9.71337E+03
 -1.44515E+04 -1.14279E+01 -1.13848E+04 -9.73172E+03 -1.68923E+03 -1.29764E+04  6.55653E+03 -9.79846E+03
  1.00576E+04 -3.47078E+03  6.97517E+03  2.97518E+03  2.74793E+03  4.19142E+03  1.55079E+03  1.78073E+03
  2.94524E+03  7.92912E+02  3.86844E+03  2.17023E+03  4.81641E+03  5.57828E+03  4.12179E+03  8.23432E+03
 -3.48743E+03  1.27541E+04 -1.04204E+04  1.22028E+04 -1.67015E+04  3.22628E+03 -1.68234E+04 -6.95560E+03
 -8.12379E+03 -1.62900E+04  2.82256E+03 -1.78433E+04  9.35229E+03 -1.06186E+04  1.34163E+04 -2.63493E+03
  1.00906E+04  6.19959E+03  2.28456E+03  9.27192E+03 -4.77188E+03  6.12234E+03 -6.71555E+03 -8.45888E+02
 -3.20803E+03 -7.06225E+03  3.49100E+03 -7.47425E+03  6.68450E+03 -3.73024E+03  6.54150E+03  1.41128E+03
  3.66230E+03  3.29305E+03  1.43383E+03  2.95892E+03 -9.66126E+02  2.31032E+03  1.69830E+03 -6.06001E+02
  2.96602E+03 -8.58090E+02  6.25465E+03  1.98368E+03  3.60814E+03  8.92830E+03 -1.60238E+03  1.14396E+04
 -8.02815E+03  8.14210E+03 -1.02675E+04  2.46940E+03 -9.32414E+03 -3.34609E+03 -4.00280E+03 -6.71309E+03
  1.10134E+03 -6.74882E+03  4.45585E+03 -3.21530E+03  3.66701E+03  2.95932E+03 -1.53608E+03  5.46202E+03
 -6.94971E+03  2.97446E+03 -8.23130E+03 -3.96561E+03 -4.26461E+03 -9.04510E+03  1.16902E+03 -9.42940E+03
  5.63870E+03 -5.47056E+03  6.89189E+03 -5.90793E+02  5.28656E+03  2.17526E+03  7.09202E+02  4.50850E+03
 -3.34864E+03  9.93002E+02 -4.09391E+03 -3.15765E+03  1.24892E+03 -7.30883E+03  7.91782E+03 -5.68626E+03
  1.07602E+04  8.45716E+02  1.03401E+04  7.39708E+03  3.30005E+03  1.14703E+04 -3.83762E+03  1.02899E+04
 -9.01551E+03  4.68735E+03 -9.12293E+03 -1.53363E+03 -5.04528E+03 -7.25335E+03  1.63622E+03 -6.72469E+03
  6.76212E+03 -3.22752E+03  6.00943E+03  2.75700E+03  1.92055E+03  6.12003E+03 -1.09365E+03  4.99332E+03
 -2.71451E+03  3.23630E+03 -2.74304E+03  1.05259E+03 -1.25601E+03  8.85469E+02 -1.90198E+03  1.98287E+03
 -2.87072E+03  4.29922E+03 -7.09679E+03  4.11294E+03 -1.10305E+04  3.02805E+02 -1.21366E+04 -7.72297E+03
 -6.30337E+03 -1.42136E+04  2.90942E+03 -1.66801E+04  1.06085E+04 -1.31645E+04  1.60842E+04 -5.19676E+03
  1.51405E+04  3.35952E+03  9.01153E+03  1.02523E+04  7.23180E+02  1.19396E+04 -4.12814E+03  8.34724E+03
 -6.74069E+03  3.23171E+03 -4.66583E+03 -1.28911E+03 -1.80513E+03 -9.61309E+02 -3.73461E+02 -1.94962E+02
 -2.06485E+03  3.62784E+02 -2.21609E+03 -4.07028E+02 -6.25955E+02 -2.73634E+03  1.45621E+02 -4.23445E+03
  5.30067E+03 -3.73134E+03  6.88943E+03  2.91174E+02  8.05530E+03  5.91206E+03  2.57109E+03  1.21913E+04
 -5.23116E+03  1.32036E+04 -1.25534E+04  7.48279E+03 -1.46187E+04 -1.42583E+03 -1.07854E+04 -8.69319E+03
 -4.66577E+03 -1.20732E+04  2.70976E+03 -1.09621E+04  7.55782E+03 -6.22840E+03  7.76144E+03  3.50827E+02
  4.22704E+03  4.30225E+03 -5.99254E+02  3.15653E+03 -2.11070E+03 -4.89702E+02  2.57438E+02 -2.65473E+03
  3.60248E+03 -1.52683E+03  4.95199E+03  1.49277E+03  3.42899E+03  4.66513E+03  2.79294E+02  6.13592E+03
 -5.45629E+03  5.53992E+03 -8.24533E+03  9.17334E+02 -6.96864E+03 -5.55428E+03 -1.44235E+03 -1.01508E+04
  5.48151E+03 -8.67707E+03  9.64512E+03 -2.45714E+03  8.92448E+03  2.34617E+03  5.18857E+03  7.25833E+03
  7.64539E+02  7.85210E+03 -3.23720E+03  6.27642E+03 -5.33149E+03  3.42559E+03 -4.36104E+03  5.88166E+02
 -2.31932E+03 -5.12019E+02 -2.09509E+03  1.20907E+03 -4.05017E+03  1.24728E+03 -6.44143E+03 -1.24050E+03
 -6.22912E+03 -4.58996E+03 -2.26871E+03 -8.00490E+03  3.81080E+03 -8.02833E+03  7.25913E+03 -3.82002E+03
  8.11864E+03  8.87198E+02  4.68243E+03  5.95426E+03 -1.82395E+02  8.58788E+03 -6.56489E+03  5.25746E+03
