 $NMID ID='MM_0lb_SNR800_11hz_g40_69.RAW', FMTDAT='(8E13.5)'
 TRAMP=1., VOLUME=1. $END
  3.09828E+05  2.46578E+02  3.37724E+05  2.50636E+05  8.50063E+04  3.38046E+05 -1.32590E+05  2.51141E+05
 -1.90438E+05  8.34325E+04 -1.12033E+05 -3.28648E+04  1.11150E+03 -5.07596E+04  5.36363E+04  2.56079E+02
  3.50269E+04  5.28806E+04 -1.65170E+04  7.55844E+04 -6.09000E+04  6.38599E+04 -8.45172E+04  3.24016E+04
 -8.15362E+04 -1.19400E+04 -5.73773E+04 -5.16582E+04 -1.54125E+04 -6.98599E+04  2.80143E+04 -4.60831E+04
  4.05148E+04  3.87280E+03  1.63631E+04  4.78926E+04 -3.44132E+04  4.74898E+04 -6.71199E+04 -5.06500E+02
 -5.41474E+04 -5.72124E+04 -6.83207E+03 -7.78008E+04  3.40064E+04 -5.58672E+04  4.87151E+04 -1.73967E+04
  4.41315E+04  1.11240E+04  3.26531E+04  2.60302E+04  1.55883E+04  3.00728E+04 -5.65040E+03  2.73775E+04
 -2.23730E+04  1.16366E+04 -1.82971E+04 -5.27188E+03  6.38277E+03 -7.13594E+03  2.26529E+04  1.30065E+04
  6.88818E+03  3.60848E+04 -3.27224E+04  3.56275E+04 -6.43517E+04  1.94099E+03 -5.79691E+04 -4.35189E+04
 -1.24813E+04 -6.40072E+04  4.01992E+04 -4.59177E+04  5.93693E+04 -2.10494E+03  3.48955E+04  3.30228E+04
 -5.88215E+03  3.78350E+04 -3.07371E+04  1.70639E+04 -3.15757E+04 -3.92050E+03 -1.76361E+04 -1.15677E+04
 -8.88349E+03 -1.40837E+04 -5.72063E+02 -1.88920E+04  8.12480E+03 -2.30510E+04  1.54046E+04 -1.29421E+04
  1.07930E+04  5.47322E+03 -9.16087E+03  1.30395E+04 -2.17987E+04 -5.29267E+03 -8.38838E+03 -3.49129E+04
  2.36844E+04 -4.49796E+04  4.92178E+04 -2.00403E+04  4.65533E+04  2.02562E+04  1.61773E+04  4.55802E+04
 -1.62361E+04  3.43065E+04 -2.61372E+04  2.14827E+03 -1.03617E+04 -2.84284E+04  2.15118E+04 -3.48763E+04
  4.23616E+04 -9.84790E+03  3.76658E+04  2.42755E+04  1.94074E+04  4.80603E+04 -7.86695E+03  5.28597E+04
 -3.31405E+04  3.56016E+04 -4.42017E+04  1.03154E+04 -4.49270E+04 -1.72436E+04 -2.45061E+04 -3.95886E+04
  7.75533E+03 -3.94067E+04  3.22300E+04 -1.56531E+04  3.02009E+04  1.11120E+04  4.24986E+03  1.97566E+04
 -1.38628E+04  8.61729E+03 -1.06874E+04 -7.54417E+03  5.58645E+03 -1.09705E+04  1.88534E+04  5.72518E+03
  1.39220E+04  2.22935E+04 -5.97048E+03  2.56995E+04 -2.26704E+04  1.26979E+04 -2.93854E+04 -3.87418E+03
 -2.22472E+04 -1.75829E+04 -9.70597E+03 -2.21922E+04  4.12328E+03 -2.19331E+04  1.73671E+04 -2.02033E+04
  2.82976E+04 -1.33442E+04  3.50144E+04  3.60964E+03  2.50003E+04  2.16817E+04  4.24275E+03  3.82169E+04
 -1.85403E+04  3.19648E+04 -2.90155E+04  1.08680E+04 -2.13175E+04 -1.00081E+04 -4.59500E+03 -1.35463E+04
  1.43440E+03 -2.25223E+03 -6.16874E+03  7.22875E+03 -1.75340E+04  5.22767E+03 -1.78758E+04 -8.20694E+03
 -1.11082E+04 -2.09248E+04  5.58800E+03 -2.51500E+04  1.65445E+04 -1.78055E+04  1.98872E+04 -1.49089E+03
  1.25996E+04  1.43548E+04 -1.35648E+03  2.10285E+04 -1.45072E+04  1.17909E+04 -2.10879E+04 -4.65067E+03
 -1.54591E+04 -1.89017E+04 -1.90630E+03 -2.50676E+04  1.09456E+04 -2.07671E+04  2.09811E+04 -1.05130E+04
  1.94068E+04 -4.69229E+01  1.39857E+04  4.96881E+03  7.49720E+03  1.18423E+03  1.08111E+04 -1.41789E+03
  1.93623E+04  2.87432E+03  2.17192E+04  1.63892E+04  1.45163E+04  3.35036E+04 -2.62648E+03  3.83569E+04
 -2.21276E+04  3.16228E+04 -3.59502E+04  1.61206E+04 -3.81582E+04 -2.65151E+03 -3.11918E+04 -2.19520E+04
 -1.30373E+04 -3.12693E+04  1.08909E+04 -2.73497E+04  2.44468E+04 -1.38706E+04  2.10441E+04  6.53305E+03
  7.62346E+03  1.61174E+04 -1.01601E+04  1.40897E+04 -1.77298E+04  2.84844E+03 -1.39506E+04 -1.13263E+04
 -3.48936E+02 -1.68588E+04  9.14621E+03 -1.25769E+04  1.13545E+04 -1.15669E+03  2.75483E+03  7.34206E+03
 -7.55336E+03  3.11800E+03 -7.36804E+03 -5.93840E+03 -1.04231E+03 -1.56359E+04  1.01590E+04 -1.62145E+04
  1.90152E+04 -9.30323E+03  2.15281E+04  3.21430E+03  1.88392E+04  1.53816E+04  8.41760E+03  2.40483E+04
 -3.81870E+03  2.58266E+04 -1.68438E+04  1.58844E+04 -1.88405E+04  3.03985E+03 -1.30334E+04 -4.72434E+03
 -5.77920E+03 -6.20714E+03 -6.39859E+02  9.00187E+02 -2.79077E+03  3.21063E+03 -6.18026E+03  4.57635E+03
 -1.22978E+04 -8.84659E+02 -1.29982E+04 -1.03935E+04 -5.08988E+03 -1.66299E+04  5.55437E+03 -1.35855E+04
  1.09224E+04 -5.55819E+03  7.75728E+03  3.49882E+03  2.21221E+00  4.87955E+03 -6.47213E+03 -2.79053E+02
 -5.90998E+03 -8.18581E+03 -8.89484E+02 -1.27931E+04  7.19966E+03 -1.35822E+04  1.65505E+04 -7.51316E+03
  1.94504E+04  1.61015E+03  1.40282E+04  1.17031E+04  3.05888E+03  1.53386E+04 -8.09219E+03  1.28859E+04
 -1.07171E+04  4.22269E+03 -5.18626E+03 -2.59694E+03  1.69709E+03 -3.68870E+03  7.08775E+03 -9.90268E+02
  6.26808E+03  5.75642E+03  8.84572E+02  1.05034E+04 -7.46913E+03  1.02954E+04 -1.23957E+04  2.22702E+03
 -8.78267E+03 -6.76078E+03  5.15554E+02 -1.09965E+04  7.15130E+03 -5.63272E+03  7.41923E+03  2.41978E+03
  1.46669E+03  7.40312E+03 -6.60324E+03  8.84719E+03 -1.06534E+04  3.97224E+03 -1.03780E+04 -3.78951E+03
 -6.42799E+03 -1.23182E+04  3.11208E+03 -1.43023E+04  1.21190E+04 -8.26514E+03  1.33849E+04  2.07259E+03
  8.15189E+03  1.04556E+04 -7.19257E+02  1.27634E+04 -9.29334E+03  7.55601E+03 -1.00990E+04 -9.44687E+02
 -8.57685E+03 -8.81940E+03 -1.58107E+03 -9.51157E+03  5.16967E+03 -8.07938E+03  6.08177E+03 -3.37100E+03
  4.32132E+03  1.26822E+03 -7.53438E+02  1.93745E+03 -8.90208E+01 -2.24312E+03  1.59044E+03 -5.40712E+03
  8.74524E+03 -3.55984E+03  1.24814E+04  1.35300E+03  1.17654E+04  7.97546E+03  8.26242E+03  1.59781E+04
 -4.10018E+03  1.86394E+04 -1.55349E+04  1.33318E+04 -2.00744E+04  2.57113E+03 -1.59865E+04 -6.96230E+03
 -7.78072E+03 -1.33859E+04 -1.65937E+02 -1.11376E+04  4.34463E+03 -6.14271E+03  3.85460E+03 -3.98535E+03
  3.15868E+03 -2.48059E+03  3.56309E+03 -3.37807E+03  4.91862E+03 -2.97736E+03  6.66237E+03 -9.46092E+02
  8.51763E+03  2.10845E+03  4.12522E+03  7.26064E+03 -2.08423E+03  8.51027E+03 -9.00728E+03  6.75496E+03
 -1.11535E+04 -1.02507E+03 -6.61003E+03 -7.53291E+03 -6.97695E+02 -1.22544E+04  6.51815E+03 -1.19296E+04
  1.24460E+04 -6.51091E+03  1.50892E+04  1.93204E+03  1.03913E+04  9.92547E+03  1.64757E+03  1.38550E+04
 -5.37080E+03  1.13284E+04 -7.56687E+03  3.83308E+03 -4.75471E+03 -1.38738E+03 -2.08636E+03 -1.31428E+03
 -1.25189E+03 -1.47597E+02 -1.73218E+03  2.70832E+03 -4.70693E+03  1.79508E+03 -8.18585E+03 -1.22357E+03
 -5.29942E+03 -7.55800E+03  3.41188E+02 -1.08454E+04  6.92050E+03 -1.02232E+04  1.07483E+04 -2.68380E+03
  1.07165E+04  5.49727E+03  4.92055E+03  9.37913E+03 -2.13295E+03  1.09638E+04 -7.82244E+03  6.65317E+03
 -1.03006E+04  5.89528E+02 -7.92568E+03 -6.50771E+03 -7.08390E+02 -9.03546E+03  4.71266E+03 -6.65050E+03
  6.97833E+03 -2.49055E+03  4.77228E+03  1.79508E+03  1.87220E+03  3.50477E+03  1.00725E+03  1.28988E+03
  2.15726E+03  1.44165E+03  2.92305E+03  1.25446E+03  3.35413E+03  4.11372E+03  3.04224E+03  5.40828E+03
 -2.24459E+03  8.36993E+03 -7.16768E+03  8.63533E+03 -1.06708E+04  2.58979E+03 -1.12084E+04 -4.24455E+03
 -5.57650E+03 -1.08615E+04  1.42217E+03 -1.21740E+04  6.32501E+03 -7.39924E+03  8.91435E+03 -2.19611E+03
  6.84169E+03  4.18197E+03  1.61206E+03  6.26520E+03 -2.54131E+03  4.26106E+03 -4.23373E+03 -7.38073E+02
 -1.57594E+03 -4.11580E+03  2.44777E+03 -4.86378E+03  4.26625E+03 -2.09152E+03  4.75375E+03  1.08537E+03
  2.54834E+03  2.35617E+03  1.22631E+03  1.50950E+03 -5.72438E+02  1.73302E+03  1.66720E+03 -5.76995E+02
  1.78707E+03 -5.99708E+02  4.66840E+03  1.84601E+03  2.30170E+03  5.93964E+03 -9.31044E+02  7.82579E+03
 -4.88868E+03  4.76882E+03 -6.29763E+03  1.20888E+03 -6.01165E+03 -2.54592E+03 -2.22338E+03 -3.95482E+03
  6.98001E+02 -3.94512E+03  2.65735E+03 -1.87883E+03  2.39636E+03  2.26935E+03 -1.30515E+03  3.71797E+03
 -4.13041E+03  1.92853E+03 -4.96270E+03 -2.44114E+03 -2.69609E+03 -5.81676E+03  8.92345E+02 -5.63940E+03
  3.26828E+03 -3.27920E+03  4.33253E+03 -1.48214E+02  3.81196E+03  1.35778E+03  5.46113E+02  3.02018E+03
 -2.08360E+03  1.10612E+03 -2.87021E+03 -2.04599E+03  1.15757E+03 -4.39438E+03  5.32162E+03 -3.66276E+03
  6.24736E+03  5.15996E+02  6.48201E+03  4.46402E+03  2.28609E+03  6.83497E+03 -2.38338E+03  6.58684E+03
 -5.59358E+03  2.45163E+03 -5.96733E+03 -7.92965E+02 -3.09299E+03 -4.52253E+03  9.20085E+02 -4.06185E+03
  4.34515E+03 -2.16496E+03  3.32263E+03  2.19443E+03  1.52260E+03  3.75932E+03 -4.80079E+02  3.26109E+03
 -1.55307E+03  2.27257E+03 -1.70998E+03  6.65643E+02 -8.53117E+02  5.68653E+02 -1.21799E+03  1.58138E+03
 -1.81053E+03  2.73232E+03 -4.48521E+03  2.20372E+03 -6.85723E+03  5.15435E+02 -7.41100E+03 -4.64495E+03
 -4.14929E+03 -9.05676E+03  1.69043E+03 -1.03402E+04  6.00690E+03 -8.47245E+03  1.01564E+04 -3.05708E+03
  9.15034E+03  1.67753E+03  5.56049E+03  6.46847E+03  4.22825E+02  6.70449E+03 -2.87041E+03  5.42990E+03
 -3.76996E+03  2.16117E+03 -2.25207E+03 -9.19068E+02 -1.06063E+03 -5.00256E+02 -5.59092E+02 -1.45688E+02
 -1.40439E+03  1.91137E+02 -1.83864E+03 -4.28347E+02 -4.03472E+02 -1.66579E+03  7.99665E+01 -2.75413E+03
  3.44868E+03 -2.56884E+03  4.00106E+03 -6.39836E+01  4.73951E+03  3.92598E+03  1.15132E+03  6.70501E+03
 -2.94546E+03  8.04918E+03 -7.32308E+03  4.51376E+03 -8.20295E+03 -8.09221E+02 -5.89837E+03 -5.12642E+03
 -2.47426E+03 -6.92237E+03  1.54219E+03 -6.39665E+03  4.59032E+03 -3.36599E+03  4.41279E+03  4.24774E+02
  2.10652E+03  2.71050E+03 -2.37318E+02  1.84038E+03 -1.55267E+03 -2.07928E+02 -5.79509E+01 -1.46191E+03
  2.39389E+03 -4.20091E+02  2.33441E+03  6.96927E+02  1.24825E+03  2.69021E+03  1.38673E+02  3.35516E+03
 -2.83251E+03  3.08080E+03 -4.38348E+03  1.74391E+02 -4.18104E+03 -3.11988E+03 -4.84595E+02 -5.30360E+03
  3.13330E+03 -4.75443E+03  5.10043E+03 -1.14804E+03  5.03209E+03  7.38162E+02  2.90186E+03  3.77186E+03
  6.53587E+02  4.30914E+03 -1.77661E+03  3.38412E+03 -2.72542E+03  1.94386E+03 -2.44610E+03  6.26611E+02
 -1.27945E+03 -1.10125E+02 -1.21901E+03  2.81981E+02 -2.24095E+03  7.69183E+02 -3.61351E+03 -4.94617E+02
 -3.46991E+03 -1.96451E+03 -9.51508E+02 -4.21870E+03  2.20116E+03 -4.89912E+03  3.71796E+03 -2.27498E+03
  4.26305E+03  6.81523E+02  2.12135E+03  2.64124E+03 -3.21419E+02  4.29955E+03 -3.77725E+03  2.83728E+03
