 $NMID ID='MM_0lb_SNR800_18hz_g45_5.RAW', FMTDAT='(8E13.5)'
 TRAMP=1., VOLUME=1. $END
  3.09759E+05  3.51113E+02  3.37349E+05  2.50206E+05  8.46129E+04  3.37536E+05 -1.32698E+05  2.50195E+05
 -1.89525E+05  8.24157E+04 -1.11194E+05 -3.27683E+04  1.48442E+03 -5.01299E+04  5.37840E+04  2.38213E+02
  3.48435E+04  5.28349E+04 -1.67356E+04  7.48494E+04 -6.02576E+04  6.28426E+04 -8.29498E+04  3.16070E+04
 -7.98871E+04 -1.12777E+04 -5.61131E+04 -5.00352E+04 -1.46947E+04 -6.83535E+04  2.68349E+04 -4.48696E+04
  3.92151E+04  4.08670E+03  1.55129E+04  4.69867E+04 -3.40142E+04  4.65059E+04 -6.54975E+04 -3.75811E+02
 -5.18801E+04 -5.59412E+04 -6.33778E+03 -7.53754E+04  3.31539E+04 -5.35647E+04  4.64173E+04 -1.65002E+04
  4.15903E+04  1.09476E+04  3.04504E+04  2.45511E+04  1.57421E+04  2.80431E+04 -4.57873E+03  2.65370E+04
 -2.16741E+04  1.26807E+04 -1.92741E+04 -4.32030E+03  4.44706E+03 -7.54072E+03  2.13390E+04  1.11479E+04
  7.41113E+03  3.34857E+04 -3.06421E+04  3.41919E+04 -6.15492E+04  1.92595E+03 -5.54383E+04 -4.12295E+04
 -1.24449E+04 -6.06485E+04  3.82024E+04 -4.36704E+04  5.56631E+04 -1.56991E+03  3.19558E+04  3.04436E+04
 -6.62491E+03  3.33356E+04 -2.84385E+04  1.33916E+04 -2.77606E+04 -5.35376E+03 -1.44371E+04 -9.82097E+03
 -7.49567E+03 -1.15131E+04 -1.15160E+03 -1.66126E+04  6.63850E+03 -2.25154E+04  1.49770E+04 -1.39857E+04
  1.22150E+04  4.34377E+03 -6.33052E+03  1.30360E+04 -1.95389E+04 -2.55287E+03 -7.84285E+03 -3.06640E+04
  2.09882E+04 -4.07201E+04  4.46679E+04 -1.83862E+04  4.21756E+04  1.81436E+04  1.45684E+04  4.19683E+04
 -1.53210E+04  3.11946E+04 -2.34070E+04  1.11561E+03 -8.48473E+03 -2.64265E+04  2.07011E+04 -3.14456E+04
  3.80987E+04 -7.39762E+03  3.17525E+04  2.27444E+04  1.54969E+04  4.26310E+04 -7.88146E+03  4.53546E+04
 -2.84738E+04  2.99663E+04 -3.72822E+04  8.46883E+03 -3.86435E+04 -1.53011E+04 -2.14872E+04 -3.46012E+04
  7.08895E+03 -3.45967E+04  2.93705E+04 -1.28019E+04  2.67492E+04  1.10551E+04  3.29788E+03  1.78366E+04
 -1.29049E+04  7.42739E+03 -9.60208E+03 -7.70194E+03  5.99032E+03 -1.01313E+04  1.73708E+04  6.18301E+03
  1.23372E+04  2.15729E+04 -6.56321E+03  2.32994E+04 -2.13449E+04  9.27689E+03 -2.52426E+04 -6.15811E+03
 -1.68427E+04 -1.64194E+04 -5.85188E+03 -1.68459E+04  3.60789E+03 -1.46743E+04  1.23816E+04 -1.48352E+04
  2.13239E+04 -1.16722E+04  2.80534E+04  1.49713E+03  2.13712E+04  1.65993E+04  3.94463E+03  3.26146E+04
 -1.61400E+04  2.78157E+04 -2.61647E+04  9.33680E+03 -1.96533E+04 -1.04721E+04 -3.98488E+03 -1.37861E+04
  2.44200E+03 -4.08549E+03 -2.84984E+03  5.07924E+03 -1.30534E+04  5.28955E+03 -1.35369E+04 -5.09052E+03
 -8.73381E+03 -1.55127E+04  4.56615E+03 -1.96610E+04  1.29139E+04 -1.41054E+04  1.47676E+04 -1.66800E+03
  8.91519E+03  1.09990E+04 -7.85233E+02  1.56242E+04 -1.04974E+04  9.08650E+03 -1.55312E+04 -3.73112E+03
 -1.13391E+04 -1.43640E+04 -1.71143E+03 -1.92783E+04  8.70993E+03 -1.55679E+04  1.63094E+04 -7.32926E+03
  1.46250E+04  6.13207E+02  1.06113E+04  4.04634E+03  5.16246E+03  5.57581E+02  7.78337E+03 -1.20724E+03
  1.39347E+04  2.59423E+03  1.49014E+04  1.27390E+04  9.45867E+03  2.51699E+04 -3.09026E+03  2.69508E+04
 -1.60272E+04  2.08925E+04 -2.48697E+04  1.00722E+04 -2.51573E+04 -1.80564E+03 -2.17794E+04 -1.46405E+04
 -1.01489E+04 -2.05772E+04  7.02660E+03 -1.94793E+04  1.69671E+04 -1.10036E+04  1.56989E+04  3.81543E+03
  6.60437E+03  1.10571E+04 -7.09556E+03  1.02955E+04 -1.34368E+04  2.66595E+03 -1.03990E+04 -7.89612E+03
 -3.15237E+02 -1.25945E+04  6.38853E+03 -9.67335E+03  7.87932E+03 -1.45511E+03  1.50212E+03  4.86587E+03
 -5.55346E+03  1.51568E+03 -3.85242E+03 -4.57628E+03  7.62996E+02 -1.02299E+04  8.10934E+03 -1.03688E+04
  1.25648E+04 -4.72272E+03  1.24081E+04  2.87035E+03  1.07324E+04  9.70551E+03  5.16869E+03  1.42210E+04
 -1.63906E+03  1.62131E+04 -9.86379E+03  1.03504E+04 -1.14601E+04  2.98136E+03 -8.48850E+03 -1.99630E+03
 -4.42270E+03 -3.76272E+03 -6.48557E+02  1.51881E+03 -2.14553E+03  1.87871E+03 -3.74782E+03  3.57188E+03
 -8.23309E+03 -1.96085E+02 -8.76033E+03 -7.28347E+03 -3.46721E+03 -1.14089E+04  3.61686E+03 -8.61794E+03
  7.27960E+03 -3.66788E+03  5.25043E+03  2.26830E+03  4.02383E+02  3.13284E+03 -3.41826E+03 -3.69512E+01
 -3.24772E+03 -5.24367E+03 -6.06822E+02 -7.55625E+03  3.95805E+03 -8.20094E+03  1.00475E+04 -4.02726E+03
  1.18315E+04  5.26044E+02  8.67682E+03  6.52915E+03  1.96445E+03  8.61595E+03 -5.37732E+03  8.47728E+03
 -6.99500E+03  2.84320E+03 -3.37474E+03 -1.14370E+03  1.38899E+03 -1.88938E+03  4.94168E+03 -1.11605E+03
  4.13769E+03  3.33153E+03  9.72700E+02  6.42061E+03 -4.55316E+03  6.40297E+03 -8.31486E+03  1.54220E+03
 -5.05380E+03 -3.82446E+03  1.92417E+02 -6.83154E+03  3.92085E+03 -3.43397E+03  3.62189E+03  1.02108E+03
  6.71101E+02  3.26049E+03 -4.35509E+03  4.93506E+03 -5.10806E+03  2.70267E+03 -4.88959E+03 -1.36232E+03
 -3.07140E+03 -6.08742E+03  1.39199E+03 -7.13194E+03  6.12840E+03 -4.88129E+03  6.32463E+03  9.58666E+02
  4.63159E+03  5.50158E+03  2.87870E+02  7.50723E+03 -5.22442E+03  4.13182E+03 -5.33331E+03 -3.05853E+02
 -5.77513E+03 -5.38509E+03 -1.60524E+03 -5.01224E+03  2.68851E+03 -4.85445E+03  3.27916E+03 -2.72535E+03
  2.81290E+03  4.50344E+02  4.15725E+02  1.15427E+03  6.69213E+02 -2.08596E+02  1.61404E+02 -1.89000E+03
  4.05957E+03 -7.91830E+02  5.46090E+03  5.35048E+02  5.77815E+03  3.21431E+03  5.38586E+03  7.54374E+03
 -1.11602E+03  8.76671E+03 -7.93731E+03  7.10350E+03 -1.03952E+04  1.38791E+03 -7.94862E+03 -2.68276E+03
 -4.42409E+03 -6.93626E+03 -4.63677E+02 -5.40537E+03  2.37146E+03 -2.24802E+03  1.61110E+03 -2.16696E+03
  1.06303E+03 -1.25468E+03  2.27142E+03 -2.36123E+03  3.47658E+03 -1.64458E+03  3.70023E+03  7.39039E+02
  4.42829E+03  1.01608E+03  1.27678E+03  3.43855E+03 -1.58604E+03  2.76779E+03 -4.65482E+03  3.08167E+03
 -4.94542E+03 -9.69391E+02 -1.95135E+03 -3.38063E+03  4.31865E+02 -5.06174E+03  3.16231E+03 -5.46715E+03
  5.35681E+03 -3.47273E+03  6.97280E+03  5.07831E+01  5.09571E+03  4.36349E+03  1.03039E+03  6.38212E+03
 -2.34843E+03  6.39887E+03 -3.75923E+03  1.95091E+03 -1.85959E+03 -1.20012E+03 -4.75425E+02 -5.68889E+02
 -2.64565E+02  5.29933E+01 -9.03660E+02  2.15378E+03 -2.70542E+03  1.10628E+03 -3.92108E+03 -6.73174E+02
 -1.70888E+03 -4.13027E+03  7.16128E+02 -4.69685E+03  2.82377E+03 -4.93274E+03  3.82753E+03 -1.44375E+03
  4.39259E+03  2.55299E+03  2.00858E+03  3.59052E+03 -1.10099E+03  4.70346E+03 -2.77036E+03  2.95833E+03
 -3.95885E+03  4.06374E+02 -3.41981E+03 -2.79301E+03 -2.07869E+02 -3.21856E+03  2.15658E+03 -2.50232E+03
  2.87815E+03 -1.22414E+03  1.79811E+03  1.37785E+02  4.98191E+02  1.68494E+03  1.06899E+03  4.19773E+02
  1.76944E+03  5.93541E+02  1.04910E+03  1.17313E+03  1.03298E+03  2.39414E+03  1.37336E+03  1.93458E+03
 -1.35014E+03  3.31356E+03 -2.54792E+03  4.37220E+03 -3.30774E+03  1.13430E+03 -4.39082E+03 -6.97365E+02
 -1.92363E+03 -3.83240E+03  5.69338E+02 -4.90567E+03  2.41682E+03 -2.86946E+03  3.18633E+03 -7.88736E+02
  2.58267E+03  2.04314E+03  5.71586E+02  2.43293E+03 -9.18886E+02  1.49959E+03 -1.17581E+03  4.15553E+01
 -7.96799E+02 -1.36551E+03  1.43846E+03 -1.79860E+03  1.27616E+03 -8.41388E+02  1.54923E+03  2.79088E+02
  9.20193E+02  2.70131E+02  7.58706E+02 -6.27493E+01 -3.67191E+02  1.01490E+03  1.61938E+03 -2.78999E+02
 -7.10267E+00 -4.64344E+02  1.89444E+03  7.98480E+02  3.01280E+02  2.69699E+03 -1.84679E+02  2.73480E+03
 -1.79874E+03  9.64816E+02 -2.26302E+03  3.20238E+02 -2.37545E+03 -8.21510E+02 -3.51443E+02 -1.19036E+03
  3.70822E+02 -1.25534E+03  1.13681E+03 -6.77783E+02  7.11286E+02  1.40130E+03 -8.02674E+02  9.65242E+02
 -1.35240E+03  1.16869E+03 -1.21341E+03 -1.23963E+03 -8.37760E+02 -2.36405E+03  1.29325E+02 -1.65997E+03
  3.24285E+02 -6.18214E+02  9.09543E+02 -1.04325E+02  1.32025E+03 -8.85173E+01  5.87155E+02  1.21123E+03
 -3.64342E+02  1.65107E+02 -1.18200E+03 -1.95827E+02  4.16122E+02 -9.79803E+02  1.73204E+03 -1.03542E+03
  1.35783E+03  3.51891E+02  2.95292E+03  7.78896E+02  1.44596E+03  1.61286E+03 -4.41690E+02  2.14101E+03
 -1.38693E+03  2.33880E+02 -1.50509E+03 -1.30235E+02 -6.80189E+02 -1.58961E+03  3.44553E+02 -6.14300E+02
  1.58909E+03 -7.62779E+02  1.01319E+03  7.46299E+02  2.85624E+02  1.31532E+03  4.31914E+02  1.08595E+03
 -3.07979E+02  1.07897E+03 -4.32601E+02  1.87419E+02  7.99982E+00  6.86819E+02 -6.67366E+02  3.91226E+02
 -9.36401E+02  7.21144E+02 -1.88417E+03  5.64788E+02 -1.99215E+03  7.28927E+01 -2.60876E+03 -9.82959E+02
 -1.27762E+03 -2.69152E+03  5.24848E+02 -3.11201E+03  1.42515E+03 -2.59777E+03  2.96908E+03 -9.09746E+02
  2.55063E+03 -2.63889E+02  1.31699E+03  1.49728E+03 -5.52815E+02  1.81635E+03 -7.98376E+02  1.42742E+03
 -1.00116E+03  6.87633E+02 -4.84652E+02 -2.17454E+02 -4.31517E+02  2.65832E+02 -5.36143E+02 -1.81707E-01
 -1.15544E+03 -3.41357E+01 -8.26792E+02  1.57193E+02  2.92757E+02 -6.57512E+02 -2.98898E+02 -9.03798E+02
  1.48360E+03 -7.90215E+02  5.47411E+02  2.95044E+02  1.30928E+03  1.21892E+03 -3.08052E+02  1.70712E+03
 -1.26794E+03  2.48559E+03 -1.77452E+03  1.41442E+03 -1.92324E+03 -7.19169E+01 -1.04725E+03 -1.55221E+03
 -1.03656E+03 -1.42055E+03  3.32079E+02 -1.47319E+03  6.93138E+02 -6.25944E+02  6.30013E+02  1.45448E+02
  6.88521E+02  2.91688E+02  4.35246E+01  5.02352E+02 -6.91465E+02 -5.31265E+01 -1.17767E+02 -2.43957E+02
  6.27843E+02  1.07524E+02  3.86371E+02  3.59677E+02  1.69241E+02  5.73782E+02  1.71009E+02  4.64335E+02
 -7.30730E+02  7.07524E+02 -6.76888E+02  6.35853E+01 -1.08371E+03 -6.02057E+02 -2.22127E+02 -1.27440E+03
  5.83916E+02 -7.70495E+02  5.74854E+02 -8.06737E+01  1.03199E+03 -4.41960E+02  4.33057E+02  1.06434E+03
  5.20986E+02  6.19562E+02 -2.31562E+02  5.81116E+02 -6.53137E+02  6.08536E+02 -3.08363E+02 -1.00508E+02
 -1.82925E+02 -1.86531E+02 -4.73472E+02  7.18480E+01 -8.41459E+02  1.53954E+02 -6.64523E+02 -1.95250E+02
 -1.27842E+03  6.46584E+01 -4.08756E+02 -1.14455E+03  5.56174E+02 -1.44878E+03  8.57121E+02 -3.31309E+02
  8.02058E+02  1.46948E+02 -1.82379E+02  2.49795E+02 -2.45658E+02  1.12933E+03 -3.37793E+02  7.26751E+02
