 $NMID ID='MM_0lb_SNR800_15hz_g50_50.RAW', FMTDAT='(8E13.5)'
 TRAMP=1., VOLUME=1. $END
  3.09884E+05  4.51089E+02  3.37667E+05  2.50839E+05  8.47652E+04  3.37930E+05 -1.32570E+05  2.51010E+05
 -1.90208E+05  8.33488E+04 -1.11522E+05 -3.26191E+04  1.12307E+03 -5.04705E+04  5.39922E+04 -1.41957E+02
  3.54001E+04  5.28028E+04 -1.64375E+04  7.54433E+04 -6.08670E+04  6.34170E+04 -8.37926E+04  3.19407E+04
 -8.07520E+04 -1.14548E+04 -5.71451E+04 -5.11354E+04 -1.52090E+04 -6.94853E+04  2.73024E+04 -4.53891E+04
  3.99504E+04  3.68546E+03  1.63004E+04  4.76506E+04 -3.46495E+04  4.69856E+04 -6.65806E+04 -3.20017E+02
 -5.34723E+04 -5.67478E+04 -6.87163E+03 -7.66467E+04  3.34547E+04 -5.47170E+04  4.78782E+04 -1.72170E+04
  4.34295E+04  1.09682E+04  3.17577E+04  2.52121E+04  1.56050E+04  2.92189E+04 -5.27930E+03  2.69921E+04
 -2.21158E+04  1.24761E+04 -1.87262E+04 -4.71443E+03  5.24949E+03 -7.48195E+03  2.19635E+04  1.18162E+04
  7.22675E+03  3.50430E+04 -3.17851E+04  3.50795E+04 -6.29438E+04  2.22636E+03 -5.65690E+04 -4.24125E+04
 -1.25191E+04 -6.26614E+04  3.96203E+04 -4.50066E+04  5.76144E+04 -2.65788E+03  3.38088E+04  3.21436E+04
 -5.78892E+03  3.56480E+04 -2.96852E+04  1.53032E+04 -2.98941E+04 -4.38490E+03 -1.63997E+04 -1.10042E+04
 -8.23101E+03 -1.29605E+04 -8.04494E+02 -1.79886E+04  7.12887E+03 -2.30093E+04  1.54165E+04 -1.33501E+04
  1.16129E+04  4.68732E+03 -7.82540E+03  1.29309E+04 -2.11799E+04 -3.82337E+03 -8.23842E+03 -3.31571E+04
  2.23428E+04 -4.28430E+04  4.73865E+04 -1.91321E+04  4.44589E+04  1.92060E+04  1.55298E+04  4.35980E+04
 -1.60151E+04  3.30550E+04 -2.48216E+04  1.70528E+03 -9.66337E+03 -2.76126E+04  2.09505E+04 -3.34927E+04
  4.05597E+04 -8.72995E+03  3.47347E+04  2.37371E+04  1.76968E+04  4.57278E+04 -8.01238E+03  4.90784E+04
 -3.11404E+04  3.32916E+04 -4.12505E+04  8.95439E+03 -4.19849E+04 -1.61288E+04 -2.29278E+04 -3.71429E+04
  7.08740E+03 -3.69727E+04  3.11222E+04 -1.43618E+04  2.90560E+04  1.07810E+04  3.90591E+03  1.92210E+04
 -1.32043E+04  8.33885E+03 -1.01079E+04 -7.44890E+03  5.85730E+03 -1.05822E+04  1.75764E+04  6.07925E+03
  1.30220E+04  2.19261E+04 -5.86457E+03  2.49153E+04 -2.22853E+04  1.11910E+04 -2.74461E+04 -5.09116E+03
 -1.99271E+04 -1.72264E+04 -8.07925E+03 -1.97301E+04  3.71039E+03 -1.90920E+04  1.49721E+04 -1.76566E+04
  2.49860E+04 -1.24901E+04  3.18688E+04  2.50045E+03  2.34241E+04  1.91437E+04  4.06752E+03  3.59729E+04
 -1.76105E+04  3.01665E+04 -2.78607E+04  1.04011E+04 -2.01537E+04 -1.02831E+04 -4.24263E+03 -1.37078E+04
  1.58650E+03 -3.15591E+03 -4.54042E+03  6.62911E+03 -1.56556E+04  5.06597E+03 -1.57993E+04 -6.77134E+03
 -9.99756E+03 -1.85049E+04  5.11390E+03 -2.22466E+04  1.47583E+04 -1.61302E+04  1.74435E+04 -1.68448E+03
  1.11577E+04  1.26505E+04 -1.02689E+03  1.85624E+04 -1.26772E+04  1.02560E+04 -1.82879E+04 -4.16995E+03
 -1.34966E+04 -1.64202E+04 -1.75635E+03 -2.22012E+04  1.00554E+04 -1.82935E+04  1.86201E+04 -9.02024E+03
  1.71669E+04  4.48988E+02  1.26539E+04  4.22180E+03  6.47360E+03  1.07450E+03  9.05169E+03 -1.75656E+03
  1.64238E+04  3.07626E+03  1.84930E+04  1.45085E+04  1.17234E+04  2.94071E+04 -2.90559E+03  3.26460E+04
 -1.92332E+04  2.61976E+04 -3.05020E+04  1.25135E+04 -3.16476E+04 -2.37850E+03 -2.64232E+04 -1.85474E+04
 -1.14889E+04 -2.61591E+04  8.76617E+03 -2.35572E+04  2.03785E+04 -1.25155E+04  1.81134E+04  5.28991E+03
  7.06055E+03  1.39365E+04 -8.83186E+03  1.19984E+04 -1.55297E+04  2.42638E+03 -1.18456E+04 -9.43503E+03
 -3.36853E+02 -1.46948E+04  7.46770E+03 -1.08767E+04  9.60552E+03 -1.40302E+03  2.47848E+03  6.15400E+03
 -6.77106E+03  2.01772E+03 -5.22393E+03 -5.39079E+03 -1.54839E+02 -1.28206E+04  9.04889E+03 -1.31247E+04
  1.57163E+04 -6.56472E+03  1.66635E+04  3.10056E+03  1.45691E+04  1.24434E+04  6.88471E+03  1.87142E+04
 -2.86219E+03  2.12652E+04 -1.30388E+04  1.29767E+04 -1.47934E+04  3.02176E+03 -1.04661E+04 -3.17166E+03
 -5.08405E+03 -4.35978E+03 -5.93827E+02  1.12688E+03 -2.20346E+03  2.42670E+03 -4.50570E+03  4.24699E+03
 -1.00271E+04 -9.36176E+02 -1.08245E+04 -9.08538E+03 -4.32355E+03 -1.43495E+04  4.62218E+03 -1.10597E+04
  9.06356E+03 -4.73365E+03  6.51767E+03  2.76313E+03  8.78804E+00  3.95337E+03 -4.56716E+03 -3.68837E+02
 -4.64140E+03 -6.65938E+03 -6.91083E+02 -9.93147E+03  5.42683E+03 -1.05917E+04  1.29131E+04 -5.69047E+03
  1.53541E+04  1.43607E+03  1.12858E+04  8.58003E+03  2.17396E+03  1.18335E+04 -6.84877E+03  1.04164E+04
 -8.54955E+03  3.09348E+03 -4.62624E+03 -1.79957E+03  1.64152E+03 -2.81923E+03  5.97085E+03 -1.16955E+03
  5.04118E+03  4.26273E+03  8.45219E+02  8.38137E+03 -5.76500E+03  8.07071E+03 -1.06076E+04  2.20540E+03
 -6.26153E+03 -5.16110E+03  3.31754E+02 -8.79114E+03  5.51214E+03 -4.28691E+03  5.48299E+03  1.65260E+03
  1.05791E+03  5.36747E+03 -5.50749E+03  6.48858E+03 -7.43251E+03  3.21916E+03 -7.56844E+03 -2.36199E+03
 -4.49652E+03 -9.08117E+03  2.15794E+03 -1.02183E+04  8.78320E+03 -6.21196E+03  9.65698E+03  1.18192E+03
  6.29443E+03  7.53325E+03 -3.17305E+01  9.69259E+03 -6.96990E+03  5.44252E+03 -7.49632E+03 -7.64292E+02
 -7.23463E+03 -6.83413E+03 -1.52822E+03 -7.11791E+03  3.39488E+03 -6.28322E+03  4.45054E+03 -2.97127E+03
  3.30587E+03  7.83177E+02  3.55401E+01  1.13073E+03  1.66241E+02 -1.47251E+03  6.25710E+02 -3.80988E+03
  5.90553E+03 -1.96640E+03  8.41360E+03  1.12935E+03  8.41578E+03  5.57827E+03  6.84990E+03  1.13480E+04
 -2.25556E+03  1.28305E+04 -1.13087E+04  9.86557E+03 -1.43260E+04  1.87607E+03 -1.13058E+04 -4.07338E+03
 -5.75409E+03 -9.63710E+03 -3.27318E+02 -7.85187E+03  3.14707E+03 -3.72818E+03  2.61430E+03 -2.97015E+03
  2.36252E+03 -1.90467E+03  2.60285E+03 -2.94946E+03  3.96826E+03 -2.07092E+03  4.94279E+03  5.58844E+01
  6.53888E+03  1.43702E+03  2.50205E+03  5.34224E+03 -1.87743E+03  5.05086E+03 -6.28248E+03  4.03740E+03
 -7.68273E+03 -1.23351E+03 -3.57631E+03 -5.08364E+03 -2.71185E+02 -7.86058E+03  4.55214E+03 -8.03743E+03
  8.23180E+03 -4.99449E+03  1.00356E+04  9.30045E+02  7.15260E+03  6.68182E+03  1.18450E+03  9.18724E+03
 -3.67910E+03  8.04141E+03 -5.09245E+03  2.60303E+03 -3.31524E+03 -1.22693E+03 -1.15525E+03 -8.59493E+02
 -7.16941E+02 -6.32910E+01 -1.38572E+03  2.41522E+03 -3.78663E+03  1.26582E+03 -5.67499E+03 -8.09108E+02
 -3.15684E+03 -5.48123E+03  2.68361E+02 -7.36665E+03  4.47468E+03 -6.79175E+03  6.49436E+03 -1.94889E+03
  6.83989E+03  3.63319E+03  3.27106E+03  5.85141E+03 -1.46679E+03  7.43748E+03 -4.66946E+03  4.09160E+03
 -6.23759E+03  7.90693E+02 -5.41461E+03 -4.06777E+03 -5.59768E+02 -5.52845E+03  2.65096E+03 -4.28989E+03
  4.22655E+03 -1.73311E+03  3.11137E+03  7.78180E+02  9.21266E+02  2.49883E+03  6.44137E+02  6.82850E+02
  1.98372E+03  1.10067E+03  1.83447E+03  1.20329E+03  1.79726E+03  2.64805E+03  1.93055E+03  3.43643E+03
 -1.90177E+03  5.05394E+03 -4.33928E+03  5.88975E+03 -6.23962E+03  1.58377E+03 -6.96563E+03 -1.94279E+03
 -2.97344E+03 -6.63634E+03  9.22700E+02 -7.32110E+03  3.88224E+03 -4.58220E+03  4.98138E+03 -1.25491E+03
  4.47193E+03  2.65790E+03  6.30080E+02  3.63897E+03 -1.52144E+03  2.28800E+03 -1.99541E+03 -1.69580E+02
 -1.01757E+03 -2.89338E+03  1.80722E+03 -3.10634E+03  2.41293E+03 -1.58027E+03  2.43137E+03  4.82237E+02
  1.56256E+03  7.98958E+02  5.78890E+02  3.27123E+02 -1.19985E+02  1.08890E+03  1.85374E+03 -3.68659E+02
  7.28482E+02 -4.35051E+02  2.73338E+03  8.89286E+02  1.11691E+03  4.07874E+03 -7.89115E+02  4.55831E+03
 -3.02183E+03  2.43327E+03 -3.60518E+03  7.29230E+02 -3.48173E+03 -1.16715E+03 -9.79467E+02 -2.37361E+03
  5.91788E+02 -2.67206E+03  1.43652E+03 -1.20364E+03  1.04449E+03  1.36431E+03 -7.77071E+02  1.74275E+03
 -2.81060E+03  1.12640E+03 -2.61594E+03 -1.80630E+03 -1.43697E+03 -3.54800E+03  5.09610E+02 -3.32328E+03
  1.63676E+03 -1.35198E+03  1.91775E+03 -1.88694E+02  2.17807E+03  6.03059E+02  5.60292E+02  1.70925E+03
 -8.81201E+02  1.50845E+02 -1.68181E+03 -8.65225E+02  8.38483E+02 -1.97045E+03  3.02912E+03 -1.66334E+03
  3.13800E+03  4.23005E+02  4.22861E+03  1.94676E+03  1.30676E+03  3.25882E+03 -7.98376E+02  3.63493E+03
 -2.86126E+03  1.35302E+03 -2.94892E+03 -4.14151E+02 -1.91255E+03 -2.85552E+03  8.28808E+02 -1.63100E+03
  2.37434E+03 -1.07088E+03  1.80915E+03  7.75635E+02  5.56375E+02  2.26055E+03  1.04675E+02  2.18514E+03
 -8.80463E+02  1.65596E+03 -8.48184E+02  4.33471E+02 -2.10242E+01  8.52882E+02 -8.84127E+02  6.86611E+02
 -1.28927E+03  1.46807E+03 -2.85642E+03  1.16162E+03 -3.38797E+03  1.52792E+02 -4.10071E+03 -2.21167E+03
 -2.00825E+03 -4.60060E+03  7.35132E+02 -5.59824E+03  2.40485E+03 -4.32230E+03  5.04716E+03 -1.87222E+03
  4.02325E+03  2.64497E+02  2.51850E+03  3.11281E+03 -3.58590E+02  3.20540E+03 -1.46684E+03  2.67570E+03
 -1.85712E+03  1.15307E+03 -1.04633E+03 -2.74882E+02 -3.47484E+02  7.96180E+00 -6.64704E+02 -1.02605E+02
 -1.16190E+03 -1.65163E+02 -1.05794E+03  1.92575E+02 -4.93642E+01 -8.33070E+02 -3.55077E+02 -1.48949E+03
  2.11056E+03 -1.12582E+03  1.58674E+03  6.93875E+01  2.40883E+03  2.10484E+03 -4.58004E+01  2.82717E+03
 -1.89371E+03  3.97979E+03 -3.35949E+03  2.09867E+03 -3.71488E+03 -4.04410E+02 -2.93909E+03 -2.36367E+03
 -1.55853E+03 -2.89297E+03  1.00341E+03 -2.78402E+03  1.86561E+03 -1.51220E+03  1.80628E+03  1.82339E+02
  1.33104E+03  6.49874E+02  1.33856E+02  8.78723E+02 -7.91470E+02 -3.15866E+02 -1.32967E+02 -6.13726E+02
  1.02310E+03 -6.92341E+00  1.18672E+03  6.63442E+02  7.52507E+02  9.97198E+02  2.69656E+02  1.31986E+03
 -1.38591E+03  1.40944E+03 -1.75591E+03  9.22209E+01 -1.61995E+03 -1.27979E+03  8.19187E+01 -2.66644E+03
  1.35586E+03 -1.65744E+03  2.00224E+03 -2.45552E+02  2.16418E+03 -1.66377E+02  1.10485E+03  1.88399E+03
  5.75841E+02  1.51787E+03 -5.60773E+02  1.12214E+03 -1.23342E+03  8.29209E+02 -9.63233E+02  4.51224E+02
 -2.08160E+02 -3.66209E+01 -7.10722E+02  2.44345E+02 -1.16462E+03  2.06987E+02 -1.59790E+03 -3.95458E+02
 -1.74853E+03 -4.68657E+02 -5.20014E+02 -2.09858E+03  9.62438E+02 -2.93620E+03  1.77872E+03 -1.03460E+03
  1.54827E+03  4.41066E+02  4.79813E+02  1.10259E+03 -3.35821E+02  1.96564E+03 -1.09533E+03  1.36042E+03
