 $NMID ID='MM_0lb_SNR800_17hz_g55_18.RAW', FMTDAT='(8E13.5)'
 TRAMP=1., VOLUME=1. $END
  3.09744E+05  4.13936E+02  3.37541E+05  2.50529E+05  8.47691E+04  3.37747E+05 -1.32259E+05  2.50598E+05
 -1.90125E+05  8.27296E+04 -1.11492E+05 -3.27887E+04  8.44666E+02 -5.04125E+04  5.37135E+04 -1.29935E+02
  3.52028E+04  5.29444E+04 -1.67807E+04  7.49988E+04 -6.04027E+04  6.34928E+04 -8.38730E+04  3.20189E+04
 -8.04065E+04 -1.11078E+04 -5.68647E+04 -5.09932E+04 -1.50593E+04 -6.90642E+04  2.72592E+04 -4.55481E+04
  3.97366E+04  3.72927E+03  1.59014E+04  4.73002E+04 -3.44622E+04  4.70602E+04 -6.63971E+04 -4.65377E+02
 -5.27435E+04 -5.66624E+04 -6.64233E+03 -7.60684E+04  3.37905E+04 -5.46437E+04  4.73733E+04 -1.67783E+04
  4.26578E+04  1.11013E+04  3.10774E+04  2.50359E+04  1.55417E+04  2.90396E+04 -4.99968E+03  2.71465E+04
 -2.18920E+04  1.25145E+04 -1.86199E+04 -4.61202E+03  4.91544E+03 -7.57272E+03  2.21224E+04  1.18453E+04
  7.44763E+03  3.42572E+04 -3.13410E+04  3.51015E+04 -6.26306E+04  2.10799E+03 -5.62623E+04 -4.21370E+04
 -1.23061E+04 -6.20522E+04  3.95757E+04 -4.44923E+04  5.69834E+04 -2.08256E+03  3.31407E+04  3.17943E+04
 -6.24859E+03  3.47362E+04 -2.94664E+04  1.50516E+04 -2.94663E+04 -4.88009E+03 -1.59118E+04 -1.04306E+04
 -8.12051E+03 -1.25910E+04 -6.90446E+02 -1.74499E+04  7.08886E+03 -2.27404E+04  1.51044E+04 -1.35473E+04
  1.19705E+04  4.77728E+03 -7.47036E+03  1.29257E+04 -2.02888E+04 -3.67428E+03 -8.12398E+03 -3.24601E+04
  2.18571E+04 -4.21520E+04  4.68258E+04 -1.93848E+04  4.41104E+04  1.90820E+04  1.50626E+04  4.31581E+04
 -1.55778E+04  3.22816E+04 -2.46598E+04  1.96701E+03 -9.18009E+03 -2.74350E+04  2.10438E+04 -3.29146E+04
  3.95932E+04 -8.55928E+03  3.38680E+04  2.37246E+04  1.70879E+04  4.48627E+04 -7.76867E+03  4.80830E+04
 -3.01607E+04  3.22318E+04 -4.00706E+04  8.89549E+03 -4.05751E+04 -1.61430E+04 -2.24713E+04 -3.66094E+04
  6.89174E+03 -3.62906E+04  3.06283E+04 -1.39252E+04  2.81883E+04  1.09738E+04  3.33421E+03  1.82061E+04
 -1.30829E+04  7.91053E+03 -1.01950E+04 -7.56280E+03  5.78344E+03 -1.02518E+04  1.78177E+04  6.06217E+03
  1.29143E+04  2.18338E+04 -6.44860E+03  2.42293E+04 -2.19905E+04  1.06132E+04 -2.65404E+04 -5.27318E+03
 -1.89181E+04 -1.69708E+04 -7.23304E+03 -1.89846E+04  3.95016E+03 -1.75359E+04  1.42600E+04 -1.62672E+04
  2.43399E+04 -1.22243E+04  3.03944E+04  1.89698E+03  2.27636E+04  1.84621E+04  4.20843E+03  3.44465E+04
 -1.70460E+04  2.92396E+04 -2.71163E+04  9.82872E+03 -2.05836E+04 -1.04219E+04 -4.21674E+03 -1.38783E+04
  2.34015E+03 -3.18136E+03 -3.89233E+03  6.20917E+03 -1.46530E+04  5.36168E+03 -1.48948E+04 -6.15021E+03
 -9.31490E+03 -1.73835E+04  5.14489E+03 -2.11416E+04  1.43007E+04 -1.53175E+04  1.66465E+04 -1.76191E+03
  1.03505E+04  1.21119E+04 -6.52169E+02  1.76125E+04 -1.19699E+04  1.00355E+04 -1.71066E+04 -3.60470E+03
 -1.26500E+04 -1.57841E+04 -1.50311E+03 -2.12191E+04  9.24959E+03 -1.72526E+04  1.76665E+04 -8.19505E+03
  1.64044E+04  2.89277E+02  1.17787E+04  3.95772E+03  5.87131E+03  7.01555E+02  8.72985E+03 -1.47655E+03
  1.55045E+04  2.58604E+03  1.69003E+04  1.39008E+04  1.08368E+04  2.73192E+04 -3.05813E+03  3.02882E+04
 -1.77441E+04  2.41073E+04 -2.82947E+04  1.17819E+04 -2.91719E+04 -1.98104E+03 -2.45530E+04 -1.67633E+04
 -1.09372E+04 -2.38360E+04  8.24729E+03 -2.15765E+04  1.87106E+04 -1.19067E+04  1.74842E+04  4.72306E+03
  7.04580E+03  1.26944E+04 -7.91240E+03  1.15122E+04 -1.46514E+04  2.46662E+03 -1.16216E+04 -8.94524E+03
  3.43825E+01 -1.40073E+04  6.88825E+03 -1.01439E+04  9.42610E+03 -1.32494E+03  1.94860E+03  5.90682E+03
 -6.08463E+03  1.94008E+03 -4.74338E+03 -4.86569E+03  2.97371E+02 -1.16218E+04  8.56249E+03 -1.20678E+04
  1.46909E+04 -5.79114E+03  1.47545E+04  2.83780E+03  1.30438E+04  1.12129E+04  6.05742E+03  1.71328E+04
 -2.68234E+03  1.87755E+04 -1.12901E+04  1.19055E+04 -1.34387E+04  3.26581E+03 -9.73699E+03 -2.52121E+03
 -5.12705E+03 -3.80002E+03 -7.38320E+02  1.11217E+03 -2.15601E+03  2.31921E+03 -4.29077E+03  4.09703E+03
 -9.23793E+03 -4.18001E+02 -9.91552E+03 -8.18812E+03 -4.03856E+03 -1.28246E+04  3.84239E+03 -9.76986E+03
  8.22449E+03 -4.18598E+03  5.99675E+03  2.49601E+03  4.47085E+02  3.60760E+03 -4.25122E+03 -1.19633E+02
 -4.14142E+03 -5.92245E+03 -5.19084E+02 -8.89396E+03  4.62222E+03 -9.02797E+03  1.16971E+04 -4.76532E+03
  1.38204E+04  9.09527E+02  9.96228E+03  7.76447E+03  2.14608E+03  1.02563E+04 -5.96663E+03  9.65337E+03
 -8.00275E+03  2.80256E+03 -4.46866E+03 -1.62071E+03  1.30518E+03 -2.48071E+03  4.96549E+03 -9.69302E+02
  4.54481E+03  3.61038E+03  1.14035E+03  7.40798E+03 -4.84690E+03  7.06803E+03 -8.90363E+03  1.62958E+03
 -5.78950E+03 -4.53902E+03  2.75006E+02 -7.75211E+03  4.50617E+03 -4.15950E+03  4.47350E+03  1.31853E+03
  7.90429E+02  4.24013E+03 -4.77476E+03  5.64749E+03 -6.31234E+03  2.58093E+03 -6.05955E+03 -1.61695E+03
 -3.49279E+03 -7.44926E+03  1.50869E+03 -8.55533E+03  7.47708E+03 -5.60335E+03  8.03849E+03  1.40229E+03
  5.16054E+03  6.83479E+03 -2.85882E+02  8.42269E+03 -6.16990E+03  4.65028E+03 -6.85900E+03 -5.24104E+02
 -6.31384E+03 -5.78492E+03 -1.64702E+03 -6.26347E+03  3.22287E+03 -5.19073E+03  3.65202E+03 -3.05617E+03
  3.14743E+03  5.06184E+02 -3.09392E+02  1.20085E+03  1.23773E+02 -8.59780E+02  7.71967E+02 -2.38543E+03
  4.61889E+03 -1.35351E+03  6.87485E+03  8.99529E+02  7.12215E+03  3.97604E+03  6.13483E+03  9.32263E+03
 -1.56641E+03  1.06570E+04 -9.56996E+03  8.01474E+03 -1.20626E+04  1.45959E+03 -9.55693E+03 -3.64152E+03
 -5.13657E+03 -8.21428E+03 -3.43290E+02 -6.55788E+03  2.46137E+03 -2.81114E+03  2.20664E+03 -2.84135E+03
  1.56694E+03 -1.66852E+03  2.74884E+03 -2.34914E+03  3.86023E+03 -1.62112E+03  4.22420E+03  2.35738E+02
  5.48607E+03  1.28781E+03  2.03046E+03  4.04180E+03 -1.35093E+03  3.93078E+03 -5.63562E+03  3.46936E+03
 -6.13600E+03 -1.06251E+03 -2.79167E+03 -4.23973E+03  1.47472E+01 -6.16863E+03  3.89303E+03 -6.56348E+03
  6.43797E+03 -4.09658E+03  8.37899E+03  5.04670E+02  5.88906E+03  5.48392E+03  1.15055E+03  7.24085E+03
 -2.63186E+03  6.79333E+03 -4.18354E+03  2.35655E+03 -2.61342E+03 -1.31775E+03 -1.09563E+03 -8.61415E+02
 -6.28275E+02  4.66700E+02 -1.20606E+03  2.08609E+03 -3.03489E+03  1.08409E+03 -4.66903E+03 -4.81137E+02
 -2.17934E+03 -4.63993E+03  4.90591E+02 -5.83733E+03  3.61169E+03 -5.33858E+03  4.83119E+03 -1.37728E+03
  5.40304E+03  2.85675E+03  2.67943E+03  4.56777E+03 -1.18616E+03  5.53420E+03 -3.58697E+03  3.22586E+03
 -5.06246E+03  4.80258E+02 -4.09252E+03 -2.99237E+03 -4.10086E+02 -3.98131E+03  2.31313E+03 -3.28598E+03
  3.31954E+03 -1.45936E+03  2.35383E+03  6.62526E+02  7.90634E+02  2.17035E+03  1.01638E+03  8.27884E+02
  1.78532E+03  7.73526E+02  1.77055E+03  1.17127E+03  1.43294E+03  2.48106E+03  1.68705E+03  2.65621E+03
 -1.13696E+03  3.75002E+03 -3.20348E+03  4.87052E+03 -4.30978E+03  1.39811E+03 -5.56752E+03 -1.17778E+03
 -2.46178E+03 -4.81846E+03  8.86813E+02 -5.94802E+03  2.82797E+03 -3.44509E+03  4.14462E+03 -6.88317E+02
  3.49982E+03  1.99767E+03  2.24439E+02  2.64280E+03 -1.27791E+03  1.46521E+03 -1.68198E+03 -2.74592E+02
 -8.79528E+02 -2.06748E+03  1.37297E+03 -2.38954E+03  1.93585E+03 -9.46165E+02  1.78712E+03  4.77809E+02
  1.12838E+03  4.61799E+02  7.83564E+02  2.34140E+02 -4.82541E+02  8.04692E+02  1.86894E+03 -1.14246E+02
  3.41693E+02 -2.06294E+02  2.27467E+03  6.67372E+02  5.71648E+02  2.70950E+03 -4.54416E+02  3.62725E+03
 -1.81544E+03  1.28049E+03 -2.52847E+03  2.76364E+02 -2.86874E+03 -7.67395E+02 -8.11258E+02 -1.41946E+03
  3.28901E+02 -1.35575E+03  1.17814E+03 -9.29615E+02  6.30048E+02  1.33022E+03 -1.00068E+03  1.43565E+03
 -2.17572E+03  6.79688E+02 -1.75774E+03 -1.59526E+03 -1.04285E+03 -2.69161E+03  4.34423E+02 -2.43197E+03
  5.11242E+02 -8.98589E+02  1.08227E+03  1.26660E+02  1.53096E+03 -7.33501E+01  2.47747E+02  1.61186E+03
 -7.81180E+02  3.00050E+02 -1.32131E+03 -2.81210E+02  7.07673E+02 -1.20623E+03  1.96832E+03 -1.25424E+03
  1.68227E+03  1.10809E+01  3.34565E+03  1.10808E+03  9.74208E+02  2.30466E+03 -5.80893E+02  2.43207E+03
 -2.03647E+03  7.32130E+02 -1.62497E+03 -3.56196E+02 -1.07489E+03 -1.81446E+03  7.04860E+02 -1.18052E+03
  2.02997E+03 -8.32849E+02  9.58170E+02  6.80704E+02  3.99818E+02  1.54702E+03  3.65366E+02  1.40656E+03
 -5.63389E+02  1.51486E+03 -6.74725E+02  4.33876E+02 -4.86785E+01  4.14733E+02 -9.90897E+02  7.77336E+02
 -8.37866E+02  1.30040E+03 -1.91356E+03  7.80367E+02 -2.32732E+03  1.92783E+02 -2.91919E+03 -1.57806E+03
 -1.56722E+03 -3.11199E+03  8.34037E+02 -3.67025E+03  1.53899E+03 -2.87458E+03  3.61664E+03 -1.23877E+03
  3.21523E+03 -7.13101E+00  1.69888E+03  1.92046E+03 -2.98028E+02  1.95516E+03 -9.24680E+02  1.70238E+03
 -1.12672E+03  8.98044E+02 -7.04908E+02 -2.68083E+02 -7.48828E+02  3.78347E+02 -8.71385E+02  1.81866E+02
 -1.12868E+03 -1.30127E+02 -7.72456E+02  3.61733E+01  1.91159E+02 -6.44130E+02 -2.41234E+02 -8.20978E+02
  1.43516E+03 -6.67407E+02  6.54316E+02  4.57172E+02  1.84615E+03  1.16636E+03 -5.02322E+02  2.02410E+03
 -1.14241E+03  2.60795E+03 -2.16718E+03  1.71509E+03 -2.30431E+03 -2.24063E+02 -1.78688E+03 -1.41915E+03
 -1.07950E+03 -1.69806E+03  3.45952E+02 -1.76600E+03  1.08424E+03 -8.63635E+02  1.10584E+03  2.77443E+02
  9.72406E+02  3.58908E+02  3.93662E+01  1.59158E+02 -6.73292E+02 -1.64821E+02 -7.89897E+01 -2.40168E+02
  9.58558E+02  2.50642E+02  5.87135E+02  4.45351E+02  9.94166E+01  5.27567E+02  3.92076E+02  4.84637E+02
 -5.56869E+02  8.84773E+02 -9.46437E+02  2.41259E+02 -7.45749E+02 -5.00956E+02  2.09590E+02 -1.46518E+03
  6.93583E+02 -1.06412E+03  8.57535E+02 -3.66315E+02  1.37994E+03 -2.79648E+02  1.03824E+03  9.92967E+02
  5.07013E+02  1.04759E+03 -3.74332E+02  9.68221E+02 -9.64639E+02  8.17420E+02 -5.90582E+02 -4.76991E-01
  1.17939E+00 -2.81034E+02 -4.54863E+02  3.11459E+02 -9.50326E+02  1.83142E+02 -1.10068E+03 -4.98933E+02
 -1.31166E+03  1.46119E+02 -4.58389E+02 -1.18715E+03  5.88224E+02 -1.57772E+03  1.04313E+03 -2.48404E+02
  1.21619E+03  2.94891E+02  1.02766E+02  4.85932E+02 -1.51627E+02  8.18416E+02 -9.97052E+02  9.08122E+02
