 $NMID ID='MM_0lb_SNR800_14hz_g40_87.RAW', FMTDAT='(8E13.5)'
 TRAMP=1., VOLUME=1. $END
  3.09862E+05  4.22570E+02  3.37405E+05  2.50643E+05  8.43187E+04  3.37438E+05 -1.32270E+05  2.50714E+05
 -1.90125E+05  8.32194E+04 -1.11522E+05 -3.26830E+04  1.11109E+03 -5.02341E+04  5.39808E+04 -7.38674E+01
  3.53568E+04  5.30423E+04 -1.69390E+04  7.53447E+04 -6.07888E+04  6.31547E+04 -8.36872E+04  3.19800E+04
 -8.06960E+04 -1.14587E+04 -5.68347E+04 -5.09067E+04 -1.52683E+04 -6.90304E+04  2.74250E+04 -4.55141E+04
  3.95058E+04  3.71593E+03  1.59802E+04  4.76344E+04 -3.40891E+04  4.67658E+04 -6.62688E+04 -6.40926E+02
 -5.27359E+04 -5.66862E+04 -6.33205E+03 -7.67779E+04  3.37198E+04 -5.44339E+04  4.74788E+04 -1.72893E+04
  4.32113E+04  1.13461E+04  3.14381E+04  2.52591E+04  1.56890E+04  2.92744E+04 -4.99598E+03  2.71308E+04
 -2.18826E+04  1.26459E+04 -1.87246E+04 -4.77495E+03  5.32170E+03 -7.48966E+03  2.18908E+04  1.18708E+04
  7.12512E+03  3.50684E+04 -3.14395E+04  3.48374E+04 -6.27884E+04  2.10208E+03 -5.63827E+04 -4.23899E+04
 -1.24206E+04 -6.25447E+04  3.94196E+04 -4.46533E+04  5.75271E+04 -2.25913E+03  3.34200E+04  3.18676E+04
 -5.99380E+03  3.51859E+04 -2.95856E+04  1.50936E+04 -2.99618E+04 -4.85524E+03 -1.59657E+04 -1.07321E+04
 -8.01022E+03 -1.26025E+04 -8.93342E+02 -1.74479E+04  7.21948E+03 -2.29117E+04  1.53512E+04 -1.32987E+04
  1.14655E+04  5.00271E+03 -7.62578E+03  1.30239E+04 -2.06951E+04 -4.05513E+03 -8.17503E+03 -3.29203E+04
  2.23970E+04 -4.27657E+04  4.71743E+04 -1.92589E+04  4.42311E+04  1.88715E+04  1.54848E+04  4.33382E+04
 -1.56420E+04  3.29902E+04 -2.51301E+04  1.76467E+03 -9.21255E+03 -2.73423E+04  2.06140E+04 -3.33725E+04
  4.04222E+04 -8.63602E+03  3.48372E+04  2.37243E+04  1.73027E+04  4.52759E+04 -8.29440E+03  4.90215E+04
 -3.08518E+04  3.27978E+04 -4.07639E+04  9.22557E+03 -4.18299E+04 -1.61975E+04 -2.28180E+04 -3.71657E+04
  7.08742E+03 -3.68983E+04  3.08996E+04 -1.41243E+04  2.86306E+04  1.12006E+04  3.96265E+03  1.88152E+04
 -1.35706E+04  8.01656E+03 -1.01420E+04 -7.33784E+03  6.03118E+03 -1.05982E+04  1.80044E+04  6.13930E+03
  1.35186E+04  2.19072E+04 -6.18039E+03  2.49044E+04 -2.24056E+04  1.06568E+04 -2.71400E+04 -4.99602E+03
 -1.98975E+04 -1.69761E+04 -7.57738E+03 -1.95448E+04  3.93214E+03 -1.87133E+04  1.48096E+04 -1.78194E+04
  2.50855E+04 -1.27156E+04  3.15592E+04  2.55215E+03  2.32320E+04  1.88421E+04  4.05200E+03  3.58219E+04
 -1.72366E+04  2.99949E+04 -2.76176E+04  1.00691E+04 -2.09094E+04 -1.02384E+04 -4.10971E+03 -1.38575E+04
  2.16988E+03 -3.14873E+03 -4.39299E+03  6.32490E+03 -1.55691E+04  5.31458E+03 -1.53980E+04 -6.55661E+03
 -9.95703E+03 -1.81672E+04  5.05394E+03 -2.22584E+04  1.49666E+04 -1.61890E+04  1.74399E+04 -1.63137E+03
  1.08160E+04  1.26169E+04 -6.54713E+02  1.86377E+04 -1.23032E+04  1.01787E+04 -1.81769E+04 -4.01766E+03
 -1.33094E+04 -1.63819E+04 -1.76388E+03 -2.19031E+04  1.00105E+04 -1.81186E+04  1.88509E+04 -8.95002E+03
  1.70517E+04  6.25248E+02  1.21982E+04  4.35012E+03  6.43478E+03  8.18454E+02  9.29832E+03 -1.33095E+03
  1.65905E+04  2.86936E+03  1.82832E+04  1.46705E+04  1.19430E+04  2.90389E+04 -2.92422E+03  3.25375E+04
 -1.89193E+04  2.58319E+04 -3.05459E+04  1.28099E+04 -3.18272E+04 -1.94022E+03 -2.65523E+04 -1.85475E+04
 -1.14927E+04 -2.60027E+04  8.93595E+03 -2.34883E+04  2.06825E+04 -1.24874E+04  1.86096E+04  5.07695E+03
  7.37726E+03  1.36429E+04 -8.66643E+03  1.21692E+04 -1.56228E+04  2.80107E+03 -1.18149E+04 -9.71971E+03
 -6.40501E+01 -1.48984E+04  7.66103E+03 -1.09437E+04  9.98830E+03 -1.38478E+03  2.48848E+03  6.33289E+03
 -6.94900E+03  2.11202E+03 -5.40294E+03 -5.46388E+03 -1.67965E+02 -1.29420E+04  9.21701E+03 -1.37432E+04
  1.59123E+04 -7.13221E+03  1.67461E+04  3.01208E+03  1.46910E+04  1.25055E+04  6.70980E+03  1.90503E+04
 -3.11412E+03  2.08057E+04 -1.33282E+04  1.29541E+04 -1.52248E+04  3.06368E+03 -1.06852E+04 -3.25852E+03
 -5.18786E+03 -4.44780E+03 -7.46336E+02  9.04337E+02 -2.13176E+03  2.51119E+03 -4.63792E+03  4.31239E+03
 -1.00897E+04 -6.04646E+02 -1.09246E+04 -8.45353E+03 -4.19044E+03 -1.45347E+04  4.41745E+03 -1.05542E+04
  8.80551E+03 -4.80395E+03  6.43107E+03  3.07248E+03  3.24143E+02  4.43390E+03 -4.95509E+03 -5.58425E+01
 -5.01710E+03 -6.94784E+03 -9.78175E+02 -1.02094E+04  5.46357E+03 -1.11585E+04  1.34793E+04 -5.72891E+03
  1.55111E+04  1.31507E+03  1.15566E+04  8.94686E+03  2.38100E+03  1.19232E+04 -6.47748E+03  1.08583E+04
 -8.63914E+03  3.33285E+03 -4.49327E+03 -1.93019E+03  1.48360E+03 -2.61424E+03  5.97891E+03 -1.15226E+03
  5.51555E+03  4.53476E+03  1.23720E+03  8.41063E+03 -5.96410E+03  8.09580E+03 -1.03684E+04  2.08666E+03
 -6.57063E+03 -5.24494E+03  2.56489E+02 -8.95395E+03  5.40795E+03 -4.49535E+03  5.80837E+03  1.59906E+03
  1.13046E+03  5.55878E+03 -5.48213E+03  6.93437E+03 -7.70680E+03  3.34603E+03 -7.52750E+03 -2.57255E+03
 -4.76850E+03 -9.20822E+03  2.19417E+03 -1.07311E+04  9.16694E+03 -6.37591E+03  1.00949E+04  1.20821E+03
  6.64980E+03  7.91245E+03 -4.93195E+02  1.01213E+04 -7.31825E+03  5.61674E+03 -7.50462E+03 -7.01238E+02
 -7.35416E+03 -6.76320E+03 -1.23397E+03 -7.29278E+03  3.86594E+03 -6.18080E+03  4.44342E+03 -3.09927E+03
  3.37215E+03  8.72023E+02 -5.08540E+02  1.59410E+03  1.38354E+02 -1.24237E+03  9.26436E+02 -3.43563E+03
  6.29186E+03 -1.95280E+03  8.81283E+03  1.39912E+03  9.08963E+03  5.66860E+03  6.96957E+03  1.14093E+04
 -2.64511E+03  1.33203E+04 -1.14475E+04  9.67832E+03 -1.48643E+04  1.73989E+03 -1.17632E+04 -4.40048E+03
 -6.07688E+03 -9.72717E+03 -5.38889E+02 -8.39864E+03  2.88620E+03 -4.17757E+03  2.97687E+03 -3.00308E+03
  2.21344E+03 -1.88032E+03  2.44331E+03 -2.94409E+03  4.57254E+03 -2.01901E+03  5.09506E+03  1.84497E+02
  6.55194E+03  1.49384E+03  2.35372E+03  5.15727E+03 -1.89828E+03  5.60965E+03 -6.40045E+03  4.61328E+03
 -7.90539E+03 -1.02131E+03 -4.25213E+03 -5.34216E+03  1.39384E+01 -8.70464E+03  4.85506E+03 -8.66173E+03
  8.66047E+03 -5.03002E+03  1.07186E+04  9.22742E+02  7.48647E+03  7.06708E+03  1.16262E+03  9.48874E+03
 -3.75402E+03  8.55814E+03 -5.82027E+03  2.77900E+03 -3.51763E+03 -1.10819E+03 -1.16255E+03 -1.00085E+03
 -4.92890E+02  2.00537E+02 -1.54739E+03  2.37350E+03 -3.79223E+03  1.52701E+03 -5.76999E+03 -6.91972E+02
 -3.35444E+03 -5.73238E+03  6.25103E+02 -7.66668E+03  4.70129E+03 -7.17327E+03  6.95882E+03 -1.86011E+03
  7.39940E+03  3.48005E+03  3.22758E+03  6.35410E+03 -1.28818E+03  7.72256E+03 -4.63533E+03  4.97982E+03
 -7.05344E+03  7.68912E+02 -5.66678E+03 -4.23475E+03 -6.35670E+02 -6.08194E+03  3.08938E+03 -4.80710E+03
  4.46104E+03 -1.85066E+03  3.17628E+03  1.31365E+03  1.35898E+03  2.38166E+03  9.68967E+02  9.00230E+02
  2.26858E+03  6.29068E+02  1.70545E+03  1.39540E+03  2.28135E+03  2.80168E+03  2.14315E+03  3.84802E+03
 -1.73094E+03  5.51166E+03 -4.95084E+03  6.51947E+03 -6.60341E+03  1.64868E+03 -7.83359E+03 -2.35779E+03
 -3.38886E+03 -7.03023E+03  1.35205E+03 -8.25391E+03  4.01314E+03 -5.11467E+03  5.91830E+03 -1.50498E+03
  4.67197E+03  3.02509E+03  9.06058E+02  3.92367E+03 -1.81403E+03  2.54393E+03 -2.75642E+03 -1.41611E+02
 -1.25529E+03 -2.81696E+03  1.83734E+03 -2.83649E+03  2.85511E+03 -1.57807E+03  2.62761E+03  5.45321E+02
  1.74273E+03  1.08694E+03  1.05865E+03  6.81193E+02 -3.03228E+02  1.25009E+03  1.64487E+03 -3.00861E+02
  7.71593E+02 -5.20057E+02  3.12952E+03  1.26976E+03  1.45541E+03  3.95924E+03 -5.53897E+02  5.00884E+03
 -3.36747E+03  2.80385E+03 -4.55807E+03  6.56657E+02 -4.14177E+03 -1.30704E+03 -9.04399E+02 -2.23074E+03
  8.26644E+02 -2.47985E+03  1.94627E+03 -1.34641E+03  1.39378E+03  1.83610E+03 -6.54816E+02  2.19831E+03
 -2.58873E+03  1.29238E+03 -2.80283E+03 -2.02916E+03 -1.87720E+03 -4.35634E+03  5.49222E+02 -3.39809E+03
  1.85598E+03 -1.82404E+03  2.11593E+03  8.36543E+01  2.41684E+03  5.14324E+02  3.72736E+02  2.21260E+03
 -1.05976E+03  3.71158E+02 -1.57332E+03 -9.06914E+02  1.12687E+03 -2.46066E+03  3.27808E+03 -1.98042E+03
  3.33519E+03  5.48803E+02  4.39662E+03  2.62521E+03  1.80040E+03  4.26515E+03 -1.33632E+03  3.80617E+03
 -3.49413E+03  1.17020E+03 -3.73487E+03 -5.92283E+02 -2.03204E+03 -2.73956E+03  6.44996E+02 -2.05697E+03
  2.66636E+03 -1.30259E+03  2.05444E+03  9.14136E+02  5.09550E+02  2.32129E+03  2.07264E+02  2.01949E+03
 -9.63897E+02  1.77195E+03 -7.41918E+02  4.97382E+02 -4.19919E+02  1.68999E+02 -9.78987E+02  1.08625E+03
 -8.70612E+02  1.87029E+03 -3.06922E+03  9.91160E+02 -4.06757E+03 -1.44894E+01 -4.95239E+03 -2.51830E+03
 -2.35303E+03 -5.17001E+03  8.50407E+02 -5.94912E+03  3.29325E+03 -4.93199E+03  5.96273E+03 -1.95526E+03
  5.48465E+03  4.59500E+02  3.27063E+03  3.82178E+03 -1.80882E+01  3.93762E+03 -1.86682E+03  3.29878E+03
 -2.02177E+03  1.25157E+03 -1.27602E+03 -1.76962E+02 -7.93963E+02  1.10746E+02 -9.02856E+02 -1.37117E+02
 -1.32831E+03 -1.12840E+01 -1.27714E+03 -3.72273E+01 -1.85474E+02 -1.12168E+03 -1.96291E+02 -1.66975E+03
  2.44757E+03 -1.27143E+03  1.86207E+03  3.15758E+02  3.03307E+03  2.30839E+03 -7.84570E+00  3.71990E+03
 -2.01952E+03  4.62867E+03 -4.08903E+03  2.70469E+03 -4.43780E+03 -5.08036E+02 -3.54712E+03 -3.03395E+03
 -1.85199E+03 -3.62579E+03  1.04561E+03 -3.29081E+03  2.27666E+03 -1.92649E+03  2.10440E+03  3.44999E+02
  1.53952E+03  1.17423E+03 -6.74403E+01  8.66967E+02 -8.84051E+02 -3.02200E+02 -2.78185E+02 -9.62286E+02
  1.10939E+03 -1.28106E+02  9.46320E+02  5.49204E+02  9.76215E+02  1.16163E+03  3.59886E+02  1.64111E+03
 -1.39086E+03  1.71995E+03 -2.09025E+03  2.53962E+02 -2.26378E+03 -1.53945E+03 -3.86162E+02 -3.07316E+03
  1.69562E+03 -2.47069E+03  2.36880E+03 -4.74458E+02  2.73679E+03 -5.95872E+01  1.62963E+03  2.26687E+03
  5.04630E+02  2.05504E+03 -9.05204E+02  1.67019E+03 -1.57706E+03  1.59763E+03 -1.15238E+03  1.97041E+02
 -4.07327E+02  1.10009E+02 -9.91648E+02  5.30621E+02 -1.23559E+03  1.85726E+02 -2.14948E+03 -6.42186E+02
 -2.02162E+03 -5.13468E+02 -6.99715E+02 -2.52979E+03  1.21476E+03 -2.99878E+03  2.24265E+03 -6.86675E+02
  2.40255E+03  4.12370E+02  8.23598E+02  1.37819E+03 -1.89173E+02  2.43159E+03 -1.81928E+03  1.34675E+03
