 $NMID ID='MM_0lb_SNR800_20hz_g60_57.RAW', FMTDAT='(8E13.5)'
 TRAMP=1., VOLUME=1. $END
  3.09713E+05  5.11444E+02  3.37608E+05  2.50604E+05  8.47418E+04  3.37746E+05 -1.32589E+05  2.50688E+05
 -1.89794E+05  8.28699E+04 -1.11475E+05 -3.29212E+04  1.30868E+03 -5.04013E+04  5.40415E+04  1.35422E+02
  3.48571E+04  5.26495E+04 -1.67711E+04  7.52350E+04 -6.06042E+04  6.32518E+04 -8.35396E+04  3.20113E+04
 -8.01465E+04 -1.13225E+04 -5.67756E+04 -5.08625E+04 -1.50125E+04 -6.88722E+04  2.68590E+04 -4.52062E+04
  3.95372E+04  3.86421E+03  1.57099E+04  4.75338E+04 -3.40464E+04  4.67251E+04 -6.57135E+04 -3.75696E+02
 -5.25120E+04 -5.64200E+04 -6.62642E+03 -7.60414E+04  3.37348E+04 -5.38159E+04  4.68552E+04 -1.65494E+04
  4.19987E+04  1.12254E+04  3.09674E+04  2.49330E+04  1.58987E+04  2.88510E+04 -4.99611E+03  2.67724E+04
 -2.17467E+04  1.24488E+04 -1.90096E+04 -4.57206E+03  4.74857E+03 -7.45618E+03  2.14916E+04  1.15364E+04
  7.23946E+03  3.41108E+04 -3.10104E+04  3.46264E+04 -6.20439E+04  2.21656E+03 -5.60713E+04 -4.16206E+04
 -1.23358E+04 -6.18317E+04  3.84424E+04 -4.39308E+04  5.64359E+04 -1.97011E+03  3.26796E+04  3.10082E+04
 -6.24532E+03  3.40274E+04 -2.87943E+04  1.41548E+04 -2.83546E+04 -5.04273E+03 -1.48413E+04 -1.06253E+04
 -7.58786E+03 -1.18933E+04 -7.04789E+02 -1.71879E+04  6.95571E+03 -2.27535E+04  1.47083E+04 -1.38503E+04
  1.19964E+04  4.64263E+03 -6.97982E+03  1.28522E+04 -1.96556E+04 -2.95142E+03 -8.21900E+03 -3.12586E+04
  2.14075E+04 -4.13194E+04  4.56629E+04 -1.87166E+04  4.26589E+04  1.85338E+04  1.45837E+04  4.24401E+04
 -1.54385E+04  3.18138E+04 -2.41598E+04  1.32809E+03 -8.62008E+03 -2.67121E+04  2.06534E+04 -3.17289E+04
  3.87440E+04 -7.89416E+03  3.24579E+04  2.30697E+04  1.60235E+04  4.33110E+04 -7.77359E+03  4.62470E+04
 -2.90264E+04  3.07240E+04 -3.84864E+04  8.75886E+03 -3.90604E+04 -1.54878E+04 -2.15845E+04 -3.54553E+04
  6.99040E+03 -3.47833E+04  2.97947E+04 -1.30568E+04  2.73962E+04  1.08177E+04  3.10579E+03  1.81866E+04
 -1.31319E+04  7.22592E+03 -9.84831E+03 -7.55768E+03  5.85071E+03 -1.03154E+04  1.75390E+04  6.16921E+03
  1.25845E+04  2.17081E+04 -6.40790E+03  2.36654E+04 -2.17640E+04  9.47531E+03 -2.55563E+04 -6.02130E+03
 -1.73242E+04 -1.66479E+04 -6.19348E+03 -1.71195E+04  3.81906E+03 -1.56661E+04  1.29125E+04 -1.51702E+04
  2.16296E+04 -1.18764E+04  2.85213E+04  1.57179E+03  2.16386E+04  1.69581E+04  4.06064E+03  3.31461E+04
 -1.63146E+04  2.79373E+04 -2.59491E+04  9.87818E+03 -1.98715E+04 -1.00929E+04 -3.87330E+03 -1.38755E+04
  2.48144E+03 -4.25701E+03 -2.96005E+03  5.69626E+03 -1.33246E+04  5.57809E+03 -1.35331E+04 -5.33197E+03
 -8.61948E+03 -1.56770E+04  4.49507E+03 -1.96334E+04  1.28655E+04 -1.43513E+04  1.50220E+04 -1.34704E+03
  9.03817E+03  1.11546E+04 -1.20395E+03  1.61135E+04 -1.05805E+04  9.04351E+03 -1.57901E+04 -3.31229E+03
 -1.18150E+04 -1.45625E+04 -1.45495E+03 -1.92580E+04  8.92920E+03 -1.54108E+04  1.61853E+04 -7.34293E+03
  1.47021E+04  9.23209E+02  1.08379E+04  3.66242E+03  5.03131E+03  4.12401E+02  7.60103E+03 -1.34505E+03
  1.43001E+04  2.83341E+03  1.48497E+04  1.25734E+04  9.40395E+03  2.48398E+04 -3.24998E+03  2.70006E+04
 -1.61578E+04  2.06432E+04 -2.47453E+04  9.78760E+03 -2.53353E+04 -1.91867E+03 -2.17519E+04 -1.43354E+04
 -1.02431E+04 -2.06772E+04  7.09206E+03 -1.90412E+04  1.66490E+04 -1.07609E+04  1.57709E+04  3.47709E+03
  6.59002E+03  1.16614E+04 -6.96381E+03  1.04184E+04 -1.35546E+04  2.40120E+03 -1.04000E+04 -7.96102E+03
  2.83137E+01 -1.24432E+04  6.34717E+03 -9.40373E+03  7.61149E+03 -1.31687E+03  1.59277E+03  4.84432E+03
 -5.50185E+03  1.34335E+03 -3.80964E+03 -4.46880E+03  6.74221E+02 -1.00335E+04  7.91354E+03 -1.00053E+04
  1.23686E+04 -4.75538E+03  1.20732E+04  2.79793E+03  1.03244E+04  9.56883E+03  5.13237E+03  1.40580E+04
 -1.68038E+03  1.59649E+04 -9.37003E+03  1.03257E+04 -1.11213E+04  3.07954E+03 -8.35066E+03 -2.01067E+03
 -4.63251E+03 -3.24907E+03 -8.81656E+02  1.58140E+03 -1.95941E+03  1.76573E+03 -3.33148E+03  3.61026E+03
 -7.85328E+03 -3.12162E+02 -8.86485E+03 -7.02018E+03 -3.84708E+03 -1.11836E+04  3.55802E+03 -8.12887E+03
  7.04462E+03 -3.92061E+03  5.04732E+03  2.26594E+03  6.50413E+02  3.18031E+03 -3.25643E+03  1.28561E+02
 -3.10434E+03 -5.06846E+03 -8.43366E+02 -7.01688E+03  3.81349E+03 -7.68810E+03  9.43790E+03 -3.94810E+03
  1.14609E+04  7.43834E+02  8.69140E+03  6.05680E+03  1.79755E+03  8.37682E+03 -5.14610E+03  8.15741E+03
 -6.39983E+03  2.79321E+03 -3.59767E+03 -1.10604E+03  1.38069E+03 -1.92973E+03  4.47251E+03 -8.21556E+02
  4.06807E+03  3.32746E+03  1.13756E+03  5.95634E+03 -4.28007E+03  6.08120E+03 -7.48101E+03  1.62607E+03
 -4.76424E+03 -3.46895E+03  5.25730E+02 -6.38257E+03  3.24728E+03 -3.37665E+03  3.69439E+03  6.89510E+02
  1.52402E+02  2.88134E+03 -4.25914E+03  4.28698E+03 -4.45045E+03  2.20712E+03 -4.25017E+03 -9.95575E+02
 -2.58702E+03 -5.83853E+03  9.74892E+02 -6.93649E+03  5.67238E+03 -4.41041E+03  6.21575E+03  8.88647E+02
  4.22873E+03  4.89551E+03  3.13759E+02  6.90083E+03 -4.84796E+03  3.88206E+03 -4.91372E+03 -3.86657E+02
 -5.49511E+03 -4.68427E+03 -1.24858E+03 -4.71168E+03  2.38130E+03 -4.42780E+03  2.68790E+03 -2.58941E+03
  2.72137E+03  1.72836E+02  1.26172E+02  9.89145E+02  6.33682E+02 -2.24239E+02 -7.31943E+01 -1.73450E+03
  3.55773E+03 -3.06191E+02  4.63350E+03  5.27906E+02  4.92978E+03  2.62106E+03  4.99681E+03  6.47726E+03
 -1.24144E+03  7.58531E+03 -7.10927E+03  5.93742E+03 -9.03512E+03  1.11701E+03 -6.93580E+03 -2.49271E+03
 -3.76242E+03 -6.10606E+03 -5.59929E+02 -4.50996E+03  1.85603E+03 -1.53886E+03  1.44610E+03 -1.95560E+03
  9.28167E+02 -1.42512E+03  1.91509E+03 -2.48584E+03  3.56090E+03 -1.36617E+03  3.56902E+03  5.99242E+02
  4.18335E+03  8.91867E+02  7.67111E+02  3.25807E+03 -1.49247E+03  2.20666E+03 -4.04895E+03  2.03507E+03
 -4.24996E+03 -9.99766E+02 -1.41676E+03 -2.85526E+03  3.34316E+02 -4.36998E+03  2.75582E+03 -4.58900E+03
  4.32863E+03 -3.01621E+03  5.90095E+03 -1.14018E+02  4.38851E+03  3.94665E+03  1.01649E+03  5.07493E+03
 -1.59658E+03  5.25943E+03 -2.88051E+03  1.57699E+03 -1.59902E+03 -8.83983E+02 -7.50587E+01 -5.57899E+02
 -2.87405E+02  5.47237E+02 -9.28864E+02  1.96107E+03 -2.29390E+03  9.03517E+02 -3.56629E+03 -2.41305E+02
 -1.09434E+03 -3.61176E+03  1.12565E+03 -3.90328E+03  2.22448E+03 -3.67497E+03  2.96491E+03 -1.05045E+03
  3.21531E+03  1.87760E+03  1.69319E+03  2.66382E+03 -5.54414E+02  3.79464E+03 -2.29490E+03  2.02845E+03
 -3.20655E+03  6.48737E+02 -2.67283E+03 -2.14302E+03 -2.11269E+02 -2.78717E+03  1.19184E+03 -2.19551E+03
  2.27209E+03 -1.43711E+03  1.56376E+03  3.07748E+02  3.19929E+02  1.51248E+03  8.34969E+02  5.46204E+02
  1.75528E+03  6.97539E+02  1.05012E+03  9.76516E+02  7.35437E+02  2.18274E+03  1.33161E+03  1.37844E+03
 -1.16855E+03  2.33631E+03 -2.00732E+03  3.53766E+03 -2.18630E+03  1.03017E+03 -3.18187E+03 -2.13419E+02
 -1.34374E+03 -2.84790E+03  7.46199E+02 -3.92711E+03  1.62952E+03 -1.83061E+03  2.35183E+03 -6.48037E+02
  1.73499E+03  1.54738E+03  3.43341E+02  1.58949E+03 -6.23760E+02  9.71715E+02 -4.44826E+02 -5.63308E+00
 -4.58519E+02 -1.25812E+03  1.09791E+03 -1.17412E+03  8.36747E+02 -7.22998E+02  1.22081E+03  2.95838E+02
  4.47697E+02  2.05596E+02  7.73353E+02 -3.68310E+02 -2.38879E+02  7.57655E+02  1.43918E+03 -2.34718E+02
 -1.37645E+02  1.46840E+02  1.53908E+03  3.95268E+02 -1.94960E+02  2.20669E+03 -4.06747E+02  2.38308E+03
 -1.21782E+03  7.32936E+02 -1.26640E+03  1.99945E+02 -1.60644E+03 -7.10716E+02 -8.09749E+01 -6.86926E+02
  3.58724E+02 -8.59520E+02  7.51842E+02 -6.26523E+02  5.69557E+02  7.93979E+02 -7.13599E+02  6.08136E+02
 -1.13478E+03  5.43578E+02 -7.27702E+02 -1.51281E+03 -4.64327E+02 -1.75874E+03  9.93847E+01 -1.02251E+03
  4.06732E+02 -1.31671E+02  2.55931E+02  3.35517E+02  1.01238E+03 -2.41558E+02  2.50474E+02  9.39953E+02
 -3.01662E+02 -1.74317E+02 -7.81765E+02  2.35466E+01  6.97726E+02 -4.06340E+02  1.22436E+03 -6.69574E+02
  3.77730E+02  1.29353E+02  2.41612E+03  2.32201E+02  7.87794E+02  9.40145E+02  1.81778E+01  1.21967E+03
 -8.18867E+02 -3.02358E+02 -1.12141E+03  5.21466E+01 -7.45482E+02 -1.05862E+03  2.21774E+02  1.93747E-01
  9.27709E+02 -5.88961E+02  3.08024E+02  4.91358E+02 -1.17848E+02  9.74249E+02  2.83656E+02  8.48481E+02
 -4.55868E+01  8.12802E+02 -2.29046E+02  3.72072E+02  2.46297E+02  4.13505E+02 -5.95907E+02  1.93177E+02
 -7.22815E+02  8.50959E+02 -1.71330E+03  4.94139E+01 -9.34248E+02  8.55352E+00 -1.89745E+03 -4.31084E+02
 -7.61201E+02 -1.70428E+03  4.57403E+02 -1.94573E+03  4.61435E+02 -1.91877E+03  2.06241E+03 -1.12961E+03
  1.67122E+03 -2.60769E+02  7.73912E+02  1.01816E+03 -6.95822E+02  6.60583E+02 -3.98146E+02  8.35266E+02
 -7.45771E+02  4.46574E+02 -5.21148E+02 -7.00690E+01 -4.90066E+02  4.92802E+02 -6.01667E+02  1.95567E+02
 -1.10554E+03 -1.59633E+02 -7.85266E+02  3.57338E+02  5.02276E+02 -4.82293E+02 -2.24633E+02 -5.92499E+02
  1.04250E+03 -4.80010E+02  3.36182E+01 -1.06438E+01  7.90166E+02  6.91705E+02 -2.48851E+02  6.89790E+02
 -7.17408E+02  1.66213E+03 -9.11357E+02  9.50416E+02 -9.30496E+02 -3.68978E+02 -6.52297E+02 -6.17651E+02
 -4.96313E+02 -6.85425E+02  1.02149E+02 -5.01695E+02  2.71887E+02 -1.96897E+02  3.76793E+02  1.67381E+02
  4.72177E+02  8.88342E+01  1.10786E+01  2.42578E+02 -3.20373E+02 -9.36273E+01 -4.44224E+01 -3.38395E+01
  1.57900E+02  3.78260E+02  1.56442E+02  3.29036E+02 -2.87294E+02  2.95899E+02  2.83165E+02  1.49339E+02
 -1.73557E+02  2.91345E+02 -2.84550E+00  2.31204E+02 -8.05743E+01 -1.43126E+01  2.05189E+02 -8.55754E+02
  4.43757E+02 -6.30145E+02  2.70720E+02  2.03479E+02  3.97972E+02 -7.14275E+02  2.58493E+02  5.70040E+02
  2.73495E+02  8.74554E+01 -8.74862E+01  3.35233E+02 -3.06424E+02  6.50393E+02 -2.78388E+02  1.74467E+02
 -1.82367E+02 -6.02239E+01 -4.32658E+02  1.94560E+02 -6.37382E+02  1.59809E+01 -6.17288E+02 -2.54289E+02
 -7.16805E+02  7.08702E+02 -2.32549E+02 -4.79490E+02  2.11607E+02 -1.23361E+03  5.30112E+02 -1.70953E+02
  3.64349E+02 -1.10456E+02 -7.01284E+02 -4.48337E+01 -5.42671E+01  5.17140E+02 -3.22706E+02  6.32343E+02
