 $NMID ID='MM_0lb_SNR800_7hz_g50_41.RAW', FMTDAT='(8E13.5)'
 TRAMP=1., VOLUME=1. $END
  3.09691E+05  5.26231E+02  3.38143E+05  2.51118E+05  8.44926E+04  3.38703E+05 -1.32886E+05  2.52171E+05
 -1.91308E+05  8.38321E+04 -1.12949E+05 -3.27063E+04 -4.37203E+02 -5.07569E+04  5.42396E+04 -4.34576E+02
  3.58647E+04  5.28992E+04 -1.66579E+04  7.63716E+04 -6.13837E+04  6.44492E+04 -8.58730E+04  3.25469E+04
 -8.26802E+04 -1.17358E+04 -5.83876E+04 -5.25417E+04 -1.48159E+04 -7.18265E+04  2.82435E+04 -4.69867E+04
  4.15056E+04  3.70048E+03  1.71637E+04  4.88651E+04 -3.48236E+04  4.85668E+04 -6.86364E+04 -4.09939E+01
 -5.55994E+04 -5.81196E+04 -7.65306E+03 -7.93297E+04  3.52012E+04 -5.77579E+04  5.05872E+04 -1.87974E+04
  4.61839E+04  1.13091E+04  3.32940E+04  2.70485E+04  1.57493E+04  3.08534E+04 -5.58351E+03  2.78376E+04
 -2.23776E+04  1.13436E+04 -1.75503E+04 -6.39364E+03  7.37211E+03 -7.56530E+03  2.40805E+04  1.46472E+04
  6.98492E+03  3.87070E+04 -3.40187E+04  3.77518E+04 -6.69427E+04  1.90952E+03 -5.92827E+04 -4.49385E+04
 -1.28235E+04 -6.73047E+04  4.20482E+04 -4.78105E+04  6.26058E+04 -2.49088E+03  3.78105E+04  3.50816E+04
 -5.45635E+03  4.08505E+04 -3.25921E+04  1.96333E+04 -3.43906E+04 -3.08317E+03 -1.98796E+04 -1.19245E+04
 -9.82751E+03 -1.61944E+04 -4.57572E+02 -2.05811E+04  9.22749E+03 -2.37250E+04  1.60704E+04 -1.25573E+04
  1.04322E+04  6.61866E+03 -1.09831E+04  1.27330E+04 -2.42610E+04 -7.46822E+03 -8.63837E+03 -3.87912E+04
  2.59525E+04 -4.82350E+04  5.36983E+04 -2.12624E+04  5.03340E+04  2.10892E+04  1.82238E+04  4.85241E+04
 -1.66991E+04  3.72422E+04 -2.87672E+04  2.68565E+03 -1.23210E+04 -2.99505E+04  2.18937E+04 -3.78997E+04
  4.55880E+04 -1.15728E+04  4.20896E+04  2.53092E+04  2.26940E+04  5.26280E+04 -7.89179E+03  5.82409E+04
 -3.72001E+04  4.02907E+04 -4.96097E+04  1.18134E+04 -4.95718E+04 -1.93065E+04 -2.68419E+04 -4.38568E+04
  8.07621E+03 -4.40708E+04  3.53757E+04 -1.77886E+04  3.32570E+04  1.14746E+04  5.72751E+03  2.13749E+04
 -1.41762E+04  9.78519E+03 -1.14187E+04 -7.39799E+03  5.58288E+03 -1.18773E+04  1.92638E+04  5.53194E+03
  1.56673E+04  2.30798E+04 -5.04201E+03  2.82301E+04 -2.42434E+04  1.54760E+04 -3.33924E+04 -2.53361E+03
 -2.69484E+04 -1.89896E+04 -1.30539E+04 -2.69677E+04  4.66766E+03 -2.80409E+04  2.16615E+04 -2.47914E+04
  3.46495E+04 -1.47968E+04  4.02933E+04  5.73088E+03  2.85518E+04  2.65043E+04  4.16153E+03  4.33149E+04
 -2.04843E+04  3.56801E+04 -3.18312E+04  1.18532E+04 -2.28053E+04 -1.01325E+04 -4.90004E+03 -1.25266E+04
  9.97620E+02 -4.26939E+02 -8.87482E+03  8.85819E+03 -2.18627E+04  5.36972E+03 -2.18951E+04 -1.09939E+04
 -1.24186E+04 -2.55724E+04  6.12944E+03 -2.97968E+04  2.06129E+04 -2.11665E+04  2.50192E+04 -1.86350E+03
  1.61647E+04  1.72513E+04 -1.29139E+03  2.46632E+04 -1.83855E+04  1.47394E+04 -2.51601E+04 -4.77127E+03
 -1.85525E+04 -2.24743E+04 -2.56608E+03 -3.05510E+04  1.33333E+04 -2.55288E+04  2.48616E+04 -1.31991E+04
  2.35795E+04 -5.62131E+02  1.76640E+04  5.21922E+03  9.52655E+03  1.87937E+03  1.35018E+04 -2.14570E+03
  2.40210E+04  2.81019E+03  2.82889E+04  1.96403E+04  1.93426E+04  4.07054E+04 -2.66786E+03  4.90867E+04
 -2.80032E+04  4.15677E+04 -4.63751E+04  2.14821E+04 -4.96290E+04 -3.38951E+03 -3.99146E+04 -2.95686E+04
 -1.60339E+04 -4.20267E+04  1.50747E+04 -3.63173E+04  3.07809E+04 -1.63296E+04  2.63348E+04  8.61171E+03
  8.29154E+03  2.11041E+04 -1.24161E+04  1.66929E+04 -2.22674E+04  2.44695E+03 -1.64725E+04 -1.42994E+04
 -3.85811E+02 -2.12513E+04  1.08774E+04 -1.55790E+04  1.47177E+04 -1.29966E+03  4.30889E+03  9.99147E+03
 -9.09436E+03  4.81080E+03 -1.03034E+04 -7.44434E+03 -2.87043E+03 -2.03708E+04  1.34660E+04 -2.22089E+04
  2.54948E+04 -1.33927E+04  3.00462E+04  4.01016E+03  2.65625E+04  2.10991E+04  1.21501E+04  3.32027E+04
 -7.06061E+03  3.55431E+04 -2.36283E+04  2.18507E+04 -2.52527E+04  4.12022E+03 -1.71985E+04 -6.76508E+03
 -7.06093E+03 -8.19176E+03 -5.14272E+02  7.78209E+01 -3.29122E+03  3.75399E+03 -7.84050E+03  6.17189E+03
 -1.62635E+04 -1.46666E+03 -1.67325E+04 -1.34876E+04 -7.11892E+03 -2.15298E+04  6.51242E+03 -1.74633E+04
  1.45306E+04 -7.26925E+03  1.01961E+04  5.32778E+03 -5.94360E+02  7.45672E+03 -9.17716E+03 -4.25465E+02
 -8.93699E+03 -1.11674E+04 -1.29137E+03 -1.81407E+04  1.09745E+04 -1.87059E+04  2.27870E+04 -9.84627E+03
  2.70384E+04  2.91203E+03  1.96850E+04  1.64988E+04  3.64050E+03  2.23318E+04 -1.08000E+04  1.77995E+04
 -1.46112E+04  5.09788E+03 -7.85522E+03 -3.97606E+03  2.75535E+03 -5.06784E+03  9.43788E+03 -1.16396E+03
  8.38677E+03  7.97203E+03  1.59287E+03  1.46306E+04 -1.03387E+04  1.34444E+04 -1.77674E+04  3.00710E+03
 -1.24182E+04 -1.01345E+04 -3.02520E+01 -1.57322E+04  1.03531E+04 -7.99579E+03  1.10630E+04  4.23426E+03
  2.99617E+03  1.22359E+04 -9.16314E+03  1.36473E+04 -1.60931E+04  6.05904E+03 -1.66729E+04 -6.30309E+03
 -9.24169E+03 -1.90267E+04  4.39403E+03 -2.16836E+04  1.86712E+04 -1.25974E+04  1.97509E+04  3.94736E+03
  1.12579E+04  1.59823E+04 -2.14566E+03  1.83699E+04 -1.37365E+04  1.00649E+04 -1.52345E+04 -1.79940E+03
 -1.19236E+04 -1.21217E+04 -1.82517E+03 -1.42104E+04  7.19032E+03 -1.10260E+04  9.35481E+03 -3.87512E+03
  6.03399E+03  2.63855E+03 -1.35113E+03  1.81312E+03 -1.02398E+03 -3.87635E+03  4.27338E+03 -9.38910E+03
  1.42824E+04 -5.78090E+03  1.95195E+04  2.50178E+03  1.88980E+04  1.43138E+04  1.19150E+04  2.56025E+04
 -6.42399E+03  2.90028E+04 -2.34784E+04  2.15566E+04 -3.08091E+04  4.28909E+03 -2.46559E+04 -1.13090E+04
 -1.23042E+04 -2.07893E+04 -4.60773E+02 -1.74909E+04  6.22192E+03 -9.81890E+03  5.78809E+03 -6.28868E+03
  4.74253E+03 -3.78564E+03  4.07953E+03 -4.20752E+03  6.27763E+03 -4.59817E+03  1.00319E+04 -2.65116E+03
  1.26370E+04  2.95520E+03  7.09049E+03  1.10678E+04 -2.18746E+03  1.41495E+04 -1.36924E+04  1.06606E+04
 -1.80591E+04 -1.72487E+03 -1.17186E+04 -1.23794E+04 -2.32923E+03 -1.94173E+04  1.04322E+04 -1.98831E+04
  2.02380E+04 -1.08659E+04  2.43213E+04  3.66626E+03  1.66056E+04  1.72587E+04  2.59040E+03  2.18991E+04
 -8.72766E+03  1.76803E+04 -1.29392E+04  6.08337E+03 -9.27303E+03 -1.73335E+03 -3.81766E+03 -2.28406E+03
 -1.77736E+03 -6.03864E+02 -2.76250E+03  3.36325E+03 -7.50849E+03  3.11550E+03 -1.27279E+04 -1.76385E+03
 -9.18493E+03 -1.21787E+04  1.54572E+02 -1.86462E+04  1.06085E+04 -1.72540E+04  1.91501E+04 -5.25142E+03
  1.87784E+04  8.30345E+03  8.75853E+03  1.72933E+04 -3.51484E+03  1.88317E+04 -1.33108E+04  1.21713E+04
 -1.72713E+04  4.19797E+02 -1.30827E+04 -1.14772E+04 -1.32511E+03 -1.56760E+04  8.40740E+03 -1.14344E+04
  1.19985E+04 -4.05570E+03  8.32909E+03  3.18064E+03  2.67688E+03  5.97566E+03  2.18717E+03  2.57182E+03
  2.89098E+03  1.24022E+03  4.47812E+03  2.41031E+03  5.66448E+03  6.43227E+03  4.65023E+03  1.00881E+04
 -3.18907E+03  1.50783E+04 -1.32119E+04  1.50422E+04 -2.01055E+04  3.75955E+03 -2.01467E+04 -8.95548E+03
 -9.98593E+03 -1.93541E+04  2.58860E+03 -2.11538E+04  1.20319E+04 -1.38180E+04  1.60308E+04 -2.99629E+03
  1.20900E+04  7.31241E+03  2.85367E+03  1.11898E+04 -5.32538E+03  6.85205E+03 -8.73127E+03 -1.41825E+03
 -3.52895E+03 -8.70378E+03  3.91283E+03 -8.80871E+03  8.31170E+03 -3.74323E+03  7.94376E+03  2.39982E+03
  5.33845E+03  3.76829E+03  1.52364E+03  4.04778E+03 -1.22273E+03  2.01012E+03  1.77735E+03 -8.96783E+02
  3.40094E+03 -1.03166E+03  8.26307E+03  3.15571E+03  4.74159E+03  9.82379E+03 -1.37218E+03  1.39910E+04
 -9.95950E+03  9.45146E+03 -1.26174E+04  2.72168E+03 -1.12472E+04 -4.74520E+03 -4.98808E+03 -8.04092E+03
  1.26452E+03 -7.71789E+03  5.07079E+03 -3.53929E+03  4.35138E+03  3.83762E+03 -1.81919E+03  6.35543E+03
 -7.95284E+03  3.93793E+03 -9.62268E+03 -4.54750E+03 -5.55049E+03 -1.07932E+04  1.67262E+03 -1.11429E+04
  6.70779E+03 -6.60877E+03  8.32190E+03 -1.13554E+02  6.87383E+03  3.63436E+03  3.71423E+02  6.24256E+03
 -4.31844E+03  1.97801E+03 -4.94953E+03 -3.47152E+03  1.84921E+03 -8.97390E+03  1.00567E+04 -7.09081E+03
  1.32748E+04  1.14403E+03  1.27636E+04  9.03007E+03  3.88344E+03  1.34694E+04 -4.64945E+03  1.29839E+04
 -1.11997E+04  6.23923E+03 -1.20672E+04 -1.71320E+03 -6.38944E+03 -8.99592E+03  2.10669E+03 -8.76257E+03
  8.07207E+03 -3.93208E+03  7.27112E+03  3.14398E+03  2.38449E+03  7.55275E+03 -1.49976E+03  6.38181E+03
 -4.00248E+03  3.85172E+03 -3.32430E+03  1.19553E+03 -1.79451E+03  1.18075E+03 -1.82414E+03  2.45742E+03
 -3.83582E+03  5.07199E+03 -9.28998E+03  5.51704E+03 -1.38028E+04  4.54073E+02 -1.52501E+04 -9.31861E+03
 -8.50397E+03 -1.83606E+04  3.30812E+03 -2.13149E+04  1.32903E+04 -1.63924E+04  2.02902E+04 -6.28507E+03
  1.92098E+04  4.87460E+03  1.20089E+04  1.26631E+04  1.19201E+03  1.41758E+04 -5.45836E+03  1.08332E+04
 -8.39741E+03  3.75534E+03 -4.97897E+03 -1.98395E+03 -1.33840E+03 -1.49210E+03 -7.31953E+02 -1.49643E+02
 -1.62636E+03  5.50984E+02 -3.33242E+03 -1.06389E+03 -1.05380E+03 -3.69997E+03  1.76875E+02 -5.39590E+03
  5.82673E+03 -4.63205E+03  9.73918E+03 -3.86304E+01  1.01619E+04  7.31822E+03  2.80847E+03  1.52666E+04
 -6.77424E+03  1.65274E+04 -1.60311E+04  9.56004E+03 -1.79397E+04 -1.30830E+03 -1.36011E+04 -1.11429E+04
 -5.24010E+03 -1.56422E+04  4.27840E+03 -1.42447E+04  1.01630E+04 -7.92324E+03  1.01683E+04  8.39907E+01
  5.15693E+03  5.03226E+03 -5.71528E+02  3.86331E+03 -2.73100E+03 -2.05233E+02  1.15907E+01 -3.92676E+03
  4.90270E+03 -2.14137E+03  6.37795E+03  1.85387E+03  4.38419E+03  5.83870E+03  8.75619E+01  8.53552E+03
 -6.11867E+03  6.49186E+03 -1.02608E+04  1.14557E+03 -9.20723E+03 -7.17823E+03 -1.91666E+03 -1.27674E+04
  7.28163E+03 -1.05417E+04  1.24306E+04 -3.29028E+03  1.19407E+04  3.23181E+03  6.48104E+03  8.94981E+03
  7.05669E+02  1.00172E+04 -3.75737E+03  8.37386E+03 -6.58283E+03  4.13881E+03 -5.45673E+03  1.46984E+02
 -3.06752E+03 -1.29043E+02 -2.80460E+03  1.39799E+03 -4.96642E+03  1.82981E+03 -8.34544E+03 -1.03504E+03
 -7.50830E+03 -5.94131E+03 -2.10183E+03 -1.03913E+04  4.97182E+03 -1.02149E+04  9.61464E+03 -5.80707E+03
  1.06035E+04  1.45774E+03  5.89301E+03  7.48609E+03 -8.85515E+02  1.02788E+04 -8.34185E+03  7.08407E+03
