 $NMID ID='MM_0lb_SNR800_7hz_g50_64.RAW', FMTDAT='(8E13.5)'
 TRAMP=1., VOLUME=1. $END
  3.09938E+05  5.67455E+02  3.37928E+05  2.50686E+05  8.48668E+04  3.38535E+05 -1.32929E+05  2.51796E+05
 -1.90934E+05  8.40006E+04 -1.13448E+05 -3.23759E+04  7.04608E+01 -5.08022E+04  5.36682E+04 -6.99626E+02
  3.60815E+04  5.30240E+04 -1.63414E+04  7.62711E+04 -6.14045E+04  6.47689E+04 -8.60507E+04  3.30430E+04
 -8.37375E+04 -1.20479E+04 -5.86396E+04 -5.31207E+04 -1.54663E+04 -7.11199E+04  2.80692E+04 -4.72957E+04
  4.14361E+04  3.33752E+03  1.71433E+04  4.86550E+04 -3.50036E+04  4.84193E+04 -6.87157E+04 -1.60653E+02
 -5.53248E+04 -5.82232E+04 -7.85001E+03 -8.02870E+04  3.49897E+04 -5.77152E+04  5.06540E+04 -1.85297E+04
  4.56343E+04  1.18457E+04  3.32326E+04  2.67461E+04  1.56575E+04  3.10020E+04 -6.06044E+03  2.77193E+04
 -2.29247E+04  1.18786E+04 -1.81893E+04 -5.91323E+03  7.78777E+03 -7.58281E+03  2.42322E+04  1.44480E+04
  7.04474E+03  3.87614E+04 -3.45549E+04  3.81553E+04 -6.74993E+04  2.40916E+03 -5.99379E+04 -4.51349E+04
 -1.29706E+04 -6.69602E+04  4.21235E+04 -4.81994E+04  6.26468E+04 -2.49625E+03  3.74905E+04  3.50927E+04
 -5.96402E+03  4.09489E+04 -3.18307E+04  2.01845E+04 -3.45756E+04 -3.52067E+03 -2.02164E+04 -1.26235E+04
 -9.81143E+03 -1.59257E+04 -2.15146E+02 -2.03671E+04  8.96023E+03 -2.35345E+04  1.60471E+04 -1.22559E+04
  1.01477E+04  6.61215E+03 -1.17802E+04  1.27321E+04 -2.43939E+04 -7.57857E+03 -8.48146E+03 -3.92402E+04
  2.59301E+04 -4.81381E+04  5.30553E+04 -2.13928E+04  4.99819E+04  2.12487E+04  1.79289E+04  4.85010E+04
 -1.73810E+04  3.70132E+04 -2.88883E+04  3.17378E+03 -1.25389E+04 -3.05439E+04  2.19558E+04 -3.86827E+04
  4.61485E+04 -1.17157E+04  4.23407E+04  2.58940E+04  2.20963E+04  5.29405E+04 -8.38339E+03  5.83846E+04
 -3.69400E+04  4.00258E+04 -5.00439E+04  1.19216E+04 -4.94388E+04 -1.96374E+04 -2.74368E+04 -4.38781E+04
  8.29953E+03 -4.38066E+04  3.54937E+04 -1.81136E+04  3.31871E+04  1.13628E+04  5.45019E+03  2.17692E+04
 -1.42793E+04  1.01632E+04 -1.16962E+04 -7.68478E+03  6.00899E+03 -1.18444E+04  1.90895E+04  5.32210E+03
  1.53865E+04  2.29880E+04 -4.59157E+03  2.78866E+04 -2.35955E+04  1.59884E+04 -3.28691E+04 -2.05746E+03
 -2.74580E+04 -1.92979E+04 -1.31961E+04 -2.67181E+04  4.85585E+03 -2.84037E+04  2.16482E+04 -2.52154E+04
  3.49453E+04 -1.49887E+04  4.04699E+04  5.94178E+03  2.85942E+04  2.65258E+04  4.47572E+03  4.34763E+04
 -2.03995E+04  3.48577E+04 -3.18414E+04  1.22748E+04 -2.34893E+04 -9.93784E+03 -4.83899E+03 -1.31878E+04
  7.02716E+02 -2.00024E+02 -9.03942E+03  8.94773E+03 -2.16428E+04  4.92294E+03 -2.17138E+04 -1.08637E+04
 -1.28899E+04 -2.50366E+04  6.37686E+03 -2.95673E+04  2.02955E+04 -2.11957E+04  2.43844E+04 -1.96455E+03
  1.56901E+04  1.74136E+04 -1.28441E+03  2.52947E+04 -1.84185E+04  1.39745E+04 -2.55403E+04 -4.98408E+03
 -1.86068E+04 -2.23707E+04 -2.34748E+03 -2.99445E+04  1.31409E+04 -2.57619E+04  2.48987E+04 -1.32710E+04
  2.32960E+04 -2.60424E+02  1.70703E+04  5.79368E+03  9.96078E+03  1.92900E+03  1.34197E+04 -2.33903E+03
  2.41711E+04  3.02053E+03  2.84555E+04  1.98010E+04  1.93159E+04  4.11024E+04 -2.22194E+03  4.88825E+04
 -2.82857E+04  4.15162E+04 -4.67940E+04  2.09140E+04 -5.01224E+04 -3.55431E+03 -4.02357E+04 -2.92050E+04
 -1.55465E+04 -4.18510E+04  1.41549E+04 -3.62033E+04  3.08099E+04 -1.65232E+04  2.72582E+04  8.90413E+03
  8.83368E+03  2.11956E+04 -1.28551E+04  1.65430E+04 -2.18061E+04  2.39210E+03 -1.69159E+04 -1.39817E+04
 -6.15577E+02 -2.12467E+04  1.17658E+04 -1.56847E+04  1.48336E+04 -1.58826E+03  3.99564E+03  9.91895E+03
 -9.59493E+03  5.08940E+03 -1.04714E+04 -7.48407E+03 -2.85928E+03 -2.06046E+04  1.23705E+04 -2.24960E+04
  2.60914E+04 -1.30643E+04  3.03359E+04  3.57697E+03  2.59932E+04  2.16458E+04  1.21659E+04  3.34785E+04
 -6.44824E+03  3.53634E+04 -2.34952E+04  2.19739E+04 -2.55979E+04  3.96195E+03 -1.73082E+04 -6.82511E+03
 -6.99883E+03 -8.43937E+03 -5.93853E+02  3.64971E+02 -3.09200E+03  3.63433E+03 -8.52294E+03  5.75429E+03
 -1.57111E+04 -1.19617E+03 -1.66785E+04 -1.31703E+04 -6.51004E+03 -2.16156E+04  7.33920E+03 -1.76749E+04
  1.45201E+04 -6.74181E+03  1.00086E+04  4.39706E+03 -1.07310E+03  7.16045E+03 -8.81506E+03  6.73233E+00
 -8.86842E+03 -1.13029E+04 -1.29434E+03 -1.78867E+04  1.04259E+04 -1.88196E+04  2.31391E+04 -1.04264E+04
  2.72129E+04  2.77125E+03  1.96580E+04  1.64297E+04  3.65836E+03  2.25419E+04 -1.08261E+04  1.70504E+04
 -1.45310E+04  5.05225E+03 -7.38661E+03 -3.86293E+03  2.62978E+03 -5.24762E+03  9.53772E+03 -9.45876E+02
  8.75269E+03  8.25066E+03  1.40068E+03  1.43697E+04 -1.05087E+04  1.37332E+04 -1.84179E+04  2.93359E+03
 -1.26508E+04 -9.97203E+03  2.38008E+02 -1.54256E+04  1.01440E+04 -7.71404E+03  1.09353E+04  4.40113E+03
  2.56489E+03  1.22001E+04 -9.79060E+03  1.37848E+04 -1.64605E+04  6.19904E+03 -1.72519E+04 -6.19181E+03
 -8.79096E+03 -1.91706E+04  4.76920E+03 -2.17983E+04  1.82157E+04 -1.27197E+04  2.01937E+04  3.45893E+03
  1.17967E+04  1.63793E+04 -1.90827E+03  1.83239E+04 -1.35265E+04  1.02771E+04 -1.51057E+04 -1.59868E+03
 -1.31267E+04 -1.18719E+04 -1.70124E+03 -1.42066E+04  7.60398E+03 -1.14159E+04  9.40280E+03 -4.00400E+03
  5.65045E+03  3.05049E+03 -1.04392E+03  2.06556E+03 -1.31455E+03 -4.44816E+03  3.14052E+03 -9.72350E+03
  1.43777E+04 -6.04462E+03  1.98667E+04  2.03226E+03  1.81059E+04  1.36722E+04  1.18739E+04  2.54503E+04
 -6.08723E+03  2.84703E+04 -2.37572E+04  2.10504E+04 -3.11341E+04  4.21427E+03 -2.49202E+04 -1.11812E+04
 -1.20824E+04 -2.06513E+04 -2.90850E+02 -1.82252E+04  6.06165E+03 -1.00183E+04  6.41236E+03 -6.67879E+03
  4.60168E+03 -3.71993E+03  4.66282E+03 -4.06214E+03  6.58475E+03 -4.82841E+03  9.70905E+03 -1.69400E+03
  1.33871E+04  2.92214E+03  7.81102E+03  1.14931E+04 -2.43529E+03  1.43825E+04 -1.37240E+04  1.09330E+04
 -1.75907E+04 -1.18924E+03 -1.22709E+04 -1.29185E+04 -2.24066E+03 -1.93026E+04  1.07136E+04 -1.99623E+04
  2.05245E+04 -1.07611E+04  2.39010E+04  3.70443E+03  1.66944E+04  1.75148E+04  2.15305E+03  2.18525E+04
 -9.48837E+03  1.74554E+04 -1.28303E+04  5.43078E+03 -8.93109E+03 -1.45707E+03 -3.48155E+03 -2.74799E+03
 -1.58255E+03 -5.88531E+02 -2.53786E+03  3.15286E+03 -7.82377E+03  3.11956E+03 -1.21133E+04 -1.82373E+03
 -8.90952E+03 -1.22233E+04 -1.62329E+02 -1.78248E+04  1.16409E+04 -1.69608E+04  1.90576E+04 -5.43829E+03
  1.85823E+04  8.56071E+03  8.41631E+03  1.66178E+04 -3.40085E+03  1.84807E+04 -1.37608E+04  1.18390E+04
 -1.76658E+04  1.05175E+03 -1.37005E+04 -1.14100E+04 -1.64246E+03 -1.55886E+04  8.55060E+03 -1.17338E+04
  1.18792E+04 -3.50808E+03  7.97033E+03  3.17031E+03  3.03267E+03  5.23908E+03  1.80622E+03  2.70740E+03
  2.70975E+03  7.85623E+02  4.23311E+03  2.22645E+03  5.73829E+03  6.79551E+03  4.85974E+03  9.57884E+03
 -3.95440E+03  1.52348E+04 -1.34412E+04  1.45738E+04 -2.04206E+04  3.50312E+03 -2.03741E+04 -9.06690E+03
 -1.00264E+04 -1.95383E+04  3.01494E+03 -2.14298E+04  1.18306E+04 -1.32913E+04  1.57716E+04 -3.68790E+03
  1.23037E+04  7.43305E+03  2.62048E+03  1.15271E+04 -5.95132E+03  7.25107E+03 -7.86920E+03 -9.97527E+02
 -3.87214E+03 -8.55005E+03  4.77409E+03 -8.64851E+03  8.32077E+03 -3.81751E+03  7.61346E+03  1.84151E+03
  4.73454E+03  4.30181E+03  1.82881E+03  3.94142E+03 -1.07155E+03  2.75998E+03  1.69711E+03 -8.21563E+02
  3.18612E+03 -1.60812E+03  8.11148E+03  3.57675E+03  4.58973E+03  9.80823E+03 -1.92217E+03  1.36956E+04
 -9.79437E+03  9.71699E+03 -1.33477E+04  2.61136E+03 -1.14718E+04 -4.36234E+03 -4.92576E+03 -7.92738E+03
  1.48856E+03 -7.65462E+03  5.23816E+03 -3.58552E+03  4.55804E+03  3.87842E+03 -1.74309E+03  6.27651E+03
 -8.17481E+03  3.69562E+03 -9.94795E+03 -4.00878E+03 -5.70967E+03 -1.09402E+04  1.52927E+03 -1.12601E+04
  7.34212E+03 -7.10335E+03  8.18899E+03 -1.19790E+03  6.86880E+03  3.36135E+03  1.35134E+03  6.27534E+03
 -4.34373E+03  2.02311E+03 -5.02024E+03 -4.20471E+03  1.57607E+03 -8.99049E+03  1.09953E+04 -7.36108E+03
  1.30750E+04  6.50475E+02  1.24495E+04  9.27648E+03  3.96984E+03  1.36550E+04 -5.05212E+03  1.26672E+04
 -1.08467E+04  5.95142E+03 -1.18123E+04 -1.74001E+03 -5.95634E+03 -8.97238E+03  1.77928E+03 -9.05396E+03
  8.26686E+03 -3.85434E+03  7.79453E+03  3.54895E+03  2.03785E+03  7.10140E+03 -1.32588E+03  6.20016E+03
 -3.31637E+03  4.33817E+03 -3.37422E+03  1.15772E+03 -1.89721E+03  1.42114E+03 -2.17305E+03  2.34513E+03
 -3.84398E+03  5.16312E+03 -9.25307E+03  4.43781E+03 -1.42670E+04  5.91712E+02 -1.52083E+04 -9.10892E+03
 -7.75926E+03 -1.85969E+04  3.69472E+03 -2.11776E+04  1.34160E+04 -1.68800E+04  1.99982E+04 -6.09002E+03
  1.86591E+04  4.13104E+03  1.20249E+04  1.30814E+04  1.67502E+03  1.52093E+04 -5.75701E+03  1.07099E+04
 -8.40312E+03  3.83154E+03 -5.01468E+03 -1.97217E+03 -1.52144E+03 -2.03228E+03 -7.21440E+02  2.03197E+02
 -2.50368E+03  7.83052E+02 -2.89361E+03 -1.00829E+03 -6.26093E+02 -3.16053E+03  5.01642E+02 -5.50007E+03
  6.78554E+03 -4.50650E+03  9.62049E+03 -1.08660E+02  1.02799E+04  7.97256E+03  3.33230E+03  1.50587E+04
 -6.88523E+03  1.70592E+04 -1.61051E+04  9.46984E+03 -1.81173E+04 -1.24993E+03 -1.31808E+04 -1.09767E+04
 -5.52498E+03 -1.54362E+04  3.86930E+03 -1.44836E+04  1.01311E+04 -7.90794E+03  1.05734E+04  4.03862E+02
  5.35064E+03  4.96139E+03 -8.14288E+02  4.16093E+03 -2.81896E+03 -1.17363E+02  4.17656E+02 -3.22408E+03
  4.80141E+03 -2.88807E+03  5.74403E+03  1.96172E+03  4.34789E+03  6.10164E+03 -2.38708E+02  8.09409E+03
 -6.40537E+03  7.25636E+03 -1.06168E+04  8.29104E+02 -9.43474E+03 -7.47407E+03 -1.98696E+03 -1.26078E+04
  7.60030E+03 -1.08080E+04  1.18436E+04 -3.67022E+03  1.20784E+04  3.47601E+03  7.27351E+03  9.27731E+03
  1.48523E+03  1.04511E+04 -4.26686E+03  8.60333E+03 -6.55719E+03  4.71187E+03 -6.08062E+03  7.70337E+02
 -3.13025E+03 -2.64374E+02 -2.91737E+03  1.52320E+03 -4.56925E+03  1.58138E+03 -8.30252E+03 -1.78810E+03
 -8.11600E+03 -6.32148E+03 -2.58493E+03 -1.03085E+04  4.38688E+03 -1.05056E+04  9.17142E+03 -5.37956E+03
  1.04131E+04  7.08180E+02  6.03299E+03  7.80361E+03 -7.42948E+02  1.05809E+04 -8.35398E+03  6.78387E+03
