 $NMID ID='MM_0lb_SNR800_12hz_g40_61.RAW', FMTDAT='(8E13.5)'
 TRAMP=1., VOLUME=1. $END
  3.09762E+05  6.20530E+02  3.37423E+05  2.50942E+05  8.47657E+04  3.37960E+05 -1.32353E+05  2.51016E+05
 -1.90388E+05  8.33018E+04 -1.11825E+05 -3.28358E+04  7.80483E+02 -5.05331E+04  5.37868E+04 -5.99341E+02
  3.54659E+04  5.28894E+04 -1.66749E+04  7.56705E+04 -6.08974E+04  6.35037E+04 -8.41513E+04  3.25576E+04
 -8.13474E+04 -1.12152E+04 -5.72174E+04 -5.16471E+04 -1.52085E+04 -6.96125E+04  2.77518E+04 -4.61177E+04
  4.01111E+04  3.77679E+03  1.63412E+04  4.80589E+04 -3.47562E+04  4.71614E+04 -6.66915E+04 -2.14414E+02
 -5.38672E+04 -5.72806E+04 -6.96508E+03 -7.71591E+04  3.43578E+04 -5.51076E+04  4.84335E+04 -1.75114E+04
  4.36850E+04  1.16229E+04  3.21820E+04  2.54460E+04  1.59905E+04  2.95619E+04 -5.37503E+03  2.72769E+04
 -2.18448E+04  1.25082E+04 -1.81610E+04 -5.21716E+03  5.59927E+03 -7.51467E+03  2.23966E+04  1.25828E+04
  7.08744E+03  3.54840E+04 -3.25200E+04  3.57206E+04 -6.34310E+04  2.49726E+03 -5.70274E+04 -4.28003E+04
 -1.22490E+04 -6.37976E+04  4.01337E+04 -4.57639E+04  5.86158E+04 -2.10706E+03  3.45350E+04  3.25957E+04
 -5.87131E+03  3.67170E+04 -3.02575E+04  1.62842E+04 -3.07463E+04 -4.26774E+03 -1.72190E+04 -1.09383E+04
 -9.05894E+03 -1.34892E+04 -6.03024E+02 -1.83001E+04  7.57203E+03 -2.28841E+04  1.57431E+04 -1.33589E+04
  1.09988E+04  5.42607E+03 -8.14792E+03  1.30409E+04 -2.18600E+04 -4.66287E+03 -8.54977E+03 -3.43439E+04
  2.31578E+04 -4.39774E+04  4.88517E+04 -2.01623E+04  4.55512E+04  1.96655E+04  1.64547E+04  4.45121E+04
 -1.61094E+04  3.42861E+04 -2.58199E+04  2.05376E+03 -1.04228E+04 -2.82830E+04  2.10669E+04 -3.43866E+04
  4.13524E+04 -9.41868E+03  3.63479E+04  2.40699E+04  1.85609E+04  4.73669E+04 -8.00954E+03  5.13609E+04
 -3.22856E+04  3.45711E+04 -4.30505E+04  9.75597E+03 -4.40285E+04 -1.71787E+04 -2.39758E+04 -3.87430E+04
  7.37267E+03 -3.86154E+04  3.18703E+04 -1.54199E+04  2.99532E+04  1.12176E+04  4.33570E+03  1.95131E+04
 -1.34548E+04  8.51766E+03 -1.05717E+04 -7.52241E+03  5.40217E+03 -1.07856E+04  1.81573E+04  5.59017E+03
  1.35930E+04  2.21849E+04 -5.97056E+03  2.51875E+04 -2.25944E+04  1.20465E+04 -2.86628E+04 -4.22510E+03
 -2.11491E+04 -1.76924E+04 -8.66504E+03 -2.14227E+04  4.23983E+03 -2.05995E+04  1.68012E+04 -1.90651E+04
  2.73975E+04 -1.29919E+04  3.34797E+04  3.33051E+03  2.44928E+04  2.08883E+04  4.28260E+03  3.74000E+04
 -1.82521E+04  3.10946E+04 -2.81125E+04  1.09318E+04 -2.11318E+04 -1.00733E+04 -4.10203E+03 -1.34758E+04
  1.46549E+03 -2.35295E+03 -5.45621E+03  7.45558E+03 -1.68833E+04  4.91560E+03 -1.70615E+04 -7.42198E+03
 -1.07249E+04 -1.98699E+04  5.03090E+03 -2.41378E+04  1.60611E+04 -1.72990E+04  1.89124E+04 -1.68971E+03
  1.18991E+04  1.40603E+04 -1.13203E+03  1.99862E+04 -1.34009E+04  1.12857E+04 -1.98937E+04 -4.10479E+03
 -1.49490E+04 -1.80440E+04 -1.96824E+03 -2.43534E+04  1.08975E+04 -1.98582E+04  2.00457E+04 -9.89088E+03
  1.83986E+04  9.95211E+01  1.38067E+04  4.44613E+03  7.46429E+03  8.93034E+02  1.01714E+04 -1.59495E+03
  1.84087E+04  3.01239E+03  2.06798E+04  1.58293E+04  1.35521E+04  3.16495E+04 -2.86387E+03  3.61785E+04
 -2.11518E+04  2.95608E+04 -3.39146E+04  1.49701E+04 -3.56342E+04 -2.59810E+03 -2.90952E+04 -2.08120E+04
 -1.24839E+04 -2.96252E+04  1.01010E+04 -2.66566E+04  2.27284E+04 -1.35301E+04  2.03229E+04  5.85740E+03
  7.16552E+03  1.52210E+04 -9.68704E+03  1.35550E+04 -1.74316E+04  2.37708E+03 -1.30358E+04 -1.08050E+04
 -3.84967E+02 -1.64100E+04  8.87002E+03 -1.20546E+04  1.07632E+04 -1.24835E+03  2.54624E+03  7.18350E+03
 -7.03205E+03  2.83517E+03 -6.63691E+03 -6.20419E+03 -7.28804E+02 -1.45863E+04  9.91382E+03 -1.52120E+04
  1.79172E+04 -8.64176E+03  1.97895E+04  3.00898E+03  1.69612E+04  1.47142E+04  8.31424E+03  2.23422E+04
 -3.83796E+03  2.40822E+04 -1.57152E+04  1.51966E+04 -1.76512E+04  3.22831E+03 -1.19521E+04 -4.32167E+03
 -5.85140E+03 -5.22873E+03 -7.58056E+02  1.13864E+03 -2.56185E+03  2.55060E+03 -5.42775E+03  4.53845E+03
 -1.10091E+04 -9.38293E+02 -1.21888E+04 -9.62205E+03 -4.56180E+03 -1.57135E+04  5.25165E+03 -1.22538E+04
  1.03277E+04 -5.32994E+03  7.58408E+03  3.40369E+03  1.08680E+02  4.69726E+03 -5.70840E+03 -2.85074E+02
 -5.39116E+03 -7.80270E+03 -9.43968E+02 -1.15570E+04  6.64183E+03 -1.24866E+04  1.52770E+04 -6.76969E+03
  1.80861E+04  1.41875E+03  1.32648E+04  1.08706E+04  2.60761E+03  1.44346E+04 -7.42695E+03  1.20192E+04
 -1.00198E+04  3.78376E+03 -5.34564E+03 -2.46076E+03  1.85712E+03 -3.57875E+03  6.77641E+03 -1.29203E+03
  5.91812E+03  5.30838E+03  1.21914E+03  9.70479E+03 -6.71310E+03  9.24988E+03 -1.18534E+04  2.20751E+03
 -8.11376E+03 -5.93852E+03  3.44519E+02 -1.04614E+04  6.28721E+03 -5.27608E+03  6.47371E+03  2.10688E+03
  1.62334E+03  6.95238E+03 -6.02788E+03  8.35848E+03 -9.51553E+03  3.96695E+03 -9.43780E+03 -2.96513E+03
 -5.61239E+03 -1.10430E+04  2.75160E+03 -1.30406E+04  1.10668E+04 -7.77646E+03  1.18332E+04  1.99548E+03
  7.65089E+03  9.22544E+03 -8.35312E+02  1.20421E+04 -8.58466E+03  6.75229E+03 -9.39162E+03 -6.19240E+02
 -8.36379E+03 -7.92545E+03 -1.58003E+03 -8.84422E+03  4.68978E+03 -7.51977E+03  5.18361E+03 -3.18209E+03
  3.99233E+03  1.14909E+03 -6.41296E+02  1.65632E+03  8.72984E+01 -1.92297E+03  1.39348E+03 -4.79497E+03
  7.79918E+03 -3.06080E+03  1.09753E+04  1.08518E+03  1.07146E+04  7.11660E+03  8.03548E+03  1.44596E+04
 -3.38302E+03  1.64295E+04 -1.44066E+04  1.25976E+04 -1.80258E+04  2.76765E+03 -1.46280E+04 -6.01770E+03
 -7.32797E+03 -1.22813E+04 -2.61829E+02 -9.97123E+03  4.05651E+03 -5.34339E+03  3.53326E+03 -3.71509E+03
  2.80167E+03 -2.11956E+03  2.89250E+03 -3.20030E+03  4.84457E+03 -2.20767E+03  5.99023E+03 -6.82620E+02
  7.90011E+03  1.65572E+03  3.70366E+03  6.53094E+03 -1.85331E+03  7.19161E+03 -7.88952E+03  5.57434E+03
 -1.00499E+04 -9.95490E+02 -5.85185E+03 -6.92194E+03 -6.20255E+02 -1.09203E+04  6.11886E+03 -1.10563E+04
  1.10712E+04 -6.02094E+03  1.33221E+04  1.52690E+03  9.15007E+03  9.16909E+03  1.40127E+03  1.20314E+04
 -4.82448E+03  1.01313E+04 -7.02239E+03  3.40932E+03 -4.51159E+03 -1.20422E+03 -1.55647E+03 -1.42376E+03
 -7.89452E+02 -1.45942E+02 -1.82704E+03  2.55576E+03 -4.43651E+03  2.10779E+03 -7.20450E+03 -1.15646E+03
 -4.34075E+03 -7.00738E+03  3.43340E+02 -9.76172E+03  5.75705E+03 -9.00991E+03  9.49663E+03 -2.84866E+03
  9.52696E+03  4.57150E+03  4.74804E+03  8.36889E+03 -1.85254E+03  9.67118E+03 -6.79535E+03  6.04271E+03
 -9.17699E+03  2.96446E+02 -7.23816E+03 -5.74215E+03 -7.16360E+02 -7.86278E+03  4.20098E+03 -6.06120E+03
  6.20711E+03 -1.99970E+03  4.10539E+03  1.33444E+03  1.33747E+03  3.16466E+03  1.33980E+03  1.39038E+03
  2.53067E+03  8.77656E+02  2.64247E+03  1.63094E+03  2.51453E+03  3.52504E+03  2.58575E+03  5.03740E+03
 -2.42571E+03  7.58253E+03 -6.53076E+03  7.81416E+03 -9.08414E+03  1.93113E+03 -9.97068E+03 -3.35943E+03
 -4.82667E+03 -9.24327E+03  1.55480E+03 -1.07769E+04  5.98803E+03 -6.61849E+03  7.69638E+03 -1.57482E+03
  5.80639E+03  3.92045E+03  8.96129E+02  5.72296E+03 -2.38424E+03  3.64466E+03 -3.79175E+03 -3.45557E+02
 -1.88003E+03 -4.00050E+03  2.21615E+03 -4.18909E+03  3.87732E+03 -2.14434E+03  3.54845E+03  1.04222E+03
  2.14709E+03  1.55481E+03  1.33146E+03  1.57191E+03 -5.14011E+02  1.52647E+03  1.28798E+03 -5.58481E+02
  1.35558E+03 -5.37951E+02  3.83346E+03  1.43563E+03  1.67137E+03  4.97069E+03 -9.92707E+02  6.44053E+03
 -4.63265E+03  3.85046E+03 -5.60825E+03  1.09857E+03 -5.38308E+03 -1.90747E+03 -1.76737E+03 -3.43788E+03
  5.85569E+02 -3.69326E+03  2.10260E+03 -1.54850E+03  2.08987E+03  2.05633E+03 -1.26053E+03  2.96669E+03
 -3.64030E+03  1.69220E+03 -4.00958E+03 -2.19765E+03 -2.26151E+03 -5.01577E+03  5.64999E+02 -5.29935E+03
  2.48718E+03 -2.94668E+03  3.43474E+03 -1.94537E+02  3.30500E+03  9.50412E+02  5.19994E+02  2.67762E+03
 -1.74260E+03  7.79249E+02 -2.39797E+03 -1.55145E+03  1.28030E+03 -3.25756E+03  4.50324E+03 -2.86570E+03
  5.24893E+03  3.96806E+02  5.82239E+03  3.46961E+03  2.13136E+03  5.57815E+03 -1.76439E+03  5.80653E+03
 -4.61834E+03  2.05306E+03 -4.80789E+03 -5.69167E+02 -2.61199E+03 -3.88946E+03  7.15817E+02 -2.75116E+03
  3.70349E+03 -1.72102E+03  2.95793E+03  1.71432E+03  7.48445E+02  3.18057E+03 -1.49038E+02  2.64402E+03
 -1.58004E+03  2.19037E+03 -1.32533E+03  8.59640E+02 -6.80568E+02  9.79051E+02 -1.03892E+03  1.30891E+03
 -1.51390E+03  2.41871E+03 -4.14471E+03  1.78919E+03 -5.36514E+03  2.48301E+02 -6.53621E+03 -3.54997E+03
 -3.26762E+03 -7.68465E+03  1.60585E+03 -9.01061E+03  4.91042E+03 -6.82917E+03  7.98971E+03 -2.88960E+03
  7.88825E+03  1.23720E+03  4.71583E+03  5.16655E+03  4.90046E+01  5.71412E+03 -2.39864E+03  4.40353E+03
 -3.07036E+03  1.83502E+03 -1.89126E+03 -7.46635E+02 -1.04872E+03 -4.88584E+02 -7.32036E+02  1.28733E+02
 -1.45978E+03 -3.48194E+01 -1.63129E+03  1.19216E+02 -2.45355E+02 -1.51036E+03 -9.82638E+01 -2.33710E+03
  2.65818E+03 -1.77054E+03  3.02729E+03 -1.21515E+02  3.94872E+03  3.30318E+03  6.81456E+02  5.56221E+03
 -2.76962E+03  6.73408E+03 -6.23866E+03  3.85735E+03 -6.90479E+03 -7.10146E+02 -4.86887E+03 -4.28482E+03
 -2.61325E+03 -5.64633E+03  1.64046E+03 -5.48682E+03  3.49931E+03 -3.14698E+03  3.54792E+03  5.29694E+02
  2.33412E+03  1.56501E+03 -2.73548E+01  1.43403E+03 -1.07087E+03 -4.70302E+02  2.68876E+02 -1.39129E+03
  1.55547E+03 -3.06935E+02  2.14864E+03  9.43106E+02  1.31057E+03  1.85900E+03  3.55226E+02  2.86632E+03
 -2.43041E+03  2.38902E+03 -3.51132E+03  4.63407E+02 -3.08993E+03 -2.47616E+03 -5.10530E+02 -4.85142E+03
  2.66819E+03 -3.60509E+03  4.02663E+03 -1.24530E+03  3.98850E+03  4.30578E+02  2.50410E+03  3.51263E+03
  5.23829E+02  3.26748E+03 -1.04777E+03  2.85536E+03 -2.05687E+03  1.98508E+03 -1.84685E+03  2.61415E+02
 -6.68646E+02 -1.73416E+02 -1.00222E+03  4.02501E+02 -2.11856E+03  7.28981E+02 -3.22189E+03 -9.01113E+02
 -3.03488E+03 -1.26237E+03 -7.26800E+02 -3.29947E+03  2.12655E+03 -4.06696E+03  3.35286E+03 -1.69063E+03
  3.65058E+03  4.01577E+02  1.58302E+03  2.35089E+03 -4.71803E+02  3.57227E+03 -2.39905E+03  2.20944E+03
