 $NMID ID='MM_0lb_SNR800_13hz_g60_65.RAW', FMTDAT='(8E13.5)'
 TRAMP=1., VOLUME=1. $END
  3.09647E+05  4.79459E+02  3.37774E+05  2.50705E+05  8.49005E+04  3.38597E+05 -1.32298E+05  2.51543E+05
 -1.90368E+05  8.37328E+04 -1.12294E+05 -3.25206E+04  6.30985E+02 -5.05828E+04  5.39234E+04 -3.95120E+02
  3.56908E+04  5.28974E+04 -1.65412E+04  7.60378E+04 -6.09796E+04  6.41120E+04 -8.49366E+04  3.22626E+04
 -8.17971E+04 -1.16448E+04 -5.76209E+04 -5.19150E+04 -1.50176E+04 -7.04520E+04  2.78625E+04 -4.62295E+04
  4.04158E+04  3.58080E+03  1.61010E+04  4.84503E+04 -3.43326E+04  4.76697E+04 -6.73102E+04 -3.69527E+02
 -5.41617E+04 -5.75681E+04 -6.98563E+03 -7.79171E+04  3.42304E+04 -5.61903E+04  4.90071E+04 -1.78804E+04
  4.49313E+04  1.15816E+04  3.22909E+04  2.59355E+04  1.59942E+04  3.02513E+04 -5.73644E+03  2.74211E+04
 -2.20814E+04  1.22103E+04 -1.87029E+04 -5.75694E+03  6.37647E+03 -7.28749E+03  2.27504E+04  1.31404E+04
  7.36712E+03  3.63323E+04 -3.28739E+04  3.61292E+04 -6.50073E+04  2.32249E+03 -5.79427E+04 -4.39179E+04
 -1.25769E+04 -6.45061E+04  4.08442E+04 -4.67003E+04  5.94416E+04 -2.50034E+03  3.56928E+04  3.32185E+04
 -6.03191E+03  3.74938E+04 -3.10077E+04  1.74103E+04 -3.20308E+04 -3.87423E+03 -1.79358E+04 -1.14842E+04
 -8.78011E+03 -1.43272E+04 -5.66779E+02 -1.88537E+04  8.08337E+03 -2.35043E+04  1.57074E+04 -1.29813E+04
  1.06096E+04  5.76881E+03 -9.42696E+03  1.27533E+04 -2.22151E+04 -5.85618E+03 -8.38287E+03 -3.55935E+04
  2.40081E+04 -4.53101E+04  5.04753E+04 -2.00059E+04  4.66695E+04  1.99265E+04  1.63886E+04  4.55570E+04
 -1.66485E+04  3.48331E+04 -2.63890E+04  1.76463E+03 -1.07242E+04 -2.88807E+04  2.15186E+04 -3.55207E+04
  4.30366E+04 -1.03213E+04  3.80286E+04  2.43662E+04  1.94589E+04  4.90182E+04 -8.22560E+03  5.33996E+04
 -3.37537E+04  3.59517E+04 -4.47822E+04  1.00086E+04 -4.51128E+04 -1.77618E+04 -2.49935E+04 -4.01344E+04
  7.53521E+03 -3.99482E+04  3.28315E+04 -1.57108E+04  3.04305E+04  1.09331E+04  4.50928E+03  2.01137E+04
 -1.36037E+04  9.06886E+03 -1.10647E+04 -7.61917E+03  5.86077E+03 -1.13110E+04  1.84724E+04  5.82953E+03
  1.41691E+04  2.20210E+04 -5.93987E+03  2.60484E+04 -2.30076E+04  1.32677E+04 -2.95605E+04 -4.10637E+03
 -2.28191E+04 -1.79166E+04 -1.01862E+04 -2.28018E+04  4.02712E+03 -2.24718E+04  1.77376E+04 -2.04881E+04
  2.89554E+04 -1.34437E+04  3.53590E+04  3.62060E+03  2.51978E+04  2.21634E+04  4.02957E+03  3.86315E+04
 -1.90936E+04  3.21673E+04 -2.91846E+04  1.11305E+04 -2.16394E+04 -9.71368E+03 -4.76789E+03 -1.33429E+04
  1.32087E+03 -1.97966E+03 -5.88264E+03  7.49456E+03 -1.81266E+04  5.07725E+03 -1.80370E+04 -8.23026E+03
 -1.06749E+04 -2.08060E+04  5.75347E+03 -2.57744E+04  1.67069E+04 -1.81477E+04  2.04004E+04 -1.78564E+03
  1.27908E+04  1.44651E+04 -1.24721E+03  2.07969E+04 -1.43455E+04  1.17138E+04 -2.10665E+04 -4.54278E+03
 -1.54291E+04 -1.88274E+04 -2.28331E+03 -2.53848E+04  1.15875E+04 -2.11424E+04  2.11054E+04 -1.05413E+04
  1.98374E+04 -1.96999E+02  1.38667E+04  4.76745E+03  7.73573E+03  8.72208E+02  1.07740E+04 -2.13975E+03
  1.96470E+04  2.48502E+03  2.20206E+04  1.63604E+04  1.50364E+04  3.32915E+04 -2.72283E+03  3.85706E+04
 -2.24079E+04  3.16268E+04 -3.59632E+04  1.61460E+04 -3.81063E+04 -2.98529E+03 -3.13178E+04 -2.24467E+04
 -1.28806E+04 -3.20081E+04  1.11994E+04 -2.80810E+04  2.44150E+04 -1.38714E+04  2.14467E+04  5.95543E+03
  7.76885E+03  1.63382E+04 -9.87499E+03  1.39307E+04 -1.77724E+04  2.27671E+03 -1.35114E+04 -1.11175E+04
 -6.27747E+02 -1.68537E+04  9.19818E+03 -1.26534E+04  1.11050E+04 -1.56471E+03  2.89436E+03  7.27862E+03
 -7.72243E+03  3.07699E+03 -6.95668E+03 -6.69789E+03 -1.32853E+03 -1.54288E+04  1.03736E+04 -1.65304E+04
  1.93857E+04 -8.80661E+03  2.14307E+04  2.91031E+03  1.88779E+04  1.53903E+04  8.43260E+03  2.36205E+04
 -4.14830E+03  2.56917E+04 -1.61171E+04  1.63301E+04 -1.86344E+04  3.56572E+03 -1.30818E+04 -4.66748E+03
 -5.61711E+03 -5.74567E+03 -4.37421E+02  7.47088E+02 -2.39954E+03  2.90347E+03 -6.17681E+03  5.00122E+03
 -1.16927E+04 -9.96374E+02 -1.23392E+04 -9.78723E+03 -5.16574E+03 -1.66203E+04  5.52668E+03 -1.31383E+04
  1.06772E+04 -5.63583E+03  7.52676E+03  3.26251E+03  1.51737E+02  5.12703E+03 -6.48231E+03  2.29830E+01
 -5.94521E+03 -7.75472E+03 -8.24882E+02 -1.26367E+04  7.21029E+03 -1.30954E+04  1.62712E+04 -7.20872E+03
  1.90211E+04  1.65374E+03  1.35350E+04  1.14777E+04  2.65104E+03  1.52787E+04 -8.43888E+03  1.26487E+04
 -1.05091E+04  3.37217E+03 -5.26639E+03 -2.58962E+03  1.70391E+03 -3.51840E+03  6.80743E+03 -9.85333E+02
  6.01312E+03  5.55696E+03  9.51190E+02  1.02933E+04 -7.20477E+03  9.94900E+03 -1.25440E+04  2.47616E+03
 -8.65795E+03 -6.64086E+03  2.22541E+02 -1.11472E+04  6.75290E+03 -5.54803E+03  6.84025E+03  2.30453E+03
  1.44390E+03  7.15325E+03 -6.48738E+03  8.83487E+03 -1.01285E+04  4.05674E+03 -1.00307E+04 -3.01893E+03
 -5.80989E+03 -1.17899E+04  2.97988E+03 -1.34270E+04  1.14832E+04 -8.08527E+03  1.28981E+04  2.12083E+03
  7.84387E+03  1.01060E+04 -8.71791E+02  1.26258E+04 -8.96483E+03  6.90433E+03 -9.31064E+03 -1.05220E+03
 -8.58761E+03 -8.18846E+03 -1.95260E+03 -9.52464E+03  4.64951E+03 -7.52085E+03  5.69688E+03 -3.24686E+03
  4.10999E+03  1.01596E+03 -5.12713E+02  1.61632E+03 -3.21072E+02 -1.98402E+03  1.62906E+03 -4.78774E+03
  8.70564E+03 -3.00044E+03  1.15455E+04  1.49759E+03  1.13337E+04  7.89855E+03  8.04952E+03  1.50614E+04
 -3.53761E+03  1.75754E+04 -1.47308E+04  1.29859E+04 -1.87053E+04  2.59064E+03 -1.51331E+04 -6.15141E+03
 -7.59147E+03 -1.22263E+04 -2.02309E+02 -1.09018E+04  3.81296E+03 -5.66305E+03  3.67709E+03 -3.87874E+03
  2.57985E+03 -2.29930E+03  3.22668E+03 -3.40366E+03  4.67230E+03 -2.36372E+03  6.17513E+03 -7.25877E+02
  8.01538E+03  1.85269E+03  3.75557E+03  6.55728E+03 -2.11359E+03  7.37852E+03 -8.22708E+03  6.11194E+03
 -1.02538E+04 -1.20316E+03 -6.23815E+03 -6.97912E+03 -7.79192E+02 -1.09208E+04  6.21436E+03 -1.14449E+04
  1.12806E+04 -6.47682E+03  1.38498E+04  1.58326E+03  9.68688E+03  9.57339E+03  1.45535E+03  1.19712E+04
 -4.88823E+03  1.04871E+04 -7.02838E+03  3.79408E+03 -4.86744E+03 -1.32661E+03 -1.61679E+03 -1.46471E+03
 -9.84789E+02 -1.56892E+02 -1.66998E+03  2.19006E+03 -4.82538E+03  1.60304E+03 -7.25926E+03 -8.59763E+02
 -4.34982E+03 -7.22945E+03  4.81478E+02 -9.91826E+03  6.11616E+03 -9.31942E+03  9.68457E+03 -2.80890E+03
  9.65205E+03  5.14415E+03  4.54210E+03  8.47977E+03 -2.06391E+03  1.01738E+04 -6.94621E+03  6.21970E+03
 -9.19452E+03  3.64520E+02 -7.26029E+03 -5.67247E+03 -5.64318E+02 -7.95629E+03  4.23524E+03 -5.88111E+03
  6.09516E+03 -2.20292E+03  4.19554E+03  1.54665E+03  1.37441E+03  2.98703E+03  1.21695E+03  1.36474E+03
  2.12902E+03  6.83553E+02  2.07073E+03  1.49934E+03  2.71772E+03  3.74489E+03  2.50407E+03  4.94662E+03
 -1.87744E+03  7.06618E+03 -6.37978E+03  7.88983E+03 -9.49506E+03  2.24696E+03 -1.00996E+04 -3.53216E+03
 -5.05240E+03 -9.49489E+03  1.50932E+03 -1.06248E+04  5.47229E+03 -6.79725E+03  7.49547E+03 -1.46108E+03
  6.00514E+03  3.69463E+03  8.85643E+02  5.23246E+03 -2.73347E+03  3.15961E+03 -3.80733E+03 -5.50752E+02
 -1.67947E+03 -3.74588E+03  2.41535E+03 -4.00236E+03  3.93391E+03 -2.25005E+03  3.73549E+03  7.22053E+02
  2.34381E+03  1.75739E+03  1.16873E+03  1.35089E+03 -5.16445E+02  1.12684E+03  1.30996E+03 -3.89154E+02
  1.06070E+03 -6.56220E+02  4.17161E+03  1.23537E+03  1.86168E+03  4.87115E+03 -7.85561E+02  6.62705E+03
 -4.55310E+03  3.98242E+03 -5.58218E+03  1.02155E+03 -4.95588E+03 -2.12165E+03 -1.35398E+03 -3.26727E+03
  6.30500E+02 -3.56616E+03  2.07780E+03 -1.56063E+03  1.79156E+03  2.09682E+03 -9.93673E+02  3.00416E+03
 -3.62517E+03  1.62251E+03 -4.17007E+03 -2.37507E+03 -2.11709E+03 -4.93885E+03  5.95158E+02 -4.63026E+03
  2.51341E+03 -2.31994E+03  3.45140E+03 -6.20287E+02  3.25883E+03  8.36638E+02  3.03595E+02  2.82211E+03
 -1.73335E+03  9.46070E+02 -1.73957E+03 -1.38903E+03  1.25014E+03 -3.29289E+03  4.40088E+03 -2.99449E+03
  5.40657E+03  6.25133E+02  5.90550E+03  3.50925E+03  2.05413E+03  5.37936E+03 -1.69242E+03  5.29048E+03
 -4.47739E+03  2.10096E+03 -4.68963E+03 -8.01087E+02 -2.55640E+03 -3.32214E+03  6.51837E+02 -3.15411E+03
  3.86343E+03 -1.50558E+03  2.91973E+03  1.62641E+03  9.70114E+02  3.53939E+03  4.05484E+01  2.67959E+03
 -1.26126E+03  2.04547E+03 -1.50536E+03  3.56658E+02 -3.51781E+02  4.26941E+02 -9.43683E+02  1.26016E+03
 -1.38999E+03  2.50031E+03 -3.98732E+03  1.78756E+03 -5.45809E+03  1.46973E+02 -6.04127E+03 -3.49957E+03
 -3.38532E+03 -7.36660E+03  1.68053E+03 -8.13840E+03  4.68106E+03 -6.29462E+03  7.51233E+03 -2.40701E+03
  6.89571E+03  9.32878E+02  4.15766E+03  4.58279E+03  1.30491E+02  5.56744E+03 -2.10828E+03  4.14517E+03
 -3.19426E+03  1.72908E+03 -1.84093E+03 -5.06842E+02 -8.24365E+02 -6.88863E+02 -7.77483E+02 -2.90472E+02
 -1.21521E+03 -1.57962E+01 -1.70449E+03 -2.84639E+02 -1.55845E+02 -1.36483E+03 -6.61423E+01 -2.30139E+03
  2.43304E+03 -1.90216E+03  2.85672E+03  2.54159E+02  3.43835E+03  3.18023E+03  4.85496E+02  5.08096E+03
 -2.51708E+03  6.21040E+03 -5.44096E+03  3.58309E+03 -6.53186E+03 -3.43737E+02 -4.48181E+03 -3.78291E+03
 -1.94959E+03 -4.72774E+03  1.34204E+03 -4.82816E+03  3.02490E+03 -2.72107E+03  3.10404E+03  2.78413E+02
  1.82023E+03  1.69768E+03 -3.70345E+01  1.13171E+03 -1.01122E+03 -2.76348E+02  4.31053E+02 -9.12267E+02
  1.75081E+03 -6.48231E+02  1.96095E+03  8.61863E+02  1.18214E+03  1.83892E+03  4.14583E+02  2.47136E+03
 -2.23139E+03  2.14551E+03 -3.15918E+03 -1.75483E+02 -2.58808E+03 -1.93344E+03 -3.15163E+02 -4.10585E+03
  2.31044E+03 -3.18015E+03  3.25117E+03 -9.79077E+02  3.94063E+03  1.37519E+02  1.78548E+03  3.17543E+03
  5.96116E+02  2.93172E+03 -1.26653E+03  2.52799E+03 -1.73305E+03  1.54315E+03 -1.71555E+03  3.02522E+02
 -6.36180E+02  5.45840E+01 -1.19570E+03  4.17515E+02 -1.65310E+03  4.12390E+02 -2.32190E+03 -7.09361E+02
 -2.39745E+03 -9.71147E+02 -9.35603E+02 -3.30013E+03  1.64453E+03 -3.61012E+03  2.65613E+03 -1.38172E+03
  2.87391E+03  3.13000E+02  1.31804E+03  1.74171E+03  4.78745E+01  3.16737E+03 -2.43060E+03  2.15940E+03
