 $NMID ID='MM_0lb_SNR800_9hz_g40_28.RAW', FMTDAT='(8E13.5)'
 TRAMP=1., VOLUME=1. $END
  3.09847E+05  5.53060E+02  3.37990E+05  2.50938E+05  8.51770E+04  3.38284E+05 -1.32564E+05  2.51810E+05
 -1.91124E+05  8.34321E+04 -1.12328E+05 -3.25467E+04  6.11872E+02 -5.05239E+04  5.40688E+04 -6.15701E+02
  3.52816E+04  5.25910E+04 -1.65808E+04  7.58038E+04 -6.12143E+04  6.43340E+04 -8.52455E+04  3.27586E+04
 -8.22044E+04 -1.15326E+04 -5.80854E+04 -5.18298E+04 -1.53420E+04 -7.03860E+04  2.77745E+04 -4.68954E+04
  4.07434E+04  3.77709E+03  1.66299E+04  4.84315E+04 -3.50379E+04  4.81355E+04 -6.78870E+04  2.28608E+02
 -5.45617E+04 -5.73648E+04 -7.17832E+03 -7.83455E+04  3.42215E+04 -5.64502E+04  4.94261E+04 -1.79461E+04
  4.47490E+04  1.16333E+04  3.26686E+04  2.60692E+04  1.56608E+04  3.04864E+04 -5.55911E+03  2.76568E+04
 -2.20558E+04  1.21734E+04 -1.82492E+04 -5.53506E+03  6.90919E+03 -7.85004E+03  2.33551E+04  1.31625E+04
  7.29083E+03  3.71545E+04 -3.34236E+04  3.68719E+04 -6.57350E+04  1.95336E+03 -5.85080E+04 -4.40177E+04
 -1.28309E+04 -6.55160E+04  4.13565E+04 -4.68948E+04  6.07891E+04 -2.52459E+03  3.60479E+04  3.39478E+04
 -5.45308E+03  3.90042E+04 -3.09317E+04  1.83968E+04 -3.26572E+04 -3.75864E+03 -1.85295E+04 -1.14927E+04
 -9.08298E+03 -1.43324E+04 -8.42882E+02 -1.95810E+04  8.34755E+03 -2.33627E+04  1.57906E+04 -1.26641E+04
  1.08338E+04  5.70241E+03 -9.95268E+03  1.24927E+04 -2.32968E+04 -6.29042E+03 -8.40146E+03 -3.67042E+04
  2.43098E+04 -4.61926E+04  5.08607E+04 -2.07717E+04  4.80448E+04  2.09917E+04  1.69148E+04  4.65160E+04
 -1.67471E+04  3.58037E+04 -2.75481E+04  2.49035E+03 -1.11043E+04 -2.91907E+04  2.19702E+04 -3.65680E+04
  4.39883E+04 -1.07170E+04  3.94154E+04  2.45338E+04  2.08180E+04  5.04026E+04 -7.81669E+03  5.46963E+04
 -3.50607E+04  3.71902E+04 -4.66797E+04  1.04790E+04 -4.66745E+04 -1.78582E+04 -2.56839E+04 -4.14911E+04
  7.53191E+03 -4.13445E+04  3.40891E+04 -1.66743E+04  3.12461E+04  1.09467E+04  4.93845E+03  2.01680E+04
 -1.36389E+04  9.30213E+03 -1.12639E+04 -7.66118E+03  5.57352E+03 -1.16140E+04  1.89262E+04  5.57264E+03
  1.44531E+04  2.23274E+04 -5.25610E+03  2.66951E+04 -2.31924E+04  1.42193E+04 -3.09982E+04 -3.33288E+03
 -2.44075E+04 -1.84160E+04 -1.09483E+04 -2.40405E+04  4.27568E+03 -2.44780E+04  1.90040E+04 -2.22530E+04
  3.11458E+04 -1.44260E+04  3.72282E+04  4.74065E+03  2.65302E+04  2.32571E+04  4.44732E+03  4.06849E+04
 -1.91038E+04  3.32430E+04 -2.98976E+04  1.16318E+04 -2.21090E+04 -1.02618E+04 -4.77577E+03 -1.33507E+04
  8.23027E+02 -1.54101E+03 -7.17258E+03  8.38246E+03 -1.94080E+04  4.97263E+03 -1.97446E+04 -9.38130E+03
 -1.16874E+04 -2.25421E+04  5.87546E+03 -2.71368E+04  1.76880E+04 -1.92627E+04  2.15692E+04 -1.63965E+03
  1.38869E+04  1.52751E+04 -1.69448E+03  2.24311E+04 -1.60072E+04  1.31184E+04 -2.26211E+04 -4.87376E+03
 -1.69950E+04 -2.03578E+04 -2.00093E+03 -2.70595E+04  1.21266E+04 -2.24180E+04  2.23353E+04 -1.16092E+04
  2.12293E+04 -2.42075E+02  1.53064E+04  5.14307E+03  8.29797E+03  1.22381E+03  1.19970E+04 -2.08345E+03
  2.14887E+04  3.30205E+03  2.46228E+04  1.76784E+04  1.66655E+04  3.62675E+04 -2.69404E+03  4.23459E+04
 -2.44430E+04  3.53528E+04 -3.98764E+04  1.82235E+04 -4.25733E+04 -2.86548E+03 -3.48035E+04 -2.49993E+04
 -1.38386E+04 -3.50557E+04  1.26874E+04 -3.10398E+04  2.71547E+04 -1.46699E+04  2.34839E+04  7.52961E+03
  7.97126E+03  1.80402E+04 -1.11057E+04  1.53870E+04 -1.92588E+04  2.39585E+03 -1.48466E+04 -1.23840E+04
 -6.52046E+02 -1.90659E+04  9.57003E+03 -1.38073E+04  1.28222E+04 -1.32535E+03  3.55597E+03  8.37724E+03
 -8.76847E+03  3.89864E+03 -8.33233E+03 -6.41809E+03 -1.46210E+03 -1.76304E+04  1.11852E+04 -1.91853E+04
  2.21895E+04 -1.09631E+04  2.48739E+04  2.96625E+03  2.16393E+04  1.74722E+04  9.84575E+03  2.75267E+04
 -5.11788E+03  2.93640E+04 -1.93853E+04  1.84737E+04 -2.13965E+04  3.73872E+03 -1.45538E+04 -5.65897E+03
 -6.32288E+03 -6.77476E+03 -6.46215E+02  5.56044E+02 -2.47192E+03  3.09755E+03 -7.04942E+03  5.44829E+03
 -1.34609E+04 -9.82647E+02 -1.38873E+04 -1.12750E+04 -5.50362E+03 -1.89338E+04  5.80466E+03 -1.48634E+04
  1.24284E+04 -6.40596E+03  8.68761E+03  4.13793E+03 -1.64186E+02  6.14107E+03 -7.40359E+03  3.22407E+02
 -7.21578E+03 -9.84455E+03 -9.89284E+02 -1.47133E+04  8.55347E+03 -1.55829E+04  1.94129E+04 -8.41432E+03
  2.23264E+04  2.25994E+03  1.61764E+04  1.30759E+04  2.95769E+03  1.80417E+04 -9.15199E+03  1.49036E+04
 -1.23955E+04  4.05223E+03 -6.06578E+03 -3.55521E+03  1.89833E+03 -4.32730E+03  7.69687E+03 -8.51599E+02
  7.00962E+03  6.23028E+03  1.01445E+03  1.19621E+04 -8.61469E+03  1.14102E+04 -1.46782E+04  2.30727E+03
 -1.00928E+04 -8.41424E+03 -1.70694E+02 -1.28637E+04  8.57663E+03 -6.71206E+03  8.53214E+03  2.78105E+03
  1.98792E+03  9.65867E+03 -7.97624E+03  1.05938E+04 -1.28605E+04  4.96375E+03 -1.30310E+04 -4.87092E+03
 -7.54682E+03 -1.49671E+04  3.70168E+03 -1.71739E+04  1.48709E+04 -9.87551E+03  1.59536E+04  2.63643E+03
  9.63178E+03  1.26855E+04 -1.44340E+03  1.45445E+04 -1.09648E+04  8.65624E+03 -1.21597E+04 -1.38650E+03
 -1.01618E+04 -9.98890E+03 -1.70137E+03 -1.13252E+04  6.19401E+03 -9.23652E+03  7.54503E+03 -3.69056E+03
  4.82409E+03  1.73571E+03 -1.14508E+03  2.21244E+03 -8.21997E+02 -2.84354E+03  2.57570E+03 -6.93244E+03
  1.10584E+04 -4.68995E+03  1.55853E+04  2.01676E+03  1.48961E+04  1.00075E+04  9.68944E+03  1.99622E+04
 -4.49237E+03  2.28285E+04 -1.85503E+04  1.64831E+04 -2.40653E+04  3.06996E+03 -1.94783E+04 -8.10328E+03
 -9.74871E+03 -1.59217E+04 -1.13032E+02 -1.34374E+04  4.76030E+03 -7.68381E+03  4.68401E+03 -5.09810E+03
  3.59132E+03 -3.42773E+03  3.79940E+03 -3.69569E+03  5.73512E+03 -3.57215E+03  7.60624E+03 -1.06377E+03
  1.05040E+04  2.53015E+03  5.23367E+03  9.00334E+03 -2.05985E+03  1.03635E+04 -1.08175E+04  7.83430E+03
 -1.40699E+04 -1.57962E+03 -8.66502E+03 -9.31549E+03 -1.43030E+03 -1.49920E+04  8.30454E+03 -1.49380E+04
  1.55779E+04 -8.21187E+03  1.86870E+04  2.61468E+03  1.25850E+04  1.35266E+04  2.10982E+03  1.67991E+04
 -6.97530E+03  1.35042E+04 -1.00745E+04  5.07799E+03 -6.71678E+03 -1.47200E+03 -2.98909E+03 -1.88255E+03
 -1.34013E+03 -1.09391E+02 -2.06970E+03  2.65492E+03 -5.66214E+03  2.19480E+03 -9.78657E+03 -1.43361E+03
 -6.72176E+03 -9.62554E+03  9.16005E+01 -1.35048E+04  8.41191E+03 -1.30434E+04  1.36403E+04 -3.90890E+03
  1.40380E+04  6.57456E+03  6.55926E+03  1.24035E+04 -2.60924E+03  1.41617E+04 -9.62107E+03  8.86619E+03
 -1.32947E+04  7.01168E+02 -1.00846E+04 -8.26579E+03 -1.35328E+03 -1.16753E+04  5.93165E+03 -8.83256E+03
  8.76147E+03 -2.78482E+03  6.09272E+03  2.44071E+03  2.04339E+03  4.14320E+03  1.22495E+03  1.72525E+03
  2.69187E+03  9.89889E+02  3.40919E+03  2.39028E+03  4.31546E+03  4.70770E+03  3.63695E+03  7.56307E+03
 -2.84135E+03  1.10518E+04 -9.59939E+03  1.13118E+04 -1.43493E+04  2.72988E+03 -1.47184E+04 -6.00226E+03
 -7.19719E+03 -1.40749E+04  1.87975E+03 -1.51567E+04  8.35717E+03 -9.70989E+03  1.14031E+04 -2.52265E+03
  8.88629E+03  4.79890E+03  2.19290E+03  8.29042E+03 -4.02134E+03  5.18881E+03 -6.20089E+03 -1.90764E+02
 -2.87584E+03 -6.15745E+03  3.50591E+03 -6.15037E+03  5.83919E+03 -2.99454E+03  5.28934E+03  8.33731E+02
  3.38254E+03  3.01300E+03  1.28943E+03  2.40336E+03 -1.23186E+03  2.03617E+03  1.82654E+03 -5.58748E+02
  2.22690E+03 -8.05393E+02  6.08186E+03  2.29523E+03  3.50814E+03  7.55843E+03 -1.10284E+03  9.85416E+03
 -6.72068E+03  6.51128E+03 -9.06544E+03  1.77267E+03 -8.07253E+03 -2.85213E+03 -3.28571E+03 -5.47195E+03
  8.46874E+02 -5.54421E+03  3.81732E+03 -2.89001E+03  3.30487E+03  3.12370E+03 -1.52140E+03  4.52613E+03
 -6.10587E+03  2.96592E+03 -6.65181E+03 -3.56521E+03 -4.14890E+03 -7.56382E+03  1.60015E+03 -8.08859E+03
  5.02809E+03 -4.54520E+03  5.70963E+03 -5.27805E+02  4.75067E+03  2.09452E+03  6.98742E+02  4.58496E+03
 -2.90726E+03  8.25037E+02 -3.69676E+03 -2.60779E+03  1.63491E+03 -5.88863E+03  7.11016E+03 -5.01609E+03
  9.07785E+03  8.44005E+02  9.01084E+03  6.24839E+03  2.84031E+03  9.41993E+03 -3.37448E+03  9.05784E+03
 -7.42692E+03  3.78181E+03 -8.07139E+03 -8.86403E+02 -4.27400E+03 -6.05905E+03  1.81970E+03 -5.52176E+03
  5.88278E+03 -2.81676E+03  4.70936E+03  2.55135E+03  1.98181E+03  4.94358E+03 -9.09612E+02  4.83352E+03
 -2.33906E+03  3.07610E+03 -2.38937E+03  8.49307E+02 -1.34479E+03  1.27213E+03 -1.36673E+03  1.73006E+03
 -2.72803E+03  3.79164E+03 -6.55386E+03  3.27909E+03 -9.46973E+03  2.52179E+02 -1.04121E+04 -6.09195E+03
 -5.54571E+03 -1.23587E+04  2.52340E+03 -1.45843E+04  8.54175E+03 -1.11507E+04  1.39336E+04 -4.40264E+03
  1.27363E+04  2.70111E+03  7.82782E+03  8.71189E+03  4.05405E+02  9.54499E+03 -3.52044E+03  6.91040E+03
 -5.70858E+03  2.31779E+03 -3.44923E+03 -1.22768E+03 -1.25189E+03 -1.00834E+03 -3.77616E+02  9.08195E+01
 -1.54211E+03 -8.23788E+01 -2.40985E+03 -2.52449E+02 -8.72066E+02 -2.42463E+03  3.61709E+02 -3.36368E+03
  4.43429E+03 -3.27877E+03  6.12792E+03 -2.25165E+02  6.74435E+03  5.58524E+03  1.85960E+03  9.99020E+03
 -4.82419E+03  1.11869E+04 -1.03648E+04  6.41312E+03 -1.21003E+04 -8.39043E+02 -8.64525E+03 -7.26649E+03
 -3.90944E+03 -1.01293E+04  2.86986E+03 -9.61597E+03  6.32654E+03 -5.43407E+03  6.63565E+03  4.37710E+02
  3.79991E+03  3.04685E+03 -3.30133E+02  2.75943E+03 -2.65964E+03 -3.21776E+02 -3.09217E+02 -2.38722E+03
  3.52553E+03 -1.12215E+03  4.06908E+03  1.20261E+03  2.49190E+03  4.15780E+03  3.24961E+02  4.97137E+03
 -4.27195E+03  4.57843E+03 -6.90334E+03  2.10669E+02 -6.10495E+03 -4.49452E+03 -6.12308E+02 -8.28762E+03
  4.92660E+03 -6.91500E+03  7.68022E+03 -2.13343E+03  7.61297E+03  1.67233E+03  4.45320E+03  6.35740E+03
  8.80020E+02  6.49431E+03 -2.26094E+03  5.27936E+03 -4.05358E+03  2.79852E+03 -3.87511E+03  5.32062E+02
 -2.02470E+03 -7.19784E+02 -1.63130E+03  6.71113E+02 -3.29866E+03  8.44517E+02 -5.33574E+03 -7.30913E+02
 -5.05946E+03 -3.49723E+03 -1.63659E+03 -6.50507E+03  3.29770E+03 -7.04126E+03  5.63034E+03 -3.49125E+03
  6.51090E+03  9.40353E+02  3.48680E+03  4.43813E+03 -1.06087E+02  6.75223E+03 -4.90670E+03  4.05283E+03
