 $NMID ID='MM_0lb_SNR800_14hz_g55_28.RAW', FMTDAT='(8E13.5)'
 TRAMP=1., VOLUME=1. $END
  3.09605E+05  3.50540E+02  3.37576E+05  2.50752E+05  8.47284E+04  3.38103E+05 -1.32431E+05  2.51382E+05
 -1.90287E+05  8.31862E+04 -1.12287E+05 -3.24694E+04  8.76539E+02 -5.02580E+04  5.33314E+04 -1.02293E+02
  3.57118E+04  5.30217E+04 -1.68736E+04  7.53061E+04 -6.06001E+04  6.39230E+04 -8.44228E+04  3.25610E+04
 -8.14538E+04 -1.14270E+04 -5.74737E+04 -5.18796E+04 -1.52084E+04 -7.00232E+04  2.75899E+04 -4.63627E+04
  4.03503E+04  3.80362E+03  1.63433E+04  4.78985E+04 -3.45280E+04  4.75032E+04 -6.73738E+04 -3.03480E+02
 -5.37574E+04 -5.70968E+04 -6.69642E+03 -7.73971E+04  3.40446E+04 -5.53098E+04  4.82786E+04 -1.73138E+04
  4.37150E+04  1.15943E+04  3.22762E+04  2.57745E+04  1.58512E+04  2.97493E+04 -5.39532E+03  2.71286E+04
 -2.21595E+04  1.21365E+04 -1.84344E+04 -4.96105E+03  6.04305E+03 -7.59414E+03  2.24679E+04  1.24368E+04
  7.20022E+03  3.55910E+04 -3.24740E+04  3.60432E+04 -6.39287E+04  1.91729E+03 -5.71709E+04 -4.32149E+04
 -1.26648E+04 -6.37387E+04  4.03014E+04 -4.57126E+04  5.86671E+04 -1.98097E+03  3.47511E+04  3.28367E+04
 -5.97999E+03  3.69899E+04 -3.02474E+04  1.65712E+04 -3.10885E+04 -4.28080E+03 -1.73593E+04 -1.08362E+04
 -8.77420E+03 -1.39136E+04 -8.21190E+02 -1.78039E+04  7.84995E+03 -2.28913E+04  1.55627E+04 -1.34624E+04
  1.16662E+04  5.53370E+03 -8.63254E+03  1.28888E+04 -2.15578E+04 -5.40708E+03 -8.30769E+03 -3.46766E+04
  2.33986E+04 -4.42521E+04  4.86138E+04 -1.98342E+04  4.59524E+04  1.97359E+04  1.59594E+04  4.48049E+04
 -1.61111E+04  3.36159E+04 -2.56523E+04  1.85317E+03 -1.02412E+04 -2.80057E+04  2.11690E+04 -3.44766E+04
  4.16843E+04 -9.07767E+03  3.61894E+04  2.40623E+04  1.89023E+04  4.70141E+04 -7.89185E+03  5.13440E+04
 -3.22906E+04  3.41522E+04 -4.28418E+04  9.75137E+03 -4.36163E+04 -1.67496E+04 -2.39174E+04 -3.87122E+04
  7.38731E+03 -3.84705E+04  3.18858E+04 -1.53381E+04  2.95955E+04  1.11408E+04  4.10648E+03  1.92855E+04
 -1.35548E+04  8.89074E+03 -1.04231E+04 -7.69925E+03  5.82997E+03 -1.10189E+04  1.81982E+04  5.71968E+03
  1.37095E+04  2.23160E+04 -5.87268E+03  2.53535E+04 -2.24479E+04  1.22391E+04 -2.83867E+04 -4.66708E+03
 -2.13886E+04 -1.75823E+04 -8.88752E+03 -2.13390E+04  4.08446E+03 -2.02579E+04  1.64528E+04 -1.90170E+04
  2.71570E+04 -1.31585E+04  3.34390E+04  2.90642E+03  2.40284E+04  2.06399E+04  4.18980E+03  3.69526E+04
 -1.82756E+04  3.07717E+04 -2.82150E+04  1.04784E+04 -2.07338E+04 -1.01491E+04 -4.60264E+03 -1.35449E+04
  1.70866E+03 -2.66206E+03 -5.47571E+03  6.68403E+03 -1.63407E+04  5.31678E+03 -1.67853E+04 -7.38447E+03
 -1.03204E+04 -1.95677E+04  5.13819E+03 -2.37696E+04  1.58139E+04 -1.70087E+04  1.84157E+04 -1.71198E+03
  1.21098E+04  1.31228E+04 -1.33597E+03  1.94157E+04 -1.33961E+04  1.12834E+04 -1.95133E+04 -3.91079E+03
 -1.44061E+04 -1.77691E+04 -1.64156E+03 -2.36059E+04  1.07745E+04 -1.95969E+04  1.95285E+04 -9.38489E+03
  1.85784E+04  5.63277E+02  1.28549E+04  4.34610E+03  7.15199E+03  1.12826E+03  9.79864E+03 -1.78485E+03
  1.82036E+04  2.76313E+03  2.01515E+04  1.54097E+04  1.33212E+04  3.14318E+04 -2.86177E+03  3.54090E+04
 -2.06238E+04  2.85776E+04 -3.30648E+04  1.44696E+04 -3.48101E+04 -2.63277E+03 -2.89427E+04 -2.01776E+04
 -1.23932E+04 -2.89079E+04  1.00662E+04 -2.60229E+04  2.23614E+04 -1.34020E+04  1.95140E+04  5.61654E+03
  7.73262E+03  1.48880E+04 -9.43578E+03  1.31290E+04 -1.69370E+04  2.49401E+03 -1.26862E+04 -1.01754E+04
 -1.75366E+02 -1.57531E+04  8.50114E+03 -1.18921E+04  1.08340E+04 -1.47150E+03  2.61654E+03  6.71494E+03
 -7.25540E+03  2.81119E+03 -6.33345E+03 -5.71722E+03 -6.71918E+02 -1.41313E+04  9.83606E+03 -1.42830E+04
  1.73106E+04 -7.75771E+03  1.89985E+04  3.26929E+03  1.62614E+04  1.39236E+04  7.77093E+03  2.12195E+04
 -3.72350E+03  2.28615E+04 -1.50506E+04  1.46924E+04 -1.67496E+04  3.41795E+03 -1.17669E+04 -3.58291E+03
 -5.57181E+03 -5.45703E+03 -5.13618E+02  1.06534E+03 -2.61012E+03  2.67680E+03 -5.27965E+03  4.26383E+03
 -1.09254E+04 -3.49292E+02 -1.14179E+04 -9.42006E+03 -4.57903E+03 -1.51990E+04  4.99328E+03 -1.19346E+04
  9.93271E+03 -4.85810E+03  7.22905E+03  3.04032E+03  9.30136E+01  4.44685E+03 -5.75304E+03 -1.69547E+02
 -5.08015E+03 -7.20003E+03 -1.03649E+03 -1.12476E+04  6.43634E+03 -1.18280E+04  1.48614E+04 -6.29854E+03
  1.71970E+04  1.13194E+03  1.28508E+04  9.93801E+03  2.26763E+03  1.32305E+04 -7.47307E+03  1.15956E+04
 -9.45105E+03  3.68991E+03 -4.83481E+03 -2.11163E+03  1.72076E+03 -3.05720E+03  6.31796E+03 -9.57273E+02
  5.53195E+03  5.15151E+03  9.79788E+02  9.09875E+03 -6.87352E+03  8.80172E+03 -1.12061E+04  2.27233E+03
 -7.42142E+03 -5.54706E+03 -5.47931E+01 -9.75232E+03  5.82413E+03 -4.78893E+03  6.22365E+03  1.88955E+03
  1.45866E+03  6.36011E+03 -5.73195E+03  7.80368E+03 -8.39978E+03  3.43536E+03 -8.45765E+03 -2.78279E+03
 -5.04054E+03 -1.03088E+04  2.18688E+03 -1.20000E+04  1.04246E+04 -7.32656E+03  1.13576E+04  1.78696E+03
  7.10019E+03  8.16934E+03 -7.46281E+02  1.08775E+04 -7.88362E+03  6.24673E+03 -8.76616E+03 -6.62932E+02
 -7.98617E+03 -7.42890E+03 -1.48312E+03 -7.89191E+03  4.37943E+03 -6.82951E+03  4.69737E+03 -3.24804E+03
  3.90368E+03  1.19528E+03 -6.45588E+02  1.79325E+03 -8.71216E+01 -1.28171E+03  1.22571E+03 -4.13878E+03
  7.28053E+03 -2.53699E+03  1.02485E+04  1.06213E+03  1.00642E+04  6.58800E+03  7.38285E+03  1.33055E+04
 -2.50280E+03  1.50716E+04 -1.31048E+04  1.13944E+04 -1.65515E+04  2.11409E+03 -1.34355E+04 -5.30488E+03
 -7.08066E+03 -1.08511E+04 -4.33001E+02 -9.14250E+03  3.08504E+03 -5.03923E+03  3.17149E+03 -3.50444E+03
  2.24222E+03 -2.27062E+03  2.62261E+03 -2.93370E+03  4.26917E+03 -2.35161E+03  5.60432E+03 -2.02772E+02
  6.72325E+03  1.78770E+03  3.29241E+03  6.00768E+03 -1.91714E+03  6.50823E+03 -7.30556E+03  4.66237E+03
 -8.66767E+03 -1.24947E+03 -4.66104E+03 -6.09067E+03  3.03313E+01 -9.45844E+03  5.42832E+03 -9.30975E+03
  9.77337E+03 -5.56038E+03  1.17929E+04  1.09576E+03  8.34448E+03  7.90478E+03  1.57866E+03  1.03970E+04
 -4.11905E+03  9.24327E+03 -6.21440E+03  3.25296E+03 -3.99454E+03 -1.38968E+03 -1.28887E+03 -1.22097E+03
 -7.09134E+02  4.03342E+02 -1.50213E+03  2.31923E+03 -3.94280E+03  1.61164E+03 -6.51430E+03 -7.95942E+02
 -4.41134E+03 -6.54970E+03  5.93089E+02 -8.67388E+03  4.89898E+03 -7.51502E+03  7.81141E+03 -2.20837E+03
  7.97572E+03  4.25753E+03  3.77487E+03  7.18970E+03 -1.52999E+03  8.22377E+03 -5.53523E+03  5.06386E+03
 -7.77511E+03  5.38386E+02 -5.99521E+03 -4.98884E+03 -4.81658E+02 -6.61461E+03  3.48622E+03 -5.23218E+03
  5.13757E+03 -2.25022E+03  3.84633E+03  1.46448E+03  1.04119E+03  2.53931E+03  1.10021E+03  9.88457E+02
  1.99031E+03  6.24679E+02  1.94496E+03  1.47783E+03  2.21781E+03  3.51968E+03  2.15170E+03  4.13333E+03
 -1.66045E+03  6.37372E+03 -5.00919E+03  7.18293E+03 -7.43883E+03  1.76999E+03 -8.45563E+03 -2.36653E+03
 -3.62643E+03 -7.88787E+03  1.09783E+03 -9.15048E+03  4.38802E+03 -5.42504E+03  6.66804E+03 -1.82395E+03
  5.42753E+03  3.16642E+03  6.29679E+02  4.29489E+03 -1.91760E+03  2.95008E+03 -3.06020E+03 -3.38692E+02
 -1.26024E+03 -3.20466E+03  1.80083E+03 -3.21467E+03  3.06480E+03 -2.01261E+03  3.01035E+03  5.11124E+02
  1.52575E+03  1.36115E+03  9.81784E+02  7.77941E+02 -6.74181E+02  1.53642E+03  1.78654E+03  1.06569E+02
  1.00504E+03 -5.79678E+02  3.28656E+03  1.38377E+03  1.25420E+03  4.25702E+03 -5.72901E+02  5.59748E+03
 -3.44429E+03  3.23074E+03 -4.75142E+03  1.06455E+03 -4.52779E+03 -1.47651E+03 -1.36406E+03 -2.65639E+03
  3.82282E+02 -2.72518E+03  2.19056E+03 -1.38481E+03  1.42001E+03  1.63223E+03 -1.02761E+03  2.52811E+03
 -3.02065E+03  1.34981E+03 -3.21916E+03 -2.07018E+03 -1.75067E+03 -4.11146E+03  6.25902E+02 -3.78373E+03
  1.82869E+03 -2.21357E+03  2.72754E+03 -4.06295E+02  2.66383E+03  3.50930E+02  5.22934E+02  2.01960E+03
 -1.35226E+03  6.96535E+02 -1.97083E+03 -1.12886E+03  8.60180E+02 -2.47009E+03  3.49440E+03 -2.78007E+03
  3.96879E+03  2.37758E+02  4.83846E+03  2.53865E+03  1.69543E+03  4.21416E+03 -1.21577E+03  4.39279E+03
 -3.20723E+03  1.53960E+03 -3.94552E+03 -6.18946E+02 -2.04807E+03 -3.18142E+03  9.46208E+02 -2.25766E+03
  2.96950E+03 -1.60368E+03  2.13527E+03  1.01804E+03  7.67716E+02  3.15693E+03  3.83796E+02  2.14363E+03
 -1.13047E+03  1.72176E+03 -1.45653E+03  4.78972E+02 -5.87245E+02  4.99447E+02 -1.04092E+03  7.73590E+02
 -1.57017E+03  1.63313E+03 -3.23777E+03  1.31819E+03 -4.03608E+03  3.66162E+02 -5.14824E+03 -2.65787E+03
 -2.21680E+03 -5.61054E+03  1.29050E+03 -6.90169E+03  3.31165E+03 -5.62816E+03  6.18346E+03 -2.29188E+03
  5.28871E+03  7.04808E+02  3.31975E+03  3.93143E+03 -2.38926E+02  4.19310E+03 -1.88628E+03  3.08909E+03
 -2.73882E+03  1.37994E+03 -1.42193E+03 -3.54098E+02 -8.04426E+02 -1.91444E+02 -7.72363E+02  2.23337E+02
 -1.51201E+03 -2.14840E+02 -1.10053E+03 -2.10647E+02 -2.23551E+02 -1.17995E+03 -1.71128E+02 -1.75248E+03
  2.17930E+03 -1.47573E+03  1.98356E+03 -1.50176E+02  2.85738E+03  2.41232E+03  5.37211E+02  3.91455E+03
 -2.18735E+03  4.95482E+03 -4.09068E+03  2.89351E+03 -4.90327E+03 -5.16611E+02 -3.54021E+03 -3.08097E+03
 -1.66414E+03 -4.14964E+03  1.15467E+03 -3.99597E+03  2.57878E+03 -1.92850E+03  2.30974E+03  1.31119E+02
  1.73208E+03  9.68334E+02 -1.25026E+02  1.24568E+03 -1.01652E+03 -2.81518E+02 -9.52608E+01 -6.51942E+02
  1.08232E+03  2.04456E+01  1.44151E+03  6.59624E+02  8.00181E+02  1.58860E+03  5.07640E+02  1.72200E+03
 -1.74077E+03  1.77619E+03 -2.51348E+03  3.18032E+02 -2.00024E+03 -1.81199E+03 -1.41221E+02 -3.13653E+03
  1.33262E+03 -2.57126E+03  2.50634E+03 -3.21217E+02  2.87684E+03  3.37869E+02  1.58115E+03  2.17865E+03
  6.55896E+02  2.03030E+03 -1.01570E+03  1.91236E+03 -1.48054E+03  1.58454E+03 -1.17523E+03  1.52949E+02
 -4.44140E+02 -1.60989E+02 -9.72931E+02  3.18881E+02 -1.28200E+03  3.34550E+02 -2.20611E+03 -4.49506E+02
 -2.16913E+03 -6.31330E+02 -5.65040E+02 -2.37538E+03  1.46059E+03 -2.87479E+03  1.89083E+03 -9.82143E+02
  2.25940E+03  3.06290E+02  7.52908E+02  1.33892E+03  2.26168E+02  2.48845E+03 -1.27390E+03  1.65121E+03
