 $NMID ID='MM_0lb_SNR800_16hz_g45_38.RAW', FMTDAT='(8E13.5)'
 TRAMP=1., VOLUME=1. $END
  3.09908E+05  2.04104E+02  3.37325E+05  2.50557E+05  8.43883E+04  3.37914E+05 -1.32699E+05  2.50449E+05
 -1.90002E+05  8.27963E+04 -1.11362E+05 -3.26026E+04  1.14219E+03 -5.02870E+04  5.39350E+04  3.35705E+02
  3.51833E+04  5.28564E+04 -1.67809E+04  7.51023E+04 -6.05028E+04  6.30650E+04 -8.33157E+04  3.19335E+04
 -8.02572E+04 -1.14166E+04 -5.69039E+04 -5.06047E+04 -1.50372E+04 -6.87959E+04  2.71399E+04 -4.57024E+04
  3.98113E+04  3.95497E+03  1.58607E+04  4.75422E+04 -3.40252E+04  4.67209E+04 -6.58790E+04 -5.61884E+02
 -5.24365E+04 -5.65688E+04 -6.31064E+03 -7.60093E+04  3.34369E+04 -5.42429E+04  4.69511E+04 -1.68894E+04
  4.23402E+04  1.09733E+04  3.12481E+04  2.49096E+04  1.59305E+04  2.87976E+04 -5.38515E+03  2.68548E+04
 -2.18508E+04  1.24270E+04 -1.89330E+04 -4.39262E+03  5.05094E+03 -7.57528E+03  2.19626E+04  1.14622E+04
  7.28774E+03  3.41607E+04 -3.12895E+04  3.47264E+04 -6.21315E+04  2.21659E+03 -5.60661E+04 -4.17248E+04
 -1.22943E+04 -6.16752E+04  3.90794E+04 -4.44890E+04  5.68812E+04 -1.92993E+03  3.27401E+04  3.12690E+04
 -6.47817E+03  3.46283E+04 -2.90746E+04  1.44497E+04 -2.89797E+04 -5.02754E+03 -1.54710E+04 -1.03623E+04
 -7.82351E+03 -1.21345E+04 -7.15246E+02 -1.74397E+04  7.09113E+03 -2.29490E+04  1.51608E+04 -1.35228E+04
  1.17184E+04  4.62278E+03 -7.21761E+03  1.30979E+04 -2.03779E+04 -3.25891E+03 -8.12268E+03 -3.22503E+04
  2.17817E+04 -4.19087E+04  4.60714E+04 -1.93335E+04  4.37514E+04  1.86947E+04  1.47702E+04  4.28619E+04
 -1.56131E+04  3.21485E+04 -2.41923E+04  1.63835E+03 -9.16200E+03 -2.70944E+04  2.06695E+04 -3.24449E+04
  3.94513E+04 -8.33242E+03  3.31920E+04  2.29608E+04  1.68529E+04  4.42265E+04 -7.66282E+03  4.75748E+04
 -2.99225E+04  3.14833E+04 -3.98489E+04  9.00264E+03 -4.02566E+04 -1.58137E+04 -2.22768E+04 -3.58934E+04
  6.93520E+03 -3.60136E+04  3.05830E+04 -1.35824E+04  2.79895E+04  1.07723E+04  3.60245E+03  1.85461E+04
 -1.35368E+04  7.98336E+03 -1.00474E+04 -7.47056E+03  5.83792E+03 -1.02918E+04  1.75546E+04  6.10919E+03
  1.28060E+04  2.18899E+04 -6.09666E+03  2.41092E+04 -2.19122E+04  1.03609E+04 -2.62773E+04 -5.54457E+03
 -1.83289E+04 -1.66353E+04 -7.01264E+03 -1.83325E+04  3.86394E+03 -1.71187E+04  1.41196E+04 -1.60685E+04
  2.37323E+04 -1.21160E+04  3.01693E+04  2.08976E+03  2.23314E+04  1.80112E+04  4.18109E+03  3.41403E+04
 -1.70957E+04  2.88590E+04 -2.66977E+04  9.83119E+03 -2.00902E+04 -1.04577E+04 -4.11843E+03 -1.36592E+04
  2.22916E+03 -3.46814E+03 -3.33099E+03  5.96011E+03 -1.45737E+04  5.24903E+03 -1.49143E+04 -5.88243E+03
 -9.27245E+03 -1.69888E+04  4.84721E+03 -2.10903E+04  1.36618E+04 -1.51399E+04  1.62262E+04 -1.79645E+03
  1.01621E+04  1.18356E+04 -9.91169E+02  1.69988E+04 -1.16581E+04  9.75383E+03 -1.69998E+04 -3.75057E+03
 -1.26329E+04 -1.55744E+04 -1.68275E+03 -2.08620E+04  9.34786E+03 -1.69866E+04  1.73362E+04 -8.29347E+03
  1.58558E+04  4.00465E+02  1.16517E+04  4.03034E+03  5.68883E+03  6.94167E+02  8.63519E+03 -1.60806E+03
  1.55253E+04  2.42678E+03  1.69646E+04  1.35659E+04  1.05779E+04  2.72729E+04 -2.97078E+03  2.99061E+04
 -1.75643E+04  2.36838E+04 -2.79774E+04  1.15727E+04 -2.87527E+04 -1.90440E+03 -2.44133E+04 -1.65998E+04
 -1.07157E+04 -2.35746E+04  7.83288E+03 -2.14183E+04  1.87125E+04 -1.16185E+04  1.72715E+04  4.42115E+03
  6.72762E+03  1.27873E+04 -8.03963E+03  1.12956E+04 -1.46601E+04  2.76215E+03 -1.08253E+04 -8.94745E+03
 -7.26045E+01 -1.42004E+04  6.82221E+03 -1.07580E+04  8.64922E+03 -1.47378E+03  1.73839E+03  5.83548E+03
 -6.29170E+03  1.65441E+03 -4.70217E+03 -5.11853E+03 -1.84914E+01 -1.20530E+04  8.70476E+03 -1.20155E+04
  1.43473E+04 -5.83779E+03  1.47555E+04  2.74034E+03  1.25965E+04  1.07599E+04  5.76239E+03  1.64629E+04
 -2.38693E+03  1.84747E+04 -1.16673E+04  1.20659E+04 -1.33579E+04  3.23631E+03 -9.55640E+03 -2.54463E+03
 -4.91691E+03 -4.46443E+03 -7.74917E+02  1.43708E+03 -1.99435E+03  2.38743E+03 -4.51176E+03  3.84848E+03
 -9.29156E+03 -5.23662E+02 -9.70823E+03 -7.77981E+03 -3.96363E+03 -1.29542E+04  4.02226E+03 -9.76123E+03
  8.35503E+03 -4.32036E+03  6.04665E+03  2.33021E+03  3.92874E+02  3.66546E+03 -4.19436E+03 -1.09196E+02
 -4.44210E+03 -6.05222E+03 -7.89823E+02 -8.70498E+03  4.76472E+03 -9.18342E+03  1.18437E+04 -5.04518E+03
  1.40991E+04  9.06008E+02  1.02118E+04  7.74101E+03  2.31820E+03  1.08362E+04 -6.06022E+03  9.45951E+03
 -7.98128E+03  3.02063E+03 -4.32863E+03 -1.55863E+03  1.61931E+03 -2.26328E+03  5.41111E+03 -8.01570E+02
  4.95506E+03  3.91721E+03  1.27312E+03  7.54842E+03 -5.14127E+03  7.32081E+03 -9.48541E+03  2.02708E+03
 -5.92009E+03 -4.54021E+03  4.50654E+01 -7.81613E+03  4.73186E+03 -3.80883E+03  4.81118E+03  1.57795E+03
  6.21963E+02  4.74872E+03 -4.68087E+03  6.21988E+03 -6.32770E+03  2.97313E+03 -6.16446E+03 -1.43800E+03
 -3.86199E+03 -7.72082E+03  1.62785E+03 -8.99675E+03  7.68235E+03 -5.74584E+03  8.36637E+03  1.32865E+03
  5.64211E+03  6.49918E+03 -6.09348E+01  8.65851E+03 -6.10687E+03  5.01094E+03 -6.41923E+03 -5.27518E+02
 -6.63444E+03 -6.28849E+03 -1.52108E+03 -6.38361E+03  3.29397E+03 -5.34681E+03  3.91329E+03 -2.88914E+03
  3.03004E+03  5.78363E+02 -9.28618E+01  1.22475E+03  5.69507E+02 -6.42335E+02  5.47599E+02 -2.93152E+03
  5.20638E+03 -1.55601E+03  6.97918E+03  6.83693E+02  7.19607E+03  4.55091E+03  6.19319E+03  9.46161E+03
 -1.70769E+03  1.10685E+04 -9.59551E+03  8.33051E+03 -1.24363E+04  1.52312E+03 -9.92503E+03 -3.59071E+03
 -4.99125E+03 -8.17312E+03 -5.56476E+02 -6.75676E+03  2.46929E+03 -3.23399E+03  2.23756E+03 -2.75719E+03
  1.62716E+03 -1.70335E+03  2.43530E+03 -2.84727E+03  3.82212E+03 -1.83601E+03  4.12766E+03  3.91172E+01
  5.63333E+03  1.25232E+03  1.90207E+03  4.32002E+03 -1.60110E+03  4.25169E+03 -5.59184E+03  3.55036E+03
 -6.57932E+03 -1.12056E+03 -2.90450E+03 -4.56579E+03  3.71183E+01 -7.19295E+03  4.15924E+03 -7.07104E+03
  7.01507E+03 -4.45599E+03  8.94989E+03  9.05131E+02  6.48210E+03  5.49733E+03  1.21644E+03  7.98622E+03
 -2.86847E+03  7.34766E+03 -4.43426E+03  2.38021E+03 -2.95772E+03 -1.28436E+03 -1.20072E+03 -8.22161E+02
 -6.88270E+02  2.61195E+02 -1.34072E+03  2.15366E+03 -3.34617E+03  1.65854E+03 -5.15030E+03 -4.19432E+02
 -2.27110E+03 -5.18685E+03  7.52139E+02 -6.16733E+03  3.57073E+03 -5.92146E+03  5.17196E+03 -1.85606E+03
  5.71030E+03  3.18849E+03  2.53438E+03  4.96845E+03 -1.24316E+03  5.77778E+03 -3.89637E+03  3.77696E+03
 -5.39261E+03  5.42323E+02 -4.54414E+03 -3.48872E+03 -3.83657E+02 -4.70180E+03  2.37247E+03 -3.48940E+03
  3.80294E+03 -1.69835E+03  2.36316E+03  8.94508E+02  8.90803E+02  2.14663E+03  1.12968E+03  9.40463E+02
  2.04734E+03  3.89199E+02  1.59424E+03  1.32561E+03  1.64439E+03  2.85281E+03  1.83786E+03  2.69354E+03
 -1.83346E+03  4.37320E+03 -3.68084E+03  5.27507E+03 -4.76949E+03  1.47391E+03 -5.93101E+03 -1.48052E+03
 -2.75597E+03 -5.71898E+03  1.04246E+03 -6.47900E+03  2.89175E+03 -3.55352E+03  4.37270E+03 -8.93326E+02
  3.54950E+03  2.46323E+03  9.13313E+02  3.25433E+03 -1.33250E+03  1.73159E+03 -2.00503E+03 -2.18579E+02
 -8.76468E+02 -2.26061E+03  1.70809E+03 -2.37221E+03  2.42404E+03 -1.02116E+03  1.91621E+03  8.45509E+02
  1.52947E+03  9.34243E+02  7.22415E+02 -1.94548E+01 -4.79801E+02  9.09594E+02  1.39135E+03 -9.24891E+00
  4.74077E+02 -3.86818E+02  2.32611E+03  8.00272E+02  8.74164E+02  3.04480E+03 -6.36881E+02  4.17056E+03
 -2.25206E+03  1.73693E+03 -3.24507E+03  5.99136E+02 -2.99637E+03 -1.24684E+03 -4.89020E+02 -1.50861E+03
  6.23890E+02 -1.85171E+03  1.12195E+03 -1.03098E+03  1.02566E+03  1.67912E+03 -8.53432E+02  1.65624E+03
 -1.99375E+03  9.92689E+02 -2.03081E+03 -1.69345E+03 -1.19973E+03 -3.17362E+03  4.67261E+02 -2.51003E+03
  1.15349E+03 -1.13352E+03  1.42881E+03 -4.33210E+01  1.62059E+03  2.11947E+02  4.23235E+02  1.68589E+03
 -7.03564E+02  8.89306E+01 -1.24985E+03 -5.14059E+02  7.59991E+02 -1.52793E+03  2.30214E+03 -1.58100E+03
  2.63403E+03  2.98085E+02  3.74572E+03  1.40956E+03  1.44715E+03  2.85772E+03 -2.87508E+02  3.09277E+03
 -2.47120E+03  6.76222E+02 -2.60087E+03 -1.13246E+02 -1.35920E+03 -1.83687E+03  2.14986E+02 -1.41255E+03
  2.18136E+03 -1.03619E+03  1.44285E+03  6.60039E+02 -5.32910E+01  1.85954E+03  2.55480E+01  1.68434E+03
 -7.48416E+02  1.26792E+03 -6.80290E+02  3.59040E+02 -1.98720E+02  5.47413E+02 -8.12772E+02  7.70122E+02
 -1.03282E+03  1.20798E+03 -2.50512E+03  9.95899E+02 -2.73060E+03 -1.46504E+01 -3.53937E+03 -2.01852E+03
 -1.48350E+03 -3.84074E+03  9.56161E+02 -4.44691E+03  2.18430E+03 -3.71390E+03  4.23144E+03 -1.67608E+03
  3.92163E+03  1.59914E+02  2.31654E+03  2.77896E+03 -3.47462E+02  2.63190E+03 -1.50826E+03  2.30067E+03
 -1.49853E+03  1.01565E+03 -8.64492E+02 -3.86067E+02 -5.90724E+02  4.43128E+01 -7.80379E+02  9.48092E+01
 -1.19394E+03 -3.68014E+01 -9.89072E+02 -2.65993E+02  1.58804E+02 -7.00191E+02 -7.81528E+01 -1.40145E+03
  1.58863E+03 -9.90514E+02  1.49053E+03  2.19194E+02  1.96810E+03  1.81383E+03 -3.34117E+02  2.34843E+03
 -1.44462E+03  3.34103E+03 -2.81569E+03  2.11033E+03 -3.09167E+03 -3.57234E+02 -2.14555E+03 -2.05528E+03
 -1.28009E+03 -2.52757E+03  7.68799E+02 -2.48695E+03  1.26534E+03 -1.08108E+03  1.52423E+03  6.42754E+01
  9.35901E+02  6.91666E+02  1.40439E+02  7.62340E+02 -6.91762E+02 -2.27743E+02 -2.69379E+02 -8.47386E+02
  6.76868E+02  1.34278E+02  9.23047E+02  4.97255E+02  5.62916E+02  1.01008E+03  5.75982E+02  7.32727E+02
 -1.31720E+03  1.29396E+03 -1.43538E+03  1.27329E+02 -1.48613E+03 -8.32899E+02  1.31383E+02 -2.01541E+03
  9.00628E+02 -1.66094E+03  1.52027E+03 -2.02317E+02  1.77174E+03 -6.05406E+02  1.14139E+03  1.48380E+03
  4.53681E+02  1.17996E+03 -2.70335E+02  1.35112E+03 -7.75192E+02  8.00053E+02 -8.78865E+02  1.09988E+02
 -5.84083E+02 -3.69171E+02 -5.43867E+02  4.58208E+01 -1.06685E+03  6.53653E+02 -1.28301E+03 -7.41341E+01
 -1.29566E+03 -1.82573E+02 -3.89442E+02 -1.36772E+03  1.00852E+03 -1.86615E+03  1.46941E+03 -1.01304E+03
  1.28698E+03  1.61750E+02  1.54462E+02  7.39617E+02 -2.56343E+02  1.33366E+03 -9.20794E+02  8.44709E+02
