 $NMID ID='MM_0lb_SNR800_14hz_g45_17.RAW', FMTDAT='(8E13.5)'
 TRAMP=1., VOLUME=1. $END
  3.09975E+05  4.65458E+02  3.37619E+05  2.50735E+05  8.46067E+04  3.38198E+05 -1.32504E+05  2.51017E+05
 -1.90047E+05  8.31289E+04 -1.11855E+05 -3.28407E+04  8.08751E+02 -5.02612E+04  5.36934E+04 -4.37869E+02
  3.54463E+04  5.29590E+04 -1.66118E+04  7.54417E+04 -6.07738E+04  6.37285E+04 -8.38241E+04  3.18730E+04
 -8.07262E+04 -1.15901E+04 -5.70702E+04 -5.14339E+04 -1.50645E+04 -6.93967E+04  2.74571E+04 -4.53802E+04
  3.97503E+04  3.79351E+03  1.63132E+04  4.75875E+04 -3.41178E+04  4.71819E+04 -6.62871E+04 -2.65723E+02
 -5.31632E+04 -5.69511E+04 -6.89982E+03 -7.68168E+04  3.38711E+04 -5.49381E+04  4.77270E+04 -1.70983E+04
  4.31699E+04  1.13954E+04  3.18797E+04  2.51828E+04  1.59275E+04  2.90852E+04 -5.29311E+03  2.71323E+04
 -2.23375E+04  1.20875E+04 -1.85685E+04 -4.62486E+03  5.41661E+03 -7.39991E+03  2.20042E+04  1.22360E+04
  7.38636E+03  3.50418E+04 -3.19509E+04  3.51570E+04 -6.31199E+04  1.73980E+03 -5.67666E+04 -4.23926E+04
 -1.23272E+04 -6.30492E+04  3.96006E+04 -4.48376E+04  5.80711E+04 -2.22631E+03  3.41362E+04  3.20631E+04
 -6.09177E+03  3.54626E+04 -3.00081E+04  1.59793E+04 -3.01771E+04 -4.65421E+03 -1.65555E+04 -1.11036E+04
 -8.14074E+03 -1.29560E+04 -6.80976E+02 -1.81708E+04  7.57182E+03 -2.29423E+04  1.53085E+04 -1.33500E+04
  1.12377E+04  5.44010E+03 -8.41976E+03  1.32772E+04 -2.11728E+04 -4.41076E+03 -8.15113E+03 -3.33889E+04
  2.25737E+04 -4.30820E+04  4.77053E+04 -1.97499E+04  4.45812E+04  1.93547E+04  1.55960E+04  4.37567E+04
 -1.57378E+04  3.28949E+04 -2.50871E+04  1.73161E+03 -9.71679E+03 -2.76406E+04  2.08398E+04 -3.39029E+04
  4.08273E+04 -8.85880E+03  3.50439E+04  2.36168E+04  1.74725E+04  4.58724E+04 -7.93644E+03  4.93459E+04
 -3.11628E+04  3.36497E+04 -4.10961E+04  9.46613E+03 -4.23158E+04 -1.63576E+04 -2.33826E+04 -3.78360E+04
  7.59808E+03 -3.71395E+04  3.13478E+04 -1.45302E+04  2.89211E+04  1.09548E+04  3.68311E+03  1.89651E+04
 -1.35377E+04  8.34390E+03 -1.01089E+04 -7.86866E+03  5.55354E+03 -1.07350E+04  1.79753E+04  6.13689E+03
  1.31461E+04  2.19735E+04 -5.89521E+03  2.46682E+04 -2.21956E+04  1.11815E+04 -2.77145E+04 -5.21102E+03
 -2.02252E+04 -1.72271E+04 -8.12844E+03 -1.99343E+04  3.97818E+03 -1.89514E+04  1.57217E+04 -1.76554E+04
  2.56486E+04 -1.24739E+04  3.18536E+04  2.57985E+03  2.35609E+04  1.91819E+04  3.95585E+03  3.59047E+04
 -1.74596E+04  3.00122E+04 -2.79326E+04  1.07487E+04 -2.06961E+04 -1.03588E+04 -4.20855E+03 -1.34313E+04
  1.85633E+03 -3.13179E+03 -4.69903E+03  6.40923E+03 -1.59195E+04  4.88256E+03 -1.63216E+04 -6.91500E+03
 -9.95886E+03 -1.83156E+04  4.73495E+03 -2.30065E+04  1.45145E+04 -1.63086E+04  1.77776E+04 -1.98985E+03
  1.12676E+04  1.28048E+04 -9.44036E+02  1.85082E+04 -1.28322E+04  1.06455E+04 -1.85389E+04 -3.76440E+03
 -1.36961E+04 -1.67292E+04 -1.46850E+03 -2.26349E+04  1.01016E+04 -1.84083E+04  1.90829E+04 -9.18180E+03
  1.74581E+04  1.31840E+02  1.25511E+04  4.05980E+03  6.34308E+03  7.78060E+02  9.34148E+03 -1.67868E+03
  1.71981E+04  2.72818E+03  1.89262E+04  1.50965E+04  1.19712E+04  2.93874E+04 -2.63878E+03  3.36145E+04
 -1.92288E+04  2.70156E+04 -3.14777E+04  1.36655E+04 -3.24861E+04 -1.82022E+03 -2.70674E+04 -1.86847E+04
 -1.17873E+04 -2.68805E+04  9.06536E+03 -2.41740E+04  2.13601E+04 -1.27348E+04  1.86321E+04  5.02214E+03
  6.94908E+03  1.43630E+04 -8.56614E+03  1.26394E+04 -1.60289E+04  2.55156E+03 -1.23372E+04 -9.91643E+03
 -4.88113E+02 -1.49168E+04  7.83907E+03 -1.11811E+04  9.87040E+03 -1.32405E+03  2.14650E+03  6.34672E+03
 -7.01303E+03  2.44195E+03 -5.45238E+03 -5.73381E+03 -3.28875E+02 -1.32596E+04  9.65477E+03 -1.36339E+04
  1.62211E+04 -7.15336E+03  1.72100E+04  2.70923E+03  1.52932E+04  1.29343E+04  6.90170E+03  2.00790E+04
 -3.10514E+03  2.14799E+04 -1.36030E+04  1.33863E+04 -1.54493E+04  3.49904E+03 -1.11112E+04 -3.43623E+03
 -5.26917E+03 -4.84960E+03 -6.90964E+02  1.17344E+03 -2.13981E+03  2.56175E+03 -4.84479E+03  4.58326E+03
 -1.03250E+04 -9.09149E+02 -1.12028E+04 -8.65844E+03 -4.40783E+03 -1.45305E+04  4.54887E+03 -1.11075E+04
  9.00185E+03 -4.88436E+03  6.66003E+03  2.99681E+03  4.00272E+02  4.46580E+03 -5.00057E+03  1.01617E+02
 -4.74967E+03 -6.76816E+03 -9.36284E+02 -1.03581E+04  5.68233E+03 -1.10006E+04  1.35056E+04 -5.70081E+03
  1.59238E+04  1.69387E+03  1.21638E+04  9.04562E+03  2.27935E+03  1.25686E+04 -6.82307E+03  1.10319E+04
 -9.21785E+03  3.25403E+03 -4.75065E+03 -2.00555E+03  1.81935E+03 -3.01770E+03  6.14634E+03 -1.03878E+03
  5.21789E+03  4.81751E+03  1.04485E+03  8.67657E+03 -6.20931E+03  8.62431E+03 -1.07331E+04  2.27704E+03
 -6.78979E+03 -5.49424E+03  4.39492E+02 -9.26619E+03  5.69939E+03 -4.32814E+03  5.63083E+03  1.64766E+03
  7.54606E+02  5.57443E+03 -5.77013E+03  7.21157E+03 -8.03869E+03  3.36426E+03 -7.86587E+03 -2.59677E+03
 -4.70492E+03 -9.10870E+03  2.42028E+03 -1.10584E+04  9.08256E+03 -7.14318E+03  1.01633E+04  1.42293E+03
  6.70592E+03  8.10343E+03 -7.62569E+01  1.03541E+04 -7.55785E+03  5.82244E+03 -7.95335E+03 -8.26070E+02
 -7.47290E+03 -7.02568E+03 -1.25897E+03 -7.56739E+03  4.01792E+03 -6.77255E+03  4.60033E+03 -3.34828E+03
  3.51921E+03  4.40485E+02 -2.66475E+02  1.56481E+03  7.15003E+01 -1.36709E+03  6.51425E+02 -4.05563E+03
  6.79498E+03 -2.46207E+03  8.96426E+03  8.48536E+02  9.16003E+03  5.61485E+03  7.14809E+03  1.17191E+04
 -2.38904E+03  1.38470E+04 -1.21340E+04  1.04637E+04 -1.52056E+04  1.96540E+03 -1.22504E+04 -4.73649E+03
 -6.12541E+03 -1.03409E+04 -3.68513E+02 -8.55576E+03  3.21630E+03 -4.57849E+03  2.93594E+03 -3.11753E+03
  2.13860E+03 -1.93996E+03  2.72855E+03 -2.82316E+03  4.05034E+03 -2.40804E+03  5.18642E+03 -4.32955E+02
  6.67381E+03  1.82029E+03  2.61167E+03  5.48185E+03 -1.80609E+03  5.92373E+03 -6.96621E+03  4.91253E+03
 -8.24724E+03 -1.13536E+03 -4.14372E+03 -5.37584E+03 -3.12852E+02 -8.72300E+03  5.18120E+03 -8.88573E+03
  9.00961E+03 -5.40602E+03  1.10803E+04  1.15685E+03  7.61366E+03  7.59084E+03  1.57014E+03  9.95275E+03
 -3.73706E+03  8.49191E+03 -5.65781E+03  2.69982E+03 -3.29291E+03 -1.12987E+03 -1.58669E+03 -1.20535E+03
 -6.80582E+02  2.10872E+02 -1.12081E+03  2.35169E+03 -3.73498E+03  1.42842E+03 -6.43620E+03 -6.24775E+02
 -3.24767E+03 -6.16642E+03  3.78374E+02 -7.79034E+03  4.85117E+03 -7.62256E+03  7.36090E+03 -2.00954E+03
  7.79338E+03  3.93396E+03  3.30089E+03  6.71155E+03 -1.30469E+03  8.13479E+03 -5.30953E+03  5.08188E+03
 -7.12332E+03  5.39581E+02 -5.73184E+03 -4.39642E+03 -5.64781E+02 -6.20015E+03  3.07128E+03 -4.41602E+03
  4.73155E+03 -2.14037E+03  3.33877E+03  1.07548E+03  8.09455E+02  2.47310E+03  1.00515E+03  1.07159E+03
  1.92937E+03  7.63791E+02  2.20698E+03  1.16710E+03  1.78513E+03  3.02647E+03  2.09496E+03  3.69724E+03
 -1.80461E+03  5.77023E+03 -4.94327E+03  6.49436E+03 -7.05648E+03  1.67019E+03 -8.03484E+03 -2.42947E+03
 -3.49113E+03 -7.41886E+03  1.39221E+03 -8.37665E+03  4.24552E+03 -5.04252E+03  6.17742E+03 -1.36152E+03
  4.66523E+03  3.08120E+03  9.76440E+02  4.20334E+03 -1.46312E+03  2.56780E+03 -2.62463E+03 -1.97238E+02
 -1.14916E+03 -3.32397E+03  1.75806E+03 -3.39225E+03  2.96087E+03 -1.62727E+03  2.87780E+03  4.62776E+02
  1.63565E+03  1.13152E+03  7.73479E+02  5.30287E+02 -6.12985E+02  1.20983E+03  1.82471E+03 -2.78307E+02
  3.51852E+02 -4.49732E+02  3.06285E+03  9.25687E+02  1.46820E+03  4.23723E+03 -8.26100E+02  5.45042E+03
 -3.62903E+03  2.68454E+03 -4.36689E+03  5.99658E+02 -4.13689E+03 -1.59312E+03 -1.14630E+03 -2.17387E+03
  7.81442E+02 -2.63986E+03  1.89634E+03 -1.38091E+03  1.88458E+03  1.70162E+03 -1.13772E+03  2.26587E+03
 -3.00139E+03  1.56024E+03 -3.09577E+03 -1.78449E+03 -1.75941E+03 -3.59142E+03  4.27454E+02 -3.34790E+03
  1.96697E+03 -1.76048E+03  1.96801E+03 -1.35798E+02  2.45576E+03  7.94831E+02  5.11835E+02  2.18661E+03
 -1.24685E+03  4.56428E+02 -1.28226E+03 -9.33088E+02  9.73991E+02 -2.53196E+03  3.38230E+03 -2.35701E+03
  3.55995E+03  2.60440E+02  4.76245E+03  2.50127E+03  1.64252E+03  4.08868E+03 -1.07651E+03  4.02135E+03
 -3.24939E+03  1.56705E+03 -3.40543E+03 -6.58797E+02 -1.84498E+03 -2.88412E+03  6.98992E+02 -1.97266E+03
  2.83466E+03 -1.45050E+03  1.90664E+03  1.19256E+03  7.12280E+02  2.55441E+03 -3.64002E+01  2.26938E+03
 -8.41927E+02  1.86855E+03 -1.17123E+03  4.69609E+02 -1.05300E+02  5.13647E+02 -8.50617E+02  1.22298E+03
 -1.25624E+03  1.65804E+03 -3.27260E+03  1.13284E+03 -4.16609E+03 -2.06211E+01 -4.85812E+03 -2.67181E+03
 -2.23694E+03 -5.48318E+03  9.79909E+02 -6.26957E+03  3.17266E+03 -5.14811E+03  5.96688E+03 -2.00372E+03
  5.28674E+03  6.87042E+02  3.30640E+03  3.50523E+03 -2.05162E+02  3.91146E+03 -1.59928E+03  2.97532E+03
 -2.46442E+03  1.69804E+03 -9.00685E+02 -5.40140E+02 -4.87025E+02 -4.43352E+01 -8.37149E+02  1.72989E+02
 -1.11580E+03 -6.30347E+01 -1.47627E+03  1.44502E+02 -1.42382E+02 -1.33313E+03 -2.12332E+02 -1.54752E+03
  2.31446E+03 -1.49342E+03  2.17612E+03  4.28420E+02  2.73379E+03  2.21718E+03  3.32919E+02  3.97650E+03
 -1.89659E+03  4.74001E+03 -4.33668E+03  2.64941E+03 -4.57096E+03 -4.90569E+02 -3.59515E+03 -3.15188E+03
 -1.61540E+03 -3.80308E+03  1.09448E+03 -3.51601E+03  2.20718E+03 -1.81649E+03  2.25843E+03 -1.24108E+02
  1.33200E+03  1.06073E+03 -2.53563E+00  1.35986E+03 -7.68804E+02 -2.31841E+02 -1.83765E+02 -7.20022E+02
  1.14727E+03 -4.85028E+02  6.36395E+02  7.64188E+02  8.47239E+02  1.29947E+03  5.08209E+02  1.87124E+03
 -1.69955E+03  1.59518E+03 -2.20493E+03  2.61184E+02 -1.98444E+03 -1.73252E+03 -1.14042E+02 -3.03009E+03
  1.50912E+03 -2.52741E+03  2.36827E+03 -5.46303E+02  2.57748E+03  1.64289E+02  1.45664E+03  1.88542E+03
  3.49517E+02  2.30331E+03 -8.39880E+02  2.05340E+03 -1.59394E+03  1.29766E+03 -1.10919E+03  1.83688E+02
 -3.61076E+02 -8.77275E+01 -1.19458E+03 -1.50670E+02 -1.14637E+03  2.56199E+02 -1.61195E+03 -5.62506E+02
 -2.19727E+03 -4.08497E+02 -7.79352E+02 -2.85572E+03  1.42082E+03 -3.13229E+03  2.29698E+03 -7.79732E+02
  2.52606E+03  2.58492E+02  6.01012E+02  1.72508E+03 -4.02746E+02  2.62000E+03 -1.65027E+03  1.03913E+03
