 $NMID ID='MM_0lb_SNR800_14hz_g60_43.RAW', FMTDAT='(8E13.5)'
 TRAMP=1., VOLUME=1. $END
  3.10058E+05  4.66350E+02  3.37911E+05  2.50770E+05  8.47329E+04  3.38333E+05 -1.32687E+05  2.51209E+05
 -1.90622E+05  8.34824E+04 -1.11953E+05 -3.23797E+04  6.08901E+02 -5.08192E+04  5.36770E+04  1.22371E+02
  3.54117E+04  5.28319E+04 -1.64288E+04  7.57609E+04 -6.12444E+04  6.39118E+04 -8.49500E+04  3.22330E+04
 -8.13687E+04 -1.12718E+04 -5.74716E+04 -5.16240E+04 -1.51002E+04 -7.00894E+04  2.78426E+04 -4.63041E+04
  4.06576E+04  3.83248E+03  1.66586E+04  4.81815E+04 -3.43477E+04  4.77572E+04 -6.74422E+04 -2.23857E+02
 -5.40248E+04 -5.72059E+04 -7.13146E+03 -7.80113E+04  3.39412E+04 -5.60156E+04  4.86828E+04 -1.77510E+04
  4.39312E+04  1.14947E+04  3.21840E+04  2.57287E+04  1.60474E+04  2.97886E+04 -5.62389E+03  2.75237E+04
 -2.24252E+04  1.23492E+04 -1.90267E+04 -5.14056E+03  6.37579E+03 -7.65445E+03  2.28849E+04  1.30534E+04
  7.25539E+03  3.61681E+04 -3.28496E+04  3.60359E+04 -6.42838E+04  2.10681E+03 -5.77789E+04 -4.36950E+04
 -1.24721E+04 -6.45600E+04  4.05798E+04 -4.62133E+04  5.97290E+04 -2.53728E+03  3.54384E+04  3.28929E+04
 -5.90429E+03  3.72127E+04 -3.06214E+04  1.69400E+04 -3.16321E+04 -4.36627E+03 -1.75876E+04 -1.14946E+04
 -8.44916E+03 -1.39900E+04 -1.52104E+02 -1.86923E+04  8.07107E+03 -2.32531E+04  1.56703E+04 -1.29195E+04
  1.10743E+04  5.58109E+03 -8.99053E+03  1.27150E+04 -2.18199E+04 -5.17208E+03 -8.55584E+03 -3.49400E+04
  2.36733E+04 -4.49101E+04  4.94451E+04 -2.02268E+04  4.65161E+04  1.98362E+04  1.63093E+04  4.54793E+04
 -1.62354E+04  3.42819E+04 -2.59207E+04  2.58875E+03 -1.04125E+04 -2.85388E+04  2.11632E+04 -3.47043E+04
  4.24452E+04 -9.40668E+03  3.70936E+04  2.41389E+04  1.95171E+04  4.77456E+04 -8.29157E+03  5.19623E+04
 -3.30041E+04  3.57805E+04 -4.34169E+04  1.01434E+04 -4.42574E+04 -1.76278E+04 -2.43575E+04 -3.93410E+04
  7.53305E+03 -3.93100E+04  3.24702E+04 -1.57440E+04  3.00884E+04  1.09797E+04  4.18078E+03  1.94085E+04
 -1.34374E+04  9.05631E+03 -1.06379E+04 -7.46390E+03  5.78193E+03 -1.10727E+04  1.81193E+04  5.88510E+03
  1.40825E+04  2.27167E+04 -5.82126E+03  2.55190E+04 -2.28638E+04  1.23671E+04 -2.87691E+04 -4.33796E+03
 -2.20268E+04 -1.76190E+04 -9.23721E+03 -2.18481E+04  4.21934E+03 -2.12915E+04  1.73847E+04 -2.00506E+04
  2.78338E+04 -1.32179E+04  3.40436E+04  3.52172E+03  2.46990E+04  2.14684E+04  4.67699E+03  3.76102E+04
 -1.79577E+04  3.10486E+04 -2.88323E+04  1.07032E+04 -2.11990E+04 -1.04563E+04 -4.42011E+03 -1.32648E+04
  1.53527E+03 -2.24395E+03 -5.65118E+03  7.22219E+03 -1.74110E+04  5.00258E+03 -1.75500E+04 -7.95453E+03
 -1.04365E+04 -2.01096E+04  5.68632E+03 -2.43046E+04  1.60538E+04 -1.77650E+04  1.94198E+04 -1.67852E+03
  1.25342E+04  1.42101E+04 -7.83759E+02  2.02574E+04 -1.41987E+04  1.14294E+04 -2.01643E+04 -4.49309E+03
 -1.48272E+04 -1.78063E+04 -1.80948E+03 -2.42026E+04  1.10365E+04 -1.99154E+04  1.98431E+04 -1.02264E+04
  1.87142E+04  3.31493E+02  1.36108E+04  4.50364E+03  7.09015E+03  9.76279E+02  1.03947E+04 -1.48692E+03
  1.85528E+04  2.78202E+03  2.05857E+04  1.61951E+04  1.38911E+04  3.22503E+04 -3.04679E+03  3.62993E+04
 -2.13535E+04  2.98878E+04 -3.45438E+04  1.51497E+04 -3.63550E+04 -2.87547E+03 -2.96327E+04 -2.05610E+04
 -1.24292E+04 -2.97641E+04  1.04889E+04 -2.65846E+04  2.26392E+04 -1.31699E+04  2.03471E+04  5.93071E+03
  7.27332E+03  1.54906E+04 -9.79806E+03  1.34954E+04 -1.73333E+04  2.50922E+03 -1.32815E+04 -1.05344E+04
 -4.43320E+02 -1.60603E+04  8.33115E+03 -1.22705E+04  1.08065E+04 -1.52625E+03  2.58575E+03  7.02243E+03
 -7.48307E+03  3.10343E+03 -6.62774E+03 -5.61591E+03 -6.84554E+02 -1.44188E+04  9.94169E+03 -1.53936E+04
  1.83220E+04 -7.97185E+03  1.95752E+04  3.24519E+03  1.69983E+04  1.45062E+04  7.75281E+03  2.20429E+04
 -3.60846E+03  2.44006E+04 -1.55347E+04  1.51304E+04 -1.71970E+04  3.64907E+03 -1.21811E+04 -3.91761E+03
 -5.72751E+03 -5.29710E+03 -7.14311E+02  9.56308E+02 -2.50594E+03  2.66031E+03 -5.76454E+03  4.35830E+03
 -1.12663E+04 -6.06043E+02 -1.17923E+04 -9.51554E+03 -4.67749E+03 -1.55051E+04  5.00971E+03 -1.22926E+04
  9.99305E+03 -5.08766E+03  7.62643E+03  3.34837E+03  6.09918E+01  4.94560E+03 -5.84485E+03 -2.56753E+02
 -5.72534E+03 -7.68413E+03 -8.39699E+02 -1.13577E+04  6.69013E+03 -1.22672E+04  1.52439E+04 -6.34444E+03
  1.78606E+04  1.76565E+03  1.31258E+04  1.03266E+04  2.43028E+03  1.35881E+04 -7.71232E+03  1.21299E+04
 -9.90972E+03  3.66607E+03 -5.29806E+03 -2.32191E+03  1.85568E+03 -3.27601E+03  6.46257E+03 -1.13085E+03
  5.66849E+03  5.15718E+03  1.49086E+03  9.28867E+03 -6.70504E+03  8.84764E+03 -1.17427E+04  2.47514E+03
 -7.88487E+03 -5.94618E+03  4.15071E+02 -9.88050E+03  6.06664E+03 -4.83452E+03  6.28259E+03  1.96127E+03
  1.20873E+03  6.30355E+03 -6.22137E+03  8.11774E+03 -9.09573E+03  3.79138E+03 -9.40157E+03 -3.17721E+03
 -5.07720E+03 -1.06961E+04  2.32499E+03 -1.24942E+04  1.05466E+04 -7.79975E+03  1.13330E+04  1.78934E+03
  7.10839E+03  9.01230E+03 -8.79026E+02  1.11749E+04 -8.01414E+03  6.18523E+03 -8.97107E+03 -9.23321E+02
 -8.33113E+03 -7.91024E+03 -1.46400E+03 -8.48532E+03  4.12844E+03 -6.94657E+03  5.30619E+03 -2.99693E+03
  3.56822E+03  1.21857E+03 -4.85530E+02  1.52967E+03 -1.81648E+02 -1.65050E+03  1.37140E+03 -4.43802E+03
  7.23108E+03 -2.66472E+03  1.03655E+04  1.01540E+03  1.03147E+04  6.98327E+03  7.59231E+03  1.34255E+04
 -3.06404E+03  1.56766E+04 -1.33151E+04  1.18765E+04 -1.70981E+04  2.03612E+03 -1.40477E+04 -5.48977E+03
 -6.75090E+03 -1.15324E+04 -4.21934E+02 -9.57488E+03  3.81280E+03 -4.64668E+03  3.53739E+03 -3.41354E+03
  2.35086E+03 -2.46408E+03  2.91412E+03 -3.02488E+03  4.56046E+03 -2.52712E+03  5.71364E+03 -3.51327E+02
  7.28750E+03  1.76641E+03  2.99040E+03  5.98761E+03 -1.72356E+03  6.38047E+03 -7.38831E+03  5.47950E+03
 -9.19645E+03 -1.12283E+03 -5.24258E+03 -6.17475E+03 -3.29364E+02 -9.70217E+03  5.52292E+03 -9.78978E+03
  1.03031E+04 -5.49478E+03  1.21863E+04  1.38498E+03  8.44082E+03  8.22323E+03  1.65597E+03  1.10067E+04
 -4.57317E+03  9.26001E+03 -6.50898E+03  3.51206E+03 -4.01741E+03 -1.32103E+03 -1.44192E+03 -1.13264E+03
 -5.97386E+02 -5.30535E+01 -1.64228E+03  2.19215E+03 -4.32025E+03  1.84187E+03 -6.68859E+03 -8.00928E+02
 -4.12971E+03 -6.78277E+03  5.48834E+02 -8.64647E+03  5.33988E+03 -8.28367E+03  8.31695E+03 -2.60404E+03
  8.40037E+03  4.58669E+03  3.65896E+03  7.52320E+03 -1.74030E+03  8.88868E+03 -5.81735E+03  5.29705E+03
 -7.84123E+03  4.04185E+02 -6.52165E+03 -5.14818E+03 -9.22351E+02 -6.88672E+03  3.52517E+03 -5.32026E+03
  5.26965E+03 -1.71832E+03  3.45752E+03  1.23241E+03  1.29588E+03  2.77196E+03  1.08554E+03  1.45188E+03
  2.30994E+03  6.01706E+02  2.06627E+03  1.26152E+03  2.39057E+03  3.63321E+03  2.46081E+03  4.13765E+03
 -2.04193E+03  6.52974E+03 -5.47386E+03  7.13877E+03 -7.85080E+03  2.06559E+03 -8.89149E+03 -2.85172E+03
 -3.73579E+03 -7.68417E+03  1.39411E+03 -9.38795E+03  4.68645E+03 -5.68986E+03  6.37978E+03 -1.54266E+03
  5.18832E+03  3.33190E+03  7.95798E+02  4.52345E+03 -1.82612E+03  3.00554E+03 -3.03647E+03 -2.86030E+02
 -1.41293E+03 -3.39715E+03  2.01399E+03 -3.81782E+03  3.25487E+03 -1.71140E+03  3.25374E+03  9.77279E+02
  2.19056E+03  1.55654E+03  1.32764E+03  6.94816E+02 -5.69672E+02  1.23041E+03  1.69240E+03 -2.89283E+02
  1.01943E+03 -6.69854E+02  3.30478E+03  1.26235E+03  1.58819E+03  4.08438E+03 -1.05587E+03  5.81889E+03
 -3.73085E+03  3.39934E+03 -4.69085E+03  9.51958E+02 -4.57578E+03 -1.72172E+03 -1.28821E+03 -2.85252E+03
  7.06253E+02 -2.80627E+03  1.98725E+03 -1.41677E+03  1.52222E+03  1.93569E+03 -7.15868E+02  2.69888E+03
 -3.01388E+03  1.65451E+03 -3.54657E+03 -2.45179E+03 -1.82342E+03 -4.07060E+03  4.80990E+02 -4.08741E+03
  2.04120E+03 -2.30737E+03  2.84316E+03 -2.96000E+02  2.70344E+03  6.50731E+02  4.77266E+02  1.99082E+03
 -1.32376E+03  6.25612E+02 -1.97496E+03 -1.24294E+03  9.06868E+02 -2.66422E+03  3.49575E+03 -2.18680E+03
  4.17033E+03  4.72945E+02  5.39512E+03  2.39839E+03  1.71876E+03  4.73315E+03 -1.51713E+03  4.58884E+03
 -3.55715E+03  1.45675E+03 -3.61544E+03 -5.92425E+02 -1.98906E+03 -2.82599E+03  6.63843E+02 -2.22004E+03
  3.33540E+03 -1.33379E+03  2.22102E+03  1.14174E+03  3.11643E+02  2.71393E+03  2.54112E+02  2.48758E+03
 -9.80049E+02  2.04603E+03 -1.09834E+03  6.73951E+02 -3.97551E+02  5.43262E+02 -9.00058E+02  1.33640E+03
 -1.33508E+03  1.74138E+03 -3.18405E+03  1.72161E+03 -4.37977E+03  4.04608E+02 -5.18130E+03 -2.83904E+03
 -2.60029E+03 -5.56881E+03  1.24463E+03 -6.84014E+03  3.45621E+03 -5.55080E+03  6.29025E+03 -2.13188E+03
  5.78478E+03  7.25230E+02  3.49272E+03  4.06399E+03 -2.93423E+02  4.00643E+03 -1.49000E+03  2.97601E+03
 -2.54276E+03  1.05880E+03 -1.67442E+03 -3.37541E+02 -8.63877E+02 -3.67978E+02 -4.02138E+02  1.05303E+01
 -1.21089E+03 -5.87277E+01 -8.40610E+02  1.61262E+02 -9.96795E+01 -1.31767E+03 -2.88643E+02 -1.92141E+03
  2.07328E+03 -1.65141E+03  1.99003E+03 -2.49357E+02  3.17714E+03  2.38255E+03  6.36735E+02  4.14796E+03
 -2.06537E+03  4.84946E+03 -4.40994E+03  3.07739E+03 -5.27218E+03 -6.59536E+02 -3.24443E+03 -3.15083E+03
 -1.97479E+03 -4.22615E+03  8.50102E+02 -3.71948E+03  2.46274E+03 -2.15897E+03  2.61805E+03 -3.18616E+01
  1.47836E+03  1.48281E+03 -1.88033E+02  9.72403E+02 -1.13885E+03 -1.24522E+02  2.63088E+02 -9.28488E+02
  1.50160E+03 -1.66017E+02  1.23335E+03  8.57474E+02  6.40606E+02  1.67165E+03  5.28537E+02  1.45676E+03
 -1.65081E+03  1.67601E+03 -2.38275E+03  6.88739E+01 -2.37256E+03 -1.71260E+03  9.06796E+01 -2.95162E+03
  1.68038E+03 -2.54769E+03  2.70620E+03 -6.68985E+02  2.93338E+03  3.83880E+02  1.46444E+03  2.01432E+03
  6.60111E+02  2.04503E+03 -7.21814E+02  1.92246E+03 -1.66666E+03  1.57640E+03 -1.13403E+03  3.53881E+02
 -8.29790E+02 -1.10129E+02 -5.67049E+02  3.14317E+02 -1.33468E+03  2.59379E+02 -2.18207E+03 -1.69307E+02
 -1.89040E+03 -9.46863E+02 -7.19964E+02 -2.39311E+03  1.30046E+03 -2.87195E+03  2.07509E+03 -1.31657E+03
  2.42537E+03  3.71650E+02  8.10314E+02  1.20845E+03 -2.11992E+02  2.50021E+03 -1.55287E+03  1.89841E+03
