 $NMID ID='MM_0lb_SNR800_8hz_g45_7.RAW', FMTDAT='(8E13.5)'
 TRAMP=1., VOLUME=1. $END
  3.10228E+05  7.23988E+02  3.37869E+05  2.50645E+05  8.49250E+04  3.38165E+05 -1.33017E+05  2.52217E+05
 -1.91208E+05  8.39466E+04 -1.12606E+05 -3.27633E+04  5.44665E+02 -5.07747E+04  5.36093E+04 -3.63043E+02
  3.57390E+04  5.30273E+04 -1.69055E+04  7.59520E+04 -6.12325E+04  6.41648E+04 -8.54666E+04  3.24319E+04
 -8.23860E+04 -1.17948E+04 -5.84620E+04 -5.27016E+04 -1.52801E+04 -7.09206E+04  2.84371E+04 -4.69114E+04
  4.10576E+04  3.64187E+03  1.70668E+04  4.88840E+04 -3.48179E+04  4.81173E+04 -6.87111E+04  2.62205E+02
 -5.50567E+04 -5.75582E+04 -7.62683E+03 -7.91657E+04  3.42455E+04 -5.72139E+04  4.97455E+04 -1.89081E+04
  4.50958E+04  1.14854E+04  3.31638E+04  2.61660E+04  1.59457E+04  3.08115E+04 -5.85672E+03  2.78041E+04
 -2.21490E+04  1.20763E+04 -1.79337E+04 -5.74674E+03  7.31858E+03 -7.10976E+03  2.37379E+04  1.40970E+04
  6.71597E+03  3.74462E+04 -3.37548E+04  3.73497E+04 -6.60686E+04  2.15503E+03 -5.89702E+04 -4.44992E+04
 -1.27374E+04 -6.59745E+04  4.23094E+04 -4.75738E+04  6.16808E+04 -2.84538E+03  3.68493E+04  3.46442E+04
 -5.21189E+03  3.99412E+04 -3.21022E+04  1.93258E+04 -3.38778E+04 -3.33300E+03 -1.98375E+04 -1.21051E+04
 -9.53412E+03 -1.52833E+04 -1.46271E+02 -2.00023E+04  8.38600E+03 -2.35396E+04  1.56616E+04 -1.28089E+04
  1.02797E+04  6.62751E+03 -1.07261E+04  1.26321E+04 -2.36065E+04 -6.38239E+03 -8.62336E+03 -3.77457E+04
  2.49113E+04 -4.73673E+04  5.25912E+04 -2.08003E+04  4.90319E+04  2.14174E+04  1.75389E+04  4.75015E+04
 -1.67626E+04  3.63947E+04 -2.77238E+04  2.67747E+03 -1.18195E+04 -2.98634E+04  2.19487E+04 -3.75978E+04
  4.49465E+04 -1.14645E+04  4.10710E+04  2.51282E+04  2.19955E+04  5.17314E+04 -8.18947E+03  5.66080E+04
 -3.59921E+04  3.87956E+04 -4.82180E+04  1.11850E+04 -4.83109E+04 -1.89029E+04 -2.61505E+04 -4.26716E+04
  8.18813E+03 -4.26117E+04  3.45624E+04 -1.77840E+04  3.21251E+04  1.08525E+04  5.39907E+03  2.06266E+04
 -1.40017E+04  9.65642E+03 -1.14464E+04 -7.33795E+03  5.90205E+03 -1.21428E+04  1.93027E+04  5.50539E+03
  1.49918E+04  2.33653E+04 -5.36654E+03  2.75210E+04 -2.33690E+04  1.49060E+04 -3.20038E+04 -3.14668E+03
 -2.54942E+04 -1.82312E+04 -1.23440E+04 -2.54936E+04  4.47934E+03 -2.64996E+04  2.03695E+04 -2.38035E+04
  3.29197E+04 -1.43685E+04  3.83487E+04  5.10288E+03  2.73581E+04  2.53376E+04  4.10459E+03  4.18006E+04
 -1.97543E+04  3.46402E+04 -3.06428E+04  1.16944E+04 -2.22229E+04 -9.94612E+03 -5.01229E+03 -1.30071E+04
  6.86401E+02 -8.61093E+02 -7.50434E+03  8.58701E+03 -2.08613E+04  5.09361E+03 -2.07825E+04 -1.00653E+04
 -1.24221E+04 -2.36773E+04  5.71533E+03 -2.86796E+04  1.92108E+04 -2.00991E+04  2.28877E+04 -2.04528E+03
  1.47983E+04  1.63990E+04 -1.37357E+03  2.41370E+04 -1.74695E+04  1.37223E+04 -2.40769E+04 -5.00745E+03
 -1.73857E+04 -2.14203E+04 -1.99074E+03 -2.86176E+04  1.28997E+04 -2.38663E+04  2.32958E+04 -1.22609E+04
  2.27168E+04 -1.82034E+02  1.58633E+04  5.34642E+03  9.04694E+03  2.07567E+03  1.28295E+04 -2.26593E+03
  2.25833E+04  2.83359E+03  2.61681E+04  1.89550E+04  1.79896E+04  3.86538E+04 -2.55486E+03  4.55615E+04
 -2.61591E+04  3.81204E+04 -4.34317E+04  1.95497E+04 -4.63741E+04 -3.13026E+03 -3.75046E+04 -2.75985E+04
 -1.45467E+04 -3.85909E+04  1.34895E+04 -3.40463E+04  2.92558E+04 -1.56955E+04  2.52009E+04  8.24636E+03
  7.85240E+03  1.93092E+04 -1.18435E+04  1.61890E+04 -2.10237E+04  2.47598E+03 -1.59847E+04 -1.32658E+04
 -2.51092E+02 -2.00191E+04  1.07294E+04 -1.45130E+04  1.40609E+04 -1.11328E+03  3.97812E+03  9.14376E+03
 -8.72677E+03  4.60666E+03 -9.33011E+03 -6.81634E+03 -2.25109E+03 -1.88498E+04  1.23524E+04 -2.07294E+04
  2.35337E+04 -1.20163E+04  2.72380E+04  3.39643E+03  2.40947E+04  1.89302E+04  1.11517E+04  3.04565E+04
 -5.78158E+03  3.24201E+04 -2.14742E+04  1.98776E+04 -2.32089E+04  4.08854E+03 -1.54779E+04 -5.99435E+03
 -6.68978E+03 -7.28822E+03 -9.91483E+02  2.38132E+02 -3.16846E+03  3.38222E+03 -7.85439E+03  5.59967E+03
 -1.46514E+04 -1.17463E+03 -1.55306E+04 -1.22897E+04 -6.08523E+03 -2.02408E+04  6.58389E+03 -1.65587E+04
  1.35820E+04 -6.96108E+03  9.54981E+03  4.36387E+03 -1.32363E+02  6.75115E+03 -8.13719E+03 -1.91109E+02
 -7.97315E+03 -1.00992E+04 -1.09428E+03 -1.62184E+04  9.16901E+03 -1.69342E+04  2.08895E+04 -9.67913E+03
  2.48668E+04  2.61480E+03  1.78458E+04  1.52134E+04  3.70118E+03  2.00815E+04 -9.72598E+03  1.64810E+04
 -1.30004E+04  4.51534E+03 -6.56118E+03 -3.66204E+03  2.00816E+03 -4.52687E+03  8.68629E+03 -1.25232E+03
  7.92505E+03  7.49085E+03  1.37020E+03  1.33056E+04 -9.35272E+03  1.26196E+04 -1.64784E+04  2.48726E+03
 -1.11642E+04 -8.64831E+03  3.98767E+02 -1.40143E+04  9.11479E+03 -7.18863E+03  9.81337E+03  3.12831E+03
  2.78554E+03  1.08289E+04 -8.84870E+03  1.20222E+04 -1.38014E+04  5.51114E+03 -1.44972E+04 -5.67028E+03
 -8.45618E+03 -1.67439E+04  4.83199E+03 -1.92518E+04  1.66376E+04 -1.17914E+04  1.77405E+04  3.26440E+03
  1.09442E+04  1.40347E+04 -1.57829E+03  1.71009E+04 -1.25699E+04  9.30065E+03 -1.35704E+04 -1.44176E+03
 -1.11643E+04 -1.12575E+04 -1.98409E+03 -1.26374E+04  6.66743E+03 -1.03294E+04  8.25802E+03 -3.88869E+03
  5.13885E+03  2.11424E+03 -1.38283E+03  2.33229E+03 -1.29136E+03 -3.82541E+03  3.05543E+03 -7.54661E+03
  1.22047E+04 -5.33971E+03  1.70382E+04  1.96461E+03  1.69365E+04  1.18900E+04  1.05124E+04  2.20682E+04
 -5.39428E+03  2.59937E+04 -2.09110E+04  1.89072E+04 -2.73740E+04  3.62860E+03 -2.29032E+04 -9.83530E+03
 -1.10546E+04 -1.82993E+04 -5.29792E+02 -1.57055E+04  5.04930E+03 -8.89634E+03  5.78993E+03 -5.88046E+03
  4.74378E+03 -3.65648E+03  4.68423E+03 -3.89314E+03  5.80812E+03 -4.28803E+03  8.63486E+03 -1.22337E+03
  1.15683E+04  2.11011E+03  6.51374E+03  1.02894E+04 -2.25641E+03  1.21779E+04 -1.18553E+04  9.30756E+03
 -1.59012E+04 -1.07781E+03 -1.00432E+04 -1.11067E+04 -1.67037E+03 -1.69508E+04  9.57026E+03 -1.69573E+04
  1.74259E+04 -9.66505E+03  2.07236E+04  2.82161E+03  1.41869E+04  1.48386E+04  2.05961E+03  1.92434E+04
 -8.02538E+03  1.56985E+04 -1.16913E+04  5.61107E+03 -7.94567E+03 -2.13390E+03 -3.43679E+03 -2.41349E+03
 -1.83753E+03  1.68487E+02 -2.34184E+03  3.06435E+03 -6.72546E+03  2.91192E+03 -1.07292E+04 -1.65584E+03
 -7.99598E+03 -1.08798E+04 -2.43821E+02 -1.57401E+04  9.59900E+03 -1.51794E+04  1.62974E+04 -4.96934E+03
  1.58481E+04  7.74417E+03  7.91568E+03  1.44942E+04 -3.09637E+03  1.64675E+04 -1.20548E+04  1.02965E+04
 -1.56516E+04  2.50950E+02 -1.14495E+04 -1.00207E+04 -1.50213E+03 -1.34702E+04  7.06052E+03 -9.64325E+03
  1.05297E+04 -3.51372E+03  6.93427E+03  2.86633E+03  2.33137E+03  4.61148E+03  1.64324E+03  2.24524E+03
  3.29159E+03  1.33098E+03  3.79296E+03  2.32363E+03  4.77958E+03  5.86616E+03  4.48179E+03  8.90151E+03
 -3.41860E+03  1.31008E+04 -1.12810E+04  1.24610E+04 -1.70384E+04  3.60737E+03 -1.72525E+04 -6.67381E+03
 -8.16973E+03 -1.64813E+04  2.48797E+03 -1.78762E+04  9.96973E+03 -1.18143E+04  1.35174E+04 -3.42605E+03
  1.05016E+04  6.26562E+03  2.59426E+03  1.00614E+04 -4.95288E+03  6.25007E+03 -6.84883E+03 -1.00868E+03
 -3.34167E+03 -7.05249E+03  3.23952E+03 -7.47957E+03  6.97800E+03 -3.45236E+03  7.05134E+03  1.55309E+03
  4.16635E+03  3.82163E+03  2.00743E+03  3.18639E+03 -8.64752E+02  2.13084E+03  1.41787E+03 -5.41532E+02
  2.72300E+03 -1.18066E+03  6.60464E+03  2.60722E+03  4.14534E+03  8.94911E+03 -1.50893E+03  1.18472E+04
 -8.54686E+03  8.27847E+03 -1.10259E+04  1.86211E+03 -9.75493E+03 -3.82967E+03 -4.01020E+03 -7.04937E+03
  7.23733E+02 -6.83698E+03  4.40689E+03 -2.83179E+03  4.17253E+03  2.87227E+03 -1.64037E+03  5.36125E+03
 -7.22971E+03  3.35254E+03 -8.04437E+03 -3.70939E+03 -4.24425E+03 -9.23705E+03  1.67870E+03 -9.41694E+03
  5.53887E+03 -5.61120E+03  7.05241E+03 -5.90912E+02  5.28005E+03  2.59503E+03  8.28616E+02  4.84168E+03
 -3.31241E+03  1.67973E+03 -4.23525E+03 -3.21437E+03  1.96363E+03 -7.67964E+03  8.21094E+03 -5.97847E+03
  1.09149E+04  7.34930E+02  1.06143E+04  7.51047E+03  3.15363E+03  1.14251E+04 -4.06883E+03  1.07610E+04
 -9.11744E+03  4.51578E+03 -1.00213E+04 -1.67564E+03 -4.94067E+03 -7.65860E+03  1.74877E+03 -6.99452E+03
  7.06988E+03 -3.47080E+03  6.18137E+03  3.10439E+03  1.93309E+03  6.21613E+03 -7.20972E+02  5.39265E+03
 -3.13615E+03  3.22526E+03 -2.93224E+03  1.12547E+03 -1.70541E+03  1.31456E+03 -1.65895E+03  2.00528E+03
 -2.82302E+03  4.77192E+03 -7.40594E+03  3.68685E+03 -1.15561E+04 -7.26340E+01 -1.30378E+04 -7.57585E+03
 -6.68965E+03 -1.52607E+04  2.56800E+03 -1.74096E+04  1.10685E+04 -1.37703E+04  1.64307E+04 -4.88155E+03
  1.58856E+04  3.34959E+03  9.58340E+03  1.07351E+04  1.16679E+03  1.17202E+04 -5.00473E+03  9.24352E+03
 -6.59767E+03  2.96875E+03 -4.12780E+03 -8.63390E+02 -1.47630E+03 -9.28247E+02 -7.42698E+02  7.97890E+01
 -2.32154E+03  2.34909E+02 -2.72861E+03 -7.08653E+02 -1.12670E+03 -2.85697E+03  8.03828E+02 -4.00105E+03
  5.48283E+03 -3.90472E+03  7.35294E+03 -1.85006E+02  8.72326E+03  6.88876E+03  2.23698E+03  1.22502E+04
 -5.59857E+03  1.35459E+04 -1.27827E+04  7.73642E+03 -1.48332E+04 -1.34356E+03 -1.13269E+04 -9.00398E+03
 -4.25056E+03 -1.25243E+04  2.98844E+03 -1.13140E+04  7.47801E+03 -5.84146E+03  8.12239E+03  4.22408E+02
  4.35417E+03  4.36520E+03 -7.24463E+02  3.67416E+03 -2.29458E+03 -2.24094E+02 -1.74645E+02 -2.92566E+03
  3.74903E+03 -2.07940E+03  5.10197E+03  1.51304E+03  3.39066E+03  4.64830E+03  1.66211E+02  6.66144E+03
 -5.06579E+03  5.80221E+03 -8.13211E+03  6.55345E+02 -7.51408E+03 -6.30811E+03 -1.22987E+03 -1.03350E+04
  5.80118E+03 -8.53005E+03  9.39121E+03 -2.51401E+03  9.50805E+03  2.59875E+03  5.30858E+03  7.64158E+03
  9.42389E+02  8.46682E+03 -3.19503E+03  6.51356E+03 -5.43406E+03  3.94094E+03 -4.35674E+03  9.09001E+02
 -2.36313E+03 -2.77008E+02 -2.34393E+03  1.54770E+03 -4.20467E+03  1.46705E+03 -6.21773E+03 -9.56264E+02
 -5.65850E+03 -4.64118E+03 -2.20274E+03 -7.57393E+03  3.81794E+03 -8.78468E+03  7.86189E+03 -3.78394E+03
  8.21085E+03  1.05957E+03  4.61816E+03  5.64586E+03 -9.53927E+02  8.40841E+03 -6.00297E+03  5.22303E+03
