 $NMID ID='MM_0lb_SNR800_7hz_g55_77.RAW', FMTDAT='(8E13.5)'
 TRAMP=1., VOLUME=1. $END
  3.09808E+05  5.25215E+02  3.37915E+05  2.50931E+05  8.49852E+04  3.38631E+05 -1.33156E+05  2.52367E+05
 -1.91090E+05  8.40031E+04 -1.12628E+05 -3.24808E+04 -2.74884E+02 -5.10405E+04  5.40238E+04 -1.14064E+03
  3.58356E+04  5.27695E+04 -1.64682E+04  7.67582E+04 -6.16586E+04  6.46910E+04 -8.57349E+04  3.32004E+04
 -8.28995E+04 -1.18027E+04 -5.84684E+04 -5.26231E+04 -1.50023E+04 -7.17554E+04  2.86554E+04 -4.70917E+04
  4.16816E+04  3.30699E+03  1.72299E+04  4.88218E+04 -3.51884E+04  4.83413E+04 -6.89890E+04  2.72889E+02
 -5.60511E+04 -5.86192E+04 -7.90719E+03 -7.98387E+04  3.50345E+04 -5.72149E+04  5.03784E+04 -1.82462E+04
  4.58365E+04  1.21859E+04  3.38332E+04  2.73203E+04  1.57572E+04  3.07999E+04 -5.87486E+03  2.78360E+04
 -2.25370E+04  1.17514E+04 -1.80173E+04 -5.81561E+03  7.79857E+03 -7.29796E+03  2.39104E+04  1.41429E+04
  7.15444E+03  3.88527E+04 -3.45889E+04  3.79211E+04 -6.68662E+04  2.43660E+03 -5.99010E+04 -4.54414E+04
 -1.26906E+04 -6.64720E+04  4.27425E+04 -4.86330E+04  6.26799E+04 -2.89556E+03  3.77773E+04  3.54715E+04
 -5.02870E+03  4.12571E+04 -3.26004E+04  2.05065E+04 -3.49403E+04 -3.31298E+03 -2.04419E+04 -1.23500E+04
 -9.71823E+03 -1.63479E+04  2.30969E+02 -2.06166E+04  8.93676E+03 -2.33748E+04  1.63733E+04 -1.24464E+04
  1.03903E+04  6.43834E+03 -1.22244E+04  1.28539E+04 -2.41153E+04 -7.60291E+03 -8.96097E+03 -3.93835E+04
  2.64004E+04 -4.89056E+04  5.40364E+04 -2.16034E+04  5.05672E+04  2.16281E+04  1.81833E+04  4.88596E+04
 -1.76049E+04  3.79433E+04 -2.87945E+04  2.80827E+03 -1.27701E+04 -3.01200E+04  2.15577E+04 -3.85447E+04
  4.66507E+04 -1.22137E+04  4.26951E+04  2.53758E+04  2.25764E+04  5.34939E+04 -8.25303E+03  5.88963E+04
 -3.74801E+04  4.03512E+04 -5.00100E+04  1.19595E+04 -4.98605E+04 -1.96625E+04 -2.70103E+04 -4.41625E+04
  8.33721E+03 -4.44151E+04  3.57906E+04 -1.76076E+04  3.34118E+04  1.12349E+04  5.70996E+03  2.15643E+04
 -1.38733E+04  1.03394E+04 -1.14872E+04 -7.80347E+03  5.93210E+03 -1.17694E+04  1.89593E+04  5.36284E+03
  1.52106E+04  2.34153E+04 -4.92212E+03  2.79791E+04 -2.45516E+04  1.61605E+04 -3.32251E+04 -2.03162E+03
 -2.77260E+04 -1.89872E+04 -1.36755E+04 -2.70470E+04  4.65075E+03 -2.92878E+04  2.20694E+04 -2.51836E+04
  3.52316E+04 -1.49940E+04  4.06735E+04  6.18831E+03  2.86434E+04  2.67733E+04  4.51585E+03  4.35011E+04
 -2.08871E+04  3.56775E+04 -3.17442E+04  1.23951E+04 -2.31591E+04 -1.06804E+04 -5.51600E+03 -1.25584E+04
  4.26238E+02 -1.85371E+02 -9.13376E+03  8.85687E+03 -2.22371E+04  4.96114E+03 -2.26341E+04 -1.06200E+04
 -1.31379E+04 -2.60544E+04  6.70904E+03 -3.00775E+04  2.10330E+04 -2.14078E+04  2.48493E+04 -1.75350E+03
  1.62508E+04  1.80029E+04 -1.85312E+03  2.55855E+04 -1.88405E+04  1.46202E+04 -2.61057E+04 -5.07894E+03
 -1.87387E+04 -2.27689E+04 -2.15673E+03 -3.08982E+04  1.34859E+04 -2.57048E+04  2.55059E+04 -1.34321E+04
  2.42415E+04 -4.12606E+02  1.77107E+04  5.93133E+03  9.81843E+03  1.89241E+03  1.35053E+04 -2.30682E+03
  2.48071E+04  2.47757E+03  2.87017E+04  2.00205E+04  1.93921E+04  4.15569E+04 -3.17373E+03  4.98208E+04
 -2.77525E+04  4.20100E+04 -4.71841E+04  2.21431E+04 -5.07031E+04 -3.31675E+03 -4.06197E+04 -2.97221E+04
 -1.57432E+04 -4.26131E+04  1.55549E+04 -3.69819E+04  3.16221E+04 -1.67909E+04  2.67562E+04  9.17831E+03
  8.53105E+03  2.12007E+04 -1.28781E+04  1.73180E+04 -2.22561E+04  2.56667E+03 -1.65721E+04 -1.40260E+04
 -6.25829E+02 -2.16063E+04  1.23065E+04 -1.57727E+04  1.55705E+04 -1.66221E+03  4.23935E+03  1.04192E+04
 -9.56239E+03  4.74631E+03 -1.06964E+04 -7.82914E+03 -2.80722E+03 -2.06656E+04  1.29394E+04 -2.30731E+04
  2.61585E+04 -1.35151E+04  3.09480E+04  2.96776E+03  2.75016E+04  2.13749E+04  1.18429E+04  3.34666E+04
 -7.38058E+03  3.59230E+04 -2.42278E+04  2.25929E+04 -2.66545E+04  4.11816E+03 -1.77175E+04 -7.78748E+03
 -7.00295E+03 -8.46960E+03 -3.96792E+02 -2.61763E+02 -3.26167E+03  3.29530E+03 -8.51505E+03  6.13379E+03
 -1.61052E+04 -1.15403E+03 -1.68957E+04 -1.33705E+04 -6.77051E+03 -2.19335E+04  7.79981E+03 -1.80174E+04
  1.45932E+04 -7.46091E+03  1.03690E+04  4.66074E+03 -9.96217E+02  7.20539E+03 -9.14963E+03 -9.11309E+01
 -8.97374E+03 -1.19966E+04 -1.50682E+03 -1.80614E+04  1.08162E+04 -1.93720E+04  2.35770E+04 -1.04531E+04
  2.76527E+04  3.18204E+03  1.99212E+04  1.72390E+04  3.67170E+03  2.25468E+04 -1.12911E+04  1.80893E+04
 -1.48724E+04  4.67405E+03 -7.36939E+03 -3.96892E+03  2.37274E+03 -5.41587E+03  9.32324E+03 -1.05993E+03
  8.98058E+03  8.26184E+03  1.35151E+03  1.46890E+04 -1.05047E+04  1.43645E+04 -1.80542E+04  3.18069E+03
 -1.25352E+04 -9.77100E+03 -2.21830E+02 -1.59846E+04  1.04898E+04 -8.17462E+03  1.15758E+04  3.99186E+03
  2.34247E+03  1.22534E+04 -9.74605E+03  1.36730E+04 -1.67036E+04  6.64014E+03 -1.77016E+04 -6.36732E+03
 -9.50696E+03 -1.93794E+04  5.29628E+03 -2.23603E+04  1.91453E+04 -1.34406E+04  2.08806E+04  3.45064E+03
  1.21414E+04  1.59512E+04 -1.93067E+03  1.85930E+04 -1.46798E+04  1.07133E+04 -1.60989E+04 -1.68723E+03
 -1.26687E+04 -1.23869E+04 -1.68931E+03 -1.47741E+04  8.23155E+03 -1.09406E+04  9.69244E+03 -4.09873E+03
  6.07278E+03  3.16028E+03 -1.63218E+03  1.81645E+03 -1.34094E+03 -4.58618E+03  3.54948E+03 -9.90731E+03
  1.44945E+04 -6.49679E+03  2.04693E+04  1.89418E+03  1.96078E+04  1.39577E+04  1.25164E+04  2.64610E+04
 -6.17739E+03  3.01283E+04 -2.46714E+04  2.21400E+04 -3.20011E+04  4.63665E+03 -2.60561E+04 -1.13208E+04
 -1.27064E+04 -2.10711E+04 -4.31848E+02 -1.80394E+04  6.73843E+03 -1.07990E+04  6.61722E+03 -6.33180E+03
  5.30046E+03 -3.55379E+03  4.73689E+03 -4.47837E+03  5.87995E+03 -4.33983E+03  9.84087E+03 -2.84746E+03
  1.31927E+04  2.94730E+03  7.78184E+03  1.16478E+04 -2.33668E+03  1.48444E+04 -1.40920E+04  1.10317E+04
 -1.90061E+04 -1.65096E+03 -1.30445E+04 -1.30812E+04 -2.38730E+03 -2.04009E+04  1.08612E+04 -2.03440E+04
  2.04520E+04 -1.12874E+04  2.45702E+04  3.93239E+03  1.68543E+04  1.76829E+04  2.42406E+03  2.27850E+04
 -9.69941E+03  1.77155E+04 -1.35084E+04  6.39617E+03 -8.72632E+03 -1.51227E+03 -4.33331E+03 -2.85859E+03
 -1.92706E+03 -5.60880E+02 -3.27974E+03  3.33064E+03 -7.53071E+03  2.85402E+03 -1.25655E+04 -1.50809E+03
 -9.82467E+03 -1.27431E+04 -6.75489E+02 -1.89234E+04  1.21686E+04 -1.72307E+04  1.98888E+04 -5.52856E+03
  1.88880E+04  9.35191E+03  8.55193E+03  1.73072E+04 -4.17990E+03  1.93296E+04 -1.46584E+04  1.24143E+04
 -1.85194E+04  6.76683E+02 -1.35647E+04 -1.22366E+04 -1.71399E+03 -1.63528E+04  8.28484E+03 -1.20955E+04
  1.25230E+04 -3.44789E+03  8.69705E+03  3.25352E+03  3.06687E+03  5.66418E+03  1.86107E+03  2.46618E+03
  3.23869E+03  1.87597E+03  5.15159E+03  2.52636E+03  6.00160E+03  6.69977E+03  5.22012E+03  1.08351E+04
 -3.99461E+03  1.55998E+04 -1.36318E+04  1.53211E+04 -2.05161E+04  3.81510E+03 -2.09004E+04 -9.25309E+03
 -1.01526E+04 -2.03174E+04  2.63886E+03 -2.20407E+04  1.30602E+04 -1.47108E+04  1.68528E+04 -3.45909E+03
  1.28302E+04  6.97771E+03  2.85009E+03  1.12872E+04 -5.72249E+03  7.72240E+03 -8.50013E+03 -1.19957E+03
 -3.95686E+03 -8.72964E+03  4.02222E+03 -8.37881E+03  8.52127E+03 -3.93956E+03  8.66377E+03  2.15604E+03
  4.60250E+03  4.25652E+03  1.26360E+03  4.22822E+03 -1.11489E+03  2.76923E+03  1.57646E+03 -9.68394E+02
  3.63802E+03 -1.43501E+03  8.46054E+03  3.29419E+03  4.97589E+03  1.05784E+04 -2.19945E+03  1.41817E+04
 -9.92788E+03  9.87551E+03 -1.38364E+04  2.86781E+03 -1.18743E+04 -5.01991E+03 -5.03632E+03 -8.00695E+03
  1.05618E+03 -7.77317E+03  5.19974E+03 -4.06331E+03  4.42738E+03  3.95435E+03 -1.83058E+03  6.97104E+03
 -8.17485E+03  4.50844E+03 -1.01869E+04 -4.40788E+03 -5.64686E+03 -1.11536E+04  1.51866E+03 -1.16053E+04
  7.06081E+03 -7.22332E+03  8.71506E+03 -1.41857E+03  7.26914E+03  3.33115E+03  6.59135E+02  6.30136E+03
 -4.38952E+03  1.85707E+03 -5.08005E+03 -4.40982E+03  1.87222E+03 -9.93904E+03  1.00948E+04 -7.56920E+03
  1.32961E+04  1.07823E+03  1.23473E+04  9.67343E+03  3.84458E+03  1.46680E+04 -4.91276E+03  1.33886E+04
 -1.14088E+04  6.05158E+03 -1.17576E+04 -1.98360E+03 -6.92315E+03 -9.39162E+03  1.94689E+03 -9.34138E+03
  8.65769E+03 -4.29207E+03  7.97450E+03  3.78509E+03  2.47703E+03  8.19930E+03 -8.83761E+02  6.48176E+03
 -3.41126E+03  4.32313E+03 -3.53544E+03  1.67395E+03 -1.81883E+03  1.25218E+03 -2.50014E+03  2.41195E+03
 -3.23619E+03  5.45562E+03 -9.62753E+03  5.11212E+03 -1.37103E+04  4.25112E+02 -1.59866E+04 -9.44191E+03
 -8.65996E+03 -1.93723E+04  3.95533E+03 -2.19724E+04  1.42445E+04 -1.72185E+04  2.10371E+04 -6.43236E+03
  1.98981E+04  4.77519E+03  1.25033E+04  1.31861E+04  1.48044E+03  1.59010E+04 -5.83107E+03  1.10235E+04
 -8.43207E+03  4.10325E+03 -4.83867E+03 -1.47226E+03 -1.64443E+03 -1.69400E+03 -4.91618E+02 -4.51001E+02
 -2.48612E+03  2.31079E+02 -2.90483E+03 -6.65672E+02 -1.20678E+03 -3.58169E+03  7.39809E+02 -5.95065E+03
  6.10214E+03 -5.16502E+03  9.83880E+03 -1.84839E+02  1.07831E+04  8.59451E+03  3.02948E+03  1.54011E+04
 -7.51295E+03  1.78298E+04 -1.67197E+04  1.00332E+04 -1.92160E+04 -1.69395E+03 -1.41905E+04 -1.18267E+04
 -5.60172E+03 -1.63097E+04  3.98707E+03 -1.46081E+04  1.03056E+04 -8.18822E+03  1.10738E+04 -1.00601E+01
  5.66801E+03  5.36478E+03 -7.13852E+02  4.44787E+03 -2.75445E+03 -4.09890E+02 -7.67597E+01 -3.70522E+03
  4.70653E+03 -2.68280E+03  6.63589E+03  1.51339E+03  4.28715E+03  6.70763E+03  4.30583E+02  8.48884E+03
 -7.07709E+03  7.22772E+03 -1.09158E+04  4.90598E+02 -9.23422E+03 -7.98583E+03 -1.67798E+03 -1.32144E+04
  7.69549E+03 -1.16229E+04  1.26519E+04 -3.88272E+03  1.22797E+04  3.66951E+03  7.18988E+03  9.90346E+03
  1.12016E+03  1.06755E+04 -4.25794E+03  8.79822E+03 -6.51973E+03  5.28916E+03 -5.66097E+03  7.02699E+02
 -3.25908E+03 -4.19696E+02 -3.33250E+03  1.36877E+03 -5.27983E+03  2.11016E+03 -8.81239E+03 -1.25657E+03
 -7.78140E+03 -6.09803E+03 -2.04794E+03 -1.10456E+04  5.08988E+03 -1.12272E+04  9.53009E+03 -5.52926E+03
  1.08425E+04  1.14843E+03  6.37160E+03  8.30632E+03 -8.87188E+02  1.12265E+04 -8.60263E+03  7.20236E+03
