 $NMID ID='MM_0lb_SNR800_17hz_g60_96.RAW', FMTDAT='(8E13.5)'
 TRAMP=1., VOLUME=1. $END
  3.10096E+05  3.20459E+02  3.37860E+05  2.50638E+05  8.45679E+04  3.37951E+05 -1.32532E+05  2.50949E+05
 -1.90423E+05  8.29031E+04 -1.11810E+05 -3.24783E+04  1.11798E+03 -5.06992E+04  5.38994E+04  1.27712E+01
  3.50907E+04  5.28780E+04 -1.68064E+04  7.57593E+04 -6.08132E+04  6.35989E+04 -8.40425E+04  3.19571E+04
 -8.07596E+04 -1.12338E+04 -5.71522E+04 -5.06781E+04 -1.50570E+04 -6.95398E+04  2.76969E+04 -4.55383E+04
  4.02128E+04  3.61137E+03  1.59833E+04  4.78057E+04 -3.43475E+04  4.70794E+04 -6.66665E+04  5.31782E+01
 -5.33282E+04 -5.69350E+04 -6.72215E+03 -7.69362E+04  3.40067E+04 -5.48753E+04  4.77780E+04 -1.72119E+04
  4.31835E+04  1.10316E+04  3.14481E+04  2.53325E+04  1.56726E+04  2.90844E+04 -4.90621E+03  2.73756E+04
 -2.19582E+04  1.24463E+04 -1.86142E+04 -5.19970E+03  5.45210E+03 -7.44315E+03  2.21931E+04  1.22493E+04
  6.92762E+03  3.51321E+04 -3.18554E+04  3.53038E+04 -6.33545E+04  1.92254E+03 -5.67508E+04 -4.24508E+04
 -1.23672E+04 -6.29208E+04  3.94858E+04 -4.50091E+04  5.79828E+04 -2.16531E+03  3.36915E+04  3.19696E+04
 -5.73902E+03  3.55612E+04 -2.99414E+04  1.56987E+04 -2.98293E+04 -4.60808E+03 -1.64241E+04 -1.09511E+04
 -8.29285E+03 -1.28195E+04 -9.15368E+02 -1.79005E+04  7.34136E+03 -2.28937E+04  1.51353E+04 -1.33295E+04
  1.12665E+04  5.29979E+03 -7.70457E+03  1.29608E+04 -2.09884E+04 -4.14615E+03 -8.41692E+03 -3.30871E+04
  2.24163E+04 -4.30351E+04  4.73436E+04 -1.95494E+04  4.44778E+04  1.91199E+04  1.52201E+04  4.35633E+04
 -1.59228E+04  3.29705E+04 -2.50177E+04  1.75997E+03 -9.65485E+03 -2.74105E+04  2.11251E+04 -3.33976E+04
  4.03926E+04 -8.77707E+03  3.46115E+04  2.34844E+04  1.76538E+04  4.58360E+04 -7.99565E+03  4.92222E+04
 -3.07450E+04  3.30090E+04 -4.10789E+04  9.16008E+03 -4.15357E+04 -1.62513E+04 -2.31076E+04 -3.70569E+04
  7.43418E+03 -3.69389E+04  3.09794E+04 -1.43126E+04  2.89176E+04  1.09323E+04  3.57977E+03  1.85303E+04
 -1.31908E+04  7.93527E+03 -1.00532E+04 -7.61524E+03  5.84538E+03 -1.05291E+04  1.76421E+04  6.23013E+03
  1.33177E+04  2.18429E+04 -5.80439E+03  2.45230E+04 -2.19124E+04  1.08019E+04 -2.70788E+04 -5.15765E+03
 -1.97174E+04 -1.71289E+04 -7.77289E+03 -1.97231E+04  3.85749E+03 -1.86592E+04  1.51878E+04 -1.75122E+04
  2.49985E+04 -1.25127E+04  3.12232E+04  2.18737E+03  2.33478E+04  1.90101E+04  3.96780E+03  3.52437E+04
 -1.71733E+04  2.93602E+04 -2.71958E+04  1.01295E+04 -2.06498E+04 -1.02650E+04 -4.42799E+03 -1.35588E+04
  1.71137E+03 -3.08626E+03 -4.20025E+03  6.42500E+03 -1.52740E+04  5.33767E+03 -1.54448E+04 -6.14437E+03
 -9.59666E+03 -1.79085E+04  5.01275E+03 -2.21304E+04  1.45070E+04 -1.56846E+04  1.71336E+04 -1.49610E+03
  1.07144E+04  1.22727E+04 -1.06642E+03  1.79439E+04 -1.22061E+04  1.02698E+04 -1.80398E+04 -3.78456E+03
 -1.31946E+04 -1.60465E+04 -1.68570E+03 -2.13764E+04  9.78026E+03 -1.78004E+04  1.84942E+04 -8.82394E+03
  1.67919E+04  1.58601E+02  1.20134E+04  4.29730E+03  6.31421E+03  6.94940E+02  8.84801E+03 -1.62621E+03
  1.62052E+04  2.63079E+03  1.77619E+04  1.43771E+04  1.12705E+04  2.82717E+04 -2.95811E+03  3.14081E+04
 -1.83671E+04  2.50830E+04 -2.94366E+04  1.21465E+04 -3.04987E+04 -2.06601E+03 -2.54853E+04 -1.74262E+04
 -1.12984E+04 -2.50180E+04  8.38826E+03 -2.28018E+04  1.98660E+04 -1.22306E+04  1.78261E+04  4.89503E+03
  6.84404E+03  1.32451E+04 -8.03489E+03  1.18794E+04 -1.49616E+04  2.61911E+03 -1.17030E+04 -9.20538E+03
 -1.96605E+02 -1.43030E+04  7.33938E+03 -1.09168E+04  9.16231E+03 -1.00099E+03  1.73197E+03  5.59761E+03
 -6.42966E+03  2.12845E+03 -5.15393E+03 -5.46262E+03  1.61853E+02 -1.22109E+04  9.04448E+03 -1.27475E+04
  1.46588E+04 -6.54258E+03  1.55059E+04  2.92456E+03  1.33004E+04  1.14566E+04  6.23123E+03  1.80412E+04
 -2.58463E+03  1.98034E+04 -1.22187E+04  1.23336E+04 -1.40479E+04  3.13198E+03 -1.00727E+04 -2.72816E+03
 -5.10601E+03 -4.17403E+03 -7.72494E+02  1.43760E+03 -2.36794E+03  2.49118E+03 -4.63751E+03  3.94416E+03
 -9.41184E+03 -5.09819E+02 -1.02030E+04 -8.31626E+03 -3.81501E+03 -1.31859E+04  4.20627E+03 -1.03408E+04
  8.54668E+03 -4.40444E+03  6.14692E+03  2.56785E+03  4.54741E+02  3.65167E+03 -4.47834E+03  9.37012E+01
 -4.28573E+03 -6.60965E+03 -8.80985E+02 -8.91091E+03  4.89912E+03 -9.79278E+03  1.19892E+04 -5.20702E+03
  1.42374E+04  8.30671E+02  1.05335E+04  7.85836E+03  2.41232E+03  1.10044E+04 -6.50306E+03  9.61115E+03
 -8.02550E+03  3.28169E+03 -4.10377E+03 -1.77893E+03  1.58536E+03 -2.45927E+03  5.61203E+03 -9.89542E+02
  4.98582E+03  4.20351E+03  1.16610E+03  7.35892E+03 -5.37618E+03  7.44717E+03 -9.67502E+03  1.88538E+03
 -6.15863E+03 -4.44948E+03  4.10335E+02 -8.08363E+03  4.51257E+03 -4.02071E+03  4.65614E+03  1.35083E+03
  6.75077E+02  4.72216E+03 -4.77497E+03  6.13459E+03 -6.48410E+03  3.08246E+03 -6.47914E+03 -2.06902E+03
 -4.15765E+03 -8.04759E+03  1.79216E+03 -9.11528E+03  7.63038E+03 -5.70390E+03  8.20818E+03  1.44832E+03
  5.89028E+03  6.86967E+03 -2.10401E+02  8.71805E+03 -6.39624E+03  4.84819E+03 -6.57544E+03 -6.09529E+02
 -6.79417E+03 -6.23332E+03 -1.47065E+03 -6.07093E+03  3.28785E+03 -5.67660E+03  3.71408E+03 -2.94462E+03
  3.19354E+03  4.35184E+02 -6.98602E+01  1.51458E+03  5.80814E+02 -8.12594E+02  4.36649E+02 -2.74335E+03
  5.01806E+03 -1.46215E+03  7.19890E+03  5.55275E+02  7.28789E+03  4.65209E+03  5.89909E+03  9.62494E+03
 -1.79105E+03  1.12640E+04 -9.54373E+03  8.22926E+03 -1.28668E+04  1.36490E+03 -1.01075E+04 -3.89303E+03
 -5.44393E+03 -8.11341E+03 -4.37483E+02 -6.98805E+03  2.49001E+03 -3.32777E+03  2.41300E+03 -2.53761E+03
  1.80210E+03 -1.59205E+03  2.39212E+03 -2.62002E+03  3.96182E+03 -1.88539E+03  4.14200E+03 -2.47709E+02
  5.51805E+03  1.48448E+03  1.73953E+03  4.68290E+03 -1.72037E+03  4.13805E+03 -5.61728E+03  3.71715E+03
 -6.51115E+03 -1.11783E+03 -2.86355E+03 -4.21594E+03 -8.72257E+00 -6.86554E+03  3.87070E+03 -6.97049E+03
  6.94745E+03 -3.99109E+03  8.59155E+03  5.90718E+02  6.04499E+03  5.68639E+03  1.20782E+03  7.80759E+03
 -2.89688E+03  7.39207E+03 -4.11033E+03  2.10002E+03 -2.80705E+03 -1.20517E+03 -9.67014E+02 -6.90865E+02
 -4.64019E+02  5.24382E+02 -1.02549E+03  1.93931E+03 -2.92176E+03  1.04583E+03 -4.89140E+03 -6.99281E+02
 -2.60619E+03 -4.59420E+03  7.10100E+02 -6.05611E+03  3.44611E+03 -5.40800E+03  4.87082E+03 -1.47833E+03
  5.74134E+03  2.94745E+03  2.51642E+03  4.65797E+03 -8.89474E+02  5.91647E+03 -3.61352E+03  3.48816E+03
 -5.04913E+03  5.65073E+02 -4.35285E+03 -3.22299E+03 -3.19056E+02 -4.22568E+03  2.49850E+03 -3.35512E+03
  3.30323E+03 -1.48347E+03  2.31674E+03  3.30145E+02  6.77389E+02  2.00787E+03  9.12087E+02  6.28472E+02
  1.58383E+03  4.48990E+02  1.30493E+03  1.02174E+03  1.61402E+03  2.56592E+03  1.63983E+03  2.59608E+03
 -1.60188E+03  4.07652E+03 -3.65873E+03  5.01365E+03 -4.33993E+03  1.48609E+03 -5.36156E+03 -1.05992E+03
 -2.51722E+03 -5.13972E+03  9.01198E+02 -5.90366E+03  2.87069E+03 -3.58325E+03  4.29472E+03 -1.13601E+03
  3.09115E+03  2.34034E+03  4.52985E+02  2.67057E+03 -1.28773E+03  1.45157E+03 -1.69152E+03  3.94038E+01
 -1.02997E+03 -2.03531E+03  1.34815E+03 -1.92220E+03  1.97238E+03 -1.19167E+03  1.99270E+03  5.20834E+02
  1.06039E+03  6.31000E+02  7.86936E+02  2.68340E+02 -2.67124E+02  8.95756E+02  1.36686E+03 -3.31568E+02
  2.44745E+02 -2.62891E+02  2.23629E+03  7.63356E+02  7.80978E+02  2.89768E+03 -5.16298E+02  3.63800E+03
 -1.98072E+03  1.91878E+03 -2.80975E+03  5.67965E+02 -2.72290E+03 -8.35534E+02 -6.40458E+02 -1.35369E+03
  2.67409E+02 -1.79071E+03  1.22419E+03 -1.04615E+03  9.23140E+02  1.31979E+03 -1.05317E+03  1.66980E+03
 -1.81925E+03  9.16027E+02 -1.60023E+03 -1.43718E+03 -1.15629E+03 -2.62667E+03  1.05003E+02 -2.08698E+03
  6.96653E+02 -8.88223E+02  1.01941E+03  5.38681E+02  1.82857E+03 -1.08517E+01  5.73118E+02  1.56609E+03
 -6.38566E+02  3.95268E+02 -1.37164E+03 -4.38815E+02  7.07433E+02 -1.46473E+03  2.38652E+03 -1.22111E+03
  2.14812E+03  1.09192E+02  3.12861E+03  1.21788E+03  1.02436E+03  2.25492E+03 -6.86069E+02  2.29835E+03
 -2.02748E+03  3.59001E+02 -1.95398E+03 -2.29769E+02 -1.17321E+03 -1.55987E+03  1.20959E+02 -1.01892E+03
  1.94197E+03 -8.05969E+02  1.19210E+03  6.45508E+02  5.29677E+02  1.61115E+03 -4.89160E+01  1.30872E+03
 -4.85689E+02  1.46615E+03 -6.32706E+02  4.93771E+02  2.43265E+02  1.83035E+02 -6.41846E+02  7.23975E+02
 -8.55024E+02  9.05389E+02 -2.19501E+03  7.89885E+02 -2.35223E+03  1.32375E+02 -3.12465E+03 -1.33261E+03
 -1.12046E+03 -3.05936E+03  7.19708E+02 -3.80514E+03  1.52047E+03 -3.06195E+03  3.59426E+03 -1.41182E+03
  2.91585E+03  1.82081E+02  1.80807E+03  1.90721E+03 -7.00692E+02  2.10795E+03 -7.82659E+02  1.46128E+03
 -1.40991E+03  6.85207E+02 -5.60715E+02 -3.94597E+02 -5.47896E+02  2.71899E+02 -6.70954E+02 -1.09699E+02
 -9.97029E+02  4.81349E+01 -1.01943E+03  4.08739E+02  4.94218E+02 -1.12130E+03 -3.85264E+02 -1.04426E+03
  1.29507E+03 -8.49495E+02  6.25648E+02 -7.80715E+01  1.48594E+03  1.45706E+03 -4.73541E+02  1.69967E+03
 -1.20559E+03  2.52132E+03 -2.10722E+03  1.65405E+03 -2.25598E+03 -1.79973E+02 -1.83060E+03 -1.56657E+03
 -8.10908E+02 -1.72419E+03  3.02771E+02 -1.80270E+03  1.32649E+03 -6.94108E+02  9.94236E+02 -1.00671E+02
  9.20981E+02  4.98417E+02 -3.42673E+01  6.65061E+02 -4.34522E+02  9.01498E+01 -2.29718E+02 -2.09278E+02
  6.28089E+02  3.24592E+02  3.91061E+02  5.32499E+02  1.71640E+02  6.75910E+02  5.47861E+02  4.67613E+02
 -6.50214E+02  7.55924E+02 -7.23038E+02  1.32547E+02 -1.24415E+03 -6.28497E+02 -3.63129E+01 -1.29298E+03
  5.39619E+02 -1.00431E+03  9.98449E+02 -1.07249E+02  1.18323E+03 -3.66008E+02  4.33956E+02  1.12381E+03
  5.46383E+02  8.74243E+02 -2.08681E+02  6.32575E+02 -5.75459E+02  8.88130E+02 -7.59284E+02  9.62852E+01
 -2.66049E+02 -7.94715E+01 -6.32515E+02  3.98011E+02 -1.13460E+03  2.23635E+02 -8.68707E+02 -9.86398E+01
 -1.08464E+03  5.25070E+01 -3.21089E+02 -8.86118E+02  1.06277E+03 -1.81169E+03  8.90629E+02 -3.82946E+02
  1.00300E+03  2.57529E+01 -2.04975E+02  2.75273E+02 -2.25231E+02  1.06398E+03 -4.78183E+02  1.34762E+03
