 $NMID ID='MM_0lb_SNR800_7hz_g55_6.RAW', FMTDAT='(8E13.5)'
 TRAMP=1., VOLUME=1. $END
  3.09375E+05  4.59074E+02  3.37972E+05  2.50508E+05  8.51491E+04  3.38857E+05 -1.32770E+05  2.52145E+05
 -1.90813E+05  8.44172E+04 -1.13105E+05 -3.24213E+04 -3.91787E+02 -5.09990E+04  5.38033E+04 -1.02388E+03
  3.59032E+04  5.25925E+04 -1.67277E+04  7.63105E+04 -6.13900E+04  6.50244E+04 -8.57199E+04  3.32106E+04
 -8.31788E+04 -1.19463E+04 -5.86702E+04 -5.28937E+04 -1.49515E+04 -7.18757E+04  2.81968E+04 -4.70494E+04
  4.13290E+04  3.63036E+03  1.69659E+04  4.90774E+04 -3.49196E+04  4.90057E+04 -6.85741E+04 -2.95309E+02
 -5.54563E+04 -5.82867E+04 -7.08694E+03 -7.93669E+04  3.56084E+04 -5.79572E+04  5.09371E+04 -1.88363E+04
  4.65190E+04  1.13443E+04  3.34196E+04  2.66724E+04  1.63197E+04  3.17150E+04 -6.36190E+03  2.79636E+04
 -2.24590E+04  1.15866E+04 -1.74182E+04 -6.32298E+03  7.90769E+03 -7.40159E+03  2.37803E+04  1.45876E+04
  6.51619E+03  3.83471E+04 -3.46398E+04  3.80928E+04 -6.73903E+04  2.38310E+03 -5.99457E+04 -4.51630E+04
 -1.30646E+04 -6.74383E+04  4.22470E+04 -4.84791E+04  6.26914E+04 -2.33654E+03  3.79871E+04  3.55531E+04
 -5.26181E+03  4.11734E+04 -3.24958E+04  2.04522E+04 -3.48086E+04 -2.86096E+03 -2.05974E+04 -1.23903E+04
 -1.01828E+04 -1.58550E+04 -4.26559E+01 -2.04644E+04  8.97714E+03 -2.34561E+04  1.62321E+04 -1.23024E+04
  9.30203E+03  6.43137E+03 -1.15043E+04  1.27538E+04 -2.45430E+04 -7.89986E+03 -8.99457E+03 -3.93183E+04
  2.64689E+04 -4.87093E+04  5.42206E+04 -2.12672E+04  5.01823E+04  2.14162E+04  1.83076E+04  4.85786E+04
 -1.71482E+04  3.72677E+04 -2.90009E+04  2.96006E+03 -1.28740E+04 -3.03572E+04  2.20879E+04 -3.88150E+04
  4.66228E+04 -1.15769E+04  4.26326E+04  2.56638E+04  2.31853E+04  5.32204E+04 -8.31817E+03  5.87512E+04
 -3.71567E+04  4.05117E+04 -5.05014E+04  1.21092E+04 -4.98436E+04 -1.94880E+04 -2.76506E+04 -4.43942E+04
  8.56602E+03 -4.43287E+04  3.50801E+04 -1.80142E+04  3.35763E+04  1.08295E+04  5.88838E+03  2.12244E+04
 -1.46137E+04  1.01915E+04 -1.17078E+04 -7.83795E+03  5.37826E+03 -1.17831E+04  1.96399E+04  5.42208E+03
  1.56138E+04  2.30553E+04 -4.78906E+03  2.80015E+04 -2.40427E+04  1.56093E+04 -3.35593E+04 -1.67534E+03
 -2.82642E+04 -1.90128E+04 -1.36191E+04 -2.67920E+04  4.39606E+03 -2.88307E+04  2.15490E+04 -2.54257E+04
  3.52789E+04 -1.50476E+04  4.09817E+04  6.78492E+03  2.89768E+04  2.63460E+04  4.93728E+03  4.33807E+04
 -2.08680E+04  3.55137E+04 -3.21455E+04  1.25277E+04 -2.31541E+04 -9.66576E+03 -5.08344E+03 -1.28617E+04
 -6.46954E+01 -2.01349E+02 -8.91963E+03  9.26384E+03 -2.29655E+04  4.69241E+03 -2.23267E+04 -1.11206E+04
 -1.31240E+04 -2.60657E+04  6.21598E+03 -3.03187E+04  2.06563E+04 -2.18818E+04  2.55470E+04 -1.73326E+03
  1.57990E+04  1.74878E+04 -1.56246E+03  2.51898E+04 -1.86876E+04  1.49126E+04 -2.61581E+04 -5.23900E+03
 -1.89455E+04 -2.30192E+04 -2.62187E+03 -3.05168E+04  1.35714E+04 -2.56710E+04  2.51790E+04 -1.34826E+04
  2.42805E+04 -8.21201E+02  1.77770E+04  5.37100E+03  9.77460E+03  1.81975E+03  1.31350E+04 -2.56634E+03
  2.46470E+04  2.59966E+03  2.86274E+04  1.96893E+04  1.99749E+04  4.15027E+04 -2.58188E+03  4.94546E+04
 -2.83015E+04  4.21406E+04 -4.71134E+04  2.20414E+04 -5.08537E+04 -3.37463E+03 -4.04968E+04 -2.98667E+04
 -1.53621E+04 -4.27184E+04  1.53575E+04 -3.69936E+04  3.15764E+04 -1.66061E+04  2.66981E+04  9.27805E+03
  8.72755E+03  2.13794E+04 -1.33088E+04  1.73422E+04 -2.22096E+04  2.83426E+03 -1.69689E+04 -1.40479E+04
 -5.94733E+02 -2.20366E+04  1.15220E+04 -1.59216E+04  1.51159E+04 -1.43747E+03  3.92570E+03  9.74960E+03
 -9.79782E+03  5.16199E+03 -1.05160E+04 -7.93760E+03 -2.32068E+03 -2.08524E+04  1.32336E+04 -2.30884E+04
  2.66934E+04 -1.38374E+04  3.05919E+04  3.57132E+03  2.67591E+04  2.12020E+04  1.22916E+04  3.38143E+04
 -7.09662E+03  3.59287E+04 -2.43750E+04  2.22232E+04 -2.62315E+04  4.55350E+03 -1.75797E+04 -7.40964E+03
 -6.84001E+03 -8.51649E+03 -6.69769E+02  2.12404E+02 -3.40042E+03  4.09751E+03 -8.99267E+03  6.67133E+03
 -1.65638E+04 -1.12477E+03 -1.70475E+04 -1.35414E+04 -6.56393E+03 -2.20071E+04  7.13166E+03 -1.79396E+04
  1.49452E+04 -7.69886E+03  1.03374E+04  4.99456E+03 -9.35441E+02  7.53262E+03 -9.63858E+03  4.08926E+02
 -9.23850E+03 -1.17262E+04 -1.53200E+03 -1.79280E+04  1.05005E+04 -1.95482E+04  2.35895E+04 -1.02881E+04
  2.76408E+04  2.85773E+03  1.99094E+04  1.78610E+04  3.90115E+03  2.24064E+04 -1.13500E+04  1.78038E+04
 -1.44252E+04  5.06307E+03 -7.79755E+03 -3.93990E+03  2.26470E+03 -4.98763E+03  9.33402E+03 -4.68643E+02
  8.24976E+03  8.41094E+03  1.17799E+03  1.49782E+04 -1.08098E+04  1.39319E+04 -1.83595E+04  3.29343E+03
 -1.26428E+04 -9.93881E+03  2.50187E+02 -1.55943E+04  1.06543E+04 -8.71359E+03  1.15503E+04  4.17585E+03
  2.80735E+03  1.23006E+04 -9.47497E+03  1.41206E+04 -1.72269E+04  6.35597E+03 -1.75504E+04 -6.38339E+03
 -9.99034E+03 -1.94618E+04  5.11527E+03 -2.25205E+04  1.89353E+04 -1.28211E+04  2.05136E+04  3.94518E+03
  1.20212E+04  1.60893E+04 -2.07803E+03  1.90874E+04 -1.42139E+04  1.03601E+04 -1.56410E+04 -1.70680E+03
 -1.23193E+04 -1.23782E+04 -1.40002E+03 -1.47859E+04  7.93964E+03 -1.12398E+04  9.24668E+03 -3.87089E+03
  5.62342E+03  2.77844E+03 -1.78724E+03  2.13726E+03 -1.24666E+03 -4.95322E+03  3.76881E+03 -9.94565E+03
  1.42059E+04 -7.01025E+03  1.97531E+04  2.38648E+03  1.88776E+04  1.40663E+04  1.19400E+04  2.61705E+04
 -6.33069E+03  3.02100E+04 -2.48643E+04  2.24664E+04 -3.18300E+04  4.32570E+03 -2.58951E+04 -1.11931E+04
 -1.25915E+04 -2.13394E+04  1.78799E+01 -1.82675E+04  6.63798E+03 -1.04787E+04  6.32555E+03 -6.21099E+03
  5.21432E+03 -3.19465E+03  4.53637E+03 -4.95146E+03  6.74259E+03 -4.39617E+03  9.68984E+03 -2.03774E+03
  1.32540E+04  2.86657E+03  7.68167E+03  1.17439E+04 -2.54545E+03  1.46223E+04 -1.38043E+04  1.14491E+04
 -1.86516E+04 -1.39757E+03 -1.24924E+04 -1.33081E+04 -1.77425E+03 -2.04655E+04  1.09133E+04 -2.00538E+04
  2.09202E+04 -1.12252E+04  2.46946E+04  3.68755E+03  1.71518E+04  1.73535E+04  2.87258E+03  2.23984E+04
 -9.78106E+03  1.81190E+04 -1.32623E+04  6.02365E+03 -9.55874E+03 -1.52482E+03 -4.57155E+03 -2.95433E+03
 -1.89948E+03 -7.24431E+02 -2.98838E+03  3.66454E+03 -7.74694E+03  2.94278E+03 -1.27273E+04 -2.02058E+03
 -9.43072E+03 -1.28112E+04 -7.36258E+02 -1.92747E+04  1.15824E+04 -1.71613E+04  1.91980E+04 -5.85373E+03
  1.89753E+04  9.18184E+03  8.96349E+03  1.75783E+04 -3.58914E+03  1.92944E+04 -1.44601E+04  1.22766E+04
 -1.86990E+04  5.37771E+01 -1.39694E+04 -1.17085E+04 -2.09871E+03 -1.66591E+04  8.33370E+03 -1.18498E+04
  1.21948E+04 -3.68398E+03  8.78170E+03  3.67343E+03  3.03052E+03  5.76752E+03  1.39442E+03  3.09945E+03
  3.04410E+03  1.54235E+03  4.77151E+03  2.24396E+03  5.82366E+03  6.77370E+03  5.03265E+03  1.04502E+04
 -4.04928E+03  1.58794E+04 -1.42701E+04  1.50414E+04 -2.11572E+04  3.80973E+03 -2.16102E+04 -8.77682E+03
 -1.04980E+04 -2.00060E+04  2.91204E+03 -2.21906E+04  1.17503E+04 -1.38147E+04  1.60879E+04 -3.68005E+03
  1.26534E+04  7.60210E+03  2.86252E+03  1.09050E+04 -5.88719E+03  7.31966E+03 -8.46582E+03 -9.67488E+02
 -3.65505E+03 -8.95032E+03  4.38401E+03 -9.15810E+03  8.55622E+03 -4.11187E+03  7.62868E+03  2.03572E+03
  4.82732E+03  4.48194E+03  1.96097E+03  3.95602E+03 -1.01350E+03  2.76798E+03  1.18852E+03 -6.73787E+02
  3.27379E+03 -7.47015E+02  8.22100E+03  3.11220E+03  4.80158E+03  1.08409E+04 -1.54799E+03  1.44618E+04
 -9.25412E+03  1.04970E+04 -1.36741E+04  2.41191E+03 -1.17891E+04 -4.55658E+03 -5.44155E+03 -7.90009E+03
  1.22178E+03 -8.07675E+03  5.00690E+03 -3.53183E+03  4.60680E+03  3.47148E+03 -1.96204E+03  6.61090E+03
 -8.76911E+03  4.02645E+03 -9.82905E+03 -4.60236E+03 -5.63721E+03 -1.17361E+04  1.94389E+03 -1.18478E+04
  7.47253E+03 -7.42464E+03  8.76413E+03 -1.12778E+03  7.19234E+03  3.48231E+03  6.11375E+02  6.05605E+03
 -4.31223E+03  2.00012E+03 -5.01847E+03 -4.59370E+03  2.23145E+03 -9.39504E+03  1.07879E+04 -7.33628E+03
  1.33151E+04  5.00870E+02  1.25011E+04  1.00790E+04  3.90686E+03  1.48037E+04 -5.18634E+03  1.35331E+04
 -1.17474E+04  6.14070E+03 -1.18629E+04 -1.33034E+03 -6.86402E+03 -9.21841E+03  2.52000E+03 -9.26455E+03
  8.43478E+03 -4.07412E+03  8.00288E+03  3.53894E+03  2.66805E+03  7.17855E+03 -1.84292E+03  6.83948E+03
 -4.05709E+03  4.65568E+03 -3.57412E+03  1.08172E+03 -1.61206E+03  1.25192E+03 -2.00695E+03  2.55142E+03
 -3.44394E+03  5.50290E+03 -9.70070E+03  4.89859E+03 -1.43975E+04  3.22948E+01 -1.55555E+04 -9.34366E+03
 -8.36127E+03 -1.84832E+04  3.92880E+03 -2.25322E+04  1.42966E+04 -1.68034E+04  2.07776E+04 -6.36790E+03
  1.98230E+04  4.68916E+03  1.24760E+04  1.31565E+04  1.41796E+03  1.54540E+04 -6.17101E+03  1.09821E+04
 -8.67580E+03  3.87341E+03 -5.55164E+03 -1.35897E+03 -1.53199E+03 -2.10728E+03 -6.30971E+02 -6.77531E+01
 -2.00312E+03  6.89013E+02 -2.97305E+03 -5.42668E+02 -8.42972E+02 -3.73529E+03  4.73700E+02 -5.84499E+03
  6.69358E+03 -5.21844E+03  9.52526E+03  7.72351E+01  1.06584E+04  8.22816E+03  3.15260E+03  1.54213E+04
 -7.16333E+03  1.69683E+04 -1.66896E+04  1.02166E+04 -1.90635E+04 -1.60737E+03 -1.41945E+04 -1.11946E+04
 -5.54186E+03 -1.60726E+04  3.74794E+03 -1.46820E+04  9.94541E+03 -8.06275E+03  1.06604E+04  4.83714E+02
  5.58143E+03  4.99116E+03 -1.05542E+03  4.65943E+03 -2.90043E+03 -7.79129E+02  6.99211E+02 -3.87672E+03
  5.07827E+03 -2.26128E+03  6.80687E+03  2.04339E+03  4.60451E+03  5.94859E+03 -5.84562E+02  8.40756E+03
 -6.87809E+03  7.10794E+03 -1.09938E+04  8.51398E+02 -1.00844E+04 -7.80832E+03 -1.67937E+03 -1.37167E+04
  7.79566E+03 -1.11881E+04  1.25796E+04 -3.65207E+03  1.21970E+04  3.72556E+03  7.04183E+03  9.92145E+03
  1.42930E+03  1.07895E+04 -4.39461E+03  8.82791E+03 -6.57382E+03  4.04640E+03 -5.91428E+03  5.23203E+02
 -2.93277E+03 -5.54627E+02 -2.65412E+03  1.63595E+03 -5.66591E+03  1.13036E+03 -7.77018E+03 -1.80151E+03
 -7.75614E+03 -6.10171E+03 -2.64432E+03 -1.07724E+04  4.59788E+03 -1.16725E+04  9.93978E+03 -5.57529E+03
  1.11960E+04  7.36950E+02  6.05000E+03  8.62339E+03 -8.42736E+02  1.14558E+04 -8.63859E+03  7.10809E+03
