 $NMID ID='MM_0lb_SNR800_20hz_g60_69.RAW', FMTDAT='(8E13.5)'
 TRAMP=1., VOLUME=1. $END
  3.10001E+05  4.72852E+02  3.37419E+05  2.50343E+05  8.43924E+04  3.37768E+05 -1.32444E+05  2.50846E+05
 -1.89799E+05  8.26922E+04 -1.11299E+05 -3.29200E+04  1.20823E+03 -5.03473E+04  5.39192E+04 -6.71037E+01
  3.52156E+04  5.29124E+04 -1.71149E+04  7.53330E+04 -6.05679E+04  6.30949E+04 -8.34385E+04  3.17846E+04
 -8.06681E+04 -1.10495E+04 -5.65072E+04 -5.06839E+04 -1.47422E+04 -6.89429E+04  2.69367E+04 -4.54210E+04
  3.96990E+04  3.69203E+03  1.57136E+04  4.75265E+04 -3.39262E+04  4.64473E+04 -6.59215E+04 -5.25000E+02
 -5.28215E+04 -5.61395E+04 -6.40945E+03 -7.61289E+04  3.34634E+04 -5.39709E+04  4.66627E+04 -1.64038E+04
  4.22356E+04  1.08681E+04  3.12701E+04  2.46592E+04  1.55656E+04  2.88962E+04 -4.93872E+03  2.68756E+04
 -2.18031E+04  1.24549E+04 -1.89105E+04 -4.61651E+03  4.67009E+03 -7.46982E+03  2.16902E+04  1.13907E+04
  7.36703E+03  3.36337E+04 -3.10770E+04  3.48654E+04 -6.17809E+04  2.23055E+03 -5.59742E+04 -4.16957E+04
 -1.22790E+04 -6.16585E+04  3.86137E+04 -4.39756E+04  5.64580E+04 -2.11868E+03  3.26245E+04  3.12158E+04
 -6.35125E+03  3.40964E+04 -2.89427E+04  1.41696E+04 -2.82313E+04 -5.11466E+03 -1.49945E+04 -9.94749E+03
 -7.44260E+03 -1.21175E+04 -1.06946E+03 -1.69566E+04  6.89367E+03 -2.26917E+04  1.52860E+04 -1.37213E+04
  1.18866E+04  4.56707E+03 -6.60614E+03  1.31206E+04 -1.99419E+04 -3.01892E+03 -7.96678E+03 -3.09950E+04
  2.14529E+04 -4.13439E+04  4.55820E+04 -1.88374E+04  4.28016E+04  1.83905E+04  1.49557E+04  4.23858E+04
 -1.54627E+04  3.17664E+04 -2.38823E+04  1.39856E+03 -8.71469E+03 -2.69751E+04  2.04076E+04 -3.16989E+04
  3.89299E+04 -7.79670E+03  3.25980E+04  2.29924E+04  1.57968E+04  4.31308E+04 -7.78030E+03  4.63833E+04
 -2.91133E+04  3.06736E+04 -3.83692E+04  8.84711E+03 -3.90752E+04 -1.52601E+04 -2.17984E+04 -3.53275E+04
  7.05709E+03 -3.48598E+04  2.97370E+04 -1.33345E+04  2.75579E+04  1.06561E+04  3.46399E+03  1.80483E+04
 -1.30318E+04  7.43118E+03 -9.68711E+03 -7.89177E+03  5.91434E+03 -1.01881E+04  1.71978E+04  6.28216E+03
  1.28461E+04  2.18040E+04 -6.55952E+03  2.39196E+04 -2.17091E+04  9.56313E+03 -2.54506E+04 -6.24365E+03
 -1.72962E+04 -1.64223E+04 -6.19624E+03 -1.72959E+04  3.81377E+03 -1.55149E+04  1.28039E+04 -1.50779E+04
  2.18010E+04 -1.19920E+04  2.87317E+04  1.23851E+03  2.17248E+04  1.69627E+04  3.96271E+03  3.29330E+04
 -1.63273E+04  2.80274E+04 -2.63158E+04  9.38338E+03 -1.98617E+04 -1.03716E+04 -3.99708E+03 -1.39810E+04
  2.61792E+03 -3.98864E+03 -2.85194E+03  5.59754E+03 -1.31891E+04  5.15991E+03 -1.36096E+04 -5.09634E+03
 -8.84303E+03 -1.58799E+04  4.65161E+03 -1.96185E+04  1.26571E+04 -1.44559E+04  1.49403E+04 -1.45352E+03
  9.21186E+03  1.10160E+04 -6.85467E+02  1.62104E+04 -1.09519E+04  9.06553E+03 -1.57876E+04 -3.36457E+03
 -1.14234E+04 -1.41662E+04 -1.36538E+03 -1.94625E+04  8.80307E+03 -1.54876E+04  1.65091E+04 -7.58065E+03
  1.47130E+04  6.86145E+02  1.05946E+04  3.91472E+03  5.35324E+03  3.46551E+02  7.63878E+03 -1.24923E+03
  1.40765E+04  2.53315E+03  1.48239E+04  1.28404E+04  9.32477E+03  2.49568E+04 -2.96682E+03  2.71605E+04
 -1.57418E+04  2.04986E+04 -2.47873E+04  9.64495E+03 -2.51731E+04 -1.55690E+03 -2.17688E+04 -1.43373E+04
 -1.02751E+04 -2.05653E+04  7.06082E+03 -1.89873E+04  1.68449E+04 -1.08268E+04  1.57774E+04  3.80190E+03
  6.70369E+03  1.12576E+04 -7.12113E+03  1.02976E+04 -1.35765E+04  2.53449E+03 -1.03370E+04 -7.99449E+03
 -1.27779E+01 -1.24850E+04  6.47270E+03 -9.51222E+03  7.87991E+03 -1.35418E+03  1.41605E+03  4.94545E+03
 -5.63291E+03  1.51212E+03 -3.74805E+03 -4.67434E+03  5.44717E+02 -1.04547E+04  7.64030E+03 -9.68501E+03
  1.22024E+04 -4.53385E+03  1.18890E+04  2.70287E+03  1.01668E+04  9.65006E+03  5.05141E+03  1.39434E+04
 -1.30481E+03  1.61119E+04 -9.58146E+03  1.01782E+04 -1.11508E+04  2.77725E+03 -8.23542E+03 -1.75198E+03
 -4.54811E+03 -3.44989E+03 -9.76420E+02  1.22849E+03 -2.20898E+03  2.18786E+03 -3.86950E+03  3.34564E+03
 -8.23444E+03 -3.43553E+02 -8.31828E+03 -7.33599E+03 -3.42982E+03 -1.13187E+04  3.42417E+03 -8.43126E+03
  7.04048E+03 -3.31749E+03  4.99163E+03  2.41873E+03  5.53990E+02  3.07704E+03 -3.35012E+03  7.14644E+01
 -3.52543E+03 -5.20164E+03 -6.63297E+02 -7.08188E+03  4.13093E+03 -7.46094E+03  9.60935E+03 -4.07919E+03
  1.15069E+04  6.13504E+02  8.25291E+03  6.17676E+03  1.80271E+03  8.40456E+03 -5.01855E+03  8.10313E+03
 -6.92611E+03  2.93065E+03 -3.19061E+03 -1.25158E+03  1.28855E+03 -2.08195E+03  4.67927E+03 -1.13896E+03
  4.07333E+03  3.42527E+03  1.02192E+03  5.93844E+03 -4.16810E+03  6.17067E+03 -7.70808E+03  1.78775E+03
 -4.75143E+03 -3.03189E+03  3.27834E+02 -6.12352E+03  3.85564E+03 -3.16261E+03  3.32153E+03  8.29850E+02
  7.28373E+02  3.13005E+03 -3.78772E+03  4.28485E+03 -4.38211E+03  2.42866E+03 -4.41309E+03 -7.02587E+02
 -2.88210E+03 -5.56702E+03  9.86925E+02 -6.43201E+03  5.62114E+03 -4.48790E+03  6.04939E+03  9.34150E+02
  4.33515E+03  5.06728E+03 -1.73883E+02  6.73260E+03 -4.65746E+03  3.77674E+03 -4.73180E+03 -7.76276E+01
 -5.62583E+03 -4.60165E+03 -1.29699E+03 -4.82518E+03  2.50980E+03 -4.25942E+03  2.85835E+03 -2.76035E+03
  2.67232E+03  1.23720E+02 -2.48402E+01  1.15594E+03  4.73265E+02  8.89651E+01 -1.85489E+01 -1.28664E+03
  3.75325E+03 -4.56551E+02  4.84746E+03  7.28250E+02  4.98321E+03  2.92176E+03  4.99979E+03  6.72452E+03
 -1.00904E+03  7.69746E+03 -6.98208E+03  6.21110E+03 -8.80575E+03  1.06546E+03 -7.29170E+03 -2.08840E+03
 -3.94887E+03 -5.92211E+03 -4.98664E+02 -4.68353E+03  1.81491E+03 -1.81359E+03  1.56190E+03 -1.96983E+03
  8.98581E+02 -1.36522E+03  1.88697E+03 -2.24997E+03  3.53859E+03 -9.57966E+02  3.50999E+03  4.92360E+02
  4.33792E+03  1.31579E+03  8.25052E+02  3.31496E+03 -1.53425E+03  2.41040E+03 -3.96215E+03  2.21308E+03
 -4.34329E+03 -9.85265E+02 -1.35364E+03 -2.68201E+03  4.91080E+02 -4.37151E+03  2.76812E+03 -4.79329E+03
  4.47415E+03 -2.69698E+03  6.11755E+03 -9.42528E+01  4.28993E+03  3.62023E+03  8.65736E+02  5.11060E+03
 -1.85798E+03  5.47131E+03 -2.81635E+03  1.79978E+03 -1.51314E+03 -8.44748E+02 -2.23022E+02 -3.43476E+02
 -5.96957E+02  5.80022E+02 -8.38206E+02  1.88401E+03 -2.46647E+03  1.14715E+03 -3.68363E+03 -2.41358E+02
 -1.33786E+03 -3.51212E+03  8.76492E+02 -3.75983E+03  2.50487E+03 -3.74136E+03  3.01627E+03 -6.20424E+02
  3.59364E+03  1.93293E+03  1.39289E+03  2.37707E+03 -6.41302E+02  3.74661E+03 -2.12694E+03  2.01380E+03
 -3.11713E+03  6.61122E+02 -2.93135E+03 -2.09892E+03 -1.47448E+02 -2.70753E+03  1.29312E+03 -2.20552E+03
  2.04993E+03 -1.64745E+03  1.48515E+03  4.77596E+02  3.36177E+02  1.39545E+03  4.68120E+02  4.61447E+02
  1.74336E+03  5.84868E+02  9.34600E+02  1.09201E+03  8.32782E+02  2.19353E+03  1.50100E+03  1.14634E+03
 -1.31500E+03  2.08063E+03 -2.10338E+03  3.44980E+03 -1.92680E+03  9.96140E+02 -3.60758E+03  3.46038E+02
 -1.33796E+03 -2.98135E+03  6.13867E+02 -3.89548E+03  1.48729E+03 -1.90773E+03  2.41809E+03 -7.44126E+02
  1.95748E+03  1.48702E+03  2.50428E+02  1.50548E+03 -3.65069E+02  9.49414E+02 -6.14283E+02  5.68069E+01
 -5.76055E+02 -8.66903E+02  1.25560E+03 -1.32886E+03  8.51673E+02 -8.07263E+02  8.43784E+02  3.06035E+02
  6.49322E+02  1.71390E+02  7.91017E+02 -7.30833E+02 -2.81726E+02  3.45151E+02  1.46583E+03 -3.09584E+02
  9.19040E+01 -1.66339E+02  1.48809E+03  5.24513E+02 -1.22792E+02  1.84395E+03 -2.74064E+02  2.60611E+03
 -1.03869E+03  7.30981E+02 -1.36654E+03  7.58474E+01 -1.68734E+03 -3.91889E+02  6.98169E+01 -6.37427E+02
  3.71269E+02 -7.41020E+02  5.96255E+02 -5.06332E+02  5.24777E+02  9.34313E+02 -6.04584E+02  5.62199E+02
 -9.74185E+02  5.83052E+02 -6.00340E+02 -9.45371E+02 -2.94807E+02 -1.48674E+03  1.16229E+02 -9.74608E+02
  2.06184E+02 -1.18692E+02  3.73930E+02  3.01329E+02  8.84563E+02 -2.30753E+02  7.15576E+00  1.21772E+03
 -1.15942E+02 -1.60032E+02 -4.85145E+02  6.72625E+01  6.04985E+02 -3.28061E+02  1.13325E+03 -5.89381E+02
  1.06115E+03  1.25955E+01  2.24891E+03  4.26895E+02  1.11520E+03  1.18826E+03 -2.06020E+02  1.33829E+03
 -9.16535E+02  9.41998E+00 -1.01501E+03 -3.00830E+02 -4.37271E+02 -1.04985E+03  3.71184E+02 -3.13291E+02
  1.34635E+03 -5.74279E+02  4.89729E+02  6.52696E+02  1.36169E+02  1.02716E+03  1.68409E+02  6.97347E+02
 -4.39971E+02  8.08888E+02 -4.20170E+02  1.53855E+02  1.18480E+02  5.60239E+02 -4.62233E+02  6.71084E+02
 -4.56759E+02  8.13983E+02 -1.34284E+03  3.07835E+02 -1.27734E+03  2.84909E+02 -1.75366E+03 -4.83699E+02
 -5.83007E+02 -1.47680E+03  3.01958E+02 -1.95455E+03  4.29182E+02 -1.88729E+03  2.12831E+03 -8.60356E+02
  1.65488E+03 -4.01009E+02  5.44452E+02  1.02178E+03 -4.61951E+02  8.05230E+02 -5.42752E+02  9.33417E+02
 -4.94066E+02  4.54015E+02 -3.05267E+02 -2.07242E+01 -3.61866E+02  5.35369E+02 -7.46942E+02  1.54455E+02
 -1.23713E+03 -4.52481E+02 -7.88321E+02  1.48698E+02  1.44575E+02 -4.73437E+02 -5.61024E+02 -5.48015E+02
  1.05498E+03 -6.02793E+02  1.24906E+02 -8.58103E+01  6.40265E+02  6.95866E+02 -5.51784E+02  8.80032E+02
 -5.73927E+02  1.55791E+03 -9.42567E+02  8.29848E+02 -9.14632E+02 -2.04569E+02 -4.46437E+02 -8.70038E+02
 -8.64736E+02 -1.13156E+03  2.73743E+01 -6.46794E+02  3.50748E+02 -2.81508E+02  3.03156E+02  1.52799E+02
  6.12469E+02 -9.49366E+01  1.53621E+02 -2.12544E+02 -3.44105E+02 -1.31586E+01 -1.81360E+02  7.46098E+01
  4.18791E+02  1.30577E+02 -7.31547E+01  6.13005E+02 -1.93074E+02  9.76562E+01  5.46195E+02 -1.30940E+02
 -1.35947E+02  4.61002E+02 -2.82629E+02 -3.26210E+01  2.04846E+00 -2.92579E+02  3.61967E+02 -6.33104E+02
  2.90813E+02 -2.30525E+02 -1.32982E+02  1.37328E+02  5.84006E+02 -9.30075E+02  3.79111E+02  6.59019E+02
  1.44114E+01  1.40966E+02  1.47544E+02  4.08763E+02 -4.20286E+02  3.66929E+02  1.04225E+02  1.01725E+02
 -8.84032E+01 -1.08925E+02 -3.35899E+02  5.36781E+01 -3.28486E+02 -2.93081E+02 -3.92530E+02 -2.98096E+02
 -8.00343E+02  5.58122E+02 -1.52389E+02 -4.24693E+02  6.78944E+02 -1.18824E+03  4.19643E+02  2.86317E+01
  3.50002E+02 -1.29461E+02 -5.16561E+02  1.47356E+02  1.21376E+02  2.23289E+02 -3.13199E+01  7.82665E+02
