 $NMID ID='MM_0lb_SNR800_19hz_g55_28.RAW', FMTDAT='(8E13.5)'
 TRAMP=1., VOLUME=1. $END
  3.09945E+05  3.12431E+02  3.37260E+05  2.50458E+05  8.44373E+04  3.37750E+05 -1.32608E+05  2.50572E+05
 -1.89647E+05  8.25539E+04 -1.11189E+05 -3.27944E+04  1.11401E+03 -5.03927E+04  5.36553E+04  3.07992E+02
  3.51329E+04  5.25949E+04 -1.72562E+04  7.51788E+04 -6.04850E+04  6.31178E+04 -8.32966E+04  3.15966E+04
 -8.01062E+04 -1.12668E+04 -5.66616E+04 -5.04113E+04 -1.46676E+04 -6.87968E+04  2.70355E+04 -4.50737E+04
  3.93906E+04  3.91021E+03  1.59388E+04  4.71016E+04 -3.42341E+04  4.63535E+04 -6.58869E+04 -4.55687E+02
 -5.24295E+04 -5.60531E+04 -6.44564E+03 -7.57398E+04  3.33186E+04 -5.36769E+04  4.64360E+04 -1.67763E+04
  4.19376E+04  1.09532E+04  3.09996E+04  2.47170E+04  1.56763E+04  2.84892E+04 -4.88182E+03  2.69253E+04
 -2.15806E+04  1.27386E+04 -1.91512E+04 -4.39007E+03  4.47845E+03 -7.48535E+03  2.15340E+04  1.13704E+04
  7.39560E+03  3.39313E+04 -3.09876E+04  3.43366E+04 -6.14873E+04  2.10987E+03 -5.58326E+04 -4.16768E+04
 -1.24646E+04 -6.15714E+04  3.86328E+04 -4.40671E+04  5.60565E+04 -2.12463E+03  3.23853E+04  3.08948E+04
 -6.39496E+03  3.37287E+04 -2.85467E+04  1.40078E+04 -2.81795E+04 -5.14390E+03 -1.49069E+04 -1.02895E+04
 -7.71882E+03 -1.16643E+04 -1.08217E+03 -1.68455E+04  6.71379E+03 -2.26527E+04  1.49047E+04 -1.37571E+04
  1.20808E+04  4.19645E+03 -6.48798E+03  1.27291E+04 -1.98184E+04 -2.95517E+03 -7.83933E+03 -3.11867E+04
  2.13196E+04 -4.11000E+04  4.53265E+04 -1.89241E+04  4.28022E+04  1.84402E+04  1.43895E+04  4.19639E+04
 -1.54653E+04  3.15147E+04 -2.38410E+04  1.23853E+03 -8.74094E+03 -2.67189E+04  2.07684E+04 -3.16798E+04
  3.87018E+04 -7.41438E+03  3.20748E+04  2.32225E+04  1.61463E+04  4.35645E+04 -7.92598E+03  4.59733E+04
 -2.91452E+04  3.06129E+04 -3.81275E+04  8.51051E+03 -3.91598E+04 -1.55758E+04 -2.17416E+04 -3.49424E+04
  6.84809E+03 -3.49824E+04  3.00875E+04 -1.32369E+04  2.72652E+04  1.07215E+04  3.37068E+03  1.82024E+04
 -1.31094E+04  7.59713E+03 -9.63575E+03 -7.61919E+03  6.12072E+03 -1.03416E+04  1.72134E+04  6.29303E+03
  1.27190E+04  2.17020E+04 -6.91668E+03  2.36390E+04 -2.15145E+04  9.80841E+03 -2.56123E+04 -5.87698E+03
 -1.73950E+04 -1.66788E+04 -6.05254E+03 -1.74620E+04  3.91397E+03 -1.53962E+04  1.27258E+04 -1.53888E+04
  2.21140E+04 -1.19805E+04  2.88024E+04  1.45930E+03  2.18519E+04  1.69081E+04  4.04811E+03  3.32965E+04
 -1.62315E+04  2.78474E+04 -2.65249E+04  9.58368E+03 -1.96967E+04 -1.05978E+04 -3.99511E+03 -1.40391E+04
  2.53182E+03 -3.66938E+03 -2.86136E+03  5.58326E+03 -1.33638E+04  5.34170E+03 -1.35602E+04 -5.18628E+03
 -8.92126E+03 -1.60472E+04  4.65156E+03 -2.00615E+04  1.26778E+04 -1.48275E+04  1.49742E+04 -1.64533E+03
  9.25235E+03  1.11800E+04 -7.85891E+02  1.59202E+04 -1.10671E+04  8.93618E+03 -1.57755E+04 -3.47483E+03
 -1.17175E+04 -1.44541E+04 -1.73126E+03 -1.95120E+04  8.71999E+03 -1.57125E+04  1.63056E+04 -7.55671E+03
  1.49119E+04  5.97381E+02  1.03973E+04  4.05301E+03  5.22937E+03  5.24564E+02  8.22701E+03 -1.57449E+03
  1.40497E+04  2.57521E+03  1.51148E+04  1.29652E+04  9.10579E+03  2.54671E+04 -2.91622E+03  2.75320E+04
 -1.63137E+04  2.15061E+04 -2.53135E+04  9.81847E+03 -2.58871E+04 -2.16351E+03 -2.20389E+04 -1.47240E+04
 -1.02380E+04 -2.08796E+04  7.23677E+03 -1.96069E+04  1.72205E+04 -1.12516E+04  1.57890E+04  3.59126E+03
  6.58800E+03  1.15284E+04 -7.37066E+03  1.06663E+04 -1.37483E+04  2.53736E+03 -1.05222E+04 -8.26225E+03
  7.27363E+01 -1.24499E+04  6.42410E+03 -9.63411E+03  8.00549E+03 -1.22375E+03  1.37586E+03  5.24116E+03
 -5.44367E+03  1.48706E+03 -3.75867E+03 -4.58505E+03  5.45308E+02 -1.05771E+04  7.61380E+03 -1.03357E+04
  1.27364E+04 -5.07001E+03  1.21165E+04  3.00783E+03  1.06362E+04  9.92101E+03  5.14238E+03  1.43879E+04
 -1.65491E+03  1.62364E+04 -9.82910E+03  1.05233E+04 -1.15011E+04  3.11220E+03 -8.57560E+03 -2.18655E+03
 -4.64824E+03 -3.34383E+03 -5.35685E+02  1.54241E+03 -2.05500E+03  1.75378E+03 -3.93699E+03  3.53875E+03
 -8.25424E+03 -5.35419E+02 -8.79670E+03 -7.05247E+03 -3.63170E+03 -1.16931E+04  3.61830E+03 -8.34077E+03
  6.97971E+03 -3.69574E+03  5.23162E+03  2.39813E+03  5.23639E+02  3.05442E+03 -3.27647E+03 -1.59435E+02
 -3.39420E+03 -5.32453E+03 -7.20327E+02 -7.45330E+03  3.85662E+03 -7.97278E+03  1.00077E+04 -4.11778E+03
  1.18745E+04  5.87016E+02  8.78415E+03  6.35098E+03  1.92468E+03  8.49296E+03 -5.37491E+03  8.03519E+03
 -7.01005E+03  2.80304E+03 -3.37344E+03 -9.92354E+02  1.47638E+03 -1.87308E+03  4.49462E+03 -1.07712E+03
  4.24069E+03  3.15923E+03  9.47093E+02  6.46017E+03 -4.30516E+03  6.49780E+03 -8.00530E+03  1.83709E+03
 -5.05994E+03 -3.81433E+03  3.72035E+02 -6.79914E+03  3.87434E+03 -3.23710E+03  3.41711E+03  9.03016E+02
  4.94985E+02  3.57174E+03 -4.20846E+03  4.63048E+03 -4.92424E+03  2.43127E+03 -4.26324E+03 -9.67812E+02
 -3.01156E+03 -5.87533E+03  1.08389E+03 -7.06692E+03  5.91269E+03 -4.78886E+03  6.26818E+03  9.50433E+02
  4.62199E+03  5.29530E+03  2.46805E+02  7.16464E+03 -5.17368E+03  4.03623E+03 -5.17657E+03 -3.52701E+02
 -5.86236E+03 -5.12732E+03 -1.50491E+03 -4.72105E+03  2.80139E+03 -4.67678E+03  2.82237E+03 -2.72143E+03
  2.90806E+03  1.55506E+02  1.84187E+02  1.43595E+03  3.09818E+02 -2.01532E+02  2.43738E+01 -1.83780E+03
  4.00974E+03 -7.20494E+02  5.19115E+03  4.57534E+02  5.75459E+03  3.07872E+03  5.22068E+03  6.97291E+03
 -1.08177E+03  8.58817E+03 -7.55453E+03  6.37992E+03 -9.77392E+03  1.28759E+03 -7.81058E+03 -2.48078E+03
 -4.19594E+03 -6.45475E+03 -2.96500E+02 -5.26136E+03  2.00941E+03 -1.94440E+03  1.38988E+03 -2.05947E+03
  1.36495E+03 -1.40750E+03  2.28987E+03 -2.19203E+03  3.38138E+03 -1.44229E+03  3.31005E+03  6.43194E+02
  4.14159E+03  1.17475E+03  7.86011E+02  3.20739E+03 -1.73865E+03  2.97297E+03 -4.48954E+03  2.33767E+03
 -4.70111E+03 -1.00109E+03 -1.78010E+03 -3.12091E+03  3.39449E+02 -4.62459E+03  3.03859E+03 -5.53025E+03
  5.08415E+03 -3.28217E+03  6.55716E+03  1.91382E+02  4.75698E+03  3.99553E+03  1.04661E+03  5.70018E+03
 -2.27963E+03  5.57919E+03 -3.31444E+03  1.54243E+03 -1.70156E+03 -6.70203E+02 -5.22386E+02 -5.66377E+02
 -4.71316E+02  4.62527E+02 -1.03077E+03  1.96944E+03 -2.30779E+03  1.17227E+03 -3.90711E+03 -2.08579E+02
 -1.47074E+03 -4.06261E+03  7.02804E+02 -4.31423E+03  2.40298E+03 -4.33164E+03  3.15856E+03 -8.43089E+02
  4.04439E+03  2.31935E+03  1.72779E+03  3.07190E+03 -6.23481E+02  4.10139E+03 -2.55940E+03  2.71015E+03
 -3.60676E+03  5.90098E+02 -3.18156E+03 -2.45595E+03 -2.83539E+02 -3.21315E+03  1.49309E+03 -2.33771E+03
  2.33227E+03 -1.05661E+03  1.53199E+03  4.12327E+02  1.82085E+02  1.82063E+03  9.01999E+02  4.45888E+02
  1.86260E+03  4.48239E+02  1.10115E+03  9.36427E+02  1.00582E+03  2.18259E+03  1.25745E+03  1.57744E+03
 -1.06663E+03  2.52291E+03 -2.38515E+03  3.88191E+03 -2.66917E+03  9.26749E+02 -3.75602E+03 -1.47750E+02
 -1.66175E+03 -3.04942E+03  7.58930E+02 -4.32803E+03  1.79948E+03 -2.42405E+03  3.01626E+03 -8.92783E+02
  2.46150E+03  1.70538E+03  6.94264E+02  2.12063E+03 -6.88677E+02  1.19881E+03 -1.03603E+03 -1.20895E+02
 -1.04138E+03 -1.45323E+03  1.43221E+03 -1.55554E+03  1.05675E+03 -9.69557E+02  1.28279E+03  4.88380E+02
  6.97697E+02  6.73710E+01  6.28276E+02 -3.57286E+02 -2.38765E+02  8.63098E+02  1.55159E+03 -1.32804E+02
  9.78787E+01 -1.54371E+02  1.57799E+03  3.83778E+02  1.85420E+01  2.21414E+03  4.39437E+01  2.68306E+03
 -1.47087E+03  8.44251E+02 -1.80803E+03  3.96086E+02 -2.04730E+03 -7.49623E+02 -7.35353E+01 -7.52663E+02
  3.98647E+02 -1.08157E+03  6.28950E+02 -6.26400E+02  7.45624E+02  1.35510E+03 -6.00578E+02  9.60041E+02
 -1.42085E+03  5.05720E+02 -1.00891E+03 -1.13041E+03 -5.36449E+02 -2.06295E+03  1.90464E+02 -1.57934E+03
  2.09144E+02 -2.12200E+02  6.51040E+02  2.72454E+02  1.21725E+03 -2.60215E+02  6.87460E+01  1.12144E+03
 -2.78677E+02  6.95867E+01 -8.63310E+02 -7.75201E+01  6.53022E+02 -6.68059E+02  1.49622E+03 -8.54952E+02
  9.74272E+02  5.01278E+02  2.66404E+03  6.46071E+02  1.32102E+03  1.46417E+03  1.40765E+02  1.70848E+03
 -1.52736E+03 -7.23316E+01 -1.23512E+03 -2.72758E+02 -9.82618E+02 -1.26981E+03  3.17860E+02 -6.46946E+02
  1.40283E+03 -7.27034E+02  4.61073E+02  6.00732E+02  1.31878E+02  1.35762E+03  4.39862E+02  1.21196E+03
 -1.63293E+02  1.00939E+03 -3.21744E+02  2.90298E+02  2.94006E+02  4.18476E+02 -8.48106E+02  6.65613E+02
 -5.86232E+02  1.02001E+03 -1.78371E+03  4.27987E+02 -1.61428E+03  1.04635E+02 -1.98045E+03 -7.54381E+02
 -9.15868E+02 -1.99784E+03  3.20907E+02 -2.49278E+03  9.49746E+02 -2.21802E+03  2.18259E+03 -9.43312E+02
  2.21401E+03 -1.35419E+02  1.16547E+03  1.26653E+03 -7.50312E+02  1.32157E+03 -6.20192E+02  8.34339E+02
 -5.38786E+02  1.06592E+03 -3.51567E+02 -2.13576E+02 -4.13395E+02  4.21468E+02 -6.24978E+02  1.89704E+02
 -1.13995E+03 -1.48071E+02 -9.09382E+02 -2.12918E+02  5.06034E+02 -5.62901E+02 -7.78929E+02 -6.92470E+02
  1.22105E+03 -5.36674E+02  2.33241E+02  3.04006E+02  8.42689E+02  7.79494E+02 -3.12347E+02  1.31753E+03
 -8.77781E+02  1.85776E+03 -1.25961E+03  1.03028E+03 -1.34897E+03 -4.31811E+02 -1.13427E+03 -1.11412E+03
 -8.93639E+02 -8.99085E+02  2.11636E+02 -7.42930E+02  4.93232E+02 -4.67044E+02  4.75300E+02  1.35652E+02
  5.73364E+02  2.47254E+02  1.66419E+02  8.64884E+01 -2.69916E+02  2.09146E+02 -1.62186E+02 -6.77986E+01
  3.31141E+02  1.59808E+02 -2.15554E+01  3.32367E+02  1.02513E+01  4.85004E+02  2.81094E+02 -2.10004E+01
 -5.41180E+02  3.58519E+02 -5.45230E+02 -2.03076E+02 -6.17637E+02 -4.33801E+01  5.40219E+01 -7.89155E+02
  8.11482E+01 -2.17655E+02  3.35912E+02  6.63729E+01  8.94558E+02 -8.67242E+02  2.87035E+02  8.09264E+02
  4.98731E+02  3.25061E+02  1.26668E+02  4.25837E+02 -4.62853E+02  2.54940E+02 -2.07824E+02  3.19727E+02
 -8.94600E+01  4.87048E+01 -5.49274E+02 -2.35393E+01 -5.69800E+02  2.05122E+02 -5.83457E+02 -3.21204E+02
 -8.47778E+02  8.61446E+01 -4.61932E+02 -6.73276E+02  5.06290E+02 -1.55983E+03  5.51631E+02 -3.31705E+02
  8.64405E+02 -1.55745E+02 -2.30154E+02 -1.95756E+02  2.08623E+00  6.30174E+02 -2.17333E+02  4.86050E+02
