 $NMID ID='MM_0lb_SNR800_16hz_g40_47.RAW', FMTDAT='(8E13.5)'
 TRAMP=1., VOLUME=1. $END
  3.09549E+05  4.08300E+02  3.37553E+05  2.50420E+05  8.41595E+04  3.37701E+05 -1.32575E+05  2.50577E+05
 -1.89908E+05  8.24692E+04 -1.11081E+05 -3.28526E+04  1.34796E+03 -5.03828E+04  5.40770E+04  7.43697E+01
  3.48011E+04  5.28086E+04 -1.68007E+04  7.48941E+04 -6.04970E+04  6.30124E+04 -8.32270E+04  3.17689E+04
 -7.99110E+04 -1.13047E+04 -5.67086E+04 -5.01670E+04 -1.48615E+04 -6.84843E+04  2.70417E+04 -4.50019E+04
  3.93268E+04  4.17865E+03  1.56843E+04  4.76041E+04 -3.41178E+04  4.66206E+04 -6.57488E+04 -4.79029E+02
 -5.21581E+04 -5.61510E+04 -6.70269E+03 -7.59465E+04  3.32913E+04 -5.36749E+04  4.69102E+04 -1.63136E+04
  4.22039E+04  1.12150E+04  3.09096E+04  2.46934E+04  1.56023E+04  2.87499E+04 -4.93443E+03  2.68072E+04
 -2.18961E+04  1.26499E+04 -1.89231E+04 -4.51878E+03  4.75697E+03 -7.54310E+03  2.16628E+04  1.13733E+04
  7.62264E+03  3.37964E+04 -3.10967E+04  3.43475E+04 -6.16091E+04  2.14552E+03 -5.58263E+04 -4.17408E+04
 -1.23280E+04 -6.16703E+04  3.84200E+04 -4.40041E+04  5.62960E+04 -1.87352E+03  3.22659E+04  3.12904E+04
 -6.45872E+03  3.38709E+04 -2.87441E+04  1.42670E+04 -2.85172E+04 -5.22367E+03 -1.52077E+04 -1.03495E+04
 -7.62310E+03 -1.19223E+04 -8.01351E+02 -1.71938E+04  7.05425E+03 -2.25890E+04  1.51774E+04 -1.38436E+04
  1.16962E+04  4.84565E+03 -6.81520E+03  1.28617E+04 -2.00550E+04 -2.97271E+03 -8.42438E+03 -3.15136E+04
  2.11993E+04 -4.13364E+04  4.58184E+04 -1.91670E+04  4.31093E+04  1.87179E+04  1.47251E+04  4.24808E+04
 -1.54901E+04  3.17677E+04 -2.37811E+04  9.90675E+02 -8.96563E+03 -2.69252E+04  2.04735E+04 -3.17528E+04
  3.89227E+04 -8.21064E+03  3.28079E+04  2.31637E+04  1.64432E+04  4.36865E+04 -7.99887E+03  4.69524E+04
 -2.96099E+04  3.09949E+04 -3.86555E+04  8.90284E+03 -3.99027E+04 -1.54260E+04 -2.19690E+04 -3.53823E+04
  7.20475E+03 -3.55497E+04  3.00067E+04 -1.30179E+04  2.75840E+04  1.08286E+04  3.49331E+03  1.82585E+04
 -1.29406E+04  7.68315E+03 -9.82540E+03 -7.84718E+03  5.95384E+03 -1.02034E+04  1.74837E+04  6.28978E+03
  1.28250E+04  2.19584E+04 -6.30431E+03  2.39451E+04 -2.19467E+04  9.63144E+03 -2.62565E+04 -5.58979E+03
 -1.81573E+04 -1.68340E+04 -6.34685E+03 -1.80753E+04  3.90906E+03 -1.63147E+04  1.36116E+04 -1.56946E+04
  2.29968E+04 -1.18429E+04  2.93596E+04  1.68143E+03  2.20702E+04  1.77067E+04  4.20573E+03  3.33735E+04
 -1.63046E+04  2.81197E+04 -2.64067E+04  9.81087E+03 -1.99671E+04 -1.03842E+04 -4.29484E+03 -1.36331E+04
  2.19036E+03 -3.66139E+03 -3.42260E+03  5.96920E+03 -1.44645E+04  5.17005E+03 -1.41516E+04 -5.67422E+03
 -9.20882E+03 -1.66659E+04  4.77252E+03 -2.05265E+04  1.34459E+04 -1.51190E+04  1.58530E+04 -1.57932E+03
  9.82599E+03  1.15622E+04 -8.85697E+02  1.69949E+04 -1.12164E+04  9.79367E+03 -1.67283E+04 -3.49994E+03
 -1.22879E+04 -1.53332E+04 -1.39518E+03 -2.04676E+04  9.14883E+03 -1.68973E+04  1.72245E+04 -7.75416E+03
  1.56690E+04  6.41893E+02  1.11141E+04  4.10616E+03  5.83575E+03  5.61171E+02  8.61105E+03 -1.58311E+03
  1.50194E+04  3.03706E+03  1.65050E+04  1.35875E+04  1.04429E+04  2.66840E+04 -3.02933E+03  2.91037E+04
 -1.70344E+04  2.30043E+04 -2.69886E+04  1.11689E+04 -2.77366E+04 -1.93552E+03 -2.35724E+04 -1.58010E+04
 -1.11863E+04 -2.29075E+04  7.69144E+03 -2.11737E+04  1.82775E+04 -1.14159E+04  1.69798E+04  4.54937E+03
  6.39936E+03  1.21232E+04 -7.82941E+03  1.12837E+04 -1.43786E+04  2.55987E+03 -1.11388E+04 -8.56904E+03
 -5.24251E+02 -1.33362E+04  6.87152E+03 -9.90201E+03  8.94379E+03 -1.32936E+03  1.72121E+03  5.63066E+03
 -5.74498E+03  1.60433E+03 -4.77463E+03 -4.99904E+03  2.19687E+02 -1.13710E+04  8.34643E+03 -1.14209E+04
  1.40010E+04 -5.78724E+03  1.45420E+04  2.88659E+03  1.23894E+04  1.10858E+04  5.84762E+03  1.63005E+04
 -2.06066E+03  1.84717E+04 -1.12970E+04  1.15199E+04 -1.27814E+04  3.27809E+03 -9.41224E+03 -2.45747E+03
 -4.85651E+03 -3.91046E+03 -8.38751E+02  1.54060E+03 -2.10373E+03  1.96569E+03 -4.02970E+03  3.92729E+03
 -8.86353E+03 -4.33189E+02 -9.67828E+03 -7.96358E+03 -4.11473E+03 -1.27415E+04  3.94457E+03 -9.36961E+03
  7.92607E+03 -4.14388E+03  5.71006E+03  2.63149E+03  6.29047E+02  3.20028E+03 -4.09233E+03 -3.78431E+02
 -4.07257E+03 -6.19575E+03 -5.00316E+02 -8.39824E+03  4.72706E+03 -9.35004E+03  1.14579E+04 -4.86103E+03
  1.36988E+04  7.21678E+02  1.00710E+04  7.60193E+03  2.25907E+03  1.01688E+04 -6.00829E+03  9.10334E+03
 -7.77529E+03  2.81113E+03 -4.00532E+03 -1.31353E+03  1.66650E+03 -2.73896E+03  5.03721E+03 -1.00999E+03
  4.60406E+03  3.95132E+03  9.92591E+02  7.27488E+03 -5.07469E+03  6.88600E+03 -9.02117E+03  1.84369E+03
 -5.70524E+03 -4.40670E+03  2.29574E+02 -7.64940E+03  4.27406E+03 -3.89722E+03  4.15162E+03  1.44844E+03
  1.03011E+03  4.04994E+03 -4.82362E+03  5.95616E+03 -5.95615E+03  2.89556E+03 -5.86288E+03 -1.80167E+03
 -3.86576E+03 -7.54679E+03  1.72090E+03 -8.72265E+03  7.40422E+03 -5.66407E+03  8.05420E+03  1.41935E+03
  5.37355E+03  6.49737E+03 -1.81220E+02  8.40240E+03 -6.07332E+03  4.69522E+03 -6.44177E+03 -2.95322E+02
 -6.66560E+03 -5.82129E+03 -1.30805E+03 -6.11777E+03  3.15265E+03 -5.45314E+03  3.87799E+03 -3.09495E+03
  3.18613E+03  5.26574E+02 -1.58998E+02  1.21935E+03  4.59305E+02 -4.60653E+02  5.02620E+02 -2.95697E+03
  4.88545E+03 -1.25060E+03  6.87527E+03  5.96268E+02  6.93941E+03  4.13437E+03  5.89075E+03  9.28668E+03
 -1.91951E+03  1.05436E+04 -9.53321E+03  8.10682E+03 -1.21559E+04  1.34355E+03 -9.77406E+03 -3.45898E+03
 -5.21135E+03 -8.12305E+03 -4.50705E+02 -6.56380E+03  2.75435E+03 -3.24853E+03  1.96326E+03 -2.74919E+03
  1.92110E+03 -1.79398E+03  2.46473E+03 -2.64615E+03  3.80578E+03 -1.50424E+03  4.24022E+03  2.89772E+02
  5.59189E+03  1.49069E+03  1.67656E+03  4.33079E+03 -1.83547E+03  4.11522E+03 -5.59231E+03  3.54984E+03
 -6.16077E+03 -1.06580E+03 -2.69687E+03 -4.53303E+03  1.63635E+02 -6.50456E+03  4.44802E+03 -6.71306E+03
  6.69124E+03 -4.01908E+03  8.26062E+03  7.33586E+02  6.16125E+03  5.61430E+03  1.25778E+03  7.90212E+03
 -2.90992E+03  7.17573E+03 -4.15215E+03  2.61056E+03 -2.63747E+03 -1.29246E+03 -6.93012E+02 -7.03402E+02
 -7.55509E+02  3.85816E+02 -9.03462E+02  2.21322E+03 -3.03953E+03  1.42333E+03 -4.82900E+03 -2.94525E+02
 -2.31951E+03 -4.64297E+03  6.68105E+02 -6.04065E+03  3.74777E+03 -5.66326E+03  5.10602E+03 -1.84099E+03
  5.54630E+03  3.05120E+03  2.63392E+03  4.62892E+03 -1.16072E+03  5.83995E+03 -3.60300E+03  3.57606E+03
 -5.01123E+03  6.97910E+02 -4.26013E+03 -3.12928E+03 -3.75056E+02 -4.46565E+03  2.28551E+03 -3.36839E+03
  3.67502E+03 -1.73061E+03  2.51012E+03  8.82724E+02  6.34124E+02  2.21474E+03  9.33745E+02  8.75757E+02
  1.98343E+03  7.55056E+02  1.55162E+03  9.52878E+02  1.44577E+03  2.59882E+03  1.41890E+03  3.00113E+03
 -1.46920E+03  4.03908E+03 -3.73210E+03  4.84670E+03 -4.41825E+03  1.65384E+03 -5.83252E+03 -1.19604E+03
 -2.33367E+03 -5.38014E+03  8.22929E+02 -6.25573E+03  3.05315E+03 -3.59229E+03  4.40227E+03 -9.13188E+02
  3.35727E+03  2.56911E+03  6.71481E+02  3.27112E+03 -1.05291E+03  1.59728E+03 -1.57031E+03 -1.88960E+02
 -7.08589E+02 -2.28787E+03  1.27065E+03 -2.09908E+03  2.11735E+03 -1.60832E+03  2.33350E+03  3.71685E+02
  9.33762E+02  7.30380E+02  9.15364E+02 -1.28751E+02 -4.59811E+02  1.12134E+03  1.53950E+03 -3.27989E+02
  3.39782E+02 -4.06383E+02  2.63275E+03  7.61547E+02  9.41736E+02  3.17364E+03 -4.57932E+02  3.98858E+03
 -2.23734E+03  1.94880E+03 -2.98401E+03  3.36571E+02 -3.03670E+03 -1.00460E+03 -4.18882E+02 -1.91941E+03
  6.62069E+02 -2.07940E+03  1.47032E+03 -8.58917E+02  8.70435E+02  1.69092E+03 -8.63782E+02  1.63410E+03
 -1.97961E+03  1.13709E+03 -1.93445E+03 -1.61635E+03 -1.28424E+03 -2.94715E+03  1.99560E+02 -2.56840E+03
  9.00412E+02 -1.00371E+03  1.59555E+03  2.70244E+02  1.70187E+03  2.58507E+02  4.93736E+02  1.51093E+03
 -6.01898E+02  3.32967E+02 -1.16770E+03 -4.01083E+02  4.36148E+02 -1.58733E+03  2.52570E+03 -1.18765E+03
  2.23078E+03  2.86615E+02  3.23719E+03  1.17990E+03  1.45755E+03  2.61537E+03 -7.85555E+02  2.70781E+03
 -2.35477E+03  7.09205E+02 -2.23732E+03 -2.47887E+02 -1.35213E+03 -2.04628E+03  4.39632E+02 -1.27586E+03
  2.02106E+03 -1.04076E+03  1.08735E+03  8.82556E+02  3.20475E+02  1.89016E+03  2.16473E+02  1.63657E+03
 -6.38607E+02  1.49837E+03 -9.83878E+02  2.67070E+02 -1.32741E+02  2.92170E+02 -1.06129E+03  1.03784E+03
 -8.80163E+02  1.24783E+03 -2.38079E+03  9.78724E+02 -2.72911E+03  6.26666E+02 -3.47513E+03 -1.64018E+03
 -1.42577E+03 -3.45871E+03  5.98299E+02 -4.35134E+03  2.04290E+03 -3.77264E+03  4.12460E+03 -1.43615E+03
  3.91832E+03  4.75294E+02  2.24602E+03  2.38567E+03 -4.00163E+02  2.79459E+03 -1.03016E+03  2.05229E+03
 -1.74480E+03  8.50845E+02 -9.55618E+02 -2.17610E+02 -6.47696E+02  1.09821E+02 -7.04725E+02 -3.57231E+01
 -1.18646E+03 -3.84221E+02 -1.06784E+03  1.06237E+02 -1.35263E+01 -6.05577E+02 -3.38968E+02 -1.34654E+03
  1.77440E+03 -8.41214E+02  1.45432E+03  5.02559E+01  1.64782E+03  1.71117E+03 -2.47156E+02  2.53601E+03
 -1.54680E+03  3.55497E+03 -2.66527E+03  1.68635E+03 -3.26806E+03 -3.43110E+02 -2.21836E+03 -2.18128E+03
 -1.27768E+03 -2.30256E+03  4.63596E+02 -2.52836E+03  1.30602E+03 -1.18854E+03  1.14644E+03  8.71203E+01
  1.13219E+03  6.67054E+02 -7.32185E+01  7.60544E+02 -5.65312E+02 -8.09341E+01  2.85882E+01 -3.60354E+02
  9.41801E+02  3.53832E+02  6.60589E+02  6.06276E+02  4.22863E+02  1.04114E+03  3.94162E+02  8.85934E+02
 -1.05985E+03  1.05962E+03 -1.31174E+03 -1.27719E+02 -1.31861E+03 -1.13268E+03 -7.17491E+01 -2.08699E+03
  8.75645E+02 -1.31087E+03  1.01848E+03 -3.56075E+02  1.73497E+03 -1.19745E+02  1.12066E+03  1.40083E+03
  7.56887E+02  1.36721E+03 -3.89095E+02  1.26192E+03 -1.06398E+03  1.05337E+03 -7.24674E+02  8.81442E+01
 -1.76196E+02 -6.08621E+01 -5.25834E+02  4.02129E+02 -9.08175E+02  1.61908E+02 -1.09644E+03 -3.75445E+02
 -1.54875E+03 -4.69358E+02 -3.96413E+02 -1.81533E+03  1.28743E+03 -2.17415E+03  1.30471E+03 -6.89007E+02
  1.13186E+03  2.08209E+02  2.49870E+02  7.59415E+02 -1.35202E+02  1.45385E+03 -1.11589E+03  1.41400E+03
