 $NMID ID='MM_0lb_SNR800_9hz_g45_33.RAW', FMTDAT='(8E13.5)'
 TRAMP=1., VOLUME=1. $END
  3.09818E+05  3.78028E+02  3.38272E+05  2.50973E+05  8.46131E+04  3.38063E+05 -1.32889E+05  2.51458E+05
 -1.90580E+05  8.36975E+04 -1.12360E+05 -3.25302E+04  8.24706E+02 -5.05661E+04  5.36072E+04 -5.00475E+02
  3.56314E+04  5.27915E+04 -1.66542E+04  7.63185E+04 -6.08539E+04  6.40630E+04 -8.49849E+04  3.23175E+04
 -8.21118E+04 -1.18443E+04 -5.88847E+04 -5.26241E+04 -1.49748E+04 -7.07172E+04  2.83598E+04 -4.68605E+04
  4.10858E+04  3.50062E+03  1.66755E+04  4.83496E+04 -3.47592E+04  4.80847E+04 -6.81138E+04 -3.71317E+02
 -5.50308E+04 -5.76119E+04 -7.40224E+03 -7.88826E+04  3.46816E+04 -5.68639E+04  4.96383E+04 -1.79866E+04
  4.47792E+04  1.11633E+04  3.25428E+04  2.63818E+04  1.61715E+04  3.05020E+04 -5.32360E+03  2.77555E+04
 -2.21429E+04  1.17329E+04 -1.78340E+04 -5.84747E+03  6.73711E+03 -7.31412E+03  2.29843E+04  1.40154E+04
  7.25065E+03  3.73507E+04 -3.37567E+04  3.70514E+04 -6.58346E+04  2.15971E+03 -5.84925E+04 -4.46486E+04
 -1.23455E+04 -6.56980E+04  4.15938E+04 -4.70447E+04  6.08131E+04 -2.41199E+03  3.65233E+04  3.38054E+04
 -5.52956E+03  3.93207E+04 -3.17058E+04  1.84799E+04 -3.28052E+04 -3.53689E+03 -1.90563E+04 -1.21186E+04
 -9.33492E+03 -1.47543E+04 -4.43534E+02 -1.95654E+04  8.36878E+03 -2.35502E+04  1.58293E+04 -1.24896E+04
  1.07066E+04  6.05991E+03 -1.00417E+04  1.29860E+04 -2.33011E+04 -6.92580E+03 -8.72671E+03 -3.70476E+04
  2.52177E+04 -4.68238E+04  5.19941E+04 -2.08986E+04  4.84308E+04  2.05983E+04  1.70069E+04  4.68006E+04
 -1.62731E+04  3.60771E+04 -2.73809E+04  2.39772E+03 -1.19424E+04 -2.92257E+04  2.14865E+04 -3.66821E+04
  4.41705E+04 -1.09718E+04  3.98601E+04  2.51011E+04  2.05618E+04  5.06148E+04 -8.09914E+03  5.58307E+04
 -3.53001E+04  3.76790E+04 -4.69586E+04  1.04754E+04 -4.72056E+04 -1.84137E+04 -2.60720E+04 -4.17805E+04
  7.56050E+03 -4.19083E+04  3.43858E+04 -1.64408E+04  3.17059E+04  1.09950E+04  5.25636E+03  2.02962E+04
 -1.35731E+04  9.87719E+03 -1.09801E+04 -7.73662E+03  5.55189E+03 -1.09918E+04  1.84876E+04  5.30792E+03
  1.47894E+04  2.28648E+04 -5.43328E+03  2.67407E+04 -2.33373E+04  1.39191E+04 -3.09169E+04 -3.13983E+03
 -2.47850E+04 -1.83235E+04 -1.13561E+04 -2.48028E+04  4.48039E+03 -2.47157E+04  1.92384E+04 -2.23895E+04
  3.16741E+04 -1.41984E+04  3.75147E+04  4.43265E+03  2.65620E+04  2.42255E+04  4.89279E+03  4.09771E+04
 -2.00525E+04  3.38144E+04 -3.04235E+04  1.14707E+04 -2.24662E+04 -1.03211E+04 -5.21100E+03 -1.28012E+04
  1.07516E+03 -1.37025E+03 -6.98983E+03  8.28289E+03 -1.99938E+04  5.19017E+03 -1.99555E+04 -9.01381E+03
 -1.20609E+04 -2.32763E+04  6.00026E+03 -2.75342E+04  1.84256E+04 -1.95560E+04  2.20035E+04 -1.76944E+03
  1.42206E+04  1.57459E+04 -1.74220E+03  2.26019E+04 -1.61529E+04  1.34438E+04 -2.29898E+04 -4.77285E+03
 -1.67498E+04 -2.05535E+04 -2.21547E+03 -2.73119E+04  1.22158E+04 -2.30906E+04  2.26075E+04 -1.17647E+04
  2.16564E+04 -5.36928E+02  1.55355E+04  5.22116E+03  8.43431E+03  1.09861E+03  1.16113E+04 -1.79599E+03
  2.14191E+04  3.18094E+03  2.50083E+04  1.79721E+04  1.66872E+04  3.72037E+04 -2.77998E+03  4.36495E+04
 -2.48479E+04  3.59733E+04 -4.07630E+04  1.88712E+04 -4.38136E+04 -3.56037E+03 -3.52230E+04 -2.61037E+04
 -1.40173E+04 -3.59337E+04  1.29416E+04 -3.17163E+04  2.72977E+04 -1.52226E+04  2.39275E+04  7.68366E+03
  8.08872E+03  1.81867E+04 -1.14325E+04  1.55900E+04 -1.96520E+04  2.46504E+03 -1.51243E+04 -1.24383E+04
 -4.21457E+02 -1.85869E+04  1.01034E+04 -1.40527E+04  1.32455E+04 -1.48565E+03  3.01770E+03  8.66618E+03
 -8.90967E+03  3.94660E+03 -8.54566E+03 -7.02264E+03 -1.56428E+03 -1.76316E+04  1.15081E+04 -1.95834E+04
  2.23756E+04 -1.07501E+04  2.56301E+04  3.16038E+03  2.23783E+04  1.82070E+04  1.01042E+04  2.83469E+04
 -5.70663E+03  3.00872E+04 -1.99509E+04  1.88289E+04 -2.17423E+04  4.12462E+03 -1.51245E+04 -5.49058E+03
 -6.28025E+03 -6.92751E+03 -5.83111E+02  5.28276E+02 -2.82158E+03  3.76532E+03 -7.20385E+03  5.47388E+03
 -1.38572E+04 -9.09503E+02 -1.43108E+04 -1.16138E+04 -5.85560E+03 -1.90276E+04  6.36546E+03 -1.52938E+04
  1.24736E+04 -5.99606E+03  9.06206E+03  3.94333E+03 -4.09744E+02  6.02870E+03 -7.33870E+03 -2.43254E+02
 -7.35632E+03 -9.89959E+03 -1.16767E+03 -1.52803E+04  8.99889E+03 -1.60342E+04  1.93725E+04 -8.35337E+03
  2.30854E+04  2.20351E+03  1.69523E+04  1.41517E+04  3.43473E+03  1.86525E+04 -9.50497E+03  1.53437E+04
 -1.24967E+04  3.70672E+03 -6.12675E+03 -3.30012E+03  2.21785E+03 -4.21416E+03  8.18969E+03 -9.68667E+02
  7.43181E+03  6.80304E+03  1.17305E+03  1.23839E+04 -8.85763E+03  1.17775E+04 -1.51492E+04  2.70335E+03
 -1.07727E+04 -8.45082E+03  3.48875E+02 -1.32134E+04  8.45913E+03 -6.59987E+03  8.98587E+03  3.41114E+03
  2.05162E+03  9.52324E+03 -7.92655E+03  1.13835E+04 -1.30181E+04  4.97264E+03 -1.33702E+04 -4.70003E+03
 -7.98926E+03 -1.57236E+04  3.58921E+03 -1.76043E+04  1.50038E+04 -1.04734E+04  1.63766E+04  3.09714E+03
  9.62355E+03  1.28811E+04 -1.36253E+03  1.52252E+04 -1.12714E+04  8.84895E+03 -1.25589E+04 -1.28740E+03
 -1.04554E+04 -1.00185E+04 -1.77937E+03 -1.18230E+04  6.19680E+03 -9.25734E+03  7.54515E+03 -3.61787E+03
  4.84561E+03  2.14604E+03 -1.28496E+03  1.89987E+03 -7.54331E+02 -3.31736E+03  2.52182E+03 -7.81707E+03
  1.09412E+04 -4.79762E+03  1.55033E+04  1.89255E+03  1.52726E+04  1.07852E+04  9.82464E+03  2.00532E+04
 -4.83365E+03  2.30646E+04 -1.91375E+04  1.74889E+04 -2.53187E+04  3.41207E+03 -1.99520E+04 -8.61178E+03
 -1.04468E+04 -1.67857E+04 -1.99830E+02 -1.43423E+04  5.13600E+03 -7.88338E+03  5.13221E+03 -5.36586E+03
  3.92690E+03 -2.75441E+03  3.92561E+03 -3.64690E+03  5.45297E+03 -3.21494E+03  7.33041E+03 -1.11433E+03
  1.06846E+04  2.11578E+03  5.57172E+03  9.08168E+03 -2.53211E+03  1.10089E+04 -1.13285E+04  8.58470E+03
 -1.48374E+04 -1.59605E+03 -9.31037E+03 -1.00691E+04 -9.75134E+02 -1.49668E+04  8.37609E+03 -1.49925E+04
  1.58559E+04 -8.33535E+03  1.89199E+04  2.53803E+03  1.30047E+04  1.33083E+04  2.09888E+03  1.76291E+04
 -7.23567E+03  1.40769E+04 -9.96142E+03  5.14235E+03 -6.51443E+03 -1.66658E+03 -2.70700E+03 -1.65799E+03
 -1.74807E+03  1.68115E+02 -2.10982E+03  3.28696E+03 -6.03150E+03  2.47051E+03 -9.89803E+03 -1.36593E+03
 -6.79866E+03 -1.01110E+04 -7.84123E+01 -1.42562E+04  8.59526E+03 -1.32089E+04  1.40767E+04 -4.28961E+03
  1.42197E+04  7.18384E+03  6.19662E+03  1.27823E+04 -2.61558E+03  1.47854E+04 -1.07515E+04  8.78373E+03
 -1.35572E+04  3.81870E+02 -1.01109E+04 -8.94952E+03 -1.02476E+03 -1.17112E+04  6.50911E+03 -8.56436E+03
  9.42301E+03 -2.57736E+03  6.13994E+03  2.66290E+03  2.08019E+03  4.34243E+03  1.24756E+03  2.15629E+03
  2.49203E+03  1.07376E+03  3.66093E+03  1.31397E+03  4.22620E+03  4.52093E+03  3.83713E+03  7.71188E+03
 -3.31678E+03  1.13700E+04 -1.00836E+04  1.12465E+04 -1.46561E+04  3.00225E+03 -1.52929E+04 -6.39693E+03
 -6.99198E+03 -1.46582E+04  2.49541E+03 -1.62797E+04  8.95340E+03 -1.00903E+04  1.22878E+04 -2.81525E+03
  9.51814E+03  5.50216E+03  2.09567E+03  8.15481E+03 -3.86598E+03  5.42180E+03 -6.08043E+03 -7.92494E+02
 -2.68759E+03 -6.10691E+03  3.35193E+03 -6.43935E+03  6.25792E+03 -2.85684E+03  5.90628E+03  1.43370E+03
  3.44446E+03  2.95708E+03  1.67995E+03  2.36927E+03 -9.98839E+02  2.24396E+03  1.46654E+03 -6.65134E+02
  2.35784E+03 -1.07236E+03  6.14793E+03  2.44009E+03  3.70762E+03  8.14511E+03 -1.33407E+03  1.03105E+04
 -7.32994E+03  6.65636E+03 -9.53963E+03  2.01777E+03 -8.28699E+03 -3.36081E+03 -3.48040E+03 -6.06061E+03
  7.86272E+02 -5.90522E+03  3.99622E+03 -2.67847E+03  3.40161E+03  2.75491E+03 -1.42284E+03  4.72167E+03
 -5.93627E+03  2.75388E+03 -6.80868E+03 -3.26922E+03 -3.83998E+03 -8.17194E+03  1.46500E+03 -8.15354E+03
  5.02951E+03 -4.62673E+03  5.95420E+03 -5.51348E+02  5.14177E+03  2.31003E+03  1.00817E+03  4.04371E+03
 -3.05878E+03  1.85223E+03 -3.87018E+03 -3.13272E+03  1.50494E+03 -6.24342E+03  7.37586E+03 -5.10743E+03
  9.04044E+03  8.27014E+02  9.38863E+03  6.39748E+03  2.70017E+03  1.01659E+04 -3.11225E+03  9.22947E+03
 -8.28570E+03  4.47983E+03 -8.27149E+03 -1.33326E+03 -4.43272E+03 -6.48209E+03  1.20937E+03 -6.01811E+03
  6.32716E+03 -2.47955E+03  5.36268E+03  2.86570E+03  1.89564E+03  5.54230E+03 -7.93344E+02  4.64234E+03
 -2.64629E+03  2.70010E+03 -2.21106E+03  1.02339E+03 -9.95115E+02  1.03874E+03 -2.17994E+03  1.69384E+03
 -2.26146E+03  3.84146E+03 -6.65488E+03  3.36332E+03 -1.00024E+04  4.41062E+02 -1.11119E+04 -6.54569E+03
 -6.03104E+03 -1.31050E+04  2.66622E+03 -1.48241E+04  9.29529E+03 -1.14509E+04  1.42711E+04 -4.52602E+03
  1.32476E+04  2.74280E+03  7.86730E+03  8.75993E+03  8.30267E+02  1.02694E+04 -4.26075E+03  7.35858E+03
 -5.82963E+03  2.70169E+03 -3.96170E+03 -1.21620E+03 -8.32515E+02 -9.00486E+02 -8.94196E+02  1.22503E+02
 -1.95621E+03  1.72570E+02 -2.29290E+03 -5.28962E+02 -7.03861E+02 -2.32997E+03  4.77472E+02 -3.87633E+03
  4.41744E+03 -3.24719E+03  6.22650E+03 -1.11913E+02  7.28765E+03  5.14050E+03  2.01353E+03  9.82057E+03
 -4.78133E+03  1.14063E+04 -1.08289E+04  6.81325E+03 -1.22803E+04 -1.21858E+03 -9.50176E+03 -7.53003E+03
 -3.98832E+03 -1.02658E+04  2.64684E+03 -9.18477E+03  6.24281E+03 -4.98987E+03  6.76199E+03  3.63463E+01
  3.50355E+03  3.30767E+03 -4.70050E+01  3.11470E+03 -2.13795E+03 -2.11733E+02 -2.02990E+02 -2.17014E+03
  3.10842E+03 -1.33229E+03  4.27027E+03  9.26808E+02  2.97642E+03  4.09854E+03 -9.44610E+01  5.26718E+03
 -4.73284E+03  4.40923E+03 -6.67102E+03  5.67802E+02 -6.40330E+03 -5.08646E+03 -1.14211E+03 -8.67125E+03
  4.65033E+03 -6.79168E+03  7.88885E+03 -1.98362E+03  7.48501E+03  2.24702E+03  4.77867E+03  6.33467E+03
  9.32609E+02  6.85114E+03 -2.44526E+03  5.47226E+03 -4.42702E+03  2.83173E+03 -3.43041E+03  1.04038E+02
 -2.21657E+03  1.16383E+02 -1.99044E+03  8.71770E+02 -3.41164E+03  1.37822E+03 -5.00060E+03 -1.14774E+03
 -4.74390E+03 -3.95077E+03 -1.42679E+03 -7.50935E+03  3.13388E+03 -7.25743E+03  5.81544E+03 -3.76899E+03
  6.43937E+03  5.84465E+02  3.40530E+03  4.67550E+03 -4.84218E+02  6.87737E+03 -5.13641E+03  4.40253E+03
