 $NMID ID='MM_0lb_SNR800_11hz_g55_62.RAW', FMTDAT='(8E13.5)'
 TRAMP=1., VOLUME=1. $END
  3.09640E+05  3.19390E+02  3.37861E+05  2.50878E+05  8.45062E+04  3.38184E+05 -1.32564E+05  2.51708E+05
 -1.90745E+05  8.34507E+04 -1.12265E+05 -3.24200E+04  6.43439E+02 -5.09548E+04  5.38232E+04 -2.25442E+02
  3.53025E+04  5.27236E+04 -1.66743E+04  7.57514E+04 -6.12880E+04  6.44549E+04 -8.50572E+04  3.22713E+04
 -8.16453E+04 -1.21805E+04 -5.76477E+04 -5.21748E+04 -1.51970E+04 -7.12667E+04  2.82314E+04 -4.65631E+04
  4.08289E+04  3.64944E+03  1.66141E+04  4.84514E+04 -3.43334E+04  4.79648E+04 -6.77118E+04 -7.38167E+01
 -5.43493E+04 -5.74493E+04 -7.18047E+03 -7.88378E+04  3.46329E+04 -5.67076E+04  4.96440E+04 -1.78032E+04
  4.50373E+04  1.12935E+04  3.26576E+04  2.65524E+04  1.59864E+04  3.04680E+04 -5.54833E+03  2.76722E+04
 -2.26285E+04  1.17478E+04 -1.78870E+04 -5.54538E+03  6.65817E+03 -7.61551E+03  2.31112E+04  1.31337E+04
  6.90357E+03  3.71418E+04 -3.31923E+04  3.67643E+04 -6.48450E+04  2.14315E+03 -5.83257E+04 -4.38285E+04
 -1.25924E+04 -6.56379E+04  4.12945E+04 -4.71084E+04  6.03034E+04 -2.35601E+03  3.59950E+04  3.38361E+04
 -5.53214E+03  3.85303E+04 -3.15585E+04  1.78028E+04 -3.26840E+04 -3.93552E+03 -1.82741E+04 -1.19321E+04
 -9.26313E+03 -1.46765E+04 -4.88042E+02 -1.93527E+04  8.62422E+03 -2.34786E+04  1.56236E+04 -1.30031E+04
  1.07286E+04  6.12327E+03 -9.90934E+03  1.29524E+04 -2.28231E+04 -5.86495E+03 -8.47367E+03 -3.67391E+04
  2.45590E+04 -4.56186E+04  5.11533E+04 -2.06394E+04  4.74267E+04  2.01731E+04  1.67201E+04  4.58044E+04
 -1.62424E+04  3.51720E+04 -2.68102E+04  2.44144E+03 -1.11410E+04 -2.88272E+04  2.13033E+04 -3.60006E+04
  4.34000E+04 -1.05411E+04  3.92851E+04  2.42635E+04  2.04533E+04  4.95783E+04 -8.22409E+03  5.45477E+04
 -3.40421E+04  3.73678E+04 -4.60108E+04  1.04691E+04 -4.62746E+04 -1.77725E+04 -2.54196E+04 -4.11273E+04
  7.76897E+03 -4.08553E+04  3.34285E+04 -1.64648E+04  3.13022E+04  1.11942E+04  4.56014E+03  2.06750E+04
 -1.40301E+04  9.49726E+03 -1.12444E+04 -7.69750E+03  5.40071E+03 -1.14883E+04  1.89082E+04  5.91359E+03
  1.44578E+04  2.23184E+04 -5.27355E+03  2.65816E+04 -2.34196E+04  1.36079E+04 -3.05474E+04 -3.68027E+03
 -2.43288E+04 -1.80961E+04 -1.05093E+04 -2.37544E+04  4.03937E+03 -2.41861E+04  1.82083E+04 -2.16471E+04
  3.06169E+04 -1.37573E+04  3.62380E+04  4.52367E+03  2.61265E+04  2.33802E+04  4.56145E+03  3.96075E+04
 -1.93553E+04  3.29059E+04 -3.00545E+04  1.17355E+04 -2.17899E+04 -1.02195E+04 -4.58148E+03 -1.29192E+04
  9.89990E+02 -1.55113E+03 -6.58041E+03  7.77877E+03 -1.91854E+04  5.09229E+03 -1.91587E+04 -9.03238E+03
 -1.13236E+04 -2.17692E+04  6.14523E+03 -2.63967E+04  1.74516E+04 -1.86315E+04  2.13889E+04 -1.47920E+03
  1.37253E+04  1.54709E+04 -1.73833E+03  2.19462E+04 -1.57386E+04  1.29584E+04 -2.23420E+04 -4.54916E+03
 -1.63832E+04 -2.02133E+04 -2.11683E+03 -2.65716E+04  1.20047E+04 -2.21137E+04  2.20455E+04 -1.13031E+04
  2.08563E+04 -1.61065E+02  1.48962E+04  5.00130E+03  8.21483E+03  9.68781E+02  1.12141E+04 -1.81880E+03
  2.08988E+04  2.88254E+03  2.37385E+04  1.74170E+04  1.57556E+04  3.51825E+04 -2.73558E+03  4.11847E+04
 -2.34920E+04  3.42748E+04 -3.86172E+04  1.73198E+04 -4.15276E+04 -2.91868E+03 -3.37046E+04 -2.39581E+04
 -1.38353E+04 -3.40818E+04  1.21585E+04 -2.99193E+04  2.60685E+04 -1.46771E+04  2.30716E+04  7.06356E+03
  7.80453E+03  1.70747E+04 -1.05074E+04  1.46500E+04 -1.90197E+04  2.37203E+03 -1.42880E+04 -1.22064E+04
 -2.51165E+02 -1.80080E+04  9.73106E+03 -1.37497E+04  1.26340E+04 -1.13419E+03  3.18980E+03  8.29386E+03
 -8.27395E+03  3.69217E+03 -8.42503E+03 -6.40523E+03 -1.56288E+03 -1.67998E+04  1.13483E+04 -1.81746E+04
  2.10477E+04 -1.01607E+04  2.34732E+04  3.18821E+03  2.06098E+04  1.68905E+04  9.99231E+03  2.64990E+04
 -4.89286E+03  2.80694E+04 -1.83427E+04  1.76031E+04 -2.05231E+04  4.00831E+03 -1.41964E+04 -4.92224E+03
 -6.02346E+03 -6.72025E+03 -2.78669E+02  8.20881E+02 -3.07372E+03  3.10342E+03 -6.59220E+03  5.53215E+03
 -1.29802E+04 -1.22991E+03 -1.34350E+04 -1.08400E+04 -5.29012E+03 -1.76679E+04  5.60386E+03 -1.43220E+04
  1.14505E+04 -5.94091E+03  8.39635E+03  3.83106E+03 -4.88791E+02  5.45250E+03 -6.98192E+03 -3.41958E+02
 -6.49299E+03 -8.97841E+03 -9.35703E+02 -1.36786E+04  8.00183E+03 -1.46901E+04  1.79082E+04 -8.32571E+03
  2.11920E+04  2.31025E+03  1.52577E+04  1.30521E+04  3.21550E+03  1.73217E+04 -8.62897E+03  1.39893E+04
 -1.14699E+04  4.38954E+03 -5.82597E+03 -2.98794E+03  2.52406E+03 -3.56020E+03  7.89340E+03 -1.14454E+03
  6.30237E+03  6.28199E+03  1.12450E+03  1.16960E+04 -8.10077E+03  1.09347E+04 -1.37696E+04  2.87663E+03
 -9.39582E+03 -7.41143E+03  3.96127E+02 -1.21450E+04  7.92658E+03 -6.55393E+03  8.05751E+03  2.70448E+03
  1.44964E+03  8.81067E+03 -7.41763E+03  1.04190E+04 -1.19046E+04  4.36134E+03 -1.15682E+04 -4.28474E+03
 -6.73712E+03 -1.41071E+04  3.53804E+03 -1.64165E+04  1.35573E+04 -9.67649E+03  1.48547E+04  2.50291E+03
  8.84612E+03  1.14532E+04 -1.38778E+03  1.38335E+04 -1.03385E+04  7.83638E+03 -1.15255E+04 -8.72365E+02
 -9.57640E+03 -9.16804E+03 -1.63257E+03 -1.06452E+04  5.56897E+03 -8.59137E+03  6.51835E+03 -3.39282E+03
  4.68419E+03  1.70915E+03 -7.27476E+02  1.62262E+03 -7.12474E+02 -3.06400E+03  1.77464E+03 -6.17129E+03
  9.95598E+03 -3.88634E+03  1.37604E+04  1.38340E+03  1.35645E+04  9.27206E+03  9.10447E+03  1.77876E+04
 -4.23438E+03  2.05408E+04 -1.69734E+04  1.52345E+04 -2.25548E+04  2.83900E+03 -1.77716E+04 -7.52577E+03
 -8.72774E+03 -1.48372E+04 -2.71507E+02 -1.24396E+04  4.72414E+03 -6.72766E+03  4.76573E+03 -4.69840E+03
  2.94913E+03 -2.66436E+03  3.49993E+03 -3.72268E+03  5.30792E+03 -2.98256E+03  7.04764E+03 -1.34979E+03
  9.46653E+03  2.04082E+03  4.47978E+03  7.79591E+03 -2.12101E+03  9.38498E+03 -9.86410E+03  7.42475E+03
 -1.19734E+04 -1.26276E+03 -7.03637E+03 -8.64671E+03 -7.86885E+02 -1.33883E+04  7.58973E+03 -1.32449E+04
  1.40042E+04 -7.47908E+03  1.65700E+04  2.22220E+03  1.12624E+04  1.14561E+04  1.78839E+03  1.47212E+04
 -6.09828E+03  1.23173E+04 -8.73807E+03  4.29348E+03 -5.77685E+03 -1.68242E+03 -2.36175E+03 -1.76336E+03
 -1.40955E+03  5.94867E+01 -2.13906E+03  2.68327E+03 -5.38953E+03  2.12463E+03 -8.45659E+03 -1.31272E+03
 -6.03442E+03 -8.60074E+03  3.16857E+01 -1.19629E+04  7.44440E+03 -1.10459E+04  1.22981E+04 -3.50515E+03
  1.21219E+04  5.83971E+03  5.28843E+03  1.11439E+04 -2.45883E+03  1.27669E+04 -8.41030E+03  7.34793E+03
 -1.09595E+04  5.63832E+02 -9.09816E+03 -7.30719E+03 -1.21814E+03 -9.75104E+03  5.03699E+03 -7.40349E+03
  7.58382E+03 -2.29277E+03  5.74668E+03  2.03518E+03  2.08204E+03  3.89086E+03  1.32196E+03  1.65487E+03
  2.51666E+03  1.33927E+03  2.62713E+03  1.56189E+03  3.58431E+03  4.18187E+03  3.36117E+03  6.32729E+03
 -2.16881E+03  9.62216E+03 -8.34780E+03  9.61698E+03 -1.17118E+04  2.70765E+03 -1.24880E+04 -5.46119E+03
 -5.86867E+03 -1.20102E+04  1.38685E+03 -1.36481E+04  6.85667E+03 -8.70511E+03  1.00666E+04 -2.49105E+03
  7.77151E+03  4.66214E+03  1.91107E+03  6.62622E+03 -3.64137E+03  4.57721E+03 -4.42480E+03 -1.08142E+03
 -2.11578E+03 -5.01937E+03  2.77361E+03 -5.54537E+03  4.91220E+03 -2.46876E+03  4.85507E+03  1.27963E+03
  2.78232E+03  2.06765E+03  1.12966E+03  1.98766E+03 -7.94128E+02  1.76440E+03  1.82251E+03 -6.58497E+02
  1.86026E+03 -6.91093E+02  4.77552E+03  2.00401E+03  2.96792E+03  6.54625E+03 -9.24367E+02  8.37449E+03
 -5.86221E+03  5.63396E+03 -7.46184E+03  1.35574E+03 -7.11117E+03 -2.77686E+03 -2.44104E+03 -4.63651E+03
  7.36161E+02 -4.52335E+03  3.25957E+03 -2.38722E+03  2.82693E+03  2.47937E+03 -1.08643E+03  3.97123E+03
 -5.03042E+03  2.20237E+03 -5.64909E+03 -3.20395E+03 -3.28378E+03 -6.01419E+03  1.00536E+03 -6.27473E+03
  3.53560E+03 -3.71537E+03  4.52294E+03 -4.29580E+02  3.99526E+03  1.29469E+03  2.29668E+02  3.53245E+03
 -2.19300E+03  9.27621E+02 -2.96814E+03 -2.38312E+03  1.25669E+03 -4.82865E+03  5.77850E+03 -4.03327E+03
  6.97764E+03  5.38391E+02  7.15758E+03  4.54558E+03  2.39624E+03  7.60505E+03 -2.61234E+03  7.18097E+03
 -6.20454E+03  3.09072E+03 -6.51665E+03 -1.00304E+03 -3.19598E+03 -5.03254E+03  1.00264E+03 -4.66012E+03
  4.57706E+03 -2.41880E+03  3.97464E+03  2.17873E+03  1.11611E+03  4.59026E+03 -3.30993E+02  3.52545E+03
 -1.51381E+03  2.74163E+03 -2.11176E+03  9.76748E+02 -7.14032E+02  7.78027E+02 -1.25629E+03  1.46765E+03
 -1.83093E+03  2.60213E+03 -4.95162E+03  2.41827E+03 -7.02829E+03  7.13099E+01 -8.26136E+03 -5.18434E+03
 -4.26133E+03 -9.63249E+03  1.73141E+03 -1.13390E+04  7.11249E+03 -9.02152E+03  1.08754E+04 -3.48613E+03
  1.04553E+04  1.91228E+03  6.20700E+03  6.80560E+03  6.31799E+02  7.52625E+03 -3.34310E+03  5.98713E+03
 -4.48287E+03  2.08083E+03 -2.81097E+03 -7.54790E+02 -8.21953E+02 -7.15573E+02 -6.25891E+02  3.90537E+02
 -1.65029E+03  1.15980E+02 -1.27447E+03 -1.94716E+02 -4.33016E+02 -1.96106E+03 -3.49799E+02 -3.06293E+03
  3.52775E+03 -2.74134E+03  4.45164E+03  2.13151E+02  5.43591E+03  3.89765E+03  1.34795E+03  7.41048E+03
 -3.93276E+03  8.64580E+03 -8.06165E+03  4.97932E+03 -9.02944E+03 -7.34557E+02 -6.76182E+03 -5.63783E+03
 -2.99860E+03 -7.41871E+03  1.94288E+03 -6.76416E+03  4.27146E+03 -3.91092E+03  4.70787E+03  3.22595E+02
  2.81840E+03  2.64904E+03 -5.17682E+02  1.98903E+03 -1.54145E+03  8.45354E+01 -1.66914E+02 -1.64988E+03
  2.23172E+03 -8.79317E+02  2.65084E+03  1.13801E+03  1.91811E+03  3.11285E+03  7.57472E+02  3.71260E+03
 -3.06283E+03  3.16917E+03 -4.51911E+03  6.24477E+02 -4.11762E+03 -3.81466E+03 -7.02358E+02 -6.26827E+03
  3.28405E+03 -4.80667E+03  5.45369E+03 -1.25203E+03  5.49504E+03  1.24925E+03  3.25643E+03  4.59510E+03
  6.84887E+02  4.56178E+03 -1.88455E+03  4.02566E+03 -2.92573E+03  2.17961E+03 -2.36718E+03  4.34118E+02
 -1.59173E+03 -7.24804E+01 -1.52641E+03  5.28777E+02 -2.69849E+03  6.73388E+02 -3.62557E+03 -5.84061E+02
 -4.05806E+03 -2.29040E+03 -1.33370E+03 -4.96678E+03  2.55636E+03 -5.76511E+03  4.28282E+03 -2.08684E+03
  5.03131E+03  1.86594E+02  2.68047E+03  3.21392E+03 -4.57723E+01  5.00094E+03 -3.45122E+03  3.23773E+03
