 $NMID ID='MM_0lb_SNR800_14hz_g60_87.RAW', FMTDAT='(8E13.5)'
 TRAMP=1., VOLUME=1. $END
  3.09922E+05  3.61458E+02  3.38143E+05  2.50653E+05  8.48558E+04  3.38186E+05 -1.32521E+05  2.51411E+05
 -1.90612E+05  8.35905E+04 -1.11945E+05 -3.24999E+04  8.15344E+02 -5.03046E+04  5.39487E+04 -4.40822E+02
  3.53444E+04  5.30379E+04 -1.66402E+04  7.57230E+04 -6.07775E+04  6.40422E+04 -8.47451E+04  3.22740E+04
 -8.17654E+04 -1.14676E+04 -5.74323E+04 -5.16854E+04 -1.50358E+04 -7.05534E+04  2.80407E+04 -4.62658E+04
  4.07007E+04  4.18023E+03  1.64017E+04  4.81957E+04 -3.44781E+04  4.76874E+04 -6.73180E+04  3.14091E+02
 -5.40496E+04 -5.72656E+04 -7.15359E+03 -7.74480E+04  3.43065E+04 -5.58500E+04  4.85129E+04 -1.76668E+04
  4.41878E+04  1.15637E+04  3.20955E+04  2.60549E+04  1.59997E+04  2.99014E+04 -5.07291E+03  2.77076E+04
 -2.22879E+04  1.24480E+04 -1.80118E+04 -5.43681E+03  6.06044E+03 -7.49436E+03  2.26266E+04  1.28117E+04
  7.23502E+03  3.63307E+04 -3.26862E+04  3.61523E+04 -6.40504E+04  2.16951E+03 -5.78898E+04 -4.32253E+04
 -1.25192E+04 -6.36904E+04  4.02825E+04 -4.60566E+04  5.93761E+04 -2.44307E+03  3.52649E+04  3.32478E+04
 -5.90455E+03  3.75026E+04 -3.06756E+04  1.69078E+04 -3.12732E+04 -4.29561E+03 -1.74663E+04 -1.12727E+04
 -8.69025E+03 -1.38784E+04 -6.26523E+02 -1.83874E+04  7.87397E+03 -2.28383E+04  1.54206E+04 -1.29745E+04
  1.11137E+04  5.33339E+03 -8.87847E+03  1.26338E+04 -2.22434E+04 -5.27019E+03 -8.09600E+03 -3.50390E+04
  2.35920E+04 -4.47021E+04  4.96382E+04 -1.98495E+04  4.66863E+04  1.98587E+04  1.65320E+04  4.55053E+04
 -1.64779E+04  3.41416E+04 -2.61020E+04  1.95862E+03 -1.04917E+04 -2.88249E+04  2.13268E+04 -3.47939E+04
  4.23698E+04 -9.47235E+03  3.75441E+04  2.43018E+04  1.91704E+04  4.80909E+04 -8.20440E+03  5.21191E+04
 -3.31538E+04  3.53508E+04 -4.39945E+04  9.73442E+03 -4.44048E+04 -1.72124E+04 -2.43998E+04 -3.91725E+04
  7.63278E+03 -3.91715E+04  3.24905E+04 -1.56249E+04  3.01059E+04  1.11182E+04  4.33384E+03  1.95509E+04
 -1.35501E+04  8.39814E+03 -1.09667E+04 -7.53860E+03  5.79691E+03 -1.09302E+04  1.84237E+04  6.12658E+03
  1.38807E+04  2.23002E+04 -6.13288E+03  2.57410E+04 -2.26787E+04  1.23818E+04 -2.89628E+04 -3.96032E+03
 -2.19203E+04 -1.75253E+04 -9.47648E+03 -2.19343E+04  3.97263E+03 -2.16940E+04  1.69686E+04 -1.94396E+04
  2.76278E+04 -1.31656E+04  3.42422E+04  3.22686E+03  2.50228E+04  2.08860E+04  4.46149E+03  3.78339E+04
 -1.81261E+04  3.16632E+04 -2.85686E+04  1.10383E+04 -2.11054E+04 -1.00433E+04 -4.75209E+03 -1.31347E+04
  1.30874E+03 -2.47090E+03 -5.99233E+03  7.06383E+03 -1.73248E+04  5.18213E+03 -1.74959E+04 -7.71302E+03
 -1.04176E+04 -2.05059E+04  5.36040E+03 -2.42737E+04  1.65768E+04 -1.75927E+04  1.94428E+04 -1.85824E+03
  1.20539E+04  1.38855E+04 -1.46015E+03  1.99942E+04 -1.41087E+04  1.13472E+04 -2.01787E+04 -4.45844E+03
 -1.49954E+04 -1.77986E+04 -2.32115E+03 -2.43830E+04  1.06659E+04 -1.98636E+04  1.99355E+04 -9.88195E+03
  1.91380E+04 -2.46724E+00  1.35718E+04  4.75155E+03  7.23092E+03  6.74454E+02  1.04468E+04 -2.05839E+03
  1.84877E+04  2.65082E+03  2.09776E+04  1.60118E+04  1.38051E+04  3.19529E+04 -3.11496E+03  3.64625E+04
 -2.13594E+04  3.01111E+04 -3.40516E+04  1.51483E+04 -3.63211E+04 -2.41748E+03 -2.97478E+04 -2.12076E+04
 -1.24744E+04 -2.97025E+04  1.04240E+04 -2.65352E+04  2.29449E+04 -1.34051E+04  2.06952E+04  6.17200E+03
  7.64561E+03  1.53527E+04 -9.80926E+03  1.32091E+04 -1.74720E+04  2.71459E+03 -1.31766E+04 -1.07482E+04
  1.00950E+02 -1.61975E+04  8.32054E+03 -1.24496E+04  1.09959E+04 -1.58035E+03  2.72895E+03  7.08340E+03
 -7.40118E+03  2.88282E+03 -6.66375E+03 -5.69031E+03 -7.85565E+02 -1.45074E+04  1.00668E+04 -1.54271E+04
  1.78635E+04 -8.26867E+03  1.95074E+04  3.09356E+03  1.73652E+04  1.46135E+04  8.01071E+03  2.22037E+04
 -3.95049E+03  2.41240E+04 -1.53655E+04  1.49237E+04 -1.75219E+04  3.69101E+03 -1.21466E+04 -3.95176E+03
 -5.64917E+03 -5.53754E+03 -8.42360E+02  8.69463E+02 -2.76784E+03  2.89090E+03 -5.65070E+03  4.74590E+03
 -1.14793E+04 -6.74173E+02 -1.18711E+04 -1.00501E+04 -4.90948E+03 -1.59519E+04  4.98913E+03 -1.22403E+04
  9.88536E+03 -5.28546E+03  7.14707E+03  3.11303E+03 -6.95643E+01  4.54000E+03 -5.84595E+03 -2.07738E+02
 -5.39024E+03 -7.51503E+03 -6.21664E+02 -1.15702E+04  6.84963E+03 -1.21596E+04  1.48997E+04 -6.59272E+03
  1.79034E+04  1.82037E+03  1.34936E+04  1.03562E+04  2.77620E+03  1.40465E+04 -7.60080E+03  1.17718E+04
 -9.88392E+03  3.77875E+03 -5.07685E+03 -2.48213E+03  1.74203E+03 -3.43924E+03  6.49314E+03 -1.12926E+03
  5.60407E+03  5.55441E+03  1.12127E+03  9.32493E+03 -7.07054E+03  9.32371E+03 -1.16951E+04  2.33203E+03
 -7.85940E+03 -5.96108E+03  1.91518E+02 -9.94065E+03  6.06938E+03 -4.93583E+03  6.64148E+03  2.35265E+03
  1.42965E+03  6.82522E+03 -5.88575E+03  7.86904E+03 -9.25296E+03  3.56604E+03 -9.19639E+03 -3.21347E+03
 -5.43335E+03 -1.05498E+04  2.62800E+03 -1.22243E+04  1.04512E+04 -7.53360E+03  1.15916E+04  1.86570E+03
  7.33231E+03  9.34112E+03 -6.84307E+02  1.13418E+04 -8.18678E+03  6.38491E+03 -8.77530E+03 -1.01907E+03
 -8.01158E+03 -7.91480E+03 -1.66943E+03 -8.43721E+03  4.46066E+03 -7.14731E+03  5.32367E+03 -3.22084E+03
  3.80655E+03  7.93918E+02 -3.66696E+02  1.76964E+03  1.44499E+01 -1.63063E+03  1.12822E+03 -4.35914E+03
  7.04163E+03 -2.73887E+03  1.02197E+04  9.41118E+02  1.04972E+04  6.49493E+03  7.49650E+03  1.35721E+04
 -2.94423E+03  1.56132E+04 -1.32415E+04  1.18463E+04 -1.75042E+04  2.02195E+03 -1.35970E+04 -5.40704E+03
 -7.01575E+03 -1.11211E+04 -4.96871E+02 -9.62543E+03  3.43534E+03 -4.98782E+03  3.20745E+03 -3.42132E+03
  2.51085E+03 -2.31094E+03  2.91365E+03 -2.89669E+03  4.50360E+03 -2.15484E+03  5.58719E+03 -5.40886E+02
  7.24634E+03  1.75816E+03  3.20633E+03  5.89244E+03 -1.47830E+03  6.31328E+03 -7.14462E+03  5.39085E+03
 -9.33723E+03 -1.19141E+03 -5.22884E+03 -6.29426E+03 -2.65146E+02 -9.48367E+03  5.73216E+03 -9.84628E+03
  9.86590E+03 -5.59638E+03  1.21607E+04  1.45341E+03  8.55327E+03  8.32287E+03  1.35529E+03  1.11386E+04
 -4.62713E+03  9.61674E+03 -6.62547E+03  3.24665E+03 -4.09074E+03 -1.44192E+03 -1.39990E+03 -1.37592E+03
 -1.09848E+03  1.05702E+02 -1.45156E+03  2.62689E+03 -4.00799E+03  1.77181E+03 -6.77601E+03 -9.51649E+02
 -3.86046E+03 -6.66430E+03  3.55697E+02 -9.15813E+03  5.67147E+03 -8.37380E+03  8.35383E+03 -2.46108E+03
  8.49393E+03  4.37291E+03  3.74942E+03  7.54273E+03 -1.57522E+03  8.82800E+03 -5.98675E+03  5.51781E+03
 -8.15313E+03  4.13542E+02 -6.34104E+03 -5.47773E+03 -8.23560E+02 -6.97148E+03  3.14777E+03 -5.37492E+03
  5.31788E+03 -2.14540E+03  3.58768E+03  9.22113E+02  1.23058E+03  2.87395E+03  8.67706E+02  1.18513E+03
  1.96435E+03  5.30940E+02  1.86224E+03  1.29901E+03  2.38843E+03  2.92901E+03  2.43697E+03  4.22876E+03
 -1.95802E+03  6.50145E+03 -5.02096E+03  7.16159E+03 -7.74998E+03  1.94798E+03 -8.67643E+03 -3.03619E+03
 -4.12005E+03 -8.23216E+03  1.54140E+03 -8.95935E+03  4.89040E+03 -5.81973E+03  6.51751E+03 -1.79679E+03
  4.98031E+03  3.39862E+03  1.23183E+03  4.95422E+03 -1.79610E+03  3.01148E+03 -2.97361E+03 -4.16837E+02
 -1.52820E+03 -3.29604E+03  2.22626E+03 -3.29407E+03  3.22510E+03 -1.62721E+03  3.04901E+03  5.38174E+02
  1.93118E+03  1.48647E+03  9.52927E+02  1.10567E+03 -5.65589E+02  1.20332E+03  1.77919E+03 -5.97554E+02
  9.36564E+02 -5.19256E+02  3.23081E+03  1.14282E+03  1.49033E+03  4.02722E+03 -8.39316E+02  5.59820E+03
 -3.49161E+03  3.17673E+03 -4.63813E+03  7.67058E+02 -4.60331E+03 -1.65439E+03 -1.39191E+03 -2.67743E+03
  8.12600E+02 -3.02332E+03  2.01581E+03 -1.43570E+03  1.63719E+03  1.73603E+03 -8.35451E+02  2.63244E+03
 -3.16770E+03  1.54055E+03 -3.09009E+03 -2.09414E+03 -1.67948E+03 -4.09979E+03  5.22342E+02 -3.66118E+03
  2.32239E+03 -2.32450E+03  2.65717E+03 -1.18848E+02  2.62111E+03  6.59969E+02  7.18024E+02  2.35864E+03
 -1.26531E+03  3.69432E+02 -1.87061E+03 -1.34327E+03  9.36115E+02 -2.61675E+03  3.75687E+03 -2.09251E+03
  4.06547E+03  6.48710E+02  4.94395E+03  2.73175E+03  1.87437E+03  4.61536E+03 -1.00071E+03  3.93764E+03
 -3.97622E+03  1.37362E+03 -3.99584E+03 -8.23734E+02 -2.09523E+03 -3.19801E+03  4.92173E+02 -2.50890E+03
  3.15891E+03 -1.41452E+03  2.08945E+03  1.41437E+03  8.34676E+02  2.88138E+03 -3.71044E+02  2.37893E+03
 -6.54679E+02  1.50391E+03 -1.10383E+03  3.58926E+02 -5.45280E+02  5.27093E+02 -8.22228E+02  7.72430E+02
 -1.31680E+03  1.89984E+03 -3.48314E+03  1.35347E+03 -4.31930E+03  4.57287E+02 -5.19928E+03 -2.65869E+03
 -2.70463E+03 -6.00505E+03  1.12758E+03 -6.81112E+03  3.51849E+03 -5.45739E+03  6.32688E+03 -2.48508E+03
  5.91080E+03  1.03752E+03  3.38303E+03  4.03254E+03 -4.28639E+02  4.16742E+03 -1.75224E+03  3.27715E+03
 -2.59017E+03  1.52174E+03 -1.43351E+03 -6.64108E+02 -4.53680E+02  1.29980E+02 -7.41905E+02  8.32239E+01
 -1.35247E+03  9.56001E+01 -1.36250E+03  8.22698E+00 -1.57830E+01 -1.38018E+03 -2.90604E+02 -1.67181E+03
  2.31974E+03 -1.52115E+03  2.23881E+03  4.39155E+01  3.12021E+03  2.75060E+03  4.53264E+02  3.88693E+03
 -2.43666E+03  5.16510E+03 -4.53150E+03  2.71353E+03 -4.82499E+03 -6.66608E+02 -3.42023E+03 -3.11358E+03
 -1.84443E+03 -3.82370E+03  1.04187E+03 -3.58707E+03  2.74545E+03 -1.82451E+03  2.48431E+03  2.10856E+01
  1.48951E+03  1.47379E+03  8.12154E+01  1.22534E+03 -8.93336E+02  2.83877E+02  5.25256E+01 -7.71671E+02
  1.18882E+03 -1.21154E+02  1.34468E+03  9.56142E+02  1.00115E+03  1.45163E+03  2.60195E+02  1.80442E+03
 -1.73898E+03  1.95667E+03 -2.19139E+03 -1.88069E+01 -2.05969E+03 -1.68058E+03 -3.26362E+02 -3.45410E+03
  1.54969E+03 -2.49807E+03  2.36927E+03 -8.17758E+02  2.78173E+03 -3.23710E+02  1.50462E+03  2.52731E+03
  7.41829E+02  2.11815E+03 -9.66505E+02  2.04440E+03 -1.55653E+03  1.26988E+03 -1.04772E+03  1.98046E+02
 -5.99106E+02  7.28411E+00 -6.64393E+02  1.49876E+02 -1.44683E+03  7.03961E+02 -1.65096E+03 -6.56567E+02
 -2.07044E+03 -8.76197E+02 -8.00881E+02 -2.41664E+03  1.27110E+03 -2.93968E+03  2.42302E+03 -1.08760E+03
  2.11791E+03  4.98850E+02  7.18708E+02  1.29613E+03 -3.80325E+02  2.56257E+03 -1.42434E+03  1.55571E+03
