 $NMID ID='MM_0lb_SNR800_13hz_g55_7.RAW', FMTDAT='(8E13.5)'
 TRAMP=1., VOLUME=1. $END
  3.09830E+05  4.15237E+02  3.37758E+05  2.50435E+05  8.47464E+04  3.38083E+05 -1.32550E+05  2.51474E+05
 -1.90657E+05  8.33956E+04 -1.12052E+05 -3.23185E+04  7.95068E+02 -5.05544E+04  5.38001E+04 -5.66180E+02
  3.53313E+04  5.27836E+04 -1.66545E+04  7.57338E+04 -6.08395E+04  6.39019E+04 -8.45657E+04  3.20708E+04
 -8.16264E+04 -1.15284E+04 -5.74381E+04 -5.18309E+04 -1.51922E+04 -7.01279E+04  2.81058E+04 -4.60521E+04
  4.04834E+04  3.89619E+03  1.63121E+04  4.78709E+04 -3.45758E+04  4.76401E+04 -6.73373E+04  9.80952E+00
 -5.41622E+04 -5.71529E+04 -6.96676E+03 -7.78644E+04  3.39818E+04 -5.56387E+04  4.84547E+04 -1.74490E+04
  4.43661E+04  1.12683E+04  3.21380E+04  2.59385E+04  1.55181E+04  2.97175E+04 -5.69007E+03  2.75883E+04
 -2.26388E+04  1.24207E+04 -1.83150E+04 -5.41256E+03  6.19399E+03 -7.64401E+03  2.27483E+04  1.28020E+04
  7.09643E+03  3.62297E+04 -3.30529E+04  3.63070E+04 -6.43396E+04  2.02740E+03 -5.78215E+04 -4.33669E+04
 -1.28564E+04 -6.43209E+04  4.04939E+04 -4.63247E+04  5.93715E+04 -2.55002E+03  3.54629E+04  3.30974E+04
 -6.00315E+03  3.73111E+04 -3.08964E+04  1.67874E+04 -3.10784E+04 -4.20715E+03 -1.76082E+04 -1.13106E+04
 -8.73865E+03 -1.40403E+04 -6.87106E+02 -1.85699E+04  7.93612E+03 -2.33053E+04  1.54251E+04 -1.33054E+04
  1.10715E+04  6.02380E+03 -9.01373E+03  1.29562E+04 -2.19356E+04 -4.97587E+03 -8.22305E+03 -3.52720E+04
  2.38756E+04 -4.47777E+04  4.93542E+04 -2.05803E+04  4.62139E+04  1.99999E+04  1.60566E+04  4.54590E+04
 -1.64502E+04  3.46674E+04 -2.62407E+04  2.51296E+03 -1.04171E+04 -2.86844E+04  2.11997E+04 -3.51395E+04
  4.21950E+04 -9.96885E+03  3.73554E+04  2.44703E+04  1.92299E+04  4.80196E+04 -8.21951E+03  5.19773E+04
 -3.29345E+04  3.54399E+04 -4.40316E+04  1.02632E+04 -4.41826E+04 -1.70458E+04 -2.43558E+04 -3.94919E+04
  7.28680E+03 -3.92103E+04  3.26935E+04 -1.56557E+04  3.03369E+04  1.07312E+04  4.44435E+03  1.97198E+04
 -1.37660E+04  8.56547E+03 -1.05926E+04 -7.57822E+03  5.87066E+03 -1.09818E+04  1.81921E+04  5.76029E+03
  1.41191E+04  2.24639E+04 -6.01458E+03  2.56965E+04 -2.26563E+04  1.23803E+04 -2.91483E+04 -3.87932E+03
 -2.22076E+04 -1.77352E+04 -9.55180E+03 -2.18444E+04  4.03121E+03 -2.15144E+04  1.72995E+04 -1.98573E+04
  2.82017E+04 -1.30979E+04  3.43061E+04  3.71376E+03  2.49897E+04  2.11882E+04  4.35260E+03  3.81305E+04
 -1.81127E+04  3.13418E+04 -2.90051E+04  1.06458E+04 -2.14609E+04 -1.03497E+04 -4.76208E+03 -1.33746E+04
  1.60614E+03 -2.38292E+03 -5.69880E+03  6.86847E+03 -1.76964E+04  5.11339E+03 -1.79841E+04 -8.00400E+03
 -1.04726E+04 -2.05118E+04  5.56871E+03 -2.48556E+04  1.65549E+04 -1.76290E+04  1.94218E+04 -1.47005E+03
  1.25723E+04  1.40711E+04 -1.11012E+03  2.02404E+04 -1.41391E+04  1.16738E+04 -2.02234E+04 -4.09465E+03
 -1.53721E+04 -1.87520E+04 -2.01176E+03 -2.46551E+04  1.09661E+04 -2.06223E+04  2.05699E+04 -9.85517E+03
  1.91471E+04 -8.54986E+01  1.38312E+04  4.39821E+03  7.46942E+03  1.02144E+03  1.06836E+04 -1.87343E+03
  1.91689E+04  2.76259E+03  2.09052E+04  1.62123E+04  1.40122E+04  3.25539E+04 -2.73322E+03  3.75495E+04
 -2.17337E+04  3.04084E+04 -3.48410E+04  1.50112E+04 -3.66885E+04 -2.96532E+03 -3.03328E+04 -2.13970E+04
 -1.25854E+04 -3.04890E+04  1.04874E+04 -2.70865E+04  2.35283E+04 -1.39925E+04  2.09457E+04  6.10636E+03
  6.96177E+03  1.54933E+04 -9.72538E+03  1.36648E+04 -1.76985E+04  2.66166E+03 -1.31631E+04 -1.10687E+04
 -3.51361E+02 -1.68028E+04  8.42462E+03 -1.20786E+04  1.10388E+04 -1.54458E+03  2.91998E+03  7.19141E+03
 -7.13842E+03  2.91142E+03 -7.36515E+03 -5.67820E+03 -6.74389E+02 -1.49593E+04  1.05216E+04 -1.58563E+04
  1.87148E+04 -8.60664E+03  2.04565E+04  3.04032E+03  1.77611E+04  1.51287E+04  8.51831E+03  2.30264E+04
 -3.99674E+03  2.48915E+04 -1.60099E+04  1.51897E+04 -1.80364E+04  3.45994E+03 -1.25083E+04 -4.24482E+03
 -5.94792E+03 -5.58215E+03 -5.86269E+02  5.41888E+02 -2.39559E+03  2.87709E+03 -5.57758E+03  4.63947E+03
 -1.17330E+04 -8.06134E+02 -1.22657E+04 -9.94952E+03 -4.84621E+03 -1.62987E+04  4.87655E+03 -1.28861E+04
  1.08837E+04 -5.30349E+03  7.38059E+03  3.51843E+03 -1.26854E+01  4.47791E+03 -6.16495E+03 -3.58873E+02
 -5.73314E+03 -7.71794E+03 -1.38110E+03 -1.16600E+04  6.88854E+03 -1.25364E+04  1.55267E+04 -6.65705E+03
  1.82442E+04  1.86504E+03  1.34081E+04  1.06090E+04  2.82259E+03  1.45761E+04 -7.78563E+03  1.19492E+04
 -1.02070E+04  3.95972E+03 -5.42708E+03 -2.52337E+03  1.92508E+03 -3.19736E+03  6.46273E+03 -7.29861E+02
  6.18560E+03  5.26019E+03  8.59386E+02  9.77865E+03 -7.03942E+03  9.69607E+03 -1.25091E+04  2.37598E+03
 -8.21602E+03 -6.43898E+03  1.67470E+02 -1.06346E+04  6.34949E+03 -5.47553E+03  6.60175E+03  2.14468E+03
  1.80397E+03  6.94645E+03 -6.57551E+03  8.72176E+03 -9.68300E+03  3.95944E+03 -9.91761E+03 -3.34753E+03
 -5.59985E+03 -1.14869E+04  2.47764E+03 -1.33921E+04  1.08318E+04 -7.78231E+03  1.23503E+04  2.35743E+03
  7.60217E+03  9.71393E+03 -8.25370E+02  1.19098E+04 -8.36767E+03  6.36152E+03 -9.30621E+03 -1.24678E+03
 -8.23074E+03 -7.83352E+03 -1.73069E+03 -8.64614E+03  4.75741E+03 -7.59875E+03  5.62461E+03 -3.28856E+03
  4.10321E+03  9.89658E+02 -4.51281E+02  1.56358E+03  2.09398E+02 -1.73945E+03  1.43397E+03 -4.90037E+03
  8.06387E+03 -2.97247E+03  1.07821E+04  9.36467E+02  1.11131E+04  7.50667E+03  7.98621E+03  1.44135E+04
 -3.34207E+03  1.65022E+04 -1.39873E+04  1.25985E+04 -1.83199E+04  2.45740E+03 -1.46126E+04 -6.39361E+03
 -7.25284E+03 -1.19143E+04 -2.94740E+02 -1.03518E+04  3.73118E+03 -5.61579E+03  3.70656E+03 -3.69744E+03
  2.62094E+03 -2.30874E+03  3.15066E+03 -3.18351E+03  4.58744E+03 -2.70725E+03  6.17546E+03 -7.29220E+02
  7.49625E+03  2.03507E+03  3.65606E+03  6.53428E+03 -1.82619E+03  7.25344E+03 -7.84296E+03  5.39640E+03
 -1.00079E+04 -1.15109E+03 -5.48302E+03 -6.73828E+03 -6.98189E+02 -1.03673E+04  5.95627E+03 -1.04624E+04
  1.10585E+04 -6.19251E+03  1.32459E+04  1.51499E+03  9.19290E+03  8.69503E+03  1.56030E+03  1.20467E+04
 -4.84354E+03  1.03027E+04 -7.01842E+03  3.59317E+03 -4.70693E+03 -1.40717E+03 -1.59322E+03 -1.90598E+03
 -9.66207E+02  1.05927E+02 -1.71336E+03  2.27968E+03 -4.34795E+03  1.86692E+03 -6.98149E+03 -9.13768E+02
 -4.48572E+03 -6.82867E+03  4.82467E+02 -9.78578E+03  5.76266E+03 -9.19931E+03  9.06699E+03 -2.70765E+03
  9.03587E+03  4.76757E+03  4.19711E+03  8.13663E+03 -1.74419E+03  9.64637E+03 -6.48961E+03  5.83792E+03
 -8.64348E+03  6.67598E+02 -7.04762E+03 -5.37088E+03 -7.63543E+02 -7.52097E+03  3.62612E+03 -5.60851E+03
  5.76987E+03 -1.99586E+03  4.15349E+03  1.23834E+03  1.24036E+03  2.76747E+03  1.37626E+03  1.38236E+03
  1.94987E+03  6.27876E+02  2.30225E+03  1.53230E+03  2.71884E+03  3.55797E+03  2.38963E+03  4.78336E+03
 -1.90151E+03  6.98979E+03 -6.38937E+03  7.75972E+03 -8.93694E+03  2.01932E+03 -9.68125E+03 -3.57771E+03
 -4.68849E+03 -9.11905E+03  1.72392E+03 -1.02244E+04  5.47196E+03 -6.48582E+03  7.37725E+03 -2.02278E+03
  5.91488E+03  3.41481E+03  1.35121E+03  5.11970E+03 -2.26094E+03  3.32233E+03 -3.26167E+03 -6.84791E+02
 -2.05144E+03 -3.96639E+03  2.28724E+03 -4.00003E+03  3.70133E+03 -2.10935E+03  3.47524E+03  7.86725E+02
  1.94258E+03  1.60245E+03  1.04414E+03  1.18461E+03 -6.33158E+02  1.39469E+03  1.35848E+03 -2.80179E+02
  1.24781E+03 -2.23091E+02  3.64577E+03  1.59608E+03  1.90914E+03  5.24545E+03 -6.27128E+02  6.48703E+03
 -4.30985E+03  3.68193E+03 -5.67616E+03  9.04702E+02 -5.14232E+03 -2.04946E+03 -2.06594E+03 -3.16937E+03
  9.04124E+02 -3.43644E+03  2.31670E+03 -1.63377E+03  2.01727E+03  1.96883E+03 -6.90817E+02  2.78889E+03
 -3.68860E+03  2.06130E+03 -3.56404E+03 -2.37522E+03 -2.32500E+03 -4.87087E+03  7.54197E+02 -4.57272E+03
  2.30889E+03 -2.40470E+03  2.93210E+03  8.37101E+01  3.03787E+03  1.06577E+03  1.67433E+02  2.33710E+03
 -1.62217E+03  4.30637E+02 -2.02245E+03 -1.62544E+03  1.33265E+03 -3.13705E+03  4.39519E+03 -2.77590E+03
  4.74154E+03  4.29557E+02  5.65971E+03  2.90102E+03  1.92841E+03  5.33056E+03 -1.72751E+03  5.35098E+03
 -4.30992E+03  1.74948E+03 -4.73669E+03 -7.13837E+02 -2.68406E+03 -3.36982E+03  7.74163E+02 -3.00299E+03
  3.40420E+03 -1.68151E+03  2.43081E+03  1.38915E+03  8.92692E+02  2.98902E+03 -3.05263E+02  2.45188E+03
 -1.37366E+03  1.96562E+03 -1.45328E+03  1.03732E+03 -5.88701E+02  3.73416E+02 -1.17303E+03  1.21948E+03
 -1.17585E+03  2.31744E+03 -3.90261E+03  1.75082E+03 -5.21413E+03  1.76083E+02 -6.14406E+03 -3.39954E+03
 -3.12049E+03 -7.03087E+03  1.39083E+03 -8.01217E+03  4.44037E+03 -6.30851E+03  7.63120E+03 -2.57963E+03
  6.60555E+03  1.16575E+03  4.25315E+03  4.65566E+03  9.65138E+01  5.51621E+03 -1.94354E+03  3.85391E+03
 -3.00263E+03  1.67519E+03 -1.87637E+03 -4.52060E+02 -8.46167E+02 -1.32093E+02 -7.56974E+02 -1.59247E+02
 -1.11937E+03  3.09143E+02 -1.43783E+03 -1.27235E+02 -3.09225E+02 -1.48664E+03 -6.67363E+01 -1.82771E+03
  2.66153E+03 -1.66568E+03  2.56194E+03 -3.84330E+01  3.61174E+03  2.83719E+03  4.72143E+02  5.05757E+03
 -2.62306E+03  5.83611E+03 -5.11153E+03  3.59983E+03 -5.75840E+03 -5.72100E+02 -4.68808E+03 -3.79367E+03
 -1.96213E+03 -5.10517E+03  1.22618E+03 -4.65804E+03  3.02063E+03 -2.47582E+03  3.11692E+03  1.91437E+02
  1.93825E+03  1.52816E+03 -3.48664E+02  1.37179E+03 -1.06594E+03 -1.98455E+02 -1.47066E+02 -1.12092E+03
  1.51490E+03 -2.96656E+02  1.55359E+03  1.05310E+03  1.37027E+03  2.05849E+03 -3.52753E+01  2.35216E+03
 -1.88346E+03  1.77010E+03 -2.92373E+03  2.72443E+02 -2.95107E+03 -2.01987E+03 -2.64487E+02 -4.03352E+03
  2.09554E+03 -3.26907E+03  3.57646E+03 -9.12942E+02  3.68426E+03  2.30446E+02  1.74397E+03  2.84776E+03
  6.34015E+02  3.17571E+03 -1.11633E+03  2.39907E+03 -1.92211E+03  1.34680E+03 -1.03022E+03  3.36833E+02
 -9.97750E+02  4.15117E+01 -9.11924E+02  1.38529E+02 -1.72591E+03  3.98087E+02 -2.43664E+03 -3.73798E+02
 -2.36992E+03 -1.38261E+03 -8.60372E+02 -3.08516E+03  1.50050E+03 -3.70035E+03  2.65240E+03 -1.39603E+03
  3.37050E+03  7.50894E+02  1.24483E+03  1.50772E+03 -6.95327E+02  3.08187E+03 -1.97684E+03  2.15326E+03
