 $NMID ID='MM_0lb_SNR800_17hz_g45_41.RAW', FMTDAT='(8E13.5)'
 TRAMP=1., VOLUME=1. $END
  3.09832E+05  2.93289E+02  3.37425E+05  2.50550E+05  8.43470E+04  3.37525E+05 -1.32967E+05  2.50263E+05
 -1.89929E+05  8.25916E+04 -1.11018E+05 -3.27691E+04  1.25265E+03 -5.02951E+04  5.37747E+04  1.23006E+02
  3.52925E+04  5.31013E+04 -1.68483E+04  7.51480E+04 -6.03718E+04  6.27342E+04 -8.30370E+04  3.16178E+04
 -7.98557E+04 -1.08865E+04 -5.66853E+04 -5.03889E+04 -1.49690E+04 -6.84413E+04  2.69335E+04 -4.53276E+04
  3.92749E+04  3.86959E+03  1.56757E+04  4.73350E+04 -3.37776E+04  4.63444E+04 -6.57018E+04 -6.00561E+02
 -5.21932E+04 -5.61822E+04 -6.12651E+03 -7.58071E+04  3.31592E+04 -5.37223E+04  4.67068E+04 -1.63650E+04
  4.19676E+04  1.11831E+04  3.12012E+04  2.45218E+04  1.57117E+04  2.83129E+04 -4.85184E+03  2.66955E+04
 -2.14784E+04  1.27738E+04 -1.90176E+04 -4.54155E+03  4.77863E+03 -7.51786E+03  2.15531E+04  1.12222E+04
  7.50218E+03  3.38829E+04 -3.09318E+04  3.41341E+04 -6.18215E+04  2.36436E+03 -5.57554E+04 -4.16415E+04
 -1.22149E+04 -6.11595E+04  3.85964E+04 -4.38690E+04  5.63225E+04 -1.93125E+03  3.22231E+04  3.09164E+04
 -6.30734E+03  3.37936E+04 -2.88942E+04  1.40406E+04 -2.82432E+04 -5.11225E+03 -1.49430E+04 -1.03348E+04
 -7.49464E+03 -1.18322E+04 -7.69801E+02 -1.68639E+04  6.83195E+03 -2.26976E+04  1.51628E+04 -1.35180E+04
  1.18502E+04  4.69337E+03 -6.94982E+03  1.30410E+04 -1.98364E+04 -3.13526E+03 -8.02677E+03 -3.12095E+04
  2.12329E+04 -4.13939E+04  4.53542E+04 -1.87068E+04  4.25552E+04  1.85783E+04  1.45658E+04  4.24019E+04
 -1.55782E+04  3.13602E+04 -2.40544E+04  1.22670E+03 -8.70090E+03 -2.67491E+04  2.07706E+04 -3.21961E+04
  3.85509E+04 -7.71427E+03  3.24784E+04  2.28467E+04  1.61038E+04  4.36197E+04 -7.99072E+03  4.63084E+04
 -2.94307E+04  3.09177E+04 -3.88302E+04  8.72202E+03 -3.94633E+04 -1.52831E+04 -2.17628E+04 -3.50633E+04
  6.62527E+03 -3.52079E+04  2.96318E+04 -1.31219E+04  2.75512E+04  1.10458E+04  3.38929E+03  1.81846E+04
 -1.32286E+04  7.32873E+03 -9.91261E+03 -7.85162E+03  6.09058E+03 -1.01961E+04  1.75704E+04  6.35969E+03
  1.27473E+04  2.19054E+04 -6.41602E+03  2.37894E+04 -2.19316E+04  9.80752E+03 -2.57442E+04 -5.43518E+03
 -1.76170E+04 -1.65218E+04 -6.17594E+03 -1.76480E+04  4.00869E+03 -1.59149E+04  1.34784E+04 -1.55351E+04
  2.25463E+04 -1.18135E+04  2.92119E+04  1.26903E+03  2.18021E+04  1.74123E+04  4.13590E+03  3.32637E+04
 -1.63827E+04  2.85307E+04 -2.65091E+04  1.00045E+04 -1.98817E+04 -1.05879E+04 -3.94290E+03 -1.37847E+04
  2.33827E+03 -4.17873E+03 -3.18048E+03  5.67250E+03 -1.41704E+04  5.51788E+03 -1.42651E+04 -5.91472E+03
 -9.01338E+03 -1.64983E+04  4.70402E+03 -2.06186E+04  1.34970E+04 -1.44249E+04  1.55071E+04 -1.41627E+03
  9.68743E+03  1.15601E+04 -1.04035E+03  1.65436E+04 -1.10166E+04  9.05069E+03 -1.64492E+04 -3.58063E+03
 -1.20128E+04 -1.49991E+04 -1.39824E+03 -1.97656E+04  9.01385E+03 -1.61587E+04  1.66689E+04 -7.84038E+03
  1.52981E+04  6.08900E+02  1.10203E+04  4.11982E+03  5.45898E+03  4.41201E+02  7.86201E+03 -1.44409E+03
  1.48649E+04  2.90972E+03  1.58489E+04  1.33171E+04  1.01028E+04  2.62908E+04 -3.38630E+03  2.83750E+04
 -1.68357E+04  2.19139E+04 -2.65170E+04  1.06908E+04 -2.70768E+04 -2.12275E+03 -2.30910E+04 -1.57471E+04
 -1.04080E+04 -2.22055E+04  7.51326E+03 -2.04630E+04  1.78253E+04 -1.12185E+04  1.68013E+04  4.23425E+03
  6.71968E+03  1.19244E+04 -7.54832E+03  1.11563E+04 -1.43146E+04  2.48493E+03 -1.07376E+04 -8.26953E+03
 -5.96470E+01 -1.32767E+04  6.45436E+03 -9.82711E+03  8.54460E+03 -1.43670E+03  1.90970E+03  5.49367E+03
 -5.95473E+03  1.66910E+03 -4.18368E+03 -4.75259E+03  1.64676E+02 -1.12237E+04  8.58572E+03 -1.11550E+04
  1.33064E+04 -5.53186E+03  1.35476E+04  3.00006E+03  1.17666E+04  1.03091E+04  5.74752E+03  1.55555E+04
 -2.22409E+03  1.75312E+04 -1.05896E+04  1.12239E+04 -1.23055E+04  3.15454E+03 -9.32408E+03 -2.21721E+03
 -4.67273E+03 -3.68743E+03 -7.09274E+02  1.47334E+03 -1.98252E+03  2.06691E+03 -4.05538E+03  3.83223E+03
 -8.63709E+03 -3.01496E+02 -9.26842E+03 -7.54610E+03 -3.77432E+03 -1.25487E+04  3.77727E+03 -9.35377E+03
  7.71380E+03 -4.05648E+03  5.33881E+03  2.44614E+03  6.68420E+02  3.29100E+03 -3.83067E+03  1.31234E+02
 -3.94487E+03 -5.78111E+03 -1.02213E+03 -8.24114E+03  4.45860E+03 -8.45091E+03  1.08442E+04 -4.14527E+03
  1.32500E+04  8.73334E+02  9.72071E+03  6.83011E+03  2.18364E+03  9.72585E+03 -5.63853E+03  9.01225E+03
 -7.70693E+03  3.24962E+03 -3.74521E+03 -1.57945E+03  1.48126E+03 -1.99336E+03  5.27517E+03 -8.86484E+02
  4.39011E+03  3.48859E+03  9.49129E+02  7.21641E+03 -4.92720E+03  6.93229E+03 -9.13731E+03  1.86280E+03
 -5.48714E+03 -4.11401E+03  4.41373E+02 -7.33871E+03  4.27022E+03 -3.46862E+03  4.12943E+03  1.11796E+03
  5.47449E+02  4.00687E+03 -4.59803E+03  5.38196E+03 -5.67321E+03  2.59354E+03 -5.54347E+03 -1.24640E+03
 -3.34918E+03 -7.06741E+03  1.55596E+03 -8.00531E+03  6.74092E+03 -5.36695E+03  7.48241E+03  1.11453E+03
  5.24884E+03  6.02500E+03 -1.22424E+02  8.21522E+03 -5.50444E+03  4.39256E+03 -5.77111E+03 -3.13982E+02
 -6.10377E+03 -5.50878E+03 -1.39318E+03 -5.78677E+03  2.84832E+03 -5.13131E+03  3.21293E+03 -2.92434E+03
  3.08101E+03  3.40160E+02  6.57913E+01  1.36198E+03  4.23333E+02 -4.31705E+02  5.33303E+02 -2.12038E+03
  4.31471E+03 -1.16113E+03  6.27131E+03  6.46900E+02  6.66516E+03  3.86689E+03  5.86808E+03  8.52633E+03
 -1.62390E+03  1.01959E+04 -8.53338E+03  7.69465E+03 -1.09324E+04  1.55715E+03 -9.15307E+03 -3.24606E+03
 -4.66441E+03 -7.62752E+03 -2.08365E+02 -6.16953E+03  2.38124E+03 -2.74003E+03  2.04945E+03 -2.66950E+03
  1.49780E+03 -1.86621E+03  2.27433E+03 -2.42339E+03  3.80697E+03 -1.62155E+03  4.09891E+03  5.57083E+02
  5.40326E+03  9.04222E+02  1.55629E+03  3.91672E+03 -1.48793E+03  3.78296E+03 -5.07409E+03  2.95330E+03
 -5.86052E+03 -1.08707E+03 -2.86354E+03 -3.80306E+03  3.18546E+02 -6.12316E+03  3.66636E+03 -6.43537E+03
  5.91313E+03 -3.76917E+03  7.78796E+03  3.97051E+02  5.96286E+03  5.18072E+03  1.44124E+03  6.77875E+03
 -2.48944E+03  6.34418E+03 -4.01640E+03  2.03023E+03 -2.10309E+03 -9.71030E+02 -8.37473E+02 -7.11405E+02
 -3.79838E+02  2.70440E+02 -1.15732E+03  2.06691E+03 -2.76610E+03  1.13874E+03 -4.44943E+03 -4.83693E+02
 -2.00764E+03 -4.40047E+03  7.94307E+02 -5.32097E+03  3.15324E+03 -5.09249E+03  4.32629E+03 -1.41793E+03
  5.02158E+03  3.07567E+03  2.06360E+03  4.02800E+03 -7.35398E+02  5.10755E+03 -3.24298E+03  3.22520E+03
 -4.35376E+03  4.36919E+02 -3.99528E+03 -2.73240E+03 -5.10704E+02 -3.69665E+03  2.05427E+03 -3.11444E+03
  3.45390E+03 -1.48747E+03  2.48153E+03  4.82975E+02  4.52003E+02  1.70952E+03  8.86883E+02  6.78170E+02
  1.74311E+03  6.43019E+02  1.07644E+03  1.21966E+03  1.36586E+03  2.41506E+03  1.64670E+03  2.09399E+03
 -1.39097E+03  3.60513E+03 -2.95150E+03  4.44647E+03 -4.17372E+03  1.49639E+03 -4.79183E+03 -9.18604E+02
 -1.91794E+03 -4.79135E+03  6.56810E+02 -5.57842E+03  2.31352E+03 -3.03262E+03  3.91484E+03 -1.10006E+03
  3.17551E+03  2.11561E+03  6.63941E+02  2.58768E+03 -1.01969E+03  1.59117E+03 -1.45759E+03 -1.93041E+02
 -6.46711E+02 -1.85597E+03  1.36458E+03 -2.21399E+03  1.76594E+03 -1.07858E+03  1.56907E+03  5.43259E+02
  1.10606E+03  5.58452E+02  5.18985E+02 -4.23543E+01 -4.23291E+02  8.99941E+02  1.72029E+03 -3.38710E+02
  8.18812E+01 -3.52038E+02  1.99502E+03  8.81364E+02  4.50113E+02  2.69277E+03 -3.03400E+02  3.39235E+03
 -2.13865E+03  1.71288E+03 -2.57598E+03  3.54424E+02 -2.89527E+03 -1.07935E+03 -5.56011E+02 -1.14828E+03
  5.68270E+02 -1.71345E+03  1.04133E+03 -6.47808E+02  7.97417E+02  1.31021E+03 -7.83020E+02  1.50390E+03
 -1.88707E+03  8.39971E+02 -1.79906E+03 -1.60222E+03 -9.80863E+02 -2.63479E+03  2.07236E+02 -2.08419E+03
  9.91893E+02 -9.68301E+02  1.31383E+03  2.59030E+02  1.61053E+03  1.96115E+02  6.18199E+02  9.46093E+02
 -4.96153E+02  1.26893E+02 -1.16925E+03 -4.41250E+02  6.68053E+02 -1.32576E+03  2.25968E+03 -1.44908E+03
  1.91572E+03  1.90005E+02  3.46490E+03  9.11049E+02  1.38797E+03  2.10499E+03 -4.13973E+02  2.29427E+03
 -1.74141E+03  7.50299E+02 -1.73683E+03 -3.00923E+02 -9.39129E+02 -1.87263E+03  6.62948E+02 -1.07868E+03
  1.98979E+03 -8.07878E+02  9.93727E+02  9.81197E+02  3.67504E+02  1.46600E+03  2.78598E+02  1.45690E+03
 -5.54111E+02  1.08625E+03 -5.69087E+02  1.28991E+02 -1.14400E+01  6.00360E+02 -1.03229E+03  8.74191E+02
 -7.01536E+02  9.30161E+02 -2.39482E+03  6.17992E+02 -2.33650E+03  2.81126E+02 -2.99220E+03 -1.36675E+03
 -1.68307E+03 -3.18505E+03  3.79396E+02 -3.49820E+03  1.82236E+03 -3.00914E+03  3.59486E+03 -1.19381E+03
  2.99076E+03  1.52190E+02  1.69086E+03  1.99710E+03 -4.24160E+02  1.90855E+03 -7.07658E+02  1.74421E+03
 -1.45830E+03  8.39262E+02 -9.18700E+02 -3.01277E+02 -6.40988E+02  3.24514E+02 -8.14149E+02 -9.20177E+01
 -1.30762E+03 -2.00544E+02 -7.87592E+02  3.40148E+02 -3.06154E+01 -8.61625E+02 -4.17946E+02 -9.43809E+02
  1.48544E+03 -6.81517E+02  5.11655E+02 -2.19654E+01  1.61787E+03  1.44433E+03 -3.69833E+02  1.76497E+03
 -1.28804E+03  2.81148E+03 -2.32531E+03  1.53190E+03 -2.42261E+03 -2.76095E+02 -1.92833E+03 -1.72029E+03
 -1.10602E+03 -2.04996E+03  5.61455E+02 -1.50630E+03  1.14266E+03 -7.41242E+02  1.04465E+03 -7.33928E+01
  1.05640E+03  5.75864E+02 -5.20814E+01  5.89971E+02 -5.01260E+02  5.36827E+01  7.90211E+01 -3.35914E+02
  7.01187E+02 -6.78668E-01  4.63611E+02  3.29573E+02  1.65975E+02  7.71461E+02  4.06685E+02  6.71344E+02
 -6.66825E+02  6.74250E+02 -9.68214E+02  9.43312E+01 -1.01544E+03 -6.78474E+02 -2.06581E+02 -1.45923E+03
  7.00100E+02 -1.31726E+03  1.12478E+03 -2.55613E+02  1.29822E+03 -4.75160E+02  7.07476E+02  9.49315E+02
  3.41929E+02  9.45103E+02 -2.96634E+02  8.59311E+02 -8.38356E+02  7.97336E+02 -5.13348E+02  1.29556E+02
 -2.39892E+01 -2.88603E+02 -6.90494E+02  4.32153E+02 -7.85353E+02  1.34784E+02 -9.23383E+02 -5.44778E+02
 -1.17474E+03 -2.18821E+02 -3.65407E+02 -1.16976E+03  8.19867E+02 -1.96094E+03  9.48383E+02 -6.19053E+02
  9.89089E+02  1.11074E+02 -2.35957E+02  6.52089E+02 -8.58399E+01  1.18499E+03 -4.16568E+02  9.55811E+02
