 $NMID ID='MM_0lb_SNR800_17hz_g45_29.RAW', FMTDAT='(8E13.5)'
 TRAMP=1., VOLUME=1. $END
  3.09895E+05  6.06926E+02  3.37490E+05  2.50512E+05  8.44914E+04  3.37397E+05 -1.32625E+05  2.50503E+05
 -1.89621E+05  8.23960E+04 -1.11159E+05 -3.33340E+04  1.11253E+03 -5.02971E+04  5.38609E+04  2.23402E+01
  3.51121E+04  5.26937E+04 -1.68583E+04  7.49059E+04 -6.04548E+04  6.31311E+04 -8.35339E+04  3.17405E+04
 -8.00848E+04 -1.12816E+04 -5.65939E+04 -5.04142E+04 -1.48497E+04 -6.89382E+04  2.67369E+04 -4.50368E+04
  3.94962E+04  3.86211E+03  1.58945E+04  4.71779E+04 -3.42943E+04  4.63545E+04 -6.56239E+04 -3.66941E+02
 -5.24920E+04 -5.60457E+04 -6.20376E+03 -7.58347E+04  3.32264E+04 -5.35763E+04  4.70379E+04 -1.63812E+04
  4.17776E+04  1.09563E+04  3.10128E+04  2.46837E+04  1.61037E+04  2.84986E+04 -4.76359E+03  2.71628E+04
 -2.16677E+04  1.26144E+04 -1.91878E+04 -4.48996E+03  4.54864E+03 -7.62062E+03  2.17128E+04  1.12271E+04
  7.34499E+03  3.38700E+04 -3.08005E+04  3.45618E+04 -6.13714E+04  2.24100E+03 -5.58215E+04 -4.14978E+04
 -1.25229E+04 -6.13706E+04  3.87229E+04 -4.37633E+04  5.62574E+04 -2.17740E+03  3.24845E+04  3.11015E+04
 -6.37106E+03  3.40444E+04 -2.89871E+04  1.39924E+04 -2.83090E+04 -5.10254E+03 -1.49637E+04 -1.01707E+04
 -7.53290E+03 -1.19783E+04 -1.06371E+03 -1.72253E+04  6.90919E+03 -2.26065E+04  1.51359E+04 -1.39090E+04
  1.18692E+04  4.35431E+03 -6.71054E+03  1.29212E+04 -1.98918E+04 -2.92205E+03 -7.91970E+03 -3.13874E+04
  2.16465E+04 -4.14400E+04  4.53352E+04 -1.89077E+04  4.28293E+04  1.86409E+04  1.47119E+04  4.25238E+04
 -1.55710E+04  3.14405E+04 -2.38518E+04  1.26741E+03 -8.89660E+03 -2.66558E+04  2.03576E+04 -3.17675E+04
  3.89568E+04 -7.75774E+03  3.23297E+04  2.32516E+04  1.61538E+04  4.38637E+04 -7.59319E+03  4.64420E+04
 -2.94971E+04  3.08827E+04 -3.83500E+04  8.73627E+03 -3.97514E+04 -1.53728E+04 -2.19443E+04 -3.53237E+04
  7.16965E+03 -3.49082E+04  2.96802E+04 -1.29708E+04  2.74268E+04  1.07847E+04  3.29375E+03  1.83833E+04
 -1.31880E+04  7.54406E+03 -9.72794E+03 -7.59513E+03  6.03981E+03 -1.02691E+04  1.73156E+04  6.17469E+03
  1.27697E+04  2.15876E+04 -6.31704E+03  2.40753E+04 -2.17468E+04  9.78532E+03 -2.58712E+04 -6.02124E+03
 -1.77141E+04 -1.67577E+04 -6.29079E+03 -1.76804E+04  3.84087E+03 -1.60695E+04  1.30061E+04 -1.55496E+04
  2.25409E+04 -1.19549E+04  2.94829E+04  1.48282E+03  2.19457E+04  1.75323E+04  4.10315E+03  3.34349E+04
 -1.64906E+04  2.82853E+04 -2.63481E+04  9.60837E+03 -2.00787E+04 -1.01527E+04 -3.84887E+03 -1.39549E+04
  2.63677E+03 -3.61360E+03 -3.41728E+03  5.57128E+03 -1.38795E+04  5.12759E+03 -1.38311E+04 -5.40285E+03
 -8.88333E+03 -1.63521E+04  4.65321E+03 -2.05359E+04  1.32374E+04 -1.46060E+04  1.53368E+04 -1.40225E+03
  9.39116E+03  1.11866E+04 -8.27333E+02  1.63713E+04 -1.12715E+04  9.22919E+03 -1.61119E+04 -3.44736E+03
 -1.23092E+04 -1.47157E+04 -1.42145E+03 -1.98824E+04  8.92587E+03 -1.61927E+04  1.67210E+04 -7.69676E+03
  1.52568E+04  4.83612E+02  1.10307E+04  4.01100E+03  5.58558E+03  5.11044E+02  8.29050E+03 -1.58887E+03
  1.45443E+04  2.45360E+03  1.57816E+04  1.35087E+04  1.01447E+04  2.60014E+04 -3.27262E+03  2.85807E+04
 -1.66511E+04  2.22038E+04 -2.64017E+04  1.07226E+04 -2.69137E+04 -1.90462E+03 -2.28916E+04 -1.55259E+04
 -1.08168E+04 -2.20862E+04  7.26036E+03 -2.04729E+04  1.77072E+04 -1.13885E+04  1.62300E+04  4.07195E+03
  6.72287E+03  1.17440E+04 -7.33056E+03  1.08458E+04 -1.39571E+04  2.60984E+03 -1.10338E+04 -8.87708E+03
 -2.16636E+02 -1.30851E+04  6.31296E+03 -9.80990E+03  8.27872E+03 -1.41590E+03  1.33838E+03  5.49550E+03
 -5.99948E+03  1.52796E+03 -4.28205E+03 -4.70305E+03  2.25137E+02 -1.10758E+04  8.24796E+03 -1.12660E+04
  1.32791E+04 -5.61625E+03  1.32458E+04  2.58368E+03  1.16894E+04  1.03202E+04  5.51599E+03  1.55611E+04
 -2.17218E+03  1.76677E+04 -1.09771E+04  1.11015E+04 -1.24949E+04  2.99609E+03 -8.98388E+03 -2.11216E+03
 -5.00808E+03 -3.80826E+03 -7.68420E+02  1.42482E+03 -2.21835E+03  2.10577E+03 -4.06123E+03  3.73385E+03
 -8.80033E+03 -4.01260E+02 -9.52607E+03 -7.57576E+03 -3.85177E+03 -1.22909E+04  3.71947E+03 -9.30968E+03
  7.96728E+03 -4.28358E+03  5.65134E+03  2.64042E+03  5.16944E+02  3.33359E+03 -3.80850E+03 -6.85849E+01
 -3.72395E+03 -5.68293E+03 -7.54150E+02 -8.35856E+03  4.13970E+03 -8.55804E+03  1.10591E+04 -4.41153E+03
  1.30602E+04  9.19851E+02  9.38397E+03  6.89621E+03  2.03083E+03  9.58584E+03 -5.64696E+03  9.13335E+03
 -7.58273E+03  3.12657E+03 -3.83917E+03 -1.60349E+03  1.34246E+03 -2.24458E+03  5.02018E+03 -9.15722E+02
  4.41646E+03  3.43255E+03  9.95813E+02  6.86632E+03 -5.03291E+03  6.96411E+03 -8.60154E+03  2.21717E+03
 -5.21981E+03 -3.97715E+03  1.75939E+02 -7.45649E+03  4.21559E+03 -3.70325E+03  3.76588E+03  1.24834E+03
  5.71027E+02  3.93102E+03 -4.38885E+03  5.43905E+03 -5.87368E+03  2.74849E+03 -5.47535E+03 -1.43152E+03
 -3.24397E+03 -6.76183E+03  1.45222E+03 -8.03076E+03  7.07057E+03 -5.08463E+03  7.06548E+03  1.23791E+03
  5.27945E+03  6.09418E+03  2.08975E+02  8.08580E+03 -5.67385E+03  4.49179E+03 -6.22793E+03 -5.96986E+02
 -6.05411E+03 -5.62086E+03 -1.47366E+03 -5.84076E+03  3.15901E+03 -5.05094E+03  3.44004E+03 -3.00175E+03
  3.00479E+03  3.88375E+02  9.98889E+01  1.40135E+03  4.98675E+02 -5.00004E+02  4.67129E+02 -2.64251E+03
  4.53762E+03 -1.25295E+03  6.29393E+03  5.44724E+02  6.76888E+03  4.07023E+03  5.79938E+03  8.57601E+03
 -1.60559E+03  9.57139E+03 -8.88709E+03  7.56318E+03 -1.12290E+04  1.57646E+03 -9.03075E+03 -3.50737E+03
 -4.64388E+03 -7.49388E+03 -1.60139E+02 -5.68885E+03  2.31079E+03 -2.93057E+03  2.01528E+03 -2.38201E+03
  1.53637E+03 -1.77981E+03  2.14934E+03 -2.67528E+03  3.78049E+03 -1.55910E+03  4.00784E+03  5.13857E+02
  5.06356E+03  1.23263E+03  1.73725E+03  3.82590E+03 -1.45939E+03  3.78324E+03 -4.61005E+03  3.28870E+03
 -5.33742E+03 -8.38184E+02 -2.61867E+03 -3.88803E+03  1.93633E+02 -5.73567E+03  3.63661E+03 -5.99914E+03
  6.21069E+03 -3.54457E+03  8.08471E+03  2.85522E+02  5.92368E+03  5.06062E+03  1.16228E+03  6.88458E+03
 -2.75362E+03  6.27318E+03 -3.96562E+03  1.84817E+03 -2.35882E+03 -9.13236E+02 -6.91963E+02 -4.41662E+02
 -5.40019E+02  4.37272E+02 -1.10813E+03  2.34657E+03 -3.19395E+03  1.27784E+03 -4.57609E+03 -4.68933E+02
 -1.82844E+03 -4.86050E+03  8.94360E+02 -5.58272E+03  3.27535E+03 -5.24913E+03  4.38849E+03 -1.42739E+03
  4.85758E+03  2.87873E+03  2.11985E+03  4.32705E+03 -1.01869E+03  5.20705E+03 -3.50373E+03  3.40797E+03
 -4.60897E+03  7.53017E+02 -4.09134E+03 -3.06305E+03 -3.64116E+02 -3.69581E+03  2.10190E+03 -3.09272E+03
  3.21356E+03 -1.58857E+03  2.25500E+03  6.87482E+02  5.28907E+02  1.90883E+03  8.58443E+02  5.74416E+02
  1.77693E+03  3.81606E+02  1.37261E+03  1.01812E+03  1.16723E+03  2.16720E+03  1.79092E+03  2.19164E+03
 -1.37126E+03  3.62620E+03 -2.98331E+03  4.85370E+03 -4.11643E+03  1.38362E+03 -5.24015E+03 -8.51314E+02
 -2.17040E+03 -4.39249E+03  1.02537E+03 -5.48295E+03  2.51438E+03 -3.19777E+03  3.95877E+03 -1.14712E+03
  2.81638E+03  1.96868E+03  3.40295E+02  2.77099E+03 -8.87769E+02  1.70924E+03 -1.50653E+03 -1.88635E+02
 -9.63750E+02 -1.93193E+03  1.41688E+03 -2.04622E+03  1.48736E+03 -1.08703E+03  1.67110E+03  2.62180E+02
  1.02363E+03  2.71556E+02  8.57872E+02  6.99430E+01 -3.25278E+02  8.22108E+02  1.50835E+03  1.29832E+02
  1.51378E+02 -3.17425E+02  2.38968E+03  6.59700E+02  5.14991E+02  2.85920E+03 -3.94008E+02  3.56908E+03
 -1.97900E+03  1.49552E+03 -2.52954E+03  3.31637E+02 -2.71572E+03 -7.31711E+02 -1.70828E+02 -1.50457E+03
  4.13679E+02 -1.47692E+03  1.05930E+03 -1.02827E+03  1.09839E+03  1.38074E+03 -9.52807E+02  1.59701E+03
 -1.59611E+03  1.05223E+03 -1.66396E+03 -1.15117E+03 -9.48123E+02 -2.72868E+03  1.15340E+02 -1.99529E+03
  7.62053E+02 -6.94248E+02  1.22057E+03  1.97576E+02  1.64565E+03  2.54540E-01  3.27403E+02  1.55771E+03
 -9.37898E+02 -2.90344E+01 -8.15575E+02 -4.87341E+02  7.42316E+02 -1.22047E+03  2.01302E+03 -1.06443E+03
  1.88017E+03  4.29296E+02  3.07136E+03  1.19447E+03  1.27168E+03  2.38292E+03 -5.26135E+02  2.39642E+03
 -1.73056E+03  4.37165E+02 -1.91176E+03 -4.80744E+02 -1.11247E+03 -1.77303E+03  4.14310E+02 -8.48287E+02
  1.56958E+03 -8.40911E+02  1.05854E+03  7.99385E+02  1.74406E+02  1.62468E+03  3.16231E+02  1.52764E+03
 -3.77107E+02  1.24405E+03 -5.36619E+02  3.36137E+02  3.58414E+01  5.26300E+02 -6.74519E+02  7.67684E+02
 -5.72634E+02  1.36888E+03 -2.11224E+03  9.01617E+02 -2.08891E+03  1.89734E+02 -3.02095E+03 -1.52585E+03
 -1.58931E+03 -3.56120E+03  6.38158E+02 -3.52125E+03  1.52447E+03 -3.10865E+03  3.93287E+03 -1.33584E+03
  3.31843E+03  2.50105E+01  1.97949E+03  1.96402E+03 -5.59838E+02  1.77156E+03 -9.70957E+02  1.60896E+03
 -1.44746E+03  5.67275E+02 -6.50045E+02 -9.09459E+01 -3.88352E+02  2.24382E+02 -8.36745E+02 -2.37026E+02
 -1.13629E+03 -3.51087E+01 -1.10297E+03 -2.72454E+01  1.90002E+02 -9.10895E+02 -4.65173E+02 -1.31084E+03
  1.24804E+03 -7.40008E+02  6.40070E+02  1.91510E+02  1.60421E+03  1.36453E+03  3.63766E+01  2.05829E+03
 -1.33094E+03  2.96653E+03 -2.08106E+03  1.63937E+03 -2.33879E+03 -5.52779E+02 -1.91394E+03 -1.85604E+03
 -1.20294E+03 -1.79400E+03 -3.77482E+00 -1.93668E+03  9.50543E+02 -7.73450E+02  1.38670E+03  2.86599E+01
  9.91930E+02  4.45576E+02 -1.69773E+02  6.89124E+02 -4.05695E+02  4.18869E+01 -6.79875E+01 -1.41074E+02
  5.11593E+02  3.37860E+00  3.76094E+02  4.17575E+02  4.31814E+02  3.17907E+02  3.53671E+02  7.53014E+02
 -7.19618E+02  1.29472E+03 -1.05282E+03  4.09938E+02 -1.12286E+03 -7.87030E+02  5.95501E+01 -1.41099E+03
  7.35067E+02 -1.14123E+03  1.04865E+03  2.41617E+01  1.08097E+03 -4.04613E+02  7.86868E+02  1.15124E+03
  5.12729E+02  1.05161E+03 -2.92889E+02  1.07397E+03 -8.38785E+02  6.67492E+02 -8.62257E+02 -9.56800E+01
  2.24345E+01 -2.49777E+02 -6.65008E+02 -4.83867E-02 -5.61739E+02  3.13782E+02 -1.13906E+03 -8.51998E+01
 -1.15437E+03  1.02327E+02 -5.97953E+02 -1.17171E+03  8.39453E+02 -2.08480E+03  1.26226E+03 -2.85069E+02
  1.08940E+03  1.34659E+02 -6.34382E+01  4.70579E+02 -1.80712E+02  1.28456E+03 -4.60770E+02  7.78362E+02
