 $NMID ID='MM_0lb_SNR800_17hz_g45_91.RAW', FMTDAT='(8E13.5)'
 TRAMP=1., VOLUME=1. $END
  3.09848E+05  1.66719E+02  3.37303E+05  2.50575E+05  8.44201E+04  3.37598E+05 -1.32492E+05  2.50538E+05
 -1.89604E+05  8.25705E+04 -1.11285E+05 -3.27694E+04  1.09817E+03 -5.03455E+04  5.40380E+04  1.22639E+02
  3.51419E+04  5.31616E+04 -1.67434E+04  7.50144E+04 -6.03755E+04  6.30242E+04 -8.31510E+04  3.18192E+04
 -8.00966E+04 -1.10092E+04 -5.62256E+04 -5.03414E+04 -1.50209E+04 -6.84438E+04  2.67068E+04 -4.48809E+04
  3.95686E+04  3.76833E+03  1.59772E+04  4.74700E+04 -3.40972E+04  4.62960E+04 -6.57114E+04 -6.42703E+02
 -5.24975E+04 -5.61362E+04 -6.36637E+03 -7.55228E+04  3.35368E+04 -5.38027E+04  4.68588E+04 -1.63548E+04
  4.19235E+04  1.12782E+04  3.09204E+04  2.46236E+04  1.57832E+04  2.86679E+04 -4.98238E+03  2.66396E+04
 -2.16825E+04  1.27841E+04 -1.89651E+04 -4.46032E+03  4.44739E+03 -7.73537E+03  2.13700E+04  1.15529E+04
  7.30715E+03  3.35994E+04 -3.10822E+04  3.47496E+04 -6.14963E+04  1.88495E+03 -5.55616E+04 -4.13906E+04
 -1.24222E+04 -6.12914E+04  3.85191E+04 -4.37335E+04  5.61527E+04 -1.96166E+03  3.23926E+04  3.10225E+04
 -6.68257E+03  3.40517E+04 -2.88845E+04  1.40534E+04 -2.84298E+04 -5.23488E+03 -1.47669E+04 -1.03555E+04
 -7.62211E+03 -1.17708E+04 -8.91460E+02 -1.69835E+04  6.74565E+03 -2.25618E+04  1.50226E+04 -1.40454E+04
  1.20204E+04  4.09340E+03 -6.88778E+03  1.32376E+04 -1.99106E+04 -3.06447E+03 -8.07876E+03 -3.13359E+04
  2.11252E+04 -4.12674E+04  4.53094E+04 -1.88305E+04  4.26119E+04  1.83782E+04  1.46055E+04  4.25015E+04
 -1.54603E+04  3.16922E+04 -2.39052E+04  1.14840E+03 -8.68435E+03 -2.68099E+04  2.07581E+04 -3.17908E+04
  3.89145E+04 -7.63905E+03  3.24039E+04  2.29792E+04  1.61333E+04  4.34841E+04 -7.78945E+03  4.64195E+04
 -2.89982E+04  3.08060E+04 -3.86948E+04  8.27456E+03 -3.91898E+04 -1.54165E+04 -2.20157E+04 -3.53634E+04
  6.97043E+03 -3.51645E+04  3.00254E+04 -1.33072E+04  2.73231E+04  1.10542E+04  3.15488E+03  1.81137E+04
 -1.34105E+04  7.59563E+03 -9.74170E+03 -7.57941E+03  5.87433E+03 -1.02290E+04  1.72591E+04  6.25908E+03
  1.26186E+04  2.19286E+04 -6.58526E+03  2.37676E+04 -2.16220E+04  9.76722E+03 -2.57558E+04 -6.06100E+03
 -1.79008E+04 -1.66035E+04 -6.28445E+03 -1.76026E+04  3.83274E+03 -1.60850E+04  1.31976E+04 -1.53635E+04
  2.25152E+04 -1.18285E+04  2.94998E+04  1.58526E+03  2.21561E+04  1.69722E+04  4.39326E+03  3.31972E+04
 -1.66042E+04  2.83866E+04 -2.63472E+04  9.74722E+03 -1.97478E+04 -1.05823E+04 -4.21156E+03 -1.40082E+04
  2.41533E+03 -3.88757E+03 -2.97079E+03  5.38312E+03 -1.36991E+04  5.20309E+03 -1.39636E+04 -5.37090E+03
 -8.80711E+03 -1.67078E+04  4.48806E+03 -2.04615E+04  1.31516E+04 -1.44665E+04  1.54886E+04 -1.32854E+03
  9.67894E+03  1.15972E+04 -7.31961E+02  1.67270E+04 -1.05243E+04  9.19259E+03 -1.64448E+04 -3.50929E+03
 -1.19960E+04 -1.46644E+04 -1.84816E+03 -1.98886E+04  8.97538E+03 -1.63313E+04  1.67603E+04 -8.07926E+03
  1.53328E+04  5.85774E+02  1.09780E+04  3.89132E+03  5.76221E+03  5.09334E+02  8.18377E+03 -1.41071E+03
  1.49776E+04  2.73622E+03  1.58829E+04  1.31625E+04  1.00984E+04  2.58695E+04 -3.42558E+03  2.85165E+04
 -1.69277E+04  2.23110E+04 -2.63836E+04  1.06380E+04 -2.70336E+04 -1.81618E+03 -2.29587E+04 -1.54401E+04
 -1.04459E+04 -2.22543E+04  7.17995E+03 -2.05299E+04  1.78194E+04 -1.13236E+04  1.64418E+04  4.08592E+03
  6.65468E+03  1.19928E+04 -7.53727E+03  1.09731E+04 -1.42252E+04  2.72547E+03 -1.07945E+04 -8.58441E+03
 -1.61959E+02 -1.30974E+04  6.62607E+03 -1.03081E+04  8.56102E+03 -1.54231E+03  1.93892E+03  5.22563E+03
 -5.68353E+03  1.58843E+03 -4.18947E+03 -4.72050E+03  2.84791E+02 -1.08923E+04  8.59996E+03 -1.08942E+04
  1.33130E+04 -5.31279E+03  1.36649E+04  2.82343E+03  1.18960E+04  1.01920E+04  5.49736E+03  1.57089E+04
 -2.06420E+03  1.74904E+04 -1.10562E+04  1.12089E+04 -1.24793E+04  3.13994E+03 -9.24508E+03 -2.27058E+03
 -4.88902E+03 -3.63292E+03 -8.01373E+02  1.68178E+03 -2.00713E+03  1.96240E+03 -4.14217E+03  3.83137E+03
 -8.86452E+03 -4.95861E+02 -9.38791E+03 -7.66417E+03 -3.58637E+03 -1.22146E+04  3.88241E+03 -9.16594E+03
  7.84752E+03 -4.23215E+03  5.65084E+03  2.27883E+03  5.93899E+02  3.53835E+03 -3.86617E+03  1.04358E+02
 -3.64775E+03 -5.59141E+03 -3.74496E+02 -7.87233E+03  4.60243E+03 -8.80118E+03  1.08363E+04 -4.26910E+03
  1.28624E+04  1.01395E+03  9.49808E+03  7.05401E+03  2.02479E+03  9.76545E+03 -5.54016E+03  8.79703E+03
 -7.27989E+03  2.81782E+03 -3.73979E+03 -1.62179E+03  1.37319E+03 -2.21727E+03  5.20905E+03 -1.23981E+03
  4.76586E+03  3.91561E+03  8.12294E+02  7.09497E+03 -4.76789E+03  7.03218E+03 -8.98095E+03  1.89323E+03
 -5.49557E+03 -4.12455E+03  4.24403E+02 -7.39551E+03  4.29795E+03 -3.84216E+03  4.04068E+03  1.39260E+03
  8.16985E+02  3.97066E+03 -4.65951E+03  5.42661E+03 -5.69548E+03  2.94770E+03 -5.24864E+03 -1.40255E+03
 -3.27636E+03 -6.49018E+03  1.43813E+03 -7.99055E+03  7.11809E+03 -5.10861E+03  7.44612E+03  1.10970E+03
  5.05704E+03  6.02062E+03 -1.34212E+02  7.96515E+03 -5.70361E+03  4.85737E+03 -5.82768E+03 -5.57840E+02
 -6.06955E+03 -5.81509E+03 -1.48020E+03 -5.56693E+03  2.77180E+03 -5.20391E+03  3.25805E+03 -2.53789E+03
  3.06037E+03  1.42657E+02  1.37616E+02  1.37994E+03  5.50399E+02 -5.16330E+02  4.03247E+02 -2.59764E+03
  4.61861E+03 -1.34261E+03  6.36712E+03  1.04186E+03  6.52344E+03  3.70689E+03  5.64614E+03  8.21938E+03
 -1.43063E+03  9.85779E+03 -8.87447E+03  7.62325E+03 -1.10620E+04  1.28643E+03 -8.56252E+03 -3.23849E+03
 -5.08636E+03 -7.38573E+03 -2.20619E+02 -6.07015E+03  2.23372E+03 -2.92968E+03  1.94030E+03 -2.43486E+03
  1.61112E+03 -1.60671E+03  2.23063E+03 -2.41167E+03  3.91348E+03 -1.66735E+03  4.34116E+03  3.03100E+02
  5.20746E+03  1.05034E+03  1.35881E+03  4.03576E+03 -1.32940E+03  3.76699E+03 -4.83003E+03  3.17721E+03
 -6.01758E+03 -1.17881E+03 -2.47627E+03 -3.75040E+03  3.91169E+02 -5.93105E+03  3.75784E+03 -6.27530E+03
  6.13861E+03 -3.71598E+03  7.74307E+03  4.60305E+02  5.59191E+03  4.95847E+03  1.35992E+03  6.97407E+03
 -2.30519E+03  6.50245E+03 -4.00983E+03  2.21230E+03 -2.21831E+03 -1.02749E+03 -6.41967E+02 -6.10471E+02
 -7.85445E+02  6.16139E+02 -1.13288E+03  1.99859E+03 -2.79742E+03  1.10849E+03 -4.50883E+03 -3.14823E+02
 -2.15240E+03 -4.66174E+03  5.46719E+02 -5.34115E+03  3.11228E+03 -5.12870E+03  4.27327E+03 -1.46303E+03
  5.03661E+03  2.64488E+03  2.29350E+03  3.98759E+03 -9.87170E+02  5.53370E+03 -3.24150E+03  3.18014E+03
 -4.47324E+03  3.52036E+02 -3.63745E+03 -2.93272E+03 -4.13542E+02 -3.78005E+03  1.78112E+03 -3.12184E+03
  3.21503E+03 -1.38259E+03  2.45731E+03  7.11549E+02  5.91322E+02  2.10672E+03  1.12931E+03  4.68889E+02
  1.61932E+03  4.58297E+02  1.34410E+03  1.31816E+03  1.36477E+03  2.43496E+03  1.69299E+03  2.18746E+03
 -1.35676E+03  3.70397E+03 -3.07840E+03  4.67941E+03 -4.18101E+03  1.48585E+03 -5.01168E+03 -8.32338E+02
 -2.34521E+03 -4.62681E+03  6.57596E+02 -5.73654E+03  2.29187E+03 -3.14573E+03  3.90942E+03 -1.02565E+03
  2.96415E+03  2.06460E+03  5.36798E+02  2.44021E+03 -1.04039E+03  1.50535E+03 -1.43392E+03  1.71254E+01
 -1.01179E+03 -2.03456E+03  1.27120E+03 -1.98397E+03  1.74944E+03 -1.36790E+03  1.88245E+03  6.92665E+02
  1.07981E+03  4.43383E+02  8.09037E+02 -2.98486E+00 -2.96433E+02  7.36698E+02  1.62581E+03 -1.53578E+02
 -2.30220E+02 -1.29947E+02  2.17509E+03  7.08771E+02  4.08597E+02  2.70471E+03 -4.02274E+02  3.30732E+03
 -2.28713E+03  1.61516E+03 -2.59362E+03  6.98564E+02 -2.74108E+03 -7.75692E+02 -3.93719E+02 -1.39016E+03
  5.95378E+02 -1.60597E+03  1.28739E+03 -7.13473E+02  8.87809E+02  1.53689E+03 -8.23220E+02  1.34594E+03
 -1.91620E+03  9.35383E+02 -1.47516E+03 -1.19021E+03 -1.01654E+03 -2.65210E+03  1.10338E+02 -2.13114E+03
  7.73748E+02 -1.06326E+03  1.07713E+03  6.14816E+01  1.68750E+03  1.68304E+02  2.48363E+02  1.49667E+03
 -5.53960E+02  1.00432E+02 -9.09168E+02 -3.95670E+02  7.95408E+02 -9.86836E+02  2.00142E+03 -1.28879E+03
  2.05819E+03  3.21442E+02  3.40282E+03  1.35148E+03  1.34299E+03  2.03217E+03 -4.31540E+02  2.39635E+03
 -1.92990E+03  3.40224E+02 -2.05018E+03 -9.92814E+01 -1.39961E+03 -1.65409E+03  2.02511E+02 -1.02483E+03
  1.88881E+03 -8.89479E+02  1.15813E+03  8.13017E+02  7.00830E+01  1.53337E+03  2.58708E+02  1.27652E+03
 -4.13772E+02  1.56671E+03 -3.97812E+02 -2.05997E+02 -1.25422E+02  4.98004E+02 -6.97443E+02  7.69524E+02
 -7.59127E+02  1.29098E+03 -2.16666E+03  1.02708E+03 -2.26062E+03  9.84553E+01 -2.76295E+03 -1.60560E+03
 -1.30458E+03 -3.00856E+03  5.86373E+02 -3.74182E+03  1.78868E+03 -3.29753E+03  3.32401E+03 -1.23840E+03
  2.95169E+03  2.53766E+02  1.80308E+03  2.12126E+03 -1.65776E+02  2.18082E+03 -1.16738E+03  1.68746E+03
 -1.10686E+03  1.04855E+03 -9.05645E+02 -4.53392E+02 -6.22852E+02  5.11901E+00 -8.29525E+02 -2.98762E+02
 -1.16581E+03  1.93328E+02 -6.97019E+02  4.34214E+01  7.64351E+01 -6.59557E+02 -5.71122E+02 -1.22833E+03
  1.31483E+03 -9.08387E+02  7.41215E+02  3.90503E+01  1.60161E+03  1.36061E+03 -3.21645E+02  1.94311E+03
 -1.05229E+03  3.21065E+03 -2.22340E+03  1.46903E+03 -2.28133E+03 -2.94359E+02 -1.95716E+03 -1.56237E+03
 -1.31345E+03 -1.94228E+03  4.75215E+02 -1.49159E+03  8.79792E+02 -1.02703E+03  1.10795E+03  1.76168E+02
  9.25667E+02  6.23262E+02 -6.20694E+00  7.79468E+02 -4.73318E+02  2.41351E+01  7.48897E+01 -7.08736E+02
  8.18845E+02  5.42041E+01  6.52500E+02  2.97293E+02  1.64462E+02  1.17784E+03  4.08766E+02  6.75402E+02
 -9.04784E+02  8.11887E+02 -9.81213E+02  4.88863E+01 -1.29419E+03 -7.93382E+02  6.90754E+01 -1.60464E+03
  7.14197E+02 -1.17636E+03  6.68730E+02 -8.73250E+01  1.14723E+03 -5.10085E+02  7.74113E+02  1.01546E+03
  5.35045E+02  6.40108E+02 -4.61452E+02  9.94394E+02 -1.01706E+03  5.69427E+02 -9.37751E+02  1.77982E+02
 -1.09677E+02 -2.64860E+02 -2.91105E+02  3.40906E+02 -6.91690E+02 -7.78093E+01 -1.15910E+03 -3.12093E+02
 -1.41231E+03  1.52178E+02 -5.57887E+02 -1.37000E+03  4.92128E+02 -1.98624E+03  1.06716E+03 -6.73492E+02
  1.07545E+03  8.53006E+01 -2.26889E+02  5.05908E+02  2.58715E+01  1.19511E+03 -4.61480E+02  1.15212E+03
