 $NMID ID='MM_0lb_SNR800_12hz_g55_87.RAW', FMTDAT='(8E13.5)'
 TRAMP=1., VOLUME=1. $END
  3.09586E+05  4.54478E+02  3.37951E+05  2.50934E+05  8.50745E+04  3.38074E+05 -1.32798E+05  2.51525E+05
 -1.90585E+05  8.36006E+04 -1.12097E+05 -3.24048E+04  5.84821E+02 -5.06989E+04  5.38245E+04 -4.00034E+02
  3.55448E+04  5.29402E+04 -1.65560E+04  7.55559E+04 -6.11243E+04  6.44108E+04 -8.48445E+04  3.26733E+04
 -8.16071E+04 -1.14015E+04 -5.74142E+04 -5.19085E+04 -1.50683E+04 -7.01961E+04  2.80013E+04 -4.62970E+04
  4.06503E+04  3.95959E+03  1.65686E+04  4.83347E+04 -3.46264E+04  4.80311E+04 -6.77342E+04 -2.31690E+02
 -5.44972E+04 -5.72612E+04 -7.03211E+03 -7.83927E+04  3.41577E+04 -5.60487E+04  4.89764E+04 -1.78374E+04
  4.41758E+04  1.13623E+04  3.23206E+04  2.63154E+04  1.58530E+04  3.00550E+04 -5.79316E+03  2.75693E+04
 -2.21097E+04  1.19677E+04 -1.82940E+04 -5.40928E+03  6.29069E+03 -7.20171E+03  2.30654E+04  1.31605E+04
  6.75119E+03  3.63959E+04 -3.27721E+04  3.66525E+04 -6.47671E+04  2.26051E+03 -5.80151E+04 -4.37523E+04
 -1.29952E+04 -6.48708E+04  4.07118E+04 -4.66707E+04  5.97502E+04 -2.42202E+03  3.55897E+04  3.34413E+04
 -5.68189E+03  3.81337E+04 -3.12124E+04  1.77119E+04 -3.21105E+04 -4.05987E+03 -1.79286E+04 -1.15508E+04
 -8.76867E+03 -1.43566E+04 -7.32722E+02 -1.90315E+04  7.73918E+03 -2.32766E+04  1.54840E+04 -1.28073E+04
  1.10282E+04  5.69615E+03 -9.32355E+03  1.27706E+04 -2.22144E+04 -5.76787E+03 -8.41228E+03 -3.55617E+04
  2.39442E+04 -4.55094E+04  5.00019E+04 -2.01261E+04  4.71617E+04  2.02712E+04  1.64786E+04  4.58452E+04
 -1.63702E+04  3.50204E+04 -2.61930E+04  2.40424E+03 -1.07377E+04 -2.87648E+04  2.17804E+04 -3.55848E+04
  4.32254E+04 -1.04869E+04  3.82627E+04  2.45251E+04  1.97875E+04  4.91850E+04 -8.40116E+03  5.35524E+04
 -3.35693E+04  3.61213E+04 -4.48736E+04  1.02885E+04 -4.52864E+04 -1.79667E+04 -2.51661E+04 -3.96667E+04
  7.37549E+03 -4.00386E+04  3.33409E+04 -1.56297E+04  3.03992E+04  1.06292E+04  4.85748E+03  2.01426E+04
 -1.37267E+04  8.91392E+03 -1.07312E+04 -7.27293E+03  5.90213E+03 -1.11458E+04  1.84297E+04  5.84473E+03
  1.44898E+04  2.23999E+04 -5.26015E+03  2.59432E+04 -2.28110E+04  1.29762E+04 -2.97195E+04 -3.68530E+03
 -2.31309E+04 -1.78133E+04 -1.04798E+04 -2.27621E+04  3.94535E+03 -2.30497E+04  1.77624E+04 -2.13332E+04
  2.93749E+04 -1.36064E+04  3.52827E+04  3.79046E+03  2.54131E+04  2.22111E+04  4.16390E+03  3.89963E+04
 -1.87345E+04  3.26349E+04 -2.93604E+04  1.11876E+04 -2.15775E+04 -1.02758E+04 -4.61809E+03 -1.33809E+04
  1.06000E+03 -1.96690E+03 -6.22992E+03  7.42626E+03 -1.83502E+04  4.92430E+03 -1.82469E+04 -8.48248E+03
 -1.11921E+04 -2.13471E+04  5.69114E+03 -2.54106E+04  1.68978E+04 -1.84701E+04  2.03459E+04 -1.93375E+03
  1.27554E+04  1.45348E+04 -1.15056E+03  2.13565E+04 -1.47623E+04  1.22498E+04 -2.14042E+04 -4.26289E+03
 -1.57843E+04 -1.92068E+04 -1.95932E+03 -2.53348E+04  1.15968E+04 -2.07423E+04  2.10804E+04 -1.07733E+04
  1.97541E+04  2.24591E+02  1.41612E+04  4.84438E+03  7.86580E+03  1.22195E+03  1.09797E+04 -1.48013E+03
  1.98916E+04  2.80004E+03  2.25276E+04  1.67019E+04  1.49654E+04  3.38204E+04 -2.97329E+03  3.94535E+04
 -2.26511E+04  3.21319E+04 -3.65899E+04  1.61670E+04 -3.90325E+04 -3.29864E+03 -3.20660E+04 -2.26332E+04
 -1.34803E+04 -3.25529E+04  1.14560E+04 -2.83266E+04  2.44112E+04 -1.39751E+04  2.17644E+04  6.41332E+03
  7.69798E+03  1.62277E+04 -1.05259E+04  1.41652E+04 -1.78126E+04  2.23123E+03 -1.40315E+04 -1.14189E+04
 -3.25180E+02 -1.71267E+04  8.92838E+03 -1.28325E+04  1.17354E+04 -1.37793E+03  2.71209E+03  7.82117E+03
 -7.27987E+03  3.44880E+03 -7.59766E+03 -6.36190E+03 -1.15467E+03 -1.54086E+04  1.09618E+04 -1.69756E+04
  1.98000E+04 -9.48762E+03  2.20004E+04  3.47519E+03  1.91161E+04  1.60293E+04  9.04006E+03  2.44365E+04
 -4.57806E+03  2.67156E+04 -1.69366E+04  1.61847E+04 -1.91661E+04  3.54385E+03 -1.33709E+04 -4.79254E+03
 -6.02456E+03 -5.80975E+03 -6.19998E+02  9.45736E+02 -2.47867E+03  3.08041E+03 -6.28278E+03  4.64313E+03
 -1.23606E+04 -8.04846E+02 -1.28267E+04 -1.05884E+04 -5.28358E+03 -1.72432E+04  5.48508E+03 -1.34207E+04
  1.11499E+04 -5.46644E+03  8.09203E+03  3.28324E+03 -4.09698E+01  5.12916E+03 -6.24057E+03 -1.45473E+02
 -6.42785E+03 -8.45580E+03 -1.26090E+03 -1.26409E+04  7.48544E+03 -1.36344E+04  1.66035E+04 -7.41942E+03
  1.98175E+04  1.91779E+03  1.43861E+04  1.20461E+04  2.48414E+03  1.54956E+04 -8.57379E+03  1.31009E+04
 -1.05664E+04  3.65742E+03 -5.86152E+03 -2.82059E+03  1.61779E+03 -3.98650E+03  6.96509E+03 -9.84796E+02
  6.35783E+03  6.18881E+03  1.25528E+03  1.03464E+04 -7.50165E+03  1.00594E+04 -1.32508E+04  2.78562E+03
 -8.45048E+03 -6.71703E+03 -1.50168E+01 -1.13451E+04  7.22015E+03 -5.57898E+03  7.35593E+03  2.65437E+03
  1.48100E+03  7.92484E+03 -6.51424E+03  9.30171E+03 -1.08254E+04  4.17930E+03 -1.06066E+04 -3.82655E+03
 -6.28185E+03 -1.23617E+04  2.95197E+03 -1.44604E+04  1.20636E+04 -8.60663E+03  1.32367E+04  2.68930E+03
  8.29138E+03  1.04572E+04 -9.01816E+02  1.33306E+04 -9.17807E+03  6.78177E+03 -1.00839E+04 -1.06611E+03
 -9.10143E+03 -8.64290E+03 -1.53099E+03 -9.84618E+03  5.32932E+03 -8.07204E+03  5.96907E+03 -3.43672E+03
  4.43583E+03  1.35780E+03 -7.01237E+02  1.64824E+03 -2.33595E+02 -2.34409E+03  1.76145E+03 -5.68821E+03
  8.56871E+03 -3.52165E+03  1.26642E+04  1.40482E+03  1.20983E+04  8.62010E+03  8.49154E+03  1.58029E+04
 -3.55488E+03  1.84518E+04 -1.55264E+04  1.36371E+04 -1.98888E+04  2.74933E+03 -1.63087E+04 -6.95150E+03
 -8.55058E+03 -1.27987E+04 -4.32996E+02 -1.12758E+04  4.07005E+03 -6.40572E+03  4.13058E+03 -4.25642E+03
  2.96068E+03 -2.60088E+03  3.27415E+03 -3.54951E+03  4.75533E+03 -2.51884E+03  6.22527E+03 -1.13652E+03
  8.54435E+03  1.95393E+03  4.00325E+03  7.21530E+03 -2.16504E+03  8.22649E+03 -8.79723E+03  6.93994E+03
 -1.10901E+04 -9.70966E+02 -6.70335E+03 -7.98306E+03 -8.38779E+02 -1.18591E+04  6.91602E+03 -1.19356E+04
  1.23770E+04 -6.71025E+03  1.45498E+04  1.81142E+03  1.02021E+04  1.02421E+04  1.95946E+03  1.32224E+04
 -5.25952E+03  1.12899E+04 -7.60822E+03  3.68048E+03 -5.15619E+03 -1.47335E+03 -2.00193E+03 -1.58881E+03
 -7.23128E+02 -6.93339E+01 -2.05249E+03  2.63738E+03 -4.58167E+03  1.74544E+03 -7.75490E+03 -6.89037E+02
 -5.29882E+03 -7.77071E+03  1.36049E+02 -1.11939E+04  6.71382E+03 -9.91862E+03  1.06140E+04 -3.08953E+03
  1.08451E+04  5.24543E+03  4.68965E+03  9.72860E+03 -2.51504E+03  1.10131E+04 -7.62030E+03  6.89518E+03
 -9.88817E+03  6.75122E+02 -7.51362E+03 -6.32652E+03 -6.95034E+02 -8.81717E+03  4.23753E+03 -6.54371E+03
  6.69777E+03 -2.23719E+03  4.75533E+03  1.23738E+03  1.45291E+03  3.39030E+03  1.25385E+03  1.30267E+03
  2.37514E+03  9.46898E+02  2.91200E+03  1.73750E+03  3.29103E+03  3.91546E+03  2.69141E+03  5.55952E+03
 -2.65045E+03  8.35953E+03 -6.89121E+03  8.85294E+03 -1.04369E+04  2.52765E+03 -1.12645E+04 -3.94812E+03
 -4.89499E+03 -1.06654E+04  1.33432E+03 -1.17760E+04  6.25826E+03 -7.44442E+03  8.53867E+03 -2.35904E+03
  6.91202E+03  4.13012E+03  1.68553E+03  6.01716E+03 -2.29521E+03  3.72393E+03 -3.99769E+03 -4.49282E+02
 -1.79319E+03 -4.43246E+03  2.71598E+03 -4.72897E+03  4.28873E+03 -2.16445E+03  4.13635E+03  1.17497E+03
  2.90846E+03  1.95613E+03  1.32448E+03  1.55399E+03 -6.97726E+02  1.47826E+03  1.59185E+03 -1.80702E+02
  1.24096E+03 -4.65269E+02  4.09210E+03  1.51231E+03  2.30039E+03  5.58575E+03 -6.00669E+02  7.69383E+03
 -4.90180E+03  4.72561E+03 -6.89212E+03  1.53302E+03 -6.11215E+03 -2.52950E+03 -2.05943E+03 -3.73070E+03
  6.50391E+02 -3.84181E+03  2.58087E+03 -1.85228E+03  2.17111E+03  2.06121E+03 -1.24122E+03  3.22800E+03
 -4.23610E+03  2.06567E+03 -4.43626E+03 -2.47069E+03 -2.68084E+03 -5.91257E+03  7.88784E+02 -5.79137E+03
  3.15731E+03 -2.91528E+03  3.35596E+03 -4.64203E+02  3.15438E+03  1.03537E+03  7.81472E+02  2.94233E+03
 -1.92006E+03  6.37932E+02 -2.93570E+03 -1.72547E+03  9.43897E+02 -3.74086E+03  4.96720E+03 -3.33364E+03
  5.73723E+03  3.36986E+02  7.03289E+03  4.35006E+03  2.13864E+03  6.35922E+03 -1.98850E+03  6.25306E+03
 -5.24011E+03  2.29823E+03 -5.48997E+03 -1.16462E+03 -2.85069E+03 -4.33194E+03  7.26789E+02 -3.42204E+03
  4.07259E+03 -2.19818E+03  3.43884E+03  1.92722E+03  8.19324E+02  3.50788E+03 -5.06475E+02  2.99805E+03
 -1.54315E+03  2.00876E+03 -1.41588E+03  4.98333E+02 -5.77907E+02  8.66562E+02 -1.18685E+03  1.59816E+03
 -1.88930E+03  2.35028E+03 -4.44093E+03  2.18098E+03 -6.39011E+03  3.11503E+02 -6.95240E+03 -4.12821E+03
 -3.82101E+03 -8.00286E+03  1.75046E+03 -9.36398E+03  5.54771E+03 -7.66871E+03  9.00068E+03 -3.08494E+03
  8.18717E+03  1.37358E+03  5.10595E+03  5.45178E+03  3.25730E+02  6.08252E+03 -2.37877E+03  4.68555E+03
 -3.36166E+03  1.98417E+03 -2.03299E+03 -4.83778E+02 -6.68051E+02 -7.00885E+02 -6.38586E+02 -1.22918E+02
 -1.69949E+03  5.02517E+02 -1.38655E+03 -6.88250E+01 -2.74239E+02 -1.72498E+03  1.29779E+02 -2.48766E+03
  3.30584E+03 -2.25534E+03  3.68637E+03  3.16344E+02  4.43233E+03  3.42613E+03  8.97703E+02  5.60438E+03
 -2.71302E+03  7.28598E+03 -6.52884E+03  4.39340E+03 -7.18104E+03 -7.04325E+02 -5.40123E+03 -5.02991E+03
 -2.51611E+03 -6.33627E+03  1.11653E+03 -5.76725E+03  3.93998E+03 -3.45209E+03  3.93425E+03  1.79932E+02
  2.16135E+03  1.93152E+03 -1.53874E+02  1.60241E+03 -1.24794E+03 -9.46769E+01  4.03822E+01 -1.24998E+03
  2.05566E+03 -8.37070E+02  2.42313E+03  8.18503E+02  1.65260E+03  2.41523E+03  2.70704E+02  2.97470E+03
 -2.62042E+03  2.56409E+03 -4.01375E+03  3.22636E+02 -3.67627E+03 -2.28847E+03 -4.55597E+02 -4.86812E+03
  2.61551E+03 -4.05845E+03  4.47767E+03 -1.06730E+03  4.39302E+03  4.53259E+02  2.43231E+03  3.73093E+03
  5.48047E+02  4.03932E+03 -1.62926E+03  3.30595E+03 -2.80556E+03  1.72446E+03 -2.19123E+03  1.87602E+02
 -7.23224E+02 -2.77192E+02 -1.25537E+03  5.62255E+02 -1.95269E+03  4.85706E+02 -3.04443E+03 -6.98543E+02
 -2.83227E+03 -1.54355E+03 -5.34331E+02 -3.89614E+03  1.89152E+03 -4.40593E+03  3.60958E+03 -1.99095E+03
  3.79755E+03  4.59611E+02  1.48001E+03  2.50962E+03 -3.98639E+02  3.44133E+03 -2.54309E+03  2.44599E+03
