 $NMID ID='MM_0lb_SNR800_7hz_g45_23.RAW', FMTDAT='(8E13.5)'
 TRAMP=1., VOLUME=1. $END
  3.09941E+05  5.94389E+02  3.38152E+05  2.50878E+05  8.50819E+04  3.38495E+05 -1.32930E+05  2.51655E+05
 -1.90926E+05  8.38148E+04 -1.12816E+05 -3.21969E+04 -1.58580E+01 -5.11748E+04  5.40151E+04 -8.46898E+02
  3.57362E+04  5.29569E+04 -1.68750E+04  7.62437E+04 -6.10453E+04  6.45893E+04 -8.56157E+04  3.26286E+04
 -8.28566E+04 -1.13272E+04 -5.82198E+04 -5.29656E+04 -1.52908E+04 -7.18444E+04  2.83989E+04 -4.71539E+04
  4.11542E+04  3.34905E+03  1.67087E+04  4.90966E+04 -3.46609E+04  4.83107E+04 -6.82729E+04  9.33882E+01
 -5.52349E+04 -5.79097E+04 -7.49923E+03 -7.97426E+04  3.47906E+04 -5.78636E+04  5.01405E+04 -1.84920E+04
  4.57382E+04  1.10744E+04  3.34562E+04  2.69335E+04  1.59377E+04  3.09722E+04 -5.94517E+03  2.83067E+04
 -2.28533E+04  1.17459E+04 -1.73814E+04 -5.75851E+03  7.33095E+03 -7.33035E+03  2.39077E+04  1.41483E+04
  7.15454E+03  3.78850E+04 -3.51079E+04  3.76123E+04 -6.69970E+04  2.26221E+03 -5.93388E+04 -4.53584E+04
 -1.24379E+04 -6.62440E+04  4.16192E+04 -4.83693E+04  6.20936E+04 -2.76419E+03  3.78651E+04  3.49902E+04
 -5.32910E+03  4.09709E+04 -3.20968E+04  1.98031E+04 -3.41535E+04 -3.04412E+03 -1.97231E+04 -1.23161E+04
 -9.87868E+03 -1.53584E+04 -1.01699E+02 -2.00741E+04  9.07062E+03 -2.34227E+04  1.65926E+04 -1.25115E+04
  9.94513E+03  6.21014E+03 -1.09373E+04  1.25055E+04 -2.43336E+04 -7.16895E+03 -8.58955E+03 -3.85797E+04
  2.56974E+04 -4.77914E+04  5.37005E+04 -2.13311E+04  4.99375E+04  2.14963E+04  1.78278E+04  4.79053E+04
 -1.71914E+04  3.71099E+04 -2.83072E+04  2.41920E+03 -1.22371E+04 -2.98472E+04  2.15174E+04 -3.77867E+04
  4.56224E+04 -1.14477E+04  4.19196E+04  2.55697E+04  2.25700E+04  5.24696E+04 -8.44595E+03  5.78175E+04
 -3.68468E+04  4.00231E+04 -4.92169E+04  1.17746E+04 -4.90979E+04 -1.91967E+04 -2.69571E+04 -4.38596E+04
  8.02325E+03 -4.35934E+04  3.47989E+04 -1.80508E+04  3.30646E+04  1.14280E+04  5.42078E+03  2.12710E+04
 -1.43631E+04  9.98227E+03 -1.11748E+04 -7.67795E+03  5.59752E+03 -1.18103E+04  1.89927E+04  4.80453E+03
  1.50942E+04  2.27168E+04 -4.94985E+03  2.77056E+04 -2.37035E+04  1.54908E+04 -3.26563E+04 -2.41286E+03
 -2.75169E+04 -1.87402E+04 -1.28348E+04 -2.64846E+04  4.78290E+03 -2.74690E+04  2.11110E+04 -2.47275E+04
  3.39970E+04 -1.45776E+04  4.00479E+04  5.51816E+03  2.79393E+04  2.62174E+04  4.76617E+03  4.28528E+04
 -2.07885E+04  3.48850E+04 -3.15883E+04  1.27540E+04 -2.30434E+04 -9.97057E+03 -5.04593E+03 -1.21652E+04
  6.00842E+02 -3.55866E+02 -8.51100E+03  9.13825E+03 -2.16580E+04  4.63266E+03 -2.16620E+04 -1.05189E+04
 -1.23140E+04 -2.46587E+04  6.66386E+03 -2.93319E+04  1.99355E+04 -2.05776E+04  2.42287E+04 -1.83971E+03
  1.55617E+04  1.70746E+04 -1.11579E+03  2.50018E+04 -1.81328E+04  1.42261E+04 -2.50092E+04 -5.07151E+03
 -1.82815E+04 -2.24380E+04 -2.40228E+03 -2.96825E+04  1.34497E+04 -2.47057E+04  2.46655E+04 -1.31955E+04
  2.37739E+04 -2.97787E+02  1.68673E+04  5.69594E+03  9.18186E+03  1.59728E+03  1.35675E+04 -2.28858E+03
  2.36265E+04  3.47267E+03  2.73028E+04  1.93226E+04  1.87754E+04  4.00910E+04 -2.47535E+03  4.82068E+04
 -2.70877E+04  4.00128E+04 -4.55512E+04  2.09527E+04 -4.87873E+04 -3.61475E+03 -3.97711E+04 -2.87103E+04
 -1.54360E+04 -4.05660E+04  1.44114E+04 -3.56562E+04  3.04022E+04 -1.62223E+04  2.56889E+04  8.86528E+03
  8.40109E+03  2.03984E+04 -1.20542E+04  1.67705E+04 -2.18287E+04  2.69095E+03 -1.61427E+04 -1.36014E+04
 -8.83406E+02 -2.11838E+04  1.13991E+04 -1.54851E+04  1.48584E+04 -1.05557E+03  3.89045E+03  9.55758E+03
 -9.43156E+03  4.75177E+03 -9.82394E+03 -7.53650E+03 -1.75911E+03 -2.00597E+04  1.25851E+04 -2.17946E+04
  2.49790E+04 -1.23470E+04  2.92346E+04  3.57158E+03  2.57513E+04  2.03032E+04  1.19511E+04  3.27125E+04
 -6.24916E+03  3.49380E+04 -2.24749E+04  2.12780E+04 -2.54969E+04  4.22537E+03 -1.67405E+04 -6.92252E+03
 -7.31103E+03 -8.25671E+03 -4.11648E+02 -2.26254E+02 -3.25776E+03  3.96720E+03 -8.57664E+03  5.71200E+03
 -1.51520E+04 -1.24828E+03 -1.64012E+04 -1.34088E+04 -6.43680E+03 -2.14227E+04  7.32433E+03 -1.77399E+04
  1.37718E+04 -7.42637E+03  9.66522E+03  4.89623E+03 -7.71737E+02  6.68196E+03 -9.30031E+03 -1.07708E+02
 -8.60982E+03 -1.13527E+04 -1.49954E+03 -1.79059E+04  1.05833E+04 -1.81833E+04  2.24797E+04 -9.84616E+03
  2.61069E+04  2.80801E+03  1.91955E+04  1.61175E+04  3.58271E+03  2.13975E+04 -1.11586E+04  1.74330E+04
 -1.42227E+04  4.88480E+03 -7.45154E+03 -3.92883E+03  2.30777E+03 -4.81974E+03  9.34167E+03 -1.12075E+03
  8.28849E+03  7.76852E+03  1.06883E+03  1.41625E+04 -1.02834E+04  1.33438E+04 -1.72168E+04  2.86777E+03
 -1.23635E+04 -9.08527E+03  3.37434E+02 -1.51342E+04  1.03011E+04 -7.91403E+03  1.05991E+04  3.92429E+03
  2.44999E+03  1.20132E+04 -9.57614E+03  1.31772E+04 -1.59343E+04  5.47928E+03 -1.60504E+04 -5.92560E+03
 -9.66756E+03 -1.82225E+04  4.60453E+03 -2.08283E+04  1.78518E+04 -1.25233E+04  1.95915E+04  3.06126E+03
  1.13293E+04  1.54838E+04 -1.72646E+03  1.85001E+04 -1.33517E+04  9.96910E+03 -1.47139E+04 -1.39091E+03
 -1.22306E+04 -1.17677E+04 -1.89809E+03 -1.39311E+04  7.51101E+03 -1.10116E+04  9.09564E+03 -3.72717E+03
  5.44295E+03  2.73270E+03 -1.40401E+03  2.00201E+03 -1.24864E+03 -4.46545E+03  3.49044E+03 -9.39683E+03
  1.37116E+04 -6.35358E+03  1.91616E+04  2.12393E+03  1.86357E+04  1.34307E+04  1.15247E+04  2.45463E+04
 -6.02150E+03  2.83684E+04 -2.31875E+04  2.05668E+04 -3.02027E+04  3.85005E+03 -2.45137E+04 -1.11171E+04
 -1.24675E+04 -2.05923E+04 -4.46429E+02 -1.73817E+04  6.22926E+03 -1.01074E+04  6.05275E+03 -6.15741E+03
  4.53634E+03 -3.10649E+03  4.72638E+03 -4.42737E+03  6.61102E+03 -4.74229E+03  9.08370E+03 -1.47099E+03
  1.24487E+04  2.66305E+03  7.30947E+03  1.12933E+04 -2.30822E+03  1.39483E+04 -1.33669E+04  1.03309E+04
 -1.73605E+04 -1.58862E+03 -1.18809E+04 -1.20756E+04 -1.65482E+03 -1.87826E+04  1.03307E+04 -1.87578E+04
  1.98424E+04 -1.04473E+04  2.29184E+04  3.64053E+03  1.59206E+04  1.69016E+04  2.15506E+03  2.09161E+04
 -8.56443E+03  1.68910E+04 -1.23819E+04  5.56280E+03 -8.71205E+03 -1.96613E+03 -3.89088E+03 -3.07168E+03
 -1.84682E+03 -6.42636E+02 -2.88876E+03  3.13160E+03 -7.00973E+03  3.00970E+03 -1.15218E+04 -1.67522E+03
 -8.91256E+03 -1.20312E+04 -2.74454E+02 -1.77853E+04  1.07021E+04 -1.65312E+04  1.85038E+04 -5.19513E+03
  1.76455E+04  8.56470E+03  8.61769E+03  1.65532E+04 -3.27259E+03  1.79697E+04 -1.30638E+04  1.15526E+04
 -1.73157E+04  3.81956E+02 -1.29703E+04 -1.08687E+04 -1.54634E+03 -1.53269E+04  7.97444E+03 -1.12171E+04
  1.14458E+04 -3.47092E+03  8.16490E+03  3.88880E+03  2.58748E+03  4.92622E+03  1.77195E+03  2.87953E+03
  2.83176E+03  1.18505E+03  4.28492E+03  2.69287E+03  5.40473E+03  5.90474E+03  4.45588E+03  1.00857E+04
 -3.58212E+03  1.48851E+04 -1.27964E+04  1.41563E+04 -1.89952E+04  3.67559E+03 -1.97327E+04 -8.41667E+03
 -9.22497E+03 -1.87798E+04  2.92464E+03 -2.02850E+04  1.13530E+04 -1.28809E+04  1.56863E+04 -3.28892E+03
  1.16403E+04  6.73253E+03  2.51505E+03  1.09049E+04 -5.28272E+03  7.25335E+03 -7.99310E+03 -1.01559E+03
 -3.55602E+03 -8.01667E+03  4.44497E+03 -8.19988E+03  7.77361E+03 -3.85866E+03  7.74666E+03  1.71320E+03
  4.90181E+03  4.18403E+03  1.84095E+03  3.61336E+03 -9.59851E+02  2.27210E+03  1.56170E+03 -1.01691E+03
  3.03698E+03 -1.22918E+03  7.55442E+03  3.26495E+03  4.26750E+03  9.70442E+03 -1.80447E+03  1.37272E+04
 -9.10376E+03  9.13290E+03 -1.25798E+04  2.74888E+03 -1.07780E+04 -4.65735E+03 -4.75042E+03 -7.69678E+03
  6.33179E+02 -7.53542E+03  5.07239E+03 -3.27865E+03  3.89413E+03  3.74388E+03 -1.51077E+03  6.37170E+03
 -7.92518E+03  3.62285E+03 -9.42483E+03 -4.67382E+03 -5.29060E+03 -1.08109E+04  1.80824E+03 -1.07982E+04
  7.05156E+03 -6.49203E+03  8.45028E+03 -1.38605E+03  6.86935E+03  2.90307E+03  1.07199E+03  5.81663E+03
 -3.80406E+03  1.84604E+03 -4.80848E+03 -4.64618E+03  2.07200E+03 -8.70484E+03  9.89964E+03 -7.16573E+03
  1.27636E+04  9.77068E+02  1.15710E+04  8.44675E+03  3.16822E+03  1.32376E+04 -4.80609E+03  1.27379E+04
 -1.10093E+04  5.15926E+03 -1.13267E+04 -1.69304E+03 -6.74167E+03 -8.51031E+03  2.03066E+03 -8.55135E+03
  8.32770E+03 -3.84976E+03  6.97063E+03  2.95329E+03  2.25496E+03  6.71574E+03 -1.24336E+03  6.35406E+03
 -3.41935E+03  4.32354E+03 -3.42094E+03  1.21597E+03 -1.80176E+03  1.60988E+03 -2.08702E+03  2.79441E+03
 -3.82435E+03  5.43041E+03 -8.76581E+03  4.91344E+03 -1.36934E+04 -2.62018E+02 -1.48108E+04 -8.81082E+03
 -7.97928E+03 -1.78335E+04  3.33452E+03 -2.08155E+04  1.32608E+04 -1.61795E+04  1.93961E+04 -6.16272E+03
  1.82063E+04  3.77305E+03  1.08846E+04  1.27619E+04  1.61626E+03  1.47387E+04 -5.08424E+03  1.07062E+04
 -7.64821E+03  3.78202E+03 -5.00166E+03 -1.71446E+03 -1.95387E+03 -1.47666E+03 -6.51526E+02  8.96572E+00
 -2.29143E+03  2.86191E+02 -3.12196E+03 -7.45776E+02 -1.20870E+03 -3.07690E+03  5.36365E+02 -4.96628E+03
  5.94669E+03 -4.49563E+03  9.26966E+03  4.52711E+02  9.81184E+03  7.81153E+03  2.77997E+03  1.41712E+04
 -7.16565E+03  1.61484E+04 -1.54639E+04  9.16416E+03 -1.77938E+04 -1.77779E+03 -1.34375E+04 -1.06531E+04
 -5.01669E+03 -1.50769E+04  3.76219E+03 -1.36957E+04  9.04899E+03 -7.77783E+03  9.46088E+03  4.23375E+02
  5.02487E+03  4.84552E+03 -9.02333E+02  4.03605E+03 -2.92605E+03 -5.81817E+02  2.61627E+02 -3.23620E+03
  4.14264E+03 -2.10290E+03  6.18948E+03  1.93498E+03  4.20459E+03  5.77638E+03  2.49323E+01  7.37888E+03
 -6.11630E+03  6.79867E+03 -1.01891E+04  7.75661E+02 -8.60218E+03 -7.36687E+03 -1.20499E+03 -1.20099E+04
  6.96901E+03 -1.04149E+04  1.12611E+04 -3.62374E+03  1.12712E+04  3.63740E+03  6.72171E+03  8.86525E+03
  1.22404E+03  1.04958E+04 -3.82531E+03  8.03719E+03 -6.12246E+03  4.42338E+03 -4.89615E+03  3.27345E+02
 -2.51771E+03 -1.17259E+02 -2.75187E+03  1.22125E+03 -4.92499E+03  1.57929E+03 -7.66824E+03 -1.85426E+03
 -7.10747E+03 -5.34619E+03 -2.16660E+03 -1.00822E+04  5.07301E+03 -1.03490E+04  9.28696E+03 -5.25947E+03
  1.00669E+04  1.44140E+03  5.78888E+03  6.79405E+03 -5.99721E+02  1.04164E+04 -7.42237E+03  6.28704E+03
