 $NMID ID='MM_0lb_SNR800_8hz_g50_3.RAW', FMTDAT='(8E13.5)'
 TRAMP=1., VOLUME=1. $END
  3.09493E+05  1.19911E+02  3.37887E+05  2.50804E+05  8.43664E+04  3.38800E+05 -1.33068E+05  2.51784E+05
 -1.91184E+05  8.42359E+04 -1.12513E+05 -3.22315E+04  3.42942E+02 -4.99291E+04  5.35876E+04 -4.61412E+02
  3.59457E+04  5.29330E+04 -1.66173E+04  7.63341E+04 -6.11825E+04  6.42946E+04 -8.54437E+04  3.25610E+04
 -8.26675E+04 -1.20410E+04 -5.88964E+04 -5.24957E+04 -1.51532E+04 -7.14767E+04  2.84264E+04 -4.63671E+04
  4.10184E+04  3.35906E+03  1.71016E+04  4.87732E+04 -3.49489E+04  4.86305E+04 -6.80338E+04 -1.19407E+02
 -5.49703E+04 -5.79931E+04 -7.60849E+03 -7.94456E+04  3.51155E+04 -5.75769E+04  5.00122E+04 -1.86766E+04
  4.61715E+04  1.16182E+04  3.32645E+04  2.63960E+04  1.55817E+04  3.06889E+04 -5.78822E+03  2.77271E+04
 -2.24762E+04  1.23054E+04 -1.76883E+04 -5.75046E+03  7.39541E+03 -7.23641E+03  2.38389E+04  1.41516E+04
  7.25991E+03  3.78974E+04 -3.44490E+04  3.73610E+04 -6.60943E+04  2.33863E+03 -5.92235E+04 -4.51499E+04
 -1.27637E+04 -6.61997E+04  4.16413E+04 -4.81835E+04  6.18756E+04 -2.62218E+03  3.75493E+04  3.48113E+04
 -5.59845E+03  3.96409E+04 -3.20552E+04  1.96694E+04 -3.42987E+04 -3.21368E+03 -1.99145E+04 -1.19048E+04
 -9.80959E+03 -1.49657E+04 -6.93940E+02 -2.01775E+04  8.74755E+03 -2.36780E+04  1.58777E+04 -1.29602E+04
  1.05876E+04  6.67630E+03 -1.07631E+04  1.27584E+04 -2.37131E+04 -6.91946E+03 -8.48461E+03 -3.80266E+04
  2.56415E+04 -4.76977E+04  5.30287E+04 -2.17116E+04  4.93395E+04  2.08106E+04  1.77812E+04  4.74331E+04
 -1.70509E+04  3.66613E+04 -2.78212E+04  2.80017E+03 -1.25065E+04 -2.97365E+04  2.14623E+04 -3.74910E+04
  4.51245E+04 -1.14985E+04  4.14400E+04  2.50163E+04  2.20113E+04  5.18221E+04 -8.37963E+03  5.75391E+04
 -3.62769E+04  3.91552E+04 -4.83444E+04  1.10738E+04 -4.90759E+04 -1.91962E+04 -2.63521E+04 -4.30855E+04
  7.75927E+03 -4.28557E+04  3.40920E+04 -1.72115E+04  3.29273E+04  1.11542E+04  5.51859E+03  2.14279E+04
 -1.39485E+04  1.02072E+04 -1.12745E+04 -7.50267E+03  5.38807E+03 -1.18667E+04  1.89620E+04  5.00117E+03
  1.49052E+04  2.28610E+04 -4.91532E+03  2.75002E+04 -2.37888E+04  1.48495E+04 -3.20187E+04 -2.55457E+03
 -2.61579E+04 -1.87679E+04 -1.23454E+04 -2.58860E+04  4.47222E+03 -2.68716E+04  2.02728E+04 -2.40534E+04
  3.33488E+04 -1.47791E+04  3.94889E+04  5.14980E+03  2.77932E+04  2.51710E+04  4.22290E+03  4.20940E+04
 -2.04705E+04  3.39722E+04 -3.11991E+04  1.20842E+04 -2.32222E+04 -1.01358E+04 -5.48982E+03 -1.24028E+04
  9.09491E+02 -6.38784E+02 -8.14419E+03  8.49233E+03 -2.15394E+04  5.21342E+03 -2.08526E+04 -1.01074E+04
 -1.22430E+04 -2.45205E+04  6.28126E+03 -2.84935E+04  1.92492E+04 -2.03026E+04  2.37171E+04 -1.39586E+03
  1.53194E+04  1.71206E+04 -1.36623E+03  2.42141E+04 -1.74963E+04  1.39770E+04 -2.51901E+04 -4.67713E+03
 -1.80154E+04 -2.16378E+04 -2.48550E+03 -2.93973E+04  1.32023E+04 -2.39575E+04  2.42602E+04 -1.30114E+04
  2.26486E+04 -5.52804E+02  1.64657E+04  5.10386E+03  9.53545E+03  1.22940E+03  1.26581E+04 -2.34148E+03
  2.31887E+04  3.06981E+03  2.73562E+04  1.89433E+04  1.82478E+04  3.93506E+04 -2.66846E+03  4.63394E+04
 -2.65841E+04  3.90154E+04 -4.34876E+04  2.02944E+04 -4.68320E+04 -3.47211E+03 -3.82495E+04 -2.78321E+04
 -1.49631E+04 -3.94755E+04  1.35521E+04 -3.37620E+04  2.95990E+04 -1.61074E+04  2.53248E+04  8.26247E+03
  8.34389E+03  1.99263E+04 -1.21968E+04  1.53592E+04 -2.09215E+04  2.41628E+03 -1.60892E+04 -1.33503E+04
 -1.93967E+02 -2.03651E+04  1.13149E+04 -1.48400E+04  1.44121E+04 -1.52003E+03  3.63012E+03  8.97512E+03
 -9.06017E+03  4.22081E+03 -9.67939E+03 -6.98285E+03 -2.36721E+03 -1.92668E+04  1.27193E+04 -2.09670E+04
  2.45521E+04 -1.23926E+04  2.85955E+04  3.35711E+03  2.47848E+04  1.98133E+04  1.15403E+04  3.12909E+04
 -5.89241E+03  3.31261E+04 -2.20790E+04  1.99961E+04 -2.40251E+04  4.23657E+03 -1.63533E+04 -6.68910E+03
 -6.86791E+03 -7.61601E+03 -7.55362E+02  8.87169E+01 -2.99051E+03  3.79037E+03 -7.68163E+03  5.58377E+03
 -1.48705E+04 -1.57604E+03 -1.58779E+04 -1.24517E+04 -6.57636E+03 -2.06974E+04  6.50424E+03 -1.65618E+04
  1.36040E+04 -6.98272E+03  9.53573E+03  4.87235E+03 -8.53999E+02  6.57165E+03 -8.90592E+03 -2.21111E+02
 -8.54684E+03 -1.06807E+04 -1.02625E+03 -1.70822E+04  9.31825E+03 -1.77607E+04  2.15353E+04 -9.56998E+03
  2.51155E+04  2.93357E+03  1.80706E+04  1.57452E+04  3.48568E+03  2.05602E+04 -1.00519E+04  1.71864E+04
 -1.37729E+04  4.64791E+03 -7.12534E+03 -3.91718E+03  2.28801E+03 -4.61592E+03  8.49141E+03 -1.26032E+03
  8.17523E+03  7.86605E+03  1.30268E+03  1.32621E+04 -9.69932E+03  1.27628E+04 -1.72150E+04  2.86323E+03
 -1.15056E+04 -8.66387E+03  3.90149E+02 -1.41492E+04  9.71990E+03 -7.62775E+03  1.00293E+04  3.44809E+03
  2.55510E+03  1.10460E+04 -8.41841E+03  1.23114E+04 -1.52101E+04  5.64345E+03 -1.55670E+04 -6.10456E+03
 -8.73781E+03 -1.76119E+04  4.33763E+03 -2.00117E+04  1.65210E+04 -1.18586E+04  1.83229E+04  3.57996E+03
  1.10826E+04  1.43566E+04 -1.90288E+03  1.74799E+04 -1.28036E+04  9.27089E+03 -1.34146E+04 -1.83305E+03
 -1.20340E+04 -1.13678E+04 -1.63730E+03 -1.32428E+04  7.32329E+03 -1.03270E+04  8.27559E+03 -3.78687E+03
  5.00066E+03  2.50995E+03 -8.05014E+02  2.04108E+03 -1.05346E+03 -4.00498E+03  2.83714E+03 -8.30054E+03
  1.28529E+04 -5.11894E+03  1.77329E+04  2.09616E+03  1.72317E+04  1.21955E+04  1.08819E+04  2.32745E+04
 -5.56700E+03  2.65277E+04 -2.22996E+04  1.94812E+04 -2.83051E+04  3.45222E+03 -2.31603E+04 -1.00689E+04
 -1.13692E+04 -1.86658E+04 -2.83077E+02 -1.62525E+04  5.67594E+03 -9.78936E+03  5.58128E+03 -6.23469E+03
  4.12359E+03 -3.31991E+03  3.55664E+03 -4.02380E+03  6.60235E+03 -3.97297E+03  9.01016E+03 -1.69905E+03
  1.17006E+04  2.38854E+03  6.88112E+03  1.06253E+04 -2.66859E+03  1.24444E+04 -1.23447E+04  1.00843E+04
 -1.64924E+04 -1.42175E+03 -1.07704E+04 -1.16398E+04 -1.87157E+03 -1.76391E+04  9.78906E+03 -1.72757E+04
  1.81487E+04 -9.80075E+03  2.17274E+04  3.24326E+03  1.49491E+04  1.53833E+04  2.41879E+03  2.00632E+04
 -8.63532E+03  1.60570E+04 -1.17309E+04  6.14188E+03 -7.89861E+03 -2.08779E+03 -3.57536E+03 -2.59134E+03
 -1.69872E+03 -3.29992E+02 -2.71929E+03  3.54027E+03 -6.74238E+03  2.92415E+03 -1.12033E+04 -1.72819E+03
 -8.23016E+03 -1.12413E+04  8.40504E+01 -1.65188E+04  9.86479E+03 -1.49933E+04  1.65076E+04 -4.62671E+03
  1.63731E+04  7.79197E+03  7.70140E+03  1.45379E+04 -3.60817E+03  1.69058E+04 -1.18465E+04  1.07827E+04
 -1.61504E+04  2.90856E+02 -1.19110E+04 -9.82975E+03 -1.18658E+03 -1.46660E+04  7.30886E+03 -1.01382E+04
  1.05646E+04 -3.19114E+03  7.31697E+03  2.83119E+03  2.96444E+03  4.66724E+03  1.49614E+03  2.22277E+03
  3.08739E+03  1.72015E+03  4.13013E+03  1.96847E+03  5.31268E+03  5.66689E+03  4.27733E+03  9.02613E+03
 -2.99090E+03  1.36648E+04 -1.18794E+04  1.31734E+04 -1.76016E+04  3.22462E+03 -1.75114E+04 -7.24628E+03
 -8.84130E+03 -1.73238E+04  2.51784E+03 -1.88409E+04  1.05698E+04 -1.18672E+04  1.40620E+04 -3.13958E+03
  1.08790E+04  6.21143E+03  2.50373E+03  9.87549E+03 -4.69769E+03  6.49407E+03 -7.15516E+03 -1.13003E+03
 -2.89688E+03 -7.19603E+03  3.95902E+03 -7.95248E+03  7.05870E+03 -3.67681E+03  6.72030E+03  1.78581E+03
  3.99363E+03  3.70778E+03  1.82666E+03  3.71098E+03 -1.34615E+03  2.12499E+03  1.63286E+03 -6.63256E+02
  2.93475E+03 -1.11352E+03  7.00843E+03  2.83982E+03  4.42891E+03  9.60904E+03 -1.67076E+03  1.25863E+04
 -8.35174E+03  8.40603E+03 -1.13061E+04  1.87669E+03 -1.00682E+04 -4.06888E+03 -3.86872E+03 -7.46728E+03
  9.59994E+02 -7.35712E+03  4.51912E+03 -2.85211E+03  4.19154E+03  3.51556E+03 -1.42740E+03  6.09564E+03
 -7.01572E+03  3.41460E+03 -8.66864E+03 -3.91078E+03 -4.35739E+03 -9.80539E+03  1.63001E+03 -9.52427E+03
  6.00133E+03 -6.27845E+03  7.45894E+03 -1.13373E+03  6.19161E+03  3.05261E+03  7.46186E+02  4.98118E+03
 -3.20182E+03  1.25037E+03 -4.27495E+03 -3.60908E+03  1.73780E+03 -7.45403E+03  8.40852E+03 -6.27951E+03
  1.12170E+04  9.01288E+02  1.11165E+04  7.71436E+03  3.41778E+03  1.17924E+04 -4.54352E+03  1.11400E+04
 -9.71218E+03  5.04495E+03 -9.96343E+03 -1.57362E+03 -5.39455E+03 -7.73288E+03  1.68743E+03 -7.30143E+03
  7.24710E+03 -3.39885E+03  6.11847E+03  3.14628E+03  2.59493E+03  6.30138E+03 -1.31608E+03  5.97827E+03
 -2.71011E+03  3.83725E+03 -2.84377E+03  1.34634E+03 -1.53913E+03  1.08561E+03 -1.73980E+03  2.32613E+03
 -3.04042E+03  4.55249E+03 -8.04025E+03  4.30415E+03 -1.17430E+04 -1.17368E+02 -1.30320E+04 -7.48210E+03
 -6.77131E+03 -1.57135E+04  3.12824E+03 -1.82361E+04  1.15649E+04 -1.45415E+04  1.68101E+04 -5.86345E+03
  1.61495E+04  3.48401E+03  9.73012E+03  1.08442E+04  1.27711E+03  1.25284E+04 -5.19114E+03  9.13740E+03
 -7.41686E+03  3.61266E+03 -4.58765E+03 -1.17848E+03 -1.50721E+03 -9.88840E+02 -5.57734E+02 -2.15587E+02
 -1.94664E+03  1.97711E+02 -2.94519E+03 -6.88090E+02 -1.03357E+03 -3.18801E+03  4.48527E+02 -4.61695E+03
  5.19944E+03 -3.87360E+03  7.94321E+03 -8.64655E+01  8.65599E+03  6.65579E+03  2.84357E+03  1.24984E+04
 -5.70097E+03  1.38770E+04 -1.32452E+04  8.75316E+03 -1.50563E+04 -1.39423E+03 -1.15238E+04 -9.44893E+03
 -4.71304E+03 -1.28728E+04  3.06067E+03 -1.16777E+04  8.02823E+03 -6.81054E+03  8.60480E+03  6.01341E+02
  4.64471E+03  4.55892E+03 -8.29503E+02  3.91843E+03 -2.69972E+03 -3.71906E+02  2.77080E+02 -3.30874E+03
  3.97902E+03 -1.88070E+03  5.11586E+03  1.78357E+03  3.58788E+03  5.04279E+03 -7.59097E+01  6.88174E+03
 -5.81000E+03  5.42971E+03 -8.73081E+03  6.04821E+02 -7.52310E+03 -6.33291E+03 -1.04445E+03 -1.06442E+04
  5.69647E+03 -9.10821E+03  9.95200E+03 -2.75312E+03  9.79565E+03  2.53956E+03  5.78541E+03  7.76661E+03
  8.50896E+02  8.98484E+03 -4.01006E+03  7.09815E+03 -5.53520E+03  3.81447E+03 -4.16759E+03  6.84218E+02
 -2.38791E+03 -1.18741E+02 -2.55051E+03  8.67741E+02 -4.66183E+03  1.43271E+03 -6.92276E+03 -1.65643E+03
 -6.25130E+03 -4.83562E+03 -1.92942E+03 -8.86128E+03  3.99577E+03 -8.93125E+03  7.55561E+03 -4.13717E+03
  8.49326E+03  1.37075E+03  4.66066E+03  6.44331E+03 -7.30161E+02  8.58670E+03 -6.59327E+03  5.57254E+03
