 $NMID ID='MM_0lb_SNR800_15hz_g55_19.RAW', FMTDAT='(8E13.5)'
 TRAMP=1., VOLUME=1. $END
  3.09798E+05  5.24085E+02  3.37753E+05  2.50746E+05  8.48760E+04  3.37809E+05 -1.32542E+05  2.50807E+05
 -1.90190E+05  8.32466E+04 -1.11515E+05 -3.28586E+04  7.70766E+02 -5.01870E+04  5.39328E+04 -4.81829E+02
  3.53212E+04  5.29890E+04 -1.66155E+04  7.57299E+04 -6.04271E+04  6.34208E+04 -8.42345E+04  3.22697E+04
 -8.08190E+04 -1.14787E+04 -5.73198E+04 -5.13632E+04 -1.52208E+04 -6.93390E+04  2.77409E+04 -4.57395E+04
  4.00528E+04  3.71688E+03  1.62617E+04  4.77899E+04 -3.43237E+04  4.72986E+04 -6.66517E+04  8.62453E+00
 -5.38566E+04 -5.69183E+04 -7.00659E+03 -7.71030E+04  3.41454E+04 -5.52630E+04  4.79008E+04 -1.73025E+04
  4.37529E+04  1.14294E+04  3.21410E+04  2.52061E+04  1.59594E+04  2.93981E+04 -5.14772E+03  2.73165E+04
 -2.20564E+04  1.24786E+04 -1.83624E+04 -4.84950E+03  5.62810E+03 -7.82211E+03  2.21459E+04  1.24902E+04
  7.01126E+03  3.55132E+04 -3.23759E+04  3.56075E+04 -6.36742E+04  2.06637E+03 -5.70085E+04 -4.27636E+04
 -1.23441E+04 -6.35067E+04  3.97197E+04 -4.56990E+04  5.80823E+04 -2.01206E+03  3.42998E+04  3.24654E+04
 -6.18175E+03  3.59987E+04 -2.97772E+04  1.57458E+04 -3.01858E+04 -4.29038E+03 -1.69071E+04 -1.09041E+04
 -8.14652E+03 -1.32751E+04 -8.57969E+02 -1.85230E+04  7.17808E+03 -2.30326E+04  1.57243E+04 -1.32750E+04
  1.15390E+04  5.33358E+03 -7.94181E+03  1.27803E+04 -2.13143E+04 -4.37694E+03 -8.43397E+03 -3.35275E+04
  2.26290E+04 -4.34894E+04  4.81148E+04 -1.97816E+04  4.51488E+04  1.94928E+04  1.59054E+04  4.45108E+04
 -1.59503E+04  3.35323E+04 -2.52664E+04  1.86071E+03 -9.87353E+03 -2.79516E+04  2.08322E+04 -3.37604E+04
  4.09249E+04 -9.12635E+03  3.50723E+04  2.38789E+04  1.81021E+04  4.65425E+04 -7.97849E+03  5.04124E+04
 -3.18500E+04  3.39225E+04 -4.16716E+04  9.86792E+03 -4.26352E+04 -1.65834E+04 -2.38511E+04 -3.81219E+04
  7.29856E+03 -3.78112E+04  3.16983E+04 -1.45772E+04  2.89498E+04  1.10382E+04  3.55534E+03  1.94965E+04
 -1.35273E+04  8.37934E+03 -1.03907E+04 -7.47769E+03  5.77989E+03 -1.11355E+04  1.82019E+04  5.84636E+03
  1.36174E+04  2.23839E+04 -6.26607E+03  2.49522E+04 -2.24909E+04  1.19223E+04 -2.81539E+04 -4.72316E+03
 -2.03570E+04 -1.75086E+04 -8.27352E+03 -2.05471E+04  3.94714E+03 -1.96423E+04  1.60540E+04 -1.79968E+04
  2.57215E+04 -1.27019E+04  3.23633E+04  2.95509E+03  2.37702E+04  2.00210E+04  4.15241E+03  3.60948E+04
 -1.75700E+04  3.04560E+04 -2.77422E+04  1.05196E+04 -2.10296E+04 -1.02755E+04 -4.30620E+03 -1.35510E+04
  1.73431E+03 -3.08212E+03 -4.61058E+03  6.78736E+03 -1.62254E+04  5.17094E+03 -1.64057E+04 -7.25142E+03
 -1.00262E+04 -1.87131E+04  5.51446E+03 -2.29298E+04  1.54153E+04 -1.62628E+04  1.81121E+04 -1.72138E+03
  1.15778E+04  1.29935E+04 -1.06788E+03  1.86329E+04 -1.30066E+04  1.07536E+04 -1.88724E+04 -3.77334E+03
 -1.37740E+04 -1.69864E+04 -1.86513E+03 -2.24982E+04  1.03454E+04 -1.84970E+04  1.89946E+04 -9.21726E+03
  1.75335E+04  4.87591E+02  1.25358E+04  4.51528E+03  6.76020E+03  9.45366E+02  9.46041E+03 -1.85267E+03
  1.72318E+04  2.83270E+03  1.91909E+04  1.49522E+04  1.23554E+04  3.00373E+04 -2.99738E+03  3.37654E+04
 -1.96983E+04  2.71023E+04 -3.16584E+04  1.36451E+04 -3.30738E+04 -2.32957E+03 -2.74045E+04 -1.91052E+04
 -1.19024E+04 -2.74187E+04  9.32519E+03 -2.40899E+04  2.09677E+04 -1.28102E+04  1.88577E+04  5.71306E+03
  7.23438E+03  1.41681E+04 -9.08298E+03  1.24340E+04 -1.61386E+04  2.70546E+03 -1.21143E+04 -1.02513E+04
 -2.14769E+02 -1.48101E+04  7.81883E+03 -1.16163E+04  9.92475E+03 -1.35656E+03  2.12191E+03  6.40108E+03
 -6.74900E+03  2.56805E+03 -5.98130E+03 -5.57675E+03 -3.98175E+02 -1.30767E+04  9.18731E+03 -1.37018E+04
  1.63091E+04 -7.30340E+03  1.71682E+04  3.07923E+03  1.54861E+04  1.29972E+04  7.27457E+03  2.00377E+04
 -3.39701E+03  2.17338E+04 -1.38400E+04  1.36933E+04 -1.56346E+04  3.37346E+03 -1.06780E+04 -3.52765E+03
 -5.30778E+03 -4.54490E+03 -6.62942E+02  1.10220E+03 -2.47304E+03  2.37150E+03 -4.87410E+03  4.16610E+03
 -1.01698E+04 -5.80973E+02 -1.07711E+04 -8.87104E+03 -4.30411E+03 -1.46347E+04  4.62813E+03 -1.13099E+04
  9.41635E+03 -4.97734E+03  6.70440E+03  2.81369E+03  3.36367E+02  4.35194E+03 -4.86822E+03 -3.47090E+02
 -4.55024E+03 -6.91242E+03 -8.20392E+02 -1.02631E+04  5.79378E+03 -1.08924E+04  1.33924E+04 -5.93913E+03
  1.55665E+04  1.46988E+03  1.18803E+04  9.14466E+03  2.35883E+03  1.23471E+04 -7.08978E+03  1.07904E+04
 -8.59460E+03  3.20853E+03 -4.49776E+03 -1.88599E+03  1.61426E+03 -2.43976E+03  6.27379E+03 -1.18723E+03
  5.36869E+03  4.81337E+03  1.24621E+03  8.37305E+03 -5.96711E+03  8.17105E+03 -1.07677E+04  2.24173E+03
 -6.92043E+03 -5.50047E+03  3.73801E+02 -8.82073E+03  5.94538E+03 -4.42593E+03  5.30816E+03  1.93259E+03
  1.05200E+03  5.56991E+03 -5.19699E+03  6.97566E+03 -7.83958E+03  3.21031E+03 -7.66202E+03 -2.37836E+03
 -4.95595E+03 -9.40740E+03  2.15042E+03 -1.08946E+04  9.19957E+03 -6.89773E+03  1.00355E+04  1.74162E+03
  6.25834E+03  8.08937E+03 -5.62786E+02  1.00876E+04 -7.62886E+03  5.82202E+03 -7.64475E+03 -7.70619E+02
 -7.54762E+03 -6.82269E+03 -1.22756E+03 -7.52620E+03  3.98943E+03 -6.36780E+03  4.45543E+03 -3.29595E+03
  3.63023E+03  9.56716E+02 -3.11148E+02  1.28811E+03 -5.40761E+01 -1.46724E+03  9.46206E+02 -3.74272E+03
  6.12826E+03 -2.05257E+03  8.55579E+03  1.13600E+03  8.89526E+03  5.58467E+03  6.94151E+03  1.14053E+04
 -2.33728E+03  1.36889E+04 -1.17351E+04  1.01128E+04 -1.49839E+04  1.89390E+03 -1.16942E+04 -4.52116E+03
 -6.11808E+03 -9.73776E+03 -4.66643E+01 -8.10578E+03  3.03155E+03 -4.12864E+03  2.98353E+03 -2.96058E+03
  2.17962E+03 -2.15548E+03  2.74601E+03 -2.91881E+03  4.12831E+03 -1.87204E+03  4.95366E+03 -5.38416E+02
  6.27373E+03  1.46763E+03  2.60175E+03  5.21037E+03 -1.67149E+03  5.75948E+03 -6.60155E+03  4.50397E+03
 -7.79374E+03 -7.92423E+02 -4.42522E+03 -5.29294E+03  1.23856E+01 -8.32816E+03  4.48014E+03 -8.30870E+03
  8.59339E+03 -4.84290E+03  1.05968E+04  7.37841E+02  7.49522E+03  6.85119E+03  1.30756E+03  9.41180E+03
 -3.59556E+03  8.34386E+03 -5.25891E+03  2.89149E+03 -3.38277E+03 -1.17078E+03 -1.30621E+03 -1.12174E+03
 -5.32230E+02  2.35810E+02 -1.25796E+03  2.33679E+03 -3.39417E+03  1.48039E+03 -5.76469E+03 -9.10295E+02
 -3.30108E+03 -5.99958E+03  4.63578E+02 -7.52460E+03  4.85958E+03 -7.16375E+03  6.85182E+03 -2.07134E+03
  6.89936E+03  3.68830E+03  3.23831E+03  5.94155E+03 -1.75298E+03  7.39166E+03 -5.05827E+03  4.44014E+03
 -6.60380E+03  6.64985E+02 -5.59551E+03 -3.89363E+03 -5.51429E+02 -5.81658E+03  3.10602E+03 -4.49377E+03
  4.29707E+03 -1.82808E+03  3.22966E+03  1.21244E+03  9.51395E+02  2.40010E+03  1.05246E+03  8.86850E+02
  1.81843E+03  8.03914E+02  1.91524E+03  1.32308E+03  1.79724E+03  2.93472E+03  2.04813E+03  3.30111E+03
 -1.62521E+03  4.84689E+03 -4.33564E+03  6.33751E+03 -6.68515E+03  1.75552E+03 -7.38389E+03 -1.97841E+03
 -3.16196E+03 -6.48874E+03  7.72791E+02 -7.87735E+03  3.92327E+03 -4.40297E+03  5.58206E+03 -1.38876E+03
  4.30109E+03  2.58171E+03  6.92128E+02  4.01079E+03 -1.68922E+03  2.54619E+03 -2.38305E+03 -3.43024E+02
 -1.34435E+03 -2.65964E+03  1.74369E+03 -2.90220E+03  2.65792E+03 -1.73836E+03  2.28461E+03  8.73304E+02
  1.58257E+03  6.36185E+02  7.54098E+02  1.41778E+02 -5.06632E+02  9.96866E+02  1.67643E+03 -5.92988E+02
  6.00181E+02 -6.75994E+02  2.91584E+03  1.15510E+03  8.28962E+02  3.78057E+03 -7.97162E+02  4.80073E+03
 -2.95098E+03  2.58634E+03 -3.78897E+03  6.38067E+02 -3.59587E+03 -1.06845E+03 -8.38575E+02 -2.17732E+03
  7.41974E+02 -2.34540E+03  1.57161E+03 -1.02841E+03  1.16393E+03  1.90200E+03 -1.04305E+03  1.88037E+03
 -2.71603E+03  1.45117E+03 -2.56065E+03 -1.88310E+03 -1.25064E+03 -3.51164E+03  5.30735E+02 -3.36746E+03
  1.64059E+03 -1.49195E+03  2.05270E+03  7.14041E+01  2.32923E+03  4.03202E+02  3.41624E+02  2.12488E+03
 -9.80625E+02  3.34521E+02 -1.64808E+03 -5.53160E+02  1.01637E+03 -2.36231E+03  2.97435E+03 -1.81503E+03
  3.26650E+03  3.41926E+02  3.85250E+03  2.10852E+03  1.26615E+03  3.54033E+03 -1.03952E+03  3.41820E+03
 -3.24214E+03  1.02612E+03 -3.23090E+03 -8.75668E+01 -1.82869E+03 -2.56277E+03  3.90998E+02 -1.87713E+03
  2.63590E+03 -1.07016E+03  1.80105E+03  9.43275E+02  6.43201E+02  2.00537E+03 -1.47403E+02  2.27495E+03
 -7.83396E+02  1.60437E+03 -7.92167E+02  5.70154E+02 -1.84552E+02  5.60904E+02 -8.85533E+02  8.23429E+02
 -9.49231E+02  1.78081E+03 -3.14740E+03  1.05976E+03 -3.44878E+03  7.33592E+01 -4.20961E+03 -2.10098E+03
 -2.13960E+03 -4.76697E+03  9.95823E+02 -5.79639E+03  2.77599E+03 -4.50598E+03  5.24313E+03 -1.89438E+03
  4.31367E+03  8.06094E+02  2.73912E+03  3.46475E+03 -3.19581E+01  3.23910E+03 -1.41173E+03  2.60826E+03
 -2.00738E+03  8.29265E+02 -1.05037E+03 -4.29655E+02 -8.86737E+02 -7.00014E+01 -6.22557E+02  2.86406E+02
 -1.29029E+03  3.30142E+01 -1.35919E+03 -3.01807E+02 -4.53056E+01 -8.97100E+02 -1.22602E+02 -1.51059E+03
  2.11412E+03 -1.27519E+03  1.61842E+03  2.51521E+02  2.35156E+03  1.85870E+03 -9.29588E+00  3.16221E+03
 -1.47156E+03  3.96784E+03 -3.47096E+03  2.34987E+03 -4.12740E+03 -4.94952E+02 -2.87024E+03 -2.46778E+03
 -1.19754E+03 -2.92739E+03  8.22565E+02 -2.60454E+03  1.68248E+03 -1.35632E+03  1.99795E+03  3.69793E+02
  1.14181E+03  8.22736E+02  1.46281E+02  9.44136E+02 -3.90614E+02  4.38433E+01 -9.57558E+01 -4.81290E+02
  1.03346E+03 -1.63805E+02  6.92649E+02  4.04359E+02  3.14945E+02  1.25951E+03  2.90588E+02  1.28583E+03
 -1.25745E+03  1.42646E+03 -1.78007E+03  4.57658E+02 -1.36480E+03 -1.42830E+03 -1.67587E+02 -2.42055E+03
  1.06160E+03 -2.03535E+03  1.83137E+03 -4.73044E+02  2.24740E+03 -9.14327E+01  1.27227E+03  1.81134E+03
  2.39567E+02  1.73283E+03 -4.26757E+02  1.45620E+03 -1.31789E+03  1.20295E+03 -9.69114E+02  1.61906E+02
 -4.66848E+02 -3.40184E+02 -7.45555E+02 -5.88940E+01 -1.13601E+03  3.96472E+02 -1.51079E+03 -3.32107E+02
 -1.85295E+03 -4.02577E+02 -6.77307E+02 -1.93320E+03  1.12087E+03 -2.41099E+03  1.69894E+03 -7.49808E+02
  1.88335E+03  2.50130E+02  2.63784E+02  1.48591E+03 -2.45346E+02  1.92092E+03 -1.12050E+03  1.35536E+03
