 $NMID ID='MM_0lb_SNR800_14hz_g55_48.RAW', FMTDAT='(8E13.5)'
 TRAMP=1., VOLUME=1. $END
  3.09917E+05  5.87693E+02  3.37785E+05  2.50624E+05  8.46312E+04  3.38225E+05 -1.32668E+05  2.51156E+05
 -1.90844E+05  8.34470E+04 -1.11967E+05 -3.23217E+04  8.51508E+02 -5.06336E+04  5.37668E+04 -1.26564E+02
  3.52552E+04  5.25552E+04 -1.66239E+04  7.56302E+04 -6.11400E+04  6.34172E+04 -8.43814E+04  3.22388E+04
 -8.12275E+04 -1.14871E+04 -5.73479E+04 -5.14487E+04 -1.53280E+04 -7.00902E+04  2.77426E+04 -4.61360E+04
  4.04896E+04  3.67987E+03  1.64334E+04  4.78640E+04 -3.43835E+04  4.74955E+04 -6.69692E+04 -3.34086E+02
 -5.35535E+04 -5.68868E+04 -6.70142E+03 -7.72957E+04  3.40159E+04 -5.55217E+04  4.82523E+04 -1.72269E+04
  4.37105E+04  1.13468E+04  3.20795E+04  2.55299E+04  1.57610E+04  2.95731E+04 -5.41179E+03  2.69337E+04
 -2.21930E+04  1.22775E+04 -1.86251E+04 -4.99771E+03  5.93036E+03 -7.41818E+03  2.24587E+04  1.25291E+04
  7.04409E+03  3.57580E+04 -3.24573E+04  3.57860E+04 -6.39634E+04  1.79321E+03 -5.75282E+04 -4.32749E+04
 -1.23831E+04 -6.39442E+04  4.00584E+04 -4.57729E+04  5.88685E+04 -2.21167E+03  3.46178E+04  3.25868E+04
 -6.26246E+03  3.69385E+04 -3.02154E+04  1.68383E+04 -3.11415E+04 -4.38128E+03 -1.73225E+04 -1.12937E+04
 -8.50012E+03 -1.37046E+04 -7.80875E+02 -1.85254E+04  7.76195E+03 -2.34782E+04  1.56364E+04 -1.30438E+04
  1.08585E+04  5.24192E+03 -8.85576E+03  1.31497E+04 -2.16895E+04 -4.90859E+03 -8.32564E+03 -3.43977E+04
  2.32406E+04 -4.42724E+04  4.91468E+04 -1.95706E+04  4.57817E+04  1.97694E+04  1.60428E+04  4.47124E+04
 -1.60283E+04  3.40322E+04 -2.55705E+04  2.05848E+03 -1.00149E+04 -2.80278E+04  2.10693E+04 -3.45173E+04
  4.16321E+04 -9.24591E+03  3.63967E+04  2.38546E+04  1.87421E+04  4.69179E+04 -7.71509E+03  5.10317E+04
 -3.20899E+04  3.46673E+04 -4.27189E+04  1.01616E+04 -4.36765E+04 -1.72993E+04 -2.39255E+04 -3.84054E+04
  7.46668E+03 -3.86461E+04  3.18444E+04 -1.52723E+04  2.98036E+04  1.09907E+04  4.19132E+03  1.95068E+04
 -1.37130E+04  8.36858E+03 -1.05805E+04 -7.65176E+03  5.98502E+03 -1.07951E+04  1.81480E+04  5.78874E+03
  1.34062E+04  2.19112E+04 -5.71469E+03  2.54567E+04 -2.27667E+04  1.15572E+04 -2.85824E+04 -4.43268E+03
 -2.11873E+04 -1.73619E+04 -8.82112E+03 -2.11697E+04  3.83263E+03 -2.06529E+04  1.65907E+04 -1.88538E+04
  2.71298E+04 -1.31843E+04  3.37038E+04  3.20868E+03  2.42129E+04  2.05579E+04  4.50441E+03  3.70870E+04
 -1.80720E+04  3.10116E+04 -2.83610E+04  1.05881E+04 -2.12608E+04 -9.86823E+03 -4.37769E+03 -1.31435E+04
  2.09696E+03 -2.49191E+03 -5.26492E+03  6.91749E+03 -1.69677E+04  5.08026E+03 -1.69218E+04 -7.61533E+03
 -1.03455E+04 -1.95592E+04  5.27748E+03 -2.37019E+04  1.56871E+04 -1.70423E+04  1.86383E+04 -1.31563E+03
  1.18503E+04  1.34231E+04 -1.22053E+03  1.96336E+04 -1.34533E+04  1.12604E+04 -1.96865E+04 -4.22947E+03
 -1.44958E+04 -1.74685E+04 -1.77193E+03 -2.38881E+04  1.07310E+04 -1.91042E+04  1.97368E+04 -9.97224E+03
  1.83800E+04  2.40165E+02  1.33867E+04  4.55301E+03  6.99255E+03  8.93912E+02  9.84573E+03 -1.62053E+03
  1.81795E+04  2.57191E+03  2.00846E+04  1.55904E+04  1.34147E+04  3.11616E+04 -2.76921E+03  3.57980E+04
 -2.03435E+04  2.88210E+04 -3.31461E+04  1.44545E+04 -3.49594E+04 -2.20488E+03 -2.85203E+04 -2.00636E+04
 -1.21869E+04 -2.85013E+04  9.79460E+03 -2.57170E+04  2.23377E+04 -1.31833E+04  1.96727E+04  5.68498E+03
  7.22002E+03  1.47454E+04 -9.05582E+03  1.30161E+04 -1.65213E+04  2.30307E+03 -1.27682E+04 -1.03644E+04
 -1.75276E+02 -1.57299E+04  8.47736E+03 -1.19125E+04  1.04122E+04 -1.56327E+03  2.05065E+03  6.95457E+03
 -7.07843E+03  2.70289E+03 -6.25233E+03 -5.78009E+03 -6.40088E+02 -1.40554E+04  9.85934E+03 -1.45900E+04
  1.76070E+04 -7.59752E+03  1.89693E+04  3.08676E+03  1.62021E+04  1.37265E+04  7.28925E+03  2.11800E+04
 -3.37243E+03  2.33428E+04 -1.50083E+04  1.45219E+04 -1.64361E+04  3.67859E+03 -1.18247E+04 -3.77818E+03
 -5.56755E+03 -5.04943E+03 -7.22440E+02  1.24326E+03 -2.96119E+03  2.70486E+03 -5.58043E+03  4.16835E+03
 -1.09170E+04 -5.45270E+02 -1.15669E+04 -9.27484E+03 -4.90054E+03 -1.51664E+04  5.04990E+03 -1.16872E+04
  9.66307E+03 -5.27197E+03  6.95144E+03  2.84857E+03 -7.66296E+00  4.47664E+03 -5.47364E+03 -2.46486E+02
 -5.37123E+03 -7.38933E+03 -7.42994E+02 -1.07906E+04  6.30890E+03 -1.17760E+04  1.45179E+04 -6.06568E+03
  1.70094E+04  1.23016E+03  1.25248E+04  9.73077E+03  2.62299E+03  1.34040E+04 -7.35735E+03  1.17279E+04
 -9.50243E+03  3.60460E+03 -5.18356E+03 -2.21712E+03  1.77454E+03 -3.15382E+03  6.12101E+03 -1.21608E+03
  5.74115E+03  4.84712E+03  1.18405E+03  9.30505E+03 -6.48049E+03  9.08858E+03 -1.12979E+04  2.20734E+03
 -7.44590E+03 -5.75417E+03 -1.87145E+02 -9.89647E+03  6.08240E+03 -4.55363E+03  6.09572E+03  2.01773E+03
  1.47913E+03  6.36944E+03 -5.81171E+03  7.77987E+03 -8.58031E+03  3.42211E+03 -8.58224E+03 -3.04915E+03
 -5.38569E+03 -1.03540E+04  2.56045E+03 -1.21846E+04  1.02025E+04 -7.12015E+03  1.09000E+04  1.79008E+03
  6.72351E+03  8.70760E+03 -4.45187E+02  1.07820E+04 -7.95691E+03  6.41070E+03 -8.18907E+03 -6.07919E+02
 -7.60824E+03 -7.36011E+03 -1.65010E+03 -7.99803E+03  4.38258E+03 -6.74799E+03  4.69241E+03 -3.69690E+03
  3.96843E+03  8.44775E+02 -5.28173E+02  1.55528E+03  1.55701E+02 -1.40112E+03  1.37526E+03 -4.14980E+03
  7.14924E+03 -2.31189E+03  9.62335E+03  9.66268E+02  9.85852E+03  6.54757E+03  7.54705E+03  1.30199E+04
 -2.76198E+03  1.50373E+04 -1.31562E+04  1.11903E+04 -1.66027E+04  2.16363E+03 -1.33637E+04 -5.26671E+03
 -6.84127E+03 -1.07794E+04 -2.98079E+02 -9.09342E+03  3.45928E+03 -4.65845E+03  3.03504E+03 -3.47837E+03
  2.32855E+03 -2.11661E+03  2.90446E+03 -3.04823E+03  4.47798E+03 -2.06954E+03  5.90395E+03 -1.94067E+02
  6.96995E+03  1.96843E+03  3.26054E+03  6.14387E+03 -1.94180E+03  6.17990E+03 -7.57703E+03  4.86561E+03
 -8.52362E+03 -7.79148E+02 -4.81143E+03 -5.95557E+03 -3.39905E+01 -9.41075E+03  5.22331E+03 -9.22383E+03
  9.65461E+03 -5.53700E+03  1.16061E+04  1.21479E+03  8.31904E+03  7.97268E+03  1.46140E+03  1.09726E+04
 -4.31198E+03  9.48491E+03 -6.11469E+03  2.93621E+03 -3.85530E+03 -1.38242E+03 -1.68979E+03 -1.33002E+03
 -6.14714E+02 -2.48464E+01 -1.78079E+03  2.19554E+03 -3.98396E+03  1.34391E+03 -6.32761E+03 -8.90747E+02
 -3.74286E+03 -6.70268E+03  3.72953E+02 -8.38617E+03  5.26963E+03 -7.80247E+03  7.77202E+03 -2.13912E+03
  8.15507E+03  4.07990E+03  3.67709E+03  7.20725E+03 -1.37942E+03  8.12072E+03 -5.85324E+03  4.95316E+03
 -7.89128E+03  3.85610E+02 -6.33146E+03 -4.85175E+03 -5.33734E+02 -6.58958E+03  3.03374E+03 -5.24565E+03
  5.41616E+03 -1.90561E+03  3.73124E+03  7.25041E+02  1.35723E+03  2.73754E+03  1.51251E+03  1.08557E+03
  1.98563E+03  7.78570E+02  1.84478E+03  1.23331E+03  2.16748E+03  3.34222E+03  2.54326E+03  3.73640E+03
 -1.87671E+03  6.40265E+03 -5.50381E+03  6.84583E+03 -7.40756E+03  2.04902E+03 -8.10614E+03 -2.49810E+03
 -3.99291E+03 -8.09637E+03  1.19209E+03 -9.12980E+03  4.55363E+03 -5.56149E+03  6.41643E+03 -1.41921E+03
  5.14296E+03  3.31180E+03  8.08259E+02  4.38717E+03 -1.96810E+03  2.89573E+03 -3.07596E+03 -3.49831E+02
 -1.58299E+03 -3.11975E+03  1.94713E+03 -3.34081E+03  3.04674E+03 -1.40785E+03  3.17894E+03  6.44430E+02
  1.94695E+03  1.31570E+03  6.76805E+02  8.25242E+02 -7.85008E+02  1.13259E+03  1.82449E+03 -3.83271E+02
  9.03037E+02 -1.77096E+02  3.27594E+03  1.33617E+03  1.28598E+03  4.25508E+03 -6.72964E+02  5.46593E+03
 -3.44375E+03  3.30400E+03 -4.31463E+03  9.75103E+02 -4.43102E+03 -1.88398E+03 -1.02104E+03 -2.54715E+03
  6.33723E+02 -2.41472E+03  1.76785E+03 -1.44974E+03  1.46125E+03  1.81363E+03 -1.03587E+03  2.58580E+03
 -3.49546E+03  1.49613E+03 -3.20595E+03 -1.84193E+03 -1.70924E+03 -4.08697E+03  2.59812E+02 -3.76725E+03
  2.07747E+03 -2.47111E+03  2.61657E+03 -1.37682E+02  2.51761E+03  6.02316E+02  6.56010E+02  2.28549E+03
 -1.01874E+03  2.84002E+02 -1.61046E+03 -9.53517E+02  9.45615E+02 -2.43360E+03  3.66910E+03 -2.34916E+03
  3.94668E+03  7.30439E+02  4.73444E+03  2.70361E+03  1.86407E+03  4.70324E+03 -1.51552E+03  4.08806E+03
 -3.78330E+03  1.80363E+03 -3.74296E+03 -4.53656E+02 -2.15980E+03 -3.27556E+03  8.46950E+02 -2.35634E+03
  3.12416E+03 -1.67098E+03  2.37934E+03  1.61429E+03  9.29316E+02  2.51143E+03 -1.70415E+02  2.30062E+03
 -9.68664E+02  1.80691E+03 -1.40105E+03  5.11645E+02 -4.36855E+02  7.86891E+02 -8.66618E+02  9.13854E+02
 -1.25531E+03  2.02654E+03 -2.95877E+03  1.41286E+03 -4.17958E+03  3.21466E+02 -4.97936E+03 -2.58842E+03
 -2.49874E+03 -5.82571E+03  1.44785E+03 -6.70275E+03  3.33411E+03 -5.30536E+03  6.39584E+03 -1.80597E+03
  5.80464E+03  8.32698E+02  3.11074E+03  4.19286E+03 -4.59807E+02  4.51758E+03 -1.53834E+03  3.42327E+03
 -2.83383E+03  1.98403E+03 -1.46212E+03 -6.27149E+02 -7.33848E+02 -7.39930E+01 -7.26816E+02 -1.30611E+02
 -1.58276E+03 -2.97740E+02 -1.64383E+03 -9.87425E+01  3.48297E+01 -1.02655E+03 -2.33319E+02 -2.13893E+03
  2.32433E+03 -1.31945E+03  1.97816E+03  2.71359E+01  3.26855E+03  2.33457E+03  4.07390E+02  4.34468E+03
 -2.01660E+03  5.06900E+03 -4.31403E+03  2.63870E+03 -4.80255E+03 -4.10903E+02 -3.85929E+03 -3.16983E+03
 -1.80067E+03 -4.15209E+03  1.16487E+03 -3.73428E+03  2.48634E+03 -2.00512E+03  2.36365E+03  3.72132E+02
  1.69860E+03  9.21141E+02  3.27005E+02  7.76501E+02 -7.02060E+02 -1.13939E+01 -1.20745E+02 -9.56205E+02
  1.57458E+03 -5.38890E+02  1.23326E+03  7.85629E+02  7.04981E+02  1.54035E+03  3.01457E+02  1.48584E+03
 -1.66866E+03  1.77655E+03 -2.15632E+03  3.83249E+02 -2.13092E+03 -1.96257E+03 -1.53933E+02 -3.38623E+03
  1.36442E+03 -2.88691E+03  2.61367E+03 -1.16785E+02  2.81997E+03 -1.54396E+01  1.57452E+03  2.77558E+03
  3.81512E+02  2.27266E+03 -9.26559E+02  1.61431E+03 -1.63614E+03  1.31220E+03 -1.50411E+03  3.80359E+02
 -7.13467E+02 -1.36432E+02 -9.29535E+02  6.30458E+02 -1.77405E+03  5.93310E+02 -2.04675E+03 -1.62962E+02
 -2.17307E+03 -1.33832E+03 -7.64560E+02 -2.60250E+03  1.61079E+03 -3.21796E+03  1.73213E+03 -1.28698E+03
  2.19305E+03  1.96605E+02  8.74728E+02  1.48852E+03 -1.46454E+02  2.28376E+03 -1.22366E+03  1.70406E+03
