 $NMID ID='MM_0lb_SNR800_15hz_g40_98.RAW', FMTDAT='(8E13.5)'
 TRAMP=1., VOLUME=1. $END
  3.09811E+05  4.09166E+02  3.37580E+05  2.50600E+05  8.45366E+04  3.37389E+05 -1.32401E+05  2.50462E+05
 -1.90114E+05  8.26882E+04 -1.11535E+05 -3.27028E+04  9.20735E+02 -5.03278E+04  5.40417E+04  1.81026E+02
  3.50229E+04  5.30510E+04 -1.69347E+04  7.51986E+04 -6.06418E+04  6.31847E+04 -8.34522E+04  3.17414E+04
 -8.02903E+04 -1.13203E+04 -5.67282E+04 -5.06839E+04 -1.47869E+04 -6.89892E+04  2.70227E+04 -4.56144E+04
  3.95148E+04  3.67868E+03  1.59817E+04  4.73850E+04 -3.41889E+04  4.66521E+04 -6.57609E+04 -5.68538E+02
 -5.28911E+04 -5.61596E+04 -6.56828E+03 -7.62127E+04  3.34724E+04 -5.41607E+04  4.70745E+04 -1.66496E+04
  4.24226E+04  1.09597E+04  3.13683E+04  2.49859E+04  1.57413E+04  2.85537E+04 -4.99660E+03  2.70426E+04
 -2.15176E+04  1.25581E+04 -1.87237E+04 -4.67398E+03  5.03414E+03 -7.61272E+03  2.18000E+04  1.15703E+04
  7.31781E+03  3.43734E+04 -3.11778E+04  3.48593E+04 -6.21123E+04  2.08552E+03 -5.61470E+04 -4.20232E+04
 -1.24494E+04 -6.18801E+04  3.90198E+04 -4.41395E+04  5.69439E+04 -2.07004E+03  3.29760E+04  3.13254E+04
 -6.12162E+03  3.43434E+04 -2.93857E+04  1.45985E+04 -2.89133E+04 -5.02724E+03 -1.55454E+04 -1.04536E+04
 -7.95337E+03 -1.23708E+04 -9.35445E+02 -1.72886E+04  7.12302E+03 -2.28313E+04  1.51557E+04 -1.36348E+04
  1.16605E+04  4.87990E+03 -7.50194E+03  1.27126E+04 -2.05066E+04 -3.50015E+03 -7.97630E+03 -3.21490E+04
  2.18293E+04 -4.20656E+04  4.63899E+04 -1.92986E+04  4.37864E+04  1.88684E+04  1.48308E+04  4.30030E+04
 -1.57775E+04  3.22152E+04 -2.43615E+04  1.11638E+03 -9.43061E+03 -2.70349E+04  2.07284E+04 -3.25757E+04
  3.98647E+04 -8.17214E+03  3.37456E+04  2.34301E+04  1.66778E+04  4.45492E+04 -7.72128E+03  4.77349E+04
 -3.01415E+04  3.18006E+04 -3.96226E+04  9.06913E+03 -4.05268E+04 -1.58483E+04 -2.23548E+04 -3.62574E+04
  7.03425E+03 -3.62651E+04  3.02019E+04 -1.38654E+04  2.77815E+04  1.07499E+04  3.22403E+03  1.85260E+04
 -1.34658E+04  7.83043E+03 -1.03502E+04 -7.59817E+03  6.10626E+03 -1.02413E+04  1.76061E+04  6.15457E+03
  1.27591E+04  2.17888E+04 -6.33540E+03  2.43753E+04 -2.19967E+04  1.03576E+04 -2.67027E+04 -5.33680E+03
 -1.88205E+04 -1.70422E+04 -7.24774E+03 -1.89334E+04  3.79539E+03 -1.74098E+04  1.42898E+04 -1.68061E+04
  2.37571E+04 -1.23850E+04  3.06492E+04  1.79116E+03  2.23009E+04  1.79942E+04  4.09121E+03  3.45350E+04
 -1.68488E+04  2.92157E+04 -2.70064E+04  1.01525E+04 -2.01968E+04 -1.01222E+04 -4.29898E+03 -1.37472E+04
  2.24007E+03 -3.08600E+03 -3.63757E+03  5.92739E+03 -1.48213E+04  5.20334E+03 -1.45980E+04 -6.07148E+03
 -9.28599E+03 -1.73166E+04  4.75753E+03 -2.13931E+04  1.39667E+04 -1.53921E+04  1.66396E+04 -1.87065E+03
  1.00733E+04  1.19748E+04 -9.53263E+02  1.75097E+04 -1.18236E+04  9.84508E+03 -1.72610E+04 -3.77898E+03
 -1.26934E+04 -1.57913E+04 -1.57346E+03 -2.11102E+04  9.62127E+03 -1.71884E+04  1.77607E+04 -8.18030E+03
  1.61822E+04  4.83112E+02  1.18635E+04  4.01165E+03  6.28309E+03  9.74934E+02  8.70174E+03 -1.64448E+03
  1.55894E+04  2.59721E+03  1.72629E+04  1.40178E+04  1.10488E+04  2.79985E+04 -3.03167E+03  3.07302E+04
 -1.81524E+04  2.42959E+04 -2.84807E+04  1.18602E+04 -2.97336E+04 -2.33564E+03 -2.48315E+04 -1.69801E+04
 -1.11972E+04 -2.43795E+04  8.33451E+03 -2.26410E+04  1.93435E+04 -1.18581E+04  1.77590E+04  4.76745E+03
  6.72215E+03  1.29623E+04 -8.01864E+03  1.15749E+04 -1.50537E+04  2.66049E+03 -1.17320E+04 -9.43265E+03
 -2.27906E+02 -1.43521E+04  7.15869E+03 -1.06940E+04  9.40686E+03 -1.29553E+03  1.95957E+03  5.85944E+03
 -6.53644E+03  1.79799E+03 -5.02686E+03 -5.10698E+03  1.80578E+02 -1.23548E+04  9.14387E+03 -1.24563E+04
  1.47040E+04 -6.56373E+03  1.53547E+04  3.02349E+03  1.35659E+04  1.16795E+04  6.32266E+03  1.75961E+04
 -2.74171E+03  1.93657E+04 -1.22325E+04  1.23997E+04 -1.41967E+04  3.44371E+03 -1.02470E+04 -2.86786E+03
 -5.17524E+03 -4.14767E+03 -3.54109E+02  1.11542E+03 -1.91923E+03  2.11292E+03 -4.78302E+03  3.91893E+03
 -9.68869E+03 -3.11950E+02 -1.00495E+04 -8.47207E+03 -4.08748E+03 -1.34252E+04  3.99870E+03 -1.01372E+04
  8.74871E+03 -3.98288E+03  6.00109E+03  2.44775E+03  3.62633E+02  4.02139E+03 -4.49147E+03 -8.47168E+01
 -4.36658E+03 -6.34524E+03 -8.29636E+02 -9.25280E+03  5.12131E+03 -9.94249E+03  1.23303E+04 -5.08013E+03
  1.44740E+04  9.82134E+02  1.09588E+04  7.89306E+03  1.99919E+03  1.12673E+04 -6.44206E+03  1.01379E+04
 -8.31110E+03  3.20421E+03 -4.23290E+03 -1.81522E+03  1.82270E+03 -2.59750E+03  5.55758E+03 -9.99333E+02
  5.06795E+03  4.52104E+03  1.09456E+03  7.99353E+03 -5.81587E+03  7.60799E+03 -9.45574E+03  1.91687E+03
 -6.14604E+03 -4.89567E+03  2.99322E+02 -8.22964E+03  4.87964E+03 -3.89177E+03  4.62635E+03  1.62986E+03
  8.78291E+02  4.87191E+03 -5.08839E+03  6.37387E+03 -6.83844E+03  3.03874E+03 -6.69928E+03 -2.23900E+03
 -4.00890E+03 -8.15680E+03  1.95097E+03 -9.76669E+03  8.11450E+03 -5.85666E+03  8.69094E+03  1.31702E+03
  6.02705E+03  7.15906E+03 -2.65661E+02  8.87872E+03 -6.48709E+03  5.21208E+03 -6.96201E+03 -6.65227E+02
 -7.13035E+03 -6.53407E+03 -1.70380E+03 -6.65177E+03  3.40143E+03 -6.11958E+03  4.19749E+03 -3.24639E+03
  3.29243E+03  3.23598E+02 -3.29107E+02  1.52118E+03  4.64531E+02 -9.82866E+02  6.08911E+02 -3.12786E+03
  5.54094E+03 -1.48042E+03  7.81033E+03  1.17866E+03  7.89586E+03  4.66970E+03  6.56120E+03  1.04372E+04
 -2.14637E+03  1.20561E+04 -1.03514E+04  9.07273E+03 -1.33879E+04  1.96982E+03 -1.07061E+04 -4.46583E+03
 -5.60071E+03 -8.99599E+03 -7.50531E+02 -7.47231E+03  2.97166E+03 -3.61043E+03  2.44215E+03 -2.97153E+03
  2.02044E+03 -2.39948E+03  2.49549E+03 -2.67198E+03  3.97543E+03 -1.88795E+03  4.57669E+03 -4.21260E+01
  5.89596E+03  1.37493E+03  2.28659E+03  4.69539E+03 -1.52447E+03  4.57719E+03 -5.83403E+03  4.08379E+03
 -7.30320E+03 -1.23408E+03 -3.45327E+03 -4.98673E+03 -8.33265E+01 -7.42377E+03  4.33335E+03 -7.85722E+03
  7.50074E+03 -4.62072E+03  9.22312E+03  8.67037E+02  6.68539E+03  6.36084E+03  1.20184E+03  8.32063E+03
 -3.29373E+03  7.87038E+03 -4.92872E+03  2.73244E+03 -2.79795E+03 -1.06865E+03 -1.16101E+03 -1.01692E+03
 -7.84570E+02  6.52424E+02 -1.27074E+03  2.12703E+03 -3.47075E+03  1.40373E+03 -5.25890E+03 -5.17077E+02
 -2.38009E+03 -5.23486E+03  6.56728E+02 -7.03762E+03  3.86690E+03 -6.57424E+03  6.02787E+03 -1.80465E+03
  6.49045E+03  3.33620E+03  2.86361E+03  5.82483E+03 -1.20762E+03  6.64080E+03 -4.10574E+03  4.01497E+03
 -6.14747E+03  6.68370E+02 -5.24957E+03 -3.71081E+03 -5.46631E+02 -5.18707E+03  2.85369E+03 -3.83776E+03
  3.90934E+03 -1.98075E+03  2.98149E+03  9.53507E+02  7.50676E+02  2.26381E+03  1.10915E+03  6.90047E+02
  2.11116E+03  7.06250E+02  1.50531E+03  1.14402E+03  1.75369E+03  2.91365E+03  1.85434E+03  3.13558E+03
 -2.01267E+03  4.84419E+03 -3.85118E+03  5.57184E+03 -5.52649E+03  1.58352E+03 -6.49018E+03 -1.53842E+03
 -2.69894E+03 -6.24965E+03  9.68255E+02 -6.98679E+03  3.45673E+03 -4.13360E+03  4.93236E+03 -1.67181E+03
  4.01548E+03  2.67258E+03  6.29678E+02  3.46833E+03 -1.44765E+03  2.08844E+03 -1.87793E+03 -3.22594E+02
 -1.09439E+03 -2.65066E+03  1.67950E+03 -2.69277E+03  2.72323E+03 -1.49444E+03  2.28689E+03  6.99832E+02
  1.63111E+03  1.07335E+03  7.59045E+02  4.26434E+02 -1.09658E+02  1.47846E+03  1.39114E+03 -5.67865E+02
  5.77106E+02 -5.11948E+02  2.65216E+03  9.68985E+02  8.62952E+02  3.34935E+03 -5.99079E+02  4.54532E+03
 -2.66719E+03  2.36243E+03 -3.43707E+03  3.75612E+02 -3.33890E+03 -1.22521E+03 -6.48843E+02 -1.74216E+03
  6.50677E+02 -2.20852E+03  1.42906E+03 -1.22861E+03  1.44814E+03  1.68955E+03 -8.25369E+02  2.30589E+03
 -2.47062E+03  1.22571E+03 -2.00464E+03 -1.88200E+03 -1.56197E+03 -3.67231E+03  3.71037E+02 -3.17786E+03
  1.50445E+03 -1.46195E+03  1.72916E+03  4.58229E+01  2.29608E+03  1.46371E+02  4.04641E+02  1.76473E+03
 -9.07108E+02  1.34439E+02 -1.68472E+03 -6.59387E+02  8.52486E+02 -2.11966E+03  2.88016E+03 -1.78076E+03
  2.62544E+03  5.39211E+02  4.13201E+03  1.93329E+03  1.47247E+03  3.54727E+03 -8.85459E+02  3.13677E+03
 -2.78384E+03  1.03060E+03 -2.77002E+03 -2.52474E+02 -1.61432E+03 -2.10616E+03  6.64034E+02 -1.77099E+03
  2.72207E+03 -8.83507E+02  1.81559E+03  9.30004E+02  6.00797E+02  2.07447E+03 -1.79427E+01  1.90275E+03
 -7.09305E+02  1.55356E+03 -8.58114E+02  3.92275E+02 -1.67067E+02  6.26473E+02 -9.16072E+02  9.19952E+02
 -7.91768E+02  1.72683E+03 -2.89593E+03  1.09058E+03 -3.36115E+03  3.97822E+02 -4.00620E+03 -2.18438E+03
 -1.77104E+03 -4.29232E+03  1.07384E+03 -5.36093E+03  2.51178E+03 -4.22113E+03  4.76136E+03 -1.56265E+03
  4.54482E+03  5.62118E+02  2.46093E+03  3.00016E+03 -7.91103E+02  3.25082E+03 -1.02418E+03  2.55161E+03
 -1.53581E+03  1.22681E+03 -9.86437E+02 -3.52343E+02 -4.32583E+02  3.18528E+02 -7.67860E+02  7.38030E+01
 -1.04947E+03 -3.38558E+02 -8.93534E+02  1.14112E+02  5.18732E+01 -1.20733E+03 -1.17704E+02 -1.40612E+03
  1.72401E+03 -1.26758E+03  1.64450E+03  2.75891E+02  2.09766E+03  2.05986E+03  7.62407E+01  3.01337E+03
 -1.49072E+03  4.19545E+03 -3.14498E+03  2.44838E+03 -3.79685E+03 -2.59449E+02 -2.82040E+03 -2.35792E+03
 -1.32074E+03 -3.05824E+03  9.36221E+02 -2.60297E+03  1.93804E+03 -1.27134E+03  1.44614E+03  2.58990E+02
  8.37001E+02  1.03291E+03  2.33482E+01  9.64771E+02 -5.22184E+02  1.37903E+02  3.31356E+01 -6.10089E+02
  8.73854E+02 -2.82741E+02  9.85807E+02  5.99567E+02  7.44589E+02  1.18885E+03  4.30340E+02  1.29620E+03
 -1.48657E+03  1.23741E+03 -1.80876E+03  3.11047E+02 -1.69240E+03 -1.08758E+03  7.65094E+01 -2.47662E+03
  1.29544E+03 -1.73335E+03  1.68766E+03 -3.78433E+02  2.19543E+03 -2.88498E+02  1.08438E+03  1.54934E+03
  3.35798E+02  1.68348E+03 -7.13461E+02  1.62182E+03 -1.29817E+03  1.14846E+03 -1.19534E+03  2.64381E+02
 -1.75351E+02 -1.26726E+02 -1.00985E+03  3.03235E+02 -1.10653E+03  2.81711E+02 -1.49341E+03 -5.49765E+02
 -1.67770E+03 -3.36199E+02 -6.97132E+02 -1.73730E+03  7.34980E+02 -2.42462E+03  1.06200E+03 -6.29092E+02
  1.80449E+03  1.76417E+02  3.71648E+02  1.32096E+03 -1.00243E+01  1.79683E+03 -1.15569E+03  1.38218E+03
