 $NMID ID='MM_0lb_SNR800_17hz_g60_37.RAW', FMTDAT='(8E13.5)'
 TRAMP=1., VOLUME=1. $END
  3.09885E+05  2.93992E+02  3.37720E+05  2.50650E+05  8.44576E+04  3.38010E+05 -1.32737E+05  2.50996E+05
 -1.90162E+05  8.31458E+04 -1.11543E+05 -3.29140E+04  1.18406E+03 -5.05229E+04  5.37766E+04 -1.47615E+02
  3.53604E+04  5.28266E+04 -1.68672E+04  7.55667E+04 -6.07984E+04  6.34364E+04 -8.41256E+04  3.18994E+04
 -8.10504E+04 -1.15783E+04 -5.72268E+04 -5.11048E+04 -1.50524E+04 -6.97186E+04  2.73304E+04 -4.57111E+04
  4.01229E+04  3.91027E+03  1.61986E+04  4.76095E+04 -3.45761E+04  4.72383E+04 -6.65830E+04 -4.80960E+02
 -5.30462E+04 -5.67672E+04 -6.62776E+03 -7.66564E+04  3.37499E+04 -5.50293E+04  4.77290E+04 -1.72677E+04
  4.33356E+04  1.12718E+04  3.15581E+04  2.55227E+04  1.60468E+04  2.93200E+04 -5.48493E+03  2.70808E+04
 -2.17263E+04  1.23893E+04 -1.86759E+04 -4.94540E+03  5.52757E+03 -7.67879E+03  2.19811E+04  1.21499E+04
  7.43764E+03  3.50606E+04 -3.20695E+04  3.51707E+04 -6.33538E+04  2.29595E+03 -5.68602E+04 -4.24696E+04
 -1.21436E+04 -6.30313E+04  3.97952E+04 -4.50676E+04  5.78129E+04 -2.19081E+03  3.37819E+04  3.21421E+04
 -6.37256E+03  3.57364E+04 -2.95893E+04  1.56207E+04 -2.98558E+04 -4.65045E+03 -1.62225E+04 -1.09221E+04
 -8.57237E+03 -1.31497E+04 -6.98161E+02 -1.79904E+04  7.55392E+03 -2.30704E+04  1.52434E+04 -1.34404E+04
  1.15184E+04  4.83548E+03 -7.77485E+03  1.29394E+04 -2.11755E+04 -3.93213E+03 -8.20091E+03 -3.32357E+04
  2.24696E+04 -4.29636E+04  4.74390E+04 -1.95256E+04  4.45731E+04  1.91922E+04  1.56828E+04  4.38991E+04
 -1.59316E+04  3.29588E+04 -2.50386E+04  1.36375E+03 -9.53840E+03 -2.74954E+04  2.10870E+04 -3.32373E+04
  4.05460E+04 -8.46387E+03  3.46084E+04  2.36049E+04  1.77435E+04  4.55383E+04 -7.78038E+03  4.92887E+04
 -3.11051E+04  3.30322E+04 -4.09061E+04  9.43198E+03 -4.16646E+04 -1.61845E+04 -2.29194E+04 -3.69257E+04
  7.42353E+03 -3.69085E+04  3.08949E+04 -1.43539E+04  2.86801E+04  1.10586E+04  3.72966E+03  1.88343E+04
 -1.33407E+04  8.00731E+03 -1.01553E+04 -7.55759E+03  5.96896E+03 -1.05218E+04  1.80141E+04  5.83302E+03
  1.28959E+04  2.19412E+04 -6.19589E+03  2.45486E+04 -2.19396E+04  1.07703E+04 -2.75066E+04 -5.00875E+03
 -1.96317E+04 -1.71246E+04 -7.45512E+03 -1.96315E+04  3.99413E+03 -1.84926E+04  1.48643E+04 -1.73506E+04
  2.48029E+04 -1.23378E+04  3.17423E+04  2.47353E+03  2.33072E+04  1.92340E+04  3.98867E+03  3.55740E+04
 -1.72695E+04  2.95143E+04 -2.72822E+04  1.00899E+04 -2.05998E+04 -1.02563E+04 -4.07779E+03 -1.35035E+04
  2.33278E+03 -2.91767E+03 -4.25702E+03  6.29505E+03 -1.52060E+04  5.14628E+03 -1.55554E+04 -6.33139E+03
 -9.72123E+03 -1.77211E+04  5.17041E+03 -2.21433E+04  1.42809E+04 -1.58047E+04  1.69041E+04 -1.69914E+03
  1.02847E+04  1.25293E+04 -9.35671E+02  1.81268E+04 -1.22831E+04  1.01851E+04 -1.80612E+04 -3.99106E+03
 -1.28639E+04 -1.64210E+04 -1.75252E+03 -2.15441E+04  9.69643E+03 -1.78145E+04  1.80188E+04 -8.47648E+03
  1.67181E+04  2.78665E+02  1.21879E+04  4.26538E+03  6.49749E+03  6.00360E+02  8.92728E+03 -1.76133E+03
  1.62380E+04  2.73287E+03  1.77262E+04  1.41775E+04  1.13770E+04  2.87355E+04 -2.88661E+03  3.15285E+04
 -1.83284E+04  2.49878E+04 -2.93173E+04  1.27344E+04 -3.01911E+04 -2.03915E+03 -2.56798E+04 -1.73974E+04
 -1.14865E+04 -2.47992E+04  8.51790E+03 -2.26620E+04  1.94009E+04 -1.22453E+04  1.82435E+04  4.88641E+03
  6.65472E+03  1.34006E+04 -8.44153E+03  1.16547E+04 -1.47498E+04  2.64331E+03 -1.13739E+04 -9.22288E+03
 -1.57301E+02 -1.40463E+04  7.17763E+03 -1.07061E+04  9.63773E+03 -1.29029E+03  1.91100E+03  5.91336E+03
 -6.39228E+03  2.16145E+03 -5.49426E+03 -5.15852E+03 -5.79236E+01 -1.20084E+04  8.94433E+03 -1.26640E+04
  1.53254E+04 -6.25876E+03  1.51843E+04  3.05891E+03  1.35898E+04  1.18259E+04  6.39832E+03  1.79508E+04
 -2.62087E+03  1.98838E+04 -1.20494E+04  1.22193E+04 -1.40996E+04  3.45289E+03 -9.92224E+03 -2.68715E+03
 -4.91195E+03 -4.06391E+03 -9.52907E+02  1.47664E+03 -2.42186E+03  2.51951E+03 -4.34423E+03  4.01340E+03
 -9.08147E+03 -5.61667E+02 -1.06340E+04 -8.37420E+03 -4.27933E+03 -1.35506E+04  4.06014E+03 -1.01049E+04
  8.56568E+03 -4.46844E+03  6.22759E+03  2.52702E+03  4.58291E+02  3.53080E+03 -4.34814E+03 -2.31561E+00
 -4.46439E+03 -6.30825E+03 -8.44073E+02 -8.90893E+03  5.01989E+03 -9.74129E+03  1.20766E+04 -5.20406E+03
  1.42769E+04  9.57051E+02  1.07623E+04  8.03916E+03  2.01006E+03  1.10424E+04 -6.35002E+03  9.51882E+03
 -8.24494E+03  3.32877E+03 -4.04754E+03 -1.38813E+03  1.54832E+03 -2.43773E+03  5.57680E+03 -9.90255E+02
  4.90721E+03  3.98539E+03  1.18768E+03  7.52177E+03 -5.28569E+03  7.91253E+03 -9.46836E+03  2.13470E+03
 -6.02246E+03 -4.63355E+03  2.43876E+02 -8.16653E+03  4.52519E+03 -3.85383E+03  4.76590E+03  1.67125E+03
  1.14346E+03  4.50047E+03 -4.76916E+03  6.12959E+03 -6.44434E+03  2.87554E+03 -6.23064E+03 -1.79760E+03
 -3.99558E+03 -7.81491E+03  1.75377E+03 -9.39513E+03  8.09315E+03 -5.65972E+03  8.19461E+03  1.39232E+03
  5.76783E+03  6.67213E+03 -1.87825E+02  9.15426E+03 -6.44112E+03  5.20731E+03 -6.74507E+03 -6.19732E+02
 -6.52143E+03 -6.07561E+03 -1.38730E+03 -6.35727E+03  3.23216E+03 -5.80005E+03  3.66560E+03 -2.96213E+03
  3.23716E+03  3.82621E+02 -1.31959E+02  1.61356E+03  1.43689E+02 -5.72717E+02  4.36936E+02 -2.55211E+03
  5.47734E+03 -1.61394E+03  7.34279E+03  1.17664E+03  7.18264E+03  4.19053E+03  6.15790E+03  9.36537E+03
 -1.61093E+03  1.11459E+04 -9.85873E+03  8.51476E+03 -1.24227E+04  1.54480E+03 -9.95399E+03 -3.56988E+03
 -5.03210E+03 -8.30374E+03 -4.29451E+02 -7.01993E+03  2.62951E+03 -3.23268E+03  2.32494E+03 -2.97574E+03
  1.34660E+03 -1.64751E+03  2.83950E+03 -2.56649E+03  4.08358E+03 -1.95005E+03  4.23828E+03  6.97885E+01
  5.26614E+03  1.40560E+03  1.81268E+03  4.13115E+03 -1.49926E+03  4.26295E+03 -5.33032E+03  3.53341E+03
 -6.19064E+03 -1.05934E+03 -3.19119E+03 -4.17960E+03  3.17492E+02 -6.58258E+03  4.07942E+03 -6.92788E+03
  6.80766E+03 -3.81722E+03  8.23224E+03  8.28594E+02  6.28836E+03  5.68758E+03  1.03748E+03  7.77902E+03
 -2.78158E+03  7.14273E+03 -4.35805E+03  2.39704E+03 -2.78677E+03 -1.14191E+03 -1.03925E+03 -8.64244E+02
 -8.82149E+02  2.05134E+02 -1.04940E+03  2.07494E+03 -3.12087E+03  1.60630E+03 -4.84520E+03 -5.45080E+02
 -2.37686E+03 -4.87349E+03  3.27273E+02 -6.20852E+03  3.68684E+03 -5.70252E+03  5.21198E+03 -1.70891E+03
  5.67411E+03  3.15233E+03  2.66886E+03  4.61148E+03 -8.53243E+02  5.94476E+03 -3.69174E+03  3.41678E+03
 -5.05764E+03  3.92534E+02 -4.18155E+03 -3.40872E+03 -2.16990E+02 -4.21634E+03  2.35109E+03 -3.16271E+03
  3.33402E+03 -1.32599E+03  1.99995E+03  7.65804E+02  7.73541E+02  2.00285E+03  1.13645E+03  7.71261E+02
  1.42124E+03  7.93860E+02  1.30861E+03  1.68868E+03  1.50450E+03  2.64273E+03  1.59469E+03  2.40190E+03
 -1.59719E+03  3.71341E+03 -3.27241E+03  4.70723E+03 -4.27238E+03  1.50120E+03 -5.56770E+03 -9.16422E+02
 -2.15041E+03 -5.02602E+03  9.83995E+02 -6.34099E+03  2.59408E+03 -3.44430E+03  3.90715E+03 -1.10027E+03
  3.13877E+03  2.20365E+03  6.07167E+02  3.36712E+03 -1.22227E+03  1.75049E+03 -1.32477E+03 -1.82426E+02
 -6.51801E+02 -2.20147E+03  1.38722E+03 -1.97097E+03  1.79007E+03 -1.17509E+03  1.99824E+03  4.10869E+02
  1.29351E+03  5.30134E+02  8.79858E+02  1.09919E+02 -4.26512E+02  5.99704E+02  1.61980E+03 -2.97009E+02
  5.11907E+02 -5.63845E+02  2.46177E+03  4.46666E+02  6.41714E+02  3.06075E+03 -5.33411E+02  3.56304E+03
 -2.09474E+03  1.74427E+03 -2.91962E+03  8.96016E+02 -2.75464E+03 -9.40539E+02 -7.37198E+01 -1.63588E+03
  4.66635E+02 -1.71333E+03  1.03075E+03 -8.41648E+02  8.32223E+02  1.30744E+03 -7.54562E+02  1.40264E+03
 -2.01152E+03  9.98430E+02 -1.94969E+03 -1.66208E+03 -1.20141E+03 -2.71417E+03  2.61223E+02 -2.32699E+03
  1.02905E+03 -8.70207E+02  8.60119E+02  4.48527E+01  1.63327E+03  2.24922E+02  4.11743E+02  1.42813E+03
 -2.77815E+02  3.03455E+02 -1.08515E+03 -2.04168E+02  4.66060E+02 -1.05021E+03  2.24205E+03 -1.34743E+03
  1.85715E+03  2.09530E+02  3.46407E+03  1.01990E+03  1.52250E+03  2.41213E+03 -4.65693E+02  2.50660E+03
 -1.95776E+03  2.66572E+02 -1.70869E+03 -3.10120E+02 -9.74793E+02 -1.80920E+03  2.71808E+02 -1.21126E+03
  1.50110E+03 -1.02431E+03  1.22262E+03  8.46155E+02 -6.56894E+00  1.66189E+03  3.30555E+02  1.50463E+03
 -1.74254E+02  1.33431E+03 -5.57287E+02  2.22246E+02  1.28564E+02  2.91451E+02 -5.72317E+02  8.82924E+02
 -9.75942E+02  1.49086E+03 -2.31210E+03  5.88362E+02 -2.26557E+03  3.72165E+02 -2.82299E+03 -1.44723E+03
 -1.57045E+03 -2.95829E+03  6.95558E+02 -3.64788E+03  1.45295E+03 -3.30505E+03  3.42583E+03 -1.20916E+03
  3.31148E+03  3.31264E+02  1.49098E+03  1.99994E+03 -6.17900E+02  1.86232E+03 -6.54436E+02  1.38253E+03
 -1.16007E+03  9.24038E+02 -8.24564E+02 -4.93110E+02 -4.48531E+02  3.33687E+02 -8.33778E+02  3.86160E+01
 -1.04571E+03 -1.54662E+01 -9.80370E+02  9.99282E+00  2.52769E+02 -5.81822E+02 -4.15834E+02 -1.22956E+03
  1.49796E+03 -7.75566E+02  5.82250E+02 -1.19161E+01  1.79665E+03  1.42040E+03 -2.26603E+02  1.91877E+03
 -9.24320E+02  2.62967E+03 -1.75446E+03  1.64301E+03 -2.58230E+03 -4.01318E+02 -1.61341E+03 -1.59906E+03
 -1.09104E+03 -1.80719E+03  2.03968E+02 -1.60206E+03  1.23399E+03 -6.41278E+02  8.71338E+02  1.53241E+02
  7.64554E+02  5.52855E+02 -3.78650E+02  4.52356E+02 -2.81330E+02 -2.64403E+01 -1.20941E+02 -2.56828E+02
  7.05525E+02  2.02271E+02  4.79322E+02  4.54903E+02  2.64457E+02  2.98379E+02  3.03287E+02  5.23958E+02
 -7.14424E+02  8.11847E+02 -9.32398E+02  1.27180E+02 -1.08590E+03 -7.02055E+02 -9.63999E+01 -1.32106E+03
  8.87932E+02 -9.73062E+02  9.18236E+02 -1.37119E+02  9.90501E+02 -6.39411E+02  7.20430E+02  1.27282E+03
  5.43210E+02  7.81714E+02 -3.97308E+02  8.26954E+02 -8.09112E+02  5.23205E+02 -5.44779E+02  1.67467E+02
 -2.48168E+01 -2.03533E+02 -4.65205E+02  3.99401E+02 -7.73426E+02 -9.41793E+01 -1.05224E+03 -3.64273E+02
 -1.37974E+03  1.20183E+02 -3.61574E+02 -1.16950E+03  1.14392E+03 -1.64412E+03  8.09571E+02 -5.42394E+02
  8.04116E+02 -1.16092E+02  1.65887E+01  5.42260E+02  7.89468E+01  1.06687E+03 -4.50191E+02  9.47044E+02
