 $NMID ID='MM_0lb_SNR800_16hz_g55_30.RAW', FMTDAT='(8E13.5)'
 TRAMP=1., VOLUME=1. $END
  3.10274E+05  3.45299E+02  3.37508E+05  2.50603E+05  8.48620E+04  3.37696E+05 -1.33002E+05  2.50783E+05
 -1.90413E+05  8.30994E+04 -1.11566E+05 -3.26919E+04  9.35341E+02 -5.02956E+04  5.38705E+04 -2.03565E+02
  3.53053E+04  5.30192E+04 -1.69519E+04  7.52635E+04 -6.05105E+04  6.36809E+04 -8.41524E+04  3.18263E+04
 -8.09335E+04 -1.11698E+04 -5.72015E+04 -5.10677E+04 -1.50229E+04 -6.93721E+04  2.69846E+04 -4.59130E+04
  4.04961E+04  3.77501E+03  1.60582E+04  4.76317E+04 -3.39189E+04  4.66954E+04 -6.65090E+04 -9.88833E+01
 -5.33174E+04 -5.69271E+04 -6.61176E+03 -7.65717E+04  3.37815E+04 -5.48655E+04  4.76705E+04 -1.72234E+04
  4.28263E+04  1.12412E+04  3.16017E+04  2.55293E+04  1.60215E+04  2.91599E+04 -5.05270E+03  2.68594E+04
 -2.20058E+04  1.25609E+04 -1.87310E+04 -4.96061E+03  5.47490E+03 -7.40232E+03  2.22684E+04  1.22202E+04
  7.23619E+03  3.47888E+04 -3.21426E+04  3.49938E+04 -6.31462E+04  2.23088E+03 -5.70292E+04 -4.24589E+04
 -1.24154E+04 -6.28135E+04  3.96664E+04 -4.48694E+04  5.79161E+04 -2.12202E+03  3.38674E+04  3.18268E+04
 -6.29884E+03  3.53725E+04 -3.00159E+04  1.54356E+04 -3.01337E+04 -4.86197E+03 -1.65726E+04 -1.07182E+04
 -8.16288E+03 -1.27098E+04 -7.48291E+02 -1.79708E+04  7.30899E+03 -2.29737E+04  1.51549E+04 -1.36152E+04
  1.16231E+04  5.16817E+03 -7.70608E+03  1.31467E+04 -2.07257E+04 -3.98404E+03 -8.31002E+03 -3.31603E+04
  2.24121E+04 -4.28410E+04  4.74016E+04 -1.96529E+04  4.46374E+04  1.96541E+04  1.56472E+04  4.34538E+04
 -1.60519E+04  3.30331E+04 -2.52402E+04  1.83416E+03 -9.68918E+03 -2.71820E+04  2.07434E+04 -3.33706E+04
  4.02880E+04 -8.62621E+03  3.51113E+04  2.35534E+04  1.76635E+04  4.56782E+04 -7.80622E+03  4.91995E+04
 -3.12474E+04  3.29076E+04 -4.10008E+04  9.21245E+03 -4.15363E+04 -1.62399E+04 -2.32178E+04 -3.71973E+04
  7.34369E+03 -3.68519E+04  3.07697E+04 -1.39858E+04  2.86244E+04  1.08712E+04  3.92318E+03  1.88002E+04
 -1.34047E+04  7.92760E+03 -1.03238E+04 -7.63675E+03  5.69844E+03 -1.05421E+04  1.77691E+04  6.14695E+03
  1.33445E+04  2.20434E+04 -6.69546E+03  2.47837E+04 -2.20226E+04  1.08733E+04 -2.73698E+04 -5.23925E+03
 -1.99100E+04 -1.72353E+04 -7.81381E+03 -1.94420E+04  3.90421E+03 -1.85567E+04  1.48920E+04 -1.73565E+04
  2.50390E+04 -1.25972E+04  3.18379E+04  2.38026E+03  2.33276E+04  1.90571E+04  4.13587E+03  3.52515E+04
 -1.69741E+04  2.97153E+04 -2.75419E+04  1.02708E+04 -2.06747E+04 -1.04765E+04 -4.47442E+03 -1.36203E+04
  1.89257E+03 -3.36296E+03 -4.24274E+03  6.45107E+03 -1.54814E+04  5.31030E+03 -1.56028E+04 -6.54908E+03
 -9.25138E+03 -1.81842E+04  4.94961E+03 -2.18398E+04  1.46878E+04 -1.56257E+04  1.74348E+04 -1.67704E+03
  1.06267E+04  1.26721E+04 -1.04121E+03  1.80522E+04 -1.22671E+04  1.06634E+04 -1.82366E+04 -3.72143E+03
 -1.33014E+04 -1.63695E+04 -2.04472E+03 -2.17572E+04  9.81496E+03 -1.76945E+04  1.83974E+04 -8.63231E+03
  1.68161E+04  4.26675E+02  1.21067E+04  4.55666E+03  6.33061E+03  6.68303E+02  8.94496E+03 -1.46874E+03
  1.63696E+04  2.70009E+03  1.81009E+04  1.42577E+04  1.15414E+04  2.86604E+04 -2.66418E+03  3.17747E+04
 -1.87000E+04  2.55963E+04 -2.96591E+04  1.26964E+04 -3.07565E+04 -2.05048E+03 -2.60626E+04 -1.76428E+04
 -1.13611E+04 -2.54442E+04  8.72264E+03 -2.31509E+04  1.99255E+04 -1.22643E+04  1.81960E+04  4.75747E+03
  7.08112E+03  1.35071E+04 -8.52467E+03  1.19288E+04 -1.51736E+04  2.67930E+03 -1.20235E+04 -9.11911E+03
 -1.63524E+02 -1.45743E+04  7.86345E+03 -1.08491E+04  9.58315E+03 -1.14917E+03  1.96011E+03  6.12903E+03
 -6.40876E+03  2.19131E+03 -5.18407E+03 -5.34345E+03 -1.23894E+02 -1.25337E+04  8.78793E+03 -1.29399E+04
  1.53596E+04 -6.31295E+03  1.59853E+04  2.63841E+03  1.37720E+04  1.20200E+04  6.65092E+03  1.81648E+04
 -2.57390E+03  2.04900E+04 -1.29235E+04  1.24956E+04 -1.47559E+04  2.99210E+03 -1.03843E+04 -3.12880E+03
 -5.25569E+03 -4.29359E+03 -7.29133E+02  1.19634E+03 -2.31372E+03  2.60517E+03 -4.51544E+03  4.14089E+03
 -9.46974E+03 -7.30684E+02 -1.03991E+04 -8.51757E+03 -4.28875E+03 -1.37986E+04  4.19185E+03 -1.04243E+04
  8.60922E+03 -4.46697E+03  6.23572E+03  2.76377E+03  5.95068E+02  3.97854E+03 -4.69895E+03 -2.31389E+02
 -4.45766E+03 -6.50012E+03 -7.99795E+02 -9.14946E+03  5.19465E+03 -9.97120E+03  1.23623E+04 -5.11870E+03
  1.48577E+04  1.04344E+03  1.11110E+04  8.35755E+03  2.20611E+03  1.14997E+04 -6.02783E+03  1.03264E+04
 -8.49179E+03  3.17112E+03 -3.95630E+03 -1.94198E+03  1.31627E+03 -2.58588E+03  5.70349E+03 -7.89670E+02
  4.86671E+03  3.91307E+03  1.17973E+03  8.12943E+03 -5.91242E+03  7.85964E+03 -9.83759E+03  2.12816E+03
 -6.39728E+03 -4.70760E+03  1.93437E+02 -8.43016E+03  4.56912E+03 -4.20195E+03  4.94565E+03  1.37524E+03
  8.33903E+02  5.06762E+03 -5.18498E+03  6.14377E+03 -7.14242E+03  3.12648E+03 -6.90507E+03 -1.93696E+03
 -4.07241E+03 -8.44958E+03  1.92089E+03 -9.76112E+03  8.19529E+03 -6.14099E+03  9.40225E+03  1.55613E+03
  5.90735E+03  7.14329E+03 -4.50458E+02  9.13559E+03 -6.67104E+03  5.16560E+03 -7.03756E+03 -6.87880E+02
 -6.88619E+03 -6.81063E+03 -1.57874E+03 -6.90363E+03  3.42491E+03 -5.89920E+03  4.23969E+03 -2.67597E+03
  3.55985E+03  9.06172E+02 -4.78797E+02  1.29100E+03  1.75651E+02 -8.64642E+02  7.97484E+02 -3.07282E+03
  5.38439E+03 -1.62704E+03  7.74575E+03  9.03963E+02  7.84204E+03  4.77589E+03  6.27728E+03  1.02675E+04
 -2.33236E+03  1.23460E+04 -1.06471E+04  8.79128E+03 -1.35992E+04  1.52640E+03 -1.05336E+04 -3.85350E+03
 -5.48437E+03 -8.50151E+03 -3.84991E+02 -7.23118E+03  2.95804E+03 -3.46153E+03  2.49443E+03 -2.63940E+03
  2.04464E+03 -1.91561E+03  2.58041E+03 -2.69747E+03  4.23160E+03 -1.80781E+03  4.45942E+03  1.95027E+02
  5.79520E+03  1.41442E+03  2.12625E+03  4.47413E+03 -1.68411E+03  4.38618E+03 -5.74768E+03  3.89744E+03
 -7.16531E+03 -9.95809E+02 -3.51410E+03 -4.47413E+03  1.17493E+02 -7.00505E+03  4.46987E+03 -7.54200E+03
  7.77579E+03 -4.55700E+03  9.35222E+03  5.71541E+02  6.81777E+03  6.19548E+03  1.07694E+03  8.28220E+03
 -3.07025E+03  7.45583E+03 -4.72066E+03  2.39546E+03 -3.28229E+03 -1.11241E+03 -1.07125E+03 -6.63944E+02
 -5.03893E+02  2.79971E+02 -1.11985E+03  1.96624E+03 -3.21623E+03  1.12666E+03 -5.14486E+03 -5.67085E+02
 -2.69846E+03 -5.45323E+03  8.88889E+02 -6.86536E+03  3.97771E+03 -6.30906E+03  5.69765E+03 -1.84669E+03
  6.19036E+03  3.28735E+03  2.76120E+03  5.30703E+03 -1.04914E+03  6.47444E+03 -4.42167E+03  3.74500E+03
 -5.69193E+03  6.36624E+02 -4.93662E+03 -3.70133E+03 -1.65848E+02 -4.95787E+03  2.53714E+03 -3.71588E+03
  3.71083E+03 -1.42405E+03  2.76114E+03  7.27161E+02  6.96570E+02  2.01154E+03  1.28133E+03  5.97229E+02
  1.81188E+03  3.81935E+02  1.95841E+03  1.13521E+03  1.54772E+03  2.67339E+03  1.73590E+03  3.08607E+03
 -1.73010E+03  4.24086E+03 -3.76931E+03  4.99415E+03 -5.19374E+03  1.61503E+03 -6.10247E+03 -1.88574E+03
 -2.60893E+03 -5.87277E+03  9.14892E+02 -6.74375E+03  3.01582E+03 -3.74399E+03  4.97370E+03 -1.32895E+03
  3.51471E+03  2.52985E+03  4.70296E+02  3.10832E+03 -1.41811E+03  2.07733E+03 -2.06920E+03 -4.71334E+02
 -1.09149E+03 -2.40199E+03  1.25015E+03 -2.34966E+03  1.98577E+03 -1.49301E+03  2.31333E+03  2.72542E+02
  1.52428E+03  4.64829E+02  6.63240E+02  6.54829E+01 -4.32684E+02  9.08573E+02  1.53054E+03 -3.89698E+02
  2.04013E+02 -1.87416E+02  2.61585E+03  9.23293E+02  8.64746E+02  2.89914E+03 -6.93844E+02  3.99886E+03
 -2.66063E+03  2.05756E+03 -3.06354E+03  6.75363E+02 -2.95517E+03 -1.30222E+03 -3.75684E+02 -1.69216E+03
  3.94942E+02 -2.32713E+03  1.42914E+03 -8.90782E+02  8.60965E+02  1.70828E+03 -7.90696E+02  1.85480E+03
 -2.08225E+03  1.24089E+03 -2.24891E+03 -1.37218E+03 -1.18340E+03 -3.29066E+03  4.76933E+02 -2.62611E+03
  1.32107E+03 -1.15856E+03  1.64290E+03 -1.34226E+01  1.97758E+03  2.27336E+02  2.60494E+02  1.87554E+03
 -5.49886E+02  5.31423E+00 -1.49475E+03 -5.30843E+02  7.67323E+02 -1.60548E+03  2.58610E+03 -1.40717E+03
  2.40414E+03  2.49920E+02  3.79907E+03  1.61994E+03  1.20632E+03  2.92826E+03 -6.44671E+02  2.87966E+03
 -2.19982E+03  9.28823E+02 -2.73426E+03 -3.11814E+02 -1.37548E+03 -2.30461E+03  8.57291E+02 -1.43181E+03
  2.35430E+03 -1.00199E+03  1.19330E+03  1.17733E+03  3.31666E+02  1.70773E+03  9.88343E+01  1.55607E+03
 -7.97166E+02  1.31318E+03 -4.23966E+02  2.51220E+02 -9.61601E+01  3.34161E+02 -7.73886E+02  7.99359E+02
 -1.13043E+03  1.19703E+03 -2.57811E+03  5.44899E+02 -2.84685E+03 -4.61493E+01 -3.40052E+03 -1.80180E+03
 -1.39546E+03 -3.86588E+03  8.17942E+02 -4.49078E+03  1.87120E+03 -3.81765E+03  4.51852E+03 -1.63251E+03
  3.80978E+03  1.18372E+02  2.10282E+03  2.74564E+03 -6.93865E+02  2.66838E+03 -9.33043E+02  1.93776E+03
 -1.63434E+03  1.30260E+03 -1.08551E+03 -1.27654E+02 -5.30031E+02 -2.85274E+02 -5.55017E+02 -9.40598E+01
 -1.28829E+03 -1.57043E+02 -1.16492E+03 -2.74843E+01  1.21255E+02 -8.73005E+02 -2.81937E+02 -1.34305E+03
  1.70648E+03 -1.12490E+03  1.11586E+03  5.72036E+01  1.96688E+03  1.65966E+03 -2.14737E+02  2.54142E+03
 -1.26022E+03  3.25388E+03 -2.59938E+03  1.96973E+03 -2.90059E+03 -1.47880E+02 -2.33820E+03 -2.42436E+03
 -1.05410E+03 -2.62350E+03  6.19278E+02 -2.34580E+03  1.24902E+03 -1.28749E+03  1.52944E+03 -6.31171E+01
  1.04699E+03  7.56649E+02  3.84851E+01  6.82571E+02 -6.13158E+02 -4.93753E+01 -7.67604E+01 -4.10784E+02
  8.97868E+02 -1.08328E+02  7.06477E+02  6.14128E+02  5.72996E+02  1.05059E+03  5.29728E+02  9.43214E+02
 -1.07645E+03  9.76040E+02 -1.13470E+03 -1.31169E+02 -1.22799E+03 -1.06825E+03 -3.05097E+02 -1.95706E+03
  9.71877E+02 -1.29479E+03  1.31571E+03 -2.54589E+02  1.84967E+03 -2.64609E+02  6.54153E+02  1.48330E+03
  5.15140E+02  1.08846E+03 -4.21915E+02  1.30114E+03 -8.88715E+02  7.66334E+02 -6.68439E+02  3.08537E+00
 -5.03166E+02 -2.79338E+02 -7.62129E+02  2.03544E+02 -1.08350E+03  5.17428E+02 -1.45726E+03 -3.42091E+02
 -1.24385E+03 -1.90955E+02 -2.11604E+02 -1.22300E+03  8.50836E+02 -1.91281E+03  1.19745E+03 -6.02565E+02
  1.29945E+03  4.75938E+02  1.27214E+02  5.21729E+02 -2.07381E+02  1.61200E+03 -7.11164E+02  1.18742E+03
