 $NMID ID='MM_0lb_SNR800_19hz_g40_87.RAW', FMTDAT='(8E13.5)'
 TRAMP=1., VOLUME=1. $END
  3.10011E+05  2.32722E+02  3.37138E+05  2.50569E+05  8.40481E+04  3.37124E+05 -1.32460E+05  2.49944E+05
 -1.89568E+05  8.24085E+04 -1.10880E+05 -3.29414E+04  1.68160E+03 -4.99896E+04  5.39856E+04  2.27604E+02
  3.51198E+04  5.29580E+04 -1.68104E+04  7.46633E+04 -6.02790E+04  6.24181E+04 -8.25323E+04  3.12062E+04
 -7.93917E+04 -1.12404E+04 -5.59171E+04 -4.96495E+04 -1.50448E+04 -6.77280E+04  2.66132E+04 -4.44645E+04
  3.87708E+04  3.92475E+03  1.53883E+04  4.67258E+04 -3.36690E+04  4.60011E+04 -6.50319E+04 -6.22010E+02
 -5.14712E+04 -5.53548E+04 -5.86209E+03 -7.45640E+04  3.27973E+04 -5.26215E+04  4.55966E+04 -1.59325E+04
  4.09599E+04  1.09686E+04  3.04142E+04  2.41758E+04  1.56744E+04  2.80932E+04 -4.35724E+03  2.67084E+04
 -2.16636E+04  1.26436E+04 -1.91451E+04 -3.88763E+03  3.97463E+03 -7.56374E+03  2.08916E+04  1.03171E+04
  7.51704E+03  3.26608E+04 -2.96910E+04  3.36825E+04 -6.01123E+04  2.07694E+03 -5.48167E+04 -4.05122E+04
 -1.23501E+04 -6.00848E+04  3.75546E+04 -4.28513E+04  5.44676E+04 -2.02741E+03  3.11184E+04  2.99363E+04
 -6.77827E+03  3.24226E+04 -2.77451E+04  1.22585E+04 -2.65583E+04 -5.75091E+03 -1.36574E+04 -9.82516E+03
 -6.98073E+03 -1.08206E+04 -1.08341E+03 -1.62822E+04  6.51011E+03 -2.25839E+04  1.47449E+04 -1.43016E+04
  1.25145E+04  4.11777E+03 -5.78434E+03  1.30134E+04 -1.88230E+04 -1.89356E+03 -7.98806E+03 -2.92347E+04
  2.03939E+04 -3.93165E+04  4.36345E+04 -1.82830E+04  4.09911E+04  1.79481E+04  1.38871E+04  4.08226E+04
 -1.53185E+04  3.02328E+04 -2.27950E+04  8.98189E+02 -7.68363E+03 -2.58845E+04  2.03146E+04 -3.05952E+04
  3.71098E+04 -6.84370E+03  3.01681E+04  2.23100E+04  1.45260E+04  4.11081E+04 -7.97565E+03  4.36203E+04
 -2.75171E+04  2.87853E+04 -3.58029E+04  8.07661E+03 -3.70523E+04 -1.47674E+04 -2.06453E+04 -3.33467E+04
  6.91675E+03 -3.32710E+04  2.86280E+04 -1.20361E+04  2.62813E+04  1.04477E+04  2.93197E+03  1.71866E+04
 -1.29611E+04  6.96748E+03 -9.39978E+03 -7.76222E+03  5.86249E+03 -9.72272E+03  1.69788E+04  6.68885E+03
  1.20433E+04  2.14058E+04 -6.79015E+03  2.28887E+04 -2.12149E+04  8.50208E+03 -2.42582E+04 -6.94047E+03
 -1.58111E+04 -1.60543E+04 -4.86125E+03 -1.59638E+04  3.61526E+03 -1.32803E+04  1.15280E+04 -1.36207E+04
  2.00915E+04 -1.12172E+04  2.70560E+04  7.69637E+02  2.06754E+04  1.53783E+04  3.83415E+03  3.15068E+04
 -1.55888E+04  2.69339E+04 -2.54871E+04  9.12918E+03 -1.92207E+04 -1.04408E+04 -3.56485E+03 -1.38379E+04
  2.67761E+03 -4.20913E+03 -1.98336E+03  5.20085E+03 -1.22946E+04  5.44830E+03 -1.27299E+04 -4.43879E+03
 -8.31620E+03 -1.46734E+04  4.29627E+03 -1.82008E+04  1.17931E+04 -1.34793E+04  1.36269E+04 -1.48394E+03
  8.18514E+03  1.01554E+04 -8.19120E+02  1.50449E+04 -9.61473E+03  8.46644E+03 -1.45081E+04 -3.06036E+03
 -1.10470E+04 -1.33636E+04 -1.32835E+03 -1.80398E+04  8.08639E+03 -1.44573E+04  1.55305E+04 -6.73823E+03
  1.37600E+04  1.01790E+03  1.01075E+04  3.81893E+03  4.64772E+03  5.23690E+02  7.07309E+03 -1.37644E+03
  1.28384E+04  2.85735E+03  1.38982E+04  1.22240E+04  8.27214E+03  2.36079E+04 -3.29111E+03  2.49029E+04
 -1.47693E+04  1.86693E+04 -2.26952E+04  8.77641E+03 -2.29063E+04 -1.72996E+03 -2.00910E+04 -1.29773E+04
 -9.68799E+03 -1.85698E+04  6.26082E+03 -1.75573E+04  1.54213E+04 -1.06011E+04  1.51536E+04  3.26724E+03
  6.55778E+03  1.03694E+04 -6.37243E+03  1.01405E+04 -1.27116E+04  2.82287E+03 -9.68775E+03 -7.60540E+03
  1.06533E+01 -1.16031E+04  5.72005E+03 -9.10581E+03  7.60695E+03 -1.31992E+03  1.20619E+03  4.62856E+03
 -5.25760E+03  9.78195E+02 -3.25701E+03 -4.45879E+03  7.03067E+02 -9.70768E+03  7.53277E+03 -9.36677E+03
  1.14152E+04 -3.77446E+03  1.05690E+04  2.68471E+03  9.13823E+03  8.68927E+03  4.40934E+03  1.26491E+04
 -1.43244E+03  1.46072E+04 -8.52977E+03  9.49020E+03 -1.02361E+04  2.88727E+03 -7.69609E+03 -1.58774E+03
 -4.50682E+03 -3.14638E+03 -7.07922E+02  1.80339E+03 -1.82765E+03  1.75803E+03 -3.16869E+03  3.60343E+03
 -7.56285E+03 -3.68656E+02 -8.04503E+03 -6.87556E+03 -3.20440E+03 -1.08295E+04  3.14181E+03 -7.84541E+03
  6.60345E+03 -3.37923E+03  5.01309E+03  1.90205E+03  6.09762E+02  2.62628E+03 -3.18799E+03 -1.67675E+02
 -2.99933E+03 -4.86631E+03 -6.37909E+02 -6.41316E+03  3.38204E+03 -7.19698E+03  9.45770E+03 -3.63541E+03
  1.07966E+04  5.70604E+02  8.14988E+03  5.39643E+03  1.41459E+03  7.48985E+03 -5.10777E+03  7.72830E+03
 -6.41071E+03  2.71837E+03 -3.24080E+03 -8.00332E+02  1.48140E+03 -1.68353E+03  4.33642E+03 -9.39724E+02
  3.95224E+03  3.05095E+03  1.03040E+03  5.63950E+03 -3.92356E+03  6.04443E+03 -7.00424E+03  1.89779E+03
 -4.25940E+03 -3.06665E+03 -1.03082E+02 -6.19411E+03  3.38418E+03 -3.20843E+03  3.16280E+03  7.99707E+02
  4.44775E+02  3.05803E+03 -3.98200E+03  4.37736E+03 -4.35094E+03  1.93666E+03 -3.88155E+03 -6.28080E+02
 -2.71032E+03 -5.05818E+03  1.14477E+03 -6.29212E+03  5.05029E+03 -4.27409E+03  5.79952E+03  8.77002E+02
  3.97290E+03  4.50567E+03  3.30979E+02  6.72747E+03 -4.55449E+03  4.03266E+03 -4.80329E+03 -4.91074E+02
 -5.40969E+03 -4.87351E+03 -1.35442E+03 -4.66540E+03  2.35015E+03 -4.53516E+03  2.75234E+03 -2.52480E+03
  2.91545E+03  4.95248E+01  2.39120E+02  1.26334E+03  6.73306E+02 -1.81457E+02  8.30182E+01 -1.74349E+03
  3.39639E+03 -3.16956E+02  4.69646E+03  7.24014E+02  4.94035E+03  2.55207E+03  5.17832E+03  6.54920E+03
 -9.66827E+02  7.60427E+03 -7.16744E+03  5.86813E+03 -9.10803E+03  1.16736E+03 -7.08112E+03 -2.22571E+03
 -3.99383E+03 -5.99486E+03 -3.77012E+02 -4.81304E+03  1.85234E+03 -1.73848E+03  1.40983E+03 -2.08509E+03
  9.03856E+02 -1.34864E+03  2.05282E+03 -2.52153E+03  3.35866E+03 -1.36237E+03  3.31801E+03  3.61877E+02
  4.03833E+03  1.22425E+03  1.08789E+03  3.10645E+03 -1.40437E+03  2.35606E+03 -4.11761E+03  2.28558E+03
 -4.23615E+03 -9.25123E+02 -1.44760E+03 -2.96195E+03  4.80189E+02 -4.32340E+03  2.94266E+03 -4.88704E+03
  4.73480E+03 -2.95970E+03  6.00320E+03  2.67469E+02  4.29054E+03  3.71848E+03  8.82147E+02  5.59919E+03
 -1.85704E+03  5.46387E+03 -3.00441E+03  1.82616E+03 -1.68223E+03 -1.04100E+03 -1.15752E+02 -5.63871E+02
 -3.63671E+02  3.37721E+02 -5.20067E+02  2.03077E+03 -2.56122E+03  9.91681E+02 -3.82147E+03 -2.40304E+02
 -1.06914E+03 -3.92620E+03  9.06198E+02 -4.38768E+03  2.44696E+03 -4.01645E+03  3.17510E+03 -8.23111E+02
  3.16322E+03  2.31348E+03  1.46329E+03  2.78330E+03 -6.73509E+02  3.72537E+03 -2.30786E+03  2.37820E+03
 -3.34844E+03  5.34588E+02 -3.02004E+03 -2.09570E+03 -8.03300E+01 -2.77934E+03  1.39826E+03 -2.15981E+03
  2.40167E+03 -1.28396E+03  1.46720E+03  4.41548E+02  5.50408E+02  1.22636E+03  7.44596E+02  4.89604E+02
  1.70260E+03  5.45739E+02  9.35918E+02  1.01182E+03  8.92520E+02  2.18927E+03  1.41151E+03  1.67103E+03
 -1.17737E+03  2.61706E+03 -2.01501E+03  3.75712E+03 -2.73795E+03  1.37258E+03 -3.72668E+03 -8.57187E+01
 -1.44270E+03 -3.23749E+03  6.65534E+02 -4.41540E+03  1.33221E+03 -2.17956E+03  2.74123E+03 -1.15806E+03
  1.93904E+03  1.56432E+03  1.74773E+02  2.04443E+03 -5.08954E+02  1.06904E+03 -1.01666E+03  6.40925E+01
 -6.55626E+02 -1.35175E+03  1.32745E+03 -1.33087E+03  1.19480E+03 -9.50293E+02  1.19660E+03  6.02050E+02
  5.98728E+02  5.99768E+01  8.20009E+02 -6.03247E+02 -1.05206E+02  5.04392E+02  1.53021E+03 -1.11875E+02
 -2.18498E+01 -3.06966E+02  1.73606E+03  8.00797E+02  1.83812E+02  2.35020E+03 -1.69743E+02  2.63191E+03
 -1.08313E+03  8.35948E+02 -1.80375E+03  3.34546E+02 -2.05618E+03 -6.45361E+02 -1.82002E+02 -7.80159E+02
  3.33225E+02 -9.71342E+02  8.71525E+02 -6.54311E+02  6.87549E+02  1.22751E+03 -8.33275E+02  1.03669E+03
 -1.31615E+03  9.09680E+02 -9.52342E+02 -1.34564E+03 -5.45602E+02 -2.00547E+03 -1.12924E+02 -1.46679E+03
  5.50159E+02 -2.43184E+02  8.26548E+02  2.96447E+02  1.08234E+03 -1.12529E+02  7.74931E+01  9.29006E+02
 -4.34788E+01 -2.53686E+02 -7.16461E+02 -2.20816E+02  6.03819E+02 -8.68409E+02  1.83338E+03 -7.44670E+02
  8.97051E+02  2.92952E+02  2.67024E+03  5.12803E+02  8.08958E+02  1.38689E+03 -8.18125E+01  1.71746E+03
 -1.34781E+03  6.25813E+01 -1.56513E+03  1.26937E+00 -7.62351E+02 -1.25352E+03 -2.74511E+01 -2.65923E+02
  1.52084E+03 -5.92528E+02  8.52893E+02  6.87152E+02  5.33703E+01  1.23090E+03  2.73386E+02  1.02998E+03
 -4.88210E+02  9.08739E+02 -5.53035E+02  4.70450E+02  2.65193E+01  5.85606E+02 -6.17100E+02  3.92225E+02
 -6.04672E+02  1.00767E+03 -1.63193E+03  4.48416E+02 -1.51852E+03  4.27548E+02 -2.20096E+03 -7.93658E+02
 -1.11946E+03 -1.99123E+03  3.13734E+02 -2.62183E+03  1.24208E+03 -2.31802E+03  2.49599E+03 -8.22162E+02
  2.04924E+03 -1.74502E+02  1.24174E+03  1.41773E+03 -3.31398E+02  1.41625E+03 -5.12770E+02  1.19552E+03
 -1.03847E+03  7.48697E+02 -6.14262E+02 -1.82339E+01 -5.70883E+02  3.78728E+01 -6.34490E+02 -2.15173E+02
 -9.99030E+02  1.02254E+02 -8.17802E+02 -1.45061E+02  1.72272E+02 -7.29940E+02 -2.41363E+02 -8.96334E+02
  1.14378E+03 -6.08215E+02  4.33781E+02  2.31142E+02  9.66155E+02  1.04865E+03 -3.50075E+02  1.47261E+03
 -8.95136E+02  2.24900E+03 -1.55875E+03  1.52037E+03 -1.66148E+03 -1.53894E+02 -7.45358E+02 -1.37397E+03
 -6.81020E+02 -1.48511E+03  2.58511E+02 -8.89353E+02  3.76995E+02 -4.89040E+02  5.94900E+02  2.38077E+02
  7.93218E+02  2.39338E+02  4.30228E+01  6.20016E+02 -2.41614E+02 -2.34434E+01 -1.66990E+02 -1.00467E+02
  2.21984E+02  1.89620E+02  3.20875E+02  5.10091E+02  1.43243E+02  7.29997E+02  2.48642E+02  2.60753E+02
 -7.15767E+02  4.16953E+02 -3.62566E+02  5.24664E+01 -6.13813E+02 -4.54853E+02  6.75586E+01 -7.29320E+02
  3.89489E+02 -6.91248E+02  3.68173E+02  3.18903E+01  1.01741E+03 -4.48972E+02  5.12532E+02  7.72480E+02
  3.26727E+02  3.73556E+02 -2.09670E+02  5.30731E+02 -4.93876E+02  4.81986E+02 -4.23529E+02  3.05512E+02
  1.89834E+01 -4.31450E+01 -4.87317E+02  2.96767E+02 -4.38610E+02  2.29444E+02 -9.55740E+02 -3.50059E+02
 -1.11699E+03  2.29367E+02 -3.32685E+02 -1.14389E+03  6.73155E+02 -1.59069E+03  6.25308E+02 -1.81160E+02
  6.12970E+02  6.71379E+01 -4.39309E+02  1.86421E+02 -2.03796E+02  7.34081E+02 -2.16359E+02  5.23928E+02
