 $NMID ID='MM_0lb_SNR800_7hz_g55_27.RAW', FMTDAT='(8E13.5)'
 TRAMP=1., VOLUME=1. $END
  3.09890E+05  2.20192E+02  3.37931E+05  2.50771E+05  8.54339E+04  3.38469E+05 -1.32762E+05  2.52664E+05
 -1.91350E+05  8.42967E+04 -1.12965E+05 -3.23325E+04  1.95901E+02 -5.09232E+04  5.38981E+04 -4.11609E+02
  3.56056E+04  5.28242E+04 -1.67480E+04  7.65627E+04 -6.14301E+04  6.48146E+04 -8.54917E+04  3.25773E+04
 -8.32895E+04 -1.22148E+04 -5.85902E+04 -5.30071E+04 -1.49118E+04 -7.11545E+04  2.86916E+04 -4.77718E+04
  4.14910E+04  3.56905E+03  1.74730E+04  4.90077E+04 -3.50304E+04  4.84513E+04 -6.86933E+04  6.00944E+02
 -5.54959E+04 -5.82755E+04 -8.20644E+03 -8.02920E+04  3.53412E+04 -5.78019E+04  5.04172E+04 -1.88531E+04
  4.61416E+04  1.15022E+04  3.38975E+04  2.72127E+04  1.59662E+04  3.11070E+04 -6.33479E+03  2.82167E+04
 -2.27707E+04  1.18575E+04 -1.77844E+04 -6.58993E+03  8.09593E+03 -7.01611E+03  2.43632E+04  1.46195E+04
  6.67541E+03  3.87893E+04 -3.48643E+04  3.78261E+04 -6.76307E+04  2.34965E+03 -6.00043E+04 -4.56914E+04
 -1.28029E+04 -6.67567E+04  4.28561E+04 -4.87316E+04  6.24749E+04 -3.03367E+03  3.76265E+04  3.53206E+04
 -5.13043E+03  4.10538E+04 -3.32666E+04  2.01545E+04 -3.47632E+04 -3.40855E+03 -2.08062E+04 -1.30758E+04
 -1.01351E+04 -1.57987E+04 -3.08807E+02 -2.05783E+04  8.97398E+03 -2.37869E+04  1.59060E+04 -1.20647E+04
  1.02027E+04  6.71219E+03 -1.20046E+04  1.27641E+04 -2.45524E+04 -7.67021E+03 -8.73225E+03 -3.97819E+04
  2.61356E+04 -4.88182E+04  5.39742E+04 -2.13995E+04  5.03479E+04  2.16207E+04  1.79730E+04  4.90743E+04
 -1.69006E+04  3.74751E+04 -2.85790E+04  3.21108E+03 -1.22835E+04 -3.06167E+04  2.18594E+04 -3.87847E+04
  4.64304E+04 -1.22406E+04  4.30305E+04  2.61120E+04  2.26840E+04  5.35494E+04 -8.18452E+03  5.89165E+04
 -3.73440E+04  4.06761E+04 -5.04871E+04  1.16669E+04 -5.02133E+04 -1.88941E+04 -2.75207E+04 -4.40518E+04
  8.21427E+03 -4.43075E+04  3.58133E+04 -1.83040E+04  3.35728E+04  1.12145E+04  5.99997E+03  2.11673E+04
 -1.40169E+04  1.08181E+04 -1.17819E+04 -7.50495E+03  5.91218E+03 -1.19737E+04  1.97902E+04  5.41650E+03
  1.53168E+04  2.33629E+04 -5.07457E+03  2.82043E+04 -2.43086E+04  1.59297E+04 -3.34017E+04 -2.17874E+03
 -2.79744E+04 -1.89966E+04 -1.34748E+04 -2.70302E+04  4.58970E+03 -2.88247E+04  2.20623E+04 -2.54254E+04
  3.56331E+04 -1.44488E+04  4.09534E+04  5.91137E+03  2.85080E+04  2.65095E+04  4.42097E+03  4.36725E+04
 -2.12701E+04  3.56144E+04 -3.15157E+04  1.24718E+04 -2.26972E+04 -1.02167E+04 -5.40528E+03 -1.27193E+04
 -5.31317E+01 -5.48237E+02 -9.12361E+03  9.21046E+03 -2.25387E+04  5.21181E+03 -2.22212E+04 -1.10957E+04
 -1.25547E+04 -2.57297E+04  6.95451E+03 -3.04222E+04  2.06402E+04 -2.18409E+04  2.49073E+04 -2.05427E+03
  1.63141E+04  1.79404E+04 -1.20399E+03  2.51633E+04 -1.87590E+04  1.49662E+04 -2.61729E+04 -5.28370E+03
 -1.88951E+04 -2.28622E+04 -1.97612E+03 -3.01849E+04  1.41487E+04 -2.61143E+04  2.52863E+04 -1.29263E+04
  2.42529E+04 -6.38888E+02  1.75769E+04  5.68977E+03  1.00456E+04  1.27873E+03  1.34990E+04 -2.23602E+03
  2.46789E+04  3.27134E+03  2.85680E+04  2.03771E+04  2.01336E+04  4.15206E+04 -2.35506E+03  5.01168E+04
 -2.80505E+04  4.17873E+04 -4.70213E+04  2.26809E+04 -5.09187E+04 -3.55702E+03 -4.08307E+04 -2.99784E+04
 -1.56584E+04 -4.27723E+04  1.51300E+04 -3.67901E+04  3.17903E+04 -1.66348E+04  2.70674E+04  9.07000E+03
  8.28977E+03  2.15131E+04 -1.29808E+04  1.73962E+04 -2.22239E+04  2.45862E+03 -1.67617E+04 -1.48221E+04
 -4.49455E+02 -2.15150E+04  1.21297E+04 -1.55049E+04  1.51955E+04 -2.04772E+03  4.12365E+03  9.90817E+03
 -9.27390E+03  4.90873E+03 -1.07313E+04 -7.60313E+03 -2.74106E+03 -2.07750E+04  1.35038E+04 -2.24832E+04
  2.61270E+04 -1.36929E+04  3.05978E+04  3.73848E+03  2.64509E+04  2.16246E+04  1.21622E+04  3.43692E+04
 -6.64501E+03  3.60652E+04 -2.38751E+04  2.21546E+04 -2.61978E+04  3.91559E+03 -1.76725E+04 -7.39854E+03
 -7.44048E+03 -8.59030E+03 -9.49420E+02  2.05704E+02 -2.97734E+03  3.89618E+03 -8.60402E+03  5.99529E+03
 -1.66031E+04 -1.20803E+03 -1.66592E+04 -1.32999E+04 -6.95540E+03 -2.21271E+04  7.83233E+03 -1.84603E+04
  1.42846E+04 -7.10353E+03  1.04062E+04  5.30624E+03 -3.93038E+02  7.31559E+03 -9.57156E+03 -2.39136E+02
 -8.51759E+03 -1.15358E+04 -1.23606E+03 -1.81662E+04  1.11166E+04 -1.91336E+04  2.36374E+04 -1.05832E+04
  2.73766E+04  3.23612E+03  1.99712E+04  1.68174E+04  3.69532E+03  2.26662E+04 -1.10472E+04  1.81050E+04
 -1.47622E+04  5.12738E+03 -8.15379E+03 -5.07982E+03  2.38146E+03 -5.45694E+03  9.21491E+03 -1.00452E+03
  8.46381E+03  8.11399E+03  1.69567E+03  1.50401E+04 -1.04691E+04  1.40453E+04 -1.85889E+04  3.06448E+03
 -1.29858E+04 -9.84590E+03  1.89903E+01 -1.58493E+04  1.07130E+04 -7.88324E+03  1.15342E+04  4.24492E+03
  3.00935E+03  1.23480E+04 -9.93010E+03  1.35848E+04 -1.67068E+04  6.03007E+03 -1.68044E+04 -6.58856E+03
 -9.80059E+03 -1.96894E+04  4.57704E+03 -2.25901E+04  1.89722E+04 -1.33401E+04  2.06868E+04  3.66691E+03
  1.24122E+04  1.65367E+04 -2.07820E+03  1.86426E+04 -1.40250E+04  1.03869E+04 -1.56969E+04 -2.09018E+03
 -1.25495E+04 -1.26092E+04 -1.67698E+03 -1.40260E+04  7.81517E+03 -1.12865E+04  9.36731E+03 -4.04044E+03
  5.11127E+03  2.81749E+03 -1.60235E+03  2.13080E+03 -1.36456E+03 -4.95816E+03  2.83246E+03 -9.69117E+03
  1.47979E+04 -6.10709E+03  2.04432E+04  2.09029E+03  1.92071E+04  1.38873E+04  1.19122E+04  2.60868E+04
 -6.30456E+03  3.03541E+04 -2.46802E+04  2.20025E+04 -3.20432E+04  4.72470E+03 -2.59966E+04 -1.21790E+04
 -1.25244E+04 -2.12471E+04 -5.02119E+02 -1.82412E+04  6.68777E+03 -1.09830E+04  6.08417E+03 -6.75252E+03
  4.77564E+03 -3.44455E+03  4.38631E+03 -4.48961E+03  6.55465E+03 -4.58000E+03  9.82285E+03 -2.77533E+03
  1.32323E+04  2.74135E+03  7.86231E+03  1.10073E+04 -2.35846E+03  1.49067E+04 -1.41207E+04  1.08012E+04
 -1.86193E+04 -1.49124E+03 -1.29037E+04 -1.27596E+04 -2.58938E+03 -2.08836E+04  1.11644E+04 -1.98468E+04
  2.09227E+04 -1.06593E+04  2.47631E+04  3.55361E+03  1.66538E+04  1.74835E+04  2.57669E+03  2.26463E+04
 -9.91329E+03  1.81653E+04 -1.35289E+04  6.10379E+03 -9.28963E+03 -1.85226E+03 -4.32173E+03 -3.16444E+03
 -1.78118E+03 -4.13696E+02 -2.67070E+03  3.78536E+03 -7.82891E+03  2.36204E+03 -1.23842E+04 -1.71429E+03
 -9.73170E+03 -1.26456E+04 -2.56262E+02 -1.91029E+04  1.16490E+04 -1.78281E+04  1.92779E+04 -5.18991E+03
  1.87563E+04  9.31621E+03  8.98475E+03  1.75995E+04 -4.02111E+03  1.90100E+04 -1.39782E+04  1.18591E+04
 -1.82401E+04  5.63703E+02 -1.37501E+04 -1.15303E+04 -1.61885E+03 -1.67277E+04  8.23146E+03 -1.20790E+04
  1.21577E+04 -3.12197E+03  8.51668E+03  3.26519E+03  2.62993E+03  5.20412E+03  1.56286E+03  2.68748E+03
  3.34595E+03  1.36733E+03  4.75553E+03  2.69233E+03  5.83628E+03  6.75812E+03  4.96322E+03  1.07901E+04
 -3.79723E+03  1.52736E+04 -1.37574E+04  1.51968E+04 -2.05318E+04  3.99333E+03 -2.09521E+04 -9.31812E+03
 -1.04012E+04 -2.01036E+04  2.56043E+03 -2.17485E+04  1.23548E+04 -1.39894E+04  1.63218E+04 -3.99525E+03
  1.30356E+04  7.37265E+03  2.86456E+03  1.13369E+04 -6.07216E+03  7.25800E+03 -8.60220E+03 -1.23327E+03
 -4.32962E+03 -9.01734E+03  4.89565E+03 -8.95830E+03  9.00594E+03 -4.43760E+03  8.04266E+03  1.60039E+03
  4.85161E+03  4.32221E+03  2.02694E+03  4.23750E+03 -1.14446E+03  2.27158E+03  1.87926E+03 -9.50095E+02
  3.97417E+03 -1.38886E+03  8.36700E+03  3.61669E+03  5.16686E+03  1.09804E+04 -2.25066E+03  1.44010E+04
 -9.56408E+03  9.71388E+03 -1.31734E+04  2.49245E+03 -1.13377E+04 -4.45371E+03 -4.73597E+03 -8.01223E+03
  8.34113E+02 -8.13431E+03  5.19305E+03 -3.40472E+03  4.90742E+03  3.53679E+03 -2.21704E+03  7.02725E+03
 -8.57998E+03  3.84255E+03 -9.86495E+03 -5.07802E+03 -5.23536E+03 -1.10940E+04  1.36481E+03 -1.16499E+04
  7.07044E+03 -6.71476E+03  8.72122E+03 -1.01744E+03  6.76841E+03  3.43920E+03  5.71765E+02  6.17657E+03
 -4.71385E+03  1.53149E+03 -4.83561E+03 -4.20210E+03  1.84219E+03 -8.86398E+03  1.07845E+04 -7.64100E+03
  1.40013E+04  8.39097E+02  1.24476E+04  9.51282E+03  4.12190E+03  1.43743E+04 -4.75498E+03  1.35781E+04
 -1.13996E+04  6.38890E+03 -1.17140E+04 -1.95298E+03 -6.29043E+03 -9.22015E+03  1.97016E+03 -8.87389E+03
  8.63658E+03 -4.30443E+03  8.18905E+03  3.56147E+03  2.54407E+03  7.74267E+03 -1.69888E+03  6.85158E+03
 -3.92677E+03  4.29901E+03 -3.31413E+03  1.13666E+03 -1.76914E+03  1.39060E+03 -2.37492E+03  2.72257E+03
 -4.01857E+03  5.39562E+03 -9.41930E+03  4.65717E+03 -1.48135E+04  1.26325E+02 -1.56266E+04 -9.80185E+03
 -8.86411E+03 -1.90870E+04  3.56048E+03 -2.18001E+04  1.43342E+04 -1.68514E+04  2.10635E+04 -5.94334E+03
  1.93947E+04  4.42280E+03  1.19068E+04  1.32271E+04  2.03075E+03  1.54279E+04 -6.10085E+03  1.12426E+04
 -8.42127E+03  4.20532E+03 -5.37262E+03 -2.10345E+03 -1.83347E+03 -1.92691E+03 -5.82550E+02 -6.16445E+01
 -2.32146E+03  5.55261E+02 -3.40334E+03 -4.91317E+02 -1.25765E+03 -3.48641E+03  6.51472E+02 -5.45547E+03
  6.51829E+03 -4.57864E+03  9.20130E+03  1.25336E+02  1.11452E+04  8.42813E+03  3.75691E+03  1.54485E+04
 -7.56198E+03  1.76641E+04 -1.64469E+04  1.00504E+04 -1.92256E+04 -1.36845E+03 -1.44071E+04 -1.14729E+04
 -5.47555E+03 -1.58524E+04  4.00345E+03 -1.50062E+04  1.02773E+04 -8.22571E+03  1.03949E+04  2.14619E+02
  4.95224E+03  5.43101E+03 -1.10596E+03  4.37843E+03 -2.97988E+03 -8.10095E+02  2.88662E+02 -3.78780E+03
  4.92027E+03 -2.36214E+03  6.44385E+03  2.00325E+03  4.49105E+03  6.01296E+03  2.32471E+02  8.56506E+03
 -7.28902E+03  7.26502E+03 -1.09723E+04  1.07628E+02 -9.34815E+03 -8.12896E+03 -1.25265E+03 -1.32182E+04
  7.80365E+03 -1.10043E+04  1.27815E+04 -3.81336E+03  1.21875E+04  3.67422E+03  7.31280E+03  9.38209E+03
  7.79370E+02  1.10125E+04 -3.98086E+03  9.27134E+03 -6.60467E+03  4.57535E+03 -5.45016E+03  3.06635E+02
 -2.78888E+03 -2.92227E+02 -2.67513E+03  1.24201E+03 -5.39909E+03  2.29974E+03 -8.11887E+03 -1.86120E+03
 -7.89336E+03 -5.90910E+03 -1.62484E+03 -1.10643E+04  4.37812E+03 -1.07620E+04  9.91153E+03 -5.80833E+03
  1.10443E+04  1.78230E+03  6.46838E+03  8.26028E+03 -1.00050E+03  1.08477E+04 -8.70853E+03  6.86882E+03
