 $NMID ID='MM_0lb_SNR800_9hz_g40_22.RAW', FMTDAT='(8E13.5)'
 TRAMP=1., VOLUME=1. $END
  3.10318E+05  3.67623E+02  3.37687E+05  2.50789E+05  8.51104E+04  3.38194E+05 -1.32842E+05  2.51720E+05
 -1.90843E+05  8.34734E+04 -1.12653E+05 -3.22058E+04  3.07511E+02 -5.07533E+04  5.35675E+04 -3.92361E+02
  3.57238E+04  5.30867E+04 -1.64541E+04  7.58045E+04 -6.11704E+04  6.42575E+04 -8.56048E+04  3.25850E+04
 -8.22397E+04 -1.13202E+04 -5.80128E+04 -5.22068E+04 -1.48460E+04 -7.04577E+04  2.80710E+04 -4.65291E+04
  4.05033E+04  3.57652E+03  1.65298E+04  4.81529E+04 -3.48115E+04  4.80004E+04 -6.78591E+04  1.73272E+02
 -5.48138E+04 -5.76877E+04 -7.13958E+03 -7.84558E+04  3.44248E+04 -5.68014E+04  4.89996E+04 -1.80358E+04
  4.45674E+04  1.15024E+04  3.23778E+04  2.61454E+04  1.62479E+04  3.03543E+04 -5.62380E+03  2.78450E+04
 -2.27808E+04  1.21817E+04 -1.80894E+04 -5.75669E+03  6.81611E+03 -7.55643E+03  2.31891E+04  1.36829E+04
  6.99088E+03  3.73797E+04 -3.32492E+04  3.66344E+04 -6.53152E+04  1.89344E+03 -5.83298E+04 -4.43526E+04
 -1.27118E+04 -6.54479E+04  4.16131E+04 -4.71831E+04  6.07751E+04 -2.20455E+03  3.61212E+04  3.41951E+04
 -5.21662E+03  3.86988E+04 -3.13743E+04  1.83687E+04 -3.24089E+04 -3.68076E+03 -1.89516E+04 -1.16954E+04
 -9.34920E+03 -1.43383E+04 -7.85398E+02 -1.96788E+04  8.66377E+03 -2.34119E+04  1.57209E+04 -1.27832E+04
  1.07991E+04  5.79443E+03 -1.00311E+04  1.29490E+04 -2.26854E+04 -6.24065E+03 -8.65810E+03 -3.68929E+04
  2.45748E+04 -4.60403E+04  5.10808E+04 -2.08157E+04  4.75128E+04  2.05776E+04  1.71429E+04  4.67547E+04
 -1.63469E+04  3.57287E+04 -2.69625E+04  2.84813E+03 -1.14193E+04 -2.91753E+04  2.13455E+04 -3.61980E+04
  4.42971E+04 -1.03967E+04  3.97938E+04  2.47036E+04  2.02676E+04  5.00128E+04 -8.60768E+03  5.48245E+04
 -3.49617E+04  3.72447E+04 -4.65068E+04  1.06559E+04 -4.63693E+04 -1.79797E+04 -2.55507E+04 -4.15723E+04
  7.65480E+03 -4.10471E+04  3.38307E+04 -1.66595E+04  3.13692E+04  1.15150E+04  4.29924E+03  2.01731E+04
 -1.40178E+04  9.43476E+03 -1.13246E+04 -7.57135E+03  5.90921E+03 -1.15388E+04  1.84753E+04  5.59930E+03
  1.44361E+04  2.24938E+04 -5.30648E+03  2.68968E+04 -2.32680E+04  1.35233E+04 -3.09099E+04 -3.16348E+03
 -2.45305E+04 -1.82490E+04 -1.09959E+04 -2.39577E+04  4.23614E+03 -2.42535E+04  1.90012E+04 -2.20486E+04
  3.09059E+04 -1.41790E+04  3.71927E+04  4.73787E+03  2.61091E+04  2.35112E+04  4.68576E+03  4.01946E+04
 -1.93610E+04  3.29978E+04 -3.02075E+04  1.13328E+04 -2.23359E+04 -1.01452E+04 -4.54115E+03 -1.30149E+04
  1.12135E+03 -1.72761E+03 -7.30667E+03  8.25631E+03 -1.92045E+04  4.88538E+03 -1.94311E+04 -9.10541E+03
 -1.20054E+04 -2.26067E+04  5.64480E+03 -2.73771E+04  1.79858E+04 -1.92325E+04  2.19883E+04 -1.93032E+03
  1.39295E+04  1.55982E+04 -1.12879E+03  2.28722E+04 -1.62160E+04  1.34719E+04 -2.28899E+04 -4.85034E+03
 -1.66720E+04 -1.99998E+04 -1.93876E+03 -2.73036E+04  1.21795E+04 -2.24842E+04  2.22616E+04 -1.19745E+04
  2.12153E+04 -1.54404E+02  1.50130E+04  5.07916E+03  8.65002E+03  1.38072E+03  1.17985E+04 -2.18312E+03
  2.13668E+04  3.04624E+03  2.44836E+04  1.76191E+04  1.68160E+04  3.62978E+04 -2.81591E+03  4.24815E+04
 -2.43372E+04  3.53712E+04 -4.01295E+04  1.85058E+04 -4.26551E+04 -3.02446E+03 -3.44461E+04 -2.51215E+04
 -1.42139E+04 -3.58584E+04  1.28931E+04 -3.09853E+04  2.63093E+04 -1.46041E+04  2.33930E+04  7.94855E+03
  7.86832E+03  1.78193E+04 -1.06727E+04  1.53110E+04 -1.95442E+04  2.22816E+03 -1.46182E+04 -1.23625E+04
 -4.27226E+02 -1.88768E+04  1.00551E+04 -1.38748E+04  1.27875E+04 -1.00551E+03  3.27394E+03  8.64393E+03
 -8.60937E+03  3.73992E+03 -8.84213E+03 -6.41022E+03 -1.53609E+03 -1.72576E+04  1.16409E+04 -1.91158E+04
  2.22906E+04 -1.06032E+04  2.50412E+04  3.35610E+03  2.17600E+04  1.78724E+04  1.02413E+04  2.78583E+04
 -4.65009E+03  2.97210E+04 -1.92126E+04  1.82442E+04 -2.17056E+04  3.99755E+03 -1.48668E+04 -5.37197E+03
 -6.44921E+03 -6.86507E+03 -7.33172E+02  2.91114E+01 -2.89081E+03  3.37641E+03 -6.69541E+03  5.35368E+03
 -1.35011E+04 -9.40264E+02 -1.40656E+04 -1.12333E+04 -5.99360E+03 -1.87240E+04  6.15924E+03 -1.49266E+04
  1.23292E+04 -6.23305E+03  8.89538E+03  4.01891E+03 -4.00701E+02  5.85756E+03 -7.44373E+03 -4.54905E+01
 -7.18919E+03 -9.46424E+03 -1.20039E+03 -1.47999E+04  8.58870E+03 -1.56520E+04  1.91059E+04 -8.29305E+03
  2.26362E+04  2.35109E+03  1.60596E+04  1.32395E+04  3.22705E+03  1.84117E+04 -9.04287E+03  1.47899E+04
 -1.20864E+04  4.21838E+03 -6.23286E+03 -3.04787E+03  2.15621E+03 -4.65099E+03  7.99305E+03 -1.24004E+03
  7.40756E+03  6.63333E+03  1.51483E+03  1.24597E+04 -8.58326E+03  1.15183E+04 -1.49105E+04  2.88242E+03
 -1.01956E+04 -7.80681E+03  2.30982E+02 -1.28536E+04  8.21143E+03 -6.23955E+03  8.85600E+03  3.25943E+03
  2.27273E+03  9.45682E+03 -7.52480E+03  1.06259E+04 -1.29695E+04  5.30894E+03 -1.33194E+04 -5.11510E+03
 -7.37390E+03 -1.49378E+04  3.69648E+03 -1.77348E+04  1.48819E+04 -1.00756E+04  1.64100E+04  2.80164E+03
  9.62360E+03  1.23396E+04 -9.06146E+02  1.52570E+04 -1.10533E+04  8.51027E+03 -1.19570E+04 -1.58237E+03
 -1.01617E+04 -1.00193E+04 -1.43969E+03 -1.14176E+04  6.21903E+03 -9.34897E+03  7.22149E+03 -3.44641E+03
  4.91668E+03  2.00160E+03 -1.02853E+03  2.03251E+03 -4.41104E+02 -2.88713E+03  2.54317E+03 -7.20768E+03
  1.06784E+04 -4.43301E+03  1.52409E+04  1.34829E+03  1.50096E+04  1.02914E+04  9.77319E+03  1.96939E+04
 -4.10911E+03  2.26051E+04 -1.88977E+04  1.69498E+04 -2.44200E+04  3.08563E+03 -1.92561E+04 -8.20106E+03
 -1.01292E+04 -1.65851E+04 -7.24862E+02 -1.36698E+04  5.08491E+03 -7.78609E+03  4.66493E+03 -4.82460E+03
  3.77449E+03 -2.76677E+03  3.12315E+03 -4.08319E+03  6.00588E+03 -3.67785E+03  7.67632E+03 -1.07250E+03
  1.00392E+04  2.47383E+03  5.42172E+03  8.85430E+03 -2.14214E+03  1.03775E+04 -1.09989E+04  7.93975E+03
 -1.34721E+04 -1.17182E+03 -8.68004E+03 -9.28942E+03 -9.81040E+02 -1.47525E+04  8.17435E+03 -1.49553E+04
  1.57139E+04 -8.34997E+03  1.84724E+04  2.36310E+03  1.25992E+04  1.28809E+04  2.20078E+03  1.68202E+04
 -6.77765E+03  1.33951E+04 -1.02119E+04  4.43835E+03 -6.87183E+03 -1.96221E+03 -2.98411E+03 -1.79191E+03
 -1.47590E+03 -5.12421E+02 -2.41718E+03  2.85981E+03 -5.86589E+03  2.28628E+03 -9.78209E+03 -1.44215E+03
 -6.87900E+03 -9.65487E+03  1.58324E+02 -1.39010E+04  8.62866E+03 -1.30523E+04  1.37357E+04 -3.82741E+03
  1.39445E+04  6.71969E+03  6.51309E+03  1.26529E+04 -2.98760E+03  1.37814E+04 -1.02278E+04  8.54584E+03
 -1.34016E+04  5.44995E+02 -1.01231E+04 -8.66343E+03 -1.06764E+03 -1.17109E+04  6.16204E+03 -8.64430E+03
  8.86977E+03 -2.82464E+03  6.35754E+03  2.43838E+03  2.20344E+03  4.02505E+03  1.01527E+03  2.33853E+03
  3.26948E+03  1.08716E+03  3.91537E+03  1.83520E+03  3.72689E+03  4.72625E+03  3.54590E+03  7.82784E+03
 -2.53915E+03  1.10604E+04 -9.79768E+03  1.14714E+04 -1.45160E+04  2.86301E+03 -1.51387E+04 -5.62438E+03
 -7.21847E+03 -1.37598E+04  2.46455E+03 -1.49288E+04  8.59632E+03 -9.49994E+03  1.13938E+04 -2.65932E+03
  9.43121E+03  5.24691E+03  1.72980E+03  8.25797E+03 -3.85787E+03  4.96360E+03 -5.49807E+03 -7.85516E+02
 -2.68574E+03 -6.12530E+03  3.81898E+03 -6.51342E+03  6.10224E+03 -3.00357E+03  5.82187E+03  1.73935E+03
  3.54886E+03  2.90685E+03  1.50861E+03  2.37723E+03 -5.95072E+02  1.94613E+03  2.13987E+03 -3.75967E+02
  2.11735E+03 -3.99428E+02  6.25427E+03  2.14936E+03  3.25872E+03  7.31292E+03 -1.29952E+03  9.88445E+03
 -6.65232E+03  6.43382E+03 -8.91191E+03  1.81783E+03 -7.92525E+03 -3.15405E+03 -3.23002E+03 -5.39375E+03
  1.19222E+03 -5.68619E+03  3.58713E+03 -3.12358E+03  2.59304E+03  2.83200E+03 -1.74807E+03  4.86354E+03
 -5.56403E+03  2.58215E+03 -6.81005E+03 -3.27277E+03 -3.64406E+03 -8.24209E+03  1.30058E+03 -7.86178E+03
  4.84396E+03 -4.75554E+03  6.01823E+03 -4.96060E+02  5.10704E+03  2.22724E+03  7.23167E+02  3.86336E+03
 -2.65965E+03  1.38469E+03 -4.06693E+03 -2.85545E+03  1.59997E+03 -5.81302E+03  6.87118E+03 -4.84033E+03
  8.60369E+03  4.55374E+02  8.94071E+03  5.89629E+03  2.63044E+03  9.54928E+03 -3.43025E+03  9.27498E+03
 -7.71971E+03  3.77414E+03 -7.82632E+03 -1.31670E+03 -4.19145E+03 -6.28993E+03  1.83528E+03 -5.93410E+03
  6.00703E+03 -2.93202E+03  4.83296E+03  2.46850E+03  1.86270E+03  5.31331E+03 -7.40525E+02  4.54446E+03
 -2.65326E+03  3.04692E+03 -2.15595E+03  9.41364E+02 -9.24771E+02  1.06923E+03 -1.64792E+03  1.94476E+03
 -2.33304E+03  3.87360E+03 -6.39970E+03  3.31397E+03 -9.27716E+03  2.55026E+02 -1.05114E+04 -6.31307E+03
 -5.66255E+03 -1.25966E+04  2.47378E+03 -1.48121E+04  8.75354E+03 -1.12443E+04  1.35729E+04 -4.36922E+03
  1.25161E+04  2.85452E+03  7.58689E+03  8.71603E+03  5.72192E+02  1.00457E+04 -4.15557E+03  7.41105E+03
 -5.25673E+03  2.78473E+03 -3.24958E+03 -1.15285E+03 -1.39522E+03 -1.06538E+03 -7.30354E+02  1.35040E+02
 -1.74527E+03  2.77275E+02 -2.26984E+03 -5.14434E+02 -2.40945E+02 -2.78366E+03 -2.70995E+01 -3.77709E+03
  4.20425E+03 -3.31326E+03  5.52244E+03  1.48959E+02  6.89818E+03  5.27058E+03  1.89229E+03  9.54144E+03
 -4.74623E+03  1.11737E+04 -1.05445E+04  6.44568E+03 -1.21044E+04 -9.44971E+02 -8.64054E+03 -7.18946E+03
 -3.50560E+03 -9.93524E+03  2.21064E+03 -8.83498E+03  6.34083E+03 -5.17557E+03  6.54252E+03  3.99421E+02
  3.36324E+03  3.07601E+03 -4.93294E+02  2.28396E+03 -1.75978E+03 -3.18398E+02 -2.54977E+02 -2.25460E+03
  3.52081E+03 -9.27258E+02  3.88389E+03  1.14912E+03  2.37954E+03  4.02383E+03  3.86312E+02  4.93439E+03
 -4.04136E+03  4.03315E+03 -6.82677E+03  4.33522E+02 -6.02970E+03 -4.42943E+03 -8.55197E+02 -7.83402E+03
  4.55428E+03 -7.12158E+03  7.75326E+03 -2.07900E+03  7.37287E+03  2.09345E+03  4.23320E+03  6.01603E+03
  1.00198E+03  6.26957E+03 -2.25283E+03  5.04087E+03 -4.09811E+03  2.94100E+03 -3.80478E+03  5.38854E+02
 -1.97647E+03 -4.59657E+02 -2.01710E+03  7.91064E+02 -3.64647E+03  1.19888E+03 -4.95643E+03 -9.66475E+02
 -4.74345E+03 -3.44112E+03 -1.75838E+03 -6.85662E+03  2.99467E+03 -6.77768E+03  5.85999E+03 -3.34714E+03
  6.98414E+03  1.04610E+03  3.35992E+03  4.80209E+03 -5.04288E+02  6.65214E+03 -5.28438E+03  4.17595E+03
