 $NMID ID='MM_0lb_SNR800_15hz_g45_18.RAW', FMTDAT='(8E13.5)'
 TRAMP=1., VOLUME=1. $END
  3.09899E+05  5.06474E+02  3.37643E+05  2.50834E+05  8.47133E+04  3.37778E+05 -1.32735E+05  2.50403E+05
 -1.90159E+05  8.30989E+04 -1.11448E+05 -3.27160E+04  1.03491E+03 -5.05704E+04  5.38110E+04  8.59490E+01
  3.50644E+04  5.28812E+04 -1.67971E+04  7.51762E+04 -6.05091E+04  6.31563E+04 -8.35011E+04  3.19028E+04
 -8.05333E+04 -1.15905E+04 -5.68547E+04 -5.08183E+04 -1.53310E+04 -6.91165E+04  2.70438E+04 -4.55975E+04
  3.94837E+04  3.80436E+03  1.62678E+04  4.75388E+04 -3.43458E+04  4.70272E+04 -6.61877E+04 -3.01019E+02
 -5.30449E+04 -5.63037E+04 -6.35911E+03 -7.62582E+04  3.33311E+04 -5.43957E+04  4.72025E+04 -1.67141E+04
  4.27861E+04  1.09710E+04  3.15095E+04  2.51437E+04  1.58526E+04  2.90925E+04 -5.16140E+03  2.69109E+04
 -2.21389E+04  1.25039E+04 -1.88848E+04 -4.67722E+03  5.24988E+03 -7.51078E+03  2.18957E+04  1.18101E+04
  7.34266E+03  3.48123E+04 -3.13845E+04  3.49568E+04 -6.28518E+04  2.18468E+03 -5.62209E+04 -4.22460E+04
 -1.27025E+04 -6.25129E+04  3.92884E+04 -4.47846E+04  5.70336E+04 -2.23028E+03  3.33572E+04  3.16094E+04
 -6.48231E+03  3.49207E+04 -2.96502E+04  1.50258E+04 -2.95696E+04 -4.66685E+03 -1.59698E+04 -1.07503E+04
 -7.71131E+03 -1.25506E+04 -1.07460E+03 -1.76604E+04  7.06119E+03 -2.28151E+04  1.52063E+04 -1.35795E+04
  1.15800E+04  4.74932E+03 -7.44975E+03  1.28811E+04 -2.06508E+04 -3.47469E+03 -8.03668E+03 -3.26963E+04
  2.19992E+04 -4.23061E+04  4.71943E+04 -1.92069E+04  4.39777E+04  1.89813E+04  1.52189E+04  4.34497E+04
 -1.56734E+04  3.26741E+04 -2.43897E+04  1.61379E+03 -9.30777E+03 -2.74384E+04  2.09506E+04 -3.30699E+04
  3.98164E+04 -8.30820E+03  3.41507E+04  2.34079E+04  1.68450E+04  4.49983E+04 -7.88615E+03  4.84651E+04
 -3.06109E+04  3.24838E+04 -4.05791E+04  9.27831E+03 -4.10375E+04 -1.63591E+04 -2.30613E+04 -3.67766E+04
  7.11911E+03 -3.64715E+04  3.05138E+04 -1.43271E+04  2.86072E+04  1.07470E+04  3.75286E+03  1.88091E+04
 -1.33794E+04  8.12997E+03 -9.96496E+03 -7.84957E+03  5.84672E+03 -1.06035E+04  1.78072E+04  6.03629E+03
  1.31259E+04  2.19446E+04 -6.28184E+03  2.47086E+04 -2.21448E+04  1.06348E+04 -2.71179E+04 -5.52021E+03
 -1.92408E+04 -1.68502E+04 -7.54904E+03 -1.92984E+04  3.97870E+03 -1.79600E+04  1.42949E+04 -1.69344E+04
  2.48734E+04 -1.21490E+04  3.11247E+04  2.26367E+03  2.30910E+04  1.87761E+04  4.33667E+03  3.52059E+04
 -1.74225E+04  2.94880E+04 -2.72351E+04  9.90046E+03 -2.07893E+04 -1.01335E+04 -4.37990E+03 -1.34661E+04
  2.16957E+03 -3.09371E+03 -4.22726E+03  6.25028E+03 -1.48713E+04  5.36796E+03 -1.56150E+04 -6.26640E+03
 -9.56885E+03 -1.79506E+04  5.13493E+03 -2.18611E+04  1.41324E+04 -1.57284E+04  1.70799E+04 -1.41218E+03
  1.06075E+04  1.28760E+04 -1.05179E+03  1.80785E+04 -1.20791E+04  1.00659E+04 -1.80796E+04 -4.08141E+03
 -1.33828E+04 -1.59464E+04 -1.64008E+03 -2.16275E+04  1.00008E+04 -1.77246E+04  1.82862E+04 -8.72692E+03
  1.65905E+04  2.02292E+02  1.20700E+04  4.07602E+03  5.81970E+03  9.59672E+02  9.22639E+03 -1.47562E+03
  1.64623E+04  2.69331E+03  1.78589E+04  1.43532E+04  1.16167E+04  2.85686E+04 -3.02454E+03  3.13877E+04
 -1.84363E+04  2.51170E+04 -2.96641E+04  1.23071E+04 -3.08115E+04 -2.37836E+03 -2.53828E+04 -1.76428E+04
 -1.14034E+04 -2.49374E+04  8.50137E+03 -2.27736E+04  1.98367E+04 -1.23433E+04  1.79064E+04  4.97146E+03
  7.04966E+03  1.32665E+04 -8.19956E+03  1.18899E+04 -1.52339E+04  2.87844E+03 -1.16742E+04 -9.19032E+03
 -1.24683E+02 -1.43538E+04  7.35539E+03 -1.09473E+04  9.58638E+03 -1.55555E+03  2.09654E+03  5.90715E+03
 -6.47042E+03  2.10615E+03 -5.21311E+03 -5.20831E+03 -2.34932E+02 -1.25978E+04  8.90847E+03 -1.28351E+04
  1.53362E+04 -6.42393E+03  1.62527E+04  2.82360E+03  1.39547E+04  1.19694E+04  6.28277E+03  1.80822E+04
 -2.90238E+03  2.00053E+04 -1.27077E+04  1.27577E+04 -1.43092E+04  3.41306E+03 -1.03303E+04 -2.91945E+03
 -4.83520E+03 -4.41225E+03 -4.69445E+02  1.16911E+03 -2.16028E+03  2.38667E+03 -4.46711E+03  4.33514E+03
 -9.69664E+03 -7.32640E+02 -1.05521E+04 -8.58282E+03 -4.53849E+03 -1.38614E+04  4.65229E+03 -1.05082E+04
  8.57196E+03 -4.59835E+03  6.18628E+03  2.59003E+03  4.54109E+02  4.01584E+03 -4.86881E+03 -3.18707E+02
 -4.48726E+03 -6.51487E+03 -5.42297E+02 -9.52145E+03  5.53104E+03 -1.05673E+04  1.27658E+04 -5.12803E+03
  1.49515E+04  9.40673E+02  1.11491E+04  8.47711E+03  2.17009E+03  1.13371E+04 -6.39181E+03  1.02963E+04
 -8.56280E+03  3.23976E+03 -4.43910E+03 -1.54355E+03  1.76058E+03 -2.60886E+03  5.63608E+03 -9.78191E+02
  4.81255E+03  4.35439E+03  1.14783E+03  8.36425E+03 -5.59407E+03  8.00019E+03 -9.96117E+03  2.26324E+03
 -6.47767E+03 -4.79741E+03  4.70197E+02 -8.10633E+03  5.13876E+03 -4.42076E+03  5.31844E+03  1.52761E+03
  8.85128E+02  5.06282E+03 -5.33034E+03  6.79023E+03 -7.30729E+03  3.32692E+03 -6.84572E+03 -2.05535E+03
 -4.10194E+03 -9.04936E+03  1.81792E+03 -9.82031E+03  8.43709E+03 -6.46042E+03  9.18511E+03  1.18062E+03
  6.18445E+03  7.32488E+03 -3.57502E+02  9.75445E+03 -6.57901E+03  5.30974E+03 -7.19476E+03 -6.86689E+02
 -7.37603E+03 -6.43369E+03 -1.50406E+03 -7.15061E+03  3.49592E+03 -6.13620E+03  4.31010E+03 -3.15718E+03
  3.35993E+03  5.95569E+02 -3.79643E+02  1.36333E+03  1.52297E+01 -9.44150E+02  4.35684E+02 -3.26837E+03
  6.00293E+03 -1.77115E+03  7.83379E+03  8.56623E+02  8.19709E+03  5.32379E+03  6.60061E+03  1.05617E+04
 -2.10176E+03  1.24568E+04 -1.08400E+04  9.25246E+03 -1.39045E+04  1.90228E+03 -1.10354E+04 -4.33496E+03
 -5.30986E+03 -9.00289E+03 -2.91866E+02 -7.40100E+03  2.77595E+03 -3.86035E+03  2.69990E+03 -2.90992E+03
  2.08115E+03 -1.77452E+03  2.86055E+03 -3.05059E+03  4.05431E+03 -2.19022E+03  4.57307E+03  1.08349E+01
  6.19938E+03  1.61024E+03  2.57097E+03  4.41096E+03 -1.34001E+03  5.02793E+03 -6.19846E+03  3.94000E+03
 -7.54297E+03 -1.23439E+03 -3.59028E+03 -5.00982E+03  2.39437E+02 -7.75467E+03  4.58484E+03 -7.87790E+03
  7.62541E+03 -4.69158E+03  9.79211E+03  8.03434E+02  6.99974E+03  6.60402E+03  1.26621E+03  8.99734E+03
 -3.05610E+03  7.89172E+03 -5.36860E+03  2.86324E+03 -3.24084E+03 -1.18707E+03 -1.32201E+03 -1.01985E+03
 -6.84969E+02  1.88124E+02 -1.18105E+03  2.35287E+03 -3.42971E+03  1.65094E+03 -5.67657E+03 -7.25028E+02
 -2.95593E+03 -5.39537E+03  5.84953E+02 -7.13359E+03  4.37323E+03 -6.68444E+03  6.30988E+03 -1.95664E+03
  6.59989E+03  3.57513E+03  2.70716E+03  5.75634E+03 -1.51232E+03  7.05271E+03 -4.71877E+03  4.16104E+03
 -6.39930E+03  8.68396E+02 -5.16097E+03 -3.82709E+03 -2.71528E+02 -5.45755E+03  2.88653E+03 -4.21780E+03
  4.13778E+03 -1.70781E+03  2.94936E+03  8.61024E+02  9.49821E+02  2.32708E+03  1.03082E+03  6.89104E+02
  1.67851E+03  5.77891E+02  1.92857E+03  1.09448E+03  1.83955E+03  2.98270E+03  1.89386E+03  3.26191E+03
 -1.90875E+03  5.21615E+03 -4.34338E+03  5.81741E+03 -5.87538E+03  1.70997E+03 -6.89679E+03 -1.88837E+03
 -3.22669E+03 -6.06276E+03  1.16977E+03 -7.44570E+03  3.48539E+03 -4.61852E+03  5.26649E+03 -1.31156E+03
  3.94722E+03  3.07421E+03  6.04554E+02  3.69746E+03 -1.62808E+03  2.36155E+03 -2.05209E+03 -3.28360E+02
 -1.03743E+03 -2.64739E+03  1.67012E+03 -2.92800E+03  2.17933E+03 -1.33664E+03  2.32275E+03  4.68905E+02
  1.41145E+03  4.09278E+02  7.25662E+02  6.36180E+02 -3.71666E+02  1.04498E+03  1.73225E+03 -1.01885E+02
  4.00886E+02 -8.74809E+01  2.77087E+03  1.12048E+03  8.53391E+02  3.62792E+03 -4.78138E+02  4.49440E+03
 -2.96180E+03  2.27237E+03 -3.68881E+03  6.49152E+02 -3.38270E+03 -1.34917E+03 -1.11737E+03 -1.86505E+03
  5.68450E+02 -2.40023E+03  1.74705E+03 -1.17013E+03  1.12780E+03  1.56480E+03 -9.12786E+02  1.86334E+03
 -2.74790E+03  1.41005E+03 -2.60504E+03 -1.70579E+03 -1.08196E+03 -3.74892E+03  4.70854E+02 -2.94090E+03
  1.25769E+03 -1.68309E+03  1.89327E+03  5.10240E+01  2.29402E+03  2.09158E+02  4.69630E+02  2.16332E+03
 -9.08158E+02  6.39559E+02 -1.29246E+03 -7.66791E+02  1.08347E+03 -2.13185E+03  2.96554E+03 -2.15760E+03
  2.79754E+03  2.35913E+02  4.09356E+03  1.76470E+03  1.44600E+03  3.45069E+03 -9.34745E+02  3.49420E+03
 -2.90097E+03  1.28495E+03 -2.94546E+03 -3.90240E+02 -1.46475E+03 -2.13448E+03  7.49943E+02 -1.92905E+03
  2.26143E+03 -1.15723E+03  1.82967E+03  9.62644E+02  5.42448E+02  2.05860E+03  5.05052E+02  1.84301E+03
 -7.95828E+02  1.48097E+03 -9.48884E+02  4.14880E+02 -3.83263E+02  6.92863E+02 -8.76281E+02  9.45480E+02
 -9.88528E+02  1.23689E+03 -2.32917E+03  1.14639E+03 -3.29703E+03  2.78036E+02 -4.08225E+03 -1.84328E+03
 -1.97344E+03 -4.67844E+03  7.50693E+02 -5.33928E+03  2.68105E+03 -4.41552E+03  5.01050E+03 -1.73958E+03
  4.58329E+03  4.11343E+02  2.57923E+03  3.22834E+03 -5.59045E+02  3.29893E+03 -1.47896E+03  2.60302E+03
 -2.15272E+03  9.77819E+02 -1.08933E+03 -6.52512E+02 -7.16702E+02  3.28868E+01 -4.73239E+02  2.93159E+02
 -1.22579E+03 -2.54521E+02 -1.01106E+03 -1.19758E+02  2.72019E+02 -1.28543E+03 -3.28601E+02 -1.48108E+03
  1.89261E+03 -1.29660E+03  1.76800E+03  3.80618E+01  2.44709E+03  2.08028E+03 -1.01393E+02  3.23758E+03
 -1.72692E+03  4.07627E+03 -3.38496E+03  2.19316E+03 -3.71658E+03 -7.54544E+02 -2.76263E+03 -2.62542E+03
 -1.88716E+03 -3.21278E+03  8.33935E+02 -2.84603E+03  1.78743E+03 -1.38263E+03  1.41496E+03 -6.79337E+01
  1.25000E+03  7.18961E+02 -2.19338E+02  1.01435E+03 -1.02625E+03 -2.50953E+02  3.39746E+00 -8.10435E+02
  1.02379E+03 -1.28185E+02  9.71466E+02  7.34706E+02  7.62817E+02  1.10315E+03  9.49099E+01  1.20999E+03
 -1.19714E+03  1.47235E+03 -1.64228E+03  4.05694E+02 -1.81611E+03 -1.06673E+03  4.95934E+00 -2.54156E+03
  1.18296E+03 -2.05070E+03  1.81262E+03 -5.77877E+02  1.99068E+03 -5.37879E+01  1.30886E+03  1.89207E+03
  7.55385E+02  1.51095E+03 -7.05207E+02  1.47193E+03 -1.25639E+03  8.74417E+02 -7.84383E+02  1.47816E+02
 -2.31708E+02 -1.38216E+02 -6.73815E+02  3.26694E+02 -1.18511E+03  1.67263E+02 -1.59711E+03 -5.39805E+02
 -1.83929E+03 -2.00825E+02 -9.10917E+02 -2.08032E+03  1.21956E+03 -2.50196E+03  1.91078E+03 -7.03057E+02
  1.61028E+03  2.06395E+02  4.20536E+02  1.07435E+03 -3.48917E+02  1.99259E+03 -1.43637E+03  1.50631E+03
