 $NMID ID='MM_0lb_SNR800_18hz_g50_17.RAW', FMTDAT='(8E13.5)'
 TRAMP=1., VOLUME=1. $END
  3.09889E+05  4.77776E+02  3.37476E+05  2.50114E+05  8.44797E+04  3.37628E+05 -1.32481E+05  2.50435E+05
 -1.89640E+05  8.26294E+04 -1.11069E+05 -3.28977E+04  1.34116E+03 -5.03873E+04  5.40420E+04  7.55739E+01
  3.49078E+04  5.25238E+04 -1.69772E+04  7.48418E+04 -6.03095E+04  6.30602E+04 -8.33336E+04  3.16530E+04
 -7.98702E+04 -1.11223E+04 -5.63748E+04 -5.06034E+04 -1.47830E+04 -6.86324E+04  2.68942E+04 -4.51925E+04
  3.94350E+04  4.01016E+03  1.57920E+04  4.71079E+04 -3.40328E+04  4.63693E+04 -6.57427E+04 -5.65803E+02
 -5.24205E+04 -5.59792E+04 -6.22127E+03 -7.57353E+04  3.33013E+04 -5.37897E+04  4.65372E+04 -1.63884E+04
  4.19945E+04  1.11349E+04  3.08835E+04  2.46242E+04  1.58233E+04  2.86074E+04 -4.92074E+03  2.69467E+04
 -2.18767E+04  1.27089E+04 -1.91282E+04 -4.40974E+03  4.49991E+03 -7.46531E+03  2.15199E+04  1.11385E+04
  7.15033E+03  3.37104E+04 -3.07445E+04  3.42775E+04 -6.15961E+04  2.25978E+03 -5.56999E+04 -4.14639E+04
 -1.26449E+04 -6.11042E+04  3.84702E+04 -4.41138E+04  5.61093E+04 -1.98714E+03  3.21139E+04  3.09312E+04
 -6.25226E+03  3.39494E+04 -2.88220E+04  1.37494E+04 -2.82358E+04 -5.26999E+03 -1.51089E+04 -1.02093E+04
 -7.77525E+03 -1.15538E+04 -9.56253E+02 -1.68994E+04  6.88036E+03 -2.23368E+04  1.52795E+04 -1.39820E+04
  1.20474E+04  4.35598E+03 -6.65092E+03  1.32276E+04 -2.00002E+04 -2.98202E+03 -8.26318E+03 -3.12502E+04
  2.15310E+04 -4.13527E+04  4.56609E+04 -1.87838E+04  4.27471E+04  1.84129E+04  1.46682E+04  4.19495E+04
 -1.53725E+04  3.17293E+04 -2.41285E+04  1.05799E+03 -8.56691E+03 -2.63995E+04  2.07941E+04 -3.15011E+04
  3.89070E+04 -7.49637E+03  3.24684E+04  2.28030E+04  1.59569E+04  4.33369E+04 -7.83025E+03  4.63910E+04
 -2.92628E+04  3.04611E+04 -3.84094E+04  8.41516E+03 -3.93653E+04 -1.56334E+04 -2.16625E+04 -3.51389E+04
  7.01771E+03 -3.48069E+04  2.96630E+04 -1.29543E+04  2.73914E+04  1.06081E+04  3.16127E+03  1.78416E+04
 -1.33041E+04  7.55900E+03 -9.66360E+03 -7.48263E+03  5.95923E+03 -1.01232E+04  1.73449E+04  5.98488E+03
  1.24633E+04  2.16590E+04 -6.39175E+03  2.34343E+04 -2.15391E+04  9.54340E+03 -2.58224E+04 -6.07163E+03
 -1.75716E+04 -1.65595E+04 -6.18997E+03 -1.72626E+04  3.85182E+03 -1.57248E+04  1.29550E+04 -1.51507E+04
  2.23023E+04 -1.20708E+04  2.89982E+04  1.46430E+03  2.20027E+04  1.70270E+04  3.99887E+03  3.30029E+04
 -1.63410E+04  2.80820E+04 -2.63189E+04  9.83484E+03 -1.98928E+04 -1.01289E+04 -3.94913E+03 -1.38280E+04
  2.56749E+03 -3.94202E+03 -2.71435E+03  5.54562E+03 -1.34110E+04  5.22257E+03 -1.40537E+04 -5.21380E+03
 -8.90856E+03 -1.61662E+04  4.66356E+03 -2.02683E+04  1.31041E+04 -1.45198E+04  1.53572E+04 -1.31075E+03
  9.47520E+03  1.09521E+04 -9.71133E+02  1.64238E+04 -1.07364E+04  9.13249E+03 -1.58065E+04 -3.37470E+03
 -1.18726E+04 -1.48000E+04 -1.62919E+03 -1.96633E+04  8.87137E+03 -1.61568E+04  1.66458E+04 -7.28761E+03
  1.50001E+04  6.68649E+02  1.08940E+04  4.01718E+03  5.33239E+03  4.22137E+02  8.00310E+03 -1.47284E+03
  1.44819E+04  2.57429E+03  1.54217E+04  1.33300E+04  9.79506E+03  2.54296E+04 -2.99251E+03  2.78507E+04
 -1.65027E+04  2.15091E+04 -2.56719E+04  1.03299E+04 -2.64571E+04 -2.01042E+03 -2.24342E+04 -1.49966E+04
 -1.01853E+04 -2.17814E+04  7.32634E+03 -1.99478E+04  1.71608E+04 -1.11617E+04  1.61936E+04  3.77174E+03
  6.67293E+03  1.14923E+04 -7.27661E+03  1.09077E+04 -1.39149E+04  2.52561E+03 -1.04940E+04 -8.55080E+03
 -1.50800E+02 -1.28076E+04  6.41123E+03 -1.01687E+04  8.38941E+03 -1.50832E+03  1.49840E+03  5.29626E+03
 -5.84546E+03  1.28738E+03 -3.72886E+03 -4.84538E+03  4.19385E+01 -1.08560E+04  8.05812E+03 -1.09682E+04
  1.29829E+04 -5.19664E+03  1.29633E+04  2.72905E+03  1.09406E+04  9.98667E+03  5.50103E+03  1.49324E+04
 -1.85512E+03  1.67159E+04 -1.04468E+04  1.06470E+04 -1.19480E+04  3.16380E+03 -8.81974E+03 -2.31284E+03
 -4.28341E+03 -3.48725E+03 -8.65603E+02  1.58378E+03 -2.41170E+03  2.03561E+03 -3.59613E+03  3.62616E+03
 -8.68932E+03 -5.85377E+02 -9.17329E+03 -7.63632E+03 -3.79131E+03 -1.19933E+04  3.80289E+03 -8.72405E+03
  7.45608E+03 -4.23445E+03  5.11695E+03  2.03011E+03  5.82849E+02  2.80633E+03 -3.99868E+03 -5.42435E+01
 -3.56442E+03 -4.97645E+03 -5.67136E+02 -7.73617E+03  4.33750E+03 -8.37679E+03  1.05799E+04 -4.48750E+03
  1.24557E+04  1.09045E+03  9.30994E+03  6.46123E+03  1.93393E+03  9.14439E+03 -5.59447E+03  8.73110E+03
 -7.20330E+03  2.68762E+03 -3.76072E+03 -1.59579E+03  1.32628E+03 -2.09203E+03  5.20474E+03 -1.18290E+03
  4.20736E+03  3.45691E+03  1.64675E+03  6.51994E+03 -4.77895E+03  6.74242E+03 -8.32350E+03  1.79122E+03
 -5.25761E+03 -3.67992E+03  4.10535E+02 -6.93058E+03  3.87307E+03 -3.43603E+03  3.99742E+03  1.09793E+03
  6.60780E+02  3.56611E+03 -4.44004E+03  4.71699E+03 -5.40518E+03  2.53308E+03 -5.01663E+03 -1.40172E+03
 -3.09180E+03 -6.57025E+03  1.50234E+03 -7.84827E+03  6.50233E+03 -4.81476E+03  6.91604E+03  1.01613E+03
  4.85207E+03  5.48136E+03  5.82748E+01  7.78052E+03 -5.49266E+03  4.54782E+03 -5.61122E+03 -3.25244E+02
 -5.96374E+03 -5.30678E+03 -1.52772E+03 -5.25231E+03  2.48368E+03 -4.84925E+03  3.22846E+03 -2.84536E+03
  2.93777E+03 -6.94206E+01  6.69216E+01  1.02056E+03  4.11181E+02 -3.95994E+02  3.43027E+02 -2.03721E+03
  4.17063E+03 -9.56887E+02  5.62596E+03  6.80470E+02  6.40315E+03  3.25925E+03  5.40375E+03  8.01267E+03
 -1.47213E+03  9.24322E+03 -8.35914E+03  6.90211E+03 -1.03357E+04  1.37967E+03 -8.28482E+03 -2.69234E+03
 -4.36997E+03 -7.15113E+03 -7.29077E+02 -5.56707E+03  2.46219E+03 -2.45977E+03  1.73106E+03 -2.17557E+03
  1.33097E+03 -1.37328E+03  2.11954E+03 -2.49715E+03  3.48382E+03 -1.67614E+03  3.86731E+03  2.91383E+02
  4.66423E+03  1.14585E+03  1.42470E+03  3.77452E+03 -1.51488E+03  3.15747E+03 -4.59965E+03  2.82309E+03
 -4.97470E+03 -1.11591E+03 -1.94170E+03 -3.60661E+03  4.62208E+02 -5.59139E+03  3.12636E+03 -5.66780E+03
  5.41485E+03 -3.26480E+03  7.38788E+03  1.98329E+02  5.13138E+03  4.36960E+03  1.30423E+03  6.62165E+03
 -2.54475E+03  6.13369E+03 -3.18850E+03  1.91645E+03 -2.05087E+03 -1.09685E+03 -3.73773E+02 -5.69171E+02
 -5.70224E+02  2.94781E+02 -9.66027E+02  1.99783E+03 -2.44261E+03  1.16422E+03 -4.26870E+03 -4.14706E+02
 -1.61183E+03 -4.21581E+03  6.70265E+02 -4.97473E+03  3.01713E+03 -4.85536E+03  3.87924E+03 -1.26728E+03
  4.33207E+03  2.67912E+03  1.79774E+03  3.70917E+03 -6.53796E+02  4.92633E+03 -2.87216E+03  3.12242E+03
 -4.02880E+03  7.01623E+02 -3.74875E+03 -2.51588E+03 -4.28623E+01 -3.33094E+03  1.89338E+03 -2.37385E+03
  2.94746E+03 -1.39925E+03  2.29609E+03  4.18177E+02  7.17295E+02  1.94044E+03  7.15906E+02  4.66842E+02
  1.61461E+03  5.05385E+02  1.10404E+03  1.11660E+03  1.08418E+03  2.15575E+03  1.18143E+03  2.13759E+03
 -1.31531E+03  3.15542E+03 -2.87943E+03  3.81003E+03 -3.60355E+03  1.30877E+03 -4.21422E+03 -4.37159E+02
 -1.92922E+03 -3.91136E+03  7.41536E+02 -4.87736E+03  2.03423E+03 -2.90409E+03  3.46870E+03 -9.01629E+02
  2.65539E+03  1.74694E+03  5.16920E+02  2.58526E+03 -8.89978E+02  1.59837E+03 -1.15757E+03 -4.52592E+02
 -7.24634E+02 -1.59832E+03  1.22543E+03 -1.73245E+03  1.36719E+03 -1.09108E+03  1.51939E+03  2.27403E+02
  7.10901E+02  5.46072E+02  8.70100E+02 -2.24470E+02 -4.62277E+02  8.84339E+02  1.30350E+03 -1.04153E+02
 -5.41662E+01 -2.83703E+02  2.03625E+03  6.76363E+02  4.89316E+02  2.71950E+03 -1.60357E+02  3.07774E+03
 -1.57100E+03  1.41844E+03 -2.30234E+03  2.68187E+02 -2.50473E+03 -8.46302E+02 -5.62770E+02 -8.82889E+02
  8.56704E+01 -1.38731E+03  9.78486E+02 -7.11690E+02  9.79584E+02  1.32753E+03 -4.46758E+02  1.14148E+03
 -1.48863E+03  6.94982E+02 -1.31892E+03 -1.23456E+03 -8.78280E+02 -2.29401E+03 -1.30092E+02 -1.81856E+03
  6.90227E+02 -6.71480E+02  8.99616E+02  2.89337E+02  1.53811E+03  3.86735E+01  5.26010E+02  1.15517E+03
 -2.54765E+02  1.04763E+02 -1.11169E+03 -2.17018E+02  6.45046E+02 -1.09368E+03  1.82558E+03 -1.19204E+03
  1.46112E+03  1.48051E+02  2.97927E+03  7.41836E+02  1.10818E+03  1.59015E+03 -4.29868E+02  2.14783E+03
 -1.67914E+03  4.82776E+02 -1.52728E+03 -1.37143E+01 -1.02816E+03 -1.51433E+03  4.93261E+02 -6.21419E+02
  1.71321E+03 -6.41677E+02  8.21421E+02  7.43810E+02  2.39930E+02  1.28966E+03  2.58671E+02  1.11667E+03
 -4.22858E+02  1.14314E+03 -5.32449E+02  5.96517E+02  3.56650E+01  5.67110E+02 -8.51869E+02  5.90209E+02
 -4.20299E+02  1.25367E+03 -1.96253E+03  7.31399E+02 -1.91755E+03  1.25599E+02 -2.54048E+03 -7.11809E+02
 -1.24288E+03 -2.32166E+03  1.01896E+03 -2.98034E+03  1.24882E+03 -2.48896E+03  2.85499E+03 -8.42692E+02
  2.65759E+03 -5.57944E+01  1.31584E+03  1.53934E+03 -3.75871E+02  1.18071E+03 -8.73964E+02  1.51494E+03
 -1.29504E+03  7.49315E+02 -5.17173E+02 -1.22840E+02 -5.83846E+02  3.60114E+02 -6.17983E+02  2.30550E+02
 -1.12863E+03 -7.73796E+01 -1.03218E+03 -6.63960E+01  3.00317E+02 -5.21812E+02 -2.82465E+02 -1.15845E+03
  1.38974E+03 -3.72606E+02  3.74991E+02  2.50458E+02  1.08526E+03  1.19019E+03 -5.10166E+02  1.60959E+03
 -1.23326E+03  2.47759E+03 -1.54950E+03  1.34217E+03 -1.87463E+03 -1.92774E+02 -1.31226E+03 -1.07146E+03
 -1.13352E+03 -1.45643E+03  2.64528E+02 -1.45222E+03  5.21943E+02 -8.31170E+02  4.21683E+02  2.74964E+02
  5.06331E+02  4.04661E+02  5.21524E+01  8.19510E+02 -1.17303E+02  2.74623E+02  1.49905E+02 -4.63809E+02
  4.71462E+02  3.97197E+01  2.21381E+01  2.66034E+02  3.65311E+02  5.25964E+02  2.52814E+02  2.96521E+02
 -7.60767E+02  5.18226E+02 -7.67296E+02  4.97183E+02 -1.01589E+03 -4.93872E+02  1.66149E+01 -1.22235E+03
  5.11930E+02 -8.28523E+02  6.86992E+02 -2.98730E+01  1.26577E+03 -7.39241E+02  3.36332E+02  5.52491E+02
  4.15713E+02  6.66079E+02 -3.37809E+02  4.32673E+02 -6.63342E+02  5.82595E+02 -5.19942E+02  2.19121E+02
 -2.69844E+02 -6.14460E+01 -4.90064E+02  2.00332E+02 -4.46323E+02 -4.36696E+01 -9.57897E+02 -2.04707E+02
 -9.05791E+02  3.95394E+02 -3.68531E+02 -1.10234E+03  7.46893E+02 -1.74542E+03  7.26247E+02 -1.68553E+02
  6.87216E+02  1.30013E+02 -1.94172E+02  3.57614E+02  1.76489E+02  9.33204E+02 -3.93619E+02  7.33308E+02
