 $NMID ID='MM_0lb_SNR800_16hz_g50_8.RAW', FMTDAT='(8E13.5)'
 TRAMP=1., VOLUME=1. $END
  3.09565E+05  3.74781E+02  3.37662E+05  2.50470E+05  8.45805E+04  3.37909E+05 -1.32633E+05  2.50679E+05
 -1.90139E+05  8.29295E+04 -1.11545E+05 -3.27093E+04  1.48821E+03 -5.06284E+04  5.39092E+04 -3.06474E+02
  3.50804E+04  5.30866E+04 -1.65245E+04  7.51339E+04 -6.08257E+04  6.33600E+04 -8.37043E+04  3.17890E+04
 -8.06694E+04 -1.13578E+04 -5.70885E+04 -5.07361E+04 -1.47577E+04 -6.90988E+04  2.70008E+04 -4.54241E+04
  3.98222E+04  3.82363E+03  1.60934E+04  4.76799E+04 -3.42433E+04  4.68074E+04 -6.62473E+04 -3.67591E+02
 -5.30057E+04 -5.65495E+04 -6.67609E+03 -7.62504E+04  3.37468E+04 -5.43555E+04  4.72473E+04 -1.68758E+04
  4.24232E+04  1.10025E+04  3.14760E+04  2.52620E+04  1.56931E+04  2.89212E+04 -4.75230E+03  2.73388E+04
 -2.19847E+04  1.25596E+04 -1.90048E+04 -4.77638E+03  4.91188E+03 -7.40133E+03  2.16569E+04  1.18576E+04
  7.10479E+03  3.44447E+04 -3.14081E+04  3.49469E+04 -6.26264E+04  2.06149E+03 -5.63758E+04 -4.22065E+04
 -1.24277E+04 -6.27053E+04  3.93082E+04 -4.46980E+04  5.72958E+04 -2.07821E+03  3.35767E+04  3.15760E+04
 -6.19639E+03  3.47112E+04 -2.95385E+04  1.49274E+04 -2.92755E+04 -4.83622E+03 -1.59896E+04 -1.07851E+04
 -8.03849E+03 -1.23799E+04 -7.36185E+02 -1.77613E+04  7.14847E+03 -2.26948E+04  1.55801E+04 -1.36581E+04
  1.16315E+04  4.97170E+03 -7.24446E+03  1.29428E+04 -2.05005E+04 -3.78754E+03 -7.96156E+03 -3.26378E+04
  2.23208E+04 -4.24104E+04  4.66814E+04 -1.90780E+04  4.39521E+04  1.89422E+04  1.53007E+04  4.34578E+04
 -1.57911E+04  3.27469E+04 -2.44079E+04  1.53627E+03 -9.22333E+03 -2.74027E+04  2.06102E+04 -3.30030E+04
  3.98956E+04 -8.43784E+03  3.37103E+04  2.36258E+04  1.70644E+04  4.48960E+04 -7.84430E+03  4.84654E+04
 -3.03887E+04  3.23454E+04 -4.02259E+04  9.17923E+03 -4.09033E+04 -1.61149E+04 -2.24290E+04 -3.64567E+04
  7.31900E+03 -3.61446E+04  3.04166E+04 -1.40952E+04  2.84844E+04  1.09375E+04  3.49479E+03  1.87772E+04
 -1.31305E+04  7.84349E+03 -9.77358E+03 -7.85897E+03  5.66495E+03 -1.04114E+04  1.78690E+04  6.05549E+03
  1.26271E+04  2.19194E+04 -6.07591E+03  2.44391E+04 -2.16938E+04  1.05990E+04 -2.67616E+04 -5.50725E+03
 -1.92035E+04 -1.72599E+04 -7.01903E+03 -1.89366E+04  4.13727E+03 -1.74487E+04  1.45076E+04 -1.67722E+04
  2.40904E+04 -1.25766E+04  3.09094E+04  2.34444E+03  2.26784E+04  1.89576E+04  3.92738E+03  3.46763E+04
 -1.72415E+04  2.93189E+04 -2.69290E+04  1.00749E+04 -2.04122E+04 -1.02356E+04 -4.18682E+03 -1.37393E+04
  2.24117E+03 -3.23275E+03 -4.18317E+03  6.14146E+03 -1.49439E+04  5.10466E+03 -1.51119E+04 -6.06067E+03
 -9.45783E+03 -1.78027E+04  4.72361E+03 -2.16687E+04  1.42401E+04 -1.56928E+04  1.68172E+04 -1.54991E+03
  1.02703E+04  1.20627E+04 -8.75498E+02  1.76842E+04 -1.22007E+04  9.94406E+03 -1.75447E+04 -3.77162E+03
 -1.29271E+04 -1.58866E+04 -1.66240E+03 -2.12136E+04  9.51476E+03 -1.75075E+04  1.80481E+04 -8.39519E+03
  1.65041E+04  6.14971E+02  1.15495E+04  4.27232E+03  6.01691E+03  6.23229E+02  8.88145E+03 -1.37198E+03
  1.61199E+04  2.53892E+03  1.74634E+04  1.39867E+04  1.13037E+04  2.79226E+04 -3.13631E+03  3.12811E+04
 -1.78876E+04  2.43571E+04 -2.86761E+04  1.20636E+04 -2.97008E+04 -2.26449E+03 -2.51773E+04 -1.70392E+04
 -1.10658E+04 -2.45910E+04  8.62323E+03 -2.21469E+04  1.94308E+04 -1.18289E+04  1.76883E+04  4.76221E+03
  6.92973E+03  1.28017E+04 -8.16758E+03  1.16342E+04 -1.48744E+04  2.66953E+03 -1.13303E+04 -9.40329E+03
  2.95537E+01 -1.40866E+04  7.17353E+03 -1.05546E+04  9.21496E+03 -1.22989E+03  2.10216E+03  6.09252E+03
 -6.29932E+03  1.81637E+03 -4.91209E+03 -5.21537E+03  8.11759E+01 -1.15636E+04  9.00926E+03 -1.24097E+04
  1.46092E+04 -6.24779E+03  1.54526E+04  2.93506E+03  1.32527E+04  1.19477E+04  6.30087E+03  1.74447E+04
 -2.51353E+03  1.95824E+04 -1.17677E+04  1.21357E+04 -1.39044E+04  3.16496E+03 -1.02882E+04 -3.05562E+03
 -5.07829E+03 -4.12665E+03 -6.32314E+02  1.17462E+03 -2.37566E+03  2.25280E+03 -4.59167E+03  4.17728E+03
 -9.52073E+03 -5.42590E+02 -1.01773E+04 -8.29906E+03 -3.97601E+03 -1.31797E+04  4.43394E+03 -1.00659E+04
  8.48190E+03 -4.31172E+03  6.22453E+03  2.66476E+03  5.02821E+02  3.67473E+03 -4.39270E+03 -3.29515E+02
 -4.23871E+03 -6.02994E+03 -1.03692E+03 -9.21769E+03  4.94237E+03 -9.84065E+03  1.22914E+04 -4.92064E+03
  1.45272E+04  8.44011E+02  1.07658E+04  8.27251E+03  1.93597E+03  1.07770E+04 -6.28690E+03  1.01084E+04
 -8.11890E+03  3.42576E+03 -4.20820E+03 -1.80808E+03  1.31891E+03 -2.33943E+03  5.24814E+03 -9.86733E+02
  4.92170E+03  3.89200E+03  1.23916E+03  7.93888E+03 -5.24654E+03  7.88945E+03 -9.44585E+03  2.06707E+03
 -5.87401E+03 -4.77674E+03  2.46164E+02 -8.52424E+03  5.03700E+03 -4.19391E+03  4.68018E+03  1.42379E+03
  8.73902E+02  4.68921E+03 -4.62300E+03  6.27381E+03 -6.74445E+03  2.99536E+03 -6.18937E+03 -1.70147E+03
 -3.89097E+03 -7.61748E+03  1.50122E+03 -9.20750E+03  7.92082E+03 -5.83222E+03  8.44668E+03  1.37289E+03
  5.85921E+03  6.59146E+03 -2.14978E+02  9.02060E+03 -6.17073E+03  5.19168E+03 -6.89681E+03 -4.32150E+02
 -6.76668E+03 -6.01089E+03 -1.44481E+03 -6.32705E+03  3.34618E+03 -5.58506E+03  3.94628E+03 -3.24939E+03
  3.10927E+03  7.53558E+02 -5.21421E+02  1.39044E+03  3.52765E+02 -1.08142E+03  7.01100E+02 -2.71376E+03
  5.23890E+03 -1.81768E+03  7.48123E+03  8.88420E+02  7.53447E+03  4.46317E+03  6.24452E+03  9.93169E+03
 -2.21256E+03  1.15194E+04 -9.66609E+03  8.89847E+03 -1.29803E+04  1.40439E+03 -1.05048E+04 -3.71025E+03
 -5.26455E+03 -8.46095E+03 -5.19595E+02 -6.81795E+03  2.77497E+03 -3.10344E+03  2.18967E+03 -2.75055E+03
  1.78804E+03 -1.72520E+03  2.34868E+03 -2.87693E+03  4.13781E+03 -1.86443E+03  4.50160E+03  3.06889E+02
  5.70891E+03  1.36691E+03  2.04331E+03  4.35796E+03 -1.78387E+03  4.85932E+03 -5.96090E+03  3.73628E+03
 -6.76864E+03 -1.26284E+03 -3.31200E+03 -4.48648E+03  3.26543E+02 -7.09421E+03  3.96847E+03 -7.24511E+03
  7.55390E+03 -4.12652E+03  9.21192E+03  3.76982E+02  6.56126E+03  6.16355E+03  1.11382E+03  7.78469E+03
 -3.06598E+03  7.33218E+03 -4.45277E+03  2.47953E+03 -2.78325E+03 -1.27337E+03 -1.09991E+03 -7.55643E+02
 -8.28526E+02  3.33515E+02 -1.22863E+03  2.21890E+03 -3.18185E+03  1.09524E+03 -5.07810E+03 -7.97603E+02
 -2.56573E+03 -5.21922E+03  5.88719E+02 -6.34840E+03  3.99664E+03 -6.06309E+03  5.62166E+03 -1.55475E+03
  5.89127E+03  3.21921E+03  2.44864E+03  5.20916E+03 -1.17660E+03  6.25330E+03 -4.14853E+03  3.71089E+03
 -5.58582E+03  7.41163E+02 -4.89196E+03 -3.64183E+03 -2.14807E+02 -4.80493E+03  2.22311E+03 -3.48715E+03
  3.96071E+03 -1.56317E+03  2.53403E+03  8.80889E+02  8.32348E+02  2.34628E+03  7.78860E+02  7.87087E+02
  1.67209E+03  3.41759E+02  1.73920E+03  1.15060E+03  1.74444E+03  2.63394E+03  1.71325E+03  2.47220E+03
 -1.57746E+03  4.51737E+03 -3.90127E+03  5.59544E+03 -5.28999E+03  1.69237E+03 -6.08751E+03 -1.26287E+03
 -2.56521E+03 -5.52851E+03  9.27547E+02 -6.64648E+03  3.04041E+03 -3.95408E+03  4.42682E+03 -1.28246E+03
  4.01157E+03  2.10207E+03  1.04973E+03  3.14372E+03 -1.21794E+03  2.02572E+03 -1.51869E+03 -2.61645E+02
 -1.23820E+03 -2.33157E+03  1.49546E+03 -2.92667E+03  2.11522E+03 -1.45660E+03  1.92526E+03  3.62895E+02
  1.00133E+03  5.09116E+02  1.10696E+03  8.74109E+01 -7.06053E+02  7.37482E+02  1.61990E+03 -2.67319E+02
  2.18420E+02 -2.92158E+02  2.32382E+03  1.19149E+03  7.04031E+02  3.36410E+03 -4.11738E+02  4.00574E+03
 -2.80707E+03  2.04993E+03 -3.15013E+03  7.32000E+02 -3.25440E+03 -9.38495E+02 -8.90209E+02 -1.76828E+03
  4.80359E+02 -2.02661E+03  1.43515E+03 -1.20439E+03  1.20807E+03  1.55127E+03 -6.18524E+02  1.61138E+03
 -2.14218E+03  1.20723E+03 -2.20041E+03 -1.77283E+03 -1.23707E+03 -3.09967E+03  2.84192E+02 -2.32471E+03
  9.58657E+02 -1.14444E+03  1.46488E+03 -2.94610E+02  1.90868E+03  3.01589E+02  4.75034E+02  1.57185E+03
 -7.28943E+02  1.50008E+02 -1.22376E+03 -5.42765E+02  9.24977E+02 -1.92138E+03  2.58571E+03 -1.60988E+03
  2.54701E+03  3.07613E+02  3.71698E+03  1.54180E+03  1.54301E+03  2.76083E+03 -5.88270E+02  2.81531E+03
 -2.35449E+03  1.01353E+03 -2.56585E+03 -1.87544E+02 -1.29387E+03 -2.01889E+03  4.72470E+02 -1.18362E+03
  1.98728E+03 -7.45696E+02  1.24490E+03  9.34973E+02  1.54369E+02  1.81623E+03  1.24376E+02  1.47253E+03
 -5.93705E+02  1.33043E+03 -7.71428E+02  3.61248E+02 -3.37350E+02  3.86037E+02 -9.70878E+02  4.31170E+02
 -1.01412E+03  1.47669E+03 -2.39921E+03  6.95902E+02 -2.71904E+03  2.43703E+02 -3.64577E+03 -1.71793E+03
 -1.71574E+03 -3.72577E+03  9.08725E+02 -4.58955E+03  2.35352E+03 -3.45193E+03  4.05173E+03 -1.48991E+03
  3.91863E+03  1.85373E+02  2.22324E+03  2.57113E+03 -1.96538E+02  2.78242E+03 -1.14753E+03  2.16680E+03
 -1.47230E+03  9.76273E+02 -6.31240E+02 -1.47719E+02 -7.23900E+02 -2.83584E+02 -6.52814E+02  9.43413E+01
 -1.37576E+03 -2.11088E+02 -1.18100E+03 -1.19958E+02  1.18410E+01 -7.98989E+02 -2.72203E+02 -1.03637E+03
  1.62483E+03 -1.03332E+03  1.05611E+03  2.85151E+02  1.64373E+03  1.72695E+03 -2.54771E+02  2.59981E+03
 -1.23813E+03  3.59399E+03 -2.66770E+03  2.13268E+03 -3.03242E+03 -4.16184E+02 -2.33543E+03 -2.01298E+03
 -1.36725E+03 -2.45176E+03  4.67219E+02 -2.31514E+03  1.35570E+03 -1.33636E+03  1.47742E+03  1.68814E+02
  1.09476E+03  7.64533E+02 -1.56843E+02  8.52538E+02 -1.28267E+02  9.28603E+01 -4.24980E+02 -4.20667E+02
  7.75028E+02 -4.63400E+00  5.71803E+02  6.77347E+02  5.82367E+02  7.71085E+02  2.64362E+02  8.36072E+02
 -8.74581E+02  1.16655E+03 -1.10710E+03 -3.10760E+02 -1.33479E+03 -1.07814E+03  2.96519E+02 -2.09448E+03
  9.34683E+02 -1.86904E+03  1.14824E+03 -2.44460E+02  1.64148E+03 -2.24645E+02  8.90698E+02  1.33838E+03
  6.93794E+02  1.27712E+03 -6.24966E+02  1.16238E+03 -9.12629E+02  7.77165E+02 -6.44057E+02  2.29953E+02
 -2.44693E+02  2.49366E+02 -4.43211E+02  3.29567E+02 -9.72206E+02  2.56626E+02 -1.52620E+03 -2.24912E+02
 -1.77624E+03 -3.14357E+02 -4.53769E+02 -1.34488E+03  1.13543E+03 -2.16398E+03  1.55298E+03 -2.12542E+02
  1.36449E+03 -1.13755E+01  1.97659E+02  7.16743E+02 -2.86565E+02  1.80118E+03 -9.57293E+02  9.70455E+02
