 $NMID ID='MM_0lb_SNR800_14hz_g45_5.RAW', FMTDAT='(8E13.5)'
 TRAMP=1., VOLUME=1. $END
  3.09809E+05  1.82066E+02  3.37370E+05  2.50390E+05  8.48607E+04  3.37474E+05 -1.32675E+05  2.50931E+05
 -1.90139E+05  8.31778E+04 -1.11653E+05 -3.23051E+04  8.62374E+02 -5.06661E+04  5.35953E+04  2.86876E+00
  3.51811E+04  5.26819E+04 -1.68425E+04  7.53561E+04 -6.07401E+04  6.34244E+04 -8.39678E+04  3.20387E+04
 -8.11562E+04 -1.16362E+04 -5.71168E+04 -5.10789E+04 -1.48807E+04 -6.93786E+04  2.72139E+04 -4.57655E+04
  4.00770E+04  3.79488E+03  1.59997E+04  4.75635E+04 -3.41181E+04  4.69380E+04 -6.67276E+04 -1.06234E+02
 -5.34060E+04 -5.66012E+04 -6.64795E+03 -7.68346E+04  3.36944E+04 -5.50131E+04  4.79296E+04 -1.68711E+04
  4.30225E+04  1.13002E+04  3.16629E+04  2.54117E+04  1.58079E+04  2.89182E+04 -4.84950E+03  2.70498E+04
 -2.21068E+04  1.25030E+04 -1.86084E+04 -4.95755E+03  5.39602E+03 -7.63547E+03  2.21374E+04  1.23076E+04
  7.25330E+03  3.51401E+04 -3.20147E+04  3.53473E+04 -6.33591E+04  2.27073E+03 -5.67433E+04 -4.27255E+04
 -1.25516E+04 -6.31785E+04  3.95222E+04 -4.49004E+04  5.76107E+04 -2.10610E+03  3.40759E+04  3.21965E+04
 -6.23308E+03  3.59282E+04 -2.94866E+04  1.57717E+04 -2.98890E+04 -4.47445E+03 -1.66285E+04 -1.11429E+04
 -8.36415E+03 -1.32267E+04 -9.12891E+02 -1.76700E+04  7.41517E+03 -2.28778E+04  1.51303E+04 -1.35889E+04
  1.15628E+04  5.11835E+03 -7.94771E+03  1.28671E+04 -2.10069E+04 -4.21958E+03 -8.42540E+03 -3.32739E+04
  2.26721E+04 -4.29218E+04  4.74140E+04 -1.95635E+04  4.47138E+04  1.94337E+04  1.55660E+04  4.37350E+04
 -1.57928E+04  3.29685E+04 -2.52530E+04  1.80535E+03 -9.79980E+03 -2.76124E+04  2.08335E+04 -3.35995E+04
  4.08725E+04 -8.76722E+03  3.51096E+04  2.35240E+04  1.77554E+04  4.62972E+04 -7.89214E+03  4.96129E+04
 -3.11046E+04  3.31351E+04 -4.18463E+04  9.57081E+03 -4.21274E+04 -1.62851E+04 -2.33174E+04 -3.74949E+04
  7.19000E+03 -3.73945E+04  3.07932E+04 -1.46057E+04  2.89643E+04  1.09937E+04  3.84444E+03  1.88787E+04
 -1.35712E+04  8.37493E+03 -1.02797E+04 -7.94508E+03  6.08594E+03 -1.05395E+04  1.79170E+04  6.06044E+03
  1.36388E+04  2.21848E+04 -6.04874E+03  2.51243E+04 -2.24254E+04  1.11247E+04 -2.75660E+04 -4.73584E+03
 -2.00946E+04 -1.71267E+04 -8.25333E+03 -2.02903E+04  4.14205E+03 -1.93684E+04  1.52679E+04 -1.77801E+04
  2.55210E+04 -1.23638E+04  3.19820E+04  2.72348E+03  2.34392E+04  2.00169E+04  4.40831E+03  3.60572E+04
 -1.75376E+04  3.03196E+04 -2.78070E+04  1.01616E+04 -2.07816E+04 -1.03771E+04 -4.06243E+03 -1.32973E+04
  2.00853E+03 -3.02415E+03 -4.81344E+03  6.74868E+03 -1.58863E+04  5.21124E+03 -1.61458E+04 -6.85476E+03
 -1.00371E+04 -1.85580E+04  5.26326E+03 -2.28391E+04  1.49106E+04 -1.59032E+04  1.79469E+04 -1.78110E+03
  1.16056E+04  1.27609E+04 -1.19125E+03  1.88350E+04 -1.27035E+04  1.05908E+04 -1.86734E+04 -3.95964E+03
 -1.32582E+04 -1.69123E+04 -1.71386E+03 -2.26547E+04  1.01806E+04 -1.85240E+04  1.86646E+04 -9.15252E+03
  1.75722E+04  2.53247E+02  1.26173E+04  4.21040E+03  6.77073E+03  7.27637E+02  9.12749E+03 -1.38804E+03
  1.69304E+04  2.71695E+03  1.86296E+04  1.50693E+04  1.23631E+04  2.98452E+04 -2.66503E+03  3.33090E+04
 -1.94128E+04  2.69004E+04 -3.10585E+04  1.32293E+04 -3.25397E+04 -2.63583E+03 -2.72170E+04 -1.91587E+04
 -1.17603E+04 -2.65741E+04  9.36021E+03 -2.41208E+04  2.11776E+04 -1.25802E+04  1.87513E+04  5.13445E+03
  7.12190E+03  1.39811E+04 -8.93610E+03  1.20726E+04 -1.59553E+04  2.62237E+03 -1.21362E+04 -9.70358E+03
 -2.26734E+02 -1.51374E+04  7.56041E+03 -1.14075E+04  1.01558E+04 -1.07144E+03  2.22326E+03  6.47779E+03
 -6.78338E+03  2.34755E+03 -5.78212E+03 -5.31349E+03 -3.24733E+02 -1.32933E+04  9.47089E+03 -1.38215E+04
  1.65292E+04 -7.31168E+03  1.72769E+04  2.94142E+03  1.48715E+04  1.30931E+04  7.21769E+03  1.96989E+04
 -3.01793E+03  2.16091E+04 -1.37741E+04  1.36672E+04 -1.56598E+04  3.01642E+03 -1.08533E+04 -3.23296E+03
 -5.10259E+03 -5.01485E+03 -6.58629E+02  9.90023E+02 -1.95613E+03  2.71989E+03 -4.55543E+03  4.11910E+03
 -1.01601E+04 -5.67907E+02 -1.08923E+04 -9.05387E+03 -4.60019E+03 -1.43124E+04  4.62159E+03 -1.13076E+04
  9.63470E+03 -4.66981E+03  6.75256E+03  3.10219E+03  2.51837E+02  4.26063E+03 -5.07285E+03 -2.28996E+02
 -4.66025E+03 -6.87422E+03 -8.13093E+02 -1.05985E+04  5.87976E+03 -1.10411E+04  1.36331E+04 -5.76467E+03
  1.59840E+04  1.42676E+03  1.18568E+04  9.21241E+03  2.44952E+03  1.25962E+04 -6.78719E+03  1.08038E+04
 -9.50432E+03  3.52119E+03 -4.81768E+03 -2.05052E+03  1.60597E+03 -2.85825E+03  6.27506E+03 -9.66385E+02
  5.42273E+03  4.54872E+03  1.12803E+03  9.04301E+03 -5.98428E+03  8.44803E+03 -1.07410E+04  1.95458E+03
 -6.85079E+03 -5.43307E+03  3.32441E+02 -9.02041E+03  5.46891E+03 -4.60647E+03  5.39725E+03  2.13468E+03
  7.81583E+02  5.64751E+03 -5.28937E+03  7.15166E+03 -7.93940E+03  3.54408E+03 -7.88544E+03 -2.62296E+03
 -5.07399E+03 -9.59334E+03  1.79269E+03 -1.11521E+04  9.39211E+03 -6.93110E+03  1.01801E+04  1.67337E+03
  6.54920E+03  8.30280E+03 -4.03402E+02  1.00742E+04 -7.31509E+03  5.95690E+03 -7.87172E+03 -6.98607E+02
 -7.46979E+03 -7.26590E+03 -1.14517E+03 -7.47427E+03  4.05300E+03 -6.54295E+03  4.43834E+03 -3.21099E+03
  3.38928E+03  9.34244E+02 -8.03261E+01  1.59538E+03 -2.49691E+02 -1.25133E+03  8.79072E+02 -4.16256E+03
  6.35023E+03 -2.25589E+03  8.97414E+03  9.80399E+02  8.90613E+03  5.78378E+03  7.08560E+03  1.18838E+04
 -2.28885E+03  1.38521E+04 -1.17745E+04  1.04512E+04 -1.55954E+04  1.74584E+03 -1.22472E+04 -5.03655E+03
 -6.28292E+03 -1.01114E+04 -3.44087E+02 -8.18377E+03  3.35718E+03 -4.39030E+03  2.78481E+03 -3.55267E+03
  2.15541E+03 -2.20310E+03  2.64182E+03 -2.90816E+03  4.02899E+03 -2.22672E+03  5.10563E+03 -3.01722E+02
  6.84778E+03  1.31437E+03  2.98411E+03  5.31301E+03 -1.62757E+03  5.57719E+03 -6.71382E+03  4.63272E+03
 -7.87593E+03 -1.44126E+03 -4.16287E+03 -5.53274E+03 -1.90856E+02 -8.45119E+03  5.06437E+03 -8.75310E+03
  9.19942E+03 -4.81767E+03  1.11261E+04  7.79860E+02  7.67511E+03  7.67159E+03  1.61776E+03  9.61966E+03
 -3.80449E+03  8.56003E+03 -5.82655E+03  2.88555E+03 -3.51355E+03 -1.00594E+03 -1.58990E+03 -1.00411E+03
 -8.29776E+02  8.20484E+01 -1.96082E+03  2.45620E+03 -3.89758E+03  1.48309E+03 -5.96315E+03 -7.89213E+02
 -3.23523E+03 -6.07263E+03  3.52308E+02 -7.78907E+03  4.87133E+03 -7.55756E+03  7.23736E+03 -2.30341E+03
  7.32333E+03  4.29535E+03  3.27413E+03  6.67167E+03 -1.66703E+03  7.69777E+03 -5.07389E+03  4.46035E+03
 -6.98784E+03  6.40516E+02 -5.79703E+03 -4.58056E+03 -6.98943E+02 -6.22213E+03  3.17476E+03 -4.69687E+03
  5.06996E+03 -1.76501E+03  2.90137E+03  1.16821E+03  1.19410E+03  2.65027E+03  1.20658E+03  1.30929E+03
  2.05404E+03  6.11933E+02  1.82556E+03  1.31850E+03  1.97847E+03  3.45995E+03  2.24831E+03  3.94065E+03
 -1.77441E+03  5.80146E+03 -5.15087E+03  6.55678E+03 -7.07254E+03  1.69407E+03 -8.08704E+03 -2.24205E+03
 -3.55112E+03 -7.47340E+03  1.22409E+03 -8.62944E+03  4.03230E+03 -5.04118E+03  5.83073E+03 -1.32656E+03
  4.63060E+03  2.67557E+03  1.00468E+03  4.07119E+03 -1.99106E+03  2.56728E+03 -2.55935E+03 -3.53235E+02
 -1.42544E+03 -2.91227E+03  2.39396E+03 -3.25721E+03  2.90065E+03 -1.55990E+03  2.69429E+03  6.58408E+02
  1.90829E+03  1.30940E+03  9.09337E+02  4.43938E+02 -4.50611E+02  7.41460E+02  1.42699E+03 -4.42054E+02
  4.52815E+02 -3.22502E+02  3.18630E+03  1.21006E+03  1.30008E+03  3.92173E+03 -5.96166E+02  5.32060E+03
 -3.25077E+03  2.98853E+03 -4.33218E+03  9.49544E+02 -3.98355E+03 -1.41036E+03 -1.27034E+03 -2.62119E+03
  6.75374E+02 -2.51782E+03  1.73956E+03 -1.53517E+03  1.36802E+03  1.92353E+03 -1.01715E+03  2.30642E+03
 -2.64298E+03  1.46785E+03 -2.71315E+03 -1.98111E+03 -1.73163E+03 -3.93605E+03  7.36619E+02 -3.25842E+03
  1.97843E+03 -1.88288E+03  2.33404E+03  1.19071E+02  2.30848E+03  3.23185E+02  2.98687E+02  2.09050E+03
 -9.25924E+02  1.43383E+02 -1.93892E+03 -1.05597E+03  7.88948E+02 -2.52634E+03  3.41550E+03 -1.83311E+03
  3.94090E+03  1.93236E+02  4.71407E+03  2.46220E+03  1.53324E+03  3.86888E+03 -1.20175E+03  3.71611E+03
 -3.28935E+03  1.62932E+03 -3.49819E+03 -3.92915E+02 -1.90083E+03 -2.87612E+03  4.07661E+02 -2.10599E+03
  2.71305E+03 -1.29026E+03  2.05941E+03  1.26359E+03  8.17216E+02  2.34511E+03 -2.69919E+02  2.26418E+03
 -8.79223E+02  1.76722E+03 -1.23669E+03  3.07190E+02 -5.97539E+02  5.35094E+02 -1.09020E+03  9.37741E+02
 -1.02010E+03  1.97082E+03 -3.30519E+03  1.19050E+03 -4.11823E+03  3.17119E+02 -4.76362E+03 -2.35914E+03
 -2.40764E+03 -5.46986E+03  1.03194E+03 -6.34642E+03  3.70294E+03 -5.15234E+03  6.14901E+03 -2.02511E+03
  5.46312E+03  8.68309E+02  3.45423E+03  3.82291E+03 -1.44556E+02  4.10991E+03 -1.56842E+03  2.88599E+03
 -2.46548E+03  1.47495E+03 -1.40100E+03 -3.22554E+02 -8.01758E+02  1.85900E+02 -6.50888E+02 -1.73279E+02
 -1.38220E+03  1.26825E+02 -1.57010E+03 -1.86529E+02  1.77076E+02 -8.79038E+02 -3.35122E+02 -1.71859E+03
  2.34607E+03 -1.20454E+03  2.03841E+03  1.89397E+02  2.74018E+03  2.36729E+03  2.84721E+02  3.87336E+03
 -1.86909E+03  4.75927E+03 -4.28598E+03  2.70162E+03 -4.82669E+03 -4.13095E+02 -3.45519E+03 -3.03381E+03
 -1.54445E+03 -3.93900E+03  1.06959E+03 -3.50558E+03  2.05483E+03 -1.53267E+03  2.23591E+03  4.68004E+02
  1.60587E+03  1.05351E+03 -1.33470E+02  1.25849E+03 -1.00207E+03 -2.47953E+01  1.35405E+01 -7.35656E+02
  1.23508E+03  1.09551E+02  1.26248E+03  9.67691E+02  7.67444E+02  1.32653E+03  7.44493E+01  1.46429E+03
 -1.64846E+03  1.89993E+03 -2.12570E+03  2.80407E+02 -1.76316E+03 -1.53435E+03 -6.10347E+01 -3.15959E+03
  1.41616E+03 -2.13956E+03  2.17820E+03 -6.63786E+02  2.77214E+03 -8.49735E+01  1.63269E+03  2.27451E+03
  3.61739E+02  1.84772E+03 -9.38481E+02  2.06243E+03 -1.74634E+03  1.28694E+03 -1.25763E+03  2.63146E+01
 -6.76613E+02 -2.17361E+02 -1.08288E+03  1.21066E+02 -1.02289E+03  5.64754E+02 -2.15244E+03 -5.06767E+02
 -1.90497E+03 -7.14085E+02 -7.42038E+02 -2.45882E+03  1.25724E+03 -3.11778E+03  1.92739E+03 -1.26365E+03
  1.97383E+03 -3.56363E+01  9.60967E+02  1.52164E+03 -1.97265E+02  1.86883E+03 -1.65113E+03  1.43631E+03
