 $NMID ID='MM_0lb_SNR800_10hz_g55_19.RAW', FMTDAT='(8E13.5)'
 TRAMP=1., VOLUME=1. $END
  3.09660E+05  5.46983E+02  3.37889E+05  2.50451E+05  8.48267E+04  3.38510E+05 -1.32821E+05  2.51355E+05
 -1.90651E+05  8.38951E+04 -1.12657E+05 -3.25312E+04  6.49173E+02 -5.11146E+04  5.40454E+04 -1.89112E+02
  3.59030E+04  5.28033E+04 -1.67129E+04  7.60107E+04 -6.14340E+04  6.43544E+04 -8.51095E+04  3.24486E+04
 -8.25412E+04 -1.22121E+04 -5.82248E+04 -5.24512E+04 -1.50864E+04 -7.07508E+04  2.81067E+04 -4.66371E+04
  4.07866E+04  3.56597E+03  1.65822E+04  4.83532E+04 -3.50995E+04  4.85468E+04 -6.80150E+04  1.20315E+02
 -5.50839E+04 -5.77613E+04 -7.41675E+03 -7.89307E+04  3.43687E+04 -5.68620E+04  4.95495E+04 -1.81783E+04
  4.51167E+04  1.15596E+04  3.26661E+04  2.65248E+04  1.57365E+04  3.00968E+04 -5.70458E+03  2.78518E+04
 -2.24750E+04  1.16252E+04 -1.82448E+04 -5.33813E+03  7.00034E+03 -7.26807E+03  2.35394E+04  1.37301E+04
  7.56541E+03  3.73933E+04 -3.36915E+04  3.69431E+04 -6.59341E+04  2.25524E+03 -5.88080E+04 -4.44060E+04
 -1.25032E+04 -6.57623E+04  4.12249E+04 -4.74508E+04  6.09467E+04 -2.28068E+03  3.66232E+04  3.39095E+04
 -5.87294E+03  3.92129E+04 -3.15532E+04  1.85655E+04 -3.31386E+04 -3.41654E+03 -1.93804E+04 -1.18834E+04
 -9.61666E+03 -1.46195E+04 -4.25852E+02 -1.98300E+04  8.40874E+03 -2.37281E+04  1.60925E+04 -1.27800E+04
  1.05876E+04  6.00304E+03 -1.02928E+04  1.29323E+04 -2.34973E+04 -6.11257E+03 -8.38111E+03 -3.73986E+04
  2.48042E+04 -4.62985E+04  5.18710E+04 -2.07279E+04  4.83928E+04  2.07927E+04  1.73491E+04  4.65956E+04
 -1.64843E+04  3.56800E+04 -2.71460E+04  2.72701E+03 -1.17439E+04 -2.93193E+04  2.11555E+04 -3.64646E+04
  4.39915E+04 -1.09627E+04  3.97877E+04  2.48553E+04  2.10919E+04  5.05357E+04 -7.98075E+03  5.57265E+04
 -3.47579E+04  3.77020E+04 -4.73168E+04  1.09167E+04 -4.67827E+04 -1.84610E+04 -2.60454E+04 -4.16366E+04
  8.12261E+03 -4.17702E+04  3.40516E+04 -1.70098E+04  3.20598E+04  1.14103E+04  4.84241E+03  2.03050E+04
 -1.40423E+04  9.76390E+03 -1.12597E+04 -7.84532E+03  5.87744E+03 -1.12822E+04  1.84799E+04  5.54982E+03
  1.46117E+04  2.24878E+04 -5.41494E+03  2.68062E+04 -2.31191E+04  1.41479E+04 -3.10438E+04 -3.07020E+03
 -2.46771E+04 -1.84926E+04 -1.18952E+04 -2.42421E+04  4.35853E+03 -2.52345E+04  1.94023E+04 -2.23909E+04
  3.13172E+04 -1.42698E+04  3.79517E+04  4.88910E+03  2.66296E+04  2.39787E+04  4.67981E+03  4.10377E+04
 -1.93162E+04  3.32543E+04 -3.01838E+04  1.20004E+04 -2.25392E+04 -1.01740E+04 -4.55664E+03 -1.27824E+04
  9.78816E+02 -1.36954E+03 -7.25798E+03  8.04258E+03 -2.00992E+04  5.15042E+03 -1.99384E+04 -9.34478E+03
 -1.20992E+04 -2.27199E+04  6.13047E+03 -2.72461E+04  1.84808E+04 -1.95515E+04  2.25142E+04 -1.75275E+03
  1.44138E+04  1.59110E+04 -1.19337E+03  2.28823E+04 -1.61517E+04  1.32240E+04 -2.34684E+04 -4.89980E+03
 -1.68892E+04 -2.05674E+04 -1.97469E+03 -2.75639E+04  1.22832E+04 -2.32636E+04  2.26853E+04 -1.18566E+04
  2.17697E+04 -4.48327E+02  1.55979E+04  5.01781E+03  8.24610E+03  1.26483E+03  1.21624E+04 -2.06030E+03
  2.17487E+04  3.06754E+03  2.50122E+04  1.79085E+04  1.68473E+04  3.68341E+04 -2.87120E+03  4.29841E+04
 -2.45073E+04  3.59895E+04 -4.12002E+04  1.86061E+04 -4.37726E+04 -3.36955E+03 -3.51748E+04 -2.53876E+04
 -1.41845E+04 -3.63467E+04  1.29195E+04 -3.15562E+04  2.71861E+04 -1.50039E+04  2.32260E+04  7.56300E+03
  8.20144E+03  1.85051E+04 -1.08195E+04  1.54958E+04 -1.97918E+04  2.67268E+03 -1.51102E+04 -1.25640E+04
 -5.50337E+02 -1.86041E+04  1.01238E+04 -1.39251E+04  1.32359E+04 -1.35221E+03  3.55259E+03  8.45221E+03
 -8.38478E+03  4.24458E+03 -8.66539E+03 -6.73098E+03 -2.16706E+03 -1.79552E+04  1.18327E+04 -1.90132E+04
  2.22817E+04 -1.09127E+04  2.49072E+04  3.28209E+03  2.15347E+04  1.76486E+04  1.00572E+04  2.83880E+04
 -5.21702E+03  3.04755E+04 -1.96072E+04  1.88325E+04 -2.19377E+04  3.30768E+03 -1.49084E+04 -5.71855E+03
 -6.39059E+03 -6.84345E+03 -5.01032E+02  4.80993E+02 -2.67627E+03  3.32541E+03 -6.90038E+03  5.47929E+03
 -1.37207E+04 -8.85848E+02 -1.43103E+04 -1.16792E+04 -5.65432E+03 -1.89916E+04  6.16628E+03 -1.52838E+04
  1.24983E+04 -6.34722E+03  8.95972E+03  4.27562E+03 -2.24922E+02  6.02635E+03 -7.86458E+03  1.70386E+02
 -7.37597E+03 -9.91404E+03 -1.21667E+03 -1.46690E+04  8.66472E+03 -1.55284E+04  1.90889E+04 -8.38054E+03
  2.27217E+04  2.40475E+03  1.66014E+04  1.39569E+04  3.18909E+03  1.79932E+04 -9.30133E+03  1.48390E+04
 -1.22185E+04  4.20344E+03 -6.18727E+03 -3.24001E+03  2.27417E+03 -4.16157E+03  8.06797E+03 -1.38090E+03
  6.91946E+03  6.89825E+03  1.20162E+03  1.23133E+04 -8.87907E+03  1.17685E+04 -1.52147E+04  2.67550E+03
 -1.05291E+04 -8.06371E+03  1.55860E+02 -1.27972E+04  8.30183E+03 -6.34901E+03  9.10585E+03  3.12489E+03
  2.52373E+03  9.79661E+03 -7.57887E+03  1.09356E+04 -1.26982E+04  5.31558E+03 -1.31487E+04 -4.92114E+03
 -7.99560E+03 -1.48972E+04  3.35146E+03 -1.72783E+04  1.42462E+04 -1.02001E+04  1.60792E+04  3.13488E+03
  9.24950E+03  1.25515E+04 -1.37081E+03  1.51069E+04 -1.11713E+04  8.39316E+03 -1.19856E+04 -1.44971E+03
 -1.08773E+04 -1.02413E+04 -1.66994E+03 -1.17344E+04  6.00774E+03 -9.14593E+03  7.48352E+03 -3.45220E+03
  4.70917E+03  1.87276E+03 -7.29896E+02  1.96462E+03 -6.31238E+02 -3.19870E+03  2.55537E+03 -7.16009E+03
  1.10880E+04 -4.63716E+03  1.55203E+04  1.74370E+03  1.47156E+04  1.08695E+04  9.71425E+03  1.96538E+04
 -4.73914E+03  2.25237E+04 -1.87639E+04  1.71739E+04 -2.46207E+04  3.17691E+03 -1.96016E+04 -8.50758E+03
 -1.00743E+04 -1.57562E+04  9.63340E+01 -1.39331E+04  5.04083E+03 -8.10615E+03  4.31020E+03 -5.29611E+03
  3.89250E+03 -2.99715E+03  4.06044E+03 -3.92576E+03  5.43015E+03 -3.53577E+03  7.64357E+03 -1.10766E+03
  1.00007E+04  2.29100E+03  5.24881E+03  8.72553E+03 -1.73273E+03  1.04119E+04 -1.09644E+04  8.08091E+03
 -1.37510E+04 -1.49447E+03 -8.90309E+03 -9.73900E+03 -1.01944E+03 -1.46819E+04  7.90875E+03 -1.47444E+04
  1.53215E+04 -7.97545E+03  1.82296E+04  2.74720E+03  1.25351E+04  1.27366E+04  1.74787E+03  1.63926E+04
 -6.89533E+03  1.37994E+04 -9.92558E+03  4.51822E+03 -6.95606E+03 -1.81068E+03 -2.64964E+03 -1.81413E+03
 -8.78650E+02 -4.87373E+02 -2.05171E+03  2.81920E+03 -5.46470E+03  2.59374E+03 -9.69274E+03 -1.16840E+03
 -6.96843E+03 -9.17282E+03 -1.00154E+02 -1.38408E+04  8.66502E+03 -1.28794E+04  1.36887E+04 -4.34397E+03
  1.35768E+04  6.77859E+03  6.06757E+03  1.19416E+04 -2.73168E+03  1.38335E+04 -9.62892E+03  8.87130E+03
 -1.28873E+04  3.32098E+02 -9.86857E+03 -7.95577E+03 -1.37199E+03 -1.16975E+04  5.90145E+03 -8.46870E+03
  8.92012E+03 -2.49126E+03  6.06813E+03  2.43732E+03  2.19449E+03  4.34852E+03  1.42354E+03  1.68547E+03
  2.50279E+03  1.25741E+03  3.23632E+03  1.60879E+03  3.86278E+03  5.00135E+03  3.82184E+03  7.24471E+03
 -2.82099E+03  1.09032E+04 -9.62256E+03  1.10638E+04 -1.37179E+04  2.66718E+03 -1.45949E+04 -6.00325E+03
 -6.73064E+03 -1.39491E+04  2.01679E+03 -1.53613E+04  8.35753E+03 -9.86563E+03  1.14986E+04 -2.43207E+03
  9.22282E+03  5.29599E+03  2.08085E+03  8.14102E+03 -4.03209E+03  4.89606E+03 -5.38801E+03 -1.00854E+03
 -2.69951E+03 -6.23931E+03  3.50449E+03 -5.95594E+03  5.88142E+03 -3.05272E+03  5.35938E+03  1.30646E+03
  3.17017E+03  2.71941E+03  1.54632E+03  1.99647E+03 -7.82891E+02  2.06774E+03  1.44156E+03 -2.74037E+02
  2.04324E+03 -7.74037E+02  5.64264E+03  2.28318E+03  3.26873E+03  7.38367E+03 -1.09928E+03  9.60873E+03
 -6.42436E+03  6.21549E+03 -8.71421E+03  1.59752E+03 -7.56055E+03 -2.96982E+03 -2.82107E+03 -5.61222E+03
  7.44485E+02 -5.59621E+03  3.49002E+03 -2.32449E+03  2.85425E+03  2.67108E+03 -1.27572E+03  5.14293E+03
 -5.55047E+03  2.17119E+03 -6.38349E+03 -3.11055E+03 -3.50567E+03 -7.59603E+03  9.62641E+02 -7.47380E+03
  4.44327E+03 -4.35347E+03  5.37835E+03 -2.47924E+02  4.67568E+03  2.28579E+03  5.23251E+02  4.40056E+03
 -2.87884E+03  1.18929E+03 -3.42679E+03 -2.43787E+03  1.57334E+03 -6.07570E+03  7.38435E+03 -4.78789E+03
  8.27048E+03  7.13186E+02  8.49944E+03  5.77341E+03  2.61448E+03  8.83225E+03 -3.20988E+03  8.42922E+03
 -7.14440E+03  3.81484E+03 -7.59181E+03 -1.25151E+03 -4.11531E+03 -5.74211E+03  1.19711E+03 -5.58990E+03
  5.57016E+03 -2.60667E+03  4.56103E+03  2.26654E+03  1.69739E+03  4.95246E+03 -3.32738E+02  3.99989E+03
 -2.21543E+03  2.90470E+03 -1.92417E+03  8.18919E+02 -9.39642E+02  7.69184E+02 -2.01506E+03  1.77021E+03
 -2.11381E+03  3.50404E+03 -5.81694E+03  2.89737E+03 -8.74693E+03  2.50822E+01 -9.77450E+03 -6.04216E+03
 -5.10927E+03 -1.17234E+04  2.39841E+03 -1.35245E+04  8.42346E+03 -1.05474E+04  1.29874E+04 -4.12023E+03
  1.23668E+04  2.63032E+03  7.20787E+03  8.01436E+03  9.56583E+02  9.31853E+03 -3.57345E+03  6.76906E+03
 -4.98655E+03  2.85921E+03 -3.18006E+03 -7.48481E+02 -1.01616E+03 -7.83878E+02 -1.08362E+03 -1.34981E+02
 -1.91627E+03  2.10265E+02 -1.64722E+03 -1.44681E+02 -7.50302E+02 -2.25644E+03 -1.13291E+01 -3.16213E+03
  4.07017E+03 -3.03576E+03  5.44098E+03  2.54528E+02  6.08846E+03  5.02139E+03  1.73419E+03  8.95554E+03
 -3.90405E+03  1.02126E+04 -9.64130E+03  6.29127E+03 -1.10202E+04 -1.23745E+03 -7.82783E+03 -6.67960E+03
 -3.75552E+03 -8.92584E+03  2.70711E+03 -8.37146E+03  5.72521E+03 -4.75129E+03  5.84804E+03  2.73154E+02
  3.22883E+03  3.06148E+03 -5.75331E+02  2.58466E+03 -2.03330E+03 -4.26161E+01  9.75313E+01 -2.23433E+03
  3.36064E+03 -1.47743E+03  3.32474E+03  1.09915E+03  2.67365E+03  3.60902E+03  2.23221E+02  4.34609E+03
 -3.91740E+03  4.38054E+03 -5.99655E+03  5.57817E+02 -5.31721E+03 -4.41696E+03 -8.24277E+02 -7.34223E+03
  4.16136E+03 -6.16507E+03  6.60467E+03 -1.69085E+03  6.56405E+03  2.04902E+03  4.10961E+03  5.44633E+03
  9.07336E+02  6.27169E+03 -2.06958E+03  5.05113E+03 -3.99557E+03  2.64533E+03 -3.40326E+03  5.20508E+02
 -1.54597E+03  3.22925E+02 -1.77128E+03  6.72901E+02 -3.17106E+03  1.39071E+03 -5.05279E+03 -7.61259E+02
 -4.25729E+03 -2.97741E+03 -1.20391E+03 -5.65472E+03  2.99612E+03 -6.62668E+03  5.30696E+03 -2.98339E+03
  6.10087E+03  5.77691E+02  3.00020E+03  4.43544E+03 -2.38590E+02  6.33964E+03 -4.56273E+03  3.75060E+03
