 $NMID ID='MM_0lb_SNR800_10hz_g40_14.RAW', FMTDAT='(8E13.5)'
 TRAMP=1., VOLUME=1. $END
  3.10064E+05  4.11810E+02  3.37729E+05  2.50491E+05  8.47353E+04  3.38181E+05 -1.32551E+05  2.51566E+05
 -1.90375E+05  8.32685E+04 -1.12323E+05 -3.23355E+04  8.14972E+02 -5.08972E+04  5.38585E+04 -3.13816E+02
  3.59362E+04  5.29601E+04 -1.66725E+04  7.57467E+04 -6.10174E+04  6.38075E+04 -8.46118E+04  3.23657E+04
 -8.18433E+04 -1.14411E+04 -5.75616E+04 -5.20924E+04 -1.50095E+04 -7.04806E+04  2.77966E+04 -4.63248E+04
  4.05758E+04  3.42539E+03  1.62847E+04  4.79326E+04 -3.46983E+04  4.79867E+04 -6.78353E+04 -4.94946E+01
 -5.42326E+04 -5.71834E+04 -7.11350E+03 -7.84289E+04  3.50395E+04 -5.61119E+04  4.91191E+04 -1.80766E+04
  4.44602E+04  1.15190E+04  3.23055E+04  2.60723E+04  1.58308E+04  3.00283E+04 -5.47965E+03  2.72261E+04
 -2.18483E+04  1.20378E+04 -1.82130E+04 -5.18301E+03  6.22029E+03 -7.44950E+03  2.28696E+04  1.30653E+04
  7.36322E+03  3.65866E+04 -3.30177E+04  3.65125E+04 -6.46922E+04  2.26502E+03 -5.78245E+04 -4.37594E+04
 -1.27426E+04 -6.48970E+04  4.09623E+04 -4.63996E+04  5.99793E+04 -2.25448E+03  3.59513E+04  3.40862E+04
 -5.70015E+03  3.83305E+04 -3.10982E+04  1.73730E+04 -3.17219E+04 -3.73042E+03 -1.82652E+04 -1.14161E+04
 -9.05054E+03 -1.42974E+04 -4.70043E+02 -1.93278E+04  8.10145E+03 -2.32218E+04  1.59395E+04 -1.29832E+04
  1.10011E+04  5.34214E+03 -9.35824E+03  1.28174E+04 -2.25190E+04 -5.63130E+03 -8.74052E+03 -3.60942E+04
  2.39477E+04 -4.55853E+04  4.98465E+04 -2.04293E+04  4.71253E+04  2.01941E+04  1.64567E+04  4.58436E+04
 -1.65069E+04  3.51107E+04 -2.64774E+04  2.23002E+03 -1.10964E+04 -2.92063E+04  2.18156E+04 -3.57391E+04
  4.30755E+04 -1.05836E+04  3.83225E+04  2.47296E+04  1.98315E+04  4.90015E+04 -7.74742E+03  5.36536E+04
 -3.41993E+04  3.66173E+04 -4.50874E+04  1.06819E+04 -4.57391E+04 -1.79259E+04 -2.50413E+04 -4.06292E+04
  7.59765E+03 -4.04073E+04  3.31844E+04 -1.64457E+04  3.10709E+04  1.10766E+04  4.50966E+03  2.03148E+04
 -1.37043E+04  9.25122E+03 -1.08443E+04 -7.56258E+03  5.71426E+03 -1.09955E+04  1.88186E+04  5.59054E+03
  1.37952E+04  2.20992E+04 -5.43937E+03  2.61069E+04 -2.31859E+04  1.30989E+04 -3.02285E+04 -3.67993E+03
 -2.34559E+04 -1.80771E+04 -1.06736E+04 -2.31246E+04  4.19692E+03 -2.28872E+04  1.83005E+04 -2.07877E+04
  2.93797E+04 -1.37131E+04  3.60489E+04  4.44958E+03  2.58036E+04  2.25338E+04  4.28463E+03  3.92161E+04
 -1.89924E+04  3.25519E+04 -2.99622E+04  1.13066E+04 -2.19631E+04 -1.00946E+04 -4.92669E+03 -1.30439E+04
  9.41001E+02 -1.90599E+03 -6.64245E+03  7.07419E+03 -1.88803E+04  4.89034E+03 -1.82426E+04 -8.60471E+03
 -1.13853E+04 -2.19010E+04  5.49596E+03 -2.60223E+04  1.73974E+04 -1.88343E+04  2.07667E+04 -2.21400E+03
  1.35456E+04  1.48522E+04 -1.29163E+03  2.15848E+04 -1.51258E+04  1.23493E+04 -2.17906E+04 -4.57869E+03
 -1.62815E+04 -1.94907E+04 -1.89021E+03 -2.61644E+04  1.17184E+04 -2.17259E+04  2.14201E+04 -1.08948E+04
  2.02891E+04 -3.71184E+02  1.48254E+04  5.21344E+03  7.80777E+03  1.33222E+03  1.10396E+04 -1.83362E+03
  2.01018E+04  2.75612E+03  2.30194E+04  1.69489E+04  1.56583E+04  3.47326E+04 -3.01248E+03  4.04637E+04
 -2.31660E+04  3.31292E+04 -3.80159E+04  1.69815E+04 -4.02949E+04 -2.98609E+03 -3.28124E+04 -2.37339E+04
 -1.31799E+04 -3.36012E+04  1.19639E+04 -2.92128E+04  2.51575E+04 -1.40983E+04  2.23293E+04  7.23308E+03
  8.21692E+03  1.71291E+04 -1.02642E+04  1.43494E+04 -1.85243E+04  2.32155E+03 -1.42781E+04 -1.19131E+04
 -2.23069E+02 -1.79667E+04  9.17106E+03 -1.31589E+04  1.22248E+04 -1.39486E+03  2.83363E+03  7.62525E+03
 -8.15459E+03  3.46980E+03 -8.06661E+03 -6.56339E+03 -1.46175E+03 -1.60151E+04  1.09321E+04 -1.76305E+04
  2.03483E+04 -9.81900E+03  2.30582E+04  3.21593E+03  2.05003E+04  1.62883E+04  9.67844E+03  2.58163E+04
 -4.41825E+03  2.79023E+04 -1.78354E+04  1.69948E+04 -1.99508E+04  3.53975E+03 -1.33548E+04 -5.25662E+03
 -5.98454E+03 -6.73652E+03 -1.03095E+03  6.97306E+02 -3.08190E+03  3.15761E+03 -6.46695E+03  4.63418E+03
 -1.26681E+04 -5.53764E+02 -1.37519E+04 -1.08189E+04 -5.32090E+03 -1.76157E+04  5.83404E+03 -1.40908E+04
  1.12134E+04 -5.47689E+03  8.20236E+03  3.66404E+03 -5.46781E+02  5.62726E+03 -7.02264E+03 -4.26672E+02
 -6.70161E+03 -9.14338E+03 -9.76427E+02 -1.34869E+04  8.00381E+03 -1.43755E+04  1.78847E+04 -7.80324E+03
  2.09971E+04  2.22915E+03  1.50875E+04  1.25844E+04  2.98202E+03  1.65642E+04 -8.50675E+03  1.38418E+04
 -1.12290E+04  4.08426E+03 -5.49123E+03 -3.12183E+03  2.27409E+03 -4.09967E+03  7.22244E+03 -1.05826E+03
  6.65619E+03  6.14294E+03  1.13981E+03  1.13569E+04 -8.25919E+03  1.08333E+04 -1.39129E+04  2.67003E+03
 -9.45898E+03 -7.17185E+03  2.31845E+02 -1.18562E+04  7.49510E+03 -5.92231E+03  7.98612E+03  2.75963E+03
  1.96599E+03  8.22874E+03 -7.07335E+03  1.02524E+04 -1.16594E+04  4.85206E+03 -1.19177E+04 -4.36660E+03
 -6.61020E+03 -1.35796E+04  3.17622E+03 -1.57224E+04  1.29858E+04 -9.07292E+03  1.44602E+04  2.75181E+03
  8.31203E+03  1.19644E+04 -1.19044E+03  1.41062E+04 -9.76902E+03  7.65036E+03 -1.06425E+04 -1.16325E+03
 -9.72578E+03 -9.49236E+03 -1.79924E+03 -1.08595E+04  5.67742E+03 -8.76691E+03  6.49506E+03 -3.21942E+03
  4.43287E+03  1.69133E+03 -4.73266E+02  1.94449E+03 -2.63404E+01 -3.02930E+03  1.65091E+03 -6.33521E+03
  9.82202E+03 -3.88072E+03  1.36142E+04  1.66056E+03  1.38158E+04  8.88271E+03  9.02841E+03  1.79280E+04
 -4.30999E+03  2.05155E+04 -1.72889E+04  1.52711E+04 -2.22010E+04  2.78934E+03 -1.79078E+04 -7.65831E+03
 -9.27874E+03 -1.46381E+04 -4.12908E+02 -1.25827E+04  4.78776E+03 -6.82420E+03  4.38936E+03 -4.48255E+03
  3.27909E+03 -3.03054E+03  3.71464E+03 -3.41058E+03  4.99042E+03 -2.64429E+03  7.47864E+03 -1.05348E+03
  9.37078E+03  1.92697E+03  5.14468E+03  8.00802E+03 -2.24563E+03  9.29751E+03 -9.53504E+03  7.40564E+03
 -1.24476E+04 -1.31431E+03 -7.83418E+03 -8.73192E+03 -7.93466E+02 -1.33493E+04  7.60976E+03 -1.33288E+04
  1.39778E+04 -7.26717E+03  1.64232E+04  1.76548E+03  1.13951E+04  1.12610E+04  1.86506E+03  1.50217E+04
 -6.28021E+03  1.23652E+04 -9.01664E+03  4.19047E+03 -5.95935E+03 -1.60114E+03 -2.74615E+03 -1.69417E+03
 -1.38639E+03 -1.36178E+02 -1.57865E+03  2.64252E+03 -5.20759E+03  1.99962E+03 -8.85802E+03 -1.18069E+03
 -5.79842E+03 -8.38954E+03 -1.38885E+02 -1.25509E+04  8.03204E+03 -1.14000E+04  1.21095E+04 -3.26270E+03
  1.20558E+04  6.00045E+03  5.79023E+03  1.07389E+04 -2.34100E+03  1.26883E+04 -8.89887E+03  7.91287E+03
 -1.14925E+04  5.85281E+02 -8.40423E+03 -7.53353E+03 -9.33919E+02 -1.00922E+04  5.31921E+03 -7.94636E+03
  7.70197E+03 -2.44651E+03  5.40368E+03  1.72734E+03  1.77143E+03  3.67467E+03  9.79112E+02  1.64700E+03
  2.47685E+03  8.09378E+02  2.75641E+03  1.67315E+03  3.54131E+03  4.43802E+03  3.22162E+03  6.38813E+03
 -2.65396E+03  9.71155E+03 -8.57016E+03  9.87307E+03 -1.27071E+04  2.35663E+03 -1.29777E+04 -4.70073E+03
 -5.85690E+03 -1.21444E+04  1.90550E+03 -1.38055E+04  7.57989E+03 -8.91409E+03  1.04386E+04 -2.45182E+03
  7.62412E+03  4.76054E+03  1.88520E+03  6.93515E+03 -3.29473E+03  4.51421E+03 -5.13310E+03 -6.45968E+02
 -2.30070E+03 -5.52513E+03  3.03178E+03 -5.94610E+03  4.98117E+03 -2.99658E+03  5.08345E+03  1.18796E+03
  2.99535E+03  2.41061E+03  8.85813E+02  1.97861E+03 -7.62197E+02  1.55968E+03  1.57604E+03 -5.09370E+02
  1.87753E+03 -7.05314E+02  5.23747E+03  1.68977E+03  2.95401E+03  6.87110E+03 -9.45143E+02  8.82160E+03
 -5.79327E+03  5.95039E+03 -7.69000E+03  1.65190E+03 -7.28488E+03 -2.22950E+03 -2.59406E+03 -4.94077E+03
  5.42367E+02 -4.97959E+03  3.15535E+03 -2.15378E+03  2.73816E+03  2.37489E+03 -1.45352E+03  3.72975E+03
 -5.15521E+03  2.48277E+03 -5.99728E+03 -2.78682E+03 -3.12483E+03 -6.86996E+03  9.69365E+02 -6.68639E+03
  3.84525E+03 -3.83411E+03  4.74737E+03 -7.96190E+01  4.14891E+03  2.15130E+03  1.35742E+02  3.80580E+03
 -2.40992E+03  7.30686E+02 -3.33014E+03 -2.12344E+03  1.04055E+03 -5.27171E+03  5.90690E+03 -4.60266E+03
  7.78830E+03  4.40320E+02  7.89114E+03  5.37413E+03  2.47190E+03  8.18031E+03 -2.69069E+03  7.36978E+03
 -6.76437E+03  3.23763E+03 -6.89192E+03 -1.09675E+03 -3.65313E+03 -5.37649E+03  1.03357E+03 -4.57313E+03
  4.92173E+03 -2.59706E+03  4.14210E+03  2.15585E+03  1.30800E+03  3.94004E+03 -5.29214E+02  4.00199E+03
 -2.22374E+03  2.56036E+03 -1.83157E+03  1.02327E+03 -5.34468E+02  1.19852E+03 -1.26784E+03  1.38372E+03
 -1.84974E+03  2.91444E+03 -5.75883E+03  2.79663E+03 -8.19203E+03  2.98119E+02 -9.13471E+03 -5.34391E+03
 -4.70947E+03 -1.04712E+04  2.08124E+03 -1.22241E+04  7.34624E+03 -9.73978E+03  1.16248E+04 -3.57477E+03
  1.06239E+04  2.14037E+03  6.38592E+03  7.39676E+03  4.60723E+02  8.32574E+03 -3.45759E+03  6.19796E+03
 -5.03908E+03  2.17622E+03 -2.68885E+03 -9.95557E+02 -1.02724E+03 -9.35928E+02 -2.88742E+02  4.49652E+01
 -1.70001E+03  3.05061E+02 -1.72077E+03 -1.79813E+02 -5.99295E+02 -2.22214E+03 -1.05008E+02 -3.13847E+03
  3.84549E+03 -2.25226E+03  4.94793E+03 -2.02392E+02  5.85790E+03  4.66020E+03  1.38188E+03  8.29089E+03
 -4.06175E+03  9.68372E+03 -8.33370E+03  5.84113E+03 -1.00885E+04 -7.12246E+02 -7.39212E+03 -5.98243E+03
 -3.35144E+03 -8.21476E+03  1.95357E+03 -7.65964E+03  5.33904E+03 -4.41832E+03  5.20023E+03  1.50668E+02
  2.79833E+03  2.60240E+03 -7.73013E+00  2.67276E+03 -1.76541E+03 -3.62093E+02  1.16189E+02 -2.20978E+03
  2.82918E+03 -9.88062E+02  3.22020E+03  1.17582E+03  2.22455E+03  3.09709E+03  2.48379E+02  4.33281E+03
 -3.76820E+03  3.89718E+03 -5.53874E+03  1.69462E+02 -4.81514E+03 -4.11385E+03 -7.00814E+02 -6.74471E+03
  3.90938E+03 -5.60620E+03  6.10443E+03 -1.46611E+03  6.31166E+03  1.46973E+03  3.53849E+03  4.92530E+03
  5.95389E+02  5.15205E+03 -2.15157E+03  4.28847E+03 -3.19706E+03  2.39716E+03 -2.75722E+03  4.83738E+02
 -1.41388E+03 -2.36271E+02 -1.73562E+03  7.86673E+02 -2.72813E+03  8.27837E+02 -4.17546E+03 -8.32478E+02
 -4.71876E+03 -2.51625E+03 -1.05163E+03 -5.54762E+03  2.62561E+03 -5.74930E+03  4.99943E+03 -2.52716E+03
  5.68323E+03  5.90317E+02  2.91320E+03  3.44411E+03 -1.05828E+02  5.43632E+03 -4.27708E+03  3.54303E+03
