 $NMID ID='MM_0lb_SNR800_17hz_g50_81.RAW', FMTDAT='(8E13.5)'
 TRAMP=1., VOLUME=1. $END
  3.09737E+05  4.63677E+02  3.37729E+05  2.50414E+05  8.44787E+04  3.37529E+05 -1.32183E+05  2.50610E+05
 -1.90360E+05  8.26214E+04 -1.11252E+05 -3.25496E+04  1.25414E+03 -5.05617E+04  5.41621E+04 -1.71539E+02
  3.50901E+04  5.27049E+04 -1.71421E+04  7.49666E+04 -6.05724E+04  6.28001E+04 -8.34897E+04  3.20309E+04
 -8.01040E+04 -1.15137E+04 -5.65964E+04 -5.07760E+04 -1.50588E+04 -6.91663E+04  2.71985E+04 -4.54438E+04
  3.94611E+04  4.09839E+03  1.56990E+04  4.74246E+04 -3.42237E+04  4.67566E+04 -6.60238E+04 -3.28081E+02
 -5.29029E+04 -5.62119E+04 -6.37395E+03 -7.59250E+04  3.32381E+04 -5.39039E+04  4.70186E+04 -1.67104E+04
  4.22688E+04  1.10076E+04  3.14530E+04  2.50748E+04  1.57525E+04  2.86924E+04 -5.17476E+03  2.69044E+04
 -2.18520E+04  1.26885E+04 -1.87099E+04 -4.62506E+03  4.69311E+03 -7.62819E+03  2.18556E+04  1.15358E+04
  7.59866E+03  3.41606E+04 -3.13294E+04  3.46244E+04 -6.20362E+04  2.28261E+03 -5.59657E+04 -4.19153E+04
 -1.24728E+04 -6.18226E+04  3.88228E+04 -4.43744E+04  5.63946E+04 -2.35362E+03  3.27446E+04  3.14709E+04
 -6.50352E+03  3.43161E+04 -2.90423E+04  1.45291E+04 -2.87473E+04 -5.02545E+03 -1.56027E+04 -1.05767E+04
 -7.68912E+03 -1.19530E+04 -8.45453E+02 -1.71519E+04  6.94850E+03 -2.29896E+04  1.52411E+04 -1.37261E+04
  1.19305E+04  4.83504E+03 -6.89914E+03  1.30513E+04 -2.01921E+04 -3.59664E+03 -8.24670E+03 -3.16993E+04
  2.15700E+04 -4.15290E+04  4.61457E+04 -1.90884E+04  4.35337E+04  1.85715E+04  1.47999E+04  4.25879E+04
 -1.56470E+04  3.23645E+04 -2.41880E+04  1.16247E+03 -9.04689E+03 -2.69138E+04  2.03774E+04 -3.22409E+04
  3.94455E+04 -7.88664E+03  3.31647E+04  2.30039E+04  1.65722E+04  4.43874E+04 -7.70929E+03  4.72834E+04
 -2.98459E+04  3.13924E+04 -3.93041E+04  8.89864E+03 -4.00386E+04 -1.56897E+04 -2.22058E+04 -3.57489E+04
  7.06804E+03 -3.59783E+04  3.02276E+04 -1.36093E+04  2.79652E+04  1.09173E+04  3.61953E+03  1.83602E+04
 -1.32650E+04  7.79879E+03 -1.02018E+04 -7.75886E+03  5.97772E+03 -1.04436E+04  1.73632E+04  6.43420E+03
  1.28245E+04  2.17977E+04 -6.79398E+03  2.37826E+04 -2.17773E+04  9.97931E+03 -2.60061E+04 -5.59801E+03
 -1.83571E+04 -1.67586E+04 -6.63527E+03 -1.82338E+04  3.95497E+03 -1.66147E+04  1.36027E+04 -1.60085E+04
  2.31130E+04 -1.22948E+04  2.97088E+04  1.75013E+03  2.19573E+04  1.78300E+04  4.23499E+03  3.43616E+04
 -1.67481E+04  2.88511E+04 -2.66663E+04  1.01818E+04 -2.01535E+04 -1.02555E+04 -4.32281E+03 -1.37347E+04
  2.31553E+03 -3.25613E+03 -3.47793E+03  5.77436E+03 -1.40449E+04  5.35796E+03 -1.45327E+04 -5.71701E+03
 -9.15469E+03 -1.68954E+04  4.83803E+03 -2.05931E+04  1.37159E+04 -1.50770E+04  1.60460E+04 -1.70118E+03
  1.01153E+04  1.16072E+04 -8.83339E+02  1.70407E+04 -1.14241E+04  9.90747E+03 -1.67874E+04 -3.43909E+03
 -1.26059E+04 -1.54040E+04 -1.57190E+03 -2.06870E+04  9.21705E+03 -1.67223E+04  1.74067E+04 -8.20476E+03
  1.59008E+04  6.02533E+02  1.12677E+04  4.13362E+03  6.07516E+03  4.85588E+02  8.43888E+03 -1.41601E+03
  1.52844E+04  2.82575E+03  1.63920E+04  1.35993E+04  1.06552E+04  2.69749E+04 -2.93864E+03  2.96740E+04
 -1.74877E+04  2.28026E+04 -2.71774E+04  1.13980E+04 -2.83352E+04 -1.95297E+03 -2.37303E+04 -1.61649E+04
 -1.09510E+04 -2.29557E+04  8.00467E+03 -2.09479E+04  1.85817E+04 -1.15748E+04  1.68400E+04  4.01435E+03
  6.90707E+03  1.23312E+04 -7.90764E+03  1.12880E+04 -1.43750E+04  2.61100E+03 -1.12227E+04 -8.39860E+03
  7.16582E+01 -1.36978E+04  6.68183E+03 -1.03723E+04  8.51795E+03 -9.71722E+02  1.72729E+03  5.55156E+03
 -6.38144E+03  1.68197E+03 -4.49484E+03 -4.98694E+03  2.78774E+02 -1.13169E+04  8.75862E+03 -1.15408E+04
  1.39456E+04 -5.46208E+03  1.38491E+04  3.06146E+03  1.20347E+04  1.09376E+04  5.76231E+03  1.62076E+04
 -2.20462E+03  1.82127E+04 -1.12752E+04  1.15782E+04 -1.27844E+04  2.99603E+03 -9.54563E+03 -2.63963E+03
 -4.78655E+03 -3.80996E+03 -8.65456E+02  1.41435E+03 -1.99759E+03  1.91942E+03 -4.17229E+03  3.94501E+03
 -8.84893E+03 -6.78689E+02 -9.87063E+03 -7.77787E+03 -3.86246E+03 -1.26494E+04  4.14267E+03 -9.54813E+03
  7.98362E+03 -4.16862E+03  5.90708E+03  2.68218E+03  4.16691E+02  3.34236E+03 -4.44340E+03 -2.14827E+02
 -3.66954E+03 -5.74431E+03 -6.74370E+02 -8.29663E+03  4.55478E+03 -9.21988E+03  1.13363E+04 -4.38309E+03
  1.34258E+04  8.05175E+02  9.86954E+03  7.04429E+03  1.87839E+03  9.90601E+03 -5.82973E+03  9.39356E+03
 -7.77251E+03  3.21602E+03 -4.11903E+03 -1.56991E+03  1.43287E+03 -2.36859E+03  5.33834E+03 -9.18875E+02
  4.66870E+03  4.22608E+03  1.45758E+03  6.94007E+03 -4.95765E+03  7.15624E+03 -8.59628E+03  1.59827E+03
 -5.64643E+03 -4.06246E+03  3.46543E+02 -7.50371E+03  4.52870E+03 -3.66808E+03  3.96211E+03  1.30141E+03
  5.49378E+02  4.09677E+03 -4.45470E+03  5.76074E+03 -6.16846E+03  2.86973E+03 -5.57359E+03 -1.56507E+03
 -3.40226E+03 -7.16238E+03  1.69392E+03 -8.36593E+03  7.37420E+03 -5.56118E+03  7.61490E+03  7.36456E+02
  5.47329E+03  6.17451E+03 -3.57486E+02  8.39900E+03 -5.73901E+03  4.85464E+03 -6.10030E+03 -3.25796E+02
 -6.13574E+03 -5.79724E+03 -1.54011E+03 -6.01954E+03  3.20956E+03 -5.20221E+03  3.44955E+03 -3.19556E+03
  3.13724E+03  5.54196E+02  3.13996E+01  1.46612E+03  4.74488E+02 -5.32757E+02  5.45999E+02 -2.67969E+03
  4.53461E+03 -1.18359E+03  6.73007E+03  8.79364E+02  6.89878E+03  4.13179E+03  5.81558E+03  8.68385E+03
 -1.51887E+03  1.04475E+04 -8.96687E+03  7.98357E+03 -1.19090E+04  1.40648E+03 -9.19527E+03 -3.36140E+03
 -4.97737E+03 -7.68510E+03 -2.27671E+02 -6.07341E+03  2.12651E+03 -2.77703E+03  2.27097E+03 -2.50715E+03
  1.48596E+03 -1.87389E+03  2.66397E+03 -2.27305E+03  4.05994E+03 -1.70956E+03  4.08625E+03  1.14050E+02
  5.21858E+03  1.34419E+03  1.77994E+03  4.34855E+03 -1.70546E+03  3.37782E+03 -5.23674E+03  3.42384E+03
 -6.24737E+03 -1.00305E+03 -2.36708E+03 -4.14804E+03  2.04114E+02 -6.01698E+03  3.70484E+03 -6.52929E+03
  6.31699E+03 -3.72497E+03  8.16340E+03  7.93692E+02  5.64940E+03  4.91323E+03  1.25119E+03  7.34349E+03
 -2.85754E+03  6.62786E+03 -3.99537E+03  2.22799E+03 -2.67360E+03 -1.15918E+03 -7.90429E+02 -4.80439E+02
 -6.10677E+02  3.38766E+02 -1.09194E+03  2.12119E+03 -2.36112E+03  1.15846E+03 -4.80559E+03 -2.25818E+02
 -2.33279E+03 -4.63738E+03  7.19961E+02 -5.75688E+03  3.02606E+03 -5.38070E+03  4.63033E+03 -1.25064E+03
  4.83249E+03  3.06541E+03  2.52506E+03  4.27089E+03 -1.18223E+03  5.49542E+03 -3.51475E+03  3.51790E+03
 -4.79406E+03  8.41262E+02 -4.07576E+03 -2.81787E+03 -2.55705E+02 -4.28447E+03  1.89148E+03 -3.26941E+03
  3.25625E+03 -1.25638E+03  2.06318E+03  5.32152E+02  5.75254E+02  2.04973E+03  1.05890E+03  8.60318E+02
  1.38585E+03  4.88324E+02  1.51512E+03  1.13485E+03  1.10194E+03  2.45258E+03  1.43627E+03  2.13333E+03
 -1.21830E+03  3.87476E+03 -3.31035E+03  4.56961E+03 -4.29508E+03  1.43853E+03 -5.12875E+03 -1.16868E+03
 -2.24672E+03 -4.77019E+03  6.99830E+02 -5.67226E+03  2.67645E+03 -3.22674E+03  3.80639E+03 -1.12119E+03
  3.22260E+03  2.22937E+03  7.13055E+02  2.96186E+03 -9.55549E+02  1.59092E+03 -1.36786E+03 -3.41518E+02
 -9.39274E+02 -2.17474E+03  1.55111E+03 -2.33085E+03  1.73491E+03 -1.24974E+03  1.75594E+03  2.80043E+02
  1.13050E+03  6.89669E+02  8.72182E+02 -1.15512E+02 -2.58351E+02  6.62382E+02  1.64383E+03 -1.90361E+01
  4.30092E+02 -2.97680E+02  2.04184E+03  9.36162E+02  5.20010E+02  3.00601E+03 -2.96835E+02  3.44967E+03
 -2.15457E+03  1.48190E+03 -2.46980E+03  5.04707E+02 -2.87045E+03 -6.56646E+02 -7.65485E+02 -1.55158E+03
  3.03871E+02 -1.68672E+03  1.24063E+03 -9.94942E+02  9.16901E+02  1.21421E+03 -7.21442E+02  1.33560E+03
 -2.06421E+03  8.22090E+02 -1.83062E+03 -1.51116E+03 -9.78998E+02 -3.02223E+03  9.06381E+01 -1.95460E+03
  5.17700E+02 -6.26039E+02  1.12070E+03  1.43427E+02  1.71720E+03  5.00614E+01  4.72145E+02  1.33004E+03
 -4.52403E+02  2.20092E+02 -1.24655E+03 -1.23508E+02  7.23880E+02 -1.14320E+03  2.16885E+03 -1.12887E+03
  1.74881E+03  4.06618E+02  3.18650E+03  7.37787E+02  1.37646E+03  2.36041E+03 -6.07246E+02  2.38364E+03
 -1.91837E+03  4.41026E+02 -1.95426E+03 -1.95178E+01 -1.36592E+03 -1.72339E+03  4.12827E+02 -9.75978E+02
  1.89941E+03 -7.00549E+02  7.49653E+02  8.66603E+02  4.91391E+02  1.53992E+03  2.88737E+02  1.58393E+03
 -5.64924E+02  1.07764E+03 -6.45444E+02  2.53245E+02  5.21195E+01  3.95952E+02 -5.18876E+02  4.28133E+02
 -8.58791E+02  1.23712E+03 -2.34366E+03  9.95828E+02 -2.18114E+03  7.61221E+01 -3.19705E+03 -1.32141E+03
 -1.56102E+03 -3.24011E+03  7.29419E+02 -3.70609E+03  1.58236E+03 -2.99864E+03  3.37347E+03 -1.31110E+03
  3.22417E+03  2.03833E+02  1.59677E+03  2.34220E+03 -4.56741E+02  2.19598E+03 -8.66491E+02  1.40184E+03
 -1.35005E+03  7.88648E+02 -6.77489E+02 -1.90347E+02 -2.99084E+02  1.92571E+02 -6.25251E+02  3.22862E+01
 -9.47718E+02 -1.35915E+02 -7.72033E+02  2.46643E+01  4.03886E+01 -7.06796E+02 -9.65277E+01 -9.92707E+02
  1.39090E+03 -7.22693E+02  8.06969E+02  5.08683E+02  1.52171E+03  1.23032E+03 -4.58633E+02  1.77995E+03
 -1.34061E+03  2.97966E+03 -2.17320E+03  1.68065E+03 -2.49838E+03 -6.00355E+02 -1.88035E+03 -1.72489E+03
 -9.80921E+02 -1.77360E+03  3.59692E+02 -1.94189E+03  8.29793E+02 -9.99762E+02  1.30511E+03  8.16028E+01
  8.81267E+02  5.72111E+02 -5.38279E+01  4.84336E+02 -3.09274E+02 -9.90417E+01  6.63166E+01 -4.64888E+02
  4.33738E+02  1.99605E+02  5.07387E+02  3.11208E+02  2.18052E+02  5.38440E+02  3.14541E+02  7.34195E+02
 -1.17090E+03  9.19892E+02 -7.07711E+02  1.93015E+01 -1.07704E+03 -7.90895E+02 -2.43088E+02 -1.42248E+03
  8.84298E+02 -9.79279E+02  9.16346E+02 -1.33298E+02  1.46973E+03 -3.78675E+02  9.96683E+02  1.06696E+03
  6.40424E+02  8.97748E+02 -2.72239E+02  1.03231E+03 -6.57465E+02  5.73360E+02 -2.77686E+02  1.27472E+02
 -3.27024E+02 -4.66955E+01 -8.38165E+02  9.03611E+01 -9.70927E+02  1.93456E+02 -9.35642E+02 -9.22592E+01
 -8.90144E+02 -2.59681E+02 -6.16417E+02 -1.24498E+03  7.89978E+02 -1.75571E+03  1.21291E+03 -3.34809E+02
  1.20898E+03  7.69810E+00 -2.55701E+02  5.08743E+02 -3.96219E+01  1.15185E+03 -4.27690E+02  6.40550E+02
