 $NMID ID='MM_0lb_SNR800_13hz_g45_90.RAW', FMTDAT='(8E13.5)'
 TRAMP=1., VOLUME=1. $END
  3.09466E+05  2.65447E+02  3.37526E+05  2.50251E+05  8.48480E+04  3.38113E+05 -1.32627E+05  2.51241E+05
 -1.90350E+05  8.30894E+04 -1.12111E+05 -3.24319E+04  6.36607E+02 -5.04122E+04  5.38562E+04 -3.46136E+02
  3.55454E+04  5.28992E+04 -1.68538E+04  7.55527E+04 -6.08430E+04  6.36347E+04 -8.43780E+04  3.19122E+04
 -8.11741E+04 -1.14511E+04 -5.72673E+04 -5.13187E+04 -1.51096E+04 -6.99172E+04  2.72147E+04 -4.61857E+04
  4.01229E+04  3.81820E+03  1.61943E+04  4.79350E+04 -3.43577E+04  4.76564E+04 -6.67584E+04 -2.34701E+02
 -5.33940E+04 -5.71188E+04 -7.13250E+03 -7.73575E+04  3.38392E+04 -5.53044E+04  4.80550E+04 -1.72579E+04
  4.36005E+04  1.11237E+04  3.21965E+04  2.55965E+04  1.60400E+04  2.93986E+04 -5.03832E+03  2.74785E+04
 -2.22646E+04  1.19513E+04 -1.84943E+04 -5.01153E+03  5.42374E+03 -7.37273E+03  2.24085E+04  1.25553E+04
  7.47235E+03  3.55450E+04 -3.24700E+04  3.54320E+04 -6.31343E+04  2.22549E+03 -5.73929E+04 -4.28327E+04
 -1.24125E+04 -6.36439E+04  4.00922E+04 -4.56459E+04  5.81801E+04 -2.57239E+03  3.48145E+04  3.25105E+04
 -6.32220E+03  3.63189E+04 -3.01308E+04  1.60884E+04 -3.09005E+04 -3.95902E+03 -1.69458E+04 -1.12698E+04
 -8.33293E+03 -1.34003E+04 -8.22927E+02 -1.80146E+04  7.55285E+03 -2.33391E+04  1.55495E+04 -1.31959E+04
  1.13564E+04  5.19536E+03 -8.67338E+03  1.28347E+04 -2.13160E+04 -4.44117E+03 -8.33298E+03 -3.39247E+04
  2.27063E+04 -4.40307E+04  4.87957E+04 -1.95095E+04  4.53348E+04  1.93804E+04  1.57246E+04  4.39835E+04
 -1.61871E+04  3.36134E+04 -2.49833E+04  1.80121E+03 -1.00289E+04 -2.80008E+04  2.08853E+04 -3.40897E+04
  4.10707E+04 -9.11974E+03  3.58750E+04  2.41455E+04  1.83209E+04  4.70748E+04 -8.05533E+03  5.06289E+04
 -3.21224E+04  3.38133E+04 -4.24888E+04  9.65987E+03 -4.31887E+04 -1.71020E+04 -2.38187E+04 -3.84388E+04
  7.43389E+03 -3.80244E+04  3.15279E+04 -1.50831E+04  2.97641E+04  1.08247E+04  4.07746E+03  1.94848E+04
 -1.35512E+04  8.60048E+03 -1.06540E+04 -7.76311E+03  5.61355E+03 -1.09991E+04  1.78585E+04  6.15440E+03
  1.36214E+04  2.17977E+04 -5.87905E+03  2.51823E+04 -2.27228E+04  1.18371E+04 -2.84874E+04 -4.71831E+03
 -2.08271E+04 -1.76872E+04 -8.63499E+03 -2.08958E+04  4.22937E+03 -2.04481E+04  1.61835E+04 -1.86648E+04
  2.66652E+04 -1.30227E+04  3.30501E+04  2.80398E+03  2.42576E+04  2.01708E+04  4.33315E+03  3.64866E+04
 -1.79983E+04  3.07020E+04 -2.81960E+04  1.06914E+04 -2.09418E+04 -1.03104E+04 -4.27031E+03 -1.36686E+04
  1.50916E+03 -2.64250E+03 -4.80789E+03  6.42183E+03 -1.66761E+04  4.83045E+03 -1.68667E+04 -7.30671E+03
 -1.05546E+04 -1.92187E+04  5.42518E+03 -2.33201E+04  1.58149E+04 -1.70548E+04  1.84880E+04 -1.65857E+03
  1.15893E+04  1.33092E+04 -1.07832E+03  1.94578E+04 -1.32360E+04  1.10816E+04 -1.91155E+04 -4.11716E+03
 -1.44075E+04 -1.76120E+04 -1.90621E+03 -2.37474E+04  1.05214E+04 -1.92426E+04  1.96046E+04 -9.47909E+03
  1.81112E+04 -2.35916E+01  1.29303E+04  4.42836E+03  7.03199E+03  1.00718E+03  9.78908E+03 -1.65188E+03
  1.77540E+04  2.84202E+03  2.00572E+04  1.52386E+04  1.32506E+04  3.11881E+04 -2.76177E+03  3.53740E+04
 -2.09311E+04  2.83885E+04 -3.33029E+04  1.42548E+04 -3.44655E+04 -2.35701E+03 -2.86853E+04 -2.02226E+04
 -1.20606E+04 -2.86167E+04  9.81681E+03 -2.57855E+04  2.17273E+04 -1.29382E+04  1.96287E+04  5.59765E+03
  7.08370E+03  1.48497E+04 -9.08695E+03  1.27626E+04 -1.67441E+04  2.77120E+03 -1.24332E+04 -1.02815E+04
  5.21256E+01 -1.63157E+04  8.05517E+03 -1.20422E+04  1.05480E+04 -1.22798E+03  2.16217E+03  6.95421E+03
 -7.28795E+03  2.64471E+03 -6.34618E+03 -5.76261E+03 -5.23958E+02 -1.38274E+04  9.68142E+03 -1.47204E+04
  1.73506E+04 -7.70815E+03  1.86044E+04  2.86593E+03  1.59764E+04  1.41003E+04  7.46892E+03  2.15067E+04
 -3.72995E+03  2.32649E+04 -1.47427E+04  1.44945E+04 -1.69411E+04  3.74692E+03 -1.16061E+04 -3.97395E+03
 -5.69065E+03 -5.45677E+03 -1.05003E+03  8.82081E+02 -2.72700E+03  2.73760E+03 -5.38991E+03  4.43879E+03
 -1.10913E+04 -8.65740E+02 -1.16602E+04 -9.35357E+03 -4.47580E+03 -1.54741E+04  5.17736E+03 -1.18970E+04
  1.00297E+04 -4.79098E+03  7.03140E+03  3.12104E+03  2.11382E+02  4.83812E+03 -5.58505E+03 -8.54116E+01
 -5.07447E+03 -7.71715E+03 -8.53253E+02 -1.10226E+04  6.94087E+03 -1.14589E+04  1.44815E+04 -6.13278E+03
  1.75038E+04  1.22849E+03  1.27920E+04  1.00030E+04  2.52343E+03  1.32208E+04 -7.12598E+03  1.17611E+04
 -9.63790E+03  3.60383E+03 -4.73228E+03 -2.54307E+03  1.71189E+03 -3.12982E+03  6.50999E+03 -8.65965E+02
  5.57841E+03  5.06714E+03  1.26959E+03  9.48105E+03 -6.73561E+03  8.98739E+03 -1.14659E+04  2.21350E+03
 -7.73950E+03 -6.12210E+03 -7.37468E+01 -9.89078E+03  6.30225E+03 -4.96381E+03  5.95911E+03  2.19390E+03
  1.38487E+03  6.48551E+03 -5.88177E+03  8.22303E+03 -8.80646E+03  3.95912E+03 -8.80059E+03 -2.82747E+03
 -5.08459E+03 -1.05455E+04  2.30899E+03 -1.21174E+04  1.04489E+04 -7.59791E+03  1.15908E+04  1.77639E+03
  7.21078E+03  9.02186E+03 -7.15252E+02  1.11083E+04 -7.99022E+03  6.45453E+03 -8.56076E+03 -9.47085E+02
 -8.14156E+03 -7.53689E+03 -1.60504E+03 -8.21384E+03  4.17433E+03 -6.53839E+03  5.26629E+03 -3.26268E+03
  3.77149E+03  1.19464E+03 -5.66816E+02  1.59020E+03 -1.88513E+02 -1.54864E+03  1.36627E+03 -4.16080E+03
  7.31122E+03 -3.00534E+03  9.91026E+03  1.12244E+03  1.04240E+04  6.54693E+03  7.65028E+03  1.35348E+04
 -2.81051E+03  1.55460E+04 -1.32691E+04  1.18010E+04 -1.70602E+04  2.14259E+03 -1.31334E+04 -5.27269E+03
 -7.13675E+03 -1.11930E+04 -3.20189E+02 -9.36709E+03  3.59035E+03 -4.70302E+03  3.26630E+03 -3.71953E+03
  2.24718E+03 -2.13818E+03  2.88163E+03 -2.64401E+03  4.69981E+03 -2.26062E+03  5.76058E+03 -5.55939E+02
  7.62773E+03  1.62110E+03  3.17995E+03  6.44369E+03 -1.93649E+03  6.84747E+03 -7.49794E+03  5.00190E+03
 -9.49311E+03 -9.41655E+02 -5.16774E+03 -6.51118E+03 -4.24097E+02 -9.74998E+03  5.78123E+03 -1.01069E+04
  1.00558E+04 -5.48371E+03  1.23636E+04  1.17147E+03  8.23348E+03  8.46897E+03  1.64104E+03  1.12203E+04
 -4.19665E+03  9.52375E+03 -6.31914E+03  3.55323E+03 -4.18060E+03 -1.24386E+03 -1.71980E+03 -1.48677E+03
 -9.58724E+02 -4.48000E+01 -1.58951E+03  2.28124E+03 -4.21367E+03  1.55534E+03 -6.35350E+03 -1.14889E+03
 -3.94459E+03 -6.47100E+03  4.70389E+02 -8.75899E+03  5.53926E+03 -8.19266E+03  8.47659E+03 -2.20052E+03
  8.69993E+03  4.27682E+03  3.91880E+03  7.71834E+03 -1.58216E+03  8.63848E+03 -6.06683E+03  5.63300E+03
 -8.21791E+03  6.65914E+02 -6.07924E+03 -5.30425E+03 -6.50207E+02 -7.26121E+03  3.45424E+03 -5.38726E+03
  5.65990E+03 -1.93459E+03  4.01431E+03  9.73103E+02  1.03575E+03  3.08959E+03  1.22030E+03  1.36990E+03
  2.22680E+03  5.48718E+02  2.11262E+03  1.49782E+03  2.29000E+03  3.15475E+03  2.34309E+03  4.45937E+03
 -1.87867E+03  6.41148E+03 -5.71339E+03  7.04649E+03 -8.11304E+03  1.87825E+03 -8.91151E+03 -3.15274E+03
 -3.91545E+03 -8.42981E+03  1.21214E+03 -9.73834E+03  4.87763E+03 -5.81263E+03  6.95166E+03 -2.22198E+03
  5.17096E+03  3.30265E+03  8.45647E+02  4.92749E+03 -2.21978E+03  3.04248E+03 -2.94577E+03 -6.21041E+02
 -1.66110E+03 -3.55896E+03  2.09940E+03 -3.42377E+03  3.71918E+03 -1.82573E+03  3.31889E+03  7.22505E+02
  1.69579E+03  1.57444E+03  1.32518E+03  1.34968E+03 -4.09728E+02  1.21283E+03  1.51050E+03 -3.70826E+02
  1.23770E+03 -5.96437E+02  3.77124E+03  1.30836E+03  1.80982E+03  4.89371E+03 -5.91296E+02  5.99114E+03
 -3.76926E+03  3.38573E+03 -4.97574E+03  6.15642E+02 -4.54115E+03 -1.90720E+03 -1.26840E+03 -2.93339E+03
  6.16379E+02 -3.42511E+03  1.98037E+03 -1.68874E+03  1.70099E+03  2.01738E+03 -1.20506E+03  2.76853E+03
 -3.24065E+03  1.42239E+03 -3.64949E+03 -2.46286E+03 -2.16724E+03 -4.54491E+03  7.22264E+02 -4.25735E+03
  2.15825E+03 -1.90132E+03  2.78937E+03 -1.00774E+02  2.68092E+03  8.48241E+02  2.22783E+02  2.28951E+03
 -1.30482E+03  8.43642E+02 -2.11490E+03 -1.16709E+03  1.37744E+03 -3.11077E+03  4.11654E+03 -2.61216E+03
  4.56206E+03  1.43118E+02  5.44706E+03  2.95860E+03  2.17778E+03  5.25734E+03 -1.50537E+03  4.66805E+03
 -4.12906E+03  1.70998E+03 -4.11201E+03 -4.43924E+02 -2.25465E+03 -3.11008E+03  6.48973E+02 -2.84696E+03
  3.30203E+03 -1.75678E+03  2.36018E+03  1.68394E+03  5.40241E+02  3.02446E+03 -1.80283E+02  2.53232E+03
 -1.24640E+03  2.06145E+03 -1.27057E+03  4.63275E+02 -4.14336E+02  7.32127E+02 -7.75993E+02  9.53420E+02
 -1.66069E+03  1.97700E+03 -4.07842E+03  1.71257E+03 -4.95111E+03  1.29171E+02 -5.63059E+03 -3.43079E+03
 -2.77475E+03 -6.52667E+03  1.13193E+03 -7.64505E+03  3.72662E+03 -5.92043E+03  7.34008E+03 -2.20116E+03
  6.23085E+03  6.98910E+02  3.76270E+03  4.66818E+03 -1.85246E+02  4.67593E+03 -1.83509E+03  3.76167E+03
 -2.80490E+03  1.67047E+03 -1.71174E+03 -7.25377E+02 -6.45437E+02 -2.16739E+02 -8.38276E+02 -2.37176E+02
 -1.05820E+03  1.53440E+02 -1.30355E+03 -2.21759E+02 -9.84005E+01 -1.18103E+03 -1.72862E+02 -1.59979E+03
  2.88873E+03 -1.48463E+03  2.68486E+03  4.13200E+01  3.34206E+03  2.78170E+03  6.44289E+02  4.78740E+03
 -2.21416E+03  5.83805E+03 -5.11969E+03  3.49284E+03 -5.64794E+03 -7.26057E+02 -4.03676E+03 -3.60435E+03
 -2.22227E+03 -5.02049E+03  1.22627E+03 -4.26773E+03  2.86360E+03 -2.09430E+03  2.93627E+03  3.58682E+02
  1.56419E+03  1.56589E+03  8.34943E+01  1.40143E+03 -8.98527E+02 -1.25453E+01 -7.85205E+01 -8.55406E+02
  1.49314E+03 -4.43915E+02  1.48789E+03  1.02539E+03  1.20287E+03  1.95280E+03  4.40390E+02  2.26252E+03
 -1.98044E+03  1.89056E+03 -2.98155E+03  8.93668E+00 -2.67552E+03 -2.05695E+03 -5.46678E+02 -3.69038E+03
  2.23536E+03 -2.87491E+03  3.34940E+03 -8.59416E+02  3.41492E+03  2.93459E+02  1.95671E+03  2.90742E+03
  1.90782E+02  2.74411E+03 -1.12641E+03  2.27607E+03 -2.16294E+03  1.34076E+03 -1.29870E+03  1.13578E+02
 -7.89917E+02  1.22004E+02 -1.16492E+03  6.09504E+02 -1.52653E+03  3.76488E+02 -2.38734E+03 -6.88124E+02
 -2.33392E+03 -1.31192E+03 -8.76511E+02 -3.00320E+03  1.34378E+03 -3.68120E+03  2.61401E+03 -1.28791E+03
  2.87337E+03  1.45713E+02  7.48891E+02  1.96815E+03 -9.58517E+01  3.05464E+03 -1.77188E+03  2.24252E+03
