 $NMID ID='MM_0lb_SNR800_9hz_g60_76.RAW', FMTDAT='(8E13.5)'
 TRAMP=1., VOLUME=1. $END
  3.09623E+05  5.18429E+02  3.37903E+05  2.50761E+05  8.49310E+04  3.38887E+05 -1.32535E+05  2.52162E+05
 -1.90878E+05  8.43621E+04 -1.12907E+05 -3.24171E+04 -1.57460E+02 -5.10384E+04  5.36180E+04 -5.19939E+02
  3.54069E+04  5.27607E+04 -1.68948E+04  7.65075E+04 -6.17629E+04  6.46812E+04 -8.53800E+04  3.24318E+04
 -8.28300E+04 -1.18782E+04 -5.81885E+04 -5.28429E+04 -1.51821E+04 -7.13426E+04  2.87158E+04 -4.72009E+04
  4.16789E+04  3.65646E+03  1.67341E+04  4.84780E+04 -3.48862E+04  4.84271E+04 -6.87014E+04  3.33914E+02
 -5.53097E+04 -5.80115E+04 -7.68439E+03 -7.92428E+04  3.51425E+04 -5.74259E+04  5.03961E+04 -1.82820E+04
  4.55320E+04  1.15478E+04  3.33730E+04  2.67408E+04  1.55852E+04  3.04960E+04 -6.25838E+03  2.73433E+04
 -2.24749E+04  1.20566E+04 -1.80946E+04 -5.75902E+03  7.28400E+03 -7.23808E+03  2.41796E+04  1.40403E+04
  6.74397E+03  3.79795E+04 -3.44671E+04  3.73892E+04 -6.64560E+04  2.24094E+03 -5.92399E+04 -4.49652E+04
 -1.24814E+04 -6.64185E+04  4.19894E+04 -4.79099E+04  6.18770E+04 -2.69416E+03  3.75085E+04  3.46473E+04
 -5.25882E+03  4.02241E+04 -3.18387E+04  1.95234E+04 -3.41033E+04 -3.50461E+03 -2.00846E+04 -1.23147E+04
 -1.00089E+04 -1.55131E+04 -3.92999E+01 -2.01895E+04  8.59885E+03 -2.39077E+04  1.59241E+04 -1.24687E+04
  1.06624E+04  6.33444E+03 -1.11132E+04  1.28606E+04 -2.37617E+04 -6.93888E+03 -9.03570E+03 -3.83313E+04
  2.59717E+04 -4.77631E+04  5.30486E+04 -2.09817E+04  4.94173E+04  2.10580E+04  1.71949E+04  4.78082E+04
 -1.68179E+04  3.69397E+04 -2.79052E+04  2.45428E+03 -1.21062E+04 -2.99050E+04  2.16482E+04 -3.75817E+04
  4.51435E+04 -1.13890E+04  4.14468E+04  2.52992E+04  2.20230E+04  5.19250E+04 -8.00642E+03  5.75266E+04
 -3.61680E+04  3.91197E+04 -4.91958E+04  1.15916E+04 -4.87206E+04 -1.87327E+04 -2.68626E+04 -4.34524E+04
  8.11378E+03 -4.26936E+04  3.48499E+04 -1.72482E+04  3.28417E+04  1.12211E+04  5.49109E+03  2.11668E+04
 -1.42005E+04  1.02486E+04 -1.14913E+04 -7.59030E+03  5.62897E+03 -1.13296E+04  1.90839E+04  5.90982E+03
  1.50936E+04  2.26678E+04 -4.98289E+03  2.75687E+04 -2.36391E+04  1.50570E+04 -3.24248E+04 -2.58858E+03
 -2.59359E+04 -1.85843E+04 -1.21118E+04 -2.60193E+04  4.51274E+03 -2.69660E+04  2.10373E+04 -2.41286E+04
  3.35119E+04 -1.47353E+04  3.90310E+04  5.18974E+03  2.77018E+04  2.53006E+04  4.30113E+03  4.22262E+04
 -2.04374E+04  3.45166E+04 -3.12914E+04  1.17488E+04 -2.28768E+04 -9.94562E+03 -5.11865E+03 -1.25312E+04
  1.51997E+02 -8.43055E+02 -8.24538E+03  8.45608E+03 -2.12140E+04  5.08301E+03 -2.10405E+04 -1.02159E+04
 -1.18494E+04 -2.41826E+04  6.25888E+03 -2.85067E+04  1.98763E+04 -2.05894E+04  2.36733E+04 -2.06597E+03
  1.50198E+04  1.65309E+04 -1.61865E+03  2.39726E+04 -1.77981E+04  1.36090E+04 -2.46788E+04 -4.73822E+03
 -1.76841E+04 -2.15159E+04 -2.11689E+03 -2.90047E+04  1.27025E+04 -2.41197E+04  2.41294E+04 -1.23540E+04
  2.26880E+04 -3.70944E+02  1.61853E+04  5.07791E+03  9.72331E+03  1.66986E+03  1.26812E+04 -1.86357E+03
  2.32153E+04  2.87681E+03  2.64951E+04  1.89882E+04  1.83410E+04  3.92423E+04 -2.66243E+03  4.65692E+04
 -2.65333E+04  3.87514E+04 -4.41286E+04  2.03967E+04 -4.71944E+04 -3.40906E+03 -3.77494E+04 -2.74753E+04
 -1.49894E+04 -3.88748E+04  1.39611E+04 -3.40995E+04  2.93287E+04 -1.59670E+04  2.51956E+04  8.49133E+03
  7.97754E+03  1.97720E+04 -1.19690E+04  1.63195E+04 -2.07957E+04  2.47726E+03 -1.60669E+04 -1.33176E+04
 -7.79485E+02 -2.04878E+04  1.08760E+04 -1.48257E+04  1.37679E+04 -1.02192E+03  3.75070E+03  9.06057E+03
 -9.04383E+03  5.02861E+03 -9.61804E+03 -7.00685E+03 -2.24462E+03 -1.89065E+04  1.25921E+04 -2.13267E+04
  2.43290E+04 -1.18957E+04  2.78531E+04  3.45832E+03  2.40798E+04  1.93685E+04  1.13924E+04  3.07110E+04
 -5.93746E+03  3.31598E+04 -2.20200E+04  2.07277E+04 -2.36796E+04  3.97590E+03 -1.58300E+04 -6.73753E+03
 -6.62759E+03 -7.31110E+03 -3.50517E+02  4.37917E+02 -3.13920E+03  3.76001E+03 -7.71563E+03  5.72490E+03
 -1.46971E+04 -7.18589E+02 -1.56024E+04 -1.23417E+04 -6.39550E+03 -1.99953E+04  6.94177E+03 -1.65576E+04
  1.37950E+04 -6.55119E+03  9.47994E+03  4.56975E+03 -4.51688E+02  6.63217E+03 -8.04976E+03  3.14451E+00
 -7.94083E+03 -1.06654E+04 -7.35528E+02 -1.66421E+04  9.66796E+03 -1.74201E+04  2.11918E+04 -8.83125E+03
  2.50618E+04  2.82649E+03  1.80799E+04  1.54501E+04  3.67728E+03  2.07371E+04 -1.02064E+04  1.62517E+04
 -1.33389E+04  4.91947E+03 -7.06456E+03 -3.37753E+03  2.34924E+03 -5.04479E+03  8.33518E+03 -1.15180E+03
  7.99537E+03  7.38203E+03  1.02502E+03  1.35530E+04 -9.74532E+03  1.29435E+04 -1.65268E+04  2.96898E+03
 -1.14669E+04 -8.73999E+03  5.63474E+02 -1.41776E+04  9.66338E+03 -7.06906E+03  1.02436E+04  3.89604E+03
  2.54865E+03  1.07847E+04 -8.39371E+03  1.24881E+04 -1.46129E+04  5.63916E+03 -1.51074E+04 -5.47525E+03
 -8.44069E+03 -1.71532E+04  4.30205E+03 -1.91921E+04  1.61805E+04 -1.12722E+04  1.81862E+04  3.36156E+03
  1.07564E+04  1.42833E+04 -1.99023E+03  1.66581E+04 -1.26650E+04  8.94971E+03 -1.39081E+04 -1.62676E+03
 -1.13006E+04 -1.11043E+04 -1.82255E+03 -1.26331E+04  7.29361E+03 -1.03659E+04  8.07655E+03 -3.65172E+03
  5.23673E+03  1.96959E+03 -1.50020E+03  1.86267E+03 -7.50693E+02 -3.71183E+03  2.95141E+03 -8.23569E+03
  1.25964E+04 -5.69866E+03  1.74814E+04  2.30308E+03  1.71841E+04  1.20809E+04  1.09262E+04  2.21805E+04
 -4.72550E+03  2.59919E+04 -2.15774E+04  1.91847E+04 -2.75429E+04  3.77816E+03 -2.22648E+04 -9.85233E+03
 -1.09163E+04 -1.82840E+04 -1.34311E+02 -1.60551E+04  5.60068E+03 -8.88634E+03  5.46824E+03 -5.35465E+03
  4.42750E+03 -3.33298E+03  4.21128E+03 -4.06054E+03  6.45572E+03 -4.07098E+03  8.65977E+03 -1.94196E+03
  1.16751E+04  2.57629E+03  6.88543E+03  1.02052E+04 -2.05457E+03  1.19525E+04 -1.19579E+04  9.00740E+03
 -1.55988E+04 -1.62819E+03 -1.07055E+04 -1.13255E+04 -1.16078E+03 -1.70284E+04  9.53375E+03 -1.70159E+04
  1.78067E+04 -9.40879E+03  2.10490E+04  2.99910E+03  1.47537E+04  1.48588E+04  2.12323E+03  1.91444E+04
 -7.75027E+03  1.51687E+04 -1.16982E+04  5.28023E+03 -8.01922E+03 -1.85986E+03 -3.54859E+03 -2.13371E+03
 -1.31279E+03 -2.21566E+01 -2.33906E+03  3.27280E+03 -6.89287E+03  2.31755E+03 -1.08896E+04 -1.44331E+03
 -8.33075E+03 -1.09315E+04  6.86267E+01 -1.57434E+04  9.95168E+03 -1.45676E+04  1.61411E+04 -5.19531E+03
  1.57239E+04  7.94691E+03  7.37420E+03  1.45431E+04 -2.74182E+03  1.59164E+04 -1.14665E+04  1.04193E+04
 -1.50376E+04  6.52378E+02 -1.17051E+04 -9.69646E+03 -7.91878E+02 -1.33467E+04  7.30429E+03 -9.93333E+03
  9.59034E+03 -3.07581E+03  6.89099E+03  2.83079E+03  2.75082E+03  4.56508E+03  1.52627E+03  2.35115E+03
  3.43115E+03  1.02785E+03  3.73098E+03  2.20941E+03  4.71622E+03  5.47554E+03  4.32810E+03  8.81790E+03
 -3.10058E+03  1.28709E+04 -1.10213E+04  1.27751E+04 -1.67170E+04  3.43982E+03 -1.72609E+04 -7.11772E+03
 -8.25148E+03 -1.63204E+04  2.47380E+03 -1.80574E+04  1.01040E+04 -1.15674E+04  1.35331E+04 -3.40446E+03
  1.00394E+04  6.11092E+03  2.25306E+03  9.46269E+03 -4.81739E+03  6.56895E+03 -6.74831E+03 -1.04356E+03
 -3.00436E+03 -7.02753E+03  3.80398E+03 -7.52685E+03  6.69522E+03 -3.57927E+03  7.13460E+03  1.12602E+03
  3.91667E+03  3.77695E+03  1.62931E+03  2.48648E+03 -7.26374E+02  2.09076E+03  1.83146E+03 -7.11649E+02
  2.66029E+03 -6.61562E+02  6.50213E+03  2.81351E+03  4.13647E+03  8.97074E+03 -1.34726E+03  1.18785E+04
 -7.86006E+03  7.52582E+03 -1.09114E+04  1.83316E+03 -9.15449E+03 -3.85926E+03 -3.42844E+03 -6.55333E+03
  1.17377E+03 -6.79371E+03  4.68795E+03 -2.88553E+03  3.46323E+03  3.12804E+03 -1.41711E+03  5.43167E+03
 -6.77271E+03  3.32916E+03 -8.07762E+03 -3.99462E+03 -4.62740E+03 -9.24167E+03  1.80536E+03 -9.11158E+03
  5.93603E+03 -5.46642E+03  6.51513E+03 -8.62844E+02  5.48179E+03  2.52389E+03  6.94236E+02  4.77035E+03
 -3.34777E+03  1.56195E+03 -3.80424E+03 -3.30211E+03  1.21803E+03 -6.86086E+03  7.98870E+03 -5.94442E+03
  1.01679E+04  1.20244E+03  9.98353E+03  7.41525E+03  2.93724E+03  1.09471E+04 -4.05065E+03  1.03093E+04
 -9.12723E+03  4.08948E+03 -9.62227E+03 -1.31265E+03 -4.68715E+03 -7.14710E+03  1.71262E+03 -6.91306E+03
  6.86500E+03 -3.02042E+03  5.91838E+03  2.81669E+03  1.78573E+03  6.02223E+03 -1.04105E+03  4.90953E+03
 -3.23229E+03  3.54627E+03 -2.72259E+03  1.31021E+03 -8.59821E+02  1.20609E+03 -1.53084E+03  2.11885E+03
 -2.92213E+03  3.96904E+03 -7.28860E+03  3.99386E+03 -1.11154E+04  5.49836E+02 -1.20596E+04 -6.68061E+03
 -6.30632E+03 -1.38043E+04  3.05089E+03 -1.65006E+04  1.01155E+04 -1.28959E+04  1.61398E+04 -4.94747E+03
  1.45008E+04  3.20830E+03  9.05112E+03  9.78106E+03  5.70668E+02  1.10504E+04 -4.61965E+03  8.68729E+03
 -6.59909E+03  2.89215E+03 -3.86626E+03 -1.13816E+03 -1.30727E+03 -1.28691E+03 -5.90935E+02  5.27054E+01
 -1.74078E+03  1.77739E+02 -2.06125E+03 -3.90654E+02 -1.21550E+03 -2.44927E+03  4.47413E+02 -4.21367E+03
  5.14310E+03 -3.71385E+03  7.13415E+03 -4.22707E+02  8.16133E+03  6.42199E+03  2.25413E+03  1.14943E+04
 -5.44476E+03  1.28574E+04 -1.20203E+04  7.14200E+03 -1.35890E+04 -5.26677E+02 -1.01852E+04 -8.97330E+03
 -4.53391E+03 -1.19795E+04  2.83201E+03 -1.06359E+04  7.24418E+03 -6.12962E+03  7.68584E+03  5.12072E+02
  4.76569E+03  3.34393E+03 -4.27567E+02  3.15982E+03 -1.90556E+03 -2.24127E+02 -2.51722E+02 -2.72836E+03
  3.37349E+03 -1.90533E+03  4.68636E+03  1.69304E+03  2.90311E+03  4.06955E+03 -4.39333E+02  5.86895E+03
 -5.21479E+03  5.24464E+03 -7.75273E+03  5.93615E+02 -6.91784E+03 -5.42727E+03 -1.19908E+03 -9.22633E+03
  5.12932E+03 -7.84760E+03  8.81092E+03 -2.21394E+03  8.64754E+03  2.10833E+03  5.47562E+03  7.10396E+03
  1.02273E+03  7.84245E+03 -2.74803E+03  6.05993E+03 -4.52667E+03  3.27056E+03 -3.96965E+03  7.97900E+02
 -2.14422E+03 -3.53769E+02 -2.29306E+03  1.29487E+03 -3.67168E+03  1.62795E+03 -5.72450E+03 -7.81243E+02
 -5.48747E+03 -3.99160E+03 -1.99667E+03 -7.92380E+03  3.43335E+03 -8.17482E+03  6.72060E+03 -3.88307E+03
  7.66277E+03  9.59810E+02  3.95050E+03  5.43964E+03 -4.53016E+02  7.53531E+03 -5.74111E+03  4.49872E+03
