 $NMID ID='MM_0lb_SNR800_18hz_g45_20.RAW', FMTDAT='(8E13.5)'
 TRAMP=1., VOLUME=1. $END
  3.09865E+05  2.29286E+02  3.36908E+05  2.50307E+05  8.44307E+04  3.37458E+05 -1.32315E+05  2.50251E+05
 -1.89826E+05  8.27161E+04 -1.10874E+05 -3.30261E+04  1.65820E+03 -4.99852E+04  5.37306E+04 -7.50781E+01
  3.50476E+04  5.26732E+04 -1.69407E+04  7.46939E+04 -6.03450E+04  6.28759E+04 -8.31735E+04  3.17064E+04
 -7.98701E+04 -1.07624E+04 -5.64544E+04 -5.04270E+04 -1.49191E+04 -6.82883E+04  2.67218E+04 -4.50095E+04
  3.89357E+04  4.02217E+03  1.56367E+04  4.71681E+04 -3.39330E+04  4.60500E+04 -6.54001E+04 -6.58046E+02
 -5.20400E+04 -5.60223E+04 -6.43387E+03 -7.52446E+04  3.30998E+04 -5.31451E+04  4.65040E+04 -1.64051E+04
  4.15772E+04  1.09461E+04  3.04757E+04  2.45493E+04  1.55434E+04  2.82693E+04 -4.71690E+03  2.67087E+04
 -2.16587E+04  1.29807E+04 -1.91091E+04 -4.48207E+03  4.00832E+03 -7.58409E+03  2.12247E+04  1.11385E+04
  7.56929E+03  3.32876E+04 -3.03772E+04  3.41958E+04 -6.10579E+04  2.45936E+03 -5.55108E+04 -4.12405E+04
 -1.23714E+04 -6.09255E+04  3.81816E+04 -4.35224E+04  5.52504E+04 -1.89735E+03  3.21450E+04  3.09136E+04
 -6.44838E+03  3.31366E+04 -2.85395E+04  1.34573E+04 -2.79014E+04 -5.25205E+03 -1.47138E+04 -9.93510E+03
 -7.45962E+03 -1.12351E+04 -1.20173E+03 -1.66145E+04  6.65366E+03 -2.23630E+04  1.48838E+04 -1.38313E+04
  1.22393E+04  4.42470E+03 -6.45790E+03  1.29293E+04 -1.94782E+04 -2.47441E+03 -8.12088E+03 -3.04560E+04
  2.07761E+04 -4.07423E+04  4.47049E+04 -1.87518E+04  4.19656E+04  1.82447E+04  1.42568E+04  4.18272E+04
 -1.51985E+04  3.11582E+04 -2.36167E+04  1.19249E+03 -8.46857E+03 -2.64929E+04  2.03196E+04 -3.13366E+04
  3.81048E+04 -7.58720E+03  3.17397E+04  2.25900E+04  1.54354E+04  4.28621E+04 -7.86124E+03  4.54333E+04
 -2.86395E+04  3.00325E+04 -3.76878E+04  8.37354E+03 -3.83064E+04 -1.53597E+04 -2.16752E+04 -3.45816E+04
  7.24899E+03 -3.44062E+04  2.94758E+04 -1.28903E+04  2.69052E+04  1.06308E+04  3.09462E+03  1.79157E+04
 -1.32409E+04  7.42619E+03 -9.40903E+03 -7.49927E+03  5.83849E+03 -1.01012E+04  1.72852E+04  6.47138E+03
  1.24223E+04  2.17129E+04 -6.87407E+03  2.35751E+04 -2.16013E+04  9.14404E+03 -2.54039E+04 -6.41431E+03
 -1.69104E+04 -1.64999E+04 -5.56378E+03 -1.69320E+04  3.89803E+03 -1.48438E+04  1.25539E+04 -1.48012E+04
  2.14210E+04 -1.15997E+04  2.83587E+04  1.17396E+03  2.13401E+04  1.66682E+04  4.54941E+03  3.23499E+04
 -1.64745E+04  2.78666E+04 -2.60697E+04  9.39479E+03 -1.95493E+04 -1.03949E+04 -4.01534E+03 -1.39453E+04
  2.40413E+03 -3.89970E+03 -2.30906E+03  5.51634E+03 -1.32380E+04  5.14226E+03 -1.35433E+04 -5.12757E+03
 -8.70164E+03 -1.55817E+04  4.60253E+03 -1.92201E+04  1.26618E+04 -1.41800E+04  1.47705E+04 -1.41061E+03
  9.26475E+03  1.08674E+04 -7.27958E+02  1.59044E+04 -1.04491E+04  9.09621E+03 -1.56720E+04 -3.45494E+03
 -1.18096E+04 -1.43908E+04 -1.64005E+03 -1.89855E+04  8.68788E+03 -1.53790E+04  1.59850E+04 -7.23500E+03
  1.48570E+04  6.85687E+02  1.06687E+04  3.91720E+03  5.21506E+03  6.06928E+02  7.85632E+03 -1.29665E+03
  1.40235E+04  2.65113E+03  1.47963E+04  1.28174E+04  8.98858E+03  2.50712E+04 -3.33702E+03  2.69560E+04
 -1.59623E+04  2.07706E+04 -2.45558E+04  9.87103E+03 -2.55686E+04 -2.02951E+03 -2.17784E+04 -1.44337E+04
 -1.03593E+04 -2.07265E+04  6.41394E+03 -1.96431E+04  1.69865E+04 -1.10373E+04  1.59056E+04  3.61661E+03
  6.47077E+03  1.14048E+04 -7.02285E+03  1.03593E+04 -1.32386E+04  2.49300E+03 -1.02547E+04 -7.95477E+03
 -2.36804E+02 -1.26799E+04  6.33882E+03 -9.52656E+03  7.95538E+03 -1.30763E+03  1.47121E+03  5.24490E+03
 -5.55963E+03  1.42068E+03 -3.98911E+03 -4.53215E+03  5.97398E+02 -1.02059E+04  7.81087E+03 -1.04940E+04
  1.21157E+04 -4.98785E+03  1.24018E+04  2.88168E+03  1.05700E+04  9.62080E+03  5.07825E+03  1.43674E+04
 -1.76804E+03  1.62197E+04 -9.84057E+03  1.03900E+04 -1.13007E+04  3.02864E+03 -8.45212E+03 -2.28138E+03
 -4.35086E+03 -3.39308E+03 -8.18777E+02  1.63255E+03 -2.08209E+03  2.04145E+03 -3.74183E+03  3.52320E+03
 -8.21847E+03 -4.42623E+02 -8.91786E+03 -7.21816E+03 -3.85148E+03 -1.16347E+04  3.31944E+03 -8.96608E+03
  7.12757E+03 -4.00910E+03  5.11674E+03  1.95702E+03  8.93443E+02  2.83957E+03 -3.38311E+03  9.61379E+01
 -3.41246E+03 -5.40348E+03 -7.47158E+02 -7.49403E+03  4.15976E+03 -8.39959E+03  1.02040E+04 -4.09607E+03
  1.19416E+04  7.19462E+02  9.04492E+03  6.29766E+03  1.51810E+03  9.02508E+03 -5.50684E+03  8.43755E+03
 -6.87782E+03  2.77644E+03 -3.49321E+03 -1.32713E+03  1.36209E+03 -2.03340E+03  4.69998E+03 -8.15516E+02
  4.03395E+03  3.61106E+03  1.16655E+03  6.39057E+03 -4.44699E+03  6.69550E+03 -7.79547E+03  1.69864E+03
 -4.97925E+03 -3.96449E+03  4.81452E+02 -6.71598E+03  3.64003E+03 -3.29854E+03  3.94862E+03  8.71118E+02
  5.29159E+02  3.21244E+03 -3.99353E+03  4.73275E+03 -4.69717E+03  2.62236E+03 -4.62235E+03 -1.16782E+03
 -3.07866E+03 -6.42739E+03  1.21695E+03 -7.27022E+03  6.11676E+03 -4.83300E+03  6.86279E+03  9.53180E+02
  4.72205E+03  5.41513E+03  1.99856E+02  7.47001E+03 -5.49589E+03  4.17075E+03 -5.55436E+03 -3.18749E+02
 -5.88754E+03 -5.04356E+03 -1.29303E+03 -5.39121E+03  2.58716E+03 -4.76681E+03  2.79426E+03 -3.07202E+03
  2.53092E+03  2.02711E+02 -1.04019E+01  1.48599E+03  5.27871E+02 -3.22239E+02  2.55370E+02 -1.94283E+03
  3.99825E+03 -5.17510E+02  5.51911E+03  6.93219E+02  5.86631E+03  3.40681E+03  5.32882E+03  7.42833E+03
 -1.53958E+03  8.60224E+03 -7.74127E+03  6.91138E+03 -1.03601E+04  1.30974E+03 -7.98827E+03 -2.53880E+03
 -4.35016E+03 -6.88055E+03 -3.75963E+02 -5.10290E+03  2.18117E+03 -2.26446E+03  2.01270E+03 -2.19762E+03
  1.45724E+03 -1.78459E+03  2.35341E+03 -2.41801E+03  3.51694E+03 -1.13949E+03  3.52040E+03  4.70674E+02
  4.60146E+03  1.24803E+03  1.27199E+03  3.50902E+03 -1.40943E+03  2.63572E+03 -4.71125E+03  2.84761E+03
 -4.99469E+03 -1.34442E+03 -1.77643E+03 -3.53371E+03  3.59180E+02 -5.18479E+03  3.38419E+03 -5.36844E+03
  5.40794E+03 -3.41734E+03  7.01025E+03  3.51530E+02  5.00581E+03  4.44545E+03  1.10407E+03  6.13324E+03
 -2.25459E+03  6.11764E+03 -3.63360E+03  1.63911E+03 -2.29946E+03 -9.46892E+02 -8.17821E+02 -6.95278E+02
 -7.59262E+02  3.49838E+02 -9.74098E+02  2.05940E+03 -2.52728E+03  1.21721E+03 -3.91242E+03 -2.62848E+02
 -1.65033E+03 -4.25981E+03  7.51661E+02 -4.78650E+03  2.77212E+03 -4.86053E+03  3.98342E+03 -1.38454E+03
  4.47978E+03  2.33809E+03  1.97864E+03  3.63040E+03 -8.39767E+02  4.46771E+03 -2.72894E+03  2.84518E+03
 -3.73434E+03  3.27248E+02 -3.71359E+03 -2.49047E+03 -1.66453E+02 -3.15134E+03  2.03847E+03 -2.61679E+03
  2.94384E+03 -1.39309E+03  1.88437E+03  5.32802E+02  3.93246E+02  1.45824E+03  8.44508E+02  8.27987E+02
  1.87171E+03  5.27445E+02  1.14423E+03  1.08438E+03  1.32655E+03  2.47451E+03  1.50026E+03  2.03538E+03
 -1.25627E+03  3.12373E+03 -2.58046E+03  4.20634E+03 -3.16905E+03  1.17501E+03 -4.29476E+03 -5.92936E+02
 -2.00472E+03 -4.03526E+03  5.64735E+02 -5.01446E+03  1.81518E+03 -2.74980E+03  3.52790E+03 -1.02382E+03
  2.73847E+03  1.89541E+03  5.24833E+02  2.37118E+03 -9.52408E+02  1.22819E+03 -1.03642E+03 -1.34434E+01
 -5.07883E+02 -1.61006E+03  1.39374E+03 -1.61963E+03  1.51349E+03 -1.04646E+03  1.23332E+03  4.50036E+02
  7.16114E+02  5.38339E+02  7.62360E+02 -1.27946E+02 -5.30384E+02  4.64255E+02  1.57383E+03 -4.28539E+02
  9.38359E+01 -2.44777E+02  2.01149E+03  5.10023E+02  4.53796E+02  2.22423E+03 -6.82690E+02  2.77055E+03
 -1.89284E+03  1.12967E+03 -1.92806E+03  1.14747E+02 -2.17514E+03 -6.44779E+02 -2.87614E+02 -9.49988E+02
  3.19419E+02 -1.44707E+03  9.35201E+02 -8.78199E+02  6.45352E+02  1.00761E+03 -6.66587E+02  1.06571E+03
 -1.52705E+03  7.77233E+02 -1.26775E+03 -1.28945E+03 -8.22516E+02 -2.34982E+03  7.05705E+01 -1.34343E+03
  9.94225E+02 -5.69656E+02  5.64384E+02  1.88748E+02  1.29402E+03  3.16590E+01  2.53527E+02  1.09756E+03
 -2.78138E+02  2.17064E+02 -6.81292E+02 -3.43869E+02  7.44618E+02 -1.01400E+03  1.75553E+03 -1.15950E+03
  1.31982E+03  3.04215E+02  3.12966E+03  8.07190E+02  1.35040E+03  1.59703E+03 -4.60381E+02  2.05124E+03
 -1.53993E+03 -7.52681E+01 -1.52118E+03 -1.38282E+02 -1.00206E+03 -1.61338E+03  2.05137E+02 -8.82999E+02
  1.43065E+03 -4.41956E+02  7.14100E+02  9.39650E+02  3.40769E+02  1.04273E+03  2.43536E+02  1.06828E+03
 -3.12987E+02  1.02428E+03 -6.89952E+02  5.27323E+02  2.62564E+02  3.55177E+02 -1.06313E+03  5.28974E+02
 -4.72361E+02  9.33379E+02 -1.77298E+03  6.24995E+02 -1.64151E+03  1.33286E+01 -2.73369E+03 -9.67379E+02
 -1.10791E+03 -2.41609E+03  5.18661E+02 -2.92060E+03  1.23478E+03 -2.71620E+03  3.00059E+03 -1.00681E+03
  2.77729E+03 -3.81175E+02  1.20204E+03  1.58822E+03 -4.21604E+02  1.78015E+03 -8.40972E+02  1.62900E+03
 -1.27741E+03  6.85347E+02 -5.35988E+02 -4.86177E+02 -3.44862E+02  2.17403E+02 -8.35694E+02 -1.61968E+02
 -1.18866E+03 -1.29210E+02 -8.31885E+02  2.54477E+01  4.15830E+02 -4.90891E+02 -6.35695E+02 -7.21179E+02
  1.28130E+03 -6.43001E+02  4.99545E+02  1.32909E+02  1.12052E+03  9.07429E+02 -3.12714E+02  1.88968E+03
 -1.10889E+03  2.17017E+03 -1.85971E+03  1.29654E+03 -1.71618E+03 -5.20086E+01 -1.57350E+03 -1.62740E+03
 -9.06754E+02 -1.60544E+03  5.45119E+02 -1.24208E+03  6.84247E+02 -9.41644E+02  7.19335E+02 -2.53560E+02
  6.10759E+02  2.15461E+02  1.93437E+02  2.88155E+02 -2.64733E+02 -2.38759E+02 -1.02887E+02 -2.09229E+02
  4.77670E+02 -1.13566E+02  3.10491E+02  6.32809E+02  3.02491E+02  3.24978E+02  6.00757E+01  2.05332E+02
 -4.80368E+02  9.48731E+02 -7.25470E+02  2.26696E+02 -8.48179E+02 -4.70859E+02  2.79551E+02 -1.14904E+03
  7.64298E+02 -1.20128E+03  6.33861E+02 -2.97458E+02  1.21612E+03 -4.87785E+02  7.85600E+02  7.48083E+02
  6.24564E+02  7.83700E+02 -2.67341E+02  6.53077E+02 -8.41961E+02  6.45744E+02 -4.49618E+02  2.24676E+02
 -4.74842E+01  2.63967E+02 -7.96545E+02  1.78993E+02 -5.17793E+02  4.69785E+02 -9.48419E+02 -3.37092E+02
 -1.20474E+03 -6.01939E+01 -2.85975E+02 -1.04354E+03  6.65647E+02 -1.60386E+03  7.15412E+02 -4.91764E+02
  7.92273E+02  3.18382E+02 -2.36464E+02  5.03519E+02 -5.29052E+01  1.21861E+03 -2.19108E+02  6.56651E+02
