 $NMID ID='MM_0lb_SNR800_20hz_g50_55.RAW', FMTDAT='(8E13.5)'
 TRAMP=1., VOLUME=1. $END
  3.09628E+05  3.95082E+02  3.37332E+05  2.50197E+05  8.41130E+04  3.37140E+05 -1.32589E+05  2.50001E+05
 -1.89647E+05  8.21257E+04 -1.10746E+05 -3.31052E+04  1.56536E+03 -5.03792E+04  5.39449E+04  3.20323E+02
  3.49161E+04  5.29563E+04 -1.69681E+04  7.50717E+04 -6.00870E+04  6.27580E+04 -8.27842E+04  3.16560E+04
 -7.96060E+04 -1.06667E+04 -5.62041E+04 -5.00634E+04 -1.48439E+04 -6.80171E+04  2.67460E+04 -4.45799E+04
  3.90237E+04  3.90126E+03  1.55745E+04  4.66944E+04 -3.39740E+04  4.62887E+04 -6.51203E+04 -5.05308E+02
 -5.17918E+04 -5.58898E+04 -6.36003E+03 -7.47830E+04  3.28346E+04 -5.27613E+04  4.62489E+04 -1.58584E+04
  4.16720E+04  1.10631E+04  3.07551E+04  2.41033E+04  1.57795E+04  2.83680E+04 -4.68005E+03  2.67157E+04
 -2.16622E+04  1.29251E+04 -1.90038E+04 -4.25464E+03  4.17404E+03 -7.85905E+03  2.10289E+04  1.08452E+04
  7.84111E+03  3.30614E+04 -3.02930E+04  3.36273E+04 -6.08128E+04  2.08208E+03 -5.52292E+04 -4.10193E+04
 -1.26632E+04 -6.05490E+04  3.76951E+04 -4.30076E+04  5.50854E+04 -1.98791E+03  3.16819E+04  3.03919E+04
 -6.55349E+03  3.27161E+04 -2.82110E+04  1.30982E+04 -2.70759E+04 -5.33324E+03 -1.41167E+04 -9.87150E+03
 -7.44653E+03 -1.07597E+04 -1.21896E+03 -1.59989E+04  6.36058E+03 -2.24873E+04  1.47595E+04 -1.38193E+04
  1.22335E+04  4.11941E+03 -5.77588E+03  1.31496E+04 -1.89488E+04 -2.22500E+03 -7.97479E+03 -2.99058E+04
  2.01324E+04 -3.99426E+04  4.40335E+04 -1.84409E+04  4.14595E+04  1.79970E+04  1.43181E+04  4.12125E+04
 -1.51804E+04  3.07571E+04 -2.29035E+04  9.38124E+02 -8.00661E+03 -2.62775E+04  2.03842E+04 -3.07195E+04
  3.77970E+04 -6.94205E+03  3.07232E+04  2.25591E+04  1.48715E+04  4.18578E+04 -7.65391E+03  4.41486E+04
 -2.80771E+04  2.91943E+04 -3.66929E+04  8.11538E+03 -3.75329E+04 -1.45176E+04 -2.07270E+04 -3.36635E+04
  6.77008E+03 -3.35603E+04  2.88946E+04 -1.22096E+04  2.65550E+04  1.04619E+04  2.93266E+03  1.76670E+04
 -1.30529E+04  6.84770E+03 -9.77767E+03 -7.53511E+03  5.95831E+03 -9.95772E+03  1.69599E+04  6.44007E+03
  1.23481E+04  2.13248E+04 -6.71366E+03  2.29702E+04 -2.16185E+04  8.64555E+03 -2.46548E+04 -6.55900E+03
 -1.57118E+04 -1.62231E+04 -4.95912E+03 -1.60790E+04  3.65743E+03 -1.37062E+04  1.17626E+04 -1.36285E+04
  2.04334E+04 -1.14224E+04  2.75150E+04  6.88114E+02  2.10076E+04  1.57339E+04  4.11384E+03  3.14559E+04
 -1.54891E+04  2.69057E+04 -2.54581E+04  9.13741E+03 -1.91094E+04 -1.05332E+04 -3.90532E+03 -1.40607E+04
  2.55864E+03 -4.27229E+03 -2.33801E+03  5.05009E+03 -1.25625E+04  5.08597E+03 -1.29361E+04 -4.50424E+03
 -8.52056E+03 -1.45441E+04  4.41092E+03 -1.85433E+04  1.19647E+04 -1.36491E+04  1.40920E+04 -1.49847E+03
  8.37497E+03  1.03376E+04 -8.79575E+02  1.49439E+04 -9.83644E+03  8.44384E+03 -1.46377E+04 -3.42469E+03
 -1.09569E+04 -1.36360E+04 -1.41272E+03 -1.83353E+04  8.18766E+03 -1.44643E+04  1.56101E+04 -7.00145E+03
  1.37732E+04  8.09237E+02  9.82439E+03  3.73406E+03  4.98957E+03  4.45718E+02  7.00278E+03 -1.28349E+03
  1.34463E+04  2.81924E+03  1.37632E+04  1.21698E+04  8.35675E+03  2.35640E+04 -3.25782E+03  2.50697E+04
 -1.49228E+04  1.89017E+04 -2.27229E+04  8.98960E+03 -2.31467E+04 -1.81494E+03 -1.98862E+04 -1.30474E+04
 -9.79826E+03 -1.91027E+04  6.30530E+03 -1.80550E+04  1.53422E+04 -1.05300E+04  1.49364E+04  3.10458E+03
  6.39548E+03  1.04644E+04 -6.61935E+03  1.01448E+04 -1.28640E+04  2.71419E+03 -9.99529E+03 -7.66943E+03
  1.28292E+02 -1.20245E+04  5.92371E+03 -8.97540E+03  7.31755E+03 -1.46348E+03  1.31229E+03  4.54381E+03
 -5.22966E+03  1.12776E+03 -2.90101E+03 -4.49641E+03  9.20305E+02 -9.55522E+03  7.60935E+03 -9.13232E+03
  1.14345E+04 -4.23129E+03  1.06586E+04  2.89817E+03  9.05155E+03  8.59270E+03  4.72346E+03  1.29270E+04
 -1.19549E+03  1.43269E+04 -8.77594E+03  9.39845E+03 -1.02751E+04  2.88367E+03 -7.62091E+03 -1.62633E+03
 -4.59534E+03 -2.95775E+03 -7.04396E+02  1.32941E+03 -1.74095E+03  1.85498E+03 -3.33253E+03  3.49618E+03
 -7.74513E+03 -7.38557E+02 -8.26164E+03 -6.95648E+03 -3.20610E+03 -1.06986E+04  3.30242E+03 -7.76365E+03
  6.45345E+03 -3.48251E+03  5.11632E+03  1.87327E+03  7.52088E+02  2.54022E+03 -3.06037E+03 -1.50707E+02
 -2.84760E+03 -4.60944E+03 -8.93269E+02 -6.68934E+03  3.36153E+03 -7.18008E+03  9.00180E+03 -3.50566E+03
  1.05908E+04  4.05717E+02  8.02303E+03  5.50299E+03  1.53603E+03  7.78034E+03 -4.84131E+03  7.97055E+03
 -6.49341E+03  2.72957E+03 -3.28253E+03 -9.48390E+02  1.07953E+03 -1.80733E+03  4.52916E+03 -1.06615E+03
  3.77461E+03  3.16576E+03  9.62779E+02  5.68652E+03 -3.95920E+03  5.77105E+03 -7.08963E+03  1.81935E+03
 -4.51928E+03 -3.31301E+03  3.67825E+02 -5.95728E+03  3.13230E+03 -2.98039E+03  3.14334E+03  1.01468E+03
  3.19178E+02  2.64678E+03 -3.55938E+03  4.11426E+03 -3.97900E+03  2.20080E+03 -3.32157E+03 -6.89456E+02
 -2.39495E+03 -5.00780E+03  8.07768E+02 -6.05058E+03  5.07374E+03 -4.23577E+03  5.59358E+03  6.88664E+02
  4.15447E+03  4.68546E+03  1.81391E+02  6.16891E+03 -4.47410E+03  3.73941E+03 -4.71895E+03 -4.35325E+01
 -5.39083E+03 -4.65747E+03 -1.29044E+03 -4.35988E+03  2.05830E+03 -3.80354E+03  2.31397E+03 -2.78205E+03
  2.86682E+03  3.93465E+01  2.20670E+02  1.26777E+03  6.28414E+02  1.29511E+02  9.01188E+01 -1.21478E+03
  3.17692E+03 -2.08416E+02  4.11627E+03  5.00480E+02  4.56955E+03  2.32696E+03  5.10670E+03  6.01999E+03
 -1.37956E+03  6.94388E+03 -6.65686E+03  5.68615E+03 -8.61589E+03  9.60317E+02 -6.61784E+03 -2.01578E+03
 -3.50153E+03 -5.47885E+03 -3.40676E+02 -4.34450E+03  2.08108E+03 -1.54953E+03  1.41762E+03 -1.80081E+03
  1.26230E+03 -1.34551E+03  2.03769E+03 -2.19746E+03  3.22834E+03 -1.28746E+03  3.44598E+03  6.11403E+02
  3.91077E+03  9.25475E+02  5.73307E+02  2.97068E+03 -1.28294E+03  2.19397E+03 -3.98373E+03  2.28755E+03
 -4.14173E+03 -1.04861E+03 -1.23357E+03 -2.71833E+03  7.70946E+02 -4.00975E+03  2.69476E+03 -4.32417E+03
  4.02404E+03 -2.87780E+03  5.93181E+03  1.04177E+02  4.47692E+03  3.37313E+03  1.06359E+03  4.84746E+03
 -1.86602E+03  5.13676E+03 -2.82031E+03  1.70151E+03 -1.39207E+03 -9.90113E+02  1.91949E+01 -2.89383E+02
 -3.62695E+02  5.73810E+02 -7.95437E+02  2.02442E+03 -2.13557E+03  1.05097E+03 -3.68550E+03 -4.13333E+02
 -1.26205E+03 -3.39876E+03  7.57647E+02 -4.03125E+03  2.32086E+03 -3.56510E+03  2.65912E+03 -8.72276E+02
  3.15934E+03  2.00287E+03  1.76761E+03  2.46271E+03 -3.00594E+02  3.68424E+03 -1.84912E+03  2.05044E+03
 -2.89351E+03  7.06819E+02 -2.68043E+03 -1.69006E+03 -3.86143E+01 -2.46520E+03  1.36709E+03 -2.11759E+03
  2.10599E+03 -1.07671E+03  1.47637E+03  1.64095E+02  3.83045E+02  1.55036E+03  6.23616E+02  4.22847E+02
  1.32242E+03  2.00668E+02  1.23715E+03  7.70216E+02  1.11045E+03  1.97177E+03  1.29974E+03  1.21675E+03
 -1.16580E+03  2.31626E+03 -1.99291E+03  3.56428E+03 -1.95072E+03  1.14829E+03 -3.25401E+03  6.35671E+01
 -1.19813E+03 -2.98142E+03  7.18091E+02 -4.13730E+03  1.53293E+03 -2.00848E+03  2.23606E+03 -6.70168E+02
  2.12126E+03  1.32468E+03  3.45641E+01  1.77487E+03 -4.16252E+02  1.14071E+03 -7.98796E+02  5.97153E+01
 -3.17656E+02 -1.09735E+03  9.39392E+02 -1.29384E+03  8.82885E+02 -1.02912E+03  9.90369E+02  3.22248E+02
  5.91503E+02  9.10272E+01  7.63745E+02 -3.76031E+02 -2.22346E+02  4.35137E+02  1.71539E+03 -3.77459E+02
  5.60125E+01 -6.85763E+01  1.59755E+03  6.55463E+02 -1.50149E+02  2.17935E+03 -2.16837E+02  2.34468E+03
 -1.22274E+03  7.55327E+02 -1.26421E+03  2.16863E+02 -1.53592E+03 -4.19853E+02  1.36896E+02 -5.56493E+02
  4.59844E+02 -9.02945E+02  3.33854E+02 -5.68687E+02  3.20962E+02  9.85125E+02 -7.58037E+02  9.39894E+02
 -1.07862E+03  7.04457E+02 -8.70175E+02 -1.16008E+03 -5.49226E+02 -1.85857E+03 -3.62660E+01 -1.23359E+03
  7.91963E+01 -2.93251E+02  3.15006E+02  2.22775E+02  9.23677E+02 -3.59672E+01  3.18212E+02  8.37766E+02
 -8.90124E+01  2.89229E+02 -7.97090E+02 -7.46563E+01  6.06746E+02 -4.02915E+02  1.38634E+03 -7.09983E+02
  7.42815E+02  2.50135E+02  2.40648E+03  4.35716E+02  9.60130E+02  8.66170E+02 -8.97517E+01  1.26264E+03
 -9.47373E+02 -1.62855E+02 -1.17916E+03 -2.05275E+02 -6.47920E+02 -1.10170E+03  3.64584E+02 -1.22073E+02
  1.04457E+03 -4.29864E+02  5.89248E+02  2.58820E+02  4.40786E+01  1.00011E+03  4.93300E+02  8.85315E+02
 -4.19470E+02  9.57045E+02 -3.36046E+02  2.63580E+02  5.06710E+01  3.12196E+02 -6.96915E+02  3.85380E+02
 -4.81752E+02  7.17124E+02 -1.58612E+03  2.02001E+02 -1.13852E+03  1.37301E+02 -1.90809E+03 -6.63711E+02
 -7.49175E+02 -1.48030E+03  3.49964E+02 -2.09531E+03  4.21759E+02 -1.76260E+03  1.98250E+03 -6.28376E+02
  1.75156E+03 -4.07756E+01  9.19199E+02  9.62274E+02 -4.14542E+02  7.90270E+02 -2.29069E+02  9.12818E+02
 -8.13144E+02  6.71138E+02 -5.04651E+02 -2.52819E+02 -3.31804E+02  4.39939E+01 -6.53167E+02  2.01494E+02
 -1.14465E+03 -2.29761E+02 -4.57923E+02  1.69438E+02  5.92381E+02 -6.26277E+02 -1.40688E+02 -8.71624E+02
  8.32817E+02 -5.95011E+02  4.83890E+02  2.40355E+02  9.36422E+02  7.29892E+02 -7.06388E+02  8.05761E+02
 -7.05175E+02  1.65790E+03 -1.11179E+03  1.21950E+03 -1.19001E+03  1.27275E+02 -6.55037E+02 -8.43211E+02
 -7.43214E+02 -7.44870E+02  1.95062E+02 -5.69706E+02  4.34987E+02 -2.42899E+02  2.13926E+02  5.87832E+01
  3.48449E+02  3.00741E+02  3.54350E+01  2.72562E+02  1.71723E+02  1.68868E+02 -2.62967E+01 -2.77744E+02
  3.98321E+02  2.98504E+02 -1.79633E+02  2.54079E+02 -1.97270E+02  4.70726E+02  7.37879E+02 -3.33387E+01
 -3.68411E+02  3.29062E+01 -3.02681E+02  2.97554E+02 -4.29018E+02 -8.30456E+01  2.91889E+02 -9.23786E+02
  4.72280E+02 -1.38009E+02  1.78288E+02  1.21279E+02  5.02687E+02 -7.74704E+02 -2.22273E+01  4.65053E+02
  5.86267E+02  3.01305E+02 -4.06382E+01  6.28176E+01 -2.77339E+02  6.12402E+02 -2.95259E+02  8.24177E+00
 -2.87462E+01  1.29159E+01 -1.99331E+02 -1.09392E+02 -4.02849E+02  1.73480E+02 -6.11900E+02 -2.11916E+02
 -7.58381E+02  4.64063E+02 -4.25956E+02 -6.72915E+02  6.70471E+02 -1.53014E+03  5.31907E+02  5.16857E+01
  2.29595E+02 -2.21313E+02 -4.57314E+02  9.88876E+01  6.25311E+01  4.63538E+02 -2.28884E+02  4.84658E+02
