 $NMID ID='MM_0lb_SNR800_19hz_g55_93.RAW', FMTDAT='(8E13.5)'
 TRAMP=1., VOLUME=1. $END
  3.10032E+05  2.32335E+02  3.37503E+05  2.50342E+05  8.44207E+04  3.37700E+05 -1.32472E+05  2.50225E+05
 -1.89967E+05  8.27519E+04 -1.11442E+05 -3.26386E+04  1.37424E+03 -5.04830E+04  5.40190E+04 -1.04955E+02
  3.52500E+04  5.27479E+04 -1.69146E+04  7.49596E+04 -6.02413E+04  6.29955E+04 -8.34283E+04  3.18024E+04
 -8.01095E+04 -1.12843E+04 -5.66225E+04 -5.05075E+04 -1.51851E+04 -6.89470E+04  2.69262E+04 -4.50467E+04
  3.94016E+04  3.83658E+03  1.56928E+04  4.71644E+04 -3.39101E+04  4.65819E+04 -6.56197E+04 -6.10037E+02
 -5.25908E+04 -5.63671E+04 -6.44041E+03 -7.55324E+04  3.31446E+04 -5.35583E+04  4.68955E+04 -1.65869E+04
  4.20043E+04  1.10987E+04  3.11034E+04  2.44928E+04  1.59449E+04  2.84697E+04 -4.65079E+03  2.69598E+04
 -2.17644E+04  1.28223E+04 -1.89586E+04 -4.32881E+03  4.68375E+03 -7.51462E+03  2.15001E+04  1.13094E+04
  7.56160E+03  3.37443E+04 -3.07417E+04  3.43363E+04 -6.15811E+04  2.40046E+03 -5.60510E+04 -4.13611E+04
 -1.24219E+04 -6.16566E+04  3.83830E+04 -4.40231E+04  5.60841E+04 -1.98103E+03  3.23430E+04  3.08235E+04
 -6.56252E+03  3.37103E+04 -2.88698E+04  1.39714E+04 -2.82807E+04 -5.04697E+03 -1.48237E+04 -1.03305E+04
 -7.57389E+03 -1.19046E+04 -8.11756E+02 -1.69966E+04  6.65724E+03 -2.26518E+04  1.51695E+04 -1.36092E+04
  1.20762E+04  4.47912E+03 -6.61481E+03  1.27064E+04 -1.98612E+04 -3.05798E+03 -8.09030E+03 -3.13081E+04
  2.12525E+04 -4.10317E+04  4.53453E+04 -1.88698E+04  4.28521E+04  1.84807E+04  1.47106E+04  4.22591E+04
 -1.54320E+04  3.15332E+04 -2.35436E+04  1.45621E+03 -8.57725E+03 -2.65873E+04  2.04858E+04 -3.18062E+04
  3.87857E+04 -7.58936E+03  3.25402E+04  2.27549E+04  1.58647E+04  4.35031E+04 -7.77455E+03  4.64448E+04
 -2.91971E+04  3.05448E+04 -3.82309E+04  8.24475E+03 -3.92251E+04 -1.55936E+04 -2.14645E+04 -3.53699E+04
  7.11925E+03 -3.46870E+04  2.96384E+04 -1.32351E+04  2.71816E+04  1.06406E+04  3.22797E+03  1.78225E+04
 -1.31343E+04  7.43508E+03 -9.53914E+03 -7.53691E+03  6.09576E+03 -1.01352E+04  1.73731E+04  6.27808E+03
  1.25110E+04  2.16643E+04 -6.50437E+03  2.35057E+04 -2.13086E+04  9.51010E+03 -2.56081E+04 -5.90379E+03
 -1.74429E+04 -1.62008E+04 -5.92432E+03 -1.73520E+04  3.87383E+03 -1.56793E+04  1.30375E+04 -1.52500E+04
  2.22388E+04 -1.17407E+04  2.86634E+04  1.54695E+03  2.16604E+04  1.71848E+04  4.13576E+03  3.29656E+04
 -1.62848E+04  2.79759E+04 -2.61295E+04  9.74078E+03 -1.99548E+04 -1.02236E+04 -4.01250E+03 -1.36764E+04
  2.51985E+03 -3.93818E+03 -3.05543E+03  5.64448E+03 -1.33112E+04  5.25956E+03 -1.35480E+04 -5.16127E+03
 -9.02223E+03 -1.60616E+04  4.26987E+03 -1.96787E+04  1.30358E+04 -1.41234E+04  1.49365E+04 -1.53841E+03
  9.13273E+03  1.12865E+04 -9.77910E+02  1.61855E+04 -1.07816E+04  8.96315E+03 -1.58726E+04 -3.45431E+03
 -1.17733E+04 -1.45512E+04 -1.47711E+03 -1.95572E+04  8.84104E+03 -1.57463E+04  1.67270E+04 -7.44792E+03
  1.48260E+04  1.12699E+03  1.10757E+04  3.96650E+03  5.32456E+03  8.11093E+02  7.82471E+03 -1.24328E+03
  1.42108E+04  2.29026E+03  1.50738E+04  1.32001E+04  9.48576E+03  2.54573E+04 -2.93428E+03  2.75113E+04
 -1.62604E+04  2.11485E+04 -2.51519E+04  1.01719E+04 -2.57576E+04 -1.68774E+03 -2.21224E+04 -1.46477E+04
 -9.97873E+03 -2.13292E+04  7.03234E+03 -1.94670E+04  1.70194E+04 -1.07087E+04  1.60065E+04  3.88971E+03
  6.46655E+03  1.14375E+04 -7.27760E+03  1.07470E+04 -1.38024E+04  2.52248E+03 -1.03849E+04 -8.09992E+03
 -1.70692E+02 -1.26943E+04  6.44569E+03 -9.77981E+03  8.17397E+03 -1.56097E+03  1.32313E+03  5.21120E+03
 -5.65971E+03  1.47373E+03 -3.93866E+03 -4.73303E+03  5.78132E+02 -1.05161E+04  7.99971E+03 -1.03581E+04
  1.26071E+04 -5.05652E+03  1.22645E+04  2.84053E+03  1.04339E+04  9.95217E+03  5.27158E+03  1.44867E+04
 -1.59568E+03  1.63141E+04 -9.84313E+03  1.03676E+04 -1.15089E+04  3.20054E+03 -8.74452E+03 -1.88645E+03
 -4.81425E+03 -3.49518E+03 -9.14538E+02  1.43844E+03 -1.89084E+03  2.09924E+03 -3.60238E+03  3.23382E+03
 -7.99158E+03 -5.09403E+02 -8.62092E+03 -7.30473E+03 -3.46583E+03 -1.18384E+04  3.83203E+03 -8.60248E+03
  7.40233E+03 -3.63189E+03  5.10638E+03  2.16668E+03  7.17207E+02  3.07934E+03 -3.37582E+03  8.69895E+01
 -3.34982E+03 -5.49263E+03 -1.02185E+03 -7.59419E+03  3.91983E+03 -7.91012E+03  9.97125E+03 -3.85217E+03
  1.20314E+04  4.71755E+02  8.78846E+03  6.34555E+03  1.73681E+03  8.78341E+03 -5.23697E+03  8.35584E+03
 -6.95147E+03  2.81435E+03 -3.65483E+03 -1.28357E+03  1.27746E+03 -1.92246E+03  4.85058E+03 -9.02630E+02
  4.18960E+03  3.29469E+03  1.08475E+03  6.14935E+03 -4.37241E+03  6.72323E+03 -7.78922E+03  1.52667E+03
 -4.91074E+03 -3.64117E+03  3.15210E+02 -6.55645E+03  3.39370E+03 -3.33532E+03  3.63950E+03  9.72067E+02
  6.66226E+02  3.15867E+03 -4.07308E+03  4.90449E+03 -5.09217E+03  2.33988E+03 -4.55914E+03 -1.04419E+03
 -2.96092E+03 -6.18257E+03  1.43082E+03 -7.20106E+03  5.97562E+03 -4.56786E+03  6.25176E+03  1.07489E+03
  4.25192E+03  5.07694E+03  3.18607E+01  7.44104E+03 -4.97143E+03  4.37231E+03 -4.88773E+03 -2.59240E+02
 -5.63781E+03 -5.01918E+03 -1.38051E+03 -5.04770E+03  2.91891E+03 -4.64430E+03  2.86412E+03 -2.84976E+03
  2.79327E+03  1.37181E+02  7.77991E+01  1.31289E+03  4.91096E+02 -1.52311E+02  2.98001E+02 -1.99386E+03
  3.95272E+03 -8.85058E+02  5.47966E+03  5.90429E+02  5.52372E+03  2.88540E+03  5.44980E+03  7.08508E+03
 -1.23694E+03  8.32739E+03 -7.56980E+03  6.87370E+03 -9.92691E+03  1.43007E+03 -7.63601E+03 -2.26485E+03
 -4.09059E+03 -6.25041E+03 -3.56426E+02 -5.03801E+03  2.02642E+03 -2.06232E+03  1.70346E+03 -2.33198E+03
  1.34899E+03 -1.44201E+03  2.10344E+03 -2.36182E+03  3.49782E+03 -1.41621E+03  3.56947E+03  5.58888E+02
  4.41434E+03  1.14216E+03  1.20925E+03  3.44666E+03 -1.76776E+03  3.00996E+03 -4.17142E+03  2.49071E+03
 -4.88083E+03 -1.19010E+03 -1.68807E+03 -3.06905E+03  3.08235E+01 -4.94581E+03  3.25889E+03 -5.10018E+03
  5.07831E+03 -3.23975E+03  6.72038E+03  2.27774E+02  4.47941E+03  4.10957E+03  1.04293E+03  5.85490E+03
 -1.97359E+03  5.58353E+03 -3.27360E+03  1.84976E+03 -1.88675E+03 -1.16783E+03 -5.40465E+02 -3.76127E+02
 -4.75063E+02  6.99320E+02 -9.26865E+02  1.95503E+03 -2.48515E+03  9.85224E+02 -3.93047E+03 -3.52327E+02
 -1.40291E+03 -3.86634E+03  7.82724E+02 -4.52723E+03  2.54307E+03 -4.03621E+03  3.37395E+03 -9.45717E+02
  3.70976E+03  2.14849E+03  1.87957E+03  3.13829E+03 -1.00169E+03  4.36288E+03 -2.63526E+03  2.48600E+03
 -3.77028E+03  5.42472E+02 -3.29141E+03 -2.45453E+03 -8.59809E+01 -3.00003E+03  1.75123E+03 -2.41283E+03
  2.39775E+03 -1.44369E+03  1.39800E+03  4.83880E+02  7.13944E+02  1.68203E+03  7.52555E+02  5.16914E+02
  1.40951E+03  6.88725E+02  7.68660E+02  1.21922E+03  8.48305E+02  2.28447E+03  1.32572E+03  1.71086E+03
 -1.13844E+03  2.75226E+03 -2.51653E+03  3.84256E+03 -2.79152E+03  1.29718E+03 -4.17052E+03 -2.88360E+02
 -1.66102E+03 -3.24022E+03  6.82026E+02 -4.36010E+03  1.63498E+03 -2.46911E+03  3.04503E+03 -9.67067E+02
  2.38958E+03  1.76199E+03  1.73648E+02  2.04662E+03 -6.25899E+02  1.02565E+03 -7.35000E+02 -4.51765E+01
 -2.72410E+02 -1.73709E+03  1.11923E+03 -1.33890E+03  1.55970E+03 -8.12181E+02  1.24670E+03  2.75947E+02
  7.06086E+02  2.63370E+02  8.28070E+02 -2.91041E+02 -3.99157E+02  8.62367E+02  1.46286E+03 -1.51796E+01
  2.83028E+02 -2.04049E+02  1.86055E+03  6.49684E+02  7.94253E+01  2.20613E+03 -2.02522E+02  2.73114E+03
 -1.66002E+03  1.18421E+03 -1.91099E+03  4.07115E+02 -2.02456E+03 -6.56237E+02 -2.23127E+02 -8.66603E+02
  3.24322E+02 -7.61567E+02  1.06118E+03 -5.18039E+02  6.74592E+02  1.22664E+03 -7.87048E+02  9.46287E+02
 -1.19696E+03  5.59035E+02 -9.03959E+02 -1.33537E+03 -5.88085E+02 -2.09569E+03 -4.37390E+01 -1.41816E+03
  5.10977E+02 -4.96276E+02  6.88634E+02  1.14464E+01  1.19955E+03 -1.22829E+02  1.64758E+02  1.19378E+03
 -4.40954E+02 -1.80606E+02 -9.20500E+02 -1.03581E+02  5.73561E+02 -6.72267E+02  1.43994E+03 -8.33291E+02
  9.87521E+02  1.77654E+02  2.41957E+03  6.00983E+02  1.09822E+03  1.46643E+03 -1.52075E+02  1.91448E+03
 -1.21801E+03  1.16981E+00 -1.31162E+03  1.39627E+02 -9.42895E+02 -1.33116E+03  2.18989E+02 -5.37018E+02
  1.46490E+03 -5.97808E+02  5.69839E+02  4.13899E+02  3.06024E+02  1.14453E+03  2.46603E+02  1.21390E+03
 -2.42019E+02  1.05432E+03 -5.81599E+02  5.84486E+01 -9.65561E+01  2.84690E+02 -6.43780E+02  6.23636E+02
 -5.43537E+02  9.81716E+02 -1.51173E+03  7.80573E+02 -1.45219E+03  3.11150E+02 -2.23875E+03 -8.73326E+02
 -1.25328E+03 -1.97456E+03  5.55649E+02 -2.15604E+03  7.78618E+02 -2.15676E+03  2.38655E+03 -7.00540E+02
  1.86000E+03 -2.28206E+02  9.17343E+02  1.48284E+03 -3.29370E+02  1.21288E+03 -4.62647E+02  9.39095E+02
 -8.10379E+02  9.17787E+02 -4.04850E+02 -2.37975E+02 -6.04214E+02  3.79644E+02 -6.42367E+02 -4.10539E+01
 -1.02261E+03 -4.42321E+01 -6.97077E+02  2.74589E+02  4.97876E+02 -5.84658E+02 -3.39599E+02 -6.49542E+02
  9.08725E+02 -6.30454E+02  1.05954E+02  1.06361E+02  1.04816E+03  7.42192E+02 -4.35831E+02  1.21582E+03
 -7.36984E+02  2.04867E+03 -1.40747E+03  1.25275E+03 -1.27541E+03 -6.70689E+01 -1.13287E+03 -1.38459E+03
 -5.86390E+02 -1.19629E+03  4.03061E+02 -9.24379E+02  5.15099E+02 -5.86914E+02  4.31486E+02  2.51927E+01
  8.38681E+02  2.13676E+02 -7.79789E+01  3.67380E+02 -1.41669E+02  3.33040E+01  7.42896E+01 -2.06189E+02
  3.50131E+02  4.08786E+02  1.50092E+02  8.00383E+02 -8.85990E+01  3.25452E+02  3.36077E+02 -1.12666E+02
 -4.10358E+02  6.86217E+02 -5.12719E+02  1.07492E+01 -7.39273E+02 -3.53286E+02  2.47173E+02 -8.48133E+02
  6.25727E+02 -7.32700E+02  3.36960E+02  1.10952E+01  8.93085E+02 -7.44342E+02  3.50297E+02  7.72305E+02
  4.27191E+02  6.78084E+02 -7.59963E+01  4.11719E+02 -3.85381E+02  4.05046E+02 -2.14547E+02  2.99708E+02
 -7.85716E+01 -1.70266E+02 -6.35066E+02  9.23757E+01 -3.80147E+02  2.17057E+01 -5.32883E+02 -3.43116E+02
 -1.07696E+03  2.48708E+02 -3.52440E+02 -8.39662E+02  5.41305E+02 -1.38619E+03  4.03257E+02 -1.14182E+02
  7.74738E+02  7.33032E+00 -2.89701E+02  1.71537E+02 -2.61708E+02  4.33825E+02 -3.24146E+02  4.85678E+02
