 $NMID ID='MM_0lb_SNR800_7hz_g45_47.RAW', FMTDAT='(8E13.5)'
 TRAMP=1., VOLUME=1. $END
  3.10001E+05  4.27185E+02  3.38039E+05  2.50688E+05  8.48098E+04  3.38912E+05 -1.32282E+05  2.51765E+05
 -1.91215E+05  8.42307E+04 -1.12912E+05 -3.19275E+04  2.40138E+02 -5.09791E+04  5.35424E+04 -1.03482E+03
  3.55974E+04  5.24960E+04 -1.65206E+04  7.61321E+04 -6.14296E+04  6.45941E+04 -8.56503E+04  3.24039E+04
 -8.29035E+04 -1.17049E+04 -5.80428E+04 -5.29427E+04 -1.51129E+04 -7.09274E+04  2.79883E+04 -4.74862E+04
  4.14932E+04  3.82601E+03  1.69471E+04  4.89832E+04 -3.48616E+04  4.86791E+04 -6.85415E+04  9.31498E+01
 -5.55995E+04 -5.78813E+04 -6.88970E+03 -7.94075E+04  3.51568E+04 -5.76715E+04  4.97051E+04 -1.90418E+04
  4.53447E+04  1.17695E+04  3.35882E+04  2.68950E+04  1.58808E+04  3.08594E+04 -6.07631E+03  2.76150E+04
 -2.27810E+04  1.19514E+04 -1.76177E+04 -5.82388E+03  7.22225E+03 -7.70513E+03  2.42059E+04  1.37885E+04
  7.32490E+03  3.80501E+04 -3.42095E+04  3.77413E+04 -6.64866E+04  2.01615E+03 -5.93833E+04 -4.52053E+04
 -1.27191E+04 -6.69324E+04  4.21342E+04 -4.84122E+04  6.21254E+04 -2.66024E+03  3.75295E+04  3.48244E+04
 -5.35536E+03  4.00975E+04 -3.26482E+04  1.95144E+04 -3.43582E+04 -3.01654E+03 -2.04416E+04 -1.20521E+04
 -9.33687E+03 -1.54813E+04 -3.83083E+02 -2.04205E+04  8.61536E+03 -2.33792E+04  1.64439E+04 -1.23350E+04
  9.95110E+03  6.22681E+03 -1.10168E+04  1.23959E+04 -2.40775E+04 -7.36184E+03 -8.38222E+03 -3.86016E+04
  2.57112E+04 -4.78609E+04  5.32900E+04 -2.09231E+04  4.97788E+04  2.14505E+04  1.76328E+04  4.84285E+04
 -1.68368E+04  3.70944E+04 -2.84308E+04  3.06210E+03 -1.25014E+04 -2.98537E+04  2.16271E+04 -3.77778E+04
  4.57006E+04 -1.17608E+04  4.22440E+04  2.55593E+04  2.21855E+04  5.26120E+04 -8.83002E+03  5.79046E+04
 -3.70401E+04  3.96688E+04 -4.92177E+04  1.13849E+04 -4.94513E+04 -1.88216E+04 -2.70677E+04 -4.34990E+04
  8.35251E+03 -4.36726E+04  3.52170E+04 -1.77320E+04  3.28910E+04  1.14218E+04  5.70347E+03  2.10883E+04
 -1.43337E+04  1.09360E+04 -1.13013E+04 -7.75761E+03  5.86042E+03 -1.19787E+04  1.91463E+04  5.65747E+03
  1.51486E+04  2.25071E+04 -5.00643E+03  2.74451E+04 -2.37563E+04  1.55031E+04 -3.24985E+04 -2.09964E+03
 -2.71468E+04 -1.91028E+04 -1.30040E+04 -2.65534E+04  4.12212E+03 -2.75016E+04  2.11688E+04 -2.45395E+04
  3.38579E+04 -1.50408E+04  3.98871E+04  5.48681E+03  2.78995E+04  2.59626E+04  4.41755E+03  4.28370E+04
 -2.10054E+04  3.50825E+04 -3.13104E+04  1.31107E+04 -2.33498E+04 -1.01907E+04 -5.32608E+03 -1.20592E+04
  4.34244E+02 -7.60515E+02 -8.42240E+03  9.03347E+03 -2.17187E+04  5.05672E+03 -2.15144E+04 -1.00110E+04
 -1.29950E+04 -2.45263E+04  6.24077E+03 -2.91909E+04  1.99396E+04 -2.11623E+04  2.43958E+04 -2.26851E+03
  1.55123E+04  1.69780E+04 -1.51798E+03  2.47335E+04 -1.85609E+04  1.40690E+04 -2.52998E+04 -5.29832E+03
 -1.78606E+04 -2.23075E+04 -2.71826E+03 -3.00260E+04  1.38682E+04 -2.48243E+04  2.42247E+04 -1.32981E+04
  2.35841E+04 -5.43851E+02  1.68554E+04  5.45226E+03  9.60902E+03  1.79870E+03  1.32555E+04 -1.85690E+03
  2.37204E+04  2.60186E+03  2.74512E+04  1.88024E+04  1.91223E+04  4.00361E+04 -2.35460E+03  4.70611E+04
 -2.71367E+04  4.02692E+04 -4.58139E+04  2.12307E+04 -4.85976E+04 -3.97321E+03 -3.91490E+04 -2.81140E+04
 -1.52132E+04 -4.07985E+04  1.42686E+04 -3.54933E+04  2.99187E+04 -1.60270E+04  2.56479E+04  8.81567E+03
  8.75985E+03  2.01772E+04 -1.26540E+04  1.64893E+04 -2.13677E+04  2.50863E+03 -1.62012E+04 -1.38864E+04
 -2.61553E+02 -2.11054E+04  1.14730E+04 -1.55144E+04  1.49956E+04 -1.36350E+03  4.19175E+03  9.58418E+03
 -9.95111E+03  5.18787E+03 -1.05695E+04 -7.19983E+03 -2.23384E+03 -1.98515E+04  1.27485E+04 -2.17188E+04
  2.54479E+04 -1.25542E+04  2.95880E+04  3.21369E+03  2.57358E+04  2.04448E+04  1.18681E+04  3.24200E+04
 -6.66328E+03  3.47957E+04 -2.30161E+04  2.20265E+04 -2.51477E+04  4.47710E+03 -1.70023E+04 -6.99386E+03
 -7.06913E+03 -8.22273E+03 -1.76070E+02  4.29894E+01 -3.27283E+03  3.72079E+03 -7.84607E+03  5.51173E+03
 -1.59940E+04 -1.38866E+03 -1.62281E+04 -1.28793E+04 -6.33913E+03 -2.08791E+04  7.44948E+03 -1.75726E+04
  1.38825E+04 -6.72763E+03  9.50182E+03  4.67130E+03 -7.33970E+02  6.71988E+03 -9.11520E+03  6.06982E+01
 -8.76736E+03 -1.07293E+04 -1.08547E+03 -1.72485E+04  9.89513E+03 -1.79391E+04  2.25807E+04 -9.81856E+03
  2.64740E+04  2.90617E+03  1.93854E+04  1.63294E+04  3.27617E+03  2.13666E+04 -1.05289E+04  1.72987E+04
 -1.40260E+04  4.89908E+03 -7.24437E+03 -3.83787E+03  2.73398E+03 -5.33265E+03  8.95291E+03 -1.57440E+03
  8.11484E+03  7.44206E+03  1.02327E+03  1.37914E+04 -1.00052E+04  1.35037E+04 -1.76737E+04  3.12266E+03
 -1.23527E+04 -9.47743E+03  8.37276E+01 -1.48597E+04  1.02176E+04 -7.31418E+03  1.08323E+04  4.00401E+03
  2.83693E+03  1.18282E+04 -9.30474E+03  1.33446E+04 -1.58452E+04  5.88850E+03 -1.59731E+04 -6.21298E+03
 -9.45787E+03 -1.82195E+04  4.44865E+03 -2.06853E+04  1.83866E+04 -1.21749E+04  1.98630E+04  3.67448E+03
  1.11075E+04  1.54050E+04 -2.15339E+03  1.81472E+04 -1.30694E+04  1.03420E+04 -1.54547E+04 -1.56761E+03
 -1.19269E+04 -1.20189E+04 -1.53676E+03 -1.38229E+04  7.37199E+03 -1.12216E+04  9.02473E+03 -3.37554E+03
  5.55539E+03  2.39004E+03 -1.19451E+03  1.81006E+03 -9.84221E+02 -4.07482E+03  3.25177E+03 -8.63380E+03
  1.35603E+04 -5.81876E+03  1.90243E+04  2.19781E+03  1.85874E+04  1.25857E+04  1.10329E+04  2.43605E+04
 -6.01554E+03  2.80796E+04 -2.33325E+04  2.02336E+04 -3.02618E+04  3.91524E+03 -2.43201E+04 -1.09058E+04
 -1.20265E+04 -2.02286E+04 -4.00174E+02 -1.73590E+04  6.58756E+03 -9.93447E+03  6.17437E+03 -6.38622E+03
  4.43161E+03 -3.70481E+03  4.32793E+03 -4.37712E+03  7.15322E+03 -4.48559E+03  9.48635E+03 -2.05517E+03
  1.25067E+04  2.71612E+03  7.52157E+03  1.11906E+04 -2.61759E+03  1.35298E+04 -1.35466E+04  9.97904E+03
 -1.76914E+04 -1.19291E+03 -1.21331E+04 -1.23221E+04 -1.73907E+03 -1.91589E+04  1.01051E+04 -1.87771E+04
  1.98731E+04 -1.03362E+04  2.35656E+04  3.13630E+03  1.60665E+04  1.64646E+04  2.25146E+03  2.13263E+04
 -9.29533E+03  1.70850E+04 -1.25892E+04  5.85962E+03 -8.57291E+03 -2.07437E+03 -3.83621E+03 -2.56743E+03
 -1.79917E+03 -2.61395E+02 -2.90488E+03  3.39040E+03 -7.41770E+03  3.41696E+03 -1.18733E+04 -1.57815E+03
 -8.73249E+03 -1.18517E+04 -6.49120E+02 -1.76549E+04  1.07225E+04 -1.60985E+04  1.79457E+04 -5.34950E+03
  1.74979E+04  8.53474E+03  8.51529E+03  1.61765E+04 -3.43872E+03  1.81875E+04 -1.28734E+04  1.11537E+04
 -1.73237E+04  4.99303E+01 -1.29624E+04 -1.13728E+04 -1.61325E+03 -1.52468E+04  7.86089E+03 -1.16903E+04
  1.16427E+04 -3.57646E+03  7.74476E+03  3.55760E+03  2.83871E+03  5.53242E+03  1.80326E+03  2.72379E+03
  3.20446E+03  1.67205E+03  4.36022E+03  2.39312E+03  5.71270E+03  5.81311E+03  4.53602E+03  1.00448E+04
 -3.55678E+03  1.44019E+04 -1.28998E+04  1.45929E+04 -1.92290E+04  3.92486E+03 -1.97971E+04 -8.24136E+03
 -9.60685E+03 -1.86983E+04  2.60481E+03 -2.04609E+04  1.16921E+04 -1.33329E+04  1.56176E+04 -3.48941E+03
  1.17109E+04  6.71712E+03  2.91344E+03  1.10224E+04 -5.39726E+03  7.08415E+03 -7.67278E+03 -1.06631E+03
 -3.39748E+03 -8.38584E+03  4.31752E+03 -8.79865E+03  8.11396E+03 -3.90013E+03  7.57149E+03  2.09690E+03
  4.89752E+03  3.74563E+03  2.18846E+03  3.67941E+03 -8.70833E+02  2.48847E+03  1.50638E+03 -8.96800E+02
  3.65560E+03 -9.08228E+02  7.92721E+03  3.50659E+03  4.67547E+03  9.84679E+03 -1.96225E+03  1.34475E+04
 -9.17985E+03  9.38196E+03 -1.27137E+04  2.09604E+03 -1.08527E+04 -4.38909E+03 -4.39537E+03 -7.88487E+03
  1.28322E+03 -7.49860E+03  4.97194E+03 -3.64666E+03  4.28213E+03  3.61752E+03 -1.93425E+03  6.63600E+03
 -8.42313E+03  3.71037E+03 -9.87406E+03 -4.53248E+03 -4.96893E+03 -1.08127E+04  1.68711E+03 -1.09247E+04
  6.69356E+03 -7.19690E+03  7.86272E+03 -7.44377E+02  7.28989E+03  3.04331E+03  8.51363E+02  6.18270E+03
 -3.85292E+03  1.47852E+03 -4.34627E+03 -3.95957E+03  1.95928E+03 -9.07656E+03  9.37867E+03 -7.32493E+03
  1.29170E+04  1.13044E+03  1.20624E+04  8.42745E+03  3.88560E+03  1.34000E+04 -5.12074E+03  1.26113E+04
 -1.12513E+04  6.06679E+03 -1.13038E+04 -1.74664E+03 -6.08478E+03 -8.47608E+03  1.90481E+03 -8.50223E+03
  8.25650E+03 -4.02956E+03  6.74649E+03  3.37953E+03  2.22506E+03  7.47452E+03 -1.85480E+03  6.63330E+03
 -3.98104E+03  3.67607E+03 -3.39107E+03  1.13223E+03 -2.15452E+03  1.21107E+03 -2.17255E+03  2.24111E+03
 -3.35154E+03  5.07707E+03 -9.00646E+03  4.90071E+03 -1.31140E+04  7.44713E+02 -1.53074E+04 -9.29512E+03
 -7.92412E+03 -1.74852E+04  3.40844E+03 -2.03281E+04  1.34053E+04 -1.57935E+04  1.94873E+04 -5.67498E+03
  1.86646E+04  4.01071E+03  1.17311E+04  1.22150E+04  1.33782E+03  1.43729E+04 -5.68035E+03  1.03287E+04
 -8.15774E+03  3.47330E+03 -5.48537E+03 -1.58201E+03 -1.49652E+03 -1.73068E+03 -7.61040E+02  4.00558E+02
 -1.99164E+03  1.68979E+02 -3.10366E+03 -1.16294E+03 -1.07298E+03 -3.22058E+03  4.08364E+02 -5.26976E+03
  5.86449E+03 -4.54758E+03  9.08168E+03 -2.41952E+02  1.00178E+04  8.05912E+03  3.16185E+03  1.41713E+04
 -6.75171E+03  1.63032E+04 -1.48330E+04  9.44401E+03 -1.74476E+04 -1.71296E+03 -1.35670E+04 -1.06722E+04
 -5.18597E+03 -1.46454E+04  3.78587E+03 -1.38057E+04  9.53365E+03 -7.57332E+03  9.68913E+03  3.64534E+02
  4.45798E+03  5.26964E+03 -9.28849E+02  4.33811E+03 -2.78915E+03 -4.78332E+02  2.04342E+02 -3.36447E+03
  4.72770E+03 -2.48975E+03  5.94771E+03  1.79789E+03  3.70109E+03  6.08206E+03 -2.71654E+02  7.31699E+03
 -6.30364E+03  6.85786E+03 -1.01713E+04  1.07192E+03 -8.90947E+03 -7.25246E+03 -1.37191E+03 -1.26309E+04
  7.41073E+03 -1.07702E+04  1.15741E+04 -3.28031E+03  1.18133E+04  3.57716E+03  6.23095E+03  9.44755E+03
  1.01762E+03  1.00138E+04 -4.37982E+03  8.12722E+03 -6.42188E+03  4.21921E+03 -4.78640E+03  7.12143E+02
 -2.93886E+03 -2.38141E+02 -3.00587E+03  5.88057E+02 -5.25802E+03  1.66422E+03 -7.93685E+03 -1.36196E+03
 -7.20086E+03 -5.83946E+03 -2.90685E+03 -1.00002E+04  4.61252E+03 -1.01885E+04  9.21139E+03 -5.07019E+03
  1.00336E+04  1.44188E+03  5.78984E+03  7.44051E+03 -7.90774E+02  1.05380E+04 -7.98583E+03  6.10455E+03
