 $NMID ID='MM_0lb_SNR800_15hz_g45_40.RAW', FMTDAT='(8E13.5)'
 TRAMP=1., VOLUME=1. $END
  3.10106E+05  5.86542E+02  3.37590E+05  2.50377E+05  8.46498E+04  3.37742E+05 -1.32703E+05  2.50804E+05
 -1.90128E+05  8.29475E+04 -1.11578E+05 -3.23629E+04  1.36278E+03 -5.06119E+04  5.36304E+04  1.35094E+02
  3.51335E+04  5.25143E+04 -1.67605E+04  7.55516E+04 -6.07518E+04  6.31530E+04 -8.37199E+04  3.17371E+04
 -8.04616E+04 -1.14430E+04 -5.65173E+04 -5.07714E+04 -1.51075E+04 -6.91899E+04  2.71386E+04 -4.53444E+04
  3.99451E+04  3.83079E+03  1.59642E+04  4.76737E+04 -3.41057E+04  4.66829E+04 -6.63887E+04 -1.69736E+02
 -5.28027E+04 -5.63635E+04 -6.39425E+03 -7.63642E+04  3.36636E+04 -5.40843E+04  4.74252E+04 -1.69422E+04
  4.27632E+04  1.11243E+04  3.12137E+04  2.53365E+04  1.59887E+04  2.91264E+04 -5.19197E+03  2.69096E+04
 -2.19868E+04  1.25672E+04 -1.87857E+04 -4.64925E+03  5.32230E+03 -7.62415E+03  2.18890E+04  1.18164E+04
  7.68432E+03  3.44825E+04 -3.16278E+04  3.50684E+04 -6.25765E+04  2.22145E+03 -5.63507E+04 -4.21524E+04
 -1.24615E+04 -6.25390E+04  3.95456E+04 -4.47903E+04  5.75439E+04 -2.29558E+03  3.35666E+04  3.16190E+04
 -6.44875E+03  3.50793E+04 -2.92852E+04  1.51757E+04 -2.92554E+04 -4.99751E+03 -1.59906E+04 -1.07190E+04
 -8.00230E+03 -1.23100E+04 -6.50436E+02 -1.76283E+04  7.16293E+03 -2.27359E+04  1.52830E+04 -1.35151E+04
  1.14758E+04  5.02332E+03 -7.63670E+03  1.30949E+04 -2.04953E+04 -3.93561E+03 -8.25389E+03 -3.26447E+04
  2.22872E+04 -4.24400E+04  4.68432E+04 -1.94393E+04  4.35903E+04  1.89465E+04  1.53113E+04  4.32248E+04
 -1.58154E+04  3.27581E+04 -2.49210E+04  1.26799E+03 -9.51091E+03 -2.70353E+04  2.05433E+04 -3.28998E+04
  4.02000E+04 -8.60146E+03  3.42331E+04  2.32189E+04  1.73066E+04  4.54004E+04 -7.81726E+03  4.84533E+04
 -3.04604E+04  3.26939E+04 -4.04153E+04  9.09308E+03 -4.12144E+04 -1.61672E+04 -2.30828E+04 -3.69165E+04
  7.09908E+03 -3.65344E+04  3.06041E+04 -1.37978E+04  2.84415E+04  1.06939E+04  3.46299E+03  1.85690E+04
 -1.32483E+04  8.08299E+03 -1.00467E+04 -7.49089E+03  6.08576E+03 -1.05804E+04  1.74189E+04  6.08988E+03
  1.29133E+04  2.21287E+04 -6.24478E+03  2.47201E+04 -2.22048E+04  1.10373E+04 -2.71600E+04 -5.08447E+03
 -1.92916E+04 -1.71151E+04 -7.34955E+03 -1.93860E+04  4.33651E+03 -1.80301E+04  1.46623E+04 -1.68879E+04
  2.44123E+04 -1.26081E+04  3.11181E+04  2.30203E+03  2.31252E+04  1.86702E+04  4.60365E+03  3.50065E+04
 -1.74589E+04  2.95907E+04 -2.72224E+04  1.00704E+04 -2.03008E+04 -1.02416E+04 -3.98223E+03 -1.34454E+04
  1.93754E+03 -3.22487E+03 -4.16187E+03  6.46902E+03 -1.50089E+04  5.11936E+03 -1.55035E+04 -6.48695E+03
 -9.39873E+03 -1.77981E+04  4.97372E+03 -2.19190E+04  1.42929E+04 -1.55367E+04  1.72459E+04 -1.52618E+03
  1.03874E+04  1.25318E+04 -1.12196E+03  1.80527E+04 -1.21155E+04  1.01814E+04 -1.80093E+04 -3.80541E+03
 -1.32414E+04 -1.61485E+04 -1.85356E+03 -2.17185E+04  9.55933E+03 -1.78627E+04  1.78965E+04 -8.60083E+03
  1.69022E+04  4.93018E+02  1.20388E+04  4.46518E+03  6.29795E+03  6.95505E+02  8.99289E+03 -1.47291E+03
  1.62153E+04  2.64053E+03  1.78838E+04  1.44394E+04  1.10227E+04  2.84516E+04 -3.08730E+03  3.17839E+04
 -1.84885E+04  2.52345E+04 -2.93778E+04  1.22910E+04 -3.04598E+04 -2.24888E+03 -2.55046E+04 -1.76351E+04
 -1.14488E+04 -2.54989E+04  8.84359E+03 -2.28016E+04  1.95780E+04 -1.20396E+04  1.81179E+04  4.59482E+03
  7.16098E+03  1.26862E+04 -8.63662E+03  1.20063E+04 -1.55403E+04  2.61232E+03 -1.17733E+04 -9.63428E+03
 -1.64839E+02 -1.43785E+04  7.26729E+03 -1.07037E+04  9.39200E+03 -1.35261E+03  2.23145E+03  6.12237E+03
 -6.62291E+03  1.88509E+03 -5.40250E+03 -5.00943E+03  1.35323E+01 -1.24460E+04  9.01356E+03 -1.22983E+04
  1.53502E+04 -6.70684E+03  1.63452E+04  3.11874E+03  1.38198E+04  1.22149E+04  6.53437E+03  1.83949E+04
 -2.82197E+03  2.00419E+04 -1.26270E+04  1.26878E+04 -1.42719E+04  3.52335E+03 -1.07705E+04 -3.23247E+03
 -5.02458E+03 -4.30120E+03 -6.08736E+02  9.81945E+02 -2.23938E+03  2.52306E+03 -4.44179E+03  4.04720E+03
 -9.82787E+03 -5.44853E+02 -1.03496E+04 -8.40979E+03 -4.26540E+03 -1.39795E+04  4.35884E+03 -1.06264E+04
  8.76881E+03 -4.77253E+03  6.31500E+03  2.75694E+03  1.86555E+02  3.86687E+03 -4.64170E+03 -2.86518E+02
 -4.75233E+03 -6.46235E+03 -9.61901E+02 -9.43875E+03  5.47046E+03 -1.03532E+04  1.24714E+04 -5.50299E+03
  1.49388E+04  1.24713E+03  1.10193E+04  8.47251E+03  2.09637E+03  1.14531E+04 -6.57668E+03  1.01651E+04
 -8.64228E+03  3.27930E+03 -4.33334E+03 -1.92111E+03  1.83619E+03 -2.42514E+03  5.35509E+03 -7.70141E+02
  4.97574E+03  4.10330E+03  1.18059E+03  7.99330E+03 -5.52423E+03  8.14167E+03 -9.95240E+03  2.29625E+03
 -6.63309E+03 -4.91245E+03  3.73325E+01 -8.33194E+03  5.19063E+03 -4.13716E+03  5.23903E+03  1.88619E+03
  9.80664E+02  5.16279E+03 -5.26794E+03  6.53719E+03 -7.13532E+03  3.11364E+03 -6.95452E+03 -2.39605E+03
 -4.36185E+03 -8.23995E+03  1.86235E+03 -9.73743E+03  8.65101E+03 -6.21837E+03  9.46303E+03  1.46293E+03
  6.11413E+03  7.17170E+03 -2.28633E+02  9.14610E+03 -6.79418E+03  5.35487E+03 -7.07615E+03 -5.33897E+02
 -6.88910E+03 -6.74096E+03 -1.54620E+03 -6.97056E+03  3.73282E+03 -6.09470E+03  3.88136E+03 -3.06565E+03
  3.35583E+03  1.01358E+03 -2.29982E+02  1.35392E+03  1.70211E+02 -1.00052E+03  4.94896E+02 -3.22937E+03
  5.97083E+03 -1.66790E+03  7.78447E+03  6.50571E+02  8.13742E+03  4.93544E+03  6.44571E+03  1.07801E+04
 -2.30420E+03  1.23477E+04 -1.05236E+04  9.33962E+03 -1.39051E+04  1.77475E+03 -1.06342E+04 -4.30661E+03
 -5.73362E+03 -9.38319E+03 -4.98473E+02 -7.49114E+03  2.80049E+03 -3.69790E+03  2.70495E+03 -3.00390E+03
  1.79234E+03 -2.03419E+03  2.60255E+03 -2.99095E+03  3.97946E+03 -1.69396E+03  4.75337E+03 -4.77898E+01
  5.74162E+03  1.54171E+03  2.55619E+03  4.82006E+03 -1.80427E+03  4.97158E+03 -5.86662E+03  4.00043E+03
 -7.39987E+03 -1.14098E+03 -3.97049E+03 -4.98517E+03 -2.29677E+02 -7.22323E+03  4.20797E+03 -7.74897E+03
  7.76999E+03 -4.58491E+03  9.70888E+03  7.97836E+02  7.02610E+03  6.61001E+03  1.15930E+03  8.96020E+03
 -3.60168E+03  8.08777E+03 -5.25503E+03  2.74886E+03 -3.06784E+03 -1.33602E+03 -1.08139E+03 -9.32738E+02
 -6.25821E+02  1.63387E+02 -1.21264E+03  2.26632E+03 -3.41557E+03  1.38219E+03 -5.46164E+03 -1.86973E+02
 -2.92043E+03 -5.48289E+03  7.25273E+02 -7.22818E+03  4.41236E+03 -6.62210E+03  6.12033E+03 -1.94496E+03
  6.60145E+03  3.35088E+03  2.82033E+03  5.71051E+03 -1.32268E+03  6.73348E+03 -4.47414E+03  4.11291E+03
 -6.25307E+03  5.31771E+02 -5.30553E+03 -3.80949E+03 -8.95786E+02 -5.36015E+03  2.82085E+03 -4.14763E+03
  4.22013E+03 -1.89881E+03  2.89932E+03  1.10538E+03  1.09749E+03  2.27540E+03  1.01789E+03  6.72562E+02
  1.89960E+03  4.56169E+02  1.43081E+03  1.26043E+03  2.03582E+03  2.87527E+03  1.99948E+03  3.21603E+03
 -1.90956E+03  4.82692E+03 -4.16478E+03  5.86311E+03 -5.88324E+03  1.81860E+03 -7.09131E+03 -1.43251E+03
 -3.14840E+03 -6.13404E+03  1.08393E+03 -7.58866E+03  3.77992E+03 -4.43880E+03  5.07258E+03 -1.38056E+03
  4.10081E+03  2.64483E+03  5.86419E+02  3.72795E+03 -1.59443E+03  2.25074E+03 -2.39315E+03 -1.68849E+02
 -1.05990E+03 -2.91935E+03  2.05572E+03 -2.51473E+03  2.15064E+03 -1.31233E+03  2.30027E+03  5.42013E+02
  1.35822E+03  9.30976E+02  1.12378E+03  4.79633E+02 -4.80169E+02  1.07162E+03  1.79503E+03 -4.21862E+02
  5.71465E+02  8.74823E+01  2.50874E+03  1.02859E+03  7.99609E+02  3.60545E+03 -3.04562E+02  4.72998E+03
 -2.56190E+03  2.40477E+03 -3.81589E+03  6.86292E+02 -3.74347E+03 -1.45301E+03 -9.96723E+02 -2.17293E+03
  6.63552E+02 -2.23219E+03  1.71260E+03 -1.19548E+03  1.45049E+03  1.47293E+03 -9.72304E+02  2.18812E+03
 -2.26042E+03  1.24760E+03 -2.56081E+03 -1.84682E+03 -1.46362E+03 -3.52017E+03  4.88439E+02 -3.10760E+03
  1.32739E+03 -1.29592E+03  1.89496E+03 -3.85789E+01  2.00573E+03  5.76835E+02  6.54461E+02  2.02005E+03
 -8.31756E+02  3.88408E+02 -1.35728E+03 -7.45895E+02  1.01343E+03 -1.68327E+03  2.87453E+03 -1.92816E+03
  2.96687E+03  5.63939E+02  4.04435E+03  1.87835E+03  1.60956E+03  3.34796E+03 -6.40657E+02  3.69080E+03
 -2.82218E+03  1.12076E+03 -2.64491E+03 -2.57673E+02 -1.76924E+03 -2.71616E+03  5.19232E+02 -1.97057E+03
  2.39946E+03 -1.14263E+03  1.79112E+03  1.09612E+03  3.11890E+02  2.19655E+03 -2.20488E+01  2.00847E+03
 -7.51000E+02  1.51757E+03 -8.35340E+02  5.49902E+02 -2.33820E+01  5.58994E+02 -8.36641E+02  7.64577E+02
 -1.15011E+03  1.53304E+03 -2.52638E+03  9.76235E+02 -3.40149E+03 -8.86711E+01 -4.29560E+03 -1.97340E+03
 -1.98969E+03 -4.49859E+03  8.37837E+02 -5.37111E+03  2.50164E+03 -4.36179E+03  5.00222E+03 -1.51712E+03
  4.52432E+03  6.58358E+02  2.54706E+03  2.76088E+03 -5.65097E+02  3.11305E+03 -1.26784E+03  2.10432E+03
 -1.97113E+03  8.86348E+02 -1.22673E+03 -6.55611E+02 -3.46551E+02  1.01240E+02 -4.73706E+02  5.42038E+00
 -1.09545E+03  1.70081E+02 -9.40181E+02 -3.19315E+01 -1.53900E+01 -1.41816E+03 -1.50144E+02 -1.49368E+03
  2.31271E+03 -9.99944E+02  1.67981E+03  2.62368E+02  2.40356E+03  1.83387E+03 -2.18479E+02  2.87954E+03
 -1.51441E+03  3.93338E+03 -3.56524E+03  2.39238E+03 -3.91905E+03 -4.51309E+02 -2.45073E+03 -2.59242E+03
 -1.35475E+03 -2.73192E+03  4.93123E+02 -2.71575E+03  1.78891E+03 -1.66160E+03  1.87871E+03  1.70543E+02
  1.13861E+03  7.42140E+02 -3.30767E+01  8.63690E+02 -5.39954E+02 -3.09245E+02  6.37500E+01 -6.46996E+02
  8.76862E+02 -3.15512E+02  9.42994E+02  7.72469E+02  6.16535E+02  1.10483E+03  2.79598E+02  1.29192E+03
 -1.13654E+03  1.14427E+03 -1.81674E+03  3.77873E+02 -2.00880E+03 -9.77737E+02 -3.73929E+02 -2.44988E+03
  1.22349E+03 -1.52744E+03  1.77494E+03 -5.75222E+02  2.35471E+03 -4.24574E+02  1.21935E+03  1.85626E+03
  3.72329E+02  1.74629E+03 -7.96086E+02  1.26087E+03 -1.59784E+03  1.40536E+03 -9.60711E+02  1.73448E+02
 -4.14792E+02 -1.01565E+02 -4.42007E+02  1.57695E+02 -1.17324E+03  3.71927E+02 -1.72967E+03 -2.05219E+02
 -1.61202E+03 -3.92049E+02 -6.49487E+02 -2.16771E+03  1.14599E+03 -2.53479E+03  1.86798E+03 -8.08041E+02
  1.76859E+03  3.62737E+02  5.67196E+02  1.25932E+03 -1.24080E+02  1.91793E+03 -8.07990E+02  1.16016E+03
