 $NMID ID='MM_0lb_SNR800_16hz_g60_52.RAW', FMTDAT='(8E13.5)'
 TRAMP=1., VOLUME=1. $END
  3.09861E+05  4.49769E+02  3.37823E+05  2.50540E+05  8.45652E+04  3.37925E+05 -1.32676E+05  2.51179E+05
 -1.90613E+05  8.32613E+04 -1.11676E+05 -3.23724E+04  8.67251E+02 -5.02228E+04  5.37067E+04 -2.69430E+02
  3.56387E+04  5.28385E+04 -1.67210E+04  7.54686E+04 -6.10006E+04  6.37584E+04 -8.41736E+04  3.20883E+04
 -8.11133E+04 -1.13582E+04 -5.73741E+04 -5.16101E+04 -1.50501E+04 -6.97058E+04  2.74558E+04 -4.57581E+04
  4.01297E+04  3.85668E+03  1.60866E+04  4.79778E+04 -3.43085E+04  4.74991E+04 -6.72019E+04 -2.57637E+02
 -5.34286E+04 -5.67858E+04 -6.85435E+03 -7.71743E+04  3.41966E+04 -5.48524E+04  4.81429E+04 -1.76132E+04
  4.34932E+04  1.12252E+04  3.16345E+04  2.55636E+04  1.58862E+04  2.94414E+04 -5.10595E+03  2.70824E+04
 -2.20908E+04  1.22271E+04 -1.86174E+04 -5.02843E+03  5.58927E+03 -7.41129E+03  2.25070E+04  1.21437E+04
  7.51168E+03  3.54768E+04 -3.23959E+04  3.53227E+04 -6.34848E+04  1.82756E+03 -5.72096E+04 -4.30326E+04
 -1.27063E+04 -6.34177E+04  3.98171E+04 -4.53332E+04  5.82523E+04 -2.05949E+03  3.41844E+04  3.24042E+04
 -6.41804E+03  3.64033E+04 -2.97345E+04  1.58555E+04 -3.06843E+04 -4.31589E+03 -1.66679E+04 -1.07552E+04
 -8.18001E+03 -1.33614E+04 -5.21995E+02 -1.81095E+04  7.37614E+03 -2.30411E+04  1.51601E+04 -1.33259E+04
  1.17930E+04  5.26954E+03 -8.24566E+03  1.28430E+04 -2.10394E+04 -4.32206E+03 -8.01237E+03 -3.32988E+04
  2.28541E+04 -4.34807E+04  4.82239E+04 -1.97751E+04  4.51027E+04  1.96277E+04  1.55877E+04  4.42911E+04
 -1.61014E+04  3.30926E+04 -2.56118E+04  1.56058E+03 -1.00059E+04 -2.76125E+04  2.09174E+04 -3.41344E+04
  4.11878E+04 -9.32258E+03  3.61129E+04  2.36317E+04  1.81104E+04  4.62467E+04 -7.80663E+03  5.00659E+04
 -3.15523E+04  3.38132E+04 -4.21421E+04  9.46159E+03 -4.23032E+04 -1.66399E+04 -2.32657E+04 -3.76807E+04
  7.34197E+03 -3.75130E+04  3.14806E+04 -1.48956E+04  2.94618E+04  1.10307E+04  3.83331E+03  1.91164E+04
 -1.35835E+04  8.18970E+03 -1.04745E+04 -7.58994E+03  6.02354E+03 -1.07991E+04  1.80492E+04  6.16885E+03
  1.32520E+04  2.19026E+04 -5.86164E+03  2.51378E+04 -2.21515E+04  1.16078E+04 -2.81249E+04 -4.89374E+03
 -2.02626E+04 -1.70743E+04 -8.05786E+03 -2.02752E+04  4.02878E+03 -1.94684E+04  1.58025E+04 -1.83284E+04
  2.59199E+04 -1.29382E+04  3.22508E+04  2.76158E+03  2.37619E+04  1.96572E+04  4.02578E+03  3.62151E+04
 -1.76728E+04  3.02748E+04 -2.76546E+04  1.03841E+04 -2.08988E+04 -1.05057E+04 -4.45432E+03 -1.34472E+04
  1.82776E+03 -2.71087E+03 -4.70148E+03  6.59111E+03 -1.58737E+04  5.22863E+03 -1.62855E+04 -6.76828E+03
 -9.77781E+03 -1.84788E+04  5.14350E+03 -2.25612E+04  1.52503E+04 -1.64090E+04  1.79739E+04 -1.51764E+03
  1.11352E+04  1.31229E+04 -7.71479E+02  1.89532E+04 -1.28535E+04  1.07053E+04 -1.82932E+04 -3.89817E+03
 -1.37804E+04 -1.68820E+04 -1.35132E+03 -2.26506E+04  1.01996E+04 -1.82344E+04  1.85491E+04 -8.89335E+03
  1.74121E+04  2.50016E+02  1.24173E+04  4.14926E+03  6.48581E+03  1.09734E+03  9.53460E+03 -1.51335E+03
  1.68265E+04  2.73301E+03  1.87820E+04  1.50989E+04  1.25506E+04  2.98200E+04 -2.89065E+03  3.30427E+04
 -1.92885E+04  2.64937E+04 -3.10147E+04  1.31439E+04 -3.21999E+04 -2.27946E+03 -2.67470E+04 -1.85812E+04
 -1.17369E+04 -2.67625E+04  9.09281E+03 -2.39979E+04  2.06648E+04 -1.24941E+04  1.89204E+04  5.11287E+03
  7.05322E+03  1.37224E+04 -8.66115E+03  1.23410E+04 -1.56111E+04  2.73626E+03 -1.20203E+04 -9.81181E+03
 -8.54579E+01 -1.49725E+04  7.70838E+03 -1.11365E+04  9.98114E+03 -1.44540E+03  2.26784E+03  6.02283E+03
 -6.33732E+03  2.27364E+03 -5.46306E+03 -5.42179E+03 -6.04942E+02 -1.29488E+04  9.54315E+03 -1.34710E+04
  1.60453E+04 -7.18485E+03  1.70126E+04  3.07743E+03  1.47363E+04  1.26476E+04  6.81685E+03  1.94358E+04
 -3.14283E+03  2.09438E+04 -1.32329E+04  1.35067E+04 -1.49916E+04  3.20981E+03 -1.07947E+04 -3.44067E+03
 -5.22907E+03 -4.65037E+03 -7.59440E+02  1.13622E+03 -2.47400E+03  2.59716E+03 -4.75896E+03  4.13380E+03
 -1.00871E+04 -3.98150E+02 -1.05581E+04 -8.51453E+03 -4.23556E+03 -1.41603E+04  4.35168E+03 -1.10509E+04
  8.85792E+03 -4.61058E+03  6.37309E+03  2.65524E+03  1.79424E+02  4.18579E+03 -4.69259E+03 -1.08769E+02
 -4.94869E+03 -6.83598E+03 -7.73650E+02 -9.97458E+03  5.43078E+03 -1.04923E+04  1.29094E+04 -5.69905E+03
  1.48718E+04  1.40964E+03  1.09911E+04  8.66216E+03  2.45483E+03  1.17949E+04 -6.61695E+03  1.06048E+04
 -8.60558E+03  3.07790E+03 -4.51181E+03 -1.77385E+03  1.55723E+03 -2.74660E+03  5.63635E+03 -9.65495E+02
  4.82393E+03  4.58558E+03  1.15455E+03  8.43996E+03 -5.80296E+03  8.12403E+03 -1.01233E+04  2.06083E+03
 -6.62537E+03 -5.05106E+03  1.10570E+02 -8.86352E+03  5.44060E+03 -4.34906E+03  5.26140E+03  1.70155E+03
  1.01806E+03  5.14802E+03 -5.21855E+03  6.80213E+03 -7.39786E+03  2.92259E+03 -7.07585E+03 -2.50006E+03
 -4.49735E+03 -8.29033E+03  2.07522E+03 -1.04970E+04  8.59624E+03 -6.39575E+03  9.46182E+03  1.47622E+03
  6.22157E+03  7.27192E+03 -6.59281E+02  9.56695E+03 -7.06683E+03  5.23052E+03 -7.40137E+03 -7.19784E+02
 -7.01539E+03 -6.58776E+03 -1.58898E+03 -7.28348E+03  3.77076E+03 -6.02304E+03  4.07309E+03 -2.80064E+03
  3.27764E+03  7.64114E+02  1.26005E+01  1.34035E+03  1.78030E+02 -1.23075E+03  5.45471E+02 -3.35991E+03
  5.74498E+03 -1.78212E+03  8.10380E+03  8.41254E+02  8.27487E+03  4.88426E+03  6.47595E+03  1.05319E+04
 -2.29143E+03  1.27296E+04 -1.08799E+04  9.39593E+03 -1.39491E+04  1.83496E+03 -1.11689E+04 -4.14271E+03
 -5.76250E+03 -8.88333E+03 -3.61873E+02 -7.75127E+03  2.76144E+03 -3.77742E+03  2.74731E+03 -2.86274E+03
  1.73835E+03 -2.20944E+03  2.85181E+03 -2.48106E+03  3.86812E+03 -2.09728E+03  4.97650E+03  3.18504E+02
  6.32283E+03  1.73855E+03  2.23501E+03  4.81700E+03 -2.01234E+03  4.90240E+03 -6.24232E+03  3.93236E+03
 -7.00503E+03 -1.15555E+03 -3.79015E+03 -4.74686E+03  1.88145E+02 -7.44008E+03  4.50193E+03 -7.69786E+03
  7.83009E+03 -4.58549E+03  9.47290E+03  7.40316E+02  6.78723E+03  6.35828E+03  1.10726E+03  8.75463E+03
 -3.49672E+03  7.84959E+03 -5.47165E+03  2.40061E+03 -3.11571E+03 -1.34054E+03 -8.40948E+02 -8.55084E+02
 -7.97507E+02  2.58806E+02 -1.44448E+03  1.98910E+03 -3.38213E+03  1.41446E+03 -5.48975E+03 -4.99280E+02
 -2.85342E+03 -5.63351E+03  5.40248E+02 -6.99915E+03  4.10125E+03 -6.29439E+03  6.03700E+03 -1.76055E+03
  6.26259E+03  3.13965E+03  2.67728E+03  5.41268E+03 -1.26699E+03  6.59064E+03 -4.06311E+03  4.00793E+03
 -5.71283E+03  2.25641E+02 -5.12145E+03 -4.01425E+03 -8.41805E+02 -4.72853E+03  2.52908E+03 -4.02509E+03
  4.11987E+03 -1.73807E+03  2.87487E+03  8.84878E+02  7.22092E+02  2.00171E+03  7.94728E+02  1.02075E+03
  1.86059E+03  4.31347E+02  1.77754E+03  1.09016E+03  1.95421E+03  3.02291E+03  2.11893E+03  3.18562E+03
 -1.78716E+03  4.69199E+03 -4.01883E+03  5.86068E+03 -5.39321E+03  1.48586E+03 -6.17160E+03 -1.67350E+03
 -2.77749E+03 -5.98296E+03  7.25258E+02 -7.11771E+03  3.25233E+03 -4.16607E+03  5.15786E+03 -1.28977E+03
  3.81326E+03  2.71897E+03  7.06924E+02  3.66272E+03 -1.18002E+03  1.88536E+03 -1.96961E+03 -2.60871E+02
 -1.38361E+03 -2.83684E+03  1.81483E+03 -2.71164E+03  2.15335E+03 -1.39508E+03  1.99196E+03  9.77710E+02
  1.35634E+03  7.73187E+02  1.07643E+03  4.50730E+02 -4.80228E+02  8.53106E+02  1.54510E+03 -1.77872E+02
  3.31356E+02 -5.26770E+02  2.46903E+03  9.97405E+02  7.49455E+02  3.56541E+03 -5.04490E+02  4.00355E+03
 -2.79005E+03  2.13610E+03 -3.32237E+03  6.79823E+02 -3.27634E+03 -1.35798E+03 -4.26069E+02 -1.82943E+03
 -2.03995E+01 -2.05683E+03  1.38116E+03 -1.03656E+03  9.14254E+02  1.38012E+03 -8.12661E+02  1.65060E+03
 -2.31432E+03  9.77077E+02 -2.09243E+03 -1.67768E+03 -1.29143E+03 -3.13860E+03  4.89660E+02 -2.58932E+03
  1.31566E+03 -1.20967E+03  1.98782E+03 -3.90800E+01  2.03494E+03  3.64062E+02  4.91687E+02  1.74521E+03
 -1.11468E+03  4.43306E+02 -1.31454E+03 -7.79350E+02  7.73961E+02 -1.65153E+03  2.60782E+03 -1.88392E+03
  2.69244E+03  1.99665E+02  3.98004E+03  1.86010E+03  1.56574E+03  2.80552E+03 -7.85581E+02  2.95402E+03
 -2.35401E+03  8.33801E+02 -2.48040E+03 -5.34807E+02 -1.26261E+03 -2.20528E+03  1.56749E+02 -1.45119E+03
  1.95629E+03 -8.18019E+02  1.19428E+03  1.15234E+03  1.71112E+02  1.86981E+03 -1.39892E+02  1.32124E+03
 -8.14017E+02  1.58509E+03 -6.81153E+02  2.30570E+02 -3.19838E+02  5.73567E+02 -7.06177E+02  8.53756E+02
 -9.61777E+02  1.49685E+03 -2.71409E+03  8.95189E+02 -2.74844E+03  2.08432E+02 -3.67511E+03 -1.76874E+03
 -1.62877E+03 -4.14956E+03  7.92368E+02 -4.36575E+03  2.13591E+03 -3.45881E+03  4.23495E+03 -1.71434E+03
  3.92261E+03  3.20847E+02  1.90284E+03  2.96534E+03 -3.93375E+02  2.68702E+03 -1.12549E+03  2.16511E+03
 -1.71269E+03  9.68947E+02 -7.18878E+02 -4.19409E+02 -7.22228E+02 -8.04763E+01 -7.19077E+02  1.69986E+02
 -1.07196E+03 -4.41283E+01 -9.28573E+02  7.93129E+01  1.26871E+02 -8.84620E+02 -4.29406E+02 -1.28549E+03
  1.86093E+03 -8.93400E+02  1.03887E+03  1.41810E+02  1.69122E+03  1.44396E+03 -1.70692E+02  2.69936E+03
 -1.39839E+03  3.26163E+03 -2.75795E+03  2.03655E+03 -2.90886E+03 -3.11427E+02 -2.32645E+03 -2.06732E+03
 -1.29950E+03 -2.42241E+03  3.89874E+02 -2.03333E+03  1.39273E+03 -1.46362E+03  1.27717E+03  1.18888E+02
  1.03089E+03  7.87685E+02  1.95493E+02  6.21569E+02 -5.37792E+02  2.71060E+01 -1.36059E+02 -4.25478E+02
  4.56193E+02  1.66399E+02  4.54297E+02  6.84097E+02  3.34982E+02  6.79387E+02  2.38299E+02  9.94550E+02
 -7.49033E+02  1.41162E+03 -1.34036E+03  7.26993E+00 -1.50033E+03 -9.24880E+02 -1.94940E+02 -2.12420E+03
  7.29662E+02 -1.61558E+03  1.27447E+03 -2.03853E+02  1.76747E+03 -3.80014E+01  1.07932E+03  1.64983E+03
  3.96005E+02  1.23155E+03 -5.60946E+02  1.12472E+03 -8.15903E+02  8.46055E+02 -6.99334E+02  1.01819E+02
 -1.29018E+02 -1.85323E+02 -8.54250E+02  3.42113E+02 -1.02182E+03  2.71472E+02 -1.01202E+03 -2.46751E+02
 -1.32991E+03  4.10756E+01 -4.08243E+02 -1.34438E+03  8.81911E+02 -2.15689E+03  8.54530E+02 -6.07055E+02
  1.24152E+03  1.95137E+02  1.91854E+02  5.54311E+02 -2.07252E+02  1.73870E+03 -1.13706E+03  1.26132E+03
