 $NMID ID='MM_0lb_SNR800_11hz_g45_8.RAW', FMTDAT='(8E13.5)'
 TRAMP=1., VOLUME=1. $END
  3.09555E+05  8.16197E+01  3.37677E+05  2.50737E+05  8.48017E+04  3.38228E+05 -1.32520E+05  2.51312E+05
 -1.90599E+05  8.34959E+04 -1.12019E+05 -3.24093E+04  6.37934E+02 -5.03664E+04  5.38430E+04  6.30878E+01
  3.54483E+04  5.28621E+04 -1.65815E+04  7.57034E+04 -6.07436E+04  6.36891E+04 -8.50714E+04  3.23266E+04
 -8.12865E+04 -1.15390E+04 -5.77814E+04 -5.14596E+04 -1.55624E+04 -7.05651E+04  2.77216E+04 -4.63388E+04
  4.04490E+04  4.01795E+03  1.65459E+04  4.84623E+04 -3.46721E+04  4.74431E+04 -6.74793E+04 -4.73931E+02
 -5.41119E+04 -5.71330E+04 -6.66567E+03 -7.80238E+04  3.44240E+04 -5.57649E+04  4.90719E+04 -1.76862E+04
  4.46447E+04  1.12395E+04  3.22178E+04  2.57073E+04  1.58270E+04  2.96409E+04 -5.42349E+03  2.74154E+04
 -2.23944E+04  1.21465E+04 -1.85944E+04 -5.37313E+03  6.24842E+03 -7.23242E+03  2.29955E+04  1.28135E+04
  7.27263E+03  3.64249E+04 -3.29031E+04  3.64135E+04 -6.46641E+04  2.27505E+03 -5.78535E+04 -4.37326E+04
 -1.24829E+04 -6.48076E+04  4.05088E+04 -4.63740E+04  5.97510E+04 -2.69246E+03  3.60133E+04  3.36007E+04
 -5.40712E+03  3.76489E+04 -3.11152E+04  1.71382E+04 -3.16297E+04 -4.01750E+03 -1.79212E+04 -1.14005E+04
 -9.13382E+03 -1.38650E+04 -4.91175E+02 -1.90576E+04  7.86407E+03 -2.32243E+04  1.60077E+04 -1.30124E+04
  1.11740E+04  5.59511E+03 -9.46579E+03  1.27380E+04 -2.22279E+04 -5.60543E+03 -8.44453E+03 -3.54995E+04
  2.38643E+04 -4.55346E+04  4.98516E+04 -2.04663E+04  4.67990E+04  2.02977E+04  1.68953E+04  4.54253E+04
 -1.61455E+04  3.44864E+04 -2.64057E+04  2.00779E+03 -1.04869E+04 -2.87893E+04  2.10627E+04 -3.53814E+04
  4.27307E+04 -1.01788E+04  3.78455E+04  2.43880E+04  1.94245E+04  4.85684E+04 -8.21813E+03  5.29426E+04
 -3.38699E+04  3.56558E+04 -4.45077E+04  1.06000E+04 -4.49879E+04 -1.73177E+04 -2.49174E+04 -3.99476E+04
  7.65534E+03 -3.97668E+04  3.28287E+04 -1.58908E+04  3.04258E+04  1.12881E+04  4.45834E+03  2.01946E+04
 -1.38173E+04  9.05451E+03 -1.10199E+04 -7.52044E+03  5.79939E+03 -1.08698E+04  1.81681E+04  5.89100E+03
  1.42486E+04  2.23460E+04 -5.63007E+03  2.60350E+04 -2.27933E+04  1.23850E+04 -2.94044E+04 -3.87927E+03
 -2.29854E+04 -1.78290E+04 -9.88656E+03 -2.27457E+04  3.82801E+03 -2.23517E+04  1.76529E+04 -2.02755E+04
  2.90383E+04 -1.34333E+04  3.51932E+04  3.87729E+03  2.54187E+04  2.22574E+04  4.20857E+03  3.85011E+04
 -1.86277E+04  3.20065E+04 -2.91752E+04  1.10148E+04 -2.14896E+04 -1.00599E+04 -4.47288E+03 -1.32867E+04
  1.38141E+03 -2.18840E+03 -5.94753E+03  7.44354E+03 -1.80361E+04  5.14745E+03 -1.82610E+04 -8.20870E+03
 -1.09358E+04 -2.08381E+04  5.85159E+03 -2.54105E+04  1.66981E+04 -1.83992E+04  2.03019E+04 -1.73142E+03
  1.30786E+04  1.49054E+04 -1.49768E+03  2.08165E+04 -1.52436E+04  1.21322E+04 -2.11116E+04 -4.19800E+03
 -1.53224E+04 -1.89431E+04 -2.13561E+03 -2.51335E+04  1.13774E+04 -2.11676E+04  2.11491E+04 -1.08927E+04
  2.00229E+04 -2.04938E+02  1.43858E+04  4.94085E+03  7.49982E+03  1.38966E+03  1.12244E+04 -2.17835E+03
  1.94436E+04  2.56851E+03  2.21047E+04  1.67258E+04  1.48567E+04  3.40302E+04 -2.58530E+03  3.93611E+04
 -2.24749E+04  3.19957E+04 -3.68099E+04  1.64383E+04 -3.89162E+04 -2.95662E+03 -3.16464E+04 -2.29683E+04
 -1.30021E+04 -3.21034E+04  1.14323E+04 -2.85270E+04  2.47579E+04 -1.41163E+04  2.13423E+04  6.51708E+03
  7.74799E+03  1.64358E+04 -1.01958E+04  1.42258E+04 -1.84281E+04  2.59383E+03 -1.38406E+04 -1.15650E+04
 -1.32818E+02 -1.69317E+04  9.21100E+03 -1.30735E+04  1.18799E+04 -1.32274E+03  2.84599E+03  7.86609E+03
 -8.09336E+03  3.30422E+03 -7.68312E+03 -6.08738E+03 -8.61404E+02 -1.55936E+04  1.08916E+04 -1.72169E+04
  1.99331E+04 -9.71409E+03  2.22117E+04  3.05324E+03  1.96104E+04  1.58941E+04  8.59673E+03  2.43868E+04
 -4.33283E+03  2.67226E+04 -1.73899E+04  1.64600E+04 -1.94770E+04  3.85792E+03 -1.31736E+04 -4.64382E+03
 -6.33146E+03 -5.67770E+03 -6.89839E+02  7.83806E+02 -2.65852E+03  3.00525E+03 -6.40416E+03  5.19716E+03
 -1.23949E+04 -9.11973E+02 -1.29112E+04 -1.02691E+04 -4.72624E+03 -1.71991E+04  5.56909E+03 -1.35500E+04
  1.13777E+04 -5.48189E+03  7.57522E+03  3.49934E+03 -3.96935E+01  5.20342E+03 -6.54061E+03 -1.93868E+02
 -6.29144E+03 -8.38187E+03 -1.19112E+03 -1.29629E+04  7.72387E+03 -1.40434E+04  1.68668E+04 -7.45079E+03
  1.96341E+04  1.78233E+03  1.44893E+04  1.19644E+04  2.72269E+03  1.59356E+04 -8.05259E+03  1.35545E+04
 -1.10374E+04  4.28990E+03 -5.77848E+03 -2.67797E+03  2.41950E+03 -3.39422E+03  7.23180E+03 -7.83556E+02
  6.50935E+03  5.75369E+03  1.11124E+03  1.08492E+04 -7.47824E+03  1.05976E+04 -1.31096E+04  2.45431E+03
 -9.03783E+03 -6.83641E+03  3.24683E+02 -1.12080E+04  7.03923E+03 -5.83899E+03  7.74947E+03  2.25142E+03
  1.98700E+03  8.13000E+03 -6.95983E+03  9.47104E+03 -1.09481E+04  4.35538E+03 -1.07974E+04 -4.08371E+03
 -6.26894E+03 -1.26038E+04  3.03878E+03 -1.47426E+04  1.25326E+04 -9.06218E+03  1.36134E+04  2.57471E+03
  7.93943E+03  1.06740E+04 -1.01319E+03  1.34760E+04 -9.74207E+03  7.41223E+03 -1.04521E+04 -1.12902E+03
 -9.10490E+03 -8.84339E+03 -1.39141E+03 -1.00065E+04  5.56712E+03 -8.14259E+03  6.17815E+03 -3.59361E+03
  4.08312E+03  1.37402E+03 -6.19007E+02  1.72459E+03 -2.72369E+02 -1.80087E+03  1.79180E+03 -6.18320E+03
  9.39348E+03 -3.42556E+03  1.27302E+04  1.42384E+03  1.26199E+04  8.67743E+03  8.34836E+03  1.67580E+04
 -3.61591E+03  1.93108E+04 -1.57528E+04  1.39872E+04 -2.05758E+04  2.73074E+03 -1.65616E+04 -6.90431E+03
 -8.44876E+03 -1.34661E+04 -5.11457E+02 -1.17107E+04  4.40794E+03 -6.09891E+03  3.76156E+03 -3.98627E+03
  3.08536E+03 -2.64034E+03  3.77092E+03 -3.45953E+03  5.58759E+03 -3.01457E+03  6.90785E+03 -7.13929E+02
  8.81636E+03  2.15468E+03  4.50826E+03  7.37838E+03 -2.02772E+03  8.26826E+03 -9.06257E+03  6.73983E+03
 -1.10535E+04 -1.53868E+03 -6.79587E+03 -8.17778E+03 -7.60369E+02 -1.25176E+04  6.96888E+03 -1.22552E+04
  1.24214E+04 -6.94450E+03  1.51846E+04  1.88302E+03  1.08795E+04  1.07122E+04  1.97075E+03  1.38132E+04
 -5.83342E+03  1.17079E+04 -7.88494E+03  3.90603E+03 -5.58737E+03 -1.53245E+03 -1.95263E+03 -1.42408E+03
 -1.14184E+03  8.10338E+01 -1.39102E+03  2.59236E+03 -5.02113E+03  2.02402E+03 -8.30326E+03 -1.05065E+03
 -5.43260E+03 -7.95919E+03 -1.47739E+02 -1.16347E+04  7.11687E+03 -1.06380E+04  1.06279E+04 -3.48731E+03
  1.11728E+04  5.63011E+03  4.99728E+03  9.84815E+03 -2.52128E+03  1.12078E+04 -7.87218E+03  6.80132E+03
 -1.04827E+04  2.89553E+02 -7.98384E+03 -6.89578E+03 -5.68701E+02 -9.23641E+03  4.55543E+03 -6.76443E+03
  7.22532E+03 -2.53725E+03  4.54496E+03  1.63153E+03  1.40457E+03  3.22741E+03  9.19149E+02  1.71191E+03
  2.30957E+03  8.64811E+02  2.49712E+03  1.36758E+03  3.30156E+03  4.19224E+03  2.77289E+03  5.97565E+03
 -2.58129E+03  8.74819E+03 -7.88754E+03  9.04707E+03 -1.14658E+04  2.25037E+03 -1.17307E+04 -4.44138E+03
 -5.31297E+03 -1.08338E+04  1.57533E+03 -1.25001E+04  6.77965E+03 -7.79137E+03  8.91422E+03 -2.05806E+03
  7.02274E+03  4.32886E+03  1.74689E+03  6.77548E+03 -3.03340E+03  3.62310E+03 -4.50750E+03 -8.14275E+02
 -2.39666E+03 -4.93101E+03  2.63388E+03 -5.03078E+03  4.42466E+03 -2.23260E+03  4.43799E+03  1.00591E+03
  2.88316E+03  2.31380E+03  8.40652E+02  1.41800E+03 -6.64706E+02  1.74533E+03  1.47776E+03 -3.99927E+02
  1.57291E+03 -4.88185E+02  4.56221E+03  1.83052E+03  2.55021E+03  6.22988E+03 -7.75256E+02  7.84135E+03
 -5.15153E+03  5.11050E+03 -7.32381E+03  1.80367E+03 -6.52909E+03 -2.28063E+03 -2.00118E+03 -4.18100E+03
  7.80028E+02 -4.18576E+03  2.77273E+03 -1.94494E+03  2.23956E+03  2.43401E+03 -1.13530E+03  3.41644E+03
 -4.57010E+03  1.95459E+03 -4.89095E+03 -2.94164E+03 -2.82569E+03 -6.19115E+03  8.70823E+02 -6.11829E+03
  3.51648E+03 -3.17032E+03  4.02673E+03 -6.73394E+01  3.73411E+03  1.59060E+03  5.87819E+02  3.47436E+03
 -2.21436E+03  7.85803E+02 -2.66673E+03 -2.00054E+03  1.04754E+03 -5.00823E+03  5.13849E+03 -3.70120E+03
  6.88885E+03  4.51359E+02  6.71530E+03  4.57272E+03  2.42910E+03  6.90944E+03 -2.50022E+03  7.17017E+03
 -5.83526E+03  2.73828E+03 -6.37352E+03 -1.08541E+03 -3.35304E+03 -4.64083E+03  1.26935E+03 -4.30783E+03
  4.54678E+03 -1.80189E+03  3.58605E+03  1.68610E+03  1.19101E+03  3.63023E+03 -5.10720E+02  3.45367E+03
 -1.74477E+03  2.31050E+03 -1.51207E+03  1.16979E+03 -7.42075E+02  7.92810E+02 -1.42599E+03  1.91954E+03
 -1.44152E+03  2.98588E+03 -5.03727E+03  2.20863E+03 -6.96684E+03  4.53610E+02 -7.82708E+03 -4.65403E+03
 -4.28735E+03 -9.29886E+03  2.00819E+03 -1.06316E+04  6.51492E+03 -8.52434E+03  9.90706E+03 -3.43128E+03
  9.14893E+03  1.89677E+03  5.92533E+03  6.14107E+03  1.21366E+02  6.77802E+03 -2.94185E+03  5.82473E+03
 -3.98559E+03  1.95305E+03 -2.79572E+03 -9.94725E+02 -9.54679E+02 -2.19197E+02 -9.98115E+02 -2.07737E+02
 -1.76999E+03 -2.19376E+01 -1.75464E+03 -1.81725E+02 -6.39029E+02 -1.55036E+03  1.55224E+01 -2.66415E+03
  3.05043E+03 -2.51689E+03  4.15643E+03 -6.60227E+01  4.88211E+03  3.86296E+03  1.12302E+03  6.84352E+03
 -3.34209E+03  7.94080E+03 -7.35741E+03  4.75666E+03 -8.05328E+03 -5.03431E+02 -6.49597E+03 -5.20301E+03
 -2.54262E+03 -7.16889E+03  1.39727E+03 -6.19817E+03  4.36702E+03 -3.25964E+03  4.41116E+03  2.07922E+02
  2.10599E+03  2.19099E+03 -5.87392E+02  1.82810E+03 -1.42189E+03  2.30554E+02  2.26609E+02 -1.63981E+03
  2.16604E+03 -6.14150E+02  2.74344E+03  9.30610E+02  1.73252E+03  2.68130E+03  2.36930E+02  3.52112E+03
 -3.15009E+03  3.15750E+03 -4.35567E+03  5.92089E+02 -4.18612E+03 -3.02889E+03 -6.92319E+02 -5.59299E+03
  3.10971E+03 -4.70642E+03  5.25973E+03 -9.25945E+02  5.19092E+03  1.03630E+03  2.96440E+03  4.23217E+03
  5.04514E+02  4.18528E+03 -1.56704E+03  3.59451E+03 -2.83057E+03  1.97114E+03 -2.34671E+03  7.23806E+01
 -1.20028E+03 -2.46276E+01 -1.42547E+03  4.25769E+02 -2.78008E+03  9.44597E+02 -3.51868E+03 -7.76036E+02
 -3.55098E+03 -2.22164E+03 -1.04794E+03 -4.45492E+03  2.09135E+03 -5.26835E+03  4.00975E+03 -2.35184E+03
  4.50607E+03  3.29262E+02  2.07703E+03  3.21973E+03 -9.19163E+01  4.62737E+03 -3.33873E+03  3.36612E+03
