 $NMID ID='MM_0lb_SNR800_15hz_g45_58.RAW', FMTDAT='(8E13.5)'
 TRAMP=1., VOLUME=1. $END
  3.09944E+05  3.71568E+02  3.37628E+05  2.50695E+05  8.50019E+04  3.37982E+05 -1.32884E+05  2.50892E+05
 -1.90073E+05  8.31216E+04 -1.11534E+05 -3.28277E+04  1.05265E+03 -5.05714E+04  5.39599E+04  3.62531E+02
  3.53120E+04  5.26163E+04 -1.68073E+04  7.54050E+04 -6.10361E+04  6.34798E+04 -8.35294E+04  3.21147E+04
 -8.02193E+04 -1.10819E+04 -5.67396E+04 -5.10406E+04 -1.49661E+04 -6.92643E+04  2.74065E+04 -4.54377E+04
  3.96909E+04  3.83995E+03  1.60092E+04  4.75224E+04 -3.43355E+04  4.67458E+04 -6.62509E+04 -1.64097E+02
 -5.24426E+04 -5.68020E+04 -6.58533E+03 -7.64540E+04  3.36493E+04 -5.42377E+04  4.73700E+04 -1.66980E+04
  4.24190E+04  1.13475E+04  3.15431E+04  2.51095E+04  1.57360E+04  2.89939E+04 -4.91572E+03  2.70813E+04
 -2.19075E+04  1.26534E+04 -1.90017E+04 -4.94273E+03  5.09309E+03 -7.73977E+03  2.18724E+04  1.19570E+04
  7.42917E+03  3.44890E+04 -3.15954E+04  3.49915E+04 -6.25280E+04  2.26425E+03 -5.64495E+04 -4.24273E+04
 -1.23555E+04 -6.24341E+04  3.90573E+04 -4.48721E+04  5.73854E+04 -2.07808E+03  3.33056E+04  3.16245E+04
 -6.18607E+03  3.53459E+04 -2.94258E+04  1.50315E+04 -2.95403E+04 -4.88076E+03 -1.61761E+04 -1.05919E+04
 -8.16680E+03 -1.24064E+04 -8.62532E+02 -1.78453E+04  6.96818E+03 -2.27696E+04  1.51892E+04 -1.34449E+04
  1.16757E+04  4.89160E+03 -7.56335E+03  1.26816E+04 -2.05152E+04 -3.68465E+03 -8.37804E+03 -3.23321E+04
  2.20046E+04 -4.28606E+04  4.71910E+04 -1.92698E+04  4.40368E+04  1.88024E+04  1.51092E+04  4.32573E+04
 -1.55471E+04  3.24155E+04 -2.48161E+04  1.69489E+03 -9.26515E+03 -2.73428E+04  2.09609E+04 -3.31550E+04
  4.03601E+04 -8.49055E+03  3.38461E+04  2.33506E+04  1.71520E+04  4.52640E+04 -7.64861E+03  4.88373E+04
 -3.06459E+04  3.25431E+04 -4.06378E+04  9.19987E+03 -4.11006E+04 -1.62149E+04 -2.25223E+04 -3.69326E+04
  7.19987E+03 -3.67845E+04  3.09471E+04 -1.37860E+04  2.86019E+04  1.06205E+04  3.67901E+03  1.86146E+04
 -1.34315E+04  7.89451E+03 -1.01409E+04 -7.48629E+03  5.59895E+03 -1.06809E+04  1.78738E+04  6.44333E+03
  1.31322E+04  2.21753E+04 -6.16450E+03  2.43609E+04 -2.18949E+04  1.06337E+04 -2.72024E+04 -5.44074E+03
 -1.93458E+04 -1.71699E+04 -7.80922E+03 -1.91482E+04  3.95303E+03 -1.80548E+04  1.45125E+04 -1.69314E+04
  2.44885E+04 -1.23417E+04  3.11976E+04  2.21122E+03  2.25614E+04  1.88853E+04  4.15122E+03  3.49380E+04
 -1.72984E+04  2.95120E+04 -2.67324E+04  1.02606E+04 -2.03916E+04 -1.02065E+04 -4.12845E+03 -1.36462E+04
  1.84799E+03 -3.15193E+03 -4.37560E+03  6.20797E+03 -1.52480E+04  5.16739E+03 -1.53531E+04 -6.61874E+03
 -9.57324E+03 -1.79195E+04  5.09964E+03 -2.16262E+04  1.44985E+04 -1.56608E+04  1.70291E+04 -1.63867E+03
  1.05258E+04  1.25773E+04 -8.40246E+02  1.80789E+04 -1.19973E+04  1.02203E+04 -1.77493E+04 -3.79317E+03
 -1.31962E+04 -1.60263E+04 -1.73116E+03 -2.16346E+04  9.75835E+03 -1.80582E+04  1.80931E+04 -8.41708E+03
  1.67708E+04  3.31139E+02  1.19176E+04  4.22924E+03  6.06978E+03  6.28733E+02  9.12522E+03 -1.47576E+03
  1.62605E+04  3.05945E+03  1.80000E+04  1.45812E+04  1.15437E+04  2.85012E+04 -3.00412E+03  3.18270E+04
 -1.87048E+04  2.50410E+04 -2.94500E+04  1.22891E+04 -3.07464E+04 -2.04457E+03 -2.53528E+04 -1.77683E+04
 -1.13655E+04 -2.53414E+04  8.58586E+03 -2.28969E+04  1.96911E+04 -1.23902E+04  1.79875E+04  4.98998E+03
  7.02551E+03  1.33093E+04 -8.34318E+03  1.20671E+04 -1.52912E+04  2.60442E+03 -1.19644E+04 -9.38130E+03
 -5.71169E+01 -1.47132E+04  7.06365E+03 -1.06926E+04  9.61771E+03 -1.31613E+03  1.94121E+03  6.13409E+03
 -6.52989E+03  2.41517E+03 -5.05356E+03 -5.12281E+03 -3.33027E+02 -1.23398E+04  8.94646E+03 -1.30567E+04
  1.51262E+04 -6.52167E+03  1.60381E+04  2.89641E+03  1.37854E+04  1.19028E+04  6.45044E+03  1.82832E+04
 -2.74856E+03  2.01284E+04 -1.25159E+04  1.25372E+04 -1.45341E+04  3.28959E+03 -1.03585E+04 -3.25375E+03
 -5.06840E+03 -4.77722E+03 -8.64045E+02  1.10339E+03 -2.20501E+03  2.34123E+03 -4.62931E+03  3.95330E+03
 -9.61802E+03 -5.54685E+02 -1.05161E+04 -8.50042E+03 -4.47418E+03 -1.36251E+04  4.43461E+03 -1.04159E+04
  8.92914E+03 -4.74616E+03  6.42878E+03  2.45416E+03  2.56578E+02  3.76230E+03 -4.53035E+03 -1.20060E+02
 -4.31308E+03 -6.63459E+03 -7.76281E+02 -9.03741E+03  5.50245E+03 -1.00850E+04  1.27920E+04 -5.09600E+03
  1.50295E+04  1.15970E+03  1.12564E+04  8.59616E+03  2.26395E+03  1.14285E+04 -6.60543E+03  1.01449E+04
 -8.27018E+03  3.39689E+03 -4.32783E+03 -1.82437E+03  1.48929E+03 -2.29884E+03  5.55350E+03 -9.01199E+02
  4.75707E+03  4.06982E+03  1.02555E+03  8.15429E+03 -5.84530E+03  7.75191E+03 -9.94283E+03  2.04570E+03
 -6.22665E+03 -4.57326E+03  1.55396E+01 -8.72160E+03  4.83980E+03 -4.23696E+03  5.16148E+03  1.77292E+03
  8.59998E+02  5.11476E+03 -5.24282E+03  6.79644E+03 -7.03172E+03  3.32603E+03 -6.95797E+03 -2.12433E+03
 -4.13811E+03 -8.66940E+03  2.14744E+03 -1.02866E+04  8.36709E+03 -6.46576E+03  9.29276E+03  1.36338E+03
  6.26032E+03  7.33501E+03 -4.91995E+02  9.50281E+03 -6.91629E+03  5.27329E+03 -7.14565E+03 -5.47098E+02
 -7.23345E+03 -6.56013E+03 -1.25195E+03 -6.70681E+03  3.40478E+03 -5.88006E+03  4.16206E+03 -3.09751E+03
  3.38751E+03  5.70096E+02 -4.30849E+01  1.27846E+03  1.84247E+02 -1.08363E+03  6.26487E+02 -3.35437E+03
  5.78917E+03 -1.92362E+03  7.97820E+03  1.01122E+03  8.31183E+03  5.27970E+03  6.63225E+03  1.06763E+04
 -2.11885E+03  1.23564E+04 -1.03670E+04  9.43902E+03 -1.37050E+04  1.55631E+03 -1.07369E+04 -4.18199E+03
 -5.36684E+03 -9.14234E+03 -6.10632E+02 -7.47267E+03  2.62736E+03 -3.60184E+03  2.48259E+03 -2.72645E+03
  2.02860E+03 -1.97195E+03  2.42080E+03 -2.72449E+03  3.93590E+03 -1.84921E+03  4.53966E+03 -7.30854E+01
  5.93619E+03  1.70573E+03  2.42755E+03  4.99614E+03 -1.71185E+03  5.01281E+03 -6.18851E+03  4.00396E+03
 -7.67265E+03 -1.05595E+03 -3.66406E+03 -4.99744E+03 -1.78320E+02 -7.49709E+03  4.64218E+03 -8.20115E+03
  8.07507E+03 -4.72082E+03  9.99286E+03  7.68631E+02  7.23556E+03  6.32088E+03  1.57776E+03  8.96466E+03
 -3.58176E+03  7.86010E+03 -4.86821E+03  2.46682E+03 -3.24602E+03 -1.21779E+03 -1.07410E+03 -1.12934E+03
 -7.58564E+02  1.50949E+02 -1.10669E+03  2.36487E+03 -3.38066E+03  1.42839E+03 -5.44498E+03 -5.55125E+02
 -2.99018E+03 -5.46556E+03  7.12467E+02 -7.18766E+03  4.31253E+03 -6.70667E+03  6.26436E+03 -1.90095E+03
  6.60414E+03  3.41679E+03  3.08644E+03  5.82735E+03 -1.30986E+03  7.01147E+03 -4.75215E+03  4.15697E+03
 -6.21718E+03  2.98251E+02 -5.13979E+03 -3.75708E+03 -8.24737E+01 -5.44854E+03  2.57137E+03 -3.81344E+03
  4.30747E+03 -1.66882E+03  3.00327E+03  8.95476E+02  8.88958E+02  2.05196E+03  9.55296E+02  7.91893E+02
  2.06906E+03  5.87536E+02  1.68582E+03  1.15492E+03  1.85501E+03  2.72865E+03  2.02609E+03  3.30020E+03
 -1.79608E+03  5.17568E+03 -4.44476E+03  5.85620E+03 -5.76863E+03  1.47249E+03 -6.85595E+03 -1.72107E+03
 -2.83954E+03 -6.33836E+03  1.42175E+03 -7.64455E+03  3.62010E+03 -4.58594E+03  5.01469E+03 -1.34844E+03
  4.21042E+03  2.44784E+03  7.77550E+02  3.95642E+03 -1.53761E+03  2.24656E+03 -2.38212E+03 -2.79337E+02
 -1.10124E+03 -2.75010E+03  1.65433E+03 -2.66436E+03  2.30554E+03 -1.38522E+03  2.41468E+03  5.80397E+02
  1.29192E+03  7.62224E+02  1.14538E+03  4.31220E+02 -5.64568E+02  7.99593E+02  1.65933E+03 -5.11081E+02
  4.53304E+02 -4.66247E+02  2.41837E+03  1.03316E+03  1.14107E+03  3.76515E+03 -2.88870E+02  4.78321E+03
 -2.75734E+03  2.23320E+03 -3.77776E+03  9.65522E+02 -3.61212E+03 -1.33305E+03 -4.62301E+02 -1.89598E+03
  3.20278E+02 -1.96795E+03  1.61035E+03 -9.04464E+02  1.39210E+03  1.91200E+03 -8.17105E+02  2.03648E+03
 -2.26925E+03  1.08238E+03 -2.50801E+03 -1.48687E+03 -1.51825E+03 -3.38162E+03  3.93914E+02 -3.28222E+03
  1.38257E+03 -1.52366E+03  1.89893E+03 -3.27751E+01  2.15562E+03  1.75016E+02  3.21826E+02  1.91199E+03
 -9.75937E+02  1.34737E+02 -1.54538E+03 -5.62732E+02  8.74956E+02 -1.69680E+03  2.88592E+03 -1.57475E+03
  2.97770E+03  4.08634E+02  4.46239E+03  1.79582E+03  1.56400E+03  3.40836E+03 -9.20069E+02  3.76843E+03
 -2.59014E+03  1.00298E+03 -3.39289E+03 -3.10270E+02 -1.57587E+03 -2.42951E+03  5.09350E+02 -1.57865E+03
  2.48260E+03 -1.28882E+03  1.67747E+03  1.09080E+03  3.58930E+02  2.17334E+03  3.37430E+02  1.91164E+03
 -6.69766E+02  1.19174E+03 -6.25218E+02  3.25453E+02 -2.26644E+02  4.63315E+02 -8.56671E+02  1.25373E+03
 -1.12105E+03  1.42333E+03 -2.66843E+03  1.09253E+03 -3.20795E+03  2.40684E+02 -3.96338E+03 -2.11076E+03
 -2.29007E+03 -4.36118E+03  8.48549E+02 -5.63445E+03  2.79730E+03 -4.01452E+03  5.11402E+03 -1.67186E+03
  4.41398E+03  3.87172E+02  2.78831E+03  3.29406E+03 -1.87620E+02  3.13331E+03 -1.32215E+03  2.83779E+03
 -2.16710E+03  1.28030E+03 -1.15555E+03 -5.94061E+02 -7.02208E+02 -1.17502E+02 -1.12120E+03 -3.08354E+01
 -1.23748E+03 -1.16751E+02 -1.17915E+03  1.49564E+02  3.63360E+01 -1.05192E+03 -5.78817E+02 -1.53436E+03
  1.66820E+03 -9.49960E+02  1.63125E+03  1.71627E+02  2.59040E+03  1.98637E+03  2.09602E+02  3.24445E+03
 -1.67327E+03  3.87510E+03 -3.07046E+03  2.30365E+03 -3.68141E+03 -7.08214E+01 -2.61747E+03 -2.49186E+03
 -1.40169E+03 -3.04743E+03  5.58166E+02 -2.50395E+03  1.89954E+03 -1.34316E+03  1.72089E+03  2.53714E+02
  1.10933E+03  9.72776E+02  5.76143E+01  8.69560E+02 -6.75091E+02 -1.89226E+02 -2.45157E+02 -6.42995E+02
  1.14492E+03 -2.62288E+02  8.90898E+02  6.26916E+02  5.09327E+02  9.60110E+02  5.19988E+02  1.45515E+03
 -1.31064E+03  1.35307E+03 -1.67989E+03 -5.74730E+01 -1.72842E+03 -1.10026E+03 -1.59835E+01 -2.60595E+03
  1.15143E+03 -1.94494E+03  1.98306E+03 -5.90270E+02  2.12180E+03 -1.38817E+02  1.11808E+03  1.72075E+03
  5.82869E+02  1.28192E+03 -5.88619E+02  1.22245E+03 -1.38662E+03  1.36546E+03 -6.07530E+02  1.45028E+02
 -4.42386E+02  1.08878E+01 -7.73151E+02  1.66643E+02 -1.32566E+03  1.56125E+02 -1.95610E+03 -2.13184E+02
 -1.89165E+03 -5.42188E+02 -5.80392E+02 -1.86562E+03  1.24837E+03 -2.47080E+03  1.74349E+03 -4.39068E+02
  1.81296E+03  4.90251E+02  5.67055E+02  1.19507E+03 -1.43835E+02  1.46773E+03 -8.30536E+02  1.08565E+03
