 $NMID ID='MM_0lb_SNR800_7hz_g55_7.RAW', FMTDAT='(8E13.5)'
 TRAMP=1., VOLUME=1. $END
  3.09814E+05  2.06425E+02  3.37984E+05  2.50843E+05  8.53397E+04  3.38909E+05 -1.32288E+05  2.52577E+05
 -1.91238E+05  8.37706E+04 -1.12529E+05 -3.24064E+04 -1.44160E+02 -5.06280E+04  5.38329E+04 -5.68447E+02
  3.56490E+04  5.25270E+04 -1.65328E+04  7.63729E+04 -6.13342E+04  6.47812E+04 -8.58208E+04  3.29123E+04
 -8.30387E+04 -1.20756E+04 -5.85891E+04 -5.29889E+04 -1.55094E+04 -7.18918E+04  2.88236E+04 -4.72304E+04
  4.13761E+04  3.62889E+03  1.67220E+04  4.89122E+04 -3.47832E+04  4.87014E+04 -6.85491E+04  4.27713E+02
 -5.51726E+04 -5.80372E+04 -7.77530E+03 -8.01065E+04  3.47225E+04 -5.76293E+04  5.07029E+04 -1.86262E+04
  4.58396E+04  1.20689E+04  3.37241E+04  2.69001E+04  1.62841E+04  3.13772E+04 -6.38684E+03  2.81824E+04
 -2.23184E+04  1.14817E+04 -1.82817E+04 -6.50960E+03  7.75916E+03 -7.54662E+03  2.39021E+04  1.44131E+04
  6.74081E+03  3.85214E+04 -3.47005E+04  3.78809E+04 -6.70013E+04  2.16426E+03 -5.94833E+04 -4.54763E+04
 -1.25574E+04 -6.68323E+04  4.23186E+04 -4.83059E+04  6.28598E+04 -3.06336E+03  3.82746E+04  3.57272E+04
 -5.73569E+03  4.06881E+04 -3.31274E+04  1.98499E+04 -3.50151E+04 -3.17452E+03 -2.08147E+04 -1.28496E+04
 -9.74217E+03 -1.61387E+04 -2.29844E+00 -2.10267E+04  9.23762E+03 -2.40241E+04  1.57690E+04 -1.22108E+04
  1.04134E+04  7.06394E+03 -1.15628E+04  1.25718E+04 -2.47710E+04 -7.51129E+03 -8.39954E+03 -3.95687E+04
  2.67347E+04 -4.88758E+04  5.37231E+04 -2.15020E+04  5.05312E+04  2.20050E+04  1.85196E+04  4.86568E+04
 -1.67545E+04  3.78588E+04 -2.93949E+04  2.70168E+03 -1.29273E+04 -3.01725E+04  2.21102E+04 -3.81376E+04
  4.67060E+04 -1.20399E+04  4.30759E+04  2.56662E+04  2.34026E+04  5.33944E+04 -8.24607E+03  5.89586E+04
 -3.73088E+04  4.04768E+04 -4.99557E+04  1.16287E+04 -4.99062E+04 -1.94397E+04 -2.72435E+04 -4.45195E+04
  8.13234E+03 -4.41830E+04  3.56284E+04 -1.80725E+04  3.30640E+04  1.14487E+04  6.22406E+03  2.20086E+04
 -1.43388E+04  1.01138E+04 -1.12778E+04 -7.08387E+03  5.27614E+03 -1.18056E+04  1.87584E+04  5.29867E+03
  1.53248E+04  2.32590E+04 -4.91215E+03  2.80518E+04 -2.35917E+04  1.58293E+04 -3.33278E+04 -1.70644E+03
 -2.73582E+04 -1.89509E+04 -1.35362E+04 -2.73852E+04  4.60805E+03 -2.88747E+04  2.19002E+04 -2.57683E+04
  3.54798E+04 -1.46696E+04  4.08554E+04  6.22747E+03  2.87757E+04  2.65350E+04  4.69468E+03  4.41925E+04
 -2.10438E+04  3.55879E+04 -3.16857E+04  1.28318E+04 -2.34114E+04 -1.02085E+04 -5.44761E+03 -1.24747E+04
  3.39736E+02 -4.40632E+02 -9.45270E+03  9.30162E+03 -2.17331E+04  4.57017E+03 -2.19353E+04 -1.07295E+04
 -1.29523E+04 -2.59529E+04  6.52965E+03 -3.01980E+04  2.06365E+04 -2.08728E+04  2.50191E+04 -1.95276E+03
  1.64068E+04  1.75403E+04 -1.83477E+03  2.54800E+04 -1.87885E+04  1.47306E+04 -2.62372E+04 -5.27652E+03
 -1.86614E+04 -2.24905E+04 -2.56679E+03 -3.07919E+04  1.40284E+04 -2.55353E+04  2.53821E+04 -1.36358E+04
  2.43118E+04 -9.02729E+02  1.70199E+04  6.59972E+03  9.65821E+03  1.38461E+03  1.38545E+04 -2.78387E+03
  2.45394E+04  2.80673E+03  2.84315E+04  1.98149E+04  1.99418E+04  4.14349E+04 -2.25239E+03  4.97576E+04
 -2.79547E+04  4.19329E+04 -4.73613E+04  2.17803E+04 -5.08355E+04 -3.18066E+03 -4.07160E+04 -3.00326E+04
 -1.55084E+04 -4.22355E+04  1.47935E+04 -3.66170E+04  3.12213E+04 -1.68873E+04  2.70900E+04  9.03111E+03
  8.58679E+03  2.13785E+04 -1.28984E+04  1.77148E+04 -2.20804E+04  2.68734E+03 -1.66934E+04 -1.44904E+04
 -2.69559E+02 -2.13983E+04  1.14869E+04 -1.54862E+04  1.49298E+04 -1.32811E+03  3.70602E+03  1.01861E+04
 -9.51500E+03  4.82629E+03 -1.10426E+04 -7.55409E+03 -3.13420E+03 -2.08825E+04  1.29662E+04 -2.31874E+04
  2.64363E+04 -1.37375E+04  3.10888E+04  3.23726E+03  2.69614E+04  2.17544E+04  1.21990E+04  3.44678E+04
 -6.72098E+03  3.60944E+04 -2.40583E+04  2.21888E+04 -2.68904E+04  3.79886E+03 -1.77281E+04 -7.59404E+03
 -7.57941E+03 -8.85078E+03 -3.41717E+02 -2.16501E+02 -3.50450E+03  3.54835E+03 -8.75653E+03  6.62148E+03
 -1.67285E+04 -1.09274E+03 -1.64585E+04 -1.29885E+04 -6.73811E+03 -2.19016E+04  7.62056E+03 -1.79414E+04
  1.48664E+04 -7.48447E+03  1.06861E+04  4.64474E+03 -6.27641E+02  7.20081E+03 -9.24926E+03 -1.26699E+02
 -8.92600E+03 -1.15682E+04 -1.38943E+03 -1.79391E+04  1.06971E+04 -1.92475E+04  2.37244E+04 -1.03751E+04
  2.76247E+04  3.31961E+03  1.95010E+04  1.74526E+04  3.93250E+03  2.26860E+04 -1.10748E+04  1.83501E+04
 -1.50941E+04  4.84541E+03 -7.78896E+03 -4.48494E+03  2.66145E+03 -5.61881E+03  9.76763E+03 -8.97903E+02
  8.61399E+03  8.27361E+03  1.00745E+03  1.44482E+04 -1.01752E+04  1.43514E+04 -1.83612E+04  3.21176E+03
 -1.26475E+04 -1.00841E+04  8.84236E+01 -1.59003E+04  1.05403E+04 -8.18463E+03  1.07785E+04  3.67587E+03
  2.76786E+03  1.23502E+04 -1.02521E+04  1.44062E+04 -1.66992E+04  5.81205E+03 -1.70563E+04 -6.57616E+03
 -9.72672E+03 -1.95639E+04  4.56979E+03 -2.23581E+04  1.88585E+04 -1.29096E+04  2.06497E+04  4.11050E+03
  1.19417E+04  1.61264E+04 -2.37317E+03  1.95988E+04 -1.38258E+04  1.04703E+04 -1.49207E+04 -1.55104E+03
 -1.25507E+04 -1.27944E+04 -1.95130E+03 -1.46000E+04  8.28433E+03 -1.11268E+04  9.51461E+03 -3.53913E+03
  5.74107E+03  2.72288E+03 -1.18493E+03  1.86804E+03 -1.56908E+03 -4.93641E+03  3.54373E+03 -9.66149E+03
  1.44088E+04 -6.22451E+03  2.05483E+04  1.98311E+03  1.93360E+04  1.38473E+04  1.16946E+04  2.59548E+04
 -6.35983E+03  2.98501E+04 -2.44454E+04  2.15830E+04 -3.23422E+04  4.32873E+03 -2.58959E+04 -1.13609E+04
 -1.34069E+04 -2.11393E+04  2.47200E+01 -1.80658E+04  6.43693E+03 -1.08754E+04  6.64391E+03 -6.71399E+03
  4.60757E+03 -3.78617E+03  5.08248E+03 -4.61588E+03  6.72128E+03 -4.26294E+03  9.72753E+03 -1.69322E+03
  1.30424E+04  3.08193E+03  7.64192E+03  1.15090E+04 -2.53832E+03  1.44679E+04 -1.48763E+04  1.10902E+04
 -1.86414E+04 -1.79827E+03 -1.28085E+04 -1.27180E+04 -2.44545E+03 -2.04358E+04  1.08153E+04 -2.03030E+04
  2.13222E+04 -1.13461E+04  2.40742E+04  3.79950E+03  1.70768E+04  1.77299E+04  1.88509E+03  2.26700E+04
 -9.39394E+03  1.77242E+04 -1.31620E+04  6.17715E+03 -9.47483E+03 -2.18893E+03 -4.51710E+03 -3.00081E+03
 -2.16844E+03 -8.00740E+02 -2.72532E+03  3.69800E+03 -7.51421E+03  2.91390E+03 -1.23701E+04 -2.48346E+03
 -1.01093E+04 -1.24401E+04 -2.34521E+02 -1.92752E+04  1.20470E+04 -1.73292E+04  1.95279E+04 -5.47883E+03
  1.91363E+04  9.16902E+03  8.65223E+03  1.72297E+04 -3.81419E+03  1.96292E+04 -1.35624E+04  1.24885E+04
 -1.87045E+04  5.49093E+02 -1.34826E+04 -1.18116E+04 -1.51717E+03 -1.69310E+04  8.87755E+03 -1.22040E+04
  1.22358E+04 -3.26999E+03  8.43238E+03  3.81073E+03  3.05267E+03  5.66803E+03  1.27197E+03  2.70971E+03
  3.60080E+03  1.39570E+03  4.76857E+03  2.88578E+03  5.77082E+03  6.33521E+03  4.87405E+03  1.07965E+04
 -3.75352E+03  1.52239E+04 -1.39965E+04  1.51826E+04 -2.10405E+04  3.87296E+03 -2.07231E+04 -9.02392E+03
 -1.00475E+04 -2.01493E+04  3.00082E+03 -2.16556E+04  1.22686E+04 -1.44287E+04  1.65914E+04 -3.21870E+03
  1.23260E+04  7.77350E+03  2.72571E+03  1.16227E+04 -5.79931E+03  7.77917E+03 -8.64219E+03 -1.08930E+03
 -4.08671E+03 -8.60185E+03  4.65509E+03 -8.54152E+03  8.81772E+03 -4.16506E+03  8.08541E+03  2.37682E+03
  5.20098E+03  4.64662E+03  1.68887E+03  3.60358E+03 -1.14202E+03  3.03951E+03  1.73000E+03 -5.20315E+02
  3.30827E+03 -1.12132E+03  8.04156E+03  2.98291E+03  5.04336E+03  1.09453E+04 -1.64703E+03  1.43030E+04
 -9.65529E+03  9.87965E+03 -1.35312E+04  2.43442E+03 -1.18170E+04 -4.67522E+03 -5.11971E+03 -8.53105E+03
  8.74926E+02 -8.16076E+03  5.90815E+03 -4.17782E+03  4.61267E+03  3.93441E+03 -1.77563E+03  6.76918E+03
 -8.73695E+03  4.09232E+03 -1.03160E+04 -4.67212E+03 -6.06531E+03 -1.11402E+04  2.05008E+03 -1.17299E+04
  7.21596E+03 -7.11451E+03  8.71211E+03 -6.40362E+02  7.12600E+03  3.49416E+03  9.78973E+02  5.83846E+03
 -4.01945E+03  1.54268E+03 -4.93678E+03 -3.94488E+03  1.66092E+03 -9.52669E+03  1.07991E+04 -7.70606E+03
  1.37384E+04  8.70955E+02  1.28993E+04  9.61997E+03  3.86038E+03  1.46304E+04 -5.39974E+03  1.36049E+04
 -1.15760E+04  6.08945E+03 -1.22566E+04 -2.33962E+03 -6.66494E+03 -9.34165E+03  2.56846E+03 -8.87157E+03
  8.64834E+03 -4.23603E+03  7.23426E+03  3.63894E+03  2.52798E+03  7.86083E+03 -1.73879E+03  6.86430E+03
 -3.94892E+03  4.21193E+03 -3.50944E+03  1.47550E+03 -1.66886E+03  1.66829E+03 -2.20754E+03  2.86301E+03
 -3.50291E+03  5.13256E+03 -8.95797E+03  5.14312E+03 -1.45210E+04 -6.01439E+01 -1.58949E+04 -9.52061E+03
 -8.43328E+03 -1.93515E+04  3.72380E+03 -2.22223E+04  1.36579E+04 -1.71132E+04  2.09775E+04 -6.73997E+03
  1.94827E+04  4.59595E+03  1.24247E+04  1.34373E+04  1.52820E+03  1.54686E+04 -6.35576E+03  1.14562E+04
 -8.99296E+03  4.19964E+03 -5.38877E+03 -2.33303E+03 -1.93697E+03 -1.55158E+03 -8.51011E+02 -4.11120E+02
 -2.23630E+03  9.07762E+02 -2.93222E+03 -3.39220E+02 -9.13237E+02 -3.40724E+03  9.34517E+02 -5.11403E+03
  6.37334E+03 -4.66359E+03  9.50679E+03 -4.40710E+02  1.10701E+04  8.71731E+03  3.52933E+03  1.51449E+04
 -7.61224E+03  1.70284E+04 -1.64875E+04  1.01283E+04 -1.88543E+04 -1.98565E+03 -1.43695E+04 -1.16818E+04
 -5.69746E+03 -1.60124E+04  4.01545E+03 -1.48824E+04  1.01829E+04 -8.35631E+03  9.85339E+03  7.71902E+02
  5.59452E+03  5.52707E+03 -4.78818E+02  4.39137E+03 -2.57434E+03 -5.37782E+02  2.20760E+02 -3.36625E+03
  4.68843E+03 -2.36692E+03  6.50269E+03  1.62707E+03  4.42997E+03  6.27142E+03 -2.25229E+02  8.61124E+03
 -6.66166E+03  7.53764E+03 -1.10369E+04  6.35037E+02 -9.28277E+03 -7.76786E+03 -1.38672E+03 -1.37524E+04
  7.30973E+03 -1.14163E+04  1.26885E+04 -3.54801E+03  1.20295E+04  3.40155E+03  7.86949E+03  9.95775E+03
  1.55331E+03  1.03332E+04 -4.11270E+03  8.75919E+03 -6.80506E+03  4.73446E+03 -5.78535E+03  9.88990E+02
 -2.83156E+03 -5.79978E+02 -2.59789E+03  1.35830E+03 -5.61399E+03  2.29563E+03 -8.14812E+03 -1.99345E+03
 -7.47647E+03 -6.33929E+03 -2.57408E+03 -1.10283E+04  4.56916E+03 -1.15797E+04  9.67685E+03 -5.52374E+03
  1.08461E+04  1.61256E+03  6.69579E+03  8.06926E+03 -6.63762E+02  1.08653E+04 -8.35966E+03  6.75344E+03
