 $NMID ID='MM_0lb_SNR800_12hz_g55_28.RAW', FMTDAT='(8E13.5)'
 TRAMP=1., VOLUME=1. $END
  3.09743E+05  5.16792E+02  3.37830E+05  2.50662E+05  8.47259E+04  3.38192E+05 -1.32378E+05  2.51241E+05
 -1.90825E+05  8.30790E+04 -1.11902E+05 -3.21332E+04  6.42723E+02 -5.04874E+04  5.39092E+04 -5.46611E+02
  3.55828E+04  5.26210E+04 -1.65732E+04  7.55489E+04 -6.12901E+04  6.41949E+04 -8.50760E+04  3.21832E+04
 -8.21241E+04 -1.14745E+04 -5.75655E+04 -5.19308E+04 -1.49629E+04 -7.06076E+04  2.76583E+04 -4.64595E+04
  4.09150E+04  3.54647E+03  1.63547E+04  4.84083E+04 -3.46967E+04  4.81550E+04 -6.75084E+04 -1.97133E+02
 -5.39800E+04 -5.72238E+04 -7.32641E+03 -7.83388E+04  3.46209E+04 -5.62311E+04  4.89332E+04 -1.76153E+04
  4.45475E+04  1.17291E+04  3.26856E+04  2.58782E+04  1.57587E+04  3.03428E+04 -5.40128E+03  2.70524E+04
 -2.23521E+04  1.21359E+04 -1.81920E+04 -5.14295E+03  6.29668E+03 -7.54342E+03  2.31584E+04  1.30222E+04
  7.03067E+03  3.62521E+04 -3.32350E+04  3.63207E+04 -6.45135E+04  2.01272E+03 -5.80365E+04 -4.40680E+04
 -1.26081E+04 -6.46611E+04  4.05111E+04 -4.63122E+04  5.97278E+04 -1.86935E+03  3.54561E+04  3.38948E+04
 -5.36406E+03  3.78919E+04 -3.12473E+04  1.77845E+04 -3.13529E+04 -3.65704E+03 -1.83218E+04 -1.18827E+04
 -9.18124E+03 -1.41720E+04 -3.73118E+02 -1.86356E+04  8.10562E+03 -2.34088E+04  1.56760E+04 -1.29031E+04
  1.08778E+04  5.65667E+03 -9.31917E+03  1.32118E+04 -2.26142E+04 -5.69563E+03 -8.43182E+03 -3.60625E+04
  2.40570E+04 -4.54986E+04  5.03015E+04 -2.08048E+04  4.72518E+04  1.99639E+04  1.65013E+04  4.55008E+04
 -1.64612E+04  3.48693E+04 -2.68887E+04  2.55209E+03 -1.09286E+04 -2.88736E+04  2.11561E+04 -3.59566E+04
  4.33163E+04 -1.01116E+04  3.83652E+04  2.43961E+04  2.02977E+04  4.86495E+04 -8.25830E+03  5.36763E+04
 -3.33840E+04  3.63421E+04 -4.51580E+04  1.03875E+04 -4.51332E+04 -1.72070E+04 -2.47913E+04 -4.01059E+04
  7.42148E+03 -3.99108E+04  3.29691E+04 -1.57800E+04  3.05777E+04  1.10523E+04  4.58457E+03  2.04640E+04
 -1.35051E+04  9.19878E+03 -1.05874E+04 -7.70558E+03  6.12060E+03 -1.07778E+04  1.85643E+04  6.02929E+03
  1.40092E+04  2.26399E+04 -5.52171E+03  2.60803E+04 -2.26754E+04  1.32415E+04 -3.00010E+04 -4.05417E+03
 -2.34575E+04 -1.80581E+04 -9.96211E+03 -2.29511E+04  4.19115E+03 -2.30028E+04  1.82974E+04 -2.08159E+04
  2.97989E+04 -1.34059E+04  3.52266E+04  3.92828E+03  2.50664E+04  2.24709E+04  4.64261E+03  3.90254E+04
 -1.86181E+04  3.24142E+04 -2.93821E+04  1.17050E+04 -2.17807E+04 -1.03231E+04 -4.76571E+03 -1.31414E+04
  1.36771E+03 -1.73764E+03 -6.27853E+03  7.34218E+03 -1.82162E+04  4.97368E+03 -1.83405E+04 -8.16390E+03
 -1.11372E+04 -2.08873E+04  5.87963E+03 -2.58322E+04  1.69023E+04 -1.83685E+04  2.02658E+04 -2.27165E+03
  1.27818E+04  1.47934E+04 -1.24238E+03  2.10317E+04 -1.50119E+04  1.19158E+04 -2.11605E+04 -4.18283E+03
 -1.58298E+04 -1.88590E+04 -2.00544E+03 -2.56393E+04  1.13566E+04 -2.10776E+04  2.11835E+04 -1.04706E+04
  1.98731E+04  1.96260E+02  1.40815E+04  5.31430E+03  7.73434E+03  1.35425E+03  1.09940E+04 -1.68918E+03
  1.97424E+04  3.01862E+03  2.23015E+04  1.67816E+04  1.51350E+04  3.41896E+04 -3.22843E+03  3.94095E+04
 -2.20803E+04  3.18442E+04 -3.69387E+04  1.66569E+04 -3.87776E+04 -3.11055E+03 -3.22253E+04 -2.26704E+04
 -1.33837E+04 -3.21515E+04  1.14396E+04 -2.86339E+04  2.48358E+04 -1.41482E+04  2.15563E+04  6.72293E+03
  7.61087E+03  1.67570E+04 -1.02403E+04  1.41241E+04 -1.82041E+04  2.43193E+03 -1.37369E+04 -1.13937E+04
 -6.07945E+02 -1.73753E+04  9.09778E+03 -1.25414E+04  1.16566E+04 -1.54406E+03  2.93832E+03  7.68969E+03
 -7.55138E+03  3.17362E+03 -7.63163E+03 -6.32285E+03 -1.46971E+03 -1.59679E+04  1.07302E+04 -1.65799E+04
  1.96186E+04 -9.20414E+03  2.18547E+04  2.94289E+03  1.93418E+04  1.60387E+04  8.89086E+03  2.44380E+04
 -4.49615E+03  2.66962E+04 -1.73054E+04  1.63865E+04 -1.89785E+04  3.47957E+03 -1.29333E+04 -4.63882E+03
 -5.61432E+03 -5.88405E+03 -1.06627E+03  8.69881E+02 -2.90798E+03  2.98042E+03 -6.10214E+03  4.61646E+03
 -1.23826E+04 -8.10428E+02 -1.26454E+04 -1.03311E+04 -5.16993E+03 -1.67025E+04  5.64108E+03 -1.32727E+04
  1.09910E+04 -5.32418E+03  7.55780E+03  3.24114E+03  2.57782E+02  5.05032E+03 -6.42179E+03  1.67003E+02
 -6.11819E+03 -8.58903E+03 -1.17711E+03 -1.30496E+04  7.40303E+03 -1.37670E+04  1.66168E+04 -7.35079E+03
  1.96469E+04  2.14882E+03  1.44334E+04  1.14309E+04  3.13822E+03  1.58650E+04 -8.26087E+03  1.32941E+04
 -1.07464E+04  3.91128E+03 -5.50567E+03 -2.74984E+03  2.15904E+03 -3.68606E+03  7.26016E+03 -1.34211E+03
  6.75461E+03  5.93183E+03  1.14267E+03  1.06064E+04 -7.76020E+03  1.01291E+04 -1.31843E+04  2.37118E+03
 -8.84086E+03 -6.87272E+03  3.48197E+02 -1.12164E+04  7.22091E+03 -5.93015E+03  7.34731E+03  2.93231E+03
  1.36383E+03  7.75286E+03 -6.60367E+03  9.48888E+03 -1.06384E+04  4.18796E+03 -1.07281E+04 -3.89771E+03
 -6.45874E+03 -1.27077E+04  2.92621E+03 -1.46634E+04  1.22621E+04 -8.52221E+03  1.32184E+04  2.59896E+03
  8.26310E+03  1.05548E+04 -9.25769E+02  1.30126E+04 -9.24207E+03  7.04416E+03 -1.02256E+04 -1.21201E+03
 -9.09978E+03 -8.45038E+03 -1.92548E+03 -9.88633E+03  5.04521E+03 -8.06337E+03  6.01029E+03 -3.41508E+03
  4.43603E+03  1.49613E+03 -6.83334E+02  1.99630E+03 -6.41276E+02 -2.38687E+03  1.72742E+03 -5.62289E+03
  8.81935E+03 -3.37422E+03  1.20516E+04  1.12099E+03  1.19519E+04  8.30715E+03  8.55067E+03  1.61140E+04
 -3.88836E+03  1.85604E+04 -1.53433E+04  1.35392E+04 -2.00990E+04  2.56354E+03 -1.60227E+04 -6.55958E+03
 -8.28681E+03 -1.33572E+04 -3.73541E+02 -1.07525E+04  4.03914E+03 -6.17198E+03  3.99538E+03 -4.15515E+03
  3.13612E+03 -2.26435E+03  3.35412E+03 -3.12110E+03  4.76220E+03 -2.78384E+03  6.75994E+03 -5.57525E+02
  8.34886E+03  2.23766E+03  4.06045E+03  6.97281E+03 -1.99941E+03  8.05528E+03 -8.97784E+03  6.20877E+03
 -1.10696E+04 -1.53870E+03 -6.67945E+03 -7.75220E+03 -5.22371E+02 -1.17444E+04  6.63924E+03 -1.17882E+04
  1.23698E+04 -6.89047E+03  1.42158E+04  1.67973E+03  1.00778E+04  1.01663E+04  1.40482E+03  1.34299E+04
 -5.14041E+03  1.11666E+04 -7.54633E+03  4.26945E+03 -5.39985E+03 -1.54811E+03 -2.22110E+03 -1.45404E+03
 -1.16308E+03  2.61236E+02 -1.70129E+03  2.82656E+03 -4.76945E+03  1.88431E+03 -8.15329E+03 -1.42193E+03
 -5.37377E+03 -7.73820E+03  5.33475E+02 -1.08336E+04  6.69508E+03 -1.03208E+04  1.02831E+04 -3.19530E+03
  1.07084E+04  4.88608E+03  5.00839E+03  9.65489E+03 -1.91694E+03  1.09401E+04 -7.59129E+03  6.81023E+03
 -1.02192E+04  8.60377E+02 -7.72124E+03 -6.50615E+03 -9.33913E+02 -8.88644E+03  4.58966E+03 -6.38889E+03
  6.80442E+03 -2.14757E+03  4.30624E+03  1.52645E+03  1.43805E+03  3.38568E+03  1.30259E+03  1.05115E+03
  2.31376E+03  8.15110E+02  2.68970E+03  1.88227E+03  3.09943E+03  3.85444E+03  2.72837E+03  5.29673E+03
 -2.20203E+03  8.10735E+03 -7.10049E+03  8.48486E+03 -1.03313E+04  2.42366E+03 -1.09821E+04 -4.30087E+03
 -4.83539E+03 -1.06411E+04  1.77502E+03 -1.13836E+04  6.61916E+03 -7.39926E+03  8.44727E+03 -2.25632E+03
  6.79972E+03  4.24598E+03  1.40654E+03  6.24741E+03 -2.98159E+03  3.89617E+03 -4.25043E+03 -7.18582E+02
 -1.99760E+03 -4.55904E+03  2.50190E+03 -4.55291E+03  4.28833E+03 -2.41051E+03  3.95408E+03  1.21856E+03
  2.47411E+03  1.79316E+03  1.53685E+03  1.31101E+03 -2.97697E+02  1.53747E+03  1.74875E+03 -4.96408E+02
  1.19762E+03 -3.53422E+02  3.90127E+03  1.44197E+03  2.30248E+03  5.71462E+03 -9.44470E+02  7.47188E+03
 -5.04146E+03  4.62189E+03 -6.29883E+03  1.16600E+03 -5.71549E+03 -2.24490E+03 -1.80733E+03 -3.80493E+03
  5.56412E+02 -3.82626E+03  2.96703E+03 -1.54137E+03  2.14732E+03  2.25222E+03 -1.38485E+03  3.25973E+03
 -4.58384E+03  2.36864E+03 -4.80497E+03 -2.64877E+03 -2.51742E+03 -5.78755E+03  4.89996E+02 -5.37256E+03
  3.21301E+03 -3.19086E+03  3.89307E+03 -3.30122E+02  3.25948E+03  1.13659E+03  2.49405E+02  3.07285E+03
 -2.07347E+03  8.29892E+02 -2.18477E+03 -1.80968E+03  9.42223E+02 -4.10751E+03  4.97850E+03 -3.56650E+03
  5.98397E+03  6.22093E+02  6.63448E+03  3.71216E+03  2.10015E+03  6.20779E+03 -2.20570E+03  5.80205E+03
 -5.35115E+03  2.13638E+03 -5.57111E+03 -1.01930E+03 -3.03563E+03 -3.76717E+03  1.27382E+03 -3.58174E+03
  3.80270E+03 -1.81684E+03  3.04235E+03  1.71558E+03  7.93956E+02  3.85557E+03 -1.74565E+02  3.02127E+03
 -2.05030E+03  2.20244E+03 -1.61519E+03  8.21691E+02 -7.41546E+02  1.00303E+03 -8.29091E+02  1.30172E+03
 -1.68940E+03  2.34631E+03 -4.47903E+03  1.89019E+03 -5.93727E+03  3.52562E+01 -7.06293E+03 -4.04263E+03
 -3.60235E+03 -8.21423E+03  1.52164E+03 -9.97851E+03  5.67106E+03 -7.22736E+03  8.87893E+03 -2.71412E+03
  8.28902E+03  1.38699E+03  4.84274E+03  5.72949E+03  2.10942E+02  6.04300E+03 -2.48401E+03  4.83865E+03
 -3.28448E+03  1.79449E+03 -2.03157E+03 -6.11487E+02 -8.95252E+02 -2.39908E+02 -8.02496E+02  1.35037E+02
 -1.53553E+03  4.40569E+02 -1.38069E+03 -1.67416E+02 -5.73845E+01 -1.78854E+03 -2.49969E+02 -2.48040E+03
  2.92824E+03 -1.89538E+03  3.64562E+03  2.19987E+02  4.69002E+03  3.44268E+03  1.06065E+03  5.91339E+03
 -2.98355E+03  7.26490E+03 -6.92139E+03  4.29362E+03 -7.49090E+03 -5.41247E+02 -5.83951E+03 -4.75117E+03
 -2.30103E+03 -6.04247E+03  1.53144E+03 -5.40394E+03  3.77191E+03 -3.14036E+03  3.78855E+03  2.84171E+02
  1.89655E+03  2.01718E+03  5.30150E+01  1.71587E+03 -1.25671E+03 -1.46722E+02  7.15268E+01 -1.38594E+03
  1.80736E+03 -7.19295E+02  2.23067E+03  4.66327E+02  1.62713E+03  2.32326E+03  6.75828E+00  2.86820E+03
 -2.51436E+03  2.89956E+03 -3.92403E+03  3.64307E+02 -3.71340E+03 -2.67233E+03 -4.92637E+02 -5.03566E+03
  2.59149E+03 -4.06329E+03  4.17521E+03 -9.62961E+02  3.98823E+03  7.98886E+02  2.81502E+03  3.71440E+03
  4.83502E+02  3.67548E+03 -1.30002E+03  2.76946E+03 -2.16971E+03  2.19171E+03 -1.70423E+03  3.43363E+02
 -1.19547E+03  3.71534E+02 -8.58193E+02  2.35669E+02 -1.94796E+03  7.70464E+02 -3.03173E+03 -7.61949E+02
 -3.18945E+03 -2.12064E+03 -9.77773E+02 -3.78013E+03  2.07415E+03 -4.60816E+03  3.53615E+03 -1.50699E+03
  3.51051E+03  7.87767E+02  1.77833E+03  2.31920E+03 -4.14128E+02  4.08655E+03 -2.83670E+03  2.53517E+03
