 $NMID ID='MM_0lb_SNR800_18hz_g55_11.RAW', FMTDAT='(8E13.5)'
 TRAMP=1., VOLUME=1. $END
  3.10053E+05  2.21936E+02  3.37371E+05  2.50260E+05  8.43450E+04  3.37768E+05 -1.32466E+05  2.50669E+05
 -1.90030E+05  8.27434E+04 -1.11589E+05 -3.26509E+04  1.15044E+03 -5.06634E+04  5.38272E+04 -6.98466E+01
  3.52100E+04  5.29156E+04 -1.69416E+04  7.50179E+04 -6.08748E+04  6.31238E+04 -8.34226E+04  3.14775E+04
 -8.02334E+04 -1.14337E+04 -5.68579E+04 -5.07516E+04 -1.50049E+04 -6.90357E+04  2.72411E+04 -4.51657E+04
  3.93215E+04  3.90281E+03  1.56770E+04  4.76274E+04 -3.43819E+04  4.67912E+04 -6.63000E+04 -7.76274E+02
 -5.26612E+04 -5.60704E+04 -6.64680E+03 -7.59418E+04  3.33307E+04 -5.40759E+04  4.70584E+04 -1.66397E+04
  4.26567E+04  1.12169E+04  3.12861E+04  2.48559E+04  1.55379E+04  2.89752E+04 -4.96999E+03  2.69916E+04
 -2.17891E+04  1.23409E+04 -1.89003E+04 -4.51477E+03  4.89970E+03 -7.42023E+03  2.15735E+04  1.15084E+04
  7.46645E+03  3.41230E+04 -3.14798E+04  3.47055E+04 -6.19854E+04  2.06735E+03 -5.60563E+04 -4.18478E+04
 -1.22688E+04 -6.19229E+04  3.91492E+04 -4.41638E+04  5.63283E+04 -2.16168E+03  3.29024E+04  3.11778E+04
 -6.12569E+03  3.42483E+04 -2.91225E+04  1.47391E+04 -2.87305E+04 -4.74635E+03 -1.54412E+04 -1.04898E+04
 -7.86212E+03 -1.21199E+04 -8.89415E+02 -1.72492E+04  6.96995E+03 -2.27441E+04  1.51391E+04 -1.37891E+04
  1.17287E+04  4.71153E+03 -6.95759E+03  1.28289E+04 -2.01036E+04 -3.35940E+03 -8.24843E+03 -3.18985E+04
  2.14454E+04 -4.17409E+04  4.63445E+04 -1.86567E+04  4.32806E+04  1.87132E+04  1.48943E+04  4.26964E+04
 -1.57354E+04  3.19025E+04 -2.42273E+04  1.31985E+03 -8.88342E+03 -2.67118E+04  2.08480E+04 -3.21495E+04
  3.92493E+04 -7.94891E+03  3.33180E+04  2.32479E+04  1.65490E+04  4.42751E+04 -7.91723E+03  4.70280E+04
 -2.95720E+04  3.12282E+04 -3.93025E+04  9.11800E+03 -4.03040E+04 -1.55924E+04 -2.19862E+04 -3.58292E+04
  7.15369E+03 -3.55596E+04  2.99615E+04 -1.34953E+04  2.77206E+04  1.12438E+04  3.39487E+03  1.83266E+04
 -1.31123E+04  7.84341E+03 -9.83905E+03 -7.79855E+03  6.07171E+03 -1.04935E+04  1.75375E+04  6.60004E+03
  1.27303E+04  2.18325E+04 -6.23855E+03  2.38753E+04 -2.18797E+04  9.89619E+03 -2.62273E+04 -5.73657E+03
 -1.80853E+04 -1.65432E+04 -6.72996E+03 -1.79213E+04  3.79553E+03 -1.63858E+04  1.37823E+04 -1.57927E+04
  2.29660E+04 -1.21604E+04  2.98436E+04  1.42604E+03  2.22371E+04  1.76785E+04  4.11009E+03  3.37529E+04
 -1.69574E+04  2.84058E+04 -2.64110E+04  9.70491E+03 -2.00434E+04 -1.03124E+04 -3.98207E+03 -1.36835E+04
  2.51852E+03 -3.49559E+03 -3.15592E+03  5.79702E+03 -1.43243E+04  4.86192E+03 -1.43367E+04 -5.58978E+03
 -9.02493E+03 -1.65161E+04  4.79187E+03 -2.08451E+04  1.35112E+04 -1.49659E+04  1.58297E+04 -1.52126E+03
  9.36153E+03  1.16324E+04 -9.88223E+02  1.68853E+04 -1.12010E+04  9.37455E+03 -1.67681E+04 -3.66259E+03
 -1.23425E+04 -1.51104E+04 -1.50687E+03 -2.04323E+04  9.28424E+03 -1.63337E+04  1.70608E+04 -7.83800E+03
  1.57971E+04  5.70260E+02  1.12463E+04  4.14390E+03  5.81259E+03  7.52515E+02  8.06929E+03 -1.46791E+03
  1.48039E+04  2.55774E+03  1.60173E+04  1.34220E+04  1.03319E+04  2.62356E+04 -3.11228E+03  2.89287E+04
 -1.71658E+04  2.24685E+04 -2.67277E+04  1.06295E+04 -2.73009E+04 -1.95820E+03 -2.32886E+04 -1.56368E+04
 -1.06528E+04 -2.25538E+04  7.64880E+03 -2.08719E+04  1.77325E+04 -1.14407E+04  1.65451E+04  4.16423E+03
  6.83988E+03  1.20159E+04 -7.51641E+03  1.09970E+04 -1.43066E+04  2.65504E+03 -1.08703E+04 -8.61171E+03
 -1.62213E+02 -1.32468E+04  6.90511E+03 -1.00033E+04  8.54790E+03 -9.97824E+02  1.70958E+03  5.18895E+03
 -5.82279E+03  1.77151E+03 -4.05009E+03 -4.86625E+03  5.79866E+02 -1.10195E+04  8.33206E+03 -1.12275E+04
  1.34766E+04 -5.27238E+03  1.34336E+04  2.81689E+03  1.15315E+04  1.07283E+04  5.84186E+03  1.58271E+04
 -2.25360E+03  1.78975E+04 -1.06788E+04  1.09922E+04 -1.22571E+04  2.98003E+03 -8.89023E+03 -2.31571E+03
 -4.74800E+03 -4.20154E+03 -6.13382E+02  1.20788E+03 -2.30299E+03  2.21298E+03 -4.02274E+03  3.86520E+03
 -8.87546E+03 -6.10957E+02 -9.47723E+03 -7.63354E+03 -3.64182E+03 -1.20426E+04  4.09534E+03 -9.25908E+03
  7.67996E+03 -4.06889E+03  5.86919E+03  2.02808E+03  2.14407E+02  3.31349E+03 -3.85263E+03 -1.51269E+02
 -3.90003E+03 -5.63719E+03 -8.14505E+02 -7.94348E+03  4.54178E+03 -8.57559E+03  1.10822E+04 -4.45140E+03
  1.26940E+04  6.81578E+02  9.23591E+03  7.02489E+03  1.90944E+03  9.82283E+03 -5.85324E+03  9.15221E+03
 -7.30193E+03  2.92520E+03 -3.76010E+03 -1.45894E+03  1.55375E+03 -1.99466E+03  5.15887E+03 -9.26117E+02
  4.60309E+03  3.72917E+03  8.79757E+02  6.81943E+03 -4.78953E+03  6.83223E+03 -8.48430E+03  1.97065E+03
 -5.53253E+03 -4.13792E+03  3.42179E+02 -7.38041E+03  4.08940E+03 -3.96603E+03  3.91756E+03  1.12234E+03
  1.04220E+03  3.76086E+03 -4.48077E+03  5.32032E+03 -5.93034E+03  2.74993E+03 -5.32860E+03 -1.41255E+03
 -3.37708E+03 -6.62513E+03  1.23211E+03 -7.82170E+03  6.62156E+03 -5.24720E+03  7.20967E+03  1.34898E+03
  4.94869E+03  5.96669E+03  1.44624E+00  7.94150E+03 -5.53849E+03  4.53853E+03 -5.99204E+03 -4.48405E+02
 -6.08681E+03 -5.48886E+03 -1.53641E+03 -5.50001E+03  2.78595E+03 -5.14892E+03  3.20962E+03 -2.81217E+03
  3.09165E+03  5.57255E+02  3.61517E+01  1.34546E+03  5.47081E+02 -4.44776E+02  2.06928E+02 -2.20256E+03
  4.28465E+03 -8.74696E+02  6.05410E+03  6.05014E+02  6.20211E+03  3.74102E+03  5.49966E+03  7.94121E+03
 -1.42123E+03  9.56614E+03 -8.48554E+03  7.26832E+03 -1.10544E+04  1.42596E+03 -8.68080E+03 -2.89527E+03
 -4.65188E+03 -7.10597E+03 -6.27643E+02 -5.64678E+03  2.37263E+03 -2.69987E+03  1.89983E+03 -2.27188E+03
  1.59165E+03 -1.53711E+03  2.26817E+03 -2.48811E+03  4.05634E+03 -1.49436E+03  3.59624E+03  1.38784E+02
  4.66873E+03  1.15488E+03  1.21443E+03  3.53965E+03 -1.63016E+03  3.31207E+03 -4.98529E+03  3.08299E+03
 -5.39066E+03 -1.17373E+03 -2.15130E+03 -3.90247E+03  2.37227E+02 -5.34419E+03  3.25826E+03 -6.02511E+03
  5.65326E+03 -3.60188E+03  7.48173E+03  3.98534E+02  5.16102E+03  4.58921E+03  1.15596E+03  6.47691E+03
 -2.43584E+03  6.45391E+03 -3.77006E+03  2.24608E+03 -2.33865E+03 -9.49756E+02 -6.72586E+02 -5.35736E+02
 -6.51350E+02  1.84531E+02 -7.84679E+02  2.06638E+03 -2.93804E+03  1.09657E+03 -4.42908E+03 -4.05850E+02
 -2.04761E+03 -4.34252E+03  6.68620E+02 -4.97115E+03  3.15222E+03 -4.61478E+03  4.01734E+03 -1.10512E+03
  4.66351E+03  2.72220E+03  2.02504E+03  3.79315E+03 -1.05835E+03  4.90474E+03 -2.92489E+03  2.90983E+03
 -4.18846E+03  7.70276E+02 -3.54093E+03 -2.75947E+03 -6.75678E+01 -3.42633E+03  1.86379E+03 -2.59805E+03
  3.10812E+03 -1.54398E+03  1.84935E+03  3.93287E+02  7.85680E+02  1.65576E+03  6.29251E+02  5.07708E+02
  1.39217E+03  6.66251E+02  1.44285E+03  1.11406E+03  1.26502E+03  2.40746E+03  1.67621E+03  1.95013E+03
 -1.46122E+03  3.30356E+03 -3.17028E+03  4.11581E+03 -3.38248E+03  1.13904E+03 -4.70613E+03 -3.91689E+02
 -2.04442E+03 -4.01838E+03  4.62824E+02 -5.40290E+03  1.98531E+03 -3.07281E+03  3.56735E+03 -1.21915E+03
  2.75804E+03  1.87350E+03  3.30696E+02  2.55260E+03 -7.92792E+02  1.37340E+03 -8.91179E+02 -1.35491E+02
 -6.87422E+02 -1.45255E+03  1.48843E+03 -1.62401E+03  1.33000E+03 -8.81430E+02  1.58837E+03  3.77577E+02
  8.68663E+02  4.17785E+02  6.95945E+02 -2.85030E+02 -5.66118E+02  8.29299E+02  1.15683E+03 -9.50440E+01
  1.89664E+02 -4.53530E+02  2.04109E+03  3.32818E+02  4.53629E+02  2.42293E+03 -3.97597E+02  2.99867E+03
 -1.53291E+03  1.57304E+03 -2.31233E+03 -8.77929E+01 -2.64669E+03 -1.13539E+03 -1.75580E+02 -9.91081E+02
  3.59341E+02 -1.34528E+03  8.63640E+02 -6.60406E+02  6.86985E+02  1.41922E+03 -8.12067E+02  1.30326E+03
 -1.45129E+03  9.73257E+02 -1.45435E+03 -1.30132E+03 -8.10987E+02 -2.25213E+03  2.89698E+02 -1.80291E+03
  5.04314E+02 -5.41225E+02  1.16187E+03  1.09892E+02  1.56235E+03 -2.52509E+02  1.54782E+02  9.86081E+02
 -3.75337E+02  2.56112E+02 -8.86990E+02 -4.79480E+02  6.89169E+02 -1.12581E+03  1.85047E+03 -1.18246E+03
  1.45473E+03  3.11728E+02  3.02022E+03  8.99471E+02  9.94874E+02  1.77375E+03 -5.36493E+02  2.32108E+03
 -1.75564E+03  8.82027E+01 -1.63710E+03  1.28936E+02 -8.52896E+02 -1.44826E+03  2.76961E+02 -5.82403E+02
  1.40726E+03 -6.80538E+02  6.23577E+02  6.64753E+02  3.09628E+02  1.37104E+03  3.52083E+02  1.16852E+03
 -4.01594E+02  9.31294E+02 -4.51395E+02 -1.33812E+02  9.59772E+00  4.80193E+02 -4.40178E+02  9.50837E+02
 -4.61769E+02  1.20608E+03 -1.90482E+03  2.52384E+02 -1.50951E+03  2.47820E+02 -2.59303E+03 -1.20693E+03
 -9.58226E+02 -2.64485E+03  3.61418E+02 -3.16617E+03  9.68309E+02 -2.62910E+03  2.92195E+03 -7.56455E+02
  2.58244E+03 -2.71278E+02  1.22771E+03  1.45658E+03 -5.59900E+02  1.66213E+03 -7.58037E+02  1.35398E+03
 -1.11826E+03  8.35183E+02 -4.35834E+02 -9.09924E+01 -7.09832E+02  6.59198E+01 -5.19928E+02  3.25137E+02
 -1.21447E+03 -2.86550E+02 -9.78786E+02 -2.17859E+02  1.60697E+02 -5.70320E+02 -2.19841E+02 -8.78681E+02
  1.15275E+03 -9.36109E+02  2.87981E+02 -1.39877E+02  1.25897E+03  1.03623E+03 -3.83597E+02  1.65114E+03
 -9.55782E+02  2.66468E+03 -1.55749E+03  1.33313E+03 -2.01721E+03 -1.70661E+02 -1.66950E+03 -1.22038E+03
 -1.06938E+03 -1.25894E+03  3.07197E+02 -1.12488E+03  5.31949E+02 -6.86900E+02  7.17116E+02 -3.56504E+01
  7.29456E+02  4.47490E+02  2.65776E+02  3.93619E+02 -1.77129E+02 -1.92067E+02 -1.58870E+01  1.95379E+01
  3.61440E+02  2.01318E+02  3.82095E+02  9.03010E+01  3.12154E+02  4.65433E+02  2.39575E+02  5.01633E+02
 -7.79897E+02  6.16047E+02 -6.42651E+02  3.43961E+02 -9.51118E+02 -7.87548E+02  1.09683E+02 -1.11491E+03
  6.45373E+02 -6.60464E+02  6.38097E+02  5.36132E+01  1.19645E+03 -6.41493E+02  4.84885E+02  1.15900E+03
  4.48857E+02  5.92931E+02 -2.77482E+02  5.62714E+02 -4.78466E+02  5.98504E+02 -3.81879E+02  4.80677E+01
 -2.20897E+02 -3.56855E+02 -6.17865E+02  3.62911E+02 -5.27383E+02 -1.90082E+01 -7.28101E+02  8.33786E+01
 -1.01784E+03  3.82854E+02 -3.40140E+02 -8.77171E+02  7.16097E+02 -1.38449E+03  1.00805E+03 -6.31014E+02
  7.10259E+02  1.17422E+02 -3.09315E+02  1.37023E+02  6.39862E+00  1.12248E+03 -5.43719E+02  5.76417E+02
