 $NMID ID='MM_0lb_SNR800_15hz_g40_80.RAW', FMTDAT='(8E13.5)'
 TRAMP=1., VOLUME=1. $END
  3.09498E+05  2.96430E+02  3.37663E+05  2.50217E+05  8.48545E+04  3.37499E+05 -1.32268E+05  2.50615E+05
 -1.89880E+05  8.28663E+04 -1.11500E+05 -3.26293E+04  1.16566E+03 -5.03063E+04  5.39867E+04  3.10385E+02
  3.54340E+04  5.30195E+04 -1.69321E+04  7.51041E+04 -6.04685E+04  6.29724E+04 -8.34575E+04  3.16265E+04
 -8.01492E+04 -1.12199E+04 -5.68093E+04 -5.07039E+04 -1.50050E+04 -6.90510E+04  2.69831E+04 -4.51198E+04
  3.97227E+04  3.84349E+03  1.57363E+04  4.75655E+04 -3.42242E+04  4.66889E+04 -6.61049E+04 -1.63021E+02
 -5.24797E+04 -5.62284E+04 -6.69812E+03 -7.60268E+04  3.34725E+04 -5.41263E+04  4.70512E+04 -1.65842E+04
  4.25407E+04  1.09996E+04  3.12164E+04  2.47448E+04  1.56781E+04  2.87721E+04 -5.20256E+03  2.70990E+04
 -2.16054E+04  1.26927E+04 -1.90297E+04 -4.72429E+03  5.04838E+03 -7.24530E+03  2.18538E+04  1.19055E+04
  7.62277E+03  3.45277E+04 -3.14285E+04  3.49933E+04 -6.25827E+04  1.88448E+03 -5.62084E+04 -4.22381E+04
 -1.24644E+04 -6.22095E+04  3.89294E+04 -4.44674E+04  5.67702E+04 -2.06322E+03  3.30674E+04  3.11146E+04
 -6.29220E+03  3.44363E+04 -2.93959E+04  1.51213E+04 -2.91324E+04 -5.05636E+03 -1.55671E+04 -1.04094E+04
 -8.14071E+03 -1.22007E+04 -8.67042E+02 -1.74596E+04  7.19202E+03 -2.26033E+04  1.50756E+04 -1.32179E+04
  1.14387E+04  4.83040E+03 -7.29551E+03  1.26189E+04 -2.02669E+04 -3.40701E+03 -8.04906E+03 -3.19382E+04
  2.20465E+04 -4.20264E+04  4.65174E+04 -1.94860E+04  4.35927E+04  1.90847E+04  1.51178E+04  4.26887E+04
 -1.57708E+04  3.22431E+04 -2.44113E+04  1.48515E+03 -9.23280E+03 -2.71403E+04  2.06241E+04 -3.25262E+04
  3.96811E+04 -8.08158E+03  3.33625E+04  2.31672E+04  1.68327E+04  4.45820E+04 -7.98656E+03  4.79958E+04
 -3.04413E+04  3.17875E+04 -4.01229E+04  8.94373E+03 -4.06257E+04 -1.59035E+04 -2.25062E+04 -3.62729E+04
  7.00048E+03 -3.63720E+04  3.03877E+04 -1.37435E+04  2.80566E+04  1.05905E+04  3.61450E+03  1.85769E+04
 -1.32756E+04  7.72673E+03 -9.91661E+03 -7.72464E+03  6.05093E+03 -1.03167E+04  1.76840E+04  6.48169E+03
  1.27824E+04  2.15795E+04 -6.51937E+03  2.41878E+04 -2.18007E+04  1.00374E+04 -2.69193E+04 -5.51376E+03
 -1.87820E+04 -1.68712E+04 -7.13320E+03 -1.87882E+04  4.27840E+03 -1.73698E+04  1.41853E+04 -1.66032E+04
  2.38244E+04 -1.24349E+04  3.03240E+04  2.14162E+03  2.27004E+04  1.83994E+04  4.38815E+03  3.45167E+04
 -1.71249E+04  2.87824E+04 -2.69502E+04  1.00836E+04 -2.05745E+04 -1.02483E+04 -4.07185E+03 -1.37697E+04
  1.82224E+03 -3.63621E+03 -4.07480E+03  6.39309E+03 -1.46296E+04  5.25466E+03 -1.49499E+04 -6.05678E+03
 -9.88557E+03 -1.71853E+04  4.93161E+03 -2.12148E+04  1.41751E+04 -1.53236E+04  1.63428E+04 -1.29631E+03
  1.02845E+04  1.20950E+04 -8.82183E+02  1.73786E+04 -1.17711E+04  1.00118E+04 -1.75331E+04 -3.71927E+03
 -1.27024E+04 -1.55964E+04 -1.60415E+03 -2.12925E+04  9.50549E+03 -1.72578E+04  1.76858E+04 -8.35217E+03
  1.63826E+04  3.00766E+02  1.17938E+04  4.15687E+03  5.97664E+03  4.81595E+02  8.91925E+03 -1.39215E+03
  1.60138E+04  2.64420E+03  1.70990E+04  1.40591E+04  1.12083E+04  2.80311E+04 -3.00322E+03  3.07222E+04
 -1.79915E+04  2.44858E+04 -2.89315E+04  1.22551E+04 -2.97078E+04 -2.15411E+03 -2.51642E+04 -1.73163E+04
 -1.10961E+04 -2.44751E+04  8.54235E+03 -2.27047E+04  1.95867E+04 -1.19484E+04  1.77071E+04  4.65655E+03
  7.03768E+03  1.29565E+04 -8.27725E+03  1.17311E+04 -1.50633E+04  2.30334E+03 -1.15496E+04 -9.27616E+03
  1.06189E+02 -1.40821E+04  7.45759E+03 -1.05924E+04  9.20712E+03 -1.00869E+03  1.95531E+03  6.06214E+03
 -6.27898E+03  1.98304E+03 -4.94963E+03 -4.99462E+03  4.38130E+01 -1.19922E+04  8.67984E+03 -1.26092E+04
  1.49461E+04 -6.31191E+03  1.53432E+04  2.94596E+03  1.34098E+04  1.18896E+04  6.23217E+03  1.75782E+04
 -2.42242E+03  1.95972E+04 -1.20256E+04  1.23096E+04 -1.37686E+04  3.15326E+03 -1.02410E+04 -2.81427E+03
 -5.07667E+03 -4.40491E+03 -7.58262E+02  1.37866E+03 -2.22182E+03  2.49569E+03 -4.54301E+03  3.91691E+03
 -9.37027E+03 -5.96221E+02 -1.04109E+04 -8.20721E+03 -4.05321E+03 -1.33925E+04  4.27276E+03 -1.03839E+04
  8.57702E+03 -4.37898E+03  5.95649E+03  2.57765E+03  3.80591E+02  4.07220E+03 -4.49433E+03 -1.74765E+02
 -4.14498E+03 -6.07601E+03 -8.84981E+02 -9.11222E+03  5.10997E+03 -1.00562E+04  1.22871E+04 -4.97880E+03
  1.46280E+04  9.93596E+02  1.09974E+04  7.88094E+03  1.98877E+03  1.12359E+04 -6.34976E+03  1.00755E+04
 -8.00358E+03  2.84878E+03 -3.95037E+03 -1.66274E+03  1.85706E+03 -2.52968E+03  5.39556E+03 -1.06030E+03
  5.23892E+03  4.10860E+03  1.24681E+03  7.95358E+03 -5.57394E+03  7.50861E+03 -9.70784E+03  1.89320E+03
 -6.27075E+03 -4.83478E+03  4.96500E+02 -7.94943E+03  5.00625E+03 -4.26453E+03  5.20502E+03  1.69125E+03
  9.56525E+02  5.14151E+03 -5.33459E+03  6.15028E+03 -6.70954E+03  2.85699E+03 -6.57167E+03 -2.02030E+03
 -4.08979E+03 -8.07887E+03  2.05354E+03 -9.76185E+03  8.31452E+03 -5.96574E+03  8.78856E+03  1.14663E+03
  5.96010E+03  7.48037E+03 -5.75622E+02  9.24286E+03 -6.80426E+03  5.08976E+03 -6.78779E+03 -5.97836E+02
 -6.86131E+03 -6.38021E+03 -1.28347E+03 -6.65127E+03  3.45263E+03 -5.68862E+03  4.05471E+03 -2.91253E+03
  3.40203E+03  5.84443E+02  7.85799E+00  1.52416E+03  2.68078E+02 -1.35574E+03  6.57639E+02 -3.19391E+03
  5.61305E+03 -1.43060E+03  7.62942E+03  1.01532E+03  7.91896E+03  4.71468E+03  6.39335E+03  1.03266E+04
 -2.02997E+03  1.21335E+04 -1.02397E+04  9.05917E+03 -1.34484E+04  1.66442E+03 -1.04951E+04 -4.14939E+03
 -5.63728E+03 -8.92201E+03 -5.37932E+02 -7.31617E+03  2.80227E+03 -3.29467E+03  2.72293E+03 -2.77865E+03
  1.82324E+03 -1.61911E+03  2.65434E+03 -2.61890E+03  4.19136E+03 -1.61646E+03  4.63586E+03 -7.99465E+01
  5.85143E+03  1.24803E+03  2.32324E+03  5.05901E+03 -1.66514E+03  5.00059E+03 -6.07914E+03  3.98116E+03
 -6.92918E+03 -1.20169E+03 -3.18671E+03 -4.76744E+03 -3.69249E+01 -7.41339E+03  4.12968E+03 -7.93221E+03
  7.73658E+03 -4.21810E+03  9.69092E+03  7.54683E+02  6.75837E+03  6.50272E+03  1.42593E+03  8.43901E+03
 -3.27918E+03  7.61514E+03 -4.79057E+03  2.44978E+03 -3.08580E+03 -1.19622E+03 -9.75468E+02 -7.05173E+02
 -5.02662E+02 -8.48086E+01 -1.46766E+03  2.22749E+03 -3.61156E+03  1.11564E+03 -5.46575E+03 -3.62859E+02
 -3.03222E+03 -5.46880E+03  5.25321E+02 -6.80057E+03  4.04106E+03 -5.97989E+03  5.97914E+03 -1.84216E+03
  6.42248E+03  3.27969E+03  2.84401E+03  5.55864E+03 -1.15204E+03  6.47206E+03 -4.28794E+03  4.00809E+03
 -6.09690E+03  4.04621E+02 -4.77254E+03 -4.00624E+03 -3.85752E+02 -5.06995E+03  3.06784E+03 -3.86126E+03
  4.05810E+03 -1.63858E+03  2.81069E+03  7.70019E+02  8.18596E+02  2.33623E+03  1.06910E+03  9.73733E+02
  1.73041E+03  5.69707E+02  1.98631E+03  1.12591E+03  1.95429E+03  2.83945E+03  1.98885E+03  3.38586E+03
 -1.65883E+03  5.21269E+03 -4.45576E+03  5.41302E+03 -5.54913E+03  1.69117E+03 -6.63932E+03 -1.65633E+03
 -3.13220E+03 -5.85164E+03  1.09659E+03 -7.35075E+03  3.37109E+03 -4.24129E+03  5.00155E+03 -1.25398E+03
  4.16406E+03  2.68112E+03  6.74649E+02  3.87854E+03 -1.44872E+03  2.55558E+03 -2.08566E+03 -2.66651E+02
 -1.10004E+03 -2.37387E+03  1.88084E+03 -2.70501E+03  2.22458E+03 -1.18087E+03  2.21071E+03  3.77832E+02
  1.49053E+03  8.89315E+02  1.01816E+03  3.52241E+02 -2.77198E+02  8.41403E+02  1.26655E+03 -3.37369E+02
  7.50428E+02 -3.26639E+02  2.77173E+03  8.29889E+02  8.98355E+02  3.23911E+03 -6.44525E+02  4.36110E+03
 -2.61801E+03  2.54482E+03 -3.59138E+03  1.01862E+03 -3.37839E+03 -1.27605E+03 -7.53408E+02 -2.18531E+03
  6.75858E+02 -2.25580E+03  1.56358E+03 -1.12651E+03  1.11255E+03  1.76755E+03 -8.62304E+02  1.79335E+03
 -2.14001E+03  1.47229E+03 -2.36666E+03 -1.51695E+03 -1.55065E+03 -3.65341E+03  1.12742E+02 -3.03028E+03
  1.69331E+03 -1.56369E+03  1.67322E+03 -1.18891E+02  1.92008E+03  4.13091E+02  3.06062E+02  1.87050E+03
 -9.41214E+02  7.44047E+01 -1.39185E+03 -1.03849E+03  9.83321E+02 -1.89252E+03  3.03123E+03 -1.77135E+03
  2.79363E+03  3.29007E+02  3.99678E+03  2.04321E+03  1.37681E+03  3.26845E+03 -9.71367E+02  3.11639E+03
 -2.82452E+03  1.02795E+03 -2.71940E+03 -2.03887E+02 -1.57920E+03 -2.56954E+03  3.61934E+02 -1.74193E+03
  2.10800E+03 -1.53971E+03  1.59909E+03  1.27525E+03  6.53686E+02  2.02717E+03 -1.51268E+00  2.10728E+03
 -7.88166E+02  1.49616E+03 -7.79579E+02  1.12352E+02 -1.36272E+02  6.33388E+02 -1.05575E+03  7.70810E+02
 -8.59635E+02  1.64281E+03 -3.01978E+03  9.68620E+02 -3.15779E+03  1.63467E+02 -3.88562E+03 -2.23362E+03
 -2.00566E+03 -4.37651E+03  9.74963E+02 -4.94087E+03  2.46199E+03 -4.23993E+03  5.06062E+03 -1.65340E+03
  4.44203E+03  3.88475E+02  2.50012E+03  3.06148E+03 -3.62078E+02  3.11183E+03 -1.32109E+03  2.18124E+03
 -1.79465E+03  9.92165E+02 -1.09855E+03 -2.39230E+02 -8.06917E+02  1.50095E+02 -5.51327E+02  1.82073E+02
 -1.28646E+03  1.57208E+01 -1.12279E+03  9.71290E+01  2.66336E+02 -1.04689E+03 -4.53485E+02 -1.29923E+03
  1.88803E+03 -1.03239E+03  1.45022E+03  2.20829E+02  2.48707E+03  1.81395E+03  7.47652E+01  2.97525E+03
 -1.48000E+03  3.93183E+03 -3.00853E+03  2.30981E+03 -3.94923E+03 -4.73509E+02 -2.48637E+03 -2.55149E+03
 -1.32554E+03 -2.80840E+03  7.15901E+02 -2.47045E+03  1.83526E+03 -1.70069E+03  1.77112E+03  5.26326E+02
  1.37665E+03  1.18521E+03  1.08255E+02  6.45699E+02 -7.26666E+02 -7.15396E+01 -7.18423E+01 -2.66539E+02
  9.34322E+02 -1.78937E+02  1.06610E+03  6.14506E+02  5.76659E+02  1.06228E+03  4.08633E+02  1.05531E+03
 -1.66850E+03  1.38997E+03 -1.92506E+03  2.57636E+02 -1.79971E+03 -1.36058E+03  1.52894E+02 -2.39358E+03
  1.66452E+03 -2.08381E+03  1.67512E+03 -3.56992E+02  1.98284E+03 -2.25012E+02  1.31855E+03  1.92520E+03
  2.56302E+02  1.68087E+03 -6.72988E+02  1.65943E+03 -1.30020E+03  9.42934E+02 -7.09294E+02  3.59684E+02
 -3.59836E+02 -3.09767E+02 -7.88350E+02  4.35133E+02 -1.11541E+03  3.45743E+02 -1.77581E+03 -4.28822E+02
 -1.63623E+03 -3.68668E+02 -5.77969E+02 -1.94762E+03  1.02943E+03 -2.73994E+03  1.75037E+03 -8.09588E+02
  1.58989E+03  2.85983E+02  5.06075E+02  8.30088E+02 -4.47502E+02  1.71291E+03 -1.26088E+03  1.31634E+03
