 $NMID ID='MM_0lb_SNR800_20hz_g45_2.RAW', FMTDAT='(8E13.5)'
 TRAMP=1., VOLUME=1. $END
  3.09835E+05  2.98066E+02  3.37091E+05  2.50300E+05  8.42761E+04  3.37280E+05 -1.32471E+05  2.50144E+05
 -1.89644E+05  8.19855E+04 -1.10548E+05 -3.29403E+04  1.62486E+03 -5.00618E+04  5.39160E+04  3.59369E+02
  3.49732E+04  5.25817E+04 -1.69104E+04  7.44795E+04 -6.01521E+04  6.25547E+04 -8.24961E+04  3.13182E+04
 -7.91663E+04 -1.12160E+04 -5.58687E+04 -4.96436E+04 -1.49407E+04 -6.77481E+04  2.63477E+04 -4.44556E+04
  3.88051E+04  3.79253E+03  1.55315E+04  4.69220E+04 -3.37357E+04  4.58913E+04 -6.48318E+04 -8.13110E+02
 -5.15577E+04 -5.55183E+04 -6.14359E+03 -7.46535E+04  3.30778E+04 -5.25321E+04  4.55882E+04 -1.60301E+04
  4.11028E+04  1.09073E+04  3.02535E+04  2.39552E+04  1.56739E+04  2.82152E+04 -4.41051E+03  2.68591E+04
 -2.13075E+04  1.28910E+04 -1.91466E+04 -4.05375E+03  3.98895E+03 -7.22573E+03  2.05629E+04  1.03700E+04
  7.65162E+03  3.24022E+04 -2.99578E+04  3.35343E+04 -6.03633E+04  2.10789E+03 -5.48846E+04 -4.06477E+04
 -1.24600E+04 -5.99655E+04  3.75239E+04 -4.28139E+04  5.43906E+04 -2.01725E+03  3.10717E+04  2.99279E+04
 -6.61052E+03  3.18739E+04 -2.77695E+04  1.24538E+04 -2.68876E+04 -5.63672E+03 -1.34967E+04 -1.00778E+04
 -7.13545E+03 -1.09255E+04 -1.24013E+03 -1.59817E+04  6.15965E+03 -2.25636E+04  1.46897E+04 -1.41201E+04
  1.24039E+04  3.94989E+03 -5.56851E+03  1.31719E+04 -1.87119E+04 -1.82193E+03 -7.90714E+03 -2.92303E+04
  1.99227E+04 -3.96124E+04  4.37306E+04 -1.85184E+04  4.09974E+04  1.79709E+04  1.39022E+04  4.11841E+04
 -1.49904E+04  3.01102E+04 -2.25980E+04  6.22259E+02 -7.68918E+03 -2.56826E+04  2.01465E+04 -3.01401E+04
  3.68601E+04 -6.55802E+03  3.01965E+04  2.23000E+04  1.45822E+04  4.10750E+04 -7.56800E+03  4.35511E+04
 -2.75140E+04  2.85729E+04 -3.59818E+04  7.98869E+03 -3.70031E+04 -1.46253E+04 -2.04741E+04 -3.31798E+04
  6.75712E+03 -3.28059E+04  2.84302E+04 -1.21057E+04  2.60196E+04  1.07860E+04  2.96064E+03  1.72206E+04
 -1.30736E+04  6.93457E+03 -9.59109E+03 -7.83849E+03  6.03818E+03 -9.68925E+03  1.70630E+04  6.35140E+03
  1.20958E+04  2.12605E+04 -6.97858E+03  2.28029E+04 -2.12033E+04  8.59379E+03 -2.43058E+04 -7.05667E+03
 -1.54037E+04 -1.61819E+04 -4.81617E+03 -1.56697E+04  3.76123E+03 -1.29900E+04  1.16555E+04 -1.31647E+04
  1.94925E+04 -1.13291E+04  2.66799E+04  4.18776E+02  2.06837E+04  1.51297E+04  3.71423E+03  3.10587E+04
 -1.57867E+04  2.65279E+04 -2.51754E+04  8.92732E+03 -1.92230E+04 -1.03633E+04 -3.64224E+03 -1.41205E+04
  2.72906E+03 -4.45562E+03 -1.99015E+03  4.95139E+03 -1.18679E+04  5.32007E+03 -1.24973E+04 -4.17451E+03
 -8.23363E+03 -1.43232E+04  4.37979E+03 -1.83087E+04  1.16290E+04 -1.32969E+04  1.33420E+04 -1.32694E+03
  7.96450E+03  9.86207E+03 -8.67429E+02  1.46969E+04 -9.38099E+03  8.01827E+03 -1.42085E+04 -3.48887E+03
 -1.09085E+04 -1.31757E+04 -1.43944E+03 -1.76843E+04  7.86658E+03 -1.42743E+04  1.50531E+04 -6.49474E+03
  1.35024E+04  9.50699E+02  9.68293E+03  3.66473E+03  4.55716E+03  6.18916E+02  6.99121E+03 -1.24271E+03
  1.27047E+04  2.65648E+03  1.34835E+04  1.18887E+04  7.96891E+03  2.29747E+04 -2.97075E+03  2.41609E+04
 -1.46757E+04  1.81101E+04 -2.20453E+04  8.41134E+03 -2.23847E+04 -1.64116E+03 -1.96619E+04 -1.28508E+04
 -9.47727E+03 -1.81276E+04  5.61901E+03 -1.73580E+04  1.51308E+04 -1.02983E+04  1.43237E+04  3.21277E+03
  6.36681E+03  1.03165E+04 -6.59814E+03  9.82523E+03 -1.25292E+04  2.39598E+03 -9.59777E+03 -7.40156E+03
 -1.62470E+01 -1.15550E+04  5.70786E+03 -8.68694E+03  6.82778E+03 -1.27632E+03  1.18914E+03  4.80930E+03
 -5.27238E+03  1.01143E+03 -3.08942E+03 -4.22713E+03  8.07272E+02 -9.30946E+03  7.60190E+03 -8.88034E+03
  1.10040E+04 -3.61583E+03  1.02981E+04  2.92895E+03  8.66888E+03  8.25046E+03  4.08323E+03  1.21728E+04
 -1.33376E+03  1.40712E+04 -8.50828E+03  8.94058E+03 -9.65514E+03  2.81703E+03 -7.57913E+03 -1.59225E+03
 -4.17316E+03 -2.98892E+03 -7.46236E+02  1.68558E+03 -1.96835E+03  1.74745E+03 -3.19707E+03  3.27923E+03
 -7.15430E+03 -4.14838E+02 -8.22916E+03 -6.73607E+03 -3.31679E+03 -1.03798E+04  3.32057E+03 -7.43848E+03
  6.36941E+03 -3.63720E+03  4.70112E+03  1.72748E+03  7.46277E+02  2.75651E+03 -2.99790E+03 -9.77681E+01
 -2.72777E+03 -4.43557E+03 -6.71850E+02 -6.30042E+03  3.05278E+03 -6.72855E+03  8.66661E+03 -3.37322E+03
  1.04080E+04  3.01877E+02  7.74047E+03  5.10429E+03  1.55460E+03  7.41712E+03 -4.57117E+03  7.46567E+03
 -6.39335E+03  2.63744E+03 -2.93110E+03 -7.24810E+02  9.25203E+02 -1.67856E+03  4.35675E+03 -9.23518E+02
  3.89171E+03  3.24858E+03  1.20320E+03  5.81656E+03 -4.00459E+03  5.52395E+03 -7.08793E+03  1.65047E+03
 -4.15724E+03 -2.99923E+03  7.32115E+02 -5.76416E+03  3.16276E+03 -2.95579E+03  2.81738E+03  7.72664E+02
  3.57266E+02  2.69236E+03 -3.54763E+03  4.09794E+03 -3.67445E+03  2.04698E+03 -3.44637E+03 -6.72543E+02
 -2.41715E+03 -4.83830E+03  8.88760E+02 -5.86654E+03  5.01012E+03 -4.03516E+03  5.34979E+03  6.90826E+02
  4.10583E+03  4.46933E+03  2.80392E+02  6.14020E+03 -4.15902E+03  3.55306E+03 -4.35463E+03 -2.14451E+02
 -5.23001E+03 -4.71356E+03 -1.08419E+03 -4.20808E+03  2.03328E+03 -4.22065E+03  2.41266E+03 -2.81409E+03
  2.69491E+03  2.60388E+01  9.59474E+01  9.69754E+02  6.80499E+02 -9.95660E+01  1.47221E+01 -1.27825E+03
  3.09512E+03 -5.34276E+02  4.26572E+03  4.86019E+02  4.57821E+03  2.18676E+03  4.78782E+03  5.84821E+03
 -1.00799E+03  6.86847E+03 -6.50198E+03  5.60310E+03 -8.51843E+03  1.08242E+03 -6.69078E+03 -2.01238E+03
 -3.78411E+03 -5.52112E+03 -1.92160E+02 -4.18068E+03  1.95903E+03 -1.95151E+03  1.34620E+03 -1.74391E+03
  1.06811E+03 -1.11711E+03  1.99361E+03 -2.43550E+03  3.05751E+03 -1.13078E+03  2.95323E+03  8.96713E+02
  3.64596E+03  9.94585E+02  8.10493E+02  2.79266E+03 -1.57592E+03  2.11043E+03 -3.62220E+03  1.98853E+03
 -4.11955E+03 -1.22994E+03 -1.21866E+03 -2.53648E+03  4.64380E+02 -3.95372E+03  2.64269E+03 -4.22808E+03
  4.14871E+03 -2.71782E+03  5.57047E+03  2.06032E+02  4.41411E+03  3.37277E+03  1.03288E+03  4.89560E+03
 -1.72616E+03  5.14671E+03 -2.90636E+03  1.57672E+03 -1.46420E+03 -1.09830E+03 -9.72930E+01 -4.26590E+02
 -4.22691E+02  6.21208E+02 -9.05286E+02  1.72863E+03 -2.08682E+03  7.64169E+02 -3.66241E+03 -2.05585E+02
 -1.04558E+03 -3.48099E+03  8.95805E+02 -3.61914E+03  2.10667E+03 -3.57967E+03  2.53637E+03 -8.40983E+02
  3.00884E+03  1.82632E+03  1.41105E+03  2.42464E+03 -5.81395E+02  3.40500E+03 -1.85074E+03  2.15320E+03
 -2.88079E+03  4.64339E+02 -2.81335E+03 -2.10951E+03 -2.55911E+02 -2.54707E+03  1.15591E+03 -2.14558E+03
  2.24345E+03 -1.44277E+03  1.56143E+03  4.84433E+02  4.25026E+02  1.51180E+03  6.41838E+02  4.49835E+02
  1.46303E+03  4.82214E+02  1.34465E+03  7.97171E+02  9.65379E+02  2.01367E+03  1.41160E+03  1.27786E+03
 -1.23374E+03  2.12414E+03 -1.85393E+03  3.18649E+03 -2.02836E+03  1.28054E+03 -3.40454E+03  1.49872E+00
 -1.34411E+03 -2.71474E+03  4.36179E+02 -3.65226E+03  1.42336E+03 -1.96514E+03  2.19908E+03 -6.77868E+02
  1.84042E+03  1.41022E+03  1.43070E+02  1.64898E+03 -2.37976E+02  9.92763E+02 -5.78004E+02 -1.41455E+02
 -4.01345E+02 -1.47933E+03  1.09295E+03 -1.21996E+03  8.25354E+02 -6.64042E+02  9.32518E+02  2.94263E+02
  6.34768E+02  2.16728E+02  1.08487E+03 -4.43961E+02  1.30843E+01  4.88457E+02  1.69732E+03  2.91001E+02
  3.34504E+01 -9.52770E+01  1.39880E+03  5.44549E+02 -1.17420E+02  2.06241E+03 -1.51642E+02  2.23087E+03
 -1.33609E+03  3.49119E+02 -1.50289E+03  1.43324E+02 -1.65973E+03 -5.65135E+02  2.71300E+02 -5.63358E+02
  4.36447E+02 -1.04977E+03  5.92866E+02 -4.11419E+02  3.14611E+02  1.21562E+03 -6.48351E+02  8.47928E+02
 -1.00299E+03  8.08226E+02 -8.55238E+02 -1.02379E+03 -3.85483E+02 -1.56807E+03 -4.89589E+00 -1.03566E+03
  7.92881E+01 -3.12306E+02  7.10671E+02  3.03939E+02  1.03907E+03 -5.11545E+02  1.99305E+02  8.28922E+02
 -4.17699E+02  2.40234E+01 -5.69728E+02  1.77129E+02  5.85117E+02 -3.08375E+02  1.57126E+03 -5.32271E+02
  5.59788E+02  2.40911E+02  2.30430E+03  1.60541E+02  7.99963E+02  9.80408E+02  1.34813E+01  1.48229E+03
 -9.72903E+02 -1.66259E+01 -9.42437E+02  5.06934E+00 -5.97395E+02 -9.72978E+02  1.99846E+02 -4.83672E+01
  1.24104E+03 -4.89279E+02  6.50373E+02  7.86784E+02  5.79981E+01  5.67385E+02  3.00761E+02  6.43964E+02
 -2.41979E+02  8.87671E+02 -3.46385E+02  2.90099E+01  1.28663E+02 -9.68538E+01 -7.01458E+02  3.98640E+02
 -6.21109E+02  9.97335E+02 -1.58193E+03  1.86432E+02 -8.51211E+02  1.89953E+01 -1.98392E+03 -8.76227E+02
 -8.45678E+02 -1.56556E+03  2.55381E+02 -2.00479E+03  6.17808E+02 -2.09402E+03  2.34998E+03 -7.69566E+02
  1.87320E+03 -1.48470E+02  9.45028E+02  9.76946E+02 -5.09476E+02  1.00061E+03 -5.30508E+02  9.15380E+02
 -6.33081E+02  5.08426E+02 -5.41615E+02 -2.26581E+02 -6.79382E+02  3.40462E+02 -5.97456E+02  4.29615E+01
 -1.15030E+03 -2.05449E+02 -5.03476E+02  5.73150E+01  3.00389E+02 -3.24848E+02 -3.01870E+02 -7.06852E+02
  1.17982E+03 -1.08654E+02  1.34752E+01 -5.89848E+01  8.81501E+02  6.94229E+02 -3.27819E+02  8.74064E+02
 -6.46208E+02  1.71104E+03 -1.12618E+03  8.52710E+02 -1.40358E+03 -3.27274E+02 -9.02762E+02 -6.77863E+02
 -7.54535E+02 -8.78551E+02  1.74601E+02 -5.91733E+02  2.33909E+01 -4.81423E+02  5.03989E+02  3.89551E+02
  4.88174E+02  2.66265E+01  4.84994E+01  3.33273E+02 -2.23319E+02 -1.00140E+01 -2.67121E+02 -2.91528E+01
  5.01415E+02  2.60436E+02  6.33724E+01  3.96367E+02 -9.23713E+01  3.61946E+02  4.12655E+02  7.86938E+01
 -5.16348E+02  1.55183E+02 -3.97586E+02  1.58423E+02 -3.82191E+02 -1.64584E+02  1.29709E+02 -6.31163E+02
  1.48186E+02 -4.12535E+02  1.27403E+02  1.04396E+02  6.14047E+02 -6.85748E+02  3.35441E+02  5.94073E+02
  4.94044E+02  5.52643E+02 -7.60453E+01  2.13952E+02 -5.76076E+02  6.24002E+02 -4.03319E+02  2.42065E+02
  1.01260E+02  3.68448E+01 -6.06016E+02 -9.19476E+00 -4.09679E+02  8.41299E+01 -7.76125E+02 -1.61541E+02
 -7.90172E+02  7.70042E+02 -4.35890E+01 -9.25564E+02  8.12034E+02 -1.37187E+03  6.42193E+02 -9.23058E+01
  4.87048E+02 -1.26780E+02 -5.05892E+02  4.73466E+01 -1.84524E+02  7.40012E+02 -3.32947E+02  4.38816E+02
