 $NMID ID='MM_0lb_SNR800_16hz_g60_58.RAW', FMTDAT='(8E13.5)'
 TRAMP=1., VOLUME=1. $END
  3.10059E+05  5.53540E+02  3.37785E+05  2.50786E+05  8.47785E+04  3.38290E+05 -1.32397E+05  2.51467E+05
 -1.90342E+05  8.31046E+04 -1.11752E+05 -3.26558E+04  6.61172E+02 -5.06265E+04  5.40123E+04 -3.21665E+02
  3.53522E+04  5.27626E+04 -1.64506E+04  7.55429E+04 -6.02978E+04  6.34910E+04 -8.43158E+04  3.19104E+04
 -8.10708E+04 -1.15553E+04 -5.71764E+04 -5.14583E+04 -1.53090E+04 -6.97926E+04  2.74261E+04 -4.58330E+04
  4.03583E+04  3.76376E+03  1.62583E+04  4.78693E+04 -3.42634E+04  4.71948E+04 -6.67167E+04 -1.32468E+02
 -5.36068E+04 -5.68188E+04 -6.77041E+03 -7.67546E+04  3.40743E+04 -5.51576E+04  4.81978E+04 -1.73801E+04
  4.36425E+04  1.11071E+04  3.19196E+04  2.58427E+04  1.58959E+04  2.93725E+04 -5.26597E+03  2.75146E+04
 -2.19560E+04  1.25156E+04 -1.85767E+04 -4.96600E+03  5.52006E+03 -7.50186E+03  2.24730E+04  1.24524E+04
  7.23088E+03  3.53448E+04 -3.21549E+04  3.54159E+04 -6.34310E+04  2.42966E+03 -5.71897E+04 -4.29960E+04
 -1.24023E+04 -6.34004E+04  3.98709E+04 -4.52768E+04  5.83968E+04 -2.28510E+03  3.43704E+04  3.26198E+04
 -5.90431E+03  3.61836E+04 -3.01608E+04  1.63698E+04 -3.01997E+04 -4.66897E+03 -1.66543E+04 -1.10030E+04
 -8.59357E+03 -1.32706E+04 -6.85897E+02 -1.78723E+04  7.62406E+03 -2.31905E+04  1.53621E+04 -1.32320E+04
  1.14991E+04  5.11944E+03 -8.38109E+03  1.30641E+04 -2.11729E+04 -4.21007E+03 -8.21209E+03 -3.35884E+04
  2.29998E+04 -4.34563E+04  4.82469E+04 -1.99025E+04  4.52924E+04  1.92058E+04  1.54821E+04  4.40788E+04
 -1.59782E+04  3.34355E+04 -2.56711E+04  1.76928E+03 -9.91688E+03 -2.79493E+04  2.10983E+04 -3.39722E+04
  4.09660E+04 -9.17304E+03  3.53434E+04  2.35214E+04  1.81096E+04  4.63080E+04 -7.81225E+03  5.02993E+04
 -3.13986E+04  3.37501E+04 -4.19607E+04  9.57060E+03 -4.25938E+04 -1.65549E+04 -2.35090E+04 -3.75291E+04
  7.42375E+03 -3.77941E+04  3.14934E+04 -1.43963E+04  2.90775E+04  1.09334E+04  3.96520E+03  1.88776E+04
 -1.38593E+04  8.11824E+03 -1.03374E+04 -7.50767E+03  5.71508E+03 -1.07277E+04  1.79508E+04  5.91089E+03
  1.33606E+04  2.23416E+04 -5.87931E+03  2.50726E+04 -2.23111E+04  1.15555E+04 -2.78496E+04 -4.79619E+03
 -2.04062E+04 -1.76343E+04 -8.45402E+03 -2.04503E+04  4.12173E+03 -1.94002E+04  1.54770E+04 -1.79418E+04
  2.57238E+04 -1.28882E+04  3.24390E+04  2.93721E+03  2.37286E+04  1.96867E+04  4.19306E+03  3.63103E+04
 -1.75998E+04  3.01804E+04 -2.77583E+04  1.04236E+04 -2.08156E+04 -1.03928E+04 -4.26264E+03 -1.35620E+04
  1.81653E+03 -3.32313E+03 -4.62723E+03  6.71520E+03 -1.61529E+04  4.98062E+03 -1.57116E+04 -6.62586E+03
 -9.71766E+03 -1.87320E+04  4.80570E+03 -2.30147E+04  1.47446E+04 -1.61372E+04  1.79320E+04 -1.51322E+03
  1.10112E+04  1.27369E+04 -1.15249E+03  1.85311E+04 -1.26281E+04  1.04815E+04 -1.85276E+04 -3.62410E+03
 -1.38484E+04 -1.66298E+04 -1.72780E+03 -2.27645E+04  1.03346E+04 -1.85693E+04  1.88144E+04 -9.41183E+03
  1.74144E+04  4.63807E+02  1.24981E+04  4.62706E+03  6.33512E+03  5.19389E+02  9.16936E+03 -1.70012E+03
  1.71012E+04  2.96080E+03  1.90117E+04  1.47696E+04  1.24754E+04  2.98817E+04 -2.89494E+03  3.31501E+04
 -1.92543E+04  2.66688E+04 -3.11541E+04  1.31251E+04 -3.23762E+04 -2.28093E+03 -2.69956E+04 -1.84155E+04
 -1.14307E+04 -2.66612E+04  9.24694E+03 -2.41657E+04  2.06640E+04 -1.23104E+04  1.87774E+04  5.15470E+03
  6.74085E+03  1.38100E+04 -8.63033E+03  1.24464E+04 -1.53988E+04  2.41030E+03 -1.22341E+04 -9.66517E+03
 -2.14253E+02 -1.51031E+04  7.69375E+03 -1.10298E+04  9.99546E+03 -1.36865E+03  1.88549E+03  6.15183E+03
 -6.83884E+03  2.36197E+03 -5.49966E+03 -5.21629E+03 -1.17186E+02 -1.28567E+04  8.91611E+03 -1.33637E+04
  1.60918E+04 -6.99212E+03  1.69528E+04  2.55531E+03  1.46997E+04  1.25599E+04  6.83511E+03  1.93951E+04
 -3.27990E+03  2.12223E+04 -1.30493E+04  1.30653E+04 -1.50644E+04  3.26507E+03 -1.07587E+04 -3.03062E+03
 -5.35059E+03 -4.69064E+03 -8.84764E+02  9.28902E+02 -2.32672E+03  2.59597E+03 -5.03650E+03  3.91513E+03
 -9.87024E+03 -4.20360E+02 -1.07168E+04 -8.62291E+03 -4.37314E+03 -1.37435E+04  4.69048E+03 -1.08270E+04
  8.94744E+03 -4.24582E+03  6.27740E+03  2.71493E+03  5.43980E+02  3.95008E+03 -4.88770E+03 -1.95240E+02
 -4.88806E+03 -6.66971E+03 -1.06740E+03 -9.88613E+03  5.08185E+03 -1.05163E+04  1.30804E+04 -5.14341E+03
  1.55291E+04  1.28093E+03  1.11184E+04  8.64269E+03  2.16327E+03  1.18242E+04 -6.71449E+03  1.03938E+04
 -8.46515E+03  3.32949E+03 -4.32192E+03 -1.87020E+03  1.54411E+03 -2.98141E+03  5.78157E+03 -6.19182E+02
  5.17629E+03  4.37915E+03  1.26152E+03  8.07550E+03 -5.93498E+03  8.15422E+03 -1.03365E+04  2.17803E+03
 -6.66212E+03 -4.77752E+03  3.75949E+02 -8.39422E+03  5.06397E+03 -4.25780E+03  4.89891E+03  1.60492E+03
  6.80564E+02  5.12494E+03 -5.32857E+03  6.47985E+03 -7.32897E+03  3.27753E+03 -7.38057E+03 -2.40893E+03
 -4.27705E+03 -8.64082E+03  1.69729E+03 -1.01514E+04  8.68932E+03 -6.00420E+03  9.56725E+03  1.51140E+03
  6.19417E+03  7.58772E+03 -4.41818E+02  9.54813E+03 -6.91322E+03  5.37379E+03 -7.49004E+03 -4.38361E+02
 -7.03873E+03 -6.43157E+03 -1.57243E+03 -6.79098E+03  3.48140E+03 -6.07507E+03  3.97197E+03 -3.08372E+03
  3.65307E+03  7.50528E+02 -1.59457E+02  1.41438E+03 -1.20180E+02 -9.42564E+02  7.12265E+02 -3.41074E+03
  5.65737E+03 -1.69002E+03  8.20745E+03  8.68025E+02  8.38091E+03  5.14158E+03  6.52478E+03  1.07033E+04
 -1.95018E+03  1.23400E+04 -1.09202E+04  9.40893E+03 -1.39599E+04  1.80174E+03 -1.10004E+04 -4.34823E+03
 -5.77492E+03 -8.90967E+03 -1.31882E+02 -7.39513E+03  2.43717E+03 -3.81031E+03  2.34842E+03 -2.77719E+03
  2.01103E+03 -1.93787E+03  2.65563E+03 -2.67794E+03  4.21492E+03 -1.92704E+03  4.91091E+03  1.58633E+02
  6.21375E+03  1.83337E+03  2.28953E+03  4.70578E+03 -1.64033E+03  5.19751E+03 -5.64792E+03  4.04998E+03
 -6.87884E+03 -1.18646E+03 -3.49038E+03 -5.09319E+03  2.31524E+02 -7.56530E+03  4.50793E+03 -7.97495E+03
  7.70137E+03 -4.48192E+03  9.82057E+03  7.50380E+02  6.56028E+03  6.46971E+03  1.25971E+03  8.51233E+03
 -3.36222E+03  7.63818E+03 -5.32994E+03  2.64298E+03 -2.89489E+03 -1.25362E+03 -1.18383E+03 -9.92169E+02
 -8.55396E+02  1.42222E+02 -1.61892E+03  2.19251E+03 -3.44704E+03  1.01132E+03 -5.37111E+03 -5.34160E+02
 -2.70966E+03 -5.71096E+03  7.64878E+02 -6.96726E+03  4.09503E+03 -6.58223E+03  6.00192E+03 -2.10772E+03
  6.31650E+03  3.35347E+03  2.86814E+03  5.47719E+03 -1.06579E+03  6.45666E+03 -4.12512E+03  4.22118E+03
 -5.99433E+03  6.58220E+02 -4.99901E+03 -3.79200E+03 -3.88247E+02 -5.21678E+03  2.92225E+03 -4.04163E+03
  4.24215E+03 -1.44150E+03  2.91661E+03  9.74440E+02  9.47413E+02  2.15260E+03  1.02416E+03  8.40801E+02
  1.70348E+03  5.58122E+02  1.78355E+03  1.03954E+03  1.38917E+03  3.16007E+03  2.10487E+03  2.97837E+03
 -1.35838E+03  4.43800E+03 -4.16676E+03  5.51727E+03 -5.46876E+03  1.74863E+03 -6.60097E+03 -1.37401E+03
 -2.88791E+03 -5.85560E+03  1.02613E+03 -7.02178E+03  3.62077E+03 -4.13293E+03  4.84431E+03 -1.19969E+03
  3.96146E+03  2.22885E+03  8.81326E+02  3.56645E+03 -1.47102E+03  2.20851E+03 -1.90676E+03 -1.83079E+02
 -1.14322E+03 -2.24374E+03  1.64905E+03 -2.32743E+03  1.97450E+03 -1.49233E+03  2.24361E+03  5.08339E+02
  1.37657E+03  6.14078E+02  7.42211E+02  4.50277E+02 -5.71809E+02  9.55503E+02  1.35601E+03 -4.01111E+02
  2.62302E+02 -4.34492E+02  2.63425E+03  7.90230E+02  8.61807E+02  3.11367E+03 -8.17973E+02  4.20288E+03
 -2.50929E+03  1.99653E+03 -3.63576E+03  6.29085E+02 -3.49043E+03 -1.13078E+03 -8.43255E+02 -1.95109E+03
  6.93626E+02 -1.99826E+03  1.21751E+03 -1.01461E+03  1.07791E+03  1.23936E+03 -3.57008E+02  1.59751E+03
 -2.11309E+03  8.85794E+02 -2.21764E+03 -1.74122E+03 -1.07801E+03 -3.17472E+03  5.75846E+02 -2.62901E+03
  1.18805E+03 -1.30352E+03  1.54897E+03 -1.15996E+02  2.12270E+03  1.99399E+02  2.82168E+02  1.42750E+03
 -9.76305E+02  3.33025E+02 -1.39058E+03 -9.20584E+02  6.49230E+02 -1.70355E+03  2.54295E+03 -1.37130E+03
  2.35405E+03  2.49644E+01  3.80204E+03  1.43571E+03  1.09714E+03  2.90389E+03 -9.30632E+02  3.16301E+03
 -2.36302E+03  8.84776E+02 -2.22532E+03 -4.03335E+02 -1.31474E+03 -2.12171E+03  7.17274E+02 -1.54927E+03
  2.42174E+03 -1.10516E+03  1.25688E+03  8.72110E+02  3.06797E+02  2.18571E+03  1.08094E+02  1.87335E+03
 -8.05974E+02  1.40045E+03 -8.34399E+02  2.50294E+02 -4.69022E+02  6.07438E+02 -1.15154E+03  5.70815E+02
 -7.46489E+02  1.49026E+03 -2.58020E+03  9.46447E+02 -2.42248E+03  2.94318E+02 -3.68413E+03 -1.61942E+03
 -1.76951E+03 -4.14224E+03  6.03338E+02 -4.73125E+03  2.26004E+03 -3.78859E+03  3.95433E+03 -1.89068E+03
  4.19977E+03 -3.28764E+01  2.41345E+03  2.97847E+03 -4.58019E+02  2.80481E+03 -1.16385E+03  2.10198E+03
 -1.51253E+03  5.80394E+02 -7.07160E+02 -6.02474E+01 -3.61306E+02  1.13570E+02 -6.89569E+02  1.38202E+02
 -1.40421E+03 -2.35439E+01 -1.29916E+03 -4.11522E+01  2.29120E+02 -1.13688E+03 -1.02596E+02 -1.59571E+03
  1.67933E+03 -1.08945E+03  1.34559E+03  2.21009E+02  2.11035E+03  1.62376E+03 -2.07797E+02  2.23017E+03
 -1.36769E+03  3.49175E+03 -2.57140E+03  2.07195E+03 -3.12317E+03 -1.55699E+02 -2.42235E+03 -1.92152E+03
 -1.27819E+03 -2.32935E+03  4.22529E+02 -2.37212E+03  1.68559E+03 -1.23874E+03  1.62125E+03  3.15015E+00
  1.40958E+03  7.02000E+02 -1.14549E+01  5.65720E+02 -5.08320E+02  2.89003E+02  2.56877E+02 -6.83711E+02
  5.43251E+02  1.78673E+02  5.01031E+02  7.45131E+02  4.12420E+02  7.71022E+02  2.73308E+02  8.34873E+02
 -9.46546E+02  1.05703E+03 -1.29316E+03  6.60164E+02 -1.70142E+03 -7.60515E+02 -1.94504E+02 -1.84473E+03
  9.88601E+02 -1.44093E+03  9.28960E+02 -3.30110E+02  1.82252E+03 -3.16731E+02  1.04865E+03  1.09867E+03
  5.76894E+02  7.94449E+02 -6.28156E+02  9.18697E+02 -1.19956E+03  8.94093E+02 -7.94754E+02  4.38677E+02
 -6.26615E+02  2.15720E+02 -4.39844E+02  3.10294E+02 -9.19206E+02 -3.71028E+01 -1.00405E+03 -6.64774E+02
 -1.26390E+03 -2.72071E+02 -1.81731E+02 -1.61412E+03  9.98242E+02 -2.20648E+03  1.45493E+03 -1.22591E+02
  1.53895E+03 -1.28647E+01 -4.44909E+01  6.73087E+02 -3.82184E+02  1.37218E+03 -1.23543E+03  9.63744E+02
