 $NMID ID='MM_0lb_SNR800_16hz_g60_45.RAW', FMTDAT='(8E13.5)'
 TRAMP=1., VOLUME=1. $END
  3.09715E+05  5.41491E+02  3.37727E+05  2.50796E+05  8.46705E+04  3.38085E+05 -1.32573E+05  2.51377E+05
 -1.90671E+05  8.32665E+04 -1.11745E+05 -3.27966E+04  8.31640E+02 -5.05962E+04  5.36779E+04 -5.21973E+01
  3.53102E+04  5.29198E+04 -1.66121E+04  7.57915E+04 -6.09267E+04  6.39137E+04 -8.44064E+04  3.20758E+04
 -8.13194E+04 -1.14024E+04 -5.73993E+04 -5.13063E+04 -1.48834E+04 -6.97716E+04  2.74656E+04 -4.58590E+04
  4.01433E+04  3.77560E+03  1.60925E+04  4.82146E+04 -3.43747E+04  4.75014E+04 -6.69885E+04 -2.47435E+02
 -5.33769E+04 -5.64813E+04 -6.50685E+03 -7.72281E+04  3.40327E+04 -5.51587E+04  4.80971E+04 -1.74114E+04
  4.35965E+04  1.12569E+04  3.17617E+04  2.57193E+04  1.59265E+04  2.93193E+04 -5.24299E+03  2.74060E+04
 -2.21732E+04  1.23314E+04 -1.87711E+04 -5.08127E+03  5.97130E+03 -7.56403E+03  2.23476E+04  1.24732E+04
  7.32111E+03  3.54579E+04 -3.20844E+04  3.55851E+04 -6.33691E+04  2.10024E+03 -5.69460E+04 -4.29566E+04
 -1.26860E+04 -6.35621E+04  3.97827E+04 -4.54002E+04  5.84453E+04 -1.97621E+03  3.45637E+04  3.24476E+04
 -6.31873E+03  3.62665E+04 -3.01628E+04  1.58515E+04 -3.06226E+04 -4.47814E+03 -1.67807E+04 -1.10197E+04
 -8.36005E+03 -1.32717E+04 -4.66227E+02 -1.81818E+04  7.38299E+03 -2.29865E+04  1.56442E+04 -1.34565E+04
  1.12799E+04  5.12406E+03 -8.26536E+03  1.28982E+04 -2.11667E+04 -4.30753E+03 -8.21757E+03 -3.40050E+04
  2.28568E+04 -4.34323E+04  4.81367E+04 -2.00826E+04  4.50085E+04  1.94239E+04  1.56918E+04  4.41228E+04
 -1.61649E+04  3.33054E+04 -2.52716E+04  1.85115E+03 -9.60745E+03 -2.79269E+04  2.11580E+04 -3.38409E+04
  4.11047E+04 -8.82091E+03  3.55042E+04  2.39123E+04  1.83161E+04  4.63822E+04 -7.92549E+03  5.03167E+04
 -3.14745E+04  3.39432E+04 -4.17262E+04  9.47383E+03 -4.27314E+04 -1.68224E+04 -2.32465E+04 -3.78241E+04
  7.57394E+03 -3.79131E+04  3.12053E+04 -1.48842E+04  2.91602E+04  1.10028E+04  3.71962E+03  1.90712E+04
 -1.34661E+04  8.28485E+03 -1.04652E+04 -7.47256E+03  5.96639E+03 -1.08894E+04  1.81930E+04  5.86496E+03
  1.32313E+04  2.19905E+04 -6.10280E+03  2.52842E+04 -2.25992E+04  1.15065E+04 -2.78657E+04 -4.91197E+03
 -2.02533E+04 -1.73757E+04 -8.21861E+03 -2.05732E+04  3.99473E+03 -1.90150E+04  1.53966E+04 -1.79803E+04
  2.59344E+04 -1.27945E+04  3.24021E+04  2.60429E+03  2.35155E+04  1.97078E+04  4.28332E+03  3.62964E+04
 -1.77973E+04  2.99189E+04 -2.78944E+04  1.03214E+04 -2.09118E+04 -1.04472E+04 -4.32744E+03 -1.32721E+04
  2.11715E+03 -3.20695E+03 -4.41264E+03  6.69953E+03 -1.60011E+04  5.18586E+03 -1.63358E+04 -7.08570E+03
 -1.00709E+04 -1.86690E+04  5.03101E+03 -2.28133E+04  1.49160E+04 -1.62559E+04  1.79208E+04 -1.58159E+03
  1.16042E+04  1.29189E+04 -1.00270E+03  1.88019E+04 -1.27570E+04  1.06540E+04 -1.89749E+04 -4.03293E+03
 -1.35475E+04 -1.69855E+04 -1.61438E+03 -2.24430E+04  1.01817E+04 -1.82542E+04  1.88654E+04 -9.21662E+03
  1.75095E+04  1.46944E+02  1.24439E+04  4.48099E+03  6.63392E+03  8.17485E+02  9.69676E+03 -1.78435E+03
  1.70235E+04  2.78852E+03  1.88047E+04  1.50101E+04  1.22271E+04  2.95691E+04 -2.90443E+03  3.32659E+04
 -1.92552E+04  2.65812E+04 -3.10125E+04  1.29721E+04 -3.22848E+04 -2.22773E+03 -2.67923E+04 -1.87221E+04
 -1.17960E+04 -2.66037E+04  9.42445E+03 -2.40884E+04  2.07290E+04 -1.24869E+04  1.85208E+04  5.14151E+03
  7.30329E+03  1.38201E+04 -8.63599E+03  1.23235E+04 -1.57453E+04  2.58015E+03 -1.22431E+04 -9.49465E+03
 -1.97666E+02 -1.49893E+04  7.59859E+03 -1.13002E+04  9.65701E+03 -1.44875E+03  1.88245E+03  6.38329E+03
 -6.59564E+03  1.97522E+03 -5.59702E+03 -5.39263E+03 -3.56933E+02 -1.29451E+04  9.05965E+03 -1.33487E+04
  1.60998E+04 -6.70594E+03  1.71914E+04  3.31281E+03  1.47221E+04  1.24493E+04  6.98539E+03  1.94563E+04
 -2.83839E+03  2.12800E+04 -1.35718E+04  1.34198E+04 -1.51558E+04  3.40986E+03 -1.06351E+04 -3.09600E+03
 -5.27751E+03 -4.69609E+03 -9.77493E+02  9.70607E+02 -2.13622E+03  2.21168E+03 -5.02685E+03  4.22575E+03
 -1.04292E+04 -7.50286E+02 -1.08432E+04 -8.83382E+03 -4.35520E+03 -1.39932E+04  4.48955E+03 -1.09767E+04
  9.29774E+03 -4.69214E+03  6.32281E+03  3.04149E+03  4.53784E+02  4.08931E+03 -4.86759E+03 -3.13362E+01
 -4.81309E+03 -6.50776E+03 -7.17309E+02 -1.01816E+04  5.65668E+03 -1.02070E+04  1.30698E+04 -5.37529E+03
  1.54060E+04  1.16664E+03  1.13181E+04  9.04725E+03  2.13359E+03  1.16676E+04 -6.49896E+03  1.06791E+04
 -8.93905E+03  3.36351E+03 -4.76735E+03 -2.14081E+03  1.63985E+03 -2.93207E+03  5.70416E+03 -1.10807E+03
  5.09295E+03  4.63973E+03  1.48409E+03  8.17121E+03 -5.87518E+03  8.14662E+03 -1.01969E+04  2.30327E+03
 -6.83468E+03 -4.98654E+03  3.90376E+02 -8.40331E+03  5.14240E+03 -4.38151E+03  5.36955E+03  1.81501E+03
  8.41667E+02  5.54255E+03 -5.39286E+03  6.51343E+03 -7.54814E+03  3.47079E+03 -7.20810E+03 -2.32043E+03
 -4.47440E+03 -8.79218E+03  1.88003E+03 -1.00246E+04  8.78833E+03 -6.41269E+03  9.05284E+03  1.28834E+03
  5.83084E+03  7.65222E+03 -1.59749E+02  9.46563E+03 -6.88591E+03  5.62408E+03 -7.28938E+03 -4.14273E+02
 -7.10454E+03 -6.33029E+03 -1.63267E+03 -7.17169E+03  3.93943E+03 -5.91769E+03  4.24206E+03 -3.09800E+03
  3.42992E+03  7.92984E+02 -5.39463E+01  1.10255E+03  8.95404E+01 -1.28192E+03  4.20336E+02 -3.28216E+03
  5.47249E+03 -2.06315E+03  8.11825E+03  1.05683E+03  8.42044E+03  5.35336E+03  6.48829E+03  1.06744E+04
 -2.05613E+03  1.23820E+04 -1.06010E+04  9.20855E+03 -1.41842E+04  1.31354E+03 -1.11366E+04 -4.04727E+03
 -5.80496E+03 -8.87716E+03 -3.07941E+02 -7.50977E+03  3.07302E+03 -3.64850E+03  2.62549E+03 -3.03963E+03
  2.02570E+03 -1.66800E+03  2.62099E+03 -2.46162E+03  4.13266E+03 -1.97677E+03  4.72080E+03 -2.11615E+02
  6.13084E+03  1.64606E+03  2.50870E+03  4.72579E+03 -1.73903E+03  4.82314E+03 -6.21631E+03  4.23212E+03
 -7.27237E+03 -8.75122E+02 -3.25795E+03 -4.91322E+03  1.68652E+02 -7.65562E+03  4.53895E+03 -7.59108E+03
  7.80022E+03 -4.71099E+03  9.76900E+03  1.11006E+03  6.78316E+03  6.50197E+03  1.18999E+03  8.70659E+03
 -3.10680E+03  7.67568E+03 -5.21180E+03  2.33023E+03 -3.29304E+03 -1.34893E+03 -9.92923E+02 -1.06717E+03
 -6.31548E+02  2.38241E+02 -1.27095E+03  2.34867E+03 -3.32539E+03  1.42548E+03 -5.49497E+03 -7.36522E+02
 -2.73240E+03 -5.21003E+03  5.47267E+02 -6.88590E+03  4.19811E+03 -6.14796E+03  6.15936E+03 -1.59283E+03
  6.19608E+03  3.53862E+03  3.09631E+03  5.53482E+03 -1.13978E+03  6.46778E+03 -3.91775E+03  4.09031E+03
 -5.64837E+03  7.00176E+02 -4.94234E+03 -3.60762E+03 -3.15176E+02 -4.95996E+03  2.69062E+03 -3.91394E+03
  3.97797E+03 -1.64634E+03  2.80974E+03  7.61216E+02  5.49761E+02  2.59925E+03  9.97566E+02  8.97309E+02
  2.01281E+03  6.73396E+02  1.62637E+03  1.36074E+03  1.48117E+03  2.95769E+03  1.80340E+03  2.80340E+03
 -1.83320E+03  5.17430E+03 -4.34975E+03  5.57989E+03 -5.49797E+03  1.49726E+03 -6.65394E+03 -1.52590E+03
 -2.67259E+03 -5.95666E+03  1.01742E+03 -6.87917E+03  3.38602E+03 -4.13861E+03  4.94624E+03 -1.27918E+03
  3.81831E+03  2.30385E+03  5.71648E+02  3.30368E+03 -1.35571E+03  2.00620E+03 -1.67576E+03 -1.09261E+02
 -1.01114E+03 -2.51290E+03  1.58797E+03 -2.53629E+03  2.16316E+03 -1.30505E+03  2.17793E+03  2.09497E+02
  1.15236E+03  5.91750E+02  6.88877E+02  2.10560E+02 -3.21924E+02  9.34222E+02  1.51044E+03 -3.05770E+02
  5.67353E+02 -4.24784E+01  2.69494E+03  1.00310E+03  7.46534E+02  3.04383E+03 -1.79025E+02  4.35212E+03
 -2.46981E+03  2.05032E+03 -3.61755E+03  4.48088E+02 -3.20333E+03 -1.13994E+03 -6.62031E+02 -1.81008E+03
  4.10728E+02 -2.02202E+03  1.55842E+03 -1.17324E+03  1.11081E+03  1.41674E+03 -9.23707E+02  1.79656E+03
 -2.34343E+03  1.09137E+03 -1.87464E+03 -1.84175E+03 -1.01820E+03 -3.49073E+03  3.38188E+02 -2.60111E+03
  1.18280E+03 -1.54213E+03  1.59185E+03  1.36395E+02  2.07438E+03  1.35060E+02  6.54233E+02  1.83981E+03
 -6.98977E+02  4.21924E+02 -1.67322E+03 -2.44319E+02  1.05407E+03 -1.92330E+03  2.63769E+03 -1.68980E+03
  2.79946E+03  5.50503E+02  3.86794E+03  1.72334E+03  1.36136E+03  2.92827E+03 -9.06999E+02  2.79452E+03
 -2.31215E+03  8.22556E+02 -2.80655E+03 -3.28923E+02 -1.29201E+03 -1.99889E+03  6.43724E+02 -1.11345E+03
  2.21053E+03 -9.50842E+02  1.42076E+03  1.25528E+03  2.80392E+02  1.76593E+03 -2.30064E+01  1.68953E+03
 -1.06926E+03  1.11157E+03 -8.46328E+02  1.70541E+02 -1.18111E+02  1.78910E+02 -7.82411E+02  5.12995E+02
 -1.15177E+03  1.63765E+03 -2.42499E+03  7.84595E+02 -2.80167E+03  2.55533E+02 -3.66260E+03 -1.77243E+03
 -1.56435E+03 -3.78328E+03  8.62806E+02 -4.55207E+03  2.13602E+03 -3.70255E+03  4.41537E+03 -1.67038E+03
  4.15517E+03  2.17799E+02  2.29758E+03  2.56646E+03 -3.84966E+02  2.55174E+03 -1.15301E+03  2.04120E+03
 -2.02962E+03  8.42866E+02 -1.09438E+03 -2.32587E+02 -8.33904E+02  4.47378E+02 -1.00910E+03  8.62451E+01
 -1.02215E+03 -5.53581E+02 -9.85234E+02  2.72949E+02 -1.14705E+02 -6.89854E+02 -2.16158E+02 -1.32046E+03
  1.66739E+03 -8.40222E+02  1.48024E+03  5.24416E+02  1.66893E+03  1.88636E+03 -1.60145E+02  2.46000E+03
 -1.54211E+03  3.32550E+03 -2.65281E+03  2.00062E+03 -3.09263E+03 -3.05680E+02 -2.29291E+03 -1.95912E+03
 -1.39771E+03 -2.26837E+03  6.52077E+02 -2.15991E+03  1.42489E+03 -1.15602E+03  1.39785E+03  1.88877E+02
  1.09434E+03  3.49535E+02 -1.59741E+01  6.71978E+02 -6.65725E+02 -1.97347E+02 -6.01865E+01 -6.49329E+02
  7.86925E+02 -2.51389E+02  9.44090E+02  7.08677E+02  2.60982E+02  5.88567E+02  1.65105E+02  5.71553E+02
 -1.04142E+03  9.69113E+02 -1.23399E+03  1.76313E+02 -1.21483E+03 -1.28595E+03 -4.44703E+01 -1.81259E+03
  8.89435E+02 -1.42096E+03  1.33378E+03 -3.64599E+02  1.81916E+03 -3.93052E+02  9.76990E+02  1.49314E+03
  5.55916E+02  1.23711E+03 -4.35679E+02  9.37893E+02 -1.16788E+03  9.06622E+02 -5.31256E+02  1.86817E+02
 -5.88492E+02 -2.71213E+02 -5.16758E+02  2.45379E+02 -1.10055E+03  1.19811E+01 -1.01407E+03 -4.30781E+02
 -1.60776E+03  1.11079E+02 -5.45475E+02 -1.49910E+03  7.76708E+02 -2.37802E+03  1.09417E+03 -4.71159E+02
  1.53626E+03  6.17276E+01  1.50726E+02  5.23487E+02  1.16767E+02  1.35053E+03 -8.25733E+02  1.18873E+03
