 $NMID ID='MM_0lb_SNR800_10hz_g50_12.RAW', FMTDAT='(8E13.5)'
 TRAMP=1., VOLUME=1. $END
  3.10196E+05  3.91710E+02  3.37736E+05  2.50783E+05  8.46880E+04  3.38374E+05 -1.32636E+05  2.51845E+05
 -1.90675E+05  8.38880E+04 -1.12535E+05 -3.23278E+04  2.20521E+02 -5.07384E+04  5.37164E+04 -9.12604E+01
  3.58457E+04  5.28824E+04 -1.68271E+04  7.57800E+04 -6.13163E+04  6.41896E+04 -8.50323E+04  3.22963E+04
 -8.24692E+04 -1.15857E+04 -5.83363E+04 -5.18740E+04 -1.49051E+04 -7.06902E+04  2.79585E+04 -4.65323E+04
  4.12061E+04  3.46926E+03  1.63948E+04  4.82938E+04 -3.48415E+04  4.76762E+04 -6.71926E+04  2.81456E+02
 -5.44572E+04 -5.76356E+04 -7.23788E+03 -7.87525E+04  3.47389E+04 -5.63278E+04  4.94065E+04 -1.81960E+04
  4.48138E+04  1.12850E+04  3.27373E+04  2.64544E+04  1.59054E+04  3.01155E+04 -5.48888E+03  2.78344E+04
 -2.24593E+04  1.15790E+04 -1.79645E+04 -5.49438E+03  6.55579E+03 -7.51352E+03  2.34025E+04  1.33351E+04
  6.52272E+03  3.71632E+04 -3.33729E+04  3.64378E+04 -6.52016E+04  1.95402E+03 -5.88853E+04 -4.39621E+04
 -1.23517E+04 -6.52257E+04  4.08506E+04 -4.70524E+04  6.04185E+04 -2.11481E+03  3.59600E+04  3.40667E+04
 -5.65815E+03  3.88597E+04 -3.14669E+04  1.80554E+04 -3.31337E+04 -3.87176E+03 -1.87611E+04 -1.15806E+04
 -9.40832E+03 -1.49915E+04 -2.79477E+02 -1.94698E+04  8.36798E+03 -2.32668E+04  1.57840E+04 -1.28184E+04
  1.05157E+04  5.87674E+03 -1.03692E+04  1.28391E+04 -2.31259E+04 -6.21625E+03 -8.84533E+03 -3.64524E+04
  2.46413E+04 -4.63019E+04  5.12522E+04 -2.05812E+04  4.77632E+04  2.09010E+04  1.69323E+04  4.65203E+04
 -1.64209E+04  3.54522E+04 -2.71198E+04  2.54300E+03 -1.10010E+04 -2.93306E+04  2.12846E+04 -3.62524E+04
  4.39602E+04 -1.05777E+04  3.92417E+04  2.46422E+04  2.05989E+04  5.01250E+04 -7.78232E+03  5.49067E+04
 -3.45075E+04  3.73322E+04 -4.64758E+04  1.10079E+04 -4.62830E+04 -1.82574E+04 -2.55369E+04 -4.09906E+04
  7.96503E+03 -4.13455E+04  3.41751E+04 -1.65091E+04  3.15327E+04  1.09988E+04  4.96824E+03  2.06540E+04
 -1.36092E+04  9.62508E+03 -1.10268E+04 -7.69838E+03  5.65080E+03 -1.11600E+04  1.85734E+04  5.89457E+03
  1.47388E+04  2.27643E+04 -5.34415E+03  2.64646E+04 -2.28009E+04  1.37030E+04 -3.06633E+04 -2.98742E+03
 -2.39899E+04 -1.78627E+04 -1.10829E+04 -2.39626E+04  4.07228E+03 -2.49000E+04  1.93281E+04 -2.19246E+04
  3.10577E+04 -1.34022E+04  3.66913E+04  4.71707E+03  2.59273E+04  2.35064E+04  4.55037E+03  4.01648E+04
 -1.98454E+04  3.31955E+04 -2.98158E+04  1.16415E+04 -2.26539E+04 -1.00767E+04 -4.67641E+03 -1.29996E+04
  9.10515E+02 -1.43591E+03 -7.11561E+03  8.02650E+03 -1.92277E+04  4.95013E+03 -1.96735E+04 -9.11385E+03
 -1.18594E+04 -2.25590E+04  5.70088E+03 -2.69449E+04  1.81000E+04 -1.90747E+04  2.13475E+04 -1.49576E+03
  1.37002E+04  1.57178E+04 -1.04460E+03  2.27977E+04 -1.61862E+04  1.27621E+04 -2.29112E+04 -5.00888E+03
 -1.66012E+04 -2.01577E+04 -2.30582E+03 -2.69968E+04  1.20593E+04 -2.26478E+04  2.26375E+04 -1.16352E+04
  2.10626E+04 -2.71934E+02  1.49574E+04  5.10863E+03  8.16693E+03  1.28151E+03  1.17307E+04 -2.01827E+03
  2.08083E+04  2.85317E+03  2.44091E+04  1.76555E+04  1.64901E+04  3.61397E+04 -2.55209E+03  4.20754E+04
 -2.44095E+04  3.51339E+04 -3.95429E+04  1.83699E+04 -4.20195E+04 -2.98144E+03 -3.44583E+04 -2.45653E+04
 -1.37441E+04 -3.49961E+04  1.24994E+04 -3.09689E+04  2.60732E+04 -1.51101E+04  2.35165E+04  7.13189E+03
  8.05426E+03  1.76339E+04 -1.10120E+04  1.52348E+04 -1.92379E+04  3.00007E+03 -1.44081E+04 -1.21532E+04
 -5.32513E+02 -1.88000E+04  9.97895E+03 -1.35195E+04  1.27255E+04 -1.61898E+03  3.48989E+03  8.31832E+03
 -8.41367E+03  3.44217E+03 -8.79984E+03 -6.61601E+03 -1.97421E+03 -1.70692E+04  1.15870E+04 -1.85941E+04
  2.12848E+04 -1.04525E+04  2.48123E+04  3.00648E+03  2.14113E+04  1.77367E+04  9.60883E+03  2.71050E+04
 -4.96955E+03  2.90587E+04 -1.96347E+04  1.80496E+04 -2.12995E+04  3.58988E+03 -1.48551E+04 -5.16888E+03
 -6.42433E+03 -6.85273E+03 -7.12949E+02  2.34775E+02 -2.92550E+03  2.84928E+03 -6.95293E+03  4.86244E+03
 -1.32237E+04 -1.17531E+03 -1.40209E+04 -1.15123E+04 -5.24920E+03 -1.85268E+04  6.22432E+03 -1.46863E+04
  1.17875E+04 -5.98842E+03  8.61678E+03  4.37886E+03 -5.94888E+02  5.57865E+03 -7.13462E+03 -1.79890E+02
 -6.86708E+03 -9.30815E+03 -6.30224E+02 -1.47225E+04  8.51713E+03 -1.52518E+04  1.86842E+04 -8.29945E+03
  2.18129E+04  2.21680E+03  1.58404E+04  1.36299E+04  3.20433E+03  1.74993E+04 -9.15128E+03  1.45516E+04
 -1.19513E+04  4.50080E+03 -5.83170E+03 -2.96362E+03  2.12355E+03 -4.25471E+03  7.92773E+03 -8.83078E+02
  6.65291E+03  6.47560E+03  1.20875E+03  1.14358E+04 -8.41761E+03  1.13094E+04 -1.43714E+04  2.42030E+03
 -9.83925E+03 -7.57097E+03 -1.61868E+02 -1.24449E+04  8.37481E+03 -6.39899E+03  8.36838E+03  3.14685E+03
  1.94609E+03  9.06443E+03 -7.53796E+03  1.06151E+04 -1.25181E+04  4.88779E+03 -1.29362E+04 -4.45373E+03
 -7.63505E+03 -1.43520E+04  3.16144E+03 -1.65254E+04  1.43522E+04 -9.80220E+03  1.53508E+04  2.67501E+03
  9.33158E+03  1.23400E+04 -1.11223E+03  1.44950E+04 -1.03453E+04  7.96575E+03 -1.19204E+04 -8.34180E+02
 -1.02047E+04 -9.69784E+03 -1.64274E+03 -1.09405E+04  5.98606E+03 -9.21156E+03  7.22694E+03 -3.54043E+03
  4.84549E+03  1.90593E+03 -1.08529E+03  2.02809E+03 -4.73510E+02 -3.00810E+03  1.95145E+03 -6.81433E+03
  1.03641E+04 -4.46788E+03  1.45123E+04  1.66345E+03  1.40943E+04  9.87092E+03  9.70495E+03  1.87648E+04
 -4.21911E+03  2.19875E+04 -1.82210E+04  1.64107E+04 -2.35335E+04  3.02784E+03 -1.89327E+04 -8.22087E+03
 -9.62433E+03 -1.54153E+04 -1.13863E+01 -1.31740E+04  5.00396E+03 -7.47953E+03  4.76987E+03 -4.78458E+03
  3.38919E+03 -2.93667E+03  3.70020E+03 -3.54301E+03  5.34417E+03 -3.34149E+03  7.33843E+03 -1.20735E+03
  9.54874E+03  2.44451E+03  5.34029E+03  8.45357E+03 -1.98067E+03  1.05583E+04 -1.06226E+04  7.77711E+03
 -1.33573E+04 -1.11275E+03 -8.17226E+03 -9.20910E+03 -1.20175E+03 -1.43022E+04  8.02224E+03 -1.40385E+04
  1.52339E+04 -7.69732E+03  1.76317E+04  2.26358E+03  1.21053E+04  1.23656E+04  2.10907E+03  1.63300E+04
 -6.54543E+03  1.33674E+04 -9.20357E+03  4.98032E+03 -6.49562E+03 -1.36873E+03 -2.81707E+03 -2.04592E+03
 -1.34991E+03  1.50978E+01 -1.99519E+03  2.75983E+03 -5.65686E+03  2.44377E+03 -9.37626E+03 -1.32808E+03
 -6.66713E+03 -8.79489E+03 -1.27161E+02 -1.34074E+04  8.21805E+03 -1.24002E+04  1.31578E+04 -3.95075E+03
  1.28200E+04  6.35040E+03  6.48237E+03  1.20664E+04 -2.72995E+03  1.33270E+04 -9.37137E+03  8.33291E+03
 -1.27274E+04  6.74612E+02 -9.58250E+03 -7.89136E+03 -1.02533E+03 -1.11473E+04  5.48947E+03 -7.97801E+03
  8.48808E+03 -2.91232E+03  5.74030E+03  2.19790E+03  2.04728E+03  4.23707E+03  1.21569E+03  1.57434E+03
  2.58824E+03  1.42104E+03  3.03576E+03  1.75065E+03  3.91621E+03  4.92690E+03  3.37948E+03  6.68299E+03
 -2.61071E+03  1.08685E+04 -9.33023E+03  1.06075E+04 -1.33348E+04  2.60703E+03 -1.36859E+04 -5.67553E+03
 -6.58214E+03 -1.31896E+04  2.01975E+03 -1.47909E+04  8.02146E+03 -9.04067E+03  1.08277E+04 -2.57964E+03
  8.22872E+03  5.07664E+03  1.96772E+03  7.69706E+03 -3.53235E+03  4.90836E+03 -5.28770E+03 -1.03368E+03
 -2.66454E+03 -5.77353E+03  3.29695E+03 -5.85182E+03  5.29462E+03 -2.72497E+03  5.00044E+03  1.23250E+03
  2.68734E+03  2.49028E+03  9.52317E+02  1.97335E+03 -7.53822E+02  1.93606E+03  1.43419E+03 -9.18315E+02
  2.19227E+03 -8.27095E+02  5.32361E+03  2.16880E+03  3.19880E+03  7.05894E+03 -1.23932E+03  9.24769E+03
 -6.36842E+03  5.89436E+03 -8.54104E+03  1.20979E+03 -7.68466E+03 -2.86820E+03 -2.96645E+03 -5.12368E+03
  1.17833E+03 -4.85791E+03  3.43248E+03 -2.41807E+03  2.77316E+03  2.90873E+03 -1.25751E+03  4.18523E+03
 -5.53285E+03  2.94476E+03 -6.14465E+03 -3.06733E+03 -3.73839E+03 -7.22923E+03  9.74666E+02 -7.03009E+03
  4.57924E+03 -4.17756E+03  5.23673E+03 -3.40971E+02  4.68249E+03  2.03034E+03  7.01891E+02  3.77981E+03
 -2.48646E+03  8.29110E+02 -3.32259E+03 -2.90261E+03  1.75087E+03 -5.49102E+03  6.48997E+03 -4.43924E+03
  8.29419E+03  6.58260E+02  7.98288E+03  5.52678E+03  2.43767E+03  8.99302E+03 -3.18287E+03  8.35115E+03
 -6.99008E+03  3.44901E+03 -7.63137E+03 -1.46715E+03 -3.89664E+03 -5.79922E+03  1.18414E+03 -5.07495E+03
  5.32687E+03 -2.59049E+03  4.53458E+03  2.29003E+03  1.57028E+03  4.50483E+03 -1.01417E+03  4.25551E+03
 -2.41906E+03  2.57218E+03 -1.85166E+03  1.11848E+03 -8.71544E+02  8.69036E+02 -1.23962E+03  1.58092E+03
 -1.97801E+03  3.29084E+03 -6.01934E+03  3.20687E+03 -8.48045E+03 -1.71305E+02 -9.91392E+03 -5.58356E+03
 -5.60349E+03 -1.14505E+04  2.35765E+03 -1.34671E+04  7.97877E+03 -1.00506E+04  1.21552E+04 -4.09420E+03
  1.17120E+04  2.62462E+03  7.05505E+03  7.58167E+03  4.90840E+02  9.10234E+03 -3.63660E+03  6.65751E+03
 -5.23090E+03  2.36489E+03 -2.94732E+03 -6.32674E+02 -1.46599E+03 -6.03686E+02 -9.50955E+02 -7.31213E+02
 -1.81870E+03  5.94320E+02 -2.64723E+03 -4.79038E+02 -6.27309E+02 -1.86008E+03  1.29513E+02 -3.25178E+03
  4.20602E+03 -2.72700E+03  5.45384E+03 -1.29518E+02  6.10467E+03  4.95851E+03  1.58546E+03  8.95860E+03
 -4.41667E+03  1.02775E+04 -9.33932E+03  5.78159E+03 -1.08766E+04 -9.33083E+02 -8.12320E+03 -6.76767E+03
 -3.16290E+03 -9.00683E+03  2.37796E+03 -8.20429E+03  5.74040E+03 -4.43107E+03  5.67185E+03  4.15378E+02
  3.33894E+03  2.71963E+03 -3.50711E+02  2.46375E+03 -1.63808E+03 -2.48477E+02  5.47308E+00 -1.97524E+03
  2.70534E+03 -6.50541E+02  3.10777E+03  1.35699E+03  2.63525E+03  3.37657E+03  5.62733E+02  4.48437E+03
 -3.57524E+03  3.89260E+03 -5.90797E+03  4.10260E+02 -5.01977E+03 -4.12455E+03 -1.17236E+03 -7.18788E+03
  3.91077E+03 -6.23298E+03  7.16446E+03 -2.17517E+03  6.25402E+03  1.59474E+03  3.89141E+03  5.58807E+03
  9.23108E+02  5.43455E+03 -2.34120E+03  4.54768E+03 -3.66706E+03  2.50704E+03 -3.35215E+03  3.16751E+02
 -1.44611E+03 -4.55095E+02 -1.79312E+03  6.85427E+02 -2.51422E+03  7.05945E+02 -4.30265E+03 -9.72651E+02
 -4.37053E+03 -2.96241E+03 -1.48413E+03 -5.74549E+03  2.65522E+03 -6.71656E+03  5.04029E+03 -2.79915E+03
  5.67106E+03  4.83094E+02  2.54988E+03  3.70445E+03 -4.28336E+02  5.92473E+03 -4.53275E+03  3.71993E+03
