 $NMID ID='MM_0lb_SNR800_14hz_g40_66.RAW', FMTDAT='(8E13.5)'
 TRAMP=1., VOLUME=1. $END
  3.10081E+05  2.94218E+02  3.37626E+05  2.50765E+05  8.44370E+04  3.37704E+05 -1.32421E+05  2.50844E+05
 -1.90162E+05  8.27502E+04 -1.11664E+05 -3.25360E+04  9.34314E+02 -5.06273E+04  5.38791E+04  3.42434E+01
  3.50847E+04  5.27622E+04 -1.66448E+04  7.55034E+04 -6.04834E+04  6.32756E+04 -8.36132E+04  3.20327E+04
 -8.04445E+04 -1.15289E+04 -5.68385E+04 -5.10752E+04 -1.48628E+04 -6.92804E+04  2.71815E+04 -4.55287E+04
  4.00481E+04  4.06127E+03  1.60800E+04  4.78236E+04 -3.44103E+04  4.70806E+04 -6.65806E+04 -3.15793E+02
 -5.33421E+04 -5.67798E+04 -6.53157E+03 -7.64813E+04  3.36386E+04 -5.41097E+04  4.74211E+04 -1.68617E+04
  4.25285E+04  1.10213E+04  3.15237E+04  2.51930E+04  1.56177E+04  2.90997E+04 -4.88378E+03  2.72344E+04
 -2.18798E+04  1.23016E+04 -1.87737E+04 -4.91003E+03  5.30238E+03 -7.51549E+03  2.21807E+04  1.18363E+04
  7.45507E+03  3.49906E+04 -3.14633E+04  3.48898E+04 -6.27456E+04  2.14572E+03 -5.64896E+04 -4.23691E+04
 -1.23738E+04 -6.24391E+04  3.94978E+04 -4.50364E+04  5.73109E+04 -2.33220E+03  3.36611E+04  3.19080E+04
 -6.10753E+03  3.55684E+04 -2.95064E+04  1.54483E+04 -2.96668E+04 -4.53560E+03 -1.60826E+04 -1.05939E+04
 -7.59235E+03 -1.25409E+04 -9.06044E+02 -1.75515E+04  7.58029E+03 -2.28978E+04  1.53501E+04 -1.32021E+04
  1.17566E+04  5.00553E+03 -7.94093E+03  1.28760E+04 -2.04948E+04 -3.95514E+03 -8.00161E+03 -3.30493E+04
  2.24908E+04 -4.25582E+04  4.73688E+04 -1.91665E+04  4.43651E+04  1.90710E+04  1.54905E+04  4.36901E+04
 -1.58597E+04  3.27965E+04 -2.50972E+04  1.43347E+03 -9.33814E+03 -2.72844E+04  2.07504E+04 -3.32186E+04
  4.01758E+04 -8.42129E+03  3.44286E+04  2.34881E+04  1.76971E+04  4.57462E+04 -8.07186E+03  4.89772E+04
 -3.07499E+04  3.29260E+04 -4.05406E+04  9.34333E+03 -4.14663E+04 -1.66751E+04 -2.29136E+04 -3.72288E+04
  7.11878E+03 -3.72131E+04  3.07229E+04 -1.41963E+04  2.82204E+04  1.09727E+04  3.87292E+03  1.91054E+04
 -1.32172E+04  7.91417E+03 -1.05796E+04 -7.49918E+03  6.07444E+03 -1.07812E+04  1.76864E+04  5.93025E+03
  1.29366E+04  2.17729E+04 -6.22609E+03  2.47728E+04 -2.24119E+04  1.12476E+04 -2.74744E+04 -5.22828E+03
 -1.94823E+04 -1.70070E+04 -7.71059E+03 -1.96777E+04  4.07928E+03 -1.83805E+04  1.47283E+04 -1.76504E+04
  2.50421E+04 -1.26009E+04  3.14040E+04  2.15428E+03  2.34506E+04  1.94229E+04  4.27952E+03  3.56180E+04
 -1.70056E+04  2.98110E+04 -2.76387E+04  1.05734E+04 -2.07177E+04 -1.03711E+04 -4.30943E+03 -1.36558E+04
  1.78150E+03 -2.81708E+03 -4.33475E+03  6.39492E+03 -1.53128E+04  5.05835E+03 -1.58695E+04 -6.49486E+03
 -9.64528E+03 -1.81992E+04  4.84623E+03 -2.22394E+04  1.49334E+04 -1.60891E+04  1.75160E+04 -1.65572E+03
  1.10334E+04  1.25847E+04 -1.06620E+03  1.83402E+04 -1.27502E+04  1.03677E+04 -1.81823E+04 -3.83440E+03
 -1.35943E+04 -1.63572E+04 -1.69737E+03 -2.21684E+04  1.03531E+04 -1.83545E+04  1.83056E+04 -8.80715E+03
  1.72051E+04  2.45497E+02  1.21654E+04  4.41891E+03  6.43429E+03  1.10727E+03  9.08252E+03 -1.42370E+03
  1.68087E+04  2.82813E+03  1.82336E+04  1.49571E+04  1.20977E+04  2.91929E+04 -2.90664E+03  3.24473E+04
 -1.89172E+04  2.59427E+04 -3.03739E+04  1.34212E+04 -3.16200E+04 -2.20623E+03 -2.65228E+04 -1.83626E+04
 -1.19718E+04 -2.62747E+04  8.89037E+03 -2.34216E+04  2.04069E+04 -1.21154E+04  1.87049E+04  5.01442E+03
  7.09218E+03  1.40026E+04 -8.62823E+03  1.19866E+04 -1.56950E+04  2.49350E+03 -1.19017E+04 -9.81451E+03
 -2.80215E+02 -1.47042E+04  7.61565E+03 -1.09336E+04  9.83728E+03 -1.55299E+03  2.24814E+03  6.25332E+03
 -6.48771E+03  2.08268E+03 -5.42302E+03 -5.32462E+03 -7.23192E+01 -1.32979E+04  9.48186E+03 -1.33898E+04
  1.60958E+04 -6.79641E+03  1.69182E+04  2.79928E+03  1.48469E+04  1.24281E+04  6.47461E+03  1.89215E+04
 -3.14570E+03  2.07810E+04 -1.35202E+04  1.32570E+04 -1.50382E+04  3.21245E+03 -1.05412E+04 -3.04464E+03
 -4.94812E+03 -4.80707E+03 -4.68621E+02  1.23368E+03 -2.33487E+03  2.55290E+03 -4.76478E+03  4.26589E+03
 -1.02618E+04 -5.31552E+02 -1.08515E+04 -8.77813E+03 -4.08374E+03 -1.43051E+04  4.48792E+03 -1.08909E+04
  9.24532E+03 -4.99713E+03  6.59595E+03  2.75035E+03  1.51087E+02  3.74176E+03 -4.72327E+03 -3.96931E+01
 -4.67269E+03 -6.66268E+03 -7.92788E+02 -1.00069E+04  5.49057E+03 -1.06821E+04  1.34469E+04 -5.48398E+03
  1.54429E+04  9.59473E+02  1.16266E+04  8.73855E+03  2.28157E+03  1.20917E+04 -6.71505E+03  1.04178E+04
 -8.88040E+03  3.32006E+03 -4.54514E+03 -2.10871E+03  1.60300E+03 -2.51660E+03  5.48025E+03 -7.66316E+02
  5.22920E+03  4.55900E+03  1.34138E+03  7.96038E+03 -5.95939E+03  8.41113E+03 -1.04773E+04  2.00388E+03
 -6.72810E+03 -5.17869E+03  3.31654E+02 -8.92617E+03  5.61522E+03 -4.44691E+03  5.21169E+03  1.86696E+03
  1.05357E+03  5.42721E+03 -5.45352E+03  7.09873E+03 -7.68434E+03  3.35740E+03 -7.79286E+03 -2.16431E+03
 -4.70250E+03 -9.03949E+03  1.85689E+03 -1.09308E+04  9.12186E+03 -6.67505E+03  9.74692E+03  1.44622E+03
  6.64504E+03  7.66942E+03 -5.46895E+02  1.00346E+04 -6.93882E+03  5.61532E+03 -7.55896E+03 -4.89247E+02
 -7.16496E+03 -6.94393E+03 -1.42115E+03 -7.48775E+03  3.39157E+03 -6.02205E+03  4.44716E+03 -3.29201E+03
  3.33198E+03  1.12055E+03 -1.64328E+02  1.31164E+03  3.28148E+02 -1.32332E+03  8.67486E+02 -3.41051E+03
  6.00459E+03 -1.78659E+03  8.58852E+03  1.20231E+03  8.71814E+03  5.87633E+03  6.86268E+03  1.14370E+04
 -2.24915E+03  1.34685E+04 -1.17193E+04  1.00940E+04 -1.50855E+04  1.81674E+03 -1.14838E+04 -4.76594E+03
 -6.12294E+03 -9.50962E+03 -5.21873E+02 -8.41575E+03  3.06676E+03 -3.77792E+03  2.78678E+03 -3.10965E+03
  1.89814E+03 -1.93083E+03  2.89158E+03 -2.77217E+03  4.22325E+03 -2.12532E+03  5.09624E+03 -3.17992E+02
  6.33018E+03  1.37046E+03  2.55763E+03  4.92510E+03 -1.95539E+03  5.36088E+03 -6.86408E+03  4.33252E+03
 -8.10929E+03 -1.16343E+03 -3.92870E+03 -5.47952E+03 -1.18585E+02 -8.61194E+03  5.17495E+03 -8.85700E+03
  8.94875E+03 -5.15292E+03  1.07797E+04  8.49746E+02  7.56151E+03  7.17448E+03  1.25286E+03  9.33959E+03
 -3.77564E+03  8.35673E+03 -5.11939E+03  2.77317E+03 -3.48527E+03 -1.28653E+03 -1.27598E+03 -9.81823E+02
 -9.80744E+02  2.92197E+02 -1.35865E+03  2.39992E+03 -3.71801E+03  1.30246E+03 -5.88356E+03 -5.23386E+02
 -3.00523E+03 -5.56706E+03  6.04098E+02 -7.45954E+03  4.57265E+03 -7.05844E+03  6.84642E+03 -2.08283E+03
  7.13556E+03  3.96533E+03  3.28535E+03  6.51853E+03 -1.39130E+03  7.63116E+03 -5.16622E+03  4.62702E+03
 -6.62843E+03  6.24130E+02 -5.83733E+03 -4.48541E+03 -6.33544E+02 -5.84089E+03  3.04786E+03 -4.86509E+03
  4.45508E+03 -1.88371E+03  3.08732E+03  1.02134E+03  9.47157E+02  2.48629E+03  6.19148E+02  6.21079E+02
  1.98335E+03  7.36557E+02  2.11629E+03  1.06520E+03  2.13459E+03  2.96579E+03  1.87814E+03  3.48711E+03
 -1.64788E+03  5.89545E+03 -4.54382E+03  6.27813E+03 -6.48441E+03  1.71607E+03 -7.57092E+03 -2.01742E+03
 -3.61703E+03 -7.15864E+03  7.10807E+02 -8.50633E+03  4.11361E+03 -4.64375E+03  5.66208E+03 -1.33615E+03
  4.84546E+03  2.70587E+03  8.06950E+02  4.14837E+03 -1.86677E+03  2.65587E+03 -2.39717E+03 -1.36283E+02
 -1.66944E+03 -2.78450E+03  2.00271E+03 -2.84601E+03  2.79803E+03 -1.32563E+03  2.85044E+03  3.73813E+02
  1.66589E+03  1.35559E+03  1.11338E+03  3.90779E+02 -5.40477E+02  1.03610E+03  1.50027E+03 -2.93453E+02
  1.03180E+03 -3.31009E+02  2.99656E+03  1.49682E+03  1.42651E+03  4.11733E+03 -6.42680E+02  5.13698E+03
 -3.38000E+03  2.89644E+03 -4.18315E+03  7.02194E+02 -3.86652E+03 -1.52612E+03 -1.29906E+03 -2.25421E+03
  2.61565E+02 -2.43578E+03  1.80605E+03 -1.07668E+03  1.35319E+03  1.96038E+03 -1.21055E+03  2.16814E+03
 -2.90979E+03  1.31446E+03 -3.27699E+03 -1.65462E+03 -1.82973E+03 -3.80731E+03  5.84193E+02 -3.30023E+03
  1.74718E+03 -1.95906E+03  2.32228E+03  9.96930E+01  2.21823E+03  5.46627E+02  3.18377E+02  2.17324E+03
 -1.22206E+03  6.26674E+02 -1.82688E+03 -8.96307E+02  9.12686E+02 -2.47238E+03  3.09932E+03 -2.28504E+03
  3.41221E+03  2.21010E+02  4.83724E+03  2.39240E+03  1.85538E+03  3.94404E+03 -1.21268E+03  3.40227E+03
 -3.44162E+03  1.31902E+03 -3.38096E+03 -5.80875E+02 -1.59439E+03 -2.79714E+03  6.46006E+02 -1.96498E+03
  2.62826E+03 -1.46178E+03  2.02763E+03  1.21785E+03  3.44744E+02  2.67884E+03  3.03887E+01  2.24285E+03
 -1.32786E+03  1.75266E+03 -9.54404E+02  2.62998E+02 -5.07109E+02  5.09086E+02 -1.07973E+03  1.07069E+03
 -1.04665E+03  1.79553E+03 -3.12793E+03  1.22850E+03 -4.17130E+03  6.61095E+01 -4.55080E+03 -2.79038E+03
 -2.23332E+03 -5.28542E+03  1.29259E+03 -6.15747E+03  3.27296E+03 -4.83424E+03  6.34328E+03 -2.07992E+03
  5.22676E+03  4.86002E+02  3.19600E+03  3.66344E+03 -1.34002E+02  4.02812E+03 -1.53655E+03  2.91788E+03
 -2.42433E+03  9.51916E+02 -1.62634E+03 -2.22030E+02 -6.37923E+02 -9.83270E+01 -8.94789E+02 -2.21656E+02
 -1.29563E+03 -4.24259E+01 -1.12260E+03  1.40645E+01  1.77210E+02 -9.46885E+02 -1.06593E+02 -1.59050E+03
  2.35018E+03 -1.33479E+03  1.88825E+03  1.17270E+02  2.58499E+03  2.19402E+03  1.70890E+02  3.65973E+03
 -2.22231E+03  4.68166E+03 -3.89556E+03  2.64706E+03 -4.60966E+03 -5.01223E+02 -3.52232E+03 -2.94163E+03
 -1.56340E+03 -3.66035E+03  8.43029E+02 -3.66828E+03  2.36329E+03 -2.12229E+03  2.30180E+03  1.58962E+02
  1.50276E+03  1.05995E+03 -3.57194E+02  9.74210E+02 -5.82949E+02 -3.46818E+01 -4.09718E+02 -3.35915E+02
  9.54886E+02  1.47670E+02  1.41917E+03  7.06905E+02  6.25283E+02  1.42133E+03  2.83815E+01  1.64358E+03
 -1.63651E+03  1.46132E+03 -2.23595E+03  2.08118E+02 -2.50890E+03 -1.91792E+03 -9.90512E+01 -3.11792E+03
  1.72982E+03 -2.47089E+03  2.37864E+03 -3.96182E+02  2.88361E+03 -2.81195E+01  1.65966E+03  2.13384E+03
  4.33756E+02  2.15331E+03 -6.89586E+02  1.75122E+03 -1.53023E+03  1.01139E+03 -1.09369E+03  2.14097E+02
 -4.90676E+02 -3.50520E+02 -6.49271E+02  3.97413E+02 -1.34794E+03  6.04113E+02 -2.12768E+03 -5.61451E+02
 -2.24293E+03 -5.90703E+02 -7.91651E+02 -2.58306E+03  1.25751E+03 -2.91845E+03  2.21325E+03 -1.29223E+03
  2.34169E+03  5.48628E+02  4.56421E+02  1.29264E+03 -1.49630E+02  2.20665E+03 -1.62055E+03  1.71792E+03
