 $NMID ID='MM_0lb_SNR800_7hz_g40_79.RAW', FMTDAT='(8E13.5)'
 TRAMP=1., VOLUME=1. $END
  3.09749E+05  1.16263E+02  3.37913E+05  2.50592E+05  8.47421E+04  3.38523E+05 -1.33022E+05  2.51758E+05
 -1.90959E+05  8.42348E+04 -1.12719E+05 -3.22089E+04  3.08697E+02 -5.12881E+04  5.35975E+04 -3.98423E+02
  3.51428E+04  5.25803E+04 -1.64381E+04  7.62167E+04 -6.07107E+04  6.47753E+04 -8.50681E+04  3.24271E+04
 -8.24387E+04 -1.19077E+04 -5.82508E+04 -5.27863E+04 -1.51575E+04 -7.12031E+04  2.79770E+04 -4.69473E+04
  4.08999E+04  3.38216E+03  1.64403E+04  4.89315E+04 -3.50434E+04  4.82008E+04 -6.80861E+04  2.10436E+02
 -5.54121E+04 -5.77855E+04 -7.28471E+03 -7.91998E+04  3.48957E+04 -5.76910E+04  5.01416E+04 -1.81305E+04
  4.58294E+04  1.17876E+04  3.31221E+04  2.68161E+04  1.59757E+04  3.07102E+04 -6.27385E+03  2.76904E+04
 -2.28580E+04  1.15925E+04 -1.81629E+04 -5.83320E+03  7.67865E+03 -7.70478E+03  2.33512E+04  1.39761E+04
  6.92360E+03  3.80912E+04 -3.40673E+04  3.70914E+04 -6.63084E+04  2.35269E+03 -5.94402E+04 -4.49582E+04
 -1.27292E+04 -6.63647E+04  4.17820E+04 -4.80137E+04  6.20342E+04 -2.66366E+03  3.75720E+04  3.51786E+04
 -5.42402E+03  4.03886E+04 -3.26014E+04  1.91255E+04 -3.41547E+04 -3.37462E+03 -1.97931E+04 -1.20534E+04
 -9.74175E+03 -1.55527E+04 -2.55610E+02 -2.01962E+04  8.78085E+03 -2.34770E+04  1.59783E+04 -1.22228E+04
  9.97026E+03  6.73593E+03 -1.11013E+04  1.27863E+04 -2.35655E+04 -7.22642E+03 -9.30147E+03 -3.81165E+04
  2.56516E+04 -4.77492E+04  5.31606E+04 -2.12628E+04  4.96584E+04  2.15520E+04  1.75531E+04  4.80745E+04
 -1.63034E+04  3.67153E+04 -2.82703E+04  3.00915E+03 -1.24147E+04 -3.00879E+04  2.19985E+04 -3.75179E+04
  4.53545E+04 -1.14271E+04  4.14931E+04  2.50458E+04  2.18965E+04  5.22643E+04 -8.40640E+03  5.72137E+04
 -3.62149E+04  3.91226E+04 -4.87698E+04  1.13095E+04 -4.92318E+04 -1.89242E+04 -2.65944E+04 -4.29149E+04
  8.18930E+03 -4.30173E+04  3.45785E+04 -1.75057E+04  3.24956E+04  1.08807E+04  5.65145E+03  2.14148E+04
 -1.37460E+04  1.00343E+04 -1.12586E+04 -7.45652E+03  5.37972E+03 -1.17381E+04  1.92343E+04  5.70654E+03
  1.52425E+04  2.28507E+04 -4.78246E+03  2.72672E+04 -2.36901E+04  1.52489E+04 -3.25286E+04 -2.70763E+03
 -2.64136E+04 -1.96333E+04 -1.28273E+04 -2.61101E+04  4.21917E+03 -2.71774E+04  2.04273E+04 -2.42613E+04
  3.38962E+04 -1.48288E+04  3.90758E+04  5.92814E+03  2.74581E+04  2.51843E+04  4.46761E+03  4.23386E+04
 -2.04009E+04  3.51593E+04 -3.13962E+04  1.23284E+04 -2.28003E+04 -1.01245E+04 -5.34848E+03 -1.24203E+04
  1.04787E+03 -1.31919E+02 -8.28204E+03  9.09149E+03 -2.13352E+04  5.20130E+03 -2.10021E+04 -1.03016E+04
 -1.21669E+04 -2.44211E+04  6.42397E+03 -2.93754E+04  1.99854E+04 -2.07102E+04  2.38161E+04 -1.68895E+03
  1.52036E+04  1.67728E+04 -1.41746E+03  2.47116E+04 -1.80482E+04  1.42367E+04 -2.49575E+04 -5.03524E+03
 -1.79615E+04 -2.17348E+04 -2.41063E+03 -2.99592E+04  1.34250E+04 -2.42658E+04  2.46516E+04 -1.26377E+04
  2.29768E+04 -3.53552E+02  1.67834E+04  5.66370E+03  9.22897E+03  2.00311E+03  1.28517E+04 -2.17400E+03
  2.29297E+04  2.82726E+03  2.69626E+04  1.95637E+04  1.84568E+04  3.92921E+04 -2.62553E+03  4.71866E+04
 -2.71192E+04  3.91759E+04 -4.46325E+04  2.10294E+04 -4.82174E+04 -3.45232E+03 -3.84782E+04 -2.84055E+04
 -1.51842E+04 -3.99468E+04  1.42405E+04 -3.45175E+04  2.98861E+04 -1.64744E+04  2.55102E+04  8.01200E+03
  8.10392E+03  1.99065E+04 -1.24755E+04  1.62845E+04 -2.12064E+04  2.76552E+03 -1.53519E+04 -1.32673E+04
 -9.94477E+01 -2.02001E+04  1.10478E+04 -1.53220E+04  1.42011E+04 -1.39903E+03  3.57216E+03  9.48884E+03
 -9.18371E+03  4.49386E+03 -1.00914E+04 -7.33980E+03 -2.22757E+03 -1.95749E+04  1.28626E+04 -2.17941E+04
  2.45099E+04 -1.26919E+04  2.89332E+04  3.35283E+03  2.52653E+04  2.00681E+04  1.16551E+04  3.19732E+04
 -5.97658E+03  3.39613E+04 -2.26802E+04  2.06688E+04 -2.45577E+04  4.40058E+03 -1.68089E+04 -6.68519E+03
 -6.85999E+03 -8.20141E+03 -6.93126E+02  6.08331E+01 -3.33997E+03  4.10110E+03 -8.18197E+03  5.59274E+03
 -1.47807E+04 -8.88390E+02 -1.58270E+04 -1.29131E+04 -6.20037E+03 -2.07394E+04  6.79540E+03 -1.74639E+04
  1.42908E+04 -7.53016E+03  1.04062E+04  4.94432E+03 -7.33433E+02  6.83768E+03 -8.77387E+03 -4.99776E+02
 -8.47398E+03 -1.12640E+04 -1.54388E+03 -1.69881E+04  1.03449E+04 -1.81632E+04  2.19493E+04 -9.98489E+03
  2.57749E+04  3.15454E+03  1.88314E+04  1.57224E+04  3.54509E+03  2.04906E+04 -1.01922E+04  1.73621E+04
 -1.39395E+04  4.76967E+03 -7.03950E+03 -3.95353E+03  2.15562E+03 -5.24433E+03  8.78980E+03 -1.34229E+03
  8.27230E+03  7.87180E+03  9.21354E+02  1.36020E+04 -1.00129E+04  1.33998E+04 -1.71340E+04  2.84294E+03
 -1.19822E+04 -9.30262E+03  2.66686E+02 -1.45330E+04  9.88586E+03 -7.68505E+03  1.04627E+04  3.94065E+03
  3.15876E+03  1.15098E+04 -9.29796E+03  1.29142E+04 -1.55445E+04  5.82913E+03 -1.61349E+04 -5.80892E+03
 -9.56134E+03 -1.78684E+04  5.09031E+03 -2.03556E+04  1.75449E+04 -1.23312E+04  1.94091E+04  3.09059E+03
  1.11806E+04  1.50001E+04 -2.09849E+03  1.77794E+04 -1.28521E+04  1.00268E+04 -1.40583E+04 -1.58892E+03
 -1.18178E+04 -1.17736E+04 -2.05446E+03 -1.32679E+04  7.25929E+03 -1.06737E+04  8.86544E+03 -3.81314E+03
  5.08533E+03  2.94340E+03 -1.59914E+03  2.12999E+03 -1.32903E+03 -4.38263E+03  3.52530E+03 -8.52244E+03
  1.32415E+04 -5.73952E+03  1.90185E+04  1.69518E+03  1.78215E+04  1.28754E+04  1.11972E+04  2.39714E+04
 -5.87506E+03  2.75302E+04 -2.21931E+04  2.01976E+04 -2.95289E+04  4.22350E+03 -2.42298E+04 -1.07018E+04
 -1.13729E+04 -1.98377E+04 -5.81538E+02 -1.68551E+04  5.83825E+03 -1.00397E+04  6.14109E+03 -6.19576E+03
  4.34376E+03 -3.44092E+03  4.81043E+03 -4.28114E+03  6.37794E+03 -4.42411E+03  8.66629E+03 -2.22726E+03
  1.24312E+04  2.64235E+03  7.09030E+03  1.11268E+04 -2.24995E+03  1.33810E+04 -1.37833E+04  1.00089E+04
 -1.69766E+04 -1.45826E+03 -1.13063E+04 -1.18816E+04 -1.47726E+03 -1.86699E+04  1.00053E+04 -1.80312E+04
  1.95148E+04 -1.02913E+04  2.29508E+04  3.36949E+03  1.57673E+04  1.60265E+04  2.61994E+03  2.07073E+04
 -8.87459E+03  1.65640E+04 -1.24559E+04  6.09339E+03 -8.53698E+03 -1.95408E+03 -3.67084E+03 -2.58545E+03
 -1.96916E+03 -7.96603E+01 -2.87978E+03  3.20278E+03 -7.44616E+03  2.81357E+03 -1.19435E+04 -1.67231E+03
 -8.88625E+03 -1.10196E+04 -4.88561E+02 -1.76605E+04  1.07501E+04 -1.58574E+04  1.82352E+04 -5.39409E+03
  1.71736E+04  8.56572E+03  8.33427E+03  1.59555E+04 -3.18116E+03  1.72548E+04 -1.29674E+04  1.09578E+04
 -1.68153E+04  6.75248E+02 -1.28950E+04 -1.06605E+04 -1.77082E+03 -1.51346E+04  7.85626E+03 -1.05563E+04
  1.10272E+04 -3.31073E+03  7.67900E+03  3.33245E+03  3.15454E+03  5.01280E+03  1.38191E+03  2.57753E+03
  3.03801E+03  1.66937E+03  4.17638E+03  2.47365E+03  5.16762E+03  6.05551E+03  4.49681E+03  9.59862E+03
 -3.58217E+03  1.46761E+04 -1.29463E+04  1.40633E+04 -1.89452E+04  3.86166E+03 -1.91426E+04 -8.16454E+03
 -9.27487E+03 -1.83454E+04  3.07995E+03 -1.99830E+04  1.10623E+04 -1.29421E+04  1.49744E+04 -3.78432E+03
  1.15821E+04  6.73770E+03  3.29181E+03  1.07458E+04 -5.19650E+03  6.89336E+03 -7.83721E+03 -1.10078E+03
 -3.73824E+03 -7.87882E+03  3.98077E+03 -8.38166E+03  7.78745E+03 -3.71644E+03  8.18333E+03  1.88775E+03
  4.01955E+03  4.18319E+03  1.57010E+03  3.54793E+03 -9.76054E+02  2.63896E+03  1.98995E+03 -7.54906E+02
  3.48675E+03 -1.17885E+03  7.49648E+03  3.22538E+03  4.57473E+03  9.78520E+03 -1.73315E+03  1.27418E+04
 -9.28411E+03  8.90909E+03 -1.20850E+04  2.29827E+03 -1.06837E+04 -4.04166E+03 -4.66195E+03 -7.44933E+03
  8.72604E+02 -7.34647E+03  4.85470E+03 -3.58981E+03  4.02705E+03  3.27944E+03 -1.47403E+03  5.97975E+03
 -7.54258E+03  3.31257E+03 -9.01504E+03 -4.25369E+03 -4.84868E+03 -1.06442E+04  2.16140E+03 -1.08550E+04
  6.76389E+03 -6.63843E+03  8.42250E+03 -6.35729E+02  5.65286E+03  2.69611E+03  9.33740E+02  5.34768E+03
 -3.78130E+03  1.80993E+03 -4.68535E+03 -3.73381E+03  1.40639E+03 -8.40287E+03  9.39928E+03 -7.26185E+03
  1.26357E+04  6.52351E+02  1.15533E+04  8.67160E+03  3.83441E+03  1.31226E+04 -4.61468E+03  1.21665E+04
 -1.04962E+04  5.58754E+03 -1.08495E+04 -1.96648E+03 -5.85125E+03 -8.09432E+03  1.75908E+03 -8.34380E+03
  7.96882E+03 -4.09762E+03  6.78965E+03  3.51916E+03  1.99447E+03  6.98554E+03 -9.01460E+02  6.11706E+03
 -3.52121E+03  3.81368E+03 -2.80733E+03  1.18165E+03 -2.05276E+03  1.24086E+03 -1.83472E+03  2.64710E+03
 -3.45051E+03  4.97327E+03 -8.22009E+03  4.70610E+03 -1.29256E+04  4.51315E+02 -1.41858E+04 -8.75910E+03
 -7.40516E+03 -1.72366E+04  3.64663E+03 -1.99902E+04  1.24277E+04 -1.57450E+04  1.90339E+04 -5.84160E+03
  1.75083E+04  3.52468E+03  1.07110E+04  1.20709E+04  1.40885E+03  1.41250E+04 -5.30564E+03  9.92059E+03
 -8.02277E+03  3.62016E+03 -5.00772E+03 -1.65582E+03 -8.29312E+02 -1.16555E+03 -5.04331E+02 -6.29626E+02
 -1.74103E+03  3.55824E+02 -2.85905E+03 -8.08756E+02 -9.69567E+02 -3.00358E+03  5.50094E+02 -4.93221E+03
  5.67751E+03 -4.50351E+03  8.69443E+03  2.70435E+02  9.62398E+03  7.19886E+03  2.99875E+03  1.39500E+04
 -6.83436E+03  1.57118E+04 -1.48936E+04  9.45398E+03 -1.67903E+04 -1.25945E+03 -1.29064E+04 -1.03088E+04
 -6.11439E+03 -1.46654E+04  3.52336E+03 -1.31863E+04  9.05124E+03 -7.32881E+03  9.62935E+03  1.70087E+02
  5.25442E+03  4.91165E+03 -6.00071E+02  4.13070E+03 -2.82475E+03 -3.88042E+02  6.28833E+02 -3.40358E+03
  4.13213E+03 -2.07126E+03  5.64672E+03  1.73191E+03  4.15977E+03  5.96096E+03  1.82076E+02  7.63404E+03
 -5.72099E+03  6.59327E+03 -9.73167E+03  9.59295E+02 -8.69007E+03 -7.06144E+03 -1.25729E+03 -1.18770E+04
  6.33715E+03 -1.01198E+04  1.06320E+04 -3.38738E+03  1.15384E+04  3.48222E+03  6.44458E+03  8.91115E+03
  1.06525E+03  1.02337E+04 -3.77589E+03  7.76494E+03 -6.32261E+03  4.17533E+03 -4.64171E+03  8.93475E+02
 -2.88220E+03 -6.89827E+02 -2.63547E+03  1.36712E+03 -4.80393E+03  1.67939E+03 -7.42527E+03 -1.59756E+03
 -7.34173E+03 -5.94207E+03 -2.28739E+03 -9.64854E+03  4.58367E+03 -1.01599E+04  9.03392E+03 -4.98601E+03
  1.00429E+04  1.36126E+03  5.56641E+03  7.53613E+03 -1.09259E+03  9.90602E+03 -7.44598E+03  6.17050E+03
