 $NMID ID='MM_0lb_SNR800_16hz_g40_79.RAW', FMTDAT='(8E13.5)'
 TRAMP=1., VOLUME=1. $END
  3.10063E+05  3.54791E+02  3.37493E+05  2.50311E+05  8.44462E+04  3.37566E+05 -1.32591E+05  2.50165E+05
 -1.89953E+05  8.26421E+04 -1.11174E+05 -3.24905E+04  1.27953E+03 -5.03614E+04  5.41842E+04 -6.85778E+01
  3.50919E+04  5.30231E+04 -1.69783E+04  7.52588E+04 -6.04774E+04  6.31608E+04 -8.33538E+04  3.18415E+04
 -7.99877E+04 -1.10225E+04 -5.65900E+04 -5.05045E+04 -1.50807E+04 -6.87446E+04  2.68910E+04 -4.53793E+04
  3.93127E+04  3.85014E+03  1.56129E+04  4.74502E+04 -3.40098E+04  4.64335E+04 -6.57909E+04 -3.54056E+02
 -5.22813E+04 -5.61052E+04 -6.25614E+03 -7.59191E+04  3.33491E+04 -5.37177E+04  4.65881E+04 -1.64163E+04
  4.21612E+04  1.12108E+04  3.12407E+04  2.48657E+04  1.57828E+04  2.85662E+04 -4.85080E+03  2.70761E+04
 -2.20045E+04  1.26043E+04 -1.92399E+04 -4.50237E+03  4.77058E+03 -7.45198E+03  2.16669E+04  1.12520E+04
  7.36518E+03  3.35194E+04 -3.09343E+04  3.44173E+04 -6.19210E+04  2.41280E+03 -5.59424E+04 -4.14941E+04
 -1.22409E+04 -6.16935E+04  3.85106E+04 -4.40378E+04  5.64087E+04 -1.92545E+03  3.24022E+04  3.09575E+04
 -6.70804E+03  3.38432E+04 -2.88662E+04  1.41131E+04 -2.85033E+04 -5.16432E+03 -1.50237E+04 -1.03837E+04
 -7.63289E+03 -1.17997E+04 -9.28776E+02 -1.71685E+04  6.84403E+03 -2.26089E+04  1.49241E+04 -1.34421E+04
  1.16879E+04  4.40079E+03 -7.02275E+03  1.28520E+04 -1.97581E+04 -3.00647E+03 -8.22838E+03 -3.14189E+04
  2.15144E+04 -4.12785E+04  4.55448E+04 -1.86432E+04  4.29142E+04  1.82921E+04  1.43466E+04  4.25887E+04
 -1.54071E+04  3.17483E+04 -2.39855E+04  1.29713E+03 -8.54663E+03 -2.69478E+04  2.07831E+04 -3.22069E+04
  3.89100E+04 -7.93026E+03  3.27355E+04  2.29972E+04  1.61280E+04  4.37778E+04 -7.83821E+03  4.67493E+04
 -2.93272E+04  3.09544E+04 -3.88270E+04  8.77927E+03 -3.95037E+04 -1.54731E+04 -2.19184E+04 -3.57772E+04
  7.11634E+03 -3.50674E+04  3.01179E+04 -1.33395E+04  2.75535E+04  1.09060E+04  2.98580E+03  1.81279E+04
 -1.30831E+04  7.60127E+03 -9.66844E+03 -7.56760E+03  5.72039E+03 -1.03016E+04  1.76506E+04  6.25273E+03
  1.27959E+04  2.16651E+04 -6.35353E+03  2.40770E+04 -2.16716E+04  1.01301E+04 -2.59989E+04 -5.54675E+03
 -1.82804E+04 -1.66359E+04 -6.75195E+03 -1.78165E+04  3.75733E+03 -1.62879E+04  1.37082E+04 -1.59013E+04
  2.27421E+04 -1.20354E+04  2.97210E+04  1.55869E+03  2.21529E+04  1.73581E+04  3.99249E+03  3.38610E+04
 -1.66478E+04  2.87205E+04 -2.67013E+04  9.76017E+03 -2.00973E+04 -1.03560E+04 -4.34118E+03 -1.37685E+04
  2.14680E+03 -3.62780E+03 -3.51687E+03  5.83934E+03 -1.38601E+04  5.29268E+03 -1.44461E+04 -5.79229E+03
 -9.16581E+03 -1.67201E+04  4.77058E+03 -2.08413E+04  1.35880E+04 -1.46855E+04  1.60230E+04 -1.34432E+03
  9.89001E+03  1.15311E+04 -7.26894E+02  1.71044E+04 -1.13363E+04  9.63760E+03 -1.65652E+04 -3.33475E+03
 -1.24303E+04 -1.52744E+04 -1.82167E+03 -2.01876E+04  9.43466E+03 -1.64186E+04  1.69530E+04 -7.84787E+03
  1.58070E+04  3.89814E+02  1.14237E+04  3.65862E+03  5.63825E+03  2.60759E+02  8.45254E+03 -1.37110E+03
  1.50566E+04  2.77625E+03  1.65061E+04  1.34518E+04  1.08139E+04  2.65652E+04 -2.83035E+03  2.93281E+04
 -1.71542E+04  2.26838E+04 -2.69964E+04  1.10446E+04 -2.80455E+04 -1.72285E+03 -2.35744E+04 -1.59321E+04
 -1.05041E+04 -2.28487E+04  7.78317E+03 -2.07192E+04  1.84302E+04 -1.16553E+04  1.69937E+04  4.31971E+03
  6.87480E+03  1.22150E+04 -7.82157E+03  1.10527E+04 -1.43441E+04  2.49700E+03 -1.09559E+04 -8.67838E+03
 -1.41680E+01 -1.35173E+04  6.69913E+03 -1.03498E+04  8.51064E+03 -1.31148E+03  1.57867E+03  5.51673E+03
 -6.03078E+03  1.82516E+03 -4.29206E+03 -5.13257E+03  4.48442E+02 -1.12501E+04  8.31516E+03 -1.15628E+04
  1.36464E+04 -5.58866E+03  1.40294E+04  2.78058E+03  1.22064E+04  1.07846E+04  5.66939E+03  1.63335E+04
 -2.11490E+03  1.80338E+04 -1.11443E+04  1.15395E+04 -1.30629E+04  3.08199E+03 -9.47857E+03 -2.68300E+03
 -4.76963E+03 -3.82393E+03 -6.80885E+02  1.11769E+03 -2.23940E+03  2.11266E+03 -4.07285E+03  4.05394E+03
 -8.89677E+03 -8.25193E+02 -9.62886E+03 -7.86836E+03 -4.03230E+03 -1.28664E+04  3.87242E+03 -9.44160E+03
  8.06727E+03 -4.51485E+03  5.81888E+03  2.58584E+03  7.16330E+02  3.63874E+03 -3.72104E+03 -3.01513E+02
 -4.23939E+03 -6.01744E+03 -6.68990E+02 -8.64917E+03  4.83347E+03 -9.05193E+03  1.16172E+04 -4.75312E+03
  1.36725E+04  8.28991E+02  1.01890E+04  7.39721E+03  2.18456E+03  1.02848E+04 -6.07920E+03  9.33053E+03
 -7.79830E+03  3.02467E+03 -3.82157E+03 -1.67851E+03  1.44233E+03 -2.81508E+03  5.20155E+03 -1.05884E+03
  4.64259E+03  4.06852E+03  1.00193E+03  7.40302E+03 -5.28132E+03  7.32810E+03 -9.09221E+03  1.63506E+03
 -5.93073E+03 -4.14953E+03  2.77437E+01 -8.07723E+03  4.70549E+03 -3.82785E+03  4.23451E+03  1.37646E+03
  4.67983E+02  4.48623E+03 -4.72675E+03  5.75508E+03 -6.47047E+03  2.89774E+03 -5.88377E+03 -1.78469E+03
 -3.56471E+03 -7.39531E+03  1.62701E+03 -9.03661E+03  7.49095E+03 -5.51162E+03  8.13364E+03  1.15817E+03
  5.72198E+03  6.52455E+03 -9.73034E+01  8.53392E+03 -6.19804E+03  5.01353E+03 -6.21539E+03 -4.23450E+02
 -6.39606E+03 -6.00267E+03 -1.78521E+03 -5.96793E+03  3.13148E+03 -5.20707E+03  3.59513E+03 -3.02029E+03
  3.11809E+03  5.93994E+02 -2.23643E+02  1.47917E+03  4.25992E+02 -6.58164E+02  4.15013E+02 -2.34347E+03
  4.87585E+03 -8.00402E+02  6.89216E+03  6.96557E+02  7.11651E+03  4.36024E+03  6.28218E+03  9.27402E+03
 -2.09740E+03  1.08001E+04 -9.40091E+03  8.12110E+03 -1.21230E+04  1.37759E+03 -9.43181E+03 -3.68208E+03
 -5.03475E+03 -8.16006E+03 -4.87091E+02 -6.56593E+03  2.51202E+03 -3.17028E+03  2.20674E+03 -2.76994E+03
  1.76738E+03 -1.78582E+03  2.33069E+03 -2.81415E+03  3.87628E+03 -1.57324E+03  4.13828E+03 -1.24574E+01
  5.45972E+03  1.33554E+03  1.79606E+03  4.05569E+03 -1.66589E+03  3.79251E+03 -5.29311E+03  3.56447E+03
 -6.39653E+03 -1.32649E+03 -2.56561E+03 -4.42974E+03  2.83977E+02 -6.46847E+03  4.05503E+03 -7.00573E+03
  6.84970E+03 -3.89679E+03  9.04845E+03  5.20633E+02  6.23428E+03  5.71412E+03  1.15244E+03  7.57208E+03
 -2.84913E+03  7.11645E+03 -4.66753E+03  2.07878E+03 -2.78888E+03 -1.03794E+03 -7.67775E+02 -7.85044E+02
 -5.01063E+02  5.59408E+02 -1.18653E+03  2.45086E+03 -2.86305E+03  1.28343E+03 -4.77392E+03 -6.25049E+02
 -2.33619E+03 -5.04536E+03  8.85267E+02 -6.11203E+03  3.70202E+03 -5.62169E+03  5.18730E+03 -1.78560E+03
  5.86696E+03  2.96782E+03  2.63233E+03  4.43014E+03 -9.62136E+02  6.06259E+03 -3.69145E+03  3.77930E+03
 -5.13356E+03  4.36807E+02 -4.77712E+03 -3.26279E+03 -7.73328E+01 -4.49112E+03  2.46970E+03 -3.61081E+03
  3.35744E+03 -1.60422E+03  2.37609E+03  5.38780E+02  5.03643E+02  2.12573E+03  9.00240E+02  8.66064E+02
  1.72730E+03  8.08832E+02  1.39600E+03  9.89936E+02  1.39036E+03  2.48589E+03  1.61256E+03  2.45627E+03
 -1.65558E+03  4.19573E+03 -3.44618E+03  4.98615E+03 -4.88703E+03  1.39003E+03 -5.98808E+03 -1.04799E+03
 -2.29509E+03 -5.60784E+03  9.84189E+02 -6.19656E+03  2.91875E+03 -3.76035E+03  4.10418E+03 -1.44572E+03
  3.37530E+03  2.21303E+03  6.56066E+02  3.10223E+03 -1.11225E+03  1.59342E+03 -1.57342E+03 -2.60333E+02
 -9.41146E+02 -2.28719E+03  1.64126E+03 -1.94428E+03  1.99776E+03 -9.68439E+02  1.72030E+03  3.21286E+02
  1.08815E+03  8.23872E+02  6.90810E+02 -1.78648E+02  8.12499E+01  9.60536E+02  1.84971E+03  1.39250E+02
  4.66484E+02 -3.29833E+02  2.33113E+03  7.47275E+02  4.93695E+02  2.99011E+03 -5.85119E+02  3.97127E+03
 -2.44408E+03  2.05876E+03 -3.02330E+03  6.66885E+02 -3.06102E+03 -9.02512E+02 -5.96890E+02 -1.68024E+03
  7.50072E+02 -2.01706E+03  1.35273E+03 -7.83838E+02  1.00795E+03  1.63375E+03 -1.01532E+03  1.51903E+03
 -2.28231E+03  1.24064E+03 -1.78987E+03 -1.67801E+03 -1.11358E+03 -2.86147E+03  1.66012E+02 -2.44951E+03
  1.16937E+03 -1.16522E+03  1.60159E+03  2.29053E+01  1.78859E+03 -3.98765E+01  3.00016E+02  1.45457E+03
 -8.09598E+02  4.36309E+02 -1.24285E+03 -5.85018E+02  5.35023E+02 -1.64808E+03  2.31899E+03 -1.22607E+03
  2.09980E+03  1.89773E+02  3.47575E+03  1.41737E+03  1.37895E+03  2.66795E+03 -6.23106E+02  2.92541E+03
 -2.15175E+03  4.32916E+02 -2.44779E+03 -2.80051E+02 -1.56729E+03 -2.14700E+03  5.05982E+02 -1.53782E+03
  2.02892E+03 -7.22289E+02  1.17493E+03  8.44684E+02  4.52561E+02  1.68570E+03  5.10975E+02  1.50052E+03
 -6.89071E+02  1.54444E+03 -4.50936E+02  5.53752E+02 -1.83135E+02  6.90296E+02 -9.57251E+02  8.25873E+02
 -7.99663E+02  1.43581E+03 -2.55629E+03  6.26788E+02 -2.64752E+03  2.11029E+02 -3.50051E+03 -1.95178E+03
 -1.80039E+03 -3.74904E+03  1.10568E+03 -4.38568E+03  2.08327E+03 -3.38754E+03  4.05482E+03 -1.54589E+03
  3.79477E+03 -6.10193E+01  1.92050E+03  2.61410E+03 -1.70784E+02  2.57766E+03 -1.43031E+03  2.21878E+03
 -1.35842E+03  8.67923E+02 -8.45567E+02  1.66037E+01 -7.02894E+02  1.23138E+02 -8.04111E+02 -1.74270E+02
 -1.13344E+03 -1.56906E+02 -9.61873E+02  2.65286E+01  2.60856E+02 -8.55380E+02 -3.49599E+02 -1.31045E+03
  1.91255E+03 -9.44373E+02  1.07219E+03  1.96813E+02  2.21915E+03  1.35249E+03  1.56631E+02  2.50828E+03
 -1.45090E+03  3.14006E+03 -2.97274E+03  1.59743E+03 -3.17065E+03 -2.10463E+02 -2.25346E+03 -1.93417E+03
 -1.47105E+03 -2.42242E+03  5.98799E+02 -2.41808E+03  1.44973E+03 -9.38609E+02  1.58631E+03  1.22192E+02
  9.66044E+02  8.05657E+02  3.31213E+00  6.52343E+02 -6.55819E+02 -2.04358E+02 -1.39215E+02 -4.82369E+02
  7.33623E+02  1.20699E+01  9.26663E+02  7.21923E+02  2.03208E+02  8.02722E+02  1.59180E+02  6.67958E+02
 -1.24540E+03  1.07799E+03 -1.31191E+03  3.44560E+02 -1.48472E+03 -1.16433E+03 -9.90633E+01 -2.06479E+03
  9.12323E+02 -1.77457E+03  1.26681E+03 -2.58770E+02  1.57869E+03 -5.32350E+02  9.32698E+02  1.44361E+03
  4.46241E+02  1.40516E+03 -3.31156E+02  1.06295E+03 -8.79846E+02  6.55679E+02 -6.17228E+02  2.80504E+02
 -3.45138E+02 -6.51975E+01 -4.76320E+02  3.18273E+02 -1.06351E+03  1.38475E+02 -1.34055E+03 -2.50305E+02
 -1.52380E+03 -5.51051E+02 -6.13516E+02 -1.59413E+03  9.16506E+02 -2.41212E+03  1.32612E+03 -5.56846E+02
  1.42550E+03  1.79626E+02  2.43237E+02  7.81880E+02 -8.54385E+01  1.40626E+03 -1.07119E+03  1.01904E+03
