 $NMID ID='MM_0lb_SNR800_9hz_g50_57.RAW', FMTDAT='(8E13.5)'
 TRAMP=1., VOLUME=1. $END
  3.09919E+05  2.62423E+02  3.37959E+05  2.50638E+05  8.49849E+04  3.38305E+05 -1.32952E+05  2.51613E+05
 -1.90769E+05  8.35543E+04 -1.12571E+05 -3.20830E+04  3.53100E+01 -5.05778E+04  5.40487E+04 -1.57295E+02
  3.57961E+04  5.30006E+04 -1.63976E+04  7.58114E+04 -6.09883E+04  6.41294E+04 -8.52737E+04  3.28651E+04
 -8.28268E+04 -1.21065E+04 -5.80736E+04 -5.25680E+04 -1.50543E+04 -7.10836E+04  2.76142E+04 -4.67666E+04
  4.09869E+04  3.94749E+03  1.71457E+04  4.86624E+04 -3.46449E+04  4.85061E+04 -6.75706E+04 -3.28320E+02
 -5.51010E+04 -5.77333E+04 -7.29035E+03 -7.90427E+04  3.46899E+04 -5.69779E+04  4.95748E+04 -1.82728E+04
  4.54361E+04  1.14284E+04  3.28711E+04  2.65613E+04  1.57904E+04  3.08598E+04 -5.59446E+03  2.78937E+04
 -2.26589E+04  1.19066E+04 -1.81400E+04 -5.67931E+03  6.76284E+03 -7.41789E+03  2.35825E+04  1.39213E+04
  7.41739E+03  3.73685E+04 -3.42780E+04  3.72813E+04 -6.59046E+04  1.87530E+03 -5.89043E+04 -4.48881E+04
 -1.28528E+04 -6.62246E+04  4.12964E+04 -4.75485E+04  6.07093E+04 -2.35032E+03  3.66043E+04  3.45384E+04
 -5.05018E+03  3.93929E+04 -3.16137E+04  1.88664E+04 -3.34388E+04 -3.41391E+03 -1.90131E+04 -1.21120E+04
 -9.39301E+03 -1.49729E+04 -4.80683E+02 -1.98056E+04  8.30657E+03 -2.32651E+04  1.60833E+04 -1.24754E+04
  1.01563E+04  6.43226E+03 -1.04859E+04  1.30719E+04 -2.36485E+04 -6.43236E+03 -8.59613E+03 -3.74675E+04
  2.51003E+04 -4.71486E+04  5.16554E+04 -2.09045E+04  4.88905E+04  2.07282E+04  1.68771E+04  4.68671E+04
 -1.69168E+04  3.62946E+04 -2.73043E+04  2.60876E+03 -1.17209E+04 -2.96636E+04  2.16666E+04 -3.67080E+04
  4.47416E+04 -1.11230E+04  4.04664E+04  2.49624E+04  2.15826E+04  5.11988E+04 -8.31225E+03  5.59714E+04
 -3.51106E+04  3.84850E+04 -4.78547E+04  1.09811E+04 -4.76441E+04 -1.88467E+04 -2.63336E+04 -4.22293E+04
  8.11318E+03 -4.21055E+04  3.42616E+04 -1.70841E+04  3.24428E+04  1.14947E+04  5.51254E+03  2.09332E+04
 -1.38365E+04  9.84978E+03 -1.12074E+04 -7.77384E+03  5.68870E+03 -1.09921E+04  1.88346E+04  5.42822E+03
  1.45702E+04  2.29925E+04 -5.18148E+03  2.70858E+04 -2.35193E+04  1.44808E+04 -3.14643E+04 -2.64575E+03
 -2.55473E+04 -1.81549E+04 -1.15809E+04 -2.49597E+04  3.94345E+03 -2.55067E+04  1.98256E+04 -2.29907E+04
  3.22491E+04 -1.39837E+04  3.77650E+04  5.35666E+03  2.71322E+04  2.42102E+04  4.68372E+03  4.10893E+04
 -2.01453E+04  3.39180E+04 -3.02325E+04  1.20004E+04 -2.26936E+04 -1.04051E+04 -5.38687E+03 -1.25293E+04
  5.84420E+02 -1.02422E+03 -7.91961E+03  8.38790E+03 -2.07201E+04  5.21847E+03 -1.98756E+04 -9.36275E+03
 -1.15344E+04 -2.31401E+04  6.01526E+03 -2.75935E+04  1.87480E+04 -1.99016E+04  2.25242E+04 -2.00387E+03
  1.43250E+04  1.59929E+04 -1.63606E+03  2.30666E+04 -1.64663E+04  1.37937E+04 -2.35675E+04 -4.91392E+03
 -1.73402E+04 -2.17113E+04 -2.03811E+03 -2.83315E+04  1.27552E+04 -2.32336E+04  2.31520E+04 -1.22087E+04
  2.21644E+04 -1.25992E+02  1.60219E+04  5.74332E+03  9.32900E+03  1.33530E+03  1.20107E+04 -2.05133E+03
  2.22964E+04  2.56159E+03  2.52403E+04  1.79443E+04  1.68569E+04  3.73701E+04 -2.47534E+03  4.42516E+04
 -2.52127E+04  3.72872E+04 -4.18642E+04  1.92480E+04 -4.46935E+04 -3.08445E+03 -3.63370E+04 -2.60382E+04
 -1.41470E+04 -3.71525E+04  1.32898E+04 -3.24404E+04  2.77077E+04 -1.55609E+04  2.45052E+04  7.96821E+03
  8.04473E+03  1.89183E+04 -1.18305E+04  1.57557E+04 -2.04420E+04  2.43796E+03 -1.55035E+04 -1.30633E+04
 -9.13408E+00 -1.93201E+04  1.08927E+04 -1.42175E+04  1.34091E+04 -1.52339E+03  2.95365E+03  8.77422E+03
 -8.57215E+03  4.39278E+03 -9.49880E+03 -7.20089E+03 -1.77523E+03 -1.79991E+04  1.20018E+04 -1.95101E+04
  2.29006E+04 -1.13430E+04  2.61259E+04  3.48859E+03  2.30051E+04  1.84415E+04  1.07381E+04  2.89349E+04
 -5.53265E+03  3.14260E+04 -2.03882E+04  1.94063E+04 -2.33583E+04  3.66362E+03 -1.53374E+04 -6.12344E+03
 -6.75087E+03 -7.03121E+03 -9.09653E+02  6.26325E+02 -3.11856E+03  3.18824E+03 -7.21996E+03  5.40183E+03
 -1.46518E+04 -1.04785E+03 -1.47746E+04 -1.17325E+04 -6.05097E+03 -1.95229E+04  6.52352E+03 -1.62446E+04
  1.28143E+04 -6.58302E+03  9.22490E+03  4.39007E+03 -7.49012E+02  6.16825E+03 -7.72996E+03 -4.06353E+02
 -7.07741E+03 -9.72581E+03 -1.21726E+03 -1.56526E+04  9.13274E+03 -1.64897E+04  2.00140E+04 -8.93658E+03
  2.33183E+04  2.82037E+03  1.73529E+04  1.45733E+04  3.06173E+03  1.87425E+04 -9.83420E+03  1.53886E+04
 -1.24589E+04  4.42621E+03 -6.60837E+03 -3.33946E+03  2.43410E+03 -4.60490E+03  8.07278E+03 -9.61799E+02
  7.77736E+03  7.05887E+03  7.10469E+02  1.22114E+04 -8.75462E+03  1.21740E+04 -1.53608E+04  2.90598E+03
 -1.06485E+04 -8.02182E+03  4.50600E+02 -1.34929E+04  9.08447E+03 -6.63118E+03  9.04173E+03  3.15962E+03
  2.16564E+03  1.01685E+04 -8.01392E+03  1.15940E+04 -1.35094E+04  5.20228E+03 -1.36181E+04 -4.95253E+03
 -7.66795E+03 -1.58552E+04  4.17117E+03 -1.79498E+04  1.50705E+04 -1.08353E+04  1.66544E+04  3.03750E+03
  9.93635E+03  1.34719E+04 -1.44395E+03  1.57446E+04 -1.18933E+04  8.92022E+03 -1.24229E+04 -1.27443E+03
 -1.05450E+04 -1.02747E+04 -1.45724E+03 -1.22545E+04  6.10553E+03 -9.53757E+03  7.83493E+03 -3.61821E+03
  4.84723E+03  2.23814E+03 -1.22455E+03  1.74347E+03 -9.09587E+02 -3.26278E+03  2.79068E+03 -7.53151E+03
  1.13629E+04 -5.09787E+03  1.62621E+04  1.68986E+03  1.54934E+04  1.08047E+04  1.01463E+04  2.08790E+04
 -4.98392E+03  2.41372E+04 -2.00592E+04  1.78212E+04 -2.61032E+04  3.29820E+03 -2.05536E+04 -9.16413E+03
 -1.07156E+04 -1.70195E+04 -4.11197E+02 -1.49632E+04  5.27373E+03 -8.28203E+03  5.15851E+03 -5.20137E+03
  3.78056E+03 -2.81358E+03  3.71108E+03 -3.79061E+03  5.68254E+03 -3.33342E+03  7.60013E+03 -1.33830E+03
  1.08370E+04  2.32360E+03  6.14231E+03  9.18647E+03 -2.78497E+03  1.12459E+04 -1.11491E+04  9.11265E+03
 -1.46908E+04 -1.05121E+03 -9.39480E+03 -1.07810E+04 -1.24296E+03 -1.62734E+04  8.75564E+03 -1.61328E+04
  1.64892E+04 -8.63719E+03  1.93127E+04  2.31648E+03  1.36405E+04  1.37172E+04  2.25030E+03  1.79477E+04
 -7.73494E+03  1.42679E+04 -1.04836E+04  5.20003E+03 -7.17716E+03 -1.92776E+03 -2.88593E+03 -1.92720E+03
 -1.45200E+03 -8.09526E+01 -2.50808E+03  2.89718E+03 -6.05565E+03  2.29469E+03 -9.65000E+03 -1.41857E+03
 -7.18239E+03 -1.01814E+04 -1.50668E+02 -1.48804E+04  9.19982E+03 -1.35042E+04  1.47481E+04 -4.34808E+03
  1.48206E+04  7.23276E+03  7.07307E+03  1.33902E+04 -3.12835E+03  1.46904E+04 -1.09635E+04  9.24854E+03
 -1.36867E+04  5.87653E+02 -1.06864E+04 -9.23577E+03 -9.99880E+02 -1.23682E+04  6.56400E+03 -9.15081E+03
  9.65400E+03 -2.93172E+03  6.22288E+03  2.51941E+03  2.62909E+03  4.40083E+03  1.46997E+03  1.93377E+03
  2.92242E+03  9.63778E+02  3.69436E+03  1.91558E+03  4.62172E+03  5.07644E+03  4.10694E+03  8.17632E+03
 -2.60159E+03  1.17111E+04 -1.08693E+04  1.20145E+04 -1.51781E+04  3.21700E+03 -1.58553E+04 -6.69680E+03
 -7.81821E+03 -1.49473E+04  1.83039E+03 -1.63550E+04  9.18790E+03 -1.07957E+04  1.26530E+04 -3.04364E+03
  9.58401E+03  5.60885E+03  2.19422E+03  8.53522E+03 -4.18582E+03  5.50796E+03 -6.72566E+03 -1.31393E+03
 -2.77350E+03 -6.20875E+03  3.60414E+03 -6.72784E+03  6.12319E+03 -3.09779E+03  5.94902E+03  1.41948E+03
  3.44589E+03  3.50485E+03  1.61888E+03  2.23928E+03 -8.05516E+02  2.04226E+03  1.50707E+03 -4.94742E+02
  2.33184E+03 -1.00538E+03  5.83839E+03  1.90855E+03  3.76749E+03  7.97261E+03 -1.37594E+03  1.03369E+04
 -7.11905E+03  7.11555E+03 -1.00695E+04  1.76234E+03 -8.42981E+03 -3.57490E+03 -3.42122E+03 -6.12637E+03
  1.56569E+03 -6.01661E+03  4.05384E+03 -2.81582E+03  2.89502E+03  2.99120E+03 -1.47189E+03  5.00548E+03
 -6.51982E+03  2.89479E+03 -6.93942E+03 -3.67394E+03 -4.20603E+03 -8.41050E+03  1.13579E+03 -8.34118E+03
  4.68333E+03 -5.30005E+03  5.99019E+03 -1.01540E+03  4.95843E+03  1.93734E+03  1.05652E+03  4.44824E+03
 -2.52394E+03  1.21936E+03 -3.80281E+03 -3.26153E+03  1.39035E+03 -6.53814E+03  7.65473E+03 -5.44825E+03
  9.59787E+03  5.21199E+02  9.35363E+03  6.62751E+03  2.73243E+03  1.01941E+04 -3.70313E+03  9.56630E+03
 -7.91334E+03  4.09681E+03 -8.51730E+03 -1.36338E+03 -4.83926E+03 -6.48303E+03  1.36063E+03 -6.08383E+03
  5.98562E+03 -3.30131E+03  5.52407E+03  2.59750E+03  1.58924E+03  5.52103E+03 -1.20306E+03  4.67303E+03
 -2.66320E+03  2.96175E+03 -2.58600E+03  9.45511E+02 -1.39789E+03  8.00202E+02 -1.19866E+03  2.15224E+03
 -2.46906E+03  4.08276E+03 -6.92936E+03  3.66329E+03 -9.80734E+03  5.96461E+02 -1.14177E+04 -6.46331E+03
 -6.14076E+03 -1.31206E+04  2.61132E+03 -1.53786E+04  9.68735E+03 -1.18453E+04  1.45396E+04 -4.70738E+03
  1.35021E+04  2.39824E+03  8.34764E+03  9.13570E+03  1.04446E+03  1.04697E+04 -4.16379E+03  7.43236E+03
 -6.58805E+03  2.29562E+03 -4.26004E+03 -7.77710E+02 -1.40474E+03 -8.61672E+02 -4.46084E+02 -2.56398E+00
 -1.87843E+03  3.47323E+02 -2.32216E+03 -3.45055E+02 -1.05678E+03 -2.25931E+03  3.06945E+02 -3.86041E+03
  4.50766E+03 -3.30474E+03  6.00701E+03 -2.44782E+02  7.68211E+03  5.36366E+03  1.71253E+03  1.03001E+04
 -5.06195E+03  1.19576E+04 -1.11266E+04  7.10694E+03 -1.27165E+04 -7.07032E+02 -9.58814E+03 -7.98244E+03
 -4.15815E+03 -1.08160E+04  2.77334E+03 -1.00344E+04  6.53410E+03 -5.66281E+03  7.17410E+03  1.18709E+02
  4.06826E+03  3.20420E+03 -4.38749E+02  2.90705E+03 -1.83686E+03 -4.14763E+02  3.78735E+02 -2.29069E+03
  3.02378E+03 -1.51397E+03  4.57727E+03  1.59547E+03  2.99993E+03  3.85701E+03  3.39508E+02  5.66009E+03
 -5.45553E+03  4.65578E+03 -6.76276E+03  2.54887E+02 -6.49092E+03 -5.28366E+03 -1.22598E+03 -8.41020E+03
  4.73702E+03 -7.43136E+03  7.73344E+03 -2.01894E+03  8.06447E+03  2.13359E+03  4.49279E+03  6.24732E+03
  1.05190E+03  7.08370E+03 -3.18281E+03  5.57919E+03 -4.67916E+03  3.13983E+03 -3.54664E+03  1.92480E+02
 -2.01342E+03  1.45379E+02 -2.49227E+03  1.37380E+03 -3.92769E+03  1.24200E+03 -5.13279E+03 -1.24966E+03
 -5.37312E+03 -3.63744E+03 -1.57453E+03 -6.79955E+03  3.52438E+03 -7.41082E+03  6.37286E+03 -3.60729E+03
  6.90514E+03  9.75468E+02  3.16283E+03  4.63651E+03 -3.48744E+02  6.96258E+03 -5.70340E+03  4.14660E+03
