 $NMID ID='MM_0lb_SNR800_19hz_g55_9.RAW', FMTDAT='(8E13.5)'
 TRAMP=1., VOLUME=1. $END
  3.10072E+05  3.10814E+02  3.37295E+05  2.50334E+05  8.44386E+04  3.37810E+05 -1.32723E+05  2.50554E+05
 -1.89989E+05  8.26656E+04 -1.11307E+05 -3.27656E+04  1.37794E+03 -5.04433E+04  5.38539E+04 -1.86516E+02
  3.51199E+04  5.31248E+04 -1.70241E+04  7.48987E+04 -6.04197E+04  6.28515E+04 -8.32886E+04  3.20950E+04
 -8.00780E+04 -1.10309E+04 -5.66170E+04 -5.02888E+04 -1.52120E+04 -6.87155E+04  2.67239E+04 -4.47638E+04
  3.93347E+04  3.88977E+03  1.57576E+04  4.71519E+04 -3.42517E+04  4.64163E+04 -6.58957E+04 -2.75212E+02
 -5.25025E+04 -5.60213E+04 -6.53196E+03 -7.57220E+04  3.33197E+04 -5.39292E+04  4.69302E+04 -1.66495E+04
  4.20481E+04  1.13773E+04  3.12205E+04  2.45006E+04  1.59768E+04  2.85646E+04 -4.65843E+03  2.69322E+04
 -2.19015E+04  1.25469E+04 -1.88756E+04 -4.28457E+03  4.45459E+03 -7.46199E+03  2.14478E+04  1.13276E+04
  7.46379E+03  3.35813E+04 -3.09836E+04  3.44496E+04 -6.15643E+04  2.07174E+03 -5.59049E+04 -4.17286E+04
 -1.26559E+04 -6.14628E+04  3.84429E+04 -4.40442E+04  5.63470E+04 -2.13775E+03  3.24410E+04  3.09596E+04
 -6.44801E+03  3.39567E+04 -2.86318E+04  1.38747E+04 -2.84352E+04 -4.99455E+03 -1.51301E+04 -1.03829E+04
 -7.66868E+03 -1.19487E+04 -9.52915E+02 -1.71244E+04  6.63557E+03 -2.27267E+04  1.50433E+04 -1.38901E+04
  1.18930E+04  4.35406E+03 -6.75023E+03  1.30209E+04 -1.97641E+04 -3.10265E+03 -7.94362E+03 -3.12059E+04
  2.12663E+04 -4.12475E+04  4.56356E+04 -1.87537E+04  4.29362E+04  1.84614E+04  1.45033E+04  4.22198E+04
 -1.56201E+04  3.14382E+04 -2.39984E+04  1.19815E+03 -8.85273E+03 -2.66107E+04  2.05917E+04 -3.16094E+04
  3.88200E+04 -7.71462E+03  3.21885E+04  2.30244E+04  1.60523E+04  4.34471E+04 -7.50692E+03  4.63255E+04
 -2.92016E+04  3.07911E+04 -3.82826E+04  8.40025E+03 -3.93609E+04 -1.52526E+04 -2.18588E+04 -3.52019E+04
  7.11033E+03 -3.49691E+04  2.95581E+04 -1.29959E+04  2.77063E+04  1.07089E+04  3.10548E+03  1.80405E+04
 -1.30203E+04  7.21581E+03 -9.51484E+03 -7.64457E+03  6.19358E+03 -1.01256E+04  1.73878E+04  6.53566E+03
  1.22137E+04  2.14433E+04 -6.54626E+03  2.34598E+04 -2.14982E+04  9.45256E+03 -2.54760E+04 -6.01060E+03
 -1.73327E+04 -1.62150E+04 -6.29161E+03 -1.74412E+04  3.83989E+03 -1.52899E+04  1.30315E+04 -1.48469E+04
  2.19638E+04 -1.19024E+04  2.86531E+04  1.13055E+03  2.16224E+04  1.67417E+04  4.27432E+03  3.31760E+04
 -1.61639E+04  2.80980E+04 -2.60917E+04  9.41231E+03 -1.98450E+04 -1.04222E+04 -4.09196E+03 -1.36977E+04
  2.84405E+03 -3.89239E+03 -2.72614E+03  5.74082E+03 -1.36216E+04  5.19166E+03 -1.38722E+04 -5.23720E+03
 -8.97377E+03 -1.58598E+04  4.59918E+03 -1.95961E+04  1.31288E+04 -1.44684E+04  1.51243E+04 -1.44874E+03
  9.24968E+03  1.10662E+04 -7.39479E+02  1.64838E+04 -1.05937E+04  9.06010E+03 -1.62743E+04 -3.48123E+03
 -1.18904E+04 -1.43129E+04 -1.34769E+03 -1.94300E+04  8.80732E+03 -1.57064E+04  1.63915E+04 -7.53424E+03
  1.47605E+04  6.86429E+02  1.03681E+04  3.81819E+03  5.52369E+03  5.36161E+02  8.23493E+03 -1.44822E+03
  1.37510E+04  2.62660E+03  1.52309E+04  1.29624E+04  9.50049E+03  2.53234E+04 -3.06496E+03  2.75757E+04
 -1.63484E+04  2.09064E+04 -2.49777E+04  9.97323E+03 -2.60291E+04 -1.96971E+03 -2.19992E+04 -1.46081E+04
 -1.02888E+04 -2.10378E+04  6.83845E+03 -1.98860E+04  1.70395E+04 -1.11384E+04  1.60735E+04  4.02390E+03
  6.30285E+03  1.13526E+04 -7.09161E+03  1.06215E+04 -1.34500E+04  2.42161E+03 -1.05834E+04 -8.49900E+03
 -1.33909E+02 -1.27484E+04  6.31285E+03 -9.78207E+03  7.95899E+03 -1.56757E+03  1.17738E+03  5.06836E+03
 -5.97907E+03  1.23730E+03 -3.79407E+03 -4.70524E+03  3.39677E+02 -1.03874E+04  7.68706E+03 -1.05207E+04
  1.26028E+04 -4.92337E+03  1.21554E+04  2.52287E+03  1.06240E+04  9.82046E+03  5.29410E+03  1.45707E+04
 -1.57716E+03  1.61710E+04 -9.99587E+03  1.03460E+04 -1.14258E+04  2.98475E+03 -8.51587E+03 -1.86457E+03
 -4.52758E+03 -3.37134E+03 -1.01031E+03  1.58215E+03 -1.87325E+03  2.08736E+03 -3.63841E+03  3.64514E+03
 -8.16226E+03 -3.52744E+02 -8.91631E+03 -7.61144E+03 -3.67545E+03 -1.16030E+04  3.72256E+03 -8.73403E+03
  7.42076E+03 -3.73492E+03  5.50883E+03  2.31129E+03  6.22547E+02  3.05615E+03 -3.40446E+03 -8.06125E+01
 -3.49876E+03 -5.26950E+03 -9.24274E+02 -7.19887E+03  4.10702E+03 -8.01849E+03  1.01042E+04 -3.97704E+03
  1.17898E+04  4.65086E+02  8.73776E+03  6.30911E+03  1.69090E+03  8.75068E+03 -5.15766E+03  8.37382E+03
 -6.85762E+03  2.91433E+03 -3.64292E+03 -1.05994E+03  1.12600E+03 -2.09214E+03  4.61214E+03 -9.62615E+02
  4.11880E+03  3.40736E+03  1.05690E+03  6.08799E+03 -4.36865E+03  6.45144E+03 -7.94039E+03  1.99262E+03
 -4.93282E+03 -3.55298E+03  4.82574E+02 -6.78322E+03  3.69166E+03 -3.27586E+03  3.52288E+03  1.11833E+03
  5.77881E+02  3.23729E+03 -4.00749E+03  4.83694E+03 -4.71813E+03  2.49124E+03 -4.64338E+03 -1.05346E+03
 -2.88719E+03 -6.05927E+03  1.15525E+03 -6.89989E+03  5.93855E+03 -4.84807E+03  6.51163E+03  9.96085E+02
  4.94417E+03  5.19065E+03  1.81193E+02  7.00361E+03 -5.05078E+03  4.33235E+03 -5.19619E+03 -2.21037E+02
 -5.73106E+03 -5.19915E+03 -1.55978E+03 -4.91952E+03  2.47975E+03 -4.65251E+03  2.98712E+03 -3.21973E+03
  3.09255E+03  1.99715E+02 -9.10855E+00  1.13243E+03  6.00329E+02 -2.64525E+01  2.88223E+02 -2.01418E+03
  3.99003E+03 -9.79162E+02  4.95631E+03  7.89549E+02  5.35822E+03  3.02069E+03  5.11556E+03  7.06053E+03
 -1.32261E+03  8.45780E+03 -7.68499E+03  6.63808E+03 -9.84950E+03  1.19600E+03 -7.86510E+03 -2.36716E+03
 -4.19074E+03 -6.19440E+03 -5.31158E+02 -5.12533E+03  2.17239E+03 -2.16016E+03  1.82186E+03 -2.11222E+03
  1.07614E+03 -1.36585E+03  2.01277E+03 -2.35953E+03  3.42927E+03 -1.11866E+03  3.63473E+03  7.23940E+02
  4.53338E+03  9.38985E+02  1.04884E+03  3.50760E+03 -1.62555E+03  2.91920E+03 -4.50473E+03  2.71376E+03
 -4.94699E+03 -1.14783E+03 -1.60868E+03 -3.18622E+03  4.71003E+02 -4.64498E+03  3.26944E+03 -5.15486E+03
  4.84058E+03 -3.43114E+03  6.54366E+03  1.66638E+02  4.77093E+03  4.06734E+03  7.50100E+02  5.61293E+03
 -2.08628E+03  5.85459E+03 -3.19302E+03  1.95561E+03 -1.85971E+03 -8.56403E+02 -3.25947E+02 -4.42013E+02
 -6.20051E+02  7.80274E+02 -7.27540E+02  1.76322E+03 -2.59600E+03  9.15942E+02 -3.96084E+03 -3.43945E+02
 -1.61370E+03 -3.75780E+03  6.44601E+02 -4.35647E+03  2.69919E+03 -4.13742E+03  3.48951E+03 -1.36132E+03
  3.60306E+03  2.36797E+03  1.59080E+03  3.03359E+03 -7.70968E+02  4.40937E+03 -2.73291E+03  2.43526E+03
 -3.70225E+03  4.76518E+02 -3.18925E+03 -2.32865E+03 -2.11870E+01 -2.91366E+03  1.55572E+03 -2.60836E+03
  2.64179E+03 -1.33318E+03  1.73556E+03  2.64654E+02  2.92226E+02  1.56939E+03  7.30059E+02  3.28041E+02
  1.62340E+03  7.08406E+02  1.38810E+03  9.50093E+02  1.09286E+03  2.53170E+03  1.41360E+03  1.57166E+03
 -1.53273E+03  2.84028E+03 -2.10730E+03  4.07450E+03 -2.93959E+03  1.28386E+03 -3.63813E+03 -4.16627E+02
 -1.57427E+03 -3.27019E+03  5.93496E+02 -4.41738E+03  1.81060E+03 -2.50768E+03  2.57543E+03 -7.34509E+02
  2.32979E+03  2.06621E+03  4.28384E+02  1.89549E+03 -6.06513E+02  1.27563E+03 -9.45903E+02  8.96160E+01
 -5.90011E+02 -1.49388E+03  8.35696E+02 -1.44702E+03  9.91736E+02 -7.97735E+02  1.26804E+03 -1.00092E+02
  8.38403E+02  2.48376E+02  6.19727E+02 -2.76602E+02 -3.30521E+02  7.90747E+02  1.50958E+03 -2.24912E+02
 -3.76144E+01 -2.15849E+02  1.66269E+03  6.88590E+02  3.46268E+02  2.34029E+03 -4.95832E+02  2.61057E+03
 -1.78452E+03  9.61201E+02 -2.10992E+03  4.50815E+02 -1.72814E+03 -7.50579E+02  9.12586E+01 -7.69370E+02
  3.90154E+02 -1.19494E+03  8.46098E+02 -4.86368E+02  4.55327E+02  1.13096E+03 -2.80053E+02  1.07509E+03
 -1.29443E+03  5.72183E+02 -1.17953E+03 -1.31026E+03 -3.74781E+02 -2.10501E+03  3.11064E+02 -1.26036E+03
  3.24993E+02 -1.47085E+02  4.88862E+02  3.00838E+02  1.23904E+03 -1.38985E+02  4.22557E+02  8.45650E+02
 -3.03263E+02 -1.28809E+02 -6.75572E+02 -2.68144E+02  7.09490E+02 -6.87316E+02  1.46178E+03 -9.16707E+02
  8.08294E+02  3.81617E+02  2.51176E+03  7.23625E+02  1.07018E+03  1.62882E+03 -2.45006E+02  1.66291E+03
 -1.39408E+03  2.16488E+02 -1.21726E+03  1.14459E+01 -4.95051E+02 -1.17623E+03 -3.52245E+01 -2.86367E+02
  1.17179E+03 -7.35121E+02  7.89635E+02  6.21358E+02  5.72157E+01  1.05136E+03  4.59525E+02  1.32790E+03
 -4.48293E+02  9.68703E+02 -5.24987E+02  5.97243E+02 -1.18414E+01  1.27437E+02 -6.38863E+02  7.67378E+02
 -4.52040E+02  1.22746E+03 -1.50952E+03  2.86498E+02 -1.25157E+03  2.95604E+02 -2.37260E+03 -1.02192E+03
 -8.49503E+02 -1.93217E+03  5.51904E+02 -2.71337E+03  7.34912E+02 -2.40645E+03  2.33894E+03 -9.47008E+02
  1.92701E+03 -2.55744E+02  1.05773E+03  1.46222E+03 -7.70969E+02  1.31493E+03 -8.10580E+02  1.26089E+03
 -8.82550E+02  4.84615E+02 -3.09886E+02 -2.14225E+02 -5.57507E+02  4.80185E+02 -4.85298E+02  1.51510E+02
 -9.18515E+02 -2.59634E+02 -8.38693E+02  1.82074E+02  5.03562E+02 -3.67341E+02 -5.49914E+02 -7.26509E+02
  1.11223E+03 -4.12033E+02  1.71961E+02  2.19070E+02  9.18762E+02  7.63131E+02 -3.75545E+02  1.19530E+03
 -1.04130E+03  1.96703E+03 -1.41744E+03  1.20448E+03 -1.60629E+03 -9.94007E+01 -1.01098E+03 -1.07873E+03
 -9.86907E+02 -9.32378E+02  6.96062E+01 -9.59963E+02  5.83758E+02 -3.34074E+02  3.90468E+02  5.67052E+01
  5.85440E+02  4.39412E+02  8.23738E+01  5.42846E+01 -3.73878E+02  1.80810E+02  7.16149E+01 -1.66128E+02
  5.06279E+02  2.56847E+02 -1.14703E+01  5.41763E+02 -5.28132E+01  4.00898E+02  3.77325E+02  2.12792E+02
 -5.52833E+02  6.31250E+02 -2.95500E+02  3.08772E+02 -6.36938E+02  1.44338E+01 -1.90679E+02 -9.91298E+02
  4.47210E+02 -5.93939E+02  2.96188E+02 -2.72538E+02  6.69876E+02 -4.93514E+02  3.47916E+02  9.44594E+02
  4.40695E+02  6.35665E+02 -1.14330E+02  3.07941E+02 -6.28972E+02  5.96522E+02 -3.22580E+02 -1.10366E+02
  7.83409E+01 -1.17206E+02 -1.84392E+02  1.34831E+02 -6.57516E+02  8.38249E+01 -5.86303E+02 -3.11612E+02
 -9.98930E+02  5.02001E+02 -3.59357E+02 -7.50867E+02  4.40672E+02 -1.45755E+03  6.99650E+02 -1.26250E+02
  5.62645E+02  1.10288E+02 -4.35231E+02 -1.24094E+02 -5.61728E+01  5.41209E+02 -5.15170E+02  5.03424E+02
