 $NMID ID='MM_0lb_SNR800_7hz_g60_36.RAW', FMTDAT='(8E13.5)'
 TRAMP=1., VOLUME=1. $END
  3.09802E+05  7.26999E+02  3.38109E+05  2.51061E+05  8.50542E+04  3.38810E+05 -1.33047E+05  2.52675E+05
 -1.91390E+05  8.40215E+04 -1.13065E+05 -3.18190E+04  9.19578E+01 -5.13357E+04  5.36680E+04 -8.27336E+02
  3.53406E+04  5.32991E+04 -1.60150E+04  7.64149E+04 -6.14711E+04  6.51740E+04 -8.63231E+04  3.27507E+04
 -8.32905E+04 -1.18328E+04 -5.88069E+04 -5.31558E+04 -1.53091E+04 -7.16444E+04  2.87551E+04 -4.71530E+04
  4.20883E+04  3.42471E+03  1.70884E+04  4.94295E+04 -3.44742E+04  4.86209E+04 -6.88880E+04  2.00665E+02
 -5.55697E+04 -5.87608E+04 -7.68634E+03 -8.03193E+04  3.51891E+04 -5.81383E+04  5.06640E+04 -1.86230E+04
  4.62517E+04  1.16058E+04  3.33618E+04  2.72725E+04  1.62130E+04  3.11760E+04 -6.66615E+03  2.80705E+04
 -2.27574E+04  1.18694E+04 -1.73428E+04 -6.49166E+03  7.98295E+03 -7.38653E+03  2.46288E+04  1.44491E+04
  6.76491E+03  3.87832E+04 -3.52039E+04  3.79063E+04 -6.67689E+04  1.96966E+03 -5.94954E+04 -4.53046E+04
 -1.25003E+04 -6.68112E+04  4.31993E+04 -4.84380E+04  6.32628E+04 -2.58349E+03  3.82138E+04  3.53836E+04
 -5.27272E+03  4.15371E+04 -3.28177E+04  2.03816E+04 -3.51737E+04 -2.78391E+03 -2.13835E+04 -1.25612E+04
 -9.93573E+03 -1.60134E+04  5.21388E+02 -2.05133E+04  9.15941E+03 -2.37099E+04  1.63541E+04 -1.24794E+04
  9.94057E+03  7.25501E+03 -1.17580E+04  1.26176E+04 -2.46729E+04 -7.47755E+03 -8.84746E+03 -3.92784E+04
  2.67722E+04 -4.89323E+04  5.43050E+04 -2.15707E+04  5.06593E+04  2.18648E+04  1.84568E+04  4.89938E+04
 -1.66745E+04  3.74633E+04 -2.90313E+04  3.08683E+03 -1.28711E+04 -3.03904E+04  2.14828E+04 -3.85570E+04
  4.68228E+04 -1.24127E+04  4.33564E+04  2.60676E+04  2.35706E+04  5.38255E+04 -8.92960E+03  5.97868E+04
 -3.75749E+04  4.09572E+04 -5.04857E+04  1.22262E+04 -5.03037E+04 -1.96703E+04 -2.77455E+04 -4.42960E+04
  8.44983E+03 -4.50827E+04  3.59204E+04 -1.82140E+04  3.41622E+04  1.13599E+04  5.57680E+03  2.19396E+04
 -1.43255E+04  1.08521E+04 -1.16867E+04 -7.37092E+03  6.24488E+03 -1.20331E+04  1.96451E+04  5.33290E+03
  1.54893E+04  2.30718E+04 -4.14321E+03  2.79610E+04 -2.43672E+04  1.63422E+04 -3.39126E+04 -2.02653E+03
 -2.83560E+04 -1.91390E+04 -1.40803E+04 -2.78010E+04  4.14223E+03 -2.98046E+04  2.16121E+04 -2.62668E+04
  3.54108E+04 -1.46370E+04  4.16312E+04  5.73748E+03  2.96303E+04  2.71456E+04  4.33563E+03  4.46832E+04
 -2.09111E+04  3.58584E+04 -3.25729E+04  1.29942E+04 -2.33649E+04 -1.01891E+04 -5.52189E+03 -1.21480E+04
  2.87107E+02  1.27726E+02 -9.14021E+03  9.27135E+03 -2.29890E+04  4.68862E+03 -2.26794E+04 -1.09692E+04
 -1.30441E+04 -2.62007E+04  6.58172E+03 -3.08228E+04  2.12425E+04 -2.16949E+04  2.56697E+04 -1.98475E+03
  1.64296E+04  1.82858E+04 -1.43279E+03  2.59345E+04 -1.84481E+04  1.52019E+04 -2.59072E+04 -5.56101E+03
 -1.90615E+04 -2.36241E+04 -2.29869E+03 -3.14846E+04  1.39854E+04 -2.63586E+04  2.54905E+04 -1.38608E+04
  2.47664E+04 -3.99621E+02  1.78877E+04  5.57281E+03  1.00201E+04  1.90870E+03  1.42649E+04 -2.27199E+03
  2.56044E+04  3.10279E+03  2.93994E+04  2.01201E+04  2.02451E+04  4.25706E+04 -2.31999E+03  5.06339E+04
 -2.90292E+04  4.30181E+04 -4.79840E+04  2.27315E+04 -5.21335E+04 -4.00439E+03 -4.15393E+04 -3.05526E+04
 -1.60143E+04 -4.28357E+04  1.52428E+04 -3.78081E+04  3.18337E+04 -1.69684E+04  2.71482E+04  9.72366E+03
  8.95074E+03  2.14148E+04 -1.33348E+04  1.79764E+04 -2.30228E+04  2.52737E+03 -1.74180E+04 -1.47052E+04
 -2.16637E+02 -2.23662E+04  1.14191E+04 -1.62941E+04  1.54947E+04 -1.49499E+03  4.72428E+03  1.01455E+04
 -9.66899E+03  5.57105E+03 -1.12731E+04 -8.36617E+03 -3.26977E+03 -2.12482E+04  1.35077E+04 -2.40583E+04
  2.75645E+04 -1.37888E+04  3.13589E+04  3.33386E+03  2.78848E+04  2.21781E+04  1.27795E+04  3.49674E+04
 -6.67035E+03  3.68416E+04 -2.43158E+04  2.31346E+04 -2.70434E+04  4.19977E+03 -1.79808E+04 -7.47494E+03
 -7.50135E+03 -8.38662E+03 -5.94173E+02  2.27467E+02 -3.35993E+03  4.07838E+03 -8.88829E+03  6.30396E+03
 -1.63849E+04 -1.10622E+03 -1.75626E+04 -1.40746E+04 -6.40725E+03 -2.23260E+04  7.53536E+03 -1.83083E+04
  1.51467E+04 -7.13841E+03  1.03990E+04  5.16968E+03 -1.04189E+03  7.68465E+03 -9.18863E+03 -1.44291E+02
 -9.05305E+03 -1.17378E+04 -1.41968E+03 -1.85876E+04  1.14153E+04 -2.03311E+04  2.36535E+04 -1.07696E+04
  2.83471E+04  2.87490E+03  2.04887E+04  1.73633E+04  3.93846E+03  2.28408E+04 -1.10836E+04  1.84361E+04
 -1.50980E+04  5.14189E+03 -7.99498E+03 -4.68773E+03  2.62524E+03 -5.45467E+03  9.92809E+03 -6.99718E+02
  9.16087E+03  8.58227E+03  1.09312E+03  1.53032E+04 -1.14096E+04  1.49774E+04 -1.91141E+04  3.26968E+03
 -1.34042E+04 -1.00234E+04  1.82717E+01 -1.61467E+04  1.06954E+04 -8.20374E+03  1.18480E+04  4.77617E+03
  2.99906E+03  1.33407E+04 -9.95201E+03  1.47063E+04 -1.71353E+04  6.32101E+03 -1.79646E+04 -7.18778E+03
 -1.00935E+04 -1.96663E+04  5.33341E+03 -2.30504E+04  1.90498E+04 -1.35074E+04  2.15528E+04  4.32323E+03
  1.26492E+04  1.69647E+04 -2.55935E+03  1.95483E+04 -1.44983E+04  1.10358E+04 -1.54992E+04 -1.35293E+03
 -1.29587E+04 -1.26722E+04 -1.43601E+03 -1.49436E+04  7.99858E+03 -1.13254E+04  1.02254E+04 -4.46864E+03
  6.40831E+03  3.26681E+03 -1.70595E+03  2.45260E+03 -1.17587E+03 -4.79047E+03  4.02415E+03 -1.01863E+04
  1.48728E+04 -6.75419E+03  2.06145E+04  2.35434E+03  2.02074E+04  1.43417E+04  1.21145E+04  2.71015E+04
 -6.32836E+03  3.07190E+04 -2.52026E+04  2.34363E+04 -3.34616E+04  4.42844E+03 -2.65170E+04 -1.15197E+04
 -1.28847E+04 -2.17776E+04 -3.47196E+02 -1.87137E+04  6.69658E+03 -1.14365E+04  6.61079E+03 -6.81544E+03
  4.86180E+03 -3.59654E+03  4.94850E+03 -4.90802E+03  6.53963E+03 -4.26801E+03  1.02424E+04 -2.38364E+03
  1.39590E+04  3.42256E+03  8.47340E+03  1.22732E+04 -2.67372E+03  1.53098E+04 -1.47124E+04  1.15469E+04
 -1.93793E+04 -1.51270E+03 -1.32074E+04 -1.34353E+04 -2.14672E+03 -2.09808E+04  1.12877E+04 -2.07972E+04
  2.17749E+04 -1.11440E+04  2.57896E+04  3.44604E+03  1.73727E+04  1.78983E+04  2.02712E+03  2.35140E+04
 -9.85623E+03  1.82159E+04 -1.36807E+04  6.62689E+03 -9.97163E+03 -2.02865E+03 -4.42289E+03 -2.90203E+03
 -1.65394E+03 -8.50500E+02 -3.00143E+03  3.67231E+03 -7.98158E+03  2.81905E+03 -1.29770E+04 -2.31745E+03
 -9.87134E+03 -1.32400E+04 -2.32554E+02 -1.96682E+04  1.23884E+04 -1.83972E+04  2.04260E+04 -5.52150E+03
  1.99846E+04  9.41375E+03  8.99396E+03  1.81889E+04 -4.23297E+03  2.04492E+04 -1.44819E+04  1.23901E+04
 -1.91585E+04  4.85141E+02 -1.43828E+04 -1.25331E+04 -2.10912E+03 -1.71415E+04  8.87673E+03 -1.23271E+04
  1.24770E+04 -4.18435E+03  9.03098E+03  4.03169E+03  2.90992E+03  5.81422E+03  2.01589E+03  2.50930E+03
  2.74170E+03  1.94830E+03  4.86353E+03  2.28153E+03  5.89494E+03  6.31476E+03  5.05322E+03  1.12261E+04
 -3.62789E+03  1.65721E+04 -1.43442E+04  1.56362E+04 -2.14066E+04  4.23061E+03 -2.19923E+04 -9.75021E+03
 -1.05809E+04 -2.08493E+04  3.04377E+03 -2.20631E+04  1.25660E+04 -1.51307E+04  1.70333E+04 -3.74273E+03
  1.33395E+04  7.73632E+03  3.22457E+03  1.18575E+04 -6.38591E+03  7.94134E+03 -8.83158E+03 -1.87839E+03
 -4.11003E+03 -9.59554E+03  4.77489E+03 -9.12679E+03  9.19031E+03 -4.61835E+03  8.44675E+03  2.10095E+03
  5.01545E+03  4.97290E+03  1.94661E+03  4.40632E+03 -8.55364E+02  2.82156E+03  1.54648E+03 -7.44434E+02
  3.74661E+03 -1.24911E+03  9.00155E+03  3.42639E+03  5.23673E+03  1.13354E+04 -1.90497E+03  1.50570E+04
 -1.04912E+04  9.91511E+03 -1.38556E+04  2.62604E+03 -1.24784E+04 -5.38653E+03 -5.13224E+03 -8.52525E+03
  1.39063E+03 -8.82133E+03  5.62157E+03 -3.73424E+03  4.56200E+03  3.84359E+03 -1.78013E+03  7.06559E+03
 -8.74646E+03  4.16792E+03 -1.03705E+04 -5.31623E+03 -5.85591E+03 -1.14033E+04  1.76422E+03 -1.19139E+04
  8.01845E+03 -7.66142E+03  9.23729E+03 -9.16108E+02  7.14387E+03  3.19954E+03  1.22523E+03  6.57560E+03
 -4.52981E+03  2.18669E+03 -5.37538E+03 -4.42611E+03  1.92764E+03 -9.93321E+03  1.07761E+04 -7.72383E+03
  1.44635E+04  4.98330E+02  1.27887E+04  9.95252E+03  4.05325E+03  1.47846E+04 -5.48292E+03  1.38915E+04
 -1.20330E+04  6.60666E+03 -1.27936E+04 -1.95753E+03 -6.50613E+03 -9.57108E+03  2.84121E+03 -9.38201E+03
  8.78476E+03 -4.47461E+03  8.28040E+03  3.66841E+03  2.90124E+03  7.96536E+03 -1.42510E+03  6.94389E+03
 -3.90886E+03  4.35790E+03 -3.67777E+03  1.31713E+03 -1.69973E+03  1.41546E+03 -2.04948E+03  2.93201E+03
 -3.73661E+03  5.49711E+03 -9.97414E+03  5.08118E+03 -1.48606E+04  1.70937E+02 -1.65055E+04 -9.81423E+03
 -9.06760E+03 -2.00395E+04  3.67756E+03 -2.29635E+04  1.49030E+04 -1.75897E+04  2.19114E+04 -6.69449E+03
  2.02946E+04  4.42822E+03  1.29031E+04  1.42952E+04  1.77236E+03  1.61305E+04 -6.24254E+03  1.12651E+04
 -9.14103E+03  3.94351E+03 -5.58767E+03 -1.80746E+03 -1.97359E+03 -1.59657E+03 -1.89955E+02 -3.59630E+02
 -2.26966E+03  4.92659E+02 -3.05013E+03 -9.70317E+02 -1.93178E+03 -4.08448E+03  9.41415E+02 -5.62735E+03
  6.94833E+03 -5.00959E+03  1.00023E+04 -2.30901E+02  1.10761E+04  8.58029E+03  3.26864E+03  1.58137E+04
 -7.38062E+03  1.82643E+04 -1.75103E+04  1.05062E+04 -1.93984E+04 -1.22244E+03 -1.46438E+04 -1.17691E+04
 -6.00640E+03 -1.66759E+04  4.86831E+03 -1.60946E+04  1.11947E+04 -8.56726E+03  1.10096E+04  1.86306E+02
  5.58649E+03  6.09713E+03 -3.93155E+02  4.82823E+03 -3.03818E+03 -6.20458E+02  2.17416E+02 -3.65784E+03
  4.97747E+03 -2.21838E+03  6.63750E+03  1.72950E+03  5.10176E+03  6.36739E+03  3.02553E+02  8.46956E+03
 -7.63945E+03  7.42770E+03 -1.15123E+04  4.13583E+02 -9.78472E+03 -8.00194E+03 -1.52312E+03 -1.37308E+04
  7.50309E+03 -1.16563E+04  1.33794E+04 -4.15456E+03  1.33306E+04  3.44627E+03  7.46242E+03  1.03464E+04
  1.67818E+03  1.07113E+04 -4.30065E+03  8.71349E+03 -6.97669E+03  5.18799E+03 -6.01700E+03  8.62917E+02
 -2.60139E+03 -4.31066E+02 -3.16335E+03  1.21393E+03 -5.96921E+03  1.67367E+03 -8.67342E+03 -1.56649E+03
 -7.81685E+03 -6.68687E+03 -2.05733E+03 -1.11680E+04  5.14247E+03 -1.16976E+04  9.87519E+03 -4.99718E+03
  1.11157E+04  1.13051E+03  6.43688E+03  8.48589E+03 -4.57519E+02  1.15576E+04 -8.93499E+03  7.39555E+03
