 $NMID ID='MM_0lb_SNR800_10hz_g40_6.RAW', FMTDAT='(8E13.5)'
 TRAMP=1., VOLUME=1. $END
  3.10069E+05  6.05046E+02  3.37671E+05  2.50624E+05  8.47129E+04  3.38431E+05 -1.32499E+05  2.51659E+05
 -1.90546E+05  8.37499E+04 -1.12258E+05 -3.24858E+04  4.80460E+02 -5.06263E+04  5.39735E+04 -3.65694E+02
  3.57501E+04  5.28076E+04 -1.68233E+04  7.56629E+04 -6.05701E+04  6.40069E+04 -8.47937E+04  3.21632E+04
 -8.18897E+04 -1.15317E+04 -5.79617E+04 -5.16937E+04 -1.50923E+04 -7.02422E+04  2.80334E+04 -4.63807E+04
  4.07354E+04  3.65485E+03  1.65094E+04  4.80589E+04 -3.45030E+04  4.77872E+04 -6.77589E+04 -2.38836E+02
 -5.41119E+04 -5.71125E+04 -7.55075E+03 -7.82170E+04  3.45418E+04 -5.60002E+04  4.88717E+04 -1.75080E+04
  4.43148E+04  1.13101E+04  3.22920E+04  2.61251E+04  1.56066E+04  3.00007E+04 -5.45015E+03  2.72753E+04
 -2.23935E+04  1.18147E+04 -1.85640E+04 -5.62712E+03  6.20791E+03 -7.06346E+03  2.30906E+04  1.34768E+04
  7.28876E+03  3.67748E+04 -3.33687E+04  3.65679E+04 -6.48862E+04  2.10067E+03 -5.82660E+04 -4.35048E+04
 -1.25647E+04 -6.45720E+04  4.08335E+04 -4.66185E+04  6.00151E+04 -2.29935E+03  3.55663E+04  3.34537E+04
 -5.70354E+03  3.82640E+04 -3.10414E+04  1.78631E+04 -3.20908E+04 -3.94490E+03 -1.82469E+04 -1.10843E+04
 -9.24597E+03 -1.43273E+04 -1.70151E+02 -1.87946E+04  8.06276E+03 -2.34340E+04  1.56653E+04 -1.29742E+04
  1.11706E+04  5.61104E+03 -9.73934E+03  1.30932E+04 -2.21288E+04 -5.85583E+03 -8.43216E+03 -3.56464E+04
  2.41506E+04 -4.53139E+04  5.03938E+04 -2.03304E+04  4.73160E+04  1.99541E+04  1.65433E+04  4.60338E+04
 -1.63317E+04  3.50594E+04 -2.70496E+04  1.89689E+03 -1.11841E+04 -2.86953E+04  2.17315E+04 -3.56314E+04
  4.29539E+04 -1.04215E+04  3.82826E+04  2.42541E+04  2.00432E+04  4.91462E+04 -8.05671E+03  5.36383E+04
 -3.39017E+04  3.62170E+04 -4.51953E+04  1.02974E+04 -4.52073E+04 -1.75714E+04 -2.49264E+04 -4.03862E+04
  7.88424E+03 -4.04159E+04  3.29451E+04 -1.58123E+04  3.09335E+04  1.10283E+04  5.06034E+03  2.04707E+04
 -1.37916E+04  9.16219E+03 -1.05889E+04 -7.57050E+03  6.06504E+03 -1.10101E+04  1.87642E+04  5.76351E+03
  1.44076E+04  2.23520E+04 -5.77657E+03  2.60717E+04 -2.28170E+04  1.36611E+04 -3.02220E+04 -3.73721E+03
 -2.39009E+04 -1.80287E+04 -1.03712E+04 -2.31130E+04  4.59156E+03 -2.34031E+04  1.82628E+04 -2.12058E+04
  2.98807E+04 -1.36002E+04  3.58676E+04  4.42314E+03  2.56476E+04  2.23215E+04  4.58957E+03  3.98789E+04
 -1.91826E+04  3.26255E+04 -2.96075E+04  1.12668E+04 -2.19911E+04 -9.81837E+03 -4.51343E+03 -1.29961E+04
  8.91937E+02 -1.46808E+03 -6.82930E+03  7.78510E+03 -1.88145E+04  5.20133E+03 -1.88180E+04 -8.58071E+03
 -1.11929E+04 -2.16974E+04  5.67552E+03 -2.56198E+04  1.72163E+04 -1.82607E+04  2.09955E+04 -1.51095E+03
  1.34194E+04  1.46126E+04 -1.22938E+03  2.14897E+04 -1.54208E+04  1.23554E+04 -2.18868E+04 -4.43024E+03
 -1.58377E+04 -1.96482E+04 -2.01958E+03 -2.59129E+04  1.16517E+04 -2.16954E+04  2.16198E+04 -1.12818E+04
  2.04851E+04 -1.42292E+02  1.44062E+04  5.02802E+03  8.28293E+03  1.41318E+03  1.10874E+04 -1.39671E+03
  2.06166E+04  2.61135E+03  2.32788E+04  1.68070E+04  1.56227E+04  3.48045E+04 -2.58523E+03  3.98849E+04
 -2.28973E+04  3.30358E+04 -3.81714E+04  1.72726E+04 -4.02982E+04 -2.72565E+03 -3.28805E+04 -2.34543E+04
 -1.32084E+04 -3.33575E+04  1.20430E+04 -2.98069E+04  2.57096E+04 -1.45425E+04  2.23439E+04  7.09436E+03
  7.90509E+03  1.69921E+04 -1.06115E+04  1.43658E+04 -1.86854E+04  2.43168E+03 -1.41745E+04 -1.16453E+04
 -9.10051E+01 -1.80571E+04  9.65651E+03 -1.28704E+04  1.21732E+04 -1.05190E+03  3.19942E+03  8.02906E+03
 -8.00260E+03  3.47664E+03 -8.25029E+03 -6.48759E+03 -1.04552E+03 -1.61521E+04  1.08346E+04 -1.77172E+04
  2.05753E+04 -9.73360E+03  2.28640E+04  3.21661E+03  2.02511E+04  1.67765E+04  9.37895E+03  2.56446E+04
 -4.43260E+03  2.78723E+04 -1.80100E+04  1.73500E+04 -2.01973E+04  3.69425E+03 -1.35175E+04 -5.11380E+03
 -6.20036E+03 -6.53443E+03 -9.07810E+02  6.86308E+02 -2.52854E+03  3.21776E+03 -6.70996E+03  4.87846E+03
 -1.22713E+04 -9.45606E+02 -1.34017E+04 -1.09723E+04 -5.33263E+03 -1.75644E+04  5.62410E+03 -1.42740E+04
  1.15286E+04 -6.06843E+03  8.87299E+03  3.75681E+03 -7.70027E+01  5.54349E+03 -7.29647E+03 -3.45100E+02
 -6.55925E+03 -9.02967E+03 -1.15848E+03 -1.35562E+04  8.10481E+03 -1.42647E+04  1.75487E+04 -7.58122E+03
  2.09636E+04  2.01476E+03  1.52646E+04  1.25877E+04  3.33868E+03  1.66865E+04 -8.66642E+03  1.38802E+04
 -1.13026E+04  4.17118E+03 -5.74465E+03 -2.68806E+03  1.90922E+03 -3.79639E+03  7.21374E+03 -1.15360E+03
  6.51295E+03  6.02946E+03  1.24506E+03  1.11724E+04 -8.26398E+03  1.07784E+04 -1.39762E+04  2.51967E+03
 -9.35556E+03 -7.17855E+03  1.65849E+02 -1.19974E+04  7.75199E+03 -6.08254E+03  8.01194E+03  2.70973E+03
  1.79403E+03  8.77402E+03 -7.37618E+03  9.99012E+03 -1.16693E+04  4.24874E+03 -1.19515E+04 -4.09662E+03
 -6.97089E+03 -1.36448E+04  3.52148E+03 -1.58326E+04  1.28637E+04 -9.56029E+03  1.44958E+04  2.50393E+03
  9.22072E+03  1.14761E+04 -1.34575E+03  1.40663E+04 -1.02445E+04  7.76651E+03 -1.10306E+04 -1.29003E+03
 -9.66745E+03 -9.44147E+03 -1.86434E+03 -1.01826E+04  5.61631E+03 -8.71166E+03  6.46651E+03 -3.46793E+03
  4.43926E+03  1.15668E+03 -8.81326E+02  1.87066E+03 -5.28407E+02 -2.91826E+03  2.31577E+03 -6.51064E+03
  9.28248E+03 -4.06763E+03  1.38165E+04  1.40128E+03  1.35394E+04  8.83017E+03  9.08696E+03  1.77717E+04
 -4.20606E+03  2.06083E+04 -1.71349E+04  1.54200E+04 -2.22567E+04  2.60924E+03 -1.79425E+04 -7.44555E+03
 -9.03320E+03 -1.43389E+04 -5.49206E+02 -1.25118E+04  4.14210E+03 -6.52068E+03  4.39489E+03 -4.69792E+03
  3.16274E+03 -2.74785E+03  3.37631E+03 -3.56246E+03  5.36027E+03 -3.10848E+03  7.18542E+03 -1.34554E+03
  9.39509E+03  2.09633E+03  5.02880E+03  8.07174E+03 -2.08600E+03  9.38403E+03 -9.54703E+03  7.38156E+03
 -1.25206E+04 -1.24978E+03 -7.46107E+03 -8.46470E+03 -8.90476E+02 -1.36758E+04  7.32645E+03 -1.36968E+04
  1.36257E+04 -7.39970E+03  1.69710E+04  2.30250E+03  1.16583E+04  1.13935E+04  1.81162E+03  1.48065E+04
 -6.36344E+03  1.25942E+04 -8.91350E+03  4.29111E+03 -5.87152E+03 -1.49942E+03 -2.55990E+03 -2.04071E+03
 -1.28431E+03  2.99278E+02 -1.76333E+03  2.70597E+03 -5.83588E+03  2.20741E+03 -8.59718E+03 -1.30526E+03
 -5.90833E+03 -8.53202E+03 -1.00262E+02 -1.22203E+04  7.06442E+03 -1.15854E+04  1.18195E+04 -3.47563E+03
  1.19834E+04  5.90258E+03  6.03656E+03  1.09685E+04 -2.47109E+03  1.23794E+04 -9.00425E+03  7.59490E+03
 -1.10620E+04  7.29147E+02 -9.18044E+03 -7.62766E+03 -9.37449E+02 -1.01132E+04  5.06628E+03 -7.32221E+03
  7.89078E+03 -2.23084E+03  5.35709E+03  2.25946E+03  1.63823E+03  3.70921E+03  1.26985E+03  1.79999E+03
  2.33838E+03  1.24120E+03  3.00458E+03  1.65418E+03  3.61266E+03  4.42095E+03  2.94898E+03  6.51864E+03
 -2.56597E+03  9.29624E+03 -8.61595E+03  1.01150E+04 -1.21057E+04  2.57453E+03 -1.27591E+04 -5.05315E+03
 -6.20697E+03 -1.25308E+04  1.71626E+03 -1.39479E+04  7.51883E+03 -8.43687E+03  1.01682E+04 -2.26174E+03
  8.04400E+03  4.79569E+03  1.77576E+03  6.86675E+03 -3.62789E+03  4.36020E+03 -4.81091E+03 -7.36218E+02
 -2.57796E+03 -5.23507E+03  3.14985E+03 -5.59048E+03  4.85623E+03 -2.49170E+03  5.00352E+03  1.42191E+03
  3.00451E+03  2.40328E+03  1.29738E+03  1.85420E+03 -7.99493E+02  1.56171E+03  1.60895E+03 -8.53131E+02
  2.37514E+03 -8.27443E+02  5.18590E+03  1.92376E+03  3.07631E+03  6.66345E+03 -1.37570E+03  8.76636E+03
 -6.01375E+03  5.61599E+03 -7.81626E+03  1.53730E+03 -6.99154E+03 -2.89366E+03 -2.60285E+03 -4.62046E+03
  6.17464E+02 -4.66346E+03  3.29351E+03 -2.24613E+03  2.67031E+03  2.90785E+03 -1.51592E+03  3.66646E+03
 -5.19347E+03  2.56033E+03 -5.49200E+03 -2.72586E+03 -3.29177E+03 -6.65244E+03  9.93834E+02 -7.16915E+03
  3.93413E+03 -3.84821E+03  4.99693E+03 -3.31736E+02  4.38384E+03  2.01718E+03  6.80343E+02  3.65132E+03
 -2.35237E+03  1.18527E+03 -2.81528E+03 -2.13035E+03  1.23290E+03 -5.05812E+03  6.03248E+03 -4.47800E+03
  7.42008E+03  7.43121E+02  7.71858E+03  5.27245E+03  2.10835E+03  8.16028E+03 -2.99486E+03  7.69850E+03
 -6.88463E+03  3.36828E+03 -6.63157E+03 -1.05469E+03 -3.86397E+03 -5.26770E+03  9.52439E+02 -4.37934E+03
  5.05614E+03 -2.49390E+03  4.14142E+03  2.33995E+03  1.56482E+03  4.47442E+03 -2.26484E+02  4.13728E+03
 -1.80108E+03  2.84956E+03 -1.80641E+03  8.28017E+02 -1.06027E+03  1.07431E+03 -1.42066E+03  1.98267E+03
 -2.17973E+03  3.10144E+03 -5.55190E+03  2.51166E+03 -7.94947E+03 -2.08535E+02 -8.53687E+03 -4.69099E+03
 -4.83527E+03 -1.02877E+04  2.49160E+03 -1.22234E+04  7.14482E+03 -9.38238E+03  1.13211E+04 -3.78227E+03
  1.09506E+04  1.90974E+03  6.17645E+03  7.31634E+03  2.68524E+02  8.35586E+03 -3.40847E+03  6.26157E+03
 -5.04195E+03  2.55059E+03 -3.11316E+03 -5.14411E+02 -1.01918E+03 -7.11857E+02 -6.50304E+02 -1.26697E+01
 -1.66968E+03  1.10481E+02 -1.94912E+03 -6.26895E+02 -4.80571E+02 -2.36219E+03  1.42643E+02 -3.22904E+03
  3.74488E+03 -2.78266E+03  4.81705E+03  7.43639E+01  5.82143E+03  4.43470E+03  1.62024E+03  7.99022E+03
 -3.99532E+03  9.26830E+03 -8.55809E+03  5.43669E+03 -9.88405E+03 -9.90110E+02 -7.10798E+03 -6.28926E+03
 -3.15153E+03 -8.49537E+03  1.96163E+03 -7.64736E+03  5.17202E+03 -4.14521E+03  5.16527E+03  8.41754E+01
  3.19759E+03  2.94414E+03 -2.55682E+02  2.17434E+03 -1.43736E+03 -6.01470E+02 -7.89559E+01 -1.94102E+03
  2.69050E+03 -1.16276E+03  3.16272E+03  9.92285E+02  2.06304E+03  3.07595E+03  4.51927E+02  4.01811E+03
 -3.78348E+03  3.75751E+03 -5.82506E+03  1.85275E+02 -4.72647E+03 -4.08378E+03 -4.39125E+02 -7.21200E+03
  3.91629E+03 -5.67396E+03  6.29235E+03 -2.00334E+03  6.42402E+03  1.26930E+03  3.52779E+03  4.92996E+03
  6.43142E+02  5.32844E+03 -2.27169E+03  4.26955E+03 -3.10442E+03  2.37687E+03 -2.76615E+03  4.07722E+02
 -1.11634E+03  2.38031E+02 -1.37271E+03  6.95313E+02 -2.98551E+03  1.09134E+03 -4.47275E+03 -6.45229E+02
 -4.28097E+03 -2.80094E+03 -1.41777E+03 -5.07977E+03  2.72788E+03 -6.24364E+03  4.99983E+03 -3.01416E+03
  4.85599E+03  6.03862E+02  2.74322E+03  3.86987E+03 -6.38839E+02  5.76477E+03 -3.95810E+03  3.42028E+03
