 $NMID ID='MM_0lb_SNR800_15hz_g40_14.RAW', FMTDAT='(8E13.5)'
 TRAMP=1., VOLUME=1. $END
  3.09797E+05  4.61927E+02  3.37258E+05  2.50285E+05  8.45778E+04  3.37565E+05 -1.32606E+05  2.50620E+05
 -1.89915E+05  8.26015E+04 -1.11282E+05 -3.27218E+04  1.05252E+03 -5.05644E+04  5.37997E+04  2.48854E+02
  3.52238E+04  5.26597E+04 -1.69279E+04  7.50038E+04 -6.03702E+04  6.30554E+04 -8.36468E+04  3.16375E+04
 -8.06340E+04 -1.10789E+04 -5.66205E+04 -5.11321E+04 -1.49423E+04 -6.89202E+04  2.71421E+04 -4.51850E+04
  3.95691E+04  3.65634E+03  1.59434E+04  4.75479E+04 -3.36679E+04  4.67288E+04 -6.61343E+04 -3.55331E+02
 -5.28585E+04 -5.63682E+04 -6.25123E+03 -7.59998E+04  3.38429E+04 -5.41400E+04  4.74673E+04 -1.66370E+04
  4.26956E+04  1.11674E+04  3.13486E+04  2.51409E+04  1.58369E+04  2.89475E+04 -4.63401E+03  2.69240E+04
 -2.18564E+04  1.26706E+04 -1.92200E+04 -4.35907E+03  5.22383E+03 -7.56061E+03  2.16528E+04  1.14320E+04
  7.23297E+03  3.43402E+04 -3.12000E+04  3.46823E+04 -6.21433E+04  2.11641E+03 -5.62146E+04 -4.18962E+04
 -1.22659E+04 -6.18631E+04  3.86328E+04 -4.41228E+04  5.69231E+04 -1.94282E+03  3.30294E+04  3.14676E+04
 -6.57117E+03  3.47587E+04 -2.92527E+04  1.46196E+04 -2.90589E+04 -4.88968E+03 -1.57543E+04 -1.06504E+04
 -7.84479E+03 -1.27027E+04 -1.04226E+03 -1.73165E+04  6.67078E+03 -2.27727E+04  1.52314E+04 -1.36498E+04
  1.14613E+04  4.67600E+03 -7.50642E+03  1.29306E+04 -2.05593E+04 -3.39718E+03 -7.75480E+03 -3.22596E+04
  2.19937E+04 -4.23255E+04  4.64858E+04 -1.91800E+04  4.35811E+04  1.87658E+04  1.49216E+04  4.29836E+04
 -1.56238E+04  3.23923E+04 -2.42555E+04  1.20206E+03 -8.82175E+03 -2.73390E+04  2.08273E+04 -3.23977E+04
  3.95982E+04 -8.45526E+03  3.38705E+04  2.34338E+04  1.67819E+04  4.45512E+04 -8.01705E+03  4.76111E+04
 -3.04445E+04  3.18187E+04 -3.97774E+04  8.90026E+03 -4.05596E+04 -1.58053E+04 -2.26300E+04 -3.64791E+04
  6.87978E+03 -3.63942E+04  3.02603E+04 -1.36595E+04  2.79230E+04  1.09865E+04  3.46974E+03  1.84052E+04
 -1.32204E+04  7.89715E+03 -9.81812E+03 -8.14646E+03  5.40695E+03 -1.05512E+04  1.77811E+04  5.94374E+03
  1.27219E+04  2.18276E+04 -6.44294E+03  2.41066E+04 -2.18066E+04  1.04232E+04 -2.68933E+04 -5.47914E+03
 -1.87473E+04 -1.67666E+04 -7.15297E+03 -1.89531E+04  3.97529E+03 -1.73855E+04  1.45172E+04 -1.67074E+04
  2.38689E+04 -1.25443E+04  3.06090E+04  2.25176E+03  2.27605E+04  1.83514E+04  4.16487E+03  3.45999E+04
 -1.68242E+04  2.88738E+04 -2.71618E+04  1.02173E+04 -2.02222E+04 -1.02197E+04 -4.27582E+03 -1.39779E+04
  2.52462E+03 -3.13663E+03 -3.58194E+03  6.07732E+03 -1.49004E+04  5.27143E+03 -1.50959E+04 -5.86900E+03
 -9.39807E+03 -1.75379E+04  4.88475E+03 -2.15178E+04  1.40974E+04 -1.55287E+04  1.65108E+04 -1.51882E+03
  1.04625E+04  1.23035E+04 -9.91681E+02  1.76967E+04 -1.20589E+04  1.00867E+04 -1.76028E+04 -3.79570E+03
 -1.28597E+04 -1.59883E+04 -1.52141E+03 -2.12544E+04  9.67759E+03 -1.71892E+04  1.79391E+04 -8.41595E+03
  1.64804E+04  5.46742E+02  1.18096E+04  4.34385E+03  6.17185E+03  6.88156E+02  8.60325E+03 -1.44434E+03
  1.59833E+04  2.54644E+03  1.75239E+04  1.40103E+04  1.10994E+04  2.77767E+04 -2.88473E+03  3.10668E+04
 -1.81627E+04  2.44715E+04 -2.87187E+04  1.20217E+04 -2.98742E+04 -2.03568E+03 -2.50139E+04 -1.72397E+04
 -1.10152E+04 -2.43994E+04  8.24366E+03 -2.23476E+04  1.94375E+04 -1.19415E+04  1.77330E+04  4.56184E+03
  7.07408E+03  1.27732E+04 -8.17091E+03  1.19027E+04 -1.51252E+04  2.47941E+03 -1.12379E+04 -9.19784E+03
 -9.27961E+01 -1.38945E+04  7.29025E+03 -1.07486E+04  9.13644E+03 -1.30395E+03  1.80529E+03  5.89586E+03
 -6.30119E+03  1.97912E+03 -5.19956E+03 -5.30570E+03 -3.99160E+01 -1.21016E+04  8.62749E+03 -1.22793E+04
  1.48543E+04 -6.31313E+03  1.53936E+04  3.05845E+03  1.34856E+04  1.15925E+04  6.01836E+03  1.78089E+04
 -2.47986E+03  1.94799E+04 -1.20887E+04  1.23046E+04 -1.37652E+04  3.21486E+03 -1.01316E+04 -3.19484E+03
 -5.12062E+03 -4.38894E+03 -9.48934E+02  1.49842E+03 -2.06078E+03  2.59015E+03 -4.63514E+03  4.05454E+03
 -9.42834E+03 -7.98989E+02 -1.01017E+04 -8.12647E+03 -4.04079E+03 -1.33396E+04  4.26513E+03 -1.02890E+04
  8.40751E+03 -4.34575E+03  6.23294E+03  2.40341E+03  4.10017E+02  3.81277E+03 -4.59182E+03 -3.88983E+00
 -4.36216E+03 -6.35529E+03 -9.95631E+02 -9.15389E+03  5.01630E+03 -9.85431E+03  1.25234E+04 -5.16150E+03
  1.43408E+04  1.04089E+03  1.05782E+04  8.14738E+03  2.07039E+03  1.12865E+04 -6.14369E+03  1.03572E+04
 -8.04093E+03  3.15465E+03 -4.36278E+03 -1.94331E+03  1.63760E+03 -2.55261E+03  5.80112E+03 -1.22650E+03
  4.87803E+03  4.33448E+03  9.18129E+02  7.91242E+03 -5.85793E+03  7.46991E+03 -9.76626E+03  1.95438E+03
 -6.40137E+03 -4.84572E+03  3.93964E+02 -8.22496E+03  4.71836E+03 -4.03610E+03  5.01415E+03  1.57026E+03
  8.95886E+02  4.87558E+03 -5.08962E+03  6.09833E+03 -6.98255E+03  3.11443E+03 -6.94574E+03 -1.97539E+03
 -4.15180E+03 -8.15985E+03  1.93472E+03 -9.43510E+03  7.91915E+03 -5.88234E+03  8.46711E+03  1.16004E+03
  6.07963E+03  7.11307E+03 -2.83539E+02  9.23800E+03 -6.56779E+03  5.27325E+03 -6.77046E+03 -4.86801E+02
 -6.71958E+03 -6.24228E+03 -1.54172E+03 -6.55332E+03  3.47082E+03 -5.75815E+03  4.14824E+03 -3.37854E+03
  3.25885E+03  8.15279E+02 -4.37445E+02  1.28254E+03  2.48785E+02 -9.14133E+02  5.47786E+02 -3.04825E+03
  5.55320E+03 -1.51808E+03  7.75747E+03  8.42978E+02  7.74455E+03  5.13429E+03  6.37368E+03  1.02629E+04
 -2.22872E+03  1.18695E+04 -1.03440E+04  8.96291E+03 -1.35639E+04  1.83423E+03 -1.08793E+04 -4.24207E+03
 -5.67892E+03 -8.88379E+03 -4.12330E+02 -7.38736E+03  3.03590E+03 -3.32728E+03  2.46082E+03 -2.75006E+03
  1.73591E+03 -1.94670E+03  2.60763E+03 -2.65189E+03  4.09681E+03 -1.90286E+03  4.61389E+03  2.36691E+01
  6.31690E+03  1.35643E+03  2.13925E+03  4.92382E+03 -1.78184E+03  5.02818E+03 -5.79683E+03  3.96813E+03
 -6.83405E+03 -1.05991E+03 -3.35787E+03 -5.14326E+03  1.45087E+02 -7.22582E+03  4.58105E+03 -7.79239E+03
  7.70365E+03 -4.54973E+03  9.58030E+03  9.14603E+02  6.78051E+03  6.42292E+03  1.27561E+03  8.69421E+03
 -3.17953E+03  7.92006E+03 -4.83058E+03  2.74621E+03 -2.90711E+03 -8.54125E+02 -7.76832E+02 -8.36748E+02
 -5.65320E+02  1.92224E+01 -1.31616E+03  2.22465E+03 -3.17104E+03  1.29966E+03 -5.49911E+03 -5.28259E+02
 -2.69645E+03 -5.29449E+03  7.27157E+02 -6.78426E+03  3.92518E+03 -6.23249E+03  6.05346E+03 -1.91105E+03
  6.34495E+03  3.52687E+03  2.92111E+03  5.39529E+03 -1.16022E+03  6.95787E+03 -4.22902E+03  4.25489E+03
 -5.87293E+03  6.03293E+02 -4.92877E+03 -4.03215E+03 -5.37765E+02 -5.27652E+03  2.51402E+03 -3.89505E+03
  4.10159E+03 -1.74709E+03  2.39305E+03  9.68256E+02  8.98363E+02  2.34455E+03  8.75240E+02  7.85349E+02
  1.99533E+03  9.55676E+02  1.78194E+03  1.42673E+03  1.56132E+03  3.06410E+03  1.72396E+03  2.96992E+03
 -1.79130E+03  4.85734E+03 -4.26950E+03  5.60897E+03 -5.38410E+03  1.69944E+03 -6.89659E+03 -1.77525E+03
 -2.90322E+03 -6.22148E+03  1.08305E+03 -7.26869E+03  3.39247E+03 -4.52928E+03  5.30614E+03 -1.61026E+03
  3.87110E+03  2.72074E+03  6.76706E+02  3.90608E+03 -1.51905E+03  2.40228E+03 -2.23282E+03 -2.57643E+02
 -1.26321E+03 -2.50499E+03  1.75090E+03 -2.83451E+03  2.46973E+03 -1.61975E+03  2.22735E+03  5.16147E+02
  1.10219E+03  7.82373E+02  9.97935E+02  3.83212E+02 -4.03741E+02  6.77050E+02  1.57343E+03 -7.83402E+01
  5.30502E+02 -1.56532E+02  2.59695E+03  9.55368E+02  8.87688E+02  3.33129E+03 -8.58883E+02  4.84737E+03
 -3.10144E+03  2.45435E+03 -4.01998E+03  5.59939E+02 -3.21798E+03 -1.15298E+03 -7.79920E+02 -1.73391E+03
  5.71189E+02 -2.19567E+03  1.31461E+03 -1.11780E+03  1.12197E+03  1.86917E+03 -9.51886E+02  1.98250E+03
 -2.60769E+03  1.28692E+03 -2.25754E+03 -1.65179E+03 -1.04217E+03 -3.79833E+03  2.06286E+02 -2.89890E+03
  1.30884E+03 -1.63130E+03  1.57819E+03 -1.72769E+02  2.04122E+03  1.84248E+02  6.99247E+02  1.88310E+03
 -1.34067E+03  3.01145E+02 -1.29845E+03 -7.19968E+02  7.93975E+02 -2.08148E+03  2.75145E+03 -1.99117E+03
  3.03595E+03  4.71146E+02  4.11523E+03  1.94945E+03  1.71942E+03  3.33856E+03 -1.11037E+03  3.10917E+03
 -2.63933E+03  1.13720E+03 -3.03551E+03 -4.78966E+02 -1.22598E+03 -2.45030E+03  6.86358E+02 -1.64116E+03
  2.27246E+03 -1.12467E+03  1.27918E+03  9.56985E+02  4.53283E+02  2.20445E+03 -7.42275E+01  2.06937E+03
 -6.77614E+02  1.68049E+03 -8.83610E+02  3.58818E+02 -1.67913E+02  5.95037E+02 -1.18068E+03  7.96702E+02
 -1.05454E+03  1.58084E+03 -2.67205E+03  9.28807E+02 -3.30936E+03  1.96404E+02 -4.22236E+03 -2.01549E+03
 -2.23191E+03 -4.25848E+03  8.54884E+02 -5.17485E+03  2.68761E+03 -3.94619E+03  4.84898E+03 -1.34893E+03
  4.45951E+03  3.62348E+02  2.60516E+03  3.03750E+03 -5.65104E+01  2.87213E+03 -1.16278E+03  2.45332E+03
 -1.70722E+03  1.31230E+03 -1.22121E+03 -5.29801E+02 -5.33888E+02  9.54773E+01 -7.61948E+02  1.89833E+01
 -1.14813E+03 -5.78837E+01 -9.95459E+02 -7.75035E+01 -1.63373E+02 -1.11439E+03 -8.45541E+01 -1.55348E+03
  1.91575E+03 -1.29482E+03  1.57006E+03  1.71470E+02  2.28714E+03  1.88433E+03  1.57175E+02  2.84198E+03
 -1.76336E+03  4.08170E+03 -3.41981E+03  2.15852E+03 -3.93000E+03 -4.90931E+02 -3.00806E+03 -2.47429E+03
 -1.55542E+03 -2.94838E+03  8.95005E+02 -2.81382E+03  1.58960E+03 -1.48011E+03  1.59425E+03  2.73472E+02
  1.31730E+03  8.22829E+02 -1.98944E+02  8.59276E+02 -7.22829E+02  1.82191E+02 -1.49134E+01 -3.67232E+02
  1.21449E+03  1.81843E+02  7.55894E+02  6.40678E+02  2.69894E+02  1.13212E+03  3.96843E+02  1.38947E+03
 -1.08812E+03  1.74904E+03 -1.81284E+03  1.16732E+02 -1.84596E+03 -1.40978E+03  2.82900E+01 -2.58138E+03
  1.11505E+03 -1.93796E+03  1.80139E+03 -3.72018E+02  2.31705E+03  1.34324E+02  1.19335E+03  1.74865E+03
  6.59061E+02  1.72043E+03 -5.88930E+02  1.28065E+03 -1.05009E+03  7.17174E+02 -7.06122E+02  7.88151E+01
 -7.81620E+02 -3.59444E+01 -5.48800E+02  3.63188E+02 -1.31315E+03  1.10642E+02 -1.20821E+03 -5.49571E+02
 -1.76715E+03 -6.90228E+02 -7.42273E+02 -2.04283E+03  1.05291E+03 -2.78762E+03  1.61874E+03 -8.07250E+02
  1.62616E+03  7.92719E+01  5.48775E+02  1.24511E+03 -1.37736E+02  1.92082E+03 -1.11470E+03  1.43468E+03
