 $NMID ID='MM_0lb_SNR800_18hz_g60_34.RAW', FMTDAT='(8E13.5)'
 TRAMP=1., VOLUME=1. $END
  3.09876E+05  4.16366E+02  3.37466E+05  2.50631E+05  8.44389E+04  3.37869E+05 -1.32606E+05  2.51009E+05
 -1.90072E+05  8.31068E+04 -1.11638E+05 -3.25692E+04  8.45348E+02 -5.05035E+04  5.40311E+04 -1.95249E+02
  3.51776E+04  5.29171E+04 -1.73169E+04  7.52293E+04 -6.06661E+04  6.34674E+04 -8.39836E+04  3.19580E+04
 -8.06244E+04 -1.10553E+04 -5.67847E+04 -5.07821E+04 -1.47645E+04 -6.95307E+04  2.73550E+04 -4.56350E+04
  4.01474E+04  3.85854E+03  1.59982E+04  4.76232E+04 -3.41999E+04  4.69612E+04 -6.64068E+04 -5.89805E+02
 -5.28887E+04 -5.65524E+04 -6.46176E+03 -7.63376E+04  3.36004E+04 -5.43075E+04  4.74562E+04 -1.68087E+04
  4.29025E+04  1.12691E+04  3.17566E+04  2.53626E+04  1.58634E+04  2.93787E+04 -5.37038E+03  2.71301E+04
 -2.20282E+04  1.23745E+04 -1.87221E+04 -4.71648E+03  5.46596E+03 -7.66255E+03  2.18071E+04  1.19797E+04
  7.40261E+03  3.43337E+04 -3.14996E+04  3.49771E+04 -6.28819E+04  2.27099E+03 -5.62394E+04 -4.22286E+04
 -1.22825E+04 -6.25618E+04  3.91623E+04 -4.46019E+04  5.70840E+04 -2.02041E+03  3.35871E+04  3.17851E+04
 -6.21696E+03  3.51585E+04 -2.95668E+04  1.52002E+04 -2.96160E+04 -4.84048E+03 -1.60207E+04 -1.07937E+04
 -8.04350E+03 -1.24947E+04 -7.45612E+02 -1.76784E+04  7.11579E+03 -2.27978E+04  1.51912E+04 -1.34640E+04
  1.18736E+04  4.74084E+03 -7.40175E+03  1.27320E+04 -2.05234E+04 -3.77725E+03 -8.35099E+03 -3.22461E+04
  2.19384E+04 -4.23044E+04  4.68328E+04 -1.93041E+04  4.37634E+04  1.87320E+04  1.50469E+04  4.32612E+04
 -1.56210E+04  3.26116E+04 -2.46753E+04  1.24439E+03 -9.00739E+03 -2.71543E+04  2.06859E+04 -3.29422E+04
  3.96806E+04 -8.36555E+03  3.37555E+04  2.35417E+04  1.67600E+04  4.48989E+04 -8.11357E+03  4.80123E+04
 -3.03210E+04  3.24076E+04 -4.02630E+04  9.30422E+03 -4.09334E+04 -1.57722E+04 -2.24382E+04 -3.66192E+04
  7.51002E+03 -3.63876E+04  3.04087E+04 -1.38628E+04  2.83961E+04  1.06972E+04  3.20205E+03  1.87789E+04
 -1.31680E+04  7.90456E+03 -9.97523E+03 -7.68745E+03  5.75606E+03 -1.05595E+04  1.76679E+04  6.16342E+03
  1.30422E+04  2.16384E+04 -6.27016E+03  2.44010E+04 -2.20421E+04  1.04127E+04 -2.66118E+04 -5.58520E+03
 -1.91476E+04 -1.69039E+04 -7.12219E+03 -1.91058E+04  3.85856E+03 -1.74712E+04  1.42905E+04 -1.66604E+04
  2.40352E+04 -1.23701E+04  3.05413E+04  2.12837E+03  2.29451E+04  1.79279E+04  3.92362E+03  3.46271E+04
 -1.72122E+04  2.86726E+04 -2.70633E+04  9.99389E+03 -2.01728E+04 -1.02099E+04 -4.50514E+03 -1.37805E+04
  2.08561E+03 -3.41411E+03 -4.07400E+03  6.09403E+03 -1.45245E+04  5.17923E+03 -1.48932E+04 -6.11919E+03
 -9.40755E+03 -1.72827E+04  4.98990E+03 -2.13239E+04  1.39783E+04 -1.51683E+04  1.62463E+04 -1.44739E+03
  1.01120E+04  1.18693E+04 -1.16858E+03  1.71973E+04 -1.16967E+04  9.78829E+03 -1.72333E+04 -3.87685E+03
 -1.24911E+04 -1.53348E+04 -1.46948E+03 -2.05782E+04  9.51097E+03 -1.72662E+04  1.74915E+04 -8.44277E+03
  1.61298E+04  5.87124E+02  1.14781E+04  4.01805E+03  5.93146E+03  6.44149E+02  8.67410E+03 -1.51325E+03
  1.51833E+04  2.78347E+03  1.67429E+04  1.43212E+04  1.07921E+04  2.74646E+04 -3.03030E+03  3.00030E+04
 -1.74297E+04  2.35817E+04 -2.76817E+04  1.12753E+04 -2.86447E+04 -2.17797E+03 -2.39873E+04 -1.67944E+04
 -1.08808E+04 -2.34650E+04  8.20434E+03 -2.13313E+04  1.86597E+04 -1.15898E+04  1.70361E+04  4.89594E+03
  6.83253E+03  1.26873E+04 -8.08919E+03  1.18457E+04 -1.45181E+04  2.67841E+03 -1.13975E+04 -8.72930E+03
 -3.76659E+01 -1.33783E+04  6.85851E+03 -1.00799E+04  9.06892E+03 -1.22897E+03  1.75387E+03  5.39496E+03
 -5.94721E+03  1.31304E+03 -4.61248E+03 -4.93841E+03  3.77793E+02 -1.13760E+04  8.50089E+03 -1.17219E+04
  1.38073E+04 -5.71563E+03  1.41202E+04  2.68657E+03  1.24447E+04  1.10121E+04  5.68909E+03  1.62169E+04
 -2.13739E+03  1.82699E+04 -1.16146E+04  1.17135E+04 -1.26920E+04  3.29212E+03 -9.49233E+03 -2.37488E+03
 -4.64410E+03 -3.88377E+03 -8.54926E+02  1.39780E+03 -1.83175E+03  2.42426E+03 -4.20282E+03  3.79079E+03
 -8.91808E+03 -5.13734E+02 -9.42362E+03 -7.91391E+03 -4.00577E+03 -1.24139E+04  3.91890E+03 -9.25116E+03
  7.96142E+03 -4.24322E+03  5.86377E+03  2.38179E+03  5.10389E+02  3.50386E+03 -3.91253E+03 -8.40991E+01
 -3.75770E+03 -6.12614E+03 -6.09523E+02 -8.52010E+03  4.71240E+03 -9.02809E+03  1.10966E+04 -4.51854E+03
  1.30910E+04  8.38052E+02  9.68785E+03  7.14897E+03  2.27211E+03  1.00163E+04 -5.76152E+03  9.27163E+03
 -7.69293E+03  2.98235E+03 -3.96705E+03 -1.42313E+03  1.46340E+03 -2.00710E+03  5.55381E+03 -1.01436E+03
  4.20354E+03  3.73906E+03  1.05826E+03  7.05486E+03 -4.98660E+03  7.05223E+03 -8.74031E+03  1.96099E+03
 -5.41747E+03 -4.25773E+03  7.26415E+02 -7.33800E+03  4.23664E+03 -3.40026E+03  4.46473E+03  1.61388E+03
  5.16550E+02  4.05550E+03 -4.60049E+03  5.25373E+03 -5.89290E+03  2.89143E+03 -5.71033E+03 -1.40136E+03
 -3.26113E+03 -7.12620E+03  1.10422E+03 -8.38543E+03  6.95913E+03 -5.05522E+03  7.78999E+03  1.26670E+03
  5.01728E+03  5.91141E+03 -3.06478E+01  8.31593E+03 -5.81458E+03  4.46749E+03 -6.28272E+03 -6.61784E+02
 -6.29369E+03 -5.66402E+03 -1.51094E+03 -5.70499E+03  2.89864E+03 -5.19574E+03  3.37714E+03 -3.14010E+03
  2.98222E+03  3.36137E+02 -1.36828E+02  1.35564E+03  4.14625E+02 -3.64974E+02  4.65292E+02 -2.28919E+03
  4.66689E+03 -1.13481E+03  6.30528E+03  9.47668E+02  6.58317E+03  3.90354E+03  5.67638E+03  8.46373E+03
 -1.46941E+03  9.81010E+03 -8.64286E+03  7.65128E+03 -1.09465E+04  1.39379E+03 -8.83925E+03 -3.15456E+03
 -4.77034E+03 -7.47870E+03 -3.35402E+02 -5.96784E+03  2.11275E+03 -2.63791E+03  2.03159E+03 -2.49581E+03
  1.52164E+03 -1.39041E+03  2.28824E+03 -2.69342E+03  3.84077E+03 -1.32410E+03  3.76942E+03  2.57816E+02
  5.04711E+03  1.26748E+03  1.53904E+03  4.11759E+03 -1.62032E+03  3.40636E+03 -4.86265E+03  3.09409E+03
 -5.71609E+03 -1.03902E+03 -2.15617E+03 -3.85750E+03  1.58959E+02 -5.95406E+03  3.88979E+03 -6.28823E+03
  6.02756E+03 -3.42254E+03  7.43898E+03  3.04178E+02  5.48700E+03  5.04095E+03  1.16899E+03  6.41516E+03
 -2.33243E+03  6.48436E+03 -3.90710E+03  1.94060E+03 -2.00377E+03 -1.09109E+03 -5.11270E+02 -4.40911E+02
 -5.81883E+02  5.67409E+02 -9.62341E+02  2.18597E+03 -2.63655E+03  1.03834E+03 -4.20734E+03 -3.27656E+02
 -1.70664E+03 -4.49641E+03  8.84398E+02 -5.19721E+03  3.27581E+03 -4.97021E+03  4.51928E+03 -1.26283E+03
  4.72007E+03  2.67485E+03  2.22278E+03  3.77392E+03 -1.10528E+03  5.15404E+03 -2.82252E+03  2.71835E+03
 -4.23172E+03  7.71281E+02 -3.82068E+03 -2.84772E+03 -2.96519E+02 -3.67227E+03  1.91204E+03 -2.88331E+03
  3.11956E+03 -1.67496E+03  1.78664E+03  5.71715E+02  4.62584E+02  1.96119E+03  1.01511E+03  3.76088E+02
  1.86252E+03  5.33976E+02  1.26131E+03  1.19049E+03  1.20821E+03  2.17607E+03  1.51348E+03  1.93097E+03
 -1.48141E+03  3.23931E+03 -2.54814E+03  4.48435E+03 -3.55367E+03  1.51240E+03 -4.66983E+03 -6.01123E+02
 -2.13091E+03 -4.10159E+03  5.23234E+02 -4.99156E+03  2.34881E+03 -3.10647E+03  3.63152E+03 -9.72295E+02
  2.81983E+03  1.92029E+03  1.80963E+02  2.66480E+03 -1.02187E+03  1.35605E+03 -1.20509E+03 -9.02754E+00
 -7.00220E+02 -1.53074E+03  1.26614E+03 -1.52307E+03  1.64355E+03 -1.08372E+03  1.46637E+03  1.21673E+02
  1.01881E+03  1.57166E+02  5.80378E+02 -3.37641E+02 -2.45085E+02  5.82009E+02  1.56190E+03 -1.26846E+02
  6.73453E+01 -6.18871E+02  1.82682E+03  7.83879E+02  4.44812E+02  2.39124E+03 -4.50811E+02  3.01600E+03
 -1.64135E+03  1.39959E+03 -2.34085E+03  3.01402E+02 -2.37065E+03 -9.81729E+02 -3.98693E+02 -8.92652E+02
  5.54991E+02 -1.50282E+03  9.80541E+02 -9.46008E+02  7.15751E+02  1.31325E+03 -9.41244E+02  1.54549E+03
 -1.47980E+03  7.74433E+02 -1.08824E+03 -1.38045E+03 -8.51878E+02 -2.10301E+03  1.32748E+02 -1.77411E+03
  6.48001E+02 -6.68464E+02  1.04200E+03  2.03969E+02  1.40792E+03 -1.07780E+02  9.22037E+01  1.54795E+03
 -5.13173E+02  1.48695E+02 -1.04790E+03 -3.84788E+02  4.72718E+02 -1.05108E+03  1.79087E+03 -1.02096E+03
  1.35511E+03 -7.36569E+01  2.94104E+03  9.26352E+02  1.02421E+03  1.88243E+03 -1.79648E+02  2.12665E+03
 -1.47063E+03  1.51632E+02 -1.70901E+03 -5.82393E+02 -8.95346E+02 -1.61215E+03  3.64945E+02 -8.04955E+02
  1.45060E+03 -8.57992E+02  6.55556E+02  5.52891E+02  2.26953E+02  1.31215E+03  3.71799E+02  1.34203E+03
 -4.60501E+02  1.22364E+03 -6.04896E+02 -1.06224E+02  5.47868E+01  3.47719E+02 -6.84974E+02  6.49354E+02
 -2.90945E+02  1.07998E+03 -1.81661E+03  5.69529E+02 -1.85646E+03  1.93369E+02 -2.71039E+03 -9.17705E+02
 -1.27414E+03 -2.44411E+03  9.28944E+02 -2.88757E+03  1.32735E+03 -2.57079E+03  2.95830E+03 -1.01983E+03
  2.52768E+03  2.88014E+00  1.14879E+03  1.67931E+03 -7.35473E+02  1.39463E+03 -9.83541E+02  1.53240E+03
 -8.96056E+02  6.46836E+02 -5.44004E+02  3.72824E+01 -5.93998E+02  3.05094E+02 -4.80532E+02  2.33095E+01
 -1.30415E+03  4.36649E+01 -8.41904E+02  1.73532E+02  1.87033E+02 -5.36609E+02 -3.19177E+02 -1.09132E+03
  1.36955E+03 -6.79072E+02  4.11928E+02  5.70882E+01  1.27894E+03  9.66399E+02 -6.74896E+02  1.32190E+03
 -9.47617E+02  2.22334E+03 -1.53765E+03  1.19926E+03 -1.80152E+03 -1.33569E+02 -1.07486E+03 -1.39417E+03
 -5.35317E+02 -1.25665E+03  3.57794E+02 -1.32351E+03  9.13592E+02 -6.71106E+02  6.53170E+02  1.45964E+02
  8.83473E+02  2.10294E+02  2.41143E+02  5.40736E+02 -6.54849E+02 -2.44734E+02  7.95997E+01 -3.44233E+02
  3.84244E+02  1.59074E+02  4.95408E+02  4.04576E+02  6.65906E+01  3.77998E+02  3.97053E+02  3.43379E+02
 -6.77604E+02  6.13574E+02 -4.03029E+02  2.01686E+02 -8.16729E+02 -2.52794E+02  3.21930E+02 -1.09803E+03
  2.79251E+02 -5.84656E+02  6.30145E+02  2.47526E+02  9.56996E+02 -5.92655E+02  4.57800E+02  6.11525E+02
  5.17847E+02  7.86233E+02 -1.11509E+02  3.77000E+02 -6.00363E+02  5.00829E+02 -5.90467E+02  2.22548E+02
 -3.55732E+01 -2.30329E+02 -8.47659E+02  7.37909E+01 -5.80317E+02 -2.96435E+02 -6.07777E+02 -5.91010E+02
 -1.06460E+03  4.80844E+02 -5.17216E+02 -8.89376E+02  7.21590E+02 -1.66825E+03  3.55171E+02 -3.76520E+02
  7.44289E+02 -9.12022E+01 -3.50942E+02  3.13582E+02 -2.32841E+02  1.03799E+03 -5.42331E+02  7.59400E+02
