 $NMID ID='MM_0lb_SNR800_11hz_g60_46.RAW', FMTDAT='(8E13.5)'
 TRAMP=1., VOLUME=1. $END
  3.09876E+05  4.58660E+02  3.37954E+05  2.50869E+05  8.50017E+04  3.38417E+05 -1.32665E+05  2.51808E+05
 -1.90770E+05  8.39891E+04 -1.12981E+05 -3.23935E+04  2.87239E+02 -5.07969E+04  5.38509E+04 -7.28420E+02
  3.57560E+04  5.27273E+04 -1.63182E+04  7.62315E+04 -6.12308E+04  6.44953E+04 -8.52429E+04  3.23658E+04
 -8.22663E+04 -1.14878E+04 -5.80482E+04 -5.22117E+04 -1.53572E+04 -7.06665E+04  2.80476E+04 -4.64275E+04
  4.06824E+04  3.46190E+03  1.65860E+04  4.87246E+04 -3.50910E+04  4.82834E+04 -6.79116E+04  8.99562E+01
 -5.48283E+04 -5.77328E+04 -7.42575E+03 -7.89027E+04  3.43210E+04 -5.68507E+04  4.99260E+04 -1.81127E+04
  4.49838E+04  1.15467E+04  3.27071E+04  2.66679E+04  1.59662E+04  3.03208E+04 -6.03883E+03  2.75917E+04
 -2.23559E+04  1.21556E+04 -1.80917E+04 -5.58907E+03  6.82498E+03 -7.61208E+03  2.32755E+04  1.35302E+04
  7.30082E+03  3.69138E+04 -3.36463E+04  3.71212E+04 -6.57218E+04  2.01279E+03 -5.86913E+04 -4.42551E+04
 -1.24666E+04 -6.52982E+04  4.13761E+04 -4.74675E+04  6.08606E+04 -2.38099E+03  3.65616E+04  3.43547E+04
 -5.61869E+03  3.92300E+04 -3.15361E+04  1.83312E+04 -3.30596E+04 -3.64609E+03 -1.88595E+04 -1.18486E+04
 -9.43869E+03 -1.48358E+04 -2.90555E+02 -1.95176E+04  8.77411E+03 -2.35216E+04  1.56704E+04 -1.28831E+04
  1.06274E+04  5.89195E+03 -9.78903E+03  1.26684E+04 -2.31498E+04 -5.85112E+03 -8.25054E+03 -3.70348E+04
  2.48866E+04 -4.67279E+04  5.14358E+04 -2.04411E+04  4.85113E+04  2.06667E+04  1.74557E+04  4.68053E+04
 -1.63320E+04  3.57706E+04 -2.70448E+04  3.01695E+03 -1.14253E+04 -2.91135E+04  2.18899E+04 -3.60316E+04
  4.40648E+04 -1.06344E+04  3.95599E+04  2.46887E+04  2.09346E+04  5.08297E+04 -8.60938E+03  5.52070E+04
 -3.48196E+04  3.79922E+04 -4.67980E+04  1.05383E+04 -4.72395E+04 -1.81438E+04 -2.58681E+04 -4.13342E+04
  7.89321E+03 -4.13178E+04  3.42123E+04 -1.70018E+04  3.15377E+04  1.13993E+04  5.27280E+03  2.04419E+04
 -1.37800E+04  9.75670E+03 -1.11239E+04 -7.52002E+03  5.73158E+03 -1.12276E+04  1.88216E+04  5.72670E+03
  1.47560E+04  2.27575E+04 -5.29511E+03  2.67723E+04 -2.36150E+04  1.39854E+04 -3.12345E+04 -3.59763E+03
 -2.47661E+04 -1.84221E+04 -1.13593E+04 -2.44268E+04  4.23590E+03 -2.45504E+04  1.90169E+04 -2.20973E+04
  3.11480E+04 -1.45814E+04  3.70235E+04  4.65637E+03  2.68349E+04  2.36930E+04  4.32070E+03  4.02335E+04
 -1.94632E+04  3.32451E+04 -3.03392E+04  1.14328E+04 -2.21451E+04 -1.00319E+04 -4.89145E+03 -1.29139E+04
  1.00045E+03 -1.64129E+03 -6.90718E+03  8.18649E+03 -1.95813E+04  4.92777E+03 -1.94968E+04 -9.28611E+03
 -1.15062E+04 -2.26779E+04  5.67206E+03 -2.69909E+04  1.81428E+04 -1.97940E+04  2.17619E+04 -1.40161E+03
  1.43204E+04  1.52631E+04 -1.34644E+03  2.25509E+04 -1.59672E+04  1.28547E+04 -2.28519E+04 -4.81843E+03
 -1.64425E+04 -2.00861E+04 -2.12265E+03 -2.69075E+04  1.23850E+04 -2.26683E+04  2.26614E+04 -1.18030E+04
  2.13960E+04 -1.51165E+02  1.56102E+04  5.01083E+03  8.60304E+03  1.37765E+03  1.18344E+04 -2.29690E+03
  2.10121E+04  3.05641E+03  2.45106E+04  1.75861E+04  1.67901E+04  3.65730E+04 -2.67363E+03  4.24289E+04
 -2.44873E+04  3.49413E+04 -3.95936E+04  1.80836E+04 -4.26138E+04 -3.08544E+03 -3.46038E+04 -2.49546E+04
 -1.38578E+04 -3.51738E+04  1.28922E+04 -3.12707E+04  2.67686E+04 -1.51416E+04  2.31568E+04  7.55774E+03
  7.87036E+03  1.78984E+04 -1.13503E+04  1.50812E+04 -1.97650E+04  2.51488E+03 -1.47379E+04 -1.24556E+04
 -1.36470E+02 -1.83153E+04  1.02655E+04 -1.40522E+04  1.25349E+04 -1.57306E+03  3.22569E+03  8.59332E+03
 -8.07259E+03  3.75591E+03 -8.37496E+03 -6.34715E+03 -1.28171E+03 -1.70632E+04  1.13120E+04 -1.88131E+04
  2.16853E+04 -1.05688E+04  2.45624E+04  3.16301E+03  2.14712E+04  1.72317E+04  1.00844E+04  2.73722E+04
 -5.29837E+03  2.92658E+04 -1.90456E+04  1.83897E+04 -2.15163E+04  4.12210E+03 -1.45866E+04 -5.39884E+03
 -6.06267E+03 -6.92225E+03 -9.12591E+02  8.30418E+01 -2.93526E+03  3.25779E+03 -7.19780E+03  5.31141E+03
 -1.35491E+04 -8.45629E+02 -1.41391E+04 -1.12808E+04 -5.53405E+03 -1.83517E+04  6.27974E+03 -1.45084E+04
  1.25622E+04 -5.79135E+03  8.52729E+03  4.40324E+03 -3.10187E+02  5.85697E+03 -7.22782E+03  6.62850E+01
 -6.61397E+03 -9.29808E+03 -1.08999E+03 -1.43441E+04  8.34107E+03 -1.51562E+04  1.83827E+04 -8.29851E+03
  2.20268E+04  2.10962E+03  1.57882E+04  1.33833E+04  3.03008E+03  1.76135E+04 -9.03283E+03  1.45204E+04
 -1.18697E+04  4.07747E+03 -6.10985E+03 -3.40886E+03  2.01192E+03 -4.15547E+03  7.63984E+03 -9.74473E+02
  6.54791E+03  6.50844E+03  1.21096E+03  1.19058E+04 -8.35297E+03  1.14934E+04 -1.43842E+04  2.66294E+03
 -1.00027E+04 -7.66626E+03 -3.80561E+01 -1.27532E+04  8.15615E+03 -6.60780E+03  8.37382E+03  2.72869E+03
  2.08843E+03  9.24990E+03 -7.60324E+03  1.03335E+04 -1.22393E+04  4.72536E+03 -1.23899E+04 -4.48190E+03
 -7.26985E+03 -1.44920E+04  3.73107E+03 -1.66710E+04  1.38045E+04 -9.84904E+03  1.50864E+04  2.56304E+03
  9.39498E+03  1.18754E+04 -1.07869E+03  1.45982E+04 -1.03688E+04  8.18554E+03 -1.15990E+04 -9.02109E+02
 -9.85661E+03 -9.49570E+03 -1.98378E+03 -1.11921E+04  6.03355E+03 -8.82666E+03  7.28460E+03 -3.63813E+03
  4.50147E+03  1.99548E+03 -3.77977E+02  2.16040E+03 -6.99016E+02 -3.03065E+03  2.03356E+03 -6.27681E+03
  9.80517E+03 -4.30448E+03  1.45561E+04  1.80397E+03  1.37754E+04  9.49949E+03  9.27138E+03  1.86223E+04
 -4.47757E+03  2.14064E+04 -1.75680E+04  1.56978E+04 -2.32499E+04  3.29556E+03 -1.87248E+04 -7.84964E+03
 -9.13315E+03 -1.53056E+04 -2.99290E+02 -1.28937E+04  4.71763E+03 -7.12543E+03  4.56654E+03 -4.78808E+03
  3.38437E+03 -2.51084E+03  3.70171E+03 -3.66343E+03  5.36298E+03 -3.09553E+03  7.24993E+03 -1.24351E+03
  9.53558E+03  2.33427E+03  4.79624E+03  8.52142E+03 -1.75601E+03  9.87931E+03 -9.80571E+03  7.77201E+03
 -1.25261E+04 -1.45867E+03 -7.97445E+03 -8.79894E+03 -9.40449E+02 -1.38336E+04  7.42259E+03 -1.36512E+04
  1.43759E+04 -7.91020E+03  1.72960E+04  2.27106E+03  1.16695E+04  1.18720E+04  1.69533E+03  1.55656E+04
 -6.41611E+03  1.24312E+04 -9.29399E+03  4.33578E+03 -6.09567E+03 -1.86182E+03 -2.43751E+03 -1.53418E+03
 -1.20523E+03 -1.59861E+02 -2.13567E+03  2.75303E+03 -5.57756E+03  2.20106E+03 -9.17157E+03 -1.43472E+03
 -6.32914E+03 -9.02538E+03  1.18285E+02 -1.27785E+04  7.46187E+03 -1.17495E+04  1.24926E+04 -3.58269E+03
  1.27672E+04  6.33685E+03  5.90045E+03  1.11987E+04 -2.58874E+03  1.30899E+04 -8.88484E+03  7.77061E+03
 -1.23178E+04  9.15931E+02 -8.94710E+03 -7.87170E+03 -9.81014E+02 -1.02601E+04  5.29364E+03 -7.74148E+03
  7.96268E+03 -2.76972E+03  5.22860E+03  1.97102E+03  1.67381E+03  3.85511E+03  1.23867E+03  1.69603E+03
  2.33259E+03  1.32517E+03  3.17324E+03  2.12800E+03  3.92452E+03  4.75223E+03  3.22258E+03  6.78299E+03
 -2.70725E+03  1.00732E+04 -8.44524E+03  9.82290E+03 -1.25775E+04  2.55159E+03 -1.35782E+04 -4.96725E+03
 -6.14974E+03 -1.24923E+04  2.08271E+03 -1.42846E+04  7.73890E+03 -8.83057E+03  9.75835E+03 -2.06918E+03
  8.12756E+03  4.85502E+03  1.69634E+03  7.08182E+03 -3.36373E+03  4.70683E+03 -4.87057E+03 -1.01406E+03
 -2.38147E+03 -5.30382E+03  2.88535E+03 -5.66846E+03  5.11636E+03 -2.79606E+03  5.04873E+03  1.20093E+03
  2.94861E+03  2.25897E+03  1.25192E+03  1.92690E+03 -9.28599E+02  1.85709E+03  1.44730E+03 -7.13670E+02
  1.97159E+03 -4.02098E+02  5.21974E+03  1.84657E+03  2.55950E+03  6.72843E+03 -1.37362E+03  9.13191E+03
 -5.97115E+03  5.29515E+03 -7.76423E+03  1.39591E+03 -6.90955E+03 -2.86552E+03 -2.48967E+03 -4.83742E+03
  1.09531E+03 -4.64135E+03  3.03393E+03 -2.23070E+03  2.67699E+03  2.64666E+03 -1.63745E+03  4.01174E+03
 -5.59466E+03  2.50333E+03 -5.69637E+03 -3.08787E+03 -3.06009E+03 -6.70370E+03  9.52476E+02 -6.83686E+03
  3.73359E+03 -4.07291E+03  4.82144E+03 -8.76524E+02  3.87998E+03  1.96243E+03  6.39504E+02  3.41442E+03
 -2.14199E+03  9.79280E+02 -3.52637E+03 -2.12097E+03  1.32852E+03 -4.88937E+03  5.95389E+03 -4.36013E+03
  7.53621E+03  6.78880E+02  7.88353E+03  5.20842E+03  2.54165E+03  7.53092E+03 -3.14282E+03  7.36253E+03
 -6.35684E+03  2.98608E+03 -6.81164E+03 -1.14836E+03 -3.78100E+03 -5.09105E+03  1.10180E+03 -4.94565E+03
  4.63398E+03 -2.35351E+03  3.92167E+03  2.11417E+03  1.28533E+03  4.18615E+03 -1.91980E+02  4.15370E+03
 -2.05595E+03  2.58423E+03 -1.57273E+03  8.45561E+02 -6.57749E+02  5.13364E+02 -1.09444E+03  1.94761E+03
 -1.87475E+03  2.80984E+03 -4.85510E+03  2.81380E+03 -7.83824E+03  2.75426E+01 -8.77705E+03 -4.94715E+03
 -4.53934E+03 -1.06611E+04  1.82341E+03 -1.19994E+04  7.19696E+03 -9.24602E+03  1.11850E+04 -3.33738E+03
  1.04258E+04  1.96822E+03  6.34949E+03  6.80620E+03  4.23470E+02  8.34216E+03 -2.86102E+03  5.81485E+03
 -4.59577E+03  2.08208E+03 -2.95883E+03 -9.42299E+02 -9.49747E+02 -5.31594E+02 -6.71237E+02 -1.50370E+02
 -1.77721E+03  3.25229E+02 -1.95823E+03 -2.74690E+01 -1.91049E+02 -1.74488E+03  2.08890E+02 -2.92685E+03
  3.83273E+03 -2.19449E+03  4.65677E+03 -1.68763E+02  5.58179E+03  4.10848E+03  1.42913E+03  7.72526E+03
 -3.41034E+03  8.87525E+03 -7.99592E+03  4.95059E+03 -9.31426E+03 -6.13154E+02 -6.87838E+03 -5.86266E+03
 -2.93885E+03 -7.60018E+03  2.23357E+03 -7.13784E+03  4.95044E+03 -3.58637E+03  5.01225E+03  2.09037E+02
  2.80219E+03  2.18908E+03 -8.61046E+01  2.16433E+03 -1.76695E+03 -4.27298E+02  1.47358E+02 -1.44187E+03
  2.27929E+03 -1.01050E+03  3.23687E+03  1.28756E+03  2.12303E+03  2.99316E+03  4.71168E+02  3.99028E+03
 -3.66098E+03  3.49133E+03 -4.83821E+03  4.77057E+02 -4.55040E+03 -3.77057E+03 -9.11500E+02 -6.57139E+03
  3.23225E+03 -5.43001E+03  5.61725E+03 -1.85898E+03  5.51109E+03  7.31256E+02  3.57827E+03  4.47480E+03
  9.92995E+02  4.88493E+03 -1.77468E+03  4.21084E+03 -2.80801E+03  2.18197E+03 -2.78414E+03  4.55709E+02
 -1.28852E+03  2.31280E+02 -1.57041E+03  4.49628E+02 -2.78825E+03  1.00231E+03 -3.70337E+03 -9.57836E+02
 -3.61605E+03 -2.56637E+03 -1.43468E+03 -5.18183E+03  2.33962E+03 -5.53789E+03  4.19872E+03 -2.66190E+03
  4.91260E+03  1.05661E+03  2.73089E+03  3.12399E+03 -3.17065E+02  5.01111E+03 -3.53097E+03  2.89661E+03
