 $NMID ID='MM_0lb_SNR800_12hz_g60_39.RAW', FMTDAT='(8E13.5)'
 TRAMP=1., VOLUME=1. $END
  3.09736E+05  6.63667E+02  3.37939E+05  2.50920E+05  8.50794E+04  3.38183E+05 -1.32301E+05  2.52003E+05
 -1.90569E+05  8.37263E+04 -1.12304E+05 -3.23755E+04  6.17718E+02 -5.04289E+04  5.37460E+04 -4.14491E+02
  3.54428E+04  5.27805E+04 -1.67982E+04  7.63348E+04 -6.14411E+04  6.42796E+04 -8.48791E+04  3.24127E+04
 -8.21816E+04 -1.17625E+04 -5.76715E+04 -5.21310E+04 -1.52855E+04 -7.10649E+04  2.78797E+04 -4.63057E+04
  4.09149E+04  3.76164E+03  1.63891E+04  4.85380E+04 -3.45657E+04  4.76202E+04 -6.77132E+04  1.90625E+01
 -5.42345E+04 -5.73096E+04 -7.13783E+03 -7.86819E+04  3.48219E+04 -5.64447E+04  4.92828E+04 -1.80072E+04
  4.44473E+04  1.15291E+04  3.26978E+04  2.62799E+04  1.62575E+04  3.00530E+04 -5.83036E+03  2.73597E+04
 -2.25207E+04  1.21650E+04 -1.79977E+04 -5.37243E+03  6.95691E+03 -7.09838E+03  2.30905E+04  1.35466E+04
  7.01666E+03  3.68257E+04 -3.35994E+04  3.70449E+04 -6.53342E+04  2.34400E+03 -5.82260E+04 -4.38433E+04
 -1.27589E+04 -6.54997E+04  4.10641E+04 -4.67164E+04  6.02161E+04 -2.48048E+03  3.59861E+04  3.36673E+04
 -5.79324E+03  3.85787E+04 -3.13763E+04  1.78660E+04 -3.22944E+04 -3.42747E+03 -1.86125E+04 -1.16374E+04
 -9.42295E+03 -1.45711E+04 -6.77382E+02 -1.92471E+04  8.09661E+03 -2.33032E+04  1.58121E+04 -1.28068E+04
  1.06430E+04  5.97021E+03 -1.00925E+04  1.28766E+04 -2.29124E+04 -6.47916E+03 -8.50569E+03 -3.64415E+04
  2.43494E+04 -4.60757E+04  5.10573E+04 -2.02631E+04  4.76683E+04  2.02573E+04  1.66776E+04  4.60702E+04
 -1.65082E+04  3.55677E+04 -2.69504E+04  2.10987E+03 -1.09168E+04 -2.87444E+04  2.12988E+04 -3.61770E+04
  4.35189E+04 -1.03952E+04  3.91433E+04  2.47066E+04  2.03509E+04  4.96084E+04 -7.85944E+03  5.41227E+04
 -3.39067E+04  3.72821E+04 -4.57749E+04  1.05666E+04 -4.60725E+04 -1.79841E+04 -2.53474E+04 -4.06464E+04
  7.65729E+03 -4.04349E+04  3.32324E+04 -1.61373E+04  3.10206E+04  1.13163E+04  4.80098E+03  2.02363E+04
 -1.35785E+04  9.41558E+03 -1.05910E+04 -7.89871E+03  5.67461E+03 -1.10910E+04  1.83042E+04  5.68426E+03
  1.43822E+04  2.21686E+04 -5.81042E+03  2.67342E+04 -2.29143E+04  1.33991E+04 -3.04141E+04 -3.64433E+03
 -2.36531E+04 -1.83783E+04 -1.02318E+04 -2.32340E+04  4.29159E+03 -2.35014E+04  1.85810E+04 -2.15276E+04
  3.00575E+04 -1.36487E+04  3.65303E+04  4.10799E+03  2.57693E+04  2.31284E+04  4.18443E+03  3.94336E+04
 -1.89837E+04  3.28221E+04 -2.96659E+04  1.14123E+04 -2.20750E+04 -1.03840E+04 -4.94824E+03 -1.28508E+04
  1.26356E+03 -1.49637E+03 -7.05975E+03  7.86420E+03 -1.90265E+04  5.20306E+03 -1.90779E+04 -8.81644E+03
 -1.12380E+04 -2.16766E+04  5.52240E+03 -2.65081E+04  1.77111E+04 -1.89409E+04  2.12550E+04 -1.45788E+03
  1.32979E+04  1.50864E+04 -1.36778E+03  2.15925E+04 -1.54780E+04  1.25318E+04 -2.19267E+04 -4.78014E+03
 -1.59916E+04 -1.95772E+04 -1.83786E+03 -2.62532E+04  1.13444E+04 -2.17857E+04  2.18085E+04 -1.12267E+04
  2.06891E+04 -7.98541E+00  1.48061E+04  5.09224E+03  8.04190E+03  9.92860E+02  1.12516E+04 -1.73952E+03
  2.02791E+04  2.75502E+03  2.34326E+04  1.71701E+04  1.55244E+04  3.48550E+04 -2.87551E+03  4.03539E+04
 -2.34198E+04  3.33708E+04 -3.82231E+04  1.70543E+04 -4.04200E+04 -2.92706E+03 -3.30838E+04 -2.36790E+04
 -1.33384E+04 -3.36554E+04  1.21972E+04 -2.97266E+04  2.55982E+04 -1.40425E+04  2.19989E+04  7.20560E+03
  7.85518E+03  1.69398E+04 -1.06825E+04  1.46371E+04 -1.82818E+04  2.39804E+03 -1.39071E+04 -1.20361E+04
 -4.05490E+02 -1.76400E+04  9.64591E+03 -1.31381E+04  1.19532E+04 -1.23968E+03  2.94134E+03  8.19047E+03
 -8.15333E+03  3.81111E+03 -7.54168E+03 -6.39680E+03 -1.33681E+03 -1.59446E+04  1.12768E+04 -1.73070E+04
  2.06442E+04 -9.31880E+03  2.28972E+04  3.25624E+03  1.98598E+04  1.63631E+04  8.97969E+03  2.53232E+04
 -4.72448E+03  2.75721E+04 -1.78188E+04  1.66337E+04 -1.96029E+04  4.07198E+03 -1.34506E+04 -5.25345E+03
 -6.30841E+03 -6.27261E+03 -4.25554E+02  6.01596E+02 -2.67994E+03  3.04911E+03 -6.47172E+03  5.23413E+03
 -1.27795E+04 -6.53821E+02 -1.37392E+04 -1.06914E+04 -5.50231E+03 -1.75542E+04  5.22905E+03 -1.37399E+04
  1.14442E+04 -5.83589E+03  8.14144E+03  3.68825E+03 -2.71946E+01  5.79218E+03 -6.67862E+03 -2.04293E+02
 -6.07308E+03 -8.84733E+03 -8.82360E+02 -1.31713E+04  7.87610E+03 -1.38815E+04  1.72527E+04 -7.71710E+03
  2.04560E+04  1.84692E+03  1.49065E+04  1.22437E+04  2.96154E+03  1.62914E+04 -8.34117E+03  1.34645E+04
 -1.13196E+04  4.24256E+03 -6.03196E+03 -3.15794E+03  1.48125E+03 -3.82792E+03  7.43919E+03 -1.14225E+03
  6.57324E+03  6.05366E+03  8.56010E+02  1.09752E+04 -7.69239E+03  1.06600E+04 -1.33227E+04  2.53110E+03
 -9.56431E+03 -6.99158E+03  2.23358E+02 -1.11528E+04  7.27131E+03 -5.80200E+03  7.86013E+03  2.60344E+03
  1.37707E+03  8.04887E+03 -7.10949E+03  9.68507E+03 -1.12596E+04  4.35873E+03 -1.10525E+04 -4.04645E+03
 -6.48536E+03 -1.29307E+04  3.02314E+03 -1.49079E+04  1.27097E+04 -9.19137E+03  1.41020E+04  1.96909E+03
  8.18186E+03  1.10058E+04 -1.15096E+03  1.31927E+04 -1.00617E+04  7.15295E+03 -1.04169E+04 -9.27155E+02
 -9.32865E+03 -8.95170E+03 -1.73796E+03 -9.98811E+03  5.24138E+03 -8.21420E+03  6.29696E+03 -3.47351E+03
  3.98252E+03  1.43320E+03 -5.57711E+02  1.52940E+03 -2.51563E+02 -2.55037E+03  1.85520E+03 -6.05490E+03
  9.57991E+03 -4.05344E+03  1.31233E+04  1.57109E+03  1.25701E+04  8.40172E+03  8.73366E+03  1.68701E+04
 -3.97572E+03  1.96352E+04 -1.61837E+04  1.45807E+04 -2.10482E+04  2.61406E+03 -1.71278E+04 -7.00211E+03
 -8.35848E+03 -1.36082E+04 -1.19557E+02 -1.19362E+04  4.10062E+03 -6.63032E+03  4.15654E+03 -4.24656E+03
  2.63214E+03 -2.42258E+03  3.50386E+03 -3.55612E+03  5.57116E+03 -3.19803E+03  6.78942E+03 -6.99163E+02
  8.71357E+03  1.81803E+03  4.46926E+03  7.57434E+03 -2.16630E+03  8.75150E+03 -9.11411E+03  6.95290E+03
 -1.17845E+04 -1.29778E+03 -6.86519E+03 -8.04640E+03 -1.14476E+03 -1.23453E+04  6.57776E+03 -1.25144E+04
  1.28952E+04 -7.16794E+03  1.52927E+04  1.58911E+03  1.07809E+04  1.06599E+04  1.92753E+03  1.39866E+04
 -5.80940E+03  1.18839E+04 -8.26216E+03  3.86831E+03 -5.77335E+03 -1.45537E+03 -1.84358E+03 -1.45535E+03
 -1.09814E+03  1.01614E+02 -1.56176E+03  2.25059E+03 -4.73611E+03  2.21970E+03 -7.94717E+03 -9.69800E+02
 -5.51951E+03 -8.03629E+03  1.57442E+02 -1.12539E+04  6.98387E+03 -1.08025E+04  1.08357E+04 -3.25089E+03
  1.07673E+04  5.69976E+03  4.97485E+03  9.30446E+03 -2.27949E+03  1.14076E+04 -8.03749E+03  7.03899E+03
 -1.02718E+04  2.52079E+02 -8.70470E+03 -6.63710E+03 -5.97787E+02 -9.19383E+03  4.31000E+03 -6.91088E+03
  7.08306E+03 -2.32725E+03  4.95190E+03  1.43039E+03  1.87320E+03  3.39785E+03  1.25160E+03  1.42680E+03
  2.43703E+03  8.90304E+02  2.38545E+03  1.86568E+03  3.29417E+03  4.17659E+03  2.88457E+03  5.82393E+03
 -2.13414E+03  8.44148E+03 -7.54803E+03  8.71229E+03 -1.11602E+04  2.25399E+03 -1.13758E+04 -4.12858E+03
 -5.32715E+03 -1.13045E+04  1.76478E+03 -1.22447E+04  6.48616E+03 -7.52138E+03  8.93226E+03 -2.02400E+03
  7.14917E+03  4.24743E+03  1.36101E+03  6.04566E+03 -3.04341E+03  4.08335E+03 -4.51511E+03 -7.58097E+02
 -1.92797E+03 -4.71821E+03  2.65834E+03 -4.67510E+03  4.70271E+03 -2.53546E+03  4.45846E+03  1.33292E+03
  2.25811E+03  2.07481E+03  1.40064E+03  1.48062E+03 -5.68224E+02  1.24048E+03  1.63801E+03 -2.97556E+02
  1.46437E+03 -5.52163E+02  4.57051E+03  1.93520E+03  2.24216E+03  5.81328E+03 -6.55836E+02  7.45567E+03
 -5.12230E+03  4.58067E+03 -6.59949E+03  1.10148E+03 -6.31245E+03 -2.54131E+03 -2.05686E+03 -4.25245E+03
  5.66737E+02 -4.19370E+03  3.24612E+03 -2.15008E+03  1.82098E+03  2.45921E+03 -1.29265E+03  3.45948E+03
 -4.20331E+03  1.91833E+03 -5.01186E+03 -2.52347E+03 -2.72738E+03 -5.78948E+03  8.61964E+02 -5.81872E+03
  3.25646E+03 -2.89170E+03  3.80504E+03 -4.85782E+02  3.45871E+03  1.31499E+03  6.76731E+02  2.96367E+03
 -2.20712E+03  6.94459E+02 -2.66457E+03 -2.14327E+03  1.01386E+03 -4.10393E+03  5.19837E+03 -3.29556E+03
  6.08885E+03  6.81501E+02  6.75882E+03  4.21985E+03  2.48212E+03  6.75132E+03 -1.91077E+03  6.56087E+03
 -5.56837E+03  2.59547E+03 -5.75562E+03 -1.01373E+03 -3.07349E+03 -4.38001E+03  9.59734E+02 -3.61863E+03
  4.06466E+03 -2.15216E+03  3.38610E+03  1.66401E+03  1.40655E+03  4.10825E+03 -4.47770E+02  3.39607E+03
 -1.90334E+03  2.25048E+03 -1.62981E+03  9.66822E+02 -7.21404E+02  8.71260E+02 -1.50681E+03  1.62113E+03
 -1.81341E+03  2.87668E+03 -4.46123E+03  2.31469E+03 -6.58543E+03  2.95040E+02 -7.19220E+03 -4.39328E+03
 -3.60491E+03 -8.68556E+03  1.70487E+03 -9.64654E+03  6.20648E+03 -7.74981E+03  9.54972E+03 -3.03125E+03
  8.21616E+03  1.59283E+03  5.25426E+03  5.66606E+03  3.54286E+02  6.38902E+03 -2.97898E+03  4.96162E+03
 -3.51141E+03  1.76205E+03 -2.19001E+03 -7.30144E+02 -7.93199E+02 -3.45073E+02 -6.03217E+02 -1.60668E+02
 -1.31876E+03  2.09662E+02 -1.67131E+03 -3.30730E+02 -5.47680E+02 -1.79530E+03  3.48159E+02 -2.56088E+03
  3.10627E+03 -1.79191E+03  3.78159E+03  2.90455E+02  4.16407E+03  3.78099E+03  9.42414E+02  6.31973E+03
 -3.09494E+03  7.87078E+03 -6.89779E+03  4.36911E+03 -7.87007E+03 -6.80149E+02 -6.01756E+03 -4.89572E+03
 -2.57705E+03 -6.58902E+03  1.53404E+03 -5.69865E+03  4.00717E+03 -3.36047E+03  3.80970E+03  3.77036E+02
  2.26487E+03  1.68869E+03  1.62835E+02  1.60657E+03 -1.62070E+03 -1.36658E+02  1.18213E+02 -1.29675E+03
  1.81447E+03 -6.35553E+02  2.04031E+03  8.87512E+02  1.41434E+03  2.38581E+03  3.63944E+01  2.65320E+03
 -2.91854E+03  2.72497E+03 -3.98779E+03  2.31083E+02 -3.53182E+03 -3.04446E+03 -2.71079E+02 -4.87713E+03
  2.75991E+03 -4.36190E+03  4.19600E+03 -1.42310E+03  4.31907E+03  8.52043E+02  2.54652E+03  3.50303E+03
  7.38880E+02  3.57443E+03 -1.29066E+03  3.01654E+03 -2.24121E+03  1.94514E+03 -2.54185E+03  4.64126E+02
 -1.07080E+03 -4.18066E+02 -1.37541E+03  8.12450E+02 -2.01884E+03  5.00746E+02 -3.37311E+03 -6.18334E+02
 -3.43270E+03 -1.67937E+03 -1.10519E+03 -3.96181E+03  1.92690E+03 -4.50030E+03  3.08724E+03 -2.37197E+03
  3.81316E+03  4.52203E+02  1.64188E+03  2.52305E+03 -2.74323E+02  3.85055E+03 -2.88256E+03  2.76746E+03
