 $NMID ID='MM_0lb_SNR800_17hz_g45_79.RAW', FMTDAT='(8E13.5)'
 TRAMP=1., VOLUME=1. $END
  3.09673E+05  9.97656E+01  3.37363E+05  2.50251E+05  8.42530E+04  3.37386E+05 -1.32345E+05  2.50730E+05
 -1.89596E+05  8.28825E+04 -1.11194E+05 -3.29232E+04  1.05148E+03 -5.02037E+04  5.40756E+04  2.69537E+02
  3.51226E+04  5.28684E+04 -1.69900E+04  7.49076E+04 -6.01046E+04  6.31583E+04 -8.33105E+04  3.15613E+04
 -7.98426E+04 -1.09255E+04 -5.66585E+04 -5.04457E+04 -1.49482E+04 -6.85146E+04  2.66621E+04 -4.49712E+04
  3.94166E+04  3.67736E+03  1.57225E+04  4.70222E+04 -3.38420E+04  4.62065E+04 -6.57616E+04 -4.23375E+02
 -5.24671E+04 -5.60503E+04 -6.31282E+03 -7.56746E+04  3.35970E+04 -5.34692E+04  4.65617E+04 -1.65606E+04
  4.20596E+04  1.11057E+04  3.13254E+04  2.47064E+04  1.58729E+04  2.86209E+04 -4.84335E+03  2.71026E+04
 -2.17111E+04  1.26366E+04 -1.89499E+04 -4.44569E+03  4.74753E+03 -7.74542E+03  2.13615E+04  1.13981E+04
  7.39893E+03  3.38783E+04 -3.07846E+04  3.42296E+04 -6.17152E+04  1.97751E+03 -5.58494E+04 -4.15187E+04
 -1.24276E+04 -6.13746E+04  3.87380E+04 -4.39057E+04  5.63943E+04 -2.02324E+03  3.22878E+04  3.12490E+04
 -6.19038E+03  3.38958E+04 -2.88661E+04  1.43536E+04 -2.83938E+04 -5.34992E+03 -1.46559E+04 -1.03309E+04
 -7.54839E+03 -1.16936E+04 -1.09154E+03 -1.67408E+04  6.54062E+03 -2.25680E+04  1.51794E+04 -1.38663E+04
  1.20590E+04  4.45760E+03 -6.60518E+03  1.31620E+04 -1.96914E+04 -3.03463E+03 -8.38243E+03 -3.15612E+04
  2.14680E+04 -4.14701E+04  4.55847E+04 -1.89887E+04  4.28239E+04  1.85729E+04  1.46365E+04  4.24081E+04
 -1.55534E+04  3.17543E+04 -2.37766E+04  1.29525E+03 -8.52435E+03 -2.67480E+04  2.09609E+04 -3.17944E+04
  3.87839E+04 -7.93454E+03  3.23839E+04  2.28769E+04  1.62394E+04  4.35045E+04 -7.75326E+03  4.61871E+04
 -2.90102E+04  3.07453E+04 -3.85056E+04  8.95566E+03 -3.93618E+04 -1.53647E+04 -2.18190E+04 -3.53358E+04
  6.85968E+03 -3.49378E+04  2.97845E+04 -1.33868E+04  2.76094E+04  1.08231E+04  3.54032E+03  1.79662E+04
 -1.34871E+04  7.54470E+03 -9.91969E+03 -7.33551E+03  6.12536E+03 -1.01966E+04  1.73325E+04  6.31250E+03
  1.27804E+04  2.15445E+04 -6.41635E+03  2.38235E+04 -2.16008E+04  9.97810E+03 -2.57944E+04 -6.13161E+03
 -1.77914E+04 -1.67710E+04 -6.29092E+03 -1.79470E+04  3.93913E+03 -1.57994E+04  1.33698E+04 -1.55212E+04
  2.24517E+04 -1.18683E+04  2.93720E+04  1.63262E+03  2.16631E+04  1.73553E+04  4.26889E+03  3.33749E+04
 -1.63707E+04  2.83555E+04 -2.63167E+04  9.65874E+03 -1.99791E+04 -1.03432E+04 -3.96342E+03 -1.39045E+04
  2.37703E+03 -3.72108E+03 -3.38285E+03  5.58214E+03 -1.35457E+04  5.15281E+03 -1.41583E+04 -5.60634E+03
 -9.09889E+03 -1.64046E+04  4.59196E+03 -2.02642E+04  1.33734E+04 -1.44938E+04  1.56474E+04 -1.36821E+03
  9.50939E+03  1.11698E+04 -1.18397E+03  1.67155E+04 -1.12834E+04  9.58264E+03 -1.61921E+04 -3.57583E+03
 -1.24126E+04 -1.50934E+04 -1.74720E+03 -2.02551E+04  9.34551E+03 -1.62103E+04  1.68964E+04 -7.81172E+03
  1.57318E+04  5.40997E+02  1.12163E+04  4.03034E+03  5.62196E+03  6.56236E+02  7.93900E+03 -1.29742E+03
  1.48989E+04  2.81157E+03  1.60244E+04  1.30466E+04  9.82783E+03  2.62005E+04 -2.90200E+03  2.86708E+04
 -1.67497E+04  2.21806E+04 -2.63154E+04  1.08421E+04 -2.69884E+04 -2.17750E+03 -2.29291E+04 -1.57589E+04
 -1.05658E+04 -2.20847E+04  7.41001E+03 -2.07037E+04  1.77388E+04 -1.14915E+04  1.65150E+04  4.10324E+03
  6.95425E+03  1.18939E+04 -7.17629E+03  1.08734E+04 -1.40670E+04  2.72303E+03 -1.04842E+04 -8.39292E+03
 -3.74069E+02 -1.30463E+04  6.67893E+03 -1.00495E+04  8.52738E+03 -1.30329E+03  1.44563E+03  5.32442E+03
 -5.82377E+03  1.86829E+03 -4.14314E+03 -4.94564E+03  5.70307E+01 -1.09478E+04  8.29285E+03 -1.11575E+04
  1.33893E+04 -5.64734E+03  1.36424E+04  2.66684E+03  1.15215E+04  1.03735E+04  5.83660E+03  1.54062E+04
 -2.07292E+03  1.76284E+04 -1.09839E+04  1.10666E+04 -1.23401E+04  3.29503E+03 -8.95986E+03 -2.18084E+03
 -5.02539E+03 -3.72579E+03 -9.01302E+02  1.35724E+03 -1.93284E+03  2.16446E+03 -4.03526E+03  3.92949E+03
 -8.67665E+03 -7.62464E+02 -9.56953E+03 -7.47663E+03 -3.80470E+03 -1.22196E+04  3.61956E+03 -9.27926E+03
  7.70246E+03 -3.90002E+03  5.33719E+03  2.42606E+03  4.77424E+02  3.25311E+03 -3.93772E+03  2.74096E+02
 -3.83165E+03 -6.01952E+03 -1.05799E+03 -8.18335E+03  4.41618E+03 -8.81689E+03  1.08951E+04 -4.48772E+03
  1.27328E+04  8.84175E+02  9.64548E+03  6.73850E+03  2.01992E+03  9.66188E+03 -5.73594E+03  9.22962E+03
 -7.41190E+03  2.90517E+03 -4.04872E+03 -1.60124E+03  1.46991E+03 -1.99530E+03  5.06000E+03 -7.47810E+02
  4.69765E+03  3.74840E+03  1.21589E+03  7.04891E+03 -4.78808E+03  6.90064E+03 -8.39882E+03  1.64504E+03
 -5.48099E+03 -3.99464E+03  5.31882E+02 -7.34531E+03  4.27347E+03 -3.66920E+03  4.27857E+03  1.42775E+03
  8.18251E+02  3.95872E+03 -4.33176E+03  5.28290E+03 -5.48813E+03  2.82632E+03 -5.39599E+03 -1.41763E+03
 -3.29918E+03 -6.99596E+03  1.49144E+03 -8.04246E+03  6.79390E+03 -5.10030E+03  7.40643E+03  1.00320E+03
  5.42184E+03  6.18504E+03 -1.31344E+02  8.25810E+03 -5.58750E+03  4.51636E+03 -5.80428E+03 -6.24119E+02
 -5.88400E+03 -5.48868E+03 -1.58372E+03 -5.72700E+03  2.85425E+03 -5.20193E+03  3.45687E+03 -2.89535E+03
  2.95923E+03  4.69275E+02 -5.20702E+01  1.34679E+03  5.63863E+02 -2.44810E+02  3.49544E+02 -2.03044E+03
  4.41826E+03 -1.12374E+03  6.15637E+03  9.46961E+02  6.62279E+03  3.92620E+03  5.66477E+03  8.53563E+03
 -1.59079E+03  9.98872E+03 -8.86173E+03  7.66207E+03 -1.15865E+04  1.05899E+03 -8.95427E+03 -3.40183E+03
 -4.61552E+03 -7.38704E+03 -5.64940E+02 -6.12216E+03  2.36993E+03 -2.84465E+03  1.94589E+03 -2.22127E+03
  1.36218E+03 -1.47064E+03  2.29944E+03 -2.55130E+03  4.01753E+03 -1.57352E+03  4.06673E+03  1.95903E+02
  5.06169E+03  1.44648E+03  1.61819E+03  4.03919E+03 -1.76069E+03  3.86567E+03 -5.09090E+03  3.21943E+03
 -5.71382E+03 -9.32901E+02 -2.54459E+03 -4.14829E+03 -3.66843E+01 -5.99373E+03  3.87351E+03 -6.17288E+03
  5.92378E+03 -3.65481E+03  7.67028E+03  3.67513E+02  5.69461E+03  5.13391E+03  1.10498E+03  7.13827E+03
 -2.63488E+03  6.68565E+03 -3.99960E+03  2.15338E+03 -2.12919E+03 -1.07723E+03 -6.36949E+02 -5.82309E+02
 -6.31876E+02  4.27132E+02 -1.18507E+03  1.90406E+03 -2.84914E+03  1.42138E+03 -4.64104E+03 -7.01323E+02
 -2.15826E+03 -4.70658E+03  7.24032E+02 -5.50396E+03  3.02439E+03 -5.09644E+03  4.48412E+03 -1.15499E+03
  5.06926E+03  2.92211E+03  1.89286E+03  4.30934E+03 -1.22403E+03  5.60904E+03 -2.91200E+03  3.36373E+03
 -4.56052E+03  8.39856E+02 -3.94708E+03 -2.83299E+03 -2.14314E+02 -4.08838E+03  1.86884E+03 -3.09151E+03
  3.46794E+03 -1.58800E+03  2.34275E+03  6.38489E+02  1.08674E+03  1.95397E+03  7.34557E+02  5.12265E+02
  1.61966E+03  4.97232E+02  1.44594E+03  9.53046E+02  1.19347E+03  2.40853E+03  1.85594E+03  2.13584E+03
 -1.68964E+03  3.65707E+03 -3.06911E+03  4.63106E+03 -4.21701E+03  1.39793E+03 -4.96892E+03 -1.09197E+03
 -1.84463E+03 -4.71498E+03  5.24520E+02 -5.83180E+03  2.65289E+03 -3.32318E+03  3.52754E+03 -9.75151E+02
  3.12310E+03  2.15677E+03  7.95441E+02  2.60075E+03 -1.03249E+03  1.49909E+03 -1.29205E+03 -9.32427E+01
 -9.11564E+02 -1.75905E+03  1.33483E+03 -2.12660E+03  1.51008E+03 -8.74625E+02  1.66863E+03  4.85979E+02
  1.03311E+03  4.72938E+02  8.03028E+02  4.66709E+01 -4.10899E+02  9.17865E+02  1.66032E+03 -4.20971E+02
  3.19507E+02 -3.63672E+02  2.18577E+03  6.93133E+02  5.61588E+02  3.03028E+03 -4.39207E+02  3.70190E+03
 -1.70924E+03  1.41700E+03 -2.35339E+03  3.80924E+02 -2.87414E+03 -1.12975E+03 -4.32450E+02 -1.36145E+03
  1.49074E+02 -1.87021E+03  9.89727E+02 -8.04663E+02  9.04820E+02  1.45690E+03 -5.63417E+02  1.36901E+03
 -2.19072E+03  1.18576E+03 -1.23940E+03 -1.58903E+03 -1.05405E+03 -2.61642E+03  3.18619E+01 -2.13029E+03
  9.83883E+02 -7.71399E+02  1.17830E+03 -5.90269E+01  1.29849E+03  8.83612E+01  9.24925E+01  1.42037E+03
 -5.08731E+02  3.05572E+02 -1.07727E+03 -3.35782E+02  7.62984E+02 -1.34196E+03  2.20812E+03 -1.28441E+03
  2.28803E+03  3.26579E+02  3.35671E+03  1.12962E+03  1.27470E+03  2.00405E+03 -3.40321E+02  2.42138E+03
 -2.02464E+03  5.15122E+02 -2.22837E+03 -3.96940E+01 -1.23610E+03 -1.79085E+03  3.84127E+02 -9.90069E+02
  1.61262E+03 -9.25988E+02  1.16499E+03  8.29926E+02  1.10709E+02  1.48897E+03  9.40929E+01  1.41728E+03
 -6.45280E+02  1.19225E+03 -5.63147E+02 -9.29035E+01 -1.48123E+02  4.74310E+02 -9.52481E+02  7.41365E+02
 -7.50421E+02  7.96404E+02 -2.21418E+03  8.83976E+02 -2.18660E+03  1.35586E+02 -2.93522E+03 -1.45526E+03
 -1.19682E+03 -3.21096E+03  8.17778E+02 -3.86791E+03  1.68191E+03 -3.21375E+03  3.49783E+03 -1.35186E+03
  2.72810E+03 -9.14813E+01  1.42558E+03  2.18700E+03 -3.28386E+02  2.01010E+03 -9.51899E+02  1.54583E+03
 -1.48771E+03  9.40216E+02 -6.99123E+02 -3.25750E+02 -7.03614E+02  2.55108E+02 -6.06952E+02  2.50600E+01
 -1.23615E+03  2.02209E+01 -9.78964E+02  4.37592E+01  8.74476E+01 -5.28404E+02 -2.65645E+02 -7.77510E+02
  1.60623E+03 -7.15319E+02  8.92416E+02  4.50088E+02  1.59250E+03  1.35611E+03 -4.58213E+02  1.97116E+03
 -1.05001E+03  3.07942E+03 -2.35566E+03  1.85704E+03 -2.40098E+03 -2.40411E+02 -2.09200E+03 -1.68417E+03
 -1.23804E+03 -1.91799E+03  4.70289E+02 -1.85017E+03  1.00266E+03 -9.52515E+02  1.01171E+03  4.26849E+02
  8.73707E+02  5.01348E+02  9.79023E+01  6.28647E+02 -2.17742E+02  2.90008E+02  1.04982E+01 -1.05781E+02
  7.65588E+02 -4.60057E+01  9.16288E+02  6.38559E+02  3.21050E+02  6.95284E+02  3.36337E+02  8.36544E+02
 -1.03598E+03  1.08528E+03 -7.02252E+02 -3.16205E+00 -9.43827E+02 -6.60990E+02  1.88395E+02 -1.52331E+03
  8.53045E+02 -1.14260E+03  7.75529E+02  1.04162E+02  1.32882E+03 -4.63873E+02  6.50230E+02  1.08766E+03
  3.08457E+02  6.95324E+02 -2.68114E+02  7.46903E+02 -5.13315E+02  7.34587E+02 -5.82857E+02  2.24579E+02
 -2.33780E+02 -3.07862E+02 -7.42496E+02  3.45790E+02 -8.81018E+02  2.03921E+02 -9.90189E+02 -2.70917E+02
 -1.07624E+03  1.07541E+02 -4.69641E+02 -1.24146E+03  1.09166E+03 -2.02543E+03  7.87431E+02 -4.35964E+02
  7.38305E+02 -3.89604E+01  8.53409E+01  2.84022E+02 -2.19208E+02  1.13015E+03 -5.23250E+02  9.02472E+02
