 $NMID ID='MM_0lb_SNR800_11hz_g50_9.RAW', FMTDAT='(8E13.5)'
 TRAMP=1., VOLUME=1. $END
  3.09653E+05  2.79683E+02  3.37844E+05  2.50807E+05  8.50771E+04  3.38497E+05 -1.32592E+05  2.51363E+05
 -1.90712E+05  8.32121E+04 -1.12158E+05 -3.26984E+04  2.35187E+02 -5.02025E+04  5.40593E+04 -5.64932E+02
  3.54760E+04  5.29838E+04 -1.62477E+04  7.57576E+04 -6.12562E+04  6.40902E+04 -8.47970E+04  3.25290E+04
 -8.18895E+04 -1.14875E+04 -5.82090E+04 -5.23569E+04 -1.52259E+04 -7.03544E+04  2.81515E+04 -4.64654E+04
  4.06458E+04  3.33015E+03  1.66579E+04  4.83113E+04 -3.49194E+04  4.79553E+04 -6.79763E+04 -1.28701E+02
 -5.44000E+04 -5.76580E+04 -7.35409E+03 -7.80395E+04  3.43162E+04 -5.61604E+04  4.91451E+04 -1.76128E+04
  4.42296E+04  1.17426E+04  3.21455E+04  2.62127E+04  1.56202E+04  3.06643E+04 -5.75177E+03  2.73851E+04
 -2.20933E+04  1.21671E+04 -1.85351E+04 -5.04089E+03  6.20692E+03 -7.41448E+03  2.29970E+04  1.32913E+04
  6.89354E+03  3.66050E+04 -3.30972E+04  3.66024E+04 -6.52021E+04  1.96925E+03 -5.85026E+04 -4.37265E+04
 -1.23756E+04 -6.50690E+04  4.10732E+04 -4.63120E+04  6.01823E+04 -2.32086E+03  3.55136E+04  3.33600E+04
 -5.68935E+03  3.81491E+04 -3.10304E+04  1.77615E+04 -3.22867E+04 -3.93707E+03 -1.81260E+04 -1.19194E+04
 -8.65148E+03 -1.43011E+04 -7.88096E+02 -1.93087E+04  8.41191E+03 -2.32761E+04  1.57080E+04 -1.27880E+04
  1.10536E+04  5.75381E+03 -9.52150E+03  1.28847E+04 -2.27166E+04 -5.60963E+03 -8.30431E+03 -3.61494E+04
  2.38834E+04 -4.53771E+04  5.04231E+04 -2.02422E+04  4.72555E+04  2.01208E+04  1.65978E+04  4.63994E+04
 -1.63681E+04  3.52565E+04 -2.68092E+04  2.38589E+03 -1.13571E+04 -2.85831E+04  2.14663E+04 -3.57793E+04
  4.27552E+04 -1.07907E+04  3.85099E+04  2.47916E+04  2.02409E+04  4.89929E+04 -8.10145E+03  5.40706E+04
 -3.39793E+04  3.63213E+04 -4.53584E+04  1.05334E+04 -4.60406E+04 -1.77364E+04 -2.52130E+04 -4.03087E+04
  7.50272E+03 -3.99147E+04  3.34146E+04 -1.60422E+04  3.09258E+04  1.12875E+04  4.91541E+03  2.04592E+04
 -1.39257E+04  8.79645E+03 -1.11574E+04 -7.67076E+03  5.95329E+03 -1.09574E+04  1.85061E+04  5.71656E+03
  1.40674E+04  2.24804E+04 -5.66877E+03  2.64808E+04 -2.30852E+04  1.30235E+04 -2.97441E+04 -3.20747E+03
 -2.31211E+04 -1.77590E+04 -1.02663E+04 -2.28717E+04  4.25863E+03 -2.35752E+04  1.82851E+04 -2.10865E+04
  2.94257E+04 -1.35412E+04  3.59117E+04  3.96883E+03  2.56534E+04  2.23196E+04  4.56427E+03  3.94541E+04
 -1.89911E+04  3.24142E+04 -2.93333E+04  1.15240E+04 -2.17821E+04 -1.02691E+04 -4.94146E+03 -1.31712E+04
  1.30841E+03 -2.08511E+03 -6.69200E+03  7.60510E+03 -1.86824E+04  4.82135E+03 -1.88982E+04 -8.75485E+03
 -1.11621E+04 -2.15137E+04  5.70599E+03 -2.60582E+04  1.72942E+04 -1.86563E+04  2.06745E+04 -1.87343E+03
  1.32398E+04  1.51972E+04 -1.14411E+03  2.17711E+04 -1.53278E+04  1.21589E+04 -2.16413E+04 -4.29884E+03
 -1.59645E+04 -1.92353E+04 -1.95419E+03 -2.62568E+04  1.16651E+04 -2.16013E+04  2.17408E+04 -1.11474E+04
  2.02973E+04  8.04846E+01  1.46347E+04  4.49750E+03  7.81596E+03  1.44825E+03  1.09409E+04 -1.63353E+03
  1.98743E+04  3.03909E+03  2.28996E+04  1.69552E+04  1.56104E+04  3.47805E+04 -2.45781E+03  4.01449E+04
 -2.31902E+04  3.31514E+04 -3.77098E+04  1.67821E+04 -3.96905E+04 -2.73233E+03 -3.25107E+04 -2.36943E+04
 -1.31578E+04 -3.30604E+04  1.18102E+04 -2.89815E+04  2.55745E+04 -1.43969E+04  2.21940E+04  6.86593E+03
  8.01862E+03  1.68642E+04 -1.02097E+04  1.43105E+04 -1.83873E+04  2.38769E+03 -1.39490E+04 -1.16112E+04
 -2.17956E+02 -1.74979E+04  9.57731E+03 -1.33114E+04  1.18466E+04 -1.27756E+03  2.89241E+03  7.84648E+03
 -8.35374E+03  3.35865E+03 -7.99363E+03 -6.33121E+03 -1.47259E+03 -1.62137E+04  1.12790E+04 -1.73213E+04
  2.04156E+04 -9.63064E+03  2.25854E+04  3.06815E+03  1.97056E+04  1.64100E+04  9.07097E+03  2.58612E+04
 -4.57393E+03  2.68920E+04 -1.80414E+04  1.67480E+04 -1.96531E+04  3.51785E+03 -1.35677E+04 -4.85357E+03
 -5.88663E+03 -6.26612E+03 -6.56329E+02  8.76450E+02 -2.85067E+03  3.11553E+03 -6.34225E+03  5.07545E+03
 -1.24230E+04 -1.12493E+03 -1.34198E+04 -1.06102E+04 -5.48577E+03 -1.71296E+04  5.45551E+03 -1.38048E+04
  1.15668E+04 -5.68773E+03  7.90411E+03  3.73144E+03 -1.49241E+02  5.58505E+03 -7.03390E+03 -1.68110E+02
 -6.56501E+03 -8.64168E+03 -1.28501E+03 -1.35005E+04  7.76296E+03 -1.44150E+04  1.73469E+04 -7.65365E+03
  2.09298E+04  1.61461E+03  1.49421E+04  1.18392E+04  2.95485E+03  1.61267E+04 -8.64787E+03  1.35940E+04
 -1.15016E+04  4.17903E+03 -6.07581E+03 -2.75340E+03  2.21048E+03 -3.70936E+03  7.75833E+03 -1.05287E+03
  6.57161E+03  6.20713E+03  1.23780E+03  1.13959E+04 -7.83102E+03  1.06360E+04 -1.34231E+04  2.79267E+03
 -9.73107E+03 -6.85367E+03  7.54964E+01 -1.16716E+04  7.28282E+03 -5.73054E+03  7.80615E+03  2.82523E+03
  1.54264E+03  8.24490E+03 -7.30039E+03  9.69283E+03 -1.12392E+04  4.10222E+03 -1.15672E+04 -4.07867E+03
 -6.95260E+03 -1.31205E+04  3.28292E+03 -1.51358E+04  1.33254E+04 -9.37238E+03  1.38781E+04  2.68421E+03
  8.52107E+03  1.07638E+04 -8.32008E+02  1.35066E+04 -1.01915E+04  7.39206E+03 -1.07798E+04 -9.44771E+02
 -9.46248E+03 -8.99964E+03 -1.76492E+03 -9.92422E+03  5.19051E+03 -8.29476E+03  6.62324E+03 -3.37824E+03
  4.31487E+03  1.69409E+03 -6.87776E+02  1.76907E+03 -6.71844E+02 -2.81608E+03  1.86681E+03 -5.75193E+03
  9.07720E+03 -3.83316E+03  1.30395E+04  1.21593E+03  1.28309E+04  9.04790E+03  8.84282E+03  1.71764E+04
 -3.87140E+03  1.96268E+04 -1.66201E+04  1.47089E+04 -2.16184E+04  2.94614E+03 -1.71917E+04 -7.28707E+03
 -8.53027E+03 -1.40924E+04 -6.57071E+02 -1.24952E+04  4.28308E+03 -6.44445E+03  3.91221E+03 -4.45602E+03
  3.05704E+03 -2.11375E+03  3.62198E+03 -3.78397E+03  5.36177E+03 -3.10638E+03  6.38019E+03 -8.35809E+02
  8.98572E+03  2.05307E+03  4.67877E+03  7.75598E+03 -1.87836E+03  8.87395E+03 -9.31261E+03  6.67141E+03
 -1.19087E+04 -1.43040E+03 -7.42117E+03 -8.51713E+03 -9.62266E+02 -1.27773E+04  7.40777E+03 -1.24846E+04
  1.33770E+04 -7.00517E+03  1.61623E+04  1.99124E+03  1.09598E+04  1.08768E+04  1.67113E+03  1.45392E+04
 -5.59106E+03  1.19267E+04 -8.12969E+03  4.35101E+03 -5.28342E+03 -1.08103E+03 -2.04387E+03 -1.64947E+03
 -1.15684E+03  1.08065E+02 -1.81938E+03  2.66091E+03 -5.19615E+03  2.14839E+03 -8.45804E+03 -1.12661E+03
 -5.76756E+03 -8.66857E+03  6.22658E+02 -1.14373E+04  7.20540E+03 -1.07759E+04  1.20097E+04 -3.56498E+03
  1.15322E+04  5.50955E+03  5.52355E+03  1.02755E+04 -2.54303E+03  1.21857E+04 -8.34980E+03  7.45797E+03
 -1.08544E+04  5.80388E+02 -8.65671E+03 -7.31356E+03 -8.35346E+02 -9.38434E+03  4.94361E+03 -7.02043E+03
  7.57380E+03 -2.39744E+03  4.75328E+03  1.89305E+03  1.82464E+03  4.00283E+03  1.06365E+03  1.53380E+03
  2.25352E+03  8.87884E+02  2.98427E+03  1.89368E+03  3.47400E+03  4.23607E+03  3.15079E+03  6.18469E+03
 -2.37138E+03  9.09669E+03 -8.03919E+03  9.64577E+03 -1.16270E+04  2.61074E+03 -1.20917E+04 -4.81015E+03
 -5.69012E+03 -1.20774E+04  1.53789E+03 -1.31793E+04  7.28123E+03 -7.83897E+03  9.76528E+03 -1.68320E+03
  7.26395E+03  4.20070E+03  1.48390E+03  6.74715E+03 -3.20268E+03  4.37663E+03 -4.57851E+03 -5.29199E+02
 -2.07909E+03 -5.02472E+03  2.66232E+03 -4.98632E+03  4.75287E+03 -2.48227E+03  4.45466E+03  1.15385E+03
  2.61019E+03  2.74947E+03  1.16168E+03  1.47129E+03 -7.57266E+02  1.89553E+03  1.65264E+03 -1.94419E+02
  1.45261E+03 -6.70721E+02  4.69442E+03  1.61191E+03  2.39306E+03  6.35803E+03 -8.55726E+02  8.55367E+03
 -5.34553E+03  5.38900E+03 -7.27443E+03  2.01326E+03 -6.51684E+03 -2.25508E+03 -2.22743E+03 -4.40697E+03
  7.81852E+02 -4.78392E+03  3.18852E+03 -2.18173E+03  2.64239E+03  1.99561E+03 -1.01387E+03  4.07561E+03
 -4.66706E+03  2.51521E+03 -5.49866E+03 -3.40740E+03 -3.29170E+03 -6.32233E+03  8.06600E+02 -6.52157E+03
  3.66813E+03 -3.65361E+03  4.38267E+03 -6.18521E+02  3.90334E+03  1.38199E+03  3.35807E+02  3.29424E+03
 -2.46815E+03  8.86786E+02 -2.65336E+03 -1.81446E+03  1.20484E+03 -4.90958E+03  5.22824E+03 -3.94625E+03
  6.76793E+03  5.85776E+02  7.54956E+03  4.91203E+03  2.30727E+03  7.14395E+03 -2.59645E+03  6.98884E+03
 -5.74424E+03  3.18480E+03 -6.20751E+03 -8.82854E+02 -3.24217E+03 -4.38145E+03  1.08278E+03 -4.12193E+03
  4.43475E+03 -2.25642E+03  3.34605E+03  1.99386E+03  1.27878E+03  4.25078E+03 -3.01901E+02  3.46523E+03
 -1.90577E+03  2.48200E+03 -2.00114E+03  7.88128E+02 -6.97573E+02  7.15913E+02 -1.14162E+03  1.21427E+03
 -2.17750E+03  2.92555E+03 -5.07409E+03  2.31489E+03 -7.24568E+03  7.41024E+01 -8.16650E+03 -4.88868E+03
 -4.31645E+03 -9.56924E+03  2.01143E+03 -1.08623E+04  6.33275E+03 -8.94327E+03  1.08402E+04 -3.33946E+03
  9.66717E+03  1.94192E+03  6.22023E+03  6.39716E+03  3.46119E+02  7.60974E+03 -2.72693E+03  5.42096E+03
 -4.02570E+03  2.52146E+03 -2.61487E+03 -7.22737E+02 -9.76470E+02 -7.23585E+02 -9.25560E+02 -4.78277E+02
 -1.87888E+03  2.84948E+02 -1.85561E+03 -5.54557E+02 -2.47739E+02 -2.04650E+03  5.66686E+01 -3.06158E+03
  3.66860E+03 -2.43927E+03  4.14361E+03  3.45790E+02  4.98308E+03  3.76333E+03  1.10088E+03  6.96311E+03
 -3.20715E+03  8.83041E+03 -7.72508E+03  5.21136E+03 -8.85928E+03 -2.84332E+02 -6.38557E+03 -5.29422E+03
 -2.45675E+03 -7.51334E+03  1.92246E+03 -6.92743E+03  4.46584E+03 -3.66876E+03  5.21474E+03  2.80998E+02
  2.77229E+03  2.62181E+03 -2.99236E+02  2.15968E+03 -1.54293E+03 -4.59968E+02 -3.45454E+00 -1.64073E+03
  2.37526E+03 -9.20103E+02  2.68620E+03  8.35003E+02  1.88914E+03  2.44830E+03  1.33412E+02  3.53887E+03
 -3.29125E+03  3.26408E+03 -4.91004E+03  5.28854E+02 -4.46984E+03 -3.40740E+03 -6.09398E+02 -5.65264E+03
  3.07429E+03 -4.99802E+03  4.98973E+03 -1.33647E+03  5.67207E+03  1.11387E+03  3.28692E+03  4.47364E+03
  4.26858E+02  4.48464E+03 -1.94746E+03  3.73460E+03 -2.47820E+03  2.14223E+03 -2.41871E+03  2.70959E+02
 -1.37633E+03 -2.33941E+02 -1.75462E+03  8.27040E+02 -2.56232E+03  8.82181E+02 -3.55968E+03 -7.21112E+02
 -3.61409E+03 -2.07212E+03 -7.14893E+02 -4.64411E+03  2.41181E+03 -5.48798E+03  4.22943E+03 -1.85751E+03
  5.03251E+03  7.96353E+02  2.07078E+03  3.46983E+03 -2.62605E+02  4.83227E+03 -3.46808E+03  3.14400E+03
