 $NMID ID='MM_0lb_SNR800_17hz_g60_51.RAW', FMTDAT='(8E13.5)'
 TRAMP=1., VOLUME=1. $END
  3.09761E+05  5.01803E+02  3.37803E+05  2.50807E+05  8.48071E+04  3.37824E+05 -1.32283E+05  2.51216E+05
 -1.90466E+05  8.33383E+04 -1.11745E+05 -3.27213E+04  9.95779E+02 -5.04639E+04  5.39077E+04  1.18465E+02
  3.52589E+04  5.26679E+04 -1.68549E+04  7.52709E+04 -6.05442E+04  6.35750E+04 -8.38217E+04  3.18362E+04
 -8.09485E+04 -1.14753E+04 -5.71790E+04 -5.14000E+04 -1.49757E+04 -6.94898E+04  2.74154E+04 -4.59133E+04
  4.00438E+04  3.74535E+03  1.61278E+04  4.76739E+04 -3.45428E+04  4.72231E+04 -6.64174E+04 -2.47275E+02
 -5.32931E+04 -5.67158E+04 -6.47657E+03 -7.67667E+04  3.40280E+04 -5.49985E+04  4.75913E+04 -1.73174E+04
  4.33161E+04  1.13764E+04  3.16460E+04  2.55454E+04  1.59447E+04  2.93384E+04 -5.20001E+03  2.71497E+04
 -2.19092E+04  1.23909E+04 -1.85851E+04 -4.85169E+03  5.31809E+03 -7.87907E+03  2.20628E+04  1.22101E+04
  7.17388E+03  3.49081E+04 -3.19760E+04  3.52168E+04 -6.29874E+04  2.11252E+03 -5.67003E+04 -4.24446E+04
 -1.24961E+04 -6.28795E+04  3.93828E+04 -4.50734E+04  5.74108E+04 -2.21094E+03  3.36776E+04  3.17843E+04
 -6.26343E+03  3.58853E+04 -2.97759E+04  1.56196E+04 -2.96827E+04 -4.34576E+03 -1.63064E+04 -1.09203E+04
 -8.42851E+03 -1.29901E+04 -6.56816E+02 -1.79769E+04  7.54937E+03 -2.31271E+04  1.56375E+04 -1.31835E+04
  1.14687E+04  5.25260E+03 -7.68016E+03  1.27901E+04 -2.06836E+04 -4.01564E+03 -8.12215E+03 -3.34063E+04
  2.25047E+04 -4.30703E+04  4.78953E+04 -1.94277E+04  4.46189E+04  1.93527E+04  1.51071E+04  4.37264E+04
 -1.58458E+04  3.30299E+04 -2.49263E+04  1.75697E+03 -9.53344E+03 -2.73591E+04  2.09429E+04 -3.35504E+04
  4.07272E+04 -8.55444E+03  3.48648E+04  2.36383E+04  1.80075E+04  4.54243E+04 -8.09236E+03  4.91851E+04
 -3.08734E+04  3.26449E+04 -4.05801E+04  9.08288E+03 -4.18992E+04 -1.62390E+04 -2.30360E+04 -3.75146E+04
  7.22593E+03 -3.69584E+04  3.07221E+04 -1.42041E+04  2.89181E+04  1.08983E+04  3.80170E+03  1.89951E+04
 -1.35167E+04  8.14370E+03 -1.01369E+04 -7.62132E+03  5.58586E+03 -1.06271E+04  1.80888E+04  6.26438E+03
  1.30561E+04  2.20313E+04 -6.22875E+03  2.48938E+04 -2.20999E+04  1.09370E+04 -2.74377E+04 -5.13157E+03
 -1.98165E+04 -1.68146E+04 -7.70793E+03 -1.91918E+04  3.97395E+03 -1.84076E+04  1.50562E+04 -1.72711E+04
  2.50215E+04 -1.25848E+04  3.14574E+04  2.18345E+03  2.34006E+04  1.93928E+04  4.37982E+03  3.54996E+04
 -1.72103E+04  2.97524E+04 -2.72172E+04  1.06142E+04 -2.05932E+04 -1.03236E+04 -3.98467E+03 -1.35880E+04
  2.08968E+03 -3.18927E+03 -4.03251E+03  6.11743E+03 -1.55782E+04  5.05433E+03 -1.56645E+04 -6.16060E+03
 -9.60268E+03 -1.79828E+04  4.68940E+03 -2.19195E+04  1.43603E+04 -1.61757E+04  1.69468E+04 -1.43999E+03
  1.06663E+04  1.24081E+04 -1.00046E+03  1.80351E+04 -1.23433E+04  1.03789E+04 -1.79325E+04 -3.75384E+03
 -1.34033E+04 -1.63125E+04 -1.77200E+03 -2.17007E+04  9.66270E+03 -1.78623E+04  1.81398E+04 -8.57313E+03
  1.68567E+04  3.28405E+02  1.20030E+04  4.08753E+03  6.32079E+03  1.03539E+03  9.06891E+03 -1.68904E+03
  1.62722E+04  2.62143E+03  1.76737E+04  1.41766E+04  1.13352E+04  2.84666E+04 -3.20689E+03  3.15317E+04
 -1.83497E+04  2.48130E+04 -2.93585E+04  1.22771E+04 -3.04089E+04 -2.33489E+03 -2.53744E+04 -1.76159E+04
 -1.13219E+04 -2.49812E+04  8.45761E+03 -2.28053E+04  1.97186E+04 -1.20312E+04  1.76854E+04  4.87773E+03
  6.74185E+03  1.34665E+04 -8.47617E+03  1.17335E+04 -1.52881E+04  2.67033E+03 -1.15392E+04 -9.14247E+03
 -1.28904E+02 -1.44784E+04  7.01714E+03 -1.05104E+04  9.12740E+03 -1.44579E+03  1.70684E+03  5.92625E+03
 -6.34756E+03  2.08976E+03 -5.01794E+03 -5.32116E+03  1.31527E+02 -1.23096E+04  8.79632E+03 -1.24672E+04
  1.49789E+04 -6.48686E+03  1.52259E+04  2.90774E+03  1.33737E+04  1.17815E+04  6.50165E+03  1.79524E+04
 -2.77472E+03  1.96200E+04 -1.23203E+04  1.28738E+04 -1.39772E+04  3.18331E+03 -1.01841E+04 -2.63492E+03
 -5.15168E+03 -3.98442E+03 -8.79680E+02  9.42489E+02 -2.11897E+03  2.25299E+03 -4.35986E+03  4.17994E+03
 -9.73449E+03 -3.93120E+02 -1.02080E+04 -8.25599E+03 -3.95189E+03 -1.33039E+04  4.37777E+03 -1.01287E+04
  8.27498E+03 -4.52719E+03  6.31420E+03  2.44100E+03  2.56341E+02  3.64529E+03 -4.67127E+03 -7.70476E+01
 -4.44878E+03 -6.31609E+03 -1.06752E+03 -9.07819E+03  5.18586E+03 -9.77593E+03  1.20700E+04 -5.01462E+03
  1.44078E+04  1.02488E+03  1.03813E+04  8.09485E+03  1.85447E+03  1.09710E+04 -6.21129E+03  9.83131E+03
 -8.27183E+03  3.27444E+03 -3.95753E+03 -1.74081E+03  1.38929E+03 -2.39737E+03  5.52597E+03 -8.71327E+02
  4.81268E+03  4.35507E+03  9.05035E+02  7.46292E+03 -5.42983E+03  7.36973E+03 -9.36920E+03  1.99742E+03
 -5.88164E+03 -4.72285E+03  3.43264E+02 -7.88426E+03  4.72006E+03 -3.62113E+03  4.67698E+03  1.41676E+03
  7.27278E+02  4.80992E+03 -4.80076E+03  6.01352E+03 -6.65734E+03  3.03883E+03 -6.21736E+03 -1.81959E+03
 -3.77052E+03 -8.03383E+03  1.75434E+03 -8.99979E+03  7.67329E+03 -5.71616E+03  8.50310E+03  1.37896E+03
  5.96179E+03  6.44436E+03 -3.30819E+02  9.03873E+03 -6.33515E+03  4.95963E+03 -6.81040E+03 -7.62301E+02
 -6.87334E+03 -6.23801E+03 -1.56581E+03 -6.06120E+03  3.11227E+03 -5.37458E+03  3.59984E+03 -3.01856E+03
  3.20973E+03  7.39421E+02  1.98513E+02  1.32443E+03  2.02007E+02 -8.53620E+02  8.03682E+02 -2.88555E+03
  5.22305E+03 -9.53656E+02  7.21006E+03  1.03793E+03  7.31983E+03  4.33726E+03  6.13787E+03  9.53759E+03
 -1.92554E+03  1.14159E+04 -9.62025E+03  8.31993E+03 -1.25661E+04  1.79469E+03 -9.94062E+03 -3.74879E+03
 -5.24073E+03 -8.44762E+03 -2.03734E+02 -6.57367E+03  2.52734E+03 -3.14707E+03  2.35760E+03 -2.43922E+03
  1.86998E+03 -1.85531E+03  2.28077E+03 -2.77157E+03  3.81168E+03 -1.57258E+03  3.92721E+03  1.70490E+02
  5.37390E+03  1.44739E+03  2.03169E+03  3.97684E+03 -1.37476E+03  4.15567E+03 -5.59285E+03  3.65557E+03
 -6.51171E+03 -9.14274E+02 -3.43371E+03 -4.28032E+03  1.22464E+02 -7.01263E+03  4.39815E+03 -6.97063E+03
  6.60936E+03 -3.94824E+03  8.52257E+03  6.85463E+02  6.07674E+03  5.53542E+03  1.45592E+03  7.69158E+03
 -2.82453E+03  7.00168E+03 -4.35376E+03  1.85156E+03 -2.45800E+03 -1.32607E+03 -8.13412E+02 -7.70015E+02
 -6.28391E+02  3.41182E+02 -9.38877E+02  2.15129E+03 -3.22509E+03  1.40769E+03 -4.92629E+03 -6.53849E+02
 -2.52999E+03 -4.89630E+03  1.04036E+03 -5.97488E+03  3.57932E+03 -5.63611E+03  4.83248E+03 -1.65598E+03
  5.85716E+03  2.99374E+03  2.27446E+03  4.51062E+03 -1.04502E+03  5.62729E+03 -3.40962E+03  3.39055E+03
 -4.90510E+03  1.10507E+03 -4.00388E+03 -3.28975E+03 -4.79142E-02 -4.10088E+03  2.27425E+03 -3.32908E+03
  3.47841E+03 -1.66844E+03  2.18515E+03  5.87367E+02  8.42370E+02  2.21063E+03  8.40744E+02  6.68889E+02
  1.97095E+03  6.29247E+02  1.62542E+03  8.95830E+02  1.62315E+03  2.50693E+03  1.64857E+03  2.47060E+03
 -1.47448E+03  3.92593E+03 -3.34999E+03  5.08802E+03 -4.71523E+03  1.11311E+03 -5.56968E+03 -5.88862E+02
 -2.29511E+03 -4.92965E+03  8.08640E+02 -6.07823E+03  2.75132E+03 -3.72773E+03  3.90218E+03 -1.26127E+03
  3.38473E+03  2.22400E+03  3.68497E+02  2.95171E+03 -1.15841E+03  1.55403E+03 -1.90416E+03 -5.71013E+02
 -7.66118E+02 -2.06358E+03  1.60074E+03 -2.21098E+03  2.01487E+03 -1.07897E+03  1.68659E+03  2.99576E+02
  1.02411E+03  5.95015E+02  8.03933E+02  6.06914E+01 -3.37626E+02  8.33495E+02  1.75585E+03 -2.35335E+02
  5.14954E+02 -2.83095E+02  1.99835E+03  7.40488E+02  4.98285E+02  3.14036E+03 -4.31292E+02  3.59092E+03
 -2.25682E+03  1.67295E+03 -2.70996E+03  1.77949E+02 -2.73503E+03 -9.72877E+02 -5.89059E+02 -1.48305E+03
  7.29221E+02 -1.74245E+03  1.24628E+03 -8.20014E+02  1.10790E+03  1.71820E+03 -6.36422E+02  1.45649E+03
 -1.54586E+03  1.11820E+03 -1.39594E+03 -1.51878E+03 -1.00048E+03 -2.73506E+03 -1.82140E+01 -2.22141E+03
  6.82059E+02 -8.04342E+02  1.19572E+03 -1.55945E+02  1.47937E+03  5.09139E+02  3.34684E+02  1.51804E+03
 -6.75515E+02  8.82817E+01 -1.10681E+03 -4.15577E+02  5.58820E+02 -1.29785E+03  2.46044E+03 -1.13908E+03
  1.93830E+03  3.85678E+02  3.28736E+03  1.38920E+03  1.52483E+03  2.31044E+03 -5.86753E+02  2.42943E+03
 -1.62070E+03  4.03042E+02 -2.03978E+03 -5.35340E+02 -1.18449E+03 -1.82308E+03  1.81599E+02 -1.21174E+03
  1.86555E+03 -9.40059E+02  8.87673E+02  7.81553E+02  1.61395E+02  1.73522E+03  3.08156E+01  1.35942E+03
 -4.72459E+02  1.18244E+03 -4.31121E+02  1.62579E+02 -1.75112E+02  4.57562E+02 -8.37085E+02  8.64883E+02
 -4.94837E+02  1.42116E+03 -2.28352E+03  7.82529E+02 -2.46613E+03 -6.71542E+01 -3.21321E+03 -1.39260E+03
 -1.26903E+03 -3.16568E+03  9.50629E+02 -3.75614E+03  1.37634E+03 -3.34040E+03  3.72666E+03 -1.11299E+03
  2.94227E+03 -2.19484E+01  1.75675E+03  2.16966E+03 -4.75643E+02  2.25784E+03 -7.73633E+02  1.77521E+03
 -1.21616E+03  6.22402E+02 -8.75670E+02 -2.35235E+02 -4.57003E+02  3.68055E+01 -5.30126E+02 -1.50215E+02
 -1.05332E+03  9.62069E+01 -8.05827E+02  1.22859E+02  2.21399E+02 -4.07898E+02 -3.06074E+02 -1.14641E+03
  1.29588E+03 -8.60181E+02  8.32377E+02  1.47931E+02  1.38040E+03  1.11615E+03  9.53764E+00  2.03448E+03
 -1.30884E+03  2.61686E+03 -2.08520E+03  1.60371E+03 -2.49142E+03 -2.51861E+02 -1.69773E+03 -1.79696E+03
 -9.61047E+02 -1.82316E+03  5.99082E+02 -1.53716E+03  1.05468E+03 -7.56395E+02  7.89787E+02  1.35312E+02
  1.11401E+03  4.72101E+02  7.00701E+01  1.94909E+02 -3.57304E+02  7.58787E+01 -5.15461E+01 -5.89612E+02
  5.51934E+02  4.47314E+01  5.08701E+02  6.71563E+02  2.22112E+02  4.59450E+02  5.71735E+02  4.81535E+02
 -8.00896E+02  9.80910E+02 -7.88385E+02  1.43144E+02 -1.31780E+03 -5.39186E+02  1.63697E+00 -1.69584E+03
  8.71218E+02 -1.00005E+03  8.81025E+02 -1.76915E+02  1.33388E+03 -5.39877E+02  7.40988E+02  9.44959E+02
  5.64208E+02  8.52393E+02 -4.41708E+02  7.03160E+02 -6.14548E+02  6.54796E+02 -5.53669E+02  5.32493E+01
  1.24648E+01 -9.19438E+01 -7.08140E+02  2.85840E+02 -4.48430E+02  1.53055E+02 -1.18280E+03 -3.37681E+02
 -1.19137E+03  3.29821E+02 -5.20591E+02 -1.10624E+03  8.54237E+02 -1.69669E+03  1.22740E+03 -3.10007E+02
  1.00984E+03 -2.14920E+01 -3.05514E+02  5.47741E+02 -4.44667E+01  1.14902E+03 -3.44916E+02  9.09501E+02
