 $NMID ID='MM_0lb_SNR800_9hz_g55_26.RAW', FMTDAT='(8E13.5)'
 TRAMP=1., VOLUME=1. $END
  3.09840E+05  1.76390E+02  3.37745E+05  2.50847E+05  8.50568E+04  3.38668E+05 -1.32059E+05  2.51971E+05
 -1.90624E+05  8.37164E+04 -1.12644E+05 -3.23300E+04  3.13305E+02 -5.09519E+04  5.36017E+04 -3.96869E+02
  3.56453E+04  5.31959E+04 -1.63624E+04  7.58005E+04 -6.12656E+04  6.49064E+04 -8.53627E+04  3.27420E+04
 -8.27037E+04 -1.14236E+04 -5.86704E+04 -5.22874E+04 -1.52773E+04 -7.13377E+04  2.85048E+04 -4.69158E+04
  4.09909E+04  3.77366E+03  1.62726E+04  4.92069E+04 -3.50689E+04  4.87769E+04 -6.84295E+04  2.21382E+02
 -5.51500E+04 -5.82175E+04 -7.30003E+03 -7.91165E+04  3.46578E+04 -5.70449E+04  4.95639E+04 -1.87781E+04
  4.52583E+04  1.15148E+04  3.29276E+04  2.68821E+04  1.60502E+04  3.09525E+04 -6.15567E+03  2.79351E+04
 -2.25161E+04  1.21016E+04 -1.79763E+04 -6.02827E+03  7.10981E+03 -7.32075E+03  2.38279E+04  1.40038E+04
  7.02052E+03  3.72653E+04 -3.38739E+04  3.72239E+04 -6.62533E+04  2.08758E+03 -5.93055E+04 -4.47642E+04
 -1.28435E+04 -6.66825E+04  4.16805E+04 -4.74466E+04  6.15295E+04 -2.60627E+03  3.72407E+04  3.44997E+04
 -5.45135E+03  3.98014E+04 -3.19885E+04  1.91321E+04 -3.32479E+04 -3.57551E+03 -1.98363E+04 -1.22475E+04
 -9.65036E+03 -1.50844E+04 -1.59185E+02 -1.99443E+04  8.76298E+03 -2.33553E+04  1.62356E+04 -1.25498E+04
  1.02042E+04  5.93444E+03 -1.08999E+04  1.32305E+04 -2.41418E+04 -7.00525E+03 -8.12650E+03 -3.79420E+04
  2.52183E+04 -4.72458E+04  5.22971E+04 -2.12711E+04  4.90433E+04  2.14799E+04  1.76462E+04  4.78238E+04
 -1.70286E+04  3.60611E+04 -2.78586E+04  2.48569E+03 -1.16832E+04 -2.97199E+04  2.18001E+04 -3.73302E+04
  4.47683E+04 -1.10800E+04  4.09473E+04  2.54448E+04  2.18982E+04  5.15928E+04 -8.21865E+03  5.66353E+04
 -3.54377E+04  3.87176E+04 -4.85332E+04  1.13246E+04 -4.81901E+04 -1.84812E+04 -2.64450E+04 -4.31548E+04
  8.06007E+03 -4.24959E+04  3.46283E+04 -1.71515E+04  3.24113E+04  1.09804E+04  5.22750E+03  2.12137E+04
 -1.40681E+04  9.82562E+03 -1.15019E+04 -7.70961E+03  5.48470E+03 -1.12394E+04  1.91368E+04  5.53294E+03
  1.48342E+04  2.26857E+04 -5.08692E+03  2.77366E+04 -2.37990E+04  1.46337E+04 -3.19234E+04 -2.57943E+03
 -2.59989E+04 -1.83647E+04 -1.23573E+04 -2.54115E+04  4.51317E+03 -2.63120E+04  2.03911E+04 -2.39991E+04
  3.26442E+04 -1.42837E+04  3.86032E+04  5.06455E+03  2.75759E+04  2.49949E+04  4.86285E+03  4.18752E+04
 -2.02804E+04  3.42208E+04 -3.08860E+04  1.20230E+04 -2.25897E+04 -1.01635E+04 -4.87492E+03 -1.25409E+04
  1.12702E+02 -1.05575E+03 -7.69911E+03  8.21244E+03 -2.08046E+04  5.18502E+03 -1.99419E+04 -9.76861E+03
 -1.21936E+04 -2.35626E+04  5.79792E+03 -2.83696E+04  1.92785E+04 -1.99085E+04  2.30199E+04 -1.61642E+03
  1.50024E+04  1.66150E+04 -1.34358E+03  2.33807E+04 -1.71534E+04  1.35676E+04 -2.43840E+04 -4.85555E+03
 -1.78714E+04 -2.16469E+04 -2.06268E+03 -2.85685E+04  1.30358E+04 -2.39445E+04  2.35980E+04 -1.22962E+04
  2.25613E+04 -3.78616E+02  1.61562E+04  5.18201E+03  8.67300E+03  1.72352E+03  1.20141E+04 -1.96843E+03
  2.26986E+04  3.26519E+03  2.60395E+04  1.90984E+04  1.84093E+04  3.83056E+04 -2.59115E+03  4.51277E+04
 -2.54358E+04  3.79831E+04 -4.27361E+04  1.95692E+04 -4.52329E+04 -3.37452E+03 -3.68811E+04 -2.64531E+04
 -1.51097E+04 -3.80726E+04  1.35229E+04 -3.31282E+04  2.86901E+04 -1.52876E+04  2.47413E+04  8.33580E+03
  8.24579E+03  1.93811E+04 -1.20704E+04  1.57072E+04 -2.07311E+04  2.61101E+03 -1.58609E+04 -1.34671E+04
 -2.93959E+02 -1.97054E+04  1.08359E+04 -1.46311E+04  1.39717E+04 -1.27078E+03  3.39384E+03  9.10445E+03
 -8.88329E+03  4.60519E+03 -9.55736E+03 -6.89513E+03 -2.13792E+03 -1.86620E+04  1.21869E+04 -2.05308E+04
  2.36478E+04 -1.15482E+04  2.70963E+04  3.41792E+03  2.33184E+04  1.91437E+04  1.10879E+04  2.96592E+04
 -5.93877E+03  3.25376E+04 -2.08309E+04  1.99689E+04 -2.34699E+04  3.76316E+03 -1.56369E+04 -5.96691E+03
 -6.24668E+03 -7.34742E+03 -4.18578E+02  4.96441E+02 -2.87127E+03  3.61540E+03 -7.52343E+03  5.52181E+03
 -1.42768E+04 -8.84265E+02 -1.50499E+04 -1.20597E+04 -5.93145E+03 -1.96423E+04  6.95502E+03 -1.64323E+04
  1.30474E+04 -6.48885E+03  9.37691E+03  4.53283E+03 -1.43299E+02  6.31327E+03 -8.39955E+03 -2.13484E+02
 -7.67658E+03 -1.03067E+04 -1.03954E+03 -1.60505E+04  9.16586E+03 -1.64013E+04  2.01095E+04 -9.01710E+03
  2.46933E+04  3.07151E+03  1.78533E+04  1.47710E+04  3.35210E+03  1.96891E+04 -9.57102E+03  1.58154E+04
 -1.29369E+04  4.74642E+03 -6.56848E+03 -3.53965E+03  2.07443E+03 -4.77828E+03  8.14574E+03 -6.46742E+02
  7.44404E+03  7.29190E+03  1.68447E+03  1.30069E+04 -9.28591E+03  1.21824E+04 -1.62826E+04  2.92773E+03
 -1.12912E+04 -8.40647E+03 -3.69110E+02 -1.38155E+04  8.84863E+03 -7.25212E+03  9.53956E+03  4.17062E+03
  2.68161E+03  1.02361E+04 -8.34026E+03  1.19289E+04 -1.45503E+04  5.42246E+03 -1.41856E+04 -5.28666E+03
 -8.39538E+03 -1.65794E+04  4.49444E+03 -1.83547E+04  1.59092E+04 -1.10516E+04  1.73517E+04  3.58009E+03
  1.02352E+04  1.35538E+04 -1.16910E+03  1.64185E+04 -1.18479E+04  9.04832E+03 -1.31166E+04 -1.37615E+03
 -1.12456E+04 -1.09798E+04 -1.84471E+03 -1.24984E+04  6.87492E+03 -9.78195E+03  7.89207E+03 -3.83288E+03
  5.76227E+03  2.21153E+03 -9.61977E+02  1.96872E+03 -7.15156E+02 -3.39539E+03  2.57995E+03 -8.03193E+03
  1.17035E+04 -4.90280E+03  1.66140E+04  2.15558E+03  1.63219E+04  1.16344E+04  1.00883E+04  2.16990E+04
 -5.36154E+03  2.45038E+04 -2.08927E+04  1.83670E+04 -2.66942E+04  3.28923E+03 -2.14997E+04 -9.41582E+03
 -1.06888E+04 -1.74638E+04 -4.95972E+02 -1.50845E+04  5.43271E+03 -8.93867E+03  5.22107E+03 -5.55462E+03
  4.10497E+03 -3.38393E+03  4.43440E+03 -3.41856E+03  6.03505E+03 -3.72809E+03  8.31925E+03 -1.31275E+03
  1.10203E+04  2.29636E+03  6.14847E+03  9.51650E+03 -2.38932E+03  1.16471E+04 -1.18990E+04  8.95764E+03
 -1.52401E+04 -1.89695E+03 -9.71104E+03 -1.08401E+04 -1.49573E+03 -1.62851E+04  9.10544E+03 -1.64249E+04
  1.72545E+04 -8.93689E+03  2.02789E+04  2.66154E+03  1.41078E+04  1.45413E+04  2.08416E+03  1.88947E+04
 -7.62272E+03  1.48276E+04 -1.06779E+04  4.87520E+03 -7.33850E+03 -1.59536E+03 -2.85691E+03 -2.17101E+03
 -1.46915E+03  2.60684E+02 -2.30277E+03  3.43362E+03 -6.30003E+03  2.67188E+03 -1.04007E+04 -1.41101E+03
 -7.60621E+03 -1.02319E+04 -3.04655E+02 -1.54427E+04  9.48158E+03 -1.45144E+04  1.55748E+04 -4.03610E+03
  1.48671E+04  7.33701E+03  7.46099E+03  1.36968E+04 -3.33300E+03  1.58205E+04 -1.10338E+04  1.00049E+04
 -1.47868E+04  5.86086E+02 -1.10411E+04 -9.48518E+03 -1.14010E+03 -1.30622E+04  7.06819E+03 -9.64558E+03
  9.88488E+03 -3.09199E+03  6.56965E+03  2.70779E+03  2.68704E+03  4.62373E+03  1.56750E+03  1.98038E+03
  3.04829E+03  8.70673E+02  3.77282E+03  2.15415E+03  4.65026E+03  5.37807E+03  3.67667E+03  8.68139E+03
 -3.32156E+03  1.22492E+04 -1.10153E+04  1.19777E+04 -1.61503E+04  3.15166E+03 -1.61947E+04 -6.80816E+03
 -8.11380E+03 -1.60187E+04  2.38307E+03 -1.70554E+04  9.69903E+03 -1.10596E+04  1.31716E+04 -3.37515E+03
  1.00752E+04  5.99777E+03  2.13098E+03  8.96818E+03 -4.41041E+03  5.93360E+03 -6.79385E+03 -1.11393E+03
 -2.83567E+03 -6.68571E+03  3.70048E+03 -7.54563E+03  6.61500E+03 -3.23439E+03  6.34685E+03  1.40332E+03
  3.47788E+03  3.39464E+03  1.36218E+03  2.53097E+03 -7.02416E+02  2.15350E+03  1.66862E+03 -6.67509E+02
  2.61068E+03 -9.26444E+02  6.19755E+03  2.45612E+03  3.85777E+03  8.34615E+03 -1.44369E+03  1.14457E+04
 -7.54336E+03  6.95447E+03 -1.02479E+04  2.11620E+03 -8.88704E+03 -3.11851E+03 -3.71360E+03 -6.29589E+03
  6.62192E+02 -6.21957E+03  3.97985E+03 -3.10941E+03  3.71477E+03  3.11045E+03 -1.47992E+03  5.30990E+03
 -6.87844E+03  2.96428E+03 -7.61006E+03 -3.47253E+03 -4.06653E+03 -8.73541E+03  1.54885E+03 -8.84477E+03
  5.43957E+03 -5.43009E+03  6.28296E+03 -5.93538E+02  5.35556E+03  2.43486E+03  7.13259E+02  4.64819E+03
 -3.09612E+03  1.79598E+03 -4.07625E+03 -2.54763E+03  1.32369E+03 -6.81199E+03  7.54198E+03 -5.98606E+03
  1.00682E+04  8.83545E+02  9.74905E+03  6.92558E+03  3.24851E+03  1.05320E+04 -3.80843E+03  9.88362E+03
 -8.69490E+03  4.38890E+03 -8.69886E+03 -1.34032E+03 -5.04130E+03 -7.13695E+03  1.83708E+03 -6.27575E+03
  6.60578E+03 -3.18067E+03  5.79504E+03  3.08112E+03  1.24739E+03  5.10729E+03 -1.46459E+03  5.24261E+03
 -3.28804E+03  3.13509E+03 -2.38248E+03  1.06655E+03 -1.18586E+03  1.33816E+03 -1.54959E+03  2.42533E+03
 -2.88572E+03  3.87273E+03 -7.16503E+03  3.53914E+03 -1.05391E+04  3.29548E+02 -1.15567E+04 -6.92807E+03
 -6.05163E+03 -1.36839E+04  2.39496E+03 -1.66636E+04  9.98082E+03 -1.20581E+04  1.52183E+04 -4.86648E+03
  1.43487E+04  2.98031E+03  8.51986E+03  9.59313E+03  4.23581E+02  1.12193E+04 -4.09475E+03  8.16684E+03
 -5.83758E+03  2.86177E+03 -4.03213E+03 -1.32695E+03 -1.09411E+03 -9.13902E+02 -7.25600E+02  1.89445E+01
 -1.97518E+03  3.93085E+02 -2.28574E+03 -3.91096E+02 -1.15219E+03 -2.44504E+03  2.56171E+02 -4.31138E+03
  4.63741E+03 -3.31078E+03  6.80280E+03  2.29006E+02  7.64031E+03  5.98929E+03  1.85604E+03  1.11462E+04
 -5.03594E+03  1.23135E+04 -1.14635E+04  7.11182E+03 -1.33892E+04 -5.98509E+02 -1.02168E+04 -7.89805E+03
 -4.22894E+03 -1.14310E+04  2.94618E+03 -1.04527E+04  7.08530E+03 -5.63929E+03  7.32818E+03  4.71512E+02
  4.03589E+03  4.03161E+03 -3.48117E+02  3.18198E+03 -2.35830E+03 -4.02720E+02  1.05687E+02 -2.52137E+03
  3.60558E+03 -1.19302E+03  4.27759E+03  1.23771E+03  2.87824E+03  4.21873E+03 -2.53473E+01  5.72071E+03
 -4.97248E+03  5.07822E+03 -7.54954E+03  1.61327E+02 -6.39592E+03 -4.99488E+03 -6.42158E+02 -9.24791E+03
  5.28489E+03 -7.45796E+03  8.03148E+03 -2.40032E+03  8.37974E+03  2.33790E+03  4.64206E+03  6.35073E+03
  1.07780E+03  7.21599E+03 -2.97662E+03  6.22258E+03 -4.70695E+03  3.40045E+03 -3.92667E+03  4.08434E+02
 -2.12379E+03 -1.33447E+02 -2.09291E+03  1.09222E+03 -4.00538E+03  1.23945E+03 -5.52135E+03 -9.97900E+02
 -5.31763E+03 -3.50289E+03 -1.71342E+03 -7.10083E+03  3.24552E+03 -7.85558E+03  6.40205E+03 -3.68468E+03
  7.39735E+03  9.65463E+02  4.18003E+03  5.15323E+03 -5.68421E+02  7.25255E+03 -5.89124E+03  4.77170E+03
