 $NMID ID='MM_0lb_SNR800_9hz_g40_14.RAW', FMTDAT='(8E13.5)'
 TRAMP=1., VOLUME=1. $END
  3.09907E+05  3.43126E+02  3.37978E+05  2.50849E+05  8.50395E+04  3.38565E+05 -1.32679E+05  2.51117E+05
 -1.90987E+05  8.38492E+04 -1.12590E+05 -3.25161E+04  2.58997E+02 -5.09611E+04  5.38224E+04 -2.00525E+02
  3.54643E+04  5.26439E+04 -1.67625E+04  7.58657E+04 -6.12594E+04  6.39636E+04 -8.51018E+04  3.23368E+04
 -8.19789E+04 -1.18891E+04 -5.81335E+04 -5.22860E+04 -1.52601E+04 -7.07734E+04  2.81305E+04 -4.66980E+04
  4.11000E+04  3.78337E+03  1.68655E+04  4.84502E+04 -3.48003E+04  4.82354E+04 -6.78258E+04  2.80678E+02
 -5.43431E+04 -5.74186E+04 -6.90433E+03 -7.81834E+04  3.45936E+04 -5.66442E+04  4.95599E+04 -1.80421E+04
  4.51548E+04  1.14263E+04  3.28160E+04  2.62329E+04  1.59419E+04  3.04174E+04 -5.84664E+03  2.82771E+04
 -2.22714E+04  1.18387E+04 -1.80794E+04 -5.61224E+03  6.93880E+03 -7.68497E+03  2.30927E+04  1.35759E+04
  6.96112E+03  3.72211E+04 -3.35890E+04  3.66536E+04 -6.52217E+04  1.97728E+03 -5.83669E+04 -4.43216E+04
 -1.26004E+04 -6.54052E+04  4.12511E+04 -4.74739E+04  6.06710E+04 -2.41553E+03  3.55558E+04  3.42732E+04
 -5.57744E+03  3.86453E+04 -3.15488E+04  1.83661E+04 -3.24900E+04 -3.33662E+03 -1.83382E+04 -1.17034E+04
 -9.09750E+03 -1.48492E+04 -2.95202E+02 -1.95051E+04  8.40436E+03 -2.36038E+04  1.57933E+04 -1.28903E+04
  1.08718E+04  5.90988E+03 -1.03722E+04  1.26466E+04 -2.27806E+04 -6.07674E+03 -8.39231E+03 -3.66104E+04
  2.48094E+04 -4.64958E+04  5.11795E+04 -2.05037E+04  4.78028E+04  2.03841E+04  1.69824E+04  4.67038E+04
 -1.66133E+04  3.54612E+04 -2.74877E+04  2.84884E+03 -1.12731E+04 -2.87278E+04  2.12505E+04 -3.68769E+04
  4.36480E+04 -1.05703E+04  3.96388E+04  2.49182E+04  2.10637E+04  5.04378E+04 -8.25827E+03  5.49794E+04
 -3.45038E+04  3.73261E+04 -4.69042E+04  1.02860E+04 -4.65768E+04 -1.81036E+04 -2.54347E+04 -4.11367E+04
  7.64870E+03 -4.11583E+04  3.39305E+04 -1.63877E+04  3.15921E+04  1.13052E+04  4.81437E+03  2.03206E+04
 -1.40797E+04  9.48162E+03 -1.14418E+04 -7.44599E+03  5.58879E+03 -1.09464E+04  1.84983E+04  5.46293E+03
  1.48098E+04  2.29530E+04 -5.55118E+03  2.66146E+04 -2.29908E+04  1.38571E+04 -3.04708E+04 -3.57995E+03
 -2.41131E+04 -1.85323E+04 -1.13203E+04 -2.44817E+04  3.95718E+03 -2.45610E+04  1.88214E+04 -2.21824E+04
  3.09404E+04 -1.37617E+04  3.70594E+04  4.90465E+03  2.63500E+04  2.35481E+04  4.12091E+03  3.99300E+04
 -1.96240E+04  3.31583E+04 -3.02692E+04  1.16769E+04 -2.19901E+04 -9.98835E+03 -4.91916E+03 -1.29214E+04
  8.62174E+02 -1.43577E+03 -7.14561E+03  7.96040E+03 -1.95696E+04  5.08223E+03 -1.91796E+04 -9.09321E+03
 -1.15688E+04 -2.25509E+04  6.21343E+03 -2.69222E+04  1.83493E+04 -1.88540E+04  2.17135E+04 -1.74470E+03
  1.39799E+04  1.53995E+04 -1.22661E+03  2.26546E+04 -1.57328E+04  1.28908E+04 -2.29798E+04 -4.32311E+03
 -1.66586E+04 -2.03445E+04 -2.11722E+03 -2.72880E+04  1.17605E+04 -2.29066E+04  2.26598E+04 -1.13413E+04
  2.11748E+04 -1.20485E+02  1.48612E+04  5.20627E+03  8.52122E+03  1.57409E+03  1.16301E+04 -1.93108E+03
  2.16909E+04  2.56662E+03  2.41792E+04  1.80580E+04  1.66570E+04  3.63967E+04 -2.40560E+03  4.21746E+04
 -2.42540E+04  3.53844E+04 -3.99411E+04  1.83572E+04 -4.34128E+04 -3.10179E+03 -3.43835E+04 -2.47965E+04
 -1.39333E+04 -3.57725E+04  1.27937E+04 -3.09013E+04  2.67707E+04 -1.47048E+04  2.34969E+04  7.61851E+03
  7.76714E+03  1.77706E+04 -1.11783E+04  1.52896E+04 -1.92694E+04  2.54272E+03 -1.47179E+04 -1.20853E+04
 -4.91377E+02 -1.86089E+04  9.96820E+03 -1.39044E+04  1.29725E+04 -1.53910E+03  2.98787E+03  8.32453E+03
 -8.28880E+03  3.89538E+03 -9.03988E+03 -6.47036E+03 -1.28634E+03 -1.76525E+04  1.18006E+04 -1.88458E+04
  2.15343E+04 -1.06556E+04  2.53885E+04  3.00438E+03  2.17510E+04  1.77032E+04  9.95157E+03  2.77580E+04
 -5.19696E+03  3.00682E+04 -1.97776E+04  1.83441E+04 -2.12499E+04  3.80488E+03 -1.43560E+04 -5.25431E+03
 -6.13225E+03 -6.97241E+03 -5.84740E+02  4.84457E+02 -2.97249E+03  2.98873E+03 -6.73498E+03  4.79057E+03
 -1.38987E+04 -7.09186E+02 -1.39901E+04 -1.19150E+04 -5.85706E+03 -1.85896E+04  6.38628E+03 -1.50905E+04
  1.27523E+04 -6.54461E+03  8.51816E+03  4.52533E+03 -1.08914E+02  5.81820E+03 -7.67683E+03 -4.23723E+02
 -6.66340E+03 -9.74022E+03 -1.28221E+03 -1.45874E+04  8.77198E+03 -1.55225E+04  1.90521E+04 -8.31766E+03
  2.21224E+04  2.43201E+03  1.59692E+04  1.32478E+04  3.29858E+03  1.80332E+04 -9.17766E+03  1.50205E+04
 -1.20738E+04  4.01664E+03 -6.41653E+03 -3.44475E+03  1.93990E+03 -4.28915E+03  8.21539E+03 -7.33037E+02
  7.08239E+03  6.54346E+03  1.05788E+03  1.21701E+04 -8.59630E+03  1.14781E+04 -1.45600E+04  2.66280E+03
 -1.03785E+04 -7.61070E+03  2.90352E+02 -1.30238E+04  8.42348E+03 -6.85504E+03  8.90942E+03  3.08231E+03
  2.02753E+03  9.64319E+03 -8.17382E+03  1.10117E+04 -1.26380E+04  4.99176E+03 -1.34663E+04 -4.60217E+03
 -7.17428E+03 -1.50762E+04  3.95434E+03 -1.69743E+04  1.49032E+04 -1.02353E+04  1.56799E+04  2.58693E+03
  9.67406E+03  1.24422E+04 -1.11409E+03  1.51337E+04 -1.11022E+04  8.50328E+03 -1.23575E+04 -1.37620E+03
 -1.05557E+04 -1.01808E+04 -1.06517E+03 -1.15489E+04  6.02951E+03 -8.95476E+03  7.43736E+03 -3.33910E+03
  4.92288E+03  2.10944E+03 -1.02205E+03  1.73400E+03 -1.08597E+03 -3.28475E+03  2.70217E+03 -6.96928E+03
  1.07828E+04 -4.53947E+03  1.50233E+04  2.18720E+03  1.48979E+04  1.03081E+04  9.58503E+03  2.01243E+04
 -4.40621E+03  2.24803E+04 -1.91811E+04  1.67302E+04 -2.42650E+04  3.47770E+03 -1.95244E+04 -8.98945E+03
 -9.88395E+03 -1.64198E+04 -3.81647E+02 -1.36498E+04  4.85704E+03 -7.56195E+03  4.59944E+03 -4.95718E+03
  3.41768E+03 -3.15547E+03  3.54375E+03 -3.79155E+03  5.71708E+03 -3.39867E+03  7.91846E+03 -1.65516E+03
  1.03568E+04  2.20303E+03  5.25327E+03  9.11874E+03 -1.94252E+03  1.04213E+04 -1.08130E+04  8.11012E+03
 -1.39834E+04 -1.23435E+03 -8.90697E+03 -9.59172E+03 -1.32054E+03 -1.49409E+04  8.17906E+03 -1.47828E+04
  1.55861E+04 -8.19958E+03  1.87509E+04  2.67051E+03  1.31062E+04  1.30288E+04  2.22579E+03  1.68969E+04
 -6.64166E+03  1.35045E+04 -9.95831E+03  5.03514E+03 -6.49327E+03 -2.07889E+03 -2.97653E+03 -2.41943E+03
 -1.20517E+03  2.42282E+02 -2.34780E+03  2.79862E+03 -5.29410E+03  2.84118E+03 -9.53672E+03 -1.30412E+03
 -6.50777E+03 -9.69006E+03 -1.65046E+02 -1.38119E+04  8.37011E+03 -1.26056E+04  1.35461E+04 -3.95141E+03
  1.33716E+04  6.55932E+03  6.23373E+03  1.22090E+04 -2.94517E+03  1.42318E+04 -9.96100E+03  8.59122E+03
 -1.28604E+04  4.36937E+02 -9.77330E+03 -8.13032E+03 -1.13562E+03 -1.15649E+04  6.13601E+03 -8.92646E+03
  9.00294E+03 -2.57729E+03  6.05791E+03  2.48196E+03  2.05025E+03  4.41593E+03  1.18071E+03  1.91581E+03
  2.84639E+03  1.08636E+03  3.12013E+03  1.87349E+03  4.00423E+03  4.78110E+03  3.89412E+03  7.52967E+03
 -2.98009E+03  1.16025E+04 -9.96156E+03  1.11231E+04 -1.47416E+04  2.92120E+03 -1.50486E+04 -5.53796E+03
 -6.98951E+03 -1.40427E+04  2.22597E+03 -1.53532E+04  8.38553E+03 -9.85921E+03  1.14466E+04 -2.65688E+03
  9.21803E+03  5.00020E+03  2.28437E+03  8.09607E+03 -3.87207E+03  5.46400E+03 -5.64214E+03 -9.30007E+02
 -2.77246E+03 -5.78767E+03  3.07566E+03 -6.00023E+03  6.38999E+03 -3.25206E+03  5.99084E+03  9.97387E+02
  2.92217E+03  2.59925E+03  1.50231E+03  1.98595E+03 -9.35701E+02  1.98233E+03  1.96225E+03 -9.71795E+01
  2.28536E+03 -9.28865E+02  5.92451E+03  2.52732E+03  3.43261E+03  7.79565E+03 -1.16244E+03  9.72302E+03
 -7.23822E+03  6.42371E+03 -9.41899E+03  2.18022E+03 -8.17461E+03 -2.59943E+03 -3.11044E+03 -5.35314E+03
  1.03956E+03 -5.68608E+03  3.77513E+03 -2.37627E+03  3.20906E+03  2.66193E+03 -1.22388E+03  5.00740E+03
 -6.00971E+03  2.64346E+03 -6.83876E+03 -3.69250E+03 -3.90390E+03 -7.77880E+03  1.25010E+03 -7.63857E+03
  5.09198E+03 -4.60558E+03  5.79623E+03 -7.75090E+02  4.32408E+03  2.21223E+03  7.71005E+02  4.14746E+03
 -2.66673E+03  1.09207E+03 -3.81404E+03 -2.83598E+03  1.14381E+03 -5.80354E+03  7.07294E+03 -4.92358E+03
  9.28391E+03  5.67400E+02  8.96111E+03  5.84573E+03  3.11695E+03  1.01121E+04 -3.25027E+03  8.92458E+03
 -7.46687E+03  3.95113E+03 -7.76169E+03 -1.33974E+03 -4.62885E+03 -6.24439E+03  1.35229E+03 -5.41053E+03
  5.71655E+03 -3.04298E+03  5.11396E+03  2.84427E+03  1.68143E+03  5.36397E+03 -5.37414E+02  4.41277E+03
 -2.58507E+03  2.56824E+03 -2.01477E+03  2.74128E+02 -6.04807E+02  1.09533E+03 -1.89863E+03  1.78825E+03
 -2.47697E+03  3.82615E+03 -6.17219E+03  3.11787E+03 -9.48280E+03  3.02525E+02 -1.04627E+04 -5.87828E+03
 -5.35847E+03 -1.26167E+04  2.71099E+03 -1.48323E+04  8.99474E+03 -1.11667E+04  1.37538E+04 -4.75300E+03
  1.28204E+04  2.63728E+03  7.92130E+03  8.92840E+03  2.73027E+02  1.00724E+04 -4.33875E+03  7.27613E+03
 -5.37825E+03  2.92183E+03 -3.10521E+03 -1.37218E+03 -1.23075E+03 -1.15015E+03 -1.09683E+03 -3.62270E+02
 -1.62662E+03  5.39839E+02 -1.92007E+03 -4.57964E+02 -1.03173E+03 -2.30172E+03  8.50352E+02 -3.97831E+03
  4.34753E+03 -2.77455E+03  5.84889E+03 -9.63660E+01  7.03701E+03  5.65778E+03  1.88681E+03  9.04380E+03
 -4.68953E+03  1.11951E+04 -1.01294E+04  6.74378E+03 -1.18792E+04 -1.18889E+03 -8.94501E+03 -7.36573E+03
 -3.82154E+03 -9.96549E+03  2.56434E+03 -8.91828E+03  6.19802E+03 -5.02497E+03  6.07863E+03  3.85777E+02
  4.07712E+03  3.19058E+03 -6.04533E+02  2.55121E+03 -2.14659E+03 -3.61394E+02  3.63744E+02 -2.45446E+03
  3.16857E+03 -1.45807E+03  3.77053E+03  1.58886E+03  3.04023E+03  4.01887E+03  3.10531E+02  4.99859E+03
 -4.65187E+03  4.49319E+03 -6.85748E+03  5.36872E+02 -6.03530E+03 -4.53591E+03 -5.40535E+02 -8.21920E+03
  4.83899E+03 -7.06713E+03  7.78736E+03 -2.40372E+03  7.39495E+03  2.21645E+03  4.32604E+03  6.19792E+03
  1.09500E+03  6.42587E+03 -2.41573E+03  5.53253E+03 -4.17964E+03  2.94093E+03 -3.41727E+03  3.85205E+02
 -1.58289E+03 -1.01411E+02 -2.31126E+03  1.06634E+03 -3.37758E+03  1.92675E+03 -5.04477E+03 -1.21837E+03
 -4.71831E+03 -3.64627E+03 -1.73462E+03 -6.59240E+03  2.63331E+03 -6.57120E+03  6.13444E+03 -3.23491E+03
  6.84077E+03  8.29356E+02  3.85532E+03  4.58941E+03 -3.55545E+02  6.40221E+03 -5.21907E+03  4.21906E+03
