 $NMID ID='MM_0lb_SNR800_20hz_g40_22.RAW', FMTDAT='(8E13.5)'
 TRAMP=1., VOLUME=1. $END
  3.09687E+05  3.22244E+02  3.37070E+05  2.50284E+05  8.42428E+04  3.37131E+05 -1.32211E+05  2.49737E+05
 -1.89358E+05  8.21068E+04 -1.10456E+05 -3.28105E+04  1.93152E+03 -5.02967E+04  5.38977E+04  4.58359E+02
  3.50564E+04  5.27575E+04 -1.71341E+04  7.46411E+04 -5.99029E+04  6.21390E+04 -8.21699E+04  3.12630E+04
 -7.88259E+04 -1.09871E+04 -5.58942E+04 -4.95235E+04 -1.51804E+04 -6.72802E+04  2.64028E+04 -4.43187E+04
  3.83570E+04  4.06543E+03  1.52343E+04  4.67875E+04 -3.37594E+04  4.59279E+04 -6.44904E+04 -7.30859E+02
 -5.12513E+04 -5.53977E+04 -5.97807E+03 -7.41447E+04  3.28914E+04 -5.21691E+04  4.51282E+04 -1.57434E+04
  4.05305E+04  1.08814E+04  3.00416E+04  2.39407E+04  1.56599E+04  2.76281E+04 -4.31128E+03  2.64106E+04
 -2.14869E+04  1.32429E+04 -1.93497E+04 -3.81245E+03  3.46143E+03 -7.67742E+03  2.08131E+04  1.01173E+04
  7.35632E+03  3.21767E+04 -2.94678E+04  3.32868E+04 -5.98260E+04  2.12530E+03 -5.44201E+04 -4.03745E+04
 -1.22185E+04 -5.94444E+04  3.73634E+04 -4.23762E+04  5.39176E+04 -1.81497E+03  3.08791E+04  2.95596E+04
 -6.83263E+03  3.17602E+04 -2.76054E+04  1.19060E+04 -2.61220E+04 -5.59318E+03 -1.31623E+04 -9.67999E+03
 -6.95221E+03 -1.06504E+04 -1.21056E+03 -1.60573E+04  6.07668E+03 -2.23109E+04  1.47463E+04 -1.44705E+04
  1.25386E+04  3.65574E+03 -5.18302E+03  1.30746E+04 -1.83706E+04 -1.52577E+03 -7.96763E+03 -2.84664E+04
  1.96340E+04 -3.89935E+04  4.29665E+04 -1.82289E+04  4.02666E+04  1.78651E+04  1.35336E+04  4.04271E+04
 -1.49807E+04  2.97573E+04 -2.22128E+04  6.83356E+02 -7.50636E+03 -2.55379E+04  2.04365E+04 -2.96556E+04
  3.65049E+04 -6.65022E+03  2.91165E+04  2.21758E+04  1.40196E+04  4.06505E+04 -7.64155E+03  4.30246E+04
 -2.69131E+04  2.78781E+04 -3.50923E+04  7.92293E+03 -3.62915E+04 -1.45292E+04 -2.02350E+04 -3.28060E+04
  6.73990E+03 -3.23634E+04  2.80463E+04 -1.19165E+04  2.58926E+04  1.04503E+04  2.22055E+03  1.69529E+04
 -1.27849E+04  6.71895E+03 -9.28631E+03 -7.57593E+03  5.85386E+03 -9.60629E+03  1.69717E+04  6.72224E+03
  1.17574E+04  2.12287E+04 -6.98342E+03  2.24566E+04 -2.09169E+04  8.11302E+03 -2.35828E+04 -7.09901E+03
 -1.50728E+04 -1.61133E+04 -4.22176E+03 -1.51539E+04  3.60396E+03 -1.25385E+04  1.11220E+04 -1.27762E+04
  1.89468E+04 -1.10131E+04  2.58762E+04  9.28511E+01  1.98067E+04  1.47787E+04  3.92108E+03  3.05003E+04
 -1.52902E+04  2.62882E+04 -2.49638E+04  8.89626E+03 -1.88754E+04 -1.04512E+04 -3.63859E+03 -1.40617E+04
  2.82363E+03 -4.85970E+03 -1.81089E+03  4.79911E+03 -1.16019E+04  5.38048E+03 -1.19947E+04 -4.14579E+03
 -7.82483E+03 -1.38879E+04  4.16435E+03 -1.77110E+04  1.12211E+04 -1.26840E+04  1.28312E+04 -1.40053E+03
  7.77043E+03  1.00515E+04 -6.51776E+02  1.42219E+04 -8.81305E+03  7.90725E+03 -1.39183E+04 -3.10297E+03
 -1.05270E+04 -1.29926E+04 -1.22555E+03 -1.74945E+04  7.93953E+03 -1.40839E+04  1.47500E+04 -6.37003E+03
  1.32989E+04  8.80985E+02  9.46431E+03  3.63999E+03  4.48757E+03  2.69929E+02  6.72811E+03 -1.16623E+03
  1.25450E+04  2.91332E+03  1.25928E+04  1.15384E+04  7.73838E+03  2.24432E+04 -3.02404E+03  2.32905E+04
 -1.41509E+04  1.73597E+04 -2.13362E+04  7.67916E+03 -2.15250E+04 -1.45406E+03 -1.87179E+04 -1.23193E+04
 -9.28951E+03 -1.76850E+04  5.48079E+03 -1.68187E+04  1.48484E+04 -1.01244E+04  1.39730E+04  2.99041E+03
  6.33571E+03  9.63735E+03 -6.05450E+03  9.62140E+03 -1.23082E+04  2.50532E+03 -9.39608E+03 -7.09855E+03
 -2.66926E+02 -1.12766E+04  5.24964E+03 -8.77370E+03  7.11044E+03 -1.36969E+03  9.08661E+02  4.28243E+03
 -4.88873E+03  9.69062E+02 -2.81361E+03 -4.04250E+03  9.36165E+02 -8.96205E+03  7.04726E+03 -8.39769E+03
  1.09030E+04 -3.60636E+03  9.83986E+03  2.55466E+03  8.49075E+03  8.17083E+03  4.03389E+03  1.16607E+04
 -1.06602E+03  1.34958E+04 -7.84815E+03  8.64642E+03 -9.30348E+03  2.77786E+03 -7.34079E+03 -1.17507E+03
 -4.19372E+03 -2.94207E+03 -8.72069E+02  1.69038E+03 -1.82138E+03  1.45794E+03 -2.98016E+03  3.29329E+03
 -7.09272E+03 -6.71405E+02 -7.73174E+03 -6.50534E+03 -3.21950E+03 -1.05955E+04  3.10632E+03 -7.33672E+03
  6.22563E+03 -3.38024E+03  4.74082E+03  1.82322E+03  7.58326E+02  2.53881E+03 -2.99143E+03 -2.43984E+02
 -2.86456E+03 -4.56511E+03 -5.01722E+02 -6.22170E+03  3.17726E+03 -6.82058E+03  8.53311E+03 -3.18801E+03
  9.91671E+03  3.61925E+02  7.57256E+03  4.81274E+03  1.66508E+03  7.33017E+03 -4.45720E+03  6.93688E+03
 -6.17024E+03  2.73359E+03 -3.15783E+03 -8.59936E+02  1.06698E+03 -1.42935E+03  4.36725E+03 -9.99332E+02
  3.76782E+03  3.06685E+03  1.30019E+03  5.52291E+03 -3.77108E+03  5.92897E+03 -6.96522E+03  1.82557E+03
 -4.17693E+03 -3.18263E+03  2.02809E+02 -5.64376E+03  2.96889E+03 -2.75191E+03  2.78888E+03  6.71523E+02
  2.47376E+02  2.31903E+03 -3.55470E+03  3.88551E+03 -3.30174E+03  2.07117E+03 -3.08155E+03 -4.04949E+02
 -2.57082E+03 -4.76236E+03  7.99845E+02 -5.72795E+03  5.03962E+03 -4.00137E+03  5.29586E+03  4.46873E+02
  3.89060E+03  4.42367E+03  2.32329E+02  6.32111E+03 -4.16296E+03  3.51583E+03 -4.16260E+03 -2.92052E+02
 -4.90491E+03 -4.34348E+03 -1.52134E+03 -4.30502E+03  1.88174E+03 -4.16737E+03  2.32776E+03 -2.93079E+03
  2.71385E+03 -8.73858E+01  2.87805E+02  1.34089E+03  7.17151E+02  2.76709E+02 -2.77927E+02 -1.48092E+03
  3.01517E+03 -5.19417E+02  4.05453E+03  5.16621E+02  4.31183E+03  2.29578E+03  4.56024E+03  5.54093E+03
 -4.50718E+02  6.55914E+03 -6.17021E+03  5.29065E+03 -8.40207E+03  1.07739E+03 -6.20843E+03 -1.85403E+03
 -3.66826E+03 -5.25365E+03 -3.54087E+02 -4.05544E+03  1.75044E+03 -1.34160E+03  1.27318E+03 -1.56164E+03
  9.69130E+02 -1.29698E+03  1.86983E+03 -2.26301E+03  3.46142E+03 -9.54392E+02  3.07468E+03  4.63415E+02
  3.73280E+03  1.12236E+03  5.50622E+02  2.84600E+03 -1.58145E+03  1.73648E+03 -3.58855E+03  2.12286E+03
 -3.92085E+03 -8.11409E+02 -1.16156E+03 -2.47769E+03  2.97147E+02 -3.99967E+03  2.82507E+03 -4.25764E+03
  3.73820E+03 -3.00701E+03  5.59645E+03  3.89191E+01  3.95035E+03  2.96694E+03  1.01585E+03  4.94775E+03
 -1.83492E+03  5.01792E+03 -2.71208E+03  1.76216E+03 -1.33821E+03 -9.66240E+02 -1.95263E+02 -2.94658E+02
 -1.82357E+02  4.59302E+02 -7.92152E+02  1.93130E+03 -2.17655E+03  1.01902E+03 -3.47018E+03 -2.14620E+02
 -1.26205E+03 -3.59019E+03  6.59324E+02 -3.55930E+03  1.99510E+03 -3.48579E+03  2.51031E+03 -7.64897E+02
  3.11381E+03  2.10838E+03  1.42571E+03  2.38129E+03 -4.63061E+02  3.49062E+03 -1.80362E+03  2.19326E+03
 -3.01454E+03  5.19119E+02 -2.77465E+03 -1.66445E+03 -2.66735E+02 -2.13246E+03  1.11371E+03 -1.82125E+03
  2.11131E+03 -1.47493E+03  1.23364E+03  2.66649E+02  1.44625E+02  1.46946E+03  7.01642E+02  3.18582E+02
  1.38028E+03  5.62227E+02  1.11331E+03  9.35272E+02  7.31687E+02  1.81638E+03  1.29044E+03  1.12568E+03
 -1.14489E+03  2.24288E+03 -1.61576E+03  3.46968E+03 -2.18056E+03  1.31229E+03 -3.43644E+03 -1.83526E+02
 -1.30446E+03 -2.60250E+03  2.04400E+02 -3.63757E+03  1.29398E+03 -2.10596E+03  2.22783E+03 -8.44479E+02
  2.02728E+03  1.48937E+03  2.81759E+02  1.95886E+03 -6.60822E+02  1.12500E+03 -6.95151E+02  1.84705E+02
 -4.94160E+02 -1.17343E+03  9.07209E+02 -1.16992E+03  1.00382E+03 -8.80513E+02  8.38475E+02  4.24318E+02
  7.26188E+02  5.93235E+01  8.24785E+02 -4.01223E+02 -3.32231E+02  4.01627E+02  1.47529E+03 -9.92228E+01
 -8.05969E+01  1.69298E+01  1.49439E+03  4.55998E+02  2.25663E+02  1.78286E+03 -2.73037E+02  2.15997E+03
 -1.02888E+03  8.51294E+02 -1.51852E+03 -3.79666E+01 -1.46993E+03 -5.58174E+02  4.47923E+01 -8.87941E+02
  2.86873E+02 -1.02512E+03  8.34785E+02 -6.17911E+02  6.36214E+02  1.27025E+03 -9.94492E+02  1.00770E+03
 -1.03595E+03  5.11046E+02 -7.61660E+02 -1.21596E+03 -4.08706E+02 -1.72047E+03  9.87568E+01 -1.38797E+03
  2.07731E+02 -2.93767E+02  2.07793E+02  4.86424E+02  8.99540E+02 -1.46210E+02  9.91275E+01  8.91216E+02
  3.56302E+01  1.31587E+02 -7.67769E+02 -1.74056E+01  7.85834E+02 -6.70463E+02  1.27663E+03 -8.72596E+02
  7.05927E+02  2.15185E+01  2.48930E+03  4.62917E+02  1.07779E+03  1.30706E+03 -2.06959E+02  1.60416E+03
 -1.01002E+03 -9.13725E+01 -7.05997E+02 -3.03101E+02 -6.18711E+02 -9.38814E+02  2.48380E+02 -2.78476E+02
  1.09214E+03 -5.81187E+02  3.85914E+02  4.74876E+02  6.95094E+01  9.26391E+02  2.50381E+02  9.42827E+02
 -3.61561E+02  8.75960E+02 -5.54334E+02  3.48860E+02  1.89241E+02  4.23258E+02 -6.23308E+02  7.88808E+02
 -6.78273E+02  7.11313E+02 -1.73240E+03  1.77093E+02 -1.25899E+03 -5.22004E+01 -1.68606E+03 -9.04921E+02
 -7.79220E+02 -1.59522E+03  3.42303E+02 -2.24115E+03  7.35196E+02 -1.83304E+03  2.21056E+03 -9.22788E+02
  1.77113E+03 -1.76098E+02  7.33571E+02  1.42208E+03 -3.74631E+02  9.64377E+02 -4.73157E+02  9.11392E+02
 -6.23623E+02  5.91740E+02 -2.02089E+02 -3.18843E+02 -1.52532E+02  5.25963E+02 -6.06502E+02  3.20862E+01
 -1.17876E+03 -1.48224E+02 -6.95865E+02  2.89966E+02  5.29520E+02 -5.91589E+02 -2.60708E+02 -1.00200E+03
  1.11653E+03 -4.95112E+02  1.37105E+02  3.00621E+02  6.11887E+02  8.83815E+02 -5.87281E+02  9.67254E+02
 -7.36748E+02  1.82965E+03 -1.12501E+03  1.06395E+03 -1.08777E+03  1.86065E+02 -7.06972E+02 -9.30448E+02
 -1.06620E+03 -8.14704E+02  1.70906E+02 -7.84452E+02  5.77537E+02 -2.88843E+02  4.44401E+02 -2.03509E+01
  6.52571E+02  2.00164E+02  1.23782E+02  3.48893E+02 -4.12493E+02  2.19301E+02 -4.35549E+02 -4.04865E+02
  4.89080E+02  4.73001E+02  1.73048E+02  5.60668E+02 -1.62413E+02  3.73638E+02  2.73061E+02  1.89809E+02
 -3.42713E+02  1.13854E+02 -2.63032E+02 -7.80177E+00 -1.40804E+02 -2.57653E+02  7.76058E+01 -9.91290E+02
  5.58823E+02 -3.73923E+02  3.26357E+01  5.15856E+01  7.12672E+02 -6.36018E+02  2.30867E+02  3.97321E+02
  4.40179E+02  3.05819E+02 -1.34788E+02  4.28060E+02 -5.25374E+02  4.63484E+02 -4.50771E+02 -1.33562E+01
  1.32764E+01 -3.02392E+01 -3.78582E+02 -7.49269E-01 -4.87685E+02  1.80919E+02 -8.24094E+02 -3.60743E+02
 -1.15502E+03  3.14691E+02 -3.21071E+02 -6.52504E+02  7.84578E+02 -1.45967E+03  5.96868E+02 -2.62105E+02
  8.04581E+02  1.78176E+02 -4.14876E+02  1.42676E+02 -6.66938E+01  6.08934E+02 -1.13396E+02  4.37385E+02
