 $NMID ID='MM_0lb_SNR800_17hz_g45_83.RAW', FMTDAT='(8E13.5)'
 TRAMP=1., VOLUME=1. $END
  3.09895E+05  2.51719E+02  3.37525E+05  2.50418E+05  8.45920E+04  3.37464E+05 -1.32288E+05  2.50326E+05
 -1.89807E+05  8.25976E+04 -1.11324E+05 -3.29350E+04  1.45127E+03 -5.02449E+04  5.38772E+04  2.33207E+02
  3.53107E+04  5.30005E+04 -1.72500E+04  7.52872E+04 -6.03236E+04  6.30969E+04 -8.31961E+04  3.17091E+04
 -7.99131E+04 -1.13337E+04 -5.66985E+04 -5.02473E+04 -1.50347E+04 -6.81511E+04  2.70199E+04 -4.50554E+04
  3.91789E+04  3.91165E+03  1.53231E+04  4.72936E+04 -3.40654E+04  4.64625E+04 -6.56254E+04 -3.27346E+02
 -5.23152E+04 -5.61436E+04 -6.36756E+03 -7.56764E+04  3.33321E+04 -5.34592E+04  4.69602E+04 -1.66274E+04
  4.20653E+04  1.10287E+04  3.10564E+04  2.47607E+04  1.58602E+04  2.85900E+04 -4.99757E+03  2.67774E+04
 -2.17240E+04  1.27213E+04 -1.91092E+04 -4.61193E+03  4.51160E+03 -7.48599E+03  2.15628E+04  1.11210E+04
  7.57505E+03  3.37869E+04 -3.10714E+04  3.43774E+04 -6.15947E+04  2.08541E+03 -5.56202E+04 -4.15554E+04
 -1.22546E+04 -6.16675E+04  3.87226E+04 -4.39432E+04  5.59763E+04 -2.00575E+03  3.25336E+04  3.11491E+04
 -6.43938E+03  3.37197E+04 -2.87194E+04  1.39250E+04 -2.85779E+04 -4.99292E+03 -1.49926E+04 -1.03068E+04
 -7.61281E+03 -1.19244E+04 -1.06490E+03 -1.66827E+04  6.79770E+03 -2.27634E+04  1.48711E+04 -1.36538E+04
  1.18218E+04  4.46411E+03 -6.75681E+03  1.28875E+04 -1.98411E+04 -2.91409E+03 -8.02507E+03 -3.14769E+04
  2.14368E+04 -4.13490E+04  4.56137E+04 -1.92551E+04  4.27064E+04  1.83999E+04  1.44160E+04  4.24230E+04
 -1.53764E+04  3.14284E+04 -2.36871E+04  1.43458E+03 -8.85049E+03 -2.65190E+04  2.06127E+04 -3.18245E+04
  3.89497E+04 -7.70390E+03  3.26198E+04  2.28152E+04  1.59540E+04  4.36152E+04 -7.59476E+03  4.65712E+04
 -2.95081E+04  3.08706E+04 -3.87265E+04  8.55582E+03 -3.92695E+04 -1.56339E+04 -2.15213E+04 -3.54226E+04
  7.08106E+03 -3.49300E+04  2.98364E+04 -1.31552E+04  2.74235E+04  1.06682E+04  3.21957E+03  1.80349E+04
 -1.31256E+04  7.61401E+03 -9.62569E+03 -7.73693E+03  5.82526E+03 -9.97414E+03  1.72682E+04  6.29682E+03
  1.27368E+04  2.17356E+04 -6.56224E+03  2.36988E+04 -2.18422E+04  9.88712E+03 -2.59340E+04 -5.91920E+03
 -1.75217E+04 -1.67320E+04 -6.04169E+03 -1.76529E+04  3.93809E+03 -1.60206E+04  1.34842E+04 -1.54425E+04
  2.23982E+04 -1.19405E+04  2.93970E+04  1.32751E+03  2.15243E+04  1.69177E+04  3.86657E+03  3.34559E+04
 -1.65277E+04  2.82840E+04 -2.62926E+04  9.59840E+03 -2.01543E+04 -1.05121E+04 -3.91180E+03 -1.35678E+04
  2.50813E+03 -3.76251E+03 -3.33121E+03  5.65038E+03 -1.37160E+04  5.27166E+03 -1.39727E+04 -5.74693E+03
 -9.14235E+03 -1.62894E+04  4.77010E+03 -2.02522E+04  1.33819E+04 -1.46707E+04  1.52749E+04 -1.43638E+03
  9.78881E+03  1.14445E+04 -9.82135E+02  1.67119E+04 -1.09385E+04  8.84164E+03 -1.65081E+04 -3.54920E+03
 -1.20395E+04 -1.51868E+04 -1.60017E+03 -1.99912E+04  8.92532E+03 -1.60586E+04  1.69524E+04 -7.88556E+03
  1.54850E+04  5.32741E+02  1.11602E+04  3.86180E+03  5.66343E+03  6.29320E+02  8.15435E+03 -1.61278E+03
  1.46025E+04  2.66322E+03  1.58271E+04  1.30450E+04  9.74990E+03  2.60974E+04 -3.13065E+03  2.86520E+04
 -1.67262E+04  2.23453E+04 -2.62972E+04  1.07462E+04 -2.71204E+04 -2.02869E+03 -2.28296E+04 -1.57219E+04
 -1.04606E+04 -2.21274E+04  7.57057E+03 -2.05569E+04  1.77934E+04 -1.14337E+04  1.67919E+04  4.44193E+03
  6.58641E+03  1.19125E+04 -7.35049E+03  1.10831E+04 -1.43579E+04  2.78404E+03 -1.04781E+04 -8.56458E+03
 -2.21378E+02 -1.31462E+04  6.77969E+03 -1.01297E+04  8.62606E+03 -1.52632E+03  1.59888E+03  5.25606E+03
 -5.77343E+03  1.62426E+03 -4.17521E+03 -4.82310E+03  1.73022E+02 -1.11012E+04  8.37607E+03 -1.08057E+04
  1.34248E+04 -5.22061E+03  1.32866E+04  2.80038E+03  1.14052E+04  1.04876E+04  5.21073E+03  1.53645E+04
 -2.35980E+03  1.74905E+04 -1.09282E+04  1.07807E+04 -1.21173E+04  3.11565E+03 -9.17912E+03 -2.74300E+03
 -4.63266E+03 -3.41380E+03 -7.51571E+02  1.65807E+03 -1.85636E+03  2.07594E+03 -4.00730E+03  3.63143E+03
 -8.47808E+03 -6.11735E+02 -9.45291E+03 -7.88741E+03 -3.58828E+03 -1.22133E+04  3.64164E+03 -9.07785E+03
  7.62205E+03 -3.91501E+03  5.73380E+03  2.49353E+03  4.78621E+02  3.31394E+03 -3.88249E+03 -9.43989E+01
 -3.84621E+03 -5.88157E+03 -6.78682E+02 -7.99459E+03  4.62002E+03 -8.82714E+03  1.06896E+04 -4.25555E+03
  1.29893E+04  6.69804E+02  9.55259E+03  7.01918E+03  1.92279E+03  9.78501E+03 -5.78672E+03  8.82330E+03
 -7.39154E+03  3.00966E+03 -3.90528E+03 -1.54925E+03  1.04588E+03 -2.27481E+03  5.03226E+03 -1.10815E+03
  4.49782E+03  3.66403E+03  1.21391E+03  6.90575E+03 -5.12394E+03  6.98248E+03 -8.62131E+03  2.05201E+03
 -5.54516E+03 -3.94472E+03  4.17569E+02 -7.00675E+03  4.29245E+03 -3.35208E+03  4.07281E+03  1.11995E+03
  9.19875E+02  3.92950E+03 -4.35961E+03  5.27288E+03 -5.92956E+03  2.58341E+03 -5.25747E+03 -1.18170E+03
 -3.68212E+03 -7.05407E+03  1.57571E+03 -8.02617E+03  6.80103E+03 -5.26198E+03  7.33008E+03  1.20865E+03
  5.27585E+03  5.73805E+03  1.84571E+02  8.16595E+03 -5.83169E+03  4.63699E+03 -5.94735E+03 -4.08660E+02
 -6.07208E+03 -5.62605E+03 -1.37687E+03 -5.34938E+03  3.03515E+03 -5.10826E+03  3.46273E+03 -2.93416E+03
  3.10297E+03  2.46522E+02 -1.00907E+02  1.30950E+03  5.37703E+02 -4.67599E+02  4.17432E+02 -2.25492E+03
  4.51963E+03 -1.11085E+03  6.49226E+03  6.57307E+02  6.27523E+03  3.91682E+03  5.70949E+03  8.24320E+03
 -1.62529E+03  9.92350E+03 -8.66687E+03  7.73084E+03 -1.12159E+04  1.36266E+03 -8.99392E+03 -3.15585E+03
 -4.76852E+03 -7.14360E+03 -1.91434E+02 -5.96504E+03  2.37349E+03 -2.99651E+03  2.13839E+03 -2.47371E+03
  1.54153E+03 -1.51917E+03  2.55806E+03 -2.46137E+03  3.84957E+03 -1.16343E+03  3.86392E+03  4.07809E+02
  5.15841E+03  1.27594E+03  1.36474E+03  3.91257E+03 -1.62101E+03  3.70893E+03 -5.33281E+03  3.28142E+03
 -5.84262E+03 -8.52600E+02 -2.75839E+03 -3.90358E+03  6.44694E+02 -6.14239E+03  3.78833E+03 -6.34166E+03
  6.01821E+03 -3.80222E+03  7.71063E+03  4.56193E+02  5.93116E+03  5.15962E+03  8.96829E+02  7.10671E+03
 -2.64914E+03  6.66125E+03 -4.02875E+03  2.23921E+03 -2.35995E+03 -7.08021E+02 -6.21482E+02 -7.38220E+02
 -4.27556E+02  2.42884E+02 -1.28171E+03  1.95637E+03 -2.95711E+03  1.14356E+03 -4.58597E+03 -4.00656E+02
 -2.04942E+03 -4.76669E+03  9.42355E+02 -5.41581E+03  3.50015E+03 -5.20504E+03  4.41190E+03 -1.20660E+03
  5.01753E+03  2.69236E+03  2.30313E+03  4.35642E+03 -1.22596E+03  5.53489E+03 -2.94602E+03  3.27213E+03
 -4.41133E+03  6.05104E+02 -4.00028E+03 -2.69895E+03 -3.06692E+02 -3.95144E+03  1.99410E+03 -3.05903E+03
  3.06344E+03 -1.18099E+03  2.21375E+03  4.29212E+02  5.54934E+02  2.18965E+03  1.10882E+03  7.92886E+02
  1.83891E+03  6.39385E+02  1.49333E+03  1.13129E+03  1.38035E+03  2.37687E+03  1.57402E+03  2.21685E+03
 -1.41678E+03  3.58248E+03 -3.16104E+03  4.66991E+03 -4.13114E+03  1.42426E+03 -5.17362E+03 -1.02185E+03
 -2.05033E+03 -4.44685E+03  8.25794E+02 -5.34067E+03  2.33398E+03 -3.15364E+03  3.87947E+03 -8.33701E+02
  2.90524E+03  2.21646E+03  4.88933E+02  2.79900E+03 -9.58407E+02  1.73817E+03 -1.39373E+03 -2.11800E+02
 -1.04518E+03 -2.03726E+03  1.50366E+03 -1.64101E+03  1.59407E+03 -1.15642E+03  1.72506E+03  3.33049E+02
  8.73320E+02  1.85077E+02  7.22873E+02  8.74097E+01 -6.18313E+01  9.03744E+02  1.96803E+03 -5.08356E+01
  1.70012E+02 -3.28626E+02  2.09936E+03  4.35406E+02  6.06045E+02  2.74418E+03 -3.71878E+02  3.55662E+03
 -2.16294E+03  1.56105E+03 -2.75589E+03  4.44280E+02 -2.78740E+03 -1.21849E+03 -6.37687E+01 -1.31879E+03
  5.14106E+02 -1.58991E+03  9.81775E+02 -8.72138E+02  8.62506E+02  1.46119E+03 -7.97401E+02  1.41716E+03
 -1.89886E+03  9.38536E+02 -1.81296E+03 -1.41619E+03 -8.15403E+02 -2.52872E+03  1.12856E+02 -2.06735E+03
  8.91243E+02 -6.33559E+02  1.17451E+03  8.05428E+01  1.42900E+03  7.86471E+01  4.96721E+02  1.43818E+03
 -5.98489E+02  1.89219E+02 -1.39372E+03 -2.76192E+02  5.35329E+02 -1.08907E+03  2.11542E+03 -1.36856E+03
  1.91339E+03  3.37705E+02  3.26073E+03  1.22603E+03  1.31205E+03  2.31798E+03 -4.64034E+02  2.44679E+03
 -1.79470E+03  6.86461E+02 -1.95721E+03 -4.03457E+02 -1.40651E+03 -1.68893E+03  4.82152E+02 -1.01864E+03
  1.76996E+03 -7.02150E+02  1.08698E+03  6.32416E+02  2.52899E+02  1.81329E+03  5.84933E+00  1.16709E+03
 -4.60503E+02  1.15636E+03 -8.07669E+02  2.06400E+02 -3.35051E+02  4.99437E+02 -8.59897E+02  1.08888E+03
 -6.15276E+02  1.34678E+03 -2.23511E+03  6.37636E+02 -2.30201E+03 -9.18000E+00 -3.07831E+03 -1.54039E+03
 -1.43525E+03 -2.76510E+03  8.42889E+02 -3.45583E+03  1.66704E+03 -3.03959E+03  3.72585E+03 -1.30397E+03
  3.13614E+03  1.67486E+02  1.62779E+03  2.18011E+03 -3.14270E+02  2.41776E+03 -1.03673E+03  1.81177E+03
 -1.18075E+03  7.97779E+02 -6.40616E+02 -1.27631E+02 -3.91547E+02  2.55557E+02 -6.94755E+02  2.19822E+02
 -1.11753E+03  2.44911E+01 -9.95949E+02  7.56987E+01  2.80996E+02 -7.78370E+02 -1.65268E+02 -1.01950E+03
  1.57156E+03 -8.86452E+02  9.20528E+02  1.89622E+01  1.52876E+03  1.28198E+03 -2.72883E+02  2.02918E+03
 -1.09889E+03  2.97993E+03 -2.20530E+03  1.63438E+03 -2.62240E+03 -2.00273E+01 -1.59086E+03 -1.82756E+03
 -1.17064E+03 -2.10598E+03  2.87141E+02 -1.67834E+03  1.02307E+03 -7.68801E+02  8.71674E+02  1.30205E+02
  4.32895E+02  5.67368E+02  1.14113E+02  3.61436E+02 -4.86017E+02  2.56994E+02 -2.38879E+02 -2.89686E+02
  7.05882E+02  5.40152E+01  6.32402E+02  6.39117E+02  3.50226E+02  6.10927E+02  6.26385E+02  6.25520E+02
 -6.73070E+02  8.22252E+02 -1.01638E+03 -1.09379E+02 -1.07445E+03 -6.10190E+02  3.51241E+01 -1.50495E+03
  9.79445E+02 -1.02295E+03  1.05739E+03 -5.20472E+01  1.29553E+03 -6.76943E+02  8.32189E+02  9.80540E+02
  5.39557E+02  6.72230E+02 -4.59820E+02  8.74169E+02 -9.22519E+02  5.87190E+02 -5.73672E+02  1.80431E+02
  1.28917E+02  1.93012E+01 -5.60601E+02 -1.17091E+02 -9.11257E+02  3.62827E+02 -1.06554E+03 -4.79334E+02
 -1.24448E+03 -1.21377E+02 -2.74860E+02 -1.18956E+03  8.63044E+02 -1.74318E+03  6.58487E+02 -2.41965E+02
  1.11401E+03  1.79812E+02 -1.10567E+02  6.41317E+02 -6.78393E+01  1.22107E+03 -7.74399E+02  1.02748E+03
