 $NMID ID='MM_0lb_SNR800_12hz_g40_8.RAW', FMTDAT='(8E13.5)'
 TRAMP=1., VOLUME=1. $END
  3.09692E+05  2.13764E+02  3.37540E+05  2.50300E+05  8.45765E+04  3.37830E+05 -1.32580E+05  2.50794E+05
 -1.90022E+05  8.34563E+04 -1.12132E+05 -3.24059E+04  7.87463E+02 -5.05381E+04  5.34705E+04 -3.95492E+02
  3.53361E+04  5.26790E+04 -1.68266E+04  7.56156E+04 -6.10305E+04  6.34660E+04 -8.43794E+04  3.19354E+04
 -8.12139E+04 -1.10316E+04 -5.73671E+04 -5.11105E+04 -1.49650E+04 -6.99515E+04  2.76792E+04 -4.59513E+04
  4.04829E+04  4.24340E+03  1.62233E+04  4.79327E+04 -3.42666E+04  4.74675E+04 -6.69344E+04 -2.87793E+02
 -5.37508E+04 -5.69827E+04 -6.70728E+03 -7.72363E+04  3.44548E+04 -5.51142E+04  4.83794E+04 -1.76122E+04
  4.35068E+04  1.14956E+04  3.17600E+04  2.60817E+04  1.57106E+04  2.94699E+04 -5.09249E+03  2.73530E+04
 -2.22408E+04  1.21910E+04 -1.83121E+04 -4.84936E+03  5.74939E+03 -7.33320E+03  2.26506E+04  1.23105E+04
  7.53734E+03  3.57553E+04 -3.24194E+04  3.53772E+04 -6.36056E+04  2.26874E+03 -5.73186E+04 -4.32413E+04
 -1.29041E+04 -6.33733E+04  4.01577E+04 -4.55442E+04  5.86821E+04 -2.35678E+03  3.47728E+04  3.24173E+04
 -6.10109E+03  3.66337E+04 -3.03889E+04  1.63658E+04 -3.08525E+04 -4.18220E+03 -1.74183E+04 -1.12054E+04
 -8.58992E+03 -1.32537E+04 -4.73925E+02 -1.83342E+04  7.54491E+03 -2.26120E+04  1.54669E+04 -1.32506E+04
  1.11866E+04  5.48693E+03 -8.45075E+03  1.30607E+04 -2.14194E+04 -4.90037E+03 -8.41741E+03 -3.42650E+04
  2.31971E+04 -4.42331E+04  4.90538E+04 -1.99346E+04  4.52571E+04  1.96183E+04  1.61075E+04  4.48480E+04
 -1.62182E+04  3.40275E+04 -2.60272E+04  1.77339E+03 -1.02712E+04 -2.79977E+04  2.08507E+04 -3.40794E+04
  4.15808E+04 -9.72733E+03  3.63468E+04  2.41623E+04  1.88958E+04  4.71927E+04 -8.36622E+03  5.14912E+04
 -3.25198E+04  3.42961E+04 -4.26994E+04  9.74373E+03 -4.34833E+04 -1.73758E+04 -2.42825E+04 -3.87890E+04
  7.51019E+03 -3.86411E+04  3.18062E+04 -1.53961E+04  2.94444E+04  1.08657E+04  4.13279E+03  1.95688E+04
 -1.35333E+04  8.61040E+03 -1.02927E+04 -7.67213E+03  5.64804E+03 -1.09077E+04  1.79104E+04  6.03582E+03
  1.37853E+04  2.21031E+04 -6.15945E+03  2.56211E+04 -2.26262E+04  1.20161E+04 -2.85110E+04 -4.41397E+03
 -2.15854E+04 -1.80244E+04 -8.83664E+03 -2.14015E+04  4.47117E+03 -2.08144E+04  1.64633E+04 -1.91887E+04
  2.73349E+04 -1.33114E+04  3.30674E+04  3.21262E+03  2.45568E+04  2.07179E+04  4.37250E+03  3.71260E+04
 -1.80243E+04  3.11474E+04 -2.82738E+04  1.06985E+04 -2.13272E+04 -1.02286E+04 -4.48419E+03 -1.32938E+04
  1.45773E+03 -2.48633E+03 -5.29137E+03  6.96158E+03 -1.71023E+04  4.90434E+03 -1.70106E+04 -7.03845E+03
 -1.06168E+04 -2.00966E+04  5.48480E+03 -2.37606E+04  1.60397E+04 -1.72682E+04  1.91816E+04 -1.96892E+03
  1.19964E+04  1.40761E+04 -1.04064E+03  2.00228E+04 -1.39392E+04  1.13835E+04 -1.98065E+04 -4.17690E+03
 -1.48797E+04 -1.77860E+04 -1.83630E+03 -2.37849E+04  1.09784E+04 -1.99988E+04  1.99030E+04 -9.99355E+03
  1.85287E+04  3.72307E+02  1.36623E+04  4.53678E+03  7.10766E+03  7.65359E+02  1.01204E+04 -1.60594E+03
  1.86561E+04  2.58661E+03  2.08045E+04  1.55091E+04  1.39640E+04  3.16028E+04 -2.61509E+03  3.65327E+04
 -2.11473E+04  2.92232E+04 -3.39581E+04  1.47084E+04 -3.59717E+04 -3.05968E+03 -2.95745E+04 -2.07901E+04
 -1.24226E+04 -2.99515E+04  9.96180E+03 -2.63068E+04  2.30290E+04 -1.33440E+04  2.01887E+04  6.06877E+03
  7.66305E+03  1.49305E+04 -9.80490E+03  1.32373E+04 -1.72346E+04  2.37561E+03 -1.29994E+04 -1.06969E+04
 -4.38298E+02 -1.61664E+04  8.07702E+03 -1.21136E+04  1.09434E+04 -1.20435E+03  2.59953E+03  6.69803E+03
 -7.24894E+03  3.01583E+03 -6.74256E+03 -5.93993E+03 -1.26789E+03 -1.40687E+04  1.01693E+04 -1.52601E+04
  1.76089E+04 -8.20037E+03  1.99278E+04  3.53527E+03  1.74996E+04  1.42290E+04  7.96968E+03  2.25380E+04
 -3.55845E+03  2.42892E+04 -1.57659E+04  1.52345E+04 -1.73099E+04  3.32341E+03 -1.25616E+04 -4.28371E+03
 -5.60806E+03 -5.46521E+03 -5.34303E+02  9.81465E+02 -2.51340E+03  2.81844E+03 -5.53718E+03  4.31529E+03
 -1.15258E+04 -9.23365E+02 -1.21708E+04 -9.58268E+03 -5.20509E+03 -1.56940E+04  5.22227E+03 -1.22615E+04
  1.00222E+04 -5.51063E+03  7.48502E+03  3.46860E+03  2.32790E+02  4.93935E+03 -5.81786E+03 -2.39861E+02
 -5.69031E+03 -8.07414E+03 -6.63327E+02 -1.15037E+04  6.59025E+03 -1.27657E+04  1.53558E+04 -6.59562E+03
  1.81621E+04  1.59988E+03  1.32694E+04  1.03790E+04  2.35656E+03  1.43303E+04 -7.73547E+03  1.21435E+04
 -9.99988E+03  3.83634E+03 -4.86718E+03 -2.10175E+03  1.82209E+03 -3.24736E+03  6.56675E+03 -1.12403E+03
  6.16088E+03  5.13512E+03  1.40807E+03  9.61046E+03 -6.73094E+03  9.58993E+03 -1.21593E+04  2.20933E+03
 -8.24020E+03 -6.34821E+03  2.73824E+02 -1.04227E+04  6.66579E+03 -5.30198E+03  6.70274E+03  2.14551E+03
  1.12154E+03  7.16530E+03 -6.24931E+03  8.52642E+03 -9.42743E+03  4.14448E+03 -9.37814E+03 -3.21645E+03
 -5.44206E+03 -1.10781E+04  2.47059E+03 -1.26474E+04  1.10426E+04 -8.14459E+03  1.17263E+04  1.66757E+03
  7.38775E+03  9.78760E+03 -7.97911E+02  1.17197E+04 -8.63457E+03  6.46164E+03 -9.05040E+03 -1.16826E+03
 -8.06685E+03 -7.95793E+03 -1.60595E+03 -8.68241E+03  4.38218E+03 -7.38821E+03  5.85555E+03 -3.66767E+03
  3.91114E+03  1.43177E+03 -6.91563E+02  1.17557E+03 -4.51648E+02 -1.40299E+03  1.53419E+03 -4.67571E+03
  7.73245E+03 -2.52881E+03  1.11347E+04  1.12286E+03  1.11297E+04  7.42118E+03  7.88000E+03  1.44691E+04
 -3.18238E+03  1.64874E+04 -1.39751E+04  1.26206E+04 -1.84338E+04  2.48481E+03 -1.47106E+04 -5.69536E+03
 -7.31134E+03 -1.18962E+04 -5.33153E+02 -1.01592E+04  3.57333E+03 -5.50713E+03  3.25720E+03 -3.50752E+03
  2.58392E+03 -2.30857E+03  2.97009E+03 -3.04346E+03  4.52679E+03 -2.65324E+03  5.97874E+03 -6.71304E+02
  7.71598E+03  1.99052E+03  3.67064E+03  6.54215E+03 -1.99167E+03  7.13799E+03 -8.05365E+03  5.77913E+03
 -9.93442E+03 -1.19061E+03 -5.99212E+03 -6.83408E+03 -6.45690E+02 -1.01745E+04  6.23496E+03 -1.07066E+04
  1.09463E+04 -6.35527E+03  1.33577E+04  1.79966E+03  9.18264E+03  9.17525E+03  1.73147E+03  1.20865E+04
 -4.76772E+03  1.00767E+04 -7.00787E+03  3.22858E+03 -4.53717E+03 -1.47838E+03 -1.85501E+03 -1.36329E+03
 -9.27436E+02  3.70194E+01 -1.75086E+03  2.39539E+03 -4.53983E+03  1.83879E+03 -6.98698E+03 -1.04447E+03
 -4.53951E+03 -7.16937E+03  8.97513E+02 -9.49955E+03  5.91299E+03 -8.96261E+03  9.27195E+03 -2.89615E+03
  9.35662E+03  4.96102E+03  4.18095E+03  8.52204E+03 -1.55757E+03  9.60737E+03 -6.59602E+03  6.01256E+03
 -9.17683E+03  4.24957E+02 -7.13259E+03 -5.84842E+03 -5.80388E+02 -7.89684E+03  4.32430E+03 -6.01111E+03
  6.24687E+03 -2.11321E+03  4.23681E+03  1.50440E+03  1.66606E+03  3.10021E+03  1.25822E+03  1.43046E+03
  2.47177E+03  6.99687E+02  2.40336E+03  1.47993E+03  2.91244E+03  3.78186E+03  2.76396E+03  4.75665E+03
 -2.27187E+03  7.30403E+03 -6.33842E+03  7.83368E+03 -9.38999E+03  2.17826E+03 -1.00339E+04 -3.58615E+03
 -4.67087E+03 -9.41563E+03  1.40030E+03 -1.06529E+04  5.56987E+03 -6.79320E+03  7.24723E+03 -1.55299E+03
  5.88829E+03  3.48453E+03  1.58767E+03  5.41135E+03 -2.16343E+03  3.14863E+03 -3.66090E+03 -5.23430E+02
 -1.52340E+03 -4.29477E+03  2.43215E+03 -4.12368E+03  3.88553E+03 -2.10214E+03  3.78035E+03  9.72414E+02
  2.26931E+03  1.43002E+03  1.12724E+03  1.15400E+03 -4.88726E+02  1.42076E+03  1.59345E+03 -7.65506E+02
  1.13165E+03 -2.46638E+02  3.69107E+03  1.25035E+03  2.25431E+03  5.51116E+03 -9.13170E+02  6.73642E+03
 -4.30073E+03  4.29212E+03 -5.78089E+03  1.12724E+03 -5.37140E+03 -1.95527E+03 -1.67453E+03 -3.59713E+03
  6.76832E+02 -3.59898E+03  1.89496E+03 -1.94986E+03  1.82360E+03  2.00031E+03 -8.64891E+02  2.88274E+03
 -3.66995E+03  2.02691E+03 -4.17543E+03 -2.34420E+03 -2.47164E+03 -5.22610E+03  5.75654E+02 -4.80369E+03
  2.60062E+03 -2.85618E+03  3.40760E+03 -7.60289E+02  3.11674E+03  7.81681E+02  4.71995E+02  2.82861E+03
 -1.67497E+03  9.83419E+02 -2.28376E+03 -1.67041E+03  9.43594E+02 -3.40418E+03  4.48121E+03 -3.20086E+03
  5.25907E+03  5.82003E+02  5.92928E+03  3.39145E+03  1.71011E+03  5.88897E+03 -1.78456E+03  5.61409E+03
 -4.57831E+03  2.23730E+03 -4.43588E+03 -8.58002E+02 -2.80860E+03 -3.88925E+03  7.20941E+02 -3.24032E+03
  3.90004E+03 -1.64605E+03  2.79499E+03  1.52453E+03  9.41949E+02  3.24030E+03 -2.17732E+02  2.75760E+03
 -1.50279E+03  1.83524E+03 -1.64906E+03  3.27723E+02 -5.22670E+02  8.69666E+02 -9.51150E+02  1.21948E+03
 -1.72917E+03  2.39446E+03 -4.18213E+03  1.81759E+03 -5.35566E+03  2.11524E+02 -6.66442E+03 -3.71231E+03
 -3.53078E+03 -7.41689E+03  1.60079E+03 -8.78792E+03  4.88171E+03 -6.82349E+03  8.42069E+03 -2.66123E+03
  7.52613E+03  6.49014E+02  4.55682E+03  5.41352E+03  1.43074E+02  5.72204E+03 -2.25553E+03  4.25145E+03
 -3.02014E+03  1.88056E+03 -1.83496E+03 -9.83053E+02 -6.56429E+02 -3.03933E+02 -6.86847E+02  5.94049E+01
 -1.51939E+03  8.01129E+01 -1.06712E+03 -3.73706E+02 -2.31052E+01 -1.30071E+03  2.44633E+00 -2.22444E+03
  2.99868E+03 -1.75714E+03  3.22353E+03 -1.99720E+02  3.89455E+03  3.08863E+03  6.22533E+02  5.18503E+03
 -2.93196E+03  6.74308E+03 -5.91772E+03  3.95476E+03 -6.71735E+03 -6.35338E+02 -4.88899E+03 -3.82291E+03
 -2.19896E+03 -5.75209E+03  1.17147E+03 -5.22999E+03  3.58365E+03 -2.90655E+03  3.76528E+03  1.43298E+02
  1.95268E+03  1.94836E+03 -7.73995E+01  1.44364E+03 -1.33581E+03 -2.25298E+01  7.39518E+01 -1.50798E+03
  1.72512E+03 -4.25716E+02  1.83339E+03  3.16731E+02  1.04346E+03  2.24405E+03  1.00065E+02  2.74565E+03
 -2.65244E+03  2.44632E+03 -3.43416E+03  3.68420E+02 -3.17571E+03 -2.62137E+03 -7.72116E+02 -4.44771E+03
  2.55283E+03 -3.73672E+03  3.92836E+03 -8.84188E+02  4.10265E+03  3.81815E+02  2.37596E+03  3.48454E+03
  9.25317E+02  3.47556E+03 -1.49264E+03  3.03803E+03 -2.56695E+03  1.80051E+03 -2.07418E+03  9.35778E+01
 -9.73281E+02 -2.70884E+02 -9.73426E+02  5.28256E+02 -2.00186E+03  6.15321E+02 -2.98218E+03 -4.73948E+02
 -2.96077E+03 -1.74662E+03 -8.03359E+02 -3.72768E+03  1.81960E+03 -4.14716E+03  3.10743E+03 -1.66003E+03
  3.48048E+03  3.19748E+02  1.37896E+03  2.20237E+03 -6.06533E+00  3.54743E+03 -2.91721E+03  2.57016E+03
