 $NMID ID='MM_0lb_SNR800_9hz_g50_29.RAW', FMTDAT='(8E13.5)'
 TRAMP=1., VOLUME=1. $END
  3.10299E+05  1.51751E+02  3.37949E+05  2.50468E+05  8.49339E+04  3.38414E+05 -1.32499E+05  2.51905E+05
 -1.91140E+05  8.40047E+04 -1.12778E+05 -3.23381E+04  9.21457E+01 -5.09802E+04  5.35498E+04 -6.92364E+02
  3.55630E+04  5.30061E+04 -1.68332E+04  7.56001E+04 -6.15617E+04  6.49795E+04 -8.53419E+04  3.28689E+04
 -8.20941E+04 -1.16013E+04 -5.80916E+04 -5.21614E+04 -1.50633E+04 -7.11478E+04  2.82181E+04 -4.62373E+04
  4.11412E+04  3.89140E+03  1.64368E+04  4.86898E+04 -3.50293E+04  4.79692E+04 -6.81276E+04 -2.57142E+01
 -5.50290E+04 -5.75348E+04 -7.32590E+03 -7.89122E+04  3.46792E+04 -5.66874E+04  4.98157E+04 -1.87699E+04
  4.55207E+04  1.14932E+04  3.28925E+04  2.67996E+04  1.57947E+04  3.08367E+04 -6.19659E+03  2.80913E+04
 -2.24686E+04  1.18235E+04 -1.82872E+04 -5.87210E+03  7.19508E+03 -7.20224E+03  2.31486E+04  1.40446E+04
  7.09193E+03  3.69941E+04 -3.42646E+04  3.68219E+04 -6.58178E+04  2.35478E+03 -5.88876E+04 -4.47844E+04
 -1.25377E+04 -6.57092E+04  4.16159E+04 -4.73677E+04  6.10326E+04 -2.52505E+03  3.64372E+04  3.45641E+04
 -5.19533E+03  3.94845E+04 -3.17964E+04  1.86560E+04 -3.35224E+04 -3.82812E+03 -1.93696E+04 -1.18938E+04
 -9.11307E+03 -1.49071E+04 -3.95903E+02 -1.97137E+04  8.30999E+03 -2.41043E+04  1.59895E+04 -1.26387E+04
  1.04923E+04  6.28710E+03 -1.05060E+04  1.29120E+04 -2.32797E+04 -6.73178E+03 -8.07248E+03 -3.76065E+04
  2.49792E+04 -4.70015E+04  5.21269E+04 -2.08767E+04  4.87755E+04  2.07926E+04  1.71016E+04  4.70149E+04
 -1.68022E+04  3.64285E+04 -2.75327E+04  2.70294E+03 -1.17212E+04 -2.93139E+04  2.16561E+04 -3.71187E+04
  4.45624E+04 -1.13225E+04  4.03898E+04  2.52280E+04  2.15565E+04  5.09210E+04 -8.30183E+03  5.57693E+04
 -3.53738E+04  3.81036E+04 -4.73259E+04  1.10025E+04 -4.76257E+04 -1.85205E+04 -2.59977E+04 -4.21279E+04
  7.95946E+03 -4.20322E+04  3.42330E+04 -1.72068E+04  3.22385E+04  1.08610E+04  5.52264E+03  2.12717E+04
 -1.40104E+04  9.96201E+03 -1.13714E+04 -7.70766E+03  5.57105E+03 -1.14906E+04  1.90455E+04  5.20290E+03
  1.49266E+04  2.27887E+04 -5.18812E+03  2.72177E+04 -2.34750E+04  1.43578E+04 -3.14716E+04 -2.95169E+03
 -2.55702E+04 -1.83737E+04 -1.14398E+04 -2.50399E+04  4.63546E+03 -2.54166E+04  1.98387E+04 -2.28719E+04
  3.22086E+04 -1.36632E+04  3.83175E+04  5.07786E+03  2.69185E+04  2.45706E+04  4.59314E+03  4.09990E+04
 -2.01431E+04  3.36234E+04 -3.05311E+04  1.18684E+04 -2.22298E+04 -1.03903E+04 -5.30657E+03 -1.27952E+04
  1.04903E+03 -9.79036E+02 -7.81937E+03  8.13179E+03 -2.00736E+04  5.06405E+03 -1.98642E+04 -9.81544E+03
 -1.22436E+04 -2.35507E+04  6.47311E+03 -2.79065E+04  1.85204E+04 -1.93950E+04  2.25180E+04 -1.65141E+03
  1.44922E+04  1.58776E+04 -1.12728E+03  2.36728E+04 -1.64998E+04  1.32112E+04 -2.35215E+04 -4.88063E+03
 -1.67486E+04 -2.11803E+04 -2.63432E+03 -2.83586E+04  1.27843E+04 -2.32166E+04  2.30364E+04 -1.20827E+04
  2.18040E+04 -1.49230E+02  1.57234E+04  5.28352E+03  8.97404E+03  1.53653E+03  1.21617E+04 -2.30631E+03
  2.20185E+04  3.05075E+03  2.54037E+04  1.82967E+04  1.79031E+04  3.80997E+04 -2.57680E+03  4.46272E+04
 -2.55708E+04  3.68160E+04 -4.17305E+04  1.91620E+04 -4.46026E+04 -2.72791E+03 -3.59175E+04 -2.61601E+04
 -1.40045E+04 -3.71398E+04  1.35247E+04 -3.25893E+04  2.77136E+04 -1.55395E+04  2.38562E+04  8.16996E+03
  8.14308E+03  1.90054E+04 -1.13593E+04  1.60258E+04 -2.01988E+04  2.60378E+03 -1.49424E+04 -1.30575E+04
 -3.39022E+02 -1.97356E+04  1.03866E+04 -1.46596E+04  1.36614E+04 -1.37671E+03  3.49328E+03  8.85167E+03
 -8.37605E+03  4.37369E+03 -9.50321E+03 -6.82202E+03 -1.78809E+03 -1.81513E+04  1.20457E+04 -1.96422E+04
  2.30918E+04 -1.13522E+04  2.58780E+04  3.20038E+03  2.24967E+04  1.83808E+04  1.06155E+04  2.90313E+04
 -5.45240E+03  3.14223E+04 -2.04333E+04  1.92514E+04 -2.25942E+04  3.91231E+03 -1.52530E+04 -5.93290E+03
 -6.67366E+03 -7.40814E+03 -9.47029E+02  1.02542E+02 -3.05669E+03  3.31764E+03 -7.32498E+03  5.52444E+03
 -1.41151E+04 -6.69631E+02 -1.45304E+04 -1.16652E+04 -6.05832E+03 -1.93882E+04  6.63877E+03 -1.55012E+04
  1.28094E+04 -6.42170E+03  9.09395E+03  4.09065E+03 -7.72135E+02  6.39959E+03 -7.96271E+03  3.26151E+02
 -7.70359E+03 -9.61731E+03 -1.28295E+03 -1.55062E+04  9.49341E+03 -1.61608E+04  2.01030E+04 -8.81038E+03
  2.33333E+04  2.41724E+03  1.72012E+04  1.43496E+04  3.45873E+03  1.91405E+04 -9.33681E+03  1.56612E+04
 -1.28749E+04  4.48697E+03 -6.26459E+03 -3.70710E+03  2.35308E+03 -4.69112E+03  8.29734E+03 -8.33144E+02
  7.29027E+03  7.12842E+03  1.38498E+03  1.26757E+04 -9.56602E+03  1.18205E+04 -1.53216E+04  2.91896E+03
 -1.09645E+04 -8.24949E+03  2.37072E+02 -1.36605E+04  8.95359E+03 -6.95773E+03  9.21195E+03  3.07069E+03
  2.54936E+03  1.03712E+04 -7.81452E+03  1.15286E+04 -1.39658E+04  5.51059E+03 -1.43924E+04 -5.18287E+03
 -8.06953E+03 -1.62554E+04  3.84485E+03 -1.81913E+04  1.59097E+04 -1.07644E+04  1.66345E+04  2.92418E+03
  9.93787E+03  1.34620E+04 -1.56517E+03  1.57990E+04 -1.15358E+04  8.65776E+03 -1.27568E+04 -1.76933E+03
 -1.09015E+04 -1.03436E+04 -1.84447E+03 -1.17443E+04  6.30742E+03 -9.66539E+03  8.11774E+03 -3.98435E+03
  5.18593E+03  2.23575E+03 -9.52807E+02  2.52449E+03 -7.23355E+02 -3.60729E+03  2.83482E+03 -7.22435E+03
  1.14000E+04 -4.96320E+03  1.60813E+04  1.84007E+03  1.59425E+04  1.12525E+04  1.02193E+04  2.06945E+04
 -4.94744E+03  2.42278E+04 -2.01908E+04  1.74208E+04 -2.59727E+04  3.19092E+03 -2.08004E+04 -9.19841E+03
 -1.00769E+04 -1.73099E+04 -2.28890E+02 -1.47420E+04  5.60121E+03 -8.22620E+03  5.25796E+03 -5.34679E+03
  3.84536E+03 -2.94050E+03  3.90590E+03 -4.15532E+03  5.91156E+03 -3.79526E+03  8.27731E+03 -1.37769E+03
  1.07349E+04  2.62374E+03  5.82273E+03  9.16611E+03 -2.48478E+03  1.13674E+04 -1.15533E+04  8.47799E+03
 -1.48525E+04 -1.43687E+03 -9.61182E+03 -1.05227E+04 -1.30782E+03 -1.55623E+04  8.80424E+03 -1.59977E+04
  1.66226E+04 -9.05758E+03  1.97427E+04  3.11564E+03  1.35492E+04  1.37514E+04  1.98831E+03  1.73568E+04
 -7.40299E+03  1.41078E+04 -1.02311E+04  4.94618E+03 -6.98501E+03 -1.58695E+03 -2.75501E+03 -2.08205E+03
 -1.19089E+03  2.77180E+01 -2.38536E+03  3.39575E+03 -5.81995E+03  2.52871E+03 -1.01500E+04 -1.45174E+03
 -7.43704E+03 -1.00131E+04 -2.79178E+01 -1.49793E+04  8.92607E+03 -1.40445E+04  1.47229E+04 -4.31761E+03
  1.45235E+04  6.90112E+03  6.79982E+03  1.33786E+04 -3.18470E+03  1.53987E+04 -1.07329E+04  9.09917E+03
 -1.40792E+04  7.76699E+02 -1.06556E+04 -9.03389E+03 -1.75367E+03 -1.27437E+04  6.22349E+03 -9.38266E+03
  9.11135E+03 -2.92575E+03  6.85351E+03  2.47890E+03  2.51647E+03  4.29908E+03  1.60297E+03  2.38916E+03
  2.90182E+03  1.24844E+03  3.52193E+03  1.73767E+03  4.41353E+03  4.96214E+03  3.81545E+03  8.20396E+03
 -2.89709E+03  1.17929E+04 -1.04769E+04  1.18708E+04 -1.50055E+04  3.24611E+03 -1.55771E+04 -6.39772E+03
 -7.22643E+03 -1.53828E+04  2.35364E+03 -1.65526E+04  8.97514E+03 -1.00907E+04  1.24260E+04 -2.89779E+03
  9.75419E+03  5.70340E+03  2.15911E+03  8.35509E+03 -3.87508E+03  5.55530E+03 -6.27588E+03 -1.06908E+03
 -3.09171E+03 -6.61910E+03  3.73298E+03 -6.54472E+03  6.51809E+03 -2.97457E+03  6.29570E+03  1.51995E+03
  3.66364E+03  2.75393E+03  1.71012E+03  2.65548E+03 -9.29816E+02  2.28509E+03  1.72960E+03 -4.29868E+02
  2.56920E+03 -1.13800E+03  6.33887E+03  2.25166E+03  3.61565E+03  8.27237E+03 -1.36209E+03  1.06708E+04
 -7.68888E+03  6.86385E+03 -9.98942E+03  1.83256E+03 -8.73711E+03 -3.27236E+03 -3.05973E+03 -5.92818E+03
  7.96693E+02 -5.96624E+03  3.86777E+03 -2.94499E+03  3.34354E+03  2.54752E+03 -9.50960E+02  4.85621E+03
 -6.43015E+03  3.23867E+03 -7.24968E+03 -3.74854E+03 -4.03667E+03 -8.45182E+03  9.46177E+02 -8.54837E+03
  4.40901E+03 -5.37479E+03  6.27872E+03 -2.35797E+02  5.48762E+03  2.24393E+03  7.36659E+02  4.52879E+03
 -2.74284E+03  1.48951E+03 -3.68888E+03 -2.79308E+03  1.24082E+03 -6.11450E+03  7.73412E+03 -5.18987E+03
  9.32867E+03  6.16828E+02  9.88457E+03  6.74350E+03  2.92532E+03  1.02112E+04 -3.96324E+03  9.23422E+03
 -8.28444E+03  4.32119E+03 -8.50876E+03 -9.87547E+02 -4.81131E+03 -6.15364E+03  1.81467E+03 -6.09826E+03
  6.53147E+03 -3.21692E+03  5.15204E+03  2.77811E+03  1.84113E+03  5.67473E+03 -9.83251E+02  4.84484E+03
 -2.51360E+03  2.83754E+03 -2.29398E+03  1.32688E+03 -1.26233E+03  1.08700E+03 -1.62678E+03  2.08455E+03
 -2.61610E+03  3.89895E+03 -6.63520E+03  3.49800E+03 -1.04502E+04 -1.66469E+02 -1.10910E+04 -6.54996E+03
 -5.49977E+03 -1.32943E+04  2.82172E+03 -1.52049E+04  9.41911E+03 -1.18727E+04  1.46929E+04 -4.41082E+03
  1.39053E+04  2.85512E+03  8.44347E+03  9.19084E+03  5.80743E+02  1.09516E+04 -4.44973E+03  7.88865E+03
 -5.85172E+03  2.53972E+03 -3.82841E+03 -1.13449E+03 -1.21795E+03 -6.83799E+02 -5.97629E+02 -3.27821E+02
 -1.95370E+03  4.80953E+02 -2.31007E+03 -7.37173E+02 -6.58992E+02 -2.91935E+03  2.86509E+02 -3.82113E+03
  4.59943E+03 -3.45826E+03  5.94060E+03 -3.24239E+02  7.17634E+03  5.75980E+03  2.40080E+03  1.03959E+04
 -5.06145E+03  1.20232E+04 -1.06662E+04  7.34845E+03 -1.28469E+04 -8.56354E+02 -9.36349E+03 -7.94849E+03
 -3.72672E+03 -1.07071E+04  2.91146E+03 -1.01601E+04  6.79821E+03 -5.23604E+03  6.80426E+03  2.14344E+01
  3.66673E+03  3.23512E+03 -2.79694E+02  2.69182E+03 -2.14041E+03 -5.29641E+02 -1.37732E+02 -2.54893E+03
  2.92270E+03 -1.28041E+03  3.91844E+03  1.36091E+03  3.19934E+03  4.44640E+03  1.32240E+02  5.54651E+03
 -4.64765E+03  4.91939E+03 -7.07035E+03  5.74160E+02 -6.29729E+03 -5.07848E+03 -1.00895E+03 -8.69685E+03
  4.87882E+03 -7.13157E+03  8.05721E+03 -2.81558E+03  8.14877E+03  2.03228E+03  4.32557E+03  6.47451E+03
  9.23684E+02  7.41353E+03 -3.24692E+03  5.82721E+03 -4.42196E+03  2.97784E+03 -3.47512E+03  6.32052E+02
 -1.57281E+03  2.74880E+02 -2.26938E+03  7.22199E+02 -3.48648E+03  1.22324E+03 -5.12369E+03 -1.17928E+03
 -5.11443E+03 -3.40003E+03 -2.00455E+03 -6.87986E+03  3.78244E+03 -7.64515E+03  6.56912E+03 -3.57473E+03
  7.01313E+03  7.88494E+02  3.69372E+03  4.61104E+03 -4.70596E+02  7.29052E+03 -5.46374E+03  4.74374E+03
