 $NMID ID='MM_0lb_SNR800_14hz_g50_38.RAW', FMTDAT='(8E13.5)'
 TRAMP=1., VOLUME=1. $END
  3.09844E+05  2.56008E+02  3.37618E+05  2.50482E+05  8.46216E+04  3.37909E+05 -1.32544E+05  2.50826E+05
 -1.90039E+05  8.28026E+04 -1.11666E+05 -3.25578E+04  4.31505E+02 -5.04837E+04  5.38176E+04 -1.01438E+02
  3.55885E+04  5.27187E+04 -1.69604E+04  7.53797E+04 -6.09880E+04  6.36847E+04 -8.41479E+04  3.21216E+04
 -8.09084E+04 -1.14470E+04 -5.73573E+04 -5.12573E+04 -1.49652E+04 -6.97320E+04  2.74719E+04 -4.56101E+04
  4.01931E+04  3.89432E+03  1.60597E+04  4.81009E+04 -3.43207E+04  4.75996E+04 -6.67895E+04 -6.66717E+02
 -5.31548E+04 -5.68283E+04 -6.72540E+03 -7.71712E+04  3.39539E+04 -5.52394E+04  4.80595E+04 -1.72615E+04
  4.32733E+04  1.13126E+04  3.22711E+04  2.55386E+04  1.57076E+04  2.95047E+04 -5.16315E+03  2.71085E+04
 -2.19982E+04  1.20890E+04 -1.84178E+04 -4.81806E+03  5.65254E+03 -7.35464E+03  2.25770E+04  1.23241E+04
  7.43671E+03  3.52386E+04 -3.20344E+04  3.53695E+04 -6.32882E+04  2.12650E+03 -5.72326E+04 -4.29409E+04
 -1.25964E+04 -6.32333E+04  3.97660E+04 -4.53167E+04  5.80656E+04 -2.38429E+03  3.42314E+04  3.23909E+04
 -5.82206E+03  3.62074E+04 -3.02037E+04  1.61048E+04 -3.02782E+04 -4.38223E+03 -1.69867E+04 -1.09547E+04
 -8.36505E+03 -1.32324E+04 -6.14668E+02 -1.83749E+04  7.34447E+03 -2.30540E+04  1.50794E+04 -1.36297E+04
  1.13111E+04  5.14883E+03 -8.09828E+03  1.32121E+04 -2.13745E+04 -4.29287E+03 -8.31325E+03 -3.40028E+04
  2.29961E+04 -4.34163E+04  4.82966E+04 -1.96670E+04  4.52287E+04  1.95357E+04  1.58751E+04  4.44404E+04
 -1.62277E+04  3.39145E+04 -2.51942E+04  2.01182E+03 -1.02109E+04 -2.77660E+04  2.08888E+04 -3.43203E+04
  4.14941E+04 -9.14495E+03  3.56715E+04  2.37317E+04  1.81748E+04  4.64008E+04 -7.97973E+03  5.05701E+04
 -3.18253E+04  3.37938E+04 -4.24252E+04  9.59057E+03 -4.28667E+04 -1.67896E+04 -2.39391E+04 -3.80166E+04
  7.44641E+03 -3.82701E+04  3.14417E+04 -1.46430E+04  2.94662E+04  1.09662E+04  4.12597E+03  1.95076E+04
 -1.32540E+04  8.36316E+03 -1.01186E+04 -7.50978E+03  5.61480E+03 -1.07394E+04  1.79175E+04  5.67543E+03
  1.32461E+04  2.19471E+04 -5.83123E+03  2.49222E+04 -2.21712E+04  1.12868E+04 -2.79773E+04 -4.61745E+03
 -2.07355E+04 -1.72481E+04 -8.31811E+03 -2.06927E+04  3.92838E+03 -2.00771E+04  1.59598E+04 -1.83053E+04
  2.62567E+04 -1.29263E+04  3.26296E+04  2.77489E+03  2.40529E+04  2.03325E+04  4.43851E+03  3.63616E+04
 -1.78392E+04  3.03761E+04 -2.76763E+04  1.03897E+04 -2.09534E+04 -1.01387E+04 -4.55546E+03 -1.34886E+04
  1.75109E+03 -2.73046E+03 -4.85454E+03  6.73801E+03 -1.65484E+04  5.02858E+03 -1.63440E+04 -7.07980E+03
 -1.00823E+04 -1.90031E+04  5.18424E+03 -2.27937E+04  1.53432E+04 -1.65101E+04  1.81292E+04 -1.67246E+03
  1.12412E+04  1.31792E+04 -1.30844E+03  1.91610E+04 -1.31928E+04  1.07234E+04 -1.87870E+04 -4.15722E+03
 -1.42517E+04 -1.71159E+04 -1.95491E+03 -2.32527E+04  1.03204E+04 -1.89269E+04  1.93493E+04 -9.55909E+03
  1.78799E+04  2.17466E+02  1.31227E+04  4.70002E+03  7.18287E+03  1.08397E+03  9.45712E+03 -1.64234E+03
  1.73831E+04  2.51665E+03  1.96721E+04  1.50727E+04  1.27091E+04  3.05273E+04 -2.68472E+03  3.43199E+04
 -2.02165E+04  2.78170E+04 -3.20040E+04  1.40479E+04 -3.35918E+04 -2.50951E+03 -2.79898E+04 -1.96483E+04
 -1.19013E+04 -2.79753E+04  9.62523E+03 -2.47556E+04  2.16648E+04 -1.30367E+04  1.92578E+04  5.51711E+03
  7.19628E+03  1.45603E+04 -9.07617E+03  1.28271E+04 -1.64374E+04  2.43803E+03 -1.24321E+04 -1.02390E+04
 -3.96770E+01 -1.56383E+04  8.01474E+03 -1.13573E+04  1.02161E+04 -1.37753E+03  2.24744E+03  6.60099E+03
 -6.96091E+03  2.62600E+03 -6.02105E+03 -5.26074E+03 -4.20459E+02 -1.37023E+04  9.31796E+03 -1.41637E+04
  1.68877E+04 -7.46706E+03  1.80146E+04  2.84077E+03  1.55379E+04  1.35883E+04  7.43981E+03  2.02670E+04
 -3.40616E+03  2.24838E+04 -1.41322E+04  1.41859E+04 -1.59609E+04  3.32363E+03 -1.12206E+04 -3.89446E+03
 -5.33508E+03 -4.97197E+03 -7.05959E+02  9.70939E+02 -2.28034E+03  2.54029E+03 -5.34056E+03  4.34993E+03
 -1.04105E+04 -6.63863E+02 -1.14339E+04 -9.05326E+03 -4.80292E+03 -1.49301E+04  4.94312E+03 -1.16044E+04
  9.30943E+03 -4.72147E+03  6.73889E+03  2.88971E+03  3.43331E+02  4.26012E+03 -5.57588E+03 -1.09855E+02
 -5.05030E+03 -6.98125E+03 -8.71324E+02 -1.07911E+04  6.31101E+03 -1.14379E+04  1.43095E+04 -6.01939E+03
  1.65468E+04  1.35220E+03  1.20007E+04  9.67567E+03  2.30381E+03  1.29370E+04 -6.86654E+03  1.11148E+04
 -9.38009E+03  3.64646E+03 -4.79268E+03 -2.49237E+03  1.54740E+03 -3.06735E+03  6.18401E+03 -1.11055E+03
  5.31861E+03  4.65783E+03  7.17144E+02  8.52854E+03 -6.34600E+03  8.75485E+03 -1.10271E+04  2.31252E+03
 -7.47002E+03 -5.61555E+03  2.31451E+02 -9.48039E+03  5.51444E+03 -4.67351E+03  5.86695E+03  1.79381E+03
  1.32028E+03  6.03676E+03 -5.89288E+03  7.75290E+03 -8.31299E+03  3.68727E+03 -8.30679E+03 -2.63035E+03
 -4.94417E+03 -9.78698E+03  2.41859E+03 -1.13274E+04  9.47447E+03 -6.99693E+03  1.05257E+04  1.80119E+03
  6.71619E+03  8.29653E+03 -8.73823E+02  1.06530E+04 -7.65607E+03  5.95772E+03 -8.03363E+03 -7.30440E+02
 -7.93747E+03 -7.30892E+03 -1.76117E+03 -8.02733E+03  3.92683E+03 -6.58762E+03  5.01476E+03 -3.27099E+03
  3.73657E+03  9.26405E+02 -5.34409E+02  1.40124E+03  1.84747E+02 -1.63939E+03  8.80972E+02 -3.91900E+03
  6.48953E+03 -2.47167E+03  9.18134E+03  1.12726E+03  9.53349E+03  6.15861E+03  7.04636E+03  1.26044E+04
 -2.77878E+03  1.45872E+04 -1.28633E+04  1.07359E+04 -1.60125E+04  2.07035E+03 -1.27842E+04 -5.21074E+03
 -6.60329E+03 -1.04967E+04 -4.00984E+02 -8.51508E+03  3.15359E+03 -4.11481E+03  2.95239E+03 -3.05531E+03
  2.14600E+03 -1.83476E+03  3.01839E+03 -3.19653E+03  4.50978E+03 -2.07715E+03  5.24594E+03 -2.00691E+02
  6.64026E+03  1.48242E+03  2.64786E+03  5.46009E+03 -1.94347E+03  6.29967E+03 -7.00758E+03  4.62999E+03
 -8.45640E+03 -1.42712E+03 -4.57296E+03 -5.64543E+03 -1.63919E+02 -9.07869E+03  5.37700E+03 -9.30974E+03
  9.16483E+03 -5.12946E+03  1.15281E+04  1.22837E+03  8.22353E+03  7.70555E+03  1.40558E+03  1.01113E+04
 -4.04600E+03  9.01695E+03 -6.17309E+03  3.22394E+03 -3.55669E+03 -1.20844E+03 -1.30707E+03 -1.20351E+03
 -9.97736E+02  3.85396E+02 -1.29501E+03  2.20827E+03 -3.40935E+03  1.65783E+03 -6.35862E+03 -7.75452E+02
 -3.56593E+03 -6.48244E+03  6.01727E+02 -8.42130E+03  4.99165E+03 -7.75816E+03  7.71934E+03 -2.59110E+03
  7.83165E+03  3.90763E+03  3.47672E+03  6.79543E+03 -1.44252E+03  8.39430E+03 -5.35108E+03  4.72470E+03
 -7.36104E+03  5.88067E+02 -6.06708E+03 -4.65760E+03 -4.00374E+02 -6.44026E+03  3.35116E+03 -4.95310E+03
  5.03563E+03 -1.70624E+03  3.78169E+03  1.25737E+03  1.22663E+03  2.74737E+03  1.10129E+03  1.22772E+03
  2.17588E+03  6.07037E+02  1.83084E+03  1.49605E+03  2.48031E+03  3.28096E+03  2.54848E+03  3.77704E+03
 -1.93673E+03  5.93161E+03 -5.18730E+03  6.78135E+03 -7.27766E+03  1.51503E+03 -7.89639E+03 -2.44283E+03
 -3.85252E+03 -7.27482E+03  1.10823E+03 -8.79842E+03  4.51111E+03 -5.16861E+03  6.30803E+03 -1.61383E+03
  4.69440E+03  2.94067E+03  1.26237E+03  4.33913E+03 -1.94274E+03  2.60139E+03 -3.02355E+03 -5.79465E+02
 -1.55375E+03 -2.70546E+03  2.15306E+03 -2.91638E+03  3.02035E+03 -1.53739E+03  2.95448E+03  1.16428E+03
  1.75008E+03  1.26966E+03  8.67646E+02  9.23515E+02 -2.00844E+02  9.86661E+02  1.42654E+03 -5.29924E+02
  8.88853E+02 -4.32979E+02  3.22215E+03  1.29804E+03  1.07472E+03  3.97085E+03 -5.44454E+02  5.51086E+03
 -3.24188E+03  2.98011E+03 -4.53120E+03  9.64544E+02 -3.98361E+03 -1.34664E+03 -1.02164E+03 -2.34285E+03
  4.47443E+02 -2.62995E+03  1.99653E+03 -1.15707E+03  1.39223E+03  1.89650E+03 -9.49305E+02  2.36804E+03
 -2.89436E+03  1.45267E+03 -2.76033E+03 -2.15846E+03 -1.88869E+03 -3.75272E+03  4.24824E+02 -3.46107E+03
  2.03368E+03 -2.18839E+03  2.80181E+03 -1.32788E+02  2.64631E+03  4.50791E+02  4.27485E+02  1.77919E+03
 -1.13614E+03  5.25508E+02 -1.80147E+03 -9.75865E+02  4.62707E+02 -2.71296E+03  3.50580E+03 -2.29721E+03
  3.63579E+03  1.74132E+02  4.81917E+03  2.68287E+03  1.32801E+03  4.26455E+03 -8.32501E+02  4.50102E+03
 -3.48230E+03  1.31723E+03 -3.63208E+03 -6.80670E+02 -2.27753E+03 -2.90295E+03  4.21541E+02 -2.32656E+03
  3.16218E+03 -1.29487E+03  2.04162E+03  1.05301E+03  6.46511E+02  2.51156E+03 -1.11401E+02  1.86826E+03
 -9.70442E+02  1.80077E+03 -8.75039E+02  4.59664E+02 -2.41660E+02  5.40136E+02 -6.93792E+02  9.14359E+02
 -1.14585E+03  1.91348E+03 -2.91687E+03  1.14304E+03 -4.13103E+03  1.05782E+02 -5.21497E+03 -2.66253E+03
 -2.69528E+03 -5.53241E+03  9.88984E+02 -6.30596E+03  3.40553E+03 -5.32452E+03  6.02411E+03 -1.97971E+03
  5.66276E+03  6.61754E+02  3.00517E+03  3.73138E+03 -2.18606E+02  4.19621E+03 -1.54083E+03  3.35704E+03
 -2.49573E+03  1.32662E+03 -1.47662E+03 -5.55658E+02 -7.41736E+02 -2.05576E+02 -8.02566E+02  1.18042E+02
 -1.45518E+03 -2.48741E+00 -1.49404E+03  1.65468E+02  1.84182E+02 -1.01088E+03  1.75314E+02 -1.62014E+03
  2.25252E+03 -1.22579E+03  2.26063E+03  7.45539E+01  2.81225E+03  2.13806E+03  1.53146E+02  3.80934E+03
 -1.91303E+03  4.90915E+03 -4.07459E+03  2.82747E+03 -4.74677E+03 -3.04515E+02 -3.36885E+03 -3.29531E+03
 -1.76525E+03 -3.91773E+03  1.13461E+03 -3.65295E+03  2.55218E+03 -1.91714E+03  2.44124E+03  2.79192E+02
  1.22429E+03  9.14249E+02  5.38660E+01  1.31882E+03 -8.99495E+02  1.61848E+02 -1.79957E+01 -7.12238E+02
  1.41802E+03 -2.10931E+01  1.43158E+03  5.97673E+02  1.01908E+03  1.52212E+03  3.25408E+02  1.74727E+03
 -1.87326E+03  1.94266E+03 -2.02481E+03  2.07384E+02 -2.43685E+03 -1.85746E+03 -3.72671E+02 -3.00564E+03
  1.95028E+03 -2.56812E+03  2.50224E+03 -3.70131E+02  2.78247E+03  3.62344E+02  1.59480E+03  2.43863E+03
  4.55956E+02  2.21451E+03 -6.02576E+02  1.68970E+03 -1.59081E+03  1.55206E+03 -1.36036E+03  6.02523E+02
 -6.14961E+02  2.00685E+02 -8.07778E+02  1.41455E+02 -1.15581E+03  4.79880E+02 -1.82204E+03 -2.35387E+02
 -1.89899E+03 -5.09325E+02 -7.36533E+02 -2.56441E+03  1.44085E+03 -3.23480E+03  2.24711E+03 -8.40183E+02
  2.10668E+03  3.04248E+02  7.95733E+02  1.60440E+03 -2.78634E+02  2.39400E+03 -1.44341E+03  1.72995E+03
