 $NMID ID='MM_0lb_SNR800_14hz_g60_41.RAW', FMTDAT='(8E13.5)'
 TRAMP=1., VOLUME=1. $END
  3.09713E+05  3.14116E+02  3.37919E+05  2.50760E+05  8.47563E+04  3.38575E+05 -1.32899E+05  2.51328E+05
 -1.90524E+05  8.34318E+04 -1.12389E+05 -3.29703E+04  3.75214E+02 -5.08495E+04  5.38991E+04 -5.30346E+02
  3.53094E+04  5.29484E+04 -1.70489E+04  7.55750E+04 -6.10110E+04  6.39443E+04 -8.48874E+04  3.24902E+04
 -8.16017E+04 -1.16967E+04 -5.76881E+04 -5.19689E+04 -1.51247E+04 -7.01659E+04  2.77242E+04 -4.58613E+04
  4.04661E+04  3.83021E+03  1.66074E+04  4.81255E+04 -3.45245E+04  4.78213E+04 -6.69689E+04 -2.84724E+02
 -5.39146E+04 -5.70060E+04 -6.89759E+03 -7.80105E+04  3.42688E+04 -5.57809E+04  4.88243E+04 -1.79216E+04
  4.40128E+04  1.12819E+04  3.24551E+04  2.59432E+04  1.59206E+04  2.99175E+04 -5.44924E+03  2.76432E+04
 -2.21773E+04  1.22031E+04 -1.82605E+04 -5.47619E+03  6.27297E+03 -7.47357E+03  2.31153E+04  1.28755E+04
  7.20675E+03  3.62017E+04 -3.28973E+04  3.62444E+04 -6.43894E+04  2.22066E+03 -5.76576E+04 -4.35831E+04
 -1.23115E+04 -6.41521E+04  4.06537E+04 -4.61092E+04  5.94271E+04 -2.24389E+03  3.49607E+04  3.30401E+04
 -5.75127E+03  3.75228E+04 -3.08223E+04  1.68678E+04 -3.13570E+04 -4.28242E+03 -1.75428E+04 -1.16451E+04
 -8.98719E+03 -1.36526E+04 -6.29061E+02 -1.89410E+04  7.96213E+03 -2.32617E+04  1.55229E+04 -1.31355E+04
  1.09309E+04  5.79261E+03 -9.27517E+03  1.30785E+04 -2.22477E+04 -5.09571E+03 -8.44769E+03 -3.49497E+04
  2.36417E+04 -4.49237E+04  4.96534E+04 -1.98763E+04  4.62778E+04  2.00072E+04  1.60859E+04  4.51705E+04
 -1.63584E+04  3.42925E+04 -2.60591E+04  2.26872E+03 -1.07196E+04 -2.82663E+04  2.12872E+04 -3.50839E+04
  4.22548E+04 -9.81126E+03  3.71914E+04  2.36767E+04  1.93804E+04  4.81352E+04 -8.08628E+03  5.22328E+04
 -3.28128E+04  3.51311E+04 -4.35464E+04  1.00852E+04 -4.42147E+04 -1.72208E+04 -2.40912E+04 -3.91572E+04
  7.49789E+03 -3.91001E+04  3.20532E+04 -1.53648E+04  3.00923E+04  1.10407E+04  4.33112E+03  1.96619E+04
 -1.36830E+04  8.86482E+03 -1.06737E+04 -7.71418E+03  5.56848E+03 -1.11503E+04  1.81301E+04  5.83964E+03
  1.40081E+04  2.21183E+04 -5.93426E+03  2.56083E+04 -2.25583E+04  1.22746E+04 -2.92025E+04 -4.48011E+03
 -2.23248E+04 -1.75796E+04 -9.60376E+03 -2.17019E+04  4.27025E+03 -2.11901E+04  1.70427E+04 -1.94169E+04
  2.80424E+04 -1.30871E+04  3.42968E+04  3.41185E+03  2.46426E+04  2.14228E+04  4.22907E+03  3.76539E+04
 -1.84018E+04  3.15890E+04 -2.86814E+04  1.12248E+04 -2.11895E+04 -1.05448E+04 -4.19701E+03 -1.36338E+04
  1.38802E+03 -2.30849E+03 -5.80900E+03  7.34720E+03 -1.74482E+04  5.18141E+03 -1.73965E+04 -7.60941E+03
 -1.05997E+04 -2.00833E+04  5.55921E+03 -2.41992E+04  1.64393E+04 -1.71852E+04  1.94370E+04 -1.78583E+03
  1.23198E+04  1.39463E+04 -1.13111E+03  2.01750E+04 -1.41142E+04  1.16624E+04 -2.03757E+04 -4.43654E+03
 -1.49920E+04 -1.82671E+04 -1.84967E+03 -2.42803E+04  1.08888E+04 -1.99718E+04  2.00987E+04 -1.03681E+04
  1.87515E+04 -2.39928E+01  1.39499E+04  4.75125E+03  7.26943E+03  1.37487E+03  1.04629E+04 -1.74967E+03
  1.85860E+04  2.88550E+03  2.11296E+04  1.58395E+04  1.38884E+04  3.20915E+04 -2.81235E+03  3.69038E+04
 -2.13097E+04  2.97659E+04 -3.44931E+04  1.50460E+04 -3.59703E+04 -2.43245E+03 -2.95946E+04 -2.10924E+04
 -1.26355E+04 -2.99210E+04  1.06092E+04 -2.66928E+04  2.29195E+04 -1.36228E+04  2.02659E+04  5.95853E+03
  7.26943E+03  1.54103E+04 -9.59221E+03  1.34524E+04 -1.72001E+04  2.70740E+03 -1.30619E+04 -1.06531E+04
 -3.87847E+02 -1.64247E+04  8.71818E+03 -1.22675E+04  1.06647E+04 -1.52701E+03  2.51734E+03  6.85307E+03
 -7.10358E+03  2.75672E+03 -7.06869E+03 -5.89753E+03 -6.16698E+02 -1.46096E+04  9.68923E+03 -1.49876E+04
  1.83731E+04 -8.24400E+03  1.92462E+04  3.06536E+03  1.73264E+04  1.46689E+04  8.32410E+03  2.21868E+04
 -4.06841E+03  2.40876E+04 -1.52901E+04  1.49835E+04 -1.72166E+04  3.18810E+03 -1.19959E+04 -3.90729E+03
 -5.57839E+03 -5.42030E+03 -8.01815E+02  8.71511E+02 -2.45568E+03  2.75852E+03 -5.55293E+03  4.53173E+03
 -1.13183E+04 -8.98111E+02 -1.21209E+04 -9.79709E+03 -4.43129E+03 -1.57396E+04  5.02794E+03 -1.22731E+04
  1.04841E+04 -5.26831E+03  6.88409E+03  3.28908E+03 -7.86199E+01  4.65710E+03 -5.82486E+03  1.91283E+02
 -5.63752E+03 -7.65095E+03 -8.56654E+02 -1.17227E+04  6.57700E+03 -1.23964E+04  1.55444E+04 -6.27787E+03
  1.75040E+04  1.69841E+03  1.31261E+04  1.02175E+04  2.74021E+03  1.40518E+04 -7.55546E+03  1.16552E+04
 -9.95352E+03  3.66877E+03 -4.96952E+03 -2.32965E+03  1.63489E+03 -3.14803E+03  6.61954E+03 -1.05765E+03
  5.39126E+03  5.18576E+03  1.12279E+03  9.60673E+03 -6.76769E+03  9.36105E+03 -1.19697E+04  2.53977E+03
 -7.75123E+03 -5.82886E+03  3.46572E+02 -1.01543E+04  6.07976E+03 -5.15995E+03  6.42543E+03  1.97479E+03
  1.28653E+03  6.77933E+03 -5.95586E+03  8.05278E+03 -9.01712E+03  3.46369E+03 -8.83039E+03 -3.06240E+03
 -4.84084E+03 -1.07221E+04  2.51711E+03 -1.24449E+04  1.05786E+04 -7.58341E+03  1.14835E+04  2.39321E+03
  7.48543E+03  9.07264E+03 -7.34505E+02  1.09881E+04 -8.26982E+03  6.38277E+03 -8.82229E+03 -1.24038E+03
 -8.02654E+03 -7.70524E+03 -1.55275E+03 -8.20674E+03  4.44519E+03 -7.30104E+03  5.29518E+03 -3.33445E+03
  3.94926E+03  1.24164E+03 -4.64891E+02  1.43219E+03 -3.23406E+01 -1.64316E+03  1.32451E+03 -4.51139E+03
  7.23564E+03 -2.61809E+03  1.05072E+04  1.26901E+03  1.01733E+04  7.04841E+03  7.37848E+03  1.36190E+04
 -2.84727E+03  1.55617E+04 -1.34904E+04  1.16802E+04 -1.72977E+04  2.15487E+03 -1.37840E+04 -5.57680E+03
 -6.91385E+03 -1.13388E+04 -3.79343E+02 -9.55452E+03  3.37740E+03 -4.85600E+03  3.28800E+03 -3.31218E+03
  2.30332E+03 -2.24124E+03  2.74749E+03 -3.14172E+03  4.46955E+03 -2.51934E+03  5.80352E+03 -4.81234E+02
  7.23762E+03  1.61234E+03  3.18469E+03  6.03533E+03 -1.86434E+03  6.87758E+03 -7.83932E+03  5.07619E+03
 -9.04726E+03 -9.51749E+02 -5.08844E+03 -6.27006E+03 -3.12820E+02 -9.89364E+03  5.35641E+03 -9.70337E+03
  1.05321E+04 -5.64800E+03  1.22320E+04  1.35407E+03  8.75219E+03  8.35741E+03  1.74254E+03  1.12580E+04
 -4.49248E+03  9.64211E+03 -6.87064E+03  3.07540E+03 -4.19562E+03 -9.20727E+02 -1.93482E+03 -1.31473E+03
 -1.27258E+03  2.41380E+02 -1.11742E+03  2.08863E+03 -3.97753E+03  1.47190E+03 -6.58295E+03 -7.84992E+02
 -4.17451E+03 -6.19095E+03  3.38889E+02 -8.84714E+03  5.40718E+03 -7.96346E+03  8.15757E+03 -2.24239E+03
  8.51035E+03  4.47187E+03  4.05116E+03  7.16434E+03 -1.65983E+03  8.68521E+03 -5.92637E+03  5.44898E+03
 -8.04940E+03  4.16194E+02 -6.48491E+03 -5.23641E+03 -5.27560E+02 -6.97481E+03  3.25314E+03 -5.28767E+03
  5.28381E+03 -1.91189E+03  3.83141E+03  1.58853E+03  1.17423E+03  3.14259E+03  1.03485E+03  1.05170E+03
  2.36070E+03  1.07769E+03  2.02171E+03  1.38278E+03  2.26102E+03  3.70173E+03  2.24879E+03  4.12992E+03
 -2.25949E+03  6.39437E+03 -5.51250E+03  6.95753E+03 -7.64515E+03  1.89806E+03 -8.95774E+03 -3.03004E+03
 -4.11866E+03 -8.16941E+03  1.28077E+03 -9.38162E+03  4.73286E+03 -5.67678E+03  6.86915E+03 -1.81000E+03
  4.71799E+03  3.38068E+03  1.32190E+03  4.79110E+03 -2.36825E+03  2.71825E+03 -3.02482E+03 -3.41090E+02
 -1.39097E+03 -3.50066E+03  2.03439E+03 -3.40486E+03  3.32383E+03 -1.84555E+03  3.11494E+03  7.24968E+02
  2.09829E+03  1.09943E+03  1.11463E+03  6.36661E+02 -9.31345E+02  1.37019E+03  1.63990E+03 -5.56940E+02
  8.91251E+02 -1.89031E+02  3.39016E+03  1.35526E+03  1.41246E+03  4.20745E+03 -5.94073E+02  5.73953E+03
 -3.88253E+03  3.24877E+03 -5.05736E+03  9.88672E+02 -4.14524E+03 -1.85656E+03 -1.31013E+03 -2.51472E+03
  6.93496E+02 -2.77629E+03  1.86741E+03 -1.24736E+03  1.44466E+03  1.74028E+03 -9.53620E+02  2.69427E+03
 -3.10164E+03  1.32225E+03 -3.29883E+03 -2.24934E+03 -1.96285E+03 -4.34709E+03  4.14253E+02 -3.94098E+03
  2.10890E+03 -2.28361E+03  2.53544E+03  2.20004E+01  2.30590E+03  6.74754E+02  5.02340E+02  2.65603E+03
 -1.37915E+03  3.18565E+02 -1.75528E+03 -1.02685E+03  7.85941E+02 -2.94202E+03  3.84026E+03 -2.47310E+03
  4.05568E+03  2.74451E+02  5.18555E+03  2.82120E+03  1.79639E+03  4.45597E+03 -1.48218E+03  4.11499E+03
 -3.90239E+03  1.55229E+03 -3.67831E+03 -5.39397E+02 -1.98637E+03 -3.05049E+03  8.49234E+02 -2.44517E+03
  3.22079E+03 -1.49514E+03  2.00951E+03  1.52928E+03  6.19334E+02  2.54012E+03  7.37400E+01  2.17542E+03
 -9.58466E+02  1.63140E+03 -7.88648E+02  5.75207E+02 -3.90777E+02  4.50613E+02 -8.45320E+02  1.20015E+03
 -1.22169E+03  2.15442E+03 -3.42664E+03  1.64365E+03 -4.25461E+03  2.49714E+02 -5.27088E+03 -2.42531E+03
 -2.54150E+03 -5.59089E+03  1.14367E+03 -6.65292E+03  3.63178E+03 -5.24849E+03  6.44305E+03 -2.14665E+03
  5.99384E+03  1.08686E+03  3.24292E+03  4.03133E+03 -2.21860E+02  4.24408E+03 -1.95850E+03  3.32721E+03
 -2.44022E+03  1.61048E+03 -1.55182E+03 -2.17301E+02 -6.05922E+02  1.22073E+02 -9.06050E+02 -2.36991E+02
 -1.47347E+03  1.48849E+02 -1.51366E+03 -8.66938E+01  2.58308E+02 -1.38393E+03  1.46596E+02 -1.55600E+03
  2.61431E+03 -1.28691E+03  2.33603E+03  5.24444E+02  3.01790E+03  2.62356E+03  8.54343E+01  4.16552E+03
 -1.97868E+03  4.76424E+03 -4.54546E+03  3.21293E+03 -5.10213E+03 -6.19143E+02 -3.51074E+03 -3.30261E+03
 -1.94791E+03 -3.95304E+03  1.06143E+03 -3.79676E+03  2.64446E+03 -2.28305E+03  2.36192E+03 -4.10642E+02
  1.81346E+03  1.36712E+03 -1.96872E+02  1.00441E+03 -1.02432E+03 -1.90053E+02  5.30973E+01 -8.78549E+02
  1.30821E+03 -3.26352E+02  1.19048E+03  5.27942E+02  9.25440E+02  1.69026E+03  3.60591E+02  1.67326E+03
 -1.73002E+03  1.98718E+03 -2.40802E+03  3.49204E+02 -2.55395E+03 -1.84438E+03 -5.69792E+02 -3.12178E+03
  1.66319E+03 -2.58436E+03  2.65425E+03 -5.42372E+02  2.56127E+03 -1.86766E+02  1.68868E+03  2.41508E+03
  7.64029E+02  2.04105E+03 -6.97913E+02  1.87382E+03 -1.53363E+03  1.39174E+03 -9.86497E+02  4.20872E+02
 -6.97938E+02 -2.10112E+02 -7.36902E+02  2.68820E+02 -1.21031E+03  3.80674E+02 -1.97482E+03 -5.73049E+02
 -2.27035E+03 -9.17335E+02 -2.77800E+02 -2.61483E+03  1.68202E+03 -2.96496E+03  2.17406E+03 -1.20918E+03
  2.08397E+03  8.90691E+01  6.60229E+02  1.39819E+03 -2.37833E+01  2.28341E+03 -2.01756E+03  2.00698E+03
