 $NMID ID='MM_0lb_SNR800_12hz_g50_64.RAW', FMTDAT='(8E13.5)'
 TRAMP=1., VOLUME=1. $END
  3.09861E+05  4.90449E+02  3.37652E+05  2.50986E+05  8.44877E+04  3.38276E+05 -1.32351E+05  2.51162E+05
 -1.90737E+05  8.31909E+04 -1.12094E+05 -3.26032E+04  3.90860E+02 -5.03853E+04  5.37427E+04 -1.09348E+02
  3.52826E+04  5.28848E+04 -1.65834E+04  7.59657E+04 -6.09432E+04  6.38496E+04 -8.44865E+04  3.22986E+04
 -8.17278E+04 -1.16762E+04 -5.79717E+04 -5.15034E+04 -1.53031E+04 -7.02972E+04  2.76457E+04 -4.60311E+04
  4.04691E+04  3.70003E+03  1.64171E+04  4.79753E+04 -3.43785E+04  4.73442E+04 -6.73412E+04  2.74010E+02
 -5.40641E+04 -5.75417E+04 -6.68236E+03 -7.81149E+04  3.42310E+04 -5.58276E+04  4.86604E+04 -1.74902E+04
  4.41744E+04  1.09980E+04  3.25172E+04  2.57634E+04  1.58767E+04  2.95086E+04 -5.30566E+03  2.77422E+04
 -2.22465E+04  1.19927E+04 -1.84021E+04 -5.02223E+03  6.03462E+03 -7.64334E+03  2.30566E+04  1.29744E+04
  7.50757E+03  3.60024E+04 -3.28890E+04  3.60672E+04 -6.42339E+04  2.12400E+03 -5.81652E+04 -4.32085E+04
 -1.25804E+04 -6.44004E+04  4.01790E+04 -4.61123E+04  5.94702E+04 -2.24508E+03  3.54521E+04  3.30593E+04
 -5.84679E+03  3.74857E+04 -3.07541E+04  1.69930E+04 -3.17425E+04 -3.87344E+03 -1.75609E+04 -1.14432E+04
 -8.96713E+03 -1.41704E+04 -5.80354E+02 -1.86339E+04  7.73681E+03 -2.28678E+04  1.57133E+04 -1.30838E+04
  1.07887E+04  5.65073E+03 -9.08267E+03  1.27518E+04 -2.22288E+04 -5.26831E+03 -8.51069E+03 -3.54017E+04
  2.38373E+04 -4.47099E+04  5.01681E+04 -2.03155E+04  4.66847E+04  1.99054E+04  1.64113E+04  4.52870E+04
 -1.66539E+04  3.45596E+04 -2.60845E+04  1.82379E+03 -1.05479E+04 -2.85804E+04  2.11006E+04 -3.49670E+04
  4.23612E+04 -9.43379E+03  3.75447E+04  2.44909E+04  1.93335E+04  4.84799E+04 -8.01759E+03  5.25048E+04
 -3.32245E+04  3.58439E+04 -4.44718E+04  1.00657E+04 -4.45053E+04 -1.77043E+04 -2.43088E+04 -3.97810E+04
  7.51334E+03 -3.94227E+04  3.27194E+04 -1.58141E+04  3.04532E+04  1.08620E+04  4.47026E+03  1.99669E+04
 -1.35725E+04  8.79256E+03 -1.05300E+04 -7.90120E+03  5.78504E+03 -1.09866E+04  1.85600E+04  5.81988E+03
  1.42316E+04  2.24470E+04 -5.74965E+03  2.57277E+04 -2.25916E+04  1.25312E+04 -2.92044E+04 -4.40183E+03
 -2.26129E+04 -1.77246E+04 -9.21333E+03 -2.23382E+04  4.24883E+03 -2.18386E+04  1.74937E+04 -2.05588E+04
  2.84931E+04 -1.34233E+04  3.47485E+04  3.92839E+03  2.50668E+04  2.18453E+04  4.19459E+03  3.84485E+04
 -1.82055E+04  3.21464E+04 -2.93121E+04  1.11061E+04 -2.14291E+04 -1.04033E+04 -4.62029E+03 -1.30404E+04
  1.50772E+03 -2.20706E+03 -6.05673E+03  7.17411E+03 -1.80233E+04  5.05572E+03 -1.76197E+04 -7.82898E+03
 -1.06681E+04 -2.08684E+04  5.66353E+03 -2.50420E+04  1.68403E+04 -1.81983E+04  2.00605E+04 -1.66223E+03
  1.28219E+04  1.45820E+04 -1.13799E+03  2.04993E+04 -1.45821E+04  1.20665E+04 -2.06271E+04 -4.51719E+03
 -1.53789E+04 -1.86811E+04 -2.14845E+03 -2.50148E+04  1.10439E+04 -2.11485E+04  2.08817E+04 -1.06380E+04
  1.91578E+04  2.62691E+02  1.41266E+04  4.66643E+03  7.49625E+03  7.50146E+02  1.07149E+04 -1.68308E+03
  1.90623E+04  2.80794E+03  2.21096E+04  1.64194E+04  1.43249E+04  3.35911E+04 -2.90282E+03  3.80015E+04
 -2.20997E+04  3.10476E+04 -3.58117E+04  1.59136E+04 -3.76510E+04 -2.57857E+03 -3.05154E+04 -2.20345E+04
 -1.29702E+04 -3.11321E+04  1.07622E+04 -2.78696E+04  2.39862E+04 -1.38114E+04  2.11842E+04  6.15331E+03
  7.62057E+03  1.61650E+04 -1.01895E+04  1.36777E+04 -1.78272E+04  2.45259E+03 -1.34602E+04 -1.13565E+04
 -4.52592E+02 -1.70806E+04  9.08695E+03 -1.27688E+04  1.17266E+04 -7.79075E+02  2.78242E+03  7.39196E+03
 -7.82700E+03  3.05838E+03 -7.13445E+03 -6.66692E+03 -1.00383E+03 -1.52549E+04  1.06208E+04 -1.65952E+04
  1.90652E+04 -8.53150E+03  2.14606E+04  3.05861E+03  1.84933E+04  1.49461E+04  8.27399E+03  2.37258E+04
 -3.96307E+03  2.54391E+04 -1.65893E+04  1.58481E+04 -1.83684E+04  3.33569E+03 -1.32818E+04 -4.16356E+03
 -5.74966E+03 -5.89548E+03 -7.04985E+02  5.96762E+02 -2.66505E+03  3.22047E+03 -6.08454E+03  4.65950E+03
 -1.18610E+04 -8.32453E+02 -1.22550E+04 -1.00069E+04 -4.91724E+03 -1.67035E+04  5.40927E+03 -1.28357E+04
  1.05830E+04 -5.46787E+03  7.71266E+03  3.40441E+03  2.87056E+02  5.08631E+03 -6.38912E+03 -3.59048E+02
 -6.02352E+03 -7.99921E+03 -1.51591E+03 -1.22068E+04  7.03370E+03 -1.32469E+04  1.64704E+04 -6.92880E+03
  1.89760E+04  1.59730E+03  1.39425E+04  1.15125E+04  2.71643E+03  1.50922E+04 -7.93889E+03  1.32202E+04
 -1.08810E+04  3.79033E+03 -5.22646E+03 -2.28764E+03  1.57192E+03 -3.24567E+03  7.02327E+03 -1.20002E+03
  6.18396E+03  5.64339E+03  1.10370E+03  1.03139E+04 -7.68274E+03  9.66959E+03 -1.26540E+04  2.62239E+03
 -8.45467E+03 -6.43132E+03  2.77121E+02 -1.07927E+04  7.00863E+03 -5.65470E+03  7.16358E+03  2.44523E+03
  1.54677E+03  7.57666E+03 -6.97528E+03  8.87533E+03 -1.02087E+04  4.16448E+03 -1.04565E+04 -3.36144E+03
 -5.99478E+03 -1.20783E+04  2.91381E+03 -1.39843E+04  1.15283E+04 -8.51344E+03  1.28872E+04  1.83995E+03
  7.77154E+03  1.02724E+04 -8.94841E+02  1.23201E+04 -9.20340E+03  6.95081E+03 -9.88105E+03 -1.35533E+03
 -8.86113E+03 -8.32875E+03 -1.72569E+03 -9.32890E+03  5.20492E+03 -7.59662E+03  5.92482E+03 -3.67866E+03
  4.12982E+03  1.42685E+03 -6.72167E+02  1.88983E+03 -6.88866E+02 -2.09657E+03  1.52865E+03 -5.25871E+03
  8.58220E+03 -3.40925E+03  1.17446E+04  1.11153E+03  1.12477E+04  7.61825E+03  8.06893E+03  1.54296E+04
 -3.28058E+03  1.76764E+04 -1.51800E+04  1.33243E+04 -1.95025E+04  2.10593E+03 -1.55047E+04 -6.29598E+03
 -7.85122E+03 -1.26941E+04 -5.61006E+02 -1.07217E+04  3.88963E+03 -5.86577E+03  3.93273E+03 -4.12686E+03
  2.77074E+03 -2.65742E+03  3.29394E+03 -3.44640E+03  4.70741E+03 -2.48165E+03  6.30618E+03 -5.90477E+02
  7.96271E+03  1.94731E+03  4.15605E+03  6.74165E+03 -1.93091E+03  7.76696E+03 -8.31476E+03  5.85448E+03
 -1.10270E+04 -1.35465E+03 -6.63475E+03 -7.73258E+03 -5.41669E+02 -1.09597E+04  6.64151E+03 -1.15601E+04
  1.21029E+04 -6.34435E+03  1.42643E+04  1.70382E+03  1.01491E+04  1.00363E+04  1.94017E+03  1.29180E+04
 -5.38099E+03  1.09034E+04 -7.84026E+03  3.85279E+03 -5.02987E+03 -1.33396E+03 -1.96818E+03 -1.63947E+03
 -9.49239E+02  1.12463E+02 -1.56558E+03  2.68544E+03 -4.90525E+03  1.62675E+03 -7.37861E+03 -1.29865E+03
 -4.57661E+03 -7.15535E+03  3.19245E+02 -1.03879E+04  6.33237E+03 -9.29551E+03  1.00284E+04 -2.89982E+03
  1.00459E+04  5.17121E+03  4.76422E+03  8.94064E+03 -2.17778E+03  1.04375E+04 -7.00954E+03  6.46651E+03
 -9.66283E+03  6.68324E+02 -7.69785E+03 -6.26665E+03 -7.06270E+02 -8.47783E+03  4.28342E+03 -6.58536E+03
  6.71203E+03 -2.29786E+03  4.55887E+03  1.68309E+03  1.54087E+03  3.26540E+03  1.20079E+03  1.38473E+03
  2.36902E+03  8.64687E+02  2.58923E+03  1.72685E+03  2.89824E+03  3.72594E+03  2.67596E+03  5.25300E+03
 -1.85919E+03  7.70192E+03 -6.66260E+03  8.27211E+03 -9.96078E+03  2.44171E+03 -1.06017E+04 -3.76835E+03
 -4.94060E+03 -9.92678E+03  1.53997E+03 -1.13852E+04  5.65782E+03 -6.67530E+03  8.15919E+03 -2.14375E+03
  6.75588E+03  3.67968E+03  1.30042E+03  5.74248E+03 -2.63730E+03  3.86747E+03 -3.71504E+03 -8.13954E+02
 -1.85313E+03 -4.50712E+03  2.55783E+03 -4.05924E+03  4.45794E+03 -2.37304E+03  4.18718E+03  7.02545E+02
  2.14730E+03  1.83300E+03  1.05900E+03  1.45408E+03 -7.15921E+02  1.42217E+03  1.38382E+03 -1.85227E+02
  1.29069E+03 -1.72739E+02  4.03924E+03  1.44581E+03  2.14684E+03  5.58714E+03 -6.84937E+02  7.11848E+03
 -4.62458E+03  4.55548E+03 -6.22483E+03  1.34834E+03 -5.47308E+03 -2.16645E+03 -1.80772E+03 -3.69849E+03
  5.81437E+02 -3.94068E+03  2.57460E+03 -2.07311E+03  2.24841E+03  2.06815E+03 -1.13165E+03  3.12527E+03
 -4.38644E+03  1.80836E+03 -4.68456E+03 -2.48746E+03 -2.54841E+03 -5.56573E+03  9.39241E+02 -5.54977E+03
  3.00680E+03 -2.67415E+03  3.96023E+03 -4.93484E+02  3.38383E+03  1.24268E+03  4.91246E+02  2.82657E+03
 -1.91013E+03  9.74360E+02 -2.50917E+03 -1.44525E+03  1.49860E+03 -3.91303E+03  5.02648E+03 -3.19126E+03
  5.88565E+03  4.13930E+02  6.12613E+03  3.71180E+03  2.13647E+03  6.00251E+03 -2.19396E+03  5.78953E+03
 -4.91184E+03  2.02824E+03 -4.83153E+03 -4.80967E+02 -2.93254E+03 -4.15843E+03  4.93131E+02 -3.47559E+03
  3.86819E+03 -1.94471E+03  3.09384E+03  1.49794E+03  1.07174E+03  3.34017E+03 -4.72267E+02  3.02506E+03
 -1.33807E+03  2.50587E+03 -1.61509E+03  3.37369E+02 -7.89490E+02  7.06468E+02 -1.30483E+03  1.21535E+03
 -2.05057E+03  2.55083E+03 -4.09411E+03  1.92779E+03 -5.85518E+03  3.11176E+02 -6.97082E+03 -3.95146E+03
 -3.49126E+03 -8.13427E+03  1.80896E+03 -9.12625E+03  5.46015E+03 -7.06658E+03  8.78363E+03 -3.00137E+03
  7.84947E+03  1.51476E+03  5.30026E+03  5.44542E+03 -1.54572E+01  6.12206E+03 -2.61535E+03  4.41684E+03
 -3.21231E+03  1.78048E+03 -2.21349E+03 -6.78699E+02 -8.62311E+02 -3.05573E+02 -3.83892E+02  1.15304E+01
 -1.65774E+03  8.93187E+01 -1.70361E+03 -3.91891E+01 -1.74282E+02 -1.74630E+03 -8.24154E+01 -2.67136E+03
  3.13117E+03 -2.14018E+03  3.08824E+03  1.90260E+02  4.01968E+03  3.40352E+03  6.17623E+02  6.17455E+03
 -3.07559E+03  7.15163E+03 -6.16355E+03  3.97945E+03 -7.42091E+03 -7.35400E+02 -5.29658E+03 -4.71624E+03
 -2.06980E+03 -5.91658E+03  1.39888E+03 -5.39335E+03  3.79379E+03 -2.92822E+03  3.63785E+03  2.55769E+02
  2.23265E+03  2.00258E+03  1.80346E+02  1.37497E+03 -1.15285E+03 -6.09641E+02  4.75017E+01 -1.08138E+03
  1.91725E+03 -4.55317E+02  2.20406E+03  6.90361E+02  1.28158E+03  2.51209E+03  3.89190E+02  2.76056E+03
 -2.33559E+03  2.73450E+03 -3.65037E+03  2.56834E+02 -3.48240E+03 -2.56619E+03 -6.43131E+02 -4.95906E+03
  2.74146E+03 -3.75040E+03  4.33491E+03 -1.05622E+03  4.37512E+03  4.72051E+02  2.65779E+03  3.36183E+03
  8.01793E+02  3.54629E+03 -1.25113E+03  2.89886E+03 -2.24694E+03  1.53607E+03 -2.33836E+03  3.01088E+02
 -8.95730E+02 -8.37763E+01 -1.24131E+03  5.10333E+02 -2.15632E+03  8.36790E+02 -3.05167E+03 -6.03916E+02
 -2.69462E+03 -1.46911E+03 -8.72097E+02 -3.84450E+03  1.85348E+03 -4.27926E+03  3.35790E+03 -1.99261E+03
  3.65800E+03  3.13813E+02  1.67425E+03  2.63652E+03 -1.56536E+02  3.49659E+03 -2.47040E+03  2.55786E+03
