 $NMID ID='MM_0lb_SNR800_12hz_g40_36.RAW', FMTDAT='(8E13.5)'
 TRAMP=1., VOLUME=1. $END
  3.09711E+05  2.13136E+02  3.37856E+05  2.50832E+05  8.44367E+04  3.37927E+05 -1.32792E+05  2.51157E+05
 -1.90409E+05  8.31001E+04 -1.12008E+05 -3.25731E+04  7.32312E+02 -5.08728E+04  5.36262E+04 -2.20231E+02
  3.56153E+04  5.31392E+04 -1.67647E+04  7.55729E+04 -6.08097E+04  6.36776E+04 -8.42427E+04  3.24540E+04
 -8.12289E+04 -1.15076E+04 -5.72467E+04 -5.09712E+04 -1.49095E+04 -6.97489E+04  2.76059E+04 -4.61554E+04
  4.02062E+04  3.49136E+03  1.60251E+04  4.79800E+04 -3.44532E+04  4.76769E+04 -6.66504E+04 -2.47777E+02
 -5.36969E+04 -5.70074E+04 -6.69463E+03 -7.74603E+04  3.41300E+04 -5.55678E+04  4.84808E+04 -1.70254E+04
  4.38005E+04  1.15268E+04  3.19891E+04  2.55848E+04  1.60618E+04  2.96532E+04 -5.36305E+03  2.73602E+04
 -2.22351E+04  1.22695E+04 -1.85167E+04 -5.29651E+03  5.66266E+03 -7.44067E+03  2.26446E+04  1.26768E+04
  7.44198E+03  3.57380E+04 -3.22757E+04  3.58067E+04 -6.39763E+04  2.57555E+03 -5.71656E+04 -4.26879E+04
 -1.22757E+04 -6.38260E+04  3.97037E+04 -4.57576E+04  5.86318E+04 -2.45922E+03  3.48843E+04  3.29139E+04
 -6.04088E+03  3.67616E+04 -3.04635E+04  1.62701E+04 -3.10136E+04 -4.34669E+03 -1.71469E+04 -1.13182E+04
 -8.51976E+03 -1.38257E+04 -1.00824E+03 -1.83277E+04  7.67867E+03 -2.31501E+04  1.53115E+04 -1.31798E+04
  1.11293E+04  5.45360E+03 -8.79169E+03  1.30920E+04 -2.16589E+04 -4.78499E+03 -8.39697E+03 -3.46017E+04
  2.31655E+04 -4.41146E+04  4.91493E+04 -2.02866E+04  4.57914E+04  1.96141E+04  1.60131E+04  4.48526E+04
 -1.62617E+04  3.35950E+04 -2.58936E+04  1.82541E+03 -1.00358E+04 -2.80946E+04  2.10858E+04 -3.42868E+04
  4.16873E+04 -9.57611E+03  3.64640E+04  2.37877E+04  1.88645E+04  4.72824E+04 -7.94016E+03  5.15914E+04
 -3.24343E+04  3.43656E+04 -4.31109E+04  1.01564E+04 -4.33896E+04 -1.68575E+04 -2.41501E+04 -3.89756E+04
  7.45885E+03 -3.87429E+04  3.17650E+04 -1.51311E+04  2.99730E+04  1.10343E+04  4.33763E+03  1.98214E+04
 -1.34942E+04  8.74913E+03 -1.05065E+04 -7.64500E+03  6.02974E+03 -1.13741E+04  1.81351E+04  5.68758E+03
  1.38655E+04  2.20009E+04 -6.11922E+03  2.52911E+04 -2.24401E+04  1.20920E+04 -2.86789E+04 -4.31037E+03
 -2.15234E+04 -1.72914E+04 -8.85683E+03 -2.12337E+04  4.13562E+03 -2.09101E+04  1.68950E+04 -1.93075E+04
  2.73127E+04 -1.30415E+04  3.34604E+04  3.16477E+03  2.50438E+04  2.07106E+04  4.49595E+03  3.70597E+04
 -1.83589E+04  3.13028E+04 -2.85554E+04  1.08921E+04 -2.11204E+04 -1.02825E+04 -4.72271E+03 -1.34001E+04
  1.50822E+03 -2.62682E+03 -5.30483E+03  6.83923E+03 -1.72820E+04  5.18040E+03 -1.73405E+04 -7.43151E+03
 -1.04365E+04 -1.95339E+04  5.16071E+03 -2.43118E+04  1.61462E+04 -1.71294E+04  1.93748E+04 -1.57870E+03
  1.22284E+04  1.37963E+04 -1.53313E+03  1.97097E+04 -1.37295E+04  1.13292E+04 -2.01396E+04 -4.13071E+03
 -1.45923E+04 -1.78204E+04 -1.90150E+03 -2.37296E+04  1.06257E+04 -1.97467E+04  2.00277E+04 -9.91067E+03
  1.84732E+04  6.06832E+02  1.32428E+04  4.71193E+03  7.42311E+03  7.35920E+02  1.01659E+04 -1.74811E+03
  1.85815E+04  3.04369E+03  2.05390E+04  1.56521E+04  1.38860E+04  3.17568E+04 -3.02315E+03  3.60420E+04
 -2.11367E+04  2.96482E+04 -3.42837E+04  1.44994E+04 -3.57960E+04 -2.94553E+03 -2.93184E+04 -2.08394E+04
 -1.24367E+04 -2.97312E+04  1.01520E+04 -2.60315E+04  2.27981E+04 -1.33863E+04  2.03842E+04  6.06238E+03
  7.51658E+03  1.51333E+04 -9.42398E+03  1.31935E+04 -1.70147E+04  2.74037E+03 -1.31037E+04 -1.06297E+04
 -5.10294E+02 -1.62278E+04  8.38121E+03 -1.21311E+04  1.07671E+04 -1.22691E+03  2.64577E+03  7.43514E+03
 -7.09938E+03  2.86079E+03 -6.59363E+03 -5.97396E+03 -7.86955E+02 -1.49013E+04  1.01488E+04 -1.53536E+04
  1.78544E+04 -8.12241E+03  1.96462E+04  3.21130E+03  1.72184E+04  1.44650E+04  8.02920E+03  2.21295E+04
 -3.95334E+03  2.40322E+04 -1.52952E+04  1.51338E+04 -1.75317E+04  3.17782E+03 -1.23177E+04 -4.05639E+03
 -5.93113E+03 -5.89284E+03 -3.56608E+02  1.00390E+03 -2.23433E+03  2.87378E+03 -5.63571E+03  4.89883E+03
 -1.15898E+04 -8.89458E+02 -1.20688E+04 -9.79379E+03 -4.62944E+03 -1.59142E+04  5.30005E+03 -1.21236E+04
  1.02365E+04 -4.93838E+03  7.34547E+03  3.25037E+03 -1.37154E+02  4.68772E+03 -5.76650E+03 -8.53497E+01
 -5.48663E+03 -7.88038E+03 -8.64650E+02 -1.15110E+04  6.98932E+03 -1.25133E+04  1.52554E+04 -6.77299E+03
  1.77676E+04  1.83216E+03  1.35954E+04  1.03719E+04  2.77546E+03  1.41867E+04 -7.50698E+03  1.20306E+04
 -1.00497E+04  3.50943E+03 -5.38379E+03 -2.48213E+03  1.79390E+03 -3.60879E+03  6.99630E+03 -8.95276E+02
  6.06195E+03  4.91377E+03  1.47015E+03  9.49779E+03 -6.66664E+03  9.46913E+03 -1.20923E+04  2.33000E+03
 -7.90766E+03 -5.83459E+03  3.99708E+01 -1.00710E+04  6.62612E+03 -5.37238E+03  6.51907E+03  2.35551E+03
  1.04351E+03  7.20478E+03 -6.30219E+03  8.73056E+03 -9.40139E+03  4.08037E+03 -9.83520E+03 -3.30998E+03
 -5.27814E+03 -1.10931E+04  2.54855E+03 -1.26178E+04  1.11598E+04 -7.74895E+03  1.18680E+04  2.05616E+03
  8.01091E+03  9.64242E+03 -7.77409E+02  1.20048E+04 -8.33107E+03  6.65195E+03 -9.21240E+03 -9.93807E+02
 -8.80624E+03 -8.05365E+03 -1.55285E+03 -8.80698E+03  4.55094E+03 -7.25200E+03  5.42758E+03 -3.53816E+03
  4.24740E+03  1.23492E+03 -4.81258E+02  1.48988E+03 -6.00878E+02 -2.15689E+03  1.69467E+03 -4.55324E+03
  7.95052E+03 -2.98312E+03  1.06965E+04  1.12917E+03  1.08894E+04  7.22336E+03  8.11648E+03  1.45048E+04
 -3.35416E+03  1.67209E+04 -1.39363E+04  1.23152E+04 -1.85595E+04  2.09966E+03 -1.45086E+04 -5.79026E+03
 -7.54663E+03 -1.20033E+04 -5.24828E+02 -1.02908E+04  3.55202E+03 -5.28068E+03  3.88928E+03 -3.83338E+03
  2.59474E+03 -2.23564E+03  3.13026E+03 -3.07663E+03  4.67418E+03 -2.22483E+03  5.88738E+03 -8.41766E+02
  7.54023E+03  1.99186E+03  3.61931E+03  6.42956E+03 -1.95544E+03  7.23531E+03 -8.18550E+03  5.95722E+03
 -9.76241E+03 -1.17982E+03 -5.65675E+03 -6.80270E+03 -5.36213E+02 -1.06623E+04  5.97713E+03 -1.07884E+04
  1.10492E+04 -6.14185E+03  1.32259E+04  1.67509E+03  9.54105E+03  9.45738E+03  1.51096E+03  1.22372E+04
 -4.78249E+03  1.03966E+04 -7.15533E+03  3.56731E+03 -4.43682E+03 -1.20930E+03 -1.86442E+03 -1.58534E+03
 -8.94709E+02  1.11841E+02 -1.92117E+03  2.33903E+03 -4.29349E+03  1.63821E+03 -7.16333E+03 -8.67148E+02
 -4.57128E+03 -7.23337E+03  6.49740E+02 -9.93442E+03  6.03736E+03 -9.10975E+03  9.24660E+03 -2.81326E+03
  9.35807E+03  4.97893E+03  3.83630E+03  8.21165E+03 -1.96807E+03  9.60089E+03 -7.08244E+03  5.76178E+03
 -9.05605E+03  3.81560E+02 -6.98733E+03 -5.90105E+03 -5.80596E+02 -7.80776E+03  3.92733E+03 -5.76340E+03
  6.14621E+03 -2.08262E+03  4.16123E+03  1.09745E+03  1.65930E+03  3.01343E+03  1.03369E+03  1.15326E+03
  2.38638E+03  8.65613E+02  2.45170E+03  1.38011E+03  2.74619E+03  4.02534E+03  2.49905E+03  4.92924E+03
 -1.96382E+03  7.63367E+03 -6.48782E+03  8.13231E+03 -9.02033E+03  2.16978E+03 -9.84748E+03 -3.30785E+03
 -4.69433E+03 -9.42069E+03  1.60861E+03 -1.08867E+04  5.31775E+03 -6.77638E+03  7.86055E+03 -1.71281E+03
  5.96097E+03  3.71624E+03  1.01031E+03  5.49088E+03 -2.27340E+03  3.57836E+03 -3.92707E+03 -2.30342E+02
 -1.62123E+03 -4.25589E+03  2.47683E+03 -4.00889E+03  4.02048E+03 -2.27337E+03  3.71172E+03  5.72716E+02
  2.14087E+03  1.55683E+03  9.18335E+02  1.05697E+03 -4.35230E+02  1.33747E+03  1.65233E+03 -3.97304E+02
  1.44897E+03 -6.79251E+02  3.81908E+03  1.28535E+03  1.65800E+03  4.93919E+03 -1.07777E+03  6.54278E+03
 -4.39448E+03  3.78337E+03 -5.68963E+03  9.58302E+02 -5.32969E+03 -1.91143E+03 -1.82112E+03 -3.82647E+03
  8.66846E+02 -3.80163E+03  2.45310E+03 -2.15142E+03  1.98460E+03  1.91990E+03 -1.22580E+03  3.11210E+03
 -3.65114E+03  1.97016E+03 -4.20325E+03 -2.47623E+03 -2.63077E+03 -5.45914E+03  6.52649E+02 -4.85875E+03
  2.94771E+03 -2.64593E+03  3.23914E+03 -4.93471E+01  3.11721E+03  1.38281E+03  6.41500E+02  3.03027E+03
 -1.66656E+03  8.05538E+02 -2.25249E+03 -1.54508E+03  1.04777E+03 -3.86999E+03  4.63100E+03 -2.40268E+03
  5.35079E+03  2.64157E+02  5.78106E+03  3.48884E+03  1.84915E+03  5.86597E+03 -1.61794E+03  5.41068E+03
 -4.70745E+03  1.94357E+03 -4.73629E+03 -6.66659E+02 -2.50720E+03 -4.02106E+03  1.01491E+03 -3.31574E+03
  3.71303E+03 -1.95475E+03  3.06167E+03  1.39316E+03  1.11849E+03  3.47705E+03 -3.40734E+02  3.05210E+03
 -1.53736E+03  2.01232E+03 -1.39036E+03  3.67558E+02  1.13514E+02  7.66584E+02 -7.56274E+02  1.34488E+03
 -1.40999E+03  2.38722E+03 -4.27609E+03  1.78669E+03 -6.14454E+03 -7.37151E+01 -6.29300E+03 -3.70081E+03
 -3.02240E+03 -7.39732E+03  1.22534E+03 -8.66710E+03  4.90403E+03 -7.12707E+03  8.35874E+03 -2.82150E+03
  7.62671E+03  1.23013E+03  4.65859E+03  5.50200E+03  5.37176E+01  5.48214E+03 -2.26217E+03  4.61626E+03
 -3.28126E+03  2.09857E+03 -1.76195E+03 -4.69021E+02 -8.60657E+02 -3.96989E+02 -4.37406E+02  1.18903E+02
 -1.29887E+03  1.19949E+02 -1.52244E+03 -8.56211E+01  1.04622E+02 -1.39583E+03 -4.41331E+02 -2.68799E+03
  2.84030E+03 -1.69706E+03  3.04435E+03  1.20149E+01  4.15806E+03  3.01879E+03  4.91799E+02  5.59497E+03
 -2.89592E+03  6.66982E+03 -5.61673E+03  4.11438E+03 -7.16683E+03 -3.90831E+02 -4.93863E+03 -4.34628E+03
 -2.27612E+03 -5.75497E+03  1.49865E+03 -5.26667E+03  3.11296E+03 -2.47638E+03  3.65352E+03  2.61217E+02
  2.34918E+03  1.66348E+03 -3.99970E+01  1.73799E+03 -9.91049E+02  2.97894E+01 -5.56135E+01 -1.12835E+03
  1.76552E+03 -6.29745E+02  2.06539E+03  1.05837E+03  1.16265E+03  1.97996E+03  3.59714E+02  2.67462E+03
 -2.22457E+03  2.62158E+03 -3.54694E+03  3.27670E+02 -3.41227E+03 -2.73030E+03 -3.97190E+02 -4.85795E+03
  2.86133E+03 -3.75166E+03  3.73362E+03 -7.70632E+02  3.89787E+03  4.89551E+02  2.40373E+03  3.36368E+03
  5.24578E+02  3.62644E+03 -1.44669E+03  2.47904E+03 -2.08463E+03  1.74076E+03 -1.73889E+03  1.00510E+02
 -7.59614E+02 -2.30154E+02 -1.10643E+03  4.53384E+02 -1.61517E+03  6.41031E+02 -2.82420E+03 -4.92376E+02
 -3.24218E+03 -1.57786E+03 -7.34043E+02 -3.70355E+03  2.06204E+03 -4.03372E+03  3.28846E+03 -1.62829E+03
  3.18058E+03  3.98763E+02  1.35439E+03  2.25349E+03 -1.58125E+02  3.70560E+03 -2.63968E+03  2.53812E+03
