 $NMID ID='MM_0lb_SNR800_11hz_g50_89.RAW', FMTDAT='(8E13.5)'
 TRAMP=1., VOLUME=1. $END
  3.10046E+05  2.65744E+02  3.37663E+05  2.50675E+05  8.49192E+04  3.38183E+05 -1.32879E+05  2.51107E+05
 -1.90764E+05  8.36149E+04 -1.12595E+05 -3.21650E+04  8.14154E+02 -5.06104E+04  5.37578E+04 -2.42108E+02
  3.54721E+04  5.26708E+04 -1.67767E+04  7.59366E+04 -6.12205E+04  6.40316E+04 -8.47844E+04  3.21503E+04
 -8.15874E+04 -1.15780E+04 -5.74204E+04 -5.18871E+04 -1.51952E+04 -7.03149E+04  2.78685E+04 -4.65758E+04
  4.04502E+04  3.52548E+03  1.64513E+04  4.79970E+04 -3.43839E+04  4.78698E+04 -6.72813E+04  7.00186E+01
 -5.44503E+04 -5.76266E+04 -6.99286E+03 -7.83263E+04  3.44736E+04 -5.62706E+04  4.90276E+04 -1.79380E+04
  4.42506E+04  1.12643E+04  3.23059E+04  2.59055E+04  1.58944E+04  3.04657E+04 -5.62280E+03  2.75165E+04
 -2.23701E+04  1.20009E+04 -1.83256E+04 -5.56347E+03  6.45009E+03 -7.42527E+03  2.32723E+04  1.32863E+04
  7.10549E+03  3.65392E+04 -3.33324E+04  3.65625E+04 -6.47726E+04  2.18421E+03 -5.81501E+04 -4.38288E+04
 -1.29054E+04 -6.44751E+04  4.09786E+04 -4.62889E+04  5.98475E+04 -2.15480E+03  3.60446E+04  3.33637E+04
 -5.23697E+03  3.82511E+04 -3.09791E+04  1.74194E+04 -3.22441E+04 -3.86269E+03 -1.84529E+04 -1.14588E+04
 -9.15908E+03 -1.41073E+04 -7.47123E+02 -1.88811E+04  8.05678E+03 -2.37130E+04  1.54882E+04 -1.26900E+04
  1.07445E+04  5.87315E+03 -9.55003E+03  1.25929E+04 -2.28634E+04 -6.10402E+03 -8.18705E+03 -3.57495E+04
  2.39822E+04 -4.55634E+04  5.02354E+04 -2.04485E+04  4.70468E+04  2.04903E+04  1.65975E+04  4.59419E+04
 -1.67604E+04  3.51252E+04 -2.65330E+04  2.12432E+03 -1.09726E+04 -2.89602E+04  2.15091E+04 -3.54543E+04
  4.32369E+04 -1.04390E+04  3.83384E+04  2.44456E+04  1.99595E+04  4.90707E+04 -8.33895E+03  5.35371E+04
 -3.37817E+04  3.66550E+04 -4.52613E+04  1.08580E+04 -4.53946E+04 -1.77689E+04 -2.47664E+04 -4.02067E+04
  7.43680E+03 -4.07004E+04  3.30317E+04 -1.61762E+04  3.08779E+04  1.11716E+04  5.07427E+03  2.03253E+04
 -1.36764E+04  9.20631E+03 -1.11658E+04 -7.45680E+03  5.65069E+03 -1.10511E+04  1.85735E+04  5.78119E+03
  1.42150E+04  2.28427E+04 -5.77100E+03  2.62273E+04 -2.26733E+04  1.28447E+04 -3.00879E+04 -3.84249E+03
 -2.36953E+04 -1.82854E+04 -1.01678E+04 -2.32860E+04  4.25593E+03 -2.32845E+04  1.80464E+04 -2.09877E+04
  2.98839E+04 -1.36154E+04  3.58331E+04  4.07165E+03  2.57234E+04  2.25175E+04  4.55525E+03  3.90960E+04
 -1.93162E+04  3.25593E+04 -2.97087E+04  1.14995E+04 -2.17017E+04 -1.04427E+04 -4.69727E+03 -1.31561E+04
  1.29190E+03 -1.99092E+03 -6.42407E+03  7.93071E+03 -1.88217E+04  4.97402E+03 -1.87930E+04 -8.51428E+03
 -1.10213E+04 -2.15961E+04  5.83675E+03 -2.55960E+04  1.74433E+04 -1.85545E+04  2.06596E+04 -1.72370E+03
  1.32616E+04  1.48279E+04 -1.05925E+03  2.12250E+04 -1.51514E+04  1.24291E+04 -2.18115E+04 -4.46911E+03
 -1.61878E+04 -1.92874E+04 -1.88714E+03 -2.58870E+04  1.17093E+04 -2.14064E+04  2.17549E+04 -1.10800E+04
  2.04676E+04 -1.85945E+02  1.44335E+04  4.51436E+03  8.23161E+03  8.51977E+02  1.09528E+04 -2.03401E+03
  2.03036E+04  2.78174E+03  2.32809E+04  1.68242E+04  1.57280E+04  3.47662E+04 -2.85197E+03  3.97564E+04
 -2.28272E+04  3.29616E+04 -3.74460E+04  1.67209E+04 -4.01648E+04 -2.82622E+03 -3.26785E+04 -2.33180E+04
 -1.35971E+04 -3.33390E+04  1.16434E+04 -2.96520E+04  2.50353E+04 -1.44810E+04  2.22295E+04  7.16706E+03
  7.78523E+03  1.66527E+04 -1.04966E+04  1.44615E+04 -1.80714E+04  2.89490E+03 -1.40058E+04 -1.15976E+04
 -3.24658E+02 -1.74689E+04  9.53315E+03 -1.30913E+04  1.20772E+04 -1.30403E+03  2.65758E+03  7.86640E+03
 -7.61959E+03  3.48726E+03 -8.01748E+03 -6.59995E+03 -1.25199E+03 -1.63944E+04  1.10586E+04 -1.75844E+04
  2.01626E+04 -9.58168E+03  2.31901E+04  3.26321E+03  1.96506E+04  1.62704E+04  9.07709E+03  2.54305E+04
 -4.36716E+03  2.75100E+04 -1.79031E+04  1.73431E+04 -1.97093E+04  3.66424E+03 -1.36239E+04 -4.81777E+03
 -5.86487E+03 -6.53140E+03 -8.11296E+02  8.13759E+02 -2.66616E+03  3.17998E+03 -6.79073E+03  5.02291E+03
 -1.27080E+04 -5.57252E+02 -1.34046E+04 -1.07596E+04 -5.34179E+03 -1.73574E+04  6.23482E+03 -1.40832E+04
  1.15185E+04 -5.74886E+03  8.17434E+03  4.01433E+03 -2.27835E+02  5.30236E+03 -6.95653E+03 -8.06266E+01
 -6.20504E+03 -8.91150E+03 -1.12866E+03 -1.37302E+04  7.93985E+03 -1.43633E+04  1.73030E+04 -7.37835E+03
  2.03198E+04  2.00768E+03  1.49860E+04  1.22522E+04  2.87579E+03  1.65785E+04 -8.39035E+03  1.39514E+04
 -1.09699E+04  4.29092E+03 -5.99742E+03 -2.87567E+03  2.08293E+03 -3.95478E+03  7.24947E+03 -9.93163E+02
  6.36650E+03  5.79169E+03  9.35907E+02  1.09717E+04 -7.87084E+03  1.04832E+04 -1.36696E+04  2.76665E+03
 -9.62454E+03 -6.76526E+03  3.11304E+02 -1.16735E+04  7.35668E+03 -5.84110E+03  8.07887E+03  2.38401E+03
  1.63448E+03  8.32067E+03 -7.22636E+03  9.49355E+03 -1.11734E+04  4.54538E+03 -1.14524E+04 -4.01262E+03
 -6.47838E+03 -1.33679E+04  3.37737E+03 -1.52431E+04  1.25658E+04 -9.08882E+03  1.44534E+04  2.01421E+03
  8.69420E+03  1.15554E+04 -1.22771E+03  1.31749E+04 -9.73093E+03  7.62927E+03 -1.04834E+04 -1.44732E+03
 -9.36970E+03 -8.84955E+03 -2.01287E+03 -1.01347E+04  5.57715E+03 -8.32904E+03  6.42089E+03 -3.66027E+03
  4.31295E+03  1.46673E+03 -1.40988E+03  1.94288E+03 -7.45361E+02 -2.40124E+03  1.95680E+03 -5.71564E+03
  9.31536E+03 -3.62513E+03  1.28187E+04  1.24961E+03  1.32299E+04  9.09185E+03  8.79208E+03  1.68775E+04
 -3.93458E+03  1.92679E+04 -1.64393E+04  1.48099E+04 -2.18054E+04  3.09126E+03 -1.72179E+04 -7.04543E+03
 -8.81947E+03 -1.43927E+04 -1.55965E+02 -1.17490E+04  4.33939E+03 -6.32847E+03  4.20894E+03 -4.13690E+03
  3.47566E+03 -2.32486E+03  3.44974E+03 -3.44593E+03  5.12093E+03 -2.51437E+03  6.51079E+03 -1.59875E+03
  8.89805E+03  2.05124E+03  4.19399E+03  7.68445E+03 -1.81919E+03  9.19172E+03 -9.27300E+03  6.99151E+03
 -1.22201E+04 -1.42211E+03 -7.22553E+03 -8.77714E+03 -8.93462E+02 -1.23796E+04  7.19299E+03 -1.23536E+04
  1.29387E+04 -7.03084E+03  1.54909E+04  1.79785E+03  1.12426E+04  1.11855E+04  1.83649E+03  1.44700E+04
 -6.21612E+03  1.18835E+04 -8.28099E+03  4.15994E+03 -5.51830E+03 -1.26153E+03 -2.16122E+03 -1.51905E+03
 -1.12269E+03  8.59775E+01 -2.11304E+03  2.82039E+03 -4.71469E+03  1.87710E+03 -8.12967E+03 -1.17043E+03
 -5.49652E+03 -8.14715E+03  1.35611E+01 -1.20244E+04  6.86875E+03 -1.10236E+04  1.12745E+04 -3.16995E+03
  1.15422E+04  5.87144E+03  5.52708E+03  9.99947E+03 -2.26674E+03  1.17191E+04 -7.89484E+03  7.27424E+03
 -1.11920E+04  4.77793E+02 -8.40602E+03 -7.11887E+03 -5.61090E+02 -9.37391E+03  4.85012E+03 -7.23492E+03
  7.73459E+03 -2.43156E+03  5.07666E+03  1.78718E+03  2.05652E+03  3.81837E+03  1.26212E+03  1.53761E+03
  2.44068E+03  9.40607E+02  2.54516E+03  1.70586E+03  3.36533E+03  4.19357E+03  3.17051E+03  6.08956E+03
 -2.54114E+03  9.32250E+03 -8.34284E+03  9.29188E+03 -1.16255E+04  2.52765E+03 -1.24402E+04 -4.60342E+03
 -6.05509E+03 -1.18697E+04  1.43613E+03 -1.30411E+04  7.00446E+03 -8.10434E+03  9.48683E+03 -1.97764E+03
  7.52294E+03  4.51255E+03  1.38609E+03  6.57073E+03 -3.40376E+03  4.54283E+03 -4.38811E+03 -4.64148E+02
 -2.47904E+03 -4.82952E+03  2.84212E+03 -4.93147E+03  4.79477E+03 -2.88132E+03  4.47925E+03  1.35516E+03
  2.75488E+03  1.90713E+03  1.04372E+03  1.70887E+03 -7.31614E+02  1.72708E+03  1.45668E+03 -5.02046E+02
  1.49314E+03 -7.61816E+02  4.85963E+03  1.79011E+03  2.75288E+03  6.48428E+03 -1.08272E+03  7.79718E+03
 -5.41002E+03  5.43325E+03 -7.57392E+03  1.13417E+03 -6.71769E+03 -2.85755E+03 -2.33023E+03 -4.37993E+03
  8.11292E+02 -4.43194E+03  2.99254E+03 -2.19354E+03  2.15668E+03  2.15840E+03 -1.34146E+03  3.70180E+03
 -4.80147E+03  2.59909E+03 -5.14901E+03 -2.83688E+03 -2.72408E+03 -6.37737E+03  9.11444E+02 -6.18572E+03
  3.55646E+03 -3.75704E+03  4.22930E+03 -5.78912E+02  3.58930E+03  1.38960E+03  8.69201E+02  3.50087E+03
 -2.01523E+03  1.27215E+03 -3.13547E+03 -2.18695E+03  1.43655E+03 -4.57605E+03  6.07900E+03 -4.02105E+03
  7.00625E+03  3.93444E+02  7.28386E+03  4.08546E+03  2.33320E+03  7.11543E+03 -2.48470E+03  6.58217E+03
 -6.15631E+03  3.23904E+03 -6.18141E+03 -9.80212E+02 -3.20692E+03 -5.05557E+03  9.43220E+02 -4.46517E+03
  4.59863E+03 -2.09114E+03  3.64597E+03  1.81915E+03  1.37183E+03  4.42538E+03 -2.39209E+02  3.58534E+03
 -1.73317E+03  2.66836E+03 -1.94241E+03  8.73683E+02 -6.59538E+02  7.21632E+02 -1.44840E+03  1.65805E+03
 -1.79207E+03  2.75856E+03 -5.26877E+03  2.59746E+03 -7.12920E+03  1.92020E+02 -8.27939E+03 -4.93366E+03
 -4.39065E+03 -9.15125E+03  1.92970E+03 -1.12512E+04  6.94558E+03 -8.72464E+03  1.07590E+04 -3.33419E+03
  9.64361E+03  1.97218E+03  5.37584E+03  6.35807E+03  4.60659E+02  7.24854E+03 -3.10084E+03  5.07216E+03
 -3.92080E+03  2.16073E+03 -2.38284E+03 -8.11684E+02 -1.07368E+03 -7.67072E+02 -5.36500E+02 -1.55186E+02
 -1.57403E+03  3.00229E+02 -1.54837E+03 -5.22779E+01 -5.66284E+02 -2.14873E+03  3.18978E+02 -2.60092E+03
  3.31721E+03 -2.36898E+03  4.05244E+03  4.09825E+02  5.23240E+03  3.77730E+03  1.34415E+03  7.26942E+03
 -3.66373E+03  8.51642E+03 -7.82069E+03  4.99529E+03 -8.98451E+03 -8.87883E+02 -6.58134E+03 -5.78579E+03
 -2.97262E+03 -7.46520E+03  2.20146E+03 -7.15615E+03  4.51834E+03 -3.59232E+03  4.73993E+03  1.85662E+02
  2.38143E+03  2.17672E+03 -6.93470E+01  1.99413E+03 -1.43505E+03 -3.89714E+02 -1.60438E+02 -1.34771E+03
  2.04056E+03 -7.74101E+02  2.38837E+03  1.22061E+03  1.74383E+03  2.69970E+03 -8.14559E+01  3.55949E+03
 -2.99769E+03  3.38361E+03 -4.61999E+03  7.37875E+02 -4.20348E+03 -3.11299E+03 -8.99497E+02 -5.79620E+03
  3.13509E+03 -5.07321E+03  5.22484E+03 -1.39249E+03  5.59502E+03  1.13665E+03  3.23800E+03  4.58009E+03
  1.10797E+03  4.65868E+03 -1.82225E+03  3.49475E+03 -3.01126E+03  2.23549E+03 -2.67691E+03  3.14172E+02
 -1.49259E+03 -7.36104E+01 -1.32497E+03  4.72644E+02 -2.77724E+03  8.04038E+02 -3.62636E+03 -8.25709E+02
 -3.67107E+03 -2.09066E+03 -1.27611E+03 -4.63825E+03  2.31305E+03 -5.51334E+03  4.19801E+03 -2.24565E+03
  4.59654E+03  7.67755E+02  2.40298E+03  3.23533E+03 -3.55665E+02  4.76536E+03 -3.34219E+03  3.28981E+03
