 $NMID ID='MM_0lb_SNR800_11hz_g55_49.RAW', FMTDAT='(8E13.5)'
 TRAMP=1., VOLUME=1. $END
  3.09761E+05  2.97742E+02  3.37743E+05  2.50397E+05  8.48794E+04  3.38391E+05 -1.32884E+05  2.51942E+05
 -1.90485E+05  8.35545E+04 -1.12127E+05 -3.25357E+04  3.94314E+02 -5.08445E+04  5.35035E+04 -3.39551E+02
  3.55527E+04  5.29989E+04 -1.65807E+04  7.58728E+04 -6.14161E+04  6.40857E+04 -8.49332E+04  3.22031E+04
 -8.20439E+04 -1.15321E+04 -5.79668E+04 -5.18947E+04 -1.51545E+04 -7.05942E+04  2.77906E+04 -4.63832E+04
  4.09087E+04  3.54235E+03  1.66658E+04  4.84733E+04 -3.46610E+04  4.78177E+04 -6.78196E+04 -1.39689E+02
 -5.43972E+04 -5.76462E+04 -7.34315E+03 -7.84606E+04  3.44341E+04 -5.63667E+04  4.93555E+04 -1.78365E+04
  4.49955E+04  1.11634E+04  3.24464E+04  2.61665E+04  1.55892E+04  3.02292E+04 -5.57314E+03  2.77530E+04
 -2.22879E+04  1.20768E+04 -1.82038E+04 -5.66874E+03  6.82480E+03 -7.25059E+03  2.30916E+04  1.34053E+04
  6.77891E+03  3.72128E+04 -3.28440E+04  3.70017E+04 -6.55187E+04  2.10513E+03 -5.81453E+04 -4.38125E+04
 -1.24036E+04 -6.52193E+04  4.08316E+04 -4.65248E+04  6.02661E+04 -2.26950E+03  3.62750E+04  3.37488E+04
 -5.91351E+03  3.85040E+04 -3.10091E+04  1.78289E+04 -3.25818E+04 -3.81507E+03 -1.84783E+04 -1.19095E+04
 -9.36605E+03 -1.50318E+04 -4.80661E+02 -1.89606E+04  8.11416E+03 -2.33519E+04  1.57248E+04 -1.26964E+04
  1.07511E+04  5.57334E+03 -1.00340E+04  1.28229E+04 -2.27134E+04 -6.09038E+03 -8.68441E+03 -3.64988E+04
  2.43451E+04 -4.61859E+04  5.08754E+04 -2.10358E+04  4.78915E+04  2.04778E+04  1.67883E+04  4.65038E+04
 -1.64477E+04  3.49796E+04 -2.66552E+04  2.49920E+03 -1.12388E+04 -2.89869E+04  2.12251E+04 -3.58247E+04
  4.33800E+04 -1.03943E+04  3.86912E+04  2.45247E+04  2.06152E+04  4.98614E+04 -8.29919E+03  5.46582E+04
 -3.46463E+04  3.68170E+04 -4.60446E+04  1.07601E+04 -4.66793E+04 -1.81641E+04 -2.50806E+04 -4.09952E+04
  7.46435E+03 -4.08983E+04  3.35563E+04 -1.63090E+04  3.14996E+04  1.09798E+04  5.06344E+03  2.03653E+04
 -1.35252E+04  9.36479E+03 -1.09133E+04 -7.29090E+03  5.73548E+03 -1.11333E+04  1.84425E+04  5.73638E+03
  1.45705E+04  2.25163E+04 -5.66725E+03  2.65852E+04 -2.27343E+04  1.33294E+04 -3.04444E+04 -3.49067E+03
 -2.41601E+04 -1.80541E+04 -1.10939E+04 -2.39616E+04  4.51256E+03 -2.37737E+04  1.84619E+04 -2.15910E+04
  3.02865E+04 -1.38480E+04  3.65096E+04  4.34534E+03  2.58766E+04  2.35278E+04  4.38899E+03  4.00938E+04
 -1.94646E+04  3.28754E+04 -3.00811E+04  1.13268E+04 -2.22312E+04 -1.05747E+04 -4.72721E+03 -1.28055E+04
  9.05492E+02 -1.59502E+03 -6.99513E+03  7.51672E+03 -1.89776E+04  5.29246E+03 -1.88562E+04 -8.91491E+03
 -1.17587E+04 -2.22721E+04  5.66709E+03 -2.63494E+04  1.72918E+04 -1.89717E+04  2.12212E+04 -1.74061E+03
  1.37453E+04  1.50963E+04 -1.48320E+03  2.15892E+04 -1.53049E+04  1.24765E+04 -2.25143E+04 -4.28905E+03
 -1.61970E+04 -1.95916E+04 -1.86319E+03 -2.65159E+04  1.19779E+04 -2.23601E+04  2.24467E+04 -1.14369E+04
  2.08838E+04 -1.27757E+02  1.50503E+04  4.73297E+03  8.03238E+03  1.48813E+03  1.12976E+04 -1.95955E+03
  2.08017E+04  2.98321E+03  2.35540E+04  1.71713E+04  1.60015E+04  3.53983E+04 -2.84517E+03  4.11245E+04
 -2.34786E+04  3.40933E+04 -3.86409E+04  1.74575E+04 -4.14176E+04 -2.94955E+03 -3.35406E+04 -2.40051E+04
 -1.32767E+04 -3.41695E+04  1.17251E+04 -3.03507E+04  2.59606E+04 -1.47410E+04  2.28130E+04  7.29997E+03
  7.88546E+03  1.67683E+04 -1.08576E+04  1.44239E+04 -1.89749E+04  2.78228E+03 -1.44619E+04 -1.19282E+04
 -2.07950E+02 -1.77116E+04  9.49101E+03 -1.31149E+04  1.21347E+04 -1.32834E+03  3.21101E+03  8.46379E+03
 -8.16739E+03  3.45391E+03 -7.87568E+03 -6.67118E+03 -1.55552E+03 -1.66303E+04  1.18342E+04 -1.81204E+04
  2.10772E+04 -9.79778E+03  2.36625E+04  3.10961E+03  2.08351E+04  1.67952E+04  9.56653E+03  2.60851E+04
 -4.93406E+03  2.82169E+04 -1.83653E+04  1.75211E+04 -2.07063E+04  3.82934E+03 -1.40747E+04 -4.93376E+03
 -5.91616E+03 -6.36803E+03 -7.89796E+02  5.32397E+02 -2.67855E+03  3.21682E+03 -6.54316E+03  5.21532E+03
 -1.30025E+04 -1.06666E+03 -1.36424E+04 -1.06330E+04 -5.50052E+03 -1.75385E+04  5.83486E+03 -1.40399E+04
  1.20367E+04 -5.78590E+03  8.40962E+03  3.63386E+03  2.65512E+02  5.97757E+03 -7.00076E+03 -4.00113E+01
 -6.88348E+03 -8.99730E+03 -8.59100E+02 -1.37352E+04  7.80952E+03 -1.46766E+04  1.79859E+04 -8.20509E+03
  2.13632E+04  1.87735E+03  1.53770E+04  1.27902E+04  3.28324E+03  1.69507E+04 -8.92993E+03  1.39104E+04
 -1.12439E+04  3.89631E+03 -5.93642E+03 -2.74168E+03  2.15215E+03 -3.79022E+03  7.62610E+03 -1.06318E+03
  6.80223E+03  6.19474E+03  8.02579E+02  1.14183E+04 -8.47553E+03  1.10251E+04 -1.38071E+04  2.77971E+03
 -1.00388E+04 -6.83162E+03  7.83907E+01 -1.20043E+04  7.38872E+03 -5.99935E+03  8.08801E+03  2.61691E+03
  2.06563E+03  8.65554E+03 -7.18234E+03  1.02982E+04 -1.15228E+04  4.53865E+03 -1.16453E+04 -4.03425E+03
 -6.98831E+03 -1.36957E+04  3.25664E+03 -1.57912E+04  1.32419E+04 -9.62589E+03  1.47496E+04  2.50219E+03
  8.82787E+03  1.18579E+04 -1.04522E+03  1.38044E+04 -1.02371E+04  7.69640E+03 -1.11552E+04 -1.26631E+03
 -9.91617E+03 -9.29873E+03 -1.95669E+03 -1.03594E+04  5.30467E+03 -8.20290E+03  6.79146E+03 -3.39268E+03
  4.33530E+03  2.11998E+03 -1.21763E+03  1.82622E+03 -7.65735E+02 -2.47000E+03  2.19235E+03 -6.16184E+03
  9.92766E+03 -3.91932E+03  1.37111E+04  1.62933E+03  1.31505E+04  9.28532E+03  9.15334E+03  1.79768E+04
 -3.88176E+03  2.08432E+04 -1.68080E+04  1.48264E+04 -2.22157E+04  2.64524E+03 -1.76197E+04 -7.24787E+03
 -9.19505E+03 -1.48014E+04 -2.63036E+02 -1.24975E+04  4.60059E+03 -6.83811E+03  4.56794E+03 -4.37385E+03
  3.15694E+03 -2.52305E+03  3.47550E+03 -3.63479E+03  4.84409E+03 -3.03792E+03  7.36658E+03 -6.86592E+02
  9.30206E+03  2.12117E+03  5.06084E+03  7.85183E+03 -2.06351E+03  9.11959E+03 -9.91222E+03  7.18345E+03
 -1.26443E+04 -1.00340E+03 -7.69749E+03 -8.40498E+03 -7.17471E+02 -1.33032E+04  7.23807E+03 -1.31290E+04
  1.38415E+04 -7.43218E+03  1.66041E+04  1.84253E+03  1.13427E+04  1.16310E+04  1.89455E+03  1.48708E+04
 -6.34870E+03  1.25016E+04 -8.66814E+03  4.38139E+03 -5.67577E+03 -1.12540E+03 -3.25281E+03 -1.94984E+03
 -1.16246E+03  3.49894E+02 -1.74395E+03  2.67611E+03 -4.85672E+03  2.30304E+03 -8.88412E+03 -1.25076E+03
 -5.85895E+03 -8.64874E+03  3.28151E+02 -1.22759E+04  7.21354E+03 -1.09633E+04  1.18617E+04 -3.22279E+03
  1.20307E+04  5.48662E+03  5.22600E+03  1.08035E+04 -2.29852E+03  1.20167E+04 -8.66215E+03  7.59976E+03
 -1.15864E+04  8.51208E+02 -8.69139E+03 -7.44844E+03 -1.11190E+03 -1.01143E+04  4.95331E+03 -7.71744E+03
  7.75186E+03 -2.70420E+03  5.08945E+03  2.13143E+03  1.95671E+03  3.90881E+03  1.29463E+03  1.50275E+03
  2.59519E+03  1.05667E+03  3.21978E+03  1.88701E+03  3.44227E+03  4.64768E+03  3.12036E+03  6.28195E+03
 -2.70394E+03  9.64945E+03 -8.47649E+03  9.87359E+03 -1.22327E+04  2.41729E+03 -1.27306E+04 -5.02798E+03
 -6.08702E+03 -1.22045E+04  1.51580E+03 -1.35909E+04  6.95470E+03 -8.24912E+03  9.80673E+03 -2.41422E+03
  7.46574E+03  4.45770E+03  2.02970E+03  6.95692E+03 -3.25605E+03  4.56229E+03 -5.04346E+03 -6.47540E+02
 -2.62854E+03 -4.90665E+03  2.65602E+03 -5.20991E+03  5.04725E+03 -2.37531E+03  4.75976E+03  1.11760E+03
  2.87864E+03  2.62692E+03  1.05314E+03  2.11033E+03 -8.16573E+02  1.87289E+03  1.61685E+03 -5.49908E+02
  1.97385E+03 -7.64049E+02  5.01623E+03  2.34045E+03  2.66162E+03  6.41722E+03 -5.74436E+02  8.10260E+03
 -5.98471E+03  5.33229E+03 -7.86733E+03  1.51963E+03 -6.71214E+03 -2.68032E+03 -2.51110E+03 -4.46481E+03
  6.18127E+02 -4.63992E+03  3.07389E+03 -2.12846E+03  2.06674E+03  2.42327E+03 -9.94543E+02  3.78589E+03
 -4.98635E+03  2.31023E+03 -5.59600E+03 -3.03437E+03 -3.21686E+03 -6.34284E+03  1.15562E+03 -6.75291E+03
  3.28194E+03 -3.61185E+03  4.64147E+03 -4.68166E+02  3.78056E+03  1.78926E+03  6.75864E+02  3.81484E+03
 -2.02025E+03  1.08737E+03 -3.05833E+03 -1.97114E+03  1.25410E+03 -4.65479E+03  6.13287E+03 -3.82107E+03
  7.36632E+03  4.44715E+02  7.35909E+03  5.17014E+03  2.51792E+03  7.82854E+03 -2.76543E+03  7.28068E+03
 -5.91066E+03  2.90717E+03 -6.37022E+03 -1.09477E+03 -3.49239E+03 -5.17594E+03  1.15944E+03 -4.30075E+03
  4.75765E+03 -2.53852E+03  3.74121E+03  1.75821E+03  1.20684E+03  3.92446E+03 -3.26485E+02  3.49898E+03
 -2.21686E+03  2.60755E+03 -1.95270E+03  7.54295E+02 -9.29569E+02  9.05685E+02 -1.46680E+03  1.60177E+03
 -2.17067E+03  3.11896E+03 -5.17853E+03  2.99705E+03 -7.52807E+03 -1.76624E+02 -8.17928E+03 -4.97346E+03
 -4.60360E+03 -9.49700E+03  1.82517E+03 -1.14647E+04  6.85056E+03 -8.80897E+03  1.04573E+04 -3.65147E+03
  1.01784E+04  1.78626E+03  6.10427E+03  6.69602E+03  1.73827E+02  7.55291E+03 -3.38807E+03  5.40364E+03
 -4.46245E+03  2.41147E+03 -2.46684E+03 -1.06385E+03 -1.16348E+03 -9.86474E+02 -2.75953E+02 -4.82890E+01
 -1.08580E+03  2.13716E+02 -1.90112E+03 -3.39031E+02 -8.77580E+02 -2.05287E+03  1.13085E+02 -2.93810E+03
  3.48161E+03 -2.55956E+03  4.33249E+03  3.25133E+02  5.41491E+03  4.13528E+03  1.25481E+03  7.56489E+03
 -3.42189E+03  8.79588E+03 -8.48722E+03  5.00420E+03 -9.58000E+03 -6.58616E+02 -6.63572E+03 -5.81345E+03
 -2.98638E+03 -7.74648E+03  1.99653E+03 -7.07315E+03  4.62784E+03 -3.55929E+03  4.75341E+03  8.05827E+01
  2.76719E+03  2.49434E+03 -3.04246E+02  2.04985E+03 -1.37369E+03 -1.75122E+02 -6.52694E+01 -1.88972E+03
  2.41376E+03 -7.34471E+02  2.81987E+03  7.79621E+02  2.03819E+03  2.84427E+03  3.62074E+02  3.54703E+03
 -3.49659E+03  3.20116E+03 -5.37409E+03  5.27446E+02 -4.34834E+03 -3.41304E+03 -5.11766E+02 -5.98443E+03
  3.59210E+03 -4.76208E+03  5.35966E+03 -1.63190E+03  5.57783E+03  9.30525E+02  3.04921E+03  4.43943E+03
  6.72447E+02  4.26198E+03 -1.93767E+03  3.81080E+03 -3.38976E+03  2.30415E+03 -2.23587E+03  1.02642E+02
 -1.21737E+03 -3.62574E+02 -1.36386E+03  4.79254E+02 -2.47286E+03  8.51257E+02 -3.65633E+03 -6.73452E+02
 -3.47239E+03 -2.34698E+03 -7.54396E+02 -4.15709E+03  2.61531E+03 -5.54979E+03  4.04280E+03 -2.17525E+03
  4.94053E+03  7.94665E+02  2.23503E+03  3.14765E+03 -5.53391E+02  4.98197E+03 -3.58882E+03  3.13854E+03
