 $NMID ID='MM_0lb_SNR800_10hz_g45_37.RAW', FMTDAT='(8E13.5)'
 TRAMP=1., VOLUME=1. $END
  3.10134E+05  3.50189E+02  3.37647E+05  2.50884E+05  8.46715E+04  3.38346E+05 -1.32639E+05  2.51386E+05
 -1.90722E+05  8.34203E+04 -1.12333E+05 -3.24217E+04  6.38292E+02 -5.07925E+04  5.36021E+04 -3.75395E+02
  3.53350E+04  5.24222E+04 -1.70311E+04  7.58140E+04 -6.09352E+04  6.44269E+04 -8.50120E+04  3.21001E+04
 -8.19692E+04 -1.17060E+04 -5.82253E+04 -5.16446E+04 -1.51933E+04 -7.05314E+04  2.79370E+04 -4.66670E+04
  4.08803E+04  3.81908E+03  1.65063E+04  4.81540E+04 -3.42722E+04  4.80196E+04 -6.73708E+04 -1.00719E+02
 -5.46036E+04 -5.72589E+04 -6.70487E+03 -7.84965E+04  3.45269E+04 -5.64597E+04  4.96058E+04 -1.84861E+04
  4.47592E+04  1.16554E+04  3.23324E+04  2.62144E+04  1.58144E+04  3.00909E+04 -5.68836E+03  2.75296E+04
 -2.23462E+04  1.18875E+04 -1.81258E+04 -5.29882E+03  7.01491E+03 -7.56041E+03  2.30652E+04  1.32325E+04
  7.13907E+03  3.70391E+04 -3.32913E+04  3.65452E+04 -6.48925E+04  2.15496E+03 -5.84138E+04 -4.39788E+04
 -1.27614E+04 -6.50969E+04  4.11270E+04 -4.67677E+04  6.04098E+04 -2.31889E+03  3.59596E+04  3.40358E+04
 -5.29563E+03  3.83659E+04 -3.11602E+04  1.78238E+04 -3.28755E+04 -3.79761E+03 -1.86508E+04 -1.15519E+04
 -9.58149E+03 -1.44409E+04 -4.07108E+02 -1.93240E+04  8.14276E+03 -2.32850E+04  1.57715E+04 -1.25787E+04
  1.07162E+04  6.01224E+03 -1.03527E+04  1.29232E+04 -2.24999E+04 -6.13772E+03 -8.99270E+03 -3.59764E+04
  2.44669E+04 -4.58928E+04  5.12321E+04 -2.05372E+04  4.72848E+04  2.03300E+04  1.68560E+04  4.62924E+04
 -1.65399E+04  3.52307E+04 -2.68875E+04  2.18796E+03 -1.12451E+04 -2.91017E+04  2.13788E+04 -3.59299E+04
  4.34703E+04 -1.01738E+04  3.88506E+04  2.48435E+04  2.02825E+04  4.96445E+04 -8.27873E+03  5.41223E+04
 -3.44090E+04  3.69852E+04 -4.59804E+04  1.06832E+04 -4.60932E+04 -1.82623E+04 -2.52132E+04 -4.08520E+04
  8.00208E+03 -4.05700E+04  3.34260E+04 -1.63757E+04  3.09859E+04  1.06766E+04  5.00934E+03  2.05694E+04
 -1.36727E+04  9.58187E+03 -1.13237E+04 -7.97503E+03  5.68528E+03 -1.11655E+04  1.85437E+04  5.82502E+03
  1.43019E+04  2.23216E+04 -5.68522E+03  2.64824E+04 -2.32527E+04  1.32985E+04 -3.03304E+04 -3.91704E+03
 -2.39616E+04 -1.83000E+04 -1.05970E+04 -2.34456E+04  4.40995E+03 -2.37948E+04  1.87408E+04 -2.14962E+04
  3.02860E+04 -1.36626E+04  3.64686E+04  4.32810E+03  2.57464E+04  2.30887E+04  4.60442E+03  3.95970E+04
 -1.95486E+04  3.30223E+04 -2.98637E+04  1.13841E+04 -2.16074E+04 -1.04718E+04 -4.67267E+03 -1.34167E+04
  1.40591E+03 -1.89044E+03 -6.92492E+03  7.84977E+03 -1.90930E+04  5.10789E+03 -1.85547E+04 -8.85663E+03
 -1.16070E+04 -2.18773E+04  5.89815E+03 -2.63476E+04  1.77988E+04 -1.88959E+04  2.09150E+04 -1.40182E+03
  1.35480E+04  1.50627E+04 -1.16362E+03  2.17771E+04 -1.58659E+04  1.28446E+04 -2.21476E+04 -4.46983E+03
 -1.61338E+04 -1.94740E+04 -2.02394E+03 -2.66300E+04  1.18972E+04 -2.23544E+04  2.16624E+04 -1.11804E+04
  2.06902E+04 -2.25779E+02  1.47970E+04  4.96630E+03  8.56520E+03  1.53899E+03  1.10450E+04 -1.99602E+03
  2.03133E+04  2.86406E+03  2.38047E+04  1.72437E+04  1.60811E+04  3.52890E+04 -2.79243E+03  4.13396E+04
 -2.38578E+04  3.41365E+04 -3.88092E+04  1.75428E+04 -4.12735E+04 -3.26630E+03 -3.33029E+04 -2.39117E+04
 -1.35702E+04 -3.39522E+04  1.20879E+04 -3.02481E+04  2.58565E+04 -1.44002E+04  2.24630E+04  7.13182E+03
  7.71160E+03  1.71864E+04 -1.09784E+04  1.43192E+04 -1.88117E+04  2.36914E+03 -1.48826E+04 -1.22698E+04
 -3.14506E+02 -1.82337E+04  9.69982E+03 -1.34634E+04  1.22506E+04 -1.24235E+03  2.88517E+03  8.15258E+03
 -8.12337E+03  3.78670E+03 -8.53135E+03 -6.46071E+03 -1.57277E+03 -1.66480E+04  1.08127E+04 -1.76569E+04
  2.12102E+04 -1.01870E+04  2.33954E+04  3.32565E+03  2.04040E+04  1.66905E+04  9.82760E+03  2.67157E+04
 -4.79198E+03  2.83596E+04 -1.82777E+04  1.77715E+04 -2.03934E+04  3.76892E+03 -1.40406E+04 -5.13049E+03
 -6.23028E+03 -6.40951E+03 -8.24758E+02  4.44947E+02 -2.95336E+03  3.13855E+03 -6.79363E+03  5.14188E+03
 -1.31791E+04 -9.07234E+02 -1.39640E+04 -1.07950E+04 -5.47043E+03 -1.79424E+04  6.13074E+03 -1.43886E+04
  1.18381E+04 -6.06452E+03  7.94159E+03  3.69284E+03 -1.57473E+01  5.44407E+03 -7.11784E+03 -5.39378E+00
 -6.97923E+03 -9.38882E+03 -1.10724E+03 -1.44430E+04  8.04474E+03 -1.50691E+04  1.82573E+04 -8.26726E+03
  2.16664E+04  2.17929E+03  1.56676E+04  1.29916E+04  3.19524E+03  1.72738E+04 -9.06847E+03  1.41362E+04
 -1.13990E+04  4.15086E+03 -5.74536E+03 -3.26363E+03  1.66776E+03 -4.29747E+03  8.04284E+03 -9.00153E+02
  6.65881E+03  6.51340E+03  7.53481E+02  1.14886E+04 -7.93423E+03  1.10279E+04 -1.41137E+04  2.63402E+03
 -9.53144E+03 -7.43923E+03  1.24602E+02 -1.21188E+04  7.56654E+03 -6.09818E+03  7.90366E+03  2.72963E+03
  1.92412E+03  8.60280E+03 -7.58654E+03  1.03380E+04 -1.20764E+04  4.79317E+03 -1.20381E+04 -4.53315E+03
 -6.83756E+03 -1.39201E+04  3.57250E+03 -1.60445E+04  1.34121E+04 -9.58183E+03  1.51111E+04  2.75010E+03
  9.26102E+03  1.16567E+04 -1.56379E+03  1.42255E+04 -1.08471E+04  7.28530E+03 -1.14165E+04 -1.37558E+03
 -9.70904E+03 -9.60290E+03 -1.44457E+03 -1.08172E+04  5.92024E+03 -8.70093E+03  6.68963E+03 -3.13649E+03
  4.57322E+03  2.09297E+03 -8.35758E+02  1.72080E+03 -8.64964E+02 -3.08926E+03  2.10521E+03 -6.41291E+03
  1.01709E+04 -4.07507E+03  1.44660E+04  1.60296E+03  1.39077E+04  9.56838E+03  9.35704E+03  1.81573E+04
 -4.36245E+03  2.12202E+04 -1.76137E+04  1.55306E+04 -2.28546E+04  3.19685E+03 -1.80815E+04 -7.93856E+03
 -9.25904E+03 -1.48900E+04 -5.02856E+02 -1.31040E+04  4.71747E+03 -7.30687E+03  4.63518E+03 -4.68258E+03
  3.58721E+03 -2.80787E+03  3.63821E+03 -3.36433E+03  5.70539E+03 -3.38149E+03  7.12978E+03 -1.07851E+03
  9.44694E+03  2.39202E+03  5.31755E+03  8.44335E+03 -2.30383E+03  9.60234E+03 -1.00330E+04  7.61666E+03
 -1.28181E+04 -1.21401E+03 -7.85961E+03 -9.05613E+03 -1.23028E+03 -1.40077E+04  8.19145E+03 -1.40041E+04
  1.43850E+04 -7.25850E+03  1.68577E+04  2.18562E+03  1.24237E+04  1.19030E+04  1.68902E+03  1.51644E+04
 -6.09652E+03  1.24556E+04 -9.17270E+03  4.32618E+03 -6.18145E+03 -1.66203E+03 -2.46999E+03 -2.15385E+03
 -1.30678E+03 -1.92286E+02 -2.24358E+03  2.92407E+03 -5.44487E+03  2.50422E+03 -8.39451E+03 -8.11412E+02
 -6.44054E+03 -8.79550E+03  1.19828E+02 -1.27303E+04  8.04819E+03 -1.17960E+04  1.25308E+04 -3.86618E+03
  1.25725E+04  6.38388E+03  6.16910E+03  1.09371E+04 -2.65373E+03  1.31711E+04 -9.41647E+03  8.06576E+03
 -1.21740E+04  5.12390E+02 -8.72738E+03 -7.77011E+03 -1.10048E+03 -1.06351E+04  5.18251E+03 -7.93972E+03
  8.02103E+03 -2.30322E+03  5.51569E+03  2.40837E+03  1.82077E+03  3.80519E+03  1.16879E+03  1.60942E+03
  2.51313E+03  1.05933E+03  3.08322E+03  1.79413E+03  3.79801E+03  4.42935E+03  3.40690E+03  6.48723E+03
 -2.46915E+03  9.93209E+03 -8.93772E+03  1.04230E+04 -1.28648E+04  2.49402E+03 -1.35984E+04 -5.04509E+03
 -6.20395E+03 -1.30751E+04  1.80267E+03 -1.44763E+04  7.69989E+03 -9.07758E+03  1.06516E+04 -2.79674E+03
  8.12603E+03  4.80865E+03  2.11703E+03  7.56077E+03 -3.78763E+03  4.86670E+03 -4.92796E+03 -8.83420E+02
 -2.59191E+03 -5.10667E+03  2.94014E+03 -5.74587E+03  5.13378E+03 -2.94087E+03  4.83327E+03  1.40173E+03
  2.91709E+03  2.61542E+03  1.37923E+03  1.97784E+03 -7.44731E+02  2.10274E+03  1.64628E+03 -4.85271E+02
  2.04429E+03 -6.44133E+02  5.35025E+03  2.17467E+03  2.52853E+03  6.80631E+03 -1.06730E+03  8.99223E+03
 -5.96498E+03  5.57052E+03 -8.16278E+03  1.43678E+03 -7.10829E+03 -2.86771E+03 -2.71747E+03 -4.62163E+03
  1.32407E+03 -4.73248E+03  3.25007E+03 -2.50894E+03  2.86898E+03  2.57684E+03 -1.28347E+03  4.24303E+03
 -5.43451E+03  2.39702E+03 -5.87500E+03 -3.38045E+03 -3.10154E+03 -6.68389E+03  9.83941E+02 -7.01964E+03
  3.93461E+03 -3.74736E+03  4.70154E+03 -4.85833E+02  4.33287E+03  1.54663E+03  1.00659E+03  4.18032E+03
 -2.60261E+03  9.70581E+02 -3.01388E+03 -2.33970E+03  1.05133E+03 -5.54686E+03  6.42254E+03 -4.25725E+03
  8.06932E+03  5.14361E+02  8.16551E+03  5.10178E+03  2.59983E+03  7.82219E+03 -2.63323E+03  8.06386E+03
 -6.81222E+03  3.37448E+03 -7.18327E+03 -9.97334E+02 -4.17635E+03 -5.29782E+03  1.65260E+03 -4.85759E+03
  5.04293E+03 -2.37058E+03  4.36349E+03  2.58779E+03  1.32960E+03  4.87165E+03 -6.76591E+02  4.27133E+03
 -1.92086E+03  2.63997E+03 -1.97347E+03  6.18821E+02 -9.81930E+02  8.51658E+02 -1.24251E+03  1.78474E+03
 -2.60878E+03  3.19706E+03 -5.70540E+03  2.96845E+03 -8.02414E+03  2.97053E+02 -9.66727E+03 -5.91438E+03
 -5.04908E+03 -1.08449E+04  2.18887E+03 -1.29797E+04  7.94286E+03 -1.00742E+04  1.23031E+04 -3.75202E+03
  1.11187E+04  2.37791E+03  6.91409E+03  7.75825E+03  6.01064E+02  8.76983E+03 -3.75407E+03  6.58383E+03
 -4.78085E+03  2.59988E+03 -3.02764E+03 -1.17375E+03 -9.92923E+02 -7.72849E+02 -1.13142E+03  7.66960E+01
 -1.38709E+03  1.28780E+02 -1.94342E+03 -4.73678E+02 -4.63302E+02 -1.67237E+03  7.46807E+01 -3.22536E+03
  4.02220E+03 -2.39373E+03  5.40849E+03  2.02844E+02  5.67094E+03  4.56929E+03  1.32635E+03  8.52983E+03
 -4.12865E+03  9.96867E+03 -8.84546E+03  5.94573E+03 -1.01725E+04 -6.91434E+02 -7.75735E+03 -6.63141E+03
 -2.94737E+03 -8.51175E+03  1.97196E+03 -8.06486E+03  5.53782E+03 -4.16463E+03  5.68974E+03  4.51322E+02
  2.98770E+03  2.82839E+03 -1.06025E+02  2.82117E+03 -1.61262E+03 -3.82937E+02  1.86195E+02 -2.47772E+03
  2.78796E+03 -1.16344E+03  2.99208E+03  1.21821E+03  2.49687E+03  3.65244E+03  3.61692E+02  4.23306E+03
 -3.50254E+03  4.14825E+03 -5.70164E+03  4.71119E+02 -5.07272E+03 -4.14545E+03 -7.55922E+02 -7.34642E+03
  3.96176E+03 -5.77713E+03  6.16027E+03 -1.69867E+03  6.41864E+03  9.27631E+02  3.79393E+03  5.21542E+03
  9.67880E+02  5.51880E+03 -2.23001E+03  4.44769E+03 -3.64909E+03  2.51623E+03 -3.04069E+03  4.88669E+02
 -1.10027E+03 -2.52462E+02 -1.78218E+03  8.48718E+02 -3.16757E+03  8.43568E+02 -4.13413E+03 -9.47808E+02
 -4.15137E+03 -2.42496E+03 -1.74505E+03 -5.50745E+03  3.15066E+03 -5.99056E+03  4.86407E+03 -2.58936E+03
  5.37200E+03  9.54218E+02  2.96727E+03  3.62816E+03 -2.44642E+02  5.82007E+03 -4.05974E+03  3.70981E+03
