 $NMID ID='MM_0lb_SNR800_9hz_g50_17.RAW', FMTDAT='(8E13.5)'
 TRAMP=1., VOLUME=1. $END
  3.10002E+05  2.60044E+02  3.37769E+05  2.50843E+05  8.49306E+04  3.38298E+05 -1.32609E+05  2.51886E+05
 -1.90514E+05  8.38110E+04 -1.12455E+05 -3.25197E+04  7.30785E+01 -5.09726E+04  5.37663E+04 -9.47403E+02
  3.57940E+04  5.30121E+04 -1.67628E+04  7.60884E+04 -6.11221E+04  6.44941E+04 -8.56424E+04  3.25611E+04
 -8.24036E+04 -1.14320E+04 -5.83948E+04 -5.23605E+04 -1.52473E+04 -7.11487E+04  2.80116E+04 -4.66871E+04
  4.13805E+04  4.00764E+03  1.65282E+04  4.85247E+04 -3.48570E+04  4.79075E+04 -6.81914E+04  1.79486E+02
 -5.52848E+04 -5.77007E+04 -7.08708E+03 -7.89947E+04  3.49582E+04 -5.68568E+04  4.97452E+04 -1.83601E+04
  4.54224E+04  1.17337E+04  3.31505E+04  2.65612E+04  1.56926E+04  3.08129E+04 -6.03020E+03  2.77322E+04
 -2.26127E+04  1.20281E+04 -1.80673E+04 -5.81716E+03  7.11398E+03 -7.57806E+03  2.36428E+04  1.33849E+04
  7.31210E+03  3.70759E+04 -3.39042E+04  3.71410E+04 -6.55790E+04  1.83395E+03 -5.89576E+04 -4.43336E+04
 -1.24859E+04 -6.59311E+04  4.15933E+04 -4.73489E+04  6.13344E+04 -2.84343E+03  3.66115E+04  3.44710E+04
 -5.57984E+03  3.92782E+04 -3.17030E+04  1.87915E+04 -3.33305E+04 -3.65337E+03 -1.93333E+04 -1.25417E+04
 -9.31055E+03 -1.52616E+04 -2.39644E+02 -1.96695E+04  8.57530E+03 -2.36814E+04  1.60268E+04 -1.23279E+04
  1.06332E+04  6.16100E+03 -1.08459E+04  1.30158E+04 -2.31554E+04 -6.46368E+03 -8.56025E+03 -3.72435E+04
  2.51306E+04 -4.70959E+04  5.23134E+04 -2.12469E+04  4.85230E+04  2.11877E+04  1.72661E+04  4.76301E+04
 -1.66690E+04  3.60300E+04 -2.74112E+04  2.96012E+03 -1.14229E+04 -2.91562E+04  2.18769E+04 -3.72956E+04
  4.46849E+04 -1.10536E+04  4.04631E+04  2.49857E+04  2.16346E+04  5.08866E+04 -8.37507E+03  5.63675E+04
 -3.54729E+04  3.85490E+04 -4.79315E+04  1.09161E+04 -4.78710E+04 -1.86649E+04 -2.61068E+04 -4.21320E+04
  7.70270E+03 -4.20864E+04  3.42584E+04 -1.70096E+04  3.22371E+04  1.13706E+04  5.06053E+03  2.08058E+04
 -1.40616E+04  9.03730E+03 -1.15804E+04 -7.35937E+03  5.12383E+03 -1.16428E+04  1.87022E+04  5.63743E+03
  1.49081E+04  2.27469E+04 -5.68460E+03  2.72229E+04 -2.33546E+04  1.44729E+04 -3.14780E+04 -3.14553E+03
 -2.56012E+04 -1.83572E+04 -1.16259E+04 -2.49163E+04  4.57697E+03 -2.56981E+04  1.95606E+04 -2.29401E+04
  3.20637E+04 -1.42747E+04  3.81079E+04  4.83707E+03  2.71500E+04  2.46979E+04  4.47889E+03  4.11417E+04
 -1.98742E+04  3.38168E+04 -3.05459E+04  1.18465E+04 -2.23379E+04 -1.03786E+04 -4.97850E+03 -1.27251E+04
  9.53661E+02 -9.88203E+02 -7.52700E+03  8.25681E+03 -1.99504E+04  4.74338E+03 -2.02669E+04 -9.63818E+03
 -1.18236E+04 -2.35595E+04  6.16270E+03 -2.78850E+04  1.85562E+04 -1.96233E+04  2.25476E+04 -1.65545E+03
  1.42748E+04  1.60130E+04 -1.71317E+03  2.29544E+04 -1.65107E+04  1.34876E+04 -2.36623E+04 -4.32483E+03
 -1.70227E+04 -2.08291E+04 -2.15558E+03 -2.78552E+04  1.24907E+04 -2.33880E+04  2.34018E+04 -1.19556E+04
  2.23659E+04 -1.27061E+02  1.58706E+04  5.29466E+03  9.10871E+03  1.57959E+03  1.19455E+04 -2.37764E+03
  2.20748E+04  2.96270E+03  2.53618E+04  1.83646E+04  1.71958E+04  3.73453E+04 -2.45224E+03  4.39461E+04
 -2.54664E+04  3.68202E+04 -4.16819E+04  1.95458E+04 -4.46085E+04 -3.14171E+03 -3.63507E+04 -2.59750E+04
 -1.41624E+04 -3.71626E+04  1.31214E+04 -3.25445E+04  2.77504E+04 -1.56380E+04  2.40070E+04  8.10378E+03
  8.09590E+03  1.90340E+04 -1.16350E+04  1.54465E+04 -2.02960E+04  2.66261E+03 -1.49110E+04 -1.28511E+04
 -3.25553E+02 -1.92411E+04  1.03803E+04 -1.46356E+04  1.31811E+04 -1.36260E+03  3.43024E+03  8.56058E+03
 -8.91764E+03  4.02326E+03 -9.16959E+03 -6.61266E+03 -1.44356E+03 -1.83659E+04  1.21068E+04 -1.95384E+04
  2.24235E+04 -1.15516E+04  2.62854E+04  3.06622E+03  2.30867E+04  1.86106E+04  1.05923E+04  2.86797E+04
 -5.18303E+03  3.11029E+04 -1.98397E+04  1.94457E+04 -2.27366E+04  3.89354E+03 -1.51308E+04 -5.86136E+03
 -6.79039E+03 -7.32161E+03 -4.09279E+02  4.78270E+02 -2.75084E+03  3.58433E+03 -7.71173E+03  5.09154E+03
 -1.45799E+04 -8.96680E+02 -1.45628E+04 -1.18399E+04 -6.31202E+03 -1.93795E+04  6.08431E+03 -1.54627E+04
  1.27406E+04 -6.60680E+03  9.35893E+03  4.26611E+03 -5.70712E+02  6.11899E+03 -7.98986E+03 -5.98367E+01
 -7.55767E+03 -1.04806E+04 -9.51418E+02 -1.54675E+04  9.39052E+03 -1.64771E+04  2.01306E+04 -8.61794E+03
  2.39204E+04  2.54170E+03  1.73513E+04  1.39711E+04  3.08771E+03  1.92607E+04 -1.00160E+04  1.56380E+04
 -1.23427E+04  4.35235E+03 -6.24799E+03 -3.37775E+03  2.33322E+03 -4.66100E+03  8.64768E+03 -8.73305E+02
  7.51192E+03  6.79522E+03  1.29269E+03  1.23525E+04 -9.09502E+03  1.17738E+04 -1.57737E+04  2.85253E+03
 -1.05889E+04 -8.54240E+03  6.10861E+01 -1.31645E+04  8.76199E+03 -7.12061E+03  9.67231E+03  3.42292E+03
  2.48314E+03  1.03257E+04 -8.44556E+03  1.15264E+04 -1.37335E+04  5.37335E+03 -1.39677E+04 -5.21158E+03
 -8.00076E+03 -1.55081E+04  4.13044E+03 -1.79253E+04  1.56639E+04 -1.11255E+04  1.69571E+04  2.78870E+03
  1.02896E+04  1.31053E+04 -1.92561E+03  1.55924E+04 -1.18749E+04  8.71563E+03 -1.30238E+04 -1.31078E+03
 -1.07544E+04 -1.04381E+04 -1.56396E+03 -1.23171E+04  6.51035E+03 -9.76440E+03  7.94891E+03 -3.76776E+03
  4.68271E+03  2.27793E+03 -9.66915E+02  2.16773E+03 -1.02310E+03 -3.32382E+03  2.85813E+03 -7.93123E+03
  1.17874E+04 -5.13360E+03  1.61693E+04  2.06600E+03  1.56049E+04  1.09197E+04  1.00699E+04  2.09142E+04
 -5.30454E+03  2.39182E+04 -1.98491E+04  1.76131E+04 -2.59739E+04  3.17870E+03 -2.08532E+04 -9.11380E+03
 -1.04405E+04 -1.73573E+04 -5.17902E+02 -1.47369E+04  5.36732E+03 -8.32810E+03  5.20613E+03 -5.29414E+03
  3.94423E+03 -3.20763E+03  3.93869E+03 -4.01531E+03  6.07474E+03 -4.12994E+03  8.11683E+03 -1.44881E+03
  1.07883E+04  2.49001E+03  6.06984E+03  9.43064E+03 -2.16053E+03  1.12967E+04 -1.12614E+04  8.52626E+03
 -1.45540E+04 -1.54167E+03 -9.49784E+03 -1.04782E+04 -1.64727E+03 -1.59665E+04  8.60691E+03 -1.57414E+04
  1.65687E+04 -8.72073E+03  1.95398E+04  2.61254E+03  1.34409E+04  1.36319E+04  2.36597E+03  1.78684E+04
 -7.56128E+03  1.43685E+04 -1.01227E+04  4.95566E+03 -7.02208E+03 -1.55930E+03 -2.88887E+03 -2.15568E+03
 -1.05741E+03 -1.21013E+02 -2.42300E+03  2.55152E+03 -6.12756E+03  2.75843E+03 -1.04912E+04 -1.21725E+03
 -6.85716E+03 -1.02546E+04 -2.61503E+02 -1.48861E+04  9.42154E+03 -1.34753E+04  1.45003E+04 -4.23452E+03
  1.46403E+04  7.07993E+03  7.12603E+03  1.30228E+04 -3.23303E+03  1.51058E+04 -1.03585E+04  9.36645E+03
 -1.38665E+04  1.77011E+01 -1.08468E+04 -8.91556E+03 -1.02776E+03 -1.23613E+04  6.20584E+03 -9.52559E+03
  9.62652E+03 -2.91480E+03  6.46980E+03  2.63152E+03  2.53136E+03  4.43989E+03  1.66943E+03  1.68926E+03
  2.88759E+03  1.30680E+03  3.84061E+03  1.88951E+03  4.40399E+03  5.19954E+03  3.71078E+03  7.79728E+03
 -2.76657E+03  1.17402E+04 -1.05377E+04  1.18736E+04 -1.54746E+04  3.45557E+03 -1.54704E+04 -6.54791E+03
 -7.42754E+03 -1.48383E+04  2.28486E+03 -1.64798E+04  8.86444E+03 -1.06664E+04  1.25436E+04 -2.47757E+03
  9.67390E+03  5.96981E+03  2.58563E+03  8.48249E+03 -4.24169E+03  5.86800E+03 -6.33896E+03 -4.03391E+02
 -2.71416E+03 -6.68993E+03  3.12891E+03 -6.66015E+03  6.24369E+03 -3.44671E+03  6.47921E+03  1.04604E+03
  3.72030E+03  3.07653E+03  1.35428E+03  2.71418E+03 -6.53710E+02  2.57479E+03  1.86589E+03 -9.19716E+02
  2.52277E+03 -6.79698E+02  5.93031E+03  2.64386E+03  3.58661E+03  8.07911E+03 -1.40474E+03  1.08460E+04
 -7.32801E+03  7.07131E+03 -1.00330E+04  2.07810E+03 -8.74177E+03 -3.91699E+03 -3.61081E+03 -6.04038E+03
  1.04139E+03 -6.04510E+03  4.14541E+03 -2.93833E+03  3.27909E+03  3.00512E+03 -1.48643E+03  4.96652E+03
 -6.60882E+03  3.06334E+03 -7.49594E+03 -3.61652E+03 -4.01962E+03 -8.51630E+03  1.52864E+03 -8.74561E+03
  5.02750E+03 -5.25455E+03  6.30053E+03 -4.04421E+02  5.21163E+03  2.39974E+03  3.01598E+02  4.25445E+03
 -2.90855E+03  1.57361E+03 -3.76150E+03 -3.13938E+03  1.35708E+03 -6.81169E+03  7.64938E+03 -5.50666E+03
  9.92694E+03  1.33299E+03  9.45465E+03  6.57902E+03  2.94745E+03  1.05026E+04 -3.49383E+03  9.87737E+03
 -8.13838E+03  4.30629E+03 -8.35595E+03 -1.09080E+03 -4.73446E+03 -6.17263E+03  1.64931E+03 -6.23614E+03
  6.52133E+03 -2.81525E+03  5.38148E+03  2.75960E+03  1.99109E+03  5.70901E+03 -5.73974E+02  4.61091E+03
 -2.58047E+03  2.97689E+03 -2.36713E+03  1.28971E+03 -1.15494E+03  9.50695E+02 -1.63071E+03  2.16064E+03
 -2.64394E+03  3.96623E+03 -6.85165E+03  3.42621E+03 -1.04295E+04  1.30068E+02 -1.10807E+04 -6.30274E+03
 -5.79082E+03 -1.35107E+04  2.56268E+03 -1.53914E+04  9.22679E+03 -1.16619E+04  1.45450E+04 -4.87606E+03
  1.36198E+04  2.75947E+03  8.53901E+03  9.51147E+03  5.76728E+02  1.06452E+04 -3.99502E+03  8.22745E+03
 -5.77087E+03  3.11866E+03 -3.61375E+03 -1.30555E+03 -8.33970E+02 -7.94607E+02 -5.86971E+02 -4.83727E+02
 -2.09390E+03  2.25914E+02 -1.93655E+03 -3.99112E+02 -1.00639E+03 -2.40334E+03  3.13188E+02 -3.84323E+03
  4.35713E+03 -3.60405E+03  6.44163E+03 -3.69623E+01  7.51777E+03  5.71053E+03  2.05193E+03  1.03309E+04
 -4.93664E+03  1.21413E+04 -1.10592E+04  7.19624E+03 -1.25159E+04 -1.24501E+03 -9.88343E+03 -7.84109E+03
 -4.21866E+03 -1.06348E+04  2.56804E+03 -1.00457E+04  6.54598E+03 -5.58043E+03  7.09659E+03  7.05156E+02
  3.93659E+03  3.29245E+03 -1.76382E+02  3.03384E+03 -1.98919E+03 -4.22366E+02 -5.97421E+02 -2.51360E+03
  3.41549E+03 -1.68093E+03  4.41988E+03  1.29591E+03  2.65667E+03  3.77393E+03  1.87406E+02  5.32651E+03
 -4.92968E+03  4.57493E+03 -7.13241E+03  3.34749E+02 -6.16986E+03 -5.19158E+03 -9.96185E+02 -8.73371E+03
  5.08380E+03 -7.60860E+03  8.45083E+03 -2.09648E+03  8.56834E+03  2.32513E+03  4.72318E+03  6.35863E+03
  1.25355E+03  7.16803E+03 -2.38630E+03  5.67811E+03 -4.32870E+03  3.19110E+03 -3.75274E+03  4.61339E+02
 -1.83280E+03 -1.53070E+02 -1.72262E+03  1.17268E+03 -3.69258E+03  1.46742E+03 -5.84364E+03 -1.21328E+03
 -5.31967E+03 -3.43102E+03 -2.03617E+03 -7.23567E+03  3.40109E+03 -7.37720E+03  6.36319E+03 -3.28227E+03
  7.10579E+03  9.30810E+02  3.89200E+03  5.02085E+03 -6.42274E+02  7.23580E+03 -5.41504E+03  4.76449E+03
