 $NMID ID='MM_0lb_SNR800_16hz_g50_22.RAW', FMTDAT='(8E13.5)'
 TRAMP=1., VOLUME=1. $END
  3.09766E+05  6.69801E+02  3.37365E+05  2.50510E+05  8.45443E+04  3.38050E+05 -1.32298E+05  2.50687E+05
 -1.90011E+05  8.29656E+04 -1.11612E+05 -3.26859E+04  8.18493E+02 -5.06335E+04  5.39630E+04  5.92512E+01
  3.53423E+04  5.27271E+04 -1.69687E+04  7.51933E+04 -6.09258E+04  6.34660E+04 -8.35615E+04  3.15299E+04
 -8.06795E+04 -1.14835E+04 -5.72253E+04 -5.07278E+04 -1.52635E+04 -6.92740E+04  2.72113E+04 -4.52903E+04
  4.00138E+04  3.66305E+03  1.56649E+04  4.74764E+04 -3.42086E+04  4.67778E+04 -6.58829E+04 -3.66777E+02
 -5.28424E+04 -5.66081E+04 -6.33113E+03 -7.61791E+04  3.34893E+04 -5.44571E+04  4.72211E+04 -1.68975E+04
  4.27249E+04  1.14120E+04  3.14799E+04  2.49751E+04  1.58919E+04  2.89610E+04 -4.81677E+03  2.72803E+04
 -2.19514E+04  1.25622E+04 -1.89328E+04 -4.86869E+03  4.97522E+03 -7.43004E+03  2.20695E+04  1.19227E+04
  7.47275E+03  3.44486E+04 -3.13429E+04  3.49819E+04 -6.24244E+04  2.02738E+03 -5.63955E+04 -4.23647E+04
 -1.24107E+04 -6.22476E+04  3.93370E+04 -4.47521E+04  5.71937E+04 -2.43491E+03  3.35141E+04  3.14776E+04
 -6.43770E+03  3.47240E+04 -2.95813E+04  1.48782E+04 -2.94004E+04 -5.02261E+03 -1.61659E+04 -1.06471E+04
 -8.08511E+03 -1.27558E+04 -7.29261E+02 -1.72990E+04  7.22312E+03 -2.29272E+04  1.50723E+04 -1.34075E+04
  1.17320E+04  4.76308E+03 -7.48003E+03  1.29961E+04 -2.05533E+04 -3.82737E+03 -8.28620E+03 -3.27244E+04
  2.16835E+04 -4.24933E+04  4.67453E+04 -1.91828E+04  4.38326E+04  1.92590E+04  1.50824E+04  4.31575E+04
 -1.56824E+04  3.27065E+04 -2.51762E+04  1.52597E+03 -9.20391E+03 -2.73752E+04  2.05204E+04 -3.25995E+04
  4.00351E+04 -8.27464E+03  3.45097E+04  2.35533E+04  1.70413E+04  4.48659E+04 -7.96001E+03  4.82289E+04
 -3.04231E+04  3.24733E+04 -4.02164E+04  9.11395E+03 -4.09868E+04 -1.60296E+04 -2.26125E+04 -3.64340E+04
  7.34240E+03 -3.62393E+04  3.07523E+04 -1.39161E+04  2.80187E+04  1.10777E+04  3.53395E+03  1.83951E+04
 -1.32370E+04  7.83890E+03 -1.01980E+04 -7.86577E+03  5.61608E+03 -1.04545E+04  1.77297E+04  6.09967E+03
  1.29522E+04  2.18481E+04 -6.35240E+03  2.41513E+04 -2.20985E+04  1.04622E+04 -2.70445E+04 -5.26507E+03
 -1.90144E+04 -1.69352E+04 -7.26216E+03 -1.88048E+04  4.04548E+03 -1.77762E+04  1.44486E+04 -1.68665E+04
  2.41056E+04 -1.20684E+04  3.06874E+04  2.13860E+03  2.27363E+04  1.86282E+04  3.84369E+03  3.50015E+04
 -1.72368E+04  2.92163E+04 -2.71546E+04  9.85816E+03 -2.04212E+04 -1.04016E+04 -4.45440E+03 -1.34849E+04
  2.10516E+03 -3.23835E+03 -4.17838E+03  6.06580E+03 -1.46971E+04  5.12712E+03 -1.51812E+04 -6.28017E+03
 -9.42394E+03 -1.75696E+04  5.01425E+03 -2.16927E+04  1.39740E+04 -1.55312E+04  1.65711E+04 -1.69360E+03
  1.02780E+04  1.23757E+04 -1.19397E+03  1.74104E+04 -1.19388E+04  9.99883E+03 -1.75560E+04 -3.68733E+03
 -1.31827E+04 -1.58163E+04 -1.59784E+03 -2.12628E+04  9.84911E+03 -1.75678E+04  1.79287E+04 -8.57454E+03
  1.64270E+04  6.37114E+02  1.19891E+04  3.90561E+03  5.94842E+03  8.31351E+02  9.00234E+03 -1.24613E+03
  1.60160E+04  2.52568E+03  1.78025E+04  1.41159E+04  1.11629E+04  2.77386E+04 -2.89681E+03  3.10451E+04
 -1.81902E+04  2.46281E+04 -2.87759E+04  1.21922E+04 -3.00089E+04 -2.11234E+03 -2.49740E+04 -1.73217E+04
 -1.12030E+04 -2.45853E+04  8.55110E+03 -2.24542E+04  1.93083E+04 -1.17838E+04  1.76193E+04  4.54549E+03
  7.03272E+03  1.32232E+04 -8.32889E+03  1.19467E+04 -1.51715E+04  2.38465E+03 -1.17044E+04 -9.07130E+03
  8.33940E+00 -1.39004E+04  7.10550E+03 -1.07459E+04  8.91204E+03 -1.47178E+03  1.95118E+03  5.83654E+03
 -6.31594E+03  1.86663E+03 -5.11985E+03 -4.90054E+03  8.42987E+01 -1.20922E+04  8.86743E+03 -1.21600E+04
  1.47583E+04 -6.17467E+03  1.54077E+04  2.81343E+03  1.34194E+04  1.15353E+04  6.44726E+03  1.74692E+04
 -2.72388E+03  1.94141E+04 -1.22382E+04  1.22149E+04 -1.42726E+04  3.31420E+03 -1.01824E+04 -2.97660E+03
 -4.64284E+03 -4.59767E+03 -7.99719E+02  1.22047E+03 -1.99447E+03  2.42988E+03 -4.77463E+03  4.03094E+03
 -9.60289E+03 -5.50824E+02 -1.00224E+04 -8.57790E+03 -3.85227E+03 -1.35382E+04  4.18164E+03 -1.02955E+04
  8.26263E+03 -4.45588E+03  5.94117E+03  2.50839E+03  5.06249E+02  3.86006E+03 -4.84242E+03 -2.73488E+02
 -4.11855E+03 -6.32065E+03 -7.33332E+02 -9.19065E+03  4.90711E+03 -9.59884E+03  1.21479E+04 -5.04663E+03
  1.41843E+04  1.03402E+03  1.04245E+04  8.01277E+03  2.25929E+03  1.06260E+04 -6.08591E+03  1.00785E+04
 -7.98406E+03  3.06772E+03 -4.04025E+03 -1.59803E+03  1.34242E+03 -2.41682E+03  5.86799E+03 -1.03374E+03
  4.76190E+03  3.98670E+03  8.71262E+02  7.70517E+03 -5.28348E+03  7.68894E+03 -9.33637E+03  2.07520E+03
 -6.01099E+03 -4.66373E+03  4.42339E+02 -8.38823E+03  4.80233E+03 -4.36894E+03  5.12444E+03  1.53027E+03
  8.40641E+02  4.62277E+03 -5.00028E+03  6.12950E+03 -6.38422E+03  2.90275E+03 -6.60388E+03 -1.76793E+03
 -4.16418E+03 -8.06715E+03  1.63950E+03 -9.35778E+03  8.00265E+03 -6.00388E+03  8.27762E+03  1.52432E+03
  5.83413E+03  6.77004E+03 -3.54923E+02  8.93886E+03 -6.62774E+03  4.82173E+03 -6.96769E+03 -6.84958E+02
 -7.10668E+03 -5.89043E+03 -1.59804E+03 -6.61002E+03  3.32579E+03 -5.42293E+03  3.75211E+03 -3.35448E+03
  3.14885E+03  6.44377E+02 -2.04216E+02  1.71167E+03  2.72583E+02 -8.62295E+02  6.34540E+02 -3.05261E+03
  5.47684E+03 -1.46560E+03  7.40214E+03  1.03238E+03  7.74063E+03  4.81683E+03  6.26887E+03  9.90524E+03
 -1.94813E+03  1.16877E+04 -9.97749E+03  8.46780E+03 -1.29173E+04  1.76952E+03 -1.04672E+04 -3.78540E+03
 -5.19208E+03 -8.31371E+03 -5.76040E+02 -7.25436E+03  2.75345E+03 -3.41270E+03  2.41880E+03 -2.76762E+03
  1.37467E+03 -1.82672E+03  2.45287E+03 -2.93303E+03  3.94923E+03 -1.64398E+03  4.57536E+03  4.36682E+00
  5.66018E+03  1.19545E+03  1.98129E+03  4.55211E+03 -1.64582E+03  4.46545E+03 -5.60826E+03  3.67535E+03
 -6.77239E+03 -1.04398E+03 -3.05049E+03 -4.79790E+03 -2.20215E+01 -7.31081E+03  4.30488E+03 -7.01550E+03
  7.34704E+03 -4.04963E+03  9.12939E+03  6.41141E+02  6.45944E+03  5.91628E+03  1.05508E+03  8.15986E+03
 -3.24029E+03  7.04503E+03 -4.63323E+03  2.21362E+03 -2.90884E+03 -1.10929E+03 -6.83775E+02 -1.05176E+03
 -3.63575E+02  2.20716E+02 -1.12487E+03  2.17134E+03 -3.19381E+03  1.03187E+03 -5.09330E+03 -6.99436E+02
 -2.70876E+03 -5.12190E+03  6.60287E+02 -6.42509E+03  3.71988E+03 -5.87478E+03  5.53881E+03 -1.75815E+03
  5.97229E+03  3.45624E+03  2.86037E+03  5.21043E+03 -1.20298E+03  6.08118E+03 -4.09138E+03  3.83816E+03
 -5.27000E+03  5.29271E+02 -4.53716E+03 -3.60947E+03 -2.74976E+02 -4.75222E+03  2.36455E+03 -3.54326E+03
  3.72531E+03 -1.57393E+03  2.71162E+03  5.76134E+02  1.02061E+03  2.12367E+03  7.29333E+02  6.92171E+02
  1.87435E+03  3.75238E+02  1.69626E+03  1.16194E+03  1.68110E+03  3.00524E+03  1.94968E+03  2.83735E+03
 -1.57978E+03  4.70034E+03 -3.74661E+03  5.43592E+03 -5.11674E+03  1.42739E+03 -5.92516E+03 -1.46166E+03
 -2.68403E+03 -5.40880E+03  6.52832E+02 -6.62196E+03  2.89269E+03 -4.01534E+03  4.59862E+03 -1.19768E+03
  3.81657E+03  2.35268E+03  3.64544E+02  3.42598E+03 -1.39962E+03  1.87339E+03 -2.08805E+03 -2.86968E+02
 -7.90346E+02 -2.24846E+03  1.85731E+03 -2.41405E+03  2.21826E+03 -1.34093E+03  2.14492E+03  2.46626E+02
  1.22784E+03  7.32958E+02  8.84640E+02  1.90308E+02 -4.52198E+02  6.87594E+02  1.46215E+03 -4.87721E+02
  2.92498E+02 -8.31338E+01  2.30055E+03  8.73280E+02  9.08820E+02  3.30298E+03 -5.07793E+02  4.02676E+03
 -2.55854E+03  1.94876E+03 -2.81751E+03  3.44350E+02 -2.83812E+03 -1.31063E+03 -4.35318E+02 -1.82656E+03
  2.23595E+02 -1.70783E+03  1.33668E+03 -9.28135E+02  1.12883E+03  1.72021E+03 -7.49348E+02  2.00787E+03
 -2.43322E+03  1.21626E+03 -1.73444E+03 -1.51280E+03 -1.02048E+03 -3.29685E+03  1.45259E+02 -2.34127E+03
  1.27073E+03 -1.38209E+03  1.72966E+03  1.60731E+02  1.72746E+03  4.18784E+02  1.70336E+02  1.85419E+03
 -7.46673E+02  1.68418E+02 -1.26421E+03 -6.89229E+02  8.15107E+02 -1.61275E+03  2.65082E+03 -1.60886E+03
  2.53180E+03  4.95336E+02  3.69778E+03  1.66852E+03  1.10520E+03  3.07894E+03 -5.97773E+02  2.95384E+03
 -2.61959E+03  1.20269E+03 -2.35088E+03 -5.05555E+02 -1.42233E+03 -1.85122E+03  6.01540E+02 -1.24208E+03
  2.30369E+03 -1.21210E+03  1.54289E+03  8.56142E+02  2.83399E+02  2.18500E+03 -4.94888E+01  1.82309E+03
 -2.78612E+02  1.55493E+03 -8.87854E+02  3.55006E+02 -5.27319E+01  5.49270E+02 -8.27952E+02  8.04825E+02
 -1.01250E+03  1.34469E+03 -2.62168E+03  6.15090E+02 -2.74223E+03  1.21513E+02 -3.69950E+03 -2.05156E+03
 -1.49136E+03 -3.66307E+03  6.23690E+02 -4.21051E+03  2.13242E+03 -3.72392E+03  4.33182E+03 -1.41238E+03
  3.99149E+03  2.34644E+02  2.30102E+03  2.70828E+03 -3.13564E+02  2.66514E+03 -1.06783E+03  2.33563E+03
 -1.38717E+03  9.72096E+02 -9.59808E+02 -1.84809E+02 -8.25264E+02  1.17834E+01 -7.92371E+02  3.44255E+02
 -1.41327E+03  9.25511E+01 -9.65923E+02 -2.41836E+02  2.06524E+02 -7.57557E+02 -3.35952E+02 -1.35497E+03
  1.61462E+03 -1.03178E+03  1.45618E+03  6.31493E+01  2.04017E+03  1.56855E+03 -4.11835E+02  2.53448E+03
 -1.46616E+03  3.44158E+03 -2.94006E+03  2.12673E+03 -3.04275E+03 -2.58627E+02 -2.19160E+03 -2.08253E+03
 -1.04620E+03 -2.05019E+03  4.73499E+02 -2.24559E+03  1.36835E+03 -1.07920E+03  1.56123E+03 -1.93193E+02
  1.02327E+03  5.69536E+02  2.03435E+01  4.94183E+02 -5.91701E+02 -2.47231E+02 -7.60880E+01 -5.99714E+02
  7.80168E+02 -3.86666E+01  4.44007E+02  4.94306E+02  3.30286E+02  1.03463E+03  5.22419E+02  8.15628E+02
 -1.21085E+03  1.01293E+03 -1.27524E+03  1.25540E+02 -1.35045E+03 -1.00916E+03 -1.96003E+02 -2.02186E+03
  1.11971E+03 -1.43126E+03  1.25740E+03 -1.53531E+02  1.61361E+03 -3.92090E+02  8.58651E+02  1.21274E+03
  2.46518E+02  1.06397E+03 -5.32489E+02  1.27933E+03 -1.22215E+03  7.26148E+02 -6.97344E+02  2.77976E+02
 -1.61737E+02 -1.49404E+02 -4.87321E+02  9.84725E+00 -6.76955E+02  2.07732E+02 -1.27809E+03 -4.13672E+02
 -1.28895E+03 -2.50671E+02 -5.49113E+02 -1.40842E+03  8.36191E+02 -2.06554E+03  1.24860E+03 -1.05557E+02
  1.49588E+03 -2.53096E+01  1.96426E+02  6.99651E+02 -1.32397E+01  1.48908E+03 -6.40865E+02  1.09846E+03
