 $NMID ID='MM_0lb_SNR800_12hz_g45_27.RAW', FMTDAT='(8E13.5)'
 TRAMP=1., VOLUME=1. $END
  3.10106E+05  6.04840E+02  3.37849E+05  2.50556E+05  8.49798E+04  3.38468E+05 -1.32559E+05  2.51110E+05
 -1.90452E+05  8.32341E+04 -1.12177E+05 -3.25775E+04  6.86355E+02 -5.06340E+04  5.37200E+04 -4.80510E+02
  3.53749E+04  5.29651E+04 -1.67477E+04  7.55827E+04 -6.08342E+04  6.37889E+04 -8.43321E+04  3.24662E+04
 -8.13823E+04 -1.15372E+04 -5.74088E+04 -5.13045E+04 -1.51154E+04 -7.03917E+04  2.77874E+04 -4.59797E+04
  4.02533E+04  4.01565E+03  1.61781E+04  4.77404E+04 -3.42401E+04  4.75883E+04 -6.72353E+04 -2.46481E+02
 -5.38467E+04 -5.74187E+04 -7.00354E+03 -7.77143E+04  3.41142E+04 -5.57901E+04  4.83629E+04 -1.77236E+04
  4.38671E+04  1.15468E+04  3.20631E+04  2.57413E+04  1.57995E+04  2.98459E+04 -5.59211E+03  2.73366E+04
 -2.23088E+04  1.20715E+04 -1.85858E+04 -5.02918E+03  6.05657E+03 -7.49554E+03  2.27340E+04  1.24357E+04
  7.47809E+03  3.57699E+04 -3.24592E+04  3.60126E+04 -6.44270E+04  2.02872E+03 -5.75399E+04 -4.30609E+04
 -1.21956E+04 -6.37242E+04  4.03683E+04 -4.58796E+04  5.89576E+04 -1.95930E+03  3.45102E+04  3.24761E+04
 -5.91889E+03  3.65338E+04 -3.08448E+04  1.70288E+04 -3.13744E+04 -4.28493E+03 -1.74655E+04 -1.13970E+04
 -8.58666E+03 -1.35001E+04 -5.84088E+02 -1.87960E+04  7.62284E+03 -2.30486E+04  1.56614E+04 -1.34710E+04
  1.15265E+04  5.27789E+03 -8.74571E+03  1.27215E+04 -2.20215E+04 -4.74888E+03 -8.23341E+03 -3.47446E+04
  2.33979E+04 -4.40829E+04  4.93417E+04 -2.00303E+04  4.60955E+04  1.98541E+04  1.61725E+04  4.50540E+04
 -1.63322E+04  3.42827E+04 -2.60603E+04  2.14486E+03 -1.06063E+04 -2.83924E+04  2.09363E+04 -3.46937E+04
  4.23126E+04 -9.76752E+03  3.69266E+04  2.40807E+04  1.91505E+04  4.80448E+04 -7.92163E+03  5.17106E+04
 -3.23469E+04  3.47612E+04 -4.35031E+04  1.04194E+04 -4.40749E+04 -1.74060E+04 -2.43488E+04 -3.90349E+04
  7.29328E+03 -3.89928E+04  3.23804E+04 -1.52523E+04  3.00311E+04  1.10739E+04  4.45913E+03  1.96917E+04
 -1.36290E+04  9.03954E+03 -1.05473E+04 -7.88425E+03  5.44519E+03 -1.09056E+04  1.80751E+04  5.69146E+03
  1.37349E+04  2.21493E+04 -5.65553E+03  2.56574E+04 -2.26874E+04  1.23672E+04 -2.90193E+04 -4.25084E+03
 -2.16808E+04 -1.74209E+04 -8.91456E+03 -2.13581E+04  4.10476E+03 -2.13558E+04  1.68859E+04 -1.98804E+04
  2.79196E+04 -1.33973E+04  3.40307E+04  3.23030E+03  2.46968E+04  2.11647E+04  4.00533E+03  3.77565E+04
 -1.82215E+04  3.14975E+04 -2.85415E+04  1.10609E+04 -2.15236E+04 -1.03723E+04 -4.66286E+03 -1.34742E+04
  1.53544E+03 -2.22548E+03 -5.78899E+03  7.23240E+03 -1.74064E+04  5.46783E+03 -1.73716E+04 -7.85899E+03
 -1.08791E+04 -2.02607E+04  5.45089E+03 -2.48120E+04  1.62846E+04 -1.75282E+04  1.95473E+04 -1.90378E+03
  1.25385E+04  1.36446E+04 -8.97983E+02  2.04933E+04 -1.40338E+04  1.13477E+04 -2.03434E+04 -4.44330E+03
 -1.47256E+04 -1.84474E+04 -1.90460E+03 -2.45296E+04  1.07083E+04 -2.00779E+04  2.02791E+04 -1.03425E+04
  1.89400E+04  2.41867E+02  1.39031E+04  4.86703E+03  7.28814E+03  1.26211E+03  1.06642E+04 -1.51890E+03
  1.83133E+04  2.67403E+03  2.11837E+04  1.58431E+04  1.39098E+04  3.23132E+04 -2.81654E+03  3.69278E+04
 -2.13188E+04  3.00634E+04 -3.49331E+04  1.49074E+04 -3.70351E+04 -2.82131E+03 -3.00570E+04 -2.14476E+04
 -1.24709E+04 -2.99527E+04  1.05444E+04 -2.71577E+04  2.32634E+04 -1.34115E+04  2.09022E+04  6.26299E+03
  7.38314E+03  1.57245E+04 -9.97731E+03  1.32015E+04 -1.75950E+04  2.41024E+03 -1.34070E+04 -1.08486E+04
 -1.57671E+02 -1.63510E+04  8.87462E+03 -1.26359E+04  1.12491E+04 -1.44694E+03  2.55913E+03  7.17157E+03
 -7.51763E+03  3.21062E+03 -6.80511E+03 -6.00498E+03 -5.42766E+02 -1.49374E+04  1.05723E+04 -1.57775E+04
  1.83707E+04 -8.38739E+03  2.03583E+04  3.22801E+03  1.78777E+04  1.48805E+04  8.48279E+03  2.26213E+04
 -3.64292E+03  2.49522E+04 -1.57755E+04  1.52210E+04 -1.76720E+04  3.54899E+03 -1.26316E+04 -4.16175E+03
 -5.66502E+03 -5.67635E+03 -9.28421E+02  6.50940E+02 -2.73764E+03  3.04628E+03 -6.04820E+03  4.77384E+03
 -1.16599E+04 -4.18368E+02 -1.23075E+04 -9.69935E+03 -5.10109E+03 -1.59952E+04  5.19770E+03 -1.28748E+04
  1.07120E+04 -5.21273E+03  7.28552E+03  3.39928E+03 -1.34892E+01  5.20189E+03 -6.12412E+03  8.39612E-01
 -5.74206E+03 -8.28700E+03 -1.04555E+03 -1.19499E+04  7.40831E+03 -1.25891E+04  1.57768E+04 -6.92205E+03
  1.84866E+04  1.76228E+03  1.36803E+04  1.10869E+04  3.06732E+03  1.45685E+04 -7.77711E+03  1.22467E+04
 -1.03154E+04  3.61959E+03 -5.45208E+03 -2.62054E+03  1.87002E+03 -3.34182E+03  6.74761E+03 -1.01158E+03
  6.02016E+03  5.25258E+03  1.31934E+03  1.00282E+04 -7.24409E+03  9.45278E+03 -1.19726E+04  2.29097E+03
 -8.27091E+03 -6.55126E+03  2.08390E+02 -1.06837E+04  6.67415E+03 -5.43742E+03  6.91361E+03  2.07832E+03
  1.31061E+03  7.42849E+03 -6.44597E+03  8.60354E+03 -9.78731E+03  3.71989E+03 -1.01823E+04 -3.33941E+03
 -5.88336E+03 -1.12974E+04  2.63333E+03 -1.35979E+04  1.12748E+04 -7.85897E+03  1.25093E+04  1.94677E+03
  7.64449E+03  1.00102E+04 -9.81479E+02  1.17469E+04 -8.59694E+03  6.56904E+03 -9.69859E+03 -1.02232E+03
 -8.61785E+03 -8.43121E+03 -1.40731E+03 -9.14961E+03  4.95202E+03 -7.57948E+03  5.68066E+03 -3.23804E+03
  3.93219E+03  1.02746E+03 -5.05836E+02  1.90760E+03 -2.62556E+02 -1.78303E+03  1.54766E+03 -4.65514E+03
  8.15111E+03 -3.00537E+03  1.13590E+04  1.33076E+03  1.11187E+04  7.38972E+03  7.97742E+03  1.50561E+04
 -3.18045E+03  1.73237E+04 -1.43814E+04  1.28058E+04 -1.87477E+04  2.61361E+03 -1.51012E+04 -6.38393E+03
 -7.74172E+03 -1.21551E+04 -5.06425E+02 -1.03029E+04  3.78733E+03 -5.69185E+03  3.71900E+03 -3.82369E+03
  2.45137E+03 -2.39645E+03  2.81912E+03 -3.08935E+03  4.98794E+03 -2.45549E+03  6.39857E+03 -6.63451E+02
  7.84960E+03  1.88202E+03  3.75462E+03  6.62756E+03 -2.48938E+03  7.41712E+03 -8.01012E+03  6.06308E+03
 -1.05512E+04 -1.10270E+03 -5.77554E+03 -7.34586E+03 -8.60981E+02 -1.10112E+04  6.23709E+03 -1.12280E+04
  1.10406E+04 -6.21666E+03  1.39199E+04  1.76065E+03  9.82709E+03  9.48495E+03  1.79963E+03  1.26325E+04
 -5.05987E+03  1.03647E+04 -6.80018E+03  3.71918E+03 -4.69238E+03 -1.47142E+03 -1.91128E+03 -1.39618E+03
 -1.26797E+03  9.10882E+01 -1.72413E+03  2.54551E+03 -4.38746E+03  1.68197E+03 -7.28472E+03 -1.45168E+03
 -4.54528E+03 -7.46843E+03  4.51909E+02 -9.65701E+03  6.09596E+03 -9.34112E+03  9.66638E+03 -2.82194E+03
  9.86393E+03  5.32533E+03  4.33067E+03  9.18864E+03 -2.11225E+03  1.00535E+04 -6.87618E+03  6.13843E+03
 -9.12753E+03  5.60142E+02 -7.26211E+03 -5.85040E+03 -7.72139E+02 -8.16014E+03  4.31662E+03 -6.16932E+03
  5.69861E+03 -1.76712E+03  4.40504E+03  1.71109E+03  1.42510E+03  3.35696E+03  7.08171E+02  1.39279E+03
  2.03993E+03  4.92437E+02  2.48262E+03  1.56899E+03  2.92860E+03  3.44475E+03  2.62984E+03  5.09994E+03
 -1.77168E+03  7.59432E+03 -6.95244E+03  8.22328E+03 -9.58338E+03  2.27366E+03 -1.01584E+04 -3.64572E+03
 -4.69352E+03 -9.55129E+03  1.59966E+03 -1.07395E+04  5.67564E+03 -6.65042E+03  8.13228E+03 -1.63233E+03
  6.36040E+03  3.70399E+03  1.60963E+03  5.69209E+03 -2.50230E+03  3.34192E+03 -3.70111E+03 -7.10885E+02
 -1.90283E+03 -3.94513E+03  2.56969E+03 -4.44926E+03  4.08080E+03 -1.92502E+03  3.72395E+03  8.34653E+02
  2.10514E+03  1.80339E+03  7.52629E+02  1.15495E+03 -2.77896E+02  1.27414E+03  1.64063E+03 -3.50592E+02
  1.45614E+03 -6.30666E+02  3.70736E+03  1.60080E+03  1.73407E+03  5.26665E+03 -9.98925E+02  7.03787E+03
 -4.48649E+03  4.02904E+03 -5.93969E+03  1.12361E+03 -5.52210E+03 -1.91845E+03 -1.84276E+03 -3.49015E+03
  4.09055E+02 -3.46421E+03  2.56625E+03 -1.69546E+03  2.01736E+03  2.10638E+03 -1.43285E+03  3.06559E+03
 -4.01409E+03  2.27740E+03 -4.43184E+03 -2.44039E+03 -2.36176E+03 -5.41191E+03  7.77982E+02 -5.43731E+03
  2.87921E+03 -3.00758E+03  3.36119E+03 -3.16491E+02  3.57322E+03  1.24354E+03  3.37073E+02  2.75730E+03
 -1.55269E+03  5.86219E+02 -1.89435E+03 -1.78619E+03  8.74482E+02 -3.89027E+03  4.70177E+03 -3.28758E+03
  5.73989E+03  1.73061E+02  6.22192E+03  3.63617E+03  2.29649E+03  5.72247E+03 -1.69550E+03  5.72636E+03
 -4.89638E+03  2.16274E+03 -5.14432E+03 -4.70717E+02 -2.53024E+03 -4.00679E+03  8.73485E+02 -3.08796E+03
  3.88436E+03 -2.27087E+03  3.08888E+03  1.83319E+03  1.14787E+03  3.47426E+03 -3.22859E+02  2.85468E+03
 -1.16477E+03  2.01812E+03 -1.44586E+03  5.87708E+02 -3.11631E+02  5.82405E+02 -1.22870E+03  1.14929E+03
 -1.53324E+03  2.41717E+03 -4.54382E+03  2.16909E+03 -5.60629E+03  2.51032E+02 -6.89568E+03 -3.67974E+03
 -3.25797E+03 -7.66389E+03  1.54786E+03 -8.98872E+03  4.98985E+03 -7.28475E+03  8.31164E+03 -2.69684E+03
  7.74550E+03  1.23722E+03  5.06978E+03  5.50150E+03  1.36185E+02  5.92383E+03 -2.66402E+03  4.64438E+03
 -3.33260E+03  1.87427E+03 -2.15349E+03 -4.09612E+02 -9.60715E+02 -3.41519E+02 -4.75915E+02 -5.72358E+01
 -1.38248E+03  2.52020E+02 -1.24422E+03 -3.36461E+02 -2.25061E+02 -1.67771E+03  4.52769E+00 -2.42427E+03
  3.14900E+03 -2.04835E+03  3.12487E+03  7.29023E+01  4.22388E+03  3.19639E+03  8.78249E+02  5.55983E+03
 -2.82801E+03  7.09449E+03 -6.41184E+03  3.96747E+03 -6.89327E+03 -5.86037E+02 -5.17385E+03 -4.09739E+03
 -2.15589E+03 -5.69521E+03  1.04257E+03 -5.48417E+03  3.64645E+03 -2.79539E+03  3.76925E+03  4.41555E+02
  2.08679E+03  2.11241E+03 -2.93914E+02  1.60941E+03 -1.25679E+03 -1.67607E+02  5.11062E+01 -1.11212E+03
  2.17322E+03 -9.08421E+01  2.28965E+03  9.11929E+02  1.37175E+03  2.15276E+03  1.04820E+02  2.44162E+03
 -2.34053E+03  2.37521E+03 -3.48285E+03  2.99650E+02 -3.44773E+03 -2.66737E+03 -2.79890E+02 -4.53413E+03
  2.72644E+03 -3.83150E+03  3.79656E+03 -1.43239E+03  4.35285E+03  7.26087E+02  2.35138E+03  3.25138E+03
  5.64835E+02  3.89579E+03 -1.21337E+03  3.11982E+03 -2.48535E+03  1.91171E+03 -1.87712E+03  1.17360E+02
 -1.11784E+03 -2.82166E+02 -1.21904E+03  2.39846E+02 -1.97998E+03  5.06885E+02 -2.98110E+03 -8.84376E+02
 -2.92568E+03 -1.32145E+03 -7.00841E+02 -3.56644E+03  1.99732E+03 -4.10104E+03  3.28584E+03 -1.71643E+03
  3.99380E+03  4.53553E+02  1.55155E+03  2.53122E+03 -3.16612E+02  3.41550E+03 -2.75763E+03  2.43172E+03
