 $NMID ID='MM_0lb_SNR800_19hz_g50_37.RAW', FMTDAT='(8E13.5)'
 TRAMP=1., VOLUME=1. $END
  3.09735E+05  5.51703E+02  3.37403E+05  2.50148E+05  8.41925E+04  3.37665E+05 -1.32718E+05  2.50274E+05
 -1.89736E+05  8.24651E+04 -1.10682E+05 -3.27174E+04  1.28574E+03 -5.03619E+04  5.37517E+04  4.98240E+02
  3.51257E+04  5.28405E+04 -1.69091E+04  7.47231E+04 -6.05722E+04  6.28389E+04 -8.30041E+04  3.15384E+04
 -7.97461E+04 -1.12145E+04 -5.62648E+04 -5.01817E+04 -1.50293E+04 -6.84197E+04  2.67152E+04 -4.47003E+04
  3.92845E+04  3.89491E+03  1.58184E+04  4.71087E+04 -3.39808E+04  4.60948E+04 -6.54143E+04 -6.17813E+02
 -5.18016E+04 -5.60883E+04 -6.25534E+03 -7.51887E+04  3.33335E+04 -5.32150E+04  4.63862E+04 -1.63441E+04
  4.17806E+04  1.11011E+04  3.09735E+04  2.44039E+04  1.58763E+04  2.83349E+04 -4.67361E+03  2.66163E+04
 -2.16769E+04  1.26221E+04 -1.91420E+04 -4.37891E+03  4.54240E+03 -7.87673E+03  2.10787E+04  1.08506E+04
  7.51584E+03  3.33549E+04 -3.05684E+04  3.41757E+04 -6.13316E+04  2.19110E+03 -5.52837E+04 -4.11304E+04
 -1.23299E+04 -6.08762E+04  3.82833E+04 -4.35443E+04  5.57603E+04 -2.02241E+03  3.19995E+04  3.05208E+04
 -6.61659E+03  3.30896E+04 -2.85951E+04  1.34442E+04 -2.77925E+04 -5.23942E+03 -1.44770E+04 -1.00544E+04
 -7.27309E+03 -1.15320E+04 -9.02348E+02 -1.66425E+04  6.73175E+03 -2.29491E+04  1.47949E+04 -1.38397E+04
  1.21991E+04  4.02788E+03 -6.14834E+03  1.30352E+04 -1.91075E+04 -2.53584E+03 -8.00279E+03 -3.05698E+04
  2.07555E+04 -4.07346E+04  4.44892E+04 -1.85536E+04  4.21989E+04  1.85966E+04  1.45180E+04  4.17801E+04
 -1.51110E+04  3.11704E+04 -2.35683E+04  1.03255E+03 -8.26606E+03 -2.64323E+04  2.03643E+04 -3.12300E+04
  3.82758E+04 -7.36890E+03  3.16841E+04  2.25890E+04  1.54038E+04  4.26493E+04 -7.55378E+03  4.53591E+04
 -2.87077E+04  2.97799E+04 -3.72850E+04  8.10471E+03 -3.82181E+04 -1.51079E+04 -2.14044E+04 -3.46195E+04
  7.11773E+03 -3.42394E+04  2.90311E+04 -1.28300E+04  2.67406E+04  1.06265E+04  3.02730E+03  1.78600E+04
 -1.31503E+04  7.27753E+03 -9.95420E+03 -7.80748E+03  5.68844E+03 -1.00226E+04  1.72694E+04  6.48081E+03
  1.23962E+04  2.13158E+04 -6.84899E+03  2.34096E+04 -2.12788E+04  9.19417E+03 -2.53274E+04 -6.25419E+03
 -1.70723E+04 -1.63175E+04 -5.60790E+03 -1.70299E+04  3.71079E+03 -1.45237E+04  1.25500E+04 -1.43890E+04
  2.12684E+04 -1.16958E+04  2.82179E+04  9.31462E+02  2.13460E+04  1.62955E+04  4.39613E+03  3.26294E+04
 -1.58023E+04  2.75646E+04 -2.56575E+04  9.46520E+03 -1.99072E+04 -1.03637E+04 -3.96794E+03 -1.38965E+04
  2.34958E+03 -4.21937E+03 -2.80737E+03  5.41350E+03 -1.29420E+04  5.52772E+03 -1.32615E+04 -5.23723E+03
 -8.34430E+03 -1.55358E+04  4.50614E+03 -1.91384E+04  1.26410E+04 -1.40634E+04  1.44255E+04 -1.36894E+03
  8.84592E+03  1.07194E+04 -9.12415E+02  1.57541E+04 -1.02076E+04  8.76295E+03 -1.54236E+04 -3.35343E+03
 -1.15097E+04 -1.42051E+04 -1.58878E+03 -1.86687E+04  8.52042E+03 -1.53976E+04  1.62584E+04 -7.20348E+03
  1.43189E+04  5.74102E+02  1.06107E+04  3.91480E+03  5.36986E+03  3.10639E+02  7.62626E+03 -1.47465E+03
  1.37282E+04  2.51849E+03  1.45292E+04  1.26567E+04  9.20777E+03  2.46100E+04 -3.27245E+03  2.62010E+04
 -1.57134E+04  2.01381E+04 -2.42382E+04  9.50768E+03 -2.48398E+04 -1.66888E+03 -2.13182E+04 -1.40908E+04
 -9.95434E+03 -2.01629E+04  6.70280E+03 -1.86695E+04  1.62784E+04 -1.07234E+04  1.55726E+04  3.61157E+03
  6.60920E+03  1.11625E+04 -6.82148E+03  1.03338E+04 -1.34802E+04  2.79142E+03 -1.02268E+04 -7.93772E+03
 -1.97535E+02 -1.22295E+04  5.95865E+03 -9.30999E+03  7.92989E+03 -1.14646E+03  1.46841E+03  5.00090E+03
 -5.48956E+03  1.42127E+03 -3.91227E+03 -4.53091E+03  4.73069E+02 -1.01320E+04  7.77337E+03 -9.80753E+03
  1.19865E+04 -4.56272E+03  1.18471E+04  2.62873E+03  1.00585E+04  9.26198E+03  4.75315E+03  1.38319E+04
 -1.61567E+03  1.56367E+04 -9.62742E+03  1.01310E+04 -1.09919E+04  2.93781E+03 -8.36314E+03 -1.91285E+03
 -4.54144E+03 -3.14112E+03 -7.70038E+02  1.48729E+03 -1.91956E+03  1.90254E+03 -3.32163E+03  3.45994E+03
 -7.90236E+03 -2.76377E+02 -8.98338E+03 -7.02328E+03 -3.51158E+03 -1.14617E+04  3.36022E+03 -8.10666E+03
  6.94928E+03 -3.62806E+03  5.32356E+03  1.84449E+03  8.13596E+02  3.19504E+03 -3.17832E+03  3.03793E+01
 -3.39756E+03 -4.89391E+03 -7.92466E+02 -6.99604E+03  3.64431E+03 -7.64931E+03  9.62458E+03 -3.93885E+03
  1.12860E+04  6.96417E+02  8.50950E+03  6.08758E+03  1.92113E+03  8.40924E+03 -5.03315E+03  8.11105E+03
 -6.89383E+03  2.75801E+03 -3.49597E+03 -1.11102E+03  1.26339E+03 -1.89117E+03  4.67911E+03 -1.11333E+03
  4.14583E+03  3.48962E+03  1.06169E+03  6.43277E+03 -4.54342E+03  6.19954E+03 -7.84583E+03  2.00048E+03
 -4.32412E+03 -3.36016E+03  4.32087E+02 -6.51995E+03  3.63662E+03 -3.04693E+03  3.67199E+03  1.17382E+03
  1.04530E+02  2.90508E+03 -3.98603E+03  4.78974E+03 -4.31711E+03  2.51340E+03 -4.17027E+03 -9.86130E+02
 -2.85229E+03 -6.05775E+03  1.15565E+03 -6.85884E+03  5.72875E+03 -4.54281E+03  5.84534E+03  1.01955E+03
  4.55681E+03  5.09769E+03  2.24723E+02  7.15525E+03 -4.81948E+03  4.07972E+03 -4.99748E+03 -6.33535E+02
 -5.55414E+03 -5.15551E+03 -1.35066E+03 -4.88930E+03  2.59928E+03 -4.64155E+03  2.70882E+03 -3.07419E+03
  2.58558E+03  1.37865E+02  9.97932E+01  1.28716E+03  4.41056E+02 -3.80301E+02  2.37244E+02 -1.49892E+03
  3.62587E+03 -7.11436E+02  5.05072E+03  5.45584E+02  5.35353E+03  3.05649E+03  5.08678E+03  6.68999E+03
 -1.05757E+03  8.28349E+03 -7.32920E+03  6.32130E+03 -9.51710E+03  9.91291E+02 -7.21334E+03 -2.32804E+03
 -4.12399E+03 -6.48375E+03 -3.16804E+02 -4.81898E+03  2.17009E+03 -1.77322E+03  1.68616E+03 -1.91400E+03
  1.12212E+03 -1.33054E+03  1.85286E+03 -2.48691E+03  3.29318E+03 -1.18462E+03  3.54264E+03  4.15739E+02
  4.41894E+03  1.29729E+03  9.29882E+02  3.34034E+03 -1.53937E+03  2.70214E+03 -3.87425E+03  2.40321E+03
 -4.65725E+03 -1.01347E+03 -1.61634E+03 -3.28730E+03  5.71041E+02 -4.78502E+03  3.08031E+03 -4.86809E+03
  4.75571E+03 -3.40824E+03  6.55030E+03 -7.97702E+01  5.00699E+03  3.58812E+03  1.27522E+03  5.73022E+03
 -1.95854E+03  5.78348E+03 -3.24786E+03  1.64243E+03 -1.65238E+03 -1.09176E+03 -2.43641E+02 -6.43396E+02
 -2.93784E+02  5.75970E+02 -1.09344E+03  1.83757E+03 -2.54204E+03  9.17951E+02 -3.82273E+03 -5.32478E+02
 -1.50155E+03 -3.92716E+03  9.76678E+02 -4.34052E+03  2.44771E+03 -4.33807E+03  3.23895E+03 -7.54058E+02
  3.72455E+03  2.23586E+03  1.66680E+03  3.12143E+03 -8.71805E+02  4.30619E+03 -2.47859E+03  2.91503E+03
 -3.22164E+03  5.62912E+02 -3.19786E+03 -2.01802E+03 -2.42215E+02 -2.76206E+03  1.22031E+03 -2.23340E+03
  2.56165E+03 -1.35676E+03  1.72464E+03  3.55027E+02  3.59250E+02  1.62871E+03  8.69281E+02  4.32137E+02
  1.72094E+03  4.16210E+02  1.25308E+03  9.39422E+02  9.23141E+02  2.21223E+03  1.26304E+03  1.74429E+03
 -1.13714E+03  2.61082E+03 -2.13787E+03  3.91774E+03 -2.53313E+03  1.10847E+03 -3.59768E+03 -2.96150E+01
 -1.56525E+03 -3.36004E+03  7.17790E+02 -4.32805E+03  1.43091E+03 -2.40780E+03  2.83171E+03 -7.46688E+02
  2.16809E+03  1.80962E+03  5.75957E+02  2.24381E+03 -8.54294E+02  1.19774E+03 -7.65296E+02 -3.13861E+02
 -7.17912E+02 -1.38658E+03  1.34468E+03 -1.33865E+03  1.01438E+03 -1.02488E+03  1.19182E+03  4.78529E+02
  4.61752E+02  4.03674E+01  7.17491E+02  4.43879E+01 -3.98662E+02  6.87548E+02  1.50595E+03 -6.09839E+01
  4.15572E+01 -3.83804E+01  1.70327E+03  5.69665E+02  8.89455E+01  2.30632E+03 -4.40565E+02  2.55278E+03
 -1.46098E+03  9.01546E+02 -1.62535E+03  3.90069E+02 -2.16245E+03 -7.63718E+02 -3.48351E+01 -9.15819E+02
  3.99438E+02 -1.04519E+03  6.27245E+02 -5.60855E+02  5.21944E+02  1.20494E+03 -6.99983E+02  7.89129E+02
 -1.34822E+03  7.15004E+02 -7.99535E+02 -1.22478E+03 -8.34070E+02 -2.26011E+03  2.46893E+02 -9.57310E+02
  4.09904E+02 -4.37764E+02  6.30351E+02  6.61832E+01  1.25285E+03 -2.26082E+02  1.77572E+02  1.24766E+03
 -4.46166E+02  6.25176E+00 -7.43917E+02 -2.90934E+02  6.27924E+02 -8.94825E+02  1.54578E+03 -9.25951E+02
  1.05716E+03  9.10611E+01  2.44221E+03  5.44421E+02  1.05540E+03  1.29465E+03 -1.12994E+02  1.45072E+03
 -1.30041E+03  7.44876E+01 -1.42622E+03 -5.07284E+02 -7.66224E+02 -1.32111E+03  3.56236E+02 -3.21047E+02
  1.28920E+03 -6.36125E+02  7.21105E+02  6.01104E+02  1.27155E+02  1.36987E+03  1.41016E+02  8.97879E+02
 -1.76075E+02  1.12812E+03 -4.85486E+02 -6.64000E+01 -3.98781E+01  2.36463E+02 -8.33781E+02  6.10487E+02
 -6.98538E+02  9.36658E+02 -1.87221E+03  1.17563E+02 -1.72165E+03  1.07454E+02 -2.15952E+03 -9.90309E+02
 -7.23655E+02 -1.96447E+03  2.95920E+02 -2.76662E+03  9.92369E+02 -2.24356E+03  2.46016E+03 -9.92229E+02
  2.02819E+03 -2.39613E+02  1.17244E+03  1.40003E+03 -6.98387E+02  1.19785E+03 -6.03483E+02  1.32668E+03
 -9.40509E+02  8.57211E+02 -3.74119E+02 -4.08579E+02 -7.59936E+02  4.94606E+02 -6.66537E+02 -1.38968E+02
 -1.06233E+03 -1.07232E+02 -7.97333E+02  7.51578E+01  4.19166E+02 -6.04361E+02 -4.46320E+02 -6.13222E+02
  1.32126E+03 -4.47836E+02  2.78915E+02  1.11114E+02  1.08725E+03  1.12505E+03 -3.96108E+02  1.02863E+03
 -8.75601E+02  2.05447E+03 -1.35642E+03  9.79343E+02 -1.74064E+03 -1.50208E+02 -1.18232E+03 -1.04386E+03
 -1.16139E+03 -1.26816E+03  1.95259E+02 -1.15396E+03  2.86336E+02 -5.63817E+02  4.92556E+02 -7.64674E+01
  6.31232E+02  2.23486E+02  2.15421E+02  1.68092E+02 -5.09907E+02 -1.88836E+01  1.34853E+02 -6.81160E+01
  3.58692E+02  5.52356E+02  1.53112E+02  4.42495E+02  2.86718E+01  1.70003E+02  4.76644E+02  3.18393E+02
 -3.63167E+02  4.42099E+02 -3.23807E+02 -7.67722E+01 -4.49847E+02 -1.93834E+02  3.22740E+02 -8.81238E+02
  4.71692E+02 -7.97137E+02  2.96276E+02 -7.21938E+01  7.41834E+02 -4.67666E+02  4.25405E+02  7.78253E+02
  3.62512E+02  4.62900E+02 -1.74189E+02  5.60582E+02 -4.96229E+02  7.04591E+02 -4.50946E+02  2.17384E+02
 -7.23145E+01  1.85375E+02 -6.51216E+02  1.01967E+02 -6.16821E+02  3.85858E+02 -8.72233E+02 -1.15955E+02
 -1.06092E+03  3.82685E+02 -4.13022E+02 -8.03270E+02  4.42709E+02 -1.08365E+03  3.18156E+02 -1.93620E+02
  6.46707E+02  1.07760E+02 -5.75587E+02 -1.33282E+02  5.45534E+00  5.82493E+02 -3.99971E+02  5.25134E+02
