 $NMID ID='MM_0lb_SNR800_14hz_g55_85.RAW', FMTDAT='(8E13.5)'
 TRAMP=1., VOLUME=1. $END
  3.09743E+05  2.92241E+02  3.37366E+05  2.50685E+05  8.48215E+04  3.38029E+05 -1.32612E+05  2.51299E+05
 -1.90441E+05  8.32306E+04 -1.12135E+05 -3.26680E+04  6.51552E+02 -5.05102E+04  5.36307E+04 -6.26200E+00
  3.54410E+04  5.28580E+04 -1.67316E+04  7.56374E+04 -6.09894E+04  6.37513E+04 -8.44275E+04  3.21622E+04
 -8.15488E+04 -1.14757E+04 -5.74882E+04 -5.12591E+04 -1.50802E+04 -6.95520E+04  2.76809E+04 -4.59563E+04
  4.03365E+04  3.58671E+03  1.63050E+04  4.77942E+04 -3.44441E+04  4.73525E+04 -6.71050E+04 -2.25826E+02
 -5.38761E+04 -5.69275E+04 -7.08046E+03 -7.73264E+04  3.44991E+04 -5.54627E+04  4.84327E+04 -1.76469E+04
  4.36874E+04  1.11554E+04  3.17782E+04  2.56741E+04  1.58983E+04  2.97010E+04 -5.24340E+03  2.75293E+04
 -2.22335E+04  1.21797E+04 -1.84275E+04 -5.16879E+03  5.99742E+03 -7.55294E+03  2.25381E+04  1.27956E+04
  6.83922E+03  3.58583E+04 -3.24191E+04  3.57656E+04 -6.38665E+04  1.74425E+03 -5.70599E+04 -4.32991E+04
 -1.23751E+04 -6.35126E+04  4.04439E+04 -4.59988E+04  5.84230E+04 -2.19732E+03  3.48370E+04  3.24882E+04
 -5.96951E+03  3.67095E+04 -3.03459E+04  1.62919E+04 -3.07318E+04 -4.20041E+03 -1.73238E+04 -1.11719E+04
 -8.47919E+03 -1.35997E+04 -7.70695E+02 -1.84228E+04  7.68623E+03 -2.28911E+04  1.56382E+04 -1.33447E+04
  1.12216E+04  5.53103E+03 -8.76408E+03  1.27487E+04 -2.16240E+04 -4.81496E+03 -8.66758E+03 -3.41510E+04
  2.31686E+04 -4.40907E+04  4.89680E+04 -1.99397E+04  4.56073E+04  1.98926E+04  1.60243E+04  4.46324E+04
 -1.60546E+04  3.39522E+04 -2.57412E+04  1.99336E+03 -9.94581E+03 -2.84222E+04  2.11536E+04 -3.45103E+04
  4.16691E+04 -9.72721E+03  3.64831E+04  2.43294E+04  1.88854E+04  4.71514E+04 -7.97331E+03  5.11223E+04
 -3.24323E+04  3.46015E+04 -4.30783E+04  1.01444E+04 -4.37274E+04 -1.71578E+04 -2.42038E+04 -3.84287E+04
  7.12634E+03 -3.86976E+04  3.17162E+04 -1.46050E+04  2.97606E+04  1.09013E+04  4.20449E+03  1.93927E+04
 -1.38440E+04  8.25739E+03 -1.04359E+04 -7.73763E+03  5.81542E+03 -1.05368E+04  1.81120E+04  5.77538E+03
  1.33923E+04  2.21961E+04 -5.84407E+03  2.52841E+04 -2.23616E+04  1.22170E+04 -2.87898E+04 -4.48949E+03
 -2.13414E+04 -1.76490E+04 -8.85657E+03 -2.12309E+04  3.90939E+03 -2.06767E+04  1.66020E+04 -1.88989E+04
  2.70182E+04 -1.28385E+04  3.34938E+04  3.03922E+03  2.42273E+04  2.06364E+04  4.42520E+03  3.70328E+04
 -1.81215E+04  3.05661E+04 -2.83711E+04  1.09912E+04 -2.10232E+04 -1.06710E+04 -4.15124E+03 -1.32521E+04
  1.33748E+03 -2.54055E+03 -5.25727E+03  6.83442E+03 -1.66735E+04  4.73585E+03 -1.69128E+04 -7.50108E+03
 -1.02384E+04 -1.95799E+04  5.58795E+03 -2.37658E+04  1.57094E+04 -1.72689E+04  1.87435E+04 -1.69388E+03
  1.20716E+04  1.37709E+04 -9.85866E+02  1.91742E+04 -1.38577E+04  1.14585E+04 -1.96581E+04 -4.24234E+03
 -1.47126E+04 -1.75082E+04 -1.68753E+03 -2.36376E+04  1.10649E+04 -1.93911E+04  1.98949E+04 -9.73405E+03
  1.85088E+04  1.15119E+02  1.33403E+04  4.52153E+03  6.80388E+03  1.13615E+03  9.86662E+03 -1.67551E+03
  1.82022E+04  2.79411E+03  2.00247E+04  1.53355E+04  1.33312E+04  3.11017E+04 -2.65785E+03  3.56195E+04
 -2.04412E+04  2.85917E+04 -3.31827E+04  1.43113E+04 -3.46370E+04 -2.49682E+03 -2.86106E+04 -2.01787E+04
 -1.26925E+04 -2.87702E+04  9.98409E+03 -2.58658E+04  2.25122E+04 -1.30946E+04  1.98953E+04  5.99219E+03
  7.03816E+03  1.48070E+04 -9.30374E+03  1.31712E+04 -1.67207E+04  2.50411E+03 -1.26572E+04 -1.02601E+04
 -2.68061E+01 -1.58081E+04  8.08590E+03 -1.16967E+04  1.04921E+04 -1.36976E+03  2.50078E+03  6.93324E+03
 -6.79371E+03  2.54629E+03 -6.53861E+03 -6.08345E+03 -2.64638E+02 -1.40172E+04  1.00286E+04 -1.45719E+04
  1.75351E+04 -7.77777E+03  1.89587E+04  3.19003E+03  1.66927E+04  1.37568E+04  7.69701E+03  2.13760E+04
 -3.72036E+03  2.27860E+04 -1.48575E+04  1.42917E+04 -1.66773E+04  3.50551E+03 -1.16524E+04 -3.93183E+03
 -5.47320E+03 -5.13995E+03 -7.76031E+02  1.28198E+03 -2.87415E+03  2.61183E+03 -5.78668E+03  4.38931E+03
 -1.11626E+04 -6.45589E+02 -1.15502E+04 -9.13893E+03 -4.76852E+03 -1.55275E+04  5.04640E+03 -1.18261E+04
  1.00778E+04 -5.11173E+03  6.98799E+03  3.10803E+03  2.13303E+02  4.47850E+03 -5.19293E+03 -1.63230E+02
 -5.16114E+03 -7.80073E+03 -1.00310E+03 -1.11180E+04  6.24857E+03 -1.17226E+04  1.46563E+04 -6.24843E+03
  1.70912E+04  1.52018E+03  1.24602E+04  1.01376E+04  2.35594E+03  1.33529E+04 -7.18223E+03  1.14115E+04
 -9.58565E+03  3.59035E+03 -5.07976E+03 -2.22088E+03  1.71806E+03 -3.27151E+03  6.30565E+03 -1.16458E+03
  5.91091E+03  4.94855E+03  1.28842E+03  9.00225E+03 -6.57350E+03  8.86593E+03 -1.10704E+04  2.46845E+03
 -7.51963E+03 -6.02753E+03  3.68599E+02 -9.69482E+03  5.74966E+03 -4.94984E+03  5.92924E+03  1.87156E+03
  1.26732E+03  6.38650E+03 -5.80362E+03  7.86559E+03 -8.68076E+03  3.44558E+03 -8.79659E+03 -2.45335E+03
 -5.15745E+03 -1.04555E+04  2.48044E+03 -1.21672E+04  9.88073E+03 -7.45986E+03  1.08889E+04  2.10173E+03
  6.94623E+03  8.81104E+03 -6.64150E+02  1.08988E+04 -7.96444E+03  6.03196E+03 -8.67733E+03 -1.07527E+03
 -8.09358E+03 -7.49643E+03 -1.80347E+03 -7.84871E+03  4.54156E+03 -6.92279E+03  4.88237E+03 -3.34168E+03
  3.90718E+03  8.81183E+02 -7.47991E+02  1.65208E+03 -7.76750E+01 -1.44897E+03  9.16943E+02 -3.99429E+03
  6.94787E+03 -2.26895E+03  9.60013E+03  8.68004E+02  9.81791E+03  6.59400E+03  7.27632E+03  1.32341E+04
 -3.00078E+03  1.51335E+04 -1.25106E+04  1.11309E+04 -1.66094E+04  2.17795E+03 -1.32668E+04 -4.95771E+03
 -6.83369E+03 -1.08289E+04 -5.41381E+02 -9.06248E+03  3.53455E+03 -4.84551E+03  2.95322E+03 -3.68553E+03
  2.33686E+03 -2.06396E+03  2.77804E+03 -3.00450E+03  4.59230E+03 -2.39530E+03  5.25906E+03 -5.64094E+02
  6.88511E+03  1.73016E+03  3.05096E+03  5.93286E+03 -1.77275E+03  6.36011E+03 -7.11841E+03  5.00832E+03
 -8.95738E+03 -1.08031E+03 -4.86789E+03 -5.77235E+03 -2.10633E+02 -9.35129E+03  5.77815E+03 -9.48990E+03
  9.50633E+03 -5.54885E+03  1.15450E+04  1.00288E+03  8.26945E+03  7.90148E+03  1.48943E+03  1.06758E+04
 -4.19934E+03  9.31112E+03 -6.07611E+03  3.23921E+03 -4.01969E+03 -1.37313E+03 -1.50528E+03 -1.36344E+03
 -8.95738E+02  1.05831E+02 -1.44668E+03  2.33141E+03 -3.87234E+03  1.56393E+03 -6.53140E+03 -8.75434E+02
 -3.78833E+03 -6.26735E+03  2.35474E+02 -8.37959E+03  5.05461E+03 -7.87659E+03  7.62719E+03 -2.70982E+03
  8.07382E+03  4.33484E+03  3.80876E+03  7.20003E+03 -1.47305E+03  8.23015E+03 -5.89346E+03  5.31276E+03
 -7.53231E+03  4.46519E+02 -6.12243E+03 -5.16378E+03 -6.73119E+02 -6.56853E+03  3.17862E+03 -4.99006E+03
  5.37949E+03 -1.58823E+03  3.47850E+03  1.27825E+03  1.37614E+03  2.82378E+03  9.80702E+02  1.30337E+03
  2.23808E+03  6.52413E+02  2.10867E+03  1.38140E+03  2.39211E+03  3.40175E+03  2.02231E+03  3.81438E+03
 -1.98150E+03  6.28829E+03 -5.43862E+03  7.11607E+03 -7.28963E+03  1.49449E+03 -8.31438E+03 -2.56253E+03
 -3.95759E+03 -8.21726E+03  1.14475E+03 -8.71832E+03  4.43774E+03 -5.43177E+03  6.37370E+03 -1.30410E+03
  4.87797E+03  3.20377E+03  1.05520E+03  4.44999E+03 -1.91241E+03  3.00899E+03 -2.88907E+03 -3.18686E+02
 -1.44475E+03 -3.34553E+03  1.64488E+03 -3.35038E+03  2.95895E+03 -1.94843E+03  3.20787E+03  7.50494E+02
  1.53235E+03  1.19250E+03  1.14734E+03  1.18119E+03 -6.46988E+02  9.74302E+02  1.59191E+03 -3.52717E+02
  5.63605E+02 -1.72997E+02  3.37620E+03  1.39199E+03  1.38307E+03  4.01453E+03 -8.56660E+02  5.42521E+03
 -3.82513E+03  3.03146E+03 -4.66609E+03  6.38804E+02 -4.27979E+03 -1.34539E+03 -1.33233E+03 -2.82873E+03
  5.05375E+02 -2.60585E+03  1.89707E+03 -1.45460E+03  1.46107E+03  1.94075E+03 -1.07349E+03  2.42664E+03
 -3.12920E+03  1.43829E+03 -3.74102E+03 -1.71057E+03 -1.70326E+03 -4.47599E+03  6.79419E+02 -3.96517E+03
  1.77579E+03 -2.03374E+03  2.88639E+03 -3.29864E+02  2.54338E+03  6.44384E+02  1.89057E+02  2.10426E+03
 -1.03776E+03  1.27417E+02 -1.78662E+03 -1.01830E+03  9.97271E+02 -2.47064E+03  3.44211E+03 -2.65281E+03
  3.84932E+03  5.15868E+02  4.68535E+03  2.66667E+03  1.62271E+03  4.31852E+03 -1.58574E+03  4.47339E+03
 -3.49309E+03  1.31188E+03 -4.03231E+03 -4.11531E+02 -1.95067E+03 -3.00352E+03  7.23254E+02 -2.37728E+03
  3.11741E+03 -1.34279E+03  2.42078E+03  1.06159E+03  7.86472E+02  2.82053E+03  2.13500E+02  2.38876E+03
 -1.02385E+03  1.60693E+03 -1.02837E+03  6.22393E+02 -6.52105E+02  6.98235E+02 -1.10755E+03  1.28248E+03
 -1.24242E+03  1.58988E+03 -3.19913E+03  1.57035E+03 -4.14789E+03  4.78528E+02 -5.42653E+03 -2.26838E+03
 -2.39603E+03 -5.40729E+03  1.00303E+03 -6.81608E+03  3.22441E+03 -5.36510E+03  6.70357E+03 -2.25621E+03
  5.73250E+03  6.11303E+02  3.69602E+03  3.85471E+03 -2.11330E+02  4.22291E+03 -1.63365E+03  3.28448E+03
 -2.46847E+03  1.22885E+03 -1.39099E+03 -3.93459E+02 -5.76052E+02  2.68316E+02 -6.91886E+02 -1.46609E+02
 -1.52088E+03  1.49522E+02 -1.25187E+03 -3.99738E-01  1.74088E+02 -1.11799E+03 -3.94005E+02 -1.84602E+03
  1.84141E+03 -1.66725E+03  1.81684E+03  1.25254E+02  2.97909E+03  2.39713E+03  8.84959E+01  4.06271E+03
 -2.33959E+03  4.74976E+03 -4.29603E+03  2.67767E+03 -4.76842E+03 -7.35052E+02 -3.49599E+03 -3.16424E+03
 -1.58170E+03 -3.79158E+03  9.53920E+02 -3.74440E+03  2.44155E+03 -1.99397E+03  2.44476E+03 -1.67765E+02
  1.52914E+03  1.18121E+03 -1.19304E+02  1.29826E+03 -6.82457E+02  2.47884E+01  1.72910E+01 -1.07874E+03
  1.40754E+03 -1.26313E+02  1.27143E+03  6.45421E+02  9.50933E+02  1.39034E+03  7.09979E+02  1.82528E+03
 -1.73446E+03  1.97645E+03 -2.53274E+03  9.18698E+01 -2.21368E+03 -1.75704E+03  1.76888E+00 -3.18939E+03
  2.18138E+03 -2.47760E+03  2.46834E+03 -6.29968E+02  2.69600E+03  1.17110E+01  1.38197E+03  2.36906E+03
  1.02125E+03  2.17111E+03 -7.50118E+02  1.52645E+03 -1.43060E+03  9.96607E+02 -1.63768E+03  5.43704E+02
 -5.11538E+02 -1.37779E+02 -8.62177E+02  3.68439E+02 -1.16558E+03  4.98198E+02 -1.88451E+03 -6.37539E+02
 -2.11675E+03 -3.40109E+02 -5.08896E+02 -2.58700E+03  1.22607E+03 -3.20901E+03  2.03239E+03 -1.01826E+03
  2.37433E+03  6.48304E+02  4.75478E+02  1.64814E+03 -3.76156E+02  2.60387E+03 -1.74819E+03  1.57812E+03
