 $NMID ID='MM_0lb_SNR800_18hz_g60_47.RAW', FMTDAT='(8E13.5)'
 TRAMP=1., VOLUME=1. $END
  3.09909E+05  4.99737E+02  3.37635E+05  2.50583E+05  8.47215E+04  3.37737E+05 -1.32598E+05  2.50746E+05
 -1.89885E+05  8.29300E+04 -1.11722E+05 -3.26855E+04  1.01607E+03 -5.04353E+04  5.41020E+04 -4.32055E+01
  3.54679E+04  5.27664E+04 -1.69673E+04  7.53314E+04 -6.07566E+04  6.35667E+04 -8.40769E+04  3.18899E+04
 -8.06204E+04 -1.14694E+04 -5.69428E+04 -5.08288E+04 -1.52037E+04 -6.92891E+04  2.70772E+04 -4.54216E+04
  3.97338E+04  3.90401E+03  1.61839E+04  4.77822E+04 -3.43578E+04  4.71271E+04 -6.66687E+04 -1.53577E+02
 -5.28939E+04 -5.63677E+04 -6.47122E+03 -7.65164E+04  3.35302E+04 -5.44933E+04  4.73910E+04 -1.70180E+04
  4.28545E+04  1.11646E+04  3.14923E+04  2.50214E+04  1.58566E+04  2.89712E+04 -4.89011E+03  2.73586E+04
 -2.18425E+04  1.26339E+04 -1.86395E+04 -4.76913E+03  5.17332E+03 -7.50126E+03  2.18498E+04  1.15957E+04
  7.52042E+03  3.47145E+04 -3.16835E+04  3.49105E+04 -6.24364E+04  2.24050E+03 -5.63571E+04 -4.24024E+04
 -1.25592E+04 -6.24719E+04  3.93054E+04 -4.46962E+04  5.73709E+04 -2.33493E+03  3.34864E+04  3.17466E+04
 -6.15850E+03  3.52548E+04 -2.93515E+04  1.50197E+04 -2.90962E+04 -4.81636E+03 -1.59966E+04 -1.05166E+04
 -8.03375E+03 -1.27892E+04 -9.40478E+02 -1.76589E+04  7.23980E+03 -2.32761E+04  1.51092E+04 -1.32401E+04
  1.16331E+04  4.90495E+03 -7.48239E+03  1.29857E+04 -2.08097E+04 -3.66714E+03 -8.08611E+03 -3.25964E+04
  2.21830E+04 -4.23872E+04  4.68541E+04 -1.91336E+04  4.39675E+04  1.93831E+04  1.48724E+04  4.30909E+04
 -1.55159E+04  3.25301E+04 -2.45713E+04  1.44158E+03 -8.93030E+03 -2.72263E+04  2.09785E+04 -3.30165E+04
  3.95971E+04 -8.38767E+03  3.37887E+04  2.33248E+04  1.71462E+04  4.49028E+04 -8.06116E+03  4.84111E+04
 -3.05786E+04  3.24706E+04 -4.02316E+04  9.12935E+03 -4.07491E+04 -1.62097E+04 -2.25927E+04 -3.60972E+04
  7.35573E+03 -3.63368E+04  3.04930E+04 -1.37706E+04  2.83781E+04  1.08485E+04  3.77951E+03  1.84642E+04
 -1.30700E+04  7.87614E+03 -1.01274E+04 -7.40039E+03  5.72995E+03 -1.05534E+04  1.76237E+04  6.04018E+03
  1.28776E+04  2.20024E+04 -6.31069E+03  2.44490E+04 -2.17341E+04  1.05108E+04 -2.62825E+04 -5.43147E+03
 -1.87433E+04 -1.66820E+04 -7.46119E+03 -1.85906E+04  3.89852E+03 -1.72486E+04  1.42479E+04 -1.65800E+04
  2.39319E+04 -1.23293E+04  3.04797E+04  2.11024E+03  2.27585E+04  1.79694E+04  3.85986E+03  3.43782E+04
 -1.65715E+04  2.90813E+04 -2.70533E+04  1.01753E+04 -2.02178E+04 -1.03983E+04 -4.15225E+03 -1.35996E+04
  2.19529E+03 -3.57869E+03 -3.64633E+03  5.91148E+03 -1.46370E+04  5.22804E+03 -1.52709E+04 -5.73228E+03
 -9.09107E+03 -1.73689E+04  5.01557E+03 -2.10310E+04  1.38111E+04 -1.55146E+04  1.64066E+04 -1.67255E+03
  1.02360E+04  1.21564E+04 -9.11413E+02  1.76115E+04 -1.16592E+04  9.44594E+03 -1.71966E+04 -3.72697E+03
 -1.25874E+04 -1.55335E+04 -1.69119E+03 -2.09862E+04  9.31289E+03 -1.67897E+04  1.73829E+04 -8.39765E+03
  1.60267E+04  7.33882E+02  1.17456E+04  4.04480E+03  6.08006E+03  7.67622E+02  8.48813E+03 -1.48967E+03
  1.51806E+04  2.82275E+03  1.71042E+04  1.37732E+04  1.10966E+04  2.71798E+04 -3.27261E+03  2.99024E+04
 -1.76716E+04  2.35698E+04 -2.75457E+04  1.14510E+04 -2.85848E+04 -2.19839E+03 -2.41161E+04 -1.64626E+04
 -1.05830E+04 -2.34556E+04  7.80837E+03 -2.18114E+04  1.84888E+04 -1.15450E+04  1.71141E+04  4.34892E+03
  6.83371E+03  1.21662E+04 -7.90154E+03  1.13762E+04 -1.45595E+04  2.38110E+03 -1.12693E+04 -8.81111E+03
 -2.02073E+02 -1.36318E+04  6.75532E+03 -1.02994E+04  8.45682E+03 -1.53833E+03  1.92205E+03  5.77006E+03
 -6.18373E+03  1.76950E+03 -4.76782E+03 -5.04214E+03 -1.91938E+01 -1.14845E+04  8.18894E+03 -1.16166E+04
  1.39306E+04 -5.81621E+03  1.43672E+04  2.91299E+03  1.22759E+04  1.10923E+04  5.79235E+03  1.66779E+04
 -2.25225E+03  1.83106E+04 -1.14973E+04  1.15075E+04 -1.31029E+04  2.85970E+03 -9.42391E+03 -2.92404E+03
 -4.52418E+03 -4.22292E+03 -6.79135E+02  1.63317E+03 -2.12112E+03  2.23288E+03 -3.96922E+03  3.81831E+03
 -8.84423E+03 -7.33905E+02 -9.48892E+03 -8.06753E+03 -4.07037E+03 -1.23230E+04  3.89077E+03 -9.54768E+03
  7.93214E+03 -4.23798E+03  5.77444E+03  2.29408E+03  4.55241E+02  3.41596E+03 -4.12720E+03  1.74398E+02
 -3.89949E+03 -5.87314E+03 -7.78388E+02 -8.44314E+03  4.67128E+03 -9.18032E+03  1.14480E+04 -4.70146E+03
  1.32211E+04  1.05204E+03  9.65772E+03  7.21497E+03  1.95547E+03  9.66297E+03 -5.74894E+03  9.12947E+03
 -7.45833E+03  2.95657E+03 -4.20617E+03 -1.81245E+03  1.43892E+03 -2.19479E+03  5.40683E+03 -1.02835E+03
  4.43653E+03  3.81024E+03  1.04016E+03  7.01822E+03 -4.89726E+03  7.21472E+03 -8.54696E+03  1.62849E+03
 -5.60397E+03 -4.10473E+03  3.74260E+02 -7.52073E+03  4.26878E+03 -3.69595E+03  3.90990E+03  1.16034E+03
  8.54873E+02  4.26377E+03 -4.81438E+03  5.53725E+03 -5.87688E+03  2.62786E+03 -5.49824E+03 -1.60883E+03
 -3.55906E+03 -7.03235E+03  1.49110E+03 -8.49625E+03  7.04104E+03 -5.33166E+03  7.59646E+03  1.01278E+03
  5.18021E+03  6.24285E+03 -6.32338E+01  8.26565E+03 -5.76684E+03  4.45804E+03 -5.70747E+03 -6.59153E+02
 -5.99382E+03 -5.68233E+03 -1.32228E+03 -5.38096E+03  2.91414E+03 -5.30341E+03  3.36540E+03 -2.74278E+03
  2.85912E+03  4.61384E+02 -9.15176E+01  1.41980E+03  3.36684E+02 -5.54873E+02  1.62937E+02 -2.33597E+03
  4.57624E+03 -1.03197E+03  6.48689E+03  5.74157E+02  6.45733E+03  3.68216E+03  6.03741E+03  8.23842E+03
 -1.51422E+03  9.77386E+03 -8.70597E+03  7.68002E+03 -1.13909E+04  1.54570E+03 -8.76884E+03 -3.06214E+03
 -4.71505E+03 -7.58388E+03 -4.37313E+02 -6.06624E+03  2.51321E+03 -2.44190E+03  1.78902E+03 -2.18789E+03
  1.43350E+03 -1.56115E+03  2.09010E+03 -2.44865E+03  3.84997E+03 -1.67441E+03  4.08724E+03  5.87037E+02
  5.04762E+03  1.45009E+03  1.66262E+03  3.76941E+03 -1.65819E+03  3.48210E+03 -4.89078E+03  3.16644E+03
 -5.63235E+03 -9.79413E+02 -2.35712E+03 -3.62203E+03  6.01517E+02 -5.84789E+03  3.48871E+03 -6.22373E+03
  6.01170E+03 -3.42081E+03  7.57844E+03  5.27391E+02  5.56143E+03  5.06594E+03  1.03400E+03  6.43253E+03
 -2.50977E+03  6.27045E+03 -3.76535E+03  1.95744E+03 -2.34766E+03 -1.18494E+03 -4.39258E+02 -9.28565E+02
 -1.23291E+02  5.62479E+02 -8.98267E+02  2.15507E+03 -2.76647E+03  1.18117E+03 -4.37525E+03 -3.33189E+02
 -2.24967E+03 -4.54166E+03  8.68414E+02 -5.40892E+03  3.14916E+03 -4.89166E+03  4.19183E+03 -1.41815E+03
  4.52315E+03  2.41162E+03  1.74112E+03  4.17315E+03 -1.29700E+03  5.29730E+03 -3.28410E+03  3.09748E+03
 -4.33064E+03  3.49205E+02 -3.93518E+03 -2.91860E+03 -8.35786E+01 -3.66600E+03  2.00952E+03 -2.90927E+03
  3.10563E+03 -1.37992E+03  2.01347E+03  6.67768E+02  5.45936E+02  1.45021E+03  9.74409E+02  6.57956E+02
  1.79055E+03  5.46537E+02  1.43753E+03  9.90049E+02  1.26366E+03  2.43573E+03  1.57914E+03  1.87492E+03
 -1.18147E+03  3.34225E+03 -2.83818E+03  4.66637E+03 -3.80507E+03  1.35816E+03 -4.71788E+03 -6.29480E+02
 -1.99569E+03 -3.96207E+03  9.15598E+02 -5.15120E+03  2.14533E+03 -2.94362E+03  3.50133E+03 -7.15385E+02
  2.77332E+03  1.76222E+03  4.44795E+02  2.46873E+03 -1.05273E+03  1.42286E+03 -1.40140E+03 -2.14016E+02
 -5.91230E+02 -1.58226E+03  1.37703E+03 -1.74314E+03  1.53034E+03 -1.10518E+03  1.39792E+03  2.31722E+02
  9.32394E+02  2.47210E+02  8.28587E+02 -1.50647E+02 -3.00223E+02  9.57727E+02  1.57051E+03 -8.09015E+01
  2.41491E+02 -4.86132E+02  1.94249E+03  7.25620E+02  3.91893E+02  2.40623E+03 -1.65301E+02  3.11910E+03
 -1.97655E+03  1.51951E+03 -2.29811E+03  3.76107E+02 -2.07076E+03 -7.40138E+02 -1.57748E+02 -1.03141E+03
  3.39742E+02 -1.49663E+03  8.83123E+02 -9.36563E+02  7.07147E+02  1.36774E+03 -8.22001E+02  1.26715E+03
 -1.41092E+03  7.72171E+02 -1.43527E+03 -1.30786E+03 -9.51933E+02 -2.36538E+03  1.92816E+02 -1.85524E+03
  5.62539E+02 -7.46009E+02  8.79126E+02  4.80866E+01  1.43417E+03  1.31423E+02  4.01255E+02  1.24899E+03
 -5.18402E+02 -2.68021E+02 -1.09640E+03 -3.37399E+02  4.67614E+02 -8.74968E+02  1.94080E+03 -1.15906E+03
  1.60326E+03  1.11401E+02  3.12515E+03  5.74582E+02  1.40088E+03  1.93301E+03 -2.89921E+02  2.06054E+03
 -1.64869E+03  2.52885E+02 -1.98300E+03 -1.71270E+02 -8.41167E+02 -1.38667E+03  4.37327E+02 -6.30547E+02
  1.56283E+03 -6.59464E+02  7.65495E+02  4.77364E+02  3.64155E+02  1.43171E+03  2.94029E+01  1.09805E+03
 -5.17698E+02  1.15671E+03 -4.12533E+02  4.67225E+01  9.12770E+01  5.88759E+02 -7.78943E+02  4.35582E+02
 -5.89265E+02  1.28713E+03 -1.98087E+03  5.30078E+02 -1.93811E+03  1.68524E+02 -2.50945E+03 -1.18403E+03
 -1.17910E+03 -2.26022E+03  2.69926E+02 -2.89017E+03  1.39147E+03 -2.59990E+03  3.06634E+03 -1.24617E+03
  2.55833E+03  7.40483E+01  1.31710E+03  1.74657E+03 -3.23398E+02  1.56016E+03 -4.02590E+02  1.32749E+03
 -1.08560E+03  8.50165E+02 -2.51167E+02 -2.40615E+02 -3.12625E+02  3.82559E+02 -7.50509E+02  6.34422E+01
 -1.03866E+03 -1.79494E+02 -7.90714E+02  3.93640E+01  4.37675E+02 -3.54703E+02 -3.82472E+02 -1.19992E+03
  1.14558E+03 -7.27161E+02  4.82286E+02 -8.50060E+01  9.44093E+02  8.78663E+02 -4.45866E+02  1.55394E+03
 -9.86397E+02  2.33186E+03 -1.99785E+03  1.25685E+03 -1.71155E+03 -1.05078E+02 -1.31509E+03 -1.47591E+03
 -9.51669E+02 -1.30960E+03  4.82623E+02 -1.20362E+03  7.55662E+02 -5.00485E+02  6.53285E+02  1.92383E+02
  5.28484E+02  4.77372E+02  4.05674E+02  6.69756E+02 -2.90090E+02 -1.43999E+02 -6.55040E+01 -4.15614E+02
  8.56082E+02  2.63640E+02  6.11194E+02  3.12848E+02  1.33650E+02  1.95225E+02  2.55171E+02  4.21453E+02
 -5.98432E+02  6.03700E+02 -4.15162E+02  5.89097E+01 -9.56712E+02 -4.07405E+02  2.79315E+02 -1.42920E+03
  5.13196E+02 -5.03342E+02  6.57919E+02  4.52402E+00  1.13988E+03 -5.42694E+02  6.75283E+02  4.40695E+02
  2.67488E+02  5.22528E+02  5.43072E+01  4.76736E+02 -6.29799E+02  4.92981E+02 -7.07567E+02  7.20051E+01
  2.78271E+02 -1.31393E+02 -3.62126E+02  3.65939E+01 -7.47657E+02  1.28246E+02 -8.51921E+02 -2.12827E+02
 -8.27725E+02  1.99621E+02 -5.03199E+02 -8.60885E+02  7.44031E+02 -1.46546E+03  8.45881E+02 -2.42692E+02
  8.14986E+02  1.38529E+02  1.34502E+02  2.84237E+02 -8.06614E+01  9.13409E+02 -7.19511E+02  6.68650E+02
