 $NMID ID='MM_0lb_SNR800_11hz_g45_2.RAW', FMTDAT='(8E13.5)'
 TRAMP=1., VOLUME=1. $END
  3.09766E+05  3.40324E+02  3.37934E+05  2.50826E+05  8.47593E+04  3.38344E+05 -1.32204E+05  2.51586E+05
 -1.90266E+05  8.32281E+04 -1.11946E+05 -3.24566E+04  7.47245E+02 -5.06660E+04  5.36298E+04 -4.34507E+02
  3.55567E+04  5.31880E+04 -1.69134E+04  7.55892E+04 -6.07963E+04  6.42748E+04 -8.50324E+04  3.22938E+04
 -8.17897E+04 -1.15933E+04 -5.77717E+04 -5.18162E+04 -1.50805E+04 -7.04882E+04  2.76598E+04 -4.59606E+04
  4.02466E+04  3.58147E+03  1.67848E+04  4.80317E+04 -3.48846E+04  4.79051E+04 -6.74993E+04 -1.80712E+02
 -5.41596E+04 -5.72804E+04 -6.72350E+03 -7.78087E+04  3.44338E+04 -5.57602E+04  4.88251E+04 -1.76456E+04
  4.43811E+04  1.12889E+04  3.23826E+04  2.60374E+04  1.60906E+04  2.99940E+04 -5.82791E+03  2.75441E+04
 -2.21390E+04  1.24083E+04 -1.82899E+04 -5.48610E+03  6.33432E+03 -7.43593E+03  2.33067E+04  1.29884E+04
  7.06163E+03  3.62061E+04 -3.28082E+04  3.64425E+04 -6.44071E+04  1.89996E+03 -5.78786E+04 -4.38031E+04
 -1.26320E+04 -6.45861E+04  4.07512E+04 -4.63454E+04  5.96656E+04 -2.13533E+03  3.54756E+04  3.32520E+04
 -5.81827E+03  3.76688E+04 -3.11335E+04  1.71977E+04 -3.15381E+04 -4.01613E+03 -1.83820E+04 -1.17447E+04
 -9.13136E+03 -1.39295E+04 -4.96733E+02 -1.89379E+04  7.88337E+03 -2.28886E+04  1.57611E+04 -1.31382E+04
  1.08199E+04  5.81888E+03 -9.36308E+03  1.28018E+04 -2.22512E+04 -5.49854E+03 -8.49582E+03 -3.56478E+04
  2.38133E+04 -4.49939E+04  5.03536E+04 -2.00874E+04  4.69254E+04  2.00707E+04  1.64445E+04  4.53641E+04
 -1.66089E+04  3.47753E+04 -2.66733E+04  2.23572E+03 -1.10870E+04 -2.84765E+04  2.12547E+04 -3.55875E+04
  4.23356E+04 -1.00182E+04  3.79617E+04  2.43654E+04  1.94128E+04  4.84754E+04 -8.24454E+03  5.33019E+04
 -3.34300E+04  3.61978E+04 -4.43774E+04  1.02557E+04 -4.47402E+04 -1.79355E+04 -2.45852E+04 -4.01057E+04
  7.80908E+03 -3.96987E+04  3.27815E+04 -1.63565E+04  3.07207E+04  1.11073E+04  4.56470E+03  1.98500E+04
 -1.35840E+04  9.22337E+03 -1.04926E+04 -7.14832E+03  5.68759E+03 -1.11785E+04  1.84442E+04  5.86953E+03
  1.42885E+04  2.22083E+04 -5.46414E+03  2.57937E+04 -2.29205E+04  1.30226E+04 -2.95770E+04 -3.95106E+03
 -2.31514E+04 -1.76675E+04 -9.76694E+03 -2.28837E+04  3.90177E+03 -2.23843E+04  1.75459E+04 -2.07642E+04
  2.88150E+04 -1.38294E+04  3.51418E+04  3.93202E+03  2.55669E+04  2.20704E+04  4.23944E+03  3.87094E+04
 -1.89363E+04  3.16940E+04 -2.91415E+04  1.06362E+04 -2.17734E+04 -1.03160E+04 -4.72195E+03 -1.31969E+04
  1.15190E+03 -2.05962E+03 -6.13301E+03  7.64751E+03 -1.79916E+04  5.10548E+03 -1.82659E+04 -8.19923E+03
 -1.08152E+04 -2.10808E+04  5.78016E+03 -2.56229E+04  1.68318E+04 -1.80644E+04  2.06348E+04 -1.63708E+03
  1.29367E+04  1.48186E+04 -1.49000E+03  2.11261E+04 -1.50384E+04  1.21182E+04 -2.11466E+04 -5.09032E+03
 -1.57039E+04 -1.87292E+04 -1.80989E+03 -2.53770E+04  1.15658E+04 -2.11673E+04  2.08570E+04 -1.05712E+04
  1.95923E+04 -1.42917E+02  1.43660E+04  4.97364E+03  7.76690E+03  1.26991E+03  1.10944E+04 -2.08382E+03
  1.94567E+04  2.78846E+03  2.21969E+04  1.69211E+04  1.50498E+04  3.42312E+04 -2.91679E+03  3.93826E+04
 -2.22070E+04  3.22444E+04 -3.68905E+04  1.65661E+04 -3.88106E+04 -2.73355E+03 -3.19964E+04 -2.27846E+04
 -1.34741E+04 -3.19613E+04  1.10220E+04 -2.84666E+04  2.45374E+04 -1.43246E+04  2.18564E+04  6.36700E+03
  7.77021E+03  1.69224E+04 -1.02612E+04  1.41891E+04 -1.76988E+04  2.31154E+03 -1.38731E+04 -1.14585E+04
 -1.81486E+02 -1.74422E+04  9.11310E+03 -1.27344E+04  1.17883E+04 -1.12243E+03  2.92753E+03  7.30618E+03
 -7.79013E+03  3.34672E+03 -7.88248E+03 -6.49234E+03 -1.40249E+03 -1.57507E+04  1.10321E+04 -1.72720E+04
  1.97544E+04 -9.20913E+03  2.23046E+04  3.19998E+03  1.89150E+04  1.57527E+04  8.72106E+03  2.46191E+04
 -4.66152E+03  2.65533E+04 -1.70305E+04  1.65179E+04 -1.92308E+04  3.53694E+03 -1.33837E+04 -4.93835E+03
 -6.08449E+03 -6.42323E+03 -6.50409E+02  5.79865E+02 -3.03499E+03  2.88483E+03 -6.03834E+03  5.15154E+03
 -1.23716E+04 -1.26292E+03 -1.27901E+04 -1.06214E+04 -4.91407E+03 -1.69687E+04  5.35933E+03 -1.34115E+04
  1.12541E+04 -5.78659E+03  8.00150E+03  3.49562E+03  1.14539E+02  5.39490E+03 -6.30963E+03 -1.02684E+02
 -5.95249E+03 -8.39260E+03 -7.76113E+02 -1.28768E+04  7.54165E+03 -1.36620E+04  1.68757E+04 -7.58367E+03
  1.98347E+04  1.80812E+03  1.43626E+04  1.18685E+04  2.67705E+03  1.57294E+04 -8.23070E+03  1.33801E+04
 -1.13761E+04  4.01291E+03 -5.65777E+03 -2.67702E+03  2.20206E+03 -3.83664E+03  7.21498E+03 -1.10139E+03
  6.36594E+03  5.73325E+03  9.12367E+02  1.07459E+04 -7.79959E+03  1.04016E+04 -1.29593E+04  2.84798E+03
 -8.76771E+03 -6.75498E+03  4.46013E+02 -1.12089E+04  7.26631E+03 -5.99182E+03  7.35728E+03  2.48725E+03
  1.85115E+03  7.90249E+03 -7.02002E+03  9.35989E+03 -1.08617E+04  4.13245E+03 -1.10909E+04 -3.81811E+03
 -6.38652E+03 -1.28959E+04  3.01525E+03 -1.49275E+04  1.25810E+04 -8.73549E+03  1.33484E+04  2.25744E+03
  8.26567E+03  1.09820E+04 -8.34081E+02  1.26067E+04 -9.39069E+03  7.03958E+03 -1.01786E+04 -8.37056E+02
 -9.13463E+03 -8.58066E+03 -1.45518E+03 -1.00180E+04  5.11052E+03 -8.12900E+03  6.38996E+03 -3.29198E+03
  4.57966E+03  1.81691E+03 -6.73924E+02  1.64495E+03 -4.06259E+02 -2.28320E+03  1.95946E+03 -5.86361E+03
  9.27870E+03 -3.49104E+03  1.28776E+04  1.27385E+03  1.25757E+04  8.37589E+03  8.43463E+03  1.64916E+04
 -3.97705E+03  1.88366E+04 -1.60184E+04  1.42250E+04 -2.08937E+04  2.62191E+03 -1.69164E+04 -7.11793E+03
 -8.67427E+03 -1.36990E+04 -4.50097E+01 -1.18579E+04  4.38457E+03 -6.12086E+03  4.41028E+03 -4.09887E+03
  2.94953E+03 -2.54808E+03  3.04244E+03 -3.34162E+03  5.23846E+03 -2.83078E+03  6.51062E+03 -7.27950E+02
  8.96364E+03  2.38328E+03  4.15887E+03  7.29626E+03 -1.64836E+03  8.72363E+03 -9.42026E+03  6.91424E+03
 -1.16149E+04 -1.11168E+03 -6.84743E+03 -7.77775E+03 -8.04282E+02 -1.23133E+04  6.97792E+03 -1.27680E+04
  1.30301E+04 -6.90369E+03  1.54678E+04  1.71201E+03  1.08521E+04  1.06013E+04  2.02553E+03  1.39029E+04
 -5.58552E+03  1.15716E+04 -7.54105E+03  3.92635E+03 -5.35794E+03 -1.50556E+03 -1.99176E+03 -1.69649E+03
 -1.34505E+03  5.06751E+00 -1.71030E+03  2.49664E+03 -5.01364E+03  1.75768E+03 -8.39926E+03 -1.41414E+03
 -5.59251E+03 -8.04068E+03  1.69747E+02 -1.12682E+04  6.87223E+03 -1.04590E+04  1.11756E+04 -3.32281E+03
  1.07481E+04  5.17315E+03  5.18107E+03  9.56025E+03 -2.11990E+03  1.13668E+04 -8.20206E+03  7.01833E+03
 -1.06692E+04  7.24043E+02 -8.37369E+03 -6.46157E+03 -7.12908E+02 -9.04884E+03  4.69987E+03 -6.88702E+03
  7.01572E+03 -2.36613E+03  4.85265E+03  1.82493E+03  1.93892E+03  3.19472E+03  1.13934E+03  1.35187E+03
  2.04735E+03  8.05724E+02  2.48276E+03  1.40181E+03  3.25384E+03  4.20184E+03  3.14896E+03  5.84283E+03
 -2.23970E+03  8.86009E+03 -7.53627E+03  9.27791E+03 -1.11847E+04  1.82592E+03 -1.18521E+04 -4.45484E+03
 -5.74521E+03 -1.08754E+04  1.80964E+03 -1.23482E+04  6.73134E+03 -8.12629E+03  9.17597E+03 -1.73157E+03
  7.07035E+03  4.23211E+03  1.72295E+03  6.35368E+03 -3.21339E+03  4.08012E+03 -4.44112E+03 -4.82064E+02
 -2.19490E+03 -4.56339E+03  2.62299E+03 -4.77923E+03  4.39363E+03 -2.11084E+03  4.44806E+03  1.06151E+03
  2.58141E+03  2.05168E+03  1.47593E+03  1.48847E+03 -8.75284E+02  1.63059E+03  1.84986E+03 -6.62602E+02
  1.57150E+03 -7.06958E+02  4.57001E+03  1.80435E+03  2.46093E+03  5.93493E+03 -9.50004E+02  8.13331E+03
 -5.27768E+03  4.94898E+03 -7.23168E+03  1.84185E+03 -6.35314E+03 -2.21851E+03 -2.26677E+03 -4.07580E+03
  5.29911E+02 -4.32408E+03  2.97483E+03 -2.20687E+03  2.27610E+03  2.37619E+03 -1.32641E+03  3.49233E+03
 -4.62205E+03  2.42659E+03 -5.33093E+03 -2.63217E+03 -2.74510E+03 -6.14046E+03  7.29173E+02 -6.14863E+03
  3.57235E+03 -3.57996E+03  4.27870E+03 -2.40093E+02  3.82177E+03  1.32044E+03  5.63360E+02  3.28590E+03
 -1.93110E+03  3.87281E+02 -2.75977E+03 -2.15739E+03  1.11451E+03 -4.64411E+03  5.80770E+03 -3.66436E+03
  6.72475E+03  7.51533E+02  6.74776E+03  4.37246E+03  2.27816E+03  7.31975E+03 -2.17907E+03  6.89347E+03
 -5.93688E+03  2.43312E+03 -6.12148E+03 -7.98715E+02 -3.08987E+03 -4.18024E+03  1.07843E+03 -3.96913E+03
  4.59997E+03 -2.08688E+03  3.61620E+03  2.33692E+03  1.66445E+03  3.89418E+03 -4.54726E+02  3.63589E+03
 -1.90131E+03  2.20780E+03 -1.61952E+03  9.76999E+02 -5.84478E+02  1.34591E+03 -1.35663E+03  1.59126E+03
 -2.00905E+03  2.62312E+03 -4.91921E+03  2.32518E+03 -7.01603E+03  1.42570E+02 -7.61277E+03 -4.65951E+03
 -3.85277E+03 -9.15554E+03  2.11292E+03 -1.09959E+04  6.37095E+03 -8.10776E+03  1.01371E+04 -3.19666E+03
  9.26419E+03  1.89940E+03  5.86909E+03  6.55251E+03  1.95500E+02  7.00974E+03 -2.70430E+03  5.17538E+03
 -4.21760E+03  2.37139E+03 -2.50284E+03 -1.07282E+03 -7.05019E+02 -5.52107E+02 -9.10989E+02 -2.40578E+01
 -1.48010E+03 -4.45764E+01 -1.77454E+03 -2.28632E+02 -4.47401E+02 -1.78797E+03  2.74034E+02 -2.45278E+03
  2.86309E+03 -2.34208E+03  4.21285E+03  2.76302E+01  5.28589E+03  3.69518E+03  1.01829E+03  6.97600E+03
 -3.43944E+03  7.78843E+03 -7.74355E+03  4.71536E+03 -8.30719E+03 -4.56967E+02 -6.37775E+03 -5.12839E+03
 -2.83220E+03 -7.30405E+03  1.88018E+03 -6.69724E+03  4.30858E+03 -3.38387E+03  4.59187E+03  3.80538E+02
  2.53912E+03  2.55971E+03 -4.32153E+02  1.98762E+03 -1.28606E+03  6.54975E+01  1.60970E+02 -1.81015E+03
  2.29523E+03 -7.50955E+02  2.84691E+03  1.04781E+03  1.63731E+03  2.38199E+03  3.46369E+02  3.17806E+03
 -2.94066E+03  3.02497E+03 -4.47442E+03  6.59446E+01 -3.89902E+03 -3.24916E+03 -5.61202E+02 -5.66658E+03
  2.96706E+03 -4.57045E+03  4.86675E+03 -1.35332E+03  5.45398E+03  4.67199E+02  2.97707E+03  4.52432E+03
  6.62679E+02  4.31065E+03 -1.40419E+03  3.54557E+03 -2.81819E+03  1.75501E+03 -2.04028E+03  9.46411E+01
 -1.11977E+03 -3.84288E+01 -1.59581E+03  5.16359E+02 -2.51264E+03  9.79358E+02 -3.63154E+03 -5.03363E+02
 -3.41642E+03 -2.12299E+03 -1.16392E+03 -4.77183E+03  2.48890E+03 -4.80726E+03  3.88238E+03 -2.33205E+03
  4.67254E+03  4.21044E+02  2.22003E+03  3.05347E+03 -3.13272E+02  4.37626E+03 -3.42889E+03  2.85131E+03
