 $NMID ID='MM_0lb_SNR800_20hz_g45_46.RAW', FMTDAT='(8E13.5)'
 TRAMP=1., VOLUME=1. $END
  3.09905E+05  3.36684E+02  3.37152E+05  2.50103E+05  8.42319E+04  3.37141E+05 -1.32301E+05  2.49951E+05
 -1.89356E+05  8.22519E+04 -1.10465E+05 -3.29412E+04  1.55027E+03 -5.01222E+04  5.39952E+04  5.22506E+02
  3.49379E+04  5.29221E+04 -1.68412E+04  7.43176E+04 -6.02525E+04  6.24027E+04 -8.24146E+04  3.11454E+04
 -7.90434E+04 -1.10583E+04 -5.58424E+04 -4.97233E+04 -1.48586E+04 -6.75494E+04  2.64819E+04 -4.46082E+04
  3.86234E+04  4.09411E+03  1.52994E+04  4.67067E+04 -3.38793E+04  4.57903E+04 -6.46526E+04 -5.36700E+02
 -5.14917E+04 -5.52880E+04 -5.87709E+03 -7.44492E+04  3.30069E+04 -5.26507E+04  4.55133E+04 -1.59038E+04
  4.10548E+04  1.09267E+04  3.03468E+04  2.42540E+04  1.56974E+04  2.76962E+04 -4.54373E+03  2.64250E+04
 -2.15153E+04  1.27864E+04 -1.93473E+04 -4.18057E+03  3.79066E+03 -7.75655E+03  2.09750E+04  1.05104E+04
  7.52363E+03  3.24488E+04 -2.97289E+04  3.34558E+04 -6.04886E+04  2.19568E+03 -5.46666E+04 -4.04215E+04
 -1.22177E+04 -5.98994E+04  3.74293E+04 -4.28072E+04  5.45314E+04 -1.65268E+03  3.09917E+04  2.99368E+04
 -6.67509E+03  3.21926E+04 -2.78552E+04  1.28646E+04 -2.66690E+04 -5.47197E+03 -1.36455E+04 -9.88156E+03
 -7.02152E+03 -1.07657E+04 -1.21522E+03 -1.61460E+04  6.40011E+03 -2.25025E+04  1.48516E+04 -1.42106E+04
  1.24303E+04  3.90285E+03 -5.68786E+03  1.30033E+04 -1.87892E+04 -1.67613E+03 -8.06775E+03 -2.92196E+04
  2.01021E+04 -3.93274E+04  4.34097E+04 -1.82536E+04  4.11081E+04  1.80104E+04  1.40099E+04  4.08239E+04
 -1.51568E+04  3.03141E+04 -2.26334E+04  1.10191E+03 -7.43288E+03 -2.59596E+04  2.03467E+04 -3.02352E+04
  3.70242E+04 -6.79739E+03  2.98204E+04  2.23904E+04  1.42989E+04  4.13088E+04 -7.55755E+03  4.35352E+04
 -2.72049E+04  2.83669E+04 -3.55458E+04  7.92171E+03 -3.69770E+04 -1.43970E+04 -2.04450E+04 -3.31622E+04
  6.87243E+03 -3.29001E+04  2.81657E+04 -1.21534E+04  2.61452E+04  1.05046E+04  2.54059E+03  1.73554E+04
 -1.29319E+04  6.93141E+03 -9.21725E+03 -7.55403E+03  5.97042E+03 -9.81062E+03  1.72057E+04  6.51548E+03
  1.20748E+04  2.12801E+04 -6.87009E+03  2.30297E+04 -2.13833E+04  8.36954E+03 -2.43105E+04 -6.62394E+03
 -1.53402E+04 -1.61193E+04 -4.74578E+03 -1.55931E+04  3.55962E+03 -1.31603E+04  1.12709E+04 -1.29560E+04
  1.97594E+04 -1.13415E+04  2.68110E+04  4.95827E+02  2.05913E+04  1.53421E+04  3.86976E+03  3.11919E+04
 -1.53952E+04  2.65825E+04 -2.51503E+04  8.89114E+03 -1.92061E+04 -1.05398E+04 -3.76080E+03 -1.42356E+04
  3.00250E+03 -4.35243E+03 -1.77253E+03  4.91667E+03 -1.17369E+04  5.16782E+03 -1.20930E+04 -4.05783E+03
 -8.19958E+03 -1.43971E+04  4.20001E+03 -1.82110E+04  1.19756E+04 -1.33092E+04  1.36750E+04 -1.30175E+03
  8.59491E+03  9.96018E+03 -8.11278E+02  1.47860E+04 -9.60704E+03  8.39541E+03 -1.41112E+04 -3.18362E+03
 -1.06502E+04 -1.31127E+04 -1.34464E+03 -1.77134E+04  8.27541E+03 -1.44176E+04  1.49207E+04 -6.47619E+03
  1.36764E+04  8.73445E+02  9.75931E+03  3.83834E+03  4.84585E+03  1.57607E+02  6.96143E+03 -1.12840E+03
  1.29309E+04  2.58143E+03  1.33279E+04  1.18116E+04  7.91914E+03  2.30470E+04 -3.18150E+03  2.41824E+04
 -1.46764E+04  1.82140E+04 -2.21101E+04  8.35885E+03 -2.22836E+04 -1.72557E+03 -1.96646E+04 -1.23988E+04
 -9.57998E+03 -1.82770E+04  5.88626E+03 -1.72311E+04  1.51586E+04 -1.04495E+04  1.42617E+04  3.06814E+03
  6.22470E+03  1.00974E+04 -6.49547E+03  9.66375E+03 -1.24886E+04  2.69427E+03 -9.72670E+03 -7.37925E+03
  1.07517E+02 -1.13248E+04  5.53878E+03 -8.93275E+03  6.97409E+03 -1.16735E+03  1.05594E+03  4.16769E+03
 -4.95401E+03  9.24241E+02 -3.12106E+03 -4.18055E+03  1.09213E+03 -9.05062E+03  7.16439E+03 -8.77602E+03
  1.10520E+04 -3.97754E+03  1.03602E+04  2.57150E+03  8.70328E+03  8.35031E+03  4.36807E+03  1.21545E+04
 -1.34822E+03  1.40072E+04 -8.37356E+03  9.05912E+03 -9.71296E+03  2.78349E+03 -7.75025E+03 -1.41178E+03
 -4.31779E+03 -2.68931E+03 -6.96560E+02  1.60452E+03 -1.90545E+03  1.63044E+03 -2.92241E+03  3.40238E+03
 -7.47982E+03 -4.06250E+02 -8.08072E+03 -6.51344E+03 -3.25004E+03 -1.07077E+04  3.08629E+03 -7.72904E+03
  6.64726E+03 -3.45567E+03  4.77155E+03  1.98110E+03  8.30281E+02  2.46906E+03 -3.05462E+03 -1.08562E+02
 -2.85396E+03 -4.51108E+03 -7.33848E+02 -6.06693E+03  3.35197E+03 -6.94283E+03  8.94233E+03 -3.52362E+03
  1.02597E+04  6.10480E+02  7.68658E+03  5.26553E+03  1.70605E+03  7.35902E+03 -5.00142E+03  7.49948E+03
 -6.35605E+03  2.54958E+03 -3.48183E+03 -8.14651E+02  1.66628E+03 -1.70938E+03  4.52386E+03 -8.40944E+02
  3.82073E+03  3.10624E+03  1.00750E+03  5.94881E+03 -3.50154E+03  5.87940E+03 -7.02715E+03  1.89187E+03
 -4.25076E+03 -3.00283E+03  5.14283E+02 -5.81952E+03  3.00083E+03 -2.76001E+03  2.79728E+03  7.32250E+02
  1.69091E+02  2.33370E+03 -3.52026E+03  3.83817E+03 -3.90818E+03  2.20437E+03 -3.49284E+03 -4.99115E+02
 -2.51868E+03 -4.86632E+03  6.26833E+02 -6.01016E+03  4.83647E+03 -3.94334E+03  5.49016E+03  6.56287E+02
  4.11350E+03  4.31251E+03  6.20930E+02  6.33554E+03 -4.09166E+03  3.61236E+03 -4.49590E+03 -5.85072E+02
 -5.29667E+03 -4.47146E+03 -1.32598E+03 -4.16775E+03  2.24317E+03 -4.41914E+03  2.48554E+03 -2.90718E+03
  2.64538E+03  2.34076E+02  2.41434E+02  1.32692E+03  6.03909E+02  3.01891E+02 -1.47854E+02 -1.20827E+03
  3.04951E+03 -4.89532E+02  4.16320E+03  6.13529E+02  4.35048E+03  2.09424E+03  4.75568E+03  5.79323E+03
 -7.60614E+02  6.83011E+03 -6.60825E+03  5.25576E+03 -8.47572E+03  1.07891E+03 -6.58996E+03 -1.90751E+03
 -3.84285E+03 -5.51643E+03 -4.89034E+02 -4.28711E+03  1.94268E+03 -1.67101E+03  1.32034E+03 -1.71948E+03
  7.67361E+02 -1.39938E+03  2.04892E+03 -2.24175E+03  3.31856E+03 -1.18471E+03  3.28163E+03  5.28329E+02
  4.02988E+03  1.26038E+03  1.99446E+02  2.75478E+03 -1.46161E+03  1.85982E+03 -3.83388E+03  2.17101E+03
 -4.29808E+03 -9.19913E+02 -1.24003E+03 -2.83532E+03  4.14418E+02 -3.95324E+03  2.56476E+03 -4.42982E+03
  3.95816E+03 -2.89000E+03  5.36531E+03 -9.89772E+01  4.20058E+03  3.25129E+03  8.81526E+02  5.02023E+03
 -1.80240E+03  4.99450E+03 -2.82926E+03  1.60407E+03 -1.39410E+03 -9.02665E+02 -7.11379E+01 -4.90069E+02
 -5.76475E+02  6.04852E+02 -9.18067E+02  2.03120E+03 -2.12758E+03  1.11519E+03 -3.54281E+03 -2.00930E+02
 -1.02704E+03 -3.46556E+03  7.17810E+02 -3.84728E+03  2.08014E+03 -3.65588E+03  2.67189E+03 -9.51612E+02
  3.18456E+03  2.08264E+03  1.49538E+03  2.58705E+03 -5.15463E+02  3.68067E+03 -2.04206E+03  2.02021E+03
 -3.09703E+03  5.41859E+02 -2.88600E+03 -1.97556E+03 -2.01067E+02 -2.42048E+03  1.34256E+03 -1.94495E+03
  2.07946E+03 -1.30101E+03  1.31072E+03  1.37168E+02  2.75905E+02  1.45031E+03  7.76306E+02  2.47910E+02
  1.65279E+03  4.72814E+02  1.04248E+03  8.12743E+02  8.31927E+02  1.98094E+03  1.07163E+03  1.30189E+03
 -1.29941E+03  2.20089E+03 -1.85744E+03  3.45570E+03 -2.04610E+03  1.19755E+03 -3.14576E+03 -4.02500E+01
 -1.30615E+03 -2.93308E+03  5.43503E+02 -3.61856E+03  1.27328E+03 -2.03837E+03  2.28671E+03 -8.71637E+02
  1.87333E+03  1.66546E+03  1.79803E+02  1.71739E+03 -5.21855E+02  1.01537E+03 -7.28992E+02 -6.50266E+01
 -6.16517E+02 -1.27255E+03  9.79319E+02 -1.22195E+03  9.26206E+02 -8.93698E+02  8.13380E+02  3.98421E+02
  6.02622E+02  3.70882E+01  7.20090E+02 -4.53307E+02 -3.46846E+02  6.17261E+02  1.52996E+03 -1.83684E+02
 -3.11187E+02 -4.04000E+02  1.42001E+03  3.49920E+02  1.19380E+02  1.83866E+03 -3.58307E+02  2.12390E+03
 -1.14785E+03  7.63115E+02 -1.51606E+03  8.24334E+01 -1.72190E+03 -7.28870E+02 -7.36200E-01 -4.98723E+02
  4.06671E+02 -9.06527E+02  7.93787E+02 -5.04694E+02  4.41810E+02  1.51830E+03 -4.81829E+02  1.00620E+03
 -1.28910E+03  6.22177E+02 -9.69392E+02 -1.16240E+03 -5.73793E+02 -1.55992E+03  9.02737E+01 -1.15724E+03
  2.40016E+02 -7.60626E+01  5.09912E+02  3.29186E+02  9.45869E+02 -3.71276E+02  2.46157E+02  9.93575E+02
 -2.62456E+02 -5.85201E+01 -5.03636E+02  1.49640E+02  3.78431E+02 -2.94909E+02  1.12216E+03 -6.34742E+02
  6.36134E+02  2.66436E+02  2.38740E+03  1.06054E+02  9.38938E+02  9.52037E+02 -2.46298E+01  1.56299E+03
 -1.04962E+03 -6.38407E+00 -1.19524E+03  2.13018E+01 -5.35673E+02 -1.04782E+03  2.38918E+02 -2.03617E+02
  1.11832E+03 -7.93401E+02  3.19933E+02  7.59575E+02 -1.12731E+02  9.23382E+02  4.77182E+02  9.18376E+02
 -2.22278E+02  1.31185E+03 -2.92739E+02  2.47455E+01  9.21618E+01  2.80454E+02 -6.83358E+02  4.17250E+02
 -7.23698E+02  7.22109E+02 -1.64399E+03  3.03248E+02 -1.20640E+03  3.74157E+02 -1.86703E+03 -7.93667E+02
 -9.08662E+02 -1.80395E+03  6.47666E+02 -2.12709E+03  5.52671E+02 -1.96543E+03  2.17173E+03 -5.35835E+02
  1.96213E+03 -2.86541E+02  8.43695E+02  1.27075E+03 -7.33808E+02  8.85061E+02 -6.37668E+02  8.32788E+02
 -7.02363E+02  5.30254E+02 -3.56887E+02 -4.02228E+02 -3.55603E+02  1.92874E+02 -4.56175E+02 -7.77493E+01
 -8.81804E+02  2.40885E+02 -7.09458E+02  1.68361E+02  3.36317E+02 -5.64577E+02 -3.02959E+02 -8.68888E+02
  6.72033E+02 -2.52810E+02  4.34939E+01  2.95016E+01  7.73786E+02  6.10423E+02 -4.58979E+02  1.10362E+03
 -7.69518E+02  1.84470E+03 -1.19226E+03  9.29217E+02 -1.46211E+03 -1.85964E+02 -9.66007E+02 -9.90734E+02
 -8.46637E+02 -7.50073E+02  8.60369E+01 -7.65993E+02  2.85459E+02 -2.71121E+02  2.66268E+02 -1.38556E+00
  4.93352E+02  1.39751E+02  1.56895E+01  3.59506E+02 -2.42204E+02 -1.37993E+02 -3.37853E+02 -2.07710E+02
  4.22375E+02  4.89942E+02  1.09383E+02  1.94111E+02 -3.45270E+02  3.97123E+02  3.04105E+02  9.65919E+01
 -2.71948E+02  2.21360E+02 -1.66661E+02  2.34320E+01 -5.48743E+02 -2.52834E+02  7.97656E+01 -9.19817E+02
  3.15764E+02 -5.45117E+02  3.01799E+02  5.14329E+01  4.30996E+02 -7.51299E+02  4.21620E+02  4.90546E+02
  1.95776E+02  2.62808E+02  9.91114E+01  1.96764E+02 -4.14183E+02  2.48256E+02 -1.43201E+02 -9.97736E+01
 -2.27320E+01 -1.19662E+02 -6.26072E+02  1.20140E+02 -4.69693E+02 -8.54146E+01 -6.02335E+02 -9.98436E+01
 -8.57230E+02  4.84310E+02 -1.64034E+02 -7.69182E+02  9.56177E+02 -1.14060E+03  7.56793E+02 -2.73244E+02
  4.72223E+02  1.53408E+02 -4.82901E+02 -7.29620E+01  8.61567E+00  7.04200E+02 -1.18668E+02  5.86899E+02
