 $NMID ID='MM_0lb_SNR800_17hz_g60_33.RAW', FMTDAT='(8E13.5)'
 TRAMP=1., VOLUME=1. $END
  3.09549E+05  4.04973E+02  3.37780E+05  2.50498E+05  8.47167E+04  3.37896E+05 -1.33009E+05  2.50623E+05
 -1.89993E+05  8.33554E+04 -1.11849E+05 -3.25788E+04  8.45979E+02 -5.07771E+04  5.36213E+04  1.05930E+01
  3.51726E+04  5.26875E+04 -1.67568E+04  7.56547E+04 -6.07994E+04  6.35364E+04 -8.41469E+04  3.20580E+04
 -8.08750E+04 -1.13135E+04 -5.69709E+04 -5.13695E+04 -1.52700E+04 -6.93261E+04  2.75755E+04 -4.58917E+04
  4.00748E+04  3.69947E+03  1.62446E+04  4.77151E+04 -3.37248E+04  4.69774E+04 -6.63036E+04 -1.36527E+02
 -5.31833E+04 -5.68767E+04 -6.79637E+03 -7.71929E+04  3.42456E+04 -5.45448E+04  4.77976E+04 -1.71198E+04
  4.32355E+04  1.11928E+04  3.17574E+04  2.53469E+04  1.61663E+04  2.93341E+04 -5.39557E+03  2.69567E+04
 -2.19068E+04  1.26198E+04 -1.82429E+04 -4.78298E+03  5.40749E+03 -7.62328E+03  2.22109E+04  1.22957E+04
  7.13980E+03  3.48420E+04 -3.18892E+04  3.53140E+04 -6.30370E+04  2.49913E+03 -5.65364E+04 -4.24001E+04
 -1.23851E+04 -6.26556E+04  3.94727E+04 -4.49695E+04  5.78159E+04 -2.25609E+03  3.37587E+04  3.22036E+04
 -5.98542E+03  3.54883E+04 -2.98101E+04  1.55748E+04 -3.00680E+04 -4.81911E+03 -1.63979E+04 -1.07743E+04
 -8.15284E+03 -1.29622E+04 -7.72663E+02 -1.76441E+04  7.41179E+03 -2.30794E+04  1.56564E+04 -1.34720E+04
  1.14936E+04  5.09063E+03 -7.92831E+03  1.30520E+04 -2.09125E+04 -4.03010E+03 -8.32059E+03 -3.32837E+04
  2.24935E+04 -4.32059E+04  4.77443E+04 -1.94641E+04  4.43906E+04  1.89189E+04  1.54592E+04  4.38301E+04
 -1.57427E+04  3.28860E+04 -2.49853E+04  1.62707E+03 -9.58737E+03 -2.73802E+04  2.06870E+04 -3.32961E+04
  4.03704E+04 -8.46294E+03  3.47017E+04  2.32865E+04  1.76840E+04  4.57811E+04 -7.89756E+03  4.91180E+04
 -3.07883E+04  3.29417E+04 -4.11651E+04  9.21792E+03 -4.13592E+04 -1.60040E+04 -2.29469E+04 -3.70227E+04
  7.33240E+03 -3.68628E+04  3.08263E+04 -1.43793E+04  2.85904E+04  1.06270E+04  3.86866E+03  1.90521E+04
 -1.32114E+04  8.20334E+03 -1.02059E+04 -7.82536E+03  5.80729E+03 -1.05801E+04  1.77382E+04  6.07932E+03
  1.31872E+04  2.20312E+04 -6.33970E+03  2.47076E+04 -2.20547E+04  1.07858E+04 -2.71057E+04 -5.27772E+03
 -1.97924E+04 -1.71394E+04 -7.41639E+03 -1.97765E+04  4.01847E+03 -1.82872E+04  1.49197E+04 -1.72637E+04
  2.47671E+04 -1.23542E+04  3.12045E+04  2.30405E+03  2.32732E+04  1.91179E+04  4.22145E+03  3.51210E+04
 -1.72497E+04  2.95242E+04 -2.75295E+04  1.02484E+04 -2.07818E+04 -1.03280E+04 -4.35690E+03 -1.35432E+04
  2.13574E+03 -3.47497E+03 -4.26559E+03  6.08525E+03 -1.55786E+04  5.31645E+03 -1.51533E+04 -6.35628E+03
 -9.63900E+03 -1.77944E+04  5.25907E+03 -2.22079E+04  1.46774E+04 -1.58240E+04  1.70925E+04 -1.42706E+03
  1.06145E+04  1.24517E+04 -1.13537E+03  1.81586E+04 -1.22437E+04  1.01258E+04 -1.79399E+04 -4.05262E+03
 -1.31604E+04 -1.64610E+04 -1.65969E+03 -2.18521E+04  9.69422E+03 -1.75953E+04  1.78169E+04 -8.65751E+03
  1.66669E+04  7.19641E+02  1.22006E+04  4.20618E+03  6.07306E+03  7.07037E+02  8.83234E+03 -1.52522E+03
  1.62876E+04  2.77482E+03  1.79418E+04  1.43583E+04  1.16796E+04  2.83856E+04 -2.90223E+03  3.14953E+04
 -1.82441E+04  2.50404E+04 -2.92879E+04  1.25076E+04 -3.03627E+04 -2.13614E+03 -2.52480E+04 -1.75094E+04
 -1.13336E+04 -2.49626E+04  8.50916E+03 -2.25200E+04  1.99024E+04 -1.21696E+04  1.80203E+04  4.55768E+03
  6.90925E+03  1.33549E+04 -8.38019E+03  1.21151E+04 -1.53896E+04  2.75908E+03 -1.16177E+04 -9.24256E+03
 -2.91152E+02 -1.42413E+04  7.29128E+03 -1.07397E+04  9.21209E+03 -1.47599E+03  1.99559E+03  5.92829E+03
 -6.65930E+03  2.22805E+03 -5.09007E+03 -5.13032E+03 -6.40414E+01 -1.21875E+04  8.81410E+03 -1.26097E+04
  1.51215E+04 -6.28964E+03  1.53365E+04  2.94463E+03  1.32017E+04  1.17303E+04  6.36862E+03  1.78172E+04
 -2.85980E+03  1.97300E+04 -1.22769E+04  1.22570E+04 -1.41387E+04  3.37308E+03 -1.01765E+04 -2.83351E+03
 -5.37276E+03 -4.17335E+03 -8.94278E+02  1.03156E+03 -1.95497E+03  2.47419E+03 -4.60729E+03  4.18821E+03
 -9.34650E+03 -8.53920E+02 -9.92165E+03 -8.33074E+03 -4.14795E+03 -1.31174E+04  4.25992E+03 -1.03267E+04
  8.42025E+03 -4.34634E+03  6.26043E+03  2.25270E+03  1.56760E+02  3.68966E+03 -4.53724E+03 -1.97033E+02
 -4.38628E+03 -6.37993E+03 -5.84879E+02 -9.01094E+03  4.74340E+03 -9.71919E+03  1.21243E+04 -5.02649E+03
  1.38112E+04  8.12643E+02  1.06047E+04  8.12993E+03  2.19730E+03  1.08073E+04 -6.28037E+03  9.55267E+03
 -8.33549E+03  3.21250E+03 -4.07565E+03 -1.43562E+03  1.44176E+03 -2.54561E+03  5.29576E+03 -1.08102E+03
  4.88419E+03  4.14815E+03  1.04607E+03  7.59145E+03 -5.15999E+03  7.61558E+03 -9.10303E+03  2.05406E+03
 -6.06982E+03 -4.69752E+03  1.22307E+02 -8.03163E+03  4.82232E+03 -3.92837E+03  4.75889E+03  1.53606E+03
  8.56778E+02  4.31053E+03 -5.09239E+03  6.23841E+03 -6.49684E+03  2.96759E+03 -6.23470E+03 -1.91876E+03
 -4.02975E+03 -7.85478E+03  2.00773E+03 -8.91744E+03  7.93379E+03 -5.61343E+03  8.25075E+03  1.24315E+03
  5.58052E+03  6.92315E+03 -3.68325E+02  8.92190E+03 -6.43287E+03  5.43379E+03 -6.62895E+03 -5.48887E+02
 -6.78561E+03 -5.73463E+03 -1.48086E+03 -6.43105E+03  3.29081E+03 -5.72381E+03  3.99376E+03 -2.88081E+03
  3.18547E+03  8.87392E+02 -1.75501E+02  1.17415E+03  5.29032E+02 -9.16007E+02  6.82573E+02 -2.57370E+03
  5.27895E+03 -1.40294E+03  7.00975E+03  8.22055E+02  7.42769E+03  4.53932E+03  6.14061E+03  9.69987E+03
 -1.83055E+03  1.08919E+04 -9.68677E+03  8.18346E+03 -1.25752E+04  1.25325E+03 -9.79619E+03 -3.72540E+03
 -5.33781E+03 -8.06768E+03 -1.28336E+02 -6.59960E+03  2.93700E+03 -3.29361E+03  2.39646E+03 -2.54961E+03
  1.59346E+03 -1.78674E+03  2.63612E+03 -2.80687E+03  3.78130E+03 -1.55211E+03  4.54561E+03  9.42836E+01
  5.56109E+03  1.27227E+03  2.11156E+03  4.22993E+03 -1.50529E+03  4.20524E+03 -5.49153E+03  3.34457E+03
 -6.55912E+03 -9.19966E+02 -2.71875E+03 -4.39742E+03  2.16890E+02 -6.57333E+03  3.91346E+03 -6.86699E+03
  6.64528E+03 -4.05649E+03  8.57254E+03  6.64136E+02  6.17634E+03  5.42531E+03  1.43410E+03  7.80072E+03
 -3.09169E+03  7.17399E+03 -4.28947E+03  2.09349E+03 -2.55266E+03 -1.38915E+03 -1.00320E+03 -7.13708E+02
 -7.07705E+02  1.46706E+02 -1.26878E+03  2.23914E+03 -3.20381E+03  1.31772E+03 -4.81627E+03 -6.17819E+02
 -2.14594E+03 -5.25663E+03  8.94128E+02 -6.04489E+03  3.44191E+03 -5.45470E+03  5.10282E+03 -1.39232E+03
  5.41087E+03  2.98064E+03  2.59740E+03  4.85164E+03 -1.07146E+03  6.17544E+03 -3.65917E+03  3.38410E+03
 -4.98965E+03  3.95934E+02 -4.29722E+03 -3.08797E+03 -3.76735E+02 -4.18359E+03  2.18051E+03 -3.38798E+03
  3.45229E+03 -1.46247E+03  2.31460E+03  8.03842E+02  7.09425E+02  1.96744E+03  7.70340E+02  4.50651E+02
  1.66971E+03  4.22299E+02  1.41412E+03  1.15937E+03  1.59019E+03  2.44148E+03  1.82410E+03  2.37054E+03
 -1.50457E+03  3.98201E+03 -3.55288E+03  4.93672E+03 -4.63067E+03  1.39451E+03 -5.46384E+03 -9.85713E+02
 -2.30008E+03 -4.98064E+03  6.26713E+02 -6.06200E+03  2.62411E+03 -3.51607E+03  4.15178E+03 -1.31537E+03
  3.27629E+03  2.30716E+03  8.00162E+02  2.94043E+03 -8.00775E+02  1.38151E+03 -1.49276E+03 -2.78445E+02
 -5.83564E+02 -2.12244E+03  1.45285E+03 -2.12514E+03  1.85351E+03 -1.14858E+03  1.96020E+03  5.29970E+02
  1.17138E+03  5.45593E+02  5.12033E+02  1.28749E+02 -4.33360E+02  6.17375E+02  1.67537E+03  3.95596E+01
  2.36337E+02  2.76303E+01  2.20119E+03  9.11193E+02  6.89711E+02  3.11848E+03 -5.71246E+02  3.52442E+03
 -2.27271E+03  1.33710E+03 -3.12123E+03  4.93380E+02 -2.83056E+03 -1.19820E+03 -5.54353E+02 -1.47443E+03
  2.43076E+02 -1.67274E+03  1.12705E+03 -1.05859E+03  1.07878E+03  1.64921E+03 -7.12105E+02  1.48246E+03
 -2.02682E+03  9.35986E+02 -1.80287E+03 -1.76547E+03 -1.04051E+03 -2.54802E+03  3.11657E+02 -1.93767E+03
  6.56060E+02 -1.02329E+03  1.24768E+03 -1.80372E+01  1.64350E+03 -2.01914E+02  4.20669E+02  1.39455E+03
 -6.98314E+02  3.12351E+02 -9.41708E+02 -3.53999E+02  5.00130E+02 -1.38960E+03  2.41118E+03 -1.09847E+03
  2.06412E+03  8.21979E+01  3.29830E+03  8.30001E+02  1.46909E+03  2.57343E+03 -5.04715E+02  2.50012E+03
 -2.25381E+03  4.91502E+02 -2.14823E+03 -3.17888E+02 -1.27510E+03 -1.96567E+03  2.97455E+02 -9.45127E+02
  2.00163E+03 -8.14054E+02  1.26387E+03  7.25161E+02  5.62832E+01  1.31944E+03  1.61501E+02  1.30271E+03
 -6.47703E+02  1.39662E+03 -4.77906E+02  2.86366E+02 -1.05327E+02  6.76969E+02 -6.21658E+02  6.58326E+02
 -8.54162E+02  1.36993E+03 -2.12756E+03  6.65359E+02 -2.25570E+03  1.34037E+02 -3.14546E+03 -1.53864E+03
 -1.62176E+03 -3.04168E+03  4.60797E+02 -3.76674E+03  1.42676E+03 -3.04424E+03  3.35012E+03 -1.34715E+03
  3.35378E+03  1.22115E+02  1.64592E+03  2.30481E+03 -4.05435E+02  2.33468E+03 -8.34162E+02  1.56236E+03
 -1.63599E+03  1.12299E+03 -8.37898E+02 -3.30882E+02 -3.64180E+02  8.98329E+01 -8.17144E+02 -1.82448E+02
 -1.23204E+03 -4.40421E+01 -9.52316E+02 -4.29707E+01 -1.76686E+01 -6.25337E+02 -2.49503E+02 -1.01897E+03
  1.53567E+03 -3.58422E+02  1.12332E+03  1.20660E+01  1.40994E+03  1.35136E+03 -2.17192E+02  2.14064E+03
 -1.18259E+03  2.79859E+03 -2.11503E+03  1.51377E+03 -2.19871E+03 -1.60372E+02 -1.49754E+03 -1.57029E+03
 -9.46166E+02 -1.76684E+03  4.08575E+02 -1.49193E+03  8.97756E+02 -8.71182E+02  9.36123E+02  3.88574E+02
  6.11354E+02  2.09381E+02  1.43976E+02  6.53296E+02 -3.83564E+02 -6.21499E+01  8.76143E+01 -1.93864E+02
  3.65111E+02  1.35629E+02  2.67516E+02  5.68222E+02  3.51189E+02  8.82036E+02  3.29606E+02  7.22270E+02
 -9.04119E+02  7.48047E+02 -1.16964E+03 -4.80698E+01 -1.01520E+03 -7.24784E+02 -3.20750E+02 -1.53911E+03
  8.70447E+02 -1.09260E+03  7.23313E+02 -9.91984E+01  1.56301E+03 -4.72874E+02  6.99001E+02  1.04282E+03
  5.82961E+02  5.88586E+02 -2.10101E+02  6.29907E+02 -7.48541E+02  3.82294E+02 -3.56117E+02  1.84230E+02
 -1.32825E+01  8.40413E+01 -7.57678E+02  2.82333E+02 -8.22858E+02  1.94156E+02 -1.00696E+03 -4.31811E+02
 -1.43689E+03  6.59667E+01 -5.77925E+02 -1.00683E+03  6.74047E+02 -1.81553E+03  1.28086E+03 -6.65637E+02
  9.36861E+02  3.35762E+02 -6.79327E+01  5.92598E+02 -8.68291E+01  8.63607E+02 -5.70817E+02  8.60681E+02
