 $NMID ID='MM_0lb_SNR800_12hz_g40_92.RAW', FMTDAT='(8E13.5)'
 TRAMP=1., VOLUME=1. $END
  3.09774E+05  2.06655E+02  3.37610E+05  2.50307E+05  8.46776E+04  3.38066E+05 -1.32159E+05  2.51451E+05
 -1.90433E+05  8.31364E+04 -1.11903E+05 -3.26301E+04  9.52228E+02 -5.06333E+04  5.39300E+04 -1.05214E+02
  3.55380E+04  5.28432E+04 -1.68097E+04  7.55750E+04 -6.09899E+04  6.35653E+04 -8.41457E+04  3.21347E+04
 -8.13134E+04 -1.13851E+04 -5.72530E+04 -5.13954E+04 -1.47183E+04 -7.00300E+04  2.74145E+04 -4.56667E+04
  3.98599E+04  4.03777E+03  1.61302E+04  4.80078E+04 -3.42397E+04  4.76074E+04 -6.69502E+04 -3.36996E+01
 -5.35250E+04 -5.66984E+04 -6.77140E+03 -7.74742E+04  3.40448E+04 -5.55903E+04  4.81379E+04 -1.75260E+04
  4.37303E+04  1.13834E+04  3.21025E+04  2.55805E+04  1.57123E+04  2.96460E+04 -4.92125E+03  2.71875E+04
 -2.20650E+04  1.26024E+04 -1.82441E+04 -5.29484E+03  5.38706E+03 -7.75422E+03  2.26443E+04  1.23227E+04
  7.30537E+03  3.56815E+04 -3.23735E+04  3.55983E+04 -6.37436E+04  2.12407E+03 -5.69219E+04 -4.27784E+04
 -1.24024E+04 -6.39600E+04  4.01683E+04 -4.56906E+04  5.83984E+04 -2.51527E+03  3.42142E+04  3.27310E+04
 -6.12651E+03  3.66040E+04 -3.05124E+04  1.62402E+04 -3.09858E+04 -4.07415E+03 -1.71673E+04 -1.11924E+04
 -8.55222E+03 -1.35110E+04 -6.41610E+02 -1.85000E+04  7.83082E+03 -2.30202E+04  1.56700E+04 -1.31196E+04
  1.11789E+04  5.37360E+03 -8.97413E+03  1.29994E+04 -2.15512E+04 -4.66331E+03 -7.99445E+03 -3.44853E+04
  2.28531E+04 -4.41718E+04  4.88655E+04 -1.96619E+04  4.56312E+04  1.96672E+04  1.63265E+04  4.47712E+04
 -1.62724E+04  3.37899E+04 -2.56366E+04  2.03260E+03 -1.03589E+04 -2.80342E+04  2.14462E+04 -3.41869E+04
  4.19398E+04 -9.57480E+03  3.63832E+04  2.40062E+04  1.87441E+04  4.70582E+04 -8.04989E+03  5.13067E+04
 -3.24338E+04  3.45713E+04 -4.28770E+04  9.80376E+03 -4.33648E+04 -1.68881E+04 -2.40921E+04 -3.87728E+04
  7.47552E+03 -3.88227E+04  3.19599E+04 -1.50549E+04  3.03080E+04  1.06246E+04  4.29979E+03  1.94070E+04
 -1.34816E+04  8.63143E+03 -1.05616E+04 -7.58432E+03  5.56148E+03 -1.10976E+04  1.82979E+04  6.04866E+03
  1.39561E+04  2.22236E+04 -5.94803E+03  2.53048E+04 -2.22870E+04  1.18713E+04 -2.89852E+04 -4.34532E+03
 -2.13623E+04 -1.76822E+04 -9.43854E+03 -2.13647E+04  4.01628E+03 -2.06964E+04  1.64418E+04 -1.86760E+04
  2.77692E+04 -1.31642E+04  3.38303E+04  3.05494E+03  2.47501E+04  2.09992E+04  4.49694E+03  3.73798E+04
 -1.81536E+04  3.12999E+04 -2.84500E+04  1.06716E+04 -2.07450E+04 -1.02468E+04 -4.73532E+03 -1.35053E+04
  1.85356E+03 -2.38805E+03 -5.36243E+03  7.15477E+03 -1.71704E+04  5.29249E+03 -1.73881E+04 -7.47779E+03
 -1.06302E+04 -2.00057E+04  5.33970E+03 -2.42404E+04  1.58460E+04 -1.70377E+04  1.87071E+04 -1.37936E+03
  1.20765E+04  1.37038E+04 -1.07281E+03  1.98280E+04 -1.36176E+04  1.13495E+04 -2.00659E+04 -4.38698E+03
 -1.47547E+04 -1.78040E+04 -1.99975E+03 -2.45794E+04  1.09451E+04 -1.97938E+04  2.01143E+04 -9.72779E+03
  1.86120E+04  4.97213E+01  1.32672E+04  4.07012E+03  7.09827E+03  1.22144E+03  1.00918E+04 -1.69038E+03
  1.86328E+04  2.80338E+03  2.07224E+04  1.59469E+04  1.36785E+04  3.20823E+04 -2.77739E+03  3.61260E+04
 -2.10290E+04  2.94642E+04 -3.41064E+04  1.47068E+04 -3.58611E+04 -2.60855E+03 -2.96112E+04 -2.11011E+04
 -1.28505E+04 -2.94344E+04  1.03770E+04 -2.66682E+04  2.25917E+04 -1.29020E+04  2.02037E+04  5.81446E+03
  7.50760E+03  1.50586E+04 -9.67088E+03  1.34532E+04 -1.72168E+04  2.56070E+03 -1.29529E+04 -1.05560E+04
 -3.10572E+02 -1.63734E+04  8.75434E+03 -1.21315E+04  1.06998E+04 -1.44654E+03  2.52864E+03  7.11733E+03
 -7.57296E+03  3.07884E+03 -6.68359E+03 -5.74554E+03 -7.54398E+02 -1.46193E+04  9.82620E+03 -1.51356E+04
  1.79773E+04 -8.14383E+03  1.96487E+04  3.01413E+03  1.69545E+04  1.45291E+04  8.31198E+03  2.21473E+04
 -3.93391E+03  2.40186E+04 -1.58419E+04  1.50696E+04 -1.77316E+04  3.45051E+03 -1.23601E+04 -3.82321E+03
 -5.36785E+03 -5.54258E+03 -8.53136E+02  7.67645E+02 -2.27895E+03  2.89488E+03 -5.51756E+03  4.80898E+03
 -1.12283E+04 -4.35059E+02 -1.20192E+04 -9.64334E+03 -4.63917E+03 -1.56053E+04  4.87126E+03 -1.22300E+04
  1.05051E+04 -5.05027E+03  7.33302E+03  3.38860E+03  3.89827E+01  4.88203E+03 -5.41948E+03 -2.19830E+02
 -5.41226E+03 -8.28399E+03 -7.21660E+02 -1.16382E+04  6.49984E+03 -1.27212E+04  1.53404E+04 -6.68869E+03
  1.79242E+04  1.57605E+03  1.33518E+04  1.03986E+04  2.56417E+03  1.43756E+04 -7.38577E+03  1.20978E+04
 -9.71399E+03  3.86171E+03 -5.49750E+03 -2.70379E+03  1.87118E+03 -3.30803E+03  6.87566E+03 -1.24130E+03
  6.03481E+03  5.29646E+03  1.04630E+03  9.74863E+03 -7.02987E+03  9.32165E+03 -1.21324E+04  2.79539E+03
 -7.84538E+03 -6.32910E+03  5.35909E+02 -1.02336E+04  6.22443E+03 -5.16799E+03  6.85117E+03  1.98591E+03
  1.42023E+03  6.68138E+03 -6.53146E+03  8.30688E+03 -9.52931E+03  3.91576E+03 -9.36015E+03 -3.08653E+03
 -5.51443E+03 -1.11850E+04  2.39952E+03 -1.27217E+04  1.09641E+04 -7.68050E+03  1.18439E+04  2.16017E+03
  7.42784E+03  9.57874E+03 -6.52239E+02  1.17963E+04 -8.27628E+03  6.69650E+03 -8.91540E+03 -4.93225E+02
 -8.41394E+03 -7.50350E+03 -1.65837E+03 -8.36784E+03  4.51159E+03 -7.33865E+03  5.47817E+03 -3.36201E+03
  4.00848E+03  1.16356E+03 -5.52014E+02  1.67558E+03 -2.38466E+01 -2.03449E+03  1.48634E+03 -4.27351E+03
  7.62652E+03 -2.71626E+03  1.09627E+04  8.88360E+02  1.07798E+04  7.19699E+03  8.18682E+03  1.42554E+04
 -3.23309E+03  1.66659E+04 -1.40787E+04  1.24651E+04 -1.80940E+04  2.64749E+03 -1.48591E+04 -6.05030E+03
 -7.46972E+03 -1.18973E+04 -1.24310E+02 -1.00214E+04  3.56066E+03 -5.16289E+03  3.62714E+03 -3.63768E+03
  2.78157E+03 -2.53931E+03  2.81512E+03 -3.03740E+03  4.61903E+03 -2.39000E+03  5.92848E+03 -8.12179E+02
  7.51159E+03  1.97330E+03  3.56504E+03  6.67855E+03 -1.65662E+03  7.33543E+03 -7.93626E+03  5.97647E+03
 -1.02501E+04 -1.50021E+03 -5.80461E+03 -7.07752E+03 -4.33731E+02 -1.05194E+04  5.97588E+03 -1.08040E+04
  1.08231E+04 -5.90416E+03  1.32912E+04  1.52398E+03  9.30060E+03  9.26386E+03  1.74392E+03  1.23801E+04
 -4.77805E+03  1.02034E+04 -7.19752E+03  3.75020E+03 -4.46637E+03 -1.10771E+03 -2.20654E+03 -1.47288E+03
 -1.24568E+03  1.06264E+02 -1.85917E+03  2.78148E+03 -4.31014E+03  1.77164E+03 -7.09419E+03 -1.30938E+03
 -4.27306E+03 -7.24188E+03  6.25302E+02 -9.97384E+03  6.06287E+03 -8.91639E+03  9.16758E+03 -2.64417E+03
  9.63776E+03  4.57186E+03  4.95436E+03  8.49990E+03 -1.73862E+03  9.65368E+03 -6.64922E+03  5.92413E+03
 -9.09993E+03  8.62283E+02 -6.95541E+03 -5.23445E+03 -8.52950E+02 -7.90222E+03  3.85311E+03 -6.02590E+03
  5.79864E+03 -2.02390E+03  4.01055E+03  1.55889E+03  1.30033E+03  3.10306E+03  1.16696E+03  1.25780E+03
  2.46375E+03  6.36471E+02  2.47004E+03  1.12114E+03  2.83797E+03  3.72189E+03  2.45801E+03  4.37872E+03
 -2.03887E+03  7.41289E+03 -6.33221E+03  7.95292E+03 -9.16123E+03  1.70006E+03 -1.02226E+04 -3.57302E+03
 -4.65315E+03 -9.14483E+03  1.28704E+03 -1.08630E+04  5.43697E+03 -6.55031E+03  7.57665E+03 -1.89602E+03
  6.21539E+03  3.60110E+03  1.17996E+03  5.37475E+03 -2.37884E+03  3.43560E+03 -3.52694E+03 -8.22998E+02
 -1.44526E+03 -3.71914E+03  2.62276E+03 -3.79283E+03  3.81732E+03 -1.88208E+03  3.69968E+03  1.07752E+03
  2.07142E+03  1.57816E+03  1.16664E+03  1.15473E+03 -3.17334E+02  1.32891E+03  1.76590E+03 -8.55846E+02
  1.33694E+03 -7.89368E+02  3.75706E+03  1.66600E+03  2.04113E+03  5.32053E+03 -9.45236E+02  6.81036E+03
 -4.56767E+03  4.29302E+03 -6.13728E+03  1.27988E+03 -5.27267E+03 -1.99857E+03 -2.02279E+03 -2.93407E+03
  2.09864E+02 -3.69379E+03  2.39432E+03 -1.70497E+03  1.69248E+03  1.95018E+03 -1.07093E+03  2.87032E+03
 -3.64274E+03  1.90605E+03 -4.00891E+03 -2.70186E+03 -2.31638E+03 -5.43552E+03  5.71727E+02 -4.41127E+03
  2.80258E+03 -2.77041E+03  3.71656E+03 -4.34117E+02  3.14158E+03  1.11479E+03  6.29653E+02  2.86561E+03
 -1.59291E+03  8.55549E+02 -2.15117E+03 -1.70134E+03  1.10811E+03 -3.62271E+03  4.55775E+03 -3.07917E+03
  5.01955E+03  5.40334E+02  6.25150E+03  3.63130E+03  2.02104E+03  5.68909E+03 -1.93395E+03  5.64740E+03
 -4.98751E+03  2.09381E+03 -4.84896E+03 -5.62618E+02 -2.61263E+03 -4.12369E+03  9.41172E+02 -3.48555E+03
  3.74474E+03 -1.68333E+03  3.03284E+03  1.55191E+03  7.29727E+02  3.67626E+03 -6.51999E+02  2.95192E+03
 -1.64069E+03  2.40036E+03 -1.30053E+03  7.57325E+02 -2.67108E+02  7.32189E+02 -1.09942E+03  1.23411E+03
 -1.91989E+03  2.27827E+03 -3.86576E+03  1.69506E+03 -5.95706E+03  1.92107E+02 -6.66270E+03 -3.72167E+03
 -3.58502E+03 -7.76418E+03  1.36764E+03 -8.76239E+03  5.07289E+03 -6.93293E+03  8.42116E+03 -2.91519E+03
  7.61940E+03  1.17724E+03  4.60343E+03  5.26522E+03  2.94661E+02  5.26307E+03 -2.40791E+03  4.37796E+03
 -3.24515E+03  1.72275E+03 -1.92802E+03 -4.82504E+02 -9.01732E+02 -1.00459E+02 -6.78662E+02  3.22646E+02
 -1.57740E+03  4.58912E-01 -1.52738E+03  1.60833E+02 -6.03387E+01 -1.40614E+03 -1.70756E+02 -2.57133E+03
  3.02786E+03 -1.69157E+03  3.00731E+03  4.44435E+02  3.97011E+03  3.16774E+03  5.53564E+02  5.65692E+03
 -2.73330E+03  7.12863E+03 -5.92911E+03  3.81204E+03 -6.97826E+03 -3.73229E+02 -5.34137E+03 -4.36063E+03
 -2.24617E+03 -5.81001E+03  1.48423E+03 -5.67800E+03  3.43352E+03 -3.06269E+03  3.09995E+03  4.39704E+02
  2.09100E+03  1.45544E+03 -2.05606E+02  1.38149E+03 -1.21351E+03 -2.22914E+02  2.49399E+02 -1.30185E+03
  1.86138E+03 -6.78711E+02  2.09493E+03  7.76585E+02  1.38112E+03  2.13996E+03  3.55509E+02  2.83799E+03
 -2.19533E+03  2.48928E+03 -3.57856E+03  4.92357E+02 -3.15063E+03 -2.45727E+03 -4.67895E+02 -4.67781E+03
  2.77575E+03 -3.85336E+03  3.73644E+03 -8.03085E+02  4.32404E+03  6.98605E+02  2.21435E+03  3.12854E+03
  6.00836E+02  3.37465E+03 -1.26744E+03  2.88159E+03 -2.35674E+03  1.65123E+03 -1.78426E+03 -2.16246E+02
 -8.28477E+02 -2.01749E+02 -1.29901E+03  4.06222E+02 -2.08530E+03  3.62678E+02 -2.83738E+03 -6.29254E+02
 -2.80724E+03 -1.71312E+03 -1.07978E+03 -3.73155E+03  1.96197E+03 -4.18008E+03  3.08376E+03 -1.60940E+03
  3.46332E+03  3.63253E+02  1.61069E+03  2.32928E+03 -4.09103E+02  3.77729E+03 -2.87458E+03  2.39058E+03
