 $NMID ID='MM_0lb_SNR800_18hz_g45_33.RAW', FMTDAT='(8E13.5)'
 TRAMP=1., VOLUME=1. $END
  3.09727E+05  4.43852E+02  3.37336E+05  2.50533E+05  8.45431E+04  3.37442E+05 -1.32353E+05  2.50268E+05
 -1.89629E+05  8.23861E+04 -1.10846E+05 -3.27294E+04  1.54535E+03 -5.04261E+04  5.39466E+04  3.59832E+02
  3.49687E+04  5.27378E+04 -1.70607E+04  7.47688E+04 -6.04110E+04  6.26168E+04 -8.33213E+04  3.16940E+04
 -7.99925E+04 -1.09378E+04 -5.65215E+04 -5.04307E+04 -1.48704E+04 -6.83634E+04  2.67606E+04 -4.50589E+04
  3.90424E+04  4.05825E+03  1.57064E+04  4.70534E+04 -3.39242E+04  4.62475E+04 -6.53877E+04 -4.78002E+02
 -5.18706E+04 -5.62875E+04 -6.56920E+03 -7.54392E+04  3.31353E+04 -5.34332E+04  4.64220E+04 -1.64231E+04
  4.17163E+04  1.10169E+04  3.10419E+04  2.46650E+04  1.59826E+04  2.82140E+04 -4.62050E+03  2.67365E+04
 -2.15620E+04  1.26354E+04 -1.92028E+04 -4.17605E+03  4.24155E+03 -7.62446E+03  2.12291E+04  1.11735E+04
  7.42516E+03  3.31935E+04 -3.05187E+04  3.41803E+04 -6.13133E+04  2.14366E+03 -5.54530E+04 -4.12767E+04
 -1.24221E+04 -6.10836E+04  3.81439E+04 -4.34497E+04  5.57842E+04 -1.93070E+03  3.18529E+04  3.07501E+04
 -6.60385E+03  3.30563E+04 -2.84144E+04  1.36138E+04 -2.81400E+04 -4.98091E+03 -1.46036E+04 -1.03119E+04
 -7.43423E+03 -1.15232E+04 -1.31437E+03 -1.67358E+04  6.88683E+03 -2.24770E+04  1.46482E+04 -1.40732E+04
  1.21893E+04  4.11807E+03 -6.24091E+03  1.29385E+04 -1.93368E+04 -2.75369E+03 -8.01350E+03 -3.08544E+04
  2.11675E+04 -4.07031E+04  4.49750E+04 -1.83961E+04  4.16462E+04  1.86604E+04  1.43538E+04  4.19902E+04
 -1.54935E+04  3.14220E+04 -2.35059E+04  1.12166E+03 -8.45906E+03 -2.64554E+04  2.08040E+04 -3.14245E+04
  3.83083E+04 -7.53478E+03  3.13981E+04  2.27413E+04  1.54256E+04  4.29206E+04 -7.81610E+03  4.54469E+04
 -2.83978E+04  2.99854E+04 -3.75984E+04  8.28558E+03 -3.88481E+04 -1.53060E+04 -2.16776E+04 -3.47415E+04
  6.84023E+03 -3.43414E+04  2.92496E+04 -1.26255E+04  2.69860E+04  1.06545E+04  3.07654E+03  1.76923E+04
 -1.33694E+04  7.50291E+03 -9.65274E+03 -7.53087E+03  5.77715E+03 -1.01144E+04  1.73618E+04  6.68588E+03
  1.23905E+04  2.18370E+04 -6.48591E+03  2.33987E+04 -2.16061E+04  9.19624E+03 -2.52997E+04 -6.21451E+03
 -1.70218E+04 -1.66471E+04 -5.72998E+03 -1.67946E+04  3.82584E+03 -1.48360E+04  1.25012E+04 -1.49246E+04
  2.14961E+04 -1.19007E+04  2.85800E+04  1.21573E+03  2.14084E+04  1.63306E+04  3.94287E+03  3.26435E+04
 -1.59825E+04  2.78816E+04 -2.61059E+04  9.36763E+03 -1.97021E+04 -1.03298E+04 -4.03596E+03 -1.39175E+04
  2.41605E+03 -4.27137E+03 -3.07006E+03  5.49666E+03 -1.32383E+04  5.12290E+03 -1.33646E+04 -5.04801E+03
 -8.73967E+03 -1.54840E+04  4.52648E+03 -1.98418E+04  1.27400E+04 -1.40490E+04  1.49385E+04 -1.52473E+03
  8.77127E+03  1.09677E+04 -8.71074E+02  1.57823E+04 -1.05798E+04  8.73739E+03 -1.54493E+04 -3.46882E+03
 -1.17017E+04 -1.43401E+04 -1.65290E+03 -1.91919E+04  8.65775E+03 -1.55057E+04  1.63991E+04 -7.55912E+03
  1.45897E+04  5.80815E+02  1.06924E+04  3.58963E+03  5.32252E+03  5.95175E+02  7.54566E+03 -1.57816E+03
  1.38596E+04  2.65959E+03  1.48116E+04  1.27586E+04  9.36002E+03  2.49297E+04 -3.31738E+03  2.70431E+04
 -1.61258E+04  2.08703E+04 -2.45596E+04  1.00343E+04 -2.53466E+04 -1.65925E+03 -2.19809E+04 -1.43714E+04
 -1.00311E+04 -2.08584E+04  6.67874E+03 -1.92568E+04  1.69734E+04 -1.09643E+04  1.58476E+04  3.85642E+03
  6.84382E+03  1.13237E+04 -7.17540E+03  1.04349E+04 -1.33307E+04  2.63342E+03 -1.04591E+04 -7.72184E+03
 -8.47541E+01 -1.25293E+04  6.28412E+03 -9.46003E+03  7.96556E+03 -1.39773E+03  1.59296E+03  5.13239E+03
 -5.74066E+03  1.21973E+03 -3.82305E+03 -4.55485E+03  5.80005E+02 -1.05218E+04  7.74886E+03 -1.04561E+04
  1.26537E+04 -4.66193E+03  1.21024E+04  2.70683E+03  1.05328E+04  9.62525E+03  5.13933E+03  1.43816E+04
 -1.83335E+03  1.61276E+04 -9.96398E+03  1.03651E+04 -1.15435E+04  3.11858E+03 -8.63606E+03 -2.16340E+03
 -4.49638E+03 -3.47097E+03 -8.67328E+02  1.45022E+03 -2.16957E+03  2.11442E+03 -3.65250E+03  3.63593E+03
 -8.30587E+03 -5.24420E+02 -8.65812E+03 -7.52976E+03 -3.49177E+03 -1.18051E+04  3.52051E+03 -8.60224E+03
  7.39091E+03 -3.62686E+03  5.28558E+03  1.79938E+03  8.07581E+02  3.30041E+03 -3.23109E+03  1.92555E+02
 -3.53216E+03 -5.25472E+03 -6.64234E+02 -7.47271E+03  3.80714E+03 -8.15940E+03  1.00042E+04 -4.01682E+03
  1.20382E+04  7.67878E+02  8.88907E+03  6.34544E+03  1.65988E+03  8.94326E+03 -5.43270E+03  8.35696E+03
 -7.07659E+03  2.87067E+03 -3.67695E+03 -1.21624E+03  1.25735E+03 -1.83754E+03  5.05912E+03 -1.01160E+03
  4.39577E+03  3.14293E+03  6.93362E+02  6.48713E+03 -4.56425E+03  6.59541E+03 -8.06398E+03  2.08252E+03
 -4.68317E+03 -3.43629E+03  4.73413E+02 -6.44510E+03  3.91123E+03 -3.41915E+03  3.55000E+03  1.06561E+03
  6.71009E+02  3.36199E+03 -4.29658E+03  4.98650E+03 -5.09483E+03  2.37642E+03 -4.34860E+03 -8.40016E+02
 -2.78566E+03 -6.43127E+03  9.43251E+02 -7.25523E+03  6.26798E+03 -4.87878E+03  6.66076E+03  1.11544E+03
  4.80941E+03  5.64201E+03  4.38989E+01  7.54356E+03 -4.93340E+03  4.11604E+03 -5.34246E+03 -2.66921E+02
 -5.89016E+03 -5.28889E+03 -1.40104E+03 -5.33985E+03  2.53215E+03 -4.64021E+03  3.02524E+03 -2.89820E+03
  2.74995E+03 -1.08340E+02 -8.51451E+01  1.06108E+03  6.13764E+02 -4.88904E+02  1.70656E+02 -2.25170E+03
  3.91970E+03 -5.94438E+02  5.38790E+03  6.90691E+02  5.79880E+03  3.32505E+03  5.36045E+03  7.50241E+03
 -1.35169E+03  9.25062E+03 -8.11497E+03  6.91427E+03 -1.04123E+04  1.16094E+03 -8.06301E+03 -2.91515E+03
 -4.53350E+03 -6.56408E+03 -2.34461E+02 -5.20449E+03  2.26413E+03 -2.33456E+03  1.73013E+03 -2.01001E+03
  1.25608E+03 -1.60829E+03  2.15120E+03 -2.09062E+03  3.28268E+03 -1.37210E+03  3.41814E+03  3.92357E+02
  4.13343E+03  1.27998E+03  1.34851E+03  3.44789E+03 -1.60642E+03  3.04068E+03 -4.57216E+03  2.62407E+03
 -5.44562E+03 -9.09659E+02 -2.00959E+03 -3.17943E+03  4.42461E+02 -5.24574E+03  3.23946E+03 -5.42602E+03
  5.49309E+03 -3.49822E+03  6.98124E+03  1.27847E+02  5.06364E+03  4.47650E+03  1.00705E+03  6.37132E+03
 -2.19516E+03  5.88078E+03 -3.74722E+03  2.04386E+03 -1.89579E+03 -8.85633E+02 -6.88289E+02 -7.96707E+02
 -8.89237E+02  2.54411E+02 -1.07532E+03  2.27373E+03 -2.56842E+03  1.30484E+03 -4.10080E+03 -2.40830E+02
 -1.74260E+03 -4.22538E+03  8.29089E+02 -4.82515E+03  2.58436E+03 -4.71075E+03  3.67008E+03 -1.22901E+03
  4.51549E+03  2.35959E+03  1.83536E+03  3.64101E+03 -6.39987E+02  4.54696E+03 -2.51057E+03  2.77696E+03
 -3.89478E+03  7.71687E+02 -3.61212E+03 -2.95232E+03 -4.15455E+02 -3.29895E+03  2.03465E+03 -2.71908E+03
  2.72022E+03 -1.34186E+03  1.95422E+03  2.28602E+02  5.30625E+02  1.50632E+03  6.89854E+02  3.99061E+02
  1.52380E+03  4.12091E+02  1.25221E+03  7.72890E+02  1.22586E+03  2.50614E+03  1.49995E+03  1.90576E+03
 -1.46399E+03  3.29583E+03 -2.62784E+03  4.15110E+03 -3.31573E+03  1.26101E+03 -4.74861E+03 -4.30840E+02
 -1.62971E+03 -4.06591E+03  9.33987E+02 -4.93390E+03  1.96274E+03 -2.75582E+03  3.36000E+03 -9.34814E+02
  2.61670E+03  1.97548E+03  2.43796E+02  2.47653E+03 -6.90919E+02  1.20157E+03 -1.32686E+03  4.68202E+01
 -5.81724E+02 -1.57062E+03  1.23791E+03 -1.67744E+03  1.24728E+03 -1.18315E+03  1.60389E+03  2.72824E+02
  9.40672E+02  4.06159E+02  8.56686E+02 -3.68815E+02 -3.65879E+02  6.44400E+02  1.36872E+03 -2.18271E+02
 -1.86595E+02 -2.37954E+02  2.16522E+03  8.43494E+02  6.51559E+02  2.38989E+03 -3.07106E+02  3.01866E+03
 -1.73831E+03  1.19582E+03 -2.37834E+03  6.05118E+02 -2.38109E+03 -8.03033E+02 -5.01146E+01 -1.10312E+03
  5.54121E+02 -1.18620E+03  1.02501E+03 -7.37841E+02  6.12657E+02  1.24490E+03 -8.15300E+02  1.29411E+03
 -1.49228E+03  8.31041E+02 -1.26008E+03 -1.12242E+03 -7.75978E+02 -2.28455E+03  2.34898E+02 -1.82408E+03
  1.02061E+03 -7.58079E+02  8.87233E+02  2.63714E+02  1.36079E+03 -6.16783E+01  2.50231E+02  9.89306E+02
 -5.63573E+02  1.81743E+02 -9.17459E+02 -3.03101E+02  6.73593E+02 -1.22012E+03  1.91735E+03 -1.18645E+03
  1.44546E+03  1.27111E+02  2.86254E+03  8.55852E+02  9.19966E+02  1.82732E+03 -2.12376E+02  1.83751E+03
 -1.74334E+03  5.83900E+02 -1.64779E+03 -1.83802E+02 -7.66429E+02 -1.57665E+03  3.06918E+02 -7.73007E+02
  1.49962E+03 -8.44709E+02  8.40249E+02  7.00847E+02  8.81666E+01  1.48102E+03  3.56228E+02  1.15118E+03
 -2.89644E+02  1.18454E+03 -4.49922E+02  1.66675E+02 -2.29830E+02  5.65204E+02 -8.83754E+02  4.58360E+02
 -5.87781E+02  1.03488E+03 -1.65648E+03  3.73037E+02 -1.76799E+03  3.65111E+02 -2.58453E+03 -9.72380E+02
 -1.23295E+03 -2.55959E+03  5.01703E+02 -3.28169E+03  1.08835E+03 -2.65049E+03  3.24461E+03 -1.13080E+03
  2.66342E+03 -1.93527E+02  1.29629E+03  1.72741E+03 -2.33181E+02  1.67908E+03 -9.25460E+02  1.37176E+03
 -8.57790E+02  6.63116E+02 -4.61521E+02 -5.96957E+02 -5.11088E+02  1.46595E+02 -8.66583E+02 -1.15887E+02
 -1.10416E+03 -1.14750E+02 -8.88966E+02  1.75070E+02  2.41061E+02 -7.34635E+02 -3.53234E+02 -1.16674E+03
  1.49914E+03 -6.70193E+02  7.76665E+02  1.58364E+02  1.08417E+03  1.21199E+03 -3.36217E+02  1.31548E+03
 -1.21179E+03  2.52599E+03 -1.75120E+03  1.25958E+03 -2.03031E+03 -3.03424E+02 -1.62150E+03 -1.43673E+03
 -9.39047E+02 -1.54130E+03  2.27203E+02 -1.21307E+03  7.85308E+02 -7.33196E+02  6.75668E+02  1.81103E+02
  7.87895E+02  5.01133E+02  1.76329E+01  5.20909E+02 -1.11740E+02 -9.78300E+01 -1.22133E+02 -3.57355E+02
  5.22894E+02  3.69973E+02  3.30101E+02  2.11907E+02  2.28978E+02  2.40186E+02  4.72035E+02  5.15172E+02
 -5.68919E+02  5.84057E+02 -3.91936E+02  2.45994E+02 -7.05778E+02 -3.45705E+02 -6.23496E+01 -9.17368E+02
  5.05371E+02 -6.53285E+02  4.07793E+02  1.56374E+01  9.75107E+02 -7.60195E+02  4.29339E+02  8.37537E+02
  4.33929E+02  7.04831E+02 -2.68923E+02  5.44809E+02 -4.77365E+02  4.51486E+02 -3.69033E+02  2.02529E+02
 -9.31677E+01  1.03421E+02 -5.46146E+02  1.46217E+02 -3.28637E+02  3.36616E+02 -7.75664E+02 -4.12430E+02
 -9.90214E+02 -9.13130E+01 -3.39927E+02 -1.13054E+03  8.44544E+02 -1.63293E+03  8.83115E+02 -4.74394E+02
  6.09492E+02  3.37918E+02 -1.83033E+02  2.23668E+02 -4.13286E+02  9.95518E+02 -6.33937E+02  1.06970E+03
