 $NMID ID='MM_0lb_SNR800_17hz_g40_45.RAW', FMTDAT='(8E13.5)'
 TRAMP=1., VOLUME=1. $END
  3.09861E+05  7.16374E+01  3.37096E+05  2.50399E+05  8.44111E+04  3.37205E+05 -1.32409E+05  2.50514E+05
 -1.89685E+05  8.25508E+04 -1.10855E+05 -3.26102E+04  1.49499E+03 -5.00042E+04  5.38466E+04  8.62852E+01
  3.51471E+04  5.29204E+04 -1.70764E+04  7.51504E+04 -6.01384E+04  6.27935E+04 -8.29363E+04  3.16650E+04
 -7.97128E+04 -1.08781E+04 -5.62259E+04 -5.02043E+04 -1.47935E+04 -6.84590E+04  2.67202E+04 -4.48189E+04
  3.89793E+04  4.27272E+03  1.57943E+04  4.73406E+04 -3.41976E+04  4.65921E+04 -6.54225E+04 -3.92046E+02
 -5.20121E+04 -5.60598E+04 -6.36597E+03 -7.53237E+04  3.30596E+04 -5.34251E+04  4.64435E+04 -1.64122E+04
  4.17959E+04  1.10474E+04  3.11690E+04  2.45134E+04  1.58875E+04  2.84371E+04 -4.95350E+03  2.68245E+04
 -2.17400E+04  1.25321E+04 -1.93466E+04 -4.16029E+03  4.40027E+03 -7.43641E+03  2.13234E+04  1.12069E+04
  7.42521E+03  3.32445E+04 -3.06819E+04  3.40192E+04 -6.10783E+04  2.24139E+03 -5.56019E+04 -4.13878E+04
 -1.24229E+04 -6.08368E+04  3.83278E+04 -4.34860E+04  5.55771E+04 -2.00924E+03  3.19634E+04  3.07257E+04
 -6.48463E+03  3.32147E+04 -2.86653E+04  1.35640E+04 -2.80464E+04 -5.14166E+03 -1.44311E+04 -1.00357E+04
 -7.53587E+03 -1.15579E+04 -9.45771E+02 -1.68067E+04  6.81890E+03 -2.27494E+04  1.51495E+04 -1.39385E+04
  1.22013E+04  4.30302E+03 -6.54766E+03  1.30767E+04 -1.93765E+04 -2.66923E+03 -8.13367E+03 -3.05453E+04
  2.09444E+04 -4.06925E+04  4.49145E+04 -1.88507E+04  4.21887E+04  1.84700E+04  1.44242E+04  4.18392E+04
 -1.55741E+04  3.14517E+04 -2.37238E+04  1.22838E+03 -8.38740E+03 -2.66155E+04  2.05804E+04 -3.14355E+04
  3.84016E+04 -7.76044E+03  3.18151E+04  2.27492E+04  1.56088E+04  4.30630E+04 -7.95251E+03  4.57203E+04
 -2.87328E+04  3.02739E+04 -3.78370E+04  8.53688E+03 -3.88301E+04 -1.50632E+04 -2.12539E+04 -3.48798E+04
  6.99188E+03 -3.46115E+04  2.94638E+04 -1.27649E+04  2.73991E+04  1.09736E+04  3.17987E+03  1.78381E+04
 -1.30084E+04  7.69310E+03 -9.74041E+03 -7.70238E+03  5.77575E+03 -1.01569E+04  1.74467E+04  6.39332E+03
  1.25302E+04  2.16241E+04 -6.52975E+03  2.36172E+04 -2.15696E+04  9.85313E+03 -2.55387E+04 -6.45153E+03
 -1.71146E+04 -1.66639E+04 -6.13198E+03 -1.70894E+04  3.89587E+03 -1.54237E+04  1.30912E+04 -1.48335E+04
  2.18686E+04 -1.15504E+04  2.89185E+04  1.18188E+03  2.15621E+04  1.68173E+04  4.13630E+03  3.28883E+04
 -1.61952E+04  2.79965E+04 -2.60814E+04  9.68168E+03 -1.97396E+04 -1.05939E+04 -3.90259E+03 -1.39510E+04
  2.70594E+03 -3.92074E+03 -3.05253E+03  5.24929E+03 -1.34778E+04  5.44106E+03 -1.36652E+04 -5.07825E+03
 -8.72037E+03 -1.59797E+04  4.60008E+03 -2.00631E+04  1.30160E+04 -1.41757E+04  1.50752E+04 -1.56700E+03
  9.28737E+03  1.10495E+04 -8.59283E+02  1.62277E+04 -1.05612E+04  9.21598E+03 -1.60559E+04 -3.66136E+03
 -1.20241E+04 -1.44690E+04 -1.54519E+03 -1.96261E+04  9.09693E+03 -1.58094E+04  1.65126E+04 -7.89952E+03
  1.48822E+04  7.61715E+02  1.07687E+04  3.82961E+03  5.52513E+03  6.04241E+02  7.69172E+03 -1.17643E+03
  1.44930E+04  2.75929E+03  1.51250E+04  1.31699E+04  9.53523E+03  2.53708E+04 -3.21622E+03  2.76870E+04
 -1.63896E+04  2.12650E+04 -2.54670E+04  1.02581E+04 -2.61324E+04 -1.63830E+03 -2.22684E+04 -1.49769E+04
 -1.04070E+04 -2.12796E+04  7.26566E+03 -1.99647E+04  1.73001E+04 -1.09868E+04  1.61919E+04  3.90162E+03
  6.57777E+03  1.18280E+04 -7.08547E+03  1.07915E+04 -1.40164E+04  2.57012E+03 -1.05812E+04 -8.18797E+03
 -2.25157E+02 -1.30005E+04  6.31934E+03 -9.98176E+03  8.07595E+03 -1.29264E+03  1.77889E+03  4.95363E+03
 -5.76351E+03  1.50393E+03 -4.06816E+03 -4.88595E+03  5.09709E+02 -1.07070E+04  8.23779E+03 -1.08375E+04
  1.30228E+04 -5.02420E+03  1.32883E+04  2.80992E+03  1.11400E+04  1.02700E+04  5.44388E+03  1.47993E+04
 -1.86373E+03  1.67224E+04 -1.02584E+04  1.09651E+04 -1.19376E+04  3.24344E+03 -8.69867E+03 -2.08483E+03
 -4.65567E+03 -3.64117E+03 -7.63394E+02  1.53672E+03 -2.14037E+03  2.04526E+03 -3.78559E+03  3.86606E+03
 -8.44197E+03 -7.18826E+02 -9.30441E+03 -7.55758E+03 -3.77098E+03 -1.21586E+04  3.69454E+03 -8.70508E+03
  7.52048E+03 -3.90348E+03  5.79422E+03  2.20899E+03  6.54117E+02  2.97996E+03 -3.68391E+03 -8.33071E+01
 -3.83764E+03 -5.52684E+03 -7.34337E+02 -7.76050E+03  4.30222E+03 -8.72655E+03  1.07289E+04 -4.48248E+03
  1.24960E+04  1.00834E+03  9.43752E+03  6.77461E+03  1.71334E+03  9.59292E+03 -5.76801E+03  8.92326E+03
 -7.32041E+03  2.94458E+03 -3.54578E+03 -1.22183E+03  1.56795E+03 -2.20742E+03  5.08208E+03 -1.29684E+03
  4.48942E+03  3.58134E+03  1.01129E+03  6.89083E+03 -4.60495E+03  6.71066E+03 -8.28117E+03  1.57270E+03
 -5.33333E+03 -4.09213E+03  3.04157E+01 -7.24442E+03  3.89668E+03 -3.53192E+03  3.77067E+03  1.14069E+03
  6.46652E+02  3.61806E+03 -4.61681E+03  5.10607E+03 -5.42049E+03  2.42983E+03 -5.07162E+03 -1.68685E+03
 -3.23018E+03 -6.96307E+03  1.47132E+03 -7.95336E+03  6.66844E+03 -5.13828E+03  7.10138E+03  8.25003E+02
  5.06441E+03  5.75689E+03  6.11686E+01  7.69792E+03 -5.76172E+03  4.52836E+03 -5.88374E+03 -3.76529E+02
 -6.05762E+03 -5.64280E+03 -1.70608E+03 -5.62464E+03  2.74855E+03 -5.12215E+03  3.40517E+03 -3.00827E+03
  2.87602E+03  4.23670E+02  1.44072E+01  1.18307E+03  5.75765E+02 -4.27525E+02  2.56657E+02 -2.06379E+03
  4.20185E+03 -9.23855E+02  5.79610E+03  8.45961E+02  6.52770E+03  3.64894E+03  5.56792E+03  8.05690E+03
 -1.45213E+03  9.57028E+03 -8.80140E+03  7.28601E+03 -1.11287E+04  1.60923E+03 -8.67769E+03 -3.10404E+03
 -4.49761E+03 -6.88293E+03 -3.42516E+02 -5.91286E+03  2.46659E+03 -2.60615E+03  2.21029E+03 -2.60486E+03
  1.42338E+03 -1.46222E+03  2.36429E+03 -2.39441E+03  3.69055E+03 -1.42500E+03  4.11483E+03  2.08725E+02
  4.94070E+03  1.04916E+03  1.49774E+03  4.03469E+03 -1.30259E+03  3.57887E+03 -5.02794E+03  3.26399E+03
 -5.62233E+03 -1.05516E+03 -2.29207E+03 -3.85382E+03  4.13157E+02 -6.05166E+03  3.55288E+03 -6.30002E+03
  5.91476E+03 -3.71132E+03  7.97859E+03  6.80882E+02  5.31288E+03  5.07633E+03  1.23600E+03  6.83361E+03
 -2.68233E+03  6.65051E+03 -4.00160E+03  2.18061E+03 -2.52219E+03 -1.13444E+03 -6.08030E+02 -6.24996E+02
 -6.08264E+02  4.03282E+01 -1.03708E+03  2.00727E+03 -2.80485E+03  1.21309E+03 -4.43472E+03 -6.69677E+02
 -2.19721E+03 -4.81850E+03  1.02849E+03 -5.24621E+03  2.83442E+03 -4.97579E+03  4.61584E+03 -1.34826E+03
  4.45158E+03  2.94861E+03  2.16490E+03  4.01909E+03 -9.13334E+02  5.18385E+03 -2.95337E+03  3.07404E+03
 -4.84026E+03  6.13048E+02 -3.78046E+03 -2.69547E+03 -2.80257E+02 -3.71064E+03  1.97641E+03 -3.33791E+03
  3.35699E+03 -1.56991E+03  2.16414E+03  6.00839E+02  5.41132E+02  1.75207E+03  1.09357E+03  8.43383E+02
  1.92413E+03  8.62764E+02  1.40249E+03  1.14591E+03  1.15419E+03  2.52039E+03  1.66125E+03  2.11936E+03
 -1.39620E+03  3.68610E+03 -2.76829E+03  4.96030E+03 -3.85857E+03  1.48248E+03 -4.96813E+03 -7.90963E+02
 -1.97210E+03 -4.52598E+03  7.34512E+02 -5.42131E+03  2.30111E+03 -3.13457E+03  4.07999E+03 -1.14212E+03
  2.88245E+03  2.00807E+03  8.44106E+02  2.98829E+03 -1.06768E+03  1.20187E+03 -1.50247E+03 -1.22077E+02
 -7.16474E+02 -2.07187E+03  1.46881E+03 -2.04338E+03  1.50152E+03 -1.18384E+03  1.68638E+03  3.21212E+02
  1.01567E+03  2.99171E+02  8.96647E+02 -6.07141E+01 -3.51727E+02  8.00594E+02  1.73325E+03 -1.02213E+02
  2.20499E+02 -4.35256E+02  2.08004E+03  8.97935E+02  4.47068E+02  2.90233E+03 -7.37430E+02  3.50992E+03
 -2.34470E+03  1.59114E+03 -2.64386E+03  4.48344E+02 -2.62862E+03 -8.26826E+02 -3.58364E+02 -1.23157E+03
  1.88214E+02 -1.48507E+03  1.06622E+03 -1.02774E+03  8.01942E+02  1.04632E+03 -8.05092E+02  1.44761E+03
 -1.77188E+03  1.07819E+03 -1.75980E+03 -1.43943E+03 -9.76073E+02 -2.79560E+03  2.77632E+02 -2.00156E+03
  7.39106E+02 -7.42044E+02  1.21159E+03 -7.29172E+01  1.66556E+03  1.22730E+02  2.18735E+02  1.36888E+03
 -4.28072E+02  1.11794E+02 -9.18620E+02 -3.83438E+02  5.05121E+02 -1.29909E+03  2.32946E+03 -1.45422E+03
  1.64302E+03  4.68546E+02  3.42862E+03  1.08558E+03  1.10926E+03  2.36733E+03 -4.55501E+02  2.45937E+03
 -1.77985E+03  6.21934E+02 -2.04530E+03 -4.34272E+02 -9.00281E+02 -1.75408E+03  6.91304E+01 -8.07300E+02
  1.58734E+03 -9.28225E+02  7.99967E+02  7.49556E+02  3.38479E+02  1.58255E+03  2.71715E+02  1.23746E+03
 -5.62567E+02  1.29595E+03 -4.53460E+02  3.05354E+02  2.83422E+01  4.06834E+02 -1.08493E+03  1.15019E+03
 -6.54003E+02  1.29429E+03 -2.16981E+03  9.11344E+02 -2.32825E+03 -6.05753E+01 -3.01492E+03 -1.42640E+03
 -1.42837E+03 -2.97565E+03  5.25172E+02 -3.60027E+03  1.34863E+03 -2.86149E+03  3.65127E+03 -1.53887E+03
  2.94413E+03  1.75994E+02  1.73202E+03  2.15898E+03 -5.93667E+02  2.06100E+03 -1.07525E+03  1.70779E+03
 -1.28524E+03  8.47874E+02 -9.48781E+02 -3.94503E+02 -6.38669E+02  3.71223E+02 -8.61820E+02  1.50582E+02
 -1.15518E+03 -1.96199E+02 -6.96387E+02  8.80276E+01  2.82098E+02 -6.59475E+02 -3.45318E+02 -1.07070E+03
  1.40230E+03 -8.23985E+02  7.05096E+02  4.64227E+01  1.41737E+03  1.18769E+03 -2.88819E+02  1.98609E+03
 -1.20739E+03  2.65553E+03 -2.26798E+03  1.72332E+03 -2.29210E+03 -5.20650E+00 -1.60369E+03 -1.84855E+03
 -1.06316E+03 -1.70879E+03  5.20639E+02 -1.80253E+03  1.09472E+03 -8.78735E+02  1.07386E+03  2.50706E+02
  9.29856E+02  6.44838E+02 -2.86618E+01  6.62666E+02 -6.57382E+02  1.65316E+02 -2.29341E+02 -2.56229E+02
  7.54877E+02 -9.49122E+01  5.76015E+02  2.27750E+02  3.93901E+01  6.87664E+02  7.73184E+02  8.10403E+02
 -9.77129E+02  7.14223E+02 -9.69144E+02  1.56541E+02 -1.26554E+03 -6.67711E+02  3.91928E+01 -1.73246E+03
  6.53288E+02 -1.25144E+03  7.98312E+02 -2.10138E+02  1.48448E+03 -2.77717E+02  6.08110E+02  1.29418E+03
  4.76783E+02  8.50395E+02 -3.97437E+02  7.24379E+02 -8.85524E+02  6.82143E+02 -6.17840E+02  2.42283E+02
 -1.89682E+02 -1.06361E+01 -3.74431E+02  2.09950E+01 -8.92358E+02  3.62251E+01 -1.15531E+03 -4.23353E+02
 -1.37984E+03  7.30281E+00 -6.35660E+02 -1.36134E+03  7.24795E+02 -1.84439E+03  1.25893E+03 -3.95697E+02
  1.16326E+03  2.01279E+02  1.30422E+02  4.65005E+02  1.95749E+01  1.21656E+03 -7.87498E+02  8.73773E+02
