 $NMID ID='MM_0lb_SNR800_9hz_g50_16.RAW', FMTDAT='(8E13.5)'
 TRAMP=1., VOLUME=1. $END
  3.09791E+05  4.60573E+02  3.37728E+05  2.50647E+05  8.51167E+04  3.38676E+05 -1.32490E+05  2.52020E+05
 -1.90929E+05  8.40735E+04 -1.12580E+05 -3.22958E+04  4.32830E+02 -5.16433E+04  5.36742E+04 -9.44821E+02
  3.58109E+04  5.27741E+04 -1.73326E+04  7.58820E+04 -6.08352E+04  6.42963E+04 -8.53438E+04  3.28398E+04
 -8.27054E+04 -1.18779E+04 -5.79414E+04 -5.21859E+04 -1.51306E+04 -7.08096E+04  2.78584E+04 -4.66081E+04
  4.10348E+04  3.73684E+03  1.67895E+04  4.81650E+04 -3.48273E+04  4.81137E+04 -6.84143E+04  8.82713E+01
 -5.47826E+04 -5.76232E+04 -7.50955E+03 -7.86026E+04  3.45462E+04 -5.69794E+04  4.95325E+04 -1.82027E+04
  4.52744E+04  1.15629E+04  3.30284E+04  2.68412E+04  1.58530E+04  3.07779E+04 -5.79960E+03  2.77198E+04
 -2.19999E+04  1.19852E+04 -1.82109E+04 -5.28578E+03  7.33842E+03 -7.44226E+03  2.34212E+04  1.38997E+04
  6.94218E+03  3.71003E+04 -3.40865E+04  3.70804E+04 -6.57011E+04  2.17507E+03 -5.86028E+04 -4.41436E+04
 -1.27826E+04 -6.55428E+04  4.19561E+04 -4.72001E+04  6.10254E+04 -2.31754E+03  3.67236E+04  3.42097E+04
 -5.58025E+03  3.94947E+04 -3.21338E+04  1.86641E+04 -3.30710E+04 -3.58161E+03 -1.88352E+04 -1.18484E+04
 -9.66055E+03 -1.52218E+04 -3.33699E+02 -1.97689E+04  8.49910E+03 -2.37701E+04  1.60604E+04 -1.25507E+04
  1.05537E+04  6.35963E+03 -1.03553E+04  1.26665E+04 -2.34587E+04 -6.56936E+03 -8.63729E+03 -3.71590E+04
  2.54930E+04 -4.69091E+04  5.19773E+04 -2.10048E+04  4.89848E+04  2.07960E+04  1.69345E+04  4.68509E+04
 -1.66791E+04  3.60862E+04 -2.75880E+04  2.58359E+03 -1.15135E+04 -2.94173E+04  2.16567E+04 -3.66404E+04
  4.48246E+04 -1.07807E+04  4.03716E+04  2.52745E+04  2.09320E+04  5.08746E+04 -8.51685E+03  5.62630E+04
 -3.52671E+04  3.81197E+04 -4.74517E+04  1.09810E+04 -4.79032E+04 -1.86153E+04 -2.64929E+04 -4.18307E+04
  8.01513E+03 -4.17127E+04  3.40563E+04 -1.70051E+04  3.21534E+04  1.07740E+04  4.95212E+03  2.06922E+04
 -1.37949E+04  9.96361E+03 -1.13593E+04 -7.86521E+03  5.84050E+03 -1.12379E+04  1.89507E+04  5.79876E+03
  1.46038E+04  2.28163E+04 -4.83991E+03  2.70993E+04 -2.35155E+04  1.39304E+04 -3.15381E+04 -2.73938E+03
 -2.51863E+04 -1.85990E+04 -1.14752E+04 -2.51868E+04  4.59626E+03 -2.56070E+04  1.99675E+04 -2.30486E+04
  3.21609E+04 -1.41833E+04  3.81887E+04  4.97191E+03  2.74197E+04  2.42486E+04  5.04162E+03  4.11689E+04
 -1.97543E+04  3.39509E+04 -3.05677E+04  1.15291E+04 -2.24382E+04 -1.04321E+04 -4.74882E+03 -1.29590E+04
  1.32055E+03 -1.06982E+03 -7.70107E+03  8.47420E+03 -1.99866E+04  4.81724E+03 -1.99215E+04 -9.62126E+03
 -1.20508E+04 -2.30619E+04  6.12615E+03 -2.76485E+04  1.84746E+04 -2.02598E+04  2.26474E+04 -1.59701E+03
  1.42709E+04  1.59309E+04 -1.35816E+03  2.34799E+04 -1.68734E+04  1.34801E+04 -2.32884E+04 -4.79263E+03
 -1.75769E+04 -2.06404E+04 -2.33906E+03 -2.85262E+04  1.27306E+04 -2.36370E+04  2.32642E+04 -1.20222E+04
  2.16433E+04 -9.10388E+01  1.59684E+04  5.37102E+03  8.62152E+03  1.29870E+03  1.21895E+04 -2.10475E+03
  2.21144E+04  2.89473E+03  2.51989E+04  1.83378E+04  1.74246E+04  3.75451E+04 -2.88441E+03  4.40956E+04
 -2.54513E+04  3.72321E+04 -4.16784E+04  1.93671E+04 -4.41851E+04 -3.65465E+03 -3.61179E+04 -2.60839E+04
 -1.44532E+04 -3.74377E+04  1.28067E+04 -3.23012E+04  2.77771E+04 -1.54891E+04  2.41733E+04  8.03785E+03
  8.42236E+03  1.87916E+04 -1.13560E+04  1.59506E+04 -2.01870E+04  2.61688E+03 -1.51329E+04 -1.32749E+04
 -5.19351E+02 -1.95650E+04  1.04180E+04 -1.42381E+04  1.30964E+04 -1.66157E+03  3.70910E+03  8.98553E+03
 -8.34239E+03  3.98578E+03 -9.62741E+03 -7.00424E+03 -1.70797E+03 -1.82356E+04  1.16837E+04 -1.99598E+04
  2.27999E+04 -1.14553E+04  2.61572E+04  3.39732E+03  2.28091E+04  1.86305E+04  1.10714E+04  2.91689E+04
 -5.47497E+03  3.12506E+04 -2.02296E+04  1.93445E+04 -2.26354E+04  3.52232E+03 -1.50038E+04 -5.96366E+03
 -6.78800E+03 -7.56509E+03 -4.45702E+02  3.60075E+02 -2.62124E+03  3.61483E+03 -7.49195E+03  5.36663E+03
 -1.41035E+04 -9.13500E+02 -1.47321E+04 -1.18365E+04 -5.53298E+03 -1.99305E+04  6.47190E+03 -1.55657E+04
  1.28029E+04 -6.73099E+03  9.20991E+03  4.17028E+03 -5.13497E+02  6.81965E+03 -7.80364E+03  5.86686E+01
 -7.77678E+03 -1.01202E+04 -1.06914E+03 -1.54532E+04  9.37128E+03 -1.63466E+04  2.04074E+04 -8.60626E+03
  2.37403E+04  2.50740E+03  1.72279E+04  1.44143E+04  3.16059E+03  1.92109E+04 -9.76168E+03  1.52134E+04
 -1.27036E+04  4.43166E+03 -6.46222E+03 -3.32496E+03  1.92925E+03 -3.98200E+03  8.20109E+03 -9.19323E+02
  7.26242E+03  7.00031E+03  1.14329E+03  1.26218E+04 -9.25918E+03  1.17696E+04 -1.51653E+04  2.79661E+03
 -1.09154E+04 -8.44538E+03  6.91300E+01 -1.34998E+04  8.97399E+03 -7.04955E+03  9.49985E+03  3.67734E+03
  2.25255E+03  1.00187E+04 -8.08964E+03  1.19914E+04 -1.38886E+04  5.21651E+03 -1.43276E+04 -5.05381E+03
 -8.11433E+03 -1.59067E+04  3.92639E+03 -1.80594E+04  1.55353E+04 -1.12735E+04  1.64799E+04  2.60788E+03
  1.04387E+04  1.35371E+04 -1.47928E+03  1.60194E+04 -1.15209E+04  8.85833E+03 -1.29539E+04 -8.55866E+02
 -1.08749E+04 -1.05836E+04 -1.91451E+03 -1.17999E+04  6.13710E+03 -9.45891E+03  7.59669E+03 -3.48069E+03
  4.96919E+03  2.54642E+03 -1.19902E+03  1.80481E+03 -9.48767E+02 -3.45506E+03  2.92762E+03 -7.87020E+03
  1.11608E+04 -4.88582E+03  1.63484E+04  2.21919E+03  1.56092E+04  1.13379E+04  9.95793E+03  2.08045E+04
 -4.99368E+03  2.35080E+04 -2.01309E+04  1.78358E+04 -2.60215E+04  3.42117E+03 -2.08431E+04 -8.89474E+03
 -1.04111E+04 -1.72559E+04 -3.71697E+02 -1.46902E+04  5.15354E+03 -8.65351E+03  4.89868E+03 -5.31250E+03
  4.08159E+03 -3.01348E+03  3.55671E+03 -3.92834E+03  5.92430E+03 -3.77197E+03  8.08747E+03 -1.19605E+03
  1.04505E+04  2.68429E+03  5.43781E+03  9.43983E+03 -2.13602E+03  1.12808E+04 -1.16720E+04  8.64953E+03
 -1.47252E+04 -1.45876E+03 -9.67001E+03 -1.04513E+04 -1.06829E+03 -1.61950E+04  8.78039E+03 -1.58118E+04
  1.67626E+04 -8.74196E+03  1.96565E+04  2.60998E+03  1.35559E+04  1.36725E+04  1.90641E+03  1.75437E+04
 -7.49949E+03  1.41270E+04 -1.03850E+04  4.92442E+03 -7.19267E+03 -2.02012E+03 -3.28117E+03 -2.27994E+03
 -1.70648E+03 -3.26228E+02 -1.91024E+03  3.04220E+03 -6.72332E+03  2.32566E+03 -9.63067E+03 -1.55905E+03
 -7.39399E+03 -1.00180E+04 -2.38482E+02 -1.51641E+04  8.91949E+03 -1.36462E+04  1.46306E+04 -4.40582E+03
  1.44312E+04  6.97717E+03  7.01516E+03  1.30042E+04 -3.31285E+03  1.48451E+04 -1.08929E+04  9.05464E+03
 -1.40264E+04  1.93844E+02 -1.09451E+04 -9.02623E+03 -1.03003E+03 -1.22757E+04  6.45304E+03 -9.40336E+03
  9.28378E+03 -2.80748E+03  6.34233E+03  2.62204E+03  2.36200E+03  4.89442E+03  1.59733E+03  2.13581E+03
  3.27778E+03  1.38176E+03  3.66547E+03  2.21083E+03  4.33598E+03  5.25615E+03  3.66557E+03  8.16851E+03
 -3.06194E+03  1.21674E+04 -1.00737E+04  1.18635E+04 -1.57335E+04  3.14544E+03 -1.55155E+04 -6.05528E+03
 -7.64727E+03 -1.50547E+04  2.40903E+03 -1.66595E+04  8.99834E+03 -1.04929E+04  1.21746E+04 -3.00764E+03
  9.25288E+03  6.06909E+03  2.14372E+03  8.59941E+03 -4.51656E+03  5.52934E+03 -6.21006E+03 -6.06290E+02
 -2.83584E+03 -6.46736E+03  3.48147E+03 -6.09790E+03  6.47618E+03 -3.64546E+03  6.34063E+03  1.16412E+03
  3.50083E+03  3.21522E+03  1.84878E+03  2.71774E+03 -8.02211E+02  1.86699E+03  1.56359E+03 -6.23001E+02
  2.46508E+03 -5.07373E+02  6.23198E+03  2.50955E+03  3.35718E+03  8.46896E+03 -1.31385E+03  1.03624E+04
 -7.53978E+03  6.86325E+03 -1.01099E+04  2.01571E+03 -8.56495E+03 -3.28612E+03 -3.50716E+03 -5.98554E+03
  9.25083E+02 -5.82927E+03  3.65562E+03 -2.68791E+03  3.38539E+03  3.31993E+03 -1.58560E+03  5.33660E+03
 -6.32909E+03  3.27251E+03 -6.83604E+03 -3.21598E+03 -4.43424E+03 -8.37188E+03  1.15245E+03 -8.53711E+03
  4.90908E+03 -5.21744E+03  6.08743E+03 -7.06616E+02  5.03275E+03  2.13559E+03  4.24436E+02  4.71923E+03
 -2.87785E+03  1.40728E+03 -3.62807E+03 -3.18274E+03  1.34102E+03 -6.78831E+03  7.81500E+03 -5.14021E+03
  9.76608E+03  7.51032E+02  9.43496E+03  6.62271E+03  2.80964E+03  1.03048E+04 -3.80558E+03  9.46375E+03
 -8.37944E+03  3.89442E+03 -8.66056E+03 -1.08604E+03 -4.63418E+03 -6.39048E+03  1.52671E+03 -6.14088E+03
  6.30685E+03 -3.18388E+03  5.33461E+03  2.42564E+03  1.81321E+03  5.39055E+03 -1.15013E+03  4.81172E+03
 -2.98389E+03  3.28740E+03 -2.61704E+03  1.25089E+03 -9.09038E+02  1.93032E+02 -1.65820E+03  2.16413E+03
 -2.45849E+03  3.62590E+03 -6.68350E+03  3.60017E+03 -1.00024E+04  3.17236E+02 -1.12344E+04 -6.54329E+03
 -6.07966E+03 -1.32022E+04  2.55625E+03 -1.57421E+04  9.83995E+03 -1.19173E+04  1.48709E+04 -4.65373E+03
  1.38839E+04  3.18667E+03  8.36940E+03  9.28835E+03  5.08374E+02  1.06852E+04 -4.06913E+03  7.51756E+03
 -6.15793E+03  3.18279E+03 -3.11007E+03 -1.48424E+03 -1.30798E+03 -7.82587E+02 -9.06500E+02 -6.47486E+02
 -1.76704E+03  2.14154E+02 -2.20365E+03 -2.77616E+02 -7.74964E+02 -2.59963E+03  1.81851E+02 -3.85446E+03
  4.76169E+03 -3.34320E+03  6.92541E+03 -9.74976E+01  7.05567E+03  5.61026E+03  2.02607E+03  1.06016E+04
 -5.02243E+03  1.18279E+04 -1.12988E+04  7.18744E+03 -1.28273E+04 -1.12125E+03 -9.43349E+03 -8.25463E+03
 -4.11747E+03 -1.13601E+04  2.42197E+03 -1.04079E+04  6.77470E+03 -5.50200E+03  6.70106E+03 -2.83140E+02
  3.35886E+03  3.48240E+03 -5.39377E+02  2.75795E+03 -2.03791E+03 -1.69382E+01  4.61175E+02 -2.65389E+03
  3.25322E+03 -1.53452E+03  4.15993E+03  1.23357E+03  3.06401E+03  3.97564E+03  5.82756E+02  5.88155E+03
 -4.49794E+03  4.76950E+03 -7.41572E+03  4.20188E+02 -6.42141E+03 -4.93415E+03 -1.11898E+03 -8.57057E+03
  5.00302E+03 -7.26168E+03  8.02134E+03 -2.39199E+03  8.17348E+03  1.93194E+03  4.86865E+03  6.32584E+03
  1.31493E+03  7.33950E+03 -2.83431E+03  5.58512E+03 -4.45594E+03  3.40853E+03 -3.80442E+03  4.39678E+02
 -2.07587E+03 -7.41833E+01 -1.74259E+03  7.93944E+02 -3.67598E+03  9.95621E+02 -5.65150E+03 -7.46758E+02
 -4.94064E+03 -3.90591E+03 -1.96271E+03 -7.41685E+03  3.60380E+03 -7.39763E+03  6.64329E+03 -3.72269E+03
  6.85047E+03  1.17243E+03  3.71573E+03  4.96722E+03 -8.09976E+02  6.87677E+03 -5.19947E+03  4.41126E+03
