 $NMID ID='MM_0lb_SNR800_18hz_g50_39.RAW', FMTDAT='(8E13.5)'
 TRAMP=1., VOLUME=1. $END
  3.09871E+05  2.52203E+02  3.37365E+05  2.50650E+05  8.45031E+04  3.37621E+05 -1.32501E+05  2.50604E+05
 -1.89710E+05  8.25559E+04 -1.11134E+05 -3.27042E+04  1.21934E+03 -5.04205E+04  5.39505E+04  3.54653E+02
  3.52583E+04  5.28281E+04 -1.70779E+04  7.50622E+04 -6.02222E+04  6.27237E+04 -8.33414E+04  3.17052E+04
 -8.01535E+04 -1.14165E+04 -5.66621E+04 -5.03388E+04 -1.49304E+04 -6.86863E+04  2.69839E+04 -4.50477E+04
  3.95824E+04  4.01829E+03  1.61079E+04  4.71020E+04 -3.39939E+04  4.64941E+04 -6.54643E+04 -6.74230E+02
 -5.23564E+04 -5.61983E+04 -6.20396E+03 -7.57540E+04  3.34720E+04 -5.37688E+04  4.67681E+04 -1.66142E+04
  4.21582E+04  1.10945E+04  3.07558E+04  2.46594E+04  1.58509E+04  2.84192E+04 -5.31876E+03  2.68131E+04
 -2.17764E+04  1.26479E+04 -1.87533E+04 -4.77798E+03  4.70695E+03 -7.42705E+03  2.13682E+04  1.14052E+04
  7.09235E+03  3.36611E+04 -3.10794E+04  3.42956E+04 -6.16626E+04  2.03129E+03 -5.56255E+04 -4.14484E+04
 -1.24196E+04 -6.14671E+04  3.85406E+04 -4.36502E+04  5.59678E+04 -1.84556E+03  3.24857E+04  3.11274E+04
 -6.41271E+03  3.39134E+04 -2.87605E+04  1.38925E+04 -2.79862E+04 -5.38730E+03 -1.50041E+04 -1.02077E+04
 -7.45769E+03 -1.17695E+04 -9.13818E+02 -1.69153E+04  6.84657E+03 -2.30520E+04  1.50899E+04 -1.38667E+04
  1.19735E+04  4.52522E+03 -6.72762E+03  1.30003E+04 -1.98079E+04 -2.87238E+03 -7.82951E+03 -3.11121E+04
  2.12876E+04 -4.10938E+04  4.54484E+04 -1.86537E+04  4.27103E+04  1.87347E+04  1.47899E+04  4.21781E+04
 -1.55850E+04  3.15788E+04 -2.36094E+04  1.37576E+03 -8.62432E+03 -2.71317E+04  2.03929E+04 -3.18546E+04
  3.86219E+04 -7.59354E+03  3.24131E+04  2.30031E+04  1.60164E+04  4.34854E+04 -7.64474E+03  4.62868E+04
 -2.91844E+04  3.07177E+04 -3.84368E+04  8.51646E+03 -3.93624E+04 -1.54693E+04 -2.16230E+04 -3.51875E+04
  7.04737E+03 -3.49256E+04  2.97071E+04 -1.30502E+04  2.72834E+04  1.04308E+04  3.45270E+03  1.81803E+04
 -1.33610E+04  7.44853E+03 -9.33570E+03 -7.68070E+03  5.78677E+03 -1.01583E+04  1.75433E+04  6.42599E+03
  1.23901E+04  2.15056E+04 -6.85618E+03  2.38061E+04 -2.18432E+04  9.68185E+03 -2.56639E+04 -6.05982E+03
 -1.76252E+04 -1.67577E+04 -6.54225E+03 -1.78566E+04  3.81112E+03 -1.57868E+04  1.31724E+04 -1.50144E+04
  2.23545E+04 -1.18273E+04  2.90797E+04  1.50272E+03  2.19020E+04  1.68757E+04  4.23800E+03  3.31239E+04
 -1.66317E+04  2.81721E+04 -2.62372E+04  9.53358E+03 -1.94977E+04 -1.02336E+04 -3.90142E+03 -1.38221E+04
  2.64997E+03 -3.74825E+03 -3.00684E+03  5.74664E+03 -1.34720E+04  5.58399E+03 -1.38634E+04 -5.59473E+03
 -9.16992E+03 -1.59705E+04  4.59860E+03 -2.02216E+04  1.33109E+04 -1.44102E+04  1.51057E+04 -1.37072E+03
  9.41847E+03  1.11793E+04 -1.17201E+03  1.61183E+04 -1.09189E+04  9.37524E+03 -1.61487E+04 -3.52806E+03
 -1.20777E+04 -1.46199E+04 -1.41081E+03 -1.97786E+04  9.07395E+03 -1.58409E+04  1.64716E+04 -7.76904E+03
  1.51382E+04  7.10967E+02  1.07633E+04  4.13772E+03  5.45533E+03  6.53196E+02  7.84991E+03 -1.32204E+03
  1.42963E+04  2.77652E+03  1.53044E+04  1.32121E+04  9.79540E+03  2.58379E+04 -2.94308E+03  2.78143E+04
 -1.65777E+04  2.16314E+04 -2.58339E+04  1.03968E+04 -2.63595E+04 -2.05203E+03 -2.24939E+04 -1.49692E+04
 -1.07341E+04 -2.13669E+04  7.31272E+03 -1.97814E+04  1.74133E+04 -1.09104E+04  1.61638E+04  4.19255E+03
  6.71645E+03  1.17686E+04 -7.39409E+03  1.08632E+04 -1.35612E+04  2.68780E+03 -1.06132E+04 -8.36339E+03
 -1.34541E+02 -1.30213E+04  6.64784E+03 -9.96708E+03  8.40447E+03 -1.12885E+03  1.61662E+03  5.35798E+03
 -5.81620E+03  1.52886E+03 -3.84801E+03 -4.65159E+03  4.44683E+02 -1.06801E+04  8.00090E+03 -1.07666E+04
  1.30433E+04 -5.09816E+03  1.26097E+04  2.82249E+03  1.11987E+04  1.02847E+04  5.49261E+03  1.49503E+04
 -1.79878E+03  1.66092E+04 -1.02120E+04  1.05719E+04 -1.18883E+04  2.98058E+03 -9.03813E+03 -2.36002E+03
 -4.98335E+03 -3.63862E+03 -6.23658E+02  1.26621E+03 -1.90163E+03  1.92348E+03 -3.82192E+03  3.55495E+03
 -8.51827E+03 -2.84224E+02 -9.07335E+03 -7.51587E+03 -3.75021E+03 -1.18896E+04  3.69471E+03 -8.92796E+03
  7.47228E+03 -4.01025E+03  5.56003E+03  2.32381E+03  4.49175E+02  3.42135E+03 -3.53691E+03  5.16635E-01
 -3.47801E+03 -5.59056E+03 -6.79781E+02 -7.41747E+03  4.15243E+03 -8.30571E+03  1.04413E+04 -4.24782E+03
  1.24896E+04  8.19148E+02  9.25113E+03  6.56862E+03  1.93758E+03  9.33294E+03 -5.49540E+03  8.52188E+03
 -7.15880E+03  2.75094E+03 -3.62304E+03 -1.31927E+03  1.56536E+03 -1.95689E+03  4.79117E+03 -1.15484E+03
  4.32896E+03  3.76112E+03  9.70177E+02  6.52730E+03 -4.79214E+03  6.66401E+03 -8.24410E+03  1.92587E+03
 -5.10671E+03 -3.95248E+03 -8.61145E+01 -6.84183E+03  3.79784E+03 -3.30082E+03  3.64513E+03  9.46437E+02
  5.19173E+02  3.55403E+03 -4.14945E+03  4.93754E+03 -5.31405E+03  2.44329E+03 -4.94659E+03 -1.28456E+03
 -3.01854E+03 -6.54412E+03  1.25577E+03 -7.77563E+03  6.69822E+03 -4.94857E+03  6.87671E+03  9.99731E+02
  4.92604E+03  5.48333E+03  5.11248E+01  7.29695E+03 -4.82894E+03  4.33384E+03 -5.57033E+03 -4.42243E+02
 -6.16556E+03 -5.45460E+03 -1.29118E+03 -5.56294E+03  2.65012E+03 -5.01340E+03  3.08518E+03 -2.88844E+03
  2.84735E+03  2.49204E+02 -1.65670E+02  1.51742E+03  6.74777E+02 -3.55958E+02 -9.43762E+01 -2.16611E+03
  4.13527E+03 -9.70381E+02  5.72556E+03  7.68824E+02  5.73947E+03  3.92876E+03  5.50777E+03  7.76473E+03
 -1.42923E+03  9.22105E+03 -8.37165E+03  6.81414E+03 -1.07193E+04  1.13745E+03 -8.13475E+03 -2.96929E+03
 -4.67683E+03 -6.84013E+03 -2.70165E+02 -5.63401E+03  2.27143E+03 -2.37211E+03  1.78920E+03 -2.53210E+03
  1.33053E+03 -1.87131E+03  2.11379E+03 -2.41670E+03  3.81467E+03 -1.32353E+03  4.05783E+03  1.88727E+02
  4.63051E+03  1.26652E+03  1.12217E+03  3.38942E+03 -1.61785E+03  3.16772E+03 -4.79960E+03  2.73204E+03
 -5.31539E+03 -1.12626E+03 -2.04027E+03 -3.70793E+03  4.43306E+02 -5.36242E+03  3.28179E+03 -5.77428E+03
  5.56267E+03 -3.42653E+03  7.02326E+03  2.16272E+02  5.26431E+03  4.51680E+03  1.00129E+03  6.42473E+03
 -2.28768E+03  6.13314E+03 -3.57286E+03  2.09033E+03 -2.20739E+03 -9.21656E+02 -6.19284E+02 -6.83872E+02
 -5.90517E+02  5.15422E+02 -1.13350E+03  2.18434E+03 -2.76268E+03  1.16512E+03 -4.38535E+03 -6.38720E+02
 -1.61459E+03 -4.19827E+03  6.56360E+02 -4.73246E+03  2.83155E+03 -4.64704E+03  3.93737E+03 -1.19810E+03
  4.25424E+03  2.34595E+03  2.11854E+03  3.71254E+03 -5.99599E+02  4.58400E+03 -3.05462E+03  3.00719E+03
 -4.13834E+03  4.87862E+02 -3.56214E+03 -2.86999E+03 -3.27343E+02 -3.41709E+03  1.84168E+03 -2.62008E+03
  2.84289E+03 -1.34266E+03  1.83415E+03  2.75386E+02  5.13849E+02  1.86240E+03  8.21052E+02  4.68579E+02
  1.39777E+03  3.05434E+02  1.30679E+03  1.13125E+03  1.26917E+03  2.20519E+03  1.41642E+03  2.03274E+03
 -1.38748E+03  3.19165E+03 -2.53557E+03  4.43996E+03 -3.38194E+03  1.30425E+03 -4.26755E+03 -4.21299E+02
 -2.01514E+03 -4.13781E+03  4.78758E+02 -4.96241E+03  2.02885E+03 -2.91846E+03  3.10283E+03 -7.00338E+02
  2.75632E+03  1.89177E+03  3.52371E+02  2.46598E+03 -9.22820E+02  1.46000E+03 -8.89249E+02 -1.33120E+02
 -7.70646E+02 -1.89915E+03  1.34657E+03 -1.53583E+03  1.57385E+03 -8.75852E+02  1.59275E+03  5.25294E+02
  6.91334E+02  2.32289E+02  5.65587E+02 -3.24733E+02 -1.48740E+02  4.95780E+02  1.42619E+03 -3.29447E+02
  7.93590E+01 -1.78963E+02  2.09352E+03  8.88504E+02  7.98020E+01  2.46622E+03 -2.93413E+02  3.17380E+03
 -1.94381E+03  1.32593E+03 -2.27865E+03  3.70407E+02 -2.31986E+03 -1.00618E+03 -2.24547E+02 -1.11241E+03
  6.31231E+02 -1.40918E+03  9.61574E+02 -7.63363E+02  8.05640E+02  1.31097E+03 -5.55645E+02  1.15475E+03
 -1.56312E+03  6.36543E+02 -1.47579E+03 -1.56147E+03 -6.74617E+02 -2.17569E+03  2.79343E+02 -1.45803E+03
  7.70491E+02 -7.37096E+02  6.69301E+02  1.84535E+02  1.26065E+03 -7.56073E+01  1.24353E+02  1.10185E+03
 -3.79556E+02  1.50222E+02 -8.91101E+02 -1.08113E+02  5.71637E+02 -1.03009E+03  1.84639E+03 -8.91108E+02
  1.36282E+03  1.60974E+02  3.14585E+03  5.54509E+02  1.16541E+03  1.66394E+03 -2.16042E+02  2.13709E+03
 -1.37386E+03  2.42950E+02 -1.55044E+03  4.99797E+01 -8.18657E+02 -1.69176E+03  3.49263E+02 -4.62608E+02
  1.55818E+03 -3.24244E+02  8.10736E+02  8.20998E+02  2.47522E+02  1.33147E+03  2.58302E+02  1.29659E+03
 -3.81205E+02  1.19230E+03 -5.45335E+02  3.06151E+02 -1.70352E+02  3.98532E+02 -9.18080E+02  9.00331E+02
 -7.09234E+02  1.02771E+03 -1.97222E+03  4.01298E+02 -1.73418E+03  2.93863E+02 -2.45791E+03 -1.21775E+03
 -1.17994E+03 -2.39915E+03  7.28019E+02 -3.22128E+03  1.24963E+03 -2.43038E+03  3.02472E+03 -9.57112E+02
  2.50112E+03 -1.16346E+02  1.30076E+03  1.64276E+03 -5.77355E+02  1.73977E+03 -5.76440E+02  1.11297E+03
 -1.09869E+03  6.74011E+02 -6.32088E+02 -3.26739E+02 -3.68408E+02 -6.50180E+00 -6.76772E+02  1.69899E+02
 -1.10623E+03 -1.22829E+02 -8.62445E+02  8.37789E+01  2.48936E+02 -8.98810E+02 -3.31198E+02 -1.14015E+03
  1.03404E+03 -5.92766E+02  3.33121E+02  2.90758E+02  1.11961E+03  8.20153E+02 -4.02199E+02  1.83832E+03
 -9.48166E+02  2.09455E+03 -1.66048E+03  1.36209E+03 -1.65983E+03 -2.40471E+02 -1.43166E+03 -1.31827E+03
 -1.02451E+03 -1.42402E+03  5.05074E+02 -1.28039E+03  7.55792E+02 -5.45835E+02  1.05205E+03  2.41517E+02
  5.86467E+02  4.22111E+02  4.81887E+00  2.87802E+02 -3.59761E+02 -1.07392E+01 -4.78866E+01 -5.56569E+01
  3.47240E+02  1.54908E+02  6.07609E+02  2.19498E+02 -1.28943E+01  4.78044E+02  1.00098E+02  6.16759E+02
 -6.05777E+02  7.17463E+02 -7.02323E+02  1.95697E+02 -1.08667E+03 -4.52302E+02 -2.07589E+01 -1.35241E+03
  4.42381E+02 -9.59054E+02  6.42295E+02 -3.30069E+01  8.65614E+02 -6.37605E+02  4.31093E+02  1.10483E+03
  8.58495E+01  3.79032E+02 -2.19568E+02  5.62040E+02 -6.54537E+02  6.92612E+02 -6.05699E+02 -1.02881E+02
 -2.58743E+02 -2.85760E+02 -1.12356E+02 -2.12141E+02 -3.28268E+02  5.75277E+01 -6.64364E+02 -2.80805E+02
 -1.00803E+03  3.13161E+02 -2.11839E+02 -1.06359E+03  7.26271E+02 -1.58316E+03  7.10508E+02 -2.79042E+02
  6.74598E+02 -8.66181E+01 -6.09445E+02  5.21863E+02  7.21598E+01  8.18618E+02 -2.99932E+02  5.39682E+02
