 $NMID ID='MM_0lb_SNR800_17hz_g55_15.RAW', FMTDAT='(8E13.5)'
 TRAMP=1., VOLUME=1. $END
  3.09832E+05  6.86160E+02  3.37896E+05  2.50620E+05  8.45919E+04  3.37640E+05 -1.32078E+05  2.50988E+05
 -1.90207E+05  8.30641E+04 -1.11567E+05 -3.26094E+04  1.03598E+03 -5.04332E+04  5.41460E+04 -6.79417E+01
  3.50973E+04  5.28792E+04 -1.68780E+04  7.56354E+04 -6.08830E+04  6.34974E+04 -8.36143E+04  3.16623E+04
 -8.07371E+04 -1.14214E+04 -5.70668E+04 -5.11046E+04 -1.51811E+04 -6.92079E+04  2.70977E+04 -4.51749E+04
  3.96465E+04  3.72689E+03  1.57538E+04  4.74940E+04 -3.43230E+04  4.68796E+04 -6.63394E+04 -2.70443E+02
 -5.29738E+04 -5.64687E+04 -6.63290E+03 -7.61392E+04  3.36578E+04 -5.44312E+04  4.75218E+04 -1.68445E+04
  4.26052E+04  1.12031E+04  3.13109E+04  2.50228E+04  1.60794E+04  2.91542E+04 -5.13975E+03  2.73351E+04
 -2.19733E+04  1.25489E+04 -1.85400E+04 -4.58945E+03  5.24065E+03 -7.46152E+03  2.20359E+04  1.18035E+04
  7.18499E+03  3.46929E+04 -3.13506E+04  3.47923E+04 -6.27844E+04  2.18153E+03 -5.63250E+04 -4.22865E+04
 -1.24060E+04 -6.23078E+04  3.91029E+04 -4.45444E+04  5.71053E+04 -2.15520E+03  3.32496E+04  3.16547E+04
 -6.37219E+03  3.50259E+04 -2.98121E+04  1.48768E+04 -2.92299E+04 -4.92393E+03 -1.59174E+04 -1.07770E+04
 -8.03032E+03 -1.22169E+04 -8.21734E+02 -1.75104E+04  6.95015E+03 -2.27698E+04  1.54645E+04 -1.35999E+04
  1.19282E+04  4.89960E+03 -7.83265E+03  1.30490E+04 -2.06677E+04 -3.61748E+03 -8.19657E+03 -3.22098E+04
  2.20206E+04 -4.25016E+04  4.70197E+04 -1.93941E+04  4.39482E+04  1.91516E+04  1.51570E+04  4.32601E+04
 -1.57530E+04  3.22309E+04 -2.45428E+04  1.30074E+03 -9.08154E+03 -2.72432E+04  2.05830E+04 -3.30560E+04
  4.00254E+04 -8.32775E+03  3.37880E+04  2.30352E+04  1.71287E+04  4.47430E+04 -7.68471E+03  4.81211E+04
 -3.01871E+04  3.22601E+04 -4.01390E+04  8.92932E+03 -4.10598E+04 -1.59520E+04 -2.24988E+04 -3.64003E+04
  7.46049E+03 -3.62626E+04  3.06666E+04 -1.37206E+04  2.83650E+04  1.06191E+04  3.53556E+03  1.87523E+04
 -1.33569E+04  7.79586E+03 -1.00429E+04 -7.86197E+03  5.72886E+03 -1.04241E+04  1.77768E+04  6.11675E+03
  1.27603E+04  2.17478E+04 -6.14395E+03  2.40611E+04 -2.18048E+04  1.05484E+04 -2.67807E+04 -5.39483E+03
 -1.89746E+04 -1.68307E+04 -7.48888E+03 -1.88644E+04  3.96249E+03 -1.73444E+04  1.43277E+04 -1.66061E+04
  2.39323E+04 -1.25869E+04  3.05133E+04  2.14042E+03  2.26286E+04  1.83135E+04  4.16757E+03  3.44382E+04
 -1.70280E+04  2.90303E+04 -2.71154E+04  1.02393E+04 -2.05830E+04 -1.05569E+04 -4.11894E+03 -1.35762E+04
  2.19661E+03 -3.51788E+03 -3.70297E+03  5.76568E+03 -1.47839E+04  4.99193E+03 -1.47173E+04 -6.28001E+03
 -9.29286E+03 -1.73173E+04  4.80177E+03 -2.13214E+04  1.40080E+04 -1.53473E+04  1.63389E+04 -1.44752E+03
  1.02542E+04  1.21579E+04 -1.13845E+03  1.75341E+04 -1.19104E+04  9.61592E+03 -1.73521E+04 -3.78060E+03
 -1.29011E+04 -1.56082E+04 -1.68674E+03 -2.13494E+04  9.59296E+03 -1.72499E+04  1.77313E+04 -8.32282E+03
  1.60792E+04  7.32705E+02  1.17411E+04  4.29546E+03  5.96052E+03  6.14330E+02  8.35791E+03 -1.68970E+03
  1.56795E+04  2.76534E+03  1.72193E+04  1.41704E+04  1.08019E+04  2.74411E+04 -3.11307E+03  3.03698E+04
 -1.77477E+04  2.40252E+04 -2.81303E+04  1.18685E+04 -2.95029E+04 -1.80252E+03 -2.45406E+04 -1.67507E+04
 -1.12303E+04 -2.40255E+04  8.06052E+03 -2.18128E+04  1.92177E+04 -1.24239E+04  1.73398E+04  4.37061E+03
  6.96687E+03  1.30995E+04 -8.02020E+03  1.15669E+04 -1.47479E+04  2.52282E+03 -1.12897E+04 -8.83022E+03
  2.46767E+01 -1.36186E+04  7.15633E+03 -1.03774E+04  9.11703E+03 -1.46853E+03  1.74488E+03  5.69214E+03
 -6.30368E+03  1.78010E+03 -4.99367E+03 -5.05449E+03  2.62479E-01 -1.19418E+04  8.57312E+03 -1.17966E+04
  1.41412E+04 -5.98819E+03  1.45156E+04  3.12484E+03  1.32851E+04  1.09654E+04  5.84977E+03  1.68913E+04
 -2.23489E+03  1.89413E+04 -1.16961E+04  1.19155E+04 -1.34878E+04  3.15572E+03 -9.60588E+03 -2.25749E+03
 -4.87210E+03 -3.97229E+03 -8.30902E+02  1.07282E+03 -2.22076E+03  2.45793E+03 -4.41290E+03  3.92285E+03
 -9.14570E+03 -5.21743E+02 -9.70841E+03 -8.03689E+03 -4.18600E+03 -1.30564E+04  3.98379E+03 -9.46845E+03
  8.62873E+03 -4.31158E+03  6.23174E+03  2.44336E+03  6.39533E+02  3.59982E+03 -4.21800E+03 -1.88416E+02
 -4.04978E+03 -5.88043E+03 -5.27030E+02 -8.45439E+03  5.05444E+03 -9.24489E+03  1.16874E+04 -5.02217E+03
  1.39850E+04  8.97842E+02  1.01854E+04  7.45630E+03  2.05419E+03  1.05407E+04 -6.18935E+03  9.67152E+03
 -8.06106E+03  3.01002E+03 -3.96533E+03 -1.96395E+03  1.36231E+03 -2.36088E+03  5.27256E+03 -9.29417E+02
  4.81403E+03  3.90354E+03  1.19414E+03  7.33223E+03 -5.32601E+03  7.46805E+03 -9.25069E+03  1.70747E+03
 -5.80009E+03 -4.37626E+03  3.87279E+02 -7.83971E+03  4.63495E+03 -3.69381E+03  4.81920E+03  1.25974E+03
  7.68660E+02  3.88103E+03 -4.88935E+03  5.80190E+03 -6.35837E+03  2.69629E+03 -6.16570E+03 -1.40044E+03
 -3.71491E+03 -7.59432E+03  1.53463E+03 -8.80799E+03  7.50580E+03 -5.92829E+03  8.04085E+03  1.47535E+03
  5.26448E+03  6.64415E+03  2.03769E+02  8.28169E+03 -5.69466E+03  4.94589E+03 -6.36989E+03 -9.79686E+02
 -6.37821E+03 -5.79466E+03 -1.52285E+03 -6.08479E+03  3.14905E+03 -5.24309E+03  3.82625E+03 -3.16745E+03
  3.01438E+03  3.48761E+02 -2.81170E+02  1.38341E+03  1.52141E+02 -8.16720E+02  3.97629E+02 -2.57523E+03
  4.85633E+03 -1.42034E+03  6.77156E+03  8.79967E+02  7.09426E+03  4.04466E+03  6.25965E+03  9.33050E+03
 -1.75705E+03  1.08653E+04 -9.41452E+03  8.01345E+03 -1.21928E+04  1.43414E+03 -9.69727E+03 -3.40777E+03
 -4.88065E+03 -7.87138E+03 -4.30978E+02 -6.31452E+03  2.53463E+03 -3.02906E+03  2.12794E+03 -2.47444E+03
  1.72680E+03 -1.99572E+03  2.45951E+03 -2.64319E+03  3.93187E+03 -1.65814E+03  4.43496E+03  3.70391E+02
  5.25076E+03  1.42941E+03  2.11297E+03  4.23757E+03 -1.39305E+03  3.86131E+03 -5.24204E+03  3.09508E+03
 -5.92042E+03 -1.38715E+03 -3.03102E+03 -4.10473E+03  3.26833E+02 -6.10452E+03  4.08631E+03 -6.73198E+03
  6.69627E+03 -4.01723E+03  8.21670E+03  5.92669E+02  5.83000E+03  5.15868E+03  1.18837E+03  7.27981E+03
 -2.76808E+03  6.84474E+03 -4.37644E+03  2.20515E+03 -2.32849E+03 -1.00545E+03 -7.52794E+02 -8.68409E+02
 -3.04574E+02  3.66899E+02 -1.20994E+03  1.91663E+03 -2.67339E+03  1.49460E+03 -4.57519E+03 -7.12034E+02
 -2.18248E+03 -4.74675E+03  6.13910E+02 -5.71356E+03  3.90927E+03 -5.55338E+03  4.78257E+03 -1.70558E+03
  4.96179E+03  3.22575E+03  2.64838E+03  4.17087E+03 -1.15356E+03  5.55771E+03 -3.38789E+03  3.57442E+03
 -5.16676E+03  6.60780E+02 -4.12269E+03 -3.11480E+03 -4.85322E+02 -4.28110E+03  2.16386E+03 -3.13236E+03
  3.36547E+03 -1.61172E+03  2.23026E+03  7.86098E+02  7.62237E+02  1.82792E+03  7.19500E+02  7.71883E+02
  1.73049E+03  5.94927E+02  1.39400E+03  1.29026E+03  1.25561E+03  2.55620E+03  1.53490E+03  2.19732E+03
 -1.59374E+03  3.79328E+03 -3.52234E+03  4.69864E+03 -4.08895E+03  1.41331E+03 -5.29550E+03 -9.85986E+02
 -2.29331E+03 -4.78052E+03  6.69849E+02 -6.10418E+03  2.55725E+03 -3.34492E+03  3.94598E+03 -1.10753E+03
  3.18215E+03  2.24227E+03  4.10571E+02  2.94448E+03 -1.08704E+03  1.63393E+03 -1.81881E+03 -2.70421E+02
 -8.33781E+02 -1.89445E+03  1.40622E+03 -1.46379E+03  1.80245E+03 -1.09005E+03  1.72673E+03  5.04898E+02
  1.19052E+03  6.86386E+02  9.86016E+02  5.66235E+01 -5.11745E+02  1.10434E+03  1.40863E+03 -2.66122E+02
  1.90892E+02 -8.41260E+01  1.96851E+03  1.01309E+03  2.73583E+02  2.82931E+03 -3.78188E+02  3.52105E+03
 -2.05589E+03  1.47429E+03 -2.74283E+03  5.61785E+02 -2.85664E+03 -1.03368E+03 -3.55575E+02 -1.45637E+03
  3.78302E+02 -1.72875E+03  1.24712E+03 -1.14820E+03  9.81469E+02  1.13208E+03 -5.09982E+02  1.72203E+03
 -2.03965E+03  8.50390E+02 -1.87755E+03 -1.43177E+03 -8.34949E+02 -2.43905E+03  2.63845E+02 -1.92420E+03
  9.29120E+02 -7.28124E+02  1.12198E+03  4.79698E+01  1.56872E+03  3.09055E+01  2.93138E+02  1.38281E+03
 -6.26294E+02  1.83905E+02 -1.27261E+03 -3.57674E+02  6.48468E+02 -1.27196E+03  2.10162E+03 -1.17308E+03
  1.93320E+03  2.35154E+02  3.25245E+03  1.29240E+03  1.22552E+03  2.57661E+03 -4.32522E+02  2.48278E+03
 -1.92722E+03  6.81023E+02 -1.95682E+03 -7.77300E+00 -1.50519E+03 -1.74409E+03  1.90406E+02 -6.26870E+02
  1.99904E+03 -9.55743E+02  1.28931E+03  8.27795E+02  3.35650E+02  1.61651E+03  1.76217E+02  1.37172E+03
 -4.51683E+02  1.27290E+03 -4.84786E+02  2.38775E+02 -7.14367E+01  6.08173E+02 -6.89862E+02  6.82808E+02
 -7.55503E+02  1.07294E+03 -1.81939E+03  4.79721E+02 -2.14515E+03  1.47370E+02 -3.17946E+03 -1.31180E+03
 -1.15553E+03 -3.17433E+03  8.08052E+02 -3.50274E+03  1.48855E+03 -3.42637E+03  3.47934E+03 -1.15049E+03
  3.20409E+03 -3.08683E+02  1.67404E+03  2.20401E+03 -3.97393E+02  2.04108E+03 -8.72418E+02  1.59439E+03
 -1.19715E+03  1.01529E+03 -8.01570E+02 -3.79923E+02 -7.41072E+02  2.44746E+02 -1.01705E+03 -1.54879E+02
 -1.42465E+03  6.11445E+01 -8.70513E+02  9.54347E+01  2.76915E+02 -9.11258E+02 -2.83504E+02 -1.17990E+03
  1.17055E+03 -8.25630E+02  1.01307E+03  1.86808E+02  1.57779E+03  1.41014E+03 -2.11118E+02  1.92046E+03
 -1.16811E+03  2.46072E+03 -2.16674E+03  1.88763E+03 -2.32803E+03 -4.34091E+02 -1.78534E+03 -1.90289E+03
 -9.96676E+02 -1.79197E+03  3.52412E+02 -2.05910E+03  1.36428E+03 -1.27831E+03  1.12546E+03 -6.69034E+01
  7.49160E+02  5.70559E+02 -1.08352E+02  2.97462E+02 -4.17574E+02  7.71171E-01 -3.39722E+01 -2.79939E+02
  5.16548E+02  6.59798E+01  2.30528E+02  5.56376E+02  3.66402E+02  6.06397E+02  2.26217E+02  5.28357E+02
 -8.30542E+02  7.79545E+02 -8.44015E+02  2.06200E+02 -1.21885E+03 -5.57233E+02 -1.87630E+02 -1.53516E+03
  9.52734E+02 -7.06313E+02  7.90002E+02 -2.28919E+02  1.19540E+03 -4.81627E+02  6.43385E+02  1.01322E+03
  5.38825E+02  9.93091E+02 -1.09471E+02  5.78556E+02 -8.75390E+02  8.11439E+02 -6.65932E+02  1.96183E+02
 -5.85341E+02 -3.10851E+02 -7.08485E+02 -5.33026E+01 -1.07498E+03  3.45947E+02 -1.23779E+03 -1.63929E+02
 -1.15317E+03 -2.72017E+02 -1.94156E+02 -1.06086E+03  1.01825E+03 -1.96305E+03  8.45735E+02 -5.66766E+02
  1.24028E+03  3.14111E+02 -7.91654E+01  3.38071E+02 -2.90471E+01  9.36586E+02 -4.83146E+02  1.00067E+03
