 $NMID ID='MM_0lb_SNR800_19hz_g50_5.RAW', FMTDAT='(8E13.5)'
 TRAMP=1., VOLUME=1. $END
  3.09728E+05  4.22393E+02  3.37605E+05  2.50268E+05  8.44315E+04  3.37185E+05 -1.32380E+05  2.50213E+05
 -1.89853E+05  8.26496E+04 -1.11139E+05 -3.28375E+04  1.23846E+03 -5.02993E+04  5.38548E+04 -2.89039E+01
  3.51060E+04  5.29748E+04 -1.71486E+04  7.47361E+04 -6.03046E+04  6.29574E+04 -8.29057E+04  3.14807E+04
 -7.94811E+04 -1.09966E+04 -5.63807E+04 -4.99898E+04 -1.49630E+04 -6.82208E+04  2.67840E+04 -4.50084E+04
  3.92151E+04  3.71515E+03  1.55021E+04  4.72680E+04 -3.41611E+04  4.63744E+04 -6.54289E+04 -7.64270E+02
 -5.19279E+04 -5.58285E+04 -6.52500E+03 -7.55208E+04  3.30503E+04 -5.35597E+04  4.64604E+04 -1.64009E+04
  4.17665E+04  1.09527E+04  3.09215E+04  2.43474E+04  1.58032E+04  2.82642E+04 -4.66014E+03  2.66978E+04
 -2.15088E+04  1.27362E+04 -1.92208E+04 -4.56026E+03  4.12927E+03 -7.56176E+03  2.10748E+04  1.08642E+04
  7.48881E+03  3.33117E+04 -3.05644E+04  3.37464E+04 -6.12868E+04  2.21185E+03 -5.54465E+04 -4.16574E+04
 -1.22644E+04 -6.08431E+04  3.82184E+04 -4.36114E+04  5.58079E+04 -1.74191E+03  3.17482E+04  3.05817E+04
 -6.47358E+03  3.31609E+04 -2.86708E+04  1.33455E+04 -2.78092E+04 -5.39143E+03 -1.46678E+04 -1.03513E+04
 -7.25099E+03 -1.13822E+04 -1.09093E+03 -1.65069E+04  6.48451E+03 -2.26187E+04  1.51839E+04 -1.39589E+04
  1.23459E+04  4.17705E+03 -6.48881E+03  1.30191E+04 -1.96150E+04 -2.60748E+03 -7.91881E+03 -3.06236E+04
  2.09272E+04 -4.03291E+04  4.46723E+04 -1.87545E+04  4.20638E+04  1.86958E+04  1.41683E+04  4.18689E+04
 -1.52109E+04  3.09825E+04 -2.33278E+04  1.07975E+03 -8.53401E+03 -2.67772E+04  2.03705E+04 -3.13121E+04
  3.80709E+04 -7.42972E+03  3.17116E+04  2.28512E+04  1.52283E+04  4.26101E+04 -7.56335E+03  4.52626E+04
 -2.86243E+04  2.98865E+04 -3.73289E+04  8.18818E+03 -3.85329E+04 -1.51863E+04 -2.10949E+04 -3.45504E+04
  6.79822E+03 -3.41216E+04  2.92873E+04 -1.24196E+04  2.70828E+04  1.08224E+04  2.96087E+03  1.77529E+04
 -1.29452E+04  7.31802E+03 -9.55749E+03 -7.77899E+03  5.88997E+03 -1.00697E+04  1.75095E+04  6.45445E+03
  1.25854E+04  2.15299E+04 -6.61766E+03  2.33773E+04 -2.13395E+04  9.11803E+03 -2.51423E+04 -6.08616E+03
 -1.68839E+04 -1.64738E+04 -5.36477E+03 -1.67737E+04  3.77991E+03 -1.45848E+04  1.27351E+04 -1.41169E+04
  2.11977E+04 -1.18996E+04  2.79092E+04  1.08101E+03  2.10421E+04  1.63336E+04  4.20008E+03  3.26921E+04
 -1.59815E+04  2.76037E+04 -2.58236E+04  9.49065E+03 -1.98555E+04 -1.04967E+04 -4.08233E+03 -1.39555E+04
  2.67320E+03 -4.40330E+03 -2.54388E+03  5.46964E+03 -1.29656E+04  5.22440E+03 -1.33426E+04 -4.81383E+03
 -8.62131E+03 -1.55848E+04  4.53382E+03 -1.93040E+04  1.27951E+04 -1.41277E+04  1.45850E+04 -1.14661E+03
  9.05911E+03  1.06181E+04 -9.83060E+02  1.57965E+04 -1.00325E+04  8.72384E+03 -1.50325E+04 -3.67125E+03
 -1.13256E+04 -1.39418E+04 -1.48674E+03 -1.89400E+04  8.70047E+03 -1.52586E+04  1.63335E+04 -7.15610E+03
  1.46832E+04  9.25794E+02  1.05565E+04  4.01090E+03  5.18132E+03  3.16416E+02  7.58161E+03 -1.40256E+03
  1.36735E+04  2.57256E+03  1.44922E+04  1.23486E+04  8.92257E+03  2.43562E+04 -3.29275E+03  2.63747E+04
 -1.57592E+04  2.01421E+04 -2.39329E+04  9.31332E+03 -2.46705E+04 -1.98182E+03 -2.10724E+04 -1.39247E+04
 -9.71737E+03 -2.01471E+04  6.65214E+03 -1.87498E+04  1.63758E+04 -1.09101E+04  1.52611E+04  3.49972E+03
  6.79029E+03  1.10074E+04 -7.32936E+03  1.00871E+04 -1.31415E+04  2.53572E+03 -1.02903E+04 -7.85967E+03
  8.94205E+01 -1.22483E+04  6.06459E+03 -9.21718E+03  7.76007E+03 -1.41726E+03  1.22466E+03  4.86633E+03
 -5.55848E+03  1.18512E+03 -3.34768E+03 -4.57738E+03  6.95764E+02 -1.02695E+04  7.78110E+03 -9.91899E+03
  1.20360E+04 -4.26127E+03  1.17260E+04  2.58487E+03  9.96159E+03  9.25016E+03  4.81262E+03  1.38797E+04
 -1.51855E+03  1.55979E+04 -9.57827E+03  1.00678E+04 -1.09523E+04  2.91686E+03 -8.36666E+03 -1.52991E+03
 -4.32792E+03 -3.22533E+03 -1.09952E+03  1.63763E+03 -2.09971E+03  1.64497E+03 -3.64901E+03  3.50618E+03
 -7.90768E+03 -2.68196E+02 -8.66995E+03 -6.92753E+03 -3.42317E+03 -1.13232E+04  3.41731E+03 -8.31192E+03
  7.12805E+03 -3.59415E+03  5.29708E+03  2.18868E+03  6.70004E+02  3.09651E+03 -3.16346E+03 -2.29001E+02
 -3.36927E+03 -5.18104E+03 -9.49313E+02 -7.01523E+03  4.08219E+03 -7.76425E+03  9.65448E+03 -4.10056E+03
  1.14386E+04  7.47800E+02  8.73455E+03  5.95484E+03  1.82760E+03  8.47403E+03 -5.11233E+03  7.99102E+03
 -6.71848E+03  2.71234E+03 -3.62581E+03 -1.06435E+03  1.05528E+03 -2.16187E+03  4.95645E+03 -1.22317E+03
  4.20254E+03  3.23717E+03  1.31285E+03  5.96932E+03 -4.39943E+03  6.28218E+03 -7.54714E+03  1.58830E+03
 -4.46873E+03 -3.57914E+03  3.29821E+02 -6.58994E+03  3.69795E+03 -3.10241E+03  3.32827E+03  6.47643E+02
  4.16334E+02  3.21334E+03 -3.94182E+03  4.33049E+03 -4.75686E+03  2.39265E+03 -4.29842E+03 -1.06222E+03
 -2.81736E+03 -5.93449E+03  1.13522E+03 -6.85912E+03  5.63137E+03 -4.77056E+03  5.90011E+03  9.11124E+02
  4.43450E+03  5.20645E+03  2.19143E+02  6.92449E+03 -4.89492E+03  4.32183E+03 -5.19824E+03 -1.03891E+02
 -5.42582E+03 -5.11093E+03 -1.52574E+03 -5.26135E+03  2.38813E+03 -4.76032E+03  2.78698E+03 -2.74160E+03
  2.65198E+03  5.25443E+01  1.48612E+01  1.17994E+03  6.90552E+02 -1.47778E+02  4.36897E+01 -1.73588E+03
  3.66810E+03 -8.07827E+02  4.85821E+03  8.13710E+02  5.48116E+03  2.99785E+03  5.11982E+03  6.90177E+03
 -8.94144E+02  7.86509E+03 -7.39163E+03  6.18661E+03 -9.18626E+03  9.77601E+02 -7.41558E+03 -2.45667E+03
 -4.06923E+03 -6.26159E+03 -5.74341E+02 -4.70375E+03  2.04248E+03 -2.12696E+03  1.64164E+03 -1.87393E+03
  1.17968E+03 -1.33066E+03  2.20777E+03 -2.44589E+03  3.36054E+03 -1.24017E+03  3.46249E+03  3.84358E+02
  4.37593E+03  9.70065E+02  1.07934E+03  3.25863E+03 -1.89280E+03  2.52207E+03 -4.06068E+03  2.46777E+03
 -4.83540E+03 -7.45913E+02 -1.56542E+03 -3.04486E+03  6.32952E+02 -4.50859E+03  2.96179E+03 -4.96263E+03
  4.96981E+03 -3.15552E+03  6.46909E+03  3.49790E+02  4.60271E+03  3.93808E+03  1.14199E+03  5.82738E+03
 -1.89969E+03  5.40790E+03 -3.22372E+03  1.54447E+03 -1.94516E+03 -1.12308E+03 -2.78622E+02 -3.77675E+02
 -7.36968E+02  5.84242E+02 -8.92426E+02  1.89412E+03 -2.45531E+03  9.43277E+02 -3.45363E+03 -3.98348E+02
 -1.20443E+03 -4.03403E+03  1.05087E+03 -4.43812E+03  2.64471E+03 -4.03305E+03  3.31830E+03 -1.09699E+03
  3.70091E+03  2.53000E+03  1.71724E+03  3.16299E+03 -8.65396E+02  4.38943E+03 -2.27728E+03  2.50074E+03
 -3.62053E+03  6.14684E+02 -3.10709E+03 -2.40875E+03 -1.17072E+02 -2.89460E+03  1.80499E+03 -2.27946E+03
  2.59464E+03 -1.21379E+03  1.65120E+03  3.53546E+02  4.49041E+02  1.80097E+03  7.14918E+02  5.87295E+02
  1.48954E+03  4.33931E+02  9.69049E+02  1.10085E+03  8.78971E+02  2.20828E+03  1.35288E+03  1.70220E+03
 -1.11351E+03  2.84935E+03 -2.28851E+03  3.83425E+03 -2.64000E+03  1.39888E+03 -3.89290E+03 -2.94886E+02
 -1.51782E+03 -3.13755E+03  6.37773E+02 -4.38188E+03  1.81403E+03 -2.29773E+03  2.84802E+03 -5.59971E+02
  2.40000E+03  1.58770E+03  5.64400E+02  1.69913E+03 -5.28805E+02  1.25424E+03 -6.62088E+02 -2.21260E+01
 -5.94706E+02 -1.37372E+03  1.16011E+03 -1.21843E+03  1.15524E+03 -9.49672E+02  1.43762E+03  4.85270E+02
  5.02526E+02  4.21160E+01  6.69553E+02 -4.35918E+02 -2.26051E+02  6.78872E+02  1.37611E+03 -1.48287E+02
 -2.49174E+02 -1.18514E+02  1.51663E+03  3.77188E+02  2.85574E+02  2.32187E+03 -3.12287E+02  2.83412E+03
 -1.41514E+03  9.10209E+02 -1.83356E+03  4.34200E+02 -1.89577E+03 -5.74723E+02 -2.33386E+02 -6.06660E+02
  4.05307E+02 -1.02540E+03  8.98767E+02 -8.49990E+02  6.07365E+02  1.03454E+03 -9.44455E+02  1.27165E+03
 -1.14338E+03  7.56641E+02 -1.06693E+03 -1.33296E+03 -5.68137E+02 -1.92814E+03 -1.03055E+01 -1.36812E+03
  4.83939E+02 -5.11791E+02  6.91768E+02  2.41862E+01  1.44942E+03 -3.76895E+02  2.93896E+02  8.20749E+02
 -3.91997E+02  9.32964E+01 -8.21232E+02  4.14959E+01  3.37584E+02 -5.08526E+02  1.82450E+03 -9.95252E+02
  1.14342E+03  8.02961E+01  2.80000E+03  5.06909E+02  1.25587E+03  1.39399E+03 -1.10936E+02  1.63376E+03
 -1.33640E+03  3.29670E+02 -1.29470E+03 -2.19368E+02 -6.84160E+02 -1.42279E+03  2.23782E+02 -3.22242E+02
  1.36817E+03 -5.50165E+02  6.53149E+02  7.09007E+02  2.60621E+02  1.48374E+03  2.32016E+02  8.34967E+02
 -5.52782E+02  1.13156E+03 -3.85171E+02  2.68664E+02 -1.60948E+02  4.37027E+02 -8.14503E+02  6.05173E+02
 -6.49972E+02  8.88103E+02 -1.57546E+03  4.33973E+02 -1.60927E+03  1.00838E+00 -2.12452E+03 -9.10797E+02
 -8.66497E+02 -1.94900E+03  4.46032E+02 -2.59480E+03  6.30199E+02 -2.27933E+03  2.24613E+03 -1.15886E+03
  2.08434E+03 -2.34455E+02  1.14605E+03  1.42223E+03 -6.18805E+02  1.25620E+03 -4.16253E+02  1.30543E+03
 -7.99420E+02  8.44129E+02 -3.59799E+02 -2.35090E+02 -4.33148E+02  1.47600E+02 -7.08858E+02  5.44636E+01
 -1.14802E+03 -2.03580E+02 -1.01878E+03 -6.90155E+00  2.41217E+02 -5.16217E+02 -3.36027E+02 -8.36789E+02
  1.17272E+03 -4.44596E+02  3.46564E+02  7.70349E+01  7.84783E+02  7.98800E+02 -6.14619E+02  1.14146E+03
 -9.17059E+02  1.89702E+03 -1.22158E+03  7.92398E+02 -1.58842E+03 -7.63875E+00 -9.04015E+02 -1.03874E+03
 -7.12952E+02 -6.81641E+02  3.25594E+02 -1.05979E+03  5.80572E+02 -2.00606E+02  5.90351E+02  3.60283E+02
  5.08234E+02  1.88350E+02  2.05587E+02  2.05007E+02 -2.87253E+02  8.42456E+01 -6.49621E+01 -1.04465E+02
  3.91544E+02  2.79467E+02  8.67829E+01  3.73301E+02 -3.47858E+02  6.98603E+02  5.17777E+02  2.36943E+02
 -6.54053E+02  4.06266E+02 -5.14500E+02  7.47298E+01 -5.89528E+02 -5.38183E+02  1.74240E+02 -7.75064E+02
  1.71320E+02 -4.42802E+02  3.47453E+02  2.31165E+02  8.77285E+02 -6.56546E+02  1.58984E+02  8.92452E+02
  2.56658E+02  1.23956E+01 -2.83310E+02  4.88606E+02 -6.70964E+02  6.57577E+02 -1.30919E+02  3.34075E+02
 -3.38804E+02 -2.05405E+02 -4.74391E+02  3.62637E+02 -7.05278E+02 -1.15301E+02 -6.55081E+02 -2.40805E+02
 -9.70472E+02  3.69332E+02 -5.33854E+02 -9.14196E+02  7.98377E+02 -1.37704E+03  5.80277E+02 -1.16636E+02
  5.90187E+02  2.80638E+02 -6.10908E+02  1.44930E+02  1.78519E+02  7.31969E+02 -5.42317E+02  5.63806E+02
