 $NMID ID='MM_0lb_SNR800_8hz_g40_68.RAW', FMTDAT='(8E13.5)'
 TRAMP=1., VOLUME=1. $END
  3.09465E+05  5.58935E+02  3.38138E+05  2.51037E+05  8.49861E+04  3.37844E+05 -1.32354E+05  2.51956E+05
 -1.90910E+05  8.39480E+04 -1.12836E+05 -3.24581E+04  3.08427E+02 -5.12078E+04  5.37986E+04 -1.73923E+02
  3.51690E+04  5.31110E+04 -1.66257E+04  7.60149E+04 -6.13288E+04  6.43220E+04 -8.54337E+04  3.23297E+04
 -8.24543E+04 -1.17041E+04 -5.80712E+04 -5.25802E+04 -1.48940E+04 -7.07795E+04  2.85150E+04 -4.64032E+04
  4.10412E+04  3.72857E+03  1.66416E+04  4.84128E+04 -3.49718E+04  4.86041E+04 -6.84814E+04 -1.19287E+02
 -5.50357E+04 -5.76740E+04 -7.05768E+03 -7.93718E+04  3.51490E+04 -5.68779E+04  4.95865E+04 -1.83292E+04
  4.58477E+04  1.17603E+04  3.27928E+04  2.66395E+04  1.62944E+04  3.07300E+04 -5.86948E+03  2.77642E+04
 -2.22318E+04  1.19646E+04 -1.79123E+04 -5.82834E+03  6.52912E+03 -7.38774E+03  2.37259E+04  1.37314E+04
  7.03029E+03  3.76644E+04 -3.36889E+04  3.72159E+04 -6.64728E+04  2.15956E+03 -5.88732E+04 -4.45536E+04
 -1.30870E+04 -6.59165E+04  4.20134E+04 -4.76102E+04  6.12110E+04 -2.49878E+03  3.68228E+04  3.48100E+04
 -5.67461E+03  3.95313E+04 -3.15895E+04  1.84376E+04 -3.36429E+04 -3.72089E+03 -1.94204E+04 -1.22547E+04
 -9.34309E+03 -1.51930E+04 -4.89535E+02 -1.93603E+04  8.98358E+03 -2.36682E+04  1.58805E+04 -1.27739E+04
  1.06146E+04  5.58711E+03 -1.04747E+04  1.24869E+04 -2.35546E+04 -6.44900E+03 -8.80811E+03 -3.77027E+04
  2.51648E+04 -4.70325E+04  5.17826E+04 -2.07847E+04  4.87374E+04  2.08255E+04  1.75421E+04  4.74047E+04
 -1.66496E+04  3.61094E+04 -2.78014E+04  2.06086E+03 -1.17030E+04 -2.90757E+04  2.16291E+04 -3.68621E+04
  4.46149E+04 -1.13579E+04  3.99698E+04  2.52184E+04  2.16082E+04  5.11673E+04 -8.45582E+03  5.65750E+04
 -3.56040E+04  3.81945E+04 -4.72480E+04  1.11712E+04 -4.75593E+04 -1.82676E+04 -2.65052E+04 -4.21783E+04
  7.96703E+03 -4.21871E+04  3.43014E+04 -1.71520E+04  3.19482E+04  1.15186E+04  4.98407E+03  2.11238E+04
 -1.39256E+04  9.48782E+03 -1.12424E+04 -7.78457E+03  5.89596E+03 -1.15374E+04  1.95004E+04  5.66327E+03
  1.49511E+04  2.26105E+04 -5.39059E+03  2.70510E+04 -2.36001E+04  1.43711E+04 -3.19655E+04 -2.93112E+03
 -2.56196E+04 -1.85462E+04 -1.18501E+04 -2.52514E+04  4.28725E+03 -2.56546E+04  2.02901E+04 -2.34994E+04
  3.22221E+04 -1.42562E+04  3.82875E+04  4.82132E+03  2.71269E+04  2.48121E+04  4.22960E+03  4.11774E+04
 -1.97761E+04  3.41093E+04 -3.06904E+04  1.19851E+04 -2.23073E+04 -1.01204E+04 -5.22379E+03 -1.26468E+04
  5.35106E+02 -1.01577E+03 -7.45846E+03  8.59709E+03 -2.01473E+04  5.28582E+03 -2.02918E+04 -9.51736E+03
 -1.18475E+04 -2.34756E+04  6.13920E+03 -2.77707E+04  1.89311E+04 -1.98401E+04  2.26281E+04 -1.67450E+03
  1.43974E+04  1.64645E+04 -1.38227E+03  2.32936E+04 -1.69731E+04  1.35135E+04 -2.37676E+04 -5.15579E+03
 -1.77051E+04 -2.13596E+04 -2.36495E+03 -2.81360E+04  1.32097E+04 -2.35788E+04  2.33553E+04 -1.22958E+04
  2.24565E+04 -3.94573E+02  1.59435E+04  5.55770E+03  8.56826E+03  1.09874E+03  1.22323E+04 -2.38653E+03
  2.22683E+04  2.84965E+03  2.58321E+04  1.83514E+04  1.78606E+04  3.77735E+04 -2.72925E+03  4.48957E+04
 -2.56997E+04  3.77222E+04 -4.25583E+04  1.94540E+04 -4.52130E+04 -3.03007E+03 -3.63291E+04 -2.65964E+04
 -1.42759E+04 -3.77903E+04  1.34712E+04 -3.26753E+04  2.84654E+04 -1.56406E+04  2.42010E+04  7.96896E+03
  8.52380E+03  1.87570E+04 -1.17000E+04  1.56264E+04 -2.05242E+04  2.35616E+03 -1.55503E+04 -1.29082E+04
 -3.19136E+02 -1.94290E+04  1.07358E+04 -1.45846E+04  1.35786E+04 -1.23063E+03  3.33272E+03  9.09680E+03
 -8.99636E+03  4.26132E+03 -9.35804E+03 -7.07487E+03 -1.90581E+03 -1.81993E+04  1.22516E+04 -2.05785E+04
  2.33199E+04 -1.16598E+04  2.67718E+04  3.34431E+03  2.39105E+04  1.85364E+04  1.08521E+04  2.97992E+04
 -5.36288E+03  3.16735E+04 -2.05383E+04  1.98986E+04 -2.29104E+04  4.08590E+03 -1.56068E+04 -5.95987E+03
 -6.45301E+03 -7.73145E+03 -8.45999E+02  4.91503E+02 -2.69452E+03  3.19011E+03 -7.34289E+03  5.16947E+03
 -1.44104E+04 -1.01997E+03 -1.50165E+04 -1.21511E+04 -6.04637E+03 -1.98719E+04  6.52618E+03 -1.56772E+04
  1.32018E+04 -6.47691E+03  9.06142E+03  4.98079E+03 -3.44697E+02  6.18083E+03 -8.06608E+03  1.19828E+02
 -7.53480E+03 -1.01365E+04 -1.31505E+03 -1.57006E+04  9.77716E+03 -1.66036E+04  2.02509E+04 -9.26586E+03
  2.41168E+04  2.59791E+03  1.78138E+04  1.47662E+04  3.75474E+03  1.97634E+04 -9.97420E+03  1.54700E+04
 -1.27504E+04  4.43002E+03 -6.67269E+03 -3.67817E+03  2.46631E+03 -4.73959E+03  8.49726E+03 -1.02765E+03
  7.76469E+03  7.56587E+03  1.05038E+03  1.29815E+04 -9.16843E+03  1.25750E+04 -1.59241E+04  2.55198E+03
 -1.07624E+04 -8.69099E+03  5.02237E+02 -1.37017E+04  8.94245E+03 -7.07428E+03  9.87647E+03  3.36623E+03
  2.09867E+03  1.07358E+04 -8.30303E+03  1.20102E+04 -1.37345E+04  5.59267E+03 -1.44068E+04 -5.43094E+03
 -8.16962E+03 -1.65465E+04  4.34104E+03 -1.87326E+04  1.60019E+04 -1.11077E+04  1.76364E+04  2.94682E+03
  1.05057E+04  1.41959E+04 -1.89467E+03  1.62686E+04 -1.25140E+04  8.95890E+03 -1.30983E+04 -1.23988E+03
 -1.08438E+04 -1.11638E+04 -1.95326E+03 -1.28000E+04  6.82119E+03 -1.01074E+04  8.23974E+03 -3.77280E+03
  5.28699E+03  2.20158E+03 -1.19697E+03  1.82649E+03 -9.76335E+02 -3.47766E+03  2.79924E+03 -7.48212E+03
  1.23602E+04 -5.31123E+03  1.66265E+04  2.05175E+03  1.64504E+04  1.16946E+04  1.02564E+04  2.18492E+04
 -5.34354E+03  2.50245E+04 -2.08099E+04  1.80454E+04 -2.70056E+04  3.75787E+03 -2.15346E+04 -9.61842E+03
 -1.06851E+04 -1.76335E+04 -6.30087E+02 -1.51449E+04  5.58453E+03 -8.65875E+03  5.11396E+03 -5.66403E+03
  3.99064E+03 -3.48872E+03  4.24725E+03 -4.20326E+03  6.09088E+03 -3.89268E+03  8.35446E+03 -1.15713E+03
  1.11709E+04  2.67914E+03  6.13700E+03  9.99240E+03 -2.26945E+03  1.16679E+04 -1.19965E+04  9.03298E+03
 -1.57842E+04 -1.72743E+03 -1.00496E+04 -1.10306E+04 -1.76108E+03 -1.65727E+04  8.79596E+03 -1.66961E+04
  1.71125E+04 -9.13229E+03  2.05437E+04  3.23371E+03  1.42419E+04  1.49122E+04  2.13178E+03  1.84083E+04
 -8.08872E+03  1.48727E+04 -1.07573E+04  5.13130E+03 -7.54379E+03 -2.11790E+03 -3.23716E+03 -1.97108E+03
 -1.13600E+03 -3.39479E+02 -2.83173E+03  3.07653E+03 -6.73895E+03  2.68000E+03 -1.07968E+04 -1.76790E+03
 -7.73199E+03 -1.04205E+04  1.73359E+02 -1.55577E+04  9.78184E+03 -1.41471E+04  1.57111E+04 -4.16106E+03
  1.53115E+04  7.22605E+03  6.79483E+03  1.39900E+04 -3.28456E+03  1.57202E+04 -1.13160E+04  9.86041E+03
 -1.48632E+04  3.82424E+02 -1.14450E+04 -9.63741E+03 -1.33535E+03 -1.31977E+04  6.87351E+03 -9.52280E+03
  1.02725E+04 -3.48684E+03  6.71196E+03  2.81426E+03  2.79183E+03  4.36239E+03  1.30011E+03  2.32547E+03
  2.65152E+03  1.33666E+03  3.74024E+03  1.99123E+03  5.33386E+03  5.76365E+03  3.75391E+03  8.40597E+03
 -3.14968E+03  1.23731E+04 -1.09670E+04  1.23627E+04 -1.64521E+04  3.33441E+03 -1.71302E+04 -7.12349E+03
 -8.26488E+03 -1.61098E+04  2.29447E+03 -1.76445E+04  9.85541E+03 -1.12471E+04  1.34045E+04 -2.66061E+03
  9.80759E+03  6.36414E+03  2.06538E+03  9.38000E+03 -4.31813E+03  6.09288E+03 -6.56593E+03 -1.10254E+03
 -3.21511E+03 -6.92469E+03  4.17366E+03 -7.15102E+03  6.78924E+03 -2.86936E+03  6.42979E+03  1.45531E+03
  4.18669E+03  3.70512E+03  1.49226E+03  2.95825E+03 -7.48040E+02  2.28019E+03  2.05704E+03 -8.12502E+02
  2.52982E+03 -1.47498E+03  6.72367E+03  3.04894E+03  3.80134E+03  8.95731E+03 -1.04832E+03  1.14173E+04
 -7.69427E+03  7.82458E+03 -1.05231E+04  2.18252E+03 -9.34265E+03 -3.48782E+03 -3.72761E+03 -6.51693E+03
  8.63514E+02 -6.57628E+03  4.22598E+03 -3.21591E+03  3.96606E+03  3.04693E+03 -1.46927E+03  5.31207E+03
 -6.89903E+03  2.88237E+03 -8.25462E+03 -3.80584E+03 -4.49920E+03 -8.97131E+03  1.02700E+03 -9.10105E+03
  5.46046E+03 -5.70695E+03  6.76157E+03 -8.58019E+02  5.55527E+03  2.69878E+03  8.74802E+02  4.81204E+03
 -3.39747E+03  1.69520E+03 -3.75620E+03 -3.49950E+03  1.55946E+03 -7.23374E+03  8.41660E+03 -5.91312E+03
  1.06593E+04  6.82068E+02  1.01865E+04  7.14001E+03  3.25703E+03  1.09770E+04 -3.98683E+03  1.05639E+04
 -8.87393E+03  4.94838E+03 -9.71552E+03 -1.34857E+03 -5.07976E+03 -7.10905E+03  1.67596E+03 -6.78542E+03
  6.66273E+03 -3.46645E+03  5.64932E+03  3.09466E+03  1.82730E+03  6.28403E+03 -7.91688E+02  5.24532E+03
 -3.15699E+03  3.33938E+03 -2.36652E+03  1.29171E+03 -1.81486E+03  9.56301E+02 -1.66085E+03  1.75167E+03
 -2.72954E+03  4.40918E+03 -7.80262E+03  3.40635E+03 -1.07684E+04 -2.00053E+02 -1.23121E+04 -7.19286E+03
 -6.78801E+03 -1.47319E+04  2.60505E+03 -1.67526E+04  1.05478E+04 -1.32792E+04  1.56092E+04 -5.27179E+03
  1.52758E+04  3.42900E+03  9.27743E+03  1.03408E+04  7.22341E+02  1.17884E+04 -4.34801E+03  8.78326E+03
 -6.54338E+03  3.04822E+03 -4.47726E+03 -1.29684E+03 -1.27476E+03 -1.19230E+03 -5.64184E+02  2.18572E+02
 -2.31002E+03  5.17461E+02 -2.45037E+03 -2.14009E+02 -8.64969E+02 -2.57600E+03  2.35765E+02 -4.08304E+03
  5.09165E+03 -3.74087E+03  7.39685E+03  3.95464E+01  8.33975E+03  6.54460E+03  2.36279E+03  1.15184E+04
 -5.43900E+03  1.36701E+04 -1.23842E+04  7.66703E+03 -1.45408E+04 -1.12847E+03 -1.08779E+04 -8.73695E+03
 -4.45197E+03 -1.24384E+04  2.75409E+03 -1.05599E+04  7.79087E+03 -6.37549E+03  7.91282E+03  2.97810E+02
  4.23535E+03  3.44537E+03 -7.79597E+02  3.33205E+03 -2.31292E+03 -3.43852E+02  2.54250E+02 -2.85209E+03
  3.55343E+03 -1.85428E+03  4.75190E+03  1.59619E+03  3.56359E+03  4.55785E+03  2.97334E+02  5.95803E+03
 -5.40264E+03  5.51840E+03 -8.22334E+03  6.10083E+02 -7.25476E+03 -5.85656E+03 -1.15358E+03 -1.01134E+04
  5.77384E+03 -8.55919E+03  9.36909E+03 -2.80242E+03  9.05876E+03  2.43430E+03  5.04740E+03  7.11196E+03
  9.67483E+02  8.07143E+03 -3.01227E+03  6.75434E+03 -5.06347E+03  3.62114E+03 -3.97596E+03  2.36083E+02
 -2.58543E+03 -4.32602E+02 -2.42360E+03  6.78939E+02 -4.13754E+03  1.79066E+03 -5.87372E+03 -1.54332E+03
 -6.08056E+03 -4.95419E+03 -1.50884E+03 -7.86379E+03  3.39911E+03 -8.35441E+03  7.40386E+03 -4.02833E+03
  7.75475E+03  7.30341E+02  4.40212E+03  5.93471E+03 -6.19855E+02  8.63458E+03 -6.05229E+03  5.10951E+03
