 $NMID ID='MM_0lb_SNR800_18hz_g60_60.RAW', FMTDAT='(8E13.5)'
 TRAMP=1., VOLUME=1. $END
  3.09810E+05  4.47000E+02  3.37811E+05  2.50593E+05  8.44916E+04  3.37661E+05 -1.32443E+05  2.50689E+05
 -1.90301E+05  8.29328E+04 -1.11599E+05 -3.25600E+04  1.21773E+03 -5.01825E+04  5.39444E+04  5.11678E+01
  3.52796E+04  5.28894E+04 -1.67450E+04  7.54890E+04 -6.06734E+04  6.35833E+04 -8.35485E+04  3.22576E+04
 -8.05145E+04 -1.15274E+04 -5.68935E+04 -5.09158E+04 -1.49777E+04 -6.91118E+04  2.70714E+04 -4.55284E+04
  3.97642E+04  3.96824E+03  1.63311E+04  4.74709E+04 -3.43441E+04  4.71115E+04 -6.64062E+04 -3.07548E+02
 -5.32383E+04 -5.65797E+04 -6.42751E+03 -7.66295E+04  3.36787E+04 -5.45507E+04  4.78743E+04 -1.68298E+04
  4.28276E+04  1.13350E+04  3.15370E+04  2.49916E+04  1.56409E+04  2.88616E+04 -5.25537E+03  2.67867E+04
 -2.16489E+04  1.27743E+04 -1.86014E+04 -4.74850E+03  5.07382E+03 -7.32258E+03  2.21608E+04  1.19962E+04
  7.15548E+03  3.47292E+04 -3.16665E+04  3.53200E+04 -6.26097E+04  2.35956E+03 -5.63842E+04 -4.24151E+04
 -1.24215E+04 -6.23609E+04  3.93234E+04 -4.46851E+04  5.74077E+04 -1.97714E+03  3.34672E+04  3.18824E+04
 -6.22245E+03  3.49814E+04 -2.94030E+04  1.53219E+04 -2.94853E+04 -4.58757E+03 -1.60685E+04 -1.06132E+04
 -7.87330E+03 -1.24820E+04 -5.48197E+02 -1.72924E+04  7.16745E+03 -2.30150E+04  1.52954E+04 -1.33939E+04
  1.17156E+04  4.67520E+03 -7.63000E+03  1.30467E+04 -2.05320E+04 -3.72706E+03 -8.48693E+03 -3.25184E+04
  2.20536E+04 -4.26430E+04  4.67912E+04 -1.92401E+04  4.41119E+04  1.93369E+04  1.52490E+04  4.35855E+04
 -1.58624E+04  3.25739E+04 -2.48054E+04  1.59615E+03 -9.03312E+03 -2.72768E+04  2.08999E+04 -3.28685E+04
  3.98622E+04 -8.54665E+03  3.41009E+04  2.32437E+04  1.68057E+04  4.50026E+04 -7.70714E+03  4.82468E+04
 -3.03360E+04  3.19880E+04 -4.03073E+04  9.34954E+03 -4.08312E+04 -1.60852E+04 -2.24385E+04 -3.65587E+04
  7.00729E+03 -3.62927E+04  3.04997E+04 -1.39214E+04  2.85465E+04  1.07701E+04  3.50630E+03  1.89704E+04
 -1.32068E+04  7.78936E+03 -9.86273E+03 -7.62541E+03  5.88788E+03 -1.07342E+04  1.76520E+04  6.42246E+03
  1.27634E+04  2.17657E+04 -6.47210E+03  2.44254E+04 -2.20118E+04  1.04997E+04 -2.67095E+04 -5.28867E+03
 -1.90688E+04 -1.68508E+04 -7.47292E+03 -1.86447E+04  3.85313E+03 -1.73732E+04  1.45076E+04 -1.64278E+04
  2.41040E+04 -1.20480E+04  3.04946E+04  1.97143E+03  2.26554E+04  1.81686E+04  4.20159E+03  3.44736E+04
 -1.69707E+04  2.92021E+04 -2.73584E+04  1.00682E+04 -2.02466E+04 -1.07452E+04 -4.22280E+03 -1.36820E+04
  2.09472E+03 -3.42319E+03 -3.82240E+03  6.07604E+03 -1.42922E+04  5.25983E+03 -1.48021E+04 -6.20227E+03
 -9.29895E+03 -1.72782E+04  4.91049E+03 -2.09623E+04  1.36353E+04 -1.51774E+04  1.62669E+04 -1.69248E+03
  9.85224E+03  1.17875E+04 -8.49350E+02  1.73407E+04 -1.15404E+04  9.97722E+03 -1.71602E+04 -3.84815E+03
 -1.25818E+04 -1.54628E+04 -1.29989E+03 -2.09722E+04  9.36403E+03 -1.71254E+04  1.78453E+04 -8.43293E+03
  1.62036E+04  5.85432E+02  1.17668E+04  3.98635E+03  5.87173E+03  8.69782E+02  8.45289E+03 -1.31647E+03
  1.54805E+04  2.51234E+03  1.67836E+04  1.35230E+04  1.04787E+04  2.72728E+04 -2.85579E+03  2.99359E+04
 -1.76175E+04  2.34235E+04 -2.75732E+04  1.11399E+04 -2.86609E+04 -2.18928E+03 -2.41929E+04 -1.65180E+04
 -1.07863E+04 -2.34270E+04  7.83320E+03 -2.15909E+04  1.84744E+04 -1.16918E+04  1.74115E+04  4.16197E+03
  6.97300E+03  1.25764E+04 -7.87725E+03  1.12085E+04 -1.46411E+04  2.34825E+03 -1.12934E+04 -8.73976E+03
 -2.55280E+02 -1.35910E+04  7.16533E+03 -1.02550E+04  8.95357E+03 -1.13640E+03  1.76135E+03  5.36741E+03
 -6.29772E+03  1.79733E+03 -4.38622E+03 -4.90428E+03  2.51816E+02 -1.17797E+04  8.27201E+03 -1.17334E+04
  1.38175E+04 -6.02892E+03  1.43541E+04  2.89776E+03  1.21253E+04  1.09843E+04  6.26081E+03  1.64255E+04
 -2.49603E+03  1.81708E+04 -1.13301E+04  1.17392E+04 -1.27460E+04  3.56070E+03 -9.46101E+03 -2.49826E+03
 -4.46935E+03 -3.49070E+03 -8.43476E+02  1.52855E+03 -2.00464E+03  2.18815E+03 -3.90373E+03  3.60277E+03
 -8.89995E+03 -4.86677E+02 -1.00027E+04 -7.51659E+03 -3.66562E+03 -1.25505E+04  4.09311E+03 -9.66632E+03
  8.03210E+03 -3.72977E+03  5.86817E+03  2.51050E+03  5.25028E+02  3.54356E+03 -3.85603E+03 -1.29416E+02
 -4.02951E+03 -5.79033E+03 -6.24728E+02 -8.36239E+03  4.70109E+03 -9.20589E+03  1.13674E+04 -4.56717E+03
  1.32167E+04  9.70148E+02  9.99777E+03  7.46188E+03  1.51837E+03  9.65543E+03 -5.78836E+03  9.09443E+03
 -7.50477E+03  2.88994E+03 -4.01389E+03 -1.35074E+03  1.45644E+03 -1.85048E+03  5.00318E+03 -1.20405E+03
  4.53588E+03  3.86994E+03  1.06985E+03  7.05631E+03 -5.20467E+03  7.09293E+03 -8.61799E+03  1.85122E+03
 -5.66869E+03 -4.29413E+03  2.81754E+02 -7.43379E+03  4.14677E+03 -3.55002E+03  4.12183E+03  1.24540E+03
  5.45898E+02  4.07801E+03 -4.38496E+03  5.22649E+03 -5.86921E+03  2.73009E+03 -5.80007E+03 -1.83739E+03
 -3.50305E+03 -6.99605E+03  1.17016E+03 -8.18526E+03  7.12581E+03 -5.50584E+03  7.53261E+03  9.72033E+02
  5.08547E+03  6.25443E+03  1.79008E+02  8.10750E+03 -5.95868E+03  4.97557E+03 -6.03153E+03 -4.33510E+02
 -6.37964E+03 -5.61540E+03 -1.49021E+03 -5.60039E+03  2.85845E+03 -5.11427E+03  3.34584E+03 -3.12616E+03
  2.93101E+03  5.16423E+02 -4.85110E+02  1.44244E+03  5.75129E+02 -2.71217E+02  5.09134E+02 -2.66919E+03
  4.61904E+03 -9.83050E+02  6.39458E+03  7.45058E+02  6.34763E+03  3.70187E+03  5.49254E+03  8.34346E+03
 -1.72674E+03  9.89119E+03 -9.04721E+03  7.26528E+03 -1.10434E+04  1.66272E+03 -8.87237E+03 -3.14847E+03
 -4.77885E+03 -7.31791E+03 -3.00359E+02 -5.99809E+03  2.12675E+03 -2.72102E+03  2.05388E+03 -2.45753E+03
  1.46690E+03 -1.62617E+03  2.49726E+03 -2.32309E+03  3.93532E+03 -1.54901E+03  4.28119E+03  4.33578E+02
  5.23159E+03  1.17169E+03  1.42440E+03  4.22491E+03 -1.58748E+03  3.37086E+03 -5.03139E+03  3.26857E+03
 -5.61402E+03 -1.39306E+03 -2.57423E+03 -4.03790E+03  5.53302E+02 -5.70397E+03  3.50382E+03 -5.99645E+03
  5.75618E+03 -3.90855E+03  7.58398E+03  2.99355E+02  5.51865E+03  4.78324E+03  1.19403E+03  6.58862E+03
 -2.44889E+03  6.03530E+03 -3.63876E+03  2.04932E+03 -2.11057E+03 -1.08184E+03 -4.91881E+02 -7.23735E+02
 -7.09471E+02  5.08201E+02 -9.49356E+02  1.83897E+03 -2.81264E+03  8.88359E+02 -4.38517E+03 -2.37447E+02
 -1.94000E+03 -4.75382E+03  8.16999E+02 -5.19352E+03  3.02368E+03 -4.99410E+03  4.55210E+03 -1.21031E+03
  4.81881E+03  2.51164E+03  2.03683E+03  3.86771E+03 -1.25187E+03  4.95155E+03 -3.11928E+03  3.02279E+03
 -4.36707E+03  6.21249E+02 -3.86756E+03 -2.55905E+03 -3.08936E+02 -3.75533E+03  1.63723E+03 -3.06189E+03
  2.88652E+03 -1.19562E+03  1.83307E+03  5.43404E+02  7.30740E+02  1.80220E+03  7.26157E+02  7.26542E+02
  1.57352E+03  6.09793E+02  1.29546E+03  1.04617E+03  1.10576E+03  2.34273E+03  1.56152E+03  1.85099E+03
 -1.52809E+03  3.12288E+03 -2.79248E+03  4.35668E+03 -3.81324E+03  1.15003E+03 -4.71986E+03 -7.74849E+02
 -2.07279E+03 -4.14658E+03  7.90527E+02 -5.38860E+03  2.18205E+03 -3.06494E+03  3.51367E+03 -8.57355E+02
  3.12370E+03  2.07312E+03  4.46636E+02  2.63181E+03 -8.65938E+02  1.43636E+03 -9.15132E+02  6.47426E+01
 -7.73223E+02 -1.66019E+03  1.42503E+03 -1.58519E+03  1.33223E+03 -1.18572E+03  1.43807E+03  3.65828E+02
  7.53817E+02  3.97186E+02  1.01548E+03 -1.54095E+02 -1.01415E+02  5.73979E+02  1.41570E+03 -1.26946E+02
  2.40766E+02 -3.62434E+02  2.02647E+03  6.95419E+02  4.29498E+02  2.32078E+03 -1.95653E+02  3.05813E+03
 -1.87809E+03  1.04975E+03 -2.37857E+03  4.31624E+02 -2.28019E+03 -8.71992E+02  2.03652E+01 -9.65563E+02
  3.32326E+02 -1.18077E+03  1.16791E+03 -8.93276E+02  7.92634E+02  1.47459E+03 -8.30022E+02  1.33546E+03
 -1.58379E+03  6.82207E+02 -1.22085E+03 -1.57670E+03 -8.28101E+02 -2.37417E+03  3.44073E+02 -1.58428E+03
  7.01726E+02 -5.72714E+02  1.08482E+03  2.17887E+02  1.65864E+03 -7.40705E+00  2.99711E+02  1.41546E+03
 -4.21941E+02  1.51249E+02 -9.89119E+02 -3.99584E+02  7.98331E+02 -8.80361E+02  1.90497E+03 -9.82499E+02
  1.40794E+03  2.37372E+02  2.89799E+03  9.94395E+02  1.10805E+03  1.98281E+03 -3.59937E+02  2.25024E+03
 -1.49140E+03  2.10140E+02 -1.37678E+03 -1.12323E+02 -8.17300E+02 -1.23343E+03  2.59093E+02 -7.30444E+02
  1.60874E+03 -5.80488E+02  6.76538E+02  7.02763E+02  7.83731E+01  1.50638E+03  4.99377E+02  1.48845E+03
 -3.05058E+02  1.03269E+03 -5.88110E+02  3.07827E+02 -1.47170E+02  1.53222E+02 -8.02102E+02  5.00596E+02
 -6.52219E+02  1.33637E+03 -1.87429E+03  7.15070E+02 -1.59600E+03 -5.16454E+01 -2.47401E+03 -1.15083E+03
 -1.30058E+03 -2.42832E+03  5.31987E+02 -3.07255E+03  1.20599E+03 -2.70687E+03  3.02997E+03 -7.75835E+02
  2.56557E+03 -7.15800E+01  1.10734E+03  1.86284E+03 -5.16279E+02  1.51170E+03 -7.35536E+02  1.31710E+03
 -1.06858E+03  6.13209E+02 -3.03915E+02 -2.60370E+02 -2.97666E+02  5.34049E+02 -5.73978E+02 -4.92337E+01
 -1.09097E+03  1.87134E+02 -7.60433E+02  1.00493E+02  2.72835E+02 -5.12576E+02 -6.50701E+02 -6.87129E+02
  1.46691E+03 -8.12247E+02  4.68024E+02  3.53556E+02  1.16383E+03  1.68185E+03 -4.86655E+02  1.76502E+03
 -9.30176E+02  2.25134E+03 -1.69623E+03  1.29347E+03 -2.00414E+03  1.96604E+01 -1.47665E+03 -1.24563E+03
 -4.81969E+02 -1.28770E+03  1.80865E+02 -1.26474E+03  7.69407E+02 -4.72555E+02  6.79418E+02  2.12799E+02
  1.09002E+03  4.29643E+02  1.82226E+02  3.98331E+02 -4.38869E+02 -1.83868E+02 -2.22828E+00 -2.49889E+02
  3.48265E+02  1.36136E+02  3.32799E+02  5.40055E+02 -4.92190E+01  3.35016E+02  5.60462E+02  2.89982E+02
 -7.15982E+02  4.41466E+02 -5.92452E+02 -8.67600E+01 -6.01867E+02 -1.96914E+02  1.64051E+02 -1.31200E+03
  7.05432E+02 -7.76582E+02  5.59665E+02 -1.53406E+02  9.37499E+02 -6.04876E+02  3.43645E+02  7.50738E+02
  2.22186E+02  7.82216E+02  1.34464E+02  6.21160E+02 -5.82488E+02  6.75823E+02 -3.10496E+02  3.27278E+01
 -3.03322E+02 -1.90028E+02 -5.87639E+02  2.14430E+02 -5.24422E+02  8.55136E+01 -9.36731E+02 -5.04796E+01
 -9.48559E+02  2.18207E+02 -3.81537E+02 -8.41673E+02  7.26114E+02 -1.35643E+03  8.56042E+02 -4.31620E+02
  6.72113E+02 -4.87415E+01 -5.34257E+02  4.04613E+02 -2.20219E+02  6.05558E+02 -4.10900E+02  4.71467E+02
