 $NMID ID='MM_0lb_SNR800_9hz_g60_16.RAW', FMTDAT='(8E13.5)'
 TRAMP=1., VOLUME=1. $END
  3.09800E+05 -4.79546E+01  3.37856E+05  2.51026E+05  8.49492E+04  3.38772E+05 -1.33004E+05  2.52365E+05
 -1.91192E+05  8.38053E+04 -1.12566E+05 -3.21175E+04  3.48437E+02 -5.10213E+04  5.40294E+04 -7.02783E+02
  3.57585E+04  5.26237E+04 -1.67727E+04  7.63715E+04 -6.16128E+04  6.45798E+04 -8.61367E+04  3.28943E+04
 -8.24034E+04 -1.15729E+04 -5.82998E+04 -5.26174E+04 -1.51777E+04 -7.18043E+04  2.82122E+04 -4.69211E+04
  4.17451E+04  3.55986E+03  1.65476E+04  4.86931E+04 -3.51772E+04  4.86319E+04 -6.86234E+04 -9.65338E+01
 -5.50489E+04 -5.83948E+04 -7.27207E+03 -7.88998E+04  3.48395E+04 -5.78249E+04  5.00468E+04 -1.83461E+04
  4.55469E+04  1.16623E+04  3.28964E+04  2.69136E+04  1.60692E+04  3.07082E+04 -6.03741E+03  2.79415E+04
 -2.27106E+04  1.17485E+04 -1.77243E+04 -5.85295E+03  7.34146E+03 -7.68416E+03  2.34474E+04  1.42142E+04
  7.05119E+03  3.80031E+04 -3.40812E+04  3.71429E+04 -6.69325E+04  1.99219E+03 -5.93609E+04 -4.48510E+04
 -1.29818E+04 -6.66838E+04  4.19687E+04 -4.81371E+04  6.20528E+04 -2.56422E+03  3.74825E+04  3.47029E+04
 -5.53113E+03  3.99238E+04 -3.26514E+04  1.91656E+04 -3.36528E+04 -3.33844E+03 -1.98066E+04 -1.20440E+04
 -1.00208E+04 -1.56965E+04 -3.66237E+02 -2.00328E+04  8.53521E+03 -2.38532E+04  1.60665E+04 -1.23915E+04
  9.97603E+03  6.52808E+03 -1.13257E+04  1.29592E+04 -2.41997E+04 -7.18884E+03 -8.68837E+03 -3.84028E+04
  2.56929E+04 -4.79763E+04  5.27739E+04 -2.13598E+04  4.94261E+04  2.13138E+04  1.75862E+04  4.78967E+04
 -1.69070E+04  3.68908E+04 -2.81849E+04  3.18013E+03 -1.16233E+04 -2.99070E+04  2.19716E+04 -3.73108E+04
  4.60451E+04 -1.13679E+04  4.12839E+04  2.52956E+04  2.22722E+04  5.23744E+04 -8.12473E+03  5.76970E+04
 -3.62439E+04  3.92430E+04 -4.87554E+04  1.09888E+04 -4.90106E+04 -1.88324E+04 -2.66373E+04 -4.28994E+04
  8.01523E+03 -4.34327E+04  3.46290E+04 -1.74128E+04  3.26736E+04  1.12934E+04  5.24207E+03  2.11166E+04
 -1.38481E+04  1.00637E+04 -1.13031E+04 -7.10433E+03  6.14070E+03 -1.16967E+04  1.90966E+04  5.44669E+03
  1.51387E+04  2.24840E+04 -4.91374E+03  2.74463E+04 -2.36759E+04  1.49972E+04 -3.25348E+04 -2.34588E+03
 -2.64330E+04 -1.88422E+04 -1.26418E+04 -2.56523E+04  4.25726E+03 -2.70923E+04  2.04922E+04 -2.41327E+04
  3.36569E+04 -1.42903E+04  3.94865E+04  5.42097E+03  2.74192E+04  2.53379E+04  4.42369E+03  4.22316E+04
 -2.05077E+04  3.50217E+04 -3.10303E+04  1.21856E+04 -2.34286E+04 -1.02741E+04 -5.04548E+03 -1.28777E+04
  6.69233E+02 -9.66056E+02 -8.44684E+03  8.38036E+03 -2.09968E+04  4.88501E+03 -2.13135E+04 -1.01014E+04
 -1.23536E+04 -2.37487E+04  6.49098E+03 -2.88602E+04  1.93327E+04 -2.09564E+04  2.37374E+04 -1.80354E+03
  1.55856E+04  1.70468E+04 -1.27967E+03  2.40931E+04 -1.71775E+04  1.37811E+04 -2.47330E+04 -5.07704E+03
 -1.78508E+04 -2.19250E+04 -2.40531E+03 -2.90458E+04  1.28433E+04 -2.43695E+04  2.41705E+04 -1.24709E+04
  2.27002E+04 -6.24925E+02  1.65402E+04  5.97787E+03  9.40440E+03  1.30736E+03  1.28298E+04 -2.25930E+03
  2.31250E+04  2.94376E+03  2.68260E+04  1.89858E+04  1.84061E+04  3.89927E+04 -2.70510E+03  4.62835E+04
 -2.64472E+04  3.92574E+04 -4.36454E+04  2.01194E+04 -4.72098E+04 -3.73367E+03 -3.79545E+04 -2.72203E+04
 -1.51278E+04 -3.95279E+04  1.35890E+04 -3.38373E+04  2.92375E+04 -1.55194E+04  2.53451E+04  8.66501E+03
  8.49937E+03  2.00054E+04 -1.23936E+04  1.61212E+04 -2.13642E+04  2.67557E+03 -1.56008E+04 -1.34589E+04
 -2.37967E+02 -2.00682E+04  1.05820E+04 -1.49855E+04  1.42818E+04 -1.33274E+03  3.60833E+03  9.08731E+03
 -9.34328E+03  4.54922E+03 -9.73345E+03 -7.11481E+03 -2.25936E+03 -1.89183E+04  1.21619E+04 -2.10307E+04
  2.43256E+04 -1.21914E+04  2.81140E+04  3.34405E+03  2.43858E+04  1.96894E+04  1.18308E+04  3.10647E+04
 -6.05829E+03  3.27421E+04 -2.19807E+04  2.03959E+04 -2.41412E+04  4.00787E+03 -1.59092E+04 -6.28383E+03
 -6.53967E+03 -7.57076E+03 -5.08619E+02  1.33895E+02 -3.00771E+03  3.69877E+03 -7.62012E+03  5.45355E+03
 -1.51954E+04 -1.10123E+03 -1.55785E+04 -1.23626E+04 -6.27117E+03 -2.01917E+04  6.66787E+03 -1.66210E+04
  1.35376E+04 -7.03925E+03  9.63915E+03  4.37334E+03 -3.46586E+02  6.51243E+03 -8.21605E+03 -4.99272E+02
 -7.81120E+03 -1.07123E+04 -9.70890E+02 -1.63163E+04  9.98430E+03 -1.75448E+04  2.10606E+04 -9.38339E+03
  2.44027E+04  2.32898E+03  1.84255E+04  1.52328E+04  3.38719E+03  2.02496E+04 -1.05106E+04  1.59599E+04
 -1.35005E+04  4.80563E+03 -6.78978E+03 -3.93534E+03  2.35084E+03 -4.59684E+03  8.75192E+03 -1.19304E+03
  7.64995E+03  7.18970E+03  1.19029E+03  1.37079E+04 -9.75088E+03  1.31068E+04 -1.63576E+04  2.82275E+03
 -1.10902E+04 -8.76781E+03  8.35882E+01 -1.42542E+04  9.13349E+03 -7.50671E+03  1.03523E+04  3.62553E+03
  2.98150E+03  1.06466E+04 -8.84727E+03  1.26235E+04 -1.46810E+04  5.43269E+03 -1.49291E+04 -5.42498E+03
 -8.43924E+03 -1.69699E+04  4.59646E+03 -1.93411E+04  1.65490E+04 -1.16498E+04  1.83075E+04  3.17400E+03
  1.08225E+04  1.44309E+04 -1.54355E+03  1.68190E+04 -1.24939E+04  9.18134E+03 -1.36302E+04 -1.42103E+03
 -1.13429E+04 -1.13053E+04 -1.04927E+03 -1.31478E+04  6.37497E+03 -9.91422E+03  8.61257E+03 -3.35248E+03
  5.33451E+03  2.35063E+03 -1.31725E+03  2.00888E+03 -9.57528E+02 -4.12292E+03  3.00563E+03 -8.63263E+03
  1.24108E+04 -4.85177E+03  1.74533E+04  1.81714E+03  1.66139E+04  1.21751E+04  1.10803E+04  2.26605E+04
 -5.38350E+03  2.57559E+04 -2.10328E+04  1.85393E+04 -2.76180E+04  3.55394E+03 -2.22601E+04 -9.69957E+03
 -1.11430E+04 -1.80929E+04 -4.58144E+01 -1.56534E+04  5.77453E+03 -8.64591E+03  5.27899E+03 -5.70705E+03
  4.33756E+03 -3.64488E+03  4.10112E+03 -4.09300E+03  5.92449E+03 -3.98745E+03  8.82702E+03 -1.90983E+03
  1.16766E+04  2.26360E+03  6.76550E+03  9.94084E+03 -2.72414E+03  1.25833E+04 -1.23276E+04  9.21075E+03
 -1.56660E+04 -1.18894E+03 -1.07148E+04 -1.10322E+04 -1.33632E+03 -1.73915E+04  9.34088E+03 -1.68074E+04
  1.77831E+04 -9.55284E+03  2.11044E+04  2.87409E+03  1.44043E+04  1.53376E+04  2.07287E+03  1.95651E+04
 -8.09279E+03  1.54910E+04 -1.11078E+04  5.56008E+03 -8.01594E+03 -1.43094E+03 -3.07185E+03 -2.41003E+03
 -1.63924E+03 -3.73873E+02 -2.53074E+03  2.80183E+03 -6.83266E+03  2.72806E+03 -1.02720E+04 -1.78041E+03
 -8.13671E+03 -1.09683E+04 -6.70141E+01 -1.59118E+04  9.62378E+03 -1.44398E+04  1.60274E+04 -4.45068E+03
  1.58000E+04  8.08021E+03  7.55712E+03  1.42632E+04 -2.67068E+03  1.63664E+04 -1.19243E+04  1.01505E+04
 -1.50868E+04  7.50079E+02 -1.15420E+04 -9.62682E+03 -1.17656E+03 -1.38285E+04  6.83267E+03 -1.02291E+04
  9.96141E+03 -3.03314E+03  6.99281E+03  2.74172E+03  2.07004E+03  4.62805E+03  1.46445E+03  2.10221E+03
  2.86123E+03  1.03146E+03  3.90935E+03  2.13802E+03  4.81122E+03  5.39072E+03  4.03707E+03  8.92953E+03
 -3.23141E+03  1.32802E+04 -1.13408E+04  1.28293E+04 -1.69766E+04  3.35213E+03 -1.73019E+04 -7.55336E+03
 -7.99240E+03 -1.66595E+04  2.77714E+03 -1.80868E+04  9.92020E+03 -1.13246E+04  1.42281E+04 -2.91922E+03
  1.06744E+04  5.82732E+03  2.37526E+03  9.19006E+03 -4.36679E+03  5.94625E+03 -6.73036E+03 -1.25972E+03
 -3.30778E+03 -6.87948E+03  3.60626E+03 -7.33661E+03  6.48197E+03 -3.57783E+03  6.93668E+03  1.43075E+03
  3.60090E+03  3.10703E+03  1.47601E+03  2.88436E+03 -8.71428E+02  2.54553E+03  1.94681E+03 -4.16854E+02
  2.84967E+03 -1.07786E+03  6.51124E+03  2.99186E+03  4.59095E+03  8.92446E+03 -1.24521E+03  1.13468E+04
 -8.14907E+03  7.72088E+03 -1.05296E+04  1.64656E+03 -9.43718E+03 -3.68760E+03 -3.88349E+03 -6.54439E+03
  9.03993E+02 -6.68324E+03  4.47446E+03 -3.11681E+03  3.85399E+03  3.28115E+03 -1.16685E+03  5.38410E+03
 -6.62999E+03  3.68225E+03 -7.80721E+03 -3.71239E+03 -4.29418E+03 -9.35170E+03  1.40611E+03 -9.29119E+03
  5.19832E+03 -5.49256E+03  6.82187E+03 -7.34286E+02  5.46076E+03  2.21217E+03  1.05473E+03  4.72689E+03
 -2.90971E+03  1.48416E+03 -4.13950E+03 -3.16908E+03  1.54572E+03 -7.17950E+03  8.02205E+03 -5.34536E+03
  1.08324E+04  1.07673E+03  1.02875E+04  7.35318E+03  3.40559E+03  1.13132E+04 -3.79289E+03  1.04067E+04
 -8.68853E+03  4.69340E+03 -9.25867E+03 -1.33039E+03 -5.16331E+03 -7.33738E+03  2.08936E+03 -7.06582E+03
  6.57356E+03 -3.21805E+03  5.59862E+03  2.86709E+03  1.77716E+03  5.53596E+03 -1.06751E+03  5.47385E+03
 -2.21581E+03  3.18473E+03 -2.75219E+03  9.83243E+02 -1.43952E+03  1.31021E+03 -1.41014E+03  1.97757E+03
 -2.60808E+03  4.15142E+03 -7.11328E+03  4.02291E+03 -1.03588E+04  2.38001E+02 -1.20285E+04 -7.39574E+03
 -6.64910E+03 -1.44145E+04  2.63682E+03 -1.67327E+04  1.07314E+04 -1.31306E+04  1.58030E+04 -4.78601E+03
  1.49247E+04  3.13415E+03  9.28265E+03  1.03534E+04  3.70978E+02  1.09722E+04 -4.46963E+03  8.82533E+03
 -6.61830E+03  2.79135E+03 -3.77380E+03 -8.60698E+02 -1.40800E+03 -8.50325E+02 -9.69626E+02 -9.84672E+01
 -1.83206E+03  6.66956E+01 -2.40008E+03 -1.77420E+02 -9.77042E+02 -2.82624E+03  2.52706E+02 -4.68332E+03
  4.70633E+03 -3.71994E+03  7.05370E+03  6.84546E+01  7.89524E+03  5.85817E+03  2.35999E+03  1.09437E+04
 -5.19594E+03  1.28669E+04 -1.19702E+04  7.56738E+03 -1.39956E+04 -9.09046E+02 -1.04247E+04 -7.93199E+03
 -4.00083E+03 -1.10030E+04  2.63109E+03 -1.10825E+04  7.14915E+03 -5.91007E+03  7.40340E+03  4.86712E+02
  3.82063E+03  3.64603E+03 -1.63278E+02  2.93405E+03 -1.92438E+03 -1.69862E+02  4.38694E+02 -2.84618E+03
  3.60865E+03 -1.58169E+03  4.54902E+03  1.39366E+03  2.79069E+03  4.44411E+03  6.03441E+02  6.52121E+03
 -5.26480E+03  5.46602E+03 -8.07525E+03  8.28659E+02 -7.36527E+03 -5.20388E+03 -1.11699E+03 -9.82088E+03
  5.34169E+03 -7.72824E+03  9.01272E+03 -2.39116E+03  8.84795E+03  2.39667E+03  5.14156E+03  6.52005E+03
  1.45263E+03  7.07849E+03 -2.58320E+03  5.96077E+03 -4.87881E+03  3.16521E+03 -4.04147E+03  5.11874E+02
 -2.18430E+03 -1.78557E+02 -2.70093E+03  7.03521E+02 -3.77911E+03  1.20959E+03 -5.82541E+03 -1.06279E+03
 -6.03970E+03 -4.13642E+03 -1.63278E+03 -7.83350E+03  3.62419E+03 -8.35973E+03  6.76135E+03 -4.11807E+03
  7.38833E+03  9.84228E+02  4.43440E+03  5.84767E+03 -5.85273E+02  7.50792E+03 -5.81951E+03  5.11546E+03
