 $NMID ID='MM_0lb_SNR800_12hz_g60_2.RAW', FMTDAT='(8E13.5)'
 TRAMP=1., VOLUME=1. $END
  3.09396E+05  3.06653E+02  3.37885E+05  2.50989E+05  8.50074E+04  3.38266E+05 -1.32810E+05  2.51637E+05
 -1.90836E+05  8.37086E+04 -1.12184E+05 -3.24842E+04  6.48162E+02 -5.06465E+04  5.40454E+04 -6.70450E+02
  3.52961E+04  5.27235E+04 -1.68970E+04  7.62327E+04 -6.14457E+04  6.40190E+04 -8.53457E+04  3.23521E+04
 -8.19061E+04 -1.13581E+04 -5.77486E+04 -5.21784E+04 -1.51082E+04 -7.07477E+04  2.76994E+04 -4.63402E+04
  4.09995E+04  3.67077E+03  1.67274E+04  4.82363E+04 -3.45128E+04  4.81286E+04 -6.81708E+04 -1.69738E+02
 -5.43871E+04 -5.78755E+04 -7.23673E+03 -7.86608E+04  3.43405E+04 -5.67253E+04  4.93099E+04 -1.80982E+04
  4.49028E+04  1.14294E+04  3.28816E+04  2.66302E+04  1.55038E+04  3.04171E+04 -5.69131E+03  2.73667E+04
 -2.20510E+04  1.17708E+04 -1.83997E+04 -5.22499E+03  6.77441E+03 -7.52202E+03  2.32863E+04  1.32020E+04
  6.88696E+03  3.67773E+04 -3.36223E+04  3.62292E+04 -6.54327E+04  2.11473E+03 -5.86620E+04 -4.38317E+04
 -1.26493E+04 -6.53290E+04  4.13821E+04 -4.62985E+04  6.04054E+04 -2.33268E+03  3.57997E+04  3.40568E+04
 -5.74980E+03  3.85354E+04 -3.13191E+04  1.77220E+04 -3.24681E+04 -4.06817E+03 -1.88774E+04 -1.14794E+04
 -8.98875E+03 -1.46811E+04 -3.53900E+02 -1.91033E+04  8.46293E+03 -2.32552E+04  1.56740E+04 -1.27668E+04
  1.06929E+04  6.13952E+03 -9.73085E+03  1.25420E+04 -2.29517E+04 -5.95749E+03 -8.38481E+03 -3.63527E+04
  2.43597E+04 -4.59887E+04  5.10138E+04 -2.05630E+04  4.74066E+04  1.99680E+04  1.71405E+04  4.62934E+04
 -1.67650E+04  3.50303E+04 -2.74662E+04  2.09903E+03 -1.13254E+04 -2.88753E+04  2.08649E+04 -3.58239E+04
  4.33534E+04 -1.07715E+04  3.91800E+04  2.46932E+04  2.00902E+04  5.00112E+04 -8.41798E+03  5.42958E+04
 -3.45825E+04  3.69384E+04 -4.56796E+04  1.06631E+04 -4.61498E+04 -1.81089E+04 -2.53068E+04 -4.10124E+04
  7.84472E+03 -4.08187E+04  3.37256E+04 -1.64900E+04  3.10711E+04  1.10612E+04  4.81361E+03  2.00304E+04
 -1.35520E+04  9.06407E+03 -1.10040E+04 -7.60442E+03  6.03827E+03 -1.11343E+04  1.84916E+04  5.65138E+03
  1.46610E+04  2.25815E+04 -5.21439E+03  2.64464E+04 -2.30758E+04  1.34333E+04 -3.04433E+04 -3.07478E+03
 -2.36836E+04 -1.82389E+04 -1.06378E+04 -2.33968E+04  4.22729E+03 -2.38830E+04  1.82076E+04 -2.12585E+04
  3.01997E+04 -1.36700E+04  3.61942E+04  4.05270E+03  2.61269E+04  2.31351E+04  4.45489E+03  3.95704E+04
 -1.89801E+04  3.23609E+04 -2.98572E+04  1.16522E+04 -2.20370E+04 -1.03824E+04 -4.62906E+03 -1.29472E+04
  1.11561E+03 -1.99491E+03 -6.64166E+03  8.26918E+03 -1.89937E+04  4.76572E+03 -1.88646E+04 -8.55360E+03
 -1.14195E+04 -2.21190E+04  5.73636E+03 -2.59051E+04  1.72920E+04 -1.85997E+04  2.10346E+04 -1.65568E+03
  1.34159E+04  1.55086E+04 -1.46264E+03  2.16856E+04 -1.54927E+04  1.25521E+04 -2.18278E+04 -4.50351E+03
 -1.60437E+04 -1.96969E+04 -2.26947E+03 -2.60062E+04  1.19309E+04 -2.17065E+04  2.16791E+04 -1.08972E+04
  2.03422E+04 -1.57338E+02  1.48223E+04  4.82250E+03  7.93858E+03  1.10806E+03  1.14163E+04 -1.87244E+03
  2.02826E+04  2.65431E+03  2.29378E+04  1.72675E+04  1.57654E+04  3.50281E+04 -2.78519E+03  4.04114E+04
 -2.30718E+04  3.32787E+04 -3.77639E+04  1.72391E+04 -4.00106E+04 -2.71173E+03 -3.27911E+04 -2.36215E+04
 -1.35087E+04 -3.33686E+04  1.16483E+04 -2.98150E+04  2.54383E+04 -1.41825E+04  2.25526E+04  7.16731E+03
  7.64611E+03  1.69389E+04 -1.07364E+04  1.44716E+04 -1.83848E+04  2.69373E+03 -1.42007E+04 -1.18149E+04
 -3.35224E+02 -1.80338E+04  9.78944E+03 -1.31181E+04  1.20876E+04 -1.53171E+03  3.12492E+03  8.08494E+03
 -8.13482E+03  3.47826E+03 -8.06119E+03 -6.36319E+03 -1.51214E+03 -1.62657E+04  1.08670E+04 -1.77446E+04
  2.03597E+04 -9.73730E+03  2.31330E+04  3.20867E+03  2.01087E+04  1.59808E+04  8.94588E+03  2.52192E+04
 -4.34751E+03  2.72904E+04 -1.76787E+04  1.70216E+04 -1.98668E+04  3.80826E+03 -1.35772E+04 -4.52649E+03
 -5.93285E+03 -6.01440E+03 -5.10721E+02  4.82505E+02 -2.94107E+03  3.22696E+03 -6.16860E+03  5.03123E+03
 -1.27660E+04 -1.14053E+03 -1.32012E+04 -1.07532E+04 -5.50332E+03 -1.74405E+04  5.41385E+03 -1.42553E+04
  1.12805E+04 -6.00542E+03  7.99945E+03  4.06286E+03 -1.20436E+02  5.37484E+03 -6.75017E+03 -1.33723E+02
 -6.16936E+03 -8.59389E+03 -1.31311E+03 -1.33359E+04  8.02002E+03 -1.40979E+04  1.72366E+04 -7.50493E+03
  2.05035E+04  1.65111E+03  1.48124E+04  1.22195E+04  2.78376E+03  1.62575E+04 -8.67859E+03  1.33499E+04
 -1.14592E+04  4.09158E+03 -5.94756E+03 -2.57538E+03  1.90537E+03 -3.54494E+03  7.70119E+03 -8.54370E+02
  6.48950E+03  6.05788E+03  1.14191E+03  1.08454E+04 -7.62015E+03  1.05407E+04 -1.33801E+04  2.38148E+03
 -9.09658E+03 -7.12022E+03  3.93316E+02 -1.15193E+04  7.61258E+03 -5.77710E+03  7.77574E+03  2.44662E+03
  1.66213E+03  8.09864E+03 -7.03739E+03  9.49726E+03 -1.12965E+04  4.77270E+03 -1.14070E+04 -3.83923E+03
 -6.56305E+03 -1.31329E+04  3.22890E+03 -1.53220E+04  1.30846E+04 -8.98529E+03  1.39839E+04  2.51178E+03
  8.33750E+03  1.08731E+04 -9.31190E+02  1.34789E+04 -9.83599E+03  7.35899E+03 -1.06719E+04 -9.45145E+02
 -9.52914E+03 -8.85015E+03 -1.34468E+03 -1.01310E+04  5.42683E+03 -8.33430E+03  6.69640E+03 -3.31347E+03
  4.34150E+03  1.51553E+03 -9.64723E+02  1.70891E+03 -3.48775E+02 -2.61774E+03  1.54716E+03 -5.98952E+03
  9.32309E+03 -3.61416E+03  1.27199E+04  1.22884E+03  1.25249E+04  8.47753E+03  8.58664E+03  1.67406E+04
 -3.90277E+03  1.94435E+04 -1.59160E+04  1.44261E+04 -2.06640E+04  2.70254E+03 -1.69040E+04 -7.10657E+03
 -8.57816E+03 -1.42834E+04 -2.45331E+02 -1.16816E+04  4.21138E+03 -6.21014E+03  3.91504E+03 -4.12176E+03
  2.94424E+03 -2.57155E+03  3.73411E+03 -3.27238E+03  5.27966E+03 -2.98542E+03  6.73298E+03 -8.02616E+02
  8.54226E+03  2.07000E+03  4.39995E+03  7.55125E+03 -1.89905E+03  8.87218E+03 -8.92762E+03  6.54050E+03
 -1.13271E+04 -1.16955E+03 -6.56003E+03 -8.30085E+03 -9.08763E+02 -1.26084E+04  6.79320E+03 -1.24623E+04
  1.23454E+04 -6.78087E+03  1.53556E+04  1.98633E+03  1.06250E+04  1.06272E+04  1.79962E+03  1.40180E+04
 -5.79230E+03  1.16370E+04 -8.42991E+03  3.96308E+03 -5.01856E+03 -1.71327E+03 -1.98937E+03 -1.74962E+03
 -1.36135E+03 -4.19836E+02 -1.97626E+03  2.89094E+03 -5.18305E+03  1.97199E+03 -7.77397E+03 -1.62472E+03
 -5.53333E+03 -8.11609E+03  1.54621E+02 -1.11708E+04  7.06609E+03 -1.06539E+04  1.09777E+04 -3.00289E+03
  1.11732E+04  5.37706E+03  5.07778E+03  9.80030E+03 -2.49315E+03  1.14443E+04 -8.11554E+03  7.27855E+03
 -1.03336E+04  5.58506E+02 -7.89457E+03 -6.63502E+03 -3.86544E+02 -9.27981E+03  4.80270E+03 -7.04183E+03
  7.06342E+03 -2.66100E+03  4.78866E+03  1.84958E+03  1.81669E+03  3.89813E+03  1.33141E+03  1.33872E+03
  2.57322E+03  7.90602E+02  3.22582E+03  1.68323E+03  3.26534E+03  3.86344E+03  2.99284E+03  5.77769E+03
 -2.28365E+03  8.74565E+03 -7.70016E+03  8.95732E+03 -1.10869E+04  2.59974E+03 -1.15964E+04 -4.33994E+03
 -5.45525E+03 -1.06947E+04  1.95057E+03 -1.23534E+04  6.57319E+03 -7.59288E+03  8.82213E+03 -2.18051E+03
  7.02478E+03  4.30595E+03  1.31596E+03  6.37013E+03 -3.08323E+03  3.98256E+03 -4.29071E+03 -4.74408E+02
 -1.87417E+03 -4.68308E+03  2.78201E+03 -4.62055E+03  4.29806E+03 -2.75300E+03  4.40633E+03  8.50184E+02
  2.42060E+03  2.16161E+03  1.28267E+03  1.58175E+03 -1.11692E+03  1.59748E+03  1.56529E+03 -3.83863E+02
  1.45627E+03 -7.27473E+02  4.11280E+03  2.00687E+03  2.37131E+03  5.89392E+03 -6.74793E+02  8.00418E+03
 -5.15673E+03  4.61511E+03 -7.06755E+03  1.34236E+03 -6.32330E+03 -2.52709E+03 -2.47440E+03 -4.32186E+03
  7.55805E+02 -4.04643E+03  2.57769E+03 -1.93587E+03  2.00215E+03  2.07702E+03 -7.81530E+02  3.16815E+03
 -4.89072E+03  2.13506E+03 -4.68633E+03 -2.60880E+03 -2.79402E+03 -6.01629E+03  9.68116E+02 -5.80623E+03
  3.24505E+03 -3.15626E+03  4.04084E+03 -3.07610E+02  3.57536E+03  1.51620E+03  5.11406E+02  2.94808E+03
 -1.95595E+03  8.38179E+02 -2.57616E+03 -1.90407E+03  8.98520E+02 -4.11472E+03  5.09475E+03 -3.78158E+03
  6.17079E+03  3.96843E+02  6.55882E+03  4.46367E+03  2.28312E+03  6.73575E+03 -2.30819E+03  5.92271E+03
 -5.57941E+03  2.53422E+03 -5.58187E+03 -1.03171E+03 -3.31001E+03 -4.50040E+03  1.20571E+03 -4.23605E+03
  4.34012E+03 -2.07670E+03  3.42303E+03  2.08108E+03  1.04463E+03  4.02311E+03 -6.53814E+02  3.05163E+03
 -1.80822E+03  2.17390E+03 -1.43356E+03  4.67077E+02 -7.31745E+02  9.26340E+02 -1.00828E+03  1.58152E+03
 -1.74773E+03  2.71278E+03 -4.64561E+03  2.14271E+03 -6.48893E+03 -1.04120E+02 -7.26450E+03 -4.14732E+03
 -3.71919E+03 -8.54600E+03  1.38082E+03 -9.72653E+03  6.01253E+03 -7.87150E+03  9.57399E+03 -3.23775E+03
  8.57683E+03  1.49757E+03  5.39303E+03  5.78303E+03  4.04504E+02  6.35333E+03 -2.34610E+03  5.00061E+03
 -3.59777E+03  1.80055E+03 -2.34949E+03 -8.59482E+02 -6.31781E+02 -5.55164E+02 -8.37489E+02 -2.58968E+02
 -1.75684E+03  9.39715E+01 -1.67188E+03 -6.05312E+02 -3.94332E+02 -1.74553E+03 -1.11587E+02 -2.41934E+03
  3.31566E+03 -1.89282E+03  3.69430E+03  2.84238E+02  4.45526E+03  3.51511E+03  9.14868E+02  6.35751E+03
 -3.22318E+03  7.34865E+03 -6.70626E+03  4.59984E+03 -7.52809E+03 -3.58800E+02 -5.67050E+03 -4.82732E+03
 -2.43880E+03 -6.48386E+03  1.63991E+03 -6.24428E+03  3.96983E+03 -3.31338E+03  4.03554E+03  3.88987E+02
  2.17410E+03  1.77490E+03 -1.21176E+02  1.64723E+03 -1.01330E+03  2.90932E+02 -1.51143E+02 -1.25158E+03
  1.94747E+03 -9.65312E+02  2.20358E+03  1.15768E+03  1.51488E+03  2.62383E+03  3.40964E+02  3.02966E+03
 -2.66486E+03  2.57854E+03 -4.05741E+03  3.62989E+02 -3.48432E+03 -2.82954E+03 -3.40772E+02 -4.94653E+03
  2.77463E+03 -4.21215E+03  4.19256E+03 -1.35469E+03  4.80784E+03  5.01148E+02  2.76623E+03  3.67054E+03
  7.52936E+02  3.62125E+03 -1.62954E+03  2.91858E+03 -2.61889E+03  1.80559E+03 -1.80773E+03  3.63093E+02
 -1.12105E+03 -3.10788E+02 -1.32813E+03  4.41720E+02 -1.92584E+03  3.51266E+02 -3.08252E+03 -4.41670E+02
 -3.04504E+03 -1.62322E+03 -1.06952E+03 -3.70689E+03  2.18883E+03 -4.43121E+03  3.74195E+03 -2.14764E+03
  4.00904E+03  3.02126E+02  1.71032E+03  2.54060E+03 -3.43610E+01  3.59204E+03 -2.74851E+03  2.73812E+03
