 $NMID ID='MM_0lb_SNR800_17hz_g60_1.RAW', FMTDAT='(8E13.5)'
 TRAMP=1., VOLUME=1. $END
  3.09832E+05  4.01748E+02  3.37425E+05  2.50888E+05  8.47258E+04  3.38028E+05 -1.32621E+05  2.50884E+05
 -1.90069E+05  8.29500E+04 -1.11560E+05 -3.27358E+04  1.02552E+03 -5.02669E+04  5.37165E+04 -1.13847E+02
  3.52995E+04  5.27395E+04 -1.66175E+04  7.54697E+04 -6.06731E+04  6.34310E+04 -8.41057E+04  3.17674E+04
 -8.11178E+04 -1.13968E+04 -5.74382E+04 -5.11253E+04 -1.53039E+04 -6.92818E+04  2.73749E+04 -4.56904E+04
  4.00376E+04  3.83726E+03  1.63267E+04  4.76580E+04 -3.43863E+04  4.71121E+04 -6.68103E+04 -1.91397E+02
 -5.33403E+04 -5.67157E+04 -6.52153E+03 -7.70401E+04  3.35561E+04 -5.49719E+04  4.76951E+04 -1.71713E+04
  4.31219E+04  1.11211E+04  3.15542E+04  2.55548E+04  1.58599E+04  2.94116E+04 -4.97568E+03  2.75421E+04
 -2.21365E+04  1.26606E+04 -1.86654E+04 -5.05722E+03  5.67627E+03 -7.52258E+03  2.21148E+04  1.20580E+04
  7.44936E+03  3.49133E+04 -3.17887E+04  3.52824E+04 -6.31530E+04  2.04497E+03 -5.67064E+04 -4.24323E+04
 -1.25139E+04 -6.26801E+04  3.95891E+04 -4.52876E+04  5.75535E+04 -2.12884E+03  3.37456E+04  3.20002E+04
 -6.17984E+03  3.56309E+04 -2.98520E+04  1.54338E+04 -2.99347E+04 -4.75070E+03 -1.65162E+04 -1.07862E+04
 -8.35742E+03 -1.29250E+04 -9.44005E+02 -1.78473E+04  7.53048E+03 -2.29580E+04  1.52854E+04 -1.33124E+04
  1.13730E+04  4.79143E+03 -7.68342E+03  1.29296E+04 -2.07922E+04 -4.21542E+03 -8.22218E+03 -3.31181E+04
  2.22532E+04 -4.30826E+04  4.74599E+04 -1.95596E+04  4.44951E+04  1.91564E+04  1.51502E+04  4.36829E+04
 -1.59977E+04  3.27843E+04 -2.50382E+04  1.77910E+03 -9.64573E+03 -2.75929E+04  2.06007E+04 -3.33102E+04
  4.04453E+04 -8.80044E+03  3.45381E+04  2.35175E+04  1.77040E+04  4.54511E+04 -7.73881E+03  4.93729E+04
 -3.09196E+04  3.31177E+04 -4.11311E+04  9.15104E+03 -4.15681E+04 -1.62878E+04 -2.31695E+04 -3.73398E+04
  7.47067E+03 -3.68281E+04  3.10402E+04 -1.42957E+04  2.86233E+04  1.10368E+04  3.93669E+03  1.86538E+04
 -1.32254E+04  8.08669E+03 -1.01402E+04 -7.88939E+03  5.99566E+03 -1.08919E+04  1.78944E+04  6.00775E+03
  1.32088E+04  2.20164E+04 -6.20435E+03  2.47650E+04 -2.19218E+04  1.08994E+04 -2.70245E+04 -5.19143E+03
 -1.98077E+04 -1.66908E+04 -7.84296E+03 -1.93427E+04  4.04755E+03 -1.85687E+04  1.48304E+04 -1.70891E+04
  2.48671E+04 -1.24243E+04  3.14266E+04  2.49582E+03  2.31610E+04  1.89314E+04  4.28616E+03  3.54373E+04
 -1.71996E+04  2.99360E+04 -2.72859E+04  9.96087E+03 -2.07170E+04 -1.02580E+04 -4.24622E+03 -1.32445E+04
  2.00344E+03 -3.35094E+03 -4.28852E+03  6.50857E+03 -1.52534E+04  5.33506E+03 -1.56146E+04 -6.05588E+03
 -9.74754E+03 -1.80227E+04  5.07902E+03 -2.20789E+04  1.45340E+04 -1.59847E+04  1.70295E+04 -1.33002E+03
  1.06269E+04  1.23385E+04 -8.93459E+02  1.80126E+04 -1.24786E+04  1.01931E+04 -1.80022E+04 -3.93997E+03
 -1.31372E+04 -1.63292E+04 -1.36303E+03 -2.17645E+04  9.64833E+03 -1.80511E+04  1.80587E+04 -8.60569E+03
  1.68444E+04  4.15240E+02  1.21361E+04  4.22652E+03  6.17764E+03  9.85324E+02  9.25212E+03 -1.73067E+03
  1.64105E+04  2.70315E+03  1.75400E+04  1.44491E+04  1.16781E+04  2.82100E+04 -3.03100E+03  3.17290E+04
 -1.82906E+04  2.46876E+04 -2.94382E+04  1.21920E+04 -3.06501E+04 -2.32762E+03 -2.52186E+04 -1.74399E+04
 -1.12408E+04 -2.50151E+04  8.45878E+03 -2.26721E+04  1.96069E+04 -1.19264E+04  1.79899E+04  4.75841E+03
  6.91973E+03  1.32935E+04 -8.43253E+03  1.18108E+04 -1.51137E+04  2.62838E+03 -1.15948E+04 -9.08628E+03
 -1.75461E+02 -1.39806E+04  7.37773E+03 -1.09629E+04  9.09733E+03 -1.59834E+03  2.09092E+03  6.13215E+03
 -6.47915E+03  2.34288E+03 -5.05673E+03 -5.41105E+03  1.74465E+02 -1.23849E+04  8.70694E+03 -1.24466E+04
  1.47278E+04 -6.28314E+03  1.55721E+04  2.62885E+03  1.32823E+04  1.16254E+04  6.43634E+03  1.81785E+04
 -2.66448E+03  1.95608E+04 -1.23419E+04  1.22290E+04 -1.37726E+04  3.10676E+03 -1.02546E+04 -2.60017E+03
 -5.09948E+03 -4.56068E+03 -9.84874E+02  1.11641E+03 -1.99067E+03  2.57818E+03 -4.47422E+03  3.92491E+03
 -9.11625E+03 -5.64591E+02 -1.02043E+04 -7.81731E+03 -4.07832E+03 -1.31188E+04  4.18244E+03 -9.93903E+03
  8.42018E+03 -4.52052E+03  6.26133E+03  2.75244E+03  4.04401E+02  3.86117E+03 -4.45710E+03 -2.61527E+02
 -4.23743E+03 -6.25271E+03 -7.69851E+02 -8.78740E+03  5.25549E+03 -9.74058E+03  1.21671E+04 -5.07528E+03
  1.42759E+04  1.01208E+03  1.02863E+04  7.89245E+03  1.96352E+03  1.07196E+04 -6.14824E+03  9.79079E+03
 -8.10290E+03  3.40736E+03 -4.53985E+03 -1.72749E+03  1.45189E+03 -2.20490E+03  5.72505E+03 -9.62598E+02
  4.93125E+03  3.94143E+03  8.11882E+02  7.61529E+03 -5.76561E+03  7.60428E+03 -9.59328E+03  1.99560E+03
 -6.16914E+03 -4.21602E+03  6.06335E+01 -8.07946E+03  4.57182E+03 -4.08145E+03  4.71729E+03  1.36892E+03
  9.89159E+02  4.31525E+03 -5.01701E+03  5.99170E+03 -6.20587E+03  2.67577E+03 -6.46415E+03 -1.88106E+03
 -4.08077E+03 -7.82294E+03  1.59191E+03 -9.24866E+03  7.99846E+03 -5.92720E+03  8.45673E+03  1.31738E+03
  5.62186E+03  6.67034E+03 -3.38285E+02  9.00120E+03 -6.17956E+03  4.83959E+03 -6.56527E+03 -2.65110E+02
 -6.80114E+03 -6.01235E+03 -1.40564E+03 -6.14722E+03  3.63309E+03 -5.28291E+03  3.71327E+03 -2.83313E+03
  3.12944E+03  5.44635E+02 -6.48848E+01  1.57221E+03  3.88902E+02 -9.24525E+02  8.52836E+02 -2.95410E+03
  5.37124E+03 -1.41277E+03  7.11761E+03  1.19900E+03  7.28511E+03  4.30665E+03  6.39924E+03  9.90453E+03
 -2.16457E+03  1.08872E+04 -9.72203E+03  8.25028E+03 -1.26859E+04  1.60640E+03 -9.78441E+03 -3.86447E+03
 -4.97830E+03 -8.25971E+03 -5.04135E+02 -6.69577E+03  2.51038E+03 -3.00130E+03  2.14951E+03 -2.35500E+03
  1.71434E+03 -1.66248E+03  2.43422E+03 -2.81882E+03  3.80093E+03 -1.63920E+03  4.27095E+03  1.28298E+02
  5.58437E+03  1.51531E+03  1.83797E+03  4.21321E+03 -1.72998E+03  3.96653E+03 -5.47928E+03  3.76089E+03
 -6.57937E+03 -8.99187E+02 -2.88132E+03 -4.33377E+03  2.04178E+01 -6.81467E+03  4.22252E+03 -6.87992E+03
  6.92363E+03 -4.06369E+03  8.32623E+03  2.84948E+02  6.20563E+03  5.87201E+03  1.17781E+03  7.89963E+03
 -2.84816E+03  6.93885E+03 -4.42404E+03  2.58539E+03 -2.64585E+03 -1.02385E+03 -7.53001E+02 -7.39223E+02
 -4.87522E+02  1.12423E+02 -9.88557E+02  2.10756E+03 -3.31414E+03  1.09325E+03 -4.99151E+03 -5.05955E+02
 -2.42269E+03 -5.01725E+03  9.60610E+02 -5.98357E+03  3.83962E+03 -5.70006E+03  5.17337E+03 -1.61034E+03
  5.40729E+03  2.91939E+03  2.68414E+03  4.42879E+03 -1.24720E+03  5.98405E+03 -3.56905E+03  3.29703E+03
 -5.24940E+03  5.56359E+02 -3.91374E+03 -3.44795E+03 -4.83868E+02 -4.34163E+03  2.13605E+03 -3.37174E+03
  3.46758E+03 -1.37955E+03  2.40899E+03  8.67342E+02  7.76936E+02  1.73969E+03  8.25677E+02  4.74682E+02
  1.83291E+03  9.14480E+02  1.73020E+03  1.29924E+03  1.76524E+03  2.39304E+03  1.57884E+03  2.53247E+03
 -1.59304E+03  4.08119E+03 -3.57091E+03  5.32105E+03 -4.66074E+03  1.62320E+03 -5.41614E+03 -7.25711E+02
 -2.30703E+03 -5.09621E+03  7.39870E+02 -6.00355E+03  2.62369E+03 -3.18908E+03  4.44358E+03 -1.12204E+03
  3.12545E+03  2.41946E+03  5.11469E+02  3.08312E+03 -1.01220E+03  1.67301E+03 -1.78659E+03 -2.55295E+02
 -8.55053E+02 -1.90082E+03  1.31548E+03 -2.08438E+03  1.73593E+03 -1.16281E+03  1.70577E+03  4.71929E+02
  9.68896E+02  4.50283E+02  5.79018E+02  2.49533E+02 -5.47117E+02  7.27421E+02  1.72602E+03 -4.61180E+02
  4.91142E+02 -3.41695E+02  2.21602E+03  9.31654E+02  6.35588E+02  2.81376E+03 -3.41898E+02  3.60940E+03
 -2.46237E+03  1.43790E+03 -2.58698E+03  3.98493E+02 -3.03860E+03 -1.02174E+03 -3.25295E+02 -1.59359E+03
  6.73998E+02 -1.44411E+03  9.58621E+02 -9.35193E+02  8.56930E+02  1.56861E+03 -1.05478E+03  1.63707E+03
 -2.07471E+03  8.34682E+02 -1.71416E+03 -1.42124E+03 -8.58942E+02 -2.72234E+03  1.41327E+02 -2.46225E+03
  1.06894E+03 -1.02287E+03  1.34836E+03  1.99459E+02  1.81532E+03 -6.67850E+01  7.01523E+01  1.65680E+03
 -3.11032E+02  1.62376E+02 -9.94820E+02 -3.94615E+02  6.11210E+02 -1.23849E+03  2.33454E+03 -1.01599E+03
  1.91988E+03  3.92642E+02  3.58354E+03  9.87038E+02  9.48275E+02  2.18474E+03 -4.57522E+02  2.91870E+03
 -2.16365E+03  4.32440E+02 -1.89532E+03 -2.20093E+02 -9.07148E+02 -1.84670E+03  5.71279E+02 -9.80170E+02
  2.13118E+03 -8.98797E+02  1.22478E+03  1.04088E+03  1.03267E+02  1.44110E+03  1.21743E+02  1.08722E+03
 -4.86022E+02  1.12332E+03 -4.60322E+02  4.32425E+01  1.18930E+02  6.35714E+02 -6.44385E+02  7.56438E+02
 -7.25017E+02  1.17109E+03 -2.40004E+03  5.16609E+02 -2.37344E+03 -1.47755E+01 -3.11254E+03 -1.28391E+03
 -1.50967E+03 -3.01757E+03  8.16584E+02 -3.65987E+03  1.71279E+03 -3.18583E+03  3.64142E+03 -1.35027E+03
  3.28061E+03  2.99321E+01  1.94238E+03  2.24374E+03 -2.47901E+02  1.80767E+03 -8.54967E+02  1.64235E+03
 -1.44818E+03  1.15912E+03 -7.74889E+02 -5.55244E+02 -2.15595E+02  2.46919E+02 -4.41640E+02 -1.27398E+02
 -1.10980E+03 -1.61125E+02 -6.96257E+02 -9.11701E+01  9.17276E+01 -6.32571E+02 -2.49368E+02 -1.09780E+03
  1.50949E+03 -8.03369E+02  8.67146E+02  2.05271E+02  1.39188E+03  1.24444E+03 -4.79161E+02  2.12666E+03
 -1.32632E+03  2.81683E+03 -2.39576E+03  1.92862E+03 -2.48978E+03 -1.91388E+01 -1.83666E+03 -1.72337E+03
 -1.23491E+03 -1.68113E+03  5.87546E+02 -1.63229E+03  9.21468E+02 -6.13937E+02  7.18864E+02  1.28927E+02
  4.18099E+02  4.25589E+02  1.13118E+02  6.38975E+02 -3.87469E+02  1.19220E+01 -1.99805E+02 -4.45841E+02
  8.97630E+02  2.95158E+02  5.43441E+02  4.99668E+02  1.52507E+02  6.39017E+02  6.21367E+02  7.32582E+02
 -1.14315E+03  4.45920E+02 -5.08105E+02  8.40073E+01 -9.77035E+02 -8.43057E+02  3.08102E+02 -1.63806E+03
  7.49019E+02 -1.00734E+03  7.68611E+02  6.58492E+01  1.28064E+03 -4.70285E+02  8.55320E+02  9.69795E+02
  2.44961E+02  7.52119E+02 -3.89246E+02  4.24985E+02 -1.04704E+03  6.30030E+02 -4.50430E+02  1.28881E+02
 -9.56253E+01  5.25262E+01 -4.77430E+02  3.22697E+02 -8.65382E+02  1.56934E+02 -8.50972E+02 -1.55983E+02
 -1.18128E+03  1.76143E+02 -2.78166E+02 -1.08382E+03  9.95122E+02 -1.91641E+03  9.48979E+02 -3.78445E+02
  1.00121E+03  2.36691E+02 -1.16685E+01  5.19790E+02 -3.02554E+02  8.45272E+02 -6.67361E+02  9.24427E+02
