 $NMID ID='MM_0lb_SNR800_7hz_g40_48.RAW', FMTDAT='(8E13.5)'
 TRAMP=1., VOLUME=1. $END
  3.09611E+05  3.31090E+02  3.38143E+05  2.50546E+05  8.50174E+04  3.38957E+05 -1.32402E+05  2.51719E+05
 -1.90694E+05  8.41261E+04 -1.12800E+05 -3.22107E+04  2.00504E+01 -5.05553E+04  5.38384E+04 -8.70153E+02
  3.56167E+04  5.25775E+04 -1.64936E+04  7.60722E+04 -6.13548E+04  6.45711E+04 -8.54785E+04  3.21849E+04
 -8.32048E+04 -1.19253E+04 -5.82163E+04 -5.27298E+04 -1.48810E+04 -7.14146E+04  2.83907E+04 -4.70942E+04
  4.14426E+04  3.65596E+03  1.66738E+04  4.82062E+04 -3.47945E+04  4.82994E+04 -6.86379E+04  5.60383E+02
 -5.52065E+04 -5.75067E+04 -7.25739E+03 -7.96873E+04  3.45725E+04 -5.74400E+04  5.06225E+04 -1.82270E+04
  4.55446E+04  1.20407E+04  3.34357E+04  2.64749E+04  1.58783E+04  3.08928E+04 -5.55181E+03  2.81550E+04
 -2.22885E+04  1.18585E+04 -1.82610E+04 -5.58133E+03  7.05450E+03 -7.32073E+03  2.40501E+04  1.43788E+04
  7.12401E+03  3.77492E+04 -3.42834E+04  3.72079E+04 -6.64793E+04  1.81983E+03 -5.95808E+04 -4.49192E+04
 -1.23686E+04 -6.64575E+04  4.16375E+04 -4.80850E+04  6.19905E+04 -2.78686E+03  3.73509E+04  3.51106E+04
 -5.22495E+03  4.01023E+04 -3.21580E+04  1.93381E+04 -3.41242E+04 -3.46967E+03 -1.96942E+04 -1.25375E+04
 -9.99327E+03 -1.57204E+04 -3.55201E+02 -2.04555E+04  9.19312E+03 -2.34496E+04  1.60720E+04 -1.22926E+04
  1.05031E+04  6.14109E+03 -1.08648E+04  1.27525E+04 -2.40265E+04 -7.23843E+03 -8.62671E+03 -3.86417E+04
  2.53901E+04 -4.76886E+04  5.30471E+04 -2.16327E+04  4.96917E+04  2.11923E+04  1.72044E+04  4.74267E+04
 -1.65346E+04  3.68476E+04 -2.78998E+04  3.04657E+03 -1.21051E+04 -3.02833E+04  2.16374E+04 -3.75013E+04
  4.56433E+04 -1.19476E+04  4.17522E+04  2.53765E+04  2.21630E+04  5.18889E+04 -8.62196E+03  5.77504E+04
 -3.61642E+04  3.89140E+04 -4.92193E+04  1.13950E+04 -4.90023E+04 -1.94389E+04 -2.67543E+04 -4.29538E+04
  7.70804E+03 -4.30130E+04  3.48018E+04 -1.73870E+04  3.28451E+04  1.14904E+04  5.36502E+03  2.12932E+04
 -1.40959E+04  1.02927E+04 -1.14654E+04 -7.43188E+03  5.65922E+03 -1.14153E+04  1.90363E+04  5.36916E+03
  1.49691E+04  2.27379E+04 -5.34009E+03  2.75753E+04 -2.37466E+04  1.51152E+04 -3.25401E+04 -2.31389E+03
 -2.71021E+04 -1.83589E+04 -1.23052E+04 -2.58847E+04  4.59480E+03 -2.73759E+04  2.11696E+04 -2.39193E+04
  3.38012E+04 -1.49200E+04  3.93124E+04  5.99103E+03  2.81218E+04  2.54482E+04  4.56146E+03  4.28159E+04
 -2.07149E+04  3.40865E+04 -3.14929E+04  1.22437E+04 -2.30403E+04 -1.05662E+04 -5.27979E+03 -1.26308E+04
  6.22317E+02 -3.76366E+02 -8.16481E+03  8.40679E+03 -2.15142E+04  4.46711E+03 -2.11386E+04 -1.03346E+04
 -1.23567E+04 -2.43255E+04  6.72281E+03 -2.93289E+04  1.93537E+04 -2.05479E+04  2.38347E+04 -1.68433E+03
  1.55842E+04  1.69000E+04 -1.29703E+03  2.45663E+04 -1.77188E+04  1.40532E+04 -2.49516E+04 -4.93990E+03
 -1.83812E+04 -2.19422E+04 -2.53519E+03 -2.98675E+04  1.30936E+04 -2.47273E+04  2.44569E+04 -1.29270E+04
  2.27334E+04 -6.65880E+02  1.68325E+04  5.43765E+03  9.27547E+03  1.44080E+03  1.29285E+04 -2.25810E+03
  2.34394E+04  2.89784E+03  2.70718E+04  1.91219E+04  1.87487E+04  4.01043E+04 -2.11687E+03  4.69549E+04
 -2.69344E+04  3.91960E+04 -4.44536E+04  2.07574E+04 -4.76447E+04 -3.95714E+03 -3.89094E+04 -2.79482E+04
 -1.50819E+04 -4.01426E+04  1.45627E+04 -3.48794E+04  2.94207E+04 -1.62576E+04  2.56459E+04  8.75273E+03
  8.61928E+03  1.98336E+04 -1.22645E+04  1.65734E+04 -2.16285E+04  2.39301E+03 -1.58189E+04 -1.34514E+04
 -1.45325E+02 -2.04527E+04  1.12108E+04 -1.50795E+04  1.46583E+04 -1.28096E+03  3.84242E+03  9.09545E+03
 -9.94303E+03  4.61884E+03 -1.00677E+04 -7.30218E+03 -2.36358E+03 -1.97684E+04  1.24265E+04 -2.13448E+04
  2.47435E+04 -1.21928E+04  2.88005E+04  3.50533E+03  2.50323E+04  2.06321E+04  1.19541E+04  3.18321E+04
 -6.06962E+03  3.38849E+04 -2.19674E+04  2.08945E+04 -2.46744E+04  4.68324E+03 -1.66081E+04 -6.38839E+03
 -6.42062E+03 -7.84143E+03 -3.87694E+02  4.42700E+02 -2.81282E+03  4.04139E+03 -7.84760E+03  5.50553E+03
 -1.55781E+04 -9.63617E+02 -1.58339E+04 -1.29323E+04 -6.38408E+03 -2.07174E+04  6.88419E+03 -1.68928E+04
  1.40234E+04 -6.56696E+03  9.78219E+03  4.71219E+03 -5.57291E+02  7.09636E+03 -8.75372E+03  5.04842E+01
 -8.68109E+03 -1.07934E+04 -1.36297E+03 -1.69106E+04  9.70480E+03 -1.82681E+04  2.15748E+04 -9.60271E+03
  2.58781E+04  2.90496E+03  1.90641E+04  1.60951E+04  3.62446E+03  2.07280E+04 -1.02335E+04  1.73783E+04
 -1.35168E+04  4.77491E+03 -7.08550E+03 -4.18095E+03  2.52544E+03 -5.22332E+03  9.01016E+03 -1.09671E+03
  8.05153E+03  7.55889E+03  1.35412E+03  1.41764E+04 -1.00458E+04  1.33258E+04 -1.72751E+04  3.28003E+03
 -1.17748E+04 -9.40412E+03 -1.24114E+02 -1.51346E+04  9.91274E+03 -7.59349E+03  1.08042E+04  3.59905E+03
  2.69121E+03  1.14833E+04 -9.56052E+03  1.29581E+04 -1.53376E+04  6.05985E+03 -1.58374E+04 -6.01191E+03
 -9.26180E+03 -1.73249E+04  4.07364E+03 -2.06536E+04  1.75743E+04 -1.22336E+04  1.90547E+04  3.33934E+03
  1.08257E+04  1.47620E+04 -2.52565E+03  1.76105E+04 -1.29588E+04  9.41142E+03 -1.37930E+04 -1.53557E+03
 -1.18835E+04 -1.12539E+04 -1.91651E+03 -1.32857E+04  7.09732E+03 -1.05644E+04  9.15639E+03 -3.71825E+03
  5.44627E+03  2.05760E+03 -2.05005E+03  1.76871E+03 -8.91507E+02 -4.03505E+03  3.72299E+03 -8.30255E+03
  1.32327E+04 -5.79046E+03  1.85394E+04  2.34059E+03  1.78863E+04  1.27271E+04  1.14477E+04  2.42765E+04
 -5.70322E+03  2.76101E+04 -2.27218E+04  2.05811E+04 -2.92656E+04  3.73694E+03 -2.41675E+04 -1.04396E+04
 -1.14739E+04 -2.00514E+04 -1.91571E+02 -1.71836E+04  5.78591E+03 -9.66444E+03  6.01567E+03 -5.82642E+03
  4.50677E+03 -3.81786E+03  4.57863E+03 -4.02648E+03  6.07738E+03 -4.34285E+03  8.80459E+03 -2.15533E+03
  1.19157E+04  2.97391E+03  6.72531E+03  1.10857E+04 -2.34015E+03  1.35170E+04 -1.28296E+04  1.01903E+04
 -1.74060E+04 -1.47798E+03 -1.13139E+04 -1.18654E+04 -1.92381E+03 -1.85225E+04  9.75461E+03 -1.80794E+04
  1.92230E+04 -1.01773E+04  2.29918E+04  3.01998E+03  1.58023E+04  1.61173E+04  2.06972E+03  2.04802E+04
 -8.54720E+03  1.64149E+04 -1.23586E+04  5.65599E+03 -8.65973E+03 -1.67065E+03 -4.05136E+03 -2.63387E+03
 -2.12598E+03 -2.43753E+02 -2.96154E+03  3.54683E+03 -7.26793E+03  3.15399E+03 -1.15802E+04 -1.33871E+03
 -8.90427E+03 -1.19995E+04  6.36340E+00 -1.76150E+04  1.09328E+04 -1.57926E+04  1.77953E+04 -5.14976E+03
  1.75833E+04  8.25778E+03  8.48268E+03  1.55423E+04 -3.29921E+03  1.73847E+04 -1.31393E+04  1.13009E+04
 -1.69347E+04  4.83949E+02 -1.25874E+04 -1.08734E+04 -1.13046E+03 -1.46515E+04  7.95372E+03 -1.11201E+04
  1.13625E+04 -3.22769E+03  7.70198E+03  3.52630E+03  2.65107E+03  5.11885E+03  1.91174E+03  2.22202E+03
  2.99041E+03  1.29427E+03  4.45400E+03  1.89559E+03  5.40243E+03  5.86688E+03  4.33898E+03  9.12894E+03
 -3.16489E+03  1.44861E+04 -1.27134E+04  1.41413E+04 -1.89354E+04  3.22290E+03 -1.89116E+04 -8.00380E+03
 -9.09725E+03 -1.83985E+04  2.93385E+03 -1.99977E+04  1.10022E+04 -1.26601E+04  1.51431E+04 -3.12804E+03
  1.21135E+04  6.80867E+03  2.80952E+03  1.09790E+04 -5.32023E+03  6.82625E+03 -7.86286E+03 -1.17563E+03
 -3.37022E+03 -7.80425E+03  4.21848E+03 -7.82420E+03  7.67225E+03 -3.36977E+03  7.67858E+03  1.32257E+03
  4.34780E+03  3.86877E+03  1.53218E+03  3.52352E+03 -5.79632E+02  2.49834E+03  1.92251E+03 -1.09919E+03
  3.70081E+03 -9.20095E+02  8.07655E+03  2.88468E+03  4.70544E+03  9.92248E+03 -1.60363E+03  1.31566E+04
 -9.18592E+03  8.80325E+03 -1.19866E+04  2.19446E+03 -1.04130E+04 -4.37907E+03 -4.48143E+03 -7.70746E+03
  8.75643E+02 -8.00597E+03  4.89759E+03 -2.99889E+03  4.19044E+03  3.23378E+03 -1.27837E+03  6.50389E+03
 -8.12433E+03  3.60963E+03 -9.80457E+03 -4.62388E+03 -5.69705E+03 -9.66637E+03  1.58740E+03 -1.03692E+04
  6.55206E+03 -6.41020E+03  7.84709E+03 -1.41733E+03  6.06398E+03  3.27494E+03  9.85072E+02  5.94108E+03
 -4.04382E+03  1.69711E+03 -4.68305E+03 -4.46311E+03  1.84841E+03 -8.54557E+03  9.64719E+03 -6.79445E+03
  1.23664E+04  9.94463E+02  1.14616E+04  8.66196E+03  3.28912E+03  1.30165E+04 -4.69119E+03  1.22931E+04
 -1.08592E+04  5.61298E+03 -1.03298E+04 -1.91338E+03 -5.84550E+03 -8.17034E+03  2.00306E+03 -7.88419E+03
  7.79337E+03 -3.80191E+03  6.93462E+03  3.78415E+03  2.36395E+03  7.39787E+03 -1.30262E+03  5.84665E+03
 -3.37830E+03  3.88752E+03 -2.93068E+03  1.38329E+03 -1.64703E+03  1.29810E+03 -2.45851E+03  2.69454E+03
 -3.36005E+03  4.98833E+03 -8.60155E+03  3.87840E+03 -1.30935E+04  2.61705E+02 -1.41719E+04 -8.34479E+03
 -7.65292E+03 -1.69813E+04  3.89599E+03 -1.95991E+04  1.25871E+04 -1.52740E+04  1.87676E+04 -6.03006E+03
  1.77321E+04  4.11366E+03  1.06891E+04  1.20250E+04  1.14303E+03  1.41860E+04 -5.15772E+03  1.01149E+04
 -8.19744E+03  3.66564E+03 -4.19876E+03 -1.60793E+03 -1.62214E+03 -1.15541E+03 -5.17340E+02 -4.55238E+01
 -2.16331E+03 -1.37931E+02 -2.65754E+03 -3.63515E+02 -9.80712E+02 -2.93883E+03  5.55315E+02 -5.53343E+03
  5.56890E+03 -4.65828E+03  8.67473E+03 -3.42609E+02  9.44460E+03  7.50665E+03  3.13991E+03  1.38089E+04
 -6.37207E+03  1.58290E+04 -1.49343E+04  9.35713E+03 -1.71564E+04 -1.83955E+03 -1.28331E+04 -1.04562E+04
 -4.75563E+03 -1.45601E+04  3.81061E+03 -1.33339E+04  9.00448E+03 -7.71225E+03  9.52903E+03 -2.15818E+02
  5.14933E+03  4.68130E+03 -1.01382E+03  4.20939E+03 -2.57160E+03 -7.20616E+02  8.67850E+01 -3.17606E+03
  3.96710E+03 -2.45839E+03  5.91065E+03  1.74386E+03  3.62310E+03  5.88551E+03  1.78861E+02  7.81483E+03
 -6.06441E+03  6.78843E+03 -9.53768E+03  1.11168E+03 -8.38751E+03 -6.74547E+03 -9.65821E+02 -1.17231E+04
  6.58046E+03 -1.02340E+04  1.13687E+04 -3.33203E+03  1.11176E+04  3.24782E+03  6.37666E+03  8.67339E+03
  1.35954E+03  9.84085E+03 -3.98817E+03  7.64133E+03 -6.09453E+03  4.60171E+03 -4.81558E+03  4.59734E+02
 -2.37580E+03 -4.30196E+02 -2.86531E+03  1.19503E+03 -4.59844E+03  2.04579E+03 -7.62486E+03 -8.84582E+02
 -6.99806E+03 -5.33254E+03 -2.23543E+03 -9.57533E+03  4.44440E+03 -1.04419E+04  8.40127E+03 -4.73766E+03
  1.01333E+04  1.42991E+03  5.63667E+03  6.81414E+03 -1.12397E+03  9.93275E+03 -7.60443E+03  6.26744E+03
