 $NMID ID='MM_0lb_SNR800_18hz_g45_69.RAW', FMTDAT='(8E13.5)'
 TRAMP=1., VOLUME=1. $END
  3.09698E+05  2.87514E+02  3.37471E+05  2.50223E+05  8.42555E+04  3.37281E+05 -1.32504E+05  2.50267E+05
 -1.89761E+05  8.25610E+04 -1.11022E+05 -3.30591E+04  1.33024E+03 -5.01275E+04  5.40225E+04  1.81711E+02
  3.53831E+04  5.29249E+04 -1.68079E+04  7.52263E+04 -6.03776E+04  6.27629E+04 -8.31319E+04  3.17198E+04
 -7.94977E+04 -1.10293E+04 -5.62966E+04 -5.03998E+04 -1.51182E+04 -6.83835E+04  2.67084E+04 -4.50471E+04
  3.91396E+04  3.68723E+03  1.57999E+04  4.68852E+04 -3.39476E+04  4.61727E+04 -6.54711E+04 -7.96740E+02
 -5.21273E+04 -5.61275E+04 -6.39265E+03 -7.52778E+04  3.33275E+04 -5.34250E+04  4.63770E+04 -1.62751E+04
  4.16032E+04  1.13860E+04  3.06774E+04  2.45001E+04  1.58126E+04  2.83590E+04 -4.54671E+03  2.70112E+04
 -2.15138E+04  1.28687E+04 -1.91334E+04 -4.17343E+03  4.17292E+03 -7.62834E+03  2.13767E+04  1.08487E+04
  7.56770E+03  3.32308E+04 -3.07040E+04  3.41479E+04 -6.10448E+04  2.28616E+03 -5.53658E+04 -4.15343E+04
 -1.25392E+04 -6.08063E+04  3.80819E+04 -4.36305E+04  5.56986E+04 -2.05726E+03  3.21032E+04  3.04790E+04
 -6.25683E+03  3.32310E+04 -2.85619E+04  1.34812E+04 -2.75196E+04 -5.44182E+03 -1.44262E+04 -1.00224E+04
 -7.24769E+03 -1.14980E+04 -1.07323E+03 -1.66640E+04  6.37014E+03 -2.24981E+04  1.49555E+04 -1.37467E+04
  1.20018E+04  4.34995E+03 -6.38920E+03  1.31545E+04 -1.94529E+04 -2.44811E+03 -8.01954E+03 -3.05250E+04
  2.09027E+04 -4.06940E+04  4.47980E+04 -1.86399E+04  4.18333E+04  1.83879E+04  1.42912E+04  4.17477E+04
 -1.52465E+04  3.14421E+04 -2.33943E+04  1.12457E+03 -8.06568E+03 -2.65683E+04  2.06170E+04 -3.13778E+04
  3.80123E+04 -7.37223E+03  3.17955E+04  2.28859E+04  1.55502E+04  4.26658E+04 -7.53330E+03  4.56574E+04
 -2.85863E+04  2.99040E+04 -3.76207E+04  8.17979E+03 -3.83753E+04 -1.52189E+04 -2.15046E+04 -3.47622E+04
  6.93460E+03 -3.44814E+04  2.91262E+04 -1.28175E+04  2.67295E+04  1.06434E+04  3.33402E+03  1.77990E+04
 -1.28689E+04  7.42941E+03 -9.79002E+03 -7.55088E+03  6.05154E+03 -1.02014E+04  1.72708E+04  6.34159E+03
  1.23966E+04  2.15474E+04 -6.53010E+03  2.35238E+04 -2.14477E+04  9.39954E+03 -2.53363E+04 -6.26216E+03
 -1.67077E+04 -1.63642E+04 -5.72490E+03 -1.70178E+04  3.75848E+03 -1.51681E+04  1.25534E+04 -1.44115E+04
  2.16060E+04 -1.18665E+04  2.84483E+04  1.25760E+03  2.15151E+04  1.64722E+04  4.29971E+03  3.28581E+04
 -1.59979E+04  2.79337E+04 -2.58410E+04  9.44975E+03 -1.96935E+04 -1.01301E+04 -3.95356E+03 -1.38774E+04
  2.46343E+03 -4.06829E+03 -3.03573E+03  5.66262E+03 -1.29237E+04  5.29353E+03 -1.33851E+04 -5.02566E+03
 -8.51000E+03 -1.54138E+04  4.57802E+03 -1.97053E+04  1.26398E+04 -1.39062E+04  1.46546E+04 -1.24695E+03
  9.20798E+03  1.10677E+04 -7.43490E+02  1.61016E+04 -1.04029E+04  8.63689E+03 -1.55471E+04 -3.29132E+03
 -1.16950E+04 -1.43446E+04 -1.29884E+03 -1.90867E+04  8.74048E+03 -1.55268E+04  1.61822E+04 -7.43555E+03
  1.48254E+04  6.17816E+02  1.05857E+04  4.01655E+03  5.38390E+03  6.92622E+02  7.81316E+03 -1.63286E+03
  1.40554E+04  2.59720E+03  1.51693E+04  1.27393E+04  9.07234E+03  2.53689E+04 -2.94953E+03  2.71503E+04
 -1.59305E+04  2.05150E+04 -2.49032E+04  9.88252E+03 -2.53465E+04 -1.92576E+03 -2.16822E+04 -1.49546E+04
 -1.02400E+04 -2.08122E+04  6.81496E+03 -1.93010E+04  1.68799E+04 -1.10074E+04  1.59875E+04  3.61512E+03
  6.53751E+03  1.16655E+04 -7.23621E+03  1.06189E+04 -1.35608E+04  2.51178E+03 -1.06109E+04 -8.29251E+03
  6.07866E+00 -1.26543E+04  6.27418E+03 -9.63396E+03  8.11133E+03 -1.32522E+03  1.26377E+03  5.02194E+03
 -5.71839E+03  1.36318E+03 -3.64476E+03 -4.78871E+03  7.84719E+02 -1.02984E+04  7.83637E+03 -1.01774E+04
  1.26437E+04 -4.86536E+03  1.24277E+04  2.86232E+03  1.05358E+04  9.54611E+03  5.01548E+03  1.44243E+04
 -1.73479E+03  1.61469E+04 -9.96546E+03  1.02010E+04 -1.16704E+04  2.86366E+03 -8.65589E+03 -2.07797E+03
 -4.59932E+03 -3.02208E+03 -9.63397E+02  1.40143E+03 -1.96175E+03  1.71264E+03 -3.88945E+03  3.67842E+03
 -8.13060E+03 -4.40503E+02 -8.93968E+03 -7.38180E+03 -3.52011E+03 -1.18417E+04  3.57461E+03 -8.59989E+03
  7.59408E+03 -3.57478E+03  5.46756E+03  2.28821E+03  7.37075E+02  3.04730E+03 -3.67915E+03  1.17249E+02
 -3.43894E+03 -5.47190E+03 -6.14760E+02 -7.13441E+03  3.83956E+03 -8.11787E+03  1.00737E+04 -4.02562E+03
  1.19340E+04  7.34538E+02  9.10947E+03  6.36715E+03  1.86677E+03  8.87791E+03 -5.18739E+03  8.25366E+03
 -7.20475E+03  3.09302E+03 -3.71759E+03 -1.52292E+03  1.25953E+03 -1.68577E+03  5.01714E+03 -1.02779E+03
  4.05860E+03  3.24042E+03  1.01055E+03  6.35284E+03 -4.38440E+03  6.38756E+03 -7.94938E+03  1.72150E+03
 -4.86601E+03 -3.45907E+03  2.39358E+02 -6.83816E+03  3.93819E+03 -3.40257E+03  3.75580E+03  8.04692E+02
  4.23863E+02  3.71584E+03 -4.31103E+03  4.70367E+03 -5.04031E+03  2.62170E+03 -4.62651E+03 -1.14075E+03
 -3.15276E+03 -6.16682E+03  1.32553E+03 -7.35606E+03  6.17826E+03 -4.83744E+03  6.76113E+03  9.22859E+02
  4.69774E+03  5.43963E+03 -4.82924E+01  7.37643E+03 -5.04643E+03  4.23398E+03 -5.36970E+03 -4.10636E+02
 -6.03855E+03 -5.38389E+03 -1.44362E+03 -5.12093E+03  2.71206E+03 -4.96738E+03  2.89636E+03 -2.87893E+03
  2.61733E+03  3.28799E+02  2.18783E+02  1.28287E+03  5.09718E+02 -4.55464E+02  1.97404E+02 -2.04676E+03
  3.85917E+03 -7.09363E+02  5.58283E+03  6.13023E+02  5.88699E+03  3.51779E+03  5.25052E+03  7.39414E+03
 -1.17883E+03  8.54410E+03 -7.82175E+03  6.73577E+03 -1.02191E+04  1.30922E+03 -7.92962E+03 -2.71500E+03
 -4.43715E+03 -6.80337E+03 -5.70647E+02 -5.52997E+03  1.90528E+03 -2.33580E+03  1.86262E+03 -2.16172E+03
  1.25048E+03 -1.33350E+03  2.27867E+03 -2.50229E+03  3.56355E+03 -1.37384E+03  3.74784E+03  2.40631E+02
  4.65615E+03  1.28334E+03  1.15941E+03  3.83278E+03 -1.63343E+03  2.99336E+03 -4.45811E+03  2.70859E+03
 -5.36858E+03 -1.36640E+03 -1.69248E+03 -3.63980E+03  5.96025E+02 -5.24353E+03  3.26969E+03 -5.69100E+03
  5.29314E+03 -3.30574E+03  6.77374E+03  1.28185E+02  4.99703E+03  4.29793E+03  1.45023E+03  6.45375E+03
 -2.10637E+03  5.94801E+03 -3.69935E+03  2.22875E+03 -1.73235E+03 -1.03489E+03 -4.35867E+02 -5.10085E+02
  5.24670E+00  5.08035E+02 -1.34669E+03  2.07041E+03 -2.69516E+03  1.38973E+03 -4.23145E+03 -3.50086E+02
 -1.91216E+03 -4.11072E+03  6.81843E+02 -5.18509E+03  2.66957E+03 -4.49852E+03  3.67922E+03 -9.97894E+02
  4.47525E+03  2.57112E+03  1.98768E+03  3.33596E+03 -1.04105E+03  4.46821E+03 -3.04421E+03  2.84353E+03
 -4.04406E+03  7.48435E+02 -3.90710E+03 -2.37622E+03 -5.71739E+02 -3.26978E+03  1.60888E+03 -2.67047E+03
  2.80743E+03 -1.29123E+03  1.80325E+03  3.40924E+02  6.48358E+02  1.64143E+03  7.15842E+02  7.41528E+02
  1.67137E+03  5.04243E+02  1.57800E+03  9.53988E+02  1.10980E+03  2.05127E+03  1.67791E+03  2.01360E+03
 -1.36861E+03  3.37247E+03 -2.63073E+03  4.30793E+03 -3.32591E+03  1.37952E+03 -4.57062E+03 -6.44253E+02
 -1.95184E+03 -3.90221E+03  6.43971E+02 -4.94634E+03  2.29305E+03 -2.65464E+03  3.09106E+03 -8.04816E+02
  2.68962E+03  2.00935E+03  6.56448E+02  2.55017E+03 -9.31959E+02  1.40643E+03 -1.09276E+03 -4.08477E+02
 -7.64142E+02 -1.49839E+03  1.27687E+03 -1.63289E+03  1.63965E+03 -9.16578E+02  1.29717E+03  5.72221E+02
  9.39791E+02  4.04147E+02  6.21889E+02 -3.48236E+02 -2.32668E+02  1.05094E+03  1.69813E+03 -3.78231E+02
  1.88262E+02 -9.89400E+01  1.95496E+03  7.63846E+02  5.05207E+02  2.26213E+03 -5.73667E+02  3.14378E+03
 -1.89821E+03  1.33200E+03 -2.14049E+03  4.23716E+02 -2.21911E+03 -8.54528E+02 -1.76040E+02 -1.37197E+03
  3.20765E+02 -1.40172E+03  1.15725E+03 -3.91163E+02  6.21661E+02  1.29975E+03 -5.74450E+02  1.09317E+03
 -1.60491E+03  9.10487E+02 -1.14089E+03 -1.43627E+03 -8.72826E+02 -2.01823E+03  1.57542E+02 -1.46388E+03
  4.52456E+02 -1.00382E+03  9.19750E+02  3.86055E+02  1.56298E+03 -1.31481E+01  5.44233E+02  1.16642E+03
 -3.08200E+02  4.32127E+01 -1.05577E+03 -2.56468E+01  6.43107E+02 -7.98289E+02  1.99348E+03 -1.06199E+03
  1.73092E+03  2.60170E+02  2.89725E+03  7.85022E+02  1.09344E+03  1.61556E+03 -2.32791E+02  2.00492E+03
 -1.31135E+03  2.34314E+02 -1.88031E+03 -2.90277E+02 -9.90803E+02 -1.50547E+03  1.88724E+02 -5.83149E+02
  1.29684E+03 -5.20376E+02  8.46087E+02  9.40553E+02  3.59663E+01  1.34680E+03  2.68497E+02  1.19374E+03
 -3.73333E+02  1.04666E+03 -5.24498E+02  1.18489E+02  5.37264E+01  5.02197E+02 -6.22337E+02  4.63742E+02
 -4.88923E+02  9.04628E+02 -1.89275E+03  6.14124E+02 -1.76394E+03  3.07652E+02 -2.54267E+03 -9.46056E+02
 -1.15149E+03 -2.48524E+03  6.09242E+02 -3.08827E+03  1.08839E+03 -2.63524E+03  2.76118E+03 -9.90184E+02
  2.42636E+03 -2.90644E+02  1.59900E+03  1.50110E+03 -5.37280E+02  1.31348E+03 -9.84859E+02  1.60087E+03
 -8.78552E+02  5.49695E+02 -4.46900E+02 -3.13656E+02 -6.88890E+02  1.97819E+02 -5.34453E+02  1.88681E+02
 -8.29490E+02 -6.65377E+01 -8.16537E+02  1.47668E+02  2.03672E+01 -5.20279E+02 -4.06840E+02 -7.93758E+02
  1.36891E+03 -5.70586E+02  4.11419E+02  6.67544E+01  1.60015E+03  8.75381E+02 -1.80139E+02  1.56713E+03
 -1.27999E+03  2.40013E+03 -1.64673E+03  1.46566E+03 -1.89955E+03 -2.06086E+02 -1.37375E+03 -1.01175E+03
 -8.73046E+02 -1.34926E+03  3.65061E+02 -1.64479E+03  7.41438E+02 -7.10450E+02  7.90592E+02  1.16041E+02
  8.23407E+02  4.00053E+02  1.12273E+02  5.46776E+02 -4.07329E+02 -1.40759E+02 -4.10731E+01 -2.70650E+02
  3.36371E+02  1.16512E+02  3.33239E+02  4.35836E+02  2.20668E+02  5.56236E+02  3.76901E+02  4.78235E+02
 -5.49634E+02  3.54762E+02 -8.08427E+02  9.25653E+01 -6.94355E+02 -5.72632E+02  1.70569E+02 -1.19227E+03
  4.49569E+02 -1.01380E+03  7.68334E+02  1.92551E+02  8.81869E+02 -5.96493E+02  5.83130E+02  8.71276E+02
  5.25272E+02  5.53643E+02 -3.34208E+02  7.34295E+02 -3.30810E+02  8.03199E+02 -6.70531E+02  1.19898E+02
 -2.00121E+02 -1.56458E+02 -4.72899E+02  3.18163E+01 -5.68389E+02  2.97013E+02 -7.91008E+02 -4.80915E+02
 -1.03373E+03  2.24689E+02 -3.71070E+02 -1.09614E+03  7.14199E+02 -1.45476E+03  6.22878E+02 -2.88847E+02
  9.04732E+02  3.43168E+02 -2.75673E+02  1.35471E+02  3.10923E+02  1.05351E+03 -3.42368E+02  5.94557E+02
