 $NMID ID='MM_0lb_SNR800_7hz_g55_31.RAW', FMTDAT='(8E13.5)'
 TRAMP=1., VOLUME=1. $END
  3.09468E+05  1.72853E+02  3.38288E+05  2.50805E+05  8.49476E+04  3.39042E+05 -1.33111E+05  2.52786E+05
 -1.91436E+05  8.44387E+04 -1.12565E+05 -3.24478E+04 -7.59563E+00 -5.07222E+04  5.34922E+04 -8.09446E+02
  3.61056E+04  5.25375E+04 -1.60415E+04  7.70002E+04 -6.13561E+04  6.50249E+04 -8.59524E+04  3.31046E+04
 -8.31577E+04 -1.20032E+04 -5.87288E+04 -5.28160E+04 -1.52376E+04 -7.17756E+04  2.85176E+04 -4.67421E+04
  4.17558E+04  3.78932E+03  1.73413E+04  4.85575E+04 -3.49006E+04  4.86457E+04 -6.91168E+04  4.79274E+02
 -5.57775E+04 -5.81312E+04 -7.54807E+03 -8.00478E+04  3.48297E+04 -5.83415E+04  5.06866E+04 -1.87068E+04
  4.63552E+04  1.18251E+04  3.39948E+04  2.70102E+04  1.63982E+04  3.10002E+04 -6.15470E+03  2.77735E+04
 -2.29888E+04  1.16947E+04 -1.81443E+04 -5.85131E+03  7.57104E+03 -7.11813E+03  2.39648E+04  1.43241E+04
  7.12884E+03  3.84458E+04 -3.50183E+04  3.79258E+04 -6.72194E+04  2.15793E+03 -5.94423E+04 -4.54953E+04
 -1.23714E+04 -6.67150E+04  4.25434E+04 -4.84869E+04  6.25240E+04 -2.84359E+03  3.77553E+04  3.55146E+04
 -5.25210E+03  4.11540E+04 -3.29608E+04  2.02923E+04 -3.49017E+04 -3.55796E+03 -2.01294E+04 -1.24888E+04
 -1.00552E+04 -1.64560E+04  1.33277E+02 -2.04516E+04  9.09325E+03 -2.35865E+04  1.66514E+04 -1.21391E+04
  1.03612E+04  6.66756E+03 -1.13760E+04  1.27953E+04 -2.44145E+04 -7.91800E+03 -8.44170E+03 -3.93199E+04
  2.56891E+04 -4.85696E+04  5.38881E+04 -2.17968E+04  5.05245E+04  2.18258E+04  1.86171E+04  4.82068E+04
 -1.72669E+04  3.77133E+04 -2.92911E+04  3.21555E+03 -1.25281E+04 -3.03342E+04  2.19636E+04 -3.83161E+04
  4.62732E+04 -1.25704E+04  4.23994E+04  2.56623E+04  2.33668E+04  5.26978E+04 -8.83367E+03  5.93020E+04
 -3.71657E+04  4.09773E+04 -4.99635E+04  1.19826E+04 -4.99258E+04 -1.93174E+04 -2.75407E+04 -4.40034E+04
  7.76122E+03 -4.40009E+04  3.59697E+04 -1.82456E+04  3.34818E+04  1.13772E+04  6.10182E+03  2.17178E+04
 -1.41712E+04  1.04174E+04 -1.18856E+04 -7.04790E+03  5.64766E+03 -1.19935E+04  1.97028E+04  5.70724E+03
  1.55471E+04  2.28004E+04 -5.00690E+03  2.82073E+04 -2.36162E+04  1.58060E+04 -3.35046E+04 -2.15295E+03
 -2.79234E+04 -1.96338E+04 -1.33221E+04 -2.74680E+04  5.01331E+03 -2.94201E+04  2.20187E+04 -2.53602E+04
  3.52680E+04 -1.50565E+04  4.10380E+04  5.90103E+03  2.91448E+04  2.72258E+04  4.53674E+03  4.40628E+04
 -2.04225E+04  3.54568E+04 -3.17453E+04  1.22606E+04 -2.35002E+04 -1.03084E+04 -5.41172E+03 -1.24934E+04
 -2.87750E+01  5.74331E+01 -9.10851E+03  9.06583E+03 -2.20694E+04  5.14850E+03 -2.23444E+04 -1.07945E+04
 -1.31887E+04 -2.62339E+04  6.60260E+03 -3.02619E+04  2.03622E+04 -2.15683E+04  2.51194E+04 -1.49332E+03
  1.63260E+04  1.76460E+04 -1.34379E+03  2.56404E+04 -1.85398E+04  1.48272E+04 -2.61427E+04 -5.43066E+03
 -1.87966E+04 -2.30285E+04 -2.56262E+03 -3.05142E+04  1.37387E+04 -2.58804E+04  2.53416E+04 -1.34532E+04
  2.46024E+04  8.04527E+01  1.75574E+04  6.00159E+03  1.00674E+04  1.87051E+03  1.31093E+04 -2.40289E+03
  2.43892E+04  2.83728E+03  2.87615E+04  2.02388E+04  1.96738E+04  4.13231E+04 -3.04498E+03  4.94847E+04
 -2.81652E+04  4.22501E+04 -4.72676E+04  2.20301E+04 -5.08581E+04 -3.56328E+03 -4.06943E+04 -3.02486E+04
 -1.56833E+04 -4.22289E+04  1.50629E+04 -3.68165E+04  3.13253E+04 -1.68224E+04  2.63241E+04  8.50757E+03
  8.33738E+03  2.09181E+04 -1.31795E+04  1.68705E+04 -2.22542E+04  2.72048E+03 -1.64161E+04 -1.44772E+04
 -3.45207E+02 -2.19014E+04  1.21305E+04 -1.58970E+04  1.51080E+04 -9.24730E+02  3.79269E+03  1.03822E+04
 -9.75772E+03  4.79381E+03 -1.12208E+04 -8.21064E+03 -2.93403E+03 -2.02222E+04  1.34585E+04 -2.33982E+04
  2.60002E+04 -1.33625E+04  3.11345E+04  2.97711E+03  2.69245E+04  2.13397E+04  1.25838E+04  3.38101E+04
 -6.63688E+03  3.60216E+04 -2.39897E+04  2.19189E+04 -2.66794E+04  4.41069E+03 -1.78134E+04 -7.61315E+03
 -7.09619E+03 -8.40341E+03 -7.23266E+02  9.40945E+01 -2.73601E+03  4.32191E+03 -8.23736E+03  6.04785E+03
 -1.63338E+04 -7.70419E+02 -1.71615E+04 -1.29645E+04 -7.07980E+03 -2.22349E+04  7.49983E+03 -1.81009E+04
  1.46921E+04 -8.14499E+03  1.04850E+04  4.58699E+03 -5.78208E+02  7.54316E+03 -9.73190E+03  5.62846E+01
 -9.16449E+03 -1.16474E+04 -1.35856E+03 -1.83028E+04  1.05493E+04 -1.95631E+04  2.38471E+04 -1.03360E+04
  2.75563E+04  3.30114E+03  1.97837E+04  1.70062E+04  4.38633E+03  2.28008E+04 -1.09576E+04  1.82383E+04
 -1.40073E+04  4.62738E+03 -7.48672E+03 -4.45698E+03  2.71291E+03 -5.43308E+03  9.92601E+03 -6.62871E+02
  7.89954E+03  8.61827E+03  1.08384E+03  1.52140E+04 -1.05794E+04  1.40092E+04 -1.81049E+04  3.09376E+03
 -1.28483E+04 -1.01455E+04 -2.86753E+01 -1.59244E+04  1.08147E+04 -8.29132E+03  1.19249E+04  4.12725E+03
  2.86648E+03  1.24084E+04 -9.40072E+03  1.40853E+04 -1.65926E+04  6.01631E+03 -1.73034E+04 -6.49528E+03
 -1.01703E+04 -1.93233E+04  5.09261E+03 -2.20980E+04  1.88399E+04 -1.33329E+04  2.05305E+04  4.18727E+03
  1.18629E+04  1.60532E+04 -2.45059E+03  1.85836E+04 -1.42250E+04  1.06889E+04 -1.61235E+04 -2.01342E+03
 -1.27303E+04 -1.25181E+04 -2.09060E+03 -1.47302E+04  7.67717E+03 -1.14564E+04  9.59579E+03 -3.67567E+03
  5.81945E+03  2.85938E+03 -1.62288E+03  2.26391E+03 -1.12425E+03 -4.55298E+03  3.67001E+03 -9.78863E+03
  1.45706E+04 -6.51270E+03  2.03144E+04  2.10390E+03  1.94088E+04  1.42408E+04  1.18137E+04  2.64231E+04
 -6.35993E+03  2.97843E+04 -2.42934E+04  2.23162E+04 -3.17102E+04  4.00612E+03 -2.61864E+04 -1.14350E+04
 -1.24914E+04 -2.11346E+04 -6.15894E+01 -1.81694E+04  6.93826E+03 -1.04879E+04  6.44058E+03 -6.50600E+03
  4.91601E+03 -3.73393E+03  4.34763E+03 -4.14238E+03  6.83524E+03 -4.83513E+03  9.38784E+03 -2.24861E+03
  1.31983E+04  2.74533E+03  7.40930E+03  1.19930E+04 -2.61268E+03  1.48324E+04 -1.42430E+04  1.14498E+04
 -1.90806E+04 -1.76124E+03 -1.23520E+04 -1.33303E+04 -2.10383E+03 -2.02050E+04  1.07794E+04 -1.97789E+04
  2.11225E+04 -1.06163E+04  2.48139E+04  3.19606E+03  1.71342E+04  1.79035E+04  2.20578E+03  2.20500E+04
 -9.70757E+03  1.77826E+04 -1.36108E+04  6.22929E+03 -9.27345E+03 -1.34813E+03 -4.36648E+03 -1.95209E+03
 -1.96683E+03 -2.36934E+02 -2.64722E+03  3.07287E+03 -7.45385E+03  3.60943E+03 -1.28302E+04 -1.63635E+03
 -9.97412E+03 -1.24433E+04  1.93405E+02 -1.90160E+04  1.16409E+04 -1.74744E+04  1.93537E+04 -6.13906E+03
  1.87523E+04  8.95094E+03  8.77149E+03  1.72372E+04 -3.21635E+03  1.93391E+04 -1.40232E+04  1.20943E+04
 -1.88213E+04  3.12377E+02 -1.36562E+04 -1.23288E+04 -1.79657E+03 -1.60640E+04  8.17486E+03 -1.18428E+04
  1.19504E+04 -3.36915E+03  8.98122E+03  3.73870E+03  2.95975E+03  5.86343E+03  1.34952E+03  2.87339E+03
  2.88003E+03  1.03437E+03  4.49992E+03  2.50196E+03  5.60498E+03  6.46668E+03  4.84288E+03  1.06491E+04
 -3.42410E+03  1.55815E+04 -1.38704E+04  1.53381E+04 -2.06345E+04  3.97866E+03 -2.09268E+04 -8.92435E+03
 -1.02765E+04 -2.04064E+04  2.94631E+03 -2.18752E+04  1.22782E+04 -1.40547E+04  1.61706E+04 -3.82100E+03
  1.29516E+04  7.47252E+03  3.31000E+03  1.13685E+04 -6.08357E+03  7.46780E+03 -8.52140E+03 -6.46455E+02
 -3.84763E+03 -8.64150E+03  4.11583E+03 -8.96943E+03  8.79331E+03 -3.67907E+03  7.99418E+03  1.77202E+03
  4.74875E+03  4.73026E+03  1.82627E+03  3.81252E+03 -1.04795E+03  3.11019E+03  1.62820E+03 -7.41076E+02
  3.32676E+03 -4.88088E+02  8.22986E+03  3.47682E+03  5.34510E+03  1.10288E+04 -2.01226E+03  1.46612E+04
 -9.54069E+03  1.00662E+04 -1.41829E+04  2.61827E+03 -1.17389E+04 -4.77120E+03 -5.00922E+03 -8.23385E+03
  9.62493E+02 -8.30291E+03  5.55814E+03 -4.07477E+03  4.95540E+03  3.88184E+03 -1.32833E+03  6.73937E+03
 -8.65496E+03  3.41116E+03 -1.01028E+04 -5.10169E+03 -5.83792E+03 -1.13215E+04  1.64577E+03 -1.21028E+04
  6.93086E+03 -7.22568E+03  8.63413E+03 -1.17193E+03  7.18432E+03  3.49673E+03  1.15321E+03  6.29993E+03
 -4.02370E+03  1.97635E+03 -5.17813E+03 -4.24069E+03  2.24120E+03 -9.75555E+03  9.87794E+03 -7.27570E+03
  1.37275E+04  8.94519E+02  1.26935E+04  9.58446E+03  3.86521E+03  1.45623E+04 -5.10417E+03  1.32073E+04
 -1.15933E+04  5.29631E+03 -1.24543E+04 -1.95130E+03 -6.46592E+03 -9.43374E+03  2.56867E+03 -8.89993E+03
  9.00172E+03 -3.86100E+03  8.04320E+03  3.79200E+03  2.56541E+03  7.98680E+03 -1.70942E+03  6.75254E+03
 -3.64019E+03  3.94613E+03 -3.19436E+03  1.18491E+03 -1.78383E+03  8.76487E+02 -2.56170E+03  2.99555E+03
 -3.51456E+03  5.34187E+03 -9.41289E+03  5.14694E+03 -1.43168E+04  1.11992E+02 -1.59635E+04 -9.68732E+03
 -8.47056E+03 -1.93405E+04  3.76328E+03 -2.21616E+04  1.42572E+04 -1.67112E+04  2.08717E+04 -6.45358E+03
  1.94847E+04  4.29286E+03  1.22686E+04  1.34491E+04  1.32250E+03  1.54497E+04 -6.07003E+03  1.10886E+04
 -8.24207E+03  3.90785E+03 -5.36435E+03 -1.84065E+03 -1.48658E+03 -1.78614E+03 -4.30471E+02  9.45733E+00
 -2.51075E+03  5.34951E+02 -3.17717E+03 -1.01948E+03 -1.60281E+03 -3.44184E+03  9.92489E+02 -5.60767E+03
  6.66829E+03 -5.59034E+03  9.50250E+03 -2.78761E+02  1.05337E+04  8.57056E+03  3.48743E+03  1.52624E+04
 -7.30789E+03  1.75267E+04 -1.67591E+04  1.06086E+04 -1.93302E+04 -1.38100E+03 -1.41825E+04 -1.17635E+04
 -5.88693E+03 -1.64568E+04  4.44447E+03 -1.49406E+04  1.04274E+04 -7.59555E+03  1.09136E+04  1.95842E+02
  5.70834E+03  5.36218E+03 -7.67120E+02  4.52980E+03 -2.97187E+03 -8.14874E+02 -2.50196E+02 -3.78775E+03
  4.72158E+03 -2.43050E+03  6.29421E+03  1.52474E+03  4.46116E+03  6.50809E+03  8.61010E+01  8.10504E+03
 -7.51948E+03  6.89119E+03 -1.04605E+04  5.32789E+02 -9.31289E+03 -8.03564E+03 -2.04324E+03 -1.32243E+04
  8.23474E+03 -1.14603E+04  1.32500E+04 -3.64716E+03  1.25084E+04  3.57616E+03  7.35333E+03  1.03364E+04
  1.03358E+03  1.09995E+04 -4.29949E+03  8.50437E+03 -7.14179E+03  4.17533E+03 -5.45021E+03  7.32011E+02
 -2.80411E+03 -4.06122E+02 -3.23268E+03  1.45169E+03 -5.24259E+03  2.15033E+03 -8.07419E+03 -1.83152E+03
 -8.09962E+03 -6.27509E+03 -2.56312E+03 -1.09190E+04  4.54795E+03 -1.12026E+04  9.80002E+03 -5.39828E+03
  1.12477E+04  1.57188E+03  6.42352E+03  7.89096E+03 -1.26240E+03  1.12229E+04 -8.48461E+03  7.04109E+03
