 $NMID ID='MM_0lb_SNR800_17hz_g45_22.RAW', FMTDAT='(8E13.5)'
 TRAMP=1., VOLUME=1. $END
  3.10061E+05  6.33806E+02  3.37306E+05  2.50610E+05  8.45665E+04  3.37867E+05 -1.32540E+05  2.50453E+05
 -1.89835E+05  8.28018E+04 -1.11161E+05 -3.28171E+04  1.21022E+03 -5.04426E+04  5.37332E+04  2.77818E+02
  3.50093E+04  5.28001E+04 -1.68837E+04  7.49747E+04 -6.04249E+04  6.28583E+04 -8.32018E+04  3.15279E+04
 -7.96969E+04 -1.11021E+04 -5.63902E+04 -5.06407E+04 -1.49318E+04 -6.85783E+04  2.70264E+04 -4.48544E+04
  3.93296E+04  3.85067E+03  1.57395E+04  4.72533E+04 -3.43195E+04  4.63762E+04 -6.57368E+04 -6.30681E+02
 -5.24342E+04 -5.61461E+04 -6.53656E+03 -7.56313E+04  3.30604E+04 -5.36871E+04  4.67453E+04 -1.63796E+04
  4.17058E+04  1.12756E+04  3.12214E+04  2.48152E+04  1.56559E+04  2.85383E+04 -4.55030E+03  2.68189E+04
 -2.15357E+04  1.25843E+04 -1.89753E+04 -4.47989E+03  4.71018E+03 -7.45866E+03  2.15790E+04  1.14632E+04
  7.37709E+03  3.37986E+04 -3.10167E+04  3.41546E+04 -6.14503E+04  2.22299E+03 -5.59291E+04 -4.18277E+04
 -1.25003E+04 -6.15698E+04  3.84028E+04 -4.39436E+04  5.61504E+04 -2.09368E+03  3.24264E+04  3.10285E+04
 -6.13019E+03  3.39969E+04 -2.88708E+04  1.39358E+04 -2.84152E+04 -5.06246E+03 -1.49644E+04 -1.01080E+04
 -7.50677E+03 -1.19798E+04 -9.88848E+02 -1.69787E+04  6.99435E+03 -2.27291E+04  1.50009E+04 -1.35783E+04
  1.18295E+04  4.50407E+03 -6.76632E+03  1.30153E+04 -1.98873E+04 -2.79581E+03 -8.00949E+03 -3.13725E+04
  2.12760E+04 -4.13818E+04  4.55528E+04 -1.87716E+04  4.27764E+04  1.86147E+04  1.47153E+04  4.21215E+04
 -1.54710E+04  3.16526E+04 -2.37745E+04  1.17759E+03 -8.74824E+03 -2.68971E+04  2.02922E+04 -3.18648E+04
  3.87802E+04 -7.80266E+03  3.22226E+04  2.28109E+04  1.60388E+04  4.34227E+04 -8.07606E+03  4.65501E+04
 -2.93988E+04  3.09601E+04 -3.85926E+04  8.61253E+03 -3.92433E+04 -1.53434E+04 -2.18095E+04 -3.53609E+04
  7.02417E+03 -3.52718E+04  2.97682E+04 -1.30943E+04  2.72216E+04  1.08865E+04  3.37907E+03  1.82160E+04
 -1.31334E+04  7.80154E+03 -9.90556E+03 -7.64989E+03  5.75900E+03 -1.01212E+04  1.74168E+04  6.31903E+03
  1.25964E+04  2.18678E+04 -6.52148E+03  2.36108E+04 -2.15116E+04  9.87126E+03 -2.57817E+04 -5.83292E+03
 -1.77610E+04 -1.68446E+04 -6.36128E+03 -1.75757E+04  3.90632E+03 -1.58961E+04  1.32178E+04 -1.53417E+04
  2.24241E+04 -1.17427E+04  2.91561E+04  1.40752E+03  2.21498E+04  1.74823E+04  4.32248E+03  3.34160E+04
 -1.62596E+04  2.82934E+04 -2.63322E+04  9.86842E+03 -1.98678E+04 -1.02181E+04 -4.15073E+03 -1.38916E+04
  2.64928E+03 -3.68378E+03 -3.46499E+03  5.89587E+03 -1.38846E+04  5.44474E+03 -1.45415E+04 -5.14693E+03
 -9.02722E+03 -1.63123E+04  4.92212E+03 -2.03245E+04  1.31600E+04 -1.47290E+04  1.56062E+04 -1.67535E+03
  9.69921E+03  1.12733E+04 -1.24227E+03  1.64890E+04 -1.08537E+04  9.12371E+03 -1.64500E+04 -3.58296E+03
 -1.23489E+04 -1.49448E+04 -1.39278E+03 -2.01312E+04  9.09998E+03 -1.61620E+04  1.68555E+04 -7.79990E+03
  1.53646E+04  4.87001E+02  1.11726E+04  3.97748E+03  5.78225E+03  6.38746E+02  8.53434E+03 -1.33021E+03
  1.49239E+04  2.72866E+03  1.59654E+04  1.36286E+04  1.00737E+04  2.61215E+04 -3.19824E+03  2.83545E+04
 -1.69296E+04  2.22315E+04 -2.62905E+04  1.07402E+04 -2.69186E+04 -1.68119E+03 -2.30909E+04 -1.56623E+04
 -1.06635E+04 -2.23677E+04  7.64204E+03 -2.04464E+04  1.82296E+04 -1.11732E+04  1.65027E+04  4.32575E+03
  6.57433E+03  1.19827E+04 -7.26853E+03  1.10002E+04 -1.42856E+04  2.66722E+03 -1.06644E+04 -8.38821E+03
  7.51235E+01 -1.33101E+04  6.43950E+03 -1.00307E+04  8.52908E+03 -1.40774E+03  1.59688E+03  5.39542E+03
 -5.78847E+03  1.49532E+03 -4.12983E+03 -4.75151E+03  3.24288E+02 -1.13839E+04  8.32277E+03 -1.11157E+04
  1.36212E+04 -5.48020E+03  1.33616E+04  2.67983E+03  1.15999E+04  1.05890E+04  5.52787E+03  1.56778E+04
 -2.35015E+03  1.73716E+04 -1.09105E+04  1.12600E+04 -1.25765E+04  3.29743E+03 -9.30185E+03 -2.28007E+03
 -4.78947E+03 -3.53003E+03 -8.02460E+02  1.38145E+03 -2.26709E+03  1.83127E+03 -4.11562E+03  3.52648E+03
 -8.77864E+03 -4.04480E+02 -9.37975E+03 -7.61395E+03 -3.86008E+03 -1.22871E+04  3.67671E+03 -9.25097E+03
  7.86184E+03 -4.17419E+03  5.48978E+03  1.99149E+03  7.77753E+02  3.29988E+03 -3.98107E+03 -2.84897E+02
 -3.86181E+03 -5.33626E+03 -8.99879E+02 -7.90355E+03  4.53271E+03 -8.70773E+03  1.08677E+04 -4.36178E+03
  1.30066E+04  8.56410E+02  9.65157E+03  6.68277E+03  1.97439E+03  9.55284E+03 -5.69708E+03  9.02091E+03
 -7.42756E+03  2.92325E+03 -3.67133E+03 -1.57095E+03  1.47384E+03 -2.08346E+03  5.09359E+03 -8.72701E+02
  4.39860E+03  3.69272E+03  1.34953E+03  6.99525E+03 -5.03069E+03  6.72297E+03 -8.77520E+03  2.13281E+03
 -5.50406E+03 -3.95974E+03  5.08298E+02 -7.42268E+03  4.04979E+03 -3.63068E+03  4.25107E+03  1.34911E+03
  4.57638E+02  3.93304E+03 -4.35741E+03  5.17331E+03 -5.82377E+03  2.31724E+03 -5.28519E+03 -1.53381E+03
 -3.41275E+03 -6.91280E+03  1.30872E+03 -8.10749E+03  6.87390E+03 -5.17460E+03  7.14163E+03  6.93530E+02
  5.04425E+03  5.93571E+03  8.70286E+01  7.85558E+03 -5.61556E+03  4.66533E+03 -6.28863E+03 -5.17448E+02
 -6.06551E+03 -5.61993E+03 -1.40935E+03 -5.60184E+03  3.06092E+03 -5.12800E+03  3.25906E+03 -3.01420E+03
  2.86917E+03  5.12881E+02 -1.40762E+02  1.43937E+03  7.01619E+02 -3.65922E+02  3.92145E+02 -2.32531E+03
  4.49831E+03 -1.22219E+03  6.50921E+03  6.13541E+02  6.49969E+03  3.81182E+03  5.98873E+03  8.48838E+03
 -1.67183E+03  9.99526E+03 -9.01894E+03  7.30249E+03 -1.12921E+04  1.74396E+03 -8.95240E+03 -3.24815E+03
 -4.81567E+03 -7.53894E+03 -4.27322E+02 -5.69793E+03  2.16614E+03 -2.97351E+03  1.99902E+03 -2.55444E+03
  1.38896E+03 -1.52759E+03  2.42067E+03 -2.34525E+03  3.64896E+03 -1.46459E+03  4.13905E+03  4.56828E+02
  5.13355E+03  1.17010E+03  1.47349E+03  4.05096E+03 -1.58956E+03  3.66066E+03 -4.92723E+03  3.36509E+03
 -5.75027E+03 -8.73565E+02 -2.46622E+03 -4.08945E+03  8.51120E+01 -5.97035E+03  3.47762E+03 -6.00946E+03
  6.04026E+03 -3.68981E+03  7.70126E+03  5.45263E+02  5.53402E+03  5.05847E+03  1.26052E+03  6.97193E+03
 -2.47581E+03  6.29497E+03 -3.96734E+03  2.07989E+03 -2.16588E+03 -1.12336E+03 -5.75098E+02 -7.08441E+02
 -4.77994E+02  8.26600E+02 -1.10227E+03  2.24962E+03 -2.79737E+03  1.00375E+03 -4.58390E+03 -4.57602E+02
 -1.93510E+03 -4.49876E+03  7.81475E+02 -5.56045E+03  3.11021E+03 -5.13746E+03  4.21994E+03 -1.41115E+03
  5.10637E+03  2.97980E+03  2.12048E+03  4.24207E+03 -8.97923E+02  5.38966E+03 -3.29874E+03  3.02879E+03
 -4.80595E+03  7.48109E+02 -4.12901E+03 -2.78137E+03 -1.61715E+02 -3.72159E+03  1.67003E+03 -3.00753E+03
  3.20976E+03 -1.52053E+03  1.81985E+03  5.29395E+02  1.01993E+03  1.85179E+03  8.31516E+02  7.03504E+02
  1.83494E+03  8.24679E+02  1.36232E+03  1.02135E+03  1.36650E+03  2.31891E+03  1.66708E+03  2.41951E+03
 -1.19639E+03  3.86092E+03 -3.06484E+03  4.74690E+03 -3.81252E+03  1.78282E+03 -5.07415E+03 -9.54553E+02
 -2.00110E+03 -4.54480E+03  6.40089E+02 -5.56398E+03  2.40012E+03 -3.20073E+03  3.97146E+03 -1.20735E+03
  3.02224E+03  2.03788E+03  6.08356E+02  2.76462E+03 -9.51138E+02  1.58129E+03 -1.40020E+03 -3.23941E+02
 -6.89697E+02 -2.02283E+03  1.34275E+03 -1.84687E+03  1.98184E+03 -1.16119E+03  1.59640E+03  4.72306E+02
  7.84442E+02  6.87971E+02  7.70340E+02  1.43061E+02 -3.71128E+02  5.26146E+02  1.41352E+03 -3.50102E+02
  3.38867E+02 -2.75346E+02  2.37801E+03  5.78579E+02  5.36182E+02  2.89284E+03 -3.76378E+02  3.40434E+03
 -2.25580E+03  1.50427E+03 -2.87781E+03  4.27478E+02 -2.40276E+03 -1.22688E+03 -4.15794E+02 -1.37384E+03
  2.52167E+02 -1.39118E+03  1.21439E+03 -9.85319E+02  5.68115E+02  1.55099E+03 -9.00371E+02  1.61483E+03
 -2.28021E+03  8.79781E+02 -1.72471E+03 -1.61813E+03 -9.17972E+02 -2.48349E+03  3.43669E+02 -2.08448E+03
  8.80134E+02 -7.88789E+02  1.11609E+03 -1.25817E+02  1.83688E+03  3.02410E+02  4.54773E+02  1.24743E+03
 -4.83417E+02  2.59429E+02 -1.08787E+03 -4.39823E+02  5.66015E+02 -1.40753E+03  2.16435E+03 -1.23524E+03
  1.98038E+03  1.57529E+02  3.19861E+03  1.25074E+03  1.69368E+03  2.24291E+03 -4.45980E+02  2.21881E+03
 -2.04032E+03  2.80199E+02 -2.02348E+03 -1.41793E+02 -9.43807E+02 -2.05576E+03  4.82460E+02 -7.32827E+02
  1.85396E+03 -8.54172E+02  1.00200E+03  8.53284E+02  9.99186E+01  1.19507E+03  3.41811E+02  1.71138E+03
 -3.25391E+02  1.54478E+03 -6.11683E+02  1.17123E+02  9.34502E+01  2.28852E+02 -7.43379E+02  8.41113E+02
 -7.96831E+02  1.31922E+03 -2.06393E+03  7.13219E+02 -2.32464E+03  1.39280E+02 -3.21794E+03 -1.26244E+03
 -1.65850E+03 -3.18541E+03  6.34310E+02 -3.60600E+03  1.64741E+03 -3.01186E+03  3.53225E+03 -1.34809E+03
  3.16510E+03  2.07011E+02  1.70676E+03  2.10123E+03 -6.07527E+02  2.37276E+03 -7.75388E+02  1.88692E+03
 -1.38082E+03  9.08985E+02 -8.38231E+02 -3.03719E+02 -6.57327E+02  3.78855E+02 -7.74700E+02 -6.83396E+00
 -1.06840E+03 -1.61674E+02 -8.84594E+02 -1.88098E+01  1.39197E+02 -7.36968E+02 -4.44796E+02 -8.92774E+02
  1.49459E+03 -8.06605E+02  6.46624E+02  3.06808E+02  1.59347E+03  1.18751E+03 -2.07077E+02  2.03454E+03
 -1.22969E+03  2.92203E+03 -2.30566E+03  1.65772E+03 -2.43854E+03 -1.84954E+02 -1.82976E+03 -1.65648E+03
 -1.27363E+03 -1.78351E+03  4.86704E+02 -1.47610E+03  1.04811E+03 -4.89588E+02  1.18480E+03  2.37145E+02
  8.75434E+02  3.85849E+02  1.86760E+02  7.62099E+02 -5.02836E+02 -9.72489E+01  6.43120E+01 -1.68191E+02
  6.89709E+02  1.03338E+02  5.11833E+02  5.76937E+02  2.66915E+02  9.05561E+02  7.48239E+02  7.63346E+02
 -1.09282E+03  8.84808E+02 -6.36532E+02  5.77647E+01 -1.05708E+03 -6.62149E+02  7.13123E+01 -1.78440E+03
  1.08035E+03 -1.07610E+03  9.58825E+02 -1.38990E+02  1.37379E+03 -4.11249E+02  4.40530E+02  1.04230E+03
  4.66064E+02  1.21906E+03 -8.40856E+02  9.14093E+02 -5.18063E+02  7.49157E+02 -4.07481E+02  3.17792E+02
 -3.42987E+02 -1.18381E+01 -6.62384E+02  4.77136E+02 -8.18739E+02 -1.18359E+02 -1.18108E+03  1.80655E+02
 -1.24230E+03  1.33205E+01 -1.97974E+02 -1.30702E+03  8.59093E+02 -1.74876E+03  9.76498E+02 -4.76731E+02
  1.30081E+03  3.14708E+02  8.90991E+01  7.66439E+02  1.59979E+02  1.05970E+03 -6.02746E+02  1.02890E+03
