 $NMID ID='MM_0lb_SNR800_18hz_g45_16.RAW', FMTDAT='(8E13.5)'
 TRAMP=1., VOLUME=1. $END
  3.09785E+05  3.44001E+02  3.37215E+05  2.50481E+05  8.44158E+04  3.37170E+05 -1.32221E+05  2.50326E+05
 -1.89784E+05  8.24735E+04 -1.11034E+05 -3.30730E+04  1.20450E+03 -5.03428E+04  5.38036E+04 -1.49369E+02
  3.50605E+04  5.30509E+04 -1.68466E+04  7.49151E+04 -6.05323E+04  6.27613E+04 -8.28436E+04  3.16783E+04
 -7.97702E+04 -1.13733E+04 -5.65238E+04 -5.02551E+04 -1.49211E+04 -6.83043E+04  2.70649E+04 -4.51530E+04
  3.90497E+04  3.85567E+03  1.54870E+04  4.69092E+04 -3.39744E+04  4.62407E+04 -6.54006E+04 -6.34009E+02
 -5.19134E+04 -5.58249E+04 -6.50708E+03 -7.53996E+04  3.31798E+04 -5.30739E+04  4.63258E+04 -1.64225E+04
  4.17579E+04  1.10813E+04  3.09738E+04  2.40042E+04  1.55719E+04  2.81176E+04 -4.55530E+03  2.67594E+04
 -2.18472E+04  1.28047E+04 -1.90736E+04 -4.30722E+03  4.61735E+03 -7.39719E+03  2.13097E+04  1.10325E+04
  7.43176E+03  3.31616E+04 -3.03977E+04  3.38225E+04 -6.11055E+04  2.24654E+03 -5.54391E+04 -4.11444E+04
 -1.21893E+04 -6.08878E+04  3.84437E+04 -4.35823E+04  5.57987E+04 -2.03216E+03  3.20964E+04  3.03767E+04
 -6.32761E+03  3.34236E+04 -2.86263E+04  1.36875E+04 -2.77034E+04 -5.22584E+03 -1.46137E+04 -9.99494E+03
 -7.18394E+03 -1.13718E+04 -9.18988E+02 -1.67095E+04  6.81545E+03 -2.26497E+04  1.51135E+04 -1.36278E+04
  1.21837E+04  3.99867E+03 -6.63604E+03  1.31264E+04 -1.97954E+04 -2.34762E+03 -7.88790E+03 -3.05200E+04
  2.08190E+04 -4.04501E+04  4.49470E+04 -1.84881E+04  4.21752E+04  1.82602E+04  1.43923E+04  4.17337E+04
 -1.49456E+04  3.13354E+04 -2.34626E+04  9.56696E+02 -8.34193E+03 -2.65649E+04  2.05776E+04 -3.13554E+04
  3.83359E+04 -7.55338E+03  3.14533E+04  2.27438E+04  1.52877E+04  4.28293E+04 -7.54054E+03  4.55304E+04
 -2.84563E+04  2.99804E+04 -3.74698E+04  8.49537E+03 -3.86984E+04 -1.49379E+04 -2.14165E+04 -3.47197E+04
  7.06325E+03 -3.43614E+04  2.91897E+04 -1.27598E+04  2.67647E+04  1.05835E+04  2.75590E+03  1.74693E+04
 -1.30575E+04  7.39933E+03 -9.82202E+03 -7.81991E+03  5.87500E+03 -1.01341E+04  1.72754E+04  6.65616E+03
  1.23359E+04  2.17119E+04 -6.71536E+03  2.35881E+04 -2.14771E+04  9.27894E+03 -2.52683E+04 -6.08385E+03
 -1.72911E+04 -1.65299E+04 -5.78959E+03 -1.68773E+04  3.84033E+03 -1.50779E+04  1.27410E+04 -1.46510E+04
  2.13199E+04 -1.18845E+04  2.83073E+04  1.32519E+03  2.13868E+04  1.67168E+04  4.03340E+03  3.23957E+04
 -1.62286E+04  2.75654E+04 -2.60400E+04  9.40833E+03 -1.98972E+04 -1.03729E+04 -3.84125E+03 -1.38652E+04
  2.65553E+03 -4.03645E+03 -2.84122E+03  5.37629E+03 -1.33796E+04  5.02930E+03 -1.36585E+04 -5.25044E+03
 -8.62343E+03 -1.56131E+04  4.46155E+03 -1.95265E+04  1.26798E+04 -1.41890E+04  1.48369E+04 -1.50058E+03
  8.90412E+03  1.09460E+04 -9.98744E+02  1.56216E+04 -1.02946E+04  8.97620E+03 -1.54634E+04 -3.38554E+03
 -1.16048E+04 -1.45156E+04 -1.48393E+03 -1.89903E+04  8.69837E+03 -1.54609E+04  1.61691E+04 -7.26814E+03
  1.46844E+04  7.43455E+02  1.04384E+04  3.91511E+03  5.12689E+03  5.65905E+02  7.61611E+03 -1.08045E+03
  1.40633E+04  2.66353E+03  1.51584E+04  1.29795E+04  9.33497E+03  2.49995E+04 -3.10802E+03  2.69500E+04
 -1.60766E+04  2.07172E+04 -2.46028E+04  9.98742E+03 -2.53473E+04 -1.93667E+03 -2.16784E+04 -1.44062E+04
 -1.00755E+04 -2.08890E+04  6.82733E+03 -1.93802E+04  1.68217E+04 -1.10644E+04  1.58514E+04  3.60432E+03
  6.76555E+03  1.15375E+04 -7.07603E+03  1.04953E+04 -1.33808E+04  2.45777E+03 -1.04093E+04 -8.02288E+03
 -3.39025E+02 -1.26687E+04  6.03651E+03 -9.68559E+03  8.09088E+03 -1.30006E+03  1.36728E+03  5.28097E+03
 -5.72961E+03  1.35647E+03 -3.79881E+03 -4.46553E+03  4.17789E+02 -1.04711E+04  7.77156E+03 -1.03333E+04
  1.25481E+04 -4.55389E+03  1.21891E+04  2.93771E+03  1.09122E+04  9.72846E+03  4.89746E+03  1.44452E+04
 -1.71300E+03  1.61770E+04 -9.84922E+03  1.04776E+04 -1.14393E+04  2.99421E+03 -8.73200E+03 -1.95643E+03
 -4.58534E+03 -3.27670E+03 -9.84185E+02  1.53396E+03 -1.93521E+03  2.13138E+03 -3.71623E+03  3.61895E+03
 -8.19270E+03 -4.06241E+02 -9.05095E+03 -7.49836E+03 -3.61021E+03 -1.17130E+04  3.75105E+03 -8.60449E+03
  7.31586E+03 -3.87518E+03  5.50672E+03  2.28987E+03  4.64097E+02  3.22212E+03 -3.34332E+03  1.26097E+02
 -3.50606E+03 -5.43839E+03 -8.69139E+02 -7.54577E+03  4.08550E+03 -7.86683E+03  9.97436E+03 -3.96188E+03
  1.20710E+04  6.50844E+02  8.96529E+03  6.19738E+03  2.05827E+03  8.97282E+03 -5.23675E+03  8.22566E+03
 -6.87984E+03  2.67282E+03 -3.93243E+03 -1.39937E+03  1.29379E+03 -2.08190E+03  4.96260E+03 -1.01012E+03
  4.13385E+03  3.52385E+03  1.09408E+03  6.66791E+03 -4.53646E+03  6.72558E+03 -7.96297E+03  1.56871E+03
 -5.04989E+03 -3.75703E+03  1.67603E+01 -6.90062E+03  3.71776E+03 -3.25105E+03  3.74686E+03  9.59728E+02
  3.98913E+02  3.34646E+03 -4.40056E+03  4.89104E+03 -5.17452E+03  2.28782E+03 -4.47597E+03 -1.56857E+03
 -3.07376E+03 -6.16105E+03  1.32252E+03 -7.21358E+03  6.11601E+03 -4.74515E+03  6.57459E+03  9.67659E+02
  4.68031E+03  5.29026E+03  1.91259E+02  7.43206E+03 -5.07651E+03  4.20363E+03 -5.42342E+03 -4.80624E+02
 -5.85766E+03 -5.13586E+03 -1.41769E+03 -5.23122E+03  2.52480E+03 -4.94222E+03  2.81473E+03 -3.18340E+03
  3.00708E+03  3.08491E+02 -1.00923E+02  1.23211E+03  4.31726E+02 -8.62681E+01  1.53500E+02 -2.19224E+03
  3.86560E+03 -7.66283E+02  5.33943E+03  4.77940E+02  5.94417E+03  3.12449E+03  5.41856E+03  7.50378E+03
 -1.34377E+03  9.10824E+03 -7.77720E+03  6.80708E+03 -1.00689E+04  1.21733E+03 -8.13714E+03 -2.72245E+03
 -4.21777E+03 -6.92387E+03 -6.15625E+02 -5.67824E+03  2.11897E+03 -2.31021E+03  1.71294E+03 -1.99563E+03
  1.25097E+03 -1.33007E+03  2.14937E+03 -2.47918E+03  3.71346E+03 -1.49500E+03  3.62588E+03  3.72286E+02
  4.69051E+03  1.00414E+03  1.46414E+03  3.60938E+03 -1.62200E+03  2.62671E+03 -4.28154E+03  2.76086E+03
 -5.09565E+03 -1.06443E+03 -2.08335E+03 -3.43111E+03  3.16483E+02 -5.45287E+03  3.43461E+03 -5.51322E+03
  5.40984E+03 -3.33657E+03  6.96510E+03  3.82038E+02  5.15795E+03  4.51741E+03  1.16964E+03  6.25709E+03
 -2.21664E+03  5.96707E+03 -3.45432E+03  2.09637E+03 -2.18846E+03 -1.02956E+03 -6.67084E+02 -5.24332E+02
 -3.09753E+02  5.14998E+02 -8.85436E+02  2.04990E+03 -2.57838E+03  1.04460E+03 -4.31868E+03 -3.12862E+02
 -1.78768E+03 -3.95857E+03  7.67032E+02 -5.10489E+03  2.70651E+03 -4.87726E+03  3.64922E+03 -1.28406E+03
  4.38846E+03  2.47939E+03  2.07962E+03  3.30412E+03 -8.67058E+02  4.62997E+03 -2.77788E+03  2.86949E+03
 -4.26713E+03  5.97477E+02 -3.26483E+03 -2.52964E+03 -1.63648E+02 -3.32519E+03  1.89684E+03 -2.73121E+03
  2.83140E+03 -1.19598E+03  1.55292E+03  5.42158E+02  6.21862E+02  1.69840E+03  1.00299E+03  5.08979E+02
  1.89852E+03  6.69868E+02  1.41988E+03  9.52430E+02  1.14575E+03  1.98449E+03  1.33069E+03  2.01408E+03
 -1.33730E+03  2.89290E+03 -2.59780E+03  4.22975E+03 -3.14240E+03  1.33177E+03 -4.32220E+03 -3.07143E+02
 -2.01770E+03 -3.77920E+03  7.46819E+02 -5.19936E+03  1.57093E+03 -2.65707E+03  3.36183E+03 -9.10879E+02
  2.63999E+03  1.90195E+03  3.59204E+02  2.43609E+03 -7.97458E+02  1.51157E+03 -1.09184E+03 -7.92546E+01
 -5.93006E+02 -1.49853E+03  1.21532E+03 -1.28896E+03  1.40678E+03 -9.61323E+02  1.67067E+03  3.80585E+02
  8.16912E+02  1.97653E+02  9.59412E+02 -1.97429E+02 -4.71811E+02  8.14460E+02  1.42560E+03 -2.37638E+02
  2.17693E+02 -3.72708E+02  1.84840E+03  1.01010E+03  4.41530E+01  2.49706E+03 -1.51391E+02  3.20596E+03
 -1.89447E+03  1.13599E+03 -2.00068E+03  4.20555E+02 -2.28384E+03 -7.58162E+02 -3.13502E+02 -8.83110E+02
  2.34658E+02 -1.06201E+03  8.96930E+02 -4.17623E+02  6.94702E+02  1.35109E+03 -8.62975E+02  1.27239E+03
 -1.46796E+03  6.88970E+02 -1.43643E+03 -1.24240E+03 -1.94754E+02 -2.42136E+03  4.34384E+02 -1.36454E+03
  3.38141E+02 -7.67810E+02  1.03689E+03  1.33943E+02  1.37502E+03  4.32373E+01  2.21853E+02  1.14259E+03
 -5.70602E+02 -1.40841E+01 -9.96970E+02 -2.15547E+02  7.49674E+02 -8.00690E+02  2.25859E+03 -9.27377E+02
  1.44755E+03  3.08054E+02  2.81669E+03  8.85483E+02  1.15037E+03  1.68987E+03 -3.64765E+02  1.71494E+03
 -1.58594E+03  4.42293E+02 -1.92185E+03 -4.48678E+01 -7.96390E+02 -1.52338E+03  4.02252E+02 -9.82983E+02
  1.18756E+03 -7.99575E+02  8.64454E+02  6.70427E+02  6.57951E+01  1.21624E+03  1.87910E+02  1.19221E+03
 -7.58562E+02  1.20048E+03 -4.64093E+02  3.29149E+02  1.06459E+02  2.86931E+02 -7.76699E+02  7.91525E+02
 -7.99490E+02  1.24430E+03 -1.73126E+03  4.43568E+02 -1.82660E+03  3.49261E+02 -2.67157E+03 -1.15849E+03
 -1.15690E+03 -2.56501E+03  7.95641E+02 -3.33178E+03  1.16458E+03 -2.48630E+03  2.99499E+03 -9.52532E+02
  2.32000E+03 -5.23062E+01  1.54777E+03  1.56482E+03 -5.34270E+02  1.66505E+03 -6.27000E+02  1.26512E+03
 -1.09772E+03  7.78872E+02 -5.49248E+02 -2.06419E+02 -3.39436E+02  3.27421E+02 -5.27978E+02 -2.83254E+01
 -1.13219E+03 -1.93249E+02 -9.22881E+02  8.90497E-01 -5.09661E+01 -7.71252E+02 -3.19505E+02 -1.03432E+03
  1.29227E+03 -9.35066E+02  5.93448E+02  4.01680E+02  1.39789E+03  7.79537E+02 -3.63286E+02  1.71636E+03
 -1.15467E+03  2.18985E+03 -1.60765E+03  1.41656E+03 -1.88955E+03 -8.76482E+01 -1.30041E+03 -1.40306E+03
 -9.25335E+02 -1.63575E+03  1.88202E+02 -1.55654E+03  9.82792E+02 -6.06451E+02  7.87157E+02  2.73357E+02
  8.07381E+02  2.93084E+02  1.92667E+02  4.37080E+02 -6.12751E+02 -2.20044E+01 -1.75742E+02 -2.23398E+02
  1.66382E+02  2.23877E+02  5.71998E+02  4.44844E+02  3.46456E+02  5.58292E+02  3.65370E+02  2.81473E+02
 -5.94910E+02  6.36722E+02 -7.66846E+02  8.46738E+01 -8.76766E+02 -5.19751E+02 -1.43666E+02 -1.62683E+03
  7.20785E+02 -5.06684E+02  7.41284E+02 -3.31498E+02  9.13281E+02 -4.94541E+02  5.47551E+02  6.01924E+02
  2.90845E+02  6.01391E+02 -1.26589E+02  8.98205E+02 -4.21843E+02  6.92248E+02 -3.14976E+02  5.41759E+01
 -7.12356E+01 -1.21433E+02 -3.83355E+02  3.32894E+02 -6.01945E+02  2.45035E+02 -9.35985E+02 -6.16914E+01
 -1.04423E+03  1.79219E+02 -2.37470E+02 -1.16437E+03  7.66664E+02 -1.50640E+03  7.58135E+02 -4.63752E+02
  9.03449E+02  1.62208E+02 -1.87921E+02  3.69393E+02 -8.08586E+01  1.16725E+03 -5.03424E+02  6.40521E+02
