 $NMID ID='MM_0lb_SNR800_20hz_g60_26.RAW', FMTDAT='(8E13.5)'
 TRAMP=1., VOLUME=1. $END
  3.09893E+05  4.59290E+02  3.37413E+05  2.50478E+05  8.45248E+04  3.37710E+05 -1.32443E+05  2.50737E+05
 -1.90069E+05  8.29063E+04 -1.11294E+05 -3.25039E+04  1.32352E+03 -5.03093E+04  5.38287E+04  8.03885E+01
  3.52495E+04  5.31171E+04 -1.68409E+04  7.48634E+04 -6.04219E+04  6.30871E+04 -8.34442E+04  3.18531E+04
 -8.01848E+04 -1.13330E+04 -5.67975E+04 -5.05751E+04 -1.49442E+04 -6.90521E+04  2.69812E+04 -4.51889E+04
  3.93654E+04  3.97386E+03  1.59388E+04  4.72652E+04 -3.40819E+04  4.65009E+04 -6.58379E+04 -4.73581E+02
 -5.25282E+04 -5.62253E+04 -6.31059E+03 -7.56358E+04  3.37959E+04 -5.40523E+04  4.70214E+04 -1.66819E+04
  4.21455E+04  1.09634E+04  3.12941E+04  2.48690E+04  1.57860E+04  2.87004E+04 -4.71537E+03  2.69158E+04
 -2.19200E+04  1.26804E+04 -1.88930E+04 -4.58953E+03  4.74450E+03 -7.52285E+03  2.14004E+04  1.15963E+04
  7.58549E+03  3.41200E+04 -3.13829E+04  3.43373E+04 -6.18052E+04  2.04194E+03 -5.58529E+04 -4.15383E+04
 -1.24048E+04 -6.15744E+04  3.86450E+04 -4.39372E+04  5.65600E+04 -2.04365E+03  3.27457E+04  3.10751E+04
 -6.35565E+03  3.39538E+04 -2.87605E+04  1.40702E+04 -2.81918E+04 -4.97900E+03 -1.49529E+04 -1.04023E+04
 -7.71644E+03 -1.20123E+04 -7.00815E+02 -1.65826E+04  6.82383E+03 -2.26146E+04  1.51422E+04 -1.38810E+04
  1.18998E+04  4.63820E+03 -7.02252E+03  1.30623E+04 -2.00438E+04 -3.30144E+03 -8.21177E+03 -3.12219E+04
  2.12509E+04 -4.16748E+04  4.56867E+04 -1.88891E+04  4.28896E+04  1.86362E+04  1.44483E+04  4.21119E+04
 -1.53194E+04  3.14310E+04 -2.41470E+04  1.18277E+03 -8.69139E+03 -2.66419E+04  2.05823E+04 -3.19981E+04
  3.87652E+04 -7.89742E+03  3.22261E+04  2.30819E+04  1.61927E+04  4.34810E+04 -7.64484E+03  4.63132E+04
 -2.89094E+04  3.05821E+04 -3.85160E+04  8.47925E+03 -3.91230E+04 -1.54226E+04 -2.19258E+04 -3.49629E+04
  7.07154E+03 -3.50059E+04  2.97884E+04 -1.30439E+04  2.73546E+04  1.09314E+04  3.23036E+03  1.81515E+04
 -1.31160E+04  7.37352E+03 -9.59987E+03 -7.44527E+03  5.88205E+03 -1.01059E+04  1.74155E+04  6.69580E+03
  1.24698E+04  2.14080E+04 -6.46355E+03  2.38722E+04 -2.15822E+04  9.48630E+03 -2.56153E+04 -6.02787E+03
 -1.71608E+04 -1.65296E+04 -6.23764E+03 -1.72531E+04  3.86399E+03 -1.55293E+04  1.29544E+04 -1.50193E+04
  2.18638E+04 -1.17759E+04  2.87752E+04  1.23756E+03  2.16299E+04  1.70053E+04  4.22458E+03  3.27141E+04
 -1.63972E+04  2.78330E+04 -2.61709E+04  9.24220E+03 -1.98294E+04 -1.04290E+04 -3.87108E+03 -1.37063E+04
  2.43043E+03 -4.17505E+03 -2.71018E+03  5.49436E+03 -1.33646E+04  5.45560E+03 -1.36014E+04 -5.31124E+03
 -8.67132E+03 -1.59277E+04  4.64134E+03 -1.96288E+04  1.27241E+04 -1.43784E+04  1.50528E+04 -1.65964E+03
  9.18192E+03  1.12797E+04 -9.02674E+02  1.61013E+04 -1.05266E+04  8.78246E+03 -1.58029E+04 -3.63826E+03
 -1.15070E+04 -1.45740E+04 -1.35083E+03 -1.94246E+04  8.56785E+03 -1.57990E+04  1.66016E+04 -7.20846E+03
  1.47793E+04  4.90264E+02  1.07079E+04  3.80855E+03  5.13089E+03  7.53529E+02  7.75760E+03 -1.34229E+03
  1.41171E+04  2.67995E+03  1.50396E+04  1.29418E+04  9.39063E+03  2.50484E+04 -3.21957E+03  2.70952E+04
 -1.59368E+04  2.07179E+04 -2.48997E+04  9.73496E+03 -2.51609E+04 -1.87812E+03 -2.15571E+04 -1.45766E+04
 -1.04579E+04 -2.05212E+04  7.04078E+03 -1.94017E+04  1.68854E+04 -1.08078E+04  1.55930E+04  3.95123E+03
  6.66145E+03  1.12859E+04 -7.11128E+03  1.05733E+04 -1.36636E+04  2.33784E+03 -1.04236E+04 -8.11799E+03
 -5.40913E+01 -1.24880E+04  6.08145E+03 -9.34293E+03  7.95725E+03 -1.84126E+03  1.47330E+03  4.95349E+03
 -5.27646E+03  1.15416E+03 -3.57523E+03 -4.61295E+03  6.33712E+02 -1.02407E+04  7.82838E+03 -9.87774E+03
  1.20895E+04 -4.66343E+03  1.20228E+04  2.58700E+03  1.00725E+04  9.41745E+03  4.80791E+03  1.40708E+04
 -1.56495E+03  1.58900E+04 -9.56049E+03  9.96013E+03 -1.10839E+04  3.17120E+03 -8.27687E+03 -1.93477E+03
 -4.42939E+03 -2.93650E+03 -9.09384E+02  1.62380E+03 -1.99473E+03  1.86750E+03 -3.66367E+03  3.53186E+03
 -7.87768E+03 -4.23396E+02 -8.63527E+03 -6.89464E+03 -3.48888E+03 -1.14801E+04  3.34767E+03 -8.37139E+03
  7.18036E+03 -3.80195E+03  5.37329E+03  2.14398E+03  7.79810E+02  2.97935E+03 -3.54567E+03 -3.34177E+02
 -3.22111E+03 -4.91395E+03 -6.94752E+02 -6.81263E+03  3.89404E+03 -7.74637E+03  9.79473E+03 -3.60519E+03
  1.15069E+04  8.23765E+02  8.51891E+03  5.70621E+03  1.53953E+03  8.14165E+03 -5.17595E+03  8.06050E+03
 -6.80009E+03  2.66568E+03 -3.11722E+03 -1.10908E+03  1.28177E+03 -1.97544E+03  4.73485E+03 -1.18168E+03
  3.95007E+03  3.38926E+03  1.10763E+03  6.04622E+03 -4.21626E+03  6.08135E+03 -7.72042E+03  1.72630E+03
 -4.94029E+03 -3.28921E+03  1.89340E+02 -6.20946E+03  3.42276E+03 -3.15704E+03  3.16720E+03  9.02721E+02
  3.68395E+02  3.19556E+03 -3.74480E+03  4.54466E+03 -4.24955E+03  2.22364E+03 -3.78720E+03 -1.10339E+03
 -2.71685E+03 -5.63281E+03  1.05907E+03 -6.54199E+03  5.71881E+03 -4.28674E+03  5.95206E+03  1.09922E+03
  4.60835E+03  5.11099E+03  1.95267E+02  7.04489E+03 -4.57115E+03  3.90112E+03 -4.62055E+03  5.43622E+00
 -5.37586E+03 -4.98878E+03 -1.43481E+03 -4.69242E+03  2.47689E+03 -4.57115E+03  2.51996E+03 -2.92283E+03
  2.74216E+03  1.92220E+02  1.05389E+02  1.08220E+03  8.82093E+02  4.06041E+01  1.09615E+02 -1.29890E+03
  3.27669E+03 -4.26406E+02  4.62165E+03  7.02634E+02  5.12682E+03  2.80839E+03  5.06121E+03  6.56220E+03
 -1.06477E+03  7.46286E+03 -7.05438E+03  5.84035E+03 -8.88428E+03  8.99232E+02 -7.00975E+03 -2.09118E+03
 -3.83545E+03 -6.12164E+03 -5.57418E+02 -4.89931E+03  2.32842E+03 -1.82237E+03  1.33019E+03 -1.78748E+03
  1.08618E+03 -1.63420E+03  2.02014E+03 -2.28654E+03  3.40184E+03 -1.27530E+03  3.37182E+03  3.73898E+02
  4.11934E+03  1.33958E+03  8.58043E+02  3.32742E+03 -1.56046E+03  2.43327E+03 -3.83912E+03  2.42233E+03
 -4.51028E+03 -1.33863E+03 -1.29842E+03 -2.93030E+03  5.72596E+02 -4.13316E+03  2.99578E+03 -4.74648E+03
  4.33443E+03 -3.04084E+03  6.16078E+03  2.87999E+01  4.44297E+03  3.67849E+03  1.01261E+03  5.32303E+03
 -1.61251E+03  4.94068E+03 -2.85442E+03  1.82458E+03 -1.44427E+03 -1.06569E+03 -3.05284E+02 -7.29879E+02
 -4.11325E+02  4.68097E+02 -1.05703E+03  1.81799E+03 -2.24924E+03  8.01493E+02 -3.68614E+03 -2.16832E+02
 -1.24697E+03 -3.56868E+03  8.17895E+02 -3.95200E+03  2.46522E+03 -3.78628E+03  2.79454E+03 -1.02282E+03
  3.28163E+03  2.06249E+03  1.34632E+03  2.58065E+03 -6.04617E+02  3.73808E+03 -2.25161E+03  2.27140E+03
 -3.02841E+03  5.95875E+02 -3.09935E+03 -2.03797E+03 -1.73585E+02 -2.67809E+03  1.27737E+03 -2.13562E+03
  2.21514E+03 -1.16627E+03  1.51706E+03  2.54897E+02  3.25257E+02  1.58701E+03  7.55060E+02  3.29404E+02
  1.45485E+03  5.51477E+02  1.10951E+03  8.45804E+02  6.66079E+02  2.15504E+03  1.12404E+03  1.34167E+03
 -1.18113E+03  2.14322E+03 -1.94858E+03  3.57955E+03 -2.24725E+03  1.27686E+03 -3.55597E+03 -1.04068E+02
 -1.54266E+03 -2.97973E+03  8.12789E+02 -3.80363E+03  1.66500E+03 -1.74769E+03  2.57708E+03 -8.27871E+02
  2.08338E+03  1.37308E+03  8.93376E+01  1.92297E+03 -5.70010E+02  1.03112E+03 -8.80571E+02 -1.99869E+02
 -2.93914E+02 -1.43208E+03  9.99374E+02 -1.09087E+03  9.27008E+02 -8.32614E+02  1.05447E+03  1.46753E+02
  5.34086E+02 -4.04037E+01  9.16981E+02 -6.31233E+02 -2.72194E+02  3.65248E+02  1.50327E+03 -2.64611E+02
  3.47752E+01 -1.12245E+02  1.33836E+03  4.43810E+02 -2.62055E+02  1.92349E+03 -1.45848E+02  2.21719E+03
 -9.64432E+02  7.18521E+02 -1.33118E+03  2.99161E+02 -1.49993E+03 -4.45541E+02  9.78376E+01 -1.80581E+02
 -6.50908E+01 -6.44639E+02  7.31414E+02 -5.17162E+02  3.94258E+02  1.10194E+03 -5.54790E+02  8.36951E+02
 -1.10391E+03  7.79877E+02 -7.06196E+02 -1.38136E+03 -3.72791E+02 -1.54950E+03  1.76355E+02 -1.21584E+03
  2.83550E+02 -4.91928E+01  5.85120E+02  3.27207E+02  8.57449E+02 -4.38269E+02  3.99748E+02  7.42184E+02
 -2.33119E+02 -9.17078E+01 -7.73083E+02 -3.61635E+01  7.54462E+02 -4.07821E+02  1.47951E+03 -6.04314E+02
  7.93612E+02  2.03664E+02  2.33820E+03  3.02295E+02  8.81694E+02  9.57226E+02 -2.40256E+02  1.28595E+03
 -1.04442E+03 -5.12065E+01 -8.53604E+02 -3.90931E+02 -2.72675E+02 -1.13046E+03  3.38923E+02 -2.09684E+01
  8.64261E+02 -8.17939E+02  4.66084E+02  2.74926E+02  3.02968E+01  1.26295E+03  2.78128E+02  8.26431E+02
 -3.23569E+01  1.09549E+03 -2.26364E+02  2.80444E+02  2.60547E+02  4.41521E+02 -6.60315E+02  6.21029E+02
 -6.29364E+02  8.93321E+02 -1.42755E+03  1.18274E+02 -1.10990E+03  2.69838E+02 -1.71978E+03 -7.25697E+02
 -4.38255E+02 -1.63418E+03  4.66193E+02 -2.19381E+03  2.60000E+02 -1.72002E+03  1.84753E+03 -8.70255E+02
  1.56609E+03 -3.71730E+02  6.40897E+02  1.00834E+03 -8.32850E+02  8.40222E+02 -2.49664E+02  8.51360E+02
 -7.77339E+02  5.44433E+02 -2.33613E+02 -1.76278E+02 -2.46705E+02  3.52420E+02 -6.23563E+02  2.77263E+02
 -1.00699E+03 -8.62035E+01 -6.16253E+02  2.33599E+02  3.57650E+02 -3.92721E+02 -3.80299E+02 -7.24130E+02
  1.18344E+03 -3.69204E+02  6.45749E+01  1.68543E+02  9.06912E+02  6.74166E+02 -5.97925E+02  8.53660E+02
 -7.53100E+02  1.59565E+03 -1.08159E+03  8.80657E+02 -7.68583E+02 -3.07196E+02 -4.40817E+02 -9.76371E+02
 -5.89058E+02 -8.68335E+02  3.91060E+01 -6.24672E+02  9.58899E+01 -4.54248E+01  2.37172E+02  4.05445E+02
  7.01644E+02  2.08533E+02  1.46738E+02  8.78728E+01 -3.79318E+02  2.85679E+01  3.27743E+00 -4.23485E+02
  4.40529E+02  2.68528E+02  1.14801E+01  6.00243E+02  3.80232E+01  2.10041E+02  5.71098E+02 -2.94662E+02
 -4.23633E+02  4.14605E+02 -1.04965E+02  6.31470E+01 -6.07716E+02  1.53366E+02  2.66916E+02 -7.03295E+02
  7.16770E+01 -1.92364E+02  8.40090E+01  5.07752E+01  7.04205E+02 -6.22253E+02  1.97830E+02  4.12600E+02
  7.57588E+02  1.08922E+02  2.19921E+00  2.36915E+02 -2.70955E+02  6.95688E+02 -2.47953E+02 -5.85033E+01
 -1.79529E+02 -1.46740E+02 -3.29092E+02  2.65194E+02 -1.03573E+02 -3.66154E+01 -3.31239E+02 -3.11258E+02
 -6.86083E+02  4.67967E+02 -2.21406E+02 -5.57610E+02  6.51934E+02 -1.34677E+03  3.30500E+02 -1.46297E+02
  4.90127E+02 -2.84623E+01 -6.79867E+02 -2.45797E+02  3.53624E+02  4.83968E+02  4.78983E+01  1.95803E+02
