 $NMID ID='MM_0lb_SNR800_13hz_g45_16.RAW', FMTDAT='(8E13.5)'
 TRAMP=1., VOLUME=1. $END
  3.09771E+05  5.53242E+02  3.37727E+05  2.50548E+05  8.45798E+04  3.38096E+05 -1.32437E+05  2.51381E+05
 -1.90251E+05  8.31556E+04 -1.11815E+05 -3.27588E+04  9.07427E+02 -5.05905E+04  5.38924E+04 -7.07523E+01
  3.54744E+04  5.26513E+04 -1.66929E+04  7.51631E+04 -6.10156E+04  6.40479E+04 -8.39931E+04  3.19701E+04
 -8.09643E+04 -1.14634E+04 -5.71807E+04 -5.15559E+04 -1.48632E+04 -6.97646E+04  2.73447E+04 -4.57497E+04
  3.95672E+04  3.67660E+03  1.61991E+04  4.77773E+04 -3.42656E+04  4.69941E+04 -6.67507E+04 -3.46341E+02
 -5.34369E+04 -5.67924E+04 -6.86983E+03 -7.71612E+04  3.39786E+04 -5.52173E+04  4.83795E+04 -1.73457E+04
  4.36282E+04  1.11429E+04  3.16542E+04  2.56376E+04  1.57863E+04  2.94564E+04 -5.25856E+03  2.70446E+04
 -2.21534E+04  1.24180E+04 -1.83222E+04 -5.21692E+03  5.74155E+03 -7.34514E+03  2.21423E+04  1.24229E+04
  7.11716E+03  3.58226E+04 -3.21233E+04  3.57657E+04 -6.37017E+04  1.99836E+03 -5.73232E+04 -4.29199E+04
 -1.25967E+04 -6.34561E+04  4.00006E+04 -4.59274E+04  5.84076E+04 -2.11082E+03  3.44565E+04  3.27631E+04
 -5.82406E+03  3.64154E+04 -3.03567E+04  1.61357E+04 -3.06567E+04 -4.41964E+03 -1.71255E+04 -1.13758E+04
 -8.56443E+03 -1.33790E+04 -8.97178E+02 -1.84392E+04  7.82636E+03 -2.29057E+04  1.53921E+04 -1.32674E+04
  1.11915E+04  5.29221E+03 -8.41291E+03  1.29517E+04 -2.13257E+04 -4.66979E+03 -8.36256E+03 -3.39495E+04
  2.28671E+04 -4.38595E+04  4.86289E+04 -1.96137E+04  4.54127E+04  1.95204E+04  1.58736E+04  4.46652E+04
 -1.58547E+04  3.35968E+04 -2.53223E+04  1.89706E+03 -9.96355E+03 -2.78813E+04  2.10506E+04 -3.39918E+04
  4.13755E+04 -9.05978E+03  3.58872E+04  2.39481E+04  1.86145E+04  4.66388E+04 -7.96315E+03  5.09159E+04
 -3.21154E+04  3.42269E+04 -4.25561E+04  9.64616E+03 -4.29481E+04 -1.68755E+04 -2.34309E+04 -3.84458E+04
  7.43653E+03 -3.81919E+04  3.19431E+04 -1.49223E+04  2.93492E+04  1.11599E+04  4.26697E+03  1.98315E+04
 -1.32897E+04  8.51367E+03 -1.01731E+04 -7.77058E+03  5.38419E+03 -1.07877E+04  1.80083E+04  5.83621E+03
  1.37454E+04  2.20448E+04 -5.99791E+03  2.50995E+04 -2.26684E+04  1.17993E+04 -2.83613E+04 -4.85648E+03
 -2.09832E+04 -1.73778E+04 -8.41376E+03 -2.09311E+04  3.92950E+03 -2.02766E+04  1.62676E+04 -1.88071E+04
  2.67560E+04 -1.32642E+04  3.31207E+04  2.87492E+03  2.40777E+04  2.05516E+04  3.92745E+03  3.68107E+04
 -1.77784E+04  3.05535E+04 -2.84555E+04  1.07602E+04 -2.12790E+04 -1.04362E+04 -4.34594E+03 -1.35625E+04
  1.71842E+03 -2.42548E+03 -4.99283E+03  6.98350E+03 -1.65363E+04  5.01388E+03 -1.66641E+04 -7.44470E+03
 -1.03848E+04 -1.95109E+04  5.39656E+03 -2.32409E+04  1.57501E+04 -1.67084E+04  1.83129E+04 -1.55912E+03
  1.18078E+04  1.35792E+04 -1.14535E+03  1.96167E+04 -1.35566E+04  1.12561E+04 -1.96841E+04 -4.08177E+03
 -1.41582E+04 -1.75525E+04 -1.78032E+03 -2.33482E+04  1.08640E+04 -1.88221E+04  1.94310E+04 -9.70748E+03
  1.82128E+04  1.77506E+02  1.30102E+04  4.39934E+03  7.12108E+03  1.00544E+03  1.00276E+04 -1.95339E+03
  1.79077E+04  2.43832E+03  2.00098E+04  1.55228E+04  1.35842E+04  3.11999E+04 -2.77141E+03  3.52082E+04
 -2.04757E+04  2.84554E+04 -3.30556E+04  1.41498E+04 -3.46862E+04 -2.50461E+03 -2.85565E+04 -2.01248E+04
 -1.24648E+04 -2.85087E+04  9.62685E+03 -2.56040E+04  2.20288E+04 -1.29241E+04  1.98150E+04  5.64656E+03
  7.17841E+03  1.48570E+04 -9.11269E+03  1.31456E+04 -1.67908E+04  2.78964E+03 -1.27275E+04 -1.04450E+04
 -3.22044E+02 -1.55521E+04  8.25416E+03 -1.19965E+04  1.07227E+04 -1.76388E+03  2.07183E+03  6.67933E+03
 -7.07941E+03  2.66114E+03 -6.03167E+03 -5.73766E+03 -8.28322E+02 -1.39888E+04  9.93513E+03 -1.50384E+04
  1.72538E+04 -7.45269E+03  1.88198E+04  3.27630E+03  1.63191E+04  1.39515E+04  7.55792E+03  2.14000E+04
 -3.54621E+03  2.33040E+04 -1.47581E+04  1.45290E+04 -1.69423E+04  3.44394E+03 -1.13333E+04 -3.95814E+03
 -5.32475E+03 -5.10773E+03 -3.68806E+02  9.41030E+02 -2.58912E+03  2.77050E+03 -5.41402E+03  4.51188E+03
 -1.09924E+04 -7.78048E+02 -1.18425E+04 -9.44099E+03 -4.80646E+03 -1.53791E+04  4.86989E+03 -1.17948E+04
  9.81114E+03 -4.94020E+03  6.90931E+03  3.03506E+03  2.54582E+02  4.31561E+03 -5.54419E+03  8.76171E+01
 -5.37697E+03 -7.63933E+03 -7.00953E+02 -1.11071E+04  6.22837E+03 -1.17272E+04  1.53115E+04 -6.02130E+03
  1.73292E+04  1.33068E+03  1.30055E+04  9.98073E+03  2.64078E+03  1.35764E+04 -7.25578E+03  1.17188E+04
 -9.62384E+03  3.49425E+03 -4.83858E+03 -2.17171E+03  1.89777E+03 -2.77587E+03  6.29368E+03 -1.02837E+03
  5.80550E+03  4.97614E+03  1.14900E+03  9.21063E+03 -6.60276E+03  9.23106E+03 -1.14042E+04  2.45306E+03
 -7.67574E+03 -5.97664E+03  3.05506E+02 -9.42703E+03  6.22298E+03 -4.81553E+03  6.31830E+03  1.89471E+03
  1.57473E+03  6.50209E+03 -5.96405E+03  7.83215E+03 -8.83204E+03  3.66870E+03 -8.94315E+03 -2.82793E+03
 -5.30317E+03 -1.04544E+04  2.48550E+03 -1.22885E+04  1.00737E+04 -7.32253E+03  1.12884E+04  1.87022E+03
  7.24390E+03  9.14388E+03 -6.89285E+02  1.13886E+04 -7.85441E+03  6.41107E+03 -8.88048E+03 -1.02054E+03
 -8.30701E+03 -7.31299E+03 -1.70280E+03 -8.04115E+03  4.25514E+03 -6.88950E+03  5.35898E+03 -3.39495E+03
  3.80719E+03  1.43353E+03 -5.27561E+02  1.87804E+03 -1.34706E+02 -1.67023E+03  1.32977E+03 -4.36415E+03
  7.35862E+03 -2.51586E+03  9.95004E+03  1.36377E+03  1.00514E+04  6.75814E+03  7.78311E+03  1.38380E+04
 -3.02646E+03  1.52944E+04 -1.32174E+04  1.18174E+04 -1.70034E+04  1.93967E+03 -1.33901E+04 -5.64925E+03
 -6.96291E+03 -1.12514E+04 -2.87110E+02 -9.27538E+03  3.54273E+03 -5.05246E+03  3.23977E+03 -3.46139E+03
  2.36009E+03 -2.14129E+03  2.91146E+03 -3.16599E+03  4.30735E+03 -2.17088E+03  5.26679E+03 -1.54728E+02
  7.39302E+03  1.61251E+03  3.56467E+03  6.21699E+03 -1.76033E+03  6.02879E+03 -7.56908E+03  5.16980E+03
 -9.46594E+03 -1.23369E+03 -5.36075E+03 -6.48109E+03 -4.86372E+02 -9.60663E+03  5.42556E+03 -9.92638E+03
  1.00669E+04 -5.81796E+03  1.24007E+04  1.29799E+03  8.65966E+03  8.29375E+03  1.22897E+03  1.13383E+04
 -4.60959E+03  9.69499E+03 -6.46785E+03  3.18535E+03 -4.03279E+03 -1.14733E+03 -1.41832E+03 -1.03924E+03
 -1.13598E+03  4.96803E+02 -1.39339E+03  2.35711E+03 -4.49551E+03  1.54931E+03 -6.82093E+03 -8.52057E+02
 -4.12524E+03 -6.79057E+03  4.96753E+02 -9.38804E+03  5.63930E+03 -8.46248E+03  8.17819E+03 -2.30452E+03
  8.49594E+03  4.26249E+03  3.95801E+03  7.42404E+03 -1.44820E+03  8.92825E+03 -6.19733E+03  5.73921E+03
 -8.04061E+03  3.98793E+02 -6.56541E+03 -5.40327E+03 -5.52331E+02 -7.02327E+03  3.91218E+03 -5.22063E+03
  5.32760E+03 -2.00322E+03  3.71921E+03  1.35568E+03  1.40971E+03  2.99508E+03  1.23022E+03  1.16015E+03
  2.27304E+03  9.26538E+02  2.35779E+03  1.25849E+03  2.69810E+03  3.59234E+03  2.32775E+03  4.29979E+03
 -1.97660E+03  6.91874E+03 -5.81352E+03  7.39999E+03 -8.45014E+03  2.13526E+03 -8.87338E+03 -2.95393E+03
 -3.88249E+03 -8.21877E+03  1.83746E+03 -9.72702E+03  4.63512E+03 -5.89290E+03  7.05915E+03 -1.69626E+03
  5.10253E+03  3.74962E+03  1.17546E+03  5.08027E+03 -2.30927E+03  2.97395E+03 -3.19200E+03 -5.10256E+02
 -1.53694E+03 -3.58710E+03  2.28508E+03 -3.88599E+03  3.30834E+03 -2.20957E+03  3.40629E+03  6.83878E+02
  1.90818E+03  1.06519E+03  1.15977E+03  5.26329E+02 -6.03897E+02  1.04461E+03  1.63946E+03 -1.50874E+02
  1.19780E+03 -4.21917E+02  3.79167E+03  1.40376E+03  1.79061E+03  4.68004E+03 -5.77577E+02  5.74040E+03
 -3.70608E+03  3.19728E+03 -5.28187E+03  1.01225E+03 -4.82124E+03 -1.33331E+03 -1.12543E+03 -3.00315E+03
  6.75955E+02 -3.17708E+03  1.89890E+03 -1.48501E+03  1.36200E+03  2.32556E+03 -1.13351E+03  2.71139E+03
 -3.34978E+03  1.60840E+03 -3.51515E+03 -2.40212E+03 -2.00483E+03 -4.56693E+03  6.40832E+02 -4.21023E+03
  2.21656E+03 -2.50631E+03  2.85775E+03 -1.11116E+02  2.58568E+03  1.18282E+03  4.64299E+02  2.18122E+03
 -1.24468E+03  4.82436E+02 -1.94804E+03 -1.15905E+03  4.81244E+02 -3.19485E+03  3.81791E+03 -2.59840E+03
  4.32255E+03  4.26466E+02  5.16689E+03  2.97153E+03  1.85281E+03  4.86606E+03 -1.13630E+03  4.80771E+03
 -4.05030E+03  1.90559E+03 -4.28360E+03 -5.44073E+02 -2.47345E+03 -3.18890E+03  7.04550E+02 -2.71395E+03
  3.32140E+03 -1.93318E+03  2.94341E+03  1.46766E+03  6.51111E+02  3.00664E+03 -3.29469E+02  2.50590E+03
 -1.26354E+03  2.11997E+03 -1.06168E+03  4.78238E+02 -3.60530E+02  5.27599E+02 -1.22943E+03  7.80145E+02
 -1.41688E+03  2.13787E+03 -3.59035E+03  2.08943E+03 -4.65550E+03  5.13124E+00 -5.59972E+03 -3.40687E+03
 -2.96062E+03 -6.56865E+03  1.04137E+03 -7.69603E+03  4.16376E+03 -6.07210E+03  7.14967E+03 -2.61481E+03
  6.63293E+03  9.49585E+02  3.73393E+03  4.20500E+03 -8.68414E+01  4.98985E+03 -2.20053E+03  3.65421E+03
 -2.69773E+03  1.68554E+03 -1.47172E+03 -5.64756E+02 -5.40753E+02 -2.24181E+02 -6.13464E+02  3.78588E+01
 -1.43532E+03  1.66614E+02 -1.63561E+03 -1.46119E+02 -9.97510E+01 -1.16855E+03 -8.36170E+01 -2.33889E+03
  3.02426E+03 -1.52689E+03  2.62575E+03  3.33976E+02  3.37310E+03  2.44416E+03  3.85400E+02  4.64556E+03
 -2.51660E+03  5.77281E+03 -5.22695E+03  3.38156E+03 -5.90121E+03 -6.17577E+02 -4.50204E+03 -3.92069E+03
 -1.81444E+03 -4.59618E+03  1.33069E+03 -4.44232E+03  3.03584E+03 -2.34192E+03  2.66386E+03  1.96491E+02
  1.40473E+03  1.62542E+03 -2.00556E+02  1.49243E+03 -8.44626E+02 -1.99684E+02 -1.25526E+01 -1.09106E+03
  1.86853E+03 -2.99212E+02  1.46090E+03  9.67437E+02  1.00876E+03  1.84737E+03  4.15909E+02  2.26007E+03
 -2.09177E+03  1.85272E+03 -2.93892E+03  3.76490E+02 -2.64350E+03 -2.13259E+03 -4.95919E+02 -3.67198E+03
  2.04659E+03 -2.92253E+03  2.88405E+03 -1.25784E+03  3.76670E+03  5.30345E+02  2.10743E+03  2.32472E+03
  5.87457E+02  2.55490E+03 -8.92768E+02  2.12856E+03 -1.89127E+03  1.46654E+03 -1.36697E+03  2.58672E+02
 -9.06487E+02 -1.66420E+02 -9.35041E+02  5.24429E+02 -1.16333E+03  5.39063E+02 -2.35393E+03 -7.22443E+02
 -2.24225E+03 -1.06915E+03 -7.25272E+02 -3.35033E+03  1.47864E+03 -3.58447E+03  2.38026E+03 -1.32945E+03
  2.62894E+03  5.09072E+02  1.30972E+03  2.06621E+03 -3.50563E+02  3.10206E+03 -2.01113E+03  1.92832E+03
