 $NMID ID='MM_0lb_SNR800_10hz_g45_81.RAW', FMTDAT='(8E13.5)'
 TRAMP=1., VOLUME=1. $END
  3.09860E+05  4.05036E+02  3.37384E+05  2.50881E+05  8.45349E+04  3.38438E+05 -1.32648E+05  2.51130E+05
 -1.90565E+05  8.35617E+04 -1.12194E+05 -3.22671E+04  3.69378E+02 -5.05570E+04  5.37979E+04 -2.92626E+02
  3.56513E+04  5.26166E+04 -1.66987E+04  7.56287E+04 -6.11638E+04  6.43107E+04 -8.50151E+04  3.22688E+04
 -8.16517E+04 -1.15142E+04 -5.77788E+04 -5.21013E+04 -1.53437E+04 -7.05250E+04  2.80563E+04 -4.62334E+04
  4.08825E+04  3.80936E+03  1.65774E+04  4.83269E+04 -3.46026E+04  4.79678E+04 -6.78635E+04 -8.93818E+01
 -5.48559E+04 -5.73710E+04 -7.37079E+03 -7.84067E+04  3.41592E+04 -5.65339E+04  4.90593E+04 -1.76570E+04
  4.48560E+04  1.14549E+04  3.23045E+04  2.64262E+04  1.61589E+04  2.99802E+04 -5.66547E+03  2.73985E+04
 -2.26785E+04  1.19670E+04 -1.79683E+04 -5.09522E+03  6.70247E+03 -7.41687E+03  2.30955E+04  1.33404E+04
  7.01270E+03  3.68088E+04 -3.33084E+04  3.64039E+04 -6.52866E+04  1.82489E+03 -5.81060E+04 -4.36282E+04
 -1.28383E+04 -6.52029E+04  4.10927E+04 -4.66483E+04  6.04794E+04 -2.34311E+03  3.59019E+04  3.35749E+04
 -5.68586E+03  3.81195E+04 -3.09746E+04  1.77477E+04 -3.26914E+04 -4.10452E+03 -1.83053E+04 -1.18437E+04
 -9.57315E+03 -1.42973E+04 -9.00750E+02 -1.93711E+04  7.96631E+03 -2.30720E+04  1.58320E+04 -1.29111E+04
  1.07986E+04  6.17421E+03 -9.97218E+03  1.29738E+04 -2.28748E+04 -5.61730E+03 -8.16407E+03 -3.59932E+04
  2.44973E+04 -4.56280E+04  5.08441E+04 -2.03642E+04  4.74570E+04  2.02953E+04  1.68626E+04  4.64723E+04
 -1.67270E+04  3.50970E+04 -2.67332E+04  2.74839E+03 -1.11846E+04 -2.91067E+04  2.12399E+04 -3.57968E+04
  4.34161E+04 -1.06088E+04  3.89018E+04  2.46377E+04  2.04812E+04  4.94418E+04 -7.87032E+03  5.42119E+04
 -3.41929E+04  3.68406E+04 -4.55903E+04  1.06237E+04 -4.59128E+04 -1.78535E+04 -2.55856E+04 -4.09883E+04
  7.56582E+03 -4.05639E+04  3.33409E+04 -1.61849E+04  3.11334E+04  1.13590E+04  5.02661E+03  2.01016E+04
 -1.39245E+04  9.36772E+03 -1.09974E+04 -7.36709E+03  5.66706E+03 -1.13761E+04  1.84348E+04  5.67419E+03
  1.41059E+04  2.24537E+04 -5.83602E+03  2.62853E+04 -2.26264E+04  1.37003E+04 -3.02929E+04 -3.61268E+03
 -2.38750E+04 -1.77977E+04 -1.04940E+04 -2.39149E+04  4.58737E+03 -2.39049E+04  1.86506E+04 -2.13587E+04
  2.99703E+04 -1.36259E+04  3.63458E+04  4.04839E+03  2.57713E+04  2.31491E+04  4.59577E+03  3.96950E+04
 -1.94215E+04  3.29611E+04 -2.99247E+04  1.15758E+04 -2.19155E+04 -1.04267E+04 -4.77459E+03 -1.28239E+04
  9.92042E+02 -1.38097E+03 -6.68165E+03  7.85944E+03 -1.87701E+04  4.87007E+03 -1.91550E+04 -8.98218E+03
 -1.10925E+04 -2.20392E+04  5.74284E+03 -2.60482E+04  1.75946E+04 -1.86631E+04  2.17479E+04 -1.43057E+03
  1.35420E+04  1.48561E+04 -1.19208E+03  2.15323E+04 -1.53199E+04  1.25242E+04 -2.20372E+04 -5.04566E+03
 -1.63920E+04 -1.99053E+04 -2.18787E+03 -2.66599E+04  1.21614E+04 -2.19911E+04  2.21689E+04 -1.13567E+04
  2.06654E+04 -1.98699E+02  1.50046E+04  5.00497E+03  8.27879E+03  1.43289E+03  1.11725E+04 -2.21723E+03
  2.05878E+04  2.87362E+03  2.34156E+04  1.72806E+04  1.59191E+04  3.55182E+04 -2.57894E+03  4.09897E+04
 -2.34475E+04  3.40389E+04 -3.88657E+04  1.74597E+04 -4.12277E+04 -3.12987E+03 -3.38419E+04 -2.42127E+04
 -1.35593E+04 -3.41934E+04  1.20080E+04 -3.03563E+04  2.58035E+04 -1.48292E+04  2.25277E+04  7.31644E+03
  7.77462E+03  1.76343E+04 -1.10904E+04  1.48801E+04 -1.90054E+04  2.52345E+03 -1.46817E+04 -1.16565E+04
 -1.89599E+02 -1.83486E+04  9.99310E+03 -1.38416E+04  1.25030E+04 -1.35541E+03  3.11571E+03  7.84203E+03
 -7.93968E+03  3.56234E+03 -7.89885E+03 -6.65213E+03 -1.20920E+03 -1.67555E+04  1.14798E+04 -1.82632E+04
  2.06263E+04 -1.02102E+04  2.36284E+04  3.49848E+03  2.08044E+04  1.69143E+04  9.50180E+03  2.64652E+04
 -4.78742E+03  2.85754E+04 -1.84766E+04  1.75155E+04 -2.08773E+04  3.72036E+03 -1.38227E+04 -5.54487E+03
 -6.25678E+03 -6.58547E+03 -6.83180E+02  8.60712E+02 -2.78161E+03  3.32041E+03 -6.42802E+03  5.44955E+03
 -1.34533E+04 -7.40313E+02 -1.36842E+04 -1.10182E+04 -5.56100E+03 -1.77843E+04  6.19245E+03 -1.47240E+04
  1.20490E+04 -5.90125E+03  8.56368E+03  3.57378E+03 -8.07686E+01  5.73755E+03 -6.96761E+03 -1.79827E+02
 -7.15159E+03 -9.38733E+03 -9.67896E+02 -1.42655E+04  8.22071E+03 -1.50104E+04  1.83138E+04 -8.31327E+03
  2.14765E+04  2.17179E+03  1.55582E+04  1.26472E+04  3.02624E+03  1.68166E+04 -8.69296E+03  1.45116E+04
 -1.16364E+04  3.92754E+03 -6.24691E+03 -3.16142E+03  2.02100E+03 -3.99561E+03  7.36560E+03 -1.11338E+03
  7.18979E+03  6.26293E+03  7.47739E+02  1.15877E+04 -8.38232E+03  1.10385E+04 -1.42948E+04  2.92961E+03
 -9.72854E+03 -7.43394E+03  3.12118E+02 -1.26743E+04  8.03036E+03 -5.92165E+03  8.40963E+03  3.13238E+03
  2.14071E+03  8.73557E+03 -7.62521E+03  1.06464E+04 -1.17309E+04  4.48346E+03 -1.22040E+04 -4.75481E+03
 -7.34091E+03 -1.35771E+04  3.48567E+03 -1.60412E+04  1.40413E+04 -1.00342E+04  1.49133E+04  2.61733E+03
  8.74605E+03  1.22096E+04 -1.33537E+03  1.40116E+04 -1.05392E+04  8.08919E+03 -1.13364E+04 -1.24773E+03
 -9.52513E+03 -9.34028E+03 -1.66257E+03 -1.10438E+04  5.80270E+03 -9.05927E+03  6.60621E+03 -3.44806E+03
  4.33131E+03  1.83170E+03 -1.05278E+03  2.05461E+03 -5.43223E+02 -2.55351E+03  2.20956E+03 -6.60178E+03
  9.64824E+03 -4.50585E+03  1.41676E+04  1.36225E+03  1.35773E+04  9.22633E+03  9.45022E+03  1.83749E+04
 -4.12403E+03  2.10298E+04 -1.77820E+04  1.55569E+04 -2.28360E+04  2.98650E+03 -1.80902E+04 -7.79937E+03
 -9.06944E+03 -1.51231E+04 -3.57855E+02 -1.26494E+04  4.22896E+03 -7.26121E+03  4.18407E+03 -4.67227E+03
  3.28173E+03 -2.79789E+03  3.36941E+03 -4.02595E+03  5.23188E+03 -3.19432E+03  7.22320E+03 -1.31137E+03
  9.45958E+03  2.06693E+03  4.91872E+03  8.48090E+03 -2.02513E+03  9.66346E+03 -9.81036E+03  7.57707E+03
 -1.28945E+04 -1.25124E+03 -7.52163E+03 -8.76121E+03 -1.14757E+03 -1.37901E+04  7.54893E+03 -1.39082E+04
  1.43722E+04 -7.55263E+03  1.71552E+04  2.21393E+03  1.18263E+04  1.22270E+04  2.15054E+03  1.52172E+04
 -6.52681E+03  1.26872E+04 -9.16878E+03  4.73606E+03 -6.62803E+03 -1.79481E+03 -2.57699E+03 -1.67168E+03
 -1.03878E+03 -3.09802E+02 -1.74106E+03  3.12376E+03 -5.09808E+03  2.51250E+03 -9.16430E+03 -1.31132E+03
 -6.47603E+03 -8.87299E+03  5.49030E+02 -1.31193E+04  7.53170E+03 -1.15214E+04  1.27838E+04 -3.74766E+03
  1.26430E+04  6.40553E+03  5.48423E+03  1.14712E+04 -2.57278E+03  1.29060E+04 -9.04705E+03  7.94216E+03
 -1.19830E+04  4.65220E+02 -9.03372E+03 -7.80047E+03 -9.82078E+02 -1.06775E+04  5.42378E+03 -8.12486E+03
  8.12088E+03 -2.49297E+03  5.01480E+03  2.51900E+03  1.99051E+03  4.08186E+03  1.30958E+03  1.68570E+03
  2.95720E+03  8.44103E+02  3.05987E+03  1.93713E+03  3.91407E+03  4.63335E+03  3.37066E+03  6.85658E+03
 -2.71120E+03  1.03262E+04 -8.98757E+03  1.01279E+04 -1.30333E+04  2.40021E+03 -1.32904E+04 -5.23451E+03
 -6.55279E+03 -1.25689E+04  2.08933E+03 -1.41881E+04  7.73214E+03 -8.73770E+03  1.07856E+04 -2.25823E+03
  7.84937E+03  5.34315E+03  1.60009E+03  7.54742E+03 -3.60917E+03  4.67344E+03 -5.33529E+03 -8.22483E+02
 -2.34480E+03 -5.20238E+03  3.03528E+03 -5.82643E+03  5.21422E+03 -2.48053E+03  5.09424E+03  1.50510E+03
  3.18920E+03  2.48273E+03  1.34161E+03  2.13798E+03 -5.78242E+02  1.41615E+03  1.74643E+03 -6.70188E+02
  1.97496E+03 -7.05044E+02  5.34373E+03  2.39158E+03  2.39049E+03  7.28923E+03 -1.15254E+03  9.00976E+03
 -6.30546E+03  5.71183E+03 -7.98899E+03  1.62627E+03 -7.09321E+03 -2.67802E+03 -2.84628E+03 -4.69112E+03
  1.01446E+03 -4.75105E+03  3.32912E+03 -2.44285E+03  2.59528E+03  2.52943E+03 -1.27898E+03  4.21045E+03
 -5.34410E+03  2.53209E+03 -5.76784E+03 -3.59013E+03 -3.38560E+03 -7.29711E+03  9.75625E+02 -7.30660E+03
  3.81374E+03 -4.17536E+03  5.29201E+03 -1.99144E+02  4.20066E+03  2.09888E+03  6.60590E+02  4.13667E+03
 -2.43132E+03  1.09940E+03 -3.46370E+03 -2.47161E+03  1.04423E+03 -5.19067E+03  6.54762E+03 -4.38461E+03
  7.99811E+03  6.63302E+02  8.04279E+03  5.19365E+03  2.75045E+03  8.35279E+03 -3.11795E+03  8.14998E+03
 -6.85301E+03  3.51807E+03 -6.65893E+03 -1.28421E+03 -3.93409E+03 -5.56219E+03  1.05373E+03 -5.18064E+03
  5.21735E+03 -2.56549E+03  4.37086E+03  2.41821E+03  1.53650E+03  4.57599E+03 -8.84015E+02  4.08379E+03
 -1.97385E+03  2.56285E+03 -2.25664E+03  6.58293E+02 -8.16484E+02  9.13963E+02 -1.52646E+03  1.39345E+03
 -2.44726E+03  3.20997E+03 -6.14410E+03  2.40317E+03 -8.20942E+03  1.98344E+02 -9.25887E+03 -5.89278E+03
 -4.97932E+03 -1.05944E+04  2.02909E+03 -1.28492E+04  7.55938E+03 -1.00519E+04  1.23188E+04 -3.73778E+03
  1.09932E+04  2.42884E+03  6.77370E+03  7.48973E+03  6.32100E+02  8.62761E+03 -3.87342E+03  6.15170E+03
 -4.90566E+03  2.47360E+03 -2.89958E+03 -9.99564E+02 -1.26023E+03 -1.01983E+03 -8.52583E+02 -3.04758E+01
 -1.32283E+03  2.65920E+02 -2.05414E+03 -3.40481E+02 -3.68225E+02 -2.17820E+03  1.30785E+02 -3.82257E+03
  3.82486E+03 -2.68158E+03  5.32906E+03  3.31702E+01  5.73317E+03  4.60296E+03  1.53996E+03  8.49546E+03
 -3.88284E+03  9.71576E+03 -8.88150E+03  5.36695E+03 -1.02091E+04 -5.54632E+02 -7.72814E+03 -6.29164E+03
 -3.13224E+03 -8.63090E+03  1.81592E+03 -8.08799E+03  5.22100E+03 -4.65806E+03  5.78074E+03  1.22382E+02
  2.88908E+03  2.43982E+03 -2.42655E+02  2.44495E+03 -2.26290E+03 -3.56537E+02 -1.69950E+02 -1.95132E+03
  2.34616E+03 -1.25516E+03  3.16664E+03  1.41599E+03  2.12867E+03  3.64328E+03  5.96261E+02  4.27142E+03
 -3.89180E+03  4.29200E+03 -5.44910E+03  7.48094E+02 -5.29869E+03 -4.18636E+03 -7.15953E+02 -7.02485E+03
  4.18366E+03 -6.15089E+03  6.25845E+03 -1.64874E+03  6.64400E+03  1.64796E+03  3.65828E+03  5.24348E+03
  9.50546E+02  5.44264E+03 -2.08627E+03  4.30782E+03 -3.38757E+03  1.97032E+03 -2.93819E+03  2.98394E+02
 -1.58179E+03 -1.56624E+02 -1.66922E+03  8.84543E+02 -3.17678E+03  9.79469E+02 -4.21424E+03 -1.14457E+03
 -4.13926E+03 -2.98455E+03 -1.21529E+03 -5.49004E+03  2.91509E+03 -5.97570E+03  4.86627E+03 -2.38320E+03
  5.61750E+03  8.82666E+02  2.54491E+03  3.99991E+03 -3.77993E+02  5.65398E+03 -4.00482E+03  3.65915E+03
