 $NMID ID='MM_0lb_SNR800_13hz_g60_45.RAW', FMTDAT='(8E13.5)'
 TRAMP=1., VOLUME=1. $END
  3.09908E+05  2.53514E+02  3.37940E+05  2.50484E+05  8.49455E+04  3.38322E+05 -1.32741E+05  2.51682E+05
 -1.90743E+05  8.34757E+04 -1.12268E+05 -3.24410E+04  7.57750E+02 -5.03414E+04  5.36155E+04 -3.04148E+02
  3.56572E+04  5.27431E+04 -1.68769E+04  7.58631E+04 -6.09616E+04  6.39363E+04 -8.47443E+04  3.24452E+04
 -8.17667E+04 -1.17080E+04 -5.76725E+04 -5.24292E+04 -1.52216E+04 -7.06240E+04  2.78359E+04 -4.63746E+04
  4.04470E+04  3.53415E+03  1.66379E+04  4.79136E+04 -3.49259E+04  4.81697E+04 -6.76405E+04  1.44657E+02
 -5.43163E+04 -5.73655E+04 -6.96618E+03 -7.82799E+04  3.41753E+04 -5.57425E+04  4.92632E+04 -1.79610E+04
  4.44404E+04  1.14843E+04  3.24533E+04  2.61605E+04  1.60277E+04  2.99057E+04 -5.83549E+03  2.77107E+04
 -2.22455E+04  1.22537E+04 -1.82009E+04 -5.33625E+03  6.04543E+03 -7.56796E+03  2.29699E+04  1.33249E+04
  6.88328E+03  3.65199E+04 -3.28976E+04  3.64336E+04 -6.45088E+04  2.11993E+03 -5.80326E+04 -4.40899E+04
 -1.26036E+04 -6.47504E+04  4.08111E+04 -4.65236E+04  5.98137E+04 -2.06747E+03  3.54972E+04  3.33484E+04
 -5.80163E+03  3.79486E+04 -3.09769E+04  1.76795E+04 -3.22206E+04 -3.81623E+03 -1.81249E+04 -1.15379E+04
 -9.35641E+03 -1.44335E+04 -6.00578E+02 -1.86420E+04  8.09551E+03 -2.32238E+04  1.55544E+04 -1.31689E+04
  1.13216E+04  5.57189E+03 -9.78111E+03  1.30073E+04 -2.25339E+04 -5.73545E+03 -8.30131E+03 -3.55784E+04
  2.41119E+04 -4.53215E+04  5.01953E+04 -2.06296E+04  4.71032E+04  2.03714E+04  1.64620E+04  4.55265E+04
 -1.61087E+04  3.47993E+04 -2.66366E+04  2.30903E+03 -1.09221E+04 -2.90217E+04  2.14887E+04 -3.52340E+04
  4.31009E+04 -1.04160E+04  3.78815E+04  2.43849E+04  1.97364E+04  4.86399E+04 -8.28250E+03  5.32711E+04
 -3.36446E+04  3.61400E+04 -4.49641E+04  1.04450E+04 -4.51764E+04 -1.78306E+04 -2.44712E+04 -4.00403E+04
  7.67838E+03 -4.01537E+04  3.27085E+04 -1.58587E+04  3.06686E+04  1.10469E+04  4.80690E+03  2.00359E+04
 -1.35413E+04  9.07637E+03 -1.06870E+04 -7.20911E+03  5.80563E+03 -1.09522E+04  1.84306E+04  5.63738E+03
  1.42084E+04  2.25669E+04 -5.72916E+03  2.60396E+04 -2.26809E+04  1.30066E+04 -3.00904E+04 -3.85108E+03
 -2.29294E+04 -1.84377E+04 -9.72796E+03 -2.25328E+04  3.99137E+03 -2.26719E+04  1.74279E+04 -2.03521E+04
  2.86854E+04 -1.34324E+04  3.51066E+04  3.74373E+03  2.52531E+04  2.23231E+04  4.38243E+03  3.89168E+04
 -1.91102E+04  3.19502E+04 -2.89587E+04  1.11528E+04 -2.15705E+04 -1.03935E+04 -4.62453E+03 -1.33029E+04
  1.71127E+03 -1.80390E+03 -6.45002E+03  7.41593E+03 -1.83600E+04  4.96653E+03 -1.80351E+04 -8.27422E+03
 -1.07379E+04 -2.09276E+04  5.89046E+03 -2.49921E+04  1.74549E+04 -1.81733E+04  2.02723E+04 -1.48430E+03
  1.25603E+04  1.44960E+04 -1.21608E+03  2.11547E+04 -1.48305E+04  1.16736E+04 -2.08813E+04 -4.17898E+03
 -1.54917E+04 -1.86750E+04 -2.25670E+03 -2.51129E+04  1.13212E+04 -2.08175E+04  2.12273E+04 -1.04575E+04
  1.95466E+04 -4.06149E+02  1.44847E+04  4.97843E+03  7.50114E+03  1.38194E+03  1.09417E+04 -2.00757E+03
  1.92685E+04  2.96190E+03  2.19459E+04  1.69883E+04  1.48032E+04  3.37010E+04 -2.68814E+03  3.83479E+04
 -2.21985E+04  3.12986E+04 -3.62405E+04  1.61771E+04 -3.83697E+04 -3.01306E+03 -3.13929E+04 -2.23801E+04
 -1.28593E+04 -3.15001E+04  1.10463E+04 -2.79561E+04  2.43748E+04 -1.37165E+04  2.13061E+04  6.63943E+03
  7.42737E+03  1.62642E+04 -9.90210E+03  1.39806E+04 -1.79502E+04  2.54027E+03 -1.36426E+04 -1.13944E+04
 -3.28259E+02 -1.68913E+04  8.96859E+03 -1.24355E+04  1.12094E+04 -9.07680E+02  2.76235E+03  7.51433E+03
 -7.70227E+03  3.39968E+03 -7.38221E+03 -6.16239E+03 -9.86536E+02 -1.52492E+04  1.04238E+04 -1.65925E+04
  1.91150E+04 -8.92424E+03  2.10565E+04  2.98740E+03  1.87452E+04  1.54808E+04  8.50735E+03  2.38199E+04
 -4.24282E+03  2.55894E+04 -1.64401E+04  1.57725E+04 -1.88432E+04  3.30414E+03 -1.27810E+04 -4.22306E+03
 -5.40916E+03 -5.54046E+03 -9.48169E+02  9.89100E+02 -2.44339E+03  2.71801E+03 -6.26225E+03  4.65795E+03
 -1.20225E+04 -5.56005E+02 -1.27571E+04 -1.02242E+04 -5.05516E+03 -1.67413E+04  5.58174E+03 -1.33333E+04
  1.07700E+04 -5.43827E+03  7.67387E+03  3.59872E+03  1.45623E+02  4.86492E+03 -6.09531E+03 -1.15908E+02
 -6.25859E+03 -8.26358E+03 -9.23501E+02 -1.24419E+04  7.38518E+03 -1.32512E+04  1.61430E+04 -6.98954E+03
  1.89827E+04  1.78307E+03  1.41217E+04  1.13531E+04  2.29537E+03  1.51142E+04 -7.69887E+03  1.28835E+04
 -1.04581E+04  3.78060E+03 -5.07024E+03 -2.69828E+03  2.03904E+03 -3.59667E+03  6.87844E+03 -1.23790E+03
  6.04161E+03  5.73524E+03  1.15221E+03  1.00993E+04 -7.43511E+03  1.00214E+04 -1.24916E+04  2.22708E+03
 -8.40794E+03 -6.28109E+03  1.93114E+02 -1.08692E+04  6.91234E+03 -5.62556E+03  6.84683E+03  2.46334E+03
  1.58381E+03  7.56330E+03 -6.40007E+03  8.65446E+03 -1.00860E+04  3.50952E+03 -1.05162E+04 -3.37438E+03
 -6.09934E+03 -1.20244E+04  2.85125E+03 -1.33986E+04  1.17818E+04 -8.26767E+03  1.27611E+04  2.26659E+03
  7.98083E+03  1.02558E+04 -6.73115E+02  1.23993E+04 -8.94935E+03  7.28634E+03 -9.70519E+03 -7.31220E+02
 -8.71493E+03 -8.23518E+03 -1.63167E+03 -9.36524E+03  4.79882E+03 -7.31824E+03  6.04859E+03 -3.35277E+03
  3.97221E+03  1.39615E+03 -8.02554E+02  1.33370E+03 -1.91845E+02 -2.03286E+03  1.71217E+03 -4.97217E+03
  7.82466E+03 -3.12407E+03  1.16614E+04  1.50222E+03  1.17364E+04  7.80038E+03  8.18243E+03  1.51888E+04
 -3.63418E+03  1.74707E+04 -1.48564E+04  1.24049E+04 -1.90129E+04  2.71443E+03 -1.48959E+04 -6.26958E+03
 -7.57262E+03 -1.24842E+04 -2.03309E+02 -1.02454E+04  3.82387E+03 -5.59246E+03  3.63546E+03 -3.47661E+03
  2.72044E+03 -2.05562E+03  3.14287E+03 -2.67626E+03  5.02000E+03 -2.49544E+03  6.22535E+03 -6.60878E+02
  8.05964E+03  2.28059E+03  3.62578E+03  6.84869E+03 -1.91262E+03  7.70853E+03 -8.66409E+03  5.62181E+03
 -1.04376E+04 -9.07904E+02 -5.96690E+03 -7.22191E+03 -3.29845E+02 -1.08317E+04  6.08559E+03 -1.12737E+04
  1.14005E+04 -6.15732E+03  1.37954E+04  1.75513E+03  1.00375E+04  9.27574E+03  1.27739E+03  1.20871E+04
 -4.68309E+03  1.04360E+04 -7.18638E+03  3.73057E+03 -4.75085E+03 -1.51880E+03 -1.77319E+03 -1.42895E+03
 -8.84936E+02 -1.12340E+02 -1.70121E+03  2.58246E+03 -4.30995E+03  1.66128E+03 -7.07361E+03 -9.43149E+02
 -4.78972E+03 -7.07906E+03 -2.28326E+01 -1.00105E+04  6.06682E+03 -9.21512E+03  9.39767E+03 -2.34882E+03
  9.40907E+03  4.95537E+03  4.20240E+03  8.43914E+03 -1.89029E+03  9.67265E+03 -6.59808E+03  6.27824E+03
 -9.26738E+03  6.95555E+02 -7.10407E+03 -5.81761E+03 -7.61288E+02 -8.02354E+03  4.05549E+03 -5.95502E+03
  6.32709E+03 -2.21796E+03  4.19714E+03  1.41413E+03  1.45422E+03  2.99137E+03  1.21003E+03  1.29211E+03
  2.56070E+03  1.09144E+03  2.44399E+03  1.26690E+03  2.89751E+03  3.94480E+03  2.53757E+03  4.71054E+03
 -2.22966E+03  7.19428E+03 -6.18178E+03  7.95917E+03 -9.01563E+03  2.28303E+03 -1.03795E+04 -3.55725E+03
 -4.67611E+03 -9.50249E+03  1.43776E+03 -1.06753E+04  5.54113E+03 -6.73852E+03  7.89437E+03 -1.97189E+03
  6.36322E+03  3.89134E+03  1.08108E+03  5.50110E+03 -2.58293E+03  3.34548E+03 -3.44075E+03 -5.98149E+02
 -1.95024E+03 -3.73732E+03  2.34921E+03 -3.97992E+03  3.70459E+03 -1.97578E+03  3.95334E+03  9.37581E+02
  2.06813E+03  1.78294E+03  1.27749E+03  1.14547E+03 -5.93158E+02  1.04565E+03  1.78546E+03 -4.39970E+02
  9.18862E+02 -6.18910E+02  3.82063E+03  1.07375E+03  1.95795E+03  5.09008E+03 -1.03110E+03  6.73258E+03
 -4.21940E+03  3.76566E+03 -5.45190E+03  1.16056E+03 -5.09823E+03 -1.94270E+03 -1.53280E+03 -3.36440E+03
  7.44511E+02 -3.68195E+03  2.36912E+03 -1.84483E+03  1.98712E+03  1.72493E+03 -1.00680E+03  3.15357E+03
 -3.71638E+03  1.46307E+03 -3.85665E+03 -2.08473E+03 -2.05733E+03 -4.95774E+03  3.13203E+02 -4.76774E+03
  2.83432E+03 -2.50889E+03  3.56024E+03 -3.06349E+02  3.01620E+03  6.65502E+02  6.27047E+02  2.51195E+03
 -1.92056E+03  7.62035E+02 -2.39725E+03 -1.31207E+03  1.07752E+03 -3.35477E+03  4.36478E+03 -2.96726E+03
  4.98678E+03  1.31670E+02  5.72024E+03  3.71306E+03  2.19554E+03  5.51284E+03 -1.97364E+03  5.36680E+03
 -4.62105E+03  2.30888E+03 -4.70947E+03 -7.48930E+02 -2.41299E+03 -3.55946E+03  4.80731E+02 -3.33732E+03
  3.61815E+03 -1.94760E+03  2.48647E+03  1.40903E+03  5.66287E+02  3.14764E+03  2.68108E+02  2.76682E+03
 -1.40026E+03  1.86022E+03 -1.00784E+03  3.37805E+02 -4.52739E+02  4.73954E+02 -9.04291E+02  1.26757E+03
 -1.37450E+03  2.05130E+03 -3.85703E+03  1.94344E+03 -5.00264E+03  4.28927E+01 -6.41540E+03 -3.24836E+03
 -3.17907E+03 -6.92354E+03  1.36406E+03 -8.19713E+03  4.78929E+03 -6.51416E+03  7.76006E+03 -2.74572E+03
  6.90849E+03  9.37604E+02  4.27661E+03  4.90694E+03  1.11923E+02  5.15408E+03 -1.89208E+03  4.39602E+03
 -3.22817E+03  1.57807E+03 -1.80929E+03 -7.35123E+02 -6.82071E+02 -1.65290E+02 -5.40865E+02 -2.30752E+02
 -1.26349E+03  1.31253E+02 -1.74882E+03 -9.09270E+01 -7.41024E+02 -1.46786E+03 -3.14833E+02 -2.32270E+03
  2.77549E+03 -1.88038E+03  2.91445E+03  9.12397E+01  3.78908E+03  2.93831E+03  2.41939E+02  5.07945E+03
 -2.90927E+03  6.35432E+03 -5.58978E+03  3.32127E+03 -5.99852E+03 -4.50802E+02 -4.30786E+03 -4.20193E+03
 -2.31612E+03 -5.08225E+03  1.54568E+03 -4.69230E+03  2.55533E+03 -2.15335E+03  3.56874E+03  4.17889E+02
  1.87199E+03  1.79666E+03 -2.09269E+02  1.38138E+03 -1.03990E+03 -2.56388E+02  1.47843E+02 -1.14281E+03
  1.53068E+03 -3.31341E+02  1.85922E+03  1.04831E+03  1.06920E+03  1.39037E+03  6.80836E+02  2.55786E+03
 -2.01553E+03  2.30168E+03 -3.09664E+03  7.54423E+01 -2.79994E+03 -2.45032E+03 -2.70930E+02 -4.23672E+03
  1.98707E+03 -3.67329E+03  3.18659E+03 -8.14578E+02  3.53415E+03  6.06334E+02  2.01877E+03  2.83822E+03
  5.18987E+02  3.02017E+03 -1.38175E+03  2.39122E+03 -2.00858E+03  1.60616E+03 -1.59615E+03  2.30482E+02
 -6.71959E+02 -3.22042E+02 -1.09772E+03  3.36167E+02 -1.76828E+03  4.97262E+02 -2.84174E+03 -7.85028E+02
 -2.49206E+03 -1.48151E+03 -9.00384E+02 -3.23205E+03  1.59809E+03 -3.57744E+03  2.76885E+03 -1.62346E+03
  2.86896E+03  1.90618E+02  1.12454E+03  1.93180E+03 -4.43672E+01  3.05032E+03 -2.38863E+03  2.24043E+03
