 $NMID ID='MM_0lb_SNR800_11hz_g45_37.RAW', FMTDAT='(8E13.5)'
 TRAMP=1., VOLUME=1. $END
  3.09953E+05  2.75509E+02  3.38059E+05  2.50880E+05  8.50227E+04  3.38026E+05 -1.32803E+05  2.51559E+05
 -1.90746E+05  8.38300E+04 -1.12205E+05 -3.25526E+04  5.96921E+02 -5.06488E+04  5.35505E+04 -3.21979E+02
  3.54258E+04  5.27192E+04 -1.68712E+04  7.55376E+04 -6.09657E+04  6.37265E+04 -8.46030E+04  3.18730E+04
 -8.18600E+04 -1.16061E+04 -5.79746E+04 -5.17559E+04 -1.53321E+04 -7.00965E+04  2.77003E+04 -4.63101E+04
  4.06941E+04  4.13377E+03  1.65500E+04  4.81292E+04 -3.44964E+04  4.76064E+04 -6.71866E+04 -1.91996E+02
 -5.40192E+04 -5.70420E+04 -7.33874E+03 -7.78505E+04  3.43459E+04 -5.59692E+04  4.88012E+04 -1.79133E+04
  4.44041E+04  1.16047E+04  3.22782E+04  2.63395E+04  1.57086E+04  2.98826E+04 -5.84475E+03  2.76567E+04
 -2.25774E+04  1.19851E+04 -1.82385E+04 -5.36963E+03  6.38929E+03 -7.42989E+03  2.30254E+04  1.26486E+04
  7.16888E+03  3.63771E+04 -3.29454E+04  3.60430E+04 -6.44057E+04  2.40084E+03 -5.77510E+04 -4.34806E+04
 -1.27916E+04 -6.45330E+04  4.09844E+04 -4.63148E+04  5.94495E+04 -2.60506E+03  3.53080E+04  3.33092E+04
 -5.61118E+03  3.75083E+04 -3.10839E+04  1.74523E+04 -3.14619E+04 -3.98570E+03 -1.79903E+04 -1.12862E+04
 -8.87572E+03 -1.40577E+04 -1.74200E+02 -1.86627E+04  7.97457E+03 -2.34332E+04  1.57537E+04 -1.30718E+04
  1.09299E+04  5.63515E+03 -9.26905E+03  1.26581E+04 -2.24492E+04 -5.60844E+03 -8.59345E+03 -3.55689E+04
  2.38777E+04 -4.49923E+04  5.01371E+04 -2.05100E+04  4.68336E+04  1.99963E+04  1.63212E+04  4.57030E+04
 -1.61490E+04  3.45738E+04 -2.62006E+04  2.42274E+03 -1.07186E+04 -2.86485E+04  2.13465E+04 -3.55235E+04
  4.25171E+04 -9.78171E+03  3.79310E+04  2.45658E+04  1.98147E+04  4.89610E+04 -7.80690E+03  5.29740E+04
 -3.34018E+04  3.61156E+04 -4.48096E+04  1.01393E+04 -4.46910E+04 -1.77532E+04 -2.47069E+04 -4.00888E+04
  7.51233E+03 -3.95369E+04  3.26588E+04 -1.59083E+04  3.03484E+04  1.13613E+04  4.55607E+03  1.99742E+04
 -1.38236E+04  8.95777E+03 -1.06043E+04 -7.86112E+03  5.55710E+03 -1.11656E+04  1.81808E+04  5.75317E+03
  1.41073E+04  2.21667E+04 -5.33247E+03  2.60492E+04 -2.29225E+04  1.31032E+04 -2.98448E+04 -3.63173E+03
 -2.30233E+04 -1.74425E+04 -1.01788E+04 -2.24441E+04  3.98999E+03 -2.24862E+04  1.73883E+04 -2.03722E+04
  2.91045E+04 -1.32134E+04  3.54061E+04  4.02480E+03  2.52673E+04  2.22531E+04  4.64033E+03  3.85946E+04
 -1.87357E+04  3.22922E+04 -2.92837E+04  1.15453E+04 -2.14519E+04 -1.07268E+04 -4.84105E+03 -1.32937E+04
  1.50667E+03 -2.16880E+03 -6.40173E+03  7.65158E+03 -1.85030E+04  5.34429E+03 -1.77617E+04 -8.26324E+03
 -1.12202E+04 -2.10759E+04  5.62693E+03 -2.54041E+04  1.70811E+04 -1.79118E+04  1.99501E+04 -1.85272E+03
  1.31647E+04  1.44583E+04 -1.32943E+03  2.09927E+04 -1.52859E+04  1.19864E+04 -2.11695E+04 -4.27132E+03
 -1.54546E+04 -1.90361E+04 -1.93633E+03 -2.53044E+04  1.14339E+04 -2.11060E+04  2.07772E+04 -1.03817E+04
  1.95353E+04 -2.58418E+01  1.40252E+04  4.78161E+03  7.68769E+03  1.20437E+03  1.06091E+04 -2.18026E+03
  1.99991E+04  2.42205E+03  2.25183E+04  1.66505E+04  1.55131E+04  3.39166E+04 -2.80965E+03  3.91546E+04
 -2.23639E+04  3.20325E+04 -3.68944E+04  1.59650E+04 -3.93016E+04 -2.78856E+03 -3.17042E+04 -2.24771E+04
 -1.31944E+04 -3.21962E+04  1.11191E+04 -2.83014E+04  2.51392E+04 -1.36497E+04  2.16176E+04  6.79098E+03
  7.53190E+03  1.66916E+04 -1.02202E+04  1.43148E+04 -1.79838E+04  2.60641E+03 -1.39266E+04 -1.13314E+04
 -1.71447E+02 -1.73424E+04  8.85168E+03 -1.32301E+04  1.17462E+04 -1.40375E+03  2.70994E+03  7.70812E+03
 -7.73803E+03  3.30443E+03 -7.27568E+03 -6.13666E+03 -9.54235E+02 -1.57566E+04  1.08140E+04 -1.65392E+04
  2.00599E+04 -9.37868E+03  2.20094E+04  3.36780E+03  1.91052E+04  1.54572E+04  8.90965E+03  2.48322E+04
 -4.27625E+03  2.64683E+04 -1.71826E+04  1.66924E+04 -1.89929E+04  3.38029E+03 -1.30734E+04 -4.53086E+03
 -5.62925E+03 -6.30747E+03 -6.68336E+02  5.12678E+02 -2.52312E+03  3.03242E+03 -6.13587E+03  4.88067E+03
 -1.21768E+04 -1.26174E+03 -1.29012E+04 -1.04167E+04 -5.14674E+03 -1.70291E+04  5.82030E+03 -1.33107E+04
  1.08760E+04 -6.00778E+03  7.92590E+03  3.78566E+03 -4.65009E+02  5.20936E+03 -6.43631E+03 -3.77833E+02
 -6.43536E+03 -8.62504E+03 -9.79976E+02 -1.28636E+04  7.66142E+03 -1.36485E+04  1.71131E+04 -7.35079E+03
  2.01109E+04  2.18480E+03  1.46086E+04  1.19852E+04  2.69025E+03  1.56160E+04 -8.22301E+03  1.34844E+04
 -1.11863E+04  3.87728E+03 -5.70671E+03 -3.03058E+03  2.08631E+03 -3.59723E+03  7.20027E+03 -7.87675E+02
  6.38704E+03  5.92664E+03  1.26425E+03  1.04173E+04 -7.62463E+03  1.02643E+04 -1.32206E+04  2.58389E+03
 -8.71480E+03 -7.21973E+03  6.31505E+02 -1.15558E+04  7.31656E+03 -5.63489E+03  7.59354E+03  2.42820E+03
  1.60784E+03  8.15876E+03 -6.83758E+03  9.17223E+03 -1.09230E+04  4.71485E+03 -1.08862E+04 -3.83202E+03
 -6.14703E+03 -1.27684E+04  3.03849E+03 -1.45487E+04  1.22437E+04 -9.19693E+03  1.32853E+04  2.60647E+03
  8.06822E+03  1.08472E+04 -1.48198E+03  1.29441E+04 -9.37227E+03  7.09398E+03 -1.02653E+04 -1.03689E+03
 -9.54402E+03 -8.72108E+03 -1.53077E+03 -9.99652E+03  5.43818E+03 -7.82301E+03  6.04469E+03 -3.57227E+03
  4.05791E+03  2.09218E+03 -5.60917E+02  1.74777E+03 -4.54606E+02 -2.41471E+03  1.61785E+03 -5.62234E+03
  9.02140E+03 -3.84426E+03  1.27352E+04  1.31299E+03  1.24811E+04  8.51308E+03  8.19464E+03  1.64703E+04
 -3.97251E+03  1.94716E+04 -1.62498E+04  1.45084E+04 -2.09732E+04  2.91135E+03 -1.70891E+04 -7.51036E+03
 -8.33427E+03 -1.36920E+04 -5.59718E+02 -1.14218E+04  4.48526E+03 -6.47287E+03  4.37048E+03 -4.26621E+03
  2.96306E+03 -2.55664E+03  3.26956E+03 -3.59722E+03  4.94497E+03 -2.59617E+03  6.54537E+03 -3.47006E+02
  8.84096E+03  1.95416E+03  4.20754E+03  7.54255E+03 -2.11808E+03  8.61971E+03 -9.17534E+03  6.51688E+03
 -1.10132E+04 -1.04675E+03 -6.53204E+03 -7.75995E+03 -5.53552E+02 -1.24555E+04  6.84264E+03 -1.25381E+04
  1.28087E+04 -7.01839E+03  1.50171E+04  2.01172E+03  1.05595E+04  1.05536E+04  1.94434E+03  1.35800E+04
 -5.82621E+03  1.17167E+04 -8.33955E+03  4.33009E+03 -5.40033E+03 -1.35672E+03 -2.32643E+03 -1.68676E+03
 -9.56269E+02  3.37905E+02 -1.96919E+03  2.87676E+03 -5.50054E+03  1.80599E+03 -8.23474E+03 -1.08605E+03
 -5.14718E+03 -8.02355E+03  3.80531E+02 -1.13851E+04  7.36184E+03 -1.06573E+04  1.09440E+04 -3.39014E+03
  1.07939E+04  5.50537E+03  5.21052E+03  9.68276E+03 -2.34163E+03  1.13510E+04 -8.06289E+03  6.71589E+03
 -1.09287E+04  6.77589E+02 -8.27624E+03 -6.83040E+03 -1.04238E+03 -9.18817E+03  4.75154E+03 -6.97886E+03
  7.14579E+03 -2.46169E+03  4.63562E+03  2.14870E+03  1.71874E+03  3.54875E+03  1.29361E+03  1.68535E+03
  2.47181E+03  1.03203E+03  2.83639E+03  1.86339E+03  2.89822E+03  4.35927E+03  2.96985E+03  5.60874E+03
 -1.98453E+03  8.84684E+03 -7.73916E+03  9.05608E+03 -1.09794E+04  2.75376E+03 -1.17418E+04 -4.15114E+03
 -5.61937E+03 -1.13263E+04  1.66067E+03 -1.21326E+04  6.66241E+03 -7.94428E+03  9.15152E+03 -2.13160E+03
  7.15200E+03  4.30656E+03  1.08467E+03  6.42829E+03 -3.05737E+03  3.99416E+03 -4.33995E+03 -7.19045E+02
 -2.24163E+03 -4.77573E+03  2.57886E+03 -4.94994E+03  4.24756E+03 -2.72671E+03  4.55792E+03  1.24586E+03
  2.47780E+03  2.02629E+03  1.44076E+03  1.52012E+03 -7.32795E+02  1.37096E+03  1.59362E+03 -5.43444E+02
  1.29444E+03 -1.57357E+02  4.30339E+03  1.68758E+03  2.35422E+03  5.86926E+03 -1.36961E+03  7.83548E+03
 -5.34812E+03  4.85751E+03 -6.82201E+03  1.28293E+03 -6.35641E+03 -2.68786E+03 -2.74602E+03 -4.15899E+03
  3.56231E+02 -4.03750E+03  2.88986E+03 -1.95395E+03  2.70992E+03  2.36705E+03 -1.44946E+03  3.98626E+03
 -5.02671E+03  2.05816E+03 -5.15178E+03 -2.76710E+03 -2.52010E+03 -6.11228E+03  8.67193E+02 -5.97235E+03
  3.61476E+03 -3.53515E+03  4.29597E+03 -2.64782E+02  3.57576E+03  1.43512E+03  6.75884E+02  3.51770E+03
 -2.34471E+03  7.64543E+02 -2.90188E+03 -1.62646E+03  1.44387E+03 -4.42339E+03  5.17979E+03 -3.62187E+03
  6.58022E+03  6.08314E+02  6.97208E+03  4.51728E+03  2.01518E+03  7.20861E+03 -2.41605E+03  6.55552E+03
 -5.73678E+03  2.72842E+03 -5.89896E+03 -1.00093E+03 -3.37824E+03 -4.56279E+03  1.42560E+03 -4.07077E+03
  4.24216E+03 -2.20111E+03  3.64870E+03  1.90842E+03  1.33789E+03  3.74638E+03 -2.91414E+02  3.61093E+03
 -1.99458E+03  2.39295E+03 -1.73034E+03  9.42165E+02 -8.01669E+02  1.10502E+03 -1.24959E+03  1.14958E+03
 -1.89682E+03  2.84175E+03 -4.91273E+03  2.14812E+03 -6.80511E+03  1.79227E+02 -7.67675E+03 -4.45643E+03
 -3.93632E+03 -9.57231E+03  1.70821E+03 -1.06247E+04  6.22195E+03 -8.29509E+03  1.01766E+04 -3.46859E+03
  9.05328E+03  1.84008E+03  5.76310E+03  6.45089E+03  2.23038E+02  6.96518E+03 -3.00154E+03  5.27626E+03
 -4.24597E+03  1.53762E+03 -2.16940E+03 -8.42719E+02 -9.59950E+02 -7.44920E+02 -6.42555E+02 -1.95255E+02
 -1.44540E+03 -2.14357E+02 -1.79522E+03 -2.67923E+02 -7.62945E+02 -1.65382E+03  3.17417E+02 -2.63437E+03
  3.40491E+03 -2.34570E+03  4.25868E+03  1.24098E+02  5.01235E+03  4.02231E+03  9.38350E+02  7.40402E+03
 -3.43321E+03  8.17602E+03 -7.69771E+03  4.78539E+03 -8.17685E+03 -6.46080E+02 -6.14405E+03 -5.07930E+03
 -2.52189E+03 -7.22248E+03  1.98585E+03 -6.58703E+03  4.38155E+03 -3.47388E+03  4.91308E+03  3.14540E+02
  2.54641E+03  2.33992E+03 -3.91679E+01  2.31472E+03 -1.72231E+03 -1.13692E+02  1.29310E+02 -1.94344E+03
  2.03952E+03 -8.64155E+02  2.65016E+03  1.13652E+03  1.69268E+03  2.54311E+03  1.59438E+02  3.49023E+03
 -3.15734E+03  3.12409E+03 -4.52618E+03  5.65692E+02 -3.98445E+03 -3.27285E+03 -7.08362E+02 -5.70330E+03
  3.16066E+03 -4.79909E+03  5.14037E+03 -1.29233E+03  5.05904E+03  1.11683E+03  2.77283E+03  4.10968E+03
  6.74906E+02  4.25876E+03 -1.64806E+03  3.84468E+03 -3.11460E+03  2.15770E+03 -2.53871E+03  2.98369E+02
 -1.34489E+03 -2.50176E+02 -1.45351E+03  6.22141E+02 -2.55166E+03  8.84251E+02 -3.49543E+03 -7.14533E+02
 -3.47534E+03 -2.19534E+03 -9.40093E+02 -4.34719E+03  2.34208E+03 -5.27764E+03  4.37539E+03 -2.28662E+03
  4.85428E+03  5.46541E+02  2.31386E+03  3.25057E+03 -2.83227E+02  4.72058E+03 -3.47907E+03  2.66007E+03
