 $NMID ID='MM_0lb_SNR800_16hz_g45_87.RAW', FMTDAT='(8E13.5)'
 TRAMP=1., VOLUME=1. $END
  3.09957E+05  1.87063E+02  3.37296E+05  2.51021E+05  8.43248E+04  3.37542E+05 -1.32656E+05  2.50532E+05
 -1.90252E+05  8.25784E+04 -1.11329E+05 -3.28936E+04  1.04288E+03 -5.04224E+04  5.39809E+04  1.29891E+02
  3.51976E+04  5.27399E+04 -1.67957E+04  7.48863E+04 -6.06535E+04  6.29703E+04 -8.35064E+04  3.13441E+04
 -8.03746E+04 -1.13004E+04 -5.69027E+04 -5.07028E+04 -1.50300E+04 -6.90820E+04  2.69969E+04 -4.53284E+04
  3.98211E+04  3.74444E+03  1.58880E+04  4.76548E+04 -3.41644E+04  4.65423E+04 -6.60430E+04 -3.33750E+02
 -5.27017E+04 -5.61922E+04 -6.36029E+03 -7.60242E+04  3.34290E+04 -5.39362E+04  4.71248E+04 -1.68203E+04
  4.23402E+04  1.12698E+04  3.11408E+04  2.47070E+04  1.59262E+04  2.90314E+04 -4.91302E+03  2.70000E+04
 -2.17710E+04  1.24583E+04 -1.92660E+04 -4.71290E+03  4.86362E+03 -7.67508E+03  2.17460E+04  1.19323E+04
  7.34999E+03  3.41599E+04 -3.13357E+04  3.46682E+04 -6.22782E+04  2.04218E+03 -5.61456E+04 -4.19128E+04
 -1.24842E+04 -6.20712E+04  3.88175E+04 -4.42235E+04  5.66661E+04 -2.01181E+03  3.29715E+04  3.16107E+04
 -6.22669E+03  3.46911E+04 -2.90367E+04  1.47368E+04 -2.85983E+04 -5.07521E+03 -1.55414E+04 -1.05722E+04
 -7.64887E+03 -1.24065E+04 -1.41498E+03 -1.71593E+04  6.96177E+03 -2.28608E+04  1.50367E+04 -1.36593E+04
  1.18032E+04  4.45347E+03 -7.27027E+03  1.28675E+04 -2.00272E+04 -3.46826E+03 -8.43485E+03 -3.20838E+04
  2.17322E+04 -4.20921E+04  4.61127E+04 -1.90767E+04  4.34099E+04  1.84657E+04  1.47194E+04  4.26298E+04
 -1.55813E+04  3.23455E+04 -2.42428E+04  1.53318E+03 -9.03204E+03 -2.71653E+04  2.07478E+04 -3.23994E+04
  3.94241E+04 -8.04897E+03  3.33746E+04  2.33870E+04  1.65489E+04  4.45490E+04 -8.16757E+03  4.74712E+04
 -3.00975E+04  3.14132E+04 -3.94099E+04  8.78031E+03 -4.03175E+04 -1.60016E+04 -2.22105E+04 -3.62277E+04
  6.75121E+03 -3.59592E+04  3.05019E+04 -1.34579E+04  2.82071E+04  1.09310E+04  3.38088E+03  1.83564E+04
 -1.33345E+04  7.69843E+03 -9.85570E+03 -7.39026E+03  5.85709E+03 -1.03927E+04  1.76312E+04  6.18240E+03
  1.27485E+04  2.18258E+04 -6.34595E+03  2.41633E+04 -2.19898E+04  1.01540E+04 -2.64141E+04 -5.47024E+03
 -1.83835E+04 -1.67696E+04 -6.74983E+03 -1.87477E+04  3.79808E+03 -1.67027E+04  1.39698E+04 -1.62054E+04
  2.35104E+04 -1.22790E+04  3.03302E+04  1.96328E+03  2.23757E+04  1.78331E+04  4.05782E+03  3.43133E+04
 -1.66850E+04  2.88423E+04 -2.67267E+04  1.00697E+04 -2.02498E+04 -1.05251E+04 -4.03125E+03 -1.39058E+04
  2.08676E+03 -3.71805E+03 -3.47155E+03  6.00652E+03 -1.44458E+04  4.86484E+03 -1.44838E+04 -5.93330E+03
 -9.39693E+03 -1.71088E+04  5.13403E+03 -2.09207E+04  1.39570E+04 -1.51195E+04  1.61970E+04 -1.45723E+03
  1.01759E+04  1.18950E+04 -1.08348E+03  1.73366E+04 -1.15256E+04  9.74696E+03 -1.69865E+04 -3.61990E+03
 -1.25820E+04 -1.55867E+04 -1.32046E+03 -2.06531E+04  9.17277E+03 -1.67813E+04  1.74325E+04 -8.04566E+03
  1.59422E+04  6.24520E+02  1.13101E+04  4.08401E+03  5.90684E+03  1.10348E+03  8.75905E+03 -1.36282E+03
  1.56004E+04  2.93211E+03  1.68048E+04  1.40939E+04  1.04973E+04  2.71882E+04 -3.08993E+03  2.96795E+04
 -1.76421E+04  2.33194E+04 -2.79031E+04  1.14121E+04 -2.87649E+04 -2.40154E+03 -2.44337E+04 -1.65847E+04
 -1.07626E+04 -2.36123E+04  7.99042E+03 -2.18867E+04  1.87251E+04 -1.17480E+04  1.71049E+04  4.61355E+03
  6.63901E+03  1.26017E+04 -7.75587E+03  1.15944E+04 -1.49340E+04  2.60853E+03 -1.15809E+04 -8.76964E+03
 -1.83043E+02 -1.40213E+04  7.08184E+03 -1.06920E+04  9.05649E+03 -1.79663E+03  1.83768E+03  5.60006E+03
 -6.00323E+03  2.00779E+03 -4.51128E+03 -5.07718E+03  2.46116E+02 -1.15940E+04  8.82048E+03 -1.19263E+04
  1.46509E+04 -5.92558E+03  1.45647E+04  2.86973E+03  1.26675E+04  1.12838E+04  5.99370E+03  1.71392E+04
 -2.41588E+03  1.87424E+04 -1.13651E+04  1.17968E+04 -1.34528E+04  3.24120E+03 -9.59547E+03 -2.57121E+03
 -4.83004E+03 -3.96495E+03 -1.06816E+03  1.14788E+03 -1.91193E+03  2.51530E+03 -4.18855E+03  3.63265E+03
 -9.38055E+03 -4.31894E+02 -9.88489E+03 -8.04111E+03 -3.93394E+03 -1.29795E+04  4.18461E+03 -9.86960E+03
  8.17940E+03 -4.23702E+03  5.92365E+03  2.74790E+03  7.90324E+02  3.51287E+03 -4.11400E+03  1.40261E+02
 -3.96188E+03 -5.69613E+03 -1.19077E+03 -8.93636E+03  4.85013E+03 -9.63610E+03  1.19341E+04 -4.94776E+03
  1.37199E+04  1.23472E+03  1.05325E+04  7.56316E+03  2.04878E+03  1.06062E+04 -6.00823E+03  9.54445E+03
 -8.13545E+03  3.05452E+03 -4.40304E+03 -1.88821E+03  1.19735E+03 -2.18597E+03  5.16564E+03 -9.06282E+02
  4.67331E+03  4.07232E+03  1.30188E+03  7.48845E+03 -5.20427E+03  7.49805E+03 -9.14987E+03  2.08873E+03
 -5.94030E+03 -4.43605E+03  3.11470E+02 -7.60726E+03  4.37479E+03 -4.10543E+03  4.68799E+03  1.54624E+03
  1.05488E+03  4.57874E+03 -4.65452E+03  5.77048E+03 -6.46381E+03  2.96411E+03 -6.15895E+03 -1.59384E+03
 -3.77678E+03 -7.73020E+03  1.45460E+03 -9.11304E+03  7.45727E+03 -5.80145E+03  8.14801E+03  1.32560E+03
  5.64286E+03  6.69223E+03 -2.33504E+02  8.74159E+03 -6.09292E+03  5.13499E+03 -6.32371E+03 -3.59565E+02
 -6.72407E+03 -6.26622E+03 -1.47767E+03 -6.50343E+03  3.16718E+03 -5.50291E+03  3.73642E+03 -2.99869E+03
  3.24658E+03  5.36588E+02 -1.04695E+02  1.47988E+03  3.74549E+02 -7.16251E+02  6.13928E+02 -2.90820E+03
  5.16108E+03 -1.49331E+03  7.23373E+03  8.16743E+02  7.36184E+03  4.56254E+03  6.25416E+03  9.35979E+03
 -2.13356E+03  1.14845E+04 -9.81277E+03  8.40559E+03 -1.23724E+04  1.67859E+03 -1.00301E+04 -3.75739E+03
 -5.02765E+03 -8.36020E+03 -5.45897E+02 -6.73743E+03  2.63662E+03 -2.93207E+03  2.38894E+03 -2.82426E+03
  1.54408E+03 -1.68126E+03  2.31983E+03 -2.57659E+03  4.11032E+03 -1.90508E+03  4.44606E+03  9.77358E+01
  5.51999E+03  1.38653E+03  2.15790E+03  4.28758E+03 -1.49024E+03  4.15231E+03 -5.48116E+03  3.61562E+03
 -6.54065E+03 -1.06235E+03 -3.17102E+03 -4.35533E+03  2.55358E+02 -6.91992E+03  4.26466E+03 -6.79693E+03
  6.88225E+03 -4.11921E+03  8.66230E+03  5.94479E+02  5.98025E+03  5.98256E+03  1.24268E+03  7.92230E+03
 -2.92217E+03  7.11356E+03 -4.56866E+03  2.34401E+03 -2.46446E+03 -1.23883E+03 -4.69957E+02 -9.84708E+02
 -9.05401E+02  1.99636E+02 -1.18377E+03  2.26814E+03 -3.16308E+03  1.15503E+03 -5.13730E+03 -3.38480E+02
 -2.51894E+03 -4.87584E+03  6.79468E+02 -6.24121E+03  3.54247E+03 -5.91664E+03  5.24035E+03 -1.51065E+03
  5.76125E+03  3.11581E+03  2.65344E+03  5.01696E+03 -1.35371E+03  6.17571E+03 -3.88767E+03  3.84859E+03
 -5.68939E+03  5.66638E+02 -4.29529E+03 -3.47792E+03 -4.80194E+02 -4.67477E+03  2.43394E+03 -3.56567E+03
  3.61257E+03 -1.55327E+03  2.41284E+03  6.77521E+02  1.02791E+03  2.05156E+03  1.12238E+03  6.71403E+02
  1.87840E+03  5.90939E+02  1.67771E+03  1.29896E+03  1.91857E+03  2.60127E+03  2.03097E+03  2.46398E+03
 -1.42097E+03  4.59622E+03 -4.01006E+03  5.38775E+03 -5.04280E+03  1.22719E+03 -5.86330E+03 -1.40124E+03
 -2.34847E+03 -5.46913E+03  6.81310E+02 -6.48638E+03  2.99390E+03 -3.79847E+03  4.53830E+03 -1.30983E+03
  3.54056E+03  2.39371E+03  2.42592E+02  3.17910E+03 -1.38184E+03  1.91784E+03 -1.78775E+03 -3.05073E+02
 -1.06163E+03 -2.09903E+03  1.76274E+03 -2.35449E+03  2.15553E+03 -1.21249E+03  2.02717E+03  6.88883E+02
  1.14750E+03  4.91084E+02  9.50027E+02  2.75186E+02 -3.86781E+02  9.13186E+02  1.49856E+03  5.79256E+00
  3.71135E+02 -1.73968E+02  2.54446E+03  6.96816E+02  7.04747E+02  3.20460E+03 -2.95126E+02  3.96532E+03
 -2.46881E+03  2.21611E+03 -3.14061E+03  3.05000E+02 -3.13836E+03 -1.31945E+03 -8.09739E+02 -1.61492E+03
  1.54349E+02 -1.74548E+03  1.38805E+03 -1.04185E+03  9.64412E+02  1.46050E+03 -7.42717E+02  1.56977E+03
 -2.15898E+03  9.92231E+02 -1.95121E+03 -1.93947E+03 -1.03514E+03 -2.97949E+03  5.89924E+01 -2.53881E+03
  1.06518E+03 -9.39470E+02  1.36598E+03  1.80652E+02  1.85536E+03  8.38593E+01  3.72178E+02  1.57713E+03
 -5.98922E+02  4.91374E+02 -1.25438E+03 -5.69553E+02  7.69816E+02 -1.66722E+03  2.50431E+03 -1.50751E+03
  2.45019E+03  1.55217E+02  3.52819E+03  1.47180E+03  1.30865E+03  2.68259E+03 -6.96198E+02  2.79088E+03
 -2.60001E+03  7.01616E+02 -2.43792E+03 -1.10206E+02 -1.05612E+03 -1.99932E+03  4.48804E+02 -1.45949E+03
  1.86388E+03 -1.02987E+03  1.27888E+03  9.93670E+02  6.41412E+02  1.98054E+03  4.48051E+02  1.48929E+03
 -5.14503E+02  1.66431E+03 -8.34703E+02  4.81509E+02 -1.00143E+01  3.54278E+02 -6.26253E+02  9.15598E+02
 -1.08295E+03  1.52545E+03 -2.33753E+03  9.51292E+02 -2.81812E+03 -5.03565E+00 -3.45022E+03 -1.53102E+03
 -1.80106E+03 -3.57070E+03  6.75290E+02 -4.46349E+03  2.30862E+03 -3.43245E+03  4.37224E+03 -1.52909E+03
  3.55160E+03  1.82884E+02  2.18073E+03  2.66070E+03 -6.30667E+02  2.56281E+03 -7.49381E+02  2.09141E+03
 -1.41332E+03  1.09895E+03 -7.62689E+02 -4.11758E+02 -4.03684E+02 -3.55928E+02 -6.90977E+02  1.64748E+02
 -1.17422E+03 -9.37891E+01 -1.08092E+03 -1.42687E+02 -1.81109E+02 -7.02385E+02 -5.01314E+02 -1.04010E+03
  1.71472E+03 -9.80454E+02  1.09936E+03  1.75105E+02  1.90378E+03  1.31459E+03 -4.72468E+02  2.44219E+03
 -1.49474E+03  3.66269E+03 -2.94342E+03  2.09771E+03 -2.70644E+03 -3.19016E+02 -2.23944E+03 -1.89245E+03
 -1.20526E+03 -2.39664E+03  7.05116E+02 -2.03738E+03  1.32309E+03 -1.04916E+03  1.31778E+03  1.82340E+02
  1.11129E+03  7.43762E+02 -3.68300E+02  8.31470E+02 -7.00173E+02 -1.05884E+02 -8.92553E+01 -5.29092E+02
  6.92247E+02  1.77905E+02  9.90526E+02  4.52074E+02  6.96785E+02  6.37877E+02  5.09150E+02  7.77992E+02
 -9.07326E+02  1.32079E+03 -9.54730E+02  9.50661E+00 -1.51202E+03 -1.13141E+03 -2.36008E+00 -2.11832E+03
  1.11721E+03 -1.53891E+03  1.41064E+03 -1.96129E+02  1.70152E+03 -3.26293E+01  7.74256E+02  1.41276E+03
  5.32219E+02  1.30522E+03 -6.59349E+02  1.09851E+03 -1.09813E+03  8.17339E+02 -8.05413E+02  9.32171E+01
 -5.39134E+02 -4.97499E+02 -6.28410E+02  1.60210E+02 -9.87453E+02  1.26714E+02 -1.02210E+03 -5.38906E+02
 -1.76043E+03  7.78510E+01 -4.43037E+02 -1.46826E+03  8.85202E+02 -2.02138E+03  1.29105E+03 -5.19900E+02
  1.59971E+03  1.09403E+02  6.37400E+01  8.20819E+02  1.60204E+02  1.31065E+03 -1.18607E+03  1.10104E+03
