 $NMID ID='MM_0lb_SNR800_10hz_g50_7.RAW', FMTDAT='(8E13.5)'
 TRAMP=1., VOLUME=1. $END
  3.10108E+05  5.32786E+02  3.38053E+05  2.50747E+05  8.50046E+04  3.38482E+05 -1.32530E+05  2.51952E+05
 -1.90576E+05  8.36991E+04 -1.12324E+05 -3.24411E+04  7.64626E+02 -5.10208E+04  5.38098E+04 -4.88688E+02
  3.54888E+04  5.29290E+04 -1.69104E+04  7.59391E+04 -6.10134E+04  6.41827E+04 -8.50583E+04  3.26805E+04
 -8.25969E+04 -1.13527E+04 -5.79100E+04 -5.23299E+04 -1.50953E+04 -7.07592E+04  2.82700E+04 -4.69077E+04
  4.10107E+04  3.94404E+03  1.65426E+04  4.86347E+04 -3.42524E+04  4.82644E+04 -6.76676E+04  2.34014E+02
 -5.50163E+04 -5.77239E+04 -7.03721E+03 -7.86089E+04  3.46877E+04 -5.67818E+04  4.94744E+04 -1.82853E+04
  4.52797E+04  1.13433E+04  3.29945E+04  2.63401E+04  1.60608E+04  2.99441E+04 -5.97414E+03  2.75854E+04
 -2.23473E+04  1.21976E+04 -1.78633E+04 -5.36831E+03  6.95066E+03 -7.40726E+03  2.36216E+04  1.34926E+04
  6.93930E+03  3.69914E+04 -3.35700E+04  3.66812E+04 -6.54675E+04  2.11409E+03 -5.87620E+04 -4.43946E+04
 -1.24041E+04 -6.50562E+04  4.09665E+04 -4.71145E+04  6.07824E+04 -2.73499E+03  3.64595E+04  3.41789E+04
 -5.89688E+03  3.85635E+04 -3.14473E+04  1.83627E+04 -3.28965E+04 -3.79064E+03 -1.86584E+04 -1.15456E+04
 -9.12600E+03 -1.50330E+04 -2.33993E+02 -1.94358E+04  8.45121E+03 -2.34716E+04  1.56310E+04 -1.30031E+04
  1.07246E+04  6.06213E+03 -1.04819E+04  1.27013E+04 -2.27281E+04 -6.19945E+03 -8.17264E+03 -3.67298E+04
  2.47315E+04 -4.64985E+04  5.13638E+04 -2.10738E+04  4.79191E+04  2.06732E+04  1.71103E+04  4.65503E+04
 -1.69474E+04  3.52497E+04 -2.72031E+04  2.63677E+03 -1.12839E+04 -2.90313E+04  2.18255E+04 -3.64875E+04
  4.38524E+04 -1.07521E+04  3.92539E+04  2.45577E+04  2.03970E+04  4.97850E+04 -8.28769E+03  5.50004E+04
 -3.45268E+04  3.73802E+04 -4.61274E+04  1.06716E+04 -4.65988E+04 -1.78943E+04 -2.55945E+04 -4.14004E+04
  7.65819E+03 -4.14386E+04  3.36123E+04 -1.63188E+04  3.16191E+04  1.10580E+04  5.01470E+03  1.98201E+04
 -1.37082E+04  9.39278E+03 -1.09615E+04 -7.74274E+03  5.63208E+03 -1.12144E+04  1.88226E+04  5.70567E+03
  1.48257E+04  2.24595E+04 -5.43288E+03  2.66282E+04 -2.32508E+04  1.34945E+04 -3.09030E+04 -3.54253E+03
 -2.44676E+04 -1.84516E+04 -1.09760E+04 -2.41523E+04  4.20373E+03 -2.41164E+04  1.90256E+04 -2.21215E+04
  3.10981E+04 -1.39177E+04  3.69991E+04  4.65969E+03  2.64021E+04  2.39012E+04  4.08317E+03  4.00424E+04
 -1.93728E+04  3.31543E+04 -2.96584E+04  1.12609E+04 -2.19802E+04 -1.04394E+04 -4.84467E+03 -1.33545E+04
  9.62143E+02 -1.66759E+03 -6.96413E+03  8.10066E+03 -1.97013E+04  4.73712E+03 -1.93381E+04 -9.07502E+03
 -1.16326E+04 -2.24773E+04  5.70848E+03 -2.70377E+04  1.78823E+04 -1.90506E+04  2.20480E+04 -1.91296E+03
  1.39876E+04  1.56451E+04 -1.16047E+03  2.21905E+04 -1.61386E+04  1.29267E+04 -2.23675E+04 -4.58261E+03
 -1.64796E+04 -2.05622E+04 -2.34452E+03 -2.72288E+04  1.22283E+04 -2.23268E+04  2.21860E+04 -1.19101E+04
  2.06163E+04 -2.84326E+01  1.52109E+04  4.93714E+03  8.43671E+03  1.52399E+03  1.16716E+04 -2.03981E+03
  2.10021E+04  2.93876E+03  2.39046E+04  1.75112E+04  1.60739E+04  3.59064E+04 -2.87762E+03  4.21750E+04
 -2.38275E+04  3.47716E+04 -3.95989E+04  1.77490E+04 -4.20808E+04 -2.66527E+03 -3.37864E+04 -2.47644E+04
 -1.41017E+04 -3.50969E+04  1.26741E+04 -3.10227E+04  2.65470E+04 -1.49105E+04  2.34914E+04  7.17327E+03
  7.84420E+03  1.78560E+04 -1.11860E+04  1.47329E+04 -1.90755E+04  2.64045E+03 -1.48281E+04 -1.20967E+04
 -3.98466E+02 -1.83558E+04  9.89261E+03 -1.36868E+04  1.25146E+04 -1.40091E+03  3.16397E+03  8.47011E+03
 -8.35461E+03  4.15630E+03 -8.54425E+03 -6.46424E+03 -1.57603E+03 -1.70087E+04  1.12566E+04 -1.85798E+04
  2.15789E+04 -1.04126E+04  2.43920E+04  3.63197E+03  2.14812E+04  1.72295E+04  1.00323E+04  2.70677E+04
 -4.74898E+03  2.91323E+04 -1.88107E+04  1.82011E+04 -2.07425E+04  4.05238E+03 -1.46210E+04 -5.25427E+03
 -6.25283E+03 -6.73280E+03 -6.69069E+02  7.22602E+02 -2.95743E+03  3.42866E+03 -6.80205E+03  5.14843E+03
 -1.37354E+04 -8.92506E+02 -1.36117E+04 -1.14129E+04 -5.91477E+03 -1.81586E+04  5.99564E+03 -1.48907E+04
  1.20498E+04 -5.94616E+03  8.68977E+03  3.73655E+03 -1.52748E+02  5.70850E+03 -7.09892E+03 -3.13671E+02
 -6.93198E+03 -9.26149E+03 -9.72061E+02 -1.42388E+04  8.27951E+03 -1.51946E+04  1.84305E+04 -8.34541E+03
  2.21425E+04  2.31924E+03  1.60526E+04  1.31682E+04  3.28786E+03  1.76228E+04 -9.27868E+03  1.45732E+04
 -1.18501E+04  3.89060E+03 -6.49620E+03 -3.20318E+03  2.37463E+03 -4.30113E+03  7.90662E+03 -6.91886E+02
  6.98592E+03  6.43939E+03  1.10469E+03  1.21106E+04 -8.53432E+03  1.08996E+04 -1.46241E+04  2.74431E+03
 -9.69383E+03 -7.59516E+03  2.67466E+02 -1.23588E+04  8.20625E+03 -6.19144E+03  8.43332E+03  3.16471E+03
  2.19146E+03  9.25891E+03 -7.68309E+03  1.04723E+04 -1.20757E+04  4.52654E+03 -1.30504E+04 -4.72584E+03
 -7.10914E+03 -1.45249E+04  3.38706E+03 -1.65406E+04  1.39377E+04 -9.64354E+03  1.54402E+04  2.99262E+03
  9.53360E+03  1.22410E+04 -1.23053E+03  1.45998E+04 -1.02926E+04  8.39746E+03 -1.17202E+04 -1.37437E+03
 -9.82209E+03 -9.60426E+03 -2.03266E+03 -1.11062E+04  5.98435E+03 -8.88672E+03  7.16961E+03 -3.55135E+03
  4.22562E+03  1.92439E+03 -9.78720E+02  2.15445E+03 -2.33951E+02 -2.87143E+03  2.35592E+03 -6.69113E+03
  1.01794E+04 -4.49513E+03  1.48448E+04  1.49286E+03  1.46389E+04  9.73603E+03  9.30183E+03  1.91348E+04
 -4.43862E+03  2.17731E+04 -1.83250E+04  1.60467E+04 -2.33201E+04  2.84753E+03 -1.87729E+04 -8.32185E+03
 -9.65289E+03 -1.55671E+04 -2.00839E+02 -1.32457E+04  4.84809E+03 -7.30239E+03  4.49727E+03 -4.59727E+03
  3.70702E+03 -3.10072E+03  4.15443E+03 -3.40600E+03  5.24520E+03 -3.36508E+03  7.56069E+03 -1.43513E+03
  9.76705E+03  2.01216E+03  5.36579E+03  8.50400E+03 -1.62208E+03  1.01088E+04 -1.04117E+04  7.77918E+03
 -1.31785E+04 -1.23729E+03 -7.99578E+03 -9.48209E+03 -9.46689E+02 -1.40564E+04  8.20177E+03 -1.40173E+04
  1.48704E+04 -8.03618E+03  1.75163E+04  2.23798E+03  1.19169E+04  1.22086E+04  1.70459E+03  1.61605E+04
 -6.65623E+03  1.32046E+04 -9.24761E+03  4.24650E+03 -6.18566E+03 -1.29868E+03 -2.59660E+03 -2.02085E+03
 -1.40446E+03 -6.78351E+01 -1.79212E+03  3.06227E+03 -5.74976E+03  2.08938E+03 -9.18113E+03 -1.32909E+03
 -6.17041E+03 -9.33803E+03  6.38830E+02 -1.32332E+04  7.50689E+03 -1.18993E+04  1.28944E+04 -3.54026E+03
  1.28407E+04  6.59900E+03  6.26851E+03  1.14091E+04 -2.35784E+03  1.29543E+04 -9.23151E+03  8.43939E+03
 -1.24301E+04  1.27174E+01 -9.50288E+03 -7.96602E+03 -1.31301E+03 -1.07364E+04  5.85376E+03 -8.17004E+03
  8.60643E+03 -2.51337E+03  5.75457E+03  2.07136E+03  2.06179E+03  3.98078E+03  1.09664E+03  1.57890E+03
  2.77023E+03  1.24613E+03  3.39236E+03  2.05622E+03  4.12319E+03  4.52837E+03  3.17415E+03  6.58503E+03
 -2.90904E+03  1.08931E+04 -8.98391E+03  1.01610E+04 -1.33714E+04  2.26538E+03 -1.41997E+04 -5.27220E+03
 -6.44759E+03 -1.29441E+04  2.08770E+03 -1.43940E+04  7.82671E+03 -9.16554E+03  1.11238E+04 -2.41541E+03
  7.87904E+03  4.77891E+03  1.71644E+03  7.30557E+03 -3.49680E+03  5.20899E+03 -5.37343E+03 -7.78432E+02
 -2.47174E+03 -5.36185E+03  2.91959E+03 -5.82571E+03  5.75407E+03 -2.73381E+03  5.68008E+03  1.32944E+03
  3.14569E+03  2.68553E+03  1.38886E+03  1.75250E+03 -4.15849E+02  1.44319E+03  1.36374E+03 -5.85759E+02
  2.42281E+03 -8.33947E+02  5.42276E+03  2.35954E+03  3.25970E+03  7.16180E+03 -1.20577E+03  9.12271E+03
 -6.75577E+03  6.19827E+03 -9.00973E+03  1.73369E+03 -7.70536E+03 -2.43481E+03 -2.90448E+03 -5.07044E+03
  7.65365E+02 -5.42973E+03  3.40059E+03 -2.58644E+03  2.57320E+03  2.96433E+03 -1.37092E+03  4.46283E+03
 -5.69154E+03  2.91560E+03 -6.43842E+03 -3.07544E+03 -3.59201E+03 -7.18570E+03  9.53296E+02 -7.16889E+03
  4.15739E+03 -4.16176E+03  5.31482E+03 -6.79212E+02  4.69243E+03  1.74239E+03  3.93495E+02  3.86176E+03
 -2.39727E+03  8.93718E+02 -3.46706E+03 -2.46860E+03  1.25572E+03 -5.64270E+03  6.75916E+03 -4.81476E+03
  8.26986E+03  2.67113E+02  8.19519E+03  5.69931E+03  2.65397E+03  8.33827E+03 -2.83124E+03  7.74539E+03
 -7.28253E+03  3.63540E+03 -7.32035E+03 -9.09326E+02 -4.07585E+03 -5.58319E+03  1.14877E+03 -5.48076E+03
  5.35463E+03 -2.83015E+03  4.22285E+03  2.04748E+03  1.49383E+03  4.95800E+03 -2.38718E+02  4.30382E+03
 -1.98837E+03  2.96663E+03 -2.10358E+03  7.48896E+02 -9.06941E+02  7.45940E+02 -1.50950E+03  1.88090E+03
 -2.15429E+03  3.51296E+03 -6.23088E+03  2.90841E+03 -8.71834E+03  1.19559E+01 -9.62053E+03 -5.86989E+03
 -5.19894E+03 -1.11382E+04  1.97449E+03 -1.33801E+04  7.82641E+03 -1.00562E+04  1.24179E+04 -3.95135E+03
  1.14917E+04  2.56992E+03  6.99695E+03  7.54522E+03  9.83427E+02  8.89104E+03 -3.31404E+03  6.41076E+03
 -5.16828E+03  2.51768E+03 -2.68179E+03 -1.30898E+03 -1.30755E+03 -8.19579E+02 -3.26368E+02  1.45244E+02
 -1.90954E+03 -1.03215E+02 -2.28363E+03 -3.76078E+02 -3.36451E+02 -2.21295E+03  2.33754E+02 -3.12980E+03
  4.09551E+03 -3.04112E+03  4.78986E+03  1.47122E+02  6.02652E+03  4.77120E+03  1.67278E+03  8.37205E+03
 -4.17530E+03  1.00840E+04 -9.50086E+03  5.75580E+03 -1.03990E+04 -8.04786E+02 -8.17115E+03 -6.53821E+03
 -3.54602E+03 -8.80782E+03  2.25737E+03 -8.07068E+03  5.35011E+03 -4.40432E+03  5.73810E+03  5.12462E+02
  3.25017E+03  2.28067E+03 -8.79342E+01  2.15665E+03 -1.71527E+03 -4.37456E+02  9.97432E+01 -1.96326E+03
  3.06151E+03 -1.10964E+03  3.25798E+03  1.04514E+03  2.23645E+03  3.20590E+03 -3.37980E+01  4.49286E+03
 -3.72827E+03  3.80541E+03 -5.81707E+03  5.44614E+02 -5.22887E+03 -4.45028E+03 -8.27117E+02 -7.36268E+03
  4.02600E+03 -5.66812E+03  6.44581E+03 -2.04245E+03  6.71150E+03  1.10762E+03  3.69280E+03  5.51420E+03
  5.98112E+02  5.90338E+03 -1.90403E+03  4.62933E+03 -3.60463E+03  2.55783E+03 -2.88097E+03  2.35482E+02
 -1.72201E+03 -5.24357E+01 -1.47694E+03  7.62255E+02 -2.65127E+03  6.68920E+02 -4.63921E+03 -1.11093E+03
 -4.46932E+03 -3.17378E+03 -1.35227E+03 -5.91017E+03  2.60497E+03 -6.36157E+03  5.05098E+03 -2.92192E+03
  5.75297E+03  9.16097E+02  2.57456E+03  4.30765E+03 -6.62554E+02  5.97830E+03 -4.32790E+03  3.88070E+03
