 $NMID ID='MM_0lb_SNR800_12hz_g50_62.RAW', FMTDAT='(8E13.5)'
 TRAMP=1., VOLUME=1. $END
  3.09529E+05  4.01850E+02  3.37656E+05  2.50664E+05  8.46036E+04  3.38050E+05 -1.32935E+05  2.51139E+05
 -1.90384E+05  8.36571E+04 -1.11962E+05 -3.24120E+04  8.19442E+02 -5.08000E+04  5.33723E+04 -2.77066E+02
  3.55768E+04  5.31731E+04 -1.70208E+04  7.58612E+04 -6.07959E+04  6.40364E+04 -8.48615E+04  3.23143E+04
 -8.15843E+04 -1.18178E+04 -5.79807E+04 -5.16819E+04 -1.51232E+04 -7.01625E+04  2.76409E+04 -4.62889E+04
  4.07197E+04  3.75122E+03  1.64176E+04  4.83309E+04 -3.46961E+04  4.75606E+04 -6.72168E+04 -3.93834E+02
 -5.39001E+04 -5.73889E+04 -7.12355E+03 -7.75920E+04  3.35010E+04 -5.56970E+04  4.85655E+04 -1.77842E+04
  4.40172E+04  1.12679E+04  3.26349E+04  2.58674E+04  1.57014E+04  3.01168E+04 -5.29922E+03  2.75885E+04
 -2.22236E+04  1.21243E+04 -1.85051E+04 -5.65749E+03  6.37400E+03 -7.25968E+03  2.26558E+04  1.27559E+04
  7.18715E+03  3.60286E+04 -3.28744E+04  3.63415E+04 -6.42329E+04  1.83176E+03 -5.77445E+04 -4.36442E+04
 -1.23888E+04 -6.40089E+04  4.05815E+04 -4.62022E+04  5.94790E+04 -2.13119E+03  3.55141E+04  3.30470E+04
 -5.80481E+03  3.76481E+04 -3.05101E+04  1.71855E+04 -3.19515E+04 -4.19535E+03 -1.78216E+04 -1.17255E+04
 -8.86724E+03 -1.39148E+04 -5.80256E+02 -1.87831E+04  7.99610E+03 -2.34161E+04  1.55330E+04 -1.31973E+04
  1.09971E+04  5.66430E+03 -9.48818E+03  1.26241E+04 -2.22311E+04 -5.38551E+03 -8.50819E+03 -3.49320E+04
  2.38835E+04 -4.50808E+04  4.99740E+04 -2.03092E+04  4.66761E+04  1.99850E+04  1.60281E+04  4.55411E+04
 -1.61171E+04  3.48962E+04 -2.58511E+04  2.06432E+03 -1.06242E+04 -2.85873E+04  2.10158E+04 -3.50961E+04
  4.26845E+04 -9.96170E+03  3.73455E+04  2.44550E+04  1.95578E+04  4.85875E+04 -8.23398E+03  5.27324E+04
 -3.29120E+04  3.57367E+04 -4.42024E+04  9.83760E+03 -4.50674E+04 -1.72420E+04 -2.48100E+04 -3.97595E+04
  7.56897E+03 -3.96913E+04  3.25309E+04 -1.54283E+04  3.02475E+04  1.11760E+04  4.48822E+03  1.99849E+04
 -1.34958E+04  9.08037E+03 -1.09597E+04 -7.63649E+03  5.91122E+03 -1.15233E+04  1.83319E+04  5.81687E+03
  1.40595E+04  2.25155E+04 -5.79281E+03  2.60010E+04 -2.25943E+04  1.26355E+04 -2.91654E+04 -4.20264E+03
 -2.24838E+04 -1.77331E+04 -9.76502E+03 -2.27799E+04  4.04881E+03 -2.19838E+04  1.73134E+04 -2.00273E+04
  2.85795E+04 -1.36386E+04  3.47458E+04  3.39135E+03  2.49971E+04  2.15990E+04  4.34187E+03  3.84160E+04
 -1.85938E+04  3.18356E+04 -2.91115E+04  1.08968E+04 -2.14550E+04 -9.78895E+03 -4.48514E+03 -1.33325E+04
  1.45885E+03 -2.41724E+03 -6.03327E+03  7.56297E+03 -1.79571E+04  4.94791E+03 -1.78809E+04 -7.96394E+03
 -1.06134E+04 -2.06687E+04  5.56785E+03 -2.48156E+04  1.64951E+04 -1.79239E+04  2.03600E+04 -1.84490E+03
  1.25604E+04  1.43249E+04 -1.22814E+03  2.06118E+04 -1.42410E+04  1.17852E+04 -2.06635E+04 -4.17059E+03
 -1.55645E+04 -1.88107E+04 -1.92986E+03 -2.49681E+04  1.13797E+04 -2.03757E+04  2.07316E+04 -1.02684E+04
  1.93680E+04  5.99998E+01  1.41813E+04  4.93185E+03  7.44327E+03  1.17439E+03  1.04777E+04 -1.59960E+03
  1.88920E+04  2.85841E+03  2.17208E+04  1.60098E+04  1.45165E+04  3.33061E+04 -2.82367E+03  3.82729E+04
 -2.21206E+04  3.08579E+04 -3.61580E+04  1.55102E+04 -3.78843E+04 -2.56509E+03 -3.09760E+04 -2.19720E+04
 -1.30275E+04 -3.14669E+04  1.09807E+04 -2.78725E+04  2.37343E+04 -1.38083E+04  2.12140E+04  6.44218E+03
  8.01044E+03  1.62009E+04 -9.64621E+03  1.37575E+04 -1.78164E+04  2.46911E+03 -1.35862E+04 -1.14566E+04
 -2.03023E+02 -1.68094E+04  9.04700E+03 -1.25846E+04  1.14239E+04 -1.18954E+03  2.67807E+03  7.60816E+03
 -7.46313E+03  3.09944E+03 -6.96215E+03 -6.37940E+03 -1.12517E+03 -1.50935E+04  1.05388E+04 -1.59363E+04
  1.91168E+04 -8.98884E+03  2.12427E+04  3.04408E+03  1.85964E+04  1.51257E+04  8.51542E+03  2.36907E+04
 -4.00143E+03  2.58397E+04 -1.63271E+04  1.60274E+04 -1.86209E+04  3.54760E+03 -1.29828E+04 -4.51028E+03
 -5.65635E+03 -5.79274E+03 -9.45891E+02  7.40984E+02 -2.45647E+03  2.99347E+03 -6.00257E+03  4.88366E+03
 -1.16836E+04 -8.07409E+02 -1.24707E+04 -9.71925E+03 -5.06511E+03 -1.65060E+04  5.42408E+03 -1.30612E+04
  1.09794E+04 -5.40325E+03  7.57948E+03  3.63665E+03  2.52882E+01  5.02291E+03 -6.39293E+03 -1.20320E+02
 -6.22706E+03 -8.48114E+03 -1.09510E+03 -1.24804E+04  7.19690E+03 -1.30136E+04  1.63685E+04 -7.26870E+03
  1.91462E+04  1.89942E+03  1.43547E+04  1.14896E+04  2.71085E+03  1.52824E+04 -8.08250E+03  1.28770E+04
 -1.05172E+04  3.69408E+03 -5.61815E+03 -2.54447E+03  1.93414E+03 -3.49366E+03  6.85589E+03 -9.14380E+02
  5.98319E+03  5.21321E+03  6.94911E+02  1.00749E+04 -7.51951E+03  1.00446E+04 -1.22230E+04  2.40471E+03
 -8.09140E+03 -6.51814E+03 -1.00485E+02 -1.06749E+04  6.85386E+03 -5.71564E+03  7.29963E+03  2.56363E+03
  1.66895E+03  7.41616E+03 -6.92881E+03  8.91041E+03 -1.02082E+04  3.95381E+03 -1.02198E+04 -3.81206E+03
 -6.13245E+03 -1.17093E+04  2.79544E+03 -1.38715E+04  1.18519E+04 -8.47074E+03  1.29316E+04  2.21536E+03
  7.84480E+03  1.02234E+04 -7.29516E+02  1.19639E+04 -8.78430E+03  6.89628E+03 -9.52744E+03 -9.80259E+02
 -8.68356E+03 -8.56849E+03 -1.66003E+03 -9.17091E+03  4.84442E+03 -7.74442E+03  5.67607E+03 -3.71504E+03
  4.35652E+03  1.41883E+03 -4.44188E+02  1.67096E+03 -5.66104E+02 -2.01472E+03  1.43372E+03 -5.35915E+03
  8.07379E+03 -3.15204E+03  1.19530E+04  1.41056E+03  1.16071E+04  7.82898E+03  8.15222E+03  1.54833E+04
 -3.71901E+03  1.77384E+04 -1.50103E+04  1.34256E+04 -1.92975E+04  2.43028E+03 -1.55582E+04 -6.34544E+03
 -7.70525E+03 -1.30659E+04 -6.23462E+02 -1.07718E+04  3.82849E+03 -5.75627E+03  3.64140E+03 -3.88644E+03
  2.78764E+03 -2.17328E+03  3.31931E+03 -3.26680E+03  5.26404E+03 -2.48339E+03  6.47417E+03 -8.44296E+01
  8.30829E+03  2.33199E+03  4.05593E+03  6.84726E+03 -1.95334E+03  7.97981E+03 -8.69251E+03  5.98056E+03
 -1.05866E+04 -1.24502E+03 -6.03724E+03 -7.21562E+03 -4.22442E+02 -1.17058E+04  6.38470E+03 -1.15309E+04
  1.18023E+04 -6.43699E+03  1.42958E+04  1.46009E+03  9.75086E+03  9.72224E+03  1.62461E+03  1.29504E+04
 -5.36619E+03  1.06727E+04 -7.47019E+03  3.61972E+03 -5.00269E+03 -1.74560E+03 -2.29622E+03 -1.64511E+03
 -7.61144E+02 -3.14622E+02 -1.84738E+03  2.40446E+03 -4.55586E+03  1.91912E+03 -7.60530E+03 -8.88837E+02
 -5.02670E+03 -7.41086E+03  3.03268E+02 -1.00840E+04  6.29697E+03 -9.60061E+03  1.01423E+04 -3.28842E+03
  1.01099E+04  5.26023E+03  4.69795E+03  9.00730E+03 -1.93536E+03  1.02286E+04 -6.99659E+03  6.38860E+03
 -9.42426E+03  1.01855E+03 -7.67022E+03 -6.29050E+03 -7.95509E+02 -8.62413E+03  4.62953E+03 -6.47662E+03
  6.56275E+03 -2.31468E+03  4.51310E+03  1.73338E+03  1.54024E+03  3.22754E+03  1.19303E+03  1.28172E+03
  2.13149E+03  7.86618E+02  2.55088E+03  1.41326E+03  2.86253E+03  3.99475E+03  2.42107E+03  5.23623E+03
 -2.27429E+03  7.71862E+03 -6.84126E+03  8.44761E+03 -1.00619E+04  2.44361E+03 -1.09140E+04 -3.88893E+03
 -4.91832E+03 -1.01822E+04  1.33358E+03 -1.14386E+04  5.77101E+03 -7.24742E+03  7.86426E+03 -2.05255E+03
  6.67944E+03  3.84405E+03  1.65761E+03  5.91821E+03 -2.54933E+03  3.90103E+03 -3.83860E+03 -5.03091E+02
 -1.78742E+03 -4.30360E+03  2.26817E+03 -4.23087E+03  4.03250E+03 -2.35972E+03  3.98968E+03  1.06824E+03
  2.75971E+03  1.62643E+03  1.18832E+03  1.24616E+03 -8.03585E+02  1.38454E+03  1.54087E+03 -4.56751E+02
  1.35289E+03 -3.48692E+02  4.23110E+03  1.63101E+03  1.97989E+03  5.74710E+03 -1.01520E+03  7.08176E+03
 -4.90046E+03  4.16742E+03 -6.73480E+03  1.18458E+03 -5.73230E+03 -2.24810E+03 -1.73922E+03 -3.74275E+03
  6.57078E+02 -3.75890E+03  2.56629E+03 -1.84633E+03  2.21867E+03  2.28038E+03 -1.30307E+03  3.14303E+03
 -3.97986E+03  1.89017E+03 -4.23699E+03 -2.64414E+03 -2.46758E+03 -5.25982E+03  7.40171E+02 -5.75475E+03
  2.91662E+03 -2.97110E+03  3.36434E+03 -4.33026E+02  3.52223E+03  1.11239E+03  5.18937E+02  3.15205E+03
 -1.69842E+03  9.90631E+02 -2.24010E+03 -1.94662E+03  9.58881E+02 -4.01518E+03  5.03535E+03 -3.27496E+03
  6.04364E+03  5.96326E+02  6.28586E+03  3.60684E+03  2.06956E+03  5.95361E+03 -1.88818E+03  5.97897E+03
 -5.09661E+03  1.95782E+03 -5.40913E+03 -9.11146E+02 -2.73913E+03 -3.86631E+03  9.67854E+02 -3.40457E+03
  4.00951E+03 -1.80404E+03  2.94075E+03  2.01117E+03  9.32705E+02  3.31671E+03 -2.00209E+02  3.18146E+03
 -1.39646E+03  2.23128E+03 -1.43015E+03  5.74063E+02 -5.29823E+02  7.26428E+02 -8.79190E+02  1.76159E+03
 -1.40401E+03  2.91717E+03 -4.25953E+03  1.78802E+03 -6.07398E+03  3.65858E+02 -6.91583E+03 -4.05019E+03
 -3.45570E+03 -7.43721E+03  1.74754E+03 -9.50606E+03  5.29071E+03 -7.29682E+03  8.69655E+03 -2.86027E+03
  8.04169E+03  1.63640E+03  4.94238E+03  5.43981E+03  8.17149E+02  6.28172E+03 -2.84280E+03  4.54675E+03
 -3.56945E+03  1.83626E+03 -1.96376E+03 -6.40594E+02 -7.07505E+02 -1.34453E+02 -6.00331E+02 -3.96094E+01
 -1.59994E+03  7.81691E+01 -1.73363E+03 -4.74757E+02 -3.41926E+02 -1.41128E+03  2.35918E+02 -2.38546E+03
  3.24010E+03 -1.96440E+03  3.81511E+03  3.84294E+02  4.32314E+03  3.32490E+03  7.66552E+02  6.02464E+03
 -2.52094E+03  6.89370E+03 -6.48641E+03  4.15845E+03 -7.05466E+03 -7.37944E+02 -5.38780E+03 -4.63998E+03
 -2.15910E+03 -5.85414E+03  1.48881E+03 -5.76577E+03  3.64111E+03 -2.95966E+03  3.56394E+03  3.11768E+02
  2.17264E+03  1.73393E+03 -1.55346E+01  1.64279E+03 -1.04754E+03 -5.02189E+01 -8.54167E+01 -1.53898E+03
  1.84538E+03 -6.32547E+02  2.40504E+03  9.39581E+02  1.10085E+03  2.13593E+03  4.39010E+02  2.56766E+03
 -2.36728E+03  2.65827E+03 -3.53398E+03  3.79311E+02 -3.75463E+03 -2.53423E+03 -3.86553E+02 -4.87660E+03
  2.61742E+03 -3.60996E+03  4.16169E+03 -1.19096E+03  4.38732E+03  6.06777E+02  2.66766E+03  3.69725E+03
  7.98089E+02  3.62240E+03 -1.44263E+03  3.26425E+03 -2.53821E+03  1.69403E+03 -1.89931E+03  5.20952E+01
 -8.26900E+02 -1.23919E+02 -9.92980E+02  6.10718E+02 -2.10997E+03  5.43176E+02 -3.07609E+03 -6.85379E+02
 -2.83620E+03 -1.48464E+03 -8.30131E+02 -3.85150E+03  1.91895E+03 -4.22493E+03  3.57525E+03 -1.38957E+03
  3.59764E+03  3.86478E+02  1.83486E+03  2.48106E+03  2.67735E+01  3.67102E+03 -2.83942E+03  2.63810E+03
