 $NMID ID='MM_0lb_SNR800_15hz_g50_75.RAW', FMTDAT='(8E13.5)'
 TRAMP=1., VOLUME=1. $END
  3.09909E+05  3.01948E+02  3.37511E+05  2.50420E+05  8.43321E+04  3.37527E+05 -1.32235E+05  2.50735E+05
 -1.90344E+05  8.31461E+04 -1.11858E+05 -3.27680E+04  1.03800E+03 -5.08113E+04  5.37226E+04 -7.52252E+01
  3.54454E+04  5.31405E+04 -1.67732E+04  7.52892E+04 -6.05379E+04  6.35874E+04 -8.42595E+04  3.21273E+04
 -8.07781E+04 -1.10944E+04 -5.70892E+04 -5.12487E+04 -1.51220E+04 -6.93387E+04  2.73562E+04 -4.56000E+04
  3.98634E+04  3.98303E+03  1.61616E+04  4.76576E+04 -3.44366E+04  4.69204E+04 -6.64362E+04 -1.84455E+02
 -5.33503E+04 -5.64784E+04 -6.85060E+03 -7.64144E+04  3.38537E+04 -5.47647E+04  4.75144E+04 -1.71950E+04
  4.29009E+04  1.12615E+04  3.14450E+04  2.52626E+04  1.58286E+04  2.92243E+04 -5.42465E+03  2.73176E+04
 -2.18628E+04  1.22748E+04 -1.87628E+04 -5.08138E+03  5.17540E+03 -7.60643E+03  2.20318E+04  1.19917E+04
  7.42889E+03  3.49313E+04 -3.18830E+04  3.52822E+04 -6.29894E+04  2.07173E+03 -5.65567E+04 -4.26499E+04
 -1.21768E+04 -6.26550E+04  3.93617E+04 -4.47585E+04  5.77572E+04 -2.23562E+03  3.39274E+04  3.21586E+04
 -6.04551E+03  3.56047E+04 -2.97847E+04  1.58805E+04 -2.98689E+04 -4.65420E+03 -1.64040E+04 -1.08676E+04
 -7.82418E+03 -1.27310E+04 -8.59804E+02 -1.77233E+04  7.36606E+03 -2.26348E+04  1.54736E+04 -1.34214E+04
  1.15125E+04  5.19349E+03 -7.94127E+03  1.28560E+04 -2.10645E+04 -4.25347E+03 -8.35672E+03 -3.32532E+04
  2.25530E+04 -4.26787E+04  4.76302E+04 -1.95098E+04  4.44643E+04  1.93314E+04  1.56572E+04  4.38710E+04
 -1.58294E+04  3.30432E+04 -2.51494E+04  1.95684E+03 -9.58279E+03 -2.77635E+04  2.08926E+04 -3.33283E+04
  4.06927E+04 -8.78969E+03  3.50305E+04  2.35124E+04  1.76927E+04  4.57980E+04 -7.79945E+03  4.93091E+04
 -3.09032E+04  3.31610E+04 -4.12012E+04  9.59528E+03 -4.19153E+04 -1.60280E+04 -2.31857E+04 -3.73437E+04
  7.08112E+03 -3.74396E+04  3.10990E+04 -1.41988E+04  2.87981E+04  1.09973E+04  3.88370E+03  1.87294E+04
 -1.36161E+04  8.04152E+03 -1.02457E+04 -7.55111E+03  5.87564E+03 -1.08003E+04  1.80460E+04  6.10876E+03
  1.32167E+04  2.19115E+04 -6.23091E+03  2.46218E+04 -2.20857E+04  1.08367E+04 -2.75943E+04 -5.07168E+03
 -1.99600E+04 -1.69936E+04 -7.99162E+03 -1.98391E+04  4.12039E+03 -1.88907E+04  1.52605E+04 -1.78237E+04
  2.52240E+04 -1.24992E+04  3.17492E+04  2.69299E+03  2.32472E+04  1.95280E+04  4.19873E+03  3.55065E+04
 -1.74639E+04  2.98383E+04 -2.75562E+04  1.04832E+04 -2.04301E+04 -9.92276E+03 -4.30159E+03 -1.36008E+04
  1.92430E+03 -3.13735E+03 -4.33613E+03  6.51238E+03 -1.56799E+04  5.55643E+03 -1.57318E+04 -6.63593E+03
 -1.00762E+04 -1.84268E+04  5.12464E+03 -2.22678E+04  1.48275E+04 -1.62351E+04  1.75608E+04 -1.84690E+03
  1.08187E+04  1.27753E+04 -1.16186E+03  1.87742E+04 -1.25544E+04  1.01744E+04 -1.84328E+04 -3.83262E+03
 -1.34771E+04 -1.64605E+04 -1.88574E+03 -2.21807E+04  9.91756E+03 -1.83878E+04  1.86302E+04 -8.85334E+03
  1.70957E+04  2.62527E+02  1.24073E+04  4.28419E+03  6.37881E+03  7.37373E+02  9.40136E+03 -1.51247E+03
  1.65602E+04  2.76585E+03  1.82947E+04  1.43849E+04  1.19154E+04  2.88462E+04 -2.76648E+03  3.27165E+04
 -1.90078E+04  2.59556E+04 -3.02192E+04  1.32303E+04 -3.16195E+04 -2.43068E+03 -2.66592E+04 -1.87003E+04
 -1.14497E+04 -2.59581E+04  9.16012E+03 -2.34920E+04  2.03633E+04 -1.24474E+04  1.84991E+04  5.00010E+03
  7.27589E+03  1.35301E+04 -8.77531E+03  1.17751E+04 -1.54634E+04  2.84703E+03 -1.21515E+04 -9.67080E+03
  1.40577E+02 -1.47606E+04  7.40863E+03 -1.09327E+04  9.75398E+03 -1.11021E+03  1.91813E+03  6.16765E+03
 -6.50403E+03  2.45886E+03 -5.19673E+03 -5.54256E+03 -2.02266E+02 -1.26469E+04  9.19333E+03 -1.33542E+04
  1.58311E+04 -7.14775E+03  1.64638E+04  3.18539E+03  1.45945E+04  1.24573E+04  6.87578E+03  1.88620E+04
 -3.19992E+03  2.07391E+04 -1.31575E+04  1.30352E+04 -1.45790E+04  3.23831E+03 -1.05268E+04 -3.18677E+03
 -5.14785E+03 -4.35465E+03 -6.63041E+02  1.08686E+03 -2.44119E+03  2.45481E+03 -4.57607E+03  4.34058E+03
 -1.02222E+04 -3.91110E+02 -1.05605E+04 -8.67554E+03 -4.15469E+03 -1.40682E+04  4.48255E+03 -1.06232E+04
  9.01481E+03 -4.61335E+03  6.56986E+03  2.79329E+03  2.42113E+02  4.02879E+03 -4.81705E+03 -2.13948E+01
 -4.87667E+03 -6.78470E+03 -1.30936E+03 -9.76827E+03  5.29652E+03 -1.02323E+04  1.32680E+04 -5.64831E+03
  1.53138E+04  8.10378E+02  1.12728E+04  8.87430E+03  2.41689E+03  1.17633E+04 -6.44924E+03  1.03008E+04
 -8.46033E+03  3.17242E+03 -4.03964E+03 -1.89770E+03  1.45996E+03 -2.58126E+03  5.75971E+03 -9.59914E+02
  5.30010E+03  4.38518E+03  1.20396E+03  7.93222E+03 -5.76368E+03  8.34331E+03 -1.00086E+04  2.08544E+03
 -6.56512E+03 -4.89471E+03  2.63036E+02 -8.70891E+03  5.07229E+03 -4.36906E+03  5.22002E+03  1.62735E+03
  1.09841E+03  5.29312E+03 -5.17724E+03  6.85784E+03 -7.39312E+03  3.19682E+03 -7.23130E+03 -2.20972E+03
 -4.31317E+03 -8.85944E+03  1.82744E+03 -1.05748E+04  8.92671E+03 -6.33317E+03  9.63754E+03  1.50731E+03
  6.17418E+03  7.75848E+03 -3.98024E+02  9.80302E+03 -7.06924E+03  5.31517E+03 -7.29400E+03 -6.21021E+02
 -7.16856E+03 -6.78316E+03 -1.83167E+03 -7.24669E+03  3.57741E+03 -6.24863E+03  4.25455E+03 -3.24281E+03
  3.21815E+03  5.41639E+02 -7.45831E+01  1.54738E+03  6.87375E+01 -1.16422E+03  5.70269E+02 -3.42386E+03
  5.96505E+03 -1.95770E+03  8.55218E+03  8.58282E+02  8.41114E+03  5.60639E+03  6.80982E+03  1.11995E+04
 -2.44608E+03  1.28133E+04 -1.10956E+04  9.73941E+03 -1.47751E+04  1.88316E+03 -1.14889E+04 -4.25437E+03
 -6.16416E+03 -9.52622E+03 -3.30586E+02 -7.95585E+03  2.95437E+03 -3.68678E+03  2.57930E+03 -2.77200E+03
  1.94860E+03 -1.93009E+03  2.77080E+03 -2.80099E+03  4.23348E+03 -1.76601E+03  4.91528E+03 -3.00489E+02
  6.24734E+03  1.58416E+03  2.66411E+03  5.34313E+03 -1.61631E+03  5.28121E+03 -6.41685E+03  4.31970E+03
 -7.80483E+03 -9.22543E+02 -3.76443E+03 -5.26751E+03  1.90199E+02 -7.63809E+03  4.52845E+03 -7.96525E+03
  8.48192E+03 -4.81519E+03  9.92486E+03  1.05017E+03  7.26171E+03  6.76461E+03  1.37139E+03  9.28407E+03
 -3.50170E+03  8.12580E+03 -5.34142E+03  2.75022E+03 -3.30761E+03 -1.11080E+03 -1.13266E+03 -1.23568E+03
 -6.48990E+02  5.73473E+02 -1.10663E+03  2.43544E+03 -3.25478E+03  1.42885E+03 -6.12600E+03 -6.62963E+02
 -2.79907E+03 -5.57729E+03  9.48434E+02 -7.30958E+03  4.53843E+03 -6.73875E+03  6.44401E+03 -2.01406E+03
  6.71648E+03  3.62522E+03  3.18568E+03  6.11397E+03 -1.22319E+03  7.01336E+03 -4.74624E+03  4.20500E+03
 -6.32748E+03  3.79859E+02 -5.33798E+03 -4.08508E+03 -5.14445E+02 -5.31746E+03  2.74506E+03 -4.09361E+03
  4.09112E+03 -2.07895E+03  2.91134E+03  8.60809E+02  8.76547E+02  2.48498E+03  1.27233E+03  9.71442E+02
  1.96136E+03  6.34033E+02  1.83434E+03  1.21198E+03  1.73441E+03  3.16025E+03  1.89693E+03  3.33549E+03
 -1.48114E+03  5.13524E+03 -4.62503E+03  5.93167E+03 -6.28976E+03  1.93659E+03 -6.89842E+03 -1.77338E+03
 -2.90941E+03 -6.35450E+03  1.03823E+03 -7.29311E+03  3.79097E+03 -4.54994E+03  5.11493E+03 -1.47184E+03
  4.58326E+03  2.57617E+03  5.28812E+02  3.39603E+03 -1.52849E+03  2.17612E+03 -2.15013E+03 -6.12276E+02
 -8.49880E+02 -2.93037E+03  1.49177E+03 -2.45666E+03  2.30376E+03 -1.80051E+03  2.26069E+03  7.95273E+02
  1.41627E+03  7.17920E+02  9.56231E+02  4.87280E+02 -6.60502E+02  8.29480E+02  1.87680E+03 -5.18798E+02
  1.00898E+03 -1.30877E+02  3.13082E+03  9.68759E+02  8.25277E+02  4.00101E+03 -4.08411E+02  4.75091E+03
 -2.98962E+03  2.18334E+03 -3.72585E+03  7.47986E+02 -3.15254E+03 -1.42123E+03 -5.10506E+02 -2.21404E+03
  3.80740E+02 -2.36917E+03  1.48199E+03 -1.27795E+03  1.45078E+03  1.42629E+03 -1.10825E+03  2.11610E+03
 -2.17839E+03  1.17061E+03 -2.58762E+03 -1.82877E+03 -1.44240E+03 -3.37058E+03  2.48922E+02 -3.12386E+03
  1.56244E+03 -1.89823E+03  1.77958E+03  1.84283E+02  1.93024E+03  5.07341E+02  6.20827E+02  1.83066E+03
 -7.92322E+02  3.85173E+02 -1.45114E+03 -7.68506E+02  7.57628E+02 -1.86182E+03  2.93096E+03 -2.06382E+03
  2.93231E+03  2.45479E+02  4.25495E+03  1.81865E+03  1.57920E+03  3.71373E+03 -9.71258E+02  3.27906E+03
 -2.62740E+03  1.22528E+03 -2.93249E+03 -6.99387E+02 -1.32581E+03 -2.60804E+03  5.27134E+02 -1.86375E+03
  2.39100E+03 -1.08031E+03  1.91312E+03  1.44532E+03  5.54388E+02  2.17456E+03  7.27419E+01  1.96898E+03
 -5.36071E+02  1.61959E+03 -7.86648E+02  7.60090E+02 -2.58299E+02  5.56416E+02 -9.83359E+02  9.93106E+02
 -1.01475E+03  1.58013E+03 -2.57423E+03  1.02027E+03 -3.47245E+03  2.04633E+02 -4.31016E+03 -2.17423E+03
 -2.08815E+03 -4.76129E+03  1.18553E+03 -5.51289E+03  2.70876E+03 -3.95322E+03  5.01625E+03 -1.58652E+03
  4.70042E+03  4.25199E+02  2.82098E+03  3.34129E+03 -3.57772E+02  2.95838E+03 -1.29523E+03  2.40438E+03
 -2.04263E+03  1.14764E+03 -1.06148E+03 -5.33907E+02 -6.99909E+02 -1.09201E+02 -5.53395E+02 -1.47197E+02
 -1.22470E+03 -1.45710E+02 -1.20015E+03 -2.72375E+02 -2.11547E+02 -1.04985E+03 -2.76987E+02 -1.29253E+03
  1.91529E+03 -1.28531E+03  1.58257E+03  1.86956E+02  2.30383E+03  1.87666E+03 -1.66213E+01  3.35398E+03
 -1.65268E+03  4.24827E+03 -3.41551E+03  2.38818E+03 -4.02505E+03 -3.96610E+02 -2.86875E+03 -2.30177E+03
 -1.57272E+03 -2.97112E+03  5.99212E+02 -2.64994E+03  1.96635E+03 -1.49252E+03  1.76332E+03  5.01757E+01
  1.01905E+03  1.07554E+03 -6.95192E+01  9.69761E+02 -9.45680E+02 -1.84291E+02 -4.56750E+01 -6.61274E+02
  9.90859E+02 -9.06836E+01  9.75680E+02  9.00523E+02  4.30092E+02  1.26848E+03  3.05342E+02  1.19652E+03
 -1.38308E+03  1.29757E+03 -1.91614E+03  4.74884E+01 -1.74673E+03 -1.31592E+03 -4.17529E+02 -2.37981E+03
  1.28059E+03 -2.02812E+03  1.73712E+03 -2.82013E+02  2.57579E+03  7.34592E+01  1.01847E+03  1.87158E+03
  6.58731E+02  1.80402E+03 -9.31732E+02  1.49015E+03 -1.44753E+03  1.10249E+03 -7.55475E+02  2.67486E+02
 -6.65764E+02 -2.29075E+02 -7.68256E+02 -9.08044E+00 -1.17730E+03  2.41508E+02 -1.48883E+03 -4.62941E+02
 -1.81008E+03 -4.34910E+02 -2.96298E+02 -1.88670E+03  1.44055E+03 -2.43692E+03  1.88951E+03 -8.10845E+02
  1.97820E+03  1.73803E+02  3.47028E+02  9.88042E+02 -2.12342E+02  1.95524E+03 -1.34557E+03  1.73072E+03
