 $NMID ID='MM_0lb_SNR800_10hz_g50_44.RAW', FMTDAT='(8E13.5)'
 TRAMP=1., VOLUME=1. $END
  3.10295E+05  6.57960E+01  3.38188E+05  2.50836E+05  8.48594E+04  3.38597E+05 -1.32669E+05  2.51814E+05
 -1.90683E+05  8.35249E+04 -1.12555E+05 -3.25061E+04  7.57032E+02 -5.05538E+04  5.37929E+04 -4.44095E+02
  3.53293E+04  5.28632E+04 -1.63912E+04  7.58291E+04 -6.13216E+04  6.45679E+04 -8.51507E+04  3.22546E+04
 -8.20906E+04 -1.14178E+04 -5.81628E+04 -5.18977E+04 -1.49954E+04 -7.04197E+04  2.80357E+04 -4.65628E+04
  4.09351E+04  3.66006E+03  1.68043E+04  4.86698E+04 -3.47429E+04  4.80647E+04 -6.79097E+04 -9.45035E+01
 -5.46418E+04 -5.74997E+04 -7.14316E+03 -7.87821E+04  3.48550E+04 -5.64337E+04  4.93643E+04 -1.83629E+04
  4.46150E+04  1.14764E+04  3.26225E+04  2.61101E+04  1.60247E+04  3.03766E+04 -5.96425E+03  2.76884E+04
 -2.25242E+04  1.22641E+04 -1.79678E+04 -5.44527E+03  6.94480E+03 -7.93959E+03  2.31715E+04  1.39714E+04
  7.01241E+03  3.71059E+04 -3.34983E+04  3.67230E+04 -6.55071E+04  2.40080E+03 -5.84133E+04 -4.40833E+04
 -1.26804E+04 -6.55518E+04  4.12575E+04 -4.70027E+04  6.07195E+04 -2.19302E+03  3.61013E+04  3.39172E+04
 -5.76851E+03  3.88416E+04 -3.10804E+04  1.84325E+04 -3.30569E+04 -3.77533E+03 -1.86507E+04 -1.17721E+04
 -9.09701E+03 -1.47677E+04 -5.81307E+02 -1.91448E+04  8.10367E+03 -2.33932E+04  1.56554E+04 -1.27951E+04
  1.05188E+04  5.40705E+03 -9.99223E+03  1.30438E+04 -2.24601E+04 -6.27059E+03 -8.36945E+03 -3.67346E+04
  2.50309E+04 -4.62618E+04  5.09443E+04 -2.03197E+04  4.78053E+04  2.02601E+04  1.68731E+04  4.59750E+04
 -1.68848E+04  3.55571E+04 -2.69998E+04  2.44242E+03 -1.13504E+04 -2.91389E+04  2.15847E+04 -3.62190E+04
  4.36751E+04 -1.07816E+04  3.90488E+04  2.48296E+04  2.02251E+04  5.00237E+04 -8.65418E+03  5.47564E+04
 -3.44989E+04  3.77053E+04 -4.67980E+04  1.07846E+04 -4.65323E+04 -1.81830E+04 -2.55735E+04 -4.14834E+04
  7.64053E+03 -4.14571E+04  3.37808E+04 -1.67289E+04  3.14768E+04  1.11127E+04  4.79078E+03  2.03906E+04
 -1.36931E+04  9.49522E+03 -1.08607E+04 -7.70935E+03  5.63303E+03 -1.14052E+04  1.85315E+04  5.53627E+03
  1.44775E+04  2.24607E+04 -5.36977E+03  2.62924E+04 -2.32762E+04  1.38976E+04 -3.06617E+04 -3.44729E+03
 -2.43439E+04 -1.83451E+04 -1.05907E+04 -2.40234E+04  4.38222E+03 -2.43363E+04  1.91726E+04 -2.21799E+04
  3.11293E+04 -1.36365E+04  3.72269E+04  4.56816E+03  2.61935E+04  2.35456E+04  4.09696E+03  4.05265E+04
 -1.92689E+04  3.32317E+04 -3.02190E+04  1.17979E+04 -2.19981E+04 -1.03016E+04 -4.54756E+03 -1.29702E+04
  8.12491E+02 -1.53221E+03 -6.76118E+03  8.38536E+03 -1.94710E+04  5.10363E+03 -1.89565E+04 -9.27576E+03
 -1.17247E+04 -2.28309E+04  6.13249E+03 -2.69343E+04  1.82174E+04 -1.90138E+04  2.16968E+04 -1.71511E+03
  1.38438E+04  1.54594E+04 -1.12783E+03  2.24913E+04 -1.57845E+04  1.32625E+04 -2.27845E+04 -5.06411E+03
 -1.64998E+04 -2.00209E+04 -1.62221E+03 -2.74161E+04  1.23126E+04 -2.25125E+04  2.21581E+04 -1.14917E+04
  2.14039E+04 -2.72346E+01  1.52584E+04  5.04748E+03  8.36781E+03  1.68324E+03  1.14776E+04 -1.81995E+03
  2.11446E+04  2.77972E+03  2.42592E+04  1.76194E+04  1.64864E+04  3.55876E+04 -2.30862E+03  4.23985E+04
 -2.43630E+04  3.50666E+04 -3.99900E+04  1.80397E+04 -4.21094E+04 -2.91322E+03 -3.41447E+04 -2.50742E+04
 -1.36898E+04 -3.52723E+04  1.24160E+04 -3.07262E+04  2.63708E+04 -1.47709E+04  2.32483E+04  7.38517E+03
  8.13116E+03  1.79752E+04 -1.09995E+04  1.49423E+04 -1.91630E+04  2.39358E+03 -1.46120E+04 -1.21189E+04
 -3.61475E+02 -1.85953E+04  1.00509E+04 -1.34393E+04  1.26783E+04 -1.24664E+03  2.79610E+03  8.09529E+03
 -8.26960E+03  3.95163E+03 -8.36238E+03 -6.55160E+03 -1.43119E+03 -1.70435E+04  1.12282E+04 -1.89372E+04
  2.15051E+04 -1.05432E+04  2.43092E+04  3.07480E+03  2.13125E+04  1.74072E+04  1.00206E+04  2.72587E+04
 -4.95668E+03  2.94084E+04 -1.86540E+04  1.81055E+04 -2.13404E+04  4.19957E+03 -1.43085E+04 -5.37187E+03
 -6.12697E+03 -6.74545E+03 -7.98153E+02  5.89880E+02 -3.07531E+03  3.42635E+03 -7.19021E+03  5.23554E+03
 -1.33818E+04 -7.27426E+02 -1.41345E+04 -1.12134E+04 -5.70722E+03 -1.83757E+04  5.89313E+03 -1.46629E+04
  1.24616E+04 -6.44802E+03  8.84569E+03  3.88542E+03 -3.19986E+02  5.70302E+03 -7.29298E+03  2.55018E+02
 -6.69313E+03 -9.90451E+03 -9.48568E+02 -1.44882E+04  8.66849E+03 -1.54034E+04  1.87151E+04 -8.06144E+03
  2.20149E+04  2.12177E+03  1.56521E+04  1.31403E+04  2.80555E+03  1.78682E+04 -8.93201E+03  1.46959E+04
 -1.22281E+04  4.19809E+03 -6.31185E+03 -3.19321E+03  2.20000E+03 -4.33067E+03  7.78529E+03 -1.18265E+03
  6.78355E+03  6.60108E+03  8.82802E+02  1.18252E+04 -8.45677E+03  1.15255E+04 -1.47485E+04  3.08013E+03
 -9.98919E+03 -7.84205E+03  1.87525E+02 -1.25665E+04  8.48286E+03 -6.19709E+03  8.70125E+03  3.04799E+03
  2.09937E+03  9.35137E+03 -8.02009E+03  1.07535E+04 -1.26295E+04  4.52230E+03 -1.26373E+04 -4.31594E+03
 -7.45275E+03 -1.45816E+04  3.69363E+03 -1.66685E+04  1.43750E+04 -1.00969E+04  1.53755E+04  2.97971E+03
  9.31165E+03  1.23884E+04 -1.09304E+03  1.48740E+04 -1.05300E+04  8.18808E+03 -1.16800E+04 -1.28707E+03
 -1.00547E+04 -9.98212E+03 -1.64305E+03 -1.06292E+04  5.82137E+03 -9.19837E+03  7.02604E+03 -3.64913E+03
  4.80890E+03  1.52618E+03 -7.22089E+02  2.00346E+03 -1.98192E+02 -3.16256E+03  2.55190E+03 -6.84485E+03
  1.00355E+04 -4.19426E+03  1.42227E+04  1.70135E+03  1.43084E+04  9.91424E+03  9.53897E+03  1.89662E+04
 -4.25289E+03  2.15265E+04 -1.82867E+04  1.59801E+04 -2.36371E+04  2.92089E+03 -1.93469E+04 -8.30936E+03
 -9.52108E+03 -1.53236E+04 -5.49892E+02 -1.32612E+04  4.66272E+03 -7.41892E+03  4.46208E+03 -4.55196E+03
  3.89250E+03 -3.26081E+03  3.67567E+03 -3.56576E+03  5.67681E+03 -3.22637E+03  7.57112E+03 -1.33095E+03
  1.01901E+04  2.24074E+03  5.11875E+03  8.41864E+03 -2.25490E+03  1.01327E+04 -1.04248E+04  7.53836E+03
 -1.31528E+04 -1.35237E+03 -8.41712E+03 -8.87607E+03 -6.91191E+02 -1.45107E+04  8.00645E+03 -1.41580E+04
  1.48249E+04 -7.90793E+03  1.76656E+04  2.19760E+03  1.21235E+04  1.24184E+04  1.48541E+03  1.59968E+04
 -6.71656E+03  1.31582E+04 -9.38296E+03  4.53188E+03 -6.45062E+03 -1.85853E+03 -2.47232E+03 -2.05404E+03
 -7.09532E+02 -2.53902E+02 -2.18289E+03  2.79002E+03 -5.53404E+03  2.03753E+03 -9.36886E+03 -1.48440E+03
 -6.10054E+03 -8.88603E+03  9.14172E+01 -1.29204E+04  8.22135E+03 -1.22585E+04  1.32070E+04 -3.96860E+03
  1.34855E+04  6.02020E+03  5.82788E+03  1.16571E+04 -2.31665E+03  1.36104E+04 -8.99762E+03  8.56857E+03
 -1.26536E+04  6.64994E+02 -9.45214E+03 -7.55940E+03 -1.14416E+03 -1.06797E+04  5.69955E+03 -8.00497E+03
  8.10265E+03 -2.60643E+03  5.67774E+03  1.89128E+03  1.86722E+03  4.23321E+03  1.35715E+03  1.38680E+03
  2.21448E+03  5.62156E+02  3.52568E+03  1.76902E+03  3.99986E+03  4.76058E+03  3.18600E+03  6.71749E+03
 -2.90532E+03  1.05659E+04 -8.74487E+03  1.08593E+04 -1.36338E+04  2.77538E+03 -1.38043E+04 -5.09649E+03
 -6.38804E+03 -1.34041E+04  1.70337E+03 -1.47254E+04  8.11874E+03 -9.83526E+03  1.11471E+04 -2.55904E+03
  8.62418E+03  4.75506E+03  1.91791E+03  7.52301E+03 -3.33240E+03  5.13870E+03 -5.01566E+03 -5.44056E+02
 -2.90031E+03 -5.68349E+03  3.16306E+03 -5.97703E+03  5.78545E+03 -2.90345E+03  5.58841E+03  9.28134E+02
  2.80732E+03  2.56698E+03  1.48550E+03  2.04977E+03 -9.75216E+02  1.94801E+03  1.76325E+03 -6.03745E+02
  2.14890E+03 -8.50108E+02  5.20718E+03  2.16923E+03  3.01488E+03  7.15748E+03 -1.18103E+03  9.09620E+03
 -6.17784E+03  6.17514E+03 -8.41183E+03  1.38490E+03 -7.79580E+03 -2.92452E+03 -2.85863E+03 -5.52600E+03
  8.43032E+02 -4.63104E+03  3.25196E+03 -2.21709E+03  2.90225E+03  2.33256E+03 -1.12925E+03  4.34092E+03
 -5.44136E+03  3.04719E+03 -5.95633E+03 -3.39070E+03 -3.89251E+03 -7.14228E+03  1.15241E+03 -7.35752E+03
  4.37980E+03 -4.21449E+03  4.93429E+03 -8.41366E+02  4.34389E+03  2.00551E+03  7.26651E+02  4.13154E+03
 -2.63804E+03  1.32398E+03 -3.24868E+03 -2.27453E+03  1.42067E+03 -5.91981E+03  6.74152E+03 -4.31923E+03
  7.98472E+03  9.04272E+02  8.03365E+03  5.72338E+03  2.55661E+03  8.65914E+03 -2.58137E+03  8.43881E+03
 -7.21279E+03  3.71242E+03 -7.20906E+03 -1.18520E+03 -4.00924E+03 -5.60253E+03  1.42797E+03 -5.36934E+03
  5.47806E+03 -2.63832E+03  4.50929E+03  1.92649E+03  1.58215E+03  4.80101E+03 -7.73042E+02  4.14654E+03
 -2.21221E+03  2.81764E+03 -2.13216E+03  8.06752E+02 -1.12557E+03  9.43621E+02 -1.47563E+03  1.96654E+03
 -2.40414E+03  3.20480E+03 -5.75020E+03  2.97605E+03 -8.75393E+03  9.75605E+01 -9.78785E+03 -5.68809E+03
 -5.06708E+03 -1.12992E+04  2.36363E+03 -1.32565E+04  7.72375E+03 -1.00623E+04  1.25720E+04 -3.73057E+03
  1.14035E+04  2.13406E+03  7.04790E+03  7.88966E+03  4.26566E+02  8.84823E+03 -3.35851E+03  6.70940E+03
 -4.92568E+03  2.55432E+03 -3.20314E+03 -9.33849E+02 -1.20224E+03 -7.05254E+02 -4.20529E+02  1.34083E+02
 -1.85941E+03  3.07693E+02 -2.26728E+03 -3.67355E+01 -6.93175E+02 -2.28311E+03  1.19223E+02 -3.28475E+03
  4.33315E+03 -2.60384E+03  4.99548E+03 -1.42471E+01  6.23725E+03  4.58974E+03  1.11414E+03  8.82521E+03
 -4.22415E+03  1.04599E+04 -9.05301E+03  6.06955E+03 -1.10897E+04 -8.56606E+02 -7.38205E+03 -6.57176E+03
 -3.64804E+03 -8.66947E+03  2.24862E+03 -8.07973E+03  5.41321E+03 -4.36225E+03  5.83059E+03  5.89228E+02
  3.11331E+03  2.57540E+03 -2.26867E+02  2.42471E+03 -2.00330E+03 -4.87075E+02 -1.48534E+02 -2.28932E+03
  2.86724E+03 -9.25022E+02  3.13330E+03  1.33708E+03  2.27138E+03  3.16115E+03  2.28840E+02  4.45168E+03
 -3.86069E+03  4.17811E+03 -5.67268E+03  3.11796E+02 -5.12147E+03 -3.78672E+03 -1.05519E+03 -6.90679E+03
  4.37657E+03 -6.08570E+03  6.51095E+03 -1.77396E+03  6.42841E+03  1.27608E+03  4.06980E+03  5.15646E+03
  8.05153E+02  5.18621E+03 -2.28879E+03  4.56563E+03 -3.35810E+03  2.31875E+03 -3.14873E+03  3.56497E+02
 -1.40565E+03 -4.33921E+02 -1.82150E+03  8.63976E+02 -2.73872E+03  9.07040E+02 -4.49484E+03 -7.87478E+02
 -4.47831E+03 -2.92729E+03 -1.27162E+03 -5.81265E+03  2.55483E+03 -6.61896E+03  5.08850E+03 -2.59530E+03
  5.65320E+03  8.66680E+02  2.89922E+03  3.78241E+03 -4.60424E+02  5.65768E+03 -3.95050E+03  3.46500E+03
