 $NMID ID='MM_0lb_SNR800_11hz_g55_2.RAW', FMTDAT='(8E13.5)'
 TRAMP=1., VOLUME=1. $END
  3.09824E+05  6.44001E+02  3.37662E+05  2.50766E+05  8.49980E+04  3.38758E+05 -1.32861E+05  2.51918E+05
 -1.90881E+05  8.38962E+04 -1.12315E+05 -3.28333E+04  8.59858E+02 -5.05404E+04  5.37375E+04 -3.61540E+01
  3.52450E+04  5.28347E+04 -1.62279E+04  7.57929E+04 -6.11680E+04  6.42323E+04 -8.50119E+04  3.22751E+04
 -8.18149E+04 -1.12798E+04 -5.81148E+04 -5.21432E+04 -1.49494E+04 -7.08294E+04  2.76901E+04 -4.59889E+04
  4.10725E+04  3.52359E+03  1.66683E+04  4.79919E+04 -3.47992E+04  4.80360E+04 -6.77287E+04  2.62902E+01
 -5.43791E+04 -5.76293E+04 -7.49244E+03 -7.84042E+04  3.49736E+04 -5.67408E+04  4.93281E+04 -1.82879E+04
  4.45986E+04  1.12130E+04  3.24466E+04  2.63656E+04  1.61182E+04  3.04202E+04 -5.81278E+03  2.75286E+04
 -2.23881E+04  1.24141E+04 -1.83159E+04 -5.52383E+03  6.87978E+03 -7.08850E+03  2.30166E+04  1.33573E+04
  7.12824E+03  3.68563E+04 -3.32653E+04  3.65524E+04 -6.53347E+04  2.19743E+03 -5.81847E+04 -4.45042E+04
 -1.25992E+04 -6.51524E+04  4.10285E+04 -4.67577E+04  6.03789E+04 -2.41750E+03  3.63038E+04  3.40292E+04
 -5.91024E+03  3.88284E+04 -3.08425E+04  1.82927E+04 -3.23874E+04 -4.12611E+03 -1.86098E+04 -1.15530E+04
 -8.91909E+03 -1.47512E+04 -5.40639E+02 -1.93224E+04  8.37799E+03 -2.35306E+04  1.60254E+04 -1.27003E+04
  1.08777E+04  5.81260E+03 -9.99600E+03  1.28106E+04 -2.26841E+04 -6.63014E+03 -8.67012E+03 -3.63932E+04
  2.45177E+04 -4.59406E+04  5.10733E+04 -2.08623E+04  4.78986E+04  2.01152E+04  1.65514E+04  4.59397E+04
 -1.62711E+04  3.51500E+04 -2.65419E+04  2.57855E+03 -1.09204E+04 -2.86756E+04  2.14910E+04 -3.62985E+04
  4.33567E+04 -1.04843E+04  3.90969E+04  2.48389E+04  2.05989E+04  4.99103E+04 -8.29327E+03  5.46948E+04
 -3.47414E+04  3.72584E+04 -4.61635E+04  1.04658E+04 -4.61404E+04 -1.84809E+04 -2.57232E+04 -4.08247E+04
  7.60972E+03 -4.05250E+04  3.33783E+04 -1.65416E+04  3.12174E+04  1.11566E+04  5.07974E+03  2.02335E+04
 -1.39858E+04  9.40724E+03 -1.08293E+04 -7.63025E+03  5.36062E+03 -1.12556E+04  1.84074E+04  5.52340E+03
  1.44997E+04  2.25337E+04 -5.52881E+03  2.65068E+04 -2.26957E+04  1.33273E+04 -3.06157E+04 -3.25484E+03
 -2.35525E+04 -1.81524E+04 -1.03976E+04 -2.37506E+04  4.43305E+03 -2.36542E+04  1.86946E+04 -2.16833E+04
  3.07249E+04 -1.41181E+04  3.64199E+04  3.99929E+03  2.61969E+04  2.31444E+04  3.98728E+03  4.00410E+04
 -1.93653E+04  3.29322E+04 -2.97062E+04  1.12193E+04 -2.21666E+04 -1.00370E+04 -4.65725E+03 -1.30820E+04
  1.47965E+03 -1.50574E+03 -6.78585E+03  7.94576E+03 -1.89133E+04  5.37093E+03 -1.90635E+04 -8.60169E+03
 -1.12010E+04 -2.21258E+04  5.50110E+03 -2.62828E+04  1.79905E+04 -1.87031E+04  2.10568E+04 -1.39664E+03
  1.35521E+04  1.55122E+04 -8.52368E+02  2.20070E+04 -1.58842E+04  1.25610E+04 -2.19426E+04 -4.38607E+03
 -1.67267E+04 -1.99982E+04 -1.82395E+03 -2.65288E+04  1.16789E+04 -2.20242E+04  2.20535E+04 -1.10999E+04
  2.06581E+04 -7.08741E+01  1.46113E+04  4.88670E+03  8.38547E+03  1.22296E+03  1.16013E+04 -1.95693E+03
  2.06033E+04  3.01868E+03  2.33212E+04  1.73107E+04  1.60485E+04  3.56635E+04 -2.92234E+03  4.10869E+04
 -2.36699E+04  3.40857E+04 -3.86290E+04  1.76017E+04 -4.11702E+04 -3.16429E+03 -3.38450E+04 -2.37144E+04
 -1.34543E+04 -3.44917E+04  1.18119E+04 -3.04059E+04  2.56951E+04 -1.45169E+04  2.24999E+04  7.01228E+03
  7.71463E+03  1.72986E+04 -1.07001E+04  1.48770E+04 -1.89795E+04  2.66304E+03 -1.43043E+04 -1.19882E+04
 -5.06799E+02 -1.80708E+04  9.59499E+03 -1.36438E+04  1.22311E+04 -1.11046E+03  2.88096E+03  7.91058E+03
 -8.13664E+03  3.74628E+03 -8.25164E+03 -6.76601E+03 -1.31147E+03 -1.68321E+04  1.11077E+04 -1.81670E+04
  2.08695E+04 -9.70868E+03  2.33401E+04  3.54064E+03  2.02323E+04  1.72466E+04  9.77469E+03  2.58257E+04
 -4.73631E+03  2.83228E+04 -1.83071E+04  1.75695E+04 -2.05517E+04  3.68493E+03 -1.41110E+04 -4.81084E+03
 -6.25994E+03 -6.09593E+03 -9.46438E+02  5.61511E+02 -2.78004E+03  3.15221E+03 -6.88005E+03  4.64073E+03
 -1.27957E+04 -8.42982E+02 -1.42467E+04 -1.09096E+04 -5.47878E+03 -1.78072E+04  6.16380E+03 -1.40967E+04
  1.15263E+04 -6.48966E+03  8.36003E+03  3.94944E+03  3.57486E+01  5.71922E+03 -6.55789E+03 -5.75423E+01
 -6.90150E+03 -8.93136E+03 -1.12794E+03 -1.39950E+04  8.31790E+03 -1.46393E+04  1.78572E+04 -7.89928E+03
  2.10697E+04  1.89572E+03  1.55876E+04  1.26353E+04  2.90300E+03  1.69684E+04 -8.72935E+03  1.42270E+04
 -1.14020E+04  4.09197E+03 -5.85074E+03 -2.78101E+03  2.04075E+03 -3.76102E+03  7.60220E+03 -9.19077E+02
  6.93481E+03  6.23388E+03  1.00579E+03  1.13760E+04 -8.17625E+03  1.06108E+04 -1.39410E+04  2.61798E+03
 -9.65870E+03 -7.16511E+03  2.97193E+02 -1.19874E+04  7.22302E+03 -5.87391E+03  8.15023E+03  3.16634E+03
  1.57881E+03  8.69721E+03 -6.96096E+03  1.01519E+04 -1.21164E+04  4.48792E+03 -1.20808E+04 -4.32371E+03
 -6.72315E+03 -1.37282E+04  3.31587E+03 -1.58994E+04  1.31847E+04 -9.54140E+03  1.43386E+04  2.71637E+03
  8.72083E+03  1.13358E+04 -1.20035E+03  1.37955E+04 -1.01450E+04  7.19141E+03 -1.10930E+04 -1.32228E+03
 -9.67337E+03 -9.40873E+03 -1.65628E+03 -1.04359E+04  5.13113E+03 -8.55765E+03  6.62033E+03 -3.27987E+03
  4.46414E+03  1.72742E+03 -8.12887E+02  1.71561E+03 -3.77987E+02 -2.55627E+03  2.20565E+03 -6.53669E+03
  9.49430E+03 -3.87910E+03  1.40191E+04  1.56313E+03  1.32209E+04  9.24233E+03  9.30942E+03  1.79703E+04
 -3.58144E+03  2.03255E+04 -1.67303E+04  1.51000E+04 -2.22991E+04  2.64145E+03 -1.81264E+04 -7.53694E+03
 -9.13657E+03 -1.44665E+04 -4.90585E+02 -1.22559E+04  3.90318E+03 -7.35887E+03  4.49228E+03 -4.28302E+03
  3.40985E+03 -3.28396E+03  3.95451E+03 -3.71482E+03  5.42324E+03 -2.89307E+03  7.24900E+03 -1.03513E+03
  9.00511E+03  2.27305E+03  4.65378E+03  8.16763E+03 -1.98351E+03  9.54425E+03 -1.00219E+04  7.15157E+03
 -1.24725E+04 -1.43977E+03 -7.54896E+03 -8.84623E+03 -1.09299E+03 -1.31129E+04  7.56040E+03 -1.31251E+04
  1.40613E+04 -7.57733E+03  1.64764E+04  2.17590E+03  1.11373E+04  1.14636E+04  1.97103E+03  1.47792E+04
 -6.33602E+03  1.22520E+04 -8.55521E+03  4.58458E+03 -6.10480E+03 -1.21724E+03 -2.72670E+03 -2.01350E+03
 -1.12074E+03 -4.07036E+01 -1.96882E+03  2.85425E+03 -5.46969E+03  2.19226E+03 -8.83651E+03 -9.31093E+02
 -5.71780E+03 -8.96820E+03  1.03873E+02 -1.19531E+04  7.75850E+03 -1.11984E+04  1.19260E+04 -3.58390E+03
  1.18701E+04  6.00669E+03  5.11126E+03  1.05991E+04 -2.34008E+03  1.20773E+04 -9.09519E+03  7.84502E+03
 -1.10467E+04  1.40182E+02 -8.73132E+03 -7.09906E+03 -9.75396E+02 -1.02822E+04  5.27841E+03 -7.75218E+03
  7.72992E+03 -2.54716E+03  5.27303E+03  1.73775E+03  1.98026E+03  3.77798E+03  9.59534E+02  1.70849E+03
  2.17487E+03  1.10403E+03  2.78825E+03  1.75702E+03  3.45657E+03  4.89228E+03  3.42893E+03  6.13318E+03
 -2.51965E+03  9.60092E+03 -8.26842E+03  9.44807E+03 -1.22287E+04  2.24250E+03 -1.27449E+04 -4.77904E+03
 -5.90894E+03 -1.20696E+04  2.12628E+03 -1.33089E+04  7.26294E+03 -8.04641E+03  9.76982E+03 -2.05750E+03
  7.57608E+03  4.67790E+03  1.79778E+03  6.77359E+03 -3.36817E+03  4.48801E+03 -4.50877E+03 -8.19177E+02
 -2.54179E+03 -5.07121E+03  2.69148E+03 -5.21179E+03  5.22738E+03 -2.62243E+03  4.87837E+03  1.13209E+03
  2.86589E+03  2.16646E+03  1.45985E+03  2.25326E+03 -4.16590E+02  2.01315E+03  1.47961E+03 -7.31020E+02
  1.93403E+03 -1.12839E+03  5.02703E+03  2.34831E+03  2.76276E+03  6.37349E+03 -1.24164E+03  8.70241E+03
 -5.87035E+03  5.49804E+03 -7.15014E+03  1.35404E+03 -7.02788E+03 -2.67287E+03 -2.54317E+03 -4.45354E+03
  6.91979E+02 -4.49732E+03  2.88294E+03 -1.87748E+03  2.57423E+03  2.85480E+03 -1.11743E+03  3.91140E+03
 -4.98129E+03  2.37173E+03 -5.33230E+03 -2.94646E+03 -3.15911E+03 -6.56284E+03  7.19940E+02 -6.48353E+03
  3.53083E+03 -3.83031E+03  4.30994E+03 -6.65518E+02  4.22645E+03  1.58193E+03  8.28853E+02  3.48677E+03
 -2.51250E+03  9.28548E+02 -2.86560E+03 -2.35028E+03  1.42094E+03 -5.00764E+03  5.77386E+03 -3.76192E+03
  7.08741E+03  7.93468E+02  7.13672E+03  4.75046E+03  2.18044E+03  7.66011E+03 -2.67160E+03  7.18566E+03
 -6.20977E+03  3.04423E+03 -6.37264E+03 -9.44921E+02 -3.46180E+03 -4.78087E+03  1.30859E+03 -4.48369E+03
  4.74711E+03 -2.20528E+03  4.00330E+03  2.18405E+03  1.13261E+03  4.26549E+03 -4.98674E+02  3.80849E+03
 -2.25760E+03  2.84519E+03 -1.88778E+03  1.23084E+03 -7.37157E+02  6.03399E+02 -1.05731E+03  1.87115E+03
 -1.46404E+03  3.34978E+03 -5.07856E+03  2.43274E+03 -7.51790E+03 -1.88444E+01 -8.52667E+03 -4.95257E+03
 -4.10780E+03 -9.84923E+03  1.86231E+03 -1.19565E+04  6.58249E+03 -8.83647E+03  1.07233E+04 -3.47046E+03
  1.02762E+04  1.76530E+03  6.09340E+03  6.69404E+03  5.10725E+02  7.62868E+03 -3.09375E+03  5.92041E+03
 -4.41481E+03  1.97586E+03 -2.66280E+03 -7.82055E+02 -1.03831E+03 -7.05534E+02 -1.18401E+03  1.07114E+01
 -1.64958E+03  2.08729E+02 -2.13538E+03 -5.68959E+02 -5.56410E+02 -1.75953E+03 -6.12546E+01 -3.03501E+03
  3.48556E+03 -2.53062E+03  4.29439E+03  1.39764E+02  5.04831E+03  4.25617E+03  1.49836E+03  7.22640E+03
 -3.65704E+03  8.66361E+03 -8.18446E+03  5.21464E+03 -8.82146E+03 -3.05156E+02 -6.54737E+03 -5.35633E+03
 -3.30303E+03 -7.41914E+03  1.95679E+03 -6.93332E+03  4.71004E+03 -3.82511E+03  5.08631E+03  2.29454E+02
  2.86304E+03  2.52627E+03 -2.81566E+02  2.32630E+03 -1.62267E+03 -1.32781E+02 -1.10616E+02 -1.80276E+03
  2.20411E+03 -1.04809E+03  2.87394E+03  1.26110E+03  1.94473E+03  2.50702E+03  9.54830E+01  3.53287E+03
 -3.33516E+03  3.34670E+03 -4.84929E+03  3.15024E+02 -4.56388E+03 -3.79110E+03 -6.65554E+02 -6.14822E+03
  3.48548E+03 -4.84419E+03  5.52284E+03 -1.69305E+03  5.07252E+03  1.22947E+03  3.00860E+03  4.33860E+03
  7.52762E+02  4.92526E+03 -1.80532E+03  4.13345E+03 -2.97727E+03  2.05321E+03 -2.51484E+03  3.56533E+02
 -1.14533E+03 -1.73367E+02 -1.87279E+03  7.39630E+02 -2.43325E+03  6.84139E+02 -3.39025E+03 -7.28255E+02
 -3.40357E+03 -2.03476E+03 -1.30548E+03 -5.08110E+03  2.26052E+03 -5.02421E+03  4.51083E+03 -2.31472E+03
  4.94783E+03  5.76604E+02  2.23401E+03  3.36637E+03 -5.43810E+02  4.92543E+03 -3.90480E+03  2.87710E+03
