 $NMID ID='MM_0lb_SNR800_11hz_g50_67.RAW', FMTDAT='(8E13.5)'
 TRAMP=1., VOLUME=1. $END
  3.10090E+05  1.63892E+02  3.37447E+05  2.50584E+05  8.47126E+04  3.38383E+05 -1.32458E+05  2.51284E+05
 -1.90811E+05  8.35152E+04 -1.12319E+05 -3.24067E+04  5.54931E+02 -5.08878E+04  5.38263E+04 -3.22712E+02
  3.56363E+04  5.28424E+04 -1.63788E+04  7.55391E+04 -6.11215E+04  6.43612E+04 -8.52137E+04  3.23963E+04
 -8.13839E+04 -1.18663E+04 -5.74397E+04 -5.16486E+04 -1.49884E+04 -7.04492E+04  2.76247E+04 -4.64983E+04
  4.07994E+04  4.01884E+03  1.66054E+04  4.85457E+04 -3.46045E+04  4.76004E+04 -6.75890E+04 -1.11622E+01
 -5.45013E+04 -5.72457E+04 -7.26123E+03 -7.82504E+04  3.46031E+04 -5.63269E+04  4.89893E+04 -1.77960E+04
  4.45648E+04  1.12159E+04  3.26070E+04  2.61021E+04  1.53550E+04  3.00610E+04 -5.34594E+03  2.74200E+04
 -2.23358E+04  1.22252E+04 -1.82225E+04 -5.19953E+03  6.70420E+03 -7.72728E+03  2.28669E+04  1.31590E+04
  7.15408E+03  3.68087E+04 -3.30157E+04  3.62577E+04 -6.52396E+04  1.99785E+03 -5.81546E+04 -4.38957E+04
 -1.23437E+04 -6.47991E+04  4.07992E+04 -4.70465E+04  6.03401E+04 -2.42658E+03  3.61702E+04  3.38289E+04
 -5.56418E+03  3.82150E+04 -3.08730E+04  1.77647E+04 -3.23362E+04 -3.81661E+03 -1.80995E+04 -1.16084E+04
 -8.99612E+03 -1.40271E+04 -5.75155E+02 -1.90926E+04  8.10886E+03 -2.34703E+04  1.61741E+04 -1.29525E+04
  1.08425E+04  5.77871E+03 -9.52396E+03  1.27884E+04 -2.27743E+04 -5.97300E+03 -8.59020E+03 -3.59516E+04
  2.42817E+04 -4.58331E+04  5.04956E+04 -2.06149E+04  4.70726E+04  2.04012E+04  1.65845E+04  4.57326E+04
 -1.66519E+04  3.48053E+04 -2.68667E+04  2.30206E+03 -1.09449E+04 -2.86388E+04  2.13300E+04 -3.54253E+04
  4.31463E+04 -1.01768E+04  3.84336E+04  2.43866E+04  2.02819E+04  4.88306E+04 -7.91117E+03  5.35537E+04
 -3.37284E+04  3.66215E+04 -4.52479E+04  1.06855E+04 -4.57047E+04 -1.78499E+04 -2.57451E+04 -4.04669E+04
  7.82067E+03 -4.02200E+04  3.31282E+04 -1.57809E+04  3.10459E+04  1.08519E+04  5.03660E+03  2.01426E+04
 -1.40692E+04  9.31146E+03 -1.09210E+04 -7.71138E+03  5.57769E+03 -1.11973E+04  1.84268E+04  5.70679E+03
  1.44669E+04  2.22742E+04 -5.44368E+03  2.62517E+04 -2.32022E+04  1.31320E+04 -3.02210E+04 -3.78066E+03
 -2.33650E+04 -1.73774E+04 -1.04366E+04 -2.32758E+04  4.13015E+03 -2.33810E+04  1.84715E+04 -2.12037E+04
  2.95743E+04 -1.39835E+04  3.57860E+04  4.04555E+03  2.55880E+04  2.25830E+04  4.43900E+03  3.94281E+04
 -1.89210E+04  3.27927E+04 -2.99550E+04  1.16122E+04 -2.16019E+04 -1.02984E+04 -4.87608E+03 -1.31216E+04
  1.31356E+03 -1.75855E+03 -6.72622E+03  7.53100E+03 -1.89818E+04  5.02940E+03 -1.86265E+04 -8.27814E+03
 -1.10568E+04 -2.16394E+04  5.54113E+03 -2.58043E+04  1.70595E+04 -1.83204E+04  2.07745E+04 -1.77402E+03
  1.33302E+04  1.50638E+04 -9.59381E+02  2.15140E+04 -1.50965E+04  1.21253E+04 -2.19440E+04 -4.29774E+03
 -1.59430E+04 -1.95620E+04 -1.86005E+03 -2.56264E+04  1.15351E+04 -2.13414E+04  2.13918E+04 -1.12070E+04
  2.02014E+04 -2.31495E+02  1.46841E+04  4.92206E+03  7.84681E+03  1.14086E+03  1.09423E+04 -2.23796E+03
  2.00702E+04  3.06035E+03  2.32896E+04  1.71057E+04  1.52807E+04  3.45104E+04 -2.67735E+03  4.00221E+04
 -2.32630E+04  3.29214E+04 -3.77590E+04  1.72481E+04 -4.01888E+04 -2.85439E+03 -3.23126E+04 -2.33292E+04
 -1.32410E+04 -3.31542E+04  1.18397E+04 -2.94174E+04  2.48790E+04 -1.41327E+04  2.22393E+04  6.71747E+03
  7.76741E+03  1.68874E+04 -1.07284E+04  1.43678E+04 -1.84073E+04  2.75508E+03 -1.39065E+04 -1.14676E+04
 -6.80675E+02 -1.76188E+04  9.21335E+03 -1.31674E+04  1.22888E+04 -1.55924E+03  2.67252E+03  7.73808E+03
 -8.14551E+03  3.56691E+03 -7.56683E+03 -6.35496E+03 -1.16487E+03 -1.60506E+04  1.07667E+04 -1.72520E+04
  1.99030E+04 -9.77930E+03  2.23878E+04  3.41388E+03  1.97014E+04  1.60786E+04  9.39429E+03  2.54888E+04
 -4.25268E+03  2.74461E+04 -1.78213E+04  1.69566E+04 -1.97544E+04  3.39051E+03 -1.37309E+04 -5.10279E+03
 -5.84036E+03 -6.46517E+03 -3.41667E+02  4.33817E+02 -2.89572E+03  2.98244E+03 -6.98524E+03  4.85508E+03
 -1.24759E+04 -9.94589E+02 -1.32392E+04 -1.07469E+04 -5.36535E+03 -1.72109E+04  5.71414E+03 -1.39441E+04
  1.16085E+04 -5.93062E+03  8.09860E+03  3.60847E+03  3.04478E+02  5.14132E+03 -6.85668E+03 -1.12415E+02
 -6.38453E+03 -8.87151E+03 -1.09829E+03 -1.34711E+04  7.81715E+03 -1.46349E+04  1.73923E+04 -7.82910E+03
  2.05419E+04  2.10359E+03  1.49428E+04  1.24243E+04  2.64044E+03  1.64586E+04 -8.41861E+03  1.36362E+04
 -1.12173E+04  3.68922E+03 -5.70119E+03 -3.26416E+03  2.32502E+03 -3.83062E+03  7.27034E+03 -1.11844E+03
  6.35147E+03  6.07289E+03  1.26513E+03  1.10897E+04 -7.87995E+03  1.07693E+04 -1.33856E+04  2.92529E+03
 -9.13347E+03 -7.14372E+03  6.06091E+02 -1.16775E+04  7.54667E+03 -6.04493E+03  7.85729E+03  2.61748E+03
  1.84559E+03  8.22097E+03 -7.19877E+03  9.61864E+03 -1.11858E+04  4.35780E+03 -1.13793E+04 -4.16316E+03
 -6.65369E+03 -1.29099E+04  3.42704E+03 -1.49586E+04  1.31905E+04 -9.17408E+03  1.38025E+04  2.20161E+03
  8.51330E+03  1.09084E+04 -1.31217E+03  1.36511E+04 -9.78488E+03  7.53044E+03 -1.06811E+04 -9.36353E+02
 -9.22710E+03 -9.02909E+03 -1.71051E+03 -1.00998E+04  5.24700E+03 -8.54296E+03  6.23180E+03 -3.81965E+03
  4.31615E+03  1.46441E+03 -7.47450E+02  1.96179E+03 -5.14843E+02 -2.53772E+03  1.79964E+03 -5.78943E+03
  9.19990E+03 -3.90301E+03  1.30798E+04  1.39650E+03  1.29033E+04  8.80730E+03  8.80956E+03  1.69162E+04
 -4.08569E+03  1.96654E+04 -1.66508E+04  1.50701E+04 -2.15728E+04  2.46194E+03 -1.71245E+04 -7.24245E+03
 -8.80313E+03 -1.39233E+04 -4.80423E+02 -1.17370E+04  4.16740E+03 -6.65598E+03  4.30927E+03 -4.41255E+03
  2.92163E+03 -2.62736E+03  3.26292E+03 -3.54035E+03  4.86435E+03 -2.86356E+03  6.73858E+03 -7.37115E+02
  8.93571E+03  1.80686E+03  4.59506E+03  7.50494E+03 -2.31219E+03  9.19901E+03 -9.48638E+03  6.93470E+03
 -1.17513E+04 -1.67484E+03 -7.34043E+03 -8.11222E+03 -6.48556E+02 -1.27259E+04  6.99409E+03 -1.30852E+04
  1.35057E+04 -7.22041E+03  1.60198E+04  2.01253E+03  1.10042E+04  1.08977E+04  2.03085E+03  1.40917E+04
 -5.72838E+03  1.20054E+04 -8.34962E+03  3.68482E+03 -5.95730E+03 -1.58621E+03 -2.20203E+03 -1.87737E+03
 -1.19096E+03  6.29640E+01 -2.19246E+03  2.86196E+03 -4.92558E+03  2.03870E+03 -8.42340E+03 -8.01981E+02
 -5.49466E+03 -8.88917E+03  2.23793E+02 -1.17028E+04  7.07948E+03 -1.10246E+04  1.16632E+04 -3.69593E+03
  1.16255E+04  5.65181E+03  5.48810E+03  1.05766E+04 -2.27370E+03  1.16860E+04 -8.12232E+03  7.29531E+03
 -1.08847E+04  5.79956E+02 -8.65361E+03 -7.12360E+03 -1.06331E+03 -9.57911E+03  5.10166E+03 -7.07326E+03
  7.15071E+03 -2.75346E+03  5.05242E+03  1.84378E+03  1.80071E+03  3.66967E+03  1.26180E+03  1.86467E+03
  2.12878E+03  8.47250E+02  2.69113E+03  1.37506E+03  3.25369E+03  4.22120E+03  3.11376E+03  6.10771E+03
 -2.54120E+03  9.18889E+03 -7.81947E+03  9.14471E+03 -1.13734E+04  2.32833E+03 -1.21249E+04 -4.42641E+03
 -5.69827E+03 -1.16015E+04  1.60419E+03 -1.28601E+04  6.92559E+03 -8.03053E+03  9.51081E+03 -2.24838E+03
  7.36344E+03  4.37256E+03  1.89109E+03  6.57945E+03 -3.23504E+03  4.26387E+03 -4.63385E+03 -6.59313E+02
 -2.42852E+03 -4.83100E+03  2.98651E+03 -4.99234E+03  4.78850E+03 -2.33793E+03  4.64366E+03  9.12315E+02
  2.67297E+03  2.01805E+03  1.12859E+03  1.59622E+03 -3.99984E+02  2.07735E+03  2.00218E+03 -2.58104E+02
  1.81785E+03 -9.30442E+02  4.57096E+03  2.25453E+03  2.39206E+03  6.54439E+03 -1.07711E+03  8.20288E+03
 -5.44863E+03  4.92275E+03 -7.38605E+03  1.31332E+03 -6.96886E+03 -2.49217E+03 -2.61842E+03 -4.42469E+03
  6.64060E+02 -4.62568E+03  3.16498E+03 -1.93668E+03  2.53353E+03  2.17941E+03 -1.18481E+03  3.78820E+03
 -4.67488E+03  2.26489E+03 -4.97470E+03 -2.80471E+03 -3.08025E+03 -6.10424E+03  1.35358E+03 -6.16852E+03
  3.72085E+03 -3.38968E+03  4.35246E+03 -4.98150E+02  3.75875E+03  1.21707E+03  4.28347E+02  3.75535E+03
 -2.34902E+03  1.07576E+03 -2.81360E+03 -2.21916E+03  1.23978E+03 -4.60059E+03  5.79418E+03 -3.85744E+03
  6.99107E+03  7.02486E+02  7.00278E+03  4.67543E+03  2.59371E+03  7.53952E+03 -2.25476E+03  6.82409E+03
 -5.99863E+03  2.68849E+03 -6.01183E+03 -1.13150E+03 -3.41001E+03 -4.76013E+03  1.06198E+03 -4.53063E+03
  4.66631E+03 -2.36884E+03  4.01058E+03  1.79887E+03  1.42809E+03  4.16136E+03 -4.72751E+02  3.46797E+03
 -1.89976E+03  2.54614E+03 -1.81874E+03  7.35005E+02 -8.62690E+02  9.26607E+02 -1.37862E+03  1.58648E+03
 -1.83320E+03  3.19967E+03 -5.03208E+03  2.77674E+03 -7.03262E+03  3.61721E+02 -8.34297E+03 -4.83750E+03
 -4.17350E+03 -9.55190E+03  1.73057E+03 -1.10915E+04  6.51172E+03 -8.42579E+03  1.07170E+04 -3.40659E+03
  9.74700E+03  1.64495E+03  5.80094E+03  6.97354E+03  1.36945E+02  7.08514E+03 -2.73814E+03  5.27601E+03
 -4.57153E+03  2.17592E+03 -2.91528E+03 -3.80666E+02 -5.25575E+02 -6.48731E+02 -6.55711E+02 -5.35419E+02
 -1.66952E+03 -1.45455E+02 -1.73560E+03 -1.31569E+02 -2.22178E+02 -1.49956E+03  1.35717E+01 -2.41360E+03
  3.48679E+03 -2.03813E+03  4.07262E+03  1.08669E+02  5.07425E+03  4.37729E+03  1.14545E+03  7.34033E+03
 -3.41841E+03  8.74121E+03 -7.63741E+03  4.79124E+03 -8.63056E+03 -9.67344E+02 -6.57936E+03 -5.25203E+03
 -2.70645E+03 -7.06267E+03  1.67801E+03 -6.70298E+03  4.98001E+03 -3.42799E+03  4.77973E+03  9.21089E+01
  2.45032E+03  2.46704E+03 -3.55689E+02  1.89910E+03 -1.45237E+03 -1.03038E+02 -1.28545E+02 -1.96150E+03
  2.23111E+03 -7.41656E+02  2.16229E+03  1.03223E+03  1.73411E+03  2.59783E+03  2.10875E+02  3.40900E+03
 -3.37128E+03  3.23237E+03 -4.73551E+03  5.40137E+02 -4.65000E+03 -3.06935E+03 -8.44434E+02 -5.86443E+03
  3.53758E+03 -4.95663E+03  5.17457E+03 -1.49801E+03  5.17468E+03  8.90164E+02  2.67282E+03  4.06162E+03
  5.57253E+02  4.53345E+03 -1.91797E+03  3.50659E+03 -2.71393E+03  2.17169E+03 -2.33029E+03  3.93384E+02
 -1.20528E+03  1.34696E+02 -1.48627E+03  6.82210E+02 -2.75683E+03  6.00018E+02 -3.58031E+03 -8.87156E+02
 -3.68526E+03 -2.01704E+03 -7.69022E+02 -4.56160E+03  2.33293E+03 -5.24813E+03  4.09543E+03 -2.11858E+03
  4.56432E+03  6.92072E+02  2.46121E+03  3.20402E+03 -3.36960E+02  4.92034E+03 -3.33590E+03  3.29020E+03
