 $NMID ID='MM_0lb_SNR800_14hz_g55_3.RAW', FMTDAT='(8E13.5)'
 TRAMP=1., VOLUME=1. $END
  3.09962E+05  6.62225E+02  3.37728E+05  2.50406E+05  8.47224E+04  3.38471E+05 -1.32445E+05  2.51259E+05
 -1.90229E+05  8.30334E+04 -1.12126E+05 -3.24664E+04  5.83471E+02 -5.07439E+04  5.38197E+04 -2.69762E+02
  3.53503E+04  5.29546E+04 -1.66631E+04  7.54824E+04 -6.10778E+04  6.36538E+04 -8.40359E+04  3.22267E+04
 -8.12449E+04 -1.15576E+04 -5.76335E+04 -5.11614E+04 -1.51902E+04 -7.01408E+04  2.75666E+04 -4.60497E+04
  4.02924E+04  3.64280E+03  1.62287E+04  4.78983E+04 -3.43061E+04  4.74736E+04 -6.73232E+04  1.59782E+02
 -5.38240E+04 -5.67133E+04 -7.02009E+03 -7.72838E+04  3.42739E+04 -5.55516E+04  4.81375E+04 -1.75047E+04
  4.36506E+04  1.11658E+04  3.23176E+04  2.58959E+04  1.58768E+04  2.95628E+04 -5.54068E+03  2.72802E+04
 -2.19322E+04  1.23289E+04 -1.85049E+04 -4.95331E+03  5.93217E+03 -7.30198E+03  2.23628E+04  1.28133E+04
  7.08542E+03  3.58099E+04 -3.25951E+04  3.61915E+04 -6.38047E+04  2.21693E+03 -5.76187E+04 -4.30278E+04
 -1.28375E+04 -6.38762E+04  4.00643E+04 -4.58502E+04  5.91949E+04 -2.30779E+03  3.50034E+04  3.27033E+04
 -6.04943E+03  3.67984E+04 -3.03003E+04  1.66064E+04 -3.07751E+04 -4.29374E+03 -1.71015E+04 -1.13583E+04
 -8.79495E+03 -1.37777E+04 -6.79941E+02 -1.89639E+04  7.88068E+03 -2.29402E+04  1.53339E+04 -1.32204E+04
  1.12619E+04  5.70166E+03 -8.45747E+03  1.28541E+04 -2.15207E+04 -5.16236E+03 -8.15566E+03 -3.44553E+04
  2.31949E+04 -4.43188E+04  4.86681E+04 -2.00876E+04  4.56789E+04  1.97335E+04  1.59245E+04  4.48489E+04
 -1.61855E+04  3.38126E+04 -2.59321E+04  2.14171E+03 -1.02768E+04 -2.80838E+04  2.11023E+04 -3.43548E+04
  4.18783E+04 -9.33110E+03  3.66583E+04  2.41285E+04  1.87591E+04  4.71832E+04 -8.10367E+03  5.13444E+04
 -3.26877E+04  3.44714E+04 -4.30665E+04  9.59397E+03 -4.31503E+04 -1.70562E+04 -2.44954E+04 -3.84683E+04
  7.25838E+03 -3.85925E+04  3.16253E+04 -1.51515E+04  2.97656E+04  1.06645E+04  4.41022E+03  1.93618E+04
 -1.35149E+04  8.79772E+03 -1.05136E+04 -7.64772E+03  6.02139E+03 -1.11056E+04  1.80334E+04  5.77682E+03
  1.37758E+04  2.20776E+04 -6.12100E+03  2.53997E+04 -2.25413E+04  1.17099E+04 -2.85022E+04 -4.68093E+03
 -2.12024E+04 -1.75885E+04 -8.89242E+03 -2.12670E+04  4.24197E+03 -2.06968E+04  1.63265E+04 -1.92215E+04
  2.70301E+04 -1.30803E+04  3.32114E+04  3.30820E+03  2.42977E+04  2.04113E+04  4.39082E+03  3.73821E+04
 -1.80357E+04  3.08342E+04 -2.88506E+04  1.10807E+04 -2.12025E+04 -1.00970E+04 -4.69325E+03 -1.34804E+04
  1.77546E+03 -2.30655E+03 -5.38882E+03  6.80171E+03 -1.67528E+04  5.20920E+03 -1.67115E+04 -7.36427E+03
 -1.03346E+04 -1.99741E+04  5.42021E+03 -2.37627E+04  1.58266E+04 -1.71726E+04  1.88543E+04 -1.76625E+03
  1.19208E+04  1.35025E+04 -8.34386E+02  1.95183E+04 -1.38008E+04  1.11770E+04 -1.99020E+04 -4.12839E+03
 -1.42266E+04 -1.77600E+04 -1.62946E+03 -2.35644E+04  1.08035E+04 -1.93760E+04  1.96754E+04 -9.82914E+03
  1.83234E+04 -1.00425E+02  1.33340E+04  4.42101E+03  7.07070E+03  1.09403E+03  9.84614E+03 -1.36623E+03
  1.82047E+04  2.94747E+03  2.00438E+04  1.56212E+04  1.28343E+04  3.11669E+04 -2.86671E+03  3.53427E+04
 -2.06391E+04  2.86711E+04 -3.35275E+04  1.44988E+04 -3.51102E+04 -2.60511E+03 -2.86328E+04 -2.04246E+04
 -1.19943E+04 -2.89334E+04  9.97895E+03 -2.56761E+04  2.21591E+04 -1.31675E+04  1.98423E+04  5.95226E+03
  7.25407E+03  1.51448E+04 -9.05045E+03  1.30331E+04 -1.66553E+04  2.45023E+03 -1.26794E+04 -1.04361E+04
 -3.34762E+02 -1.58234E+04  8.07905E+03 -1.17200E+04  1.06039E+04 -7.97778E+02  2.59317E+03  6.79124E+03
 -7.12234E+03  2.40078E+03 -6.64620E+03 -5.85312E+03 -2.74497E+02 -1.40842E+04  1.00444E+04 -1.49581E+04
  1.76142E+04 -7.72967E+03  1.87353E+04  3.12599E+03  1.60697E+04  1.36219E+04  7.80889E+03  2.10883E+04
 -3.28613E+03  2.31885E+04 -1.47258E+04  1.46013E+04 -1.67036E+04  3.29095E+03 -1.19444E+04 -3.83233E+03
 -5.20631E+03 -5.14855E+03 -9.48908E+02  1.13795E+03 -2.39921E+03  2.80840E+03 -5.31552E+03  4.35688E+03
 -1.07470E+04 -7.51612E+02 -1.17540E+04 -9.50892E+03 -4.71576E+03 -1.49911E+04  4.76948E+03 -1.16014E+04
  1.00593E+04 -4.94231E+03  6.88618E+03  3.34345E+03  2.07391E+02  4.70237E+03 -5.46045E+03 -1.63814E+02
 -5.46930E+03 -7.60060E+03 -6.49126E+02 -1.10887E+04  6.33804E+03 -1.17633E+04  1.45538E+04 -6.13252E+03
  1.68839E+04  1.30129E+03  1.24854E+04  9.77660E+03  2.57676E+03  1.33696E+04 -6.94291E+03  1.17432E+04
 -9.70934E+03  3.58867E+03 -5.20390E+03 -2.24014E+03  1.85623E+03 -3.08644E+03  6.23610E+03 -1.13047E+03
  5.57354E+03  5.02144E+03  1.19965E+03  8.88132E+03 -6.79546E+03  8.84053E+03 -1.11216E+04  2.25979E+03
 -7.15054E+03 -5.59503E+03  6.16838E+02 -9.90320E+03  6.00606E+03 -5.21298E+03  6.33985E+03  2.07611E+03
  1.54327E+03  6.27378E+03 -5.67710E+03  7.73283E+03 -8.61308E+03  3.43024E+03 -8.79084E+03 -2.48777E+03
 -5.28987E+03 -1.05274E+04  2.24740E+03 -1.19813E+04  1.00697E+04 -7.39347E+03  1.08492E+04  2.01700E+03
  7.13568E+03  8.45793E+03 -6.86567E+02  1.11038E+04 -7.82051E+03  6.12120E+03 -8.48113E+03 -8.18214E+02
 -8.10663E+03 -7.31407E+03 -1.53858E+03 -8.29763E+03  4.54765E+03 -6.88926E+03  4.97936E+03 -2.92937E+03
  3.61288E+03  1.09722E+03 -4.18408E+02  1.49926E+03 -4.20509E+01 -1.68758E+03  1.11904E+03 -4.41638E+03
  7.31753E+03 -2.60050E+03  1.00606E+04  1.29847E+03  9.97111E+03  6.49947E+03  7.22420E+03  1.28158E+04
 -2.74337E+03  1.51058E+04 -1.30048E+04  1.12893E+04 -1.64460E+04  2.03259E+03 -1.33447E+04 -5.40392E+03
 -6.78220E+03 -1.08927E+04 -2.74394E+02 -8.86963E+03  3.24869E+03 -4.76670E+03  3.34884E+03 -3.60564E+03
  2.24601E+03 -2.11863E+03  3.12244E+03 -3.06024E+03  4.93656E+03 -2.27338E+03  5.43083E+03 -2.50429E+02
  7.23729E+03  1.59590E+03  2.81508E+03  6.02758E+03 -1.99674E+03  6.28150E+03 -7.53916E+03  5.10976E+03
 -8.82033E+03 -9.62220E+02 -4.64731E+03 -6.22500E+03 -9.69633E+01 -9.41642E+03  5.54053E+03 -9.22869E+03
  9.78981E+03 -5.28430E+03  1.17434E+04  1.08616E+03  8.14345E+03  8.15069E+03  1.72121E+03  1.05091E+04
 -4.45225E+03  8.97507E+03 -6.37263E+03  3.49757E+03 -3.75512E+03 -1.13505E+03 -1.30183E+03 -1.48332E+03
 -8.70900E+02  1.86126E+02 -1.59967E+03  2.27672E+03 -3.89836E+03  1.53718E+03 -6.57834E+03 -1.00420E+03
 -3.67008E+03 -6.65308E+03  2.99770E+02 -8.67987E+03  5.13734E+03 -8.01173E+03  7.85424E+03 -2.27850E+03
  7.97421E+03  4.10130E+03  3.72478E+03  6.89617E+03 -1.59295E+03  8.32150E+03 -5.81679E+03  5.19608E+03
 -7.71121E+03  6.29299E+02 -6.03482E+03 -4.77756E+03 -4.49722E+02 -6.91928E+03  3.50110E+03 -5.13883E+03
  5.15442E+03 -1.96911E+03  3.22936E+03  1.52344E+03  1.30140E+03  2.93130E+03  7.30093E+02  9.76375E+02
  2.07820E+03  8.35089E+02  1.93506E+03  9.66430E+02  2.30236E+03  3.33720E+03  2.39814E+03  4.30563E+03
 -2.04305E+03  6.02642E+03 -5.56511E+03  6.82655E+03 -7.34477E+03  1.81013E+03 -8.53383E+03 -2.79425E+03
 -3.84714E+03 -7.79463E+03  1.12805E+03 -9.05719E+03  4.24691E+03 -5.26876E+03  6.28527E+03 -1.34851E+03
  5.00455E+03  3.02862E+03  1.62948E+03  4.62197E+03 -1.78017E+03  2.49449E+03 -2.86964E+03 -4.19759E+02
 -1.46221E+03 -3.20690E+03  2.00307E+03 -3.21202E+03  2.99348E+03 -1.66934E+03  2.87258E+03  8.13539E+02
  1.48111E+03  1.35224E+03  9.69328E+02  4.91364E+02 -5.16740E+02  1.01179E+03  1.80336E+03 -1.36164E+02
  1.13004E+03 -2.27132E+02  3.54683E+03  1.07358E+03  1.56326E+03  4.02972E+03 -6.33018E+02  5.49517E+03
 -3.60444E+03  3.04411E+03 -4.51311E+03  7.68977E+02 -4.28200E+03 -1.80225E+03 -9.92772E+02 -2.71940E+03
  5.89295E+02 -2.80540E+03  1.92933E+03 -1.62011E+03  1.34425E+03  1.97447E+03 -7.38614E+02  2.29369E+03
 -3.12337E+03  1.24340E+03 -3.35404E+03 -2.22917E+03 -2.00217E+03 -4.08471E+03  4.44082E+02 -3.61567E+03
  1.78339E+03 -2.21075E+03  2.63638E+03 -8.44719E+01  2.33763E+03  5.23296E+02  5.98142E+02  2.09967E+03
 -1.35391E+03  5.67362E+02 -1.98004E+03 -1.40189E+03  1.07558E+03 -2.83308E+03  3.47084E+03 -2.12617E+03
  4.00492E+03  3.23038E+02  4.86044E+03  2.71680E+03  1.60458E+03  4.09381E+03 -1.14672E+03  4.33626E+03
 -3.35575E+03  1.46891E+03 -3.66770E+03 -6.68477E+02 -1.89740E+03 -2.98516E+03  8.87409E+02 -2.16291E+03
  3.01755E+03 -1.29467E+03  2.30910E+03  1.31656E+03  9.01846E+02  2.61077E+03 -1.13772E+02  1.99553E+03
 -1.19209E+03  1.61857E+03 -1.20117E+03  5.61297E+02 -3.31266E+02  7.82769E+02 -1.12307E+03  9.99467E+02
 -1.23244E+03  1.75601E+03 -3.65190E+03  1.59963E+03 -4.03135E+03  2.20129E+02 -4.95714E+03 -2.82214E+03
 -3.05801E+03 -5.68522E+03  1.45644E+03 -6.77715E+03  3.71904E+03 -5.34001E+03  6.03952E+03 -2.11700E+03
  5.94788E+03  6.62787E+02  3.26683E+03  3.79115E+03 -3.04192E+02  4.11338E+03 -2.03711E+03  2.98858E+03
 -2.40671E+03  1.61140E+03 -1.74358E+03 -4.17398E+02 -9.13017E+02 -1.96088E+02 -7.81692E+02 -2.43568E+02
 -1.38701E+03  5.37105E+01 -1.25414E+03 -9.60363E+01  1.83438E+01 -1.32941E+03 -4.31917E+02 -1.72306E+03
  2.26660E+03 -1.42102E+03  2.08798E+03  9.64371E+01  3.17064E+03  2.55392E+03  3.93885E+02  3.85436E+03
 -1.83929E+03  5.01535E+03 -4.45121E+03  2.79218E+03 -4.55114E+03 -6.50681E+02 -3.50352E+03 -3.01428E+03
 -1.48057E+03 -4.20226E+03  9.58876E+02 -3.55665E+03  2.58423E+03 -1.89987E+03  2.54070E+03  3.58166E+02
  1.72143E+03  1.41257E+03 -8.50735E+01  1.15713E+03 -9.78496E+02  1.21564E+01  3.28759E+02 -1.09940E+03
  1.13013E+03  8.69335E+00  1.32788E+03  9.69854E+02  5.32901E+02  1.38317E+03  1.64168E+01  1.67880E+03
 -1.79335E+03  1.32758E+03 -2.28587E+03  2.83275E+02 -2.53156E+03 -1.67214E+03 -3.84215E+02 -3.55921E+03
  1.66117E+03 -2.48524E+03  2.48025E+03 -8.63329E+02  2.69690E+03  2.10221E+01  1.62414E+03  2.20010E+03
  4.25763E+02  2.05577E+03 -9.20924E+02  1.98194E+03 -1.62534E+03  1.38557E+03 -1.24133E+03  2.59021E+02
 -5.45989E+02 -5.46250E+01 -7.35119E+02  2.99677E+02 -1.61996E+03  5.56270E+02 -1.73727E+03 -4.93361E+02
 -2.01671E+03 -7.25820E+02 -2.57342E+02 -2.39422E+03  1.46042E+03 -2.82419E+03  2.04407E+03 -1.34583E+03
  1.89446E+03  3.65255E+02  6.78045E+02  1.60731E+03 -7.11745E+01  2.36305E+03 -1.60452E+03  1.45497E+03
