 $NMID ID='MM_0lb_SNR800_12hz_g45_56.RAW', FMTDAT='(8E13.5)'
 TRAMP=1., VOLUME=1. $END
  3.09822E+05  3.46825E+02  3.37492E+05  2.50610E+05  8.46680E+04  3.37888E+05 -1.32424E+05  2.51422E+05
 -1.90469E+05  8.32988E+04 -1.11941E+05 -3.24343E+04  6.52914E+02 -5.06103E+04  5.39347E+04 -2.23147E+02
  3.54954E+04  5.30382E+04 -1.68990E+04  7.57752E+04 -6.09843E+04  6.35047E+04 -8.46387E+04  3.19347E+04
 -8.12875E+04 -1.15617E+04 -5.75504E+04 -5.15015E+04 -1.49320E+04 -7.01911E+04  2.75877E+04 -4.64056E+04
  4.06807E+04  3.80370E+03  1.62618E+04  4.78986E+04 -3.46600E+04  4.73030E+04 -6.69178E+04 -9.07969E+01
 -5.41013E+04 -5.69947E+04 -6.76595E+03 -7.76505E+04  3.40339E+04 -5.56515E+04  4.82957E+04 -1.74655E+04
  4.37927E+04  1.14050E+04  3.19964E+04  2.59448E+04  1.55357E+04  2.98626E+04 -5.22137E+03  2.74189E+04
 -2.20010E+04  1.24948E+04 -1.81030E+04 -5.32967E+03  5.98067E+03 -7.34121E+03  2.29013E+04  1.27176E+04
  7.27488E+03  3.56380E+04 -3.25042E+04  3.57751E+04 -6.40081E+04  2.29890E+03 -5.73372E+04 -4.31715E+04
 -1.26557E+04 -6.36188E+04  4.04001E+04 -4.59441E+04  5.88729E+04 -1.97559E+03  3.50407E+04  3.25237E+04
 -6.27107E+03  3.69900E+04 -3.04060E+04  1.68116E+04 -3.13813E+04 -4.23425E+03 -1.72488E+04 -1.11107E+04
 -8.56051E+03 -1.35759E+04 -9.81666E+02 -1.84931E+04  7.71545E+03 -2.32873E+04  1.55300E+04 -1.31237E+04
  1.10951E+04  5.43747E+03 -8.51430E+03  1.25310E+04 -2.18741E+04 -5.05768E+03 -8.05891E+03 -3.47527E+04
  2.39269E+04 -4.43834E+04  4.95656E+04 -1.97315E+04  4.60348E+04  1.98948E+04  1.59571E+04  4.45518E+04
 -1.61254E+04  3.44015E+04 -2.63081E+04  2.37645E+03 -1.07983E+04 -2.80707E+04  2.11441E+04 -3.46883E+04
  4.21069E+04 -9.47207E+03  3.75611E+04  2.39546E+04  1.92321E+04  4.78207E+04 -8.35570E+03  5.17852E+04
 -3.30218E+04  3.49278E+04 -4.37578E+04  1.00089E+04 -4.39191E+04 -1.68988E+04 -2.46908E+04 -3.93687E+04
  7.68503E+03 -3.89979E+04  3.22854E+04 -1.55093E+04  3.01723E+04  1.08899E+04  4.29580E+03  1.98100E+04
 -1.33429E+04  8.69874E+03 -1.06638E+04 -7.85389E+03  5.49650E+03 -1.12841E+04  1.82097E+04  5.88646E+03
  1.40147E+04  2.22117E+04 -5.84479E+03  2.59425E+04 -2.30327E+04  1.20273E+04 -2.87882E+04 -4.04765E+03
 -2.18733E+04 -1.75629E+04 -9.23358E+03 -2.15245E+04  3.93530E+03 -2.14269E+04  1.66418E+04 -1.95121E+04
  2.75902E+04 -1.30628E+04  3.40063E+04  3.12583E+03  2.47483E+04  2.13894E+04  4.23699E+03  3.80070E+04
 -1.81450E+04  3.13797E+04 -2.87614E+04  1.07602E+04 -2.16706E+04 -1.04566E+04 -4.67589E+03 -1.29444E+04
  1.63756E+03 -2.34756E+03 -5.66422E+03  7.06570E+03 -1.70812E+04  5.15721E+03 -1.75721E+04 -7.81098E+03
 -1.08060E+04 -2.01756E+04  5.64464E+03 -2.47924E+04  1.67426E+04 -1.76163E+04  1.93572E+04 -1.80837E+03
  1.21719E+04  1.39401E+04 -1.02789E+03  2.03290E+04 -1.41118E+04  1.16009E+04 -2.02007E+04 -4.24642E+03
 -1.50314E+04 -1.87495E+04 -2.26300E+03 -2.47642E+04  1.10725E+04 -2.03118E+04  2.05819E+04 -1.03923E+04
  1.88820E+04 -5.40976E+01  1.39592E+04  4.81786E+03  7.17882E+03  9.84606E+02  1.02847E+04 -1.98790E+03
  1.87001E+04  2.46845E+03  2.12512E+04  1.60923E+04  1.41304E+04  3.24388E+04 -2.94503E+03  3.72621E+04
 -2.12662E+04  3.03379E+04 -3.48684E+04  1.51953E+04 -3.67710E+04 -2.81358E+03 -3.03525E+04 -2.11235E+04
 -1.23866E+04 -3.01313E+04  1.03831E+04 -2.71274E+04  2.32556E+04 -1.37630E+04  2.06575E+04  6.24040E+03
  7.47787E+03  1.57996E+04 -1.01350E+04  1.37939E+04 -1.71014E+04  2.94321E+03 -1.31133E+04 -1.09140E+04
 -3.69996E+02 -1.65014E+04  8.49939E+03 -1.22924E+04  1.13068E+04 -1.35896E+03  2.83466E+03  7.05437E+03
 -7.43958E+03  2.60540E+03 -6.73748E+03 -5.92153E+03 -1.03725E+03 -1.52137E+04  1.00301E+04 -1.60387E+04
  1.83510E+04 -8.58578E+03  2.00870E+04  2.87718E+03  1.77329E+04  1.49785E+04  8.61782E+03  2.31244E+04
 -4.27949E+03  2.46716E+04 -1.60310E+04  1.53173E+04 -1.79248E+04  3.72362E+03 -1.26613E+04 -4.17354E+03
 -5.67225E+03 -5.70148E+03 -9.48557E+02  6.63566E+02 -2.35117E+03  2.78137E+03 -5.84697E+03  4.65608E+03
 -1.17026E+04 -6.99983E+02 -1.25961E+04 -9.98600E+03 -4.81356E+03 -1.60575E+04  5.24165E+03 -1.27981E+04
  1.05303E+04 -5.47132E+03  7.60883E+03  3.27999E+03  1.23381E+02  4.94921E+03 -6.01660E+03 -1.35583E+01
 -6.33530E+03 -8.17608E+03 -1.03245E+03 -1.21904E+04  6.75854E+03 -1.29096E+04  1.57651E+04 -6.74239E+03
  1.87691E+04  1.43793E+03  1.35020E+04  1.09823E+04  2.75385E+03  1.47415E+04 -7.58554E+03  1.23939E+04
 -1.00806E+04  3.60940E+03 -5.13471E+03 -2.83890E+03  1.92745E+03 -3.33751E+03  6.86836E+03 -8.46019E+02
  6.15796E+03  5.50421E+03  8.96770E+02  9.86506E+03 -7.30830E+03  9.66217E+03 -1.21583E+04  2.39318E+03
 -8.11465E+03 -6.35164E+03  5.32358E+02 -1.06303E+04  6.77644E+03 -5.52029E+03  6.58592E+03  2.12189E+03
  1.27491E+03  7.02204E+03 -6.30397E+03  8.90708E+03 -9.95407E+03  4.05892E+03 -9.80328E+03 -3.54055E+03
 -5.77977E+03 -1.15296E+04  2.88596E+03 -1.31688E+04  1.18597E+04 -8.18850E+03  1.22204E+04  2.39944E+03
  7.81885E+03  1.00457E+04 -5.33078E+02  1.21617E+04 -8.88321E+03  6.93976E+03 -9.68902E+03 -8.40370E+02
 -8.41775E+03 -8.27370E+03 -1.59624E+03 -8.92102E+03  4.35830E+03 -7.25566E+03  5.51114E+03 -3.37934E+03
  4.11134E+03  1.22329E+03 -8.14129E+02  1.53419E+03 -2.60447E+02 -2.29945E+03  1.92695E+03 -5.28085E+03
  8.12541E+03 -3.17906E+03  1.13622E+04  1.40472E+03  1.11045E+04  7.64098E+03  8.17562E+03  1.48767E+04
 -3.27698E+03  1.72132E+04 -1.46677E+04  1.29640E+04 -1.89706E+04  2.35470E+03 -1.49207E+04 -6.38711E+03
 -7.62089E+03 -1.21693E+04 -1.19818E+02 -1.02466E+04  3.62136E+03 -5.50164E+03  4.05859E+03 -3.80537E+03
  2.73549E+03 -2.62566E+03  3.01816E+03 -2.73275E+03  4.95006E+03 -2.69256E+03  6.12656E+03 -4.44872E+02
  7.84108E+03  1.74058E+03  3.55368E+03  6.70579E+03 -1.49441E+03  7.28759E+03 -8.41280E+03  6.11915E+03
 -1.03153E+04 -1.16630E+03 -6.11869E+03 -7.32875E+03 -3.86369E+02 -1.05525E+04  6.20176E+03 -1.14474E+04
  1.14771E+04 -6.10900E+03  1.36959E+04  1.53045E+03  9.77611E+03  9.84973E+03  1.72277E+03  1.23568E+04
 -5.04795E+03  1.04978E+04 -7.27933E+03  3.96427E+03 -5.13672E+03 -1.42036E+03 -2.02437E+03 -1.03149E+03
 -1.08114E+03 -2.63967E+02 -1.74197E+03  2.63892E+03 -4.79506E+03  1.80547E+03 -7.07569E+03 -1.10920E+03
 -4.52010E+03 -7.40659E+03  4.29597E+02 -9.89686E+03  6.24558E+03 -9.33664E+03  9.54018E+03 -2.95712E+03
  9.79474E+03  4.78974E+03  4.47666E+03  8.62598E+03 -1.91052E+03  1.03400E+04 -6.91354E+03  6.08692E+03
 -9.34235E+03  8.80223E+02 -7.49650E+03 -5.93712E+03 -6.74167E+02 -7.99189E+03  4.17564E+03 -6.18836E+03
  6.30692E+03 -2.16814E+03  3.95861E+03  1.55776E+03  1.42958E+03  3.49773E+03  9.19482E+02  1.49826E+03
  2.27560E+03  9.03624E+02  2.26215E+03  1.23135E+03  2.67673E+03  4.00483E+03  2.51461E+03  5.15901E+03
 -2.41976E+03  7.84980E+03 -6.86765E+03  8.13480E+03 -9.67867E+03  2.44596E+03 -1.02902E+04 -3.64657E+03
 -4.51015E+03 -1.00007E+04  1.45016E+03 -1.06377E+04  6.07396E+03 -6.56157E+03  7.68238E+03 -2.18413E+03
  6.46741E+03  3.87074E+03  1.65031E+03  5.65820E+03 -2.40178E+03  3.59939E+03 -3.57992E+03 -5.01767E+02
 -1.93935E+03 -3.73926E+03  2.41194E+03 -4.09125E+03  3.82474E+03 -2.33633E+03  3.83810E+03  9.47478E+02
  2.14553E+03  1.57171E+03  1.33522E+03  1.34128E+03 -6.79730E+01  1.32614E+03  1.79881E+03 -3.37712E+02
  1.21826E+03 -4.23942E+02  4.21149E+03  1.90850E+03  1.89715E+03  5.35529E+03 -7.44278E+02  6.74499E+03
 -4.69406E+03  4.09484E+03 -5.83368E+03  1.18381E+03 -5.61904E+03 -2.05224E+03 -2.12480E+03 -3.34939E+03
  7.23512E+02 -3.82475E+03  2.53697E+03 -1.85578E+03  2.25271E+03  2.05177E+03 -6.43230E+02  3.01488E+03
 -3.82635E+03  1.96777E+03 -4.26924E+03 -2.55713E+03 -2.41433E+03 -5.39016E+03  8.74235E+02 -5.10760E+03
  2.94469E+03 -2.98709E+03  3.33450E+03 -1.78238E+02  3.23327E+03  1.03165E+03  5.38569E+02  2.95456E+03
 -1.73526E+03  9.18275E+02 -2.15124E+03 -1.36347E+03  1.09600E+03 -3.57014E+03  4.61568E+03 -3.12700E+03
  5.57146E+03  6.09391E+02  5.84011E+03  4.08556E+03  2.12476E+03  6.27337E+03 -1.93948E+03  5.94748E+03
 -4.99062E+03  2.44560E+03 -4.75871E+03 -1.07880E+03 -2.78799E+03 -3.40131E+03  8.28429E+02 -3.59659E+03
  3.71144E+03 -1.48391E+03  3.04514E+03  1.83738E+03  1.21289E+03  3.44759E+03 -4.72018E+02  2.83147E+03
 -1.42809E+03  2.09404E+03 -1.26523E+03  7.64642E+02 -4.13209E+02  8.89182E+02 -1.30608E+03  9.71899E+02
 -1.31740E+03  2.22756E+03 -4.44473E+03  1.79440E+03 -5.79756E+03  2.15822E+02 -6.72104E+03 -3.79911E+03
 -3.21479E+03 -7.86323E+03  1.23146E+03 -9.28547E+03  5.20651E+03 -7.27580E+03  8.34757E+03 -2.76484E+03
  7.88552E+03  1.37237E+03  4.60602E+03  5.35443E+03  1.25624E+02  5.84245E+03 -2.30984E+03  4.17156E+03
 -3.28219E+03  1.42191E+03 -2.09402E+03 -6.97610E+02 -8.22583E+02 -5.04225E+02 -6.91183E+02 -7.04077E+01
 -1.56885E+03  8.31201E+01 -1.59308E+03 -1.14814E+02 -1.75525E+02 -1.37324E+03 -1.68298E+02 -2.26964E+03
  2.74428E+03 -1.67067E+03  3.22779E+03 -3.27627E+02  4.12063E+03  3.12344E+03  8.82996E+02  5.85408E+03
 -3.22550E+03  6.73755E+03 -5.94789E+03  4.04938E+03 -6.84275E+03 -2.54307E+02 -5.06335E+03 -4.46589E+03
 -2.22968E+03 -5.96982E+03  1.54428E+03 -5.32757E+03  3.56453E+03 -2.88401E+03  3.51338E+03  2.17666E+02
  2.69809E+03  2.02820E+03 -6.62179E+01  1.52054E+03 -1.19576E+03 -1.61756E+02  2.49030E+02 -1.23075E+03
  2.16110E+03 -7.50391E+02  1.94920E+03  9.37639E+02  1.22145E+03  2.08527E+03  3.74621E+02  2.73643E+03
 -2.46764E+03  2.40159E+03 -3.50414E+03  4.47596E+02 -3.23443E+03 -2.42263E+03 -2.87123E+02 -4.85583E+03
  2.49320E+03 -3.73358E+03  4.06496E+03 -1.06597E+03  4.47927E+03  9.08070E+02  2.70068E+03  3.28807E+03
  5.94702E+02  3.63603E+03 -1.51393E+03  2.91783E+03 -2.25982E+03  1.79490E+03 -2.24808E+03  7.68848E+01
 -8.16746E+02 -4.41113E+01 -1.08554E+03  4.28668E+02 -1.87913E+03  5.23355E+02 -3.17569E+03 -7.35953E+02
 -2.93086E+03 -1.46008E+03 -9.08074E+02 -3.88682E+03  1.81159E+03 -4.18709E+03  3.14902E+03 -1.50690E+03
  3.55351E+03  4.04938E+02  1.64981E+03  2.34827E+03 -8.20555E+01  3.79875E+03 -3.02775E+03  2.24322E+03
