 $NMID ID='MM_0lb_SNR800_16hz_g40_64.RAW', FMTDAT='(8E13.5)'
 TRAMP=1., VOLUME=1. $END
  3.09530E+05  4.44920E+02  3.37471E+05  2.50685E+05  8.44910E+04  3.37424E+05 -1.32296E+05  2.50307E+05
 -1.89491E+05  8.28304E+04 -1.11310E+05 -3.28313E+04  1.33051E+03 -5.02474E+04  5.38302E+04  7.04345E+00
  3.54450E+04  5.29438E+04 -1.66981E+04  7.50268E+04 -6.05687E+04  6.26840E+04 -8.34673E+04  3.16503E+04
 -8.00750E+04 -1.10776E+04 -5.62405E+04 -5.04939E+04 -1.49143E+04 -6.85643E+04  2.68240E+04 -4.51532E+04
  3.94504E+04  3.92636E+03  1.57591E+04  4.76294E+04 -3.41761E+04  4.63315E+04 -6.59955E+04 -3.73291E+02
 -5.23235E+04 -5.63473E+04 -6.29840E+03 -7.57085E+04  3.30970E+04 -5.34970E+04  4.65713E+04 -1.65189E+04
  4.21067E+04  1.08889E+04  3.12292E+04  2.47229E+04  1.58021E+04  2.85135E+04 -5.05079E+03  2.65781E+04
 -2.19280E+04  1.29087E+04 -1.88844E+04 -4.54265E+03  4.78214E+03 -7.41624E+03  2.15558E+04  1.13898E+04
  7.12073E+03  3.37653E+04 -3.10293E+04  3.44411E+04 -6.15918E+04  2.16741E+03 -5.58350E+04 -4.16933E+04
 -1.25581E+04 -6.13967E+04  3.85407E+04 -4.38535E+04  5.64371E+04 -1.99965E+03  3.26391E+04  3.11270E+04
 -6.46104E+03  3.39426E+04 -2.87809E+04  1.41785E+04 -2.86163E+04 -5.10882E+03 -1.51210E+04 -1.00974E+04
 -8.05967E+03 -1.19232E+04 -9.70911E+02 -1.73444E+04  7.00879E+03 -2.26840E+04  1.52152E+04 -1.37203E+04
  1.20287E+04  4.38379E+03 -7.05272E+03  1.28899E+04 -2.00302E+04 -3.08098E+03 -7.81266E+03 -3.13812E+04
  2.13661E+04 -4.11716E+04  4.55255E+04 -1.90577E+04  4.31309E+04  1.86389E+04  1.46330E+04  4.23493E+04
 -1.55400E+04  3.19234E+04 -2.39485E+04  1.36305E+03 -9.18371E+03 -2.66440E+04  2.07245E+04 -3.19451E+04
  3.91616E+04 -8.02530E+03  3.29523E+04  2.33664E+04  1.62796E+04  4.39464E+04 -7.84543E+03  4.67622E+04
 -2.94085E+04  3.08159E+04 -3.90003E+04  8.64717E+03 -3.95326E+04 -1.55276E+04 -2.18943E+04 -3.54728E+04
  7.06046E+03 -3.52666E+04  2.98703E+04 -1.33206E+04  2.77723E+04  1.06627E+04  3.35074E+03  1.81728E+04
 -1.34418E+04  7.83400E+03 -9.82890E+03 -8.11697E+03  5.80663E+03 -1.03939E+04  1.74732E+04  6.39562E+03
  1.27418E+04  2.18476E+04 -6.53598E+03  2.42379E+04 -2.18264E+04  9.85041E+03 -2.60798E+04 -5.79452E+03
 -1.79565E+04 -1.65465E+04 -6.60333E+03 -1.79224E+04  3.49872E+03 -1.63712E+04  1.33522E+04 -1.55868E+04
  2.28193E+04 -1.22203E+04  2.95314E+04  1.42931E+03  2.20439E+04  1.74265E+04  4.09228E+03  3.37002E+04
 -1.67000E+04  2.84598E+04 -2.64884E+04  9.71956E+03 -2.00628E+04 -1.03541E+04 -3.97926E+03 -1.38125E+04
  2.52455E+03 -3.64115E+03 -3.26811E+03  5.68397E+03 -1.41022E+04  5.30781E+03 -1.45846E+04 -5.60078E+03
 -9.22216E+03 -1.67853E+04  4.82569E+03 -2.06955E+04  1.35562E+04 -1.50043E+04  1.57169E+04 -1.40657E+03
  1.00670E+04  1.17939E+04 -1.00216E+03  1.69476E+04 -1.11583E+04  9.72086E+03 -1.67161E+04 -3.87965E+03
 -1.22951E+04 -1.51792E+04 -1.51583E+03 -2.06112E+04  9.32997E+03 -1.65193E+04  1.70768E+04 -7.93829E+03
  1.59479E+04  6.79108E+02  1.14660E+04  4.02514E+03  5.64978E+03  8.43065E+02  8.11657E+03 -1.61735E+03
  1.54688E+04  2.50806E+03  1.60794E+04  1.33102E+04  1.02638E+04  2.64088E+04 -2.77400E+03  2.93342E+04
 -1.70864E+04  2.28533E+04 -2.74440E+04  1.10120E+04 -2.78801E+04 -2.20461E+03 -2.35450E+04 -1.61287E+04
 -1.05008E+04 -2.28900E+04  7.92443E+03 -2.10285E+04  1.80004E+04 -1.15334E+04  1.68243E+04  4.46685E+03
  6.67687E+03  1.22485E+04 -7.67746E+03  1.11926E+04 -1.41467E+04  2.58589E+03 -1.07742E+04 -8.59920E+03
 -2.62967E+02 -1.37140E+04  6.73853E+03 -1.01800E+04  8.74520E+03 -1.15124E+03  1.94846E+03  5.56039E+03
 -6.01302E+03  1.90295E+03 -4.46675E+03 -5.20003E+03  4.27826E+02 -1.15177E+04  8.32234E+03 -1.14046E+04
  1.40831E+04 -5.54366E+03  1.41706E+04  2.91806E+03  1.20183E+04  1.10099E+04  5.69686E+03  1.64870E+04
 -2.28661E+03  1.81519E+04 -1.09499E+04  1.14429E+04 -1.28342E+04  3.21120E+03 -9.24008E+03 -2.51658E+03
 -4.72782E+03 -4.21186E+03 -8.28825E+02  9.46859E+02 -2.16509E+03  2.04930E+03 -3.99690E+03  3.81767E+03
 -9.08282E+03 -2.14815E+02 -9.62598E+03 -7.88049E+03 -3.85403E+03 -1.27299E+04  3.91205E+03 -9.61948E+03
  7.85065E+03 -4.24208E+03  5.76406E+03  2.59136E+03  5.96489E+02  3.92571E+03 -4.13663E+03  1.46038E+02
 -4.19074E+03 -5.83445E+03 -7.09749E+02 -8.37880E+03  4.60685E+03 -9.26249E+03  1.12895E+04 -4.69439E+03
  1.37240E+04  5.36183E+02  1.00479E+04  7.62275E+03  2.06498E+03  1.03800E+04 -5.67579E+03  9.44474E+03
 -7.74346E+03  3.32057E+03 -3.97314E+03 -1.63401E+03  1.64742E+03 -2.27829E+03  5.48815E+03 -9.23879E+02
  4.47213E+03  3.86303E+03  9.48701E+02  7.45028E+03 -5.12161E+03  7.15645E+03 -8.93957E+03  2.03997E+03
 -6.00771E+03 -4.41899E+03  3.34365E+02 -7.78263E+03  4.60037E+03 -3.84358E+03  4.40021E+03  1.52914E+03
  8.58629E+02  4.20207E+03 -4.57382E+03  5.68309E+03 -6.05376E+03  2.79789E+03 -5.97068E+03 -1.77939E+03
 -3.60836E+03 -7.21775E+03  1.51706E+03 -8.85022E+03  7.21053E+03 -5.62473E+03  7.98775E+03  1.12629E+03
  5.66275E+03  6.64799E+03 -1.84040E+02  8.35838E+03 -6.14575E+03  4.99394E+03 -6.42806E+03 -4.28570E+02
 -6.70574E+03 -5.87288E+03 -1.38610E+03 -6.08201E+03  3.11875E+03 -5.62261E+03  3.60563E+03 -3.01246E+03
  3.04978E+03  5.71740E+02 -1.28435E+02  1.27461E+03  4.19443E+02 -7.84674E+02  5.24971E+02 -2.65669E+03
  5.02520E+03 -1.54496E+03  6.83326E+03  7.67144E+02  7.10026E+03  4.36188E+03  5.95767E+03  9.28237E+03
 -1.47678E+03  1.09494E+04 -9.22744E+03  8.10618E+03 -1.23708E+04  1.57538E+03 -9.82323E+03 -3.51975E+03
 -5.19290E+03 -8.20536E+03 -4.76157E+02 -6.53622E+03  2.63617E+03 -3.18987E+03  2.27351E+03 -2.67521E+03
  1.53873E+03 -1.63643E+03  2.35669E+03 -2.69466E+03  3.79898E+03 -1.63788E+03  4.04705E+03  4.54707E+02
  5.17082E+03  1.25406E+03  1.82567E+03  4.38047E+03 -1.76479E+03  3.88351E+03 -5.45724E+03  3.46143E+03
 -6.56186E+03 -1.03169E+03 -2.75767E+03 -4.15498E+03  2.53861E+02 -6.48066E+03  4.01898E+03 -7.01707E+03
  6.74784E+03 -3.79897E+03  8.42193E+03  4.51643E+02  6.04681E+03  5.63087E+03  1.22598E+03  7.68454E+03
 -3.29946E+03  7.11621E+03 -4.44604E+03  2.31958E+03 -2.54004E+03 -1.26980E+03 -6.36945E+02 -9.25874E+02
 -4.60342E+02  3.35881E+02 -1.15447E+03  2.32112E+03 -3.11957E+03  1.27615E+03 -5.01524E+03 -5.28661E+02
 -2.38460E+03 -4.73942E+03  6.00812E+02 -6.20791E+03  3.72324E+03 -5.22465E+03  5.06141E+03 -1.67239E+03
  5.54771E+03  3.14987E+03  2.47771E+03  4.66127E+03 -1.20204E+03  5.92237E+03 -3.93620E+03  3.73262E+03
 -5.05470E+03  5.71763E+02 -4.30876E+03 -3.43668E+03 -3.89079E+02 -4.55650E+03  2.50787E+03 -3.67148E+03
  3.68195E+03 -1.53572E+03  2.48557E+03  6.51302E+02  6.73577E+02  2.06933E+03  8.37381E+02  1.05478E+03
  1.74951E+03  6.95743E+02  1.53538E+03  1.39004E+03  1.42662E+03  2.68202E+03  1.57562E+03  2.61824E+03
 -1.59206E+03  4.19891E+03 -3.33892E+03  5.59368E+03 -4.71783E+03  1.66066E+03 -5.97868E+03 -1.33640E+03
 -2.31982E+03 -5.35053E+03  6.17423E+02 -6.47780E+03  3.06394E+03 -3.68242E+03  4.33792E+03 -1.17312E+03
  3.33519E+03  2.23568E+03  7.23546E+02  3.31009E+03 -1.14240E+03  1.89226E+03 -1.73736E+03 -1.88671E+02
 -9.31673E+02 -2.24005E+03  1.57806E+03 -2.33165E+03  1.89683E+03 -1.28022E+03  1.74595E+03  6.44118E+02
  9.83063E+02  6.75686E+02  8.89328E+02 -1.03452E+02 -5.21910E+02  1.03938E+03  1.59641E+03 -5.02448E+02
  9.91885E+01 -2.71660E+02  2.50782E+03  7.50128E+02  6.96127E+02  3.04678E+03 -4.08409E+02  3.99793E+03
 -2.54484E+03  1.94898E+03 -3.05840E+03  3.14959E+02 -2.92215E+03 -1.17765E+03 -6.19507E+02 -1.42578E+03
  4.47721E+02 -1.96521E+03  1.41337E+03 -1.03826E+03  8.20243E+02  1.43876E+03 -8.66732E+02  1.69546E+03
 -1.84651E+03  1.14320E+03 -1.97150E+03 -1.99358E+03 -1.11648E+03 -2.91158E+03  4.17434E+02 -2.56416E+03
  1.08718E+03 -1.07640E+03  1.54366E+03  9.32793E-01  1.67117E+03  1.04977E+02  4.87193E+02  1.80721E+03
 -5.95521E+02  2.06279E+02 -1.42043E+03 -5.09618E+02  8.45052E+02 -1.57410E+03  2.46030E+03 -1.31420E+03
  2.35938E+03  3.84680E+02  3.65153E+03  1.20244E+03  1.51409E+03  2.51085E+03 -8.93799E+02  2.73105E+03
 -2.27084E+03  5.42961E+02 -2.31722E+03 -2.24536E+02 -1.30394E+03 -1.98049E+03  5.56843E+02 -1.07120E+03
  2.08621E+03 -7.89024E+02  1.57155E+03  9.85470E+02  3.69782E+02  1.80246E+03 -4.47479E+01  1.58379E+03
 -4.45995E+02  1.31836E+03 -6.89036E+02 -4.65277E+00 -2.33725E+02  4.14624E+02 -6.54022E+02  8.20651E+02
 -7.98506E+02  1.35224E+03 -2.61713E+03  8.28708E+02 -2.50964E+03  1.95957E+02 -3.46991E+03 -1.48531E+03
 -1.76252E+03 -3.67054E+03  7.18320E+02 -4.29089E+03  1.99303E+03 -3.41094E+03  4.26813E+03 -1.41601E+03
  3.61831E+03  7.47063E+01  2.16021E+03  2.45925E+03 -7.43242E+02  2.61498E+03 -1.15349E+03  2.16616E+03
 -1.58408E+03  1.03471E+03 -8.51009E+02 -3.25295E+02 -5.02898E+02  1.29215E+02 -8.64559E+02  8.55293E+01
 -1.21875E+03 -1.38095E+02 -1.06137E+03 -3.01187E+02  1.58340E+02 -6.62143E+02 -1.38608E+02 -1.19007E+03
  1.69426E+03 -1.02526E+03  1.11323E+03  3.11254E+02  2.06168E+03  1.76159E+03 -1.53896E+02  2.22902E+03
 -1.65923E+03  3.26181E+03 -2.55699E+03  1.86293E+03 -2.93744E+03 -6.00651E+02 -2.39375E+03 -2.07060E+03
 -9.59610E+02 -2.32387E+03  7.48462E+02 -2.07716E+03  1.04392E+03 -1.11027E+03  1.32019E+03 -1.20706E+02
  1.04720E+03  7.82113E+02 -1.79185E+02  7.05781E+02 -5.16561E+02 -3.90281E+02  5.14158E+01 -7.26712E+02
  6.06891E+02  2.24122E+02  7.15103E+02  3.86542E+02  3.95536E+02  9.51007E+02  5.50544E+02  1.01624E+03
 -1.22113E+03  1.08217E+03 -1.19315E+03  4.02250E+02 -1.38164E+03 -1.16086E+03  7.82782E+01 -2.09293E+03
  1.22540E+03 -1.76382E+03  1.26371E+03 -1.83807E+02  1.91397E+03 -3.93040E+02  1.10343E+03  1.43102E+03
  2.61931E+02  1.41596E+03 -5.39796E+02  1.01872E+03 -9.90661E+02  1.06588E+03 -4.41786E+02  6.49096E+02
 -6.60619E+02 -1.04320E+02 -5.40095E+02  8.68073E+01 -9.72608E+02  3.28924E+02 -1.29448E+03 -3.87916E+02
 -1.63840E+03 -3.36411E+02 -6.25747E+02 -1.56487E+03  1.29161E+03 -1.83053E+03  1.33569E+03 -6.75738E+02
  1.19653E+03  4.16188E+02  1.19439E+01  6.54746E+02 -4.37269E+02  1.56196E+03 -9.95846E+02  9.27319E+02
