 $NMID ID='MM_0lb_SNR800_11hz_g60_75.RAW', FMTDAT='(8E13.5)'
 TRAMP=1., VOLUME=1. $END
  3.10002E+05  3.99737E+02  3.37849E+05  2.50849E+05  8.50134E+04  3.38559E+05 -1.32885E+05  2.51834E+05
 -1.90630E+05  8.35779E+04 -1.12396E+05 -3.22278E+04  3.43853E+02 -5.09267E+04  5.35346E+04 -5.48750E+02
  3.55506E+04  5.34718E+04 -1.67661E+04  7.58467E+04 -6.09407E+04  6.43882E+04 -8.52199E+04  3.26957E+04
 -8.24822E+04 -1.13204E+04 -5.78730E+04 -5.17484E+04 -1.50920E+04 -7.08534E+04  2.75307E+04 -4.67517E+04
  4.15925E+04  3.86721E+03  1.67469E+04  4.85912E+04 -3.50370E+04  4.80098E+04 -6.81255E+04  1.38786E+02
 -5.47640E+04 -5.74801E+04 -7.41660E+03 -7.86200E+04  3.46334E+04 -5.69962E+04  4.93951E+04 -1.80936E+04
  4.53285E+04  1.16833E+04  3.30295E+04  2.65004E+04  1.61199E+04  3.04136E+04 -5.84248E+03  2.80681E+04
 -2.20080E+04  1.21308E+04 -1.81243E+04 -5.41055E+03  7.11619E+03 -7.24034E+03  2.33968E+04  1.35215E+04
  7.06872E+03  3.74302E+04 -3.35811E+04  3.72034E+04 -6.56207E+04  1.79960E+03 -5.90022E+04 -4.45365E+04
 -1.26088E+04 -6.55813E+04  4.18816E+04 -4.72537E+04  6.09566E+04 -2.10729E+03  3.68215E+04  3.40864E+04
 -5.76921E+03  3.91676E+04 -3.14997E+04  1.84233E+04 -3.30946E+04 -3.54781E+03 -1.90148E+04 -1.21722E+04
 -9.20893E+03 -1.48914E+04 -3.02162E+02 -1.96354E+04  8.39926E+03 -2.35686E+04  1.60698E+04 -1.25687E+04
  1.03714E+04  6.23122E+03 -1.01495E+04  1.28637E+04 -2.32892E+04 -6.27168E+03 -8.55784E+03 -3.67313E+04
  2.45384E+04 -4.65987E+04  5.15235E+04 -2.10242E+04  4.82498E+04  2.04520E+04  1.69058E+04  4.71562E+04
 -1.66768E+04  3.59516E+04 -2.74298E+04  2.73931E+03 -1.14705E+04 -2.89428E+04  2.16531E+04 -3.66560E+04
  4.42828E+04 -1.07853E+04  3.97380E+04  2.46010E+04  2.09693E+04  5.04012E+04 -8.42948E+03  5.56354E+04
 -3.48837E+04  3.79284E+04 -4.70001E+04  1.08356E+04 -4.71844E+04 -1.81753E+04 -2.56737E+04 -4.14281E+04
  8.26815E+03 -4.16596E+04  3.40561E+04 -1.66704E+04  3.17585E+04  1.11706E+04  4.96564E+03  2.08664E+04
 -1.40108E+04  9.20749E+03 -1.12976E+04 -7.46937E+03  5.66119E+03 -1.15551E+04  1.85580E+04  5.63596E+03
  1.48955E+04  2.28623E+04 -5.45258E+03  2.65028E+04 -2.32551E+04  1.41229E+04 -3.10457E+04 -3.30559E+03
 -2.43904E+04 -1.83193E+04 -1.12724E+04 -2.46263E+04  4.55859E+03 -2.51830E+04  1.92158E+04 -2.23744E+04
  3.10445E+04 -1.40422E+04  3.76730E+04  4.72432E+03  2.65741E+04  2.37853E+04  4.60095E+03  4.03457E+04
 -1.94839E+04  3.34536E+04 -2.99536E+04  1.11279E+04 -2.23042E+04 -1.02399E+04 -4.85451E+03 -1.27015E+04
  1.08846E+03 -1.49556E+03 -6.96431E+03  7.92567E+03 -1.96472E+04  5.21421E+03 -1.92776E+04 -9.35224E+03
 -1.20052E+04 -2.24556E+04  5.94444E+03 -2.71226E+04  1.80538E+04 -1.88542E+04  2.18801E+04 -1.95998E+03
  1.38106E+04  1.56674E+04 -1.37917E+03  2.23395E+04 -1.60174E+04  1.29931E+04 -2.26369E+04 -4.66886E+03
 -1.65979E+04 -2.02946E+04 -1.86521E+03 -2.71161E+04  1.22377E+04 -2.25330E+04  2.25581E+04 -1.16930E+04
  2.13552E+04  3.47508E+00  1.53053E+04  4.94006E+03  8.46274E+03  1.32439E+03  1.15149E+04 -1.82129E+03
  2.10590E+04  3.20509E+03  2.43949E+04  1.75424E+04  1.66827E+04  3.62366E+04 -2.66583E+03  4.24125E+04
 -2.42805E+04  3.52138E+04 -3.99613E+04  1.80478E+04 -4.23724E+04 -3.34653E+03 -3.47613E+04 -2.49448E+04
 -1.38595E+04 -3.55065E+04  1.24027E+04 -3.10950E+04  2.66863E+04 -1.48604E+04  2.33665E+04  7.24640E+03
  7.84031E+03  1.75045E+04 -1.11635E+04  1.49372E+04 -1.94996E+04  2.90210E+03 -1.46118E+04 -1.20643E+04
 -3.31763E+02 -1.87861E+04  1.01396E+04 -1.38428E+04  1.28184E+04 -1.51970E+03  3.48156E+03  8.72129E+03
 -8.04726E+03  3.61144E+03 -8.70030E+03 -6.62291E+03 -1.57331E+03 -1.75724E+04  1.14851E+04 -1.82597E+04
  2.15093E+04 -1.02935E+04  2.45286E+04  3.52407E+03  2.12930E+04  1.76545E+04  9.56549E+03  2.73696E+04
 -5.15417E+03  2.93376E+04 -1.88339E+04  1.82212E+04 -2.12073E+04  3.91678E+03 -1.45219E+04 -5.43969E+03
 -5.90804E+03 -7.23324E+03 -7.13115E+02  9.79196E+02 -3.08067E+03  2.84916E+03 -6.67330E+03  5.39850E+03
 -1.33407E+04 -6.47871E+02 -1.38466E+04 -1.14741E+04 -5.79086E+03 -1.82875E+04  6.00511E+03 -1.51962E+04
  1.23147E+04 -6.48022E+03  8.67922E+03  3.72758E+03 -2.38400E+02  6.00516E+03 -7.08101E+03  1.52643E+02
 -6.75725E+03 -9.94147E+03 -9.72997E+02 -1.42415E+04  8.44727E+03 -1.51961E+04  1.84342E+04 -8.43735E+03
  2.16987E+04  2.27613E+03  1.57400E+04  1.35616E+04  3.29529E+03  1.77173E+04 -9.22450E+03  1.45801E+04
 -1.19094E+04  4.40063E+03 -5.81587E+03 -3.19982E+03  2.00789E+03 -3.90252E+03  7.74835E+03 -9.80738E+02
  7.13423E+03  6.09740E+03  1.00384E+03  1.18999E+04 -8.18593E+03  1.08709E+04 -1.42919E+04  2.47625E+03
 -1.00509E+04 -7.99369E+03 -8.01957E+01 -1.26881E+04  8.40876E+03 -6.36399E+03  8.21675E+03  2.95122E+03
  2.06966E+03  9.24560E+03 -7.19083E+03  1.04875E+04 -1.21832E+04  4.54278E+03 -1.25842E+04 -4.53599E+03
 -6.86887E+03 -1.43920E+04  3.65130E+03 -1.65893E+04  1.40868E+04 -9.66424E+03  1.54725E+04  2.84383E+03
  8.88685E+03  1.22324E+04 -1.05209E+03  1.44108E+04 -1.08077E+04  8.03261E+03 -1.14771E+04 -9.75474E+02
 -9.64687E+03 -9.69476E+03 -1.49789E+03 -1.07298E+04  5.46643E+03 -9.03198E+03  6.99278E+03 -3.37228E+03
  4.74528E+03  2.11061E+03 -1.06199E+03  1.86354E+03 -7.81019E+02 -2.63034E+03  2.22972E+03 -6.50443E+03
  1.03272E+04 -4.24732E+03  1.44833E+04  1.64604E+03  1.36720E+04  9.76730E+03  9.11353E+03  1.86262E+04
 -4.79264E+03  2.15565E+04 -1.77344E+04  1.56239E+04 -2.28722E+04  3.05645E+03 -1.88386E+04 -8.13221E+03
 -9.51544E+03 -1.51187E+04 -4.81744E+02 -1.31589E+04  4.81131E+03 -7.61381E+03  4.31644E+03 -5.10444E+03
  3.20359E+03 -2.84372E+03  3.91273E+03 -3.62342E+03  5.73369E+03 -2.98118E+03  7.02135E+03 -1.49532E+03
  9.65203E+03  1.92968E+03  4.75990E+03  8.29513E+03 -2.09599E+03  9.65383E+03 -1.01198E+04  7.68004E+03
 -1.27254E+04 -1.09199E+03 -8.22810E+03 -8.92281E+03 -7.44279E+02 -1.42887E+04  7.79761E+03 -1.37962E+04
  1.41031E+04 -7.66485E+03  1.73393E+04  1.86056E+03  1.20302E+04  1.18668E+04  1.54207E+03  1.53833E+04
 -6.57781E+03  1.27963E+04 -8.95367E+03  3.90078E+03 -5.89457E+03 -1.61144E+03 -2.87369E+03 -1.97286E+03
 -1.43338E+03 -1.51853E+02 -2.43161E+03  2.66955E+03 -5.72399E+03  1.77215E+03 -8.84788E+03 -1.41611E+03
 -6.38344E+03 -8.97858E+03  2.29765E+02 -1.23216E+04  7.67498E+03 -1.18399E+04  1.25118E+04 -3.59106E+03
  1.21991E+04  6.15909E+03  6.11254E+03  1.11587E+04 -2.67036E+03  1.29660E+04 -8.97734E+03  8.04717E+03
 -1.16025E+04  6.12526E+02 -9.63449E+03 -7.98948E+03 -1.06245E+03 -1.05147E+04  5.12388E+03 -7.72528E+03
  7.98610E+03 -2.77735E+03  5.14418E+03  1.72522E+03  2.21160E+03  3.76335E+03  1.57015E+03  1.72682E+03
  2.22323E+03  8.74910E+02  2.97709E+03  1.77770E+03  3.81513E+03  4.63670E+03  3.47318E+03  6.32117E+03
 -2.63995E+03  1.02926E+04 -8.67578E+03  1.00092E+04 -1.26595E+04  2.70552E+03 -1.33231E+04 -5.05773E+03
 -6.38812E+03 -1.23602E+04  1.70172E+03 -1.36030E+04  7.58832E+03 -8.94225E+03  1.02873E+04 -2.53328E+03
  7.99294E+03  4.85610E+03  1.53677E+03  7.18010E+03 -3.31557E+03  4.61215E+03 -5.08331E+03 -7.44561E+02
 -2.08108E+03 -5.91475E+03  3.04943E+03 -5.48018E+03  5.06520E+03 -2.60860E+03  5.06666E+03  1.17934E+03
  3.03540E+03  2.60504E+03  1.48371E+03  1.91523E+03 -8.34710E+02  1.87263E+03  1.76095E+03 -5.26428E+02
  1.71711E+03 -6.36369E+02  5.04872E+03  2.11756E+03  2.73396E+03  6.83586E+03 -1.22526E+03  8.97393E+03
 -5.84701E+03  5.63639E+03 -7.97459E+03  1.36099E+03 -7.17274E+03 -2.51447E+03 -2.17270E+03 -4.40139E+03
  1.20941E+03 -5.23472E+03  3.40710E+03 -2.70976E+03  2.78440E+03  2.52604E+03 -1.37110E+03  3.92854E+03
 -5.10552E+03  2.23589E+03 -5.94035E+03 -3.19751E+03 -3.40771E+03 -6.71145E+03  9.11070E+02 -6.74007E+03
  3.97011E+03 -3.73116E+03  5.07768E+03 -6.99059E+02  3.82491E+03  1.74022E+03  6.59821E+02  3.59295E+03
 -2.39257E+03  1.19189E+03 -2.92584E+03 -2.03074E+03  1.51152E+03 -5.26748E+03  6.03755E+03 -4.02870E+03
  7.23915E+03  4.73789E+02  7.47607E+03  5.08192E+03  2.45121E+03  8.08248E+03 -2.94964E+03  7.24540E+03
 -6.47050E+03  2.98510E+03 -6.67724E+03 -9.95890E+02 -3.87545E+03 -4.98017E+03  9.20513E+02 -4.87419E+03
  5.18225E+03 -2.56888E+03  3.82013E+03  2.12251E+03  1.44050E+03  4.55320E+03 -4.51428E+02  3.83695E+03
 -1.83229E+03  2.70051E+03 -1.63186E+03  7.01990E+02 -6.61994E+02  6.22075E+02 -1.37626E+03  1.95867E+03
 -1.93505E+03  3.02951E+03 -5.34078E+03  2.60797E+03 -7.31986E+03  2.43671E+02 -8.58807E+03 -5.21254E+03
 -4.66470E+03 -1.01228E+04  1.96224E+03 -1.19256E+04  7.02804E+03 -9.21271E+03  1.14462E+04 -3.51760E+03
  1.07283E+04  1.97159E+03  6.11336E+03  6.95725E+03  1.10852E+02  7.97145E+03 -3.36482E+03  6.13182E+03
 -4.68334E+03  2.06337E+03 -2.82050E+03 -8.53771E+02 -6.75087E+02 -6.54415E+02 -5.53783E+02 -8.08446E+00
 -2.08832E+03  4.54116E+02 -1.82970E+03 -4.03217E+02 -6.89640E+02 -1.95284E+03 -1.28559E+02 -3.25177E+03
  3.63932E+03 -2.57989E+03  4.61861E+03  2.54184E+02  5.31251E+03  4.06832E+03  1.27216E+03  7.85888E+03
 -3.84046E+03  8.66029E+03 -8.33559E+03  5.14249E+03 -9.66493E+03 -6.79989E+02 -6.98181E+03 -5.90416E+03
 -3.27908E+03 -8.07872E+03  2.02033E+03 -7.36492E+03  4.81539E+03 -3.89629E+03  4.71228E+03  3.19086E+02
  3.07884E+03  2.13548E+03 -2.21999E+02  2.14717E+03 -1.46512E+03 -3.30464E+02 -7.08776E+01 -1.87475E+03
  2.50137E+03 -1.03977E+03  2.86131E+03  6.54427E+02  1.78103E+03  2.99948E+03  1.94014E+02  3.88680E+03
 -3.54966E+03  3.26845E+03 -4.92411E+03  3.68335E+02 -4.57682E+03 -3.34535E+03 -6.51522E+02 -5.98051E+03
  3.53501E+03 -5.08090E+03  5.68175E+03 -1.23208E+03  6.06837E+03  1.01335E+03  3.19843E+03  4.89754E+03
  8.60008E+02  4.51112E+03 -2.17509E+03  3.86100E+03 -3.05325E+03  2.04566E+03 -2.56225E+03  4.66550E+02
 -1.43667E+03 -2.97059E+02 -1.27578E+03  8.79934E+02 -2.70405E+03  9.97704E+02 -3.97153E+03 -7.59707E+02
 -3.62353E+03 -2.86571E+03 -1.21769E+03 -5.12084E+03  2.10534E+03 -5.41567E+03  4.31620E+03 -2.37769E+03
  5.12576E+03  4.47787E+02  1.98190E+03  3.41995E+03 -1.75665E+02  4.65018E+03 -3.45298E+03  3.58883E+03
