 $NMID ID='MM_0lb_SNR800_20hz_g40_14.RAW', FMTDAT='(8E13.5)'
 TRAMP=1., VOLUME=1. $END
  3.09907E+05  2.35101E+02  3.37034E+05  2.50253E+05  8.43621E+04  3.37061E+05 -1.32139E+05  2.49703E+05
 -1.89453E+05  8.19949E+04 -1.10616E+05 -3.28771E+04  1.76494E+03 -5.03182E+04  5.39480E+04  5.45878E+02
  3.49213E+04  5.27745E+04 -1.71964E+04  7.45416E+04 -6.02987E+04  6.23649E+04 -8.22059E+04  3.12899E+04
 -7.89377E+04 -1.07004E+04 -5.57370E+04 -4.95565E+04 -1.47792E+04 -6.77578E+04  2.64949E+04 -4.40643E+04
  3.84970E+04  4.08697E+03  1.54078E+04  4.68029E+04 -3.38069E+04  4.57113E+04 -6.48263E+04 -7.47277E+02
 -5.11638E+04 -5.54311E+04 -5.99512E+03 -7.41285E+04  3.26829E+04 -5.21315E+04  4.51967E+04 -1.58642E+04
  4.06006E+04  1.09657E+04  3.03704E+04  2.37939E+04  1.56756E+04  2.75335E+04 -4.61967E+03  2.65482E+04
 -2.14719E+04  1.30363E+04 -1.94811E+04 -4.07767E+03  3.40812E+03 -7.76090E+03  2.06409E+04  1.02419E+04
  7.42888E+03  3.20667E+04 -2.97330E+04  3.29871E+04 -5.99834E+04  2.19597E+03 -5.45581E+04 -4.01282E+04
 -1.24800E+04 -5.94760E+04  3.72029E+04 -4.22473E+04  5.42632E+04 -1.69753E+03  3.06314E+04  2.96523E+04
 -6.82691E+03  3.16285E+04 -2.74842E+04  1.18650E+04 -2.62767E+04 -6.03702E+03 -1.31214E+04 -9.57544E+03
 -6.90784E+03 -1.06350E+04 -1.02240E+03 -1.60102E+04  6.00114E+03 -2.24114E+04  1.48912E+04 -1.41507E+04
  1.25742E+04  3.62681E+03 -5.43188E+03  1.29972E+04 -1.82481E+04 -1.37086E+03 -7.80589E+03 -2.83842E+04
  1.95831E+04 -3.89566E+04  4.28945E+04 -1.77778E+04  4.03478E+04  1.74155E+04  1.36647E+04  4.03991E+04
 -1.49658E+04  3.01527E+04 -2.23319E+04  6.58765E+02 -7.49455E+03 -2.56406E+04  1.99354E+04 -2.97390E+04
  3.66872E+04 -6.26025E+03  2.92668E+04  2.20708E+04  1.41790E+04  4.06087E+04 -7.68658E+03  4.29165E+04
 -2.68688E+04  2.78596E+04 -3.52288E+04  7.63311E+03 -3.61097E+04 -1.44086E+04 -1.99699E+04 -3.25283E+04
  6.89754E+03 -3.21907E+04  2.78537E+04 -1.17135E+04  2.54412E+04  1.05176E+04  2.34966E+03  1.70851E+04
 -1.29450E+04  7.14398E+03 -9.24852E+03 -7.75346E+03  6.03635E+03 -9.75725E+03  1.69380E+04  6.69083E+03
  1.15772E+04  2.13872E+04 -6.70776E+03  2.24965E+04 -2.08337E+04  8.24770E+03 -2.37295E+04 -7.02611E+03
 -1.50806E+04 -1.60846E+04 -4.35184E+03 -1.48399E+04  3.53584E+03 -1.24888E+04  1.09463E+04 -1.28275E+04
  1.91190E+04 -1.10067E+04  2.62748E+04  2.77565E+02  2.01479E+04  1.48631E+04  3.97439E+03  3.06553E+04
 -1.54526E+04  2.63288E+04 -2.48272E+04  8.81482E+03 -1.91567E+04 -1.04089E+04 -3.94649E+03 -1.39603E+04
  2.78102E+03 -4.62227E+03 -1.70460E+03  4.90205E+03 -1.16514E+04  5.22653E+03 -1.22184E+04 -3.93701E+03
 -8.17203E+03 -1.37820E+04  4.16783E+03 -1.77235E+04  1.13933E+04 -1.27781E+04  1.31631E+04 -1.33095E+03
  7.80291E+03  9.67993E+03 -9.83160E+02  1.41853E+04 -9.29305E+03  7.91068E+03 -1.39009E+04 -3.00808E+03
 -1.04945E+04 -1.29793E+04 -1.30335E+03 -1.72879E+04  7.62285E+03 -1.37230E+04  1.46950E+04 -6.34268E+03
  1.31499E+04  7.47318E+02  9.51668E+03  3.69950E+03  4.70244E+03  4.26872E+02  6.76802E+03 -1.13621E+03
  1.21954E+04  2.70221E+03  1.29949E+04  1.17359E+04  7.80704E+03  2.26169E+04 -3.08594E+03  2.33421E+04
 -1.39328E+04  1.75204E+04 -2.16609E+04  8.08649E+03 -2.15189E+04 -1.14455E+03 -1.87088E+04 -1.22568E+04
 -9.25008E+03 -1.75757E+04  5.64621E+03 -1.68227E+04  1.46374E+04 -1.00962E+04  1.42548E+04  2.85859E+03
  6.04779E+03  9.77630E+03 -6.29427E+03  9.70697E+03 -1.21367E+04  2.72978E+03 -9.75938E+03 -7.02710E+03
 -1.85881E+01 -1.13515E+04  5.44531E+03 -8.66071E+03  7.27380E+03 -1.41930E+03  1.11162E+03  4.18131E+03
 -5.13057E+03  8.08975E+02 -2.91109E+03 -4.04566E+03  1.06286E+03 -8.81055E+03  7.06091E+03 -8.59889E+03
  1.07940E+04 -3.55104E+03  9.88091E+03  2.48416E+03  8.41756E+03  8.00798E+03  4.15457E+03  1.18358E+04
 -1.11599E+03  1.35369E+04 -8.25419E+03  8.80967E+03 -9.30214E+03  2.96846E+03 -7.43194E+03 -1.45601E+03
 -4.42678E+03 -2.86868E+03 -1.05726E+03  1.55403E+03 -1.75164E+03  1.71560E+03 -3.21812E+03  3.16174E+03
 -7.03852E+03 -4.89762E+02 -7.72999E+03 -6.53274E+03 -3.42392E+03 -1.02457E+04  3.05192E+03 -7.38678E+03
  6.35345E+03 -3.24023E+03  4.86203E+03  1.71635E+03  5.93223E+02  2.63630E+03 -2.98156E+03  6.10975E+01
 -2.78779E+03 -4.46169E+03 -7.26934E+02 -6.08656E+03  2.98196E+03 -6.58352E+03  8.57901E+03 -3.04008E+03
  9.91411E+03  2.40718E+02  7.61286E+03  4.81895E+03  1.59722E+03  7.17685E+03 -4.72202E+03  7.21706E+03
 -6.10013E+03  2.38461E+03 -3.10350E+03 -6.60031E+02  1.02467E+03 -1.78124E+03  4.05030E+03 -1.14977E+03
  3.72348E+03  2.80359E+03  1.02510E+03  5.68457E+03 -4.00506E+03  5.85739E+03 -6.81873E+03  1.79882E+03
 -3.90526E+03 -3.08172E+03  2.99224E+02 -5.96813E+03  3.11091E+03 -3.08780E+03  2.57626E+03  6.06657E+02
  8.57644E+01  2.33249E+03 -3.47326E+03  3.79483E+03 -3.58418E+03  1.90575E+03 -3.12802E+03 -6.10664E+02
 -2.50347E+03 -4.85648E+03  8.48462E+02 -5.65099E+03  4.62334E+03 -3.68648E+03  5.12821E+03  7.21686E+02
  4.18041E+03  4.09982E+03  3.73586E+02  6.33069E+03 -4.25024E+03  3.57923E+03 -4.33344E+03 -4.12499E+02
 -5.08782E+03 -4.67892E+03 -1.26371E+03 -4.55187E+03  2.02574E+03 -4.10845E+03  2.27524E+03 -2.84566E+03
  2.30903E+03 -3.99641E+01 -4.21777E+00  1.15109E+03  8.24230E+02  1.62428E+02 -4.33975E+02 -9.98263E+02
  3.18063E+03 -6.03526E+02  4.13547E+03  5.97310E+02  4.53204E+03  2.33731E+03  5.03896E+03  5.68153E+03
 -7.25858E+02  6.61124E+03 -6.09853E+03  5.10264E+03 -8.33048E+03  7.83182E+02 -6.28526E+03 -1.67588E+03
 -3.38033E+03 -5.45527E+03 -1.77036E+02 -4.30630E+03  1.68397E+03 -1.47047E+03  1.44033E+03 -1.74721E+03
  7.86307E+02 -1.31680E+03  2.16117E+03 -2.05203E+03  3.19907E+03 -9.48530E+02  3.07807E+03  7.27691E+02
  3.91756E+03  1.14309E+03  5.57449E+02  2.83441E+03 -1.46989E+03  1.87117E+03 -3.34980E+03  2.12451E+03
 -3.98940E+03 -9.39957E+02 -1.29166E+03 -2.81331E+03  4.57270E+02 -4.10213E+03  2.65767E+03 -4.28094E+03
  4.27132E+03 -2.87226E+03  5.46681E+03 -1.44408E+02  4.10498E+03  3.25895E+03  9.33745E+02  4.81203E+03
 -1.69603E+03  4.96104E+03 -2.76912E+03  1.51637E+03 -1.30811E+03 -1.03002E+03 -3.20690E+02 -3.64957E+02
 -3.39034E+02  3.83515E+02 -8.73815E+02  2.03802E+03 -2.41635E+03  8.34267E+02 -3.39270E+03 -3.46270E+02
 -1.04830E+03 -3.66136E+03  5.33996E+02 -3.47477E+03  2.31836E+03 -3.46845E+03  2.55506E+03 -8.14589E+02
  3.44011E+03  1.70300E+03  1.32442E+03  2.50830E+03 -5.51295E+02  3.63571E+03 -1.89922E+03  2.18455E+03
 -2.74784E+03  6.61325E+02 -2.80119E+03 -1.89914E+03 -8.39299E+00 -2.42861E+03  1.25192E+03 -1.98860E+03
  1.98358E+03 -1.18772E+03  1.22084E+03  2.11504E+02  3.17512E+02  1.45092E+03  7.61671E+02  4.84116E+02
  1.59219E+03  7.36455E+02  1.13140E+03  9.45314E+02  7.47871E+02  2.11258E+03  1.15032E+03  1.01329E+03
 -1.10559E+03  1.96286E+03 -1.76103E+03  3.15412E+03 -2.17092E+03  1.17380E+03 -3.08895E+03  6.01448E+00
 -1.29442E+03 -2.89123E+03  1.40290E+02 -3.73183E+03  1.42381E+03 -1.84002E+03  2.51183E+03 -1.01298E+03
  2.04202E+03  1.67661E+03  2.85619E+02  1.79917E+03 -3.59750E+02  8.60667E+02 -7.53568E+02 -4.17714E+01
 -4.37379E+02 -1.07952E+03  1.25597E+03 -1.20926E+03  8.07396E+02 -9.03195E+02  8.99012E+02  2.76289E+02
  7.68227E+02 -5.62748E+01  5.25995E+02 -4.60751E+02 -3.03436E+02  5.52545E+02  1.51697E+03 -1.06898E+02
 -1.60101E+02 -2.60466E+02  1.29306E+03  5.83656E+02  2.94580E+01  1.87275E+03 -1.63081E+02  2.50848E+03
 -1.00221E+03  7.56303E+02 -1.38756E+03  4.06625E+02 -1.72709E+03 -5.72109E+02 -8.89465E+01 -7.91989E+02
  3.78318E+02 -8.36046E+02  6.91650E+02 -6.51241E+02  3.94801E+02  1.05666E+03 -7.14723E+02  7.92149E+02
 -1.24515E+03  5.72528E+02 -1.07601E+03 -1.07859E+03 -3.92185E+02 -1.72698E+03  1.08039E+02 -1.23661E+03
  1.42457E+02 -2.91051E+02  6.05062E+02  4.14717E+02  1.23067E+03 -1.52515E+02  3.92967E+02  1.21753E+03
  1.15009E+01 -3.45611E+01 -7.55047E+02 -7.20534E+01  6.24836E+02 -4.91123E+02  1.35245E+03 -4.21788E+02
  7.98838E+02  1.16832E+02  2.24528E+03  4.13352E+02  8.36505E+02  1.01255E+03 -4.64444E+01  1.21392E+03
 -1.07727E+03 -3.21060E+01 -8.05102E+02  1.68055E+01 -6.42319E+02 -1.06329E+03  3.28755E+02 -4.58718E+02
  1.16569E+03 -6.19760E+02  5.26471E+02  5.13142E+02  2.13899E-01  1.13372E+03  2.48230E+02  9.19087E+02
 -3.01727E+02  1.03400E+03 -2.79827E+02  1.89294E+02  2.07282E+02  4.51117E+02 -7.36659E+02  3.82413E+02
 -3.64745E+02  8.61954E+02 -1.31386E+03  3.64093E+02 -1.28117E+03  3.79063E+02 -2.25985E+03 -8.47167E+02
 -8.93771E+02 -1.67078E+03  4.57557E+02 -2.04530E+03  7.27845E+02 -1.83985E+03  2.07505E+03 -8.63852E+02
  1.44626E+03 -4.35688E+02  1.02307E+03  1.17984E+03 -5.81592E+02  8.46287E+02 -4.56559E+02  1.17263E+03
 -9.31462E+02  6.40173E+02 -4.45478E+02 -3.15054E+00 -3.52012E+02  4.53174E+02 -7.17660E+02  4.45323E+01
 -1.03479E+03 -3.08492E+01 -8.52125E+02  9.57984E+00  1.64157E+02 -5.28207E+02 -3.59912E+02 -6.39958E+02
  1.03027E+03 -4.82781E+02  2.29215E+02 -1.04030E+02  1.03077E+03  9.59852E+02 -6.40999E+02  1.11670E+03
 -6.75671E+02  1.94533E+03 -1.43753E+03  5.61870E+02 -1.29061E+03 -2.77064E+02 -8.80489E+02 -7.84050E+02
 -1.06261E+03 -1.17749E+03 -2.58439E+01 -1.00856E+03  4.61660E+02  3.32341E+01  6.23763E+02  1.70159E+02
  6.12943E+02  2.91644E+02  3.97515E+02 -3.73518E+01 -5.24324E+02 -4.53279E+01 -3.87865E+02 -3.28913E+02
  4.09381E+02  8.26022E+01 -4.40980E+01  5.04413E+02 -1.18279E+02  3.51667E+02  2.94369E+02  1.19182E+02
 -5.80536E+02  5.72641E+02 -3.78018E+02  4.94050E+01 -8.01228E+02 -1.54448E+02  1.28102E+02 -8.63663E+02
  3.88968E+02 -4.81623E+02  1.53623E+02 -1.87895E+02  7.41471E+02 -7.36926E+02  2.81133E+02  5.30426E+02
  3.07245E+02  6.37329E+01 -1.48503E+02  5.67438E+02 -4.73817E+02  6.71396E+02 -3.92698E+02  4.86310E+01
 -3.78754E+02  2.34567E+01 -3.26587E+02  9.99866E+01 -5.81137E+02  6.27579E+01 -9.54845E+02 -4.55336E+02
 -1.05858E+03  7.46036E+02 -3.92995E+02 -9.20201E+02  4.43579E+02 -1.17298E+03  4.12208E+02 -2.72604E+01
  6.04393E+02 -2.77904E+02 -4.01302E+02  2.31815E+01 -6.67714E+01  5.24700E+02 -1.50889E+02  4.11309E+02
