 $NMID ID='MM_0lb_SNR800_8hz_g55_74.RAW', FMTDAT='(8E13.5)'
 TRAMP=1., VOLUME=1. $END
  3.09706E+05  7.37572E+02  3.38265E+05  2.51206E+05  8.46359E+04  3.38833E+05 -1.32539E+05  2.52325E+05
 -1.91345E+05  8.37818E+04 -1.13179E+05 -3.21267E+04  2.79661E+02 -5.07873E+04  5.37503E+04 -9.87543E+02
  3.57241E+04  5.27124E+04 -1.67768E+04  7.60062E+04 -6.14119E+04  6.46757E+04 -8.57357E+04  3.30769E+04
 -8.30238E+04 -1.20938E+04 -5.84754E+04 -5.29135E+04 -1.54027E+04 -7.14723E+04  2.84777E+04 -4.72118E+04
  4.16448E+04  3.84955E+03  1.67170E+04  4.88987E+04 -3.52762E+04  4.83505E+04 -6.85615E+04  7.88154E+01
 -5.53287E+04 -5.83221E+04 -8.17089E+03 -7.97579E+04  3.48893E+04 -5.76025E+04  5.00836E+04 -1.83782E+04
  4.56072E+04  1.13806E+04  3.33498E+04  2.69115E+04  1.60294E+04  3.07591E+04 -5.91343E+03  2.76923E+04
 -2.26409E+04  1.20223E+04 -1.78750E+04 -5.60379E+03  7.44068E+03 -7.58192E+03  2.35701E+04  1.43666E+04
  7.59771E+03  3.82274E+04 -3.44882E+04  3.76790E+04 -6.65783E+04  2.36375E+03 -5.94530E+04 -4.53616E+04
 -1.28625E+04 -6.64994E+04  4.20887E+04 -4.81473E+04  6.19260E+04 -2.09673E+03  3.73394E+04  3.49285E+04
 -5.50606E+03  4.04118E+04 -3.26708E+04  1.94365E+04 -3.39807E+04 -3.20223E+03 -2.01506E+04 -1.18677E+04
 -9.67576E+03 -1.54566E+04 -3.85669E+01 -2.02500E+04  8.92869E+03 -2.37197E+04  1.60301E+04 -1.24908E+04
  1.02424E+04  6.34315E+03 -1.08874E+04  1.30664E+04 -2.41627E+04 -7.25033E+03 -8.71395E+03 -3.88118E+04
  2.61567E+04 -4.78580E+04  5.31713E+04 -2.11718E+04  4.94332E+04  2.09176E+04  1.79488E+04  4.80749E+04
 -1.69758E+04  3.69355E+04 -2.82582E+04  2.89263E+03 -1.22341E+04 -3.01765E+04  2.19057E+04 -3.78693E+04
  4.57637E+04 -1.15888E+04  4.17022E+04  2.58346E+04  2.21517E+04  5.27501E+04 -9.13245E+03  5.80579E+04
 -3.63957E+04  3.97040E+04 -4.87632E+04  1.13104E+04 -4.86342E+04 -1.90780E+04 -2.69094E+04 -4.32599E+04
  7.78101E+03 -4.28681E+04  3.52859E+04 -1.75784E+04  3.25810E+04  1.15064E+04  5.25180E+03  2.12153E+04
 -1.42154E+04  9.92622E+03 -1.17629E+04 -7.67613E+03  5.62021E+03 -1.17529E+04  1.92015E+04  5.29629E+03
  1.54140E+04  2.26255E+04 -5.19835E+03  2.77827E+04 -2.40794E+04  1.50230E+04 -3.25373E+04 -2.52240E+03
 -2.70654E+04 -1.90591E+04 -1.26557E+04 -2.64419E+04  4.75021E+03 -2.75515E+04  2.05479E+04 -2.47203E+04
  3.37737E+04 -1.41759E+04  3.91475E+04  5.38716E+03  2.79843E+04  2.58365E+04  4.52763E+03  4.30135E+04
 -2.01398E+04  3.50176E+04 -3.15114E+04  1.24040E+04 -2.29139E+04 -1.00895E+04 -4.82348E+03 -1.29597E+04
  3.53648E+02 -9.16580E+02 -8.60024E+03  8.79043E+03 -2.14806E+04  4.81251E+03 -2.15023E+04 -9.88962E+03
 -1.21305E+04 -2.49144E+04  6.84859E+03 -2.88931E+04  1.98691E+04 -2.04167E+04  2.42914E+04 -1.77398E+03
  1.56269E+04  1.68601E+04 -1.96244E+03  2.42965E+04 -1.75514E+04  1.38313E+04 -2.47456E+04 -5.24648E+03
 -1.82048E+04 -2.21389E+04 -2.28137E+03 -2.93936E+04  1.32037E+04 -2.45513E+04  2.44025E+04 -1.28508E+04
  2.33314E+04 -5.52910E+01  1.67643E+04  5.34619E+03  9.38292E+03  1.50334E+03  1.28072E+04 -2.11882E+03
  2.34210E+04  2.84331E+03  2.74859E+04  1.93016E+04  1.87104E+04  4.04102E+04 -2.86864E+03  4.74488E+04
 -2.71902E+04  4.00721E+04 -4.50272E+04  2.10791E+04 -4.81481E+04 -3.49026E+03 -3.88612E+04 -2.81395E+04
 -1.47897E+04 -4.02909E+04  1.43140E+04 -3.47952E+04  3.02733E+04 -1.63885E+04  2.62054E+04  8.40980E+03
  8.13311E+03  2.03016E+04 -1.25398E+04  1.67815E+04 -2.14266E+04  2.62927E+03 -1.63860E+04 -1.38657E+04
 -2.55182E+02 -2.04315E+04  1.10209E+04 -1.54037E+04  1.40216E+04 -1.50171E+03  3.60869E+03  9.11578E+03
 -9.18257E+03  5.11906E+03 -1.03472E+04 -7.81705E+03 -2.30426E+03 -1.94449E+04  1.25581E+04 -2.15062E+04
  2.47470E+04 -1.22385E+04  2.91928E+04  3.00277E+03  2.52457E+04  2.03215E+04  1.16417E+04  3.21392E+04
 -6.79961E+03  3.39072E+04 -2.23585E+04  2.10044E+04 -2.49674E+04  4.28323E+03 -1.66888E+04 -6.23588E+03
 -6.88649E+03 -8.09703E+03 -6.05030E+02  3.20331E+02 -3.03879E+03  3.70118E+03 -8.22567E+03  5.33421E+03
 -1.58324E+04 -1.15966E+03 -1.62245E+04 -1.25558E+04 -6.27205E+03 -2.11426E+04  6.89147E+03 -1.73045E+04
  1.38051E+04 -6.68914E+03  9.88809E+03  5.02323E+03 -4.73153E+02  6.67312E+03 -8.81099E+03 -2.98308E+02
 -8.39668E+03 -1.09001E+04 -1.20702E+03 -1.72729E+04  9.99715E+03 -1.78743E+04  2.21751E+04 -9.75463E+03
  2.57780E+04  2.46780E+03  1.89771E+04  1.58969E+04  3.25935E+03  2.10083E+04 -1.03062E+04  1.72875E+04
 -1.37694E+04  4.35247E+03 -7.02407E+03 -4.01412E+03  2.24913E+03 -4.97198E+03  9.47758E+03 -1.00724E+03
  8.37092E+03  7.97727E+03  1.06424E+03  1.37564E+04 -1.03474E+04  1.36952E+04 -1.71855E+04  2.91856E+03
 -1.15281E+04 -9.13255E+03  2.81290E+02 -1.50706E+04  9.73283E+03 -7.63239E+03  1.08612E+04  3.57381E+03
  2.91044E+03  1.14334E+04 -9.44278E+03  1.27009E+04 -1.51137E+04  5.64343E+03 -1.57998E+04 -5.66583E+03
 -9.07668E+03 -1.78392E+04  4.07815E+03 -2.01571E+04  1.74441E+04 -1.22962E+04  1.96633E+04  3.43842E+03
  1.09568E+04  1.46811E+04 -1.87271E+03  1.77672E+04 -1.32100E+04  9.91863E+03 -1.43611E+04 -1.91533E+03
 -1.20088E+04 -1.17063E+04 -1.74038E+03 -1.39551E+04  7.38884E+03 -1.04155E+04  8.95540E+03 -3.49845E+03
  5.66332E+03  2.37071E+03 -1.76468E+03  1.97057E+03 -1.11450E+03 -4.23727E+03  3.53073E+03 -8.58653E+03
  1.31243E+04 -5.45410E+03  1.86233E+04  2.04559E+03  1.76939E+04  1.26048E+04  1.13894E+04  2.43758E+04
 -5.73472E+03  2.71008E+04 -2.23139E+04  2.01263E+04 -2.88972E+04  3.81277E+03 -2.37556E+04 -1.07147E+04
 -1.17389E+04 -1.92128E+04 -3.68692E+02 -1.65230E+04  5.79598E+03 -9.80909E+03  5.87494E+03 -5.79220E+03
  4.05418E+03 -3.38199E+03  4.89345E+03 -4.08915E+03  6.31223E+03 -4.28033E+03  9.17757E+03 -1.53822E+03
  1.21150E+04  2.47226E+03  6.88279E+03  1.10153E+04 -2.33257E+03  1.32336E+04 -1.29886E+04  1.02098E+04
 -1.69075E+04 -1.49927E+03 -1.13550E+04 -1.19528E+04 -1.27531E+03 -1.84209E+04  9.93967E+03 -1.77413E+04
  1.92407E+04 -1.00790E+04  2.19570E+04  3.16620E+03  1.52795E+04  1.61209E+04  2.45081E+03  2.05552E+04
 -8.75904E+03  1.66743E+04 -1.17634E+04  5.60660E+03 -8.32505E+03 -1.95676E+03 -3.29353E+03 -2.40546E+03
 -1.53684E+03 -6.11821E+02 -2.85804E+03  2.91455E+03 -7.08064E+03  2.71438E+03 -1.14640E+04 -1.65123E+03
 -8.54966E+03 -1.14965E+04 -1.64596E+02 -1.70714E+04  1.08718E+04 -1.62135E+04  1.65853E+04 -4.84509E+03
  1.72013E+04  8.60571E+03  8.02996E+03  1.56457E+04 -3.63967E+03  1.73595E+04 -1.28835E+04  1.05289E+04
 -1.64748E+04  1.27126E+03 -1.24530E+04 -1.05407E+04 -1.68799E+03 -1.44861E+04  7.14485E+03 -9.92437E+03
  1.10923E+04 -3.26407E+03  7.13713E+03  3.12001E+03  3.01700E+03  5.18208E+03  1.48331E+03  2.43226E+03
  3.02470E+03  1.26828E+03  4.42610E+03  2.70925E+03  5.24019E+03  6.00563E+03  3.86888E+03  9.99709E+03
 -3.57184E+03  1.39430E+04 -1.28675E+04  1.35833E+04 -1.82514E+04  3.80227E+03 -1.87138E+04 -8.01143E+03
 -8.86985E+03 -1.77558E+04  2.20572E+03 -1.94947E+04  1.10226E+04 -1.29341E+04  1.45547E+04 -3.41062E+03
  1.15659E+04  6.19360E+03  2.71086E+03  9.92826E+03 -5.15278E+03  6.67603E+03 -7.55055E+03 -7.61758E+02
 -3.47720E+03 -7.66259E+03  4.14856E+03 -8.56168E+03  7.74930E+03 -3.48212E+03  7.02119E+03  1.31969E+03
  4.26405E+03  4.12780E+03  1.70281E+03  3.30818E+03 -1.12113E+03  2.19045E+03  1.88648E+03 -4.78517E+02
  2.93404E+03 -1.46969E+03  7.21080E+03  2.87098E+03  4.04162E+03  9.67697E+03 -1.41600E+03  1.25623E+04
 -8.87954E+03  8.30214E+03 -1.19597E+04  2.45945E+03 -9.92509E+03 -4.24730E+03 -4.27491E+03 -7.08353E+03
  1.47307E+03 -7.27229E+03  4.24825E+03 -3.45768E+03  3.57830E+03  3.83186E+03 -1.45653E+03  6.22474E+03
 -7.77214E+03  3.47819E+03 -8.60964E+03 -4.11926E+03 -4.97901E+03 -1.04535E+04  1.88492E+03 -1.01783E+04
  6.18201E+03 -6.28754E+03  7.54900E+03 -1.16037E+03  6.75967E+03  2.81873E+03  9.01878E+02  5.72123E+03
 -3.99502E+03  1.33810E+03 -3.98152E+03 -3.59950E+03  1.90336E+03 -8.06057E+03  8.90464E+03 -6.41338E+03
  1.21488E+04  1.05848E+03  1.15250E+04  8.25091E+03  3.40221E+03  1.26479E+04 -4.72931E+03  1.12571E+04
 -1.01159E+04  5.24248E+03 -9.95030E+03 -1.62805E+03 -5.44233E+03 -7.93564E+03  1.75218E+03 -7.61272E+03
  7.45022E+03 -3.66352E+03  6.31879E+03  3.15203E+03  2.38579E+03  7.04752E+03 -1.61909E+03  5.62183E+03
 -2.99123E+03  3.89566E+03 -2.56946E+03  1.13940E+03 -1.12340E+03  1.30233E+03 -1.88936E+03  2.22351E+03
 -3.03358E+03  4.30836E+03 -8.33518E+03  4.97474E+03 -1.22514E+04  5.41110E+01 -1.37145E+04 -8.12884E+03
 -7.15656E+03 -1.66831E+04  2.85629E+03 -1.87242E+04  1.17830E+04 -1.48016E+04  1.75664E+04 -5.79561E+03
  1.68779E+04  3.80430E+03  1.03927E+04  1.15325E+04  1.43169E+03  1.29685E+04 -4.79541E+03  9.87789E+03
 -7.43353E+03  3.83676E+03 -4.22987E+03 -1.61002E+03 -1.60186E+03 -1.61971E+03 -2.32853E+02 -1.13867E+02
 -1.82343E+03  4.76003E+02 -3.11742E+03 -5.58295E+02 -1.16319E+03 -3.29834E+03  1.35872E+02 -5.29405E+03
  5.69877E+03 -3.94530E+03  8.32352E+03  9.89686E+01  8.84902E+03  6.99798E+03  2.80360E+03  1.26662E+04
 -6.12472E+03  1.43699E+04 -1.37221E+04  8.84111E+03 -1.55206E+04 -1.29905E+03 -1.19163E+04 -9.88384E+03
 -4.99422E+03 -1.35504E+04  3.52404E+03 -1.22929E+04  8.54552E+03 -6.70943E+03  9.17692E+03  6.14639E+02
  5.19783E+03  4.79257E+03  1.20042E+00  3.61577E+03 -2.53973E+03 -8.89078E+01 -2.08175E+02 -2.87536E+03
  3.66071E+03 -2.48687E+03  5.19910E+03  1.62435E+03  3.79686E+03  5.41536E+03 -7.53969E+01  6.88915E+03
 -6.12362E+03  6.17087E+03 -8.84028E+03  4.33788E+02 -8.03150E+03 -6.78900E+03 -1.25131E+03 -1.13434E+04
  6.30607E+03 -9.09007E+03  1.00650E+04 -3.02819E+03  1.02333E+04  2.46468E+03  5.90959E+03  8.04586E+03
  1.47765E+03  9.10041E+03 -3.73989E+03  6.77880E+03 -5.23015E+03  4.39525E+03 -4.63674E+03  3.19850E+02
 -2.70997E+03 -2.88447E+02 -2.34416E+03  1.44035E+03 -4.71692E+03  9.61866E+02 -7.13155E+03 -1.08590E+03
 -6.48520E+03 -5.05253E+03 -2.22600E+03 -8.88386E+03  3.46711E+03 -9.08023E+03  7.94559E+03 -4.55712E+03
  8.79568E+03  1.10161E+03  4.95860E+03  6.62661E+03 -6.97678E+02  8.90565E+03 -6.93324E+03  5.89251E+03
