 $NMID ID='MM_0lb_SNR800_15hz_g55_42.RAW', FMTDAT='(8E13.5)'
 TRAMP=1., VOLUME=1. $END
  3.09597E+05  2.45305E+02  3.37711E+05  2.50623E+05  8.45624E+04  3.37913E+05 -1.32375E+05  2.51003E+05
 -1.90399E+05  8.33425E+04 -1.11760E+05 -3.23900E+04  9.32759E+02 -5.04080E+04  5.37867E+04 -1.95361E+02
  3.55741E+04  5.30633E+04 -1.65666E+04  7.54808E+04 -6.07790E+04  6.36969E+04 -8.40032E+04  3.20357E+04
 -8.10248E+04 -1.13570E+04 -5.72306E+04 -5.13577E+04 -1.49515E+04 -6.97204E+04  2.73293E+04 -4.60992E+04
  4.01908E+04  3.82544E+03  1.65094E+04  4.81074E+04 -3.43546E+04  4.71360E+04 -6.68991E+04 -5.37149E+02
 -5.35349E+04 -5.70948E+04 -6.83346E+03 -7.71100E+04  3.40846E+04 -5.52194E+04  4.79488E+04 -1.72620E+04
  4.34011E+04  1.16125E+04  3.20266E+04  2.53205E+04  1.57817E+04  2.93879E+04 -5.00827E+03  2.71798E+04
 -2.21084E+04  1.26222E+04 -1.85764E+04 -5.16633E+03  5.89030E+03 -7.47952E+03  2.24849E+04  1.21889E+04
  7.38181E+03  3.53574E+04 -3.20690E+04  3.54577E+04 -6.31582E+04  2.16940E+03 -5.71548E+04 -4.27973E+04
 -1.24368E+04 -6.31027E+04  3.98858E+04 -4.51162E+04  5.83203E+04 -2.15018E+03  3.44569E+04  3.24808E+04
 -5.97543E+03  3.61489E+04 -3.00791E+04  1.58665E+04 -3.03665E+04 -4.63695E+03 -1.70428E+04 -1.10017E+04
 -8.46559E+03 -1.29829E+04 -6.91287E+02 -1.80392E+04  7.66569E+03 -2.30059E+04  1.55659E+04 -1.31670E+04
  1.11568E+04  5.29449E+03 -8.35691E+03  1.32704E+04 -2.09970E+04 -3.92444E+03 -8.14520E+03 -3.37279E+04
  2.30566E+04 -4.33832E+04  4.82683E+04 -1.95860E+04  4.52083E+04  1.94113E+04  1.56380E+04  4.41090E+04
 -1.59289E+04  3.35741E+04 -2.52873E+04  1.79289E+03 -9.95414E+03 -2.78979E+04  2.10826E+04 -3.38227E+04
  4.12533E+04 -8.99996E+03  3.54763E+04  2.36979E+04  1.81493E+04  4.65089E+04 -8.05249E+03  4.99679E+04
 -3.15053E+04  3.35687E+04 -4.19787E+04  9.53221E+03 -4.26704E+04 -1.65158E+04 -2.37610E+04 -3.76927E+04
  7.33322E+03 -3.76263E+04  3.16836E+04 -1.44039E+04  2.95048E+04  1.10035E+04  4.03847E+03  1.92457E+04
 -1.36710E+04  8.47129E+03 -1.03548E+04 -7.70564E+03  5.63542E+03 -1.08207E+04  1.80185E+04  6.37984E+03
  1.32806E+04  2.22015E+04 -6.05363E+03  2.49806E+04 -2.22344E+04  1.14814E+04 -2.80496E+04 -4.74712E+03
 -2.02029E+04 -1.73327E+04 -8.38108E+03 -2.02518E+04  4.03805E+03 -1.90813E+04  1.56935E+04 -1.81310E+04
  2.58743E+04 -1.30084E+04  3.24061E+04  2.70499E+03  2.35680E+04  1.99694E+04  4.27282E+03  3.64372E+04
 -1.78091E+04  3.03716E+04 -2.78196E+04  1.04240E+04 -2.06997E+04 -9.99173E+03 -4.41979E+03 -1.32553E+04
  1.78607E+03 -2.98924E+03 -4.71699E+03  6.70235E+03 -1.62968E+04  5.09232E+03 -1.60455E+04 -6.72376E+03
 -9.97676E+03 -1.87147E+04  5.25336E+03 -2.28130E+04  1.52431E+04 -1.63552E+04  1.79579E+04 -1.65114E+03
  1.12890E+04  1.28323E+04 -1.22624E+03  1.88038E+04 -1.30748E+04  1.04658E+04 -1.88802E+04 -4.22340E+03
 -1.41188E+04 -1.71438E+04 -1.73101E+03 -2.29668E+04  1.01762E+04 -1.89577E+04  1.91326E+04 -9.30712E+03
  1.78083E+04  6.78496E+01  1.29417E+04  4.36048E+03  6.86781E+03  9.37689E+02  9.31807E+03 -1.48580E+03
  1.69476E+04  2.44387E+03  1.87832E+04  1.49765E+04  1.23482E+04  3.01548E+04 -2.89541E+03  3.36778E+04
 -1.98381E+04  2.69299E+04 -3.16928E+04  1.36224E+04 -3.28058E+04 -2.54559E+03 -2.73373E+04 -1.89792E+04
 -1.15873E+04 -2.70966E+04  9.60159E+03 -2.40982E+04  2.11194E+04 -1.26268E+04  1.90523E+04  4.86889E+03
  7.20742E+03  1.42717E+04 -9.02336E+03  1.22197E+04 -1.59354E+04  2.56677E+03 -1.23998E+04 -9.71682E+03
 -1.82112E+02 -1.51844E+04  7.41989E+03 -1.12531E+04  9.91065E+03 -1.31629E+03  2.53564E+03  6.20503E+03
 -6.68205E+03  2.32690E+03 -5.79902E+03 -5.55332E+03 -4.70601E+02 -1.33915E+04  9.44661E+03 -1.36286E+04
  1.63514E+04 -7.20128E+03  1.71485E+04  3.22232E+03  1.49426E+04  1.27510E+04  6.99308E+03  1.99574E+04
 -3.20760E+03  2.10969E+04 -1.37466E+04  1.34731E+04 -1.58034E+04  3.54437E+03 -1.09967E+04 -3.16453E+03
 -5.24386E+03 -4.78087E+03 -1.00576E+03  1.00138E+03 -2.56351E+03  2.74871E+03 -5.09975E+03  4.23864E+03
 -1.00892E+04 -8.29063E+02 -1.10902E+04 -8.83770E+03 -4.43732E+03 -1.45727E+04  4.34462E+03 -1.14386E+04
  9.58667E+03 -4.53423E+03  6.38892E+03  3.01969E+03  7.84056E+01  4.00523E+03 -4.63527E+03 -9.25263E+01
 -5.06266E+03 -7.10406E+03 -8.02214E+02 -1.02743E+04  5.81964E+03 -1.11325E+04  1.35957E+04 -5.70792E+03
  1.60607E+04  1.05451E+03  1.16073E+04  8.80932E+03  2.20544E+03  1.24103E+04 -6.91308E+03  1.12258E+04
 -8.97325E+03  3.44996E+03 -4.40734E+03 -1.85067E+03  1.72028E+03 -2.65909E+03  6.02003E+03 -9.66159E+02
  5.25498E+03  4.37510E+03  1.21586E+03  8.72885E+03 -5.99418E+03  8.47710E+03 -1.06401E+04  2.31233E+03
 -6.54568E+03 -5.28516E+03  1.42174E+02 -9.33860E+03  5.36004E+03 -4.70033E+03  5.20401E+03  1.74813E+03
  1.26274E+03  5.55600E+03 -5.50201E+03  7.17528E+03 -7.77778E+03  3.36595E+03 -7.64164E+03 -2.24605E+03
 -4.22676E+03 -9.33775E+03  2.25678E+03 -1.08413E+04  9.09871E+03 -6.82678E+03  1.00882E+04  1.84023E+03
  6.45608E+03  7.95381E+03 -2.19684E+02  9.81287E+03 -7.14837E+03  5.97011E+03 -7.91434E+03 -8.10392E+02
 -7.33882E+03 -6.99571E+03 -1.52605E+03 -7.64633E+03  3.70413E+03 -6.56734E+03  4.16665E+03 -3.24625E+03
  3.68628E+03  7.23614E+02 -7.39770E+02  1.47605E+03  1.14823E+02 -1.03983E+03  9.77220E+02 -3.53778E+03
  6.38238E+03 -2.18923E+03  8.90426E+03  9.90336E+02  9.04809E+03  5.52066E+03  7.13991E+03  1.16180E+04
 -2.63343E+03  1.34426E+04 -1.13551E+04  9.94331E+03 -1.47051E+04  1.85879E+03 -1.18609E+04 -4.52751E+03
 -6.00154E+03 -9.95143E+03 -3.95352E+02 -8.04914E+03  2.90083E+03 -4.26911E+03  2.80446E+03 -3.10539E+03
  1.91709E+03 -2.00851E+03  2.54346E+03 -2.78111E+03  4.08957E+03 -2.58677E+03  4.98397E+03 -5.75873E+01
  6.39660E+03  1.68555E+03  2.68681E+03  5.04160E+03 -1.65103E+03  5.46380E+03 -6.36328E+03  4.50042E+03
 -7.92276E+03 -1.15373E+03 -4.31870E+03 -5.35884E+03  3.71717E+00 -8.36679E+03  4.67889E+03 -8.25301E+03
  8.46491E+03 -4.87073E+03  1.02799E+04  9.11817E+02  7.37527E+03  7.13821E+03  1.49352E+03  9.55191E+03
 -3.63214E+03  8.17011E+03 -5.04321E+03  2.79341E+03 -3.22283E+03 -1.29633E+03 -1.43465E+03 -6.99678E+02
 -9.31285E+02  2.46611E+02 -1.17200E+03  2.35707E+03 -3.68918E+03  1.87523E+03 -5.58479E+03 -9.84221E+02
 -3.19830E+03 -5.59981E+03  7.81634E+02 -7.64227E+03  4.50735E+03 -7.00791E+03  6.80718E+03 -1.62513E+03
  7.00097E+03  3.85934E+03  2.99534E+03  5.90976E+03 -1.31872E+03  7.43482E+03 -5.19522E+03  4.50277E+03
 -6.73860E+03  7.45829E+02 -5.33055E+03 -4.32691E+03 -4.46821E+02 -5.74240E+03  2.84828E+03 -4.30066E+03
  4.62247E+03 -2.16244E+03  3.12625E+03  9.44935E+02  8.92811E+02  2.79697E+03  9.15626E+02  8.54505E+02
  1.84524E+03  5.95998E+02  1.87497E+03  1.26766E+03  1.90892E+03  2.88990E+03  1.94080E+03  3.32001E+03
 -2.00279E+03  5.45661E+03 -4.64832E+03  6.09360E+03 -6.48103E+03  1.57663E+03 -6.97151E+03 -2.00597E+03
 -3.25479E+03 -6.61993E+03  1.03215E+03 -7.72566E+03  3.88545E+03 -4.96332E+03  5.65135E+03 -1.43154E+03
  4.32501E+03  2.80667E+03  6.71651E+02  4.15711E+03 -1.76735E+03  2.56652E+03 -2.34607E+03  2.00375E+01
 -1.09389E+03 -2.92385E+03  1.69157E+03 -2.91848E+03  2.64685E+03 -1.53234E+03  2.64194E+03  4.85210E+02
  1.44386E+03  1.04892E+03  8.62615E+02  4.49652E+02 -4.57693E+02  1.08373E+03  1.56176E+03 -1.25220E+02
  6.89966E+02 -6.16243E+02  3.22459E+03  1.11968E+03  1.07925E+03  3.83330E+03 -5.65639E+02  5.03620E+03
 -2.71024E+03  2.19720E+03 -3.82161E+03  6.54142E+02 -3.35198E+03 -1.13497E+03 -9.64396E+02 -2.36642E+03
  4.13282E+02 -2.19598E+03  1.85497E+03 -1.22555E+03  1.55734E+03  2.00711E+03 -8.51069E+02  2.12405E+03
 -2.03659E+03  1.52970E+03 -2.57427E+03 -1.88373E+03 -1.73740E+03 -3.53819E+03  2.79383E+02 -3.42647E+03
  1.95541E+03 -1.36588E+03  2.17938E+03 -2.50757E+02  2.09980E+03  4.29222E+02  2.93157E+02  1.71725E+03
 -9.51271E+02  4.44515E+02 -1.34927E+03 -8.58121E+02  7.27835E+02 -2.06934E+03  2.93742E+03 -2.25251E+03
  2.95894E+03  5.45138E+02  4.36159E+03  2.37441E+03  1.61824E+03  3.70068E+03 -8.35040E+02  3.67412E+03
 -2.97649E+03  1.08199E+03 -3.28389E+03 -2.71451E+02 -1.77910E+03 -2.39403E+03  5.25737E+02 -1.62672E+03
  2.53277E+03 -1.42416E+03  1.85211E+03  1.24411E+03  5.77104E+02  2.30868E+03  2.06953E+02  1.83045E+03
 -6.73864E+02  1.43421E+03 -7.75461E+02  9.63744E+00 -2.86859E+02  4.21604E+02 -6.26854E+02  8.55721E+02
 -1.11537E+03  1.53914E+03 -3.01667E+03  1.13671E+03 -3.37334E+03 -3.78585E+02 -4.43717E+03 -2.22112E+03
 -2.03862E+03 -4.47768E+03  9.45965E+02 -5.60238E+03  2.80664E+03 -4.45831E+03  5.24497E+03 -1.61639E+03
  4.60800E+03  6.83542E+02  2.54061E+03  3.27752E+03 -3.12288E+02  3.23691E+03 -1.24660E+03  2.25194E+03
 -2.08332E+03  1.10403E+03 -1.12517E+03 -4.41762E+02 -9.76651E+02  8.78531E+01 -5.29857E+02 -1.62338E+02
 -1.18945E+03 -3.95443E+01 -1.09795E+03 -2.03751E+02  1.56745E+02 -9.93145E+02 -5.21769E+02 -1.64619E+03
  1.99872E+03 -1.13540E+03  1.62328E+03  1.07446E+02  2.42903E+03  2.05136E+03 -2.59662E+02  3.04244E+03
 -1.84344E+03  3.98807E+03 -3.51546E+03  2.51219E+03 -3.63426E+03 -1.12818E+02 -2.72906E+03 -2.69300E+03
 -1.26552E+03 -3.26944E+03  8.52984E+02 -2.91281E+03  1.76133E+03 -1.44641E+03  2.20815E+03  1.71351E+02
  1.24938E+03  1.06192E+03 -6.87530E+01  8.59265E+02 -9.36380E+02 -4.10673E+01 -1.27039E+02 -4.96344E+02
  1.14671E+03  5.19450E+01  1.31813E+03  6.95835E+02  6.47566E+02  6.30831E+02  3.97690E+02  1.31731E+03
 -1.12478E+03  1.47739E+03 -1.79730E+03 -3.48120E+01 -1.88896E+03 -1.38037E+03 -4.35921E+01 -2.42737E+03
  1.25663E+03 -1.74767E+03  1.80971E+03 -3.56734E+02  2.15656E+03 -7.42939E+01  1.19346E+03  1.48118E+03
  3.76669E+02  1.57574E+03 -7.74242E+02  1.34920E+03 -1.19721E+03  9.91121E+02 -1.06611E+03  4.30954E+02
 -3.27176E+02 -2.77048E+02 -5.54840E+02  6.07444E+01 -1.22453E+03  1.93278E+02 -1.37535E+03 -3.33005E+02
 -1.62822E+03 -2.82469E+02 -6.82816E+02 -2.05091E+03  1.16768E+03 -2.69697E+03  1.75193E+03 -8.87006E+02
  1.54290E+03  3.55240E+02  4.71881E+02  8.21159E+02 -1.59982E+02  1.93613E+03 -1.41724E+03  1.15944E+03
