 $NMID ID='MM_0lb_SNR800_15hz_g50_97.RAW', FMTDAT='(8E13.5)'
 TRAMP=1., VOLUME=1. $END
  3.10121E+05  3.06226E+02  3.37635E+05  2.50507E+05  8.44249E+04  3.37841E+05 -1.32663E+05  2.50917E+05
 -1.90135E+05  8.27786E+04 -1.11566E+05 -3.26430E+04  9.22326E+02 -5.08360E+04  5.38339E+04  6.40324E+01
  3.53561E+04  5.25308E+04 -1.66121E+04  7.55720E+04 -6.05806E+04  6.37218E+04 -8.39902E+04  3.21469E+04
 -8.10889E+04 -1.13334E+04 -5.70976E+04 -5.10884E+04 -1.51218E+04 -6.93631E+04  2.71285E+04 -4.58293E+04
  3.99941E+04  3.91614E+03  1.59691E+04  4.77261E+04 -3.40608E+04  4.69267E+04 -6.63787E+04 -2.27134E+02
 -5.31887E+04 -5.66332E+04 -6.92239E+03 -7.65957E+04  3.37928E+04 -5.46083E+04  4.76750E+04 -1.69687E+04
  4.30254E+04  1.11977E+04  3.16697E+04  2.54356E+04  1.58120E+04  2.92365E+04 -5.24728E+03  2.71779E+04
 -2.20300E+04  1.25358E+04 -1.87967E+04 -4.81366E+03  5.41405E+03 -7.68301E+03  2.18721E+04  1.21966E+04
  7.30093E+03  3.50470E+04 -3.15163E+04  3.53518E+04 -6.30811E+04  2.05999E+03 -5.67778E+04 -4.23916E+04
 -1.24466E+04 -6.28358E+04  3.95741E+04 -4.52157E+04  5.78603E+04 -2.10825E+03  3.36378E+04  3.19586E+04
 -6.35860E+03  3.58916E+04 -2.95759E+04  1.53595E+04 -3.00976E+04 -4.52148E+03 -1.63039E+04 -1.06652E+04
 -8.18680E+03 -1.30793E+04 -3.93268E+02 -1.78271E+04  7.00861E+03 -2.29399E+04  1.56895E+04 -1.35453E+04
  1.12932E+04  4.95508E+03 -7.91734E+03  1.27256E+04 -2.09550E+04 -3.98722E+03 -8.26612E+03 -3.31846E+04
  2.24583E+04 -4.31276E+04  4.76069E+04 -1.97284E+04  4.45586E+04  1.90348E+04  1.52839E+04  4.37966E+04
 -1.58541E+04  3.31277E+04 -2.47534E+04  1.46639E+03 -9.51456E+03 -2.75913E+04  2.09113E+04 -3.34157E+04
  4.06894E+04 -9.00652E+03  3.48698E+04  2.35205E+04  1.76033E+04  4.60140E+04 -8.19223E+03  4.96128E+04
 -3.07289E+04  3.30293E+04 -4.12015E+04  9.20379E+03 -4.14690E+04 -1.62913E+04 -2.29844E+04 -3.72563E+04
  7.35673E+03 -3.69950E+04  3.09183E+04 -1.44842E+04  2.88243E+04  1.08220E+04  3.83966E+03  1.87841E+04
 -1.38714E+04  8.18802E+03 -9.90432E+03 -7.77843E+03  5.85918E+03 -1.04768E+04  1.77695E+04  5.92370E+03
  1.33395E+04  2.18952E+04 -6.13211E+03  2.49679E+04 -2.25028E+04  1.08935E+04 -2.76671E+04 -4.93001E+03
 -2.00239E+04 -1.72090E+04 -7.70733E+03 -1.97690E+04  4.00098E+03 -1.88917E+04  1.52208E+04 -1.75520E+04
  2.54103E+04 -1.23786E+04  3.18730E+04  2.32872E+03  2.34746E+04  1.93093E+04  4.17388E+03  3.57754E+04
 -1.74913E+04  2.98197E+04 -2.75685E+04  1.02747E+04 -2.06097E+04 -1.06460E+04 -4.23829E+03 -1.36548E+04
  1.83011E+03 -3.19314E+03 -4.38514E+03  6.01863E+03 -1.53073E+04  5.25879E+03 -1.58481E+04 -6.64736E+03
 -9.97902E+03 -1.83677E+04  5.12301E+03 -2.25215E+04  1.46000E+04 -1.61915E+04  1.74994E+04 -1.63771E+03
  1.09958E+04  1.26697E+04 -1.16116E+03  1.86240E+04 -1.25502E+04  1.05173E+04 -1.80463E+04 -3.98822E+03
 -1.34143E+04 -1.63275E+04 -1.69892E+03 -2.19628E+04  9.93220E+03 -1.83094E+04  1.84078E+04 -9.03094E+03
  1.72931E+04  4.16929E+02  1.21630E+04  4.16258E+03  6.60695E+03  1.19093E+03  9.25648E+03 -1.51845E+03
  1.67512E+04  2.93577E+03  1.84557E+04  1.45476E+04  1.19908E+04  2.90209E+04 -2.67075E+03  3.26279E+04
 -1.90397E+04  2.59100E+04 -3.02606E+04  1.29546E+04 -3.17712E+04 -2.67318E+03 -2.63959E+04 -1.84841E+04
 -1.17127E+04 -2.62071E+04  8.95372E+03 -2.37320E+04  2.03814E+04 -1.26281E+04  1.83035E+04  4.88719E+03
  7.22143E+03  1.38084E+04 -8.45152E+03  1.20420E+04 -1.58337E+04  2.70264E+03 -1.18806E+04 -9.88408E+03
 -1.80067E+02 -1.46995E+04  7.86037E+03 -1.09516E+04  9.52945E+03 -1.37930E+03  2.28518E+03  6.15892E+03
 -6.36171E+03  2.20424E+03 -5.65995E+03 -5.74954E+03 -2.43431E+02 -1.26675E+04  9.24921E+03 -1.30730E+04
  1.56780E+04 -6.77725E+03  1.67085E+04  3.32191E+03  1.44442E+04  1.24820E+04  6.71782E+03  1.89728E+04
 -3.14896E+03  2.08979E+04 -1.31184E+04  1.30902E+04 -1.48713E+04  3.33722E+03 -1.07991E+04 -3.21848E+03
 -5.20948E+03 -4.35728E+03 -6.24173E+02  1.10824E+03 -2.36474E+03  2.36944E+03 -4.83032E+03  4.22071E+03
 -1.01353E+04 -9.39221E+02 -1.07325E+04 -8.63318E+03 -4.33718E+03 -1.40380E+04  4.35865E+03 -1.08913E+04
  9.06857E+03 -4.54254E+03  6.38569E+03  2.67397E+03  2.57458E+02  4.08075E+03 -4.74421E+03 -2.32851E+02
 -4.77065E+03 -6.74265E+03 -8.74465E+02 -1.00920E+04  5.48845E+03 -1.04844E+04  1.32459E+04 -5.44340E+03
  1.51935E+04  1.34801E+03  1.11593E+04  8.83308E+03  2.27718E+03  1.18595E+04 -6.54709E+03  1.07673E+04
 -8.96283E+03  3.09645E+03 -4.40297E+03 -1.88231E+03  1.27349E+03 -2.85895E+03  5.77029E+03 -1.02517E+03
  4.78835E+03  4.49281E+03  1.24558E+03  8.38795E+03 -5.78056E+03  7.87244E+03 -1.00539E+04  1.88730E+03
 -6.63690E+03 -5.30603E+03  4.90259E+02 -8.77081E+03  5.09007E+03 -4.49915E+03  5.20411E+03  1.80605E+03
  9.06445E+02  5.26914E+03 -5.28852E+03  7.04212E+03 -7.36390E+03  3.44562E+03 -7.46949E+03 -2.25065E+03
 -4.51472E+03 -8.66049E+03  1.74056E+03 -1.04964E+04  8.55684E+03 -6.44112E+03  9.48275E+03  1.48741E+03
  6.30072E+03  7.66495E+03 -2.54951E+02  9.70708E+03 -7.20317E+03  5.12887E+03 -7.59757E+03 -3.60919E+02
 -7.36929E+03 -6.69676E+03 -1.52831E+03 -7.07343E+03  3.96713E+03 -5.78522E+03  4.11368E+03 -3.23035E+03
  3.38748E+03  8.40387E+02 -3.45267E+02  1.40343E+03  2.37238E+02 -9.23212E+02  8.63450E+02 -3.49400E+03
  6.22008E+03 -2.02596E+03  8.31811E+03  7.62421E+02  8.47682E+03  5.33687E+03  6.82649E+03  1.08342E+04
 -2.44606E+03  1.28393E+04 -1.12920E+04  1.00000E+04 -1.43008E+04  1.98755E+03 -1.15140E+04 -4.31929E+03
 -5.98214E+03 -9.32580E+03 -2.46237E+02 -8.04265E+03  2.99591E+03 -3.72529E+03  2.30200E+03 -3.07376E+03
  2.25424E+03 -2.02703E+03  2.79087E+03 -2.54368E+03  4.06136E+03 -2.05702E+03  4.96046E+03 -1.55461E+02
  6.47387E+03  1.67849E+03  2.42718E+03  5.10935E+03 -1.63603E+03  5.19156E+03 -6.37668E+03  4.32306E+03
 -7.87021E+03 -1.20484E+03 -3.82194E+03 -5.41411E+03 -1.32942E+02 -8.20677E+03  4.71076E+03 -7.75332E+03
  8.58076E+03 -4.74834E+03  1.01049E+04  7.53192E+02  6.94453E+03  6.71130E+03  1.44530E+03  9.25944E+03
 -3.70853E+03  7.93861E+03 -5.29301E+03  2.85231E+03 -3.27163E+03 -1.29294E+03 -9.18665E+02 -8.23780E+02
 -8.86906E+02  1.14684E+02 -1.13419E+03  2.10836E+03 -3.45046E+03  1.47878E+03 -5.69758E+03 -7.41840E+02
 -3.15898E+03 -5.70131E+03  6.16356E+02 -7.32571E+03  4.29602E+03 -6.78282E+03  6.26016E+03 -1.84185E+03
  6.84629E+03  3.93789E+03  3.25766E+03  5.67877E+03 -1.39339E+03  7.38568E+03 -4.66855E+03  4.31070E+03
 -6.24806E+03  5.38421E+02 -5.51541E+03 -3.99307E+03 -5.22128E+02 -5.66407E+03  3.06237E+03 -3.92484E+03
  4.19140E+03 -1.95024E+03  3.19874E+03  8.08248E+02  9.44486E+02  2.50498E+03  7.96336E+02  1.23744E+03
  1.93804E+03  6.22443E+02  1.60254E+03  1.25294E+03  1.74078E+03  2.83765E+03  1.98421E+03  3.36508E+03
 -1.56110E+03  4.93184E+03 -4.41419E+03  5.83880E+03 -6.13869E+03  1.62303E+03 -7.02957E+03 -1.85842E+03
 -3.14230E+03 -6.35280E+03  1.09624E+03 -7.62442E+03  3.72749E+03 -4.55161E+03  4.99100E+03 -1.30622E+03
  4.20667E+03  2.95745E+03  8.10882E+02  3.74566E+03 -1.36038E+03  2.45914E+03 -2.51737E+03 -3.28231E+02
 -1.14861E+03 -2.68126E+03  1.76645E+03 -3.10683E+03  2.57602E+03 -1.57514E+03  2.54625E+03  3.88826E+02
  1.57856E+03  8.00670E+02  1.11635E+03  5.04360E+02 -5.69118E+02  1.30600E+03  1.83445E+03 -1.72317E+02
  7.50199E+02 -4.76646E+02  3.07180E+03  1.05447E+03  9.35367E+02  3.78911E+03 -7.59070E+02  4.50028E+03
 -3.17081E+03  2.62870E+03 -4.07889E+03  6.81585E+02 -3.61953E+03 -1.25516E+03 -9.45882E+02 -2.01129E+03
  6.58627E+02 -2.33969E+03  1.91438E+03 -1.01276E+03  1.28075E+03  1.59304E+03 -8.67183E+02  2.26601E+03
 -2.66253E+03  9.96306E+02 -2.71070E+03 -1.99937E+03 -1.47853E+03 -3.61412E+03  7.87781E+02 -3.11325E+03
  1.43041E+03 -1.30258E+03  2.15217E+03  1.03159E+02  2.13148E+03  5.77490E+02  3.52971E+02  1.84383E+03
 -7.64954E+02  3.04348E+02 -1.56066E+03 -4.77423E+02  8.72803E+02 -2.06468E+03  3.05258E+03 -2.14146E+03
  3.13600E+03  3.19656E+02  4.03534E+03  1.98956E+03  1.47837E+03  3.36826E+03 -9.87694E+02  3.43623E+03
 -2.84914E+03  1.16966E+03 -3.12541E+03 -5.81833E+02 -1.65317E+03 -2.65240E+03  3.50559E+02 -1.75294E+03
  2.51538E+03 -1.21651E+03  2.00961E+03  1.03376E+03  2.85100E+02  1.86149E+03 -3.61917E+01  1.95959E+03
 -8.80888E+02  1.34346E+03 -8.17440E+02  2.34786E+02 -2.46253E+02  7.38954E+02 -6.96767E+02  4.73827E+02
 -1.17188E+03  1.70514E+03 -2.92978E+03  1.21160E+03 -3.33870E+03 -6.08976E+01 -4.19995E+03 -2.32484E+03
 -2.21327E+03 -4.92854E+03  1.17280E+03 -5.06912E+03  2.78454E+03 -4.46136E+03  5.39559E+03 -1.84227E+03
  4.51963E+03  6.19124E+02  2.74015E+03  3.10719E+03 -2.00949E+02  3.43137E+03 -1.38477E+03  2.65255E+03
 -1.67275E+03  1.19202E+03 -9.86258E+02 -3.31603E+02 -4.86978E+02  1.40841E+02 -4.70128E+02  1.04622E+01
 -1.03793E+03  2.52864E+01 -9.76397E+02  2.47654E+02  6.48309E+01 -9.25101E+02 -3.64126E+02 -1.26293E+03
  1.56886E+03 -1.01560E+03  1.32587E+03  7.56875E+01  2.19354E+03  1.61955E+03  8.85869E+01  3.37620E+03
 -1.33335E+03  4.17057E+03 -3.40542E+03  2.58840E+03 -3.88993E+03 -5.04940E+02 -2.83357E+03 -2.58980E+03
 -1.68556E+03 -3.15622E+03  7.53462E+02 -2.70436E+03  1.93461E+03 -1.56726E+03  2.06111E+03 -9.33140E+01
  1.03281E+03  8.21991E+02 -2.49212E+01  9.48288E+02 -4.68426E+02 -2.69103E+02  2.03559E+02 -7.17302E+02
  1.03508E+03 -1.39706E+01  1.06444E+03  7.65868E+02  5.72368E+02  1.26735E+03  2.56964E+02  9.93021E+02
 -1.20439E+03  1.40677E+03 -1.82982E+03  3.61793E+02 -1.75580E+03 -1.12170E+03  7.26026E+01 -2.78429E+03
  1.26217E+03 -1.96623E+03  1.67287E+03 -2.89128E+02  2.23627E+03 -1.17673E+02  1.58111E+03  1.72261E+03
  4.54068E+02  2.05020E+03 -4.29997E+02  1.60670E+03 -1.34277E+03  9.92977E+02 -8.35517E+02 -1.74788E+02
 -3.78723E+02 -6.19235E+01 -7.42300E+02  1.42748E+02 -1.07164E+03  1.58516E+02 -1.63340E+03 -5.12770E+02
 -1.70917E+03 -3.26704E+02 -3.87491E+02 -1.95580E+03  1.05271E+03 -2.32242E+03  1.63497E+03 -6.44752E+02
  1.84847E+03  2.51994E+02  3.45563E+01  7.52874E+02  9.29718E+01  1.87803E+03 -1.25795E+03  1.19281E+03
