 $NMID ID='MM_0lb_SNR800_12hz_g50_67.RAW', FMTDAT='(8E13.5)'
 TRAMP=1., VOLUME=1. $END
  3.09823E+05  5.68491E+02  3.37399E+05  2.50699E+05  8.49374E+04  3.38099E+05 -1.32597E+05  2.51601E+05
 -1.90834E+05  8.34788E+04 -1.12205E+05 -3.22970E+04  6.43804E+02 -5.05860E+04  5.37263E+04  9.30392E-01
  3.51702E+04  5.29317E+04 -1.67183E+04  7.54162E+04 -6.13242E+04  6.40820E+04 -8.49165E+04  3.22084E+04
 -8.14303E+04 -1.15463E+04 -5.75586E+04 -5.17089E+04 -1.49087E+04 -6.99377E+04  2.78297E+04 -4.60683E+04
  4.06301E+04  3.87617E+03  1.66278E+04  4.82461E+04 -3.45433E+04  4.76071E+04 -6.72126E+04 -4.75346E+02
 -5.40223E+04 -5.74826E+04 -6.90921E+03 -7.80511E+04  3.43484E+04 -5.56937E+04  4.86283E+04 -1.78672E+04
  4.41930E+04  1.07980E+04  3.23282E+04  2.61664E+04  1.56818E+04  2.99817E+04 -5.46541E+03  2.74329E+04
 -2.22534E+04  1.22470E+04 -1.83768E+04 -5.13466E+03  6.25357E+03 -7.18419E+03  2.26771E+04  1.27267E+04
  6.99917E+03  3.62951E+04 -3.29832E+04  3.62827E+04 -6.45113E+04  2.16693E+03 -5.80706E+04 -4.36839E+04
 -1.23842E+04 -6.43143E+04  4.04937E+04 -4.60554E+04  5.98808E+04 -2.59805E+03  3.51578E+04  3.29123E+04
 -5.79080E+03  3.77745E+04 -3.08700E+04  1.70343E+04 -3.13509E+04 -4.27267E+03 -1.79893E+04 -1.12720E+04
 -8.98108E+03 -1.38347E+04 -5.03620E+02 -1.86483E+04  7.77337E+03 -2.34083E+04  1.58458E+04 -1.28094E+04
  1.09377E+04  6.03566E+03 -9.26083E+03  1.28392E+04 -2.20917E+04 -5.29179E+03 -8.50793E+03 -3.53549E+04
  2.37764E+04 -4.52494E+04  4.93462E+04 -2.04572E+04  4.67059E+04  1.99090E+04  1.64569E+04  4.58348E+04
 -1.61779E+04  3.45884E+04 -2.64768E+04  2.14894E+03 -1.08837E+04 -2.84122E+04  2.13859E+04 -3.49868E+04
  4.25675E+04 -1.01121E+04  3.77881E+04  2.43132E+04  1.95197E+04  4.81447E+04 -8.35719E+03  5.23281E+04
 -3.34151E+04  3.58447E+04 -4.39543E+04  1.04727E+04 -4.48551E+04 -1.72416E+04 -2.46691E+04 -3.96529E+04
  7.57214E+03 -3.95888E+04  3.26040E+04 -1.55478E+04  3.00763E+04  1.13029E+04  4.37457E+03  1.99479E+04
 -1.36072E+04  9.06698E+03 -1.06178E+04 -7.57930E+03  5.90099E+03 -1.09847E+04  1.82384E+04  5.95873E+03
  1.38237E+04  2.24623E+04 -5.66418E+03  2.56116E+04 -2.27206E+04  1.27042E+04 -2.94306E+04 -3.96109E+03
 -2.29023E+04 -1.77969E+04 -9.87938E+03 -2.22043E+04  4.03300E+03 -2.19653E+04  1.77793E+04 -2.02736E+04
  2.85289E+04 -1.34344E+04  3.44980E+04  3.64294E+03  2.49614E+04  2.15080E+04  4.28624E+03  3.84885E+04
 -1.85530E+04  3.17072E+04 -2.88919E+04  1.11342E+04 -2.16173E+04 -1.02220E+04 -4.59424E+03 -1.32228E+04
  1.49055E+03 -2.50374E+03 -6.28667E+03  7.52997E+03 -1.80114E+04  4.98251E+03 -1.75772E+04 -8.04137E+03
 -1.05642E+04 -2.08235E+04  5.82138E+03 -2.48862E+04  1.69246E+04 -1.81087E+04  1.98534E+04 -1.49185E+03
  1.27694E+04  1.43643E+04 -1.60205E+03  2.05708E+04 -1.46598E+04  1.19386E+04 -2.06450E+04 -4.21279E+03
 -1.53204E+04 -1.82988E+04 -2.27951E+03 -2.48903E+04  1.08915E+04 -2.06705E+04  2.10355E+04 -1.04872E+04
  1.97211E+04  5.56067E-01  1.39795E+04  4.70220E+03  7.40678E+03  9.40913E+02  1.06787E+04 -1.84745E+03
  1.89658E+04  2.94145E+03  2.17839E+04  1.66526E+04  1.48481E+04  3.30513E+04 -2.60549E+03  3.81362E+04
 -2.21449E+04  3.13440E+04 -3.58907E+04  1.61205E+04 -3.78203E+04 -3.00326E+03 -3.09836E+04 -2.16462E+04
 -1.28005E+04 -3.11922E+04  1.11378E+04 -2.80236E+04  2.39160E+04 -1.39394E+04  2.10145E+04  6.27115E+03
  7.56829E+03  1.57686E+04 -9.90675E+03  1.36699E+04 -1.77616E+04  2.68472E+03 -1.32523E+04 -1.09796E+04
 -2.44510E+02 -1.72185E+04  8.81690E+03 -1.28820E+04  1.14431E+04 -1.34119E+03  2.57082E+03  7.37702E+03
 -7.85730E+03  3.50861E+03 -7.11815E+03 -5.70400E+03 -1.37878E+03 -1.56121E+04  1.06675E+04 -1.61698E+04
  1.92987E+04 -9.02138E+03  2.11179E+04  2.77215E+03  1.83858E+04  1.53209E+04  8.60459E+03  2.37381E+04
 -3.98440E+03  2.56198E+04 -1.67399E+04  1.60309E+04 -1.84990E+04  3.52019E+03 -1.27105E+04 -4.49984E+03
 -5.53192E+03 -5.99022E+03 -6.28905E+02  8.83758E+02 -2.60563E+03  3.09668E+03 -6.10594E+03  4.77444E+03
 -1.17683E+04 -8.26729E+02 -1.26745E+04 -1.02474E+04 -5.08745E+03 -1.63916E+04  5.43863E+03 -1.30601E+04
  1.06450E+04 -5.26263E+03  7.66806E+03  3.47526E+03  1.67378E+02  4.82257E+03 -6.33919E+03  9.12089E+01
 -6.08895E+03 -7.98240E+03 -1.09069E+03 -1.22874E+04  7.09937E+03 -1.32679E+04  1.60182E+04 -7.43740E+03
  1.93557E+04  1.76487E+03  1.38831E+04  1.12034E+04  2.76677E+03  1.54221E+04 -8.06898E+03  1.28338E+04
 -1.06305E+04  3.52128E+03 -5.06416E+03 -2.66052E+03  1.99999E+03 -3.70967E+03  6.70536E+03 -1.19694E+03
  6.13368E+03  5.53409E+03  1.29429E+03  1.02509E+04 -7.18411E+03  9.74173E+03 -1.23950E+04  2.31683E+03
 -8.72648E+03 -6.78019E+03  5.24224E+02 -1.09450E+04  6.78342E+03 -5.61783E+03  7.14291E+03  2.59045E+03
  1.77360E+03  7.30775E+03 -6.55600E+03  8.88480E+03 -1.01139E+04  3.99946E+03 -1.03943E+04 -3.63922E+03
 -5.89926E+03 -1.19204E+04  3.02459E+03 -1.36056E+04  1.17177E+04 -8.74647E+03  1.28667E+04  1.84105E+03
  7.98177E+03  1.00835E+04 -9.70168E+02  1.25290E+04 -9.01156E+03  6.98829E+03 -9.99534E+03 -7.85362E+02
 -8.46219E+03 -8.52201E+03 -1.34425E+03 -9.05204E+03  5.19386E+03 -8.14564E+03  5.98589E+03 -3.38809E+03
  4.05156E+03  1.59890E+03 -6.64879E+02  1.45009E+03 -3.71259E+02 -2.31521E+03  1.57359E+03 -4.95880E+03
  8.48420E+03 -3.16620E+03  1.16045E+04  1.43243E+03  1.16256E+04  7.60129E+03  8.10584E+03  1.55234E+04
 -3.52978E+03  1.79948E+04 -1.53798E+04  1.29461E+04 -1.93414E+04  2.82665E+03 -1.58377E+04 -6.42492E+03
 -8.15828E+03 -1.30497E+04 -4.62158E+02 -1.06795E+04  4.05269E+03 -5.76238E+03  3.83821E+03 -4.15861E+03
  2.68847E+03 -2.40688E+03  3.57962E+03 -3.18714E+03  4.70966E+03 -2.58443E+03  6.37481E+03 -8.59052E+02
  8.32331E+03  1.84394E+03  3.92607E+03  6.23661E+03 -2.07803E+03  7.92066E+03 -8.61427E+03  6.38783E+03
 -1.05869E+04 -1.07398E+03 -5.94238E+03 -7.33159E+03 -8.72304E+02 -1.14581E+04  6.34862E+03 -1.11930E+04
  1.17006E+04 -6.60868E+03  1.42252E+04  1.99648E+03  9.77424E+03  9.76302E+03  1.99481E+03  1.29493E+04
 -5.61022E+03  1.12203E+04 -7.54707E+03  3.79512E+03 -4.69790E+03 -1.48948E+03 -1.79320E+03 -1.50858E+03
 -6.85776E+02  8.99437E+01 -1.93044E+03  2.51189E+03 -4.43105E+03  2.14265E+03 -7.63694E+03 -9.75547E+02
 -4.68510E+03 -7.79060E+03  2.54248E+02 -1.05066E+04  6.66337E+03 -9.83257E+03  1.01380E+04 -2.47591E+03
  9.86063E+03  5.41950E+03  4.60109E+03  8.95967E+03 -2.06161E+03  1.05006E+04 -7.23005E+03  6.35081E+03
 -9.89098E+03  1.68488E+02 -7.26494E+03 -6.13408E+03 -5.26230E+02 -8.39442E+03  4.39144E+03 -6.27521E+03
  6.65754E+03 -2.11496E+03  4.05762E+03  1.83093E+03  1.37404E+03  3.01361E+03  1.29680E+03  1.31969E+03
  2.27724E+03  7.42796E+02  2.34794E+03  1.55161E+03  2.81460E+03  3.96751E+03  2.78540E+03  5.29409E+03
 -2.43873E+03  8.02920E+03 -7.06787E+03  8.21649E+03 -1.01355E+04  2.28068E+03 -1.06315E+04 -3.59575E+03
 -4.96275E+03 -1.02894E+04  1.57242E+03 -1.14469E+04  5.96758E+03 -6.99265E+03  8.34319E+03 -1.88038E+03
  6.36503E+03  3.84268E+03  1.77051E+03  5.77314E+03 -2.77581E+03  4.03739E+03 -3.65264E+03 -3.15302E+02
 -1.89334E+03 -4.44812E+03  2.50010E+03 -4.47428E+03  4.02356E+03 -2.27334E+03  3.73339E+03  6.12862E+02
  2.45562E+03  1.73844E+03  1.28526E+03  1.53342E+03 -6.48682E+02  1.25019E+03  1.59085E+03 -3.19105E+02
  1.41601E+03 -1.65308E+02  4.23958E+03  1.73735E+03  2.19981E+03  5.59712E+03 -6.77369E+02  7.04547E+03
 -4.69241E+03  4.13442E+03 -6.11038E+03  1.39801E+03 -6.08747E+03 -2.06201E+03 -1.63787E+03 -3.76026E+03
  5.37016E+02 -3.70655E+03  2.62489E+03 -2.00957E+03  1.85516E+03  1.97124E+03 -1.24104E+03  3.23248E+03
 -4.36125E+03  1.47180E+03 -4.18105E+03 -2.75653E+03 -2.26351E+03 -5.24319E+03  6.60337E+02 -5.12646E+03
  2.89175E+03 -3.12023E+03  3.60385E+03 -3.09136E+02  3.29042E+03  1.35132E+03  4.82580E+02  2.62534E+03
 -2.12926E+03  5.92259E+02 -2.78394E+03 -1.79107E+03  8.87863E+02 -3.68340E+03  4.41438E+03 -3.19699E+03
  5.92656E+03  6.45303E+02  6.33506E+03  3.72086E+03  2.05661E+03  6.23272E+03 -2.27443E+03  5.80147E+03
 -4.89636E+03  2.23239E+03 -5.28755E+03 -8.48226E+02 -2.87545E+03 -4.11782E+03  1.48096E+03 -3.12597E+03
  3.84806E+03 -1.70145E+03  3.25107E+03  1.72826E+03  1.05705E+03  3.72813E+03 -7.98278E+02  2.94578E+03
 -1.42903E+03  2.39344E+03 -1.26987E+03  3.96110E+02 -4.55361E+02  5.43572E+02 -1.39764E+03  1.12836E+03
 -1.73377E+03  2.50172E+03 -4.30174E+03  1.78850E+03 -5.83208E+03  1.26133E+02 -6.74056E+03 -3.83739E+03
 -3.50059E+03 -8.05474E+03  1.46330E+03 -9.07022E+03  5.44090E+03 -7.18870E+03  8.59421E+03 -2.45882E+03
  8.40740E+03  1.64129E+03  4.77366E+03  5.41064E+03  1.66933E+02  6.08602E+03 -2.23406E+03  4.93289E+03
 -3.57569E+03  2.25397E+03 -2.02455E+03 -5.32093E+02 -8.87391E+02 -2.69070E+02 -5.93294E+02 -2.83504E+01
 -1.17981E+03  1.51055E+02 -1.34537E+03 -1.77394E+02 -1.37005E+02 -1.33455E+03 -2.75123E+02 -2.37246E+03
  3.21825E+03 -2.35912E+03  3.89485E+03  1.74573E+02  4.06601E+03  3.40658E+03  1.15602E+03  5.83398E+03
 -3.02718E+03  7.17661E+03 -6.52801E+03  3.86099E+03 -6.92603E+03 -3.17232E+02 -5.29715E+03 -4.73722E+03
 -2.22666E+03 -5.91836E+03  1.65205E+03 -5.66436E+03  3.94026E+03 -2.99080E+03  3.59986E+03  1.69790E+02
  2.31525E+03  1.97997E+03 -7.30339E+01  1.29962E+03 -1.12953E+03  1.57221E+02 -3.59067E+02 -1.24584E+03
  1.73242E+03 -6.18468E+02  2.32843E+03  8.61891E+02  1.14233E+03  2.22728E+03  2.27793E+02  3.02617E+03
 -2.75688E+03  2.65119E+03 -3.95041E+03  3.12186E+02 -3.36289E+03 -2.38283E+03 -3.02212E+02 -4.91235E+03
  2.84787E+03 -4.02862E+03  4.13878E+03 -8.96701E+02  4.52212E+03  4.96979E+02  2.65699E+03  3.52147E+03
  8.43202E+02  3.55027E+03 -1.20218E+03  3.03682E+03 -2.57529E+03  1.87058E+03 -2.13202E+03  2.62038E+02
 -1.37652E+03 -7.35101E+01 -1.39338E+03  2.29775E+02 -2.15147E+03  3.82264E+02 -2.79697E+03 -6.00820E+02
 -3.08855E+03 -1.65584E+03 -1.05002E+03 -4.11052E+03  1.71621E+03 -4.04823E+03  3.36604E+03 -1.86854E+03
  3.57635E+03  7.05072E+02  1.85234E+03  2.64973E+03 -2.30793E+02  3.58775E+03 -2.76966E+03  2.60755E+03
