 $NMID ID='MM_0lb_SNR800_10hz_g45_38.RAW', FMTDAT='(8E13.5)'
 TRAMP=1., VOLUME=1. $END
  3.09862E+05  5.05446E+02  3.37564E+05  2.50829E+05  8.47421E+04  3.38359E+05 -1.32249E+05  2.51734E+05
 -1.90563E+05  8.34327E+04 -1.12093E+05 -3.25121E+04  7.48746E+01 -5.04909E+04  5.41278E+04 -5.16019E+02
  3.55005E+04  5.28352E+04 -1.66612E+04  7.60412E+04 -6.11667E+04  6.41892E+04 -8.52124E+04  3.23126E+04
 -8.20594E+04 -1.16988E+04 -5.78678E+04 -5.20559E+04 -1.52136E+04 -7.08157E+04  2.79822E+04 -4.66764E+04
  4.07080E+04  3.65435E+03  1.65461E+04  4.81006E+04 -3.44582E+04  4.73677E+04 -6.77834E+04  5.95006E+01
 -5.41377E+04 -5.77344E+04 -7.15000E+03 -7.81595E+04  3.43423E+04 -5.63535E+04  4.89416E+04 -1.82774E+04
  4.48183E+04  1.14218E+04  3.27876E+04  2.57802E+04  1.57252E+04  2.98394E+04 -5.84753E+03  2.78623E+04
 -2.26528E+04  1.22002E+04 -1.84075E+04 -5.39213E+03  6.47031E+03 -7.46678E+03  2.33543E+04  1.32978E+04
  7.17634E+03  3.68698E+04 -3.34715E+04  3.68670E+04 -6.51269E+04  2.15668E+03 -5.78840E+04 -4.41762E+04
 -1.26671E+04 -6.49646E+04  4.10319E+04 -4.66452E+04  6.01779E+04 -2.75945E+03  3.59717E+04  3.38744E+04
 -5.60520E+03  3.82388E+04 -3.14535E+04  1.77303E+04 -3.28527E+04 -4.10197E+03 -1.84915E+04 -1.18229E+04
 -8.98584E+03 -1.48726E+04 -7.26812E+02 -1.95498E+04  8.65108E+03 -2.36472E+04  1.54811E+04 -1.30992E+04
  1.09737E+04  5.86305E+03 -9.76927E+03  1.27696E+04 -2.27719E+04 -5.89332E+03 -8.49980E+03 -3.62098E+04
  2.42039E+04 -4.57672E+04  5.08921E+04 -2.03474E+04  4.74722E+04  2.05236E+04  1.69235E+04  4.63564E+04
 -1.66111E+04  3.54125E+04 -2.68338E+04  2.27353E+03 -1.09586E+04 -2.91721E+04  2.14409E+04 -3.60316E+04
  4.33120E+04 -1.02129E+04  3.93859E+04  2.45800E+04  2.06289E+04  4.95396E+04 -7.90228E+03  5.47656E+04
 -3.41901E+04  3.67440E+04 -4.56859E+04  1.05643E+04 -4.59460E+04 -1.75727E+04 -2.55192E+04 -4.05879E+04
  7.57304E+03 -4.06255E+04  3.36004E+04 -1.62014E+04  3.11610E+04  1.13730E+04  4.97617E+03  2.06306E+04
 -1.36010E+04  9.12605E+03 -1.16581E+04 -7.52615E+03  5.99038E+03 -1.11997E+04  1.87509E+04  5.77531E+03
  1.45627E+04  2.23576E+04 -5.04710E+03  2.65195E+04 -2.30593E+04  1.33600E+04 -3.06018E+04 -3.56115E+03
 -2.41496E+04 -1.83064E+04 -1.08491E+04 -2.35215E+04  4.26329E+03 -2.39076E+04  1.88832E+04 -2.14632E+04
  3.04062E+04 -1.33403E+04  3.60754E+04  4.40309E+03  2.60849E+04  2.30594E+04  4.47136E+03  3.95982E+04
 -1.91555E+04  3.27209E+04 -2.99053E+04  1.13285E+04 -2.19233E+04 -1.02025E+04 -4.58722E+03 -1.29341E+04
  1.14002E+03 -1.76330E+03 -7.12415E+03  7.73649E+03 -1.88167E+04  4.87659E+03 -1.86993E+04 -8.44808E+03
 -1.14344E+04 -2.23130E+04  5.93258E+03 -2.61297E+04  1.76017E+04 -1.83445E+04  2.13628E+04 -1.78817E+03
  1.37111E+04  1.49912E+04 -1.27932E+03  2.17272E+04 -1.55821E+04  1.27938E+04 -2.19707E+04 -4.37465E+03
 -1.60320E+04 -1.95534E+04 -2.03003E+03 -2.67381E+04  1.18010E+04 -2.19987E+04  2.18391E+04 -1.11824E+04
  2.07960E+04 -1.85444E+00  1.51129E+04  5.36830E+03  8.25514E+03  9.60138E+02  1.17271E+04 -1.81201E+03
  2.07563E+04  2.73031E+03  2.34416E+04  1.75955E+04  1.59937E+04  3.52767E+04 -2.84208E+03  4.12698E+04
 -2.36628E+04  3.38402E+04 -3.88035E+04  1.73089E+04 -4.13641E+04 -2.95758E+03 -3.34856E+04 -2.35788E+04
 -1.37338E+04 -3.40106E+04  1.21776E+04 -3.02676E+04  2.62801E+04 -1.43061E+04  2.31194E+04  7.12414E+03
  7.86460E+03  1.73997E+04 -1.11075E+04  1.46905E+04 -1.90030E+04  2.64015E+03 -1.41230E+04 -1.21371E+04
 -4.38047E+02 -1.78546E+04  9.72705E+03 -1.36352E+04  1.21371E+04 -1.83016E+03  2.76933E+03  8.05565E+03
 -8.27126E+03  3.52783E+03 -8.25873E+03 -6.63352E+03 -1.13711E+03 -1.63625E+04  1.12636E+04 -1.82016E+04
  2.13352E+04 -1.03379E+04  2.37211E+04  3.17989E+03  2.08182E+04  1.68968E+04  9.48562E+03  2.66029E+04
 -4.88516E+03  2.83460E+04 -1.83341E+04  1.76162E+04 -2.07024E+04  4.20894E+03 -1.42334E+04 -5.04871E+03
 -6.16191E+03 -6.70480E+03 -9.47207E+02  3.57118E+02 -2.62871E+03  3.18369E+03 -6.74331E+03  4.97297E+03
 -1.32938E+04 -7.55975E+02 -1.37622E+04 -1.10050E+04 -5.28094E+03 -1.80902E+04  5.92378E+03 -1.46611E+04
  1.19237E+04 -5.95228E+03  8.29973E+03  4.11844E+03 -2.66158E+02  5.11343E+03 -7.07059E+03 -3.27900E+02
 -6.84918E+03 -9.32614E+03 -1.03187E+03 -1.41345E+04  8.41214E+03 -1.47326E+04  1.82242E+04 -7.79338E+03
  2.12667E+04  1.79943E+03  1.56972E+04  1.33141E+04  3.03443E+03  1.69088E+04 -8.75227E+03  1.45045E+04
 -1.14410E+04  4.02243E+03 -5.68516E+03 -2.83887E+03  2.09853E+03 -3.96862E+03  7.91985E+03 -1.02445E+03
  6.84056E+03  6.15694E+03  1.27273E+03  1.15232E+04 -8.43281E+03  1.12122E+04 -1.39409E+04  2.70751E+03
 -9.63124E+03 -7.40789E+03  4.63931E+02 -1.20676E+04  7.93426E+03 -6.33901E+03  8.38580E+03  2.93604E+03
  1.65130E+03  8.63793E+03 -7.30664E+03  1.03028E+04 -1.21791E+04  4.61175E+03 -1.21281E+04 -4.25094E+03
 -7.48826E+03 -1.38615E+04  3.49034E+03 -1.62273E+04  1.36602E+04 -9.35083E+03  1.51212E+04  2.54605E+03
  8.76841E+03  1.17831E+04 -1.27784E+03  1.43751E+04 -1.02802E+04  8.13746E+03 -1.09995E+04 -1.20163E+03
 -1.00101E+04 -9.52428E+03 -1.69589E+03 -1.06590E+04  5.94414E+03 -8.93988E+03  6.36193E+03 -3.44901E+03
  4.81278E+03  1.88487E+03 -6.83757E+02  1.85376E+03 -4.51495E+02 -2.37193E+03  2.24566E+03 -5.86090E+03
  9.88017E+03 -3.86219E+03  1.39711E+04  1.52568E+03  1.37076E+04  9.42003E+03  8.92291E+03  1.83655E+04
 -4.24242E+03  2.11726E+04 -1.77360E+04  1.56363E+04 -2.26898E+04  2.76917E+03 -1.80920E+04 -7.65762E+03
 -9.01941E+03 -1.49053E+04 -3.07993E+02 -1.30777E+04  4.39452E+03 -6.94098E+03  4.67127E+03 -4.67296E+03
  3.09224E+03 -2.79805E+03  3.24828E+03 -3.42634E+03  5.53584E+03 -2.80364E+03  7.07797E+03 -1.00285E+03
  9.43776E+03  2.31507E+03  4.88881E+03  8.20582E+03 -2.21938E+03  9.70658E+03 -1.03428E+04  7.27579E+03
 -1.22491E+04 -1.42430E+03 -8.25946E+03 -8.96113E+03 -9.18411E+02 -1.40296E+04  7.33940E+03 -1.37507E+04
  1.42265E+04 -7.57856E+03  1.68388E+04  2.00154E+03  1.19480E+04  1.17141E+04  1.74190E+03  1.52107E+04
 -6.42852E+03  1.24559E+04 -8.87410E+03  4.19947E+03 -6.70432E+03 -1.45893E+03 -2.82362E+03 -1.96381E+03
 -7.45341E+02 -2.07364E+02 -1.91418E+03  3.06145E+03 -5.43876E+03  2.50250E+03 -9.02563E+03 -1.54056E+03
 -6.05336E+03 -8.97869E+03 -1.80270E+01 -1.27980E+04  7.75188E+03 -1.17306E+04  1.21762E+04 -3.51065E+03
  1.23679E+04  5.89587E+03  5.98656E+03  1.13133E+04 -2.94271E+03  1.27571E+04 -9.38876E+03  7.90102E+03
 -1.20097E+04  3.31071E+02 -9.00271E+03 -8.02823E+03 -9.42723E+02 -1.04096E+04  5.37006E+03 -8.18859E+03
  8.18510E+03 -2.51019E+03  5.91004E+03  2.12753E+03  1.87021E+03  4.08867E+03  1.10154E+03  1.95321E+03
  2.12320E+03  1.20076E+03  3.56290E+03  1.80276E+03  3.60450E+03  4.63737E+03  3.14012E+03  6.66907E+03
 -2.51560E+03  1.02007E+04 -8.98607E+03  1.03443E+04 -1.31368E+04  2.50133E+03 -1.33116E+04 -5.61732E+03
 -6.12000E+03 -1.26856E+04  1.74225E+03 -1.41594E+04  7.71257E+03 -9.36154E+03  1.03038E+04 -2.27744E+03
  7.97892E+03  4.96051E+03  1.82538E+03  7.31130E+03 -2.99083E+03  4.73363E+03 -5.26590E+03 -5.40548E+02
 -2.26541E+03 -5.75309E+03  2.88792E+03 -5.47772E+03  5.53207E+03 -2.86788E+03  4.91183E+03  1.37555E+03
  3.02282E+03  2.65723E+03  1.32610E+03  2.00219E+03 -7.34740E+02  1.91936E+03  1.53814E+03 -3.88223E+02
  2.24214E+03 -8.60083E+02  5.23224E+03  2.37527E+03  3.28749E+03  7.01974E+03 -1.07494E+03  9.35586E+03
 -5.90636E+03  6.05008E+03 -8.11219E+03  1.66158E+03 -7.17990E+03 -2.86870E+03 -2.74198E+03 -5.08043E+03
  6.55912E+02 -4.98594E+03  3.29780E+03 -2.17712E+03  2.68912E+03  2.58893E+03 -9.80934E+02  4.17572E+03
 -5.32924E+03  2.62383E+03 -5.97167E+03 -3.33077E+03 -3.33319E+03 -7.08956E+03  1.19432E+03 -7.01680E+03
  4.12500E+03 -4.18343E+03  4.85348E+03 -1.34707E+02  4.39864E+03  1.84314E+03  3.12596E+02  4.01941E+03
 -2.92928E+03  1.16407E+03 -3.04070E+03 -2.43959E+03  1.46466E+03 -5.60927E+03  6.21664E+03 -4.20937E+03
  8.01580E+03  8.12042E+02  7.88616E+03  5.66206E+03  2.91006E+03  8.77138E+03 -3.27493E+03  7.86728E+03
 -6.88988E+03  3.42156E+03 -6.94067E+03 -1.12384E+03 -3.72698E+03 -5.72213E+03  1.55223E+03 -5.06496E+03
  5.31831E+03 -2.63712E+03  4.47774E+03  2.27308E+03  1.41821E+03  4.44959E+03 -4.31779E+02  4.15519E+03
 -2.44996E+03  2.59344E+03 -2.12934E+03  9.08660E+02 -9.33729E+02  7.62403E+02 -1.84087E+03  1.70354E+03
 -2.28346E+03  3.24776E+03 -5.93021E+03  2.62258E+03 -8.61557E+03  3.65963E+02 -9.42871E+03 -5.26795E+03
 -4.93279E+03 -1.09478E+04  2.38592E+03 -1.26512E+04  7.09615E+03 -1.00932E+04  1.16187E+04 -3.67143E+03
  1.12263E+04  1.97619E+03  6.46412E+03  7.83764E+03  4.95622E+02  8.51452E+03 -3.75586E+03  6.40007E+03
 -4.65029E+03  2.46252E+03 -3.01017E+03 -1.08178E+03 -1.16875E+03 -8.81455E+02 -9.58851E+02  2.49098E+02
 -1.46188E+03  9.97494E+01 -1.90014E+03 -2.33913E+02 -4.39118E+02 -1.78373E+03  2.76578E+00 -3.33557E+03
  3.61679E+03 -2.43362E+03  5.21095E+03  2.62735E+02  5.72860E+03  4.45166E+03  1.18247E+03  8.31572E+03
 -4.01309E+03  9.66260E+03 -9.01256E+03  5.69925E+03 -1.01849E+04 -9.51812E+02 -7.70390E+03 -6.47066E+03
 -3.61996E+03 -8.58605E+03  2.30192E+03 -8.17252E+03  5.25784E+03 -4.43544E+03  5.44171E+03  5.16586E+02
  2.89597E+03  2.81086E+03 -2.91436E+02  2.34054E+03 -1.53437E+03 -3.07433E+02  3.11012E+02 -1.89908E+03
  2.43764E+03 -1.13726E+03  3.16685E+03  1.18798E+03  1.84401E+03  3.10555E+03  4.83089E+02  4.35215E+03
 -3.93375E+03  4.00224E+03 -5.54798E+03  4.25360E+02 -5.56864E+03 -3.76780E+03 -9.10790E+02 -7.14444E+03
  4.16130E+03 -5.84569E+03  6.47071E+03 -1.87907E+03  6.44543E+03  1.04837E+03  3.86854E+03  4.95993E+03
  4.67723E+02  5.16095E+03 -2.02435E+03  4.48586E+03 -3.30310E+03  2.49745E+03 -2.77998E+03  4.68972E+02
 -1.48267E+03 -2.11082E+02 -1.86300E+03  5.40038E+02 -3.25921E+03  1.00285E+03 -4.14147E+03 -5.95876E+02
 -4.27121E+03 -2.66331E+03 -1.17426E+03 -5.45999E+03  2.57350E+03 -6.36595E+03  4.87864E+03 -2.69230E+03
  5.22264E+03  5.24947E+02  2.77255E+03  3.82497E+03 -4.08404E+02  5.43638E+03 -4.15945E+03  3.44625E+03
