 $NMID ID='MM_0lb_SNR800_7hz_g60_57.RAW', FMTDAT='(8E13.5)'
 TRAMP=1., VOLUME=1. $END
  3.09903E+05  4.12847E+02  3.38706E+05  2.51246E+05  8.52814E+04  3.39461E+05 -1.32825E+05  2.52742E+05
 -1.91193E+05  8.43485E+04 -1.13102E+05 -3.22836E+04 -5.33332E+01 -5.06211E+04  5.32659E+04 -6.19167E+02
  3.55573E+04  5.27312E+04 -1.69582E+04  7.55435E+04 -6.13787E+04  6.49084E+04 -8.58062E+04  3.24941E+04
 -8.30797E+04 -1.19559E+04 -5.89780E+04 -5.33003E+04 -1.54450E+04 -7.18467E+04  2.86729E+04 -4.74461E+04
  4.15523E+04  3.82625E+03  1.69502E+04  4.91526E+04 -3.52519E+04  4.85106E+04 -6.86980E+04 -1.07272E+02
 -5.60761E+04 -5.85332E+04 -7.32727E+03 -7.99003E+04  3.51752E+04 -5.87335E+04  5.08914E+04 -1.91908E+04
  4.60504E+04  1.14598E+04  3.38534E+04  2.67658E+04  1.60933E+04  3.15027E+04 -5.63496E+03  2.79159E+04
 -2.29624E+04  1.18398E+04 -1.75872E+04 -6.23391E+03  7.48125E+03 -7.80813E+03  2.41876E+04  1.47626E+04
  6.70694E+03  3.86802E+04 -3.46563E+04  3.83409E+04 -6.68263E+04  1.98499E+03 -5.99256E+04 -4.56808E+04
 -1.32723E+04 -6.71870E+04  4.25129E+04 -4.84461E+04  6.30526E+04 -2.89410E+03  3.77564E+04  3.53374E+04
 -4.97266E+03  4.14541E+04 -3.26468E+04  2.10242E+04 -3.52033E+04 -3.19875E+03 -2.07221E+04 -1.23625E+04
 -1.03027E+04 -1.63031E+04 -2.98240E+02 -2.08008E+04  9.20032E+03 -2.37933E+04  1.64433E+04 -1.19727E+04
  9.62893E+03  6.45236E+03 -1.20705E+04  1.23945E+04 -2.44356E+04 -7.84031E+03 -8.97879E+03 -3.98031E+04
  2.66606E+04 -4.91076E+04  5.44478E+04 -2.15938E+04  5.09855E+04  2.15945E+04  1.76593E+04  4.88757E+04
 -1.74427E+04  3.78088E+04 -2.91119E+04  3.38202E+03 -1.28090E+04 -2.99806E+04  2.24012E+04 -3.90793E+04
  4.69990E+04 -1.25403E+04  4.31629E+04  2.53658E+04  2.34287E+04  5.36558E+04 -8.57558E+03  5.96890E+04
 -3.76606E+04  4.12032E+04 -5.09610E+04  1.21299E+04 -5.04884E+04 -1.96298E+04 -2.76932E+04 -4.44803E+04
  8.24428E+03 -4.46365E+04  3.59536E+04 -1.79065E+04  3.39546E+04  1.06832E+04  6.12623E+03  2.15793E+04
 -1.44842E+04  1.06172E+04 -1.15236E+04 -7.23054E+03  5.60811E+03 -1.22848E+04  1.90239E+04  5.20680E+03
  1.57104E+04  2.30536E+04 -4.63018E+03  2.86193E+04 -2.39704E+04  1.58171E+04 -3.38050E+04 -2.00860E+03
 -2.87511E+04 -1.88613E+04 -1.34411E+04 -2.77126E+04  4.51563E+03 -2.90289E+04  2.25803E+04 -2.59637E+04
  3.56878E+04 -1.49405E+04  4.12773E+04  6.25639E+03  2.89944E+04  2.72719E+04  4.76718E+03  4.42541E+04
 -2.12326E+04  3.60759E+04 -3.19598E+04  1.28226E+04 -2.33327E+04 -1.04427E+04 -5.20682E+03 -1.22926E+04
  7.66653E+02 -1.27378E+02 -9.19996E+03  9.08015E+03 -2.24706E+04  4.68888E+03 -2.28190E+04 -1.13541E+04
 -1.33226E+04 -2.53399E+04  6.10315E+03 -3.12244E+04  2.11943E+04 -2.20491E+04  2.55050E+04 -1.99802E+03
  1.63306E+04  1.83894E+04 -1.59010E+03  2.60167E+04 -1.90110E+04  1.51520E+04 -2.66928E+04 -5.18988E+03
 -1.91125E+04 -2.36546E+04 -2.31309E+03 -3.12883E+04  1.34392E+04 -2.57500E+04  2.55484E+04 -1.36992E+04
  2.53964E+04 -8.88188E+02  1.77988E+04  5.62554E+03  1.03786E+04  2.29233E+03  1.40034E+04 -2.07537E+03
  2.50828E+04  2.61625E+03  2.94028E+04  2.00537E+04  2.05675E+04  4.28124E+04 -2.62424E+03  5.09121E+04
 -2.91045E+04  4.28272E+04 -4.80402E+04  2.19809E+04 -5.14419E+04 -3.17491E+03 -4.15971E+04 -3.08140E+04
 -1.60261E+04 -4.32646E+04  1.53738E+04 -3.71106E+04  3.24465E+04 -1.66873E+04  2.70376E+04  9.67895E+03
  8.35187E+03  2.15484E+04 -1.32172E+04  1.73536E+04 -2.25099E+04  2.37988E+03 -1.70125E+04 -1.44695E+04
 -3.78082E+02 -2.15710E+04  1.16453E+04 -1.61691E+04  1.53113E+04 -1.36122E+03  4.36058E+03  9.87225E+03
 -9.58725E+03  4.99992E+03 -1.14709E+04 -7.98463E+03 -2.86918E+03 -2.08055E+04  1.36052E+04 -2.34947E+04
  2.67329E+04 -1.38529E+04  3.16094E+04  3.61300E+03  2.74496E+04  2.21103E+04  1.30306E+04  3.49607E+04
 -7.32543E+03  3.72147E+04 -2.45154E+04  2.30339E+04 -2.69760E+04  4.04909E+03 -1.78307E+04 -7.65845E+03
 -7.60853E+03 -8.50721E+03 -2.79573E+02  1.68781E+02 -3.03253E+03  4.22745E+03 -8.87480E+03  6.37382E+03
 -1.60375E+04 -1.54016E+03 -1.69895E+04 -1.39792E+04 -7.19948E+03 -2.30870E+04  7.30436E+03 -1.82890E+04
  1.55500E+04 -7.13635E+03  1.02236E+04  5.08407E+03 -5.99091E+02  7.27151E+03 -9.53715E+03 -7.65266E+01
 -9.18112E+03 -1.20182E+04 -1.42199E+03 -1.89640E+04  1.13334E+04 -1.97450E+04  2.43519E+04 -9.94196E+03
  2.81613E+04  3.37826E+03  2.02640E+04  1.75090E+04  3.96698E+03  2.29928E+04 -1.11658E+04  1.82702E+04
 -1.53566E+04  4.96901E+03 -7.94834E+03 -3.64090E+03  2.38310E+03 -5.60997E+03  9.42634E+03 -1.28561E+03
  9.33884E+03  8.30791E+03  1.17106E+03  1.56665E+04 -1.06876E+04  1.41130E+04 -1.83632E+04  2.92250E+03
 -1.29176E+04 -1.08440E+04  1.92421E+02 -1.62899E+04  1.14633E+04 -8.49512E+03  1.17548E+04  3.97192E+03
  2.89896E+03  1.26263E+04 -9.72617E+03  1.43344E+04 -1.71511E+04  5.86659E+03 -1.76331E+04 -6.32757E+03
 -1.03752E+04 -2.01947E+04  4.64670E+03 -2.26677E+04  1.97319E+04 -1.35757E+04  2.16656E+04  3.88267E+03
  1.23252E+04  1.68131E+04 -2.46625E+03  1.93988E+04 -1.45346E+04  1.08085E+04 -1.53464E+04 -1.82551E+03
 -1.30683E+04 -1.27328E+04 -1.45839E+03 -1.52885E+04  8.10957E+03 -1.20730E+04  9.53921E+03 -4.09177E+03
  6.33503E+03  3.09036E+03 -1.50201E+03  2.65687E+03 -1.29623E+03 -4.54745E+03  3.81473E+03 -9.91145E+03
  1.46907E+04 -6.42543E+03  2.08219E+04  2.73267E+03  1.99974E+04  1.44946E+04  1.20254E+04  2.72187E+04
 -7.29950E+03  3.07937E+04 -2.51348E+04  2.28470E+04 -3.25264E+04  4.75238E+03 -2.70588E+04 -1.17104E+04
 -1.31912E+04 -2.20158E+04 -1.07970E+01 -1.92176E+04  7.10695E+03 -1.13270E+04  7.03840E+03 -6.87709E+03
  5.23813E+03 -3.91388E+03  4.29494E+03 -4.96500E+03  6.74277E+03 -4.52156E+03  1.01250E+04 -2.32561E+03
  1.33735E+04  3.21385E+03  7.96734E+03  1.23280E+04 -2.41727E+03  1.54123E+04 -1.44280E+04  1.17942E+04
 -1.94893E+04 -1.83571E+03 -1.29814E+04 -1.32401E+04 -2.44102E+03 -2.11159E+04  1.10052E+04 -2.10604E+04
  2.18293E+04 -1.16384E+04  2.56578E+04  3.86372E+03  1.76532E+04  1.81603E+04  2.46596E+03  2.34890E+04
 -9.44228E+03  1.78394E+04 -1.38690E+04  6.25913E+03 -9.91159E+03 -1.68001E+03 -4.28736E+03 -2.96726E+03
 -1.52929E+03 -4.98841E+02 -2.69988E+03  4.19712E+03 -8.62312E+03  3.30337E+03 -1.29615E+04 -1.77784E+03
 -9.31902E+03 -1.33183E+04 -4.80648E+02 -1.95299E+04  1.19855E+04 -1.81625E+04  2.03356E+04 -5.80926E+03
  1.94805E+04  9.57960E+03  9.14234E+03  1.83724E+04 -4.14792E+03  2.02478E+04 -1.47347E+04  1.21569E+04
 -1.90197E+04  4.65536E+02 -1.42252E+04 -1.24284E+04 -1.83026E+03 -1.70396E+04  8.68300E+03 -1.23060E+04
  1.31470E+04 -3.56296E+03  8.50609E+03  4.01199E+03  3.32624E+03  5.45639E+03  1.70896E+03  2.60623E+03
  3.02549E+03  8.44675E+02  5.54928E+03  2.87771E+03  6.09644E+03  7.02152E+03  4.97986E+03  1.08763E+04
 -3.81671E+03  1.64502E+04 -1.44933E+04  1.57590E+04 -2.17300E+04  3.53791E+03 -2.14848E+04 -9.54541E+03
 -1.06130E+04 -2.11223E+04  2.80288E+03 -2.26334E+04  1.30592E+04 -1.49126E+04  1.70188E+04 -3.92200E+03
  1.31710E+04  7.96053E+03  3.11242E+03  1.19671E+04 -5.65309E+03  7.74326E+03 -8.86836E+03 -1.04839E+03
 -4.28276E+03 -8.73520E+03  4.87963E+03 -9.74886E+03  9.38124E+03 -4.64548E+03  8.64623E+03  2.35297E+03
  5.23530E+03  4.17184E+03  2.05139E+03  3.94617E+03 -7.81064E+02  2.73460E+03  1.68066E+03 -1.10078E+03
  2.88869E+03 -1.20216E+03  8.85390E+03  3.40776E+03  5.19243E+03  1.08421E+04 -1.68495E+03  1.49353E+04
 -1.04551E+04  1.01404E+04 -1.39200E+04  2.98213E+03 -1.26017E+04 -4.57016E+03 -4.89988E+03 -8.82362E+03
  7.36811E+02 -8.32573E+03  5.50446E+03 -3.49651E+03  4.77813E+03  3.67169E+03 -1.78041E+03  7.29120E+03
 -8.56524E+03  4.39668E+03 -1.03787E+04 -4.79187E+03 -6.14830E+03 -1.21361E+04  1.84264E+03 -1.18970E+04
  7.90748E+03 -7.77882E+03  8.98020E+03 -1.19197E+03  7.22854E+03  3.47658E+03  1.25011E+03  6.15209E+03
 -5.22787E+03  2.14352E+03 -5.45366E+03 -4.43019E+03  1.91261E+03 -9.30013E+03  1.10227E+04 -7.58229E+03
  1.41825E+04  9.93749E+02  1.32874E+04  9.83471E+03  3.93808E+03  1.57505E+04 -5.50195E+03  1.38440E+04
 -1.23244E+04  6.41263E+03 -1.28524E+04 -2.22411E+03 -7.29940E+03 -9.37119E+03  1.78882E+03 -9.30084E+03
  9.41625E+03 -4.25076E+03  8.10409E+03  3.55337E+03  2.53828E+03  7.74774E+03 -1.55696E+03  7.18799E+03
 -4.15304E+03  4.11836E+03 -3.39504E+03  1.86535E+03 -2.06872E+03  1.29432E+03 -1.88244E+03  3.12377E+03
 -3.80250E+03  5.04448E+03 -1.02213E+04  5.58556E+03 -1.47402E+04  2.78588E+01 -1.65027E+04 -9.97633E+03
 -9.11274E+03 -1.98927E+04  3.87096E+03 -2.26652E+04  1.49476E+04 -1.76807E+04  2.17023E+04 -6.68865E+03
  1.98980E+04  5.09216E+03  1.27995E+04  1.40648E+04  1.25879E+03  1.64296E+04 -6.01646E+03  1.20820E+04
 -8.95490E+03  4.67150E+03 -5.47341E+03 -2.12955E+03 -1.69459E+03 -1.26038E+03 -8.57677E+02  6.94161E+00
 -1.79508E+03  4.01486E+02 -3.14174E+03 -5.22716E+02 -1.64211E+03 -3.67435E+03  4.26265E+02 -5.72980E+03
  7.02343E+03 -4.74958E+03  1.00538E+04 -6.65442E+02  1.09245E+04  8.36024E+03  3.55130E+03  1.63670E+04
 -7.82943E+03  1.79391E+04 -1.74429E+04  1.00595E+04 -1.93140E+04 -1.82486E+03 -1.48249E+04 -1.20331E+04
 -5.81635E+03 -1.69876E+04  4.03051E+03 -1.52762E+04  1.04750E+04 -8.34081E+03  1.04872E+04  4.26248E+02
  5.88052E+03  5.73768E+03 -6.96088E+02  4.82590E+03 -3.31025E+03 -4.15702E+02  3.25139E+00 -3.91713E+03
  5.37473E+03 -2.27181E+03  7.18235E+03  2.15328E+03  4.40131E+03  6.55674E+03 -9.10542E+01  8.38382E+03
 -7.45158E+03  7.44729E+03 -1.11442E+04  6.68140E+02 -1.00471E+04 -7.96515E+03 -1.76926E+03 -1.40565E+04
  7.91690E+03 -1.21197E+04  1.28780E+04 -3.78134E+03  1.27698E+04  3.27058E+03  7.88132E+03  1.06864E+04
  1.13628E+03  1.15180E+04 -4.59418E+03  8.93516E+03 -6.78965E+03  4.72164E+03 -5.70258E+03  6.18123E+02
 -3.53134E+03  7.92727E+01 -3.22579E+03  1.60455E+03 -6.02868E+03  1.69875E+03 -8.97558E+03 -1.82654E+03
 -7.76705E+03 -6.22004E+03 -2.41953E+03 -1.13758E+04  4.47139E+03 -1.15884E+04  9.99842E+03 -5.79360E+03
  1.09368E+04  1.27000E+03  6.91870E+03  8.39740E+03 -1.11994E+03  1.18121E+04 -9.37794E+03  7.41433E+03
