 $NMID ID='MM_0lb_SNR800_10hz_g45_61.RAW', FMTDAT='(8E13.5)'
 TRAMP=1., VOLUME=1. $END
  3.10122E+05  2.60022E+02  3.38179E+05  2.50867E+05  8.47731E+04  3.38265E+05 -1.32246E+05  2.51479E+05
 -1.90822E+05  8.34140E+04 -1.12398E+05 -3.22242E+04  5.32603E+02 -5.07993E+04  5.36663E+04 -4.35917E+02
  3.55994E+04  5.31883E+04 -1.65977E+04  7.58871E+04 -6.09872E+04  6.43625E+04 -8.49337E+04  3.22919E+04
 -8.18353E+04 -1.17353E+04 -5.76286E+04 -5.25266E+04 -1.49996E+04 -7.04349E+04  2.81790E+04 -4.63074E+04
  4.09552E+04  4.12800E+03  1.65373E+04  4.81834E+04 -3.45178E+04  4.80969E+04 -6.74506E+04 -5.13866E+01
 -5.45570E+04 -5.72798E+04 -7.59023E+03 -7.82440E+04  3.44011E+04 -5.66467E+04  4.93246E+04 -1.83176E+04
  4.47491E+04  1.10662E+04  3.27139E+04  2.62595E+04  1.60782E+04  3.04236E+04 -5.33293E+03  2.74715E+04
 -2.23467E+04  1.24186E+04 -1.79282E+04 -5.56920E+03  6.48923E+03 -7.30833E+03  2.35778E+04  1.32142E+04
  7.08946E+03  3.72624E+04 -3.34707E+04  3.65019E+04 -6.49773E+04  2.17796E+03 -5.83258E+04 -4.38569E+04
 -1.23331E+04 -6.49613E+04  4.11620E+04 -4.66167E+04  6.03910E+04 -2.48772E+03  3.60030E+04  3.33744E+04
 -5.66481E+03  3.83510E+04 -3.12866E+04  1.79747E+04 -3.24285E+04 -3.75335E+03 -1.88663E+04 -1.12771E+04
 -9.04135E+03 -1.46574E+04 -5.71743E+02 -1.93742E+04  8.04500E+03 -2.35940E+04  1.58395E+04 -1.28907E+04
  1.05803E+04  6.25590E+03 -9.89037E+03  1.29563E+04 -2.24896E+04 -6.19020E+03 -8.68512E+03 -3.65715E+04
  2.41566E+04 -4.56644E+04  5.09329E+04 -2.08924E+04  4.77810E+04  2.04594E+04  1.66972E+04  4.65835E+04
 -1.61723E+04  3.48839E+04 -2.66967E+04  2.38637E+03 -1.08782E+04 -2.92734E+04  2.16057E+04 -3.61956E+04
  4.37488E+04 -1.07120E+04  3.88968E+04  2.47400E+04  2.03517E+04  4.96156E+04 -8.14293E+03  5.43018E+04
 -3.43275E+04  3.69350E+04 -4.59157E+04  1.05191E+04 -4.58674E+04 -1.79112E+04 -2.54980E+04 -4.08488E+04
  7.61632E+03 -4.07033E+04  3.31838E+04 -1.60701E+04  3.12482E+04  1.09750E+04  4.82113E+03  2.04172E+04
 -1.37481E+04  9.27298E+03 -1.10186E+04 -7.36774E+03  5.54203E+03 -1.08825E+04  1.84845E+04  5.75112E+03
  1.44171E+04  2.23119E+04 -5.64941E+03  2.68296E+04 -2.28045E+04  1.33171E+04 -3.06609E+04 -3.51904E+03
 -2.42235E+04 -1.81402E+04 -1.06125E+04 -2.37545E+04  4.25821E+03 -2.35858E+04  1.83891E+04 -2.17492E+04
  3.03977E+04 -1.36225E+04  3.66251E+04  4.44925E+03  2.58588E+04  2.31652E+04  4.51108E+03  3.96709E+04
 -1.89367E+04  3.28799E+04 -3.00526E+04  1.13694E+04 -2.16426E+04 -1.01802E+04 -4.81688E+03 -1.29453E+04
  1.04405E+03 -1.55068E+03 -6.70222E+03  7.52131E+03 -1.90132E+04  5.11692E+03 -1.90611E+04 -8.75768E+03
 -1.18509E+04 -2.23030E+04  5.67329E+03 -2.63885E+04  1.76040E+04 -1.92534E+04  2.14843E+04 -1.68604E+03
  1.37770E+04  1.51007E+04 -1.52796E+03  2.25693E+04 -1.55849E+04  1.22824E+04 -2.22887E+04 -4.59213E+03
 -1.60955E+04 -1.99355E+04 -2.04817E+03 -2.63487E+04  1.24148E+04 -2.18943E+04  2.19191E+04 -1.13389E+04
  2.05898E+04 -2.18792E+02  1.48997E+04  5.23577E+03  8.49118E+03  8.02228E+02  1.14570E+04 -2.17263E+03
  2.06826E+04  3.35903E+03  2.37323E+04  1.74229E+04  1.57848E+04  3.55679E+04 -2.76635E+03  4.10793E+04
 -2.40013E+04  3.41614E+04 -3.90596E+04  1.74365E+04 -4.11426E+04 -3.02188E+03 -3.36396E+04 -2.38524E+04
 -1.35798E+04 -3.44005E+04  1.21640E+04 -3.03165E+04  2.60619E+04 -1.44034E+04  2.28246E+04  7.23698E+03
  7.58025E+03  1.70691E+04 -1.05009E+04  1.47955E+04 -1.87203E+04  2.75561E+03 -1.43908E+04 -1.19207E+04
 -1.85006E+02 -1.75784E+04  9.64287E+03 -1.34589E+04  1.18291E+04 -1.49107E+03  3.31419E+03  8.00185E+03
 -8.22066E+03  3.90095E+03 -8.12298E+03 -6.57444E+03 -9.62982E+02 -1.69503E+04  1.10289E+04 -1.80061E+04
  2.12698E+04 -9.82146E+03  2.39389E+04  3.21260E+03  2.10086E+04  1.68078E+04  9.27089E+03  2.65798E+04
 -4.57154E+03  2.85659E+04 -1.87109E+04  1.75419E+04 -2.02986E+04  3.86348E+03 -1.40863E+04 -5.05123E+03
 -5.86411E+03 -6.33022E+03 -7.39868E+02  6.51328E+02 -3.07343E+03  3.55887E+03 -6.27521E+03  5.18768E+03
 -1.32115E+04 -9.10030E+02 -1.36839E+04 -1.09579E+04 -5.62147E+03 -1.82463E+04  5.45132E+03 -1.40044E+04
  1.21828E+04 -6.19725E+03  8.38380E+03  3.70179E+03 -2.89390E+02  5.65775E+03 -7.15200E+03 -4.72539E+01
 -6.73086E+03 -9.36387E+03 -1.28114E+03 -1.40081E+04  7.63045E+03 -1.46345E+04  1.82852E+04 -8.21861E+03
  2.15023E+04  2.22681E+03  1.59298E+04  1.30068E+04  2.97876E+03  1.74208E+04 -8.83135E+03  1.44520E+04
 -1.18592E+04  4.11656E+03 -5.51656E+03 -3.02995E+03  1.95823E+03 -3.87485E+03  7.21599E+03 -1.05152E+03
  6.95581E+03  6.00611E+03  1.33502E+03  1.14523E+04 -8.43797E+03  1.08833E+04 -1.44887E+04  2.66112E+03
 -9.44197E+03 -7.30419E+03  3.24853E+02 -1.21198E+04  7.85051E+03 -6.11978E+03  8.26541E+03  2.94958E+03
  1.75949E+03  8.95062E+03 -7.25803E+03  1.01933E+04 -1.23031E+04  4.29382E+03 -1.20985E+04 -4.29791E+03
 -7.17091E+03 -1.39640E+04  3.57816E+03 -1.61225E+04  1.38191E+04 -9.64242E+03  1.48264E+04  3.13444E+03
  9.00526E+03  1.18085E+04 -1.04617E+03  1.48375E+04 -1.03555E+04  7.90250E+03 -1.15129E+04 -1.04700E+03
 -9.68414E+03 -9.67474E+03 -1.62201E+03 -1.05539E+04  5.56392E+03 -8.28756E+03  6.96328E+03 -3.63993E+03
  4.53354E+03  1.66573E+03 -1.09950E+03  1.75944E+03 -6.87113E+02 -2.71875E+03  2.13159E+03 -6.33517E+03
  1.01728E+04 -4.35479E+03  1.37569E+04  1.57416E+03  1.36771E+04  9.69831E+03  8.85924E+03  1.84545E+04
 -4.16343E+03  2.12888E+04 -1.77776E+04  1.57552E+04 -2.23917E+04  2.92399E+03 -1.79656E+04 -7.80204E+03
 -9.10747E+03 -1.49333E+04 -4.64083E+02 -1.30835E+04  4.34586E+03 -6.81944E+03  4.65776E+03 -5.11171E+03
  3.49374E+03 -2.90319E+03  3.71020E+03 -3.58556E+03  5.50483E+03 -3.41175E+03  7.51585E+03 -1.07884E+03
  9.58692E+03  2.35488E+03  4.81186E+03  8.31750E+03 -2.18650E+03  9.41704E+03 -9.93148E+03  7.47801E+03
 -1.27767E+04 -1.19060E+03 -8.19906E+03 -8.93865E+03 -1.03244E+03 -1.38195E+04  7.68643E+03 -1.36595E+04
  1.41687E+04 -7.44243E+03  1.70468E+04  2.31563E+03  1.18438E+04  1.20571E+04  1.88238E+03  1.54263E+04
 -6.45486E+03  1.25527E+04 -9.23712E+03  4.50109E+03 -5.93446E+03 -1.31381E+03 -2.56745E+03 -2.38087E+03
 -1.21066E+03 -9.65516E+00 -1.95052E+03  2.94888E+03 -5.21617E+03  2.02035E+03 -8.59992E+03 -1.34790E+03
 -5.83729E+03 -8.89582E+03 -1.05154E+02 -1.30818E+04  7.73404E+03 -1.18231E+04  1.22200E+04 -3.59324E+03
  1.24854E+04  6.27712E+03  5.88636E+03  1.11281E+04 -2.76153E+03  1.32489E+04 -9.37363E+03  8.17675E+03
 -1.17531E+04  9.72226E+02 -8.92517E+03 -7.72389E+03 -9.46770E+02 -1.05424E+04  5.17576E+03 -7.90958E+03
  8.07506E+03 -2.45442E+03  5.32378E+03  2.46947E+03  1.79238E+03  4.00793E+03  1.37975E+03  1.78096E+03
  2.53935E+03  1.15391E+03  3.31623E+03  1.73665E+03  4.08844E+03  4.33544E+03  3.45021E+03  6.45847E+03
 -2.73948E+03  1.01471E+04 -8.91577E+03  1.02662E+04 -1.28949E+04  2.58484E+03 -1.32312E+04 -4.78263E+03
 -6.29457E+03 -1.30347E+04  2.05807E+03 -1.40327E+04  7.83619E+03 -8.94110E+03  1.02250E+04 -2.72091E+03
  7.79941E+03  4.62648E+03  1.57968E+03  7.68438E+03 -3.39293E+03  4.78135E+03 -5.53379E+03 -6.77426E+02
 -2.56484E+03 -5.55255E+03  3.05596E+03 -5.18831E+03  4.92421E+03 -2.86095E+03  5.26261E+03  1.25319E+03
  2.92786E+03  2.33811E+03  1.16742E+03  1.95993E+03 -9.08639E+02  1.85534E+03  1.76260E+03 -7.42486E+02
  1.90173E+03 -7.66122E+02  5.25532E+03  2.13751E+03  2.64958E+03  6.87410E+03 -1.25521E+03  8.99115E+03
 -6.19855E+03  6.05574E+03 -8.64072E+03  1.72363E+03 -7.17660E+03 -3.21190E+03 -2.70749E+03 -4.81831E+03
  5.77353E+02 -5.42652E+03  3.41551E+03 -2.12821E+03  2.27423E+03  2.69953E+03 -1.51750E+03  4.33765E+03
 -5.30079E+03  2.41010E+03 -5.74952E+03 -2.97029E+03 -3.18280E+03 -6.93476E+03  1.26785E+03 -7.43687E+03
  3.95499E+03 -4.16841E+03  4.99921E+03 -7.25112E+02  4.38714E+03  1.69980E+03  1.02740E+03  3.88194E+03
 -2.79911E+03  1.36851E+03 -3.01130E+03 -2.33155E+03  1.26891E+03 -5.32334E+03  6.42280E+03 -4.22119E+03
  7.75500E+03  5.91608E+02  7.91496E+03  5.32750E+03  2.38993E+03  8.22762E+03 -2.69276E+03  7.76998E+03
 -6.74831E+03  3.62867E+03 -7.08106E+03 -1.01317E+03 -3.90577E+03 -5.41401E+03  1.16068E+03 -4.99519E+03
  5.44944E+03 -2.69431E+03  4.50740E+03  2.43725E+03  1.19032E+03  5.03195E+03 -9.53202E+02  4.19430E+03
 -2.02655E+03  2.76703E+03 -1.75570E+03  5.98849E+02 -1.25673E+03  5.15194E+02 -1.39400E+03  1.57880E+03
 -2.15582E+03  3.28081E+03 -5.51675E+03  2.81895E+03 -8.05613E+03 -9.98441E+01 -9.30999E+03 -5.82717E+03
 -4.76311E+03 -1.12031E+04  1.81173E+03 -1.26617E+04  7.78655E+03 -9.81736E+03  1.19084E+04 -3.67555E+03
  1.14083E+04  2.19061E+03  6.66329E+03  7.51154E+03  4.35648E+02  8.52390E+03 -3.36279E+03  6.51950E+03
 -4.76755E+03  1.86786E+03 -3.16072E+03 -1.17228E+03 -6.81811E+02 -9.24980E+02 -6.72757E+02 -1.59442E+01
 -1.52760E+03  3.51528E+02 -1.79632E+03 -1.99706E+02 -1.08005E+01 -1.91856E+03  1.28751E+02 -3.51814E+03
  3.56975E+03 -3.06345E+03  4.91922E+03 -1.79113E+02  5.92659E+03  4.82296E+03  1.28406E+03  8.46642E+03
 -3.73303E+03  9.90830E+03 -8.77973E+03  6.01398E+03 -1.03912E+04 -8.95218E+02 -7.71582E+03 -6.42098E+03
 -3.29331E+03 -8.62044E+03  2.11079E+03 -7.65988E+03  5.22449E+03 -4.19517E+03  5.57377E+03  2.34576E+02
  2.88677E+03  2.79790E+03 -1.70778E+02  2.84855E+03 -1.48184E+03 -1.23794E+02  6.13706E+01 -1.99259E+03
  3.13428E+03 -9.89887E+02  3.15067E+03  9.88501E+02  2.31691E+03  3.25293E+03  1.21254E+02  4.18451E+03
 -3.99322E+03  3.97181E+03 -5.58009E+03  5.35887E+02 -5.22837E+03 -3.62323E+03 -5.42781E+02 -7.34757E+03
  3.72476E+03 -5.93423E+03  6.43742E+03 -1.95122E+03  6.67775E+03  1.55990E+03  3.95213E+03  5.16394E+03
  1.19445E+03  5.51736E+03 -2.29979E+03  4.44143E+03 -3.71086E+03  2.52947E+03 -2.68702E+03  2.38788E+02
 -1.48095E+03  2.48102E+02 -1.40005E+03  8.54463E+02 -2.97420E+03  6.38967E+02 -4.48806E+03 -1.05431E+03
 -4.21355E+03 -2.87349E+03 -1.14429E+03 -5.80331E+03  2.40281E+03 -5.79981E+03  4.77839E+03 -2.65249E+03
  5.60085E+03  5.12256E+02  2.83296E+03  3.99340E+03 -7.49311E+02  5.81357E+03 -4.46621E+03  3.37997E+03
