 $NMID ID='MM_0lb_SNR800_17hz_g45_96.RAW', FMTDAT='(8E13.5)'
 TRAMP=1., VOLUME=1. $END
  3.10047E+05  4.82007E+02  3.37645E+05  2.50595E+05  8.44599E+04  3.37440E+05 -1.32376E+05  2.50539E+05
 -1.89837E+05  8.26402E+04 -1.11437E+05 -3.28842E+04  1.43202E+03 -5.02918E+04  5.38909E+04 -6.62569E+01
  3.52074E+04  5.31098E+04 -1.70638E+04  7.48349E+04 -6.03388E+04  6.29916E+04 -8.32318E+04  3.16173E+04
 -8.00569E+04 -1.10652E+04 -5.62088E+04 -5.05915E+04 -1.48847E+04 -6.88476E+04  2.69491E+04 -4.48471E+04
  3.95457E+04  4.03340E+03  1.60241E+04  4.74022E+04 -3.39558E+04  4.66151E+04 -6.58917E+04 -2.85084E+02
 -5.24472E+04 -5.59534E+04 -6.56115E+03 -7.55130E+04  3.31525E+04 -5.38008E+04  4.67945E+04 -1.67288E+04
  4.20274E+04  1.13742E+04  3.12235E+04  2.48111E+04  1.56805E+04  2.84454E+04 -4.84699E+03  2.67836E+04
 -2.17728E+04  1.27924E+04 -1.92217E+04 -4.35204E+03  4.56562E+03 -7.55145E+03  2.11952E+04  1.11815E+04
  7.51936E+03  3.38494E+04 -3.08177E+04  3.44109E+04 -6.18131E+04  2.27236E+03 -5.56020E+04 -4.18135E+04
 -1.21254E+04 -6.15892E+04  3.86253E+04 -4.40736E+04  5.63088E+04 -1.97378E+03  3.25464E+04  3.09137E+04
 -6.70768E+03  3.39746E+04 -2.88406E+04  1.36606E+04 -2.83014E+04 -5.38965E+03 -1.51155E+04 -1.05263E+04
 -7.62172E+03 -1.19160E+04 -9.40308E+02 -1.69315E+04  6.91945E+03 -2.26663E+04  1.52008E+04 -1.37134E+04
  1.20206E+04  4.53539E+03 -6.91925E+03  1.32269E+04 -2.00233E+04 -2.94022E+03 -8.06752E+03 -3.11212E+04
  2.11989E+04 -4.10569E+04  4.55059E+04 -1.87796E+04  4.29879E+04  1.85662E+04  1.44090E+04  4.19338E+04
 -1.52831E+04  3.14000E+04 -2.40001E+04  1.33975E+03 -8.65540E+03 -2.67414E+04  2.10183E+04 -3.19694E+04
  3.89222E+04 -7.89014E+03  3.26448E+04  2.30487E+04  1.59886E+04  4.38006E+04 -7.96645E+03  4.65101E+04
 -2.93589E+04  3.07604E+04 -3.86612E+04  8.72837E+03 -3.92134E+04 -1.53617E+04 -2.20320E+04 -3.51817E+04
  6.86755E+03 -3.50384E+04  2.95304E+04 -1.32409E+04  2.74348E+04  1.08502E+04  3.16998E+03  1.79935E+04
 -1.32779E+04  7.43428E+03 -9.75822E+03 -7.49397E+03  6.09207E+03 -1.04535E+04  1.76070E+04  6.28390E+03
  1.22665E+04  2.18489E+04 -6.50657E+03  2.39301E+04 -2.16615E+04  9.90490E+03 -2.59306E+04 -5.95077E+03
 -1.76848E+04 -1.66414E+04 -6.22139E+03 -1.76730E+04  3.54696E+03 -1.58717E+04  1.31693E+04 -1.54897E+04
  2.25049E+04 -1.20801E+04  2.93056E+04  1.82116E+03  2.21242E+04  1.73141E+04  4.24287E+03  3.34740E+04
 -1.67193E+04  2.84704E+04 -2.62401E+04  9.55151E+03 -1.99348E+04 -1.05090E+04 -3.79752E+03 -1.35662E+04
  2.52136E+03 -3.52643E+03 -3.19995E+03  5.52001E+03 -1.37056E+04  5.26851E+03 -1.40386E+04 -5.56463E+03
 -8.76890E+03 -1.63363E+04  4.55184E+03 -2.00214E+04  1.32327E+04 -1.45900E+04  1.53092E+04 -1.52814E+03
  9.91161E+03  1.11910E+04 -1.06722E+03  1.66479E+04 -1.09754E+04  9.40904E+03 -1.64481E+04 -3.66589E+03
 -1.23016E+04 -1.47916E+04 -1.56749E+03 -2.01456E+04  8.99314E+03 -1.62204E+04  1.67192E+04 -7.68047E+03
  1.54062E+04  5.81552E+02  1.08754E+04  3.97914E+03  5.40658E+03  3.64463E+02  7.85110E+03 -1.66836E+03
  1.50093E+04  2.74309E+03  1.61471E+04  1.32107E+04  9.92761E+03  2.60628E+04 -3.37503E+03  2.85174E+04
 -1.69231E+04  2.19467E+04 -2.62200E+04  1.07818E+04 -2.68907E+04 -2.01983E+03 -2.26151E+04 -1.56376E+04
 -1.05820E+04 -2.23233E+04  7.42101E+03 -2.04293E+04  1.80643E+04 -1.14512E+04  1.67418E+04  4.18490E+03
  6.76529E+03  1.20906E+04 -7.64143E+03  1.11319E+04 -1.41437E+04  2.61045E+03 -1.08965E+04 -8.44570E+03
 -1.92847E+02 -1.33027E+04  6.53546E+03 -9.95394E+03  8.24141E+03 -1.27035E+03  1.35615E+03  5.50077E+03
 -5.94473E+03  1.48461E+03 -4.38173E+03 -4.87494E+03  5.96551E+02 -1.10919E+04  8.09732E+03 -1.10758E+04
  1.33243E+04 -5.50222E+03  1.33853E+04  3.22090E+03  1.15691E+04  1.05621E+04  5.39841E+03  1.56420E+04
 -2.05795E+03  1.75546E+04 -1.09297E+04  1.11576E+04 -1.22037E+04  3.04379E+03 -9.01435E+03 -2.19211E+03
 -4.69313E+03 -3.61110E+03 -7.74800E+02  1.55959E+03 -2.09653E+03  2.07312E+03 -3.98000E+03  3.82991E+03
 -8.43441E+03 -4.27552E+02 -9.46825E+03 -7.56663E+03 -3.85407E+03 -1.22953E+04  4.01389E+03 -9.34331E+03
  7.88578E+03 -4.22856E+03  5.78403E+03  2.43307E+03  5.17223E+02  3.45961E+03 -3.56763E+03 -4.47806E+01
 -4.21040E+03 -5.47397E+03 -9.83281E+02 -7.85850E+03  4.84494E+03 -8.67708E+03  1.08359E+04 -4.27428E+03
  1.29443E+04  8.37971E+02  9.67414E+03  6.95242E+03  1.87959E+03  9.45337E+03 -5.60246E+03  8.90656E+03
 -7.36663E+03  3.01084E+03 -3.85045E+03 -1.31399E+03  1.20511E+03 -2.16980E+03  5.29258E+03 -1.01446E+03
  4.64692E+03  3.94999E+03  1.06575E+03  6.90997E+03 -4.98496E+03  6.82560E+03 -8.39509E+03  1.98762E+03
 -5.46529E+03 -4.14711E+03  1.72791E+02 -7.27095E+03  4.23263E+03 -3.51579E+03  4.19658E+03  1.02231E+03
  4.35422E+02  3.85704E+03 -4.37374E+03  5.50855E+03 -5.82399E+03  2.66159E+03 -5.38853E+03 -1.44721E+03
 -3.48645E+03 -7.12007E+03  1.23271E+03 -8.11930E+03  7.09743E+03 -5.23822E+03  7.39487E+03  9.79925E+02
  5.04712E+03  6.03839E+03  4.04019E+01  8.03659E+03 -6.08089E+03  4.41467E+03 -5.89025E+03 -4.95818E+02
 -5.94483E+03 -5.80184E+03 -1.49356E+03 -5.82544E+03  3.14235E+03 -5.12541E+03  3.26236E+03 -3.11920E+03
  3.03804E+03  4.47345E+02 -2.00263E+02  1.61043E+03  3.90060E+02 -2.67791E+02  5.62068E+02 -2.52876E+03
  4.59008E+03 -1.14801E+03  6.23527E+03  1.02294E+03  6.48650E+03  3.83888E+03  6.01663E+03  8.48444E+03
 -1.56685E+03  1.01354E+04 -8.99900E+03  7.49010E+03 -1.11898E+04  1.38051E+03 -8.81368E+03 -3.28614E+03
 -4.74466E+03 -7.59112E+03 -5.52705E+02 -6.02608E+03  2.58692E+03 -2.48583E+03  2.11495E+03 -2.28608E+03
  1.72528E+03 -1.41160E+03  2.32180E+03 -2.44372E+03  3.40747E+03 -1.65176E+03  4.22055E+03  2.38700E+02
  4.80088E+03  1.22375E+03  1.65477E+03  4.20038E+03 -1.58682E+03  3.65287E+03 -5.28265E+03  2.74104E+03
 -5.96106E+03 -9.84810E+02 -2.45935E+03 -3.89842E+03  4.98128E+02 -5.93005E+03  3.83311E+03 -6.38233E+03
  6.03191E+03 -3.94028E+03  7.79824E+03  7.15547E+02  5.67123E+03  5.34944E+03  1.01817E+03  6.85052E+03
 -2.61636E+03  6.57939E+03 -3.99429E+03  2.14907E+03 -2.33204E+03 -1.10507E+03 -7.60253E+02 -7.99635E+02
 -8.11436E+02  5.12236E+02 -1.13807E+03  2.24858E+03 -2.76459E+03  1.32827E+03 -4.42394E+03 -3.50168E+02
 -1.85668E+03 -4.44189E+03  8.04511E+02 -5.37423E+03  3.29150E+03 -5.27862E+03  4.36970E+03 -1.27365E+03
  5.16622E+03  2.62316E+03  2.15966E+03  4.14824E+03 -9.93551E+02  5.20469E+03 -3.42331E+03  3.03292E+03
 -4.92620E+03  2.62698E+02 -4.36504E+03 -3.19915E+03 -3.96085E+01 -4.25218E+03  2.17883E+03 -2.91456E+03
  3.08737E+03 -1.31645E+03  2.39295E+03  5.45637E+02  8.90394E+02  1.91422E+03  9.84518E+02  6.83039E+02
  1.78962E+03  7.90004E+02  1.49795E+03  1.45633E+03  1.42155E+03  2.25720E+03  2.08758E+03  2.08857E+03
 -1.40194E+03  3.65041E+03 -2.92585E+03  4.51863E+03 -3.98987E+03  1.32764E+03 -5.15729E+03 -8.18640E+02
 -2.08556E+03 -4.54852E+03  4.86205E+02 -5.71153E+03  2.63521E+03 -3.28033E+03  3.80591E+03 -9.77133E+02
  2.99631E+03  2.13863E+03  6.15074E+02  2.70492E+03 -1.13626E+03  1.63115E+03 -1.47727E+03  8.94474E+01
 -9.63302E+02 -1.75563E+03  1.59785E+03 -1.97907E+03  1.81576E+03 -1.12432E+03  1.65875E+03  6.51814E+02
  8.94976E+02  3.08210E+02  6.85800E+02 -3.17228E+01 -4.52526E+02  9.02422E+02  1.91396E+03 -3.19718E+02
  3.92466E+02 -4.02435E+02  2.18118E+03  7.89308E+02  5.78603E+02  2.74036E+03 -2.93542E+02  3.59123E+03
 -2.17941E+03  1.60336E+03 -2.28455E+03  4.68212E+02 -2.70483E+03 -1.01943E+03 -5.44284E+02 -1.15923E+03
  5.51891E+02 -1.73812E+03  1.06778E+03 -7.74458E+02  8.97568E+02  1.39411E+03 -8.78920E+02  1.58342E+03
 -1.82818E+03  8.01532E+02 -1.44815E+03 -1.63812E+03 -8.44780E+02 -2.44488E+03  1.39207E+02 -2.01733E+03
  9.19032E+02 -1.24652E+03  1.33333E+03  1.94286E+02  1.71788E+03  9.87479E+01  3.75175E+02  1.11354E+03
 -8.71063E+02  2.32281E+02 -1.33360E+03 -2.80788E+02  6.01903E+02 -1.12280E+03  1.88040E+03 -1.21050E+03
  2.01043E+03  2.26809E+02  3.04605E+03  1.49983E+03  1.35742E+03  2.18395E+03 -6.02778E+02  2.10985E+03
 -1.94797E+03  1.77940E+02 -1.77394E+03 -2.93824E+02 -1.21259E+03 -1.84225E+03  3.70967E+02 -1.06576E+03
  1.84051E+03 -7.36046E+02  1.22857E+03  7.75876E+02  4.59189E+01  1.71150E+03  5.15256E+02  1.27742E+03
 -6.48627E+02  1.28362E+03 -6.37054E+02  2.22471E+02 -1.02403E+02  6.55103E+02 -6.54318E+02  7.34835E+02
 -8.33910E+02  1.38021E+03 -2.12496E+03  3.91075E+02 -2.09596E+03  1.66307E+02 -2.65335E+03 -1.51664E+03
 -1.48546E+03 -2.99156E+03  9.44589E+02 -3.31614E+03  1.98433E+03 -3.00562E+03  3.54099E+03 -1.20273E+03
  3.34282E+03  1.24824E+02  1.68064E+03  2.19762E+03 -4.03343E+02  1.86069E+03 -6.81689E+02  1.70529E+03
 -1.08164E+03  8.76321E+02 -8.52561E+02 -2.15358E+02 -7.17894E+02  4.20631E+02 -7.39090E+02 -4.84439E+01
 -1.17070E+03 -1.95038E+02 -9.80789E+02  1.12684E+02  3.62215E+02 -5.88727E+02 -2.11729E+02 -1.23018E+03
  1.68017E+03 -7.20358E+02  9.29106E+02  8.45397E+01  1.77616E+03  1.43435E+03 -2.63679E+02  2.34156E+03
 -1.20298E+03  2.82326E+03 -2.30839E+03  1.57937E+03 -2.51959E+03 -1.19117E+02 -1.83039E+03 -1.65595E+03
 -1.13715E+03 -2.07237E+03  1.95915E+02 -1.82433E+03  9.75796E+02 -9.83484E+02  1.28580E+03  1.35759E+02
  9.03265E+02  1.84608E+02  1.08136E+02  5.04396E+02 -7.54740E+02 -7.02281E+01 -8.75249E+01 -3.90773E+02
  8.60102E+02  1.03696E+01  4.86741E+02  8.59209E+02 -2.21009E+01  6.83495E+02  4.26661E+02  2.98654E+02
 -9.62885E+02  9.10925E+02 -9.76792E+02  1.37884E+02 -1.00556E+03 -8.54171E+02 -3.78174E+02 -1.60680E+03
  7.72434E+02 -1.21205E+03  1.09461E+03  5.35205E+01  1.49876E+03 -1.96613E+02  7.78982E+02  1.27827E+03
  5.90032E+02  1.06690E+03 -6.08799E+02  1.07177E+03 -9.19993E+02  5.77664E+02 -6.05036E+02  1.97966E+02
 -1.65671E+02 -1.20321E+02 -4.12605E+02  1.66367E+02 -7.37476E+02  2.99772E+02 -1.10632E+03 -2.34634E+02
 -1.26417E+03 -4.66051E+01 -5.50850E+02 -1.34313E+03  8.80664E+02 -2.11191E+03  1.11778E+03 -2.59515E+02
  8.78497E+02 -2.61776E+01 -3.21761E+01  7.15417E+02 -2.69484E+02  1.26521E+03 -4.41873E+02  9.34581E+02
