 $NMID ID='MM_0lb_SNR800_12hz_g50_24.RAW', FMTDAT='(8E13.5)'
 TRAMP=1., VOLUME=1. $END
  3.09685E+05  5.77001E+02  3.37781E+05  2.50709E+05  8.50251E+04  3.37947E+05 -1.32806E+05  2.51391E+05
 -1.90816E+05  8.32838E+04 -1.12080E+05 -3.25120E+04  4.59987E+02 -5.06183E+04  5.39668E+04 -1.54895E+02
  3.52621E+04  5.26512E+04 -1.65987E+04  7.57798E+04 -6.10095E+04  6.38304E+04 -8.47388E+04  3.21234E+04
 -8.19684E+04 -1.15974E+04 -5.76088E+04 -5.17121E+04 -1.50541E+04 -7.03010E+04  2.77437E+04 -4.58409E+04
  4.05042E+04  3.88353E+03  1.64781E+04  4.83534E+04 -3.44722E+04  4.75726E+04 -6.75645E+04 -1.87200E+01
 -5.38218E+04 -5.71882E+04 -6.75342E+03 -7.76308E+04  3.44071E+04 -5.57220E+04  4.92272E+04 -1.79645E+04
  4.40621E+04  1.13629E+04  3.22309E+04  2.57548E+04  1.57856E+04  2.99487E+04 -5.30754E+03  2.74697E+04
 -2.21940E+04  1.19848E+04 -1.82921E+04 -5.65185E+03  6.36737E+03 -7.44138E+03  2.27599E+04  1.30778E+04
  7.49715E+03  3.59581E+04 -3.24556E+04  3.57118E+04 -6.43837E+04  2.10394E+03 -5.81118E+04 -4.36328E+04
 -1.27041E+04 -6.42615E+04  4.03694E+04 -4.64137E+04  5.97523E+04 -2.19559E+03  3.49200E+04  3.33571E+04
 -5.22703E+03  3.73400E+04 -3.07500E+04  1.71005E+04 -3.17461E+04 -4.24123E+03 -1.77027E+04 -1.12577E+04
 -8.88164E+03 -1.43241E+04 -5.61568E+02 -1.84150E+04  7.69178E+03 -2.34200E+04  1.52469E+04 -1.31938E+04
  1.11752E+04  5.63701E+03 -9.45715E+03  1.30271E+04 -2.22414E+04 -5.42402E+03 -8.36191E+03 -3.51602E+04
  2.39899E+04 -4.46343E+04  4.97778E+04 -2.03383E+04  4.67133E+04  2.03881E+04  1.58540E+04  4.51360E+04
 -1.66503E+04  3.43589E+04 -2.65233E+04  2.40638E+03 -1.04537E+04 -2.85669E+04  2.07376E+04 -3.52371E+04
  4.27259E+04 -9.64451E+03  3.73696E+04  2.42693E+04  1.92432E+04  4.83599E+04 -8.13071E+03  5.27223E+04
 -3.31851E+04  3.54518E+04 -4.45534E+04  1.00061E+04 -4.44792E+04 -1.76457E+04 -2.45677E+04 -3.97179E+04
  7.92433E+03 -3.95208E+04  3.26537E+04 -1.54264E+04  3.02309E+04  1.14612E+04  4.76358E+03  2.00869E+04
 -1.32351E+04  8.78442E+03 -1.11196E+04 -7.39775E+03  5.71919E+03 -1.10709E+04  1.84460E+04  5.67153E+03
  1.41400E+04  2.23492E+04 -5.74518E+03  2.58386E+04 -2.28220E+04  1.27162E+04 -2.94269E+04 -4.10799E+03
 -2.26681E+04 -1.76929E+04 -9.81505E+03 -2.24167E+04  4.17034E+03 -2.20879E+04  1.74404E+04 -2.03221E+04
  2.83115E+04 -1.32513E+04  3.45372E+04  3.81112E+03  2.53600E+04  2.18426E+04  4.19348E+03  3.86123E+04
 -1.84862E+04  3.18009E+04 -2.88146E+04  1.11099E+04 -2.14208E+04 -1.02828E+04 -4.96871E+03 -1.29977E+04
  1.39702E+03 -1.93967E+03 -6.18365E+03  7.15899E+03 -1.78554E+04  5.06150E+03 -1.76686E+04 -8.07329E+03
 -1.08573E+04 -2.09584E+04  5.46625E+03 -2.48038E+04  1.68757E+04 -1.78254E+04  1.98001E+04 -1.77323E+03
  1.24532E+04  1.44875E+04 -1.18388E+03  2.06392E+04 -1.42278E+04  1.19493E+04 -2.08208E+04 -4.35034E+03
 -1.53483E+04 -1.89358E+04 -1.76403E+03 -2.46970E+04  1.17911E+04 -2.04327E+04  2.07105E+04 -1.04005E+04
  1.93859E+04  1.99781E+02  1.38329E+04  4.98362E+03  7.59690E+03  8.84443E+02  1.04544E+04 -1.80882E+03
  1.89607E+04  2.84395E+03  2.18669E+04  1.63724E+04  1.45020E+04  3.31798E+04 -3.15572E+03  3.79280E+04
 -2.19089E+04  3.10269E+04 -3.58075E+04  1.61414E+04 -3.74747E+04 -2.64597E+03 -3.09649E+04 -2.22924E+04
 -1.26947E+04 -3.09323E+04  1.09154E+04 -2.73466E+04  2.40911E+04 -1.40055E+04  2.13730E+04  6.37723E+03
  7.67650E+03  1.62275E+04 -9.76990E+03  1.39231E+04 -1.77683E+04  2.47567E+03 -1.35620E+04 -1.10767E+04
 -4.53486E+02 -1.67589E+04  8.96135E+03 -1.27141E+04  1.12674E+04 -1.17047E+03  2.80194E+03  7.20751E+03
 -7.32452E+03  3.12729E+03 -7.34189E+03 -6.13530E+03 -1.13880E+03 -1.53492E+04  1.04550E+04 -1.63791E+04
  1.88464E+04 -9.07752E+03  2.12598E+04  3.15345E+03  1.82892E+04  1.47959E+04  8.68572E+03  2.36627E+04
 -4.07263E+03  2.54880E+04 -1.66896E+04  1.58813E+04 -1.82682E+04  3.74668E+03 -1.29865E+04 -4.21397E+03
 -5.58354E+03 -5.76916E+03 -6.75666E+02  8.43206E+02 -2.66105E+03  2.84573E+03 -5.84086E+03  4.47345E+03
 -1.19110E+04 -6.65779E+02 -1.26787E+04 -1.01923E+04 -5.35702E+03 -1.63194E+04  5.57262E+03 -1.31938E+04
  1.07604E+04 -5.75056E+03  7.45380E+03  3.50292E+03  7.03031E+01  5.02503E+03 -6.29117E+03 -1.29366E+02
 -6.16735E+03 -8.09103E+03 -1.05614E+03 -1.23232E+04  7.18381E+03 -1.33303E+04  1.59448E+04 -7.23136E+03
  1.89940E+04  1.70005E+03  1.38646E+04  1.11789E+04  2.69842E+03  1.51066E+04 -7.94391E+03  1.30340E+04
 -1.04425E+04  3.71168E+03 -5.21888E+03 -2.71748E+03  2.00078E+03 -3.30120E+03  6.89827E+03 -8.15348E+02
  6.40029E+03  5.45240E+03  1.36436E+03  1.00395E+04 -6.93435E+03  1.00873E+04 -1.26176E+04  2.52468E+03
 -8.44300E+03 -6.38644E+03  2.21155E+02 -1.12033E+04  6.84437E+03 -5.62668E+03  6.96714E+03  2.59022E+03
  1.52911E+03  7.28737E+03 -6.68550E+03  9.02165E+03 -1.02639E+04  4.11930E+03 -1.02785E+04 -3.54231E+03
 -6.17088E+03 -1.17119E+04  2.85814E+03 -1.38849E+04  1.16054E+04 -8.32601E+03  1.27819E+04  2.05248E+03
  7.92460E+03  9.82697E+03 -8.06256E+02  1.24082E+04 -8.87503E+03  7.09070E+03 -9.82777E+03 -1.20712E+03
 -8.71809E+03 -8.57373E+03 -1.56612E+03 -9.30740E+03  4.79159E+03 -7.46192E+03  5.88888E+03 -3.47541E+03
  4.17497E+03  1.21374E+03 -6.02021E+02  1.69416E+03 -3.65241E+02 -2.17477E+03  1.66231E+03 -5.08789E+03
  8.37303E+03 -3.33829E+03  1.18162E+04  1.15455E+03  1.16286E+04  7.80288E+03  8.37258E+03  1.55821E+04
 -3.36775E+03  1.79146E+04 -1.48910E+04  1.31415E+04 -1.95750E+04  2.81760E+03 -1.59512E+04 -6.55786E+03
 -7.79389E+03 -1.28762E+04 -4.91506E+02 -1.05959E+04  3.82359E+03 -5.74683E+03  3.71857E+03 -3.68758E+03
  2.95516E+03 -2.42644E+03  3.63341E+03 -3.34055E+03  4.96756E+03 -2.53027E+03  6.10419E+03 -7.35321E+02
  8.43102E+03  2.02864E+03  3.93961E+03  7.04003E+03 -1.84551E+03  8.14397E+03 -8.81327E+03  6.51069E+03
 -1.09611E+04 -1.13375E+03 -6.55403E+03 -7.24702E+03 -7.10466E+02 -1.16483E+04  6.22762E+03 -1.11033E+04
  1.19632E+04 -6.34602E+03  1.41398E+04  1.75956E+03  9.66461E+03  9.85382E+03  1.59926E+03  1.25564E+04
 -5.47236E+03  1.06071E+04 -7.64187E+03  3.84913E+03 -4.94650E+03 -1.32432E+03 -2.41428E+03 -1.48072E+03
 -1.30627E+03  6.33363E+01 -1.45280E+03  2.55343E+03 -4.71492E+03  2.11925E+03 -7.44206E+03 -1.08077E+03
 -4.87328E+03 -7.42294E+03  2.63435E+02 -1.03701E+04  6.41030E+03 -9.68465E+03  1.00391E+04 -2.86658E+03
  9.89010E+03  5.16684E+03  4.65356E+03  9.29750E+03 -2.06175E+03  1.01961E+04 -6.83652E+03  6.56093E+03
 -9.76472E+03  4.50218E+02 -7.47073E+03 -6.19057E+03 -8.44402E+02 -8.57727E+03  4.48837E+03 -5.97251E+03
  6.10894E+03 -2.38911E+03  4.51603E+03  1.64634E+03  1.33637E+03  3.25865E+03  1.36227E+03  1.62272E+03
  2.20261E+03  8.16541E+02  2.82756E+03  1.51902E+03  2.81122E+03  3.91260E+03  3.19571E+03  5.44702E+03
 -2.15711E+03  7.84876E+03 -6.99867E+03  8.67060E+03 -1.03266E+04  2.37805E+03 -1.07761E+04 -3.70726E+03
 -5.08648E+03 -1.01014E+04  1.41778E+03 -1.10752E+04  5.88629E+03 -6.90351E+03  8.40414E+03 -1.78993E+03
  6.41668E+03  3.69912E+03  1.29921E+03  5.78455E+03 -2.92394E+03  3.65161E+03 -4.07355E+03 -4.68534E+02
 -1.85665E+03 -4.50816E+03  2.19099E+03 -4.71589E+03  4.14387E+03 -2.12011E+03  3.84530E+03  7.69890E+02
  2.42243E+03  1.69608E+03  1.28124E+03  1.16829E+03 -2.06444E+02  1.78286E+03  1.97900E+03 -6.02439E+02
  1.43591E+03 -4.38165E+02  4.47206E+03  1.65975E+03  2.05134E+03  5.45440E+03 -6.80943E+02  7.51882E+03
 -4.70246E+03  4.55216E+03 -6.22221E+03  1.05386E+03 -5.43438E+03 -1.75120E+03 -2.00257E+03 -3.64653E+03
  5.02201E+02 -3.46235E+03  2.83000E+03 -1.77256E+03  2.21727E+03  2.41766E+03 -1.28572E+03  3.05249E+03
 -4.16777E+03  1.89267E+03 -4.45521E+03 -2.63639E+03 -2.41243E+03 -5.21442E+03  9.80004E+02 -5.60117E+03
  3.22947E+03 -2.95809E+03  3.46586E+03 -1.65849E+02  3.29956E+03  1.39009E+03  4.79754E+02  3.11913E+03
 -2.07709E+03  8.37250E+02 -2.49816E+03 -1.69450E+03  8.19302E+02 -3.64988E+03  4.95318E+03 -3.35228E+03
  5.74704E+03  4.60392E+02  6.39681E+03  3.84466E+03  2.13407E+03  6.02713E+03 -2.15267E+03  5.82300E+03
 -4.97041E+03  2.59985E+03 -5.48868E+03 -7.13433E+02 -2.79227E+03 -4.35785E+03  9.31054E+02 -3.24219E+03
  4.14194E+03 -1.96027E+03  2.87607E+03  1.78951E+03  1.00323E+03  3.44876E+03 -3.89842E+02  3.20866E+03
 -1.63044E+03  2.08752E+03 -1.95829E+03  3.87289E+02 -5.12631E+02  9.55246E+02 -9.60858E+02  1.26201E+03
 -1.29954E+03  2.80949E+03 -4.36412E+03  1.53612E+03 -6.23182E+03  1.11795E+02 -7.18747E+03 -3.85692E+03
 -3.55260E+03 -7.57466E+03  1.36864E+03 -9.18143E+03  5.52926E+03 -7.56668E+03  9.01044E+03 -2.70891E+03
  8.36578E+03  9.90206E+02  5.31319E+03  5.51187E+03 -7.07810E+01  6.07761E+03 -2.55685E+03  4.71254E+03
 -3.24127E+03  1.60233E+03 -2.05401E+03 -5.86356E+02 -7.23843E+02 -6.06264E+02 -8.81589E+02  7.29146E+01
 -1.52753E+03  1.57231E+02 -1.39033E+03  2.32800E+01 -2.73954E+02 -1.63547E+03 -2.24987E+02 -2.73090E+03
  2.93423E+03 -1.96798E+03  3.46579E+03  1.77201E+02  4.37491E+03  3.55635E+03  7.54194E+02  5.81039E+03
 -2.79374E+03  7.44024E+03 -6.47372E+03  4.16446E+03 -7.22780E+03 -4.58633E+02 -5.32448E+03 -4.30265E+03
 -2.59942E+03 -6.11511E+03  1.44834E+03 -5.37166E+03  3.64343E+03 -2.67172E+03  3.89018E+03  5.38712E+02
  2.49248E+03  1.63411E+03 -3.02115E+02  1.51187E+03 -1.38170E+03 -1.71461E+02  3.81989E+02 -1.34069E+03
  1.62724E+03 -8.87736E+02  2.21306E+03  9.59757E+02  1.32003E+03  2.22053E+03  4.37136E+02  2.65928E+03
 -2.86231E+03  2.80610E+03 -4.00002E+03  2.79111E+02 -3.41041E+03 -3.11693E+03 -3.15417E+02 -4.81448E+03
  2.93435E+03 -4.07430E+03  4.13925E+03 -1.18774E+03  4.38360E+03  4.13211E+02  2.44780E+03  3.37699E+03
  5.24708E+02  3.52837E+03 -1.28810E+03  2.95322E+03 -2.40841E+03  1.51926E+03 -2.24692E+03  3.08922E+02
 -7.51181E+02 -1.58839E+02 -8.83710E+02  4.19059E+02 -1.99357E+03  7.92011E+02 -2.91314E+03 -7.40969E+02
 -2.97088E+03 -1.80861E+03 -7.53592E+02 -3.36535E+03  2.08358E+03 -4.49931E+03  2.81914E+03 -1.81163E+03
  3.60088E+03  4.14380E+02  1.55403E+03  2.58717E+03 -4.12010E+02  3.87586E+03 -2.82279E+03  2.46836E+03
