 $NMID ID='MM_0lb_SNR800_12hz_g40_93.RAW', FMTDAT='(8E13.5)'
 TRAMP=1., VOLUME=1. $END
  3.09593E+05  4.42028E+02  3.37740E+05  2.50678E+05  8.47247E+04  3.38021E+05 -1.32886E+05  2.51252E+05
 -1.90351E+05  8.31321E+04 -1.11783E+05 -3.26890E+04  1.12858E+03 -5.05406E+04  5.41986E+04 -3.05357E+02
  3.55958E+04  5.29053E+04 -1.66204E+04  7.55179E+04 -6.05656E+04  6.35304E+04 -8.40987E+04  3.22442E+04
 -8.09865E+04 -1.15606E+04 -5.74812E+04 -5.14876E+04 -1.51820E+04 -7.00448E+04  2.75829E+04 -4.59993E+04
  4.01195E+04  3.79740E+03  1.63487E+04  4.80026E+04 -3.43496E+04  4.75227E+04 -6.68976E+04 -1.83418E+02
 -5.36801E+04 -5.69994E+04 -6.88756E+03 -7.71605E+04  3.38772E+04 -5.55205E+04  4.81434E+04 -1.78026E+04
  4.38227E+04  1.13853E+04  3.19679E+04  2.56543E+04  1.56237E+04  2.93377E+04 -5.53328E+03  2.74037E+04
 -2.19802E+04  1.23034E+04 -1.89445E+04 -4.95245E+03  6.18389E+03 -7.44531E+03  2.28681E+04  1.25937E+04
  7.44366E+03  3.55306E+04 -3.24603E+04  3.57595E+04 -6.38989E+04  2.21317E+03 -5.71709E+04 -4.28702E+04
 -1.23438E+04 -6.34813E+04  4.02767E+04 -4.54254E+04  5.88743E+04 -2.22331E+03  3.47235E+04  3.25788E+04
 -5.62550E+03  3.68480E+04 -3.03189E+04  1.65777E+04 -3.06210E+04 -4.43651E+03 -1.72133E+04 -1.14232E+04
 -8.21276E+03 -1.37617E+04 -8.23462E+02 -1.81618E+04  7.59115E+03 -2.31655E+04  1.54392E+04 -1.32814E+04
  1.12937E+04  5.35354E+03 -8.67364E+03  1.31085E+04 -2.16657E+04 -5.01620E+03 -8.54018E+03 -3.43980E+04
  2.31712E+04 -4.42776E+04  4.88864E+04 -2.00033E+04  4.59216E+04  1.96081E+04  1.63033E+04  4.46487E+04
 -1.61777E+04  3.39570E+04 -2.59381E+04  1.77571E+03 -1.01114E+04 -2.80099E+04  2.12607E+04 -3.41284E+04
  4.16665E+04 -9.58464E+03  3.62827E+04  2.40786E+04  1.89024E+04  4.74400E+04 -7.97392E+03  5.12165E+04
 -3.24914E+04  3.46256E+04 -4.31146E+04  9.98044E+03 -4.36528E+04 -1.68748E+04 -2.39393E+04 -3.87119E+04
  7.57276E+03 -3.88529E+04  3.17307E+04 -1.52714E+04  2.96372E+04  1.10632E+04  4.35386E+03  1.93411E+04
 -1.38718E+04  8.24198E+03 -1.07633E+04 -7.39911E+03  5.97400E+03 -1.08724E+04  1.82023E+04  5.84691E+03
  1.38910E+04  2.21927E+04 -5.61136E+03  2.54190E+04 -2.22914E+04  1.16398E+04 -2.84515E+04 -4.39931E+03
 -2.15932E+04 -1.78839E+04 -8.97848E+03 -2.14054E+04  4.24967E+03 -2.08173E+04  1.65103E+04 -1.94853E+04
  2.72597E+04 -1.30259E+04  3.34674E+04  3.11144E+03  2.41308E+04  2.08374E+04  4.26657E+03  3.72071E+04
 -1.78730E+04  3.09458E+04 -2.78862E+04  1.11437E+04 -2.11511E+04 -9.92292E+03 -4.61308E+03 -1.35816E+04
  1.48654E+03 -2.51321E+03 -5.73443E+03  6.87115E+03 -1.72947E+04  5.27362E+03 -1.72662E+04 -7.61044E+03
 -1.05506E+04 -1.97903E+04  5.26224E+03 -2.40291E+04  1.62392E+04 -1.69602E+04  1.92850E+04 -1.70687E+03
  1.21845E+04  1.38911E+04 -1.26402E+03  1.97575E+04 -1.39512E+04  1.10325E+04 -1.98469E+04 -4.04072E+03
 -1.48699E+04 -1.76751E+04 -2.06042E+03 -2.39042E+04  1.06691E+04 -1.95926E+04  2.01421E+04 -1.01546E+04
  1.83502E+04  1.43018E+02  1.34472E+04  4.34923E+03  6.70987E+03  7.40574E+02  1.02446E+04 -1.70527E+03
  1.84851E+04  2.63601E+03  2.05401E+04  1.56800E+04  1.38026E+04  3.21515E+04 -2.80204E+03  3.62201E+04
 -2.09972E+04  2.94427E+04 -3.41599E+04  1.48905E+04 -3.55002E+04 -2.68547E+03 -2.93218E+04 -2.11672E+04
 -1.25132E+04 -2.93395E+04  9.94313E+03 -2.63124E+04  2.28274E+04 -1.30228E+04  2.01826E+04  6.24391E+03
  7.59603E+03  1.56423E+04 -9.62699E+03  1.31170E+04 -1.70864E+04  2.82848E+03 -1.29728E+04 -1.03728E+04
 -3.41079E+02 -1.61471E+04  8.34566E+03 -1.20912E+04  1.08708E+04 -1.14549E+03  2.56280E+03  6.90966E+03
 -7.29545E+03  2.82799E+03 -6.37332E+03 -6.31232E+03 -8.73695E+02 -1.45176E+04  1.00851E+04 -1.57397E+04
  1.81813E+04 -7.92927E+03  1.96284E+04  2.98053E+03  1.75259E+04  1.47477E+04  7.99574E+03  2.21648E+04
 -3.67978E+03  2.40637E+04 -1.52416E+04  1.54466E+04 -1.75933E+04  3.60630E+03 -1.20842E+04 -3.83355E+03
 -5.44977E+03 -5.45136E+03 -8.06639E+02  1.13552E+03 -2.51340E+03  3.05476E+03 -5.67750E+03  4.83571E+03
 -1.14455E+04 -1.02522E+03 -1.18228E+04 -9.79417E+03 -5.08540E+03 -1.59287E+04  4.91540E+03 -1.26744E+04
  1.05256E+04 -5.54214E+03  7.50300E+03  3.41916E+03  2.16936E+02  4.74934E+03 -5.68192E+03 -1.08204E+02
 -5.43782E+03 -7.68611E+03 -7.92086E+02 -1.18815E+04  6.43555E+03 -1.25593E+04  1.54735E+04 -6.38903E+03
  1.80512E+04  1.47756E+03  1.38253E+04  1.05211E+04  2.79330E+03  1.37110E+04 -7.43495E+03  1.17452E+04
 -1.00769E+04  3.87813E+03 -4.77637E+03 -2.30008E+03  2.23251E+03 -3.29021E+03  6.72238E+03 -1.43837E+03
  5.80770E+03  5.44147E+03  1.02385E+03  9.58915E+03 -6.90689E+03  9.29742E+03 -1.19246E+04  2.02759E+03
 -8.68466E+03 -5.86163E+03  6.90757E+02 -1.05130E+04  6.45173E+03 -5.16246E+03  6.60077E+03  2.12571E+03
  1.21914E+03  7.02780E+03 -6.36570E+03  8.17449E+03 -1.01886E+04  3.98251E+03 -9.47424E+03 -3.40806E+03
 -5.39502E+03 -1.10741E+04  2.59018E+03 -1.27230E+04  1.12877E+04 -8.04178E+03  1.16632E+04  2.15869E+03
  7.55462E+03  9.43276E+03 -8.98606E+02  1.15886E+04 -8.81726E+03  6.62899E+03 -9.49377E+03 -1.06010E+03
 -8.45843E+03 -7.92071E+03 -1.46877E+03 -8.82527E+03  4.43581E+03 -7.26992E+03  5.42484E+03 -3.13919E+03
  3.97255E+03  1.21106E+03 -5.40659E+02  1.87891E+03 -7.70457E+01 -1.66315E+03  1.44156E+03 -4.88621E+03
  8.05839E+03 -3.07299E+03  1.09364E+04  9.94615E+02  1.05435E+04  7.03472E+03  7.77971E+03  1.45940E+04
 -3.12036E+03  1.65396E+04 -1.38633E+04  1.22608E+04 -1.83136E+04  2.21120E+03 -1.45519E+04 -6.19669E+03
 -7.56109E+03 -1.19994E+04 -2.77314E+02 -9.98556E+03  3.81946E+03 -5.52633E+03  3.46088E+03 -3.56620E+03
  2.70612E+03 -2.40695E+03  2.77583E+03 -3.20527E+03  5.00688E+03 -2.32340E+03  5.99044E+03 -2.96399E+02
  8.01536E+03  2.08567E+03  3.67102E+03  6.56200E+03 -1.59244E+03  7.27639E+03 -7.88725E+03  5.83574E+03
 -1.03487E+04 -9.29898E+02 -5.75333E+03 -7.15355E+03 -6.39797E+02 -1.05492E+04  6.06018E+03 -1.09300E+04
  1.09890E+04 -6.29467E+03  1.33934E+04  1.58624E+03  9.18553E+03  9.19670E+03  1.69217E+03  1.21036E+04
 -5.08660E+03  1.02952E+04 -6.85117E+03  3.54670E+03 -4.79893E+03 -1.26853E+03 -1.76857E+03 -1.09381E+03
 -9.03852E+02 -2.39753E+02 -1.59305E+03  2.35477E+03 -4.42950E+03  1.46412E+03 -7.25085E+03 -7.60880E+02
 -4.76368E+03 -7.23865E+03  3.82066E+02 -9.90427E+03  5.99736E+03 -9.07952E+03  9.45609E+03 -2.83258E+03
  9.37390E+03  4.92696E+03  4.46845E+03  8.09904E+03 -1.95703E+03  9.75496E+03 -6.64664E+03  6.03058E+03
 -8.96009E+03  4.36604E+02 -7.35881E+03 -5.84675E+03 -3.98600E+02 -7.89945E+03  3.93126E+03 -6.30214E+03
  6.20319E+03 -1.74403E+03  4.14803E+03  1.51048E+03  1.09541E+03  3.19653E+03  1.00435E+03  1.60574E+03
  2.07188E+03  6.55408E+02  2.36150E+03  1.46264E+03  2.75866E+03  3.80775E+03  2.62656E+03  4.77602E+03
 -2.39281E+03  7.69401E+03 -6.56986E+03  8.03643E+03 -9.32987E+03  1.90362E+03 -1.01629E+04 -3.21315E+03
 -4.42707E+03 -9.52664E+03  1.50868E+03 -1.03899E+04  5.57499E+03 -6.85961E+03  7.98575E+03 -1.59331E+03
  5.69809E+03  3.59904E+03  1.19819E+03  5.62021E+03 -2.34714E+03  3.53122E+03 -3.86152E+03 -7.35131E+02
 -1.72292E+03 -4.10177E+03  2.32133E+03 -4.05201E+03  3.71456E+03 -2.00071E+03  3.80859E+03  8.84695E+02
  2.10106E+03  1.83878E+03  9.90386E+02  1.25695E+03 -7.97863E+02  1.27826E+03  1.82163E+03 -3.86660E+02
  1.34824E+03 -6.02655E+02  3.86931E+03  1.19764E+03  2.15246E+03  5.15101E+03 -8.99609E+02  6.55649E+03
 -4.37063E+03  4.02631E+03 -5.65461E+03  9.33432E+02 -5.00210E+03 -1.85365E+03 -1.65505E+03 -3.53229E+03
  2.87929E+02 -3.58503E+03  2.35076E+03 -1.97945E+03  1.69120E+03  1.92794E+03 -1.08424E+03  3.19626E+03
 -4.08374E+03  1.67565E+03 -4.46778E+03 -2.40301E+03 -2.23693E+03 -5.31558E+03  1.01446E+03 -4.78113E+03
  2.86412E+03 -2.88646E+03  3.54219E+03 -4.15996E+02  3.10302E+03  8.44065E+02  3.89084E+02  2.82125E+03
 -1.71832E+03  7.96338E+02 -2.17238E+03 -1.20195E+03  8.46560E+02 -3.86087E+03  4.56401E+03 -3.03412E+03
  5.25689E+03  6.53070E+02  5.56207E+03  3.18883E+03  2.03129E+03  5.86330E+03 -1.83772E+03  5.43913E+03
 -5.17337E+03  2.14766E+03 -4.89412E+03 -7.46186E+02 -2.73431E+03 -3.47698E+03  8.60797E+02 -3.02087E+03
  3.79495E+03 -1.58290E+03  3.24153E+03  1.46743E+03  7.64541E+02  3.46919E+03 -1.79748E+02  2.90203E+03
 -1.47666E+03  2.13984E+03 -1.59787E+03  8.27259E+02 -7.23577E+02  7.03151E+02 -1.02946E+03  1.30127E+03
 -1.33070E+03  2.44510E+03 -4.17711E+03  2.19248E+03 -5.33499E+03  7.90720E+01 -6.56732E+03 -3.63629E+03
 -3.35044E+03 -7.54705E+03  1.48923E+03 -8.66551E+03  4.90453E+03 -7.08104E+03  8.43211E+03 -2.70137E+03
  7.71862E+03  1.43975E+03  4.55684E+03  5.08254E+03  9.32947E+01  5.82260E+03 -2.22171E+03  4.24169E+03
 -3.16052E+03  1.71023E+03 -2.10030E+03 -7.75701E+02 -6.49111E+02 -2.16670E+02 -7.33149E+02 -3.24140E+02
 -1.38021E+03 -1.37859E+02 -1.50255E+03 -2.98800E+02  1.72902E+02 -1.63935E+03 -1.30259E+02 -2.55265E+03
  2.37489E+03 -1.95864E+03  3.08171E+03  8.83982E+01  4.10713E+03  3.32772E+03  7.21273E+02  5.50768E+03
 -2.94748E+03  6.82829E+03 -6.01979E+03  3.70649E+03 -6.98769E+03 -7.76415E+02 -5.30062E+03 -4.63355E+03
 -1.90038E+03 -5.63617E+03  1.31494E+03 -4.97934E+03  3.49996E+03 -2.97981E+03  3.52004E+03  4.79274E+02
  2.10747E+03  1.73673E+03 -1.87488E+02  1.37462E+03 -1.32609E+03  6.44142E+00  1.93457E+02 -1.39634E+03
  1.27443E+03 -5.98035E+02  2.12553E+03  9.99238E+02  1.14834E+03  2.32106E+03  1.54728E+02  2.43065E+03
 -2.66210E+03  2.48327E+03 -3.56049E+03 -5.31707E+01 -3.34372E+03 -2.41427E+03 -6.39987E+02 -4.56734E+03
  2.36315E+03 -3.36281E+03  3.94704E+03 -9.59961E+02  4.14713E+03  5.11269E+02  2.61806E+03  3.40334E+03
  3.57957E+02  3.29947E+03 -1.47622E+03  2.83188E+03 -2.45001E+03  1.94333E+03 -1.94192E+03  4.06905E+02
 -1.08368E+03 -5.79573E+02 -1.08343E+03  4.65242E+02 -1.63788E+03  5.36444E+02 -2.67831E+03 -7.70616E+02
 -2.86353E+03 -1.27139E+03 -9.33126E+02 -3.55176E+03  1.94557E+03 -3.81818E+03  3.21318E+03 -1.97672E+03
  3.42660E+03  3.19048E+02  1.85665E+03  2.16089E+03 -4.39512E+02  3.75784E+03 -2.82474E+03  2.27603E+03
