 $NMID ID='MM_0lb_SNR800_13hz_g60_48.RAW', FMTDAT='(8E13.5)'
 TRAMP=1., VOLUME=1. $END
  3.09610E+05  5.53062E+02  3.37680E+05  2.50478E+05  8.49925E+04  3.38502E+05 -1.32598E+05  2.51518E+05
 -1.90638E+05  8.36350E+04 -1.12239E+05 -3.26537E+04  4.80713E+02 -5.04837E+04  5.38194E+04 -2.21323E+02
  3.57321E+04  5.27335E+04 -1.67590E+04  7.59011E+04 -6.09936E+04  6.42382E+04 -8.47727E+04  3.22906E+04
 -8.19546E+04 -1.14641E+04 -5.78140E+04 -5.22317E+04 -1.49517E+04 -7.05831E+04  2.77218E+04 -4.63926E+04
  4.05941E+04  3.56141E+03  1.63566E+04  4.83769E+04 -3.48028E+04  4.77542E+04 -6.73062E+04  1.78679E+02
 -5.43875E+04 -5.74575E+04 -6.89446E+03 -7.79905E+04  3.41743E+04 -5.63107E+04  4.94543E+04 -1.78569E+04
  4.43758E+04  1.14282E+04  3.24526E+04  2.61090E+04  1.59116E+04  2.99054E+04 -5.40161E+03  2.73905E+04
 -2.23693E+04  1.21415E+04 -1.80220E+04 -5.50609E+03  6.38927E+03 -7.55797E+03  2.32154E+04  1.35010E+04
  7.44135E+03  3.65120E+04 -3.29909E+04  3.65683E+04 -6.45147E+04  2.06515E+03 -5.77346E+04 -4.36116E+04
 -1.26838E+04 -6.47722E+04  4.08171E+04 -4.64838E+04  5.99916E+04 -2.86540E+03  3.52738E+04  3.36408E+04
 -5.56803E+03  3.77855E+04 -3.10032E+04  1.75113E+04 -3.17678E+04 -3.97009E+03 -1.79083E+04 -1.13501E+04
 -9.11591E+03 -1.40465E+04 -6.51798E+02 -1.89524E+04  8.38800E+03 -2.29331E+04  1.54072E+04 -1.28478E+04
  1.08750E+04  5.67564E+03 -9.38856E+03  1.30199E+04 -2.24111E+04 -5.53193E+03 -8.30842E+03 -3.59923E+04
  2.38165E+04 -4.51066E+04  5.02955E+04 -2.05047E+04  4.68757E+04  2.03037E+04  1.64512E+04  4.58009E+04
 -1.62790E+04  3.49694E+04 -2.67036E+04  2.22038E+03 -1.07458E+04 -2.87666E+04  2.13827E+04 -3.53220E+04
  4.29401E+04 -9.97127E+03  3.82874E+04  2.40768E+04  1.98712E+04  4.87985E+04 -8.18459E+03  5.32023E+04
 -3.34689E+04  3.61884E+04 -4.48064E+04  1.05307E+04 -4.50753E+04 -1.77119E+04 -2.48614E+04 -3.97860E+04
  7.38317E+03 -3.98157E+04  3.28317E+04 -1.59807E+04  3.08872E+04  1.09346E+04  4.50140E+03  2.01750E+04
 -1.35864E+04  9.13471E+03 -1.06382E+04 -7.58118E+03  5.80803E+03 -1.09122E+04  1.84763E+04  5.87791E+03
  1.40217E+04  2.23841E+04 -5.82023E+03  2.59457E+04 -2.26953E+04  1.28335E+04 -2.98919E+04 -4.00411E+03
 -2.29068E+04 -1.79416E+04 -1.02148E+04 -2.25912E+04  4.17908E+03 -2.24250E+04  1.75670E+04 -2.06244E+04
  2.90016E+04 -1.34982E+04  3.51748E+04  3.80597E+03  2.54047E+04  2.21551E+04  4.25102E+03  3.84408E+04
 -1.85009E+04  3.20206E+04 -2.92891E+04  1.15197E+04 -2.15248E+04 -1.01146E+04 -4.71726E+03 -1.33208E+04
  1.44537E+03 -1.92115E+03 -5.93345E+03  7.52156E+03 -1.83583E+04  4.92937E+03 -1.83452E+04 -8.25941E+03
 -1.06599E+04 -2.08723E+04  5.46176E+03 -2.54460E+04  1.68672E+04 -1.76083E+04  2.01926E+04 -1.87704E+03
  1.29434E+04  1.45635E+04 -9.29691E+02  2.10306E+04 -1.48363E+04  1.20449E+04 -2.09865E+04 -4.09894E+03
 -1.53894E+04 -1.88980E+04 -2.00450E+03 -2.50778E+04  1.14812E+04 -2.06488E+04  2.09189E+04 -1.01454E+04
  1.98813E+04  6.67433E+01  1.43609E+04  4.87463E+03  7.70799E+03  1.12944E+03  1.06915E+04 -1.89215E+03
  1.89360E+04  2.90121E+03  2.22356E+04  1.64486E+04  1.45030E+04  3.34287E+04 -2.73529E+03  3.86875E+04
 -2.20391E+04  3.16078E+04 -3.66182E+04  1.61343E+04 -3.80980E+04 -2.68824E+03 -3.12013E+04 -2.20259E+04
 -1.29500E+04 -3.17866E+04  1.11850E+04 -2.81739E+04  2.41095E+04 -1.40866E+04  2.15984E+04  6.50939E+03
  7.75665E+03  1.60348E+04 -1.00908E+04  1.36878E+04 -1.78169E+04  2.43079E+03 -1.34566E+04 -1.12023E+04
 -1.04855E+02 -1.69795E+04  9.07751E+03 -1.26760E+04  1.13956E+04 -1.47173E+03  2.81902E+03  7.05918E+03
 -7.64584E+03  2.97327E+03 -7.31140E+03 -6.20760E+03 -9.41950E+02 -1.51776E+04  1.07207E+04 -1.59254E+04
  1.94140E+04 -8.72628E+03  2.13913E+04  3.25774E+03  1.84163E+04  1.51789E+04  8.56803E+03  2.39867E+04
 -4.37686E+03  2.59434E+04 -1.67755E+04  1.64307E+04 -1.89687E+04  3.77310E+03 -1.31080E+04 -4.76499E+03
 -6.14266E+03 -5.84041E+03 -7.63865E+02  9.82940E+02 -3.00569E+03  3.22070E+03 -6.27163E+03  4.85400E+03
 -1.17281E+04 -1.04647E+03 -1.24463E+04 -1.00078E+04 -5.08248E+03 -1.63747E+04  5.17736E+03 -1.32814E+04
  1.06301E+04 -5.61509E+03  7.68321E+03  3.14583E+03 -4.87696E+01  5.19119E+03 -6.08776E+03  2.22631E+02
 -6.23742E+03 -8.26908E+03 -1.11425E+03 -1.22884E+04  7.24436E+03 -1.32982E+04  1.62856E+04 -7.28133E+03
  1.91283E+04  1.92238E+03  1.42467E+04  1.12455E+04  2.46285E+03  1.51654E+04 -8.17192E+03  1.27065E+04
 -1.06344E+04  3.87387E+03 -5.61409E+03 -2.70562E+03  1.69753E+03 -3.68183E+03  6.93090E+03 -7.15889E+02
  6.04548E+03  5.57448E+03  1.02932E+03  1.07739E+04 -7.52717E+03  9.61873E+03 -1.24292E+04  2.47712E+03
 -8.08082E+03 -6.27506E+03  1.75310E+02 -1.10142E+04  6.79278E+03 -5.38965E+03  6.97375E+03  2.50202E+03
  1.64993E+03  7.53802E+03 -6.80892E+03  8.29141E+03 -1.01821E+04  4.10442E+03 -1.06628E+04 -3.58461E+03
 -6.01567E+03 -1.19285E+04  2.57635E+03 -1.40491E+04  1.18274E+04 -8.67405E+03  1.25873E+04  2.20113E+03
  7.78692E+03  9.79514E+03 -8.40793E+02  1.23973E+04 -8.99366E+03  6.54048E+03 -9.55336E+03 -9.41935E+02
 -8.54549E+03 -8.82462E+03 -1.58828E+03 -9.10987E+03  4.94423E+03 -7.63642E+03  5.77912E+03 -3.53564E+03
  3.81378E+03  1.24690E+03 -6.36632E+02  2.00280E+03 -1.07064E+02 -2.05847E+03  2.10823E+03 -5.19712E+03
  8.11544E+03 -3.03001E+03  1.14961E+04  1.47962E+03  1.14288E+04  7.63446E+03  8.41348E+03  1.49807E+04
 -3.53675E+03  1.74426E+04 -1.48889E+04  1.26279E+04 -1.90492E+04  2.27018E+03 -1.53727E+04 -6.23793E+03
 -7.86722E+03 -1.23765E+04 -5.74167E+02 -1.05277E+04  3.95768E+03 -5.54809E+03  3.53662E+03 -3.99827E+03
  2.83024E+03 -2.48910E+03  3.22753E+03 -3.24756E+03  4.92002E+03 -2.41686E+03  6.25007E+03 -4.23941E+02
  7.81301E+03  1.90665E+03  4.03355E+03  6.73223E+03 -1.65076E+03  7.75027E+03 -8.18447E+03  5.77639E+03
 -1.02851E+04 -8.52466E+02 -6.29551E+03 -7.16572E+03 -5.36188E+02 -1.11098E+04  6.14429E+03 -1.09121E+04
  1.14828E+04 -6.26266E+03  1.37665E+04  1.67020E+03  9.52665E+03  9.46591E+03  1.53249E+03  1.23213E+04
 -5.02703E+03  1.04926E+04 -7.56502E+03  3.74723E+03 -4.75334E+03 -1.48955E+03 -1.87372E+03 -1.46022E+03
 -1.13889E+03  1.46896E+02 -1.94849E+03  2.32428E+03 -4.45075E+03  2.00970E+03 -7.08471E+03 -1.01077E+03
 -4.91452E+03 -7.10958E+03  2.76714E+02 -9.82381E+03  6.31889E+03 -9.29537E+03  9.67507E+03 -2.56242E+03
  9.66489E+03  5.08804E+03  4.58626E+03  8.71618E+03 -1.65068E+03  1.01308E+04 -6.81519E+03  5.88998E+03
 -9.44848E+03  5.65915E+02 -7.24673E+03 -5.90580E+03 -6.49982E+02 -8.24783E+03  4.14392E+03 -6.02467E+03
  6.20580E+03 -2.01748E+03  4.30261E+03  1.29436E+03  1.39683E+03  3.29652E+03  1.35596E+03  1.20219E+03
  2.16067E+03  5.84974E+02  2.44775E+03  1.15034E+03  2.78851E+03  3.36337E+03  2.56600E+03  4.78284E+03
 -2.19803E+03  7.25951E+03 -6.76961E+03  8.53364E+03 -9.54408E+03  2.09709E+03 -1.00220E+04 -3.55555E+03
 -4.70061E+03 -9.42130E+03  1.32013E+03 -1.04942E+04  5.60933E+03 -6.73901E+03  7.59782E+03 -2.09880E+03
  6.15860E+03  3.87008E+03  1.07449E+03  5.66391E+03 -2.38920E+03  3.24598E+03 -3.42948E+03 -7.75305E+02
 -1.56144E+03 -3.89261E+03  2.31811E+03 -4.14261E+03  3.89080E+03 -2.06300E+03  3.74081E+03  9.25863E+02
  2.07648E+03  1.51779E+03  1.18503E+03  1.51531E+03 -5.07738E+02  1.55277E+03  1.70058E+03 -4.14932E+02
  1.13575E+03 -3.43167E+02  4.16376E+03  1.10500E+03  2.05235E+03  4.92339E+03 -4.37849E+02  6.36073E+03
 -4.29867E+03  3.63600E+03 -5.59960E+03  1.19627E+03 -5.23776E+03 -2.09982E+03 -1.65382E+03 -3.37571E+03
  5.85986E+02 -3.52955E+03  2.03038E+03 -1.59242E+03  1.93021E+03  1.85026E+03 -9.87972E+02  3.10963E+03
 -3.48461E+03  1.96337E+03 -4.38291E+03 -2.09388E+03 -2.31655E+03 -4.97598E+03  4.20256E+02 -4.98218E+03
  2.18962E+03 -2.78034E+03  3.61091E+03 -3.54992E+02  2.84031E+03  6.55148E+02  5.08490E+02  2.35113E+03
 -1.39961E+03  6.36901E+02 -2.50258E+03 -1.42307E+03  1.25417E+03 -3.66813E+03  4.45194E+03 -3.19070E+03
  4.63666E+03  4.53026E+02  5.67058E+03  3.57185E+03  2.07219E+03  5.78254E+03 -1.98062E+03  5.23400E+03
 -4.37380E+03  2.00168E+03 -4.57832E+03 -7.69139E+02 -2.10271E+03 -3.61202E+03  7.04018E+02 -3.45486E+03
  3.39856E+03 -2.03793E+03  2.89128E+03  1.26189E+03  8.41043E+02  3.28968E+03 -7.10836E+01  2.47576E+03
 -1.38147E+03  2.04499E+03 -1.40759E+03  5.82738E+02 -5.24499E+02  8.22123E+02 -1.06091E+03  7.81221E+02
 -1.52106E+03  2.24276E+03 -3.79714E+03  1.72552E+03 -5.17208E+03  1.90007E+02 -6.35702E+03 -3.58819E+03
 -2.90087E+03 -7.09853E+03  1.43702E+03 -7.93104E+03  4.62234E+03 -6.59085E+03  7.70760E+03 -2.56036E+03
  7.04130E+03  1.07698E+03  4.15610E+03  5.06024E+03  4.98152E+01  5.27348E+03 -2.11112E+03  4.02693E+03
 -3.06554E+03  1.96596E+03 -1.93106E+03 -3.85618E+02 -7.67733E+02 -3.57717E+02 -5.39796E+02 -1.51760E+02
 -1.31746E+03 -2.23572E+01 -1.63187E+03 -1.01493E+02 -2.09235E+01 -1.67647E+03 -4.34647E+02 -2.39665E+03
  2.40459E+03 -1.64321E+03  2.95020E+03  3.07788E+02  3.56748E+03  2.48673E+03  7.98734E+02  5.14447E+03
 -2.49678E+03  6.29360E+03 -5.44200E+03  3.32058E+03 -5.97654E+03 -4.90840E+02 -4.33913E+03 -3.85273E+03
 -2.20181E+03 -5.10401E+03  1.10438E+03 -4.33594E+03  2.76343E+03 -2.65148E+03  3.28937E+03  2.30749E+02
  1.77588E+03  1.86678E+03  1.15249E+02  1.30668E+03 -9.73813E+02 -4.50563E+01  2.05526E+02 -1.24874E+03
  1.70315E+03  3.56751E+00  2.06011E+03  8.46209E+02  1.03311E+03  1.68963E+03  4.58542E+02  2.34932E+03
 -2.11690E+03  2.19358E+03 -3.30541E+03 -3.16201E+01 -2.73889E+03 -2.29686E+03 -3.42470E+02 -4.22663E+03
  2.13667E+03 -3.21797E+03  3.38164E+03 -1.05682E+03  3.46109E+03  3.99525E+02  1.97664E+03  3.12721E+03
  6.89323E+02  2.83017E+03 -1.47547E+03  2.71274E+03 -2.17458E+03  1.38404E+03 -1.49732E+03  5.25960E+02
 -1.14079E+03 -2.13878E+02 -9.60341E+02  2.94170E+02 -1.82049E+03  3.51858E+02 -2.28859E+03 -5.53529E+02
 -2.62680E+03 -6.99062E+02 -5.05144E+02 -2.92069E+03  1.79430E+03 -3.66584E+03  2.79129E+03 -1.33755E+03
  2.93429E+03  2.69698E+02  8.21102E+02  1.41198E+03 -2.93540E+02  3.19335E+03 -2.28958E+03  2.28192E+03
