 $NMID ID='MM_0lb_SNR800_19hz_g60_10.RAW', FMTDAT='(8E13.5)'
 TRAMP=1., VOLUME=1. $END
  3.09814E+05  2.04616E+02  3.37661E+05  2.50445E+05  8.43544E+04  3.37731E+05 -1.32487E+05  2.50835E+05
 -1.90332E+05  8.29939E+04 -1.11235E+05 -3.24568E+04  1.00122E+03 -5.05804E+04  5.39625E+04 -1.16519E+02
  3.49314E+04  5.29803E+04 -1.67091E+04  7.49310E+04 -6.07302E+04  6.34303E+04 -8.36671E+04  3.16174E+04
 -8.03186E+04 -1.12559E+04 -5.67280E+04 -5.08980E+04 -1.50309E+04 -6.90189E+04  2.73047E+04 -4.50086E+04
  3.95882E+04  3.69024E+03  1.60913E+04  4.72861E+04 -3.43174E+04  4.69346E+04 -6.60366E+04 -4.99444E+02
 -5.30116E+04 -5.63554E+04 -6.77038E+03 -7.61734E+04  3.35880E+04 -5.41157E+04  4.72054E+04 -1.69901E+04
  4.24227E+04  1.14267E+04  3.13153E+04  2.50105E+04  1.57982E+04  2.88160E+04 -4.86533E+03  2.72302E+04
 -2.18622E+04  1.25143E+04 -1.85745E+04 -4.69249E+03  4.97389E+03 -7.55851E+03  2.16321E+04  1.15646E+04
  7.48596E+03  3.43254E+04 -3.13824E+04  3.49185E+04 -6.23640E+04  2.20588E+03 -5.61469E+04 -4.19343E+04
 -1.26671E+04 -6.20842E+04  3.91218E+04 -4.44843E+04  5.70583E+04 -2.22772E+03  3.30141E+04  3.13906E+04
 -6.38092E+03  3.42072E+04 -2.88532E+04  1.48761E+04 -2.87899E+04 -5.19459E+03 -1.54575E+04 -1.05112E+04
 -7.92068E+03 -1.22067E+04 -1.01675E+03 -1.73671E+04  7.07592E+03 -2.25648E+04  1.51218E+04 -1.35930E+04
  1.16557E+04  4.60708E+03 -7.14861E+03  1.29108E+04 -2.00331E+04 -3.34078E+03 -8.07302E+03 -3.17433E+04
  2.16673E+04 -4.19774E+04  4.62448E+04 -1.90212E+04  4.32068E+04  1.90414E+04  1.49305E+04  4.28444E+04
 -1.56816E+04  3.21056E+04 -2.44280E+04  1.17499E+03 -8.99923E+03 -2.70711E+04  2.06106E+04 -3.20654E+04
  3.93003E+04 -7.92124E+03  3.32700E+04  2.30321E+04  1.65688E+04  4.42064E+04 -7.80619E+03  4.71771E+04
 -2.97371E+04  3.16536E+04 -3.93709E+04  8.76259E+03 -4.02262E+04 -1.56930E+04 -2.23143E+04 -3.58211E+04
  7.07528E+03 -3.54211E+04  3.02356E+04 -1.35091E+04  2.76465E+04  1.07366E+04  3.30662E+03  1.83601E+04
 -1.30622E+04  7.81940E+03 -1.00958E+04 -7.72321E+03  5.87115E+03 -1.04527E+04  1.74319E+04  6.43724E+03
  1.24825E+04  2.17672E+04 -6.73878E+03  2.40461E+04 -2.17421E+04  1.00633E+04 -2.62180E+04 -5.62800E+03
 -1.82566E+04 -1.68510E+04 -6.73009E+03 -1.82942E+04  3.82660E+03 -1.61392E+04  1.35012E+04 -1.58316E+04
  2.27683E+04 -1.19577E+04  2.94917E+04  1.60659E+03  2.19626E+04  1.74454E+04  4.08239E+03  3.36264E+04
 -1.67154E+04  2.83230E+04 -2.67183E+04  9.78692E+03 -2.03546E+04 -1.03580E+04 -4.02841E+03 -1.38346E+04
  2.35217E+03 -3.62775E+03 -3.35554E+03  5.98986E+03 -1.39361E+04  5.19928E+03 -1.43761E+04 -5.85202E+03
 -9.24194E+03 -1.67414E+04  4.73627E+03 -2.02004E+04  1.33727E+04 -1.48687E+04  1.56413E+04 -1.34675E+03
  9.71227E+03  1.14436E+04 -6.72667E+02  1.63980E+04 -1.13593E+04  9.49540E+03 -1.67568E+04 -3.71083E+03
 -1.23165E+04 -1.51821E+04 -1.36995E+03 -2.00039E+04  8.74164E+03 -1.60554E+04  1.69671E+04 -7.91460E+03
  1.51337E+04  5.68343E+02  1.09239E+04  4.04366E+03  5.57903E+03  7.91172E+02  8.21012E+03 -1.23170E+03
  1.47249E+04  2.63473E+03  1.56186E+04  1.36768E+04  1.01480E+04  2.62489E+04 -3.26449E+03  2.86074E+04
 -1.68472E+04  2.18777E+04 -2.60999E+04  1.08341E+04 -2.68796E+04 -1.91759E+03 -2.27036E+04 -1.54340E+04
 -1.05638E+04 -2.19485E+04  7.40365E+03 -2.05535E+04  1.75653E+04 -1.10846E+04  1.61782E+04  4.11639E+03
  6.64771E+03  1.17285E+04 -7.14800E+03  1.08065E+04 -1.39133E+04  2.59933E+03 -1.06971E+04 -8.61423E+03
 -2.09679E+02 -1.29738E+04  6.69849E+03 -9.96795E+03  8.19593E+03 -1.43209E+03  1.59095E+03  5.50635E+03
 -5.83762E+03  1.44809E+03 -4.14952E+03 -4.78010E+03  5.21890E+02 -1.09377E+04  8.39829E+03 -1.06395E+04
  1.29103E+04 -5.16252E+03  1.31886E+04  2.70564E+03  1.12671E+04  1.02007E+04  5.56329E+03  1.49848E+04
 -2.04507E+03  1.66928E+04 -1.05889E+04  1.07332E+04 -1.20063E+04  3.15844E+03 -9.14780E+03 -2.29773E+03
 -4.64585E+03 -3.33084E+03 -8.18615E+02  1.33254E+03 -2.13004E+03  2.30552E+03 -3.93089E+03  3.77163E+03
 -8.35150E+03 -4.49634E+02 -8.90036E+03 -7.65788E+03 -3.89133E+03 -1.18120E+04  3.85260E+03 -8.71461E+03
  7.22456E+03 -3.88612E+03  5.17629E+03  2.24701E+03  4.83668E+02  3.23918E+03 -3.66956E+03 -2.25484E+02
 -3.62122E+03 -5.11434E+03 -8.66203E+02 -7.41807E+03  4.02166E+03 -8.63180E+03  1.03205E+04 -4.22502E+03
  1.22845E+04  4.60779E+02  9.14175E+03  6.78985E+03  1.59778E+03  9.36407E+03 -5.52538E+03  8.79793E+03
 -6.93448E+03  2.76796E+03 -3.61385E+03 -1.57434E+03  1.10160E+03 -1.75941E+03  4.86940E+03 -1.07195E+03
  4.19588E+03  3.62560E+03  1.29944E+03  6.73841E+03 -4.51029E+03  6.61451E+03 -8.10156E+03  1.92159E+03
 -5.03093E+03 -3.76308E+03  1.17307E+02 -6.90234E+03  3.74137E+03 -3.41503E+03  3.95252E+03  1.26639E+03
  4.54867E+02  3.77356E+03 -4.08982E+03  4.94099E+03 -5.28019E+03  2.49661E+03 -4.80156E+03 -1.51304E+03
 -3.04067E+03 -6.16724E+03  1.16676E+03 -7.47460E+03  6.07205E+03 -4.96242E+03  6.92704E+03  1.15337E+03
  4.88888E+03  5.66679E+03 -6.48468E+01  7.32199E+03 -5.08739E+03  4.33183E+03 -5.29929E+03 -3.67022E+02
 -5.97151E+03 -5.08801E+03 -1.34627E+03 -5.36084E+03  2.76040E+03 -4.52669E+03  2.97678E+03 -2.68321E+03
  2.86611E+03  4.82201E+02 -3.85787E+01  1.14435E+03  5.24858E+02 -1.60720E+02  6.65782E+01 -1.89850E+03
  4.01956E+03 -7.98913E+02  5.32976E+03  5.49823E+02  5.73741E+03  3.10881E+03  5.40714E+03  7.41110E+03
 -1.36934E+03  8.48440E+03 -7.79808E+03  6.54004E+03 -9.99898E+03  1.34060E+03 -8.05398E+03 -2.72564E+03
 -4.45741E+03 -6.49180E+03 -3.45694E+02 -5.47314E+03  2.20715E+03 -2.05990E+03  1.64718E+03 -2.08857E+03
  1.30507E+03 -1.60592E+03  2.20652E+03 -2.52234E+03  3.39610E+03 -1.23907E+03  3.75481E+03  2.26893E+02
  4.70273E+03  1.04442E+03  1.05828E+03  3.22882E+03 -1.69164E+03  2.91350E+03 -4.75452E+03  2.44003E+03
 -4.95912E+03 -9.80873E+02 -1.82284E+03 -3.34321E+03  2.11604E+02 -4.99461E+03  3.09498E+03 -5.41520E+03
  5.21224E+03 -3.27085E+03  6.43313E+03  3.38836E+02  4.76109E+03  4.42344E+03  9.97490E+02  6.06160E+03
 -2.33809E+03  5.81904E+03 -3.34239E+03  1.86606E+03 -1.83349E+03 -1.18193E+03 -4.27637E+02 -6.63362E+02
 -4.07820E+02  5.32298E+02 -1.14639E+03  1.85635E+03 -2.49499E+03  9.05729E+02 -4.19880E+03 -1.74732E+02
 -1.67267E+03 -4.01234E+03  7.84657E+02 -4.62871E+03  2.42441E+03 -4.15326E+03  3.53413E+03 -1.23059E+03
  3.83207E+03  2.23384E+03  1.71965E+03  3.20772E+03 -7.04714E+02  4.32136E+03 -2.45854E+03  2.84004E+03
 -3.75082E+03  6.62874E+02 -3.38549E+03 -2.06764E+03 -1.05722E+02 -2.94176E+03  1.64416E+03 -2.06522E+03
  2.69835E+03 -1.27073E+03  1.68852E+03  7.89286E+02  4.66122E+02  1.99403E+03  7.56482E+02  5.15665E+02
  1.75749E+03  5.33771E+02  1.27427E+03  1.00626E+03  8.29367E+02  2.06694E+03  1.49735E+03  1.57452E+03
 -1.42057E+03  2.85898E+03 -2.46288E+03  3.91768E+03 -2.62605E+03  1.36020E+03 -4.16371E+03 -4.43361E+02
 -1.72586E+03 -3.57900E+03  9.42483E+02 -4.43731E+03  1.97301E+03 -2.13427E+03  2.88332E+03 -8.58613E+02
  2.38359E+03  1.90719E+03  3.04364E+02  2.22057E+03 -7.72698E+02  1.17864E+03 -1.21125E+03 -2.24919E+02
 -6.39696E+02 -1.39212E+03  1.28058E+03 -1.23974E+03  1.56705E+03 -6.69206E+02  1.13178E+03  5.86826E+02
  9.47995E+02  2.06010E+02  6.09131E+02 -3.35900E+02 -3.20978E+02  8.23417E+02  1.47799E+03 -1.68712E+02
  2.40243E+02  3.45768E+01  1.69990E+03  6.08238E+02  2.21528E+02  2.36276E+03 -3.91416E+02  2.81760E+03
 -1.54557E+03  1.00834E+03 -1.66982E+03  2.11333E+02 -2.10719E+03 -8.92283E+02 -5.86206E+01 -8.23112E+02
  2.81904E+02 -1.17858E+03  8.47202E+02 -5.17911E+02  6.54017E+02  1.28356E+03 -6.82150E+02  1.15456E+03
 -1.32508E+03  6.99035E+02 -9.96706E+02 -1.21497E+03 -5.42193E+02 -2.21220E+03  7.25080E+00 -1.36233E+03
  5.27342E+02 -2.84360E+02  5.94359E+02  2.15229E+02  1.13729E+03 -2.90925E+01  1.49196E+02  1.04862E+03
 -1.54636E+02  7.81608E+01 -7.30104E+02  6.89225E+01  6.96133E+02 -8.86129E+02  1.61151E+03 -6.24557E+02
  9.44345E+02  1.41065E+02  2.47399E+03  5.13259E+02  1.12327E+03  1.45963E+03 -2.82104E+02  1.78517E+03
 -1.12956E+03  2.40207E+02 -1.16891E+03  1.80403E+02 -8.19390E+02 -1.34677E+03  2.51119E+02 -6.00227E+02
  1.34736E+03 -4.90703E+02  5.01251E+02  4.72223E+02  1.46469E+02  1.27559E+03  2.13021E+02  1.00963E+03
 -2.60486E+02  1.20070E+03 -5.75236E+02  3.20756E+01  2.28662E+02  2.67694E+02 -4.67784E+02  4.59781E+02
 -4.65885E+02  8.71221E+02 -1.65901E+03  5.97337E+02 -1.44877E+03  2.58969E+02 -2.14693E+03 -9.01632E+02
 -9.59183E+02 -1.95129E+03  5.48247E+02 -2.25330E+03  6.59185E+02 -1.98454E+03  2.34302E+03 -9.44613E+02
  1.84833E+03 -5.96330E+00  1.03899E+03  1.11632E+03 -6.78008E+02  1.18491E+03 -5.80569E+02  9.87011E+02
 -8.51204E+02  6.73380E+02 -7.57341E+02 -2.60143E+02 -3.37858E+02  5.21336E+02 -6.98327E+02 -7.58747E+01
 -6.42229E+02  2.26507E+01 -9.17436E+02 -4.91411E+01 -3.94404E+01 -8.06505E+02 -4.37165E+02 -7.17830E+02
  1.07393E+03 -6.84830E+02  5.46444E+02  2.51117E+02  1.33619E+03  5.69279E+02 -5.66909E+02  1.17404E+03
 -6.80903E+02  1.93727E+03 -1.41895E+03  1.12440E+03 -1.59574E+03 -2.22921E+02 -1.02951E+03 -1.00762E+03
 -7.99623E+02 -9.97550E+02  1.86376E+02 -9.22737E+02  1.58333E+02 -6.40433E+02  5.18995E+02  2.42907E+01
  5.44804E+02  1.82909E+02 -7.94089E+01  1.02846E+02 -3.19710E+02 -7.29580E+01 -2.65069E+01 -1.96730E+02
  2.51098E+02  3.03971E+02  5.45285E+01  4.80519E+02 -7.98637E+00  1.96772E+02  3.47833E+02  3.66471E+02
 -3.56400E+02  3.91213E+02  2.18012E+01  2.60223E+02 -5.71355E+02 -2.93706E+02 -1.63929E+02 -6.43706E+02
  9.87268E+01 -5.59889E+02  3.31584E+02 -5.23995E+01  5.64778E+02 -5.23920E+02  2.85745E+02  4.49652E+02
  3.54604E+02  2.52207E+02 -2.34924E+02  1.66708E+02 -1.30555E+02  4.06436E+02 -2.78927E+02  1.32660E+02
 -3.75896E+02  5.83210E+01 -3.85222E+02  2.68478E+02 -3.57080E+02  1.06579E+02 -4.49502E+02 -4.08053E+02
 -1.04771E+03  3.18445E+02 -2.38809E+02 -6.02884E+02  6.84837E+02 -1.36440E+03  3.33161E+02 -2.44915E+02
  5.43709E+02 -1.37029E+02 -4.35021E+02  2.29642E+02 -2.15696E+02  5.08957E+02 -2.98447E+02  4.39551E+02
