 $NMID ID='MM_0lb_SNR800_19hz_g55_89.RAW', FMTDAT='(8E13.5)'
 TRAMP=1., VOLUME=1. $END
  3.09722E+05  4.36898E+02  3.37589E+05  2.50361E+05  8.43715E+04  3.37667E+05 -1.32611E+05  2.50518E+05
 -1.89757E+05  8.27068E+04 -1.11417E+05 -3.27124E+04  1.22255E+03 -5.02958E+04  5.39288E+04  2.16204E+01
  3.51698E+04  5.31321E+04 -1.69711E+04  7.50848E+04 -6.04589E+04  6.30539E+04 -8.34054E+04  3.16814E+04
 -8.01277E+04 -1.11111E+04 -5.66425E+04 -5.03698E+04 -1.49492E+04 -6.86947E+04  2.70726E+04 -4.49429E+04
  3.94028E+04  4.05817E+03  1.59130E+04  4.72337E+04 -3.41881E+04  4.65317E+04 -6.58039E+04 -4.40256E+02
 -5.23669E+04 -5.62677E+04 -6.44341E+03 -7.58317E+04  3.34098E+04 -5.35743E+04  4.65391E+04 -1.67611E+04
  4.24748E+04  1.11972E+04  3.13365E+04  2.47444E+04  1.57826E+04  2.88315E+04 -4.91591E+03  2.68018E+04
 -2.19243E+04  1.27134E+04 -1.90745E+04 -4.55983E+03  4.65994E+03 -7.45335E+03  2.15935E+04  1.12227E+04
  7.54823E+03  3.37561E+04 -3.12076E+04  3.42622E+04 -6.17224E+04  2.57866E+03 -5.59722E+04 -4.16119E+04
 -1.21583E+04 -6.13878E+04  3.85192E+04 -4.37582E+04  5.61994E+04 -2.06028E+03  3.25755E+04  3.10843E+04
 -6.55671E+03  3.37019E+04 -2.88943E+04  1.41736E+04 -2.82024E+04 -5.25527E+03 -1.51331E+04 -1.03926E+04
 -7.29074E+03 -1.19843E+04 -8.75225E+02 -1.70925E+04  7.07362E+03 -2.26830E+04  1.51517E+04 -1.38479E+04
  1.20398E+04  4.25389E+03 -6.72328E+03  1.30504E+04 -1.96605E+04 -2.85173E+03 -8.32843E+03 -3.13018E+04
  2.12334E+04 -4.12415E+04  4.52050E+04 -1.86702E+04  4.28447E+04  1.86161E+04  1.46145E+04  4.19941E+04
 -1.53041E+04  3.17283E+04 -2.37272E+04  1.49050E+03 -8.46907E+03 -2.66598E+04  2.06108E+04 -3.16945E+04
  3.87727E+04 -7.85655E+03  3.23493E+04  2.32024E+04  1.58653E+04  4.30617E+04 -7.68560E+03  4.63489E+04
 -2.90545E+04  3.06990E+04 -3.82411E+04  8.60278E+03 -3.92291E+04 -1.52961E+04 -2.17495E+04 -3.53507E+04
  7.19771E+03 -3.50795E+04  2.95644E+04 -1.32385E+04  2.71397E+04  1.08393E+04  3.11549E+03  1.80067E+04
 -1.29035E+04  7.36278E+03 -9.92292E+03 -7.57583E+03  6.21998E+03 -1.02685E+04  1.73163E+04  6.34505E+03
  1.23772E+04  2.17230E+04 -6.39579E+03  2.35144E+04 -2.15630E+04  9.47054E+03 -2.54721E+04 -5.84946E+03
 -1.73283E+04 -1.67234E+04 -6.23495E+03 -1.74241E+04  3.78221E+03 -1.55175E+04  1.30846E+04 -1.48938E+04
  2.19883E+04 -1.19264E+04  2.88353E+04  1.45809E+03  2.17956E+04  1.68718E+04  4.17458E+03  3.30576E+04
 -1.62275E+04  2.80410E+04 -2.61015E+04  9.68166E+03 -1.98134E+04 -1.03632E+04 -4.25619E+03 -1.39012E+04
  2.85487E+03 -3.99943E+03 -3.04815E+03  5.53430E+03 -1.31444E+04  5.30144E+03 -1.39296E+04 -5.03121E+03
 -8.54304E+03 -1.58223E+04  4.64476E+03 -2.01472E+04  1.28069E+04 -1.42952E+04  1.50776E+04 -1.53392E+03
  9.61296E+03  1.11242E+04 -9.49915E+02  1.61619E+04 -1.07049E+04  9.35723E+03 -1.57007E+04 -3.45289E+03
 -1.17635E+04 -1.45420E+04 -1.35567E+03 -1.92572E+04  8.90716E+03 -1.60176E+04  1.60267E+04 -7.48689E+03
  1.48308E+04  6.95188E+02  1.07385E+04  3.94049E+03  5.29484E+03  6.06520E+02  7.79061E+03 -1.48270E+03
  1.43957E+04  2.61858E+03  1.50939E+04  1.26264E+04  9.58512E+03  2.53352E+04 -2.79323E+03  2.73369E+04
 -1.63187E+04  2.10418E+04 -2.49826E+04  1.03142E+04 -2.58704E+04 -1.86151E+03 -2.23030E+04 -1.47847E+04
 -1.03029E+04 -2.10495E+04  7.12111E+03 -1.97230E+04  1.72533E+04 -1.08728E+04  1.58479E+04  4.09202E+03
  6.59820E+03  1.14768E+04 -7.33823E+03  1.06354E+04 -1.36627E+04  2.48265E+03 -1.08850E+04 -8.08023E+03
  3.07344E+01 -1.25898E+04  6.32986E+03 -9.54539E+03  8.15533E+03 -1.16347E+03  1.42294E+03  4.89370E+03
 -5.66702E+03  1.34733E+03 -3.62875E+03 -4.89009E+03  5.37987E+02 -1.05751E+04  8.08115E+03 -1.05146E+04
  1.23946E+04 -4.63331E+03  1.23934E+04  2.83517E+03  1.06847E+04  9.42397E+03  5.19948E+03  1.43700E+04
 -1.77825E+03  1.64638E+04 -1.00284E+04  1.01127E+04 -1.12796E+04  2.77135E+03 -8.70112E+03 -1.91350E+03
 -4.45356E+03 -3.74318E+03 -8.14568E+02  1.55457E+03 -2.16688E+03  1.96347E+03 -3.68738E+03  3.78655E+03
 -8.07073E+03 -2.12102E+02 -8.61557E+03 -7.45877E+03 -3.60717E+03 -1.15319E+04  3.89792E+03 -8.66731E+03
  7.16737E+03 -3.94783E+03  5.32132E+03  2.28047E+03  1.43396E+02  3.12266E+03 -3.45215E+03 -5.78117E+01
 -3.36299E+03 -4.99602E+03 -7.20416E+02 -7.43309E+03  3.91188E+03 -7.91399E+03  1.03778E+04 -4.00405E+03
  1.20753E+04  7.47127E+02  8.82959E+03  6.34332E+03  1.77480E+03  8.82263E+03 -5.10718E+03  8.47425E+03
 -7.32487E+03  2.89227E+03 -3.43788E+03 -1.25446E+03  1.34103E+03 -1.99476E+03  4.85908E+03 -8.92123E+02
  4.10616E+03  3.38579E+03  9.99834E+02  6.53511E+03 -4.39728E+03  6.65734E+03 -8.29827E+03  1.61325E+03
 -4.90262E+03 -3.61000E+03  1.67604E+02 -6.78972E+03  3.46230E+03 -3.32686E+03  3.41455E+03  8.85104E+02
  3.99003E+02  3.46712E+03 -3.84616E+03  4.88995E+03 -4.73691E+03  2.60324E+03 -4.40776E+03 -9.24573E+02
 -2.70222E+03 -5.81814E+03  1.10274E+03 -7.06479E+03  5.72131E+03 -4.88642E+03  6.38463E+03  9.61033E+02
  4.66076E+03  5.19891E+03  2.09848E+02  7.08717E+03 -4.56969E+03  4.13205E+03 -5.20593E+03 -1.59090E+02
 -5.63415E+03 -5.21720E+03 -1.27816E+03 -5.06468E+03  2.92906E+03 -4.87864E+03  3.06662E+03 -2.93101E+03
  2.78521E+03  1.01143E+02  2.23880E+02  1.28125E+03  3.15811E+02 -1.11971E+02  5.29765E+01 -2.12029E+03
  3.66939E+03 -5.57613E+02  5.27815E+03  6.90240E+02  5.68621E+03  2.94210E+03  5.42491E+03  6.82985E+03
 -1.48585E+03  8.18006E+03 -7.46579E+03  6.63169E+03 -9.85487E+03  9.03748E+02 -7.95886E+03 -2.55101E+03
 -4.13957E+03 -6.66292E+03 -5.95611E+02 -5.10610E+03  2.32046E+03 -1.87956E+03  1.69227E+03 -2.12052E+03
  1.42853E+03 -1.37617E+03  2.21795E+03 -2.42707E+03  3.51466E+03 -1.47931E+03  3.59297E+03  3.97166E+02
  4.37847E+03  1.12795E+03  1.19112E+03  3.33637E+03 -1.36140E+03  2.54350E+03 -4.37519E+03  2.60290E+03
 -4.57912E+03 -1.15202E+03 -1.66673E+03 -3.18875E+03  6.62791E+02 -4.79567E+03  3.14033E+03 -5.30968E+03
  5.09702E+03 -3.09468E+03  6.54112E+03 -2.86458E+01  4.86410E+03  4.03451E+03  8.86065E+02  5.73695E+03
 -2.05618E+03  5.65554E+03 -3.39567E+03  1.75496E+03 -1.87087E+03 -8.61994E+02 -5.93156E+02 -7.76857E+02
 -2.81492E+02  4.83465E+02 -1.17190E+03  1.97533E+03 -2.60288E+03  1.17179E+03 -3.90000E+03 -1.89753E+02
 -1.38841E+03 -4.27293E+03  7.41755E+02 -4.56256E+03  2.64016E+03 -4.15392E+03  3.30875E+03 -9.59735E+02
  3.78744E+03  2.52217E+03  1.73986E+03  3.22325E+03 -6.47766E+02  4.14325E+03 -2.50943E+03  2.82475E+03
 -3.56705E+03  8.26338E+02 -3.08433E+03 -2.29260E+03 -3.74784E+02 -2.84553E+03  1.31183E+03 -2.44378E+03
  2.68267E+03 -1.41695E+03  1.97684E+03  6.34851E+02  1.98793E+02  1.65710E+03  8.53284E+02  4.75921E+02
  1.60795E+03  4.53042E+02  1.02364E+03  8.72445E+02  1.08760E+03  2.00840E+03  1.33560E+03  1.51880E+03
 -1.09096E+03  2.66218E+03 -2.18248E+03  3.77056E+03 -2.62940E+03  1.49534E+03 -3.85933E+03 -4.46235E+02
 -1.48172E+03 -3.39582E+03  4.71448E+02 -4.45231E+03  1.71103E+03 -2.26482E+03  2.77305E+03 -9.80933E+02
  2.13754E+03  1.82854E+03  5.21915E+02  1.97751E+03 -7.84794E+02  1.18546E+03 -9.74987E+02 -2.67077E+02
 -6.33228E+02 -1.45209E+03  1.07821E+03 -1.51895E+03  1.41139E+03 -6.97391E+02  1.42672E+03  1.93754E+02
  5.62751E+02  2.93922E+01  5.11633E+02 -8.16320E+01 -3.69675E+02  6.01072E+02  1.41441E+03 -2.60356E+02
 -1.82089E+02 -3.50592E+02  1.87291E+03  7.48416E+02 -1.12785E+02  2.31482E+03 -3.17498E+02  2.75774E+03
 -1.36471E+03  7.36829E+02 -1.72486E+03  1.53326E+02 -1.98928E+03 -6.42190E+02 -6.23912E+01 -7.38806E+02
  4.57851E+02 -1.25366E+03  7.91530E+02 -6.73150E+02  5.62358E+02  1.24279E+03 -5.81222E+02  1.20535E+03
 -1.54088E+03  5.70862E+02 -1.17022E+03 -1.21599E+03 -4.61006E+02 -2.07477E+03  6.00484E+01 -1.28855E+03
  4.25414E+02 -4.82098E+02  7.14519E+02  4.06917E+02  1.42492E+03 -2.29381E+02  3.17279E+02  1.20100E+03
 -2.68985E+02  5.02739E+01 -9.40484E+02 -1.77517E+00  7.08126E+02 -6.86853E+02  1.38295E+03 -8.55861E+02
  1.03636E+03  1.48840E+02  2.81142E+03  4.38710E+02  1.22900E+03  1.49206E+03 -1.42547E+02  1.41350E+03
 -1.44245E+03 -1.38530E+02 -1.22007E+03 -3.14368E+02 -4.31062E+02 -1.09824E+03  2.34742E+02 -3.12355E+02
  1.39451E+03 -5.67347E+02  7.75858E+02  9.14294E+02  2.92707E+02  1.12938E+03 -1.42117E+01  1.00853E+03
 -1.56728E+02  1.18385E+03 -3.55351E+02  5.29943E+02 -7.71793E+01  2.60756E+02 -6.67666E+02  5.62708E+02
 -6.63789E+02  8.02500E+02 -1.39039E+03  4.65982E+02 -1.56759E+03  2.38569E+02 -2.22915E+03 -1.28653E+03
 -1.12104E+03 -1.75745E+03  3.63977E+02 -2.36619E+03  6.97588E+02 -2.08451E+03  2.21472E+03 -1.12253E+03
  1.94229E+03 -1.11918E+02  1.10595E+03  1.22977E+03 -6.82217E+02  1.01966E+03 -5.67771E+02  1.23346E+03
 -9.49301E+02  5.67522E+02 -1.74846E+02 -2.94096E+02 -6.19224E+02  8.31650E+01 -6.16131E+02 -1.79921E+02
 -1.22906E+03 -1.99199E+02 -1.12838E+03  3.72170E+02  5.39609E+01 -4.48877E+02 -3.89005E+02 -8.34342E+02
  1.20446E+03 -7.02661E+02  5.29959E+02  2.10676E+02  1.37866E+03  7.47194E+02 -2.49662E+02  1.43507E+03
 -9.61549E+02  1.86972E+03 -1.31174E+03  1.03091E+03 -1.36727E+03 -7.50069E+01 -1.02139E+03 -1.08505E+03
 -8.31640E+02 -9.50308E+02  3.12659E+02 -1.04122E+03  4.68996E+02 -2.80809E+02  4.93844E+02  3.02007E+02
  3.21790E+02  4.43022E+02 -1.15291E+02  3.15765E+02 -1.62585E+02 -3.92845E+02  2.57952E+01 -9.16866E+01
  1.18288E+02  2.01733E+02  3.51942E+02  5.10116E+02 -1.18043E+02  2.84769E+02  5.97741E+02  2.91652E+01
 -3.37958E+02  5.78579E+02 -5.75756E+02 -5.96361E+01 -6.20292E+02 -4.64537E+02 -1.26399E+02 -6.30328E+02
  1.27777E+02 -4.36750E+02  3.95025E+02  1.50329E+02  8.68367E+02 -5.54860E+02  2.37552E+02  5.53496E+02
  7.23604E+02  5.31218E+02  4.62977E+01  4.02613E+02 -7.65420E+02  6.56569E+02 -3.02530E+02  3.21111E+01
  9.99184E+01 -3.55657E+02 -5.30606E+02 -2.30698E+01 -8.85837E+02  2.42603E+02 -8.12120E+02 -3.73751E+02
 -1.12369E+03  3.52831E+02 -1.74997E+02 -8.28559E+02  7.68542E+02 -1.27900E+03  7.06890E+02 -4.81991E+01
  4.91414E+02 -6.67908E+01 -4.64880E+02  3.07932E+02  1.85034E+02  7.21695E+02 -4.82084E+02  1.06151E+03
