 $NMID ID='MM_0lb_SNR800_17hz_g60_25.RAW', FMTDAT='(8E13.5)'
 TRAMP=1., VOLUME=1. $END
  3.09743E+05  4.37285E+02  3.37715E+05  2.50740E+05  8.49113E+04  3.37901E+05 -1.32511E+05  2.51324E+05
 -1.90589E+05  8.32163E+04 -1.11645E+05 -3.25796E+04  9.41568E+02 -5.04684E+04  5.37504E+04  2.94646E+01
  3.53055E+04  5.26152E+04 -1.68877E+04  7.53960E+04 -6.07758E+04  6.31980E+04 -8.40097E+04  3.20332E+04
 -8.08685E+04 -1.12761E+04 -5.68412E+04 -5.11574E+04 -1.51308E+04 -6.94469E+04  2.72471E+04 -4.59345E+04
  3.99112E+04  3.72597E+03  1.61301E+04  4.79307E+04 -3.42084E+04  4.68756E+04 -6.65851E+04 -8.14341E+01
 -5.31171E+04 -5.69317E+04 -6.61283E+03 -7.69003E+04  3.39869E+04 -5.50256E+04  4.77200E+04 -1.69239E+04
  4.29902E+04  1.13452E+04  3.15989E+04  2.53256E+04  1.55692E+04  2.91438E+04 -5.29149E+03  2.70110E+04
 -2.17831E+04  1.23419E+04 -1.87343E+04 -5.01655E+03  5.53019E+03 -7.52781E+03  2.22411E+04  1.18592E+04
  7.24744E+03  3.50793E+04 -3.19764E+04  3.53963E+04 -6.29845E+04  1.83622E+03 -5.69489E+04 -4.27671E+04
 -1.23865E+04 -6.30246E+04  3.94858E+04 -4.51002E+04  5.77638E+04 -2.20439E+03  3.39956E+04  3.21544E+04
 -6.24369E+03  3.57093E+04 -2.94622E+04  1.56315E+04 -3.00650E+04 -4.79401E+03 -1.65082E+04 -1.06402E+04
 -8.14530E+03 -1.30721E+04 -6.56215E+02 -1.79101E+04  7.20126E+03 -2.29206E+04  1.52469E+04 -1.32698E+04
  1.15833E+04  4.85624E+03 -7.76273E+03  1.29620E+04 -2.10929E+04 -3.96722E+03 -8.53543E+03 -3.33654E+04
  2.25846E+04 -4.28377E+04  4.74339E+04 -1.96386E+04  4.43962E+04  1.90569E+04  1.56617E+04  4.38000E+04
 -1.57848E+04  3.28339E+04 -2.52860E+04  1.41706E+03 -9.41905E+03 -2.74237E+04  2.07842E+04 -3.33797E+04
  4.05416E+04 -8.81982E+03  3.46531E+04  2.34394E+04  1.75452E+04  4.58617E+04 -7.68252E+03  4.96317E+04
 -3.11216E+04  3.28995E+04 -4.11603E+04  9.60917E+03 -4.15825E+04 -1.64322E+04 -2.29060E+04 -3.70779E+04
  6.88695E+03 -3.70836E+04  3.08364E+04 -1.46291E+04  2.86748E+04  1.12113E+04  3.74278E+03  1.90939E+04
 -1.32138E+04  7.83705E+03 -1.04641E+04 -7.91225E+03  5.87025E+03 -1.07672E+04  1.76914E+04  6.34556E+03
  1.31245E+04  2.21469E+04 -5.84839E+03  2.48974E+04 -2.23242E+04  1.11926E+04 -2.72813E+04 -5.26301E+03
 -1.95456E+04 -1.68913E+04 -7.75948E+03 -1.93800E+04  3.95608E+03 -1.85000E+04  1.49718E+04 -1.73948E+04
  2.48650E+04 -1.20954E+04  3.15006E+04  2.11217E+03  2.31334E+04  1.89228E+04  4.17877E+03  3.55372E+04
 -1.73229E+04  2.96339E+04 -2.76689E+04  1.02911E+04 -2.05468E+04 -9.90643E+03 -4.39316E+03 -1.40778E+04
  2.00645E+03 -3.27652E+03 -4.00284E+03  6.29811E+03 -1.50521E+04  5.28438E+03 -1.57739E+04 -6.20762E+03
 -9.49520E+03 -1.78541E+04  4.74145E+03 -2.17930E+04  1.41432E+04 -1.59324E+04  1.68331E+04 -1.68409E+03
  1.06694E+04  1.24137E+04 -1.02428E+03  1.77235E+04 -1.21214E+04  1.02390E+04 -1.80418E+04 -3.64342E+03
 -1.33737E+04 -1.60559E+04 -1.46758E+03 -2.18031E+04  9.67522E+03 -1.75481E+04  1.83791E+04 -8.74405E+03
  1.67871E+04  2.69360E+02  1.22701E+04  4.31929E+03  6.34569E+03  7.92966E+02  9.09669E+03 -1.26053E+03
  1.63318E+04  2.59403E+03  1.76550E+04  1.43402E+04  1.13826E+04  2.82722E+04 -3.04489E+03  3.16321E+04
 -1.84628E+04  2.52364E+04 -2.92690E+04  1.25749E+04 -3.06176E+04 -2.09807E+03 -2.52732E+04 -1.71698E+04
 -1.14486E+04 -2.49844E+04  8.43077E+03 -2.26240E+04  1.96212E+04 -1.23333E+04  1.78477E+04  4.80851E+03
  7.19745E+03  1.35152E+04 -8.18003E+03  1.16856E+04 -1.53460E+04  2.79266E+03 -1.15359E+04 -9.58669E+03
 -6.37750E+01 -1.40814E+04  7.03621E+03 -1.07627E+04  9.30780E+03 -1.28411E+03  1.86557E+03  6.10078E+03
 -6.33336E+03  2.05762E+03 -5.35487E+03 -5.12972E+03  7.83748E+01 -1.19748E+04  8.85395E+03 -1.24077E+04
  1.49907E+04 -6.37003E+03  1.57014E+04  3.02364E+03  1.33978E+04  1.16080E+04  6.16636E+03  1.77096E+04
 -2.49434E+03  1.96540E+04 -1.24456E+04  1.20558E+04 -1.37252E+04  3.14488E+03 -1.02762E+04 -2.81149E+03
 -5.13932E+03 -4.38268E+03 -4.77149E+02  1.28502E+03 -2.09535E+03  2.32350E+03 -4.83193E+03  3.62439E+03
 -9.44765E+03 -6.29240E+02 -1.01202E+04 -8.54467E+03 -4.09801E+03 -1.32794E+04  4.32847E+03 -9.92762E+03
  8.18654E+03 -4.05231E+03  6.35272E+03  2.54379E+03  5.80742E+02  3.89340E+03 -4.44638E+03  1.94187E+02
 -4.64884E+03 -6.20595E+03 -9.69123E+02 -9.04090E+03  4.92584E+03 -9.51422E+03  1.18660E+04 -5.30086E+03
  1.42875E+04  8.62444E+02  1.07222E+04  8.11905E+03  2.13365E+03  1.08681E+04 -6.12555E+03  1.00419E+04
 -8.35237E+03  3.19471E+03 -3.77787E+03 -1.29981E+03  1.38917E+03 -2.26921E+03  5.41441E+03 -1.09633E+03
  4.91417E+03  3.79919E+03  1.04113E+03  7.79714E+03 -5.39183E+03  7.46768E+03 -9.33545E+03  2.16585E+03
 -6.10948E+03 -4.55722E+03  1.77019E+02 -8.37271E+03  4.58566E+03 -4.00222E+03  4.43301E+03  1.35581E+03
  7.74023E+02  4.73888E+03 -5.12677E+03  6.05947E+03 -6.52129E+03  2.94577E+03 -6.52691E+03 -1.56757E+03
 -3.68610E+03 -7.71221E+03  1.64417E+03 -9.16017E+03  7.79689E+03 -5.77407E+03  8.38231E+03  1.32142E+03
  6.19261E+03  6.85289E+03 -1.72174E+02  9.06679E+03 -6.33429E+03  5.13093E+03 -6.53286E+03 -8.67390E+02
 -6.65730E+03 -6.18983E+03 -1.79981E+03 -6.38343E+03  3.01276E+03 -5.48450E+03  4.17727E+03 -3.03605E+03
  3.39130E+03  5.04387E+02 -2.76257E+02  1.58039E+03  3.23748E+02 -7.17372E+02  8.32191E+02 -2.99603E+03
  5.34004E+03 -1.44512E+03  7.39324E+03  8.86460E+02  7.13154E+03  4.59864E+03  6.40129E+03  9.79549E+03
 -2.14478E+03  1.11022E+04 -9.81270E+03  8.15973E+03 -1.27799E+04  1.65409E+03 -9.96285E+03 -3.60104E+03
 -5.41672E+03 -8.19886E+03 -6.24043E+02 -6.43654E+03  2.46464E+03 -3.23577E+03  2.00520E+03 -2.79083E+03
  1.68631E+03 -1.82796E+03  2.33961E+03 -2.78174E+03  4.11388E+03 -1.71135E+03  4.59456E+03  3.65961E+02
  5.50238E+03  1.59208E+03  1.92867E+03  4.41152E+03 -1.70998E+03  4.34099E+03 -5.45968E+03  3.68698E+03
 -6.42017E+03 -1.09564E+03 -3.04231E+03 -4.29976E+03  4.34886E+02 -6.39912E+03  4.05221E+03 -6.84322E+03
  6.70445E+03 -4.14094E+03  8.77021E+03  6.69522E+02  6.30869E+03  5.65564E+03  1.33554E+03  7.80177E+03
 -3.15848E+03  7.13317E+03 -4.08405E+03  2.35578E+03 -2.53327E+03 -1.04292E+03 -6.24509E+02 -5.53809E+02
 -8.23125E+02  5.95696E+02 -1.14467E+03  2.25150E+03 -2.72688E+03  1.09266E+03 -4.78897E+03 -4.96772E+02
 -2.49646E+03 -5.12073E+03  8.27779E+02 -5.89243E+03  3.54603E+03 -5.72363E+03  4.86320E+03 -1.59347E+03
  5.50097E+03  3.03328E+03  2.59073E+03  4.66859E+03 -1.18636E+03  5.82769E+03 -3.89156E+03  3.35238E+03
 -5.18477E+03  5.38937E+02 -4.55324E+03 -3.14973E+03 -4.83161E+02 -4.43657E+03  2.22227E+03 -3.12609E+03
  3.77736E+03 -1.40977E+03  2.35744E+03  6.67912E+02  5.67382E+02  1.86646E+03  9.22710E+02  6.47542E+02
  1.82899E+03  8.19197E+02  1.69721E+03  9.54953E+02  1.49862E+03  2.38008E+03  1.62075E+03  2.21030E+03
 -1.65237E+03  4.05309E+03 -3.26985E+03  4.78148E+03 -4.07553E+03  1.47825E+03 -5.14475E+03 -9.30071E+02
 -2.43169E+03 -5.39065E+03  7.25896E+02 -5.91636E+03  2.71770E+03 -3.56788E+03  4.16590E+03 -9.22114E+02
  3.25581E+03  2.12146E+03  5.32326E+02  3.31307E+03 -1.17674E+03  1.33943E+03 -1.80524E+03 -1.01099E+02
 -8.64214E+02 -2.37644E+03  1.76769E+03 -2.13843E+03  2.05444E+03 -1.19166E+03  1.63532E+03  6.64648E+02
  1.07339E+03  5.98505E+02  6.88919E+02  8.13879E+01  1.11172E+01  1.14739E+03  1.50256E+03 -1.16069E+02
  2.92713E+02 -3.48478E+02  2.32650E+03  7.95630E+02  8.50499E+02  3.05041E+03 -4.50139E+02  3.53322E+03
 -2.26280E+03  1.84729E+03 -2.74566E+03  4.65178E+02 -2.93696E+03 -1.13266E+03 -5.59011E+02 -1.31900E+03
  7.67392E+02 -1.53329E+03  1.32745E+03 -8.64016E+02  6.43085E+02  1.38801E+03 -9.07454E+02  1.45168E+03
 -1.78497E+03  7.83335E+02 -1.89096E+03 -1.53450E+03 -1.14344E+03 -2.74675E+03  3.00053E+02 -2.01558E+03
  8.61750E+02 -8.74971E+02  1.16915E+03  1.13715E+02  1.86878E+03  2.60903E+02  2.76766E+02  1.60455E+03
 -5.94296E+02  1.51027E+02 -1.18974E+03 -6.82600E+02  6.52555E+02 -1.42756E+03  2.08903E+03 -1.17266E+03
  1.90228E+03  4.66904E+02  3.30234E+03  1.33397E+03  1.32775E+03  2.38610E+03 -2.38247E+02  2.40711E+03
 -1.96300E+03  6.49461E+02 -1.78566E+03 -1.14598E+02 -1.12496E+03 -1.73635E+03  3.03896E+02 -9.65852E+02
  1.79332E+03 -7.32964E+02  9.65926E+02  8.40006E+02  2.23967E+02  1.76656E+03  2.76049E+02  1.52309E+03
 -4.70575E+02  1.16417E+03 -6.01730E+02  6.34112E+01 -1.54713E+02  2.09762E+02 -4.86957E+02  5.57389E+02
 -7.18236E+02  1.33525E+03 -2.28184E+03  6.76002E+02 -2.33030E+03  5.06607E+02 -2.94572E+03 -1.18957E+03
 -1.58612E+03 -3.30931E+03  2.54301E+02 -3.53060E+03  1.57513E+03 -2.96391E+03  3.44112E+03 -1.41671E+03
  3.22059E+03  1.04144E+02  1.68475E+03  2.06404E+03 -4.09638E+02  1.93638E+03 -7.77367E+02  1.74934E+03
 -1.07664E+03  7.99115E+02 -6.13656E+02 -2.49323E+02 -4.59157E+02  2.21722E+00 -1.01772E+03  7.93351E+01
 -1.26724E+03 -2.03197E+02 -8.63178E+02  3.85306E+00  2.68461E+02 -7.58299E+02 -4.43223E+02 -1.13850E+03
  1.46539E+03 -7.24228E+02  5.92873E+02  1.46735E+02  1.48348E+03  1.39028E+03 -2.99068E+02  1.97657E+03
 -1.17499E+03  2.73206E+03 -2.24825E+03  1.93667E+03 -2.31743E+03 -2.68359E+02 -1.72667E+03 -1.67563E+03
 -9.80282E+02 -1.76127E+03  3.49948E+02 -1.39793E+03  1.23198E+03 -7.94920E+02  8.08212E+02  1.47122E+02
  1.20803E+03  2.83070E+02  1.55176E+02  8.49798E+02 -4.08612E+02  1.98012E+02 -2.43827E+02 -1.07223E+02
  8.58608E+02  1.38153E+02  4.43971E+02  3.31442E+02  2.69405E+02  7.49799E+02  3.35155E+02  4.13346E+02
 -7.23659E+02  9.20571E+02 -8.93924E+02  7.88090E+01 -9.99992E+02 -7.32742E+02 -1.30350E+02 -1.43920E+03
  6.89609E+02 -8.58881E+02  9.03749E+02 -2.36205E+02  1.21005E+03 -3.02302E+02  4.82855E+02  9.40953E+02
  3.62257E+02  5.54524E+02 -4.71386E+02  1.00949E+03 -5.93317E+02  7.09296E+02 -5.55046E+02  5.69345E+01
 -1.92006E+02  2.96245E+02 -5.02746E+02 -3.69479E+01 -6.44105E+02  3.71910E+02 -1.12224E+03 -1.96169E+02
 -1.21038E+03  2.04624E+02 -5.42589E+02 -1.39659E+03  7.84059E+02 -1.75585E+03  1.10747E+03 -4.56806E+02
  9.83944E+02  7.40255E+01 -3.18243E+02  4.51073E+02 -6.60294E+01  9.86463E+02 -6.38827E+02  9.16941E+02
