 $NMID ID='MM_0lb_SNR800_12hz_g55_81.RAW', FMTDAT='(8E13.5)'
 TRAMP=1., VOLUME=1. $END
  3.09898E+05  3.22003E+02  3.37732E+05  2.50763E+05  8.47611E+04  3.38340E+05 -1.32840E+05  2.51765E+05
 -1.90568E+05  8.35406E+04 -1.12133E+05 -3.23540E+04  6.01917E+02 -5.06723E+04  5.36636E+04 -2.33402E+02
  3.56141E+04  5.29017E+04 -1.70692E+04  7.57524E+04 -6.10809E+04  6.37663E+04 -8.48557E+04  3.21249E+04
 -8.20181E+04 -1.16744E+04 -5.80113E+04 -5.19893E+04 -1.50437E+04 -7.04775E+04  2.77644E+04 -4.63944E+04
  4.07400E+04  3.68904E+03  1.66184E+04  4.83181E+04 -3.45660E+04  4.77227E+04 -6.74977E+04  1.09290E+02
 -5.43056E+04 -5.74402E+04 -6.98414E+03 -7.81235E+04  3.43831E+04 -5.64568E+04  4.89508E+04 -1.81923E+04
  4.44140E+04  1.12790E+04  3.21583E+04  2.57905E+04  1.61803E+04  2.98975E+04 -5.77472E+03  2.78453E+04
 -2.23406E+04  1.22370E+04 -1.85091E+04 -5.49444E+03  6.28977E+03 -7.16629E+03  2.28976E+04  1.30093E+04
  7.13205E+03  3.63621E+04 -3.31954E+04  3.65303E+04 -6.47879E+04  2.22629E+03 -5.79058E+04 -4.32846E+04
 -1.25105E+04 -6.48351E+04  4.09289E+04 -4.64291E+04  6.00411E+04 -2.49876E+03  3.55722E+04  3.31866E+04
 -5.86843E+03  3.82518E+04 -3.10249E+04  1.76061E+04 -3.23089E+04 -3.93875E+03 -1.79502E+04 -1.15680E+04
 -9.16691E+03 -1.39227E+04 -8.32220E+02 -1.89165E+04  7.83582E+03 -2.33201E+04  1.58277E+04 -1.29446E+04
  1.08027E+04  5.57043E+03 -9.38408E+03  1.27291E+04 -2.24425E+04 -5.59895E+03 -8.42391E+03 -3.58834E+04
  2.40661E+04 -4.55595E+04  5.03070E+04 -2.01970E+04  4.72136E+04  2.04943E+04  1.66271E+04  4.59207E+04
 -1.62702E+04  3.47546E+04 -2.64141E+04  2.21189E+03 -1.09230E+04 -2.84402E+04  2.13631E+04 -3.56575E+04
  4.30145E+04 -1.05904E+04  3.81176E+04  2.43801E+04  2.01240E+04  4.87774E+04 -8.00944E+03  5.35294E+04
 -3.34458E+04  3.63515E+04 -4.46599E+04  1.04736E+04 -4.52694E+04 -1.75168E+04 -2.51433E+04 -3.99516E+04
  7.74433E+03 -4.04210E+04  3.30086E+04 -1.57320E+04  3.05116E+04  1.09165E+04  4.51344E+03  1.99794E+04
 -1.37630E+04  9.14271E+03 -1.08884E+04 -7.35866E+03  5.72890E+03 -1.10917E+04  1.81212E+04  5.74352E+03
  1.39383E+04  2.22837E+04 -5.39881E+03  2.61142E+04 -2.31390E+04  1.26056E+04 -2.96791E+04 -3.79118E+03
 -2.31274E+04 -1.81879E+04 -9.79730E+03 -2.26908E+04  4.12439E+03 -2.27188E+04  1.80045E+04 -2.08243E+04
  2.92401E+04 -1.35268E+04  3.56032E+04  4.07901E+03  2.58877E+04  2.20701E+04  4.68433E+03  3.89991E+04
 -1.88801E+04  3.23222E+04 -2.93599E+04  1.13581E+04 -2.17161E+04 -1.02959E+04 -4.91657E+03 -1.30927E+04
  1.10434E+03 -1.79698E+03 -6.34390E+03  7.36873E+03 -1.81248E+04  4.92231E+03 -1.83323E+04 -8.31941E+03
 -1.13760E+04 -2.09800E+04  5.45458E+03 -2.54036E+04  1.71143E+04 -1.82007E+04  2.06177E+04 -1.50008E+03
  1.29987E+04  1.47583E+04 -1.17187E+03  2.12430E+04 -1.52965E+04  1.22346E+04 -2.15621E+04 -4.48332E+03
 -1.54661E+04 -1.90023E+04 -2.64445E+03 -2.55202E+04  1.16337E+04 -2.09605E+04  2.09728E+04 -1.07930E+04
  1.97707E+04 -1.39697E+02  1.41015E+04  4.78711E+03  7.94374E+03  1.29763E+03  1.06824E+04 -1.73542E+03
  1.97944E+04  3.07519E+03  2.22247E+04  1.64757E+04  1.49998E+04  3.40423E+04 -2.72823E+03  3.91997E+04
 -2.29523E+04  3.23880E+04 -3.69664E+04  1.62903E+04 -3.88803E+04 -2.94119E+03 -3.19426E+04 -2.26393E+04
 -1.29547E+04 -3.21401E+04  1.08428E+04 -2.87961E+04  2.47278E+04 -1.37009E+04  2.18800E+04  6.62866E+03
  7.67697E+03  1.65014E+04 -1.00062E+04  1.42770E+04 -1.78801E+04  2.35436E+03 -1.41675E+04 -1.16041E+04
  3.60830E-01 -1.75123E+04  9.26195E+03 -1.29171E+04  1.18048E+04 -1.28283E+03  2.63570E+03  7.42654E+03
 -7.82762E+03  3.47288E+03 -7.66951E+03 -6.67743E+03 -1.16139E+03 -1.56442E+04  1.09592E+04 -1.65944E+04
  1.98257E+04 -9.03063E+03  2.17731E+04  3.11037E+03  1.89878E+04  1.55075E+04  9.02244E+03  2.47330E+04
 -4.33260E+03  2.66578E+04 -1.74262E+04  1.64350E+04 -1.89866E+04  3.70524E+03 -1.34137E+04 -4.44416E+03
 -5.69704E+03 -5.71655E+03 -2.82564E+02  9.94088E+02 -2.87649E+03  2.91832E+03 -6.07056E+03  4.96629E+03
 -1.23696E+04 -9.19279E+02 -1.29008E+04 -1.06076E+04 -5.25703E+03 -1.68370E+04  5.40329E+03 -1.34832E+04
  1.11455E+04 -5.67622E+03  8.07430E+03  3.66283E+03 -1.81219E+02  5.27518E+03 -6.44232E+03 -1.71062E+02
 -6.24188E+03 -8.43047E+03 -9.55133E+02 -1.31336E+04  7.76262E+03 -1.36545E+04  1.68838E+04 -7.41726E+03
  2.02700E+04  1.88371E+03  1.43695E+04  1.19399E+04  2.81522E+03  1.55368E+04 -8.06173E+03  1.30556E+04
 -1.07314E+04  3.98009E+03 -5.37112E+03 -2.98072E+03  1.87043E+03 -3.57824E+03  7.10479E+03 -1.20964E+03
  6.47509E+03  5.60123E+03  1.07351E+03  1.06138E+04 -7.64803E+03  1.04900E+04 -1.30542E+04  2.43842E+03
 -9.08832E+03 -6.84404E+03  2.66995E+02 -1.13546E+04  6.99932E+03 -5.96586E+03  7.31087E+03  2.65202E+03
  1.35353E+03  7.65051E+03 -7.16447E+03  9.12803E+03 -1.07069E+04  4.10720E+03 -1.07877E+04 -3.62800E+03
 -6.24871E+03 -1.21389E+04  3.13037E+03 -1.47261E+04  1.22086E+04 -8.79156E+03  1.34288E+04  1.96966E+03
  8.39865E+03  1.05006E+04 -1.22022E+03  1.27110E+04 -9.48783E+03  7.35028E+03 -1.03259E+04 -1.15385E+03
 -9.18019E+03 -8.66067E+03 -1.83031E+03 -9.26283E+03  5.16732E+03 -7.60216E+03  5.85858E+03 -3.56003E+03
  4.15631E+03  1.51859E+03 -5.68966E+02  1.19130E+03 -5.00785E+02 -2.40776E+03  2.04613E+03 -5.47404E+03
  9.02159E+03 -3.77906E+03  1.21040E+04  1.60047E+03  1.21270E+04  8.32584E+03  8.30528E+03  1.61217E+04
 -3.90189E+03  1.84951E+04 -1.55432E+04  1.38151E+04 -2.01413E+04  2.58490E+03 -1.60296E+04 -6.65605E+03
 -7.99831E+03 -1.31075E+04 -2.20875E+02 -1.11419E+04  4.22730E+03 -6.15695E+03  3.97838E+03 -3.98511E+03
  3.09139E+03 -2.69550E+03  3.62681E+03 -3.03864E+03  4.80818E+03 -2.69061E+03  6.33572E+03 -6.90229E+02
  8.65820E+03  1.76807E+03  3.92196E+03  7.42178E+03 -1.85408E+03  7.94261E+03 -8.73509E+03  6.62966E+03
 -1.11031E+04 -1.34401E+03 -6.50074E+03 -7.66741E+03 -7.37307E+02 -1.16164E+04  6.61602E+03 -1.21454E+04
  1.19255E+04 -6.85420E+03  1.46669E+04  1.77380E+03  1.03746E+04  9.99427E+03  1.70409E+03  1.37491E+04
 -5.42379E+03  1.11671E+04 -7.69521E+03  3.80659E+03 -5.34867E+03 -1.23300E+03 -2.01863E+03 -1.38542E+03
 -1.30496E+03  4.03271E+02 -1.80494E+03  2.60414E+03 -4.71696E+03  2.03573E+03 -7.87133E+03 -4.77349E+02
 -5.05731E+03 -7.93836E+03  4.42964E+02 -1.06952E+04  6.51604E+03 -1.01369E+04  1.00604E+04 -2.89599E+03
  1.05633E+04  5.10792E+03  4.50891E+03  9.46049E+03 -1.92482E+03  1.08050E+04 -7.47695E+03  6.53495E+03
 -1.03525E+04  5.36805E+02 -8.05621E+03 -6.71044E+03 -8.35990E+02 -8.90428E+03  4.63376E+03 -6.79890E+03
  6.49404E+03 -2.41228E+03  4.38245E+03  1.66931E+03  1.95013E+03  3.52986E+03  1.04901E+03  1.60937E+03
  2.45947E+03  1.04845E+03  2.72197E+03  1.82388E+03  2.93144E+03  4.01462E+03  2.97968E+03  5.55226E+03
 -2.61728E+03  8.11030E+03 -7.14652E+03  8.48578E+03 -1.04649E+04  2.51982E+03 -1.09163E+04 -3.63238E+03
 -5.01020E+03 -1.05915E+04  1.58411E+03 -1.17911E+04  6.11879E+03 -7.31994E+03  8.55861E+03 -2.04857E+03
  6.63304E+03  4.25514E+03  1.50546E+03  6.10927E+03 -2.85166E+03  3.87345E+03 -4.11535E+03 -1.02231E+03
 -1.83374E+03 -4.42304E+03  2.46613E+03 -4.61255E+03  4.04397E+03 -2.12161E+03  4.10544E+03  1.00943E+03
  2.26536E+03  1.89419E+03  1.12592E+03  1.21748E+03 -5.21862E+02  1.72898E+03  1.67003E+03 -4.04155E+02
  1.62349E+03 -5.19310E+02  4.33939E+03  1.69749E+03  2.30490E+03  6.11534E+03 -7.03783E+02  7.20990E+03
 -5.11190E+03  4.39426E+03 -6.54330E+03  9.98693E+02 -6.03965E+03 -2.06526E+03 -1.50907E+03 -3.77643E+03
  8.47068E+02 -3.67699E+03  2.68906E+03 -1.95445E+03  1.84510E+03  2.13684E+03 -1.09886E+03  3.38045E+03
 -4.14938E+03  1.65557E+03 -4.38049E+03 -2.73365E+03 -2.50192E+03 -5.41990E+03  1.17944E+03 -5.35440E+03
  2.76649E+03 -3.04284E+03  4.03607E+03 -4.77296E+02  3.62160E+03  1.43036E+03  5.87264E+02  3.11101E+03
 -1.72305E+03  8.62863E+02 -2.55875E+03 -1.97620E+03  1.10890E+03 -3.85975E+03  5.06065E+03 -3.41051E+03
  6.16368E+03  1.99096E+02  6.61886E+03  3.70515E+03  2.24099E+03  6.33073E+03 -2.25329E+03  6.05348E+03
 -5.62320E+03  2.36202E+03 -4.98977E+03 -7.31302E+02 -3.02546E+03 -4.42303E+03  6.82916E+02 -3.49148E+03
  3.98345E+03 -1.98950E+03  3.58256E+03  2.02614E+03  8.06617E+02  3.85616E+03 -7.71165E+01  2.98869E+03
 -1.60202E+03  1.99953E+03 -1.52942E+03  4.52505E+02 -5.41889E+02  3.56858E+02 -1.39923E+03  1.29076E+03
 -1.94918E+03  2.68365E+03 -4.55076E+03  1.85522E+03 -6.25529E+03  3.25960E+02 -7.70181E+03 -4.06017E+03
 -3.49029E+03 -8.17888E+03  1.50722E+03 -9.57884E+03  5.92238E+03 -7.52225E+03  9.33192E+03 -2.80194E+03
  8.47286E+03  1.15228E+03  5.08472E+03  5.45980E+03  2.84987E+02  6.36553E+03 -2.14382E+03  4.63202E+03
 -3.69749E+03  1.99914E+03 -2.37556E+03 -6.80097E+02 -7.90594E+02 -4.24975E+02 -7.62836E+02  1.30090E+02
 -1.53770E+03  1.99178E+02 -1.64662E+03 -1.04825E+02 -4.37215E+02 -1.31062E+03 -1.42212E+02 -2.64214E+03
  3.14366E+03 -2.18004E+03  3.55893E+03 -2.13611E+01  4.37296E+03  3.50383E+03  8.92982E+02  5.99824E+03
 -2.52897E+03  6.93098E+03 -6.47345E+03  4.19681E+03 -7.49193E+03 -5.16399E+02 -5.63406E+03 -4.44553E+03
 -2.48375E+03 -5.95758E+03  1.69733E+03 -5.73324E+03  3.69036E+03 -2.81623E+03  3.81230E+03  4.42059E+02
  2.10497E+03  2.09546E+03 -2.53069E+02  1.49493E+03 -7.93513E+02  1.62986E+02  1.45584E+02 -1.44415E+03
  2.32941E+03 -5.55938E+02  2.32457E+03  8.60977E+02  1.83828E+03  2.37402E+03  2.29596E+02  2.94085E+03
 -2.74678E+03  2.40649E+03 -4.16734E+03  3.75773E+02 -3.25476E+03 -2.74568E+03 -4.75028E+02 -5.36513E+03
  2.36072E+03 -3.95695E+03  4.49309E+03 -1.27139E+03  4.33244E+03  2.73636E+02  2.55009E+03  3.45933E+03
  7.20477E+02  3.84284E+03 -1.07910E+03  3.26641E+03 -2.22598E+03  2.02868E+03 -2.02562E+03  1.75962E+02
 -7.71289E+02 -1.83700E+02 -1.09849E+03  2.74459E+02 -2.03988E+03  2.34637E+02 -3.13392E+03 -6.25237E+02
 -2.87541E+03 -1.55462E+03 -1.03417E+03 -3.98586E+03  1.85179E+03 -4.23303E+03  3.54707E+03 -1.72233E+03
  3.80104E+03  2.35696E+02  1.83217E+03  2.70945E+03 -5.98690E+02  3.88183E+03 -2.52552E+03  2.46349E+03
