 $NMID ID='MM_0lb_SNR800_7hz_g40_44.RAW', FMTDAT='(8E13.5)'
 TRAMP=1., VOLUME=1. $END
  3.09670E+05  2.87227E+02  3.38399E+05  2.51047E+05  8.49559E+04  3.38757E+05 -1.32245E+05  2.52203E+05
 -1.90804E+05  8.37295E+04 -1.12710E+05 -3.26441E+04  3.58576E+02 -5.02477E+04  5.33027E+04 -1.42406E+02
  3.59657E+04  5.23991E+04 -1.71244E+04  7.62993E+04 -6.16904E+04  6.48333E+04 -8.54772E+04  3.26805E+04
 -8.26771E+04 -1.16930E+04 -5.87886E+04 -5.24878E+04 -1.53954E+04 -7.12312E+04  2.82695E+04 -4.67401E+04
  4.14955E+04  3.52359E+03  1.68833E+04  4.88214E+04 -3.50650E+04  4.88070E+04 -6.83065E+04  3.04421E+01
 -5.50631E+04 -5.80835E+04 -7.65114E+03 -7.97024E+04  3.47867E+04 -5.77478E+04  5.00089E+04 -1.84153E+04
  4.60356E+04  1.18524E+04  3.36472E+04  2.65413E+04  1.58297E+04  3.12819E+04 -6.06158E+03  2.78578E+04
 -2.29013E+04  1.15988E+04 -1.81444E+04 -5.97071E+03  7.44855E+03 -7.09206E+03  2.36692E+04  1.43662E+04
  6.77900E+03  3.82935E+04 -3.43449E+04  3.72647E+04 -6.64211E+04  2.47159E+03 -5.94852E+04 -4.46643E+04
 -1.22904E+04 -6.64781E+04  4.19980E+04 -4.78568E+04  6.20490E+04 -2.56150E+03  3.73286E+04  3.47263E+04
 -5.32793E+03  4.02342E+04 -3.19650E+04  1.97745E+04 -3.42625E+04 -3.20303E+03 -2.01896E+04 -1.23474E+04
 -9.54084E+03 -1.54585E+04 -1.83398E+02 -2.05554E+04  8.63262E+03 -2.40250E+04  1.59311E+04 -1.23679E+04
  1.03671E+04  6.08394E+03 -1.10399E+04  1.30280E+04 -2.40065E+04 -7.09580E+03 -8.66494E+03 -3.78985E+04
  2.60100E+04 -4.74777E+04  5.28087E+04 -2.17908E+04  4.92803E+04  2.14554E+04  1.78623E+04  4.77815E+04
 -1.68491E+04  3.65009E+04 -2.80773E+04  3.05649E+03 -1.18547E+04 -2.98595E+04  2.13169E+04 -3.76325E+04
  4.57869E+04 -1.15933E+04  4.19742E+04  2.54266E+04  2.21878E+04  5.15818E+04 -8.40256E+03  5.75424E+04
 -3.63409E+04  3.91916E+04 -4.87492E+04  1.12374E+04 -4.89241E+04 -1.91723E+04 -2.68510E+04 -4.28609E+04
  8.17592E+03 -4.28212E+04  3.49211E+04 -1.73781E+04  3.30246E+04  1.09135E+04  6.04568E+03  2.15965E+04
 -1.40707E+04  1.00245E+04 -1.13470E+04 -7.26053E+03  5.24413E+03 -1.14193E+04  1.87466E+04  5.55706E+03
  1.54135E+04  2.25165E+04 -5.24432E+03  2.81328E+04 -2.40594E+04  1.49889E+04 -3.23445E+04 -2.58215E+03
 -2.61359E+04 -1.86285E+04 -1.23157E+04 -2.62955E+04  4.63939E+03 -2.75931E+04  2.13099E+04 -2.41739E+04
  3.34940E+04 -1.44746E+04  3.95680E+04  5.56616E+03  2.80748E+04  2.54740E+04  4.37950E+03  4.32302E+04
 -2.03738E+04  3.44490E+04 -3.11782E+04  1.21848E+04 -2.29754E+04 -1.01890E+04 -4.97033E+03 -1.29193E+04
  7.17904E+02 -9.97220E+02 -9.09922E+03  8.51682E+03 -2.14401E+04  5.26671E+03 -2.14219E+04 -1.01140E+04
 -1.28141E+04 -2.43188E+04  6.39269E+03 -2.91417E+04  2.01030E+04 -2.04729E+04  2.39321E+04 -1.76805E+03
  1.57801E+04  1.66441E+04 -1.40583E+03  2.46656E+04 -1.76992E+04  1.40686E+04 -2.47759E+04 -5.04390E+03
 -1.77157E+04 -2.17944E+04 -2.09133E+03 -2.95067E+04  1.29629E+04 -2.42393E+04  2.39743E+04 -1.27473E+04
  2.33308E+04 -4.55596E+02  1.67919E+04  5.16572E+03  9.27748E+03  1.87258E+03  1.32107E+04 -2.18870E+03
  2.34103E+04  2.70791E+03  2.74334E+04  1.89966E+04  1.88019E+04  3.94027E+04 -2.65952E+03  4.71069E+04
 -2.65371E+04  3.97305E+04 -4.46942E+04  2.02287E+04 -4.73749E+04 -3.80494E+03 -3.89375E+04 -2.80695E+04
 -1.52233E+04 -3.98230E+04  1.44234E+04 -3.48518E+04  2.99433E+04 -1.64653E+04  2.56644E+04  8.95503E+03
  8.55944E+03  1.98773E+04 -1.27086E+04  1.69838E+04 -2.15003E+04  2.63885E+03 -1.59193E+04 -1.40472E+04
 -2.11771E+02 -2.02162E+04  1.10448E+04 -1.53119E+04  1.42953E+04 -1.65743E+03  4.12777E+03  9.11970E+03
 -9.36485E+03  4.34650E+03 -9.93936E+03 -7.27812E+03 -2.01397E+03 -1.94788E+04  1.24972E+04 -2.14318E+04
  2.45544E+04 -1.24863E+04  2.88986E+04  3.30033E+03  2.49839E+04  2.01270E+04  1.14892E+04  3.18888E+04
 -6.77988E+03  3.38950E+04 -2.23201E+04  2.10674E+04 -2.46216E+04  4.45395E+03 -1.73056E+04 -6.26763E+03
 -6.64100E+03 -7.97466E+03 -6.59382E+02  2.08646E+02 -3.07475E+03  3.97311E+03 -7.55779E+03  5.49294E+03
 -1.52673E+04 -1.10966E+03 -1.59688E+04 -1.23683E+04 -6.39483E+03 -2.08163E+04  7.01529E+03 -1.72537E+04
  1.44312E+04 -6.81150E+03  9.46864E+03  4.50697E+03 -3.54008E+02  7.05049E+03 -9.05917E+03  6.90305E+01
 -8.43533E+03 -1.09081E+04 -1.20516E+03 -1.76550E+04  9.59879E+03 -1.80340E+04  2.23838E+04 -9.43047E+03
  2.57360E+04  2.92015E+03  1.86620E+04  1.58541E+04  3.60728E+03  2.11904E+04 -1.03924E+04  1.65400E+04
 -1.39965E+04  4.89948E+03 -6.53706E+03 -3.58023E+03  2.66894E+03 -4.83152E+03  9.15886E+03 -1.44028E+03
  8.12492E+03  7.84393E+03  1.47677E+03  1.39450E+04 -9.88758E+03  1.28265E+04 -1.71409E+04  3.22790E+03
 -1.15581E+04 -9.28189E+03  6.14244E+01 -1.43265E+04  9.70236E+03 -7.44843E+03  1.07504E+04  3.81680E+03
  2.53624E+03  1.16535E+04 -9.00209E+03  1.32082E+04 -1.56456E+04  5.38345E+03 -1.62388E+04 -6.46542E+03
 -8.86983E+03 -1.80210E+04  4.78791E+03 -2.06349E+04  1.71000E+04 -1.22495E+04  1.95538E+04  3.45251E+03
  1.13863E+04  1.50580E+04 -1.54726E+03  1.76074E+04 -1.31125E+04  9.87932E+03 -1.45238E+04 -1.46891E+03
 -1.19757E+04 -1.16822E+04 -1.76077E+03 -1.34667E+04  7.16639E+03 -1.05267E+04  9.53638E+03 -4.19505E+03
  5.80622E+03  3.04458E+03 -1.50237E+03  2.13405E+03 -1.24597E+03 -4.00311E+03  3.48087E+03 -8.71956E+03
  1.34158E+04 -6.07224E+03  1.83642E+04  1.95216E+03  1.82351E+04  1.29193E+04  1.10952E+04  2.37913E+04
 -5.88277E+03  2.79361E+04 -2.28387E+04  2.03401E+04 -2.92811E+04  3.90277E+03 -2.36892E+04 -1.05343E+04
 -1.20830E+04 -1.95759E+04 -1.66934E+02 -1.64239E+04  6.09215E+03 -9.79213E+03  5.59293E+03 -5.65411E+03
  4.52074E+03 -3.91413E+03  4.16506E+03 -3.64574E+03  6.78719E+03 -4.57096E+03  9.17148E+03 -2.06304E+03
  1.20147E+04  2.55900E+03  7.41931E+03  1.09726E+04 -2.37109E+03  1.31268E+04 -1.33219E+04  1.01171E+04
 -1.72639E+04 -7.86631E+02 -1.15428E+04 -1.19214E+04 -1.74011E+03 -1.87957E+04  1.00292E+04 -1.87971E+04
  1.90089E+04 -1.00130E+04  2.31014E+04  3.38823E+03  1.56647E+04  1.59124E+04  2.48597E+03  2.06559E+04
 -8.61202E+03  1.65583E+04 -1.26369E+04  5.87143E+03 -8.21919E+03 -1.86132E+03 -3.37441E+03 -2.57316E+03
 -1.67674E+03 -3.74767E+02 -2.90631E+03  3.13805E+03 -7.04748E+03  2.53621E+03 -1.16741E+04 -1.67495E+03
 -9.11333E+03 -1.16148E+04 -7.13102E+02 -1.70723E+04  1.09352E+04 -1.60234E+04  1.75633E+04 -5.12054E+03
  1.73656E+04  9.07623E+03  8.51972E+03  1.60622E+04 -3.74744E+03  1.75035E+04 -1.27864E+04  1.09992E+04
 -1.69535E+04  1.12280E+02 -1.23184E+04 -1.03287E+04 -1.77131E+03 -1.48099E+04  7.50303E+03 -1.11706E+04
  1.10868E+04 -3.43270E+03  7.99242E+03  2.89955E+03  3.25262E+03  4.52477E+03  1.45107E+03  2.52502E+03
  2.64643E+03  1.15170E+03  4.16036E+03  1.81512E+03  5.28902E+03  5.77471E+03  4.33439E+03  9.79518E+03
 -3.03019E+03  1.38572E+04 -1.26494E+04  1.40038E+04 -1.92576E+04  3.51191E+03 -1.92283E+04 -7.77106E+03
 -9.22384E+03 -1.81773E+04  2.21776E+03 -1.98407E+04  1.10820E+04 -1.24187E+04  1.48238E+04 -2.79896E+03
  1.16478E+04  6.59109E+03  2.69541E+03  1.08215E+04 -5.66462E+03  6.96017E+03 -7.59308E+03 -9.48287E+02
 -3.31837E+03 -8.08746E+03  4.59175E+03 -8.20281E+03  7.66416E+03 -3.94913E+03  7.16882E+03  1.39879E+03
  4.51935E+03  3.76973E+03  1.73938E+03  3.34055E+03 -1.15442E+03  2.38399E+03  1.48773E+03 -8.39993E+02
  3.28968E+03 -1.15601E+03  7.74332E+03  2.96322E+03  4.59187E+03  9.77299E+03 -1.83094E+03  1.31021E+04
 -9.28703E+03  9.38962E+03 -1.19718E+04  2.32737E+03 -1.09619E+04 -4.49887E+03 -4.50968E+03 -7.19355E+03
  1.16782E+03 -7.20377E+03  4.89319E+03 -3.36337E+03  4.19157E+03  3.58140E+03 -1.14235E+03  6.35052E+03
 -7.79031E+03  3.56563E+03 -9.18861E+03 -4.19875E+03 -5.54750E+03 -1.01588E+04  1.59112E+03 -1.04459E+04
  6.16072E+03 -6.52782E+03  7.82603E+03 -5.54033E+02  5.97382E+03  2.78247E+03  8.34417E+02  5.54563E+03
 -4.22117E+03  1.72001E+03 -4.36148E+03 -4.24141E+03  1.43560E+03 -8.37868E+03  9.97588E+03 -6.91913E+03
  1.22703E+04  9.80708E+02  1.19591E+04  8.51800E+03  3.05690E+03  1.27773E+04 -4.82717E+03  1.21150E+04
 -1.04600E+04  5.75550E+03 -1.09977E+04 -1.71911E+03 -6.24278E+03 -8.23766E+03  2.07901E+03 -8.01316E+03
  7.68416E+03 -3.35135E+03  6.68576E+03  3.48591E+03  1.98574E+03  7.18327E+03 -1.29036E+03  6.06675E+03
 -3.70798E+03  4.13613E+03 -2.79969E+03  1.24848E+03 -1.73646E+03  1.06445E+03 -1.82913E+03  2.06478E+03
 -3.71133E+03  4.78077E+03 -8.68663E+03  4.62686E+03 -1.27926E+04  4.47300E+02 -1.43564E+04 -8.39708E+03
 -7.08989E+03 -1.68831E+04  3.01784E+03 -1.96371E+04  1.26226E+04 -1.56387E+04  1.86362E+04 -5.83103E+03
  1.77347E+04  4.07398E+03  1.11689E+04  1.20779E+04  1.49841E+03  1.38511E+04 -5.86940E+03  1.05147E+04
 -7.93063E+03  3.68842E+03 -4.80194E+03 -1.57085E+03 -1.11640E+03 -1.15654E+03 -4.62514E+02  1.54059E+02
 -1.91177E+03  4.17516E+02 -2.40473E+03 -4.43595E+02 -1.11964E+03 -3.15868E+03  1.00134E+03 -5.24396E+03
  5.46685E+03 -4.58138E+03  8.62694E+03  2.31961E+02  9.61653E+03  7.46855E+03  2.87460E+03  1.37711E+04
 -6.34549E+03  1.55293E+04 -1.48386E+04  9.13120E+03 -1.69523E+04 -1.03135E+03 -1.28619E+04 -1.05392E+04
 -5.59932E+03 -1.45889E+04  3.39954E+03 -1.35140E+04  9.31918E+03 -7.55749E+03  9.20488E+03  3.36826E+02
  5.00291E+03  4.67186E+03 -7.49662E+02  3.80024E+03 -2.62346E+03 -3.83546E+02 -1.28949E+02 -3.78082E+03
  4.01807E+03 -1.95491E+03  5.75405E+03  1.50110E+03  3.95018E+03  5.49590E+03 -1.60766E+02  7.21962E+03
 -5.96416E+03  6.68124E+03 -9.91526E+03  8.29384E+02 -8.89596E+03 -6.89868E+03 -1.14028E+03 -1.17585E+04
  6.81108E+03 -9.74568E+03  1.11278E+04 -3.51604E+03  1.11316E+04  2.71633E+03  6.35675E+03  8.28159E+03
  1.09620E+03  9.31240E+03 -3.71676E+03  7.84992E+03 -6.07473E+03  3.99049E+03 -5.40055E+03  8.36707E+02
 -2.66538E+03 -6.59924E+02 -2.48567E+03  1.29903E+03 -4.73372E+03  1.51314E+03 -7.63654E+03 -1.43157E+03
 -6.99785E+03 -5.53878E+03 -2.19640E+03 -9.78970E+03  4.31685E+03 -9.57536E+03  8.70539E+03 -5.09157E+03
  1.00655E+04  1.42007E+03  5.46569E+03  7.10987E+03 -1.11440E+03  9.69612E+03 -7.33642E+03  6.29590E+03
