 $NMID ID='MM_0lb_SNR800_18hz_g60_77.RAW', FMTDAT='(8E13.5)'
 TRAMP=1., VOLUME=1. $END
  3.09765E+05  5.98845E+02  3.37526E+05  2.50590E+05  8.45838E+04  3.37812E+05 -1.32625E+05  2.50917E+05
 -1.90344E+05  8.31484E+04 -1.11700E+05 -3.26317E+04  1.30664E+03 -5.02876E+04  5.41175E+04 -3.21426E+02
  3.52817E+04  5.32216E+04 -1.70966E+04  7.51716E+04 -6.09178E+04  6.31813E+04 -8.36661E+04  3.19266E+04
 -8.05080E+04 -1.14468E+04 -5.70564E+04 -5.09414E+04 -1.51216E+04 -6.92908E+04  2.72939E+04 -4.58767E+04
  3.99164E+04  3.77020E+03  1.58782E+04  4.74653E+04 -3.42132E+04  4.71126E+04 -6.67204E+04 -3.95061E+02
 -5.31254E+04 -5.68100E+04 -6.67784E+03 -7.65240E+04  3.38256E+04 -5.47039E+04  4.73887E+04 -1.70898E+04
  4.29859E+04  1.12932E+04  3.16774E+04  2.52505E+04  1.59372E+04  2.88556E+04 -5.13411E+03  2.69881E+04
 -2.21427E+04  1.26915E+04 -1.89729E+04 -4.95532E+03  5.37598E+03 -7.26254E+03  2.19853E+04  1.16820E+04
  7.38286E+03  3.49191E+04 -3.14120E+04  3.47887E+04 -6.25324E+04  2.21679E+03 -5.66982E+04 -4.19586E+04
 -1.22792E+04 -6.26890E+04  3.90659E+04 -4.47541E+04  5.72706E+04 -2.25087E+03  3.32294E+04  3.16152E+04
 -6.07229E+03  3.51917E+04 -2.94562E+04  1.52298E+04 -2.91808E+04 -4.80133E+03 -1.58773E+04 -1.04908E+04
 -7.75345E+03 -1.26083E+04 -4.93272E+02 -1.74055E+04  7.15036E+03 -2.28619E+04  1.51450E+04 -1.32881E+04
  1.14190E+04  4.88741E+03 -7.56997E+03  1.30219E+04 -2.04558E+04 -3.83499E+03 -8.46421E+03 -3.24886E+04
  2.21041E+04 -4.22831E+04  4.69950E+04 -1.92664E+04  4.37733E+04  1.91664E+04  1.52195E+04  4.31212E+04
 -1.57217E+04  3.27133E+04 -2.48017E+04  1.81078E+03 -9.14436E+03 -2.71269E+04  2.06216E+04 -3.26854E+04
  4.01256E+04 -8.58746E+03  3.38573E+04  2.32816E+04  1.72587E+04  4.48874E+04 -7.92502E+03  4.82438E+04
 -3.03592E+04  3.23275E+04 -3.99181E+04  9.38432E+03 -4.06490E+04 -1.57924E+04 -2.26945E+04 -3.65097E+04
  7.14968E+03 -3.64723E+04  3.04234E+04 -1.37574E+04  2.82393E+04  1.08505E+04  3.57849E+03  1.85457E+04
 -1.32894E+04  7.85410E+03 -1.00852E+04 -7.67502E+03  5.91053E+03 -1.04180E+04  1.78495E+04  6.27217E+03
  1.29982E+04  2.19162E+04 -6.27141E+03  2.38019E+04 -2.18147E+04  1.03836E+04 -2.66759E+04 -5.36381E+03
 -1.90081E+04 -1.68819E+04 -7.36754E+03 -1.84897E+04  3.99903E+03 -1.71474E+04  1.42539E+04 -1.63878E+04
  2.37431E+04 -1.24708E+04  3.06150E+04  2.03165E+03  2.26982E+04  1.82510E+04  4.15281E+03  3.46122E+04
 -1.69180E+04  2.91947E+04 -2.69072E+04  1.01005E+04 -2.00877E+04 -1.01638E+04 -4.01729E+03 -1.34670E+04
  2.34093E+03 -3.32613E+03 -3.74021E+03  5.98234E+03 -1.45259E+04  5.03149E+03 -1.46999E+04 -6.16838E+03
 -9.25366E+03 -1.73886E+04  4.86915E+03 -2.10509E+04  1.37913E+04 -1.54485E+04  1.65737E+04 -1.62677E+03
  1.02519E+04  1.18327E+04 -1.03379E+03  1.73079E+04 -1.15146E+04  9.91401E+03 -1.69969E+04 -3.65909E+03
 -1.29797E+04 -1.55281E+04 -1.52231E+03 -2.06688E+04  9.56299E+03 -1.68372E+04  1.72899E+04 -7.80495E+03
  1.59747E+04  4.58666E+02  1.13600E+04  4.03081E+03  5.96507E+03  6.71434E+02  8.29874E+03 -1.56090E+03
  1.54869E+04  2.98176E+03  1.68692E+04  1.35827E+04  1.08087E+04  2.70898E+04 -2.95167E+03  3.00512E+04
 -1.76019E+04  2.35536E+04 -2.79152E+04  1.14589E+04 -2.85901E+04 -2.05729E+03 -2.39623E+04 -1.62708E+04
 -1.08463E+04 -2.34453E+04  8.02154E+03 -2.15242E+04  1.85695E+04 -1.17234E+04  1.67276E+04  4.63547E+03
  6.64656E+03  1.24862E+04 -7.90467E+03  1.13596E+04 -1.47947E+04  2.62934E+03 -1.08996E+04 -8.88507E+03
 -2.00421E+02 -1.35853E+04  6.84341E+03 -1.03183E+04  8.33653E+03 -1.59990E+03  1.65677E+03  5.49837E+03
 -6.11426E+03  1.87571E+03 -4.37443E+03 -5.13719E+03  3.31795E+02 -1.17369E+04  8.58861E+03 -1.16964E+04
  1.41087E+04 -5.75517E+03  1.44488E+04  2.73014E+03  1.24370E+04  1.09688E+04  5.71099E+03  1.64080E+04
 -2.31548E+03  1.84610E+04 -1.12911E+04  1.14000E+04 -1.30938E+04  2.91333E+03 -9.54426E+03 -2.42285E+03
 -5.15797E+03 -3.93695E+03 -7.25244E+02  1.17098E+03 -2.05276E+03  2.11889E+03 -4.33202E+03  3.91690E+03
 -9.01085E+03 -3.16442E+02 -9.54362E+03 -8.03831E+03 -4.12658E+03 -1.23717E+04  3.75192E+03 -9.81351E+03
  8.22315E+03 -3.98273E+03  5.64976E+03  2.66416E+03  7.92875E+02  3.56011E+03 -3.95459E+03 -2.66269E+02
 -4.05526E+03 -5.68920E+03 -8.49590E+02 -8.28501E+03  4.63305E+03 -9.15684E+03  1.12789E+04 -4.91129E+03
  1.30261E+04  9.17095E+02  9.93353E+03  7.17043E+03  1.79290E+03  1.00663E+04 -5.91029E+03  9.06968E+03
 -7.72178E+03  3.11549E+03 -3.96036E+03 -1.40160E+03  1.52356E+03 -2.22736E+03  5.39021E+03 -9.13737E+02
  4.73170E+03  4.01164E+03  9.01603E+02  7.01159E+03 -4.99513E+03  6.94852E+03 -8.84675E+03  2.01175E+03
 -5.59625E+03 -4.14628E+03  8.02268E+01 -7.44133E+03  4.39406E+03 -3.28519E+03  4.01962E+03  1.08386E+03
  6.26316E+02  4.34920E+03 -4.60045E+03  5.39910E+03 -5.82747E+03  2.88144E+03 -5.35464E+03 -1.50254E+03
 -3.31665E+03 -6.94860E+03  1.48234E+03 -8.07838E+03  6.97878E+03 -5.30689E+03  7.67717E+03  1.24032E+03
  5.19350E+03  5.85886E+03 -3.92992E+02  7.95598E+03 -5.56229E+03  4.86168E+03 -6.03252E+03 -3.43838E+02
 -6.54370E+03 -5.62394E+03 -1.03555E+03 -5.67208E+03  2.86270E+03 -5.21941E+03  3.21822E+03 -2.70513E+03
  3.29508E+03  4.80684E+02  9.99794E+01  1.51458E+03  4.53838E+02 -2.67367E+02  4.49233E+02 -2.25219E+03
  4.27283E+03 -1.26638E+03  6.50966E+03  1.10724E+03  6.20881E+03  3.93974E+03  5.74551E+03  8.67039E+03
 -1.74495E+03  9.82586E+03 -8.85074E+03  7.56246E+03 -1.13795E+04  1.57739E+03 -8.98003E+03 -2.94701E+03
 -4.91710E+03 -7.60385E+03 -4.78785E+02 -5.80458E+03  2.56867E+03 -2.63220E+03  2.05991E+03 -2.44611E+03
  1.38115E+03 -1.72926E+03  2.35388E+03 -2.42071E+03  3.91819E+03 -1.55406E+03  4.00030E+03  9.93445E+01
  4.87924E+03  9.91268E+02  1.43482E+03  3.92310E+03 -1.68548E+03  3.51537E+03 -5.04160E+03  3.10231E+03
 -5.48454E+03 -8.19186E+02 -2.48213E+03 -3.98270E+03  1.82994E+02 -6.01728E+03  3.66902E+03 -6.11565E+03
  5.88324E+03 -3.39200E+03  7.61844E+03  2.06196E+02  5.55880E+03  4.93735E+03  1.35268E+03  6.84315E+03
 -2.26372E+03  6.48362E+03 -3.93273E+03  2.11801E+03 -2.21724E+03 -1.15025E+03 -9.74334E+02 -8.11060E+02
 -5.32152E+02  5.31174E+02 -1.04106E+03  2.17908E+03 -3.02811E+03  1.01984E+03 -4.46251E+03 -2.91678E+02
 -1.86911E+03 -4.43747E+03  4.86294E+02 -5.43895E+03  3.38796E+03 -4.70664E+03  4.16623E+03 -1.21194E+03
  4.82677E+03  2.67984E+03  2.12389E+03  4.03076E+03 -9.92022E+02  4.79954E+03 -3.16279E+03  2.94499E+03
 -4.73470E+03  4.20037E+02 -3.86331E+03 -2.99823E+03 -1.99496E+02 -3.53069E+03  2.17609E+03 -3.13614E+03
  2.92385E+03 -1.77763E+03  1.71195E+03  4.44701E+02  6.86637E+02  2.08374E+03  8.92943E+02  5.06198E+02
  1.72870E+03  4.24808E+02  1.31922E+03  1.04028E+03  1.04190E+03  2.09668E+03  1.66752E+03  2.03725E+03
 -1.40758E+03  3.42178E+03 -2.75943E+03  4.65549E+03 -3.76220E+03  1.32875E+03 -4.45371E+03 -9.75436E+02
 -2.13117E+03 -4.02852E+03  7.76190E+02 -5.25691E+03  1.93680E+03 -2.66274E+03  3.67589E+03 -1.17815E+03
  2.65345E+03  1.73050E+03  5.49180E+02  2.74232E+03 -9.75308E+02  1.27651E+03 -1.28217E+03 -1.69864E+02
 -8.05745E+02 -1.65276E+03  1.58997E+03 -1.32731E+03  1.42601E+03 -1.22840E+03  1.86489E+03  3.52749E+02
  9.45772E+02  6.13503E+02  8.16889E+02 -1.73496E+02 -5.68087E+02  6.79762E+02  1.62161E+03 -3.09561E+02
  8.50244E+01 -8.22518E+01  1.84747E+03  4.68360E+02  5.13464E+02  2.61249E+03 -3.78311E+02  2.85891E+03
 -2.00227E+03  1.15065E+03 -2.33832E+03  3.90898E+02 -2.46164E+03 -6.61157E+02 -3.55723E+02 -1.32332E+03
  2.68776E+02 -1.37965E+03  9.83831E+02 -9.77603E+02  8.65357E+02  1.15398E+03 -5.55040E+02  1.43085E+03
 -1.36253E+03  7.38144E+02 -1.39140E+03 -1.41833E+03 -7.86625E+02 -2.31009E+03  5.91161E+01 -1.69847E+03
  5.54144E+02 -7.41674E+02  6.66059E+02  1.69048E+02  1.17408E+03  1.47543E+02  1.56142E+02  9.72854E+02
 -7.62600E+02 -7.26438E+01 -9.40875E+02 -3.62423E+02  5.69197E+02 -9.62247E+02  1.84370E+03 -8.90327E+02
  1.33409E+03  5.30816E+01  2.84274E+03  1.09903E+03  9.55692E+02  1.79544E+03 -4.47328E+02  1.80253E+03
 -1.63029E+03  1.65548E+02 -1.83804E+03 -1.91713E+02 -1.03467E+03 -1.29908E+03  4.14305E+02 -9.17631E+02
  1.67088E+03 -8.73293E+02  1.05545E+03  7.06827E+02  8.51652E+00  1.60291E+03  2.33988E+02  1.14524E+03
 -2.64493E+02  1.24822E+03 -3.92670E+02  3.38511E+02  8.58146E+00  6.33801E+02 -9.04292E+02  6.01690E+02
 -7.07009E+02  1.09281E+03 -1.89287E+03  3.01176E+02 -1.62728E+03  2.11606E+02 -2.75841E+03 -1.27292E+03
 -1.31228E+03 -2.35292E+03  5.87951E+02 -2.87638E+03  1.33189E+03 -2.38312E+03  3.09041E+03 -8.25694E+02
  2.67014E+03  2.20976E+02  8.80347E+02  1.53009E+03 -8.06888E+02  1.65370E+03 -7.86733E+02  1.33298E+03
 -1.12988E+03  6.00811E+02 -4.77276E+02 -4.66676E+02 -7.59410E+02  1.34696E+02 -7.09269E+02 -1.91938E+01
 -1.14162E+03  9.67035E+01 -6.34651E+02  2.13887E+02  1.83897E+02 -5.68610E+02 -5.72124E+02 -1.10652E+03
  1.52684E+03 -9.85484E+02  2.92545E+02  2.08198E+02  1.42278E+03  1.05218E+03 -1.02201E+02  1.54383E+03
 -1.11954E+03  2.33339E+03 -1.77112E+03  1.18047E+03 -1.92532E+03 -3.77995E+02 -1.05727E+03 -1.53018E+03
 -7.86184E+02 -1.25585E+03  4.25784E+02 -1.16852E+03  4.54428E+02 -8.53108E+02  8.29265E+02  1.13072E+02
  2.87840E+02  4.91463E+02  1.28628E+02  4.11755E+02 -3.67335E+02  1.97638E+02 -5.98063E+01 -2.04720E+02
  4.96593E+02  2.35704E+02  1.78804E+02  7.38050E+02  1.88660E+02  3.11103E+02  3.73235E+02  5.28568E+02
 -6.03254E+02  8.05049E+02 -4.42054E+02 -1.61828E+02 -8.62243E+02 -1.31325E+02  1.67331E+02 -1.29960E+03
  1.99792E+02 -8.03947E+02  4.47724E+02 -1.50809E+01  1.08050E+03 -7.05287E+02  3.38534E+02  8.41560E+02
  3.15929E+02  6.26385E+02 -3.50501E+02  6.73409E+02 -5.46757E+02  4.45171E+02 -3.53210E+02  1.47493E+02
 -1.55457E+02 -3.96519E+02 -4.58243E+02  1.29403E+02 -6.46742E+02  2.50811E+02 -7.90748E+02 -2.36449E+02
 -9.73632E+02  1.83427E+02 -4.87292E+02 -7.52498E+02  6.83274E+02 -1.74329E+03  8.10709E+02 -3.33239E+02
  7.32340E+02 -1.83219E+02 -3.16671E+02  2.89838E+02 -7.46867E+01  9.06149E+02 -2.16488E+02  2.91637E+02
