 $NMID ID='MM_0lb_SNR800_15hz_g55_76.RAW', FMTDAT='(8E13.5)'
 TRAMP=1., VOLUME=1. $END
  3.10087E+05  4.10668E+02  3.37705E+05  2.50574E+05  8.46890E+04  3.37937E+05 -1.32942E+05  2.51038E+05
 -1.90176E+05  8.33221E+04 -1.11746E+05 -3.27502E+04  7.56371E+02 -5.07045E+04  5.38331E+04  2.08901E+02
  3.54405E+04  5.30040E+04 -1.70251E+04  7.55598E+04 -6.09301E+04  6.36404E+04 -8.41665E+04  3.18532E+04
 -8.09112E+04 -1.14776E+04 -5.74000E+04 -5.13880E+04 -1.51554E+04 -6.95075E+04  2.75531E+04 -4.56842E+04
  4.02326E+04  3.71450E+03  1.63323E+04  4.77447E+04 -3.42035E+04  4.73650E+04 -6.65687E+04 -1.31379E+02
 -5.36459E+04 -5.70515E+04 -7.00700E+03 -7.69937E+04  3.40922E+04 -5.51015E+04  4.79235E+04 -1.71643E+04
  4.35505E+04  1.12841E+04  3.20804E+04  2.53696E+04  1.61282E+04  2.93841E+04 -5.34029E+03  2.72230E+04
 -2.20140E+04  1.24198E+04 -1.88779E+04 -4.96808E+03  5.62993E+03 -7.17010E+03  2.24401E+04  1.23052E+04
  7.21836E+03  3.54508E+04 -3.19599E+04  3.55832E+04 -6.31706E+04  2.02720E+03 -5.68430E+04 -4.29121E+04
 -1.27256E+04 -6.31624E+04  4.03831E+04 -4.54614E+04  5.84621E+04 -2.37299E+03  3.41546E+04  3.25708E+04
 -5.92541E+03  3.61267E+04 -3.01118E+04  1.59984E+04 -3.02267E+04 -4.38244E+03 -1.68406E+04 -1.10057E+04
 -8.09017E+03 -1.31832E+04 -7.12172E+02 -1.80458E+04  7.53574E+03 -2.28892E+04  1.57053E+04 -1.31579E+04
  1.13676E+04  4.97991E+03 -7.99760E+03  1.28034E+04 -2.14325E+04 -4.74997E+03 -8.10007E+03 -3.37663E+04
  2.27226E+04 -4.34501E+04  4.83884E+04 -1.95561E+04  4.51108E+04  1.96319E+04  1.58214E+04  4.43530E+04
 -1.58498E+04  3.35440E+04 -2.53972E+04  1.91411E+03 -9.67645E+03 -2.76989E+04  2.10661E+04 -3.38384E+04
  4.12233E+04 -8.94538E+03  3.57559E+04  2.35100E+04  1.82541E+04  4.64121E+04 -7.83083E+03  5.02996E+04
 -3.15506E+04  3.39384E+04 -4.20456E+04  9.74603E+03 -4.26250E+04 -1.64562E+04 -2.34526E+04 -3.78505E+04
  7.71636E+03 -3.78983E+04  3.16378E+04 -1.47793E+04  2.92227E+04  1.10234E+04  3.90367E+03  1.91477E+04
 -1.34920E+04  8.15494E+03 -1.03347E+04 -7.92348E+03  6.23899E+03 -1.08775E+04  1.77624E+04  5.98977E+03
  1.36026E+04  2.19534E+04 -6.21305E+03  2.50965E+04 -2.19078E+04  1.16564E+04 -2.77617E+04 -4.80034E+03
 -2.04978E+04 -1.75254E+04 -8.36131E+03 -2.01981E+04  4.19637E+03 -1.95374E+04  1.56361E+04 -1.86235E+04
  2.60182E+04 -1.28309E+04  3.22297E+04  2.90000E+03  2.36144E+04  1.97704E+04  4.01497E+03  3.62644E+04
 -1.75723E+04  3.05323E+04 -2.82000E+04  1.01545E+04 -2.06132E+04 -1.00799E+04 -4.31159E+03 -1.34964E+04
  1.62837E+03 -2.93993E+03 -4.80567E+03  6.50128E+03 -1.60376E+04  5.26116E+03 -1.59525E+04 -6.79995E+03
 -1.00992E+04 -1.89049E+04  5.18121E+03 -2.30119E+04  1.51782E+04 -1.64873E+04  1.79854E+04 -1.42820E+03
  1.12233E+04  1.28170E+04 -9.09068E+02  1.90181E+04 -1.29143E+04  1.08479E+04 -1.86833E+04 -3.81046E+03
 -1.37738E+04 -1.71251E+04 -1.67472E+03 -2.28152E+04  1.03632E+04 -1.88639E+04  1.89731E+04 -9.43197E+03
  1.75497E+04  1.77797E+02  1.29755E+04  4.09822E+03  6.56401E+03  1.09976E+03  9.34060E+03 -1.72746E+03
  1.71961E+04  3.03090E+03  1.90915E+04  1.51393E+04  1.26963E+04  2.98980E+04 -3.04693E+03  3.35112E+04
 -1.96939E+04  2.71123E+04 -3.12761E+04  1.34790E+04 -3.31895E+04 -2.51127E+03 -2.75466E+04 -1.88659E+04
 -1.17041E+04 -2.72388E+04  9.79567E+03 -2.46210E+04  2.12246E+04 -1.26558E+04  1.90487E+04  4.98682E+03
  7.21807E+03  1.41863E+04 -8.96717E+03  1.25281E+04 -1.60163E+04  2.59631E+03 -1.23413E+04 -9.97155E+03
 -1.33692E+02 -1.48793E+04  7.99704E+03 -1.12139E+04  1.01267E+04 -1.28600E+03  2.15203E+03  6.42373E+03
 -6.93056E+03  2.74236E+03 -6.08491E+03 -5.56876E+03 -1.93313E+02 -1.31049E+04  9.03932E+03 -1.37029E+04
  1.62745E+04 -7.16371E+03  1.75179E+04  2.99559E+03  1.53629E+04  1.30888E+04  7.16731E+03  1.97537E+04
 -2.80642E+03  2.17877E+04 -1.37898E+04  1.37339E+04 -1.54065E+04  3.38102E+03 -1.10444E+04 -3.50661E+03
 -5.13907E+03 -4.85366E+03 -7.55464E+02  1.18459E+03 -2.09066E+03  2.52870E+03 -5.20175E+03  4.26192E+03
 -1.05704E+04 -5.55609E+02 -1.09084E+04 -8.88638E+03 -4.60960E+03 -1.43282E+04  4.69431E+03 -1.12374E+04
  9.35896E+03 -4.90812E+03  6.81621E+03  2.78906E+03  2.83649E+01  4.02235E+03 -5.10857E+03 -2.03330E+02
 -4.86755E+03 -6.61278E+03 -9.42295E+02 -1.01075E+04  5.89114E+03 -1.08947E+04  1.33739E+04 -5.83329E+03
  1.62307E+04  1.32152E+03  1.17650E+04  9.09944E+03  2.00395E+03  1.23253E+04 -6.54821E+03  1.10835E+04
 -8.45725E+03  3.25434E+03 -4.47482E+03 -2.06496E+03  1.76937E+03 -2.84421E+03  6.17933E+03 -9.34921E+02
  5.39764E+03  4.90604E+03  9.89412E+02  8.87969E+03 -6.20801E+03  8.33396E+03 -1.07588E+04  1.71801E+03
 -6.83229E+03 -5.09321E+03  2.99429E+02 -9.06228E+03  5.17559E+03 -4.62185E+03  5.47533E+03  1.53448E+03
  1.17849E+03  5.48055E+03 -5.71541E+03  6.91545E+03 -7.81797E+03  3.41939E+03 -7.91441E+03 -2.56645E+03
 -4.64051E+03 -9.21451E+03  1.88517E+03 -1.07816E+04  9.11140E+03 -6.78402E+03  9.98010E+03  1.58633E+03
  6.15956E+03  7.93744E+03 -4.11740E+02  1.02036E+04 -7.44654E+03  5.67861E+03 -7.85054E+03 -5.09725E+02
 -7.64501E+03 -7.21942E+03 -1.30887E+03 -7.29089E+03  3.73156E+03 -6.57774E+03  4.30848E+03 -3.41799E+03
  3.36424E+03  8.78039E+02 -2.35181E+02  1.50746E+03  1.29596E+02 -9.98743E+02  1.04648E+03 -3.39973E+03
  6.20747E+03 -2.09122E+03  8.85023E+03  9.23432E+02  8.88969E+03  5.70467E+03  6.68585E+03  1.16952E+04
 -2.45002E+03  1.31857E+04 -1.16802E+04  1.00211E+04 -1.54398E+04  1.75697E+03 -1.18565E+04 -4.53694E+03
 -6.43717E+03 -9.73962E+03 -3.96476E+02 -8.01696E+03  2.93393E+03 -4.20048E+03  2.61018E+03 -3.35611E+03
  1.71523E+03 -1.91105E+03  2.69259E+03 -2.53803E+03  4.34294E+03 -2.26361E+03  5.23963E+03 -1.47625E+02
  6.50255E+03  1.83107E+03  2.77692E+03  5.48338E+03 -1.68709E+03  5.55886E+03 -6.39000E+03  4.12596E+03
 -7.90078E+03 -9.91504E+02 -3.98034E+03 -5.13492E+03 -6.55568E+01 -8.31740E+03  4.66966E+03 -8.46804E+03
  8.29415E+03 -4.89344E+03  1.02402E+04  9.92883E+02  7.16514E+03  7.02192E+03  1.29028E+03  9.81310E+03
 -3.50036E+03  8.35802E+03 -5.45782E+03  3.04675E+03 -3.28273E+03 -1.16792E+03 -1.25017E+03 -1.01456E+03
 -7.17377E+02  5.63281E+02 -1.31016E+03  2.36989E+03 -3.40452E+03  1.03384E+03 -5.63980E+03 -6.38356E+02
 -3.18362E+03 -6.02410E+03  7.56112E+02 -7.54191E+03  4.88637E+03 -7.00000E+03  6.48625E+03 -1.92970E+03
  7.10749E+03  3.55936E+03  3.14543E+03  6.00452E+03 -1.50060E+03  7.33586E+03 -5.14139E+03  4.74886E+03
 -6.56331E+03  6.77240E+02 -5.18459E+03 -4.43585E+03 -4.24907E+02 -5.50782E+03  2.99611E+03 -4.73123E+03
  4.61219E+03 -1.78375E+03  3.22612E+03  9.21358E+02  9.96576E+02  2.48584E+03  9.19898E+02  8.00736E+02
  2.24367E+03  8.75962E+02  1.58891E+03  1.16304E+03  1.91411E+03  3.18449E+03  1.82378E+03  3.47720E+03
 -1.76233E+03  5.47111E+03 -4.52704E+03  6.14779E+03 -6.07632E+03  1.42066E+03 -7.16507E+03 -1.74384E+03
 -3.17389E+03 -6.49340E+03  1.14441E+03 -7.88946E+03  3.92377E+03 -4.55781E+03  5.67347E+03 -1.49571E+03
  4.14560E+03  2.83392E+03  8.30248E+02  3.73081E+03 -1.53919E+03  2.24698E+03 -2.30142E+03 -5.18867E+02
 -1.13634E+03 -2.80075E+03  1.85298E+03 -2.81886E+03  2.76868E+03 -1.97667E+03  2.42614E+03  7.65798E+02
  1.43855E+03  1.06571E+03  8.12056E+02  3.54262E+02 -7.56056E+02  1.42027E+03  1.63773E+03 -2.36516E+02
  6.63979E+02 -6.33979E+02  2.82157E+03  1.14896E+03  9.13286E+02  3.71807E+03 -5.20336E+02  4.67265E+03
 -3.03443E+03  2.47712E+03 -4.11301E+03  5.49356E+02 -3.91823E+03 -1.63717E+03 -8.56050E+02 -2.11118E+03
  7.33657E+02 -2.07495E+03  1.33583E+03 -1.38253E+03  1.71798E+03  1.64034E+03 -7.68893E+02  2.08153E+03
 -2.69168E+03  1.46347E+03 -2.59011E+03 -1.76377E+03 -1.94379E+03 -3.84486E+03  3.34476E+02 -3.26267E+03
  1.82427E+03 -1.36303E+03  2.25867E+03 -2.40839E+01  2.20741E+03  6.67821E+02  4.46280E+01  2.23059E+03
 -1.27489E+03 -1.31445E+02 -1.39726E+03 -7.87626E+02  8.35305E+02 -2.05519E+03  3.10003E+03 -1.81279E+03
  3.22622E+03  2.51076E+02  4.41941E+03  1.95781E+03  1.57604E+03  3.32298E+03 -1.00506E+03  3.32414E+03
 -3.01284E+03  1.33688E+03 -3.42489E+03 -5.70783E+02 -1.59162E+03 -2.58522E+03  5.19892E+02 -1.82939E+03
  2.61444E+03 -1.20146E+03  1.98685E+03  1.11153E+03  5.08226E+02  2.39721E+03  9.22033E+01  1.81081E+03
 -1.14368E+03  1.63175E+03 -7.93093E+02  5.15113E+02 -6.52585E+02  3.10927E+02 -7.46190E+02  9.95419E+02
 -9.64531E+02  1.59490E+03 -2.55982E+03  1.08004E+03 -3.51386E+03  2.54482E+02 -4.59599E+03 -2.54675E+03
 -2.08757E+03 -4.31537E+03  1.02726E+03 -5.43139E+03  2.56637E+03 -4.09064E+03  5.36416E+03 -1.74983E+03
  4.48153E+03  5.04743E+02  2.54396E+03  3.28513E+03 -3.12547E+02  3.09043E+03 -1.48515E+03  2.56794E+03
 -1.95758E+03  1.04915E+03 -1.07711E+03 -6.51463E+02 -4.50091E+02 -7.92192E+01 -4.53059E+02  3.35939E+00
 -1.35978E+03 -6.59507E+01 -1.10661E+03 -9.15794E+01  2.46142E+01 -1.21765E+03 -1.21355E+02 -1.30090E+03
  1.98906E+03 -1.03797E+03  1.91305E+03  4.64074E+02  2.45247E+03  2.03131E+03 -1.22686E+02  3.04839E+03
 -1.90143E+03  4.24890E+03 -3.63869E+03  2.60988E+03 -4.10648E+03 -4.25461E+02 -2.94740E+03 -2.30221E+03
 -1.84317E+03 -3.13147E+03  4.45601E+02 -2.84344E+03  2.02030E+03 -1.29073E+03  2.25412E+03 -1.09335E+02
  1.37627E+03  1.10173E+03 -2.36833E+02  7.60926E+02 -8.29301E+02  1.07471E+00 -1.75611E+02 -6.45772E+02
  1.19300E+03  6.52296E+01  9.64649E+02  6.88706E+02  5.60652E+02  1.36944E+03  3.80500E+02  1.27592E+03
 -1.38541E+03  1.19803E+03 -1.70279E+03  1.76730E+02 -1.52805E+03 -1.28813E+03 -1.33994E+02 -2.10699E+03
  1.39969E+03 -1.85777E+03  1.82313E+03 -4.26544E+02  2.22869E+03  1.90839E+02  1.40367E+03  1.72982E+03
  7.02408E+02  1.86927E+03 -3.91986E+02  1.65370E+03 -1.14816E+03  1.23143E+03 -1.19262E+03  8.69701E+01
 -4.63768E+02 -1.33252E+01 -8.15853E+02  3.61697E+02 -9.58979E+02  3.27783E+02 -1.48712E+03 -4.29726E+02
 -1.44624E+03 -3.34181E+02 -5.20606E+02 -2.07771E+03  1.03149E+03 -2.61962E+03  1.54459E+03 -8.76127E+02
  1.68242E+03  7.37761E+01  6.36988E+02  8.77978E+02  3.07020E+01  1.82685E+03 -1.37943E+03  1.35583E+03
