 $NMID ID='MM_0lb_SNR800_18hz_g40_38.RAW', FMTDAT='(8E13.5)'
 TRAMP=1., VOLUME=1. $END
  3.09991E+05  4.71907E+02  3.37397E+05  2.50508E+05  8.40922E+04  3.37368E+05 -1.32767E+05  2.50066E+05
 -1.89388E+05  8.22985E+04 -1.10743E+05 -3.25945E+04  1.41768E+03 -5.05456E+04  5.37646E+04  2.92012E+02
  3.49505E+04  5.25992E+04 -1.69285E+04  7.48216E+04 -6.04671E+04  6.24400E+04 -8.29826E+04  3.13199E+04
 -7.93720E+04 -1.11243E+04 -5.60811E+04 -5.00738E+04 -1.46822E+04 -6.84074E+04  2.66692E+04 -4.49656E+04
  3.88769E+04  4.13316E+03  1.54804E+04  4.72518E+04 -3.37506E+04  4.60346E+04 -6.50531E+04 -7.39641E+02
 -5.21293E+04 -5.60637E+04 -6.10436E+03 -7.50358E+04  3.31299E+04 -5.28176E+04  4.61319E+04 -1.61474E+04
  4.12286E+04  1.10206E+04  3.06415E+04  2.42031E+04  1.58412E+04  2.80619E+04 -4.61050E+03  2.68761E+04
 -2.12817E+04  1.30151E+04 -1.91522E+04 -4.36049E+03  4.03478E+03 -7.29547E+03  2.12058E+04  1.07932E+04
  7.53592E+03  3.31610E+04 -3.03622E+04  3.39143E+04 -6.07521E+04  1.96419E+03 -5.52444E+04 -4.10006E+04
 -1.23408E+04 -6.03868E+04  3.78108E+04 -4.31535E+04  5.51287E+04 -1.89333E+03  3.16899E+04  3.03591E+04
 -6.61466E+03  3.23945E+04 -2.79838E+04  1.30037E+04 -2.71626E+04 -5.46897E+03 -1.41595E+04 -1.00544E+04
 -7.15004E+03 -1.11927E+04 -1.21757E+03 -1.61902E+04  6.31543E+03 -2.24121E+04  1.50058E+04 -1.40707E+04
  1.23299E+04  4.10746E+03 -6.04115E+03  1.31405E+04 -1.94066E+04 -2.14457E+03 -8.41806E+03 -3.00236E+04
  2.03909E+04 -4.03040E+04  4.43542E+04 -1.84863E+04  4.18018E+04  1.79892E+04  1.41726E+04  4.15410E+04
 -1.54243E+04  3.09057E+04 -2.30717E+04  1.11522E+03 -8.03369E+03 -2.63505E+04  2.05170E+04 -3.08883E+04
  3.77618E+04 -7.23708E+03  3.11229E+04  2.26711E+04  1.52821E+04  4.20086E+04 -7.71647E+03  4.48373E+04
 -2.77422E+04  2.94688E+04 -3.70093E+04  8.38879E+03 -3.79537E+04 -1.49422E+04 -2.14295E+04 -3.40218E+04
  6.62439E+03 -3.37788E+04  2.89974E+04 -1.25110E+04  2.67622E+04  1.07297E+04  2.68704E+03  1.78003E+04
 -1.29539E+04  7.17567E+03 -9.54409E+03 -7.56139E+03  6.03069E+03 -9.99501E+03  1.72517E+04  6.27468E+03
  1.22449E+04  2.18192E+04 -6.86488E+03  2.31560E+04 -2.13997E+04  9.02286E+03 -2.49481E+04 -6.28665E+03
 -1.63267E+04 -1.64275E+04 -5.43649E+03 -1.65139E+04  3.63066E+03 -1.42830E+04  1.23675E+04 -1.41529E+04
  2.11435E+04 -1.15676E+04  2.76952E+04  1.08499E+03  2.09776E+04  1.61698E+04  3.98431E+03  3.19866E+04
 -1.60470E+04  2.76190E+04 -2.58697E+04  9.31647E+03 -1.96907E+04 -1.05642E+04 -3.91000E+03 -1.41235E+04
  2.86752E+03 -4.18739E+03 -2.61845E+03  5.34414E+03 -1.26280E+04  5.31505E+03 -1.33162E+04 -4.94265E+03
 -8.77420E+03 -1.48748E+04  4.29862E+03 -1.93081E+04  1.26353E+04 -1.37761E+04  1.44768E+04 -1.38757E+03
  8.48219E+03  1.06472E+04 -8.75947E+02  1.56565E+04 -1.05621E+04  8.57422E+03 -1.51892E+04 -3.43578E+03
 -1.14904E+04 -1.42153E+04 -1.40847E+03 -1.87572E+04  8.63054E+03 -1.51850E+04  1.58051E+04 -7.37875E+03
  1.42945E+04  7.02788E+02  1.03421E+04  3.62245E+03  4.84244E+03  1.85379E+02  7.48079E+03 -1.32112E+03
  1.36197E+04  2.55732E+03  1.45981E+04  1.26076E+04  8.93780E+03  2.47609E+04 -3.22398E+03  2.62616E+04
 -1.55217E+04  1.99952E+04 -2.41754E+04  9.00033E+03 -2.42773E+04 -1.80814E+03 -2.12442E+04 -1.38846E+04
 -1.01277E+04 -2.01900E+04  6.98707E+03 -1.90741E+04  1.63252E+04 -1.09918E+04  1.57451E+04  3.76067E+03
  6.52523E+03  1.12456E+04 -7.19277E+03  1.04011E+04 -1.32086E+04  2.66102E+03 -9.97439E+03 -7.59145E+03
 -1.25505E+02 -1.22399E+04  5.96471E+03 -9.38065E+03  7.83942E+03 -1.52152E+03  1.35567E+03  4.61139E+03
 -5.57494E+03  1.34446E+03 -3.61929E+03 -4.55042E+03  4.67620E+02 -1.00465E+04  7.74611E+03 -9.86406E+03
  1.22077E+04 -4.50200E+03  1.18902E+04  2.38238E+03  1.00681E+04  9.30167E+03  4.90764E+03  1.37673E+04
 -1.75470E+03  1.58641E+04 -9.69234E+03  9.97116E+03 -1.10542E+04  2.82117E+03 -8.40314E+03 -1.67567E+03
 -4.40661E+03 -3.16680E+03 -7.45186E+02  1.69278E+03 -1.82523E+03  2.24450E+03 -3.55890E+03  3.39109E+03
 -7.97104E+03 -5.42011E+02 -8.65511E+03 -7.33602E+03 -3.59018E+03 -1.18180E+04  3.76297E+03 -8.49483E+03
  7.01974E+03 -3.65433E+03  5.32078E+03  1.98126E+03  6.16306E+02  3.13222E+03 -3.55713E+03  6.19466E+01
 -3.52202E+03 -5.34729E+03 -7.55388E+02 -7.09814E+03  3.72029E+03 -7.91775E+03  9.72403E+03 -3.87236E+03
  1.18149E+04  6.20427E+02  8.60894E+03  5.87059E+03  1.75450E+03  8.72234E+03 -5.25339E+03  8.29567E+03
 -6.81033E+03  2.75136E+03 -3.74851E+03 -1.18618E+03  1.32287E+03 -1.82129E+03  4.75397E+03 -9.03984E+02
  4.10668E+03  3.40877E+03  1.21145E+03  6.40965E+03 -4.51840E+03  6.39684E+03 -7.86025E+03  2.03207E+03
 -4.82275E+03 -3.47893E+03  4.99961E+02 -6.47835E+03  3.73897E+03 -3.40826E+03  3.58060E+03  1.19441E+03
  2.12510E+02  3.22235E+03 -3.75500E+03  4.71737E+03 -4.87036E+03  2.74401E+03 -4.38299E+03 -1.16213E+03
 -3.07787E+03 -6.16385E+03  1.54914E+03 -6.90676E+03  6.06569E+03 -4.81386E+03  6.46522E+03  8.41070E+02
  4.75242E+03  5.25774E+03  3.12541E+02  7.10830E+03 -5.16378E+03  4.32448E+03 -5.30956E+03 -4.33231E+02
 -5.65965E+03 -5.20090E+03 -1.35732E+03 -4.97774E+03  2.36772E+03 -4.83558E+03  3.09295E+03 -2.82183E+03
  2.82091E+03  6.42461E+01  2.49618E+02  1.36190E+03  5.40391E+02 -2.34083E+02  5.53372E+01 -1.61436E+03
  3.69138E+03 -6.01443E+02  5.25834E+03  7.36420E+02  5.51350E+03  3.34380E+03  5.25016E+03  7.18448E+03
 -1.32542E+03  8.73505E+03 -7.80207E+03  6.49807E+03 -9.79711E+03  1.00727E+03 -7.87075E+03 -2.49093E+03
 -4.03823E+03 -6.49781E+03 -5.53300E+02 -5.32498E+03  2.09280E+03 -2.15491E+03  1.75000E+03 -2.11980E+03
  1.32013E+03 -1.55594E+03  2.22289E+03 -2.44662E+03  3.78617E+03 -1.41429E+03  3.73677E+03  3.61893E+02
  4.41265E+03  1.14905E+03  1.41997E+03  3.47243E+03 -1.61558E+03  3.17715E+03 -4.51263E+03  2.58329E+03
 -4.72470E+03 -8.85657E+02 -1.67579E+03 -3.48276E+03  4.93318E+02 -5.13930E+03  3.25907E+03 -5.58735E+03
  5.38277E+03 -3.46225E+03  6.70861E+03  3.03442E+02  4.97878E+03  4.17689E+03  9.55219E+02  5.96619E+03
 -2.27084E+03  5.98199E+03 -3.22539E+03  1.83222E+03 -2.20291E+03 -1.10727E+03 -5.36563E+02 -5.37797E+02
 -4.70018E+02  2.51899E+02 -1.14905E+03  1.88679E+03 -2.87311E+03  1.19367E+03 -3.97907E+03 -5.57867E+02
 -1.62227E+03 -4.06979E+03  8.23389E+02 -4.79672E+03  2.79349E+03 -4.43238E+03  3.61704E+03 -1.35095E+03
  4.28607E+03  2.31058E+03  1.99817E+03  3.35723E+03 -4.87022E+02  4.48838E+03 -2.56306E+03  2.73716E+03
 -3.73643E+03  5.07298E+02 -3.56319E+03 -2.30109E+03 -1.13820E+02 -3.49955E+03  1.63796E+03 -2.52869E+03
  2.66418E+03 -1.27386E+03  2.00702E+03  2.50566E+02  5.08484E+02  1.83679E+03  7.95486E+02  5.95315E+02
  1.66809E+03  6.30433E+02  1.23069E+03  1.14382E+03  1.16571E+03  2.09149E+03  1.35180E+03  1.56874E+03
 -1.17523E+03  3.24911E+03 -2.77267E+03  4.04724E+03 -3.19048E+03  1.56360E+03 -4.35860E+03 -7.48706E+02
 -1.83692E+03 -3.61925E+03  7.08370E+02 -4.68058E+03  2.04841E+03 -2.45931E+03  3.35809E+03 -1.28097E+03
  2.63230E+03  1.77991E+03  5.91778E+02  2.25225E+03 -6.98757E+02  1.32828E+03 -1.06714E+03 -8.68847E+01
 -8.25679E+02 -1.42575E+03  1.21029E+03 -1.61470E+03  1.00275E+03 -1.05165E+03  1.46974E+03  4.62297E+02
  7.90204E+02  4.51213E+02  7.43762E+02 -1.85334E+02 -3.46958E+02  6.30616E+02  1.65537E+03 -8.00367E+01
  5.56489E+02 -3.47222E+02  2.11084E+03  7.67625E+02  5.20312E+02  2.42045E+03 -2.00335E+02  2.97195E+03
 -1.78323E+03  1.29385E+03 -2.19645E+03  3.85686E+02 -2.56714E+03 -9.69348E+02 -1.29951E+02 -9.56323E+02
  4.24768E+02 -1.48043E+03  9.20664E+02 -9.20054E+02  6.08066E+02  1.47668E+03 -6.52251E+02  1.36680E+03
 -1.35919E+03  6.83881E+02 -1.54403E+03 -1.15623E+03 -4.61975E+02 -2.07677E+03  4.13221E+02 -1.75053E+03
  5.09274E+02 -6.04193E+02  9.39616E+02  2.59041E+02  1.44085E+03 -2.03198E+02  2.43234E+02  1.15936E+03
 -1.61508E+02  7.50822E+01 -9.73013E+02 -3.39727E+02  4.28296E+02 -1.12976E+03  1.77674E+03 -9.66704E+02
  1.28808E+03  1.85164E+02  2.95958E+03  7.26121E+02  1.09094E+03  1.80812E+03 -3.08465E+02  1.98039E+03
 -1.62633E+03 -8.25314E+01 -1.88729E+03 -2.59528E+02 -8.12985E+02 -1.19068E+03  2.59579E+02 -4.58798E+02
  1.57332E+03 -6.97025E+02  7.80589E+02  7.68316E+02  1.59873E+02  1.10004E+03  3.73044E+02  1.06073E+03
 -5.38766E+02  1.06665E+03 -2.97142E+02 -3.22905E+01 -1.16574E+02  4.74137E+02 -9.58018E+02  6.47038E+02
 -7.63967E+02  1.28073E+03 -1.89252E+03  5.29110E+02 -1.96931E+03  2.15607E+02 -2.39058E+03 -1.12568E+03
 -1.41428E+03 -2.42651E+03  5.28799E+02 -3.33439E+03  1.33407E+03 -2.84034E+03  2.97156E+03 -9.65695E+02
  2.78020E+03  7.45970E+01  1.18203E+03  1.78381E+03 -6.22855E+02  1.23462E+03 -6.34581E+02  1.48091E+03
 -1.06937E+03  9.41065E+02 -7.43823E+02 -4.65890E+02 -4.41669E+02  1.92031E+02 -4.53857E+02 -8.72155E+01
 -1.17049E+03 -1.46814E+02 -9.64374E+02  5.84092E+01  1.85208E+02 -8.47957E+02 -2.73635E+02 -8.80243E+02
  1.19230E+03 -6.94765E+02  1.32626E+02  5.19835E+01  1.40785E+03  1.11861E+03 -5.53695E+02  1.44405E+03
 -9.21267E+02  2.46310E+03 -1.94685E+03  1.64946E+03 -1.94583E+03 -1.89552E+02 -1.39116E+03 -1.44789E+03
 -1.09821E+03 -1.43041E+03  5.17082E+02 -1.56920E+03  5.31373E+02 -5.85035E+02  7.58671E+02 -4.50787E+01
  8.99890E+02  3.58031E+02  1.80915E+01  5.96921E+02 -4.40694E+02  2.17673E+02  6.75092E+01 -1.90730E+02
  4.27496E+02  1.07565E+02  2.82371E+02  3.62950E+02  9.02044E+01  4.54357E+02  6.25611E+02  6.37317E+02
 -4.78050E+02  8.28464E+02 -7.86686E+02  3.51935E+01 -8.52156E+02 -2.27486E+02  2.42046E+02 -1.30361E+03
  6.86034E+02 -9.21974E+02  6.52760E+02 -2.25341E+02  9.71786E+02 -7.01418E+02  4.97014E+02  1.08678E+03
  5.89024E+02  6.75539E+02 -3.37809E+02  8.17446E+02 -7.79888E+02  5.97280E+02 -6.94572E+02  2.46561E+02
  1.17386E+01 -1.62422E+02 -3.02069E+02  1.84432E+02 -6.01829E+02  1.81542E+02 -4.63765E+02 -2.66545E+02
 -1.05501E+03  5.01218E+01 -5.14925E+02 -7.89665E+02  7.39676E+02 -1.51009E+03  8.28003E+02 -4.24504E+02
  7.10067E+02  1.78681E+02 -3.35295E+02  1.95077E+02 -1.22005E+02  9.74391E+02 -4.63319E+02  6.04363E+02
