 $NMID ID='MM_0lb_SNR800_8hz_g60_33.RAW', FMTDAT='(8E13.5)'
 TRAMP=1., VOLUME=1. $END
  3.10066E+05  6.85510E+02  3.38365E+05  2.50777E+05  8.51566E+04  3.38547E+05 -1.32874E+05  2.52220E+05
 -1.91098E+05  8.42313E+04 -1.12807E+05 -3.26393E+04  3.13992E+02 -5.08680E+04  5.36184E+04 -1.11204E+03
  3.55123E+04  5.34127E+04 -1.69212E+04  7.62547E+04 -6.15850E+04  6.48436E+04 -8.57671E+04  3.29149E+04
 -8.32508E+04 -1.17504E+04 -5.86668E+04 -5.33219E+04 -1.54963E+04 -7.13981E+04  2.86639E+04 -4.73179E+04
  4.17304E+04  3.39024E+03  1.72112E+04  4.87720E+04 -3.46590E+04  4.85398E+04 -6.85346E+04  2.41494E+02
 -5.52876E+04 -5.80294E+04 -7.67126E+03 -8.01068E+04  3.47550E+04 -5.73780E+04  5.00924E+04 -1.85845E+04
  4.59004E+04  1.13537E+04  3.39653E+04  2.69255E+04  1.61013E+04  3.09108E+04 -6.32092E+03  2.80398E+04
 -2.26226E+04  1.20859E+04 -1.77950E+04 -6.07172E+03  7.02248E+03 -7.51301E+03  2.41015E+04  1.42453E+04
  7.54723E+03  3.80225E+04 -3.46270E+04  3.76728E+04 -6.68350E+04  2.44395E+03 -5.95964E+04 -4.52666E+04
 -1.30981E+04 -6.69783E+04  4.23802E+04 -4.80108E+04  6.25912E+04 -2.74593E+03  3.74786E+04  3.51990E+04
 -5.53567E+03  4.06093E+04 -3.27180E+04  1.96379E+04 -3.48683E+04 -3.18049E+03 -2.02396E+04 -1.25819E+04
 -1.02965E+04 -1.58906E+04 -2.76318E+02 -2.05997E+04  8.82664E+03 -2.39043E+04  1.57379E+04 -1.17994E+04
  1.03622E+04  6.97535E+03 -1.14635E+04  1.24052E+04 -2.41737E+04 -7.44424E+03 -8.21669E+03 -3.88774E+04
  2.61229E+04 -4.81322E+04  5.38552E+04 -2.16892E+04  5.02272E+04  2.14946E+04  1.82244E+04  4.80655E+04
 -1.75146E+04  3.68390E+04 -2.89770E+04  3.06581E+03 -1.23405E+04 -3.03741E+04  2.14189E+04 -3.84880E+04
  4.59767E+04 -1.19213E+04  4.20117E+04  2.55210E+04  2.25388E+04  5.25644E+04 -8.42383E+03  5.85043E+04
 -3.67202E+04  3.95715E+04 -4.96429E+04  1.21759E+04 -5.00341E+04 -1.96488E+04 -2.74929E+04 -4.40200E+04
  8.11392E+03 -4.37805E+04  3.56156E+04 -1.81561E+04  3.37175E+04  1.12665E+04  5.78451E+03  2.12799E+04
 -1.38777E+04  1.02381E+04 -1.13783E+04 -7.57097E+03  5.84891E+03 -1.13120E+04  1.91075E+04  4.99647E+03
  1.53020E+04  2.29939E+04 -4.99457E+03  2.81925E+04 -2.40445E+04  1.55022E+04 -3.28972E+04 -2.09273E+03
 -2.75594E+04 -1.91917E+04 -1.32560E+04 -2.65338E+04  4.50944E+03 -2.82216E+04  2.15103E+04 -2.52351E+04
  3.45417E+04 -1.48078E+04  4.01065E+04  5.87236E+03  2.83399E+04  2.60716E+04  4.41783E+03  4.34568E+04
 -2.08506E+04  3.49996E+04 -3.23357E+04  1.26598E+04 -2.30906E+04 -1.04644E+04 -4.67219E+03 -1.31169E+04
  7.10395E+02 -6.23765E+02 -8.91433E+03  9.18060E+03 -2.19428E+04  4.58827E+03 -2.19704E+04 -1.03815E+04
 -1.28464E+04 -2.45817E+04  6.51417E+03 -2.93529E+04  2.09503E+04 -2.12278E+04  2.45110E+04 -1.88774E+03
  1.63482E+04  1.71513E+04 -1.72763E+03  2.48993E+04 -1.80066E+04  1.47332E+04 -2.54674E+04 -5.59546E+03
 -1.87777E+04 -2.24059E+04 -2.30626E+03 -2.99902E+04  1.34840E+04 -2.52344E+04  2.49343E+04 -1.31313E+04
  2.39651E+04 -5.01812E+02  1.77159E+04  5.55252E+03  1.03998E+04  1.47195E+03  1.27459E+04 -2.43932E+03
  2.43607E+04  2.87494E+03  2.75788E+04  1.95312E+04  1.94564E+04  4.06953E+04 -2.89851E+03  4.86206E+04
 -2.73889E+04  4.06932E+04 -4.62290E+04  2.17264E+04 -4.93476E+04 -3.62499E+03 -3.96978E+04 -2.91079E+04
 -1.55820E+04 -4.08512E+04  1.44442E+04 -3.57356E+04  3.04643E+04 -1.64912E+04  2.67670E+04  8.92928E+03
  8.59952E+03  2.02072E+04 -1.24949E+04  1.70654E+04 -2.18944E+04  1.96901E+03 -1.63191E+04 -1.46648E+04
 -2.63567E+02 -2.10853E+04  1.15853E+04 -1.58031E+04  1.48212E+04 -1.58351E+03  3.85082E+03  9.90627E+03
 -9.44499E+03  4.76850E+03 -1.03170E+04 -7.46231E+03 -2.68693E+03 -2.00672E+04  1.28401E+04 -2.22252E+04
  2.58224E+04 -1.29899E+04  3.00014E+04  3.11947E+03  2.65759E+04  2.10741E+04  1.20955E+04  3.29552E+04
 -6.52055E+03  3.50505E+04 -2.30185E+04  2.18774E+04 -2.53313E+04  4.52632E+03 -1.69809E+04 -7.18187E+03
 -6.74009E+03 -8.53375E+03 -5.26591E+02  1.16027E+02 -3.05752E+03  3.90838E+03 -8.32290E+03  5.85893E+03
 -1.56332E+04 -1.66982E+03 -1.59354E+04 -1.32054E+04 -6.63940E+03 -2.15898E+04  7.14512E+03 -1.73064E+04
  1.43386E+04 -7.35522E+03  1.02825E+04  5.06332E+03 -5.62001E+02  7.25301E+03 -8.90410E+03  3.41979E+00
 -8.43306E+03 -1.11006E+04 -1.13639E+03 -1.81347E+04  1.04994E+04 -1.83511E+04  2.26760E+04 -1.00829E+04
  2.66201E+04  2.92117E+03  1.89943E+04  1.60986E+04  3.67811E+03  2.17565E+04 -1.04461E+04  1.75041E+04
 -1.44331E+04  4.83070E+03 -7.01991E+03 -3.95598E+03  2.91319E+03 -5.01644E+03  8.92562E+03 -1.21017E+03
  8.00789E+03  8.09305E+03  8.51081E+02  1.41899E+04 -1.00564E+04  1.37641E+04 -1.74228E+04  3.17592E+03
 -1.23659E+04 -9.30264E+03 -3.68537E+02 -1.49813E+04  9.74039E+03 -7.95193E+03  1.09361E+04  4.18591E+03
  2.48592E+03  1.22704E+04 -9.14068E+03  1.30559E+04 -1.59930E+04  5.95343E+03 -1.69614E+04 -6.20644E+03
 -9.68629E+03 -1.84137E+04  4.12203E+03 -2.11012E+04  1.78984E+04 -1.24873E+04  1.94504E+04  3.31685E+03
  1.15232E+04  1.56258E+04 -2.17606E+03  1.80169E+04 -1.34700E+04  1.01803E+04 -1.46149E+04 -1.79154E+03
 -1.19773E+04 -1.19089E+04 -1.91553E+03 -1.39264E+04  7.47173E+03 -1.09582E+04  9.27146E+03 -3.58537E+03
  5.60024E+03  2.66395E+03 -1.81725E+03  1.99343E+03 -5.40399E+02 -3.93300E+03  3.43707E+03 -9.31972E+03
  1.34480E+04 -6.20263E+03  1.94643E+04  2.10959E+03  1.82289E+04  1.28034E+04  1.17866E+04  2.45098E+04
 -5.80585E+03  2.84368E+04 -2.33297E+04  2.08024E+04 -3.03478E+04  3.97647E+03 -2.40684E+04 -1.08111E+04
 -1.21317E+04 -2.01988E+04 -1.38189E+02 -1.69977E+04  6.05155E+03 -1.01303E+04  6.18351E+03 -6.33551E+03
  4.42225E+03 -3.51554E+03  4.80283E+03 -4.37817E+03  6.54669E+03 -3.86091E+03  9.63635E+03 -2.22682E+03
  1.23518E+04  2.78328E+03  7.23376E+03  1.08891E+04 -2.48256E+03  1.39152E+04 -1.34743E+04  1.05078E+04
 -1.79590E+04 -1.08624E+03 -1.19555E+04 -1.26751E+04 -1.84513E+03 -1.90153E+04  1.07115E+04 -1.88845E+04
  1.93046E+04 -1.05793E+04  2.35334E+04  3.33377E+03  1.61716E+04  1.63312E+04  2.30711E+03  2.14847E+04
 -9.09246E+03  1.74827E+04 -1.24450E+04  5.51284E+03 -8.75810E+03 -1.61116E+03 -4.18515E+03 -2.96390E+03
 -2.14122E+03 -6.02456E+02 -2.36524E+03  3.26448E+03 -7.47369E+03  2.94989E+03 -1.21610E+04 -2.18711E+03
 -8.81662E+03 -1.18686E+04 -2.56379E+02 -1.76641E+04  1.09730E+04 -1.64109E+04  1.84651E+04 -4.66333E+03
  1.75293E+04  8.46185E+03  8.23501E+03  1.63195E+04 -3.48654E+03  1.80954E+04 -1.31800E+04  1.08695E+04
 -1.68529E+04  4.45807E+02 -1.28575E+04 -1.10097E+04 -1.31225E+03 -1.50252E+04  7.77941E+03 -1.09622E+04
  1.15342E+04 -3.44333E+03  7.87080E+03  2.75255E+03  2.59016E+03  5.60707E+03  1.60980E+03  2.60513E+03
  3.37498E+03  1.14069E+03  4.56072E+03  2.45856E+03  5.36234E+03  5.89304E+03  4.03613E+03  1.01534E+04
 -3.61277E+03  1.44367E+04 -1.28584E+04  1.41243E+04 -1.89678E+04  3.71986E+03 -1.93277E+04 -8.72672E+03
 -8.89223E+03 -1.84327E+04  2.73531E+03 -2.01351E+04  1.14653E+04 -1.30168E+04  1.46478E+04 -3.26058E+03
  1.16048E+04  6.93114E+03  3.04736E+03  1.08312E+04 -5.14303E+03  6.82502E+03 -7.26989E+03 -1.85917E+03
 -3.32230E+03 -7.84777E+03  4.55261E+03 -8.27922E+03  7.56033E+03 -3.90532E+03  7.59047E+03  1.66645E+03
  4.17835E+03  4.01799E+03  1.42056E+03  3.40059E+03 -1.09913E+03  2.63850E+03  1.56208E+03 -7.44892E+02
  3.35838E+03 -9.26631E+02  7.66982E+03  3.63631E+03  4.44522E+03  9.96179E+03 -1.60434E+03  1.32205E+04
 -8.97860E+03  9.07696E+03 -1.20528E+04  2.29563E+03 -1.05777E+04 -4.04028E+03 -4.21495E+03 -7.61794E+03
  9.77947E+02 -7.54552E+03  5.27650E+03 -3.00847E+03  4.02408E+03  3.36149E+03 -1.60672E+03  6.28334E+03
 -8.33374E+03  3.89245E+03 -9.50445E+03 -4.32893E+03 -5.13404E+03 -1.03611E+04  1.16008E+03 -1.06128E+04
  6.49268E+03 -6.32407E+03  8.12785E+03 -9.34492E+02  6.60556E+03  2.69470E+03  1.07757E+03  5.59555E+03
 -4.01577E+03  1.47394E+03 -4.59777E+03 -4.18305E+03  1.94699E+03 -8.14925E+03  9.28228E+03 -6.58722E+03
  1.26417E+04  4.58152E+02  1.13079E+04  8.36140E+03  3.69279E+03  1.28071E+04 -4.79678E+03  1.20632E+04
 -1.11813E+04  5.45334E+03 -1.07994E+04 -1.80004E+03 -6.12943E+03 -8.27466E+03  1.63732E+03 -8.15091E+03
  7.29191E+03 -4.36048E+03  6.69028E+03  3.40882E+03  2.68838E+03  6.89284E+03 -1.08068E+03  6.30818E+03
 -3.42780E+03  4.26360E+03 -3.13127E+03  1.17775E+03 -1.55338E+03  1.45005E+03 -1.92105E+03  2.87448E+03
 -3.28829E+03  4.78915E+03 -8.77133E+03  3.94855E+03 -1.29644E+04  6.39319E+01 -1.42289E+04 -8.31645E+03
 -7.56990E+03 -1.67328E+04  3.05044E+03 -1.95124E+04  1.26665E+04 -1.52351E+04  1.81764E+04 -5.59850E+03
  1.75458E+04  3.79793E+03  1.05465E+04  1.22026E+04  9.69099E+02  1.37491E+04 -5.42427E+03  9.97351E+03
 -7.56604E+03  3.37792E+03 -4.93678E+03 -1.61461E+03 -1.29643E+03 -1.58136E+03 -1.28059E+03 -7.37193E+01
 -2.16065E+03  2.33271E+02 -3.13968E+03 -4.71180E+02 -1.19064E+03 -3.09862E+03  3.84570E+02 -4.97055E+03
  5.58189E+03 -4.01470E+03  8.38844E+03 -2.60560E+02  9.44139E+03  7.73131E+03  3.14386E+03  1.36090E+04
 -6.57956E+03  1.55158E+04 -1.42276E+04  8.80642E+03 -1.68999E+04 -1.03078E+03 -1.24298E+04 -1.03036E+04
 -5.11042E+03 -1.41339E+04  3.76884E+03 -1.29565E+04  8.74984E+03 -6.85324E+03  9.23748E+03 -9.97204E+01
  4.63002E+03  4.92667E+03 -5.60415E+02  3.71148E+03 -2.65353E+03 -2.81875E+02  5.15739E+02 -3.17812E+03
  4.29716E+03 -2.36170E+03  6.13510E+03  1.39743E+03  3.60898E+03  5.52011E+03 -2.38903E+02  7.42614E+03
 -6.05454E+03  6.65056E+03 -9.21785E+03  9.90444E+02 -8.08286E+03 -6.66876E+03 -8.85805E+02 -1.15347E+04
  6.73895E+03 -9.98396E+03  1.08712E+04 -3.19884E+03  1.08851E+04  2.94516E+03  6.13696E+03  8.54781E+03
  1.33674E+03  9.15079E+03 -3.69897E+03  7.41850E+03 -5.79255E+03  4.37550E+03 -4.76712E+03  7.13118E+02
 -2.62200E+03 -5.69299E+02 -2.81068E+03  1.40269E+03 -4.80327E+03  1.77802E+03 -7.14125E+03 -1.01841E+03
 -7.05723E+03 -5.22182E+03 -2.40283E+03 -9.33038E+03  4.47061E+03 -1.00924E+04  8.31267E+03 -4.58647E+03
  8.79340E+03  8.30368E+02  5.48081E+03  7.11989E+03 -4.08153E+02  9.29959E+03 -7.35343E+03  6.55971E+03
