 $NMID ID='MM_0lb_SNR800_13hz_g60_11.RAW', FMTDAT='(8E13.5)'
 TRAMP=1., VOLUME=1. $END
  3.09973E+05  5.20159E+02  3.37749E+05  2.50286E+05  8.48137E+04  3.38186E+05 -1.32765E+05  2.51636E+05
 -1.91018E+05  8.31937E+04 -1.12433E+05 -3.25112E+04  6.31485E+02 -5.02509E+04  5.39603E+04 -3.92507E+02
  3.60524E+04  5.29025E+04 -1.67791E+04  7.60085E+04 -6.12620E+04  6.38082E+04 -8.46718E+04  3.20327E+04
 -8.19798E+04 -1.16024E+04 -5.81495E+04 -5.17430E+04 -1.48330E+04 -7.05926E+04  2.76827E+04 -4.63151E+04
  4.08295E+04  3.80363E+03  1.63999E+04  4.82564E+04 -3.46151E+04  4.78465E+04 -6.77000E+04 -2.78810E+02
 -5.43640E+04 -5.73972E+04 -7.34993E+03 -7.81104E+04  3.41910E+04 -5.61683E+04  4.87493E+04 -1.74547E+04
  4.43939E+04  1.13417E+04  3.24647E+04  2.61889E+04  1.60079E+04  3.02722E+04 -5.68985E+03  2.74330E+04
 -2.22471E+04  1.20988E+04 -1.78718E+04 -5.29569E+03  6.47144E+03 -7.47234E+03  2.30950E+04  1.28704E+04
  7.10212E+03  3.66947E+04 -3.31070E+04  3.63791E+04 -6.49064E+04  2.13528E+03 -5.81376E+04 -4.36555E+04
 -1.26212E+04 -6.45592E+04  4.07318E+04 -4.66721E+04  5.97021E+04 -2.26327E+03  3.54703E+04  3.33582E+04
 -5.90353E+03  3.80049E+04 -3.09387E+04  1.75911E+04 -3.20191E+04 -3.96801E+03 -1.79275E+04 -1.16574E+04
 -9.21395E+03 -1.41310E+04 -6.02295E+02 -1.88360E+04  7.85314E+03 -2.35468E+04  1.58863E+04 -1.29267E+04
  1.07792E+04  5.89840E+03 -9.70543E+03  1.30260E+04 -2.23247E+04 -5.51908E+03 -8.44720E+03 -3.53775E+04
  2.42002E+04 -4.51502E+04  5.04312E+04 -2.05107E+04  4.70743E+04  2.02826E+04  1.62825E+04  4.59113E+04
 -1.61333E+04  3.44162E+04 -2.64166E+04  2.25595E+03 -1.10011E+04 -2.87641E+04  2.14558E+04 -3.56808E+04
  4.31887E+04 -9.72627E+03  3.79731E+04  2.43495E+04  1.98061E+04  4.86878E+04 -7.99066E+03  5.33961E+04
 -3.34651E+04  3.59129E+04 -4.50277E+04  1.05705E+04 -4.50877E+04 -1.75989E+04 -2.45047E+04 -4.01405E+04
  7.61198E+03 -4.01855E+04  3.30899E+04 -1.59624E+04  3.05751E+04  1.10861E+04  4.44459E+03  1.98920E+04
 -1.35588E+04  9.38519E+03 -1.06776E+04 -7.84074E+03  5.91672E+03 -1.13108E+04  1.81569E+04  6.16916E+03
  1.43635E+04  2.22910E+04 -5.73991E+03  2.61213E+04 -2.29557E+04  1.26887E+04 -2.97555E+04 -4.08194E+03
 -2.30312E+04 -1.77855E+04 -9.96245E+03 -2.25437E+04  4.27782E+03 -2.27476E+04  1.76641E+04 -1.99146E+04
  2.88754E+04 -1.35803E+04  3.50802E+04  3.50531E+03  2.52385E+04  2.21514E+04  4.62529E+03  3.88216E+04
 -1.87646E+04  3.21660E+04 -2.91154E+04  1.10633E+04 -2.18179E+04 -1.00291E+04 -4.60539E+03 -1.30749E+04
  1.13288E+03 -1.96319E+03 -5.96775E+03  7.56688E+03 -1.79019E+04  5.13596E+03 -1.81839E+04 -8.32582E+03
 -1.07792E+04 -2.12219E+04  5.34583E+03 -2.49449E+04  1.70129E+04 -1.82430E+04  2.00099E+04 -1.44404E+03
  1.28659E+04  1.43717E+04 -1.29981E+03  2.08769E+04 -1.45748E+04  1.14123E+04 -2.09090E+04 -4.34426E+03
 -1.52973E+04 -1.87166E+04 -1.99528E+03 -2.55449E+04  1.18664E+04 -2.07183E+04  2.10093E+04 -1.08367E+04
  1.98251E+04  7.26973E+01  1.40540E+04  5.13248E+03  7.38694E+03  1.33431E+03  1.05320E+04 -1.75917E+03
  1.96640E+04  2.71675E+03  2.18241E+04  1.64157E+04  1.46856E+04  3.38741E+04 -2.73144E+03  3.80487E+04
 -2.23096E+04  3.17576E+04 -3.59264E+04  1.60727E+04 -3.83346E+04 -2.90857E+03 -3.09880E+04 -2.23258E+04
 -1.30890E+04 -3.17690E+04  1.10008E+04 -2.79311E+04  2.43515E+04 -1.39073E+04  2.15966E+04  6.24623E+03
  7.57353E+03  1.61116E+04 -1.01810E+04  1.38026E+04 -1.79532E+04  2.38066E+03 -1.34660E+04 -1.12224E+04
 -3.16469E+02 -1.70491E+04  8.84346E+03 -1.26599E+04  1.15567E+04 -1.78577E+03  3.09026E+03  7.81495E+03
 -7.48205E+03  3.20994E+03 -7.00608E+03 -6.16485E+03 -8.67624E+02 -1.52082E+04  1.06982E+04 -1.63790E+04
  1.93713E+04 -9.05496E+03  2.09355E+04  2.98411E+03  1.80714E+04  1.54300E+04  8.53975E+03  2.40151E+04
 -4.21429E+03  2.57573E+04 -1.64612E+04  1.60625E+04 -1.86187E+04  3.72986E+03 -1.29083E+04 -4.44152E+03
 -5.95949E+03 -5.95064E+03 -5.11526E+02  9.23824E+02 -2.34990E+03  3.08687E+03 -6.25357E+03  5.02355E+03
 -1.17232E+04 -9.49665E+02 -1.22888E+04 -1.03406E+04 -5.23473E+03 -1.67149E+04  5.53462E+03 -1.26547E+04
  1.07477E+04 -5.25607E+03  7.69794E+03  3.46312E+03 -2.50811E+02  5.23780E+03 -5.95903E+03 -6.97525E+01
 -6.40231E+03 -8.47571E+03 -5.73949E+02 -1.25826E+04  7.32313E+03 -1.32318E+04  1.59901E+04 -6.82080E+03
  1.92570E+04  1.69137E+03  1.37818E+04  1.09530E+04  2.75632E+03  1.54475E+04 -8.08772E+03  1.26343E+04
 -1.08353E+04  3.81342E+03 -5.35557E+03 -2.36109E+03  2.00989E+03 -3.41385E+03  6.96762E+03 -1.50948E+03
  6.17396E+03  5.37175E+03  1.01458E+03  9.90188E+03 -7.49407E+03  1.00676E+04 -1.28286E+04  2.63406E+03
 -8.42416E+03 -6.53117E+03  6.79322E+02 -1.08091E+04  6.64539E+03 -5.41687E+03  6.88711E+03  2.70543E+03
  1.11114E+03  7.43974E+03 -6.57407E+03  8.78550E+03 -9.83882E+03  4.09056E+03 -1.09105E+04 -3.65354E+03
 -5.79479E+03 -1.17732E+04  2.91945E+03 -1.36719E+04  1.18451E+04 -7.93644E+03  1.24682E+04  1.98845E+03
  7.74771E+03  1.00618E+04 -8.93954E+02  1.23731E+04 -9.13168E+03  7.12542E+03 -9.72702E+03 -9.35248E+02
 -8.47030E+03 -8.32370E+03 -1.32882E+03 -9.27706E+03  4.77940E+03 -7.34970E+03  5.72060E+03 -3.29369E+03
  4.38985E+03  1.59852E+03 -6.93969E+02  1.68680E+03 -3.12769E+02 -2.02345E+03  1.81986E+03 -4.84558E+03
  8.52271E+03 -3.25667E+03  1.13759E+04  1.29984E+03  1.17305E+04  7.76235E+03  8.02950E+03  1.53420E+04
 -3.47774E+03  1.72295E+04 -1.43892E+04  1.30516E+04 -1.89277E+04  2.37571E+03 -1.52732E+04 -5.98360E+03
 -8.12135E+03 -1.26081E+04 -1.47320E+02 -1.04466E+04  3.95518E+03 -5.90712E+03  3.59376E+03 -3.75493E+03
  2.84353E+03 -2.49866E+03  3.24673E+03 -2.95670E+03  4.69062E+03 -2.56189E+03  6.05826E+03 -6.07736E+02
  7.98012E+03  1.88572E+03  3.97722E+03  6.86954E+03 -2.24289E+03  7.55212E+03 -8.10139E+03  5.66145E+03
 -1.02603E+04 -1.33536E+03 -6.12142E+03 -7.01182E+03 -2.99190E+02 -1.07548E+04  5.83093E+03 -1.11303E+04
  1.15114E+04 -5.81221E+03  1.39332E+04  1.57270E+03  9.56409E+03  9.51974E+03  1.83622E+03  1.25428E+04
 -4.79304E+03  1.05815E+04 -7.12450E+03  3.55653E+03 -4.71935E+03 -1.50707E+03 -1.85985E+03 -1.39583E+03
 -1.16552E+03 -6.39030E+01 -1.71345E+03  2.43078E+03 -4.31577E+03  1.72253E+03 -7.59543E+03 -8.21397E+02
 -4.74531E+03 -7.07052E+03  5.57922E+02 -9.95257E+03  6.26168E+03 -9.49361E+03  9.31484E+03 -3.12457E+03
  9.49941E+03  4.62988E+03  4.44744E+03  8.56241E+03 -2.00069E+03  9.91149E+03 -7.03954E+03  5.89770E+03
 -9.12654E+03  5.75301E+02 -7.37803E+03 -6.15735E+03 -1.03421E+03 -7.90344E+03  4.08364E+03 -5.64407E+03
  6.61785E+03 -2.05628E+03  4.24122E+03  1.71341E+03  1.59953E+03  3.40335E+03  1.20041E+03  1.20930E+03
  2.40318E+03  8.23827E+02  2.38849E+03  1.66646E+03  2.92195E+03  3.62618E+03  2.73664E+03  5.05174E+03
 -2.09839E+03  7.60302E+03 -6.45671E+03  8.02645E+03 -9.17551E+03  2.12465E+03 -1.01288E+04 -3.25676E+03
 -4.78760E+03 -9.59841E+03  1.13198E+03 -1.07565E+04  5.84358E+03 -6.42634E+03  7.75242E+03 -1.81862E+03
  5.80010E+03  3.89878E+03  1.17586E+03  5.48182E+03 -2.29653E+03  3.68017E+03 -3.58037E+03 -5.11302E+02
 -1.88965E+03 -3.88755E+03  2.66578E+03 -4.03064E+03  3.81063E+03 -2.08987E+03  3.49325E+03  9.45076E+02
  1.94093E+03  1.56117E+03  1.05048E+03  1.10982E+03 -2.74406E+02  1.27702E+03  1.79792E+03 -2.33902E+02
  1.10775E+03 -4.92499E+02  4.08167E+03  1.32806E+03  1.81268E+03  5.16056E+03 -3.36438E+02  6.57587E+03
 -4.34297E+03  4.11176E+03 -5.70539E+03  9.49332E+02 -5.26191E+03 -2.34806E+03 -1.72464E+03 -3.28556E+03
  6.60372E+02 -3.10285E+03  2.27762E+03 -1.72130E+03  1.67413E+03  2.01787E+03 -8.78371E+02  3.16662E+03
 -3.65894E+03  1.59169E+03 -4.09346E+03 -2.42266E+03 -2.48111E+03 -4.70643E+03  8.83010E+02 -4.76269E+03
  2.67739E+03 -2.70970E+03  3.10862E+03 -5.24898E+01  3.15935E+03  9.45783E+02  4.32828E+02  2.58805E+03
 -1.46019E+03  9.93979E+02 -2.11238E+03 -1.50810E+03  7.87141E+02 -3.33558E+03  4.22648E+03 -2.77361E+03
  5.15671E+03  5.26764E+02  5.45220E+03  3.25428E+03  1.96950E+03  5.62291E+03 -1.90032E+03  5.13590E+03
 -4.71368E+03  2.33286E+03 -4.47420E+03 -7.89043E+02 -2.49986E+03 -3.83402E+03  6.92793E+02 -3.55503E+03
  3.74764E+03 -1.40163E+03  3.01919E+03  1.57275E+03  1.05591E+03  3.41199E+03 -3.79876E+02  2.76233E+03
 -1.33934E+03  2.07410E+03 -1.60830E+03  6.79916E+02 -4.16428E+02  7.82112E+02 -1.05998E+03  1.03176E+03
 -1.06158E+03  2.10572E+03 -3.83200E+03  1.76502E+03 -5.30190E+03  2.83611E+02 -6.31697E+03 -3.37952E+03
 -3.20283E+03 -6.98562E+03  1.42241E+03 -8.22996E+03  4.37907E+03 -6.78822E+03  7.91523E+03 -2.44873E+03
  7.18161E+03  1.34501E+03  4.37347E+03  4.98343E+03  2.46219E+02  5.22226E+03 -2.11708E+03  3.96772E+03
 -2.92132E+03  1.56049E+03 -1.91189E+03 -4.40099E+02 -1.11214E+03 -2.37449E+02 -7.76682E+02  1.59146E+02
 -1.29252E+03 -2.52775E+02 -1.47042E+03 -7.99365E+01 -3.12568E+02 -1.70467E+03 -2.17543E+01 -1.79319E+03
  2.51858E+03 -1.57245E+03  2.78398E+03  3.12777E+02  3.12840E+03  2.83652E+03  6.10714E+02  5.12075E+03
 -2.48536E+03  6.36668E+03 -5.09921E+03  3.33705E+03 -6.21494E+03 -6.68846E+02 -4.35460E+03 -4.10750E+03
 -2.15578E+03 -5.32354E+03  1.18725E+03 -4.47642E+03  3.01867E+03 -2.33639E+03  3.12357E+03  1.19894E+02
  1.90106E+03  1.65231E+03 -2.64839E+02  1.68164E+03 -1.08218E+03  1.23868E+02 -2.06024E+02 -1.42369E+03
  1.41983E+03 -4.69315E+02  1.85716E+03  6.75586E+02  1.24095E+03  1.60966E+03  5.74730E+02  2.16627E+03
 -2.09592E+03  2.37996E+03 -2.54874E+03  2.81051E+02 -2.68825E+03 -2.36341E+03 -1.85104E+02 -4.21842E+03
  2.46367E+03 -3.63988E+03  3.52653E+03 -9.61745E+02  3.70602E+03  5.82892E+02  1.82548E+03  3.02079E+03
  6.33617E+02  2.72000E+03 -1.24353E+03  2.45301E+03 -2.00077E+03  1.70646E+03 -1.73840E+03  3.01046E+02
 -8.58149E+02 -2.39975E+01 -7.08228E+02  5.28299E+02 -1.82359E+03  6.49136E+02 -2.62088E+03 -5.12430E+02
 -2.74571E+03 -1.35525E+03 -6.42931E+02 -3.44794E+03  1.67928E+03 -3.36835E+03  2.75745E+03 -1.63429E+03
  3.05072E+03  2.57018E+02  1.81147E+03  1.89431E+03 -1.79301E+02  3.19056E+03 -2.16923E+03  2.06600E+03
