 $NMID ID='MM_0lb_SNR800_10hz_g55_4.RAW', FMTDAT='(8E13.5)'
 TRAMP=1., VOLUME=1. $END
  3.09934E+05  6.40523E+01  3.37980E+05  2.50773E+05  8.46553E+04  3.38327E+05 -1.32662E+05  2.51840E+05
 -1.91051E+05  8.35039E+04 -1.12370E+05 -3.27107E+04  5.53158E+01 -5.09645E+04  5.35612E+04 -5.80347E+02
  3.54187E+04  5.27729E+04 -1.64055E+04  7.59833E+04 -6.11842E+04  6.39587E+04 -8.53605E+04  3.21076E+04
 -8.22941E+04 -1.22218E+04 -5.82494E+04 -5.16649E+04 -1.53430E+04 -7.09038E+04  2.82076E+04 -4.65252E+04
  4.11540E+04  3.62320E+03  1.66407E+04  4.87063E+04 -3.47720E+04  4.79471E+04 -6.80887E+04  2.26451E+02
 -5.49062E+04 -5.77781E+04 -7.37600E+03 -7.90735E+04  3.51413E+04 -5.71475E+04  4.97588E+04 -1.86586E+04
  4.56699E+04  1.15795E+04  3.30102E+04  2.66559E+04  1.57094E+04  3.05373E+04 -5.76248E+03  2.83099E+04
 -2.22229E+04  1.17041E+04 -1.82255E+04 -5.82158E+03  6.53804E+03 -6.98597E+03  2.32419E+04  1.37160E+04
  7.23569E+03  3.70501E+04 -3.37237E+04  3.70127E+04 -6.53347E+04  2.03247E+03 -5.88430E+04 -4.42947E+04
 -1.20377E+04 -6.56594E+04  4.16017E+04 -4.72886E+04  6.14612E+04 -2.50757E+03  3.65882E+04  3.40353E+04
 -5.44456E+03  3.93122E+04 -3.15232E+04  1.87867E+04 -3.30202E+04 -3.72023E+03 -1.90798E+04 -1.14723E+04
 -9.67723E+03 -1.51276E+04 -3.26601E+02 -1.96797E+04  8.42500E+03 -2.39646E+04  1.55538E+04 -1.22883E+04
  1.07791E+04  5.79655E+03 -1.02891E+04  1.28226E+04 -2.33314E+04 -6.80022E+03 -8.55354E+03 -3.70651E+04
  2.47941E+04 -4.64825E+04  5.19104E+04 -2.09775E+04  4.87334E+04  2.09675E+04  1.69639E+04  4.71035E+04
 -1.67657E+04  3.56074E+04 -2.74198E+04  2.72864E+03 -1.16183E+04 -2.94017E+04  2.15546E+04 -3.67232E+04
  4.42740E+04 -1.06953E+04  3.96393E+04  2.44848E+04  2.10904E+04  5.05971E+04 -8.30830E+03  5.58455E+04
 -3.46824E+04  3.80402E+04 -4.73954E+04  1.15010E+04 -4.73044E+04 -1.83097E+04 -2.59761E+04 -4.17480E+04
  7.88188E+03 -4.20525E+04  3.41813E+04 -1.70934E+04  3.21219E+04  1.10675E+04  5.15401E+03  2.08054E+04
 -1.40659E+04  9.55277E+03 -1.09075E+04 -7.77275E+03  5.87834E+03 -1.09499E+04  1.85834E+04  5.42806E+03
  1.48213E+04  2.27649E+04 -5.26272E+03  2.69614E+04 -2.32618E+04  1.38454E+04 -3.12104E+04 -3.16195E+03
 -2.48192E+04 -1.83985E+04 -1.12605E+04 -2.47366E+04  4.44299E+03 -2.50976E+04  1.93391E+04 -2.25684E+04
  3.11476E+04 -1.41625E+04  3.75270E+04  4.79976E+03  2.64735E+04  2.38203E+04  4.71980E+03  4.03189E+04
 -1.95351E+04  3.38058E+04 -3.04942E+04  1.17700E+04 -2.23221E+04 -9.79541E+03 -4.88214E+03 -1.30363E+04
  8.87478E+02 -1.51341E+03 -7.40465E+03  8.02943E+03 -1.97776E+04  5.01111E+03 -1.96203E+04 -9.51060E+03
 -1.19982E+04 -2.31017E+04  5.63182E+03 -2.75481E+04  1.82987E+04 -1.94021E+04  2.22509E+04 -1.59664E+03
  1.44757E+04  1.57881E+04 -1.39835E+03  2.25311E+04 -1.63509E+04  1.33057E+04 -2.31876E+04 -4.54715E+03
 -1.70653E+04 -2.04531E+04 -1.97431E+03 -2.73659E+04  1.27545E+04 -2.31013E+04  2.28998E+04 -1.20054E+04
  2.13444E+04 -1.06338E+02  1.54423E+04  5.09748E+03  8.34726E+03  1.17372E+03  1.19533E+04 -1.89475E+03
  2.14185E+04  2.71901E+03  2.45233E+04  1.78808E+04  1.66828E+04  3.69177E+04 -2.50496E+03  4.33937E+04
 -2.42265E+04  3.59142E+04 -4.08516E+04  1.89090E+04 -4.32357E+04 -3.18488E+03 -3.50020E+04 -2.52106E+04
 -1.40932E+04 -3.61096E+04  1.24223E+04 -3.11793E+04  2.69352E+04 -1.50895E+04  2.36452E+04  7.22204E+03
  7.98751E+03  1.82130E+04 -1.12490E+04  1.51480E+04 -1.94603E+04  2.55002E+03 -1.51172E+04 -1.26496E+04
 -3.47798E+02 -1.89668E+04  1.04086E+04 -1.41314E+04  1.30858E+04 -1.48166E+03  3.46073E+03  8.77118E+03
 -8.47976E+03  4.10062E+03 -8.97524E+03 -6.84997E+03 -1.83749E+03 -1.73693E+04  1.16919E+04 -1.92130E+04
  2.17234E+04 -1.07231E+04  2.50753E+04  3.31998E+03  2.20666E+04  1.77195E+04  9.97992E+03  2.79586E+04
 -5.24479E+03  2.99290E+04 -1.97531E+04  1.84868E+04 -2.20747E+04  3.79484E+03 -1.48267E+04 -5.33664E+03
 -6.17884E+03 -6.78988E+03 -6.55557E+02  5.52965E+02 -3.14519E+03  3.08401E+03 -7.32138E+03  5.09630E+03
 -1.39490E+04 -1.10347E+03 -1.41741E+04 -1.13185E+04 -6.14143E+03 -1.87509E+04  5.88190E+03 -1.53494E+04
  1.24301E+04 -6.28287E+03  8.82973E+03  3.93570E+03 -6.02607E+02  5.94676E+03 -7.56719E+03 -4.03769E+02
 -7.37520E+03 -1.01278E+04 -1.35005E+03 -1.49422E+04  8.82301E+03 -1.56847E+04  1.92057E+04 -8.52643E+03
  2.26964E+04  2.14226E+03  1.66120E+04  1.35306E+04  3.11230E+03  1.81014E+04 -9.20797E+03  1.54062E+04
 -1.19913E+04  4.42787E+03 -6.01581E+03 -3.15283E+03  2.65283E+03 -4.13216E+03  8.10262E+03 -1.04836E+03
  7.35864E+03  6.61099E+03  1.39909E+03  1.20125E+04 -8.62873E+03  1.12135E+04 -1.49924E+04  3.08832E+03
 -9.82173E+03 -7.51536E+03  1.65138E+02 -1.29234E+04  8.40710E+03 -7.06659E+03  8.95854E+03  3.25854E+03
  2.32959E+03  9.63636E+03 -7.65403E+03  1.13621E+04 -1.35204E+04  4.80890E+03 -1.30575E+04 -4.47819E+03
 -7.54932E+03 -1.52733E+04  3.67030E+03 -1.74150E+04  1.47256E+04 -9.98251E+03  1.58796E+04  2.84778E+03
  9.54533E+03  1.26156E+04 -1.46874E+03  1.48474E+04 -1.12316E+04  8.38515E+03 -1.24755E+04 -1.47483E+03
 -1.03775E+04 -1.02249E+04 -1.96452E+03 -1.14769E+04  5.78996E+03 -9.48176E+03  7.33690E+03 -3.59796E+03
  4.84692E+03  2.30331E+03 -1.18549E+03  2.33760E+03 -7.57153E+02 -3.39176E+03  2.35449E+03 -7.42882E+03
  1.09772E+04 -4.35325E+03  1.50471E+04  1.46170E+03  1.47775E+04  1.03443E+04  9.96926E+03  1.94711E+04
 -4.85277E+03  2.29119E+04 -1.85004E+04  1.67693E+04 -2.46643E+04  3.04554E+03 -1.95344E+04 -8.28037E+03
 -1.00951E+04 -1.57992E+04 -1.87260E+02 -1.35324E+04  5.04138E+03 -7.76231E+03  5.08067E+03 -5.15907E+03
  3.64659E+03 -2.88915E+03  3.96137E+03 -3.67499E+03  5.48686E+03 -3.54448E+03  7.54358E+03 -1.51376E+03
  1.02238E+04  2.37729E+03  5.21712E+03  9.07809E+03 -2.33806E+03  1.03741E+04 -1.06954E+04  8.03509E+03
 -1.36748E+04 -1.16620E+03 -9.04198E+03 -9.83026E+03 -9.85395E+02 -1.46585E+04  7.90589E+03 -1.48633E+04
  1.54725E+04 -8.20561E+03  1.83502E+04  2.56819E+03  1.25490E+04  1.23872E+04  2.46723E+03  1.64381E+04
 -6.84455E+03  1.36198E+04 -9.88600E+03  4.64394E+03 -6.33679E+03 -1.52811E+03 -2.89290E+03 -2.29088E+03
 -1.35028E+03  8.54832E+01 -2.03932E+03  2.95542E+03 -5.71922E+03  2.35261E+03 -9.71352E+03 -1.05845E+03
 -6.58667E+03 -9.23873E+03  2.33987E+02 -1.33504E+04  8.20537E+03 -1.26058E+04  1.31394E+04 -3.67143E+03
  1.33458E+04  6.57067E+03  6.22335E+03  1.20205E+04 -2.74706E+03  1.39910E+04 -9.91844E+03  8.91396E+03
 -1.28560E+04  3.73682E+02 -9.66441E+03 -7.96471E+03 -1.00053E+03 -1.13968E+04  6.28277E+03 -8.43702E+03
  8.76563E+03 -2.87823E+03  6.15167E+03  1.93069E+03  2.01243E+03  4.30245E+03  1.37497E+03  1.98651E+03
  2.43236E+03  7.76202E+02  3.38119E+03  1.44126E+03  4.02031E+03  4.85252E+03  3.84899E+03  7.26267E+03
 -2.91686E+03  1.03206E+04 -9.66080E+03  1.06528E+04 -1.38646E+04  2.93348E+03 -1.46920E+04 -5.63428E+03
 -6.64871E+03 -1.37436E+04  2.26501E+03 -1.51612E+04  8.30187E+03 -9.75964E+03  1.11068E+04 -2.57079E+03
  8.73101E+03  5.44473E+03  1.79059E+03  7.76308E+03 -3.74464E+03  4.61903E+03 -5.96298E+03 -6.78988E+02
 -2.64345E+03 -5.62502E+03  3.12395E+03 -5.66571E+03  5.24967E+03 -3.04439E+03  5.26289E+03  1.31100E+03
  3.14592E+03  2.89577E+03  1.43199E+03  1.92768E+03 -8.77610E+02  1.50593E+03  1.90269E+03 -5.30958E+02
  2.23353E+03 -6.91946E+02  5.83248E+03  2.03122E+03  3.38843E+03  7.66011E+03 -1.01809E+03  9.64701E+03
 -6.65548E+03  6.39149E+03 -8.48421E+03  2.10968E+03 -7.74939E+03 -3.08503E+03 -2.84654E+03 -5.31879E+03
  5.46711E+02 -5.17930E+03  3.77503E+03 -2.71040E+03  3.13145E+03  3.18892E+03 -1.01342E+03  4.28894E+03
 -5.55930E+03  2.47965E+03 -6.22387E+03 -3.68631E+03 -3.50866E+03 -7.61797E+03  1.24543E+03 -7.64256E+03
  4.17237E+03 -4.78906E+03  5.18873E+03 -7.38328E+02  4.74580E+03  1.72338E+03  7.68165E+02  3.96654E+03
 -2.54940E+03  1.17003E+03 -3.38494E+03 -2.53659E+03  1.36233E+03 -5.89446E+03  6.80483E+03 -4.53124E+03
  8.58784E+03  8.97474E+02  7.89825E+03  6.05049E+03  2.71087E+03  9.10606E+03 -3.33690E+03  8.46784E+03
 -7.02300E+03  3.83344E+03 -7.46131E+03 -1.12969E+03 -4.41682E+03 -6.19262E+03  1.32658E+03 -5.48109E+03
  5.51780E+03 -2.79622E+03  4.68686E+03  2.30442E+03  1.54858E+03  5.26353E+03 -7.27996E+02  4.44481E+03
 -2.30432E+03  2.26329E+03 -1.98464E+03  9.40048E+02 -1.26073E+03  9.91306E+02 -1.60511E+03  1.97898E+03
 -1.94412E+03  3.59743E+03 -5.99985E+03  3.17499E+03 -8.72166E+03  6.06126E+02 -9.96354E+03 -5.68758E+03
 -5.38036E+03 -1.16298E+04  1.78328E+03 -1.35740E+04  8.37590E+03 -1.03610E+04  1.29909E+04 -3.79782E+03
  1.16358E+04  2.54390E+03  7.19575E+03  7.94879E+03  5.06280E+02  8.94113E+03 -3.72858E+03  6.86741E+03
 -5.17621E+03  2.79217E+03 -3.44304E+03 -9.99708E+02 -9.73252E+02 -8.84806E+02 -5.39088E+02 -3.04941E+01
 -1.75018E+03  5.62221E+02 -1.74455E+03 -4.25044E+02 -8.78974E+02 -2.36915E+03  1.39898E+02 -3.44025E+03
  4.20397E+03 -2.92647E+03  5.43118E+03  9.81372E+01  5.90730E+03  4.93089E+03  1.53824E+03  8.89777E+03
 -4.46245E+03  1.04200E+04 -9.58338E+03  6.45566E+03 -1.07837E+04 -9.98424E+02 -8.84461E+03 -6.83802E+03
 -3.89897E+03 -9.21610E+03  2.32455E+03 -8.37525E+03  5.67101E+03 -4.84887E+03  5.77195E+03  4.33191E+02
  3.27016E+03  2.86956E+03 -3.43704E+02  2.56946E+03 -1.60297E+03  2.88846E+02  4.90852E+02 -1.71132E+03
  2.50416E+03 -1.22984E+03  3.46161E+03  1.37862E+03  2.21249E+03  3.43849E+03  6.84725E+01  4.93639E+03
 -3.99178E+03  4.16010E+03 -5.97430E+03  4.73852E+02 -5.48399E+03 -4.27164E+03 -5.41969E+02 -7.41806E+03
  4.06249E+03 -6.07585E+03  6.65658E+03 -1.90563E+03  6.96030E+03  1.42234E+03  4.45634E+03  5.46494E+03
  7.14185E+02  6.23584E+03 -2.30224E+03  5.05391E+03 -3.52461E+03  2.88711E+03 -2.78079E+03  3.11324E+02
 -1.88438E+03 -4.77756E+02 -1.81144E+03  5.37653E+02 -3.42132E+03  9.50972E+02 -4.63881E+03 -7.09410E+02
 -4.66370E+03 -2.95858E+03 -1.29763E+03 -5.79640E+03  3.18621E+03 -6.11236E+03  5.45177E+03 -2.85390E+03
  6.35993E+03  5.95137E+02  3.32757E+03  4.76316E+03 -7.71812E+02  6.33651E+03 -4.51378E+03  4.11610E+03
