 $NMID ID='MM_0lb_SNR800_7hz_g55_43.RAW', FMTDAT='(8E13.5)'
 TRAMP=1., VOLUME=1. $END
  3.10058E+05  3.74131E+02  3.37597E+05  2.50689E+05  8.50186E+04  3.38896E+05 -1.33053E+05  2.51982E+05
 -1.90819E+05  8.40834E+04 -1.12813E+05 -3.23717E+04  2.44690E+02 -5.12613E+04  5.35214E+04 -7.89173E+02
  3.63980E+04  5.32032E+04 -1.65727E+04  7.62881E+04 -6.14349E+04  6.48665E+04 -8.58348E+04  3.29550E+04
 -8.33203E+04 -1.17486E+04 -5.83811E+04 -5.29913E+04 -1.50726E+04 -7.17905E+04  2.89027E+04 -4.73866E+04
  4.19357E+04  3.39407E+03  1.77175E+04  4.89144E+04 -3.52488E+04  4.89817E+04 -6.86591E+04 -1.71200E+02
 -5.57753E+04 -5.83528E+04 -7.63076E+03 -7.99601E+04  3.50616E+04 -5.80692E+04  5.10997E+04 -1.84886E+04
  4.59880E+04  1.14210E+04  3.33962E+04  2.64947E+04  1.60018E+04  3.11379E+04 -5.99724E+03  2.78696E+04
 -2.25656E+04  1.20575E+04 -1.77553E+04 -5.86231E+03  7.79907E+03 -7.04818E+03  2.38236E+04  1.45650E+04
  6.91382E+03  3.88664E+04 -3.48733E+04  3.80117E+04 -6.71217E+04  2.09453E+03 -5.92622E+04 -4.57788E+04
 -1.28384E+04 -6.72938E+04  4.25271E+04 -4.84116E+04  6.29600E+04 -2.25358E+03  3.76740E+04  3.54245E+04
 -5.49156E+03  4.10976E+04 -3.28930E+04  2.02513E+04 -3.42318E+04 -2.93576E+03 -2.02202E+04 -1.20572E+04
 -9.85454E+03 -1.63277E+04 -3.89454E+02 -2.05552E+04  9.30303E+03 -2.40217E+04  1.61076E+04 -1.27662E+04
  1.00338E+04  7.05356E+03 -1.16537E+04  1.27970E+04 -2.49838E+04 -7.34683E+03 -9.00677E+03 -3.97913E+04
  2.60055E+04 -4.90604E+04  5.40428E+04 -2.15128E+04  5.03717E+04  2.15574E+04  1.79276E+04  4.87827E+04
 -1.64419E+04  3.74766E+04 -2.87141E+04  2.80072E+03 -1.28251E+04 -3.04164E+04  2.19080E+04 -3.81074E+04
  4.65505E+04 -1.21850E+04  4.28293E+04  2.55685E+04  2.26090E+04  5.39370E+04 -8.48524E+03  5.92645E+04
 -3.69515E+04  4.03984E+04 -5.10528E+04  1.20193E+04 -5.03906E+04 -1.93024E+04 -2.74518E+04 -4.42341E+04
  8.23928E+03 -4.40851E+04  3.51924E+04 -1.86219E+04  3.30375E+04  1.14790E+04  5.74049E+03  2.15763E+04
 -1.42928E+04  9.96290E+03 -1.17389E+04 -7.07755E+03  5.42434E+03 -1.18415E+04  1.92561E+04  5.50582E+03
  1.49844E+04  2.31604E+04 -4.75467E+03  2.83459E+04 -2.47050E+04  1.54649E+04 -3.34371E+04 -1.84973E+03
 -2.74902E+04 -1.91917E+04 -1.34353E+04 -2.75285E+04  4.53327E+03 -2.89927E+04  2.19062E+04 -2.55634E+04
  3.53907E+04 -1.50648E+04  4.06402E+04  6.33568E+03  2.85399E+04  2.64100E+04  4.16902E+03  4.38560E+04
 -2.11449E+04  3.55441E+04 -3.21465E+04  1.20010E+04 -2.32281E+04 -1.03328E+04 -5.07009E+03 -1.25993E+04
  2.13157E+02 -7.41445E+02 -9.14627E+03  9.32831E+03 -2.22143E+04  4.66347E+03 -2.19213E+04 -1.11436E+04
 -1.27734E+04 -2.57126E+04  6.05346E+03 -3.08557E+04  2.03888E+04 -2.16383E+04  2.49373E+04 -1.98542E+03
  1.60763E+04  1.73038E+04 -1.76771E+03  2.50559E+04 -1.84220E+04  1.46626E+04 -2.56852E+04 -4.94136E+03
 -1.86981E+04 -2.28680E+04 -2.19410E+03 -3.07449E+04  1.35740E+04 -2.58166E+04  2.47858E+04 -1.31604E+04
  2.44125E+04 -7.10518E+02  1.74501E+04  5.54185E+03  9.92428E+03  1.64892E+03  1.36565E+04 -2.37571E+03
  2.42461E+04  3.18812E+03  2.85207E+04  1.97717E+04  1.98082E+04  4.12087E+04 -2.31475E+03  4.97239E+04
 -2.80195E+04  4.22115E+04 -4.76984E+04  2.20011E+04 -5.10893E+04 -3.97526E+03 -4.09160E+04 -2.95855E+04
 -1.59247E+04 -4.23305E+04  1.50438E+04 -3.67430E+04  3.12425E+04 -1.64912E+04  2.69198E+04  9.47005E+03
  8.34831E+03  2.12037E+04 -1.32554E+04  1.72784E+04 -2.19414E+04  2.69523E+03 -1.67430E+04 -1.44290E+04
  7.06673E+01 -2.15090E+04  1.18366E+04 -1.59666E+04  1.50034E+04 -1.36032E+03  4.24157E+03  1.00232E+04
 -9.56862E+03  5.06060E+03 -1.08708E+04 -8.01267E+03 -2.91101E+03 -2.03950E+04  1.30561E+04 -2.30708E+04
  2.62704E+04 -1.39342E+04  3.04260E+04  3.41499E+03  2.70416E+04  2.18852E+04  1.20178E+04  3.38189E+04
 -7.05799E+03  3.56861E+04 -2.38100E+04  2.20961E+04 -2.64437E+04  4.11491E+03 -1.75711E+04 -7.10212E+03
 -7.39088E+03 -8.74592E+03 -6.69359E+02 -2.72683E+02 -2.85264E+03  3.94215E+03 -8.90527E+03  5.94690E+03
 -1.64175E+04 -1.29692E+03 -1.68911E+04 -1.38717E+04 -6.44890E+03 -2.17640E+04  7.70622E+03 -1.75763E+04
  1.48406E+04 -7.39024E+03  1.02310E+04  4.63246E+03 -5.61976E+02  7.48161E+03 -9.38229E+03 -5.33714E+02
 -8.80255E+03 -1.15336E+04 -1.49521E+03 -1.81214E+04  1.06431E+04 -1.91527E+04  2.34040E+04 -1.04811E+04
  2.78886E+04  3.09808E+03  2.00036E+04  1.70264E+04  4.27988E+03  2.27567E+04 -1.12507E+04  1.78557E+04
 -1.44667E+04  4.91562E+03 -7.61900E+03 -4.45450E+03  2.19555E+03 -5.69397E+03  1.01499E+04 -1.34411E+03
  8.47309E+03  8.50493E+03  1.21375E+03  1.50521E+04 -1.07772E+04  1.37488E+04 -1.82973E+04  2.73177E+03
 -1.25915E+04 -9.82913E+03 -6.54790E+00 -1.59782E+04  1.08055E+04 -7.99707E+03  1.12878E+04  4.04601E+03
  3.08599E+03  1.20625E+04 -9.81749E+03  1.37849E+04 -1.69621E+04  5.94650E+03 -1.78221E+04 -6.74939E+03
 -9.62754E+03 -1.93704E+04  5.20753E+03 -2.21253E+04  1.86977E+04 -1.38462E+04  2.11005E+04  3.67572E+03
  1.19797E+04  1.60196E+04 -2.09021E+03  1.90700E+04 -1.40974E+04  1.04095E+04 -1.55261E+04 -1.36483E+03
 -1.27849E+04 -1.25206E+04 -2.02007E+03 -1.46946E+04  7.72942E+03 -1.16980E+04  9.64103E+03 -3.96551E+03
  5.85276E+03  2.90813E+03 -9.12721E+02  2.52051E+03 -9.18840E+02 -4.81111E+03  3.27781E+03 -9.58328E+03
  1.44216E+04 -6.41415E+03  1.99281E+04  2.61546E+03  1.95517E+04  1.37588E+04  1.19960E+04  2.63983E+04
 -6.26718E+03  3.01172E+04 -2.48142E+04  2.17439E+04 -3.20739E+04  4.04442E+03 -2.62129E+04 -1.18068E+04
 -1.28542E+04 -2.12724E+04 -5.98143E-01 -1.78239E+04  6.22495E+03 -1.06082E+04  6.59316E+03 -6.44859E+03
  4.74007E+03 -4.09596E+03  4.47096E+03 -4.68839E+03  6.69635E+03 -4.36306E+03  1.08826E+04 -2.20840E+03
  1.33241E+04  3.25367E+03  7.62015E+03  1.16426E+04 -3.19308E+03  1.45089E+04 -1.43771E+04  1.14774E+04
 -1.86378E+04 -1.48270E+03 -1.23610E+04 -1.32790E+04 -2.43803E+03 -1.99286E+04  1.12169E+04 -1.97327E+04
  2.09106E+04 -1.13136E+04  2.44921E+04  3.61456E+03  1.69554E+04  1.78284E+04  2.64681E+03  2.26178E+04
 -9.35727E+03  1.80829E+04 -1.35054E+04  6.30124E+03 -9.26701E+03 -1.96926E+03 -4.31061E+03 -3.09152E+03
 -1.74878E+03 -7.41709E+01 -3.18086E+03  3.18352E+03 -7.36905E+03  3.48122E+03 -1.31689E+04 -2.13052E+03
 -9.78169E+03 -1.27916E+04 -2.07672E+02 -1.87479E+04  1.14096E+04 -1.75380E+04  1.90914E+04 -5.54157E+03
  1.88973E+04  8.56152E+03  8.88674E+03  1.72069E+04 -4.08385E+03  1.93738E+04 -1.42511E+04  1.20508E+04
 -1.76704E+04  4.96690E+02 -1.42280E+04 -1.19548E+04 -1.73573E+03 -1.65637E+04  8.80626E+03 -1.22287E+04
  1.19455E+04 -3.38762E+03  8.55421E+03  3.45430E+03  3.01006E+03  5.64378E+03  1.81182E+03  2.81634E+03
  3.49558E+03  1.40581E+03  4.71116E+03  2.34681E+03  6.00829E+03  6.30373E+03  4.95036E+03  1.09365E+04
 -3.91945E+03  1.56762E+04 -1.40130E+04  1.54003E+04 -2.08029E+04  4.06812E+03 -2.08463E+04 -9.22030E+03
 -1.04831E+04 -2.00823E+04  3.14040E+03 -2.17272E+04  1.24473E+04 -1.38950E+04  1.64317E+04 -3.44517E+03
  1.24358E+04  7.58964E+03  2.76806E+03  1.16114E+04 -6.02823E+03  7.52350E+03 -8.41711E+03 -1.29995E+03
 -4.14596E+03 -8.77879E+03  4.87126E+03 -8.89004E+03  8.79834E+03 -4.05337E+03  8.26376E+03  1.73119E+03
  4.95748E+03  4.34628E+03  2.20835E+03  3.82600E+03 -1.16077E+03  2.69530E+03  1.87376E+03 -4.27110E+02
  3.57651E+03 -1.08057E+03  8.09240E+03  3.23288E+03  4.74060E+03  1.07726E+04 -1.98160E+03  1.41544E+04
 -1.01663E+04  9.72588E+03 -1.33121E+04  2.75014E+03 -1.18556E+04 -4.35777E+03 -4.74307E+03 -8.31604E+03
  7.56715E+02 -8.20970E+03  5.63074E+03 -3.86726E+03  4.76755E+03  3.70271E+03 -2.12631E+03  6.38768E+03
 -8.18312E+03  4.07640E+03 -9.73812E+03 -4.33023E+03 -5.92332E+03 -1.12413E+04  1.64247E+03 -1.22543E+04
  7.52574E+03 -7.37800E+03  8.61840E+03 -1.07853E+03  6.90438E+03  3.44806E+03  8.61142E+02  6.24231E+03
 -3.90813E+03  1.91329E+03 -4.82058E+03 -3.66752E+03  1.93964E+03 -9.29251E+03  1.04303E+04 -7.26312E+03
  1.39937E+04  1.14830E+03  1.22220E+04  9.05186E+03  3.81826E+03  1.45280E+04 -5.42867E+03  1.32846E+04
 -1.14359E+04  6.06984E+03 -1.20019E+04 -1.73368E+03 -6.80058E+03 -9.31548E+03  2.30989E+03 -8.78126E+03
  8.52054E+03 -4.36864E+03  7.32358E+03  4.18511E+03  2.42192E+03  7.22248E+03 -1.50388E+03  6.70355E+03
 -3.83584E+03  4.34898E+03 -3.84729E+03  9.03600E+02 -1.91685E+03  1.14070E+03 -2.47972E+03  2.79145E+03
 -3.31049E+03  5.69252E+03 -9.75779E+03  5.11707E+03 -1.42035E+04  4.45977E+02 -1.61055E+04 -9.66611E+03
 -7.93782E+03 -1.93655E+04  3.53211E+03 -2.19532E+04  1.43456E+04 -1.70192E+04  2.08005E+04 -6.87971E+03
  1.95069E+04  4.40019E+03  1.22698E+04  1.35251E+04  1.23636E+03  1.50711E+04 -6.24499E+03  1.09613E+04
 -8.10679E+03  4.12601E+03 -5.00950E+03 -1.93125E+03 -1.48900E+03 -1.88153E+03 -5.41848E+02  4.59033E+01
 -2.34263E+03  5.94819E+02 -3.05265E+03 -5.04977E+02 -1.29708E+03 -3.32139E+03  7.38579E+02 -5.88850E+03
  6.17473E+03 -4.46747E+03  9.61469E+03  9.05889E+00  1.07740E+04  8.29899E+03  3.81974E+03  1.54878E+04
 -7.00858E+03  1.74924E+04 -1.66858E+04  9.76910E+03 -1.88110E+04 -1.21144E+03 -1.42450E+04 -1.14588E+04
 -5.87965E+03 -1.60624E+04  4.30076E+03 -1.49961E+04  1.06693E+04 -7.83949E+03  1.07047E+04  7.60681E+02
  5.78225E+03  5.44292E+03 -8.05168E+02  4.94475E+03 -3.12829E+03 -4.03363E+02  2.89000E+02 -3.99394E+03
  4.91623E+03 -2.36005E+03  6.68398E+03  1.99121E+03  4.71854E+03  6.06229E+03  1.96251E+02  8.44269E+03
 -6.80360E+03  7.10485E+03 -1.08490E+04  7.87214E+02 -1.04595E+04 -7.32064E+03 -1.56939E+03 -1.30822E+04
  7.69180E+03 -1.16394E+04  1.26545E+04 -4.18072E+03  1.25671E+04  3.29258E+03  7.08919E+03  9.75163E+03
  9.38222E+02  1.07546E+04 -4.35818E+03  9.08809E+03 -7.04105E+03  4.93499E+03 -5.45401E+03  1.13404E+03
 -3.32402E+03 -8.11355E+02 -2.58626E+03  9.88621E+02 -5.51439E+03  1.69540E+03 -7.78177E+03 -1.64189E+03
 -7.65439E+03 -5.72518E+03 -2.35977E+03 -1.06743E+04  4.59600E+03 -1.13494E+04  9.78065E+03 -5.37519E+03
  1.08857E+04  9.04470E+02  6.29315E+03  8.24746E+03 -9.15707E+02  1.09654E+04 -7.76112E+03  7.42210E+03
