 $NMID ID='MM_0lb_SNR800_10hz_g45_36.RAW', FMTDAT='(8E13.5)'
 TRAMP=1., VOLUME=1. $END
  3.10001E+05  6.49164E+02  3.37678E+05  2.50697E+05  8.45570E+04  3.38576E+05 -1.32835E+05  2.51439E+05
 -1.90441E+05  8.35978E+04 -1.12433E+05 -3.26320E+04  4.06402E+02 -5.07256E+04  5.41077E+04 -6.21073E+02
  3.54392E+04  5.31071E+04 -1.67144E+04  7.52741E+04 -6.11107E+04  6.41865E+04 -8.50077E+04  3.21870E+04
 -8.20210E+04 -1.16950E+04 -5.79727E+04 -5.16442E+04 -1.49478E+04 -7.05651E+04  2.76384E+04 -4.63406E+04
  4.07027E+04  3.61334E+03  1.62947E+04  4.85724E+04 -3.46610E+04  4.81911E+04 -6.78474E+04 -3.67069E+02
 -5.42671E+04 -5.74565E+04 -7.23532E+03 -7.87223E+04  3.47060E+04 -5.65291E+04  4.89496E+04 -1.78358E+04
  4.42711E+04  1.12990E+04  3.26452E+04  2.58975E+04  1.56121E+04  3.04579E+04 -5.59419E+03  2.74525E+04
 -2.21137E+04  1.20886E+04 -1.81667E+04 -5.69874E+03  6.71349E+03 -7.16165E+03  2.28548E+04  1.33110E+04
  7.30348E+03  3.67725E+04 -3.33432E+04  3.66821E+04 -6.49032E+04  1.90461E+03 -5.80739E+04 -4.42318E+04
 -1.27983E+04 -6.49608E+04  4.07681E+04 -4.67272E+04  6.00668E+04 -2.35972E+03  3.57396E+04  3.36794E+04
 -6.03629E+03  3.82897E+04 -3.13131E+04  1.79736E+04 -3.22554E+04 -3.95993E+03 -1.79664E+04 -1.17821E+04
 -9.27102E+03 -1.48105E+04 -5.83822E+02 -1.95855E+04  8.29168E+03 -2.36038E+04  1.61271E+04 -1.26371E+04
  1.10440E+04  5.76430E+03 -1.01280E+04  1.28716E+04 -2.30049E+04 -5.93470E+03 -8.60964E+03 -3.66093E+04
  2.38055E+04 -4.55658E+04  5.12048E+04 -2.06647E+04  4.76042E+04  2.04057E+04  1.68950E+04  4.61568E+04
 -1.64345E+04  3.52093E+04 -2.70939E+04  2.35669E+03 -1.12222E+04 -2.86381E+04  2.19130E+04 -3.58739E+04
  4.36878E+04 -1.06682E+04  3.84845E+04  2.48966E+04  2.07076E+04  4.93438E+04 -8.18559E+03  5.44564E+04
 -3.43520E+04  3.64306E+04 -4.58833E+04  1.05292E+04 -4.61613E+04 -1.77877E+04 -2.53336E+04 -4.08332E+04
  8.35193E+03 -4.09332E+04  3.31690E+04 -1.61342E+04  3.11479E+04  1.11113E+04  4.82468E+03  2.02081E+04
 -1.41071E+04  9.28824E+03 -1.10337E+04 -7.42378E+03  5.40598E+03 -1.13764E+04  1.87873E+04  5.56109E+03
  1.43899E+04  2.27494E+04 -5.50558E+03  2.61120E+04 -2.31971E+04  1.35903E+04 -3.05435E+04 -3.62875E+03
 -2.42574E+04 -1.80968E+04 -1.06872E+04 -2.37023E+04  4.20747E+03 -2.39796E+04  1.85919E+04 -2.15131E+04
  2.97222E+04 -1.36530E+04  3.64914E+04  4.78320E+03  2.61201E+04  2.30705E+04  4.34074E+03  4.01330E+04
 -1.93395E+04  3.26669E+04 -3.00410E+04  1.11898E+04 -2.19210E+04 -1.00822E+04 -4.65068E+03 -1.31720E+04
  1.21797E+03 -1.52007E+03 -6.54645E+03  7.81804E+03 -1.92011E+04  5.23594E+03 -1.89600E+04 -8.94684E+03
 -1.13965E+04 -2.20058E+04  5.54215E+03 -2.64052E+04  1.80410E+04 -1.84952E+04  2.12320E+04 -2.00214E+03
  1.34893E+04  1.51614E+04 -1.38712E+03  2.23488E+04 -1.55317E+04  1.26142E+04 -2.23553E+04 -5.07627E+03
 -1.62185E+04 -1.95528E+04 -1.80210E+03 -2.63004E+04  1.20201E+04 -2.18982E+04  2.19708E+04 -1.12185E+04
  2.07833E+04 -1.20651E+02  1.48098E+04  5.04703E+03  8.03929E+03  1.57355E+03  1.15307E+04 -1.81496E+03
  2.05214E+04  2.93807E+03  2.39026E+04  1.73103E+04  1.58431E+04  3.55505E+04 -2.58106E+03  4.12754E+04
 -2.36494E+04  3.39648E+04 -3.86092E+04  1.73965E+04 -4.14839E+04 -2.94653E+03 -3.35703E+04 -2.40666E+04
 -1.37906E+04 -3.41963E+04  1.19752E+04 -3.02171E+04  2.60249E+04 -1.47220E+04  2.30148E+04  7.27501E+03
  8.27222E+03  1.77173E+04 -1.05532E+04  1.50190E+04 -1.91021E+04  2.81502E+03 -1.42457E+04 -1.19875E+04
 -3.08547E+02 -1.80597E+04  9.84387E+03 -1.30229E+04  1.26178E+04 -1.36806E+03  3.38224E+03  8.20165E+03
 -8.09892E+03  3.50901E+03 -8.35420E+03 -6.38954E+03 -1.67948E+03 -1.69158E+04  1.13373E+04 -1.80762E+04
  2.10453E+04 -1.02961E+04  2.33787E+04  3.25333E+03  2.09099E+04  1.69604E+04  9.68544E+03  2.59980E+04
 -4.89305E+03  2.91151E+04 -1.85850E+04  1.80223E+04 -2.05532E+04  3.78770E+03 -1.41309E+04 -5.16491E+03
 -6.17276E+03 -6.18932E+03 -8.67686E+02  6.32059E+02 -3.08298E+03  3.02020E+03 -6.74437E+03  5.03300E+03
 -1.26470E+04 -7.59366E+02 -1.35231E+04 -1.08886E+04 -5.53505E+03 -1.81958E+04  5.70157E+03 -1.43417E+04
  1.18090E+04 -6.18291E+03  8.52683E+03  4.04985E+03 -2.48946E+02  5.38724E+03 -7.06029E+03  1.30143E+02
 -6.63886E+03 -9.18650E+03 -1.07309E+03 -1.42482E+04  8.07850E+03 -1.48648E+04  1.79991E+04 -7.91187E+03
  2.15916E+04  1.84474E+03  1.56758E+04  1.27461E+04  3.38221E+03  1.69476E+04 -8.97126E+03  1.40222E+04
 -1.15570E+04  4.25087E+03 -6.19078E+03 -3.24108E+03  2.07926E+03 -3.99416E+03  7.80814E+03 -1.06796E+03
  7.22808E+03  6.12521E+03  1.58677E+03  1.17346E+04 -8.44729E+03  1.09168E+04 -1.43596E+04  2.74086E+03
 -9.66378E+03 -7.71518E+03  2.69778E+02 -1.20786E+04  7.88992E+03 -6.25766E+03  7.93287E+03  2.94930E+03
  2.01961E+03  9.00092E+03 -7.28187E+03  1.03700E+04 -1.17357E+04  4.48944E+03 -1.21651E+04 -4.63337E+03
 -6.97893E+03 -1.39418E+04  3.54456E+03 -1.59485E+04  1.36836E+04 -9.66534E+03  1.46938E+04  2.75442E+03
  8.89457E+03  1.22965E+04 -1.36706E+03  1.43059E+04 -1.00884E+04  7.90745E+03 -1.15629E+04 -1.16323E+03
 -9.47137E+03 -1.01562E+04 -1.46061E+03 -1.08490E+04  5.74876E+03 -8.86854E+03  6.78590E+03 -3.64904E+03
  4.44898E+03  1.45026E+03 -8.94328E+02  1.73775E+03 -6.58390E+02 -2.85164E+03  2.15831E+03 -6.64960E+03
  9.48326E+03 -4.00530E+03  1.41347E+04  1.32857E+03  1.39740E+04  9.71802E+03  9.21189E+03  1.83018E+04
 -4.32820E+03  2.09388E+04 -1.76880E+04  1.57221E+04 -2.30572E+04  3.01662E+03 -1.80914E+04 -7.99327E+03
 -9.76969E+03 -1.49037E+04 -4.58763E+02 -1.26709E+04  4.25225E+03 -7.17480E+03  4.93129E+03 -4.82594E+03
  3.27843E+03 -3.19571E+03  3.95241E+03 -3.79727E+03  5.39167E+03 -3.48822E+03  7.15423E+03 -1.05640E+03
  9.62465E+03  2.25187E+03  4.96660E+03  8.55756E+03 -2.11603E+03  9.29060E+03 -1.02073E+04  7.41863E+03
 -1.31607E+04 -1.35813E+03 -8.33284E+03 -8.55590E+03 -8.37947E+02 -1.35219E+04  7.21936E+03 -1.38015E+04
  1.42314E+04 -7.72017E+03  1.71482E+04  2.02876E+03  1.16896E+04  1.17889E+04  1.48477E+03  1.53981E+04
 -6.63042E+03  1.24984E+04 -8.97892E+03  4.03429E+03 -6.15409E+03 -1.78765E+03 -2.59272E+03 -1.86880E+03
 -1.54033E+03 -1.14369E+02 -2.11920E+03  2.80060E+03 -5.77538E+03  2.05659E+03 -9.05954E+03 -1.07817E+03
 -6.00838E+03 -8.72847E+03 -6.97221E+00 -1.26874E+04  7.75636E+03 -1.17992E+04  1.25406E+04 -3.69461E+03
  1.27446E+04  6.13821E+03  5.45552E+03  1.16693E+04 -2.42425E+03  1.30090E+04 -8.78729E+03  8.00436E+03
 -1.19519E+04  2.83422E+02 -9.17860E+03 -7.82552E+03 -1.14995E+03 -1.04213E+04  5.57737E+03 -7.53692E+03
  7.80501E+03 -2.85133E+03  5.42999E+03  2.31989E+03  2.11650E+03  3.79241E+03  1.47724E+03  1.65056E+03
  2.26467E+03  9.02483E+02  3.17923E+03  1.81091E+03  3.74776E+03  4.53719E+03  3.38238E+03  6.52567E+03
 -2.64891E+03  1.03606E+04 -8.35880E+03  1.02938E+04 -1.26489E+04  2.85810E+03 -1.33787E+04 -5.35294E+03
 -6.56348E+03 -1.28322E+04  2.06534E+03 -1.44757E+04  7.79178E+03 -8.85966E+03  1.05241E+04 -2.45542E+03
  8.31862E+03  4.96242E+03  1.44584E+03  7.40482E+03 -3.50748E+03  4.91211E+03 -5.27824E+03 -9.21618E+02
 -2.27327E+03 -5.73950E+03  2.93180E+03 -5.29729E+03  5.45351E+03 -2.82827E+03  4.94473E+03  1.27926E+03
  2.99947E+03  2.51634E+03  1.36609E+03  2.06268E+03 -9.04815E+02  2.02967E+03  1.94757E+03 -7.31161E+02
  1.62133E+03 -8.47018E+02  5.30012E+03  2.29025E+03  2.72381E+03  6.82362E+03 -1.17113E+03  9.04109E+03
 -6.24898E+03  5.63966E+03 -8.52736E+03  1.51571E+03 -6.95316E+03 -3.09417E+03 -2.63179E+03 -5.03488E+03
  9.49324E+02 -5.13706E+03  3.43010E+03 -2.17603E+03  2.98517E+03  2.27614E+03 -1.27176E+03  3.83089E+03
 -5.77091E+03  2.11173E+03 -5.92771E+03 -3.09657E+03 -3.55721E+03 -7.16664E+03  1.19649E+03 -6.98328E+03
  3.57821E+03 -4.34865E+03  4.95044E+03 -8.74616E+02  4.22342E+03  1.95733E+03  5.26083E+02  3.71389E+03
 -2.64790E+03  1.27100E+03 -3.45478E+03 -2.36799E+03  1.14979E+03 -5.24572E+03  6.55786E+03 -4.33973E+03
  7.70986E+03  7.94647E+02  7.77937E+03  5.40681E+03  2.74339E+03  8.08156E+03 -2.98637E+03  7.86409E+03
 -6.80781E+03  3.36915E+03 -7.18446E+03 -9.32670E+02 -3.89090E+03 -5.54922E+03  1.49085E+03 -5.03213E+03
  5.09179E+03 -2.66197E+03  4.39155E+03  2.20496E+03  1.47978E+03  4.66140E+03 -9.43288E+02  4.06660E+03
 -2.17612E+03  2.85319E+03 -1.82164E+03  9.90324E+02 -9.44149E+02  8.89829E+02 -1.72304E+03  1.62469E+03
 -1.88656E+03  3.08894E+03 -5.91848E+03  2.74621E+03 -8.30084E+03  1.94111E+02 -8.94057E+03 -5.34733E+03
 -4.59087E+03 -1.09734E+04  2.19332E+03 -1.25967E+04  7.61569E+03 -9.74310E+03  1.19592E+04 -3.82721E+03
  1.10239E+04  2.31431E+03  7.06080E+03  7.67450E+03  6.32916E+02  8.22681E+03 -3.23226E+03  6.21801E+03
 -4.82493E+03  2.30282E+03 -3.29999E+03 -1.37909E+03 -1.09353E+03 -1.22530E+03 -5.19602E+02  1.47022E+02
 -1.55702E+03  2.16653E+02 -2.17306E+03 -2.30000E+02 -7.81842E+02 -2.37413E+03  2.40278E+02 -3.42371E+03
  3.71570E+03 -2.70167E+03  4.86755E+03  3.03703E+01  5.86969E+03  4.42606E+03  1.61945E+03  8.49776E+03
 -3.94018E+03  9.69445E+03 -8.81533E+03  5.73182E+03 -1.04937E+04 -6.83964E+02 -7.69817E+03 -6.42869E+03
 -3.50059E+03 -8.21821E+03  2.36244E+03 -7.90656E+03  5.62572E+03 -4.14936E+03  5.35911E+03  6.32453E+02
  3.04438E+03  2.75144E+03 -3.59011E+02  2.47334E+03 -1.36246E+03 -1.51819E+02 -8.30043E+01 -1.99926E+03
  2.54252E+03 -7.99443E+02  3.49206E+03  7.64652E+02  2.49175E+03  3.64219E+03  1.19130E+02  4.24921E+03
 -3.55780E+03  3.55433E+03 -5.44236E+03  2.62700E+02 -5.41600E+03 -4.28066E+03 -9.09559E+02 -6.76000E+03
  3.94348E+03 -5.82187E+03  6.24020E+03 -1.93447E+03  6.51947E+03  1.44779E+03  4.08152E+03  5.10147E+03
  7.18897E+02  5.45141E+03 -1.90447E+03  4.60081E+03 -3.62153E+03  2.91837E+03 -2.70723E+03  4.04792E+02
 -1.82285E+03 -2.22917E+02 -1.63018E+03  1.06505E+03 -2.95008E+03  8.10658E+02 -4.09587E+03 -4.46119E+02
 -4.33969E+03 -2.95863E+03 -1.19046E+03 -5.75295E+03  2.67869E+03 -5.92425E+03  5.27963E+03 -2.46557E+03
  5.88011E+03  1.02166E+03  3.02744E+03  4.14115E+03 -8.15436E+02  5.31901E+03 -4.33128E+03  3.81255E+03
