 $NMID ID='MM_0lb_SNR800_16hz_g40_100.RAW', FMTDAT='(8E13.5)'
 TRAMP=1., VOLUME=1. $END
  3.09709E+05  3.90341E+02  3.36918E+05  2.50476E+05  8.43994E+04  3.37405E+05 -1.32380E+05  2.50631E+05
 -1.89711E+05  8.26937E+04 -1.11118E+05 -3.25862E+04  1.19389E+03 -5.04586E+04  5.39594E+04 -1.41646E+02
  3.52635E+04  5.26261E+04 -1.68986E+04  7.48267E+04 -6.05953E+04  6.29070E+04 -8.31779E+04  3.16581E+04
 -7.99973E+04 -1.10501E+04 -5.68245E+04 -5.05461E+04 -1.49552E+04 -6.84874E+04  2.69491E+04 -4.50327E+04
  3.92509E+04  3.84972E+03  1.58675E+04  4.74098E+04 -3.38872E+04  4.62520E+04 -6.56295E+04 -3.99899E+02
 -5.22837E+04 -5.61406E+04 -6.59893E+03 -7.57648E+04  3.34143E+04 -5.37644E+04  4.67900E+04 -1.67746E+04
  4.23911E+04  1.10290E+04  3.11123E+04  2.46382E+04  1.56476E+04  2.85521E+04 -4.98457E+03  2.69347E+04
 -2.17266E+04  1.26224E+04 -1.88318E+04 -4.54780E+03  4.76448E+03 -7.76645E+03  2.14682E+04  1.13797E+04
  7.39986E+03  3.37783E+04 -3.08322E+04  3.42523E+04 -6.15532E+04  1.98996E+03 -5.57812E+04 -4.13892E+04
 -1.22734E+04 -6.14027E+04  3.85873E+04 -4.40509E+04  5.62252E+04 -1.96774E+03  3.27837E+04  3.08339E+04
 -6.29497E+03  3.38459E+04 -2.90178E+04  1.39480E+04 -2.83285E+04 -5.16290E+03 -1.49316E+04 -1.02531E+04
 -7.65581E+03 -1.20943E+04 -9.47896E+02 -1.68473E+04  6.62620E+03 -2.29524E+04  1.51301E+04 -1.35056E+04
  1.17978E+04  4.39892E+03 -6.97714E+03  1.29823E+04 -1.98797E+04 -2.97281E+03 -8.05189E+03 -3.12810E+04
  2.16198E+04 -4.13465E+04  4.58872E+04 -1.88910E+04  4.29587E+04  1.85825E+04  1.50205E+04  4.24730E+04
 -1.53019E+04  3.18836E+04 -2.40473E+04  1.49990E+03 -8.69446E+03 -2.68579E+04  2.07596E+04 -3.17644E+04
  3.90380E+04 -7.94577E+03  3.29106E+04  2.29031E+04  1.61919E+04  4.36070E+04 -7.88309E+03  4.70224E+04
 -2.94014E+04  3.08390E+04 -3.86720E+04  8.44175E+03 -3.97494E+04 -1.58115E+04 -2.20444E+04 -3.59694E+04
  7.05468E+03 -3.55910E+04  2.97982E+04 -1.35376E+04  2.74937E+04  1.09654E+04  3.47012E+03  1.81920E+04
 -1.32075E+04  7.54415E+03 -9.90690E+03 -7.63368E+03  5.99901E+03 -1.03294E+04  1.75985E+04  6.18853E+03
  1.27422E+04  2.16689E+04 -6.33544E+03  2.37435E+04 -2.15403E+04  1.00998E+04 -2.62215E+04 -5.56674E+03
 -1.79295E+04 -1.69360E+04 -6.37099E+03 -1.79233E+04  3.90582E+03 -1.63600E+04  1.34651E+04 -1.56323E+04
  2.29349E+04 -1.21366E+04  2.96725E+04  1.61651E+03  2.19436E+04  1.75157E+04  4.30760E+03  3.37967E+04
 -1.64537E+04  2.86676E+04 -2.65002E+04  9.75058E+03 -1.97497E+04 -1.03087E+04 -3.88741E+03 -1.38329E+04
  2.27445E+03 -3.51724E+03 -3.40372E+03  6.02323E+03 -1.41739E+04  5.12387E+03 -1.42501E+04 -5.61676E+03
 -9.10982E+03 -1.66557E+04  4.79642E+03 -2.06093E+04  1.35702E+04 -1.47854E+04  1.57483E+04 -1.54582E+03
  9.80058E+03  1.17390E+04 -8.37699E+02  1.68338E+04 -1.13856E+04  9.56577E+03 -1.68502E+04 -3.44549E+03
 -1.22646E+04 -1.50975E+04 -1.50244E+03 -2.04594E+04  9.14130E+03 -1.64861E+04  1.70148E+04 -8.07784E+03
  1.54203E+04  7.06685E+02  1.11725E+04  4.16437E+03  6.12257E+03  7.72607E+02  8.47573E+03 -1.79974E+03
  1.51553E+04  2.69399E+03  1.65321E+04  1.34583E+04  1.04159E+04  2.66459E+04 -3.06108E+03  2.92964E+04
 -1.72019E+04  2.27087E+04 -2.68936E+04  1.10233E+04 -2.81972E+04 -2.10183E+03 -2.36249E+04 -1.58443E+04
 -1.10777E+04 -2.32554E+04  7.78748E+03 -2.11850E+04  1.84666E+04 -1.13215E+04  1.67612E+04  4.34628E+03
  6.91702E+03  1.18398E+04 -7.60303E+03  1.14365E+04 -1.45426E+04  2.67740E+03 -1.10022E+04 -8.88765E+03
 -3.59464E+02 -1.37049E+04  6.71629E+03 -1.03899E+04  8.56245E+03 -1.47264E+03  1.73144E+03  5.52119E+03
 -6.25822E+03  1.84636E+03 -4.36388E+03 -4.97399E+03  3.41962E+02 -1.13644E+04  8.08020E+03 -1.13035E+04
  1.35348E+04 -5.85439E+03  1.41615E+04  2.96885E+03  1.23849E+04  1.06844E+04  5.26754E+03  1.62936E+04
 -2.26334E+03  1.81328E+04 -1.10889E+04  1.12827E+04 -1.28779E+04  2.92738E+03 -9.76303E+03 -2.64562E+03
 -4.69708E+03 -3.41753E+03 -6.76001E+02  1.02457E+03 -1.93184E+03  1.94579E+03 -4.65030E+03  4.13590E+03
 -9.06435E+03 -3.62738E+02 -1.00069E+04 -7.75158E+03 -3.91824E+03 -1.27855E+04  4.01623E+03 -9.61831E+03
  8.26717E+03 -4.00103E+03  5.74469E+03  2.33946E+03  6.31597E+02  3.49056E+03 -3.80537E+03 -4.34971E+02
 -4.04800E+03 -6.05555E+03 -8.30666E+02 -8.57179E+03  4.69999E+03 -9.03468E+03  1.14617E+04 -4.81893E+03
  1.35346E+04  1.01997E+03  9.98691E+03  7.11573E+03  1.94313E+03  1.04040E+04 -5.78468E+03  9.54234E+03
 -7.67662E+03  2.94271E+03 -3.99349E+03 -1.44416E+03  1.50121E+03 -2.11179E+03  5.21934E+03 -9.45814E+02
  4.61292E+03  3.93333E+03  1.08947E+03  7.17607E+03 -5.25701E+03  7.31216E+03 -8.84537E+03  1.59467E+03
 -5.92966E+03 -4.50712E+03  3.27688E+02 -7.59114E+03  4.79586E+03 -4.11215E+03  4.28424E+03  1.44505E+03
  9.35339E+02  4.57581E+03 -4.59441E+03  5.83928E+03 -6.09187E+03  2.99029E+03 -5.86094E+03 -1.43996E+03
 -3.82827E+03 -7.26595E+03  1.75675E+03 -8.84717E+03  7.31433E+03 -5.44024E+03  7.97362E+03  1.12075E+03
  5.41094E+03  6.43800E+03 -2.71628E+02  8.63226E+03 -6.01591E+03  4.87222E+03 -6.43104E+03 -7.27454E+02
 -6.42470E+03 -5.75851E+03 -1.26805E+03 -6.02485E+03  3.17936E+03 -5.11744E+03  3.58969E+03 -2.90480E+03
  3.11285E+03  5.54144E+02  4.03611E+01  1.45642E+03  1.59133E+02 -3.53231E+02  5.63933E+02 -2.64658E+03
  4.89302E+03 -1.35095E+03  7.04721E+03  7.26726E+02  6.90561E+03  4.46686E+03  6.09585E+03  9.38539E+03
 -1.74418E+03  1.05413E+04 -9.70641E+03  8.20721E+03 -1.21209E+04  1.55109E+03 -9.94997E+03 -3.33043E+03
 -5.17876E+03 -8.21269E+03 -2.41415E+02 -6.65904E+03  2.56247E+03 -3.02329E+03  2.14994E+03 -2.40684E+03
  1.50965E+03 -1.61592E+03  2.21636E+03 -2.60025E+03  3.78116E+03 -1.37199E+03  4.54704E+03  2.89323E+01
  5.48161E+03  1.27430E+03  1.68027E+03  3.92899E+03 -1.52520E+03  4.12310E+03 -5.37507E+03  3.40567E+03
 -6.39323E+03 -1.07795E+03 -2.59386E+03 -4.41343E+03  5.57060E+02 -6.70347E+03  4.09096E+03 -6.63701E+03
  6.69941E+03 -3.78283E+03  8.42395E+03  5.27087E+02  6.06338E+03  5.54286E+03  1.43724E+03  7.63358E+03
 -2.72996E+03  7.00364E+03 -3.95845E+03  2.25362E+03 -2.85338E+03 -7.00015E+02 -1.02991E+03 -8.23777E+02
 -9.27514E+02  4.09709E+02 -8.62462E+02  1.95298E+03 -3.07161E+03  1.05408E+03 -4.88778E+03 -7.99353E+02
 -2.58096E+03 -5.09782E+03  7.74719E+02 -6.15048E+03  3.39944E+03 -5.95367E+03  5.21852E+03 -1.61049E+03
  5.69992E+03  3.06186E+03  2.58434E+03  4.75264E+03 -8.43463E+02  6.00003E+03 -3.61214E+03  3.54504E+03
 -5.25494E+03  9.71412E+02 -4.32077E+03 -3.50993E+03 -2.50417E+02 -4.55287E+03  2.40794E+03 -3.34277E+03
  3.78973E+03 -1.79142E+03  2.60584E+03  7.39745E+02  7.64220E+02  1.93210E+03  7.27960E+02  9.33647E+02
  2.08186E+03  8.37242E+02  1.64310E+03  8.54363E+02  1.41145E+03  2.66270E+03  1.86916E+03  2.51161E+03
 -1.45383E+03  4.37389E+03 -3.78934E+03  5.15508E+03 -4.84448E+03  1.26108E+03 -5.65572E+03 -1.10376E+03
 -2.30149E+03 -5.24200E+03  9.49157E+02 -6.47697E+03  2.83658E+03 -3.72196E+03  4.04507E+03 -1.24557E+03
  3.43156E+03  2.54731E+03  7.63832E+02  3.44815E+03 -1.23570E+03  2.09677E+03 -1.79867E+03 -1.14308E+02
 -7.69346E+02 -2.27004E+03  1.61577E+03 -2.02005E+03  2.25752E+03 -1.44809E+03  1.89083E+03  3.64750E+02
  1.43181E+03  5.89722E+02  6.75143E+02  1.36422E+02 -1.24050E+02  1.02728E+03  1.60461E+03 -2.99379E+01
  2.52222E+02 -2.01370E+02  2.33153E+03  5.87353E+02  6.24572E+02  3.07394E+03 -3.43181E+02  3.87027E+03
 -2.37710E+03  1.86599E+03 -3.18306E+03  4.93495E+02 -2.84875E+03 -1.22677E+03 -7.27399E+02 -1.85315E+03
  2.90249E+02 -2.14036E+03  1.71644E+03 -8.42493E+02  1.17714E+03  1.49083E+03 -1.00086E+03  1.43813E+03
 -2.06319E+03  1.13232E+03 -1.79006E+03 -1.42704E+03 -1.45641E+03 -3.18822E+03  3.92599E+02 -2.52861E+03
  1.12931E+03 -1.31070E+03  1.52914E+03 -5.04821E+01  1.87564E+03  2.50822E+02  4.02227E+02  1.45739E+03
 -5.85624E+02  3.33946E+02 -1.01638E+03 -6.78366E+02  8.43210E+02 -1.40795E+03  2.77746E+03 -1.42297E+03
  2.29490E+03  6.48730E+01  3.61546E+03  1.71949E+03  1.38896E+03  2.81900E+03 -6.43887E+02  2.80678E+03
 -2.28688E+03  6.61742E+02 -2.41325E+03 -6.01972E+02 -1.63290E+03 -2.09686E+03  5.65397E+02 -1.23034E+03
  1.90614E+03 -1.03981E+03  1.25960E+03  1.18526E+03  4.44017E+02  1.74245E+03  7.67016E+01  1.63706E+03
 -5.41362E+02  1.57807E+03 -9.12827E+02  6.20441E+01 -3.30204E+02  5.39657E+02 -9.59510E+02  6.91934E+02
 -6.54061E+02  1.45430E+03 -2.47783E+03  7.34433E+02 -2.49255E+03  2.37741E+02 -3.20295E+03 -1.87905E+03
 -1.72034E+03 -3.57894E+03  9.22627E+02 -4.05958E+03  2.09379E+03 -3.51947E+03  4.24501E+03 -1.45578E+03
  3.88608E+03  3.04469E+02  2.22235E+03  2.32350E+03 -3.83813E+02  2.58081E+03 -1.27615E+03  2.41478E+03
 -1.34351E+03  9.42685E+02 -7.96564E+02 -4.16478E+02 -2.92973E+02 -1.01298E+02 -5.31106E+02 -6.95914E+01
 -1.00099E+03  2.34363E+02 -8.58549E+02  3.09188E+02  9.19658E+01 -8.79991E+02 -4.15630E+02 -1.11999E+03
  1.91667E+03 -9.84856E+02  1.11846E+03  2.50826E+02  2.06418E+03  1.48063E+03 -2.44765E+02  2.32695E+03
 -1.41275E+03  3.37699E+03 -2.74897E+03  2.02439E+03 -3.33065E+03 -2.36710E+02 -1.79631E+03 -2.15557E+03
 -8.91090E+02 -2.46781E+03  3.12448E+02 -2.43008E+03  1.18375E+03 -1.00396E+03  1.39015E+03  1.11402E+02
  8.75540E+02  6.73468E+02  1.53630E+02  7.24901E+02 -5.24886E+02  7.99324E+00 -4.55307E+01 -6.87353E+02
  9.10609E+02  2.56313E+02  8.34964E+02  6.03054E+02  6.57807E+02  1.20443E+03  5.23546E+02  9.16480E+02
 -1.23847E+03  1.01347E+03 -1.32741E+03 -7.89456E+01 -1.24731E+03 -8.93890E+02 -1.47519E+02 -2.24022E+03
  1.01603E+03 -1.32615E+03  1.27415E+03  6.11942E+01  1.51866E+03 -4.37902E+02  8.94422E+02  1.50982E+03
  5.31459E+02  1.17335E+03 -4.85265E+02  9.49308E+02 -9.72233E+02  1.12610E+03 -4.21372E+02  7.03212E+01
 -3.50542E+02 -1.87472E+02 -4.13350E+02  4.67836E+02 -6.90160E+02  8.88841E+01 -1.26047E+03 -5.22684E+02
 -1.30876E+03 -6.16978E+01 -5.74568E+02 -1.69479E+03  1.03150E+03 -1.96998E+03  1.15998E+03 -9.43783E+02
  1.14683E+03  1.01352E+01  4.15695E+02  7.97554E+02 -7.50656E+01  1.72380E+03 -6.37567E+02  9.58895E+02
