 $NMID ID='MM_0lb_SNR800_14hz_g55_54.RAW', FMTDAT='(8E13.5)'
 TRAMP=1., VOLUME=1. $END
  3.10021E+05  3.06695E+02  3.37474E+05  2.50704E+05  8.45403E+04  3.38032E+05 -1.32303E+05  2.51235E+05
 -1.90450E+05  8.32185E+04 -1.11803E+05 -3.24393E+04  8.95417E+02 -5.03949E+04  5.37281E+04  1.01353E+02
  3.52333E+04  5.29487E+04 -1.65049E+04  7.57220E+04 -6.10509E+04  6.36335E+04 -8.44672E+04  3.21497E+04
 -8.18314E+04 -1.13883E+04 -5.72135E+04 -5.12572E+04 -1.49717E+04 -7.00807E+04  2.76600E+04 -4.59033E+04
  4.01682E+04  3.90854E+03  1.63563E+04  4.81856E+04 -3.44250E+04  4.74482E+04 -6.67958E+04 -1.66267E+02
 -5.34669E+04 -5.67948E+04 -6.86746E+03 -7.71842E+04  3.40335E+04 -5.58505E+04  4.84190E+04 -1.74954E+04
  4.38087E+04  1.12185E+04  3.22115E+04  2.53164E+04  1.57392E+04  2.96535E+04 -5.42733E+03  2.75234E+04
 -2.17838E+04  1.21041E+04 -1.85490E+04 -5.16988E+03  5.66234E+03 -7.56823E+03  2.27176E+04  1.26312E+04
  6.99381E+03  3.59335E+04 -3.22872E+04  3.57027E+04 -6.41332E+04  1.89373E+03 -5.75670E+04 -4.35677E+04
 -1.26236E+04 -6.39509E+04  4.01671E+04 -4.56608E+04  5.87922E+04 -2.55913E+03  3.45714E+04  3.27328E+04
 -6.05771E+03  3.69373E+04 -3.02713E+04  1.65341E+04 -3.09378E+04 -4.39236E+03 -1.72623E+04 -1.11320E+04
 -8.50596E+03 -1.37379E+04 -5.83217E+02 -1.81877E+04  7.76922E+03 -2.31893E+04  1.57533E+04 -1.32927E+04
  1.10931E+04  5.52002E+03 -8.75654E+03  1.28973E+04 -2.15680E+04 -4.94300E+03 -8.26525E+03 -3.46290E+04
  2.32084E+04 -4.39854E+04  4.91020E+04 -1.98451E+04  4.58547E+04  1.98691E+04  1.58807E+04  4.45355E+04
 -1.58453E+04  3.40126E+04 -2.57904E+04  1.87321E+03 -9.91890E+03 -2.81817E+04  2.12359E+04 -3.42916E+04
  4.19246E+04 -9.67809E+03  3.63841E+04  2.40571E+04  1.88088E+04  4.70624E+04 -8.32697E+03  5.12047E+04
 -3.25392E+04  3.44342E+04 -4.33553E+04  9.62366E+03 -4.30530E+04 -1.66856E+04 -2.39403E+04 -3.85954E+04
  7.32828E+03 -3.84349E+04  3.19360E+04 -1.51795E+04  2.96691E+04  1.07747E+04  4.24484E+03  1.95354E+04
 -1.34879E+04  8.53417E+03 -1.03758E+04 -7.95587E+03  5.86846E+03 -1.08803E+04  1.79788E+04  6.08990E+03
  1.37632E+04  2.22032E+04 -5.88371E+03  2.51746E+04 -2.24140E+04  1.17366E+04 -2.87226E+04 -4.39263E+03
 -2.12965E+04 -1.76351E+04 -9.14943E+03 -2.13191E+04  4.19826E+03 -2.06785E+04  1.64547E+04 -1.92669E+04
  2.73928E+04 -1.29594E+04  3.31883E+04  3.04678E+03  2.44460E+04  2.08096E+04  4.10868E+03  3.73418E+04
 -1.82013E+04  3.11474E+04 -2.82780E+04  1.08373E+04 -2.13491E+04 -1.02450E+04 -4.65649E+03 -1.35064E+04
  1.65299E+03 -2.69753E+03 -5.34741E+03  6.87491E+03 -1.68162E+04  5.53905E+03 -1.67362E+04 -7.44890E+03
 -1.05454E+04 -1.95728E+04  4.94791E+03 -2.37008E+04  1.57014E+04 -1.69657E+04  1.86255E+04 -1.34352E+03
  1.20776E+04  1.35261E+04 -7.50363E+02  1.99235E+04 -1.36105E+04  1.13224E+04 -1.97081E+04 -3.86291E+03
 -1.47465E+04 -1.75677E+04 -1.79276E+03 -2.39793E+04  1.08718E+04 -1.95967E+04  1.97453E+04 -9.57899E+03
  1.82413E+04  1.31926E+02  1.30947E+04  4.40652E+03  6.93270E+03  8.88176E+02  9.78608E+03 -1.70143E+03
  1.80077E+04  3.04874E+03  2.01245E+04  1.54851E+04  1.31335E+04  3.09061E+04 -2.99449E+03  3.53495E+04
 -2.06149E+04  2.88265E+04 -3.29411E+04  1.46631E+04 -3.46176E+04 -2.72075E+03 -2.88334E+04 -2.01403E+04
 -1.24263E+04 -2.87004E+04  1.00356E+04 -2.55322E+04  2.21156E+04 -1.30143E+04  1.99474E+04  5.92087E+03
  7.27995E+03  1.49798E+04 -9.43444E+03  1.29654E+04 -1.66399E+04  2.83348E+03 -1.29371E+04 -1.05148E+04
 -5.13712E+01 -1.55141E+04  8.17722E+03 -1.18722E+04  1.08375E+04 -1.59823E+03  2.62787E+03  6.88995E+03
 -7.18648E+03  2.45546E+03 -6.24980E+03 -5.78099E+03 -7.75383E+02 -1.39737E+04  1.01558E+04 -1.47873E+04
  1.76408E+04 -7.76526E+03  1.87723E+04  3.26564E+03  1.63458E+04  1.40785E+04  7.64287E+03  2.11253E+04
 -3.36599E+03  2.29874E+04 -1.52247E+04  1.44935E+04 -1.66794E+04  3.38144E+03 -1.20141E+04 -4.01947E+03
 -5.54654E+03 -4.94216E+03 -8.89454E+02  1.41452E+03 -2.50231E+03  2.47570E+03 -5.40894E+03  4.43582E+03
 -1.08080E+04 -6.63391E+02 -1.16810E+04 -9.57653E+03 -4.50706E+03 -1.49556E+04  4.82365E+03 -1.17280E+04
  9.83669E+03 -4.90893E+03  7.37464E+03  2.89682E+03  8.78585E+01  4.32725E+03 -5.30534E+03  7.30443E+01
 -5.03747E+03 -7.39183E+03 -8.48787E+02 -1.11631E+04  6.30894E+03 -1.17168E+04  1.46788E+04 -6.10571E+03
  1.69929E+04  1.12287E+03  1.26652E+04  9.85265E+03  2.47687E+03  1.35243E+04 -7.34714E+03  1.14634E+04
 -9.75313E+03  3.51492E+03 -4.99137E+03 -1.91521E+03  1.41019E+03 -3.10016E+03  6.46939E+03 -1.19632E+03
  5.54222E+03  5.25937E+03  1.17216E+03  9.30961E+03 -6.79024E+03  9.04326E+03 -1.13120E+04  2.43199E+03
 -7.64437E+03 -5.87257E+03  2.22595E+02 -9.88190E+03  6.14952E+03 -4.58297E+03  5.93265E+03  2.01557E+03
  1.34869E+03  6.28899E+03 -5.87296E+03  7.70134E+03 -8.65551E+03  3.66849E+03 -8.50809E+03 -2.95645E+03
 -4.99687E+03 -1.03087E+04  2.48890E+03 -1.19914E+04  9.78423E+03 -7.55936E+03  1.05823E+04  2.07813E+03
  6.81205E+03  8.66617E+03 -7.12372E+02  1.10982E+04 -7.86308E+03  6.18765E+03 -8.60668E+03 -1.09069E+03
 -7.85883E+03 -7.46237E+03 -1.52927E+03 -7.77413E+03  4.45036E+03 -6.78570E+03  4.96558E+03 -3.36572E+03
  3.68581E+03  9.65605E+02 -1.47621E+02  1.81276E+03 -2.52981E+01 -1.33996E+03  1.42854E+03 -4.45130E+03
  6.74219E+03 -2.64344E+03  9.78388E+03  1.36413E+03  9.89138E+03  6.51907E+03  7.30564E+03  1.27095E+04
 -2.81036E+03  1.50351E+04 -1.29976E+04  1.12791E+04 -1.66509E+04  2.07197E+03 -1.30306E+04 -5.23205E+03
 -6.77611E+03 -1.07342E+04 -5.11306E+02 -8.83957E+03  3.29522E+03 -4.65318E+03  3.39460E+03 -3.41565E+03
  2.02900E+03 -1.88999E+03  3.01816E+03 -3.18197E+03  4.45630E+03 -2.42994E+03  5.27526E+03 -2.19622E+01
  7.11202E+03  1.90393E+03  3.14129E+03  6.17460E+03 -1.67406E+03  6.30290E+03 -7.04417E+03  5.20491E+03
 -9.23983E+03 -1.09532E+03 -4.86851E+03 -6.02010E+03 -4.77953E+01 -9.55379E+03  5.44130E+03 -9.57400E+03
  9.80657E+03 -5.48443E+03  1.19207E+04  1.30596E+03  8.09682E+03  8.28377E+03  1.57409E+03  1.05789E+04
 -4.10415E+03  9.16435E+03 -6.04542E+03  3.12755E+03 -4.07602E+03 -1.29906E+03 -1.32574E+03 -1.13344E+03
 -5.69046E+02  2.53897E+02 -1.46778E+03  2.54018E+03 -4.06673E+03  1.60667E+03 -6.32019E+03 -8.15842E+02
 -3.53231E+03 -6.20547E+03  3.35903E+02 -8.88382E+03  5.07462E+03 -7.87726E+03  7.53708E+03 -2.30902E+03
  8.24979E+03  4.26677E+03  3.69155E+03  6.78426E+03 -1.37421E+03  8.28281E+03 -5.18289E+03  5.12526E+03
 -7.70835E+03  5.54482E+02 -5.96524E+03 -5.04684E+03 -5.17785E+02 -6.90343E+03  3.61608E+03 -5.00036E+03
  4.98738E+03 -1.86864E+03  3.57547E+03  1.09959E+03  1.46269E+03  2.92681E+03  1.13612E+03  9.12115E+02
  2.16879E+03  6.92217E+02  2.22123E+03  1.37908E+03  2.29481E+03  3.03554E+03  2.43246E+03  3.87414E+03
 -1.61752E+03  6.16340E+03 -5.64474E+03  6.86150E+03 -7.62768E+03  1.91770E+03 -8.21441E+03 -2.80934E+03
 -3.86220E+03 -7.91801E+03  1.02377E+03 -8.82850E+03  4.58003E+03 -5.40409E+03  6.50102E+03 -1.54033E+03
  5.09478E+03  3.19780E+03  1.01508E+03  4.66992E+03 -1.75632E+03  2.73907E+03 -2.67499E+03 -3.86185E+02
 -1.27114E+03 -3.19339E+03  1.72809E+03 -3.46213E+03  3.11718E+03 -1.86499E+03  2.99488E+03  7.81403E+02
  2.09969E+03  1.42852E+03  1.11715E+03  6.00690E+02 -3.97539E+02  1.21277E+03  1.53393E+03 -8.15874E+02
  7.33359E+02 -4.69041E+02  3.06694E+03  1.31031E+03  1.69137E+03  4.26505E+03 -7.44506E+02  5.48635E+03
 -3.62741E+03  3.45653E+03 -4.56365E+03  6.66334E+02 -4.53285E+03 -1.65190E+03 -1.01639E+03 -2.83602E+03
  6.39132E+02 -2.81829E+03  1.99763E+03 -1.73090E+03  1.85379E+03  2.15393E+03 -7.22795E+02  2.62056E+03
 -2.88221E+03  1.59377E+03 -2.99898E+03 -1.84796E+03 -1.68710E+03 -4.29566E+03  6.14276E+02 -3.59971E+03
  1.96008E+03 -2.18217E+03  2.38388E+03  9.21679E+00  2.70839E+03  5.67713E+02  2.92576E+02  2.29844E+03
 -1.22782E+03  4.04976E+02 -1.98786E+03 -1.06819E+03  1.18742E+03 -2.70892E+03  3.61003E+03 -2.15677E+03
  3.87961E+03  2.23285E+02  4.96983E+03  2.61312E+03  1.56143E+03  4.33429E+03 -1.27508E+03  4.06297E+03
 -3.62381E+03  1.61184E+03 -3.65044E+03 -6.35124E+02 -1.94804E+03 -2.66783E+03  7.57237E+02 -2.56166E+03
  2.87546E+03 -1.48724E+03  2.12238E+03  1.42108E+03  3.37952E+02  2.33464E+03 -2.15538E+02  2.07733E+03
 -1.11184E+03  1.44683E+03 -1.31270E+03  3.34251E+02 -8.10259E+01  6.84781E+02 -8.01086E+02  1.35174E+03
 -1.31487E+03  2.27339E+03 -3.42246E+03  1.35614E+03 -4.25893E+03 -1.28687E+02 -5.01449E+03 -2.53614E+03
 -2.75875E+03 -5.80732E+03  1.28095E+03 -6.84569E+03  3.58388E+03 -5.20229E+03  6.29791E+03 -1.67137E+03
  5.81944E+03  6.96915E+02  3.30254E+03  3.90219E+03  8.89460E+01  3.88324E+03 -1.68451E+03  3.44387E+03
 -3.11426E+03  1.16500E+03 -1.54337E+03 -4.51659E+02 -8.72802E+02 -2.40054E+02 -6.56312E+02 -2.39230E+02
 -1.39812E+03 -1.96018E+02 -1.54815E+03 -2.31892E+02  5.97283E+00 -1.12538E+03 -3.56914E+02 -1.56078E+03
  2.34399E+03 -1.49689E+03  2.12884E+03  6.79293E+01  2.93308E+03  2.63963E+03  3.32929E+02  4.21525E+03
 -2.20086E+03  4.88007E+03 -4.32268E+03  3.23568E+03 -4.77258E+03 -4.13535E+02 -3.78903E+03 -3.06997E+03
 -1.82888E+03 -4.16265E+03  8.45523E+02 -3.48024E+03  2.32249E+03 -1.73110E+03  2.46997E+03  1.61026E+02
  1.79026E+03  1.12962E+03 -1.95437E+02  1.01923E+03 -9.21254E+02 -4.12820E+01  1.25704E+02 -9.34311E+02
  1.44895E+03 -1.61620E+02  1.76515E+03  7.92719E+02  7.78800E+02  1.70255E+03  4.44843E+02  1.56628E+03
 -1.73405E+03  1.77171E+03 -2.34824E+03  1.34862E+02 -2.03847E+03 -1.59894E+03 -1.71648E+02 -3.50174E+03
  1.74618E+03 -2.36400E+03  2.21640E+03 -6.85153E+02  2.66566E+03  3.22304E+02  1.37097E+03  2.02268E+03
  4.12295E+02  2.19240E+03 -9.92090E+02  2.03333E+03 -1.50060E+03  1.53097E+03 -1.28996E+03  4.41003E+02
 -6.38041E+02 -1.73667E+02 -9.44869E+02  3.93364E+02 -1.57166E+03  6.54314E+02 -1.80888E+03 -5.19502E+02
 -2.22170E+03 -6.21741E+02 -8.78881E+02 -2.66501E+03  1.29204E+03 -3.13541E+03  2.28134E+03 -1.05848E+03
  2.19964E+03  2.62741E+02  9.12099E+02  1.89573E+03 -8.17607E+01  2.03537E+03 -1.92035E+03  1.61459E+03
