 $NMID ID='MM_0lb_SNR800_7hz_g40_91.RAW', FMTDAT='(8E13.5)'
 TRAMP=1., VOLUME=1. $END
  3.09374E+05  2.64177E+02  3.38033E+05  2.50783E+05  8.52691E+04  3.38447E+05 -1.32614E+05  2.52278E+05
 -1.91158E+05  8.37361E+04 -1.12220E+05 -3.26736E+04 -2.08111E+02 -5.09771E+04  5.38140E+04 -5.30868E+02
  3.53890E+04  5.32328E+04 -1.64845E+04  7.59041E+04 -6.12746E+04  6.43798E+04 -8.55860E+04  3.25527E+04
 -8.26109E+04 -1.18154E+04 -5.83209E+04 -5.22722E+04 -1.47668E+04 -7.12302E+04  2.85466E+04 -4.67572E+04
  4.14102E+04  3.44745E+03  1.66305E+04  4.91273E+04 -3.47162E+04  4.81280E+04 -6.85543E+04  5.20433E+02
 -5.47184E+04 -5.80081E+04 -7.45691E+03 -7.93585E+04  3.51263E+04 -5.74316E+04  5.03112E+04 -1.83554E+04
  4.55557E+04  1.17281E+04  3.32263E+04  2.69738E+04  1.60163E+04  3.07535E+04 -5.94609E+03  2.80603E+04
 -2.31307E+04  1.20994E+04 -1.81265E+04 -5.81247E+03  7.27494E+03 -7.28603E+03  2.34358E+04  1.37180E+04
  7.25964E+03  3.77763E+04 -3.42847E+04  3.76449E+04 -6.66922E+04  2.12340E+03 -5.89734E+04 -4.48101E+04
 -1.26646E+04 -6.67724E+04  4.18273E+04 -4.79798E+04  6.17565E+04 -2.89663E+03  3.74481E+04  3.49433E+04
 -4.92675E+03  4.05203E+04 -3.19773E+04  1.95934E+04 -3.41722E+04 -2.66654E+03 -1.99251E+04 -1.25054E+04
 -9.65542E+03 -1.51770E+04 -1.47187E+02 -1.99966E+04  8.47806E+03 -2.36738E+04  1.61162E+04 -1.25159E+04
  1.02144E+04  6.33963E+03 -1.12207E+04  1.29649E+04 -2.39699E+04 -7.06904E+03 -8.97545E+03 -3.84912E+04
  2.58414E+04 -4.76135E+04  5.33408E+04 -2.15706E+04  4.95463E+04  2.12105E+04  1.77763E+04  4.80979E+04
 -1.73670E+04  3.68402E+04 -2.84388E+04  2.65553E+03 -1.16339E+04 -2.99595E+04  2.15459E+04 -3.80087E+04
  4.52801E+04 -1.11003E+04  4.18959E+04  2.52379E+04  2.22714E+04  5.23511E+04 -8.37567E+03  5.76875E+04
 -3.61122E+04  3.94340E+04 -4.86837E+04  1.16877E+04 -4.84341E+04 -1.92864E+04 -2.67850E+04 -4.28759E+04
  8.04818E+03 -4.30802E+04  3.45776E+04 -1.74577E+04  3.26547E+04  1.11729E+04  5.78626E+03  2.12916E+04
 -1.41186E+04  9.91280E+03 -1.13903E+04 -7.55253E+03  5.31916E+03 -1.20231E+04  1.94512E+04  5.57837E+03
  1.51338E+04  2.28626E+04 -5.43715E+03  2.75297E+04 -2.38609E+04  1.54595E+04 -3.26512E+04 -2.46057E+03
 -2.64405E+04 -1.83775E+04 -1.22107E+04 -2.61591E+04  4.49574E+03 -2.72487E+04  2.11282E+04 -2.43005E+04
  3.37677E+04 -1.44503E+04  3.98340E+04  5.48970E+03  2.79021E+04  2.54580E+04  4.39131E+03  4.26091E+04
 -1.99667E+04  3.50727E+04 -3.10962E+04  1.22855E+04 -2.27873E+04 -1.01956E+04 -4.66168E+03 -1.25391E+04
  2.82849E+02 -5.47170E+02 -8.33153E+03  8.24014E+03 -2.17474E+04  4.78605E+03 -2.12214E+04 -1.03055E+04
 -1.22430E+04 -2.42789E+04  5.88334E+03 -2.88177E+04  1.95668E+04 -2.06892E+04  2.40594E+04 -1.84983E+03
  1.56042E+04  1.70686E+04 -1.15729E+03  2.45394E+04 -1.76231E+04  1.38867E+04 -2.45126E+04 -5.19759E+03
 -1.76810E+04 -2.23749E+04 -2.35505E+03 -2.99004E+04  1.32868E+04 -2.47698E+04  2.45375E+04 -1.24428E+04
  2.33727E+04 -1.53299E+02  1.68460E+04  5.45950E+03  9.33817E+03  1.31190E+03  1.30462E+04 -2.03789E+03
  2.36266E+04  3.25214E+03  2.69815E+04  1.92207E+04  1.88861E+04  3.95047E+04 -2.31342E+03  4.74761E+04
 -2.65333E+04  3.99011E+04 -4.47962E+04  2.05496E+04 -4.79031E+04 -3.86687E+03 -3.90790E+04 -2.78775E+04
 -1.48438E+04 -3.98076E+04  1.43706E+04 -3.45000E+04  2.99751E+04 -1.61761E+04  2.57329E+04  8.26214E+03
  8.41591E+03  2.01780E+04 -1.24602E+04  1.64202E+04 -2.13033E+04  2.47650E+03 -1.60216E+04 -1.40921E+04
 -2.94475E+01 -2.06710E+04  1.10566E+04 -1.49763E+04  1.44530E+04 -1.17251E+03  3.78919E+03  9.31916E+03
 -8.97205E+03  4.61905E+03 -1.02520E+04 -7.41929E+03 -2.01055E+03 -1.94670E+04  1.28721E+04 -2.13136E+04
  2.50372E+04 -1.22505E+04  2.93378E+04  3.14217E+03  2.52406E+04  2.05883E+04  1.13956E+04  3.23753E+04
 -6.40997E+03  3.40568E+04 -2.22983E+04  2.08918E+04 -2.48841E+04  3.55571E+03 -1.65293E+04 -7.01151E+03
 -6.72527E+03 -8.25840E+03 -3.75430E+02  3.06186E+02 -3.29750E+03  3.91420E+03 -7.61901E+03  6.14418E+03
 -1.52010E+04 -5.13952E+02 -1.61260E+04 -1.29009E+04 -6.17186E+03 -2.11652E+04  6.39924E+03 -1.72890E+04
  1.38957E+04 -7.25060E+03  9.97853E+03  4.07264E+03 -2.11721E+02  6.33405E+03 -8.87886E+03  1.65503E+02
 -8.10154E+03 -1.05292E+04 -1.13751E+03 -1.70196E+04  9.54102E+03 -1.76290E+04  2.20523E+04 -9.73326E+03
  2.59293E+04  2.78842E+03  1.91354E+04  1.60208E+04  4.04961E+03  2.12540E+04 -1.06779E+04  1.70437E+04
 -1.42749E+04  4.75557E+03 -6.92339E+03 -3.95975E+03  2.08486E+03 -5.00301E+03  8.82254E+03 -1.08344E+03
  8.27732E+03  7.90652E+03  1.36165E+03  1.38007E+04 -1.01888E+04  1.28161E+04 -1.69311E+04  3.38648E+03
 -1.19485E+04 -9.31540E+03  3.31101E+02 -1.50337E+04  1.02395E+04 -7.34159E+03  1.00194E+04  4.26757E+03
  2.47561E+03  1.12833E+04 -9.20889E+03  1.30158E+04 -1.56251E+04  5.82832E+03 -1.58630E+04 -5.55249E+03
 -9.40919E+03 -1.79105E+04  4.63124E+03 -2.09652E+04  1.77003E+04 -1.21805E+04  1.90779E+04  3.80989E+03
  1.14478E+04  1.51643E+04 -1.88602E+03  1.74744E+04 -1.31351E+04  9.95213E+03 -1.38053E+04 -1.62527E+03
 -1.17509E+04 -1.18240E+04 -1.66418E+03 -1.34722E+04  7.32138E+03 -1.05580E+04  8.60615E+03 -4.02578E+03
  5.05133E+03  2.65960E+03 -1.16511E+03  2.06213E+03 -6.92577E+02 -3.57365E+03  3.41332E+03 -8.81832E+03
  1.33665E+04 -5.76296E+03  1.86959E+04  1.98957E+03  1.77992E+04  1.28003E+04  1.12521E+04  2.41442E+04
 -5.69382E+03  2.74868E+04 -2.27480E+04  2.01814E+04 -2.93377E+04  3.94790E+03 -2.35768E+04 -1.01225E+04
 -1.13074E+04 -1.92711E+04 -5.46837E+02 -1.67975E+04  5.40554E+03 -9.64120E+03  6.16268E+03 -6.13758E+03
  4.19420E+03 -2.87418E+03  4.50235E+03 -4.14839E+03  6.44968E+03 -3.93712E+03  9.33698E+03 -1.67370E+03
  1.18324E+04  2.93790E+03  7.01852E+03  1.12325E+04 -1.75289E+03  1.32568E+04 -1.28731E+04  1.01771E+04
 -1.72254E+04 -1.44957E+03 -1.12070E+04 -1.20397E+04 -1.86854E+03 -1.86221E+04  1.02304E+04 -1.84567E+04
  1.89509E+04 -9.93744E+03  2.29092E+04  3.65779E+03  1.54620E+04  1.63821E+04  1.70607E+03  2.08849E+04
 -9.44458E+03  1.61079E+04 -1.21220E+04  5.58906E+03 -8.63227E+03 -1.91538E+03 -3.26002E+03 -2.69416E+03
 -1.76924E+03 -2.81664E+02 -2.60041E+03  3.23146E+03 -7.47360E+03  2.90036E+03 -1.20143E+04 -1.73841E+03
 -8.65154E+03 -1.15542E+04 -2.79151E+02 -1.67853E+04  1.07049E+04 -1.60485E+04  1.76706E+04 -4.88826E+03
  1.73285E+04  8.15144E+03  8.75463E+03  1.57320E+04 -3.70278E+03  1.74432E+04 -1.25508E+04  1.14631E+04
 -1.70206E+04  5.22016E+02 -1.25230E+04 -1.09889E+04 -1.50581E+03 -1.45180E+04  7.76352E+03 -1.09657E+04
  1.11641E+04 -3.61337E+03  7.59916E+03  3.33717E+03  2.76586E+03  5.11301E+03  1.87064E+03  2.99487E+03
  2.49403E+03  1.39487E+03  4.37478E+03  2.39607E+03  5.72871E+03  6.31843E+03  4.67245E+03  9.68045E+03
 -3.51703E+03  1.39787E+04 -1.26766E+04  1.38580E+04 -1.87277E+04  3.35679E+03 -1.93881E+04 -8.00262E+03
 -9.22655E+03 -1.84902E+04  2.54859E+03 -1.98186E+04  1.08848E+04 -1.28211E+04  1.52512E+04 -3.06012E+03
  1.17749E+04  6.58076E+03  2.60595E+03  1.08536E+04 -5.75663E+03  6.54200E+03 -7.69783E+03 -9.70256E+02
 -3.61156E+03 -7.85460E+03  4.12992E+03 -8.47156E+03  7.65953E+03 -3.62369E+03  7.48149E+03  1.84003E+03
  4.55258E+03  4.42463E+03  1.75422E+03  3.12938E+03 -7.51172E+02  2.76316E+03  1.45552E+03 -6.16963E+02
  3.42431E+03 -7.47344E+02  7.69972E+03  2.87430E+03  4.52552E+03  1.00383E+04 -1.40074E+03  1.32538E+04
 -9.15704E+03  8.54497E+03 -1.20245E+04  2.12488E+03 -1.06176E+04 -4.32407E+03 -4.23251E+03 -7.31880E+03
  1.44382E+03 -7.06439E+03  4.99672E+03 -3.63004E+03  4.03520E+03  3.38107E+03 -2.23181E+03  6.32056E+03
 -8.11438E+03  3.65699E+03 -9.21866E+03 -4.12950E+03 -5.16758E+03 -1.02315E+04  1.71928E+03 -1.05688E+04
  6.23418E+03 -6.19087E+03  8.09751E+03 -1.68296E+02  5.75982E+03  2.81178E+03  5.88387E+02  5.25554E+03
 -3.78817E+03  1.42456E+03 -4.63553E+03 -3.87710E+03  1.79616E+03 -7.82375E+03  9.33697E+03 -6.99432E+03
  1.24137E+04  1.18113E+03  1.16940E+04  8.77927E+03  3.35684E+03  1.32666E+04 -4.91468E+03  1.15194E+04
 -1.02397E+04  5.53160E+03 -1.09270E+04 -1.94658E+03 -5.53828E+03 -8.20253E+03  2.34814E+03 -8.54102E+03
  7.81062E+03 -3.62037E+03  6.82561E+03  2.97444E+03  2.11765E+03  6.93172E+03 -1.10133E+03  5.90369E+03
 -3.22260E+03  3.69149E+03 -3.19205E+03  1.50493E+03 -1.48013E+03  1.04290E+03 -1.69040E+03  2.66807E+03
 -3.08640E+03  4.81710E+03 -8.64557E+03  4.65082E+03 -1.29564E+04 -2.00950E+02 -1.42529E+04 -8.69968E+03
 -7.54948E+03 -1.72354E+04  3.61328E+03 -2.02505E+04  1.26447E+04 -1.54574E+04  1.87081E+04 -5.97751E+03
  1.75717E+04  4.25228E+03  1.11950E+04  1.19672E+04  1.75596E+03  1.39737E+04 -5.38015E+03  9.98036E+03
 -7.40038E+03  4.06231E+03 -4.97666E+03 -1.65741E+03 -1.64992E+03 -1.69489E+03 -4.07781E+02  6.62019E+01
 -2.11123E+03  9.52857E+02 -2.72094E+03 -6.51961E+02 -1.38451E+03 -3.33059E+03  4.76112E+02 -5.14546E+03
  5.86566E+03 -4.20555E+03  8.60256E+03  1.21910E+02  9.83450E+03  7.83955E+03  2.93749E+03  1.42320E+04
 -6.54349E+03  1.57800E+04 -1.49135E+04  9.41221E+03 -1.69084E+04 -1.15948E+03 -1.28276E+04 -1.01296E+04
 -5.08578E+03 -1.42276E+04  3.81605E+03 -1.32293E+04  9.34406E+03 -7.24521E+03  9.47797E+03  6.54962E+02
  5.22224E+03  5.01700E+03 -7.52917E+02  4.05245E+03 -2.82711E+03 -2.69700E+02  1.06042E+02 -3.29060E+03
  4.07369E+03 -2.02562E+03  5.78497E+03  1.68277E+03  4.04587E+03  5.35599E+03  9.14516E+00  7.83874E+03
 -6.09152E+03  6.81777E+03 -9.63977E+03  8.81183E+02 -8.91835E+03 -6.24694E+03 -1.61983E+03 -1.18965E+04
  6.86242E+03 -1.01545E+04  1.15160E+04 -3.14541E+03  1.13979E+04  3.30142E+03  6.54930E+03  9.28105E+03
  1.45406E+03  9.40807E+03 -3.68085E+03  7.67941E+03 -6.22706E+03  4.07559E+03 -4.99443E+03  3.23599E+02
 -2.94207E+03 -3.73474E+02 -2.34367E+03  1.52431E+03 -5.28385E+03  1.57642E+03 -7.16037E+03 -1.35905E+03
 -6.93068E+03 -5.30291E+03 -1.85565E+03 -9.68357E+03  4.52400E+03 -1.01959E+04  8.74840E+03 -4.40178E+03
  1.00656E+04  1.27620E+03  5.79053E+03  7.12775E+03 -5.17710E+02  1.02847E+04 -7.89207E+03  6.31292E+03
