 $NMID ID='MM_0lb_SNR800_9hz_g45_13.RAW', FMTDAT='(8E13.5)'
 TRAMP=1., VOLUME=1. $END
  3.09428E+05  4.73990E+01  3.37573E+05  2.50511E+05  8.46201E+04  3.38656E+05 -1.32296E+05  2.52205E+05
 -1.90624E+05  8.39114E+04 -1.12458E+05 -3.22480E+04  1.27442E+02 -5.06939E+04  5.35987E+04 -5.95806E+02
  3.51831E+04  5.29154E+04 -1.64307E+04  7.58083E+04 -6.12385E+04  6.44296E+04 -8.49803E+04  3.23635E+04
 -8.19242E+04 -1.18751E+04 -5.80631E+04 -5.22111E+04 -1.51403E+04 -7.09816E+04  2.80383E+04 -4.66823E+04
  4.10974E+04  3.77044E+03  1.68926E+04  4.84396E+04 -3.42963E+04  4.81337E+04 -6.77807E+04 -1.97412E+02
 -5.49000E+04 -5.77372E+04 -7.38822E+03 -7.86076E+04  3.46813E+04 -5.64119E+04  4.92587E+04 -1.80111E+04
  4.51623E+04  1.13656E+04  3.31054E+04  2.62260E+04  1.61073E+04  3.02382E+04 -5.90620E+03  2.78603E+04
 -2.20573E+04  1.18107E+04 -1.83212E+04 -5.22034E+03  6.68874E+03 -7.15178E+03  2.31082E+04  1.33880E+04
  6.75000E+03  3.71345E+04 -3.34135E+04  3.69713E+04 -6.55451E+04  2.35003E+03 -5.84160E+04 -4.42898E+04
 -1.23663E+04 -6.56064E+04  4.13444E+04 -4.73753E+04  6.10807E+04 -2.56541E+03  3.64261E+04  3.42950E+04
 -5.68342E+03  3.91114E+04 -3.16573E+04  1.83043E+04 -3.31205E+04 -4.03030E+03 -1.94142E+04 -1.17958E+04
 -9.34510E+03 -1.48855E+04 -7.45304E+02 -1.98049E+04  8.42491E+03 -2.30989E+04  1.58874E+04 -1.25854E+04
  1.03476E+04  6.13418E+03 -1.04562E+04  1.27232E+04 -2.27814E+04 -6.39565E+03 -8.58988E+03 -3.67944E+04
  2.51786E+04 -4.63340E+04  5.16245E+04 -2.06555E+04  4.83674E+04  2.07132E+04  1.69322E+04  4.68154E+04
 -1.66086E+04  3.60754E+04 -2.73241E+04  2.51831E+03 -1.16678E+04 -2.89399E+04  2.15324E+04 -3.67059E+04
  4.45303E+04 -1.10883E+04  3.96855E+04  2.46873E+04  2.08257E+04  5.07302E+04 -8.76589E+03  5.51334E+04
 -3.48477E+04  3.77008E+04 -4.71629E+04  1.10907E+04 -4.72014E+04 -1.82714E+04 -2.60141E+04 -4.15375E+04
  7.56919E+03 -4.17632E+04  3.38307E+04 -1.69513E+04  3.17666E+04  1.11276E+04  4.81906E+03  2.08203E+04
 -1.40823E+04  9.51839E+03 -1.10664E+04 -7.54942E+03  5.53834E+03 -1.10088E+04  1.89694E+04  5.48623E+03
  1.48775E+04  2.24896E+04 -5.52057E+03  2.71256E+04 -2.32841E+04  1.39461E+04 -3.10424E+04 -3.06329E+03
 -2.47125E+04 -1.84039E+04 -1.14009E+04 -2.44458E+04  3.98307E+03 -2.50340E+04  1.95971E+04 -2.26258E+04
  3.11476E+04 -1.40780E+04  3.77867E+04  4.22135E+03  2.67989E+04  2.40139E+04  4.67810E+03  4.09337E+04
 -1.95266E+04  3.37224E+04 -3.07613E+04  1.18767E+04 -2.21547E+04 -1.08809E+04 -4.64025E+03 -1.28592E+04
  9.86579E+02 -1.24169E+03 -7.57571E+03  8.07083E+03 -1.95222E+04  4.94508E+03 -1.96027E+04 -8.93182E+03
 -1.16249E+04 -2.27549E+04  6.05091E+03 -2.73697E+04  1.85954E+04 -1.93288E+04  2.24584E+04 -2.08671E+03
  1.38239E+04  1.59019E+04 -1.51201E+03  2.27041E+04 -1.63673E+04  1.32128E+04 -2.30369E+04 -4.81035E+03
 -1.66150E+04 -2.02304E+04 -1.95944E+03 -2.76402E+04  1.28732E+04 -2.29551E+04  2.28865E+04 -1.17006E+04
  2.15700E+04 -3.24373E+02  1.50287E+04  4.94512E+03  8.39635E+03  1.61567E+03  1.18973E+04 -2.00416E+03
  2.14592E+04  3.05369E+03  2.47890E+04  1.81039E+04  1.69241E+04  3.68549E+04 -2.52135E+03  4.35966E+04
 -2.45680E+04  3.61802E+04 -4.09550E+04  1.87175E+04 -4.39046E+04 -3.39971E+03 -3.52957E+04 -2.55263E+04
 -1.42905E+04 -3.59750E+04  1.29062E+04 -3.20298E+04  2.73759E+04 -1.49249E+04  2.36120E+04  7.91440E+03
  7.62271E+03  1.83492E+04 -1.14703E+04  1.51628E+04 -1.96679E+04  2.07596E+03 -1.50060E+04 -1.24974E+04
 -9.34426E+01 -1.92112E+04  9.98485E+03 -1.43098E+04  1.28038E+04 -1.24789E+03  3.13437E+03  8.38855E+03
 -8.50025E+03  4.22045E+03 -8.51064E+03 -6.74877E+03 -1.89026E+03 -1.75755E+04  1.16938E+04 -1.94761E+04
  2.22950E+04 -1.08302E+04  2.55505E+04  3.18589E+03  2.24536E+04  1.79214E+04  1.05578E+04  2.83652E+04
 -5.35144E+03  3.03435E+04 -1.98954E+04  1.90531E+04 -2.19358E+04  4.41724E+03 -1.54415E+04 -5.47329E+03
 -6.55744E+03 -6.81693E+03 -3.84093E+02  6.67960E+02 -2.64020E+03  3.24426E+03 -7.02400E+03  5.21903E+03
 -1.37186E+04 -9.89107E+02 -1.43219E+04 -1.16481E+04 -5.85156E+03 -1.90298E+04  6.34752E+03 -1.56908E+04
  1.28036E+04 -6.35530E+03  8.94139E+03  3.92524E+03 -1.11147E+02  6.01109E+03 -7.29434E+03 -2.62473E+02
 -7.63222E+03 -9.78700E+03 -1.18215E+03 -1.51274E+04  8.76246E+03 -1.62898E+04  1.90142E+04 -8.09215E+03
  2.34617E+04  2.64231E+03  1.67889E+04  1.41381E+04  3.67390E+03  1.86316E+04 -9.52787E+03  1.51751E+04
 -1.25088E+04  4.02023E+03 -6.16770E+03 -2.95203E+03  1.99462E+03 -4.19713E+03  8.35194E+03 -1.24755E+03
  7.29354E+03  6.53604E+03  1.38791E+03  1.19187E+04 -8.78666E+03  1.17111E+04 -1.51150E+04  2.98131E+03
 -1.06912E+04 -8.02970E+03  4.62659E+02 -1.34160E+04  8.50028E+03 -6.63995E+03  9.36016E+03  3.33272E+03
  2.31555E+03  9.83751E+03 -8.16444E+03  1.13054E+04 -1.33119E+04  4.85822E+03 -1.37323E+04 -4.89897E+03
 -8.06462E+03 -1.55015E+04  3.41752E+03 -1.75773E+04  1.47856E+04 -1.03344E+04  1.63049E+04  3.23545E+03
  9.89847E+03  1.29096E+04 -1.64776E+03  1.54391E+04 -1.15144E+04  8.69672E+03 -1.24524E+04 -1.48668E+03
 -1.04238E+04 -1.02411E+04 -1.43771E+03 -1.17476E+04  6.12312E+03 -9.37119E+03  7.51576E+03 -3.42573E+03
  4.98745E+03  1.97066E+03 -1.03831E+03  1.77472E+03 -6.03673E+02 -3.63526E+03  2.59140E+03 -7.47568E+03
  1.12716E+04 -4.99367E+03  1.54392E+04  1.80279E+03  1.48638E+04  1.09681E+04  1.00460E+04  2.03592E+04
 -4.67720E+03  2.32359E+04 -1.94362E+04  1.70493E+04 -2.50706E+04  3.09774E+03 -2.02934E+04 -8.57034E+03
 -9.92046E+03 -1.68101E+04 -4.14147E+02 -1.42808E+04  4.84243E+03 -7.81214E+03  5.31868E+03 -5.26938E+03
  3.51081E+03 -2.69105E+03  3.83358E+03 -4.13214E+03  6.09539E+03 -3.83612E+03  7.87836E+03 -1.14504E+03
  1.04895E+04  2.14956E+03  5.64972E+03  8.97869E+03 -1.84491E+03  1.09272E+04 -1.11763E+04  8.22006E+03
 -1.42033E+04 -1.85005E+03 -9.35109E+03 -1.02290E+04 -1.22036E+03 -1.56447E+04  8.33690E+03 -1.48814E+04
  1.60469E+04 -8.71016E+03  1.88743E+04  2.54497E+03  1.28677E+04  1.31490E+04  2.10519E+03  1.72080E+04
 -6.83847E+03  1.39684E+04 -1.02128E+04  4.78826E+03 -6.83183E+03 -1.91734E+03 -2.42135E+03 -1.83017E+03
 -1.15394E+03  3.38985E+01 -2.68520E+03  2.84827E+03 -6.00207E+03  2.60473E+03 -9.99964E+03 -1.40470E+03
 -7.18159E+03 -9.51576E+03 -2.13672E+02 -1.39312E+04  8.49865E+03 -1.34727E+04  1.44884E+04 -4.48431E+03
  1.42636E+04  7.10427E+03  6.87832E+03  1.25302E+04 -2.75709E+03  1.45550E+04 -1.05259E+04  8.83991E+03
 -1.37416E+04  6.42254E+02 -1.01023E+04 -9.02620E+03 -1.01920E+03 -1.22659E+04  6.26494E+03 -8.69610E+03
  9.40782E+03 -2.88547E+03  6.32892E+03  2.40521E+03  2.02592E+03  4.56909E+03  1.62957E+03  1.78017E+03
  2.74503E+03  1.15087E+03  3.51266E+03  1.91392E+03  4.31330E+03  5.31900E+03  3.53498E+03  7.43761E+03
 -2.99860E+03  1.15002E+04 -1.01341E+04  1.12653E+04 -1.44591E+04  3.06387E+03 -1.50760E+04 -5.60775E+03
 -6.91186E+03 -1.47099E+04  2.25139E+03 -1.62750E+04  9.10785E+03 -9.96921E+03  1.17027E+04 -2.19313E+03
  9.04724E+03  5.54304E+03  1.72257E+03  8.44583E+03 -3.94048E+03  4.80212E+03 -5.78333E+03 -6.05252E+02
 -2.84929E+03 -6.41646E+03  3.56270E+03 -6.46513E+03  5.89835E+03 -3.04654E+03  5.91327E+03  1.12478E+03
  3.33845E+03  2.86545E+03  1.32767E+03  2.66704E+03 -1.15571E+03  1.98687E+03  1.86419E+03 -4.38365E+02
  2.74555E+03 -4.74836E+02  5.99129E+03  2.39822E+03  3.32778E+03  7.50385E+03 -1.62246E+03  1.01970E+04
 -7.05907E+03  6.52624E+03 -9.83533E+03  1.88446E+03 -8.40514E+03 -3.40865E+03 -3.04470E+03 -5.84109E+03
  9.97532E+02 -6.05194E+03  3.80994E+03 -2.98462E+03  3.16978E+03  2.85452E+03 -1.24997E+03  4.86234E+03
 -6.15886E+03  2.90947E+03 -6.99499E+03 -3.09292E+03 -3.85686E+03 -7.76668E+03  1.18848E+03 -8.05969E+03
  4.59615E+03 -4.72954E+03  6.13012E+03 -6.12414E+02  4.73936E+03  2.27007E+03  7.23562E+02  4.29542E+03
 -2.47141E+03  1.56932E+03 -3.68339E+03 -3.56653E+03  1.37034E+03 -6.30506E+03  7.48629E+03 -5.25619E+03
  9.43849E+03  6.53474E+02  8.88453E+03  6.34083E+03  2.89465E+03  9.79476E+03 -3.76907E+03  8.96350E+03
 -8.50141E+03  4.26245E+03 -8.45220E+03 -1.52428E+03 -4.17464E+03 -6.32463E+03  1.14530E+03 -6.05153E+03
  6.13813E+03 -3.05128E+03  5.13184E+03  2.79245E+03  1.73916E+03  5.54295E+03 -4.82824E+02  4.95434E+03
 -2.27961E+03  3.14782E+03 -2.40735E+03  1.14353E+03 -1.33493E+03  9.00892E+02 -1.40824E+03  1.91123E+03
 -2.52566E+03  3.82297E+03 -6.85282E+03  3.56937E+03 -9.41240E+03 -1.15405E+02 -1.10951E+04 -6.37342E+03
 -5.57347E+03 -1.29524E+04  2.18216E+03 -1.54404E+04  9.22328E+03 -1.17032E+04  1.41119E+04 -4.43698E+03
  1.29713E+04  3.22190E+03  7.76219E+03  8.80762E+03  9.09335E+02  1.02549E+04 -3.98387E+03  7.45929E+03
 -5.81782E+03  2.41910E+03 -3.75466E+03 -1.02724E+03 -1.24553E+03 -9.25424E+02 -2.71337E+02  6.54648E+01
 -1.67791E+03  2.39051E+02 -2.19824E+03 -1.87305E+02 -1.20185E+03 -2.36031E+03  3.89484E+02 -3.76258E+03
  4.88210E+03 -3.44322E+03  6.22656E+03  4.83238E+02  7.07845E+03  5.55686E+03  2.06235E+03  9.88368E+03
 -4.58226E+03  1.17211E+04 -1.07699E+04  7.14256E+03 -1.26202E+04 -1.03576E+03 -9.52740E+03 -7.61443E+03
 -3.75785E+03 -1.08309E+04  2.42978E+03 -9.90998E+03  6.71904E+03 -5.18197E+03  6.57986E+03  1.02135E+02
  3.64404E+03  3.82556E+03 -1.23545E+02  2.86884E+03 -1.91810E+03 -2.78086E+02  1.82471E+02 -2.19711E+03
  3.01839E+03 -1.10389E+03  4.30676E+03  1.45050E+03  2.55340E+03  4.11623E+03  8.85247E+01  5.12318E+03
 -4.35229E+03  4.92029E+03 -7.14101E+03  1.85001E+02 -6.23546E+03 -4.76649E+03 -7.86090E+02 -8.40123E+03
  4.64647E+03 -7.34703E+03  7.88096E+03 -2.19232E+03  8.04597E+03  1.32635E+03  4.43287E+03  6.28366E+03
  8.18161E+02  7.39313E+03 -2.96717E+03  5.61157E+03 -4.57811E+03  2.88206E+03 -3.44873E+03  1.03914E+01
 -1.88902E+03 -3.36924E+02 -2.00191E+03  9.69505E+02 -3.87736E+03  1.15655E+03 -4.70138E+03 -9.13815E+02
 -4.80737E+03 -3.54041E+03 -1.72700E+03 -6.98046E+03  2.90357E+03 -7.12812E+03  5.68574E+03 -3.61215E+03
  6.56393E+03  1.07723E+03  3.33168E+03  5.34114E+03 -6.65432E+02  7.09358E+03 -5.39693E+03  4.50196E+03
