 $NMID ID='MM_0lb_SNR800_7hz_g40_78.RAW', FMTDAT='(8E13.5)'
 TRAMP=1., VOLUME=1. $END
  3.10018E+05  4.34608E+02  3.38238E+05  2.50574E+05  8.49652E+04  3.38260E+05 -1.32646E+05  2.52230E+05
 -1.90712E+05  8.40758E+04 -1.12770E+05 -3.19885E+04  8.18721E+01 -5.06120E+04  5.35535E+04 -3.51104E+02
  3.56901E+04  5.29167E+04 -1.69402E+04  7.63553E+04 -6.13721E+04  6.43206E+04 -8.51353E+04  3.27645E+04
 -8.28223E+04 -1.18009E+04 -5.83677E+04 -5.23444E+04 -1.50863E+04 -7.12218E+04  2.82621E+04 -4.71369E+04
  4.11159E+04  3.19189E+03  1.64066E+04  4.91702E+04 -3.49046E+04  4.87146E+04 -6.81556E+04  4.77933E+02
 -5.56864E+04 -5.77561E+04 -7.39921E+03 -7.94641E+04  3.49548E+04 -5.73933E+04  5.04991E+04 -1.87432E+04
  4.61107E+04  1.16811E+04  3.31949E+04  2.69242E+04  1.58221E+04  3.11379E+04 -5.94245E+03  2.79001E+04
 -2.23062E+04  1.24734E+04 -1.82653E+04 -6.01414E+03  7.16210E+03 -7.09267E+03  2.34380E+04  1.41887E+04
  7.18980E+03  3.80623E+04 -3.39790E+04  3.73846E+04 -6.68261E+04  2.68105E+03 -5.95846E+04 -4.49665E+04
 -1.26490E+04 -6.60180E+04  4.22618E+04 -4.79917E+04  6.10732E+04 -1.93334E+03  3.67355E+04  3.47531E+04
 -5.41159E+03  4.00168E+04 -3.27054E+04  1.93479E+04 -3.40162E+04 -3.73458E+03 -1.96936E+04 -1.23470E+04
 -9.70880E+03 -1.55508E+04 -4.33001E+02 -2.00024E+04  8.46799E+03 -2.34611E+04  1.62296E+04 -1.21998E+04
  1.02651E+04  6.70628E+03 -1.08566E+04  1.30567E+04 -2.37635E+04 -7.21179E+03 -8.67517E+03 -3.86812E+04
  2.52533E+04 -4.77738E+04  5.30808E+04 -2.13671E+04  4.97257E+04  2.10622E+04  1.74296E+04  4.76782E+04
 -1.63525E+04  3.67902E+04 -2.82447E+04  2.93414E+03 -1.20530E+04 -2.98286E+04  2.19298E+04 -3.80522E+04
  4.58250E+04 -1.13935E+04  4.19918E+04  2.53382E+04  2.28892E+04  5.23355E+04 -8.62067E+03  5.76879E+04
 -3.62276E+04  3.95532E+04 -4.92116E+04  1.12427E+04 -4.91592E+04 -1.92134E+04 -2.74084E+04 -4.28159E+04
  7.75588E+03 -4.32536E+04  3.45697E+04 -1.80183E+04  3.23291E+04  1.12926E+04  5.34273E+03  2.11496E+04
 -1.36762E+04  9.58446E+03 -1.20629E+04 -7.63532E+03  5.70765E+03 -1.16185E+04  1.88940E+04  5.01452E+03
  1.54807E+04  2.25021E+04 -4.70364E+03  2.80471E+04 -2.37616E+04  1.49228E+04 -3.23264E+04 -2.14805E+03
 -2.66640E+04 -1.86053E+04 -1.26261E+04 -2.57567E+04  4.34219E+03 -2.72045E+04  2.02939E+04 -2.42228E+04
  3.35605E+04 -1.45432E+04  3.99309E+04  5.61976E+03  2.76053E+04  2.55802E+04  4.40021E+03  4.23459E+04
 -2.06113E+04  3.47497E+04 -3.15694E+04  1.23653E+04 -2.32620E+04 -1.02113E+04 -5.05253E+03 -1.29445E+04
  5.31524E+02 -9.15543E+02 -8.19793E+03  8.53712E+03 -2.16342E+04  5.11351E+03 -2.12832E+04 -9.96208E+03
 -1.24023E+04 -2.43603E+04  6.40542E+03 -2.92482E+04  1.97573E+04 -2.08721E+04  2.43368E+04 -1.86331E+03
  1.55960E+04  1.68081E+04 -1.14814E+03  2.46402E+04 -1.75942E+04  1.43202E+04 -2.50438E+04 -5.13896E+03
 -1.77202E+04 -2.23222E+04 -1.83574E+03 -2.99204E+04  1.31628E+04 -2.46258E+04  2.38523E+04 -1.29319E+04
  2.31982E+04 -1.13870E+02  1.68372E+04  5.62566E+03  9.85057E+03  1.58863E+03  1.26049E+04 -2.47011E+03
  2.35714E+04  3.00214E+03  2.71466E+04  1.90203E+04  1.87405E+04  3.98879E+04 -2.43539E+03  4.68771E+04
 -2.68977E+04  3.94865E+04 -4.48826E+04  2.04590E+04 -4.78358E+04 -3.45785E+03 -3.84482E+04 -2.82552E+04
 -1.48771E+04 -3.98879E+04  1.41516E+04 -3.45608E+04  2.96738E+04 -1.56541E+04  2.58824E+04  8.51218E+03
  8.14226E+03  1.96648E+04 -1.24296E+04  1.62083E+04 -2.12414E+04  2.15845E+03 -1.59894E+04 -1.38471E+04
 -5.73939E+02 -2.04384E+04  1.12216E+04 -1.52873E+04  1.42006E+04 -1.68963E+03  3.62880E+03  9.15761E+03
 -9.18485E+03  4.71541E+03 -1.02392E+04 -7.42237E+03 -2.43555E+03 -1.95146E+04  1.25633E+04 -2.13556E+04
  2.47923E+04 -1.22608E+04  2.86394E+04  3.15936E+03  2.51504E+04  2.03262E+04  1.19960E+04  3.16709E+04
 -6.63955E+03  3.36620E+04 -2.18402E+04  2.12516E+04 -2.45604E+04  4.10531E+03 -1.64374E+04 -6.25420E+03
 -6.27904E+03 -7.93218E+03 -6.24639E+02 -1.00179E+02 -2.50785E+03  3.63039E+03 -8.45252E+03  5.64115E+03
 -1.56907E+04 -7.00560E+02 -1.60550E+04 -1.25660E+04 -6.28429E+03 -2.07695E+04  6.73531E+03 -1.72520E+04
  1.41457E+04 -6.86438E+03  9.91122E+03  4.97191E+03 -3.95937E+02  7.11090E+03 -8.49786E+03  2.50062E+02
 -8.16297E+03 -1.08517E+04 -1.29367E+03 -1.71142E+04  1.00428E+04 -1.74412E+04  2.16257E+04 -9.72114E+03
  2.58926E+04  2.57333E+03  1.88786E+04  1.58553E+04  3.91733E+03  2.13672E+04 -1.01824E+04  1.67759E+04
 -1.37584E+04  4.61276E+03 -7.40014E+03 -3.37275E+03  2.10845E+03 -5.48484E+03  9.02763E+03 -1.09521E+03
  8.35269E+03  8.07430E+03  1.25414E+03  1.42376E+04 -9.53919E+03  1.36096E+04 -1.67489E+04  3.22600E+03
 -1.23478E+04 -8.99347E+03  3.15213E+02 -1.47031E+04  9.81187E+03 -7.87155E+03  1.09610E+04  3.60721E+03
  2.46522E+03  1.13823E+04 -9.11011E+03  1.32250E+04 -1.56972E+04  5.87451E+03 -1.61226E+04 -5.88619E+03
 -9.06684E+03 -1.78247E+04  4.36870E+03 -2.06590E+04  1.72380E+04 -1.18053E+04  1.92862E+04  3.58593E+03
  1.09661E+04  1.50206E+04 -2.31818E+03  1.71253E+04 -1.29966E+04  9.90836E+03 -1.42644E+04 -1.74049E+03
 -1.16889E+04 -1.18639E+04 -1.66565E+03 -1.36530E+04  7.31790E+03 -1.09125E+04  8.95752E+03 -4.18997E+03
  5.79307E+03  2.36469E+03 -1.32825E+03  2.24327E+03 -8.94563E+02 -4.13365E+03  3.37658E+03 -8.45032E+03
  1.29381E+04 -6.04396E+03  1.85780E+04  2.00636E+03  1.77314E+04  1.26128E+04  1.14747E+04  2.43833E+04
 -6.00385E+03  2.74650E+04 -2.32511E+04  2.03461E+04 -2.92674E+04  3.59520E+03 -2.37113E+04 -1.07080E+04
 -1.14621E+04 -1.92261E+04 -6.66331E+02 -1.75107E+04  6.05921E+03 -9.72098E+03  5.62333E+03 -5.70008E+03
  5.11387E+03 -3.27601E+03  4.44438E+03 -4.32091E+03  6.87617E+03 -4.06699E+03  8.80832E+03 -1.28369E+03
  1.23672E+04  2.83397E+03  7.19253E+03  1.06452E+04 -2.38993E+03  1.31308E+04 -1.29690E+04  9.87643E+03
 -1.73901E+04 -1.78005E+03 -1.13475E+04 -1.22916E+04 -2.16561E+03 -1.82709E+04  1.01431E+04 -1.84026E+04
  1.94662E+04 -9.72942E+03  2.31207E+04  3.76208E+03  1.57938E+04  1.62932E+04  2.36835E+03  2.04151E+04
 -8.86140E+03  1.66317E+04 -1.24703E+04  5.97735E+03 -8.15349E+03 -1.65569E+03 -3.68118E+03 -2.60305E+03
 -1.34777E+03 -2.86886E+02 -2.46556E+03  3.59378E+03 -7.66192E+03  3.04322E+03 -1.19880E+04 -1.79579E+03
 -9.11069E+03 -1.17427E+04 -6.56546E+01 -1.74108E+04  1.10297E+04 -1.58243E+04  1.73065E+04 -5.58510E+03
  1.76986E+04  8.69941E+03  7.95537E+03  1.59158E+04 -2.82517E+03  1.76677E+04 -1.31190E+04  1.07442E+04
 -1.60209E+04  8.07638E+02 -1.27075E+04 -1.07611E+04 -1.55996E+03 -1.45470E+04  7.51709E+03 -1.04205E+04
  1.14569E+04 -3.34778E+03  7.14937E+03  2.69199E+03  2.74766E+03  5.46439E+03  1.58938E+03  2.48995E+03
  2.65318E+03  1.57692E+03  4.53243E+03  2.06746E+03  5.13848E+03  6.05305E+03  4.74249E+03  9.46274E+03
 -3.50383E+03  1.40825E+04 -1.28379E+04  1.35587E+04 -1.92448E+04  3.79621E+03 -1.90313E+04 -8.38987E+03
 -9.06588E+03 -1.82575E+04  3.05458E+03 -2.01284E+04  1.16429E+04 -1.28607E+04  1.46954E+04 -3.04464E+03
  1.17298E+04  6.64961E+03  2.72735E+03  1.07795E+04 -4.88835E+03  6.91735E+03 -7.69391E+03 -1.36041E+03
 -4.10397E+03 -7.71911E+03  3.98024E+03 -8.05007E+03  8.23469E+03 -4.01652E+03  7.20802E+03  2.02203E+03
  4.22666E+03  3.98732E+03  1.41860E+03  3.10889E+03 -9.09931E+02  2.19572E+03  1.37113E+03 -4.94557E+02
  3.43512E+03 -1.27784E+03  7.40673E+03  2.62578E+03  4.49552E+03  9.77991E+03 -1.49227E+03  1.30923E+04
 -9.47901E+03  9.12842E+03 -1.19314E+04  2.58519E+03 -1.12352E+04 -4.33874E+03 -4.16237E+03 -7.61521E+03
  1.12246E+03 -7.46897E+03  4.99470E+03 -4.01688E+03  4.22098E+03  4.10116E+03 -1.63645E+03  6.58109E+03
 -7.98890E+03  3.67720E+03 -9.14471E+03 -4.24529E+03 -5.01217E+03 -1.05288E+04  1.33289E+03 -1.08148E+04
  6.15303E+03 -5.87018E+03  8.17185E+03 -1.32728E+03  5.98064E+03  3.35861E+03  7.89382E+02  5.57380E+03
 -4.24343E+03  1.60308E+03 -5.06579E+03 -4.50390E+03  1.98338E+03 -8.42762E+03  9.76828E+03 -6.69635E+03
  1.25014E+04  1.17297E+03  1.12705E+04  8.33159E+03  3.71187E+03  1.33139E+04 -4.63156E+03  1.19078E+04
 -1.04829E+04  5.40185E+03 -1.14021E+04 -1.83475E+03 -5.61915E+03 -8.35309E+03  1.56564E+03 -8.27302E+03
  7.41424E+03 -3.77491E+03  7.04496E+03  3.65987E+03  2.97808E+03  7.10040E+03 -1.02356E+03  6.44533E+03
 -2.92238E+03  3.59099E+03 -3.02868E+03  1.33578E+03 -1.39139E+03  7.39747E+02 -1.83825E+03  2.79250E+03
 -2.97209E+03  4.69643E+03 -8.62334E+03  4.13434E+03 -1.29926E+04  3.90558E+02 -1.47319E+04 -8.36700E+03
 -7.41635E+03 -1.70339E+04  3.20189E+03 -1.98901E+04  1.24715E+04 -1.53672E+04  1.84105E+04 -5.75338E+03
  1.73404E+04  4.10424E+03  1.09762E+04  1.22534E+04  1.17847E+03  1.39033E+04 -5.47184E+03  1.04245E+04
 -7.32503E+03  3.52127E+03 -5.21022E+03 -1.63459E+03 -1.42570E+03 -1.66385E+03 -6.49273E+02 -1.81325E+02
 -2.27678E+03  3.96740E+02 -2.91174E+03 -4.83157E+02 -1.14677E+03 -3.10473E+03  6.20906E+02 -5.54526E+03
  5.71523E+03 -4.17712E+03  8.27675E+03  8.25371E+01  9.86670E+03  7.33795E+03  3.10720E+03  1.40936E+04
 -6.12722E+03  1.59402E+04 -1.49518E+04  9.09243E+03 -1.68140E+04 -1.39238E+03 -1.29415E+04 -9.91689E+03
 -5.32391E+03 -1.44327E+04  3.89596E+03 -1.35706E+04  9.35851E+03 -7.41084E+03  9.82371E+03  1.97736E+01
  5.27252E+03  4.48640E+03 -5.73520E+02  3.96020E+03 -2.79188E+03 -4.74472E+02  3.67518E+02 -3.16697E+03
  4.04579E+03 -2.36843E+03  5.95099E+03  1.67840E+03  4.42894E+03  5.50457E+03  4.32839E+00  7.37052E+03
 -6.11258E+03  6.52258E+03 -9.95305E+03  4.81593E+02 -8.49577E+03 -6.68780E+03 -1.35827E+03 -1.14907E+04
  6.79986E+03 -1.00687E+04  1.14581E+04 -3.19459E+03  1.09310E+04  3.20427E+03  6.35987E+03  9.18531E+03
  1.40812E+03  9.52439E+03 -4.03800E+03  7.72757E+03 -6.02141E+03  3.93991E+03 -5.16813E+03  5.48353E+02
 -2.96507E+03 -2.94074E+02 -2.38493E+03  1.42182E+03 -4.99527E+03  1.43140E+03 -7.60892E+03 -1.77943E+03
 -7.03963E+03 -4.77905E+03 -2.29689E+03 -9.65390E+03  4.26904E+03 -9.92399E+03  8.21383E+03 -4.52251E+03
  1.00909E+04  1.46089E+03  5.74770E+03  6.77131E+03 -6.51992E+02  9.87862E+03 -7.63066E+03  6.49912E+03
