 $NMID ID='MM_0lb_SNR800_11hz_g40_10.RAW', FMTDAT='(8E13.5)'
 TRAMP=1., VOLUME=1. $END
  3.10023E+05  2.66878E+02  3.37698E+05  2.50946E+05  8.45772E+04  3.38467E+05 -1.32858E+05  2.51409E+05
 -1.90206E+05  8.32587E+04 -1.12023E+05 -3.22781E+04  7.93940E+02 -5.04449E+04  5.38459E+04 -3.70275E+02
  3.53516E+04  5.30860E+04 -1.64178E+04  7.58483E+04 -6.11135E+04  6.39455E+04 -8.45068E+04  3.20656E+04
 -8.16134E+04 -1.12447E+04 -5.73639E+04 -5.16896E+04 -1.53032E+04 -6.99791E+04  2.77621E+04 -4.58930E+04
  4.06389E+04  3.55990E+03  1.63067E+04  4.83650E+04 -3.41086E+04  4.76097E+04 -6.70063E+04 -3.87018E+02
 -5.37911E+04 -5.72073E+04 -6.83767E+03 -7.76947E+04  3.45434E+04 -5.55345E+04  4.87197E+04 -1.73201E+04
  4.41582E+04  1.16722E+04  3.25025E+04  2.57794E+04  1.62399E+04  2.98439E+04 -5.52796E+03  2.76314E+04
 -2.20624E+04  1.17599E+04 -1.84080E+04 -5.05034E+03  5.74794E+03 -7.45209E+03  2.28528E+04  1.29961E+04
  7.11115E+03  3.61418E+04 -3.25072E+04  3.58940E+04 -6.44445E+04  2.04668E+03 -5.73515E+04 -4.34387E+04
 -1.23032E+04 -6.41833E+04  4.03387E+04 -4.62830E+04  5.95022E+04 -1.90127E+03  3.49195E+04  3.29709E+04
 -6.14017E+03  3.72052E+04 -3.06037E+04  1.70574E+04 -3.15424E+04 -4.13402E+03 -1.72198E+04 -1.12856E+04
 -8.89241E+03 -1.36343E+04 -7.57889E+02 -1.87174E+04  7.79269E+03 -2.31635E+04  1.53610E+04 -1.30760E+04
  1.09223E+04  5.72793E+03 -8.74788E+03  1.26474E+04 -2.19601E+04 -5.12125E+03 -8.49390E+03 -3.50015E+04
  2.37008E+04 -4.45483E+04  4.94594E+04 -2.02267E+04  4.62388E+04  2.00818E+04  1.58284E+04  4.57287E+04
 -1.63735E+04  3.43093E+04 -2.62642E+04  2.16036E+03 -1.06840E+04 -2.86515E+04  2.07711E+04 -3.55085E+04
  4.22517E+04 -9.97641E+03  3.71104E+04  2.42393E+04  1.96817E+04  4.84279E+04 -8.13184E+03  5.27967E+04
 -3.31766E+04  3.58139E+04 -4.43917E+04  1.01639E+04 -4.46756E+04 -1.72764E+04 -2.46818E+04 -3.94826E+04
  7.55903E+03 -3.94952E+04  3.22916E+04 -1.58933E+04  3.05499E+04  1.12464E+04  4.80119E+03  1.98296E+04
 -1.36569E+04  8.82205E+03 -1.05433E+04 -7.39822E+03  5.63901E+03 -1.09013E+04  1.80561E+04  5.76785E+03
  1.40490E+04  2.21662E+04 -5.55707E+03  2.58371E+04 -2.31175E+04  1.26255E+04 -2.93727E+04 -3.77580E+03
 -2.24736E+04 -1.83454E+04 -9.43836E+03 -2.21486E+04  4.24849E+03 -2.17932E+04  1.75228E+04 -2.04646E+04
  2.83834E+04 -1.38447E+04  3.49214E+04  3.66197E+03  2.50834E+04  2.17530E+04  4.35245E+03  3.80735E+04
 -1.86761E+04  3.19651E+04 -2.94200E+04  1.08036E+04 -2.16734E+04 -1.01544E+04 -4.46816E+03 -1.30563E+04
  1.42062E+03 -2.25219E+03 -6.28913E+03  7.46423E+03 -1.78039E+04  5.26516E+03 -1.78254E+04 -8.00564E+03
 -1.10469E+04 -2.05262E+04  5.51921E+03 -2.50440E+04  1.66636E+04 -1.77401E+04  2.01710E+04 -2.27601E+03
  1.31216E+04  1.43108E+04 -1.02099E+03  2.09847E+04 -1.44283E+04  1.15318E+04 -2.10216E+04 -4.48318E+03
 -1.55029E+04 -1.86785E+04 -1.80222E+03 -2.50320E+04  1.12579E+04 -2.05261E+04  2.05601E+04 -1.04905E+04
  1.92727E+04 -1.80817E+02  1.39690E+04  4.63098E+03  7.75775E+03  9.59874E+02  1.06040E+04 -2.01922E+03
  1.95330E+04  2.81044E+03  2.13333E+04  1.61256E+04  1.45990E+04  3.29515E+04 -2.85413E+03  3.83965E+04
 -2.21049E+04  3.12613E+04 -3.60160E+04  1.58149E+04 -3.79993E+04 -2.74237E+03 -3.12602E+04 -2.24723E+04
 -1.28645E+04 -3.15517E+04  1.10290E+04 -2.80236E+04  2.42102E+04 -1.39847E+04  2.12765E+04  6.42777E+03
  7.48224E+03  1.62703E+04 -9.81105E+03  1.35297E+04 -1.79569E+04  2.59546E+03 -1.37001E+04 -1.12088E+04
 -1.49568E+02 -1.68128E+04  9.20252E+03 -1.28815E+04  1.14146E+04 -1.28481E+03  2.82739E+03  7.59782E+03
 -7.45677E+03  3.40670E+03 -7.32706E+03 -5.64391E+03 -1.08815E+03 -1.56489E+04  1.06005E+04 -1.65105E+04
  1.92970E+04 -9.14866E+03  2.12588E+04  3.20358E+03  1.85043E+04  1.53553E+04  8.97434E+03  2.40590E+04
 -4.19490E+03  2.59005E+04 -1.65207E+04  1.59230E+04 -1.89041E+04  3.52860E+03 -1.28953E+04 -4.51591E+03
 -6.32980E+03 -5.81350E+03 -5.33551E+02  4.26530E+02 -2.52374E+03  3.50735E+03 -6.05966E+03  4.85018E+03
 -1.16248E+04 -8.55025E+02 -1.28160E+04 -9.93782E+03 -5.03111E+03 -1.64886E+04  5.18413E+03 -1.33400E+04
  1.08952E+04 -5.52987E+03  7.97697E+03  3.76102E+03 -3.11949E+01  4.96901E+03 -6.14860E+03 -2.48416E+02
 -6.07612E+03 -8.45095E+03 -1.08602E+03 -1.22715E+04  7.44840E+03 -1.33005E+04  1.66936E+04 -7.19091E+03
  1.94205E+04  1.75557E+03  1.43322E+04  1.13603E+04  2.84924E+03  1.54865E+04 -8.35123E+03  1.30716E+04
 -1.03598E+04  4.09176E+03 -5.34071E+03 -2.61733E+03  2.19155E+03 -3.61890E+03  6.59104E+03 -1.05580E+03
  6.44451E+03  5.69156E+03  1.13488E+03  1.05847E+04 -7.55882E+03  1.02270E+04 -1.30362E+04  2.62476E+03
 -8.82899E+03 -6.46120E+03  2.07955E+02 -1.13907E+04  7.12079E+03 -5.59842E+03  7.48914E+03  2.56985E+03
  1.56657E+03  7.46109E+03 -6.58588E+03  9.02827E+03 -1.04134E+04  4.53795E+03 -1.08462E+04 -3.46700E+03
 -5.95333E+03 -1.23453E+04  2.81027E+03 -1.44002E+04  1.21186E+04 -8.72613E+03  1.31731E+04  2.16600E+03
  8.04964E+03  1.01972E+04 -6.41577E+02  1.29520E+04 -9.24583E+03  7.05758E+03 -1.04091E+04 -9.09425E+02
 -9.13201E+03 -8.45147E+03 -1.70355E+03 -9.40202E+03  5.23793E+03 -7.78557E+03  6.07426E+03 -3.19953E+03
  4.16715E+03  2.00807E+03 -8.91877E+02  1.48667E+03 -4.76279E+00 -2.45862E+03  1.55112E+03 -5.80678E+03
  8.62441E+03 -3.40381E+03  1.24757E+04  1.76416E+03  1.21386E+04  8.35129E+03  8.21509E+03  1.63763E+04
 -3.82424E+03  1.87023E+04 -1.54053E+04  1.36011E+04 -2.00935E+04  2.60477E+03 -1.57763E+04 -6.57651E+03
 -8.25714E+03 -1.37430E+04 -4.02497E+02 -1.11516E+04  4.39435E+03 -5.85060E+03  4.22632E+03 -4.11907E+03
  3.06552E+03 -2.52800E+03  3.48365E+03 -3.24046E+03  4.98465E+03 -2.86459E+03  6.35705E+03 -1.01579E+03
  8.19245E+03  1.79038E+03  4.12001E+03  7.50378E+03 -1.97722E+03  8.22314E+03 -8.86938E+03  6.27932E+03
 -1.13267E+04 -1.12465E+03 -6.92882E+03 -7.58607E+03 -5.22527E+02 -1.21514E+04  6.71409E+03 -1.18801E+04
  1.23612E+04 -6.73634E+03  1.48073E+04  1.78066E+03  1.04698E+04  1.02170E+04  1.65707E+03  1.34243E+04
 -5.88151E+03  1.14761E+04 -7.87268E+03  3.73645E+03 -4.99364E+03 -1.16485E+03 -2.17116E+03 -1.68627E+03
 -1.05139E+03 -4.36596E+01 -2.07837E+03  2.34821E+03 -4.87695E+03  2.06696E+03 -7.77880E+03 -1.18674E+03
 -5.63678E+03 -8.02300E+03  5.25782E+02 -1.09762E+04  6.56775E+03 -9.89340E+03  1.05417E+04 -2.93130E+03
  1.06018E+04  5.20434E+03  5.02201E+03  9.41626E+03 -2.24287E+03  1.13250E+04 -8.12968E+03  6.93941E+03
 -1.03217E+04  5.76007E+02 -7.79847E+03 -6.70977E+03 -8.67072E+02 -8.83622E+03  4.72551E+03 -6.78761E+03
  6.88329E+03 -2.51054E+03  4.96892E+03  1.71434E+03  1.79479E+03  3.59886E+03  9.93341E+02  1.59412E+03
  2.23618E+03  1.31463E+03  2.82455E+03  1.86371E+03  3.41772E+03  4.42379E+03  2.86065E+03  5.48817E+03
 -2.11242E+03  8.22544E+03 -7.72007E+03  8.61750E+03 -1.11316E+04  2.52134E+03 -1.10856E+04 -4.57776E+03
 -5.53007E+03 -1.06739E+04  1.68464E+03 -1.18068E+04  6.37444E+03 -7.64742E+03  8.62636E+03 -2.27285E+03
  7.09170E+03  4.09918E+03  1.40770E+03  6.40495E+03 -2.83653E+03  4.02693E+03 -4.04054E+03 -7.92864E+02
 -2.00738E+03 -4.33178E+03  2.56471E+03 -4.87721E+03  4.50940E+03 -2.35106E+03  4.04372E+03  7.42381E+02
  2.38019E+03  2.35568E+03  1.01961E+03  1.64031E+03 -4.30415E+02  1.40014E+03  1.32661E+03 -5.31635E+02
  1.24507E+03 -6.09880E+02  4.47942E+03  1.76202E+03  2.40943E+03  5.81934E+03 -1.19198E+03  7.40406E+03
 -5.16134E+03  4.98401E+03 -6.88442E+03  1.06909E+03 -6.05631E+03 -2.69160E+03 -2.18908E+03 -4.14048E+03
  8.86378E+02 -4.43514E+03  3.00897E+03 -2.14605E+03  2.50881E+03  2.25360E+03 -1.19982E+03  3.55357E+03
 -4.38686E+03  1.98957E+03 -4.98091E+03 -2.95260E+03 -2.93145E+03 -6.12195E+03  9.18369E+02 -6.10808E+03
  3.19662E+03 -3.43043E+03  3.93928E+03 -6.92532E+01  3.74489E+03  1.34741E+03  5.74239E+02  3.32846E+03
 -1.94946E+03  8.72797E+02 -2.77803E+03 -2.03818E+03  1.33537E+03 -4.18439E+03  4.90883E+03 -3.57225E+03
  6.63234E+03  5.43043E+02  7.03604E+03  4.28128E+03  2.48665E+03  7.06990E+03 -2.43162E+03  6.84218E+03
 -5.45651E+03  2.18086E+03 -5.60815E+03 -8.40444E+02 -2.94156E+03 -4.58218E+03  9.98787E+02 -3.98890E+03
  4.18800E+03 -2.10625E+03  3.72083E+03  1.84507E+03  1.40275E+03  3.97421E+03 -6.29706E+02  3.16099E+03
 -1.95644E+03  2.78331E+03 -1.64638E+03  7.52855E+02 -5.78057E+02  7.89772E+02 -9.41654E+02  1.60996E+03
 -1.91726E+03  2.93254E+03 -4.73008E+03  2.28056E+03 -6.51448E+03 -4.71323E+01 -7.93236E+03 -4.27455E+03
 -4.18487E+03 -8.68634E+03  1.50081E+03 -1.01521E+04  6.39708E+03 -8.03987E+03  1.00196E+04 -2.74501E+03
  9.47311E+03  1.58163E+03  5.43429E+03  6.11063E+03  4.30512E+02  6.64797E+03 -2.86298E+03  5.30268E+03
 -3.74968E+03  1.37868E+03 -2.28110E+03 -7.42756E+02 -9.04128E+02 -3.43224E+02 -7.81220E+02 -1.96119E+02
 -1.69060E+03 -1.64288E+02 -1.49508E+03 -1.88687E+02 -3.66623E+02 -1.94232E+03  1.24082E+02 -2.96777E+03
  3.29869E+03 -2.26689E+03  4.11414E+03 -2.04503E+02  5.16229E+03  3.58558E+03  8.47985E+02  6.72416E+03
 -3.67143E+03  8.01031E+03 -7.04850E+03  4.53319E+03 -8.25196E+03 -7.11774E+02 -6.03067E+03 -5.32976E+03
 -2.92905E+03 -6.93006E+03  1.14510E+03 -6.13014E+03  4.27258E+03 -3.50728E+03  4.47203E+03  1.94080E+02
  2.87395E+03  2.16290E+03 -3.76803E+02  2.37140E+03 -1.33203E+03  1.97649E+02 -3.08051E+01 -1.34681E+03
  2.19311E+03 -1.06913E+03  3.03397E+03  8.74746E+02  1.79628E+03  2.31994E+03  2.69768E+02  3.05820E+03
 -3.00591E+03  3.22096E+03 -4.29642E+03  2.63437E+02 -4.06135E+03 -2.92797E+03 -1.87894E+02 -5.43097E+03
  3.29811E+03 -4.67511E+03  4.75175E+03 -1.51755E+03  5.38014E+03  7.79773E+02  2.91816E+03  4.18338E+03
  3.40922E+02  4.56187E+03 -1.67975E+03  3.44126E+03 -2.70166E+03  2.22133E+03 -2.50639E+03  1.16120E+02
 -1.06985E+03 -2.56988E+02 -1.29739E+03  5.47071E+02 -2.04593E+03  8.15626E+02 -3.64880E+03 -7.61176E+02
 -3.59584E+03 -2.04729E+03 -9.78069E+02 -4.91268E+03  1.78575E+03 -4.79059E+03  3.70530E+03 -2.20375E+03
  4.34332E+03  6.71187E+02  2.28415E+03  2.84735E+03 -6.14608E+02  4.43475E+03 -3.08299E+03  3.10087E+03
