 $NMID ID='MM_0lb_SNR800_17hz_g60_12.RAW', FMTDAT='(8E13.5)'
 TRAMP=1., VOLUME=1. $END
  3.09775E+05  5.06280E+02  3.37468E+05  2.50569E+05  8.45794E+04  3.37578E+05 -1.32525E+05  2.50912E+05
 -1.90176E+05  8.33202E+04 -1.11782E+05 -3.28390E+04  9.20634E+02 -5.04660E+04  5.40143E+04 -1.26372E+02
  3.53338E+04  5.29463E+04 -1.67196E+04  7.55083E+04 -6.07774E+04  6.34556E+04 -8.40200E+04  3.19536E+04
 -8.08097E+04 -1.16697E+04 -5.69637E+04 -5.12376E+04 -1.48572E+04 -6.97823E+04  2.71882E+04 -4.54799E+04
  3.96248E+04  3.97744E+03  1.61991E+04  4.74800E+04 -3.42890E+04  4.71952E+04 -6.65606E+04 -8.70899E+01
 -5.31238E+04 -5.66220E+04 -6.96444E+03 -7.67310E+04  3.40057E+04 -5.47367E+04  4.77650E+04 -1.68766E+04
  4.29843E+04  1.12824E+04  3.15622E+04  2.53956E+04  1.58373E+04  2.95104E+04 -4.79236E+03  2.74104E+04
 -2.22185E+04  1.24029E+04 -1.88152E+04 -4.87155E+03  5.50789E+03 -7.26012E+03  2.21740E+04  1.21766E+04
  7.34264E+03  3.46163E+04 -3.19951E+04  3.51439E+04 -6.30781E+04  2.01523E+03 -5.69282E+04 -4.26142E+04
 -1.28496E+04 -6.28884E+04  3.98096E+04 -4.50135E+04  5.77542E+04 -2.27346E+03  3.41359E+04  3.22630E+04
 -6.22859E+03  3.55584E+04 -2.97686E+04  1.54799E+04 -2.99785E+04 -4.79816E+03 -1.65366E+04 -1.08319E+04
 -8.27189E+03 -1.29069E+04 -1.11187E+03 -1.78447E+04  7.42017E+03 -2.27469E+04  1.55883E+04 -1.35261E+04
  1.15416E+04  5.22439E+03 -7.90712E+03  1.29584E+04 -2.08602E+04 -4.17413E+03 -8.31666E+03 -3.29922E+04
  2.21907E+04 -4.30134E+04  4.73401E+04 -1.91817E+04  4.44525E+04  1.91590E+04  1.53779E+04  4.39730E+04
 -1.57906E+04  3.29260E+04 -2.49879E+04  1.76463E+03 -9.31047E+03 -2.76762E+04  2.07000E+04 -3.30950E+04
  4.02228E+04 -8.50761E+03  3.48220E+04  2.34952E+04  1.76685E+04  4.55809E+04 -8.07487E+03  4.90830E+04
 -3.09930E+04  3.30399E+04 -4.12195E+04  9.42755E+03 -4.17072E+04 -1.62400E+04 -2.34247E+04 -3.69327E+04
  7.48373E+03 -3.72651E+04  3.07588E+04 -1.41265E+04  2.84892E+04  1.07552E+04  3.68156E+03  1.89944E+04
 -1.36810E+04  8.11868E+03 -1.01261E+04 -7.72975E+03  5.67433E+03 -1.07207E+04  1.78568E+04  6.13237E+03
  1.30999E+04  2.20503E+04 -6.54238E+03  2.44831E+04 -2.23760E+04  1.07150E+04 -2.69684E+04 -5.27814E+03
 -1.96234E+04 -1.70001E+04 -7.49918E+03 -1.95602E+04  4.06126E+03 -1.84151E+04  1.47911E+04 -1.74945E+04
  2.47945E+04 -1.26148E+04  3.14340E+04  2.26114E+03  2.32282E+04  1.89061E+04  4.09014E+03  3.50396E+04
 -1.74328E+04  2.97116E+04 -2.74387E+04  1.03767E+04 -2.04799E+04 -1.05950E+04 -4.08701E+03 -1.37188E+04
  1.82899E+03 -3.55905E+03 -4.13964E+03  6.24711E+03 -1.52419E+04  5.11124E+03 -1.56945E+04 -6.66723E+03
 -9.62905E+03 -1.78473E+04  5.11819E+03 -2.19209E+04  1.42144E+04 -1.57504E+04  1.69406E+04 -1.45203E+03
  1.05760E+04  1.22312E+04 -1.18369E+03  1.79134E+04 -1.23529E+04  1.02711E+04 -1.76946E+04 -3.94789E+03
 -1.32576E+04 -1.61946E+04 -1.72562E+03 -2.15806E+04  9.96773E+03 -1.78578E+04  1.79607E+04 -8.59128E+03
  1.67182E+04  3.46044E+02  1.21307E+04  4.17918E+03  6.42289E+03  6.45274E+02  8.98064E+03 -1.53052E+03
  1.62320E+04  2.94785E+03  1.75678E+04  1.44266E+04  1.14601E+04  2.84854E+04 -2.83589E+03  3.18040E+04
 -1.84718E+04  2.50867E+04 -2.90739E+04  1.23650E+04 -3.03240E+04 -2.00173E+03 -2.55305E+04 -1.74693E+04
 -1.13018E+04 -2.49806E+04  8.29210E+03 -2.28655E+04  1.95526E+04 -1.20201E+04  1.84108E+04  4.90015E+03
  6.94580E+03  1.32149E+04 -8.15267E+03  1.17515E+04 -1.48865E+04  2.35834E+03 -1.15924E+04 -9.60431E+03
 -2.69407E+02 -1.44161E+04  7.34885E+03 -1.09966E+04  9.34848E+03 -1.44623E+03  2.15638E+03  6.13035E+03
 -6.52381E+03  2.03212E+03 -5.06158E+03 -5.28077E+03 -7.71030E+00 -1.22400E+04  8.91481E+03 -1.22585E+04
  1.50066E+04 -6.23286E+03  1.55868E+04  2.93808E+03  1.36828E+04  1.14197E+04  6.46439E+03  1.79297E+04
 -2.75253E+03  1.97994E+04 -1.22479E+04  1.24497E+04 -1.39837E+04  2.84856E+03 -1.02159E+04 -2.76421E+03
 -4.81982E+03 -4.38839E+03 -5.43477E+02  1.28569E+03 -2.10448E+03  2.37929E+03 -4.44597E+03  3.79404E+03
 -9.51720E+03 -5.43199E+02 -1.01867E+04 -7.96119E+03 -4.27158E+03 -1.32782E+04  4.42070E+03 -1.01940E+04
  8.41502E+03 -3.88211E+03  6.22654E+03  2.68512E+03  6.01198E+02  3.73570E+03 -4.60196E+03  8.83786E+01
 -4.08341E+03 -6.04897E+03 -6.07261E+02 -9.41165E+03  4.89745E+03 -9.71854E+03  1.23826E+04 -4.82792E+03
  1.42142E+04  1.13447E+03  1.05454E+04  8.21224E+03  1.85043E+03  1.06315E+04 -6.38646E+03  9.61210E+03
 -8.20786E+03  3.28272E+03 -4.09652E+03 -1.40598E+03  1.57264E+03 -2.66654E+03  5.55859E+03 -8.76680E+02
  4.87912E+03  4.18729E+03  1.28843E+03  7.68665E+03 -5.39354E+03  7.76935E+03 -9.52089E+03  1.87672E+03
 -6.10713E+03 -4.60178E+03  2.04188E+02 -7.96892E+03  4.93759E+03 -4.22088E+03  4.90257E+03  1.81387E+03
  9.15983E+02  5.00232E+03 -4.88133E+03  5.88911E+03 -6.47996E+03  3.09403E+03 -6.15515E+03 -1.96229E+03
 -4.00542E+03 -7.94394E+03  1.55523E+03 -9.20521E+03  7.59455E+03 -5.87902E+03  8.29806E+03  9.91629E+02
  5.49755E+03  6.73122E+03 -3.96130E+02  8.73606E+03 -6.28126E+03  5.00929E+03 -6.42587E+03 -5.79335E+02
 -6.44845E+03 -6.13345E+03 -1.35893E+03 -6.12364E+03  3.01731E+03 -5.41368E+03  3.69818E+03 -2.80902E+03
  3.17799E+03  3.76138E+02 -3.03383E+02  1.41595E+03  3.15697E+02 -7.34166E+02  6.38712E+02 -2.92264E+03
  4.86364E+03 -1.38876E+03  7.19474E+03  5.12627E+02  7.20681E+03  4.66963E+03  6.09792E+03  9.66916E+03
 -2.10051E+03  1.09079E+04 -9.65139E+03  8.42765E+03 -1.24583E+04  1.72939E+03 -1.00370E+04 -3.55237E+03
 -5.12044E+03 -8.39798E+03 -3.38241E+02 -6.82268E+03  2.58375E+03 -3.51114E+03  2.20753E+03 -2.64545E+03
  1.68238E+03 -1.69765E+03  2.36684E+03 -2.51533E+03  3.93355E+03 -1.81208E+03  4.38100E+03  1.68971E+02
  5.44553E+03  1.44846E+03  1.76734E+03  4.48186E+03 -1.88496E+03  4.24116E+03 -5.43950E+03  3.30407E+03
 -6.54840E+03 -1.23817E+03 -2.91524E+03 -4.19890E+03  2.06072E+02 -6.44533E+03  4.18154E+03 -7.01370E+03
  6.90867E+03 -3.99824E+03  8.63557E+03  6.20674E+02  5.74023E+03  5.52894E+03  1.27933E+03  7.86193E+03
 -2.78212E+03  7.01861E+03 -4.42956E+03  2.26997E+03 -2.62521E+03 -1.17512E+03 -6.45801E+02 -8.55084E+02
 -3.94352E+02  3.27621E+02 -8.73844E+02  2.17222E+03 -2.97736E+03  1.24791E+03 -4.87964E+03 -3.21129E+02
 -2.39333E+03 -5.03837E+03  7.49062E+02 -5.97134E+03  3.57482E+03 -5.40688E+03  5.19473E+03 -1.79002E+03
  5.46497E+03  2.99890E+03  2.51039E+03  4.64881E+03 -1.02162E+03  5.53451E+03 -3.50596E+03  3.35297E+03
 -4.95040E+03  3.40317E+02 -4.56968E+03 -3.31556E+03 -4.07313E+02 -4.24182E+03  1.94865E+03 -3.33735E+03
  3.36159E+03 -1.79039E+03  2.17755E+03  6.68425E+02  9.24116E+02  2.20261E+03  1.23304E+03  5.25413E+02
  1.70259E+03  6.50652E+02  1.55266E+03  1.02104E+03  1.37135E+03  2.50811E+03  1.71805E+03  2.37488E+03
 -1.55533E+03  3.92973E+03 -3.36245E+03  5.15671E+03 -4.33876E+03  1.33090E+03 -5.47636E+03 -8.99408E+02
 -2.36955E+03 -5.02090E+03  7.20432E+02 -5.84284E+03  2.81276E+03 -3.54350E+03  4.29441E+03 -1.08840E+03
  3.54413E+03  2.21483E+03  7.90647E+02  2.76226E+03 -1.01360E+03  1.76060E+03 -1.48211E+03 -6.56639E+01
 -9.13578E+02 -1.97048E+03  1.60199E+03 -2.12451E+03  1.64316E+03 -1.24268E+03  1.88133E+03  3.84831E+02
  1.17621E+03  5.17992E+02  9.07767E+02  1.01539E+02 -3.08547E+01  8.07032E+02  1.67158E+03 -3.55487E+02
  5.30107E+02 -1.40316E+02  2.30746E+03  8.57842E+02  3.52645E+02  3.24569E+03 -4.90718E+02  3.69716E+03
 -2.34209E+03  1.45687E+03 -2.84124E+03  3.63165E+02 -2.83592E+03 -1.10223E+03 -4.02870E+02 -1.21008E+03
  6.50458E+02 -1.48168E+03  1.43650E+03 -6.48797E+02  9.13708E+02  1.40373E+03 -7.89475E+02  1.50879E+03
 -2.15924E+03  7.80148E+02 -1.76762E+03 -1.42698E+03 -1.13797E+03 -2.54808E+03  1.40651E+02 -2.08369E+03
  1.15034E+03 -1.22825E+03  1.31477E+03  1.55289E+02  1.83467E+03  3.77267E+01  1.23225E+02  1.47481E+03
 -3.48535E+02  2.62725E+02 -1.15489E+03 -6.04744E+02  6.64273E+02 -1.49570E+03  2.28458E+03 -1.12822E+03
  1.74330E+03  7.33430E+01  3.25768E+03  1.19577E+03  1.39938E+03  2.13013E+03 -6.46975E+02  2.52078E+03
 -1.76000E+03  5.75307E+02 -2.11195E+03 -1.99287E+02 -1.60338E+03 -1.58620E+03  2.67277E+02 -9.67222E+02
  2.11533E+03 -7.53522E+02  9.92974E+02  7.20320E+02  2.54754E+02  1.58630E+03  5.22012E+02  1.62131E+03
 -4.94803E+02  1.20604E+03 -3.75056E+02 -7.17257E+01 -3.00446E+02  4.22337E+02 -9.86933E+02  5.78516E+02
 -6.10355E+02  1.12099E+03 -2.19433E+03  6.63000E+02 -2.06178E+03 -4.12314E+01 -2.99898E+03 -1.39867E+03
 -1.18212E+03 -3.00369E+03  1.02377E+03 -3.60268E+03  1.95687E+03 -2.90484E+03  3.58180E+03 -1.06406E+03
  2.69233E+03  2.07375E+00  1.66925E+03  2.24283E+03 -2.30790E+02  1.91616E+03 -1.04902E+03  1.73947E+03
 -1.30496E+03  1.01494E+03 -6.40551E+02 -4.33817E+02 -3.48519E+02  6.38859E+02 -7.34036E+02 -2.31939E+02
 -1.13888E+03 -2.97992E+01 -1.01276E+03  1.50443E+02  3.65532E+02 -6.35490E+02 -5.55474E+02 -1.37301E+03
  1.53860E+03 -7.73192E+02  7.06646E+02 -5.18804E+01  1.60900E+03  1.33872E+03 -1.12075E+02  1.84997E+03
 -1.21019E+03  3.00570E+03 -2.37682E+03  1.56765E+03 -2.23166E+03 -2.17483E+02 -1.94242E+03 -1.56367E+03
 -1.24047E+03 -1.87762E+03  5.41541E+02 -1.87198E+03  1.21972E+03 -9.17827E+02  9.90422E+02  6.04453E+01
  7.75139E+02  4.28914E+02  5.89205E+01  4.43194E+02 -4.84453E+02 -1.01104E+02 -1.95047E+02 -4.59150E+02
  6.62581E+02 -4.29417E+01  3.04603E+02  4.21141E+02  8.79327E+01  5.99058E+02  3.45372E+02  5.53156E+02
 -5.88887E+02  8.83203E+02 -8.31787E+02 -2.39290E+01 -8.82255E+02 -7.16792E+02 -2.51837E+01 -1.40889E+03
  9.39182E+02 -1.24867E+03  7.34138E+02 -6.71785E+01  1.00365E+03 -4.92159E+02  7.62891E+02  9.21927E+02
  3.76310E+02  1.04623E+03 -1.25916E+02  8.64111E+02 -8.35387E+02  5.15378E+02 -3.08119E+02  5.87005E+01
 -1.34803E+02  7.78765E+01 -4.61653E+02  3.57415E+02 -7.94503E+02  1.54328E+02 -1.24748E+03 -4.40207E+02
 -1.10934E+03  3.24754E+01 -5.01564E+02 -1.13588E+03  5.37721E+02 -1.41459E+03  8.71667E+02 -3.96162E+02
  1.18869E+03  1.20919E+02 -1.19184E+02  4.66713E+02 -8.23583E+01  1.17108E+03 -4.15041E+02  8.23117E+02
