 $NMID ID='MM_0lb_SNR800_10hz_g60_67.RAW', FMTDAT='(8E13.5)'
 TRAMP=1., VOLUME=1. $END
  3.09430E+05  4.98463E+02  3.37781E+05  2.50401E+05  8.52721E+04  3.38727E+05 -1.32908E+05  2.52171E+05
 -1.91224E+05  8.39939E+04 -1.12685E+05 -3.28254E+04  4.14590E+01 -5.07984E+04  5.39213E+04 -3.74581E+02
  3.57380E+04  5.27689E+04 -1.64761E+04  7.63446E+04 -6.07852E+04  6.40732E+04 -8.59961E+04  3.27338E+04
 -8.25041E+04 -1.17983E+04 -5.82904E+04 -5.25944E+04 -1.54665E+04 -7.11148E+04  2.82366E+04 -4.71657E+04
  4.15779E+04  3.39252E+03  1.68518E+04  4.84957E+04 -3.50176E+04  4.83031E+04 -6.83532E+04 -6.34853E+01
 -5.51418E+04 -5.76040E+04 -7.66810E+03 -7.93804E+04  3.46159E+04 -5.69182E+04  4.98465E+04 -1.84290E+04
  4.54312E+04  1.15253E+04  3.30748E+04  2.65721E+04  1.58647E+04  3.07654E+04 -5.81057E+03  2.82368E+04
 -2.27355E+04  1.22633E+04 -1.79056E+04 -5.79096E+03  7.21202E+03 -7.66201E+03  2.36731E+04  1.38760E+04
  7.07975E+03  3.76515E+04 -3.41840E+04  3.70921E+04 -6.54457E+04  2.23885E+03 -5.87660E+04 -4.43406E+04
 -1.25727E+04 -6.62283E+04  4.20505E+04 -4.76609E+04  6.14794E+04 -2.59648E+03  3.67526E+04  3.41461E+04
 -5.29868E+03  3.97713E+04 -3.21550E+04  1.93153E+04 -3.36914E+04 -3.48335E+03 -1.94101E+04 -1.14248E+04
 -9.47248E+03 -1.51971E+04 -3.20028E+02 -1.96767E+04  8.71908E+03 -2.32608E+04  1.57491E+04 -1.25604E+04
  1.05525E+04  6.52571E+03 -1.05766E+04  1.30003E+04 -2.32418E+04 -6.82726E+03 -8.68222E+03 -3.76752E+04
  2.54513E+04 -4.75464E+04  5.23375E+04 -2.08929E+04  4.84835E+04  2.10219E+04  1.72807E+04  4.73073E+04
 -1.65681E+04  3.65001E+04 -2.75410E+04  2.79733E+03 -1.19519E+04 -2.95808E+04  2.16916E+04 -3.73242E+04
  4.49272E+04 -1.10078E+04  4.06194E+04  2.49852E+04  2.13732E+04  5.11061E+04 -8.28044E+03  5.66660E+04
 -3.54992E+04  3.86181E+04 -4.80674E+04  1.08117E+04 -4.78024E+04 -1.85599E+04 -2.65097E+04 -4.21292E+04
  7.81227E+03 -4.26128E+04  3.42515E+04 -1.75763E+04  3.21124E+04  1.13575E+04  5.27252E+03  2.06655E+04
 -1.45069E+04  9.78439E+03 -1.14053E+04 -7.96918E+03  5.84927E+03 -1.11729E+04  1.86173E+04  5.62027E+03
  1.47741E+04  2.27358E+04 -5.28769E+03  2.70720E+04 -2.33879E+04  1.41241E+04 -3.17869E+04 -2.87485E+03
 -2.52308E+04 -1.85123E+04 -1.19913E+04 -2.53364E+04  4.59968E+03 -2.59774E+04  1.94495E+04 -2.29299E+04
  3.20567E+04 -1.46734E+04  3.83080E+04  5.19301E+03  2.72520E+04  2.42226E+04  4.33537E+03  4.16677E+04
 -1.99838E+04  3.35608E+04 -3.05459E+04  1.21157E+04 -2.23571E+04 -1.01845E+04 -4.94223E+03 -1.27899E+04
  6.82488E+02 -1.07612E+03 -7.78356E+03  8.45521E+03 -2.03826E+04  5.01539E+03 -1.99969E+04 -9.65399E+03
 -1.23752E+04 -2.33770E+04  6.35914E+03 -2.77786E+04  1.88770E+04 -2.00658E+04  2.27613E+04 -1.69442E+03
  1.42461E+04  1.59408E+04 -1.27323E+03  2.33352E+04 -1.67504E+04  1.32436E+04 -2.38226E+04 -4.71231E+03
 -1.74617E+04 -2.07655E+04 -1.96697E+03 -2.83147E+04  1.29244E+04 -2.34229E+04  2.32774E+04 -1.19272E+04
  2.16149E+04 -1.72109E+02  1.60554E+04  5.34083E+03  9.06886E+03  8.44456E+02  1.23372E+04 -1.98445E+03
  2.21011E+04  2.91804E+03  2.54151E+04  1.82214E+04  1.74985E+04  3.76896E+04 -2.79257E+03  4.50197E+04
 -2.54321E+04  3.72607E+04 -4.18313E+04  1.94434E+04 -4.44168E+04 -3.32541E+03 -3.59221E+04 -2.61409E+04
 -1.40668E+04 -3.69352E+04  1.31848E+04 -3.23641E+04  2.80100E+04 -1.52033E+04  2.41536E+04  8.02200E+03
  8.40188E+03  1.86108E+04 -1.18178E+04  1.55280E+04 -2.03692E+04  2.77686E+03 -1.50427E+04 -1.28569E+04
 -1.63350E+02 -1.95120E+04  1.06220E+04 -1.43648E+04  1.33380E+04 -1.19456E+03  3.39925E+03  8.78131E+03
 -8.61154E+03  4.05432E+03 -9.34072E+03 -6.94783E+03 -2.27919E+03 -1.82060E+04  1.19094E+04 -1.94567E+04
  2.27759E+04 -1.13431E+04  2.63197E+04  3.54189E+03  2.29674E+04  1.83049E+04  1.03928E+04  2.91570E+04
 -5.44409E+03  3.13148E+04 -2.01662E+04  1.88467E+04 -2.25410E+04  3.78405E+03 -1.49775E+04 -5.50290E+03
 -6.86245E+03 -7.19506E+03 -3.73638E+02  4.11691E+02 -3.07061E+03  2.99812E+03 -7.28921E+03  5.05921E+03
 -1.41966E+04 -1.09291E+03 -1.47721E+04 -1.19512E+04 -5.92287E+03 -1.94206E+04  6.52905E+03 -1.55881E+04
  1.32738E+04 -6.43574E+03  9.37161E+03  4.10997E+03 -3.01987E+02  6.06571E+03 -7.75351E+03 -3.37040E+02
 -7.48657E+03 -1.01498E+04 -9.51376E+02 -1.58960E+04  9.20164E+03 -1.62738E+04  1.97698E+04 -8.87766E+03
  2.32651E+04  2.73654E+03  1.68091E+04  1.42949E+04  3.20162E+03  1.88330E+04 -9.96297E+03  1.55134E+04
 -1.24635E+04  4.08527E+03 -6.40101E+03 -3.52472E+03  2.16439E+03 -4.04827E+03  8.06313E+03 -1.46527E+03
  7.70074E+03  7.31421E+03  1.19586E+03  1.25461E+04 -8.62884E+03  1.19038E+04 -1.51663E+04  3.09736E+03
 -1.04436E+04 -8.48141E+03 -4.07027E+01 -1.33825E+04  8.59201E+03 -6.89205E+03  9.10503E+03  3.20636E+03
  2.44761E+03  9.79362E+03 -8.11074E+03  1.13743E+04 -1.37770E+04  5.22092E+03 -1.39469E+04 -5.18153E+03
 -7.89516E+03 -1.53689E+04  4.08915E+03 -1.72932E+04  1.51986E+04 -9.85070E+03  1.70149E+04  2.79366E+03
  9.65621E+03  1.32952E+04 -1.37356E+03  1.52693E+04 -1.16952E+04  8.95586E+03 -1.27419E+04 -1.46563E+03
 -1.06987E+04 -1.04283E+04 -1.88137E+03 -1.19953E+04  6.43050E+03 -9.63377E+03  7.43294E+03 -3.86542E+03
  5.06800E+03  2.06720E+03 -1.21028E+03  1.95312E+03 -4.12359E+02 -3.23695E+03  2.70896E+03 -7.24546E+03
  1.13547E+04 -4.92152E+03  1.59325E+04  1.89156E+03  1.53654E+04  1.04953E+04  1.01826E+04  2.06760E+04
 -5.04615E+03  2.35277E+04 -1.95563E+04  1.72462E+04 -2.49968E+04  3.08427E+03 -2.05276E+04 -8.68031E+03
 -9.58719E+03 -1.67587E+04 -4.30115E+02 -1.43620E+04  4.89936E+03 -7.66231E+03  5.25974E+03 -5.34337E+03
  3.83276E+03 -3.07436E+03  3.67482E+03 -4.08344E+03  6.00133E+03 -3.72858E+03  7.50472E+03 -1.46777E+03
  1.07306E+04  2.52088E+03  5.60531E+03  9.03215E+03 -2.23419E+03  1.12174E+04 -1.10726E+04  8.86166E+03
 -1.46493E+04 -1.06510E+03 -9.10365E+03 -1.01864E+04 -1.44392E+03 -1.59882E+04  8.53311E+03 -1.55890E+04
  1.57008E+04 -8.57098E+03  1.91039E+04  2.76347E+03  1.30546E+04  1.35439E+04  1.97684E+03  1.71668E+04
 -7.26152E+03  1.40031E+04 -9.95096E+03  5.28386E+03 -6.72478E+03 -1.48738E+03 -2.56567E+03 -2.46498E+03
 -1.46701E+03 -3.21686E+02 -2.31797E+03  3.17402E+03 -5.85321E+03  2.87177E+03 -9.90776E+03 -1.04986E+03
 -7.02210E+03 -9.54225E+03  1.72551E+01 -1.47089E+04  8.69346E+03 -1.33205E+04  1.40533E+04 -4.44902E+03
  1.42844E+04  6.62392E+03  6.87682E+03  1.27558E+04 -2.79304E+03  1.39503E+04 -9.90400E+03  8.72817E+03
 -1.34337E+04  6.50354E+02 -1.05256E+04 -8.75661E+03 -1.10229E+03 -1.20128E+04  5.99364E+03 -8.88698E+03
  8.95080E+03 -2.82512E+03  6.18921E+03  2.57620E+03  1.83415E+03  4.46015E+03  1.32040E+03  1.99667E+03
  2.78490E+03  1.09087E+03  3.34116E+03  1.84144E+03  4.05568E+03  5.09482E+03  3.37854E+03  7.50342E+03
 -2.69554E+03  1.17510E+04 -1.03305E+04  1.15573E+04 -1.45237E+04  3.32322E+03 -1.50858E+04 -6.12506E+03
 -7.28108E+03 -1.42953E+04  1.94692E+03 -1.56084E+04  8.80835E+03 -9.90333E+03  1.16265E+04 -2.89208E+03
  9.11866E+03  5.60328E+03  2.07997E+03  8.30177E+03 -4.02968E+03  5.14122E+03 -6.06388E+03 -8.18918E+02
 -3.02025E+03 -5.96005E+03  3.52702E+03 -6.47308E+03  6.20580E+03 -3.05421E+03  5.81424E+03  1.65224E+03
  3.22908E+03  2.73317E+03  1.28957E+03  2.19114E+03 -1.05932E+03  1.94331E+03  1.18677E+03 -6.52816E+02
  2.54342E+03 -6.68725E+02  5.88545E+03  2.20995E+03  3.28749E+03  7.84258E+03 -9.11825E+02  9.94421E+03
 -7.08340E+03  6.37737E+03 -9.07846E+03  1.87756E+03 -7.90756E+03 -3.37092E+03 -3.12359E+03 -5.55397E+03
  9.22897E+02 -5.70952E+03  3.55481E+03 -2.40707E+03  3.15130E+03  2.77250E+03 -1.34945E+03  4.67725E+03
 -6.08995E+03  2.57019E+03 -6.57250E+03 -3.48321E+03 -4.01410E+03 -7.74856E+03  9.51555E+02 -7.79770E+03
  4.62806E+03 -4.60698E+03  5.97560E+03 -6.82710E+02  5.01279E+03  1.86144E+03  6.98127E+02  4.25792E+03
 -2.90573E+03  9.43702E+02 -3.81843E+03 -2.20358E+03  1.00916E+03 -6.26986E+03  7.25756E+03 -4.69140E+03
  8.79299E+03  5.57294E+02  8.73326E+03  6.14537E+03  2.96089E+03  9.53290E+03 -3.22532E+03  9.34179E+03
 -7.58692E+03  4.08203E+03 -8.03155E+03 -1.31363E+03 -3.81904E+03 -5.96121E+03  1.62607E+03 -5.56791E+03
  5.76991E+03 -2.58945E+03  4.73407E+03  2.44035E+03  1.77879E+03  4.94668E+03 -8.77761E+02  4.66327E+03
 -2.35683E+03  2.79173E+03 -2.20358E+03  7.77467E+02 -8.27442E+02  1.10958E+03 -1.44240E+03  1.96703E+03
 -2.44701E+03  3.40126E+03 -5.98873E+03  3.38191E+03 -9.30302E+03  6.98800E+01 -1.06210E+04 -6.02444E+03
 -5.42488E+03 -1.20074E+04  2.43294E+03 -1.41556E+04  8.65994E+03 -1.06870E+04  1.36506E+04 -4.17509E+03
  1.22044E+04  2.57692E+03  7.63351E+03  8.23763E+03  6.09830E+02  9.58209E+03 -3.76550E+03  7.27610E+03
 -5.37374E+03  2.78299E+03 -3.05317E+03 -1.68926E+03 -1.15356E+03 -7.45309E+02 -9.88793E+02 -9.15372E+01
 -1.64504E+03  1.51972E+02 -2.10482E+03 -2.84648E+02 -6.61769E+02 -2.24430E+03  3.36641E+02 -3.66254E+03
  4.06301E+03 -3.23580E+03  5.91114E+03 -2.95362E+01  6.32262E+03  5.25871E+03  1.53244E+03  9.60642E+03
 -4.21945E+03  1.05460E+04 -1.02301E+04  6.08570E+03 -1.16669E+04 -1.28548E+03 -8.43651E+03 -7.13612E+03
 -3.49952E+03 -9.54052E+03  2.11944E+03 -9.20447E+03  6.24720E+03 -4.40198E+03  6.47629E+03  4.95229E+02
  3.40725E+03  3.03496E+03 -3.43093E+02  2.21667E+03 -1.73431E+03  3.53034E+02  5.15617E+01 -2.39693E+03
  3.08248E+03 -9.05261E+02  3.14485E+03  1.23770E+03  2.56507E+03  3.66170E+03 -5.56953E+01  4.76630E+03
 -4.04469E+03  3.78949E+03 -6.90832E+03  2.22238E+02 -5.52244E+03 -4.60510E+03 -4.74135E+02 -7.93329E+03
  4.30735E+03 -6.38632E+03  7.12388E+03 -1.97423E+03  7.19128E+03  1.74254E+03  4.36517E+03  5.86286E+03
  7.60703E+02  6.10686E+03 -2.62360E+03  4.92072E+03 -3.85288E+03  2.35167E+03 -3.11994E+03  7.82285E+02
 -1.76482E+03 -1.08719E+01 -1.81445E+03  8.41554E+02 -3.39149E+03  1.17906E+03 -4.76837E+03 -9.36734E+02
 -4.72517E+03 -2.91774E+03 -1.36013E+03 -6.28262E+03  2.89623E+03 -6.61721E+03  5.60528E+03 -3.00293E+03
  6.15552E+03  9.18401E+02  3.38043E+03  4.52225E+03 -1.17610E+00  6.09498E+03 -4.48257E+03  4.27774E+03
