 $NMID ID='MM_0lb_SNR800_7hz_g40_56.RAW', FMTDAT='(8E13.5)'
 TRAMP=1., VOLUME=1. $END
  3.09570E+05  5.82179E+02  3.38092E+05  2.50911E+05  8.53676E+04  3.38293E+05 -1.32764E+05  2.52194E+05
 -1.91116E+05  8.41591E+04 -1.12603E+05 -3.25747E+04  4.64370E+02 -5.05430E+04  5.38776E+04 -7.15508E+02
  3.55652E+04  5.31470E+04 -1.66033E+04  7.64428E+04 -6.15528E+04  6.47182E+04 -8.56501E+04  3.24806E+04
 -8.30349E+04 -1.18771E+04 -5.86514E+04 -5.29278E+04 -1.47897E+04 -7.17726E+04  2.83240E+04 -4.70135E+04
  4.10635E+04  3.75168E+03  1.67523E+04  4.90749E+04 -3.51828E+04  4.82385E+04 -6.86804E+04  1.44337E+02
 -5.52431E+04 -5.74572E+04 -7.27504E+03 -7.92246E+04  3.50891E+04 -5.74391E+04  5.01222E+04 -1.88326E+04
  4.58099E+04  1.19084E+04  3.34514E+04  2.71592E+04  1.58028E+04  3.08430E+04 -6.13308E+03  2.80001E+04
 -2.27104E+04  1.16408E+04 -1.78055E+04 -5.68818E+03  7.09579E+03 -7.13898E+03  2.36550E+04  1.42911E+04
  7.37730E+03  3.82588E+04 -3.40685E+04  3.70000E+04 -6.62636E+04  2.20689E+03 -5.90033E+04 -4.50088E+04
 -1.26171E+04 -6.65859E+04  4.21692E+04 -4.79581E+04  6.18200E+04 -2.83478E+03  3.72073E+04  3.43554E+04
 -5.20531E+03  4.01039E+04 -3.20658E+04  1.97382E+04 -3.42886E+04 -3.37882E+03 -1.98691E+04 -1.26552E+04
 -9.92242E+03 -1.51657E+04 -3.34784E+02 -1.99570E+04  8.60389E+03 -2.35988E+04  1.59117E+04 -1.23888E+04
  1.05425E+04  6.17590E+03 -1.13023E+04  1.29781E+04 -2.40134E+04 -6.96137E+03 -8.79951E+03 -3.83667E+04
  2.58658E+04 -4.77535E+04  5.31016E+04 -2.16045E+04  4.94795E+04  2.15539E+04  1.77609E+04  4.78410E+04
 -1.66903E+04  3.67808E+04 -2.81997E+04  2.46420E+03 -1.21409E+04 -3.00382E+04  2.15003E+04 -3.73317E+04
  4.55136E+04 -1.16688E+04  4.17760E+04  2.53513E+04  2.19267E+04  5.21058E+04 -8.38288E+03  5.76033E+04
 -3.62052E+04  3.95563E+04 -4.93884E+04  1.16857E+04 -4.90301E+04 -1.89191E+04 -2.65105E+04 -4.28861E+04
  8.66708E+03 -4.31440E+04  3.51880E+04 -1.79885E+04  3.29704E+04  1.09611E+04  5.25142E+03  2.07726E+04
 -1.40237E+04  9.85758E+03 -1.13654E+04 -8.13909E+03  5.88409E+03 -1.18163E+04  1.88142E+04  5.59069E+03
  1.50894E+04  2.26383E+04 -5.09387E+03  2.77256E+04 -2.37960E+04  1.51761E+04 -3.25980E+04 -2.33265E+03
 -2.65370E+04 -1.82386E+04 -1.25940E+04 -2.65823E+04  4.71082E+03 -2.72396E+04  2.09320E+04 -2.41434E+04
  3.40067E+04 -1.45182E+04  3.92662E+04  5.33162E+03  2.82243E+04  2.52306E+04  4.69602E+03  4.28070E+04
 -2.00963E+04  3.50991E+04 -3.12917E+04  1.23953E+04 -2.29939E+04 -1.07445E+04 -5.62878E+03 -1.30136E+04
  1.65525E+02 -1.29447E+03 -8.29640E+03  8.97766E+03 -2.16969E+04  4.57665E+03 -2.15734E+04 -1.00814E+04
 -1.23404E+04 -2.39635E+04  6.40551E+03 -2.88676E+04  1.96849E+04 -2.02096E+04  2.37597E+04 -1.89352E+03
  1.51311E+04  1.68784E+04 -1.90690E+03  2.46450E+04 -1.74170E+04  1.47413E+04 -2.49689E+04 -4.96782E+03
 -1.72986E+04 -2.15635E+04 -1.93189E+03 -2.94929E+04  1.30802E+04 -2.49113E+04  2.43496E+04 -1.26283E+04
  2.27907E+04 -6.54721E+02  1.70375E+04  5.97740E+03  9.49744E+03  1.19341E+03  1.33726E+04 -2.13741E+03
  2.30801E+04  2.96931E+03  2.72554E+04  1.92994E+04  1.85884E+04  4.01472E+04 -2.76777E+03  4.71708E+04
 -2.70398E+04  3.96640E+04 -4.49151E+04  2.02377E+04 -4.82477E+04 -3.03094E+03 -3.85219E+04 -2.79022E+04
 -1.52110E+04 -4.02723E+04  1.40752E+04 -3.48830E+04  3.02477E+04 -1.57922E+04  2.58936E+04  8.75597E+03
  8.90589E+03  1.97327E+04 -1.28285E+04  1.59105E+04 -2.15880E+04  2.48159E+03 -1.58938E+04 -1.39296E+04
 -4.22023E+02 -2.01545E+04  1.10785E+04 -1.50274E+04  1.44560E+04 -1.00357E+03  3.54118E+03  9.53844E+03
 -9.16882E+03  4.33172E+03 -1.03674E+04 -7.67256E+03 -2.26705E+03 -1.96234E+04  1.28671E+04 -2.15626E+04
  2.47091E+04 -1.21408E+04  2.87440E+04  3.47499E+03  2.54284E+04  2.00894E+04  1.15094E+04  3.20908E+04
 -6.16302E+03  3.41867E+04 -2.28642E+04  2.05928E+04 -2.44027E+04  3.98358E+03 -1.70753E+04 -6.71035E+03
 -6.34706E+03 -8.13401E+03 -1.85413E+02  3.71140E+02 -3.31578E+03  3.76014E+03 -8.16667E+03  6.10366E+03
 -1.55179E+04 -1.29547E+03 -1.61457E+04 -1.29398E+04 -6.55611E+03 -2.10723E+04  6.91167E+03 -1.72382E+04
  1.36626E+04 -7.13565E+03  9.70355E+03  4.48783E+03 -7.87158E+02  6.73180E+03 -8.67587E+03 -1.12955E+02
 -8.72927E+03 -1.11091E+04 -1.60004E+03 -1.71814E+04  9.96461E+03 -1.77011E+04  2.18698E+04 -9.75942E+03
  2.55737E+04  3.20116E+03  1.92765E+04  1.61570E+04  3.36258E+03  2.11389E+04 -1.05175E+04  1.72960E+04
 -1.39515E+04  4.68010E+03 -7.15667E+03 -3.80610E+03  2.53407E+03 -5.15692E+03  9.04453E+03 -1.35031E+03
  8.35495E+03  8.35116E+03  1.49000E+03  1.41240E+04 -9.96513E+03  1.35279E+04 -1.70718E+04  2.99979E+03
 -1.21904E+04 -9.04333E+03  3.31456E+02 -1.45737E+04  9.69784E+03 -7.33435E+03  1.05506E+04  3.95719E+03
  2.44295E+03  1.15334E+04 -9.11692E+03  1.30171E+04 -1.53400E+04  5.62225E+03 -1.61142E+04 -6.14767E+03
 -8.78726E+03 -1.78675E+04  4.91362E+03 -2.05289E+04  1.75802E+04 -1.16141E+04  1.92331E+04  3.18651E+03
  1.11949E+04  1.50450E+04 -2.14097E+03  1.76727E+04 -1.33080E+04  9.94759E+03 -1.44845E+04 -1.89061E+03
 -1.14558E+04 -1.19413E+04 -1.92748E+03 -1.38709E+04  6.98168E+03 -1.04748E+04  8.49492E+03 -4.04603E+03
  5.89331E+03  2.29575E+03 -1.44567E+03  2.04562E+03 -1.21932E+03 -4.46391E+03  3.19433E+03 -8.81058E+03
  1.36767E+04 -5.50041E+03  1.84976E+04  1.93480E+03  1.78263E+04  1.26853E+04  1.13230E+04  2.41654E+04
 -5.82593E+03  2.72478E+04 -2.26901E+04  2.01253E+04 -2.95206E+04  4.03982E+03 -2.35246E+04 -1.03261E+04
 -1.23346E+04 -1.93881E+04 -4.05500E+02 -1.71889E+04  6.30461E+03 -9.98926E+03  5.88800E+03 -6.49818E+03
  4.58686E+03 -3.53148E+03  4.40333E+03 -4.15832E+03  6.77927E+03 -3.84686E+03  8.82157E+03 -1.58351E+03
  1.23905E+04  2.45789E+03  7.43731E+03  1.05771E+04 -2.35314E+03  1.34655E+04 -1.27837E+04  1.02410E+04
 -1.69985E+04 -1.55842E+03 -1.14592E+04 -1.20613E+04 -1.94468E+03 -1.84600E+04  9.61653E+03 -1.81010E+04
  1.95163E+04 -1.00312E+04  2.27216E+04  3.39056E+03  1.56789E+04  1.61953E+04  2.71345E+03  2.08749E+04
 -8.84605E+03  1.67220E+04 -1.28370E+04  5.31115E+03 -8.82426E+03 -2.38998E+03 -3.76391E+03 -2.88254E+03
 -1.95109E+03 -3.71325E+01 -2.42789E+03  2.94336E+03 -7.23997E+03  2.93549E+03 -1.16322E+04 -1.41758E+03
 -8.65340E+03 -1.15087E+04 -1.84958E+02 -1.70001E+04  1.08469E+04 -1.63051E+04  1.77060E+04 -5.26151E+03
  1.71117E+04  8.49402E+03  8.35032E+03  1.60301E+04 -3.20133E+03  1.76911E+04 -1.28646E+04  1.08691E+04
 -1.68914E+04  2.24312E+02 -1.29701E+04 -1.06710E+04 -1.49305E+03 -1.49881E+04  7.67957E+03 -1.10247E+04
  1.08511E+04 -3.33601E+03  7.91278E+03  2.66910E+03  2.73555E+03  4.77547E+03  1.30391E+03  2.62655E+03
  3.23062E+03  1.02297E+03  4.21034E+03  2.82449E+03  5.31789E+03  5.71482E+03  4.83675E+03  9.57749E+03
 -3.25191E+03  1.38446E+04 -1.28045E+04  1.37459E+04 -1.89205E+04  3.56085E+03 -1.86429E+04 -8.40794E+03
 -8.94493E+03 -1.85838E+04  2.50461E+03 -1.96520E+04  1.17340E+04 -1.30227E+04  1.51770E+04 -3.49474E+03
  1.19690E+04  7.19275E+03  2.65890E+03  1.07766E+04 -5.58202E+03  6.76042E+03 -7.76523E+03 -9.37831E+02
 -3.20283E+03 -8.06886E+03  3.82989E+03 -8.07392E+03  7.91478E+03 -4.28582E+03  7.48856E+03  2.05586E+03
  4.29015E+03  3.73162E+03  1.97134E+03  3.07091E+03 -1.15164E+03  2.48925E+03  2.03122E+03 -4.88816E+02
  3.01293E+03 -8.32127E+02  7.81217E+03  2.97195E+03  4.45055E+03  9.55966E+03 -1.01616E+03  1.29192E+04
 -8.77493E+03  8.91603E+03 -1.22366E+04  2.43197E+03 -1.08719E+04 -4.19335E+03 -4.62951E+03 -7.24716E+03
  9.14227E+02 -7.14188E+03  5.18758E+03 -3.52939E+03  4.29827E+03  3.59045E+03 -1.52648E+03  6.76514E+03
 -8.23247E+03  3.20566E+03 -8.68821E+03 -4.61833E+03 -5.08689E+03 -1.03198E+04  1.73338E+03 -1.08804E+04
  6.39202E+03 -6.75519E+03  8.13951E+03 -1.20633E+03  5.94356E+03  3.29418E+03  1.23075E+03  5.36746E+03
 -3.42372E+03  1.74478E+03 -4.33104E+03 -3.32722E+03  1.74479E+03 -8.82101E+03  9.62946E+03 -6.97708E+03
  1.22555E+04  9.75013E+02  1.14043E+04  8.65395E+03  3.62730E+03  1.28860E+04 -4.62048E+03  1.20995E+04
 -1.06153E+04  5.19174E+03 -1.10198E+04 -1.78524E+03 -6.23937E+03 -8.12802E+03  2.09336E+03 -8.00628E+03
  7.73760E+03 -4.17451E+03  7.09981E+03  3.46710E+03  2.71242E+03  7.00553E+03 -1.36560E+03  5.85398E+03
 -3.53663E+03  3.96770E+03 -2.79953E+03  1.35600E+03 -1.69917E+03  1.03402E+03 -1.69641E+03  2.56417E+03
 -3.21652E+03  5.14134E+03 -8.40398E+03  4.48996E+03 -1.29869E+04  4.54941E+01 -1.42840E+04 -8.66826E+03
 -7.85588E+03 -1.70647E+04  2.72373E+03 -1.95523E+04  1.26874E+04 -1.56568E+04  1.92750E+04 -5.82482E+03
  1.78686E+04  3.77476E+03  1.09988E+04  1.22758E+04  1.52306E+03  1.37769E+04 -5.65631E+03  1.00857E+04
 -7.41097E+03  3.56418E+03 -4.79626E+03 -1.80828E+03 -1.51258E+03 -1.34124E+03 -1.07515E+03  8.57237E+01
 -2.32599E+03  5.87963E+02 -2.92819E+03 -7.98258E+02 -9.95383E+02 -3.56560E+03  8.22895E+02 -4.96827E+03
  5.69557E+03 -4.13247E+03  8.64034E+03 -2.06605E+02  9.67032E+03  6.81860E+03  3.10097E+03  1.38897E+04
 -6.50304E+03  1.58245E+04 -1.46360E+04  8.91644E+03 -1.66673E+04 -5.01471E+02 -1.28864E+04 -1.06247E+04
 -5.39841E+03 -1.46734E+04  3.80980E+03 -1.32122E+04  9.44727E+03 -7.45785E+03  9.04684E+03  7.76813E+02
  5.16071E+03  4.41000E+03 -1.28156E+02  4.11313E+03 -2.56976E+03 -2.90908E+02 -1.03504E+02 -3.36873E+03
  4.38177E+03 -1.92684E+03  5.85435E+03  1.71293E+03  3.99375E+03  5.48554E+03  1.21028E+02  7.66708E+03
 -6.09347E+03  6.55760E+03 -9.83788E+03  4.32933E+02 -8.74723E+03 -7.68165E+03 -1.50394E+03 -1.19923E+04
  6.79202E+03 -1.01523E+04  1.16725E+04 -3.25204E+03  1.11050E+04  3.28130E+03  6.62416E+03  8.73528E+03
  1.06146E+03  9.32306E+03 -4.00784E+03  8.03419E+03 -6.51493E+03  4.04602E+03 -5.24483E+03  8.84974E+00
 -2.71633E+03 -3.84427E+02 -2.45984E+03  1.28182E+03 -4.99060E+03  1.56545E+03 -7.21436E+03 -1.24119E+03
 -7.40812E+03 -5.37701E+03 -2.08820E+03 -9.38838E+03  4.98515E+03 -9.84213E+03  9.44420E+03 -5.09318E+03
  9.49756E+03  1.21486E+03  5.71678E+03  6.91103E+03 -4.58008E+02  9.61869E+03 -7.61854E+03  6.46767E+03
