 $NMID ID='MM_0lb_SNR800_8hz_g60_80.RAW', FMTDAT='(8E13.5)'
 TRAMP=1., VOLUME=1. $END
  3.09808E+05  5.00380E+02  3.38023E+05  2.50860E+05  8.56291E+04  3.38759E+05 -1.32491E+05  2.52180E+05
 -1.91606E+05  8.39908E+04 -1.13042E+05 -3.23293E+04 -2.11382E+02 -5.07666E+04  5.38963E+04 -7.08095E+02
  3.56304E+04  5.31698E+04 -1.63529E+04  7.65525E+04 -6.14832E+04  6.49785E+04 -8.55371E+04  3.30028E+04
 -8.31654E+04 -1.16652E+04 -5.84677E+04 -5.22316E+04 -1.53631E+04 -7.16381E+04  2.83870E+04 -4.73892E+04
  4.19052E+04  3.47793E+03  1.68862E+04  4.91836E+04 -3.53508E+04  4.83172E+04 -6.87165E+04  3.99517E+02
 -5.52837E+04 -5.81400E+04 -7.86578E+03 -7.95887E+04  3.51521E+04 -5.80576E+04  5.03785E+04 -1.91695E+04
  4.58931E+04  1.21031E+04  3.33458E+04  2.69958E+04  1.58861E+04  3.11541E+04 -6.22733E+03  2.74134E+04
 -2.25117E+04  1.19251E+04 -1.75525E+04 -5.98858E+03  7.10955E+03 -7.45930E+03  2.40972E+04  1.42237E+04
  7.25095E+03  3.85485E+04 -3.49090E+04  3.77055E+04 -6.73932E+04  2.18063E+03 -5.95050E+04 -4.53440E+04
 -1.26261E+04 -6.71387E+04  4.28080E+04 -4.83343E+04  6.28514E+04 -2.74264E+03  3.81190E+04  3.52966E+04
 -5.06232E+03  4.08204E+04 -3.25511E+04  2.04120E+04 -3.47990E+04 -3.24322E+03 -2.04637E+04 -1.18510E+04
 -1.03775E+04 -1.54049E+04 -3.79225E+02 -2.01109E+04  8.90859E+03 -2.40256E+04  1.63364E+04 -1.24668E+04
  9.75757E+03  6.92943E+03 -1.13696E+04  1.26293E+04 -2.42124E+04 -7.55952E+03 -8.64027E+03 -3.88172E+04
  2.58211E+04 -4.85794E+04  5.39445E+04 -2.15915E+04  5.01499E+04  2.13115E+04  1.83026E+04  4.82343E+04
 -1.71730E+04  3.71636E+04 -2.84191E+04  3.17997E+03 -1.28265E+04 -3.00822E+04  2.21080E+04 -3.80693E+04
  4.66148E+04 -1.21262E+04  4.22224E+04  2.57025E+04  2.27666E+04  5.26840E+04 -8.92143E+03  5.85421E+04
 -3.71070E+04  3.98339E+04 -5.00657E+04  1.14777E+04 -4.93596E+04 -1.95128E+04 -2.70351E+04 -4.35381E+04
  8.38625E+03 -4.35543E+04  3.53748E+04 -1.80403E+04  3.30677E+04  1.10631E+04  5.49727E+03  2.18482E+04
 -1.41181E+04  1.02661E+04 -1.16494E+04 -7.33963E+03  5.56552E+03 -1.20077E+04  1.91728E+04  5.11141E+03
  1.53341E+04  2.31655E+04 -4.78839E+03  2.77267E+04 -2.41023E+04  1.55325E+04 -3.26195E+04 -1.79228E+03
 -2.70172E+04 -1.89559E+04 -1.29455E+04 -2.65752E+04  4.96898E+03 -2.80617E+04  2.17341E+04 -2.51005E+04
  3.46398E+04 -1.49311E+04  4.00418E+04  6.09234E+03  2.81567E+04  2.62434E+04  4.58064E+03  4.38537E+04
 -2.07770E+04  3.56537E+04 -3.16890E+04  1.24831E+04 -2.33114E+04 -9.94933E+03 -5.07015E+03 -1.28235E+04
 -2.25423E+01 -1.72593E+02 -8.91770E+03  8.72596E+03 -2.19774E+04  5.15907E+03 -2.14191E+04 -1.03462E+04
 -1.28873E+04 -2.50685E+04  6.17788E+03 -2.99448E+04  2.00948E+04 -2.11773E+04  2.45220E+04 -2.18243E+03
  1.56614E+04  1.77876E+04 -1.10671E+03  2.49474E+04 -1.81280E+04  1.46541E+04 -2.57445E+04 -5.09517E+03
 -1.80386E+04 -2.21686E+04 -2.40071E+03 -3.00285E+04  1.34899E+04 -2.53722E+04  2.47289E+04 -1.30080E+04
  2.41629E+04 -3.23856E+02  1.72361E+04  5.51905E+03  9.75352E+03  2.08583E+03  1.32625E+04 -2.32925E+03
  2.39629E+04  2.84393E+03  2.80365E+04  1.97430E+04  1.87557E+04  4.01834E+04 -2.50196E+03  4.84519E+04
 -2.73017E+04  4.08951E+04 -4.57899E+04  2.14084E+04 -4.92708E+04 -3.42698E+03 -3.97942E+04 -2.93423E+04
 -1.54725E+04 -4.13658E+04  1.50957E+04 -3.59747E+04  3.08225E+04 -1.62213E+04  2.59950E+04  8.69461E+03
  8.75027E+03  2.07756E+04 -1.29878E+04  1.75547E+04 -2.19495E+04  2.56569E+03 -1.65253E+04 -1.44033E+04
 -5.02039E+02 -2.11423E+04  1.12913E+04 -1.55163E+04  1.44707E+04 -1.26102E+03  3.94996E+03  9.42261E+03
 -9.52761E+03  4.96879E+03 -1.06956E+04 -7.34557E+03 -2.54083E+03 -1.97240E+04  1.29300E+04 -2.19970E+04
  2.56277E+04 -1.27306E+04  2.98994E+04  3.25704E+03  2.59676E+04  2.07287E+04  1.22667E+04  3.29903E+04
 -6.11764E+03  3.51700E+04 -2.33153E+04  2.16073E+04 -2.54295E+04  3.95716E+03 -1.69472E+04 -6.86520E+03
 -6.76781E+03 -7.70122E+03 -8.02974E+02  5.03068E+01 -2.92005E+03  4.15304E+03 -8.55889E+03  5.97822E+03
 -1.62872E+04 -6.53715E+02 -1.60342E+04 -1.28571E+04 -6.33710E+03 -2.11541E+04  7.25145E+03 -1.74521E+04
  1.46900E+04 -6.89907E+03  1.00911E+04  4.79677E+03 -6.65380E+02  6.85985E+03 -8.75258E+03 -4.19977E+02
 -8.93749E+03 -1.16971E+04 -1.31481E+03 -1.76182E+04  1.03268E+04 -1.85063E+04  2.29471E+04 -1.03102E+04
  2.64847E+04  2.92382E+03  1.93543E+04  1.65714E+04  3.91175E+03  2.24077E+04 -1.05131E+04  1.74291E+04
 -1.41718E+04  4.43899E+03 -7.38738E+03 -4.22931E+03  2.68578E+03 -5.12943E+03  9.30287E+03 -6.14444E+02
  8.06185E+03  7.64730E+03  1.26963E+03  1.41416E+04 -1.02811E+04  1.36238E+04 -1.76018E+04  2.90241E+03
 -1.25049E+04 -9.89266E+03  3.46232E+02 -1.52258E+04  1.02690E+04 -7.91744E+03  1.07460E+04  3.76487E+03
  2.81603E+03  1.22190E+04 -9.46970E+03  1.36965E+04 -1.58005E+04  6.27389E+03 -1.60855E+04 -6.17687E+03
 -9.81411E+03 -1.85382E+04  4.89841E+03 -2.12073E+04  1.82543E+04 -1.24325E+04  1.94210E+04  3.76772E+03
  1.10535E+04  1.54539E+04 -2.18368E+03  1.81024E+04 -1.34448E+04  1.00887E+04 -1.48545E+04 -1.55411E+03
 -1.19974E+04 -1.17355E+04 -1.81818E+03 -1.35269E+04  7.67267E+03 -1.11536E+04  8.91247E+03 -4.20233E+03
  5.25791E+03  2.51937E+03 -1.30972E+03  1.78362E+03 -1.10448E+03 -4.37787E+03  3.27190E+03 -8.77471E+03
  1.35792E+04 -6.04830E+03  1.91210E+04  2.26564E+03  1.85504E+04  1.31379E+04  1.21604E+04  2.43169E+04
 -5.63844E+03  2.81500E+04 -2.32049E+04  2.07750E+04 -3.04205E+04  4.18520E+03 -2.43827E+04 -1.06630E+04
 -1.21956E+04 -1.99572E+04  2.22450E+02 -1.71974E+04  6.38932E+03 -1.01456E+04  6.10315E+03 -6.53465E+03
  4.07717E+03 -3.40127E+03  4.88117E+03 -3.83913E+03  6.44395E+03 -3.99177E+03  9.18080E+03 -1.96238E+03
  1.25510E+04  2.81309E+03  7.02933E+03  1.10348E+04 -2.51224E+03  1.38398E+04 -1.34273E+04  1.06393E+04
 -1.71639E+04 -1.19498E+03 -1.20692E+04 -1.23050E+04 -2.21982E+03 -1.87891E+04  1.04912E+04 -1.84589E+04
  1.95282E+04 -1.05382E+04  2.30120E+04  3.39759E+03  1.58425E+04  1.58709E+04  2.58948E+03  2.09878E+04
 -8.48706E+03  1.75539E+04 -1.25898E+04  6.48075E+03 -8.71721E+03 -1.84116E+03 -3.62963E+03 -2.92574E+03
 -1.48160E+03 -1.31945E+02 -2.81943E+03  3.45198E+03 -7.27670E+03  2.65174E+03 -1.19413E+04 -1.77911E+03
 -9.10077E+03 -1.20179E+04 -5.76995E+02 -1.71658E+04  1.09738E+04 -1.60122E+04  1.77539E+04 -5.02162E+03
  1.72892E+04  8.36731E+03  8.19406E+03  1.57585E+04 -3.63669E+03  1.79950E+04 -1.28538E+04  1.11689E+04
 -1.69963E+04  6.94323E+02 -1.30218E+04 -1.10177E+04 -1.55283E+03 -1.53533E+04  7.80891E+03 -1.13565E+04
  1.11732E+04 -3.78031E+03  8.38873E+03  3.46584E+03  2.67765E+03  5.29243E+03  1.74871E+03  2.31370E+03
  3.09145E+03  1.33647E+03  4.74988E+03  2.48464E+03  6.02518E+03  5.71086E+03  4.12696E+03  9.75288E+03
 -3.26628E+03  1.39876E+04 -1.31356E+04  1.45686E+04 -1.92491E+04  3.52050E+03 -1.89773E+04 -8.81170E+03
 -9.36793E+03 -1.85243E+04  2.77518E+03 -2.02456E+04  1.15119E+04 -1.30690E+04  1.51984E+04 -3.21020E+03
  1.15480E+04  6.69383E+03  2.91766E+03  1.09356E+04 -4.93384E+03  7.08630E+03 -7.46735E+03 -1.24202E+03
 -3.50052E+03 -7.51704E+03  4.06535E+03 -8.46123E+03  7.71394E+03 -3.93168E+03  7.15845E+03  1.69045E+03
  4.29215E+03  4.34329E+03  1.03882E+03  3.98406E+03 -9.54351E+02  2.70759E+03  1.51202E+03 -7.47798E+02
  3.42752E+03 -1.09797E+03  7.06250E+03  2.55399E+03  4.44446E+03  9.64048E+03 -1.64678E+03  1.29126E+04
 -8.56967E+03  9.03670E+03 -1.20316E+04  2.76090E+03 -1.10562E+04 -4.19518E+03 -4.45692E+03 -7.64909E+03
  1.15875E+03 -7.41849E+03  4.84853E+03 -3.86269E+03  4.02976E+03  3.60974E+03 -1.68770E+03  6.49332E+03
 -8.21055E+03  4.18608E+03 -9.34489E+03 -4.32190E+03 -5.16128E+03 -1.03212E+04  1.96744E+03 -1.08055E+04
  6.71764E+03 -6.85242E+03  8.23799E+03 -8.09648E+02  6.11542E+03  2.56485E+03  8.10379E+02  5.80779E+03
 -3.94316E+03  1.62682E+03 -4.69485E+03 -3.92997E+03  1.90296E+03 -8.36022E+03  9.16651E+03 -6.62245E+03
  1.22819E+04  7.06931E+02  1.15494E+04  8.12708E+03  3.72026E+03  1.30385E+04 -4.69383E+03  1.23881E+04
 -1.02192E+04  5.53972E+03 -1.07308E+04 -1.64379E+03 -5.83119E+03 -7.66394E+03  2.14648E+03 -8.02583E+03
  7.87278E+03 -3.80932E+03  7.02931E+03  3.09178E+03  2.05057E+03  7.20209E+03 -1.04118E+03  6.27716E+03
 -3.46226E+03  3.88332E+03 -2.91052E+03  1.61011E+03 -1.40078E+03  1.13342E+03 -1.42124E+03  2.44865E+03
 -3.27949E+03  4.79532E+03 -8.43388E+03  4.11570E+03 -1.28441E+04  8.38040E+01 -1.38124E+04 -8.24243E+03
 -7.69646E+03 -1.69293E+04  3.43268E+03 -1.96407E+04  1.24018E+04 -1.50607E+04  1.81930E+04 -5.53521E+03
  1.73264E+04  4.00692E+03  1.09800E+04  1.22739E+04  1.20163E+03  1.39767E+04 -5.42959E+03  9.97645E+03
 -7.54427E+03  3.49303E+03 -4.94990E+03 -1.92362E+03 -9.20424E+02 -1.20285E+03 -8.97954E+02  3.20899E+01
 -1.98409E+03  5.09312E+02 -2.65819E+03 -9.23493E+02 -1.23792E+03 -3.47903E+03  6.08068E+02 -4.99879E+03
  5.94283E+03 -4.40149E+03  8.12394E+03 -2.09173E+02  9.22425E+03  7.25778E+03  2.77356E+03  1.31755E+04
 -6.36354E+03  1.54142E+04 -1.41519E+04  9.00544E+03 -1.64919E+04 -1.27532E+03 -1.25568E+04 -1.03185E+04
 -5.49588E+03 -1.42554E+04  3.65607E+03 -1.28134E+04  8.97474E+03 -7.14439E+03  9.20498E+03  6.31218E+02
  4.49747E+03  4.41692E+03 -5.00718E+02  3.95397E+03 -2.34951E+03 -1.91055E+02 -1.07019E+02 -3.48073E+03
  3.92713E+03 -2.33792E+03  5.65523E+03  1.62514E+03  3.55872E+03  5.55874E+03 -2.84874E+02  7.51379E+03
 -5.79647E+03  6.26812E+03 -9.31058E+03  8.44387E+02 -8.11128E+03 -6.64935E+03 -1.56287E+03 -1.15631E+04
  7.14030E+03 -9.86842E+03  1.06262E+04 -3.09037E+03  1.06177E+04  2.35474E+03  5.56274E+03  8.71008E+03
  8.37170E+02  8.93828E+03 -3.27757E+03  7.22364E+03 -5.97360E+03  3.92698E+03 -4.94084E+03  3.09797E+02
 -2.66720E+03 -3.22114E+02 -2.59309E+03  9.40562E+02 -4.66121E+03  1.85284E+03 -7.06057E+03 -1.69381E+03
 -7.04534E+03 -4.97623E+03 -1.83418E+03 -9.43774E+03  4.01990E+03 -1.00045E+04  8.22291E+03 -4.56467E+03
  9.44282E+03  1.21190E+03  5.80199E+03  6.84453E+03 -1.04362E+03  9.50296E+03 -7.26412E+03  5.96810E+03
