 $NMID ID='MM_0lb_SNR800_13hz_g55_16.RAW', FMTDAT='(8E13.5)'
 TRAMP=1., VOLUME=1. $END
  3.10031E+05  1.41094E+02  3.37745E+05  2.50568E+05  8.47739E+04  3.38469E+05 -1.32277E+05  2.51444E+05
 -1.90315E+05  8.34565E+04 -1.12108E+05 -3.22407E+04  4.64879E+02 -5.05933E+04  5.39863E+04 -3.14366E+02
  3.52392E+04  5.25918E+04 -1.68852E+04  7.54867E+04 -6.08009E+04  6.40743E+04 -8.47348E+04  3.22839E+04
 -8.17434E+04 -1.15631E+04 -5.76735E+04 -5.16933E+04 -1.48851E+04 -7.02900E+04  2.77550E+04 -4.62988E+04
  4.08222E+04  4.18908E+03  1.60870E+04  4.79964E+04 -3.49896E+04  4.75326E+04 -6.71901E+04 -5.46783E+01
 -5.37805E+04 -5.74623E+04 -6.98357E+03 -7.77830E+04  3.43196E+04 -5.56920E+04  4.87012E+04 -1.77662E+04
  4.40715E+04  1.14665E+04  3.25638E+04  2.55987E+04  1.60627E+04  2.98385E+04 -5.60199E+03  2.73582E+04
 -2.24549E+04  1.21515E+04 -1.80179E+04 -5.37357E+03  6.19225E+03 -7.55131E+03  2.30256E+04  1.29568E+04
  7.08790E+03  3.60014E+04 -3.28053E+04  3.62091E+04 -6.42783E+04  2.30385E+03 -5.78148E+04 -4.37682E+04
 -1.24779E+04 -6.42536E+04  4.05322E+04 -4.60803E+04  5.93570E+04 -2.41415E+03  3.54743E+04  3.32710E+04
 -5.77858E+03  3.67921E+04 -3.06062E+04  1.69146E+04 -3.14226E+04 -4.15692E+03 -1.76691E+04 -1.12693E+04
 -8.95693E+03 -1.38375E+04 -3.52483E+02 -1.86700E+04  8.00145E+03 -2.29933E+04  1.56371E+04 -1.30228E+04
  1.09028E+04  5.40520E+03 -8.93424E+03  1.31569E+04 -2.23307E+04 -4.77376E+03 -8.74482E+03 -3.51339E+04
  2.34885E+04 -4.45333E+04  4.97267E+04 -1.97048E+04  4.64002E+04  1.98065E+04  1.63386E+04  4.52440E+04
 -1.63058E+04  3.42432E+04 -2.61436E+04  2.16156E+03 -1.04571E+04 -2.85078E+04  2.13079E+04 -3.51991E+04
  4.23709E+04 -9.68421E+03  3.70769E+04  2.42697E+04  1.91341E+04  4.82234E+04 -7.99520E+03  5.21192E+04
 -3.28530E+04  3.52630E+04 -4.40448E+04  9.68623E+03 -4.43151E+04 -1.75083E+04 -2.44548E+04 -3.92842E+04
  7.46052E+03 -3.94156E+04  3.22644E+04 -1.56150E+04  3.02305E+04  1.08825E+04  4.56364E+03  2.00221E+04
 -1.36961E+04  8.93980E+03 -1.06946E+04 -7.50731E+03  5.76237E+03 -1.11054E+04  1.84006E+04  6.19489E+03
  1.39463E+04  2.22856E+04 -5.73677E+03  2.59115E+04 -2.28667E+04  1.24749E+04 -2.92505E+04 -4.38739E+03
 -2.21481E+04 -1.76406E+04 -9.21995E+03 -2.21839E+04  3.93036E+03 -2.13958E+04  1.71337E+04 -1.96361E+04
  2.80876E+04 -1.36184E+04  3.46599E+04  3.47961E+03  2.51401E+04  2.15082E+04  4.31803E+03  3.82170E+04
 -1.84923E+04  3.16595E+04 -2.87392E+04  1.06348E+04 -2.13644E+04 -1.02320E+04 -4.30967E+03 -1.33494E+04
  1.37306E+03 -2.12401E+03 -5.56417E+03  7.02474E+03 -1.74781E+04  5.42834E+03 -1.73931E+04 -8.19066E+03
 -1.06806E+04 -2.07473E+04  5.48647E+03 -2.44624E+04  1.64015E+04 -1.73274E+04  1.95022E+04 -1.55869E+03
  1.22106E+04  1.42800E+04 -1.48511E+03  2.03595E+04 -1.42157E+04  1.14206E+04 -2.05346E+04 -4.65165E+03
 -1.47767E+04 -1.86561E+04 -2.12664E+03 -2.45165E+04  1.10092E+04 -2.03868E+04  2.01934E+04 -9.91138E+03
  1.93664E+04 -8.61365E+01  1.39176E+04  4.77006E+03  7.35707E+03  1.25567E+03  1.03184E+04 -1.78167E+03
  1.85823E+04  3.07640E+03  2.10772E+04  1.56518E+04  1.39345E+04  3.24509E+04 -2.94927E+03  3.72249E+04
 -2.14702E+04  3.04185E+04 -3.52395E+04  1.58731E+04 -3.72129E+04 -2.93051E+03 -3.02333E+04 -2.12275E+04
 -1.26803E+04 -3.04115E+04  1.07900E+04 -2.73272E+04  2.31479E+04 -1.34831E+04  2.05784E+04  6.43683E+03
  7.40843E+03  1.54243E+04 -9.78295E+03  1.36691E+04 -1.75341E+04  2.72193E+03 -1.29461E+04 -1.10490E+04
  4.53703E+01 -1.68682E+04  8.57527E+03 -1.26557E+04  1.09132E+04 -1.36109E+03  2.59738E+03  7.41523E+03
 -7.23480E+03  2.92657E+03 -7.07087E+03 -6.33667E+03 -7.93999E+02 -1.49495E+04  9.94156E+03 -1.57058E+04
  1.85726E+04 -8.47786E+03  2.04325E+04  3.34992E+03  1.77920E+04  1.46824E+04  8.66392E+03  2.32052E+04
 -3.86325E+03  2.49755E+04 -1.57745E+04  1.55540E+04 -1.77819E+04  3.47365E+03 -1.21790E+04 -4.24155E+03
 -5.59966E+03 -5.84618E+03 -1.00478E+03  6.97861E+02 -2.48955E+03  2.92842E+03 -5.63803E+03  4.67690E+03
 -1.16178E+04 -9.08867E+02 -1.20262E+04 -1.02414E+04 -4.96034E+03 -1.59222E+04  4.93429E+03 -1.27173E+04
  1.05083E+04 -5.36483E+03  7.31537E+03  3.76936E+03 -5.72906E+01  4.69821E+03 -6.03971E+03 -3.43303E+02
 -5.98023E+03 -8.06164E+03 -1.11059E+03 -1.21150E+04  7.03578E+03 -1.23614E+04  1.55528E+04 -6.72614E+03
  1.84873E+04  2.03789E+03  1.34902E+04  1.11149E+04  2.74555E+03  1.46455E+04 -7.72378E+03  1.21164E+04
 -1.03834E+04  3.69053E+03 -5.18618E+03 -2.43184E+03  1.97735E+03 -3.79365E+03  6.79053E+03 -6.21447E+02
  5.62288E+03  5.28429E+03  1.25610E+03  9.91642E+03 -7.21575E+03  9.49470E+03 -1.18483E+04  2.48668E+03
 -7.67543E+03 -6.02359E+03  8.36303E+01 -1.01918E+04  6.45660E+03 -5.35352E+03  6.54703E+03  1.80396E+03
  1.40624E+03  7.06213E+03 -6.36579E+03  8.61493E+03 -9.66729E+03  3.75298E+03 -9.88191E+03 -3.53136E+03
 -5.23263E+03 -1.11311E+04  2.47483E+03 -1.30853E+04  1.11541E+04 -7.98506E+03  1.23406E+04  2.22410E+03
  7.64929E+03  9.70021E+03 -6.57934E+02  1.18035E+04 -8.60569E+03  6.54003E+03 -9.48948E+03 -7.91923E+02
 -8.56116E+03 -8.04212E+03 -1.59834E+03 -8.77314E+03  4.75255E+03 -7.25627E+03  5.22156E+03 -2.69040E+03
  4.00934E+03  1.38973E+03 -1.81470E+02  1.34658E+03 -2.79907E+02 -1.87345E+03  1.46994E+03 -4.64134E+03
  8.26130E+03 -3.08093E+03  1.10414E+04  1.19548E+03  1.13197E+04  7.24812E+03  7.91113E+03  1.42778E+04
 -3.25207E+03  1.68025E+04 -1.43298E+04  1.26610E+04 -1.81361E+04  2.33189E+03 -1.49290E+04 -5.72257E+03
 -7.27438E+03 -1.18621E+04 -1.36297E+02 -1.00138E+04  3.75551E+03 -5.28532E+03  3.44466E+03 -3.96734E+03
  2.71598E+03 -2.66872E+03  3.17080E+03 -3.24949E+03  5.07255E+03 -2.74533E+03  5.87262E+03 -4.91490E+02
  7.50373E+03  1.69097E+03  3.54746E+03  6.44460E+03 -1.59239E+03  7.29971E+03 -8.27760E+03  5.90313E+03
 -1.00259E+04 -1.09125E+03 -5.77615E+03 -7.27062E+03 -4.29611E+02 -1.06675E+04  5.97445E+03 -1.09840E+04
  1.05104E+04 -6.11217E+03  1.31798E+04  1.42606E+03  9.07170E+03  9.27348E+03  1.89597E+03  1.19455E+04
 -4.66978E+03  1.04889E+04 -7.10843E+03  3.45087E+03 -4.46010E+03 -1.37894E+03 -1.72298E+03 -1.40111E+03
 -9.56034E+02  2.07138E+02 -1.88717E+03  2.37884E+03 -4.36625E+03  1.80899E+03 -7.30104E+03 -1.02953E+03
 -4.56482E+03 -7.18738E+03  5.57381E+02 -9.69335E+03  5.87806E+03 -8.93003E+03  8.90605E+03 -2.47790E+03
  9.14050E+03  4.79983E+03  4.20804E+03  8.36897E+03 -1.79065E+03  9.67020E+03 -6.47154E+03  6.08822E+03
 -8.43569E+03  6.85535E+02 -6.84796E+03 -5.59497E+03 -1.14048E+03 -7.73996E+03  3.90378E+03 -5.71557E+03
  5.90798E+03 -2.06809E+03  4.14607E+03  1.31883E+03  1.24818E+03  3.05949E+03  9.35079E+02  1.17341E+03
  2.17675E+03  1.19991E+03  2.36350E+03  1.24584E+03  2.80804E+03  3.69502E+03  2.45395E+03  4.60901E+03
 -2.14898E+03  7.30460E+03 -6.09403E+03  7.72278E+03 -8.99867E+03  2.18210E+03 -9.43475E+03 -3.02367E+03
 -4.59390E+03 -9.12797E+03  1.21132E+03 -1.00477E+04  5.38270E+03 -6.33100E+03  7.55248E+03 -2.21485E+03
  5.77524E+03  3.39522E+03  1.36865E+03  5.37854E+03 -2.34958E+03  3.39018E+03 -3.28933E+03 -5.68625E+02
 -1.84248E+03 -3.86491E+03  2.24623E+03 -3.82462E+03  3.68960E+03 -2.00382E+03  3.70769E+03  9.12679E+02
  2.13547E+03  1.46602E+03  9.84387E+02  8.20672E+02 -8.84152E+02  1.31291E+03  1.57181E+03 -3.89337E+02
  1.02666E+03 -4.15851E+02  3.95335E+03  1.30537E+03  1.76083E+03  5.01386E+03 -7.79934E+02  6.12452E+03
 -4.17394E+03  3.80065E+03 -5.58218E+03  1.02837E+03 -5.02169E+03 -2.21165E+03 -1.53652E+03 -3.27063E+03
  4.06140E+02 -3.39243E+03  2.15498E+03 -1.60260E+03  1.63363E+03  1.87952E+03 -9.46975E+02  2.89467E+03
 -3.69984E+03  1.55629E+03 -3.80315E+03 -2.31111E+03 -2.23968E+03 -4.71286E+03  7.20593E+02 -4.48941E+03
  2.59050E+03 -2.69289E+03  2.95398E+03 -2.00722E+02  3.16112E+03  5.30118E+02  3.98940E+02  2.69607E+03
 -1.67545E+03  6.42107E+02 -2.33577E+03 -1.09791E+03  1.01690E+03 -3.26024E+03  4.42871E+03 -2.77218E+03
  4.56943E+03  4.59021E+02  5.77466E+03  3.04194E+03  2.05359E+03  5.08977E+03 -1.52115E+03  5.15353E+03
 -4.41983E+03  1.75733E+03 -4.49221E+03 -8.95222E+02 -2.46572E+03 -3.69889E+03  7.58923E+02 -2.99030E+03
  3.40204E+03 -1.84761E+03  3.09777E+03  1.56739E+03  7.77058E+02  3.23925E+03  1.05976E+01  2.67673E+03
 -1.55274E+03  1.89735E+03 -1.25596E+03  5.66409E+02 -2.42965E+02  6.89514E+02 -1.24257E+03  1.20559E+03
 -1.84832E+03  2.12113E+03 -3.52115E+03  1.87674E+03 -4.88936E+03 -1.54595E+02 -6.05254E+03 -3.25326E+03
 -2.98040E+03 -6.90878E+03  1.50983E+03 -8.14389E+03  4.31925E+03 -6.43696E+03  7.39395E+03 -2.26260E+03
  7.16156E+03  8.70342E+02  4.10184E+03  4.83346E+03  6.80005E+01  5.23319E+03 -1.98740E+03  4.11146E+03
 -3.03938E+03  1.67074E+03 -1.66532E+03 -4.68508E+02 -8.50680E+02 -3.48823E+02 -7.99074E+02 -1.18728E+02
 -1.54499E+03  1.58234E+02 -1.43684E+03 -1.68755E+02 -1.16369E+02 -1.47084E+03 -3.56113E+02 -2.24394E+03
  2.85736E+03 -1.66040E+03  2.99375E+03  1.99389E+02  3.30732E+03  2.71363E+03  4.11583E+02  4.86980E+03
 -2.42343E+03  6.17419E+03 -5.04291E+03  3.44240E+03 -5.90866E+03 -5.89156E+02 -4.38042E+03 -3.57782E+03
 -1.76810E+03 -4.74187E+03  1.31186E+03 -4.09910E+03  2.99505E+03 -2.26195E+03  3.07525E+03  1.55156E+02
  1.97069E+03  1.20195E+03  2.93175E+02  1.72833E+03 -9.56344E+02 -9.14768E+01 -1.11603E+02 -7.13246E+02
  1.84879E+03 -4.74863E+02  1.54595E+03  7.92752E+02  1.08101E+03  1.98122E+03  3.14369E+02  2.24104E+03
 -2.12481E+03  2.00299E+03 -2.82830E+03  1.10992E+02 -2.66691E+03 -1.98792E+03 -6.09325E+02 -3.98337E+03
  2.24897E+03 -3.03095E+03  3.39751E+03 -8.81818E+02  3.34424E+03  2.54452E+02  1.77091E+03  2.84850E+03
  6.03514E+02  3.05993E+03 -9.83456E+02  2.55365E+03 -2.44328E+03  1.45097E+03 -1.59908E+03  1.13918E+02
 -8.85219E+02 -2.39350E+02 -1.03087E+03  5.11261E+02 -1.76542E+03  3.68114E+02 -2.30075E+03 -7.41283E+02
 -2.45542E+03 -1.05379E+03 -6.30131E+02 -3.30181E+03  1.44589E+03 -3.48544E+03  2.66872E+03 -1.19943E+03
  2.84585E+03  6.10556E+02  1.10925E+03  2.31941E+03 -8.88293E+01  3.45493E+03 -2.22451E+03  2.03734E+03
