 $NMID ID='MM_0lb_SNR800_17hz_g50_35.RAW', FMTDAT='(8E13.5)'
 TRAMP=1., VOLUME=1. $END
  3.09783E+05  2.86592E+02  3.37066E+05  2.50607E+05  8.43202E+04  3.37695E+05 -1.32791E+05  2.50758E+05
 -1.90375E+05  8.26004E+04 -1.11112E+05 -3.28111E+04  1.01741E+03 -5.04108E+04  5.37095E+04  5.65220E+01
  3.52142E+04  5.27334E+04 -1.67694E+04  7.51279E+04 -6.06131E+04  6.27931E+04 -8.31033E+04  3.15965E+04
 -8.01054E+04 -1.13902E+04 -5.65798E+04 -5.07490E+04 -1.49361E+04 -6.90167E+04  2.72648E+04 -4.51682E+04
  3.92863E+04  3.72669E+03  1.58328E+04  4.72216E+04 -3.42372E+04  4.67821E+04 -6.61558E+04 -2.91315E+02
 -5.26413E+04 -5.64444E+04 -6.50834E+03 -7.61158E+04  3.35270E+04 -5.38144E+04  4.71388E+04 -1.68793E+04
  4.24268E+04  1.13859E+04  3.12509E+04  2.51960E+04  1.55889E+04  2.87537E+04 -4.93411E+03  2.68818E+04
 -2.16459E+04  1.25116E+04 -1.91276E+04 -4.40341E+03  4.87656E+03 -7.60605E+03  2.16873E+04  1.16580E+04
  7.28783E+03  3.43494E+04 -3.09881E+04  3.47928E+04 -6.16005E+04  2.27519E+03 -5.60694E+04 -4.17839E+04
 -1.22037E+04 -6.18743E+04  3.90915E+04 -4.42008E+04  5.67313E+04 -2.06245E+03  3.30993E+04  3.13108E+04
 -6.43427E+03  3.45537E+04 -2.87891E+04  1.44590E+04 -2.89334E+04 -5.05087E+03 -1.52952E+04 -1.05783E+04
 -7.57132E+03 -1.20392E+04 -7.98250E+02 -1.73633E+04  6.99677E+03 -2.26906E+04  1.50654E+04 -1.35431E+04
  1.16627E+04  4.64006E+03 -6.96535E+03  1.27307E+04 -2.02276E+04 -3.54924E+03 -8.27571E+03 -3.17238E+04
  2.16363E+04 -4.15531E+04  4.62213E+04 -1.91514E+04  4.31939E+04  1.87507E+04  1.50905E+04  4.27355E+04
 -1.56115E+04  3.20508E+04 -2.43309E+04  1.41784E+03 -9.23371E+03 -2.70234E+04  2.07861E+04 -3.23482E+04
  3.91805E+04 -7.80115E+03  3.29854E+04  2.30112E+04  1.66353E+04  4.42837E+04 -7.67357E+03  4.71933E+04
 -2.99018E+04  3.17873E+04 -3.97650E+04  8.60608E+03 -4.00934E+04 -1.55796E+04 -2.20510E+04 -3.59095E+04
  6.91984E+03 -3.57420E+04  3.02221E+04 -1.36321E+04  2.79022E+04  1.10799E+04  3.35355E+03  1.83938E+04
 -1.32794E+04  7.74410E+03 -1.01360E+04 -7.57404E+03  5.73145E+03 -1.04572E+04  1.76881E+04  6.13752E+03
  1.27640E+04  2.21825E+04 -6.33399E+03  2.38795E+04 -2.18643E+04  1.04958E+04 -2.63781E+04 -5.72009E+03
 -1.81394E+04 -1.67716E+04 -6.49720E+03 -1.83329E+04  3.83021E+03 -1.68078E+04  1.39219E+04 -1.57898E+04
  2.33087E+04 -1.18422E+04  2.99848E+04  1.67916E+03  2.22317E+04  1.76731E+04  4.14072E+03  3.41993E+04
 -1.67385E+04  2.86721E+04 -2.67729E+04  9.86077E+03 -2.03250E+04 -1.04651E+04 -4.30600E+03 -1.39167E+04
  2.45214E+03 -3.49134E+03 -3.43373E+03  5.88055E+03 -1.42931E+04  4.99056E+03 -1.43147E+04 -5.52825E+03
 -9.28661E+03 -1.70461E+04  5.12443E+03 -2.07514E+04  1.39124E+04 -1.48346E+04  1.59161E+04 -1.59799E+03
  9.91306E+03  1.16171E+04 -1.31074E+03  1.70459E+04 -1.13982E+04  9.60418E+03 -1.69309E+04 -3.81431E+03
 -1.24108E+04 -1.51386E+04 -1.72598E+03 -2.07318E+04  9.33679E+03 -1.68454E+04  1.72692E+04 -8.00495E+03
  1.57067E+04  4.47557E+02  1.14138E+04  4.12346E+03  5.85617E+03  7.96194E+02  8.49595E+03 -1.31545E+03
  1.50405E+04  2.90928E+03  1.65535E+04  1.37033E+04  1.01927E+04  2.66073E+04 -3.02601E+03  2.94766E+04
 -1.72489E+04  2.32002E+04 -2.71040E+04  1.13160E+04 -2.82474E+04 -2.02267E+03 -2.38457E+04 -1.60779E+04
 -1.03681E+04 -2.32280E+04  7.87640E+03 -2.11800E+04  1.84051E+04 -1.16182E+04  1.68412E+04  4.01177E+03
  6.70458E+03  1.23013E+04 -7.52617E+03  1.11603E+04 -1.43044E+04  2.74542E+03 -1.13627E+04 -8.56317E+03
 -5.16225E+02 -1.31657E+04  6.65841E+03 -1.00139E+04  8.68366E+03 -1.46949E+03  1.67506E+03  5.56372E+03
 -6.30229E+03  1.71611E+03 -4.54217E+03 -4.82430E+03  2.03184E+01 -1.15878E+04  8.53834E+03 -1.13627E+04
  1.40907E+04 -5.63483E+03  1.41872E+04  2.83072E+03  1.22419E+04  1.08040E+04  5.74378E+03  1.61108E+04
 -2.20806E+03  1.80816E+04 -1.09367E+04  1.14183E+04 -1.29514E+04  3.39258E+03 -9.51025E+03 -2.32863E+03
 -4.92651E+03 -3.78343E+03 -8.25672E+02  1.19890E+03 -2.15625E+03  2.18372E+03 -4.38884E+03  4.09256E+03
 -8.83077E+03 -4.43326E+02 -9.42843E+03 -7.94733E+03 -3.94571E+03 -1.24796E+04  3.93526E+03 -9.61959E+03
  7.99980E+03 -3.78228E+03  5.65131E+03  2.73107E+03  5.81413E+02  3.44228E+03 -4.10472E+03 -2.12868E+02
 -3.83670E+03 -6.01994E+03 -7.15378E+02 -8.30166E+03  4.81501E+03 -9.09544E+03  1.13507E+04 -4.92403E+03
  1.32862E+04  1.02913E+03  9.90768E+03  7.28642E+03  2.31963E+03  1.03128E+04 -5.52946E+03  9.27764E+03
 -7.62856E+03  2.90702E+03 -3.90783E+03 -1.60723E+03  1.13158E+03 -2.19217E+03  5.14344E+03 -8.17438E+02
  4.44036E+03  3.91279E+03  1.05457E+03  6.98785E+03 -5.10305E+03  7.40932E+03 -9.03731E+03  2.08985E+03
 -5.61381E+03 -4.08873E+03  2.63908E+02 -7.68702E+03  4.36684E+03 -3.92227E+03  4.25362E+03  1.25514E+03
  7.68617E+02  4.02974E+03 -4.84394E+03  5.34842E+03 -5.82581E+03  2.72730E+03 -5.84268E+03 -1.66662E+03
 -3.35590E+03 -7.15096E+03  1.59760E+03 -8.49458E+03  7.03839E+03 -5.34360E+03  7.72729E+03  1.63316E+03
  5.22253E+03  6.10118E+03 -6.91052E+01  8.16721E+03 -5.80579E+03  4.65394E+03 -6.32875E+03 -6.01379E+02
 -6.50999E+03 -5.71008E+03 -1.39371E+03 -5.78337E+03  2.95038E+03 -5.53611E+03  3.56927E+03 -2.94575E+03
  3.34189E+03  3.25798E+02 -1.06964E+02  1.39854E+03  4.31312E+02 -3.60596E+02  4.86429E+02 -2.49842E+03
  4.72384E+03 -1.23816E+03  6.70775E+03  9.82403E+02  6.82417E+03  3.88148E+03  6.00054E+03  8.78374E+03
 -1.64830E+03  1.03873E+04 -9.03097E+03  7.59039E+03 -1.18643E+04  1.43676E+03 -9.26421E+03 -3.22848E+03
 -5.00845E+03 -7.90154E+03 -5.21059E+02 -6.37063E+03  2.32559E+03 -3.01056E+03  1.97573E+03 -2.56627E+03
  1.55130E+03 -1.96541E+03  2.46078E+03 -2.38610E+03  3.87341E+03 -1.52579E+03  3.94280E+03  1.57589E+02
  5.26179E+03  1.29544E+03  1.62900E+03  4.16094E+03 -1.90880E+03  3.91732E+03 -5.25642E+03  3.13975E+03
 -6.18661E+03 -1.23707E+03 -2.61367E+03 -3.99720E+03  3.80696E+02 -6.17147E+03  3.88472E+03 -6.49193E+03
  6.17849E+03 -3.74707E+03  7.87834E+03  6.47703E+02  5.81498E+03  5.29293E+03  1.31309E+03  7.09627E+03
 -2.67021E+03  6.73016E+03 -3.96738E+03  2.37631E+03 -2.50848E+03 -1.04511E+03 -7.60280E+02 -5.77837E+02
 -4.03482E+02  2.12294E+02 -1.25535E+03  1.85243E+03 -2.95030E+03  1.34935E+03 -4.79868E+03 -4.56590E+02
 -2.19090E+03 -4.61840E+03  6.51814E+02 -5.58862E+03  3.39138E+03 -5.09594E+03  4.51963E+03 -1.40473E+03
  5.03611E+03  2.78079E+03  2.29603E+03  4.49424E+03 -8.37560E+02  5.49754E+03 -3.46722E+03  3.57231E+03
 -4.81777E+03  7.80299E+02 -4.13364E+03 -3.11682E+03 -9.90151E+01 -4.25554E+03  1.89034E+03 -2.86665E+03
  3.34072E+03 -1.66192E+03  2.05565E+03  5.70975E+02  7.75005E+02  1.78283E+03  1.02396E+03  6.52469E+02
  1.79538E+03  4.49308E+02  1.27886E+03  1.14026E+03  1.54959E+03  2.70181E+03  1.71878E+03  2.34947E+03
 -1.49251E+03  3.69088E+03 -3.05714E+03  4.87502E+03 -4.39245E+03  1.45697E+03 -5.39461E+03 -1.07924E+03
 -2.54189E+03 -4.88609E+03  7.29064E+02 -5.69653E+03  2.64098E+03 -3.22831E+03  3.93755E+03 -1.36254E+03
  3.05042E+03  2.01766E+03  5.67161E+02  3.18843E+03 -8.94392E+02  1.67169E+03 -1.69455E+03 -3.35776E+02
 -7.99707E+02 -2.03886E+03  1.35006E+03 -2.06181E+03  1.82200E+03 -1.28946E+03  1.77940E+03  1.82836E+02
  7.91985E+02  5.08359E+02  9.67474E+02 -1.05128E+02 -2.54933E+02  8.49014E+02  1.74814E+03 -8.60670E+01
  4.88794E+02 -2.33540E+00  2.00399E+03  7.89189E+02  2.68394E+02  3.07434E+03 -6.53981E+02  3.40097E+03
 -1.94605E+03  1.43993E+03 -2.71715E+03  6.85745E+02 -2.72118E+03 -7.58025E+02 -2.92138E+02 -1.41548E+03
  4.09701E+02 -1.83162E+03  9.86116E+02 -9.50381E+02  8.49078E+02  1.48943E+03 -9.26266E+02  1.36700E+03
 -1.66357E+03  9.53832E+02 -1.65889E+03 -1.23815E+03 -1.11112E+03 -2.65462E+03  3.68408E+02 -2.17603E+03
  1.19210E+03 -9.09604E+02  1.31145E+03  4.03772E+02  1.70111E+03 -2.01908E+02  3.23607E+02  1.32294E+03
 -3.75033E+02  2.87378E+02 -1.14681E+03 -4.45742E+02  7.08374E+02 -1.05529E+03  2.29813E+03 -1.21139E+03
  1.91137E+03  4.07208E+02  3.18913E+03  8.78967E+02  1.30406E+03  2.39240E+03 -5.72509E+02  2.56448E+03
 -1.79031E+03  7.25207E+02 -1.99137E+03 -2.98836E+01 -1.04775E+03 -1.75853E+03  4.66548E+02 -8.42728E+02
  1.99620E+03 -7.10413E+02  1.26305E+03  9.01064E+02  5.31247E+02  1.57530E+03 -8.25726E-01  1.28339E+03
 -5.50071E+02  1.24342E+03 -4.44986E+02  2.24701E+02 -6.11583E+01  6.76287E+02 -7.98635E+02  7.74997E+02
 -5.39064E+02  1.18008E+03 -1.92365E+03  4.79196E+02 -2.33953E+03  1.95428E+02 -2.72682E+03 -1.21126E+03
 -1.69387E+03 -3.05165E+03  6.88177E+02 -3.90331E+03  1.68510E+03 -3.19568E+03  3.28069E+03 -1.55659E+03
  3.12916E+03  1.06228E+02  1.80782E+03  2.05823E+03 -5.03914E+02  2.12056E+03 -8.90920E+02  1.42324E+03
 -1.47313E+03  9.22903E+02 -6.04456E+02 -2.50395E+02 -5.78152E+02  2.06314E+02 -5.82757E+02 -1.74556E+01
 -9.95542E+02  7.54332E+01 -8.61612E+02 -2.37768E+01  1.70049E+02 -7.45798E+02 -2.32061E+02 -1.13828E+03
  1.37265E+03 -1.04513E+03  6.24359E+02  7.51513E+01  1.38793E+03  1.46760E+03 -2.98791E+02  2.02073E+03
 -1.26252E+03  2.95277E+03 -2.18474E+03  1.64811E+03 -2.18758E+03 -2.59790E+02 -1.62214E+03 -1.81751E+03
 -1.05626E+03 -1.77519E+03  4.87517E+02 -1.57702E+03  1.17081E+03 -1.11231E+03  8.89338E+02  3.40988E+02
  7.97138E+02  5.65966E+02  2.99467E+02  4.69038E+02 -3.62119E+02  2.26247E+02 -1.86922E+02 -1.05325E+02
  5.74382E+02  3.00702E+02  4.84324E+02  5.89984E+02  3.31916E+02  6.48664E+02  2.88958E+02  5.95244E+02
 -7.49868E+02  8.73458E+02 -8.50316E+02  1.78873E+02 -1.00109E+03 -9.30010E+02 -1.06604E+01 -1.61061E+03
  8.14422E+02 -9.84491E+02  8.88273E+02 -8.89226E+01  1.25103E+03 -6.25369E+02  7.52445E+02  1.34496E+03
  3.36492E+02  8.49714E+02 -1.94049E+02  5.84024E+02 -5.95423E+02  7.29120E+02 -8.60296E+02  1.32683E+02
 -1.25375E+01  3.05566E+01 -3.30657E+02  5.07359E+01 -5.50614E+02  8.10305E+01 -8.19955E+02 -5.37258E+02
 -1.55998E+03 -8.63413E+01 -4.97386E+02 -1.42700E+03  1.00767E+03 -1.74138E+03  1.01528E+03 -3.98436E+02
  8.73697E+02  1.11850E+02 -2.39511E+02  4.67713E+02 -1.44661E+02  1.08543E+03 -6.74243E+02  9.72228E+02
