 $NMID ID='MM_0lb_SNR800_18hz_g50_84.RAW', FMTDAT='(8E13.5)'
 TRAMP=1., VOLUME=1. $END
  3.09878E+05  3.87956E+02  3.37287E+05  2.50784E+05  8.43794E+04  3.37812E+05 -1.32528E+05  2.50552E+05
 -1.89851E+05  8.26368E+04 -1.11250E+05 -3.28271E+04  1.46593E+03 -5.03085E+04  5.42600E+04  4.25461E+01
  3.52679E+04  5.30187E+04 -1.70469E+04  7.50402E+04 -6.03760E+04  6.28194E+04 -8.32967E+04  3.14307E+04
 -8.00502E+04 -1.13197E+04 -5.63373E+04 -5.04754E+04 -1.51036E+04 -6.86801E+04  2.67433E+04 -4.52489E+04
  3.92558E+04  3.75835E+03  1.56094E+04  4.74028E+04 -3.41936E+04  4.64104E+04 -6.56116E+04 -6.89499E+02
 -5.21512E+04 -5.59733E+04 -6.49070E+03 -7.56493E+04  3.31408E+04 -5.35237E+04  4.67123E+04 -1.66234E+04
  4.21814E+04  1.10799E+04  3.12021E+04  2.46358E+04  1.57443E+04  2.84205E+04 -4.64014E+03  2.70656E+04
 -2.15568E+04  1.27400E+04 -1.91113E+04 -4.51327E+03  4.78370E+03 -7.42979E+03  2.15953E+04  1.11966E+04
  7.54499E+03  3.36455E+04 -3.08549E+04  3.46051E+04 -6.17821E+04  2.18848E+03 -5.59060E+04 -4.15879E+04
 -1.25253E+04 -6.15370E+04  3.87708E+04 -4.37319E+04  5.61068E+04 -2.20154E+03  3.24053E+04  3.09281E+04
 -6.23692E+03  3.40384E+04 -2.88812E+04  1.36730E+04 -2.84700E+04 -5.07548E+03 -1.49356E+04 -1.02612E+04
 -7.32705E+03 -1.20391E+04 -1.04087E+03 -1.68932E+04  6.98649E+03 -2.28835E+04  1.49524E+04 -1.36962E+04
  1.19324E+04  4.32501E+03 -6.59528E+03  1.28226E+04 -1.96041E+04 -2.79985E+03 -8.21199E+03 -3.11290E+04
  2.12781E+04 -4.11100E+04  4.57384E+04 -1.86840E+04  4.26194E+04  1.83282E+04  1.44558E+04  4.21224E+04
 -1.54761E+04  3.15456E+04 -2.41351E+04  1.23321E+03 -8.68870E+03 -2.67933E+04  2.03583E+04 -3.19363E+04
  3.86465E+04 -7.53799E+03  3.25146E+04  2.29553E+04  1.63289E+04  4.34883E+04 -7.62595E+03  4.64141E+04
 -2.92555E+04  3.07529E+04 -3.80427E+04  8.71373E+03 -3.92675E+04 -1.54167E+04 -2.19240E+04 -3.50880E+04
  7.05746E+03 -3.48299E+04  2.99412E+04 -1.31411E+04  2.74527E+04  1.09634E+04  3.42745E+03  1.81050E+04
 -1.30740E+04  7.45242E+03 -9.76932E+03 -7.71317E+03  6.14373E+03 -1.02506E+04  1.76251E+04  6.38607E+03
  1.25767E+04  2.16800E+04 -6.50592E+03  2.36776E+04 -2.18068E+04  9.47175E+03 -2.57977E+04 -5.74723E+03
 -1.75399E+04 -1.66843E+04 -6.09452E+03 -1.73289E+04  3.82076E+03 -1.57203E+04  1.32643E+04 -1.53242E+04
  2.24784E+04 -1.17786E+04  2.87178E+04  1.47098E+03  2.17433E+04  1.70141E+04  3.99823E+03  3.35360E+04
 -1.61200E+04  2.83538E+04 -2.63090E+04  9.94957E+03 -1.97537E+04 -1.03804E+04 -4.02708E+03 -1.37949E+04
  2.52194E+03 -3.97863E+03 -3.11419E+03  5.58616E+03 -1.36429E+04  5.17375E+03 -1.38567E+04 -5.47540E+03
 -9.06210E+03 -1.61986E+04  4.32934E+03 -2.00925E+04  1.32941E+04 -1.45799E+04  1.51063E+04 -1.60660E+03
  9.48172E+03  1.13664E+04 -8.95721E+02  1.63468E+04 -1.08524E+04  9.11894E+03 -1.60843E+04 -3.56387E+03
 -1.19943E+04 -1.48044E+04 -1.57564E+03 -1.98801E+04  8.89652E+03 -1.59424E+04  1.67751E+04 -7.52042E+03
  1.48762E+04  5.49466E+02  1.11174E+04  4.10703E+03  5.36316E+03  6.22168E+02  8.16352E+03 -1.45726E+03
  1.42610E+04  2.72425E+03  1.56085E+04  1.30048E+04  9.83118E+03  2.55880E+04 -2.95235E+03  2.78628E+04
 -1.63817E+04  2.17194E+04 -2.54470E+04  1.04797E+04 -2.62750E+04 -1.77060E+03 -2.23775E+04 -1.53544E+04
 -1.03829E+04 -2.14095E+04  7.31201E+03 -1.99407E+04  1.73622E+04 -1.13031E+04  1.60595E+04  3.84776E+03
  6.38842E+03  1.18214E+04 -7.49388E+03  1.10227E+04 -1.38567E+04  2.59452E+03 -1.04422E+04 -8.39557E+03
  2.59986E+02 -1.27896E+04  6.51579E+03 -9.70872E+03  8.18932E+03 -1.43034E+03  1.55348E+03  5.25858E+03
 -5.61302E+03  1.38587E+03 -4.12152E+03 -4.63991E+03  4.72516E+02 -1.08672E+04  8.11488E+03 -1.08033E+04
  1.28346E+04 -5.31302E+03  1.27335E+04  2.64406E+03  1.11931E+04  1.00662E+04  5.34367E+03  1.51130E+04
 -2.00499E+03  1.69848E+04 -1.01708E+04  1.05362E+04 -1.17715E+04  3.15350E+03 -8.74316E+03 -2.24197E+03
 -4.79407E+03 -3.54381E+03 -7.87860E+02  1.44004E+03 -2.24893E+03  1.89112E+03 -3.59281E+03  3.42907E+03
 -8.27201E+03 -4.11730E+02 -9.28459E+03 -7.62081E+03 -3.73110E+03 -1.21903E+04  3.68655E+03 -8.80810E+03
  7.50244E+03 -3.88714E+03  5.40759E+03  1.99286E+03  3.96860E+02  3.01564E+03 -3.74328E+03 -8.37826E+00
 -3.55843E+03 -5.64451E+03 -7.49767E+02 -7.77362E+03  4.14529E+03 -8.61042E+03  1.06168E+04 -4.52794E+03
  1.24258E+04  8.96461E+02  9.03814E+03  6.77507E+03  1.63842E+03  9.08130E+03 -5.20421E+03  8.59071E+03
 -7.10518E+03  2.99851E+03 -3.79419E+03 -1.01573E+03  1.33192E+03 -2.15460E+03  4.77954E+03 -7.28620E+02
  4.30658E+03  3.43054E+03  1.07615E+03  6.69470E+03 -4.66771E+03  6.61250E+03 -8.34530E+03  2.06454E+03
 -4.98166E+03 -3.68746E+03  2.34885E+02 -6.98462E+03  3.79684E+03 -3.40653E+03  3.72521E+03  9.50240E+02
  5.95823E+02  3.50351E+03 -4.56055E+03  5.02536E+03 -5.48556E+03  2.59974E+03 -4.67853E+03 -1.36500E+03
 -3.31245E+03 -6.55890E+03  1.33912E+03 -7.61140E+03  6.58152E+03 -4.90450E+03  7.10554E+03  9.24654E+02
  5.11293E+03  5.59680E+03 -1.86760E+02  7.46140E+03 -5.22195E+03  4.34286E+03 -5.64216E+03 -7.60173E+02
 -5.87884E+03 -5.18965E+03 -1.34029E+03 -5.36930E+03  2.87760E+03 -4.98470E+03  3.14008E+03 -2.95568E+03
  3.22415E+03  9.96159E+01  6.91639E+00  1.33900E+03  5.88132E+02 -5.49648E+02  2.50041E+02 -1.91948E+03
  4.22065E+03 -8.77524E+02  5.51742E+03  5.44711E+02  5.93001E+03  3.27790E+03  5.58402E+03  7.60223E+03
 -1.26707E+03  9.26186E+03 -8.26546E+03  7.00467E+03 -1.07017E+04  1.05121E+03 -8.59492E+03 -2.70896E+03
 -4.42718E+03 -7.00703E+03 -2.79482E+02 -5.65105E+03  2.20280E+03 -2.32956E+03  1.56246E+03 -2.18585E+03
  1.51162E+03 -1.76391E+03  2.16164E+03 -2.06604E+03  3.58406E+03 -1.33291E+03  3.71979E+03  3.13280E+02
  4.56091E+03  1.17497E+03  1.12785E+03  3.82925E+03 -1.46007E+03  3.61348E+03 -4.73372E+03  2.96720E+03
 -5.39518E+03 -8.64613E+02 -2.05416E+03 -3.42235E+03  5.88738E+02 -5.33750E+03  3.18039E+03 -5.63610E+03
  5.45934E+03 -3.66082E+03  7.05805E+03  1.79798E+02  5.18435E+03  4.52070E+03  1.57679E+03  6.56311E+03
 -2.48101E+03  6.08463E+03 -3.64762E+03  2.09595E+03 -2.24395E+03 -1.16156E+03 -6.35890E+02 -5.30429E+02
 -5.44701E+02  2.56207E+02 -1.04440E+03  2.30460E+03 -2.41838E+03  1.34753E+03 -4.04179E+03 -4.21918E+02
 -1.80528E+03 -4.68760E+03  8.09623E+02 -5.10479E+03  2.92391E+03 -4.80696E+03  3.96316E+03 -9.85656E+02
  4.24455E+03  2.34693E+03  2.10104E+03  3.42345E+03 -7.40689E+02  4.70098E+03 -2.76913E+03  2.92032E+03
 -3.94623E+03  6.08811E+02 -3.64821E+03 -2.86615E+03  1.53728E+01 -3.59537E+03  1.62564E+03 -2.85397E+03
  2.80521E+03 -1.14508E+03  2.13784E+03  4.33556E+02  5.04050E+02  1.98334E+03  9.69484E+02  5.05155E+02
  1.69187E+03  7.27196E+02  1.05736E+03  8.07128E+02  8.76061E+02  2.44358E+03  1.32791E+03  1.74572E+03
 -1.08328E+03  3.03196E+03 -2.52423E+03  4.03033E+03 -3.32847E+03  1.38660E+03 -4.11830E+03 -3.05227E+02
 -1.97229E+03 -3.84983E+03  6.57123E+02 -5.03414E+03  2.06444E+03 -2.76634E+03  3.68010E+03 -8.03554E+02
  2.69180E+03  1.89853E+03  3.61361E+02  2.40914E+03 -1.08515E+03  1.13908E+03 -1.17075E+03 -2.69546E+02
 -6.60575E+02 -1.67619E+03  1.51420E+03 -1.96729E+03  1.21789E+03 -1.16100E+03  1.55938E+03  1.92721E+02
  9.67335E+02  3.24695E+02  8.92293E+02  7.53636E+01 -3.06038E+02  6.23122E+02  1.85043E+03 -3.23929E+02
  9.07001E-01 -1.23368E+02  1.82928E+03  5.86994E+02  4.81730E+02  2.36068E+03 -6.01915E+02  2.94437E+03
 -1.87643E+03  1.10869E+03 -2.07900E+03  4.91829E+02 -2.43168E+03 -8.38639E+02 -4.41777E+02 -1.00049E+03
  5.32956E+02 -1.11718E+03  8.26380E+02 -6.95076E+02  7.87727E+02  1.20274E+03 -7.60401E+02  1.13252E+03
 -1.90672E+03  1.01734E+03 -1.50109E+03 -1.26218E+03 -7.32812E+02 -2.46217E+03  5.16416E+02 -1.60339E+03
  3.81919E+02 -4.94655E+02  6.60507E+02  3.56479E+02  1.30335E+03 -6.14991E+01  2.89989E+02  9.59780E+02
 -6.88577E+02  1.98048E+02 -7.77128E+02 -3.35609E+02  6.86645E+02 -1.13017E+03  1.95393E+03 -1.04314E+03
  1.31646E+03  3.45034E+02  2.89522E+03  6.12354E+02  1.21597E+03  1.85265E+03 -4.33353E+02  2.03907E+03
 -1.39903E+03  1.58133E+02 -1.65500E+03 -3.03424E+02 -1.04002E+03 -1.34201E+03  1.57716E+02 -4.60476E+02
  1.61678E+03 -1.07563E+03  7.94117E+02  8.41022E+02  8.69425E+01  1.33579E+03  2.88029E+02  1.13518E+03
 -3.68669E+02  1.11174E+03 -7.33311E+02  3.92182E+02 -2.59563E+02  4.39173E+02 -8.04079E+02  6.03544E+02
 -6.92028E+02  9.74272E+02 -1.88217E+03  4.44899E+02 -1.99622E+03  5.11759E+01 -2.71329E+03 -1.01273E+03
 -1.27695E+03 -2.63728E+03  5.44519E+02 -3.00454E+03  1.37573E+03 -2.92322E+03  3.01343E+03 -9.76836E+02
  2.42276E+03 -1.69045E+02  1.33205E+03  1.61337E+03 -2.98541E+02  1.44370E+03 -8.25283E+02  1.52954E+03
 -9.41545E+02  6.96363E+02 -6.12130E+02 -3.24494E+02 -7.43383E+02  8.88433E+01 -6.42180E+02 -6.42434E+01
 -1.16656E+03 -4.13878E+02 -8.59287E+02  2.63791E+02  2.34184E+02 -7.47378E+02 -3.32762E+02 -1.25580E+03
  1.34247E+03 -6.90579E+02  6.74507E+02  3.16501E+01  1.04414E+03  1.13251E+03 -4.30295E+02  1.47180E+03
 -9.40502E+02  2.59768E+03 -1.99191E+03  1.04848E+03 -1.64642E+03 -4.31504E+00 -1.42730E+03 -1.36520E+03
 -7.18626E+02 -1.56126E+03  4.22351E+02 -1.40790E+03  7.98372E+02 -5.59193E+02  6.01544E+02  6.21160E+01
  7.70700E+02  2.63704E+02  3.37505E+02  4.27047E+02 -3.14097E+02 -1.63047E+02 -1.49444E+02 -1.69234E+02
  4.85886E+02  1.74296E+02  3.77672E+02  3.07024E+02  4.37793E+01  4.62899E+02  3.36041E+02  8.74771E+01
 -7.00849E+02  7.64875E+02 -4.63403E+02  1.04908E+02 -1.03000E+03 -5.69610E+02 -8.51409E+01 -1.08912E+03
  7.44268E+02 -1.20033E+03  7.70578E+02  3.34628E+02  9.75251E+02 -6.70466E+02  5.66590E+02  1.10120E+03
  4.54057E+02  4.43665E+02  7.19958E+01  7.00668E+02 -7.23791E+02  6.50303E+02  2.62931E+01  3.63879E+01
 -1.28604E+02 -1.74981E+02 -8.71751E+02  4.20334E+00 -3.92569E+02  3.88921E+02 -7.50240E+02 -2.47593E+02
 -1.15536E+03  1.24625E+02 -3.60867E+02 -1.18631E+03  7.47227E+02 -1.58190E+03  8.21915E+02 -2.12242E+02
  8.23621E+02 -2.55187E+02 -4.04218E+02  1.35729E+02 -1.80737E+02  9.25760E+02 -3.48957E+02  5.07336E+02
