 $NMID ID='MM_0lb_SNR800_19hz_g55_11.RAW', FMTDAT='(8E13.5)'
 TRAMP=1., VOLUME=1. $END
  3.09755E+05  4.50124E+02  3.37313E+05  2.50445E+05  8.42036E+04  3.37557E+05 -1.32357E+05  2.50614E+05
 -1.90096E+05  8.27816E+04 -1.11425E+05 -3.28818E+04  1.04652E+03 -5.02349E+04  5.41729E+04  1.21946E+02
  3.51631E+04  5.28663E+04 -1.69924E+04  7.47450E+04 -6.06355E+04  6.29346E+04 -8.32773E+04  3.16824E+04
 -8.01288E+04 -1.12422E+04 -5.66190E+04 -5.05028E+04 -1.47685E+04 -6.88766E+04  2.70567E+04 -4.50180E+04
  3.93337E+04  3.68583E+03  1.57780E+04  4.71477E+04 -3.40302E+04  4.65012E+04 -6.57695E+04 -3.44073E+02
 -5.25822E+04 -5.62470E+04 -6.29675E+03 -7.55180E+04  3.34701E+04 -5.37971E+04  4.66042E+04 -1.63610E+04
  4.22345E+04  1.09103E+04  3.12234E+04  2.48811E+04  1.57778E+04  2.86666E+04 -4.94844E+03  2.69237E+04
 -2.18401E+04  1.27961E+04 -1.89384E+04 -4.70957E+03  4.76229E+03 -7.53434E+03  2.17283E+04  1.11892E+04
  7.35225E+03  3.39574E+04 -3.08624E+04  3.43036E+04 -6.15837E+04  2.37638E+03 -5.59684E+04 -4.15986E+04
 -1.23908E+04 -6.14151E+04  3.86942E+04 -4.38923E+04  5.61710E+04 -2.09758E+03  3.27740E+04  3.10507E+04
 -6.42689E+03  3.38010E+04 -2.88987E+04  1.38149E+04 -2.82704E+04 -5.16049E+03 -1.51193E+04 -1.03156E+04
 -7.48841E+03 -1.18345E+04 -1.27169E+03 -1.69337E+04  6.76727E+03 -2.28420E+04  1.50102E+04 -1.35422E+04
  1.21560E+04  4.48266E+03 -6.83899E+03  1.27639E+04 -1.96686E+04 -2.73032E+03 -8.26793E+03 -3.09823E+04
  2.14456E+04 -4.12776E+04  4.56464E+04 -1.87906E+04  4.28323E+04  1.87451E+04  1.46717E+04  4.22481E+04
 -1.53186E+04  3.15862E+04 -2.36863E+04  1.26468E+03 -8.63707E+03 -2.67345E+04  2.04316E+04 -3.16510E+04
  3.86273E+04 -7.56075E+03  3.25904E+04  2.28483E+04  1.59717E+04  4.30326E+04 -7.76559E+03  4.62830E+04
 -2.88690E+04  3.04668E+04 -3.82664E+04  8.56158E+03 -3.91385E+04 -1.53225E+04 -2.17461E+04 -3.51539E+04
  6.93403E+03 -3.52775E+04  2.93330E+04 -1.31067E+04  2.73168E+04  1.08211E+04  3.03263E+03  1.79684E+04
 -1.28661E+04  7.55920E+03 -9.50962E+03 -7.48419E+03  5.66178E+03 -1.01836E+04  1.74729E+04  6.29773E+03
  1.26373E+04  2.17152E+04 -6.46548E+03  2.35392E+04 -2.17065E+04  9.31039E+03 -2.57951E+04 -6.29638E+03
 -1.70901E+04 -1.66627E+04 -6.08162E+03 -1.73405E+04  3.63582E+03 -1.54633E+04  1.27753E+04 -1.48787E+04
  2.23353E+04 -1.20380E+04  2.87941E+04  1.44756E+03  2.20734E+04  1.69591E+04  4.11296E+03  3.31969E+04
 -1.63178E+04  2.79897E+04 -2.63170E+04  9.63662E+03 -1.97033E+04 -1.04334E+04 -3.94616E+03 -1.38464E+04
  2.45095E+03 -3.82816E+03 -2.91378E+03  5.64494E+03 -1.35269E+04  5.20139E+03 -1.38154E+04 -4.98048E+03
 -9.03810E+03 -1.57648E+04  4.28986E+03 -1.97324E+04  1.29062E+04 -1.46120E+04  1.51865E+04 -1.52294E+03
  9.25441E+03  1.09710E+04 -1.18594E+03  1.65068E+04 -1.06298E+04  9.01670E+03 -1.59911E+04 -3.60745E+03
 -1.18732E+04 -1.47109E+04 -1.56488E+03 -1.95896E+04  8.99149E+03 -1.55726E+04  1.65970E+04 -7.46142E+03
  1.49079E+04  6.69249E+02  1.06362E+04  3.88276E+03  5.44904E+03  8.14957E+02  7.84431E+03 -1.14961E+03
  1.40751E+04  2.64931E+03  1.54092E+04  1.30145E+04  9.88199E+03  2.50509E+04 -2.99656E+03  2.75100E+04
 -1.59619E+04  2.08989E+04 -2.50647E+04  1.02159E+04 -2.59220E+04 -1.85898E+03 -2.17058E+04 -1.44052E+04
 -1.06750E+04 -2.09611E+04  6.98328E+03 -1.96488E+04  1.68874E+04 -1.10568E+04  1.60689E+04  3.88977E+03
  6.64459E+03  1.15324E+04 -7.07917E+03  1.06873E+04 -1.38046E+04  2.54376E+03 -1.05469E+04 -7.96820E+03
  7.16888E+01 -1.27610E+04  6.14413E+03 -9.51301E+03  8.20521E+03 -1.23771E+03  1.39050E+03  5.32610E+03
 -5.70135E+03  1.40025E+03 -3.85641E+03 -4.60418E+03  4.61974E+02 -1.04050E+04  8.00225E+03 -1.05523E+04
  1.27808E+04 -4.87534E+03  1.23093E+04  3.02992E+03  1.06090E+04  9.69537E+03  5.22591E+03  1.47055E+04
 -1.49462E+03  1.62851E+04 -9.93204E+03  1.04564E+04 -1.14116E+04  3.01324E+03 -8.81431E+03 -1.82585E+03
 -4.64545E+03 -3.28908E+03 -6.98788E+02  1.22862E+03 -2.04688E+03  1.91892E+03 -3.98932E+03  3.48379E+03
 -8.36091E+03 -7.21164E+02 -8.97604E+03 -7.32991E+03 -3.55440E+03 -1.16046E+04  3.54613E+03 -8.28951E+03
  7.23847E+03 -3.70013E+03  5.36252E+03  2.15827E+03  6.49595E+02  3.12722E+03 -3.72038E+03 -4.72239E+01
 -3.31068E+03 -5.28622E+03 -7.11802E+02 -7.58638E+03  4.00208E+03 -7.92241E+03  1.02271E+04 -4.00737E+03
  1.19512E+04  6.30019E+02  8.87182E+03  6.14868E+03  1.79256E+03  8.69887E+03 -5.15586E+03  8.32981E+03
 -7.19959E+03  2.89928E+03 -3.48835E+03 -1.37065E+03  1.02026E+03 -1.69135E+03  4.96427E+03 -9.91298E+02
  4.07001E+03  3.32591E+03  1.29281E+03  6.56707E+03 -4.29282E+03  6.37086E+03 -8.06787E+03  1.81467E+03
 -5.09043E+03 -3.84182E+03  5.56410E+02 -6.68722E+03  3.83745E+03 -3.33363E+03  3.48275E+03  1.10775E+03
  5.68364E+02  3.39892E+03 -4.08465E+03  4.77661E+03 -4.85769E+03  2.58169E+03 -4.37558E+03 -1.01061E+03
 -2.72991E+03 -6.05499E+03  1.09503E+03 -7.23150E+03  6.44076E+03 -4.78845E+03  6.45023E+03  7.56404E+02
  4.71102E+03  5.34388E+03  2.88783E+02  7.15266E+03 -5.23411E+03  4.09528E+03 -5.21475E+03 -6.43430E+02
 -5.66676E+03 -5.07508E+03 -1.53987E+03 -5.04329E+03  2.74072E+03 -4.84513E+03  2.65792E+03 -3.05302E+03
  2.83028E+03  3.42044E+02 -6.99961E+01  1.43633E+03  3.52017E+02 -3.13753E+02  7.25510E-01 -1.77922E+03
  4.03631E+03 -4.85874E+02  5.32543E+03  5.40180E+02  5.43607E+03  3.23481E+03  5.23106E+03  6.92093E+03
 -1.18617E+03  8.66414E+03 -7.83927E+03  6.58123E+03 -9.86322E+03  9.24829E+02 -7.71972E+03 -2.41535E+03
 -3.93214E+03 -6.56384E+03 -4.91692E+02 -4.76918E+03  2.04501E+03 -2.05783E+03  1.70832E+03 -2.05738E+03
  1.55016E+03 -1.54923E+03  2.24707E+03 -2.59590E+03  3.62677E+03 -1.24085E+03  3.49030E+03  2.63437E+02
  4.30301E+03  8.66787E+02  1.19935E+03  3.58003E+03 -1.62015E+03  2.48076E+03 -4.57186E+03  2.36324E+03
 -4.77132E+03 -1.20351E+03 -1.79586E+03 -3.38181E+03  5.68073E+02 -4.66216E+03  3.24739E+03 -5.14184E+03
  5.13295E+03 -3.33223E+03  6.33422E+03 -3.34647E+00  4.56983E+03  4.03599E+03  1.08716E+03  6.18808E+03
 -2.22017E+03  5.64589E+03 -3.27837E+03  1.89443E+03 -2.01541E+03 -7.20430E+02 -4.91172E+02 -2.64944E+02
 -5.62186E+02  6.55462E+02 -6.83028E+02  2.07697E+03 -2.51245E+03  1.15255E+03 -4.12435E+03 -3.58592E+02
 -1.45575E+03 -3.94991E+03  1.15369E+03 -4.46157E+03  2.65275E+03 -4.15987E+03  3.52644E+03 -1.14661E+03
  3.74017E+03  2.37908E+03  1.93085E+03  3.23322E+03 -5.83297E+02  4.09267E+03 -2.62258E+03  2.28341E+03
 -3.42824E+03  5.78864E+02 -3.18971E+03 -2.31644E+03 -3.29220E+02 -2.89055E+03  1.85362E+03 -2.51268E+03
  2.40310E+03 -1.33429E+03  1.31678E+03  4.77038E+02  5.24668E+02  1.53593E+03  7.72153E+02  5.67545E+02
  1.75422E+03  7.05433E+02  1.08944E+03  1.31626E+03  1.02687E+03  2.03705E+03  1.60239E+03  1.45097E+03
 -1.50152E+03  3.07152E+03 -2.25301E+03  3.77892E+03 -2.72832E+03  1.11300E+03 -3.65711E+03 -3.45934E+02
 -1.72907E+03 -3.47200E+03  7.26345E+02 -4.34475E+03  1.64782E+03 -2.58040E+03  2.56869E+03 -7.19474E+02
  2.30613E+03  1.65874E+03  5.72532E+02  2.25062E+03 -4.70177E+02  1.21525E+03 -8.22040E+02 -2.57554E+02
 -5.34630E+02 -1.32139E+03  1.16145E+03 -1.40610E+03  1.25622E+03 -1.11903E+03  1.09026E+03  2.39571E+02
  7.15768E+02  4.89955E+02  9.66125E+02 -6.24685E+01 -2.24374E+02  7.27130E+02  1.53782E+03 -2.44737E+01
 -7.08921E+01 -1.44647E+02  1.67943E+03  7.06441E+02  1.62548E+02  2.10002E+03 -2.31577E+02  2.91801E+03
 -1.29831E+03  1.04904E+03 -1.60481E+03  2.88833E+02 -1.96455E+03 -7.96483E+02 -3.17858E+02 -7.81099E+02
  7.12318E+02 -1.27166E+03  9.90994E+02 -5.39459E+02  5.14927E+02  1.32241E+03 -7.75486E+02  9.38971E+02
 -1.10781E+03  7.64183E+02 -9.49401E+02 -1.27198E+03 -4.54199E+02 -1.97223E+03 -4.38244E+01 -1.56092E+03
  2.80726E+02 -3.95488E+02  6.28815E+02  3.98822E+02  1.14731E+03 -1.09408E+02  2.80311E+02  1.08800E+03
 -1.95859E+02  1.45072E+02 -8.34754E+02 -2.83431E+02  4.57974E+02 -6.80553E+02  1.50102E+03 -7.73482E+02
  1.20520E+03  2.32554E+01  2.82863E+03  4.76318E+02  1.05175E+03  1.48152E+03  1.23514E+01  1.86991E+03
 -1.35315E+03  2.73335E+02 -1.25649E+03  2.10247E+02 -5.42085E+02 -1.08861E+03  5.30804E+02 -4.19713E+02
  1.36344E+03 -6.46497E+02  5.46207E+02  6.59440E+02  3.28576E+02  1.16071E+03  2.83796E+02  9.54417E+02
 -2.91334E+02  1.08696E+03 -3.40324E+02  1.54781E+01  1.12705E+02  3.53138E+02 -7.91967E+02  3.89278E+02
 -8.42626E+02  1.03375E+03 -1.68756E+03  3.53098E+02 -1.37619E+03 -1.56764E+02 -2.04910E+03 -9.77347E+02
 -6.54366E+02 -2.20338E+03  5.14337E+02 -2.61565E+03  9.44516E+02 -2.14209E+03  2.69073E+03 -8.87274E+02
  1.96086E+03 -1.58769E+02  9.37211E+02  1.36342E+03 -7.66437E+02  1.03609E+03 -6.52960E+02  1.21341E+03
 -5.77987E+02  6.91833E+02 -4.16966E+02  1.26346E+01 -5.37263E+02  2.27908E+02 -7.86642E+02  2.42581E+02
 -1.03211E+03 -3.58516E+00 -8.45656E+02  1.50154E+02  2.84003E+02 -5.45224E+02 -5.88315E+02 -7.05156E+02
  1.01129E+03 -5.08840E+02  3.64592E+02  5.05679E+01  9.32440E+02  9.80795E+02 -5.76418E+02  1.13021E+03
 -1.13818E+03  1.95493E+03 -1.35707E+03  1.12780E+03 -1.38110E+03 -5.57729E+01 -1.08152E+03 -1.00596E+03
 -8.27185E+02 -1.19561E+03  1.50888E+02 -9.31304E+02  3.46801E+02 -6.41917E+02  4.05487E+02  1.54978E+02
  6.63683E+02  8.70126E+01  1.57780E+02  3.60268E+02 -2.61733E+02 -2.18518E+02 -1.94490E+02 -2.05967E+02
  4.39527E+02 -1.53605E+02  1.06421E+02  6.29645E+02  3.76923E+01  3.64509E+02  4.10989E+02  2.63501E+01
 -4.59253E+02  5.49162E+02 -2.08013E+02 -1.07514E+02 -6.37444E+02 -8.04874E+01  3.34984E+01 -1.19434E+03
  6.54596E+02 -5.01725E+02  7.13247E+01 -1.08316E+02  6.63033E+02 -4.48494E+02  2.94821E+02  5.44519E+02
  3.97462E+02  3.40124E+02  2.95029E+01  2.42369E+02 -3.78011E+02  5.35225E+02 -2.72235E+02  4.68183E+01
  3.69776E+01 -3.77775E+02 -4.38120E+02  1.32341E+02 -4.20756E+02  2.33115E+02 -5.83025E+02 -6.68538E+02
 -1.20321E+03  4.04910E+02 -3.67938E+02 -6.53463E+02  6.09682E+02 -1.39885E+03  4.62153E+02  1.14094E+02
  6.87079E+02 -8.78509E+01 -7.46208E+02  1.88995E+02 -2.42055E+02  5.49072E+02 -2.99657E+02  5.21543E+02
