 $NMID ID='MM_0lb_SNR800_15hz_g40_92.RAW', FMTDAT='(8E13.5)'
 TRAMP=1., VOLUME=1. $END
  3.09912E+05  4.32552E+02  3.37555E+05  2.50331E+05  8.45725E+04  3.37811E+05 -1.32657E+05  2.50490E+05
 -1.89803E+05  8.27685E+04 -1.11286E+05 -3.30071E+04  1.29882E+03 -5.00958E+04  5.38571E+04 -2.01346E+02
  3.49870E+04  5.27505E+04 -1.68895E+04  7.54370E+04 -6.06395E+04  6.30045E+04 -8.32996E+04  3.18521E+04
 -8.03087E+04 -1.15575E+04 -5.67854E+04 -5.08882E+04 -1.48550E+04 -6.88277E+04  2.71639E+04 -4.52659E+04
  3.94746E+04  4.02645E+03  1.58034E+04  4.73621E+04 -3.42137E+04  4.65173E+04 -6.60679E+04 -4.56481E+02
 -5.25550E+04 -5.63849E+04 -6.41441E+03 -7.60849E+04  3.35553E+04 -5.41671E+04  4.72845E+04 -1.65988E+04
  4.24421E+04  1.11363E+04  3.13542E+04  2.50665E+04  1.56738E+04  2.88780E+04 -4.85418E+03  2.71860E+04
 -2.18202E+04  1.27416E+04 -1.88898E+04 -4.35039E+03  4.91260E+03 -7.49726E+03  2.15078E+04  1.15139E+04
  7.34803E+03  3.44917E+04 -3.10641E+04  3.48455E+04 -6.23739E+04  2.15375E+03 -5.62987E+04 -4.19452E+04
 -1.24989E+04 -6.20999E+04  3.88885E+04 -4.45017E+04  5.70218E+04 -1.93631E+03  3.29540E+04  3.11736E+04
 -5.90978E+03  3.44763E+04 -2.89704E+04  1.48111E+04 -2.91598E+04 -4.75607E+03 -1.58783E+04 -1.04789E+04
 -7.82212E+03 -1.26585E+04 -6.31997E+02 -1.72952E+04  6.95779E+03 -2.30428E+04  1.50056E+04 -1.36794E+04
  1.20302E+04  4.64793E+03 -7.28889E+03  1.30046E+04 -2.02252E+04 -3.41169E+03 -8.05110E+03 -3.21277E+04
  2.19818E+04 -4.19092E+04  4.66870E+04 -1.89105E+04  4.39000E+04  1.90917E+04  1.49183E+04  4.27057E+04
 -1.55218E+04  3.21564E+04 -2.42694E+04  1.78784E+03 -8.85522E+03 -2.71543E+04  2.08634E+04 -3.25949E+04
  3.97128E+04 -8.06178E+03  3.36520E+04  2.34042E+04  1.68504E+04  4.46302E+04 -7.72314E+03  4.79523E+04
 -2.98964E+04  3.20328E+04 -3.95367E+04  9.07587E+03 -4.03813E+04 -1.61744E+04 -2.25846E+04 -3.64302E+04
  7.00879E+03 -3.60803E+04  3.05434E+04 -1.37743E+04  2.81637E+04  1.09778E+04  3.31222E+03  1.85072E+04
 -1.32325E+04  7.93334E+03 -1.00594E+04 -7.80276E+03  5.85089E+03 -1.05174E+04  1.78284E+04  6.31276E+03
  1.29197E+04  2.15555E+04 -6.56397E+03  2.41135E+04 -2.16028E+04  1.04206E+04 -2.68326E+04 -5.43657E+03
 -1.87427E+04 -1.69893E+04 -7.00708E+03 -1.89880E+04  3.84588E+03 -1.72506E+04  1.42628E+04 -1.62583E+04
  2.39544E+04 -1.22868E+04  3.07717E+04  1.95885E+03  2.25835E+04  1.84080E+04  4.33669E+03  3.46315E+04
 -1.68819E+04  2.88246E+04 -2.68838E+04  1.01237E+04 -2.03973E+04 -1.04710E+04 -4.09692E+03 -1.36428E+04
  2.08720E+03 -3.12756E+03 -3.79593E+03  5.95785E+03 -1.48030E+04  5.35223E+03 -1.50164E+04 -6.11051E+03
 -9.74495E+03 -1.75273E+04  4.49477E+03 -2.12632E+04  1.40830E+04 -1.52209E+04  1.64948E+04 -1.59012E+03
  1.06301E+04  1.20787E+04 -9.79959E+02  1.77648E+04 -1.17860E+04  9.87627E+03 -1.73667E+04 -3.95148E+03
 -1.28175E+04 -1.56262E+04 -1.38161E+03 -2.15709E+04  9.80616E+03 -1.70771E+04  1.78993E+04 -8.33314E+03
  1.62142E+04  4.10826E+02  1.18512E+04  4.33098E+03  6.05345E+03  4.62992E+02  8.56827E+03 -1.54660E+03
  1.61145E+04  2.47235E+03  1.73807E+04  1.40971E+04  1.11283E+04  2.80257E+04 -3.11608E+03  3.10210E+04
 -1.83264E+04  2.44594E+04 -2.85888E+04  1.19781E+04 -2.96861E+04 -1.95707E+03 -2.49550E+04 -1.72644E+04
 -1.11661E+04 -2.42532E+04  8.58243E+03 -2.23737E+04  1.93643E+04 -1.18414E+04  1.76525E+04  4.57974E+03
  6.92690E+03  1.26320E+04 -8.26568E+03  1.18772E+04 -1.48061E+04  2.39242E+03 -1.15959E+04 -9.07028E+03
 -2.89108E+02 -1.40070E+04  7.39601E+03 -1.05526E+04  8.95325E+03 -1.28872E+03  1.86657E+03  5.80753E+03
 -6.30724E+03  2.09438E+03 -5.29825E+03 -5.11211E+03  7.42220E+01 -1.20461E+04  8.81750E+03 -1.25130E+04
  1.48865E+04 -6.57706E+03  1.55382E+04  2.80103E+03  1.34262E+04  1.15482E+04  6.38341E+03  1.75154E+04
 -2.70196E+03  1.93596E+04 -1.23730E+04  1.19856E+04 -1.39648E+04  3.26663E+03 -1.01558E+04 -2.99953E+03
 -4.88272E+03 -4.28728E+03 -1.05150E+03  1.43654E+03 -2.12311E+03  2.12999E+03 -4.55585E+03  4.01514E+03
 -9.55240E+03 -4.60571E+02 -1.02343E+04 -8.42387E+03 -4.31930E+03 -1.34569E+04  4.14884E+03 -1.01209E+04
  8.41865E+03 -4.61903E+03  6.11789E+03  2.67176E+03  4.05298E+02  3.93190E+03 -4.38455E+03  1.47297E+02
 -4.23858E+03 -6.22671E+03 -8.92195E+02 -8.96644E+03  5.21455E+03 -1.00055E+04  1.23161E+04 -5.19593E+03
  1.43982E+04  9.18458E+02  1.04982E+04  7.98623E+03  2.06582E+03  1.11397E+04 -6.23474E+03  9.95189E+03
 -8.46942E+03  3.24180E+03 -4.18391E+03 -2.13253E+03  1.21461E+03 -2.67969E+03  5.29128E+03 -1.06851E+03
  5.24433E+03  4.34159E+03  1.03262E+03  7.96580E+03 -5.77196E+03  8.01045E+03 -9.52600E+03  1.78183E+03
 -6.17829E+03 -4.64943E+03  6.43718E+02 -8.19239E+03  4.89562E+03 -4.21534E+03  4.91770E+03  1.78937E+03
  8.75906E+02  4.82552E+03 -4.98827E+03  6.24486E+03 -6.69743E+03  3.18820E+03 -6.76737E+03 -2.01669E+03
 -3.72265E+03 -8.14618E+03  2.07167E+03 -9.70053E+03  8.06656E+03 -6.14529E+03  8.84211E+03  1.31923E+03
  5.78775E+03  7.41662E+03 -3.21975E+02  9.07142E+03 -6.76666E+03  5.44683E+03 -6.89370E+03 -7.07476E+02
 -6.87976E+03 -6.61521E+03 -1.59291E+03 -6.74589E+03  3.33232E+03 -5.68333E+03  3.79448E+03 -3.37398E+03
  3.22646E+03  8.42214E+02 -1.31782E+02  1.51615E+03  3.48531E+02 -7.20212E+02  7.35616E+02 -3.08658E+03
  5.32970E+03 -1.79454E+03  7.76021E+03  9.08535E+02  8.31084E+03  4.94328E+03  6.62840E+03  1.04001E+04
 -2.14741E+03  1.18861E+04 -1.08160E+04  9.07532E+03 -1.33439E+04  1.79047E+03 -1.04223E+04 -3.98992E+03
 -5.68107E+03 -8.74599E+03 -2.23289E+02 -7.14612E+03  3.13241E+03 -3.51247E+03  2.51100E+03 -3.12086E+03
  1.80775E+03 -2.11484E+03  2.46528E+03 -2.80254E+03  4.32962E+03 -1.61825E+03  4.67338E+03 -1.05678E+02
  5.89702E+03  1.48953E+03  2.11047E+03  4.74692E+03 -1.44553E+03  4.52566E+03 -5.88467E+03  4.25942E+03
 -7.01360E+03 -1.28931E+03 -3.53320E+03 -4.61412E+03 -1.17468E+00 -7.25134E+03  4.30977E+03 -7.79015E+03
  7.78481E+03 -4.37185E+03  9.47955E+03  8.06946E+02  6.73483E+03  6.28545E+03  1.56495E+03  8.54707E+03
 -3.11663E+03  7.92910E+03 -5.15860E+03  2.49774E+03 -3.12044E+03 -1.19325E+03 -1.25054E+03 -1.02009E+03
 -4.20045E+02  4.42066E+02 -1.09136E+03  2.04363E+03 -3.20975E+03  1.45545E+03 -5.50360E+03 -3.95673E+02
 -2.85842E+03 -5.04744E+03  6.33290E+02 -6.70891E+03  3.98874E+03 -6.26148E+03  6.36738E+03 -1.93263E+03
  6.25961E+03  3.53314E+03  2.83750E+03  5.50993E+03 -1.34375E+03  6.55487E+03 -4.28158E+03  3.94073E+03
 -5.71818E+03  5.95993E+02 -5.07985E+03 -3.80820E+03 -3.49321E+02 -5.16230E+03  2.69713E+03 -3.93171E+03
  4.11520E+03 -1.60250E+03  3.00219E+03  6.63602E+02  6.38670E+02  2.60555E+03  9.33941E+02  7.03626E+02
  1.68776E+03  4.81890E+02  1.68940E+03  1.05959E+03  1.51563E+03  2.71397E+03  2.01367E+03  3.15657E+03
 -1.70364E+03  4.80906E+03 -4.05188E+03  5.91222E+03 -5.81866E+03  1.71059E+03 -6.82573E+03 -1.77742E+03
 -2.89492E+03 -6.06916E+03  9.55412E+02 -7.07714E+03  3.68337E+03 -4.18070E+03  5.00916E+03 -1.60353E+03
  4.22523E+03  2.59787E+03  8.68106E+02  3.74210E+03 -1.40456E+03  2.13758E+03 -2.01900E+03 -1.95470E+02
 -1.14938E+03 -2.21617E+03  1.84763E+03 -2.52873E+03  2.34013E+03 -1.46809E+03  2.40254E+03  4.90780E+02
  1.30862E+03  1.05673E+03  8.61437E+02  2.18782E+02 -2.36419E+02  1.07399E+03  1.55781E+03 -4.42515E+02
  6.38194E+02 -1.82563E+02  2.42372E+03  8.84257E+02  9.12232E+02  3.68686E+03 -4.30934E+02  4.53531E+03
 -2.58879E+03  2.12374E+03 -3.57476E+03  8.65057E+02 -3.43246E+03 -1.54146E+03 -5.36885E+02 -2.21349E+03
  5.27021E+02 -2.30030E+03  1.40209E+03 -1.24627E+03  1.14402E+03  1.73896E+03 -7.31766E+02  1.87285E+03
 -2.55147E+03  1.08179E+03 -2.20243E+03 -1.81485E+03 -1.00485E+03 -3.40309E+03  4.61286E+02 -3.03535E+03
  1.19412E+03 -1.35042E+03  2.13875E+03  3.68903E+01  1.98160E+03  2.02640E+02  5.99690E+02  1.66098E+03
 -1.03571E+03  4.38953E+02 -1.78523E+03 -5.03711E+02  7.45902E+02 -1.95256E+03  2.75240E+03 -1.59048E+03
  2.70286E+03 -1.54166E+01  4.08715E+03  1.51504E+03  1.49649E+03  3.16890E+03 -5.77145E+02  3.35122E+03
 -3.17352E+03  9.93458E+02 -2.73983E+03 -3.65375E+02 -1.67685E+03 -2.06589E+03  5.82301E+02 -1.76842E+03
  2.39205E+03 -1.16398E+03  1.82034E+03  8.94949E+02  3.75615E+02  2.02869E+03  2.27850E+02  1.55788E+03
 -7.37421E+02  1.51486E+03 -9.11939E+02  4.45907E+02 -3.28494E+02  5.99577E+02 -7.32382E+02  8.50083E+02
 -1.02212E+03  1.44348E+03 -2.70211E+03  1.17882E+03 -3.23692E+03  4.52740E+02 -3.76316E+03 -1.95294E+03
 -2.06900E+03 -4.33481E+03  9.21970E+02 -5.55451E+03  2.65139E+03 -4.32441E+03  5.05870E+03 -1.96738E+03
  4.56674E+03  2.04232E+02  2.43363E+03  2.97957E+03 -3.18281E+01  3.36037E+03 -1.51548E+03  2.46094E+03
 -2.06647E+03  1.09905E+03 -1.11258E+03 -4.52608E+02 -8.97189E+02 -8.35634E+01 -5.90152E+02 -9.05075E+01
 -1.58125E+03 -7.17061E+01 -1.31254E+03 -4.64767E+01  2.37224E+02 -1.07265E+03 -2.44020E+02 -1.47657E+03
  1.81069E+03 -1.21320E+03  1.50951E+03  2.52143E+01  2.29377E+03  1.55028E+03 -7.53608E+00  3.33822E+03
 -1.46146E+03  4.10407E+03 -3.37095E+03  2.25108E+03 -3.51006E+03 -1.79749E+02 -2.72282E+03 -2.24202E+03
 -1.44311E+03 -3.05984E+03  5.58718E+02 -2.85347E+03  1.69038E+03 -1.61772E+03  1.66138E+03  1.96243E+02
  1.40198E+03  1.10745E+03 -2.94531E+01  6.70787E+02 -5.42186E+02 -9.02745E+01 -1.11019E+02 -7.05593E+02
  8.63367E+02 -6.19816E+01  8.50951E+02  5.60472E+02  5.03872E+02  1.05864E+03  3.81095E+02  1.13746E+03
 -1.10741E+03  1.34829E+03 -1.67524E+03  2.78817E+02 -1.86454E+03 -9.90544E+02 -1.53654E+02 -2.73027E+03
  1.46621E+03 -1.74602E+03  1.63151E+03 -3.67447E+02  2.43026E+03 -1.51012E+02  1.14260E+03  1.77152E+03
  5.98659E+02  1.43046E+03 -9.09868E+02  1.40122E+03 -1.53718E+03  1.04350E+03 -9.70469E+02  1.68584E+02
 -5.19465E+02 -4.23824E+02 -7.79321E+02  5.22733E+02 -1.34945E+03  2.66901E+02 -1.44791E+03 -1.15812E+02
 -1.53206E+03 -7.62010E+02 -6.36543E+02 -1.76820E+03  1.38404E+03 -2.17821E+03  1.55044E+03 -8.36328E+02
  1.86249E+03  5.76260E+02  5.81045E+02  1.15365E+03 -2.40057E+02  1.76192E+03 -1.57623E+03  1.32893E+03
