 $NMID ID='MM_0lb_SNR800_10hz_g45_65.RAW', FMTDAT='(8E13.5)'
 TRAMP=1., VOLUME=1. $END
  3.09870E+05 -6.82172E+01  3.37968E+05  2.51025E+05  8.51236E+04  3.38238E+05 -1.32513E+05  2.51343E+05
 -1.90313E+05  8.34968E+04 -1.12126E+05 -3.29173E+04  4.87590E+02 -5.06268E+04  5.37297E+04 -5.16442E+02
  3.54621E+04  5.25639E+04 -1.66895E+04  7.62656E+04 -6.14117E+04  6.41367E+04 -8.47527E+04  3.24983E+04
 -8.16233E+04 -1.16408E+04 -5.78152E+04 -5.17796E+04 -1.54052E+04 -7.00142E+04  2.78094E+04 -4.61770E+04
  4.08502E+04  3.47789E+03  1.67209E+04  4.81504E+04 -3.49078E+04  4.78019E+04 -6.77948E+04  2.16595E+02
 -5.44598E+04 -5.76631E+04 -7.13231E+03 -7.83424E+04  3.44431E+04 -5.60759E+04  4.96099E+04 -1.81615E+04
  4.45531E+04  1.13402E+04  3.28501E+04  2.58111E+04  1.58418E+04  3.02436E+04 -5.90095E+03  2.74206E+04
 -2.23952E+04  1.22840E+04 -1.78372E+04 -5.38644E+03  6.23637E+03 -7.40846E+03  2.33100E+04  1.32461E+04
  6.74074E+03  3.69015E+04 -3.31915E+04  3.64389E+04 -6.50668E+04  1.93377E+03 -5.85276E+04 -4.41654E+04
 -1.26684E+04 -6.49356E+04  4.06047E+04 -4.68978E+04  6.00814E+04 -2.24743E+03  3.61134E+04  3.38619E+04
 -5.78400E+03  3.82172E+04 -3.11475E+04  1.78710E+04 -3.24552E+04 -3.71379E+03 -1.81541E+04 -1.20898E+04
 -9.41999E+03 -1.45073E+04 -5.00773E+02 -1.93472E+04  8.35175E+03 -2.36230E+04  1.52983E+04 -1.25926E+04
  1.06521E+04  5.90477E+03 -1.00202E+04  1.29163E+04 -2.28333E+04 -6.16480E+03 -8.30089E+03 -3.61679E+04
  2.45241E+04 -4.58987E+04  5.12144E+04 -2.04207E+04  4.76157E+04  2.02667E+04  1.69387E+04  4.61524E+04
 -1.62538E+04  3.57409E+04 -2.64445E+04  2.07568E+03 -1.08767E+04 -2.89893E+04  2.17721E+04 -3.61047E+04
  4.36173E+04 -1.03252E+04  3.86291E+04  2.43285E+04  2.01551E+04  4.90195E+04 -8.06335E+03  5.43707E+04
 -3.42548E+04  3.67065E+04 -4.54893E+04  1.05003E+04 -4.59226E+04 -1.81750E+04 -2.51388E+04 -4.07701E+04
  7.76363E+03 -4.07650E+04  3.33741E+04 -1.65998E+04  3.09592E+04  1.13217E+04  5.08875E+03  2.02579E+04
 -1.36722E+04  9.32156E+03 -1.06324E+04 -7.69524E+03  5.95855E+03 -1.13895E+04  1.84313E+04  5.76967E+03
  1.41684E+04  2.24807E+04 -5.41774E+03  2.65721E+04 -2.31897E+04  1.35264E+04 -3.02315E+04 -3.24104E+03
 -2.40192E+04 -1.82910E+04 -1.09012E+04 -2.36009E+04  4.33372E+03 -2.38115E+04  1.82671E+04 -2.17777E+04
  3.00764E+04 -1.35868E+04  3.60125E+04  4.38495E+03  2.62324E+04  2.30195E+04  4.38578E+03  4.02306E+04
 -1.90921E+04  3.27037E+04 -2.98196E+04  1.15172E+04 -2.22361E+04 -1.04499E+04 -4.66875E+03 -1.28618E+04
  1.27491E+03 -1.63234E+03 -6.53467E+03  7.59262E+03 -1.89294E+04  5.19760E+03 -1.94567E+04 -8.82808E+03
 -1.13629E+04 -2.21487E+04  6.03495E+03 -2.61189E+04  1.77844E+04 -1.88685E+04  2.13505E+04 -2.09776E+03
  1.37488E+04  1.49872E+04 -1.15095E+03  2.19725E+04 -1.56864E+04  1.27797E+04 -2.21492E+04 -4.71941E+03
 -1.64126E+04 -1.97241E+04 -1.97407E+03 -2.64242E+04  1.21074E+04 -2.17879E+04  2.21292E+04 -1.11753E+04
  2.05300E+04 -3.13764E+02  1.49415E+04  5.11597E+03  8.31056E+03  1.48387E+03  1.09997E+04 -2.29923E+03
  2.04188E+04  2.48709E+03  2.35167E+04  1.67114E+04  1.55094E+04  3.54931E+04 -3.02068E+03  4.10685E+04
 -2.36096E+04  3.38192E+04 -3.87532E+04  1.74031E+04 -4.12032E+04 -2.84891E+03 -3.37245E+04 -2.43183E+04
 -1.39835E+04 -3.43432E+04  1.20872E+04 -3.03379E+04  2.55292E+04 -1.44326E+04  2.23369E+04  7.35129E+03
  8.03649E+03  1.73922E+04 -1.11868E+04  1.48824E+04 -1.86917E+04  2.46252E+03 -1.40399E+04 -1.21439E+04
 -2.90158E+02 -1.82238E+04  9.97932E+03 -1.33045E+04  1.23619E+04 -1.47870E+03  2.97313E+03  8.11547E+03
 -7.87813E+03  3.59224E+03 -8.12250E+03 -6.93428E+03 -1.45512E+03 -1.64493E+04  1.11274E+04 -1.77526E+04
  2.12111E+04 -9.93300E+03  2.35565E+04  3.18904E+03  2.07467E+04  1.69493E+04  9.95149E+03  2.64210E+04
 -4.75333E+03  2.84250E+04 -1.82612E+04  1.76208E+04 -2.00752E+04  3.72313E+03 -1.43682E+04 -5.02514E+03
 -6.22035E+03 -6.40410E+03 -9.37733E+02  3.84531E+02 -2.88631E+03  3.32315E+03 -6.69836E+03  4.74413E+03
 -1.31181E+04 -9.21300E+02 -1.33603E+04 -1.10790E+04 -5.86871E+03 -1.82784E+04  5.75495E+03 -1.42567E+04
  1.21299E+04 -5.76675E+03  8.23460E+03  4.05153E+03 -4.04377E+02  5.41459E+03 -7.51091E+03 -1.66551E+01
 -6.96504E+03 -9.58328E+03 -1.01319E+03 -1.41446E+04  7.95488E+03 -1.53929E+04  1.80351E+04 -7.65083E+03
  2.10425E+04  2.40075E+03  1.59340E+04  1.25381E+04  2.66668E+03  1.68208E+04 -8.70107E+03  1.39953E+04
 -1.14890E+04  4.35497E+03 -5.93273E+03 -3.16964E+03  1.99544E+03 -3.89934E+03  7.45291E+03 -1.36794E+03
  6.32377E+03  6.17672E+03  1.10049E+03  1.13550E+04 -8.18983E+03  1.11224E+04 -1.38219E+04  2.47066E+03
 -9.72189E+03 -7.30635E+03  1.91911E+02 -1.16733E+04  7.88188E+03 -6.21033E+03  8.11836E+03  2.89873E+03
  1.85115E+03  9.13999E+03 -7.66661E+03  1.02668E+04 -1.20600E+04  4.57904E+03 -1.19554E+04 -4.35088E+03
 -6.75864E+03 -1.37523E+04  3.15314E+03 -1.64956E+04  1.38690E+04 -9.52753E+03  1.49823E+04  2.56529E+03
  8.68289E+03  1.19065E+04 -1.29793E+03  1.38927E+04 -1.05087E+04  8.22478E+03 -1.15610E+04 -9.42810E+02
 -9.92443E+03 -9.27145E+03 -1.55958E+03 -1.03683E+04  5.64294E+03 -8.96293E+03  6.63544E+03 -3.77976E+03
  4.43089E+03  1.80296E+03 -7.82481E+02  1.42052E+03 -5.81733E+02 -3.02137E+03  2.70532E+03 -6.48666E+03
  1.01876E+04 -3.92605E+03  1.44061E+04  1.67154E+03  1.35689E+04  9.60549E+03  9.09968E+03  1.86345E+04
 -4.05253E+03  2.10189E+04 -1.74173E+04  1.56282E+04 -2.29794E+04  3.05319E+03 -1.84173E+04 -7.74278E+03
 -9.14881E+03 -1.51179E+04  1.54149E+02 -1.34570E+04  4.87345E+03 -7.08628E+03  4.36500E+03 -4.61053E+03
  3.44096E+03 -2.84679E+03  3.94591E+03 -3.75860E+03  5.59985E+03 -3.31622E+03  6.66097E+03 -1.15842E+03
  9.22309E+03  2.09247E+03  5.01998E+03  8.66029E+03 -1.85925E+03  9.80115E+03 -1.02601E+04  7.39101E+03
 -1.28948E+04 -1.01827E+03 -7.87266E+03 -9.22854E+03 -7.17567E+02 -1.34288E+04  7.45880E+03 -1.37273E+04
  1.45827E+04 -7.84997E+03  1.68038E+04  1.76586E+03  1.18249E+04  1.16472E+04  1.88444E+03  1.56454E+04
 -6.41961E+03  1.31143E+04 -8.97548E+03  4.41491E+03 -6.20417E+03 -1.90836E+03 -2.43482E+03 -2.06975E+03
 -1.47690E+03 -2.94115E+01 -1.77299E+03  2.99770E+03 -5.34499E+03  2.23103E+03 -8.65922E+03 -1.60679E+03
 -6.50252E+03 -9.02816E+03 -8.22008E+01 -1.26214E+04  8.15747E+03 -1.15563E+04  1.27747E+04 -3.74178E+03
  1.26594E+04  5.94574E+03  6.18470E+03  1.15216E+04 -2.51894E+03  1.32287E+04 -8.98662E+03  8.00111E+03
 -1.17798E+04  3.76841E+02 -9.27375E+03 -7.59946E+03 -8.85161E+02 -1.03287E+04  5.70028E+03 -7.81029E+03
  8.11625E+03 -2.73767E+03  5.33652E+03  1.99048E+03  2.15251E+03  3.78021E+03  1.16739E+03  1.94550E+03
  2.88494E+03  1.33629E+03  3.35574E+03  1.98450E+03  3.70800E+03  4.49865E+03  3.38604E+03  6.99583E+03
 -2.18937E+03  9.71322E+03 -8.76557E+03  1.02168E+04 -1.30631E+04  2.97309E+03 -1.36257E+04 -5.52187E+03
 -6.49854E+03 -1.28432E+04  2.03106E+03 -1.38670E+04  8.08692E+03 -8.65769E+03  1.01562E+04 -2.08488E+03
  8.37959E+03  4.82227E+03  1.89145E+03  6.77224E+03 -3.58305E+03  4.71060E+03 -5.05658E+03 -8.34811E+02
 -2.60722E+03 -5.41087E+03  2.87942E+03 -5.05774E+03  5.09617E+03 -2.49084E+03  4.84390E+03  1.07363E+03
  3.32083E+03  2.51859E+03  1.54048E+03  1.72954E+03 -9.98453E+02  1.95925E+03  1.82046E+03 -6.03245E+02
  1.95687E+03 -7.49740E+02  5.10360E+03  2.26927E+03  3.03783E+03  6.62379E+03 -1.25604E+03  9.01910E+03
 -6.34615E+03  6.04732E+03 -7.93441E+03  1.75290E+03 -6.85048E+03 -2.60315E+03 -2.59122E+03 -5.13789E+03
  7.34504E+02 -4.93194E+03  3.15372E+03 -2.54563E+03  2.87442E+03  2.65723E+03 -1.33306E+03  3.90075E+03
 -5.54613E+03  2.32769E+03 -5.91217E+03 -3.02969E+03 -3.43293E+03 -7.28429E+03  1.06766E+03 -6.98809E+03
  3.90464E+03 -4.22446E+03  5.16224E+03 -7.43711E+02  4.54560E+03  1.88829E+03  3.18873E+02  3.82901E+03
 -2.29129E+03  9.57462E+02 -3.22802E+03 -2.45147E+03  1.28901E+03 -5.49946E+03  6.01500E+03 -4.56137E+03
  7.89166E+03  9.23063E+02  7.81018E+03  5.16747E+03  2.55716E+03  8.42073E+03 -2.94643E+03  8.08706E+03
 -7.21097E+03  3.63030E+03 -7.15703E+03 -1.36495E+03 -3.70675E+03 -5.70192E+03  1.13097E+03 -4.88676E+03
  5.34390E+03 -2.64327E+03  4.49227E+03  1.94393E+03  1.68767E+03  4.86326E+03 -6.77481E+02  4.14113E+03
 -1.85354E+03  2.50519E+03 -2.38510E+03  7.12138E+02 -1.36192E+03  7.47826E+02 -1.36638E+03  1.73228E+03
 -2.31240E+03  3.62823E+03 -5.80644E+03  2.77814E+03 -7.99231E+03  2.40579E+02 -9.34963E+03 -5.39602E+03
 -4.57085E+03 -1.11003E+04  1.84228E+03 -1.26095E+04  7.55284E+03 -1.02721E+04  1.21837E+04 -3.88059E+03
  1.11795E+04  2.12771E+03  6.73392E+03  7.41380E+03  4.27799E+02  8.80226E+03 -3.12453E+03  6.22136E+03
 -4.56276E+03  2.30723E+03 -2.94736E+03 -8.11404E+02 -9.20962E+02 -5.17497E+02 -6.81846E+02 -3.50309E+02
 -1.58434E+03  2.04270E+02 -2.02993E+03 -1.61228E+02 -3.23464E+02 -2.14369E+03  5.92900E+01 -3.10198E+03
  4.13459E+03 -2.65700E+03  5.15001E+03 -2.74856E+02  6.03325E+03  5.14643E+03  1.54231E+03  8.37183E+03
 -4.15120E+03  9.60213E+03 -9.27951E+03  5.57438E+03 -1.07127E+04 -9.69462E+02 -7.93765E+03 -6.50755E+03
 -3.06316E+03 -8.60602E+03  2.22486E+03 -8.17958E+03  5.40776E+03 -4.00287E+03  5.68534E+03  1.79567E+02
  3.02875E+03  2.47966E+03 -3.86096E+02  2.50585E+03 -1.51745E+03 -8.83211E+01 -1.59018E+02 -1.83828E+03
  2.72027E+03 -8.43997E+02  3.46569E+03  9.17940E+02  2.17744E+03  3.25902E+03  1.60764E+02  4.70884E+03
 -3.87723E+03  3.53779E+03 -5.59324E+03  6.19350E+02 -5.48154E+03 -3.98637E+03 -8.05146E+02 -6.97929E+03
  4.07042E+03 -5.62354E+03  6.00873E+03 -1.88316E+03  6.42433E+03  8.90975E+02  3.58551E+03  5.09282E+03
  7.91076E+02  5.39027E+03 -2.18905E+03  4.46450E+03 -3.38776E+03  2.30358E+03 -3.10919E+03  3.97555E+01
 -1.55581E+03 -6.17300E+02 -1.87637E+03  4.40416E+02 -2.92474E+03  1.10948E+03 -4.54252E+03 -7.56364E+02
 -4.43755E+03 -3.30328E+03 -1.36860E+03 -5.55611E+03  2.75237E+03 -6.14054E+03  4.95185E+03 -2.75780E+03
  5.66254E+03  7.53187E+02  2.76975E+03  3.92161E+03 -4.47519E+02  5.55073E+03 -3.95905E+03  3.58056E+03
