 $NMID ID='MM_0lb_SNR800_8hz_g45_98.RAW', FMTDAT='(8E13.5)'
 TRAMP=1., VOLUME=1. $END
  3.09810E+05  6.23550E+02  3.37865E+05  2.50735E+05  8.42591E+04  3.38387E+05 -1.32742E+05  2.52117E+05
 -1.91041E+05  8.38823E+04 -1.13111E+05 -3.21528E+04 -2.58702E+02 -5.07296E+04  5.32097E+04 -7.19130E+02
  3.57121E+04  5.30937E+04 -1.64885E+04  7.57703E+04 -6.12498E+04  6.48019E+04 -8.55015E+04  3.22822E+04
 -8.20352E+04 -1.10191E+04 -5.82160E+04 -5.26709E+04 -1.51712E+04 -7.06507E+04  2.82432E+04 -4.66979E+04
  4.11840E+04  3.73071E+03  1.69901E+04  4.85494E+04 -3.49333E+04  4.80946E+04 -6.81200E+04  3.04455E+02
 -5.50696E+04 -5.78224E+04 -7.73875E+03 -7.87890E+04  3.47734E+04 -5.75945E+04  5.00820E+04 -1.82329E+04
  4.52897E+04  1.18514E+04  3.30743E+04  2.69622E+04  1.59166E+04  3.09630E+04 -5.98443E+03  2.80145E+04
 -2.25081E+04  1.22842E+04 -1.79310E+04 -5.85794E+03  7.03229E+03 -7.54452E+03  2.37022E+04  1.39797E+04
  7.12417E+03  3.77425E+04 -3.39101E+04  3.69201E+04 -6.61674E+04  2.42417E+03 -5.94006E+04 -4.50590E+04
 -1.28939E+04 -6.56407E+04  4.18990E+04 -4.76640E+04  6.14944E+04 -2.73809E+03  3.65651E+04  3.44373E+04
 -5.64781E+03  3.96251E+04 -3.18789E+04  1.89549E+04 -3.37798E+04 -3.45716E+03 -1.93411E+04 -1.20080E+04
 -9.80429E+03 -1.53477E+04 -5.87782E+02 -2.01505E+04  8.22765E+03 -2.35508E+04  1.57561E+04 -1.21822E+04
  1.07296E+04  6.75060E+03 -1.06830E+04  1.28703E+04 -2.39222E+04 -6.85012E+03 -8.92760E+03 -3.79036E+04
  2.54337E+04 -4.74963E+04  5.22302E+04 -2.09294E+04  4.93490E+04  2.11132E+04  1.76172E+04  4.76929E+04
 -1.65938E+04  3.62333E+04 -2.76634E+04  2.67429E+03 -1.21752E+04 -2.97712E+04  2.18626E+04 -3.74802E+04
  4.48946E+04 -1.14120E+04  4.09208E+04  2.48727E+04  2.15137E+04  5.14050E+04 -8.31362E+03  5.66170E+04
 -3.59465E+04  3.85473E+04 -4.82502E+04  1.11924E+04 -4.80292E+04 -1.89579E+04 -2.65679E+04 -4.25902E+04
  8.19277E+03 -4.25156E+04  3.45547E+04 -1.69531E+04  3.24173E+04  1.12720E+04  4.99311E+03  2.08623E+04
 -1.41895E+04  9.57569E+03 -1.15804E+04 -7.02005E+03  5.56716E+03 -1.14344E+04  1.89613E+04  5.21104E+03
  1.51163E+04  2.29928E+04 -5.05218E+03  2.78264E+04 -2.34738E+04  1.43158E+04 -3.19620E+04 -2.81183E+03
 -2.52879E+04 -1.84080E+04 -1.17967E+04 -2.50331E+04  4.38611E+03 -2.65932E+04  2.00870E+04 -2.34061E+04
  3.32576E+04 -1.46459E+04  3.88418E+04  4.91812E+03  2.76919E+04  2.55258E+04  4.17598E+03  4.21933E+04
 -1.97561E+04  3.38940E+04 -3.07881E+04  1.22082E+04 -2.23644E+04 -1.03136E+04 -5.03132E+03 -1.28742E+04
  6.51673E+02 -8.16232E+02 -8.05886E+03  8.86192E+03 -2.09002E+04  4.91976E+03 -2.03179E+04 -9.85486E+03
 -1.18128E+04 -2.36060E+04  6.31223E+03 -2.82073E+04  1.86752E+04 -2.01820E+04  2.30976E+04 -2.16523E+03
  1.48552E+04  1.64924E+04 -1.46686E+03  2.35002E+04 -1.68813E+04  1.35309E+04 -2.42733E+04 -5.00089E+03
 -1.79899E+04 -2.15635E+04 -2.19308E+03 -2.84879E+04  1.24727E+04 -2.44276E+04  2.37130E+04 -1.25099E+04
  2.21378E+04  6.62815E+01  1.63123E+04  5.33453E+03  8.69865E+03  1.48681E+03  1.26051E+04 -2.28065E+03
  2.30387E+04  2.97826E+03  2.65918E+04  1.81570E+04  1.80194E+04  3.89900E+04 -2.68869E+03  4.53379E+04
 -2.56088E+04  3.79179E+04 -4.31273E+04  1.99629E+04 -4.60722E+04 -3.56842E+03 -3.76441E+04 -2.70737E+04
 -1.48073E+04 -3.83664E+04  1.40139E+04 -3.35592E+04  2.90193E+04 -1.54391E+04  2.49533E+04  8.10092E+03
  8.32536E+03  1.92510E+04 -1.20828E+04  1.59665E+04 -2.08884E+04  2.64027E+03 -1.55361E+04 -1.31645E+04
 -4.58564E+01 -1.97315E+04  1.05730E+04 -1.42893E+04  1.40621E+04 -1.27493E+03  3.87503E+03  9.67355E+03
 -8.76624E+03  4.59604E+03 -9.47644E+03 -7.13918E+03 -2.01108E+03 -1.90393E+04  1.24392E+04 -2.07723E+04
  2.38547E+04 -1.17145E+04  2.71257E+04  3.13634E+03  2.41380E+04  1.91392E+04  1.13248E+04  3.01923E+04
 -5.83165E+03  3.25166E+04 -2.12112E+04  1.98819E+04 -2.32463E+04  4.28521E+03 -1.65558E+04 -6.08909E+03
 -6.93259E+03 -7.30847E+03 -4.53557E+02  1.08948E+02 -2.32391E+03  3.56391E+03 -7.77317E+03  5.94887E+03
 -1.46334E+04 -8.83236E+02 -1.51769E+04 -1.22021E+04 -6.01272E+03 -1.98154E+04  6.79149E+03 -1.66661E+04
  1.33230E+04 -6.54707E+03  9.37427E+03  4.52592E+03 -7.73999E+02  6.59903E+03 -8.62250E+03 -7.15266E+02
 -7.75920E+03 -1.02391E+04 -1.42399E+03 -1.64589E+04  9.62623E+03 -1.71504E+04  2.10021E+04 -9.39178E+03
  2.46452E+04  2.72779E+03  1.76354E+04  1.52000E+04  3.33741E+03  2.03045E+04 -9.80865E+03  1.58396E+04
 -1.35028E+04  4.70291E+03 -7.11263E+03 -3.67681E+03  2.00254E+03 -4.79854E+03  8.55690E+03 -8.17751E+02
  7.78918E+03  7.59342E+03  8.58200E+02  1.32960E+04 -9.91152E+03  1.24957E+04 -1.65804E+04  3.10764E+03
 -1.13777E+04 -8.73388E+03  4.94765E+01 -1.39780E+04  9.52900E+03 -7.43547E+03  9.74880E+03  3.71548E+03
  2.41756E+03  1.06130E+04 -8.11421E+03  1.21673E+04 -1.46050E+04  5.20600E+03 -1.50625E+04 -6.11546E+03
 -8.55677E+03 -1.71877E+04  4.14026E+03 -1.92255E+04  1.65339E+04 -1.12888E+04  1.82748E+04  2.82021E+03
  1.08337E+04  1.41001E+04 -1.79836E+03  1.64119E+04 -1.21598E+04  9.45823E+03 -1.36562E+04 -1.42746E+03
 -1.14176E+04 -1.10648E+04 -1.85083E+03 -1.29572E+04  6.92934E+03 -1.00103E+04  7.93127E+03 -4.02450E+03
  5.24150E+03  2.56008E+03 -1.67651E+03  2.29355E+03 -8.82822E+02 -3.76521E+03  3.10068E+03 -7.73481E+03
  1.26368E+04 -5.79675E+03  1.74084E+04  1.47688E+03  1.65248E+04  1.19888E+04  1.04235E+04  2.26046E+04
 -5.55267E+03  2.60539E+04 -2.11927E+04  1.90255E+04 -2.76211E+04  3.61580E+03 -2.20000E+04 -9.72188E+03
 -1.11656E+04 -1.84900E+04 -8.63187E+02 -1.56207E+04  5.80345E+03 -8.94052E+03  5.60426E+03 -5.55641E+03
  4.05466E+03 -3.25589E+03  3.82598E+03 -4.42939E+03  6.19834E+03 -3.57761E+03  8.88094E+03 -1.47639E+03
  1.17818E+04  2.22822E+03  6.30825E+03  9.83681E+03 -2.63769E+03  1.23771E+04 -1.24232E+04  9.61382E+03
 -1.58442E+04 -1.22659E+03 -1.04858E+04 -1.11629E+04 -1.54272E+03 -1.69309E+04  9.15518E+03 -1.72268E+04
  1.77516E+04 -9.43007E+03  2.11950E+04  2.61869E+03  1.44262E+04  1.49625E+04  2.33624E+03  1.91100E+04
 -8.35408E+03  1.52568E+04 -1.15052E+04  5.73600E+03 -7.74459E+03 -2.00580E+03 -3.55696E+03 -2.43533E+03
 -1.80387E+03 -3.46407E+02 -2.53559E+03  3.41079E+03 -6.18533E+03  2.95780E+03 -1.10717E+04 -1.27592E+03
 -7.95475E+03 -1.10249E+04 -1.78965E+02 -1.59583E+04  9.58937E+03 -1.47396E+04  1.58858E+04 -4.92789E+03
  1.60709E+04  7.46710E+03  7.42676E+03  1.41343E+04 -3.36777E+03  1.65040E+04 -1.12772E+04  1.01961E+04
 -1.49694E+04  7.47118E+02 -1.15186E+04 -9.60218E+03 -1.51013E+03 -1.31767E+04  7.11879E+03 -9.97623E+03
  1.02429E+04 -3.28702E+03  7.46241E+03  3.07321E+03  2.96566E+03  4.62379E+03  1.56182E+03  2.14078E+03
  2.56532E+03  9.85263E+02  3.62686E+03  1.93996E+03  4.75635E+03  5.16950E+03  3.83880E+03  8.94239E+03
 -3.25776E+03  1.29563E+04 -1.15126E+04  1.32581E+04 -1.68526E+04  3.53302E+03 -1.76545E+04 -7.10447E+03
 -8.30667E+03 -1.64620E+04  2.28669E+03 -1.82313E+04  1.01869E+04 -1.17146E+04  1.39004E+04 -2.82984E+03
  1.09554E+04  6.49231E+03  2.33166E+03  9.37735E+03 -4.39257E+03  6.16022E+03 -6.65541E+03 -9.19965E+02
 -3.23675E+03 -6.98106E+03  4.43415E+03 -7.45928E+03  6.99478E+03 -3.41037E+03  6.72478E+03  1.84410E+03
  3.80841E+03  3.74910E+03  1.53661E+03  3.19961E+03 -8.53310E+02  2.43879E+03  1.64774E+03 -8.39219E+02
  2.69610E+03 -1.12352E+03  6.69491E+03  2.55424E+03  4.28137E+03  9.07097E+03 -1.57884E+03  1.17679E+04
 -7.93073E+03  7.96350E+03 -1.10187E+04  2.18527E+03 -9.45370E+03 -3.45221E+03 -3.83712E+03 -6.69587E+03
  1.03001E+03 -6.97688E+03  4.59331E+03 -2.94159E+03  3.29426E+03  2.98881E+03 -1.65236E+03  5.79717E+03
 -7.61302E+03  3.11990E+03 -8.02662E+03 -4.09352E+03 -4.77959E+03 -9.39264E+03  1.62905E+03 -9.41862E+03
  5.76465E+03 -5.41554E+03  7.04969E+03 -7.91583E+02  5.54588E+03  2.71417E+03  8.60853E+02  5.17821E+03
 -3.13435E+03  1.65068E+03 -4.33238E+03 -3.16699E+03  1.65085E+03 -7.68552E+03  8.54593E+03 -6.10619E+03
  1.11403E+04  1.51863E+03  1.03700E+04  7.84848E+03  3.04212E+03  1.15611E+04 -4.22649E+03  1.07721E+04
 -9.11996E+03  5.15813E+03 -9.42713E+03 -2.03893E+03 -5.19044E+03 -7.14291E+03  2.13895E+03 -7.27219E+03
  6.90734E+03 -3.01897E+03  6.58444E+03  3.13991E+03  2.24601E+03  6.48220E+03 -1.12441E+03  5.80102E+03
 -3.31841E+03  4.11282E+03 -2.62117E+03  1.10886E+03 -1.77491E+03  1.34189E+03 -1.72649E+03  2.43457E+03
 -3.06332E+03  4.77171E+03 -7.58350E+03  3.90769E+03 -1.12973E+04  1.59124E+02 -1.31667E+04 -7.62452E+03
 -6.55569E+03 -1.54493E+04  3.15337E+03 -1.76762E+04  1.09407E+04 -1.36660E+04  1.63607E+04 -4.88354E+03
  1.59149E+04  3.43306E+03  9.17740E+03  1.06503E+04  1.18289E+03  1.20646E+04 -5.02417E+03  9.18980E+03
 -7.17976E+03  3.40985E+03 -4.23281E+03 -1.11373E+03 -1.42871E+03 -1.68722E+03 -2.53100E+02 -1.23294E+02
 -1.40059E+03  4.16618E+02 -2.67114E+03 -5.06310E+02 -1.11699E+03 -2.55613E+03  5.09560E+02 -4.16507E+03
  5.39527E+03 -3.56448E+03  7.12244E+03 -1.02498E+02  8.37063E+03  6.24592E+03  2.27826E+03  1.16118E+04
 -5.62374E+03  1.38016E+04 -1.25334E+04  7.98238E+03 -1.49965E+04 -1.21846E+03 -1.09974E+04 -8.66300E+03
 -4.79316E+03 -1.25712E+04  3.13049E+03 -1.15508E+04  8.73656E+03 -6.40062E+03  7.79727E+03  3.46712E+02
  3.93440E+03  4.52750E+03 -4.66532E+02  3.30000E+03 -2.66951E+03 -9.76530E+01  2.79321E+02 -3.16144E+03
  3.63649E+03 -1.87162E+03  4.76207E+03  1.55187E+03  3.62230E+03  4.88792E+03  5.23884E+02  5.94970E+03
 -5.55015E+03  5.34018E+03 -8.64363E+03  7.85538E+02 -7.62114E+03 -6.08828E+03 -9.73900E+02 -1.05629E+04
  6.16107E+03 -8.75022E+03  9.57946E+03 -2.38017E+03  9.24929E+03  2.62483E+03  5.67325E+03  7.45483E+03
  1.34287E+03  8.24000E+03 -3.35776E+03  6.42480E+03 -5.11820E+03  3.50522E+03 -4.46125E+03  4.63280E+02
 -2.19845E+03 -5.28352E+02 -2.36354E+03  1.20019E+03 -4.00130E+03  1.63638E+03 -6.18512E+03 -1.08284E+03
 -6.19850E+03 -4.26402E+03 -2.12032E+03 -8.67311E+03  4.11798E+03 -8.80914E+03  7.38348E+03 -4.07491E+03
  8.72080E+03  1.17724E+03  4.90874E+03  5.83657E+03 -8.16259E+02  7.94598E+03 -6.25613E+03  5.49163E+03
