 $NMID ID='MM_0lb_SNR800_19hz_g50_7.RAW', FMTDAT='(8E13.5)'
 TRAMP=1., VOLUME=1. $END
  3.09669E+05  2.30267E+02  3.37180E+05  2.50391E+05  8.46354E+04  3.37575E+05 -1.32464E+05  2.50308E+05
 -1.89637E+05  8.25607E+04 -1.11173E+05 -3.27481E+04  1.39112E+03 -5.03483E+04  5.39572E+04  2.51224E+01
  3.50134E+04  5.27854E+04 -1.69692E+04  7.48634E+04 -6.02166E+04  6.27296E+04 -8.25779E+04  3.16150E+04
 -7.97963E+04 -1.11679E+04 -5.61564E+04 -5.01658E+04 -1.50229E+04 -6.82074E+04  2.66232E+04 -4.48177E+04
  3.92547E+04  3.84530E+03  1.53902E+04  4.70771E+04 -3.39961E+04  4.61874E+04 -6.55948E+04 -4.16974E+02
 -5.22619E+04 -5.58849E+04 -6.38784E+03 -7.52249E+04  3.32935E+04 -5.34544E+04  4.64277E+04 -1.63183E+04
  4.15804E+04  1.11187E+04  3.07075E+04  2.43508E+04  1.57622E+04  2.82997E+04 -4.92548E+03  2.66085E+04
 -2.16237E+04  1.27552E+04 -1.90942E+04 -4.52526E+03  4.82085E+03 -7.65382E+03  2.13545E+04  1.10754E+04
  7.30993E+03  3.34441E+04 -3.05180E+04  3.41332E+04 -6.13136E+04  2.37756E+03 -5.53760E+04 -4.11557E+04
 -1.20907E+04 -6.08291E+04  3.80735E+04 -4.32603E+04  5.59197E+04 -2.03170E+03  3.18638E+04  3.06589E+04
 -6.66346E+03  3.31916E+04 -2.82958E+04  1.32369E+04 -2.78537E+04 -5.25530E+03 -1.44705E+04 -9.92096E+03
 -7.15870E+03 -1.14130E+04 -1.06126E+03 -1.65258E+04  6.90064E+03 -2.26256E+04  1.51309E+04 -1.38723E+04
  1.21715E+04  4.22791E+03 -6.04283E+03  1.31610E+04 -1.92158E+04 -2.38970E+03 -7.95948E+03 -3.05304E+04
  2.05561E+04 -4.04905E+04  4.49584E+04 -1.88001E+04  4.20533E+04  1.83970E+04  1.44317E+04  4.19616E+04
 -1.51737E+04  3.08313E+04 -2.36935E+04  1.07544E+03 -8.62546E+03 -2.65987E+04  2.06485E+04 -3.12452E+04
  3.79665E+04 -7.23317E+03  3.16018E+04  2.26471E+04  1.54881E+04  4.29085E+04 -7.82137E+03  4.55588E+04
 -2.85216E+04  2.98751E+04 -3.74593E+04  8.48623E+03 -3.81541E+04 -1.51482E+04 -2.13222E+04 -3.44977E+04
  6.74185E+03 -3.43899E+04  2.88694E+04 -1.27471E+04  2.68408E+04  1.03970E+04  2.96619E+03  1.76335E+04
 -1.30498E+04  7.03405E+03 -9.82239E+03 -7.55693E+03  5.85380E+03 -1.00462E+04  1.74194E+04  6.56587E+03
  1.23226E+04  2.15817E+04 -6.56102E+03  2.33641E+04 -2.14360E+04  9.25044E+03 -2.51156E+04 -6.41459E+03
 -1.67874E+04 -1.63712E+04 -5.75915E+03 -1.70042E+04  3.79859E+03 -1.48270E+04  1.25313E+04 -1.46838E+04
  2.13270E+04 -1.13586E+04  2.81460E+04  1.08063E+03  2.12486E+04  1.62797E+04  3.92548E+03  3.25111E+04
 -1.62118E+04  2.76587E+04 -2.57035E+04  9.47952E+03 -1.96672E+04 -1.03158E+04 -4.07820E+03 -1.39936E+04
  2.60181E+03 -4.01020E+03 -2.45040E+03  5.29287E+03 -1.29061E+04  5.19777E+03 -1.33956E+04 -5.02346E+03
 -8.61054E+03 -1.55474E+04  4.23258E+03 -1.94059E+04  1.26189E+04 -1.37827E+04  1.45658E+04 -1.91822E+03
  8.79426E+03  1.09789E+04 -4.95577E+02  1.56992E+04 -1.02565E+04  8.70511E+03 -1.52946E+04 -3.63120E+03
 -1.16485E+04 -1.41376E+04 -1.72895E+03 -1.88562E+04  8.55738E+03 -1.52440E+04  1.61056E+04 -7.21666E+03
  1.44900E+04  5.61993E+02  1.03935E+04  3.98141E+03  5.09134E+03  5.27485E+02  7.31963E+03 -1.14042E+03
  1.38290E+04  2.65293E+03  1.45597E+04  1.27014E+04  9.02524E+03  2.47811E+04 -3.04738E+03  2.63793E+04
 -1.54816E+04  2.03520E+04 -2.41493E+04  9.69845E+03 -2.49262E+04 -1.69077E+03 -2.13698E+04 -1.41522E+04
 -1.02130E+04 -2.03649E+04  6.64368E+03 -1.86656E+04  1.63727E+04 -1.08543E+04  1.54178E+04  3.61689E+03
  6.57904E+03  1.09857E+04 -7.01490E+03  1.03417E+04 -1.32361E+04  2.58250E+03 -1.04903E+04 -8.08809E+03
  1.01120E+02 -1.22281E+04  6.06914E+03 -9.50603E+03  7.95410E+03 -1.44250E+03  1.31085E+03  5.04703E+03
 -5.24265E+03  1.29360E+03 -3.62606E+03 -4.56170E+03  6.44987E+02 -9.70100E+03  7.77500E+03 -9.96014E+03
  1.20311E+04 -4.64907E+03  1.17680E+04  2.88978E+03  1.01686E+04  9.28864E+03  4.85083E+03  1.37737E+04
 -1.95713E+03  1.56160E+04 -9.63933E+03  1.02472E+04 -1.11465E+04  2.88973E+03 -8.35723E+03 -1.88305E+03
 -4.24693E+03 -3.30605E+03 -8.08047E+02  1.48579E+03 -1.99851E+03  1.83751E+03 -3.64382E+03  3.57513E+03
 -7.71972E+03 -4.21429E+02 -8.96219E+03 -7.07605E+03 -3.41553E+03 -1.16666E+04  3.60158E+03 -8.14235E+03
  6.94388E+03 -3.63413E+03  5.25165E+03  2.05544E+03  8.52308E+02  3.15085E+03 -3.33229E+03 -9.97642E+01
 -3.55236E+03 -5.04431E+03 -9.73640E+02 -7.02741E+03  3.81010E+03 -7.54047E+03  9.61489E+03 -3.92618E+03
  1.17782E+04  5.54517E+02  8.92054E+03  5.76862E+03  1.67043E+03  8.58921E+03 -5.16684E+03  8.26901E+03
 -6.43987E+03  2.74641E+03 -3.63167E+03 -1.13080E+03  1.33017E+03 -1.98880E+03  4.65641E+03 -9.52319E+02
  3.94201E+03  3.22393E+03  1.14855E+03  6.16124E+03 -4.16612E+03  6.22385E+03 -7.48830E+03  1.71256E+03
 -4.45313E+03 -3.62251E+03  1.63279E+02 -6.52183E+03  3.95198E+03 -3.19578E+03  3.52786E+03  1.22786E+03
  2.52590E+02  3.01695E+03 -3.90280E+03  4.88388E+03 -4.62127E+03  2.73435E+03 -4.38278E+03 -8.65394E+02
 -2.72733E+03 -5.77836E+03  1.06189E+03 -6.76527E+03  5.93412E+03 -4.35639E+03  6.20201E+03  6.65646E+02
  4.80314E+03  4.85669E+03  8.59931E+01  7.17615E+03 -4.85621E+03  4.04198E+03 -4.97939E+03 -5.77308E+02
 -5.91132E+03 -4.87122E+03 -1.34553E+03 -4.84207E+03  2.44259E+03 -4.48209E+03  2.89617E+03 -3.02606E+03
  2.68011E+03  3.56792E+02  3.03834E+01  1.33136E+03  8.06109E+02  1.09335E+02  1.60494E+02 -1.49517E+03
  3.68090E+03 -5.71264E+02  5.09376E+03  8.00118E+02  5.49605E+03  3.10024E+03  5.31162E+03  6.77150E+03
 -1.00148E+03  7.96791E+03 -7.51518E+03  6.28539E+03 -9.57026E+03  1.15084E+03 -7.30779E+03 -2.53263E+03
 -4.14183E+03 -6.21442E+03 -4.99034E+02 -4.80922E+03  2.19566E+03 -2.19642E+03  1.73405E+03 -2.16430E+03
  1.11643E+03 -1.60016E+03  2.07228E+03 -2.57566E+03  3.61506E+03 -1.29957E+03  3.64806E+03  4.71399E+02
  4.30513E+03  1.11998E+03  9.41447E+02  3.38139E+03 -1.54474E+03  2.54593E+03 -3.97922E+03  2.42707E+03
 -4.65404E+03 -1.09303E+03 -1.36673E+03 -3.18197E+03  5.69020E+02 -4.50932E+03  3.26574E+03 -5.01000E+03
  4.96831E+03 -3.17120E+03  6.30935E+03 -1.00554E+02  4.51426E+03  3.80070E+03  1.25221E+03  5.75987E+03
 -1.97811E+03  5.82237E+03 -3.07464E+03  1.71452E+03 -1.66203E+03 -9.33179E+02 -3.15961E+02 -6.29443E+02
 -4.70576E+02  5.48656E+02 -1.06110E+03  1.78497E+03 -2.56860E+03  1.10044E+03 -4.07400E+03 -3.71630E+02
 -1.48309E+03 -3.90170E+03  1.00220E+03 -4.37043E+03  2.66643E+03 -4.24780E+03  3.16745E+03 -1.21484E+03
  3.66140E+03  2.45194E+03  1.72038E+03  3.14446E+03 -4.71885E+02  4.28053E+03 -2.70851E+03  2.44817E+03
 -3.58676E+03  5.27811E+02 -3.42280E+03 -2.18315E+03 -4.10483E+02 -2.67671E+03  1.52458E+03 -2.40254E+03
  2.50091E+03 -1.34142E+03  1.73925E+03  3.21540E+02  3.90082E+02  1.54140E+03  7.30680E+02  3.39953E+02
  1.70875E+03  5.26849E+02  1.18121E+03  1.08040E+03  1.12042E+03  1.85309E+03  1.54905E+03  1.64723E+03
 -7.58047E+02  2.65748E+03 -2.03480E+03  3.66720E+03 -2.87907E+03  1.05251E+03 -3.88353E+03 -2.81182E+02
 -1.47500E+03 -3.48055E+03  5.95098E+02 -4.31082E+03  1.78448E+03 -2.43899E+03  2.95960E+03 -7.45210E+02
  2.27047E+03  1.71789E+03  4.35147E+02  1.93341E+03 -5.34701E+02  8.39129E+02 -9.25603E+02 -2.24200E+02
 -5.05459E+02 -1.40064E+03  1.00752E+03 -1.39351E+03  1.07352E+03 -8.50324E+02  1.12120E+03  3.97795E+02
  6.17800E+02  3.80546E+02  7.65987E+02 -2.20616E+02 -2.08206E+02  7.68335E+02  1.67015E+03 -2.17048E+02
  4.64833E+01  1.28829E+02  1.83151E+03  4.24189E+02 -1.55601E+02  2.10948E+03 -2.62109E+02  2.66944E+03
 -1.12536E+03  1.17209E+03 -1.91999E+03  3.60801E+02 -1.90798E+03 -8.27407E+02 -1.76538E+02 -8.84030E+02
  4.79539E+02 -9.06149E+02  5.17815E+02 -7.03217E+02  7.28341E+02  1.50310E+03 -5.07010E+02  1.15052E+03
 -1.37778E+03  8.56926E+02 -1.10081E+03 -1.26703E+03 -8.98605E+02 -1.86634E+03  2.81982E+01 -1.60166E+03
  2.70504E+02 -2.64038E+02  5.21264E+02  1.19599E+02  1.66095E+03  4.51043E+01  5.81436E+02  6.54151E+02
 -2.86215E+02 -1.27367E+02 -5.67214E+02 -7.69193E+01  7.64499E+02 -5.61144E+02  1.51500E+03 -5.57388E+02
  1.15338E+03  2.21933E+02  2.64273E+03  3.86869E+02  9.28646E+02  1.42129E+03 -3.73371E+02  1.73805E+03
 -1.25236E+03  2.78006E+01 -1.28443E+03 -1.54705E+02 -8.28233E+02 -1.24725E+03  3.21209E+02 -3.63843E+02
  1.18370E+03 -4.97156E+02  7.30031E+02  7.03851E+02  1.78747E+02  1.10001E+03  6.70003E+02  1.21372E+03
 -1.85043E+02  1.01343E+03 -1.86002E+02  1.70430E+02 -1.45220E+02  2.97605E+02 -3.37176E+02  7.39349E+02
 -5.66045E+02  7.68116E+02 -1.48795E+03  2.16304E+02 -1.55537E+03  2.95444E+02 -2.21208E+03 -8.06994E+02
 -8.93641E+02 -1.90167E+03  6.89384E+02 -2.39904E+03  9.11504E+02 -2.28513E+03  2.40193E+03 -8.29093E+02
  2.13830E+03 -7.18712E+01  9.65613E+02  1.12473E+03 -4.88448E+02  1.19735E+03 -3.44088E+02  1.36652E+03
 -8.14199E+02  5.49798E+02 -2.03461E+02 -1.29345E+02 -5.14390E+02  5.21364E+02 -6.42496E+02  2.95890E+02
 -1.02271E+03 -8.67749E+01 -8.80217E+02  1.60587E+02  1.26305E+02 -7.38019E+02 -5.77713E+01 -9.62566E+02
  1.20216E+03 -6.56413E+02  2.75792E+02  2.81873E+02  9.82341E+02  9.00948E+02 -5.35797E+02  1.38243E+03
 -7.70717E+02  1.91799E+03 -1.41888E+03  1.03810E+03 -1.23505E+03 -1.07503E+02 -8.95034E+02 -1.14491E+03
 -6.95236E+02 -1.02484E+03  3.59380E+02 -9.73286E+02  3.68714E+02 -5.65361E+02  4.92743E+02  1.74057E+02
  7.48917E+02  1.55501E+02  2.77889E+01  5.94190E+02 -2.27551E+02 -1.62807E+02 -2.20525E+02 -1.70078E+02
  3.09521E+02  3.14446E+02  1.78310E+02  3.85499E+02 -5.97708E+01  3.44706E+02  3.11325E+02  9.84351E+01
 -4.97071E+02  7.66304E+02 -4.58135E+02 -2.66846E+02 -5.43251E+02 -1.59191E+02 -1.26294E+02 -7.90234E+02
  2.69042E+02 -6.68967E+02  2.15487E+02  3.21930E+02  8.02445E+02 -3.30460E+02  3.53505E+02  6.74817E+02
  3.61664E+02  4.96256E+02 -1.08191E+02  4.55427E+02 -5.93988E+02  1.58632E+02 -4.09511E+01  7.54920E+01
 -9.31104E+01 -1.17668E+02 -3.45943E+02 -5.25308E+01 -4.34046E+02  2.56687E+02 -4.24971E+02 -1.08599E+02
 -9.69299E+02  1.04852E+02 -2.15223E+01 -8.67945E+02  6.82198E+02 -1.38713E+03  7.92101E+02 -1.68726E+02
  3.59875E+02  1.09618E+02 -3.15815E+02  3.23992E+02 -1.09584E+02  4.42768E+02 -2.99706E+02  5.20580E+02
