 $NMID ID='MM_0lb_SNR800_17hz_g40_20.RAW', FMTDAT='(8E13.5)'
 TRAMP=1., VOLUME=1. $END
  3.09926E+05  2.25597E+02  3.37503E+05  2.50361E+05  8.46155E+04  3.37515E+05 -1.32167E+05  2.50240E+05
 -1.89404E+05  8.23602E+04 -1.10950E+05 -3.27882E+04  1.39810E+03 -5.01530E+04  5.38160E+04  9.08561E+01
  3.50171E+04  5.28052E+04 -1.68979E+04  7.49697E+04 -6.04000E+04  6.28170E+04 -8.30725E+04  3.18238E+04
 -7.98255E+04 -1.11044E+04 -5.64451E+04 -5.02189E+04 -1.49832E+04 -6.85802E+04  2.66276E+04 -4.50201E+04
  3.91631E+04  3.92008E+03  1.55221E+04  4.69249E+04 -3.36891E+04  4.62755E+04 -6.53746E+04 -5.72137E+02
 -5.21350E+04 -5.56563E+04 -6.47649E+03 -7.52770E+04  3.33609E+04 -5.31635E+04  4.64318E+04 -1.64398E+04
  4.15764E+04  1.10206E+04  3.08032E+04  2.47409E+04  1.59486E+04  2.81366E+04 -4.71661E+03  2.71469E+04
 -2.13303E+04  1.29193E+04 -1.91903E+04 -4.24057E+03  4.35703E+03 -7.85638E+03  2.15637E+04  1.09069E+04
  7.41170E+03  3.36227E+04 -3.04708E+04  3.42918E+04 -6.11327E+04  2.41690E+03 -5.54499E+04 -4.14774E+04
 -1.24468E+04 -6.13725E+04  3.82619E+04 -4.36419E+04  5.58737E+04 -2.00530E+03  3.21128E+04  3.07386E+04
 -6.32956E+03  3.32970E+04 -2.84758E+04  1.33373E+04 -2.77957E+04 -5.36181E+03 -1.46549E+04 -1.00869E+04
 -7.47179E+03 -1.17570E+04 -9.20388E+02 -1.69132E+04  6.84612E+03 -2.26160E+04  1.51861E+04 -1.38468E+04
  1.23655E+04  4.42940E+03 -6.40737E+03  1.30451E+04 -1.95750E+04 -2.75499E+03 -8.21312E+03 -3.06526E+04
  2.08824E+04 -4.09579E+04  4.50579E+04 -1.86712E+04  4.24710E+04  1.84546E+04  1.45095E+04  4.20294E+04
 -1.54477E+04  3.11552E+04 -2.36831E+04  1.36004E+03 -8.27440E+03 -2.63791E+04  2.04416E+04 -3.16541E+04
  3.84649E+04 -7.69418E+03  3.17967E+04  2.27272E+04  1.55872E+04  4.32023E+04 -7.83731E+03  4.57766E+04
 -2.87235E+04  3.04023E+04 -3.76614E+04  8.55031E+03 -3.89747E+04 -1.53162E+04 -2.17323E+04 -3.48751E+04
  6.91304E+03 -3.46716E+04  2.95123E+04 -1.31088E+04  2.68940E+04  1.06809E+04  2.95411E+03  1.79172E+04
 -1.28206E+04  7.26335E+03 -9.51079E+03 -7.79483E+03  5.90637E+03 -1.03240E+04  1.75534E+04  6.43842E+03
  1.25936E+04  2.13121E+04 -6.82177E+03  2.36137E+04 -2.15595E+04  9.55448E+03 -2.54504E+04 -6.23432E+03
 -1.70853E+04 -1.64986E+04 -5.89206E+03 -1.71892E+04  3.93168E+03 -1.54458E+04  1.29953E+04 -1.49121E+04
  2.18540E+04 -1.17812E+04  2.85878E+04  1.32857E+03  2.15354E+04  1.68626E+04  4.28285E+03  3.28449E+04
 -1.62073E+04  2.81151E+04 -2.60089E+04  9.67959E+03 -1.97708E+04 -1.05617E+04 -4.26537E+03 -1.38225E+04
  2.45000E+03 -4.20308E+03 -2.81133E+03  5.62291E+03 -1.35535E+04  5.15555E+03 -1.39278E+04 -5.20889E+03
 -8.80352E+03 -1.60850E+04  4.77180E+03 -1.97779E+04  1.26133E+04 -1.45823E+04  1.53065E+04 -1.35947E+03
  9.39841E+03  1.12113E+04 -8.44355E+02  1.59627E+04 -1.07900E+04  9.08184E+03 -1.59238E+04 -3.57086E+03
 -1.19742E+04 -1.46572E+04 -1.32022E+03 -1.97083E+04  8.69634E+03 -1.59790E+04  1.65982E+04 -7.31066E+03
  1.51835E+04  8.09980E+02  1.08241E+04  3.87017E+03  5.56060E+03  8.44814E+02  8.14494E+03 -1.23738E+03
  1.45421E+04  2.75834E+03  1.56377E+04  1.29095E+04  9.51360E+03  2.55558E+04 -3.00550E+03  2.77188E+04
 -1.64410E+04  2.13716E+04 -2.57635E+04  1.05679E+04 -2.63432E+04 -1.74377E+03 -2.22670E+04 -1.47008E+04
 -1.03328E+04 -2.14116E+04  7.24348E+03 -1.98016E+04  1.73150E+04 -1.10285E+04  1.62313E+04  4.16156E+03
  6.80546E+03  1.19840E+04 -7.36782E+03  1.08019E+04 -1.36519E+04  2.72498E+03 -1.07840E+04 -8.12226E+03
  2.05973E+02 -1.29580E+04  6.26860E+03 -9.61063E+03  8.29697E+03 -1.31433E+03  1.45399E+03  5.32409E+03
 -5.94428E+03  1.43548E+03 -3.89793E+03 -4.73405E+03  7.56358E+02 -1.07661E+04  7.97469E+03 -1.09283E+04
  1.29736E+04 -5.03026E+03  1.28852E+04  2.67966E+03  1.13297E+04  1.03248E+04  5.34491E+03  1.50715E+04
 -2.07199E+03  1.66969E+04 -1.03638E+04  1.10622E+04 -1.20498E+04  2.66971E+03 -8.98462E+03 -2.29231E+03
 -4.67433E+03 -3.52526E+03 -7.31625E+02  1.52300E+03 -2.03495E+03  2.09580E+03 -4.11124E+03  3.90829E+03
 -8.34606E+03 -5.63215E+02 -8.94877E+03 -7.57099E+03 -3.56805E+03 -1.20218E+04  3.78957E+03 -9.14331E+03
  7.33922E+03 -3.92097E+03  5.60902E+03  2.35843E+03  5.29002E+02  3.22421E+03 -3.69947E+03 -1.56912E+02
 -3.89025E+03 -5.59689E+03 -7.65832E+02 -7.77793E+03  4.33699E+03 -8.63004E+03  1.10881E+04 -4.30975E+03
  1.26634E+04  6.20621E+02  9.36736E+03  6.65766E+03  2.01814E+03  9.38867E+03 -5.42005E+03  8.97348E+03
 -7.37898E+03  3.11518E+03 -3.66926E+03 -1.17270E+03  1.35629E+03 -1.82139E+03  5.23170E+03 -7.99900E+02
  4.56539E+03  3.57014E+03  1.31119E+03  6.86857E+03 -4.57226E+03  6.69562E+03 -8.38329E+03  2.09138E+03
 -5.46620E+03 -3.94019E+03  3.88185E+01 -7.23052E+03  4.31113E+03 -3.61063E+03  4.09639E+03  1.22690E+03
  5.40241E+02  3.66990E+03 -4.19573E+03  5.37237E+03 -5.39087E+03  2.43110E+03 -4.99802E+03 -1.47532E+03
 -3.28729E+03 -6.63171E+03  1.35582E+03 -7.79267E+03  6.59877E+03 -5.08754E+03  7.08039E+03  9.22858E+02
  4.79693E+03  5.85356E+03  1.12044E+02  7.85861E+03 -5.72771E+03  4.30956E+03 -5.65475E+03 -3.99891E+02
 -5.98331E+03 -5.65685E+03 -1.36480E+03 -5.49360E+03  3.05881E+03 -4.73903E+03  3.13961E+03 -2.98037E+03
  2.78746E+03  2.71573E+02 -1.52778E+02  1.37960E+03  5.43979E+02 -5.66574E+02  4.66581E+02 -2.03642E+03
  4.41654E+03 -1.17734E+03  6.05111E+03  7.33029E+02  6.47871E+03  3.73589E+03  5.68174E+03  8.33068E+03
 -1.61331E+03  9.68028E+03 -8.55450E+03  7.31399E+03 -1.09840E+04  1.21259E+03 -8.98892E+03 -3.23098E+03
 -4.88347E+03 -7.20342E+03 -4.66704E+02 -6.11067E+03  2.42071E+03 -2.47899E+03  1.84222E+03 -2.41866E+03
  1.33214E+03 -1.64931E+03  2.28018E+03 -2.22148E+03  3.71263E+03 -1.42354E+03  3.81406E+03  2.74006E+02
  5.10264E+03  1.41644E+03  1.42474E+03  3.75567E+03 -1.46680E+03  3.19968E+03 -4.87646E+03  3.11794E+03
 -5.60121E+03 -1.08475E+03 -2.48769E+03 -3.95991E+03  3.03298E+02 -5.67942E+03  3.84320E+03 -6.26615E+03
  6.06313E+03 -3.58022E+03  7.43441E+03  3.66628E+02  5.49547E+03  4.92771E+03  1.00223E+03  6.87948E+03
 -2.66552E+03  6.71820E+03 -3.57264E+03  2.19933E+03 -2.37685E+03 -1.08515E+03 -5.62719E+02 -3.40202E+02
 -5.96243E+02  5.10168E+02 -1.15823E+03  2.09038E+03 -2.80957E+03  1.33074E+03 -4.59379E+03 -4.44998E+02
 -1.91634E+03 -4.47487E+03  8.56713E+02 -5.39489E+03  3.17305E+03 -5.15596E+03  4.18498E+03 -1.26748E+03
  4.78216E+03  2.92669E+03  2.23103E+03  3.91500E+03 -9.39174E+02  5.08889E+03 -2.84933E+03  2.93483E+03
 -4.76927E+03  7.57420E+02 -3.54710E+03 -2.66846E+03 -2.31556E+02 -3.75902E+03  1.90500E+03 -2.92234E+03
  3.13746E+03 -1.58220E+03  2.05143E+03  7.07083E+02  5.30400E+02  1.68184E+03  8.02403E+02  6.60848E+02
  1.60348E+03  5.42227E+02  1.58254E+03  1.04767E+03  1.25456E+03  2.24690E+03  1.48380E+03  2.04867E+03
 -1.26752E+03  3.39990E+03 -2.86474E+03  4.57796E+03 -3.80666E+03  1.32926E+03 -4.99823E+03 -8.02207E+02
 -1.96557E+03 -4.36603E+03  5.23575E+02 -5.38822E+03  2.62240E+03 -3.16739E+03  3.55928E+03 -1.22152E+03
  3.11627E+03  1.98927E+03  2.75061E+02  2.57947E+03 -5.98863E+02  1.79169E+03 -1.55200E+03  1.12426E+02
 -8.66429E+02 -1.90450E+03  1.39013E+03 -2.09227E+03  1.83790E+03 -8.45939E+02  1.80916E+03  3.38789E+02
  7.07615E+02  4.23499E+02  7.69840E+02  3.37278E+01 -3.80691E+02  7.34868E+02  1.65277E+03 -2.26394E+02
  8.26466E+01 -3.66141E+02  2.43505E+03  8.64442E+02  3.88863E+02  2.78660E+03 -5.85694E+02  3.41486E+03
 -2.02947E+03  1.48399E+03 -2.70693E+03  2.56782E+02 -2.62628E+03 -6.39453E+02 -5.30229E+02 -1.25274E+03
  2.99646E+02 -1.59463E+03  1.35160E+03 -8.53411E+02  9.76777E+02  1.40699E+03 -9.92244E+02  1.62838E+03
 -1.78749E+03  7.67471E+02 -1.57059E+03 -1.54394E+03 -7.60448E+02 -2.60977E+03  2.84015E+02 -2.13188E+03
  7.12215E+02 -6.78874E+02  1.14179E+03  2.22392E+02  1.58329E+03  1.48203E+00  2.43333E+02  1.23636E+03
 -3.16798E+02  3.54140E+02 -1.07378E+03 -3.54188E+02  9.35860E+02 -1.16922E+03  2.19579E+03 -1.57748E+03
  1.79099E+03  2.50377E+02  3.22665E+03  1.31195E+03  1.24608E+03  2.26707E+03 -7.50789E+02  2.89781E+03
 -1.95623E+03  5.88242E+02 -1.66825E+03 -1.58396E+02 -1.25079E+03 -1.65754E+03  4.00722E+02 -9.68385E+02
  1.68336E+03 -9.80855E+02  1.14828E+03  6.47224E+02  3.53005E+02  1.62576E+03  2.25936E+01  1.38403E+03
 -5.69025E+02  1.21894E+03 -5.33157E+02  9.83010E+01  4.71588E+01  3.73819E+02 -7.16826E+02  1.05850E+03
 -7.17513E+02  1.22200E+03 -2.00168E+03  6.57727E+02 -2.23464E+03  1.39512E+02 -2.96630E+03 -1.13916E+03
 -1.20829E+03 -3.15547E+03  5.67611E+02 -3.63100E+03  1.42289E+03 -2.97502E+03  3.27303E+03 -1.27197E+03
  3.32410E+03  5.22768E+01  1.70308E+03  1.89889E+03 -5.64360E+02  1.96657E+03 -7.85894E+02  2.05192E+03
 -1.06344E+03  7.29836E+02 -6.15465E+02 -4.58896E+02 -3.78056E+02 -1.59729E+02 -3.79381E+02  9.61385E+01
 -8.64815E+02 -1.57255E+02 -7.35559E+02  1.66192E+02  3.94731E+02 -8.65526E+02 -2.73693E+02 -1.02905E+03
  1.49899E+03 -5.27499E+02  7.75842E+02  1.19927E+02  1.53697E+03  1.06897E+03 -4.14976E+02  2.02250E+03
 -1.42588E+03  2.75634E+03 -2.39557E+03  1.80778E+03 -2.59174E+03 -2.71383E+02 -1.96965E+03 -1.80230E+03
 -1.15019E+03 -1.92911E+03  4.35994E+02 -1.59261E+03  1.01265E+03 -6.58928E+02  9.92512E+02 -9.73002E+01
  9.94017E+02  3.75358E+02  9.19443E+01  5.34686E+02 -2.54037E+02 -1.57973E+02  5.58475E+01 -5.82194E+02
  9.10614E+02  1.61439E+02  3.85543E+02  4.84542E+02  2.78870E+02  8.52163E+02  6.49873E+02  6.04872E+02
 -7.34707E+02  9.27040E+02 -9.08036E+02  1.48338E+02 -7.96346E+02 -6.75099E+02  1.18355E+02 -1.43868E+03
  6.37800E+02 -9.01444E+02  1.19919E+03 -3.06450E+02  1.52526E+03 -6.85669E+02  9.55140E+02  1.03410E+03
  2.05659E+02  1.17665E+03 -6.23395E+02  9.55883E+02 -5.53014E+02  7.50126E+02 -6.34381E+02  1.73843E+02
 -2.36154E+02 -8.87312E+01 -7.16770E+02  2.96777E+02 -8.39758E+02  2.46505E+02 -1.26102E+03 -3.09315E+02
 -1.47919E+03  2.64270E+02 -9.24479E+01 -1.52107E+03  8.60509E+02 -1.82961E+03  1.12093E+03 -5.01003E+02
  9.59539E+02 -6.78030E+00 -2.92132E+02  5.07860E+02 -1.74928E+02  8.85753E+02 -5.26821E+02  1.06673E+03
