 $NMID ID='MM_0lb_SNR800_7hz_g60_55.RAW', FMTDAT='(8E13.5)'
 TRAMP=1., VOLUME=1. $END
  3.09440E+05  2.02184E+02  3.38054E+05  2.50628E+05  8.54803E+04  3.39046E+05 -1.32770E+05  2.52398E+05
 -1.91112E+05  8.47679E+04 -1.12671E+05 -3.22632E+04 -2.43079E+02 -5.10658E+04  5.34352E+04 -5.44423E+02
  3.60470E+04  5.32449E+04 -1.66811E+04  7.60825E+04 -6.16631E+04  6.47476E+04 -8.59135E+04  3.28501E+04
 -8.31233E+04 -1.22192E+04 -5.87303E+04 -5.30804E+04 -1.50126E+04 -7.18006E+04  2.87731E+04 -4.74825E+04
  4.15130E+04  3.49764E+03  1.69034E+04  4.86425E+04 -3.50644E+04  4.82296E+04 -6.86213E+04  7.61869E+02
 -5.57614E+04 -5.82786E+04 -7.18052E+03 -8.00241E+04  3.48262E+04 -5.84590E+04  5.07247E+04 -1.91053E+04
  4.60697E+04  1.16094E+04  3.35646E+04  2.72180E+04  1.58717E+04  3.10951E+04 -5.91123E+03  2.84779E+04
 -2.31764E+04  1.17774E+04 -1.74367E+04 -6.15939E+03  7.91230E+03 -7.22365E+03  2.42610E+04  1.45323E+04
  6.95232E+03  3.86570E+04 -3.53598E+04  3.80855E+04 -6.70991E+04  2.04241E+03 -6.01211E+04 -4.57365E+04
 -1.32248E+04 -6.72513E+04  4.28656E+04 -4.83504E+04  6.32289E+04 -2.56892E+03  3.85940E+04  3.53582E+04
 -5.28874E+03  4.12111E+04 -3.23874E+04  1.99363E+04 -3.50705E+04 -3.08234E+03 -2.09172E+04 -1.27036E+04
 -9.85829E+03 -1.64338E+04  7.19265E+01 -2.10622E+04  8.86149E+03 -2.33873E+04  1.61768E+04 -1.17005E+04
  9.81354E+03  6.99919E+03 -1.11939E+04  1.26205E+04 -2.51038E+04 -8.06732E+03 -8.96600E+03 -3.97189E+04
  2.65145E+04 -4.92722E+04  5.44244E+04 -2.19126E+04  5.11057E+04  2.13880E+04  1.84945E+04  4.88704E+04
 -1.67393E+04  3.76767E+04 -2.86948E+04  3.10377E+03 -1.27305E+04 -3.10082E+04  2.24175E+04 -3.86685E+04
  4.70454E+04 -1.24022E+04  4.34800E+04  2.59415E+04  2.33849E+04  5.36517E+04 -9.06506E+03  5.97069E+04
 -3.78786E+04  4.08277E+04 -5.03613E+04  1.21504E+04 -5.05834E+04 -2.00773E+04 -2.80817E+04 -4.46915E+04
  8.25328E+03 -4.41135E+04  3.57722E+04 -1.87737E+04  3.37348E+04  1.12318E+04  5.91856E+03  2.18654E+04
 -1.40121E+04  1.06548E+04 -1.20657E+04 -7.37275E+03  5.41665E+03 -1.17093E+04  1.95531E+04  4.93854E+03
  1.54587E+04  2.34185E+04 -4.57156E+03  2.86051E+04 -2.43485E+04  1.61203E+04 -3.40097E+04 -2.24702E+03
 -2.78583E+04 -1.89346E+04 -1.35893E+04 -2.77570E+04  4.93845E+03 -2.88303E+04  2.24571E+04 -2.58578E+04
  3.60337E+04 -1.52588E+04  4.17135E+04  6.14760E+03  2.92355E+04  2.71718E+04  4.34496E+03  4.45610E+04
 -2.14186E+04  3.59099E+04 -3.19933E+04  1.30340E+04 -2.36493E+04 -9.84404E+03 -5.37963E+03 -1.22844E+04
 -1.66414E+02 -2.10711E+02 -9.23214E+03  9.39177E+03 -2.27366E+04  4.98803E+03 -2.25672E+04 -1.10939E+04
 -1.32868E+04 -2.62434E+04  7.11206E+03 -3.08458E+04  2.12781E+04 -2.19061E+04  2.58807E+04 -2.31740E+03
  1.62684E+04  1.82387E+04 -1.50286E+03  2.57969E+04 -1.92768E+04  1.49220E+04 -2.64435E+04 -5.53550E+03
 -1.94860E+04 -2.32683E+04 -2.59059E+03 -3.11903E+04  1.37087E+04 -2.61509E+04  2.57814E+04 -1.37401E+04
  2.46678E+04 -9.35347E+02  1.78027E+04  6.04337E+03  1.00313E+04  1.52946E+03  1.40095E+04 -2.87447E+03
  2.51019E+04  3.27154E+03  2.90262E+04  2.01704E+04  2.01493E+04  4.24235E+04 -2.16287E+03  5.02327E+04
 -2.88943E+04  4.31101E+04 -4.81860E+04  2.28318E+04 -5.14112E+04 -3.87070E+03 -4.16178E+04 -3.02922E+04
 -1.59215E+04 -4.35207E+04  1.54425E+04 -3.75382E+04  3.22450E+04 -1.70884E+04  2.71561E+04  9.15043E+03
  9.26740E+03  2.10656E+04 -1.30928E+04  1.81379E+04 -2.28520E+04  2.75640E+03 -1.71540E+04 -1.42462E+04
 -1.44829E+02 -2.20335E+04  1.22847E+04 -1.60463E+04  1.55533E+04 -1.41953E+03  3.87062E+03  9.69062E+03
 -1.00616E+04  5.01320E+03 -1.14521E+04 -8.21936E+03 -3.27773E+03 -2.11203E+04  1.33643E+04 -2.29787E+04
  2.73185E+04 -1.34147E+04  3.20214E+04  3.56989E+03  2.74842E+04  2.18315E+04  1.25437E+04  3.49578E+04
 -6.46555E+03  3.71708E+04 -2.50966E+04  2.31950E+04 -2.69417E+04  4.34848E+03 -1.76096E+04 -7.60101E+03
 -7.49744E+03 -8.73698E+03 -9.87410E+02  8.09519E+01 -3.44054E+03  4.44414E+03 -8.86769E+03  6.23537E+03
 -1.66058E+04 -1.24622E+03 -1.77490E+04 -1.38319E+04 -6.48104E+03 -2.27782E+04  7.37503E+03 -1.91999E+04
  1.52989E+04 -6.89674E+03  1.08908E+04  4.80788E+03 -5.85676E+02  7.02435E+03 -1.00738E+04  1.27462E+02
 -9.46403E+03 -1.17130E+04 -1.45256E+03 -1.87826E+04  1.08569E+04 -2.01514E+04  2.43598E+04 -1.06341E+04
  2.87323E+04  3.17657E+03  2.06185E+04  1.81369E+04  4.03936E+03  2.29942E+04 -1.11087E+04  1.87091E+04
 -1.47308E+04  5.26795E+03 -8.03028E+03 -4.76810E+03  2.42893E+03 -5.47465E+03  9.09789E+03 -5.50683E+02
  8.19879E+03  8.99064E+03  1.67857E+03  1.52330E+04 -1.10894E+04  1.44441E+04 -1.87402E+04  3.16261E+03
 -1.32410E+04 -1.02650E+04  4.28113E+02 -1.62888E+04  1.09998E+04 -8.41344E+03  1.13554E+04  4.23776E+03
  3.07420E+03  1.30230E+04 -9.62123E+03  1.47482E+04 -1.79728E+04  5.90691E+03 -1.81095E+04 -6.34106E+03
 -1.00828E+04 -2.01331E+04  4.77977E+03 -2.34479E+04  1.97359E+04 -1.36588E+04  2.16681E+04  4.11374E+03
  1.26084E+04  1.67905E+04 -2.14658E+03  1.94869E+04 -1.45974E+04  1.09912E+04 -1.62185E+04 -1.98179E+03
 -1.26490E+04 -1.31347E+04 -1.94081E+03 -1.50638E+04  8.42843E+03 -1.19262E+04  9.64988E+03 -4.45650E+03
  5.96881E+03  2.67083E+03 -1.70029E+03  2.50693E+03 -1.50832E+03 -4.28305E+03  3.87707E+03 -9.65978E+03
  1.52000E+04 -6.41588E+03  2.13546E+04  1.78928E+03  2.02904E+04  1.45035E+04  1.26623E+04  2.75363E+04
 -7.01990E+03  3.07812E+04 -2.50864E+04  2.26191E+04 -3.33187E+04  3.97439E+03 -2.71741E+04 -1.18097E+04
 -1.32539E+04 -2.15367E+04 -3.52169E+02 -1.89058E+04  6.21611E+03 -1.09025E+04  6.84839E+03 -6.52990E+03
  4.71592E+03 -4.00902E+03  4.59709E+03 -4.49183E+03  6.69944E+03 -4.32539E+03  1.01833E+04 -1.96285E+03
  1.39864E+04  3.45810E+03  8.03013E+03  1.20065E+04 -2.30543E+03  1.50824E+04 -1.47156E+04  1.16064E+04
 -1.86782E+04 -1.80595E+03 -1.29943E+04 -1.35766E+04 -2.17084E+03 -2.06662E+04  1.14744E+04 -2.09157E+04
  2.20117E+04 -1.14505E+04  2.53876E+04  3.96020E+03  1.71868E+04  1.86442E+04  2.58940E+03  2.34433E+04
 -1.00863E+04  1.82400E+04 -1.33579E+04  6.46919E+03 -9.86667E+03 -2.60458E+03 -4.33102E+03 -2.65517E+03
 -1.72016E+03 -8.09010E+02 -2.91294E+03  4.13874E+03 -7.85850E+03  3.99917E+03 -1.32228E+04 -2.04250E+03
 -1.02573E+04 -1.22768E+04 -1.24990E+03 -1.94692E+04  1.19127E+04 -1.81871E+04  2.03424E+04 -5.78816E+03
  1.97648E+04  9.37779E+03  8.97183E+03  1.87828E+04 -4.24560E+03  1.99647E+04 -1.47904E+04  1.24695E+04
 -1.91754E+04  3.75709E+02 -1.41821E+04 -1.20313E+04 -1.59010E+03 -1.68705E+04  8.90415E+03 -1.24650E+04
  1.24690E+04 -3.90333E+03  8.94844E+03  3.45837E+03  3.03234E+03  5.90913E+03  1.45966E+03  3.35118E+03
  3.20478E+03  1.24926E+03  4.83532E+03  2.59738E+03  6.44324E+03  6.32081E+03  5.22406E+03  1.08695E+04
 -3.32886E+03  1.65784E+04 -1.46852E+04  1.56079E+04 -2.16782E+04  4.22790E+03 -2.16109E+04 -9.24180E+03
 -1.04349E+04 -2.10601E+04  2.91210E+03 -2.31933E+04  1.30779E+04 -1.46396E+04  1.72562E+04 -3.60417E+03
  1.30087E+04  6.97163E+03  3.12529E+03  1.19891E+04 -6.23636E+03  7.93153E+03 -9.11012E+03 -1.11425E+03
 -4.64245E+03 -8.75813E+03  5.00885E+03 -9.72023E+03  8.84591E+03 -4.32680E+03  9.16262E+03  2.29968E+03
  4.70945E+03  4.94742E+03  1.66840E+03  3.74876E+03 -1.00246E+03  2.94887E+03  2.06373E+03 -5.29493E+02
  3.76912E+03 -1.36940E+03  8.55964E+03  3.33624E+03  5.66931E+03  1.07396E+04 -1.92154E+03  1.48037E+04
 -1.02377E+04  1.02247E+04 -1.37668E+04  2.86156E+03 -1.19494E+04 -5.08466E+03 -4.90283E+03 -8.49591E+03
  1.01048E+03 -8.67131E+03  5.58390E+03 -3.64204E+03  4.45828E+03  3.52948E+03 -1.91961E+03  6.75166E+03
 -9.23455E+03  3.95852E+03 -1.02143E+04 -4.27831E+03 -6.06780E+03 -1.21303E+04  2.00565E+03 -1.24890E+04
  7.53096E+03 -7.48814E+03  9.15423E+03 -1.55500E+03  7.01064E+03  3.59671E+03  5.75023E+02  6.21328E+03
 -4.58523E+03  2.34433E+03 -5.05578E+03 -4.40971E+03  2.03742E+03 -9.78829E+03  1.09313E+04 -7.45382E+03
  1.47186E+04  1.02446E+03  1.28741E+04  1.00872E+04  4.01513E+03  1.49209E+04 -5.25009E+03  1.33227E+04
 -1.26296E+04  6.25549E+03 -1.23595E+04 -1.77851E+03 -6.90631E+03 -9.78822E+03  1.92086E+03 -9.08644E+03
  8.66438E+03 -4.36162E+03  8.23475E+03  4.09325E+03  2.82175E+03  8.22178E+03 -1.88465E+03  7.14755E+03
 -3.85727E+03  4.50162E+03 -3.55383E+03  1.95547E+03 -1.94291E+03  1.26698E+03 -2.10953E+03  2.90241E+03
 -3.89285E+03  5.44272E+03 -1.01258E+04  5.45847E+03 -1.50312E+04  5.29187E+01 -1.62984E+04 -1.00823E+04
 -9.01153E+03 -1.97958E+04  3.41678E+03 -2.30312E+04  1.44657E+04 -1.73188E+04  2.11909E+04 -7.21339E+03
  2.00273E+04  4.18476E+03  1.30614E+04  1.41421E+04  1.42116E+03  1.58799E+04 -5.79729E+03  1.22480E+04
 -8.56907E+03  3.99560E+03 -5.54428E+03 -2.36139E+03 -1.58711E+03 -1.82751E+03 -4.00784E+02 -1.47443E+02
 -2.71351E+03  7.23559E+02 -3.32331E+03 -1.00121E+03 -1.41358E+03 -3.34065E+03  7.97020E+02 -6.05619E+03
  6.69060E+03 -4.99377E+03  1.01050E+04 -1.95160E+02  1.11078E+04  8.95865E+03  3.36721E+03  1.63602E+04
 -7.71896E+03  1.80264E+04 -1.73732E+04  1.07001E+04 -1.98257E+04 -9.74575E+02 -1.48050E+04 -1.21748E+04
 -5.91955E+03 -1.67836E+04  4.31590E+03 -1.54023E+04  1.10538E+04 -8.66431E+03  1.08133E+04  1.83262E+02
  5.84867E+03  4.91173E+03 -9.86862E+02  4.62226E+03 -3.09161E+03 -4.69671E+02 -2.13901E+02 -3.75414E+03
  4.90024E+03 -2.66322E+03  7.63296E+03  2.26711E+03  4.42683E+03  6.73698E+03 -4.06680E+02  8.35893E+03
 -7.09583E+03  7.46652E+03 -1.10862E+04  1.04632E+03 -1.02337E+04 -8.46702E+03 -2.35893E+03 -1.36758E+04
  8.37327E+03 -1.17326E+04  1.32238E+04 -3.82033E+03  1.28640E+04  3.87471E+03  7.59264E+03  1.03846E+04
  1.29132E+03  1.14152E+04 -4.79583E+03  8.93771E+03 -6.89634E+03  4.89502E+03 -5.91668E+03  6.48073E+02
 -3.04618E+03  2.81708E+02 -3.48551E+03  1.64043E+03 -6.20536E+03  1.63715E+03 -8.57561E+03 -1.33685E+03
 -8.10450E+03 -6.56816E+03 -1.93781E+03 -1.14913E+04  5.40303E+03 -1.11687E+04  1.00283E+04 -5.82623E+03
  1.08278E+04  1.83299E+03  6.59519E+03  7.91380E+03 -1.02641E+03  1.20526E+04 -9.52549E+03  7.62826E+03
