 $NMID ID='MM_0lb_SNR800_13hz_g60_34.RAW', FMTDAT='(8E13.5)'
 TRAMP=1., VOLUME=1. $END
  3.10362E+05  5.37763E+02  3.38030E+05  2.50809E+05  8.47957E+04  3.38487E+05 -1.32864E+05  2.51781E+05
 -1.90709E+05  8.36386E+04 -1.12025E+05 -3.26885E+04  5.68838E+02 -5.04951E+04  5.40824E+04 -3.32261E+02
  3.54993E+04  5.29304E+04 -1.67623E+04  7.60132E+04 -6.08476E+04  6.39090E+04 -8.46653E+04  3.21875E+04
 -8.15947E+04 -1.17275E+04 -5.77693E+04 -5.19991E+04 -1.52162E+04 -7.03910E+04  2.81966E+04 -4.65244E+04
  4.04114E+04  3.44407E+03  1.67008E+04  4.84568E+04 -3.46578E+04  4.79055E+04 -6.71851E+04 -2.02341E+02
 -5.43891E+04 -5.73684E+04 -7.16075E+03 -7.76448E+04  3.41553E+04 -5.57716E+04  4.94022E+04 -1.78191E+04
  4.44652E+04  1.11485E+04  3.25600E+04  2.62822E+04  1.57803E+04  3.00782E+04 -5.60707E+03  2.75016E+04
 -2.24749E+04  1.21183E+04 -1.81822E+04 -5.22626E+03  6.36924E+03 -7.44641E+03  2.29669E+04  1.30829E+04
  7.33333E+03  3.67116E+04 -3.29047E+04  3.63933E+04 -6.50738E+04  2.01762E+03 -5.80340E+04 -4.35656E+04
 -1.25967E+04 -6.44590E+04  4.07155E+04 -4.68020E+04  6.01202E+04 -2.16895E+03  3.57998E+04  3.32595E+04
 -5.88242E+03  3.77082E+04 -3.11726E+04  1.75559E+04 -3.17627E+04 -3.98063E+03 -1.83149E+04 -1.14949E+04
 -8.90745E+03 -1.39525E+04 -6.71976E+02 -1.88658E+04  8.07473E+03 -2.30826E+04  1.56221E+04 -1.28015E+04
  1.08140E+04  6.01295E+03 -9.59938E+03  1.27004E+04 -2.24746E+04 -5.72332E+03 -8.59730E+03 -3.59254E+04
  2.39778E+04 -4.52904E+04  5.02871E+04 -2.00089E+04  4.72422E+04  2.03358E+04  1.64976E+04  4.56967E+04
 -1.65622E+04  3.49857E+04 -2.64701E+04  2.23657E+03 -1.06965E+04 -2.87788E+04  2.13485E+04 -3.53425E+04
  4.29167E+04 -1.00792E+04  3.83639E+04  2.43289E+04  1.98132E+04  4.86111E+04 -8.56536E+03  5.31830E+04
 -3.34560E+04  3.64789E+04 -4.48512E+04  1.03299E+04 -4.50943E+04 -1.78270E+04 -2.46956E+04 -3.98736E+04
  7.69918E+03 -3.98536E+04  3.27738E+04 -1.59070E+04  3.06346E+04  1.10900E+04  4.41968E+03  1.97539E+04
 -1.38931E+04  8.98785E+03 -1.06437E+04 -7.52592E+03  5.85659E+03 -1.10579E+04  1.85708E+04  6.08732E+03
  1.41191E+04  2.24859E+04 -5.32757E+03  2.60799E+04 -2.31832E+04  1.29769E+04 -2.96821E+04 -4.13047E+03
 -2.27299E+04 -1.83063E+04 -9.81426E+03 -2.24539E+04  4.14360E+03 -2.27044E+04  1.78688E+04 -2.05366E+04
  2.87777E+04 -1.36333E+04  3.49717E+04  4.00245E+03  2.55509E+04  2.21204E+04  4.40330E+03  3.89133E+04
 -1.87934E+04  3.17917E+04 -2.93212E+04  1.12624E+04 -2.15846E+04 -1.00992E+04 -4.65177E+03 -1.35479E+04
  1.17846E+03 -2.03752E+03 -6.24816E+03  7.23977E+03 -1.82702E+04  4.94069E+03 -1.78823E+04 -8.18979E+03
 -1.08643E+04 -2.08075E+04  5.52834E+03 -2.54680E+04  1.69202E+04 -1.81654E+04  1.99099E+04 -1.69876E+03
  1.29678E+04  1.46415E+04 -9.34143E+02  2.06576E+04 -1.45113E+04  1.16101E+04 -2.10327E+04 -4.36933E+03
 -1.56872E+04 -1.89171E+04 -2.00248E+03 -2.52822E+04  1.12830E+04 -2.08845E+04  2.09810E+04 -1.04632E+04
  1.96963E+04  2.98558E+02  1.41084E+04  5.04993E+03  7.58687E+03  1.04746E+03  1.06830E+04 -1.53248E+03
  1.94332E+04  3.01168E+03  2.17540E+04  1.66455E+04  1.46531E+04  3.33758E+04 -2.99288E+03  3.85419E+04
 -2.23635E+04  3.18351E+04 -3.57490E+04  1.60450E+04 -3.80952E+04 -2.43701E+03 -3.13707E+04 -2.21822E+04
 -1.30178E+04 -3.17796E+04  1.11098E+04 -2.81490E+04  2.39933E+04 -1.36713E+04  2.16245E+04  6.50700E+03
  7.55955E+03  1.60264E+04 -1.02817E+04  1.36924E+04 -1.79559E+04  2.54946E+03 -1.36635E+04 -1.12961E+04
 -4.43895E+02 -1.69205E+04  9.35584E+03 -1.29811E+04  1.13241E+04 -1.14496E+03  2.28693E+03  7.54729E+03
 -7.65784E+03  3.47050E+03 -7.39905E+03 -6.16213E+03 -7.75879E+02 -1.54009E+04  1.04021E+04 -1.64205E+04
  1.86139E+04 -9.01239E+03  2.15095E+04  3.03298E+03  1.87898E+04  1.52648E+04  8.52124E+03  2.35306E+04
 -4.14443E+03  2.59999E+04 -1.65345E+04  1.61478E+04 -1.83237E+04  3.32032E+03 -1.26123E+04 -4.70802E+03
 -5.91971E+03 -5.62390E+03 -6.20219E+02  5.53377E+02 -2.28875E+03  2.91710E+03 -5.67762E+03  4.81441E+03
 -1.19224E+04 -7.55117E+02 -1.27845E+04 -9.96546E+03 -5.17405E+03 -1.68085E+04  5.26543E+03 -1.31155E+04
  1.10198E+04 -5.29649E+03  7.85427E+03  3.31986E+03 -1.92394E+02  5.17957E+03 -6.43247E+03 -1.77674E+02
 -5.92849E+03 -8.30198E+03 -7.20200E+02 -1.24513E+04  6.99618E+03 -1.33137E+04  1.60910E+04 -6.85944E+03
  1.90695E+04  1.84079E+03  1.41082E+04  1.09569E+04  2.80220E+03  1.48890E+04 -8.13514E+03  1.27920E+04
 -1.01978E+04  3.86227E+03 -5.53812E+03 -2.48919E+03  1.80472E+03 -3.13617E+03  6.89720E+03 -6.00750E+02
  5.94834E+03  5.97603E+03  1.09116E+03  1.03612E+04 -7.56778E+03  9.87345E+03 -1.27559E+04  2.44672E+03
 -8.57755E+03 -6.16881E+03  5.20013E+02 -1.10859E+04  6.78345E+03 -5.36941E+03  7.14359E+03  2.91030E+03
  1.41898E+03  7.28587E+03 -6.53755E+03  8.90859E+03 -1.02964E+04  3.95547E+03 -9.78324E+03 -3.63378E+03
 -6.18756E+03 -1.19411E+04  2.84956E+03 -1.36911E+04  1.14067E+04 -8.29489E+03  1.24874E+04  1.98627E+03
  7.89079E+03  1.03295E+04 -7.98092E+02  1.22543E+04 -9.25625E+03  6.63795E+03 -9.76160E+03 -9.94368E+02
 -8.59558E+03 -8.30642E+03 -1.71282E+03 -9.20839E+03  4.89239E+03 -7.55353E+03  5.61682E+03 -3.45742E+03
  4.08167E+03  1.50354E+03 -4.54618E+02  1.73007E+03 -2.01176E+01 -1.86019E+03  1.59989E+03 -4.97144E+03
  8.03826E+03 -3.20180E+03  1.18773E+04  1.44012E+03  1.15477E+04  7.61849E+03  8.22288E+03  1.52394E+04
 -3.26827E+03  1.75776E+04 -1.48455E+04  1.29071E+04 -1.91421E+04  2.78789E+03 -1.54032E+04 -6.09867E+03
 -7.65833E+03 -1.23373E+04 -5.95251E+02 -1.04176E+04  3.55923E+03 -5.98654E+03  3.34903E+03 -4.14621E+03
  2.48596E+03 -2.56115E+03  3.26466E+03 -3.44036E+03  4.99069E+03 -2.87144E+03  6.18211E+03 -9.37541E+02
  8.06862E+03  2.01210E+03  3.71180E+03  6.61914E+03 -1.67275E+03  7.42586E+03 -8.10251E+03  6.23909E+03
 -1.05878E+04 -1.27833E+03 -6.14447E+03 -7.09943E+03 -5.33903E+02 -1.09896E+04  6.08281E+03 -1.13253E+04
  1.13207E+04 -6.20452E+03  1.39380E+04  1.67163E+03  9.51380E+03  9.73730E+03  1.74399E+03  1.23951E+04
 -4.99576E+03  1.03633E+04 -7.10552E+03  3.31117E+03 -4.78175E+03 -1.13005E+03 -1.90120E+03 -1.36205E+03
 -8.82018E+02  1.79509E+02 -1.56126E+03  2.73596E+03 -4.41699E+03  2.00506E+03 -7.53346E+03 -7.39200E+02
 -4.68285E+03 -7.00149E+03  1.27304E+02 -1.00293E+04  6.04743E+03 -9.03012E+03  9.35287E+03 -2.59266E+03
  9.73468E+03  5.03253E+03  4.15228E+03  8.26691E+03 -2.01034E+03  9.75087E+03 -6.95225E+03  6.16081E+03
 -9.30113E+03  5.23420E+02 -7.06786E+03 -5.63646E+03 -9.63135E+02 -8.02185E+03  3.77417E+03 -6.30644E+03
  6.12951E+03 -2.14088E+03  4.18986E+03  1.28181E+03  1.55734E+03  3.30902E+03  9.79651E+02  1.18495E+03
  2.18590E+03  8.10475E+02  2.72746E+03  1.36038E+03  2.75981E+03  3.80783E+03  2.59324E+03  5.11132E+03
 -1.97265E+03  7.29521E+03 -6.44686E+03  8.18649E+03 -9.57514E+03  2.22293E+03 -1.02212E+04 -3.62615E+03
 -4.85903E+03 -9.70233E+03  1.55561E+03 -1.09012E+04  5.60192E+03 -6.50727E+03  7.71111E+03 -1.98318E+03
  6.12915E+03  3.50635E+03  1.33919E+03  5.38092E+03 -2.34983E+03  3.45353E+03 -3.53641E+03 -5.92574E+02
 -1.87371E+03 -4.20737E+03  2.28897E+03 -4.10022E+03  3.65026E+03 -2.05279E+03  3.76037E+03  9.12282E+02
  2.31581E+03  1.60487E+03  1.17051E+03  1.00702E+03 -6.81539E+02  1.39824E+03  1.77514E+03 -2.54620E+02
  1.10406E+03 -4.49484E+02  3.45693E+03  1.36986E+03  1.98675E+03  5.15060E+03 -9.87204E+02  6.61209E+03
 -4.59152E+03  4.09060E+03 -5.54674E+03  8.82791E+02 -5.24094E+03 -1.93195E+03 -1.72205E+03 -3.28321E+03
  3.85914E+02 -3.57950E+03  2.58383E+03 -1.96326E+03  1.89300E+03  1.99528E+03 -1.10546E+03  3.04789E+03
 -3.71281E+03  2.01155E+03 -3.93777E+03 -2.29724E+03 -2.18985E+03 -4.77929E+03  8.75342E+02 -4.92407E+03
  2.59447E+03 -2.76822E+03  2.98123E+03  9.87179E+01  3.12118E+03  1.03194E+03  5.89169E+02  2.94391E+03
 -1.28446E+03  6.48530E+02 -1.95239E+03 -1.76058E+03  7.56681E+02 -3.60790E+03  4.34663E+03 -3.06762E+03
  5.29476E+03  5.31837E+02  5.87326E+03  3.68515E+03  1.83898E+03  5.32535E+03 -1.54113E+03  5.18690E+03
 -4.30475E+03  2.52907E+03 -4.72482E+03 -4.84900E+02 -2.52068E+03 -3.66701E+03  8.23793E+02 -3.03309E+03
  3.90401E+03 -1.75190E+03  2.82840E+03  1.70922E+03  9.94322E+02  3.36087E+03 -1.57041E+02  2.83251E+03
 -1.45919E+03  2.02907E+03 -1.18146E+03  5.62595E+02 -5.46439E+02  2.70717E+02 -1.40510E+03  1.22420E+03
 -1.29491E+03  2.49310E+03 -4.01017E+03  1.49364E+03 -5.55546E+03  8.77302E+01 -6.34221E+03 -3.65418E+03
 -3.26328E+03 -6.90194E+03  1.22966E+03 -8.29455E+03  4.39016E+03 -6.71273E+03  7.18335E+03 -2.13529E+03
  7.17024E+03  1.16746E+03  4.63283E+03  4.99242E+03 -1.85253E+02  5.30968E+03 -2.42006E+03  3.85040E+03
 -3.25742E+03  1.71466E+03 -1.30454E+03 -5.52231E+02 -8.05606E+02 -2.77675E+02 -6.32774E+02  1.53518E+01
 -1.55046E+03  9.66297E+01 -1.74484E+03 -1.92021E+02 -9.18358E+01 -1.20201E+03 -3.68698E+02 -1.83276E+03
  2.42342E+03 -1.50905E+03  2.65618E+03  6.61744E+01  3.47846E+03  2.58852E+03  2.42848E+02  5.12533E+03
 -2.47872E+03  6.38323E+03 -5.41840E+03  3.72131E+03 -6.11551E+03 -3.38765E+02 -4.61799E+03 -3.86945E+03
 -2.15211E+03 -5.04558E+03  1.49681E+03 -4.73505E+03  3.18610E+03 -2.49589E+03  3.28280E+03  3.03577E+02
  1.91507E+03  1.53769E+03  2.12594E+01  1.53041E+03 -1.05169E+03  4.79826E+02 -1.19215E+02 -1.24353E+03
  1.62240E+03 -5.43396E+02  1.91618E+03  9.86873E+02  9.76389E+02  1.97274E+03  4.49674E+02  2.34848E+03
 -1.89171E+03  2.33782E+03 -2.93771E+03  4.02929E+02 -2.74109E+03 -1.90201E+03 -2.30309E+02 -4.00658E+03
  2.33011E+03 -3.26655E+03  3.52927E+03 -1.10692E+03  3.81606E+03  3.69306E+02  2.02535E+03  3.11971E+03
  3.60183E+02  2.89267E+03 -1.28904E+03  2.34037E+03 -2.33512E+03  1.56486E+03 -1.59863E+03  9.30539E+01
 -9.39053E+02 -4.52847E+01 -1.31682E+03  5.09375E+02 -1.32633E+03  4.55292E+02 -2.30427E+03 -4.53973E+02
 -2.41473E+03 -1.28592E+03 -4.72683E+02 -3.06351E+03  1.38406E+03 -3.80954E+03  2.93631E+03 -1.63429E+03
  2.77626E+03  3.14615E+02  1.28935E+03  1.94617E+03 -2.86948E+02  2.76762E+03 -2.22938E+03  1.97193E+03
