 $NMID ID='MM_0lb_SNR800_17hz_g45_100.RAW', FMTDAT='(8E13.5)'
 TRAMP=1., VOLUME=1. $END
  3.09972E+05  4.58950E+02  3.37331E+05  2.50216E+05  8.43203E+04  3.37490E+05 -1.32596E+05  2.50348E+05
 -1.89427E+05  8.26352E+04 -1.11082E+05 -3.30120E+04  1.39947E+03 -5.02451E+04  5.39286E+04 -7.82976E+01
  3.53110E+04  5.29499E+04 -1.69032E+04  7.49592E+04 -6.03715E+04  6.27943E+04 -8.32986E+04  3.17240E+04
 -8.00512E+04 -1.09298E+04 -5.66253E+04 -5.05523E+04 -1.48855E+04 -6.87440E+04  2.69386E+04 -4.50750E+04
  3.92486E+04  3.92267E+03  1.56554E+04  4.73373E+04 -3.40055E+04  4.64414E+04 -6.58256E+04 -7.27620E+02
 -5.23749E+04 -5.61379E+04 -6.28513E+03 -7.56085E+04  3.30651E+04 -5.36338E+04  4.67672E+04 -1.66146E+04
  4.20472E+04  1.13704E+04  3.09596E+04  2.45016E+04  1.58294E+04  2.83837E+04 -4.72211E+03  2.68406E+04
 -2.17037E+04  1.28289E+04 -1.89529E+04 -4.40424E+03  4.76568E+03 -7.46670E+03  2.14540E+04  1.11918E+04
  7.28812E+03  3.37029E+04 -3.10482E+04  3.44396E+04 -6.16602E+04  2.22063E+03 -5.58476E+04 -4.17424E+04
 -1.21799E+04 -6.14005E+04  3.86674E+04 -4.38007E+04  5.65230E+04 -2.30696E+03  3.24213E+04  3.09521E+04
 -6.26280E+03  3.39667E+04 -2.86663E+04  1.39507E+04 -2.80967E+04 -5.01385E+03 -1.48525E+04 -1.01511E+04
 -7.71895E+03 -1.18768E+04 -7.46962E+02 -1.69035E+04  6.77903E+03 -2.27306E+04  1.51057E+04 -1.37869E+04
  1.20833E+04  4.71923E+03 -6.73768E+03  1.30156E+04 -1.99734E+04 -3.05339E+03 -8.06047E+03 -3.12873E+04
  2.11649E+04 -4.14616E+04  4.53667E+04 -1.89976E+04  4.27927E+04  1.86029E+04  1.43796E+04  4.20138E+04
 -1.54993E+04  3.19635E+04 -2.36383E+04  1.53206E+03 -8.76262E+03 -2.67855E+04  2.07162E+04 -3.18246E+04
  3.87025E+04 -7.88550E+03  3.23549E+04  2.26407E+04  1.62769E+04  4.37775E+04 -7.91717E+03  4.64678E+04
 -2.90766E+04  3.08530E+04 -3.87020E+04  8.38274E+03 -3.94836E+04 -1.55025E+04 -2.19732E+04 -3.52250E+04
  7.26108E+03 -3.51009E+04  2.96157E+04 -1.32411E+04  2.74335E+04  1.09882E+04  3.00327E+03  1.80260E+04
 -1.31238E+04  7.81831E+03 -9.75948E+03 -7.80485E+03  5.96314E+03 -1.00483E+04  1.73266E+04  6.42098E+03
  1.24976E+04  2.18543E+04 -6.71806E+03  2.37858E+04 -2.14377E+04  9.79211E+03 -2.57677E+04 -5.73684E+03
 -1.79709E+04 -1.64819E+04 -6.27662E+03 -1.78528E+04  3.70874E+03 -1.58106E+04  1.32167E+04 -1.52972E+04
  2.26118E+04 -1.21371E+04  2.94137E+04  1.59679E+03  2.20584E+04  1.72151E+04  4.07562E+03  3.34304E+04
 -1.66086E+04  2.80655E+04 -2.63985E+04  9.49324E+03 -1.99493E+04 -1.05211E+04 -4.02871E+03 -1.38139E+04
  2.43068E+03 -3.70433E+03 -3.34313E+03  5.65731E+03 -1.37742E+04  5.15562E+03 -1.41452E+04 -5.52814E+03
 -9.11965E+03 -1.65106E+04  4.43124E+03 -2.00616E+04  1.31996E+04 -1.46591E+04  1.53453E+04 -1.62670E+03
  9.58528E+03  1.12275E+04 -6.92622E+02  1.65415E+04 -1.10535E+04  9.37705E+03 -1.63709E+04 -3.80658E+03
 -1.17568E+04 -1.49793E+04 -1.44840E+03 -1.99188E+04  8.95287E+03 -1.61656E+04  1.69655E+04 -7.72748E+03
  1.54933E+04  4.95664E+02  1.08511E+04  4.12603E+03  5.54821E+03  7.40678E+02  8.16788E+03 -1.55408E+03
  1.49138E+04  2.67315E+03  1.59920E+04  1.30863E+04  9.98751E+03  2.63592E+04 -3.11414E+03  2.85895E+04
 -1.70921E+04  2.22834E+04 -2.62752E+04  1.08040E+04 -2.71852E+04 -1.79478E+03 -2.29673E+04 -1.55395E+04
 -1.06065E+04 -2.21306E+04  7.53920E+03 -2.04959E+04  1.76414E+04 -1.14774E+04  1.66059E+04  4.10364E+03
  6.72045E+03  1.20388E+04 -7.43855E+03  1.11461E+04 -1.41650E+04  2.52701E+03 -1.10577E+04 -8.61909E+03
 -2.62645E+01 -1.32356E+04  6.59829E+03 -9.92438E+03  8.42537E+03 -1.20129E+03  1.59311E+03  5.39300E+03
 -5.92563E+03  1.75078E+03 -4.44921E+03 -4.78184E+03  2.78273E+02 -1.10830E+04  8.18932E+03 -1.11759E+04
  1.35449E+04 -5.36657E+03  1.35291E+04  2.70438E+03  1.14675E+04  1.02563E+04  5.32979E+03  1.55425E+04
 -1.95160E+03  1.74757E+04 -1.09761E+04  1.09786E+04 -1.21957E+04  3.27601E+03 -9.02541E+03 -2.43993E+03
 -4.84941E+03 -3.68330E+03 -8.82684E+02  1.20162E+03 -2.03408E+03  2.03171E+03 -3.83143E+03  3.71938E+03
 -8.79356E+03 -5.55861E+02 -9.48827E+03 -7.52307E+03 -3.80191E+03 -1.24493E+04  3.75319E+03 -9.08956E+03
  7.87161E+03 -3.78221E+03  5.83808E+03  2.29532E+03  4.40995E+02  3.15659E+03 -3.71838E+03 -6.88410E+01
 -3.65576E+03 -5.81472E+03 -8.53431E+02 -8.02931E+03  4.48602E+03 -8.80056E+03  1.09923E+04 -4.43972E+03
  1.27463E+04  1.13874E+03  9.29904E+03  7.02736E+03  1.99590E+03  9.83366E+03 -5.95675E+03  8.94629E+03
 -7.52165E+03  2.91228E+03 -4.02178E+03 -1.52326E+03  1.44453E+03 -1.93492E+03  5.10485E+03 -1.07790E+03
  4.52363E+03  3.50939E+03  1.19566E+03  7.01940E+03 -5.09639E+03  6.71213E+03 -8.66073E+03  1.90514E+03
 -5.33637E+03 -4.06137E+03  3.20250E+02 -7.45867E+03  4.33430E+03 -3.72913E+03  4.55189E+03  1.32829E+03
  4.95099E+02  3.99286E+03 -4.36363E+03  5.57319E+03 -5.78127E+03  2.64452E+03 -5.15548E+03 -1.79038E+03
 -3.31917E+03 -6.78583E+03  1.23662E+03 -8.00026E+03  6.92303E+03 -5.45436E+03  7.21207E+03  1.24349E+03
  5.30644E+03  6.02255E+03 -2.69824E-01  7.74896E+03 -5.61472E+03  4.65086E+03 -5.93093E+03 -5.89133E+02
 -6.34795E+03 -5.88879E+03 -1.39149E+03 -5.64983E+03  2.93233E+03 -5.17194E+03  3.53163E+03 -2.66698E+03
  2.94244E+03  3.59676E+02  3.48420E+02  1.35051E+03  5.14444E+02 -7.01801E+02  3.39641E+02 -2.39238E+03
  4.62043E+03 -1.38346E+03  6.23050E+03  4.79199E+02  6.37231E+03  3.68115E+03  5.84755E+03  8.27240E+03
 -1.70910E+03  9.92703E+03 -8.69242E+03  7.64640E+03 -1.15388E+04  1.55783E+03 -9.03515E+03 -3.11810E+03
 -4.52167E+03 -7.60279E+03 -4.45021E+02 -5.84849E+03  2.50400E+03 -2.95816E+03  2.18922E+03 -2.51847E+03
  1.57862E+03 -1.73804E+03  2.39132E+03 -2.58952E+03  3.46374E+03 -1.25179E+03  4.07966E+03  5.03274E+02
  5.22328E+03  1.24405E+03  1.29376E+03  3.98928E+03 -1.64841E+03  3.58266E+03 -5.18172E+03  2.98697E+03
 -5.64309E+03 -6.83960E+02 -2.51646E+03 -3.90103E+03  1.54902E+02 -6.13987E+03  3.78256E+03 -6.40505E+03
  6.19760E+03 -3.48072E+03  7.77729E+03  3.37806E+02  5.69935E+03  4.84181E+03  1.17853E+03  6.70338E+03
 -2.32738E+03  6.35326E+03 -3.88787E+03  2.19404E+03 -2.46767E+03 -1.06216E+03 -9.33206E+02 -6.95375E+02
 -7.22715E+02  4.23962E+02 -1.19580E+03  2.39198E+03 -2.91451E+03  1.40960E+03 -4.69582E+03 -2.52191E+02
 -1.88390E+03 -4.54612E+03  8.10282E+02 -5.51703E+03  3.32312E+03 -5.28210E+03  4.84784E+03 -1.27721E+03
  4.91774E+03  2.89988E+03  2.13846E+03  4.26702E+03 -9.85173E+02  5.20257E+03 -3.51120E+03  3.47555E+03
 -4.61874E+03  4.22147E+02 -4.17859E+03 -3.13082E+03 -4.85885E+01 -4.02138E+03  2.01347E+03 -2.86868E+03
  3.07362E+03 -1.45521E+03  2.07512E+03  6.26066E+02  6.58088E+02  1.95917E+03  8.25673E+02  7.81059E+02
  1.68731E+03  4.40588E+02  1.34244E+03  8.23786E+02  1.77773E+03  2.57427E+03  1.81358E+03  2.32317E+03
 -1.43215E+03  3.50789E+03 -3.18874E+03  4.91200E+03 -4.13199E+03  1.31755E+03 -4.98894E+03 -7.53995E+02
 -2.13964E+03 -4.71744E+03  1.04743E+03 -5.55348E+03  2.03993E+03 -3.15529E+03  3.66390E+03 -9.59913E+02
  3.16618E+03  1.93897E+03  6.21434E+02  2.70458E+03 -1.13610E+03  1.71337E+03 -1.27885E+03 -1.08848E+02
 -7.62931E+02 -1.96448E+03  1.30797E+03 -1.94212E+03  1.89508E+03 -1.05206E+03  1.73488E+03  1.63043E+02
  1.09515E+03  3.89879E+02  7.67635E+02 -2.92153E+02 -8.67128E+01  9.68407E+02  1.56030E+03 -4.44011E+02
  2.41800E+02 -2.13840E+02  2.30491E+03  5.46477E+02  7.56927E+02  2.62133E+03 -4.12572E+02  3.54057E+03
 -2.10018E+03  1.73197E+03 -2.79101E+03  3.96167E+02 -2.49929E+03 -6.59314E+02 -1.64120E+02 -1.31227E+03
  3.20884E+02 -1.40313E+03  1.44966E+03 -9.12641E+02  7.73635E+02  1.21112E+03 -9.99853E+02  1.31000E+03
 -1.79197E+03  8.62421E+02 -1.71090E+03 -1.47011E+03 -8.91162E+02 -2.77960E+03  4.70435E+02 -1.84589E+03
  7.98796E+02 -8.27731E+02  1.27244E+03  1.35793E+02  1.68538E+03  2.71652E+02  3.17599E+02  1.32966E+03
 -1.93225E+02  2.15647E+02 -1.21852E+03 -2.95214E+02  4.71885E+02 -1.22389E+03  2.12347E+03 -1.19466E+03
  2.26065E+03  2.60223E+02  3.13783E+03  1.27867E+03  1.37636E+03  2.23249E+03 -3.75234E+02  2.37367E+03
 -1.84074E+03  6.73159E+02 -1.76872E+03 -4.61941E+02 -9.77123E+02 -1.89130E+03  1.87869E+02 -9.76090E+02
  1.75711E+03 -8.07886E+02  1.15240E+03  8.36573E+02  3.67358E+02  1.53225E+03  1.45493E+02  1.55953E+03
 -4.76612E+02  1.36925E+03 -5.06176E+02  2.31379E+02 -2.39589E+01  4.27318E+02 -7.95537E+02  8.27392E+02
 -5.10894E+02  1.59526E+03 -2.18437E+03  7.05982E+02 -2.09111E+03  2.57584E+02 -2.74820E+03 -9.26216E+02
 -1.57532E+03 -2.94944E+03  2.69273E+02 -3.76769E+03  1.62937E+03 -3.15664E+03  3.36957E+03 -9.66255E+02
  3.12916E+03  1.85353E+02  1.68438E+03  1.76385E+03 -3.37533E+02  1.95267E+03 -7.73121E+02  1.65471E+03
 -1.32242E+03  9.66463E+02 -8.75618E+02 -2.77550E+02 -3.66979E+02  1.09440E+02 -7.69875E+02  5.85011E+01
 -1.16550E+03  2.34921E+01 -1.20566E+03 -8.33319E+01  1.12402E+02 -7.73340E+02 -3.37725E+02 -1.11476E+03
  1.76597E+03 -9.03849E+02  8.58495E+02  1.38911E+02  1.50537E+03  1.42606E+03 -3.90978E+02  1.86485E+03
 -1.35443E+03  2.67143E+03 -2.18363E+03  1.54909E+03 -2.35665E+03 -1.56424E+02 -1.86022E+03 -1.61910E+03
 -9.94379E+02 -1.91688E+03  1.33548E+02 -1.82095E+03  7.94254E+02 -7.56398E+02  9.95449E+02  5.07200E+02
  7.53079E+02  5.47700E+02 -1.89084E+02  5.52530E+02 -5.35835E+02 -9.88445E+01 -9.13810E+01 -1.46555E+02
  8.99812E+02 -1.84090E+02  7.31379E+02  4.76466E+02  1.64401E+02  5.00820E+02  7.08074E+02  4.61819E+02
 -6.66092E+02  8.40124E+02 -1.24287E+03 -3.23096E+01 -1.05538E+03 -7.81743E+02 -1.82861E+02 -1.39022E+03
  8.13336E+02 -1.04491E+03  1.15500E+03  1.68673E+02  1.19619E+03 -4.94734E+02  7.00456E+02  9.18302E+02
  3.86934E+02  7.73306E+02 -3.32004E+02  8.86059E+02 -9.74444E+02  6.47236E+02 -4.04471E+02  1.13593E+02
 -2.22728E+02  5.10431E+01 -4.13090E+02  4.35704E+02 -8.01926E+02  9.80118E+01 -1.34228E+03 -4.29742E+02
 -1.27792E+03  1.83450E+02 -4.31923E+02 -1.62313E+03  7.99653E+02 -1.69391E+03  9.24867E+02 -4.80415E+02
  1.01239E+03  1.68530E+02 -1.45470E+02  5.51746E+02  3.15951E+01  8.90776E+02 -8.65200E+02  7.94941E+02
