 $NMID ID='MM_0lb_SNR800_15hz_g45_26.RAW', FMTDAT='(8E13.5)'
 TRAMP=1., VOLUME=1. $END
  3.09887E+05  6.19360E+02  3.37376E+05  2.50482E+05  8.45345E+04  3.37763E+05 -1.32561E+05  2.50642E+05
 -1.90059E+05  8.27781E+04 -1.11537E+05 -3.26391E+04  1.12596E+03 -5.06508E+04  5.41846E+04  3.20893E+01
  3.50365E+04  5.28177E+04 -1.68355E+04  7.54483E+04 -6.04353E+04  6.30382E+04 -8.34079E+04  3.17844E+04
 -8.03264E+04 -1.14384E+04 -5.71783E+04 -5.09813E+04 -1.51096E+04 -6.90462E+04  2.72324E+04 -4.51742E+04
  3.98800E+04  4.05064E+03  1.59013E+04  4.72420E+04 -3.41379E+04  4.68403E+04 -6.63629E+04 -3.28288E+02
 -5.29799E+04 -5.62884E+04 -6.40579E+03 -7.64745E+04  3.34792E+04 -5.42899E+04  4.73123E+04 -1.69398E+04
  4.27052E+04  1.11379E+04  3.12333E+04  2.51555E+04  1.57310E+04  2.90448E+04 -4.95471E+03  2.73691E+04
 -2.16474E+04  1.25798E+04 -1.86410E+04 -4.50567E+03  5.17317E+03 -7.47613E+03  2.19762E+04  1.19404E+04
  7.47114E+03  3.47381E+04 -3.18107E+04  3.49990E+04 -6.26269E+04  2.07633E+03 -5.61593E+04 -4.23725E+04
 -1.24180E+04 -6.24005E+04  3.95567E+04 -4.45228E+04  5.73534E+04 -2.09109E+03  3.35970E+04  3.17071E+04
 -6.44804E+03  3.49923E+04 -2.93612E+04  1.52511E+04 -2.94029E+04 -4.61256E+03 -1.59998E+04 -1.06568E+04
 -7.96584E+03 -1.25010E+04 -7.06994E+02 -1.73613E+04  7.32868E+03 -2.26420E+04  1.53542E+04 -1.32668E+04
  1.16390E+04  4.59754E+03 -7.44242E+03  1.28536E+04 -2.05784E+04 -3.69806E+03 -8.22097E+03 -3.25611E+04
  2.21449E+04 -4.23526E+04  4.70131E+04 -1.91883E+04  4.40221E+04  1.90999E+04  1.52781E+04  4.33737E+04
 -1.58288E+04  3.26655E+04 -2.46110E+04  1.57538E+03 -9.24342E+03 -2.72227E+04  2.10882E+04 -3.29291E+04
  4.01945E+04 -8.58844E+03  3.42758E+04  2.34244E+04  1.71877E+04  4.53114E+04 -7.89720E+03  4.86188E+04
 -3.02686E+04  3.25493E+04 -4.05982E+04  9.25919E+03 -4.10597E+04 -1.59071E+04 -2.27651E+04 -3.67346E+04
  7.16884E+03 -3.63869E+04  3.07964E+04 -1.39195E+04  2.86530E+04  1.11056E+04  3.65259E+03  1.84120E+04
 -1.33206E+04  7.72696E+03 -1.00473E+04 -7.64804E+03  5.70350E+03 -1.05988E+04  1.76807E+04  6.20855E+03
  1.32686E+04  2.16737E+04 -6.17036E+03  2.46833E+04 -2.22099E+04  1.07546E+04 -2.72253E+04 -5.14035E+03
 -1.94724E+04 -1.69245E+04 -7.58349E+03 -1.91685E+04  3.86533E+03 -1.80484E+04  1.46132E+04 -1.70511E+04
  2.45204E+04 -1.24747E+04  3.11363E+04  2.02962E+03  2.30569E+04  1.88424E+04  4.20017E+03  3.50553E+04
 -1.73186E+04  2.96885E+04 -2.71827E+04  1.00871E+04 -2.04437E+04 -1.02424E+04 -4.17854E+03 -1.36852E+04
  2.22596E+03 -3.47824E+03 -4.26417E+03  6.37025E+03 -1.51001E+04  5.20489E+03 -1.54633E+04 -6.33796E+03
 -9.57924E+03 -1.76748E+04  4.92339E+03 -2.17579E+04  1.43430E+04 -1.55079E+04  1.71295E+04 -1.34980E+03
  1.03169E+04  1.23897E+04 -8.54771E+02  1.81249E+04 -1.21147E+04  1.01905E+04 -1.77956E+04 -4.15527E+03
 -1.32231E+04 -1.59721E+04 -1.55781E+03 -2.19425E+04  9.76425E+03 -1.77267E+04  1.82368E+04 -8.87578E+03
  1.67050E+04  2.74305E+01  1.19772E+04  4.07134E+03  6.07667E+03  7.45845E+02  8.95569E+03 -1.29656E+03
  1.63626E+04  2.46383E+03  1.80594E+04  1.43671E+04  1.12955E+04  2.84093E+04 -2.94965E+03  3.18584E+04
 -1.85439E+04  2.50726E+04 -2.95719E+04  1.25786E+04 -3.06285E+04 -2.33787E+03 -2.61005E+04 -1.74706E+04
 -1.14933E+04 -2.53657E+04  8.69100E+03 -2.29947E+04  1.99784E+04 -1.20853E+04  1.81751E+04  4.80518E+03
  7.20480E+03  1.31581E+04 -8.40803E+03  1.22011E+04 -1.52481E+04  2.64796E+03 -1.19410E+04 -9.41063E+03
 -2.08166E+01 -1.43514E+04  7.45592E+03 -1.06254E+04  9.48479E+03 -1.41781E+03  1.79745E+03  6.18363E+03
 -6.23719E+03  2.07260E+03 -5.21400E+03 -5.39899E+03  1.52504E+00 -1.23240E+04  9.03497E+03 -1.30822E+04
  1.52566E+04 -6.43910E+03  1.60072E+04  2.65312E+03  1.37903E+04  1.17554E+04  6.62386E+03  1.88222E+04
 -2.72496E+03  2.02092E+04 -1.25614E+04  1.26746E+04 -1.45511E+04  3.26333E+03 -1.05692E+04 -2.86214E+03
 -5.06011E+03 -4.36484E+03 -7.17572E+02  1.49819E+03 -2.30651E+03  2.41051E+03 -4.58475E+03  4.19299E+03
 -9.75732E+03 -4.83839E+02 -1.01721E+04 -8.53632E+03 -4.64045E+03 -1.37826E+04  4.16575E+03 -1.06998E+04
  8.56868E+03 -4.52236E+03  6.47742E+03  2.65612E+03  4.06578E+02  3.83340E+03 -4.46421E+03  5.62980E+00
 -4.33985E+03 -6.41186E+03 -8.10520E+02 -9.60345E+03  5.22381E+03 -1.02109E+04  1.23759E+04 -5.32846E+03
  1.49085E+04  1.00217E+03  1.05348E+04  8.23833E+03  2.01553E+03  1.17537E+04 -6.72396E+03  1.01257E+04
 -8.55750E+03  3.13955E+03 -4.49859E+03 -1.98573E+03  1.39872E+03 -2.63274E+03  5.80787E+03 -1.11701E+03
  5.22947E+03  4.08577E+03  1.09692E+03  7.95479E+03 -5.55468E+03  7.79535E+03 -9.82488E+03  1.90430E+03
 -6.27203E+03 -5.26531E+03  4.30638E+02 -8.63628E+03  5.01732E+03 -3.93685E+03  5.22076E+03  1.38746E+03
  7.75485E+02  5.38480E+03 -5.51141E+03  6.36067E+03 -7.17058E+03  3.14362E+03 -7.38387E+03 -2.35107E+03
 -4.51173E+03 -8.35831E+03  1.97150E+03 -9.90915E+03  8.60110E+03 -6.25512E+03  9.10056E+03  1.29155E+03
  6.08106E+03  7.47432E+03 -7.78163E+01  9.45582E+03 -6.64764E+03  5.23649E+03 -7.08533E+03 -6.69913E+02
 -7.03582E+03 -6.69239E+03 -1.12628E+03 -6.98705E+03  3.47762E+03 -5.92630E+03  4.26007E+03 -2.66573E+03
  3.26215E+03  7.70141E+02 -3.38193E+02  1.30725E+03  4.13081E+02 -1.19425E+03  7.03154E+02 -3.26134E+03
  5.94107E+03 -1.81058E+03  8.03850E+03  9.56392E+02  8.15476E+03  5.03399E+03  6.92804E+03  1.06439E+04
 -2.18935E+03  1.24085E+04 -1.09930E+04  9.18948E+03 -1.38309E+04  1.71554E+03 -1.10670E+04 -4.17367E+03
 -5.70709E+03 -9.25453E+03 -4.90757E+02 -7.55133E+03  2.78124E+03 -3.49099E+03  2.63828E+03 -2.75637E+03
  2.12525E+03 -1.79406E+03  2.61072E+03 -2.91457E+03  4.22116E+03 -1.82314E+03  4.77534E+03  5.83968E+01
  6.01016E+03  1.52837E+03  2.46847E+03  4.97155E+03 -1.86196E+03  4.64043E+03 -5.94768E+03  4.08866E+03
 -7.43030E+03 -1.01666E+03 -3.79397E+03 -5.06160E+03 -6.91434E+01 -7.94549E+03  4.52878E+03 -7.75693E+03
  8.05430E+03 -4.79578E+03  9.64929E+03  9.45649E+02  7.21933E+03  6.53182E+03  1.30510E+03  8.88519E+03
 -3.46040E+03  7.70999E+03 -5.15280E+03  2.74263E+03 -2.85811E+03 -1.26255E+03 -1.17876E+03 -9.95284E+02
 -8.96727E+02  2.93762E+02 -1.25919E+03  2.10490E+03 -3.25007E+03  1.40023E+03 -5.50298E+03 -7.27105E+02
 -2.77089E+03 -5.44987E+03  4.35872E+02 -7.09798E+03  4.25858E+03 -6.70057E+03  6.14939E+03 -2.04609E+03
  6.39503E+03  3.78717E+03  3.13664E+03  5.95306E+03 -1.48176E+03  7.06994E+03 -4.49667E+03  4.18433E+03
 -5.84661E+03  5.45518E+02 -4.97126E+03 -3.94644E+03 -5.63182E+02 -5.62997E+03  2.49330E+03 -4.11488E+03
  4.08480E+03 -1.84400E+03  2.90129E+03  8.40005E+02  8.66614E+02  2.19378E+03  6.65026E+02  8.71831E+02
  1.85461E+03  7.26465E+02  1.57609E+03  8.01963E+02  1.62337E+03  2.82816E+03  2.02271E+03  3.29005E+03
 -1.61009E+03  4.93826E+03 -4.27745E+03  5.77731E+03 -5.90520E+03  1.29406E+03 -7.13019E+03 -1.82438E+03
 -3.23224E+03 -6.17247E+03  1.01613E+03 -7.15526E+03  3.39443E+03 -4.04428E+03  5.19394E+03 -1.29352E+03
  4.02529E+03  2.76431E+03  7.70486E+02  3.82913E+03 -1.35981E+03  2.35550E+03 -1.96928E+03 -2.48124E+02
 -1.19966E+03 -2.29166E+03  1.65688E+03 -2.67984E+03  2.28500E+03 -1.43443E+03  2.54678E+03  4.63735E+02
  1.58595E+03  1.10370E+03  8.68732E+02  4.10978E+02 -5.16265E+02  1.52749E+03  1.58137E+03 -2.34745E+02
  6.51334E+02 -3.28857E+02  2.68666E+03  9.78322E+02  7.86607E+02  3.49589E+03 -4.39191E+02  4.42848E+03
 -2.31327E+03  2.35480E+03 -3.75186E+03  8.70708E+02 -3.58406E+03 -1.42171E+03 -9.15702E+02 -1.98101E+03
  3.48311E+02 -2.37270E+03  1.27778E+03 -8.56852E+02  1.30096E+03  1.33273E+03 -1.24529E+03  2.24094E+03
 -2.54828E+03  1.28752E+03 -2.59217E+03 -1.74444E+03 -1.51531E+03 -3.46645E+03  3.90544E+02 -2.71935E+03
  1.64360E+03 -1.39021E+03  2.11622E+03 -2.28529E+02  1.93392E+03  5.08837E+02  5.68507E+02  1.84717E+03
 -6.22525E+02  2.92643E+02 -1.68973E+03 -4.62591E+02  7.92316E+02 -1.94658E+03  3.13408E+03 -1.57570E+03
  2.88345E+03  6.53371E+02  4.28300E+03  2.04727E+03  1.63159E+03  3.72359E+03 -1.07471E+03  3.40965E+03
 -2.92287E+03  1.15507E+03 -2.74571E+03 -5.26266E+02 -1.25521E+03 -2.29314E+03  6.66248E+02 -1.58700E+03
  2.38014E+03 -1.09947E+03  1.85556E+03  1.11641E+03  6.53811E+02  2.21322E+03 -8.97290E+01  1.81140E+03
 -8.40237E+02  1.31965E+03 -9.28101E+02  3.78283E+02 -1.87437E+01  6.48908E+02 -8.94020E+02  7.92641E+02
 -9.88305E+02  1.39380E+03 -2.86889E+03  1.44392E+03 -3.32241E+03  4.02490E+02 -4.22426E+03 -2.05426E+03
 -2.02865E+03 -4.52831E+03  1.14391E+03 -5.34137E+03  2.60494E+03 -4.39862E+03  4.96047E+03 -1.83390E+03
  4.43824E+03  1.22213E+02  2.66350E+03  2.86222E+03 -1.28792E+02  3.42235E+03 -1.25344E+03  2.34925E+03
 -2.06933E+03  8.72560E+02 -1.19582E+03 -3.74649E+02 -6.21218E+02  3.15589E+02 -7.67880E+02 -1.27797E+02
 -1.36590E+03  5.94999E+01 -1.00528E+03 -5.90126E+01  2.66145E+02 -1.07656E+03 -4.36308E+02 -1.73488E+03
  1.93400E+03 -1.13046E+03  1.46541E+03  1.03659E+02  2.04597E+03  1.91141E+03  1.69008E+02  3.22588E+03
 -1.60029E+03  3.95174E+03 -3.11383E+03  2.23516E+03 -3.59862E+03 -3.71484E+02 -2.73234E+03 -2.75443E+03
 -1.56235E+03 -3.39236E+03  9.88264E+02 -2.94872E+03  1.64626E+03 -1.38082E+03  1.97889E+03  1.05701E+02
  1.36279E+03  8.90021E+02  5.68140E+01  1.19712E+03 -4.60496E+02  1.76250E+02  9.41939E+01 -6.74941E+02
  1.05939E+03 -2.66520E+02  8.07693E+02  5.14191E+02  6.56572E+02  1.20935E+03  2.61137E+02  1.22050E+03
 -1.19598E+03  1.49308E+03 -1.62910E+03  1.08040E+02 -1.51920E+03 -1.34815E+03 -3.16842E+02 -2.47837E+03
  1.06685E+03 -1.72343E+03  1.77127E+03 -3.85287E+02  2.32648E+03 -1.90684E+02  1.32184E+03  2.27166E+03
  5.86618E+02  1.44902E+03 -3.67224E+02  1.52060E+03 -1.14958E+03  1.04282E+03 -1.17542E+03 -2.79132E+01
 -3.53357E+02 -1.88259E+02 -4.30343E+02  1.75966E+02 -9.85000E+02  4.60450E+02 -1.59969E+03 -3.50161E+02
 -1.77525E+03 -5.07675E+02 -5.97469E+02 -2.17337E+03  1.24409E+03 -2.75979E+03  1.70919E+03 -6.73987E+02
  1.66258E+03  1.18042E+02  4.54171E+02  8.36565E+02 -3.97560E+00  1.95814E+03 -1.73654E+03  1.53314E+03
