 $NMID ID='MM_0lb_SNR800_16hz_g60_56.RAW', FMTDAT='(8E13.5)'
 TRAMP=1., VOLUME=1. $END
  3.09903E+05  6.44060E+02  3.37668E+05  2.50931E+05  8.48401E+04  3.37692E+05 -1.32674E+05  2.51142E+05
 -1.90337E+05  8.31042E+04 -1.11528E+05 -3.27369E+04  1.24272E+03 -5.07145E+04  5.36873E+04 -1.30577E+02
  3.51964E+04  5.29819E+04 -1.66186E+04  7.54069E+04 -6.05577E+04  6.37595E+04 -8.42369E+04  3.20172E+04
 -8.10012E+04 -1.15105E+04 -5.73749E+04 -5.14166E+04 -1.51507E+04 -6.95561E+04  2.74280E+04 -4.56816E+04
  4.02048E+04  3.79378E+03  1.62419E+04  4.78004E+04 -3.44583E+04  4.72428E+04 -6.70667E+04 -2.80420E+02
 -5.37639E+04 -5.68251E+04 -6.91149E+03 -7.74274E+04  3.38937E+04 -5.52553E+04  4.79978E+04 -1.74503E+04
  4.35077E+04  1.09112E+04  3.18126E+04  2.59229E+04  1.61097E+04  2.94620E+04 -5.43389E+03  2.72909E+04
 -2.20152E+04  1.24816E+04 -1.85328E+04 -5.13429E+03  5.84876E+03 -7.50825E+03  2.25302E+04  1.23476E+04
  7.39161E+03  3.55667E+04 -3.22007E+04  3.55424E+04 -6.36221E+04  2.20375E+03 -5.69550E+04 -4.25102E+04
 -1.21377E+04 -6.34268E+04  3.97070E+04 -4.53298E+04  5.82879E+04 -2.09880E+03  3.45012E+04  3.24869E+04
 -6.15183E+03  3.60715E+04 -3.02184E+04  1.58733E+04 -3.03441E+04 -4.65284E+03 -1.67671E+04 -1.09309E+04
 -8.69718E+03 -1.29800E+04 -8.38431E+02 -1.81585E+04  7.61080E+03 -2.31393E+04  1.56241E+04 -1.31120E+04
  1.13750E+04  5.24921E+03 -8.16123E+03  1.27359E+04 -2.14108E+04 -4.61450E+03 -8.51109E+03 -3.39220E+04
  2.26444E+04 -4.36737E+04  4.84859E+04 -1.94279E+04  4.50627E+04  1.94125E+04  1.58422E+04  4.43738E+04
 -1.59801E+04  3.36604E+04 -2.54856E+04  1.87513E+03 -9.72831E+03 -2.77758E+04  2.11790E+04 -3.39164E+04
  4.07084E+04 -9.17925E+03  3.58179E+04  2.36189E+04  1.83897E+04  4.65166E+04 -7.85189E+03  5.03024E+04
 -3.14859E+04  3.37904E+04 -4.20300E+04  9.64792E+03 -4.22504E+04 -1.68854E+04 -2.31745E+04 -3.82629E+04
  7.15803E+03 -3.75044E+04  3.13923E+04 -1.49436E+04  2.91323E+04  1.07178E+04  3.93168E+03  1.90583E+04
 -1.33831E+04  8.19118E+03 -1.05134E+04 -7.90854E+03  6.01261E+03 -1.05965E+04  1.78784E+04  6.49010E+03
  1.34567E+04  2.21219E+04 -6.00636E+03  2.49321E+04 -2.23078E+04  1.14215E+04 -2.78289E+04 -5.23658E+03
 -2.05936E+04 -1.72713E+04 -8.51125E+03 -2.04815E+04  4.07996E+03 -1.92984E+04  1.55428E+04 -1.80680E+04
  2.58762E+04 -1.29154E+04  3.23032E+04  2.99037E+03  2.38160E+04  1.97115E+04  4.16245E+03  3.60672E+04
 -1.80301E+04  3.03075E+04 -2.77855E+04  1.03769E+04 -2.05579E+04 -1.00106E+04 -4.33031E+03 -1.32956E+04
  1.66141E+03 -2.88014E+03 -4.77042E+03  6.73012E+03 -1.57619E+04  5.02683E+03 -1.59415E+04 -6.59890E+03
 -9.79938E+03 -1.86970E+04  5.06245E+03 -2.28075E+04  1.49069E+04 -1.65266E+04  1.78717E+04 -1.42675E+03
  1.11013E+04  1.28419E+04 -1.16793E+03  1.87510E+04 -1.29103E+04  1.09087E+04 -1.85782E+04 -3.93294E+03
 -1.35954E+04 -1.69110E+04 -1.52689E+03 -2.26042E+04  1.03622E+04 -1.85756E+04  1.88253E+04 -9.33011E+03
  1.75721E+04 -1.10659E+02  1.26203E+04  4.25737E+03  6.86767E+03  9.93474E+02  9.29246E+03 -1.60114E+03
  1.70787E+04  2.85608E+03  1.87760E+04  1.49441E+04  1.23873E+04  2.98477E+04 -2.96512E+03  3.31270E+04
 -1.92903E+04  2.66520E+04 -3.09406E+04  1.30921E+04 -3.21436E+04 -2.34903E+03 -2.66426E+04 -1.85983E+04
 -1.19762E+04 -2.66258E+04  9.00311E+03 -2.43409E+04  2.06648E+04 -1.26761E+04  1.85804E+04  4.90973E+03
  7.08394E+03  1.37849E+04 -9.08309E+03  1.23962E+04 -1.59034E+04  2.72340E+03 -1.21331E+04 -9.75735E+03
 -2.60173E+02 -1.46327E+04  7.70371E+03 -1.10489E+04  1.00156E+04 -1.06959E+03  1.82794E+03  6.23282E+03
 -6.58742E+03  2.31783E+03 -5.74601E+03 -5.27851E+03 -4.47256E+02 -1.27589E+04  9.37411E+03 -1.35381E+04
  1.59067E+04 -6.86950E+03  1.70147E+04  2.98433E+03  1.45448E+04  1.27302E+04  7.13743E+03  1.94596E+04
 -2.98917E+03  2.11420E+04 -1.31169E+04  1.32367E+04 -1.51529E+04  3.57163E+03 -1.10381E+04 -3.27225E+03
 -5.38288E+03 -4.63515E+03 -1.03243E+03  7.01571E+02 -1.96532E+03  2.62175E+03 -4.78851E+03  4.14682E+03
 -1.00846E+04 -4.74431E+02 -1.10154E+04 -8.34752E+03 -4.14193E+03 -1.39447E+04  4.46944E+03 -1.08115E+04
  9.25098E+03 -4.50912E+03  6.53053E+03  2.80952E+03  4.24934E+02  3.85625E+03 -5.03280E+03  4.50552E+01
 -4.74366E+03 -6.79600E+03 -7.04036E+02 -9.95062E+03  5.45766E+03 -1.04654E+04  1.30835E+04 -5.56404E+03
  1.52133E+04  1.17356E+03  1.13394E+04  8.84507E+03  2.20953E+03  1.19719E+04 -6.40048E+03  1.04721E+04
 -8.40057E+03  3.00172E+03 -4.70732E+03 -1.75104E+03  1.65437E+03 -2.89415E+03  5.85570E+03 -9.20460E+02
  5.06606E+03  4.64891E+03  9.18241E+02  8.40929E+03 -5.96287E+03  8.02950E+03 -1.01125E+04  2.31746E+03
 -6.46932E+03 -4.88348E+03  3.41817E+02 -8.65293E+03  5.33189E+03 -4.37857E+03  4.93862E+03  1.60604E+03
  1.03948E+03  5.36706E+03 -5.46710E+03  6.86004E+03 -7.22798E+03  2.98470E+03 -7.25931E+03 -2.21278E+03
 -4.43475E+03 -8.90822E+03  1.99141E+03 -9.88187E+03  8.54482E+03 -6.51172E+03  9.35729E+03  1.60282E+03
  6.05570E+03  7.30293E+03 -1.95163E+02  9.55455E+03 -6.89842E+03  5.66283E+03 -7.43992E+03 -9.12062E+02
 -6.85546E+03 -6.60875E+03 -1.71727E+03 -7.05809E+03  3.66938E+03 -6.36768E+03  4.21508E+03 -3.06397E+03
  3.42282E+03  6.24379E+02  3.82954E+00  1.49231E+03  1.19688E+02 -1.18708E+03  5.84378E+02 -3.45100E+03
  5.88823E+03 -1.70538E+03  8.18302E+03  1.17814E+03  8.18521E+03  5.30977E+03  6.59050E+03  1.04817E+04
 -2.11413E+03  1.25207E+04 -1.09172E+04  9.54280E+03 -1.41860E+04  1.64141E+03 -1.15318E+04 -4.29187E+03
 -6.05895E+03 -9.07934E+03 -4.77098E+02 -7.60400E+03  2.88248E+03 -3.63365E+03  2.63742E+03 -2.84210E+03
  1.97367E+03 -1.85711E+03  2.62865E+03 -2.68864E+03  3.89138E+03 -1.84830E+03  4.67110E+03 -3.37619E+02
  6.16422E+03  1.64777E+03  1.98944E+03  4.91254E+03 -1.64447E+03  4.77307E+03 -6.21061E+03  4.16852E+03
 -6.98891E+03 -1.00539E+03 -3.76736E+03 -4.95386E+03 -1.74736E+01 -7.64708E+03  4.55282E+03 -7.95057E+03
  8.06837E+03 -4.86060E+03  9.88013E+03  8.75217E+02  6.74471E+03  6.61608E+03  1.28483E+03  8.62893E+03
 -3.31430E+03  7.63112E+03 -4.72029E+03  2.69382E+03 -3.02992E+03 -1.02549E+03 -9.64362E+02 -7.85588E+02
 -6.78777E+02  6.64935E+02 -1.06810E+03  2.15162E+03 -3.25277E+03  1.01929E+03 -5.57146E+03 -6.56160E+02
 -2.85245E+03 -5.56098E+03  4.63362E+02 -6.78060E+03  4.33824E+03 -6.20990E+03  6.00690E+03 -1.86224E+03
  6.11453E+03  3.53702E+03  2.67910E+03  5.56967E+03 -8.28174E+02  6.75225E+03 -4.32223E+03  4.21901E+03
 -6.11521E+03  7.12221E+02 -4.75548E+03 -3.91612E+03 -5.59515E+02 -5.15461E+03  2.35120E+03 -4.08954E+03
  4.10277E+03 -1.85648E+03  2.87759E+03  1.03184E+03  6.71742E+02  2.39499E+03  6.49625E+02  7.88692E+02
  1.91029E+03  5.61706E+02  1.46050E+03  1.61883E+03  1.62509E+03  2.92803E+03  1.77697E+03  2.89840E+03
 -1.61593E+03  4.99179E+03 -4.15807E+03  5.88470E+03 -5.75532E+03  1.56230E+03 -6.29446E+03 -1.48847E+03
 -2.86256E+03 -5.86464E+03  1.27552E+03 -7.13433E+03  3.28471E+03 -3.76866E+03  5.19554E+03 -1.32137E+03
  3.71635E+03  2.50870E+03  8.57792E+02  3.51466E+03 -1.30508E+03  2.04154E+03 -1.90770E+03 -3.05621E+02
 -1.07298E+03 -2.20225E+03  1.68638E+03 -2.73359E+03  1.91245E+03 -1.58869E+03  2.25204E+03  8.07320E+02
  1.21319E+03  8.90569E+02  1.11072E+03  5.43890E+01 -2.21289E+02  1.08598E+03  1.65569E+03 -2.81375E+02
  3.42317E+02 -4.71187E+02  2.81524E+03  9.01567E+02  4.66764E+02  3.48543E+03 -6.00494E+02  4.32160E+03
 -2.60749E+03  2.05763E+03 -3.55168E+03  4.75482E+02 -3.26719E+03 -1.02434E+03 -9.63536E+02 -2.16435E+03
  4.29809E+02 -2.02075E+03  1.52601E+03 -1.27160E+03  1.18203E+03  1.34883E+03 -6.81712E+02  1.75103E+03
 -2.40203E+03  1.05964E+03 -2.48400E+03 -1.70291E+03 -1.27893E+03 -3.02817E+03  2.55234E+02 -2.56436E+03
  1.18667E+03 -1.06823E+03  1.50350E+03  2.58838E+02  1.78274E+03  4.12051E+02  4.12037E+02  1.73855E+03
 -7.69624E+02  2.48723E+02 -1.42604E+03 -6.35751E+02  6.87231E+02 -1.70780E+03  2.49268E+03 -1.44509E+03
  2.12542E+03  3.66286E+02  3.42085E+03  1.45194E+03  1.37954E+03  2.79364E+03 -1.06717E+03  2.94192E+03
 -2.93348E+03  5.46019E+02 -2.56149E+03 -3.23841E+02 -1.41746E+03 -2.29169E+03  4.63872E+02 -1.33138E+03
  2.13188E+03 -1.23410E+03  1.39867E+03  1.00090E+03  4.24202E+02  1.65863E+03  2.77134E+01  1.69295E+03
 -6.89716E+02  1.56364E+03 -7.44570E+02  3.36240E+02 -2.18067E+02  3.79048E+02 -1.10379E+03  5.73143E+02
 -1.11260E+03  1.89202E+03 -2.36658E+03  5.99473E+02 -2.85694E+03  3.05615E+02 -3.53530E+03 -1.99385E+03
 -1.74358E+03 -3.92583E+03  6.88737E+02 -4.24964E+03  2.12742E+03 -3.67474E+03  4.27606E+03 -1.61327E+03
  3.77680E+03  1.03223E+02  2.31196E+03  2.48126E+03 -3.85389E+02  2.56419E+03 -1.09870E+03  1.98204E+03
 -1.82294E+03  9.52174E+02 -1.01785E+03 -2.58182E+02 -5.71059E+02 -2.12210E+01 -6.51243E+02  6.60165E+01
 -1.17454E+03  4.84774E+01 -8.28733E+02 -4.05523E+01  1.58544E+02 -6.03148E+02 -2.87710E+02 -1.20125E+03
  1.70514E+03 -8.19067E+02  1.26960E+03  3.64205E+01  1.92655E+03  1.77481E+03  2.81243E+02  2.50081E+03
 -1.69397E+03  3.39283E+03 -2.87148E+03  1.80631E+03 -2.96291E+03 -4.05568E+02 -2.11631E+03 -2.02126E+03
 -1.16938E+03 -2.50122E+03  8.32795E+02 -2.49983E+03  1.43062E+03 -7.35079E+02  1.64182E+03  2.45172E+02
  9.58742E+02  6.39964E+02  1.56838E+02  6.56388E+02 -2.85671E+02 -8.49171E+01 -2.29094E+01 -4.37821E+02
  8.90027E+02 -1.05965E+02  4.51773E+02  6.03303E+02  3.12265E+02  7.92039E+02  4.55133E+02  9.20492E+02
 -1.15271E+03  8.25426E+02 -1.32371E+03  2.77729E+02 -1.60083E+03 -1.29805E+03 -2.91839E+01 -2.08358E+03
  1.25737E+03 -1.40872E+03  1.35923E+03 -5.97098E+02  1.96325E+03 -4.02510E+02  1.19216E+03  1.41012E+03
  2.49378E+02  8.99571E+02 -2.88680E+02  1.04224E+03 -9.75162E+02  9.35377E+02 -5.34978E+02  2.05763E+02
 -4.61448E+02  4.88052E+01 -3.91337E+02 -1.19005E+02 -1.10802E+03  6.73262E+02 -1.17070E+03 -3.42307E+02
 -1.70251E+03 -1.97124E+02 -1.52005E+02 -1.40638E+03  8.14245E+02 -2.20694E+03  1.18090E+03 -4.02224E+02
  1.25238E+03  2.58426E+02  1.59550E+02  6.36841E+02 -2.27011E+02  1.60465E+03 -9.11076E+02  1.16251E+03
