 $NMID ID='MM_0lb_SNR800_10hz_g60_85.RAW', FMTDAT='(8E13.5)'
 TRAMP=1., VOLUME=1. $END
  3.09565E+05  3.25723E+02  3.37944E+05  2.50604E+05  8.48831E+04  3.38740E+05 -1.32891E+05  2.51920E+05
 -1.90943E+05  8.37564E+04 -1.12613E+05 -3.25288E+04  4.40440E+02 -5.08112E+04  5.35727E+04 -4.40602E+02
  3.55636E+04  5.28961E+04 -1.69970E+04  7.59438E+04 -6.04997E+04  6.44998E+04 -8.54184E+04  3.25614E+04
 -8.25045E+04 -1.20301E+04 -5.85265E+04 -5.24020E+04 -1.49887E+04 -7.11163E+04  2.84022E+04 -4.69212E+04
  4.10995E+04  3.47738E+03  1.65812E+04  4.88277E+04 -3.49442E+04  4.79398E+04 -6.81715E+04 -5.68548E+01
 -5.49452E+04 -5.78977E+04 -7.25402E+03 -7.90256E+04  3.46353E+04 -5.66717E+04  4.99561E+04 -1.83683E+04
  4.56561E+04  1.19285E+04  3.28114E+04  2.65742E+04  1.59922E+04  3.06566E+04 -5.62604E+03  2.76511E+04
 -2.25628E+04  1.23892E+04 -1.83835E+04 -5.77000E+03  7.18585E+03 -7.35780E+03  2.35689E+04  1.37850E+04
  6.71853E+03  3.77625E+04 -3.44102E+04  3.70316E+04 -6.63402E+04  2.34317E+03 -5.90453E+04 -4.43699E+04
 -1.27920E+04 -6.61940E+04  4.13421E+04 -4.73398E+04  6.18452E+04 -2.64070E+03  3.67104E+04  3.43926E+04
 -5.40253E+03  3.97911E+04 -3.21867E+04  1.89367E+04 -3.33628E+04 -3.43542E+03 -1.95043E+04 -1.19705E+04
 -9.45065E+03 -1.51751E+04 -4.57194E+02 -1.99719E+04  8.67713E+03 -2.37414E+04  1.60703E+04 -1.27474E+04
  1.01888E+04  6.36465E+03 -1.07703E+04  1.31482E+04 -2.36027E+04 -6.40797E+03 -8.59285E+03 -3.77277E+04
  2.52477E+04 -4.68991E+04  5.23415E+04 -2.09605E+04  4.88690E+04  2.09729E+04  1.73863E+04  4.74078E+04
 -1.68360E+04  3.65697E+04 -2.78222E+04  2.69569E+03 -1.16398E+04 -2.95908E+04  2.13879E+04 -3.71951E+04
  4.47148E+04 -1.14658E+04  4.08281E+04  2.48304E+04  2.11664E+04  5.15168E+04 -8.30574E+03  5.65828E+04
 -3.54344E+04  3.87124E+04 -4.78940E+04  1.09697E+04 -4.82575E+04 -1.82311E+04 -2.61257E+04 -4.20240E+04
  7.65200E+03 -4.21919E+04  3.44090E+04 -1.72386E+04  3.20699E+04  1.12399E+04  5.13273E+03  2.08680E+04
 -1.41589E+04  1.00569E+04 -1.12149E+04 -7.57957E+03  5.81733E+03 -1.12409E+04  1.90764E+04  5.14062E+03
  1.46480E+04  2.31747E+04 -5.01785E+03  2.72601E+04 -2.34893E+04  1.41924E+04 -3.16585E+04 -3.00960E+03
 -2.54685E+04 -1.84824E+04 -1.18298E+04 -2.51160E+04  4.05114E+03 -2.61723E+04  1.99689E+04 -2.31353E+04
  3.17976E+04 -1.42046E+04  3.83875E+04  4.98632E+03  2.68691E+04  2.47389E+04  4.00498E+03  4.14986E+04
 -1.96686E+04  3.40234E+04 -3.06125E+04  1.16873E+04 -2.22191E+04 -1.02187E+04 -4.77169E+03 -1.26623E+04
  9.78321E+02 -9.31730E+02 -7.57385E+03  8.01793E+03 -2.06024E+04  5.13361E+03 -2.03162E+04 -9.62393E+03
 -1.20995E+04 -2.31755E+04  6.32928E+03 -2.76195E+04  1.88396E+04 -1.97119E+04  2.29896E+04 -1.85050E+03
  1.47878E+04  1.62845E+04 -1.35082E+03  2.27791E+04 -1.65658E+04  1.35267E+04 -2.38127E+04 -4.80196E+03
 -1.72482E+04 -2.09615E+04 -2.09998E+03 -2.79470E+04  1.26364E+04 -2.39748E+04  2.29756E+04 -1.20075E+04
  2.19920E+04 -2.84135E+02  1.62142E+04  5.22843E+03  8.52425E+03  1.54213E+03  1.20605E+04 -2.28272E+03
  2.20550E+04  2.83495E+03  2.52449E+04  1.83160E+04  1.73927E+04  3.76096E+04 -2.60481E+03  4.44390E+04
 -2.57296E+04  3.70021E+04 -4.23651E+04  1.92014E+04 -4.46521E+04 -3.25254E+03 -3.66745E+04 -2.64409E+04
 -1.48735E+04 -3.72455E+04  1.35521E+04 -3.28499E+04  2.82486E+04 -1.56423E+04  2.43647E+04  7.98519E+03
  8.20568E+03  1.88306E+04 -1.17201E+04  1.58905E+04 -1.98569E+04  2.30023E+03 -1.52595E+04 -1.26523E+04
 -1.16359E+02 -1.92572E+04  1.05762E+04 -1.44649E+04  1.33919E+04 -1.62789E+03  3.64256E+03  8.71249E+03
 -8.60479E+03  3.96317E+03 -9.00885E+03 -6.80736E+03 -1.50567E+03 -1.84580E+04  1.20305E+04 -2.00428E+04
  2.25422E+04 -1.12989E+04  2.57301E+04  3.26081E+03  2.31882E+04  1.83988E+04  1.07537E+04  2.88561E+04
 -5.28996E+03  3.11069E+04 -2.02907E+04  1.93313E+04 -2.26402E+04  3.77056E+03 -1.54571E+04 -6.18098E+03
 -6.27044E+03 -7.09376E+03 -1.01881E+03  4.67343E+02 -2.93891E+03  3.09854E+03 -7.56722E+03  5.48413E+03
 -1.39135E+04 -6.43193E+02 -1.47766E+04 -1.17015E+04 -6.41534E+03 -1.90519E+04  6.47965E+03 -1.53640E+04
  1.28062E+04 -6.30117E+03  8.93069E+03  4.33883E+03 -3.92930E+02  6.74368E+03 -7.81277E+03  7.22946E+01
 -7.94901E+03 -9.96418E+03 -1.17387E+03 -1.55579E+04  9.06869E+03 -1.59440E+04  1.97439E+04 -8.63984E+03
  2.33026E+04  2.46211E+03  1.68159E+04  1.46528E+04  3.29475E+03  1.88059E+04 -9.37192E+03  1.56326E+04
 -1.26790E+04  4.27272E+03 -6.34492E+03 -3.59054E+03  2.34674E+03 -4.13875E+03  8.50322E+03 -9.10624E+02
  7.41084E+03  6.69455E+03  1.26010E+03  1.25571E+04 -9.06019E+03  1.21891E+04 -1.57822E+04  2.75263E+03
 -1.04572E+04 -8.41297E+03 -8.02346E+01 -1.33034E+04  8.74655E+03 -6.68104E+03  9.21058E+03  3.04345E+03
  2.56051E+03  9.73350E+03 -7.86604E+03  1.16113E+04 -1.34138E+04  5.06743E+03 -1.40191E+04 -4.97680E+03
 -8.17330E+03 -1.55732E+04  4.25591E+03 -1.78497E+04  1.51729E+04 -1.07707E+04  1.67530E+04  2.85218E+03
  9.50878E+03  1.27733E+04 -1.76479E+03  1.56623E+04 -1.14325E+04  9.03072E+03 -1.25659E+04 -1.51965E+03
 -1.05057E+04 -1.00150E+04 -1.78818E+03 -1.24187E+04  6.49411E+03 -9.86158E+03  7.31480E+03 -3.66604E+03
  4.52914E+03  2.29112E+03 -1.34879E+03  2.05345E+03 -9.01987E+02 -3.22513E+03  2.49700E+03 -7.30177E+03
  1.11384E+04 -4.62031E+03  1.56933E+04  1.67958E+03  1.52800E+04  1.09441E+04  9.64074E+03  2.04283E+04
 -4.50168E+03  2.36956E+04 -1.93493E+04  1.75584E+04 -2.53816E+04  3.27748E+03 -1.99751E+04 -8.99644E+03
 -1.00609E+04 -1.68218E+04 -7.54925E+01 -1.42949E+04  5.21579E+03 -8.17349E+03  5.05694E+03 -4.99763E+03
  3.88982E+03 -3.01954E+03  4.17779E+03 -3.98961E+03  5.54659E+03 -3.04696E+03  7.96689E+03 -1.12976E+03
  1.06461E+04  2.69809E+03  5.62882E+03  9.31544E+03 -2.27971E+03  1.09133E+04 -1.09089E+04  8.29245E+03
 -1.42981E+04 -1.10777E+03 -9.18191E+03 -1.04019E+04 -1.59690E+03 -1.52281E+04  8.36949E+03 -1.53168E+04
  1.62229E+04 -8.60989E+03  1.84960E+04  2.46768E+03  1.28803E+04  1.29508E+04  2.16372E+03  1.74891E+04
 -7.30979E+03  1.41447E+04 -9.99064E+03  5.20891E+03 -6.88326E+03 -1.66974E+03 -2.79365E+03 -2.30326E+03
 -1.36084E+03 -1.34121E+02 -2.07721E+03  2.83797E+03 -6.47256E+03  2.22961E+03 -9.44495E+03 -8.36770E+02
 -7.18218E+03 -9.61565E+03 -4.84420E+02 -1.46531E+04  8.59458E+03 -1.26912E+04  1.41455E+04 -3.91314E+03
  1.39580E+04  6.44860E+03  7.04342E+03  1.26299E+04 -2.97866E+03  1.43360E+04 -1.06792E+04  9.12986E+03
 -1.33462E+04  4.27088E+02 -1.02493E+04 -8.64857E+03 -9.37190E+02 -1.16030E+04  5.76566E+03 -8.71177E+03
  9.08817E+03 -2.68652E+03  5.98085E+03  2.47109E+03  1.79358E+03  4.32697E+03  1.23210E+03  1.73029E+03
  2.48480E+03  1.72457E+03  3.39108E+03  1.46557E+03  4.25174E+03  5.13622E+03  3.91462E+03  7.68852E+03
 -2.99642E+03  1.15543E+04 -1.00500E+04  1.12078E+04 -1.45204E+04  2.78599E+03 -1.53819E+04 -5.84701E+03
 -7.21025E+03 -1.42940E+04  2.07314E+03 -1.58305E+04  8.64208E+03 -9.64891E+03  1.15077E+04 -2.65536E+03
  9.23875E+03  5.82180E+03  1.79700E+03  8.32678E+03 -4.10319E+03  5.51049E+03 -6.07059E+03 -9.77301E+02
 -2.69232E+03 -5.94579E+03  3.28346E+03 -6.14941E+03  6.03614E+03 -3.64945E+03  5.76062E+03  1.10740E+03
  3.15068E+03  2.68624E+03  1.17105E+03  2.71990E+03 -8.20673E+02  2.10004E+03  1.92026E+03 -2.67030E+02
  2.44843E+03 -1.11112E+03  5.90349E+03  2.33299E+03  3.22704E+03  8.03839E+03 -1.19011E+03  9.90308E+03
 -7.01745E+03  6.87634E+03 -9.33998E+03  1.75514E+03 -8.62103E+03 -3.08171E+03 -3.06309E+03 -5.37059E+03
  9.60794E+02 -5.73062E+03  3.99933E+03 -2.69422E+03  3.16847E+03  3.14710E+03 -9.36466E+02  4.55059E+03
 -6.25576E+03  2.86325E+03 -6.88299E+03 -3.58107E+03 -3.72575E+03 -8.02884E+03  1.22298E+03 -8.02120E+03
  4.20839E+03 -4.74575E+03  5.63037E+03 -7.00764E+02  4.67098E+03  1.97230E+03  7.01519E+02  4.02291E+03
 -3.06288E+03  1.49011E+03 -3.36744E+03 -2.77485E+03  1.39902E+03 -5.67924E+03  7.21707E+03 -4.78889E+03
  8.75603E+03  1.06171E+03  9.01595E+03  6.35296E+03  2.86503E+03  9.34237E+03 -3.20648E+03  9.38845E+03
 -7.62875E+03  3.62104E+03 -8.16470E+03 -9.47907E+02 -4.15982E+03 -6.11919E+03  1.39770E+03 -6.05300E+03
  6.00731E+03 -2.72508E+03  5.03115E+03  2.29311E+03  1.39493E+03  4.90001E+03 -5.81531E+02  4.73112E+03
 -2.24268E+03  2.91590E+03 -2.02902E+03  9.32246E+02 -9.47331E+02  1.35776E+03 -1.74623E+03  1.64806E+03
 -2.63751E+03  3.82523E+03 -6.58920E+03  3.45609E+03 -8.90045E+03  1.10099E+02 -1.03101E+04 -6.23386E+03
 -5.25397E+03 -1.24974E+04  2.46200E+03 -1.40293E+04  8.76735E+03 -1.13104E+04  1.35547E+04 -4.32871E+03
  1.19538E+04  2.69325E+03  7.31432E+03  8.25919E+03  6.24348E+02  9.17362E+03 -3.98947E+03  7.24444E+03
 -5.36392E+03  2.53197E+03 -3.49160E+03 -6.44971E+02 -1.10850E+03 -8.32117E+02 -6.52679E+02  1.25127E+02
 -2.16185E+03  5.75999E+02 -2.20013E+03 -1.52141E+02 -8.19262E+02 -2.26862E+03  2.69528E+02 -3.72723E+03
  4.43454E+03 -3.27243E+03  5.68468E+03 -4.75524E+01  6.59105E+03  4.75262E+03  1.52792E+03  9.40165E+03
 -4.79596E+03  1.04919E+04 -1.00351E+04  6.24906E+03 -1.14161E+04 -1.25848E+03 -8.88136E+03 -6.98356E+03
 -3.50276E+03 -9.97610E+03  2.41935E+03 -8.68101E+03  6.01447E+03 -4.92577E+03  6.02107E+03  3.74784E+02
  3.36399E+03  2.98634E+03 -5.19488E+02  2.80049E+03 -1.31368E+03 -5.27929E+02 -1.66927E+02 -2.09810E+03
  2.63849E+03 -1.32171E+03  3.84910E+03  1.18882E+03  2.17497E+03  3.67892E+03  7.04187E+01  4.66618E+03
 -3.83666E+03  3.96974E+03 -5.65532E+03  3.87431E+02 -5.80041E+03 -4.33355E+03 -9.22440E+02 -8.18162E+03
  4.35298E+03 -6.66013E+03  7.43754E+03 -1.95518E+03  7.13368E+03  1.37549E+03  3.81670E+03  5.70969E+03
  7.22669E+02  6.00830E+03 -2.58800E+03  4.95524E+03 -4.13115E+03  2.78824E+03 -3.20456E+03  7.98909E+02
 -1.67799E+03 -9.35341E+01 -1.80426E+03  5.16605E+02 -3.54223E+03  1.05467E+03 -4.76829E+03 -1.04316E+03
 -4.86241E+03 -3.38822E+03 -1.14794E+03 -6.13784E+03  2.71591E+03 -6.70119E+03  5.65755E+03 -2.92291E+03
  5.97455E+03  6.45950E+02  3.22445E+03  4.21114E+03 -6.00130E+02  6.16520E+03 -4.79930E+03  4.30939E+03
