 $NMID ID='MM_0lb_SNR800_19hz_g40_51.RAW', FMTDAT='(8E13.5)'
 TRAMP=1., VOLUME=1. $END
  3.09788E+05  2.87570E+02  3.37147E+05  2.50519E+05  8.44113E+04  3.36970E+05 -1.32736E+05  2.49745E+05
 -1.89663E+05  8.22128E+04 -1.10680E+05 -3.29290E+04  1.69541E+03 -5.02475E+04  5.40849E+04  2.96350E+02
  3.49593E+04  5.27387E+04 -1.70165E+04  7.48076E+04 -5.99007E+04  6.24468E+04 -8.25698E+04  3.11812E+04
 -7.91372E+04 -1.10012E+04 -5.56437E+04 -5.00167E+04 -1.49631E+04 -6.77119E+04  2.65007E+04 -4.45007E+04
  3.88119E+04  4.14744E+03  1.54344E+04  4.69083E+04 -3.37198E+04  4.58950E+04 -6.49539E+04 -7.03239E+02
 -5.14485E+04 -5.55166E+04 -6.08455E+03 -7.47470E+04  3.28624E+04 -5.26163E+04  4.56902E+04 -1.60189E+04
  4.07913E+04  1.08059E+04  3.00703E+04  2.39144E+04  1.59257E+04  2.77769E+04 -4.29921E+03  2.64659E+04
 -2.14593E+04  1.27247E+04 -1.92823E+04 -4.06381E+03  3.58703E+03 -7.53796E+03  2.09907E+04  1.02759E+04
  7.57688E+03  3.25281E+04 -2.96705E+04  3.36825E+04 -6.02932E+04  2.01178E+03 -5.46735E+04 -4.08379E+04
 -1.22926E+04 -5.99103E+04  3.75179E+04 -4.26797E+04  5.44983E+04 -1.97907E+03  3.12297E+04  3.00486E+04
 -6.59887E+03  3.21036E+04 -2.79163E+04  1.26548E+04 -2.69191E+04 -5.55127E+03 -1.36222E+04 -9.41193E+03
 -6.90770E+03 -1.08086E+04 -1.25080E+03 -1.59964E+04  6.42688E+03 -2.25646E+04  1.46910E+04 -1.44032E+04
  1.25049E+04  4.02527E+03 -5.54359E+03  1.32094E+04 -1.85484E+04 -1.94873E+03 -7.76417E+03 -2.94519E+04
  2.01889E+04 -3.94307E+04  4.35379E+04 -1.81615E+04  4.11858E+04  1.81434E+04  1.38639E+04  4.07511E+04
 -1.52024E+04  3.03621E+04 -2.28362E+04  8.98403E+02 -7.74745E+03 -2.58625E+04  2.03780E+04 -3.03614E+04
  3.69423E+04 -6.88119E+03  3.02492E+04  2.23746E+04  1.47990E+04  4.14169E+04 -7.64626E+03  4.38694E+04
 -2.75096E+04  2.86255E+04 -3.57176E+04  7.77572E+03 -3.71522E+04 -1.44289E+04 -2.06728E+04 -3.34788E+04
  6.49972E+03 -3.30365E+04  2.85535E+04 -1.19118E+04  2.61360E+04  1.09076E+04  2.64112E+03  1.75530E+04
 -1.27466E+04  6.85688E+03 -9.29354E+03 -7.83634E+03  6.07069E+03 -9.77413E+03  1.68740E+04  6.70727E+03
  1.18291E+04  2.13218E+04 -6.72066E+03  2.30535E+04 -2.12251E+04  8.45160E+03 -2.42623E+04 -6.72178E+03
 -1.59023E+04 -1.57482E+04 -4.98771E+03 -1.57997E+04  3.50915E+03 -1.33127E+04  1.18207E+04 -1.33840E+04
  2.01000E+04 -1.12527E+04  2.71333E+04  7.11800E+02  2.05722E+04  1.53520E+04  3.94775E+03  3.13451E+04
 -1.55238E+04  2.70638E+04 -2.53255E+04  8.79248E+03 -1.94721E+04 -1.04434E+04 -3.66268E+03 -1.43189E+04
  2.93979E+03 -4.26716E+03 -2.00760E+03  5.39281E+03 -1.20544E+04  5.35370E+03 -1.26968E+04 -4.45006E+03
 -8.19993E+03 -1.44879E+04  4.21130E+03 -1.84606E+04  1.18879E+04 -1.33101E+04  1.36256E+04 -1.43563E+03
  8.55773E+03  1.03477E+04 -7.71101E+02  1.52817E+04 -9.76914E+03  8.38615E+03 -1.46025E+04 -3.29187E+03
 -1.11178E+04 -1.34221E+04 -1.55338E+03 -1.79901E+04  8.07925E+03 -1.46194E+04  1.55428E+04 -6.36589E+03
  1.39908E+04  7.13667E+02  9.93377E+03  3.73927E+03  4.60206E+03  5.36757E+02  7.20901E+03 -1.24795E+03
  1.32674E+04  2.78182E+03  1.34956E+04  1.22392E+04  8.11416E+03  2.35668E+04 -3.17930E+03  2.47025E+04
 -1.48442E+04  1.87712E+04 -2.28140E+04  8.92902E+03 -2.28811E+04 -1.67014E+03 -2.00118E+04 -1.33398E+04
 -9.93590E+03 -1.86322E+04  6.13177E+03 -1.75768E+04  1.56500E+04 -1.03491E+04  1.47192E+04  3.19177E+03
  6.58369E+03  1.02557E+04 -6.65460E+03  9.89955E+03 -1.24236E+04  2.80126E+03 -9.89620E+03 -7.34820E+03
 -2.78233E+02 -1.15080E+04  5.63728E+03 -8.98507E+03  7.40576E+03 -1.25505E+03  1.11507E+03  4.73481E+03
 -5.47161E+03  1.16136E+03 -3.11475E+03 -4.53457E+03  8.66990E+02 -9.54513E+03  7.61407E+03 -9.26726E+03
  1.14313E+04 -4.11007E+03  1.08592E+04  2.50393E+03  9.17712E+03  8.68448E+03  4.23909E+03  1.26409E+04
 -1.48562E+03  1.47686E+04 -8.69984E+03  9.67203E+03 -1.01410E+04  2.74270E+03 -7.73370E+03 -1.65363E+03
 -4.54091E+03 -2.93116E+03 -7.97766E+02  1.69453E+03 -1.92972E+03  1.89151E+03 -3.26647E+03  3.34599E+03
 -7.74319E+03 -3.90991E+02 -8.15995E+03 -7.00431E+03 -3.68577E+03 -1.09810E+04  3.25605E+03 -8.15012E+03
  6.55179E+03 -3.44670E+03  4.87227E+03  1.97395E+03  8.45990E+02  3.03065E+03 -3.28681E+03 -1.30627E+02
 -3.04436E+03 -4.80152E+03 -6.49809E+02 -6.73111E+03  3.32750E+03 -7.24749E+03  8.99099E+03 -3.56615E+03
  1.08493E+04  5.11972E+02  8.18916E+03  5.47026E+03  1.68226E+03  7.89985E+03 -4.91839E+03  7.92561E+03
 -6.50791E+03  2.83275E+03 -3.27601E+03 -1.32743E+03  1.23886E+03 -1.81289E+03  4.56820E+03 -9.15999E+02
  3.73332E+03  2.96546E+03  9.82084E+02  6.03292E+03 -3.97556E+03  6.08856E+03 -7.31761E+03  1.62125E+03
 -4.48626E+03 -3.33631E+03  2.16852E+02 -6.14226E+03  3.38352E+03 -3.20988E+03  3.16957E+03  7.37452E+02
  3.39648E+02  3.01606E+03 -4.03030E+03  4.08577E+03 -4.21148E+03  2.22586E+03 -3.85776E+03 -9.15690E+02
 -2.44449E+03 -5.60965E+03  1.10795E+03 -6.34123E+03  5.37702E+03 -4.14396E+03  5.75245E+03  7.43227E+02
  4.22947E+03  4.88909E+03  3.07110E+02  6.62342E+03 -4.41105E+03  4.08915E+03 -5.06957E+03 -6.36238E+01
 -5.41149E+03 -4.83585E+03 -1.26405E+03 -4.61011E+03  2.37440E+03 -4.57469E+03  2.69763E+03 -2.83079E+03
  2.83674E+03  1.80173E+02 -1.82623E+02  1.16328E+03  2.94964E+02  1.51244E+02  2.05576E+02 -1.60571E+03
  3.41051E+03 -6.32602E+02  4.65296E+03  4.22330E+02  4.93142E+03  2.68884E+03  4.95993E+03  6.33867E+03
 -9.71896E+02  7.80462E+03 -7.08044E+03  5.68639E+03 -9.00316E+03  1.31799E+03 -7.11627E+03 -2.20100E+03
 -3.88777E+03 -5.67644E+03 -5.14973E+02 -4.41843E+03  1.96978E+03 -1.79903E+03  1.78419E+03 -1.87237E+03
  1.16525E+03 -1.37798E+03  2.26322E+03 -2.36547E+03  3.58043E+03 -1.15043E+03  3.09849E+03  8.14244E+02
  4.24037E+03  1.07587E+03  9.59134E+02  3.16598E+03 -1.25114E+03  2.21595E+03 -4.15490E+03  2.57000E+03
 -4.51858E+03 -1.02192E+03 -1.33429E+03 -3.10922E+03  2.99517E+02 -4.74320E+03  2.98860E+03 -4.70402E+03
  4.48474E+03 -2.64066E+03  6.04023E+03 -2.30772E+02  4.65087E+03  3.76185E+03  8.83760E+02  5.34716E+03
 -1.80565E+03  5.22819E+03 -3.07676E+03  1.80116E+03 -1.64332E+03 -7.92733E+02 -2.58163E+02 -7.04176E+02
 -6.15272E+02  1.40480E+02 -8.29762E+02  1.98637E+03 -2.72083E+03  8.92368E+02 -4.03821E+03 -3.00673E+02
 -1.18472E+03 -3.67513E+03  8.32429E+02 -3.99002E+03  2.52398E+03 -3.71220E+03  3.13431E+03 -8.39569E+02
  3.60332E+03  2.14158E+03  1.59501E+03  2.88930E+03 -1.00253E+03  3.83700E+03 -2.40766E+03  2.62701E+03
 -3.44541E+03  7.37235E+02 -3.43472E+03 -2.20055E+03 -1.35037E+02 -3.00166E+03  1.66854E+03 -2.27409E+03
  2.27653E+03 -1.26482E+03  1.50288E+03  4.33393E+02  6.51919E+02  1.68419E+03  8.32958E+02  2.69063E+02
  1.67711E+03  4.80240E+02  8.68261E+02  1.07084E+03  1.04998E+03  1.92166E+03  1.39752E+03  1.38306E+03
 -1.01213E+03  2.47272E+03 -1.94519E+03  3.89323E+03 -2.59568E+03  1.27531E+03 -3.77280E+03  1.15210E+02
 -1.32572E+03 -3.10155E+03  7.49942E+02 -4.18624E+03  1.72137E+03 -2.14840E+03  2.57360E+03 -7.51019E+02
  2.34498E+03  1.58768E+03  3.93872E+02  1.95088E+03 -4.79486E+02  9.32992E+02 -1.05352E+03 -6.69257E+01
 -6.90777E+02 -1.38439E+03  1.16306E+03 -1.02650E+03  1.01264E+03 -9.01107E+02  1.21358E+03  2.62411E+02
  6.13905E+02  4.92167E+02  7.27404E+02 -1.51796E+02 -2.92622E+02  3.61436E+02  1.54456E+03 -1.92367E+02
  2.01809E+01 -2.18032E+02  1.67047E+03  7.18277E+02  1.81255E+02  2.17206E+03 -2.25913E+01  2.68109E+03
 -1.28405E+03  8.21321E+02 -1.65037E+03  3.01958E+02 -1.96613E+03 -4.43209E+02 -9.17011E+01 -9.19368E+02
  3.86504E+02 -1.27023E+03  8.07064E+02 -8.12235E+02  8.97700E+02  1.30925E+03 -1.08246E+03  1.19977E+03
 -1.41095E+03  5.77690E+02 -8.14573E+02 -1.48057E+03 -5.98773E+02 -1.60336E+03  9.92197E+01 -1.48175E+03
  3.76927E+02 -4.25868E+02  6.41714E+02  3.25123E+02  1.22842E+03  2.13993E+02  1.53882E+02  9.40753E+02
 -4.24343E+02  2.03365E+02 -8.31114E+02 -3.15397E+02  4.94547E+02 -9.16322E+02  1.60172E+03 -1.02813E+03
  8.68514E+02  3.17896E+02  2.77504E+03  6.98277E+02  1.11642E+03  1.47096E+03 -2.78616E+01  1.62794E+03
 -1.29940E+03  7.42974E+01 -1.38556E+03 -2.83927E+02 -8.44579E+02 -1.31866E+03  2.93831E+02 -1.89093E+02
  1.55116E+03 -6.47885E+02  7.49874E+02  6.33523E+02  7.84874E+01  1.38842E+03  2.53413E+02  1.23823E+03
 -5.27223E+02  1.06283E+03 -6.03446E+02  1.36290E+02  1.70988E+02  3.74110E+02 -6.70962E+02  6.00372E+02
 -5.48909E+02  6.11174E+02 -1.50074E+03  4.34791E+02 -1.65711E+03  1.71055E+02 -2.46019E+03 -8.34660E+02
 -1.00135E+03 -2.12856E+03  7.32034E+02 -2.70574E+03  5.90919E+02 -2.06580E+03  2.65673E+03 -9.26989E+02
  2.40711E+03 -1.75440E+02  1.21998E+03  1.27365E+03 -8.21117E+02  1.32134E+03 -7.91793E+02  1.01767E+03
 -9.13308E+02  6.12229E+02 -4.12538E+02 -5.78046E+01 -2.70011E+02  5.54828E+02 -5.81742E+02 -1.10546E+02
 -1.00653E+03 -2.29558E+02 -8.57503E+02  8.54024E+01  2.86654E+02 -6.74787E+02 -3.39939E+02 -5.93205E+02
  8.99135E+02 -7.09479E+02  4.89334E+02  3.53160E+02  7.27562E+02  1.08135E+03 -6.99940E+02  1.00851E+03
 -8.59500E+02  2.12673E+03 -1.46301E+03  1.06807E+03 -1.76510E+03 -4.32637E+02 -1.19934E+03 -1.12454E+03
 -8.56680E+02 -1.31458E+03  3.49135E+02 -1.25079E+03  6.14746E+02 -6.75027E+02  4.78259E+02  4.61148E+02
  7.15469E+02  1.02804E+02  6.73806E+01  4.54376E+02 -4.22853E+02  1.37312E+02 -1.95262E+02 -3.13470E+02
  4.44266E+02  2.14944E+02  9.71133E+01  6.59735E+02  1.53395E+02  4.08907E+02  4.08886E+02  3.35742E+02
 -5.73975E+02  5.62885E+02 -5.12932E+02  2.31460E+02 -7.96954E+02 -3.31256E+02 -2.32475E+00 -1.14819E+03
  3.84438E+02 -7.12822E+02  4.15753E+02  7.08527E+00  8.12917E+02 -5.00237E+02  5.75380E+02  6.51032E+02
  4.73594E+02  4.92594E+02 -5.36644E+01  9.74029E+01 -3.20100E+02  5.29261E+02 -4.09841E+02 -1.47625E+02
  4.73368E+01  6.13513E+01 -4.92919E+02  2.17701E+02 -5.58286E+02 -4.50851E+00 -6.92149E+02 -3.72736E+02
 -8.16552E+02  3.54072E+02 -2.03939E+02 -8.54338E+02  6.92520E+02 -1.47897E+03  8.16596E+02 -4.66647E+01
  6.70327E+02  2.92191E+02 -3.01630E+02  1.14741E+02 -2.21967E+02  7.94478E+02 -1.35012E+02  4.12382E+02
