 $NMID ID='MM_0lb_SNR800_20hz_g45_91.RAW', FMTDAT='(8E13.5)'
 TRAMP=1., VOLUME=1. $END
  3.09717E+05  3.26081E+02  3.37333E+05  2.50534E+05  8.44877E+04  3.36988E+05 -1.32649E+05  2.49721E+05
 -1.89722E+05  8.22097E+04 -1.10576E+05 -3.30686E+04  1.85798E+03 -5.01350E+04  5.37979E+04  4.95065E+02
  3.50637E+04  5.29601E+04 -1.70508E+04  7.44139E+04 -6.01289E+04  6.24621E+04 -8.25650E+04  3.14005E+04
 -7.88081E+04 -1.08686E+04 -5.57170E+04 -4.99652E+04 -1.50758E+04 -6.77750E+04  2.65853E+04 -4.45160E+04
  3.88432E+04  4.14295E+03  1.53814E+04  4.70225E+04 -3.37881E+04  4.57698E+04 -6.48797E+04 -7.47517E+02
 -5.15177E+04 -5.57178E+04 -6.03140E+03 -7.44173E+04  3.30493E+04 -5.25979E+04  4.56126E+04 -1.61077E+04
  4.06432E+04  1.11208E+04  3.02634E+04  2.38093E+04  1.57604E+04  2.78817E+04 -4.60566E+03  2.66414E+04
 -2.17527E+04  1.30140E+04 -1.93815E+04 -3.89548E+03  4.00770E+03 -7.56465E+03  2.08676E+04  1.06286E+04
  7.50975E+03  3.27209E+04 -3.00348E+04  3.34091E+04 -6.03971E+04  2.21659E+03 -5.47908E+04 -4.03169E+04
 -1.25064E+04 -6.00105E+04  3.75419E+04 -4.27666E+04  5.44540E+04 -1.73516E+03  3.14708E+04  3.01994E+04
 -6.81155E+03  3.20154E+04 -2.76309E+04  1.23747E+04 -2.68238E+04 -5.53496E+03 -1.38295E+04 -9.89857E+03
 -7.21447E+03 -1.10415E+04 -7.99676E+02 -1.62578E+04  6.31872E+03 -2.25742E+04  1.47564E+04 -1.40222E+04
  1.25405E+04  3.88837E+03 -5.52431E+03  1.33367E+04 -1.84190E+04 -1.90873E+03 -8.23401E+03 -2.91199E+04
  2.02036E+04 -3.92359E+04  4.33049E+04 -1.81774E+04  4.08736E+04  1.79759E+04  1.37959E+04  4.08972E+04
 -1.50367E+04  3.03996E+04 -2.27158E+04  8.39003E+02 -7.48126E+03 -2.57958E+04  2.05327E+04 -3.01518E+04
  3.70366E+04 -6.81477E+03  3.01908E+04  2.24849E+04  1.43152E+04  4.08923E+04 -7.60853E+03  4.35166E+04
 -2.72871E+04  2.86255E+04 -3.56833E+04  7.91476E+03 -3.66633E+04 -1.46410E+04 -2.04212E+04 -3.33355E+04
  6.68106E+03 -3.30101E+04  2.82621E+04 -1.20072E+04  2.62350E+04  1.07726E+04  2.66840E+03  1.73978E+04
 -1.29871E+04  6.62278E+03 -9.35448E+03 -7.56791E+03  6.19036E+03 -9.91273E+03  1.69191E+04  6.66556E+03
  1.17487E+04  2.17403E+04 -6.67489E+03  2.28781E+04 -2.08233E+04  8.41774E+03 -2.41140E+04 -6.95245E+03
 -1.53244E+04 -1.61602E+04 -4.80127E+03 -1.55151E+04  3.89200E+03 -1.30471E+04  1.14598E+04 -1.31911E+04
  1.95227E+04 -1.12493E+04  2.63382E+04  7.50938E+02  2.05016E+04  1.49328E+04  4.03542E+03  3.12632E+04
 -1.55506E+04  2.68682E+04 -2.51398E+04  9.00878E+03 -1.94006E+04 -1.06555E+04 -3.95898E+03 -1.42053E+04
  2.93407E+03 -4.62938E+03 -1.82490E+03  4.97014E+03 -1.17494E+04  5.29562E+03 -1.24530E+04 -4.28530E+03
 -8.18192E+03 -1.43697E+04  4.37424E+03 -1.83475E+04  1.16127E+04 -1.32323E+04  1.35520E+04 -1.30981E+03
  8.06269E+03  1.00737E+04 -8.10531E+02  1.48291E+04 -9.46311E+03  8.02849E+03 -1.41542E+04 -2.94964E+03
 -1.08726E+04 -1.28326E+04 -1.59291E+03 -1.74753E+04  8.14069E+03 -1.42039E+04  1.54610E+04 -6.61095E+03
  1.37794E+04  9.06963E+02  9.64327E+03  3.72210E+03  4.75504E+03  3.67179E+02  6.86094E+03 -1.16485E+03
  1.27777E+04  2.57746E+03  1.33623E+04  1.19705E+04  8.00106E+03  2.30177E+04 -3.21037E+03  2.43493E+04
 -1.44422E+04  1.81588E+04 -2.21656E+04  8.24427E+03 -2.21680E+04 -1.44649E+03 -1.94473E+04 -1.27041E+04
 -9.76163E+03 -1.81511E+04  5.88886E+03 -1.72622E+04  1.51047E+04 -1.00470E+04  1.43115E+04  3.22312E+03
  6.35379E+03  1.02452E+04 -6.45670E+03  9.72993E+03 -1.25843E+04  2.63469E+03 -9.78259E+03 -7.26303E+03
 -3.23943E+02 -1.16497E+04  5.65419E+03 -8.75328E+03  7.37448E+03 -1.44074E+03  9.92189E+02  4.38246E+03
 -5.00842E+03  1.05900E+03 -3.04287E+03 -4.30820E+03  8.86707E+02 -9.12042E+03  7.38775E+03 -8.83482E+03
  1.09094E+04 -3.83830E+03  1.02161E+04  2.92342E+03  8.76379E+03  8.36436E+03  4.45400E+03  1.23530E+04
 -1.22251E+03  1.41372E+04 -8.39691E+03  9.10867E+03 -9.64718E+03  2.72022E+03 -7.64372E+03 -1.19703E+03
 -4.27084E+03 -2.69456E+03 -7.70201E+02  1.73729E+03 -2.03862E+03  1.80446E+03 -3.44407E+03  3.25552E+03
 -7.49392E+03 -2.69509E+02 -7.98417E+03 -6.70255E+03 -3.05581E+03 -1.06408E+04  3.22255E+03 -7.84325E+03
  6.31797E+03 -3.67376E+03  5.04281E+03  1.92975E+03  7.72615E+02  2.54336E+03 -2.97265E+03 -1.63339E+02
 -3.08880E+03 -4.65110E+03 -6.98282E+02 -6.44812E+03  3.42859E+03 -6.73570E+03  8.75616E+03 -3.62742E+03
  1.03238E+04  4.23968E+02  7.79914E+03  5.28087E+03  1.27519E+03  7.52137E+03 -4.55511E+03  7.63021E+03
 -6.49370E+03  2.52312E+03 -2.93885E+03 -7.92266E+02  1.21818E+03 -1.58285E+03  4.28221E+03 -9.74153E+02
  3.55527E+03  3.00712E+03  1.05937E+03  5.73174E+03 -3.95144E+03  5.72677E+03 -7.04359E+03  1.67793E+03
 -4.05516E+03 -3.23490E+03  1.96283E+02 -5.99932E+03  3.41600E+03 -2.60334E+03  2.78831E+03  8.25268E+02
  7.19456E+01  2.65059E+03 -3.79267E+03  3.92342E+03 -3.61988E+03  1.98772E+03 -3.44452E+03 -3.76812E+02
 -2.41369E+03 -4.95864E+03  1.12406E+03 -5.96055E+03  5.06971E+03 -3.98803E+03  5.12294E+03  7.54478E+02
  4.11641E+03  4.32971E+03  2.47518E+02  6.35849E+03 -4.28974E+03  3.65719E+03 -4.70769E+03 -2.20027E+02
 -5.17376E+03 -4.37208E+03 -1.23249E+03 -4.35122E+03  1.77660E+03 -4.21194E+03  2.28930E+03 -2.85169E+03
  2.54842E+03  7.76617E+01  8.21465E+01  1.17249E+03  7.99788E+02  1.90790E+02 -2.92193E+02 -1.17634E+03
  3.02300E+03 -4.64021E+02  4.10054E+03  5.58137E+02  4.51150E+03  2.24380E+03  4.94264E+03  5.75028E+03
 -6.83604E+02  6.97532E+03 -6.45094E+03  5.20784E+03 -8.23640E+03  7.63061E+02 -6.64360E+03 -1.98223E+03
 -3.62136E+03 -5.56596E+03 -6.18138E+02 -4.47922E+03  1.73685E+03 -1.58374E+03  1.44864E+03 -1.67592E+03
  9.43788E+02 -8.28573E+02  1.76446E+03 -2.22743E+03  3.29008E+03 -1.18261E+03  3.16851E+03  6.28905E+02
  4.16046E+03  1.05531E+03  8.44701E+02  2.78593E+03 -1.41195E+03  2.03913E+03 -3.93946E+03  2.11983E+03
 -3.96370E+03 -9.53051E+02 -1.01658E+03 -2.93661E+03  5.34192E+02 -4.03566E+03  2.77519E+03 -4.40676E+03
  3.96114E+03 -2.84483E+03  5.46355E+03  8.92342E+00  4.02528E+03  3.33836E+03  1.17606E+03  4.90162E+03
 -1.99747E+03  5.11894E+03 -2.59798E+03  1.61572E+03 -1.21432E+03 -7.71992E+02 -3.53787E+02 -2.21906E+02
 -5.24728E+02  4.89862E+02 -7.08683E+02  1.71335E+03 -2.14980E+03  9.13576E+02 -3.49994E+03 -5.61279E+02
 -1.04693E+03 -3.51990E+03  8.04406E+02 -3.72633E+03  2.30172E+03 -3.39938E+03  2.69359E+03 -4.64829E+02
  3.01470E+03  1.81749E+03  1.38207E+03  2.36862E+03 -8.01589E+02  3.45913E+03 -1.91965E+03  2.39867E+03
 -3.15437E+03  5.99964E+02 -2.91133E+03 -1.92446E+03 -4.06102E+02 -2.30556E+03  9.37134E+02 -1.57687E+03
  2.30665E+03 -1.02939E+03  1.68854E+03  4.35708E+02  7.05866E+01  1.32783E+03  9.31254E+02  5.79344E+02
  1.58731E+03  7.73523E+02  9.79028E+02  1.02054E+03  4.10084E+02  1.88202E+03  1.26800E+03  1.31110E+03
 -1.16088E+03  2.10889E+03 -1.73406E+03  3.49465E+03 -2.06476E+03  1.12056E+03 -3.36331E+03  2.66352E+00
 -1.34752E+03 -3.24857E+03  3.24340E+02 -3.70735E+03  1.40455E+03 -2.07908E+03  2.21549E+03 -6.39916E+02
  1.97886E+03  1.42419E+03  4.24025E+02  1.75361E+03 -4.75868E+02  1.08546E+03 -7.05722E+02 -1.90726E+02
 -4.94192E+02 -1.13688E+03  9.94836E+02 -8.96346E+02  7.95347E+02 -8.71728E+02  7.72857E+02  2.95820E+02
  7.37805E+02 -2.99160E+01  6.36184E+02 -7.02055E+02 -2.50945E+02  6.96941E+02  1.67314E+03 -4.40615E+01
 -2.11731E+02 -3.16723E+01  1.53042E+03  4.18409E+02 -1.74419E+02  2.12466E+03 -2.11208E+02  2.25505E+03
 -1.39022E+03  6.91968E+02 -1.42165E+03 -3.38604E+01 -1.59283E+03 -4.68510E+02 -7.27864E+01 -7.91365E+02
  4.10882E+02 -1.20680E+03  1.06722E+03 -6.58502E+02  4.02265E+02  1.17473E+03 -5.31734E+02  8.59069E+02
 -9.07275E+02  4.32640E+02 -6.55554E+02 -1.34027E+03 -5.02512E+02 -1.38593E+03 -4.81112E+01 -1.13039E+03
  1.75839E+02 -3.23682E+02  7.32528E+02  9.81060E+01  1.03158E+03 -4.04138E+01  2.95053E+02  8.45831E+02
  1.14988E+02 -1.76925E+02 -1.00415E+03  5.86312E+01  7.91441E+02 -2.30227E+02  1.24888E+03 -5.02319E+02
  8.02036E+02 -2.40916E+02  2.17735E+03  2.41424E+01  8.70739E+02  1.02252E+03 -4.48770E+02  1.34020E+03
 -9.96268E+02  4.83615E+01 -6.40480E+02 -9.47618E+01 -6.98234E+02 -9.11110E+02  1.28167E+02 -2.96789E+02
  9.57189E+02 -5.28262E+02  4.71162E+02  5.83244E+02  1.92777E+02  8.13147E+02  1.60593E+02  1.15319E+03
 -3.99591E+02  9.34030E+02 -2.14062E+02  3.77983E+02  1.66455E+01  3.55462E+02 -7.44843E+02  3.03776E+02
 -5.72073E+02  6.43282E+02 -1.76532E+03  2.66500E+02 -1.32381E+03  3.47259E+01 -1.84901E+03 -8.39672E+02
 -6.35741E+02 -1.76211E+03  4.35707E+02 -2.01098E+03  3.78774E+02 -1.90220E+03  2.00263E+03 -9.11341E+02
  1.98372E+03 -3.11293E+02  1.04317E+03  1.09481E+03 -4.12469E+02  8.27770E+02 -3.68717E+02  7.68544E+02
 -6.50440E+02  6.02527E+02 -3.93917E+02  1.00869E+01 -4.99737E+02  2.04110E+02 -7.46816E+02 -5.34353E+01
 -1.17775E+03 -2.25147E+02 -8.41102E+02 -7.18368E+01  3.65367E+02 -7.67368E+02 -3.18958E+02 -8.30843E+02
  1.04506E+03 -2.65944E+02  1.59280E+02  4.36029E+02  1.05587E+03  7.79495E+02 -6.89483E+02  9.11618E+02
 -8.47432E+02  1.86453E+03 -1.19555E+03  1.19905E+03 -1.27193E+03 -9.32796E+01 -9.36496E+02 -9.24170E+02
 -6.20911E+02 -9.08971E+02  7.26427E+01 -7.62798E+02 -7.72966E+01 -5.95252E+01  1.04822E+02  3.71814E+01
  8.47826E+02  4.29382E+02  1.25757E+02  1.46653E+02 -2.21132E+02 -4.40471E+01  1.72796E+02 -9.96354E+01
  1.02187E+02 -2.16807E+01  1.00133E+02  4.02901E+02 -6.15634E+01  2.69565E+02  5.89788E+02  1.11142E+02
 -2.86032E+02  3.01479E+02 -4.04789E+02 -6.99217E+01 -4.86846E+02 -1.73051E+02  1.29113E+02 -9.89499E+02
  4.25099E+02 -5.15089E+02  2.39169E+02  1.18203E+01  6.25946E+02 -7.21910E+02  2.85592E+02  5.38406E+02
  4.95822E+02  1.13320E+02 -7.86595E+01  1.47526E+02 -2.57530E+02  5.41450E+02 -2.23358E+02 -1.87455E+02
 -1.42634E+02  4.40578E+01 -2.85820E+02  1.54626E+02 -1.98991E+02  1.84780E+02 -5.49695E+02 -3.04759E+01
 -1.02447E+03  3.40489E+02 -9.33369E+01 -1.02518E+03  5.83947E+02 -1.35844E+03  6.77887E+02 -3.61914E+02
  3.58918E+02 -8.59679E+01 -4.40190E+02  5.76153E+01  1.11419E+02  6.02328E+02 -3.81926E+02  7.11435E+02
