 $NMID ID='MM_0lb_SNR800_9hz_g45_68.RAW', FMTDAT='(8E13.5)'
 TRAMP=1., VOLUME=1. $END
  3.10100E+05  2.27571E+02  3.37811E+05  2.51070E+05  8.44808E+04  3.38617E+05 -1.32925E+05  2.52028E+05
 -1.91137E+05  8.34188E+04 -1.12547E+05 -3.22929E+04  3.30990E+02 -5.08080E+04  5.37825E+04 -3.99347E+01
  3.57055E+04  5.29077E+04 -1.66695E+04  7.62609E+04 -6.16369E+04  6.39511E+04 -8.50375E+04  3.24741E+04
 -8.19890E+04 -1.15922E+04 -5.78152E+04 -5.21508E+04 -1.51735E+04 -7.10656E+04  2.78154E+04 -4.64117E+04
  4.10177E+04  3.65988E+03  1.65771E+04  4.83379E+04 -3.48840E+04  4.79177E+04 -6.80493E+04  8.60140E+01
 -5.41363E+04 -5.76018E+04 -7.62501E+03 -7.87757E+04  3.42593E+04 -5.65402E+04  4.96683E+04 -1.83021E+04
  4.51452E+04  1.17541E+04  3.28789E+04  2.63045E+04  1.56992E+04  3.05498E+04 -5.77988E+03  2.76392E+04
 -2.26250E+04  1.20081E+04 -1.82654E+04 -5.50935E+03  7.07441E+03 -7.26532E+03  2.34859E+04  1.36452E+04
  7.27225E+03  3.74534E+04 -3.37959E+04  3.71330E+04 -6.52333E+04  2.47853E+03 -5.89587E+04 -4.46873E+04
 -1.27015E+04 -6.57981E+04  4.17414E+04 -4.66558E+04  6.09569E+04 -2.58661E+03  3.65814E+04  3.41333E+04
 -5.73758E+03  3.92273E+04 -3.14013E+04  1.84199E+04 -3.33224E+04 -4.01443E+03 -1.90846E+04 -1.15199E+04
 -9.12501E+03 -1.48458E+04 -6.30687E+02 -1.94299E+04  8.44962E+03 -2.33353E+04  1.57952E+04 -1.26087E+04
  1.03545E+04  6.13656E+03 -1.04389E+04  1.25350E+04 -2.32506E+04 -6.73622E+03 -8.45654E+03 -3.71335E+04
  2.50771E+04 -4.65453E+04  5.16060E+04 -2.07157E+04  4.83681E+04  2.07860E+04  1.70292E+04  4.68301E+04
 -1.66701E+04  3.55044E+04 -2.74242E+04  2.82857E+03 -1.12524E+04 -2.92908E+04  2.16713E+04 -3.66762E+04
  4.40501E+04 -1.04151E+04  4.02056E+04  2.48894E+04  2.07630E+04  5.04878E+04 -8.19858E+03  5.56113E+04
 -3.49833E+04  3.75032E+04 -4.68359E+04  1.13277E+04 -4.72336E+04 -1.86885E+04 -2.60519E+04 -4.20655E+04
  7.72809E+03 -4.18068E+04  3.38974E+04 -1.71951E+04  3.22568E+04  1.13288E+04  5.00697E+03  2.06239E+04
 -1.40646E+04  9.63373E+03 -1.06300E+04 -7.26728E+03  6.10623E+03 -1.11384E+04  1.80553E+04  5.42034E+03
  1.49874E+04  2.25682E+04 -5.38142E+03  2.71024E+04 -2.30066E+04  1.44129E+04 -3.12920E+04 -3.32194E+03
 -2.50231E+04 -1.81145E+04 -1.15305E+04 -2.47540E+04  4.37128E+03 -2.55575E+04  1.92264E+04 -2.26640E+04
  3.14175E+04 -1.42632E+04  3.76996E+04  4.62252E+03  2.68144E+04  2.37008E+04  4.26869E+03  4.09083E+04
 -1.99577E+04  3.35828E+04 -3.05434E+04  1.18320E+04 -2.24377E+04 -1.00724E+04 -5.07017E+03 -1.27562E+04
  7.58237E+02 -1.38063E+03 -7.39588E+03  8.33516E+03 -1.98577E+04  5.09068E+03 -1.98301E+04 -9.25316E+03
 -1.14980E+04 -2.27379E+04  6.26370E+03 -2.72537E+04  1.81540E+04 -1.95147E+04  2.23085E+04 -1.91075E+03
  1.42050E+04  1.61713E+04 -1.28124E+03  2.26458E+04 -1.65451E+04  1.33661E+04 -2.36392E+04 -5.02309E+03
 -1.65584E+04 -2.08264E+04 -2.50472E+03 -2.79209E+04  1.24602E+04 -2.28884E+04  2.25536E+04 -1.20080E+04
  2.15772E+04  8.26010E+01  1.59017E+04  5.27083E+03  8.22706E+03  1.45450E+03  1.20370E+04 -2.29241E+03
  2.18314E+04  2.65900E+03  2.52950E+04  1.83493E+04  1.68783E+04  3.67181E+04 -2.58867E+03  4.35670E+04
 -2.43763E+04  3.63644E+04 -4.10625E+04  1.88727E+04 -4.33720E+04 -3.21693E+03 -3.53293E+04 -2.53745E+04
 -1.42857E+04 -3.64612E+04  1.27890E+04 -3.16836E+04  2.75440E+04 -1.51444E+04  2.32439E+04  7.64470E+03
  8.01209E+03  1.83129E+04 -1.14357E+04  1.53836E+04 -1.99755E+04  2.56534E+03 -1.50575E+04 -1.30347E+04
 -4.95107E+02 -1.90876E+04  1.03678E+04 -1.42034E+04  1.32066E+04 -1.55139E+03  3.14531E+03  8.85078E+03
 -8.63954E+03  3.81254E+03 -9.02679E+03 -6.76273E+03 -1.71209E+03 -1.76785E+04  1.18807E+04 -1.88738E+04
  2.23927E+04 -1.09924E+04  2.53421E+04  3.03125E+03  2.19443E+04  1.86520E+04  1.05184E+04  2.84644E+04
 -5.36026E+03  3.08511E+04 -1.94970E+04  1.93423E+04 -2.19757E+04  4.46186E+03 -1.51158E+04 -5.56731E+03
 -6.17924E+03 -7.17683E+03 -1.05043E+03  4.06711E+02 -2.69104E+03  3.55554E+03 -7.26824E+03  5.33021E+03
 -1.40034E+04 -1.16194E+03 -1.44157E+04 -1.15156E+04 -5.82824E+03 -1.88009E+04  5.88492E+03 -1.53614E+04
  1.26712E+04 -6.31860E+03  9.27339E+03  4.26481E+03 -5.78786E+01  6.25449E+03 -7.58768E+03 -1.31844E+01
 -7.45426E+03 -9.58827E+03 -1.33086E+03 -1.48687E+04  8.55739E+03 -1.54428E+04  1.96256E+04 -8.38757E+03
  2.27635E+04  2.01730E+03  1.69384E+04  1.44156E+04  2.76291E+03  1.86414E+04 -9.49947E+03  1.53788E+04
 -1.21684E+04  4.49155E+03 -6.80714E+03 -3.69058E+03  2.39628E+03 -4.06378E+03  7.83006E+03 -1.14054E+03
  7.03593E+03  6.98302E+03  1.45810E+03  1.23351E+04 -9.11621E+03  1.15041E+04 -1.51787E+04  2.61986E+03
 -1.05531E+04 -8.20220E+03 -2.12556E+02 -1.36533E+04  8.38730E+03 -6.67114E+03  9.31201E+03  3.19222E+03
  2.15377E+03  9.90864E+03 -7.99754E+03  1.09946E+04 -1.31624E+04  4.91861E+03 -1.33542E+04 -4.83480E+03
 -7.73489E+03 -1.54011E+04  3.96861E+03 -1.74995E+04  1.50644E+04 -1.03719E+04  1.67985E+04  2.73226E+03
  9.68621E+03  1.28771E+04 -1.46425E+03  1.54107E+04 -1.15009E+04  8.21451E+03 -1.26122E+04 -1.25400E+03
 -1.05311E+04 -1.04251E+04 -1.69469E+03 -1.19828E+04  5.93238E+03 -9.38414E+03  7.31337E+03 -3.73442E+03
  5.09584E+03  1.72307E+03 -1.66402E+03  1.90542E+03 -6.96799E+02 -3.21721E+03  2.61828E+03 -7.53482E+03
  1.12490E+04 -4.86064E+03  1.56255E+04  1.32588E+03  1.54522E+04  1.08634E+04  9.88581E+03  2.03318E+04
 -4.32513E+03  2.31278E+04 -1.92201E+04  1.72024E+04 -2.44194E+04  3.27933E+03 -2.03360E+04 -8.39500E+03
 -1.03032E+04 -1.67697E+04 -3.44112E+02 -1.42420E+04  5.07004E+03 -8.10365E+03  4.89354E+03 -5.32238E+03
  3.79180E+03 -2.99652E+03  4.01330E+03 -4.04243E+03  5.37791E+03 -3.32770E+03  8.14459E+03 -1.10320E+03
  1.02728E+04  1.99259E+03  5.55501E+03  9.19611E+03 -1.94228E+03  1.11894E+04 -1.09384E+04  7.91524E+03
 -1.43182E+04 -1.21885E+03 -9.49400E+03 -9.99178E+03 -8.38521E+02 -1.55917E+04  8.30283E+03 -1.51022E+04
  1.63760E+04 -8.27641E+03  1.90705E+04  2.38891E+03  1.29997E+04  1.33423E+04  2.02348E+03  1.72978E+04
 -7.46797E+03  1.42476E+04 -1.04266E+04  4.47603E+03 -7.13596E+03 -1.95416E+03 -2.89007E+03 -2.35714E+03
 -1.35391E+03 -3.61835E+01 -2.20937E+03  2.46004E+03 -6.10220E+03  2.58933E+03 -9.37983E+03 -1.66692E+03
 -7.13361E+03 -9.24956E+03 -1.98228E+01 -1.40426E+04  8.86665E+03 -1.34154E+04  1.43210E+04 -3.98752E+03
  1.43967E+04  6.73358E+03  6.73317E+03  1.27797E+04 -2.70481E+03  1.43641E+04 -1.02965E+04  8.95809E+03
 -1.38459E+04  4.41330E+02 -1.07831E+04 -8.45379E+03 -1.61369E+03 -1.20628E+04  6.44299E+03 -9.05430E+03
  9.12501E+03 -2.94790E+03  6.07611E+03  2.45233E+03  2.34912E+03  4.43214E+03  1.45236E+03  1.86151E+03
  3.01290E+03  1.33833E+03  3.32555E+03  1.79190E+03  4.23534E+03  5.05818E+03  3.80275E+03  7.64474E+03
 -3.11071E+03  1.14016E+04 -9.86676E+03  1.14183E+04 -1.48661E+04  3.15507E+03 -1.54891E+04 -5.91630E+03
 -7.27957E+03 -1.43877E+04  2.43047E+03 -1.60542E+04  9.16204E+03 -1.04803E+04  1.22719E+04 -2.82797E+03
  9.10261E+03  5.50425E+03  2.42269E+03  8.47593E+03 -3.98160E+03  5.27612E+03 -6.17677E+03 -9.98979E+02
 -2.70482E+03 -6.20575E+03  3.45446E+03 -6.94017E+03  6.13733E+03 -3.00788E+03  5.78071E+03  1.75034E+03
  3.05193E+03  3.02485E+03  1.74812E+03  2.71938E+03 -8.09671E+02  2.10860E+03  1.45397E+03 -4.81173E+01
  2.54545E+03 -8.71351E+02  6.10283E+03  2.21068E+03  3.62563E+03  8.13632E+03 -1.39785E+03  1.07030E+04
 -7.14196E+03  6.81163E+03 -9.30134E+03  2.15629E+03 -8.53585E+03 -3.00012E+03 -3.12629E+03 -5.80155E+03
  8.47435E+02 -5.62623E+03  3.74672E+03 -3.14680E+03  3.06050E+03  3.07538E+03 -1.67683E+03  5.11150E+03
 -5.98105E+03  2.83140E+03 -6.95637E+03 -3.38980E+03 -4.24287E+03 -7.97181E+03  8.45859E+02 -8.08973E+03
  5.04905E+03 -4.66005E+03  6.02485E+03 -3.69188E+02  4.85251E+03  2.12230E+03  1.52229E+02  4.33480E+03
 -3.06581E+03  1.52113E+03 -3.82628E+03 -2.77246E+03  1.36089E+03 -6.12096E+03  7.45313E+03 -5.22210E+03
  9.25837E+03  3.30014E+02  9.17474E+03  5.97163E+03  2.58817E+03  9.63528E+03 -3.55313E+03  9.03773E+03
 -8.16517E+03  3.76453E+03 -8.33755E+03 -1.24418E+03 -4.54991E+03 -6.44737E+03  1.79364E+03 -5.85170E+03
  5.88375E+03 -2.99131E+03  4.76376E+03  2.69327E+03  1.78868E+03  4.90233E+03 -5.26075E+02  4.57119E+03
 -2.63769E+03  3.02084E+03 -2.45505E+03  9.44930E+02 -1.31338E+03  1.14291E+03 -1.78027E+03  2.08427E+03
 -3.14828E+03  3.50152E+03 -6.68994E+03  3.29421E+03 -9.22719E+03  5.24420E+01 -1.09420E+04 -6.39870E+03
 -5.98957E+03 -1.30922E+04  2.77551E+03 -1.49651E+04  9.33715E+03 -1.15717E+04  1.43773E+04 -4.05323E+03
  1.31475E+04  2.65155E+03  7.92231E+03  9.10333E+03  5.03186E+02  9.97858E+03 -3.79750E+03  7.37599E+03
 -5.61769E+03  3.00837E+03 -3.40736E+03 -1.14939E+03 -1.22499E+03 -1.33100E+03 -8.67727E+02  6.72642E+01
 -1.79739E+03  5.52189E+02 -2.25823E+03 -3.41894E+02 -9.78648E+02 -2.09571E+03  3.37623E+02 -3.49681E+03
  4.41668E+03 -3.38646E+03  5.71110E+03  5.20216E+02  7.28876E+03  5.26778E+03  1.78449E+03  1.01138E+04
 -4.64223E+03  1.17751E+04 -1.08507E+04  7.03702E+03 -1.26921E+04 -1.28616E+03 -9.64362E+03 -7.69915E+03
 -3.67470E+03 -1.03770E+04  2.40901E+03 -9.52489E+03  6.89231E+03 -4.94795E+03  6.60370E+03 -1.16391E+02
  3.78976E+03  3.03706E+03 -5.28802E+02  3.17673E+03 -1.88737E+03 -4.49249E+02  9.13504E+01 -2.69618E+03
  3.14583E+03 -1.55946E+03  3.96644E+03  1.41916E+03  3.05468E+03  4.07751E+03 -1.87709E+01  5.17397E+03
 -4.34812E+03  4.83650E+03 -7.03620E+03  6.64919E+02 -6.14428E+03 -4.63315E+03 -9.07945E+02 -8.71963E+03
  4.93715E+03 -6.73469E+03  7.75617E+03 -2.22683E+03  7.79452E+03  1.95372E+03  4.75958E+03  6.21267E+03
  1.30675E+03  6.41447E+03 -2.49008E+03  5.49980E+03 -4.14563E+03  2.70405E+03 -3.77895E+03  3.13600E+02
 -1.69891E+03 -3.59753E+02 -2.04372E+03  5.39014E+02 -3.39579E+03  1.33077E+03 -5.50618E+03 -9.54183E+02
 -4.35351E+03 -3.72736E+03 -1.71744E+03 -6.37319E+03  3.21037E+03 -7.34699E+03  5.84621E+03 -3.41156E+03
  6.74995E+03  1.07549E+03  3.52686E+03  4.68500E+03 -7.65111E+02  6.72658E+03 -4.95566E+03  4.15956E+03
