 $NMID ID='MM_0lb_SNR800_15hz_g40_29.RAW', FMTDAT='(8E13.5)'
 TRAMP=1., VOLUME=1. $END
  3.09878E+05  6.16295E+02  3.37454E+05  2.50545E+05  8.45384E+04  3.37742E+05 -1.32589E+05  2.50689E+05
 -1.90087E+05  8.28865E+04 -1.11428E+05 -3.24728E+04  1.34128E+03 -5.03674E+04  5.38379E+04  7.08858E+00
  3.55350E+04  5.29316E+04 -1.68955E+04  7.52676E+04 -6.04272E+04  6.32431E+04 -8.37523E+04  3.18094E+04
 -8.04314E+04 -1.14476E+04 -5.69203E+04 -5.08963E+04 -1.50627E+04 -6.89155E+04  2.71013E+04 -4.53844E+04
  3.96254E+04  3.74775E+03  1.58540E+04  4.75313E+04 -3.40401E+04  4.66260E+04 -6.61241E+04 -5.27543E+02
 -5.28179E+04 -5.62770E+04 -6.49704E+03 -7.63423E+04  3.34925E+04 -5.41025E+04  4.70779E+04 -1.67821E+04
  4.26923E+04  1.13218E+04  3.10501E+04  2.49193E+04  1.60682E+04  2.89681E+04 -4.72679E+03  2.70009E+04
 -2.16946E+04  1.26222E+04 -1.87042E+04 -4.66215E+03  4.90288E+03 -7.32519E+03  2.15164E+04  1.16361E+04
  7.26380E+03  3.43667E+04 -3.12520E+04  3.46090E+04 -6.21935E+04  2.40637E+03 -5.62233E+04 -4.21108E+04
 -1.23114E+04 -6.18955E+04  3.91309E+04 -4.44543E+04  5.70621E+04 -2.16691E+03  3.30365E+04  3.15656E+04
 -5.97638E+03  3.46753E+04 -2.91957E+04  1.46714E+04 -2.91195E+04 -4.83918E+03 -1.53099E+04 -1.05812E+04
 -7.88398E+03 -1.19137E+04 -7.65670E+02 -1.72755E+04  6.96877E+03 -2.28212E+04  1.51727E+04 -1.37516E+04
  1.16867E+04  4.64077E+03 -7.36417E+03  1.27540E+04 -2.03696E+04 -3.43724E+03 -8.11322E+03 -3.23965E+04
  2.18308E+04 -4.22269E+04  4.63602E+04 -1.92789E+04  4.40095E+04  1.87570E+04  1.49877E+04  4.29262E+04
 -1.58630E+04  3.24511E+04 -2.43320E+04  1.29007E+03 -9.09937E+03 -2.72801E+04  2.05982E+04 -3.26050E+04
  3.98243E+04 -8.15247E+03  3.37052E+04  2.30488E+04  1.65498E+04  4.42340E+04 -8.11555E+03  4.80024E+04
 -3.01410E+04  3.21635E+04 -3.97765E+04  9.05400E+03 -4.09269E+04 -1.57845E+04 -2.25062E+04 -3.60389E+04
  7.22160E+03 -3.59410E+04  3.05367E+04 -1.38283E+04  2.80761E+04  1.09494E+04  3.29074E+03  1.85104E+04
 -1.32935E+04  7.80682E+03 -1.01558E+04 -7.81200E+03  5.82907E+03 -1.05915E+04  1.77409E+04  6.19734E+03
  1.28539E+04  2.17720E+04 -6.24746E+03  2.41170E+04 -2.20799E+04  1.03328E+04 -2.65385E+04 -5.34127E+03
 -1.89044E+04 -1.70286E+04 -7.00694E+03 -1.88442E+04  3.86821E+03 -1.73965E+04  1.40679E+04 -1.65059E+04
  2.39205E+04 -1.23285E+04  3.03636E+04  2.25027E+03  2.25790E+04  1.82964E+04  4.48799E+03  3.46216E+04
 -1.67315E+04  2.90399E+04 -2.68868E+04  1.01950E+04 -2.03107E+04 -1.04752E+04 -4.33674E+03 -1.37947E+04
  2.25198E+03 -3.54740E+03 -3.80227E+03  6.13840E+03 -1.48374E+04  5.13925E+03 -1.50510E+04 -6.12261E+03
 -9.41330E+03 -1.76534E+04  4.84385E+03 -2.13913E+04  1.42590E+04 -1.55179E+04  1.63857E+04 -1.81405E+03
  1.01785E+04  1.19656E+04 -8.37915E+02  1.76206E+04 -1.18618E+04  9.81724E+03 -1.74953E+04 -3.55936E+03
 -1.27159E+04 -1.59118E+04 -1.42461E+03 -2.08922E+04  9.46730E+03 -1.73233E+04  1.79974E+04 -8.37368E+03
  1.64841E+04  7.06830E+02  1.14558E+04  4.06396E+03  5.96024E+03  7.37105E+02  9.06681E+03 -1.56986E+03
  1.58476E+04  2.32104E+03  1.75022E+04  1.42044E+04  1.09330E+04  2.78597E+04 -3.17816E+03  3.12486E+04
 -1.79733E+04  2.45760E+04 -2.89361E+04  1.19501E+04 -2.95716E+04 -2.29115E+03 -2.51848E+04 -1.68085E+04
 -1.13013E+04 -2.44849E+04  8.44376E+03 -2.22499E+04  1.93575E+04 -1.20160E+04  1.78510E+04  4.75036E+03
  6.78332E+03  1.30129E+04 -8.05817E+03  1.17966E+04 -1.46497E+04  2.58092E+03 -1.16793E+04 -9.19018E+03
 -9.59279E+01 -1.40275E+04  7.11508E+03 -1.06580E+04  8.95804E+03 -1.61351E+03  1.95107E+03  5.96985E+03
 -6.45667E+03  2.04069E+03 -5.01699E+03 -5.09957E+03  3.29007E+02 -1.18656E+04  8.69097E+03 -1.21959E+04
  1.47460E+04 -6.18040E+03  1.57236E+04  2.74904E+03  1.32641E+04  1.14359E+04  6.35123E+03  1.76881E+04
 -2.81626E+03  1.95923E+04 -1.20427E+04  1.19478E+04 -1.39354E+04  3.52925E+03 -1.00774E+04 -2.53524E+03
 -4.86509E+03 -4.36577E+03 -8.75613E+02  9.78283E+02 -2.15798E+03  2.73558E+03 -4.46130E+03  3.92348E+03
 -9.67446E+03 -8.26894E+02 -1.03886E+04 -8.21111E+03 -4.02210E+03 -1.34821E+04  4.31592E+03 -1.02500E+04
  8.57008E+03 -4.33199E+03  6.41981E+03  2.45401E+03 -3.04295E+01  3.94600E+03 -4.17347E+03 -1.37647E+02
 -4.22047E+03 -5.89224E+03 -6.47298E+02 -9.08931E+03  4.98313E+03 -9.74437E+03  1.23364E+04 -5.36038E+03
  1.45178E+04  1.15333E+03  1.06238E+04  8.08405E+03  2.21771E+03  1.09592E+04 -6.49470E+03  9.82787E+03
 -8.27634E+03  2.98949E+03 -4.09448E+03 -1.78817E+03  1.30714E+03 -2.36593E+03  5.66795E+03 -1.17651E+03
  5.09205E+03  4.19054E+03  1.23971E+03  7.86471E+03 -5.69473E+03  7.33713E+03 -9.76169E+03  2.11904E+03
 -6.05815E+03 -4.64619E+03  3.33725E+02 -8.32870E+03  4.73945E+03 -4.19841E+03  4.89065E+03  1.29896E+03
  8.04400E+02  4.83880E+03 -5.04313E+03  6.41341E+03 -6.72110E+03  2.88775E+03 -6.77603E+03 -1.87167E+03
 -4.14261E+03 -8.30684E+03  2.08497E+03 -9.65300E+03  8.31913E+03 -6.05998E+03  9.02692E+03  1.34680E+03
  5.96374E+03  7.23715E+03 -3.41595E+02  9.17131E+03 -6.27515E+03  5.29807E+03 -7.02490E+03 -6.50619E+02
 -6.82582E+03 -6.45495E+03 -1.66938E+03 -6.89322E+03  3.18460E+03 -5.76113E+03  4.03410E+03 -3.09360E+03
  3.14183E+03  9.34691E+02  2.36876E+02  1.54925E+03  5.44763E+01 -9.32883E+02  6.64222E+02 -3.43447E+03
  5.74477E+03 -1.44802E+03  7.52748E+03  9.63380E+02  7.83924E+03  5.17971E+03  6.48758E+03  1.05089E+04
 -2.02158E+03  1.19669E+04 -1.06104E+04  8.86307E+03 -1.34975E+04  1.73758E+03 -1.07752E+04 -4.16522E+03
 -5.26745E+03 -9.00414E+03 -2.66414E+02 -7.31984E+03  2.78145E+03 -3.54946E+03  2.78568E+03 -2.78495E+03
  2.14053E+03 -1.95506E+03  2.51357E+03 -2.61758E+03  4.01375E+03 -1.93727E+03  4.54952E+03  2.47071E+02
  6.01843E+03  1.59625E+03  2.22469E+03  4.16355E+03 -1.64887E+03  5.18419E+03 -5.91579E+03  3.64688E+03
 -7.33367E+03 -9.48056E+02 -3.20166E+03 -4.60852E+03 -1.35336E+02 -7.41586E+03  4.46773E+03 -7.67073E+03
  7.60366E+03 -4.63561E+03  9.80925E+03  7.38305E+02  6.70389E+03  5.98563E+03  1.57304E+03  8.60018E+03
 -3.36314E+03  7.92899E+03 -4.75561E+03  2.55660E+03 -2.85630E+03 -1.17854E+03 -1.08751E+03 -9.54761E+02
 -7.49114E+02  4.73659E+02 -1.10567E+03  2.49642E+03 -3.42229E+03  1.10751E+03 -5.54957E+03 -4.56115E+02
 -3.13521E+03 -5.31257E+03  8.24876E+02 -6.69362E+03  3.78668E+03 -6.61032E+03  5.93182E+03 -1.67197E+03
  6.28709E+03  3.65775E+03  2.90446E+03  5.30581E+03 -1.13311E+03  6.63230E+03 -4.36664E+03  4.20394E+03
 -5.63043E+03  7.51087E+02 -4.83713E+03 -3.73320E+03 -4.70714E+02 -5.04571E+03  2.49787E+03 -3.98180E+03
  4.36631E+03 -1.69182E+03  3.24782E+03  1.00579E+03  8.97644E+02  2.11301E+03  9.11399E+02  9.71488E+02
  1.82507E+03  6.40678E+02  1.75035E+03  1.26321E+03  1.59348E+03  2.91843E+03  1.89116E+03  3.11819E+03
 -1.51555E+03  4.84600E+03 -4.36802E+03  5.72742E+03 -5.89376E+03  1.41545E+03 -6.59051E+03 -1.43312E+03
 -3.02501E+03 -6.23264E+03  9.13697E+02 -7.15005E+03  3.29885E+03 -4.09205E+03  5.24061E+03 -1.00573E+03
  4.04373E+03  2.53763E+03  6.99575E+02  3.42375E+03 -1.32609E+03  2.06813E+03 -1.98982E+03 -1.31738E+02
 -8.94773E+02 -2.81527E+03  1.68990E+03 -2.66549E+03  2.26065E+03 -1.55074E+03  2.23765E+03  6.55923E+02
  1.28244E+03  9.47843E+02  1.12298E+03  4.68963E+02 -5.46912E+02  1.11447E+03  1.59713E+03 -3.95265E+02
  4.52642E+02 -2.81698E+02  2.65060E+03  9.15337E+02  8.81814E+02  3.55208E+03 -4.26777E+02  4.45459E+03
 -2.53517E+03  2.35708E+03 -3.52709E+03  6.92342E+02 -3.37097E+03 -1.22319E+03 -8.69547E+02 -1.83745E+03
  2.81317E+02 -2.17213E+03  1.66456E+03 -1.29937E+03  1.36938E+03  1.92784E+03 -7.25812E+02  1.86185E+03
 -2.54249E+03  1.26879E+03 -2.61769E+03 -2.13299E+03 -1.00011E+03 -3.19119E+03  4.20804E+02 -2.68249E+03
  1.42402E+03 -1.24598E+03  2.00556E+03 -1.28761E+02  2.18676E+03  6.14775E+02  3.91275E+02  1.78811E+03
 -1.45495E+03  1.47404E+02 -1.37812E+03 -3.28438E+02  9.53257E+02 -2.12722E+03  3.18780E+03 -1.75289E+03
  2.84535E+03  1.90418E+02  3.90758E+03  1.91098E+03  1.75665E+03  3.29201E+03 -1.04044E+03  3.61816E+03
 -2.68915E+03  1.09505E+03 -2.91230E+03 -4.22329E+02 -1.60534E+03 -2.32044E+03  3.85286E+02 -1.76525E+03
  2.23214E+03 -1.09109E+03  1.60756E+03  9.60873E+02  4.16731E+02  2.14967E+03  7.28266E+01  1.60904E+03
 -6.95129E+02  1.68842E+03 -7.79409E+02  1.32187E+02 -1.66211E+02  2.71795E+02 -8.84939E+02  5.14942E+02
 -9.12028E+02  1.72912E+03 -2.74141E+03  9.08276E+02 -3.44648E+03 -6.29941E+01 -4.24260E+03 -2.08933E+03
 -1.84465E+03 -4.59236E+03  8.67780E+02 -5.37213E+03  2.50509E+03 -4.23873E+03  4.96232E+03 -1.64325E+03
  4.64365E+03  1.62271E+02  2.52571E+03  3.13138E+03 -5.64529E+02  3.24880E+03 -1.53839E+03  2.48583E+03
 -1.95781E+03  1.05322E+03 -9.50303E+02 -3.58943E+02 -4.24457E+02  2.76771E+02 -5.73080E+02 -1.09249E+02
 -9.21455E+02 -7.79579E+01 -1.18669E+03 -2.56756E+02 -1.94827E+00 -1.50896E+03 -3.19744E+02 -1.04716E+03
  2.02553E+03 -1.13202E+03  1.48109E+03  2.21871E+02  2.29472E+03  2.11326E+03 -1.97512E+02  3.08389E+03
 -1.76243E+03  3.94386E+03 -3.14558E+03  2.21055E+03 -3.81777E+03 -4.11048E+02 -2.77188E+03 -2.57206E+03
 -1.52914E+03 -3.05267E+03  5.95984E+02 -2.85217E+03  1.88555E+03 -1.40704E+03  1.76865E+03  2.83159E+01
  1.26164E+03  9.61438E+02 -7.85984E+01  1.08207E+03 -2.96725E+02 -1.65667E+02  1.65561E+02 -4.80901E+02
  1.21015E+03  2.20581E+02  1.00262E+03  4.21955E+02  5.43728E+02  1.15803E+03  4.64456E+02  1.21614E+03
 -1.37901E+03  1.25719E+03 -1.45378E+03  7.42433E+00 -1.86398E+03 -1.21885E+03 -3.28220E+02 -2.27746E+03
  1.21738E+03 -1.69688E+03  2.00690E+03 -2.07217E+02  2.00347E+03  4.90750E+01  9.97344E+02  1.68418E+03
  5.84810E+02  1.67720E+03 -5.37477E+02  1.43235E+03 -1.37666E+03  1.08307E+03 -9.43025E+02  1.52320E+02
 -1.94259E+02 -1.99473E+02 -8.29335E+02  1.90417E+02 -1.19281E+03  1.82194E+02 -1.67263E+03 -3.41694E+02
 -1.99111E+03 -2.52128E+02 -3.70529E+02 -2.10919E+03  9.15212E+02 -2.31976E+03  1.76243E+03 -7.10464E+02
  1.98709E+03  7.68395E+01  3.46105E+02  9.64772E+02 -2.76882E+02  1.91367E+03 -1.47377E+03  1.55976E+03
