 $NMID ID='MM_0lb_SNR800_11hz_g55_60.RAW', FMTDAT='(8E13.5)'
 TRAMP=1., VOLUME=1. $END
  3.09780E+05  1.77621E+02  3.37618E+05  2.50588E+05  8.49774E+04  3.38085E+05 -1.32626E+05  2.52013E+05
 -1.90592E+05  8.38531E+04 -1.12515E+05 -3.21193E+04  5.49228E+02 -5.08987E+04  5.36277E+04 -5.52771E+02
  3.58628E+04  5.25155E+04 -1.63751E+04  7.59187E+04 -6.10796E+04  6.42435E+04 -8.50952E+04  3.26998E+04
 -8.24478E+04 -1.15170E+04 -5.84708E+04 -5.23859E+04 -1.52334E+04 -7.09300E+04  2.79008E+04 -4.65084E+04
  4.08651E+04  3.93191E+03  1.67338E+04  4.86819E+04 -3.51137E+04  4.75678E+04 -6.78016E+04  6.33889E+01
 -5.42147E+04 -5.77401E+04 -6.73739E+03 -7.86086E+04  3.46751E+04 -5.62842E+04  4.90987E+04 -1.81934E+04
  4.51991E+04  1.15801E+04  3.24629E+04  2.64680E+04  1.59810E+04  3.02479E+04 -5.77625E+03  2.76151E+04
 -2.24224E+04  1.19141E+04 -1.82187E+04 -5.35093E+03  6.49324E+03 -7.21507E+03  2.30701E+04  1.34766E+04
  7.56908E+03  3.67965E+04 -3.34393E+04  3.65896E+04 -6.53644E+04  1.93934E+03 -5.84018E+04 -4.40968E+04
 -1.26340E+04 -6.50112E+04  4.10593E+04 -4.69321E+04  6.07475E+04 -2.54866E+03  3.59449E+04  3.36462E+04
 -5.48962E+03  3.83085E+04 -3.13672E+04  1.81837E+04 -3.28121E+04 -3.90827E+03 -1.85816E+04 -1.15396E+04
 -9.22034E+03 -1.45070E+04 -7.55828E+02 -1.93161E+04  8.18476E+03 -2.33758E+04  1.57268E+04 -1.27479E+04
  1.11829E+04  5.55814E+03 -1.00856E+04  1.27978E+04 -2.27609E+04 -5.98346E+03 -8.46512E+03 -3.66534E+04
  2.44995E+04 -4.56286E+04  5.09641E+04 -2.01683E+04  4.76993E+04  2.06254E+04  1.66178E+04  4.62263E+04
 -1.63271E+04  3.52035E+04 -2.68793E+04  2.51458E+03 -1.11932E+04 -2.92648E+04  2.14170E+04 -3.60385E+04
  4.35900E+04 -1.08150E+04  3.89503E+04  2.47513E+04  2.04106E+04  4.98539E+04 -7.95231E+03  5.44381E+04
 -3.43105E+04  3.69195E+04 -4.59775E+04  1.06642E+04 -4.62321E+04 -1.76470E+04 -2.53093E+04 -4.09689E+04
  7.51302E+03 -4.08757E+04  3.33939E+04 -1.65162E+04  3.17200E+04  1.12855E+04  4.60273E+03  2.06507E+04
 -1.40512E+04  9.50557E+03 -1.06526E+04 -7.62006E+03  5.45518E+03 -1.12063E+04  1.87636E+04  5.64312E+03
  1.46644E+04  2.25629E+04 -4.98321E+03  2.64641E+04 -2.30389E+04  1.32163E+04 -3.05847E+04 -3.33997E+03
 -2.42207E+04 -1.80028E+04 -1.07724E+04 -2.35873E+04  3.94497E+03 -2.39049E+04  1.84939E+04 -2.18655E+04
  2.98228E+04 -1.39475E+04  3.67584E+04  4.60595E+03  2.60772E+04  2.27781E+04  4.00254E+03  3.97402E+04
 -1.91478E+04  3.32071E+04 -2.96808E+04  1.14262E+04 -2.20495E+04 -1.04946E+04 -4.68397E+03 -1.29846E+04
  8.76654E+02 -1.79684E+03 -6.61706E+03  7.43351E+03 -1.90860E+04  5.21740E+03 -1.94237E+04 -8.96510E+03
 -1.15585E+04 -2.17937E+04  5.67039E+03 -2.62003E+04  1.76916E+04 -1.88767E+04  2.10748E+04 -1.49626E+03
  1.35240E+04  1.49941E+04 -1.30791E+03  2.21011E+04 -1.61037E+04  1.25189E+04 -2.25269E+04 -4.68762E+03
 -1.63156E+04 -1.97877E+04 -2.02527E+03 -2.63870E+04  1.20995E+04 -2.20998E+04  2.21129E+04 -1.10306E+04
  2.04708E+04 -2.04238E+02  1.50844E+04  5.40614E+03  8.42573E+03  1.18036E+03  1.17177E+04 -2.04195E+03
  2.07093E+04  2.78291E+03  2.37951E+04  1.75192E+04  1.60029E+04  3.54876E+04 -2.35840E+03  4.11855E+04
 -2.37683E+04  3.40516E+04 -3.91610E+04  1.75253E+04 -4.12223E+04 -3.39926E+03 -3.39344E+04 -2.41042E+04
 -1.37137E+04 -3.43532E+04  1.20792E+04 -3.06880E+04  2.61372E+04 -1.42961E+04  2.25883E+04  7.28349E+03
  7.94851E+03  1.73978E+04 -1.05219E+04  1.42767E+04 -1.91459E+04  2.48888E+03 -1.45192E+04 -1.20664E+04
 -4.57741E+02 -1.81636E+04  9.73517E+03 -1.35290E+04  1.29029E+04 -1.33636E+03  2.80709E+03  8.17347E+03
 -8.27055E+03  3.70588E+03 -8.19027E+03 -6.68904E+03 -1.28185E+03 -1.69905E+04  1.13569E+04 -1.75069E+04
  2.11191E+04 -1.00423E+04  2.38840E+04  3.35360E+03  2.08591E+04  1.69494E+04  9.19281E+03  2.62617E+04
 -5.23125E+03  2.81924E+04 -1.82932E+04  1.75314E+04 -2.05002E+04  3.96468E+03 -1.41667E+04 -4.89708E+03
 -6.02682E+03 -6.14148E+03 -6.14129E+02  4.91277E+02 -2.69118E+03  3.25537E+03 -6.48492E+03  5.36764E+03
 -1.30025E+04 -9.31014E+02 -1.33511E+04 -1.04730E+04 -5.17392E+03 -1.78895E+04  5.69031E+03 -1.42799E+04
  1.17707E+04 -5.88383E+03  8.53870E+03  3.73379E+03 -1.69554E+02  5.54210E+03 -7.22104E+03 -2.01947E+02
 -6.83214E+03 -9.00235E+03 -1.25733E+03 -1.42089E+04  8.10716E+03 -1.47331E+04  1.80990E+04 -8.10072E+03
  2.12801E+04  2.18537E+03  1.54310E+04  1.25050E+04  3.21890E+03  1.68840E+04 -8.74651E+03  1.40937E+04
 -1.15058E+04  4.29905E+03 -5.75389E+03 -3.21147E+03  2.18316E+03 -3.85103E+03  7.56294E+03 -1.16508E+03
  6.88425E+03  6.18367E+03  1.30712E+03  1.16702E+04 -8.29426E+03  1.10140E+04 -1.44212E+04  2.38259E+03
 -9.38088E+03 -7.33666E+03  2.70412E+02 -1.19912E+04  7.77558E+03 -6.21793E+03  7.95555E+03  2.73543E+03
  2.22007E+03  8.51053E+03 -7.44346E+03  9.69918E+03 -1.19835E+04  4.59840E+03 -1.19414E+04 -3.75913E+03
 -6.90700E+03 -1.36884E+04  3.31801E+03 -1.59465E+04  1.33317E+04 -9.64484E+03  1.45881E+04  2.50970E+03
  9.00513E+03  1.14657E+04 -1.26321E+03  1.40318E+04 -1.01751E+04  7.83781E+03 -1.09519E+04 -8.92507E+02
 -9.39313E+03 -9.41974E+03 -1.94766E+03 -1.09410E+04  5.54622E+03 -8.27346E+03  6.93810E+03 -3.56341E+03
  4.67856E+03  1.64712E+03 -6.67582E+02  1.74386E+03 -4.45301E+02 -2.66375E+03  1.96238E+03 -6.22309E+03
  9.45840E+03 -3.79165E+03  1.34216E+04  1.34609E+03  1.32104E+04  9.51453E+03  9.17687E+03  1.79906E+04
 -4.15263E+03  2.03021E+04 -1.71796E+04  1.52911E+04 -2.21345E+04  2.61492E+03 -1.79007E+04 -7.51937E+03
 -8.93634E+03 -1.48248E+04 -5.65899E+02 -1.23214E+04  4.51620E+03 -6.95842E+03  4.71824E+03 -4.50655E+03
  3.34548E+03 -2.68008E+03  3.50593E+03 -3.40989E+03  5.30301E+03 -3.24375E+03  6.88849E+03 -9.23378E+02
  9.35828E+03  1.92451E+03  4.44820E+03  8.03227E+03 -1.71358E+03  9.53855E+03 -9.72892E+03  7.11475E+03
 -1.24538E+04 -1.27457E+03 -7.45431E+03 -8.90759E+03 -1.13873E+03 -1.33097E+04  7.14321E+03 -1.31621E+04
  1.35508E+04 -7.14717E+03  1.64917E+04  1.88040E+03  1.12413E+04  1.14915E+04  1.70718E+03  1.47480E+04
 -6.56735E+03  1.22298E+04 -8.74561E+03  4.23781E+03 -5.70037E+03 -1.60245E+03 -2.47753E+03 -1.57992E+03
 -1.17688E+03 -3.23852E+02 -2.10549E+03  2.67949E+03 -4.98636E+03  2.12613E+03 -8.85697E+03 -9.26130E+02
 -6.04227E+03 -8.65384E+03  3.75537E+02 -1.20031E+04  7.35375E+03 -1.09555E+04  1.17699E+04 -3.31592E+03
  1.19604E+04  5.93775E+03  5.45989E+03  1.08811E+04 -2.56187E+03  1.22471E+04 -9.00776E+03  7.42904E+03
 -1.14362E+04  4.80005E+02 -8.88929E+03 -7.00956E+03 -1.24351E+03 -1.00744E+04  4.99731E+03 -7.42835E+03
  7.48600E+03 -2.47713E+03  5.52403E+03  2.12586E+03  1.70765E+03  3.74504E+03  1.48646E+03  1.57776E+03
  2.57368E+03  1.00926E+03  3.27174E+03  1.74483E+03  3.72931E+03  4.57828E+03  3.40049E+03  6.01746E+03
 -1.90682E+03  9.26116E+03 -8.40767E+03  9.48198E+03 -1.20669E+04  2.89312E+03 -1.28707E+04 -4.86599E+03
 -6.07111E+03 -1.17809E+04  1.79746E+03 -1.33424E+04  7.11791E+03 -8.29909E+03  9.81665E+03 -1.83592E+03
  7.95812E+03  4.63791E+03  1.75287E+03  7.19782E+03 -3.25443E+03  4.20711E+03 -4.73001E+03 -6.85883E+02
 -2.27015E+03 -5.07946E+03  2.92559E+03 -5.23813E+03  4.72941E+03 -2.68293E+03  4.71891E+03  7.65769E+02
  2.82113E+03  2.28696E+03  1.41050E+03  1.65833E+03 -1.07996E+03  1.61705E+03  1.79424E+03 -5.52618E+02
  2.10560E+03 -4.15373E+02  4.94656E+03  1.78601E+03  2.43592E+03  6.67185E+03 -6.36790E+02  7.94374E+03
 -5.69247E+03  5.22568E+03 -7.57522E+03  1.34817E+03 -7.09868E+03 -2.69413E+03 -2.67107E+03 -4.54522E+03
  5.06884E+02 -4.82374E+03  3.17074E+03 -2.23361E+03  2.45178E+03  2.25087E+03 -1.21805E+03  4.09948E+03
 -4.71743E+03  2.58535E+03 -5.35794E+03 -3.03037E+03 -3.13044E+03 -6.64413E+03  1.14351E+03 -6.13168E+03
  3.89716E+03 -3.83757E+03  4.52998E+03 -3.94746E+02  4.21601E+03  1.81352E+03  4.98273E+02  3.37082E+03
 -2.19436E+03  1.00752E+03 -2.93624E+03 -2.04737E+03  9.82326E+02 -4.63936E+03  5.69831E+03 -3.67046E+03
  7.19457E+03  3.59488E+02  7.60719E+03  4.90984E+03  2.51599E+03  7.69333E+03 -2.72567E+03  7.13471E+03
 -6.34289E+03  3.05270E+03 -6.52098E+03 -6.44130E+02 -3.35913E+03 -4.87391E+03  1.37157E+03 -4.72871E+03
  4.72145E+03 -1.96430E+03  3.89976E+03  2.53498E+03  1.46834E+03  4.37941E+03 -7.90503E+02  3.70834E+03
 -2.13770E+03  2.37139E+03 -1.60174E+03  4.83932E+02 -7.18781E+02  7.71133E+02 -1.51456E+03  1.44372E+03
 -1.89375E+03  2.77793E+03 -5.21206E+03  2.67734E+03 -7.30805E+03  3.31436E+00 -8.46781E+03 -4.86591E+03
 -4.44639E+03 -1.00983E+04  2.31567E+03 -1.16254E+04  6.79360E+03 -8.51472E+03  1.08245E+04 -3.55737E+03
  1.00412E+04  1.72714E+03  6.24859E+03  6.60422E+03  5.39214E+02  7.95695E+03 -3.03513E+03  6.06770E+03
 -4.33689E+03  2.37577E+03 -2.65217E+03 -7.37842E+02 -1.23692E+03 -6.37795E+02 -7.08491E+02  2.55016E+02
 -1.93754E+03 -1.73624E+02 -1.84392E+03 -3.30752E+02 -6.19425E+02 -1.75730E+03 -4.80350E+02 -2.91418E+03
  3.47772E+03 -2.22155E+03  4.22805E+03  8.52379E+01  5.51236E+03  4.15660E+03  1.28847E+03  7.97547E+03
 -3.59266E+03  9.01944E+03 -7.96349E+03  4.89166E+03 -9.33493E+03 -6.52277E+02 -6.92506E+03 -5.58122E+03
 -2.88031E+03 -7.70188E+03  2.13072E+03 -6.89546E+03  4.61109E+03 -4.14858E+03  5.06215E+03  4.09491E+01
  2.67741E+03  2.34971E+03 -1.14698E+01  2.24573E+03 -1.57822E+03  9.85840E-01  2.71267E+02 -1.50666E+03
  2.39498E+03 -7.95393E+02  2.83864E+03  8.95014E+02  1.63730E+03  2.82437E+03  1.53318E+02  3.42565E+03
 -3.26727E+03  3.31111E+03 -5.05464E+03  1.43171E+02 -4.55198E+03 -3.53185E+03 -7.79278E+02 -6.48130E+03
  3.37820E+03 -4.61180E+03  5.13861E+03 -1.63066E+03  5.24129E+03  1.02785E+03  3.18407E+03  4.54566E+03
  5.46681E+02  4.69083E+03 -1.67765E+03  3.84639E+03 -3.11006E+03  2.29814E+03 -2.54845E+03 -6.46813E+00
 -1.43833E+03  4.77854E+00 -1.68754E+03  5.90356E+02 -2.35984E+03  7.96367E+02 -3.74057E+03 -3.38074E+02
 -4.03080E+03 -2.44171E+03 -9.76002E+02 -5.08817E+03  2.31968E+03 -4.78060E+03  4.61901E+03 -2.55571E+03
  4.50911E+03  3.86704E+02  2.03160E+03  2.87208E+03 -2.34578E+02  4.57230E+03 -3.31637E+03  3.09064E+03
