 $NMID ID='MM_0lb_SNR800_8hz_g60_36.RAW', FMTDAT='(8E13.5)'
 TRAMP=1., VOLUME=1. $END
  3.08986E+05  3.02335E+02  3.37954E+05  2.51067E+05  8.50155E+04  3.38896E+05 -1.32594E+05  2.52206E+05
 -1.91292E+05  8.39591E+04 -1.13133E+05 -3.26388E+04 -5.24882E+02 -5.07580E+04  5.38348E+04 -4.77393E+02
  3.56101E+04  5.26749E+04 -1.67587E+04  7.63489E+04 -6.11916E+04  6.45695E+04 -8.52395E+04  3.27072E+04
 -8.28701E+04 -1.19170E+04 -5.84551E+04 -5.28497E+04 -1.51687E+04 -7.15020E+04  2.83451E+04 -4.72432E+04
  4.15800E+04  3.40774E+03  1.71392E+04  4.87700E+04 -3.47644E+04  4.84068E+04 -6.87626E+04  1.44951E+02
 -5.51805E+04 -5.82813E+04 -7.70121E+03 -8.02095E+04  3.51894E+04 -5.84527E+04  5.07182E+04 -1.87934E+04
  4.60409E+04  1.15278E+04  3.33579E+04  2.69691E+04  1.61435E+04  3.10068E+04 -5.90652E+03  2.78955E+04
 -2.25697E+04  1.19015E+04 -1.78270E+04 -5.90719E+03  7.79446E+03 -7.30235E+03  2.41780E+04  1.43923E+04
  6.85051E+03  3.84795E+04 -3.45671E+04  3.78517E+04 -6.70348E+04  2.26174E+03 -5.96229E+04 -4.53475E+04
 -1.28268E+04 -6.70886E+04  4.28049E+04 -4.87273E+04  6.22169E+04 -2.45602E+03  3.74701E+04  3.52564E+04
 -5.12061E+03  4.08758E+04 -3.24574E+04  1.96816E+04 -3.45283E+04 -2.84229E+03 -2.02700E+04 -1.22639E+04
 -9.80773E+03 -1.61210E+04 -2.74664E+02 -2.03973E+04  8.81566E+03 -2.33081E+04  1.60074E+04 -1.27258E+04
  9.82427E+03  6.84376E+03 -1.14514E+04  1.31538E+04 -2.45972E+04 -7.52391E+03 -8.29115E+03 -3.90061E+04
  2.58339E+04 -4.85549E+04  5.33051E+04 -2.14123E+04  5.01277E+04  2.10914E+04  1.80311E+04  4.83418E+04
 -1.71018E+04  3.70477E+04 -2.85383E+04  2.99036E+03 -1.25459E+04 -3.03624E+04  2.20668E+04 -3.79126E+04
  4.58937E+04 -1.16469E+04  4.22118E+04  2.55993E+04  2.29960E+04  5.29704E+04 -8.83860E+03  5.85144E+04
 -3.70722E+04  4.01539E+04 -4.99419E+04  1.20615E+04 -4.96557E+04 -1.93037E+04 -2.67486E+04 -4.39653E+04
  7.81721E+03 -4.34787E+04  3.55829E+04 -1.80846E+04  3.29858E+04  1.13645E+04  6.09776E+03  2.14057E+04
 -1.43122E+04  1.01399E+04 -1.19562E+04 -8.14250E+03  5.62799E+03 -1.18628E+04  1.90898E+04  5.32577E+03
  1.50067E+04  2.25346E+04 -5.21166E+03  2.76050E+04 -2.37793E+04  1.55403E+04 -3.30689E+04 -2.09107E+03
 -2.77454E+04 -1.86966E+04 -1.28687E+04 -2.71940E+04  4.44475E+03 -2.81318E+04  2.17094E+04 -2.51634E+04
  3.47952E+04 -1.55860E+04  4.03491E+04  5.80449E+03  2.82052E+04  2.64865E+04  4.64957E+03  4.34749E+04
 -2.10610E+04  3.50934E+04 -3.21715E+04  1.26512E+04 -2.32857E+04 -1.00856E+04 -5.06660E+03 -1.32454E+04
  5.61092E+02 -9.12734E+02 -8.50663E+03  8.75616E+03 -2.22167E+04  4.72999E+03 -2.17447E+04 -1.08520E+04
 -1.28828E+04 -2.51046E+04  6.46560E+03 -2.99326E+04  2.05426E+04 -2.08565E+04  2.44901E+04 -2.13225E+03
  1.60206E+04  1.73379E+04 -1.54881E+03  2.56804E+04 -1.79556E+04  1.45950E+04 -2.55386E+04 -5.18092E+03
 -1.89214E+04 -2.22596E+04 -2.43235E+03 -2.99932E+04  1.33945E+04 -2.51156E+04  2.49916E+04 -1.31582E+04
  2.37408E+04  8.88514E+01  1.74777E+04  5.67847E+03  9.73491E+03  2.03606E+03  1.35249E+04 -2.70175E+03
  2.41136E+04  3.24777E+03  2.80986E+04  1.95745E+04  1.94595E+04  4.10549E+04 -2.61553E+03  4.85797E+04
 -2.81404E+04  4.09576E+04 -4.58730E+04  2.16112E+04 -4.94093E+04 -3.18980E+03 -3.98232E+04 -2.90696E+04
 -1.54917E+04 -4.15348E+04  1.49028E+04 -3.59031E+04  3.05392E+04 -1.62647E+04  2.64313E+04  8.55803E+03
  8.54924E+03  2.04543E+04 -1.27084E+04  1.65471E+04 -2.19076E+04  2.82512E+03 -1.70599E+04 -1.42700E+04
 -6.67340E+02 -2.10729E+04  1.15701E+04 -1.53201E+04  1.43568E+04 -1.17878E+03  4.04821E+03  9.73240E+03
 -9.51758E+03  5.25225E+03 -1.08527E+04 -7.47962E+03 -2.62712E+03 -2.05988E+04  1.26944E+04 -2.23434E+04
  2.57553E+04 -1.33091E+04  2.97268E+04  3.56243E+03  2.57975E+04  2.07651E+04  1.20659E+04  3.28929E+04
 -6.28097E+03  3.53252E+04 -2.32478E+04  2.20339E+04 -2.57281E+04  4.58450E+03 -1.73442E+04 -6.87530E+03
 -7.01355E+03 -8.62477E+03 -5.02856E+02  6.91411E+02 -3.33061E+03  3.48095E+03 -8.76038E+03  5.61891E+03
 -1.58842E+04 -1.23698E+03 -1.67508E+04 -1.29154E+04 -6.62863E+03 -2.14354E+04  7.24162E+03 -1.76400E+04
  1.40602E+04 -7.14612E+03  1.05085E+04  4.07700E+03 -4.38467E+02  6.85737E+03 -8.96330E+03  3.39941E+02
 -8.49420E+03 -1.13858E+04 -6.19072E+02 -1.77025E+04  1.05582E+04 -1.89494E+04  2.28646E+04 -1.04013E+04
  2.66050E+04  3.21173E+03  1.95619E+04  1.65701E+04  3.19594E+03  2.15723E+04 -1.04258E+04  1.75232E+04
 -1.38603E+04  4.99872E+03 -6.93761E+03 -4.10020E+03  2.62561E+03 -5.03392E+03  9.26136E+03 -1.02086E+03
  8.02470E+03  8.15832E+03  1.00347E+03  1.43186E+04 -1.05837E+04  1.31368E+04 -1.73131E+04  3.23466E+03
 -1.21565E+04 -9.46117E+03  3.05375E+02 -1.51860E+04  1.01735E+04 -8.07270E+03  1.09943E+04  3.70823E+03
  2.73898E+03  1.22338E+04 -9.15177E+03  1.32444E+04 -1.62582E+04  6.00664E+03 -1.64499E+04 -6.38185E+03
 -9.26164E+03 -1.81276E+04  5.25054E+03 -2.14296E+04  1.79115E+04 -1.21605E+04  1.95088E+04  3.58898E+03
  1.16510E+04  1.53141E+04 -2.44109E+03  1.79829E+04 -1.32219E+04  9.91136E+03 -1.48315E+04 -1.85349E+03
 -1.21190E+04 -1.22248E+04 -1.71488E+03 -1.39284E+04  7.17631E+03 -1.09468E+04  8.93479E+03 -3.88833E+03
  5.46536E+03  2.65037E+03 -1.03104E+03  1.90166E+03 -1.20283E+03 -4.06532E+03  3.18722E+03 -8.96482E+03
  1.37368E+04 -5.98694E+03  1.93428E+04  2.10120E+03  1.84646E+04  1.35523E+04  1.13936E+04  2.45703E+04
 -5.94113E+03  2.84489E+04 -2.32276E+04  2.08654E+04 -3.01170E+04  4.43684E+03 -2.45321E+04 -1.09852E+04
 -1.21280E+04 -2.02394E+04 -4.97481E+02 -1.72649E+04  5.85644E+03 -1.02529E+04  6.39789E+03 -6.41679E+03
  4.76362E+03 -3.64985E+03  4.67733E+03 -4.38130E+03  6.55295E+03 -4.26159E+03  9.10195E+03 -2.35498E+03
  1.23968E+04  2.90029E+03  7.23071E+03  1.09134E+04 -2.54109E+03  1.38488E+04 -1.33624E+04  1.02331E+04
 -1.81394E+04 -1.19794E+03 -1.16254E+04 -1.19669E+04 -2.01328E+03 -1.92718E+04  1.06204E+04 -1.85448E+04
  1.93434E+04 -1.03145E+04  2.32941E+04  3.37158E+03  1.60554E+04  1.66283E+04  2.43280E+03  2.17534E+04
 -8.22933E+03  1.67184E+04 -1.23350E+04  6.01349E+03 -8.31405E+03 -1.86949E+03 -3.96203E+03 -2.38077E+03
 -1.58894E+03 -6.01423E+02 -2.45006E+03  2.88826E+03 -7.67448E+03  3.02133E+03 -1.21048E+04 -1.84452E+03
 -8.96068E+03 -1.18921E+04 -3.94838E+02 -1.76065E+04  1.10882E+04 -1.61574E+04  1.79614E+04 -5.08814E+03
  1.77020E+04  8.74825E+03  7.90536E+03  1.62643E+04 -3.72460E+03  1.77578E+04 -1.32365E+04  1.14529E+04
 -1.72236E+04  3.93819E+02 -1.31791E+04 -1.10458E+04 -1.59078E+03 -1.54284E+04  8.41918E+03 -1.10388E+04
  1.12761E+04 -2.93964E+03  7.62597E+03  2.83848E+03  2.80186E+03  4.77056E+03  1.32087E+03  2.39145E+03
  3.06799E+03  1.46489E+03  4.10970E+03  2.32723E+03  4.95513E+03  5.80925E+03  4.41052E+03  9.40700E+03
 -3.55960E+03  1.41266E+04 -1.26892E+04  1.43246E+04 -1.90519E+04  3.50180E+03 -1.90815E+04 -8.29840E+03
 -9.64517E+03 -1.84751E+04  2.98303E+03 -2.02801E+04  1.15877E+04 -1.31041E+04  1.48803E+04 -3.21444E+03
  1.19410E+04  6.47928E+03  2.80842E+03  1.13858E+04 -5.01193E+03  7.04516E+03 -7.78917E+03 -1.43414E+03
 -3.66546E+03 -8.03621E+03  3.74506E+03 -8.41750E+03  7.86506E+03 -4.21098E+03  7.45228E+03  1.96124E+03
  4.37509E+03  3.88538E+03  1.76441E+03  3.55786E+03 -1.17106E+03  1.89519E+03  1.65338E+03 -6.43496E+02
  3.33846E+03 -1.05708E+03  7.58137E+03  2.73603E+03  4.95879E+03  9.68972E+03 -1.87730E+03  1.30155E+04
 -9.03401E+03  8.65382E+03 -1.19516E+04  2.81203E+03 -1.07838E+04 -4.08543E+03 -4.76721E+03 -7.41780E+03
  8.15945E+02 -7.27621E+03  5.01126E+03 -3.32816E+03  3.95640E+03  3.66183E+03 -1.74319E+03  6.72918E+03
 -8.13811E+03  3.72337E+03 -9.05284E+03 -4.44411E+03 -4.79890E+03 -1.04847E+04  1.57656E+03 -1.07753E+04
  6.78039E+03 -6.38423E+03  7.89704E+03 -7.86761E+02  6.48181E+03  2.65093E+03  1.03926E+03  5.50481E+03
 -3.90305E+03  1.71080E+03 -4.63100E+03 -3.98262E+03  1.77506E+03 -8.34517E+03  9.15897E+03 -6.62351E+03
  1.23901E+04  1.17246E+03  1.14829E+04  8.53718E+03  3.93201E+03  1.27487E+04 -4.46552E+03  1.22270E+04
 -9.74983E+03  5.30398E+03 -1.07248E+04 -1.87211E+03 -5.87268E+03 -8.18853E+03  1.82564E+03 -8.01794E+03
  8.05121E+03 -3.64912E+03  6.90804E+03  3.26503E+03  2.61802E+03  7.04960E+03 -1.51438E+03  6.09832E+03
 -3.31926E+03  3.67471E+03 -3.54965E+03  1.23898E+03 -1.29467E+03  1.23174E+03 -2.32116E+03  2.46905E+03
 -3.23096E+03  5.03269E+03 -8.14632E+03  4.70251E+03 -1.28476E+04  3.64161E+02 -1.40881E+04 -8.16308E+03
 -7.51475E+03 -1.70562E+04  3.11586E+03 -1.96988E+04  1.27909E+04 -1.52271E+04  1.89047E+04 -5.95940E+03
  1.76575E+04  3.00667E+03  1.05065E+04  1.23085E+04  1.05336E+03  1.39835E+04 -5.33219E+03  9.75964E+03
 -7.71927E+03  3.52032E+03 -4.70723E+03 -1.00039E+03 -1.66097E+03 -1.66084E+03 -6.35298E+02 -4.13618E+02
 -2.10144E+03 -1.19794E+02 -2.80572E+03 -3.51216E+02 -1.50141E+03 -3.25335E+03  4.44310E+02 -4.80943E+03
  5.99680E+03 -4.16885E+03  8.50240E+03  2.31450E+02  9.66630E+03  7.49792E+03  3.01864E+03  1.36780E+04
 -6.35164E+03  1.53680E+04 -1.41031E+04  8.82559E+03 -1.66311E+04 -1.25850E+03 -1.25836E+04 -9.57503E+03
 -5.17339E+03 -1.40856E+04  3.58936E+03 -1.26287E+04  8.32381E+03 -6.98142E+03  9.40811E+03 -1.02439E+01
  4.95743E+03  4.53997E+03 -5.78179E+02  3.51582E+03 -1.99235E+03 -3.59836E+02  4.12352E+02 -3.04725E+03
  4.19736E+03 -1.72118E+03  5.34090E+03  1.75320E+03  4.15318E+03  5.75193E+03  5.69516E+01  7.54079E+03
 -5.90478E+03  6.64827E+03 -9.93089E+03  7.46349E+02 -8.18832E+03 -6.69240E+03 -1.83544E+03 -1.17723E+04
  6.50519E+03 -9.79083E+03  1.07337E+04 -3.23320E+03  1.08930E+04  2.42353E+03  5.95341E+03  8.04797E+03
  1.33480E+03  9.36299E+03 -3.50546E+03  7.64380E+03 -5.40657E+03  4.11959E+03 -4.73527E+03  8.82814E+02
 -2.35816E+03 -5.59628E+02 -2.58666E+03  1.45261E+03 -4.79839E+03  1.47472E+03 -7.36804E+03 -1.35376E+03
 -6.72006E+03 -5.31148E+03 -2.24854E+03 -9.33504E+03  4.19273E+03 -9.78498E+03  8.52434E+03 -4.56159E+03
  9.44056E+03  1.23787E+03  5.42603E+03  6.67708E+03 -1.16236E+03  9.58226E+03 -7.15748E+03  5.93301E+03
