 $NMID ID='MM_0lb_SNR800_15hz_g50_14.RAW', FMTDAT='(8E13.5)'
 TRAMP=1., VOLUME=1. $END
  3.09645E+05  2.17794E+02  3.37677E+05  2.50581E+05  8.46933E+04  3.37688E+05 -1.32523E+05  2.50743E+05
 -1.89956E+05  8.31230E+04 -1.11703E+05 -3.28151E+04  1.22062E+03 -5.06310E+04  5.36439E+04 -1.50014E+02
  3.54989E+04  5.28564E+04 -1.68016E+04  7.51131E+04 -6.05303E+04  6.31283E+04 -8.39959E+04  3.20791E+04
 -8.06910E+04 -1.14914E+04 -5.70544E+04 -5.12969E+04 -1.50992E+04 -6.95358E+04  2.77386E+04 -4.55680E+04
  4.03030E+04  3.80225E+03  1.61720E+04  4.76720E+04 -3.38574E+04  4.69076E+04 -6.64773E+04 -3.40533E+02
 -5.32759E+04 -5.68921E+04 -7.06149E+03 -7.70576E+04  3.37784E+04 -5.47236E+04  4.73469E+04 -1.72979E+04
  4.32376E+04  1.12621E+04  3.15031E+04  2.53401E+04  1.56319E+04  2.90713E+04 -4.85340E+03  2.74841E+04
 -2.17532E+04  1.24776E+04 -1.88548E+04 -4.79719E+03  5.57030E+03 -7.70112E+03  2.22532E+04  1.23116E+04
  7.61301E+03  3.50316E+04 -3.20605E+04  3.52348E+04 -6.29279E+04  2.08290E+03 -5.67953E+04 -4.25497E+04
 -1.26208E+04 -6.27860E+04  3.97146E+04 -4.49977E+04  5.78034E+04 -2.27891E+03  3.38271E+04  3.19148E+04
 -6.20547E+03  3.57076E+04 -2.98587E+04  1.55182E+04 -3.00005E+04 -4.68687E+03 -1.62232E+04 -1.08134E+04
 -8.04016E+03 -1.30354E+04 -7.99969E+02 -1.80196E+04  7.26822E+03 -2.29992E+04  1.52282E+04 -1.35152E+04
  1.16938E+04  5.20112E+03 -7.90806E+03  1.28990E+04 -2.08543E+04 -4.00949E+03 -8.09585E+03 -3.31031E+04
  2.23240E+04 -4.28238E+04  4.73835E+04 -1.96866E+04  4.47619E+04  1.96845E+04  1.54091E+04  4.39349E+04
 -1.58570E+04  3.29702E+04 -2.50463E+04  1.66150E+03 -9.66507E+03 -2.74904E+04  2.08179E+04 -3.32120E+04
  4.06785E+04 -8.81613E+03  3.49517E+04  2.37024E+04  1.75326E+04  4.57557E+04 -8.06337E+03  4.96029E+04
 -3.11262E+04  3.33511E+04 -4.10530E+04  9.39277E+03 -4.20248E+04 -1.64500E+04 -2.31411E+04 -3.73966E+04
  7.39619E+03 -3.70740E+04  3.10549E+04 -1.42403E+04  2.89586E+04  1.07992E+04  3.79103E+03  1.90670E+04
 -1.32611E+04  8.12159E+03 -1.02596E+04 -7.49706E+03  5.82499E+03 -1.05543E+04  1.78364E+04  6.14740E+03
  1.33138E+04  2.19537E+04 -5.94553E+03  2.47828E+04 -2.18112E+04  1.10797E+04 -2.73939E+04 -5.17270E+03
 -2.01510E+04 -1.69506E+04 -8.12735E+03 -1.98464E+04  4.04701E+03 -1.85033E+04  1.47771E+04 -1.76289E+04
  2.52494E+04 -1.24674E+04  3.15926E+04  2.44496E+03  2.32740E+04  1.89622E+04  3.97534E+03  3.56792E+04
 -1.74459E+04  3.00180E+04 -2.73943E+04  1.02469E+04 -2.05877E+04 -1.02064E+04 -4.34816E+03 -1.35773E+04
  2.07143E+03 -2.86465E+03 -4.45769E+03  6.58497E+03 -1.52747E+04  5.10463E+03 -1.59811E+04 -6.81675E+03
 -9.68928E+03 -1.83202E+04  4.85603E+03 -2.22645E+04  1.46311E+04 -1.62135E+04  1.75462E+04 -1.54403E+03
  1.07800E+04  1.28731E+04 -9.30484E+02  1.85997E+04 -1.27541E+04  1.02319E+04 -1.82468E+04 -3.63399E+03
 -1.37814E+04 -1.65580E+04 -1.79614E+03 -2.21744E+04  1.01816E+04 -1.80334E+04  1.84462E+04 -8.73497E+03
  1.68266E+04  3.37071E+02  1.23386E+04  4.48635E+03  6.73319E+03  1.14307E+03  9.32688E+03 -2.03900E+03
  1.68193E+04  2.79664E+03  1.81704E+04  1.47365E+04  1.18935E+04  2.95103E+04 -2.91601E+03  3.27812E+04
 -1.89345E+04  2.59965E+04 -3.05407E+04  1.28612E+04 -3.18006E+04 -2.38199E+03 -2.66067E+04 -1.83086E+04
 -1.16800E+04 -2.58613E+04  8.83306E+03 -2.34826E+04  2.06652E+04 -1.21133E+04  1.83908E+04  5.44573E+03
  6.74752E+03  1.38862E+04 -8.69673E+03  1.22610E+04 -1.57930E+04  2.71082E+03 -1.21356E+04 -9.37873E+03
 -2.47947E+02 -1.47025E+04  7.59064E+03 -1.10789E+04  9.75552E+03 -1.27963E+03  1.96723E+03  5.91570E+03
 -6.72636E+03  2.18869E+03 -5.59137E+03 -5.23859E+03 -6.73348E+02 -1.26702E+04  9.39379E+03 -1.32009E+04
  1.57414E+04 -6.83479E+03  1.66293E+04  3.17998E+03  1.43287E+04  1.22970E+04  7.01950E+03  1.89440E+04
 -2.96606E+03  2.14088E+04 -1.30856E+04  1.31587E+04 -1.47203E+04  3.09186E+03 -1.06653E+04 -3.12713E+03
 -5.15555E+03 -4.38960E+03 -9.53043E+02  1.16659E+03 -2.13557E+03  2.38198E+03 -4.77330E+03  4.35209E+03
 -1.01341E+04 -3.75706E+02 -1.05998E+04 -8.86156E+03 -4.02461E+03 -1.37950E+04  4.32508E+03 -1.06433E+04
  9.14518E+03 -4.54341E+03  6.56710E+03  2.67921E+03  2.17652E+02  4.21524E+03 -4.61197E+03 -2.22321E+01
 -4.23131E+03 -7.04626E+03 -9.06755E+02 -1.00535E+04  6.10107E+03 -1.05466E+04  1.31321E+04 -5.64231E+03
  1.54050E+04  1.10030E+03  1.12949E+04  8.76170E+03  2.37763E+03  1.20124E+04 -6.55173E+03  1.03852E+04
 -8.42871E+03  3.09846E+03 -4.83848E+03 -1.69662E+03  1.74030E+03 -2.62076E+03  5.85568E+03 -9.74868E+02
  5.00381E+03  4.64265E+03  1.25935E+03  8.72126E+03 -6.12213E+03  7.84702E+03 -1.03951E+04  2.40330E+03
 -6.53676E+03 -4.89436E+03  3.18912E+02 -8.78076E+03  4.93058E+03 -4.18162E+03  5.39169E+03  1.36613E+03
  1.24248E+03  5.45354E+03 -5.46506E+03  6.75198E+03 -7.60424E+03  3.30018E+03 -7.16408E+03 -2.18407E+03
 -4.40886E+03 -8.88885E+03  2.02705E+03 -1.04195E+04  9.05227E+03 -6.99569E+03  9.32155E+03  1.75175E+03
  6.26401E+03  7.93889E+03 -2.64196E+02  9.76226E+03 -7.09175E+03  5.49479E+03 -7.58145E+03 -8.76779E+02
 -7.27271E+03 -6.67495E+03 -1.43441E+03 -7.12768E+03  3.56979E+03 -5.97680E+03  4.34340E+03 -3.14023E+03
  3.48481E+03  6.52817E+02 -1.50313E+02  1.30513E+03  8.39160E+01 -1.08457E+03  7.51912E+02 -3.56122E+03
  5.93477E+03 -2.05015E+03  8.42402E+03  9.40365E+02  8.67919E+03  5.24172E+03  6.66190E+03  1.12417E+04
 -2.38292E+03  1.27112E+04 -1.10912E+04  9.43226E+03 -1.43815E+04  1.96306E+03 -1.14338E+04 -4.64793E+03
 -5.88949E+03 -9.40768E+03 -6.27138E+02 -7.76521E+03  3.01797E+03 -3.91782E+03  2.58314E+03 -3.07994E+03
  2.39550E+03 -2.08466E+03  2.87308E+03 -2.91162E+03  4.20699E+03 -1.97710E+03  4.70288E+03  1.44087E+02
  5.81606E+03  1.25529E+03  2.39934E+03  5.10240E+03 -1.69335E+03  5.34679E+03 -6.11688E+03  4.20524E+03
 -7.47632E+03 -1.23401E+03 -3.56844E+03 -5.06074E+03 -4.93986E+02 -8.06108E+03  4.74737E+03 -8.02894E+03
  8.11813E+03 -4.62048E+03  1.02484E+04  8.41193E+02  7.18661E+03  6.89451E+03  1.39729E+03  9.15804E+03
 -3.49640E+03  8.13211E+03 -5.03289E+03  2.41907E+03 -3.19470E+03 -1.05697E+03 -1.35839E+03 -9.22520E+02
 -5.35158E+02  2.54621E+02 -1.62582E+03  1.83484E+03 -3.48139E+03  1.58235E+03 -5.57898E+03 -7.44324E+02
 -2.89114E+03 -5.60905E+03  5.57317E+02 -7.15591E+03  4.62099E+03 -6.85840E+03  6.34000E+03 -2.25499E+03
  7.07874E+03  3.52112E+03  3.14864E+03  5.80861E+03 -1.32680E+03  7.18474E+03 -4.48599E+03  4.36392E+03
 -6.25396E+03  9.65132E+02 -5.21573E+03 -4.09693E+03 -5.12275E+02 -5.61078E+03  2.56769E+03 -4.39883E+03
  4.34542E+03 -1.83721E+03  2.93353E+03  1.31523E+03  9.46874E+02  2.23873E+03  8.32293E+02  9.89519E+02
  2.20172E+03  6.63828E+02  2.01497E+03  1.23907E+03  1.81146E+03  3.00402E+03  1.89056E+03  3.41514E+03
 -1.46495E+03  4.71886E+03 -4.71777E+03  5.64326E+03 -6.13504E+03  1.53966E+03 -7.00406E+03 -2.09697E+03
 -3.12913E+03 -6.51932E+03  1.00510E+03 -7.76378E+03  3.52894E+03 -4.47824E+03  5.49483E+03 -1.44504E+03
  4.32054E+03  2.61259E+03  7.09300E+02  3.71608E+03 -1.72388E+03  1.89589E+03 -2.38645E+03 -2.27308E+02
 -1.26126E+03 -2.98765E+03  1.61085E+03 -2.51437E+03  2.53265E+03 -1.06685E+03  2.43268E+03  8.43433E+02
  1.65624E+03  9.79136E+02  9.48723E+02  4.77977E+02 -3.63490E+02  1.13812E+03  1.53104E+03 -5.10176E+02
  6.58200E+02 -5.97059E+02  3.00127E+03  9.89011E+02  8.95004E+02  3.69538E+03 -5.71274E+02  4.48577E+03
 -2.95259E+03  2.57698E+03 -3.58652E+03  9.43190E+02 -3.84010E+03 -1.12471E+03 -7.14168E+02 -2.23210E+03
  5.42138E+02 -2.17678E+03  1.74241E+03 -9.18356E+02  1.25718E+03  1.62629E+03 -7.36336E+02  1.89100E+03
 -2.62596E+03  1.23946E+03 -2.84385E+03 -1.73246E+03 -1.21205E+03 -3.78384E+03  6.29899E+02 -2.79150E+03
  1.41818E+03 -1.65511E+03  1.88010E+03  1.62488E+02  2.06976E+03  5.25468E+02  3.42383E+02  2.03586E+03
 -1.33226E+03  2.67898E+02 -1.75062E+03 -9.18118E+02  9.55821E+02 -2.04782E+03  2.80927E+03 -1.67085E+03
  3.07472E+03  3.00294E+02  4.04676E+03  2.12187E+03  1.44040E+03  3.57919E+03 -1.03259E+03  3.22730E+03
 -2.56000E+03  1.24598E+03 -2.98655E+03 -3.35523E+02 -1.59487E+03 -2.78742E+03  7.57694E+02 -1.67407E+03
  2.37479E+03 -1.02210E+03  1.59823E+03  1.14322E+03  4.44115E+02  2.36234E+03  2.39274E+02  1.84983E+03
 -8.33283E+02  1.44395E+03 -9.76877E+02  6.14600E+02 -2.96013E+02  5.91726E+02 -7.22615E+02  1.11670E+03
 -9.07120E+02  1.64217E+03 -2.74814E+03  1.07972E+03 -3.44835E+03  1.75268E+02 -4.25260E+03 -1.97666E+03
 -1.97088E+03 -4.38851E+03  7.79349E+02 -5.39074E+03  2.85747E+03 -4.16620E+03  5.36467E+03 -1.92292E+03
  4.67019E+03  5.48550E+02  2.58327E+03  2.93126E+03 -5.96649E+02  3.34671E+03 -1.62348E+03  2.34181E+03
 -1.97603E+03  1.61884E+03 -1.28414E+03 -2.43212E+02 -9.15655E+02 -7.97401E+01 -8.83267E+02  6.33975E+01
 -1.14629E+03 -6.67305E+01 -1.05351E+03 -2.29137E+00  2.68610E+01 -7.04099E+02 -1.30007E+02 -1.67571E+03
  1.91041E+03 -8.79275E+02  1.67399E+03  4.36044E+01  2.60298E+03  1.99798E+03  4.69595E+01  3.00455E+03
 -1.64375E+03  4.31242E+03 -3.45322E+03  2.13242E+03 -3.61577E+03 -4.39650E+02 -2.87935E+03 -2.39689E+03
 -1.76524E+03 -3.51230E+03  9.58719E+02 -2.94845E+03  2.26375E+03 -1.72450E+03  1.96381E+03  2.45613E+02
  1.29839E+03  1.13760E+03 -1.29504E+02  7.78548E+02 -6.49609E+02 -1.67797E+02 -2.12245E+02 -5.69514E+02
  1.03472E+03 -2.55585E+02  8.65885E+02  6.33948E+02  7.44318E+02  1.16137E+03  5.18091E+02  1.40104E+03
 -1.44742E+03  1.50640E+03 -1.58766E+03  5.33097E+01 -1.64029E+03 -1.15549E+03 -4.08783E+01 -2.52622E+03
  1.11945E+03 -1.83967E+03  1.78591E+03 -4.60982E+02  2.67593E+03 -2.14002E+01  1.17801E+03  1.56500E+03
  5.08843E+02  1.68639E+03 -4.88139E+02  1.59047E+03 -6.37751E+02  1.18435E+03 -1.07220E+03  2.66882E+02
 -3.27958E+02  3.52830E+00 -8.44419E+02  4.99927E+02 -1.40298E+03  6.99828E+02 -1.51453E+03 -5.02274E+02
 -1.64627E+03 -4.17939E+02 -7.01718E+02 -2.07216E+03  1.00696E+03 -2.55009E+03  1.71042E+03 -7.62218E+02
  1.44212E+03  2.68417E+02  3.53842E+02  9.20980E+02 -5.21534E+01  1.92684E+03 -1.19393E+03  1.47985E+03
