 $NMID ID='MM_0lb_SNR800_19hz_g60_81.RAW', FMTDAT='(8E13.5)'
 TRAMP=1., VOLUME=1. $END
  3.09926E+05  2.97218E+02  3.37762E+05  2.50264E+05  8.45247E+04  3.37724E+05 -1.32382E+05  2.50756E+05
 -1.90072E+05  8.28624E+04 -1.11563E+05 -3.29112E+04  1.10585E+03 -5.06455E+04  5.38451E+04  1.96209E+01
  3.54583E+04  5.28405E+04 -1.72087E+04  7.53553E+04 -6.06298E+04  6.32263E+04 -8.33863E+04  3.17473E+04
 -8.03511E+04 -1.12516E+04 -5.68494E+04 -5.09387E+04 -1.51674E+04 -6.88534E+04  2.70150E+04 -4.53280E+04
  3.97248E+04  4.04328E+03  1.59101E+04  4.73830E+04 -3.40148E+04  4.68416E+04 -6.61032E+04 -3.87864E+02
 -5.27495E+04 -5.61776E+04 -6.67049E+03 -7.62754E+04  3.35059E+04 -5.41735E+04  4.70800E+04 -1.68074E+04
  4.26489E+04  1.12356E+04  3.14511E+04  2.47958E+04  1.58716E+04  2.87981E+04 -5.06122E+03  2.69099E+04
 -2.19377E+04  1.25319E+04 -1.89463E+04 -4.56897E+03  4.73842E+03 -7.71005E+03  2.18602E+04  1.16492E+04
  7.30957E+03  3.45171E+04 -3.12526E+04  3.46407E+04 -6.19822E+04  2.20024E+03 -5.62553E+04 -4.22343E+04
 -1.25039E+04 -6.21081E+04  3.89571E+04 -4.43850E+04  5.69209E+04 -2.00521E+03  3.30429E+04  3.11632E+04
 -5.98455E+03  3.44752E+04 -2.94152E+04  1.46654E+04 -2.89566E+04 -5.10223E+03 -1.56127E+04 -1.03805E+04
 -7.82988E+03 -1.23285E+04 -1.01479E+03 -1.73140E+04  6.99213E+03 -2.29234E+04  1.53446E+04 -1.36640E+04
  1.18724E+04  4.85633E+03 -6.95022E+03  1.30864E+04 -2.00342E+04 -3.42370E+03 -8.12208E+03 -3.18951E+04
  2.15226E+04 -4.19288E+04  4.61366E+04 -1.91981E+04  4.34090E+04  1.90114E+04  1.48193E+04  4.28362E+04
 -1.54981E+04  3.20953E+04 -2.39786E+04  1.26386E+03 -9.08288E+03 -2.69584E+04  2.06100E+04 -3.23009E+04
  3.93236E+04 -8.00518E+03  3.30701E+04  2.31783E+04  1.64735E+04  4.42930E+04 -7.82915E+03  4.70895E+04
 -2.97736E+04  3.13125E+04 -3.90668E+04  8.73510E+03 -3.99372E+04 -1.57466E+04 -2.21718E+04 -3.59384E+04
  6.78865E+03 -3.55437E+04  2.97445E+04 -1.34963E+04  2.78728E+04  1.06031E+04  3.24102E+03  1.82072E+04
 -1.32919E+04  7.43284E+03 -1.00154E+04 -7.41540E+03  5.88175E+03 -1.04147E+04  1.76357E+04  6.18104E+03
  1.27124E+04  2.18724E+04 -6.54707E+03  2.39454E+04 -2.16906E+04  1.00997E+04 -2.61513E+04 -5.98227E+03
 -1.79970E+04 -1.65365E+04 -6.48594E+03 -1.80549E+04  3.95021E+03 -1.63907E+04  1.37087E+04 -1.58023E+04
  2.30478E+04 -1.20781E+04  2.96917E+04  1.71437E+03  2.21284E+04  1.76290E+04  4.35627E+03  3.36266E+04
 -1.67689E+04  2.85503E+04 -2.63884E+04  1.00623E+04 -2.01126E+04 -1.02760E+04 -4.16968E+03 -1.38167E+04
  2.33444E+03 -3.59796E+03 -3.30839E+03  5.78968E+03 -1.39629E+04  5.14622E+03 -1.42953E+04 -5.46587E+03
 -8.81139E+03 -1.64532E+04  4.73302E+03 -2.03922E+04  1.34020E+04 -1.46564E+04  1.57204E+04 -1.57226E+03
  9.57231E+03  1.14235E+04 -7.78696E+02  1.63131E+04 -1.10659E+04  9.38737E+03 -1.63069E+04 -3.42991E+03
 -1.22403E+04 -1.47941E+04 -1.58704E+03 -1.98216E+04  8.88201E+03 -1.62675E+04  1.68018E+04 -7.98311E+03
  1.56656E+04  3.52847E+02  1.14894E+04  3.94936E+03  5.36015E+03  6.94879E+02  8.53986E+03 -1.03170E+03
  1.47472E+04  2.84841E+03  1.57735E+04  1.33422E+04  1.00592E+04  2.59863E+04 -2.91732E+03  2.83720E+04
 -1.68815E+04  2.22340E+04 -2.62024E+04  1.07925E+04 -2.69094E+04 -1.86602E+03 -2.29609E+04 -1.52382E+04
 -1.06565E+04 -2.22044E+04  7.24657E+03 -2.01936E+04  1.74224E+04 -1.11546E+04  1.62951E+04  4.16639E+03
  6.68913E+03  1.18190E+04 -7.32993E+03  1.08320E+04 -1.40776E+04  2.50800E+03 -1.06996E+04 -8.41470E+03
  6.50881E+01 -1.32642E+04  6.72969E+03 -9.78183E+03  8.17695E+03 -1.13173E+03  1.45755E+03  5.50922E+03
 -5.85715E+03  1.45724E+03 -4.30149E+03 -4.72704E+03  2.10917E+02 -1.08481E+04  8.30748E+03 -1.07237E+04
  1.31125E+04 -5.19851E+03  1.29389E+04  2.48904E+03  1.13144E+04  1.02448E+04  5.27730E+03  1.51816E+04
 -2.00379E+03  1.70513E+04 -1.02798E+04  1.07868E+04 -1.18926E+04  2.93053E+03 -8.76803E+03 -2.22163E+03
 -4.87187E+03 -3.39904E+03 -6.24642E+02  1.42204E+03 -2.10973E+03  1.96256E+03 -3.69321E+03  3.69248E+03
 -8.35927E+03 -6.45707E+02 -9.17856E+03 -7.25255E+03 -3.89290E+03 -1.18677E+04  3.95859E+03 -8.77565E+03
  7.56958E+03 -4.00666E+03  5.70570E+03  2.29362E+03  3.60960E+02  3.20523E+03 -3.75367E+03 -1.39870E+02
 -3.69656E+03 -5.47795E+03 -8.71667E+02 -7.50106E+03  4.05551E+03 -8.16968E+03  1.02466E+04 -4.34232E+03
  1.20949E+04  8.91401E+02  9.12460E+03  6.36732E+03  1.90078E+03  9.03512E+03 -5.44722E+03  8.61968E+03
 -7.25404E+03  2.68469E+03 -3.42717E+03 -1.29260E+03  1.23588E+03 -2.06131E+03  4.84610E+03 -1.03430E+03
  4.46382E+03  3.61039E+03  9.74768E+02  6.37076E+03 -4.47562E+03  6.64933E+03 -8.14397E+03  1.84573E+03
 -4.98829E+03 -3.60546E+03  2.14833E+02 -6.99828E+03  3.92291E+03 -3.55735E+03  3.79996E+03  1.16251E+03
  5.24114E+02  3.60259E+03 -4.31413E+03  4.94712E+03 -5.22621E+03  2.49000E+03 -4.66054E+03 -1.25999E+03
 -3.15060E+03 -6.43217E+03  1.34136E+03 -7.36946E+03  5.92397E+03 -4.80284E+03  6.63687E+03  7.88275E+02
  4.53995E+03  5.69333E+03  1.38086E+01  7.17741E+03 -5.34432E+03  4.46390E+03 -5.30071E+03 -4.42446E+02
 -5.77152E+03 -5.46944E+03 -1.65718E+03 -5.26748E+03  2.44171E+03 -4.81573E+03  3.01450E+03 -2.92321E+03
  2.89921E+03  1.05746E+02  2.23414E+02  1.35157E+03  3.67706E+02 -2.76122E+02  1.06577E+02 -1.93774E+03
  3.90816E+03 -7.39969E+02  5.21365E+03  4.00895E+02  5.79695E+03  3.28395E+03  5.51836E+03  7.19418E+03
 -1.24372E+03  8.64870E+03 -7.54725E+03  6.84151E+03 -1.02588E+04  1.32050E+03 -8.02297E+03 -2.53103E+03
 -4.36115E+03 -6.67130E+03 -2.82880E+02 -5.27244E+03  2.23258E+03 -2.11956E+03  1.72929E+03 -2.21988E+03
  1.26796E+03 -1.55633E+03  2.13765E+03 -1.97900E+03  3.64210E+03 -1.41139E+03  3.69326E+03  5.09860E+02
  4.48044E+03  1.00785E+03  1.20514E+03  3.36583E+03 -1.50148E+03  2.80104E+03 -4.53533E+03  2.89270E+03
 -4.86729E+03 -1.03236E+03 -1.49082E+03 -3.51290E+03  6.64879E+02 -5.12619E+03  3.21160E+03 -5.45821E+03
  4.97149E+03 -3.24918E+03  6.53393E+03 -2.71463E+01  4.82721E+03  4.11338E+03  1.44344E+03  5.79549E+03
 -2.15078E+03  6.09833E+03 -3.64656E+03  1.94738E+03 -1.83386E+03 -8.84359E+02 -3.55817E+02 -5.34334E+02
 -5.45296E+02  2.60113E+02 -8.09621E+02  2.01233E+03 -2.50479E+03  1.16089E+03 -4.21756E+03 -4.49834E+02
 -1.74106E+03 -4.07528E+03  8.87807E+02 -4.46741E+03  2.78423E+03 -4.17219E+03  3.58958E+03 -8.00735E+02
  4.07657E+03  2.20259E+03  1.76028E+03  3.09777E+03 -7.24586E+02  4.36695E+03 -2.35684E+03  2.58307E+03
 -3.80123E+03  1.04820E+03 -2.99657E+03 -2.03924E+03 -3.35221E+02 -3.31197E+03  1.35061E+03 -2.40488E+03
  2.64597E+03 -1.37764E+03  1.45434E+03  5.47411E+02  2.45817E+02  1.64620E+03  7.65739E+02  7.25240E+02
  1.54312E+03  2.57758E+02  1.34529E+03  1.07041E+03  9.26538E+02  2.16654E+03  1.25863E+03  1.68134E+03
 -1.06114E+03  2.78074E+03 -2.66591E+03  4.07982E+03 -2.85011E+03  1.29059E+03 -4.05430E+03  1.15326E+02
 -1.67010E+03 -3.40363E+03  4.62731E+02 -4.48942E+03  1.82562E+03 -2.38137E+03  2.75110E+03 -1.08035E+03
  2.53305E+03  1.60535E+03  4.62314E+02  2.37550E+03 -6.18966E+02  1.06991E+03 -9.34358E+02 -2.80764E+02
 -6.15341E+02 -1.33483E+03  1.28711E+03 -1.25486E+03  1.17217E+03 -6.59693E+02  1.17804E+03  5.31105E+02
  4.49178E+02  4.44853E+02  7.55818E+02 -1.12450E+02 -3.25292E+02  5.47999E+02  1.39590E+03 -3.46814E+02
  1.33439E+02 -1.64510E+02  1.75571E+03  5.49598E+02  2.29747E+02  2.21917E+03 -2.28420E+02  2.71216E+03
 -1.65745E+03  8.85626E+02 -1.94474E+03  2.04446E+02 -2.10304E+03 -7.28454E+02 -1.39513E+02 -7.03492E+02
  2.06623E+01 -1.15339E+03  7.82375E+02 -5.62628E+02  4.58351E+02  1.54044E+03 -6.63319E+02  1.20634E+03
 -1.37847E+03  8.56967E+02 -1.17143E+03 -1.31142E+03 -5.55323E+02 -1.78582E+03  6.51147E+01 -1.50223E+03
  6.49142E+02 -3.01340E+02  3.14196E+02 -1.61134E+02  1.38861E+03 -1.59208E+02  4.28850E+02  7.84557E+02
 -3.82192E+02  2.19032E+01 -1.14446E+03 -4.47023E+01  5.15528E+02 -7.07107E+02  1.44872E+03 -7.46297E+02
  1.18433E+03  1.83001E+02  2.54211E+03  2.66766E+02  9.39054E+02  1.38424E+03 -4.37133E+02  1.69592E+03
 -1.35056E+03 -1.67841E+02 -1.45518E+03 -1.74476E+02 -7.37418E+02 -1.32413E+03  3.25549E+02 -2.32195E+02
  1.65806E+03 -4.55218E+02  6.57294E+02  5.25862E+02  9.74416E+00  1.28216E+03  2.99925E+02  8.97589E+02
 -4.06616E+02  1.07498E+03 -3.32563E+02  5.33043E+01  1.69985E+02  5.02983E+02 -5.91033E+02  4.26539E+02
 -4.31869E+02  6.36978E+02 -1.75251E+03  1.72308E+02 -1.34663E+03  9.40192E+01 -2.11984E+03 -1.04922E+03
 -9.51481E+02 -2.04983E+03  4.07230E+02 -2.23586E+03  6.77531E+02 -2.04242E+03  1.92990E+03 -9.79921E+02
  1.99623E+03 -4.83269E+02  1.10932E+03  1.27461E+03 -4.46884E+02  1.23279E+03 -5.37733E+02  1.06870E+03
 -7.66376E+02  8.73146E+02 -4.03216E+02 -2.44443E+01 -5.94565E+02  3.22403E+02 -8.70398E+02  7.31397E+01
 -8.60841E+02  9.79765E+01 -1.03233E+03 -6.68908E+01  2.51241E+02 -5.37635E+02 -6.08361E+02 -8.72331E+02
  1.18157E+03 -5.62017E+02  4.24729E+02  6.98258E+01  8.27855E+02  8.49589E+02 -4.02091E+02  1.04491E+03
 -7.64668E+02  1.91853E+03 -1.66905E+03  1.10346E+03 -1.60529E+03 -5.86098E+01 -9.87822E+02 -1.10823E+03
 -9.13187E+02 -1.01065E+03  2.63084E+02 -7.61239E+02  5.56842E+02 -2.79567E+02  3.88952E+02  4.42714E+01
  7.06996E+02  1.37445E+02 -1.97180E+02  3.36270E+02 -1.14849E+02 -4.38242E+01 -1.80626E+01 -2.62549E+02
  2.99477E+02  1.69152E+02  6.28637E+01  4.47293E+02  8.02465E+01  3.16887E+02  3.96846E+02  9.35316E+01
 -6.09639E+02  5.02633E+02 -1.99052E+02  4.29285E+01 -5.45206E+02 -2.48480E+02  1.06059E+02 -8.38430E+02
  3.82334E+02 -4.73300E+02  2.32049E+02  3.89224E+02  5.27292E+02 -6.50453E+02  7.24013E+02  4.44941E+02
  5.83336E+02  3.25518E+02 -9.54572E+01  4.96031E+02 -3.70551E+02  3.96255E+02 -3.37895E+02  1.47050E+02
  9.51603E+01 -1.15444E+02 -2.54475E+02  1.18617E+02 -5.57017E+02 -5.09138E+01 -5.51115E+02 -2.80187E+02
 -8.99213E+02  5.38932E+02 -4.81061E+02 -7.33949E+02  3.79553E+02 -1.44724E+03  4.43235E+02 -2.22917E+02
  5.99097E+02  2.91181E+01 -2.62397E+01  1.91331E+02 -9.99631E+01  6.24425E+02 -4.64396E+02  3.20341E+02
