 $NMID ID='MM_0lb_SNR800_17hz_g50_38.RAW', FMTDAT='(8E13.5)'
 TRAMP=1., VOLUME=1. $END
  3.09930E+05  5.19207E+02  3.37474E+05  2.50257E+05  8.44692E+04  3.37744E+05 -1.32573E+05  2.50631E+05
 -1.89919E+05  8.25728E+04 -1.11272E+05 -3.28493E+04  1.25154E+03 -4.99803E+04  5.37155E+04  1.65319E+01
  3.52725E+04  5.27976E+04 -1.70356E+04  7.51980E+04 -6.05476E+04  6.32313E+04 -8.33483E+04  3.18946E+04
 -8.02854E+04 -1.10674E+04 -5.70280E+04 -5.05418E+04 -1.49878E+04 -6.90406E+04  2.72067E+04 -4.51695E+04
  3.95067E+04  3.76115E+03  1.59532E+04  4.75682E+04 -3.42129E+04  4.68896E+04 -6.61830E+04 -4.84617E+02
 -5.24004E+04 -5.66481E+04 -6.41163E+03 -7.61555E+04  3.35788E+04 -5.38930E+04  4.71626E+04 -1.67511E+04
  4.23733E+04  1.11846E+04  3.11426E+04  2.49789E+04  1.59393E+04  2.86684E+04 -4.88412E+03  2.71170E+04
 -2.22284E+04  1.26042E+04 -1.87587E+04 -4.72257E+03  4.65700E+03 -7.53241E+03  2.16542E+04  1.15232E+04
  7.38146E+03  3.40481E+04 -3.12133E+04  3.45074E+04 -6.19510E+04  1.96500E+03 -5.60513E+04 -4.17176E+04
 -1.26049E+04 -6.20300E+04  3.87944E+04 -4.41311E+04  5.68496E+04 -1.84237E+03  3.29205E+04  3.11523E+04
 -6.38355E+03  3.41676E+04 -2.91144E+04  1.47341E+04 -2.86888E+04 -5.16672E+03 -1.55395E+04 -1.03337E+04
 -7.88169E+03 -1.23060E+04 -1.16527E+03 -1.74300E+04  7.11015E+03 -2.29052E+04  1.51337E+04 -1.37524E+04
  1.16906E+04  4.66472E+03 -6.76039E+03  1.33490E+04 -1.98328E+04 -3.41234E+03 -8.13826E+03 -3.18713E+04
  2.18346E+04 -4.19534E+04  4.62038E+04 -1.90015E+04  4.35460E+04  1.88500E+04  1.47200E+04  4.28699E+04
 -1.55611E+04  3.20395E+04 -2.41794E+04  1.47928E+03 -8.87172E+03 -2.68124E+04  2.03804E+04 -3.23286E+04
  3.94268E+04 -7.92509E+03  3.32186E+04  2.30622E+04  1.66155E+04  4.40095E+04 -7.93362E+03  4.74604E+04
 -2.99054E+04  3.11849E+04 -3.95284E+04  8.82569E+03 -4.03930E+04 -1.58540E+04 -2.21411E+04 -3.58577E+04
  7.01844E+03 -3.56254E+04  3.02972E+04 -1.33555E+04  2.78673E+04  1.08586E+04  3.28952E+03  1.80688E+04
 -1.34093E+04  7.73216E+03 -9.54404E+03 -7.72453E+03  5.91053E+03 -1.03523E+04  1.75013E+04  6.20195E+03
  1.29409E+04  2.15639E+04 -6.38004E+03  2.40538E+04 -2.17925E+04  1.01487E+04 -2.65417E+04 -5.85677E+03
 -1.80867E+04 -1.69577E+04 -6.52042E+03 -1.82986E+04  3.73227E+03 -1.66543E+04  1.37650E+04 -1.58966E+04
  2.32097E+04 -1.20049E+04  2.97966E+04  2.06968E+03  2.23483E+04  1.79861E+04  3.86830E+03  3.39050E+04
 -1.65457E+04  2.87341E+04 -2.61667E+04  9.70212E+03 -1.99737E+04 -1.05264E+04 -4.05055E+03 -1.38599E+04
  2.22973E+03 -3.48143E+03 -3.61084E+03  5.59608E+03 -1.41703E+04  5.34760E+03 -1.45184E+04 -5.57823E+03
 -9.46972E+03 -1.69717E+04  4.70087E+03 -2.10756E+04  1.36099E+04 -1.51861E+04  1.60492E+04 -1.32047E+03
  9.89865E+03  1.15207E+04 -8.45716E+02  1.70195E+04 -1.15687E+04  9.71577E+03 -1.66892E+04 -3.74851E+03
 -1.25394E+04 -1.52788E+04 -1.60830E+03 -2.04756E+04  9.21068E+03 -1.63419E+04  1.70563E+04 -8.18048E+03
  1.58202E+04  6.11867E+02  1.14344E+04  4.27744E+03  5.87148E+03  8.30734E+02  8.31969E+03 -1.26979E+03
  1.51075E+04  2.76985E+03  1.64136E+04  1.35324E+04  1.04757E+04  2.66091E+04 -2.97091E+03  2.92130E+04
 -1.72549E+04  2.28669E+04 -2.73283E+04  1.12610E+04 -2.78712E+04 -1.85786E+03 -2.36901E+04 -1.61803E+04
 -1.07493E+04 -2.31923E+04  7.54846E+03 -2.15062E+04  1.85975E+04 -1.15576E+04  1.68214E+04  4.39481E+03
  6.42356E+03  1.22906E+04 -7.94219E+03  1.12715E+04 -1.45370E+04  2.37576E+03 -1.08152E+04 -8.93178E+03
 -2.74186E+02 -1.34222E+04  7.08763E+03 -1.02659E+04  8.61187E+03 -1.31096E+03  1.80332E+03  5.32894E+03
 -6.14476E+03  1.92085E+03 -4.68061E+03 -5.19099E+03  1.38044E+02 -1.14338E+04  8.37990E+03 -1.16930E+04
  1.37844E+04 -5.54499E+03  1.40048E+04  2.80606E+03  1.19652E+04  1.09515E+04  5.53357E+03  1.61421E+04
 -2.30384E+03  1.80312E+04 -1.11671E+04  1.14319E+04 -1.27904E+04  3.49656E+03 -9.29509E+03 -2.65049E+03
 -4.78347E+03 -3.95123E+03 -8.20980E+02  1.38433E+03 -2.29667E+03  2.36890E+03 -4.14395E+03  3.72780E+03
 -9.08686E+03 -5.50985E+02 -9.36202E+03 -7.85770E+03 -3.80302E+03 -1.26401E+04  4.20529E+03 -9.52171E+03
  8.07197E+03 -4.31834E+03  5.98443E+03  2.28697E+03  6.80244E+02  3.91314E+03 -4.22714E+03 -3.25140E+02
 -3.91208E+03 -5.87301E+03 -8.92210E+02 -8.32765E+03  4.65365E+03 -9.10551E+03  1.13778E+04 -4.55412E+03
  1.31069E+04  6.86943E+02  9.84661E+03  7.43536E+03  1.80760E+03  1.03581E+04 -5.85415E+03  9.33112E+03
 -7.47763E+03  3.01191E+03 -4.07559E+03 -1.48487E+03  1.59485E+03 -2.24076E+03  5.32384E+03 -8.45505E+02
  4.54786E+03  3.94089E+03  1.02664E+03  7.14621E+03 -4.68556E+03  7.08554E+03 -8.85480E+03  1.90371E+03
 -5.77188E+03 -4.27506E+03  2.00554E+02 -7.45979E+03  4.41579E+03 -3.56594E+03  4.31695E+03  1.42071E+03
  7.23267E+02  4.18610E+03 -4.81363E+03  5.68349E+03 -5.97997E+03  2.86757E+03 -5.68730E+03 -1.75026E+03
 -3.46362E+03 -7.34300E+03  1.29107E+03 -8.31495E+03  7.21058E+03 -5.62907E+03  7.66604E+03  1.11162E+03
  5.34434E+03  6.38498E+03 -1.90446E+01  8.33839E+03 -5.54250E+03  4.82970E+03 -6.04394E+03 -5.13712E+02
 -6.26775E+03 -5.51235E+03 -1.73166E+03 -5.84412E+03  2.98880E+03 -5.22247E+03  3.41300E+03 -2.95937E+03
  2.97558E+03  5.18239E+02 -1.18494E+02  1.31923E+03  4.96837E+02 -7.70797E+02  5.79126E+02 -2.47606E+03
  4.72849E+03 -1.33169E+03  6.70485E+03  8.52255E+02  6.84310E+03  3.88726E+03  5.70407E+03  8.67922E+03
 -1.58815E+03  1.01528E+04 -9.16145E+03  7.81317E+03 -1.20518E+04  1.53220E+03 -9.36956E+03 -3.19003E+03
 -5.00934E+03 -7.63029E+03 -5.30212E+02 -6.28123E+03  2.64256E+03 -2.84515E+03  1.99989E+03 -2.54044E+03
  1.57742E+03 -1.79343E+03  2.19878E+03 -2.49446E+03  4.06378E+03 -1.67500E+03  4.13258E+03  1.35673E+02
  5.13938E+03  1.27479E+03  1.39620E+03  4.05370E+03 -1.36611E+03  3.65043E+03 -5.06272E+03  2.94282E+03
 -6.08322E+03 -1.01786E+03 -2.82725E+03 -4.08499E+03  1.20888E+02 -6.32175E+03  3.63137E+03 -6.46901E+03
  6.25544E+03 -3.62713E+03  7.73015E+03  5.34893E+02  5.82609E+03  5.50669E+03  1.26508E+03  7.27978E+03
 -2.89700E+03  6.93150E+03 -4.05553E+03  2.24007E+03 -2.34327E+03 -9.63556E+02 -6.55953E+02 -8.14441E+02
 -6.52281E+02  5.17550E+02 -1.08417E+03  2.21751E+03 -2.96833E+03  9.39038E+02 -4.69942E+03 -5.17898E+02
 -2.13350E+03 -4.80819E+03  6.48982E+02 -5.81819E+03  3.37913E+03 -5.30339E+03  4.64412E+03 -1.36628E+03
  5.24618E+03  2.64542E+03  2.33966E+03  4.40664E+03 -1.08968E+03  5.55410E+03 -3.73570E+03  3.22515E+03
 -5.03392E+03  7.30532E+02 -3.76656E+03 -3.15918E+03 -3.99904E+02 -4.22718E+03  2.07348E+03 -3.12179E+03
  3.40950E+03 -1.59756E+03  2.34841E+03  4.15783E+02  4.18129E+02  2.05965E+03  9.38065E+02  5.54847E+02
  2.01274E+03  3.78571E+02  1.40022E+03  1.24647E+03  1.26579E+03  2.28812E+03  1.80712E+03  2.30903E+03
 -1.18186E+03  3.95103E+03 -3.31143E+03  4.76799E+03 -4.31610E+03  1.30459E+03 -5.33694E+03 -8.58338E+02
 -2.45175E+03 -4.50798E+03  7.39213E+02 -5.43841E+03  2.49393E+03 -3.17369E+03  4.10305E+03 -1.17661E+03
  2.98048E+03  2.14897E+03  4.09101E+02  3.15730E+03 -1.00914E+03  1.63518E+03 -1.35206E+03 -7.85515E+00
 -8.64406E+02 -2.00442E+03  1.35186E+03 -1.86828E+03  1.87518E+03 -1.30325E+03  1.62029E+03  4.95608E+02
  1.22713E+03  3.19728E+02  9.72135E+02 -8.10608E+01 -3.04878E+02  6.69050E+02  1.70012E+03 -3.37513E+02
  5.87645E+02 -3.21824E+02  1.85978E+03  9.00954E+02  3.50888E+02  2.95223E+03 -5.08692E+02  3.56184E+03
 -2.09254E+03  1.40410E+03 -2.58217E+03  4.64579E+02 -2.73638E+03 -1.09617E+03 -6.17801E+02 -1.44261E+03
  4.07369E+02 -1.67816E+03  1.17377E+03 -8.34997E+02  9.03878E+02  1.14743E+03 -7.20596E+02  1.76431E+03
 -1.72693E+03  9.16965E+02 -1.91424E+03 -1.41079E+03 -1.03566E+03 -2.68580E+03  4.19027E+02 -2.07087E+03
  6.65927E+02 -1.00744E+03  1.29567E+03  1.09534E+02  1.79190E+03  2.89235E+01  4.24590E+02  1.47211E+03
 -4.80372E+02  4.80649E+01 -1.10826E+03 -2.52841E+02  6.75559E+02 -1.03543E+03  2.17641E+03 -1.01894E+03
  2.11150E+03  4.54463E+02  3.30390E+03  1.15084E+03  1.12352E+03  2.17319E+03 -3.96983E+02  2.56917E+03
 -1.94484E+03  4.33345E+02 -1.75057E+03 -2.58028E+02 -1.39236E+03 -1.52966E+03  3.92459E+02 -9.78269E+02
  1.68073E+03 -8.57923E+02  9.36715E+02  7.43975E+02  3.55178E+02  1.88664E+03  2.87539E+02  1.05554E+03
 -5.66125E+02  1.28863E+03 -4.38610E+02 -7.95534E+01 -1.75297E+02  5.63697E+02 -7.75612E+02  8.65476E+02
 -7.92798E+02  1.00086E+03 -2.23466E+03  4.60175E+02 -2.18791E+03  1.51300E+01 -3.08792E+03 -1.54779E+03
 -1.12286E+03 -2.74168E+03  6.46902E+02 -3.74915E+03  1.72848E+03 -3.24330E+03  3.57177E+03 -1.30547E+03
  3.12499E+03  1.69929E+02  1.78585E+03  2.24432E+03 -4.26393E+02  1.95689E+03 -9.73633E+02  1.62311E+03
 -1.24212E+03  1.25761E+03 -7.94018E+02  8.89813E+01 -5.56223E+02 -1.43904E+02 -6.80675E+02  2.14412E+02
 -1.28605E+03  1.54962E+01 -7.91717E+02  6.31456E+01  2.13835E+01 -6.67770E+02 -3.32679E+02 -1.04748E+03
  1.56125E+03 -7.84491E+02  6.36854E+02  2.97014E+02  1.51024E+03  1.29925E+03 -4.67484E+01  1.87919E+03
 -1.20714E+03  2.58184E+03 -2.31021E+03  1.61970E+03 -2.57325E+03 -2.32690E+02 -1.78118E+03 -1.40127E+03
 -1.20738E+03 -1.65290E+03  4.89074E+02 -1.66758E+03  9.28694E+02 -8.01381E+02  1.11568E+03 -7.10197E+01
  8.27867E+02  5.73984E+02  1.51645E+01  7.98071E+02 -4.84472E+02 -1.30368E+02 -2.68089E+02 -6.34672E+02
  4.06284E+02  1.18581E+02  8.51078E+01  6.25555E+02  1.49149E+02  6.77582E+02  3.66507E+02  3.87765E+02
 -7.78027E+02  8.02705E+02 -1.02813E+03  1.51407E+02 -1.13291E+03 -5.28958E+02  3.78742E+01 -1.55498E+03
  9.14485E+02 -7.42688E+02  9.63600E+02 -1.17077E+02  1.39314E+03 -6.79957E+02  7.43774E+02  1.09868E+03
  3.57647E+02  8.43340E+02 -7.63092E+01  1.02740E+03 -6.16796E+02  1.03921E+03 -5.47479E+02 -4.41191E+01
 -3.05769E+01 -1.27323E+02 -4.57766E+02 -8.19851E+01 -6.22830E+02  3.01744E+01 -1.28028E+03 -2.85087E+02
 -1.35506E+03 -1.75073E+02 -3.17758E+02 -1.42588E+03  7.02638E+02 -1.59699E+03  1.06879E+03 -2.31778E+02
  9.79541E+02 -7.90198E+01 -6.60710E+01  4.49221E+02  5.80576E+01  8.91084E+02 -7.28270E+02  7.86659E+02
