 $NMID ID='MM_0lb_SNR800_14hz_g50_96.RAW', FMTDAT='(8E13.5)'
 TRAMP=1., VOLUME=1. $END
  3.09807E+05  2.45352E+02  3.37839E+05  2.50743E+05  8.46644E+04  3.38076E+05 -1.32605E+05  2.51005E+05
 -1.90250E+05  8.29727E+04 -1.11864E+05 -3.25055E+04  6.20111E+02 -5.01772E+04  5.40355E+04  6.02021E+01
  3.55643E+04  5.25366E+04 -1.68271E+04  7.53142E+04 -6.06496E+04  6.34521E+04 -8.40765E+04  3.23453E+04
 -8.11579E+04 -1.11425E+04 -5.71884E+04 -5.12247E+04 -1.55489E+04 -6.97130E+04  2.74655E+04 -4.58085E+04
  4.01070E+04  3.56402E+03  1.62093E+04  4.78013E+04 -3.41839E+04  4.74503E+04 -6.68124E+04 -4.06689E+02
 -5.31297E+04 -5.67658E+04 -6.85467E+03 -7.67991E+04  3.40087E+04 -5.54373E+04  4.79074E+04 -1.70204E+04
  4.35361E+04  1.11490E+04  3.18563E+04  2.56698E+04  1.59327E+04  2.92800E+04 -5.24193E+03  2.70358E+04
 -2.16496E+04  1.22904E+04 -1.85007E+04 -4.96897E+03  5.63849E+03 -7.63050E+03  2.23491E+04  1.21682E+04
  7.28434E+03  3.54486E+04 -3.22341E+04  3.55443E+04 -6.32135E+04  2.12829E+03 -5.70222E+04 -4.30684E+04
 -1.25262E+04 -6.32927E+04  3.95835E+04 -4.54586E+04  5.84195E+04 -2.19902E+03  3.42414E+04  3.26357E+04
 -5.89872E+03  3.64117E+04 -2.98362E+04  1.61774E+04 -3.04228E+04 -4.32975E+03 -1.70004E+04 -1.11051E+04
 -8.24919E+03 -1.31711E+04 -7.13090E+02 -1.77538E+04  7.67515E+03 -2.27126E+04  1.53969E+04 -1.35136E+04
  1.14416E+04  4.72568E+03 -8.15122E+03  1.26291E+04 -2.17155E+04 -4.74841E+03 -8.23011E+03 -3.37224E+04
  2.29897E+04 -4.35956E+04  4.83532E+04 -1.94153E+04  4.51614E+04  1.96285E+04  1.58232E+04  4.41336E+04
 -1.60332E+04  3.33251E+04 -2.53329E+04  1.72038E+03 -9.83980E+03 -2.81097E+04  2.09193E+04 -3.37170E+04
  4.13099E+04 -9.13717E+03  3.55980E+04  2.37677E+04  1.81805E+04  4.68575E+04 -7.78790E+03  5.03510E+04
 -3.19502E+04  3.36846E+04 -4.23831E+04  9.56656E+03 -4.29761E+04 -1.66021E+04 -2.33777E+04 -3.78790E+04
  7.49279E+03 -3.81720E+04  3.14973E+04 -1.49034E+04  2.92309E+04  1.12315E+04  3.90723E+03  1.89769E+04
 -1.35843E+04  8.26298E+03 -1.05754E+04 -7.49828E+03  5.65031E+03 -1.10183E+04  1.79605E+04  5.95185E+03
  1.30734E+04  2.19448E+04 -5.90507E+03  2.52393E+04 -2.26251E+04  1.14742E+04 -2.80790E+04 -4.68505E+03
 -2.06446E+04 -1.71829E+04 -8.56131E+03 -2.04015E+04  4.20419E+03 -2.00883E+04  1.59054E+04 -1.83026E+04
  2.63313E+04 -1.29853E+04  3.28882E+04  2.83088E+03  2.38510E+04  1.99532E+04  4.24906E+03  3.63581E+04
 -1.77787E+04  3.05470E+04 -2.77542E+04  1.03707E+04 -2.08875E+04 -1.04691E+04 -4.26169E+03 -1.33137E+04
  2.11264E+03 -2.96486E+03 -5.16268E+03  6.69174E+03 -1.63101E+04  5.07084E+03 -1.62704E+04 -7.06482E+03
 -1.01342E+04 -1.91064E+04  4.96708E+03 -2.30433E+04  1.54274E+04 -1.66262E+04  1.83688E+04 -1.88117E+03
  1.18614E+04  1.32630E+04 -9.12729E+02  1.93567E+04 -1.32521E+04  1.10559E+04 -1.94477E+04 -3.95212E+03
 -1.41915E+04 -1.71042E+04 -1.91080E+03 -2.27030E+04  1.04267E+04 -1.88230E+04  1.91841E+04 -9.67453E+03
  1.81864E+04  6.34863E+02  1.28317E+04  4.31841E+03  6.79715E+03  1.02759E+03  9.85811E+03 -1.16603E+03
  1.75663E+04  2.60409E+03  1.92223E+04  1.51734E+04  1.29805E+04  3.03229E+04 -2.83792E+03  3.43011E+04
 -2.00725E+04  2.73593E+04 -3.18223E+04  1.36876E+04 -3.39886E+04 -2.27019E+03 -2.78306E+04 -1.98750E+04
 -1.21917E+04 -2.79775E+04  9.27473E+03 -2.53179E+04  2.15615E+04 -1.29502E+04  1.93423E+04  5.42662E+03
  7.58341E+03  1.41248E+04 -9.06818E+03  1.26670E+04 -1.66053E+04  2.29630E+03 -1.21476E+04 -1.00311E+04
 -3.25813E+00 -1.56003E+04  7.63358E+03 -1.16728E+04  1.01926E+04 -1.41397E+03  2.18589E+03  6.69082E+03
 -7.17993E+03  2.57916E+03 -6.06965E+03 -5.64946E+03 -6.18692E+02 -1.35966E+04  9.84247E+03 -1.43072E+04
  1.67791E+04 -7.78855E+03  1.82342E+04  2.95957E+03  1.57260E+04  1.31882E+04  7.30369E+03  2.03949E+04
 -3.49001E+03  2.26130E+04 -1.39432E+04  1.39317E+04 -1.58247E+04  3.15891E+03 -1.11602E+04 -3.64812E+03
 -5.26763E+03 -5.33914E+03 -6.47692E+02  8.26807E+02 -2.51460E+03  2.63980E+03 -5.02921E+03  4.49305E+03
 -1.04639E+04 -4.55174E+02 -1.13078E+04 -9.29010E+03 -4.63336E+03 -1.49036E+04  4.70507E+03 -1.15903E+04
  9.46854E+03 -4.85055E+03  6.95250E+03  2.92363E+03  5.99968E+01  4.34527E+03 -5.26659E+03 -4.07868E+02
 -5.17424E+03 -7.31786E+03 -1.02964E+03 -1.09254E+04  6.23313E+03 -1.14251E+04  1.39789E+04 -5.90656E+03
  1.63415E+04  1.35464E+03  1.21469E+04  9.38533E+03  2.45281E+03  1.29699E+04 -6.97220E+03  1.09787E+04
 -9.57565E+03  3.58450E+03 -4.64306E+03 -2.15555E+03  1.64167E+03 -2.99552E+03  6.24293E+03 -7.47630E+02
  5.37448E+03  4.69490E+03  1.28355E+03  8.97526E+03 -6.24297E+03  8.83637E+03 -1.11633E+04  2.30968E+03
 -7.34097E+03 -5.25145E+03  1.60908E+02 -9.40554E+03  5.43907E+03 -4.52834E+03  5.63975E+03  2.08434E+03
  1.15053E+03  6.02804E+03 -5.81176E+03  7.66966E+03 -8.15574E+03  3.43855E+03 -8.22081E+03 -2.77231E+03
 -4.83997E+03 -9.66337E+03  2.23863E+03 -1.14487E+04  9.76930E+03 -7.10553E+03  1.04195E+04  1.76085E+03
  6.69466E+03  8.28138E+03 -4.25430E+02  1.07114E+04 -7.35317E+03  5.76564E+03 -8.07209E+03 -9.99967E+02
 -7.64067E+03 -7.52356E+03 -1.44420E+03 -8.07556E+03  4.09780E+03 -6.61685E+03  4.93344E+03 -2.98733E+03
  3.34514E+03  9.79460E+02 -3.94491E+02  1.48893E+03 -9.66177E+01 -1.49054E+03  1.19257E+03 -3.99139E+03
  6.82404E+03 -2.13790E+03  9.37892E+03  1.02173E+03  9.49747E+03  6.36067E+03  7.10913E+03  1.26432E+04
 -2.66469E+03  1.45457E+04 -1.21674E+04  1.05720E+04 -1.60774E+04  1.98160E+03 -1.28349E+04 -5.13750E+03
 -6.17716E+03 -1.05649E+04 -6.86840E+02 -8.67736E+03  3.04122E+03 -4.31974E+03  3.28934E+03 -3.47742E+03
  2.09324E+03 -2.34535E+03  2.82036E+03 -3.14143E+03  4.00494E+03 -2.35107E+03  5.24072E+03 -6.15826E+01
  7.37428E+03  1.62946E+03  3.05497E+03  5.25132E+03 -1.67443E+03  5.89311E+03 -6.96591E+03  5.13850E+03
 -8.51078E+03 -1.09816E+03 -4.58779E+03 -5.62348E+03  1.70420E+01 -9.07481E+03  5.07444E+03 -9.29906E+03
  8.95729E+03 -5.29272E+03  1.13858E+04  1.25973E+03  7.70740E+03  7.55107E+03  1.37370E+03  1.02183E+04
 -3.97405E+03  8.83897E+03 -5.99673E+03  2.95244E+03 -3.90737E+03 -1.16490E+03 -1.15547E+03 -1.09222E+03
 -7.04832E+02  3.59203E+02 -1.55189E+03  2.59469E+03 -3.61054E+03  1.76208E+03 -6.23558E+03 -8.83172E+02
 -3.51580E+03 -6.24308E+03  6.69487E+02 -8.48478E+03  4.63063E+03 -7.79956E+03  7.33591E+03 -2.28602E+03
  7.64816E+03  4.10622E+03  3.62992E+03  6.76863E+03 -1.49471E+03  7.68846E+03 -5.43647E+03  4.95805E+03
 -7.50277E+03  8.51508E+02 -6.07254E+03 -4.76663E+03 -4.06466E+02 -6.17542E+03  3.06428E+03 -5.22809E+03
  5.23839E+03 -1.83098E+03  3.36482E+03  1.24140E+03  8.32084E+02  2.08794E+03  9.55784E+02  1.08182E+03
  2.21593E+03  5.43577E+02  2.21958E+03  1.17436E+03  2.19754E+03  3.10554E+03  2.22978E+03  3.84070E+03
 -1.75726E+03  5.88112E+03 -5.19243E+03  6.55745E+03 -7.24354E+03  1.68984E+03 -8.16464E+03 -2.28674E+03
 -3.65426E+03 -7.46756E+03  1.48443E+03 -8.60882E+03  4.35744E+03 -5.34840E+03  6.43998E+03 -1.44593E+03
  4.99255E+03  2.72966E+03  9.59722E+02  4.27566E+03 -1.70350E+03  2.56333E+03 -2.44610E+03 -4.09416E+02
 -1.08078E+03 -3.22421E+03  1.85166E+03 -3.40016E+03  2.80260E+03 -1.75563E+03  3.01992E+03  7.82786E+02
  1.69211E+03  1.41211E+03  6.29731E+02  6.82170E+02 -7.56871E+02  1.12241E+03  1.92104E+03 -3.16938E+02
  7.79549E+02 -6.03541E+02  3.30067E+03  1.19343E+03  1.46750E+03  4.33420E+03 -5.90921E+02  5.49516E+03
 -3.59202E+03  3.04652E+03 -4.37177E+03  1.01212E+03 -3.98484E+03 -1.94209E+03 -1.33100E+03 -2.63705E+03
  6.16150E+02 -2.87245E+03  1.75358E+03 -1.61089E+03  1.45353E+03  1.98833E+03 -7.12377E+02  2.49744E+03
 -3.28706E+03  1.67415E+03 -3.26676E+03 -2.18290E+03 -2.12996E+03 -4.01908E+03  5.50957E+02 -3.50517E+03
  1.87372E+03 -2.05093E+03  2.52933E+03 -1.10330E+02  2.45012E+03  7.63700E+02  4.97775E+02  1.99840E+03
 -9.38755E+02  5.14666E+02 -1.82791E+03 -1.05068E+03  7.48863E+02 -2.40338E+03  3.57829E+03 -2.41401E+03
  3.96754E+03  1.81902E+02  4.90656E+03  2.74818E+03  1.81557E+03  4.30550E+03 -1.12701E+03  4.29441E+03
 -3.59608E+03  1.62363E+03 -3.41776E+03 -9.17802E+02 -2.01182E+03 -3.09562E+03  7.08788E+02 -2.50161E+03
  2.89496E+03 -1.42609E+03  2.14202E+03  1.32718E+03  8.21836E+02  2.47195E+03  4.32353E+01  2.09174E+03
 -9.84178E+02  1.63633E+03 -1.03137E+03  4.71075E+02 -3.84104E+02  6.56096E+02 -1.11025E+03  8.77832E+02
 -1.46082E+03  2.05732E+03 -3.19864E+03  1.30198E+03 -4.14884E+03  4.60311E+02 -4.76554E+03 -2.78702E+03
 -2.57374E+03 -5.31907E+03  1.34501E+03 -6.37405E+03  3.45775E+03 -5.41238E+03  6.12352E+03 -1.87219E+03
  5.52866E+03  4.52330E+02  2.94716E+03  3.92812E+03 -5.14451E+02  3.79182E+03 -1.87008E+03  3.68355E+03
 -2.53026E+03  1.38110E+03 -1.23009E+03 -7.08481E+02 -7.03438E+02 -7.50382E+01 -5.39815E+02  1.75524E+02
 -1.64974E+03  3.95105E+02 -1.27454E+03 -8.35685E+01 -1.77220E+02 -9.79997E+02 -4.21276E+02 -1.75891E+03
  2.61199E+03 -1.40289E+03  1.82275E+03  8.26131E+00  3.00705E+03  2.25317E+03  7.91268E+01  3.70654E+03
 -2.51515E+03  4.95832E+03 -4.43182E+03  2.67167E+03 -4.81884E+03 -4.04399E+02 -3.50154E+03 -3.17894E+03
 -1.63587E+03 -3.96714E+03  9.90112E+02 -3.49452E+03  2.26197E+03 -2.00960E+03  2.27632E+03  3.88691E+02
  1.22204E+03  1.28874E+03  1.71378E+02  1.20414E+03 -7.03825E+02 -1.27102E+02 -1.98554E+02 -8.72078E+02
  1.27417E+03 -5.21157E+02  1.25413E+03  5.71554E+02  5.65378E+02  1.30796E+03  3.40269E+02  1.44378E+03
 -1.69188E+03  1.76644E+03 -2.13028E+03  3.61858E+02 -2.20456E+03 -1.57592E+03  1.20875E+02 -3.04661E+03
  1.74950E+03 -2.55429E+03  2.47064E+03 -5.85606E+02  2.83470E+03 -1.83506E+01  1.44869E+03  2.34453E+03
  8.75361E+02  2.17204E+03 -9.38244E+02  1.79819E+03 -1.69679E+03  9.01657E+02 -1.62842E+03  1.04203E+02
 -7.18627E+02 -2.39348E+02 -7.87669E+02  3.98630E+02 -1.45868E+03  3.96873E+02 -2.08625E+03 -6.45085E+02
 -1.76230E+03 -7.30608E+02 -8.83273E+02 -2.54496E+03  1.34140E+03 -2.90501E+03  1.84787E+03 -1.12996E+03
  2.46054E+03  4.36329E+02  1.18435E+03  1.32077E+03 -2.19259E+02  2.23004E+03 -1.64191E+03  1.82942E+03
