 $NMID ID='MM_0lb_SNR800_12hz_g45_98.RAW', FMTDAT='(8E13.5)'
 TRAMP=1., VOLUME=1. $END
  3.09885E+05  3.55251E+02  3.37462E+05  2.50700E+05  8.48762E+04  3.37864E+05 -1.32510E+05  2.51465E+05
 -1.90477E+05  8.32073E+04 -1.12077E+05 -3.27724E+04  7.35683E+02 -5.06983E+04  5.36587E+04 -1.98024E+02
  3.55123E+04  5.27246E+04 -1.68491E+04  7.58160E+04 -6.08223E+04  6.39561E+04 -8.43243E+04  3.21679E+04
 -8.15366E+04 -1.15902E+04 -5.72578E+04 -5.14162E+04 -1.50937E+04 -7.01425E+04  2.74052E+04 -4.60890E+04
  4.04351E+04  3.69676E+03  1.61389E+04  4.80408E+04 -3.43421E+04  4.78735E+04 -6.69982E+04 -3.14456E+01
 -5.37139E+04 -5.70323E+04 -6.67237E+03 -7.78533E+04  3.42042E+04 -5.56304E+04  4.84565E+04 -1.76492E+04
  4.39279E+04  1.17567E+04  3.21170E+04  2.60163E+04  1.59456E+04  2.98273E+04 -5.56995E+03  2.71110E+04
 -2.22340E+04  1.19908E+04 -1.85486E+04 -5.31002E+03  6.30642E+03 -7.79764E+03  2.27053E+04  1.24887E+04
  7.37380E+03  3.58394E+04 -3.25267E+04  3.57731E+04 -6.40500E+04  2.18574E+03 -5.74205E+04 -4.34395E+04
 -1.24760E+04 -6.40517E+04  4.04426E+04 -4.60692E+04  5.91644E+04 -2.23109E+03  3.49660E+04  3.28920E+04
 -6.06703E+03  3.71118E+04 -3.06239E+04  1.65127E+04 -3.13715E+04 -4.39315E+03 -1.77771E+04 -1.11886E+04
 -8.57755E+03 -1.37447E+04 -4.70029E+02 -1.85789E+04  7.92499E+03 -2.30835E+04  1.55351E+04 -1.30593E+04
  1.12916E+04  5.53556E+03 -8.84163E+03  1.25963E+04 -2.20827E+04 -5.02601E+03 -8.68389E+03 -3.48490E+04
  2.32605E+04 -4.48367E+04  4.94196E+04 -1.99679E+04  4.59787E+04  1.99361E+04  1.61591E+04  4.50252E+04
 -1.61323E+04  3.41949E+04 -2.62917E+04  2.16061E+03 -1.05880E+04 -2.80364E+04  2.15550E+04 -3.45278E+04
  4.22624E+04 -9.61609E+03  3.65909E+04  2.42533E+04  1.89467E+04  4.78346E+04 -8.03978E+03  5.17400E+04
 -3.26555E+04  3.52600E+04 -4.37196E+04  1.00668E+04 -4.40185E+04 -1.70091E+04 -2.42009E+04 -3.92736E+04
  7.49726E+03 -3.92042E+04  3.22496E+04 -1.54320E+04  3.00652E+04  1.10096E+04  4.50706E+03  1.95330E+04
 -1.37530E+04  8.71738E+03 -1.06599E+04 -7.63639E+03  5.71539E+03 -1.07406E+04  1.82282E+04  6.03245E+03
  1.40292E+04  2.20979E+04 -5.76420E+03  2.54325E+04 -2.25127E+04  1.21135E+04 -2.93744E+04 -4.48322E+03
 -2.20241E+04 -1.75829E+04 -9.49485E+03 -2.17607E+04  4.16440E+03 -2.13756E+04  1.70261E+04 -1.98193E+04
  2.77560E+04 -1.33544E+04  3.44003E+04  3.49489E+03  2.47502E+04  2.11672E+04  4.33558E+03  3.78771E+04
 -1.85962E+04  3.14429E+04 -2.88968E+04  1.08843E+04 -2.15377E+04 -1.02004E+04 -4.74409E+03 -1.33582E+04
  1.33757E+03 -2.39393E+03 -5.58711E+03  7.20826E+03 -1.73303E+04  5.14219E+03 -1.73932E+04 -7.65918E+03
 -1.03549E+04 -2.00700E+04  5.39605E+03 -2.38740E+04  1.65046E+04 -1.75609E+04  1.96400E+04 -1.91436E+03
  1.22030E+04  1.43738E+04 -1.45428E+03  2.02772E+04 -1.41252E+04  1.16718E+04 -2.04942E+04 -4.19390E+03
 -1.53380E+04 -1.82523E+04 -2.00971E+03 -2.43808E+04  1.11929E+04 -2.00271E+04  2.03888E+04 -1.02511E+04
  1.89384E+04  1.80049E+00  1.35435E+04  4.17903E+03  7.64227E+03  1.41092E+03  1.03800E+04 -1.65547E+03
  1.94667E+04  2.95640E+03  2.13920E+04  1.60858E+04  1.41809E+04  3.23977E+04 -2.79799E+03  3.70693E+04
 -2.13527E+04  3.02090E+04 -3.48670E+04  1.52934E+04 -3.67877E+04 -2.49479E+03 -3.03623E+04 -2.11116E+04
 -1.26248E+04 -3.03166E+04  1.03442E+04 -2.70978E+04  2.31102E+04 -1.37098E+04  2.10850E+04  6.27809E+03
  7.53241E+03  1.58455E+04 -9.63217E+03  1.32515E+04 -1.73286E+04  2.57606E+03 -1.30292E+04 -1.08727E+04
 -5.48583E+02 -1.66241E+04  8.55327E+03 -1.23402E+04  1.15772E+04 -1.09169E+03  2.42374E+03  7.05910E+03
 -7.51358E+03  2.82853E+03 -6.90448E+03 -6.20643E+03 -9.97563E+02 -1.47025E+04  1.01205E+04 -1.58231E+04
  1.83325E+04 -8.27834E+03  2.03534E+04  3.00410E+03  1.75834E+04  1.48625E+04  8.35314E+03  2.26511E+04
 -3.95000E+03  2.49765E+04 -1.59359E+04  1.56554E+04 -1.78696E+04  3.78921E+03 -1.27375E+04 -4.12673E+03
 -5.76449E+03 -5.36544E+03 -8.06466E+02  8.79877E+02 -2.86254E+03  3.02912E+03 -5.94767E+03  4.74568E+03
 -1.15537E+04 -9.18241E+02 -1.21853E+04 -9.74583E+03 -4.70702E+03 -1.61057E+04  5.42083E+03 -1.28561E+04
  1.07119E+04 -5.07442E+03  7.48521E+03  3.40396E+03  2.50609E+02  4.99933E+03 -5.97402E+03 -3.26373E+01
 -5.59974E+03 -8.01171E+03 -9.47057E+02 -1.16749E+04  7.11391E+03 -1.28852E+04  1.56745E+04 -6.99629E+03
  1.85418E+04  1.30795E+03  1.35833E+04  1.09100E+04  2.89605E+03  1.44140E+04 -7.55223E+03  1.26658E+04
 -1.02472E+04  3.69147E+03 -5.27745E+03 -2.54541E+03  1.98836E+03 -3.22547E+03  7.01368E+03 -1.03560E+03
  6.25076E+03  5.46818E+03  1.06875E+03  1.01367E+04 -7.14863E+03  9.53442E+03 -1.20992E+04  2.25795E+03
 -8.08934E+03 -6.01275E+03  2.85582E+02 -1.05034E+04  6.81328E+03 -5.37812E+03  6.94929E+03  2.31871E+03
  1.46640E+03  7.07442E+03 -6.39263E+03  8.59208E+03 -9.60766E+03  4.08796E+03 -1.00673E+04 -3.52223E+03
 -5.73295E+03 -1.11777E+04  2.66354E+03 -1.32725E+04  1.16532E+04 -8.10838E+03  1.25533E+04  1.68765E+03
  7.58858E+03  9.91580E+03 -7.59466E+02  1.21687E+04 -8.60689E+03  6.76490E+03 -9.50227E+03 -1.00838E+03
 -8.49441E+03 -7.96731E+03 -1.45900E+03 -9.06452E+03  4.50405E+03 -7.44834E+03  5.83734E+03 -3.28460E+03
  4.06006E+03  1.33643E+03 -3.61629E+02  1.65487E+03 -1.84756E+02 -2.25345E+03  1.71461E+03 -4.86478E+03
  7.78235E+03 -2.99227E+03  1.11880E+04  1.58994E+03  1.11434E+04  7.58621E+03  8.05814E+03  1.52322E+04
 -3.01986E+03  1.69524E+04 -1.42401E+04  1.27418E+04 -1.90467E+04  2.33971E+03 -1.50004E+04 -6.18426E+03
 -7.52149E+03 -1.27516E+04 -4.19777E+02 -1.04441E+04  3.67799E+03 -5.51182E+03  3.54758E+03 -3.80106E+03
  2.83446E+03 -2.55475E+03  3.37204E+03 -3.31317E+03  4.95759E+03 -2.72457E+03  6.34544E+03 -6.45961E+02
  8.30233E+03  1.77667E+03  3.86700E+03  6.78283E+03 -1.86146E+03  7.27660E+03 -8.34925E+03  5.69465E+03
 -1.01647E+04 -8.57525E+02 -5.98292E+03 -6.99953E+03 -6.54903E+02 -1.10878E+04  6.32665E+03 -1.09685E+04
  1.13675E+04 -6.06322E+03  1.39745E+04  1.24662E+03  9.55033E+03  9.39416E+03  1.59245E+03  1.22682E+04
 -5.04590E+03  1.02910E+04 -7.19538E+03  3.88876E+03 -4.80045E+03 -1.17639E+03 -1.69551E+03 -1.41138E+03
 -1.02631E+03 -2.28802E+02 -1.87760E+03  2.70305E+03 -4.53260E+03  1.68479E+03 -7.30722E+03 -9.89724E+02
 -4.52376E+03 -7.19648E+03  2.67578E+02 -1.01356E+04  6.37861E+03 -9.27502E+03  9.81763E+03 -2.30007E+03
  1.00156E+04  4.67934E+03  4.34389E+03  8.99920E+03 -2.14984E+03  9.87888E+03 -7.00833E+03  6.50819E+03
 -9.00704E+03  5.96268E+02 -7.40196E+03 -5.70468E+03 -8.72714E+02 -7.91217E+03  4.41867E+03 -6.04824E+03
  6.29037E+03 -2.19301E+03  4.35969E+03  1.85956E+03  1.51067E+03  3.35913E+03  1.06003E+03  1.44602E+03
  2.00893E+03  6.67025E+02  2.50899E+03  1.38662E+03  2.93799E+03  3.95009E+03  2.56020E+03  5.15656E+03
 -2.48006E+03  7.66793E+03 -6.46781E+03  8.04522E+03 -9.68521E+03  1.98556E+03 -1.04313E+04 -3.46201E+03
 -4.98618E+03 -9.26634E+03  1.14554E+03 -1.08436E+04  5.49403E+03 -7.04959E+03  8.05803E+03 -1.85178E+03
  6.38412E+03  3.56994E+03  1.31820E+03  5.51729E+03 -2.35018E+03  3.83473E+03 -3.91146E+03 -5.75282E+02
 -1.84086E+03 -4.19622E+03  2.43117E+03 -4.40132E+03  3.85478E+03 -2.19742E+03  3.87033E+03  6.46341E+02
  2.41806E+03  1.53177E+03  1.08158E+03  1.30650E+03 -7.08066E+02  1.56715E+03  1.37808E+03 -6.39410E+02
  1.33420E+03 -5.02178E+02  4.23654E+03  1.56348E+03  1.98253E+03  5.50710E+03 -9.32063E+02  6.92803E+03
 -4.12715E+03  4.05965E+03 -6.09007E+03  1.15609E+03 -5.42933E+03 -2.07556E+03 -1.71277E+03 -3.50726E+03
  6.60256E+02 -3.60073E+03  2.55367E+03 -1.59345E+03  1.80539E+03  2.37358E+03 -1.23627E+03  2.96110E+03
 -4.03778E+03  1.98842E+03 -3.98766E+03 -2.63506E+03 -2.55616E+03 -5.72694E+03  5.07677E+02 -5.13131E+03
  2.91265E+03 -2.84141E+03  3.64054E+03 -2.21104E+02  3.28324E+03  1.10689E+03  3.02344E+02  3.09852E+03
 -1.96240E+03  1.03436E+03 -2.26097E+03 -1.13544E+03  7.98302E+02 -3.81566E+03  4.63866E+03 -3.26694E+03
  5.45354E+03  4.39697E+02  5.92157E+03  3.62564E+03  2.34217E+03  6.19550E+03 -2.08389E+03  5.61199E+03
 -4.57699E+03  2.05854E+03 -5.16753E+03 -9.14978E+02 -2.70424E+03 -3.80875E+03  1.07573E+03 -3.29181E+03
  3.91922E+03 -2.27466E+03  3.32768E+03  1.65535E+03  1.07686E+03  3.42879E+03 -3.63506E+02  3.01954E+03
 -1.25500E+03  2.18807E+03 -1.14620E+03  4.39669E+02 -1.79523E+02  7.30591E+02 -1.36161E+03  1.03584E+03
 -1.81549E+03  2.62361E+03 -4.32344E+03  1.96772E+03 -6.07150E+03  1.63902E+02 -6.73913E+03 -3.76163E+03
 -3.55263E+03 -7.93559E+03  1.64429E+03 -8.84040E+03  5.30730E+03 -7.02290E+03  8.54569E+03 -2.69387E+03
  8.02956E+03  1.19404E+03  4.68980E+03  5.35783E+03  3.46160E+02  5.89611E+03 -2.59677E+03  4.50276E+03
 -3.53391E+03  1.93698E+03 -2.18846E+03 -1.04937E+03 -9.32983E+02 -3.60598E+02 -6.29713E+02  4.38800E+01
 -1.65191E+03  3.40665E+01 -1.67683E+03 -2.94607E+02 -3.89577E+02 -1.56839E+03 -2.71003E+02 -1.90041E+03
  3.04248E+03 -2.06743E+03  3.13484E+03  1.44463E+02  4.13088E+03  3.24015E+03  6.05367E+02  5.87131E+03
 -3.34293E+03  6.74326E+03 -6.13793E+03  3.83679E+03 -7.11233E+03 -5.66382E+02 -5.62681E+03 -4.34512E+03
 -2.17990E+03 -6.02089E+03  1.47701E+03 -5.15287E+03  3.42931E+03 -2.94709E+03  3.67232E+03  3.41652E+02
  2.32918E+03  1.74890E+03  2.86728E+01  1.78106E+03 -1.29265E+03  1.02089E+02  1.38690E+02 -1.18253E+03
  1.66621E+03 -2.59821E+02  2.25916E+03  1.00338E+03  1.09043E+03  2.45430E+03  2.35852E+02  2.80347E+03
 -2.83814E+03  2.39031E+03 -3.81558E+03  3.22682E+02 -3.12626E+03 -2.49047E+03 -3.86144E+02 -4.47155E+03
  2.75627E+03 -3.98907E+03  4.12567E+03 -1.47482E+03  4.35359E+03  2.33475E+02  2.65934E+03  3.35920E+03
  5.73141E+02  3.54127E+03 -1.09261E+03  2.93548E+03 -2.27453E+03  1.69715E+03 -1.56865E+03  2.94886E+02
 -8.00213E+02 -2.65693E+02 -1.12085E+03  6.06241E+02 -1.93116E+03  6.72664E+02 -2.87976E+03 -6.34501E+02
 -3.14007E+03 -1.51251E+03 -1.04598E+03 -3.65175E+03  2.13169E+03 -4.50544E+03  3.32585E+03 -2.08331E+03
  3.49137E+03  8.25746E+02  1.45542E+03  2.36552E+03 -3.15976E+02  3.90339E+03 -2.48725E+03  2.32500E+03
