 $NMID ID='MM_0lb_SNR800_15hz_g45_78.RAW', FMTDAT='(8E13.5)'
 TRAMP=1., VOLUME=1. $END
  3.09740E+05  5.26373E+02  3.37181E+05  2.50433E+05  8.45152E+04  3.37743E+05 -1.32565E+05  2.50605E+05
 -1.90372E+05  8.30947E+04 -1.11550E+05 -3.27063E+04  1.25905E+03 -5.00605E+04  5.36598E+04 -1.38852E+02
  3.50808E+04  5.27764E+04 -1.67891E+04  7.56866E+04 -6.07463E+04  6.31106E+04 -8.35637E+04  3.19805E+04
 -8.07242E+04 -1.12199E+04 -5.69728E+04 -5.07664E+04 -1.49194E+04 -6.94103E+04  2.73982E+04 -4.54334E+04
  3.97050E+04  3.63273E+03  1.59861E+04  4.77423E+04 -3.39436E+04  4.69710E+04 -6.64629E+04 -2.61121E+02
 -5.27155E+04 -5.64387E+04 -6.44944E+03 -7.62313E+04  3.37439E+04 -5.44112E+04  4.75541E+04 -1.67521E+04
  4.28478E+04  1.13073E+04  3.13872E+04  2.53851E+04  1.59170E+04  2.87046E+04 -4.99911E+03  2.72469E+04
 -2.17482E+04  1.23265E+04 -1.88432E+04 -4.72571E+03  5.27084E+03 -7.44975E+03  2.19319E+04  1.18646E+04
  7.27112E+03  3.45901E+04 -3.15355E+04  3.50819E+04 -6.27475E+04  2.27472E+03 -5.66403E+04 -4.23329E+04
 -1.25419E+04 -6.25951E+04  3.89037E+04 -4.45780E+04  5.69820E+04 -2.14384E+03  3.35317E+04  3.17810E+04
 -6.26537E+03  3.50287E+04 -2.91787E+04  1.47911E+04 -2.96251E+04 -4.80818E+03 -1.58323E+04 -1.07109E+04
 -7.88354E+03 -1.28534E+04 -9.51371E+02 -1.75548E+04  7.30228E+03 -2.28017E+04  1.55475E+04 -1.36167E+04
  1.14863E+04  4.70123E+03 -7.49041E+03  1.31203E+04 -2.05823E+04 -3.91805E+03 -8.10459E+03 -3.27286E+04
  2.20995E+04 -4.25906E+04  4.70689E+04 -1.90846E+04  4.40798E+04  1.91045E+04  1.49933E+04  4.37187E+04
 -1.59091E+04  3.25425E+04 -2.46314E+04  1.12328E+03 -9.39258E+03 -2.75773E+04  2.07030E+04 -3.28249E+04
  3.99709E+04 -8.18026E+03  3.43297E+04  2.34142E+04  1.72719E+04  4.52212E+04 -7.99819E+03  4.85561E+04
 -3.05482E+04  3.28964E+04 -4.04250E+04  8.86060E+03 -4.09813E+04 -1.60160E+04 -2.25374E+04 -3.69612E+04
  7.08969E+03 -3.66102E+04  3.06696E+04 -1.40680E+04  2.85958E+04  1.08299E+04  3.84616E+03  1.85620E+04
 -1.32257E+04  8.22024E+03 -1.01380E+04 -7.69828E+03  5.90500E+03 -1.02737E+04  1.76342E+04  6.31358E+03
  1.31263E+04  2.18999E+04 -6.27882E+03  2.44758E+04 -2.19409E+04  1.10464E+04 -2.69701E+04 -5.07798E+03
 -1.92459E+04 -1.71701E+04 -7.44761E+03 -1.94453E+04  3.98843E+03 -1.81832E+04  1.48306E+04 -1.70655E+04
  2.44060E+04 -1.22785E+04  3.09340E+04  2.18341E+03  2.31802E+04  1.87699E+04  4.18401E+03  3.51545E+04
 -1.72073E+04  2.97408E+04 -2.72847E+04  1.01656E+04 -2.03881E+04 -1.02209E+04 -3.84462E+03 -1.33166E+04
  2.07273E+03 -3.18982E+03 -4.05624E+03  6.42051E+03 -1.49838E+04  5.19511E+03 -1.57421E+04 -6.27648E+03
 -9.47384E+03 -1.79771E+04  4.81290E+03 -2.17097E+04  1.41479E+04 -1.58859E+04  1.69169E+04 -1.81806E+03
  1.06161E+04  1.24327E+04 -8.31272E+02  1.80958E+04 -1.19993E+04  1.03713E+04 -1.77349E+04 -3.73716E+03
 -1.33906E+04 -1.59644E+04 -1.62515E+03 -2.18339E+04  9.55433E+03 -1.75732E+04  1.78303E+04 -8.88921E+03
  1.68775E+04  2.23893E+02  1.20090E+04  3.99980E+03  6.47292E+03  5.59840E+02  9.16383E+03 -1.57359E+03
  1.61136E+04  2.30503E+03  1.78229E+04  1.45690E+04  1.16233E+04  2.81140E+04 -2.95753E+03  3.18287E+04
 -1.86149E+04  2.52183E+04 -2.95365E+04  1.23322E+04 -3.06091E+04 -1.98476E+03 -2.57170E+04 -1.80121E+04
 -1.14592E+04 -2.53479E+04  8.64725E+03 -2.30748E+04  1.99732E+04 -1.24841E+04  1.82294E+04  5.18766E+03
  7.08101E+03  1.29660E+04 -8.27120E+03  1.20022E+04 -1.50807E+04  2.37472E+03 -1.17251E+04 -9.37594E+03
 -1.56325E+02 -1.47690E+04  7.40456E+03 -1.06346E+04  9.63857E+03 -1.53175E+03  2.11585E+03  6.02829E+03
 -6.53583E+03  2.33514E+03 -5.33258E+03 -5.23479E+03 -5.76314E+01 -1.25066E+04  9.24886E+03 -1.26575E+04
  1.55839E+04 -6.61214E+03  1.60009E+04  2.77921E+03  1.40362E+04  1.23825E+04  6.45841E+03  1.81053E+04
 -2.89501E+03  2.02878E+04 -1.26604E+04  1.28125E+04 -1.44251E+04  3.18045E+03 -1.03976E+04 -2.94763E+03
 -5.30549E+03 -4.38939E+03 -9.79764E+02  1.14170E+03 -2.27535E+03  2.43143E+03 -4.77476E+03  4.21502E+03
 -9.55241E+03 -6.89878E+02 -1.02288E+04 -8.36627E+03 -4.21636E+03 -1.37584E+04  4.25878E+03 -1.02414E+04
  8.80554E+03 -4.48301E+03  6.34959E+03  2.58240E+03  3.45149E+02  3.89935E+03 -4.81608E+03 -6.91321E+01
 -4.51486E+03 -6.74952E+03 -1.01534E+03 -9.23812E+03  5.33363E+03 -1.02845E+04  1.27496E+04 -5.31231E+03
  1.48709E+04  1.37156E+03  1.09856E+04  8.37509E+03  2.46320E+03  1.13966E+04 -6.41530E+03  1.03622E+04
 -8.65324E+03  3.30613E+03 -4.35209E+03 -1.63525E+03  1.63990E+03 -2.64344E+03  5.66798E+03 -7.38295E+02
  4.98334E+03  4.31511E+03  1.07696E+03  7.89079E+03 -5.63393E+03  8.14614E+03 -9.80655E+03  2.25807E+03
 -6.43714E+03 -4.83012E+03  3.87028E+02 -8.35036E+03  5.01310E+03 -4.42406E+03  5.01961E+03  1.50866E+03
  9.14020E+02  5.29953E+03 -5.24743E+03  6.54014E+03 -7.29893E+03  3.33739E+03 -7.20149E+03 -2.16563E+03
 -4.39363E+03 -8.63643E+03  2.18230E+03 -1.00490E+04  8.41126E+03 -6.18035E+03  9.14292E+03  1.39325E+03
  6.03471E+03  7.32481E+03 -3.14410E+02  9.47432E+03 -6.78769E+03  5.58097E+03 -7.35245E+03 -8.93197E+02
 -6.86293E+03 -6.64133E+03 -1.31815E+03 -6.91941E+03  3.51570E+03 -5.97079E+03  4.01630E+03 -3.20590E+03
  3.21956E+03  6.45169E+02 -2.23865E+02  1.51877E+03  1.15047E+02 -8.94907E+02  7.58514E+02 -3.21342E+03
  5.58729E+03 -1.87867E+03  8.08432E+03  7.86281E+02  7.99039E+03  5.01976E+03  6.39422E+03  1.07683E+04
 -2.25752E+03  1.26116E+04 -1.07534E+04  9.41186E+03 -1.38671E+04  2.03946E+03 -1.11701E+04 -4.16506E+03
 -5.82819E+03 -9.16797E+03 -5.14219E+02 -7.37585E+03  2.90158E+03 -3.76228E+03  2.86257E+03 -2.79232E+03
  1.84431E+03 -2.03649E+03  2.79122E+03 -2.48976E+03  4.10214E+03 -1.93247E+03  4.71546E+03  5.25326E+01
  6.09403E+03  1.53571E+03  2.38828E+03  5.00999E+03 -1.58583E+03  4.80222E+03 -6.17102E+03  3.62845E+03
 -7.21167E+03 -1.09092E+03 -3.41434E+03 -5.18751E+03 -2.94101E+01 -7.61871E+03  4.45574E+03 -8.07797E+03
  8.03897E+03 -4.48018E+03  9.82400E+03  6.72657E+02  6.65906E+03  6.56619E+03  1.52430E+03  8.66259E+03
 -3.33832E+03  8.08121E+03 -5.02796E+03  2.38253E+03 -3.22208E+03 -1.31177E+03 -1.05611E+03 -1.03538E+03
 -7.69651E+02  2.20740E+02 -9.45197E+02  2.10843E+03 -3.32791E+03  1.76734E+03 -5.57524E+03 -6.41630E+02
 -2.93097E+03 -5.44448E+03  6.16921E+02 -6.92346E+03  4.46234E+03 -6.86720E+03  6.19430E+03 -1.77985E+03
  6.69193E+03  3.56565E+03  3.14845E+03  5.91436E+03 -1.09860E+03  7.14504E+03 -4.40354E+03  4.23298E+03
 -6.18801E+03  5.77937E+02 -5.18890E+03 -3.93078E+03 -4.54233E+02 -5.15109E+03  2.75554E+03 -4.27636E+03
  4.07334E+03 -1.62542E+03  3.26887E+03  8.90779E+02  1.01485E+03  2.44797E+03  1.00386E+03  9.17389E+02
  2.10242E+03  6.84468E+02  1.61762E+03  9.84128E+02  1.72100E+03  2.73614E+03  2.05347E+03  2.92960E+03
 -1.73133E+03  5.26554E+03 -4.42966E+03  5.72816E+03 -5.81859E+03  1.82907E+03 -6.77254E+03 -1.63174E+03
 -2.96356E+03 -6.53530E+03  9.41726E+02 -7.10915E+03  3.65474E+03 -4.50845E+03  5.09299E+03 -9.44878E+02
  4.06023E+03  2.66242E+03  7.55860E+02  3.81578E+03 -1.57075E+03  2.03824E+03 -2.08539E+03 -3.28081E+02
 -1.25179E+03 -2.61968E+03  1.72525E+03 -2.69707E+03  2.52089E+03 -1.57710E+03  2.41524E+03  4.87494E+02
  1.20244E+03  1.12160E+03  9.72325E+02  6.18203E+02 -6.59316E+02  8.83606E+02  1.69544E+03 -1.44720E+02
  4.40031E+02 -1.83962E+02  3.01963E+03  7.92675E+02  1.00793E+03  3.77873E+03 -3.89384E+02  4.72967E+03
 -2.67077E+03  2.20476E+03 -3.65723E+03  8.14640E+02 -3.42441E+03 -1.34596E+03 -1.03568E+03 -2.14817E+03
  3.36076E+02 -2.28258E+03  1.69237E+03 -1.34063E+03  1.31763E+03  1.36840E+03 -6.94802E+02  1.85417E+03
 -2.65771E+03  1.23052E+03 -2.64203E+03 -1.68121E+03 -1.58575E+03 -3.36554E+03  3.06435E+02 -3.28190E+03
  1.54537E+03 -1.27158E+03  1.88224E+03  7.23630E+01  2.22077E+03  5.43175E+02  4.98758E+02  2.13536E+03
 -1.25978E+03  1.88277E+02 -1.78900E+03 -7.65233E+02  8.35595E+02 -1.97386E+03  3.12274E+03 -1.68716E+03
  3.32434E+03  2.39274E+02  4.21208E+03  1.98881E+03  1.12782E+03  3.47345E+03 -1.37798E+03  3.57515E+03
 -2.82998E+03  9.40790E+02 -3.43212E+03 -3.52454E+02 -1.90847E+03 -2.06817E+03  6.18103E+02 -1.45319E+03
  2.26820E+03 -1.13917E+03  1.55388E+03  1.22206E+03  4.70620E+02  2.05579E+03 -6.18710E+01  1.79896E+03
 -5.38921E+02  1.41984E+03 -7.44534E+02  4.53075E+02 -1.39320E+02  3.36586E+02 -7.23238E+02  1.08585E+03
 -1.13004E+03  1.33831E+03 -2.81970E+03  1.09822E+03 -3.23244E+03  1.00699E+02 -4.30235E+03 -1.96619E+03
 -1.90045E+03 -4.59806E+03  8.45061E+02 -5.42922E+03  2.77490E+03 -4.07402E+03  4.91237E+03 -1.62541E+03
  4.62265E+03  7.87458E+02  2.40801E+03  3.31201E+03 -6.71499E+02  3.03479E+03 -1.58129E+03  2.72944E+03
 -2.08567E+03  1.07393E+03 -1.29481E+03 -4.93386E+02 -5.24433E+02  1.23192E+02 -6.56049E+02  1.18006E+02
 -9.41394E+02 -1.35680E+02 -1.23206E+03 -8.24295E+01  9.23487E+01 -1.08257E+03 -3.29161E+02 -1.49614E+03
  1.86068E+03 -1.01635E+03  1.78884E+03  5.64652E+01  2.55074E+03  2.12106E+03 -8.62999E+01  3.51554E+03
 -1.55374E+03  3.93556E+03 -3.30126E+03  2.10599E+03 -3.86993E+03 -4.72211E+02 -2.72914E+03 -2.66675E+03
 -1.76726E+03 -3.09158E+03  2.74481E+02 -2.71099E+03  1.60558E+03 -1.64930E+03  1.97841E+03  2.79062E+02
  9.45122E+02  6.31100E+02  9.72694E+01  8.13146E+02 -6.96483E+02  1.39678E+01 -2.09025E+02 -4.52359E+02
  1.12583E+03 -3.47806E+01  1.04026E+03  6.44126E+02  5.09324E+02  1.02270E+03  5.69966E+02  1.11918E+03
 -1.50161E+03  1.48335E+03 -1.80209E+03 -1.56079E+02 -1.86443E+03 -1.41556E+03 -6.14247E+01 -2.64638E+03
  1.39101E+03 -2.04118E+03  1.74406E+03 -4.15832E+02  2.30035E+03  5.19834E+01  1.19922E+03  1.88614E+03
  5.83680E+02  1.68088E+03 -5.95312E+02  1.84232E+03 -1.24774E+03  1.10236E+03 -9.06179E+02  2.46073E+02
 -2.83966E+02 -3.25566E+01 -9.23066E+02  4.60250E+02 -9.39776E+02  3.98570E+02 -1.83110E+03 -4.25115E+02
 -1.44574E+03 -6.20713E+02 -3.19574E+02 -2.01399E+03  1.09116E+03 -2.58340E+03  1.69767E+03 -7.35589E+02
  1.90355E+03 -7.45109E+01  4.56120E+02  1.11634E+03 -1.50716E+02  2.29816E+03 -1.32707E+03  1.48191E+03
