 $NMID ID='MM_0lb_SNR800_13hz_g55_93.RAW', FMTDAT='(8E13.5)'
 TRAMP=1., VOLUME=1. $END
  3.10033E+05  2.73732E+02  3.37961E+05  2.50763E+05  8.45051E+04  3.38559E+05 -1.32507E+05  2.51451E+05
 -1.90921E+05  8.34544E+04 -1.12185E+05 -3.23664E+04  6.66130E+02 -5.06654E+04  5.34628E+04 -6.87697E+01
  3.54260E+04  5.25431E+04 -1.68107E+04  7.55815E+04 -6.06946E+04  6.39820E+04 -8.44349E+04  3.25930E+04
 -8.16742E+04 -1.15683E+04 -5.76426E+04 -5.15064E+04 -1.48750E+04 -7.00054E+04  2.77471E+04 -4.61685E+04
  4.04447E+04  4.11336E+03  1.63816E+04  4.77155E+04 -3.48400E+04  4.75834E+04 -6.68543E+04  4.67050E+01
 -5.42108E+04 -5.73669E+04 -7.18571E+03 -7.76026E+04  3.43429E+04 -5.57716E+04  4.84860E+04 -1.77810E+04
  4.42559E+04  1.13002E+04  3.22745E+04  2.57428E+04  1.56508E+04  3.00011E+04 -5.34138E+03  2.75326E+04
 -2.24371E+04  1.20905E+04 -1.86990E+04 -5.27083E+03  6.55231E+03 -7.58311E+03  2.28713E+04  1.29360E+04
  7.19830E+03  3.58538E+04 -3.34708E+04  3.65505E+04 -6.41816E+04  2.15384E+03 -5.78894E+04 -4.34104E+04
 -1.25812E+04 -6.41629E+04  4.05297E+04 -4.61375E+04  5.94437E+04 -2.41190E+03  3.50552E+04  3.31788E+04
 -5.94343E+03  3.72562E+04 -3.05871E+04  1.70363E+04 -3.15044E+04 -4.16112E+03 -1.77959E+04 -1.16438E+04
 -8.83034E+03 -1.41441E+04 -1.07825E+03 -1.85476E+04  7.68811E+03 -2.33545E+04  1.57206E+04 -1.29294E+04
  1.10446E+04  5.57324E+03 -9.24364E+03  1.30789E+04 -2.18705E+04 -5.24099E+03 -8.31157E+03 -3.47775E+04
  2.34016E+04 -4.45823E+04  4.98131E+04 -1.99467E+04  4.64767E+04  1.99315E+04  1.61934E+04  4.52223E+04
 -1.62417E+04  3.46929E+04 -2.60299E+04  2.11065E+03 -1.03611E+04 -2.82076E+04  2.12813E+04 -3.52138E+04
  4.22276E+04 -9.71431E+03  3.73755E+04  2.39567E+04  1.95237E+04  4.82202E+04 -8.23820E+03  5.22296E+04
 -3.29674E+04  3.53867E+04 -4.40875E+04  1.00497E+04 -4.42998E+04 -1.70292E+04 -2.47666E+04 -3.92807E+04
  7.99909E+03 -3.94491E+04  3.25308E+04 -1.55262E+04  3.04092E+04  1.10443E+04  4.46373E+03  1.95178E+04
 -1.36506E+04  8.72915E+03 -1.09273E+04 -7.78436E+03  5.97459E+03 -1.10572E+04  1.80911E+04  5.96211E+03
  1.36436E+04  2.20497E+04 -5.83084E+03  2.56321E+04 -2.26519E+04  1.24122E+04 -2.94992E+04 -4.38390E+03
 -2.19737E+04 -1.78894E+04 -9.18308E+03 -2.19950E+04  4.07738E+03 -2.17004E+04  1.72253E+04 -1.98076E+04
  2.82539E+04 -1.31916E+04  3.47119E+04  3.53763E+03  2.52116E+04  2.13515E+04  4.23844E+03  3.80601E+04
 -1.85350E+04  3.14680E+04 -2.86320E+04  1.10762E+04 -2.12083E+04 -1.04128E+04 -4.70989E+03 -1.33916E+04
  1.42370E+03 -2.53196E+03 -5.66105E+03  7.45145E+03 -1.76307E+04  5.00211E+03 -1.75008E+04 -7.87267E+03
 -1.11184E+04 -2.05055E+04  5.10597E+03 -2.46603E+04  1.68582E+04 -1.74874E+04  1.97924E+04 -1.58146E+03
  1.22970E+04  1.37754E+04 -1.19896E+03  2.04416E+04 -1.40941E+04  1.16312E+04 -2.04537E+04 -4.57693E+03
 -1.48184E+04 -1.84198E+04 -1.66816E+03 -2.44623E+04  1.11070E+04 -2.04716E+04  2.01200E+04 -1.01747E+04
  1.88966E+04  3.30634E+01  1.40421E+04  4.51366E+03  7.33725E+03  1.14941E+03  1.07198E+04 -1.85831E+03
  1.88791E+04  2.96673E+03  2.10382E+04  1.61668E+04  1.40477E+04  3.28452E+04 -2.89639E+03  3.72709E+04
 -2.14568E+04  3.02168E+04 -3.51220E+04  1.55377E+04 -3.69856E+04 -2.84282E+03 -3.06181E+04 -2.15596E+04
 -1.25671E+04 -3.03592E+04  1.02967E+04 -2.72898E+04  2.34463E+04 -1.35794E+04  2.07546E+04  6.21789E+03
  7.15481E+03  1.57926E+04 -9.73967E+03  1.35886E+04 -1.71243E+04  2.56137E+03 -1.33527E+04 -1.07216E+04
 -2.24178E+02 -1.67304E+04  8.91797E+03 -1.21596E+04  1.08132E+04 -1.35700E+03  2.29106E+03  6.97161E+03
 -7.47910E+03  3.05094E+03 -6.96710E+03 -5.86075E+03 -7.58376E+02 -1.49574E+04  1.03104E+04 -1.59082E+04
  1.84551E+04 -8.39874E+03  2.05455E+04  3.14641E+03  1.77413E+04  1.48190E+04  8.29270E+03  2.29510E+04
 -4.08329E+03  2.48717E+04 -1.59731E+04  1.53979E+04 -1.79108E+04  3.46175E+03 -1.26032E+04 -4.27530E+03
 -5.37653E+03 -5.52716E+03 -9.96925E+02  8.30554E+02 -2.55109E+03  2.76672E+03 -6.00163E+03  4.72797E+03
 -1.13743E+04 -7.96773E+02 -1.22350E+04 -9.94851E+03 -4.90936E+03 -1.62345E+04  5.28626E+03 -1.29082E+04
  1.03317E+04 -5.24950E+03  7.62036E+03  3.31151E+03 -2.31196E+02  4.88610E+03 -5.89564E+03 -1.65905E+02
 -5.74440E+03 -7.93322E+03 -9.93979E+02 -1.17985E+04  7.09519E+03 -1.25864E+04  1.57521E+04 -6.65316E+03
  1.87931E+04  1.70956E+03  1.34380E+04  1.06944E+04  2.51184E+03  1.47177E+04 -7.94668E+03  1.24496E+04
 -9.91490E+03  3.66583E+03 -5.21149E+03 -2.40029E+03  1.63881E+03 -3.02219E+03  6.69837E+03 -9.02408E+02
  5.87813E+03  5.57489E+03  7.57111E+02  1.00413E+04 -7.38116E+03  9.30662E+03 -1.20052E+04  2.50831E+03
 -8.09696E+03 -6.14091E+03  6.77087E+01 -1.04799E+04  6.59572E+03 -5.17849E+03  6.52595E+03  2.37089E+03
  1.51628E+03  7.07693E+03 -6.02148E+03  8.54819E+03 -1.02294E+04  4.00226E+03 -9.58740E+03 -3.29122E+03
 -5.63566E+03 -1.16930E+04  2.64756E+03 -1.32672E+04  1.08929E+04 -7.92489E+03  1.21937E+04  2.28723E+03
  7.59678E+03  9.66319E+03 -7.25636E+02  1.20994E+04 -8.59459E+03  6.66962E+03 -9.46011E+03 -6.16248E+02
 -8.48573E+03 -7.88906E+03 -1.65331E+03 -8.93340E+03  4.38271E+03 -7.50696E+03  5.44348E+03 -3.26454E+03
  3.96541E+03  1.10867E+03 -5.76511E+02  1.91499E+03  6.43882E+01 -2.01992E+03  1.76351E+03 -4.77101E+03
  8.23929E+03 -2.91082E+03  1.09412E+04  1.40996E+03  1.08732E+04  7.36415E+03  7.61812E+03  1.47155E+04
 -3.36312E+03  1.67121E+04 -1.41852E+04  1.24714E+04 -1.86844E+04  2.24140E+03 -1.47718E+04 -6.30640E+03
 -7.39482E+03 -1.21358E+04 -6.59875E+02 -1.00403E+04  4.02329E+03 -5.32136E+03  3.68069E+03 -3.53983E+03
  2.71291E+03 -2.45685E+03  2.87214E+03 -3.14054E+03  4.36956E+03 -2.48265E+03  6.01652E+03 -6.09455E+02
  7.71028E+03  1.90526E+03  3.61774E+03  6.43524E+03 -1.91756E+03  7.44026E+03 -8.36689E+03  5.50560E+03
 -1.00613E+04 -1.11545E+03 -5.51984E+03 -7.09114E+03 -2.48893E+02 -1.05670E+04  6.14676E+03 -1.06089E+04
  1.09457E+04 -6.20054E+03  1.29489E+04  1.34537E+03  8.87095E+03  8.85900E+03  1.90150E+03  1.21006E+04
 -4.66707E+03  9.81877E+03 -6.83817E+03  3.45661E+03 -4.60075E+03 -1.48217E+03 -1.47708E+03 -1.57311E+03
 -9.49232E+02  1.72328E+02 -1.28221E+03  2.59881E+03 -4.01756E+03  1.69942E+03 -7.06573E+03 -5.99685E+02
 -4.33077E+03 -7.17053E+03  1.19853E+02 -9.76598E+03  5.70864E+03 -9.02526E+03  9.15994E+03 -2.55877E+03
  9.24950E+03  4.57324E+03  4.26182E+03  8.33009E+03 -1.97308E+03  9.57722E+03 -6.21235E+03  5.82749E+03
 -8.93368E+03  5.90917E+02 -7.10742E+03 -5.75613E+03 -6.53862E+02 -7.93889E+03  4.01527E+03 -5.86964E+03
  5.99846E+03 -2.15206E+03  3.86411E+03  1.41149E+03  1.28071E+03  2.98691E+03  1.15087E+03  1.24505E+03
  2.14238E+03  9.70923E+02  2.41093E+03  1.28236E+03  2.57219E+03  3.62446E+03  2.36973E+03  4.85019E+03
 -1.90027E+03  7.00600E+03 -6.15919E+03  7.94243E+03 -9.22958E+03  2.29929E+03 -9.62365E+03 -3.26527E+03
 -4.23871E+03 -8.77968E+03  1.28981E+03 -1.03501E+04  5.54533E+03 -6.40945E+03  7.36955E+03 -1.79513E+03
  5.82074E+03  3.83314E+03  1.28852E+03  4.99510E+03 -2.13625E+03  3.09959E+03 -3.79095E+03 -4.85668E+02
 -1.77516E+03 -3.93343E+03  2.45823E+03 -3.69396E+03  3.73628E+03 -1.85300E+03  3.38213E+03  4.40405E+02
  1.97810E+03  1.23786E+03  1.06204E+03  8.70151E+02 -5.98224E+02  1.37080E+03  1.49258E+03 -5.11810E+02
  1.07660E+03 -3.81978E+02  3.45976E+03  1.52161E+03  1.53152E+03  5.25351E+03 -6.05064E+02  6.25698E+03
 -4.11251E+03  3.83955E+03 -5.19733E+03  8.36025E+02 -5.02691E+03 -1.78212E+03 -1.58918E+03 -3.08239E+03
  5.36523E+02 -3.81491E+03  2.27680E+03 -1.55370E+03  1.72781E+03  2.18449E+03 -1.09098E+03  2.72923E+03
 -3.45787E+03  1.74979E+03 -3.69751E+03 -2.18083E+03 -2.42781E+03 -4.93716E+03  6.47023E+02 -4.57501E+03
  2.23591E+03 -2.69701E+03  2.91576E+03 -1.78023E+01  2.79083E+03  8.34411E+02  5.25001E+02  2.56230E+03
 -1.64863E+03  6.34991E+02 -2.00241E+03 -1.59654E+03  1.01391E+03 -3.20313E+03  4.05684E+03 -2.95893E+03
  4.91225E+03  6.34377E+02  5.57337E+03  3.50811E+03  2.15302E+03  4.88469E+03 -1.53018E+03  5.23818E+03
 -4.25348E+03  2.21624E+03 -4.55651E+03 -6.37107E+02 -2.59466E+03 -3.23923E+03  9.51615E+02 -2.88266E+03
  3.66004E+03 -1.74918E+03  2.63512E+03  1.44140E+03  7.85424E+02  3.02876E+03 -4.30061E+02  2.90196E+03
 -1.09685E+03  2.10206E+03 -1.46164E+03  1.25917E+02 -3.80267E+02  6.20127E+02 -1.23857E+03  1.02654E+03
 -1.37471E+03  2.10814E+03 -3.92463E+03  1.79023E+03 -5.11795E+03 -9.11688E+01 -6.06247E+03 -3.03680E+03
 -3.14545E+03 -6.83408E+03  1.54355E+03 -8.31481E+03  4.59082E+03 -6.24271E+03  7.61997E+03 -2.41847E+03
  7.04593E+03  1.20584E+03  4.25992E+03  4.89163E+03 -3.87058E+00  4.94979E+03 -2.37551E+03  3.99508E+03
 -2.82272E+03  1.64443E+03 -1.75748E+03 -3.73056E+02 -7.91144E+02 -4.53315E+02 -7.30597E+02  1.56925E+02
 -1.20030E+03  2.36648E+01 -1.46304E+03 -3.86560E+02 -7.42090E+01 -1.28040E+03 -2.92473E+02 -2.16899E+03
  2.72525E+03 -1.76537E+03  2.55871E+03 -4.24285E+01  3.70653E+03  2.92890E+03  2.73314E+02  4.63553E+03
 -2.49326E+03  6.07551E+03 -5.15130E+03  3.41247E+03 -5.93576E+03 -4.99153E+02 -4.59476E+03 -3.81867E+03
 -2.36848E+03 -4.97807E+03  1.44374E+03 -4.62759E+03  2.93507E+03 -2.46438E+03  2.91354E+03 -1.69041E+00
  1.90549E+03  1.34806E+03 -7.49829E+01  1.19152E+03 -9.20292E+02 -1.35712E+02  1.79553E+02 -7.49799E+02
  1.28183E+03 -3.99781E+02  1.67946E+03  8.05510E+02  1.21431E+03  1.79286E+03  3.96196E+02  1.89799E+03
 -1.80844E+03  1.98249E+03 -3.10087E+03  2.10425E+02 -2.83904E+03 -2.12001E+03 -6.30714E+02 -3.91259E+03
  2.39570E+03 -3.36797E+03  3.18433E+03 -8.49323E+02  3.64723E+03  4.03523E+02  1.87500E+03  3.09820E+03
  6.62001E+02  3.00106E+03 -1.09277E+03  2.51371E+03 -2.03328E+03  1.62252E+03 -2.07513E+03  4.53558E+02
 -7.35594E+02 -1.90754E+02 -7.30466E+02  4.52756E+02 -1.56431E+03  6.62857E+02 -2.37232E+03 -6.30304E+02
 -2.51414E+03 -1.42344E+03 -7.31537E+02 -3.08227E+03  1.94379E+03 -3.60089E+03  2.52506E+03 -1.49711E+03
  2.91171E+03  4.62943E+02  1.03695E+03  2.04610E+03 -9.06740E+01  3.11384E+03 -2.10779E+03  1.73455E+03
