 $NMID ID='MM_0lb_SNR800_19hz_g45_38.RAW', FMTDAT='(8E13.5)'
 TRAMP=1., VOLUME=1. $END
  3.09917E+05  4.76367E+02  3.37426E+05  2.50816E+05  8.43062E+04  3.37356E+05 -1.32488E+05  2.50227E+05
 -1.89708E+05  8.21945E+04 -1.11102E+05 -3.26607E+04  1.54781E+03 -5.04465E+04  5.41528E+04  4.39562E+02
  3.50895E+04  5.27389E+04 -1.69633E+04  7.45069E+04 -6.02698E+04  6.23848E+04 -8.28994E+04  3.15562E+04
 -7.95593E+04 -1.11472E+04 -5.61871E+04 -4.99696E+04 -1.48712E+04 -6.81789E+04  2.64147E+04 -4.48598E+04
  3.86082E+04  3.83098E+03  1.52939E+04  4.68507E+04 -3.39682E+04  4.61480E+04 -6.50698E+04 -7.93552E+02
 -5.15158E+04 -5.58320E+04 -6.28862E+03 -7.50562E+04  3.28659E+04 -5.29650E+04  4.60571E+04 -1.63148E+04
  4.13288E+04  1.10910E+04  3.06129E+04  2.43414E+04  1.58439E+04  2.81211E+04 -4.71910E+03  2.66179E+04
 -2.15718E+04  1.26714E+04 -1.90053E+04 -4.52430E+03  3.94244E+03 -7.41924E+03  2.11775E+04  1.09269E+04
  7.53782E+03  3.28494E+04 -3.03180E+04  3.38276E+04 -6.09301E+04  2.32159E+03 -5.50545E+04 -4.09862E+04
 -1.24272E+04 -6.03280E+04  3.79427E+04 -4.32969E+04  5.52594E+04 -2.25177E+03  3.19178E+04  3.02401E+04
 -6.83022E+03  3.28220E+04 -2.81604E+04  1.29396E+04 -2.73436E+04 -5.51241E+03 -1.40783E+04 -9.94334E+03
 -7.26814E+03 -1.13432E+04 -1.12576E+03 -1.64067E+04  6.59979E+03 -2.26388E+04  1.51180E+04 -1.39439E+04
  1.23183E+04  4.17560E+03 -6.03527E+03  1.31834E+04 -1.91504E+04 -2.26945E+03 -7.96199E+03 -2.94568E+04
  2.05194E+04 -3.98417E+04  4.39095E+04 -1.84156E+04  4.16927E+04  1.79848E+04  1.40314E+04  4.12697E+04
 -1.50112E+04  3.06346E+04 -2.29911E+04  7.67517E+02 -8.08674E+03 -2.61290E+04  2.02965E+04 -3.08265E+04
  3.73635E+04 -7.25965E+03  3.10738E+04  2.22630E+04  1.51180E+04  4.21162E+04 -7.45677E+03  4.42717E+04
 -2.79182E+04  2.92406E+04 -3.67436E+04  8.08522E+03 -3.77417E+04 -1.49295E+04 -2.09882E+04 -3.37268E+04
  6.82023E+03 -3.35221E+04  2.88227E+04 -1.25195E+04  2.65046E+04  1.04950E+04  2.81561E+03  1.75788E+04
 -1.30757E+04  7.12609E+03 -9.41553E+03 -7.78255E+03  6.11800E+03 -1.00521E+04  1.73529E+04  6.55339E+03
  1.20454E+04  2.14508E+04 -6.75046E+03  2.31140E+04 -2.13513E+04  8.62216E+03 -2.48103E+04 -6.49321E+03
 -1.63229E+04 -1.62723E+04 -5.37815E+03 -1.63484E+04  3.79140E+03 -1.39875E+04  1.21135E+04 -1.40149E+04
  2.06724E+04 -1.17268E+04  2.75853E+04  4.55354E+02  2.07986E+04  1.59871E+04  4.11942E+03  3.18423E+04
 -1.59470E+04  2.70328E+04 -2.55378E+04  9.30504E+03 -1.94274E+04 -1.05738E+04 -3.90816E+03 -1.38152E+04
  2.33406E+03 -4.40889E+03 -2.57997E+03  5.32918E+03 -1.24191E+04  5.39644E+03 -1.32398E+04 -4.71614E+03
 -8.56863E+03 -1.49422E+04  4.29700E+03 -1.88239E+04  1.24253E+04 -1.39130E+04  1.39108E+04 -1.45182E+03
  8.55038E+03  1.03772E+04 -6.55395E+02  1.51989E+04 -9.92615E+03  8.45716E+03 -1.49569E+04 -3.39995E+03
 -1.11405E+04 -1.39112E+04 -1.42243E+03 -1.83940E+04  8.40725E+03 -1.47492E+04  1.55426E+04 -7.30752E+03
  1.41205E+04  8.40089E+02  9.83253E+03  3.67459E+03  4.73958E+03  3.13540E+02  7.16327E+03 -1.02579E+03
  1.33126E+04  2.87721E+03  1.39071E+04  1.23899E+04  8.73300E+03  2.39899E+04 -3.19152E+03  2.54571E+04
 -1.51232E+04  1.94854E+04 -2.34601E+04  9.00034E+03 -2.37340E+04 -1.51485E+03 -2.05543E+04 -1.34241E+04
 -9.73173E+03 -1.93618E+04  6.36367E+03 -1.82933E+04  1.60976E+04 -1.08284E+04  1.50834E+04  3.31997E+03
  6.71782E+03  1.10230E+04 -6.65784E+03  1.00200E+04 -1.31464E+04  2.77048E+03 -1.01258E+04 -7.88382E+03
  1.85269E+02 -1.21893E+04  5.73866E+03 -9.31079E+03  7.42121E+03 -1.34105E+03  1.34470E+03  4.59432E+03
 -5.16364E+03  1.16304E+03 -3.42176E+03 -4.40958E+03  5.09917E+02 -9.75450E+03  7.75083E+03 -9.41440E+03
  1.16039E+04 -4.19732E+03  1.10987E+04  2.87425E+03  9.69484E+03  9.30927E+03  4.48903E+03  1.33336E+04
 -1.23746E+03  1.50912E+04 -9.09060E+03  9.68029E+03 -1.06041E+04  2.75196E+03 -7.98599E+03 -1.75834E+03
 -4.35934E+03 -3.15997E+03 -7.30280E+02  1.46316E+03 -1.78099E+03  2.11083E+03 -3.39173E+03  3.38717E+03
 -7.70626E+03 -4.27965E+02 -8.49369E+03 -6.84023E+03 -3.13889E+03 -1.11233E+04  3.45443E+03 -8.10131E+03
  6.97848E+03 -3.60964E+03  5.02730E+03  2.19771E+03  6.78142E+02  3.01831E+03 -3.20079E+03 -7.32521E+01
 -3.12427E+03 -5.17754E+03 -9.18765E+02 -6.85408E+03  3.60001E+03 -7.48721E+03  9.35436E+03 -3.82332E+03
  1.09817E+04  5.27964E+02  8.47338E+03  5.79211E+03  1.80498E+03  7.96011E+03 -4.97925E+03  8.14804E+03
 -6.68681E+03  2.45502E+03 -3.39630E+03 -1.05821E+03  1.39064E+03 -1.82047E+03  4.90542E+03 -6.95541E+02
  3.92860E+03  3.25088E+03  1.04769E+03  5.78768E+03 -4.17363E+03  6.10052E+03 -7.54420E+03  1.65127E+03
 -4.53892E+03 -3.43002E+03  3.06541E+02 -6.71820E+03  3.37907E+03 -3.17385E+03  3.16337E+03  9.59763E+02
  2.72325E+02  3.14865E+03 -3.55729E+03  4.39652E+03 -4.52356E+03  2.19555E+03 -4.03671E+03 -7.77211E+02
 -2.55473E+03 -5.40253E+03  1.17704E+03 -6.60132E+03  5.67317E+03 -4.50555E+03  6.15467E+03  9.26372E+02
  4.16708E+03  4.88893E+03  2.14099E+02  6.63152E+03 -4.55638E+03  3.84584E+03 -4.92229E+03 -2.02697E+02
 -5.11430E+03 -5.16634E+03 -1.46609E+03 -4.80201E+03  2.38260E+03 -4.63752E+03  2.89325E+03 -3.02625E+03
  2.56655E+03  1.64396E+02  8.40736E+00  1.26061E+03  2.76856E+02 -8.87308E+01 -2.69136E+01 -1.27749E+03
  3.35059E+03 -4.42297E+02  4.96161E+03  7.52872E+02  5.09506E+03  2.69179E+03  5.29226E+03  6.68391E+03
 -1.03409E+03  7.81885E+03 -7.10408E+03  6.06618E+03 -9.19813E+03  9.35700E+02 -7.05194E+03 -2.38424E+03
 -3.94937E+03 -6.06730E+03 -2.35386E+02 -4.62840E+03  1.93205E+03 -1.98313E+03  1.30903E+03 -1.93406E+03
  1.10049E+03 -1.50472E+03  2.09162E+03 -2.40931E+03  3.41402E+03 -1.59606E+03  3.36547E+03  4.89551E+02
  4.19489E+03  9.91461E+02  7.80238E+02  2.93733E+03 -1.57404E+03  2.49310E+03 -4.26460E+03  2.45249E+03
 -4.64908E+03 -7.76780E+02 -1.68813E+03 -2.85539E+03  3.89465E+02 -4.48407E+03  3.13768E+03 -5.23879E+03
  4.74072E+03 -2.97223E+03  6.14106E+03  4.45856E+02  4.36706E+03  3.53476E+03  9.94647E+02  5.50619E+03
 -2.04110E+03  5.48008E+03 -2.87223E+03  1.79296E+03 -1.77248E+03 -1.18363E+03 -3.28251E+02 -5.65878E+02
 -4.03878E+02  8.94745E+02 -8.48645E+02  1.78695E+03 -2.15304E+03  1.36056E+03 -3.90704E+03 -4.58147E+02
 -9.87566E+02 -3.82587E+03  8.21228E+02 -4.15064E+03  2.47874E+03 -4.16215E+03  3.42730E+03 -9.48924E+02
  3.59814E+03  2.23542E+03  1.78986E+03  2.70393E+03 -5.93752E+02  3.88359E+03 -2.63103E+03  2.57793E+03
 -3.48190E+03  5.70356E+02 -3.33998E+03 -2.04642E+03 -3.15474E+02 -3.08023E+03  1.55921E+03 -2.36040E+03
  2.55292E+03 -1.31809E+03  1.66002E+03  4.12421E+02  6.14029E+02  1.60593E+03  7.84604E+02  3.51188E+02
  1.85180E+03  5.66314E+02  1.04481E+03  1.11339E+03  8.66991E+02  2.18211E+03  1.20267E+03  1.56981E+03
 -1.34109E+03  2.82199E+03 -2.32836E+03  3.83605E+03 -2.62028E+03  1.09086E+03 -3.58034E+03 -3.09874E+02
 -1.49091E+03 -3.39837E+03  5.64023E+02 -4.69893E+03  1.78684E+03 -2.14212E+03  2.56950E+03 -8.95624E+02
  2.21167E+03  1.75520E+03  8.72620E+01  2.18056E+03 -6.06277E+02  8.60340E+02 -1.05841E+03 -9.09228E+00
 -5.63312E+02 -1.26206E+03  1.22211E+03 -1.57194E+03  1.18908E+03 -7.66628E+02  1.11171E+03  5.74478E+02
  6.58620E+02 -2.34774E+01  6.81183E+02 -1.34357E+02 -3.90647E+02  8.17915E+02  1.55176E+03 -1.12686E+02
  8.81163E+01 -1.27811E+02  1.78918E+03  9.67561E+02  2.86247E+02  2.09485E+03 -6.11426E+02  2.72452E+03
 -1.70924E+03  9.86002E+02 -1.63847E+03  5.11860E+02 -2.11337E+03 -7.61591E+02  4.34406E+01 -6.71453E+02
  4.40315E+02 -8.90887E+02  6.64409E+02 -7.67553E+02  6.40712E+02  1.47662E+03 -5.57183E+02  1.14670E+03
 -1.36856E+03  4.51252E+02 -1.03668E+03 -1.34322E+03 -5.62895E+02 -2.26882E+03  4.02582E+02 -1.35471E+03
  3.70902E+02 -7.88573E+02  5.49363E+02  1.55712E+02  1.22093E+03 -7.62198E+01  3.97007E+02  1.19138E+03
  4.95095E+00 -1.86457E+02 -8.54344E+02 -2.85773E+02  3.78856E+02 -8.84492E+02  1.72947E+03 -7.09309E+02
  9.69157E+02  5.08925E+02  2.62929E+03  6.82738E+02  8.06154E+02  1.27859E+03 -1.57990E+02  1.56406E+03
 -1.04037E+03  3.26306E+02 -1.29983E+03  1.19489E+01 -7.29149E+02 -1.25181E+03 -1.29298E-01 -4.77028E+02
  1.34106E+03 -4.78743E+02  6.98059E+02  4.00345E+02 -9.72855E+01  1.37870E+03  4.07554E+02  1.15563E+03
 -2.90326E+02  1.20144E+03 -4.47647E+02  3.44112E+02  1.26564E+01  3.89655E+02 -4.69363E+02  4.27561E+02
 -4.69517E+02  9.58972E+02 -1.73213E+03  4.19198E+02 -1.71481E+03  4.43903E+02 -2.20209E+03 -8.84556E+02
 -7.93286E+02 -2.06113E+03  3.87514E+02 -2.54224E+03  8.08490E+02 -2.18541E+03  2.65862E+03 -9.55670E+02
  2.04994E+03 -2.86590E+02  1.09728E+03  1.34385E+03 -6.94074E+02  1.40231E+03 -4.03638E+02  1.10084E+03
 -5.16148E+02  5.65419E+02 -3.69432E+02 -3.68681E+02 -7.27620E+02  4.11622E+02 -5.79910E+02  2.79161E+01
 -1.07427E+03 -3.34758E+02 -1.01306E+03 -1.22287E+02  4.33166E+02 -4.73629E+02 -4.38184E+02 -6.76974E+02
  1.16236E+03 -3.93252E+02  1.43433E+02  1.52036E+02  9.46113E+02  1.06475E+03 -2.72239E+02  1.38153E+03
 -9.56060E+02  2.17477E+03 -1.49013E+03  1.23678E+03 -1.44676E+03 -2.95306E+02 -7.76986E+02 -1.13771E+03
 -8.72714E+02 -9.26526E+02  5.15838E+02 -8.11429E+02  3.33887E+02 -3.99095E+02  4.72383E+02 -1.10345E+00
  6.70893E+02  3.56957E+02 -1.91155E+02  1.82695E+02 -4.09478E+02  1.24871E+02 -1.12001E+02 -2.07261E+02
  3.72394E+02 -6.46794E+00  5.53526E+01  4.64858E+02 -8.23983E+01  6.92941E+02  2.79958E+02  2.11957E+02
 -3.21793E+02  6.28057E+02 -6.91534E+02  4.61892E+02 -6.19869E+02 -3.85134E+02  1.76752E+02 -1.09546E+03
  2.74142E+02 -5.54194E+02  2.82956E+02  1.51384E+02  8.81553E+02 -8.88177E+02  4.12437E+02  9.59809E+02
  2.86636E+02  3.19349E+02 -1.20835E+02  5.06147E+02 -2.42311E+02  4.93638E+02 -4.44766E+02 -1.40008E+02
 -4.42698E+01 -1.92012E+02 -5.54249E+02 -5.64459E+01 -3.61125E+02  4.38777E+01 -6.80987E+02 -2.14435E+02
 -9.92789E+02  5.19581E+02 -3.41374E+02 -9.28540E+02  5.86807E+02 -1.53119E+03  6.57392E+02 -3.18527E+02
  4.55075E+02 -7.58279E+01 -2.56561E+02  3.39215E+00 -3.04584E+02  6.75140E+02 -3.76322E+02  5.73903E+02
