 $NMID ID='MM_0lb_SNR800_19hz_g40_3.RAW', FMTDAT='(8E13.5)'
 TRAMP=1., VOLUME=1. $END
  3.09902E+05  3.38514E+02  3.37066E+05  2.50446E+05  8.44813E+04  3.37175E+05 -1.32285E+05  2.50141E+05
 -1.89493E+05  8.21178E+04 -1.10571E+05 -3.28075E+04  1.75597E+03 -5.01206E+04  5.38645E+04  4.21061E+02
  3.49893E+04  5.29389E+04 -1.70603E+04  7.46321E+04 -6.01329E+04  6.25217E+04 -8.24190E+04  3.13285E+04
 -7.92801E+04 -1.11898E+04 -5.58289E+04 -4.96998E+04 -1.46893E+04 -6.75005E+04  2.64986E+04 -4.44448E+04
  3.88059E+04  3.93121E+03  1.55041E+04  4.67810E+04 -3.37140E+04  4.57238E+04 -6.48837E+04 -6.37169E+02
 -5.14889E+04 -5.55901E+04 -6.18553E+03 -7.44688E+04  3.29197E+04 -5.25209E+04  4.55545E+04 -1.61221E+04
  4.12892E+04  1.10821E+04  3.04170E+04  2.41264E+04  1.58356E+04  2.77102E+04 -4.47861E+03  2.65782E+04
 -2.14902E+04  1.28896E+04 -1.93676E+04 -3.81248E+03  3.82969E+03 -7.53043E+03  2.09625E+04  1.05985E+04
  7.34378E+03  3.26127E+04 -2.97443E+04  3.35803E+04 -6.02628E+04  1.94421E+03 -5.45310E+04 -4.05086E+04
 -1.23686E+04 -5.96813E+04  3.74405E+04 -4.26418E+04  5.46551E+04 -1.87803E+03  3.12509E+04  2.97868E+04
 -6.76068E+03  3.22328E+04 -2.77252E+04  1.25382E+04 -2.67305E+04 -5.61870E+03 -1.34332E+04 -9.67986E+03
 -7.08283E+03 -1.07997E+04 -1.36531E+03 -1.59116E+04  6.35685E+03 -2.25132E+04  1.46705E+04 -1.40650E+04
  1.24640E+04  4.04809E+03 -5.84919E+03  1.31708E+04 -1.87819E+04 -1.86991E+03 -8.12004E+03 -2.94857E+04
  2.03446E+04 -3.96402E+04  4.35778E+04 -1.81505E+04  4.06626E+04  1.80985E+04  1.39055E+04  4.08305E+04
 -1.50564E+04  3.01102E+04 -2.28192E+04  7.06239E+02 -7.76941E+03 -2.59381E+04  2.05894E+04 -3.06158E+04
  3.72894E+04 -6.95557E+03  3.01972E+04  2.23786E+04  1.48134E+04  4.13264E+04 -7.69649E+03  4.37558E+04
 -2.76496E+04  2.85551E+04 -3.60146E+04  7.81633E+03 -3.72855E+04 -1.46254E+04 -2.04415E+04 -3.34959E+04
  6.81865E+03 -3.30095E+04  2.83749E+04 -1.20924E+04  2.61564E+04  1.06479E+04  2.54943E+03  1.73957E+04
 -1.29242E+04  6.95453E+03 -9.48484E+03 -7.82458E+03  6.01417E+03 -9.75358E+03  1.71027E+04  6.45083E+03
  1.22420E+04  2.14438E+04 -7.05130E+03  2.28612E+04 -2.12355E+04  8.65355E+03 -2.43968E+04 -6.68713E+03
 -1.54447E+04 -1.63148E+04 -4.94070E+03 -1.58183E+04  3.84927E+03 -1.34032E+04  1.17093E+04 -1.32524E+04
  1.99385E+04 -1.12271E+04  2.71284E+04  5.84599E+02  2.03405E+04  1.54896E+04  4.22156E+03  3.13698E+04
 -1.57965E+04  2.66614E+04 -2.53580E+04  8.90725E+03 -1.95165E+04 -1.06913E+04 -3.61943E+03 -1.43411E+04
  2.94270E+03 -4.38402E+03 -1.95846E+03  4.98628E+03 -1.22204E+04  5.44560E+03 -1.25830E+04 -4.59386E+03
 -8.36680E+03 -1.44906E+04  4.25261E+03 -1.81619E+04  1.19290E+04 -1.35811E+04  1.37394E+04 -1.57030E+03
  8.19781E+03  1.00488E+04 -6.16877E+02  1.45958E+04 -9.58264E+03  8.26668E+03 -1.45902E+04 -3.31464E+03
 -1.06893E+04 -1.34735E+04 -1.57772E+03 -1.83626E+04  8.09253E+03 -1.46694E+04  1.53449E+04 -6.71500E+03
  1.36750E+04  7.83322E+02  9.78478E+03  3.67390E+03  4.77626E+03  6.56355E+02  7.25424E+03 -1.20161E+03
  1.25561E+04  2.75116E+03  1.34976E+04  1.20242E+04  8.31664E+03  2.34252E+04 -3.08282E+03  2.50092E+04
 -1.48301E+04  1.88653E+04 -2.26507E+04  8.77252E+03 -2.29398E+04 -1.54328E+03 -2.00609E+04 -1.30119E+04
 -9.54302E+03 -1.87550E+04  6.30038E+03 -1.78157E+04  1.55691E+04 -1.03019E+04  1.45333E+04  3.34332E+03
  6.32651E+03  1.05240E+04 -6.83667E+03  9.78186E+03 -1.27680E+04  2.72652E+03 -9.74643E+03 -7.54513E+03
 -7.96452E+01 -1.18035E+04  5.84401E+03 -9.14633E+03  7.37125E+03 -1.42262E+03  1.14501E+03  4.68799E+03
 -5.27697E+03  9.43618E+02 -2.75146E+03 -4.38085E+03  9.99915E+02 -9.57699E+03  7.51674E+03 -9.14556E+03
  1.12113E+04 -4.16031E+03  1.10007E+04  2.53934E+03  9.38316E+03  8.81999E+03  4.67427E+03  1.27754E+04
 -1.23507E+03  1.43938E+04 -8.52634E+03  9.30616E+03 -1.02156E+04  2.89657E+03 -7.88981E+03 -1.43231E+03
 -4.42276E+03 -3.01003E+03 -6.88419E+02  1.61257E+03 -1.99584E+03  1.90522E+03 -3.20172E+03  3.44828E+03
 -7.63446E+03 -3.73130E+02 -8.15378E+03 -6.95099E+03 -3.33289E+03 -1.08887E+04  3.37095E+03 -7.99710E+03
  6.69217E+03 -3.58967E+03  5.10055E+03  1.97782E+03  7.93203E+02  2.61909E+03 -2.87926E+03  4.62789E+00
 -3.00654E+03 -4.64731E+03 -6.22627E+02 -6.33750E+03  3.56543E+03 -7.48080E+03  9.32738E+03 -3.64581E+03
  1.10374E+04  2.44082E+02  8.11103E+03  5.56665E+03  1.57307E+03  7.87600E+03 -4.72053E+03  7.82289E+03
 -6.45161E+03  2.82251E+03 -3.23788E+03 -1.21020E+03  1.02315E+03 -1.63392E+03  4.51770E+03 -8.46300E+02
  3.89588E+03  2.99503E+03  9.73760E+02  6.05817E+03 -4.01991E+03  5.90447E+03 -7.34442E+03  2.20068E+03
 -4.37431E+03 -3.35196E+03  6.23538E+02 -5.95693E+03  3.38019E+03 -3.19218E+03  3.20828E+03  9.00722E+02
  3.62690E+02  3.01790E+03 -3.80388E+03  4.25582E+03 -4.37177E+03  1.98982E+03 -3.96003E+03 -7.36180E+02
 -2.72732E+03 -5.27226E+03  9.72052E+02 -6.30274E+03  5.41545E+03 -4.29690E+03  5.76812E+03  1.04146E+03
  4.31298E+03  4.92763E+03  1.77615E+02  6.96742E+03 -4.90067E+03  3.97666E+03 -4.70294E+03 -3.27372E+02
 -5.34680E+03 -4.56902E+03 -1.40591E+03 -4.62059E+03  2.45258E+03 -4.68199E+03  2.52903E+03 -2.81382E+03
  2.87848E+03  1.96649E+01  1.23530E+02  1.38907E+03  6.10029E+02 -1.53239E+02  7.71624E+01 -1.38706E+03
  3.39596E+03 -5.90517E+02  4.82864E+03  4.44098E+02  5.15130E+03  2.89533E+03  4.93842E+03  6.64837E+03
 -9.27474E+02  7.81444E+03 -7.00356E+03  5.98666E+03 -9.20100E+03  1.15460E+03 -6.94657E+03 -2.26119E+03
 -3.98541E+03 -5.92332E+03 -5.35970E+02 -4.46552E+03  1.79894E+03 -1.86561E+03  1.45461E+03 -1.97850E+03
  1.05576E+03 -1.17142E+03  2.07406E+03 -2.29941E+03  3.36113E+03 -9.77969E+02  3.54920E+03  6.26783E+02
  4.43260E+03  1.15600E+03  9.77830E+02  3.17945E+03 -1.50663E+03  2.51831E+03 -4.07256E+03  2.08949E+03
 -4.46915E+03 -1.22960E+03 -1.50868E+03 -3.06034E+03  4.18220E+02 -4.28524E+03  3.15441E+03 -4.61102E+03
  4.59793E+03 -3.11217E+03  5.92446E+03  1.68337E+02  4.52467E+03  3.56302E+03  9.18382E+02  5.46311E+03
 -1.86343E+03  5.45394E+03 -3.08598E+03  1.79799E+03 -1.91944E+03 -8.06338E+02 -3.61317E+02 -4.68833E+02
 -7.70512E+02  5.41490E+02 -9.37102E+02  1.91086E+03 -2.20639E+03  1.02810E+03 -3.92195E+03 -3.16157E+02
 -1.01092E+03 -3.67310E+03  1.12041E+03 -3.92985E+03  2.52281E+03 -4.01266E+03  2.80346E+03 -9.42235E+02
  3.51687E+03  2.22378E+03  1.98880E+03  2.80211E+03 -5.75899E+02  3.79552E+03 -2.30251E+03  2.54637E+03
 -3.50378E+03  4.42917E+02 -3.15157E+03 -2.34814E+03 -3.12032E+01 -2.88822E+03  1.41959E+03 -2.26611E+03
  2.19572E+03 -1.39610E+03  1.70662E+03  3.91922E+02  3.29424E+02  1.79735E+03  8.48095E+02  4.47772E+02
  1.74756E+03  4.81430E+02  1.01092E+03  7.56293E+02  1.32303E+03  2.09747E+03  1.51455E+03  1.55460E+03
 -1.09307E+03  2.49282E+03 -2.26689E+03  3.59217E+03 -2.53131E+03  1.03960E+03 -3.79799E+03 -2.60127E+02
 -1.50157E+03 -3.40005E+03  5.42091E+02 -4.33889E+03  1.89853E+03 -1.95453E+03  2.49302E+03 -7.16517E+02
  2.15299E+03  1.71774E+03  1.52756E+02  2.26392E+03 -9.48291E+02  1.09927E+03 -9.05784E+02 -1.05653E+02
 -4.98934E+02 -1.40917E+03  1.08968E+03 -1.18644E+03  1.03391E+03 -9.42329E+02  1.40307E+03  5.46981E+02
  6.70327E+02  2.81548E+02  8.34997E+02 -3.36162E+02 -3.71053E+02  5.85240E+02  1.91000E+03 -2.31627E+02
  4.42622E+02 -8.80619E+01  1.56358E+03  4.57910E+02  2.42526E+02  2.22045E+03 -2.16417E+02  2.55936E+03
 -1.28143E+03  9.97770E+02 -1.87023E+03  2.48383E+02 -1.86006E+03 -7.09317E+02 -1.67704E+02 -6.71483E+02
  2.92015E+02 -1.02121E+03  8.36753E+02 -6.60693E+02  6.51284E+02  1.30979E+03 -7.25923E+02  8.26815E+02
 -1.31532E+03  7.29098E+02 -1.20176E+03 -1.10126E+03 -5.63911E+02 -2.00051E+03 -9.25675E+01 -1.40379E+03
  2.91572E+02 -4.37115E+02  7.16998E+02  3.30656E+02  1.15481E+03 -6.76395E+01  2.33389E+02  1.13923E+03
 -3.00102E+02  2.32770E+02 -9.30241E+02  6.63374E+00  4.14248E+02 -6.10786E+02  1.70227E+03 -8.91814E+02
  1.03063E+03  3.11684E+00  2.62459E+03  4.47805E+02  1.13218E+03  1.27951E+03 -4.70974E+02  1.46083E+03
 -1.45265E+03  2.82485E+02 -1.19095E+03 -9.78337E+01 -7.40276E+02 -1.41925E+03  2.64203E+02 -5.40374E+02
  1.22393E+03 -5.99435E+02  5.26308E+02  5.55842E+02  1.11056E+02  9.65236E+02  4.63055E+02  1.04200E+03
 -3.26059E+02  1.04142E+03 -4.76358E+02  2.30602E+02 -5.06764E+01  3.63440E+02 -7.49269E+02  4.04885E+02
 -4.22789E+02  1.02132E+03 -1.69174E+03  4.57668E+02 -1.24382E+03  1.36804E+02 -2.26124E+03 -9.77185E+02
 -9.89770E+02 -2.44375E+03  6.06988E+02 -2.64917E+03  8.80418E+02 -2.29920E+03  2.48921E+03 -1.17761E+03
  2.41416E+03 -1.60896E+02  1.15694E+03  1.57799E+03 -8.35974E+02  1.57548E+03 -3.87639E+02  1.06497E+03
 -9.30885E+02  4.88835E+02 -4.25645E+02 -2.19018E+02 -3.68793E+02  4.63522E+02 -8.00263E+02  1.42263E+01
 -1.17229E+03 -2.00803E+02 -8.47932E+02  1.24555E+02  2.94664E+02 -9.39133E+02 -4.50669E+02 -8.01707E+02
  1.10805E+03 -5.46677E+02  4.28998E+02  7.50718E+01  1.06663E+03  8.89212E+02 -4.65807E+02  1.27117E+03
 -8.50387E+02  2.11991E+03 -1.20278E+03  9.64057E+02 -1.71119E+03 -1.10786E+02 -1.26777E+03 -8.59201E+02
 -7.60868E+02 -1.28714E+03  9.53202E+01 -1.06439E+03  6.79975E+02 -3.68812E+02  7.81877E+02  2.34096E+02
  5.54186E+02  5.73380E+02 -6.14829E+01  4.56153E+02 -5.27599E+02  1.56999E+00 -2.88204E+02  3.47286E+01
  2.49976E+02  5.25781E+02  4.00595E+02  5.53108E+02 -2.67735E+02  3.79915E+02  1.91461E+02 -3.92433E+00
 -8.33172E+02  5.97264E+02 -3.49487E+02 -9.06464E+00 -3.36413E+02 -2.06637E+02  2.82166E+02 -9.85701E+02
  4.67533E+02 -8.59268E+02  4.30917E+02 -1.09124E+02  7.78993E+02 -5.30578E+02  3.43533E+02  5.05099E+02
  5.26807E+02  5.64367E+02 -9.03996E+01  3.48965E+02 -3.23762E+02  7.06363E+02 -2.94653E+02  1.65988E+02
 -9.63984E+01 -7.27040E+01 -3.55547E+02  6.84794E+01 -3.18115E+02  8.18828E+01 -4.16538E+02 -1.74779E+02
 -7.58213E+02  2.21727E+02 -1.38464E+02 -9.32515E+02  7.00073E+02 -1.64601E+03  6.87974E+02 -4.10044E+02
  8.79972E+02 -2.24358E+02 -1.09868E+02  2.92749E+02 -6.86948E+01  7.27018E+02 -3.25764E+02  7.94522E+02
