 $NMID ID='MM_0lb_SNR800_16hz_g55_83.RAW', FMTDAT='(8E13.5)'
 TRAMP=1., VOLUME=1. $END
  3.10052E+05  3.55547E+02  3.37770E+05  2.50773E+05  8.46837E+04  3.38017E+05 -1.32513E+05  2.50899E+05
 -1.90228E+05  8.31062E+04 -1.12052E+05 -3.23627E+04  8.83903E+02 -5.04060E+04  5.39163E+04 -1.28646E+02
  3.53835E+04  5.28715E+04 -1.66178E+04  7.53931E+04 -6.08056E+04  6.34287E+04 -8.40233E+04  3.19126E+04
 -8.07326E+04 -1.17098E+04 -5.68615E+04 -5.11701E+04 -1.49441E+04 -6.92931E+04  2.72453E+04 -4.57339E+04
  4.00517E+04  3.86796E+03  1.60679E+04  4.78034E+04 -3.45138E+04  4.70250E+04 -6.68455E+04 -1.91729E+02
 -5.30773E+04 -5.67930E+04 -6.84071E+03 -7.67237E+04  3.39660E+04 -5.45499E+04  4.79465E+04 -1.73574E+04
  4.29821E+04  1.12522E+04  3.15813E+04  2.53092E+04  1.57056E+04  2.91162E+04 -5.00146E+03  2.72373E+04
 -2.22037E+04  1.24255E+04 -1.83792E+04 -4.92103E+03  5.42050E+03 -7.32605E+03  2.19503E+04  1.21797E+04
  7.36738E+03  3.49678E+04 -3.17152E+04  3.52283E+04 -6.28837E+04  2.01567E+03 -5.63880E+04 -4.27844E+04
 -1.25210E+04 -6.25684E+04  3.93597E+04 -4.47799E+04  5.77740E+04 -2.26887E+03  3.36104E+04  3.19748E+04
 -6.27204E+03  3.56946E+04 -2.99382E+04  1.56604E+04 -2.99074E+04 -4.56834E+03 -1.65085E+04 -1.07308E+04
 -8.13055E+03 -1.28334E+04 -7.48224E+02 -1.76965E+04  7.38783E+03 -2.27801E+04  1.53029E+04 -1.32606E+04
  1.15453E+04  4.98596E+03 -7.91078E+03  1.29382E+04 -2.11653E+04 -4.09950E+03 -8.01927E+03 -3.29729E+04
  2.23266E+04 -4.28538E+04  4.74617E+04 -1.90804E+04  4.47153E+04  1.90957E+04  1.56627E+04  4.37415E+04
 -1.58394E+04  3.30881E+04 -2.48634E+04  1.47318E+03 -9.39203E+03 -2.75009E+04  2.07986E+04 -3.32960E+04
  4.06811E+04 -8.52778E+03  3.48712E+04  2.34374E+04  1.77160E+04  4.55728E+04 -7.73536E+03  4.93359E+04
 -3.11379E+04  3.29407E+04 -4.07350E+04  9.48730E+03 -4.15771E+04 -1.62957E+04 -2.31295E+04 -3.70479E+04
  6.91174E+03 -3.70540E+04  3.09742E+04 -1.42660E+04  2.88151E+04  1.10083E+04  4.08239E+03  1.88858E+04
 -1.34404E+04  8.00684E+03 -1.02212E+04 -7.63601E+03  5.54560E+03 -1.06773E+04  1.76909E+04  6.12541E+03
  1.35194E+04  2.21336E+04 -6.09979E+03  2.48942E+04 -2.21248E+04  1.09348E+04 -2.70480E+04 -4.83710E+03
 -1.96095E+04 -1.70187E+04 -7.78883E+03 -1.97763E+04  4.27837E+03 -1.85845E+04  1.47230E+04 -1.72905E+04
  2.48994E+04 -1.25262E+04  3.13904E+04  2.43976E+03  2.32419E+04  1.92308E+04  4.22987E+03  3.55145E+04
 -1.73374E+04  2.96332E+04 -2.74389E+04  1.02611E+04 -2.07639E+04 -1.02788E+04 -4.27294E+03 -1.34029E+04
  2.12100E+03 -2.87990E+03 -4.32323E+03  6.47270E+03 -1.55018E+04  5.27246E+03 -1.55091E+04 -6.48557E+03
 -9.73059E+03 -1.81305E+04  5.19500E+03 -2.23038E+04  1.47221E+04 -1.58867E+04  1.70695E+04 -1.42135E+03
  1.07081E+04  1.23409E+04 -9.06917E+02  1.81141E+04 -1.24792E+04  1.05289E+04 -1.81996E+04 -4.00858E+03
 -1.34807E+04 -1.60714E+04 -1.86006E+03 -2.21028E+04  1.00924E+04 -1.78491E+04  1.84969E+04 -8.66365E+03
  1.68596E+04  1.19258E+02  1.23022E+04  4.25672E+03  6.72562E+03  9.32358E+02  9.24492E+03 -1.40333E+03
  1.65900E+04  2.36720E+03  1.80566E+04  1.45692E+04  1.17080E+04  2.87527E+04 -2.93674E+03  3.19109E+04
 -1.84611E+04  2.54155E+04 -2.99403E+04  1.25587E+04 -3.10699E+04 -2.00033E+03 -2.58593E+04 -1.79423E+04
 -1.12003E+04 -2.55074E+04  8.77981E+03 -2.30346E+04  1.99768E+04 -1.20786E+04  1.80508E+04  4.99050E+03
  6.98116E+03  1.33723E+04 -8.20225E+03  1.19957E+04 -1.52999E+04  2.45242E+03 -1.20611E+04 -9.38953E+03
 -1.76943E+02 -1.45154E+04  7.38955E+03 -1.05794E+04  9.38465E+03 -1.78996E+03  1.88730E+03  6.20166E+03
 -6.60549E+03  2.09487E+03 -5.48394E+03 -5.35171E+03 -2.81067E+02 -1.26222E+04  8.89969E+03 -1.28093E+04
  1.50397E+04 -6.43841E+03  1.57593E+04  3.00834E+03  1.39233E+04  1.19662E+04  6.23244E+03  1.84284E+04
 -2.90551E+03  2.01483E+04 -1.24831E+04  1.25512E+04 -1.46186E+04  3.21604E+03 -1.03075E+04 -3.06159E+03
 -5.05683E+03 -4.33671E+03 -6.00266E+02  1.09698E+03 -1.93657E+03  2.27165E+03 -4.62965E+03  4.26926E+03
 -9.86531E+03 -7.72165E+02 -1.03351E+04 -8.52963E+03 -4.04932E+03 -1.36518E+04  4.21041E+03 -1.03514E+04
  8.88754E+03 -4.30983E+03  6.09190E+03  2.46837E+03  2.76008E+02  3.96688E+03 -4.69177E+03 -4.31416E+02
 -4.37362E+03 -6.56169E+03 -9.08329E+02 -9.35344E+03  4.87801E+03 -1.00549E+04  1.27116E+04 -5.62107E+03
  1.45948E+04  7.03689E+02  1.08906E+04  8.39189E+03  2.04629E+03  1.11395E+04 -6.26368E+03  9.94504E+03
 -8.50101E+03  2.97555E+03 -4.44907E+03 -1.85841E+03  1.54340E+03 -2.51847E+03  5.58663E+03 -9.09133E+02
  4.93494E+03  4.20324E+03  1.29126E+03  7.98306E+03 -5.41489E+03  7.82994E+03 -9.56760E+03  2.13747E+03
 -6.51735E+03 -4.74135E+03  1.58477E+02 -8.20444E+03  5.12035E+03 -3.98762E+03  4.91237E+03  1.72374E+03
  7.46935E+02  4.99416E+03 -5.14808E+03  6.25624E+03 -6.67796E+03  3.18770E+03 -6.91035E+03 -2.06491E+03
 -4.16764E+03 -8.34221E+03  1.71436E+03 -9.92817E+03  8.23862E+03 -6.15554E+03  8.87369E+03  1.48940E+03
  5.97496E+03  7.21723E+03 -2.08691E+02  9.24834E+03 -6.58975E+03  5.32083E+03 -7.50611E+03 -5.47381E+02
 -6.77585E+03 -6.56956E+03 -1.52746E+03 -6.73339E+03  3.38570E+03 -5.78311E+03  4.06734E+03 -3.03546E+03
  3.17234E+03  5.62661E+02 -3.40453E+02  1.22613E+03  4.64056E+02 -9.49438E+02  9.26212E+02 -3.29771E+03
  5.55716E+03 -1.59286E+03  7.51090E+03  9.55168E+02  7.64791E+03  5.12818E+03  6.46273E+03  1.02262E+04
 -1.98394E+03  1.19909E+04 -1.03119E+04  9.01544E+03 -1.33430E+04  1.83312E+03 -1.06340E+04 -4.22247E+03
 -5.54477E+03 -9.09098E+03 -4.30516E+02 -7.39390E+03  2.67396E+03 -3.70631E+03  2.47275E+03 -2.93658E+03
  1.68305E+03 -1.86704E+03  2.36032E+03 -2.62273E+03  3.85635E+03 -1.52652E+03  4.45381E+03 -1.08580E+02
  5.77460E+03  1.58522E+03  2.31419E+03  4.66811E+03 -1.43276E+03  4.52286E+03 -5.81516E+03  3.97917E+03
 -6.94159E+03 -1.03879E+03 -3.48976E+03 -4.78214E+03 -4.11388E+01 -6.93460E+03  4.40925E+03 -7.35465E+03
  7.61628E+03 -4.59296E+03  9.63808E+03  6.63818E+02  6.60596E+03  6.44268E+03  1.17912E+03  8.36729E+03
 -3.25454E+03  7.31917E+03 -4.64029E+03  2.47665E+03 -3.08197E+03 -1.12072E+03 -1.14764E+03 -8.43291E+02
 -8.56015E+02  2.46693E+02 -1.26796E+03  2.29722E+03 -3.27488E+03  1.52979E+03 -5.57182E+03 -6.22051E+02
 -2.75682E+03 -5.21233E+03  6.37468E+02 -6.84932E+03  4.13634E+03 -6.17347E+03  5.59014E+03 -1.53018E+03
  5.98725E+03  2.98985E+03  2.65782E+03  5.25320E+03 -1.12879E+03  6.61276E+03 -4.07462E+03  4.03356E+03
 -5.55863E+03  5.58414E+02 -4.58626E+03 -3.52721E+03 -3.72975E+02 -5.16144E+03  2.59451E+03 -3.65827E+03
  3.85011E+03 -1.70368E+03  2.82912E+03  9.05765E+02  8.44012E+02  2.35521E+03  1.03054E+03  8.95096E+02
  1.84196E+03  8.59428E+02  1.60128E+03  1.10210E+03  1.77959E+03  2.94837E+03  1.91426E+03  2.81764E+03
 -1.36285E+03  4.32711E+03 -3.95092E+03  5.31134E+03 -5.12201E+03  1.68731E+03 -6.10213E+03 -1.60593E+03
 -2.69038E+03 -5.50053E+03  8.84860E+02 -6.87783E+03  3.27263E+03 -3.84734E+03  4.58730E+03 -1.26259E+03
  3.82715E+03  2.49738E+03  7.06804E+02  3.39259E+03 -9.81711E+02  1.79858E+03 -1.91188E+03 -3.15207E+02
 -8.93398E+02 -2.33808E+03  1.72963E+03 -2.23851E+03  2.33516E+03 -1.19257E+03  1.99894E+03  3.87332E+02
  1.21052E+03  7.78504E+02  9.64855E+02  5.15888E+02 -3.69866E+02  1.05665E+03  1.46625E+03 -2.91307E+02
  5.34665E+02 -4.52813E+02  2.60187E+03  6.67917E+02  8.80519E+02  3.50135E+03 -6.74444E+02  4.52008E+03
 -2.47490E+03  1.96551E+03 -3.23463E+03  6.58317E+02 -2.87619E+03 -1.10993E+03 -7.78463E+02 -1.86852E+03
  7.21199E+02 -2.16464E+03  1.52975E+03 -1.13369E+03  1.07640E+03  1.36237E+03 -8.36700E+02  1.88457E+03
 -2.21155E+03  1.21824E+03 -2.19791E+03 -1.71276E+03 -1.18997E+03 -3.23033E+03 -2.77131E+01 -2.64264E+03
  8.36658E+02 -1.34224E+03  1.71491E+03 -2.60830E+01  2.01236E+03  1.00485E+01  3.18497E+02  1.62468E+03
 -7.46627E+02 -4.91621E+00 -1.42674E+03 -1.04636E+03  8.37570E+02 -1.51926E+03  2.55052E+03 -1.29753E+03
  2.37810E+03  3.91775E+02  4.04359E+03  1.62044E+03  1.52414E+03  2.90201E+03 -6.29191E+02  2.89542E+03
 -2.42427E+03  8.29049E+02 -2.40764E+03 -5.12250E+02 -1.00565E+03 -2.13637E+03  3.00218E+02 -1.33301E+03
  2.25389E+03 -1.16979E+03  1.25609E+03  9.38355E+02  5.57360E+02  1.91875E+03 -2.79271E+00  1.42382E+03
 -6.44119E+02  1.44963E+03 -9.33833E+02  1.73606E+02 -4.91463E+02  6.24985E+02 -8.06691E+02  8.47030E+02
 -7.35338E+02  1.41893E+03 -2.10822E+03  7.46416E+02 -2.90123E+03  9.92303E+01 -3.66889E+03 -1.74931E+03
 -1.77185E+03 -3.91985E+03  8.07795E+02 -4.35797E+03  2.39469E+03 -3.92819E+03  4.16292E+03 -1.35256E+03
  3.81674E+03  4.19222E+02  2.23791E+03  2.83499E+03 -3.62409E+02  2.57250E+03 -1.12359E+03  2.11499E+03
 -1.52940E+03  9.64891E+02 -8.56701E+02 -1.56766E+02 -8.85070E+02  1.01381E+02 -8.33807E+02  1.05429E+02
 -1.08901E+03 -3.58658E+02 -1.01705E+03 -1.08965E+02  2.87340E+02 -1.06317E+03 -3.46046E+02 -1.26108E+03
  1.87814E+03 -7.14310E+02  9.38593E+02  4.63210E+02  1.94074E+03  1.66744E+03  2.98380E+01  2.36853E+03
 -1.57952E+03  3.81271E+03 -2.81321E+03  1.89827E+03 -3.10834E+03 -2.77481E+02 -2.03275E+03 -1.94644E+03
 -1.55033E+03 -2.17037E+03  5.63137E+02 -2.30467E+03  1.33452E+03 -1.17524E+03  1.57453E+03  2.69014E+02
  1.04155E+03  7.67965E+02  1.73047E+02  7.80437E+02 -3.93986E+02  1.12610E+02 -1.72003E+02 -6.01941E+02
  6.33244E+02  3.29709E+02  7.28390E+02  5.93483E+02  4.90737E+02  7.16021E+02  2.16529E+02  7.46197E+02
 -1.01638E+03  8.45490E+02 -1.27076E+03  2.44241E+02 -1.09610E+03 -9.15544E+02 -3.01122E+02 -2.01143E+03
  9.32071E+02 -1.69591E+03  1.41440E+03  3.98175E+01  1.67833E+03 -2.64351E+02  1.19564E+03  1.39218E+03
  3.95091E+02  1.25453E+03 -5.09757E+02  1.06249E+03 -1.01588E+03  9.07496E+02 -8.26570E+02  3.08662E+02
 -2.43652E+02  1.00180E+02 -4.51384E+02  7.78874E+01 -1.02644E+03 -9.17339E+00 -1.21191E+03 -3.81975E+02
 -1.60942E+03 -4.42299E+01 -4.49731E+02 -1.25497E+03  8.49759E+02 -1.66866E+03  1.41112E+03 -4.76906E+02
  1.68896E+03 -1.53018E+01  2.85081E+01  5.49431E+02 -2.01944E+01  1.46144E+03 -7.88803E+02  1.10222E+03
