 $NMID ID='MM_0lb_SNR800_8hz_g45_52.RAW', FMTDAT='(8E13.5)'
 TRAMP=1., VOLUME=1. $END
  3.09803E+05  6.89087E+02  3.37850E+05  2.50400E+05  8.50284E+04  3.38616E+05 -1.32822E+05  2.52066E+05
 -1.90565E+05  8.41315E+04 -1.12579E+05 -3.27271E+04  5.05289E+02 -5.06174E+04  5.33580E+04 -8.32057E+02
  3.56663E+04  5.27530E+04 -1.65185E+04  7.59556E+04 -6.14545E+04  6.44848E+04 -8.55761E+04  3.24858E+04
 -8.26817E+04 -1.20329E+04 -5.80943E+04 -5.23694E+04 -1.53228E+04 -7.18552E+04  2.76254E+04 -4.66142E+04
  4.11958E+04  3.54868E+03  1.68417E+04  4.83765E+04 -3.48116E+04  4.82301E+04 -6.82199E+04  3.03262E+02
 -5.51587E+04 -5.77909E+04 -7.38205E+03 -7.89612E+04  3.48944E+04 -5.70307E+04  4.96651E+04 -1.83592E+04
  4.53208E+04  1.18382E+04  3.35228E+04  2.67030E+04  1.62985E+04  3.07528E+04 -6.23475E+03  2.76481E+04
 -2.25615E+04  1.20487E+04 -1.81831E+04 -5.89674E+03  7.15461E+03 -7.63697E+03  2.38297E+04  1.38793E+04
  7.16765E+03  3.77118E+04 -3.42577E+04  3.69144E+04 -6.60758E+04  2.11995E+03 -5.92457E+04 -4.48216E+04
 -1.29585E+04 -6.55086E+04  4.21562E+04 -4.75778E+04  6.13426E+04 -2.57538E+03  3.69564E+04  3.47794E+04
 -5.37209E+03  3.96974E+04 -3.17689E+04  1.92930E+04 -3.37892E+04 -3.19216E+03 -1.98691E+04 -1.19188E+04
 -1.01554E+04 -1.52332E+04 -5.16546E+02 -2.05407E+04  8.57928E+03 -2.37039E+04  1.61052E+04 -1.26440E+04
  1.09083E+04  6.35149E+03 -1.08173E+04  1.26398E+04 -2.35623E+04 -6.98019E+03 -8.86850E+03 -3.79431E+04
  2.52504E+04 -4.72110E+04  5.25421E+04 -2.11296E+04  4.93247E+04  2.11890E+04  1.75677E+04  4.73234E+04
 -1.69268E+04  3.58806E+04 -2.74073E+04  2.92756E+03 -1.19545E+04 -3.00893E+04  2.14799E+04 -3.71367E+04
  4.49957E+04 -1.07935E+04  4.11116E+04  2.51386E+04  2.16444E+04  5.14736E+04 -8.44858E+03  5.65627E+04
 -3.60320E+04  3.86070E+04 -4.78779E+04  1.12607E+04 -4.82083E+04 -1.87610E+04 -2.65004E+04 -4.25498E+04
  8.35850E+03 -4.22160E+04  3.47792E+04 -1.73317E+04  3.22484E+04  1.14769E+04  5.37947E+03  2.12079E+04
 -1.40633E+04  9.65388E+03 -1.10788E+04 -7.52662E+03  5.58094E+03 -1.12573E+04  1.89499E+04  5.04126E+03
  1.50553E+04  2.29074E+04 -4.82273E+03  2.72553E+04 -2.29301E+04  1.45440E+04 -3.19296E+04 -2.68027E+03
 -2.59312E+04 -1.86578E+04 -1.17619E+04 -2.57457E+04  3.86314E+03 -2.62795E+04  2.04653E+04 -2.30788E+04
  3.32686E+04 -1.41587E+04  3.88933E+04  5.43073E+03  2.73607E+04  2.49735E+04  4.64360E+03  4.14628E+04
 -2.01481E+04  3.42630E+04 -3.07296E+04  1.18052E+04 -2.23919E+04 -1.00445E+04 -5.01832E+03 -1.29149E+04
  1.75017E+02 -7.83931E+02 -8.10927E+03  8.53488E+03 -2.09939E+04  5.20817E+03 -2.09620E+04 -9.77882E+03
 -1.20220E+04 -2.41713E+04  6.33825E+03 -2.86319E+04  1.90376E+04 -1.99631E+04  2.31027E+04 -1.51934E+03
  1.48247E+04  1.62122E+04 -1.63475E+03  2.34454E+04 -1.68905E+04  1.37742E+04 -2.40661E+04 -4.62009E+03
 -1.74375E+04 -2.09452E+04 -2.33687E+03 -2.80503E+04  1.30292E+04 -2.36393E+04  2.34943E+04 -1.27144E+04
  2.28605E+04 -6.13098E+02  1.63171E+04  5.24886E+03  9.24855E+03  1.62086E+03  1.29555E+04 -1.76758E+03
  2.24048E+04  3.03370E+03  2.66673E+04  1.85888E+04  1.82441E+04  3.83946E+04 -2.11407E+03  4.56930E+04
 -2.61643E+04  3.81652E+04 -4.27866E+04  1.92957E+04 -4.66052E+04 -3.43384E+03 -3.76111E+04 -2.73562E+04
 -1.51408E+04 -3.87100E+04  1.36504E+04 -3.39697E+04  2.86352E+04 -1.56256E+04  2.48600E+04  8.03590E+03
  8.29323E+03  1.91824E+04 -1.22255E+04  1.60508E+04 -2.03671E+04  2.76540E+03 -1.54721E+04 -1.31221E+04
 -3.52874E+02 -2.00070E+04  1.10708E+04 -1.45314E+04  1.37212E+04 -1.35732E+03  3.43666E+03  8.63571E+03
 -9.01029E+03  4.67759E+03 -9.63699E+03 -7.29371E+03 -2.02244E+03 -1.85112E+04  1.25589E+04 -2.09747E+04
  2.36597E+04 -1.15932E+04  2.74130E+04  3.67413E+03  2.40804E+04  1.94458E+04  1.08579E+04  3.02289E+04
 -5.46665E+03  3.27846E+04 -2.14855E+04  2.01010E+04 -2.37519E+04  4.29069E+03 -1.62876E+04 -6.12237E+03
 -7.02580E+03 -7.40846E+03 -8.76115E+02  6.70001E+01 -3.23510E+03  3.67583E+03 -7.72608E+03  5.58523E+03
 -1.45875E+04 -9.82424E+02 -1.48952E+04 -1.26892E+04 -6.31746E+03 -1.98986E+04  6.42661E+03 -1.60914E+04
  1.34003E+04 -6.50788E+03  9.31604E+03  4.53342E+03 -4.06793E+01  6.44953E+03 -8.45507E+03 -2.23668E+02
 -7.59206E+03 -1.04747E+04 -1.01054E+03 -1.62674E+04  9.93850E+03 -1.70409E+04  2.10029E+04 -9.19205E+03
  2.44518E+04  2.55262E+03  1.79071E+04  1.50261E+04  3.14245E+03  1.96881E+04 -1.00811E+04  1.60232E+04
 -1.32206E+04  4.80772E+03 -6.63383E+03 -3.69610E+03  2.47442E+03 -4.30021E+03  8.77455E+03 -8.43110E+02
  7.75678E+03  7.19618E+03  6.48881E+02  1.33575E+04 -9.41063E+03  1.25262E+04 -1.62119E+04  2.65905E+03
 -1.13309E+04 -8.90854E+03  6.73832E+01 -1.42776E+04  9.26238E+03 -7.31581E+03  9.92155E+03  3.10315E+03
  2.38744E+03  1.12725E+04 -8.72854E+03  1.22884E+04 -1.45978E+04  4.98590E+03 -1.50721E+04 -5.87945E+03
 -9.05263E+03 -1.68184E+04  3.78454E+03 -1.92398E+04  1.63279E+04 -1.15146E+04  1.83631E+04  2.97560E+03
  1.03948E+04  1.41857E+04 -1.81107E+03  1.67198E+04 -1.26021E+04  8.84576E+03 -1.34130E+04 -1.07002E+03
 -1.09458E+04 -1.10599E+04 -1.76977E+03 -1.31568E+04  6.68148E+03 -1.02140E+04  8.02838E+03 -3.65214E+03
  5.39162E+03  2.12185E+03 -1.46160E+03  1.77913E+03 -8.49359E+02 -3.47704E+03  3.00162E+03 -8.52675E+03
  1.23644E+04 -5.55183E+03  1.74355E+04  1.77104E+03  1.68146E+04  1.17745E+04  1.09844E+04  2.24682E+04
 -5.17702E+03  2.60260E+04 -2.13367E+04  1.91197E+04 -2.73533E+04  4.06295E+03 -2.24697E+04 -9.67794E+03
 -1.14226E+04 -1.80761E+04 -5.26646E+02 -1.55871E+04  5.57095E+03 -9.09825E+03  5.76142E+03 -5.85867E+03
  4.01270E+03 -3.28081E+03  4.03846E+03 -3.71608E+03  6.25272E+03 -3.61988E+03  8.45399E+03 -1.50174E+03
  1.16603E+04  2.57308E+03  6.72341E+03  1.01567E+04 -2.51669E+03  1.24373E+04 -1.22928E+04  9.08912E+03
 -1.58145E+04 -9.36236E+02 -1.00814E+04 -1.11928E+04 -1.54544E+03 -1.77469E+04  9.24180E+03 -1.67975E+04
  1.79915E+04 -9.26882E+03  2.08318E+04  2.94544E+03  1.44562E+04  1.49745E+04  2.17304E+03  1.91730E+04
 -7.98566E+03  1.55022E+04 -1.08434E+04  4.87923E+03 -7.53202E+03 -1.49192E+03 -3.10690E+03 -2.52099E+03
 -1.82541E+03 -5.66292E+01 -2.50844E+03  3.21884E+03 -6.74970E+03  2.54195E+03 -1.12170E+04 -1.66712E+03
 -7.59585E+03 -1.07499E+04 -4.02340E+02 -1.60657E+04  9.97511E+03 -1.44872E+04  1.59392E+04 -4.53890E+03
  1.62110E+04  7.86514E+03  7.28933E+03  1.48939E+04 -3.33459E+03  1.64270E+04 -1.15410E+04  1.00942E+04
 -1.55454E+04  2.41446E+02 -1.21710E+04 -9.88053E+03 -1.38830E+03 -1.30556E+04  6.65517E+03 -1.01897E+04
  1.03703E+04 -2.87529E+03  6.98680E+03  2.81803E+03  2.66696E+03  4.94782E+03  1.61196E+03  1.82397E+03
  3.01426E+03  9.61543E+02  4.11297E+03  1.85146E+03  5.24685E+03  5.31534E+03  4.30316E+03  8.58479E+03
 -3.39039E+03  1.30500E+04 -1.15223E+04  1.30796E+04 -1.67671E+04  3.01141E+03 -1.69740E+04 -7.57500E+03
 -8.30315E+03 -1.68026E+04  2.78567E+03 -1.82702E+04  1.05457E+04 -1.16615E+04  1.37153E+04 -2.96484E+03
  1.08278E+04  6.05370E+03  2.34227E+03  9.73822E+03 -4.51704E+03  5.91047E+03 -6.68485E+03 -7.96021E+02
 -3.39906E+03 -7.40042E+03  4.07807E+03 -7.77992E+03  7.10377E+03 -3.29550E+03  6.60444E+03  1.56132E+03
  4.35650E+03  3.35887E+03  1.60223E+03  3.21376E+03 -1.12878E+03  1.97303E+03  1.77377E+03 -9.33037E+02
  3.07905E+03 -1.00573E+03  6.70563E+03  2.46464E+03  4.26187E+03  9.21170E+03 -1.44935E+03  1.17972E+04
 -8.22534E+03  7.97988E+03 -1.08363E+04  2.33654E+03 -9.29184E+03 -3.94807E+03 -4.01499E+03 -6.51302E+03
  7.59202E+02 -7.00688E+03  4.95802E+03 -3.01455E+03  3.36618E+03  3.45820E+03 -1.69658E+03  5.65104E+03
 -6.95439E+03  3.46999E+03 -7.70039E+03 -4.10751E+03 -4.81288E+03 -9.21785E+03  1.45672E+03 -9.74278E+03
  5.63085E+03 -5.49408E+03  7.00150E+03 -1.11180E+03  5.61025E+03  2.63303E+03  7.98838E+02  5.22866E+03
 -3.56566E+03  1.59225E+03 -4.44827E+03 -3.64366E+03  1.79338E+03 -7.44639E+03  8.14655E+03 -5.57454E+03
  1.09259E+04  2.59489E+02  1.07571E+04  7.66358E+03  3.66607E+03  1.14027E+04 -3.80455E+03  1.05643E+04
 -9.32777E+03  4.82945E+03 -9.22624E+03 -1.18552E+03 -4.86753E+03 -7.08525E+03  1.70584E+03 -6.95113E+03
  6.78609E+03 -3.08696E+03  6.28624E+03  2.96900E+03  1.57175E+03  6.26886E+03 -9.76545E+02  5.37614E+03
 -3.14990E+03  3.61793E+03 -2.83322E+03  1.25639E+03 -1.04774E+03  1.38352E+03 -1.71743E+03  2.25522E+03
 -2.85888E+03  4.22715E+03 -8.09637E+03  4.44530E+03 -1.15909E+04  4.17475E+02 -1.24100E+04 -7.66670E+03
 -6.64462E+03 -1.53761E+04  2.89423E+03 -1.73185E+04  1.11244E+04 -1.32763E+04  1.60102E+04 -4.95445E+03
  1.53354E+04  2.87736E+03  9.56577E+03  1.07585E+04  1.61518E+03  1.18323E+04 -4.55236E+03  9.49397E+03
 -6.39482E+03  2.76736E+03 -4.25951E+03 -1.52474E+03 -1.60674E+03 -1.22026E+03 -1.03484E+03 -1.41322E+02
 -1.84815E+03  4.10622E+02 -2.45377E+03 -6.05894E+02 -8.84355E+02 -3.16023E+03  2.30099E+02 -4.38169E+03
  4.88078E+03 -3.79567E+03  7.62035E+03 -4.04021E+02  8.69633E+03  6.80016E+03  2.29395E+03  1.20653E+04
 -5.96351E+03  1.38783E+04 -1.30884E+04  7.80299E+03 -1.50164E+04 -1.14278E+03 -1.12211E+04 -9.15841E+03
 -4.52163E+03 -1.26525E+04  3.25992E+03 -1.16515E+04  8.46555E+03 -6.05678E+03  8.06841E+03  2.33459E+01
  3.91726E+03  4.16854E+03 -1.33666E+02  3.22880E+03 -2.34359E+03  2.82117E+01 -1.09852E+02 -3.15511E+03
  3.41341E+03 -1.79478E+03  4.57598E+03  1.32445E+03  3.26905E+03  4.68221E+03  2.24501E+02  6.25554E+03
 -5.55376E+03  5.54615E+03 -8.37815E+03  3.51732E+02 -7.23766E+03 -6.38814E+03 -1.34471E+03 -1.04905E+04
  5.76494E+03 -8.70568E+03  9.49001E+03 -2.97181E+03  9.65892E+03  2.32950E+03  5.47433E+03  7.18090E+03
  7.98315E+02  8.30572E+03 -2.95682E+03  6.65071E+03 -5.69342E+03  3.64308E+03 -4.43104E+03  6.95391E+02
 -2.60249E+03 -5.46784E+02 -2.10122E+03  1.14004E+03 -4.40394E+03  1.01941E+03 -6.18286E+03 -1.36864E+03
 -5.88625E+03 -4.84945E+03 -2.18828E+03 -8.69928E+03  3.16592E+03 -8.74606E+03  7.57457E+03 -4.58493E+03
  8.62867E+03  1.03526E+03  4.44926E+03  6.31842E+03 -3.16547E+02  8.38466E+03 -6.36404E+03  5.35131E+03
