 $NMID ID='MM_0lb_SNR800_15hz_g45_69.RAW', FMTDAT='(8E13.5)'
 TRAMP=1., VOLUME=1. $END
  3.09965E+05  4.20802E+02  3.37454E+05  2.50407E+05  8.45974E+04  3.37662E+05 -1.32689E+05  2.51053E+05
 -1.90171E+05  8.30421E+04 -1.11555E+05 -3.27466E+04  8.84231E+02 -5.05658E+04  5.38433E+04  8.66934E+00
  3.56034E+04  5.25636E+04 -1.68004E+04  7.52932E+04 -6.08511E+04  6.29991E+04 -8.38936E+04  3.16698E+04
 -8.04889E+04 -1.13882E+04 -5.72600E+04 -5.09420E+04 -1.50569E+04 -6.90309E+04  2.70155E+04 -4.54127E+04
  3.98591E+04  3.83600E+03  1.58202E+04  4.77372E+04 -3.39221E+04  4.69857E+04 -6.61568E+04 -4.11855E+02
 -5.29941E+04 -5.62597E+04 -6.67355E+03 -7.62774E+04  3.36246E+04 -5.43990E+04  4.75995E+04 -1.67146E+04
  4.26706E+04  1.11415E+04  3.12494E+04  2.50492E+04  1.57849E+04  2.86901E+04 -5.06301E+03  2.72084E+04
 -2.19505E+04  1.26081E+04 -1.88750E+04 -4.84085E+03  5.04551E+03 -7.46822E+03  2.21350E+04  1.20356E+04
  7.34791E+03  3.46430E+04 -3.17572E+04  3.50746E+04 -6.25961E+04  2.16399E+03 -5.63823E+04 -4.24202E+04
 -1.24058E+04 -6.25272E+04  3.91442E+04 -4.47301E+04  5.74616E+04 -2.07897E+03  3.35503E+04  3.18612E+04
 -6.19649E+03  3.50610E+04 -2.94337E+04  1.50801E+04 -2.92432E+04 -4.90796E+03 -1.59751E+04 -1.07026E+04
 -8.00376E+03 -1.24816E+04 -7.83282E+02 -1.79007E+04  7.14865E+03 -2.29870E+04  1.52937E+04 -1.36143E+04
  1.15230E+04  4.84301E+03 -7.44680E+03  1.27344E+04 -2.05361E+04 -3.85959E+03 -8.20855E+03 -3.25242E+04
  2.22570E+04 -4.25472E+04  4.71579E+04 -1.91413E+04  4.42407E+04  1.89647E+04  1.50237E+04  4.38138E+04
 -1.60073E+04  3.26784E+04 -2.47575E+04  1.31142E+03 -9.36194E+03 -2.73958E+04  2.09154E+04 -3.31152E+04
  4.00508E+04 -8.87997E+03  3.37627E+04  2.38271E+04  1.69245E+04  4.53517E+04 -7.78040E+03  4.87324E+04
 -3.06876E+04  3.23100E+04 -4.04400E+04  9.13899E+03 -4.10135E+04 -1.57915E+04 -2.24649E+04 -3.67484E+04
  7.07318E+03 -3.69857E+04  3.06272E+04 -1.40045E+04  2.83285E+04  1.11572E+04  3.69602E+03  1.85459E+04
 -1.31459E+04  8.21266E+03 -1.01850E+04 -7.81933E+03  5.61661E+03 -1.05274E+04  1.77054E+04  6.44560E+03
  1.31284E+04  2.22184E+04 -5.95390E+03  2.45088E+04 -2.21251E+04  1.08035E+04 -2.70883E+04 -5.16061E+03
 -1.93934E+04 -1.73751E+04 -7.51482E+03 -1.92994E+04  3.91863E+03 -1.80111E+04  1.47376E+04 -1.71965E+04
  2.44739E+04 -1.22235E+04  3.08354E+04  2.27461E+03  2.29226E+04  1.89263E+04  3.83874E+03  3.47905E+04
 -1.70774E+04  2.95314E+04 -2.70778E+04  9.89395E+03 -2.04022E+04 -1.03036E+04 -4.09111E+03 -1.34129E+04
  1.84309E+03 -3.44469E+03 -4.54341E+03  6.26852E+03 -1.51607E+04  5.40213E+03 -1.52086E+04 -6.18146E+03
 -9.66089E+03 -1.79337E+04  5.11220E+03 -2.20115E+04  1.44671E+04 -1.55298E+04  1.72253E+04 -1.40980E+03
  1.06907E+04  1.25544E+04 -1.17663E+03  1.81023E+04 -1.21859E+04  1.01456E+04 -1.80546E+04 -3.82159E+03
 -1.33896E+04 -1.62950E+04 -1.78688E+03 -2.16386E+04  9.60896E+03 -1.76452E+04  1.84372E+04 -8.72837E+03
  1.66195E+04  1.79666E+02  1.19945E+04  4.20735E+03  6.18635E+03  6.27195E+02  9.07475E+03 -1.51905E+03
  1.65182E+04  2.83254E+03  1.76906E+04  1.40455E+04  1.16731E+04  2.87026E+04 -2.97013E+03  3.19897E+04
 -1.82781E+04  2.50740E+04 -2.94243E+04  1.26497E+04 -3.08712E+04 -2.35162E+03 -2.54882E+04 -1.77531E+04
 -1.16054E+04 -2.53333E+04  8.46575E+03 -2.31341E+04  1.97482E+04 -1.24459E+04  1.82473E+04  5.04875E+03
  7.03204E+03  1.34486E+04 -8.39748E+03  1.17200E+04 -1.52548E+04  2.48503E+03 -1.20137E+04 -9.24568E+03
 -1.85309E+00 -1.45321E+04  7.36309E+03 -1.09990E+04  9.58649E+03 -1.31048E+03  1.97735E+03  6.17074E+03
 -6.37141E+03  2.20500E+03 -5.15739E+03 -5.27190E+03 -9.46848E+01 -1.26475E+04  8.80785E+03 -1.29993E+04
  1.53444E+04 -6.33590E+03  1.63162E+04  2.84188E+03  1.37821E+04  1.21791E+04  6.61385E+03  1.85003E+04
 -2.90654E+03  2.01137E+04 -1.26077E+04  1.24526E+04 -1.44500E+04  3.37341E+03 -1.04022E+04 -2.94240E+03
 -5.52410E+03 -4.42917E+03 -7.37027E+02  9.66427E+02 -2.42985E+03  2.54909E+03 -4.79238E+03  4.12359E+03
 -9.58211E+03 -9.89749E+02 -1.03007E+04 -8.44306E+03 -4.13770E+03 -1.37556E+04  4.22181E+03 -1.05131E+04
  8.89649E+03 -4.47774E+03  6.25767E+03  2.73397E+03  3.72877E+02  3.65752E+03 -4.75328E+03  3.73473E+01
 -4.34791E+03 -6.50034E+03 -7.66079E+02 -9.32986E+03  5.29170E+03 -9.87263E+03  1.27437E+04 -5.22856E+03
  1.49681E+04  1.17993E+03  1.10370E+04  8.23045E+03  2.38269E+03  1.13350E+04 -6.54378E+03  1.02060E+04
 -8.68115E+03  3.45460E+03 -4.41644E+03 -1.86250E+03  1.65235E+03 -2.39085E+03  5.70016E+03 -1.31102E+03
  4.75645E+03  4.31577E+03  1.33827E+03  8.29976E+03 -5.65082E+03  7.58716E+03 -9.93740E+03  1.97689E+03
 -6.25346E+03 -4.72696E+03  2.31754E+02 -8.32950E+03  5.10546E+03 -4.02160E+03  4.91480E+03  1.73864E+03
  8.11490E+02  5.11550E+03 -5.04962E+03  6.54438E+03 -7.09226E+03  3.30848E+03 -7.06767E+03 -2.02551E+03
 -4.42068E+03 -8.61284E+03  1.94508E+03 -9.98397E+03  8.39309E+03 -6.13925E+03  9.15937E+03  1.41120E+03
  5.98329E+03  7.28384E+03 -2.97299E+02  9.46761E+03 -6.83370E+03  5.40163E+03 -7.19054E+03 -4.70720E+02
 -6.83464E+03 -6.33876E+03 -1.53750E+03 -6.92306E+03  3.29081E+03 -5.65573E+03  4.27676E+03 -2.64257E+03
  3.24546E+03  4.90273E+02 -6.59242E+01  1.61583E+03  5.45303E+02 -1.05475E+03  1.09171E+03 -3.21617E+03
  5.72380E+03 -1.88004E+03  8.18819E+03  7.53266E+02  8.27894E+03  5.33160E+03  6.55141E+03  1.07748E+04
 -2.15242E+03  1.26461E+04 -1.04435E+04  8.99526E+03 -1.38254E+04  2.05984E+03 -1.12235E+04 -3.97434E+03
 -6.06847E+03 -9.21991E+03 -4.92988E+02 -7.82171E+03  3.07981E+03 -3.69357E+03  2.80593E+03 -2.85684E+03
  2.02954E+03 -1.94269E+03  2.48902E+03 -2.79322E+03  3.99792E+03 -1.88735E+03  4.68457E+03 -5.60199E+01
  6.23142E+03  1.44337E+03  2.20110E+03  4.71957E+03 -1.90968E+03  4.77328E+03 -6.35703E+03  3.99055E+03
 -7.30174E+03 -1.19240E+03 -3.62879E+03 -5.10372E+03  1.48155E+02 -7.71932E+03  5.08614E+03 -7.94241E+03
  7.84510E+03 -4.39386E+03  9.82395E+03  9.20565E+02  6.91307E+03  6.76490E+03  1.48639E+03  9.05129E+03
 -3.43944E+03  7.94009E+03 -5.27163E+03  2.82878E+03 -3.03569E+03 -1.27329E+03 -8.72187E+02 -8.74294E+02
 -8.30192E+02  1.53703E+02 -1.26744E+03  2.37615E+03 -3.50501E+03  1.46522E+03 -5.66412E+03 -5.96825E+02
 -3.00930E+03 -5.58996E+03  7.44983E+02 -6.68390E+03  4.18621E+03 -6.22088E+03  6.01783E+03 -1.80005E+03
  6.43367E+03  3.54574E+03  3.08022E+03  5.62184E+03 -1.05641E+03  7.12551E+03 -4.49070E+03  3.99805E+03
 -6.27713E+03  7.75760E+02 -4.98106E+03 -3.94308E+03 -4.68359E+02 -5.56277E+03  2.61130E+03 -3.91981E+03
  4.17385E+03 -1.79940E+03  2.95613E+03  1.48330E+03  9.20570E+02  2.12280E+03  8.65839E+02  6.74606E+02
  1.91849E+03  6.72636E+02  1.94075E+03  1.26029E+03  1.95510E+03  2.89444E+03  1.87752E+03  2.94617E+03
 -1.82483E+03  5.12043E+03 -4.18928E+03  5.70960E+03 -5.71326E+03  1.52482E+03 -6.62083E+03 -1.91539E+03
 -2.99482E+03 -6.47433E+03  9.65252E+02 -7.59873E+03  3.64963E+03 -4.44246E+03  5.50938E+03 -1.00444E+03
  3.95142E+03  2.49096E+03  8.13491E+02  3.57219E+03 -1.44165E+03  2.37147E+03 -2.44750E+03 -3.58930E+02
 -1.17655E+03 -2.42959E+03  1.76410E+03 -2.68756E+03  2.63572E+03 -1.57774E+03  2.23252E+03  5.11506E+02
  1.28651E+03  7.73166E+02  9.72517E+02  3.49688E+02 -2.11837E+02  7.87057E+02  1.49447E+03 -4.20702E+02
  2.62109E+02 -5.52596E+02  2.87903E+03  8.95315E+02  1.03271E+03  3.67939E+03 -5.87583E+02  4.44552E+03
 -2.89559E+03  2.13495E+03 -3.50815E+03  6.65234E+02 -3.75325E+03 -1.22059E+03 -1.19177E+03 -1.49356E+03
  7.12404E+02 -2.40252E+03  1.56358E+03 -1.10663E+03  1.37211E+03  1.55783E+03 -6.28000E+02  1.83309E+03
 -2.59604E+03  1.24605E+03 -2.62067E+03 -1.58579E+03 -1.58820E+03 -3.58081E+03  1.33659E+01 -3.12934E+03
  1.22065E+03 -1.52935E+03  1.94443E+03  1.18357E+02  2.00836E+03  4.65470E+02 -6.35590E+01  1.76598E+03
 -9.56372E+02  2.15192E+02 -1.46172E+03 -7.92724E+02  8.39056E+02 -2.17397E+03  3.04416E+03 -1.77413E+03
  2.97596E+03  3.06887E+02  4.15761E+03  1.98234E+03  1.51573E+03  3.25042E+03 -9.96459E+02  3.37022E+03
 -2.96747E+03  1.24665E+03 -2.86390E+03 -4.56691E+02 -1.56084E+03 -2.35014E+03  6.14965E+02 -1.93893E+03
  2.56293E+03 -1.00938E+03  1.94875E+03  1.36464E+03  4.78474E+02  1.95222E+03  2.80850E+02  1.99863E+03
 -5.83418E+02  1.67712E+03 -7.06873E+02  5.17839E+02  1.42326E+01  3.72485E+02 -8.34422E+02  1.06777E+03
 -9.26808E+02  1.49259E+03 -2.66894E+03  9.81725E+02 -3.34530E+03  3.49829E+02 -3.78842E+03 -1.84774E+03
 -1.89153E+03 -4.59719E+03  9.97629E+02 -5.08772E+03  2.86760E+03 -4.18814E+03  5.01437E+03 -1.52455E+03
  4.49741E+03  7.33326E+02  2.46217E+03  3.18299E+03 -3.76163E+02  3.35544E+03 -1.46925E+03  2.42392E+03
 -1.83540E+03  1.11387E+03 -8.61838E+02 -5.35459E+02 -7.18247E+02  3.12681E+01 -7.05435E+02  7.76314E+01
 -7.54311E+02 -3.83559E+01 -1.16957E+03 -2.37489E+02  3.98511E+01 -1.15069E+03 -2.26153E+02 -1.43731E+03
  2.12451E+03 -1.02681E+03  1.59634E+03  1.75782E+02  2.32058E+03  1.87944E+03  2.73332E+02  2.80037E+03
 -1.46507E+03  4.45812E+03 -3.26913E+03  2.49071E+03 -4.07571E+03 -1.09543E+02 -2.90651E+03 -2.44561E+03
 -1.60998E+03 -3.26673E+03  7.27077E+02 -2.40324E+03  1.50134E+03 -1.29116E+03  1.97312E+03  2.40639E+02
  1.49529E+03  7.00711E+02 -1.67253E+02  7.56094E+02 -5.71514E+02  4.85772E+01 -1.89067E+02 -5.89390E+02
  9.80763E+02 -4.93047E+01  9.86345E+02  5.29442E+02  5.28094E+02  1.34146E+03  2.93386E+02  1.34658E+03
 -1.49231E+03  1.30612E+03 -1.38710E+03  2.54691E+02 -1.71469E+03 -1.29565E+03 -3.66705E+02 -2.38111E+03
  1.22564E+03 -2.01755E+03  1.87397E+03 -2.99869E+02  2.18607E+03 -1.60779E+02  9.59730E+02  1.88273E+03
  6.74907E+02  1.73444E+03 -4.33198E+02  1.51245E+03 -1.49806E+03  1.06674E+03 -8.11886E+02  3.63301E+02
 -6.30235E+02 -2.24504E+02 -5.76023E+02  6.14556E+02 -8.31119E+02  3.26116E+02 -1.21422E+03 -2.81022E+02
 -1.59729E+03 -6.55669E+02 -5.19293E+02 -1.86601E+03  1.05474E+03 -2.68569E+03  1.69796E+03 -6.54496E+02
  1.74685E+03  5.67949E+01  3.35498E+02  1.09266E+03  1.53663E+02  1.69180E+03 -1.45766E+03  1.34689E+03
