 $NMID ID='MM_0lb_SNR800_17hz_g60_92.RAW', FMTDAT='(8E13.5)'
 TRAMP=1., VOLUME=1. $END
  3.09901E+05  4.43828E+02  3.37682E+05  2.50578E+05  8.49774E+04  3.37690E+05 -1.32581E+05  2.50883E+05
 -1.90248E+05  8.27515E+04 -1.11906E+05 -3.25718E+04  9.55533E+02 -5.05984E+04  5.39467E+04 -8.88205E+01
  3.53481E+04  5.31549E+04 -1.66802E+04  7.52240E+04 -6.07581E+04  6.33521E+04 -8.40501E+04  3.21023E+04
 -8.09278E+04 -1.14208E+04 -5.69792E+04 -5.14072E+04 -1.51568E+04 -6.96499E+04  2.73474E+04 -4.55163E+04
  4.00339E+04  3.91753E+03  1.60946E+04  4.77567E+04 -3.43016E+04  4.67778E+04 -6.66019E+04  6.71158E+01
 -5.31506E+04 -5.65632E+04 -6.35092E+03 -7.66104E+04  3.38782E+04 -5.49335E+04  4.77116E+04 -1.72423E+04
  4.33643E+04  1.12395E+04  3.15997E+04  2.52532E+04  1.60422E+04  2.93784E+04 -5.14688E+03  2.69891E+04
 -2.21251E+04  1.25069E+04 -1.85034E+04 -4.70168E+03  5.50994E+03 -7.75960E+03  2.20895E+04  1.23917E+04
  7.22871E+03  3.48458E+04 -3.17892E+04  3.55854E+04 -6.32568E+04  2.03625E+03 -5.69282E+04 -4.25443E+04
 -1.26512E+04 -6.26650E+04  3.96102E+04 -4.48357E+04  5.78097E+04 -1.97128E+03  3.37568E+04  3.24089E+04
 -6.15767E+03  3.60698E+04 -2.96064E+04  1.57054E+04 -3.00955E+04 -4.60021E+03 -1.63592E+04 -1.09550E+04
 -8.21422E+03 -1.28275E+04 -8.93717E+02 -1.78499E+04  7.50145E+03 -2.28340E+04  1.51300E+04 -1.34207E+04
  1.13185E+04  5.09421E+03 -7.84746E+03  1.30114E+04 -2.09998E+04 -4.18050E+03 -8.37252E+03 -3.30580E+04
  2.23670E+04 -4.28208E+04  4.77590E+04 -1.93317E+04  4.43906E+04  1.93457E+04  1.54207E+04  4.36415E+04
 -1.59579E+04  3.29578E+04 -2.49516E+04  1.63854E+03 -9.59907E+03 -2.75112E+04  2.09745E+04 -3.31874E+04
  4.05111E+04 -8.51835E+03  3.47624E+04  2.35643E+04  1.76173E+04  4.56995E+04 -7.70559E+03  4.93342E+04
 -3.10328E+04  3.32998E+04 -4.08838E+04  9.57951E+03 -4.17045E+04 -1.62069E+04 -2.32579E+04 -3.73269E+04
  7.14656E+03 -3.69652E+04  3.09285E+04 -1.43790E+04  2.84850E+04  1.08095E+04  3.68691E+03  1.88790E+04
 -1.32632E+04  8.36292E+03 -1.01810E+04 -7.61347E+03  5.95531E+03 -1.04937E+04  1.79997E+04  6.13484E+03
  1.32167E+04  2.20047E+04 -6.20534E+03  2.46125E+04 -2.21541E+04  1.11468E+04 -2.73620E+04 -5.43156E+03
 -1.96311E+04 -1.72354E+04 -7.67408E+03 -1.93995E+04  4.11866E+03 -1.83555E+04  1.47693E+04 -1.72242E+04
  2.50357E+04 -1.23833E+04  3.11908E+04  2.44497E+03  2.32242E+04  1.91441E+04  4.02652E+03  3.52963E+04
 -1.71829E+04  2.96055E+04 -2.72970E+04  1.00494E+04 -2.04913E+04 -1.01806E+04 -4.66032E+03 -1.38107E+04
  1.96025E+03 -3.35315E+03 -4.34870E+03  6.21789E+03 -1.54140E+04  4.96722E+03 -1.53666E+04 -6.28224E+03
 -9.55362E+03 -1.80572E+04  4.93576E+03 -2.18203E+04  1.49616E+04 -1.57694E+04  1.65974E+04 -1.64209E+03
  1.02981E+04  1.25260E+04 -1.00765E+03  1.78414E+04 -1.25309E+04  1.02436E+04 -1.79079E+04 -4.04250E+03
 -1.32457E+04 -1.60291E+04 -1.52567E+03 -2.16113E+04  9.70423E+03 -1.73595E+04  1.81602E+04 -8.62935E+03
  1.66786E+04  3.79972E+02  1.22302E+04  4.33524E+03  6.07893E+03  1.10024E+03  9.09530E+03 -1.27476E+03
  1.63781E+04  2.81250E+03  1.79090E+04  1.44798E+04  1.14038E+04  2.83774E+04 -2.93805E+03  3.14769E+04
 -1.85392E+04  2.46802E+04 -2.91953E+04  1.19987E+04 -3.04897E+04 -2.02064E+03 -2.52352E+04 -1.73476E+04
 -1.11870E+04 -2.49376E+04  8.59177E+03 -2.28456E+04  1.96984E+04 -1.18878E+04  1.81918E+04  4.75872E+03
  6.71124E+03  1.31294E+04 -7.84877E+03  1.19426E+04 -1.49721E+04  2.71526E+03 -1.15652E+04 -9.24481E+03
 -6.42967E+01 -1.41661E+04  7.34931E+03 -1.05254E+04  9.24980E+03 -1.49180E+03  1.94070E+03  5.74055E+03
 -6.46140E+03  1.82991E+03 -5.26012E+03 -5.12150E+03 -2.51192E+01 -1.21658E+04  8.69282E+03 -1.27490E+04
  1.51888E+04 -6.31260E+03  1.51611E+04  3.04487E+03  1.36064E+04  1.16810E+04  6.56371E+03  1.79045E+04
 -2.68471E+03  1.95407E+04 -1.23725E+04  1.20534E+04 -1.40136E+04  2.87892E+03 -9.92507E+03 -2.72167E+03
 -5.08164E+03 -4.02075E+03 -7.67492E+02  1.35243E+03 -2.19648E+03  2.15425E+03 -4.46994E+03  3.81990E+03
 -9.75670E+03 -5.82408E+02 -1.04724E+04 -8.14387E+03 -4.15245E+03 -1.31949E+04  4.20743E+03 -1.00151E+04
  8.31957E+03 -4.42551E+03  6.13743E+03  2.70307E+03  3.33120E+02  4.00516E+03 -4.31635E+03 -1.84011E+02
 -3.92053E+03 -6.23787E+03 -7.55248E+02 -8.82118E+03  4.92839E+03 -9.77179E+03  1.22347E+04 -5.09953E+03
  1.43990E+04  1.06989E+03  1.06472E+04  8.00433E+03  2.20651E+03  1.09708E+04 -6.25484E+03  9.86575E+03
 -8.27309E+03  3.28088E+03 -4.47125E+03 -1.67141E+03  1.58832E+03 -2.61128E+03  5.48550E+03 -8.56797E+02
  4.84578E+03  4.28474E+03  9.75873E+02  7.57895E+03 -5.68664E+03  7.50144E+03 -9.53182E+03  2.08119E+03
 -6.02501E+03 -4.29817E+03  4.31605E+02 -8.05830E+03  5.04895E+03 -4.14478E+03  4.53660E+03  1.70550E+03
  7.88160E+02  4.62447E+03 -5.16441E+03  6.25232E+03 -6.54965E+03  3.15615E+03 -6.28312E+03 -1.81127E+03
 -3.63179E+03 -7.68293E+03  1.41953E+03 -9.45678E+03  8.00586E+03 -6.01033E+03  8.48457E+03  1.21031E+03
  5.58530E+03  6.92816E+03 -4.67564E+02  8.69048E+03 -6.28449E+03  5.14646E+03 -6.44980E+03 -5.23327E+02
 -6.61508E+03 -6.26864E+03 -1.36606E+03 -6.12733E+03  3.22189E+03 -5.79088E+03  3.57645E+03 -3.13269E+03
  3.17615E+03  6.89546E+02  1.25970E+02  1.42080E+03  1.79970E+02 -1.18004E+03  3.15664E+02 -2.96062E+03
  4.88382E+03 -1.56381E+03  6.90171E+03  8.69291E+02  7.17279E+03  4.40958E+03  5.69658E+03  9.41487E+03
 -1.93804E+03  1.11137E+04 -9.77930E+03  8.38122E+03 -1.26216E+04  1.53152E+03 -9.74271E+03 -3.81337E+03
 -5.04027E+03 -8.58354E+03 -3.86062E+02 -6.46254E+03  2.69250E+03 -3.15698E+03  1.98501E+03 -2.65882E+03
  1.60823E+03 -1.53945E+03  2.37598E+03 -2.63966E+03  3.66344E+03 -1.65655E+03  4.34436E+03  7.09852E+01
  5.51701E+03  1.21373E+03  1.74480E+03  4.41051E+03 -1.61726E+03  4.06367E+03 -5.40683E+03  3.53027E+03
 -6.24185E+03 -1.13566E+03 -2.88992E+03 -4.34160E+03  2.54638E+02 -6.64820E+03  3.94362E+03 -6.77011E+03
  7.07782E+03 -4.06552E+03  8.50519E+03  7.73141E+02  6.16339E+03  5.81330E+03  1.32211E+03  7.62245E+03
 -2.76405E+03  7.08432E+03 -4.58759E+03  2.08888E+03 -2.47007E+03 -9.38979E+02 -8.54329E+02 -6.86668E+02
 -7.66544E+02  3.33246E+02 -1.05494E+03  2.41020E+03 -3.01588E+03  1.16723E+03 -4.77086E+03 -7.93032E+02
 -2.55486E+03 -4.74850E+03  6.95817E+02 -5.96465E+03  3.50711E+03 -5.48180E+03  5.03906E+03 -1.55468E+03
  5.64866E+03  3.29946E+03  2.38926E+03  4.32332E+03 -9.08736E+02  5.84373E+03 -3.79998E+03  3.42751E+03
 -4.85597E+03  7.03999E+02 -4.57061E+03 -3.20679E+03 -4.66148E+02 -4.33040E+03  2.24001E+03 -3.37862E+03
  3.75392E+03 -1.45541E+03  2.53413E+03  5.76142E+02  8.87713E+02  1.98375E+03  8.97828E+02  7.44979E+02
  1.90242E+03  4.76323E+02  1.24729E+03  1.02252E+03  1.55992E+03  2.57617E+03  1.78733E+03  2.24378E+03
 -1.40164E+03  4.11576E+03 -3.35221E+03  5.21008E+03 -4.52079E+03  1.52700E+03 -5.38419E+03 -1.39922E+03
 -2.23674E+03 -4.94181E+03  7.70347E+02 -5.85548E+03  2.59983E+03 -3.47248E+03  3.85247E+03 -1.29182E+03
  3.33747E+03  2.27578E+03  6.40736E+02  2.74131E+03 -8.03634E+02  1.76255E+03 -1.57835E+03  2.13288E+02
 -1.02666E+03 -1.97078E+03  1.52283E+03 -2.21946E+03  2.09575E+03 -9.88356E+02  1.89723E+03  4.26270E+02
  1.24650E+03  9.85300E+02  8.03141E+02  1.12210E+02 -9.53788E+01  8.18690E+02  1.52852E+03 -3.47590E+02
  3.50239E+02 -3.31742E+02  2.19097E+03  8.11354E+02  5.09998E+02  2.81187E+03 -4.90703E+02  3.59800E+03
 -2.42406E+03  1.68073E+03 -2.83650E+03  4.31242E+02 -2.86848E+03 -1.05249E+03 -6.26868E+02 -1.55595E+03
  6.36149E+02 -1.72789E+03  1.12005E+03 -1.05358E+03  6.71392E+02  1.55768E+03 -8.78361E+02  1.56428E+03
 -1.72628E+03  9.63653E+02 -1.41654E+03 -1.71586E+03 -7.94130E+02 -2.72582E+03  4.05610E+02 -2.02666E+03
  9.80947E+02 -8.66971E+02  8.79745E+02  3.99463E+01  1.10498E+03 -4.40100E+01  5.79629E+02  1.38691E+03
 -7.23704E+02  1.66407E+02 -1.14339E+03 -1.46047E+02  6.55114E+02 -1.57788E+03  2.28321E+03 -1.23010E+03
  1.97465E+03  3.78982E+02  3.10784E+03  9.13593E+02  1.41896E+03  2.28659E+03 -5.82181E+02  2.58522E+03
 -2.17734E+03  5.96689E+02 -2.06323E+03 -2.75872E+02 -1.18047E+03 -1.97118E+03  6.64952E+02 -1.24097E+03
  1.79085E+03 -6.91533E+02  1.15793E+03  1.02855E+03  2.24746E+02  1.40452E+03  3.07854E+02  1.01506E+03
 -4.12794E+02  1.16604E+03 -4.64808E+02  2.68558E+02  2.47267E+00  6.08604E+02 -6.88477E+02  6.83659E+02
 -5.97723E+02  1.26600E+03 -2.23741E+03  6.33959E+02 -2.15288E+03  1.56922E+01 -3.09517E+03 -1.29815E+03
 -1.49253E+03 -3.29321E+03  5.86299E+02 -3.78894E+03  1.61059E+03 -3.11351E+03  3.61840E+03 -1.51008E+03
  3.31733E+03 -1.69334E+02  1.68465E+03  2.14170E+03 -5.81651E+02  2.18936E+03 -9.50025E+02  1.86151E+03
 -1.27545E+03  9.91717E+02 -9.88303E+02 -4.78426E+02 -4.00631E+02  4.48355E+01 -7.87280E+02  6.23006E+01
 -1.33215E+03  1.31158E+02 -7.31915E+02  1.89841E+02  4.70918E+02 -6.84482E+02 -3.15951E+02 -1.22280E+03
  1.47004E+03 -1.16372E+03  7.16345E+02  8.12615E+01  1.37036E+03  1.48584E+03 -4.03571E+01  1.73232E+03
 -1.03609E+03  2.51760E+03 -2.11730E+03  1.70975E+03 -2.55102E+03 -9.02584E+01 -1.71599E+03 -1.66322E+03
 -9.51237E+02 -1.72728E+03  4.90603E+02 -1.46472E+03  1.00217E+03 -9.54903E+02  1.14359E+03  1.21582E+02
  9.57082E+02  4.26565E+02  1.33816E+02  6.66781E+02 -4.53007E+02  1.03566E+02 -1.23814E+02 -2.43956E+02
  4.67079E+02  1.63992E+02  5.54313E+02  5.66674E+02  2.09148E+02  7.41164E+02  4.44746E+02  4.90774E+02
 -1.11502E+03  8.06108E+02 -8.42997E+02  3.33468E+01 -1.31410E+03 -6.76861E+02 -9.15603E-01 -1.36424E+03
  8.57130E+02 -1.14104E+03  7.15835E+02  1.41022E+02  1.23051E+03 -5.42614E+02  6.61784E+02  9.09219E+02
  5.31358E+02  9.46331E+02 -3.46573E+02  8.49449E+02 -6.78937E+02  5.22285E+02 -1.04122E+03 -3.57027E+01
 -1.60634E+02 -1.93874E+02 -3.17098E+02  3.20977E+01 -7.95340E+02  1.87609E+01 -8.16176E+02 -2.75534E+02
 -1.22402E+03 -1.92236E+02 -2.85453E+02 -1.12630E+03  6.64272E+02 -1.82956E+03  7.88538E+02 -2.83944E+01
  9.09587E+02  1.07986E+02 -3.37373E+01  2.80316E+02 -4.84091E+01  1.12575E+03 -7.08573E+02  8.58540E+02
