 $NMID ID='MM_0lb_SNR800_10hz_g45_94.RAW', FMTDAT='(8E13.5)'
 TRAMP=1., VOLUME=1. $END
  3.09605E+05  8.01846E+02  3.38082E+05  2.51076E+05  8.50198E+04  3.38426E+05 -1.32479E+05  2.51687E+05
 -1.90592E+05  8.35616E+04 -1.12128E+05 -3.24016E+04  5.28801E+02 -5.08048E+04  5.38179E+04 -6.25986E+02
  3.56166E+04  5.29742E+04 -1.70987E+04  7.57045E+04 -6.10558E+04  6.40551E+04 -8.50325E+04  3.21494E+04
 -8.22888E+04 -1.14481E+04 -5.81760E+04 -5.21995E+04 -1.53555E+04 -7.04594E+04  2.80670E+04 -4.65263E+04
  4.09214E+04  3.63278E+03  1.63002E+04  4.81759E+04 -3.46531E+04  4.76136E+04 -6.77912E+04 -1.55948E+02
 -5.41905E+04 -5.73701E+04 -7.15134E+03 -7.83377E+04  3.42117E+04 -5.61961E+04  4.92787E+04 -1.76836E+04
  4.49944E+04  1.16795E+04  3.23230E+04  2.59455E+04  1.60576E+04  3.02235E+04 -5.21098E+03  2.77631E+04
 -2.24227E+04  1.23801E+04 -1.81105E+04 -5.62172E+03  6.43919E+03 -7.47542E+03  2.30096E+04  1.37083E+04
  7.13862E+03  3.70891E+04 -3.34652E+04  3.66298E+04 -6.53286E+04  2.16783E+03 -5.82344E+04 -4.35750E+04
 -1.22034E+04 -6.51246E+04  4.09926E+04 -4.64116E+04  6.04840E+04 -2.22026E+03  3.58240E+04  3.36738E+04
 -5.64659E+03  3.81760E+04 -3.14060E+04  1.77278E+04 -3.22249E+04 -3.55684E+03 -1.81219E+04 -1.17223E+04
 -8.96592E+03 -1.45622E+04 -6.94643E+02 -1.93085E+04  8.05710E+03 -2.31781E+04  1.57103E+04 -1.29554E+04
  1.08410E+04  5.89690E+03 -1.01298E+04  1.29482E+04 -2.25465E+04 -6.16212E+03 -8.75769E+03 -3.63105E+04
  2.44499E+04 -4.56254E+04  5.05262E+04 -2.06739E+04  4.74030E+04  1.98461E+04  1.64564E+04  4.62920E+04
 -1.66081E+04  3.54245E+04 -2.66793E+04  2.05764E+03 -1.08278E+04 -2.87075E+04  2.13441E+04 -3.56938E+04
  4.31207E+04 -1.04676E+04  3.89143E+04  2.46578E+04  2.00068E+04  4.94086E+04 -8.33422E+03  5.43174E+04
 -3.39554E+04  3.68339E+04 -4.55981E+04  1.09177E+04 -4.57028E+04 -1.81988E+04 -2.51238E+04 -4.09040E+04
  7.74058E+03 -4.12610E+04  3.35350E+04 -1.64276E+04  3.13887E+04  1.07312E+04  4.79676E+03  2.03698E+04
 -1.38729E+04  9.30714E+03 -1.11678E+04 -7.39977E+03  5.60253E+03 -1.12629E+04  1.83724E+04  5.85165E+03
  1.44468E+04  2.26393E+04 -5.58229E+03  2.65319E+04 -2.32497E+04  1.30141E+04 -3.06798E+04 -3.36047E+03
 -2.35475E+04 -1.83344E+04 -1.05986E+04 -2.34503E+04  3.73499E+03 -2.42529E+04  1.87145E+04 -2.14476E+04
  3.02867E+04 -1.36815E+04  3.62473E+04  4.40617E+03  2.61504E+04  2.29181E+04  4.57056E+03  3.91635E+04
 -1.93232E+04  3.25142E+04 -3.00984E+04  1.15246E+04 -2.22205E+04 -1.00815E+04 -4.92353E+03 -1.31210E+04
  1.04202E+03 -1.57625E+03 -6.74212E+03  7.97040E+03 -1.90507E+04  5.25829E+03 -1.92788E+04 -8.81241E+03
 -1.16158E+04 -2.24461E+04  5.82733E+03 -2.62010E+04  1.74830E+04 -1.85478E+04  2.15761E+04 -1.90396E+03
  1.38319E+04  1.52993E+04 -1.30303E+03  2.18070E+04 -1.55226E+04  1.30430E+04 -2.21696E+04 -4.70684E+03
 -1.63817E+04 -1.94904E+04 -2.37217E+03 -2.64497E+04  1.24117E+04 -2.19137E+04  2.19845E+04 -1.12177E+04
  2.05957E+04 -1.42855E+02  1.53917E+04  5.25478E+03  7.93546E+03  9.35831E+02  1.12059E+04 -1.84595E+03
  2.03642E+04  2.55225E+03  2.38761E+04  1.75743E+04  1.61167E+04  3.52158E+04 -2.83422E+03  4.09461E+04
 -2.34582E+04  3.43660E+04 -3.83185E+04  1.75200E+04 -4.11795E+04 -2.86367E+03 -3.35471E+04 -2.41918E+04
 -1.38192E+04 -3.41352E+04  1.22701E+04 -3.04920E+04  2.60456E+04 -1.40805E+04  2.26829E+04  7.07779E+03
  7.69851E+03  1.75935E+04 -1.05298E+04  1.45529E+04 -1.92660E+04  2.76270E+03 -1.44487E+04 -1.23122E+04
 -3.71770E+02 -1.79585E+04  9.90205E+03 -1.36626E+04  1.25588E+04 -1.22822E+03  3.18418E+03  8.32011E+03
 -8.36917E+03  3.68129E+03 -7.98623E+03 -6.53005E+03 -1.51577E+03 -1.67856E+04  1.10770E+04 -1.85471E+04
  2.12022E+04 -1.04244E+04  2.35234E+04  3.22889E+03  2.08068E+04  1.70701E+04  9.87085E+03  2.65395E+04
 -4.73925E+03  2.85262E+04 -1.83449E+04  1.77006E+04 -2.04333E+04  3.84549E+03 -1.38796E+04 -5.35636E+03
 -6.25430E+03 -6.48442E+03 -6.86244E+02  7.33107E+02 -2.79745E+03  3.30626E+03 -7.12056E+03  5.29773E+03
 -1.31667E+04 -9.29136E+02 -1.39262E+04 -1.12254E+04 -5.57546E+03 -1.78156E+04  5.80331E+03 -1.48111E+04
  1.17316E+04 -5.93022E+03  8.25060E+03  3.99838E+03  1.44449E+02  5.23999E+03 -7.30403E+03 -2.76109E+02
 -6.84347E+03 -9.12025E+03 -1.47947E+03 -1.46595E+04  8.15912E+03 -1.49569E+04  1.83404E+04 -8.13473E+03
  2.13562E+04  2.13228E+03  1.57800E+04  1.29063E+04  2.72066E+03  1.72648E+04 -9.22677E+03  1.40029E+04
 -1.18191E+04  4.05025E+03 -5.75958E+03 -3.40009E+03  2.10606E+03 -3.79107E+03  7.53867E+03 -1.18404E+03
  6.75141E+03  6.34780E+03  1.25662E+03  1.15296E+04 -8.23123E+03  1.10491E+04 -1.41856E+04  2.76950E+03
 -9.54581E+03 -7.37793E+03 -8.76756E+01 -1.24019E+04  7.89095E+03 -6.40803E+03  8.22793E+03  2.64459E+03
  1.56845E+03  8.97109E+03 -7.17561E+03  1.04065E+04 -1.17349E+04  4.43770E+03 -1.24355E+04 -4.46317E+03
 -7.18159E+03 -1.40978E+04  3.22083E+03 -1.60278E+04  1.38005E+04 -9.55599E+03  1.51641E+04  2.61428E+03
  8.62200E+03  1.19023E+04 -1.23200E+03  1.41771E+04 -1.04483E+04  7.82205E+03 -1.07697E+04 -8.22244E+02
 -9.80033E+03 -9.63401E+03 -1.52431E+03 -1.04863E+04  5.47301E+03 -8.72109E+03  6.74415E+03 -3.86045E+03
  4.66598E+03  1.80471E+03 -1.28257E+03  1.83482E+03 -7.72251E+02 -2.80973E+03  2.23492E+03 -6.69227E+03
  9.85681E+03 -4.03055E+03  1.36663E+04  1.26835E+03  1.42227E+04  9.42312E+03  9.07213E+03  1.81719E+04
 -4.21576E+03  2.09538E+04 -1.78755E+04  1.59235E+04 -2.28686E+04  3.33053E+03 -1.84428E+04 -7.60399E+03
 -9.49377E+03 -1.49260E+04 -4.06591E+02 -1.25550E+04  4.90500E+03 -7.24089E+03  4.24671E+03 -4.65075E+03
  3.38136E+03 -2.43180E+03  3.55686E+03 -3.58643E+03  5.28285E+03 -3.06862E+03  7.34158E+03 -1.01955E+03
  9.58054E+03  2.69304E+03  5.12431E+03  8.25297E+03 -2.24753E+03  9.59174E+03 -1.02368E+04  7.44374E+03
 -1.28301E+04 -1.46268E+03 -8.08787E+03 -9.28727E+03 -9.81389E+02 -1.37834E+04  7.96401E+03 -1.42210E+04
  1.46594E+04 -7.59758E+03  1.69332E+04  2.26418E+03  1.18517E+04  1.23016E+04  1.74333E+03  1.54091E+04
 -6.50893E+03  1.26618E+04 -9.45627E+03  4.41186E+03 -6.25463E+03 -1.56206E+03 -2.74994E+03 -1.98742E+03
 -1.15662E+03 -8.93006E+00 -2.09423E+03  2.65288E+03 -5.36514E+03  2.00522E+03 -8.78297E+03 -1.44142E+03
 -6.46684E+03 -9.20665E+03  2.65182E+02 -1.28915E+04  8.12315E+03 -1.17900E+04  1.24057E+04 -3.50197E+03
  1.23255E+04  6.18832E+03  6.16149E+03  1.11695E+04 -2.92288E+03  1.28648E+04 -9.09991E+03  8.27642E+03
 -1.17267E+04  5.80239E+02 -9.02976E+03 -7.67625E+03 -1.03459E+03 -1.04930E+04  5.04616E+03 -7.83691E+03
  8.11277E+03 -2.98040E+03  5.81321E+03  2.14770E+03  1.99543E+03  4.08191E+03  1.19893E+03  2.19259E+03
  2.26706E+03  1.15775E+03  3.41381E+03  2.06308E+03  3.72269E+03  4.28926E+03  3.47432E+03  6.56408E+03
 -2.69751E+03  9.89397E+03 -8.88370E+03  1.00204E+04 -1.28369E+04  2.93477E+03 -1.32635E+04 -5.18153E+03
 -6.07274E+03 -1.27122E+04  2.21068E+03 -1.40211E+04  7.65989E+03 -8.98391E+03  1.07164E+04 -2.17549E+03
  8.22703E+03  4.65652E+03  2.20899E+03  7.38245E+03 -3.55823E+03  4.77728E+03 -4.98120E+03 -7.05243E+02
 -2.25498E+03 -5.39994E+03  3.11604E+03 -5.59446E+03  5.04692E+03 -2.88758E+03  5.14262E+03  1.11308E+03
  3.12637E+03  2.43550E+03  1.48088E+03  1.70675E+03 -7.83622E+02  1.97905E+03  1.67271E+03 -6.19125E+02
  2.06096E+03 -5.07934E+02  5.30620E+03  1.67231E+03  2.96816E+03  6.89255E+03 -1.52329E+03  9.04735E+03
 -6.11589E+03  5.79826E+03 -8.29615E+03  2.10710E+03 -7.35711E+03 -2.83386E+03 -2.46522E+03 -4.97655E+03
  9.37767E+02 -4.67237E+03  3.34740E+03 -2.25394E+03  2.79588E+03  2.76861E+03 -1.36702E+03  4.02408E+03
 -4.96459E+03  2.40905E+03 -6.14806E+03 -3.20583E+03 -2.81996E+03 -7.06945E+03  1.30593E+03 -7.23322E+03
  4.14776E+03 -4.14535E+03  5.25090E+03 -1.73721E+02  3.90663E+03  1.61553E+03  9.59841E+02  4.05900E+03
 -2.19524E+03  9.75099E+02 -3.06192E+03 -2.54807E+03  1.23790E+03 -5.23148E+03  6.36485E+03 -4.00553E+03
  8.22905E+03  8.29436E+02  8.17509E+03  5.54991E+03  2.70375E+03  8.52664E+03 -2.86527E+03  7.68181E+03
 -6.56837E+03  3.03758E+03 -7.14463E+03 -1.21641E+03 -3.93079E+03 -5.15894E+03  1.16044E+03 -4.89910E+03
  5.48836E+03 -2.64874E+03  4.68367E+03  2.03342E+03  1.21891E+03  4.72491E+03 -6.26103E+02  4.10395E+03
 -2.45309E+03  2.68125E+03 -2.06984E+03  2.80076E+02 -9.60920E+02  1.09339E+03 -1.57232E+03  1.79055E+03
 -2.20583E+03  3.28632E+03 -5.39006E+03  2.94424E+03 -8.24109E+03  2.29971E+02 -9.32626E+03 -5.30015E+03
 -4.44231E+03 -1.09856E+04  1.83014E+03 -1.27606E+04  7.84666E+03 -9.98271E+03  1.19642E+04 -3.95838E+03
  1.13071E+04  2.09771E+03  7.01060E+03  7.23381E+03  8.14740E+02  8.31671E+03 -3.16947E+03  6.57107E+03
 -4.92898E+03  2.33639E+03 -3.23421E+03 -1.49876E+03 -9.78266E+02 -7.83997E+02 -6.99862E+02 -1.36383E+02
 -1.84806E+03 -1.29292E+02 -2.19408E+03 -1.01675E+02 -6.02065E+02 -2.37848E+03  1.71218E+02 -3.37832E+03
  4.00986E+03 -2.50113E+03  4.89919E+03  1.28796E+02  6.19353E+03  4.73457E+03  1.47541E+03  8.55841E+03
 -3.81272E+03  9.59806E+03 -8.99312E+03  5.69242E+03 -1.03986E+04 -9.50394E+02 -7.55815E+03 -6.06900E+03
 -3.52617E+03 -8.55508E+03  2.33733E+03 -8.57992E+03  5.43479E+03 -4.03436E+03  5.37520E+03  8.59828E+01
  2.99016E+03  2.89524E+03 -2.13911E+02  2.12755E+03 -1.64302E+03 -6.00512E+01  1.84030E+02 -1.85069E+03
  2.43027E+03 -1.20997E+03  3.13891E+03  1.34837E+03  2.10080E+03  3.28308E+03  2.21521E+02  4.26560E+03
 -3.53385E+03  3.88400E+03 -5.70697E+03  2.80866E+02 -4.78171E+03 -4.04699E+03 -1.07529E+03 -6.64712E+03
  3.76101E+03 -6.09413E+03  6.36216E+03 -2.05707E+03  6.17786E+03  1.44472E+03  4.08714E+03  5.47380E+03
  5.53605E+02  5.53579E+03 -2.11992E+03  4.27409E+03 -3.88306E+03  2.50210E+03 -2.84618E+03  2.73331E+02
 -1.67797E+03 -1.63057E+02 -1.94962E+03  8.68778E+02 -3.08068E+03  1.14356E+03 -4.16450E+03 -5.59695E+02
 -4.22335E+03 -2.84788E+03 -1.26247E+03 -5.56475E+03  2.63054E+03 -6.01509E+03  5.00320E+03 -2.66426E+03
  5.43431E+03  7.02100E+02  2.88810E+03  3.72510E+03 -1.57160E+02  5.60207E+03 -3.98439E+03  3.87297E+03
