 $NMID ID='MM_0lb_SNR800_17hz_g60_97.RAW', FMTDAT='(8E13.5)'
 TRAMP=1., VOLUME=1. $END
  3.10171E+05  3.69336E+02  3.37526E+05  2.50588E+05  8.48450E+04  3.37955E+05 -1.32449E+05  2.50928E+05
 -1.90284E+05  8.32249E+04 -1.11633E+05 -3.23593E+04  1.01855E+03 -5.04819E+04  5.36622E+04 -8.45656E+01
  3.55646E+04  5.31666E+04 -1.68104E+04  7.55144E+04 -6.06539E+04  6.33095E+04 -8.42556E+04  3.20153E+04
 -8.10200E+04 -1.12657E+04 -5.74730E+04 -5.08514E+04 -1.51779E+04 -6.92740E+04  2.72067E+04 -4.59229E+04
  3.98723E+04  3.89308E+03  1.60877E+04  4.77068E+04 -3.42729E+04  4.71370E+04 -6.68135E+04 -2.88133E+02
 -5.33256E+04 -5.66477E+04 -6.66740E+03 -7.67229E+04  3.41164E+04 -5.51012E+04  4.80392E+04 -1.68249E+04
  4.30527E+04  1.11933E+04  3.14354E+04  2.54346E+04  1.59149E+04  2.94096E+04 -5.04685E+03  2.73966E+04
 -2.21176E+04  1.21268E+04 -1.87389E+04 -4.68513E+03  5.49362E+03 -7.52814E+03  2.21463E+04  1.21965E+04
  7.39553E+03  3.51045E+04 -3.20791E+04  3.53727E+04 -6.30642E+04  2.03734E+03 -5.69136E+04 -4.25042E+04
 -1.23707E+04 -6.27158E+04  3.95036E+04 -4.50281E+04  5.75171E+04 -2.32149E+03  3.40812E+04  3.20038E+04
 -6.25416E+03  3.55226E+04 -2.97296E+04  1.55642E+04 -3.01331E+04 -4.92065E+03 -1.63397E+04 -1.09719E+04
 -8.09454E+03 -1.31650E+04 -7.79830E+02 -1.77743E+04  7.31630E+03 -2.31460E+04  1.51960E+04 -1.35689E+04
  1.16494E+04  5.17470E+03 -7.97740E+03  1.33294E+04 -2.07706E+04 -4.23494E+03 -8.06008E+03 -3.29332E+04
  2.22588E+04 -4.31558E+04  4.72995E+04 -1.97863E+04  4.47376E+04  1.93299E+04  1.54897E+04  4.35905E+04
 -1.59187E+04  3.29599E+04 -2.50834E+04  1.73941E+03 -9.06662E+03 -2.74742E+04  2.10573E+04 -3.32944E+04
  4.04992E+04 -8.66372E+03  3.48349E+04  2.35612E+04  1.74670E+04  4.58751E+04 -7.94949E+03  4.90645E+04
 -3.07359E+04  3.30253E+04 -4.12210E+04  9.31529E+03 -4.16725E+04 -1.65945E+04 -2.29256E+04 -3.71631E+04
  7.15027E+03 -3.70301E+04  3.08748E+04 -1.43178E+04  2.85935E+04  1.08701E+04  3.79576E+03  1.89985E+04
 -1.31758E+04  7.95429E+03 -1.02262E+04 -7.83143E+03  5.84159E+03 -1.06383E+04  1.76220E+04  5.80794E+03
  1.29985E+04  2.22390E+04 -6.37180E+03  2.44033E+04 -2.18975E+04  1.11798E+04 -2.73559E+04 -5.22405E+03
 -1.98219E+04 -1.70142E+04 -7.63926E+03 -1.94550E+04  4.16454E+03 -1.86028E+04  1.50708E+04 -1.74198E+04
  2.49563E+04 -1.26363E+04  3.13592E+04  2.17058E+03  2.30481E+04  1.88435E+04  4.37277E+03  3.51512E+04
 -1.74839E+04  2.97381E+04 -2.73315E+04  1.03048E+04 -2.06984E+04 -1.06845E+04 -4.32989E+03 -1.33933E+04
  1.94958E+03 -3.15475E+03 -4.20878E+03  6.20462E+03 -1.52404E+04  5.18991E+03 -1.54485E+04 -6.13883E+03
 -9.58597E+03 -1.77306E+04  4.97928E+03 -2.18640E+04  1.44734E+04 -1.59226E+04  1.69558E+04 -1.99905E+03
  1.07746E+04  1.23732E+04 -7.17397E+02  1.80384E+04 -1.20873E+04  9.94249E+03 -1.78564E+04 -3.78196E+03
 -1.32138E+04 -1.61217E+04 -1.60012E+03 -2.16363E+04  9.69895E+03 -1.76322E+04  1.83275E+04 -8.58954E+03
  1.67804E+04  4.77290E+02  1.20343E+04  4.24486E+03  6.23813E+03  5.06852E+02  8.99901E+03 -1.33165E+03
  1.60305E+04  2.42126E+03  1.77885E+04  1.41274E+04  1.16853E+04  2.83373E+04 -3.05175E+03  3.12904E+04
 -1.83330E+04  2.49762E+04 -2.91073E+04  1.20278E+04 -3.04059E+04 -2.13084E+03 -2.57417E+04 -1.75619E+04
 -1.10019E+04 -2.48644E+04  8.20799E+03 -2.26968E+04  1.99037E+04 -1.21638E+04  1.79422E+04  4.89758E+03
  6.99373E+03  1.33821E+04 -8.22171E+03  1.19904E+04 -1.49217E+04  2.58802E+03 -1.19581E+04 -9.43708E+03
 -1.24130E+02 -1.41012E+04  7.18562E+03 -1.05377E+04  9.18446E+03 -1.28683E+03  1.60499E+03  6.19430E+03
 -6.29351E+03  1.63776E+03 -5.21489E+03 -5.21365E+03  1.92390E+02 -1.20407E+04  8.93957E+03 -1.25411E+04
  1.49001E+04 -6.12875E+03  1.52623E+04  2.97785E+03  1.32663E+04  1.15377E+04  6.52953E+03  1.78309E+04
 -2.56311E+03  1.94154E+04 -1.21983E+04  1.22289E+04 -1.40467E+04  3.07959E+03 -1.00709E+04 -2.96894E+03
 -4.96437E+03 -4.19491E+03 -5.98525E+02  1.20282E+03 -2.50986E+03  2.30097E+03 -4.44800E+03  3.88217E+03
 -9.58516E+03 -5.48223E+02 -1.07038E+04 -8.63595E+03 -4.19771E+03 -1.35017E+04  4.19303E+03 -9.91288E+03
  8.33201E+03 -4.35935E+03  6.21313E+03  2.62710E+03  4.70186E+02  3.96636E+03 -4.52341E+03 -7.82996E+01
 -4.66942E+03 -6.10652E+03 -1.03116E+03 -9.10170E+03  5.02972E+03 -9.85588E+03  1.21827E+04 -4.98825E+03
  1.42122E+04  1.34333E+03  1.05546E+04  7.78353E+03  1.86722E+03  1.12293E+04 -6.40786E+03  1.00205E+04
 -8.09053E+03  3.14010E+03 -3.88999E+03 -1.75145E+03  1.50305E+03 -2.64872E+03  5.17688E+03 -1.09502E+03
  4.59386E+03  4.02409E+03  6.58489E+02  7.56397E+03 -5.56112E+03  7.72889E+03 -9.28034E+03  1.97480E+03
 -6.37569E+03 -4.42023E+03  3.41014E+02 -8.16712E+03  4.57899E+03 -3.65882E+03  4.76546E+03  1.40545E+03
  9.16318E+02  4.59931E+03 -4.82324E+03  6.31328E+03 -6.36079E+03  2.88210E+03 -6.44031E+03 -1.66467E+03
 -3.98067E+03 -7.84356E+03  1.79795E+03 -9.50059E+03  7.71728E+03 -5.73945E+03  8.29118E+03  1.54368E+03
  5.34105E+03  6.82764E+03 -3.17931E+02  8.75202E+03 -6.27523E+03  5.09047E+03 -6.63429E+03 -5.89396E+02
 -6.61521E+03 -5.92983E+03 -1.54597E+03 -6.54074E+03  2.98445E+03 -5.65925E+03  3.87854E+03 -3.23299E+03
  3.47816E+03  4.62329E+02 -2.27800E+02  1.34179E+03  3.02099E+02 -8.97379E+02  7.64091E+02 -2.82537E+03
  5.21576E+03 -1.54174E+03  7.26356E+03  8.31835E+02  7.38932E+03  4.15822E+03  5.97252E+03  9.27203E+03
 -1.94739E+03  1.10314E+04 -9.52064E+03  8.62233E+03 -1.24321E+04  1.50945E+03 -9.90633E+03 -3.49412E+03
 -4.97839E+03 -8.47222E+03 -6.18477E+02 -6.97571E+03  2.85595E+03 -3.28473E+03  2.32517E+03 -2.20627E+03
  1.88850E+03 -1.70558E+03  2.27423E+03 -2.33982E+03  4.02547E+03 -1.65139E+03  4.41145E+03  3.40053E+02
  5.25287E+03  1.11938E+03  1.76244E+03  4.34774E+03 -1.96618E+03  3.94431E+03 -5.44617E+03  3.69075E+03
 -6.31208E+03 -1.23189E+03 -3.15790E+03 -4.22423E+03  2.82730E+02 -6.47844E+03  4.10044E+03 -7.10472E+03
  6.86141E+03 -3.98746E+03  8.52027E+03  8.05171E+02  5.95077E+03  5.67769E+03  1.35720E+03  7.73169E+03
 -2.59811E+03  7.21049E+03 -4.25952E+03  2.18501E+03 -2.53514E+03 -1.23397E+03 -9.29727E+02 -7.80833E+02
 -2.85623E+02  2.51127E+02 -1.33352E+03  1.93801E+03 -2.81699E+03  1.07790E+03 -5.29425E+03 -4.82208E+02
 -2.50379E+03 -4.71698E+03  5.76449E+02 -5.97643E+03  3.52266E+03 -5.55115E+03  4.94987E+03 -1.84248E+03
  5.60518E+03  3.08166E+03  2.58709E+03  4.60385E+03 -1.52136E+03  5.83492E+03 -3.83282E+03  3.76770E+03
 -4.73989E+03  6.33552E+02 -4.30254E+03 -3.42872E+03 -2.33796E+02 -4.66221E+03  2.12211E+03 -3.57474E+03
  3.68852E+03 -1.40797E+03  2.13426E+03  4.90045E+02  5.23753E+02  2.06448E+03  1.02018E+03  5.43254E+02
  1.85879E+03  4.59525E+02  1.36713E+03  1.14882E+03  1.42990E+03  2.40794E+03  1.70753E+03  2.75748E+03
 -1.57845E+03  3.75830E+03 -3.39408E+03  4.92309E+03 -4.29555E+03  1.29143E+03 -5.42402E+03 -1.47492E+03
 -2.29622E+03 -5.11063E+03  6.23163E+02 -6.08062E+03  2.58633E+03 -3.49748E+03  3.88997E+03 -1.25165E+03
  3.31866E+03  2.18704E+03  1.74109E+02  3.12526E+03 -1.28176E+03  1.85695E+03 -1.31658E+03 -1.67041E+02
 -8.78103E+02 -2.19730E+03  1.46770E+03 -1.83719E+03  1.63939E+03 -9.57252E+02  1.68409E+03  7.12342E+02
  1.14944E+03  7.06827E+02  1.05136E+03  1.20757E+02 -4.13489E+02  1.03111E+03  1.34553E+03 -2.30247E+02
  3.37044E+02 -5.35290E+02  2.07221E+03  9.87086E+02  7.48068E+02  2.62889E+03 -2.73756E+02  3.57573E+03
 -1.96543E+03  1.66501E+03 -2.66469E+03  4.52228E+02 -2.72825E+03 -1.10179E+03 -2.98696E+02 -1.66101E+03
  3.80603E+02 -1.41239E+03  1.27964E+03 -9.57004E+02  1.14699E+03  1.47359E+03 -5.63515E+02  1.49160E+03
 -2.13337E+03  8.34199E+02 -1.66625E+03 -1.36801E+03 -1.06932E+03 -2.91420E+03  1.00757E+02 -2.36906E+03
  8.71759E+02 -6.77208E+02  1.17532E+03  4.20954E+01  1.58647E+03 -2.41973E+01  5.07500E+02  1.39061E+03
 -4.29036E+02  5.45877E+01 -1.05553E+03 -4.81330E+02  9.16452E+02 -1.38010E+03  2.29918E+03 -9.52535E+02
  1.87319E+03  1.19115E+02  3.14471E+03  1.35252E+03  1.55645E+03  2.14023E+03 -5.80976E+02  2.46000E+03
 -2.01208E+03  2.37153E+02 -2.12427E+03 -6.82458E+01 -8.51256E+02 -1.99172E+03  5.76426E+02 -9.98357E+02
  1.95463E+03 -8.60250E+02  8.31258E+02  1.03285E+03  1.74123E+02  1.53012E+03  3.02359E+02  1.33146E+03
 -6.88082E+02  1.33612E+03 -6.52762E+02  2.15834E+02 -9.24111E+01  5.72935E+02 -9.06206E+02  5.56630E+02
 -9.44257E+02  1.26808E+03 -2.41578E+03  8.44477E+02 -2.25397E+03  2.85751E+02 -3.23870E+03 -1.30320E+03
 -1.41342E+03 -3.21064E+03  4.77110E+02 -3.17746E+03  1.75707E+03 -3.38936E+03  3.41334E+03 -1.54530E+03
  2.94549E+03  8.35242E+01  1.42816E+03  2.07906E+03 -3.98056E+02  1.85395E+03 -7.02008E+02  1.44736E+03
 -1.29652E+03  1.00508E+03 -8.75889E+02 -1.86447E+02 -6.76174E+02  2.72160E+02 -8.33200E+02  3.58946E+02
 -1.18353E+03  6.81851E+01 -9.76938E+02  1.57531E+02  1.73445E+02 -5.18733E+02 -4.36414E+02 -1.06675E+03
  1.52343E+03 -8.97188E+02  1.06058E+03 -3.41034E+01  1.49226E+03  1.22863E+03 -2.20314E+02  1.87372E+03
 -1.07503E+03  3.04885E+03 -2.11129E+03  1.54036E+03 -2.36943E+03 -2.02676E+02 -1.43868E+03 -1.96072E+03
 -1.05159E+03 -1.91476E+03  1.94341E+02 -1.47453E+03  8.02276E+02 -8.59867E+02  1.26231E+03  1.63403E+02
  1.08387E+03  7.60128E+02  7.81024E+01  4.34114E+02 -5.23098E+02  2.77935E+01 -2.05955E+00 -5.39821E+02
  4.72448E+02  1.88113E+01  4.27363E+02  4.79140E+02  3.35940E+02  4.19984E+02  5.66584E+02  6.75651E+02
 -6.38805E+02  1.08646E+03 -1.12894E+03 -1.57602E+01 -1.10648E+03 -7.45004E+02  7.89546E+01 -1.63468E+03
  9.59951E+02 -1.16448E+03  6.08692E+02  1.91316E+02  1.30456E+03 -3.45884E+02  4.30342E+02  8.77536E+02
  3.97211E+02  1.05731E+03 -3.27656E+02  8.33711E+02 -7.85179E+02  9.13328E+02 -3.08671E+02  3.20226E+02
 -2.94043E+02  8.23346E+01 -7.37495E+02  1.80733E+02 -6.58751E+02 -3.86011E+01 -7.99082E+02 -2.56082E+01
 -1.16225E+03  9.44643E+01 -5.68319E+02 -8.69433E+02  8.33117E+02 -1.67866E+03  9.85753E+02 -3.25097E+02
  1.04950E+03  7.29943E-01 -1.97523E+02  8.89857E+02 -3.02025E+02  7.44882E+02 -2.58405E+02  8.48007E+02
