 $NMID ID='MM_0lb_SNR800_16hz_g40_58.RAW', FMTDAT='(8E13.5)'
 TRAMP=1., VOLUME=1. $END
  3.09963E+05  3.38418E+02  3.37118E+05  2.50432E+05  8.44912E+04  3.37395E+05 -1.32384E+05  2.50435E+05
 -1.89787E+05  8.27046E+04 -1.11238E+05 -3.29759E+04  1.40913E+03 -5.05664E+04  5.40348E+04  2.39557E+02
  3.52975E+04  5.28617E+04 -1.67322E+04  7.52763E+04 -6.02771E+04  6.29419E+04 -8.32609E+04  3.16746E+04
 -8.01780E+04 -1.12125E+04 -5.63776E+04 -5.07194E+04 -1.48191E+04 -6.88177E+04  2.70919E+04 -4.50657E+04
  3.93192E+04  3.84751E+03  1.56289E+04  4.72809E+04 -3.40990E+04  4.62094E+04 -6.60696E+04 -5.04650E+02
 -5.26170E+04 -5.60983E+04 -6.51465E+03 -7.53980E+04  3.32139E+04 -5.33809E+04  4.67009E+04 -1.65754E+04
  4.19757E+04  1.11984E+04  3.08138E+04  2.50120E+04  1.59542E+04  2.85909E+04 -4.88064E+03  2.67832E+04
 -2.18247E+04  1.25030E+04 -1.87712E+04 -4.69171E+03  4.56114E+03 -7.45663E+03  2.14175E+04  1.16213E+04
  7.49690E+03  3.38708E+04 -3.10016E+04  3.43470E+04 -6.19265E+04  1.95164E+03 -5.58456E+04 -4.15850E+04
 -1.24315E+04 -6.17003E+04  3.85000E+04 -4.40444E+04  5.60744E+04 -2.14492E+03  3.24129E+04  3.11711E+04
 -6.29792E+03  3.41670E+04 -2.90187E+04  1.41447E+04 -2.84004E+04 -5.05957E+03 -1.51212E+04 -1.00845E+04
 -7.60852E+03 -1.18341E+04 -5.84660E+02 -1.70956E+04  6.74104E+03 -2.26825E+04  1.52369E+04 -1.36747E+04
  1.19397E+04  4.81294E+03 -7.20874E+03  1.30864E+04 -1.98664E+04 -3.03389E+03 -8.32988E+03 -3.13382E+04
  2.12826E+04 -4.13852E+04  4.58221E+04 -1.88430E+04  4.28263E+04  1.87121E+04  1.48713E+04  4.28634E+04
 -1.56294E+04  3.17467E+04 -2.39734E+04  1.39691E+03 -8.89291E+03 -2.68993E+04  2.06242E+04 -3.18073E+04
  3.90331E+04 -7.78611E+03  3.29443E+04  2.29163E+04  1.61545E+04  4.39679E+04 -7.68101E+03  4.66585E+04
 -2.96314E+04  3.10805E+04 -3.89554E+04  8.43137E+03 -3.96694E+04 -1.56040E+04 -2.19422E+04 -3.57010E+04
  7.03697E+03 -3.56405E+04  2.97926E+04 -1.32427E+04  2.75715E+04  1.06397E+04  3.34824E+03  1.82907E+04
 -1.32908E+04  7.80417E+03 -9.92241E+03 -7.60117E+03  5.68087E+03 -1.05275E+04  1.76129E+04  6.20152E+03
  1.24264E+04  2.17555E+04 -6.22659E+03  2.40440E+04 -2.19300E+04  9.71843E+03 -2.61861E+04 -5.92715E+03
 -1.78570E+04 -1.67654E+04 -6.42656E+03 -1.80976E+04  4.11295E+03 -1.64286E+04  1.37127E+04 -1.57594E+04
  2.28830E+04 -1.21912E+04  2.95995E+04  1.48107E+03  2.21929E+04  1.75558E+04  4.15118E+03  3.38902E+04
 -1.66849E+04  2.87810E+04 -2.67755E+04  9.68646E+03 -2.01463E+04 -1.04746E+04 -3.91000E+03 -1.41425E+04
  2.21540E+03 -3.97741E+03 -3.50167E+03  5.56304E+03 -1.40180E+04  5.32888E+03 -1.41896E+04 -5.79563E+03
 -9.11870E+03 -1.68159E+04  4.75036E+03 -2.08026E+04  1.29854E+04 -1.52433E+04  1.57424E+04 -1.26323E+03
  9.49654E+03  1.16480E+04 -8.54638E+02  1.71429E+04 -1.14141E+04  9.74691E+03 -1.67699E+04 -3.79983E+03
 -1.26795E+04 -1.52885E+04 -1.63069E+03 -2.06828E+04  9.18476E+03 -1.63556E+04  1.70551E+04 -7.82711E+03
  1.57773E+04  4.99079E+02  1.12345E+04  3.97156E+03  5.88350E+03  7.99293E+02  8.21160E+03 -1.62777E+03
  1.52367E+04  2.64822E+03  1.63292E+04  1.33737E+04  1.02958E+04  2.69499E+04 -2.95356E+03  2.92012E+04
 -1.72224E+04  2.28617E+04 -2.67955E+04  1.10129E+04 -2.81443E+04 -1.87102E+03 -2.35523E+04 -1.61660E+04
 -1.07125E+04 -2.27321E+04  7.64750E+03 -2.12377E+04  1.82564E+04 -1.15864E+04  1.65725E+04  4.26462E+03
  6.80925E+03  1.23097E+04 -8.05965E+03  1.13480E+04 -1.43117E+04  2.79040E+03 -1.14750E+04 -8.74752E+03
 -2.97637E+02 -1.32741E+04  6.90971E+03 -1.03925E+04  8.79874E+03 -1.60150E+03  1.62418E+03  5.63918E+03
 -6.06052E+03  1.65463E+03 -4.53431E+03 -4.88681E+03  3.32821E+02 -1.10105E+04  8.36301E+03 -1.13301E+04
  1.38085E+04 -5.87338E+03  1.41016E+04  2.92788E+03  1.24245E+04  1.08061E+04  5.77084E+03  1.63418E+04
 -2.27901E+03  1.84150E+04 -1.16467E+04  1.14260E+04 -1.30122E+04  3.11156E+03 -9.94701E+03 -2.65907E+03
 -4.52515E+03 -3.91295E+03 -7.75389E+02  1.54975E+03 -2.11560E+03  2.26182E+03 -4.11295E+03  3.88998E+03
 -9.01864E+03 -5.87168E+02 -9.48337E+03 -7.91455E+03 -3.75070E+03 -1.26856E+04  3.76416E+03 -9.55106E+03
  8.09069E+03 -4.02329E+03  5.57509E+03  2.34823E+03  5.08536E+02  3.24528E+03 -4.30075E+03 -6.69204E+01
 -4.17572E+03 -6.22437E+03 -9.10608E+02 -8.55354E+03  4.80610E+03 -8.96618E+03  1.14853E+04 -4.85145E+03
  1.35180E+04  8.24349E+02  1.02009E+04  7.57196E+03  1.87667E+03  1.02646E+04 -5.98487E+03  9.45326E+03
 -7.87218E+03  3.13441E+03 -4.38478E+03 -1.60492E+03  1.18930E+03 -2.38758E+03  5.03505E+03 -6.42239E+02
  4.72136E+03  3.83828E+03  1.31116E+03  7.06177E+03 -5.15808E+03  7.24309E+03 -8.91450E+03  2.05595E+03
 -5.74381E+03 -4.58784E+03  8.77815E+01 -7.61568E+03  4.39719E+03 -3.80304E+03  4.44390E+03  1.29999E+03
  9.43843E+02  4.41004E+03 -4.74606E+03  5.82245E+03 -6.30310E+03  3.03223E+03 -6.05409E+03 -1.71693E+03
 -3.63340E+03 -7.29803E+03  1.28243E+03 -8.89101E+03  7.53342E+03 -5.37446E+03  7.83248E+03  1.35003E+03
  5.47224E+03  6.23819E+03 -2.97631E+02  8.34172E+03 -6.04345E+03  4.96771E+03 -6.27912E+03 -3.60385E+02
 -6.36070E+03 -5.91904E+03 -1.50390E+03 -5.97957E+03  3.36365E+03 -5.49097E+03  3.71719E+03 -3.04763E+03
  3.20490E+03  4.30085E+02 -2.53012E+02  1.15325E+03  4.93635E+02 -7.85655E+02  5.87499E+02 -2.55170E+03
  5.21470E+03 -1.58028E+03  7.03806E+03  5.92395E+02  7.10769E+03  4.31767E+03  6.18006E+03  9.16402E+03
 -1.70598E+03  1.08621E+04 -9.82205E+03  7.94548E+03 -1.19922E+04  1.38112E+03 -9.74138E+03 -3.54095E+03
 -5.20683E+03 -8.10139E+03 -3.11464E+02 -6.18747E+03  2.64173E+03 -3.17181E+03  2.48812E+03 -2.55172E+03
  1.75781E+03 -1.78361E+03  2.15480E+03 -2.76193E+03  3.95876E+03 -1.54346E+03  4.11364E+03  3.82262E+02
  5.43641E+03  1.39416E+03  1.62562E+03  4.08082E+03 -1.76566E+03  3.90288E+03 -5.56937E+03  3.59476E+03
 -6.54199E+03 -1.05795E+03 -2.89073E+03 -4.32794E+03  2.03010E+02 -6.34369E+03  3.80087E+03 -7.05885E+03
  6.47802E+03 -3.85682E+03  8.28042E+03  5.51124E+02  5.95990E+03  5.57956E+03  1.43837E+03  7.25591E+03
 -2.84925E+03  7.13023E+03 -4.16623E+03  2.31683E+03 -2.89531E+03 -1.01954E+03 -7.56188E+02 -7.53335E+02
 -4.04827E+02  4.60625E+02 -8.32980E+02  2.08605E+03 -3.28252E+03  1.26066E+03 -5.17037E+03 -3.43969E+02
 -2.11931E+03 -4.83928E+03  5.08122E+02 -6.02286E+03  3.79642E+03 -5.57749E+03  5.34712E+03 -1.46027E+03
  5.85276E+03  2.99002E+03  2.41695E+03  4.71068E+03 -1.02311E+03  5.77590E+03 -3.96401E+03  3.57182E+03
 -5.19131E+03  4.81670E+02 -4.48364E+03 -3.32031E+03 -4.90221E+02 -4.38467E+03  2.33946E+03 -3.28467E+03
  3.34501E+03 -1.70825E+03  2.31653E+03  8.22602E+02  5.47415E+02  1.69775E+03  9.49886E+02  8.01964E+02
  1.81263E+03  5.46122E+02  1.50028E+03  1.24681E+03  1.51823E+03  2.75223E+03  2.04306E+03  2.50337E+03
 -1.42240E+03  3.89447E+03 -3.88417E+03  5.01218E+03 -4.81666E+03  1.39570E+03 -5.85177E+03 -1.02273E+03
 -2.32115E+03 -5.22097E+03  1.21005E+03 -5.96718E+03  2.78388E+03 -3.47842E+03  4.26427E+03 -1.26073E+03
  3.36819E+03  2.32069E+03  6.69012E+02  3.07236E+03 -1.32192E+03  1.85714E+03 -1.85127E+03 -1.76850E+02
 -1.22578E+03 -1.89734E+03  1.49775E+03 -2.08440E+03  1.97572E+03 -1.27860E+03  2.08472E+03  4.01131E+02
  1.10421E+03  8.50431E+02  1.12711E+03  1.21312E+02 -4.79093E+02  8.81199E+02  1.81518E+03 -4.50814E+02
  3.19056E+02 -2.70035E+02  2.40267E+03  8.60895E+02  5.50756E+02  2.85781E+03 -4.96051E+02  3.97318E+03
 -2.41248E+03  1.71518E+03 -3.22612E+03  4.26453E+02 -2.95192E+03 -1.01087E+03 -6.32524E+02 -1.69834E+03
  4.71275E+02 -1.90875E+03  1.19234E+03 -8.18581E+02  8.81546E+02  1.22979E+03 -7.54697E+02  1.66963E+03
 -2.15868E+03  1.18106E+03 -1.76815E+03 -1.39040E+03 -9.40383E+02 -3.17932E+03  2.35972E+02 -2.75367E+03
  9.87637E+02 -9.45864E+02  1.72375E+03  2.51165E+02  1.96612E+03  1.09371E+02  4.26394E+02  1.20472E+03
 -5.62815E+02  1.99021E+02 -1.25949E+03 -6.54824E+02  4.72991E+02 -1.88886E+03  2.60576E+03 -1.56339E+03
  2.33709E+03 -3.76265E+01  3.63786E+03  1.31962E+03  1.16084E+03  2.77495E+03 -6.54787E+02  2.93244E+03
 -2.34914E+03  7.63722E+02 -1.96343E+03 -1.35703E+02 -1.30847E+03 -1.85072E+03  3.38890E+02 -1.57760E+03
  2.05635E+03 -7.06607E+02  1.31409E+03  7.51645E+02  1.14900E+02  1.81307E+03  1.01414E+02  1.52203E+03
 -7.12891E+02  1.38363E+03 -5.76982E+02  5.46545E+02 -9.19282E+01  3.80374E+02 -7.51330E+02  8.20304E+02
 -1.06449E+03  1.56426E+03 -2.58597E+03  1.03347E+03 -2.64769E+03  2.80023E+02 -3.86453E+03 -1.94738E+03
 -1.41747E+03 -3.71202E+03  7.72992E+02 -4.47191E+03  2.16415E+03 -3.75092E+03  4.27242E+03 -1.24071E+03
  3.89202E+03  2.28728E+02  2.02255E+03  2.49874E+03 -1.86903E+02  2.69662E+03 -1.24226E+03  1.80331E+03
 -1.55275E+03  1.25394E+03 -1.15366E+03 -2.20290E+02 -4.17132E+02  2.72567E+00 -6.81685E+02 -1.63427E+01
 -1.31553E+03 -1.77332E+02 -9.37179E+02  1.50040E+02  1.93164E+02 -9.07540E+02 -2.42270E+02 -1.08342E+03
  1.64761E+03 -1.23364E+03  1.10728E+03  8.69820E+01  1.81295E+03  1.74999E+03 -1.28659E+02  2.23942E+03
 -1.06672E+03  3.48829E+03 -2.62415E+03  1.75651E+03 -2.99722E+03  1.26264E+02 -2.38856E+03 -2.34568E+03
 -1.33636E+03 -2.64684E+03  3.72942E+02 -2.23413E+03  1.14314E+03 -7.61614E+02  1.45472E+03  2.36395E+02
  1.09170E+03  3.99618E+02  5.37134E+01  5.52765E+02 -6.55238E+02  8.40260E+01  9.01664E+01 -7.95722E+02
  9.83770E+02  3.88108E+02  6.25431E+02  5.15414E+02  4.63578E+02  9.98053E+02  6.25119E+02  8.25517E+02
 -1.30260E+03  9.26739E+02 -1.38090E+03  2.28670E+02 -1.44807E+03 -9.01363E+02  2.23611E+02 -2.15778E+03
  9.95717E+02 -1.60398E+03  1.56677E+03 -2.19080E+02  1.82078E+03 -2.48996E+02  9.66919E+02  1.63273E+03
  2.87898E+02  1.32605E+03 -4.56628E+02  1.09896E+03 -1.13755E+03  9.16464E+02 -8.34398E+02  1.12328E+02
 -4.54277E+02 -1.32838E+02 -5.12524E+02  2.69526E+02 -1.11474E+03  3.49880E+02 -1.22174E+03 -5.12943E+02
 -1.64005E+03  2.49022E+01 -5.96360E+02 -1.73608E+03  9.71745E+02 -1.86636E+03  1.42411E+03 -4.50238E+02
  1.41582E+03  1.04891E+02 -5.26943E+01  6.80492E+02 -5.90174E+01  1.44234E+03 -1.01989E+03  1.05768E+03
