 $NMID ID='MM_0lb_SNR800_20hz_g40_1.RAW', FMTDAT='(8E13.5)'
 TRAMP=1., VOLUME=1. $END
  3.09870E+05  1.80603E+02  3.36921E+05  2.50375E+05  8.43055E+04  3.37058E+05 -1.32502E+05  2.49822E+05
 -1.89403E+05  8.21454E+04 -1.10567E+05 -3.29284E+04  1.58825E+03 -5.01258E+04  5.39391E+04  4.74241E+02
  3.47263E+04  5.28551E+04 -1.70700E+04  7.45442E+04 -5.98562E+04  6.22177E+04 -8.24697E+04  3.12041E+04
 -7.88245E+04 -1.07497E+04 -5.57607E+04 -4.98792E+04 -1.49289E+04 -6.76301E+04  2.63441E+04 -4.44408E+04
  3.84800E+04  3.89064E+03  1.52884E+04  4.68120E+04 -3.38764E+04  4.56785E+04 -6.48337E+04 -8.89466E+02
 -5.12434E+04 -5.53940E+04 -5.94832E+03 -7.37975E+04  3.25502E+04 -5.20309E+04  4.51287E+04 -1.54781E+04
  4.06615E+04  1.11416E+04  3.02836E+04  2.37626E+04  1.56955E+04  2.74316E+04 -4.36958E+03  2.63013E+04
 -2.13024E+04  1.30521E+04 -1.94948E+04 -3.93065E+03  3.65811E+03 -7.58013E+03  2.07571E+04  1.02913E+04
  7.41970E+03  3.20259E+04 -2.92680E+04  3.32873E+04 -5.97167E+04  2.32230E+03 -5.45956E+04 -4.01393E+04
 -1.20484E+04 -5.94278E+04  3.72663E+04 -4.23140E+04  5.38733E+04 -1.87635E+03  3.06295E+04  2.97004E+04
 -6.72116E+03  3.15208E+04 -2.73918E+04  1.18156E+04 -2.61197E+04 -5.57404E+03 -1.31539E+04 -9.78425E+03
 -6.67534E+03 -1.05141E+04 -1.38904E+03 -1.57145E+04  6.57238E+03 -2.21284E+04  1.48596E+04 -1.40943E+04
  1.27276E+04  3.59416E+03 -5.31346E+03  1.30211E+04 -1.84102E+04 -1.39912E+03 -7.85327E+03 -2.89510E+04
  1.97934E+04 -3.90818E+04  4.29643E+04 -1.80686E+04  4.04360E+04  1.79233E+04  1.35859E+04  4.03068E+04
 -1.53534E+04  2.99642E+04 -2.24424E+04  7.39418E+02 -7.63311E+03 -2.55423E+04  2.02478E+04 -3.00269E+04
  3.65496E+04 -6.24695E+03  2.95287E+04  2.20836E+04  1.40438E+04  4.06107E+04 -7.88876E+03  4.28551E+04
 -2.67126E+04  2.78189E+04 -3.50970E+04  7.75602E+03 -3.63444E+04 -1.43361E+04 -2.02136E+04 -3.28239E+04
  6.88606E+03 -3.25233E+04  2.80335E+04 -1.19571E+04  2.57716E+04  1.05090E+04  2.26600E+03  1.73205E+04
 -1.27820E+04  6.77051E+03 -9.04863E+03 -7.74310E+03  6.01499E+03 -9.92625E+03  1.68885E+04  6.93272E+03
  1.17553E+04  2.14717E+04 -7.03167E+03  2.28951E+04 -2.11921E+04  8.15990E+03 -2.38179E+04 -7.00051E+03
 -1.52171E+04 -1.61475E+04 -4.50207E+03 -1.48571E+04  3.47202E+03 -1.23427E+04  1.08977E+04 -1.25035E+04
  1.90621E+04 -1.11931E+04  2.63616E+04  5.56203E+02  2.00702E+04  1.46718E+04  4.01699E+03  3.06673E+04
 -1.51865E+04  2.62216E+04 -2.49654E+04  9.08136E+03 -1.87286E+04 -1.03297E+04 -3.57638E+03 -1.40604E+04
  3.12149E+03 -4.56912E+03 -1.76469E+03  4.86878E+03 -1.14091E+04  5.41023E+03 -1.22085E+04 -3.97557E+03
 -8.03556E+03 -1.38209E+04  4.24781E+03 -1.78976E+04  1.14080E+04 -1.32353E+04  1.27118E+04 -1.39545E+03
  7.58344E+03  9.78649E+03 -7.35055E+02  1.42462E+04 -9.20250E+03  7.76001E+03 -1.38969E+04 -3.08408E+03
 -1.04750E+04 -1.27601E+04 -1.38688E+03 -1.71885E+04  7.78922E+03 -1.37557E+04  1.48709E+04 -6.60148E+03
  1.30673E+04  7.34679E+02  9.49403E+03  3.67836E+03  4.64114E+03  4.89930E+02  6.53020E+03 -9.80480E+02
  1.21234E+04  2.83684E+03  1.29216E+04  1.19771E+04  7.72341E+03  2.22642E+04 -3.11007E+03  2.32682E+04
 -1.39880E+04  1.75345E+04 -2.14296E+04  8.13072E+03 -2.19054E+04 -1.74706E+03 -1.91201E+04 -1.21190E+04
 -9.30631E+03 -1.76653E+04  5.66782E+03 -1.65961E+04  1.45119E+04 -1.01616E+04  1.40239E+04  3.11126E+03
  6.25728E+03  9.83819E+03 -6.06646E+03  9.64068E+03 -1.23208E+04  2.79645E+03 -9.34885E+03 -7.15135E+03
 -1.63249E+02 -1.16198E+04  5.67893E+03 -8.79795E+03  6.63663E+03 -1.32384E+03  1.15793E+03  4.33430E+03
 -4.98220E+03  7.99758E+02 -3.00886E+03 -4.23655E+03  9.92177E+02 -9.00202E+03  6.98431E+03 -8.48983E+03
  1.04126E+04 -3.78530E+03  9.62418E+03  2.81253E+03  8.31910E+03  8.19270E+03  4.01870E+03  1.16306E+04
 -1.02032E+03  1.34571E+04 -7.77960E+03  8.72901E+03 -9.50082E+03  2.89479E+03 -7.35911E+03 -1.39326E+03
 -4.21425E+03 -2.45962E+03 -1.14540E+03  1.96917E+03 -1.79484E+03  2.03810E+03 -2.99902E+03  3.26411E+03
 -6.91392E+03 -4.28455E+02 -7.98052E+03 -6.42106E+03 -3.27749E+03 -1.03819E+04  3.26284E+03 -7.38892E+03
  6.41033E+03 -3.14597E+03  4.70207E+03  1.92896E+03  5.10062E+02  2.81006E+03 -2.74865E+03 -1.08471E+02
 -2.87359E+03 -4.62066E+03 -5.60172E+02 -6.12324E+03  3.26287E+03 -6.59287E+03  8.48701E+03 -3.10371E+03
  1.00532E+04  5.89684E+02  7.40961E+03  5.06972E+03  1.69069E+03  7.39681E+03 -4.57783E+03  7.11911E+03
 -5.99688E+03  2.55320E+03 -3.14427E+03 -8.06213E+02  1.22091E+03 -1.63034E+03  4.38344E+03 -1.03119E+03
  3.77121E+03  3.02295E+03  8.86860E+02  5.62561E+03 -3.94261E+03  5.64146E+03 -6.82148E+03  1.49885E+03
 -4.04658E+03 -3.19347E+03  2.96096E+02 -5.70365E+03  3.03723E+03 -2.89511E+03  2.64283E+03  5.71280E+02
  4.42628E+02  2.64783E+03 -3.84579E+03  3.90804E+03 -3.75431E+03  2.10644E+03 -3.03520E+03 -6.84191E+02
 -2.24113E+03 -4.50266E+03  7.63339E+02 -5.58338E+03  4.57703E+03 -3.77700E+03  5.21180E+03  6.73934E+02
  3.74416E+03  4.37301E+03  5.26712E+02  6.32781E+03 -4.18943E+03  3.62147E+03 -4.38224E+03 -3.83481E+02
 -5.20547E+03 -4.48563E+03 -1.34614E+03 -4.08661E+03  2.02093E+03 -4.02768E+03  2.37125E+03 -2.55252E+03
  2.61257E+03  1.31786E+02  2.96540E+02  1.14190E+03  6.12880E+02  4.20437E+02  2.24496E+02 -1.21815E+03
  2.97131E+03 -3.81012E+02  4.33130E+03  5.48465E+02  4.37706E+03  2.09490E+03  4.92377E+03  5.52107E+03
 -7.04896E+02  6.89293E+03 -6.44611E+03  5.49106E+03 -8.24153E+03  8.58572E+02 -6.30199E+03 -1.68163E+03
 -3.59098E+03 -5.38252E+03 -5.17431E+02 -4.08395E+03  1.88607E+03 -1.59320E+03  1.32278E+03 -1.97958E+03
  1.01992E+03 -1.37425E+03  2.03999E+03 -2.16203E+03  3.28452E+03 -8.84330E+02  3.17949E+03  6.34552E+02
  3.78523E+03  1.24102E+03  9.14899E+02  2.71575E+03 -1.44311E+03  1.77805E+03 -3.68543E+03  2.13697E+03
 -4.22930E+03 -1.07967E+03 -1.23947E+03 -2.55213E+03  6.63956E+02 -3.94657E+03  2.75251E+03 -3.98933E+03
  3.79312E+03 -2.91300E+03  5.49131E+03  5.09198E+01  3.90771E+03  3.14978E+03  8.84505E+02  4.99046E+03
 -1.45118E+03  5.03593E+03 -2.76320E+03  1.74782E+03 -1.52083E+03 -1.03549E+03 -3.56631E+02 -5.93372E+02
 -5.12357E+02  6.59499E+02 -9.00482E+02  1.83452E+03 -2.28729E+03  9.62008E+02 -3.19248E+03 -2.68740E+02
 -9.06818E+02 -3.56965E+03  8.94877E+02 -3.64017E+03  2.16914E+03 -3.48311E+03  2.26911E+03 -9.45247E+02
  3.16800E+03  1.86698E+03  1.57349E+03  2.71558E+03 -6.94970E+02  3.71399E+03 -1.78790E+03  2.17719E+03
 -2.99708E+03  6.55791E+02 -2.78728E+03 -1.89466E+03 -6.66881E+01 -2.25780E+03  1.15727E+03 -1.95491E+03
  2.04664E+03 -1.36643E+03  1.23888E+03  3.57884E+02  2.14370E+02  1.51635E+03  6.05662E+02  5.25687E+02
  1.69074E+03  6.11898E+02  1.07426E+03  1.14708E+03  6.37639E+02  1.93732E+03  1.29817E+03  1.31956E+03
 -1.18985E+03  2.03399E+03 -1.66710E+03  3.49010E+03 -2.05739E+03  1.24770E+03 -3.04070E+03 -3.76757E+02
 -1.29157E+03 -2.61332E+03  6.33776E+02 -3.83244E+03  1.36748E+03 -1.83462E+03  2.54994E+03 -8.05440E+02
  1.85435E+03  1.59560E+03  1.96289E+02  1.81369E+03 -2.94016E+02  9.37844E+02 -7.22408E+02  9.55559E+01
 -4.38392E+02 -1.10691E+03  9.05293E+02 -9.82322E+02  8.18212E+02 -5.24439E+02  7.13984E+02  3.01343E+02
  4.66927E+02  3.01888E+02  7.07182E+02 -4.46094E+02 -1.93388E+02  6.66380E+02  1.65296E+03 -5.37748E+01
 -2.02233E+02 -2.64600E+02  1.46378E+03  3.38537E+02  6.34715E+01  1.89147E+03 -3.37105E+02  2.40042E+03
 -1.13751E+03  4.16486E+02 -1.60336E+03 -4.01265E+00 -1.58221E+03 -5.82393E+02 -7.65141E+01 -5.63035E+02
  4.57745E+02 -7.64820E+02  5.18726E+02 -4.66730E+02  6.52804E+02  1.12782E+03 -7.30085E+02  9.35790E+02
 -1.23939E+03  8.62171E+02 -7.56926E+02 -1.18957E+03 -3.17820E+02 -1.67088E+03  2.02272E+02 -9.92315E+02
  3.86551E+02 -3.98703E+02  6.28030E+02  4.18406E+02  1.00487E+03 -1.50032E+02  2.49400E+02  9.86976E+02
  1.37150E+02  3.77517E+02 -8.22852E+02  7.42330E+01  7.46685E+02 -4.27456E+02  1.34357E+03 -6.64341E+02
  7.49674E+02  2.11058E+02  2.61432E+03  1.57795E+02  7.79149E+02  1.14560E+03 -4.60245E+02  1.30998E+03
 -1.11163E+03 -5.50535E+01 -1.02319E+03 -7.96055E+00 -7.39174E+02 -8.03440E+02  4.11874E+02 -2.90652E+02
  1.21816E+03 -4.96806E+02  2.76702E+02  7.19697E+02  6.15559E+01  9.14318E+02  3.96210E+02  1.01771E+03
 -1.59895E+02  1.03681E+03 -3.79587E+02  4.08741E+01  1.56524E+02  5.31205E+02 -7.31914E+02  6.43670E+02
 -6.44778E+02  8.60473E+02 -1.44430E+03  3.94159E+02 -1.26671E+03  1.67759E+02 -1.84378E+03 -7.06172E+02
 -9.33385E+02 -1.79642E+03  5.04096E+02 -2.28946E+03  4.75049E+02 -1.78809E+03  2.19566E+03 -1.06307E+03
  1.58688E+03 -2.63033E+02  7.52703E+02  1.12783E+03 -5.24419E+02  8.16803E+02 -2.86018E+02  1.02025E+03
 -8.20576E+02  5.90230E+02 -1.15228E+02 -1.45943E+02 -4.47706E+02  4.25961E+02 -7.51692E+02  1.96793E+02
 -1.05955E+03 -1.05601E+02 -1.04462E+03  2.23343E+02  2.02631E+02 -4.97602E+02 -6.30475E+02 -7.12459E+02
  1.01245E+03 -6.71047E+02  8.65420E+01  3.38655E+02  8.63039E+02  6.33243E+02 -3.76341E+02  9.24249E+02
 -7.52318E+02  1.99741E+03 -1.26199E+03  1.01356E+03 -1.25494E+03 -1.71309E+02 -9.06266E+02 -1.13326E+03
 -8.57595E+02 -1.01705E+03  6.00074E+01 -1.13034E+03  2.07909E+02 -3.83219E+01  2.36864E+02  9.08575E+01
  6.87515E+02  2.26821E+02  3.42171E+02  5.47721E+01 -3.43940E+02 -1.19175E+02 -2.43275E+02  3.02248E+02
  5.19189E+02  1.94234E+02  2.89371E+02  6.30564E+02  7.26143E+01  2.63122E+02  5.19467E+02 -6.01589E+01
 -1.01125E+02  4.29599E+02 -4.74446E+02  1.11861E+02 -5.17135E+02 -2.96161E+02 -6.13185E+01 -9.33621E+02
  3.08631E+02 -3.87181E+02  2.55264E+02  8.60800E+01  5.67248E+02 -6.82206E+02  3.28071E+02  4.03753E+02
  5.02657E+02  2.08544E+02 -2.41560E+02  2.97237E+02 -5.42355E+02  5.00355E+02 -5.19111E+02  2.34419E+01
  6.86582E+01  6.46299E+01 -3.38223E+02  1.69040E+02 -5.32237E+02  3.65011E+02 -7.57891E+02 -4.28379E+02
 -9.13313E+02  3.64415E+02 -1.83661E+02 -7.23495E+02  5.75990E+02 -1.27942E+03  6.84169E+02 -2.45511E+02
  5.40745E+02 -1.03704E+02 -6.23211E+02  3.21264E+02 -1.95998E+02  5.56909E+02 -6.62870E+01  6.11795E+02
