 $NMID ID='MM_0lb_SNR800_17hz_g55_66.RAW', FMTDAT='(8E13.5)'
 TRAMP=1., VOLUME=1. $END
  3.09709E+05  3.83163E+02  3.37562E+05  2.50521E+05  8.44305E+04  3.37821E+05 -1.32509E+05  2.50680E+05
 -1.90004E+05  8.30671E+04 -1.11705E+05 -3.23405E+04  9.55100E+02 -5.03108E+04  5.37742E+04 -5.13048E+01
  3.52599E+04  5.29925E+04 -1.70950E+04  7.51294E+04 -6.06716E+04  6.31946E+04 -8.36774E+04  3.19428E+04
 -8.05255E+04 -1.12459E+04 -5.69443E+04 -5.09002E+04 -1.46617E+04 -6.90396E+04  2.71193E+04 -4.52698E+04
  3.95406E+04  3.78312E+03  1.60493E+04  4.78491E+04 -3.42123E+04  4.67952E+04 -6.61641E+04 -3.23875E+02
 -5.32151E+04 -5.64552E+04 -6.93456E+03 -7.63504E+04  3.33540E+04 -5.43996E+04  4.74216E+04 -1.68262E+04
  4.26438E+04  1.11670E+04  3.13800E+04  2.50235E+04  1.60964E+04  2.89944E+04 -5.16067E+03  2.70865E+04
 -2.20439E+04  1.25916E+04 -1.89764E+04 -4.98003E+03  4.96109E+03 -7.34817E+03  2.20921E+04  1.19394E+04
  7.40320E+03  3.48839E+04 -3.15879E+04  3.51199E+04 -6.25462E+04  2.36826E+03 -5.62842E+04 -4.23292E+04
 -1.23414E+04 -6.18727E+04  3.90963E+04 -4.45928E+04  5.71901E+04 -2.22661E+03  3.36839E+04  3.18766E+04
 -5.99410E+03  3.51833E+04 -2.93187E+04  1.50367E+04 -2.94270E+04 -4.79630E+03 -1.58880E+04 -1.06809E+04
 -7.76548E+03 -1.26573E+04 -7.55362E+02 -1.73573E+04  7.35983E+03 -2.31846E+04  1.52611E+04 -1.38488E+04
  1.17065E+04  5.13030E+03 -7.70552E+03  1.28477E+04 -2.02301E+04 -3.42057E+03 -8.30108E+03 -3.24405E+04
  2.20627E+04 -4.26015E+04  4.68928E+04 -1.94571E+04  4.37759E+04  1.89451E+04  1.51650E+04  4.31986E+04
 -1.57766E+04  3.23825E+04 -2.44472E+04  1.73220E+03 -9.12693E+03 -2.71532E+04  2.07897E+04 -3.29562E+04
  3.97545E+04 -8.63512E+03  3.40589E+04  2.33975E+04  1.67415E+04  4.49701E+04 -8.10640E+03  4.83106E+04
 -3.05092E+04  3.22978E+04 -3.99789E+04  8.97745E+03 -4.06619E+04 -1.61073E+04 -2.26768E+04 -3.64389E+04
  7.25501E+03 -3.62033E+04  3.05431E+04 -1.39179E+04  2.83444E+04  1.06727E+04  3.40832E+03  1.83901E+04
 -1.33038E+04  7.64881E+03 -1.02968E+04 -7.71218E+03  5.86470E+03 -1.06658E+04  1.78344E+04  6.12086E+03
  1.29582E+04  2.16700E+04 -6.14313E+03  2.45320E+04 -2.21646E+04  1.06839E+04 -2.66701E+04 -5.29602E+03
 -1.87152E+04 -1.67981E+04 -7.09169E+03 -1.86710E+04  3.66776E+03 -1.73098E+04  1.41788E+04 -1.64641E+04
  2.42128E+04 -1.23220E+04  3.05904E+04  2.01715E+03  2.26964E+04  1.80805E+04  3.88585E+03  3.46215E+04
 -1.66923E+04  2.93784E+04 -2.71985E+04  1.02852E+04 -2.02716E+04 -1.02943E+04 -4.13782E+03 -1.36349E+04
  2.18270E+03 -3.55894E+03 -3.86371E+03  6.08304E+03 -1.47160E+04  5.40171E+03 -1.47673E+04 -5.61504E+03
 -9.32371E+03 -1.72426E+04  4.92869E+03 -2.15247E+04  1.40050E+04 -1.54985E+04  1.66362E+04 -1.48368E+03
  1.02346E+04  1.20347E+04 -1.20759E+03  1.75366E+04 -1.16129E+04  9.81488E+03 -1.72685E+04 -3.62160E+03
 -1.27536E+04 -1.58343E+04 -1.63325E+03 -2.10329E+04  9.42622E+03 -1.73130E+04  1.76569E+04 -8.62773E+03
  1.61070E+04  3.56372E+02  1.14261E+04  4.32756E+03  6.06948E+03  8.28613E+02  8.46079E+03 -1.51620E+03
  1.55480E+04  2.77860E+03  1.69379E+04  1.36931E+04  1.09599E+04  2.75647E+04 -2.85915E+03  3.06241E+04
 -1.80228E+04  2.41076E+04 -2.81922E+04  1.14696E+04 -2.90105E+04 -2.13686E+03 -2.46197E+04 -1.67933E+04
 -1.10415E+04 -2.42672E+04  8.08096E+03 -2.18499E+04  1.89892E+04 -1.16466E+04  1.71988E+04  4.35120E+03
  6.89774E+03  1.24551E+04 -7.98714E+03  1.15855E+04 -1.48821E+04  2.64349E+03 -1.14206E+04 -8.81013E+03
 -9.94915E+01 -1.36304E+04  6.78755E+03 -1.08352E+04  9.12642E+03 -1.43485E+03  1.99844E+03  5.56074E+03
 -6.28001E+03  2.09353E+03 -4.85710E+03 -5.07596E+03 -2.86746E+01 -1.18116E+04  8.48152E+03 -1.19809E+04
  1.42658E+04 -6.05514E+03  1.46544E+04  2.80033E+03  1.27433E+04  1.10690E+04  6.13371E+03  1.68113E+04
 -2.09899E+03  1.87382E+04 -1.19262E+04  1.17605E+04 -1.32671E+04  3.00210E+03 -9.79321E+03 -2.77215E+03
 -4.99001E+03 -4.40333E+03 -8.89942E+02  1.28965E+03 -1.84747E+03  2.34272E+03 -4.15678E+03  4.08403E+03
 -9.16403E+03 -7.20438E+02 -9.93194E+03 -8.25692E+03 -4.29964E+03 -1.30986E+04  3.97924E+03 -9.96406E+03
  8.22461E+03 -4.42151E+03  5.96108E+03  2.75615E+03  5.93746E+02  3.66717E+03 -4.05065E+03 -5.90421E+01
 -4.29895E+03 -6.19183E+03 -1.02919E+03 -8.66861E+03  4.94082E+03 -9.55009E+03  1.15286E+04 -4.87929E+03
  1.38694E+04  1.03277E+03  9.98990E+03  7.29787E+03  2.25163E+03  1.02554E+04 -5.96825E+03  9.31082E+03
 -7.76955E+03  3.10351E+03 -4.16442E+03 -1.80365E+03  1.38925E+03 -2.17389E+03  5.40756E+03 -1.04341E+03
  4.56829E+03  4.13371E+03  1.04319E+03  7.68043E+03 -5.35335E+03  7.41150E+03 -9.11327E+03  2.06909E+03
 -5.86756E+03 -4.45464E+03  4.03521E+02 -7.75773E+03  4.71154E+03 -3.77916E+03  4.41960E+03  8.92735E+02
  7.92812E+02  4.34026E+03 -4.86706E+03  5.65655E+03 -6.13134E+03  2.97104E+03 -6.22730E+03 -1.87053E+03
 -3.75957E+03 -7.70243E+03  1.59211E+03 -8.62730E+03  7.29847E+03 -5.61857E+03  7.99132E+03  1.48407E+03
  5.06252E+03  6.56311E+03  6.30708E+01  8.41494E+03 -5.95941E+03  4.79341E+03 -6.41296E+03 -5.13598E+02
 -6.28992E+03 -5.84527E+03 -1.68038E+03 -5.86337E+03  3.00575E+03 -5.39799E+03  3.66408E+03 -3.11029E+03
  3.38722E+03  5.70602E+02 -1.21944E+02  1.56765E+03  3.73492E+02 -6.86019E+02  3.94897E+02 -2.56553E+03
  4.86157E+03 -1.23860E+03  6.83312E+03  1.17706E+03  7.18809E+03  4.13737E+03  5.81216E+03  8.96846E+03
 -2.02370E+03  1.07749E+04 -9.23080E+03  8.05159E+03 -1.22691E+04  1.54144E+03 -9.52637E+03 -3.46622E+03
 -5.12612E+03 -7.64822E+03 -6.19210E+02 -6.62961E+03  2.52415E+03 -2.93351E+03  2.37466E+03 -2.78910E+03
  1.70154E+03 -1.62519E+03  2.45313E+03 -2.59687E+03  3.90365E+03 -1.57600E+03  4.16610E+03  2.23428E+02
  5.22601E+03  1.38604E+03  1.65249E+03  4.29819E+03 -1.66198E+03  3.73266E+03 -4.97463E+03  3.53150E+03
 -6.28657E+03 -1.11548E+03 -2.81993E+03 -4.28516E+03  1.32908E+02 -6.29751E+03  3.66592E+03 -6.89784E+03
  6.58167E+03 -3.93840E+03  8.53659E+03  5.69674E+02  5.83979E+03  5.38304E+03  9.97739E+02  7.35304E+03
 -2.57571E+03  7.08801E+03 -3.78483E+03  2.18762E+03 -2.35079E+03 -1.32909E+03 -7.01772E+02 -6.64504E+02
 -4.21261E+02  5.43239E+02 -1.12651E+03  1.97028E+03 -2.90043E+03  1.00310E+03 -4.92251E+03 -7.15872E+02
 -2.43984E+03 -4.72813E+03  8.11734E+02 -5.81079E+03  3.31558E+03 -5.36460E+03  5.13906E+03 -1.33815E+03
  5.17157E+03  2.70430E+03  2.32555E+03  4.49767E+03 -1.28406E+03  5.34677E+03 -3.39388E+03  3.43853E+03
 -4.72663E+03  4.98672E+02 -4.37150E+03 -2.95085E+03 -3.62399E+02 -4.42741E+03  2.31653E+03 -3.33027E+03
  3.59166E+03 -1.48202E+03  2.31792E+03  4.83941E+02  8.09844E+02  1.86898E+03  7.30868E+02  6.80356E+02
  1.79253E+03  3.15217E+02  1.21296E+03  1.18158E+03  1.31842E+03  2.57556E+03  1.62564E+03  2.37242E+03
 -1.45499E+03  3.87850E+03 -3.24103E+03  4.77365E+03 -4.25818E+03  1.61155E+03 -5.33024E+03 -8.66241E+02
 -2.14663E+03 -4.94673E+03  9.53448E+02 -6.03213E+03  2.55201E+03 -3.30013E+03  3.90563E+03 -1.11995E+03
  3.28002E+03  1.88119E+03  6.55954E+02  2.86940E+03 -7.64176E+02  1.98621E+03 -1.44039E+03 -2.02617E+02
 -9.63266E+02 -2.22202E+03  1.74533E+03 -1.92309E+03  1.45747E+03 -1.29556E+03  1.82413E+03  2.44947E+02
  1.19771E+03  5.99944E+02  9.82662E+02 -1.80909E+02 -4.76496E+02  7.64533E+02  1.93937E+03 -2.99666E+02
  5.00965E+02 -2.15425E+02  2.20610E+03  6.52932E+02  7.05154E+02  2.66891E+03 -5.48936E+02  3.52062E+03
 -2.19056E+03  1.36670E+03 -2.83868E+03  3.07826E+02 -2.56930E+03 -8.28546E+02 -4.32893E+02 -1.66889E+03
  2.09698E+02 -1.61735E+03  1.07510E+03 -8.24450E+02  1.01667E+03  1.42215E+03 -6.35797E+02  1.45227E+03
 -2.01069E+03  1.16963E+03 -1.70620E+03 -1.46729E+03 -1.18492E+03 -2.72353E+03  5.06762E+02 -2.13430E+03
  8.28343E+02 -7.29433E+02  1.50471E+03  2.42937E+02  1.71978E+03  2.30853E+02  1.07703E+02  1.21039E+03
 -8.69630E+02  3.19395E+02 -1.18420E+03 -4.90006E+02  6.71445E+02 -1.22024E+03  2.49577E+03 -1.11102E+03
  1.74952E+03  4.94944E+02  3.34401E+03  1.22026E+03  1.49250E+03  1.80702E+03 -5.57126E+02  2.33690E+03
 -1.91978E+03  5.24302E+02 -1.90387E+03 -4.08157E+02 -1.16325E+03 -1.69484E+03  2.02745E+02 -1.08257E+03
  1.98340E+03 -1.03719E+03  9.09967E+02  1.01857E+03  4.38953E+02  1.78747E+03  1.64523E+02  1.44186E+03
 -3.05755E+02  1.35276E+03 -4.20739E+02  5.90742E+02 -3.75510E+02  4.29712E+02 -6.71895E+02  6.61540E+02
 -6.87234E+02  1.27844E+03 -2.23199E+03  7.81774E+02 -2.17876E+03  2.96403E+02 -2.80365E+03 -1.27045E+03
 -1.22766E+03 -3.07030E+03  6.38009E+02 -3.74694E+03  1.62049E+03 -3.22356E+03  3.53207E+03 -1.38032E+03
  3.15516E+03  1.84538E+02  1.54510E+03  1.92543E+03 -5.69326E+02  1.79959E+03 -7.11347E+02  1.98988E+03
 -1.14265E+03  9.11560E+02 -1.03657E+03 -2.89595E+02 -4.41643E+02  1.98456E+02 -8.06360E+02 -2.62483E+02
 -1.11229E+03 -8.84443E+01 -8.87076E+02 -3.16143E+01  2.06282E+02 -5.12094E+02 -3.27182E+01 -9.99038E+02
  1.28036E+03 -7.19889E+02  6.48280E+02  8.58485E+01  1.36431E+03  1.35757E+03 -4.21719E+02  1.97958E+03
 -1.14979E+03  2.97552E+03 -2.27651E+03  1.57450E+03 -2.26930E+03 -3.96153E+01 -1.76098E+03 -1.65796E+03
 -1.32527E+03 -1.72155E+03  3.07507E+02 -1.60242E+03  1.14974E+03 -9.15108E+02  7.03013E+02 -9.02975E+01
  8.57545E+02  4.31521E+02 -9.39550E+00  4.49492E+02 -5.01555E+02 -1.04702E+02  1.01829E+02 -1.57582E+02
  4.54168E+02  1.52920E+02  5.86233E+02  3.71836E+02  3.95011E+01  9.08819E+02  5.20530E+02  6.31649E+02
 -1.12580E+03  5.68608E+02 -7.31031E+02  6.74345E+01 -1.07457E+03 -6.61285E+02  1.36364E+01 -1.68531E+03
  5.47110E+02 -9.27817E+02  8.45110E+02  1.73658E+02  1.54887E+03 -7.33300E+02  5.31898E+02  1.02298E+03
  4.23398E+02  8.14049E+02 -2.31211E+02  7.15488E+02 -9.70541E+02  8.10339E+02 -5.66757E+02  3.29347E+02
  3.17811E+01 -2.35782E+02 -8.54319E+02  9.68653E+01 -3.57965E+02  2.15429E+02 -9.46018E+02 -2.72754E+02
 -1.35042E+03  1.56192E+02 -4.00286E+02 -1.17300E+03  8.99408E+02 -1.81442E+03  7.75868E+02 -7.45969E+02
  9.64176E+02  9.12557E+01 -3.39936E+02  5.71989E+02 -7.87311E+01  1.23984E+03 -4.84699E+02  7.87548E+02
