 $NMID ID='MM_0lb_SNR800_12hz_g40_87.RAW', FMTDAT='(8E13.5)'
 TRAMP=1., VOLUME=1. $END
  3.09945E+05  2.85216E+02  3.37508E+05  2.50539E+05  8.47884E+04  3.37948E+05 -1.32652E+05  2.51145E+05
 -1.90261E+05  8.29199E+04 -1.11902E+05 -3.25100E+04  8.13088E+02 -5.04886E+04  5.41422E+04 -3.98650E+02
  3.53445E+04  5.29513E+04 -1.68015E+04  7.53577E+04 -6.09629E+04  6.35047E+04 -8.43595E+04  3.18172E+04
 -8.12508E+04 -1.14511E+04 -5.75107E+04 -5.12285E+04 -1.50077E+04 -6.94682E+04  2.74436E+04 -4.60252E+04
  4.03036E+04  3.84721E+03  1.63264E+04  4.80180E+04 -3.47386E+04  4.74503E+04 -6.72600E+04 -1.31460E+02
 -5.36054E+04 -5.67221E+04 -6.81537E+03 -7.72456E+04  3.38722E+04 -5.55299E+04  4.80403E+04 -1.73887E+04
  4.35145E+04  1.14500E+04  3.18367E+04  2.56843E+04  1.57260E+04  2.95724E+04 -5.09902E+03  2.71401E+04
 -2.18436E+04  1.23347E+04 -1.85515E+04 -5.10059E+03  5.69459E+03 -7.52883E+03  2.22378E+04  1.28611E+04
  6.95768E+03  3.56550E+04 -3.26277E+04  3.56069E+04 -6.37519E+04  2.14333E+03 -5.74676E+04 -4.27679E+04
 -1.24268E+04 -6.35565E+04  4.00325E+04 -4.59116E+04  5.86179E+04 -2.45871E+03  3.45349E+04  3.25676E+04
 -6.25300E+03  3.68461E+04 -3.05881E+04  1.68174E+04 -3.09523E+04 -4.41533E+03 -1.73218E+04 -1.12243E+04
 -8.83770E+03 -1.35262E+04 -1.09269E+03 -1.84567E+04  7.34143E+03 -2.31927E+04  1.53387E+04 -1.29483E+04
  1.09034E+04  5.55938E+03 -8.70737E+03  1.30042E+04 -2.14274E+04 -4.81871E+03 -8.23043E+03 -3.45483E+04
  2.31986E+04 -4.40827E+04  4.87848E+04 -1.96997E+04  4.55021E+04  1.95486E+04  1.60045E+04  4.47289E+04
 -1.60984E+04  3.40198E+04 -2.56398E+04  1.98141E+03 -1.01599E+04 -2.80434E+04  2.10193E+04 -3.44268E+04
  4.19398E+04 -9.34585E+03  3.63119E+04  2.40428E+04  1.87120E+04  4.71017E+04 -8.52273E+03  5.16599E+04
 -3.26624E+04  3.48238E+04 -4.27613E+04  9.92112E+03 -4.35188E+04 -1.68380E+04 -2.38438E+04 -3.87979E+04
  7.63289E+03 -3.84626E+04  3.20493E+04 -1.51508E+04  2.97164E+04  1.08795E+04  4.17417E+03  1.97275E+04
 -1.34099E+04  8.31781E+03 -1.04177E+04 -7.71283E+03  5.42574E+03 -1.09553E+04  1.81970E+04  5.87770E+03
  1.39360E+04  2.22369E+04 -6.00403E+03  2.52146E+04 -2.26028E+04  1.20835E+04 -2.85008E+04 -4.33809E+03
 -2.15851E+04 -1.77639E+04 -9.00360E+03 -2.13993E+04  4.21039E+03 -2.08335E+04  1.63844E+04 -1.89147E+04
  2.73592E+04 -1.30671E+04  3.35955E+04  3.20759E+03  2.44260E+04  2.07589E+04  4.41546E+03  3.78071E+04
 -1.83418E+04  3.13247E+04 -2.83404E+04  1.09138E+04 -2.12723E+04 -1.01497E+04 -4.28384E+03 -1.35757E+04
  1.33465E+03 -2.50962E+03 -5.40995E+03  6.91804E+03 -1.70599E+04  5.12551E+03 -1.69970E+04 -7.68311E+03
 -1.04178E+04 -1.94844E+04  5.23376E+03 -2.38889E+04  1.65391E+04 -1.75242E+04  1.90261E+04 -1.42708E+03
  1.20704E+04  1.35746E+04 -1.14588E+03  2.00063E+04 -1.41514E+04  1.14837E+04 -1.98870E+04 -4.04568E+03
 -1.47042E+04 -1.79012E+04 -1.91520E+03 -2.40665E+04  1.09983E+04 -2.00164E+04  2.01467E+04 -9.85342E+03
  1.90379E+04  4.36488E+01  1.34248E+04  4.36735E+03  7.04981E+03  1.03592E+03  1.00183E+04 -1.75587E+03
  1.81350E+04  2.75304E+03  2.07483E+04  1.57802E+04  1.39662E+04  3.18206E+04 -3.07507E+03  3.61606E+04
 -2.13104E+04  2.90924E+04 -3.39296E+04  1.45124E+04 -3.57394E+04 -2.60823E+03 -2.96860E+04 -2.06724E+04
 -1.23488E+04 -2.94507E+04  1.01271E+04 -2.63698E+04  2.27789E+04 -1.32810E+04  2.07658E+04  5.97899E+03
  7.20891E+03  1.54809E+04 -9.50338E+03  1.34519E+04 -1.72790E+04  2.55339E+03 -1.34476E+04 -1.09928E+04
 -2.27665E+02 -1.66110E+04  8.20664E+03 -1.21536E+04  1.10005E+04 -1.76388E+03  2.49015E+03  7.30101E+03
 -7.31106E+03  2.64596E+03 -6.72586E+03 -5.96388E+03 -8.37986E+02 -1.45467E+04  1.00317E+04 -1.57965E+04
  1.78541E+04 -8.07340E+03  1.96532E+04  2.99217E+03  1.72187E+04  1.43045E+04  8.10031E+03  2.22117E+04
 -3.67140E+03  2.41155E+04 -1.56496E+04  1.52062E+04 -1.75564E+04  3.35401E+03 -1.21651E+04 -4.10066E+03
 -5.64301E+03 -5.41975E+03 -8.03612E+02  8.69935E+02 -3.00710E+03  2.49526E+03 -5.80161E+03  4.45583E+03
 -1.12541E+04 -6.09155E+02 -1.18708E+04 -9.70211E+03 -4.49557E+03 -1.60258E+04  5.03782E+03 -1.24935E+04
  1.01160E+04 -4.93771E+03  7.49786E+03  3.03530E+03  9.45239E+01  4.97076E+03 -5.85971E+03 -4.64392E+01
 -5.49307E+03 -7.99079E+03 -1.06403E+03 -1.13624E+04  6.65633E+03 -1.25432E+04  1.50397E+04 -6.52599E+03
  1.82244E+04  1.68525E+03  1.32556E+04  1.06499E+04  2.68875E+03  1.43722E+04 -7.69898E+03  1.19775E+04
 -9.78812E+03  3.74406E+03 -5.05747E+03 -2.47150E+03  1.66271E+03 -3.06354E+03  6.62148E+03 -9.52753E+02
  6.12484E+03  5.30352E+03  1.21178E+03  9.58372E+03 -6.68483E+03  9.79298E+03 -1.20003E+04  2.34017E+03
 -8.01720E+03 -6.25697E+03  4.00197E+02 -1.03452E+04  6.57543E+03 -5.41348E+03  6.66375E+03  2.72066E+03
  1.52071E+03  6.96627E+03 -6.54199E+03  8.45676E+03 -9.52198E+03  3.73522E+03 -9.18530E+03 -3.05030E+03
 -5.72027E+03 -1.11510E+04  2.40935E+03 -1.31467E+04  1.10868E+04 -8.17557E+03  1.19443E+04  1.59849E+03
  7.40547E+03  9.67287E+03 -6.19063E+02  1.16819E+04 -8.62807E+03  6.65133E+03 -9.50258E+03 -1.14914E+03
 -8.39161E+03 -8.00724E+03 -1.82927E+03 -8.68566E+03  4.33531E+03 -7.16523E+03  5.66267E+03 -3.42553E+03
  3.89722E+03  1.35014E+03 -7.41179E+02  1.52362E+03 -2.23173E+02 -1.83235E+03  1.49714E+03 -4.69394E+03
  7.78092E+03 -2.75937E+03  1.04978E+04  1.75211E+03  1.10490E+04  7.33468E+03  7.83209E+03  1.39323E+04
 -3.16418E+03  1.65592E+04 -1.42080E+04  1.24757E+04 -1.84544E+04  2.26268E+03 -1.43899E+04 -6.09177E+03
 -7.27582E+03 -1.16024E+04 -4.12220E+02 -1.00280E+04  3.36364E+03 -5.32898E+03  3.72774E+03 -3.58689E+03
  2.55835E+03 -2.31602E+03  3.22367E+03 -3.14653E+03  4.76799E+03 -2.66161E+03  6.00179E+03 -3.84135E+02
  7.83247E+03  1.83939E+03  3.32220E+03  6.57130E+03 -1.85378E+03  7.14981E+03 -8.06078E+03  5.59400E+03
 -1.02354E+04 -1.41834E+03 -5.60741E+03 -7.11692E+03 -5.06011E+02 -1.04612E+04  6.26797E+03 -1.07519E+04
  1.10545E+04 -5.94184E+03  1.34893E+04  1.54819E+03  9.40197E+03  9.24534E+03  1.49416E+03  1.16326E+04
 -4.77698E+03  1.03737E+04 -6.98988E+03  3.45163E+03 -4.17955E+03 -1.38759E+03 -1.76309E+03 -1.44706E+03
 -7.17169E+02  1.88906E+02 -1.61492E+03  2.53470E+03 -4.36235E+03  1.68028E+03 -7.46524E+03 -9.33378E+02
 -4.46759E+03 -7.18091E+03  7.07670E+02 -9.77738E+03  6.08730E+03 -9.05064E+03  9.27653E+03 -2.76589E+03
  9.55908E+03  5.08501E+03  4.31604E+03  7.86441E+03 -1.66560E+03  9.69677E+03 -6.88107E+03  6.03971E+03
 -8.79202E+03  8.09007E+02 -7.23344E+03 -5.75249E+03 -8.39629E+02 -8.13682E+03  4.04156E+03 -6.06488E+03
  6.01619E+03 -2.15318E+03  4.11660E+03  1.34891E+03  1.14761E+03  3.28843E+03  1.01805E+03  1.37412E+03
  2.24003E+03  8.73481E+02  2.48879E+03  1.59986E+03  2.54467E+03  3.61886E+03  2.68073E+03  4.84454E+03
 -2.17268E+03  7.03922E+03 -6.73790E+03  7.98063E+03 -9.44043E+03  2.48299E+03 -9.93785E+03 -3.29827E+03
 -4.72068E+03 -9.48990E+03  1.25526E+03 -1.06362E+04  5.58352E+03 -6.66305E+03  7.70326E+03 -1.47872E+03
  5.87077E+03  3.65922E+03  1.29682E+03  5.41747E+03 -2.27288E+03  3.15190E+03 -3.42069E+03 -4.25520E+02
 -2.10204E+03 -4.02401E+03  2.03187E+03 -3.97503E+03  3.86390E+03 -2.39441E+03  3.85282E+03  7.34800E+02
  2.31316E+03  1.51927E+03  8.72563E+02  1.31197E+03 -1.49442E+02  1.42919E+03  1.74321E+03 -7.16500E+02
  9.93051E+02 -4.06535E+02  4.04896E+03  1.60321E+03  1.75850E+03  5.31299E+03 -6.84449E+02  6.68952E+03
 -4.34358E+03  4.25811E+03 -5.59925E+03  9.00471E+02 -5.28710E+03 -1.81399E+03 -1.97746E+03 -3.33226E+03
  4.75803E+02 -3.50092E+03  2.50786E+03 -1.96825E+03  1.87948E+03  2.45929E+03 -1.07726E+03  2.86781E+03
 -3.85543E+03  1.80967E+03 -4.19735E+03 -2.71395E+03 -2.32410E+03 -5.21226E+03  5.37693E+02 -4.79600E+03
  2.42795E+03 -2.95630E+03  3.54926E+03 -6.28135E-01  3.02647E+03  1.02909E+03  5.85274E+02  2.68632E+03
 -1.98589E+03  2.82910E+02 -2.11593E+03 -1.59280E+03  7.91496E+02 -3.93260E+03  4.47270E+03 -3.09743E+03
  5.12529E+03  3.77310E+02  5.98164E+03  3.73504E+03  1.64067E+03  5.71688E+03 -1.86875E+03  5.52981E+03
 -4.70169E+03  2.54879E+03 -5.10341E+03 -8.09464E+02 -3.05728E+03 -3.82909E+03  6.54132E+02 -3.30953E+03
  3.94093E+03 -1.83467E+03  3.02737E+03  1.83952E+03  8.41657E+02  3.27084E+03 -4.61269E+02  3.09823E+03
 -1.28812E+03  2.22665E+03 -1.37602E+03  5.36473E+02 -3.08095E+02  8.09426E+02 -1.24131E+03  1.31025E+03
 -1.75425E+03  2.43943E+03 -4.21784E+03  2.26807E+03 -5.88067E+03  1.22083E+02 -6.37140E+03 -3.47558E+03
 -3.08728E+03 -7.34366E+03  1.35866E+03 -8.46876E+03  5.23757E+03 -6.89430E+03  8.25619E+03 -2.58896E+03
  7.45465E+03  1.23038E+03  4.29812E+03  4.98118E+03  3.06303E+02  5.65620E+03 -1.97874E+03  4.22655E+03
 -3.21401E+03  1.65108E+03 -1.90791E+03 -8.99380E+02 -5.72346E+02 -4.93413E+02 -5.90746E+02 -2.38257E+02
 -1.32268E+03  3.35272E+02 -1.68286E+03 -1.08241E+02 -1.24147E+02 -1.56588E+03  2.33838E+02 -2.14161E+03
  3.12966E+03 -1.92499E+03  3.33342E+03  1.59501E+02  4.28890E+03  3.08085E+03  6.31809E+02  5.81366E+03
 -2.88660E+03  6.65445E+03 -6.13278E+03  3.66628E+03 -7.07179E+03 -7.47421E+02 -4.80583E+03 -4.64555E+03
 -2.38723E+03 -5.46926E+03  1.37484E+03 -5.29294E+03  3.31393E+03 -2.41308E+03  3.59110E+03 -2.90844E+01
  2.13659E+03  1.79393E+03 -3.32378E+02  1.46225E+03 -1.33918E+03 -3.05281E+02 -1.12380E+02 -9.09045E+02
  1.66310E+03 -1.00371E+03  2.30732E+03  6.22419E+02  9.11885E+02  2.30590E+03  3.59677E+02  2.88924E+03
 -2.11368E+03  2.23859E+03 -3.31098E+03  4.56877E+02 -3.07779E+03 -2.78334E+03 -7.10601E+01 -4.66075E+03
  2.52375E+03 -3.83174E+03  3.82458E+03 -1.14695E+03  4.33090E+03  5.54130E+02  2.47162E+03  3.28931E+03
  6.14918E+02  3.46198E+03 -1.19882E+03  3.18239E+03 -2.17128E+03  1.33356E+03 -2.02964E+03  2.68868E+01
 -9.04759E+02 -2.36472E+02 -1.03565E+03  6.64989E+02 -2.22641E+03  7.23242E+02 -3.10837E+03 -7.29031E+02
 -2.79085E+03 -1.52560E+03 -5.29512E+02 -3.97665E+03  1.72917E+03 -4.25720E+03  2.96225E+03 -1.55823E+03
  3.50750E+03  5.19314E+02  1.57788E+03  2.18248E+03 -7.04730E+02  3.44127E+03 -2.35349E+03  2.58276E+03
