 $NMID ID='MM_0lb_SNR800_19hz_g60_21.RAW', FMTDAT='(8E13.5)'
 TRAMP=1., VOLUME=1. $END
  3.10057E+05  3.37366E+02  3.37294E+05  2.50509E+05  8.46324E+04  3.37725E+05 -1.32504E+05  2.50809E+05
 -1.90176E+05  8.29186E+04 -1.11577E+05 -3.29485E+04  8.56636E+02 -5.03111E+04  5.39753E+04  6.87702E+01
  3.52768E+04  5.26378E+04 -1.68808E+04  7.51055E+04 -6.08184E+04  6.30432E+04 -8.37509E+04  3.17647E+04
 -8.03583E+04 -1.10171E+04 -5.71580E+04 -5.08035E+04 -1.51439E+04 -6.91742E+04  2.69401E+04 -4.52191E+04
  3.96966E+04  4.21971E+03  1.57921E+04  4.74726E+04 -3.45071E+04  4.67032E+04 -6.61048E+04 -2.25634E+02
 -5.29711E+04 -5.64897E+04 -6.50767E+03 -7.64216E+04  3.33958E+04 -5.41638E+04  4.70987E+04 -1.70069E+04
  4.25652E+04  1.08263E+04  3.13613E+04  2.49509E+04  1.58599E+04  2.88418E+04 -4.98188E+03  2.69967E+04
 -2.16460E+04  1.28620E+04 -1.89256E+04 -4.72436E+03  5.15371E+03 -7.34447E+03  2.19463E+04  1.11081E+04
  7.27296E+03  3.41307E+04 -3.13391E+04  3.49178E+04 -6.21207E+04  2.07255E+03 -5.60690E+04 -4.19231E+04
 -1.25295E+04 -6.22860E+04  3.90296E+04 -4.44760E+04  5.66215E+04 -1.98833E+03  3.28865E+04  3.18809E+04
 -6.21432E+03  3.45056E+04 -2.89497E+04  1.46303E+04 -2.89117E+04 -5.04470E+03 -1.53595E+04 -1.07291E+04
 -7.82029E+03 -1.24372E+04 -7.30562E+02 -1.73571E+04  6.82711E+03 -2.27461E+04  1.52489E+04 -1.37289E+04
  1.17509E+04  4.82262E+03 -7.18036E+03  1.28147E+04 -1.99944E+04 -3.55227E+03 -8.09432E+03 -3.20177E+04
  2.14328E+04 -4.18246E+04  4.63142E+04 -1.88046E+04  4.33755E+04  1.89012E+04  1.47020E+04  4.24766E+04
 -1.55034E+04  3.19841E+04 -2.44003E+04  1.43702E+03 -9.06425E+03 -2.71517E+04  2.09502E+04 -3.20717E+04
  3.92704E+04 -8.01357E+03  3.30532E+04  2.32188E+04  1.66107E+04  4.40707E+04 -7.86133E+03  4.70974E+04
 -2.99803E+04  3.15605E+04 -3.91686E+04  8.83806E+03 -3.99402E+04 -1.56362E+04 -2.18849E+04 -3.58548E+04
  7.33167E+03 -3.56856E+04  3.00221E+04 -1.35200E+04  2.82070E+04  1.09132E+04  3.27850E+03  1.82809E+04
 -1.28859E+04  7.93529E+03 -9.71779E+03 -7.36218E+03  5.96003E+03 -1.03527E+04  1.76105E+04  6.38572E+03
  1.27663E+04  2.18269E+04 -6.52022E+03  2.38449E+04 -2.17345E+04  9.93916E+03 -2.63030E+04 -5.72333E+03
 -1.82784E+04 -1.68089E+04 -6.31908E+03 -1.81756E+04  4.01991E+03 -1.63550E+04  1.36780E+04 -1.55896E+04
  2.27842E+04 -1.19569E+04  2.98008E+04  1.45419E+03  2.20053E+04  1.77887E+04  4.16668E+03  3.35109E+04
 -1.66294E+04  2.84032E+04 -2.63652E+04  9.89230E+03 -2.01671E+04 -1.05045E+04 -4.07405E+03 -1.37693E+04
  2.51019E+03 -3.87932E+03 -3.12838E+03  5.77772E+03 -1.41143E+04  5.50434E+03 -1.42808E+04 -5.29443E+03
 -9.16891E+03 -1.68664E+04  4.93787E+03 -2.06990E+04  1.34689E+04 -1.48332E+04  1.59461E+04 -1.59354E+03
  9.76961E+03  1.13455E+04 -7.23193E+02  1.67329E+04 -1.09760E+04  9.13283E+03 -1.63980E+04 -3.43121E+03
 -1.21199E+04 -1.49614E+04 -1.47460E+03 -1.99787E+04  9.27352E+03 -1.62120E+04  1.68356E+04 -7.81329E+03
  1.54349E+04  9.27346E+02  1.09914E+04  3.91432E+03  5.50671E+03  4.71876E+02  8.36431E+03 -1.50497E+03
  1.45693E+04  2.97086E+03  1.61865E+04  1.33636E+04  9.92025E+03  2.61580E+04 -2.99084E+03  2.84343E+04
 -1.69949E+04  2.20043E+04 -2.62546E+04  1.04969E+04 -2.70284E+04 -1.77178E+03 -2.27990E+04 -1.56555E+04
 -1.04860E+04 -2.19142E+04  7.37660E+03 -2.02262E+04  1.76458E+04 -1.15278E+04  1.61799E+04  3.98012E+03
  6.76345E+03  1.17669E+04 -7.70947E+03  1.11967E+04 -1.40240E+04  2.67278E+03 -1.06566E+04 -8.21883E+03
 -1.84534E+02 -1.30031E+04  6.47436E+03 -1.00248E+04  8.32285E+03 -1.13140E+03  1.63193E+03  5.24290E+03
 -5.91410E+03  9.75006E+02 -4.28157E+03 -4.61754E+03  4.45203E+02 -1.05835E+04  8.37730E+03 -1.08510E+04
  1.29790E+04 -5.09058E+03  1.29080E+04  2.85702E+03  1.10899E+04  9.96484E+03  5.43775E+03  1.53054E+04
 -1.62244E+03  1.70564E+04 -1.06469E+04  1.08350E+04 -1.22332E+04  2.95749E+03 -8.83036E+03 -2.06290E+03
 -4.55599E+03 -3.72584E+03 -7.71909E+02  1.36260E+03 -1.72407E+03  2.28001E+03 -3.96567E+03  3.68413E+03
 -8.22269E+03 -4.48273E+02 -9.20157E+03 -7.36507E+03 -3.74958E+03 -1.20264E+04  3.87907E+03 -8.80761E+03
  7.59812E+03 -4.11587E+03  5.32090E+03  1.97908E+03  4.78507E+02  3.44415E+03 -3.65085E+03 -4.08487E+02
 -3.75082E+03 -5.42729E+03 -8.83927E+02 -7.47098E+03  3.93589E+03 -8.30947E+03  1.03264E+04 -4.12041E+03
  1.24865E+04  1.04621E+03  9.04522E+03  6.61429E+03  1.96373E+03  9.04655E+03 -5.47160E+03  8.66566E+03
 -7.24589E+03  2.49717E+03 -3.78776E+03 -1.42405E+03  1.47298E+03 -2.40389E+03  4.98788E+03 -1.34329E+03
  4.25935E+03  3.39645E+03  1.15844E+03  6.47053E+03 -4.68415E+03  6.49007E+03 -8.15531E+03  1.71731E+03
 -5.15038E+03 -3.79329E+03  3.46285E+02 -7.16874E+03  3.93740E+03 -3.46441E+03  3.72835E+03  1.37771E+03
  3.30586E+02  3.44328E+03 -4.31708E+03  4.83413E+03 -5.04620E+03  2.40755E+03 -4.93440E+03 -1.32563E+03
 -3.06890E+03 -6.29516E+03  1.02154E+03 -7.24041E+03  5.94174E+03 -5.05456E+03  6.83149E+03  1.27592E+03
  4.65585E+03  5.49222E+03  3.41742E+02  7.52967E+03 -5.14011E+03  4.23839E+03 -5.36643E+03 -6.32994E+02
 -6.03720E+03 -5.11540E+03 -1.46361E+03 -5.32800E+03  2.52510E+03 -4.79144E+03  2.84638E+03 -2.95441E+03
  2.87086E+03 -1.38008E+02 -2.10885E+02  1.40265E+03  3.39446E+02 -2.05380E+02  2.06745E+02 -1.81546E+03
  4.07693E+03 -8.00828E+02  5.36536E+03  9.08823E+02  5.55852E+03  3.20033E+03  5.10719E+03  7.26346E+03
 -1.36798E+03  8.87157E+03 -7.93525E+03  6.62926E+03 -1.00787E+04  1.32148E+03 -8.09948E+03 -2.61927E+03
 -4.25007E+03 -6.52774E+03 -4.40660E+02 -5.09366E+03  2.14575E+03 -2.07953E+03  1.84047E+03 -1.99434E+03
  1.05864E+03 -1.61719E+03  2.16477E+03 -2.34383E+03  3.33528E+03 -1.36290E+03  3.70458E+03  4.95107E+02
  4.67573E+03  1.03657E+03  1.22801E+03  3.36977E+03 -1.64834E+03  2.73745E+03 -4.36628E+03  2.71142E+03
 -4.66548E+03 -1.20148E+03 -1.88651E+03 -3.35708E+03  3.02616E+02 -4.75394E+03  3.15906E+03 -5.03566E+03
  5.03658E+03 -3.25573E+03  6.58287E+03  5.24301E+01  5.03530E+03  4.03415E+03  1.14280E+03  6.00614E+03
 -2.34704E+03  5.69889E+03 -3.44847E+03  2.18045E+03 -1.84601E+03 -1.06905E+03 -4.73018E+02 -4.57324E+02
 -6.13546E+02  1.59725E+02 -8.25064E+02  1.99318E+03 -2.67035E+03  1.17142E+03 -4.12489E+03 -2.77894E+02
 -1.73447E+03 -3.98047E+03  7.84894E+02 -4.39338E+03  2.67153E+03 -4.48535E+03  3.14404E+03 -1.21514E+03
  4.08088E+03  2.20267E+03  1.73963E+03  3.26061E+03 -4.48987E+02  4.39588E+03 -2.42075E+03  2.51529E+03
 -3.63668E+03  5.35026E+02 -3.40897E+03 -2.16557E+03 -1.27320E+02 -3.05959E+03  1.54683E+03 -2.54386E+03
  2.74789E+03 -1.10907E+03  1.80123E+03  4.19827E+02  4.93301E+02  1.60680E+03  6.26273E+02  4.37189E+02
  1.60532E+03  5.38099E+02  9.10026E+02  6.98905E+02  6.04371E+02  2.35367E+03  1.46191E+03  1.81176E+03
 -1.45427E+03  2.80444E+03 -2.31529E+03  3.80845E+03 -3.01403E+03  1.01415E+03 -3.90213E+03 -2.47504E+02
 -1.53013E+03 -3.51878E+03  4.86383E+02 -4.56193E+03  1.69257E+03 -2.48195E+03  2.94830E+03 -1.18009E+03
  2.29193E+03  1.63132E+03  3.64638E+02  2.09264E+03 -4.87131E+02  9.86193E+02 -1.07833E+03 -1.68269E+02
 -5.43120E+02 -1.48148E+03  1.26166E+03 -1.79246E+03  1.08898E+03 -7.77567E+02  1.21116E+03  4.35148E+02
  5.35926E+02  8.44554E+01  8.79953E+02 -2.87141E+02 -4.29470E+02  7.20420E+02  1.59552E+03 -1.17933E+02
  1.14843E+01 -9.02002E+01  1.79755E+03  6.36314E+02  7.29414E+01  2.15631E+03 -3.07061E+02  2.43818E+03
 -1.44789E+03  6.91609E+02 -1.80176E+03  1.90557E+02 -1.82660E+03 -3.63950E+02  9.93901E+01 -9.43602E+02
  3.88288E+02 -1.03417E+03  8.08334E+02 -5.34255E+02  6.02225E+02  1.11277E+03 -5.02206E+02  1.16005E+03
 -1.29348E+03  1.19848E+03 -1.04313E+03 -1.20422E+03 -6.86077E+02 -1.87964E+03  5.80612E+01 -1.33747E+03
  9.94756E+01 -4.95422E+02  5.61079E+02  8.13082E+01  1.28340E+03  1.59290E+01  4.83174E+01  1.12147E+03
 -1.82961E+02  3.90099E+01 -5.88819E+02  5.54285E+01  4.15471E+02 -9.14898E+02  1.30622E+03 -6.30752E+02
  1.13508E+03  2.23456E+02  2.63783E+03  7.67042E+02  1.41197E+03  1.32472E+03 -1.26613E+01  1.55466E+03
 -1.33204E+03  1.92577E+02 -1.50374E+03 -5.30787E+00 -5.37488E+02 -1.35226E+03  3.86102E+02 -3.82471E+02
  1.69370E+03 -8.41298E+02  5.85369E+02  7.25265E+02 -1.14843E+02  1.37818E+03  9.94799E+01  1.12395E+03
 -7.58854E+01  1.04988E+03 -5.44867E+02  2.68973E+02  2.26558E+02  4.68044E+02 -5.87920E+02  7.85720E+02
 -4.59341E+02  9.25036E+02 -1.36486E+03  4.41556E+02 -1.17142E+03  2.80424E+02 -2.27758E+03 -6.78906E+02
 -8.17899E+02 -2.04637E+03  6.63102E+02 -2.38134E+03  5.38467E+02 -2.14716E+03  2.79281E+03 -9.45746E+02
  2.25373E+03 -1.66147E+02  7.74364E+02  1.49778E+03 -8.38955E+02  1.01046E+03 -5.00898E+02  1.07913E+03
 -1.00653E+03  8.49897E+02 -5.38369E+02 -2.28274E+02 -3.47206E+02 -6.69298E+00 -5.38305E+02 -4.32754E+01
 -1.15068E+03  1.61015E+02 -7.94691E+02  7.74190E+01  1.03116E+02 -3.69437E+02 -4.86801E+02 -9.78067E+02
  1.10681E+03 -4.10414E+02  3.84057E+02  4.24583E+02  7.60491E+02  1.01722E+03 -3.22464E+02  1.03174E+03
 -8.84906E+02  1.76277E+03 -1.39919E+03  1.24467E+03 -1.27445E+03  5.48060E+01 -9.31525E+02 -1.09933E+03
 -7.92199E+02 -1.01703E+03  1.45555E+02 -9.95737E+02  6.18576E+02 -6.48746E+01  3.26872E+02  1.06994E+01
  5.13892E+02  9.21830E+01  8.96710E+01 -4.49951E+01 -3.56762E+02 -1.96670E+02 -8.98362E+01  5.44965E+01
  2.95580E+02  3.44367E+02  1.01996E+02  6.51925E+02 -6.35000E+01  3.80233E+02  3.67731E+02  1.77557E+02
 -5.92082E+02  3.76973E+02 -4.15378E+02 -7.56016E+01 -4.42266E+02 -1.14120E+02 -1.94294E+01 -1.18457E+03
  3.86290E+02 -7.42829E+02  1.74913E+02  2.55995E+02  6.52121E+02 -8.11300E+02  2.59478E+02  4.99744E+02
  2.38109E+02  2.85236E+02  3.84668E+01  4.25093E+02 -4.79516E+02  5.35619E+02 -3.53555E+02  1.44594E+02
  1.92074E+02  6.29940E+01 -1.82681E+02  2.40313E+02 -5.46576E+02  2.17376E+02 -3.05336E+02 -1.60374E+02
 -8.40149E+02  4.93630E+02 -2.42632E+02 -7.71511E+02  6.45824E+02 -1.50553E+03  6.17100E+02 -3.57788E+02
  5.14986E+02  1.71623E+02 -6.74936E+02  3.27913E+02 -2.55028E+01  4.66687E+02 -3.22667E+02  5.60301E+02
