 $NMID ID='MM_0lb_SNR800_14hz_g50_87.RAW', FMTDAT='(8E13.5)'
 TRAMP=1., VOLUME=1. $END
  3.10085E+05 -1.38207E+02  3.37788E+05  2.50516E+05  8.45307E+04  3.37692E+05 -1.32445E+05  2.51023E+05
 -1.90131E+05  8.32390E+04 -1.11700E+05 -3.27354E+04  6.87780E+02 -5.04379E+04  5.40273E+04 -1.69531E+02
  3.54646E+04  5.31131E+04 -1.67757E+04  7.52265E+04 -6.06883E+04  6.35963E+04 -8.42358E+04  3.20150E+04
 -8.09667E+04 -1.17055E+04 -5.71292E+04 -5.14886E+04 -1.50849E+04 -6.97486E+04  2.73237E+04 -4.58143E+04
  4.02663E+04  3.83900E+03  1.60149E+04  4.80829E+04 -3.41805E+04  4.70132E+04 -6.67008E+04 -3.20680E+02
 -5.33335E+04 -5.67921E+04 -6.57951E+03 -7.72365E+04  3.37440E+04 -5.49151E+04  4.80299E+04 -1.73460E+04
  4.35448E+04  1.13704E+04  3.19241E+04  2.54748E+04  1.59328E+04  2.92509E+04 -5.20441E+03  2.71954E+04
 -2.21113E+04  1.23306E+04 -1.85156E+04 -5.04978E+03  6.11368E+03 -7.72099E+03  2.25955E+04  1.25178E+04
  7.42568E+03  3.53729E+04 -3.22185E+04  3.56567E+04 -6.33348E+04  2.32959E+03 -5.73279E+04 -4.27837E+04
 -1.25609E+04 -6.32605E+04  3.96331E+04 -4.56630E+04  5.85240E+04 -2.38296E+03  3.41171E+04  3.24524E+04
 -6.17384E+03  3.63204E+04 -3.00280E+04  1.62803E+04 -3.06117E+04 -4.45382E+03 -1.66147E+04 -1.12607E+04
 -8.67973E+03 -1.34551E+04 -1.03921E+03 -1.81755E+04  7.50149E+03 -2.30029E+04  1.57223E+04 -1.32645E+04
  1.10314E+04  5.34845E+03 -8.43077E+03  1.28713E+04 -2.13988E+04 -4.43640E+03 -8.34417E+03 -3.38692E+04
  2.28280E+04 -4.34970E+04  4.85090E+04 -1.95942E+04  4.51788E+04  1.94009E+04  1.54347E+04  4.39860E+04
 -1.62249E+04  3.35542E+04 -2.55964E+04  1.88234E+03 -1.00440E+04 -2.78924E+04  2.08309E+04 -3.40800E+04
  4.13976E+04 -9.36762E+03  3.58272E+04  2.38463E+04  1.81631E+04  4.65022E+04 -8.24044E+03  5.04524E+04
 -3.18159E+04  3.37757E+04 -4.21858E+04  9.71547E+03 -4.28019E+04 -1.69368E+04 -2.36820E+04 -3.82692E+04
  7.44304E+03 -3.79098E+04  3.16676E+04 -1.48539E+04  2.91070E+04  1.07004E+04  4.17101E+03  1.91670E+04
 -1.32346E+04  8.26128E+03 -1.06303E+04 -7.56054E+03  5.90149E+03 -1.06785E+04  1.81183E+04  6.11596E+03
  1.30798E+04  2.22720E+04 -6.39414E+03  2.50270E+04 -2.20383E+04  1.15445E+04 -2.82621E+04 -4.74789E+03
 -2.05829E+04 -1.75569E+04 -8.54080E+03 -2.06731E+04  3.82077E+03 -2.00216E+04  1.57187E+04 -1.83130E+04
  2.64589E+04 -1.26949E+04  3.29369E+04  2.79769E+03  2.38478E+04  2.00325E+04  4.01597E+03  3.65388E+04
 -1.75558E+04  3.04823E+04 -2.80749E+04  1.05582E+04 -2.09824E+04 -1.05261E+04 -3.82401E+03 -1.32975E+04
  1.62318E+03 -2.84755E+03 -4.81372E+03  6.67478E+03 -1.64739E+04  5.23238E+03 -1.67023E+04 -7.14122E+03
 -1.01593E+04 -1.91055E+04  5.35826E+03 -2.32312E+04  1.53940E+04 -1.66081E+04  1.81735E+04 -1.59070E+03
  1.15288E+04  1.34363E+04 -1.21323E+03  1.91541E+04 -1.30680E+04  1.06505E+04 -1.91708E+04 -4.05774E+03
 -1.43390E+04 -1.71127E+04 -1.90360E+03 -2.29769E+04  1.03312E+04 -1.88978E+04  1.93282E+04 -9.52401E+03
  1.79428E+04  1.63019E+02  1.30562E+04  4.48983E+03  6.52230E+03  7.90678E+02  9.45632E+03 -1.43608E+03
  1.76472E+04  2.54558E+03  1.94136E+04  1.51973E+04  1.28343E+04  3.07219E+04 -2.96585E+03  3.44416E+04
 -2.03808E+04  2.78703E+04 -3.19697E+04  1.38571E+04 -3.34957E+04 -2.37157E+03 -2.78971E+04 -1.95046E+04
 -1.22099E+04 -2.79442E+04  9.61536E+03 -2.50439E+04  2.16935E+04 -1.28051E+04  1.95545E+04  5.52543E+03
  7.18527E+03  1.43465E+04 -9.26557E+03  1.28328E+04 -1.65043E+04  2.76945E+03 -1.24402E+04 -1.00624E+04
 -7.33156E+01 -1.55215E+04  8.22684E+03 -1.14905E+04  1.00185E+04 -1.37028E+03  2.20502E+03  6.63154E+03
 -6.98522E+03  2.37368E+03 -5.94673E+03 -5.81492E+03 -6.13397E+02 -1.37696E+04  9.57453E+03 -1.41768E+04
  1.64516E+04 -7.75978E+03  1.80778E+04  2.97276E+03  1.60394E+04  1.31782E+04  7.28101E+03  2.03865E+04
 -3.51887E+03  2.24771E+04 -1.43034E+04  1.39527E+04 -1.60738E+04  3.69086E+03 -1.11751E+04 -3.46631E+03
 -5.61600E+03 -5.37006E+03 -6.52643E+02  9.85220E+02 -2.53521E+03  2.38849E+03 -5.31958E+03  4.44199E+03
 -1.09331E+04 -6.76605E+02 -1.11171E+04 -9.11355E+03 -4.23224E+03 -1.49717E+04  4.44311E+03 -1.14648E+04
  9.25066E+03 -4.94412E+03  7.14613E+03  2.57319E+03  2.96976E+02  4.43788E+03 -5.41751E+03  2.04504E+02
 -5.55189E+03 -7.15784E+03 -6.45157E+02 -1.06063E+04  6.06639E+03 -1.13798E+04  1.41381E+04 -5.80841E+03
  1.65782E+04  1.63175E+03  1.24801E+04  9.70551E+03  2.32368E+03  1.29248E+04 -6.88921E+03  1.09318E+04
 -9.01649E+03  3.72225E+03 -4.90717E+03 -1.92057E+03  1.68644E+03 -2.78849E+03  6.20972E+03 -8.08394E+02
  5.26911E+03  4.83325E+03  1.12567E+03  9.24879E+03 -6.29132E+03  8.84773E+03 -1.09683E+04  2.49291E+03
 -7.43874E+03 -5.62758E+03  5.02495E+02 -9.17907E+03  5.62604E+03 -4.78023E+03  6.06502E+03  1.91243E+03
  1.20112E+03  6.19563E+03 -5.59910E+03  7.49152E+03 -8.20030E+03  3.44253E+03 -8.31357E+03 -2.55665E+03
 -4.95388E+03 -9.92617E+03  2.51354E+03 -1.17352E+04  9.67452E+03 -6.95758E+03  1.06934E+04  1.95516E+03
  6.70942E+03  8.36336E+03 -6.44161E+02  1.06660E+04 -7.45416E+03  6.03560E+03 -8.18471E+03 -1.05581E+03
 -7.66182E+03 -7.26549E+03 -1.70441E+03 -7.33865E+03  4.04204E+03 -6.78134E+03  4.53050E+03 -3.27203E+03
  3.61555E+03  9.07838E+02 -1.70679E+02  1.47221E+03 -1.89969E+02 -1.37242E+03  1.13972E+03 -4.12881E+03
  7.02682E+03 -2.16316E+03  9.55863E+03  1.35837E+03  9.41439E+03  5.84692E+03  7.00847E+03  1.24843E+04
 -2.73214E+03  1.42387E+04 -1.20790E+04  1.06958E+04 -1.57984E+04  2.14235E+03 -1.23888E+04 -5.07407E+03
 -6.50394E+03 -1.01608E+04 -3.12974E+01 -8.70524E+03  3.39457E+03 -4.42684E+03  2.92021E+03 -2.93689E+03
  2.04395E+03 -2.25643E+03  3.18730E+03 -2.90357E+03  4.36219E+03 -2.38391E+03  5.44981E+03 -5.84447E+02
  6.78663E+03  1.91011E+03  2.99150E+03  5.59618E+03 -1.90482E+03  5.96457E+03 -6.89882E+03  4.86777E+03
 -8.50979E+03 -1.15422E+03 -4.78821E+03 -6.02247E+03 -4.47317E+02 -8.81154E+03  5.11402E+03 -9.04151E+03
  9.31917E+03 -5.48158E+03  1.13702E+04  1.12461E+03  7.92421E+03  7.65178E+03  1.63648E+03  1.03254E+04
 -4.11596E+03  8.93184E+03 -5.99556E+03  3.02223E+03 -3.90962E+03 -1.67965E+03 -1.75030E+03 -1.21301E+03
 -7.44055E+02  4.09918E+02 -1.05164E+03  1.98545E+03 -4.00444E+03  1.43815E+03 -6.17289E+03 -3.06793E+02
 -3.37470E+03 -6.18971E+03  3.70863E+02 -7.99948E+03  5.36630E+03 -7.41318E+03  7.32588E+03 -2.33707E+03
  7.71520E+03  4.22486E+03  3.59452E+03  6.53444E+03 -1.12190E+03  8.19316E+03 -5.79275E+03  5.12348E+03
 -7.26230E+03  5.88836E+02 -5.93921E+03 -4.63471E+03 -4.78650E+02 -6.49290E+03  3.23299E+03 -4.91581E+03
  5.19959E+03 -1.92427E+03  3.49990E+03  1.22908E+03  1.00117E+03  2.37279E+03  9.56291E+02  1.12062E+03
  2.16084E+03  7.05102E+02  1.91896E+03  1.40786E+03  2.18158E+03  3.15683E+03  2.50242E+03  3.74048E+03
 -1.76779E+03  6.05757E+03 -4.89148E+03  6.97371E+03 -7.29377E+03  1.86466E+03 -8.14154E+03 -2.64581E+03
 -3.78638E+03 -7.62901E+03  1.33189E+03 -8.78558E+03  4.17279E+03 -5.23533E+03  6.14166E+03 -1.44618E+03
  4.88642E+03  2.89635E+03  1.06121E+03  4.63252E+03 -1.80392E+03  2.52067E+03 -2.87488E+03 -1.44665E+02
 -1.55238E+03 -3.41982E+03  1.69010E+03 -3.27334E+03  2.87157E+03 -1.72237E+03  2.72434E+03  7.18786E+02
  1.81368E+03  9.03991E+02  1.03578E+03  6.22051E+02 -4.47998E+02  1.21026E+03  1.88500E+03 -2.35061E+02
  1.03805E+03  3.62749E+00  3.15990E+03  1.05237E+03  1.37530E+03  4.23875E+03 -9.08936E+02  5.56867E+03
 -3.37411E+03  3.16033E+03 -4.77326E+03  7.83234E+02 -4.23745E+03 -1.85704E+03 -1.38492E+03 -2.72996E+03
  4.02257E+02 -2.71820E+03  2.10267E+03 -1.48844E+03  1.27299E+03  1.88075E+03 -7.83977E+02  2.52958E+03
 -2.99087E+03  1.42153E+03 -3.14984E+03 -2.35355E+03 -1.69779E+03 -4.11934E+03  3.97506E+02 -4.05750E+03
  2.00667E+03 -1.60916E+03  2.71559E+03 -3.34276E+01  2.67166E+03  4.05532E+02  2.34278E+02  2.22663E+03
 -1.36654E+03  2.06749E+02 -2.16123E+03 -1.12846E+03  6.73295E+02 -2.59364E+03  3.49563E+03 -2.34096E+03
  3.85580E+03  1.13231E+02  4.80620E+03  2.46065E+03  1.48479E+03  4.28802E+03 -1.46901E+03  4.15307E+03
 -3.48829E+03  1.59348E+03 -3.57481E+03 -5.11908E+02 -2.13646E+03 -2.69799E+03  7.17771E+02 -2.25240E+03
  2.82185E+03 -1.18503E+03  1.90292E+03  1.48579E+03  6.69791E+02  2.82739E+03  6.88038E+01  2.42169E+03
 -1.04587E+03  1.79923E+03 -1.26394E+03  3.16932E+02 -2.88191E+02  5.31305E+02 -1.26738E+03  1.03060E+03
 -1.14069E+03  1.65576E+03 -3.08326E+03  8.69890E+02 -3.94783E+03  9.42622E+01 -5.04044E+03 -2.54774E+03
 -2.12554E+03 -5.51431E+03  8.79752E+02 -6.46183E+03  3.54968E+03 -5.14079E+03  6.22622E+03 -1.93032E+03
  5.57129E+03  5.41466E+02  3.14647E+03  3.51195E+03 -1.04625E+02  4.15118E+03 -1.52148E+03  3.16777E+03
 -2.44100E+03  1.06327E+03 -1.23090E+03 -2.07266E+02 -5.00563E+02 -1.19746E+02 -6.97075E+02 -5.53298E+01
 -1.20349E+03  8.43973E+01 -1.06725E+03 -1.60901E+02  8.31288E+01 -1.39825E+03 -2.55237E+02 -1.58584E+03
  2.18567E+03 -1.18227E+03  1.97292E+03 -7.55779E+01  2.92635E+03  2.34330E+03  4.55599E+02  4.02948E+03
 -2.28540E+03  5.20209E+03 -4.15094E+03  2.95217E+03 -4.78577E+03 -4.13306E+02 -3.62020E+03 -3.07455E+03
 -1.69354E+03 -3.71992E+03  9.65689E+02 -3.74581E+03  2.42480E+03 -1.82809E+03  2.23467E+03  3.14260E+02
  1.57254E+03  1.16231E+03  1.26680E+02  9.92755E+02 -7.23711E+02 -8.73888E+01 -6.47727E-02 -7.90266E+02
  1.31359E+03 -2.91754E+02  1.41256E+03  5.62354E+02  8.45035E+02  1.44924E+03  4.12158E+02  1.70023E+03
 -1.73062E+03  1.65832E+03 -2.09753E+03  3.75107E+02 -2.24724E+03 -1.69909E+03 -2.77027E+02 -3.10893E+03
  1.74301E+03 -2.42919E+03  2.36275E+03 -9.33115E+02  2.98059E+03  5.78544E+02  1.27803E+03  2.12623E+03
  5.80049E+02  2.15810E+03 -4.88601E+02  1.87803E+03 -1.60500E+03  1.29936E+03 -1.13109E+03 -1.74065E+02
 -8.18582E+02 -1.60925E+02 -1.22015E+03  2.66696E+02 -1.42672E+03  5.14766E+02 -1.71642E+03 -4.56380E+02
 -2.31793E+03 -7.64756E+02 -4.87038E+02 -2.70791E+03  1.48473E+03 -3.00506E+03  1.95636E+03 -1.10544E+03
  2.23252E+03  2.05756E+02  5.23082E+02  1.68802E+03 -9.47071E+01  2.53587E+03 -1.48914E+03  1.76143E+03
