 $NMID ID='MM_0lb_SNR800_17hz_g60_99.RAW', FMTDAT='(8E13.5)'
 TRAMP=1., VOLUME=1. $END
  3.09902E+05  2.51440E+02  3.37538E+05  2.50671E+05  8.47983E+04  3.37896E+05 -1.32549E+05  2.50734E+05
 -1.90444E+05  8.30135E+04 -1.11867E+05 -3.24673E+04  5.67866E+02 -5.03909E+04  5.35077E+04 -6.29383E+01
  3.54894E+04  5.29002E+04 -1.66262E+04  7.52120E+04 -6.12456E+04  6.35446E+04 -8.42070E+04  3.19740E+04
 -8.08061E+04 -1.15378E+04 -5.69759E+04 -5.10483E+04 -1.49968E+04 -6.91430E+04  2.73340E+04 -4.58337E+04
  3.98534E+04  3.87875E+03  1.62178E+04  4.77696E+04 -3.44827E+04  4.73627E+04 -6.65607E+04 -4.48089E+02
 -5.35107E+04 -5.65510E+04 -6.87029E+03 -7.70703E+04  3.36894E+04 -5.51466E+04  4.77790E+04 -1.71555E+04
  4.30833E+04  1.15529E+04  3.17963E+04  2.54905E+04  1.58903E+04  2.92450E+04 -5.28280E+03  2.70740E+04
 -2.20971E+04  1.23394E+04 -1.86470E+04 -4.91898E+03  5.40680E+03 -7.56416E+03  2.22604E+04  1.24631E+04
  7.54824E+03  3.50095E+04 -3.18570E+04  3.52956E+04 -6.27981E+04  1.98822E+03 -5.68530E+04 -4.25074E+04
 -1.22325E+04 -6.29540E+04  3.96306E+04 -4.50908E+04  5.77253E+04 -2.09884E+03  3.38544E+04  3.20734E+04
 -6.19609E+03  3.58079E+04 -2.98471E+04  1.56142E+04 -2.99486E+04 -4.64716E+03 -1.62780E+04 -1.07045E+04
 -8.35498E+03 -1.25633E+04 -7.21407E+02 -1.79028E+04  7.46648E+03 -2.29368E+04  1.52579E+04 -1.35748E+04
  1.14381E+04  5.01785E+03 -7.94045E+03  1.32490E+04 -2.07711E+04 -4.17816E+03 -8.35865E+03 -3.30716E+04
  2.21505E+04 -4.28327E+04  4.75575E+04 -1.95360E+04  4.46798E+04  1.92498E+04  1.52492E+04  4.36266E+04
 -1.59581E+04  3.28323E+04 -2.51660E+04  1.66007E+03 -9.43778E+03 -2.73179E+04  2.09565E+04 -3.34461E+04
  4.04543E+04 -8.72296E+03  3.46004E+04  2.35451E+04  1.74695E+04  4.57517E+04 -7.92951E+03  4.90815E+04
 -3.13940E+04  3.30277E+04 -4.12137E+04  9.13805E+03 -4.17742E+04 -1.64315E+04 -2.32491E+04 -3.72064E+04
  7.14985E+03 -3.71061E+04  3.12340E+04 -1.41786E+04  2.88290E+04  1.09044E+04  3.88464E+03  1.86392E+04
 -1.35043E+04  8.22109E+03 -1.01452E+04 -7.53727E+03  5.68150E+03 -1.02701E+04  1.80172E+04  6.29958E+03
  1.33494E+04  2.18245E+04 -5.72907E+03  2.47614E+04 -2.19486E+04  1.08012E+04 -2.72466E+04 -5.05750E+03
 -1.96926E+04 -1.71400E+04 -7.64544E+03 -1.97170E+04  4.19375E+03 -1.82859E+04  1.48302E+04 -1.76003E+04
  2.52097E+04 -1.24448E+04  3.13626E+04  2.45128E+03  2.30968E+04  1.90532E+04  4.12482E+03  3.55528E+04
 -1.72876E+04  2.96324E+04 -2.72855E+04  9.88023E+03 -2.07663E+04 -1.01219E+04 -4.36065E+03 -1.34932E+04
  2.35115E+03 -3.21118E+03 -4.51012E+03  6.37791E+03 -1.53837E+04  5.25730E+03 -1.58166E+04 -6.36581E+03
 -9.83812E+03 -1.79944E+04  4.77612E+03 -2.19498E+04  1.48139E+04 -1.61976E+04  1.70397E+04 -1.72125E+03
  1.06268E+04  1.23997E+04 -1.27295E+03  1.79116E+04 -1.23186E+04  1.04806E+04 -1.78621E+04 -3.84360E+03
 -1.32375E+04 -1.60300E+04 -1.72281E+03 -2.18828E+04  9.70281E+03 -1.76830E+04  1.79384E+04 -8.72752E+03
  1.68236E+04  2.55756E+02  1.20660E+04  3.89068E+03  6.17153E+03  7.34910E+02  9.19550E+03 -1.44563E+03
  1.64358E+04  2.74691E+03  1.78158E+04  1.43323E+04  1.14163E+04  2.85678E+04 -2.96883E+03  3.16117E+04
 -1.81000E+04  2.48509E+04 -2.94111E+04  1.20937E+04 -3.04549E+04 -2.55192E+03 -2.54970E+04 -1.75252E+04
 -1.13666E+04 -2.52990E+04  8.70896E+03 -2.27451E+04  1.96289E+04 -1.17271E+04  1.77167E+04  4.69917E+03
  6.91678E+03  1.32011E+04 -8.54568E+03  1.15602E+04 -1.50207E+04  2.75350E+03 -1.18264E+04 -9.12446E+03
 -2.61477E+02 -1.42779E+04  7.04806E+03 -1.07732E+04  9.35784E+03 -1.09470E+03  1.86146E+03  5.85990E+03
 -6.49388E+03  1.96796E+03 -5.28167E+03 -5.40263E+03 -8.40375E+01 -1.25102E+04  8.79896E+03 -1.25494E+04
  1.50751E+04 -6.46737E+03  1.54533E+04  3.09186E+03  1.36300E+04  1.16866E+04  6.55218E+03  1.76738E+04
 -2.75429E+03  1.94280E+04 -1.23372E+04  1.24522E+04 -1.42338E+04  3.13693E+03 -9.83130E+03 -2.82507E+03
 -5.22451E+03 -4.45664E+03 -7.50183E+02  1.56092E+03 -2.19598E+03  2.48324E+03 -4.91584E+03  4.15627E+03
 -9.40838E+03 -6.45004E+02 -1.01815E+04 -8.34943E+03 -3.92960E+03 -1.33382E+04  4.24928E+03 -1.00301E+04
  8.55086E+03 -4.21897E+03  6.19498E+03  2.70062E+03  3.58899E+02  3.78593E+03 -4.33010E+03 -1.38422E+02
 -4.43103E+03 -6.35239E+03 -6.79637E+02 -9.25529E+03  5.16013E+03 -9.57266E+03  1.20680E+04 -5.21009E+03
  1.43944E+04  1.02004E+03  1.04101E+04  7.90532E+03  2.15095E+03  1.09028E+04 -6.14454E+03  9.98288E+03
 -8.22892E+03  3.14029E+03 -4.42422E+03 -1.94147E+03  1.42915E+03 -2.74139E+03  5.42330E+03 -1.06694E+03
  4.91819E+03  4.21922E+03  1.24367E+03  7.82597E+03 -5.43377E+03  7.66387E+03 -9.30575E+03  2.22582E+03
 -6.12024E+03 -4.68289E+03  1.57856E+02 -7.94223E+03  4.86561E+03 -3.80047E+03  4.80185E+03  1.32696E+03
  1.01106E+03  4.74371E+03 -5.00323E+03  6.28338E+03 -6.48320E+03  3.01711E+03 -6.58594E+03 -2.04212E+03
 -3.90594E+03 -7.82162E+03  1.51802E+03 -9.19387E+03  7.54677E+03 -5.97169E+03  8.32151E+03  1.46187E+03
  5.81291E+03  6.80532E+03 -3.74472E+01  8.95088E+03 -6.61461E+03  5.47349E+03 -6.97614E+03 -3.33778E+02
 -6.78819E+03 -5.90313E+03 -1.38048E+03 -6.37593E+03  3.32293E+03 -5.42976E+03  4.00690E+03 -2.79112E+03
  3.11462E+03  6.46028E+02  1.11088E+02  1.65749E+03  3.73982E+02 -8.02039E+02  6.50630E+02 -2.92871E+03
  4.96058E+03 -1.44354E+03  7.10195E+03  7.73258E+02  7.56684E+03  4.62070E+03  5.99022E+03  9.76786E+03
 -1.85766E+03  1.08984E+04 -9.64109E+03  8.61790E+03 -1.22792E+04  1.39786E+03 -9.85033E+03 -3.62609E+03
 -4.93886E+03 -8.37828E+03 -7.01135E+02 -6.77854E+03  2.68203E+03 -3.11177E+03  2.58971E+03 -2.38845E+03
  1.65294E+03 -1.81455E+03  2.37800E+03 -2.94805E+03  3.98536E+03 -1.85420E+03  4.31379E+03  1.42322E+02
  5.42135E+03  1.45029E+03  2.12273E+03  4.27382E+03 -1.82215E+03  4.12523E+03 -5.25482E+03  3.84980E+03
 -6.41306E+03 -1.02723E+03 -3.10986E+03 -4.33845E+03 -6.63724E+01 -6.31425E+03  3.84931E+03 -6.71786E+03
  6.77564E+03 -4.11161E+03  8.69511E+03  6.19574E+02  6.46822E+03  5.56724E+03  1.29645E+03  7.72604E+03
 -2.96784E+03  7.06049E+03 -4.12118E+03  2.37259E+03 -2.36141E+03 -1.12734E+03 -9.51549E+02 -8.16125E+02
 -7.22789E+02  3.44243E+02 -1.01804E+03  2.45094E+03 -2.99084E+03  1.40036E+03 -4.82352E+03 -6.98495E+02
 -2.30765E+03 -4.97879E+03  3.97235E+02 -5.96064E+03  3.60019E+03 -5.71308E+03  4.76559E+03 -1.49347E+03
  5.62332E+03  3.19631E+03  2.41540E+03  4.64720E+03 -1.21128E+03  5.78731E+03 -3.60168E+03  3.34385E+03
 -5.12702E+03  6.39286E+02 -4.14987E+03 -3.23503E+03 -6.35508E+02 -4.28916E+03  2.37204E+03 -3.28648E+03
  3.48536E+03 -1.27373E+03  2.55911E+03  7.16327E+02  9.56598E+02  1.89795E+03  7.25310E+02  1.05539E+03
  1.80017E+03  6.54524E+02  1.26922E+03  1.25890E+03  1.64077E+03  2.58799E+03  1.61087E+03  2.14771E+03
 -1.34533E+03  3.71281E+03 -3.67169E+03  4.97008E+03 -4.04509E+03  1.58562E+03 -5.60642E+03 -1.23136E+03
 -2.29480E+03 -4.97888E+03  1.19248E+03 -5.87734E+03  2.78352E+03 -3.15030E+03  4.05313E+03 -8.95769E+02
  3.08998E+03  2.15177E+03  1.11342E+03  2.87088E+03 -1.04623E+03  1.74725E+03 -1.57243E+03 -2.76878E+02
 -6.92266E+02 -2.17222E+03  1.46488E+03 -1.92236E+03  1.70895E+03 -1.10593E+03  1.68817E+03  5.62525E+02
  1.02878E+03  4.17800E+02  8.21607E+02  1.10941E+02 -2.70830E+02  8.84576E+02  1.41553E+03 -1.90904E+02
  4.07770E+02 -1.99566E+02  1.98204E+03  6.73039E+02  4.15327E+02  2.71474E+03 -4.38293E+02  3.53882E+03
 -1.98012E+03  1.58267E+03 -2.54941E+03  3.30536E+02 -2.62883E+03 -1.39685E+03 -3.63846E+02 -1.22418E+03
  3.41014E+02 -1.49102E+03  1.47360E+03 -9.00892E+02  7.82770E+02  1.26428E+03 -4.75010E+02  1.35869E+03
 -1.97026E+03  1.09840E+03 -1.81453E+03 -1.43579E+03 -1.24782E+03 -2.43776E+03  2.82080E+02 -2.26249E+03
  8.09170E+02 -1.21834E+03  1.03144E+03  2.06682E+02  1.76890E+03  3.39218E+02  2.55665E+02  1.54382E+03
 -6.25742E+02  2.24945E+02 -1.20152E+03 -4.45998E+02  6.52064E+02 -1.26569E+03  2.42877E+03 -1.17278E+03
  1.76966E+03  2.74911E+02  2.98754E+03  1.22702E+03  1.44738E+03  2.34997E+03 -4.49077E+02  2.34069E+03
 -2.19732E+03  4.78475E+02 -1.93601E+03 -2.32913E+02 -1.01420E+03 -1.89693E+03  2.83759E+02 -8.50951E+02
  1.99669E+03 -8.43124E+02  1.25462E+03  7.54888E+02  5.08137E+02  1.58318E+03 -4.40172E+01  1.55342E+03
 -6.37008E+02  1.40665E+03 -5.16322E+02  3.58780E+02 -2.79510E+02  6.25647E+02 -8.52891E+02  6.45562E+02
 -8.88313E+02  1.39624E+03 -2.07238E+03  6.72805E+02 -2.29108E+03  1.22875E+02 -2.89699E+03 -1.56858E+03
 -1.07430E+03 -3.36196E+03  5.97072E+02 -3.75035E+03  1.56465E+03 -3.09678E+03  3.64120E+03 -9.89557E+02
  3.12396E+03 -1.33100E+02  1.78512E+03  1.94912E+03 -5.59957E+02  2.14159E+03 -7.71518E+02  1.69810E+03
 -1.24230E+03  7.83864E+02 -7.57496E+02 -4.22476E+02 -6.98532E+02  1.58080E+02 -7.60153E+02 -1.97525E+02
 -1.38967E+03 -6.47603E+00 -5.77138E+02  1.77198E+02  1.79564E+01 -6.49317E+02 -5.85814E+02 -1.06450E+03
  1.41969E+03 -8.94224E+02  8.00313E+02  4.53508E+02  1.32670E+03  1.30265E+03 -2.19975E+02  2.09164E+03
 -1.24970E+03  2.65384E+03 -2.10755E+03  1.60874E+03 -2.30614E+03 -2.72128E+02 -1.64607E+03 -1.79408E+03
 -8.05492E+02 -1.88622E+03  1.31071E+02 -1.72934E+03  7.23992E+02 -7.44299E+02  9.51736E+02  3.63961E+02
  9.71177E+02  5.70413E+02  1.45768E+02  8.32767E+02 -6.57615E+02 -3.77712E+02 -1.14043E+02 -5.53590E+02
  4.99824E+02  3.50255E+02  3.23779E+02  2.19632E+02  1.65792E+02  6.02943E+02  3.37356E+02  4.59618E+02
 -8.70778E+02  1.00436E+03 -8.98086E+02  2.25149E+02 -9.33278E+02 -2.88517E+02  2.25312E+02 -1.28457E+03
  7.70165E+02 -9.76166E+02  5.58165E+02 -2.06888E+02  1.30428E+03 -3.31750E+02  6.78600E+02  1.16179E+03
  3.90831E+02  8.89337E+02 -1.85396E+02  7.93265E+02 -7.92792E+02  8.33862E+02 -5.98021E+02  1.42097E+02
 -2.67160E+02 -7.07576E+01 -1.88187E+02  2.77708E+02 -8.40366E+02  3.19966E+02 -9.06439E+02 -1.75790E+02
 -1.10857E+03  4.68520E+01 -6.12150E+02 -8.65070E+02  8.27522E+02 -1.79319E+03  6.34926E+02 -5.23267E+02
  1.24524E+03 -9.52014E+01 -3.00534E+02  6.01079E+02 -1.77618E+01  1.28498E+03 -1.66043E+02  9.70829E+02
