 $NMID ID='MM_0lb_SNR800_10hz_g40_27.RAW', FMTDAT='(8E13.5)'
 TRAMP=1., VOLUME=1. $END
  3.09923E+05  5.23386E+02  3.37615E+05  2.50712E+05  8.47540E+04  3.38348E+05 -1.32800E+05  2.51500E+05
 -1.90674E+05  8.38130E+04 -1.12242E+05 -3.24252E+04  1.82589E+02 -5.08148E+04  5.37995E+04 -2.48704E+02
  3.54556E+04  5.25913E+04 -1.68266E+04  7.54933E+04 -6.09122E+04  6.36443E+04 -8.46145E+04  3.25048E+04
 -8.18553E+04 -1.12522E+04 -5.74619E+04 -5.22092E+04 -1.50534E+04 -7.07688E+04  2.78156E+04 -4.62367E+04
  4.08911E+04  3.41841E+03  1.63042E+04  4.85154E+04 -3.43324E+04  4.78941E+04 -6.73101E+04 -6.22751E+01
 -5.44969E+04 -5.79197E+04 -7.73341E+03 -7.79483E+04  3.43531E+04 -5.61660E+04  4.90603E+04 -1.79019E+04
  4.45537E+04  1.14806E+04  3.24682E+04  2.62087E+04  1.58533E+04  3.02868E+04 -5.73580E+03  2.77666E+04
 -2.21714E+04  1.22434E+04 -1.82915E+04 -5.69946E+03  6.82866E+03 -7.58430E+03  2.30015E+04  1.32332E+04
  7.08380E+03  3.62818E+04 -3.27171E+04  3.61020E+04 -6.46836E+04  2.18632E+03 -5.83125E+04 -4.40140E+04
 -1.27848E+04 -6.48972E+04  4.08947E+04 -4.65764E+04  5.99619E+04 -2.44004E+03  3.55846E+04  3.32943E+04
 -5.79190E+03  3.81082E+04 -3.09288E+04  1.77340E+04 -3.24911E+04 -3.86722E+03 -1.83787E+04 -1.14316E+04
 -8.82479E+03 -1.41687E+04 -4.49724E+02 -1.87432E+04  7.88559E+03 -2.34629E+04  1.57231E+04 -1.29370E+04
  1.11159E+04  5.83395E+03 -9.20090E+03  1.25717E+04 -2.25195E+04 -5.92906E+03 -8.25943E+03 -3.59738E+04
  2.41560E+04 -4.50291E+04  5.06360E+04 -2.05589E+04  4.74819E+04  2.02392E+04  1.64846E+04  4.57734E+04
 -1.65933E+04  3.48613E+04 -2.66314E+04  1.89966E+03 -1.06197E+04 -2.86792E+04  2.11606E+04 -3.56644E+04
  4.31491E+04 -1.02026E+04  3.85894E+04  2.43629E+04  2.01716E+04  4.90452E+04 -8.17200E+03  5.38317E+04
 -3.40852E+04  3.69488E+04 -4.54543E+04  1.02054E+04 -4.53058E+04 -1.76772E+04 -2.56219E+04 -4.02582E+04
  7.58272E+03 -4.05282E+04  3.33553E+04 -1.63995E+04  3.08568E+04  1.10234E+04  5.08146E+03  2.04295E+04
 -1.35656E+04  8.84894E+03 -1.07144E+04 -7.53777E+03  5.99995E+03 -1.09668E+04  1.83481E+04  5.64067E+03
  1.42477E+04  2.22654E+04 -5.41684E+03  2.61719E+04 -2.29147E+04  1.31998E+04 -3.00586E+04 -4.01038E+03
 -2.35384E+04 -1.81671E+04 -1.01874E+04 -2.28454E+04  4.52009E+03 -2.30199E+04  1.79708E+04 -2.12976E+04
  2.98235E+04 -1.33589E+04  3.58487E+04  3.82910E+03  2.54355E+04  2.28858E+04  4.51656E+03  3.93492E+04
 -1.91510E+04  3.24898E+04 -2.95491E+04  1.14816E+04 -2.18597E+04 -1.00842E+04 -4.83518E+03 -1.31919E+04
  1.33800E+03 -2.05568E+03 -6.62187E+03  7.76809E+03 -1.86700E+04  5.03790E+03 -1.86195E+04 -8.74732E+03
 -1.05709E+04 -2.19286E+04  5.78249E+03 -2.57579E+04  1.75241E+04 -1.82998E+04  2.11590E+04 -1.95587E+03
  1.34507E+04  1.48728E+04 -1.27819E+03  2.16736E+04 -1.49310E+04  1.21403E+04 -2.17081E+04 -4.37413E+03
 -1.58693E+04 -1.94178E+04 -2.31927E+03 -2.60295E+04  1.17178E+04 -2.15411E+04  2.16332E+04 -1.04881E+04
  2.00470E+04  9.63433E+01  1.47346E+04  5.01357E+03  8.47645E+03  1.30984E+03  1.11599E+04 -1.92397E+03
  2.05007E+04  2.63204E+03  2.31311E+04  1.69524E+04  1.55826E+04  3.49299E+04 -2.96578E+03  4.03871E+04
 -2.31125E+04  3.32456E+04 -3.82530E+04  1.66183E+04 -4.00203E+04 -2.94516E+03 -3.28894E+04 -2.34781E+04
 -1.36435E+04 -3.34998E+04  1.17117E+04 -2.95232E+04  2.53803E+04 -1.43728E+04  2.20798E+04  6.91752E+03
  7.57516E+03  1.71371E+04 -1.05273E+04  1.43688E+04 -1.86377E+04  2.62330E+03 -1.39840E+04 -1.18796E+04
 -7.27337E+01 -1.76774E+04  9.82853E+03 -1.32306E+04  1.21052E+04 -1.25573E+03  3.08725E+03  7.89715E+03
 -7.96778E+03  3.58815E+03 -7.94688E+03 -6.89273E+03 -1.03469E+03 -1.64983E+04  1.12265E+04 -1.76229E+04
  2.06693E+04 -9.63950E+03  2.28491E+04  3.30789E+03  2.01982E+04  1.66980E+04  9.05611E+03  2.60451E+04
 -4.84958E+03  2.78452E+04 -1.80575E+04  1.69814E+04 -2.00103E+04  3.54476E+03 -1.36521E+04 -4.60343E+03
 -6.25160E+03 -6.35863E+03 -6.85194E+02  4.55153E+02 -2.42474E+03  3.36402E+03 -6.49299E+03  5.25990E+03
 -1.28417E+04 -4.75227E+02 -1.30694E+04 -1.07639E+04 -5.60431E+03 -1.79485E+04  5.77946E+03 -1.39754E+04
  1.17476E+04 -5.80935E+03  7.93726E+03  3.83351E+03 -3.19490E+02  5.88460E+03 -7.34410E+03 -1.18086E+02
 -6.79528E+03 -9.00403E+03 -1.00889E+03 -1.37917E+04  8.38792E+03 -1.44219E+04  1.73995E+04 -8.01015E+03
  2.07312E+04  2.03289E+03  1.55197E+04  1.26044E+04  3.15504E+03  1.67006E+04 -8.61625E+03  1.40100E+04
 -1.12727E+04  4.14631E+03 -5.79719E+03 -3.16061E+03  2.40681E+03 -3.72526E+03  7.45378E+03 -9.48781E+02
  6.67801E+03  6.27993E+03  1.36146E+03  1.11163E+04 -8.21968E+03  1.06692E+04 -1.37279E+04  2.75314E+03
 -8.89868E+03 -7.26953E+03  1.40169E+02 -1.20997E+04  7.46973E+03 -5.89532E+03  8.03724E+03  2.84230E+03
  1.86258E+03  8.84828E+03 -7.42870E+03  1.00886E+04 -1.12100E+04  4.49967E+03 -1.18154E+04 -3.89360E+03
 -7.00169E+03 -1.32264E+04  3.64582E+03 -1.54421E+04  1.33458E+04 -9.30532E+03  1.45518E+04  2.71177E+03
  8.72528E+03  1.15610E+04 -1.20375E+03  1.42696E+04 -9.75359E+03  7.72030E+03 -1.08706E+04 -1.16914E+03
 -9.25831E+03 -9.16352E+03 -1.33471E+03 -1.05231E+04  5.83548E+03 -8.66778E+03  6.68749E+03 -3.15834E+03
  4.26314E+03  1.75066E+03 -1.16456E+03  1.64954E+03 -3.75828E+02 -2.73762E+03  2.22109E+03 -6.18534E+03
  9.87352E+03 -3.62358E+03  1.32291E+04  1.50847E+03  1.36287E+04  9.47083E+03  8.96966E+03  1.76858E+04
 -4.00522E+03  2.00926E+04 -1.72507E+04  1.50990E+04 -2.22147E+04  2.64224E+03 -1.78427E+04 -7.86563E+03
 -8.90207E+03 -1.45164E+04 -3.73167E+02 -1.23821E+04  4.63580E+03 -7.10710E+03  4.47783E+03 -4.65554E+03
  3.43064E+03 -2.63839E+03  3.35250E+03 -3.51180E+03  5.30600E+03 -2.90944E+03  6.90572E+03 -1.04291E+03
  9.19210E+03  1.98217E+03  4.74846E+03  7.80876E+03 -2.03621E+03  9.52905E+03 -1.00040E+04  7.20736E+03
 -1.25380E+04 -1.32915E+03 -7.56214E+03 -8.50608E+03 -1.08017E+03 -1.35369E+04  7.75849E+03 -1.37979E+04
  1.40666E+04 -7.67845E+03  1.68191E+04  2.00801E+03  1.15083E+04  1.13071E+04  1.57445E+03  1.45939E+04
 -6.21280E+03  1.24137E+04 -8.72245E+03  3.92161E+03 -6.10834E+03 -1.08221E+03 -2.22722E+03 -1.61704E+03
 -7.57444E+02 -1.22259E+02 -2.12554E+03  2.66951E+03 -5.06148E+03  2.24680E+03 -8.83187E+03 -7.15866E+02
 -6.04234E+03 -8.72315E+03  3.52962E+02 -1.19747E+04  7.59918E+03 -1.15295E+04  1.22870E+04 -3.81269E+03
  1.18653E+04  6.17633E+03  5.84936E+03  1.11894E+04 -2.00945E+03  1.23134E+04 -8.91514E+03  7.91369E+03
 -1.13741E+04  9.38524E+02 -9.12322E+03 -7.56834E+03 -9.65480E+02 -9.98592E+03  5.26034E+03 -7.72310E+03
  7.88442E+03 -2.78242E+03  5.35302E+03  2.04341E+03  1.99683E+03  3.77188E+03  1.29671E+03  1.71938E+03
  2.64118E+03  8.90592E+02  2.69954E+03  1.67104E+03  3.29000E+03  4.54353E+03  3.27645E+03  6.47435E+03
 -2.83506E+03  9.75901E+03 -8.33525E+03  1.00281E+04 -1.22669E+04  2.65073E+03 -1.23896E+04 -5.20372E+03
 -6.07930E+03 -1.22264E+04  1.79178E+03 -1.34163E+04  7.53356E+03 -8.70484E+03  9.87545E+03 -2.14039E+03
  7.44239E+03  4.93885E+03  1.93133E+03  6.80273E+03 -3.45914E+03  4.59398E+03 -5.09139E+03 -6.75053E+02
 -2.46102E+03 -5.20513E+03  3.05280E+03 -5.30074E+03  5.26283E+03 -3.01013E+03  5.04276E+03  1.28566E+03
  3.31732E+03  2.60290E+03  1.29620E+03  1.74680E+03 -9.11927E+02  1.56823E+03  1.87019E+03 -4.35318E+02
  1.83090E+03 -6.59590E+02  5.00687E+03  2.26073E+03  3.17904E+03  6.78721E+03 -7.49426E+02  9.14151E+03
 -6.14078E+03  4.97677E+03 -7.56304E+03  1.60148E+03 -7.48725E+03 -2.32913E+03 -2.72500E+03 -4.76523E+03
  4.38874E+02 -4.39789E+03  3.18412E+03 -2.58078E+03  2.64015E+03  2.60871E+03 -1.42367E+03  4.11684E+03
 -4.93212E+03  2.06932E+03 -6.04315E+03 -3.08939E+03 -3.43695E+03 -6.68758E+03  1.16130E+03 -6.64825E+03
  4.12662E+03 -4.39272E+03  4.73154E+03 -7.64706E+02  4.25743E+03  1.75620E+03  7.17629E+02  3.69514E+03
 -2.09576E+03  1.31054E+03 -3.06544E+03 -2.13466E+03  1.11867E+03 -5.35448E+03  5.93306E+03 -4.42629E+03
  7.56269E+03  5.52123E+02  7.61338E+03  5.21948E+03  2.83899E+03  8.03871E+03 -2.93048E+03  7.87401E+03
 -6.46895E+03  3.44456E+03 -6.77793E+03 -1.00686E+03 -3.69031E+03 -5.26481E+03  1.14360E+03 -4.36324E+03
  5.33832E+03 -2.62876E+03  3.83127E+03  2.17183E+03  1.24332E+03  4.45140E+03 -4.24871E+02  3.92664E+03
 -1.77901E+03  2.97846E+03 -1.52293E+03  1.10452E+03 -1.02222E+03  9.23363E+02 -1.09805E+03  1.71245E+03
 -1.94414E+03  3.08972E+03 -5.46960E+03  2.32442E+03 -7.87937E+03 -1.40266E+02 -8.99131E+03 -5.32627E+03
 -4.52738E+03 -1.04644E+04  2.31295E+03 -1.20689E+04  7.59474E+03 -9.60805E+03  1.15874E+04 -3.62329E+03
  1.09017E+04  2.01242E+03  6.67901E+03  7.56488E+03  5.80347E+02  8.05064E+03 -3.23908E+03  6.16445E+03
 -4.44985E+03  2.17268E+03 -2.95489E+03 -1.09083E+03 -1.12683E+03 -3.21547E+02 -6.48686E+02  1.61712E+02
 -1.48165E+03  6.12321E+01 -1.88505E+03 -3.02689E+02 -2.24509E+02 -2.36078E+03 -2.42615E+02 -3.64382E+03
  3.48424E+03 -2.67505E+03  5.02782E+03 -1.44102E+02  5.73663E+03  4.61326E+03  1.52097E+03  7.88449E+03
 -3.67187E+03  9.70693E+03 -8.75829E+03  5.21146E+03 -9.99330E+03 -9.46769E+02 -7.71308E+03 -5.99457E+03
 -3.04846E+03 -8.36002E+03  2.46135E+03 -7.59823E+03  5.53937E+03 -4.63314E+03  5.50401E+03  3.77043E+02
  2.98946E+03  2.95104E+03 -2.17146E+02  2.16274E+03 -1.65723E+03  2.38819E+02  1.30681E+02 -1.44834E+03
  2.32218E+03 -1.08944E+03  3.34640E+03  9.24102E+02  2.36362E+03  2.73335E+03  2.31323E+02  4.44965E+03
 -3.57795E+03  3.65637E+03 -5.58890E+03  4.25807E+02 -5.02569E+03 -3.65286E+03 -5.54084E+02 -6.64540E+03
  3.51663E+03 -5.74296E+03  6.09619E+03 -1.76428E+03  6.46746E+03  1.14222E+03  3.64796E+03  4.85510E+03
  9.96861E+02  5.42829E+03 -2.13384E+03  4.38476E+03 -3.90421E+03  2.12648E+03 -2.89862E+03  1.52696E+02
 -1.73582E+03 -2.67629E+02 -1.72455E+03  7.46133E+02 -2.97631E+03  1.05345E+03 -4.02172E+03 -8.66269E+02
 -4.20654E+03 -2.70659E+03 -1.16557E+03 -5.64864E+03  2.76048E+03 -5.88943E+03  5.05418E+03 -2.80623E+03
  5.51972E+03  7.31284E+02  2.79947E+03  3.44579E+03 -5.15958E+02  5.69376E+03 -4.25549E+03  3.20355E+03
