 $NMID ID='MM_0lb_SNR800_12hz_g50_90.RAW', FMTDAT='(8E13.5)'
 TRAMP=1., VOLUME=1. $END
  3.09700E+05  6.10931E+02  3.38062E+05  2.50708E+05  8.47973E+04  3.37865E+05 -1.32382E+05  2.51444E+05
 -1.90454E+05  8.34825E+04 -1.11769E+05 -3.25574E+04  6.78487E+02 -5.06754E+04  5.36590E+04 -2.06429E+02
  3.57393E+04  5.28748E+04 -1.68134E+04  7.54800E+04 -6.09904E+04  6.36402E+04 -8.46157E+04  3.21168E+04
 -8.18114E+04 -1.19553E+04 -5.77061E+04 -5.21828E+04 -1.53253E+04 -7.01422E+04  2.74528E+04 -4.62817E+04
  4.06459E+04  3.67539E+03  1.63723E+04  4.83325E+04 -3.43283E+04  4.74433E+04 -6.70532E+04  1.36003E+02
 -5.39063E+04 -5.71991E+04 -6.63017E+03 -7.75778E+04  3.40728E+04 -5.57756E+04  4.85758E+04 -1.75113E+04
  4.42746E+04  1.10547E+04  3.23025E+04  2.55999E+04  1.59416E+04  2.98056E+04 -5.54376E+03  2.72247E+04
 -2.24614E+04  1.20681E+04 -1.82500E+04 -4.97791E+03  5.92517E+03 -7.31862E+03  2.29140E+04  1.28129E+04
  6.96134E+03  3.60357E+04 -3.26450E+04  3.62051E+04 -6.45541E+04  2.00528E+03 -5.76862E+04 -4.37247E+04
 -1.26024E+04 -6.43548E+04  4.05411E+04 -4.62018E+04  5.95420E+04 -2.35191E+03  3.50532E+04  3.33190E+04
 -5.82312E+03  3.74484E+04 -3.05741E+04  1.67953E+04 -3.16258E+04 -4.27877E+03 -1.79533E+04 -1.14553E+04
 -8.94036E+03 -1.40633E+04 -4.45729E+02 -1.85139E+04  7.93502E+03 -2.28510E+04  1.59060E+04 -1.29595E+04
  1.08214E+04  5.43822E+03 -9.16011E+03  1.30423E+04 -2.23000E+04 -5.56695E+03 -8.23843E+03 -3.56959E+04
  2.36500E+04 -4.48866E+04  4.94748E+04 -2.02169E+04  4.70071E+04  2.00963E+04  1.64412E+04  4.52429E+04
 -1.60489E+04  3.45754E+04 -2.64417E+04  1.90904E+03 -1.06434E+04 -2.85280E+04  2.11583E+04 -3.52324E+04
  4.27905E+04 -9.83048E+03  3.75320E+04  2.45017E+04  1.92672E+04  4.84771E+04 -8.12305E+03  5.24523E+04
 -3.30430E+04  3.55667E+04 -4.44424E+04  9.93090E+03 -4.43446E+04 -1.77050E+04 -2.41806E+04 -3.99817E+04
  7.48925E+03 -3.94482E+04  3.26401E+04 -1.55650E+04  3.00707E+04  1.11246E+04  4.76479E+03  1.98077E+04
 -1.37256E+04  8.67432E+03 -1.03461E+04 -7.40646E+03  5.92421E+03 -1.12728E+04  1.84532E+04  5.63877E+03
  1.42513E+04  2.20648E+04 -5.60853E+03  2.56746E+04 -2.29356E+04  1.27106E+04 -2.93939E+04 -4.22070E+03
 -2.24347E+04 -1.77605E+04 -9.69031E+03 -2.22254E+04  4.24370E+03 -2.21133E+04  1.73077E+04 -2.00525E+04
  2.86065E+04 -1.33294E+04  3.50009E+04  3.58377E+03  2.52165E+04  2.16051E+04  4.34195E+03  3.83575E+04
 -1.83648E+04  3.16516E+04 -2.87598E+04  1.10160E+04 -2.13925E+04 -1.02500E+04 -4.24898E+03 -1.34183E+04
  1.57436E+03 -2.12622E+03 -6.06141E+03  7.51593E+03 -1.82305E+04  5.27504E+03 -1.79408E+04 -8.05738E+03
 -1.08988E+04 -2.03444E+04  5.76292E+03 -2.50023E+04  1.65717E+04 -1.80921E+04  1.98291E+04 -1.99661E+03
  1.25963E+04  1.43891E+04 -7.43192E+02  2.10430E+04 -1.46763E+04  1.19282E+04 -2.10369E+04 -4.36665E+03
 -1.55549E+04 -1.84967E+04 -1.90957E+03 -2.49997E+04  1.12897E+04 -2.08601E+04  2.10707E+04 -1.02014E+04
  1.91076E+04 -4.79397E+01  1.42260E+04  4.43972E+03  7.59841E+03  1.00127E+03  1.00540E+04 -1.87163E+03
  1.90652E+04  2.76883E+03  2.20025E+04  1.63561E+04  1.47457E+04  3.31769E+04 -2.40050E+03  3.81699E+04
 -2.17532E+04  3.11193E+04 -3.57069E+04  1.57430E+04 -3.75689E+04 -2.68268E+03 -3.12160E+04 -2.16100E+04
 -1.26848E+04 -3.09262E+04  1.08786E+04 -2.78484E+04  2.42914E+04 -1.37671E+04  2.11763E+04  6.50833E+03
  7.27589E+03  1.60426E+04 -1.04772E+04  1.40032E+04 -1.77768E+04  2.50028E+03 -1.35026E+04 -1.13356E+04
 -1.92426E+02 -1.70256E+04  8.93393E+03 -1.26860E+04  1.12427E+04 -1.35714E+03  3.01171E+03  7.20140E+03
 -7.83178E+03  3.35547E+03 -7.08038E+03 -6.23126E+03 -7.09200E+02 -1.49582E+04  1.03144E+04 -1.67500E+04
  1.93949E+04 -8.75804E+03  2.08745E+04  3.06421E+03  1.82283E+04  1.52475E+04  8.48117E+03  2.34959E+04
 -4.48441E+03  2.56525E+04 -1.65236E+04  1.58600E+04 -1.85710E+04  3.65714E+03 -1.28905E+04 -4.21739E+03
 -5.94291E+03 -5.71497E+03 -6.45723E+02  5.89235E+02 -3.03106E+03  3.08310E+03 -6.24383E+03  5.08327E+03
 -1.19764E+04 -6.89932E+02 -1.22467E+04 -1.04799E+04 -5.48407E+03 -1.63545E+04  5.43342E+03 -1.29093E+04
  1.10693E+04 -5.34440E+03  7.67317E+03  3.23182E+03  1.15546E+01  5.04180E+03 -6.04316E+03 -4.92589E+01
 -6.15919E+03 -8.16093E+03 -1.13166E+03 -1.24316E+04  7.04705E+03 -1.35292E+04  1.60753E+04 -7.19711E+03
  1.91670E+04  1.68515E+03  1.39317E+04  1.13310E+04  2.97250E+03  1.51130E+04 -7.87536E+03  1.28519E+04
 -1.05548E+04  4.05125E+03 -5.24765E+03 -2.34742E+03  1.81272E+03 -3.45659E+03  6.49412E+03 -1.12383E+03
  6.25595E+03  5.58977E+03  8.09390E+02  1.01095E+04 -7.06592E+03  9.98784E+03 -1.27004E+04  2.30638E+03
 -8.83089E+03 -6.57515E+03  1.15203E+02 -1.08937E+04  6.84866E+03 -5.51913E+03  6.96310E+03  2.30588E+03
  1.34198E+03  7.44072E+03 -6.24459E+03  9.06647E+03 -1.01370E+04  4.09896E+03 -1.01750E+04 -3.47692E+03
 -5.57793E+03 -1.23218E+04  2.89644E+03 -1.41732E+04  1.17088E+04 -8.35583E+03  1.27714E+04  2.33149E+03
  8.07966E+03  1.02474E+04 -1.13943E+03  1.26432E+04 -9.23521E+03  7.20940E+03 -1.00688E+04 -8.60180E+02
 -8.54382E+03 -8.91649E+03 -1.85578E+03 -9.22030E+03  4.97045E+03 -7.78250E+03  6.12059E+03 -3.39752E+03
  4.19296E+03  1.15995E+03 -3.71194E+02  1.92089E+03  2.80095E+01 -2.08961E+03  1.48864E+03 -4.99933E+03
  8.26921E+03 -3.68517E+03  1.17924E+04  1.36572E+03  1.18913E+04  7.75832E+03  7.98770E+03  1.55645E+04
 -3.28067E+03  1.76424E+04 -1.49719E+04  1.31412E+04 -1.91232E+04  2.27479E+03 -1.55457E+04 -6.34697E+03
 -8.07933E+03 -1.28541E+04 -3.35527E+02 -1.10966E+04  4.07853E+03 -5.65616E+03  3.86799E+03 -3.90259E+03
  2.86697E+03 -2.64066E+03  3.12327E+03 -3.01411E+03  4.52312E+03 -2.73595E+03  6.29327E+03 -7.34326E+02
  8.33196E+03  1.90797E+03  4.00083E+03  7.14710E+03 -1.75467E+03  8.02203E+03 -8.39537E+03  6.12041E+03
 -1.05233E+04 -1.17483E+03 -6.26705E+03 -7.53550E+03 -7.13534E+02 -1.12570E+04  6.16327E+03 -1.13801E+04
  1.15287E+04 -6.25879E+03  1.44198E+04  1.61434E+03  9.92488E+03  9.62811E+03  1.54922E+03  1.25946E+04
 -5.04482E+03  1.07422E+04 -7.77591E+03  3.81798E+03 -5.33380E+03 -1.16556E+03 -1.82627E+03 -1.56032E+03
 -8.85879E+02  1.79706E+02 -1.64055E+03  2.71858E+03 -4.76298E+03  2.01879E+03 -7.61600E+03 -9.90861E+02
 -4.65972E+03 -7.48526E+03  1.88100E+02 -1.04754E+04  6.62805E+03 -9.78418E+03  1.00864E+04 -3.23226E+03
  1.01804E+04  5.33499E+03  4.84304E+03  8.78780E+03 -2.33072E+03  1.04460E+04 -7.12672E+03  6.21094E+03
 -9.87027E+03  6.33027E+02 -7.53162E+03 -6.01149E+03 -6.26242E+02 -8.49425E+03  4.33501E+03 -6.57696E+03
  6.37653E+03 -2.30149E+03  4.49429E+03  1.78816E+03  1.71435E+03  3.07122E+03  1.12762E+03  1.21807E+03
  2.35263E+03  1.13457E+03  2.49858E+03  1.65652E+03  3.12215E+03  4.10965E+03  2.73801E+03  5.29808E+03
 -1.91664E+03  7.87312E+03 -6.84843E+03  8.31545E+03 -1.00978E+04  2.42401E+03 -1.06783E+04 -3.75143E+03
 -4.84418E+03 -1.05513E+04  1.53965E+03 -1.12059E+04  5.99787E+03 -7.25267E+03  8.40706E+03 -1.76134E+03
  6.55887E+03  4.13628E+03  1.61471E+03  6.13845E+03 -2.75832E+03  3.64664E+03 -3.84097E+03 -7.29109E+02
 -1.63538E+03 -4.28923E+03  2.66776E+03 -4.50474E+03  4.00451E+03 -2.13628E+03  4.03756E+03  9.93919E+02
  2.36329E+03  1.85865E+03  9.16692E+02  1.28995E+03 -5.31643E+02  1.85653E+03  1.44211E+03 -4.45934E+02
  1.47281E+03 -9.01004E+02  4.17988E+03  1.44856E+03  1.87849E+03  5.24511E+03 -1.01584E+03  7.23065E+03
 -4.92589E+03  4.18055E+03 -5.92279E+03  1.18714E+03 -5.43671E+03 -2.21651E+03 -1.71989E+03 -3.81227E+03
  8.70266E+02 -3.91447E+03  2.56821E+03 -1.79730E+03  2.15308E+03  2.50560E+03 -8.92267E+02  3.32958E+03
 -4.04841E+03  1.73285E+03 -4.06873E+03 -2.46455E+03 -2.78546E+03 -5.39758E+03  7.55270E+02 -5.42061E+03
  3.01225E+03 -3.02554E+03  3.27801E+03 -1.48261E+02  3.29536E+03  1.24666E+03  6.13452E+02  3.24848E+03
 -1.55627E+03  9.29994E+02 -2.44198E+03 -1.82133E+03  1.27853E+03 -3.63501E+03  5.08041E+03 -3.42012E+03
  6.20624E+03  5.52168E+02  6.31744E+03  3.49585E+03  1.81247E+03  6.21732E+03 -1.97787E+03  5.90079E+03
 -5.09137E+03  2.37686E+03 -5.29076E+03 -8.79659E+02 -2.83652E+03 -4.07700E+03  8.71971E+02 -3.52653E+03
  3.67928E+03 -1.99322E+03  2.93191E+03  1.79060E+03  8.44319E+02  3.42678E+03 -6.41976E+02  3.03596E+03
 -1.53819E+03  1.94952E+03 -1.46755E+03  5.37365E+02 -8.69262E+02  3.44559E+02 -1.21704E+03  1.44570E+03
 -1.55369E+03  2.49329E+03 -4.20519E+03  1.67921E+03 -5.84555E+03  3.33562E+02 -6.98053E+03 -3.89255E+03
 -3.59899E+03 -8.25806E+03  1.71813E+03 -9.18438E+03  5.35618E+03 -7.11294E+03  9.12281E+03 -2.78617E+03
  8.31712E+03  1.43019E+03  5.12332E+03  5.38644E+03 -1.42931E+02  6.41998E+03 -2.51275E+03  4.88541E+03
 -3.96438E+03  1.47327E+03 -1.91379E+03 -7.91157E+02 -1.02078E+03 -5.16180E+02 -3.87005E+02 -1.55525E+01
 -1.42441E+03  3.37199E+01 -1.55476E+03  2.18934E+02 -1.47659E+02 -1.27472E+03  2.11229E+02 -2.43648E+03
  2.81678E+03 -2.26784E+03  3.29349E+03  1.79658E+02  4.21142E+03  3.82299E+03  1.03800E+03  6.12573E+03
 -2.82131E+03  6.92617E+03 -6.06023E+03  4.03887E+03 -7.42032E+03 -9.23786E+02 -5.37758E+03 -4.60837E+03
 -2.37821E+03 -5.84686E+03  1.30206E+03 -5.52288E+03  3.55028E+03 -3.17944E+03  3.70431E+03  2.90069E+02
  2.18546E+03  2.15192E+03 -1.42143E+02  1.73998E+03 -6.57728E+02 -2.75974E+02  1.17239E+02 -1.42808E+03
  1.70260E+03 -7.50484E+02  2.03703E+03  9.92306E+02  1.47164E+03  2.17804E+03  3.23615E+02  2.34793E+03
 -2.48027E+03  2.95012E+03 -3.64094E+03  4.94875E+02 -3.13791E+03 -2.65081E+03 -2.50843E+02 -4.72378E+03
  2.60015E+03 -3.99496E+03  3.88674E+03 -1.20390E+03  4.59986E+03  4.81933E+02  2.24124E+03  3.45803E+03
  7.23936E+02  3.80878E+03 -1.34811E+03  3.72302E+03 -2.10125E+03  1.98770E+03 -1.66978E+03  5.27392E+02
 -1.25172E+03 -6.53462E+02 -8.67660E+02  2.55410E+02 -1.75964E+03  8.60909E+02 -2.97803E+03 -4.33581E+02
 -3.30762E+03 -1.54166E+03 -7.20766E+02 -3.92767E+03  1.83739E+03 -4.12420E+03  3.35169E+03 -1.92435E+03
  3.64249E+03  5.97285E+02  1.49841E+03  1.85733E+03 -2.97675E+02  3.92072E+03 -2.67507E+03  2.47459E+03
