 $NMID ID='MM_0lb_SNR800_12hz_g50_60.RAW', FMTDAT='(8E13.5)'
 TRAMP=1., VOLUME=1. $END
  3.09759E+05  6.11535E+02  3.37953E+05  2.50863E+05  8.46985E+04  3.37903E+05 -1.32557E+05  2.51152E+05
 -1.90480E+05  8.34230E+04 -1.11942E+05 -3.25245E+04  2.98894E+02 -5.04696E+04  5.38124E+04 -2.12557E+02
  3.57769E+04  5.26350E+04 -1.69473E+04  7.56031E+04 -6.09891E+04  6.37856E+04 -8.44835E+04  3.20961E+04
 -8.12873E+04 -1.16244E+04 -5.76870E+04 -5.19094E+04 -1.52982E+04 -6.99247E+04  2.75863E+04 -4.63439E+04
  4.04025E+04  3.66028E+03  1.65377E+04  4.80774E+04 -3.45532E+04  4.77656E+04 -6.74378E+04  7.81328E+01
 -5.40423E+04 -5.70165E+04 -7.12371E+03 -7.80701E+04  3.43286E+04 -5.59202E+04  4.86573E+04 -1.80501E+04
  4.45020E+04  1.14656E+04  3.22022E+04  2.60851E+04  1.62061E+04  2.98919E+04 -5.38977E+03  2.71508E+04
 -2.20682E+04  1.23469E+04 -1.85535E+04 -5.10966E+03  6.41165E+03 -7.63094E+03  2.29919E+04  1.29493E+04
  7.30131E+03  3.61709E+04 -3.29218E+04  3.60284E+04 -6.41442E+04  2.33410E+03 -5.75909E+04 -4.34259E+04
 -1.25097E+04 -6.44385E+04  4.07409E+04 -4.60835E+04  5.93085E+04 -2.42272E+03  3.52666E+04  3.29753E+04
 -5.81127E+03  3.74103E+04 -3.06007E+04  1.71748E+04 -3.14374E+04 -4.02460E+03 -1.76201E+04 -1.14648E+04
 -8.76498E+03 -1.41643E+04 -8.34470E+02 -1.88475E+04  8.05163E+03 -2.30268E+04  1.55295E+04 -1.31909E+04
  1.07605E+04  5.66025E+03 -9.09880E+03  1.25905E+04 -2.20602E+04 -5.34812E+03 -8.53475E+03 -3.50838E+04
  2.37926E+04 -4.47625E+04  4.95122E+04 -2.00016E+04  4.63836E+04  1.96917E+04  1.65578E+04  4.52542E+04
 -1.63972E+04  3.51276E+04 -2.64715E+04  2.33398E+03 -1.04566E+04 -2.83796E+04  2.11916E+04 -3.48707E+04
  4.25913E+04 -9.97871E+03  3.76996E+04  2.44402E+04  1.95819E+04  4.82594E+04 -8.20266E+03  5.26358E+04
 -3.34361E+04  3.58359E+04 -4.43052E+04  1.00262E+04 -4.49869E+04 -1.75918E+04 -2.46175E+04 -3.93419E+04
  7.30629E+03 -3.95218E+04  3.23770E+04 -1.56859E+04  3.07005E+04  1.13151E+04  4.48422E+03  1.99537E+04
 -1.35462E+04  9.14424E+03 -1.09078E+04 -7.58264E+03  5.62781E+03 -1.11084E+04  1.82194E+04  6.01935E+03
  1.40857E+04  2.26275E+04 -5.34879E+03  2.59001E+04 -2.29245E+04  1.28269E+04 -2.96369E+04 -4.06568E+03
 -2.25742E+04 -1.77459E+04 -9.71641E+03 -2.24914E+04  4.39848E+03 -2.19928E+04  1.74676E+04 -2.02104E+04
  2.87777E+04 -1.31577E+04  3.46601E+04  3.43371E+03  2.52857E+04  2.17129E+04  4.31999E+03  3.79556E+04
 -1.87018E+04  3.15726E+04 -2.90111E+04  1.09341E+04 -2.17400E+04 -1.02370E+04 -5.01775E+03 -1.33328E+04
  1.45866E+03 -2.32910E+03 -6.31705E+03  7.61589E+03 -1.79791E+04  5.13246E+03 -1.79277E+04 -8.04661E+03
 -1.09629E+04 -2.13249E+04  5.37263E+03 -2.47933E+04  1.67427E+04 -1.80324E+04  1.98455E+04 -1.78447E+03
  1.22467E+04  1.41173E+04 -9.45608E+02  2.10059E+04 -1.43160E+04  1.18123E+04 -2.08655E+04 -4.26704E+03
 -1.52324E+04 -1.85604E+04 -1.78182E+03 -2.49649E+04  1.11894E+04 -2.07798E+04  2.07469E+04 -1.04790E+04
  1.95938E+04  1.57966E+02  1.39484E+04  4.58597E+03  7.48249E+03  1.06454E+03  1.06925E+04 -1.76155E+03
  1.91554E+04  2.62843E+03  2.18173E+04  1.63553E+04  1.44837E+04  3.31073E+04 -2.94583E+03  3.78320E+04
 -2.18058E+04  3.12762E+04 -3.56222E+04  1.64323E+04 -3.77621E+04 -2.91194E+03 -3.10028E+04 -2.22727E+04
 -1.31811E+04 -3.10608E+04  1.07822E+04 -2.78521E+04  2.38134E+04 -1.35363E+04  2.10467E+04  6.45729E+03
  7.41149E+03  1.62280E+04 -1.01727E+04  1.38076E+04 -1.79367E+04  2.66153E+03 -1.34063E+04 -1.09600E+04
 -6.90818E+01 -1.71210E+04  8.66229E+03 -1.23969E+04  1.11039E+04 -1.13810E+03  2.79272E+03  7.29876E+03
 -7.45351E+03  2.95913E+03 -7.43493E+03 -6.01237E+03 -7.87057E+02 -1.52444E+04  1.03871E+04 -1.62393E+04
  1.92742E+04 -8.95298E+03  2.11130E+04  3.14942E+03  1.83912E+04  1.52583E+04  8.31028E+03  2.36542E+04
 -4.05807E+03  2.51961E+04 -1.64925E+04  1.59429E+04 -1.85414E+04  3.66556E+03 -1.25686E+04 -4.22074E+03
 -5.88356E+03 -5.72913E+03 -9.10039E+02  7.59696E+02 -2.50403E+03  2.98342E+03 -6.03610E+03  4.63199E+03
 -1.18233E+04 -8.67604E+02 -1.20618E+04 -9.98503E+03 -5.05445E+03 -1.62793E+04  5.25811E+03 -1.31993E+04
  1.08839E+04 -5.69799E+03  7.42466E+03  3.44923E+03  5.69607E+01  5.14711E+03 -6.12186E+03 -7.63220E+01
 -5.89069E+03 -8.12464E+03 -1.23060E+03 -1.23897E+04  7.29484E+03 -1.34136E+04  1.60354E+04 -7.26557E+03
  1.93428E+04  1.64676E+03  1.37131E+04  1.10948E+04  2.86269E+03  1.54401E+04 -7.74313E+03  1.28978E+04
 -1.02053E+04  3.69979E+03 -5.31442E+03 -2.78913E+03  1.88724E+03 -3.45246E+03  6.86784E+03 -9.73760E+02
  5.84914E+03  5.64600E+03  1.42752E+03  9.86916E+03 -7.51135E+03  9.87850E+03 -1.27355E+04  2.48215E+03
 -8.36563E+03 -6.68776E+03  6.51431E+02 -1.10347E+04  7.23114E+03 -5.43755E+03  7.19156E+03  2.51597E+03
  1.26193E+03  7.06959E+03 -6.74360E+03  9.13418E+03 -1.04708E+04  3.96300E+03 -1.03464E+04 -3.62094E+03
 -5.99733E+03 -1.19186E+04  2.49662E+03 -1.38531E+04  1.19796E+04 -8.48631E+03  1.28834E+04  2.19372E+03
  7.89195E+03  1.00763E+04 -1.05093E+03  1.22807E+04 -9.03636E+03  6.81112E+03 -9.88869E+03 -1.28092E+03
 -8.62720E+03 -8.19927E+03 -1.03372E+03 -9.14640E+03  4.95480E+03 -7.96452E+03  6.02250E+03 -3.10922E+03
  4.11959E+03  1.17454E+03 -3.46821E+02  1.37635E+03 -2.96565E+02 -1.88528E+03  1.92450E+03 -5.43403E+03
  8.34427E+03 -3.06077E+03  1.15527E+04  1.74635E+03  1.18831E+04  7.86347E+03  7.78199E+03  1.55455E+04
 -3.58893E+03  1.77119E+04 -1.50144E+04  1.32668E+04 -1.97184E+04  2.56654E+03 -1.55095E+04 -6.48774E+03
 -7.56427E+03 -1.28616E+04 -6.02680E+02 -1.07848E+04  3.93115E+03 -5.59042E+03  3.72376E+03 -4.06642E+03
  2.68246E+03 -2.33012E+03  3.15168E+03 -3.31368E+03  4.69818E+03 -2.65043E+03  6.23607E+03 -7.57051E+02
  8.19312E+03  2.10447E+03  4.05957E+03  6.75204E+03 -2.11252E+03  7.46011E+03 -8.49603E+03  6.47579E+03
 -1.06563E+04 -1.27773E+03 -6.49707E+03 -7.38987E+03 -6.37780E+02 -1.15602E+04  6.58968E+03 -1.14486E+04
  1.18693E+04 -6.71223E+03  1.40620E+04  1.56688E+03  9.91956E+03  9.69584E+03  1.77567E+03  1.30770E+04
 -4.86970E+03  1.04984E+04 -7.69227E+03  3.55730E+03 -4.92503E+03 -1.55520E+03 -2.07666E+03 -1.39069E+03
 -1.38559E+03  2.73029E+02 -1.92520E+03  2.68010E+03 -4.56189E+03  1.75149E+03 -7.75187E+03 -1.37438E+03
 -5.06593E+03 -7.11653E+03  1.54144E+02 -1.06158E+04  6.35521E+03 -9.84174E+03  9.93868E+03 -3.07336E+03
  9.79892E+03  5.31782E+03  4.69807E+03  8.88360E+03 -2.17648E+03  1.04717E+04 -7.57847E+03  6.56743E+03
 -9.50897E+03  5.10288E+02 -7.49348E+03 -6.01872E+03 -6.82743E+02 -8.46790E+03  4.28990E+03 -6.13712E+03
  6.20966E+03 -2.32218E+03  4.53754E+03  1.70369E+03  1.31238E+03  3.43986E+03  9.45895E+02  1.56060E+03
  2.41211E+03  7.48917E+02  2.72517E+03  1.47814E+03  3.05381E+03  3.95365E+03  2.85012E+03  5.00043E+03
 -2.43699E+03  7.94497E+03 -7.25527E+03  8.38271E+03 -1.01962E+04  2.66721E+03 -1.06563E+04 -3.97492E+03
 -4.69022E+03 -1.01713E+04  1.47724E+03 -1.13977E+04  6.00579E+03 -7.04779E+03  8.47721E+03 -2.04929E+03
  6.42698E+03  4.08961E+03  1.35465E+03  5.92144E+03 -2.66493E+03  3.65143E+03 -4.05798E+03 -4.52924E+02
 -2.06464E+03 -4.14622E+03  2.43619E+03 -4.32388E+03  4.14372E+03 -2.19558E+03  3.65059E+03  8.38455E+02
  2.39477E+03  1.87672E+03  1.09844E+03  1.33484E+03 -6.83503E+02  1.43713E+03  1.37945E+03 -6.39782E+02
  1.70647E+03 -6.34205E+02  4.43562E+03  1.50489E+03  2.04674E+03  5.33138E+03 -1.35978E+03  7.04051E+03
 -4.56781E+03  4.31580E+03 -6.38749E+03  1.22380E+03 -5.49487E+03 -2.05278E+03 -2.08438E+03 -3.81898E+03
  7.31984E+02 -4.20340E+03  2.68330E+03 -1.59246E+03  2.14876E+03  2.41591E+03 -1.19353E+03  3.07470E+03
 -3.97167E+03  1.92653E+03 -4.80084E+03 -2.35868E+03 -2.37035E+03 -5.30903E+03  6.68295E+02 -5.10648E+03
  2.81623E+03 -2.85774E+03  3.62496E+03 -2.43142E+02  3.62919E+03  1.10250E+03  4.56401E+02  2.79787E+03
 -1.70649E+03  7.93837E+02 -2.65495E+03 -1.61366E+03  5.53028E+02 -4.20987E+03  4.59115E+03 -3.17230E+03
  5.82022E+03  4.02124E+02  6.66543E+03  3.93166E+03  2.50094E+03  6.40598E+03 -2.22903E+03  5.93951E+03
 -4.90443E+03  2.05411E+03 -5.27709E+03 -6.71385E+02 -2.92042E+03 -3.93946E+03  8.68415E+02 -3.80310E+03
  4.27475E+03 -1.89457E+03  3.16190E+03  1.45329E+03  9.86542E+02  3.46263E+03 -6.12536E+02  2.99985E+03
 -1.37264E+03  2.26231E+03 -1.39371E+03  4.44647E+02 -4.12244E+02  6.87182E+02 -1.05081E+03  1.27077E+03
 -1.45642E+03  2.44476E+03 -4.45788E+03  2.26283E+03 -6.05853E+03  1.56112E+02 -7.12539E+03 -3.94732E+03
 -3.46672E+03 -8.05391E+03  1.34977E+03 -9.17780E+03  5.41222E+03 -7.17595E+03  8.60817E+03 -2.85071E+03
  8.23151E+03  1.43373E+03  4.78983E+03  5.45709E+03  7.97227E+01  5.81938E+03 -2.27916E+03  4.67682E+03
 -3.32998E+03  1.78298E+03 -2.07968E+03 -7.46278E+02 -6.97765E+02 -2.61927E+02 -8.47624E+02 -5.55601E+01
 -1.36135E+03  1.40026E+02 -1.44256E+03 -8.49474E+01 -4.62298E+02 -1.60930E+03 -3.79661E+02 -2.16529E+03
  3.55076E+03 -1.92359E+03  3.46591E+03  4.27287E+01  4.29491E+03  3.54287E+03  6.75569E+02  5.76527E+03
 -2.92910E+03  7.09383E+03 -6.44254E+03  4.13972E+03 -7.02469E+03 -6.72810E+02 -5.17727E+03 -4.55755E+03
 -2.49513E+03 -5.87306E+03  1.29338E+03 -5.22439E+03  3.76521E+03 -2.85894E+03  3.76439E+03  1.61581E+02
  2.28724E+03  1.66992E+03  1.65682E+02  1.47471E+03 -1.39929E+03 -7.80505E+01 -9.85042E+01 -1.00475E+03
  1.84607E+03 -6.89218E+02  2.37770E+03  8.33550E+02  1.18281E+03  2.01786E+03  3.06907E+02  2.81114E+03
 -2.80250E+03  2.51727E+03 -3.74323E+03  4.29294E+02 -3.28265E+03 -2.65397E+03 -6.66257E+01 -4.84281E+03
  2.65735E+03 -3.94031E+03  4.03710E+03 -1.09227E+03  4.50463E+03  5.27190E+02  2.68339E+03  3.62141E+03
  8.60103E+02  3.57674E+03 -1.56012E+03  3.14580E+03 -2.50071E+03  1.62538E+03 -1.85548E+03  5.09928E+02
 -9.85195E+02 -2.68836E+02 -1.08865E+03  4.27936E+02 -1.89615E+03  6.50056E+02 -2.84535E+03 -7.20942E+02
 -2.66988E+03 -1.50281E+03 -9.03298E+02 -3.86212E+03  1.68790E+03 -4.29645E+03  3.45868E+03 -1.69778E+03
  3.24267E+03  8.99161E+02  1.60648E+03  2.54070E+03 -4.37579E+02  3.83809E+03 -2.66457E+03  2.55373E+03
