 $NMID ID='MM_0lb_SNR800_19hz_g45_88.RAW', FMTDAT='(8E13.5)'
 TRAMP=1., VOLUME=1. $END
  3.09536E+05  1.95721E+02  3.37169E+05  2.50729E+05  8.42105E+04  3.37363E+05 -1.32311E+05  2.50300E+05
 -1.89641E+05  8.24405E+04 -1.11056E+05 -3.28210E+04  1.73295E+03 -5.04348E+04  5.38659E+04  4.06105E+02
  3.49473E+04  5.28439E+04 -1.70608E+04  7.49557E+04 -6.03624E+04  6.27430E+04 -8.25090E+04  3.11818E+04
 -7.92998E+04 -1.11781E+04 -5.60472E+04 -4.99896E+04 -1.49961E+04 -6.81827E+04  2.67781E+04 -4.45451E+04
  3.89972E+04  4.05801E+03  1.54669E+04  4.66909E+04 -3.39989E+04  4.62477E+04 -6.52532E+04 -6.94638E+02
 -5.20396E+04 -5.59488E+04 -6.24941E+03 -7.49116E+04  3.27403E+04 -5.28262E+04  4.58815E+04 -1.59589E+04
  4.12727E+04  1.11905E+04  3.05087E+04  2.42956E+04  1.60735E+04  2.80897E+04 -4.45098E+03  2.63219E+04
 -2.14492E+04  1.27713E+04 -1.90140E+04 -4.00709E+03  3.93702E+03 -7.35059E+03  2.08153E+04  1.08792E+04
  7.36564E+03  3.30034E+04 -3.01961E+04  3.37354E+04 -6.06234E+04  2.20913E+03 -5.51904E+04 -4.11108E+04
 -1.24083E+04 -6.03109E+04  3.78655E+04 -4.30709E+04  5.53673E+04 -1.85995E+03  3.17710E+04  3.04752E+04
 -6.87319E+03  3.26199E+04 -2.80478E+04  1.29067E+04 -2.71523E+04 -5.63027E+03 -1.42822E+04 -1.00801E+04
 -6.99964E+03 -1.13596E+04 -1.12756E+03 -1.63244E+04  6.71096E+03 -2.23891E+04  1.47739E+04 -1.40133E+04
  1.23108E+04  4.40157E+03 -5.95488E+03  1.31892E+04 -1.91421E+04 -2.22595E+03 -8.09843E+03 -2.99583E+04
  2.05240E+04 -4.01913E+04  4.41749E+04 -1.83841E+04  4.15292E+04  1.80924E+04  1.38308E+04  4.11337E+04
 -1.51198E+04  3.08729E+04 -2.28712E+04  1.04045E+03 -8.24237E+03 -2.61080E+04  2.05497E+04 -3.10230E+04
  3.74909E+04 -6.95469E+03  3.09389E+04  2.24866E+04  1.48351E+04  4.20118E+04 -7.80273E+03  4.45328E+04
 -2.79946E+04  2.91628E+04 -3.66107E+04  8.40214E+03 -3.78588E+04 -1.47048E+04 -2.07693E+04 -3.40062E+04
  6.95619E+03 -3.36910E+04  2.89218E+04 -1.25083E+04  2.66087E+04  1.06198E+04  2.51072E+03  1.74627E+04
 -1.27317E+04  6.91348E+03 -9.40443E+03 -7.48523E+03  6.04301E+03 -1.00198E+04  1.70456E+04  6.58791E+03
  1.22658E+04  2.14399E+04 -6.96415E+03  2.32489E+04 -2.12841E+04  8.86288E+03 -2.46292E+04 -6.51804E+03
 -1.62197E+04 -1.62928E+04 -5.38825E+03 -1.59213E+04  3.65874E+03 -1.42625E+04  1.19127E+04 -1.38141E+04
  2.04651E+04 -1.16449E+04  2.73695E+04  9.52843E+02  2.07890E+04  1.56989E+04  3.84644E+03  3.17268E+04
 -1.59062E+04  2.71682E+04 -2.54647E+04  9.44330E+03 -1.94336E+04 -1.04606E+04 -4.05009E+03 -1.40519E+04
  2.55429E+03 -4.47676E+03 -2.54492E+03  5.58818E+03 -1.24548E+04  5.15462E+03 -1.31574E+04 -4.75643E+03
 -8.22579E+03 -1.52227E+04  4.42410E+03 -1.87899E+04  1.22803E+04 -1.35918E+04  1.39892E+04 -1.38886E+03
  8.73696E+03  1.05487E+04 -7.80960E+02  1.49650E+04 -9.78898E+03  8.68818E+03 -1.47042E+04 -3.26224E+03
 -1.10524E+04 -1.37970E+04 -1.61869E+03 -1.86258E+04  8.48089E+03 -1.50001E+04  1.58923E+04 -6.96096E+03
  1.44006E+04  6.45733E+02  1.00562E+04  3.71419E+03  4.94064E+03  4.41719E+02  7.33839E+03 -1.10722E+03
  1.34333E+04  2.78795E+03  1.41054E+04  1.22644E+04  8.64699E+03  2.39447E+04 -3.01988E+03  2.58269E+04
 -1.52477E+04  1.94299E+04 -2.33819E+04  9.09969E+03 -2.37985E+04 -1.81502E+03 -2.05105E+04 -1.35146E+04
 -9.99671E+03 -1.94681E+04  6.57861E+03 -1.83688E+04  1.59014E+04 -1.07580E+04  1.50499E+04  3.57039E+03
  6.61700E+03  1.07425E+04 -6.93103E+03  1.00382E+04 -1.28300E+04  2.85977E+03 -9.86720E+03 -7.84587E+03
 -5.66833E+00 -1.19355E+04  5.71987E+03 -9.26593E+03  7.60186E+03 -1.36455E+03  1.45610E+03  4.71554E+03
 -5.25819E+03  1.22575E+03 -3.29787E+03 -4.48630E+03  9.49723E+02 -9.97136E+03  7.59086E+03 -9.40272E+03
  1.17134E+04 -4.38400E+03  1.10241E+04  2.73547E+03  9.48691E+03  9.03847E+03  4.68202E+03  1.32509E+04
 -1.28983E+03  1.48821E+04 -8.98642E+03  9.66493E+03 -1.08022E+04  2.76302E+03 -8.14561E+03 -1.73841E+03
 -4.33996E+03 -2.76896E+03 -9.19998E+02  1.70942E+03 -2.08122E+03  1.84357E+03 -3.61641E+03  3.42850E+03
 -7.73762E+03 -4.27548E+02 -8.55885E+03 -6.94460E+03 -3.50887E+03 -1.10041E+04  3.23844E+03 -8.29578E+03
  6.82418E+03 -3.67690E+03  4.84058E+03  2.06451E+03  6.10771E+02  2.96605E+03 -3.53438E+03 -5.88605E+00
 -2.97164E+03 -5.03054E+03 -8.92223E+02 -6.90152E+03  3.40160E+03 -7.51328E+03  9.46424E+03 -3.76287E+03
  1.10113E+04  1.16052E+02  8.20869E+03  5.59891E+03  1.82167E+03  8.04571E+03 -5.13425E+03  8.05592E+03
 -6.70492E+03  2.77572E+03 -3.29039E+03 -1.12873E+03  1.24607E+03 -1.35920E+03  4.75741E+03 -9.86054E+02
  3.99568E+03  3.36634E+03  9.54223E+02  6.17453E+03 -4.53379E+03  6.07691E+03 -7.43337E+03  1.64997E+03
 -4.29905E+03 -3.45049E+03  2.19241E+02 -6.22087E+03  3.42813E+03 -2.85908E+03  3.34523E+03  9.84174E+02
  3.20917E+02  2.83399E+03 -3.94857E+03  4.58709E+03 -4.56136E+03  2.19051E+03 -3.94781E+03 -9.62392E+02
 -2.63259E+03 -5.39794E+03  1.00469E+03 -6.43919E+03  5.62339E+03 -4.24154E+03  5.95252E+03  1.12978E+03
  4.36870E+03  4.90263E+03  3.19056E+02  6.73184E+03 -4.76457E+03  3.91515E+03 -5.14280E+03 -3.08521E+02
 -5.36681E+03 -4.98454E+03 -1.27539E+03 -5.14645E+03  2.44368E+03 -4.39150E+03  2.62067E+03 -3.01840E+03
  2.85303E+03  3.15802E+02 -1.90681E+01  1.36687E+03  6.44350E+02  1.05941E+02 -7.66963E+01 -1.69102E+03
  3.53727E+03 -4.86697E+02  4.73161E+03  8.49564E+02  5.22077E+03  2.97716E+03  5.17914E+03  6.68984E+03
 -1.04978E+03  7.62881E+03 -7.19349E+03  6.09270E+03 -9.59534E+03  9.34220E+02 -7.16049E+03 -2.40505E+03
 -3.98067E+03 -6.16153E+03 -4.42241E+02 -4.84767E+03  2.03998E+03 -2.08316E+03  1.47288E+03 -2.08969E+03
  1.22577E+03 -1.36914E+03  2.07004E+03 -2.27049E+03  3.38027E+03 -1.05078E+03  3.59202E+03  4.19715E+02
  4.13840E+03  1.21860E+03  1.10185E+03  3.23106E+03 -1.57721E+03  2.48842E+03 -4.23781E+03  1.97131E+03
 -4.70610E+03 -9.58183E+02 -1.84980E+03 -3.08535E+03  6.23227E+02 -4.57869E+03  3.01142E+03 -4.96413E+03
  4.57437E+03 -2.70347E+03  6.53331E+03  7.68510E+01  4.41853E+03  3.88605E+03  1.37051E+03  5.41483E+03
 -1.93236E+03  5.55012E+03 -2.86222E+03  1.70160E+03 -1.61912E+03 -8.68780E+02 -4.22920E+02 -5.69647E+02
 -4.45242E+02  2.90951E+02 -1.11051E+03  1.79249E+03 -2.74671E+03  8.26648E+02 -3.80838E+03 -4.07583E+02
 -1.29194E+03 -3.76137E+03  8.08349E+02 -4.18872E+03  2.68251E+03 -4.02333E+03  3.15571E+03 -1.02257E+03
  3.75833E+03  2.30812E+03  1.44535E+03  2.91191E+03 -9.18181E+02  4.08487E+03 -2.30889E+03  2.60849E+03
 -3.58918E+03  5.34560E+02 -3.12724E+03 -2.00058E+03 -3.71775E+02 -2.74963E+03  1.43499E+03 -2.26482E+03
  2.53525E+03 -1.22966E+03  1.65626E+03  2.33807E+02  4.40175E+02  1.67498E+03  8.67888E+02  4.33752E+02
  1.67006E+03  4.29870E+02  9.77395E+02  1.06903E+03  8.56537E+02  2.23809E+03  1.36525E+03  1.30910E+03
 -1.12773E+03  2.75352E+03 -2.46294E+03  4.01199E+03 -2.77712E+03  1.27686E+03 -4.29862E+03 -2.90853E+02
 -1.43426E+03 -3.29808E+03  7.00952E+02 -4.59207E+03  1.36518E+03 -2.51571E+03  2.85169E+03 -7.69087E+02
  2.21678E+03  2.05325E+03  3.29549E+02  2.14293E+03 -5.25849E+02  1.31876E+03 -6.71303E+02 -3.98445E+02
 -4.39987E+02 -1.26472E+03  1.31962E+03 -1.45652E+03  1.14644E+03 -9.40551E+02  1.48474E+03  2.35947E+02
  5.97799E+02  3.87543E+02  5.21637E+02 -3.92689E+02 -2.89715E+02  6.84350E+02  1.43022E+03 -2.45239E+02
  1.37592E+02 -3.03881E+02  1.51322E+03  6.95527E+02  9.81602E+01  1.99882E+03 -5.33813E+02  2.77057E+03
 -1.55436E+03  9.84663E+02 -1.85789E+03  2.59921E+02 -2.08889E+03 -7.51318E+02  9.45627E+00 -9.14419E+02
  1.87617E+02 -1.04805E+03  6.08730E+02 -2.83588E+02  4.82648E+02  1.15061E+03 -5.35507E+02  1.08910E+03
 -1.73366E+03  6.36246E+02 -1.12388E+03 -1.10259E+03 -4.63265E+02 -2.11231E+03 -3.76356E+01 -1.33260E+03
  3.47359E+02 -5.39815E+02  6.06700E+02  1.43938E+02  1.17932E+03 -1.94585E+02  5.45066E+02  7.54020E+02
 -5.26565E+02 -7.31474E+01 -8.03416E+02  8.98710E+01  8.22191E+02 -8.70170E+02  1.69198E+03 -7.02022E+02
  1.07879E+03  1.65808E+02  2.58219E+03  7.70925E+02  1.10931E+03  1.48943E+03 -3.70276E-01  1.86695E+03
 -1.34437E+03  2.83907E+02 -1.30781E+03  1.04913E+02 -6.25473E+02 -1.24643E+03  2.72868E+02 -4.89662E+02
  1.34664E+03 -7.67163E+02  4.93251E+02  5.41852E+02  2.21097E+02  8.58672E+02  3.52990E+02  9.85680E+02
 -3.85046E+02  9.63690E+02 -4.42519E+02  1.87960E+02  4.56940E+00  5.63710E+02 -7.82149E+02  3.93558E+02
 -3.96813E+02  1.01009E+03 -1.90291E+03  1.11431E+02 -1.77476E+03  2.97726E+02 -2.21750E+03 -6.05574E+02
 -9.55714E+02 -1.91238E+03  4.68942E+02 -2.41710E+03  6.76196E+02 -2.22970E+03  2.56937E+03 -1.06468E+03
  2.24798E+03 -3.73143E+01  1.07219E+03  1.30390E+03 -4.40119E+02  1.23219E+03 -4.47984E+02  1.26025E+03
 -9.85675E+02  8.61904E+02 -4.38004E+02 -1.10471E+02 -1.33550E+02  1.71395E+02 -4.17353E+02  1.12334E+02
 -1.10386E+03 -1.71226E+02 -8.26748E+02  2.42753E+02  1.35059E+02 -5.77862E+02 -5.02716E+02 -8.25246E+02
  1.03553E+03 -5.04183E+02  4.53673E+02 -2.61730E+02  1.22518E+03  1.08327E+03 -4.85448E+02  1.24678E+03
 -9.43682E+02  2.29920E+03 -1.19517E+03  1.03911E+03 -1.48597E+03 -1.92111E+01 -1.26868E+03 -1.22827E+03
 -1.03995E+03 -1.28641E+03  1.11096E+02 -1.14220E+03  2.16455E+02 -8.53533E+02  3.25253E+02 -1.94850E+02
  8.27301E+02  1.72475E+02  9.88467E+01  2.77054E+02 -3.67505E+02 -1.24482E+02 -3.29790E+02 -1.91164E+02
  5.36256E+02  2.93934E+02 -4.15580E+00  5.24394E+02  1.76684E+02  5.30264E+02  4.75276E+02  2.55485E+02
 -7.21228E+02  5.56364E+02 -3.65304E+02  3.03555E+02 -7.50988E+02 -3.99526E+02  1.64965E+02 -9.00736E+02
  7.71944E+02 -7.13808E+02  5.38717E+02  1.86411E+01  8.16110E+02 -5.18837E+02  2.60839E+02  8.74841E+02
  2.88757E+02  6.05339E+02 -1.49735E+02  8.22505E+02 -6.77062E+02  3.45997E+02 -3.07568E+02  3.45543E+02
 -4.77732E+01 -6.12876E+01 -6.45288E+02  4.07681E+01 -2.51352E+02 -1.62486E+02 -9.12738E+02 -1.64308E+02
 -1.03626E+03  5.40126E+02 -1.58245E+02 -9.24410E+02  6.14640E+02 -1.51052E+03  7.67948E+02 -2.21071E+01
  4.66776E+02 -4.60566E+01 -4.89683E+02  1.11910E+02 -2.52139E+02  6.07798E+02 -4.42686E+02  7.42564E+02
