 $NMID ID='MM_0lb_SNR800_10hz_g55_98.RAW', FMTDAT='(8E13.5)'
 TRAMP=1., VOLUME=1. $END
  3.10024E+05  4.52683E+02  3.37937E+05  2.50310E+05  8.52136E+04  3.38866E+05 -1.32658E+05  2.51914E+05
 -1.90884E+05  8.39161E+04 -1.12579E+05 -3.24007E+04  2.91150E+02 -5.11280E+04  5.38249E+04 -2.75529E+02
  3.53183E+04  5.27657E+04 -1.66217E+04  7.54828E+04 -6.10266E+04  6.43879E+04 -8.51874E+04  3.24477E+04
 -8.23150E+04 -1.19581E+04 -5.82889E+04 -5.22135E+04 -1.50771E+04 -7.09808E+04  2.76315E+04 -4.68085E+04
  4.10005E+04  3.86603E+03  1.66546E+04  4.89131E+04 -3.47483E+04  4.84139E+04 -6.81981E+04  3.42980E+02
 -5.46854E+04 -5.78039E+04 -6.68866E+03 -7.85643E+04  3.45356E+04 -5.72100E+04  4.94515E+04 -1.84308E+04
  4.52032E+04  1.14495E+04  3.29268E+04  2.63147E+04  1.59605E+04  3.04955E+04 -6.05550E+03  2.74927E+04
 -2.29211E+04  1.14288E+04 -1.81180E+04 -5.78493E+03  6.95584E+03 -7.80931E+03  2.33120E+04  1.38095E+04
  7.26901E+03  3.74097E+04 -3.37922E+04  3.69235E+04 -6.56262E+04  1.98730E+03 -5.88849E+04 -4.48632E+04
 -1.28814E+04 -6.57816E+04  4.13577E+04 -4.74586E+04  6.12435E+04 -2.27485E+03  3.70778E+04  3.48417E+04
 -5.44470E+03  3.91800E+04 -3.19987E+04  1.85924E+04 -3.32837E+04 -3.56806E+03 -1.92223E+04 -1.19378E+04
 -9.63165E+03 -1.47126E+04 -7.31634E+02 -1.98852E+04  8.50367E+03 -2.33617E+04  1.60945E+04 -1.27582E+04
  1.06900E+04  6.22820E+03 -1.01988E+04  1.26296E+04 -2.34453E+04 -6.25120E+03 -8.58068E+03 -3.74742E+04
  2.48476E+04 -4.61401E+04  5.18511E+04 -2.08784E+04  4.82426E+04  2.05254E+04  1.70778E+04  4.71644E+04
 -1.65120E+04  3.61108E+04 -2.73220E+04  2.67597E+03 -1.14146E+04 -2.91676E+04  2.16528E+04 -3.67162E+04
  4.42389E+04 -1.08597E+04  3.99241E+04  2.49934E+04  2.08480E+04  5.04027E+04 -8.19574E+03  5.57848E+04
 -3.50399E+04  3.79253E+04 -4.69726E+04  1.11616E+04 -4.68098E+04 -1.83732E+04 -2.58921E+04 -4.19822E+04
  7.87729E+03 -4.17384E+04  3.41438E+04 -1.67712E+04  3.19601E+04  1.13287E+04  5.31620E+03  2.11433E+04
 -1.39726E+04  9.50643E+03 -1.11670E+04 -7.79287E+03  5.50358E+03 -1.15248E+04  1.85565E+04  5.43293E+03
  1.44951E+04  2.25470E+04 -5.19769E+03  2.70642E+04 -2.31388E+04  1.41636E+04 -3.13821E+04 -2.82612E+03
 -2.51532E+04 -1.82320E+04 -1.11370E+04 -2.48117E+04  4.15788E+03 -2.51526E+04  1.95899E+04 -2.26444E+04
  3.16761E+04 -1.41021E+04  3.74671E+04  4.61412E+03  2.67128E+04  2.39087E+04  4.46901E+03  4.08142E+04
 -1.99058E+04  3.34970E+04 -3.04543E+04  1.17613E+04 -2.26718E+04 -1.04667E+04 -4.98809E+03 -1.26968E+04
  6.73428E+02 -1.60232E+03 -7.68286E+03  8.27265E+03 -2.01719E+04  5.23287E+03 -1.96406E+04 -9.23731E+03
 -1.12045E+04 -2.31173E+04  6.11408E+03 -2.71372E+04  1.84880E+04 -1.98780E+04  2.19573E+04 -2.22157E+03
  1.41984E+04  1.54289E+04 -1.36060E+03  2.27729E+04 -1.64671E+04  1.29160E+04 -2.35245E+04 -5.19656E+03
 -1.66857E+04 -2.05099E+04 -2.04222E+03 -2.74150E+04  1.24397E+04 -2.30642E+04  2.28903E+04 -1.16519E+04
  2.14358E+04 -2.81101E+02  1.55814E+04  4.87993E+03  8.64404E+03  1.11324E+03  1.17786E+04 -2.07961E+03
  2.16576E+04  2.59927E+03  2.50741E+04  1.81412E+04  1.67986E+04  3.72246E+04 -2.61031E+03  4.32172E+04
 -2.44352E+04  3.58007E+04 -4.09626E+04  1.86775E+04 -4.39240E+04 -3.07658E+03 -3.51038E+04 -2.54376E+04
 -1.42431E+04 -3.56245E+04  1.28449E+04 -3.14170E+04  2.69014E+04 -1.50767E+04  2.36995E+04  7.59991E+03
  8.06558E+03  1.79639E+04 -1.11915E+04  1.51272E+04 -1.94465E+04  2.76679E+03 -1.53583E+04 -1.27955E+04
 -1.32156E+02 -1.91818E+04  1.01463E+04 -1.41905E+04  1.28820E+04 -1.21696E+03  3.09398E+03  8.75147E+03
 -8.45509E+03  3.81090E+03 -8.83380E+03 -6.52080E+03 -1.82439E+03 -1.73388E+04  1.13275E+04 -1.91959E+04
  2.23454E+04 -1.08185E+04  2.51170E+04  3.11753E+03  2.20191E+04  1.78535E+04  1.01585E+04  2.83562E+04
 -5.17578E+03  3.01545E+04 -1.95633E+04  1.86513E+04 -2.18151E+04  4.05484E+03 -1.49386E+04 -5.77271E+03
 -6.13588E+03 -6.90179E+03 -7.67743E+02  1.53214E+02 -2.92657E+03  3.63448E+03 -7.09577E+03  5.50927E+03
 -1.36684E+04 -6.19404E+02 -1.43239E+04 -1.13376E+04 -5.59422E+03 -1.90717E+04  5.94778E+03 -1.50475E+04
  1.25411E+04 -6.23834E+03  8.81398E+03  3.78643E+03 -5.33210E+02  6.09347E+03 -7.71371E+03 -3.10266E+02
 -7.23096E+03 -9.66751E+03 -1.06302E+03 -1.48281E+04  8.59394E+03 -1.54404E+04  1.90194E+04 -8.79928E+03
  2.21510E+04  2.20101E+03  1.62724E+04  1.35698E+04  3.62201E+03  1.80653E+04 -9.11563E+03  1.49959E+04
 -1.21170E+04  4.58725E+03 -6.49213E+03 -2.94327E+03  1.87708E+03 -4.27929E+03  8.44640E+03 -1.03576E+03
  6.97373E+03  6.65370E+03  1.18651E+03  1.22531E+04 -9.02396E+03  1.11963E+04 -1.50868E+04  2.96614E+03
 -1.03418E+04 -7.92404E+03  1.13141E+02 -1.33682E+04  8.85454E+03 -6.55968E+03  8.57341E+03  3.07698E+03
  2.42053E+03  9.57311E+03 -8.20465E+03  1.09525E+04 -1.31052E+04  4.90540E+03 -1.34748E+04 -5.00820E+03
 -7.75985E+03 -1.50097E+04  4.02032E+03 -1.70933E+04  1.44372E+04 -1.04319E+04  1.61359E+04  2.60483E+03
  9.64773E+03  1.27131E+04 -1.32583E+03  1.51525E+04 -1.13058E+04  8.36527E+03 -1.22155E+04 -1.23884E+03
 -1.04272E+04 -9.78770E+03 -1.81709E+03 -1.10373E+04  5.99924E+03 -9.32637E+03  7.38588E+03 -3.14946E+03
  4.80619E+03  1.88295E+03 -1.01675E+03  1.91420E+03 -6.55017E+02 -2.74755E+03  2.50260E+03 -6.86015E+03
  1.07583E+04 -4.52840E+03  1.53715E+04  1.63163E+03  1.47799E+04  1.03060E+04  9.83879E+03  1.99256E+04
 -4.78447E+03  2.26577E+04 -1.89125E+04  1.64217E+04 -2.43272E+04  3.47282E+03 -1.98017E+04 -8.48849E+03
 -9.80214E+03 -1.59104E+04 -3.00264E+02 -1.36646E+04  5.05231E+03 -7.70483E+03  4.82229E+03 -5.04427E+03
  3.48651E+03 -3.02147E+03  3.89487E+03 -3.82178E+03  5.64499E+03 -3.54908E+03  7.78986E+03 -8.94367E+02
  1.05110E+04  2.03111E+03  5.31801E+03  8.41033E+03 -2.14704E+03  1.06041E+04 -1.06669E+04  8.31518E+03
 -1.35067E+04 -1.04526E+03 -8.60416E+03 -9.93809E+03 -1.37404E+03 -1.46647E+04  8.31417E+03 -1.49255E+04
  1.51605E+04 -8.18628E+03  1.81281E+04  2.46137E+03  1.26031E+04  1.28619E+04  2.15021E+03  1.68313E+04
 -6.69102E+03  1.33692E+04 -9.44501E+03  4.51170E+03 -6.91317E+03 -1.87324E+03 -2.77482E+03 -1.66897E+03
 -1.00281E+03 -2.49022E+02 -2.23255E+03  2.80702E+03 -5.91145E+03  2.50717E+03 -9.49236E+03 -1.39541E+03
 -6.85712E+03 -9.59067E+03 -3.25640E+02 -1.35701E+04  7.92229E+03 -1.27339E+04  1.35779E+04 -4.29148E+03
  1.34453E+04  6.99538E+03  6.59245E+03  1.23486E+04 -2.61329E+03  1.41195E+04 -9.91499E+03  8.59642E+03
 -1.31752E+04  6.32073E+02 -1.00009E+04 -7.91965E+03 -9.76060E+02 -1.13188E+04  5.53353E+03 -8.39727E+03
  8.79605E+03 -2.85412E+03  5.91233E+03  2.56790E+03  2.32773E+03  4.22830E+03  1.27663E+03  1.91657E+03
  2.28891E+03  1.32587E+03  3.14422E+03  1.87963E+03  4.05127E+03  4.77461E+03  3.41464E+03  7.00164E+03
 -3.04855E+03  1.10793E+04 -9.71104E+03  1.07371E+04 -1.38589E+04  2.97863E+03 -1.42397E+04 -5.98263E+03
 -6.85946E+03 -1.35622E+04  2.15754E+03 -1.50305E+04  8.19623E+03 -9.85851E+03  1.10471E+04 -2.60705E+03
  8.57211E+03  5.11672E+03  1.87359E+03  8.07200E+03 -4.00287E+03  5.07302E+03 -5.38039E+03 -7.00652E+02
 -2.67233E+03 -6.10910E+03  3.13327E+03 -5.92513E+03  5.63594E+03 -3.24392E+03  5.65539E+03  1.38404E+03
  3.12379E+03  2.60687E+03  1.69672E+03  2.20253E+03 -8.80436E+02  1.91316E+03  1.67434E+03 -5.47498E+02
  1.86966E+03 -8.05545E+02  5.38315E+03  2.56486E+03  2.86269E+03  7.39623E+03 -1.62498E+03  9.72654E+03
 -6.56061E+03  5.90294E+03 -8.94832E+03  1.30160E+03 -7.85254E+03 -3.55400E+03 -2.87530E+03 -5.15089E+03
  7.61521E+02 -5.46901E+03  3.24804E+03 -2.44848E+03  2.84680E+03  2.86034E+03 -1.22724E+03  5.03882E+03
 -5.72265E+03  2.72174E+03 -6.45925E+03 -3.03111E+03 -4.00272E+03 -7.71202E+03  9.49692E+02 -7.57338E+03
  4.25703E+03 -4.61681E+03  5.30531E+03 -6.17968E+02  4.36605E+03  1.97757E+03  5.63598E+02  3.88949E+03
 -2.58947E+03  1.46129E+03 -3.27998E+03 -2.70447E+03  1.24091E+03 -5.67013E+03  6.53925E+03 -4.75832E+03
  8.50458E+03  7.52343E+02  8.42766E+03  5.62649E+03  2.43045E+03  9.53016E+03 -3.02623E+03  8.45126E+03
 -6.94987E+03  3.86278E+03 -7.65895E+03 -1.17761E+03 -4.18639E+03 -5.80012E+03  1.69245E+03 -5.57420E+03
  5.72920E+03 -2.76563E+03  4.57649E+03  2.54917E+03  1.32119E+03  4.80020E+03 -1.00198E+03  4.69232E+03
 -1.98673E+03  2.62137E+03 -2.07201E+03  8.49718E+02 -1.10840E+03  1.03185E+03 -1.20300E+03  1.64582E+03
 -2.48452E+03  3.53155E+03 -6.02772E+03  2.82453E+03 -8.82856E+03  3.87470E+02 -9.85345E+03 -5.91702E+03
 -5.13193E+03 -1.19837E+04  2.14116E+03 -1.33364E+04  7.89651E+03 -1.05429E+04  1.29655E+04 -3.82444E+03
  1.20706E+04  2.19232E+03  6.77400E+03  8.28919E+03  6.42257E+02  9.06558E+03 -3.43743E+03  6.85399E+03
 -5.39762E+03  3.04121E+03 -2.58426E+03 -8.22060E+02 -9.54727E+02 -5.66000E+02 -7.89831E+02 -2.32313E+02
 -1.65120E+03  5.43158E+02 -2.01569E+03 -1.29871E+02 -1.17831E+02 -2.32360E+03  2.27612E+02 -3.41572E+03
  4.16672E+03 -3.39029E+03  5.53576E+03  3.07695E+02  6.49681E+03  5.16344E+03  1.73037E+03  9.28753E+03
 -4.31742E+03  1.05657E+04 -9.28803E+03  6.20895E+03 -1.05934E+04 -9.75738E+02 -8.16620E+03 -7.08813E+03
 -3.34429E+03 -9.22923E+03  2.12513E+03 -8.41108E+03  5.75586E+03 -4.61255E+03  6.25260E+03  3.31983E+02
  3.17148E+03  3.31696E+03 -4.32227E+02  2.47809E+03 -1.37603E+03 -3.58254E+02  1.15300E+02 -2.29436E+03
  2.36927E+03 -8.95473E+02  3.43135E+03  1.07501E+03  2.01968E+03  3.43814E+03  1.67849E+02  4.15176E+03
 -4.21385E+03  3.87476E+03 -5.89081E+03  2.92462E+02 -5.62995E+03 -4.21083E+03 -7.11504E+02 -7.67199E+03
  3.92214E+03 -6.37840E+03  6.93747E+03 -2.06136E+03  7.04367E+03  1.94949E+03  3.38966E+03  5.60367E+03
  8.70137E+02  5.68163E+03 -2.48013E+03  4.92990E+03 -3.80792E+03  2.88481E+03 -3.24781E+03  4.25249E+02
 -2.05835E+03 -3.55456E+02 -1.62482E+03  8.49487E+02 -3.16133E+03  1.13738E+03 -4.77840E+03 -7.90498E+02
 -4.53914E+03 -3.00307E+03 -1.64516E+03 -5.91870E+03  2.96401E+03 -6.39277E+03  5.53603E+03 -2.66802E+03
  5.75158E+03  8.32024E+02  3.02838E+03  3.95211E+03 -1.35459E+01  6.13904E+03 -4.67340E+03  4.12104E+03
