 $NMID ID='MM_0lb_SNR800_18hz_g45_37.RAW', FMTDAT='(8E13.5)'
 TRAMP=1., VOLUME=1. $END
  3.09791E+05  5.31618E+02  3.37389E+05  2.50537E+05  8.43295E+04  3.37289E+05 -1.32584E+05  2.50462E+05
 -1.89947E+05  8.23390E+04 -1.11001E+05 -3.28153E+04  1.44588E+03 -5.04614E+04  5.38980E+04  3.15141E+02
  3.52667E+04  5.30107E+04 -1.69193E+04  7.49961E+04 -6.08769E+04  6.28739E+04 -8.32135E+04  3.16688E+04
 -7.95086E+04 -1.11919E+04 -5.65526E+04 -5.02208E+04 -1.49189E+04 -6.81209E+04  2.66087E+04 -4.49642E+04
  3.89916E+04  3.94737E+03  1.54941E+04  4.67189E+04 -3.41189E+04  4.61930E+04 -6.53061E+04 -6.58508E+02
 -5.20214E+04 -5.61049E+04 -6.50445E+03 -7.53152E+04  3.31568E+04 -5.31154E+04  4.61141E+04 -1.65484E+04
  4.17249E+04  1.10083E+04  3.08586E+04  2.45062E+04  1.59207E+04  2.82578E+04 -4.76299E+03  2.66659E+04
 -2.16995E+04  1.27817E+04 -1.90637E+04 -4.19120E+03  4.43246E+03 -7.61321E+03  2.14237E+04  1.13371E+04
  7.43886E+03  3.32820E+04 -3.04661E+04  3.39203E+04 -6.12316E+04  2.28706E+03 -5.57463E+04 -4.12282E+04
 -1.23883E+04 -6.08916E+04  3.84305E+04 -4.35467E+04  5.53750E+04 -1.99793E+03  3.18187E+04  3.03476E+04
 -6.41962E+03  3.33822E+04 -2.84961E+04  1.37426E+04 -2.75999E+04 -5.36292E+03 -1.47076E+04 -1.03207E+04
 -7.37463E+03 -1.15763E+04 -6.00941E+02 -1.66471E+04  6.52847E+03 -2.29526E+04  1.49023E+04 -1.37775E+04
  1.23708E+04  4.39806E+03 -6.41584E+03  1.33665E+04 -1.93060E+04 -2.50369E+03 -7.93381E+03 -3.05190E+04
  2.07869E+04 -4.04492E+04  4.49744E+04 -1.88142E+04  4.19075E+04  1.82650E+04  1.46729E+04  4.18939E+04
 -1.51558E+04  3.09582E+04 -2.34066E+04  1.17193E+03 -8.31829E+03 -2.66825E+04  2.05648E+04 -3.13610E+04
  3.80550E+04 -7.42583E+03  3.15798E+04  2.27734E+04  1.54431E+04  4.29223E+04 -7.90938E+03  4.56600E+04
 -2.86683E+04  3.00121E+04 -3.75635E+04  8.45562E+03 -3.85538E+04 -1.50982E+04 -2.13394E+04 -3.44990E+04
  7.09445E+03 -3.44708E+04  2.92247E+04 -1.31647E+04  2.68463E+04  1.05213E+04  2.84869E+03  1.77783E+04
 -1.31660E+04  7.23767E+03 -9.49588E+03 -7.63392E+03  6.07615E+03 -1.01608E+04  1.73323E+04  6.07355E+03
  1.24156E+04  2.12681E+04 -6.65265E+03  2.33624E+04 -2.14059E+04  9.18639E+03 -2.50055E+04 -6.13681E+03
 -1.67815E+04 -1.65959E+04 -5.61794E+03 -1.71407E+04  3.93512E+03 -1.48843E+04  1.24598E+04 -1.47783E+04
  2.15794E+04 -1.17091E+04  2.79129E+04  1.14754E+03  2.17303E+04  1.62641E+04  4.12955E+03  3.24711E+04
 -1.61984E+04  2.77423E+04 -2.59865E+04  9.55907E+03 -1.97421E+04 -1.05907E+04 -4.22445E+03 -1.41024E+04
  2.51917E+03 -3.87318E+03 -2.74479E+03  5.40450E+03 -1.30177E+04  5.25570E+03 -1.36489E+04 -5.24244E+03
 -8.45471E+03 -1.57728E+04  4.36223E+03 -1.94443E+04  1.26694E+04 -1.41919E+04  1.46733E+04 -1.22198E+03
  9.21419E+03  1.07056E+04 -7.04168E+02  1.58625E+04 -1.02703E+04  9.02654E+03 -1.58774E+04 -3.21800E+03
 -1.17991E+04 -1.43154E+04 -1.50809E+03 -1.91648E+04  8.59531E+03 -1.57176E+04  1.63879E+04 -7.55169E+03
  1.47143E+04  7.08558E+02  1.05479E+04  3.77893E+03  5.38255E+03  5.63577E+02  7.62257E+03 -1.41086E+03
  1.41406E+04  2.94561E+03  1.49711E+04  1.28516E+04  9.43204E+03  2.47896E+04 -3.13217E+03  2.67825E+04
 -1.60183E+04  2.07300E+04 -2.48316E+04  9.76145E+03 -2.53777E+04 -1.97508E+03 -2.18540E+04 -1.43960E+04
 -9.93626E+03 -2.06785E+04  7.23311E+03 -1.94956E+04  1.70197E+04 -1.07317E+04  1.57924E+04  3.66668E+03
  6.55011E+03  1.16626E+04 -7.21968E+03  1.06891E+04 -1.36887E+04  3.03994E+03 -1.05676E+04 -8.07302E+03
 -1.86236E+02 -1.26624E+04  6.49361E+03 -9.46335E+03  8.22739E+03 -1.39973E+03  1.48207E+03  4.72163E+03
 -5.62202E+03  1.53478E+03 -3.80135E+03 -4.44911E+03  6.17766E+02 -1.04875E+04  7.79324E+03 -1.03767E+04
  1.26884E+04 -4.99563E+03  1.23025E+04  2.76086E+03  1.05664E+04  9.86212E+03  5.03662E+03  1.43867E+04
 -1.76339E+03  1.63623E+04 -9.83068E+03  1.03562E+04 -1.16498E+04  3.17304E+03 -8.57776E+03 -1.73601E+03
 -4.69962E+03 -3.56623E+03 -7.99728E+02  1.67139E+03 -1.96657E+03  1.78063E+03 -3.83223E+03  3.56804E+03
 -8.13433E+03 -6.75012E+02 -8.82075E+03 -7.29910E+03 -3.36478E+03 -1.16600E+04  3.42203E+03 -8.41998E+03
  7.25800E+03 -3.83197E+03  5.34594E+03  2.10615E+03  6.12838E+02  3.06943E+03 -3.50537E+03 -2.12264E+02
 -3.26160E+03 -5.20727E+03 -7.06226E+02 -7.22349E+03  4.22141E+03 -8.13242E+03  9.98272E+03 -4.17964E+03
  1.21186E+04  5.69466E+02  9.19645E+03  6.19961E+03  2.05734E+03  9.02773E+03 -5.52650E+03  8.71061E+03
 -7.08464E+03  2.86262E+03 -3.76595E+03 -1.18652E+03  1.42928E+03 -1.77599E+03  5.24383E+03 -7.64769E+02
  4.02983E+03  3.75831E+03  8.73819E+02  6.44877E+03 -4.32503E+03  6.62910E+03 -7.99881E+03  1.82665E+03
 -4.97044E+03 -3.70298E+03  4.28656E+02 -6.71542E+03  3.78973E+03 -3.60158E+03  3.71157E+03  9.77349E+02
  6.40565E+02  3.52830E+03 -4.25578E+03  4.89974E+03 -5.17951E+03  2.27686E+03 -4.67524E+03 -1.35759E+03
 -3.20097E+03 -6.57561E+03  1.33425E+03 -7.17401E+03  5.94147E+03 -4.58815E+03  6.71157E+03  1.01393E+03
  4.93645E+03  5.37173E+03 -5.28414E+01  7.15540E+03 -5.16482E+03  4.24858E+03 -5.34528E+03 -4.03349E+02
 -6.08594E+03 -5.25434E+03 -1.33317E+03 -5.23771E+03  2.63965E+03 -4.93028E+03  2.99507E+03 -2.77366E+03
  2.97116E+03  2.94343E+02 -1.24256E+02  1.40474E+03  6.30026E+02 -2.07470E+02  2.00829E+02 -2.04122E+03
  4.21077E+03 -6.68279E+02  5.41549E+03  8.51622E+02  5.73258E+03  3.15775E+03  5.36716E+03  7.37170E+03
 -1.51539E+03  8.87179E+03 -7.79679E+03  6.76385E+03 -1.02820E+04  1.15788E+03 -7.89487E+03 -2.63746E+03
 -4.20483E+03 -6.84434E+03 -4.97895E+02 -5.19204E+03  2.31325E+03 -2.02877E+03  2.00880E+03 -2.12752E+03
  1.36301E+03 -1.53728E+03  1.91505E+03 -2.41634E+03  3.61171E+03 -1.25275E+03  3.65035E+03  5.07520E+02
  4.64868E+03  1.36307E+03  1.42927E+03  3.65829E+03 -1.39058E+03  3.25385E+03 -4.34397E+03  2.74200E+03
 -5.06676E+03 -9.00860E+02 -1.88391E+03 -3.56188E+03  5.88800E+02 -5.21002E+03  3.38431E+03 -5.83227E+03
  5.49801E+03 -3.39978E+03  7.02689E+03  1.03917E+02  5.05370E+03  4.26280E+03  1.05737E+03  6.36046E+03
 -2.17491E+03  5.97408E+03 -3.42506E+03  1.89338E+03 -1.94338E+03 -8.38983E+02 -4.08967E+02 -6.53785E+02
 -4.83370E+02  4.29644E+02 -6.65194E+02  2.08003E+03 -2.82155E+03  1.03400E+03 -4.23011E+03 -1.85395E+02
 -1.64061E+03 -4.14116E+03  9.03382E+02 -5.01284E+03  2.69582E+03 -4.49569E+03  3.64413E+03 -1.29760E+03
  4.39541E+03  2.52895E+03  2.14589E+03  3.72739E+03 -7.72233E+02  4.83505E+03 -2.71065E+03  2.24832E+03
 -3.72675E+03  8.69344E+02 -3.39280E+03 -2.53655E+03 -5.84256E+01 -3.29114E+03  1.62743E+03 -2.20486E+03
  2.91465E+03 -1.14979E+03  1.48766E+03  4.75286E+02  5.39949E+02  1.63228E+03  7.42400E+02  2.91941E+02
  1.68744E+03  4.95897E+02  1.32609E+03  1.05575E+03  1.05569E+03  1.97857E+03  1.68907E+03  2.05373E+03
 -1.37022E+03  3.04482E+03 -2.69631E+03  4.43098E+03 -3.23058E+03  1.70908E+03 -4.41785E+03 -6.32059E+02
 -1.79166E+03 -3.92082E+03  7.02135E+02 -5.09024E+03  2.12371E+03 -2.75915E+03  3.06768E+03 -1.08501E+03
  2.72882E+03  1.90970E+03  4.10135E+02  2.16267E+03 -6.45536E+02  1.27390E+03 -1.12160E+03 -3.75869E+02
 -5.41811E+02 -1.54264E+03  1.31287E+03 -1.63165E+03  1.75124E+03 -7.53035E+02  1.62294E+03  6.34590E+02
  9.81291E+02  3.68499E+02  7.03070E+02 -3.85688E+01 -9.51991E+01  6.89521E+02  1.71650E+03 -3.92363E+02
  2.32595E+02 -2.05119E+02  1.75642E+03  9.38122E+02  3.50577E+02  2.57747E+03 -3.51011E+02  2.91191E+03
 -1.55565E+03  1.06006E+03 -2.17480E+03  4.46787E+02 -2.43639E+03 -8.49784E+02 -4.34139E+02 -1.03505E+03
  5.77039E+02 -1.29583E+03  1.03846E+03 -9.02107E+02  7.61678E+02  1.17187E+03 -5.30216E+02  1.31129E+03
 -1.71169E+03  5.43306E+02 -1.27580E+03 -1.53369E+03 -7.07095E+02 -2.18628E+03  2.13245E+02 -1.73207E+03
  5.97044E+02 -6.02845E+02  7.19558E+02  5.83140E+01  1.55106E+03  7.77006E+01  3.50041E+02  1.29699E+03
 -4.45195E+02  2.08237E+02 -1.10346E+03 -3.70562E+02  5.79752E+02 -1.23499E+03  1.82562E+03 -8.99135E+02
  1.58478E+03  4.12226E+02  3.02533E+03  6.63786E+02  1.09960E+03  1.51174E+03 -3.40450E+02  1.86462E+03
 -1.70307E+03  1.61679E+02 -1.55604E+03 -3.31793E+01 -6.73155E+02 -1.22927E+03  5.68921E+02 -5.44218E+02
  1.48343E+03 -6.92326E+02  8.53761E+02  6.18712E+02  1.91333E+01  1.45443E+03  1.17544E+02  8.38534E+02
 -2.50843E+02  1.28256E+03 -5.39697E+02 -3.83488E+01  3.17296E+02  3.32801E+02 -6.94507E+02  2.46949E+02
 -7.20317E+02  8.21689E+02 -1.83985E+03  8.04456E+02 -2.07350E+03  3.58340E+01 -2.60000E+03 -1.06288E+03
 -1.01521E+03 -2.57315E+03  7.16672E+02 -2.91282E+03  1.31581E+03 -2.55930E+03  2.77572E+03 -1.07499E+03
  2.43293E+03 -1.57570E+01  1.41557E+03  1.53798E+03 -3.98717E+02  1.38169E+03 -5.77492E+02  1.49050E+03
 -1.00136E+03  7.91082E+02 -6.04497E+02 -2.00783E+02 -5.82086E+02  2.26339E+02 -5.23383E+02 -3.59051E+01
 -1.14863E+03  3.31147E+01 -7.98673E+02  7.01195E+01  3.49053E+02 -6.27231E+02 -3.29849E+02 -9.65191E+02
  1.28025E+03 -8.32304E+02  5.76924E+02  1.63523E+02  1.32959E+03  1.25113E+03 -6.28983E+02  1.46612E+03
 -9.21255E+02  2.26519E+03 -1.69372E+03  1.34550E+03 -2.01222E+03 -4.52123E+02 -1.26606E+03 -1.43936E+03
 -7.96252E+02 -1.65689E+03  2.56321E+02 -1.14717E+03  8.55389E+02 -7.73240E+02  6.84333E+02  1.32036E+02
  6.05503E+02  5.11364E+02  1.26963E+02  3.91591E+02 -3.01196E+02 -1.00003E+02 -2.85715E+02 -9.41679E+01
  7.03299E+02  1.53233E+02  3.82141E+02  3.87682E+02  1.95143E+02  2.70124E+02  5.44140E+02  6.09381E+02
 -6.19605E+02  7.91625E+02 -6.59265E+02  1.83240E+02 -1.05009E+03 -5.84657E+02  1.70164E+02 -1.26810E+03
  7.58061E+02 -9.40223E+02  6.86486E+02 -5.59112E+00  9.11893E+02 -5.46004E+02  5.96666E+02  8.57875E+02
  3.13806E+02  2.95597E+02 -4.42078E+02  6.16101E+02 -6.54186E+02  5.11944E+02 -5.39015E+02  1.48626E+02
 -1.91496E+02 -2.36715E+02 -4.32337E+02  2.09499E+02 -4.93268E+02  2.92609E+01 -8.51636E+02 -2.82492E+02
 -1.16133E+03  1.09039E+02 -1.79351E+02 -9.35051E+02  6.11951E+02 -1.84058E+03  7.80818E+02 -4.54625E+02
  7.74792E+02  2.97594E+01 -3.86876E+02  2.64587E+02 -2.07022E+02  1.18007E+03 -6.23117E+02  9.41906E+02
