 $NMID ID='MM_0lb_SNR800_10hz_g45_84.RAW', FMTDAT='(8E13.5)'
 TRAMP=1., VOLUME=1. $END
  3.10016E+05  6.28328E+02  3.38385E+05  2.50926E+05  8.51085E+04  3.38530E+05 -1.32697E+05  2.51706E+05
 -1.90742E+05  8.36902E+04 -1.11758E+05 -3.26173E+04  1.48969E+02 -5.07842E+04  5.35837E+04 -1.76113E+02
  3.53169E+04  5.30258E+04 -1.67081E+04  7.59939E+04 -6.10273E+04  6.40994E+04 -8.47067E+04  3.26316E+04
 -8.20724E+04 -1.14072E+04 -5.77675E+04 -5.20828E+04 -1.51665E+04 -7.05241E+04  2.80046E+04 -4.63177E+04
  4.07794E+04  4.09369E+03  1.67486E+04  4.82370E+04 -3.48765E+04  4.75635E+04 -6.77742E+04 -7.69536E+01
 -5.48306E+04 -5.78802E+04 -7.37248E+03 -7.83375E+04  3.44480E+04 -5.65057E+04  4.91390E+04 -1.78713E+04
  4.45742E+04  1.15304E+04  3.25883E+04  2.63787E+04  1.58453E+04  3.01442E+04 -5.53542E+03  2.75911E+04
 -2.23669E+04  1.21377E+04 -1.84371E+04 -5.31115E+03  6.46619E+03 -7.51164E+03  2.27959E+04  1.32080E+04
  7.16056E+03  3.67837E+04 -3.30871E+04  3.68180E+04 -6.49646E+04  2.01311E+03 -5.82955E+04 -4.39764E+04
 -1.25024E+04 -6.54330E+04  4.10105E+04 -4.65803E+04  6.02433E+04 -2.94000E+03  3.62568E+04  3.37756E+04
 -5.67307E+03  3.84666E+04 -3.10127E+04  1.77944E+04 -3.22238E+04 -3.85565E+03 -1.83175E+04 -1.16337E+04
 -8.90274E+03 -1.45898E+04 -5.37823E+02 -1.91103E+04  7.76619E+03 -2.33584E+04  1.58673E+04 -1.29156E+04
  1.07650E+04  6.17931E+03 -9.62480E+03  1.28792E+04 -2.26929E+04 -5.87467E+03 -8.54616E+03 -3.62408E+04
  2.40438E+04 -4.57850E+04  5.11069E+04 -2.07371E+04  4.73638E+04  2.02635E+04  1.71300E+04  4.62328E+04
 -1.59749E+04  3.51673E+04 -2.71120E+04  2.11565E+03 -1.11989E+04 -2.91602E+04  2.14331E+04 -3.60153E+04
  4.32924E+04 -1.03524E+04  3.83469E+04  2.43284E+04  2.03050E+04  4.95957E+04 -8.07176E+03  5.43200E+04
 -3.42697E+04  3.66509E+04 -4.52039E+04  1.03189E+04 -4.64166E+04 -1.81034E+04 -2.52746E+04 -4.08185E+04
  8.12309E+03 -4.08012E+04  3.34672E+04 -1.62131E+04  3.11578E+04  1.10712E+04  4.80285E+03  2.03339E+04
 -1.36098E+04  9.69274E+03 -1.10045E+04 -7.97882E+03  5.69357E+03 -1.11942E+04  1.83030E+04  5.92222E+03
  1.44933E+04  2.24121E+04 -5.45080E+03  2.66432E+04 -2.32056E+04  1.35016E+04 -3.03583E+04 -3.51864E+03
 -2.39814E+04 -1.82109E+04 -1.07549E+04 -2.35620E+04  3.89286E+03 -2.37355E+04  1.88660E+04 -2.16126E+04
  3.03913E+04 -1.39039E+04  3.61289E+04  4.16587E+03  2.57165E+04  2.29807E+04  4.12269E+03  3.98928E+04
 -1.89345E+04  3.24350E+04 -3.00777E+04  1.13817E+04 -2.21742E+04 -1.03158E+04 -4.68854E+03 -1.29479E+04
  1.12914E+03 -1.81988E+03 -6.67355E+03  7.72373E+03 -1.86815E+04  5.17237E+03 -1.90093E+04 -8.65034E+03
 -1.12669E+04 -2.20325E+04  6.01978E+03 -2.62061E+04  1.77924E+04 -1.84211E+04  2.12712E+04 -1.60482E+03
  1.36219E+04  1.56892E+04 -1.45711E+03  2.19771E+04 -1.57134E+04  1.24191E+04 -2.19522E+04 -4.57860E+03
 -1.61360E+04 -1.99541E+04 -1.68619E+03 -2.63298E+04  1.20909E+04 -2.14904E+04  2.19845E+04 -1.11797E+04
  2.11149E+04 -1.65664E+02  1.49927E+04  5.18397E+03  8.36071E+03  1.24974E+03  1.13713E+04 -1.85852E+03
  2.06636E+04  2.64166E+03  2.35226E+04  1.69674E+04  1.60500E+04  3.55122E+04 -2.56524E+03  4.15277E+04
 -2.37532E+04  3.40487E+04 -3.87795E+04  1.76382E+04 -4.14292E+04 -3.26715E+03 -3.36339E+04 -2.39633E+04
 -1.36803E+04 -3.43601E+04  1.19780E+04 -3.03795E+04  2.60202E+04 -1.44668E+04  2.26146E+04  7.26298E+03
  8.08656E+03  1.74216E+04 -1.04636E+04  1.47591E+04 -1.90580E+04  2.71088E+03 -1.48891E+04 -1.21284E+04
 -1.13795E+02 -1.78193E+04  9.44053E+03 -1.34901E+04  1.26915E+04 -1.54883E+03  2.98004E+03  8.03401E+03
 -7.77571E+03  3.72382E+03 -8.27482E+03 -6.32737E+03 -1.40401E+03 -1.68019E+04  1.12729E+04 -1.82341E+04
  2.11964E+04 -9.86890E+03  2.38592E+04  3.21978E+03  2.02467E+04  1.67164E+04  9.76856E+03  2.61186E+04
 -4.65891E+03  2.82984E+04 -1.87099E+04  1.74960E+04 -2.06370E+04  3.77811E+03 -1.39355E+04 -5.43463E+03
 -6.45558E+03 -6.57063E+03 -6.45832E+02  5.59151E+02 -2.80864E+03  2.93582E+03 -6.81039E+03  5.15651E+03
 -1.31393E+04 -6.98446E+02 -1.33756E+04 -1.07664E+04 -5.59598E+03 -1.77679E+04  6.03354E+03 -1.45678E+04
  1.19962E+04 -5.97704E+03  8.65896E+03  3.45073E+03 -8.64586E+01  5.89514E+03 -7.18691E+03 -2.44204E+02
 -6.77708E+03 -9.03955E+03 -1.15998E+03 -1.41610E+04  8.03171E+03 -1.49803E+04  1.82856E+04 -7.94455E+03
  2.13572E+04  2.20962E+03  1.53641E+04  1.28983E+04  3.14252E+03  1.77205E+04 -8.85142E+03  1.42453E+04
 -1.15871E+04  4.07192E+03 -5.94967E+03 -3.07718E+03  2.18864E+03 -4.23164E+03  7.56551E+03 -7.78212E+02
  7.16004E+03  6.32213E+03  7.69640E+02  1.14472E+04 -8.10538E+03  1.13121E+04 -1.40225E+04  2.82112E+03
 -9.38678E+03 -7.33981E+03  4.59865E+02 -1.19426E+04  7.85249E+03 -6.30144E+03  8.43049E+03  2.92762E+03
  1.95156E+03  8.80796E+03 -7.44471E+03  1.01638E+04 -1.19034E+04  4.47346E+03 -1.19067E+04 -4.10278E+03
 -7.26287E+03 -1.39484E+04  3.11416E+03 -1.58613E+04  1.36683E+04 -9.38023E+03  1.47284E+04  2.46999E+03
  8.99006E+03  1.18383E+04 -1.10689E+03  1.42761E+04 -1.04740E+04  7.75865E+03 -1.12730E+04 -1.51711E+03
 -9.45547E+03 -9.53066E+03 -1.33076E+03 -1.07755E+04  5.34566E+03 -8.62614E+03  6.62585E+03 -3.82710E+03
  4.35287E+03  1.86361E+03 -8.27856E+02  1.63522E+03 -5.18685E+02 -2.90407E+03  2.10193E+03 -6.67716E+03
  1.02738E+04 -3.81287E+03  1.42837E+04  1.30134E+03  1.37491E+04  9.53261E+03  9.19143E+03  1.80221E+04
 -3.93290E+03  2.11350E+04 -1.72832E+04  1.48246E+04 -2.28906E+04  2.59910E+03 -1.87772E+04 -7.86734E+03
 -9.30974E+03 -1.50138E+04 -5.58913E+02 -1.28848E+04  4.85880E+03 -7.11170E+03  4.14606E+03 -4.78626E+03
  3.32300E+03 -3.09306E+03  3.42989E+03 -3.66739E+03  5.44439E+03 -3.16291E+03  7.34483E+03 -1.39612E+03
  9.56695E+03  2.05423E+03  4.91248E+03  8.01349E+03 -1.63277E+03  9.39610E+03 -1.02672E+04  7.68520E+03
 -1.28541E+04 -1.18785E+03 -8.05599E+03 -9.02912E+03 -1.45940E+03 -1.36199E+04  7.54558E+03 -1.38350E+04
  1.45597E+04 -7.64673E+03  1.66842E+04  2.50674E+03  1.15334E+04  1.20940E+04  2.27685E+03  1.58060E+04
 -6.34707E+03  1.30433E+04 -9.05602E+03  4.24333E+03 -5.84648E+03 -1.57887E+03 -2.48235E+03 -1.99565E+03
 -1.10254E+03 -1.70823E+02 -2.21115E+03  2.76728E+03 -5.54819E+03  2.46038E+03 -9.11670E+03 -1.32900E+03
 -6.16455E+03 -8.75158E+03  1.62786E+02 -1.29511E+04  7.87916E+03 -1.14680E+04  1.29406E+04 -3.83437E+03
  1.30447E+04  6.15944E+03  5.89005E+03  1.15226E+04 -2.61024E+03  1.28274E+04 -9.02054E+03  7.83757E+03
 -1.17708E+04  6.87589E+02 -9.25511E+03 -7.91546E+03 -8.77332E+02 -1.05266E+04  5.41933E+03 -7.98181E+03
  7.96283E+03 -2.76481E+03  5.23325E+03  1.89159E+03  2.31180E+03  3.85382E+03  1.42908E+03  2.01653E+03
  2.73830E+03  1.41186E+03  3.05891E+03  1.75873E+03  3.66731E+03  4.44646E+03  2.97361E+03  6.95331E+03
 -2.49428E+03  1.02093E+04 -9.07554E+03  9.97491E+03 -1.33208E+04  2.42733E+03 -1.32280E+04 -5.12620E+03
 -6.35561E+03 -1.31065E+04  1.60790E+03 -1.45270E+04  7.49664E+03 -8.98116E+03  1.06029E+04 -2.62224E+03
  7.96328E+03  4.50239E+03  1.76654E+03  7.51150E+03 -3.47797E+03  4.94800E+03 -5.08378E+03 -8.92165E+02
 -2.47429E+03 -5.37815E+03  3.41389E+03 -5.85721E+03  5.49022E+03 -2.62867E+03  5.23964E+03  9.07443E+02
  3.31529E+03  2.68240E+03  1.08388E+03  2.17219E+03 -5.30730E+02  1.79917E+03  1.58594E+03 -3.43156E+02
  1.70637E+03 -4.86542E+02  4.93857E+03  2.07144E+03  2.76530E+03  7.19459E+03 -8.72108E+02  8.92356E+03
 -6.46906E+03  5.67778E+03 -8.32638E+03  1.22753E+03 -6.75298E+03 -2.88463E+03 -3.16505E+03 -5.22909E+03
  8.19443E+02 -4.91472E+03  3.46475E+03 -2.42861E+03  2.87478E+03  2.41914E+03 -1.37670E+03  4.08713E+03
 -5.68694E+03  2.55546E+03 -6.33738E+03 -2.53182E+03 -3.11619E+03 -7.07856E+03  9.81988E+02 -6.83434E+03
  3.89886E+03 -4.59821E+03  4.88639E+03 -3.06438E+02  4.42343E+03  1.63847E+03  9.78141E+02  3.73462E+03
 -2.34137E+03  1.05874E+03 -2.86708E+03 -2.08931E+03  9.75687E+02 -5.18613E+03  5.82856E+03 -4.15117E+03
  7.73119E+03  6.56776E+02  8.19343E+03  5.19850E+03  2.48619E+03  8.34264E+03 -2.97064E+03  8.11810E+03
 -6.59216E+03  3.24513E+03 -7.06254E+03 -8.64128E+02 -3.98171E+03 -5.18485E+03  1.61846E+03 -4.92154E+03
  4.96370E+03 -2.36707E+03  4.22354E+03  1.89990E+03  1.06942E+03  4.21865E+03 -4.78783E+02  4.19184E+03
 -2.27124E+03  2.78366E+03 -2.01444E+03  9.44539E+02 -1.20953E+03  9.78074E+02 -1.55272E+03  1.92541E+03
 -1.94476E+03  3.22551E+03 -6.01985E+03  2.80128E+03 -8.70495E+03  1.95388E+02 -9.21740E+03 -5.11969E+03
 -4.89117E+03 -1.09328E+04  2.02077E+03 -1.25845E+04  7.72911E+03 -9.70922E+03  1.20536E+04 -3.84920E+03
  1.11835E+04  1.88015E+03  7.44013E+03  7.52376E+03  9.20897E+02  8.62294E+03 -3.44664E+03  6.71460E+03
 -4.88625E+03  2.47461E+03 -2.95017E+03 -5.71831E+02 -1.17013E+03 -9.41022E+02 -5.09171E+02 -2.60809E+02
 -1.38596E+03  2.55618E+02 -2.33126E+03 -2.43425E+01 -2.69154E+02 -2.46733E+03 -2.80430E+02 -3.00203E+03
  4.24776E+03 -2.90045E+03  5.00263E+03  1.32452E+02  6.15060E+03  4.69052E+03  1.13247E+03  8.44770E+03
 -4.06179E+03  9.78114E+03 -8.94180E+03  5.58024E+03 -1.00273E+04 -7.49119E+02 -7.86272E+03 -6.17620E+03
 -3.26649E+03 -8.66993E+03  2.18932E+03 -8.22891E+03  5.39645E+03 -4.50326E+03  5.58477E+03  2.21285E+02
  2.92781E+03  2.97086E+03 -4.56099E+02  2.26293E+03 -1.74036E+03 -5.05559E+02 -1.51920E+02 -2.27967E+03
  2.46547E+03 -1.14222E+03  3.15633E+03  1.14093E+03  2.19997E+03  3.21079E+03 -5.10026E+01  4.38620E+03
 -3.96083E+03  3.75427E+03 -5.56965E+03  3.70621E+02 -5.12004E+03 -3.69157E+03 -9.28005E+02 -7.16598E+03
  3.94279E+03 -5.84571E+03  6.32902E+03 -1.79421E+03  6.31631E+03  1.01527E+03  3.49859E+03  5.22723E+03
  6.66670E+02  5.27653E+03 -1.85501E+03  4.42956E+03 -3.28677E+03  2.70035E+03 -3.02376E+03  3.97132E+02
 -1.49188E+03 -1.32218E+02 -1.72950E+03  4.50553E+02 -2.84818E+03  1.14969E+03 -4.10470E+03 -1.30393E+03
 -4.09389E+03 -3.10293E+03 -1.22923E+03 -5.51891E+03  2.79853E+03 -6.41246E+03  4.88660E+03 -2.85839E+03
  5.64507E+03  8.77953E+02  3.03225E+03  3.93031E+03 -3.29940E+02  5.55967E+03 -4.21867E+03  3.90372E+03
