 $NMID ID='MM_0lb_SNR800_9hz_g45_94.RAW', FMTDAT='(8E13.5)'
 TRAMP=1., VOLUME=1. $END
  3.09774E+05  3.12042E+02  3.38104E+05  2.51006E+05  8.47348E+04  3.38495E+05 -1.32853E+05  2.52009E+05
 -1.90802E+05  8.36768E+04 -1.12454E+05 -3.23504E+04  7.54914E+01 -5.07555E+04  5.36195E+04 -2.51439E+02
  3.54954E+04  5.28208E+04 -1.68801E+04  7.61822E+04 -6.10531E+04  6.41377E+04 -8.52704E+04  3.26553E+04
 -8.20712E+04 -1.18260E+04 -5.80429E+04 -5.22114E+04 -1.47839E+04 -7.11307E+04  2.82697E+04 -4.70330E+04
  4.10629E+04  3.71824E+03  1.68732E+04  4.83743E+04 -3.47529E+04  4.83168E+04 -6.78482E+04  1.78402E+02
 -5.50995E+04 -5.76432E+04 -6.99201E+03 -7.87332E+04  3.45880E+04 -5.71696E+04  4.94636E+04 -1.84123E+04
  4.50186E+04  1.18732E+04  3.28302E+04  2.65880E+04  1.56031E+04  3.01119E+04 -6.23566E+03  2.76804E+04
 -2.24682E+04  1.20585E+04 -1.79294E+04 -5.94014E+03  6.68478E+03 -7.13457E+03  2.33112E+04  1.37487E+04
  6.90114E+03  3.71584E+04 -3.36484E+04  3.68806E+04 -6.52299E+04  2.46391E+03 -5.85372E+04 -4.45334E+04
 -1.24066E+04 -6.56191E+04  4.14388E+04 -4.71713E+04  6.07944E+04 -2.79514E+03  3.66185E+04  3.38700E+04
 -5.53161E+03  3.90658E+04 -3.13920E+04  1.86287E+04 -3.27732E+04 -3.55629E+03 -1.89476E+04 -1.18365E+04
 -9.34960E+03 -1.50190E+04 -5.58230E+02 -1.97984E+04  8.28777E+03 -2.36302E+04  1.57062E+04 -1.27597E+04
  1.03585E+04  6.24182E+03 -1.03320E+04  1.31675E+04 -2.33760E+04 -6.47515E+03 -8.50720E+03 -3.74269E+04
  2.51679E+04 -4.61278E+04  5.17849E+04 -2.07551E+04  4.84016E+04  2.04527E+04  1.72334E+04  4.66461E+04
 -1.64511E+04  3.59470E+04 -2.74879E+04  2.62689E+03 -1.18813E+04 -2.92074E+04  2.16220E+04 -3.63208E+04
  4.44073E+04 -1.08446E+04  4.00081E+04  2.52167E+04  2.08543E+04  5.00920E+04 -8.35369E+03  5.55594E+04
 -3.47946E+04  3.78491E+04 -4.70959E+04  1.10479E+04 -4.69947E+04 -1.80583E+04 -2.60912E+04 -4.17048E+04
  8.30765E+03 -4.13100E+04  3.43590E+04 -1.67845E+04  3.16891E+04  1.11376E+04  5.26020E+03  2.08903E+04
 -1.38236E+04  9.17101E+03 -1.12090E+04 -7.56352E+03  5.67455E+03 -1.14988E+04  1.89738E+04  5.79228E+03
  1.45750E+04  2.26997E+04 -5.20594E+03  2.68930E+04 -2.32895E+04  1.40917E+04 -3.11837E+04 -2.92020E+03
 -2.47989E+04 -1.86453E+04 -1.14924E+04 -2.44380E+04  4.18699E+03 -2.54151E+04  1.92648E+04 -2.27205E+04
  3.13350E+04 -1.38449E+04  3.75440E+04  5.07368E+03  2.70562E+04  2.43899E+04  4.50824E+03  4.10812E+04
 -1.91192E+04  3.36094E+04 -3.06392E+04  1.18915E+04 -2.21427E+04 -1.03093E+04 -4.93010E+03 -1.29630E+04
  8.42542E+02 -1.27987E+03 -7.54205E+03  7.99334E+03 -1.96340E+04  4.90300E+03 -1.96367E+04 -9.46168E+03
 -1.10916E+04 -2.32017E+04  5.87559E+03 -2.75267E+04  1.84273E+04 -1.94738E+04  2.21232E+04 -1.78053E+03
  1.40514E+04  1.55935E+04 -1.33664E+03  2.31133E+04 -1.61490E+04  1.27839E+04 -2.33036E+04 -4.71004E+03
 -1.69385E+04 -2.05961E+04 -2.00622E+03 -2.77881E+04  1.23596E+04 -2.31856E+04  2.26708E+04 -1.18373E+04
  2.15723E+04 -5.10306E+01  1.58687E+04  5.59489E+03  8.28893E+03  1.65558E+03  1.17515E+04 -2.46415E+03
  2.16492E+04  3.06900E+03  2.48785E+04  1.81740E+04  1.66892E+04  3.71623E+04 -2.73179E+03  4.34445E+04
 -2.49723E+04  3.60771E+04 -4.09165E+04  1.86089E+04 -4.36602E+04 -3.05496E+03 -3.57150E+04 -2.54887E+04
 -1.41221E+04 -3.65829E+04  1.28604E+04 -3.20419E+04  2.75680E+04 -1.53139E+04  2.34706E+04  7.90003E+03
  7.72159E+03  1.83693E+04 -1.13500E+04  1.57215E+04 -2.01488E+04  2.34378E+03 -1.52266E+04 -1.27232E+04
 -4.79383E+02 -1.88689E+04  1.00161E+04 -1.39768E+04  1.30732E+04 -9.83082E+02  3.58920E+03  8.48371E+03
 -8.83191E+03  4.13882E+03 -9.07356E+03 -6.82751E+03 -1.79982E+03 -1.78029E+04  1.16609E+04 -1.94223E+04
  2.29993E+04 -1.09144E+04  2.54709E+04  3.41532E+03  2.20694E+04  1.78458E+04  1.03688E+04  2.85006E+04
 -5.75403E+03  3.03301E+04 -1.96810E+04  1.88092E+04 -2.20030E+04  3.36789E+03 -1.50294E+04 -5.89627E+03
 -6.46361E+03 -6.83764E+03 -4.44032E+02  7.63528E+02 -2.84400E+03  3.89491E+03 -7.21330E+03  5.49721E+03
 -1.40486E+04 -1.02906E+03 -1.48519E+04 -1.16652E+04 -6.12752E+03 -1.94782E+04  5.54805E+03 -1.55227E+04
  1.25323E+04 -6.17550E+03  8.62190E+03  3.89013E+03 -2.45747E+02  5.98400E+03 -7.58237E+03  3.84102E+01
 -7.18576E+03 -1.01721E+04 -1.58419E+03 -1.54440E+04  8.40419E+03 -1.60827E+04  1.95431E+04 -8.35961E+03
  2.23925E+04  2.52701E+03  1.69021E+04  1.37134E+04  2.85423E+03  1.82692E+04 -9.01102E+03  1.52682E+04
 -1.27959E+04  4.24554E+03 -6.43670E+03 -3.00610E+03  2.10488E+03 -4.62752E+03  7.92693E+03 -1.28104E+03
  7.27514E+03  6.95815E+03  1.51329E+03  1.24848E+04 -8.69884E+03  1.14213E+04 -1.50666E+04  3.05506E+03
 -1.03380E+04 -8.20429E+03  8.59774E+01 -1.33443E+04  8.76391E+03 -6.75643E+03  9.52476E+03  3.23898E+03
  1.67881E+03  9.60928E+03 -8.14170E+03  1.15593E+04 -1.34623E+04  4.69309E+03 -1.35038E+04 -4.60353E+03
 -7.73133E+03 -1.53258E+04  3.38288E+03 -1.75490E+04  1.50273E+04 -1.02874E+04  1.61219E+04  3.02857E+03
  9.71302E+03  1.30898E+04 -1.57121E+03  1.54549E+04 -1.12306E+04  8.38817E+03 -1.22194E+04 -1.07399E+03
 -1.05644E+04 -1.01349E+04 -1.53591E+03 -1.17325E+04  6.27568E+03 -9.44256E+03  7.32466E+03 -3.61959E+03
  4.98133E+03  2.54974E+03 -1.08635E+03  1.75614E+03 -3.40022E+02 -3.33887E+03  2.84790E+03 -7.23698E+03
  1.13842E+04 -4.75169E+03  1.56433E+04  1.87155E+03  1.53663E+04  1.04094E+04  1.01995E+04  2.05703E+04
 -4.60185E+03  2.33188E+04 -1.92956E+04  1.72965E+04 -2.52792E+04  3.32316E+03 -2.02171E+04 -8.23307E+03
 -1.01780E+04 -1.64107E+04 -2.98781E+02 -1.44142E+04  4.88067E+03 -8.16486E+03  5.15352E+03 -5.28768E+03
  3.38992E+03 -3.03968E+03  4.30181E+03 -3.73104E+03  5.82489E+03 -3.69950E+03  7.91430E+03 -1.56134E+03
  1.02536E+04  2.18790E+03  5.67982E+03  9.29760E+03 -2.17194E+03  1.10068E+04 -1.10709E+04  8.07620E+03
 -1.41754E+04 -1.65738E+03 -9.16599E+03 -1.01041E+04 -1.27549E+03 -1.55155E+04  8.57506E+03 -1.51373E+04
  1.58829E+04 -8.73459E+03  1.90656E+04  2.36355E+03  1.29829E+04  1.32354E+04  1.54530E+03  1.72620E+04
 -6.92976E+03  1.36907E+04 -1.05499E+04  4.83848E+03 -6.89577E+03 -1.46083E+03 -3.22301E+03 -2.50312E+03
 -1.38320E+03 -4.26673E+02 -2.48123E+03  3.37701E+03 -6.18729E+03  2.29657E+03 -9.88527E+03 -1.57912E+03
 -6.70935E+03 -1.03003E+04 -3.06990E+02 -1.42421E+04  8.70125E+03 -1.31511E+04  1.44358E+04 -4.19246E+03
  1.36792E+04  6.85645E+03  6.58361E+03  1.28724E+04 -2.86732E+03  1.48613E+04 -9.78026E+03  9.07701E+03
 -1.36805E+04  7.29859E+02 -1.02349E+04 -8.68482E+03 -1.02432E+03 -1.18075E+04  6.41403E+03 -8.90981E+03
  9.06365E+03 -3.14525E+03  6.38896E+03  2.34684E+03  2.21684E+03  4.16675E+03  1.30314E+03  2.28936E+03
  2.60711E+03  1.07782E+03  3.35483E+03  2.46419E+03  4.28100E+03  5.16707E+03  4.01578E+03  7.71603E+03
 -3.14820E+03  1.15787E+04 -1.00252E+04  1.15208E+04 -1.47884E+04  3.09609E+03 -1.49719E+04 -6.27385E+03
 -7.22894E+03 -1.45354E+04  2.09624E+03 -1.62967E+04  8.66955E+03 -1.04335E+04  1.21592E+04 -2.70968E+03
  9.36487E+03  5.38538E+03  1.79746E+03  8.36524E+03 -4.42290E+03  5.56763E+03 -5.61805E+03 -7.26603E+02
 -2.87137E+03 -6.26645E+03  3.75933E+03 -6.45832E+03  5.87895E+03 -3.02348E+03  5.54207E+03  1.57957E+03
  3.73837E+03  2.99021E+03  1.75802E+03  2.57933E+03 -7.39712E+02  2.18395E+03  1.99304E+03 -6.26655E+02
  2.07832E+03 -1.16976E+03  5.98147E+03  2.32581E+03  3.09459E+03  8.14025E+03 -1.28566E+03  1.04189E+04
 -6.92759E+03  6.82260E+03 -8.95684E+03  1.94039E+03 -8.04420E+03 -3.31818E+03 -3.15399E+03 -5.89000E+03
  1.27641E+03 -5.61422E+03  3.92247E+03 -2.73108E+03  3.20719E+03  2.43066E+03 -1.65719E+03  5.06964E+03
 -6.27360E+03  2.56596E+03 -6.79829E+03 -3.85198E+03 -3.82835E+03 -8.09966E+03  1.38079E+03 -8.89505E+03
  4.78194E+03 -5.00821E+03  6.37514E+03 -7.22770E+02  4.77896E+03  2.04466E+03  5.33335E+02  4.46419E+03
 -2.66867E+03  9.63300E+02 -3.98701E+03 -2.86509E+03  1.23621E+03 -6.53589E+03  7.58756E+03 -5.16300E+03
  9.29596E+03  8.19904E+02  8.88851E+03  6.48994E+03  2.95822E+03  9.75376E+03 -3.58747E+03  9.38151E+03
 -7.94192E+03  4.52265E+03 -8.43144E+03 -1.60982E+03 -4.93568E+03 -6.28067E+03  1.92813E+03 -6.08654E+03
  5.84212E+03 -3.01607E+03  5.01651E+03  2.49469E+03  1.90326E+03  5.39772E+03 -1.01713E+03  4.39093E+03
 -2.25799E+03  3.14758E+03 -2.20337E+03  9.05950E+02 -1.29045E+03  1.05751E+03 -1.38774E+03  2.07645E+03
 -2.70243E+03  3.86634E+03 -6.84384E+03  3.26422E+03 -9.96042E+03 -1.20537E+02 -1.09125E+04 -6.64878E+03
 -5.78776E+03 -1.27291E+04  2.43809E+03 -1.51620E+04  9.22902E+03 -1.15110E+04  1.41109E+04 -4.28056E+03
  1.30056E+04  2.78389E+03  8.24434E+03  8.94438E+03  5.28918E+02  9.99602E+03 -4.22866E+03  7.83056E+03
 -5.55802E+03  2.69350E+03 -3.68113E+03 -1.29510E+03 -1.35310E+03 -1.15616E+03 -6.42437E+02 -2.03390E+02
 -1.51073E+03  1.62057E+02 -2.54039E+03 -3.41883E+02 -6.82990E+02 -2.59008E+03  6.45696E+02 -3.61694E+03
  4.40213E+03 -3.36623E+03  6.16121E+03  1.74831E+02  7.21399E+03  5.44913E+03  2.03836E+03  9.57455E+03
 -4.80052E+03  1.15686E+04 -1.13737E+04  6.56382E+03 -1.23368E+04 -1.71734E+03 -8.85080E+03 -7.47635E+03
 -3.60479E+03 -1.04345E+04  2.54642E+03 -9.26414E+03  6.73489E+03 -5.22748E+03  6.88643E+03  2.49777E+02
  3.89511E+03  2.97880E+03 -7.22300E+02  2.71737E+03 -1.96566E+03  4.84469E+01  2.34488E+02 -2.15338E+03
  3.34079E+03 -1.46667E+03  4.25386E+03  9.88828E+02  2.51504E+03  4.00958E+03  3.41032E+02  5.08090E+03
 -4.48764E+03  5.06648E+03 -6.86852E+03  2.72093E+02 -6.34447E+03 -5.05759E+03 -1.43851E+03 -8.81597E+03
  4.76392E+03 -6.90602E+03  7.97782E+03 -2.35391E+03  7.93781E+03  2.12260E+03  4.36201E+03  6.29346E+03
  1.18226E+03  6.63604E+03 -2.77906E+03  4.93523E+03 -4.12573E+03  2.99558E+03 -3.72779E+03  5.14434E+02
 -1.40373E+03 -1.57315E+02 -2.19079E+03  1.12187E+03 -3.46230E+03  1.32344E+03 -5.43903E+03 -1.10473E+03
 -5.12001E+03 -3.58222E+03 -1.45278E+03 -6.61286E+03  2.58351E+03 -7.59585E+03  6.09653E+03 -3.57899E+03
  6.77672E+03  1.34812E+03  3.45680E+03  4.69659E+03 -2.83471E+02  6.60417E+03 -5.18918E+03  4.76849E+03
