 $NMID ID='MM_0lb_SNR800_11hz_g60_68.RAW', FMTDAT='(8E13.5)'
 TRAMP=1., VOLUME=1. $END
  3.09944E+05  3.44796E+02  3.38162E+05  2.50523E+05  8.47158E+04  3.38535E+05 -1.32463E+05  2.51915E+05
 -1.90630E+05  8.39702E+04 -1.12632E+05 -3.22757E+04  3.53521E+02 -5.06048E+04  5.39570E+04 -3.47339E+02
  3.58463E+04  5.25133E+04 -1.68718E+04  7.62313E+04 -6.12267E+04  6.43274E+04 -8.56615E+04  3.26804E+04
 -8.23680E+04 -1.15677E+04 -5.82430E+04 -5.23828E+04 -1.53151E+04 -7.09629E+04  2.79938E+04 -4.66647E+04
  4.09621E+04  3.77919E+03  1.66217E+04  4.81847E+04 -3.48378E+04  4.82410E+04 -6.80307E+04 -1.62243E+02
 -5.46831E+04 -5.77356E+04 -7.19511E+03 -7.84986E+04  3.47047E+04 -5.66409E+04  4.93297E+04 -1.81082E+04
  4.51342E+04  1.15937E+04  3.27981E+04  2.61877E+04  1.58146E+04  3.01839E+04 -5.80665E+03  2.78387E+04
 -2.24291E+04  1.21876E+04 -1.81323E+04 -5.59657E+03  7.02078E+03 -7.40048E+03  2.34290E+04  1.34536E+04
  7.18186E+03  3.70400E+04 -3.38981E+04  3.69574E+04 -6.53309E+04  2.18438E+03 -5.84749E+04 -4.45220E+04
 -1.26304E+04 -6.50433E+04  4.15029E+04 -4.71541E+04  6.07390E+04 -2.53541E+03  3.63152E+04  3.39185E+04
 -5.78296E+03  3.95596E+04 -3.15780E+04  1.87072E+04 -3.32204E+04 -3.25154E+03 -1.89941E+04 -1.19908E+04
 -9.55707E+03 -1.47405E+04 -4.22920E+02 -1.96653E+04  8.52655E+03 -2.33894E+04  1.60502E+04 -1.27773E+04
  1.06688E+04  5.78266E+03 -1.00155E+04  1.29452E+04 -2.27173E+04 -6.15099E+03 -8.34188E+03 -3.69539E+04
  2.48859E+04 -4.66010E+04  5.13416E+04 -2.06454E+04  4.81123E+04  2.03527E+04  1.66457E+04  4.70032E+04
 -1.65142E+04  3.57311E+04 -2.74323E+04  2.60278E+03 -1.14587E+04 -2.94248E+04  2.14001E+04 -3.62336E+04
  4.40831E+04 -1.10161E+04  3.95348E+04  2.49934E+04  2.06876E+04  5.05409E+04 -8.21802E+03  5.56144E+04
 -3.48603E+04  3.74783E+04 -4.67180E+04  1.06647E+04 -4.68861E+04 -1.83651E+04 -2.57427E+04 -4.12814E+04
  7.62165E+03 -4.12755E+04  3.39183E+04 -1.64847E+04  3.19246E+04  1.07608E+04  5.19411E+03  2.05664E+04
 -1.36304E+04  9.47560E+03 -1.13342E+04 -7.79681E+03  5.72916E+03 -1.13632E+04  1.88412E+04  5.55418E+03
  1.44936E+04  2.27655E+04 -5.14876E+03  2.68371E+04 -2.32438E+04  1.38857E+04 -3.09627E+04 -3.30831E+03
 -2.47733E+04 -1.82549E+04 -1.12563E+04 -2.44536E+04  4.27240E+03 -2.46926E+04  1.94031E+04 -2.19644E+04
  3.12996E+04 -1.42221E+04  3.71268E+04  4.69860E+03  2.67402E+04  2.35693E+04  4.13341E+03  4.04466E+04
 -1.94033E+04  3.30967E+04 -3.01794E+04  1.15905E+04 -2.23599E+04 -1.02396E+04 -4.87897E+03 -1.29714E+04
  6.09001E+02 -1.39599E+03 -7.41427E+03  7.83986E+03 -1.95301E+04  4.94536E+03 -1.97296E+04 -9.46674E+03
 -1.18600E+04 -2.28424E+04  5.79940E+03 -2.67884E+04  1.79873E+04 -1.95030E+04  2.21453E+04 -1.86860E+03
  1.37072E+04  1.59402E+04 -1.66930E+03  2.27714E+04 -1.58392E+04  1.29731E+04 -2.29611E+04 -4.24017E+03
 -1.64196E+04 -2.00845E+04 -2.05723E+03 -2.71344E+04  1.25008E+04 -2.26666E+04  2.27311E+04 -1.12751E+04
  2.16446E+04 -2.73651E+02  1.51618E+04  4.91958E+03  8.45997E+03  1.41703E+03  1.17505E+04 -2.07793E+03
  2.12972E+04  3.17655E+03  2.42858E+04  1.78167E+04  1.62311E+04  3.64595E+04 -2.52602E+03  4.17625E+04
 -2.44665E+04  3.52763E+04 -4.00030E+04  1.80212E+04 -4.21708E+04 -3.13243E+03 -3.45642E+04 -2.45927E+04
 -1.38699E+04 -3.58299E+04  1.23760E+04 -3.08068E+04  2.61587E+04 -1.48069E+04  2.31359E+04  7.19882E+03
  7.89037E+03  1.78796E+04 -1.09510E+04  1.54463E+04 -1.94849E+04  2.66339E+03 -1.48267E+04 -1.21969E+04
 -2.29675E+02 -1.88526E+04  9.86493E+03 -1.38598E+04  1.29361E+04 -1.06851E+03  3.16769E+03  8.70697E+03
 -8.41674E+03  3.69724E+03 -8.20405E+03 -6.89418E+03 -1.47615E+03 -1.73974E+04  1.16444E+04 -1.88127E+04
  2.18268E+04 -1.02724E+04  2.48478E+04  3.37209E+03  2.13670E+04  1.71856E+04  9.62105E+03  2.70504E+04
 -5.05004E+03  2.93199E+04 -1.91090E+04  1.82465E+04 -2.13513E+04  3.60048E+03 -1.44594E+04 -5.09244E+03
 -6.34219E+03 -6.64353E+03 -5.22430E+02  3.88953E+02 -2.94591E+03  3.43673E+03 -6.86170E+03  5.12688E+03
 -1.30225E+04 -9.21174E+02 -1.41476E+04 -1.13497E+04 -5.59764E+03 -1.84491E+04  5.77841E+03 -1.48251E+04
  1.23412E+04 -6.03155E+03  8.49798E+03  4.27694E+03  5.89268E+01  5.62836E+03 -7.21362E+03  1.37987E+02
 -7.34380E+03 -8.94067E+03 -1.15246E+03 -1.42145E+04  8.49357E+03 -1.50345E+04  1.87057E+04 -8.16928E+03
  2.22326E+04  1.95308E+03  1.59444E+04  1.34158E+04  3.16582E+03  1.79386E+04 -8.95178E+03  1.43251E+04
 -1.17655E+04  4.53785E+03 -6.53144E+03 -3.55650E+03  1.95585E+03 -4.19541E+03  7.72223E+03 -8.83944E+02
  6.85851E+03  6.58637E+03  1.39884E+03  1.15299E+04 -8.22496E+03  1.09907E+04 -1.44856E+04  2.54185E+03
 -9.51905E+03 -7.64403E+03  1.76695E+02 -1.24710E+04  7.92852E+03 -6.73212E+03  8.74524E+03  2.96299E+03
  1.88901E+03  9.18106E+03 -7.58318E+03  1.05279E+04 -1.24054E+04  4.57123E+03 -1.26706E+04 -3.92682E+03
 -6.97294E+03 -1.43771E+04  3.50883E+03 -1.63257E+04  1.39273E+04 -9.85913E+03  1.53460E+04  2.55616E+03
  9.19322E+03  1.21078E+04 -1.29148E+03  1.47372E+04 -1.05607E+04  8.25375E+03 -1.14429E+04 -1.38268E+03
 -9.96870E+03 -9.84189E+03 -2.08002E+03 -1.10735E+04  5.55736E+03 -8.77785E+03  6.60289E+03 -3.22046E+03
  4.83632E+03  2.05869E+03 -8.80991E+02  1.63385E+03 -5.49557E+02 -2.76549E+03  2.22624E+03 -6.52292E+03
  1.02144E+04 -4.04223E+03  1.42326E+04  1.75123E+03  1.41610E+04  9.82377E+03  9.39850E+03  1.87744E+04
 -4.21580E+03  2.12581E+04 -1.78496E+04  1.61926E+04 -2.28555E+04  2.75721E+03 -1.82636E+04 -7.57293E+03
 -9.75237E+03 -1.52982E+04 -5.15634E+02 -1.32598E+04  4.58965E+03 -7.14863E+03  4.65731E+03 -4.51624E+03
  3.61469E+03 -2.88624E+03  3.59167E+03 -3.59569E+03  5.30369E+03 -3.06493E+03  7.55279E+03 -1.15142E+03
  9.54516E+03  2.34325E+03  5.08177E+03  8.30159E+03 -2.19922E+03  9.62618E+03 -1.01699E+04  7.82985E+03
 -1.28072E+04 -1.23272E+03 -7.73495E+03 -9.01330E+03 -1.37711E+03 -1.38018E+04  7.47865E+03 -1.39823E+04
  1.42461E+04 -7.70027E+03  1.70245E+04  2.33240E+03  1.18247E+04  1.19543E+04  1.97952E+03  1.56681E+04
 -6.85867E+03  1.28159E+04 -8.94772E+03  4.17200E+03 -6.02739E+03 -1.47889E+03 -2.42708E+03 -1.84114E+03
 -1.15886E+03  3.80786E+00 -1.96287E+03  2.82561E+03 -5.77879E+03  2.11056E+03 -8.98129E+03 -1.15163E+03
 -6.13934E+03 -8.78291E+03  1.22471E+02 -1.26035E+04  7.55013E+03 -1.17707E+04  1.23725E+04 -3.72270E+03
  1.24047E+04  5.98728E+03  5.63095E+03  1.10734E+04 -2.36933E+03  1.29552E+04 -8.89893E+03  8.02813E+03
 -1.18957E+04  3.47960E+02 -9.26725E+03 -7.59143E+03 -9.31287E+02 -1.06357E+04  5.62540E+03 -7.77189E+03
  7.83001E+03 -2.55301E+03  5.61564E+03  2.25910E+03  2.11368E+03  3.81855E+03  1.06987E+03  1.77128E+03
  2.55083E+03  1.20815E+03  2.80959E+03  1.38671E+03  4.04653E+03  4.73549E+03  3.45699E+03  6.23025E+03
 -2.79837E+03  9.93525E+03 -8.77459E+03  1.04058E+04 -1.25679E+04  2.46619E+03 -1.31080E+04 -5.32985E+03
 -6.16051E+03 -1.26056E+04  1.88462E+03 -1.42934E+04  7.10859E+03 -8.75195E+03  9.97608E+03 -2.31981E+03
  8.22136E+03  4.86338E+03  1.80584E+03  7.40091E+03 -3.39767E+03  4.58189E+03 -5.07606E+03 -8.16549E+02
 -2.27599E+03 -5.06399E+03  3.15101E+03 -5.08264E+03  5.38147E+03 -2.48778E+03  5.10213E+03  9.21709E+02
  2.97921E+03  2.18861E+03  1.09888E+03  1.93234E+03 -7.57674E+02  1.71173E+03  1.51090E+03 -3.54204E+02
  1.53974E+03 -4.22369E+02  4.76884E+03  2.02700E+03  2.49402E+03  6.81668E+03 -1.41760E+03  8.77702E+03
 -5.90125E+03  5.55742E+03 -8.29597E+03  1.94894E+03 -7.11012E+03 -2.38782E+03 -2.67020E+03 -4.72410E+03
  8.33445E+02 -4.95877E+03  3.33921E+03 -2.62888E+03  2.46366E+03  2.57226E+03 -1.20377E+03  4.09940E+03
 -4.96490E+03  2.07031E+03 -5.54615E+03 -2.77911E+03 -3.63210E+03 -6.78297E+03  1.19578E+03 -6.53462E+03
  3.96362E+03 -3.86065E+03  4.81972E+03 -5.35606E+02  4.24854E+03  1.31427E+03  3.45053E+02  3.14887E+03
 -2.87534E+03  1.02403E+03 -2.91847E+03 -2.32602E+03  1.25115E+03 -4.99285E+03  6.30383E+03 -3.88296E+03
  7.38311E+03  5.54055E+02  7.94232E+03  4.84191E+03  2.61553E+03  8.33100E+03 -2.45786E+03  7.62709E+03
 -6.30209E+03  3.37066E+03 -6.77894E+03 -1.31366E+03 -3.43540E+03 -5.25053E+03  1.11417E+03 -5.00652E+03
  5.00474E+03 -2.18853E+03  4.15348E+03  2.54692E+03  9.85768E+02  4.29304E+03 -4.69429E+02  4.10480E+03
 -1.84949E+03  2.46791E+03 -1.88987E+03  6.70827E+02 -6.79037E+02  6.45082E+02 -1.22906E+03  1.47943E+03
 -2.02059E+03  2.86495E+03 -5.16198E+03  2.62150E+03 -8.06643E+03  3.84328E+02 -8.95883E+03 -4.92251E+03
 -4.23620E+03 -1.06908E+04  1.86932E+03 -1.18991E+04  7.02578E+03 -8.68615E+03  1.12167E+04 -3.81614E+03
  1.03688E+04  1.64697E+03  6.37736E+03  6.59980E+03  4.76262E+02  7.92702E+03 -2.85140E+03  5.83235E+03
 -4.39991E+03  2.17909E+03 -2.81452E+03 -7.30056E+02 -1.04764E+03 -5.35661E+02 -6.74534E+02  5.00007E+02
 -1.73119E+03 -2.68099E+02 -1.62802E+03 -2.02387E+02 -6.54028E+02 -2.25554E+03  6.03758E+01 -2.81392E+03
  3.66716E+03 -2.49919E+03  4.65398E+03  1.36784E+01  5.40792E+03  4.64090E+03  1.48842E+03  7.90234E+03
 -3.84148E+03  9.09001E+03 -8.13620E+03  5.67058E+03 -9.43524E+03 -8.35308E+02 -7.56766E+03 -5.63282E+03
 -3.14422E+03 -7.99162E+03  1.97332E+03 -7.23318E+03  4.89518E+03 -3.62131E+03  4.76337E+03  4.34381E+02
  3.22419E+03  2.46710E+03 -4.29417E+02  2.24669E+03 -1.47097E+03 -3.44872E+02  1.52315E+02 -1.44769E+03
  2.90665E+03 -1.10164E+03  2.97014E+03  7.79872E+02  2.03937E+03  2.69051E+03  3.94558E+02  3.96460E+03
 -3.74633E+03  3.47376E+03 -4.98521E+03  3.30754E+02 -4.37832E+03 -3.41551E+03 -8.28459E+02 -6.24665E+03
  3.52890E+03 -5.33076E+03  5.57589E+03 -1.26776E+03  5.77132E+03  1.28378E+03  3.41499E+03  4.53043E+03
  8.07983E+02  4.50790E+03 -1.88852E+03  4.00949E+03 -3.20859E+03  2.07598E+03 -2.34765E+03  2.48507E+02
 -1.43313E+03 -2.13442E+02 -1.58605E+03  4.41370E+02 -2.46457E+03  9.52589E+02 -3.46888E+03 -7.70474E+02
 -3.85748E+03 -2.44906E+03 -9.57134E+02 -5.22082E+03  2.14215E+03 -5.54622E+03  4.35316E+03 -2.31265E+03
  4.95033E+03  6.36545E+02  2.30490E+03  3.60402E+03 -4.03060E+02  4.76904E+03 -4.31730E+03  3.55908E+03
