 $NMID ID='MM_0lb_SNR800_17hz_g60_80.RAW', FMTDAT='(8E13.5)'
 TRAMP=1., VOLUME=1. $END
  3.09505E+05  4.41269E+02  3.37448E+05  2.51062E+05  8.47778E+04  3.37762E+05 -1.32212E+05  2.50682E+05
 -1.90301E+05  8.30136E+04 -1.11823E+05 -3.25772E+04  9.87971E+02 -5.04008E+04  5.36523E+04  1.20147E+02
  3.53927E+04  5.27927E+04 -1.67880E+04  7.56422E+04 -6.08377E+04  6.34063E+04 -8.40645E+04  3.20200E+04
 -8.08928E+04 -1.11286E+04 -5.71822E+04 -5.08578E+04 -1.50865E+04 -6.92872E+04  2.71324E+04 -4.56736E+04
  4.01542E+04  3.91026E+03  1.62154E+04  4.77005E+04 -3.45129E+04  4.68244E+04 -6.68085E+04 -4.82493E+02
 -5.34456E+04 -5.67155E+04 -6.90964E+03 -7.70391E+04  3.35464E+04 -5.46293E+04  4.75902E+04 -1.71451E+04
  4.33254E+04  1.12963E+04  3.16214E+04  2.52553E+04  1.55510E+04  2.92762E+04 -5.15399E+03  2.73142E+04
 -2.19304E+04  1.24904E+04 -1.87068E+04 -5.03982E+03  5.25040E+03 -7.29895E+03  2.21577E+04  1.25310E+04
  7.38190E+03  3.52210E+04 -3.18789E+04  3.51630E+04 -6.33338E+04  2.30983E+03 -5.70808E+04 -4.25448E+04
 -1.26817E+04 -6.30466E+04  3.95856E+04 -4.49348E+04  5.76821E+04 -2.22583E+03  3.38816E+04  3.22167E+04
 -5.99309E+03  3.54142E+04 -2.96477E+04  1.56638E+04 -3.01339E+04 -4.63301E+03 -1.64147E+04 -1.08392E+04
 -8.25519E+03 -1.28332E+04 -7.31951E+02 -1.78394E+04  7.42904E+03 -2.30138E+04  1.52995E+04 -1.34655E+04
  1.16883E+04  5.09574E+03 -7.83255E+03  1.30542E+04 -2.10475E+04 -4.12564E+03 -8.32600E+03 -3.30428E+04
  2.24547E+04 -4.26768E+04  4.77958E+04 -1.94574E+04  4.47220E+04  1.91979E+04  1.54617E+04  4.36630E+04
 -1.55975E+04  3.31303E+04 -2.47014E+04  1.77982E+03 -9.70498E+03 -2.73704E+04  2.11208E+04 -3.33025E+04
  4.06253E+04 -8.52450E+03  3.46984E+04  2.37042E+04  1.73886E+04  4.59797E+04 -8.10001E+03  4.93655E+04
 -3.08425E+04  3.32555E+04 -4.12075E+04  9.86163E+03 -4.13418E+04 -1.63002E+04 -2.30207E+04 -3.72897E+04
  7.03730E+03 -3.71390E+04  3.10085E+04 -1.42728E+04  2.88415E+04  1.08630E+04  3.76313E+03  1.90060E+04
 -1.34655E+04  8.38923E+03 -1.02723E+04 -7.79534E+03  5.77610E+03 -1.03891E+04  1.80677E+04  6.31452E+03
  1.31956E+04  2.17443E+04 -6.10025E+03  2.46452E+04 -2.19571E+04  1.10963E+04 -2.74062E+04 -5.35108E+03
 -1.98729E+04 -1.73456E+04 -7.60487E+03 -1.93217E+04  3.90379E+03 -1.84156E+04  1.47268E+04 -1.73224E+04
  2.48609E+04 -1.24603E+04  3.13710E+04  2.12870E+03  2.33488E+04  1.89607E+04  3.94455E+03  3.54412E+04
 -1.69444E+04  2.97307E+04 -2.75850E+04  1.01617E+04 -2.01729E+04 -1.04133E+04 -4.45888E+03 -1.35048E+04
  2.10249E+03 -3.26322E+03 -4.44565E+03  6.12239E+03 -1.53631E+04  5.36588E+03 -1.54548E+04 -6.72566E+03
 -9.58712E+03 -1.80653E+04  5.02673E+03 -2.19700E+04  1.45685E+04 -1.55230E+04  1.74052E+04 -1.64198E+03
  1.06028E+04  1.26624E+04 -8.25230E+02  1.78148E+04 -1.21382E+04  1.03821E+04 -1.80253E+04 -4.01099E+03
 -1.32250E+04 -1.62996E+04 -1.78784E+03 -2.15491E+04  9.72937E+03 -1.75885E+04  1.82144E+04 -8.63486E+03
  1.66784E+04  3.35427E+02  1.18406E+04  4.10462E+03  6.04204E+03  9.02136E+02  8.90966E+03 -1.37586E+03
  1.63773E+04  2.62084E+03  1.77239E+04  1.43804E+04  1.16764E+04  2.85201E+04 -3.21135E+03  3.15272E+04
 -1.84200E+04  2.49914E+04 -2.91281E+04  1.23362E+04 -3.04524E+04 -2.16493E+03 -2.55793E+04 -1.74046E+04
 -1.12054E+04 -2.49746E+04  8.55708E+03 -2.26789E+04  1.96149E+04 -1.21716E+04  1.78244E+04  4.89740E+03
  7.08453E+03  1.35608E+04 -8.13253E+03  1.19186E+04 -1.51796E+04  2.50949E+03 -1.15656E+04 -9.25598E+03
 -1.82575E+01 -1.40922E+04  7.33812E+03 -1.07199E+04  9.36708E+03 -1.19683E+03  1.64129E+03  5.89162E+03
 -6.50907E+03  2.00836E+03 -4.87427E+03 -5.08486E+03  1.90487E+01 -1.24428E+04  8.97435E+03 -1.24714E+04
  1.47460E+04 -6.35430E+03  1.57457E+04  2.83440E+03  1.33492E+04  1.15205E+04  6.33032E+03  1.79922E+04
 -2.67299E+03  1.94468E+04 -1.22252E+04  1.26513E+04 -1.37642E+04  3.40631E+03 -9.97717E+03 -2.76971E+03
 -5.11656E+03 -4.11227E+03 -7.04356E+02  1.27495E+03 -2.31095E+03  2.09847E+03 -4.50818E+03  3.77674E+03
 -9.21303E+03 -5.71939E+02 -1.01035E+04 -8.15014E+03 -4.35287E+03 -1.34281E+04  4.25291E+03 -1.01344E+04
  8.34305E+03 -4.15056E+03  5.89975E+03  2.65268E+03  4.98093E+02  3.85243E+03 -4.38679E+03 -2.18261E+02
 -4.28105E+03 -6.27966E+03 -9.81775E+02 -8.74447E+03  5.05164E+03 -1.00575E+04  1.20567E+04 -5.18841E+03
  1.42485E+04  1.04247E+03  1.05841E+04  7.91177E+03  2.26121E+03  1.06776E+04 -6.17941E+03  9.77923E+03
 -8.23948E+03  3.04179E+03 -3.85415E+03 -1.84025E+03  1.05936E+03 -2.36229E+03  5.29867E+03 -7.53797E+02
  4.98067E+03  4.20687E+03  1.15970E+03  7.84889E+03 -5.21582E+03  7.49668E+03 -9.33276E+03  1.76973E+03
 -5.97681E+03 -4.51561E+03  5.17139E+02 -8.22564E+03  4.40868E+03 -4.10745E+03  4.72984E+03  1.17883E+03
  1.02117E+03  4.84438E+03 -4.83862E+03  6.22640E+03 -6.49514E+03  2.94962E+03 -6.08954E+03 -1.95648E+03
 -4.02034E+03 -7.69153E+03  1.89774E+03 -9.02434E+03  7.97834E+03 -5.74562E+03  8.49701E+03  1.58503E+03
  5.74995E+03  6.76616E+03 -2.10014E+02  8.65215E+03 -6.21065E+03  5.05385E+03 -6.78255E+03 -6.08148E+02
 -6.74212E+03 -6.36327E+03 -1.52343E+03 -6.39274E+03  3.46343E+03 -5.33398E+03  3.66288E+03 -3.08560E+03
  3.30051E+03  6.10776E+02  2.84955E+01  1.44394E+03  2.29094E+02 -5.82823E+02  4.07777E+02 -2.85994E+03
  5.37447E+03 -1.70712E+03  7.00749E+03  5.88203E+02  6.95872E+03  4.42247E+03  5.98482E+03  9.59163E+03
 -1.69567E+03  1.09916E+04 -9.72719E+03  8.33170E+03 -1.25922E+04  1.62574E+03 -9.91244E+03 -3.82821E+03
 -5.09868E+03 -8.24057E+03 -7.13101E+02 -6.95092E+03  2.61854E+03 -3.33860E+03  2.34607E+03 -2.65889E+03
  1.61542E+03 -1.52151E+03  2.02048E+03 -2.64166E+03  3.91616E+03 -1.47495E+03  4.14935E+03  2.43768E+00
  5.66412E+03  1.32883E+03  1.80929E+03  4.49011E+03 -1.61227E+03  4.24608E+03 -5.56136E+03  3.63007E+03
 -6.60502E+03 -1.17218E+03 -3.10106E+03 -4.63660E+03 -2.54337E+02 -6.72319E+03  4.19368E+03 -7.15261E+03
  6.85685E+03 -4.03050E+03  8.56437E+03  6.61738E+02  6.27377E+03  5.54423E+03  1.52410E+03  7.70986E+03
 -3.00036E+03  7.10442E+03 -4.41370E+03  2.23327E+03 -2.65755E+03 -1.04005E+03 -7.06308E+02 -8.41620E+02
 -8.62371E+02  4.32869E+02 -1.23140E+03  1.89005E+03 -2.81865E+03  1.25507E+03 -4.91248E+03 -5.98593E+02
 -2.29358E+03 -4.82155E+03  9.28974E+02 -5.83221E+03  3.72494E+03 -5.47824E+03  5.09916E+03 -1.54892E+03
  5.79416E+03  3.08840E+03  2.49370E+03  4.61866E+03 -1.20455E+03  5.66535E+03 -3.71258E+03  3.23451E+03
 -5.30760E+03  4.20104E+02 -4.44098E+03 -3.39023E+03 -3.59173E+02 -4.25841E+03  2.41907E+03 -3.29832E+03
  3.76322E+03 -1.79286E+03  2.30913E+03  4.72175E+02  5.45020E+02  2.02155E+03  8.56127E+02  9.16022E+02
  1.95021E+03  4.31773E+02  1.29244E+03  1.11762E+03  1.33973E+03  2.61025E+03  1.56428E+03  2.36737E+03
 -1.62524E+03  4.10793E+03 -3.13707E+03  4.92255E+03 -4.51711E+03  1.45538E+03 -5.55160E+03 -1.08084E+03
 -2.15253E+03 -5.06101E+03  9.51972E+02 -6.24645E+03  2.76301E+03 -3.18935E+03  4.23883E+03 -9.63329E+02
  3.42844E+03  2.33496E+03  7.87221E+02  3.09360E+03 -1.05702E+03  1.67632E+03 -1.47002E+03 -1.12540E+02
 -6.56527E+02 -1.98253E+03  1.76300E+03 -1.99576E+03  1.94829E+03 -1.07817E+03  1.66728E+03  6.72781E+02
  1.17594E+03  6.63447E+02  7.53112E+02  2.31078E+02 -2.22286E+02  7.27011E+02  1.61381E+03 -1.41442E+02
  2.75657E+02  1.14696E+01  2.25868E+03  6.60319E+02  4.84081E+02  2.68556E+03 -3.23321E+02  3.76183E+03
 -2.01578E+03  1.57138E+03 -2.65219E+03  4.49864E+02 -2.51149E+03 -1.02510E+03 -3.40801E+02 -1.44721E+03
  4.25529E+02 -1.75697E+03  9.68354E+02 -7.47833E+02  7.09508E+02  1.44413E+03 -8.34986E+02  1.33384E+03
 -1.96015E+03  1.05433E+03 -1.82518E+03 -1.37273E+03 -1.04181E+03 -2.58426E+03  1.13343E+02 -2.31084E+03
  8.45664E+02 -1.01315E+03  1.07367E+03  8.03037E+01  1.57826E+03  8.98017E+01  4.31536E+02  1.26401E+03
 -5.18156E+02  2.07056E+02 -1.21109E+03 -2.12121E+02  2.96243E+02 -1.17053E+03  2.02516E+03 -1.36795E+03
  1.87834E+03 -1.12882E+02  3.20955E+03  1.16042E+03  1.33156E+03  2.30580E+03 -1.60704E+02  2.44874E+03
 -1.83340E+03  6.83210E+02 -1.79360E+03 -6.57984E+01 -8.99143E+02 -1.74082E+03  5.27256E+02 -9.79549E+02
  1.83575E+03 -8.43674E+02  9.49001E+02  7.46313E+02  4.77376E+02  1.51040E+03  1.96265E+02  1.29671E+03
 -3.42677E+02  1.11846E+03 -3.16245E+02  2.72639E+02 -1.41431E+02  5.60828E+02 -7.22173E+02  8.81488E+02
 -8.50315E+02  1.28931E+03 -1.99669E+03  8.67434E+02 -2.44937E+03  3.81388E+02 -3.38471E+03 -1.41314E+03
 -9.68220E+02 -3.14851E+03  6.98583E+02 -3.61116E+03  1.56694E+03 -3.17609E+03  3.17015E+03 -9.46862E+02
  2.95282E+03 -5.06281E+01  1.78834E+03  2.03232E+03 -1.32954E+02  2.01824E+03 -9.69168E+02  1.54722E+03
 -1.27810E+03  7.07477E+02 -6.55081E+02  6.37222E+01 -5.61772E+02 -5.89364E+01 -5.29112E+02  2.25556E+02
 -1.10101E+03 -3.00803E+02 -1.06450E+03 -1.47085E+01  1.35244E+02 -7.94925E+02 -4.22555E+02 -1.10320E+03
  1.50723E+03 -7.79785E+02  6.54253E+02  1.87749E+02  1.55210E+03  1.50523E+03 -1.82193E+02  2.14938E+03
 -1.13808E+03  2.75796E+03 -1.91322E+03  1.95084E+03 -2.43915E+03 -3.99859E+02 -1.77757E+03 -1.54070E+03
 -9.02758E+02 -2.05519E+03  5.63714E+02 -1.61524E+03  1.23845E+03 -8.74533E+02  9.74783E+02  4.78382E+02
  8.99492E+02  5.64129E+02  5.91749E+01  5.83608E+02 -2.86932E+02  9.43032E+01  1.73313E+02 -2.97925E+02
  4.64236E+02  6.15307E+02  4.27476E+02  7.26539E+02  2.17705E+02  9.37151E+02  2.61667E+02  5.37426E+02
 -5.21834E+02  8.77386E+02 -8.59668E+02  5.74370E+01 -9.41543E+02 -5.65174E+02  2.19994E+01 -1.43966E+03
  9.01522E+02 -1.18067E+03  8.20971E+02 -2.99074E+02  1.29384E+03 -6.51773E+02  9.57182E+02  1.12953E+03
  5.69555E+02  7.54457E+02 -3.96005E+02  8.02159E+02 -8.96748E+02  7.70228E+02 -5.20848E+02  2.72583E+02
  1.20047E+02  4.03652E+01 -4.45035E+02  2.29856E+02 -9.12211E+02 -7.53486E+01 -1.00625E+03 -5.38306E+02
 -1.15895E+03  2.75051E+02 -4.50634E+02 -1.13024E+03  1.03511E+03 -1.73671E+03  9.96961E+02 -2.06078E+02
  1.14746E+03  2.86932E+02 -9.96641E+01  4.00932E+02 -2.83849E+02  8.80238E+02 -5.60204E+02  9.67469E+02
