 $NMID ID='MM_0lb_SNR800_9hz_g45_6.RAW', FMTDAT='(8E13.5)'
 TRAMP=1., VOLUME=1. $END
  3.09486E+05  5.52531E+02  3.37813E+05  2.50556E+05  8.50775E+04  3.38162E+05 -1.33014E+05  2.51893E+05
 -1.91202E+05  8.37445E+04 -1.12468E+05 -3.21408E+04  8.09630E+02 -5.09145E+04  5.35870E+04 -2.27211E+02
  3.56303E+04  5.31710E+04 -1.67314E+04  7.59500E+04 -6.08919E+04  6.46913E+04 -8.52491E+04  3.26462E+04
 -8.22512E+04 -1.20700E+04 -5.84651E+04 -5.23014E+04 -1.52802E+04 -7.11771E+04  2.82036E+04 -4.72510E+04
  4.05611E+04  3.60351E+03  1.68407E+04  4.83752E+04 -3.46620E+04  4.80038E+04 -6.83837E+04 -1.57976E+02
 -5.48176E+04 -5.78289E+04 -7.26986E+03 -7.88768E+04  3.45302E+04 -5.70346E+04  4.96333E+04 -1.81538E+04
  4.50374E+04  1.13644E+04  3.30100E+04  2.63497E+04  1.57961E+04  3.05542E+04 -6.18634E+03  2.74783E+04
 -2.23091E+04  1.21737E+04 -1.76575E+04 -5.65222E+03  6.60094E+03 -7.07720E+03  2.32511E+04  1.34401E+04
  7.28291E+03  3.70868E+04 -3.39818E+04  3.69188E+04 -6.58733E+04  2.30611E+03 -5.86093E+04 -4.46901E+04
 -1.29732E+04 -6.57025E+04  4.13441E+04 -4.71768E+04  6.10856E+04 -2.59761E+03  3.69621E+04  3.41044E+04
 -5.91177E+03  3.92986E+04 -3.15567E+04  1.81034E+04 -3.33533E+04 -3.69945E+03 -1.88163E+04 -1.18799E+04
 -9.30490E+03 -1.47991E+04 -7.63129E+01 -1.94962E+04  8.02228E+03 -2.36025E+04  1.62623E+04 -1.28333E+04
  1.06802E+04  5.77110E+03 -9.97618E+03  1.30083E+04 -2.31451E+04 -6.21410E+03 -8.86735E+03 -3.71542E+04
  2.46958E+04 -4.63238E+04  5.14830E+04 -2.07098E+04  4.82896E+04  2.06460E+04  1.71792E+04  4.65275E+04
 -1.63551E+04  3.58346E+04 -2.72580E+04  2.66677E+03 -1.16631E+04 -2.90579E+04  2.14996E+04 -3.64590E+04
  4.44125E+04 -1.03110E+04  4.00769E+04  2.50329E+04  2.11668E+04  5.06559E+04 -8.51824E+03  5.51552E+04
 -3.50869E+04  3.75419E+04 -4.70058E+04  1.06180E+04 -4.73061E+04 -1.83418E+04 -2.57646E+04 -4.15639E+04
  8.37916E+03 -4.16674E+04  3.36871E+04 -1.69449E+04  3.18211E+04  1.14318E+04  5.18632E+03  2.04867E+04
 -1.40983E+04  9.75060E+03 -1.14565E+04 -7.33236E+03  5.94310E+03 -1.12794E+04  1.85804E+04  5.40544E+03
  1.48824E+04  2.27103E+04 -5.10789E+03  2.69036E+04 -2.33745E+04  1.39264E+04 -3.09583E+04 -2.94091E+03
 -2.49982E+04 -1.82244E+04 -1.11399E+04 -2.46927E+04  4.32492E+03 -2.47791E+04  1.94485E+04 -2.28023E+04
  3.18436E+04 -1.40063E+04  3.75377E+04  5.17954E+03  2.69030E+04  2.43690E+04  4.17671E+03  4.03927E+04
 -1.91753E+04  3.36753E+04 -3.02478E+04  1.19513E+04 -2.24584E+04 -9.92975E+03 -4.79114E+03 -1.24955E+04
  9.25271E+02 -1.05868E+03 -7.25834E+03  8.44111E+03 -1.97013E+04  4.92859E+03 -1.97988E+04 -8.80387E+03
 -1.18136E+04 -2.34017E+04  6.30492E+03 -2.75115E+04  1.84135E+04 -1.93019E+04  2.22985E+04 -1.65886E+03
  1.42502E+04  1.56677E+04 -1.14114E+03  2.27217E+04 -1.62516E+04  1.32521E+04 -2.31542E+04 -5.11810E+03
 -1.71594E+04 -2.04429E+04 -2.23115E+03 -2.76552E+04  1.23011E+04 -2.31555E+04  2.27537E+04 -1.16341E+04
  2.14864E+04 -4.27119E+02  1.57252E+04  5.03364E+03  8.27654E+03  1.79556E+03  1.14718E+04 -2.35234E+03
  2.13966E+04  2.85436E+03  2.47429E+04  1.78821E+04  1.68795E+04  3.70399E+04 -2.76399E+03  4.34196E+04
 -2.42502E+04  3.62891E+04 -4.10172E+04  1.88837E+04 -4.36444E+04 -3.29228E+03 -3.54916E+04 -2.58661E+04
 -1.41892E+04 -3.63412E+04  1.28850E+04 -3.22187E+04  2.69347E+04 -1.51894E+04  2.39960E+04  7.51634E+03
  8.03239E+03  1.88833E+04 -1.14437E+04  1.52088E+04 -1.97526E+04  2.96751E+03 -1.56240E+04 -1.24146E+04
 -3.62733E+02 -1.88936E+04  1.05260E+04 -1.36537E+04  1.30158E+04 -1.33257E+03  3.64733E+03  8.65314E+03
 -8.88126E+03  4.08891E+03 -8.71415E+03 -6.98273E+03 -1.66053E+03 -1.78946E+04  1.16554E+04 -1.92091E+04
  2.23523E+04 -1.09937E+04  2.53710E+04  3.20898E+03  2.22984E+04  1.80085E+04  1.00317E+04  2.82885E+04
 -5.38364E+03  3.02676E+04 -1.93619E+04  1.90212E+04 -2.15672E+04  4.12854E+03 -1.48048E+04 -5.67918E+03
 -6.33166E+03 -6.97664E+03 -6.02322E+02  2.72907E+02 -2.80000E+03  3.22227E+03 -6.70748E+03  5.21923E+03
 -1.35120E+04 -8.82287E+02 -1.47783E+04 -1.10737E+04 -6.16089E+03 -1.92650E+04  6.63335E+03 -1.49819E+04
  1.26996E+04 -6.38925E+03  9.07400E+03  3.97817E+03  1.32748E+02  6.32199E+03 -7.59749E+03 -1.63661E+02
 -7.16712E+03 -9.54480E+03 -6.25377E+02 -1.48938E+04  8.81284E+03 -1.56376E+04  1.92707E+04 -8.36147E+03
  2.27666E+04  2.63234E+03  1.68124E+04  1.41641E+04  3.40555E+03  1.82659E+04 -9.52909E+03  1.54206E+04
 -1.23266E+04  3.95197E+03 -6.14031E+03 -3.55478E+03  2.25682E+03 -4.64972E+03  7.87133E+03 -9.69433E+02
  7.12348E+03  6.45114E+03  1.02098E+03  1.24949E+04 -9.04696E+03  1.14746E+04 -1.51747E+04  2.52596E+03
 -1.05644E+04 -8.01496E+03  4.35043E+02 -1.30728E+04  9.04282E+03 -7.28547E+03  8.72350E+03  3.39310E+03
  1.70825E+03  9.60104E+03 -7.97386E+03  1.12886E+04 -1.29773E+04  4.69346E+03 -1.31352E+04 -4.82415E+03
 -7.62465E+03 -1.58602E+04  3.82423E+03 -1.78277E+04  1.45167E+04 -1.06867E+04  1.61138E+04  2.64806E+03
  9.95229E+03  1.28587E+04 -1.86107E+03  1.55825E+04 -1.11737E+04  8.91039E+03 -1.22851E+04 -1.47882E+03
 -1.00046E+04 -1.03518E+04 -1.51578E+03 -1.19474E+04  6.18875E+03 -9.53645E+03  6.85460E+03 -3.41323E+03
  4.78179E+03  1.81427E+03 -1.23253E+03  1.73892E+03 -6.87237E+02 -3.60103E+03  2.45728E+03 -7.21590E+03
  1.10259E+04 -4.73151E+03  1.57754E+04  2.00204E+03  1.53685E+04  1.06252E+04  1.02707E+04  2.01416E+04
 -4.98928E+03  2.31210E+04 -1.92352E+04  1.73816E+04 -2.49455E+04  2.82604E+03 -2.01459E+04 -8.79225E+03
 -1.03856E+04 -1.69514E+04 -8.01728E+02 -1.43036E+04  4.99353E+03 -8.10666E+03  5.21886E+03 -4.98635E+03
  3.81155E+03 -3.25364E+03  3.88359E+03 -3.76768E+03  5.90100E+03 -3.28800E+03  8.04221E+03 -1.24943E+03
  1.01205E+04  2.49754E+03  5.48344E+03  9.02663E+03 -2.37969E+03  1.09467E+04 -1.09288E+04  8.42582E+03
 -1.43760E+04 -1.18223E+03 -9.51955E+03 -1.02442E+04 -1.21822E+03 -1.57762E+04  8.34024E+03 -1.51432E+04
  1.60636E+04 -8.81172E+03  1.89777E+04  2.44560E+03  1.31694E+04  1.31067E+04  2.23429E+03  1.75662E+04
 -7.29030E+03  1.41390E+04 -1.01480E+04  5.03310E+03 -7.01834E+03 -1.53386E+03 -2.88680E+03 -2.53799E+03
 -1.35889E+03 -4.52307E+02 -2.42812E+03  2.99772E+03 -6.12642E+03  1.90125E+03 -9.85958E+03 -1.16504E+03
 -6.88996E+03 -9.93354E+03 -3.66669E+01 -1.43276E+04  9.11618E+03 -1.32239E+04  1.41795E+04 -3.80094E+03
  1.43488E+04  7.15640E+03  6.66880E+03  1.29142E+04 -2.40661E+03  1.46121E+04 -1.05677E+04  8.74031E+03
 -1.35356E+04  6.91600E+02 -1.01073E+04 -8.86395E+03 -1.09423E+03 -1.21785E+04  6.09407E+03 -9.10981E+03
  9.25095E+03 -2.78905E+03  6.60363E+03  2.44950E+03  2.09277E+03  3.89967E+03  1.46505E+03  2.09753E+03
  2.26322E+03  1.18892E+03  3.68210E+03  1.91856E+03  4.51970E+03  5.15145E+03  3.42788E+03  7.82059E+03
 -2.90099E+03  1.12536E+04 -1.00404E+04  1.16695E+04 -1.47298E+04  2.96937E+03 -1.53274E+04 -6.29541E+03
 -6.92643E+03 -1.46656E+04  2.19630E+03 -1.59388E+04  8.88695E+03 -1.03652E+04  1.19082E+04 -2.74539E+03
  9.19669E+03  5.77948E+03  2.38734E+03  8.61307E+03 -4.31587E+03  5.48471E+03 -5.93797E+03 -1.29808E+03
 -2.99053E+03 -6.45889E+03  3.21769E+03 -6.47738E+03  6.01947E+03 -3.59871E+03  5.95796E+03  1.44358E+03
  3.36004E+03  2.99403E+03  1.38429E+03  2.24904E+03 -1.03484E+03  1.63482E+03  2.05198E+03 -3.21983E+02
  2.20749E+03 -4.73866E+02  6.11065E+03  2.07421E+03  3.52178E+03  7.65785E+03 -1.48973E+03  1.04849E+04
 -7.01060E+03  6.89442E+03 -9.17531E+03  1.63731E+03 -8.60917E+03 -3.55437E+03 -3.20079E+03 -5.73044E+03
  1.08343E+03 -5.82884E+03  3.93542E+03 -2.88481E+03  3.19347E+03  2.92700E+03 -1.36346E+03  4.56645E+03
 -6.11654E+03  2.73401E+03 -7.10147E+03 -3.28592E+03 -4.22247E+03 -8.19161E+03  1.04347E+03 -8.27673E+03
  4.72609E+03 -4.85438E+03  5.81124E+03 -3.71065E+02  5.23745E+03  1.83513E+03  1.23282E+02  4.13698E+03
 -3.07182E+03  1.49473E+03 -3.59625E+03 -2.87092E+03  1.40649E+03 -6.16252E+03  7.32959E+03 -5.01438E+03
  9.17404E+03  5.52865E+02  8.84314E+03  6.43494E+03  2.81248E+03  9.74651E+03 -3.30132E+03  9.57698E+03
 -8.19472E+03  4.32551E+03 -8.25013E+03 -1.05201E+03 -4.75630E+03 -6.72406E+03  1.49840E+03 -5.80344E+03
  6.50721E+03 -2.68138E+03  5.13654E+03  2.81454E+03  1.60284E+03  5.43114E+03 -8.35619E+02  4.66123E+03
 -2.39565E+03  3.22835E+03 -2.68502E+03  7.50756E+02 -9.01030E+02  9.40662E+02 -1.39142E+03  1.98488E+03
 -2.42388E+03  3.75807E+03 -6.85929E+03  3.21511E+03 -9.55427E+03 -1.37995E+02 -1.10136E+04 -6.48362E+03
 -5.56514E+03 -1.27591E+04  2.36671E+03 -1.50786E+04  9.16596E+03 -1.17774E+04  1.40419E+04 -4.32971E+03
  1.29927E+04  2.64387E+03  7.80254E+03  9.09846E+03  8.51222E+02  1.04220E+04 -4.00280E+03  7.71485E+03
 -5.22798E+03  2.67868E+03 -3.25452E+03 -1.00228E+03 -1.02822E+03 -1.06617E+03 -7.05104E+02 -6.39623E+01
 -1.91596E+03  1.86653E+02 -2.53609E+03 -3.18143E+02 -8.14463E+02 -2.62263E+03  1.20397E+02 -3.60262E+03
  4.16458E+03 -3.36744E+03  6.08747E+03  1.81449E+02  6.75515E+03  4.97119E+03  2.13817E+03  1.02056E+04
 -4.84305E+03  1.13474E+04 -1.07124E+04  6.85742E+03 -1.25601E+04 -1.20863E+03 -9.44542E+03 -7.69447E+03
 -3.82453E+03 -9.85626E+03  2.80657E+03 -9.34946E+03  6.20114E+03 -5.30635E+03  7.00890E+03  1.05984E+02
  3.79176E+03  3.47301E+03 -7.32755E+02  2.96508E+03 -2.29019E+03 -4.74290E+02 -1.23321E+02 -2.07969E+03
  3.11743E+03 -1.78958E+03  3.79939E+03  1.64429E+03  2.79114E+03  4.05824E+03 -2.00573E+02  5.27497E+03
 -4.50135E+03  4.56252E+03 -6.65986E+03  4.52594E+02 -6.17493E+03 -4.67218E+03 -9.41539E+02 -8.40061E+03
  4.99250E+03 -7.37352E+03  8.14671E+03 -2.37010E+03  8.10975E+03  2.15685E+03  4.64616E+03  6.73251E+03
  1.12055E+03  6.67931E+03 -2.61162E+03  5.49034E+03 -4.20714E+03  2.95027E+03 -3.72536E+03  1.59892E+02
 -2.01221E+03 -8.40728E+02 -1.81434E+03  1.26076E+03 -3.65778E+03  1.41187E+03 -5.00961E+03 -6.33920E+02
 -5.12539E+03 -3.39838E+03 -1.69829E+03 -6.80288E+03  3.20583E+03 -7.16965E+03  6.39024E+03 -3.45943E+03
  7.00611E+03  6.71254E+02  3.66633E+03  4.65256E+03 -5.32962E+02  7.04568E+03 -5.21868E+03  4.12059E+03
