 $NMID ID='MM_0lb_SNR800_14hz_g60_16.RAW', FMTDAT='(8E13.5)'
 TRAMP=1., VOLUME=1. $END
  3.09756E+05  2.33944E+02  3.37671E+05  2.50632E+05  8.46973E+04  3.38178E+05 -1.32582E+05  2.51388E+05
 -1.90251E+05  8.34048E+04 -1.12459E+05 -3.26470E+04  7.50601E+02 -5.06320E+04  5.38464E+04  6.18865E+00
  3.55804E+04  5.30365E+04 -1.67734E+04  7.53713E+04 -6.09769E+04  6.39839E+04 -8.47505E+04  3.21551E+04
 -8.19768E+04 -1.17609E+04 -5.78512E+04 -5.19646E+04 -1.49693E+04 -7.01043E+04  2.74310E+04 -4.63102E+04
  4.05432E+04  3.87172E+03  1.64035E+04  4.78864E+04 -3.47038E+04  4.75829E+04 -6.73164E+04  6.92354E+01
 -5.39652E+04 -5.71173E+04 -6.97973E+03 -7.80002E+04  3.43070E+04 -5.57183E+04  4.89705E+04 -1.76956E+04
  4.39980E+04  1.14569E+04  3.23515E+04  2.56228E+04  1.58271E+04  3.02399E+04 -5.60671E+03  2.76083E+04
 -2.25412E+04  1.22442E+04 -1.84356E+04 -5.44483E+03  6.42974E+03 -7.34705E+03  2.27745E+04  1.26986E+04
  7.12619E+03  3.62500E+04 -3.28016E+04  3.64984E+04 -6.43291E+04  2.02519E+03 -5.77865E+04 -4.34534E+04
 -1.23328E+04 -6.40121E+04  4.03576E+04 -4.61174E+04  5.94822E+04 -2.52501E+03  3.51627E+04  3.31034E+04
 -5.88331E+03  3.74622E+04 -3.07594E+04  1.71200E+04 -3.17010E+04 -3.99859E+03 -1.77005E+04 -1.13045E+04
 -8.65089E+03 -1.36973E+04 -6.48387E+02 -1.83805E+04  7.75350E+03 -2.32843E+04  1.52801E+04 -1.27710E+04
  1.14253E+04  5.64243E+03 -8.96446E+03  1.29741E+04 -2.24980E+04 -5.35778E+03 -8.43777E+03 -3.50203E+04
  2.34510E+04 -4.49141E+04  4.97869E+04 -2.00277E+04  4.62234E+04  1.99402E+04  1.63917E+04  4.51807E+04
 -1.60416E+04  3.45556E+04 -2.59008E+04  2.25566E+03 -1.04519E+04 -2.84588E+04  2.09986E+04 -3.48786E+04
  4.24503E+04 -9.34727E+03  3.73558E+04  2.40658E+04  1.91332E+04  4.79685E+04 -8.07476E+03  5.23023E+04
 -3.28553E+04  3.52582E+04 -4.39558E+04  1.01985E+04 -4.44325E+04 -1.72003E+04 -2.42581E+04 -3.91481E+04
  7.55528E+03 -3.92021E+04  3.24231E+04 -1.52752E+04  3.03230E+04  1.08422E+04  4.47580E+03  1.94880E+04
 -1.34598E+04  8.88730E+03 -1.04924E+04 -7.61516E+03  5.33665E+03 -1.10534E+04  1.85653E+04  5.92777E+03
  1.37328E+04  2.23386E+04 -5.79817E+03  2.57457E+04 -2.28549E+04  1.24726E+04 -2.92396E+04 -4.33009E+03
 -2.18709E+04 -1.78971E+04 -9.38430E+03 -2.20642E+04  4.01656E+03 -2.15870E+04  1.67455E+04 -1.95574E+04
  2.74598E+04 -1.31746E+04  3.42266E+04  3.31834E+03  2.47441E+04  2.13358E+04  3.90678E+03  3.79199E+04
 -1.86353E+04  3.15382E+04 -2.87831E+04  1.06501E+04 -2.17332E+04 -1.01128E+04 -4.58776E+03 -1.31971E+04
  1.52319E+03 -2.14919E+03 -5.34852E+03  7.20634E+03 -1.73612E+04  5.40246E+03 -1.71615E+04 -7.91725E+03
 -1.07508E+04 -2.03392E+04  5.21265E+03 -2.44524E+04  1.62840E+04 -1.73125E+04  1.93476E+04 -1.65157E+03
  1.22967E+04  1.40410E+04 -1.03588E+03  2.01420E+04 -1.38425E+04  1.15777E+04 -1.98365E+04 -4.26691E+03
 -1.49377E+04 -1.82536E+04 -2.26337E+03 -2.42838E+04  1.11065E+04 -2.00846E+04  2.02551E+04 -1.01763E+04
  1.86343E+04  1.14896E+02  1.36362E+04  4.78656E+03  7.35290E+03  1.19516E+03  1.01672E+04 -1.70741E+03
  1.90350E+04  2.34412E+03  2.08734E+04  1.57820E+04  1.39796E+04  3.22508E+04 -2.86184E+03  3.63730E+04
 -2.11967E+04  2.97446E+04 -3.41027E+04  1.49125E+04 -3.60584E+04 -2.41938E+03 -2.96248E+04 -2.11214E+04
 -1.23705E+04 -2.97583E+04  1.03350E+04 -2.66601E+04  2.29120E+04 -1.33720E+04  2.01185E+04  6.05488E+03
  7.24328E+03  1.51310E+04 -9.87977E+03  1.35191E+04 -1.73989E+04  2.50885E+03 -1.29523E+04 -1.03015E+04
 -6.09725E+02 -1.61725E+04  8.42262E+03 -1.19262E+04  1.07482E+04 -1.24686E+03  2.61580E+03  6.60369E+03
 -7.20762E+03  2.80394E+03 -6.47728E+03 -5.99275E+03 -7.80173E+02 -1.45933E+04  1.03177E+04 -1.53367E+04
  1.79511E+04 -7.97983E+03  1.97216E+04  2.92394E+03  1.71154E+04  1.43547E+04  8.06244E+03  2.22464E+04
 -3.79307E+03  2.41937E+04 -1.53677E+04  1.50928E+04 -1.71690E+04  3.48312E+03 -1.23770E+04 -3.88431E+03
 -5.60547E+03 -5.58796E+03 -9.61787E+02  1.06401E+03 -2.09259E+03  2.81269E+03 -5.38662E+03  4.45968E+03
 -1.13473E+04 -9.86685E+02 -1.21295E+04 -9.68740E+03 -4.93225E+03 -1.54994E+04  5.01209E+03 -1.23913E+04
  1.01511E+04 -5.65367E+03  7.11326E+03  3.12623E+03 -1.83171E+02  4.63587E+03 -5.92223E+03 -5.35664E+02
 -5.68022E+03 -7.54696E+03 -1.06803E+03 -1.14801E+04  6.64860E+03 -1.22829E+04  1.50160E+04 -6.48191E+03
  1.77748E+04  1.47110E+03  1.28104E+04  1.03195E+04  2.36081E+03  1.38402E+04 -7.55631E+03  1.16970E+04
 -9.78577E+03  3.72293E+03 -4.95989E+03 -2.25600E+03  1.82104E+03 -3.21544E+03  6.60955E+03 -9.41555E+02
  5.83607E+03  5.15053E+03  1.15531E+03  9.51835E+03 -6.62483E+03  9.06516E+03 -1.14931E+04  2.32053E+03
 -7.91531E+03 -5.96484E+03  4.65050E+02 -9.95767E+03  6.45076E+03 -4.95342E+03  6.29610E+03  2.14950E+03
  1.18862E+03  6.65162E+03 -6.13827E+03  7.98229E+03 -9.22414E+03  3.82600E+03 -9.12382E+03 -3.13044E+03
 -5.50717E+03 -1.09757E+04  2.50507E+03 -1.25013E+04  1.04326E+04 -7.52101E+03  1.13260E+04  1.95626E+03
  7.07843E+03  9.08482E+03 -7.56618E+02  1.14609E+04 -8.19035E+03  6.41888E+03 -8.83397E+03 -9.12386E+02
 -8.27361E+03 -7.84555E+03 -1.73768E+03 -8.12277E+03  4.35506E+03 -7.05415E+03  4.91214E+03 -3.34273E+03
  3.78287E+03  1.09212E+03 -3.68603E+02  1.71669E+03  2.82754E+02 -1.73025E+03  1.38731E+03 -4.17969E+03
  7.63548E+03 -2.91766E+03  1.02089E+04  1.32697E+03  1.01327E+04  6.79161E+03  7.54525E+03  1.32199E+04
 -3.55042E+03  1.56885E+04 -1.33593E+04  1.15490E+04 -1.71823E+04  2.27294E+03 -1.36201E+04 -5.63401E+03
 -6.74923E+03 -1.15413E+04 -4.23136E+02 -9.33876E+03  3.63338E+03 -4.95846E+03  3.57791E+03 -3.28237E+03
  2.36252E+03 -2.11060E+03  3.16742E+03 -2.80120E+03  4.38742E+03 -2.56992E+03  5.66930E+03 -1.21847E+02
  7.20282E+03  1.67773E+03  3.21845E+03  5.97988E+03 -1.86364E+03  6.49380E+03 -7.45444E+03  5.09927E+03
 -9.18272E+03 -1.34461E+03 -4.92171E+03 -6.52466E+03 -3.74774E+02 -9.58290E+03  5.44192E+03 -9.89563E+03
  9.82055E+03 -5.63123E+03  1.19419E+04  1.24006E+03  8.82171E+03  8.44625E+03  1.86939E+03  1.14900E+04
 -4.00015E+03  9.48098E+03 -6.54031E+03  3.13434E+03 -3.76162E+03 -1.39036E+03 -1.46765E+03 -9.91727E+02
 -9.69061E+02  7.60833E+02 -1.43345E+03  2.43244E+03 -4.28737E+03  1.62617E+03 -6.12247E+03 -7.15551E+02
 -3.62944E+03 -6.49678E+03  2.96550E+02 -8.73543E+03  5.67248E+03 -7.67249E+03  7.59766E+03 -2.46273E+03
  8.08642E+03  4.42434E+03  3.82371E+03  7.26454E+03 -1.78012E+03  8.82576E+03 -5.75659E+03  5.49122E+03
 -7.83011E+03  5.98625E+02 -6.45032E+03 -4.90604E+03 -5.74391E+02 -6.75820E+03  3.47327E+03 -5.26500E+03
  5.46466E+03 -2.01091E+03  3.65592E+03  1.21844E+03  1.25441E+03  2.91089E+03  1.19818E+03  1.13293E+03
  2.03363E+03  7.84049E+02  2.03920E+03  1.09217E+03  2.53101E+03  3.35381E+03  2.42384E+03  4.53584E+03
 -1.80862E+03  6.45843E+03 -5.51854E+03  7.29632E+03 -8.05438E+03  2.36272E+03 -8.57882E+03 -2.42174E+03
 -4.01406E+03 -8.21332E+03  1.40324E+03 -9.28503E+03  4.67613E+03 -5.60787E+03  6.54564E+03 -1.31093E+03
  5.26458E+03  3.57558E+03  1.19449E+03  4.56186E+03 -1.86243E+03  2.92800E+03 -3.20776E+03 -5.00644E+02
 -1.67272E+03 -3.50873E+03  2.29745E+03 -3.47201E+03  2.94542E+03 -2.11774E+03  3.08048E+03  5.94439E+02
  1.45147E+03  1.18275E+03  9.15718E+02  9.30708E+02 -6.57468E+02  1.29323E+03  1.63276E+03 -1.24608E+02
  8.07850E+02 -2.33773E+02  3.56229E+03  1.34349E+03  1.71733E+03  4.68471E+03 -7.53963E+02  5.71803E+03
 -3.78631E+03  3.13949E+03 -4.84786E+03  8.77424E+02 -4.16595E+03 -1.45365E+03 -1.18567E+03 -2.74229E+03
  8.70527E+02 -2.84226E+03  1.63591E+03 -1.42928E+03  1.70323E+03  1.86281E+03 -1.11575E+03  2.57396E+03
 -3.37916E+03  1.63702E+03 -3.32132E+03 -2.26627E+03 -1.79500E+03 -4.36656E+03  3.98963E+02 -3.81782E+03
  2.11462E+03 -2.35899E+03  2.68381E+03  1.05849E+01  2.68557E+03  5.77257E+02  3.32577E+02  2.24739E+03
 -1.11239E+03  4.15355E+02 -1.71582E+03 -1.23967E+03  1.00330E+03 -2.80664E+03  3.64007E+03 -2.08488E+03
  4.10798E+03  2.02871E+02  4.87146E+03  2.63814E+03  1.76586E+03  4.63567E+03 -1.20765E+03  4.32959E+03
 -3.83033E+03  1.63005E+03 -3.94771E+03 -6.96322E+02 -2.37085E+03 -2.98095E+03  6.16613E+02 -2.43500E+03
  3.01200E+03 -1.12794E+03  2.17995E+03  1.50225E+03  8.34657E+02  2.94411E+03 -2.15645E+02  2.24685E+03
 -1.39275E+03  1.78954E+03 -1.18963E+03  4.45519E+02 -5.47067E+02  3.95060E+02 -8.20205E+02  9.28530E+02
 -1.10401E+03  1.74814E+03 -3.14062E+03  1.57192E+03 -4.38217E+03  2.56878E+02 -5.14090E+03 -2.44697E+03
 -2.31622E+03 -5.82419E+03  1.41154E+03 -6.71068E+03  3.47201E+03 -5.43190E+03  6.80523E+03 -2.04924E+03
  5.86749E+03  4.61931E+02  3.70066E+03  3.89901E+03 -2.32334E+02  4.19704E+03 -1.70050E+03  3.25583E+03
 -2.47820E+03  1.36350E+03 -1.48993E+03 -5.99707E+02 -7.05629E+02  9.21436E+01 -4.22880E+02 -1.17035E+02
 -1.42191E+03 -2.58434E+01 -1.24983E+03 -1.88609E+02  1.98395E+02 -1.16653E+03 -3.34385E+02 -1.92525E+03
  2.39709E+03 -1.59940E+03  2.02511E+03  3.29230E+02  2.95828E+03  2.56005E+03 -1.94973E+01  4.47083E+03
 -2.12181E+03  4.59970E+03 -4.41258E+03  3.14909E+03 -4.93947E+03 -6.42535E+02 -3.80493E+03 -3.11220E+03
 -1.99222E+03 -3.94219E+03  1.05796E+03 -3.54336E+03  2.31452E+03 -1.87522E+03  2.64099E+03  6.01721E+01
  1.79544E+03  1.56321E+03 -1.52038E+02  9.63716E+02 -6.97278E+02  2.52469E+02 -8.92923E+01 -6.01848E+02
  1.17796E+03 -3.32852E+02  1.57000E+03  6.00860E+02  8.99251E+02  1.48631E+03  3.56164E+02  1.62650E+03
 -1.64782E+03  1.54362E+03 -2.14537E+03  4.61792E+02 -2.10857E+03 -1.80770E+03  6.74751E+01 -3.13265E+03
  1.77205E+03 -2.45514E+03  2.55930E+03 -7.86411E+02  2.92955E+03  4.50082E+01  1.49271E+03  2.28029E+03
  7.04588E+02  2.23448E+03 -8.73959E+02  1.97637E+03 -1.87658E+03  1.28616E+03 -1.29910E+03  1.94862E+02
 -6.32297E+02 -1.59475E+02 -9.73992E+02  1.93907E+02 -1.15348E+03  4.48419E+02 -1.79497E+03 -5.35121E+02
 -2.02061E+03 -6.43521E+02 -5.91260E+02 -2.63525E+03  1.54004E+03 -2.95427E+03  2.39070E+03 -1.04998E+03
  2.22592E+03 -2.87925E+01  7.70241E+02  1.16184E+03  6.82437E+01  2.39443E+03 -1.84108E+03  1.09420E+03
