 $NMID ID='MM_0lb_SNR800_11hz_g55_32.RAW', FMTDAT='(8E13.5)'
 TRAMP=1., VOLUME=1. $END
  3.09984E+05  2.86410E+02  3.37664E+05  2.50848E+05  8.48811E+04  3.38425E+05 -1.32803E+05  2.51406E+05
 -1.90863E+05  8.34829E+04 -1.12326E+05 -3.25106E+04  4.53829E+02 -5.05338E+04  5.37338E+04 -4.65103E+02
  3.53736E+04  5.28417E+04 -1.64919E+04  7.56107E+04 -6.11461E+04  6.41635E+04 -8.54377E+04  3.24727E+04
 -8.21060E+04 -1.11758E+04 -5.76368E+04 -5.22961E+04 -1.51505E+04 -7.05452E+04  2.77151E+04 -4.63012E+04
  4.07620E+04  3.58832E+03  1.63854E+04  4.81927E+04 -3.47394E+04  4.80100E+04 -6.79942E+04 -5.80068E+01
 -5.45295E+04 -5.75074E+04 -6.82208E+03 -7.83567E+04  3.45386E+04 -5.65597E+04  4.93026E+04 -1.81115E+04
  4.45937E+04  1.14804E+04  3.23571E+04  2.63116E+04  1.61396E+04  3.02834E+04 -5.49047E+03  2.72477E+04
 -2.20961E+04  1.18652E+04 -1.81868E+04 -5.37207E+03  6.66680E+03 -6.99488E+03  2.33984E+04  1.33825E+04
  6.80434E+03  3.66269E+04 -3.33634E+04  3.66025E+04 -6.55212E+04  1.79471E+03 -5.87466E+04 -4.39942E+04
 -1.29182E+04 -6.53588E+04  4.12619E+04 -4.70730E+04  6.04489E+04 -2.45531E+03  3.60468E+04  3.36578E+04
 -5.55568E+03  3.88417E+04 -3.15134E+04  1.78844E+04 -3.26030E+04 -3.69035E+03 -1.83905E+04 -1.19418E+04
 -9.41037E+03 -1.47601E+04 -5.00562E+02 -1.93755E+04  8.24293E+03 -2.34126E+04  1.57527E+04 -1.27572E+04
  1.09143E+04  6.15010E+03 -9.89606E+03  1.30248E+04 -2.30134E+04 -6.12256E+03 -8.76888E+03 -3.68286E+04
  2.44033E+04 -4.57690E+04  5.10598E+04 -2.06321E+04  4.75320E+04  2.03824E+04  1.67020E+04  4.65412E+04
 -1.64109E+04  3.51379E+04 -2.70739E+04  2.37024E+03 -1.12373E+04 -2.89349E+04  2.12951E+04 -3.64972E+04
  4.29635E+04 -1.07228E+04  3.93576E+04  2.43305E+04  2.05005E+04  4.99766E+04 -8.01466E+03  5.44810E+04
 -3.44845E+04  3.71488E+04 -4.61860E+04  1.06606E+04 -4.62696E+04 -1.76366E+04 -2.57179E+04 -4.13275E+04
  7.79391E+03 -4.07307E+04  3.35459E+04 -1.61467E+04  3.09859E+04  1.10377E+04  4.93258E+03  2.03766E+04
 -1.38134E+04  9.41475E+03 -1.10223E+04 -7.67617E+03  5.60548E+03 -1.14254E+04  1.87100E+04  5.84755E+03
  1.41947E+04  2.25312E+04 -5.11438E+03  2.62922E+04 -2.31324E+04  1.34251E+04 -3.07056E+04 -3.92996E+03
 -2.42078E+04 -1.82096E+04 -1.07173E+04 -2.36735E+04  4.35468E+03 -2.39549E+04  1.89529E+04 -2.16709E+04
  3.04313E+04 -1.38940E+04  3.62336E+04  4.02026E+03  2.61214E+04  2.33029E+04  4.35290E+03  4.00472E+04
 -1.95639E+04  3.26482E+04 -2.95950E+04  1.12015E+04 -2.17792E+04 -9.93767E+03 -4.80623E+03 -1.31349E+04
  1.33530E+03 -1.68014E+03 -6.71072E+03  7.84421E+03 -1.92401E+04  5.11898E+03 -1.89760E+04 -8.99790E+03
 -1.16226E+04 -2.20337E+04  5.60638E+03 -2.60006E+04  1.77953E+04 -1.85935E+04  2.12328E+04 -2.25095E+03
  1.36245E+04  1.50038E+04 -1.27838E+03  2.17835E+04 -1.55444E+04  1.28089E+04 -2.21846E+04 -4.42940E+03
 -1.62806E+04 -1.94408E+04 -2.17575E+03 -2.64505E+04  1.17977E+04 -2.20199E+04  2.20376E+04 -1.11512E+04
  2.05893E+04 -1.58355E+02  1.49899E+04  5.05650E+03  8.26160E+03  1.26891E+03  1.12951E+04 -1.73957E+03
  2.09602E+04  2.63054E+03  2.32912E+04  1.71892E+04  1.58913E+04  3.54426E+04 -2.91504E+03  4.09116E+04
 -2.37332E+04  3.38796E+04 -3.83844E+04  1.71271E+04 -4.10203E+04 -2.89310E+03 -3.35210E+04 -2.38232E+04
 -1.33017E+04 -3.40700E+04  1.20477E+04 -3.03776E+04  2.61072E+04 -1.40727E+04  2.28762E+04  7.20482E+03
  7.92357E+03  1.73822E+04 -1.07937E+04  1.47273E+04 -1.90956E+04  2.37168E+03 -1.45960E+04 -1.19757E+04
 -2.66553E+02 -1.79047E+04  9.40946E+03 -1.34340E+04  1.24436E+04 -1.28099E+03  3.11496E+03  8.12711E+03
 -7.91761E+03  3.53923E+03 -8.26279E+03 -6.77238E+03 -1.59543E+03 -1.68400E+04  1.09414E+04 -1.78188E+04
  2.07784E+04 -1.00478E+04  2.33053E+04  3.31757E+03  2.06560E+04  1.70114E+04  9.63357E+03  2.63476E+04
 -4.71502E+03  2.83612E+04 -1.83268E+04  1.71462E+04 -2.03041E+04  3.66072E+03 -1.40235E+04 -5.35920E+03
 -5.80350E+03 -6.57717E+03 -7.42744E+02  6.61637E+02 -2.83624E+03  3.32404E+03 -6.29450E+03  5.24180E+03
 -1.28375E+04 -7.74451E+02 -1.37255E+04 -1.11044E+04 -5.50257E+03 -1.75656E+04  5.61564E+03 -1.40556E+04
  1.18520E+04 -5.91770E+03  7.98587E+03  4.00176E+03 -1.22572E+02  5.72977E+03 -6.78264E+03 -6.66056E+01
 -6.74477E+03 -9.13785E+03 -1.08356E+03 -1.35537E+04  8.05428E+03 -1.46866E+04  1.79868E+04 -7.36414E+03
  2.10224E+04  1.82740E+03  1.57003E+04  1.24948E+04  3.20637E+03  1.70448E+04 -8.80911E+03  1.43128E+04
 -1.16440E+04  4.30877E+03 -5.68098E+03 -2.87645E+03  2.09212E+03 -3.99835E+03  7.61863E+03 -1.06270E+03
  6.71772E+03  6.39992E+03  7.16371E+02  1.10695E+04 -8.43073E+03  1.05935E+04 -1.38770E+04  2.66556E+03
 -9.48349E+03 -7.29869E+03 -4.99530E+01 -1.20944E+04  7.66635E+03 -5.82426E+03  8.17367E+03  3.07356E+03
  1.67624E+03  8.59152E+03 -7.47406E+03  1.02089E+04 -1.16336E+04  4.72518E+03 -1.19480E+04 -4.05936E+03
 -6.81265E+03 -1.43064E+04  3.22319E+03 -1.57788E+04  1.33615E+04 -9.46610E+03  1.45131E+04  2.28673E+03
  8.49443E+03  1.17435E+04 -1.59253E+03  1.37287E+04 -1.04692E+04  7.92554E+03 -1.13252E+04 -1.53770E+03
 -9.20419E+03 -9.51840E+03 -1.70434E+03 -1.09987E+04  5.53785E+03 -8.39976E+03  7.22644E+03 -3.47387E+03
  4.22526E+03  1.52882E+03 -2.56438E+02  1.73771E+03 -7.79180E+01 -2.69616E+03  2.10182E+03 -6.19137E+03
  9.94972E+03 -3.74580E+03  1.35919E+04  1.59445E+03  1.33503E+04  9.36503E+03  8.90414E+03  1.78521E+04
 -4.04618E+03  2.04733E+04 -1.69398E+04  1.50519E+04 -2.24732E+04  2.92781E+03 -1.78612E+04 -7.28384E+03
 -9.11719E+03 -1.47099E+04 -4.68164E+02 -1.24254E+04  4.57141E+03 -6.91969E+03  4.50743E+03 -4.82117E+03
  3.25224E+03 -2.76668E+03  3.71329E+03 -3.73427E+03  5.64770E+03 -2.85784E+03  7.02418E+03 -1.16645E+03
  9.16501E+03  2.07887E+03  4.94537E+03  7.94439E+03 -2.20983E+03  9.18798E+03 -9.56138E+03  7.21148E+03
 -1.24973E+04 -1.11925E+03 -7.64078E+03 -8.70673E+03 -8.59110E+02 -1.31680E+04  7.40624E+03 -1.35109E+04
  1.39196E+04 -7.15754E+03  1.66518E+04  2.24129E+03  1.17427E+04  1.14469E+04  2.10057E+03  1.49810E+04
 -5.96624E+03  1.22380E+04 -8.68094E+03  4.14070E+03 -5.70057E+03 -1.76658E+03 -2.31768E+03 -1.75544E+03
 -1.41344E+03 -5.86091E+01 -1.97191E+03  2.75699E+03 -5.85909E+03  2.40186E+03 -8.60376E+03 -1.15927E+03
 -5.61119E+03 -8.91181E+03  2.99318E+02 -1.22574E+04  7.30997E+03 -1.11180E+04  1.19956E+04 -3.54665E+03
  1.16923E+04  5.75800E+03  5.23306E+03  1.06930E+04 -2.85637E+03  1.22756E+04 -8.55230E+03  7.78917E+03
 -1.11491E+04  5.26061E+02 -8.51636E+03 -7.19682E+03 -7.74358E+02 -9.98046E+03  4.86150E+03 -7.32477E+03
  7.36626E+03 -2.48495E+03  5.39804E+03  2.31011E+03  1.94975E+03  4.13738E+03  1.36472E+03  1.90654E+03
  2.76260E+03  5.49029E+02  3.00117E+03  1.66712E+03  3.12975E+03  4.28797E+03  2.96636E+03  6.31568E+03
 -2.19413E+03  9.34771E+03 -8.18413E+03  9.70967E+03 -1.23597E+04  2.63860E+03 -1.27205E+04 -4.68303E+03
 -6.08411E+03 -1.20780E+04  1.63842E+03 -1.34652E+04  7.07982E+03 -8.55538E+03  9.64582E+03 -2.14291E+03
  7.77806E+03  4.43812E+03  1.61958E+03  6.70856E+03 -3.53474E+03  4.42066E+03 -4.58305E+03 -9.81548E+02
 -2.21277E+03 -5.28520E+03  2.97400E+03 -5.05130E+03  4.98110E+03 -2.23729E+03  4.53005E+03  1.42586E+03
  2.80547E+03  2.06027E+03  1.51254E+03  1.86242E+03 -1.07779E+03  1.36591E+03  1.65219E+03 -5.37442E+02
  1.74008E+03 -6.99972E+02  4.85060E+03  1.64833E+03  2.40344E+03  6.46249E+03 -8.05685E+02  8.57816E+03
 -5.56080E+03  5.46888E+03 -7.53546E+03  1.75326E+03 -6.70682E+03 -2.27564E+03 -2.23148E+03 -4.53422E+03
  6.88287E+02 -4.40412E+03  3.02084E+03 -1.98906E+03  2.55730E+03  2.51344E+03 -1.56608E+03  3.67551E+03
 -4.94209E+03  2.14646E+03 -5.54380E+03 -3.28710E+03 -3.07860E+03 -6.33888E+03  7.16143E+02 -6.71262E+03
  3.91036E+03 -4.22447E+03  4.70993E+03 -4.65294E+02  4.00772E+03  1.54387E+03  5.96867E+02  3.41678E+03
 -2.17242E+03  7.10609E+02 -2.81783E+03 -2.05932E+03  1.45292E+03 -4.80096E+03  5.79112E+03 -3.93124E+03
  6.96910E+03  2.29101E+02  7.31521E+03  4.70318E+03  2.51655E+03  7.22657E+03 -2.54655E+03  7.01759E+03
 -6.00689E+03  3.26793E+03 -6.18151E+03 -6.71598E+02 -3.29506E+03 -4.99813E+03  1.03077E+03 -4.45114E+03
  4.88494E+03 -2.05957E+03  3.98547E+03  1.88489E+03  1.50814E+03  4.13018E+03 -2.03382E+02  3.66856E+03
 -1.79384E+03  2.44710E+03 -1.75071E+03  6.90155E+02 -9.20733E+02  6.45603E+02 -9.98892E+02  1.89595E+03
 -2.22762E+03  3.34528E+03 -5.08808E+03  2.46859E+03 -7.66472E+03  1.10089E+02 -8.51350E+03 -4.93879E+03
 -4.43062E+03 -9.57540E+03  1.92294E+03 -1.16272E+04  6.93870E+03 -9.07779E+03  1.08918E+04 -3.31521E+03
  1.02428E+04  1.68710E+03  6.32079E+03  6.93159E+03  4.41515E+02  7.57655E+03 -3.05276E+03  5.27037E+03
 -4.40486E+03  2.00582E+03 -2.58939E+03 -1.23709E+03 -6.57878E+02 -5.77849E+02 -8.39401E+02  1.06198E+02
 -1.36157E+03 -4.11729E+01 -1.76299E+03 -4.06406E+02 -1.23642E+02 -2.06759E+03  2.99478E+02 -2.83267E+03
  3.89698E+03 -2.14957E+03  4.45858E+03  6.26750E+00  5.14616E+03  4.39335E+03  1.33724E+03  7.43461E+03
 -3.75842E+03  8.61713E+03 -8.09170E+03  5.13878E+03 -9.36728E+03 -7.76651E+02 -6.84611E+03 -5.90557E+03
 -2.68946E+03 -7.33389E+03  1.72940E+03 -6.92795E+03  4.59905E+03 -3.56861E+03  4.38606E+03  4.65908E+02
  2.60777E+03  2.45082E+03 -5.43692E+02  2.20669E+03 -1.65400E+03 -6.79817E+01  4.02424E+02 -1.70105E+03
  2.63656E+03 -7.89274E+02  2.47069E+03  6.49893E+02  2.07321E+03  2.72847E+03  2.47317E+00  3.93181E+03
 -3.11181E+03  3.71678E+03 -4.75282E+03  2.74552E+02 -4.51985E+03 -3.71491E+03 -8.57639E+02 -6.31129E+03
  3.44358E+03 -4.85513E+03  5.33161E+03 -1.64000E+03  5.65352E+03  1.10167E+03  3.13536E+03  4.57959E+03
  8.49586E+02  4.52965E+03 -1.86962E+03  4.03439E+03 -3.18049E+03  2.23720E+03 -2.34572E+03  2.33357E+02
 -1.07525E+03 -2.13873E+02 -1.31792E+03  8.59332E+02 -2.33123E+03  7.32055E+02 -4.04264E+03 -8.29579E+02
 -3.87527E+03 -2.61431E+03 -1.14675E+03 -4.70272E+03  2.27736E+03 -5.40020E+03  4.49679E+03 -2.12772E+03
  4.68128E+03  6.11054E+02  2.30754E+03  3.29031E+03 -4.04042E+02  4.62545E+03 -3.57707E+03  3.17138E+03
