 $NMID ID='MM_0lb_SNR800_11hz_g60_9.RAW', FMTDAT='(8E13.5)'
 TRAMP=1., VOLUME=1. $END
  3.09937E+05  2.81455E+02  3.38276E+05  2.50582E+05  8.50065E+04  3.38470E+05 -1.32892E+05  2.51977E+05
 -1.90478E+05  8.42398E+04 -1.12385E+05 -3.21334E+04  1.42805E+02 -5.08634E+04  5.38230E+04 -5.28918E+02
  3.57381E+04  5.31327E+04 -1.65834E+04  7.58056E+04 -6.09984E+04  6.43980E+04 -8.50264E+04  3.25746E+04
 -8.22667E+04 -1.18949E+04 -5.79908E+04 -5.23093E+04 -1.53721E+04 -7.06095E+04  2.80215E+04 -4.67625E+04
  4.14657E+04  3.82586E+03  1.68576E+04  4.89431E+04 -3.44287E+04  4.82954E+04 -6.78041E+04 -3.62547E+01
 -5.48025E+04 -5.79179E+04 -7.51359E+03 -7.83836E+04  3.43187E+04 -5.67266E+04  4.93848E+04 -1.79963E+04
  4.50340E+04  1.13562E+04  3.27419E+04  2.62659E+04  1.61111E+04  3.03322E+04 -5.86145E+03  2.77984E+04
 -2.24585E+04  1.23183E+04 -1.78263E+04 -5.59247E+03  6.92626E+03 -7.75707E+03  2.31252E+04  1.35266E+04
  6.81106E+03  3.70316E+04 -3.35780E+04  3.68502E+04 -6.54867E+04  2.26082E+03 -5.85554E+04 -4.41907E+04
 -1.25520E+04 -6.54900E+04  4.14821E+04 -4.71230E+04  6.09050E+04 -2.71727E+03  3.64421E+04  3.45649E+04
 -5.49204E+03  3.88624E+04 -3.19786E+04  1.84204E+04 -3.30235E+04 -3.67728E+03 -1.91815E+04 -1.18559E+04
 -9.53789E+03 -1.53821E+04 -6.46920E+02 -1.92049E+04  8.50591E+03 -2.34646E+04  1.58478E+04 -1.25696E+04
  1.06798E+04  5.98211E+03 -1.03836E+04  1.30284E+04 -2.31100E+04 -6.30646E+03 -8.31597E+03 -3.69880E+04
  2.48160E+04 -4.61848E+04  5.17195E+04 -2.04411E+04  4.80827E+04  2.01976E+04  1.70815E+04  4.64078E+04
 -1.69566E+04  3.61429E+04 -2.74569E+04  2.60331E+03 -1.12627E+04 -2.93573E+04  2.16094E+04 -3.69444E+04
  4.42442E+04 -1.06833E+04  3.95969E+04  2.46066E+04  2.10176E+04  5.05769E+04 -8.28256E+03  5.52074E+04
 -3.44702E+04  3.80359E+04 -4.68146E+04  1.04804E+04 -4.66992E+04 -1.80604E+04 -2.59056E+04 -4.16800E+04
  7.92989E+03 -4.16146E+04  3.37550E+04 -1.67962E+04  3.16259E+04  1.13403E+04  5.35448E+03  2.07078E+04
 -1.35274E+04  9.37261E+03 -1.11987E+04 -7.39609E+03  5.74193E+03 -1.11090E+04  1.88505E+04  5.94947E+03
  1.48332E+04  2.22866E+04 -5.39143E+03  2.68443E+04 -2.33700E+04  1.42062E+04 -3.05233E+04 -3.12977E+03
 -2.47099E+04 -1.83183E+04 -1.14178E+04 -2.46066E+04  4.31421E+03 -2.43841E+04  1.93271E+04 -2.22603E+04
  3.07497E+04 -1.40517E+04  3.70085E+04  4.80402E+03  2.64977E+04  2.37029E+04  4.50378E+03  4.05751E+04
 -1.92790E+04  3.32289E+04 -3.02593E+04  1.17236E+04 -2.19592E+04 -1.03163E+04 -4.71275E+03 -1.33463E+04
  6.69953E+02 -1.70569E+03 -7.14413E+03  8.03084E+03 -1.97230E+04  4.93405E+03 -1.98382E+04 -9.45587E+03
 -1.15976E+04 -2.25471E+04  6.01483E+03 -2.73729E+04  1.79918E+04 -1.93958E+04  2.19213E+04 -1.90993E+03
  1.39915E+04  1.54178E+04 -1.40738E+03  2.26150E+04 -1.61554E+04  1.32120E+04 -2.28874E+04 -4.64017E+03
 -1.68318E+04 -2.01813E+04 -1.98843E+03 -2.70229E+04  1.24554E+04 -2.22615E+04  2.20168E+04 -1.19406E+04
  2.10479E+04 -3.94458E+02  1.56752E+04  4.80650E+03  8.53419E+03  1.77365E+03  1.16799E+04 -1.81123E+03
  2.08971E+04  2.92925E+03  2.46714E+04  1.78821E+04  1.63940E+04  3.65014E+04 -2.55043E+03  4.20358E+04
 -2.40637E+04  3.51954E+04 -3.99925E+04  1.83128E+04 -4.23907E+04 -3.13963E+03 -3.45224E+04 -2.48018E+04
 -1.37974E+04 -3.53023E+04  1.21019E+04 -3.11921E+04  2.66954E+04 -1.48787E+04  2.36578E+04  7.49534E+03
  7.72403E+03  1.80208E+04 -1.09101E+04  1.53587E+04 -1.92507E+04  2.74541E+03 -1.47728E+04 -1.22861E+04
 -4.11670E+02 -1.85399E+04  9.96603E+03 -1.33844E+04  1.28337E+04 -1.11099E+03  3.24726E+03  8.50163E+03
 -8.53154E+03  4.02830E+03 -8.26410E+03 -6.62857E+03 -1.51236E+03 -1.71609E+04  1.14661E+04 -1.82628E+04
  2.17800E+04 -1.04785E+04  2.45427E+04  3.29021E+03  2.14418E+04  1.72952E+04  9.95450E+03  2.71499E+04
 -4.82078E+03  2.91484E+04 -1.89691E+04  1.83285E+04 -2.10535E+04  3.43800E+03 -1.45475E+04 -5.13748E+03
 -6.54949E+03 -6.26842E+03 -4.85912E+02  2.45860E+02 -2.92697E+03  2.95735E+03 -6.91379E+03  5.28338E+03
 -1.31220E+04 -8.82570E+02 -1.40393E+04 -1.16981E+04 -5.50288E+03 -1.86313E+04  5.88985E+03 -1.50216E+04
  1.19588E+04 -6.24105E+03  8.67646E+03  3.79574E+03  1.01495E+01  6.11593E+03 -7.05745E+03 -1.53468E+02
 -6.96325E+03 -9.30119E+03 -1.21858E+03 -1.47044E+04  8.46203E+03 -1.51848E+04  1.85206E+04 -7.95834E+03
  2.19474E+04  2.26259E+03  1.60457E+04  1.33296E+04  3.54441E+03  1.76618E+04 -9.04428E+03  1.44703E+04
 -1.19233E+04  4.26723E+03 -6.21003E+03 -2.91541E+03  1.80084E+03 -4.04191E+03  7.91348E+03 -1.01080E+03
  6.94463E+03  6.43829E+03  1.25377E+03  1.15734E+04 -8.42297E+03  1.14641E+04 -1.42074E+04  2.58172E+03
 -9.85761E+03 -7.76159E+03  3.85263E+02 -1.20202E+04  8.13721E+03 -6.28201E+03  8.43046E+03  3.15212E+03
  2.00280E+03  8.98794E+03 -7.41808E+03  1.07956E+04 -1.24639E+04  4.80801E+03 -1.23392E+04 -4.34125E+03
 -7.26046E+03 -1.43673E+04  3.57439E+03 -1.63566E+04  1.38567E+04 -1.01936E+04  1.53235E+04  2.79915E+03
  8.95047E+03  1.23196E+04 -1.42144E+03  1.45543E+04 -1.11055E+04  7.79830E+03 -1.14412E+04 -1.31256E+03
 -1.00034E+04 -9.62457E+03 -1.70418E+03 -1.07462E+04  5.95828E+03 -8.98764E+03  6.85453E+03 -3.59012E+03
  4.57712E+03  1.86366E+03 -9.56859E+02  1.83297E+03 -2.26349E+02 -2.95448E+03  2.15218E+03 -6.30851E+03
  1.02549E+04 -4.12481E+03  1.44536E+04  1.53563E+03  1.40413E+04  9.73377E+03  9.07883E+03  1.85411E+04
 -4.34177E+03  2.13010E+04 -1.80284E+04  1.55466E+04 -2.30228E+04  2.89819E+03 -1.85783E+04 -7.99657E+03
 -9.40439E+03 -1.51466E+04 -1.48500E+02 -1.29044E+04  4.79799E+03 -7.21562E+03  4.45981E+03 -4.94137E+03
  3.37145E+03 -2.54980E+03  3.79531E+03 -3.51898E+03  5.16265E+03 -3.52396E+03  7.19447E+03 -1.33025E+03
  9.49171E+03  2.19653E+03  5.21344E+03  8.51445E+03 -2.10059E+03  9.81294E+03 -9.78774E+03  7.68796E+03
 -1.30039E+04 -1.44432E+03 -8.04375E+03 -8.97287E+03 -8.18126E+02 -1.37147E+04  7.64545E+03 -1.38469E+04
  1.40091E+04 -7.47969E+03  1.68274E+04  1.78278E+03  1.21385E+04  1.21434E+04  2.25919E+03  1.52983E+04
 -6.25779E+03  1.31687E+04 -9.03820E+03  4.36639E+03 -5.98098E+03 -1.51550E+03 -2.40103E+03 -2.02726E+03
 -1.05989E+03 -2.97329E+02 -1.74167E+03  2.61622E+03 -5.56297E+03  2.40839E+03 -8.97379E+03 -1.24206E+03
 -6.24017E+03 -9.33962E+03  2.64241E+02 -1.26948E+04  7.68704E+03 -1.16563E+04  1.26048E+04 -3.78557E+03
  1.22689E+04  6.37828E+03  5.59367E+03  1.12406E+04 -2.76515E+03  1.30811E+04 -9.13688E+03  7.84742E+03
 -1.18413E+04  5.29934E+02 -9.16855E+03 -7.59563E+03 -1.13385E+03 -1.05029E+04  5.44185E+03 -8.09674E+03
  7.95038E+03 -2.61639E+03  5.44052E+03  2.21694E+03  2.18058E+03  3.71191E+03  1.69876E+03  1.57180E+03
  2.30450E+03  1.22979E+03  3.36918E+03  1.63108E+03  3.57103E+03  4.45781E+03  3.17515E+03  6.54109E+03
 -2.59634E+03  9.71184E+03 -8.47665E+03  1.02224E+04 -1.25184E+04  2.50254E+03 -1.30642E+04 -5.02413E+03
 -6.29200E+03 -1.21717E+04  1.83860E+03 -1.39406E+04  7.90996E+03 -8.48026E+03  1.06339E+04 -2.42651E+03
  7.73625E+03  4.85457E+03  1.97767E+03  7.03717E+03 -3.18194E+03  4.44501E+03 -4.68859E+03 -9.62269E+02
 -2.73960E+03 -5.42144E+03  2.77037E+03 -5.66345E+03  4.94774E+03 -2.79848E+03  5.27590E+03  1.33894E+03
  3.15703E+03  2.37670E+03  1.42747E+03  1.78771E+03 -4.66270E+02  1.94072E+03  1.76531E+03 -3.63250E+02
  1.77612E+03 -7.93551E+02  4.95955E+03  2.05305E+03  2.79135E+03  6.69223E+03 -1.08692E+03  8.73070E+03
 -5.78683E+03  5.37057E+03 -8.14270E+03  1.73715E+03 -7.21888E+03 -2.80475E+03 -2.37961E+03 -4.97537E+03
  4.95174E+02 -4.98995E+03  3.12078E+03 -2.16508E+03  2.52574E+03  2.96811E+03 -1.15391E+03  3.86705E+03
 -5.20700E+03  2.44016E+03 -5.84987E+03 -3.33254E+03 -3.31059E+03 -6.70707E+03  1.15504E+03 -6.60353E+03
  3.77504E+03 -3.67810E+03  4.77463E+03 -6.63549E+02  4.19835E+03  1.80891E+03  1.00703E+03  3.83271E+03
 -2.29981E+03  1.02171E+03 -3.26409E+03 -2.44254E+03  1.33289E+03 -5.07532E+03  5.95727E+03 -4.09311E+03
  7.58458E+03  4.63187E+02  7.73669E+03  4.53104E+03  2.34705E+03  8.02166E+03 -2.61625E+03  7.58503E+03
 -6.13408E+03  3.02208E+03 -6.54801E+03 -8.20612E+02 -3.97217E+03 -5.07776E+03  1.57336E+03 -4.43561E+03
  5.29541E+03 -2.43040E+03  3.77602E+03  2.13929E+03  1.89197E+03  4.41654E+03 -6.22764E+02  3.79761E+03
 -2.30251E+03  2.67261E+03 -1.88771E+03  6.63104E+02 -9.59851E+02  9.23479E+02 -1.07089E+03  1.84054E+03
 -2.07230E+03  3.06014E+03 -5.72530E+03  2.84960E+03 -7.73067E+03  2.84776E+02 -8.75927E+03 -4.86472E+03
 -4.75389E+03 -1.03157E+04  2.03283E+03 -1.18698E+04  7.03025E+03 -9.25856E+03  1.12046E+04 -3.32733E+03
  1.07399E+04  1.80006E+03  6.63120E+03  7.17361E+03  4.68274E+02  8.32660E+03 -3.03256E+03  5.70134E+03
 -4.39800E+03  2.25124E+03 -2.70209E+03 -8.78655E+02 -9.45445E+02 -1.15073E+03 -4.90531E+02  1.88894E+02
 -1.22445E+03  2.93513E+02 -1.53608E+03 -4.99754E+02 -4.57976E+02 -2.29981E+03 -1.61645E+02 -3.06321E+03
  3.62557E+03 -2.58232E+03  4.60015E+03 -2.77079E+01  5.15878E+03  4.25435E+03  9.47272E+02  7.82134E+03
 -3.81283E+03  8.92282E+03 -7.91796E+03  4.92061E+03 -9.56954E+03 -1.12754E+03 -7.00500E+03 -5.58505E+03
 -2.91310E+03 -7.92316E+03  2.22219E+03 -7.04248E+03  5.07069E+03 -4.26302E+03  4.99684E+03  1.78624E+02
  2.40806E+03  2.22359E+03 -2.81918E+02  2.34776E+03 -1.49161E+03 -2.72189E+02  9.60730E+01 -1.62771E+03
  2.39885E+03 -9.08664E+02  2.83726E+03  1.00789E+03  1.81752E+03  2.97092E+03  1.67661E+02  3.82293E+03
 -3.60670E+03  3.46693E+03 -5.14671E+03  6.02126E+02 -4.62704E+03 -3.26351E+03 -5.63860E+02 -6.67302E+03
  3.73371E+03 -4.94868E+03  5.31434E+03 -1.59535E+03  5.67665E+03  9.21737E+02  3.09432E+03  4.96358E+03
  8.13858E+02  5.11800E+03 -1.56113E+03  4.20345E+03 -3.25462E+03  2.17658E+03 -2.33966E+03  2.62253E+02
 -1.39296E+03 -3.95080E+02 -1.30247E+03  4.65812E+02 -2.65018E+03  1.11414E+03 -3.91454E+03 -9.00543E+02
 -3.82103E+03 -2.09859E+03 -1.02763E+03 -5.11852E+03  2.63718E+03 -5.71271E+03  4.57972E+03 -2.28720E+03
  4.86591E+03  1.19054E+02  2.47950E+03  3.09353E+03 -3.84962E+02  4.68898E+03 -3.39373E+03  3.23178E+03
