 $NMID ID='MM_0lb_SNR800_14hz_g60_9.RAW', FMTDAT='(8E13.5)'
 TRAMP=1., VOLUME=1. $END
  3.09845E+05  5.50393E+02  3.38070E+05  2.50526E+05  8.49490E+04  3.38212E+05 -1.32881E+05  2.51203E+05
 -1.90410E+05  8.36134E+04 -1.11992E+05 -3.28484E+04  9.77258E+02 -5.01921E+04  5.36993E+04 -1.75278E+02
  3.53954E+04  5.28090E+04 -1.66420E+04  7.58010E+04 -6.09955E+04  6.40837E+04 -8.48067E+04  3.23331E+04
 -8.17107E+04 -1.16712E+04 -5.79397E+04 -5.17684E+04 -1.51544E+04 -7.02660E+04  2.78523E+04 -4.62103E+04
  4.05520E+04  3.50947E+03  1.64656E+04  4.82116E+04 -3.45942E+04  4.77373E+04 -6.71577E+04  1.64139E+01
 -5.38441E+04 -5.74433E+04 -7.05963E+03 -7.79484E+04  3.43168E+04 -5.57670E+04  4.86282E+04 -1.75374E+04
  4.41574E+04  1.14366E+04  3.24387E+04  2.58940E+04  1.58794E+04  2.97761E+04 -5.38602E+03  2.73940E+04
 -2.23509E+04  1.21092E+04 -1.87683E+04 -5.06848E+03  6.17423E+03 -7.62743E+03  2.29056E+04  1.28785E+04
  7.30433E+03  3.60105E+04 -3.26734E+04  3.60664E+04 -6.44014E+04  2.28582E+03 -5.75975E+04 -4.32350E+04
 -1.26018E+04 -6.41699E+04  4.05361E+04 -4.64204E+04  5.93144E+04 -2.61717E+03  3.53761E+04  3.30664E+04
 -5.86652E+03  3.75301E+04 -3.08114E+04  1.73375E+04 -3.15711E+04 -4.22505E+03 -1.75450E+04 -1.14877E+04
 -8.91865E+03 -1.39458E+04 -6.57243E+02 -1.86820E+04  7.89370E+03 -2.30230E+04  1.56632E+04 -1.29116E+04
  1.12883E+04  5.46557E+03 -9.17026E+03  1.30054E+04 -2.20136E+04 -5.37478E+03 -8.45984E+03 -3.48954E+04
  2.34569E+04 -4.45482E+04  4.93695E+04 -2.00080E+04  4.64909E+04  1.97665E+04  1.60093E+04  4.49095E+04
 -1.62395E+04  3.43934E+04 -2.59361E+04  1.92527E+03 -1.05145E+04 -2.81187E+04  2.09264E+04 -3.49022E+04
  4.22496E+04 -9.67322E+03  3.72074E+04  2.41960E+04  1.91242E+04  4.81073E+04 -8.12918E+03  5.23775E+04
 -3.29227E+04  3.51536E+04 -4.38410E+04  1.00924E+04 -4.39933E+04 -1.74382E+04 -2.44985E+04 -3.93080E+04
  7.65575E+03 -3.91809E+04  3.24015E+04 -1.53088E+04  3.02242E+04  1.13230E+04  4.39367E+03  1.98528E+04
 -1.37079E+04  9.03364E+03 -1.04594E+04 -7.32860E+03  5.76308E+03 -1.09785E+04  1.79455E+04  6.06661E+03
  1.39090E+04  2.22168E+04 -5.84158E+03  2.57698E+04 -2.26712E+04  1.25677E+04 -2.89505E+04 -4.18590E+03
 -2.19612E+04 -1.76072E+04 -9.55217E+03 -2.19822E+04  4.05984E+03 -2.13294E+04  1.69970E+04 -1.96610E+04
  2.76540E+04 -1.33919E+04  3.40600E+04  3.57140E+03  2.48697E+04  2.11271E+04  4.17162E+03  3.77208E+04
 -1.81300E+04  3.13504E+04 -2.88179E+04  1.08482E+04 -2.13902E+04 -1.03208E+04 -4.45125E+03 -1.32146E+04
  1.38015E+03 -2.30034E+03 -5.94309E+03  7.17642E+03 -1.72704E+04  5.11402E+03 -1.73605E+04 -7.76324E+03
 -1.08541E+04 -2.01888E+04  5.69103E+03 -2.44036E+04  1.65459E+04 -1.73039E+04  1.93462E+04 -1.59929E+03
  1.25697E+04  1.40830E+04 -1.13610E+03  2.01217E+04 -1.40466E+04  1.15396E+04 -2.02265E+04 -4.31044E+03
 -1.51960E+04 -1.80208E+04 -2.00899E+03 -2.43035E+04  1.12583E+04 -1.97028E+04  1.98926E+04 -9.97821E+03
  1.90903E+04  4.01143E+02  1.34991E+04  4.69878E+03  7.54807E+03  1.16056E+03  1.03092E+04 -1.79944E+03
  1.83037E+04  3.28799E+03  2.10182E+04  1.58555E+04  1.36206E+04  3.20255E+04 -2.56028E+03  3.66832E+04
 -2.12665E+04  2.96229E+04 -3.44730E+04  1.48722E+04 -3.63962E+04 -2.64041E+03 -3.00068E+04 -2.13580E+04
 -1.26484E+04 -2.99130E+04  1.04191E+04 -2.65877E+04  2.30931E+04 -1.34258E+04  2.02420E+04  5.92958E+03
  7.83467E+03  1.52680E+04 -9.32545E+03  1.32217E+04 -1.70491E+04  2.70359E+03 -1.30463E+04 -1.09797E+04
 -3.83354E+02 -1.61475E+04  8.91884E+03 -1.21694E+04  1.05954E+04 -1.51946E+03  2.76089E+03  7.11976E+03
 -7.33209E+03  2.82906E+03 -6.55111E+03 -5.56203E+03 -7.05078E+02 -1.49474E+04  1.02045E+04 -1.53602E+04
  1.79666E+04 -8.26425E+03  1.96116E+04  2.88357E+03  1.72194E+04  1.41554E+04  8.11660E+03  2.19551E+04
 -3.54147E+03  2.39118E+04 -1.55078E+04  1.50991E+04 -1.70509E+04  3.26482E+03 -1.21627E+04 -3.98708E+03
 -5.37637E+03 -5.48427E+03 -3.47512E+02  1.07642E+03 -2.55263E+03  2.44301E+03 -5.85195E+03  4.06426E+03
 -1.12250E+04 -6.54300E+02 -1.19984E+04 -9.20252E+03 -4.91348E+03 -1.58196E+04  4.67617E+03 -1.20188E+04
  1.04562E+04 -5.15605E+03  7.34093E+03  3.39537E+03  4.96851E+01  4.60541E+03 -5.39092E+03  2.84979E+02
 -5.44554E+03 -7.93659E+03 -1.04726E+03 -1.15563E+04  6.94750E+03 -1.22725E+04  1.47719E+04 -6.62580E+03
  1.80040E+04  1.55111E+03  1.27482E+04  1.05984E+04  2.88823E+03  1.37726E+04 -7.23077E+03  1.17639E+04
 -1.00395E+04  3.55409E+03 -4.88901E+03 -2.41164E+03  1.83450E+03 -3.19663E+03  6.57251E+03 -1.36326E+03
  5.75291E+03  5.01207E+03  1.18227E+03  9.35838E+03 -6.73953E+03  9.21673E+03 -1.21139E+04  2.57606E+03
 -7.65328E+03 -5.59423E+03  1.00894E+02 -9.92663E+03  6.18182E+03 -4.75414E+03  6.41315E+03  2.00943E+03
  1.29886E+03  6.36183E+03 -6.17862E+03  7.84474E+03 -9.19838E+03  3.60941E+03 -9.11238E+03 -2.69864E+03
 -5.43220E+03 -1.06718E+04  2.71162E+03 -1.22466E+04  1.07199E+04 -7.49655E+03  1.18071E+04  1.81026E+03
  7.43182E+03  9.26113E+03 -4.06483E+02  1.11487E+04 -8.07858E+03  6.53890E+03 -9.03584E+03 -1.01965E+03
 -8.43214E+03 -7.55500E+03 -1.32115E+03 -8.32660E+03  4.49620E+03 -7.20201E+03  5.27328E+03 -3.47370E+03
  3.82420E+03  1.02386E+03 -3.20931E+02  1.21904E+03  1.20828E+02 -1.85337E+03  1.34066E+03 -4.06666E+03
  7.51039E+03 -2.82327E+03  1.04721E+04  1.44485E+03  1.03432E+04  6.61863E+03  7.67952E+03  1.32408E+04
 -3.11295E+03  1.55010E+04 -1.32753E+04  1.17438E+04 -1.72767E+04  2.05085E+03 -1.37782E+04 -5.52860E+03
 -7.08357E+03 -1.13468E+04 -6.07670E+02 -9.76400E+03  3.36828E+03 -4.94128E+03  3.21425E+03 -3.38369E+03
  2.15394E+03 -2.25795E+03  2.92191E+03 -2.87483E+03  4.35280E+03 -2.62718E+03  5.55357E+03 -3.04048E+02
  7.03289E+03  1.93122E+03  3.28338E+03  5.99766E+03 -1.96901E+03  6.67560E+03 -7.31005E+03  5.15614E+03
 -9.55781E+03 -1.24262E+03 -5.18367E+03 -6.24800E+03 -1.93308E+02 -9.46145E+03  5.32620E+03 -9.89206E+03
  9.99588E+03 -5.72630E+03  1.25189E+04  1.22463E+03  8.64745E+03  8.39208E+03  1.20339E+03  1.09678E+04
 -4.37517E+03  9.54781E+03 -6.57859E+03  3.23502E+03 -4.20044E+03 -1.24256E+03 -1.52672E+03 -1.23847E+03
 -9.07330E+02  3.13953E+02 -1.43389E+03  2.63275E+03 -4.06220E+03  1.44915E+03 -6.65336E+03 -6.30119E+02
 -4.10076E+03 -6.57156E+03  4.32258E+02 -8.57118E+03  5.51476E+03 -8.14823E+03  8.05868E+03 -2.34608E+03
  8.29299E+03  4.21091E+03  3.95721E+03  7.36754E+03 -1.75123E+03  8.58829E+03 -5.96072E+03  5.41593E+03
 -8.32952E+03  4.62295E+02 -6.35910E+03 -5.16564E+03 -4.96643E+02 -7.21830E+03  3.59660E+03 -5.38361E+03
  5.29547E+03 -1.99440E+03  3.55663E+03  1.17870E+03  9.90150E+02  3.09088E+03  9.21948E+02  1.18810E+03
  2.05340E+03  7.78485E+02  1.94275E+03  1.50782E+03  2.54879E+03  3.74553E+03  2.17984E+03  4.14284E+03
 -1.98817E+03  6.23618E+03 -5.69520E+03  7.09505E+03 -7.96986E+03  2.06709E+03 -8.78773E+03 -2.89619E+03
 -4.14102E+03 -7.68623E+03  1.29447E+03 -9.05919E+03  4.83080E+03 -5.60225E+03  6.45764E+03 -1.86311E+03
  5.35749E+03  3.39508E+03  1.47378E+03  4.78678E+03 -2.39580E+03  2.91382E+03 -2.88138E+03 -4.70191E+02
 -1.56319E+03 -3.38574E+03  2.17982E+03 -3.44894E+03  3.05642E+03 -1.61552E+03  2.98682E+03  8.37853E+02
  1.55646E+03  1.25141E+03  1.11828E+03  8.74649E+02 -6.33646E+02  1.00183E+03  1.50324E+03 -3.21137E+02
  8.16504E+02 -5.86553E+02  3.47530E+03  1.34383E+03  1.52108E+03  4.70457E+03 -6.41152E+02  5.90501E+03
 -3.54875E+03  3.01323E+03 -5.04727E+03  1.06176E+03 -4.38822E+03 -1.58324E+03 -1.45832E+03 -2.78827E+03
  4.53215E+02 -2.74296E+03  2.07197E+03 -1.49778E+03  1.42972E+03  1.75215E+03 -9.57776E+02  2.41849E+03
 -3.03718E+03  1.27484E+03 -3.37904E+03 -1.98598E+03 -1.72048E+03 -4.42908E+03  5.77297E+02 -4.40238E+03
  1.95038E+03 -2.10245E+03  2.76705E+03 -9.44795E+00  2.69473E+03  8.37955E+02  7.44308E+02  2.58708E+03
 -1.15465E+03  3.27779E+02 -1.98039E+03 -1.37154E+03  1.01985E+03 -2.81498E+03  3.72375E+03 -2.46462E+03
  4.27083E+03  5.76945E+01  5.10783E+03  2.88377E+03  1.98298E+03  4.72945E+03 -1.75705E+03  4.00892E+03
 -3.87716E+03  1.68914E+03 -3.77526E+03 -5.88444E+02 -2.12684E+03 -2.87280E+03  9.46798E+02 -2.39181E+03
  3.08880E+03 -1.36415E+03  2.04444E+03  1.31795E+03  6.80467E+02  3.04084E+03  5.04673E+01  2.03210E+03
 -1.23897E+03  1.62238E+03 -1.01652E+03  5.89612E+02 -3.22766E+02  9.35155E+02 -9.55257E+02  8.22241E+02
 -1.53744E+03  1.96798E+03 -3.53255E+03  1.26702E+03 -4.37913E+03 -8.19487E+00 -5.11519E+03 -2.54593E+03
 -2.21482E+03 -5.80284E+03  1.50788E+03 -6.73849E+03  3.82851E+03 -5.65012E+03  6.52629E+03 -2.47804E+03
  5.73737E+03  5.93028E+02  3.44605E+03  3.71814E+03 -2.36080E+02  4.15194E+03 -1.53767E+03  3.15435E+03
 -2.59493E+03  1.42355E+03 -1.66268E+03 -6.35663E+02 -1.18352E+03  6.88790E+01 -9.52787E+02  2.03932E+02
 -1.10133E+03  7.64791E+01 -1.25638E+03 -8.77779E+00  3.68003E+01 -9.26020E+02 -6.91251E+01 -1.80454E+03
  2.07758E+03 -1.56777E+03  1.97855E+03  2.45119E+02  2.80453E+03  2.10711E+03  8.97021E+00  4.03292E+03
 -2.12354E+03  5.21646E+03 -4.40322E+03  3.12278E+03 -5.04520E+03 -2.44886E+02 -3.56938E+03 -3.29474E+03
 -2.07174E+03 -4.07801E+03  1.09824E+03 -3.51055E+03  2.25644E+03 -1.71015E+03  2.59361E+03  1.09462E+02
  1.73656E+03  1.15484E+03 -1.62493E+02  1.04593E+03 -7.58759E+02  4.41973E+01 -1.74596E+02 -8.30207E+02
  1.18818E+03 -3.76811E+02  9.58312E+02  4.01475E+02  9.48680E+02  1.43596E+03  2.41973E+02  1.75088E+03
 -1.68511E+03  1.80472E+03 -2.29610E+03 -3.42452E+01 -2.12583E+03 -1.73466E+03 -1.22386E+02 -3.27677E+03
  1.79726E+03 -2.59872E+03  2.68713E+03 -4.80128E+02  2.84674E+03 -4.75230E+01  1.78678E+03  2.11060E+03
  7.78036E+02  1.97268E+03 -1.07246E+03  2.10945E+03 -1.56910E+03  1.26750E+03 -1.30741E+03  1.70364E+02
 -2.55055E+02  4.35791E+01 -8.65182E+02  4.64031E+01 -1.64823E+03  9.62544E+01 -2.01175E+03 -7.01234E+02
 -1.94882E+03 -6.66793E+02 -8.78789E+02 -2.65072E+03  1.57341E+03 -2.86438E+03  2.07333E+03 -1.11938E+03
  2.24229E+03  5.01366E+02  8.55929E+02  1.89671E+03 -2.21829E+02  2.35918E+03 -1.62827E+03  1.72070E+03
