 $NMID ID='MM_0lb_SNR800_20hz_g45_41.RAW', FMTDAT='(8E13.5)'
 TRAMP=1., VOLUME=1. $END
  3.09941E+05  5.27663E+02  3.37244E+05  2.50207E+05  8.43706E+04  3.37279E+05 -1.32654E+05  2.50012E+05
 -1.89401E+05  8.22168E+04 -1.10530E+05 -3.27568E+04  1.97955E+03 -5.02551E+04  5.41454E+04  1.60313E+02
  3.48013E+04  5.29900E+04 -1.69779E+04  7.48320E+04 -6.04471E+04  6.23521E+04 -8.24870E+04  3.13103E+04
 -7.93547E+04 -1.08598E+04 -5.58264E+04 -4.95648E+04 -1.51462E+04 -6.77027E+04  2.65886E+04 -4.45716E+04
  3.86827E+04  4.20237E+03  1.52082E+04  4.69757E+04 -3.36092E+04  4.58824E+04 -6.47483E+04 -5.74620E+02
 -5.13909E+04 -5.53216E+04 -6.00182E+03 -7.44883E+04  3.27173E+04 -5.22514E+04  4.54914E+04 -1.60072E+04
  4.08254E+04  1.09693E+04  3.03490E+04  2.41266E+04  1.57513E+04  2.79042E+04 -4.44836E+03  2.70464E+04
 -2.14956E+04  1.29770E+04 -1.93879E+04 -4.09025E+03  3.81538E+03 -7.70045E+03  2.08027E+04  1.05563E+04
  7.36058E+03  3.26141E+04 -2.97886E+04  3.35503E+04 -6.04048E+04  2.32783E+03 -5.48558E+04 -4.05223E+04
 -1.22938E+04 -5.97717E+04  3.77513E+04 -4.27800E+04  5.45613E+04 -1.65902E+03  3.08678E+04  2.99058E+04
 -7.02308E+03  3.20841E+04 -2.78801E+04  1.24397E+04 -2.64852E+04 -5.60737E+03 -1.36283E+04 -9.64709E+03
 -7.13976E+03 -1.09085E+04 -1.40925E+03 -1.62921E+04  6.16027E+03 -2.22263E+04  1.50995E+04 -1.42813E+04
  1.24044E+04  3.79633E+03 -5.58787E+03  1.28623E+04 -1.86177E+04 -1.96872E+03 -7.78814E+03 -2.93368E+04
  2.00664E+04 -3.93439E+04  4.33321E+04 -1.83608E+04  4.08487E+04  1.77166E+04  1.36146E+04  4.09166E+04
 -1.51681E+04  3.01756E+04 -2.28472E+04  9.83395E+02 -7.79985E+03 -2.58513E+04  2.00677E+04 -3.03431E+04
  3.69415E+04 -6.80214E+03  3.02121E+04  2.23399E+04  1.43401E+04  4.09310E+04 -7.90292E+03  4.36446E+04
 -2.74289E+04  2.84871E+04 -3.53915E+04  8.08047E+03 -3.66631E+04 -1.42804E+04 -2.05564E+04 -3.31144E+04
  6.86922E+03 -3.29024E+04  2.83349E+04 -1.19379E+04  2.62956E+04  1.08895E+04  2.70837E+03  1.73424E+04
 -1.28755E+04  6.82369E+03 -9.32171E+03 -7.71263E+03  5.79854E+03 -9.85726E+03  1.70997E+04  6.66364E+03
  1.19085E+04  2.17257E+04 -6.97362E+03  2.27376E+04 -2.11760E+04  8.26125E+03 -2.40481E+04 -6.71115E+03
 -1.54233E+04 -1.60258E+04 -4.74265E+03 -1.57828E+04  3.67346E+03 -1.30399E+04  1.11943E+04 -1.31518E+04
  1.95742E+04 -1.10019E+04  2.66846E+04  6.24138E+02  2.03197E+04  1.52570E+04  3.93705E+03  3.10518E+04
 -1.54205E+04  2.66137E+04 -2.50485E+04  9.02725E+03 -1.93334E+04 -1.05880E+04 -3.72481E+03 -1.41411E+04
  2.79842E+03 -4.73311E+03 -1.91776E+03  5.09646E+03 -1.18563E+04  5.55462E+03 -1.25017E+04 -4.21292E+03
 -8.26334E+03 -1.43044E+04  4.09800E+03 -1.82648E+04  1.18738E+04 -1.31656E+04  1.29775E+04 -1.38519E+03
  8.05173E+03  1.00726E+04 -6.60492E+02  1.48445E+04 -9.45711E+03  8.26956E+03 -1.41481E+04 -3.18680E+03
 -1.06952E+04 -1.31063E+04 -1.65137E+03 -1.76475E+04  8.34330E+03 -1.43070E+04  1.51763E+04 -6.57593E+03
  1.37482E+04  8.71238E+02  1.00557E+04  3.57538E+03  4.76608E+03  5.33005E+02  7.16915E+03 -1.24721E+03
  1.29746E+04  2.52707E+03  1.35453E+04  1.19715E+04  7.94446E+03  2.28984E+04 -3.10942E+03  2.42280E+04
 -1.43214E+04  1.82213E+04 -2.20764E+04  8.36679E+03 -2.21305E+04 -1.55038E+03 -1.94925E+04 -1.24605E+04
 -9.66005E+03 -1.82548E+04  5.95493E+03 -1.71744E+04  1.51445E+04 -1.02178E+04  1.43239E+04  3.04620E+03
  6.53872E+03  1.01786E+04 -6.50963E+03  9.73979E+03 -1.23669E+04  2.78411E+03 -9.82245E+03 -7.46401E+03
  1.04495E+02 -1.16231E+04  5.57941E+03 -8.88686E+03  7.16449E+03 -1.11680E+03  1.42415E+03  4.57213E+03
 -5.04550E+03  9.89230E+02 -2.87846E+03 -4.30580E+03  9.37810E+02 -9.17856E+03  7.23231E+03 -8.92648E+03
  1.09542E+04 -4.12281E+03  1.03145E+04  2.64396E+03  8.93122E+03  8.45617E+03  4.29012E+03  1.18706E+04
 -1.30651E+03  1.41011E+04 -8.45027E+03  8.67774E+03 -9.58469E+03  2.97512E+03 -7.44499E+03 -1.43022E+03
 -4.09857E+03 -2.89616E+03 -8.07139E+02  1.65924E+03 -1.90362E+03  1.70278E+03 -3.24571E+03  3.27710E+03
 -7.38228E+03 -4.01815E+02 -8.07407E+03 -6.65631E+03 -3.55972E+03 -1.04804E+04  3.11231E+03 -7.40802E+03
  6.70408E+03 -3.25818E+03  4.60385E+03  1.79985E+03  4.18958E+02  2.77048E+03 -2.95277E+03 -1.03274E+02
 -2.71780E+03 -4.54198E+03 -5.56381E+02 -6.37882E+03  3.07989E+03 -7.07647E+03  8.59561E+03 -3.55849E+03
  1.04372E+04  5.43884E+02  7.83429E+03  5.19177E+03  1.60675E+03  7.36122E+03 -4.79349E+03  7.50848E+03
 -6.04797E+03  2.60110E+03 -3.06274E+03 -7.43922E+02  1.35315E+03 -1.56767E+03  4.42020E+03 -1.06875E+03
  3.78753E+03  2.98674E+03  8.21607E+02  5.52864E+03 -3.86201E+03  5.99252E+03 -6.97738E+03  1.67145E+03
 -4.47411E+03 -3.10387E+03  4.26443E+02 -5.96397E+03  3.21614E+03 -3.09007E+03  3.06474E+03  7.02689E+02
  3.47627E+02  2.52790E+03 -3.49951E+03  3.92389E+03 -3.82873E+03  2.14854E+03 -3.76893E+03 -5.55916E+02
 -2.30521E+03 -4.72271E+03  9.16975E+02 -5.92040E+03  4.98466E+03 -3.87998E+03  5.17646E+03  7.11648E+02
  4.29650E+03  4.54877E+03  3.62346E+02  6.41272E+03 -4.43339E+03  3.49936E+03 -4.62663E+03 -1.57130E+02
 -5.35514E+03 -4.72856E+03 -1.44447E+03 -4.01847E+03  2.02222E+03 -4.32730E+03  2.27293E+03 -2.82345E+03
  2.66047E+03 -1.03668E+02  9.68277E+01  1.50040E+03  5.75398E+02  2.14852E+02 -1.21794E+02 -1.14954E+03
  2.95843E+03 -1.97139E+02  4.00601E+03  2.48843E+02  4.72979E+03  2.34689E+03  4.76373E+03  5.82526E+03
 -8.00510E+02  6.87335E+03 -6.31353E+03  5.49089E+03 -8.10785E+03  1.20303E+03 -6.49851E+03 -1.51922E+03
 -3.65328E+03 -5.28623E+03 -3.51297E+02 -3.98410E+03  1.64267E+03 -1.43143E+03  1.51453E+03 -1.72819E+03
  1.11332E+03 -1.33922E+03  1.80413E+03 -2.18765E+03  3.52696E+03 -1.26572E+03  3.48819E+03  5.00583E+02
  4.03269E+03  9.66094E+02  6.22853E+02  2.74234E+03 -1.53868E+03  1.94567E+03 -3.84233E+03  1.88085E+03
 -3.91115E+03 -9.14122E+02 -1.02105E+03 -2.67160E+03  4.93197E+02 -3.81725E+03  2.62991E+03 -4.06793E+03
  4.32226E+03 -2.72875E+03  5.75676E+03 -1.98638E+02  4.11422E+03  3.11033E+03  1.29339E+03  4.97591E+03
 -1.69763E+03  5.23306E+03 -2.76630E+03  1.60237E+03 -1.45326E+03 -8.36887E+02 -4.32255E+02 -3.01186E+02
 -1.74037E+02  3.83070E+02 -8.63820E+02  1.94183E+03 -2.39741E+03  1.09217E+03 -3.49181E+03 -2.02476E+02
 -9.41698E+02 -3.30441E+03  1.07871E+03 -3.91279E+03  2.11120E+03 -3.83457E+03  2.80131E+03 -1.12950E+03
  3.22913E+03  1.96315E+03  1.31442E+03  2.36883E+03 -6.48385E+02  3.31403E+03 -1.83114E+03  2.01669E+03
 -2.94774E+03  8.46960E+02 -2.68703E+03 -1.80087E+03 -4.57059E+01 -2.23895E+03  1.30848E+03 -1.84312E+03
  2.30131E+03 -9.88674E+02  1.16953E+03  3.38923E+02  2.88109E+02  1.51969E+03  6.85657E+02  4.24358E+02
  1.49931E+03  2.83379E+02  8.39696E+02  1.05532E+03  1.15148E+03  2.12698E+03  1.40165E+03  1.11034E+03
 -1.00185E+03  2.30507E+03 -2.10409E+03  3.67925E+03 -2.08555E+03  8.30610E+02 -3.02188E+03  3.45087E+02
 -1.48988E+03 -3.02774E+03  3.10142E+02 -3.93487E+03  1.36074E+03 -1.79706E+03  2.54007E+03 -7.55022E+02
  2.00825E+03  1.64766E+03  3.40996E+02  1.66764E+03 -4.00280E+02  1.11924E+03 -6.63432E+02 -2.62191E+02
 -3.80764E+02 -1.18927E+03  9.90229E+02 -1.27270E+03  8.44770E+02 -9.38351E+02  9.16526E+02  3.87764E+01
  5.78656E+02 -3.56006E+01  6.41184E+02 -3.60688E+02 -3.71997E+02  7.41163E+02  1.20690E+03 -8.86025E+01
 -2.91736E+02 -2.40710E+02  1.52652E+03  6.01761E+02  1.29083E+02  1.94603E+03 -4.60286E+02  2.28647E+03
 -1.32364E+03  4.67913E+02 -1.52126E+03  4.20128E+02 -1.85371E+03 -4.91376E+02 -2.16208E+02 -5.98869E+02
  4.31077E+02 -1.16354E+03  8.18814E+02 -4.64504E+02  2.48147E+02  1.00457E+03 -6.07261E+02  1.26165E+03
 -1.26975E+03  6.90616E+02 -9.73320E+02 -1.12434E+03 -7.36252E+02 -1.67788E+03 -1.23482E+02 -1.16560E+03
  1.54619E+02 -2.99881E+02  3.50066E+02  4.82711E+02  9.89627E+02 -5.01768E+02  4.07953E+02  9.49798E+02
 -1.42289E+02  1.09754E+02 -8.83464E+02 -3.86271E+01  4.95386E+02 -4.55083E+02  1.29881E+03 -7.56367E+02
  7.64452E+02  3.35414E+02  2.30671E+03  2.14077E+02  9.89720E+02  1.28561E+03  1.41787E+01  1.43290E+03
 -1.21847E+03 -2.54299E+02 -9.62900E+02 -1.08125E+02 -6.45111E+02 -8.91974E+02  3.71925E+02 -2.36047E+02
  1.10976E+03 -3.25828E+02  8.79550E+02  3.59851E+02  7.36862E+01  8.77537E+02  4.17351E+02  9.49526E+02
  1.73443E+02  8.33183E+02 -5.03718E+02  7.90584E+01 -2.41850E+02  2.65379E+02 -6.24392E+02  4.12342E+02
 -3.22086E+02  9.39013E+02 -1.41817E+03  4.59992E+02 -9.57022E+02  2.63467E+02 -1.96799E+03 -7.07579E+02
 -9.63172E+02 -1.50075E+03  3.08322E+02 -2.24968E+03  6.69605E+02 -2.15697E+03  2.14846E+03 -8.63615E+02
  1.48802E+03 -3.66379E+02  6.26938E+02  1.19150E+03 -7.64906E+02  8.65771E+02 -4.26358E+02  7.96313E+02
 -6.59374E+02  7.91290E+02 -3.09414E+02 -4.68126E+01 -2.62463E+02  2.58261E+02 -9.10422E+02  3.61825E+01
 -1.21378E+03 -1.47663E+02 -8.29834E+02 -1.19435E+02  1.34997E+02 -5.12581E+02 -3.77916E+02 -4.45274E+02
  1.19424E+03 -4.46050E+02  2.76111E+02 -4.29950E+01  6.99299E+02  7.23063E+02 -7.24042E+02  1.05548E+03
 -8.14607E+02  1.64953E+03 -1.13585E+03  1.08481E+03 -1.06485E+03 -6.47798E+01 -1.10617E+03 -1.02244E+03
 -1.08088E+03 -9.47762E+02  2.18728E+02 -7.51048E+02  5.12238E+02 -3.34757E+02  4.61692E+02  6.25500E+01
  4.73948E+02  3.67670E+00 -1.05818E+02  1.98932E+02 -1.13023E+02 -6.18654E+01  1.38472E+02 -2.32192E+02
  3.07391E+02  3.11564E+02  1.91580E+02  4.18148E+02 -4.33410E+01  2.54957E+02  4.51541E+02  8.87995E+00
 -5.73715E+02  5.33099E+02 -1.56955E+01  5.75637E+01 -6.13554E+02 -1.18290E+02 -4.74416E+01 -7.58479E+02
  3.21076E+02 -3.31036E+02  1.86750E+02 -1.03853E+02  6.26706E+02 -7.05243E+02  1.65266E+02  5.93543E+02
  5.00546E+02  3.56628E+02  1.48330E+02  3.39717E+02 -5.96953E+02  5.39736E+02 -4.54753E+02  2.26774E+02
 -1.27378E+02 -2.96218E+02 -7.06402E+02  8.17000E+01 -3.88259E+02 -1.46961E+02 -3.65579E+02 -2.22908E+02
 -8.47170E+02  3.16687E+02 -1.85447E+02 -6.36130E+02  7.55433E+02 -1.26835E+03  4.23334E+02  7.04720E+01
  5.76640E+02  2.44626E+02 -5.67526E+02  1.40614E+02 -7.31358E+01  5.61654E+02 -2.96075E+02  6.19815E+02
