 $NMID ID='MM_0lb_SNR800_19hz_g55_7.RAW', FMTDAT='(8E13.5)'
 TRAMP=1., VOLUME=1. $END
  3.09951E+05  5.21103E+02  3.37438E+05  2.50413E+05  8.43731E+04  3.37660E+05 -1.32504E+05  2.50361E+05
 -1.89865E+05  8.31065E+04 -1.11251E+05 -3.27602E+04  1.30697E+03 -5.02920E+04  5.36782E+04  1.68295E+02
  3.53321E+04  5.26703E+04 -1.69088E+04  7.52510E+04 -6.03258E+04  6.29870E+04 -8.33644E+04  3.15597E+04
 -8.01786E+04 -1.09751E+04 -5.61487E+04 -5.05647E+04 -1.50113E+04 -6.88178E+04  2.68569E+04 -4.53078E+04
  3.93403E+04  3.80546E+03  1.56670E+04  4.71233E+04 -3.40237E+04  4.63475E+04 -6.60651E+04 -6.47983E+02
 -5.21706E+04 -5.63782E+04 -6.30168E+03 -7.57643E+04  3.33065E+04 -5.38340E+04  4.66993E+04 -1.69091E+04
  4.22980E+04  1.09453E+04  3.09354E+04  2.48275E+04  1.58436E+04  2.84398E+04 -4.88045E+03  2.70197E+04
 -2.19146E+04  1.29471E+04 -1.88621E+04 -4.64264E+03  4.66157E+03 -7.46964E+03  2.15203E+04  1.12542E+04
  7.57338E+03  3.37975E+04 -3.11508E+04  3.40429E+04 -6.16382E+04  2.19608E+03 -5.55898E+04 -4.11925E+04
 -1.26074E+04 -6.12067E+04  3.85583E+04 -4.38478E+04  5.65831E+04 -1.63063E+03  3.21151E+04  3.11469E+04
 -6.47384E+03  3.39456E+04 -2.87600E+04  1.36057E+04 -2.86114E+04 -5.34669E+03 -1.47935E+04 -1.00736E+04
 -7.60747E+03 -1.19158E+04 -1.10217E+03 -1.68728E+04  6.62691E+03 -2.26500E+04  1.50531E+04 -1.38658E+04
  1.22290E+04  4.39331E+03 -6.75921E+03  1.29412E+04 -1.97508E+04 -3.00861E+03 -7.91832E+03 -3.10596E+04
  2.11670E+04 -4.09216E+04  4.56316E+04 -1.89850E+04  4.26496E+04  1.84809E+04  1.44842E+04  4.24113E+04
 -1.53517E+04  3.15483E+04 -2.39115E+04  1.21830E+03 -8.70445E+03 -2.68229E+04  2.07905E+04 -3.15892E+04
  3.86762E+04 -7.55746E+03  3.24254E+04  2.29477E+04  1.59428E+04  4.30563E+04 -8.17472E+03  4.61455E+04
 -2.91701E+04  3.03706E+04 -3.84507E+04  8.68693E+03 -3.90803E+04 -1.56262E+04 -2.15429E+04 -3.50939E+04
  7.09370E+03 -3.48300E+04  2.95867E+04 -1.31428E+04  2.72913E+04  1.08096E+04  3.42385E+03  1.79620E+04
 -1.30644E+04  7.38131E+03 -9.68656E+03 -7.60902E+03  5.87477E+03 -1.00851E+04  1.73595E+04  6.67213E+03
  1.26756E+04  2.17886E+04 -6.47438E+03  2.36635E+04 -2.16193E+04  9.54831E+03 -2.54328E+04 -6.14571E+03
 -1.73145E+04 -1.64324E+04 -6.21096E+03 -1.73799E+04  3.87760E+03 -1.57346E+04  1.30434E+04 -1.48712E+04
  2.17258E+04 -1.18385E+04  2.87642E+04  1.37589E+03  2.17617E+04  1.67278E+04  4.29295E+03  3.29999E+04
 -1.61940E+04  2.77973E+04 -2.63201E+04  9.74983E+03 -1.98041E+04 -1.01090E+04 -3.86245E+03 -1.39281E+04
  2.37563E+03 -4.03951E+03 -2.85360E+03  5.58312E+03 -1.33633E+04  5.32687E+03 -1.38535E+04 -5.21204E+03
 -8.78959E+03 -1.60690E+04  4.78595E+03 -1.99343E+04  1.31698E+04 -1.44588E+04  1.51052E+04 -1.28909E+03
  9.43762E+03  1.10018E+04 -9.42609E+02  1.61234E+04 -1.08116E+04  8.92419E+03 -1.59079E+04 -3.40855E+03
 -1.17825E+04 -1.44488E+04 -1.23451E+03 -1.92355E+04  8.67921E+03 -1.56721E+04  1.67170E+04 -7.74142E+03
  1.48245E+04  9.15093E+02  1.07871E+04  4.01361E+03  5.21258E+03  8.15299E+02  7.96169E+03 -1.22574E+03
  1.42462E+04  2.82900E+03  1.52822E+04  1.30211E+04  9.52787E+03  2.51487E+04 -3.04453E+03  2.74189E+04
 -1.61766E+04  2.11063E+04 -2.49600E+04  9.85292E+03 -2.56250E+04 -1.97124E+03 -2.20915E+04 -1.48209E+04
 -1.03540E+04 -2.09811E+04  7.25102E+03 -1.95036E+04  1.70059E+04 -1.11682E+04  1.60009E+04  3.62430E+03
  6.62098E+03  1.15115E+04 -7.31322E+03  1.07564E+04 -1.35413E+04  2.50461E+03 -1.03766E+04 -8.08491E+03
 -1.97362E+02 -1.25967E+04  6.31306E+03 -9.49020E+03  7.83880E+03 -1.37406E+03  1.32946E+03  5.20708E+03
 -5.73034E+03  1.13186E+03 -4.06368E+03 -4.46721E+03  6.59628E+02 -1.05327E+04  8.14618E+03 -1.01174E+04
  1.26487E+04 -4.85662E+03  1.24276E+04  2.93520E+03  1.07494E+04  9.39501E+03  5.32187E+03  1.45682E+04
 -1.73007E+03  1.61580E+04 -9.84778E+03  1.05179E+04 -1.14539E+04  2.93730E+03 -8.57722E+03 -1.91447E+03
 -4.59162E+03 -3.18806E+03 -8.88141E+02  1.54832E+03 -1.79215E+03  2.31336E+03 -3.90452E+03  3.61078E+03
 -8.49276E+03 -3.95651E+02 -8.93722E+03 -7.24372E+03 -3.21931E+03 -1.17080E+04  3.50399E+03 -8.49674E+03
  7.54115E+03 -3.60943E+03  5.24751E+03  2.12112E+03  7.60257E+02  3.21258E+03 -3.40984E+03 -1.97591E+02
 -3.52451E+03 -5.12444E+03 -8.64327E+02 -7.47948E+03  4.19733E+03 -7.77235E+03  9.78052E+03 -3.88376E+03
  1.18349E+04  6.33342E+02  8.80000E+03  6.17798E+03  1.80890E+03  8.89810E+03 -5.22548E+03  8.42914E+03
 -7.03399E+03  2.85264E+03 -3.43159E+03 -1.29432E+03  1.26872E+03 -2.00960E+03  4.70690E+03 -1.07033E+03
  4.36808E+03  3.36797E+03  9.74619E+02  6.38568E+03 -4.36911E+03  6.26954E+03 -7.77004E+03  1.77095E+03
 -4.93573E+03 -3.52117E+03  4.34632E+02 -6.85292E+03  4.22756E+03 -3.26657E+03  3.55026E+03  1.13541E+03
  2.73666E+02  3.34341E+03 -4.20528E+03  4.77635E+03 -4.75927E+03  2.50305E+03 -4.55510E+03 -1.17170E+03
 -2.99472E+03 -6.06358E+03  1.23194E+03 -7.35683E+03  6.00327E+03 -4.66802E+03  6.52136E+03  1.00430E+03
  4.76424E+03  5.30669E+03  1.65191E+02  7.02919E+03 -4.95180E+03  4.16511E+03 -5.08829E+03 -3.80877E+02
 -5.79581E+03 -5.11300E+03 -1.36058E+03 -4.99821E+03  2.50604E+03 -4.72832E+03  3.03053E+03 -2.94177E+03
  2.83253E+03  1.66482E+02 -2.78623E+01  1.29110E+03  4.54374E+02 -1.28911E+02  3.05667E+02 -1.99744E+03
  3.80188E+03 -8.53000E+02  5.09696E+03  7.84509E+02  5.46075E+03  2.96547E+03  5.26386E+03  6.90380E+03
 -1.37741E+03  8.39517E+03 -7.52999E+03  6.58752E+03 -9.70543E+03  1.15877E+03 -7.65721E+03 -2.43790E+03
 -4.13069E+03 -6.49655E+03 -4.85246E+02 -4.79781E+03  2.01757E+03 -2.13684E+03  1.89871E+03 -2.23734E+03
  1.00803E+03 -1.48713E+03  2.40244E+03 -2.19734E+03  3.65638E+03 -1.31338E+03  3.89169E+03  2.57954E+02
  4.49910E+03  1.23052E+03  1.17166E+03  3.45266E+03 -1.47402E+03  2.78482E+03 -4.48275E+03  2.42789E+03
 -4.77103E+03 -9.43673E+02 -1.91134E+03 -3.39286E+03  5.04575E+02 -4.62665E+03  3.14241E+03 -5.23421E+03
  5.06252E+03 -3.01672E+03  6.50257E+03  1.16178E+02  4.54602E+03  4.21158E+03  1.01547E+03  5.95635E+03
 -2.03947E+03  5.89376E+03 -3.10802E+03  1.66120E+03 -1.89497E+03 -8.95503E+02 -6.49484E+02 -5.11300E+02
 -4.51971E+02  3.40317E+02 -9.57817E+02  2.21339E+03 -2.57756E+03  1.16972E+03 -4.03053E+03 -3.45723E+02
 -1.38721E+03 -3.99094E+03  9.58388E+02 -4.49569E+03  2.54527E+03 -4.33159E+03  3.30467E+03 -9.45659E+02
  3.84073E+03  2.30809E+03  1.84971E+03  3.08892E+03 -6.13393E+02  4.02354E+03 -2.11987E+03  2.53712E+03
 -3.61165E+03  6.93268E+02 -2.87566E+03 -2.39218E+03 -3.89215E+02 -3.03326E+03  1.24336E+03 -2.34090E+03
  2.59802E+03 -1.53484E+03  1.65225E+03  3.12184E+02  1.26954E+02  1.45300E+03  8.13675E+02  4.07384E+02
  1.88143E+03  5.02758E+02  1.02995E+03  1.15590E+03  8.39466E+02  2.21294E+03  1.38421E+03  1.62757E+03
 -1.15441E+03  2.97402E+03 -2.09376E+03  3.69080E+03 -2.49151E+03  1.23805E+03 -3.81266E+03 -2.57302E+02
 -1.61085E+03 -3.53239E+03  4.89642E+02 -4.27125E+03  1.59585E+03 -2.01739E+03  3.01469E+03 -8.16206E+02
  2.24373E+03  1.70745E+03  2.74839E+02  2.13117E+03 -6.27943E+02  1.34126E+03 -1.07879E+03  7.02871E+01
 -4.56244E+02 -1.22446E+03  1.15821E+03 -1.35178E+03  1.35709E+03 -1.21133E+03  1.29902E+03  4.34150E+02
  6.49125E+02  3.75060E+02  5.85378E+02 -2.82442E+02 -2.75062E+02  7.42535E+02  1.72922E+03 -8.78302E+01
 -3.80678E+02 -2.58023E+02  1.72657E+03  4.60605E+02  1.49393E+02  1.97048E+03 -3.11985E+02  2.68865E+03
 -1.24866E+03  1.00455E+03 -1.61991E+03  4.08023E+02 -1.96075E+03 -6.72119E+02 -5.11750E+02 -9.54424E+02
  4.52251E+02 -8.35086E+02  8.84062E+02 -6.64862E+02  7.89883E+02  1.21218E+03 -7.07485E+02  9.87806E+02
 -1.48206E+03  8.46797E+02 -1.04533E+03 -1.23605E+03 -5.53713E+02 -1.89469E+03 -1.79375E+01 -1.37347E+03
  3.49431E+02 -5.53783E+02  4.22093E+02  3.20294E+02  1.12664E+03 -1.57852E+02  3.69688E+02  1.17589E+03
 -1.12241E+02  3.23110E+02 -8.37215E+02  1.07162E+02  4.35070E+02 -7.59315E+02  1.75713E+03 -6.96820E+02
  1.20004E+03  3.80236E+02  2.46589E+03  4.41044E+02  1.10163E+03  1.40499E+03 -2.10095E+02  1.60223E+03
 -1.33086E+03  3.07891E+02 -1.39251E+03 -1.47344E+02 -7.29521E+02 -1.24717E+03  4.81019E+01 -3.55006E+02
  1.37209E+03 -5.92371E+02  7.11491E+02  8.11196E+02 -5.69768E+01  1.35898E+03  2.22700E+02  1.21797E+03
 -2.54885E+02  1.24335E+03 -3.58087E+02  1.78472E+02  5.39317E+01  1.12764E+02 -6.54050E+02  3.58040E+02
 -6.28754E+02  1.26743E+03 -1.44816E+03  5.14924E+02 -1.32977E+03  7.33829E+01 -2.06397E+03 -8.02473E+02
 -8.80946E+02 -1.96153E+03  6.63363E+02 -2.33506E+03  7.39080E+02 -2.42882E+03  2.61650E+03 -7.58097E+02
  1.94602E+03  4.91015E+01  1.22359E+03  1.42227E+03 -6.55139E+02  9.73966E+02 -7.56363E+02  1.15284E+03
 -6.21729E+02  6.85992E+02 -4.84338E+02 -2.17594E+02 -4.56328E+02  1.60431E+02 -7.77026E+02 -6.71214E+01
 -9.35560E+02 -9.16393E+01 -7.79876E+02  1.37536E+02  1.11051E+02 -3.65995E+02 -6.03573E+02 -8.89638E+02
  1.01692E+03 -5.07264E+02  3.31419E+02 -2.15532E+02  8.91907E+02  8.17461E+02 -3.95704E+02  1.09735E+03
 -6.75818E+02  1.90328E+03 -1.68145E+03  9.81121E+02 -1.34580E+03 -1.92279E+02 -6.97911E+02 -9.25764E+02
 -9.10475E+02 -1.07412E+03  5.24081E+01 -8.10789E+02  3.28183E+02 -5.01654E+02  3.44621E+02 -1.10761E+02
  6.55912E+02  2.35865E+02  2.90479E-01  4.24824E+02 -3.20061E+02  1.20032E+01 -3.87342E+02  7.58420E+01
  5.35558E+02  1.46463E+02  2.46781E+01  2.89976E+02  6.30745E+01  3.89598E+02  3.24331E+02  2.55824E+02
 -3.66044E+02  5.53569E+02 -3.05345E+02  4.07996E+02 -5.83637E+02 -3.37992E+02 -7.79425E+00 -9.04934E+02
  3.98667E+02 -7.01857E+02  2.82493E+02 -9.37008E+00  6.01298E+02 -6.34974E+02  9.70643E+01  3.77937E+02
  3.55735E+02  4.19853E+02 -2.52359E+01  3.63854E+02 -3.78066E+02  6.93726E+02 -2.27298E+02  3.56085E+02
 -3.52407E+01 -8.71281E+00 -5.75076E+02  1.71923E+02 -6.62972E+02  3.33838E+02 -3.37937E+02 -1.49816E+02
 -8.02654E+02  6.18819E+02 -3.03116E+02 -8.93642E+02  7.61584E+02 -1.29947E+03  6.16780E+02 -1.54828E+02
  6.56038E+02  1.37738E+02 -4.28892E+02 -1.38792E+02 -3.98441E+02  7.65498E+02 -3.21213E+02  4.58415E+02
