 $NMID ID='MM_0lb_SNR800_13hz_g45_87.RAW', FMTDAT='(8E13.5)'
 TRAMP=1., VOLUME=1. $END
  3.09940E+05  4.14717E+02  3.37646E+05  2.50839E+05  8.44529E+04  3.37875E+05 -1.32507E+05  2.51107E+05
 -1.90223E+05  8.29563E+04 -1.11853E+05 -3.27637E+04  6.88845E+02 -5.04060E+04  5.35775E+04 -2.22007E+02
  3.53421E+04  5.31403E+04 -1.68021E+04  7.52305E+04 -6.08612E+04  6.36900E+04 -8.42422E+04  3.19981E+04
 -8.13333E+04 -1.14589E+04 -5.74308E+04 -5.15033E+04 -1.53615E+04 -6.94727E+04  2.76689E+04 -4.54219E+04
  4.02418E+04  4.13154E+03  1.63886E+04  4.75342E+04 -3.41884E+04  4.73565E+04 -6.70244E+04  1.36615E+02
 -5.38886E+04 -5.67411E+04 -7.02656E+03 -7.71526E+04  3.39919E+04 -5.53257E+04  4.80525E+04 -1.73722E+04
  4.33379E+04  1.14715E+04  3.18898E+04  2.51490E+04  1.56579E+04  2.94233E+04 -4.98130E+03  2.75701E+04
 -2.24493E+04  1.23951E+04 -1.83730E+04 -4.92395E+03  5.71357E+03 -7.28860E+03  2.21845E+04  1.24455E+04
  7.36433E+03  3.54846E+04 -3.23378E+04  3.57471E+04 -6.37057E+04  2.16763E+03 -5.69878E+04 -4.31164E+04
 -1.21518E+04 -6.36334E+04  3.99307E+04 -4.56872E+04  5.85495E+04 -2.07427E+03  3.43555E+04  3.28040E+04
 -6.07587E+03  3.62807E+04 -3.03461E+04  1.61198E+04 -3.08053E+04 -4.34086E+03 -1.70073E+04 -1.10962E+04
 -8.65546E+03 -1.35101E+04 -7.29694E+02 -1.80627E+04  7.67530E+03 -2.29852E+04  1.52365E+04 -1.34439E+04
  1.13816E+04  5.09153E+03 -8.16346E+03  1.28381E+04 -2.13490E+04 -4.58719E+03 -8.14398E+03 -3.41630E+04
  2.31331E+04 -4.37546E+04  4.84872E+04 -1.98352E+04  4.52158E+04  1.95765E+04  1.57035E+04  4.45067E+04
 -1.59003E+04  3.35917E+04 -2.57966E+04  1.96480E+03 -9.93833E+03 -2.79356E+04  2.11316E+04 -3.40522E+04
  4.11121E+04 -9.22797E+03  3.55185E+04  2.39303E+04  1.83924E+04  4.66000E+04 -7.78159E+03  5.06896E+04
 -3.18853E+04  3.39502E+04 -4.25845E+04  9.68730E+03 -4.30838E+04 -1.65663E+04 -2.39985E+04 -3.82502E+04
  7.59362E+03 -3.82770E+04  3.17603E+04 -1.50683E+04  2.96040E+04  1.10036E+04  4.15761E+03  1.93103E+04
 -1.35843E+04  8.32544E+03 -1.04178E+04 -7.47539E+03  5.78882E+03 -1.07039E+04  1.82070E+04  6.10326E+03
  1.37301E+04  2.22165E+04 -6.26495E+03  2.53863E+04 -2.24088E+04  1.19309E+04 -2.83619E+04 -4.61046E+03
 -2.16590E+04 -1.73822E+04 -8.82427E+03 -2.07562E+04  4.14270E+03 -2.01942E+04  1.61194E+04 -1.88013E+04
  2.68825E+04 -1.31190E+04  3.33585E+04  2.75041E+03  2.41664E+04  2.03687E+04  4.37025E+03  3.70102E+04
 -1.79341E+04  3.05719E+04 -2.81431E+04  1.08867E+04 -2.07146E+04 -1.05235E+04 -4.15864E+03 -1.35949E+04
  1.74417E+03 -2.65197E+03 -5.23730E+03  6.93239E+03 -1.68226E+04  4.95487E+03 -1.67898E+04 -7.15102E+03
 -1.05098E+04 -1.95989E+04  5.51520E+03 -2.34010E+04  1.55598E+04 -1.66329E+04  1.85112E+04 -1.69535E+03
  1.14448E+04  1.35573E+04 -1.16600E+03  1.94136E+04 -1.35640E+04  1.14582E+04 -1.93717E+04 -4.53687E+03
 -1.43892E+04 -1.76682E+04 -1.80753E+03 -2.35211E+04  1.04234E+04 -1.93355E+04  1.94380E+04 -9.33726E+03
  1.84267E+04  3.63439E+02  1.27841E+04  4.34110E+03  7.00528E+03  8.77190E+02  9.93866E+03 -1.70031E+03
  1.77289E+04  2.95971E+03  1.99188E+04  1.51312E+04  1.33025E+04  3.11599E+04 -2.79226E+03  3.54835E+04
 -2.04122E+04  2.82477E+04 -3.32781E+04  1.44246E+04 -3.46078E+04 -2.42983E+03 -2.84575E+04 -2.00173E+04
 -1.21065E+04 -2.86219E+04  1.00844E+04 -2.57169E+04  2.22194E+04 -1.30063E+04  1.94676E+04  5.98880E+03
  7.39113E+03  1.50337E+04 -9.41146E+03  1.29299E+04 -1.65646E+04  2.92060E+03 -1.27248E+04 -1.04713E+04
  7.95790E+01 -1.59786E+04  8.68855E+03 -1.18776E+04  1.03465E+04 -1.40037E+03  2.46988E+03  6.73181E+03
 -7.13558E+03  2.43842E+03 -6.11688E+03 -5.64210E+03 -8.56276E+02 -1.35838E+04  9.96805E+03 -1.46319E+04
  1.71892E+04 -7.76472E+03  1.89279E+04  3.03508E+03  1.63080E+04  1.41146E+04  7.80137E+03  2.14204E+04
 -3.82934E+03  2.31285E+04 -1.46799E+04  1.45659E+04 -1.65420E+04  3.31648E+03 -1.16602E+04 -3.53756E+03
 -5.10586E+03 -5.32967E+03 -8.48153E+02  9.26790E+02 -2.39801E+03  3.09174E+03 -5.55827E+03  4.73179E+03
 -1.11606E+04 -8.51728E+02 -1.13742E+04 -9.37361E+03 -4.78306E+03 -1.51100E+04  5.15943E+03 -1.21529E+04
  9.77916E+03 -5.18820E+03  7.17615E+03  2.99390E+03  5.61254E+02  4.33562E+03 -5.85552E+03 -2.58900E+01
 -5.13554E+03 -7.74139E+03 -1.03905E+03 -1.11498E+04  6.39158E+03 -1.17583E+04  1.50023E+04 -6.17803E+03
  1.70977E+04  1.48424E+03  1.26025E+04  9.87877E+03  2.92304E+03  1.36314E+04 -7.34666E+03  1.18599E+04
 -9.64010E+03  3.45139E+03 -4.89769E+03 -2.20472E+03  1.54060E+03 -3.46256E+03  6.47999E+03 -8.43254E+02
  5.86264E+03  5.15288E+03  1.13668E+03  9.15726E+03 -6.68267E+03  9.11704E+03 -1.12220E+04  2.25285E+03
 -7.46368E+03 -5.67029E+03  1.82847E+02 -9.82927E+03  6.03899E+03 -4.97148E+03  6.07958E+03  1.87515E+03
  1.28263E+03  6.56596E+03 -5.97580E+03  7.96385E+03 -8.86553E+03  3.91384E+03 -8.81778E+03 -3.01771E+03
 -5.04067E+03 -1.03008E+04  2.27992E+03 -1.21846E+04  1.02107E+04 -7.40498E+03  1.12080E+04  1.89360E+03
  7.34764E+03  8.59599E+03 -8.86480E+02  1.11736E+04 -8.12560E+03  6.31787E+03 -8.75333E+03 -8.00806E+02
 -7.82577E+03 -7.62241E+03 -1.56120E+03 -7.90682E+03  4.47671E+03 -6.88959E+03  5.22335E+03 -3.24509E+03
  3.81682E+03  6.88362E+02 -6.01741E+02  1.79402E+03 -5.42354E+01 -1.73561E+03  8.62491E+02 -4.40462E+03
  7.06594E+03 -2.22651E+03  1.01677E+04  8.24541E+02  1.03404E+04  6.66147E+03  7.65393E+03  1.30715E+04
 -2.89759E+03  1.54222E+04 -1.33062E+04  1.16695E+04 -1.69169E+04  2.26341E+03 -1.34848E+04 -5.34742E+03
 -6.98513E+03 -1.11202E+04 -3.37626E+02 -9.47008E+03  3.30942E+03 -5.03035E+03  2.94236E+03 -3.51101E+03
  2.05651E+03 -2.18761E+03  2.55303E+03 -3.03180E+03  4.14337E+03 -2.64281E+03  5.48297E+03 -4.66222E+02
  7.26771E+03  1.55363E+03  3.17762E+03  5.91856E+03 -1.80105E+03  6.75428E+03 -7.71435E+03  4.97525E+03
 -9.09541E+03 -1.42091E+03 -5.04656E+03 -6.48075E+03 -2.36017E+02 -9.78924E+03  5.71537E+03 -9.82166E+03
  1.04319E+04 -5.66431E+03  1.24578E+04  1.23154E+03  8.55193E+03  8.64635E+03  1.26754E+03  1.09488E+04
 -4.54618E+03  9.66676E+03 -6.48464E+03  3.42765E+03 -4.15213E+03 -1.58570E+03 -1.23648E+03 -1.26626E+03
 -9.55203E+02  3.74223E+02 -1.20574E+03  2.47062E+03 -4.11101E+03  1.59352E+03 -6.99783E+03 -9.40567E+02
 -4.09625E+03 -6.63018E+03  5.58939E+02 -9.00586E+03  5.60540E+03 -8.12083E+03  8.67549E+03 -2.04345E+03
  8.38233E+03  4.32555E+03  4.15416E+03  7.22851E+03 -1.82157E+03  8.90395E+03 -5.83580E+03  5.47577E+03
 -8.23436E+03  5.57199E+02 -6.43896E+03 -5.55942E+03 -6.95228E+02 -6.89362E+03  3.58468E+03 -5.31768E+03
  5.40963E+03 -1.90353E+03  3.81351E+03  1.34091E+03  1.11843E+03  2.64581E+03  1.04849E+03  1.16634E+03
  2.12693E+03  6.44367E+02  2.46776E+03  1.45369E+03  2.52137E+03  3.46766E+03  2.43341E+03  4.01467E+03
 -2.10175E+03  6.84285E+03 -5.86252E+03  6.92970E+03 -8.09993E+03  1.89631E+03 -8.94900E+03 -2.78394E+03
 -4.23345E+03 -8.18111E+03  1.12070E+03 -9.98268E+03  4.82596E+03 -5.98999E+03  7.03173E+03 -1.56727E+03
  5.49670E+03  3.17247E+03  1.00103E+03  4.89369E+03 -2.10832E+03  2.58899E+03 -2.66770E+03 -2.68975E+02
 -1.75486E+03 -3.45580E+03  2.14571E+03 -3.40270E+03  3.18806E+03 -2.13935E+03  3.53752E+03  4.43812E+02
  2.08022E+03  1.48801E+03  1.34211E+03  9.64721E+02 -5.01875E+02  1.47053E+03  1.57823E+03 -4.55337E+02
  1.11659E+03 -4.24343E+02  3.57393E+03  1.63929E+03  1.57005E+03  4.89499E+03 -6.43521E+02  5.86703E+03
 -3.83054E+03  3.45364E+03 -4.97700E+03  1.26412E+03 -4.58857E+03 -1.72764E+03 -1.25484E+03 -2.82099E+03
  2.98991E+02 -3.22312E+03  1.95974E+03 -1.62312E+03  1.55654E+03  2.20784E+03 -8.57480E+02  2.48105E+03
 -3.76143E+03  1.54009E+03 -3.32371E+03 -2.17313E+03 -2.01133E+03 -4.80148E+03  7.32137E+02 -4.35933E+03
  2.21636E+03 -2.33051E+03  2.91297E+03 -3.13509E+02  2.56517E+03  7.43979E+02  6.89898E+02  2.26196E+03
 -1.54901E+03  6.18209E+02 -1.94379E+03 -1.63179E+03  5.78234E+02 -2.89732E+03  3.81561E+03 -2.66674E+03
  4.70066E+03  4.65229E+02  5.35866E+03  2.61645E+03  2.11223E+03  5.17408E+03 -1.65561E+03  5.00183E+03
 -3.92685E+03  1.86995E+03 -4.18097E+03 -8.03701E+02 -2.29325E+03 -3.52267E+03  6.40531E+02 -2.58558E+03
  3.11601E+03 -1.50982E+03  2.36718E+03  1.54588E+03  1.05903E+03  2.85776E+03  1.57239E+02  2.53183E+03
 -1.13003E+03  1.98766E+03 -1.19093E+03  4.96738E+02 -4.00787E+02  8.81693E+02 -1.20043E+03  1.20533E+03
 -1.53988E+03  2.02972E+03 -3.46103E+03  1.62298E+03 -4.78485E+03  3.97812E+02 -5.79650E+03 -3.00043E+03
 -2.91177E+03 -6.41005E+03  1.40925E+03 -7.47140E+03  4.35239E+03 -6.20969E+03  7.33040E+03 -2.61594E+03
  6.82842E+03  1.00127E+03  3.90191E+03  4.41198E+03 -6.07276E+01  4.75407E+03 -1.69262E+03  3.56841E+03
 -2.75797E+03  1.62846E+03 -1.85931E+03 -6.93122E+02 -8.95184E+02 -1.12881E+02 -1.06617E+03  2.47471E+02
 -1.37863E+03 -3.53753E+01 -1.48163E+03  1.52060E+01 -3.18261E+01 -1.25808E+03 -1.16881E+02 -2.04353E+03
  2.16179E+03 -1.43565E+03  2.59458E+03  1.41034E+02  3.91069E+03  2.56134E+03  1.76287E+02  4.63870E+03
 -2.36336E+03  5.87183E+03 -5.08895E+03  3.62186E+03 -5.65842E+03 -4.22579E+02 -3.94024E+03 -3.52469E+03
 -1.87820E+03 -4.45799E+03  1.03653E+03 -4.50210E+03  2.70259E+03 -2.27316E+03  2.75097E+03  5.88910E+02
  1.56154E+03  1.66167E+03 -7.33369E+01  1.23257E+03 -9.49513E+02  1.68175E+02  1.41882E+02 -7.78336E+02
  1.41640E+03 -5.84828E+02  1.85751E+03  6.06032E+02  1.15729E+03  1.94672E+03  5.39823E+02  2.33394E+03
 -2.25607E+03  2.07575E+03 -2.74898E+03  9.59374E+01 -2.28392E+03 -1.87780E+03 -1.67020E+02 -4.22893E+03
  1.88393E+03 -3.09016E+03  3.41739E+03 -7.02427E+02  3.43802E+03  3.96362E+02  2.08862E+03  2.69267E+03
  6.34743E+02  2.65426E+03 -1.20050E+03  2.40755E+03 -1.80501E+03  1.45158E+03 -1.45737E+03  4.63681E+02
 -7.61172E+02 -1.80095E+02 -1.02295E+03 -6.36064E-01 -1.64714E+03  6.95211E+02 -2.36485E+03 -4.84118E+02
 -2.63265E+03 -1.10465E+03 -8.21664E+02 -3.18798E+03  1.43707E+03 -3.74273E+03  2.70779E+03 -1.69195E+03
  2.87765E+03  5.54599E+02  1.21195E+03  1.90051E+03 -4.30548E+02  2.87264E+03 -2.01687E+03  2.03906E+03
