 $NMID ID='MM_0lb_SNR800_15hz_g45_74.RAW', FMTDAT='(8E13.5)'
 TRAMP=1., VOLUME=1. $END
  3.09794E+05  4.47082E+02  3.37673E+05  2.50553E+05  8.44974E+04  3.37873E+05 -1.32439E+05  2.50955E+05
 -1.89948E+05  8.29588E+04 -1.11266E+05 -3.27913E+04  8.60479E+02 -5.06222E+04  5.37943E+04 -1.95393E+02
  3.55210E+04  5.27236E+04 -1.69865E+04  7.51874E+04 -6.08984E+04  6.36325E+04 -8.39269E+04  3.18647E+04
 -8.07921E+04 -1.13364E+04 -5.71712E+04 -5.08304E+04 -1.48519E+04 -6.93316E+04  2.70729E+04 -4.53541E+04
  3.99181E+04  3.87901E+03  1.57410E+04  4.75685E+04 -3.46525E+04  4.67604E+04 -6.62671E+04 -2.64702E+02
 -5.29042E+04 -5.67624E+04 -6.67377E+03 -7.63114E+04  3.37331E+04 -5.46716E+04  4.74039E+04 -1.67298E+04
  4.28966E+04  1.13162E+04  3.14931E+04  2.51724E+04  1.60011E+04  2.87741E+04 -4.82278E+03  2.67959E+04
 -2.20666E+04  1.24266E+04 -1.87027E+04 -4.39178E+03  5.32833E+03 -7.37304E+03  2.19999E+04  1.18991E+04
  7.23656E+03  3.48274E+04 -3.14404E+04  3.50353E+04 -6.25814E+04  2.33093E+03 -5.62997E+04 -4.20273E+04
 -1.25253E+04 -6.21792E+04  3.94087E+04 -4.48548E+04  5.75386E+04 -2.20558E+03  3.37196E+04  3.17465E+04
 -6.16048E+03  3.50162E+04 -2.95836E+04  1.51545E+04 -2.96611E+04 -4.85470E+03 -1.60412E+04 -1.04558E+04
 -8.00596E+03 -1.22968E+04 -1.02076E+03 -1.75526E+04  7.13523E+03 -2.28755E+04  1.52870E+04 -1.35603E+04
  1.17212E+04  5.10567E+03 -7.54292E+03  1.28570E+04 -2.02855E+04 -3.99812E+03 -8.28586E+03 -3.24906E+04
  2.22010E+04 -4.26035E+04  4.70335E+04 -1.95867E+04  4.38854E+04  1.94025E+04  1.49553E+04  4.33539E+04
 -1.57552E+04  3.27743E+04 -2.48573E+04  1.46505E+03 -9.19283E+03 -2.73395E+04  2.07321E+04 -3.29440E+04
  3.99539E+04 -8.68400E+03  3.43417E+04  2.36874E+04  1.71627E+04  4.54330E+04 -7.76931E+03  4.85664E+04
 -3.10478E+04  3.24108E+04 -4.07299E+04  9.30584E+03 -4.13179E+04 -1.61092E+04 -2.25801E+04 -3.68008E+04
  7.18247E+03 -3.67373E+04  3.08263E+04 -1.39680E+04  2.86582E+04  1.07256E+04  3.49614E+03  1.90116E+04
 -1.35028E+04  8.15093E+03 -1.00415E+04 -7.69318E+03  5.64694E+03 -1.02086E+04  1.77364E+04  5.69390E+03
  1.30833E+04  2.18621E+04 -6.35240E+03  2.46159E+04 -2.18816E+04  1.04651E+04 -2.72179E+04 -5.60870E+03
 -1.97352E+04 -1.73791E+04 -7.28880E+03 -1.92765E+04  4.12067E+03 -1.79957E+04  1.47447E+04 -1.72404E+04
  2.46595E+04 -1.23127E+04  3.08703E+04  2.42069E+03  2.31648E+04  1.91067E+04  4.25415E+03  3.52530E+04
 -1.71602E+04  2.94814E+04 -2.73250E+04  1.02711E+04 -2.03495E+04 -1.02466E+04 -4.21131E+03 -1.35138E+04
  2.12919E+03 -3.23952E+03 -4.15557E+03  6.32530E+03 -1.52740E+04  5.23420E+03 -1.53710E+04 -6.32855E+03
 -9.50581E+03 -1.78617E+04  4.87249E+03 -2.15770E+04  1.44964E+04 -1.54716E+04  1.69780E+04 -1.46452E+03
  1.05049E+04  1.26089E+04 -9.31627E+02  1.81635E+04 -1.21717E+04  1.02591E+04 -1.78574E+04 -3.90507E+03
 -1.32541E+04 -1.64139E+04 -1.79539E+03 -2.14253E+04  9.84797E+03 -1.75587E+04  1.79796E+04 -8.82173E+03
  1.70005E+04  3.15516E+02  1.18813E+04  3.93359E+03  6.16376E+03  3.09899E+02  9.08043E+03 -1.68635E+03
  1.62021E+04  2.54041E+03  1.79148E+04  1.44921E+04  1.14246E+04  2.83384E+04 -2.94296E+03  3.17976E+04
 -1.83284E+04  2.50346E+04 -2.95038E+04  1.26342E+04 -3.05236E+04 -2.10226E+03 -2.56338E+04 -1.76590E+04
 -1.12977E+04 -2.54929E+04  8.62929E+03 -2.29051E+04  1.96798E+04 -1.21565E+04  1.79881E+04  4.84786E+03
  7.21110E+03  1.32822E+04 -8.52727E+03  1.22588E+04 -1.50757E+04  2.65445E+03 -1.16037E+04 -9.31028E+03
 -4.24829E+02 -1.42281E+04  7.40374E+03 -1.09594E+04  9.46080E+03 -1.51263E+03  1.67019E+03  6.17669E+03
 -6.40227E+03  2.11664E+03 -4.92014E+03 -5.31807E+03 -3.03684E+02 -1.21478E+04  8.87219E+03 -1.26695E+04
  1.51471E+04 -6.56907E+03  1.59534E+04  2.97064E+03  1.39075E+04  1.22196E+04  6.42398E+03  1.80957E+04
 -2.70776E+03  1.99783E+04 -1.25587E+04  1.25548E+04 -1.41784E+04  3.05467E+03 -1.01795E+04 -3.05343E+03
 -5.10859E+03 -4.78253E+03 -7.61786E+02  1.13687E+03 -1.99690E+03  2.17049E+03 -4.45073E+03  4.15837E+03
 -9.61089E+03 -7.40269E+02 -1.04680E+04 -8.57397E+03 -4.17910E+03 -1.35064E+04  3.86286E+03 -1.02739E+04
  8.91973E+03 -4.53154E+03  6.55196E+03  2.77294E+03  5.32279E+02  3.97435E+03 -4.90747E+03  1.20106E+02
 -4.59004E+03 -6.51231E+03 -1.05294E+03 -9.54978E+03  5.44263E+03 -1.02050E+04  1.29285E+04 -5.33237E+03
  1.47175E+04  6.62629E+02  1.10459E+04  8.57220E+03  1.88885E+03  1.13442E+04 -6.43428E+03  1.03224E+04
 -8.65083E+03  3.29019E+03 -4.43016E+03 -1.56489E+03  1.48057E+03 -2.48149E+03  5.89499E+03 -1.06457E+03
  4.88330E+03  4.30182E+03  1.09659E+03  8.04431E+03 -5.61729E+03  7.99047E+03 -9.91866E+03  2.16262E+03
 -6.31576E+03 -4.87039E+03  2.93443E+02 -8.19648E+03  5.06638E+03 -4.48543E+03  5.28659E+03  1.67131E+03
  1.03542E+03  4.83496E+03 -5.14569E+03  6.61014E+03 -6.84922E+03  3.17981E+03 -7.00529E+03 -2.29145E+03
 -4.45920E+03 -8.89181E+03  1.76046E+03 -9.66124E+03  8.49083E+03 -6.10015E+03  8.75046E+03  1.67307E+03
  6.03050E+03  7.30426E+03 -1.90175E+02  9.62629E+03 -6.93706E+03  5.50843E+03 -7.16527E+03 -7.87299E+02
 -7.06710E+03 -6.47866E+03 -1.66801E+03 -6.62424E+03  3.42386E+03 -5.97222E+03  4.10566E+03 -3.08247E+03
  3.15658E+03  7.75112E+02 -2.09940E+02  1.61400E+03  5.17505E+02 -9.76046E+02  7.78889E+02 -3.43269E+03
  5.69220E+03 -1.79006E+03  7.91419E+03  1.06014E+03  8.36117E+03  5.30467E+03  6.24040E+03  1.05909E+04
 -2.10160E+03  1.25631E+04 -1.08913E+04  9.28358E+03 -1.38418E+04  1.38744E+03 -1.09493E+04 -4.32020E+03
 -5.96995E+03 -9.22923E+03 -7.22715E+02 -7.77551E+03  2.98911E+03 -3.66850E+03  2.74225E+03 -2.91085E+03
  1.84865E+03 -1.47141E+03  2.55691E+03 -2.73068E+03  4.24427E+03 -2.26357E+03  5.04031E+03  2.34991E+02
  5.71601E+03  1.30530E+03  2.26049E+03  4.86872E+03 -1.77490E+03  4.94147E+03 -5.76660E+03  4.14699E+03
 -7.42449E+03 -1.01554E+03 -3.67538E+03 -4.88775E+03 -1.83141E+02 -7.36090E+03  4.80472E+03 -7.79980E+03
  7.86673E+03 -4.56638E+03  9.80496E+03  1.00317E+03  6.90223E+03  6.75763E+03  1.28539E+03  8.88229E+03
 -2.91963E+03  8.03228E+03 -5.01266E+03  2.65564E+03 -2.92410E+03 -1.13144E+03 -1.18684E+03 -1.01945E+03
 -6.57331E+02  3.03998E+02 -1.12857E+03  2.35202E+03 -3.69968E+03  1.46457E+03 -5.66994E+03 -4.10459E+02
 -2.88175E+03 -5.81428E+03  6.41015E+02 -7.05770E+03  4.15361E+03 -6.00970E+03  6.24424E+03 -2.08984E+03
  6.36720E+03  3.79477E+03  2.48646E+03  5.61987E+03 -1.07945E+03  7.09824E+03 -4.34748E+03  4.41712E+03
 -6.12780E+03  5.79560E+02 -5.24289E+03 -3.99113E+03 -5.09692E+02 -5.46379E+03  2.68879E+03 -4.37871E+03
  4.36613E+03 -1.75070E+03  2.57466E+03  9.98320E+02  1.00876E+03  2.44763E+03  9.66762E+02  8.98778E+02
  2.01567E+03  8.66513E+02  1.70913E+03  1.53785E+03  1.91349E+03  3.07354E+03  1.99552E+03  3.32633E+03
 -1.71711E+03  5.07146E+03 -4.57274E+03  5.90763E+03 -5.85020E+03  1.62894E+03 -6.53523E+03 -1.57477E+03
 -2.97358E+03 -5.97184E+03  1.05206E+03 -7.19440E+03  3.50175E+03 -4.61584E+03  4.88284E+03 -1.06833E+03
  4.21408E+03  2.64301E+03  8.59773E+02  3.50044E+03 -1.36662E+03  1.99882E+03 -2.38181E+03 -3.05517E+02
 -9.31521E+02 -2.37559E+03  1.86778E+03 -2.42361E+03  2.19667E+03 -1.29230E+03  2.45736E+03  7.33133E+02
  1.44457E+03  1.25459E+03  7.82999E+02  2.07132E+02 -4.73978E+02  1.04927E+03  1.50441E+03 -3.85868E+02
  5.11281E+02 -1.82090E+02  2.62694E+03  8.59602E+02  1.16276E+03  3.67953E+03 -4.38864E+02  4.66506E+03
 -2.68420E+03  2.60423E+03 -3.93979E+03  7.76518E+02 -3.63452E+03 -1.25456E+03 -7.01959E+02 -1.82480E+03
  2.93711E+02 -1.99869E+03  1.54209E+03 -1.00528E+03  9.74352E+02  1.38754E+03 -8.47401E+02  2.03325E+03
 -2.60684E+03  1.27235E+03 -2.65212E+03 -1.78744E+03 -1.41470E+03 -3.47410E+03  3.64799E+02 -3.05157E+03
  1.28006E+03 -1.53524E+03  1.99007E+03  3.80345E+02  2.23867E+03  3.82165E+02  4.99066E+02  1.96977E+03
 -7.89881E+02  3.58461E+01 -1.53836E+03 -9.41321E+02  3.94193E+02 -2.14987E+03  2.82659E+03 -2.02667E+03
  3.12889E+03  4.57839E+02  4.23122E+03  1.54718E+03  1.73174E+03  3.70090E+03 -8.18262E+02  3.33003E+03
 -2.92436E+03  1.00899E+03 -3.18908E+03 -5.82319E+02 -1.63929E+03 -2.49467E+03  7.40381E+02 -1.71212E+03
  2.46200E+03 -1.27648E+03  1.67304E+03  9.43327E+02  5.78429E+02  2.15284E+03  9.01366E+01  1.98186E+03
 -6.63737E+02  1.54036E+03 -7.30852E+02  5.27880E+02 -2.17922E+02  3.75034E+02 -7.66052E+02  7.72678E+02
 -8.22146E+02  1.60591E+03 -2.65989E+03  1.17001E+03 -3.43030E+03 -2.65649E+01 -4.23810E+03 -2.12116E+03
 -1.90448E+03 -4.54468E+03  1.11156E+03 -5.41204E+03  2.74205E+03 -4.13432E+03  4.91734E+03 -1.62006E+03
  4.65853E+03  2.31449E+02  2.52669E+03  3.13971E+03 -2.34352E+02  3.04381E+03 -1.23731E+03  2.45651E+03
 -2.13260E+03  1.05689E+03 -1.35708E+03 -3.08802E+02 -7.64502E+02 -9.90461E+01 -5.44894E+02 -4.59996E+01
 -1.00149E+03 -1.06482E+01 -1.08227E+03  2.88021E+01  2.60247E+02 -1.05513E+03 -2.84561E+02 -1.55993E+03
  1.50853E+03 -1.19818E+03  1.63645E+03  2.97538E+02  2.23795E+03  2.09894E+03  8.07629E+01  2.95158E+03
 -1.76089E+03  3.96371E+03 -3.75258E+03  2.24202E+03 -3.81218E+03 -3.67941E+02 -2.83529E+03 -2.82614E+03
 -1.52701E+03 -3.00134E+03  6.70851E+02 -2.60041E+03  1.84008E+03 -1.53525E+03  1.83046E+03  4.34447E+02
  1.28715E+03  1.18018E+03  1.83197E+02  8.46832E+02 -6.13527E+02  4.02947E+00 -9.67767E+01 -8.54124E+02
  9.10488E+02  7.85808E+01  6.24278E+02  7.01120E+02  5.90322E+02  9.83696E+02  1.60312E+02  9.66638E+02
 -1.50408E+03  1.61064E+03 -1.80922E+03  5.39269E+02 -1.94691E+03 -1.13274E+03  4.75698E+01 -2.56249E+03
  1.44938E+03 -1.78781E+03  1.68883E+03 -4.89931E+02  2.05472E+03 -1.77162E+02  1.24820E+03  1.83277E+03
  7.38293E+02  1.78564E+03 -7.61413E+02  1.31674E+03 -1.39775E+03  1.02044E+03 -4.26565E+02  4.87016E+01
 -2.57676E+02 -6.78432E+01 -5.06845E+02  1.80260E+02 -1.18907E+03  2.47057E+02 -1.52843E+03 -4.17565E+02
 -1.95273E+03 -2.17087E+02 -6.62242E+02 -2.09879E+03  1.22397E+03 -2.54925E+03  1.70945E+03 -9.13372E+02
  1.69849E+03 -1.03677E+01  4.04724E+02  9.94634E+02 -1.02856E+02  1.65281E+03 -1.34740E+03  1.54599E+03
