 $NMID ID='MM_0lb_SNR800_19hz_g50_27.RAW', FMTDAT='(8E13.5)'
 TRAMP=1., VOLUME=1. $END
  3.09701E+05  4.61226E+02  3.37258E+05  2.50179E+05  8.45122E+04  3.37399E+05 -1.32405E+05  2.50433E+05
 -1.90054E+05  8.25950E+04 -1.10974E+05 -3.24938E+04  1.33639E+03 -5.01658E+04  5.39807E+04  4.73473E+02
  3.51599E+04  5.28936E+04 -1.68909E+04  7.48395E+04 -6.03168E+04  6.31769E+04 -8.31542E+04  3.15178E+04
 -7.96085E+04 -1.11756E+04 -5.63339E+04 -5.02687E+04 -1.50570E+04 -6.84064E+04  2.66985E+04 -4.49286E+04
  3.93231E+04  3.94167E+03  1.54850E+04  4.69936E+04 -3.39440E+04  4.62777E+04 -6.52964E+04 -4.86512E+02
 -5.21059E+04 -5.59115E+04 -6.13262E+03 -7.51888E+04  3.30555E+04 -5.33719E+04  4.62882E+04 -1.63481E+04
  4.14121E+04  1.09041E+04  3.07206E+04  2.44601E+04  1.56688E+04  2.82912E+04 -4.56173E+03  2.67219E+04
 -2.17047E+04  1.27934E+04 -1.92655E+04 -4.49031E+03  4.60752E+03 -7.72773E+03  2.13175E+04  1.07481E+04
  7.21399E+03  3.33968E+04 -3.06040E+04  3.41315E+04 -6.09571E+04  1.87256E+03 -5.57311E+04 -4.13206E+04
 -1.23909E+04 -6.07749E+04  3.78900E+04 -4.34598E+04  5.54837E+04 -1.92838E+03  3.20425E+04  3.09680E+04
 -6.52645E+03  3.33135E+04 -2.82876E+04  1.31829E+04 -2.76164E+04 -4.96857E+03 -1.42509E+04 -9.72053E+03
 -7.27743E+03 -1.14624E+04 -1.06710E+03 -1.66453E+04  6.52845E+03 -2.26562E+04  1.50221E+04 -1.41706E+04
  1.22801E+04  4.10636E+03 -6.03329E+03  1.31044E+04 -1.92031E+04 -2.36906E+03 -8.31616E+03 -3.04574E+04
  2.08086E+04 -4.06074E+04  4.45145E+04 -1.86517E+04  4.19446E+04  1.82878E+04  1.42653E+04  4.16224E+04
 -1.54030E+04  3.08430E+04 -2.34669E+04  1.29275E+03 -8.12294E+03 -2.63384E+04  2.05392E+04 -3.10534E+04
  3.79530E+04 -7.58820E+03  3.16100E+04  2.27111E+04  1.53676E+04  4.26998E+04 -7.64442E+03  4.55130E+04
 -2.85849E+04  2.99212E+04 -3.72521E+04  8.05591E+03 -3.85353E+04 -1.50948E+04 -2.11554E+04 -3.46850E+04
  6.73011E+03 -3.41501E+04  2.91270E+04 -1.26986E+04  2.66452E+04  1.07023E+04  2.87418E+03  1.78989E+04
 -1.30724E+04  7.34458E+03 -9.62559E+03 -7.84796E+03  6.09777E+03 -1.02050E+04  1.71235E+04  6.60897E+03
  1.22488E+04  2.15735E+04 -6.51367E+03  2.32744E+04 -2.14397E+04  9.13895E+03 -2.52154E+04 -6.29376E+03
 -1.67745E+04 -1.62318E+04 -5.38363E+03 -1.69124E+04  3.64443E+03 -1.45734E+04  1.25163E+04 -1.45163E+04
  2.13121E+04 -1.15349E+04  2.79985E+04  7.49185E+02  2.11009E+04  1.64270E+04  4.09072E+03  3.24633E+04
 -1.61383E+04  2.76129E+04 -2.56831E+04  9.24380E+03 -1.95790E+04 -1.03049E+04 -4.02101E+03 -1.41329E+04
  2.59702E+03 -3.93374E+03 -2.87024E+03  5.40701E+03 -1.31810E+04  5.47821E+03 -1.35368E+04 -4.79139E+03
 -8.79092E+03 -1.54354E+04  4.52939E+03 -1.93249E+04  1.27105E+04 -1.41465E+04  1.47951E+04 -1.35744E+03
  9.18840E+03  1.08125E+04 -1.05420E+03  1.55740E+04 -1.03491E+04  9.00924E+03 -1.55662E+04 -3.59857E+03
 -1.16161E+04 -1.39588E+04 -1.21174E+03 -1.90718E+04  8.66752E+03 -1.52910E+04  1.62265E+04 -7.16073E+03
  1.47793E+04  9.21257E+02  1.03582E+04  3.99944E+03  5.31955E+03  5.30756E+02  7.39938E+03 -1.22519E+03
  1.39895E+04  2.54619E+03  1.44132E+04  1.24881E+04  9.20779E+03  2.46773E+04 -2.76354E+03  2.67425E+04
 -1.59037E+04  1.99162E+04 -2.44714E+04  9.63694E+03 -2.48542E+04 -1.66028E+03 -2.13250E+04 -1.42869E+04
 -1.04514E+04 -2.01515E+04  6.68172E+03 -1.89582E+04  1.65361E+04 -1.06634E+04  1.57671E+04  3.65051E+03
  6.46918E+03  1.09656E+04 -7.30330E+03  1.03842E+04 -1.32168E+04  2.72829E+03 -1.01581E+04 -7.85894E+03
 -3.93481E+01 -1.23138E+04  5.91706E+03 -9.47683E+03  7.88542E+03 -1.40837E+03  1.49789E+03  4.94579E+03
 -5.70321E+03  1.41362E+03 -3.66911E+03 -4.51023E+03  7.85055E+02 -9.83230E+03  8.16275E+03 -9.84422E+03
  1.20058E+04 -4.43489E+03  1.20265E+04  2.77427E+03  1.01520E+04  9.36314E+03  4.79124E+03  1.38151E+04
 -1.45017E+03  1.56514E+04 -9.47961E+03  1.00566E+04 -1.10214E+04  2.81046E+03 -8.29871E+03 -1.91745E+03
 -4.40345E+03 -3.16962E+03 -6.41054E+02  1.78039E+03 -2.06545E+03  2.03474E+03 -3.62108E+03  3.13801E+03
 -7.81309E+03 -3.92226E+02 -8.75333E+03 -6.91502E+03 -3.72564E+03 -1.16237E+04  3.46828E+03 -8.31152E+03
  7.22679E+03 -3.68821E+03  5.38527E+03  2.12210E+03  5.44212E+02  3.09591E+03 -3.32538E+03 -2.54940E+02
 -3.39645E+03 -5.02621E+03 -6.38057E+02 -6.97168E+03  3.68314E+03 -7.93659E+03  9.55327E+03 -3.71755E+03
  1.14299E+04  4.87903E+02  8.74510E+03  5.78778E+03  1.84455E+03  8.50632E+03 -5.05848E+03  8.03726E+03
 -6.74301E+03  2.81021E+03 -3.27435E+03 -1.29232E+03  1.28219E+03 -2.09540E+03  4.58220E+03 -1.04587E+03
  3.98237E+03  3.14885E+03  1.11943E+03  6.17275E+03 -4.25271E+03  6.31836E+03 -7.78600E+03  1.74699E+03
 -4.93664E+03 -3.41247E+03  4.20001E+02 -6.42252E+03  3.65425E+03 -3.41250E+03  3.39401E+03  9.93425E+02
  3.91063E+02  3.33706E+03 -3.61265E+03  4.59957E+03 -4.53057E+03  2.36966E+03 -4.01596E+03 -1.16484E+03
 -2.89919E+03 -5.84836E+03  1.15757E+03 -6.85487E+03  5.47930E+03 -4.66547E+03  6.07801E+03  1.05445E+03
  4.55776E+03  5.13182E+03  2.86975E+02  6.83032E+03 -5.02059E+03  3.97857E+03 -5.07594E+03 -2.81176E+02
 -5.60077E+03 -5.13782E+03 -1.18309E+03 -4.82580E+03  2.42999E+03 -4.51764E+03  2.66728E+03 -3.03746E+03
  2.66149E+03  1.24774E+02  7.04520E+01  8.71125E+02  6.87798E+02 -1.64528E+02  4.06525E+02 -1.88005E+03
  3.60184E+03 -7.16769E+02  4.97154E+03  6.94253E+02  5.38839E+03  2.95383E+03  5.19858E+03  6.77012E+03
 -1.16159E+03  8.16177E+03 -7.46897E+03  6.14022E+03 -9.54753E+03  1.11495E+03 -7.43954E+03 -2.39305E+03
 -3.91971E+03 -6.16860E+03 -3.61374E+02 -4.82924E+03  1.96777E+03 -1.71603E+03  1.45595E+03 -1.94790E+03
  1.17198E+03 -1.32463E+03  2.21182E+03 -2.20823E+03  3.42308E+03 -1.03034E+03  3.68546E+03  5.20854E+02
  4.64374E+03  1.23069E+03  1.02173E+03  3.24688E+03 -1.44066E+03  2.55772E+03 -4.06929E+03  2.22979E+03
 -4.71237E+03 -1.01367E+03 -1.51051E+03 -3.08818E+03  2.46449E+02 -4.51209E+03  3.14616E+03 -4.97847E+03
  4.76778E+03 -3.26778E+03  6.53118E+03  1.71347E+02  4.32902E+03  3.97620E+03  1.06483E+03  5.84618E+03
 -2.08066E+03  5.57511E+03 -3.08259E+03  1.90886E+03 -1.64860E+03 -8.36626E+02 -3.62293E+02 -7.28329E+02
 -5.33485E+02  5.97538E+02 -8.17518E+02  2.08959E+03 -2.26078E+03  1.11425E+03 -4.06475E+03 -3.55750E+02
 -1.26558E+03 -3.76810E+03  9.07403E+02 -4.21157E+03  2.50578E+03 -4.24402E+03  3.21911E+03 -9.37016E+02
  3.74222E+03  2.33298E+03  1.56092E+03  3.17831E+03 -6.16932E+02  4.06791E+03 -2.57315E+03  2.50911E+03
 -3.34765E+03  2.07722E+02 -3.44304E+03 -2.22588E+03 -5.71735E+01 -2.58757E+03  1.72670E+03 -2.58194E+03
  2.64689E+03 -1.33834E+03  1.58510E+03  4.46571E+02  2.68781E+02  1.36899E+03  8.45883E+02  6.80705E+02
  1.69876E+03  5.40448E+02  9.32738E+02  1.06705E+03  7.34179E+02  1.85753E+03  1.40632E+03  1.53747E+03
 -1.09495E+03  2.68830E+03 -2.37923E+03  3.67970E+03 -2.76331E+03  1.27950E+03 -3.86367E+03 -3.34760E+02
 -1.48837E+03 -3.50340E+03  4.62122E+02 -4.35171E+03  1.75914E+03 -2.58202E+03  3.10177E+03 -8.22931E+02
  2.17510E+03  1.81382E+03  4.07806E+02  2.42440E+03 -5.51163E+02  1.21579E+03 -9.14614E+02 -1.39968E+02
 -3.76547E+02 -1.55103E+03  1.25784E+03 -1.51924E+03  8.80313E+02 -9.30414E+02  1.11654E+03  4.69289E+02
  8.47670E+02  2.91147E+02  6.99824E+02 -2.80130E+02 -2.54014E+02  8.13869E+02  1.58826E+03 -1.73796E+02
  4.89799E+01  1.00570E+02  1.98679E+03  6.08808E+02  1.33635E+02  2.03312E+03 -3.48748E+02  2.48870E+03
 -1.67746E+03  9.12331E+02 -1.73218E+03  4.52115E+01 -1.82527E+03 -9.19150E+02  1.39188E+02 -9.43212E+02
  3.70395E+02 -1.11944E+03  5.35537E+02 -6.44999E+02  4.64836E+02  1.12081E+03 -6.62331E+02  8.32512E+02
 -1.39563E+03  7.60966E+02 -8.88415E+02 -1.18188E+03 -5.78807E+02 -2.01281E+03  5.11868E+02 -1.39686E+03
  2.30331E+02 -3.75732E+02  4.37839E+02  2.70158E+02  1.08062E+03 -3.11999E+02  3.13403E+02  1.13551E+03
 -2.17166E+02  1.61109E+02 -8.60721E+02 -9.80429E+01  4.88748E+02 -7.77914E+02  1.62025E+03 -7.19965E+02
  1.37272E+03  1.38385E+02  2.40660E+03  7.02083E+02  1.17889E+03  1.44688E+03 -1.89714E+02  1.67823E+03
 -1.36600E+03  2.56514E+02 -1.45540E+03  8.64774E+01 -8.53580E+02 -1.50097E+03  3.19983E+02 -4.68146E+02
  1.40376E+03 -6.58051E+02  7.23378E+02  3.45051E+02 -1.70852E+02  1.20792E+03  3.77280E+02  1.30908E+03
 -2.65906E+02  1.00793E+03 -5.90432E+02  2.47341E+01 -4.19141E+01  1.99502E+02 -8.05087E+02  5.94715E+02
 -5.01562E+02  1.01446E+03 -1.66070E+03  3.81590E+02 -1.55667E+03  6.37965E+01 -1.90692E+03 -8.79621E+02
 -9.60351E+02 -1.94305E+03  3.72127E+02 -2.53090E+03  8.09046E+02 -2.15793E+03  2.42680E+03 -9.53133E+02
  2.17983E+03 -3.22464E+02  1.07043E+03  1.42725E+03 -7.79839E+02  1.54399E+03 -6.02349E+02  9.57099E+02
 -8.24451E+02  7.81297E+02 -3.24108E+02 -3.96877E+02 -4.98120E+02  3.74566E+02 -8.35214E+02 -8.23395E+01
 -1.10833E+03 -2.61128E+02 -7.63348E+02  9.81899E+01  8.94597E+01 -5.32289E+02 -4.86963E+02 -8.05217E+02
  1.39120E+03 -4.50983E+02  1.81537E+02  2.06897E+01  1.18569E+03  7.73931E+02 -3.62520E+02  1.10348E+03
 -9.61227E+02  1.98079E+03 -1.36738E+03  1.20586E+03 -1.58028E+03 -3.05166E+01 -1.16535E+03 -1.15993E+03
 -5.38549E+02 -1.32342E+03  1.05142E+02 -1.01377E+03  6.42040E+02 -3.21533E+02  5.87134E+02  2.26103E+02
  4.32478E+02  2.45472E+02  1.88909E+02  3.22791E+02 -3.55787E+02  1.20273E+02 -1.64572E+01 -3.52266E+02
  3.71859E+02  1.02642E+02  1.03060E+02  4.10031E+02 -1.77811E+01  5.47883E+02  5.21244E+02  3.01562E+02
 -4.26846E+02  5.78831E+02 -5.41232E+02 -3.20271E+01 -7.77242E+02 -6.36583E+02 -4.03429E+01 -1.10053E+03
  3.11038E+02 -6.25674E+02  3.55040E+01  2.14626E+02  6.52637E+02 -3.02293E+02  3.13549E+02  6.59627E+02
  4.71404E+02  7.26494E+01  5.25327E+00  2.50898E+02 -7.98461E+02  5.55228E+02 -4.14653E+02  1.43308E+02
  7.87629E+01 -1.85964E+02 -4.05719E+02  2.05714E+02 -6.51983E+02 -3.14623E+01 -7.57908E+02 -3.51398E+02
 -8.35358E+02  3.69482E+02 -2.37197E+02 -7.48866E+02  4.35890E+02 -1.60664E+03  4.61921E+02 -7.84701E+01
  8.17276E+02  6.28520E+01 -4.14411E+02  2.34745E+02 -2.48699E+02  8.67530E+02 -1.38655E+02  5.22059E+02
