 $NMID ID='MM_0lb_SNR800_18hz_g60_7.RAW', FMTDAT='(8E13.5)'
 TRAMP=1., VOLUME=1. $END
  3.10098E+05  5.68142E+02  3.37466E+05  2.50535E+05  8.46713E+04  3.37682E+05 -1.32583E+05  2.50759E+05
 -1.90162E+05  8.28863E+04 -1.11464E+05 -3.24984E+04  9.06004E+02 -5.01924E+04  5.38874E+04 -3.21317E+02
  3.52591E+04  5.28377E+04 -1.68832E+04  7.54756E+04 -6.04771E+04  6.33308E+04 -8.39069E+04  3.19018E+04
 -8.03313E+04 -1.11216E+04 -5.69451E+04 -5.09728E+04 -1.50648E+04 -6.92936E+04  2.73367E+04 -4.54007E+04
  3.96712E+04  3.95972E+03  1.60636E+04  4.75792E+04 -3.39598E+04  4.71509E+04 -6.63309E+04 -3.99070E+02
 -5.32647E+04 -5.69734E+04 -6.59275E+03 -7.66378E+04  3.34240E+04 -5.46560E+04  4.77360E+04 -1.69887E+04
  4.28717E+04  1.13687E+04  3.14213E+04  2.52353E+04  1.56748E+04  2.93271E+04 -5.21647E+03  2.71380E+04
 -2.20538E+04  1.26212E+04 -1.88509E+04 -4.98782E+03  5.12601E+03 -7.52460E+03  2.18876E+04  1.17001E+04
  7.47925E+03  3.47218E+04 -3.20603E+04  3.50940E+04 -6.25849E+04  1.93376E+03 -5.65103E+04 -4.20732E+04
 -1.24930E+04 -6.25334E+04  3.91785E+04 -4.45208E+04  5.74105E+04 -2.12165E+03  3.30810E+04  3.20926E+04
 -6.48582E+03  3.51093E+04 -2.96024E+04  1.52951E+04 -2.92327E+04 -4.80272E+03 -1.60336E+04 -1.05668E+04
 -8.25895E+03 -1.28963E+04 -7.36770E+02 -1.77442E+04  7.26395E+03 -2.26655E+04  1.54303E+04 -1.36079E+04
  1.17886E+04  4.84069E+03 -7.63011E+03  1.29790E+04 -2.03401E+04 -3.72616E+03 -8.26664E+03 -3.27564E+04
  2.21664E+04 -4.22711E+04  4.69352E+04 -1.91919E+04  4.38526E+04  1.90027E+04  1.50747E+04  4.32413E+04
 -1.55594E+04  3.25372E+04 -2.46387E+04  1.54694E+03 -9.33762E+03 -2.72450E+04  2.09241E+04 -3.29071E+04
  3.99964E+04 -8.08272E+03  3.37716E+04  2.34722E+04  1.70796E+04  4.49550E+04 -7.96914E+03  4.79473E+04
 -3.05532E+04  3.22968E+04 -4.04318E+04  8.91549E+03 -4.11944E+04 -1.59382E+04 -2.27336E+04 -3.64268E+04
  7.21191E+03 -3.64415E+04  3.04749E+04 -1.40502E+04  2.80299E+04  1.06723E+04  3.87537E+03  1.86878E+04
 -1.31580E+04  8.15592E+03 -9.93003E+03 -7.55192E+03  5.85001E+03 -1.04212E+04  1.75553E+04  6.14944E+03
  1.28942E+04  2.19339E+04 -6.31875E+03  2.43820E+04 -2.19963E+04  1.01164E+04 -2.68768E+04 -5.57762E+03
 -1.88091E+04 -1.70033E+04 -7.02089E+03 -1.87498E+04  3.76647E+03 -1.75263E+04  1.43345E+04 -1.64501E+04
  2.37187E+04 -1.22260E+04  3.03942E+04  1.84839E+03  2.27265E+04  1.82158E+04  4.16272E+03  3.47511E+04
 -1.69449E+04  2.94764E+04 -2.69081E+04  1.01089E+04 -2.03222E+04 -1.01521E+04 -4.12784E+03 -1.36443E+04
  2.03605E+03 -3.52736E+03 -3.33510E+03  6.05908E+03 -1.46735E+04  5.22724E+03 -1.50319E+04 -6.14306E+03
 -9.44827E+03 -1.72149E+04  4.82499E+03 -2.13995E+04  1.38539E+04 -1.51706E+04  1.60495E+04 -1.59082E+03
  1.04007E+04  1.17939E+04 -1.02765E+03  1.72549E+04 -1.20706E+04  9.81303E+03 -1.70510E+04 -3.71812E+03
 -1.31587E+04 -1.56556E+04 -1.54046E+03 -2.10328E+04  9.22417E+03 -1.69889E+04  1.76266E+04 -8.07676E+03
  1.62472E+04  4.22099E+02  1.14137E+04  3.90523E+03  5.65224E+03  8.78328E+02  8.48939E+03 -1.76549E+03
  1.56159E+04  2.86638E+03  1.71031E+04  1.41715E+04  1.05871E+04  2.72026E+04 -3.00529E+03  2.98599E+04
 -1.74518E+04  2.33840E+04 -2.77889E+04  1.15589E+04 -2.87241E+04 -1.97868E+03 -2.41892E+04 -1.60296E+04
 -1.09811E+04 -2.31583E+04  8.05319E+03 -2.13289E+04  1.85221E+04 -1.16547E+04  1.72930E+04  4.16123E+03
  6.83272E+03  1.24019E+04 -7.84976E+03  1.13130E+04 -1.42022E+04  2.60984E+03 -1.12329E+04 -9.05090E+03
  1.92354E+02 -1.35376E+04  6.61457E+03 -1.00540E+04  8.62840E+03 -1.20565E+03  1.65932E+03  5.68354E+03
 -6.01055E+03  1.70024E+03 -4.51984E+03 -4.74025E+03  8.06682E+01 -1.13505E+04  8.53414E+03 -1.16549E+04
  1.41493E+04 -5.82540E+03  1.41686E+04  3.07227E+03  1.27958E+04  1.08960E+04  6.03233E+03  1.64875E+04
 -2.42146E+03  1.81829E+04 -1.14157E+04  1.15565E+04 -1.30708E+04  3.19759E+03 -9.54200E+03 -2.52029E+03
 -4.93539E+03 -4.04041E+03 -7.93320E+02  1.59872E+03 -1.88252E+03  2.39799E+03 -4.09542E+03  3.59888E+03
 -8.91081E+03 -4.59346E+02 -9.71414E+03 -7.83937E+03 -3.85759E+03 -1.23975E+04  3.80335E+03 -9.69883E+03
  7.99976E+03 -3.83172E+03  5.61939E+03  2.43657E+03  3.98233E+02  3.81919E+03 -3.88551E+03 -7.46171E+01
 -4.05567E+03 -5.56271E+03 -8.62440E+02 -8.20662E+03  4.75550E+03 -8.98556E+03  1.13095E+04 -4.44173E+03
  1.31924E+04  7.11359E+02  9.72559E+03  7.26099E+03  1.97436E+03  1.00996E+04 -5.86174E+03  9.13022E+03
 -7.49297E+03  2.92227E+03 -3.84600E+03 -1.51369E+03  1.43407E+03 -2.01568E+03  5.35219E+03 -1.11857E+03
  4.52060E+03  3.89460E+03  8.12485E+02  7.27639E+03 -5.03810E+03  7.21645E+03 -8.70675E+03  2.03042E+03
 -5.60516E+03 -4.14101E+03  2.29197E+02 -7.53354E+03  4.40509E+03 -3.56724E+03  4.22397E+03  9.50770E+02
  7.94792E+02  4.11667E+03 -4.35200E+03  5.54000E+03 -5.93557E+03  2.72100E+03 -5.37551E+03 -1.74188E+03
 -3.16740E+03 -7.04837E+03  1.35497E+03 -8.38383E+03  6.95312E+03 -5.26618E+03  7.65278E+03  1.32865E+03
  4.87824E+03  6.07946E+03 -1.89252E+02  8.13965E+03 -5.69513E+03  4.74788E+03 -6.23352E+03 -6.59025E+02
 -6.21697E+03 -5.66019E+03 -1.44190E+03 -5.82516E+03  2.84587E+03 -5.16945E+03  3.44226E+03 -2.88644E+03
  3.25658E+03  4.77852E+02 -1.31700E+02  1.20442E+03  3.22676E+02 -5.75951E+02  5.37736E+02 -2.22590E+03
  4.62148E+03 -1.10409E+03  6.24090E+03  6.90773E+02  6.48400E+03  3.67373E+03  5.57916E+03  8.40275E+03
 -1.46945E+03  9.90243E+03 -8.79373E+03  7.21723E+03 -1.12426E+04  1.21466E+03 -8.60986E+03 -3.30922E+03
 -4.64106E+03 -7.22799E+03 -4.33624E+02 -6.05436E+03  2.50563E+03 -2.89672E+03  2.02455E+03 -2.31291E+03
  1.39800E+03 -1.62337E+03  2.30590E+03 -2.46585E+03  3.68434E+03 -1.56535E+03  4.02921E+03  1.02746E+02
  4.88304E+03  1.42554E+03  1.54468E+03  3.95113E+03 -1.69331E+03  3.42387E+03 -4.98093E+03  3.01632E+03
 -5.55167E+03 -1.06522E+03 -2.68009E+03 -3.90655E+03  3.06368E+02 -6.05488E+03  3.67102E+03 -6.15586E+03
  5.93728E+03 -3.58485E+03  7.51691E+03  3.34847E+02  5.42674E+03  4.80047E+03  1.47022E+03  6.59838E+03
 -2.37831E+03  6.65900E+03 -3.82943E+03  2.29385E+03 -2.30946E+03 -1.26194E+03 -5.34226E+02 -5.42032E+02
 -6.90056E+02  2.86668E+02 -9.66662E+02  2.05620E+03 -2.83900E+03  1.15280E+03 -4.47552E+03 -4.61706E+02
 -1.70134E+03 -4.46589E+03  8.03893E+02 -5.19895E+03  3.19721E+03 -5.03501E+03  4.11183E+03 -1.31090E+03
  4.74196E+03  2.54244E+03  2.10444E+03  4.11068E+03 -6.63836E+02  4.58369E+03 -2.83526E+03  3.01975E+03
 -4.30228E+03  4.58150E+02 -3.91685E+03 -2.79639E+03 -3.92565E+02 -3.79788E+03  1.83458E+03 -2.57343E+03
  3.13589E+03 -1.47554E+03  2.06208E+03  6.12813E+02  6.44599E+02  1.87744E+03  8.01717E+02  5.69231E+02
  1.69820E+03  8.23432E+02  1.33332E+03  9.99230E+02  1.28087E+03  2.40992E+03  1.51123E+03  1.98398E+03
 -1.34109E+03  3.40925E+03 -3.19744E+03  4.49343E+03 -3.43155E+03  1.42353E+03 -4.55622E+03 -9.67493E+02
 -1.90159E+03 -4.25926E+03  9.28464E+02 -5.09243E+03  1.97832E+03 -3.15285E+03  3.48564E+03 -9.89153E+02
  2.82527E+03  1.88511E+03  5.76360E+02  2.65497E+03 -1.07781E+03  1.31290E+03 -9.89524E+02 -2.01268E+02
 -5.40959E+02 -1.80067E+03  1.50864E+03 -1.81119E+03  1.50698E+03 -1.05420E+03  1.55285E+03  2.52481E+02
  1.02116E+03  2.41283E+02  6.62989E+02 -2.13123E+02 -2.80093E+02  1.02096E+03  1.39998E+03  7.64590E+01
  1.97863E+02 -3.18899E+02  2.24015E+03  5.40484E+02 -1.00360E+02  2.70488E+03 -6.79011E+02  3.13724E+03
 -1.93669E+03  1.21048E+03 -2.28339E+03  2.56558E+02 -2.37568E+03 -8.64314E+02 -7.53616E+01 -1.23097E+03
  5.13938E+02 -1.34297E+03  1.15790E+03 -1.14688E+03  6.86118E+02  1.42806E+03 -7.51961E+02  1.13293E+03
 -1.67722E+03  6.16556E+02 -1.44864E+03 -1.45448E+03 -9.43833E+02 -2.26748E+03  2.88936E+02 -1.67509E+03
  4.82022E+02 -8.04314E+02  7.11925E+02 -7.99000E+01  1.55622E+03 -1.48971E+02  4.71966E+02  1.29542E+03
 -4.16160E+02  1.09568E+02 -8.62178E+02 -3.24937E+02  7.75099E+02 -1.17852E+03  1.65594E+03 -7.80529E+02
  1.26267E+03  2.36559E+02  2.79975E+03  1.02316E+03  1.22651E+03  1.89808E+03 -6.13070E+02  2.14477E+03
 -1.67803E+03  3.13794E+02 -1.48542E+03 -1.77128E+02 -9.05422E+02 -1.52332E+03 -7.46973E+01 -8.73107E+02
  1.56105E+03 -9.67927E+02  5.07225E+02  6.93857E+02  1.33995E+02  1.55306E+03  8.37734E+01  1.22475E+03
 -3.54607E+02  1.29519E+03 -6.64787E+02  2.21354E+02  1.37541E+02  6.15288E+02 -7.85020E+02  6.93795E+02
 -6.60023E+02  9.17958E+02 -1.59960E+03  4.86530E+02 -2.01675E+03 -3.50611E+01 -2.62634E+03 -1.14066E+03
 -9.98671E+02 -2.30811E+03  5.86398E+02 -3.03507E+03  1.51720E+03 -2.46275E+03  2.75078E+03 -1.00478E+03
  3.03569E+03 -1.69342E+02  1.38223E+03  1.52662E+03 -4.98912E+02  1.54874E+03 -6.15355E+02  1.26772E+03
 -1.27602E+03  7.42380E+02 -3.66662E+02  1.11746E+02 -4.00137E+02  3.24401E+02 -5.41446E+02  1.72061E+02
 -1.08303E+03 -1.97053E+02 -6.15687E+02  9.66582E+01  5.08838E+02 -4.17619E+02 -4.45709E+02 -6.72024E+02
  1.32869E+03 -3.98843E+02  5.74503E+02  2.97744E+02  1.09476E+03  1.08004E+03 -6.07601E+02  1.53713E+03
 -9.32537E+02  2.49252E+03 -1.72134E+03  1.11994E+03 -1.71545E+03 -4.82348E+02 -9.75282E+02 -1.34419E+03
 -1.00195E+03 -1.40217E+03  2.05488E+02 -1.52843E+03  6.58683E+02 -4.34711E+02  7.98776E+02  8.33724E+01
  6.00361E+02  1.48356E+02 -7.61412E+01  2.09141E+02 -2.45102E+02 -1.49835E+02 -1.41166E+02 -3.47316E+02
  5.41270E+02  2.06298E+02  2.22271E+02  6.35203E+02  3.91135E+02  4.48124E+02  3.57087E+02  5.74998E+02
 -6.56556E+02  5.32555E+02 -5.66556E+02  3.44058E+02 -9.01256E+02 -5.18156E+02  2.43539E+02 -8.77315E+02
  5.71725E+02 -8.17748E+02  6.91004E+02 -2.25320E+01  7.59030E+02 -4.06741E+02  3.38872E+02  7.85809E+02
  4.47715E+02  6.23711E+02 -2.44806E+01  6.82747E+02 -4.97998E+02  5.00623E+02 -2.94289E+02  8.57418E+01
 -1.30136E+02 -1.72066E+02 -3.17597E+02  4.81490E+02 -4.05720E+02 -3.99576E+01 -3.92596E+02 -4.08078E+02
 -6.95289E+02  2.48556E+02 -5.41563E+02 -1.00040E+03  9.54137E+02 -1.46180E+03  8.12018E+02 -2.52394E+02
  8.02354E+02  1.02919E+02 -5.49020E+02  3.18289E+02 -3.36861E+02  7.30387E+02 -5.12835E+02  6.24979E+02
