 $NMID ID='MM_0lb_SNR800_17hz_g40_22.RAW', FMTDAT='(8E13.5)'
 TRAMP=1., VOLUME=1. $END
  3.09805E+05  3.50069E+02  3.37310E+05  2.50252E+05  8.44953E+04  3.37442E+05 -1.32382E+05  2.50215E+05
 -1.89493E+05  8.25012E+04 -1.11064E+05 -3.28251E+04  1.57599E+03 -5.03456E+04  5.39333E+04  5.89393E+01
  3.52355E+04  5.29790E+04 -1.70402E+04  7.48606E+04 -6.03180E+04  6.29166E+04 -8.27360E+04  3.14465E+04
 -7.96184E+04 -1.10218E+04 -5.61774E+04 -5.01376E+04 -1.49531E+04 -6.87319E+04  2.67100E+04 -4.44652E+04
  3.93677E+04  4.11288E+03  1.57546E+04  4.70568E+04 -3.40682E+04  4.63184E+04 -6.53915E+04 -3.23261E+02
 -5.20883E+04 -5.59203E+04 -6.22465E+03 -7.50322E+04  3.33271E+04 -5.31182E+04  4.62499E+04 -1.64003E+04
  4.20267E+04  1.10053E+04  3.09413E+04  2.43643E+04  1.59914E+04  2.83838E+04 -5.03114E+03  2.72194E+04
 -2.18050E+04  1.27280E+04 -1.91349E+04 -4.59192E+03  4.52068E+03 -7.74595E+03  2.15309E+04  1.09810E+04
  7.60131E+03  3.32912E+04 -3.06313E+04  3.42718E+04 -6.14740E+04  2.09786E+03 -5.54712E+04 -4.10921E+04
 -1.25196E+04 -6.10363E+04  3.84829E+04 -4.36417E+04  5.55726E+04 -2.13164E+03  3.17809E+04  3.05411E+04
 -6.27635E+03  3.31223E+04 -2.85890E+04  1.34943E+04 -2.77507E+04 -5.33357E+03 -1.45985E+04 -1.01002E+04
 -7.32045E+03 -1.16591E+04 -7.92880E+02 -1.66927E+04  6.76866E+03 -2.27387E+04  1.51025E+04 -1.39256E+04
  1.19252E+04  4.43151E+03 -6.27021E+03  1.30702E+04 -1.95717E+04 -2.55198E+03 -8.13025E+03 -3.06109E+04
  2.11903E+04 -4.10607E+04  4.52792E+04 -1.88218E+04  4.24933E+04  1.82216E+04  1.41671E+04  4.20167E+04
 -1.54076E+04  3.14211E+04 -2.37889E+04  1.25729E+03 -8.40729E+03 -2.63255E+04  2.04750E+04 -3.15377E+04
  3.82698E+04 -7.72125E+03  3.16733E+04  2.29733E+04  1.57673E+04  4.30255E+04 -7.80591E+03  4.56724E+04
 -2.88669E+04  3.04837E+04 -3.80784E+04  8.32202E+03 -3.88931E+04 -1.49820E+04 -2.15047E+04 -3.49030E+04
  6.89734E+03 -3.46993E+04  2.96396E+04 -1.30649E+04  2.72502E+04  1.08054E+04  2.98963E+03  1.81681E+04
 -1.30716E+04  7.59390E+03 -9.80230E+03 -7.39826E+03  6.18732E+03 -1.02783E+04  1.76840E+04  6.31271E+03
  1.24127E+04  2.20178E+04 -6.59218E+03  2.36799E+04 -2.14375E+04  9.37734E+03 -2.56016E+04 -6.06473E+03
 -1.72550E+04 -1.63341E+04 -6.11220E+03 -1.70610E+04  4.03109E+03 -1.53162E+04  1.28932E+04 -1.46569E+04
  2.18782E+04 -1.19814E+04  2.86370E+04  1.37585E+03  2.15082E+04  1.68913E+04  3.79004E+03  3.27377E+04
 -1.63673E+04  2.78595E+04 -2.61355E+04  9.64563E+03 -1.94908E+04 -1.04263E+04 -3.94586E+03 -1.36622E+04
  2.00448E+03 -3.88886E+03 -2.76888E+03  5.75845E+03 -1.35643E+04  5.38479E+03 -1.36994E+04 -5.01401E+03
 -8.75611E+03 -1.59209E+04  4.71222E+03 -1.98506E+04  1.28261E+04 -1.43359E+04  1.49806E+04 -1.64353E+03
  9.42296E+03  1.12780E+04 -9.77191E+02  1.60102E+04 -1.07342E+04  9.15563E+03 -1.58996E+04 -3.41789E+03
 -1.20071E+04 -1.46417E+04 -1.56065E+03 -1.94840E+04  8.85961E+03 -1.59704E+04  1.67434E+04 -7.69796E+03
  1.47792E+04  6.17345E+02  1.08999E+04  3.87078E+03  5.18765E+03  5.61442E+02  7.85283E+03 -1.41440E+03
  1.44325E+04  2.71037E+03  1.54630E+04  1.31861E+04  9.82489E+03  2.57312E+04 -2.86893E+03  2.78376E+04
 -1.63599E+04  2.15110E+04 -2.54648E+04  1.03537E+04 -2.61405E+04 -2.05982E+03 -2.22847E+04 -1.51647E+04
 -1.04034E+04 -2.14171E+04  7.31936E+03 -1.99076E+04  1.74766E+04 -1.12101E+04  1.63300E+04  3.69745E+03
  6.52533E+03  1.13078E+04 -7.41748E+03  1.09609E+04 -1.36647E+04  2.61312E+03 -1.10378E+04 -8.28816E+03
  2.84589E+01 -1.31057E+04  6.39853E+03 -9.65001E+03  8.29645E+03 -1.29295E+03  1.64601E+03  5.31111E+03
 -5.84325E+03  1.38801E+03 -4.01562E+03 -4.72030E+03  4.29143E+02 -1.07762E+04  8.30505E+03 -1.07564E+04
  1.27874E+04 -5.01508E+03  1.26527E+04  2.83127E+03  1.10213E+04  9.93988E+03  5.43387E+03  1.51693E+04
 -1.87021E+03  1.71081E+04 -1.04834E+04  1.05509E+04 -1.20108E+04  3.19438E+03 -8.82468E+03 -1.99554E+03
 -4.71476E+03 -3.69875E+03 -7.97308E+02  1.39916E+03 -2.24903E+03  2.18550E+03 -3.86012E+03  3.79619E+03
 -8.57420E+03 -3.97985E+02 -9.12071E+03 -7.56412E+03 -3.60015E+03 -1.18861E+04  3.96551E+03 -8.93832E+03
  7.62696E+03 -4.14034E+03  5.83186E+03  2.25942E+03  7.51423E+02  3.27851E+03 -3.73053E+03 -6.73134E+01
 -3.75346E+03 -5.61253E+03 -8.07250E+02 -7.76759E+03  4.49177E+03 -8.28722E+03  1.04017E+04 -4.39304E+03
  1.26176E+04  6.84991E+02  9.27323E+03  6.75445E+03  1.97949E+03  9.33557E+03 -5.43030E+03  8.77013E+03
 -7.53716E+03  2.57374E+03 -3.53041E+03 -1.18466E+03  1.57905E+03 -2.33975E+03  5.14865E+03 -1.22258E+03
  4.79515E+03  3.67093E+03  1.20159E+03  6.41641E+03 -4.85223E+03  6.93704E+03 -8.52558E+03  1.88369E+03
 -5.32158E+03 -4.08928E+03  3.10424E+02 -7.32297E+03  4.09761E+03 -3.68964E+03  3.78465E+03  1.37628E+03
  8.52848E+02  3.80325E+03 -4.10022E+03  5.09182E+03 -5.55709E+03  2.46127E+03 -5.51343E+03 -1.21495E+03
 -3.29356E+03 -6.75256E+03  1.18865E+03 -7.76950E+03  6.65798E+03 -5.08528E+03  7.33234E+03  1.10743E+03
  5.09448E+03  6.13758E+03 -9.47519E+00  7.87875E+03 -5.72026E+03  4.65626E+03 -5.95044E+03 -6.06269E+02
 -5.94162E+03 -5.31984E+03 -1.15620E+03 -5.59560E+03  2.86363E+03 -5.10282E+03  3.30100E+03 -3.04543E+03
  3.20976E+03  3.02149E+02 -4.04414E+00  1.22079E+03  6.69721E+02 -7.40228E+02  2.84554E+02 -2.44968E+03
  4.60145E+03 -7.32283E+02  5.94517E+03  8.53107E+02  6.22227E+03  3.36073E+03  5.33703E+03  8.53439E+03
 -1.67711E+03  9.95263E+03 -8.55790E+03  7.26573E+03 -1.10729E+04  1.51949E+03 -8.60368E+03 -3.22641E+03
 -4.74632E+03 -7.26555E+03 -5.63435E+02 -5.94111E+03  2.26597E+03 -2.63615E+03  1.68328E+03 -2.23119E+03
  1.71676E+03 -1.52488E+03  2.33291E+03 -2.44042E+03  3.53411E+03 -1.42990E+03  3.91344E+03  1.89604E+02
  4.88895E+03  1.37689E+03  1.54546E+03  3.86454E+03 -1.72608E+03  3.34584E+03 -4.92281E+03  3.14217E+03
 -5.81737E+03 -1.09882E+03 -2.24434E+03 -3.71140E+03 -3.33312E+01 -5.82029E+03  3.52216E+03 -6.03731E+03
  5.96398E+03 -3.57958E+03  7.72815E+03  4.36153E+02  5.36169E+03  4.93799E+03  1.30791E+03  6.95715E+03
 -2.64680E+03  6.47998E+03 -3.82072E+03  2.28512E+03 -2.58609E+03 -9.79028E+02 -7.15610E+02 -5.24570E+02
 -7.15594E+02 -4.42763E+00 -1.22939E+03  2.15888E+03 -2.94133E+03  1.00202E+03 -4.59887E+03 -5.33965E+02
 -2.06032E+03 -4.42374E+03  6.14040E+02 -5.22393E+03  3.26631E+03 -4.84433E+03  4.66000E+03 -1.25510E+03
  4.79475E+03  2.56011E+03  2.05360E+03  3.76157E+03 -1.15297E+03  5.23253E+03 -2.95158E+03  3.05490E+03
 -4.46335E+03  6.45524E+02 -3.81268E+03 -2.59172E+03 -2.00260E+02 -3.60961E+03  1.75958E+03 -2.88027E+03
  3.15219E+03 -1.39624E+03  1.78111E+03  3.62268E+02  6.65043E+02  1.79997E+03  7.10933E+02  5.86710E+02
  1.69833E+03  5.85464E+02  1.35623E+03  9.63981E+02  1.10664E+03  2.47020E+03  1.45616E+03  1.93224E+03
 -1.29929E+03  3.82196E+03 -3.03683E+03  4.38677E+03 -3.97872E+03  1.34870E+03 -4.90447E+03 -1.02350E+03
 -2.23131E+03 -4.67446E+03  5.71383E+02 -5.64982E+03  1.98948E+03 -3.11507E+03  3.82800E+03 -1.33685E+03
  3.20687E+03  2.31534E+03  5.31422E+02  2.68278E+03 -8.55647E+02  1.59545E+03 -1.26015E+03  1.30986E+01
 -7.10697E+02 -2.01011E+03  1.38115E+03 -1.75080E+03  1.72817E+03 -1.22558E+03  1.86515E+03  5.62009E+02
  9.05926E+02  5.75581E+02  5.20706E+02  1.40000E+01 -3.30416E+02  8.36608E+02  1.60159E+03 -2.52759E+02
  1.87962E+02 -8.54572E+01  2.12045E+03  7.39341E+02  2.56771E+02  2.59248E+03 -2.71233E+02  3.45575E+03
 -1.98571E+03  1.17250E+03 -2.43987E+03  4.66850E+02 -2.79447E+03 -1.15327E+03 -3.79497E+02 -1.25419E+03
  6.19636E+02 -1.44277E+03  1.33430E+03 -7.93054E+02  5.54870E+02  1.50116E+03 -7.49124E+02  1.42228E+03
 -1.95046E+03  9.58657E+02 -1.81802E+03 -1.52837E+03 -1.17614E+03 -2.53673E+03  4.03389E+02 -2.01538E+03
  7.77333E+02 -7.75069E+02  1.05765E+03  2.65032E+02  1.72036E+03  2.47846E+02  2.08413E+02  1.60822E+03
 -4.94050E+02  4.78075E+02 -9.03598E+02 -4.68075E+02  6.45524E+02 -1.14983E+03  2.23882E+03 -1.11736E+03
  1.90380E+03  3.50130E+02  3.25288E+03  1.04702E+03  1.31205E+03  2.15629E+03 -2.71609E+02  2.41076E+03
 -1.43244E+03  4.71634E+02 -2.11422E+03 -3.06310E+02 -1.04799E+03 -1.69133E+03  5.94949E+02 -8.80724E+02
  1.68839E+03 -5.28766E+02  1.18747E+03  9.63927E+02  7.56319E+02  1.73945E+03  1.88216E+02  1.53855E+03
 -6.66177E+02  1.33516E+03 -6.65137E+02  3.37961E+02  4.47283E+01  4.21027E+02 -1.03489E+03  5.28047E+02
 -6.52573E+02  1.18777E+03 -2.21484E+03  5.91220E+02 -2.28085E+03  1.42689E+02 -2.65836E+03 -1.13614E+03
 -1.42387E+03 -2.92917E+03  8.33794E+02 -3.84838E+03  1.62759E+03 -2.89498E+03  3.74722E+03 -1.14867E+03
  3.26914E+03  4.73389E+01  1.67570E+03  2.25633E+03 -4.46274E+02  2.04314E+03 -1.07022E+03  1.69482E+03
 -1.46024E+03  9.45551E+02 -6.72699E+02 -3.77532E+02 -7.67205E+02  3.68919E+02 -7.02452E+02 -9.91914E+01
 -9.37962E+02  6.06585E-01 -9.24457E+02  1.59194E+02  2.19407E+02 -6.61595E+02 -2.72843E+02 -1.01450E+03
  1.41914E+03 -7.83121E+02  8.45452E+02  4.94305E+01  1.77134E+03  1.24183E+03 -1.41416E+02  2.08009E+03
 -1.46367E+03  3.08213E+03 -2.44583E+03  1.73894E+03 -2.22873E+03 -4.04409E+02 -1.77830E+03 -1.69247E+03
 -1.28750E+03 -2.02524E+03  3.56149E+02 -1.43897E+03  1.31868E+03 -7.52108E+02  1.12162E+03  2.07198E+02
  1.02323E+03  5.52798E+02  1.85168E+02  2.45958E+02 -4.95201E+02 -1.81614E+02  8.67920E+01 -3.59273E+02
  3.77413E+02  3.83380E+02  8.09149E+02  3.28024E+02 -2.76922E+01  8.84390E+02  8.70110E+02  7.34364E+02
 -1.10370E+03  7.92915E+02 -1.05708E+03  3.89770E+02 -9.26928E+02 -7.81498E+02  3.98153E+01 -1.47215E+03
  6.37955E+02 -1.05584E+03  1.07058E+03 -4.64058E+01  1.25745E+03 -7.32611E+02  7.31868E+02  1.14044E+03
  4.63164E+02  9.81428E+02 -3.89583E+02  9.15696E+02 -9.08094E+02  5.28876E+02 -8.25827E+02  1.09080E+02
 -1.87619E+01  3.28877E+01 -4.66320E+02  1.22772E+02 -8.45113E+02  9.40713E+01 -1.22241E+03 -1.93052E+02
 -1.21846E+03  9.11382E+01 -5.18883E+02 -1.37328E+03  9.48127E+02 -1.91676E+03  9.72070E+02 -6.03095E+02
  9.14073E+02  3.45309E+01 -3.44817E+02  7.10434E+02 -2.84484E+02  1.14171E+03 -4.74470E+02  1.02800E+03
