 $NMID ID='MM_0lb_SNR800_19hz_g60_22.RAW', FMTDAT='(8E13.5)'
 TRAMP=1., VOLUME=1. $END
  3.09939E+05  4.82374E+02  3.37682E+05  2.50434E+05  8.46237E+04  3.37945E+05 -1.32231E+05  2.50625E+05
 -1.90162E+05  8.29169E+04 -1.11326E+05 -3.27244E+04  1.16398E+03 -5.03797E+04  5.37658E+04 -1.65524E+02
  3.53849E+04  5.27974E+04 -1.68123E+04  7.52427E+04 -6.07311E+04  6.31491E+04 -8.36445E+04  3.19353E+04
 -8.05833E+04 -1.14729E+04 -5.68252E+04 -5.08454E+04 -1.48644E+04 -6.89549E+04  2.70954E+04 -4.52027E+04
  3.97653E+04  3.83842E+03  1.58874E+04  4.74077E+04 -3.40057E+04  4.69017E+04 -6.61621E+04 -1.66262E+02
 -5.27547E+04 -5.64300E+04 -6.80458E+03 -7.62630E+04  3.33770E+04 -5.40908E+04  4.72765E+04 -1.70292E+04
  4.27329E+04  1.11004E+04  3.14109E+04  2.50498E+04  1.61067E+04  2.90088E+04 -4.99124E+03  2.69512E+04
 -2.19445E+04  1.26036E+04 -1.88771E+04 -4.54031E+03  5.15231E+03 -7.43580E+03  2.16994E+04  1.15815E+04
  7.09704E+03  3.43152E+04 -3.13961E+04  3.44866E+04 -6.20835E+04  2.31367E+03 -5.60404E+04 -4.18898E+04
 -1.25491E+04 -6.20354E+04  3.88127E+04 -4.44977E+04  5.70069E+04 -2.10152E+03  3.29718E+04  3.15230E+04
 -6.27128E+03  3.44014E+04 -2.89125E+04  1.44941E+04 -2.89961E+04 -5.17005E+03 -1.55533E+04 -1.06057E+04
 -7.79463E+03 -1.22126E+04 -1.19512E+03 -1.75182E+04  7.22198E+03 -2.29455E+04  1.51687E+04 -1.35318E+04
  1.19012E+04  4.61860E+03 -7.01280E+03  1.30189E+04 -2.00755E+04 -3.22535E+03 -8.08192E+03 -3.19324E+04
  2.14127E+04 -4.17234E+04  4.61853E+04 -1.91750E+04  4.33542E+04  1.86948E+04  1.45966E+04  4.27932E+04
 -1.53252E+04  3.21635E+04 -2.43208E+04  1.34838E+03 -9.07749E+03 -2.69339E+04  2.06858E+04 -3.25060E+04
  3.93765E+04 -7.77178E+03  3.32235E+04  2.30058E+04  1.63206E+04  4.42339E+04 -7.80957E+03  4.72763E+04
 -2.97945E+04  3.12551E+04 -3.94351E+04  8.84441E+03 -4.01674E+04 -1.58273E+04 -2.23422E+04 -3.60182E+04
  7.18315E+03 -3.52781E+04  3.00280E+04 -1.33434E+04  2.75149E+04  1.08674E+04  3.10150E+03  1.81875E+04
 -1.34346E+04  7.92342E+03 -1.00628E+04 -7.88533E+03  5.97735E+03 -1.04077E+04  1.72966E+04  6.25472E+03
  1.25800E+04  2.14465E+04 -6.31958E+03  2.38912E+04 -2.15498E+04  9.95508E+03 -2.61196E+04 -5.80563E+03
 -1.79555E+04 -1.66529E+04 -6.70295E+03 -1.80858E+04  3.80971E+03 -1.66170E+04  1.36233E+04 -1.53855E+04
  2.30917E+04 -1.19622E+04  2.97630E+04  1.68082E+03  2.19732E+04  1.74474E+04  3.97707E+03  3.35869E+04
 -1.66130E+04  2.82664E+04 -2.67266E+04  9.71407E+03 -1.99659E+04 -1.03960E+04 -4.18636E+03 -1.38538E+04
  2.50478E+03 -3.61264E+03 -3.37549E+03  5.55143E+03 -1.41548E+04  5.30854E+03 -1.40618E+04 -5.69848E+03
 -9.04295E+03 -1.63181E+04  4.37320E+03 -2.02097E+04  1.33768E+04 -1.47052E+04  1.57797E+04 -1.80076E+03
  9.72459E+03  1.15064E+04 -1.05156E+03  1.67022E+04 -1.09713E+04  9.26835E+03 -1.60090E+04 -3.70030E+03
 -1.22206E+04 -1.50176E+04 -1.50763E+03 -2.00749E+04  9.31996E+03 -1.65608E+04  1.69405E+04 -7.73411E+03
  1.55037E+04  6.23524E+02  1.10798E+04  3.78622E+03  5.62626E+03  3.30149E+02  8.27827E+03 -1.32400E+03
  1.46713E+04  2.58033E+03  1.58686E+04  1.31735E+04  9.92143E+03  2.61814E+04 -2.94083E+03  2.83399E+04
 -1.66352E+04  2.16070E+04 -2.62974E+04  1.05808E+04 -2.70709E+04 -2.14325E+03 -2.29704E+04 -1.53628E+04
 -1.07486E+04 -2.20936E+04  7.48594E+03 -2.06961E+04  1.76232E+04 -1.13785E+04  1.62759E+04  4.14359E+03
  6.84569E+03  1.17692E+04 -7.32999E+03  1.07701E+04 -1.37621E+04  2.62963E+03 -1.08154E+04 -8.27864E+03
 -2.29550E+02 -1.31357E+04  6.45956E+03 -9.81901E+03  8.42392E+03 -1.28031E+03  1.44557E+03  5.31866E+03
 -5.76401E+03  1.77566E+03 -3.97505E+03 -4.71317E+03  4.59540E+02 -1.10593E+04  8.24732E+03 -1.07351E+04
  1.32574E+04 -5.10884E+03  1.31775E+04  3.30180E+03  1.11300E+04  1.00664E+04  5.52329E+03  1.50946E+04
 -2.35986E+03  1.70837E+04 -1.02291E+04  1.06486E+04 -1.19599E+04  2.76826E+03 -8.75954E+03 -2.13852E+03
 -4.87867E+03 -3.39917E+03 -7.25529E+02  1.54285E+03 -1.92165E+03  1.81584E+03 -3.88732E+03  3.70057E+03
 -8.66045E+03 -5.81325E+02 -8.94346E+03 -7.43540E+03 -3.78853E+03 -1.19316E+04  3.79739E+03 -8.85133E+03
  7.49643E+03 -3.74658E+03  5.66384E+03  2.16952E+03  3.66528E+02  3.23325E+03 -3.86743E+03 -1.97900E+02
 -3.77753E+03 -5.33564E+03 -8.59986E+02 -7.54067E+03  4.17077E+03 -8.49382E+03  1.06557E+04 -4.17637E+03
  1.24430E+04  7.17081E+02  8.86381E+03  6.65207E+03  1.69809E+03  9.28194E+03 -5.34435E+03  8.44974E+03
 -7.43407E+03  2.93527E+03 -3.72513E+03 -9.58807E+02  1.39376E+03 -1.65844E+03  5.00409E+03 -9.97058E+02
  4.44229E+03  3.37183E+03  1.27211E+03  6.47551E+03 -4.42542E+03  6.72372E+03 -8.13680E+03  1.57633E+03
 -5.45678E+03 -4.03015E+03  5.16178E+02 -7.24862E+03  3.79563E+03 -3.59328E+03  3.71891E+03  7.58720E+02
  4.96099E+02  3.61532E+03 -3.98674E+03  4.97282E+03 -4.88055E+03  2.56571E+03 -4.85189E+03 -1.18813E+03
 -3.12634E+03 -6.08248E+03  1.25976E+03 -7.20162E+03  6.50762E+03 -4.87830E+03  6.68889E+03  1.12314E+03
  5.05862E+03  5.51136E+03  2.90548E+02  7.08683E+03 -5.14445E+03  4.57550E+03 -5.19900E+03 -6.83813E+02
 -5.91936E+03 -5.24483E+03 -1.19142E+03 -5.07806E+03  2.73886E+03 -4.73983E+03  3.15864E+03 -2.91194E+03
  2.45848E+03  4.09688E+01 -7.28176E+01  1.34035E+03  4.04259E+02 -5.71555E+01  2.86060E+02 -1.82504E+03
  3.60369E+03 -9.34593E+02  5.41440E+03  6.72990E+02  5.88262E+03  3.37436E+03  5.42424E+03  7.28388E+03
 -1.36128E+03  8.66640E+03 -7.82825E+03  6.41443E+03 -1.03920E+04  1.03454E+03 -8.05728E+03 -2.61072E+03
 -4.40564E+03 -6.26786E+03 -2.99347E+02 -5.17791E+03  2.00607E+03 -2.19478E+03  2.01305E+03 -2.29145E+03
  1.50293E+03 -1.24303E+03  2.16514E+03 -2.34055E+03  3.50911E+03 -1.40531E+03  3.74281E+03  3.98266E+02
  4.68681E+03  1.20579E+03  1.43125E+03  3.52526E+03 -1.60419E+03  2.69765E+03 -4.60131E+03  2.63335E+03
 -5.12777E+03 -1.32536E+03 -1.81795E+03 -3.28251E+03  5.10194E+02 -4.99051E+03  3.05120E+03 -5.14756E+03
  5.03487E+03 -3.30460E+03  6.74333E+03  6.11242E+01  4.92950E+03  4.27120E+03  1.02844E+03  6.07060E+03
 -1.89108E+03  5.62890E+03 -3.17039E+03  1.66508E+03 -1.88483E+03 -1.07080E+03 -5.72443E+02 -6.86692E+02
 -6.59485E+02  6.70423E+02 -8.19156E+02  2.05761E+03 -2.52966E+03  1.25112E+03 -4.01806E+03 -3.63904E+02
 -1.44275E+03 -3.96162E+03  7.14188E+02 -4.60550E+03  2.59334E+03 -4.39753E+03  3.46230E+03 -9.26064E+02
  3.93882E+03  2.09039E+03  1.72363E+03  3.15470E+03 -6.27266E+02  4.58199E+03 -2.63984E+03  2.58363E+03
 -3.80316E+03  6.49070E+02 -3.03988E+03 -2.32161E+03 -3.26860E+02 -3.13738E+03  1.41116E+03 -2.19735E+03
  2.75824E+03 -1.19801E+03  1.56767E+03  6.14477E+02  5.31073E+02  1.45360E+03  7.58704E+02  6.49372E+02
  1.60302E+03  4.49915E+02  1.10254E+03  7.38412E+02  1.05854E+03  2.32123E+03  1.23443E+03  1.54866E+03
 -1.15576E+03  2.96714E+03 -2.46443E+03  3.98855E+03 -2.92166E+03  1.15835E+03 -4.12063E+03 -4.42608E+02
 -1.58245E+03 -3.86074E+03  9.83998E+02 -4.34955E+03  1.73402E+03 -2.53693E+03  2.99371E+03 -1.03420E+03
  2.32255E+03  1.67321E+03  4.12824E+02  2.09914E+03 -4.49890E+02  1.18164E+03 -1.04010E+03 -1.84768E+02
 -5.49700E+02 -1.42973E+03  1.15960E+03 -1.58080E+03  1.25622E+03 -1.13880E+03  1.07847E+03  5.86273E+02
  1.06550E+03  3.53249E+02  8.77593E+02 -2.87441E+02 -2.89790E+02  8.96669E+02  1.61058E+03 -2.02653E+02
 -1.83193E+02 -3.64693E+01  1.64287E+03  5.55596E+02  3.93148E+01  2.00171E+03 -3.70532E+02  2.93081E+03
 -1.82843E+03  9.97964E+02 -1.79627E+03  6.85756E+02 -2.11059E+03 -6.50249E+02 -1.75501E+02 -8.28414E+02
  4.19856E+02 -1.19924E+03  1.02697E+03 -5.52091E+02  7.56052E+02  1.36565E+03 -7.32769E+02  9.54009E+02
 -1.24064E+03  6.53994E+02 -9.03779E+02 -1.24800E+03 -8.77410E+02 -1.80875E+03  1.71632E+02 -1.38554E+03
  8.00265E+01 -1.74675E+02  5.80885E+02  2.47563E+02  1.41981E+03 -9.59086E+01  3.64426E+02  9.40904E+02
 -3.77201E+02  1.51739E+02 -7.50543E+02 -1.00062E+02  7.47023E+02 -8.34145E+02  1.77552E+03 -6.62314E+02
  1.21812E+03  1.95890E+02  2.58355E+03  5.74826E+02  9.97832E+02  1.48314E+03 -2.68292E+02  1.62269E+03
 -1.11462E+03  1.16274E+02 -1.30167E+03 -1.62930E+02 -7.11972E+02 -1.50394E+03  3.59773E+02 -4.19819E+02
  1.27935E+03 -6.74881E+02  8.74212E+02  5.12481E+02  1.19415E+02  1.15241E+03  3.20933E+02  6.97124E+02
 -4.24952E+02  1.02394E+03 -4.71149E+02  9.11978E+01  1.08761E+02  3.86891E+02 -6.34852E+02  5.74796E+02
 -7.20701E+02  1.04328E+03 -1.68324E+03  4.23527E+02 -1.43528E+03  3.60038E+02 -1.88450E+03 -6.63318E+02
 -8.68424E+02 -1.85794E+03  3.58003E+02 -2.42594E+03  5.52167E+02 -2.27303E+03  2.61996E+03 -1.08531E+03
  2.03603E+03 -4.47308E+01  9.72387E+02  1.45179E+03 -4.68099E+02  1.00529E+03 -4.49584E+02  8.71429E+02
 -8.27637E+02  6.91430E+02 -6.51613E+02 -2.10065E+02 -4.92100E+02  4.75412E+02 -5.72163E+02 -6.43617E+01
 -1.17406E+03 -3.61507E+02 -8.44907E+02  1.32585E+02  4.13723E+02 -5.79581E+02 -4.05546E+02 -6.99446E+02
  1.12105E+03 -4.16272E+02  2.52942E+02  4.00306E+02  7.74632E+02  1.10451E+03 -5.52854E+02  7.81943E+02
 -8.12665E+02  2.09332E+03 -1.57179E+03  1.26707E+03 -1.47379E+03 -2.90847E+02 -7.64082E+02 -9.49561E+02
 -9.26657E+02 -1.20941E+03  3.10333E+02 -9.91292E+02  3.46920E+02 -4.05180E+02  3.32660E+02  3.08372E+02
  4.28847E+02  2.97500E+02  1.05990E+02  2.90321E+02 -2.43513E+02 -2.33928E+02 -2.21662E+02 -2.06510E+01
  5.31585E+02  1.80490E+02  1.45630E+02  5.74461E+02  1.02330E+02  4.67697E+02  4.88633E+02  3.09169E+02
 -2.88683E+02  4.17158E+02 -3.82223E+02 -3.75008E+01 -4.58518E+02 -3.75541E+02  2.13347E+02 -8.36828E+02
  3.59101E+02 -3.56962E+02  1.35496E+02  1.16091E+01  7.66137E+02 -7.63786E+02  4.52947E+02  9.01030E+02
  4.56404E+02  1.41032E+02 -3.42871E+01  5.16151E+02 -2.96956E+02  6.03444E+02 -4.07321E+02 -4.95402E+01
 -6.59698E+01 -2.36660E+02 -4.25030E+02  1.18660E+02 -3.76563E+02  1.71571E+02 -7.59396E+02 -4.36138E+02
 -7.36617E+02  3.52847E+02 -3.86156E+02 -9.40123E+02  5.31223E+02 -1.07525E+03  5.17232E+02 -3.40799E+02
  8.82182E+02  2.43658E+02 -4.57749E+02  2.43519E+02 -6.92378E+01  6.81351E+02 -5.46141E+02  4.10741E+02
