 $NMID ID='MM_0lb_SNR800_12hz_g40_37.RAW', FMTDAT='(8E13.5)'
 TRAMP=1., VOLUME=1. $END
  3.09362E+05  1.98915E+02  3.37667E+05  2.50585E+05  8.44752E+04  3.37892E+05 -1.32452E+05  2.50909E+05
 -1.90383E+05  8.34763E+04 -1.12166E+05 -3.23714E+04  5.13027E+02 -5.05592E+04  5.38085E+04 -3.26889E+01
  3.51209E+04  5.27690E+04 -1.65200E+04  7.56127E+04 -6.05125E+04  6.34428E+04 -8.45009E+04  3.19107E+04
 -8.11433E+04 -1.15962E+04 -5.73342E+04 -5.16259E+04 -1.49844E+04 -6.96581E+04  2.79417E+04 -4.55361E+04
  4.01636E+04  3.95519E+03  1.62618E+04  4.79754E+04 -3.44715E+04  4.75244E+04 -6.72167E+04 -3.35070E+02
 -5.38215E+04 -5.69340E+04 -6.98421E+03 -7.72849E+04  3.40111E+04 -5.52377E+04  4.80855E+04 -1.74131E+04
  4.34938E+04  1.12538E+04  3.21983E+04  2.55897E+04  1.57601E+04  2.98669E+04 -5.38984E+03  2.72779E+04
 -2.24659E+04  1.21110E+04 -1.86819E+04 -5.05538E+03  5.84307E+03 -7.45820E+03  2.24190E+04  1.25094E+04
  7.31199E+03  3.58096E+04 -3.23538E+04  3.54199E+04 -6.38020E+04  2.13507E+03 -5.72275E+04 -4.31464E+04
 -1.28882E+04 -6.35040E+04  4.00698E+04 -4.54755E+04  5.87065E+04 -2.30107E+03  3.45185E+04  3.30905E+04
 -6.13523E+03  3.67003E+04 -3.05297E+04  1.65452E+04 -3.10502E+04 -4.30743E+03 -1.74538E+04 -1.08748E+04
 -8.79988E+03 -1.33265E+04 -4.21294E+02 -1.80027E+04  7.80677E+03 -2.30346E+04  1.50284E+04 -1.29453E+04
  1.09855E+04  5.04459E+03 -8.10363E+03  1.27132E+04 -2.19439E+04 -4.95896E+03 -8.48858E+03 -3.46063E+04
  2.33513E+04 -4.43173E+04  4.88466E+04 -1.97302E+04  4.56668E+04  1.99058E+04  1.56602E+04  4.45907E+04
 -1.60057E+04  3.38400E+04 -2.54941E+04  1.65396E+03 -1.04219E+04 -2.78944E+04  2.09768E+04 -3.42361E+04
  4.19576E+04 -9.47555E+03  3.67920E+04  2.38618E+04  1.87373E+04  4.70883E+04 -8.28655E+03  5.13697E+04
 -3.21238E+04  3.44301E+04 -4.30496E+04  9.74806E+03 -4.32735E+04 -1.70921E+04 -2.38838E+04 -3.87021E+04
  7.32109E+03 -3.85085E+04  3.20262E+04 -1.50131E+04  2.96805E+04  1.09137E+04  4.47723E+03  1.93216E+04
 -1.36080E+04  8.67848E+03 -1.07409E+04 -7.51930E+03  5.86202E+03 -1.12214E+04  1.82241E+04  5.99853E+03
  1.38655E+04  2.20823E+04 -5.90030E+03  2.57100E+04 -2.25834E+04  1.20817E+04 -2.88440E+04 -4.38145E+03
 -2.17415E+04 -1.76893E+04 -8.85181E+03 -2.17877E+04  4.00638E+03 -2.07621E+04  1.63859E+04 -1.92678E+04
  2.73768E+04 -1.30052E+04  3.38427E+04  3.33781E+03  2.42642E+04  2.09119E+04  4.32601E+03  3.73350E+04
 -1.80924E+04  3.09831E+04 -2.82150E+04  1.04887E+04 -2.13256E+04 -1.04492E+04 -4.19373E+03 -1.35347E+04
  1.45043E+03 -2.60437E+03 -5.40588E+03  7.22548E+03 -1.69540E+04  5.19880E+03 -1.72613E+04 -7.28813E+03
 -1.03085E+04 -1.97273E+04  5.53937E+03 -2.42692E+04  1.60724E+04 -1.72966E+04  1.91221E+04 -1.56452E+03
  1.19859E+04  1.37922E+04 -8.53094E+02  1.99114E+04 -1.36777E+04  1.10874E+04 -2.01025E+04 -4.59001E+03
 -1.44409E+04 -1.81193E+04 -1.82614E+03 -2.41554E+04  1.07867E+04 -1.98074E+04  2.01559E+04 -9.80365E+03
  1.83744E+04 -1.48684E+02  1.37659E+04  4.57148E+03  7.04661E+03  8.75900E+02  1.02861E+04 -1.86556E+03
  1.83932E+04  2.59366E+03  2.06403E+04  1.59415E+04  1.36169E+04  3.18818E+04 -2.44191E+03  3.63390E+04
 -2.07276E+04  2.95854E+04 -3.42773E+04  1.47972E+04 -3.57873E+04 -2.38721E+03 -2.98028E+04 -2.06207E+04
 -1.25621E+04 -2.96359E+04  1.03209E+04 -2.64118E+04  2.31731E+04 -1.32529E+04  2.05706E+04  6.00651E+03
  7.55170E+03  1.52645E+04 -9.33281E+03  1.32185E+04 -1.68414E+04  2.68058E+03 -1.30605E+04 -1.07900E+04
 -2.35360E+02 -1.61408E+04  8.48427E+03 -1.21772E+04  1.09397E+04 -1.07200E+03  2.59490E+03  7.19454E+03
 -7.31944E+03  2.80694E+03 -6.90499E+03 -5.92377E+03 -4.48172E+02 -1.44600E+04  9.98687E+03 -1.51267E+04
  1.80659E+04 -8.27428E+03  1.98083E+04  2.97758E+03  1.72080E+04  1.42032E+04  8.01317E+03  2.23173E+04
 -3.72368E+03  2.42556E+04 -1.52206E+04  1.48944E+04 -1.73854E+04  3.56998E+03 -1.23238E+04 -3.69623E+03
 -5.59192E+03 -5.17315E+03 -7.77747E+02  1.13735E+03 -2.46585E+03  2.88005E+03 -5.71951E+03  4.55438E+03
 -1.15377E+04 -1.03192E+03 -1.19818E+04 -9.48257E+03 -4.60363E+03 -1.58331E+04  5.33375E+03 -1.24951E+04
  1.01662E+04 -5.56617E+03  7.14029E+03  3.61548E+03  3.56163E+02  4.79918E+03 -5.37793E+03 -4.71192E+01
 -5.51245E+03 -7.80353E+03 -7.93831E+02 -1.15467E+04  6.45229E+03 -1.26167E+04  1.53135E+04 -6.66812E+03
  1.80180E+04  1.20401E+03  1.32636E+04  1.08372E+04  2.52105E+03  1.45059E+04 -7.60795E+03  1.22486E+04
 -1.00322E+04  3.44972E+03 -5.01519E+03 -2.56729E+03  1.64807E+03 -3.23660E+03  6.66545E+03 -8.92072E+02
  5.81337E+03  5.31609E+03  1.22575E+03  9.65413E+03 -6.83483E+03  9.36392E+03 -1.21057E+04  2.66926E+03
 -7.64398E+03 -6.32651E+03  3.80339E+02 -1.02147E+04  6.38993E+03 -5.42864E+03  6.30093E+03  2.33896E+03
  1.37499E+03  6.54191E+03 -6.06898E+03  8.20218E+03 -9.39140E+03  3.75603E+03 -9.54510E+03 -3.20939E+03
 -5.48198E+03 -1.09067E+04  2.64309E+03 -1.29634E+04  1.09016E+04 -8.17490E+03  1.18228E+04  2.11721E+03
  7.12375E+03  9.59604E+03 -1.21229E+03  1.16270E+04 -8.84571E+03  6.75062E+03 -9.19825E+03 -8.96155E+02
 -8.23816E+03 -7.96967E+03 -1.47994E+03 -8.84038E+03  4.49187E+03 -6.85078E+03  5.69954E+03 -3.10572E+03
  3.89596E+03  8.07566E+02 -7.78537E+02  1.61361E+03 -1.12733E+02 -1.51585E+03  1.22791E+03 -4.85367E+03
  8.03840E+03 -2.93146E+03  1.07749E+04  1.37442E+03  1.10522E+04  7.18855E+03  7.59233E+03  1.44299E+04
 -3.10065E+03  1.70150E+04 -1.40627E+04  1.23229E+04 -1.84349E+04  2.30946E+03 -1.44031E+04 -5.83736E+03
 -7.61569E+03 -1.21278E+04 -6.73604E+02 -1.03078E+04  3.73149E+03 -5.24479E+03  3.63732E+03 -3.79015E+03
  2.90386E+03 -2.17873E+03  3.05926E+03 -3.33743E+03  5.03837E+03 -2.44426E+03  6.12596E+03 -3.98983E+02
  7.83721E+03  1.98425E+03  3.47584E+03  6.52646E+03 -2.10299E+03  7.10340E+03 -7.85525E+03  5.52007E+03
 -9.89964E+03 -1.35481E+03 -5.66536E+03 -7.28857E+03 -6.16760E+02 -1.06344E+04  6.19059E+03 -1.08497E+04
  1.12039E+04 -5.68998E+03  1.31042E+04  1.48412E+03  9.31200E+03  9.29975E+03  1.46632E+03  1.23270E+04
 -4.91244E+03  1.04633E+04 -6.99881E+03  3.45442E+03 -4.57423E+03 -1.45994E+03 -1.80552E+03 -1.78930E+03
 -1.07151E+03  2.24103E+02 -1.60565E+03  2.05407E+03 -4.37808E+03  1.61113E+03 -7.09999E+03 -9.22576E+02
 -4.37566E+03 -7.20019E+03  6.85459E+02 -9.74470E+03  6.13497E+03 -8.78113E+03  8.99307E+03 -2.75629E+03
  9.44948E+03  4.97616E+03  4.38792E+03  7.94005E+03 -1.56734E+03  9.79084E+03 -6.45706E+03  5.94532E+03
 -8.83551E+03  7.93760E+02 -7.31393E+03 -5.87852E+03 -7.41158E+02 -7.61301E+03  3.89238E+03 -5.85981E+03
  6.15708E+03 -2.44308E+03  4.27722E+03  1.59826E+03  1.39479E+03  3.03363E+03  1.48002E+03  1.25344E+03
  2.50671E+03  1.00497E+03  2.28407E+03  1.74429E+03  2.86775E+03  4.22347E+03  2.27408E+03  4.84655E+03
 -2.03710E+03  7.38713E+03 -6.43813E+03  7.98435E+03 -9.10455E+03  2.09648E+03 -9.66818E+03 -3.77287E+03
 -4.94196E+03 -9.11078E+03  1.23173E+03 -1.04410E+04  6.01040E+03 -6.37567E+03  7.68831E+03 -1.88362E+03
  5.91915E+03  3.40210E+03  1.34485E+03  5.60130E+03 -2.57736E+03  3.68157E+03 -3.38778E+03 -5.63138E+02
 -1.90145E+03 -4.12080E+03  2.54672E+03 -4.01003E+03  3.90633E+03 -2.12422E+03  3.81495E+03  7.92648E+02
  2.26604E+03  1.75069E+03  1.19737E+03  1.30476E+03 -7.78668E+02  1.19750E+03  1.50927E+03 -6.16123E+02
  8.92443E+02 -4.10373E+02  3.66961E+03  1.63216E+03  1.88011E+03  5.15795E+03 -4.51216E+02  6.76234E+03
 -4.84478E+03  3.94201E+03 -5.66463E+03  1.13636E+03 -5.47389E+03 -2.02276E+03 -1.92558E+03 -3.49262E+03
  3.04992E+02 -3.28847E+03  2.55726E+03 -1.58610E+03  1.99592E+03  2.13168E+03 -9.65874E+02  2.68861E+03
 -3.65243E+03  1.99758E+03 -4.22366E+03 -2.52162E+03 -2.29276E+03 -4.90559E+03  7.94103E+02 -4.85240E+03
  2.64753E+03 -2.59720E+03  3.40919E+03 -4.15204E+02  2.86144E+03  1.18897E+03  4.30843E+02  2.55855E+03
 -1.42253E+03  4.31421E+02 -2.20541E+03 -1.80482E+03  1.00448E+03 -3.31926E+03  4.53371E+03 -3.10201E+03
  5.32231E+03  4.70639E+02  6.16189E+03  3.52258E+03  2.01733E+03  5.70182E+03 -1.57708E+03  5.61176E+03
 -4.89730E+03  2.47308E+03 -4.94017E+03 -5.99726E+02 -2.89419E+03 -3.78673E+03  1.08991E+03 -3.27306E+03
  4.00851E+03 -1.79210E+03  2.90116E+03  1.25618E+03  1.09736E+03  3.22390E+03 -1.30621E+02  3.20906E+03
 -1.64230E+03  1.92636E+03 -1.02603E+03  4.88372E+02 -4.33470E+02  6.27320E+02 -1.18661E+03  1.42459E+03
 -1.42166E+03  2.45598E+03 -3.86934E+03  1.79890E+03 -5.52197E+03  2.28334E+02 -6.49413E+03 -3.39138E+03
 -3.32110E+03 -7.36023E+03  1.42689E+03 -8.52839E+03  5.19758E+03 -7.12630E+03  8.32588E+03 -2.42365E+03
  7.65316E+03  1.29999E+03  4.29251E+03  5.66344E+03 -3.53421E+00  6.06451E+03 -2.21974E+03  4.20845E+03
 -3.25178E+03  1.85207E+03 -2.00595E+03 -6.83989E+02 -7.19160E+02 -4.40339E+02 -6.00681E+02 -2.36495E+01
 -1.66540E+03 -1.69678E+02 -1.78384E+03 -2.45939E+02 -1.71016E+02 -1.79861E+03 -3.13401E+02 -2.16211E+03
  2.86577E+03 -2.05339E+03  3.49041E+03 -8.25365E+01  3.91331E+03  2.83453E+03  5.66502E+02  5.50444E+03
 -2.89960E+03  6.71392E+03 -6.20093E+03  4.06138E+03 -6.50782E+03 -8.08339E+02 -5.15188E+03 -4.42584E+03
 -2.55506E+03 -5.59771E+03  1.34223E+03 -5.48163E+03  3.55143E+03 -2.81578E+03  3.73559E+03 -7.81536E+01
  2.10218E+03  1.80640E+03  6.88350E+00  1.35496E+03 -1.19571E+03 -2.60086E+02  1.64161E+02 -1.09393E+03
  1.84955E+03 -3.71174E+02  2.02897E+03  5.64128E+02  1.54116E+03  2.11939E+03  2.04793E+02  2.62371E+03
 -2.56720E+03  2.74779E+03 -3.70272E+03  1.34453E+02 -3.25690E+03 -2.49191E+03 -3.34699E+02 -4.66679E+03
  2.55392E+03 -3.74687E+03  4.38859E+03 -1.06816E+03  4.07517E+03  3.97113E+02  2.43816E+03  3.43375E+03
  9.78731E+02  3.54874E+03 -1.36457E+03  3.00556E+03 -2.40314E+03  1.86605E+03 -2.18111E+03  2.09338E+02
 -9.16118E+02  9.26650E+01 -1.02496E+03  3.61195E+02 -1.85459E+03  4.06969E+02 -2.87824E+03 -4.50681E+02
 -2.67754E+03 -1.51760E+03 -9.75983E+02 -3.64834E+03  1.96433E+03 -4.19949E+03  3.40857E+03 -1.77654E+03
  3.68851E+03  4.56243E+02  1.42814E+03  2.25507E+03 -2.14611E+02  3.44573E+03 -2.40287E+03  2.53719E+03
