 $NMID ID='MM_0lb_SNR800_16hz_g45_63.RAW', FMTDAT='(8E13.5)'
 TRAMP=1., VOLUME=1. $END
  3.09703E+05  2.96437E+02  3.37451E+05  2.50353E+05  8.45355E+04  3.37684E+05 -1.32348E+05  2.50444E+05
 -1.89903E+05  8.26564E+04 -1.11509E+05 -3.27208E+04  1.32353E+03 -5.02062E+04  5.39803E+04  1.94155E+02
  3.50113E+04  5.28902E+04 -1.68134E+04  7.51178E+04 -6.04980E+04  6.29695E+04 -8.38184E+04  3.18265E+04
 -8.01037E+04 -1.14342E+04 -5.66566E+04 -5.07665E+04 -1.50753E+04 -6.89050E+04  2.69456E+04 -4.52012E+04
  3.93146E+04  3.99429E+03  1.59432E+04  4.71946E+04 -3.40934E+04  4.65575E+04 -6.62073E+04 -5.69482E+02
 -5.26192E+04 -5.60471E+04 -6.54217E+03 -7.60319E+04  3.36976E+04 -5.40700E+04  4.69542E+04 -1.67244E+04
  4.24783E+04  1.11785E+04  3.13648E+04  2.43775E+04  1.57074E+04  2.85315E+04 -4.93691E+03  2.70809E+04
 -2.18926E+04  1.24601E+04 -1.88528E+04 -4.61559E+03  5.01675E+03 -7.65906E+03  2.16144E+04  1.14619E+04
  7.51601E+03  3.41271E+04 -3.10692E+04  3.52156E+04 -6.20751E+04  1.91189E+03 -5.62417E+04 -4.18511E+04
 -1.26537E+04 -6.19412E+04  3.90358E+04 -4.43774E+04  5.66744E+04 -1.85759E+03  3.30848E+04  3.14051E+04
 -6.45636E+03  3.42680E+04 -2.90846E+04  1.43211E+04 -2.87964E+04 -4.92629E+03 -1.55491E+04 -1.04977E+04
 -7.86917E+03 -1.21362E+04 -9.20557E+02 -1.72079E+04  6.98900E+03 -2.30497E+04  1.53256E+04 -1.34996E+04
  1.17901E+04  4.82287E+03 -6.75638E+03  1.27207E+04 -2.00356E+04 -3.40717E+03 -8.07665E+03 -3.18752E+04
  2.16009E+04 -4.17754E+04  4.59692E+04 -1.91822E+04  4.31112E+04  1.86626E+04  1.51016E+04  4.27581E+04
 -1.56467E+04  3.22386E+04 -2.40768E+04  1.39127E+03 -9.08633E+03 -2.70005E+04  2.07113E+04 -3.22637E+04
  3.92940E+04 -8.26442E+03  3.35187E+04  2.32124E+04  1.65501E+04  4.42501E+04 -8.09450E+03  4.75995E+04
 -2.98141E+04  3.19300E+04 -3.94341E+04  8.93660E+03 -4.02697E+04 -1.57041E+04 -2.24012E+04 -3.60025E+04
  7.04862E+03 -3.57208E+04  3.02732E+04 -1.38180E+04  2.83112E+04  1.09854E+04  3.25722E+03  1.82506E+04
 -1.34339E+04  7.88181E+03 -9.94666E+03 -7.75931E+03  6.03878E+03 -1.06368E+04  1.77270E+04  6.30967E+03
  1.30017E+04  2.17375E+04 -6.59049E+03  2.38281E+04 -2.20402E+04  1.03254E+04 -2.60359E+04 -5.51593E+03
 -1.87303E+04 -1.67550E+04 -7.01805E+03 -1.83359E+04  3.92099E+03 -1.70444E+04  1.40700E+04 -1.62526E+04
  2.34882E+04 -1.22526E+04  3.03029E+04  1.99448E+03  2.24909E+04  1.79369E+04  4.04392E+03  3.42253E+04
 -1.69732E+04  2.83718E+04 -2.67564E+04  9.98320E+03 -1.99784E+04 -1.01428E+04 -4.35796E+03 -1.36557E+04
  2.14090E+03 -3.57194E+03 -3.49914E+03  5.61854E+03 -1.41331E+04  5.36796E+03 -1.49080E+04 -5.97823E+03
 -9.00026E+03 -1.71652E+04  4.68075E+03 -2.09464E+04  1.38981E+04 -1.52055E+04  1.64030E+04 -1.60652E+03
  1.02472E+04  1.19888E+04 -1.01628E+03  1.72998E+04 -1.16901E+04  9.83683E+03 -1.71148E+04 -3.56265E+03
 -1.26345E+04 -1.55790E+04 -1.57431E+03 -2.07454E+04  9.25351E+03 -1.71210E+04  1.76362E+04 -8.14704E+03
  1.60436E+04  3.73188E+02  1.16084E+04  4.27173E+03  5.90778E+03  8.26249E+02  8.49253E+03 -1.61151E+03
  1.55990E+04  2.63181E+03  1.70284E+04  1.40498E+04  1.09221E+04  2.71353E+04 -3.12141E+03  3.00247E+04
 -1.78332E+04  2.34237E+04 -2.78956E+04  1.13392E+04 -2.90642E+04 -2.21531E+03 -2.43841E+04 -1.67536E+04
 -1.09960E+04 -2.32924E+04  8.00067E+03 -2.18852E+04  1.88225E+04 -1.15750E+04  1.71961E+04  4.40962E+03
  7.20477E+03  1.24877E+04 -7.80242E+03  1.13402E+04 -1.48387E+04  2.71891E+03 -1.14153E+04 -8.62346E+03
 -2.12178E+02 -1.38793E+04  6.95092E+03 -1.03385E+04  8.63076E+03 -1.34079E+03  1.59693E+03  5.57623E+03
 -6.09632E+03  1.90322E+03 -4.86491E+03 -5.29880E+03  2.12424E+02 -1.15401E+04  8.64915E+03 -1.16889E+04
  1.42159E+04 -5.94534E+03  1.45820E+04  2.74527E+03  1.29070E+04  1.14325E+04  5.95223E+03  1.66527E+04
 -2.42935E+03  1.90104E+04 -1.15736E+04  1.17293E+04 -1.35250E+04  3.05591E+03 -9.60256E+03 -2.83768E+03
 -4.77542E+03 -4.32651E+03 -5.28733E+02  1.16705E+03 -2.43607E+03  2.41530E+03 -4.35512E+03  4.07246E+03
 -9.11435E+03 -6.68380E+02 -9.96597E+03 -8.09000E+03 -3.99285E+03 -1.29943E+04  3.98371E+03 -9.61550E+03
  8.05286E+03 -4.18097E+03  6.06077E+03  2.51619E+03  6.22297E+02  3.45118E+03 -4.19493E+03 -5.01332E+01
 -4.17494E+03 -6.11524E+03 -6.88917E+02 -8.79853E+03  4.89912E+03 -9.55015E+03  1.15924E+04 -4.74208E+03
  1.38580E+04  1.00398E+03  1.03217E+04  7.72841E+03  2.20057E+03  1.05235E+04 -5.79640E+03  9.57717E+03
 -7.93182E+03  2.97370E+03 -4.19395E+03 -1.55909E+03  1.47878E+03 -2.41287E+03  5.22828E+03 -9.89588E+02
  4.52121E+03  3.91812E+03  1.43176E+03  7.59392E+03 -5.33097E+03  7.35445E+03 -9.21237E+03  2.03024E+03
 -6.05099E+03 -4.30796E+03  3.77764E+02 -7.78048E+03  4.38281E+03 -3.92364E+03  4.76558E+03  1.42257E+03
  7.10785E+02  4.49466E+03 -4.89930E+03  6.04557E+03 -6.22717E+03  2.80019E+03 -6.32480E+03 -1.77218E+03
 -3.92711E+03 -8.06033E+03  1.42719E+03 -8.51873E+03  7.61450E+03 -5.81978E+03  8.04986E+03  1.14227E+03
  5.60628E+03  6.84566E+03 -4.25104E+02  8.68048E+03 -6.21288E+03  5.04414E+03 -6.35106E+03 -6.25262E+02
 -6.80691E+03 -6.27351E+03 -1.35305E+03 -6.28625E+03  3.37611E+03 -5.23923E+03  3.64199E+03 -3.06028E+03
  3.19608E+03  5.25156E+02 -2.24853E+02  1.47547E+03  7.22522E+01 -1.06375E+03  6.89716E+02 -2.83245E+03
  4.92651E+03 -1.30187E+03  7.05926E+03  6.18461E+02  7.41024E+03  4.48932E+03  5.82811E+03  9.58687E+03
 -2.01376E+03  1.11219E+04 -9.89694E+03  8.38573E+03 -1.24507E+04  1.60082E+03 -9.76795E+03 -3.43063E+03
 -5.34751E+03 -8.29737E+03 -5.89451E+02 -6.57597E+03  2.56389E+03 -3.11978E+03  2.33897E+03 -2.78877E+03
  1.58351E+03 -1.74112E+03  2.56246E+03 -2.59618E+03  4.00589E+03 -2.01663E+03  4.34660E+03  3.08578E+01
  5.52047E+03  1.60875E+03  2.30235E+03  4.25610E+03 -1.73608E+03  4.13926E+03 -5.44620E+03  3.62889E+03
 -6.35483E+03 -1.08117E+03 -3.10994E+03 -4.58577E+03  2.82172E+01 -6.63301E+03  4.02748E+03 -7.06361E+03
  7.24065E+03 -4.22934E+03  8.81841E+03  3.34178E+02  6.19402E+03  5.51278E+03  1.13716E+03  7.73045E+03
 -2.95570E+03  7.10131E+03 -4.65305E+03  2.49281E+03 -2.60169E+03 -9.93335E+02 -7.70529E+02 -9.54256E+02
 -5.41538E+02  4.27963E+02 -1.26697E+03  2.18735E+03 -3.24312E+03  1.37000E+03 -4.85230E+03 -5.55575E+02
 -2.39126E+03 -4.82423E+03  4.67069E+02 -6.21800E+03  3.65225E+03 -5.78497E+03  5.20248E+03 -1.48761E+03
  5.61346E+03  2.86950E+03  2.48811E+03  4.80268E+03 -1.23022E+03  6.14273E+03 -3.72621E+03  3.63228E+03
 -5.26258E+03  5.92799E+02 -4.42418E+03 -3.28670E+03 -2.36148E+02 -4.52318E+03  2.29545E+03 -3.41403E+03
  3.76123E+03 -1.69246E+03  2.22913E+03  6.79755E+02  8.14918E+02  1.86529E+03  7.16804E+02  9.38106E+02
  1.84145E+03  4.12648E+02  1.71807E+03  1.05747E+03  1.95599E+03  2.67520E+03  1.79229E+03  2.58466E+03
 -1.57869E+03  4.34421E+03 -3.81177E+03  5.12493E+03 -4.72834E+03  1.31024E+03 -6.00776E+03 -1.40918E+03
 -2.80941E+03 -5.17670E+03  8.91811E+02 -6.74574E+03  3.07202E+03 -3.93565E+03  4.48367E+03 -7.11371E+02
  3.55889E+03  2.20163E+03  6.74963E+02  3.53838E+03 -1.43156E+03  1.77503E+03 -1.98056E+03 -1.57347E+02
 -1.09028E+03 -2.45321E+03  1.67034E+03 -2.22592E+03  1.99378E+03 -1.37978E+03  1.94292E+03  4.11830E+02
  1.16162E+03  6.78443E+02  1.00156E+03  5.57036E+02 -6.91311E+02  7.56087E+02  1.60316E+03 -2.21505E+02
  3.56280E+02 -1.65738E+02  2.31671E+03  9.74492E+02  8.09847E+02  3.32013E+03 -4.40566E+02  3.75543E+03
 -2.50387E+03  1.99017E+03 -3.14920E+03  5.20805E+02 -2.99585E+03 -1.07773E+03 -3.68607E+02 -1.77343E+03
  4.22323E+02 -1.99601E+03  1.17886E+03 -8.48387E+02  1.00515E+03  1.67681E+03 -9.97895E+02  1.83946E+03
 -1.97258E+03  9.97091E+02 -1.72507E+03 -1.41731E+03 -1.10274E+03 -2.83712E+03  5.23317E+02 -2.43428E+03
  1.18815E+03 -1.19174E+03  1.52643E+03  1.07078E+02  1.76996E+03  2.82221E+02  4.18882E+02  1.70871E+03
 -7.59241E+02  5.07771E+02 -1.33035E+03 -5.14734E+02  4.38435E+02 -1.61309E+03  2.88572E+03 -1.32512E+03
  2.49637E+03  2.29513E+02  3.58702E+03  1.44843E+03  1.25801E+03  2.61742E+03 -6.42403E+02  2.92333E+03
 -2.50096E+03  6.91180E+02 -2.50755E+03 -2.78986E+02 -1.40540E+03 -1.98731E+03  4.49642E+02 -1.04973E+03
  1.86814E+03 -1.08926E+03  1.11158E+03  8.08100E+02  2.65566E+02  1.72015E+03  1.64211E+02  1.60902E+03
 -6.69880E+02  1.42508E+03 -4.14267E+02  4.01649E+02 -3.75962E+02  6.47902E+02 -8.31741E+02  6.97690E+02
 -6.90745E+02  1.40280E+03 -2.32168E+03  8.31591E+02 -2.80071E+03  3.02588E+02 -3.46410E+03 -1.73523E+03
 -1.40899E+03 -3.74540E+03  9.75716E+02 -4.26582E+03  2.14365E+03 -3.56706E+03  4.39308E+03 -1.42293E+03
  3.71762E+03  3.22015E+02  2.10443E+03  2.23310E+03 -2.88351E+02  2.84717E+03 -1.03918E+03  1.89090E+03
 -1.75649E+03  1.01967E+03 -7.89773E+02 -3.84229E+02 -4.05517E+02  1.17106E+02 -7.98680E+02 -2.46468E+02
 -1.11834E+03  2.44216E+02 -1.17529E+03  1.91474E+02  1.08223E+02 -7.73212E+02 -3.73889E+02 -1.12181E+03
  1.46975E+03 -1.02221E+03  1.18707E+03  7.15106E+00  1.86590E+03  1.78492E+03 -1.29693E+01  2.47851E+03
 -1.31847E+03  3.58268E+03 -2.73360E+03  1.97826E+03 -2.69203E+03 -2.25744E+02 -2.25609E+03 -1.98477E+03
 -1.12640E+03 -2.45158E+03  2.56780E+02 -2.21865E+03  1.53966E+03 -1.26449E+03  1.54558E+03  4.01570E+01
  1.00895E+03  4.12428E+02  8.34244E+01  5.20469E+02 -6.47825E+02 -3.30087E+02  4.48425E+00 -5.58822E+02
  1.05013E+03  1.60720E+01  7.48333E+02  4.09557E+02  2.33420E+02  8.93326E+02  2.69123E+02  7.84243E+02
 -1.13182E+03  8.85025E+02 -1.67137E+03  4.14311E+01 -1.59605E+03 -1.28117E+03 -8.19753E+01 -1.95606E+03
  9.57146E+02 -1.27273E+03  1.48719E+03 -1.64629E+02  1.68480E+03 -4.80464E+02  8.45076E+02  1.61324E+03
  5.28335E+02  1.37012E+03 -3.63115E+02  1.19067E+03 -1.04563E+03  9.30131E+02 -9.62633E+02  2.42582E+02
 -2.52614E+02 -2.83069E+02 -7.51041E+02  2.82660E+02 -5.00016E+02  4.19527E+02 -1.42941E+03 -4.98440E+02
 -1.45124E+03 -5.98649E+01 -1.77409E+02 -1.21986E+03  1.13150E+03 -2.04316E+03  1.30870E+03 -4.04036E+02
  1.49000E+03 -2.70488E+01  1.83387E+02  7.84411E+02 -2.00459E+02  1.44695E+03 -1.05803E+03  9.24814E+02
