 $NMID ID='MM_0lb_SNR800_17hz_g50_71.RAW', FMTDAT='(8E13.5)'
 TRAMP=1., VOLUME=1. $END
  3.09761E+05  5.95173E+02  3.37384E+05  2.50253E+05  8.45193E+04  3.37847E+05 -1.32439E+05  2.50799E+05
 -1.89650E+05  8.30188E+04 -1.11246E+05 -3.27542E+04  1.01569E+03 -5.03209E+04  5.38407E+04  1.95508E+02
  3.50998E+04  5.29235E+04 -1.71263E+04  7.51953E+04 -6.03724E+04  6.31680E+04 -8.35913E+04  3.16977E+04
 -8.03419E+04 -1.13936E+04 -5.67083E+04 -5.06899E+04 -1.51915E+04 -6.86562E+04  2.68837E+04 -4.53589E+04
  3.92408E+04  3.74749E+03  1.59904E+04  4.73797E+04 -3.44115E+04  4.66362E+04 -6.60254E+04 -5.73486E+02
 -5.26388E+04 -5.62839E+04 -6.37157E+03 -7.60080E+04  3.34827E+04 -5.40644E+04  4.69158E+04 -1.70667E+04
  4.24601E+04  1.11636E+04  3.08430E+04  2.49491E+04  1.60030E+04  2.89572E+04 -5.01442E+03  2.69810E+04
 -2.18040E+04  1.24477E+04 -1.89824E+04 -4.73376E+03  4.81702E+03 -7.64782E+03  2.16211E+04  1.16299E+04
  7.56877E+03  3.39511E+04 -3.10662E+04  3.46430E+04 -6.22016E+04  2.21579E+03 -5.59346E+04 -4.16023E+04
 -1.25548E+04 -6.20577E+04  3.88552E+04 -4.44840E+04  5.69006E+04 -2.04616E+03  3.28317E+04  3.12979E+04
 -6.19210E+03  3.44262E+04 -2.90985E+04  1.44527E+04 -2.88296E+04 -4.77524E+03 -1.52366E+04 -1.04183E+04
 -7.81975E+03 -1.21429E+04 -1.00344E+03 -1.71038E+04  7.25482E+03 -2.26855E+04  1.50281E+04 -1.38267E+04
  1.22447E+04  4.50536E+03 -7.25584E+03  1.33245E+04 -2.01114E+04 -3.37737E+03 -8.11864E+03 -3.16501E+04
  2.17530E+04 -4.15210E+04  4.60915E+04 -1.89583E+04  4.33467E+04  1.88200E+04  1.47876E+04  4.27266E+04
 -1.56547E+04  3.23515E+04 -2.43418E+04  1.30978E+03 -8.83959E+03 -2.71584E+04  2.07059E+04 -3.24145E+04
  3.90860E+04 -8.01972E+03  3.31576E+04  2.32584E+04  1.64060E+04  4.43743E+04 -7.68562E+03  4.73948E+04
 -2.97950E+04  3.13209E+04 -3.91612E+04  8.86644E+03 -4.04122E+04 -1.57199E+04 -2.23052E+04 -3.59115E+04
  7.23090E+03 -3.53379E+04  3.03404E+04 -1.34470E+04  2.78194E+04  1.05154E+04  3.56158E+03  1.83367E+04
 -1.27835E+04  7.75392E+03 -9.79754E+03 -7.80976E+03  5.85150E+03 -1.03390E+04  1.76042E+04  6.23983E+03
  1.28412E+04  2.16623E+04 -6.32031E+03  2.39746E+04 -2.14402E+04  1.02679E+04 -2.61228E+04 -5.82823E+03
 -1.84519E+04 -1.67634E+04 -6.92953E+03 -1.78913E+04  3.90884E+03 -1.67865E+04  1.39737E+04 -1.58180E+04
  2.35585E+04 -1.21000E+04  2.99665E+04  1.91993E+03  2.24525E+04  1.79978E+04  4.21953E+03  3.40399E+04
 -1.67840E+04  2.89131E+04 -2.65888E+04  9.67563E+03 -2.01639E+04 -1.03307E+04 -3.99316E+03 -1.39182E+04
  2.03081E+03 -3.83332E+03 -3.39771E+03  6.09078E+03 -1.42871E+04  5.20748E+03 -1.47132E+04 -5.64107E+03
 -9.52888E+03 -1.71249E+04  4.71134E+03 -2.09261E+04  1.38236E+04 -1.49464E+04  1.58759E+04 -1.63949E+03
  9.97450E+03  1.16933E+04 -6.85988E+02  1.71016E+04 -1.13393E+04  9.38507E+03 -1.65816E+04 -3.66382E+03
 -1.28201E+04 -1.54503E+04 -1.35653E+03 -2.02701E+04  9.51464E+03 -1.69617E+04  1.75854E+04 -7.80180E+03
  1.59907E+04  5.78479E+02  1.13155E+04  3.93639E+03  5.54241E+03  6.58265E+02  8.09089E+03 -1.41348E+03
  1.50911E+04  2.89126E+03  1.64551E+04  1.36602E+04  1.04463E+04  2.68536E+04 -2.98039E+03  2.95806E+04
 -1.73111E+04  2.29971E+04 -2.73362E+04  1.11826E+04 -2.77709E+04 -1.97024E+03 -2.37242E+04 -1.62651E+04
 -1.06725E+04 -2.30313E+04  7.80528E+03 -2.13410E+04  1.84971E+04 -1.15926E+04  1.68785E+04  4.27138E+03
  6.88207E+03  1.24305E+04 -7.89780E+03  1.11694E+04 -1.40081E+04  2.57278E+03 -1.11225E+04 -8.81632E+03
 -5.71153E+01 -1.34322E+04  6.48769E+03 -1.02237E+04  8.95044E+03 -1.39470E+03  1.49098E+03  5.36038E+03
 -5.82196E+03  1.88277E+03 -4.45275E+03 -4.79256E+03  2.82932E+02 -1.15849E+04  8.49332E+03 -1.15230E+04
  1.37823E+04 -5.59293E+03  1.42106E+04  2.69829E+03  1.21688E+04  1.10363E+04  5.73315E+03  1.62514E+04
 -2.70548E+03  1.82045E+04 -1.12055E+04  1.14028E+04 -1.28794E+04  3.21560E+03 -9.20548E+03 -2.65308E+03
 -4.89423E+03 -3.89844E+03 -4.89561E+02  1.22766E+03 -2.15100E+03  2.36126E+03 -3.80579E+03  3.84210E+03
 -8.65204E+03 -6.25038E+02 -9.39613E+03 -7.77004E+03 -3.97224E+03 -1.23835E+04  3.98147E+03 -9.42520E+03
  8.09120E+03 -4.21793E+03  5.80771E+03  2.61031E+03  4.34464E+02  3.41758E+03 -4.30352E+03 -2.29194E+02
 -3.94498E+03 -5.77835E+03 -8.49861E+02 -8.56008E+03  4.58089E+03 -9.18602E+03  1.12778E+04 -4.59605E+03
  1.33260E+04  9.74246E+02  1.00030E+04  7.35333E+03  1.86756E+03  9.90721E+03 -5.85336E+03  9.04773E+03
 -7.48298E+03  2.94784E+03 -3.94999E+03 -1.44264E+03  1.60888E+03 -2.22655E+03  5.04542E+03 -1.05179E+03
  4.54331E+03  3.79904E+03  1.11376E+03  7.36918E+03 -5.18895E+03  7.20307E+03 -8.65727E+03  2.05342E+03
 -5.66762E+03 -4.30602E+03  1.77074E+02 -7.43716E+03  4.40557E+03 -3.85607E+03  4.31070E+03  1.24122E+03
  6.39162E+02  4.02246E+03 -4.43415E+03  5.45660E+03 -5.70583E+03  2.64588E+03 -5.81990E+03 -1.64282E+03
 -3.73780E+03 -7.35738E+03  1.42827E+03 -8.26924E+03  7.28060E+03 -5.29063E+03  7.91166E+03  1.11155E+03
  5.45666E+03  6.25438E+03  2.88069E+02  8.27670E+03 -5.83813E+03  4.47072E+03 -6.03973E+03 -1.70851E+02
 -6.26807E+03 -5.83633E+03 -1.25023E+03 -5.88816E+03  2.85503E+03 -5.26802E+03  3.39727E+03 -3.23714E+03
  3.01378E+03  3.65140E+02 -2.20207E+01  1.53809E+03  4.66655E+02 -3.69632E+02  5.54169E+02 -2.36213E+03
  4.89311E+03 -1.44518E+03  6.71402E+03  6.84059E+02  6.59719E+03  3.95607E+03  5.61437E+03  8.96233E+03
 -1.50919E+03  1.01807E+04 -9.30445E+03  7.99820E+03 -1.14133E+04  1.38589E+03 -9.30785E+03 -3.24188E+03
 -4.72151E+03 -7.89729E+03 -5.53941E+02 -6.13236E+03  2.61266E+03 -2.74206E+03  1.87142E+03 -2.45016E+03
  1.38231E+03 -1.74255E+03  2.44713E+03 -2.27181E+03  3.63595E+03 -1.65699E+03  4.29250E+03  1.64702E+02
  5.40811E+03  1.35511E+03  1.53294E+03  3.90699E+03 -1.46836E+03  3.91258E+03 -5.02181E+03  3.06475E+03
 -6.23193E+03 -1.18300E+03 -2.43792E+03 -4.26311E+03  1.57728E+02 -6.18111E+03  3.87029E+03 -6.25590E+03
  6.32683E+03 -3.57912E+03  8.16340E+03  4.33971E+02  5.53469E+03  5.11547E+03  1.33857E+03  7.21862E+03
 -2.57415E+03  6.58534E+03 -3.92157E+03  2.17623E+03 -2.63528E+03 -1.30941E+03 -8.62002E+02 -6.54054E+02
 -7.92026E+02  5.74594E+02 -1.23598E+03  2.02527E+03 -3.03539E+03  1.30611E+03 -4.73533E+03 -3.71107E+02
 -1.96064E+03 -4.58344E+03  9.49152E+02 -5.79733E+03  3.41503E+03 -5.33039E+03  4.49225E+03 -1.03853E+03
  5.28604E+03  2.94479E+03  2.60177E+03  4.30686E+03 -1.23134E+03  5.76146E+03 -3.49518E+03  3.33832E+03
 -4.49668E+03  6.80802E+02 -4.15713E+03 -2.87299E+03 -1.85374E+02 -3.95232E+03  2.22734E+03 -2.83066E+03
  3.23794E+03 -1.43187E+03  2.06996E+03  4.35181E+02  7.99744E+02  1.99323E+03  1.03214E+03  8.50381E+02
  1.80892E+03  4.43769E+02  1.49483E+03  8.76664E+02  1.05186E+03  2.44230E+03  1.47373E+03  2.24132E+03
 -1.44350E+03  3.74425E+03 -3.13850E+03  4.46383E+03 -4.14940E+03  1.36185E+03 -5.37835E+03 -1.02105E+03
 -2.11499E+03 -4.97758E+03  9.06711E+02 -5.82783E+03  2.47779E+03 -3.21749E+03  3.55397E+03 -1.14680E+03
  3.12808E+03  2.13060E+03  3.09314E+02  2.87526E+03 -9.67790E+02  1.54206E+03 -1.57010E+03 -1.40752E+02
 -9.64991E+02 -2.15714E+03  1.22613E+03 -1.77296E+03  1.88197E+03 -1.34137E+03  1.85735E+03  5.82454E+02
  9.36080E+02  4.57542E+02  7.57665E+02 -1.46692E+02 -3.84862E+02  1.08326E+03  1.34875E+03 -6.23273E+01
  3.91095E+02 -2.71808E+02  1.93017E+03  1.01387E+03  3.26311E+02  2.60622E+03 -2.77836E+02  3.54685E+03
 -1.99376E+03  1.54443E+03 -2.74546E+03  6.50773E+02 -2.77224E+03 -1.13089E+03 -2.53678E+02 -1.24801E+03
  4.65069E+02 -1.44997E+03  1.19421E+03 -6.75156E+02  7.40162E+02  1.49099E+03 -8.18490E+02  1.46723E+03
 -1.81795E+03  1.04068E+03 -1.70937E+03 -1.75909E+03 -8.87080E+02 -2.72364E+03  1.56189E+02 -2.18195E+03
  9.70383E+02 -1.02945E+03  1.50230E+03  1.96182E+02  1.43577E+03  2.09417E+02  1.86175E+02  1.36492E+03
 -3.74055E+02  1.59615E+02 -1.40421E+03 -2.77869E+02  8.59543E+02 -1.52442E+03  2.19834E+03 -1.23272E+03
  1.93427E+03  2.39528E+02  3.34442E+03  1.11799E+03  8.86733E+02  2.18366E+03 -5.85241E+02  2.05523E+03
 -1.95990E+03  2.56268E+02 -1.88023E+03 -2.29983E+02 -1.24932E+03 -1.75919E+03  4.14509E+02 -1.08510E+03
  1.65334E+03 -9.87743E+02  1.31142E+03  7.63837E+02  1.15572E+02  1.40441E+03 -9.27993E+01  1.28787E+03
 -4.48826E+02  1.19610E+03 -7.82160E+02  4.37769E+02 -1.71150E+02  2.74868E+02 -6.73862E+02  5.42643E+02
 -9.21741E+02  1.22955E+03 -2.23359E+03  8.06363E+02 -2.16303E+03  2.48139E+02 -3.17427E+03 -1.53169E+03
 -1.36607E+03 -3.02271E+03  8.33756E+02 -3.59787E+03  1.68706E+03 -3.00412E+03  3.32568E+03 -1.32750E+03
  3.13197E+03  2.93284E+02  1.57842E+03  2.16664E+03 -3.95346E+02  1.91832E+03 -1.03940E+03  1.79050E+03
 -1.30543E+03  9.15689E+02 -6.33364E+02 -1.77103E+02 -4.51023E+02 -2.83999E+02 -5.31508E+02 -6.30456E+00
 -1.26280E+03 -2.91626E+02 -1.11131E+03  1.61191E+02  4.05339E+02 -6.22120E+02 -3.90172E+02 -1.13571E+03
  1.30757E+03 -8.63067E+02  8.32992E+02  9.09311E+01  1.18710E+03  1.29081E+03 -3.29967E+02  1.93717E+03
 -1.26895E+03  2.98657E+03 -2.32138E+03  1.68608E+03 -2.84110E+03 -2.86198E+02 -1.82587E+03 -1.63594E+03
 -1.12472E+03 -2.04435E+03  5.98996E+02 -1.79333E+03  1.14947E+03 -9.30670E+02  1.04339E+03  4.74524E+02
  7.97942E+02  3.38865E+02  1.92821E+02  2.55625E+02 -5.11299E+02 -7.99138E+01 -6.56450E+01 -3.47605E+02
  5.70009E+02  2.47782E+01  4.50192E+02  7.81855E+02  2.26792E+02  7.97846E+02  3.68578E+02  6.63848E+02
 -6.76952E+02  9.68114E+02 -8.82628E+02  2.93812E+02 -1.05416E+03 -7.55929E+02 -3.11582E+01 -1.45049E+03
  8.97781E+02 -1.22635E+03  9.14779E+02 -1.20173E+01  1.31031E+03 -4.26062E+02  4.65791E+02  1.31128E+03
  4.47482E+02  1.03898E+03 -3.75815E+02  8.14620E+02 -5.32317E+02  7.59344E+02 -4.04834E+02  1.46473E+02
 -3.01142E+02 -2.17334E+02 -6.09526E+02  2.58185E+02 -1.04144E+03  2.40161E+02 -1.00890E+03 -3.94628E+02
 -1.25753E+03 -3.25158E+00 -3.91326E+02 -1.20125E+03  8.86956E+02 -1.90645E+03  1.00852E+03 -5.37193E+02
  1.09153E+03  9.47790E+00 -2.50146E+02  6.34157E+02 -1.76700E+01  1.10119E+03 -4.44348E+02  9.06216E+02
