 $NMID ID='MM_0lb_SNR800_9hz_g45_72.RAW', FMTDAT='(8E13.5)'
 TRAMP=1., VOLUME=1. $END
  3.10201E+05  2.31597E+02  3.37697E+05  2.51015E+05  8.50778E+04  3.38302E+05 -1.32607E+05  2.52135E+05
 -1.90744E+05  8.35602E+04 -1.12663E+05 -3.22510E+04  2.00200E+02 -5.11231E+04  5.37707E+04 -6.27064E+02
  3.54652E+04  5.30790E+04 -1.66013E+04  7.57715E+04 -6.15086E+04  6.42187E+04 -8.52366E+04  3.23503E+04
 -8.22482E+04 -1.13724E+04 -5.79814E+04 -5.25449E+04 -1.54202E+04 -7.11046E+04  2.76150E+04 -4.66395E+04
  4.12885E+04  4.07759E+03  1.64603E+04  4.84066E+04 -3.50855E+04  4.82306E+04 -6.78316E+04  2.83007E+02
 -5.46870E+04 -5.75240E+04 -7.29483E+03 -7.88142E+04  3.47514E+04 -5.67358E+04  4.93352E+04 -1.79787E+04
  4.49534E+04  1.17527E+04  3.29939E+04  2.68211E+04  1.58532E+04  3.04258E+04 -5.97079E+03  2.77858E+04
 -2.22016E+04  1.20234E+04 -1.83802E+04 -5.25773E+03  6.87197E+03 -7.18124E+03  2.32342E+04  1.38056E+04
  7.31508E+03  3.72014E+04 -3.38014E+04  3.67752E+04 -6.56651E+04  2.24883E+03 -5.87729E+04 -4.42054E+04
 -1.25658E+04 -6.52900E+04  4.13837E+04 -4.71548E+04  6.07969E+04 -2.11678E+03  3.63013E+04  3.42086E+04
 -5.68685E+03  3.92021E+04 -3.10882E+04  1.84790E+04 -3.34205E+04 -3.44836E+03 -1.93220E+04 -1.18739E+04
 -9.23485E+03 -1.51457E+04 -4.44565E+02 -1.96743E+04  8.22079E+03 -2.34147E+04  1.56243E+04 -1.25386E+04
  1.03673E+04  6.03879E+03 -9.96771E+03  1.26384E+04 -2.29467E+04 -6.33382E+03 -8.34833E+03 -3.70347E+04
  2.46877E+04 -4.64782E+04  5.15149E+04 -2.04955E+04  4.80580E+04  2.05540E+04  1.73637E+04  4.65098E+04
 -1.67369E+04  3.55783E+04 -2.73959E+04  2.54173E+03 -1.19407E+04 -2.94181E+04  2.14421E+04 -3.61456E+04
  4.44077E+04 -1.10524E+04  4.01104E+04  2.52049E+04  2.12363E+04  5.04912E+04 -8.54161E+03  5.55791E+04
 -3.49442E+04  3.79503E+04 -4.66157E+04  1.09914E+04 -4.71273E+04 -1.82554E+04 -2.59897E+04 -4.17053E+04
  7.99817E+03 -4.15410E+04  3.35811E+04 -1.70811E+04  3.16890E+04  1.12272E+04  5.46644E+03  2.06887E+04
 -1.41748E+04  9.61005E+03 -1.08401E+04 -7.60684E+03  5.36807E+03 -1.09996E+04  1.88176E+04  5.64265E+03
  1.52406E+04  2.26015E+04 -5.38329E+03  2.66123E+04 -2.31717E+04  1.42484E+04 -3.09232E+04 -3.73151E+03
 -2.48046E+04 -1.83161E+04 -1.13509E+04 -2.47339E+04  4.09521E+03 -2.50493E+04  1.92523E+04 -2.25688E+04
  3.14085E+04 -1.43558E+04  3.74058E+04  4.86138E+03  2.66109E+04  2.40488E+04  4.26878E+03  4.03924E+04
 -1.93537E+04  3.31677E+04 -3.06377E+04  1.18754E+04 -2.19100E+04 -1.03366E+04 -4.59800E+03 -1.27352E+04
  8.17603E+02 -9.91217E+02 -7.45376E+03  8.38459E+03 -1.99074E+04  5.20125E+03 -1.90938E+04 -9.28595E+03
 -1.17906E+04 -2.33504E+04  6.23692E+03 -2.70925E+04  1.85054E+04 -1.95662E+04  2.23215E+04 -1.53503E+03
  1.39661E+04  1.58097E+04 -1.54233E+03  2.30347E+04 -1.67700E+04  1.35416E+04 -2.32155E+04 -5.19063E+03
 -1.71944E+04 -2.07007E+04 -2.32136E+03 -2.79432E+04  1.26997E+04 -2.30219E+04  2.27623E+04 -1.19669E+04
  2.14559E+04 -1.16817E+02  1.56618E+04  5.45083E+03  8.51603E+03  1.28457E+03  1.18306E+04 -1.51895E+03
  2.16598E+04  2.67392E+03  2.44538E+04  1.80224E+04  1.75042E+04  3.67102E+04 -2.90786E+03  4.37303E+04
 -2.48361E+04  3.58776E+04 -4.08297E+04  1.88487E+04 -4.35597E+04 -2.97942E+03 -3.51477E+04 -2.50064E+04
 -1.38339E+04 -3.63424E+04  1.29137E+04 -3.15217E+04  2.71341E+04 -1.49124E+04  2.37710E+04  7.67016E+03
  8.01255E+03  1.84064E+04 -1.11731E+04  1.57542E+04 -1.97388E+04  2.88651E+03 -1.49324E+04 -1.26192E+04
 -4.02391E+02 -1.91691E+04  1.03692E+04 -1.40812E+04  1.30273E+04 -1.67070E+03  3.24120E+03  8.95505E+03
 -8.68853E+03  3.95181E+03 -8.85318E+03 -6.90135E+03 -1.61408E+03 -1.80892E+04  1.17824E+04 -1.92696E+04
  2.22356E+04 -1.05921E+04  2.54575E+04  3.40940E+03  2.23292E+04  1.78469E+04  9.88507E+03  2.81459E+04
 -5.38906E+03  3.02398E+04 -2.02629E+04  1.88011E+04 -2.22741E+04  3.96621E+03 -1.50395E+04 -6.11872E+03
 -6.59543E+03 -7.19221E+03 -9.29886E+02  8.49140E+02 -2.80179E+03  3.43668E+03 -6.87696E+03  5.15172E+03
 -1.36854E+04 -1.29915E+03 -1.50277E+04 -1.15326E+04 -5.65309E+03 -1.89931E+04  6.55387E+03 -1.54496E+04
  1.26760E+04 -6.51359E+03  8.96147E+03  4.24200E+03 -7.34927E+02  6.63775E+03 -7.89229E+03  1.57601E+02
 -7.19157E+03 -1.01782E+04 -8.89886E+02 -1.48903E+04  8.77885E+03 -1.60869E+04  1.97324E+04 -8.71310E+03
  2.29213E+04  2.19394E+03  1.66113E+04  1.38234E+04  2.82463E+03  1.85467E+04 -9.49346E+03  1.50363E+04
 -1.24195E+04  4.12830E+03 -6.52664E+03 -3.33611E+03  1.92955E+03 -4.54511E+03  8.18761E+03 -1.20627E+03
  7.51203E+03  7.10820E+03  1.20643E+03  1.20076E+04 -8.74586E+03  1.14516E+04 -1.56945E+04  2.72057E+03
 -1.05817E+04 -8.16450E+03  3.27869E+02 -1.31884E+04  8.36013E+03 -6.69768E+03  9.07699E+03  3.14667E+03
  2.27791E+03  9.85768E+03 -8.26583E+03  1.10984E+04 -1.29271E+04  5.26002E+03 -1.38442E+04 -4.87797E+03
 -8.04568E+03 -1.52604E+04  3.53831E+03 -1.79217E+04  1.52811E+04 -1.05886E+04  1.62505E+04  2.91450E+03
  9.81460E+03  1.28425E+04 -1.40439E+03  1.53522E+04 -1.11578E+04  8.84584E+03 -1.22348E+04 -1.24864E+03
 -1.00359E+04 -1.01080E+04 -1.30130E+03 -1.13740E+04  6.19440E+03 -8.82142E+03  7.53851E+03 -3.62080E+03
  4.51548E+03  2.05105E+03 -8.65039E+02  1.88652E+03 -6.95058E+02 -3.43304E+03  2.43936E+03 -7.14035E+03
  1.10772E+04 -4.75107E+03  1.54463E+04  1.61641E+03  1.55847E+04  1.07431E+04  1.01098E+04  2.03522E+04
 -5.44261E+03  2.28800E+04 -1.93639E+04  1.73298E+04 -2.50428E+04  3.31347E+03 -2.01734E+04 -9.05633E+03
 -1.02825E+04 -1.68288E+04 -1.17214E+02 -1.41536E+04  5.12175E+03 -8.51263E+03  5.16977E+03 -5.30639E+03
  3.84481E+03 -2.98905E+03  3.51883E+03 -3.76466E+03  5.69852E+03 -3.24304E+03  7.94057E+03 -1.19492E+03
  1.00265E+04  2.09016E+03  5.70302E+03  9.20548E+03 -1.79617E+03  1.12174E+04 -1.10231E+04  8.41777E+03
 -1.40811E+04 -1.30336E+03 -8.94209E+03 -9.40888E+03 -1.34093E+03 -1.53100E+04  8.41553E+03 -1.57104E+04
  1.60167E+04 -8.43586E+03  1.88605E+04  2.54898E+03  1.33099E+04  1.35060E+04  1.97027E+03  1.74527E+04
 -7.01343E+03  1.43383E+04 -1.01247E+04  4.48649E+03 -7.06451E+03 -1.45211E+03 -2.40796E+03 -1.96610E+03
 -9.88723E+02  1.20123E+01 -2.02846E+03  2.96314E+03 -5.64252E+03  2.62943E+03 -9.57722E+03 -1.45771E+03
 -7.16220E+03 -1.01499E+04  1.67909E+02 -1.37443E+04  9.04267E+03 -1.34387E+04  1.40444E+04 -4.05219E+03
  1.36094E+04  6.84385E+03  6.85397E+03  1.29324E+04 -2.92054E+03  1.43399E+04 -9.78646E+03  9.22430E+03
 -1.37443E+04  5.58562E+02 -1.04509E+04 -8.63786E+03 -1.02762E+03 -1.18543E+04  6.26722E+03 -8.78784E+03
  9.07287E+03 -2.66307E+03  6.05403E+03  2.95695E+03  2.37987E+03  4.16761E+03  1.25584E+03  2.01129E+03
  2.31456E+03  1.07856E+03  3.22919E+03  1.88644E+03  4.47879E+03  5.28612E+03  3.75448E+03  7.66260E+03
 -2.58469E+03  1.13529E+04 -1.04216E+04  1.10568E+04 -1.50281E+04  3.11967E+03 -1.52794E+04 -6.22604E+03
 -7.44451E+03 -1.46722E+04  2.16962E+03 -1.60579E+04  9.00446E+03 -1.04124E+04  1.20660E+04 -2.34481E+03
  9.15783E+03  5.33484E+03  2.07207E+03  8.51607E+03 -4.11950E+03  5.40662E+03 -6.12630E+03 -7.61735E+02
 -2.81018E+03 -6.36100E+03  3.12047E+03 -6.43147E+03  6.20545E+03 -3.10393E+03  6.00102E+03  1.21484E+03
  3.62988E+03  3.02993E+03  1.53095E+03  2.18909E+03 -8.65596E+02  2.14135E+03  1.57374E+03 -7.94921E+02
  2.31647E+03 -5.92051E+02  6.00294E+03  3.01322E+03  3.84456E+03  7.68979E+03 -1.36043E+03  1.03949E+04
 -6.71494E+03  6.45847E+03 -9.06535E+03  1.69689E+03 -8.26648E+03 -3.57828E+03 -3.65039E+03 -6.26822E+03
  9.12053E+02 -5.80190E+03  3.91942E+03 -3.02249E+03  3.37617E+03  2.61998E+03 -1.52330E+03  4.52963E+03
 -5.85701E+03  2.84570E+03 -6.85424E+03 -3.62437E+03 -3.95530E+03 -8.19612E+03  1.20331E+03 -8.39906E+03
  4.77441E+03 -4.89638E+03  5.92004E+03 -6.50945E+02  4.84453E+03  1.96542E+03  1.07440E+03  4.00797E+03
 -2.74489E+03  1.10420E+03 -4.07429E+03 -2.51348E+03  1.05487E+03 -6.36455E+03  7.17055E+03 -5.04089E+03
  9.41076E+03  6.42751E+02  8.65461E+03  6.01432E+03  2.89787E+03  9.83435E+03 -3.34336E+03  9.18911E+03
 -7.61131E+03  3.80623E+03 -8.23197E+03 -1.63448E+03 -4.18111E+03 -6.43008E+03  1.22979E+03 -6.07935E+03
  5.97856E+03 -3.03169E+03  5.13957E+03  2.79523E+03  1.94567E+03  5.14552E+03 -9.29339E+02  4.47942E+03
 -2.81271E+03  3.29752E+03 -2.26445E+03  7.82133E+02 -1.24855E+03  1.29235E+03 -1.62206E+03  1.80955E+03
 -2.59973E+03  3.75739E+03 -6.53534E+03  3.33151E+03 -9.44003E+03  2.46135E+02 -1.04100E+04 -6.69731E+03
 -5.78767E+03 -1.29995E+04  2.41315E+03 -1.49184E+04  9.31881E+03 -1.16502E+04  1.42276E+04 -4.35964E+03
  1.29889E+04  2.77393E+03  8.43099E+03  9.20424E+03  1.00783E+03  9.87664E+03 -4.54451E+03  7.33025E+03
 -5.88166E+03  2.81631E+03 -3.63101E+03 -1.16567E+03 -1.16020E+03 -1.07069E+03 -4.42988E+02 -6.48107E+02
 -1.69218E+03  4.31426E+02 -2.40562E+03 -5.26540E+02 -8.66020E+02 -2.25105E+03  2.15494E+01 -4.15423E+03
  4.69119E+03 -3.46878E+03  6.28671E+03  4.81145E+02  6.92055E+03  5.15464E+03  2.25409E+03  9.99937E+03
 -5.07713E+03  1.12772E+04 -1.04933E+04  6.68314E+03 -1.26350E+04 -8.03192E+02 -9.32131E+03 -7.33233E+03
 -3.56484E+03 -1.03075E+04  2.63534E+03 -8.99923E+03  6.75464E+03 -5.14663E+03  6.87995E+03  2.44348E+02
  3.73199E+03  2.89865E+03 -2.60275E+02  3.05696E+03 -1.80387E+03 -6.03940E+02  4.33665E+02 -2.47155E+03
  2.90193E+03 -1.59788E+03  4.13331E+03  1.57357E+03  2.70683E+03  3.65374E+03  2.17698E+02  5.14763E+03
 -4.40545E+03  4.39080E+03 -7.13150E+03  8.46982E+02 -6.21434E+03 -4.56475E+03 -1.02086E+03 -8.52166E+03
  4.52830E+03 -7.26040E+03  7.99337E+03 -2.25945E+03  8.34876E+03  1.61129E+03  3.95312E+03  5.78138E+03
  6.63186E+02  6.96761E+03 -2.89480E+03  5.81656E+03 -4.12657E+03  3.16171E+03 -3.35654E+03  6.98963E+02
 -2.16191E+03 -4.24366E+02 -1.83445E+03  8.31046E+02 -3.53531E+03  8.54950E+02 -4.99268E+03 -1.06138E+03
 -4.98110E+03 -3.16711E+03 -1.05442E+03 -7.04350E+03  3.27738E+03 -7.17864E+03  5.66219E+03 -3.29901E+03
  6.94151E+03  1.15224E+03  3.68878E+03  5.18022E+03 -5.18494E+02  7.04961E+03 -5.25613E+03  4.51092E+03
