 $NMID ID='MM_0lb_SNR800_15hz_g45_36.RAW', FMTDAT='(8E13.5)'
 TRAMP=1., VOLUME=1. $END
  3.09697E+05  5.25116E+02  3.37508E+05  2.50531E+05  8.44501E+04  3.37621E+05 -1.32693E+05  2.50966E+05
 -1.90215E+05  8.27728E+04 -1.11640E+05 -3.27768E+04  8.23472E+02 -5.02232E+04  5.40558E+04 -1.62660E+02
  3.52720E+04  5.28283E+04 -1.69296E+04  7.53223E+04 -6.05632E+04  6.33225E+04 -8.37640E+04  3.16680E+04
 -8.05849E+04 -1.12785E+04 -5.69465E+04 -5.11791E+04 -1.48914E+04 -6.91458E+04  2.72186E+04 -4.55189E+04
  3.96455E+04  3.81566E+03  1.59503E+04  4.76939E+04 -3.43069E+04  4.70133E+04 -6.60272E+04 -4.36624E+02
 -5.30084E+04 -5.65521E+04 -6.40739E+03 -7.63592E+04  3.36909E+04 -5.42921E+04  4.72702E+04 -1.69615E+04
  4.27633E+04  1.12933E+04  3.15784E+04  2.53408E+04  1.58343E+04  2.87141E+04 -5.01982E+03  2.69517E+04
 -2.19114E+04  1.26937E+04 -1.85433E+04 -4.98318E+03  5.37840E+03 -7.48168E+03  2.19125E+04  1.18066E+04
  7.41988E+03  3.45528E+04 -3.15752E+04  3.49824E+04 -6.26705E+04  2.07676E+03 -5.63723E+04 -4.23592E+04
 -1.22985E+04 -6.23632E+04  3.88858E+04 -4.48307E+04  5.72583E+04 -2.16906E+03  3.36354E+04  3.18117E+04
 -5.98288E+03  3.50719E+04 -2.93990E+04  1.52096E+04 -2.94705E+04 -4.81621E+03 -1.58305E+04 -1.05863E+04
 -8.11997E+03 -1.23349E+04 -1.04711E+03 -1.75551E+04  7.23634E+03 -2.27817E+04  1.51073E+04 -1.35293E+04
  1.15437E+04  4.96619E+03 -7.60791E+03  1.33750E+04 -2.04550E+04 -3.64686E+03 -8.14573E+03 -3.26021E+04
  2.21146E+04 -4.23139E+04  4.71432E+04 -1.93769E+04  4.42383E+04  1.92059E+04  1.52174E+04  4.32816E+04
 -1.54975E+04  3.26069E+04 -2.43064E+04  1.56515E+03 -9.30297E+03 -2.72510E+04  2.07741E+04 -3.30681E+04
  4.01240E+04 -8.18744E+03  3.42716E+04  2.34662E+04  1.68348E+04  4.52176E+04 -7.96199E+03  4.84971E+04
 -3.02444E+04  3.24957E+04 -4.03895E+04  9.09102E+03 -4.16856E+04 -1.59154E+04 -2.26530E+04 -3.70516E+04
  7.23296E+03 -3.68144E+04  3.08240E+04 -1.38582E+04  2.83160E+04  1.11647E+04  3.66175E+03  1.89238E+04
 -1.34501E+04  7.88883E+03 -1.00621E+04 -7.58681E+03  5.91002E+03 -1.04322E+04  1.77244E+04  5.99309E+03
  1.30829E+04  2.20641E+04 -6.08507E+03  2.43721E+04 -2.21668E+04  1.05353E+04 -2.67548E+04 -4.90507E+03
 -1.92915E+04 -1.71083E+04 -7.47682E+03 -1.95908E+04  4.21502E+03 -1.80682E+04  1.48479E+04 -1.73106E+04
  2.41782E+04 -1.27721E+04  3.09231E+04  2.25476E+03  2.32726E+04  1.89085E+04  4.33741E+03  3.52060E+04
 -1.72441E+04  2.94200E+04 -2.71922E+04  1.01654E+04 -2.08688E+04 -1.03610E+04 -3.98234E+03 -1.33678E+04
  2.15692E+03 -3.30583E+03 -4.29883E+03  5.87587E+03 -1.49834E+04  5.01791E+03 -1.52664E+04 -6.16944E+03
 -9.62068E+03 -1.79465E+04  4.92140E+03 -2.19200E+04  1.45760E+04 -1.60385E+04  1.70994E+04 -1.31174E+03
  1.06273E+04  1.23406E+04 -9.85778E+02  1.77820E+04 -1.21888E+04  1.01402E+04 -1.76913E+04 -4.00737E+03
 -1.33833E+04 -1.62097E+04 -1.89255E+03 -2.18743E+04  9.55850E+03 -1.79385E+04  1.79313E+04 -8.47354E+03
  1.65494E+04  4.46497E+02  1.21041E+04  4.27360E+03  6.46193E+03  8.58304E+02  9.00947E+03 -1.56885E+03
  1.65117E+04  2.90125E+03  1.81092E+04  1.44237E+04  1.16016E+04  2.82688E+04 -3.06301E+03  3.18888E+04
 -1.87799E+04  2.52183E+04 -2.93626E+04  1.24127E+04 -3.05109E+04 -2.14016E+03 -2.57505E+04 -1.77303E+04
 -1.12670E+04 -2.52192E+04  8.79940E+03 -2.30859E+04  1.97828E+04 -1.21587E+04  1.76307E+04  4.81375E+03
  7.15957E+03  1.32227E+04 -8.52447E+03  1.20659E+04 -1.53087E+04  2.54427E+03 -1.15848E+04 -9.35862E+03
 -2.57838E+02 -1.46287E+04  7.43921E+03 -1.05386E+04  9.40874E+03 -1.12670E+03  1.95895E+03  5.81884E+03
 -6.51207E+03  1.95301E+03 -5.17360E+03 -5.23892E+03 -2.62252E+02 -1.24907E+04  9.15716E+03 -1.26169E+04
  1.53651E+04 -6.72902E+03  1.59034E+04  2.95168E+03  1.39514E+04  1.19271E+04  6.50233E+03  1.80159E+04
 -2.78406E+03  2.02424E+04 -1.27768E+04  1.28661E+04 -1.42055E+04  3.28591E+03 -1.03929E+04 -2.94777E+03
 -4.98496E+03 -4.50600E+03 -4.06724E+02  1.27062E+03 -2.41228E+03  2.20179E+03 -4.59285E+03  4.22757E+03
 -9.86637E+03 -6.68749E+02 -1.04859E+04 -8.48933E+03 -4.16379E+03 -1.36133E+04  4.06062E+03 -1.07408E+04
  8.73871E+03 -4.36175E+03  6.15870E+03  2.68198E+03  1.01394E+02  4.13687E+03 -4.60670E+03 -3.49130E+02
 -4.86044E+03 -6.67474E+03 -8.22704E+02 -9.57107E+03  5.32241E+03 -1.04675E+04  1.25429E+04 -5.19457E+03
  1.49395E+04  9.10917E+02  1.09781E+04  8.49739E+03  2.27376E+03  1.15245E+04 -6.28620E+03  1.02103E+04
 -8.59487E+03  3.38881E+03 -4.24642E+03 -1.70474E+03  1.57157E+03 -2.41135E+03  5.72188E+03 -9.76243E+02
  4.88595E+03  4.59726E+03  1.22027E+03  8.16912E+03 -5.74124E+03  7.88044E+03 -9.94392E+03  1.89904E+03
 -6.21761E+03 -4.62041E+03  4.84198E+01 -8.49575E+03  4.87005E+03 -4.54771E+03  5.09188E+03  1.70704E+03
  8.28940E+02  5.07543E+03 -5.15838E+03  6.45122E+03 -6.85620E+03  3.07678E+03 -6.84984E+03 -2.06329E+03
 -4.29162E+03 -8.49321E+03  1.82038E+03 -9.84452E+03  8.36065E+03 -6.28197E+03  9.42592E+03  1.62742E+03
  5.68242E+03  7.37191E+03 -2.54646E+02  9.45705E+03 -6.82572E+03  5.39768E+03 -7.06564E+03 -6.35215E+02
 -7.27443E+03 -6.73480E+03 -1.13411E+03 -6.87486E+03  3.61614E+03 -5.93240E+03  4.07472E+03 -3.12174E+03
  3.29536E+03  6.65077E+02 -1.06788E+02  1.58819E+03  4.05183E+02 -1.06207E+03  7.55664E+02 -3.33904E+03
  5.91821E+03 -1.74355E+03  7.98856E+03  1.13858E+03  7.96053E+03  4.91186E+03  6.49199E+03  1.04785E+04
 -2.07640E+03  1.21720E+04 -1.05666E+04  9.33259E+03 -1.38903E+04  1.61965E+03 -1.09189E+04 -4.14425E+03
 -5.70934E+03 -9.05276E+03 -5.00694E+02 -7.49596E+03  2.65780E+03 -3.64815E+03  2.40734E+03 -2.68850E+03
  1.74344E+03 -1.97881E+03  2.41683E+03 -2.68349E+03  4.03128E+03 -1.92183E+03  4.94857E+03 -9.37022E+01
  5.94546E+03  1.46393E+03  2.23687E+03  4.81236E+03 -1.64567E+03  4.82214E+03 -5.98023E+03  3.85771E+03
 -7.13117E+03 -9.33133E+02 -3.82321E+03 -4.64604E+03  2.00392E+02 -7.63589E+03  4.39735E+03 -7.78715E+03
  8.21302E+03 -4.74524E+03  1.00182E+04  8.33277E+02  7.10865E+03  6.42800E+03  1.56398E+03  9.07284E+03
 -3.60661E+03  8.27205E+03 -4.76904E+03  2.49763E+03 -3.16071E+03 -9.86351E+02 -1.07749E+03 -1.08054E+03
 -8.77292E+02  1.75543E+02 -1.41131E+03  2.54665E+03 -3.38861E+03  1.37151E+03 -5.87156E+03 -8.56460E+02
 -2.69919E+03 -5.59037E+03  4.80382E+02 -7.18996E+03  4.15043E+03 -6.37966E+03  6.24677E+03 -1.77870E+03
  6.90417E+03  3.63858E+03  2.92673E+03  5.63026E+03 -1.23490E+03  6.88510E+03 -4.68632E+03  4.30459E+03
 -6.02540E+03  8.13690E+02 -4.89996E+03 -3.88667E+03 -6.39234E+02 -5.22728E+03  2.84110E+03 -3.92353E+03
  3.94501E+03 -1.66627E+03  2.99344E+03  6.63764E+02  7.95315E+02  2.28664E+03  1.00763E+03  9.01592E+02
  1.74985E+03  7.51061E+02  1.80188E+03  1.39924E+03  1.85450E+03  2.93024E+03  1.79920E+03  3.40737E+03
 -1.66338E+03  4.97264E+03 -4.47796E+03  5.89572E+03 -5.75101E+03  1.62784E+03 -6.90796E+03 -1.87522E+03
 -2.95074E+03 -6.30062E+03  1.21523E+03 -7.19008E+03  3.36584E+03 -4.28228E+03  4.76749E+03 -1.15865E+03
  3.94971E+03  2.45012E+03  5.93113E+02  3.48289E+03 -1.52792E+03  2.26073E+03 -2.34844E+03 -3.33646E+02
 -1.00424E+03 -2.42691E+03  1.91102E+03 -2.72398E+03  2.48648E+03 -1.45656E+03  2.64132E+03  2.95817E+02
  1.41609E+03  1.14904E+03  1.13062E+03  4.18327E+02 -4.26933E+02  8.76135E+02  1.66909E+03 -4.39783E+02
  4.34976E+02 -3.54115E+02  2.97891E+03  1.06787E+03  1.01197E+03  3.66201E+03 -4.12010E+02  4.73360E+03
 -2.72587E+03  1.98284E+03 -3.58300E+03  6.42824E+02 -3.37831E+03 -1.14660E+03 -8.26056E+02 -1.91747E+03
  3.48787E+02 -2.16836E+03  1.60064E+03 -1.29070E+03  1.75164E+03  1.60373E+03 -7.72308E+02  1.79341E+03
 -2.52828E+03  1.29609E+03 -2.30915E+03 -1.76533E+03 -1.33988E+03 -3.55014E+03  2.55995E+02 -2.96197E+03
  1.58612E+03 -1.36484E+03  1.87126E+03  2.06746E+02  2.18974E+03  3.12550E+02  3.40177E+02  1.60362E+03
 -1.14442E+03  5.42901E+02 -1.61831E+03 -6.68662E+02  9.39104E+02 -1.83599E+03  2.67267E+03 -1.76447E+03
  3.26463E+03  4.19268E+02  4.42164E+03  1.82792E+03  1.54259E+03  3.23507E+03 -1.10868E+03  3.39616E+03
 -2.82732E+03  8.48435E+02 -2.77902E+03 -4.19780E+02 -1.77324E+03 -2.56554E+03  5.78383E+02 -1.76167E+03
  2.73724E+03 -1.44064E+03  1.52591E+03  8.55624E+02  6.26140E+02  1.79908E+03  8.38648E+01  2.01549E+03
 -1.13304E+03  1.44929E+03 -8.98445E+02  7.87795E+02 -2.79559E+02  6.11125E+02 -1.17359E+03  1.09941E+03
 -8.02392E+02  1.70594E+03 -3.03262E+03  1.24156E+03 -3.19174E+03 -1.84732E+02 -3.92959E+03 -2.00847E+03
 -2.01227E+03 -4.76213E+03  1.05205E+03 -5.43724E+03  3.06675E+03 -4.30011E+03  5.02436E+03 -1.59514E+03
  4.42147E+03  2.91535E+02  2.35720E+03  3.20552E+03 -3.80370E+02  3.15284E+03 -1.35871E+03  2.52774E+03
 -1.72214E+03  1.33679E+03 -1.35074E+03 -3.79544E+02 -5.89337E+02 -9.67530E+01 -6.11071E+02  2.21963E+02
 -1.28778E+03  1.48452E+02 -1.25142E+03  3.08247E+02  9.30102E+01 -7.42597E+02 -3.05781E+02 -1.28632E+03
  1.94623E+03 -1.13512E+03  1.63136E+03 -1.04301E+02  2.37994E+03  1.98627E+03 -1.04387E+02  3.46242E+03
 -1.37961E+03  3.99092E+03 -3.08463E+03  2.50488E+03 -3.54857E+03 -9.46372E+01 -3.06794E+03 -2.55632E+03
 -1.61972E+03 -2.96160E+03  7.14325E+02 -2.78938E+03  1.63645E+03 -1.55483E+03  1.93401E+03  2.17127E+01
  1.35392E+03  8.94356E+02 -6.35735E+00  7.87285E+02 -8.71912E+02  2.86312E+02 -2.50172E+01 -7.79288E+02
  9.52656E+02 -3.12117E+02  6.93895E+02  6.14226E+02  6.73578E+02  9.07054E+02  4.95085E+02  1.13999E+03
 -1.72931E+03  1.51369E+03 -1.58689E+03  4.70579E+02 -1.81007E+03 -1.20492E+03 -2.56214E+02 -2.55295E+03
  1.37364E+03 -1.75675E+03  1.89714E+03 -2.32637E+02  2.18637E+03  5.29249E+01  9.81675E+02  1.85655E+03
  4.93331E+02  1.52978E+03 -7.83632E+02  1.57742E+03 -1.25832E+03  1.13385E+03 -8.81917E+02  2.59849E+02
 -4.51580E+02 -3.94910E+02 -8.22947E+02  5.28353E+02 -8.38121E+02  3.67354E+02 -1.36706E+03 -5.33918E+02
 -1.93365E+03 -5.29758E+02 -5.48679E+02 -1.89067E+03  1.08843E+03 -2.65550E+03  1.72600E+03 -7.43293E+02
  1.79992E+03  3.35722E+02  5.56489E+02  9.94401E+02  9.94608E+01  1.93831E+03 -1.15229E+03  1.51933E+03
