 $NMID ID='MM_0lb_SNR800_18hz_g55_3.RAW', FMTDAT='(8E13.5)'
 TRAMP=1., VOLUME=1. $END
  3.09780E+05  3.35231E+02  3.37223E+05  2.50487E+05  8.44338E+04  3.37575E+05 -1.32573E+05  2.50749E+05
 -1.90035E+05  8.30497E+04 -1.11581E+05 -3.26626E+04  1.08621E+03 -5.03864E+04  5.37992E+04  1.38594E+02
  3.52748E+04  5.28337E+04 -1.67963E+04  7.50027E+04 -6.03809E+04  6.34071E+04 -8.36131E+04  3.17656E+04
 -8.04193E+04 -1.14052E+04 -5.68006E+04 -5.09335E+04 -1.50058E+04 -6.89785E+04  2.71904E+04 -4.52181E+04
  3.95293E+04  3.81297E+03  1.55963E+04  4.73501E+04 -3.42360E+04  4.65874E+04 -6.60529E+04 -2.71192E+02
 -5.25771E+04 -5.66629E+04 -6.41924E+03 -7.65063E+04  3.33672E+04 -5.41048E+04  4.70026E+04 -1.67834E+04
  4.19515E+04  1.10537E+04  3.13049E+04  2.52102E+04  1.57630E+04  2.87963E+04 -5.17746E+03  2.67810E+04
 -2.18027E+04  1.27364E+04 -1.84801E+04 -4.99624E+03  4.93469E+03 -7.48530E+03  2.16544E+04  1.17442E+04
  7.22013E+03  3.43904E+04 -3.14347E+04  3.46508E+04 -6.23003E+04  2.04852E+03 -5.64495E+04 -4.21333E+04
 -1.20405E+04 -6.19142E+04  3.86630E+04 -4.42311E+04  5.67878E+04 -2.30878E+03  3.27284E+04  3.15199E+04
 -6.17275E+03  3.44274E+04 -2.92275E+04  1.46013E+04 -2.86295E+04 -4.95652E+03 -1.55427E+04 -1.04499E+04
 -7.90122E+03 -1.20908E+04 -7.97824E+02 -1.75367E+04  7.15585E+03 -2.29477E+04  1.52690E+04 -1.38572E+04
  1.14847E+04  4.69928E+03 -6.94053E+03  1.27430E+04 -2.00860E+04 -3.40849E+03 -7.85914E+03 -3.18512E+04
  2.14418E+04 -4.19071E+04  4.61972E+04 -1.90220E+04  4.35849E+04  1.85713E+04  1.46501E+04  4.26492E+04
 -1.54007E+04  3.22362E+04 -2.42471E+04  1.24895E+03 -8.54174E+03 -2.67037E+04  2.08747E+04 -3.20976E+04
  3.89544E+04 -7.95046E+03  3.30878E+04  2.32760E+04  1.64610E+04  4.44146E+04 -7.77731E+03  4.72729E+04
 -2.96967E+04  3.12352E+04 -3.90519E+04  8.64910E+03 -3.98388E+04 -1.57143E+04 -2.24029E+04 -3.55228E+04
  7.00563E+03 -3.56028E+04  2.99664E+04 -1.37093E+04  2.79539E+04  1.07324E+04  3.45232E+03  1.84247E+04
 -1.33032E+04  7.78823E+03 -1.00273E+04 -7.79254E+03  5.60171E+03 -1.02561E+04  1.75349E+04  6.01974E+03
  1.27993E+04  2.18317E+04 -6.33941E+03  2.39840E+04 -2.15847E+04  1.01418E+04 -2.62895E+04 -5.87468E+03
 -1.80724E+04 -1.66620E+04 -6.78659E+03 -1.81037E+04  3.75128E+03 -1.63572E+04  1.37206E+04 -1.58442E+04
  2.30490E+04 -1.20569E+04  2.96952E+04  1.54411E+03  2.22355E+04  1.76345E+04  4.20275E+03  3.39894E+04
 -1.68052E+04  2.83206E+04 -2.67868E+04  9.90329E+03 -2.01868E+04 -1.03770E+04 -4.04111E+03 -1.36503E+04
  2.16549E+03 -3.55503E+03 -3.35701E+03  5.72851E+03 -1.39091E+04  5.17115E+03 -1.44962E+04 -5.60695E+03
 -9.21396E+03 -1.66482E+04  4.67685E+03 -2.04102E+04  1.34087E+04 -1.48159E+04  1.58277E+04 -1.64609E+03
  9.63478E+03  1.14561E+04 -8.91025E+02  1.70166E+04 -1.10124E+04  9.41308E+03 -1.65129E+04 -3.47691E+03
 -1.19233E+04 -1.48688E+04 -1.62912E+03 -2.04176E+04  8.83121E+03 -1.65258E+04  1.70941E+04 -7.84741E+03
  1.52428E+04  9.40473E+02  1.11170E+04  3.91827E+03  5.62707E+03  8.59696E+02  8.05994E+03 -1.56894E+03
  1.51578E+04  2.63168E+03  1.61850E+04  1.33540E+04  1.00843E+04  2.65369E+04 -2.94546E+03  2.89816E+04
 -1.69334E+04  2.24734E+04 -2.65874E+04  1.08283E+04 -2.73908E+04 -2.24758E+03 -2.32273E+04 -1.55026E+04
 -1.04654E+04 -2.23364E+04  7.63892E+03 -2.06982E+04  1.81292E+04 -1.15121E+04  1.67398E+04  4.18200E+03
  6.69185E+03  1.22284E+04 -7.42078E+03  1.11590E+04 -1.37982E+04  2.50217E+03 -1.07701E+04 -8.53843E+03
 -8.08982E+01 -1.31729E+04  6.68925E+03 -1.01937E+04  8.52946E+03 -1.34528E+03  1.84216E+03  5.61600E+03
 -5.70826E+03  1.51010E+03 -4.21377E+03 -5.03169E+03  4.42202E+02 -1.08674E+04  8.44056E+03 -1.11539E+04
  1.33536E+04 -5.46368E+03  1.33757E+04  3.06301E+03  1.16635E+04  1.05354E+04  5.80047E+03  1.55819E+04
 -2.24959E+03  1.74929E+04 -1.05634E+04  1.10561E+04 -1.26965E+04  3.02469E+03 -9.06270E+03 -2.51230E+03
 -4.75955E+03 -3.49030E+03 -1.03435E+03  1.39256E+03 -1.87745E+03  2.09790E+03 -3.96428E+03  3.75096E+03
 -8.90408E+03 -6.36323E+02 -9.28679E+03 -7.87134E+03 -3.96787E+03 -1.24029E+04  3.79849E+03 -8.96966E+03
  7.65455E+03 -3.80066E+03  5.30744E+03  2.41128E+03  4.12399E+02  3.43090E+03 -4.04629E+03 -8.29674E+01
 -3.80363E+03 -5.72030E+03 -9.80320E+02 -7.99265E+03  4.60238E+03 -8.42610E+03  1.07268E+04 -4.37883E+03
  1.28259E+04  8.83845E+02  9.63168E+03  6.70813E+03  1.81538E+03  9.70855E+03 -5.61430E+03  8.97198E+03
 -7.41496E+03  2.74751E+03 -3.97721E+03 -1.41620E+03  1.44117E+03 -2.28440E+03  4.83365E+03 -8.23778E+02
  4.41404E+03  3.87777E+03  1.40950E+03  6.92279E+03 -4.72674E+03  6.54202E+03 -8.42725E+03  1.85289E+03
 -5.48148E+03 -4.11532E+03  2.06120E+02 -7.16943E+03  4.21303E+03 -3.63245E+03  3.81288E+03  1.06531E+03
  8.45572E+02  3.74747E+03 -4.44609E+03  5.24337E+03 -5.56875E+03  2.69611E+03 -5.52933E+03 -1.24876E+03
 -3.13221E+03 -7.07209E+03  1.50505E+03 -7.82521E+03  6.57330E+03 -4.89279E+03  7.32564E+03  7.37048E+02
  4.94930E+03  5.79913E+03  3.12858E+02  8.12871E+03 -5.27009E+03  4.52758E+03 -5.93680E+03 -4.41766E+02
 -6.11666E+03 -5.77220E+03 -1.55671E+03 -5.31096E+03  2.85913E+03 -5.28676E+03  3.30118E+03 -2.89808E+03
  2.97348E+03  2.80324E+02  8.99322E+01  1.54468E+03  5.61176E+02 -5.50637E+02  5.19837E+02 -2.19240E+03
  4.36684E+03 -8.99461E+02  5.98382E+03  6.85725E+02  6.03677E+03  3.60332E+03  5.59908E+03  8.08774E+03
 -1.22856E+03  9.46186E+03 -8.17911E+03  7.33820E+03 -1.09032E+04  1.51515E+03 -8.67542E+03 -3.03144E+03
 -4.63367E+03 -7.18081E+03 -6.52641E+02 -5.42964E+03  2.54278E+03 -2.39136E+03  1.92283E+03 -2.34804E+03
  1.43537E+03 -1.52612E+03  2.00461E+03 -2.54662E+03  3.51966E+03 -1.51778E+03  3.95500E+03  3.44903E+02
  4.81428E+03  1.25662E+03  1.15961E+03  3.62084E+03 -1.44962E+03  3.37548E+03 -4.71012E+03  2.84314E+03
 -5.40309E+03 -8.58789E+02 -2.23166E+03 -3.66515E+03  4.33575E+02 -5.41181E+03  3.56180E+03 -5.78684E+03
  5.83354E+03 -3.52579E+03  7.55880E+03  4.48147E+02  5.29562E+03  4.48735E+03  1.25867E+03  6.56193E+03
 -2.26640E+03  6.21220E+03 -3.76772E+03  2.03514E+03 -1.88830E+03 -9.84931E+02 -8.96709E+02 -7.93149E+02
 -3.78348E+02  3.13568E+02 -1.01653E+03  1.89550E+03 -2.75957E+03  1.02344E+03 -4.47365E+03 -3.13762E+02
 -1.79486E+03 -4.28060E+03  4.78915E+02 -4.97992E+03  3.23085E+03 -4.67960E+03  3.97771E+03 -1.29383E+03
  4.50261E+03  2.63079E+03  2.19901E+03  3.82009E+03 -1.06127E+03  4.96264E+03 -2.99785E+03  2.90828E+03
 -4.33150E+03  7.40583E+02 -3.76335E+03 -2.68450E+03 -1.91436E+02 -3.57356E+03  1.88330E+03 -2.84222E+03
  2.85965E+03 -1.16800E+03  2.18025E+03  6.34755E+02  4.37826E+02  1.69682E+03  9.33455E+02  4.52226E+02
  1.54215E+03  6.80039E+02  1.15037E+03  1.01362E+03  1.34208E+03  2.04893E+03  1.56269E+03  1.90871E+03
 -1.22836E+03  3.41134E+03 -2.71928E+03  4.46772E+03 -3.68077E+03  1.27729E+03 -4.49139E+03 -3.35909E+02
 -2.06792E+03 -4.11803E+03  7.27241E+02 -5.00317E+03  1.94840E+03 -2.96067E+03  3.23584E+03 -9.33573E+02
  3.07558E+03  2.11568E+03  2.37912E+02  2.35119E+03 -7.76841E+02  1.30620E+03 -1.18673E+03 -1.24239E+02
 -6.60271E+02 -1.82734E+03  1.47630E+03 -1.49847E+03  1.27176E+03 -1.04525E+03  1.57059E+03  3.56804E+02
  9.54791E+02  1.90685E+02  7.93656E+02 -8.71607E+01 -4.80549E+02  8.41590E+02  1.37091E+03 -2.89466E+02
  1.24904E+02 -3.50663E+02  1.82370E+03  7.45352E+02  2.31028E+01  2.42954E+03 -6.68702E+02  3.04144E+03
 -1.62743E+03  1.21731E+03 -2.26874E+03  3.32080E+02 -2.18162E+03 -7.98461E+02 -3.34674E+02 -1.27121E+03
  4.93206E+02 -1.39849E+03  8.57781E+02 -7.82029E+02  6.66706E+02  1.36623E+03 -7.81120E+02  1.32451E+03
 -1.76978E+03  8.03055E+02 -1.49540E+03 -1.39109E+03 -5.71593E+02 -2.18014E+03  5.03292E+01 -1.96509E+03
  6.08789E+02 -6.46227E+02  7.27948E+02  1.16676E+02  1.60671E+03 -4.40826E+01  2.97204E+02  1.23326E+03
 -3.16101E+02  5.42422E+02 -9.68694E+02 -2.65536E+02  7.63524E+02 -1.16108E+03  1.88264E+03 -8.88431E+02
  1.28802E+03  3.51529E+02  2.92801E+03  7.20636E+02  1.34291E+03  1.75805E+03 -4.82136E+02  2.04769E+03
 -1.51462E+03  2.99339E+02 -1.54118E+03 -1.90070E+02 -8.91770E+02 -1.39436E+03  3.93459E+02 -3.42828E+02
  1.50595E+03 -4.99870E+02  9.22784E+02  1.05240E+03  3.13592E+02  1.15294E+03  7.20148E+01  1.35610E+03
 -2.66731E+02  1.05101E+03 -4.72847E+02  3.25815E+02 -1.24212E+02  2.99694E+02 -5.92224E+02  4.38229E+02
 -7.81658E+02  7.44687E+02 -2.04868E+03  3.01577E+02 -2.08003E+03  5.16540E+01 -2.50536E+03 -9.31571E+02
 -1.14533E+03 -2.46517E+03  6.99205E+02 -2.95316E+03  1.34585E+03 -2.67150E+03  2.75380E+03 -9.95384E+02
  2.60607E+03 -1.80438E+02  1.16176E+03  1.80352E+03 -3.60875E+02  1.35687E+03 -6.87911E+02  1.55539E+03
 -1.03100E+03  6.52967E+02 -3.11036E+02 -1.56085E+02 -5.21305E+02  8.21209E-01 -7.54790E+02  4.28660E+01
 -9.20042E+02 -1.37710E+02 -1.09732E+03 -8.95222E+01  2.68309E+02 -7.14034E+02 -2.78646E+02 -1.10774E+03
  1.49228E+03 -7.98383E+02  4.96655E+01  2.44076E+02  8.97748E+02  9.43069E+02 -3.29619E+02  1.45307E+03
 -1.10193E+03  2.54261E+03 -1.78758E+03  1.33965E+03 -1.71119E+03 -3.73417E+02 -1.36979E+03 -1.26714E+03
 -1.00089E+03 -1.60054E+03  3.87295E+02 -1.23794E+03  8.22441E+02 -4.36996E+02  7.55553E+02  6.04310E+01
  9.35391E+02  3.36321E+02  3.43764E+02  2.69835E+02 -6.89349E+02 -3.63289E+02 -4.42363E+01 -3.04914E+02
  4.90038E+02 -8.49999E+01  6.97180E+02  5.03953E+02  1.35348E+02  6.53450E+02  5.59348E+02  1.82304E+02
 -7.75335E+02  7.68103E+02 -6.72460E+02  6.36045E+01 -9.07419E+02 -4.28804E+02  8.53234E+01 -1.29205E+03
  5.99296E+02 -8.22268E+02  7.26158E+02 -2.29814E+02  1.25116E+03 -5.48718E+02  4.87634E+02  4.77302E+02
  5.81683E+02  6.83783E+02 -8.09966E+01  8.07144E+02 -3.80665E+02  3.96549E+02 -3.27970E+02  1.28680E+02
 -5.03514E+01 -9.71280E+00 -5.55812E+02  3.47226E+01 -5.46301E+02 -6.00453E+00 -9.03038E+02 -1.32118E+02
 -9.65797E+02  1.32002E+02 -5.79056E+02 -1.10819E+03  8.16148E+02 -2.18332E+03  9.02672E+02 -4.63905E+02
  5.02417E+02  9.67648E+01 -1.68902E+02  2.32075E+02 -2.38448E+02  1.00592E+03 -3.77563E+02  7.19418E+02
