 $NMID ID='MM_0lb_SNR800_9hz_g55_5.RAW', FMTDAT='(8E13.5)'
 TRAMP=1., VOLUME=1. $END
  3.09697E+05  2.56039E+02  3.38053E+05  2.50972E+05  8.51799E+04  3.38797E+05 -1.32632E+05  2.51928E+05
 -1.91068E+05  8.40476E+04 -1.12714E+05 -3.24026E+04  3.82549E+02 -5.08790E+04  5.37976E+04 -4.27216E+02
  3.58086E+04  5.28785E+04 -1.68027E+04  7.61062E+04 -6.11523E+04  6.45999E+04 -8.51825E+04  3.25983E+04
 -8.24406E+04 -1.15810E+04 -5.82629E+04 -5.22808E+04 -1.50297E+04 -7.13113E+04  2.81969E+04 -4.67798E+04
  4.13422E+04  3.85365E+03  1.68682E+04  4.87619E+04 -3.48872E+04  4.80991E+04 -6.82552E+04  7.13707E+02
 -5.51767E+04 -5.78155E+04 -7.27073E+03 -7.88752E+04  3.51165E+04 -5.76555E+04  4.95568E+04 -1.85767E+04
  4.54980E+04  1.19450E+04  3.32511E+04  2.62902E+04  1.62453E+04  3.10111E+04 -5.81250E+03  2.76432E+04
 -2.27082E+04  1.15499E+04 -1.81465E+04 -5.79239E+03  7.23243E+03 -7.44816E+03  2.37488E+04  1.37865E+04
  6.88447E+03  3.78437E+04 -3.35849E+04  3.70420E+04 -6.65232E+04  2.10063E+03 -5.91934E+04 -4.51728E+04
 -1.26474E+04 -6.64711E+04  4.21369E+04 -4.74275E+04  6.16095E+04 -2.93867E+03  3.68700E+04  3.45992E+04
 -5.29822E+03  3.96101E+04 -3.22575E+04  1.88141E+04 -3.34906E+04 -3.43209E+03 -1.96030E+04 -1.21632E+04
 -9.80061E+03 -1.54541E+04 -1.37765E+02 -1.95565E+04  8.42834E+03 -2.36236E+04  1.58965E+04 -1.25160E+04
  1.03932E+04  6.48880E+03 -1.08512E+04  1.28367E+04 -2.38538E+04 -6.68961E+03 -8.58143E+03 -3.78736E+04
  2.57898E+04 -4.73412E+04  5.26563E+04 -2.11719E+04  4.89403E+04  2.12402E+04  1.72687E+04  4.76384E+04
 -1.72921E+04  3.61491E+04 -2.80662E+04  2.54519E+03 -1.20482E+04 -2.97598E+04  2.20487E+04 -3.71774E+04
  4.48555E+04 -1.14593E+04  4.06529E+04  2.50772E+04  2.18216E+04  5.14353E+04 -8.61046E+03  5.70575E+04
 -3.60517E+04  3.89395E+04 -4.84648E+04  1.15054E+04 -4.80422E+04 -1.90814E+04 -2.65274E+04 -4.26488E+04
  7.87183E+03 -4.23449E+04  3.43996E+04 -1.73803E+04  3.22227E+04  1.17044E+04  4.91678E+03  2.10343E+04
 -1.38072E+04  9.44636E+03 -1.09712E+04 -7.44742E+03  5.57803E+03 -1.16286E+04  1.90428E+04  5.79433E+03
  1.47170E+04  2.30823E+04 -5.09697E+03  2.72971E+04 -2.34306E+04  1.46425E+04 -3.20420E+04 -2.95828E+03
 -2.54965E+04 -1.81966E+04 -1.18676E+04 -2.56138E+04  4.62601E+03 -2.61246E+04  2.00002E+04 -2.30030E+04
  3.27740E+04 -1.46451E+04  3.83349E+04  5.20714E+03  2.72132E+04  2.48517E+04  4.68541E+03  4.22007E+04
 -2.03218E+04  3.44720E+04 -3.07188E+04  1.22698E+04 -2.22884E+04 -9.87140E+03 -5.04254E+03 -1.24752E+04
  5.37982E+02 -1.18945E+03 -7.50666E+03  8.16851E+03 -2.08783E+04  5.04807E+03 -2.08053E+04 -9.79660E+03
 -1.23510E+04 -2.40339E+04  6.54211E+03 -2.83388E+04  1.94268E+04 -1.98985E+04  2.32414E+04 -1.96198E+03
  1.46485E+04  1.63716E+04 -1.37047E+03  2.35375E+04 -1.73725E+04  1.35322E+04 -2.40327E+04 -4.79896E+03
 -1.75252E+04 -2.14225E+04 -1.82026E+03 -2.88842E+04  1.26823E+04 -2.39775E+04  2.36651E+04 -1.23941E+04
  2.25224E+04 -1.86330E+02  1.64157E+04  5.29322E+03  8.94044E+03  1.53105E+03  1.21851E+04 -2.02348E+03
  2.23952E+04  2.99121E+03  2.56982E+04  1.86192E+04  1.76672E+04  3.89038E+04 -2.42862E+03  4.56716E+04
 -2.58550E+04  3.76292E+04 -4.30862E+04  1.96036E+04 -4.57624E+04 -3.46459E+03 -3.74853E+04 -2.67716E+04
 -1.50372E+04 -3.77923E+04  1.36439E+04 -3.37101E+04  2.83815E+04 -1.54231E+04  2.44961E+04  7.63794E+03
  8.27784E+03  1.93757E+04 -1.14594E+04  1.58761E+04 -2.07056E+04  2.44205E+03 -1.55634E+04 -1.32460E+04
 -7.31723E+02 -2.00168E+04  1.08656E+04 -1.46831E+04  1.39159E+04 -1.05325E+03  3.95278E+03  8.83173E+03
 -8.98571E+03  4.29817E+03 -9.52901E+03 -7.26662E+03 -1.75915E+03 -1.84869E+04  1.18392E+04 -2.03448E+04
  2.37062E+04 -1.14799E+04  2.70858E+04  3.21496E+03  2.33754E+04  1.95795E+04  1.08477E+04  2.99868E+04
 -5.49657E+03  3.17683E+04 -2.11087E+04  1.97596E+04 -2.35244E+04  4.49895E+03 -1.57660E+04 -6.50066E+03
 -6.93000E+03 -7.57209E+03 -5.76245E+02  3.68804E+02 -2.84983E+03  3.44532E+03 -8.03278E+03  5.52244E+03
 -1.46020E+04 -1.25290E+03 -1.50627E+04 -1.23539E+04 -6.12616E+03 -1.98752E+04  6.62783E+03 -1.58530E+04
  1.32012E+04 -7.19560E+03  9.17832E+03  4.43456E+03 -6.66430E+02  6.41112E+03 -7.96452E+03 -2.70727E+02
 -8.02444E+03 -1.06551E+04 -9.72444E+02 -1.62506E+04  9.58203E+03 -1.68506E+04  2.05933E+04 -9.20985E+03
  2.40260E+04  2.23473E+03  1.75266E+04  1.45338E+04  3.72146E+03  1.95538E+04 -9.93353E+03  1.60692E+04
 -1.30809E+04  4.41663E+03 -6.81788E+03 -3.42586E+03  2.13623E+03 -4.35502E+03  7.86312E+03 -1.01660E+03
  7.45157E+03  6.83450E+03  1.25676E+03  1.28576E+04 -8.76988E+03  1.23982E+04 -1.65353E+04  2.89556E+03
 -1.12738E+04 -8.14115E+03  2.79829E+02 -1.39143E+04  9.01854E+03 -6.93601E+03  9.96612E+03  3.28946E+03
  2.28153E+03  1.07959E+04 -8.44746E+03  1.16077E+04 -1.36588E+04  5.28283E+03 -1.45611E+04 -5.34935E+03
 -7.99505E+03 -1.65525E+04  4.45343E+03 -1.85944E+04  1.59468E+04 -1.12702E+04  1.74587E+04  3.21277E+03
  1.03793E+04  1.38013E+04 -1.53454E+03  1.62107E+04 -1.22846E+04  9.10475E+03 -1.33657E+04 -1.45210E+03
 -1.10314E+04 -1.06632E+04 -2.06276E+03 -1.27783E+04  6.20209E+03 -1.00937E+04  7.80853E+03 -3.81575E+03
  5.41017E+03  2.39470E+03 -9.16781E+02  1.70981E+03 -1.22462E+03 -3.64254E+03  2.76341E+03 -7.80814E+03
  1.21477E+04 -4.83105E+03  1.67751E+04  1.63553E+03  1.62937E+04  1.11982E+04  1.06219E+04  2.19597E+04
 -5.19209E+03  2.46704E+04 -2.06320E+04  1.83668E+04 -2.67770E+04  3.74033E+03 -2.15890E+04 -9.60090E+03
 -1.05083E+04 -1.75454E+04 -4.77919E+01 -1.49871E+04  5.24204E+03 -8.70243E+03  5.65849E+03 -5.22937E+03
  4.01783E+03 -2.77588E+03  4.01402E+03 -4.08291E+03  6.30270E+03 -3.96523E+03  8.11301E+03 -1.42432E+03
  1.11335E+04  2.26289E+03  5.49871E+03  9.63722E+03 -2.18846E+03  1.20218E+04 -1.20190E+04  8.86999E+03
 -1.54045E+04 -9.04123E+02 -9.71951E+03 -1.09291E+04 -1.54122E+03 -1.62764E+04  9.05904E+03 -1.61542E+04
  1.73323E+04 -8.80811E+03  2.03513E+04  2.85757E+03  1.42151E+04  1.45804E+04  2.43752E+03  1.83589E+04
 -7.78307E+03  1.46562E+04 -1.06400E+04  5.09437E+03 -7.88117E+03 -1.24155E+03 -3.30427E+03 -2.18375E+03
 -1.41278E+03 -1.40285E+02 -2.46083E+03  3.24711E+03 -5.99673E+03  2.28664E+03 -1.02117E+04 -1.61364E+03
 -7.84311E+03 -1.03696E+04 -1.59256E+02 -1.58318E+04  9.22438E+03 -1.44335E+04  1.54153E+04 -4.24114E+03
  1.53708E+04  7.55908E+03  7.60159E+03  1.41180E+04 -2.62302E+03  1.57643E+04 -1.11011E+04  9.23811E+03
 -1.42772E+04  4.30356E+02 -1.11583E+04 -9.34006E+03 -1.08402E+03 -1.28488E+04  6.94293E+03 -9.71142E+03
  9.76164E+03 -2.99924E+03  6.64292E+03  2.63282E+03  2.15923E+03  4.40032E+03  1.72457E+03  2.41482E+03
  3.00898E+03  1.13212E+03  4.08429E+03  1.96035E+03  4.45386E+03  5.29497E+03  3.99726E+03  8.50964E+03
 -3.30344E+03  1.22567E+04 -1.12110E+04  1.22869E+04 -1.59645E+04  3.24835E+03 -1.67076E+04 -6.81141E+03
 -7.78389E+03 -1.56458E+04  2.35703E+03 -1.70943E+04  9.65583E+03 -1.11310E+04  1.27580E+04 -2.80533E+03
  1.00669E+04  5.81005E+03  2.32168E+03  9.02601E+03 -4.59956E+03  6.12394E+03 -6.27310E+03 -7.78502E+02
 -3.14097E+03 -6.68596E+03  3.85245E+03 -7.24685E+03  6.62455E+03 -3.23327E+03  6.47020E+03  1.18681E+03
  3.58917E+03  3.00334E+03  1.35087E+03  2.86020E+03 -9.75994E+02  2.29876E+03  1.64400E+03 -9.59247E+02
  2.97556E+03 -7.79467E+02  6.26165E+03  2.74772E+03  3.48224E+03  8.19306E+03 -9.82451E+02  1.11891E+04
 -7.71790E+03  7.20084E+03 -1.03813E+04  1.89316E+03 -9.08500E+03 -3.55474E+03 -3.67712E+03 -6.54307E+03
  6.77251E+02 -5.88950E+03  4.51607E+03 -3.03473E+03  3.59031E+03  3.15845E+03 -1.38031E+03  5.43944E+03
 -6.47393E+03  3.32767E+03 -7.57092E+03 -3.89571E+03 -4.54265E+03 -8.77378E+03  1.05407E+03 -9.00964E+03
  5.16346E+03 -5.16662E+03  6.09916E+03 -5.47459E+02  5.05256E+03  2.35607E+03  6.32337E+02  4.41706E+03
 -2.96077E+03  1.31973E+03 -3.77527E+03 -3.30717E+03  1.70692E+03 -6.56072E+03  8.26945E+03 -5.23281E+03
  1.02621E+04  7.17346E+02  9.94272E+03  6.96728E+03  3.31562E+03  1.04773E+04 -3.78470E+03  1.00149E+04
 -8.46745E+03  4.43976E+03 -8.52265E+03 -1.40687E+03 -5.03557E+03 -6.90556E+03  1.38167E+03 -6.55502E+03
  6.22543E+03 -3.37170E+03  5.71996E+03  2.77645E+03  2.11908E+03  5.89273E+03 -1.03341E+03  5.10940E+03
 -2.91395E+03  3.36788E+03 -2.53828E+03  9.51557E+02 -1.10114E+03  1.20629E+03 -1.64138E+03  2.67473E+03
 -2.63137E+03  4.25484E+03 -7.16247E+03  3.87802E+03 -1.04806E+04  3.61674E+02 -1.11024E+04 -7.14111E+03
 -5.72577E+03 -1.43074E+04  2.65838E+03 -1.63190E+04  9.64045E+03 -1.19701E+04  1.53561E+04 -4.69076E+03
  1.42102E+04  2.88930E+03  9.01506E+03  9.67251E+03  4.92669E+02  1.07052E+04 -4.44450E+03  8.02148E+03
 -6.03618E+03  3.22036E+03 -4.07326E+03 -1.51067E+03 -1.20810E+03 -1.17830E+03 -7.15266E+02 -1.39420E+02
 -1.80560E+03  4.46913E+02 -2.18758E+03 -6.23142E+02 -1.44704E+03 -2.51812E+03  1.07653E+02 -4.50894E+03
  4.73466E+03 -3.39372E+03  6.91271E+03  2.24460E+01  7.41984E+03  5.70586E+03  2.40382E+03  1.06996E+04
 -5.24285E+03  1.25555E+04 -1.13441E+04  7.60930E+03 -1.33169E+04 -1.14334E+03 -9.97674E+03 -8.05152E+03
 -3.97268E+03 -1.11685E+04  2.86278E+03 -1.01198E+04  7.29495E+03 -5.52097E+03  7.07852E+03  2.55758E+02
  4.33566E+03  3.51825E+03 -2.59700E+02  3.74270E+03 -2.02953E+03 -4.32716E+02  2.80115E+02 -2.57326E+03
  3.00790E+03 -1.45885E+03  4.57312E+03  1.43769E+03  3.06158E+03  4.36307E+03 -7.10235E+00  5.78926E+03
 -4.66410E+03  4.82619E+03 -7.34507E+03  7.94426E+02 -6.79023E+03 -4.96202E+03 -9.51438E+02 -8.99114E+03
  4.94691E+03 -7.69064E+03  8.69937E+03 -2.26517E+03  8.38988E+03  1.92232E+03  4.65152E+03  6.61271E+03
  5.45891E+02  7.22651E+03 -3.12004E+03  6.09683E+03 -4.57199E+03  3.57580E+03 -4.37857E+03  8.00800E+02
 -2.23993E+03  6.00327E+00 -2.20410E+03  1.18707E+03 -3.74525E+03  1.49990E+03 -5.53964E+03 -9.32381E+02
 -5.54657E+03 -3.92038E+03 -1.42705E+03 -7.32892E+03  3.11272E+03 -7.13468E+03  6.47763E+03 -3.97384E+03
  7.28308E+03  9.48796E+02  4.01181E+03  5.27013E+03 -8.18442E+02  7.04661E+03 -5.25156E+03  4.83738E+03
