 $NMID ID='MM_0lb_SNR800_14hz_g60_53.RAW', FMTDAT='(8E13.5)'
 TRAMP=1., VOLUME=1. $END
  3.09849E+05  2.94243E+02  3.37804E+05  2.50643E+05  8.49621E+04  3.38146E+05 -1.32766E+05  2.51466E+05
 -1.90351E+05  8.32933E+04 -1.12267E+05 -3.24641E+04  9.09031E+02 -5.02138E+04  5.39945E+04 -1.39432E+02
  3.56439E+04  5.29800E+04 -1.69361E+04  7.60596E+04 -6.11508E+04  6.38011E+04 -8.43648E+04  3.19125E+04
 -8.12952E+04 -1.15834E+04 -5.79432E+04 -5.17519E+04 -1.49662E+04 -6.98851E+04  2.76271E+04 -4.62826E+04
  4.03784E+04  3.57238E+03  1.66270E+04  4.82025E+04 -3.45639E+04  4.74336E+04 -6.71248E+04 -2.29380E+02
 -5.40275E+04 -5.71568E+04 -7.33845E+03 -7.78414E+04  3.42563E+04 -5.55700E+04  4.87339E+04 -1.78839E+04
  4.39881E+04  1.12142E+04  3.23203E+04  2.59655E+04  1.59503E+04  3.00072E+04 -5.67668E+03  2.76688E+04
 -2.22019E+04  1.19440E+04 -1.84904E+04 -5.20912E+03  5.96564E+03 -7.55129E+03  2.32062E+04  1.29971E+04
  7.15400E+03  3.60335E+04 -3.24518E+04  3.59318E+04 -6.41235E+04  2.66850E+03 -5.78617E+04 -4.33969E+04
 -1.25874E+04 -6.41285E+04  4.03655E+04 -4.60643E+04  5.93424E+04 -2.59061E+03  3.49478E+04  3.32172E+04
 -5.45340E+03  3.73445E+04 -3.07888E+04  1.71689E+04 -3.13549E+04 -3.85526E+03 -1.77678E+04 -1.11561E+04
 -8.93882E+03 -1.39251E+04 -7.25123E+02 -1.85906E+04  7.59523E+03 -2.31671E+04  1.58530E+04 -1.29848E+04
  1.10533E+04  5.70989E+03 -9.32016E+03  1.27707E+04 -2.20634E+04 -4.73738E+03 -8.40722E+03 -3.50406E+04
  2.36819E+04 -4.46701E+04  4.96584E+04 -2.01965E+04  4.64272E+04  1.99539E+04  1.61695E+04  4.51157E+04
 -1.63914E+04  3.44620E+04 -2.60584E+04  2.07786E+03 -1.05083E+04 -2.85582E+04  2.14731E+04 -3.49970E+04
  4.22467E+04 -9.86831E+03  3.74264E+04  2.41390E+04  1.93168E+04  4.81274E+04 -7.94119E+03  5.21266E+04
 -3.26653E+04  3.53558E+04 -4.38089E+04  9.79079E+03 -4.43924E+04 -1.72043E+04 -2.44288E+04 -3.96257E+04
  7.60056E+03 -3.92675E+04  3.24002E+04 -1.56195E+04  3.00816E+04  1.09877E+04  4.19394E+03  1.98514E+04
 -1.38561E+04  9.02234E+03 -1.05518E+04 -7.52762E+03  5.56407E+03 -1.12521E+04  1.82175E+04  6.07267E+03
  1.39694E+04  2.25286E+04 -5.67250E+03  2.56527E+04 -2.24803E+04  1.22278E+04 -2.91880E+04 -4.00200E+03
 -2.20704E+04 -1.74177E+04 -9.22953E+03 -2.18750E+04  4.24472E+03 -2.16394E+04  1.69827E+04 -1.97860E+04
  2.76656E+04 -1.33800E+04  3.42796E+04  3.25954E+03  2.47661E+04  2.11158E+04  4.48226E+03  3.78213E+04
 -1.84671E+04  3.15324E+04 -2.85176E+04  1.07138E+04 -2.16035E+04 -1.02772E+04 -4.66856E+03 -1.33567E+04
  1.50237E+03 -2.39050E+03 -5.76693E+03  7.28780E+03 -1.71804E+04  5.21669E+03 -1.72702E+04 -7.60554E+03
 -1.06536E+04 -1.99330E+04  5.64591E+03 -2.47075E+04  1.62806E+04 -1.74056E+04  1.89943E+04 -1.78088E+03
  1.21288E+04  1.38144E+04 -8.66675E+02  2.02322E+04 -1.43442E+04  1.15982E+04 -2.03952E+04 -4.30134E+03
 -1.48875E+04 -1.83581E+04 -1.90502E+03 -2.42646E+04  1.09755E+04 -2.01132E+04  2.00852E+04 -9.97051E+03
  1.89681E+04 -1.08512E+02  1.36884E+04  4.74177E+03  7.29150E+03  8.24836E+02  1.02312E+04 -1.55745E+03
  1.85047E+04  2.43600E+03  2.11273E+04  1.58446E+04  1.37943E+04  3.23989E+04 -2.82318E+03  3.71589E+04
 -2.11247E+04  3.00665E+04 -3.42608E+04  1.49819E+04 -3.60102E+04 -2.73846E+03 -3.01261E+04 -2.09561E+04
 -1.23977E+04 -3.02639E+04  1.03587E+04 -2.68739E+04  2.32202E+04 -1.33788E+04  2.03670E+04  5.94892E+03
  7.15620E+03  1.54128E+04 -9.67430E+03  1.35789E+04 -1.71269E+04  2.52313E+03 -1.30375E+04 -1.06205E+04
 -4.10794E+02 -1.63789E+04  8.46974E+03 -1.21052E+04  1.08863E+04 -1.04206E+03  2.58399E+03  6.79468E+03
 -7.04034E+03  3.02483E+03 -6.84536E+03 -6.07752E+03 -6.02774E+02 -1.47148E+04  9.99104E+03 -1.53652E+04
  1.79883E+04 -8.41212E+03  1.94130E+04  3.11300E+03  1.71774E+04  1.46448E+04  7.52835E+03  2.22281E+04
 -3.61507E+03  2.39212E+04 -1.52497E+04  1.47861E+04 -1.70684E+04  3.79710E+03 -1.22575E+04 -3.97178E+03
 -5.76161E+03 -5.46329E+03 -5.52645E+02  1.20501E+03 -2.37997E+03  2.73569E+03 -5.52298E+03  4.69025E+03
 -1.13326E+04 -8.67644E+02 -1.15658E+04 -9.63803E+03 -4.89482E+03 -1.54423E+04  4.85429E+03 -1.23898E+04
  1.03164E+04 -5.15492E+03  7.25787E+03  3.23969E+03 -1.07031E+02  4.54738E+03 -5.65697E+03  1.00606E+02
 -5.64078E+03 -7.80538E+03 -9.19994E+02 -1.14200E+04  6.73426E+03 -1.24612E+04  1.51043E+04 -6.48217E+03
  1.77947E+04  1.23491E+03  1.33030E+04  1.05181E+04  2.38000E+03  1.37822E+04 -7.32551E+03  1.18662E+04
 -9.79350E+03  3.29568E+03 -4.99515E+03 -2.24735E+03  1.64931E+03 -3.25844E+03  6.39492E+03 -6.76399E+02
  5.44740E+03  5.54768E+03  1.00639E+03  9.33805E+03 -6.54609E+03  9.27224E+03 -1.14640E+04  2.24661E+03
 -8.00515E+03 -6.16943E+03  3.41407E+02 -1.02010E+04  6.08627E+03 -5.11884E+03  6.35497E+03  2.19356E+03
  1.16059E+03  6.75436E+03 -5.88617E+03  7.84247E+03 -9.37823E+03  3.76691E+03 -8.87115E+03 -2.99312E+03
 -5.41480E+03 -1.08806E+04  2.57732E+03 -1.26512E+04  1.06741E+04 -7.49901E+03  1.14981E+04  2.06976E+03
  7.13420E+03  9.07133E+03 -8.12925E+02  1.12160E+04 -8.16782E+03  6.41921E+03 -8.95379E+03 -8.33557E+02
 -8.13576E+03 -7.76980E+03 -1.63280E+03 -8.55616E+03  4.48220E+03 -6.89469E+03  5.22273E+03 -3.28734E+03
  3.68497E+03  1.05356E+03 -4.81001E+02  1.70517E+03 -6.26052E+01 -1.84143E+03  9.74490E+02 -4.78382E+03
  7.59270E+03 -2.32463E+03  1.03576E+04  1.25087E+03  1.02287E+04  7.05545E+03  7.62565E+03  1.38391E+04
 -2.76357E+03  1.55157E+04 -1.32231E+04  1.14821E+04 -1.73413E+04  2.34591E+03 -1.39647E+04 -5.66744E+03
 -6.86235E+03 -1.12730E+04 -1.20011E+02 -9.29406E+03  3.80194E+03 -4.90790E+03  3.17601E+03 -3.54693E+03
  2.57803E+03 -2.20519E+03  3.11427E+03 -2.76769E+03  4.29175E+03 -2.18566E+03  5.53479E+03 -2.54124E+02
  7.21198E+03  1.74266E+03  3.36566E+03  6.15584E+03 -1.82946E+03  6.49148E+03 -7.46847E+03  5.23361E+03
 -8.98680E+03 -1.24029E+03 -4.97681E+03 -6.44662E+03 -5.64896E+02 -9.96386E+03  5.42312E+03 -9.57253E+03
  9.98459E+03 -5.92811E+03  1.19761E+04  1.26979E+03  8.57085E+03  8.52601E+03  1.15110E+03  1.08297E+04
 -4.48146E+03  9.22617E+03 -6.49234E+03  3.57468E+03 -3.96992E+03 -1.62336E+03 -1.61499E+03 -1.25125E+03
 -9.94317E+02  3.11800E+01 -1.65458E+03  2.69681E+03 -4.34190E+03  1.80988E+03 -6.69841E+03 -7.50716E+02
 -3.89402E+03 -6.69174E+03  2.69854E+02 -8.89706E+03  5.37076E+03 -8.26568E+03  8.32239E+03 -2.61647E+03
  8.47464E+03  4.22490E+03  3.91870E+03  7.12602E+03 -1.51897E+03  8.92537E+03 -5.90714E+03  5.39668E+03
 -8.21482E+03  6.94527E+02 -6.35942E+03 -4.69641E+03 -8.80594E+02 -7.24945E+03  3.39074E+03 -5.43847E+03
  5.32374E+03 -2.14059E+03  3.47936E+03  1.21875E+03  1.31298E+03  2.92338E+03  8.98921E+02  1.44067E+03
  2.04872E+03  7.83451E+02  2.20416E+03  1.30884E+03  2.50258E+03  3.70980E+03  2.44579E+03  4.31577E+03
 -2.19679E+03  6.04947E+03 -5.41247E+03  7.02651E+03 -7.60836E+03  1.98413E+03 -8.47619E+03 -3.04398E+03
 -3.75581E+03 -8.17020E+03  9.72839E+02 -9.55141E+03  4.84449E+03 -5.49474E+03  7.07560E+03 -1.45546E+03
  5.86650E+03  3.17909E+03  1.31641E+03  4.73759E+03 -2.30202E+03  3.05242E+03 -2.91396E+03 -5.12530E+02
 -1.35199E+03 -3.22318E+03  2.17598E+03 -3.57484E+03  3.18924E+03 -1.73882E+03  2.91027E+03  1.01394E+03
  2.06970E+03  1.49602E+03  9.46507E+02  6.93213E+02 -5.27668E+02  1.06241E+03  1.57003E+03 -2.80059E+02
  1.02379E+03 -4.76671E+02  3.24723E+03  1.45285E+03  1.30493E+03  4.83015E+03 -4.02053E+02  5.77042E+03
 -3.67034E+03  3.42418E+03 -4.72976E+03  1.02181E+03 -4.39251E+03 -1.74638E+03 -1.34959E+03 -2.58075E+03
  5.70941E+02 -2.85385E+03  1.86496E+03 -1.41917E+03  1.41466E+03  2.00226E+03 -7.88587E+02  2.61129E+03
 -2.89280E+03  1.57973E+03 -3.21437E+03 -2.15373E+03 -1.89500E+03 -4.08432E+03  4.72256E+02 -4.20922E+03
  2.21831E+03 -2.42914E+03  2.68041E+03 -1.81444E+02  2.83386E+03  7.37705E+02 -3.91089E+01  2.39202E+03
 -1.28299E+03  4.45373E+02 -1.72614E+03 -1.17303E+03  1.19772E+03 -3.06050E+03  3.61449E+03 -2.36586E+03
  4.42838E+03  5.15839E+02  5.43011E+03  2.80425E+03  1.79129E+03  4.50557E+03 -1.15245E+03  4.38879E+03
 -3.92785E+03  1.42681E+03 -3.88952E+03 -4.30179E+02 -2.22478E+03 -3.15166E+03  5.68192E+02 -2.49126E+03
  3.24474E+03 -1.69355E+03  2.04055E+03  1.48665E+03  7.96305E+02  2.61764E+03 -3.24021E+02  1.96030E+03
 -1.09696E+03  1.39736E+03 -1.14899E+03  5.62164E+02 -3.56767E+02  1.61974E+02 -1.36846E+03  1.02314E+03
 -1.28672E+03  1.91676E+03 -3.62759E+03  1.54458E+03 -4.21518E+03  2.48660E+02 -4.85389E+03 -3.01933E+03
 -2.63058E+03 -5.91696E+03  1.42586E+03 -6.80997E+03  3.81778E+03 -5.52521E+03  6.67160E+03 -1.97199E+03
  5.96625E+03  7.33424E+02  3.28497E+03  4.21282E+03 -4.69249E+02  4.24430E+03 -1.76795E+03  3.14509E+03
 -2.23824E+03  1.33660E+03 -1.47929E+03 -4.68433E+02 -9.80294E+02 -1.37637E+02 -7.46962E+02  1.49727E+01
 -1.51039E+03  5.10869E+01 -1.64243E+03 -1.21035E+02 -3.27074E+02 -1.14463E+03 -6.05363E+01 -1.75529E+03
  2.46078E+03 -1.66308E+03  2.01976E+03 -9.98483E+01  3.07325E+03  2.23913E+03  2.68098E+02  4.14272E+03
 -1.98694E+03  4.79655E+03 -4.31523E+03  3.02820E+03 -5.03162E+03 -6.15839E+02 -3.82551E+03 -3.17671E+03
 -1.65312E+03 -4.10209E+03  1.33751E+03 -3.65202E+03  2.53869E+03 -1.63702E+03  2.50142E+03  3.08661E+02
  1.38274E+03  1.30949E+03 -3.51447E+02  1.12327E+03 -5.23831E+02 -3.66116E+01 -7.80504E+01 -7.11486E+02
  1.17208E+03 -2.37183E+02  1.07405E+03  7.64830E+02  4.42120E+02  1.49230E+03  8.22504E+02  1.74330E+03
 -1.56717E+03  1.55482E+03 -2.10199E+03 -1.42965E+01 -2.18017E+03 -1.59526E+03 -2.81535E+02 -3.32410E+03
  2.05579E+03 -2.56203E+03  2.43684E+03 -5.70810E+02  2.67085E+03  4.21377E+02  1.58027E+03  2.54982E+03
  6.80593E+02  2.22045E+03 -8.78789E+02  2.07875E+03 -1.51728E+03  1.53791E+03 -1.22807E+03  1.84112E+02
 -6.12775E+02 -2.28422E+02 -9.37518E+02  1.81342E+02 -1.42165E+03  3.23079E+02 -1.98868E+03 -4.78724E+02
 -2.22231E+03 -9.90766E+02 -4.94900E+02 -2.46536E+03  1.33162E+03 -2.88459E+03  2.19936E+03 -9.60617E+02
  2.36356E+03  1.44318E+02  1.02161E+03  1.43969E+03 -3.66624E+02  2.44625E+03 -1.75163E+03  1.51303E+03
