 $NMID ID='MM_0lb_SNR800_12hz_g40_3.RAW', FMTDAT='(8E13.5)'
 TRAMP=1., VOLUME=1. $END
  3.09460E+05  5.35811E+02  3.37798E+05  2.50377E+05  8.48810E+04  3.38019E+05 -1.32925E+05  2.51153E+05
 -1.90283E+05  8.34304E+04 -1.12167E+05 -3.28960E+04  7.64308E+02 -5.07913E+04  5.40794E+04 -1.07588E+02
  3.56514E+04  5.31983E+04 -1.69166E+04  7.56959E+04 -6.07837E+04  6.37824E+04 -8.43000E+04  3.23551E+04
 -8.13992E+04 -1.14447E+04 -5.73444E+04 -5.16108E+04 -1.47133E+04 -6.97071E+04  2.75029E+04 -4.57755E+04
  4.03884E+04  4.31540E+03  1.65057E+04  4.80007E+04 -3.46118E+04  4.72923E+04 -6.69457E+04 -3.43840E+02
 -5.37661E+04 -5.68766E+04 -6.83877E+03 -7.71814E+04  3.42321E+04 -5.53505E+04  4.84683E+04 -1.72827E+04
  4.35635E+04  1.12977E+04  3.22245E+04  2.56508E+04  1.59924E+04  2.98372E+04 -5.40749E+03  2.72540E+04
 -2.22437E+04  1.25611E+04 -1.87980E+04 -4.85290E+03  5.66977E+03 -7.30521E+03  2.21787E+04  1.25397E+04
  6.96729E+03  3.53720E+04 -3.25343E+04  3.58340E+04 -6.37642E+04  2.11462E+03 -5.74245E+04 -4.33370E+04
 -1.22597E+04 -6.33788E+04  3.99507E+04 -4.57168E+04  5.87025E+04 -2.06505E+03  3.44638E+04  3.25212E+04
 -5.85015E+03  3.66529E+04 -3.00789E+04  1.67460E+04 -3.06560E+04 -4.54598E+03 -1.68930E+04 -1.10606E+04
 -8.37966E+03 -1.34401E+04 -5.71515E+02 -1.83499E+04  7.39301E+03 -2.30457E+04  1.52636E+04 -1.29456E+04
  1.15910E+04  5.57840E+03 -8.47988E+03  1.30065E+04 -2.16130E+04 -4.91031E+03 -8.33768E+03 -3.42535E+04
  2.33888E+04 -4.38503E+04  4.84593E+04 -1.96047E+04  4.63751E+04  1.95928E+04  1.56801E+04  4.44201E+04
 -1.61130E+04  3.38721E+04 -2.58391E+04  2.00756E+03 -1.00492E+04 -2.82487E+04  2.11775E+04 -3.44695E+04
  4.14994E+04 -9.58881E+03  3.67310E+04  2.39557E+04  1.89378E+04  4.74473E+04 -8.31924E+03  5.15561E+04
 -3.21540E+04  3.50442E+04 -4.30880E+04  9.75009E+03 -4.39279E+04 -1.68616E+04 -2.38010E+04 -3.88882E+04
  7.29220E+03 -3.82579E+04  3.22706E+04 -1.49157E+04  3.00382E+04  1.11041E+04  4.16044E+03  1.94435E+04
 -1.33882E+04  8.79531E+03 -1.06299E+04 -7.72407E+03  5.63964E+03 -1.06679E+04  1.85086E+04  6.07033E+03
  1.37941E+04  2.22318E+04 -5.73311E+03  2.56770E+04 -2.25968E+04  1.17521E+04 -2.87867E+04 -4.16342E+03
 -2.13747E+04 -1.72726E+04 -8.83568E+03 -2.13011E+04  4.18069E+03 -2.07375E+04  1.65189E+04 -1.91026E+04
  2.73916E+04 -1.32411E+04  3.37753E+04  3.48817E+03  2.43339E+04  2.07459E+04  4.18582E+03  3.73297E+04
 -1.83616E+04  3.13673E+04 -2.85342E+04  1.11452E+04 -2.10083E+04 -1.01075E+04 -4.64644E+03 -1.33591E+04
  1.75360E+03 -2.52722E+03 -5.47723E+03  7.10603E+03 -1.71581E+04  4.72366E+03 -1.70189E+04 -7.50416E+03
 -1.05302E+04 -1.99384E+04  5.19983E+03 -2.42831E+04  1.59427E+04 -1.73901E+04  1.92353E+04 -1.43497E+03
  1.19676E+04  1.38249E+04 -9.00733E+02  2.00498E+04 -1.40043E+04  1.13926E+04 -2.00112E+04 -4.48598E+03
 -1.47385E+04 -1.79010E+04 -2.18375E+03 -2.35504E+04  1.08149E+04 -1.98097E+04  1.99108E+04 -9.97274E+03
  1.89639E+04 -1.56859E+02  1.34657E+04  4.36709E+03  7.18045E+03  1.39810E+03  9.87383E+03 -1.70373E+03
  1.81800E+04  2.93895E+03  2.05326E+04  1.58318E+04  1.34100E+04  3.15741E+04 -2.73918E+03  3.62256E+04
 -2.11125E+04  2.93139E+04 -3.39029E+04  1.52335E+04 -3.56588E+04 -2.67364E+03 -2.93264E+04 -2.06061E+04
 -1.21668E+04 -2.93848E+04  1.02843E+04 -2.64478E+04  2.29337E+04 -1.31476E+04  2.03391E+04  5.59192E+03
  7.55961E+03  1.53561E+04 -9.44827E+03  1.30618E+04 -1.71007E+04  2.64627E+03 -1.28993E+04 -1.05305E+04
 -1.59312E+02 -1.58944E+04  8.61591E+03 -1.20902E+04  1.07097E+04 -1.61103E+03  2.69469E+03  6.95144E+03
 -7.09004E+03  2.65222E+03 -6.58418E+03 -6.25042E+03 -3.84645E+02 -1.44502E+04  9.83947E+03 -1.55507E+04
  1.82270E+04 -8.35036E+03  1.98348E+04  2.95013E+03  1.73359E+04  1.44433E+04  8.05809E+03  2.22255E+04
 -3.65927E+03  2.41423E+04 -1.56578E+04  1.49192E+04 -1.72456E+04  3.60625E+03 -1.19876E+04 -4.15672E+03
 -5.71613E+03 -5.45639E+03 -8.31961E+02  8.90404E+02 -2.52576E+03  2.68187E+03 -5.81496E+03  4.56773E+03
 -1.15740E+04 -5.91749E+02 -1.21118E+04 -9.85474E+03 -4.70812E+03 -1.56733E+04  5.21086E+03 -1.24092E+04
  9.91006E+03 -5.16178E+03  7.40331E+03  3.23537E+03  2.19246E+02  4.64155E+03 -5.86662E+03  1.03524E+01
 -5.68957E+03 -7.83347E+03 -1.05695E+03 -1.17203E+04  6.81595E+03 -1.24932E+04  1.54850E+04 -6.95768E+03
  1.82599E+04  1.35123E+03  1.30687E+04  1.04914E+04  2.57508E+03  1.39493E+04 -7.53182E+03  1.21795E+04
 -1.01188E+04  3.81562E+03 -5.43267E+03 -2.46901E+03  2.07874E+03 -3.47008E+03  6.58689E+03 -1.27538E+03
  6.07787E+03  5.02762E+03  1.42559E+03  9.90939E+03 -6.78068E+03  9.29389E+03 -1.16456E+04  2.02050E+03
 -7.94995E+03 -6.57212E+03 -5.51590E+01 -1.04079E+04  6.44824E+03 -5.09147E+03  6.63549E+03  2.11868E+03
  1.34724E+03  6.93117E+03 -6.24898E+03  8.30636E+03 -9.42188E+03  4.11054E+03 -9.45139E+03 -3.27966E+03
 -5.46176E+03 -1.12842E+04  2.64051E+03 -1.28533E+04  1.11988E+04 -7.70507E+03  1.21543E+04  1.74019E+03
  7.51603E+03  9.60789E+03 -8.31822E+02  1.16788E+04 -8.48469E+03  6.44660E+03 -9.16073E+03 -7.05114E+02
 -8.60659E+03 -7.90004E+03 -1.82963E+03 -8.66420E+03  4.47838E+03 -7.65095E+03  5.50791E+03 -3.12487E+03
  4.03170E+03  6.59321E+02 -8.11995E+02  1.79959E+03  1.42249E+00 -2.11362E+03  1.19639E+03 -5.08567E+03
  7.66619E+03 -2.87403E+03  1.08506E+04  1.41517E+03  1.10883E+04  7.62802E+03  7.91572E+03  1.47409E+04
 -3.15970E+03  1.68173E+04 -1.39049E+04  1.21885E+04 -1.79152E+04  2.30999E+03 -1.45625E+04 -6.06264E+03
 -7.58635E+03 -1.23330E+04 -4.73727E+02 -1.03464E+04  3.53234E+03 -5.36912E+03  3.62678E+03 -3.39711E+03
  2.63960E+03 -2.13324E+03  3.28420E+03 -3.01476E+03  4.50450E+03 -2.86941E+03  5.91201E+03 -4.89806E+02
  7.28214E+03  1.98243E+03  3.39357E+03  6.61004E+03 -1.88967E+03  7.35167E+03 -8.28407E+03  5.61119E+03
 -1.03129E+04 -1.03775E+03 -5.56783E+03 -6.82259E+03 -7.25575E+02 -1.06075E+04  5.74599E+03 -1.08203E+04
  1.11112E+04 -5.91171E+03  1.35298E+04  1.31929E+03  9.77219E+03  9.07702E+03  1.54814E+03  1.21845E+04
 -4.74674E+03  1.07050E+04 -6.88379E+03  3.29330E+03 -4.66640E+03 -1.53003E+03 -1.85666E+03 -1.27651E+03
 -7.26284E+02  3.26543E+02 -1.88609E+03  2.69977E+03 -4.21906E+03  1.53230E+03 -7.35032E+03 -1.26028E+03
 -4.35774E+03 -7.03412E+03  1.75098E+02 -9.83376E+03  5.91296E+03 -9.07124E+03  9.44444E+03 -2.52230E+03
  9.60939E+03  5.14347E+03  4.37578E+03  8.14530E+03 -1.72270E+03  9.36542E+03 -6.72621E+03  6.07827E+03
 -8.97696E+03  4.27323E+02 -6.80949E+03 -5.57875E+03 -7.55671E+02 -8.02188E+03  4.09594E+03 -5.99916E+03
  6.06223E+03 -1.93898E+03  3.94770E+03  1.27828E+03  1.40309E+03  3.14117E+03  1.07246E+03  1.55772E+03
  2.05942E+03  8.49096E+02  2.32178E+03  1.45899E+03  2.77410E+03  3.66579E+03  2.59779E+03  4.83788E+03
 -2.39477E+03  7.57827E+03 -6.62437E+03  7.93257E+03 -9.05863E+03  2.06644E+03 -1.00642E+04 -3.33316E+03
 -4.50586E+03 -9.21337E+03  1.55359E+03 -1.05556E+04  5.52885E+03 -6.26445E+03  7.42623E+03 -1.99786E+03
  6.00001E+03  3.53035E+03  1.33404E+03  5.52767E+03 -2.88188E+03  3.28946E+03 -3.62724E+03 -4.99438E+02
 -1.94411E+03 -4.23849E+03  2.06513E+03 -4.13288E+03  3.75376E+03 -2.08980E+03  3.55884E+03  8.87880E+02
  2.29123E+03  1.41732E+03  1.36439E+03  1.07379E+03 -6.92450E+02  1.26570E+03  1.75635E+03 -6.95062E+02
  9.51582E+02 -6.45854E+02  3.62731E+03  1.64001E+03  1.81688E+03  5.13132E+03 -9.62782E+02  7.00857E+03
 -4.20377E+03  4.02447E+03 -5.41842E+03  8.79326E+02 -5.38026E+03 -1.96611E+03 -1.61967E+03 -3.38556E+03
  5.80141E+02 -3.22049E+03  2.41034E+03 -1.81929E+03  1.80452E+03  1.91104E+03 -9.26522E+02  2.85702E+03
 -3.87531E+03  1.74581E+03 -4.22759E+03 -2.56345E+03 -2.04879E+03 -5.06268E+03  8.23091E+02 -4.95394E+03
  2.38294E+03 -2.91315E+03  3.34015E+03 -8.34348E+01  3.03003E+03  1.00069E+03  2.04409E+02  2.43159E+03
 -1.88218E+03  8.34619E+02 -2.58435E+03 -1.62447E+03  8.82437E+02 -3.61319E+03  4.39486E+03 -2.87723E+03
  5.43408E+03  7.69260E+02  6.12680E+03  3.39393E+03  1.91486E+03  5.55280E+03 -1.65765E+03  5.45975E+03
 -4.76569E+03  1.77578E+03 -4.63504E+03 -9.16727E+02 -2.58036E+03 -3.68799E+03  1.21835E+03 -3.24182E+03
  3.67441E+03 -1.96667E+03  2.68067E+03  1.41504E+03  7.85246E+02  3.38622E+03 -2.79815E+02  2.77613E+03
 -9.66586E+02  2.36310E+03 -1.24833E+03  4.11485E+02 -3.82073E+02  7.16191E+02 -7.51833E+02  1.45369E+03
 -1.72962E+03  2.61691E+03 -4.29986E+03  1.46928E+03 -5.83087E+03  3.69565E+02 -6.36057E+03 -3.17300E+03
 -3.41602E+03 -7.31593E+03  1.50084E+03 -8.84498E+03  5.32371E+03 -6.92781E+03  8.20373E+03 -2.67884E+03
  7.66454E+03  1.30768E+03  4.70014E+03  5.11674E+03  8.49039E+01  5.45056E+03 -2.44852E+03  4.45771E+03
 -3.44750E+03  1.80575E+03 -2.27455E+03 -5.29823E+02 -9.94552E+02 -3.38132E+02 -6.00663E+02  5.78034E+01
 -1.18114E+03 -3.63000E+01 -1.21849E+03 -2.06895E+01 -4.51845E+02 -1.93810E+03 -2.97064E+02 -2.19637E+03
  2.79383E+03 -1.71633E+03  3.17687E+03  1.83273E+02  3.89524E+03  3.19986E+03  9.17611E+02  5.23155E+03
 -2.59004E+03  6.69943E+03 -6.13306E+03  3.75261E+03 -7.03848E+03 -7.87861E+02 -5.07777E+03 -4.30152E+03
 -2.48188E+03 -5.86659E+03  1.33342E+03 -5.55348E+03  3.18613E+03 -2.75535E+03  3.22470E+03  1.07513E+01
  2.17289E+03  1.80317E+03  8.97147E+01  1.43324E+03 -9.34318E+02 -3.97105E+01  6.05957E+01 -1.26640E+03
  1.96168E+03 -4.58150E+02  2.13541E+03  3.91591E+02  1.25182E+03  1.87681E+03 -4.29646E+01  2.62115E+03
 -2.23505E+03  2.48146E+03 -3.33332E+03  4.53960E+02 -3.46635E+03 -2.42999E+03 -4.13073E+02 -4.76730E+03
  2.55813E+03 -3.85592E+03  4.16631E+03 -1.16651E+03  4.14048E+03  8.94843E+02  2.35039E+03  3.37735E+03
  6.41822E+02  3.18343E+03 -1.50370E+03  2.62667E+03 -2.50037E+03  1.41395E+03 -1.79078E+03  3.17042E+02
 -6.06373E+02 -4.01009E+02 -1.36063E+03  3.92748E+02 -1.98617E+03  5.65045E+02 -2.93697E+03 -4.70054E+02
 -3.26288E+03 -1.56687E+03 -7.65465E+02 -3.65955E+03  1.65202E+03 -4.08320E+03  3.23126E+03 -1.42134E+03
  3.78038E+03 -1.32492E+01  1.51352E+03  2.20601E+03 -2.41286E+02  3.35091E+03 -2.53401E+03  2.38896E+03
