 $NMID ID='MM_0lb_SNR800_13hz_g45_57.RAW', FMTDAT='(8E13.5)'
 TRAMP=1., VOLUME=1. $END
  3.09757E+05  2.01337E+02  3.37730E+05  2.50575E+05  8.49878E+04  3.38167E+05 -1.32711E+05  2.51214E+05
 -1.90237E+05  8.32254E+04 -1.11844E+05 -3.25368E+04  1.02108E+03 -5.05207E+04  5.40015E+04 -4.45962E+02
  3.57092E+04  5.32475E+04 -1.70713E+04  7.54793E+04 -6.11505E+04  6.36492E+04 -8.39340E+04  3.18477E+04
 -8.10294E+04 -1.16569E+04 -5.72812E+04 -5.15002E+04 -1.49576E+04 -6.98256E+04  2.74859E+04 -4.57735E+04
  4.02961E+04  3.88544E+03  1.58515E+04  4.79602E+04 -3.44131E+04  4.72634E+04 -6.67653E+04 -2.72339E+02
 -5.39000E+04 -5.69552E+04 -6.75314E+03 -7.73378E+04  3.38720E+04 -5.54202E+04  4.81825E+04 -1.70688E+04
  4.37113E+04  1.12900E+04  3.16851E+04  2.52455E+04  1.55201E+04  2.95323E+04 -5.34021E+03  2.71316E+04
 -2.19729E+04  1.21964E+04 -1.87272E+04 -4.84266E+03  5.89169E+03 -7.60463E+03  2.25380E+04  1.24727E+04
  7.40833E+03  3.56982E+04 -3.20740E+04  3.56681E+04 -6.39029E+04  1.93671E+03 -5.69357E+04 -4.28492E+04
 -1.24357E+04 -6.32479E+04  3.97871E+04 -4.56680E+04  5.85953E+04 -2.17629E+03  3.49388E+04  3.29079E+04
 -6.30689E+03  3.60766E+04 -3.00006E+04  1.62644E+04 -3.06098E+04 -4.53991E+03 -1.67908E+04 -1.09543E+04
 -8.31213E+03 -1.33146E+04 -6.94131E+02 -1.84414E+04  7.68074E+03 -2.31950E+04  1.54528E+04 -1.30604E+04
  1.12960E+04  5.20511E+03 -8.48697E+03  1.33805E+04 -2.12532E+04 -4.67844E+03 -8.52289E+03 -3.43223E+04
  2.31690E+04 -4.35298E+04  4.82711E+04 -1.99972E+04  4.51323E+04  1.96727E+04  1.56499E+04  4.43877E+04
 -1.57361E+04  3.36467E+04 -2.53163E+04  1.64062E+03 -1.02841E+04 -2.80659E+04  2.10365E+04 -3.41925E+04
  4.14342E+04 -9.22603E+03  3.60513E+04  2.38186E+04  1.85673E+04  4.68222E+04 -8.05668E+03  5.07636E+04
 -3.19460E+04  3.43940E+04 -4.24348E+04  9.63234E+03 -4.30228E+04 -1.65215E+04 -2.35892E+04 -3.85271E+04
  7.47191E+03 -3.81549E+04  3.16861E+04 -1.52272E+04  2.94963E+04  1.07783E+04  4.07687E+03  1.94437E+04
 -1.33789E+04  8.52066E+03 -1.06143E+04 -7.46442E+03  5.75841E+03 -1.08442E+04  1.82487E+04  5.96179E+03
  1.34741E+04  2.22612E+04 -6.02127E+03  2.55498E+04 -2.22837E+04  1.15502E+04 -2.84644E+04 -4.43336E+03
 -2.11682E+04 -1.73985E+04 -8.47441E+03 -2.07142E+04  3.84931E+03 -2.03115E+04  1.60114E+04 -1.87632E+04
  2.66980E+04 -1.30217E+04  3.29644E+04  2.88869E+03  2.39664E+04  2.04033E+04  4.49784E+03  3.71705E+04
 -1.79836E+04  3.03919E+04 -2.80802E+04  1.07861E+04 -2.12734E+04 -1.02359E+04 -4.40416E+03 -1.35541E+04
  1.63763E+03 -3.07080E+03 -5.36666E+03  7.12196E+03 -1.65362E+04  5.21687E+03 -1.68374E+04 -7.40313E+03
 -1.03218E+04 -1.96219E+04  5.18210E+03 -2.34383E+04  1.57971E+04 -1.67456E+04  1.86678E+04 -1.34457E+03
  1.16353E+04  1.34497E+04 -9.58769E+02  1.95872E+04 -1.35567E+04  1.07642E+04 -1.95932E+04 -4.54977E+03
 -1.45459E+04 -1.74196E+04 -1.53559E+03 -2.33442E+04  1.04782E+04 -1.93730E+04  1.97576E+04 -9.64880E+03
  1.83456E+04  4.56262E+02  1.32024E+04  4.46830E+03  6.89555E+03  6.57989E+02  9.86315E+03 -1.68697E+03
  1.78319E+04  2.55918E+03  2.00342E+04  1.53505E+04  1.31486E+04  3.11136E+04 -2.60738E+03  3.53466E+04
 -2.06040E+04  2.85301E+04 -3.30672E+04  1.43685E+04 -3.46294E+04 -2.65621E+03 -2.86829E+04 -2.00211E+04
 -1.23110E+04 -2.87855E+04  9.69674E+03 -2.55613E+04  2.24368E+04 -1.30284E+04  1.96794E+04  5.69332E+03
  7.07288E+03  1.49034E+04 -9.39027E+03  1.28285E+04 -1.66952E+04  2.77095E+03 -1.26629E+04 -1.05476E+04
 -3.22306E+02 -1.57997E+04  8.07886E+03 -1.14921E+04  1.07482E+04 -1.11838E+03  2.36568E+03  7.01420E+03
 -7.07197E+03  2.51521E+03 -6.33829E+03 -5.89455E+03 -6.40172E+02 -1.39958E+04  9.80594E+03 -1.48422E+04
  1.74724E+04 -7.84941E+03  1.88799E+04  2.94366E+03  1.66186E+04  1.38274E+04  7.70225E+03  2.11243E+04
 -3.49862E+03  2.30941E+04 -1.47522E+04  1.46028E+04 -1.66572E+04  3.60534E+03 -1.18421E+04 -3.79699E+03
 -5.62779E+03 -5.10121E+03 -7.95043E+02  9.80825E+02 -2.45205E+03  2.52644E+03 -5.49901E+03  4.69787E+03
 -1.09639E+04 -6.90281E+02 -1.16880E+04 -9.35425E+03 -4.41410E+03 -1.53147E+04  5.17467E+03 -1.23049E+04
  9.72983E+03 -5.23960E+03  7.18087E+03  3.14329E+03 -3.06774E+01  4.80500E+03 -5.43522E+03 -1.01547E+02
 -5.42395E+03 -7.56971E+03 -9.63399E+02 -1.13353E+04  6.25872E+03 -1.16989E+04  1.47319E+04 -6.42910E+03
  1.69418E+04  1.59294E+03  1.29177E+04  9.95959E+03  2.69536E+03  1.37700E+04 -7.23015E+03  1.17423E+04
 -9.73531E+03  3.66872E+03 -4.89048E+03 -2.09984E+03  1.70181E+03 -3.08567E+03  6.36313E+03 -1.04401E+03
  5.72211E+03  5.14778E+03  9.16312E+02  9.52813E+03 -6.74878E+03  8.88023E+03 -1.12127E+04  2.20835E+03
 -7.54118E+03 -5.86991E+03  1.43592E+02 -9.73899E+03  6.13345E+03 -5.22516E+03  6.25877E+03  1.98975E+03
  1.17118E+03  6.50811E+03 -5.92613E+03  7.78513E+03 -8.78954E+03  3.66395E+03 -9.02168E+03 -2.81417E+03
 -5.29024E+03 -1.06744E+04  2.25976E+03 -1.21430E+04  1.05251E+04 -7.82669E+03  1.13163E+04  1.89893E+03
  7.18403E+03  8.89671E+03 -6.81031E+02  1.13993E+04 -8.13341E+03  6.38505E+03 -8.63825E+03 -8.12401E+02
 -8.10441E+03 -7.50241E+03 -1.33495E+03 -7.89492E+03  4.41097E+03 -6.74196E+03  5.31202E+03 -3.49035E+03
  3.78209E+03  1.14952E+03 -5.95053E+02  1.16112E+03 -1.33653E+02 -1.72378E+03  1.08149E+03 -4.34039E+03
  7.45288E+03 -2.48801E+03  1.02849E+04  1.21833E+03  1.02317E+04  6.75352E+03  7.30241E+03  1.32976E+04
 -2.91574E+03  1.54453E+04 -1.35287E+04  1.14024E+04 -1.70753E+04  2.08585E+03 -1.32772E+04 -5.39765E+03
 -6.82282E+03 -1.11367E+04 -2.73960E+02 -9.27172E+03  3.54708E+03 -5.23269E+03  3.38469E+03 -3.29442E+03
  2.47673E+03 -2.18202E+03  3.04516E+03 -2.87521E+03  4.40432E+03 -2.59791E+03  5.74127E+03 -4.82128E+02
  7.14473E+03  1.97472E+03  3.28557E+03  5.93476E+03 -1.75636E+03  7.17152E+03 -7.29271E+03  5.15861E+03
 -9.30633E+03 -1.22154E+03 -5.21843E+03 -6.49842E+03 -5.10177E+01 -9.68049E+03  5.22572E+03 -1.01199E+04
  1.02196E+04 -5.61973E+03  1.22926E+04  1.28157E+03  8.50933E+03  8.47398E+03  1.54447E+03  1.11907E+04
 -4.25245E+03  9.64332E+03 -6.43132E+03  3.14600E+03 -4.23348E+03 -1.33951E+03 -1.65467E+03 -1.14626E+03
 -7.79238E+02  2.66282E+02 -1.39187E+03  2.28817E+03 -4.03921E+03  1.49039E+03 -6.65216E+03 -1.06792E+03
 -4.06398E+03 -6.80703E+03  5.03537E+02 -9.07925E+03  5.50221E+03 -8.32014E+03  8.13349E+03 -2.32247E+03
  8.56282E+03  4.76924E+03  3.90427E+03  7.72830E+03 -2.11074E+03  9.13081E+03 -6.14059E+03  5.49208E+03
 -7.89328E+03  6.90446E+02 -6.38739E+03 -5.12942E+03 -6.01962E+02 -7.52150E+03  3.55694E+03 -5.48718E+03
  5.20015E+03 -1.90297E+03  3.63269E+03  1.12417E+03  1.29992E+03  2.58659E+03  9.55935E+02  1.33419E+03
  1.88478E+03  6.98182E+02  2.12202E+03  1.44441E+03  2.65383E+03  3.54141E+03  2.18825E+03  4.54937E+03
 -1.79365E+03  6.79835E+03 -5.92014E+03  7.12632E+03 -8.18973E+03  2.15027E+03 -9.06116E+03 -3.07281E+03
 -4.04363E+03 -8.57416E+03  1.22515E+03 -9.67952E+03  4.71149E+03 -6.31614E+03  6.92287E+03 -1.51528E+03
  5.65153E+03  3.33886E+03  1.27615E+03  4.97983E+03 -2.13598E+03  2.88615E+03 -3.03176E+03 -1.29923E+02
 -1.68956E+03 -3.48918E+03  2.14880E+03 -3.78085E+03  3.25182E+03 -1.69461E+03  3.47361E+03  8.03565E+02
  2.05823E+03  1.79598E+03  9.62623E+02  1.07758E+03 -6.00890E+02  1.45838E+03  1.53881E+03 -4.74326E+02
  9.98060E+02 -6.79328E+02  3.36028E+03  1.22051E+03  1.62771E+03  4.60881E+03 -9.81762E+02  6.00341E+03
 -4.10383E+03  3.79374E+03 -5.12732E+03  1.10372E+03 -4.64707E+03 -1.81043E+03 -1.47073E+03 -2.77179E+03
  6.25749E+02 -3.21443E+03  2.14336E+03 -1.63914E+03  1.68842E+03  1.53829E+03 -1.27614E+03  2.61662E+03
 -3.46689E+03  1.18716E+03 -3.48117E+03 -2.30066E+03 -2.20630E+03 -4.47087E+03  4.49927E+02 -4.40122E+03
  2.15495E+03 -2.17878E+03  3.10133E+03 -1.94803E+02  3.27644E+03  5.40190E+02  5.09055E+02  2.45750E+03
 -1.30652E+03  7.27081E+02 -2.00980E+03 -1.45782E+03  7.87277E+02 -3.27471E+03  3.92921E+03 -2.80589E+03
  4.16721E+03  4.05827E+02  5.28434E+03  2.88401E+03  1.64709E+03  4.92689E+03 -1.52021E+03  4.75918E+03
 -3.72149E+03  1.90034E+03 -4.01262E+03 -6.85649E+02 -2.40578E+03 -3.45285E+03  8.81615E+02 -3.05649E+03
  3.21257E+03 -1.39073E+03  2.55827E+03  1.32982E+03  6.07385E+02  2.81024E+03 -2.83627E+02  2.44850E+03
 -1.16233E+03  1.93936E+03 -1.49662E+03  4.59613E+01 -2.37466E+02  8.78857E+02 -8.95993E+02  8.66355E+02
 -1.15314E+03  2.30548E+03 -3.52723E+03  1.13308E+03 -4.74179E+03  1.74945E+02 -5.50583E+03 -3.01494E+03
 -2.90191E+03 -6.20234E+03  1.28739E+03 -7.70739E+03  4.19485E+03 -5.92924E+03  7.55017E+03 -2.33676E+03
  6.59782E+03  8.98909E+02  3.84512E+03  4.51370E+03  2.13701E+02  4.88309E+03 -1.75389E+03  3.72030E+03
 -2.79216E+03  1.54204E+03 -1.90713E+03 -5.94068E+02 -4.28163E+02 -1.90727E+02 -4.98388E+02  1.34252E+02
 -1.21048E+03  1.46634E+01 -1.52501E+03 -3.64584E+02 -1.63081E+02 -1.25879E+03 -1.68406E+02 -1.73128E+03
  2.60559E+03 -1.61981E+03  2.49442E+03  1.87489E+02  3.19429E+03  2.57381E+03  6.57362E+02  4.43215E+03
 -2.52152E+03  5.80267E+03 -5.21976E+03  3.43478E+03 -5.53391E+03 -3.19992E+02 -4.04450E+03 -3.47064E+03
 -1.94672E+03 -4.53819E+03  8.59122E+02 -4.46830E+03  2.99125E+03 -2.42267E+03  2.81977E+03  5.41222E+02
  2.01381E+03  1.56561E+03 -2.45411E+01  1.12232E+03 -1.05346E+03 -1.44251E+02  3.58924E+01 -7.75907E+02
  1.47158E+03 -1.23878E+02  1.73766E+03  5.43007E+02  7.46151E+02  1.80394E+03  2.90441E+02  1.87637E+03
 -2.29227E+03  2.09905E+03 -2.88141E+03  1.62029E+02 -2.45870E+03 -2.12730E+03 -3.18001E+02 -4.29328E+03
  2.33863E+03 -2.95317E+03  3.14862E+03 -8.57475E+02  3.46078E+03  3.14793E+02  1.69203E+03  2.92235E+03
  8.21306E+02  2.77367E+03 -1.07325E+03  2.28841E+03 -1.79933E+03  1.52205E+03 -1.20979E+03  4.49353E+02
 -6.41075E+02 -2.52799E+02 -9.55225E+02  2.76496E+02 -1.73187E+03  5.74687E+02 -2.68073E+03 -7.30511E+02
 -2.40898E+03 -9.46273E+02 -5.08814E+02 -3.25672E+03  1.60085E+03 -3.59548E+03  2.76958E+03 -1.55704E+03
  2.73693E+03  3.72786E+02  9.74371E+02  1.96601E+03 -1.79615E+02  3.15239E+03 -1.75473E+03  1.86991E+03
