 $NMID ID='MM_0lb_SNR800_15hz_g45_52.RAW', FMTDAT='(8E13.5)'
 TRAMP=1., VOLUME=1. $END
  3.09811E+05  3.45929E+02  3.37314E+05  2.50501E+05  8.45280E+04  3.37846E+05 -1.32264E+05  2.50754E+05
 -1.90024E+05  8.27765E+04 -1.11821E+05 -3.26784E+04  1.21118E+03 -5.04175E+04  5.36024E+04 -2.35487E+02
  3.51557E+04  5.29392E+04 -1.68812E+04  7.53156E+04 -6.09496E+04  6.34546E+04 -8.34959E+04  3.18779E+04
 -8.05344E+04 -1.09606E+04 -5.69018E+04 -5.05825E+04 -1.50054E+04 -6.93116E+04  2.70804E+04 -4.59528E+04
  3.97455E+04  3.86412E+03  1.59672E+04  4.77713E+04 -3.41859E+04  4.69178E+04 -6.61171E+04 -5.45642E+02
 -5.29948E+04 -5.64266E+04 -6.52795E+03 -7.62414E+04  3.37880E+04 -5.45427E+04  4.72192E+04 -1.70246E+04
  4.29638E+04  1.14788E+04  3.14562E+04  2.50812E+04  1.55176E+04  2.91460E+04 -5.16161E+03  2.71959E+04
 -2.18816E+04  1.21260E+04 -1.89102E+04 -4.70833E+03  4.93025E+03 -7.45400E+03  2.22474E+04  1.19372E+04
  6.96966E+03  3.49066E+04 -3.16104E+04  3.48339E+04 -6.22417E+04  2.24274E+03 -5.66565E+04 -4.24637E+04
 -1.24978E+04 -6.22252E+04  3.90735E+04 -4.47910E+04  5.71171E+04 -1.94427E+03  3.35661E+04  3.19510E+04
 -6.56143E+03  3.51538E+04 -2.92403E+04  1.54043E+04 -2.93840E+04 -4.67038E+03 -1.56927E+04 -1.08537E+04
 -7.95010E+03 -1.27851E+04 -8.59433E+02 -1.77619E+04  7.41977E+03 -2.25517E+04  1.53202E+04 -1.34421E+04
  1.14031E+04  4.72882E+03 -7.68759E+03  1.28768E+04 -2.05982E+04 -3.96349E+03 -8.40932E+03 -3.27649E+04
  2.22442E+04 -4.27354E+04  4.70314E+04 -1.91615E+04  4.40249E+04  1.89271E+04  1.51760E+04  4.34494E+04
 -1.59484E+04  3.25528E+04 -2.47032E+04  1.75807E+03 -9.26843E+03 -2.73743E+04  2.06080E+04 -3.30030E+04
  4.03588E+04 -8.52197E+03  3.42163E+04  2.36598E+04  1.72645E+04  4.51231E+04 -7.80719E+03  4.86518E+04
 -3.06864E+04  3.23866E+04 -4.06260E+04  9.18245E+03 -4.14853E+04 -1.61588E+04 -2.25366E+04 -3.68929E+04
  7.35043E+03 -3.65023E+04  3.05365E+04 -1.41618E+04  2.85542E+04  1.13352E+04  3.94359E+03  1.85952E+04
 -1.32151E+04  8.01742E+03 -1.01561E+04 -7.64001E+03  5.93535E+03 -1.04365E+04  1.75725E+04  5.87207E+03
  1.32217E+04  2.19273E+04 -6.14693E+03  2.45911E+04 -2.22670E+04  1.07248E+04 -2.69911E+04 -5.29094E+03
 -1.92168E+04 -1.70455E+04 -7.45923E+03 -1.94210E+04  4.15544E+03 -1.82808E+04  1.48249E+04 -1.71643E+04
  2.45636E+04 -1.22482E+04  3.11319E+04  2.11749E+03  2.29354E+04  1.87104E+04  4.16943E+03  3.49930E+04
 -1.69221E+04  2.93929E+04 -2.73785E+04  1.03686E+04 -2.04069E+04 -1.02124E+04 -4.17003E+03 -1.34962E+04
  1.86560E+03 -3.15321E+03 -4.00116E+03  6.06752E+03 -1.51024E+04  5.29468E+03 -1.54457E+04 -6.31121E+03
 -9.70720E+03 -1.78380E+04  4.75820E+03 -2.17327E+04  1.46291E+04 -1.55802E+04  1.67927E+04 -1.69309E+03
  1.04881E+04  1.25079E+04 -1.08598E+03  1.81117E+04 -1.23428E+04  9.95517E+03 -1.78309E+04 -3.92487E+03
 -1.31530E+04 -1.62747E+04 -1.74254E+03 -2.17536E+04  9.78077E+03 -1.77419E+04  1.83473E+04 -8.41465E+03
  1.66381E+04  5.75236E+02  1.19240E+04  4.22569E+03  6.11721E+03  5.52260E+02  9.30837E+03 -1.62458E+03
  1.61227E+04  2.98038E+03  1.80339E+04  1.42201E+04  1.13794E+04  2.86491E+04 -2.75786E+03  3.17308E+04
 -1.87516E+04  2.52138E+04 -2.96478E+04  1.25694E+04 -3.07587E+04 -2.32793E+03 -2.58906E+04 -1.77669E+04
 -1.14731E+04 -2.52324E+04  8.73625E+03 -2.30028E+04  1.98594E+04 -1.25262E+04  1.79981E+04  4.84788E+03
  7.01149E+03  1.33556E+04 -8.44904E+03  1.17976E+04 -1.55136E+04  2.77493E+03 -1.19194E+04 -9.71298E+03
 -1.96579E+02 -1.42382E+04  7.42468E+03 -1.07614E+04  9.36461E+03 -1.51073E+03  2.05510E+03  6.01015E+03
 -6.54076E+03  1.99926E+03 -5.02608E+03 -5.37772E+03 -1.84663E+02 -1.25382E+04  9.06082E+03 -1.29297E+04
  1.55433E+04 -6.59798E+03  1.59641E+04  2.83860E+03  1.36406E+04  1.20325E+04  6.35037E+03  1.82929E+04
 -2.44250E+03  2.02756E+04 -1.27289E+04  1.27174E+04 -1.43125E+04  3.06695E+03 -1.04360E+04 -2.81908E+03
 -5.23922E+03 -4.06964E+03 -7.53595E+02  1.52278E+03 -2.13513E+03  2.52025E+03 -4.55298E+03  4.01412E+03
 -9.91401E+03 -2.91554E+02 -1.02744E+04 -8.44315E+03 -4.34036E+03 -1.38473E+04  4.40753E+03 -1.05755E+04
  8.55963E+03 -4.40572E+03  6.56263E+03  2.84123E+03  4.30633E+02  3.82770E+03 -4.57868E+03 -3.03087E+02
 -4.56318E+03 -6.37481E+03 -8.45212E+02 -9.57429E+03  5.19284E+03 -1.01844E+04  1.29664E+04 -5.01945E+03
  1.50095E+04  9.19259E+02  1.09163E+04  8.49284E+03  2.06101E+03  1.14128E+04 -6.65446E+03  1.03840E+04
 -8.61599E+03  2.94003E+03 -4.29952E+03 -1.69630E+03  1.83778E+03 -2.65444E+03  5.46757E+03 -8.31634E+02
  4.83529E+03  4.64746E+03  1.16802E+03  8.09136E+03 -5.65814E+03  7.94977E+03 -9.85053E+03  2.00698E+03
 -6.46868E+03 -4.92389E+03  1.78667E+02 -8.28526E+03  5.08857E+03 -4.24437E+03  4.83350E+03  2.00702E+03
  9.18438E+02  5.18428E+03 -5.13723E+03  6.54731E+03 -7.14200E+03  3.12205E+03 -7.11432E+03 -2.17017E+03
 -3.75408E+03 -8.71959E+03  1.93578E+03 -9.95721E+03  8.54866E+03 -6.46527E+03  9.14510E+03  1.51172E+03
  5.98008E+03  7.34887E+03 -4.17381E+02  9.70247E+03 -6.65723E+03  5.25791E+03 -7.17905E+03 -5.82254E+02
 -7.22957E+03 -6.34080E+03 -1.54432E+03 -6.91661E+03  3.62381E+03 -6.07235E+03  4.33947E+03 -3.49483E+03
  3.56980E+03  6.58821E+02 -2.81718E+02  1.27788E+03  2.55611E+02 -9.20926E+02  3.98720E+02 -3.55403E+03
  5.58715E+03 -1.75102E+03  8.34008E+03  1.00843E+03  8.27013E+03  4.98638E+03  6.50623E+03  1.06763E+04
 -2.27914E+03  1.23452E+04 -1.07831E+04  9.28536E+03 -1.38117E+04  1.87261E+03 -1.11680E+04 -4.14929E+03
 -5.45736E+03 -9.50597E+03 -1.30629E+02 -7.38101E+03  3.24641E+03 -3.65965E+03  2.53323E+03 -3.06229E+03
  1.83360E+03 -1.94810E+03  2.33103E+03 -2.54047E+03  3.71605E+03 -2.05837E+03  4.64236E+03 -7.02561E+01
  6.26280E+03  1.63814E+03  2.63501E+03  5.12012E+03 -1.56959E+03  5.08635E+03 -6.06467E+03  3.93004E+03
 -7.36279E+03 -1.14766E+03 -3.58682E+03 -4.70790E+03  1.09088E+02 -7.74726E+03  4.81066E+03 -7.77727E+03
  8.11165E+03 -4.70558E+03  9.90071E+03  7.80906E+02  6.98023E+03  6.60461E+03  1.40517E+03  9.05354E+03
 -3.32873E+03  7.89575E+03 -5.08922E+03  2.75338E+03 -3.21198E+03 -1.19156E+03 -9.97863E+02 -9.71313E+02
 -6.86874E+02  3.24458E+02 -1.37218E+03  2.40080E+03 -3.31992E+03  1.23560E+03 -5.70764E+03 -9.72391E+02
 -2.79000E+03 -5.71711E+03  6.32357E+02 -6.99624E+03  4.33928E+03 -6.62783E+03  6.30888E+03 -1.89429E+03
  6.68546E+03  3.59341E+03  2.71973E+03  5.73040E+03 -1.45619E+03  6.72954E+03 -4.65978E+03  3.94869E+03
 -6.15250E+03  7.52704E+02 -5.13546E+03 -3.86928E+03 -4.53176E+02 -5.40853E+03  2.82743E+03 -4.52317E+03
  4.31495E+03 -1.85224E+03  2.84230E+03  1.02432E+03  9.47861E+02  2.47912E+03  1.02541E+03  1.00643E+03
  1.78995E+03  6.26164E+02  1.47013E+03  1.28685E+03  2.05016E+03  2.97429E+03  2.22960E+03  3.33133E+03
 -1.53715E+03  5.09486E+03 -4.53751E+03  5.71326E+03 -6.20623E+03  1.95012E+03 -6.93778E+03 -1.93247E+03
 -2.88684E+03 -6.49276E+03  1.07721E+03 -7.47112E+03  3.53801E+03 -4.23266E+03  5.22980E+03 -1.23353E+03
  4.18007E+03  2.70178E+03  6.06536E+02  4.04135E+03 -1.46839E+03  2.34517E+03 -2.07511E+03 -5.20831E+01
 -1.24815E+03 -2.58954E+03  1.58412E+03 -2.74113E+03  2.12665E+03 -1.26318E+03  2.74689E+03  7.31359E+02
  1.53413E+03  6.09422E+02  7.98215E+02  5.73044E+02 -5.03285E+02  1.04483E+03  1.59626E+03 -4.24463E+02
  5.18053E+02 -3.89756E+02  2.87901E+03  9.67286E+02  9.57119E+02  3.70237E+03 -3.64830E+02  4.47806E+03
 -3.10794E+03  2.22711E+03 -3.71863E+03  7.86599E+02 -3.47446E+03 -1.11994E+03 -7.03263E+02 -2.46455E+03
  3.96756E+02 -2.19535E+03  1.39946E+03 -1.08733E+03  1.12462E+03  1.98859E+03 -1.07898E+03  1.97308E+03
 -2.31402E+03  1.36028E+03 -2.58280E+03 -2.18027E+03 -1.62871E+03 -3.19962E+03  5.63873E+02 -3.19001E+03
  1.49659E+03 -1.77742E+03  1.46258E+03 -3.17986E+01  2.23335E+03  3.72830E+02  4.10585E+02  1.86517E+03
 -1.06855E+03  4.21647E+02 -1.70989E+03 -8.03267E+02  7.95451E+02 -1.96920E+03  2.99745E+03 -1.83657E+03
  3.23300E+03  1.00891E+02  3.96105E+03  1.83985E+03  1.32723E+03  3.64184E+03 -1.08082E+03  3.45475E+03
 -3.24868E+03  1.16296E+03 -2.94698E+03 -3.04817E+02 -1.70556E+03 -2.66589E+03  5.79832E+02 -1.79882E+03
  2.19239E+03 -9.73195E+02  1.60011E+03  7.77929E+02  5.38070E+02  2.50785E+03 -2.02005E+01  2.01987E+03
 -7.28572E+02  1.45575E+03 -6.64406E+02  3.60814E+02 -1.47530E+02  3.19638E+02 -1.02240E+03  7.56253E+02
 -1.28642E+03  1.58120E+03 -3.13955E+03  1.02654E+03 -3.33674E+03  1.28598E+02 -4.23933E+03 -2.14469E+03
 -1.91403E+03 -4.47346E+03  1.09811E+03 -5.09474E+03  2.73764E+03 -4.08079E+03  5.15853E+03 -1.95330E+03
  4.60988E+03  5.00625E+02  2.59317E+03  2.85027E+03 -2.27039E+02  3.21802E+03 -1.44582E+03  2.35187E+03
 -2.01411E+03  1.17231E+03 -1.16934E+03 -3.63747E+02 -9.97024E+02  3.03270E+02 -9.74101E+02 -4.64091E+02
 -1.15120E+03  6.03865E+01 -8.92210E+02  1.14070E+02  2.16155E+02 -1.10036E+03 -3.83330E+02 -1.63491E+03
  1.85376E+03 -1.16415E+03  1.78698E+03 -7.31604E+01  2.26192E+03  1.98037E+03  1.81797E+02  3.24296E+03
 -1.44590E+03  4.05792E+03 -3.21770E+03  2.45229E+03 -3.80097E+03 -2.50170E+02 -2.61748E+03 -2.51897E+03
 -1.28737E+03 -2.93598E+03  5.52893E+02 -2.85599E+03  1.85063E+03 -1.45452E+03  1.83484E+03  2.07020E+02
  9.68804E+02  8.33634E+02  1.70968E+02  6.96108E+02 -7.32468E+02 -2.79986E+02 -6.39559E+01 -4.25233E+02
  1.08848E+03 -1.01879E+02  8.72078E+02  7.16127E+02  4.31486E+02  1.03178E+03  3.23512E+02  1.19225E+03
 -1.44681E+03  1.42448E+03 -1.64989E+03  2.89474E+02 -1.73552E+03 -1.26976E+03 -7.04035E+01 -2.56570E+03
  1.12676E+03 -1.97695E+03  1.90704E+03 -1.73890E+02  2.19102E+03 -3.19959E+02  1.29523E+03  1.92964E+03
  6.96457E+02  1.47382E+03 -7.99426E+02  1.32194E+03 -1.44948E+03  8.54028E+02 -8.68212E+02  2.68051E+02
 -5.44063E+02  6.19151E+01 -9.32593E+02  1.45333E+02 -1.29995E+03  1.76969E+02 -1.59019E+03 -5.93891E+02
 -1.75219E+03 -6.35447E+02 -6.00853E+02 -1.92892E+03  1.23564E+03 -2.60178E+03  1.64048E+03 -8.74341E+02
  1.51807E+03  4.47429E+01  9.36864E+01  9.95876E+02 -6.32727E+01  1.99752E+03 -1.35588E+03  1.73646E+03
