 $NMID ID='MM_0lb_SNR800_13hz_g50_67.RAW', FMTDAT='(8E13.5)'
 TRAMP=1., VOLUME=1. $END
  3.09780E+05  4.74812E+02  3.37662E+05  2.50423E+05  8.47441E+04  3.38263E+05 -1.32550E+05  2.51152E+05
 -1.90616E+05  8.34156E+04 -1.12077E+05 -3.23574E+04  6.41457E+02 -5.04128E+04  5.38067E+04 -4.06538E+02
  3.55587E+04  5.29136E+04 -1.69690E+04  7.57340E+04 -6.11995E+04  6.36418E+04 -8.43849E+04  3.18336E+04
 -8.12461E+04 -1.16022E+04 -5.73852E+04 -5.15150E+04 -1.52664E+04 -7.03498E+04  2.76041E+04 -4.61040E+04
  4.02245E+04  3.74271E+03  1.63650E+04  4.80952E+04 -3.42134E+04  4.73169E+04 -6.70685E+04 -1.81669E+02
 -5.34023E+04 -5.71898E+04 -7.07285E+03 -7.73428E+04  3.41431E+04 -5.52566E+04  4.87012E+04 -1.72454E+04
  4.37469E+04  1.13199E+04  3.23293E+04  2.56113E+04  1.55120E+04  2.96505E+04 -5.23295E+03  2.77671E+04
 -2.23482E+04  1.22378E+04 -1.83788E+04 -5.22678E+03  6.01574E+03 -7.42234E+03  2.27340E+04  1.23994E+04
  7.46086E+03  3.58795E+04 -3.26847E+04  3.59622E+04 -6.38145E+04  2.16787E+03 -5.74086E+04 -4.33449E+04
 -1.24902E+04 -6.36878E+04  4.02952E+04 -4.56116E+04  5.88874E+04 -2.33994E+03  3.47338E+04  3.26191E+04
 -5.95460E+03  3.71324E+04 -3.07113E+04  1.66011E+04 -3.08458E+04 -4.04324E+03 -1.70103E+04 -1.11270E+04
 -8.53135E+03 -1.35826E+04 -6.99260E+02 -1.83952E+04  7.61676E+03 -2.28421E+04  1.54603E+04 -1.31618E+04
  1.08739E+04  5.38011E+03 -8.47574E+03  1.27174E+04 -2.16035E+04 -5.19238E+03 -8.45043E+03 -3.45953E+04
  2.29922E+04 -4.44813E+04  4.90926E+04 -2.00522E+04  4.59503E+04  1.96906E+04  1.59256E+04  4.51248E+04
 -1.62184E+04  3.41436E+04 -2.57965E+04  1.90805E+03 -1.03524E+04 -2.80654E+04  2.09618E+04 -3.44571E+04
  4.18712E+04 -9.30803E+03  3.64920E+04  2.38441E+04  1.90254E+04  4.76461E+04 -7.86794E+03  5.13811E+04
 -3.28533E+04  3.49490E+04 -4.32443E+04  9.92318E+03 -4.37713E+04 -1.71960E+04 -2.39960E+04 -3.84867E+04
  7.50981E+03 -3.88781E+04  3.23167E+04 -1.52174E+04  2.99408E+04  1.11003E+04  4.45867E+03  1.96508E+04
 -1.35334E+04  8.82385E+03 -1.06887E+04 -7.53894E+03  5.88413E+03 -1.04361E+04  1.79791E+04  5.95515E+03
  1.37043E+04  2.22821E+04 -5.86795E+03  2.55999E+04 -2.27059E+04  1.23285E+04 -2.88381E+04 -4.46834E+03
 -2.16879E+04 -1.74892E+04 -8.99033E+03 -2.15367E+04  4.11021E+03 -2.08166E+04  1.66491E+04 -1.90729E+04
  2.75059E+04 -1.33869E+04  3.39402E+04  3.34960E+03  2.41929E+04  2.14172E+04  4.46626E+03  3.74987E+04
 -1.80984E+04  3.11962E+04 -2.83364E+04  1.09013E+04 -2.12180E+04 -1.05016E+04 -4.42588E+03 -1.33055E+04
  1.65700E+03 -2.30913E+03 -5.31633E+03  7.07931E+03 -1.66433E+04  5.11038E+03 -1.72815E+04 -7.65824E+03
 -1.04570E+04 -2.00797E+04  5.49850E+03 -2.39052E+04  1.61047E+04 -1.69563E+04  1.91159E+04 -1.78764E+03
  1.16721E+04  1.40545E+04 -1.25583E+03  1.99951E+04 -1.41800E+04  1.14262E+04 -1.97550E+04 -4.15234E+03
 -1.47805E+04 -1.79326E+04 -1.89109E+03 -2.39172E+04  1.04974E+04 -1.97285E+04  2.00675E+04 -1.00083E+04
  1.89579E+04  1.34025E+02  1.32706E+04  4.64910E+03  6.89222E+03  9.59961E+02  1.00754E+04 -1.63355E+03
  1.82476E+04  2.86988E+03  2.05712E+04  1.58929E+04  1.35821E+04  3.18560E+04 -2.74617E+03  3.62697E+04
 -2.10392E+04  2.94534E+04 -3.38391E+04  1.46869E+04 -3.57619E+04 -2.83695E+03 -2.94336E+04 -2.06196E+04
 -1.21088E+04 -2.92990E+04  1.00968E+04 -2.66793E+04  2.26000E+04 -1.33884E+04  2.03446E+04  5.89799E+03
  7.37965E+03  1.52028E+04 -9.37815E+03  1.31889E+04 -1.68356E+04  2.64475E+03 -1.31171E+04 -1.06470E+04
 -2.57925E+02 -1.63263E+04  8.40972E+03 -1.21480E+04  1.06958E+04 -1.50214E+03  2.21723E+03  7.14475E+03
 -7.48569E+03  3.02031E+03 -6.51981E+03 -6.02252E+03 -6.77369E+02 -1.42516E+04  1.00857E+04 -1.54726E+04
  1.78623E+04 -7.85698E+03  1.95099E+04  3.24510E+03  1.71588E+04  1.42064E+04  7.79405E+03  2.19850E+04
 -3.53855E+03  2.39571E+04 -1.53668E+04  1.53242E+04 -1.70524E+04  3.14669E+03 -1.18479E+04 -4.06951E+03
 -5.50985E+03 -5.41613E+03 -7.50960E+02  1.08917E+03 -2.51229E+03  2.49892E+03 -5.40160E+03  4.83219E+03
 -1.11826E+04 -3.20840E+02 -1.18454E+04 -9.28230E+03 -4.91581E+03 -1.55526E+04  4.96104E+03 -1.25503E+04
  1.06059E+04 -5.12939E+03  7.25516E+03  3.14006E+03 -3.13663E+01  4.42585E+03 -5.51914E+03 -1.74906E+02
 -5.65232E+03 -7.56701E+03 -9.86723E+02 -1.17130E+04  6.36612E+03 -1.18677E+04  1.51671E+04 -6.79396E+03
  1.79364E+04  1.59817E+03  1.30322E+04  1.03645E+04  2.44179E+03  1.38399E+04 -7.89091E+03  1.19287E+04
 -9.75487E+03  3.30599E+03 -4.99512E+03 -2.18036E+03  2.00691E+03 -3.36870E+03  6.44189E+03 -1.08970E+03
  5.96601E+03  4.83843E+03  1.08387E+03  9.51489E+03 -6.93061E+03  9.12993E+03 -1.17471E+04  2.07249E+03
 -7.65149E+03 -6.03917E+03 -9.83276E+01 -1.03171E+04  6.17578E+03 -5.14039E+03  6.28969E+03  2.07098E+03
  1.68975E+03  6.86807E+03 -6.47587E+03  8.02903E+03 -9.27061E+03  3.81607E+03 -9.30914E+03 -3.32869E+03
 -5.31392E+03 -1.09696E+04  2.60416E+03 -1.26466E+04  1.06835E+04 -7.67345E+03  1.16381E+04  2.01119E+03
  7.50878E+03  9.10430E+03 -8.60814E+02  1.14802E+04 -8.27738E+03  6.44560E+03 -9.03631E+03 -9.79357E+02
 -8.25484E+03 -7.85984E+03 -1.28898E+03 -8.19565E+03  4.48468E+03 -7.27422E+03  5.25375E+03 -3.20730E+03
  3.90237E+03  1.11590E+03 -2.40944E+02  1.66897E+03 -1.58781E+02 -1.79800E+03  1.46778E+03 -4.41963E+03
  7.67209E+03 -2.78854E+03  1.05463E+04  1.42527E+03  1.04732E+04  6.81525E+03  7.82558E+03  1.37310E+04
 -2.99616E+03  1.61899E+04 -1.34890E+04  1.18405E+04 -1.76632E+04  2.18806E+03 -1.39220E+04 -5.72404E+03
 -7.14176E+03 -1.13679E+04 -6.48509E+02 -9.57685E+03  3.80612E+03 -5.13158E+03  3.63660E+03 -4.01585E+03
  2.34652E+03 -2.33674E+03  3.08641E+03 -3.00889E+03  4.70456E+03 -2.55246E+03  5.48717E+03 -6.85203E+02
  7.42168E+03  1.48572E+03  3.32395E+03  6.02547E+03 -1.92732E+03  6.94753E+03 -7.47997E+03  5.34447E+03
 -9.23690E+03 -1.19722E+03 -5.17880E+03 -6.80278E+03 -4.78601E+02 -1.01753E+04  5.49536E+03 -1.00956E+04
  1.04507E+04 -5.84092E+03  1.30656E+04  1.24195E+03  9.10085E+03  8.66064E+03  1.58769E+03  1.14377E+04
 -4.78559E+03  9.90812E+03 -6.53664E+03  3.10116E+03 -4.23459E+03 -1.34621E+03 -1.71298E+03 -1.30150E+03
 -7.04863E+02  2.23705E+02 -1.75645E+03  2.24743E+03 -4.24766E+03  1.86239E+03 -6.96500E+03 -6.75702E+02
 -4.23329E+03 -6.78815E+03  6.35462E+02 -9.14502E+03  5.39769E+03 -8.95922E+03  8.54540E+03 -2.67332E+03
  8.77200E+03  4.87966E+03  4.02527E+03  7.49853E+03 -1.61843E+03  9.10274E+03 -6.55487E+03  5.86040E+03
 -8.57002E+03  7.89773E+02 -6.63252E+03 -5.50486E+03 -6.65527E+02 -7.65015E+03  4.01797E+03 -5.35039E+03
  5.10101E+03 -2.04923E+03  4.14185E+03  1.30834E+03  1.38871E+03  2.69191E+03  1.41779E+03  1.09598E+03
  2.16128E+03  7.95997E+02  2.16386E+03  1.29945E+03  2.73335E+03  3.55066E+03  2.35814E+03  4.36298E+03
 -2.38556E+03  7.00743E+03 -6.12293E+03  7.58199E+03 -8.55244E+03  2.01364E+03 -9.24174E+03 -3.55410E+03
 -4.17792E+03 -8.75199E+03  1.54401E+03 -9.98450E+03  5.03495E+03 -5.90542E+03  7.07663E+03 -1.48573E+03
  5.63491E+03  3.71647E+03  1.38232E+03  5.33854E+03 -2.05982E+03  2.92297E+03 -3.12676E+03 -7.26753E+02
 -1.80991E+03 -3.66181E+03  1.89125E+03 -3.89525E+03  3.43025E+03 -2.04819E+03  3.47708E+03  8.83923E+02
  2.20323E+03  1.52033E+03  1.13458E+03  1.06519E+03 -7.29937E+02  1.16833E+03  1.39263E+03 -4.14723E+02
  1.05201E+03 -2.38279E+02  3.84080E+03  1.47242E+03  1.63990E+03  4.70778E+03 -6.40315E+02  6.29766E+03
 -4.28555E+03  3.47706E+03 -5.47115E+03  1.00803E+03 -4.88445E+03 -2.25786E+03 -1.47754E+03 -3.19786E+03
  7.56016E+02 -3.29902E+03  1.92403E+03 -1.38753E+03  1.98814E+03  2.08145E+03 -9.98770E+02  2.58584E+03
 -3.95302E+03  1.43007E+03 -3.46039E+03 -2.46533E+03 -1.98894E+03 -4.65456E+03  6.42102E+02 -4.51597E+03
  2.20794E+03 -2.27513E+03  3.08479E+03 -4.00762E+02  3.09288E+03  4.07899E+02  2.91847E+02  2.18217E+03
 -1.34170E+03  7.50450E+02 -2.18876E+03 -1.26341E+03  1.14753E+03 -3.25242E+03  3.79192E+03 -2.54944E+03
  4.86107E+03  3.20481E+02  5.43069E+03  3.24491E+03  1.90512E+03  4.88294E+03 -1.83956E+03  5.01948E+03
 -4.09114E+03  1.93983E+03 -4.09922E+03 -6.19478E+02 -2.34867E+03 -3.56250E+03  1.11972E+03 -2.66503E+03
  3.26447E+03 -1.32243E+03  2.24937E+03  1.64267E+03  1.00886E+03  3.22071E+03 -3.06869E+02  2.56999E+03
 -1.18905E+03  1.99604E+03 -1.16602E+03  5.50776E+02 -5.90500E+02  5.50405E+02 -8.57394E+02  1.23670E+03
 -1.35582E+03  2.39983E+03 -3.98785E+03  1.75513E+03 -5.02349E+03  2.09545E+02 -5.52536E+03 -3.21765E+03
 -2.84048E+03 -6.67982E+03  1.38420E+03 -8.12177E+03  4.37273E+03 -6.28783E+03  7.34544E+03 -2.60708E+03
  6.72084E+03  1.29382E+03  3.86657E+03  4.79777E+03 -7.72983E+01  4.34589E+03 -2.13901E+03  3.81376E+03
 -2.80109E+03  1.68073E+03 -1.80186E+03 -6.41331E+02 -6.29551E+02 -3.39598E+02 -7.77412E+02 -4.65362E+02
 -1.37414E+03 -2.58889E+01 -1.48947E+03 -1.65118E+02 -2.51802E+02 -1.43644E+03 -4.06554E+02 -2.07948E+03
  2.52609E+03 -1.99337E+03  2.94219E+03  5.30933E+01  3.51478E+03  2.55351E+03  6.14091E+02  4.75632E+03
 -2.37872E+03  5.89606E+03 -5.03652E+03  3.60982E+03 -5.83283E+03 -6.85845E+02 -4.13615E+03 -3.42782E+03
 -1.89386E+03 -4.88625E+03  1.30558E+03 -4.45059E+03  2.99486E+03 -1.95608E+03  2.70983E+03  1.95429E+02
  1.78564E+03  1.55439E+03 -9.45622E+01  1.35585E+03 -1.09221E+03 -8.41056E+01  5.12971E+01 -1.11794E+03
  1.46983E+03 -4.17150E+02  1.75203E+03  4.85191E+02  8.79124E+02  1.72101E+03  2.89044E+02  2.32434E+03
 -2.43001E+03  1.86243E+03 -2.98165E+03  5.35359E+02 -2.74001E+03 -2.18538E+03 -3.34347E+02 -3.68873E+03
  2.04566E+03 -3.14067E+03  2.77008E+03 -7.94701E+02  3.65992E+03  6.03598E+01  1.70684E+03  2.76667E+03
  6.17511E+02  2.89261E+03 -9.34709E+02  1.80746E+03 -1.91742E+03  1.81890E+03 -1.95287E+03  2.10624E+02
 -8.62588E+02  9.10383E+01 -7.74847E+02  4.20062E+02 -1.83725E+03  6.29086E+02 -2.29329E+03 -5.04851E+02
 -2.76968E+03 -1.12130E+03 -8.66840E+02 -3.07389E+03  1.37561E+03 -3.53368E+03  2.55707E+03 -1.57732E+03
  3.01059E+03  5.29542E+02  1.08318E+03  2.06475E+03 -8.05613E+01  2.82001E+03 -1.71199E+03  2.10806E+03
