 $NMID ID='MM_0lb_SNR800_8hz_g60_94.RAW', FMTDAT='(8E13.5)'
 TRAMP=1., VOLUME=1. $END
  3.10228E+05  8.57000E+02  3.38099E+05  2.50418E+05  8.51528E+04  3.39081E+05 -1.33075E+05  2.52135E+05
 -1.91236E+05  8.40317E+04 -1.12946E+05 -3.19821E+04  1.43565E+02 -5.09842E+04  5.35110E+04 -1.14696E+03
  3.57629E+04  5.25239E+04 -1.67990E+04  7.58663E+04 -6.16408E+04  6.44912E+04 -8.54358E+04  3.29653E+04
 -8.31283E+04 -1.17518E+04 -5.86717E+04 -5.24907E+04 -1.48765E+04 -7.17778E+04  2.84045E+04 -4.68963E+04
  4.13397E+04  3.47789E+03  1.71807E+04  4.89453E+04 -3.48574E+04  4.87572E+04 -6.87361E+04  6.49544E+02
 -5.57202E+04 -5.85654E+04 -7.64837E+03 -7.98280E+04  3.52746E+04 -5.79838E+04  5.05426E+04 -1.87190E+04
  4.61296E+04  1.17613E+04  3.34533E+04  2.70982E+04  1.60534E+04  3.11889E+04 -5.99915E+03  2.81448E+04
 -2.25275E+04  1.17227E+04 -1.78887E+04 -5.72512E+03  7.66658E+03 -7.57887E+03  2.37709E+04  1.44082E+04
  7.04944E+03  3.84733E+04 -3.45450E+04  3.80677E+04 -6.68680E+04  2.33744E+03 -5.97650E+04 -4.52864E+04
 -1.26195E+04 -6.66035E+04  4.25363E+04 -4.81428E+04  6.22180E+04 -2.37929E+03  3.75973E+04  3.50399E+04
 -5.17118E+03  4.09659E+04 -3.24704E+04  1.97715E+04 -3.44617E+04 -2.92819E+03 -2.08117E+04 -1.25253E+04
 -9.77683E+03 -1.55789E+04 -4.03081E+02 -2.05507E+04  8.88005E+03 -2.38386E+04  1.59122E+04 -1.24417E+04
  1.05407E+04  7.29291E+03 -1.17128E+04  1.28515E+04 -2.41353E+04 -6.89236E+03 -8.69769E+03 -3.90021E+04
  2.59550E+04 -4.79014E+04  5.35779E+04 -2.12832E+04  5.03265E+04  2.11867E+04  1.80199E+04  4.83138E+04
 -1.72223E+04  3.66518E+04 -2.84744E+04  2.94613E+03 -1.22950E+04 -3.06727E+04  2.22140E+04 -3.84258E+04
  4.59559E+04 -1.17434E+04  4.25622E+04  2.54950E+04  2.25850E+04  5.30884E+04 -8.49024E+03  5.84342E+04
 -3.68473E+04  4.04392E+04 -4.98107E+04  1.19775E+04 -4.94069E+04 -1.92771E+04 -2.71269E+04 -4.38331E+04
  8.18452E+03 -4.40780E+04  3.55077E+04 -1.81835E+04  3.34535E+04  1.13777E+04  5.83306E+03  2.17512E+04
 -1.41366E+04  9.96358E+03 -1.13867E+04 -7.10581E+03  5.44510E+03 -1.17906E+04  1.87902E+04  4.96558E+03
  1.51520E+04  2.27346E+04 -4.80867E+03  2.79795E+04 -2.40300E+04  1.53217E+04 -3.30516E+04 -2.43278E+03
 -2.74219E+04 -1.87019E+04 -1.35360E+04 -2.63447E+04  4.61369E+03 -2.80395E+04  2.11175E+04 -2.50490E+04
  3.44427E+04 -1.47562E+04  4.05886E+04  5.58722E+03  2.85067E+04  2.65090E+04  4.27394E+03  4.34767E+04
 -2.06214E+04  3.51942E+04 -3.19379E+04  1.27333E+04 -2.30867E+04 -1.04935E+04 -5.17581E+03 -1.26891E+04
  6.25704E+02 -4.23141E+02 -8.44346E+03  9.20703E+03 -2.18982E+04  4.45624E+03 -2.15012E+04 -1.06907E+04
 -1.29275E+04 -2.50968E+04  6.48701E+03 -2.94627E+04  2.02598E+04 -2.10170E+04  2.49782E+04 -2.26197E+03
  1.58456E+04  1.75898E+04 -1.60842E+03  2.50671E+04 -1.81190E+04  1.44343E+04 -2.57483E+04 -4.98625E+03
 -1.89062E+04 -2.25655E+04 -2.47767E+03 -3.04556E+04  1.37887E+04 -2.54070E+04  2.47010E+04 -1.34066E+04
  2.38454E+04 -9.65346E+01  1.74364E+04  5.33259E+03  9.66863E+03  1.50069E+03  1.30337E+04 -1.97602E+03
  2.37173E+04  3.18634E+03  2.76929E+04  1.95720E+04  1.91331E+04  4.05958E+04 -2.40363E+03  4.80203E+04
 -2.73520E+04  4.08852E+04 -4.65008E+04  2.15069E+04 -4.93633E+04 -3.44756E+03 -4.00095E+04 -2.90262E+04
 -1.58374E+04 -4.14826E+04  1.46202E+04 -3.57477E+04  3.04029E+04 -1.61549E+04  2.60434E+04  8.89099E+03
  8.96667E+03  2.01922E+04 -1.27308E+04  1.72503E+04 -2.20992E+04  2.13847E+03 -1.62594E+04 -1.40227E+04
 -6.44505E+02 -2.10086E+04  1.13804E+04 -1.55174E+04  1.47960E+04 -1.12404E+03  3.98539E+03  9.49254E+03
 -9.60703E+03  4.86637E+03 -1.03672E+04 -7.68327E+03 -2.69215E+03 -2.02649E+04  1.31614E+04 -2.22961E+04
  2.54788E+04 -1.26149E+04  2.99893E+04  3.45413E+03  2.63766E+04  2.05223E+04  1.22909E+04  3.27972E+04
 -6.56749E+03  3.50174E+04 -2.30605E+04  2.20252E+04 -2.56575E+04  4.09963E+03 -1.69013E+04 -6.76885E+03
 -6.74825E+03 -8.50655E+03  6.80576E+01 -3.27603E+02 -2.58780E+03  3.91348E+03 -8.24318E+03  6.09423E+03
 -1.56635E+04 -1.25245E+03 -1.64788E+04 -1.32117E+04 -6.60657E+03 -2.12780E+04  7.38550E+03 -1.77693E+04
  1.45005E+04 -7.49170E+03  9.97047E+03  4.60608E+03 -3.61006E+02  7.53018E+03 -9.09084E+03  7.28862E+01
 -8.67040E+03 -1.12303E+04 -1.66842E+03 -1.76024E+04  1.04669E+04 -1.86819E+04  2.25359E+04 -1.00794E+04
  2.68226E+04  3.04408E+03  1.94072E+04  1.64020E+04  3.44798E+03  2.16761E+04 -1.10135E+04  1.74720E+04
 -1.45059E+04  5.17030E+03 -7.39612E+03 -4.90969E+03  2.37084E+03 -4.95173E+03  8.84886E+03 -1.10729E+03
  8.25335E+03  7.94707E+03  1.53073E+03  1.46202E+04 -1.04707E+04  1.37734E+04 -1.75799E+04  3.35711E+03
 -1.25194E+04 -9.61724E+03  1.66986E+02 -1.51879E+04  9.60133E+03 -7.99112E+03  1.14309E+04  4.08489E+03
  2.63738E+03  1.17918E+04 -9.70357E+03  1.33466E+04 -1.58459E+04  6.00655E+03 -1.67370E+04 -6.07014E+03
 -9.21356E+03 -1.88821E+04  4.90134E+03 -2.13459E+04  1.77240E+04 -1.25259E+04  1.96673E+04  3.39985E+03
  1.16102E+04  1.48939E+04 -2.19813E+03  1.81402E+04 -1.38485E+04  1.00780E+04 -1.50741E+04 -1.33272E+03
 -1.19256E+04 -1.20120E+04 -1.72244E+03 -1.40807E+04  6.99996E+03 -1.10916E+04  9.14679E+03 -4.04037E+03
  5.77396E+03  2.59872E+03 -1.55450E+03  2.46102E+03 -1.51988E+03 -4.56134E+03  3.55039E+03 -8.81525E+03
  1.33972E+04 -5.94427E+03  1.89234E+04  2.00261E+03  1.85765E+04  1.31237E+04  1.14092E+04  2.49865E+04
 -6.11426E+03  2.83128E+04 -2.38150E+04  2.05703E+04 -3.01589E+04  3.97567E+03 -2.45211E+04 -1.07562E+04
 -1.24002E+04 -2.01939E+04 -3.74412E+02 -1.70649E+04  5.62598E+03 -1.00286E+04  6.54551E+03 -6.22577E+03
  4.73760E+03 -3.97525E+03  4.80759E+03 -4.17914E+03  6.11804E+03 -4.41318E+03  9.43316E+03 -1.69544E+03
  1.24751E+04  2.58888E+03  7.47871E+03  1.10303E+04 -2.33202E+03  1.38061E+04 -1.30872E+04  1.03379E+04
 -1.77788E+04 -1.25700E+03 -1.19010E+04 -1.24686E+04 -2.07999E+03 -1.88563E+04  1.05275E+04 -1.83337E+04
  1.95208E+04 -1.06251E+04  2.31226E+04  2.98804E+03  1.59553E+04  1.69276E+04  2.48134E+03  2.10308E+04
 -9.13513E+03  1.67721E+04 -1.22895E+04  6.22284E+03 -9.04130E+03 -2.07004E+03 -3.99167E+03 -2.34661E+03
 -1.56203E+03 -8.58453E+01 -2.97536E+03  3.49239E+03 -7.19189E+03  2.72583E+03 -1.16409E+04 -2.21156E+03
 -9.18921E+03 -1.16498E+04 -5.19829E+02 -1.77282E+04  1.09073E+04 -1.64925E+04  1.74932E+04 -4.70253E+03
  1.79766E+04  8.52629E+03  8.63888E+03  1.67438E+04 -3.59951E+03  1.79076E+04 -1.28454E+04  1.13926E+04
 -1.71221E+04  3.94563E+02 -1.27531E+04 -1.11248E+04 -1.40626E+03 -1.53245E+04  8.05512E+03 -1.08493E+04
  1.14085E+04 -3.10574E+03  8.09052E+03  3.54632E+03  3.11510E+03  5.06474E+03  1.36892E+03  2.71159E+03
  3.13819E+03  1.22329E+03  4.02126E+03  2.18712E+03  5.44833E+03  6.19435E+03  4.43640E+03  9.60335E+03
 -3.90097E+03  1.43261E+04 -1.25394E+04  1.40369E+04 -1.88591E+04  3.55111E+03 -1.95991E+04 -8.32342E+03
 -9.14180E+03 -1.83849E+04  2.70505E+03 -2.01447E+04  1.14639E+04 -1.30340E+04  1.52723E+04 -3.05619E+03
  1.12950E+04  6.64655E+03  2.90933E+03  1.06191E+04 -5.70685E+03  6.98977E+03 -7.64412E+03 -1.15726E+03
 -3.73213E+03 -7.67982E+03  4.42988E+03 -8.21415E+03  8.25249E+03 -3.95458E+03  7.76069E+03  1.58050E+03
  4.50078E+03  4.16783E+03  1.70821E+03  3.58849E+03 -6.96268E+02  3.00802E+03  1.79892E+03 -7.90741E+02
  3.18792E+03 -1.12601E+03  7.45046E+03  3.25111E+03  4.56329E+03  1.02402E+04 -1.66989E+03  1.33332E+04
 -9.36909E+03  9.20329E+03 -1.19551E+04  2.52708E+03 -1.05009E+04 -4.23916E+03 -4.54513E+03 -7.43578E+03
  1.31250E+03 -7.53687E+03  4.75047E+03 -3.31274E+03  4.31260E+03  3.40816E+03 -1.73592E+03  6.65837E+03
 -7.73343E+03  3.72705E+03 -9.00779E+03 -3.82103E+03 -4.89768E+03 -1.01507E+04  1.65137E+03 -1.04944E+04
  7.01381E+03 -6.93100E+03  7.90808E+03 -7.21176E+02  6.20441E+03  3.20108E+03  5.01151E+02  5.56674E+03
 -3.76204E+03  1.77714E+03 -4.29693E+03 -4.35605E+03  2.08933E+03 -7.98254E+03  9.77519E+03 -6.75014E+03
  1.22646E+04  1.09852E+03  1.15873E+04  8.39748E+03  3.72859E+03  1.25663E+04 -4.78336E+03  1.21884E+04
 -1.04975E+04  5.76779E+03 -1.10615E+04 -1.80669E+03 -5.79938E+03 -8.41130E+03  1.78530E+03 -7.83580E+03
  7.55338E+03 -3.85648E+03  6.82382E+03  3.21096E+03  2.33522E+03  6.72577E+03 -1.30162E+03  6.15755E+03
 -3.25532E+03  3.49935E+03 -2.75982E+03  1.62792E+03 -1.89162E+03  8.13751E+02 -1.84181E+03  2.64294E+03
 -3.35687E+03  4.62739E+03 -8.64997E+03  4.32905E+03 -1.23763E+04  1.19057E+02 -1.43050E+04 -8.53749E+03
 -7.45409E+03 -1.71015E+04  3.50523E+03 -1.90989E+04  1.23805E+04 -1.51465E+04  1.87625E+04 -6.19365E+03
  1.71687E+04  3.44871E+03  1.10748E+04  1.19321E+04  1.39294E+03  1.35832E+04 -5.53470E+03  1.03808E+04
 -7.76163E+03  4.05838E+03 -4.50563E+03 -1.21639E+03 -1.41983E+03 -1.79620E+03 -7.16762E+02 -1.19825E+02
 -2.31434E+03  3.92780E+02 -2.94475E+03 -9.30733E+02 -1.13171E+03 -3.22001E+03  5.84316E+02 -4.99541E+03
  5.97945E+03 -4.75690E+03  8.25810E+03  2.55946E+02  9.23439E+03  7.05817E+03  2.52198E+03  1.38193E+04
 -6.09181E+03  1.56298E+04 -1.42373E+04  9.01747E+03 -1.65925E+04 -1.73752E+03 -1.28516E+04 -1.02470E+04
 -4.71971E+03 -1.37427E+04  3.90871E+03 -1.26562E+04  9.34851E+03 -6.82572E+03  9.18182E+03  3.70243E+02
  5.17011E+03  4.57701E+03 -4.88233E+02  4.04197E+03 -2.88787E+03 -6.44832E+02 -4.35649E+01 -3.19002E+03
  4.13653E+03 -2.39522E+03  5.63048E+03  1.68438E+03  3.77069E+03  5.84124E+03 -1.52886E+02  7.73796E+03
 -6.06908E+03  6.28308E+03 -9.25499E+03  5.83600E+02 -8.69600E+03 -6.73499E+03 -9.50454E+02 -1.13144E+04
  6.90962E+03 -9.47056E+03  1.09404E+04 -2.70300E+03  1.06441E+04  2.28230E+03  6.18118E+03  8.63227E+03
  1.15474E+03  8.92959E+03 -3.82710E+03  7.58650E+03 -6.04075E+03  3.86662E+03 -4.99075E+03  3.22729E+02
 -2.09540E+03 -5.34701E+02 -2.73763E+03  1.43955E+03 -5.24152E+03  1.50595E+03 -7.11593E+03 -1.65763E+03
 -7.26866E+03 -5.48339E+03 -1.68018E+03 -9.50388E+03  4.19691E+03 -9.53874E+03  8.29996E+03 -4.63201E+03
  9.43041E+03  1.40899E+03  5.41813E+03  7.09811E+03 -6.96501E+02  9.37395E+03 -7.45117E+03  5.49899E+03
