 $NMID ID='MM_0lb_SNR800_15hz_g40_16.RAW', FMTDAT='(8E13.5)'
 TRAMP=1., VOLUME=1. $END
  3.09748E+05  3.65237E+02  3.37425E+05  2.50608E+05  8.43862E+04  3.37644E+05 -1.32527E+05  2.50594E+05
 -1.89854E+05  8.27910E+04 -1.11391E+05 -3.29494E+04  1.23941E+03 -5.04607E+04  5.36950E+04 -2.01821E+01
  3.53644E+04  5.29581E+04 -1.68891E+04  7.53184E+04 -6.08048E+04  6.32813E+04 -8.36054E+04  3.15367E+04
 -8.01774E+04 -1.11562E+04 -5.65178E+04 -5.07435E+04 -1.52628E+04 -6.87316E+04  2.71044E+04 -4.53002E+04
  3.95992E+04  3.74678E+03  1.61982E+04  4.76901E+04 -3.41537E+04  4.62739E+04 -6.62868E+04 -4.48985E+02
 -5.27175E+04 -5.64939E+04 -6.50751E+03 -7.59051E+04  3.32075E+04 -5.37888E+04  4.73002E+04 -1.64194E+04
  4.26784E+04  1.15052E+04  3.14041E+04  2.48472E+04  1.58038E+04  2.90252E+04 -5.17643E+03  2.69135E+04
 -2.18537E+04  1.26722E+04 -1.88209E+04 -4.64931E+03  5.02384E+03 -7.52850E+03  2.17954E+04  1.15986E+04
  7.41125E+03  3.42945E+04 -3.13253E+04  3.44611E+04 -6.23671E+04  1.92052E+03 -5.61419E+04 -4.20901E+04
 -1.23889E+04 -6.19794E+04  3.89201E+04 -4.48336E+04  5.67530E+04 -2.17453E+03  3.32141E+04  3.13873E+04
 -6.35486E+03  3.46909E+04 -2.91687E+04  1.46713E+04 -2.91000E+04 -4.88754E+03 -1.53219E+04 -1.05611E+04
 -7.92838E+03 -1.22667E+04 -8.17812E+02 -1.74890E+04  7.23970E+03 -2.24544E+04  1.55659E+04 -1.34297E+04
  1.19760E+04  4.66887E+03 -7.23548E+03  1.30480E+04 -2.04165E+04 -3.53146E+03 -8.10423E+03 -3.21507E+04
  2.21396E+04 -4.17531E+04  4.65515E+04 -1.91875E+04  4.35318E+04  1.88061E+04  1.49683E+04  4.28566E+04
 -1.57623E+04  3.23132E+04 -2.42830E+04  1.27441E+03 -9.05374E+03 -2.70163E+04  2.09425E+04 -3.26032E+04
  3.95804E+04 -8.36288E+03  3.37360E+04  2.34710E+04  1.71520E+04  4.44754E+04 -7.87182E+03  4.79468E+04
 -2.99532E+04  3.19138E+04 -3.97656E+04  9.01223E+03 -4.04850E+04 -1.60295E+04 -2.26445E+04 -3.58680E+04
  7.38001E+03 -3.59639E+04  3.04471E+04 -1.39398E+04  2.78266E+04  1.07265E+04  3.14760E+03  1.87012E+04
 -1.34386E+04  8.06994E+03 -1.01321E+04 -7.51137E+03  5.70420E+03 -1.04962E+04  1.77045E+04  6.48550E+03
  1.29602E+04  2.20033E+04 -6.50279E+03  2.41439E+04 -2.20418E+04  1.01693E+04 -2.68312E+04 -5.44777E+03
 -1.87794E+04 -1.67495E+04 -7.24860E+03 -1.88323E+04  3.89015E+03 -1.73985E+04  1.44048E+04 -1.67659E+04
  2.40805E+04 -1.18964E+04  3.06782E+04  1.91407E+03  2.28226E+04  1.86484E+04  4.20946E+03  3.45767E+04
 -1.66589E+04  2.90466E+04 -2.72814E+04  1.01071E+04 -2.02105E+04 -1.04911E+04 -4.23765E+03 -1.37162E+04
  2.07638E+03 -3.42084E+03 -3.89495E+03  6.08494E+03 -1.47676E+04  5.29411E+03 -1.48459E+04 -5.99277E+03
 -9.52384E+03 -1.73042E+04  4.83669E+03 -2.15415E+04  1.41442E+04 -1.53797E+04  1.65326E+04 -1.47670E+03
  1.02279E+04  1.20742E+04 -8.01687E+02  1.76277E+04 -1.17148E+04  1.00727E+04 -1.75489E+04 -3.94423E+03
 -1.28988E+04 -1.57936E+04 -1.46241E+03 -2.14275E+04  9.65313E+03 -1.74168E+04  1.81080E+04 -8.56584E+03
  1.61455E+04  4.75162E+02  1.16855E+04  4.36890E+03  6.12929E+03  6.13797E+02  8.87322E+03 -1.54565E+03
  1.58095E+04  2.95681E+03  1.76886E+04  1.42650E+04  1.10547E+04  2.77207E+04 -2.95066E+03  3.09207E+04
 -1.81339E+04  2.44143E+04 -2.86640E+04  1.20028E+04 -2.97968E+04 -2.28810E+03 -2.48963E+04 -1.69246E+04
 -1.15502E+04 -2.43792E+04  8.29128E+03 -2.19285E+04  1.90812E+04 -1.20216E+04  1.77607E+04  4.79045E+03
  6.82861E+03  1.31420E+04 -8.18807E+03  1.14400E+04 -1.49775E+04  2.67097E+03 -1.17094E+04 -9.15905E+03
 -6.81308E+01 -1.39286E+04  6.93841E+03 -1.07355E+04  9.26952E+03 -1.34156E+03  1.88609E+03  5.92688E+03
 -6.24142E+03  1.81035E+03 -5.01716E+03 -5.19526E+03 -2.53817E+01 -1.19830E+04  8.71432E+03 -1.25185E+04
  1.49451E+04 -6.03660E+03  1.56033E+04  2.97560E+03  1.36052E+04  1.16070E+04  6.46964E+03  1.78550E+04
 -2.72221E+03  1.94918E+04 -1.20022E+04  1.23727E+04 -1.41205E+04  2.97557E+03 -1.00788E+04 -2.75080E+03
 -4.64497E+03 -4.36321E+03 -6.99105E+02  1.47185E+03 -2.15995E+03  2.92909E+03 -4.43472E+03  3.93771E+03
 -9.51943E+03 -3.47691E+02 -1.01962E+04 -8.36605E+03 -4.15597E+03 -1.35115E+04  4.11032E+03 -1.04427E+04
  8.31006E+03 -4.27126E+03  6.18842E+03  2.52340E+03  4.86166E+02  3.91251E+03 -4.84347E+03 -3.17527E+02
 -4.60024E+03 -6.38148E+03 -1.01822E+03 -9.36361E+03  5.43940E+03 -9.89467E+03  1.23814E+04 -5.17486E+03
  1.47043E+04  8.80633E+02  1.09553E+04  8.15968E+03  2.47626E+03  1.10586E+04 -6.39465E+03  1.00508E+04
 -8.06102E+03  3.43768E+03 -4.43715E+03 -1.80906E+03  1.38480E+03 -2.50005E+03  5.42348E+03 -9.87823E+02
  4.99234E+03  4.26483E+03  9.44171E+02  7.85234E+03 -5.83193E+03  7.92162E+03 -9.47150E+03  1.78546E+03
 -6.46841E+03 -4.86124E+03 -2.54824E+01 -8.26458E+03  4.82715E+03 -4.16615E+03  4.81758E+03  1.73063E+03
  1.01541E+03  4.81364E+03 -4.95628E+03  6.48456E+03 -6.84314E+03  3.14972E+03 -6.71193E+03 -1.64875E+03
 -3.91623E+03 -8.40814E+03  1.98273E+03 -9.45825E+03  8.33054E+03 -6.08712E+03  8.96656E+03  1.30791E+03
  5.94932E+03  7.14044E+03 -2.43842E+02  9.01576E+03 -6.69596E+03  5.13230E+03 -7.15864E+03 -7.17072E+02
 -6.59499E+03 -6.39401E+03 -1.47769E+03 -6.58511E+03  3.54967E+03 -5.71847E+03  4.01826E+03 -2.92531E+03
  3.22376E+03  5.79320E+02 -8.46791E+01  1.21808E+03  1.63608E+01 -9.82138E+02  1.04606E+03 -3.13012E+03
  5.59969E+03 -1.65463E+03  7.83731E+03  9.17668E+02  8.12954E+03  4.80750E+03  6.42705E+03  1.05362E+04
 -1.95929E+03  1.20621E+04 -1.05827E+04  8.93247E+03 -1.36916E+04  1.72383E+03 -1.05599E+04 -4.17127E+03
 -5.58826E+03 -9.15388E+03 -4.09616E+02 -7.07577E+03  3.02404E+03 -3.49071E+03  2.35010E+03 -3.04071E+03
  1.31886E+03 -1.78840E+03  2.50801E+03 -2.60676E+03  4.40818E+03 -1.63768E+03  4.66316E+03  1.53169E+02
  5.83242E+03  1.51051E+03  2.11182E+03  4.78353E+03 -1.67766E+03  4.91958E+03 -5.98360E+03  3.89427E+03
 -7.19149E+03 -1.23177E+03 -3.50827E+03 -4.98479E+03  7.11223E+01 -7.16771E+03  4.13692E+03 -7.71153E+03
  7.65792E+03 -4.64451E+03  9.44040E+03  8.44660E+02  6.67581E+03  6.62518E+03  1.23836E+03  8.88610E+03
 -3.25325E+03  7.95969E+03 -4.68405E+03  2.55826E+03 -3.07597E+03 -1.15818E+03 -8.83824E+02 -9.54722E+02
 -6.95585E+02  4.81499E+02 -9.75158E+02  2.19535E+03 -3.35989E+03  1.37786E+03 -5.03067E+03 -3.27211E+02
 -2.80396E+03 -5.28876E+03  4.99388E+02 -6.73207E+03  4.30286E+03 -6.45965E+03  6.23190E+03 -1.65765E+03
  6.33756E+03  3.46892E+03  2.65797E+03  5.44969E+03 -1.48008E+03  6.77288E+03 -4.47328E+03  4.05409E+03
 -5.65797E+03  5.35691E+02 -4.93808E+03 -3.76687E+03 -4.31765E+02 -5.30198E+03  2.68824E+03 -3.89225E+03
  4.08753E+03 -1.56438E+03  2.55339E+03  8.07920E+02  9.94056E+02  2.35774E+03  1.00741E+03  9.22265E+02
  1.75418E+03  6.81938E+02  1.69475E+03  1.19244E+03  1.87963E+03  2.78793E+03  1.93926E+03  3.09238E+03
 -1.89124E+03  4.70998E+03 -4.11409E+03  5.67937E+03 -5.61893E+03  1.44300E+03 -6.62107E+03 -1.68660E+03
 -2.77006E+03 -6.04999E+03  1.13995E+03 -7.14082E+03  3.55249E+03 -4.23720E+03  4.93306E+03 -1.10987E+03
  3.85986E+03  2.54722E+03  7.62347E+02  3.70267E+03 -1.49171E+03  1.99766E+03 -2.15776E+03 -2.68411E+02
 -1.09971E+03 -2.52367E+03  1.64630E+03 -2.32726E+03  2.33188E+03 -1.72267E+03  2.37746E+03  6.31624E+02
  1.35342E+03  8.75699E+02  1.02607E+03  3.59950E+02 -2.32786E+02  1.22775E+03  1.76362E+03 -5.37823E+01
  4.29568E+02 -2.65175E+02  3.04588E+03  5.67907E+02  6.21049E+02  3.27187E+03 -5.78175E+02  4.51852E+03
 -2.79926E+03  2.38627E+03 -3.73382E+03  5.77848E+02 -3.26143E+03 -1.47334E+03 -1.16170E+03 -1.82549E+03
  3.71830E+02 -2.05226E+03  1.78122E+03 -1.27874E+03  1.12434E+03  1.65221E+03 -9.20445E+02  2.32343E+03
 -2.51586E+03  1.22626E+03 -2.12182E+03 -1.50689E+03 -1.49158E+03 -3.38040E+03  4.29579E+02 -3.26520E+03
  1.49413E+03 -1.49547E+03  2.00298E+03  8.10468E+01  2.50101E+03  2.62437E+02  8.54166E+01  1.83187E+03
 -4.78412E+02  5.55369E+02 -1.53134E+03 -7.21158E+02  1.02750E+03 -1.92185E+03  2.84676E+03 -1.87476E+03
  3.19389E+03  2.05443E+02  4.28196E+03  1.81949E+03  1.42168E+03  3.41040E+03 -9.32781E+02  3.41091E+03
 -2.80670E+03  9.56893E+02 -3.01630E+03 -2.52250E+02 -1.83406E+03 -2.26016E+03  3.56450E+02 -1.32259E+03
  2.39356E+03 -1.06519E+03  1.89265E+03  1.27224E+03  7.98541E+02  2.19719E+03 -6.86264E+01  2.01477E+03
 -8.52945E+02  1.83038E+03 -6.81676E+02  1.51513E+02 -3.72734E+02  6.44449E+02 -9.96713E+02  1.01026E+03
 -9.09573E+02  1.29695E+03 -2.80758E+03  7.77024E+02 -3.40325E+03  1.85722E+02 -3.79535E+03 -1.90872E+03
 -1.78939E+03 -4.53074E+03  9.34735E+02 -5.01596E+03  2.35757E+03 -4.26741E+03  5.10610E+03 -1.56753E+03
  4.78177E+03  2.30196E+02  2.45664E+03  2.99573E+03 -2.67058E+02  2.81854E+03 -1.20677E+03  2.23093E+03
 -2.01579E+03  1.23420E+03 -1.06244E+03 -7.36991E+02 -6.03368E+02  3.39749E+02 -5.61354E+02 -1.50972E+02
 -1.36960E+03  1.54975E+02 -1.39511E+03 -1.27665E+02  8.74926E+01 -1.11948E+03 -6.16072E+02 -1.44386E+03
  1.78718E+03 -1.40703E+03  1.62989E+03 -8.67515E+01  2.03501E+03  1.76952E+03 -3.09069E+01  3.14606E+03
 -1.63981E+03  4.27927E+03 -3.16897E+03  2.42882E+03 -3.70713E+03 -1.77516E+02 -2.47026E+03 -2.42635E+03
 -1.36168E+03 -3.03189E+03  4.84375E+02 -2.86936E+03  1.28366E+03 -1.25350E+03  1.88158E+03  2.93222E+01
  1.20588E+03  8.47449E+02  1.77067E+02  7.39976E+02 -7.31733E+02 -1.75635E+02  6.81238E+01 -7.57067E+02
  9.64129E+02  2.28956E+02  1.07796E+03  8.80506E+02  4.35039E+02  1.14328E+03  9.54596E+01  1.04076E+03
 -1.09083E+03  1.29941E+03 -1.67303E+03  1.99265E+02 -1.75936E+03 -1.17237E+03 -2.05748E+02 -2.40988E+03
  1.54044E+03 -1.65540E+03  1.66829E+03 -3.99452E+02  2.40697E+03 -1.53599E+02  1.07813E+03  1.98338E+03
  2.90092E+02  1.40126E+03 -5.37321E+02  1.31902E+03 -1.22909E+03  8.55845E+02 -1.10438E+03  1.19053E+02
 -5.72981E+02 -4.85264E+01 -7.98824E+02  3.32785E+02 -1.23562E+03  5.07400E+02 -1.33977E+03 -2.10607E+02
 -1.60966E+03 -4.83200E+02 -7.75784E+02 -1.86141E+03  9.58849E+02 -2.47426E+03  1.59635E+03 -8.34181E+02
  1.99380E+03  2.88900E+02  5.55433E+02  1.00002E+03 -2.34772E+02  2.06450E+03 -1.21156E+03  1.41747E+03
