 $NMID ID='MM_0lb_SNR800_13hz_g40_4.RAW', FMTDAT='(8E13.5)'
 TRAMP=1., VOLUME=1. $END
  3.09792E+05  3.80786E+02  3.37549E+05  2.50513E+05  8.44670E+04  3.37726E+05 -1.32932E+05  2.50854E+05
 -1.90115E+05  8.33648E+04 -1.11705E+05 -3.24844E+04  8.71089E+02 -5.07652E+04  5.39606E+04 -8.71150E+01
  3.49038E+04  5.28023E+04 -1.68484E+04  7.51329E+04 -6.07230E+04  6.35779E+04 -8.39076E+04  3.22711E+04
 -8.07964E+04 -1.13744E+04 -5.69837E+04 -5.12090E+04 -1.52418E+04 -6.96676E+04  2.74698E+04 -4.55390E+04
  3.99388E+04  3.85971E+03  1.58610E+04  4.76426E+04 -3.42582E+04  4.71858E+04 -6.66614E+04 -1.57895E+02
 -5.31496E+04 -5.68980E+04 -6.46519E+03 -7.72155E+04  3.39855E+04 -5.46796E+04  4.78711E+04 -1.73183E+04
  4.30339E+04  1.10836E+04  3.17520E+04  2.53668E+04  1.60090E+04  2.90951E+04 -5.15089E+03  2.74113E+04
 -2.20049E+04  1.22028E+04 -1.84378E+04 -4.63263E+03  5.64301E+03 -7.51015E+03  2.23408E+04  1.22216E+04
  7.30378E+03  3.51104E+04 -3.19130E+04  3.51315E+04 -6.34162E+04  2.29238E+03 -5.66802E+04 -4.26615E+04
 -1.23827E+04 -6.33105E+04  3.98035E+04 -4.49352E+04  5.79504E+04 -2.43401E+03  3.41328E+04  3.23017E+04
 -6.28474E+03  3.60239E+04 -2.97656E+04  1.59737E+04 -3.00061E+04 -4.45951E+03 -1.61596E+04 -1.10705E+04
 -8.27485E+03 -1.30460E+04 -5.08899E+02 -1.79014E+04  7.46599E+03 -2.28535E+04  1.54870E+04 -1.33883E+04
  1.10379E+04  5.45045E+03 -8.26960E+03  1.29873E+04 -2.10412E+04 -4.42726E+03 -8.37919E+03 -3.34401E+04
  2.24670E+04 -4.31461E+04  4.79692E+04 -1.99693E+04  4.50209E+04  1.96982E+04  1.56144E+04  4.41699E+04
 -1.60273E+04  3.31352E+04 -2.51649E+04  1.56274E+03 -9.67861E+03 -2.78237E+04  2.10440E+04 -3.38599E+04
  4.10537E+04 -9.03014E+03  3.57385E+04  2.35706E+04  1.82726E+04  4.66091E+04 -8.00383E+03  5.02416E+04
 -3.12849E+04  3.35469E+04 -4.16424E+04  9.53022E+03 -4.25415E+04 -1.67228E+04 -2.34085E+04 -3.79714E+04
  7.68639E+03 -3.81078E+04  3.13315E+04 -1.46805E+04  2.91548E+04  1.11388E+04  4.02614E+03  1.90476E+04
 -1.33130E+04  8.48812E+03 -1.05111E+04 -7.55122E+03  5.74100E+03 -1.08145E+04  1.76964E+04  6.15900E+03
  1.34645E+04  2.20655E+04 -6.16080E+03  2.47696E+04 -2.22095E+04  1.12539E+04 -2.75373E+04 -4.88900E+03
 -2.10976E+04 -1.71963E+04 -8.44877E+03 -2.04177E+04  4.09577E+03 -1.97109E+04  1.55202E+04 -1.82543E+04
  2.62380E+04 -1.28043E+04  3.24432E+04  2.84695E+03  2.35835E+04  2.00050E+04  4.52821E+03  3.66258E+04
 -1.79138E+04  3.05783E+04 -2.81579E+04  1.02328E+04 -2.10823E+04 -1.05533E+04 -4.25115E+03 -1.34710E+04
  1.98594E+03 -2.51726E+03 -4.81768E+03  6.63960E+03 -1.61670E+04  5.19612E+03 -1.65146E+04 -6.96459E+03
 -1.05100E+04 -1.88583E+04  5.18831E+03 -2.28400E+04  1.55152E+04 -1.67024E+04  1.84261E+04 -1.71563E+03
  1.17520E+04  1.35824E+04 -9.08029E+02  1.91029E+04 -1.35080E+04  1.11206E+04 -1.92408E+04 -3.99811E+03
 -1.42603E+04 -1.73331E+04 -1.60358E+03 -2.30715E+04  1.07068E+04 -1.87974E+04  1.91100E+04 -9.26408E+03
  1.79214E+04 -1.25162E+02  1.27943E+04  4.20410E+03  6.87054E+03  8.72500E+02  9.40461E+03 -1.81018E+03
  1.75715E+04  3.21710E+03  1.97384E+04  1.52089E+04  1.27019E+04  3.03428E+04 -2.82132E+03  3.41226E+04
 -2.00815E+04  2.75724E+04 -3.21045E+04  1.38933E+04 -3.36181E+04 -2.29789E+03 -2.81433E+04 -1.94724E+04
 -1.23408E+04 -2.79856E+04  9.62151E+03 -2.48568E+04  2.16811E+04 -1.32129E+04  1.92472E+04  5.35677E+03
  7.10638E+03  1.43890E+04 -9.09113E+03  1.27028E+04 -1.62877E+04  2.40509E+03 -1.22273E+04 -9.84113E+03
 -9.51080E+01 -1.54986E+04  7.76473E+03 -1.14489E+04  1.03924E+04 -1.18445E+03  2.32880E+03  6.50289E+03
 -6.90606E+03  2.50144E+03 -6.01781E+03 -5.81355E+03 -4.70770E+02 -1.35280E+04  9.62253E+03 -1.41483E+04
  1.71030E+04 -7.70013E+03  1.85345E+04  3.09783E+03  1.58300E+04  1.34889E+04  7.32911E+03  2.08264E+04
 -3.35566E+03  2.26537E+04 -1.40677E+04  1.42529E+04 -1.61994E+04  3.14291E+03 -1.15235E+04 -3.82672E+03
 -5.31610E+03 -5.17774E+03 -1.79924E+02  1.23821E+03 -2.26721E+03  3.02885E+03 -5.48211E+03  4.37031E+03
 -1.11580E+04 -1.15178E+03 -1.12018E+04 -9.19602E+03 -4.77989E+03 -1.51119E+04  4.80719E+03 -1.14561E+04
  9.60239E+03 -4.99722E+03  6.72408E+03  2.97272E+03  1.26244E+02  4.31388E+03 -5.28053E+03 -1.44902E+02
 -5.02685E+03 -7.25078E+03 -1.21132E+03 -1.09035E+04  6.36486E+03 -1.17125E+04  1.43723E+04 -5.92138E+03
  1.68816E+04  1.50950E+03  1.22693E+04  9.49229E+03  2.13204E+03  1.32880E+04 -7.03136E+03  1.13977E+04
 -9.24747E+03  3.35550E+03 -4.61578E+03 -2.14347E+03  1.93042E+03 -3.23577E+03  6.30703E+03 -1.24966E+03
  5.60196E+03  4.82542E+03  1.17775E+03  9.08706E+03 -6.64812E+03  8.85100E+03 -1.11669E+04  2.48801E+03
 -7.56011E+03 -5.52973E+03  1.39572E+02 -9.64457E+03  5.64694E+03 -5.08396E+03  5.78251E+03  2.01105E+03
  1.22830E+03  6.28447E+03 -5.75214E+03  7.28962E+03 -8.88699E+03  3.74748E+03 -8.48369E+03 -2.85592E+03
 -4.95662E+03 -1.03088E+04  2.48692E+03 -1.15035E+04  9.91202E+03 -7.28599E+03  1.08033E+04  1.73443E+03
  6.91525E+03  8.68684E+03 -8.85138E+02  1.08161E+04 -7.78171E+03  6.04179E+03 -8.62902E+03 -9.93962E+02
 -8.28442E+03 -7.45097E+03 -1.41912E+03 -8.01982E+03  4.05707E+03 -6.85732E+03  4.77993E+03 -3.31228E+03
  3.74515E+03  9.29527E+02 -4.14723E+02  1.66658E+03  1.52546E+02 -1.42408E+03  1.07048E+03 -4.46615E+03
  7.12006E+03 -2.27834E+03  9.85808E+03  1.13779E+03  9.73386E+03  6.31148E+03  7.43051E+03  1.32305E+04
 -3.01968E+03  1.47237E+04 -1.31300E+04  1.11288E+04 -1.62168E+04  1.94975E+03 -1.33171E+04 -5.05968E+03
 -6.62672E+03 -1.09742E+04 -7.87144E+01 -8.85275E+03  3.54316E+03 -5.04947E+03  3.11508E+03 -3.46696E+03
  2.18362E+03 -2.34381E+03  2.67458E+03 -3.00017E+03  4.57488E+03 -2.22547E+03  5.47283E+03 -4.61928E+02
  7.28085E+03  1.89523E+03  2.83363E+03  5.93524E+03 -1.51398E+03  6.58966E+03 -7.20025E+03  5.33680E+03
 -8.61398E+03 -8.57444E+02 -5.25103E+03 -5.86495E+03 -5.87666E+02 -9.40416E+03  5.37642E+03 -9.63220E+03
  9.53890E+03 -5.24052E+03  1.19190E+04  1.18897E+03  8.42244E+03  8.10858E+03  1.71857E+03  1.06101E+04
 -4.30720E+03  9.23245E+03 -6.46610E+03  3.25617E+03 -4.35558E+03 -1.28897E+03 -1.43883E+03 -8.82906E+02
 -6.97379E+02 -1.63881E+02 -1.19360E+03  2.42509E+03 -4.12848E+03  1.35545E+03 -6.14383E+03 -7.67191E+02
 -3.83240E+03 -6.48579E+03  6.88745E+02 -8.42215E+03  5.41405E+03 -8.28645E+03  7.91973E+03 -2.31263E+03
  8.38109E+03  4.48967E+03  4.04370E+03  7.01211E+03 -1.57126E+03  8.59578E+03 -5.62293E+03  5.58244E+03
 -7.97190E+03  6.50122E+02 -6.31058E+03 -4.87123E+03 -5.29777E+02 -6.81579E+03  3.41349E+03 -4.97383E+03
  4.91731E+03 -1.92630E+03  3.93207E+03  1.14913E+03  1.20948E+03  2.74601E+03  9.43418E+02  8.90421E+02
  2.14558E+03  9.92499E+02  1.93513E+03  1.49475E+03  2.43474E+03  3.46250E+03  2.27750E+03  4.05888E+03
 -1.92217E+03  6.41249E+03 -5.45964E+03  7.11119E+03 -8.29444E+03  1.96112E+03 -8.61994E+03 -2.94558E+03
 -4.03547E+03 -7.70713E+03  1.13129E+03 -9.50303E+03  5.02355E+03 -5.89061E+03  6.81525E+03 -1.61140E+03
  5.43341E+03  3.56910E+03  1.34622E+03  4.83848E+03 -2.16404E+03  2.90559E+03 -3.10093E+03 -2.69464E+02
 -1.62160E+03 -3.83806E+03  2.24010E+03 -3.69961E+03  3.09156E+03 -1.61067E+03  2.98453E+03  6.87972E+02
  1.83564E+03  1.45246E+03  1.05808E+03  1.04715E+03 -5.47773E+02  1.12241E+03  1.69978E+03 -2.25796E+02
  9.64119E+02 -3.88382E+02  3.48529E+03  1.07760E+03  1.55106E+03  4.25141E+03 -8.10708E+02  5.83506E+03
 -3.33134E+03  3.35568E+03 -4.98070E+03  1.10745E+03 -4.38996E+03 -1.51465E+03 -1.71119E+03 -3.04137E+03
  7.79730E+02 -2.67664E+03  2.08278E+03 -1.46430E+03  1.76950E+03  2.10791E+03 -1.06069E+03  2.55328E+03
 -3.26814E+03  1.64573E+03 -3.52202E+03 -2.14405E+03 -2.28727E+03 -4.28731E+03  6.47932E+02 -4.25566E+03
  2.22951E+03 -2.39870E+03  2.80662E+03  3.94061E+01  2.75380E+03  6.15659E+02  6.59827E+02  2.14891E+03
 -1.15773E+03  4.79043E+01 -1.92436E+03 -1.15739E+03  9.24501E+02 -3.17688E+03  3.94712E+03 -2.48321E+03
  4.44528E+03  4.95252E+02  4.84564E+03  2.84872E+03  1.93353E+03  4.71720E+03 -1.31203E+03  4.82871E+03
 -4.22195E+03  1.72171E+03 -4.25229E+03 -7.77968E+02 -2.24648E+03 -3.14313E+03  8.92963E+02 -2.69647E+03
  3.65615E+03 -1.72457E+03  2.24684E+03  9.88523E+02  7.53488E+02  2.87486E+03 -1.49118E+02  2.63023E+03
 -9.73523E+02  1.79753E+03 -1.25218E+03  5.92389E+02 -5.60059E+02  3.04262E+02 -1.09145E+03  1.37744E+03
 -1.29654E+03  1.89567E+03 -3.54768E+03  1.11355E+03 -4.84299E+03 -1.99498E+02 -5.49865E+03 -2.95474E+03
 -2.99403E+03 -6.37175E+03  1.45071E+03 -7.44992E+03  4.35395E+03 -5.98402E+03  6.96523E+03 -2.34531E+03
  6.73259E+03  9.25121E+02  3.85694E+03  4.02918E+03 -4.65993E+01  4.85216E+03 -1.81908E+03  3.20052E+03
 -2.71749E+03  1.56425E+03 -1.54717E+03 -5.51924E+02 -4.54562E+02 -1.32341E+02 -6.83948E+02 -2.71408E+01
 -1.28348E+03  3.01274E+01 -1.13841E+03  3.39609E+01 -7.54726E+01 -1.12828E+03 -5.94708E+01 -1.82473E+03
  2.52274E+03 -1.48452E+03  2.31050E+03  3.98599E+02  3.14709E+03  2.58296E+03  5.68837E+02  4.65614E+03
 -2.23996E+03  5.45827E+03 -4.90016E+03  3.12428E+03 -5.72602E+03 -5.67449E+02 -4.20371E+03 -3.52966E+03
 -2.19330E+03 -4.67331E+03  1.23061E+03 -4.30135E+03  2.66530E+03 -2.15230E+03  2.63742E+03  1.64205E+02
  1.81264E+03  1.42858E+03 -1.56658E+02  1.19180E+03 -7.80090E+02  5.70858E+01  2.28715E+01 -8.94354E+02
  1.49616E+03 -2.86412E+02  1.56711E+03  6.74480E+02  1.36036E+03  1.87446E+03  6.76259E+01  2.16197E+03
 -1.77640E+03  1.89400E+03 -2.54997E+03  3.54878E+02 -2.72856E+03 -2.12499E+03 -4.76791E+02 -3.84405E+03
  1.86583E+03 -3.27912E+03  2.92069E+03 -6.18329E+02  3.58631E+03  5.79563E+02  1.79241E+03  2.86561E+03
  7.42392E+02  2.85144E+03 -8.95451E+02  2.23843E+03 -1.68939E+03  1.51441E+03 -1.46428E+03  2.52084E+02
 -5.67305E+02 -5.17118E+02 -7.18275E+02  4.03115E+02 -1.46507E+03  5.58857E+02 -2.22469E+03 -2.35778E+02
 -2.36340E+03 -1.16318E+03 -6.82796E+02 -3.22976E+03  1.62012E+03 -3.50774E+03  2.45204E+03 -1.18039E+03
  2.91245E+03  7.66106E+02  1.13683E+03  1.73963E+03 -1.73673E+02  2.64755E+03 -2.23138E+03  2.13751E+03
