 $NMID ID='MM_0lb_SNR800_11hz_g55_81.RAW', FMTDAT='(8E13.5)'
 TRAMP=1., VOLUME=1. $END
  3.09624E+05  3.46076E+02  3.37683E+05  2.50701E+05  8.50191E+04  3.38277E+05 -1.32450E+05  2.51770E+05
 -1.90808E+05  8.36261E+04 -1.11956E+05 -3.22903E+04  3.67127E-01 -5.03202E+04  5.36906E+04 -3.53385E+02
  3.54760E+04  5.28311E+04 -1.64128E+04  7.53783E+04 -6.12116E+04  6.43111E+04 -8.50734E+04  3.23648E+04
 -8.18247E+04 -1.14880E+04 -5.78260E+04 -5.19857E+04 -1.53998E+04 -7.04059E+04  2.81009E+04 -4.67895E+04
  4.07268E+04  3.75276E+03  1.67224E+04  4.83001E+04 -3.49682E+04  4.76659E+04 -6.77900E+04  2.01714E+02
 -5.49127E+04 -5.79577E+04 -6.84901E+03 -7.83070E+04  3.44686E+04 -5.63797E+04  4.89324E+04 -1.78000E+04
  4.46124E+04  1.14351E+04  3.25939E+04  2.63367E+04  1.60471E+04  3.03952E+04 -5.67412E+03  2.76657E+04
 -2.27214E+04  1.20283E+04 -1.83847E+04 -5.53190E+03  6.89560E+03 -7.26456E+03  2.34090E+04  1.31736E+04
  7.88079E+03  3.69332E+04 -3.34085E+04  3.68208E+04 -6.49969E+04  1.69073E+03 -5.84489E+04 -4.38841E+04
 -1.29320E+04 -6.51632E+04  4.12078E+04 -4.71343E+04  6.01821E+04 -2.57428E+03  3.58412E+04  3.35650E+04
 -5.71584E+03  3.84785E+04 -3.17540E+04  1.79136E+04 -3.26878E+04 -4.08401E+03 -1.85633E+04 -1.14607E+04
 -9.36564E+03 -1.45301E+04 -7.49461E+02 -2.00255E+04  8.06397E+03 -2.33853E+04  1.59486E+04 -1.29242E+04
  1.06413E+04  5.90355E+03 -9.85514E+03  1.27421E+04 -2.26912E+04 -6.05933E+03 -8.38323E+03 -3.64401E+04
  2.44921E+04 -4.61606E+04  5.11350E+04 -2.06307E+04  4.76737E+04  2.02472E+04  1.66947E+04  4.63810E+04
 -1.65633E+04  3.53483E+04 -2.71327E+04  2.38161E+03 -1.09411E+04 -2.92226E+04  2.15884E+04 -3.59702E+04
  4.37397E+04 -1.03551E+04  3.87061E+04  2.44838E+04  2.05042E+04  5.00840E+04 -8.22725E+03  5.43742E+04
 -3.45422E+04  3.68566E+04 -4.59420E+04  1.05108E+04 -4.62331E+04 -1.79442E+04 -2.54341E+04 -4.11922E+04
  7.95137E+03 -4.07231E+04  3.34155E+04 -1.65984E+04  3.14127E+04  1.13929E+04  5.22336E+03  2.03878E+04
 -1.43025E+04  9.29713E+03 -1.09994E+04 -7.56981E+03  5.78666E+03 -1.11157E+04  1.86837E+04  5.64705E+03
  1.46678E+04  2.28887E+04 -5.50008E+03  2.64845E+04 -2.28428E+04  1.34045E+04 -3.02948E+04 -3.35927E+03
 -2.40341E+04 -1.82030E+04 -1.08779E+04 -2.36584E+04  4.24049E+03 -2.40497E+04  1.84920E+04 -2.16235E+04
  3.03114E+04 -1.36444E+04  3.60674E+04  4.22690E+03  2.60398E+04  2.30022E+04  4.36770E+03  3.97964E+04
 -1.91747E+04  3.27518E+04 -2.99462E+04  1.14691E+04 -2.18188E+04 -1.04107E+04 -4.65062E+03 -1.33441E+04
  6.90183E+02 -1.64488E+03 -6.95955E+03  7.51708E+03 -1.94778E+04  5.20542E+03 -1.91395E+04 -8.79885E+03
 -1.16223E+04 -2.20168E+04  5.75425E+03 -2.65032E+04  1.76384E+04 -1.86763E+04  2.15110E+04 -1.53603E+03
  1.32233E+04  1.53454E+04 -1.55009E+03  2.19179E+04 -1.56697E+04  1.26068E+04 -2.20811E+04 -4.60420E+03
 -1.60332E+04 -1.96324E+04 -2.24268E+03 -2.64652E+04  1.18488E+04 -2.22674E+04  2.18292E+04 -1.13285E+04
  2.06702E+04 -1.40991E+02  1.52900E+04  5.06202E+03  8.13431E+03  1.38351E+03  1.11907E+04 -1.82411E+03
  2.10999E+04  2.87178E+03  2.34505E+04  1.71444E+04  1.58808E+04  3.58035E+04 -2.73789E+03  4.12741E+04
 -2.36006E+04  3.42246E+04 -3.88852E+04  1.71590E+04 -4.13609E+04 -3.19803E+03 -3.35646E+04 -2.39048E+04
 -1.32647E+04 -3.38822E+04  1.20739E+04 -2.99638E+04  2.56937E+04 -1.42600E+04  2.27410E+04  7.16043E+03
  7.96334E+03  1.77080E+04 -1.07007E+04  1.46048E+04 -1.86854E+04  2.34270E+03 -1.41269E+04 -1.17861E+04
 -7.35456E+02 -1.82731E+04  9.63666E+03 -1.37848E+04  1.25675E+04 -1.39610E+03  3.27333E+03  8.00018E+03
 -8.02496E+03  3.64654E+03 -8.05653E+03 -7.01365E+03 -1.27354E+03 -1.70502E+04  1.15262E+04 -1.81056E+04
  2.10308E+04 -1.01768E+04  2.35092E+04  3.12580E+03  2.03683E+04  1.66366E+04  9.72641E+03  2.64616E+04
 -5.09702E+03  2.85208E+04 -1.84446E+04  1.75273E+04 -2.04136E+04  3.73560E+03 -1.43743E+04 -5.04317E+03
 -6.45839E+03 -6.30208E+03 -9.04846E+02  5.71302E+02 -2.88741E+03  3.20038E+03 -6.72449E+03  5.40554E+03
 -1.29062E+04 -7.56591E+02 -1.36970E+04 -1.10380E+04 -5.62214E+03 -1.79542E+04  5.97259E+03 -1.44738E+04
  1.18090E+04 -5.69265E+03  8.68322E+03  3.90517E+03 -2.79728E+02  5.47522E+03 -7.15752E+03 -1.83472E+02
 -7.05066E+03 -9.10161E+03 -7.77788E+02 -1.38966E+04  7.87232E+03 -1.46578E+04  1.77338E+04 -7.81602E+03
  2.14058E+04  2.08782E+03  1.53974E+04  1.24452E+04  3.00384E+03  1.70607E+04 -8.86248E+03  1.35916E+04
 -1.16935E+04  4.27967E+03 -6.06240E+03 -2.93812E+03  2.03126E+03 -3.88454E+03  7.34788E+03 -9.20918E+02
  6.88776E+03  6.50097E+03  1.15277E+03  1.11549E+04 -8.37255E+03  1.11133E+04 -1.40382E+04  2.70232E+03
 -9.68902E+03 -7.29710E+03  5.39536E+02 -1.20956E+04  7.66393E+03 -6.24378E+03  8.01893E+03  3.26397E+03
  1.91169E+03  8.57071E+03 -7.35002E+03  1.03449E+04 -1.18254E+04  4.49870E+03 -1.21961E+04 -4.05104E+03
 -7.10701E+03 -1.33625E+04  3.47734E+03 -1.58008E+04  1.33319E+04 -9.70518E+03  1.44417E+04  2.33129E+03
  8.58295E+03  1.17857E+04 -1.37459E+03  1.38365E+04 -1.02339E+04  7.85875E+03 -1.12358E+04 -1.10499E+03
 -9.31898E+03 -9.50896E+03 -1.33005E+03 -1.03969E+04  5.46398E+03 -8.49185E+03  6.39050E+03 -3.66177E+03
  4.24792E+03  1.69397E+03 -9.26715E+02  1.80451E+03 -5.64407E+02 -2.57110E+03  1.93326E+03 -6.34039E+03
  9.83721E+03 -3.77275E+03  1.39905E+04  1.68919E+03  1.30695E+04  9.12220E+03  9.04916E+03  1.76612E+04
 -4.15471E+03  2.03527E+04 -1.72675E+04  1.52729E+04 -2.21090E+04  2.70990E+03 -1.78336E+04 -7.86011E+03
 -8.98497E+03 -1.47067E+04 -2.66431E+02 -1.25851E+04  4.79360E+03 -6.82930E+03  4.28043E+03 -4.37887E+03
  3.32230E+03 -2.63563E+03  3.83093E+03 -3.41881E+03  5.20268E+03 -3.30470E+03  6.95800E+03 -1.05839E+03
  9.43445E+03  2.22382E+03  4.77611E+03  7.89032E+03 -2.29661E+03  9.52187E+03 -9.62276E+03  7.08034E+03
 -1.21355E+04 -1.59216E+03 -7.33116E+03 -8.93774E+03 -7.58191E+02 -1.34630E+04  7.39253E+03 -1.27989E+04
  1.41037E+04 -7.39339E+03  1.65935E+04  2.16930E+03  1.13330E+04  1.17292E+04  1.86360E+03  1.48206E+04
 -6.44648E+03  1.24365E+04 -8.67054E+03  4.24665E+03 -5.64269E+03 -1.58590E+03 -2.25738E+03 -1.86083E+03
 -1.30265E+03 -3.26897E+02 -2.28335E+03  2.26582E+03 -5.46515E+03  2.17527E+03 -8.59857E+03 -1.36700E+03
 -5.75832E+03 -8.56692E+03  4.97551E+02 -1.22978E+04  7.52619E+03 -1.11069E+04  1.22045E+04 -3.37024E+03
  1.19614E+04  5.70099E+03  5.66660E+03  1.09460E+04 -2.60361E+03  1.18034E+04 -8.58426E+03  7.35022E+03
 -1.13063E+04  4.04373E+02 -8.84467E+03 -7.33035E+03 -8.49496E+02 -1.03371E+04  5.30744E+03 -7.45880E+03
  7.43427E+03 -2.81944E+03  5.17951E+03  1.79687E+03  1.60662E+03  3.62862E+03  1.60742E+03  1.76202E+03
  2.39563E+03  1.02614E+03  2.59812E+03  1.32582E+03  3.54218E+03  4.61038E+03  3.33813E+03  6.32605E+03
 -2.79803E+03  9.09167E+03 -8.37592E+03  9.60135E+03 -1.19128E+04  2.81592E+03 -1.27925E+04 -5.09373E+03
 -5.85275E+03 -1.17643E+04  1.56910E+03 -1.35437E+04  7.46335E+03 -8.07665E+03  9.74896E+03 -2.41724E+03
  7.76358E+03  4.67484E+03  1.51900E+03  7.10081E+03 -2.96912E+03  3.94581E+03 -4.90196E+03 -5.64802E+02
 -2.29654E+03 -4.99361E+03  2.87119E+03 -5.45311E+03  4.94336E+03 -2.62402E+03  4.43795E+03  9.83231E+02
  3.16367E+03  2.16323E+03  1.29551E+03  1.72509E+03 -3.96218E+02  1.61895E+03  1.53230E+03 -7.06868E+02
  1.78147E+03 -3.67198E+02  4.85693E+03  1.83858E+03  2.55363E+03  6.95046E+03 -1.08367E+03  8.30053E+03
 -5.56855E+03  5.10420E+03 -7.45984E+03  1.48691E+03 -6.92162E+03 -2.54983E+03 -2.36439E+03 -4.53495E+03
  8.15230E+02 -4.51513E+03  2.66798E+03 -2.05706E+03  2.56321E+03  2.13538E+03 -1.14215E+03  3.85858E+03
 -4.92160E+03  2.36891E+03 -5.73238E+03 -3.01820E+03 -2.79661E+03 -6.45401E+03  1.06416E+03 -6.48540E+03
  3.72428E+03 -3.90934E+03  4.46986E+03 -4.91533E+02  3.92066E+03  1.21715E+03  4.77042E+02  3.70507E+03
 -2.02195E+03  8.21603E+02 -3.14560E+03 -1.80748E+03  1.49824E+03 -5.16243E+03  6.03725E+03 -3.91112E+03
  7.44920E+03  6.49193E+02  7.81523E+03  5.13099E+03  2.24141E+03  7.62038E+03 -2.82694E+03  7.06500E+03
 -6.21874E+03  3.15026E+03 -6.05621E+03 -9.30545E+02 -3.29820E+03 -4.63629E+03  9.08574E+02 -4.25504E+03
  4.93462E+03 -2.00199E+03  3.55586E+03  1.95203E+03  1.17086E+03  4.39526E+03 -2.74007E+02  3.58904E+03
 -1.99686E+03  2.50426E+03 -1.68866E+03  7.45412E+02 -7.72187E+02  7.26405E+02 -1.30022E+03  2.00118E+03
 -1.94361E+03  3.22527E+03 -5.35458E+03  2.37706E+03 -7.52561E+03 -8.45044E+01 -8.55861E+03 -4.76064E+03
 -4.57258E+03 -9.71757E+03  1.79228E+03 -1.12940E+04  6.86807E+03 -8.80266E+03  1.11593E+04 -3.49791E+03
  9.71624E+03  1.71526E+03  6.12485E+03  6.97728E+03 -2.53490E+02  7.83001E+03 -2.65746E+03  5.58069E+03
 -4.45296E+03  2.24164E+03 -2.55465E+03 -7.85848E+02 -8.63763E+02 -4.57515E+02 -5.29823E+02  1.31406E+02
 -1.44682E+03  1.28862E+02 -1.74725E+03 -5.95416E+02 -4.89261E+02 -1.28983E+03 -1.22052E+01 -2.76961E+03
  3.48980E+03 -2.70592E+03  4.58518E+03  1.52363E+02  5.00280E+03  4.38374E+03  1.24642E+03  7.43212E+03
 -3.69426E+03  8.88450E+03 -8.02712E+03  5.22645E+03 -8.95554E+03 -8.12126E+02 -6.96951E+03 -5.72956E+03
 -2.57295E+03 -7.71545E+03  1.93256E+03 -6.70408E+03  4.79665E+03 -3.79676E+03  4.74773E+03  1.33334E+02
  2.58124E+03  2.18527E+03 -2.15876E+02  2.46199E+03 -9.91805E+02 -1.03870E+02 -8.61253E+01 -1.48791E+03
  2.32139E+03 -6.43617E+02  3.11564E+03  1.29687E+03  2.28215E+03  3.03425E+03 -3.86723E+01  3.66913E+03
 -3.28620E+03  3.07515E+03 -4.64394E+03  4.47786E+02 -4.46843E+03 -3.66707E+03 -2.61330E+02 -5.92157E+03
  3.74559E+03 -4.68422E+03  5.28635E+03 -1.65004E+03  5.50835E+03  1.26630E+03  3.26736E+03  4.33919E+03
  2.66628E+02  4.79599E+03 -1.85866E+03  3.73893E+03 -2.79899E+03  2.41030E+03 -2.77802E+03  3.19723E+02
 -1.58575E+03 -3.30627E+01 -1.58059E+03  7.41351E+02 -2.37126E+03  9.49082E+02 -3.59310E+03 -4.22859E+02
 -4.08324E+03 -2.09061E+03 -5.96112E+02 -4.92772E+03  2.27260E+03 -5.65461E+03  3.99930E+03 -1.73355E+03
  4.62859E+03  7.93180E+02  1.97647E+03  2.95936E+03 -6.79730E+02  4.80106E+03 -3.55451E+03  3.38275E+03
