 $NMID ID='MM_0lb_SNR800_20hz_g55_21.RAW', FMTDAT='(8E13.5)'
 TRAMP=1., VOLUME=1. $END
  3.09448E+05  4.09153E+02  3.37293E+05  2.50434E+05  8.44857E+04  3.37261E+05 -1.32537E+05  2.50483E+05
 -1.90003E+05  8.26905E+04 -1.10868E+05 -3.27605E+04  1.44794E+03 -5.02901E+04  5.39428E+04  1.42458E+02
  3.49986E+04  5.29018E+04 -1.68511E+04  7.49683E+04 -6.03890E+04  6.28244E+04 -8.29935E+04  3.17743E+04
 -7.99655E+04 -1.10303E+04 -5.65021E+04 -5.01862E+04 -1.50944E+04 -6.85494E+04  2.66148E+04 -4.52364E+04
  3.91144E+04  4.02687E+03  1.55649E+04  4.73208E+04 -3.38880E+04  4.64369E+04 -6.52179E+04 -4.79524E+02
 -5.20286E+04 -5.60248E+04 -6.24108E+03 -7.54864E+04  3.31451E+04 -5.35408E+04  4.67029E+04 -1.62471E+04
  4.18023E+04  1.11603E+04  3.07141E+04  2.43598E+04  1.58286E+04  2.84009E+04 -4.46245E+03  2.66482E+04
 -2.18287E+04  1.24923E+04 -1.93064E+04 -4.41368E+03  4.48824E+03 -7.81172E+03  2.12783E+04  1.14940E+04
  7.54481E+03  3.32034E+04 -3.08710E+04  3.43361E+04 -6.11888E+04  2.44184E+03 -5.54082E+04 -4.13630E+04
 -1.23594E+04 -6.10918E+04  3.81738E+04 -4.34704E+04  5.55581E+04 -1.99987E+03  3.18275E+04  3.05396E+04
 -6.45960E+03  3.33413E+04 -2.83516E+04  1.36353E+04 -2.76982E+04 -5.23264E+03 -1.47784E+04 -1.01181E+04
 -7.39470E+03 -1.16265E+04 -7.01193E+02 -1.66018E+04  6.76064E+03 -2.25218E+04  1.46759E+04 -1.40061E+04
  1.20939E+04  4.26016E+03 -6.45274E+03  1.34235E+04 -1.95874E+04 -2.54350E+03 -7.88555E+03 -3.03728E+04
  2.07321E+04 -4.07670E+04  4.50171E+04 -1.88307E+04  4.21816E+04  1.83327E+04  1.44529E+04  4.16363E+04
 -1.54391E+04  3.11796E+04 -2.36532E+04  1.10528E+03 -8.28997E+03 -2.65390E+04  2.04814E+04 -3.11617E+04
  3.80273E+04 -7.25052E+03  3.17639E+04  2.26635E+04  1.54384E+04  4.26238E+04 -7.74484E+03  4.52140E+04
 -2.85907E+04  2.97652E+04 -3.74441E+04  8.14469E+03 -3.84604E+04 -1.52847E+04 -2.14255E+04 -3.43964E+04
  6.89135E+03 -3.39243E+04  2.92536E+04 -1.27907E+04  2.67606E+04  1.06675E+04  2.83711E+03  1.76961E+04
 -1.32111E+04  7.38513E+03 -9.68589E+03 -7.79527E+03  5.91344E+03 -1.00406E+04  1.70961E+04  6.51457E+03
  1.24656E+04  2.12466E+04 -6.88034E+03  2.31903E+04 -2.14375E+04  9.16777E+03 -2.47091E+04 -6.21443E+03
 -1.68407E+04 -1.63625E+04 -5.53841E+03 -1.66112E+04  3.74281E+03 -1.45916E+04  1.24213E+04 -1.43755E+04
  2.11118E+04 -1.13757E+04  2.80514E+04  9.98259E+02  2.12828E+04  1.60526E+04  4.13931E+03  3.22943E+04
 -1.59090E+04  2.71921E+04 -2.57166E+04  9.29773E+03 -1.96329E+04 -1.04548E+04 -3.99907E+03 -1.39739E+04
  2.49027E+03 -4.08838E+03 -2.66694E+03  5.02176E+03 -1.28641E+04  5.24240E+03 -1.34263E+04 -4.70896E+03
 -8.87924E+03 -1.51203E+04  4.52327E+03 -1.89589E+04  1.24484E+04 -1.39465E+04  1.43175E+04 -1.52708E+03
  8.43947E+03  1.03419E+04 -8.14471E+02  1.53877E+04 -1.02988E+04  8.80826E+03 -1.51266E+04 -3.56342E+03
 -1.14919E+04 -1.39275E+04 -1.35521E+03 -1.86670E+04  8.58472E+03 -1.49218E+04  1.56662E+04 -7.34249E+03
  1.42084E+04  8.59195E+02  1.02735E+04  3.74439E+03  5.36893E+03  6.09872E+02  7.52814E+03 -1.55929E+03
  1.35820E+04  2.91720E+03  1.43348E+04  1.23880E+04  8.60323E+03  2.43683E+04 -3.16010E+03  2.57848E+04
 -1.53368E+04  1.95643E+04 -2.35251E+04  9.52924E+03 -2.42367E+04 -1.72463E+03 -2.04127E+04 -1.37948E+04
 -1.01240E+04 -1.98243E+04  6.52284E+03 -1.86367E+04  1.63352E+04 -1.06125E+04  1.51460E+04  3.46878E+03
  6.29889E+03  1.09010E+04 -6.87244E+03  1.05353E+04 -1.30239E+04  2.73577E+03 -1.00541E+04 -7.66003E+03
 -8.94934E+00 -1.18148E+04  5.73014E+03 -9.21920E+03  7.73195E+03 -1.66891E+03  1.15247E+03  4.87749E+03
 -5.35026E+03  1.36217E+03 -3.51210E+03 -4.31035E+03  6.53138E+02 -9.82860E+03  7.35150E+03 -9.48770E+03
  1.17532E+04 -4.50331E+03  1.14745E+04  2.73624E+03  9.51441E+03  9.35606E+03  4.65990E+03  1.34171E+04
 -1.51063E+03  1.52603E+04 -9.10818E+03  9.71133E+03 -1.07462E+04  2.87923E+03 -7.95681E+03 -1.74602E+03
 -4.53332E+03 -3.01452E+03 -7.78598E+02  1.53919E+03 -1.85546E+03  1.78518E+03 -3.26616E+03  3.49903E+03
 -7.59525E+03 -5.45529E+02 -8.58623E+03 -6.95087E+03 -3.32937E+03 -1.09396E+04  3.23542E+03 -8.17510E+03
  7.01584E+03 -3.64878E+03  4.99155E+03  2.04187E+03  6.00919E+02  2.86099E+03 -3.34467E+03  1.36998E+02
 -3.17188E+03 -4.92769E+03 -8.30095E+02 -6.61151E+03  3.43681E+03 -7.21188E+03  9.56022E+03 -3.81756E+03
  1.12554E+04  6.28920E+02  8.52030E+03  5.71141E+03  1.61296E+03  7.97121E+03 -4.99676E+03  7.79949E+03
 -6.54114E+03  2.68374E+03 -3.30442E+03 -8.77802E+02  1.19075E+03 -1.50965E+03  4.52399E+03 -1.08460E+03
  3.97727E+03  3.02862E+03  1.14753E+03  5.78080E+03 -4.36004E+03  6.18404E+03 -7.34960E+03  1.82206E+03
 -4.55650E+03 -3.38147E+03  3.03595E+02 -6.21405E+03  3.35229E+03 -3.13781E+03  3.25163E+03  8.49410E+02
  1.41074E+02  2.78075E+03 -3.90894E+03  4.18540E+03 -4.32779E+03  2.18682E+03 -3.76487E+03 -1.20485E+03
 -2.27502E+03 -5.21609E+03  1.28066E+03 -6.32269E+03  5.14290E+03 -4.21142E+03  5.61466E+03  6.41289E+02
  4.04795E+03  4.68385E+03  4.86911E+02  6.62814E+03 -4.69496E+03  4.01663E+03 -4.56112E+03 -2.58923E+02
 -5.34083E+03 -4.58598E+03 -1.24749E+03 -4.40627E+03  2.55555E+03 -4.47801E+03  2.39939E+03 -2.99400E+03
  2.76276E+03  3.06820E+01  1.60132E+02  1.25529E+03  4.41445E+02 -2.44226E+02 -1.52299E+02 -1.42324E+03
  3.17542E+03 -6.37916E+02  4.49870E+03  6.83799E+02  4.83262E+03  2.21436E+03  4.93660E+03  6.54920E+03
 -1.09522E+03  7.28612E+03 -6.94463E+03  5.55360E+03 -8.99114E+03  1.03181E+03 -6.95065E+03 -2.00528E+03
 -3.83026E+03 -5.64596E+03 -6.05028E+02 -4.54650E+03  2.05137E+03 -1.91150E+03  1.58242E+03 -1.91287E+03
  6.95518E+02 -1.32502E+03  2.12927E+03 -2.34624E+03  3.46660E+03 -1.05517E+03  3.26059E+03  5.58236E+02
  3.81448E+03  9.80546E+02  7.81804E+02  2.81721E+03 -1.36336E+03  1.97651E+03 -3.86378E+03  2.15480E+03
 -4.05783E+03 -1.09952E+03 -1.19724E+03 -2.81622E+03  5.86085E+02 -4.08810E+03  2.75723E+03 -4.33711E+03
  4.08097E+03 -2.83171E+03  5.64288E+03  5.19904E+01  4.00440E+03  3.22844E+03  9.32549E+02  5.03410E+03
 -1.71448E+03  5.31300E+03 -2.95107E+03  1.92746E+03 -1.51587E+03 -1.24955E+03 -7.24294E+01 -4.56542E+02
 -3.49120E+02  5.01543E+02 -6.73529E+02  1.58495E+03 -2.38893E+03  1.29654E+03 -3.62826E+03 -6.66757E+01
 -1.17684E+03 -3.39875E+03  7.81430E+02 -3.87119E+03  2.14310E+03 -3.68261E+03  2.78757E+03 -9.94840E+02
  3.33246E+03  1.80866E+03  1.26194E+03  2.63725E+03 -4.97894E+02  3.71951E+03 -1.75356E+03  2.37564E+03
 -2.91175E+03  7.97185E+02 -2.60247E+03 -1.89245E+03 -8.37917E+01 -2.49096E+03  1.53996E+03 -2.11292E+03
  2.02931E+03 -1.34500E+03  1.28840E+03  4.63821E+02  3.32512E+02  1.23883E+03  9.56191E+02  5.09762E+02
  1.45908E+03  5.43245E+02  1.18006E+03  8.80081E+02  9.32212E+02  2.13362E+03  1.19859E+03  1.30545E+03
 -9.83961E+02  2.09424E+03 -2.05682E+03  3.67726E+03 -1.99226E+03  1.07161E+03 -3.53931E+03  2.23141E+02
 -1.27226E+03 -2.87592E+03  6.27522E+02 -3.84474E+03  1.04903E+03 -1.87426E+03  2.52347E+03 -7.06994E+02
  2.13342E+03  1.33194E+03 -2.72313E+01  2.06973E+03 -3.50729E+02  1.03079E+03 -6.64320E+02 -1.62026E+02
 -4.34259E+02 -1.13980E+03  1.12184E+03 -1.28459E+03  8.60391E+02 -7.53242E+02  1.12162E+03  1.14699E+02
  6.45407E+02  2.37851E+02  5.86921E+02 -6.09448E+02 -3.20012E+02  5.58959E+02  1.40125E+03 -2.39731E+02
 -1.53679E+02  6.31384E+01  1.45242E+03  6.04360E+02 -2.22349E+01  1.99816E+03 -3.03123E+02  2.24146E+03
 -1.16956E+03  4.97958E+02 -1.43209E+03  3.82293E+02 -1.41838E+03 -3.67121E+02  3.64251E+01 -5.53032E+02
  6.64620E+02 -1.01497E+03  7.98142E+02 -5.21299E+02  4.88832E+02  1.22071E+03 -6.11301E+02  9.51222E+02
 -1.20949E+03  8.88458E+02 -5.11321E+02 -1.10309E+03 -4.86905E+02 -2.12593E+03  2.61443E+02 -1.13847E+03
  1.97763E+02 -1.29032E+02  6.61652E+01  4.71403E+02  1.04646E+03 -2.65620E+02  2.21316E+02  7.37335E+02
 -1.06591E+02 -2.48271E+02 -7.58280E+02 -8.55535E+01  4.77319E+02 -3.18146E+02  1.29478E+03 -5.26661E+02
  6.44077E+02  1.18962E+01  2.19688E+03  3.12102E+02  9.52949E+02  1.29486E+03 -3.24403E+02  1.28541E+03
 -8.45844E+02  7.62890E+01 -8.44362E+02 -2.86266E+01 -3.90878E+02 -1.04214E+03  4.48097E+02 -1.57532E+02
  1.11953E+03 -7.46826E+02  6.55329E+02  5.71751E+02  4.71221E+01  1.00022E+03  5.76058E+02  8.06074E+02
  9.18255E+01  9.46435E+02 -4.84446E+02  2.33691E+02  1.31119E+02  3.36755E+02 -7.60629E+02  6.37064E+02
 -2.70643E+02  1.08081E+03 -1.37693E+03  5.64193E+02 -1.27095E+03  2.36135E+02 -1.75237E+03 -2.33276E+02
 -6.42974E+02 -1.59924E+03  4.07283E+02 -2.04596E+03  5.32548E+02 -1.70614E+03  1.96234E+03 -8.21890E+02
  2.06589E+03 -2.43397E+02  8.00769E+02  9.27445E+02 -6.16145E+02  9.02708E+02 -4.95707E+02  9.46832E+02
 -4.92130E+02  4.90454E+02 -1.87320E+02 -3.47097E+02 -2.08465E+02  3.91018E+02 -7.30452E+02  2.14045E+02
 -1.14926E+03 -1.05066E+02 -6.24753E+02  4.33272E+00  3.72066E+02 -4.49744E+02 -6.46126E+02 -7.32914E+02
  1.15034E+03 -5.74789E+02  6.69810E+01 -4.63149E+01  6.53721E+02  7.85600E+02 -5.57165E+02  6.24570E+02
 -7.59780E+02  1.74939E+03 -1.22782E+03  7.94203E+02 -7.86344E+02 -1.57342E+02 -9.29143E+02 -7.61675E+02
 -6.63895E+02 -7.29198E+02  1.73880E+02 -7.00212E+02  3.98306E+02 -1.69157E+02  3.63373E+02  4.89006E+02
  5.52118E+02  1.46528E+02 -1.37498E+02  3.11617E+02 -1.75721E+02 -1.45915E+02 -3.76378E+01 -3.14094E+01
  5.35173E+02  1.62647E+02  4.54716E+01  3.61248E+02  5.11828E+01  3.19471E+02  3.14629E+02  1.76846E+01
 -4.09168E+02  1.16004E+02 -1.56186E+02  1.18325E+02 -4.28491E+02 -3.09634E+02  3.09076E+02 -8.05387E+02
  2.27012E+02 -4.49728E+02  1.78098E+01 -1.38387E+02  4.82580E+02 -5.34463E+02  3.43766E+02  6.25418E+02
  4.04528E+02  1.10945E+02  2.93465E+01  2.99105E+02 -2.63764E+02  4.51205E+02 -3.47439E+02  1.05554E+02
 -2.45512E+02  3.54200E+01 -5.04865E+02  2.94039E+01 -3.52398E+02  5.54077E+01 -4.12857E+02 -3.36498E+02
 -9.01500E+02  3.29957E+02 -4.70391E+02 -7.01210E+02  6.16383E+02 -1.22056E+03  5.03102E+02 -1.88655E+02
  3.11320E+02 -1.46006E+02 -5.57581E+02 -2.72607E+01 -1.95564E+02  5.64383E+02 -2.04812E+01  5.15803E+02
