 $NMID ID='MM_0lb_SNR800_16hz_g40_54.RAW', FMTDAT='(8E13.5)'
 TRAMP=1., VOLUME=1. $END
  3.09811E+05  2.81910E+02  3.37484E+05  2.50429E+05  8.44349E+04  3.37469E+05 -1.32446E+05  2.50447E+05
 -1.89836E+05  8.24662E+04 -1.11193E+05 -3.23104E+04  1.30948E+03 -5.03909E+04  5.39846E+04  2.17285E+02
  3.50697E+04  5.28713E+04 -1.67549E+04  7.50655E+04 -6.07589E+04  6.29814E+04 -8.33126E+04  3.17705E+04
 -7.99094E+04 -1.12476E+04 -5.65781E+04 -5.06545E+04 -1.50194E+04 -6.88400E+04  2.68272E+04 -4.48338E+04
  3.93185E+04  4.06500E+03  1.57792E+04  4.70645E+04 -3.40637E+04  4.65409E+04 -6.59056E+04 -7.24214E+02
 -5.20867E+04 -5.61343E+04 -6.47880E+03 -7.58207E+04  3.35115E+04 -5.39342E+04  4.69244E+04 -1.63928E+04
  4.19833E+04  1.12854E+04  3.10067E+04  2.44679E+04  1.58657E+04  2.85311E+04 -4.92643E+03  2.71149E+04
 -2.15754E+04  1.25897E+04 -1.89091E+04 -4.39448E+03  4.66859E+03 -7.57488E+03  2.15627E+04  1.11606E+04
  7.44245E+03  3.37510E+04 -3.12556E+04  3.41220E+04 -6.17890E+04  2.10024E+03 -5.57992E+04 -4.19349E+04
 -1.24715E+04 -6.14698E+04  3.86502E+04 -4.40390E+04  5.62210E+04 -1.77156E+03  3.24011E+04  3.12571E+04
 -6.41131E+03  3.40585E+04 -2.88810E+04  1.41629E+04 -2.81481E+04 -5.06988E+03 -1.50218E+04 -1.03567E+04
 -7.65903E+03 -1.20122E+04 -8.04045E+02 -1.70493E+04  6.63783E+03 -2.29504E+04  1.51026E+04 -1.36977E+04
  1.18238E+04  4.65931E+03 -6.66990E+03  1.31447E+04 -2.00314E+04 -2.91337E+03 -7.84563E+03 -3.14126E+04
  2.12918E+04 -4.12860E+04  4.58759E+04 -1.88007E+04  4.29696E+04  1.85260E+04  1.49066E+04  4.23917E+04
 -1.52672E+04  3.19073E+04 -2.40134E+04  1.51245E+03 -8.81434E+03 -2.66900E+04  2.04099E+04 -3.20134E+04
  3.91105E+04 -7.75253E+03  3.26139E+04  2.28903E+04  1.64158E+04  4.38258E+04 -7.89252E+03  4.67774E+04
 -2.95933E+04  3.10503E+04 -3.86847E+04  8.75478E+03 -3.97594E+04 -1.55739E+04 -2.17224E+04 -3.54960E+04
  7.09051E+03 -3.54583E+04  3.00129E+04 -1.36683E+04  2.75044E+04  1.05957E+04  3.20427E+03  1.82768E+04
 -1.33131E+04  7.59634E+03 -9.96412E+03 -7.46465E+03  6.12897E+03 -1.01496E+04  1.71837E+04  6.46297E+03
  1.27487E+04  2.15574E+04 -6.33363E+03  2.38944E+04 -2.17311E+04  1.01258E+04 -2.60009E+04 -5.67506E+03
 -1.79154E+04 -1.68295E+04 -6.58872E+03 -1.80602E+04  3.73819E+03 -1.64239E+04  1.36273E+04 -1.58154E+04
  2.30288E+04 -1.21334E+04  2.97107E+04  1.64004E+03  2.19730E+04  1.76377E+04  4.43409E+03  3.35374E+04
 -1.65352E+04  2.87756E+04 -2.64895E+04  9.68008E+03 -2.02271E+04 -1.04459E+04 -4.17488E+03 -1.37859E+04
  2.12991E+03 -3.49990E+03 -3.46713E+03  5.85020E+03 -1.42560E+04  5.32292E+03 -1.42459E+04 -5.46029E+03
 -9.30033E+03 -1.67836E+04  4.63974E+03 -2.05655E+04  1.32629E+04 -1.50096E+04  1.56995E+04 -1.52454E+03
  9.88138E+03  1.20045E+04 -1.00262E+03  1.68421E+04 -1.10888E+04  9.44220E+03 -1.66886E+04 -3.46830E+03
 -1.23179E+04 -1.49648E+04 -1.66590E+03 -2.04200E+04  9.13198E+03 -1.63842E+04  1.70461E+04 -8.14788E+03
  1.59858E+04  5.78436E+02  1.11755E+04  4.13511E+03  5.71961E+03  5.75668E+02  8.18803E+03 -1.51912E+03
  1.50363E+04  2.79864E+03  1.63389E+04  1.35479E+04  1.03051E+04  2.66710E+04 -3.10546E+03  2.94865E+04
 -1.74286E+04  2.27255E+04 -2.70980E+04  1.12592E+04 -2.81889E+04 -2.05222E+03 -2.37491E+04 -1.62867E+04
 -1.09544E+04 -2.28110E+04  7.40255E+03 -2.09775E+04  1.84718E+04 -1.14756E+04  1.69728E+04  4.24809E+03
  6.90461E+03  1.22895E+04 -7.99265E+03  1.11092E+04 -1.42506E+04  2.85324E+03 -1.10391E+04 -8.85969E+03
 -1.99229E+02 -1.35460E+04  6.75102E+03 -1.02236E+04  8.97556E+03 -1.32683E+03  1.75304E+03  5.25384E+03
 -5.85254E+03  1.81512E+03 -4.20424E+03 -4.79543E+03 -2.38393E+02 -1.11472E+04  8.67533E+03 -1.15682E+04
  1.39570E+04 -5.52763E+03  1.41553E+04  2.77783E+03  1.25705E+04  1.06413E+04  5.78006E+03  1.64687E+04
 -2.19538E+03  1.79960E+04 -1.13948E+04  1.13899E+04 -1.29763E+04  2.96965E+03 -9.64988E+03 -2.61629E+03
 -4.96135E+03 -3.83571E+03 -1.03451E+03  1.26067E+03 -1.97827E+03  1.95025E+03 -3.77355E+03  4.06705E+03
 -8.78255E+03 -3.71132E+02 -9.65710E+03 -7.86644E+03 -3.80646E+03 -1.28089E+04  3.83832E+03 -9.57062E+03
  8.02397E+03 -4.10134E+03  6.03963E+03  2.40155E+03  3.60060E+02  3.36695E+03 -4.24647E+03 -1.15780E+02
 -3.98273E+03 -5.89279E+03 -6.26591E+02 -8.59023E+03  4.88352E+03 -9.07091E+03  1.15878E+04 -4.92793E+03
  1.34168E+04  7.76498E+02  9.81169E+03  7.48469E+03  1.95805E+03  1.00264E+04 -5.67263E+03  9.47569E+03
 -7.76371E+03  3.18975E+03 -4.01235E+03 -1.59913E+03  1.23762E+03 -2.44348E+03  5.12837E+03 -1.03020E+03
  4.45075E+03  4.23496E+03  1.11829E+03  7.48127E+03 -5.11861E+03  7.27192E+03 -8.96576E+03  1.59905E+03
 -5.71549E+03 -4.11434E+03  4.14237E+02 -7.61271E+03  4.38077E+03 -3.89995E+03  4.15722E+03  1.08810E+03
  9.39844E+02  4.41275E+03 -4.79052E+03  5.98654E+03 -6.06269E+03  2.63256E+03 -5.89422E+03 -1.84700E+03
 -3.60264E+03 -7.38003E+03  1.40312E+03 -8.42501E+03  7.51686E+03 -5.61022E+03  7.97968E+03  9.99116E+02
  5.25333E+03  6.58794E+03 -1.87911E+02  8.32155E+03 -5.70980E+03  4.81886E+03 -6.42120E+03 -6.01725E+02
 -6.24591E+03 -5.82498E+03 -1.49680E+03 -6.29227E+03  3.10054E+03 -5.46841E+03  3.63219E+03 -2.86814E+03
  3.32856E+03  5.67396E+02 -1.84521E+02  1.39876E+03  3.29490E+02 -7.36160E+02  4.74361E+02 -2.73577E+03
  4.91577E+03 -1.31609E+03  6.69605E+03  8.81511E+02  7.12730E+03  4.39229E+03  5.98728E+03  9.37316E+03
 -1.68176E+03  1.06972E+04 -9.40030E+03  8.41971E+03 -1.24797E+04  1.68653E+03 -9.78520E+03 -3.56737E+03
 -5.09487E+03 -8.10207E+03 -2.81314E+02 -6.75556E+03  2.34342E+03 -2.96821E+03  2.35162E+03 -2.57793E+03
  1.52067E+03 -1.73834E+03  2.17336E+03 -2.49693E+03  4.08620E+03 -1.67756E+03  4.73409E+03  3.18074E+01
  5.50120E+03  1.54544E+03  1.82013E+03  4.13497E+03 -1.35415E+03  3.91488E+03 -5.46740E+03  3.50496E+03
 -6.15426E+03 -8.38489E+02 -3.23038E+03 -4.41630E+03  1.97766E+02 -6.88108E+03  4.15489E+03 -6.72093E+03
  6.88441E+03 -3.91947E+03  8.36981E+03  6.38033E+02  6.03260E+03  5.66559E+03  1.22803E+03  7.63207E+03
 -2.93517E+03  7.12588E+03 -4.35265E+03  2.26707E+03 -2.63403E+03 -1.29265E+03 -8.50134E+02 -1.36310E+03
 -4.10224E+02  4.28712E+02 -1.02923E+03  2.16471E+03 -2.94789E+03  1.33599E+03 -5.05532E+03 -4.61726E+02
 -2.21827E+03 -4.65641E+03  7.35665E+02 -6.15333E+03  3.38357E+03 -5.57449E+03  5.25147E+03 -1.41263E+03
  5.70995E+03  2.80751E+03  2.15337E+03  4.78025E+03 -8.78925E+02  5.91901E+03 -3.61982E+03  3.71900E+03
 -5.28912E+03  4.33211E+02 -4.54792E+03 -3.19305E+03 -5.01164E+02 -4.65442E+03  2.41342E+03 -3.27608E+03
  3.48935E+03 -1.43091E+03  2.43816E+03  9.27215E+02  5.81775E+02  2.14889E+03  1.07303E+03  5.06620E+02
  1.87695E+03  4.46453E+02  1.41337E+03  1.09947E+03  1.50119E+03  2.70767E+03  1.56877E+03  2.51052E+03
 -1.69340E+03  4.13443E+03 -3.68744E+03  5.05780E+03 -4.74991E+03  1.71649E+03 -5.83569E+03 -1.21757E+03
 -2.59916E+03 -5.38459E+03  9.57418E+02 -6.34246E+03  2.92388E+03 -3.46054E+03  4.36277E+03 -1.48458E+03
  3.71508E+03  2.05968E+03  4.82765E+02  3.18372E+03 -1.00693E+03  1.65516E+03 -1.45001E+03 -6.36242E+02
 -1.29223E+03 -2.34920E+03  1.74965E+03 -2.16486E+03  2.21064E+03 -1.26493E+03  1.97440E+03  1.52568E+02
  1.12072E+03  7.91666E+02  9.50366E+02  3.69124E+02 -4.75684E+02  1.09523E+03  1.66153E+03 -2.24574E+02
  4.10788E+02 -9.33885E+01  2.50850E+03  1.07015E+03  7.82274E+02  3.12141E+03 -5.51941E+02  3.90850E+03
 -2.61877E+03  1.99999E+03 -3.12661E+03  4.55200E+02 -2.86118E+03 -1.25816E+03 -4.89065E+02 -2.03053E+03
  6.44584E+02 -2.19102E+03  1.24999E+03 -8.65477E+02  1.13788E+03  1.28309E+03 -4.92602E+02  1.59092E+03
 -1.99466E+03  7.72638E+02 -2.07210E+03 -1.52709E+03 -1.02460E+03 -2.97231E+03  3.30494E+02 -2.56417E+03
  1.16119E+03 -1.24394E+03  1.53149E+03  7.64567E+01  1.95652E+03  2.97946E+02  4.66951E+02  1.69191E+03
 -5.18215E+02  5.07948E+01 -1.37137E+03 -6.55085E+02  4.93876E+02 -1.60067E+03  2.20737E+03 -1.36888E+03
  1.97003E+03  1.70570E+02  3.20694E+03  1.46696E+03  1.26449E+03  2.66954E+03 -7.71114E+02  2.83403E+03
 -2.22335E+03  9.50555E+02 -2.40612E+03 -1.71889E+01 -1.21912E+03 -2.03068E+03  6.56047E+02 -1.47099E+03
  2.14011E+03 -1.00080E+03  1.38964E+03  1.01651E+03  5.30399E+02  1.93661E+03 -1.05005E+02  1.54730E+03
 -9.04292E+02  1.34747E+03 -5.89343E+02  2.52816E+02 -1.57563E+02  4.71195E+02 -8.95996E+02  9.27392E+02
 -9.53792E+02  1.64277E+03 -2.56179E+03  1.03275E+03 -2.78714E+03 -1.23705E+02 -3.57715E+03 -1.73362E+03
 -1.77504E+03 -3.78927E+03  1.06909E+03 -4.28118E+03  2.27221E+03 -3.61796E+03  4.12235E+03 -1.61598E+03
  3.64831E+03  4.09240E+02  2.00937E+03  2.57089E+03 -3.98224E+02  2.65488E+03 -8.82776E+02  2.22106E+03
 -1.68270E+03  9.88981E+02 -7.28736E+02 -4.59545E+02 -4.31967E+02  2.84136E+02 -9.22557E+02  2.98623E+02
 -1.08544E+03 -3.14108E+01 -8.96717E+02 -6.39092E+01  2.88077E+02 -7.71055E+02 -5.83578E+02 -1.35303E+03
  1.45655E+03 -9.72280E+02  1.09781E+03  9.89991E+01  1.89569E+03  1.46682E+03 -4.95412E+02  2.68039E+03
 -1.75280E+03  3.61337E+03 -2.41276E+03  1.90089E+03 -2.87728E+03 -2.36625E+02 -2.02803E+03 -1.92106E+03
 -1.39613E+03 -2.59807E+03  8.30283E+02 -2.18799E+03  1.61374E+03 -1.21496E+03  1.41111E+03 -6.10511E+01
  1.07362E+03  5.83466E+02  3.62277E+01  5.14320E+02 -4.26236E+02  8.26564E+01 -1.23680E+02 -4.53501E+02
  6.01479E+02 -1.25142E+01  8.91353E+02  5.84904E+02  2.04877E+02  8.36687E+02  3.94393E+02  1.17039E+03
 -1.09388E+03  1.11680E+03 -9.25474E+02  4.48861E+02 -1.52333E+03 -8.45025E+02 -1.53537E+02 -2.17614E+03
  7.84404E+02 -1.48093E+03  1.23969E+03 -4.58591E+02  1.89641E+03 -4.18103E+02  7.98227E+02  1.29670E+03
  6.94699E+02  1.38557E+03 -5.47077E+02  1.07724E+03 -9.82870E+02  4.71703E+02 -4.58626E+02  8.26333E+01
 -2.77498E+02 -8.91579E+01 -8.08328E+02  7.89587E+01 -1.00385E+03  3.20539E+02 -1.29588E+03 -4.62148E+02
 -1.70734E+03 -1.87881E+02 -5.92861E+02 -1.75507E+03  1.08770E+03 -2.19696E+03  1.26659E+03 -7.89320E+02
  1.21334E+03  1.87763E+02 -2.39940E+00  7.64660E+02 -4.86889E+01  1.67805E+03 -8.67350E+02  1.26893E+03
