 $NMID ID='MM_0lb_SNR800_11hz_g45_54.RAW', FMTDAT='(8E13.5)'
 TRAMP=1., VOLUME=1. $END
  3.09552E+05  4.01690E+02  3.37829E+05  2.50430E+05  8.45018E+04  3.37976E+05 -1.32687E+05  2.51486E+05
 -1.90544E+05  8.33297E+04 -1.11627E+05 -3.26904E+04  7.07413E+02 -5.10289E+04  5.37866E+04 -2.27770E+02
  3.56375E+04  5.29652E+04 -1.66814E+04  7.57818E+04 -6.10758E+04  6.39717E+04 -8.43877E+04  3.21366E+04
 -8.19547E+04 -1.17663E+04 -5.74156E+04 -5.21534E+04 -1.52357E+04 -7.02775E+04  2.72293E+04 -4.63672E+04
  4.07024E+04  3.60353E+03  1.65274E+04  4.80965E+04 -3.44815E+04  4.76606E+04 -6.76639E+04  1.69607E+02
 -5.43743E+04 -5.74590E+04 -6.95154E+03 -7.78171E+04  3.45835E+04 -5.58243E+04  4.87144E+04 -1.78546E+04
  4.42362E+04  1.12722E+04  3.25049E+04  2.61684E+04  1.59505E+04  2.98680E+04 -5.35518E+03  2.74987E+04
 -2.22095E+04  1.18635E+04 -1.87040E+04 -5.25183E+03  6.09623E+03 -7.39541E+03  2.29442E+04  1.29169E+04
  7.34659E+03  3.63430E+04 -3.30651E+04  3.62693E+04 -6.49019E+04  2.19778E+03 -5.76763E+04 -4.34237E+04
 -1.24176E+04 -6.47328E+04  4.06834E+04 -4.62190E+04  5.97118E+04 -2.25614E+03  3.51442E+04  3.35685E+04
 -5.89064E+03  3.76642E+04 -3.06132E+04  1.73092E+04 -3.17999E+04 -4.12436E+03 -1.80422E+04 -1.16517E+04
 -9.05141E+03 -1.43881E+04 -3.51055E+02 -1.88008E+04  8.04206E+03 -2.29695E+04  1.57129E+04 -1.27401E+04
  1.11114E+04  5.45983E+03 -9.35224E+03  1.29132E+04 -2.21382E+04 -5.53336E+03 -8.13952E+03 -3.54001E+04
  2.39357E+04 -4.49342E+04  5.03865E+04 -1.98684E+04  4.67827E+04  2.00270E+04  1.63235E+04  4.56494E+04
 -1.61093E+04  3.48695E+04 -2.65132E+04  2.19022E+03 -1.06800E+04 -2.87495E+04  2.12676E+04 -3.55313E+04
  4.25844E+04 -1.02918E+04  3.74982E+04  2.44771E+04  1.96122E+04  4.86541E+04 -8.12576E+03  5.29350E+04
 -3.35102E+04  3.63361E+04 -4.48440E+04  1.03699E+04 -4.51736E+04 -1.73128E+04 -2.48762E+04 -3.97596E+04
  7.30559E+03 -3.94284E+04  3.27172E+04 -1.62312E+04  3.03023E+04  1.07469E+04  4.59716E+03  1.99561E+04
 -1.39009E+04  9.21345E+03 -1.06315E+04 -7.60790E+03  5.76500E+03 -1.12032E+04  1.87824E+04  5.92622E+03
  1.47117E+04  2.24154E+04 -5.84301E+03  2.61494E+04 -2.27820E+04  1.32936E+04 -2.96956E+04 -3.86977E+03
 -2.33242E+04 -1.81707E+04 -1.00044E+04 -2.29944E+04  4.03607E+03 -2.25666E+04  1.75243E+04 -2.06952E+04
  2.91918E+04 -1.32643E+04  3.52202E+04  3.84523E+03  2.51694E+04  2.26319E+04  4.73015E+03  3.86384E+04
 -1.88527E+04  3.16545E+04 -2.96993E+04  1.09426E+04 -2.19679E+04 -1.02615E+04 -4.89587E+03 -1.31017E+04
  1.45265E+03 -1.88502E+03 -6.30332E+03  7.65841E+03 -1.85509E+04  5.17611E+03 -1.81431E+04 -8.32067E+03
 -1.10267E+04 -2.10119E+04  5.54501E+03 -2.51712E+04  1.70733E+04 -1.81448E+04  2.04507E+04 -1.45505E+03
  1.27897E+04  1.47449E+04 -1.25217E+03  2.13429E+04 -1.48593E+04  1.20629E+04 -2.15325E+04 -4.53920E+03
 -1.54076E+04 -1.95284E+04 -2.21721E+03 -2.53926E+04  1.12821E+04 -2.12335E+04  2.09334E+04 -1.05602E+04
  2.00395E+04 -3.42930E+02  1.42880E+04  4.92988E+03  8.04369E+03  1.08474E+03  1.08392E+04 -1.82974E+03
  1.95215E+04  3.18803E+03  2.21751E+04  1.66922E+04  1.50298E+04  3.38341E+04 -2.79302E+03  3.91735E+04
 -2.26010E+04  3.20157E+04 -3.68071E+04  1.63898E+04 -3.87238E+04 -2.50841E+03 -3.15348E+04 -2.27218E+04
 -1.27713E+04 -3.23586E+04  1.10181E+04 -2.84013E+04  2.43754E+04 -1.41690E+04  2.15902E+04  6.77984E+03
  8.18326E+03  1.69825E+04 -1.04719E+04  1.40590E+04 -1.80773E+04  2.77551E+03 -1.39181E+04 -1.09131E+04
 -2.94338E+02 -1.71087E+04  9.21965E+03 -1.28003E+04  1.15766E+04 -9.67840E+02  2.69409E+03  7.93088E+03
 -7.60470E+03  2.85283E+03 -7.84288E+03 -6.68419E+03 -1.30481E+03 -1.59370E+04  1.09825E+04 -1.67624E+04
  1.98504E+04 -8.88066E+03  2.19324E+04  2.67622E+03  1.91399E+04  1.58687E+04  9.02457E+03  2.46424E+04
 -4.38173E+03  2.67995E+04 -1.68906E+04  1.59699E+04 -1.94390E+04  3.63284E+03 -1.31106E+04 -4.89467E+03
 -5.64867E+03 -6.03419E+03 -7.73922E+02  9.81074E+02 -2.67079E+03  3.12957E+03 -6.35063E+03  4.92954E+03
 -1.22249E+04 -9.97440E+02 -1.29561E+04 -1.08030E+04 -5.16592E+03 -1.71788E+04  5.47559E+03 -1.34744E+04
  1.08880E+04 -5.53606E+03  7.74192E+03  3.37994E+03 -2.13437E+02  4.84684E+03 -6.73742E+03 -2.47796E+02
 -6.09743E+03 -8.32443E+03 -8.06559E+02 -1.32434E+04  7.33149E+03 -1.38809E+04  1.74003E+04 -7.18378E+03
  1.99992E+04  1.81392E+03  1.46098E+04  1.16399E+04  3.08672E+03  1.57918E+04 -8.21065E+03  1.36795E+04
 -1.06191E+04  4.27412E+03 -5.38574E+03 -2.82974E+03  2.14833E+03 -3.52895E+03  7.12740E+03 -8.75210E+02
  6.33757E+03  5.85583E+03  8.85413E+02  1.05189E+04 -7.88119E+03  1.05037E+04 -1.29584E+04  2.59159E+03
 -8.74391E+03 -6.69209E+03  4.56965E+01 -1.10641E+04  7.35952E+03 -5.62189E+03  7.60986E+03  2.51169E+03
  1.72234E+03  7.98973E+03 -7.10531E+03  9.47377E+03 -1.07351E+04  4.34955E+03 -1.10238E+04 -3.73936E+03
 -6.54260E+03 -1.27387E+04  2.98491E+03 -1.45398E+04  1.25250E+04 -8.83641E+03  1.33725E+04  2.40946E+03
  8.53292E+03  1.06484E+04 -1.23696E+03  1.32656E+04 -9.54347E+03  7.70794E+03 -1.04303E+04 -1.19836E+03
 -9.01660E+03 -8.68886E+03 -1.62121E+03 -9.70096E+03  5.31315E+03 -8.29685E+03  6.16772E+03 -3.24048E+03
  4.15991E+03  1.56392E+03 -6.25776E+02  1.69626E+03 -8.18880E+01 -2.46250E+03  2.14286E+03 -5.32486E+03
  9.03560E+03 -3.40246E+03  1.24070E+04  1.97940E+03  1.25620E+04  8.72731E+03  8.43371E+03  1.64767E+04
 -3.74881E+03  1.92728E+04 -1.62533E+04  1.38547E+04 -2.06910E+04  2.72966E+03 -1.68857E+04 -7.25060E+03
 -8.48088E+03 -1.37073E+04  9.07148E-01 -1.12425E+04  4.23681E+03 -6.35304E+03  4.37496E+03 -4.19293E+03
  3.28283E+03 -2.52753E+03  3.02211E+03 -3.81375E+03  5.13567E+03 -2.72044E+03  6.62116E+03 -1.00372E+03
  9.02684E+03  2.02575E+03  4.60784E+03  7.74741E+03 -2.24046E+03  8.51665E+03 -8.93227E+03  6.74260E+03
 -1.15555E+04 -1.38331E+03 -7.09968E+03 -8.15039E+03 -7.90252E+02 -1.24965E+04  7.31705E+03 -1.22955E+04
  1.30578E+04 -7.25470E+03  1.52928E+04  1.73359E+03  1.08582E+04  1.06953E+04  1.76702E+03  1.43143E+04
 -5.59051E+03  1.17915E+04 -8.31171E+03  3.98043E+03 -5.20451E+03 -1.59264E+03 -2.09531E+03 -1.41136E+03
 -1.05997E+03  2.51335E+02 -1.42982E+03  2.96105E+03 -4.87370E+03  1.94712E+03 -8.24026E+03 -1.09612E+03
 -5.49969E+03 -8.22807E+03  1.39430E+02 -1.14861E+04  6.96514E+03 -1.08057E+04  1.13767E+04 -3.16160E+03
  1.09353E+04  5.59183E+03  5.15779E+03  1.02837E+04 -2.39515E+03  1.13578E+04 -7.84010E+03  7.10749E+03
 -1.03224E+04  4.11534E+02 -8.12416E+03 -6.76223E+03 -7.49803E+02 -9.46259E+03  4.80969E+03 -7.05056E+03
  6.99510E+03 -2.27683E+03  5.10553E+03  2.17713E+03  1.70949E+03  3.56592E+03  1.32944E+03  1.57088E+03
  2.34907E+03  8.43657E+02  2.79182E+03  1.75979E+03  3.32899E+03  4.17916E+03  2.81151E+03  5.86243E+03
 -2.27679E+03  8.79582E+03 -7.62592E+03  9.07931E+03 -1.10656E+04  2.14936E+03 -1.19334E+04 -4.47365E+03
 -5.45564E+03 -1.10305E+04  2.22180E+03 -1.25552E+04  6.52110E+03 -7.64408E+03  8.81462E+03 -2.69903E+03
  7.03731E+03  4.35926E+03  1.51116E+03  6.48634E+03 -2.98273E+03  4.03464E+03 -4.42554E+03 -6.91615E+02
 -2.16497E+03 -4.82925E+03  2.58532E+03 -4.76715E+03  4.56002E+03 -2.17637E+03  4.34338E+03  7.22845E+02
  2.72633E+03  2.35688E+03  9.18778E+02  1.71901E+03 -6.19151E+02  1.34335E+03  1.63125E+03 -7.86066E+02
  1.55068E+03 -5.47876E+02  4.20695E+03  1.96959E+03  2.23811E+03  6.10499E+03 -9.44504E+02  7.97520E+03
 -5.16669E+03  4.55624E+03 -7.13543E+03  1.29586E+03 -6.31228E+03 -2.52407E+03 -2.16488E+03 -4.18946E+03
  4.39275E+02 -4.20600E+03  2.87754E+03 -2.11186E+03  2.44991E+03  2.43554E+03 -1.26986E+03  3.55859E+03
 -4.63124E+03  2.20493E+03 -5.18108E+03 -2.46001E+03 -2.69934E+03 -5.65657E+03  1.33020E+03 -6.11360E+03
  3.58538E+03 -3.49530E+03  4.37787E+03 -4.52288E+02  3.49009E+03  1.13265E+03  6.82909E+02  3.21021E+03
 -2.12380E+03  1.32361E+03 -2.53432E+03 -1.91934E+03  8.14405E+02 -4.34294E+03  5.55524E+03 -3.33775E+03
  6.61557E+03  3.06275E+02  6.76273E+03  4.68043E+03  2.24945E+03  6.86523E+03 -2.37104E+03  6.44701E+03
 -5.81923E+03  2.88694E+03 -6.07845E+03 -6.58167E+02 -3.21360E+03 -4.88221E+03  1.20311E+03 -3.83107E+03
  4.28128E+03 -2.27616E+03  3.57710E+03  2.24019E+03  1.32150E+03  4.18184E+03 -4.04000E+02  3.42651E+03
 -1.87963E+03  2.69818E+03 -1.72549E+03  9.91495E+02 -5.95837E+02  1.14979E+03 -1.16516E+03  1.36049E+03
 -1.85770E+03  2.70434E+03 -4.98884E+03  2.40782E+03 -6.81888E+03  4.39017E+02 -8.13630E+03 -4.99032E+03
 -4.13894E+03 -9.12255E+03  1.92720E+03 -1.05186E+04  6.30006E+03 -8.28517E+03  1.02564E+04 -3.33216E+03
  8.85833E+03  1.86964E+03  5.24603E+03  6.42835E+03  2.82796E+02  7.06634E+03 -2.91761E+03  5.41915E+03
 -4.21236E+03  2.24472E+03 -2.49303E+03 -1.06293E+03 -1.01141E+03 -1.69235E+02 -8.43697E+02  1.89682E+02
 -1.29579E+03  2.46344E+02 -1.51038E+03 -3.73486E+02 -3.94020E+02 -1.63090E+03 -6.08441E+01 -2.79675E+03
  3.16537E+03 -2.11446E+03  4.28758E+03  2.70677E+02  5.20875E+03  4.39758E+03  1.33800E+03  6.87124E+03
 -3.40033E+03  8.39863E+03 -7.63098E+03  4.93127E+03 -8.37291E+03 -7.98145E+02 -6.64636E+03 -5.40552E+03
 -2.99341E+03 -6.98582E+03  1.54284E+03 -6.58451E+03  4.15713E+03 -3.68421E+03  4.59729E+03  3.66242E+02
  2.33440E+03  2.33029E+03 -5.19282E+02  2.08280E+03 -1.20471E+03 -5.17210E+02  1.34042E+02 -1.60283E+03
  2.24597E+03 -8.25895E+02  2.76689E+03  9.28333E+02  1.47962E+03  2.59076E+03  3.22764E+02  3.52242E+03
 -3.09992E+03  2.96190E+03 -4.37061E+03 -2.84404E+02 -4.09726E+03 -3.16358E+03 -7.71376E+02 -6.20260E+03
  2.71528E+03 -4.91276E+03  4.95813E+03 -1.61091E+03  5.42315E+03  1.08653E+03  3.40047E+03  4.44210E+03
  5.56193E+02  4.33152E+03 -1.56076E+03  3.52347E+03 -2.74120E+03  1.79275E+03 -2.28688E+03  6.42415E+01
 -1.07974E+03 -3.24136E+02 -1.55307E+03  3.82417E+02 -2.23601E+03  1.02026E+03 -3.57840E+03 -7.81180E+02
 -3.74765E+03 -2.11311E+03 -1.33560E+03 -4.52252E+03  2.21033E+03 -5.23485E+03  3.97929E+03 -1.89658E+03
  4.53782E+03  2.14016E+02  2.03905E+03  2.70058E+03 -3.13452E+02  4.66562E+03 -3.64116E+03  3.21660E+03
