 $NMID ID='MM_0lb_SNR800_9hz_g55_94.RAW', FMTDAT='(8E13.5)'
 TRAMP=1., VOLUME=1. $END
  3.09820E+05  1.73445E+02  3.38113E+05  2.50606E+05  8.49268E+04  3.38624E+05 -1.32454E+05  2.51581E+05
 -1.90679E+05  8.34457E+04 -1.12480E+05 -3.25435E+04  4.80427E+01 -5.09330E+04  5.38926E+04 -3.92762E+02
  3.57378E+04  5.29141E+04 -1.66571E+04  7.59884E+04 -6.14969E+04  6.44558E+04 -8.55713E+04  3.24681E+04
 -8.26711E+04 -1.14252E+04 -5.81934E+04 -5.24107E+04 -1.51350E+04 -7.10436E+04  2.84279E+04 -4.70024E+04
  4.10177E+04  3.98043E+03  1.66993E+04  4.90080E+04 -3.46396E+04  4.84960E+04 -6.81732E+04 -2.07960E+02
 -5.48929E+04 -5.80632E+04 -7.09741E+03 -7.92164E+04  3.46858E+04 -5.73716E+04  5.01038E+04 -1.85229E+04
  4.53684E+04  1.13445E+04  3.31085E+04  2.70138E+04  1.60156E+04  3.09032E+04 -6.07658E+03  2.81540E+04
 -2.24694E+04  1.17260E+04 -1.80462E+04 -5.77735E+03  7.18250E+03 -7.66612E+03  2.36402E+04  1.36141E+04
  6.94214E+03  3.80314E+04 -3.42934E+04  3.69393E+04 -6.63928E+04  2.12104E+03 -5.89957E+04 -4.47883E+04
 -1.24736E+04 -6.58408E+04  4.16317E+04 -4.75729E+04  6.14980E+04 -2.38188E+03  3.72600E+04  3.49101E+04
 -5.15788E+03  3.99400E+04 -3.19445E+04  1.88404E+04 -3.37357E+04 -3.01893E+03 -1.93647E+04 -1.23123E+04
 -9.29055E+03 -1.51069E+04 -3.03976E+02 -1.96391E+04  8.67096E+03 -2.36252E+04  1.57701E+04 -1.26609E+04
  1.03324E+04  6.21494E+03 -1.07755E+04  1.24407E+04 -2.38617E+04 -6.84966E+03 -8.62463E+03 -3.72413E+04
  2.53434E+04 -4.71020E+04  5.20436E+04 -2.12611E+04  4.88005E+04  2.10918E+04  1.77507E+04  4.70976E+04
 -1.63657E+04  3.61019E+04 -2.77904E+04  2.81119E+03 -1.16094E+04 -2.98841E+04  2.16075E+04 -3.70272E+04
  4.52968E+04 -1.09852E+04  4.09622E+04  2.54749E+04  2.16964E+04  5.13511E+04 -8.58126E+03  5.72561E+04
 -3.60014E+04  3.88330E+04 -4.78479E+04  1.12740E+04 -4.85166E+04 -1.90809E+04 -2.65491E+04 -4.25669E+04
  7.70185E+03 -4.21469E+04  3.45057E+04 -1.71982E+04  3.25365E+04  1.12749E+04  5.31494E+03  2.09606E+04
 -1.38737E+04  9.90192E+03 -1.19389E+04 -7.69590E+03  5.60532E+03 -1.14545E+04  1.86288E+04  5.34442E+03
  1.50125E+04  2.24947E+04 -5.19799E+03  2.77417E+04 -2.40099E+04  1.49309E+04 -3.21968E+04 -3.06318E+03
 -2.57868E+04 -1.85413E+04 -1.24240E+04 -2.54364E+04  4.36969E+03 -2.65142E+04  1.97461E+04 -2.37116E+04
  3.29318E+04 -1.45113E+04  3.85587E+04  4.97014E+03  2.73743E+04  2.52269E+04  3.94576E+03  4.21134E+04
 -2.02674E+04  3.43839E+04 -3.07207E+04  1.21050E+04 -2.26010E+04 -1.03846E+04 -5.13446E+03 -1.24263E+04
  7.10294E+02 -1.03523E+03 -7.89546E+03  8.54405E+03 -2.06264E+04  5.37831E+03 -2.04722E+04 -9.74792E+03
 -1.23803E+04 -2.36699E+04  6.10823E+03 -2.82492E+04  1.90315E+04 -2.01687E+04  2.32563E+04 -1.50540E+03
  1.47280E+04  1.66780E+04 -1.68508E+03  2.34478E+04 -1.73759E+04  1.37155E+04 -2.42235E+04 -4.92982E+03
 -1.75897E+04 -2.15364E+04 -2.31303E+03 -2.87889E+04  1.25671E+04 -2.39186E+04  2.37295E+04 -1.26094E+04
  2.26512E+04 -1.75379E+02  1.62498E+04  5.73501E+03  9.09834E+03  1.78675E+03  1.24179E+04 -1.97911E+03
  2.28550E+04  2.88576E+03  2.60485E+04  1.84103E+04  1.81015E+04  3.85924E+04 -2.57588E+03  4.52752E+04
 -2.57747E+04  3.77186E+04 -4.25620E+04  1.95108E+04 -4.56345E+04 -2.89679E+03 -3.70603E+04 -2.69540E+04
 -1.50144E+04 -3.79147E+04  1.35870E+04 -3.32342E+04  2.84981E+04 -1.55477E+04  2.47387E+04  8.13205E+03
  8.08187E+03  1.92505E+04 -1.17543E+04  1.60598E+04 -2.08482E+04  2.76535E+03 -1.55282E+04 -1.33329E+04
 -6.21804E+02 -1.99264E+04  1.06948E+04 -1.47443E+04  1.33629E+04 -1.29487E+03  3.56715E+03  9.07881E+03
 -9.19710E+03  4.29762E+03 -9.52241E+03 -7.18697E+03 -1.69483E+03 -1.84321E+04  1.20897E+04 -2.05036E+04
  2.35035E+04 -1.10979E+04  2.67131E+04  3.58595E+03  2.36232E+04  1.91229E+04  1.08579E+04  3.03951E+04
 -5.58143E+03  3.21679E+04 -2.10540E+04  2.01168E+04 -2.29213E+04  4.20135E+03 -1.56540E+04 -5.87300E+03
 -6.55210E+03 -7.50637E+03 -5.54521E+02  5.73675E+02 -3.36578E+03  3.70393E+03 -7.48769E+03  4.97870E+03
 -1.44383E+04 -9.05791E+02 -1.47669E+04 -1.21805E+04 -6.35157E+03 -1.93799E+04  6.59350E+03 -1.59683E+04
  1.29419E+04 -7.29427E+03  9.23272E+03  4.09174E+03 -4.57341E+02  6.37177E+03 -7.93671E+03 -2.51224E+02
 -8.03443E+03 -1.03756E+04 -1.34733E+03 -1.62551E+04  9.31016E+03 -1.69297E+04  2.05363E+04 -9.38696E+03
  2.44279E+04  2.71136E+03  1.73169E+04  1.46446E+04  3.09017E+03  1.96833E+04 -1.01642E+04  1.63274E+04
 -1.32189E+04  4.60853E+03 -6.81410E+03 -3.69638E+03  1.94091E+03 -4.84392E+03  8.37190E+03 -7.12076E+02
  7.67590E+03  7.52719E+03  1.39774E+03  1.30176E+04 -9.39615E+03  1.26388E+04 -1.56598E+04  3.08111E+03
 -1.08542E+04 -8.56121E+03  4.08886E+02 -1.42473E+04  9.01796E+03 -7.36625E+03  9.35830E+03  3.30376E+03
  2.13415E+03  1.03235E+04 -8.10413E+03  1.20227E+04 -1.39270E+04  5.13673E+03 -1.42961E+04 -5.12430E+03
 -8.27104E+03 -1.62779E+04  3.56135E+03 -1.86899E+04  1.61599E+04 -1.12731E+04  1.72772E+04  3.31002E+03
  9.99408E+03  1.39846E+04 -1.56415E+03  1.61342E+04 -1.19256E+04  8.90077E+03 -1.30198E+04 -1.63999E+03
 -1.10408E+04 -1.06110E+04 -1.64138E+03 -1.23876E+04  6.61894E+03 -9.70313E+03  7.63981E+03 -4.16052E+03
  5.01912E+03  2.12139E+03 -7.89682E+02  2.14353E+03 -1.12520E+03 -3.40242E+03  2.74311E+03 -7.33459E+03
  1.14488E+04 -5.22563E+03  1.65948E+04  1.89522E+03  1.63147E+04  1.16535E+04  1.07216E+04  2.17562E+04
 -5.15204E+03  2.48636E+04 -2.04038E+04  1.85537E+04 -2.74399E+04  3.68023E+03 -2.13872E+04 -9.02967E+03
 -1.08347E+04 -1.77399E+04 -4.95530E+01 -1.49941E+04  5.50378E+03 -8.33148E+03  5.69919E+03 -5.67596E+03
  4.15296E+03 -3.34120E+03  4.06419E+03 -3.99080E+03  6.21439E+03 -3.79956E+03  8.59449E+03 -1.41082E+03
  1.12465E+04  2.70976E+03  6.08817E+03  9.74773E+03 -2.29170E+03  1.24196E+04 -1.21089E+04  8.67126E+03
 -1.52056E+04 -1.56358E+03 -9.87278E+03 -1.04324E+04 -1.04914E+03 -1.63046E+04  8.95022E+03 -1.63886E+04
  1.69900E+04 -9.45745E+03  2.03004E+04  2.63108E+03  1.36234E+04  1.44229E+04  2.10436E+03  1.82081E+04
 -7.39228E+03  1.49916E+04 -1.09804E+04  4.85969E+03 -7.60239E+03 -1.79632E+03 -2.96653E+03 -2.07296E+03
 -1.62392E+03 -2.54212E+02 -2.22574E+03  3.24596E+03 -6.65621E+03  2.62918E+03 -1.04969E+04 -1.32718E+03
 -7.89131E+03 -1.04328E+04 -3.32885E+02 -1.52958E+04  9.28872E+03 -1.39607E+04  1.55315E+04 -4.35140E+03
  1.47975E+04  7.35715E+03  7.25601E+03  1.38487E+04 -3.26576E+03  1.51615E+04 -1.14715E+04  9.66986E+03
 -1.43150E+04  6.25255E+02 -1.11009E+04 -9.70870E+03 -1.32184E+03 -1.28742E+04  6.62580E+03 -9.71952E+03
  9.73976E+03 -3.09024E+03  7.08141E+03  2.80758E+03  2.21283E+03  4.52476E+03  1.49116E+03  2.32350E+03
  3.01898E+03  1.32780E+03  4.09841E+03  2.09824E+03  4.44128E+03  5.39997E+03  4.05343E+03  8.24086E+03
 -3.34167E+03  1.25601E+04 -1.05909E+04  1.24214E+04 -1.62846E+04  3.08199E+03 -1.61562E+04 -6.32347E+03
 -7.91005E+03 -1.52766E+04  2.57299E+03 -1.74509E+04  9.68905E+03 -1.09210E+04  1.27733E+04 -3.18522E+03
  1.00236E+04  5.96175E+03  2.31926E+03  9.10037E+03 -4.65888E+03  5.75311E+03 -6.74465E+03 -1.17364E+03
 -2.57882E+03 -6.65140E+03  4.26459E+03 -6.74310E+03  6.48453E+03 -3.47417E+03  6.29118E+03  1.33015E+03
  4.06697E+03  3.36478E+03  1.77970E+03  2.68189E+03 -1.34717E+03  2.07163E+03  1.33688E+03 -9.97783E+02
  3.14754E+03 -1.03679E+03  6.61095E+03  2.64917E+03  3.97519E+03  8.27104E+03 -1.15887E+03  1.14263E+04
 -7.40909E+03  7.74294E+03 -9.87099E+03  2.17486E+03 -9.04522E+03 -3.79577E+03 -3.50724E+03 -6.07608E+03
  8.67647E+02 -6.17428E+03  4.12395E+03 -2.87972E+03  2.99424E+03  3.16642E+03 -1.65419E+03  5.80160E+03
 -6.66977E+03  3.18447E+03 -7.36345E+03 -3.71328E+03 -4.77499E+03 -8.69747E+03  1.55779E+03 -8.61235E+03
  5.06419E+03 -5.76773E+03  6.70248E+03 -9.68983E+02  5.03551E+03  2.45020E+03  5.05305E+02  4.85360E+03
 -2.85706E+03  1.22449E+03 -3.97045E+03 -3.17786E+03  1.06787E+03 -6.63179E+03  7.84641E+03 -5.00076E+03
  1.05806E+04  7.29207E+02  9.79433E+03  6.99692E+03  3.04533E+03  1.02787E+04 -3.17558E+03  1.01960E+04
 -8.30175E+03  4.28109E+03 -8.87371E+03 -1.11015E+03 -4.88948E+03 -6.76491E+03  1.91570E+03 -6.25814E+03
  6.88329E+03 -3.16309E+03  5.77599E+03  2.83400E+03  1.97383E+03  5.77397E+03 -1.12723E+03  5.32318E+03
 -2.27346E+03  3.12839E+03 -2.33549E+03  1.17482E+03 -1.20164E+03  1.31441E+03 -1.75840E+03  2.66055E+03
 -2.35225E+03  4.38646E+03 -7.18666E+03  4.03577E+03 -1.00056E+04  4.74051E+02 -1.13735E+04 -6.52807E+03
 -6.12575E+03 -1.42661E+04  2.83628E+03 -1.59011E+04  9.99066E+03 -1.25854E+04  1.53667E+04 -4.18138E+03
  1.40183E+04  2.64945E+03  8.69355E+03  9.81687E+03  7.08128E+02  1.14575E+04 -4.24426E+03  8.45928E+03
 -6.03518E+03  2.81193E+03 -3.80217E+03 -1.53926E+03 -1.72719E+03 -1.13073E+03 -4.05973E+02 -2.79202E+02
 -1.62891E+03  2.85728E+02 -2.61690E+03 -1.78974E+02 -9.59164E+02 -3.00560E+03  1.01567E+03 -3.59889E+03
  4.63181E+03 -3.05595E+03  6.49829E+03  1.23159E+01  7.60933E+03  6.06428E+03  2.04697E+03  1.07123E+04
 -5.49445E+03  1.25717E+04 -1.15642E+04  6.87759E+03 -1.32774E+04 -8.87914E+02 -1.00893E+04 -8.43912E+03
 -4.34279E+03 -1.13523E+04  2.66304E+03 -1.01641E+04  6.90148E+03 -5.83268E+03  6.76178E+03 -7.63916E+01
  3.93217E+03  3.93292E+03 -5.53861E+02  3.14944E+03 -2.07947E+03 -5.20194E+02 -4.89989E+01 -2.73475E+03
  3.02931E+03 -1.42960E+03  4.17897E+03  9.93938E+02  2.52584E+03  4.26186E+03 -3.82781E+01  5.87608E+03
 -4.60143E+03  5.01836E+03 -7.80302E+03  4.77340E+02 -6.88915E+03 -5.15460E+03 -9.85527E+02 -9.09398E+03
  5.09515E+03 -7.28686E+03  8.39562E+03 -2.43972E+03  8.44492E+03  2.17583E+03  4.99386E+03  6.91843E+03
  4.18780E+02  7.14583E+03 -3.15395E+03  5.64190E+03 -4.76231E+03  3.32627E+03 -3.54000E+03  5.16922E+02
 -2.14396E+03 -5.39801E+02 -1.69576E+03  8.32667E+02 -3.32368E+03  1.25715E+03 -5.85974E+03 -1.46998E+03
 -5.38672E+03 -4.21494E+03 -1.77192E+03 -7.60511E+03  3.30526E+03 -7.90111E+03  6.66955E+03 -3.53816E+03
  7.47102E+03  8.75062E+02  3.80645E+03  5.45717E+03 -7.68970E+02  7.38277E+03 -5.74681E+03  4.41557E+03
