 $NMID ID='MM_0lb_SNR800_10hz_g50_69.RAW', FMTDAT='(8E13.5)'
 TRAMP=1., VOLUME=1. $END
  3.10201E+05  6.41995E+02  3.37808E+05  2.50483E+05  8.50756E+04  3.38627E+05 -1.32992E+05  2.51912E+05
 -1.90717E+05  8.38023E+04 -1.12411E+05 -3.25728E+04  2.18566E+02 -5.06998E+04  5.37676E+04 -2.83594E+02
  3.54553E+04  5.26713E+04 -1.63376E+04  7.61214E+04 -6.11426E+04  6.44041E+04 -8.51343E+04  3.22533E+04
 -8.23069E+04 -1.16821E+04 -5.78506E+04 -5.19992E+04 -1.54582E+04 -7.10493E+04  2.78482E+04 -4.62822E+04
  4.09789E+04  3.74707E+03  1.66005E+04  4.78545E+04 -3.50516E+04  4.83652E+04 -6.83493E+04  1.95342E+02
 -5.44892E+04 -5.74400E+04 -7.13447E+03 -7.86446E+04  3.46661E+04 -5.71089E+04  4.92867E+04 -1.81153E+04
  4.46614E+04  1.09452E+04  3.27137E+04  2.67133E+04  1.58595E+04  3.08228E+04 -5.87893E+03  2.78396E+04
 -2.24433E+04  1.22292E+04 -1.82494E+04 -5.98307E+03  6.70040E+03 -7.29613E+03  2.32081E+04  1.35414E+04
  7.21106E+03  3.69375E+04 -3.37790E+04  3.68057E+04 -6.54759E+04  2.47007E+03 -5.86113E+04 -4.42164E+04
 -1.29490E+04 -6.51886E+04  4.10645E+04 -4.70792E+04  6.06595E+04 -2.36967E+03  3.59632E+04  3.39144E+04
 -5.62561E+03  3.87330E+04 -3.17336E+04  1.83658E+04 -3.30336E+04 -3.63133E+03 -1.90129E+04 -1.18127E+04
 -9.21109E+03 -1.47934E+04 -5.65130E+02 -1.93926E+04  8.54682E+03 -2.30121E+04  1.56425E+04 -1.26680E+04
  1.07465E+04  6.15814E+03 -1.00338E+04  1.30182E+04 -2.27033E+04 -6.56476E+03 -8.54979E+03 -3.67489E+04
  2.45563E+04 -4.61503E+04  5.12396E+04 -2.04604E+04  4.78917E+04  2.05159E+04  1.71054E+04  4.64414E+04
 -1.64382E+04  3.57357E+04 -2.69591E+04  2.37398E+03 -1.13292E+04 -2.89952E+04  2.17306E+04 -3.62381E+04
  4.38532E+04 -1.08753E+04  3.93724E+04  2.47942E+04  2.06912E+04  5.03714E+04 -8.18168E+03  5.49262E+04
 -3.46719E+04  3.74678E+04 -4.64293E+04  1.06768E+04 -4.65575E+04 -1.78424E+04 -2.54832E+04 -4.12906E+04
  7.74702E+03 -4.15103E+04  3.38135E+04 -1.66105E+04  3.10449E+04  1.11503E+04  4.74774E+03  2.07463E+04
 -1.35066E+04  9.28140E+03 -1.08208E+04 -7.69098E+03  5.45351E+03 -1.16070E+04  1.87859E+04  5.93329E+03
  1.47594E+04  2.23828E+04 -5.35415E+03  2.63248E+04 -2.33369E+04  1.35267E+04 -3.09371E+04 -3.42457E+03
 -2.44043E+04 -1.82566E+04 -1.09862E+04 -2.38686E+04  4.27103E+03 -2.47422E+04  1.90853E+04 -2.18109E+04
  3.09900E+04 -1.40496E+04  3.67543E+04  4.45362E+03  2.64124E+04  2.36025E+04  4.55123E+03  4.04308E+04
 -1.94774E+04  3.32905E+04 -2.98794E+04  1.22948E+04 -2.21008E+04 -9.97650E+03 -4.89906E+03 -1.30849E+04
  9.41306E+02 -1.29187E+03 -6.98422E+03  7.55048E+03 -1.92052E+04  4.85603E+03 -1.91647E+04 -8.98669E+03
 -1.16158E+04 -2.22636E+04  5.89131E+03 -2.65689E+04  1.81178E+04 -1.88524E+04  2.18241E+04 -2.01000E+03
  1.35397E+04  1.56699E+04 -1.52459E+03  2.23802E+04 -1.62573E+04  1.31545E+04 -2.25607E+04 -4.87723E+03
 -1.65294E+04 -2.01640E+04 -1.87477E+03 -2.67357E+04  1.17678E+04 -2.26398E+04  2.23151E+04 -1.14511E+04
  2.10618E+04 -2.48871E+02  1.51992E+04  4.99618E+03  8.53740E+03  1.30364E+03  1.19216E+04 -1.98861E+03
  2.04702E+04  2.77492E+03  2.39882E+04  1.76019E+04  1.64722E+04  3.60230E+04 -2.85266E+03  4.18063E+04
 -2.43244E+04  3.51205E+04 -3.95621E+04  1.80907E+04 -4.20591E+04 -2.87393E+03 -3.42878E+04 -2.48166E+04
 -1.40018E+04 -3.45571E+04  1.18366E+04 -3.08808E+04  2.62947E+04 -1.46052E+04  2.32224E+04  7.39098E+03
  8.02550E+03  1.81703E+04 -1.08073E+04  1.49470E+04 -1.95954E+04  2.76440E+03 -1.41234E+04 -1.21101E+04
  1.47295E+02 -1.83304E+04  9.95967E+03 -1.34931E+04  1.29132E+04 -1.10907E+03  3.20626E+03  8.19015E+03
 -8.43377E+03  3.83420E+03 -8.39495E+03 -6.57353E+03 -1.37591E+03 -1.68046E+04  1.15772E+04 -1.85756E+04
  2.15270E+04 -1.04204E+04  2.45374E+04  3.47416E+03  2.14768E+04  1.73706E+04  9.92508E+03  2.72423E+04
 -4.70188E+03  2.92324E+04 -1.89283E+04  1.84652E+04 -2.12058E+04  3.60219E+03 -1.47721E+04 -5.22661E+03
 -6.33386E+03 -6.61829E+03 -8.79768E+02  5.57579E+02 -2.42188E+03  3.06749E+03 -6.70458E+03  5.08854E+03
 -1.31226E+04 -8.87509E+02 -1.42222E+04 -1.11980E+04 -5.82787E+03 -1.86055E+04  6.00156E+03 -1.51090E+04
  1.24244E+04 -6.26543E+03  9.08278E+03  3.75322E+03 -8.68361E+01  5.78563E+03 -7.08778E+03 -2.81818E+01
 -7.13472E+03 -9.14721E+03 -1.19144E+03 -1.43774E+04  8.21489E+03 -1.56966E+04  1.87600E+04 -8.02344E+03
  2.22524E+04  2.15479E+03  1.61634E+04  1.33888E+04  3.17911E+03  1.75483E+04 -9.23337E+03  1.47168E+04
 -1.19747E+04  4.41286E+03 -6.11917E+03 -2.79993E+03  2.19046E+03 -4.17436E+03  8.00679E+03 -6.81919E+02
  7.20322E+03  6.66152E+03  1.63489E+03  1.18769E+04 -8.39972E+03  1.06829E+04 -1.43704E+04  2.97646E+03
 -1.00363E+04 -7.70929E+03  2.28054E+02 -1.26726E+04  8.21977E+03 -6.55785E+03  7.99192E+03  2.97168E+03
  1.96518E+03  9.11024E+03 -7.61627E+03  1.05845E+04 -1.26127E+04  4.95579E+03 -1.25456E+04 -4.16022E+03
 -7.29970E+03 -1.44562E+04  3.41417E+03 -1.68013E+04  1.38632E+04 -1.01158E+04  1.53700E+04  3.16727E+03
  9.48398E+03  1.19755E+04 -1.28535E+03  1.45759E+04 -1.08783E+04  8.13981E+03 -1.18154E+04 -7.81302E+02
 -9.80769E+03 -1.00606E+04 -1.25468E+03 -1.06379E+04  5.92383E+03 -8.99659E+03  7.26845E+03 -3.26563E+03
  4.69123E+03  1.63679E+03 -1.06250E+03  1.47409E+03 -5.20942E+02 -2.92576E+03  2.45004E+03 -6.55706E+03
  1.03726E+04 -4.21351E+03  1.43156E+04  1.75232E+03  1.43594E+04  9.79533E+03  9.31218E+03  1.88288E+04
 -4.70592E+03  2.19375E+04 -1.83323E+04  1.62709E+04 -2.36413E+04  3.09928E+03 -1.89718E+04 -8.32816E+03
 -9.11950E+03 -1.55766E+04 -5.42796E+02 -1.32072E+04  4.98485E+03 -7.62306E+03  4.72253E+03 -4.79741E+03
  3.30976E+03 -2.94649E+03  4.04299E+03 -3.94859E+03  5.51350E+03 -2.99512E+03  7.69151E+03 -1.06118E+03
  9.67693E+03  2.22224E+03  5.37489E+03  8.71205E+03 -2.13287E+03  1.01029E+04 -1.07175E+04  8.27952E+03
 -1.32609E+04 -1.63989E+03 -8.48840E+03 -9.69382E+03 -1.06240E+03 -1.39094E+04  7.90675E+03 -1.40599E+04
  1.47411E+04 -8.40905E+03  1.78001E+04  2.20306E+03  1.23767E+04  1.27160E+04  1.86136E+03  1.57666E+04
 -6.27306E+03  1.30173E+04 -9.47065E+03  3.92211E+03 -6.08563E+03 -1.49255E+03 -2.63175E+03 -2.16330E+03
 -1.33566E+03 -5.59420E+01 -2.19623E+03  2.42782E+03 -5.69694E+03  2.24812E+03 -9.14296E+03 -1.07137E+03
 -6.62832E+03 -8.98985E+03  3.25838E+02 -1.30150E+04  8.30254E+03 -1.25768E+04  1.29898E+04 -3.63089E+03
  1.30456E+04  6.22298E+03  6.03297E+03  1.17676E+04 -2.85508E+03  1.32370E+04 -9.49759E+03  7.89449E+03
 -1.25976E+04  7.08362E+02 -9.66948E+03 -7.95630E+03 -8.77863E+02 -1.08654E+04  5.85344E+03 -8.17685E+03
  8.04759E+03 -2.77222E+03  5.70883E+03  2.23584E+03  1.90240E+03  3.75567E+03  1.07608E+03  1.80995E+03
  2.54552E+03  1.16137E+03  3.20127E+03  1.95801E+03  3.91736E+03  4.51244E+03  3.23166E+03  7.00563E+03
 -2.69601E+03  1.02030E+04 -9.23388E+03  1.01852E+04 -1.35059E+04  2.63158E+03 -1.41551E+04 -5.55083E+03
 -6.53686E+03 -1.32854E+04  1.60176E+03 -1.44981E+04  8.37675E+03 -9.46205E+03  1.10651E+04 -2.51075E+03
  8.16099E+03  5.15406E+03  1.70514E+03  7.69529E+03 -3.36427E+03  4.93316E+03 -5.30082E+03 -1.05502E+03
 -2.45801E+03 -5.35293E+03  3.19924E+03 -6.27233E+03  5.74631E+03 -2.42188E+03  5.02692E+03  1.36879E+03
  3.29975E+03  2.61837E+03  1.28842E+03  2.06530E+03 -7.50869E+02  1.88088E+03  1.65667E+03 -1.18730E+02
  2.18921E+03 -7.86033E+02  5.42785E+03  2.04670E+03  2.82999E+03  7.31768E+03 -1.13553E+03  9.36933E+03
 -6.74883E+03  6.29857E+03 -8.55810E+03  1.69546E+03 -7.73567E+03 -3.01578E+03 -2.94935E+03 -5.21583E+03
  1.18303E+03 -5.10666E+03  3.37918E+03 -2.69520E+03  2.83820E+03  2.42458E+03 -1.15011E+03  4.30511E+03
 -5.34905E+03  2.38867E+03 -6.03573E+03 -3.35735E+03 -3.56057E+03 -7.10260E+03  1.02441E+03 -7.18197E+03
  4.19756E+03 -3.98154E+03  5.28811E+03 -6.46847E+02  4.69746E+03  2.10112E+03  8.12736E+02  3.99611E+03
 -2.29928E+03  9.83058E+02 -2.89909E+03 -2.18248E+03  1.32012E+03 -5.56262E+03  6.36998E+03 -4.48842E+03
  8.24965E+03  9.24560E+02  7.87629E+03  5.59692E+03  2.66444E+03  8.78852E+03 -3.10889E+03  8.05066E+03
 -7.10597E+03  3.37905E+03 -6.98948E+03 -1.01035E+03 -3.79263E+03 -5.54166E+03  1.30791E+03 -4.78793E+03
  5.29354E+03 -2.64399E+03  4.51232E+03  2.37661E+03  1.55288E+03  4.85170E+03 -7.96736E+02  4.25773E+03
 -2.50059E+03  2.78128E+03 -2.39326E+03  7.88996E+02 -8.71929E+02  6.97290E+02 -1.53832E+03  1.68039E+03
 -2.34904E+03  3.43333E+03 -5.72180E+03  2.46397E+03 -8.36877E+03 -4.18389E+01 -9.68425E+03 -5.53554E+03
 -4.68813E+03 -1.13613E+04  2.42097E+03 -1.28820E+04  7.92560E+03 -1.05279E+04  1.23428E+04 -3.75292E+03
  1.17004E+04  2.57471E+03  7.32215E+03  7.89098E+03  4.98067E+02  8.82859E+03 -3.18169E+03  6.40190E+03
 -5.21254E+03  2.29183E+03 -3.21527E+03 -1.17896E+03 -8.82774E+02 -7.55971E+02 -8.06180E+02 -9.45803E+01
 -1.55001E+03  5.24640E+02 -2.07030E+03 -8.50733E+01 -7.57468E+02 -2.42475E+03  2.75395E+01 -3.35174E+03
  4.23074E+03 -2.62373E+03  4.97462E+03  1.02978E+01  5.97854E+03  4.66855E+03  1.68089E+03  8.95687E+03
 -3.99797E+03  9.96476E+03 -8.95970E+03  5.78238E+03 -1.06442E+04 -1.07151E+03 -7.75577E+03 -6.81162E+03
 -3.49150E+03 -9.03251E+03  2.06437E+03 -8.27506E+03  5.56041E+03 -4.56263E+03  5.91976E+03  3.67170E+02
  3.00737E+03  2.90740E+03 -4.26134E+02  2.31724E+03 -1.46589E+03 -1.17402E+02  8.03306E+01 -1.88686E+03
  2.77151E+03 -1.18561E+03  3.34947E+03  1.38054E+03  2.43910E+03  3.41609E+03  2.36782E+02  4.34836E+03
 -4.09153E+03  4.37847E+03 -5.98434E+03  4.03810E+02 -5.31749E+03 -4.04160E+03 -8.49240E+02 -7.16429E+03
  4.16106E+03 -6.23916E+03  6.46079E+03 -1.81075E+03  6.82629E+03  1.40088E+03  3.74513E+03  5.43140E+03
  4.83044E+02  5.79075E+03 -2.39801E+03  4.29877E+03 -3.65079E+03  2.57545E+03 -3.04050E+03  1.22792E+02
 -1.60217E+03 -2.00547E+02 -1.77114E+03  4.27670E+02 -3.02664E+03  1.10373E+03 -4.66310E+03 -8.23554E+02
 -3.87894E+03 -2.86207E+03 -1.19950E+03 -5.95472E+03  3.00813E+03 -6.21435E+03  4.93980E+03 -2.85253E+03
  5.83487E+03  6.41337E+02  2.81483E+03  3.58653E+03 -5.03980E+02  5.52363E+03 -4.40581E+03  3.85991E+03
