 $NMID ID='MM_0lb_SNR800_8hz_g55_61.RAW', FMTDAT='(8E13.5)'
 TRAMP=1., VOLUME=1. $END
  3.09699E+05  7.75742E+02  3.37833E+05  2.50965E+05  8.48806E+04  3.38727E+05 -1.33060E+05  2.52816E+05
 -1.90904E+05  8.35849E+04 -1.12367E+05 -3.23065E+04  1.06420E+02 -5.07500E+04  5.37184E+04 -2.62217E+02
  3.58281E+04  5.27716E+04 -1.64372E+04  7.66874E+04 -6.08714E+04  6.41800E+04 -8.57952E+04  3.25569E+04
 -8.29659E+04 -1.16494E+04 -5.83636E+04 -5.29556E+04 -1.50599E+04 -7.17375E+04  2.86050E+04 -4.71200E+04
  4.15917E+04  3.86546E+03  1.73749E+04  4.85045E+04 -3.48328E+04  4.87304E+04 -6.83206E+04  4.51424E+02
 -5.54404E+04 -5.75919E+04 -7.38859E+03 -7.95593E+04  3.49447E+04 -5.74775E+04  5.02071E+04 -1.82904E+04
  4.61725E+04  1.19494E+04  3.37201E+04  2.69982E+04  1.60696E+04  3.06646E+04 -5.67898E+03  2.80203E+04
 -2.25348E+04  1.21558E+04 -1.77011E+04 -6.09533E+03  7.30725E+03 -7.36874E+03  2.41571E+04  1.41621E+04
  7.46277E+03  3.79717E+04 -3.45757E+04  3.77400E+04 -6.67871E+04  2.07369E+03 -5.92150E+04 -4.47069E+04
 -1.23750E+04 -6.65628E+04  4.22713E+04 -4.83539E+04  6.23026E+04 -2.64072E+03  3.75283E+04  3.48013E+04
 -5.33349E+03  4.03036E+04 -3.24519E+04  1.96722E+04 -3.42178E+04 -3.24229E+03 -1.99089E+04 -1.24818E+04
 -9.79426E+03 -1.56218E+04 -2.18428E+02 -2.04501E+04  8.94217E+03 -2.37443E+04  1.60352E+04 -1.26350E+04
  1.02045E+04  6.46331E+03 -1.09704E+04  1.30628E+04 -2.44704E+04 -7.04848E+03 -8.62653E+03 -3.82714E+04
  2.58187E+04 -4.82170E+04  5.29496E+04 -2.12646E+04  4.96742E+04  2.12987E+04  1.74055E+04  4.81903E+04
 -1.69116E+04  3.70906E+04 -2.81950E+04  2.99551E+03 -1.24350E+04 -2.98356E+04  2.19282E+04 -3.76417E+04
  4.54445E+04 -1.14395E+04  4.16508E+04  2.53410E+04  2.24012E+04  5.23877E+04 -8.44056E+03  5.80496E+04
 -3.67190E+04  3.94737E+04 -4.87106E+04  1.16285E+04 -4.93059E+04 -1.90295E+04 -2.69219E+04 -4.30038E+04
  7.91403E+03 -4.37387E+04  3.48274E+04 -1.78283E+04  3.31227E+04  1.13529E+04  6.02516E+03  2.12719E+04
 -1.41705E+04  1.04269E+04 -1.16047E+04 -7.82380E+03  5.86305E+03 -1.09902E+04  1.88433E+04  5.36455E+03
  1.50047E+04  2.31459E+04 -5.10958E+03  2.77946E+04 -2.37553E+04  1.49598E+04 -3.25966E+04 -2.56263E+03
 -2.70398E+04 -1.90177E+04 -1.25326E+04 -2.63121E+04  4.49763E+03 -2.76534E+04  2.08853E+04 -2.38674E+04
  3.44280E+04 -1.45734E+04  3.95144E+04  5.17400E+03  2.79038E+04  2.59318E+04  4.80994E+03  4.30595E+04
 -2.02015E+04  3.55784E+04 -3.13081E+04  1.24235E+04 -2.30510E+04 -1.01973E+04 -5.27568E+03 -1.26646E+04
  2.52950E+02 -7.72031E+02 -8.21726E+03  8.62481E+03 -2.16276E+04  5.19120E+03 -2.09206E+04 -1.09427E+04
 -1.26597E+04 -2.47726E+04  6.62169E+03 -2.92223E+04  1.98202E+04 -2.10460E+04  2.43647E+04 -1.76528E+03
  1.49011E+04  1.70744E+04 -1.54834E+03  2.43274E+04 -1.75058E+04  1.46128E+04 -2.49450E+04 -5.03027E+03
 -1.79918E+04 -2.25652E+04 -2.09895E+03 -2.97630E+04  1.34724E+04 -2.43422E+04  2.44271E+04 -1.34687E+04
  2.34427E+04 -6.12348E+02  1.67265E+04  5.54448E+03  9.14796E+03  1.41314E+03  1.30217E+04 -2.26773E+03
  2.32718E+04  3.20415E+03  2.71460E+04  1.90641E+04  1.90304E+04  3.96636E+04 -2.86581E+03  4.72920E+04
 -2.70705E+04  3.96643E+04 -4.46591E+04  2.07627E+04 -4.82129E+04 -3.67040E+03 -3.90969E+04 -2.83292E+04
 -1.53576E+04 -4.00030E+04  1.37249E+04 -3.46780E+04  3.00267E+04 -1.60984E+04  2.56739E+04  8.62901E+03
  8.52682E+03  2.05781E+04 -1.25585E+04  1.64891E+04 -2.13839E+04  3.08066E+03 -1.59532E+04 -1.33995E+04
 -4.13687E+02 -2.04218E+04  1.12237E+04 -1.49733E+04  1.43737E+04 -1.46012E+03  3.27428E+03  9.63518E+03
 -9.05139E+03  4.46194E+03 -1.04221E+04 -7.27153E+03 -2.39517E+03 -1.93450E+04  1.30256E+04 -2.17283E+04
  2.48695E+04 -1.27975E+04  2.85538E+04  3.59101E+03  2.56960E+04  2.02938E+04  1.11286E+04  3.17742E+04
 -6.03966E+03  3.38120E+04 -2.21409E+04  2.09431E+04 -2.50668E+04  4.33670E+03 -1.65360E+04 -6.66899E+03
 -7.06857E+03 -8.16723E+03 -2.67578E+02 -2.69135E+02 -2.82731E+03  3.55726E+03 -8.13741E+03  5.88488E+03
 -1.55545E+04 -1.36083E+03 -1.62587E+04 -1.25079E+04 -6.42725E+03 -2.09303E+04  7.20094E+03 -1.71045E+04
  1.38289E+04 -6.90122E+03  9.74161E+03  4.17033E+03 -7.82626E+02  6.59968E+03 -8.30702E+03  1.52323E+02
 -8.49132E+03 -1.09648E+04 -1.67780E+03 -1.72328E+04  1.02985E+04 -1.80344E+04  2.15214E+04 -9.66120E+03
  2.55369E+04  2.56229E+03  1.89989E+04  1.61453E+04  3.50235E+03  2.08549E+04 -1.04863E+04  1.67453E+04
 -1.33842E+04  4.95868E+03 -7.21471E+03 -3.57980E+03  2.61681E+03 -4.73506E+03  9.15672E+03 -1.52792E+03
  8.08330E+03  7.32705E+03  1.55149E+03  1.37635E+04 -9.87424E+03  1.33835E+04 -1.67289E+04  3.07895E+03
 -1.18925E+04 -8.94092E+03  1.05099E+02 -1.46439E+04  9.85138E+03 -7.44937E+03  1.01934E+04  3.94193E+03
  2.66879E+03  1.10670E+04 -9.19662E+03  1.31456E+04 -1.54339E+04  5.61580E+03 -1.58348E+04 -5.98426E+03
 -9.33027E+03 -1.77994E+04  4.14114E+03 -2.02822E+04  1.75713E+04 -1.19217E+04  1.91486E+04  3.64782E+03
  1.11561E+04  1.52983E+04 -2.57941E+03  1.80598E+04 -1.27346E+04  1.02212E+04 -1.45652E+04 -1.75182E+03
 -1.16109E+04 -1.17925E+04 -1.93147E+03 -1.36667E+04  7.01061E+03 -1.09050E+04  9.02753E+03 -3.77672E+03
  5.04045E+03  2.55522E+03 -1.27369E+03  2.25997E+03 -7.00857E+02 -3.63180E+03  3.15201E+03 -8.62181E+03
  1.32611E+04 -5.96893E+03  1.90549E+04  1.79982E+03  1.78624E+04  1.27010E+04  1.12134E+04  2.41356E+04
 -5.77297E+03  2.72085E+04 -2.26472E+04  2.06022E+04 -2.91740E+04  3.56443E+03 -2.36140E+04 -1.05770E+04
 -1.19528E+04 -1.93553E+04 -1.56760E+02 -1.70313E+04  6.19051E+03 -9.29804E+03  5.97321E+03 -5.98583E+03
  4.18520E+03 -3.23038E+03  4.32438E+03 -4.24900E+03  6.28957E+03 -3.71469E+03  8.74529E+03 -1.89694E+03
  1.22026E+04  2.82193E+03  6.88642E+03  1.09861E+04 -2.33743E+03  1.32038E+04 -1.32143E+04  9.89859E+03
 -1.71312E+04 -1.48492E+03 -1.11168E+04 -1.21281E+04 -2.01562E+03 -1.82224E+04  1.00385E+04 -1.79615E+04
  1.90039E+04 -1.03160E+04  2.28068E+04  3.48778E+03  1.53660E+04  1.62381E+04  2.26341E+03  2.05463E+04
 -8.96700E+03  1.64623E+04 -1.19748E+04  5.83221E+03 -8.53411E+03 -2.01821E+03 -3.36550E+03 -3.23317E+03
 -1.30643E+03 -4.26866E+01 -2.59294E+03  3.54504E+03 -7.19307E+03  2.87548E+03 -1.15584E+04 -1.86955E+03
 -8.69099E+03 -1.11369E+04 -1.85679E+02 -1.68311E+04  1.08974E+04 -1.54318E+04  1.72943E+04 -4.81545E+03
  1.68134E+04  8.43886E+03  8.25111E+03  1.50329E+04 -3.48108E+03  1.77588E+04 -1.26084E+04  1.09978E+04
 -1.61853E+04  5.60658E+02 -1.21050E+04 -1.05684E+04 -1.37624E+03 -1.44807E+04  7.90266E+03 -1.01630E+04
  1.10750E+04 -3.41350E+03  7.31157E+03  3.21155E+03  2.78144E+03  5.10988E+03  1.40143E+03  1.88179E+03
  3.39386E+03  1.52475E+03  4.10176E+03  2.10302E+03  5.56322E+03  5.70418E+03  4.31112E+03  9.68626E+03
 -3.38447E+03  1.43989E+04 -1.21580E+04  1.40316E+04 -1.83919E+04  3.55875E+03 -1.83994E+04 -7.58118E+03
 -8.53347E+03 -1.76045E+04  2.15096E+03 -1.92721E+04  1.11731E+04 -1.23836E+04  1.50061E+04 -3.15860E+03
  1.17650E+04  6.48046E+03  2.65175E+03  1.03298E+04 -5.04818E+03  6.84375E+03 -7.69007E+03 -9.25429E+02
 -3.61348E+03 -7.68840E+03  3.90818E+03 -7.92777E+03  7.76860E+03 -3.75529E+03  7.31985E+03  1.57257E+03
  4.34966E+03  3.99294E+03  1.62330E+03  3.46924E+03 -1.00626E+03  2.08758E+03  1.62725E+03 -1.09950E+03
  2.38928E+03 -1.49278E+03  7.46924E+03  2.22255E+03  4.21616E+03  9.43889E+03 -1.58243E+03  1.27053E+04
 -8.88928E+03  8.48080E+03 -1.19178E+04  2.52464E+03 -1.00934E+04 -4.41425E+03 -4.16843E+03 -7.28641E+03
  1.17015E+03 -7.23977E+03  4.67049E+03 -3.65335E+03  3.86839E+03  3.29401E+03 -1.20133E+03  6.40408E+03
 -7.40214E+03  3.74173E+03 -8.87292E+03 -4.16261E+03 -5.07657E+03 -9.89407E+03  1.55876E+03 -1.00819E+04
  5.92923E+03 -6.02095E+03  7.46508E+03 -6.85038E+02  6.41163E+03  3.01926E+03  1.05030E+03  5.41060E+03
 -3.90659E+03  1.97667E+03 -4.39275E+03 -3.59978E+03  1.57994E+03 -7.71189E+03  9.18862E+03 -6.60789E+03
  1.17981E+04  6.36244E+02  1.11903E+04  7.82090E+03  3.57125E+03  1.26235E+04 -4.59025E+03  1.09514E+04
 -9.80742E+03  4.70929E+03 -1.03972E+04 -1.93240E+03 -5.50239E+03 -7.91931E+03  1.76131E+03 -7.33066E+03
  7.21941E+03 -3.91669E+03  6.23331E+03  3.23051E+03  2.61670E+03  6.56282E+03 -1.30712E+03  5.74403E+03
 -3.28217E+03  3.79270E+03 -2.97815E+03  1.21238E+03 -1.07059E+03  9.70754E+02 -1.94663E+03  2.37035E+03
 -3.62884E+03  4.76547E+03 -8.41205E+03  4.39078E+03 -1.22638E+04  4.17860E+02 -1.37301E+04 -8.20723E+03
 -7.03724E+03 -1.64004E+04  3.22302E+03 -1.86911E+04  1.17641E+04 -1.48138E+04  1.80369E+04 -5.24541E+03
  1.69447E+04  3.35661E+03  9.94053E+03  1.15112E+04  6.75850E+02  1.32319E+04 -4.93494E+03  9.61981E+03
 -7.30592E+03  3.43670E+03 -4.31064E+03 -1.33246E+03 -1.13570E+03 -1.46865E+03 -4.73141E+02 -1.88816E+02
 -2.51616E+03  5.03557E+02 -2.48803E+03 -4.63633E+02 -9.01591E+02 -3.38730E+03  5.50348E+02 -4.94218E+03
  5.95862E+03 -4.00795E+03  8.12892E+03  5.01064E+01  9.27801E+03  7.06382E+03  2.54893E+03  1.28039E+04
 -6.39588E+03  1.48057E+04 -1.39151E+04  8.89443E+03 -1.59050E+04 -1.18341E+03 -1.23265E+04 -9.80346E+03
 -4.47719E+03 -1.33163E+04  3.01887E+03 -1.22528E+04  8.54910E+03 -6.66693E+03  8.66623E+03  3.41833E+02
  4.47997E+03  4.15061E+03 -5.40681E+02  3.55714E+03 -2.41870E+03 -4.29198E+02  1.87892E+02 -2.84802E+03
  4.19982E+03 -2.60563E+03  5.66375E+03  1.67414E+03  3.71539E+03  4.85759E+03  9.00152E+01  6.96254E+03
 -5.76268E+03  5.78359E+03 -9.17024E+03  9.11994E+02 -7.79715E+03 -6.05713E+03 -1.32152E+03 -1.13369E+04
  6.04526E+03 -9.15457E+03  1.01292E+04 -3.07560E+03  1.02769E+04  2.45588E+03  5.56761E+03  7.93111E+03
  1.10828E+03  8.99192E+03 -3.62264E+03  7.14616E+03 -5.69060E+03  3.82850E+03 -4.48413E+03  5.26112E+02
 -2.35688E+03 -1.82446E+02 -2.54770E+03  7.42495E+02 -4.55698E+03  1.42916E+03 -6.85013E+03 -1.26200E+03
 -6.91649E+03 -4.65514E+03 -2.04756E+03 -8.98104E+03  3.91906E+03 -9.35735E+03  8.40281E+03 -4.81136E+03
  8.75668E+03  1.26460E+03  5.03727E+03  6.35469E+03 -5.82093E+02  9.24470E+03 -7.03685E+03  5.62289E+03
