 $NMID ID='MM_0lb_SNR800_13hz_g55_1.RAW', FMTDAT='(8E13.5)'
 TRAMP=1., VOLUME=1. $END
  3.10001E+05  6.46713E+02  3.37830E+05  2.50721E+05  8.46013E+04  3.37860E+05 -1.32446E+05  2.51563E+05
 -1.90679E+05  8.36740E+04 -1.12165E+05 -3.24537E+04  3.19485E+02 -5.06661E+04  5.41014E+04 -2.25946E+02
  3.55025E+04  5.26844E+04 -1.67934E+04  7.52821E+04 -6.12236E+04  6.40821E+04 -8.46485E+04  3.21410E+04
 -8.16060E+04 -1.13863E+04 -5.73538E+04 -5.18145E+04 -1.53282E+04 -7.02151E+04  2.80036E+04 -4.60382E+04
  4.04682E+04  3.48407E+03  1.63882E+04  4.77645E+04 -3.43770E+04  4.76746E+04 -6.71882E+04 -5.86987E+00
 -5.43087E+04 -5.75357E+04 -7.20881E+03 -7.79248E+04  3.41202E+04 -5.60837E+04  4.84702E+04 -1.78643E+04
  4.39598E+04  1.12760E+04  3.21780E+04  2.60049E+04  1.58735E+04  2.99302E+04 -5.35591E+03  2.72466E+04
 -2.21254E+04  1.19686E+04 -1.83816E+04 -5.28748E+03  6.11855E+03 -7.50290E+03  2.28064E+04  1.27967E+04
  7.13910E+03  3.61971E+04 -3.25882E+04  3.62302E+04 -6.41595E+04  2.01323E+03 -5.79195E+04 -4.35213E+04
 -1.27120E+04 -6.40292E+04  4.01931E+04 -4.61232E+04  5.90535E+04 -2.48107E+03  3.53907E+04  3.27722E+04
 -5.85151E+03  3.72930E+04 -3.10340E+04  1.67653E+04 -3.11861E+04 -4.33551E+03 -1.76203E+04 -1.11556E+04
 -8.75495E+03 -1.40290E+04 -7.74912E+02 -1.85096E+04  7.62851E+03 -2.34236E+04  1.58656E+04 -1.32921E+04
  1.12509E+04  5.22086E+03 -9.06326E+03  1.26551E+04 -2.19871E+04 -5.06605E+03 -8.48398E+03 -3.53361E+04
  2.34586E+04 -4.45995E+04  4.95859E+04 -2.00678E+04  4.63086E+04  1.96689E+04  1.63220E+04  4.51745E+04
 -1.60475E+04  3.43544E+04 -2.65803E+04  1.87621E+03 -1.04841E+04 -2.85180E+04  2.13952E+04 -3.48025E+04
  4.26352E+04 -9.34689E+03  3.73547E+04  2.42546E+04  1.91471E+04  4.79779E+04 -7.88276E+03  5.23780E+04
 -3.29859E+04  3.52988E+04 -4.40128E+04  1.02258E+04 -4.43841E+04 -1.74665E+04 -2.43638E+04 -3.91506E+04
  7.46711E+03 -3.91864E+04  3.24244E+04 -1.56865E+04  3.00215E+04  1.11730E+04  4.28803E+03  1.98995E+04
 -1.38969E+04  8.55914E+03 -1.10194E+04 -7.74805E+03  5.71058E+03 -1.10106E+04  1.82325E+04  5.74329E+03
  1.39574E+04  2.20493E+04 -5.56533E+03  2.56617E+04 -2.28539E+04  1.23257E+04 -2.90639E+04 -3.96522E+03
 -2.22834E+04 -1.76889E+04 -9.44411E+03 -2.20825E+04  4.23925E+03 -2.17627E+04  1.74929E+04 -1.97325E+04
  2.83207E+04 -1.33237E+04  3.43718E+04  3.56690E+03  2.48807E+04  2.13959E+04  4.41564E+03  3.77005E+04
 -1.84811E+04  3.18107E+04 -2.88152E+04  1.07653E+04 -2.15246E+04 -1.05741E+04 -4.12839E+03 -1.34830E+04
  1.20457E+03 -2.44220E+03 -5.48774E+03  7.19709E+03 -1.77056E+04  5.00368E+03 -1.76756E+04 -7.87137E+03
 -1.05334E+04 -2.04389E+04  5.52462E+03 -2.45758E+04  1.66842E+04 -1.76535E+04  1.94412E+04 -1.22938E+03
  1.25981E+04  1.42035E+04 -1.49930E+03  2.04511E+04 -1.39768E+04  1.14563E+04 -2.04721E+04 -4.22479E+03
 -1.50384E+04 -1.84031E+04 -1.93182E+03 -2.47952E+04  1.10809E+04 -2.03068E+04  2.01821E+04 -1.06293E+04
  1.89255E+04  7.94984E+01  1.36905E+04  4.78174E+03  7.68973E+03  1.05303E+03  1.03518E+04 -1.62737E+03
  1.86904E+04  2.65956E+03  2.11015E+04  1.57539E+04  1.39396E+04  3.27045E+04 -2.79272E+03  3.71662E+04
 -2.14509E+04  3.06376E+04 -3.46385E+04  1.55514E+04 -3.65042E+04 -2.65558E+03 -3.04889E+04 -2.13346E+04
 -1.28762E+04 -3.06147E+04  1.03940E+04 -2.73224E+04  2.33707E+04 -1.32631E+04  2.05342E+04  6.50039E+03
  7.48859E+03  1.57515E+04 -1.01349E+04  1.33366E+04 -1.72743E+04  2.48902E+03 -1.31611E+04 -1.10331E+04
 -3.77975E+02 -1.65430E+04  8.68162E+03 -1.23157E+04  1.09571E+04 -1.39908E+03  2.78589E+03  7.52653E+03
 -7.35173E+03  3.18239E+03 -7.17209E+03 -6.03677E+03 -5.82070E+02 -1.52584E+04  1.02204E+04 -1.59201E+04
  1.85511E+04 -8.47869E+03  2.03932E+04  2.84025E+03  1.76579E+04  1.47658E+04  8.48218E+03  2.27280E+04
 -4.17730E+03  2.46663E+04 -1.56877E+04  1.56206E+04 -1.78618E+04  3.41753E+03 -1.27837E+04 -4.49819E+03
 -5.63302E+03 -5.25115E+03 -8.10298E+02  6.12517E+02 -2.42667E+03  2.81700E+03 -5.68427E+03  4.57226E+03
 -1.16180E+04 -5.98042E+02 -1.24727E+04 -1.00395E+04 -4.74448E+03 -1.61638E+04  5.11899E+03 -1.23749E+04
  1.03970E+04 -5.31611E+03  7.71817E+03  3.56151E+03  2.57321E+02  4.86385E+03 -5.89074E+03 -3.59198E+01
 -5.65909E+03 -7.75905E+03 -1.01625E+03 -1.18521E+04  7.00122E+03 -1.28432E+04  1.53569E+04 -6.89281E+03
  1.84200E+04  1.71356E+03  1.33999E+04  1.08781E+04  2.47588E+03  1.46470E+04 -7.85041E+03  1.24573E+04
 -1.01601E+04  3.99844E+03 -5.03378E+03 -2.55223E+03  2.07858E+03 -3.12997E+03  6.77791E+03 -9.08869E+02
  6.13734E+03  5.67950E+03  1.20455E+03  9.64711E+03 -7.01689E+03  9.52725E+03 -1.20144E+04  2.14115E+03
 -8.26258E+03 -6.31685E+03  4.08680E+02 -1.03660E+04  6.79046E+03 -4.89834E+03  6.84729E+03  2.04908E+03
  1.54393E+03  7.11902E+03 -6.43173E+03  8.62663E+03 -9.71434E+03  3.92392E+03 -9.89936E+03 -2.98414E+03
 -5.79573E+03 -1.15325E+04  2.70517E+03 -1.30987E+04  1.16595E+04 -8.05104E+03  1.20909E+04  1.92153E+03
  7.44699E+03  9.46012E+03 -7.96595E+02  1.18934E+04 -7.87114E+03  6.71889E+03 -9.36747E+03 -8.07080E+02
 -8.35306E+03 -7.90367E+03 -1.92789E+03 -8.78586E+03  4.69786E+03 -7.11017E+03  5.57275E+03 -3.23003E+03
  4.21884E+03  1.30148E+03 -4.26426E+02  1.43187E+03 -4.29059E+01 -1.79803E+03  1.43402E+03 -4.54423E+03
  8.24631E+03 -3.10547E+03  1.09581E+04  1.46998E+03  1.08549E+04  7.78416E+03  7.90462E+03  1.42950E+04
 -2.95694E+03  1.67052E+04 -1.42710E+04  1.23005E+04 -1.81303E+04  2.21501E+03 -1.49033E+04 -5.80529E+03
 -7.06107E+03 -1.18962E+04 -4.74268E+02 -1.03053E+04  3.50785E+03 -5.56871E+03  3.52729E+03 -3.92544E+03
  2.58069E+03 -2.35950E+03  3.18680E+03 -3.51739E+03  4.81020E+03 -2.47564E+03  5.83893E+03 -3.06635E+02
  7.66460E+03  2.25591E+03  3.92922E+03  6.40005E+03 -1.87260E+03  7.27058E+03 -8.13462E+03  5.64428E+03
 -1.01402E+04 -1.41505E+03 -6.02119E+03 -6.95089E+03 -9.36721E+02 -1.04223E+04  5.88518E+03 -1.05796E+04
  1.10240E+04 -6.19274E+03  1.31765E+04  1.56106E+03  9.15059E+03  8.84178E+03  1.76334E+03  1.22653E+04
 -4.68087E+03  1.00835E+04 -6.96308E+03  3.45564E+03 -4.66741E+03 -1.43337E+03 -1.97210E+03 -1.40418E+03
 -9.13704E+02  1.98332E+02 -1.56257E+03  2.69879E+03 -4.26603E+03  1.63706E+03 -6.91825E+03 -1.00637E+03
 -4.61064E+03 -7.09762E+03  2.76809E+02 -9.68968E+03  5.89881E+03 -8.94320E+03  9.03534E+03 -2.59174E+03
  9.50021E+03  4.64919E+03  4.52938E+03  8.50947E+03 -1.71914E+03  9.44125E+03 -6.60301E+03  6.07841E+03
 -8.52422E+03  1.64149E+02 -7.19371E+03 -5.35312E+03 -5.52392E+02 -7.64748E+03  3.99709E+03 -5.57963E+03
  6.07845E+03 -1.83147E+03  4.05470E+03  1.34072E+03  1.22055E+03  2.88183E+03  6.05806E+02  1.34040E+03
  2.21007E+03  7.27152E+02  2.30749E+03  1.36130E+03  2.68357E+03  3.86904E+03  2.68624E+03  5.02567E+03
 -1.88639E+03  7.21168E+03 -6.35097E+03  7.80736E+03 -8.70305E+03  2.05626E+03 -9.68111E+03 -3.24328E+03
 -4.59023E+03 -9.19891E+03  1.16020E+03 -1.03350E+04  5.30250E+03 -6.40939E+03  7.68924E+03 -1.93490E+03
  5.89171E+03  3.40037E+03  1.14682E+03  5.16914E+03 -2.23919E+03  3.15727E+03 -3.19307E+03 -6.71008E+02
 -1.52713E+03 -3.79983E+03  2.41018E+03 -4.15156E+03  3.34225E+03 -1.81010E+03  3.54960E+03  4.74595E+02
  1.94637E+03  1.66144E+03  1.23378E+03  8.87831E+02 -4.73606E+02  1.12721E+03  1.53010E+03 -6.72709E+02
  1.10774E+03 -4.68797E+02  3.34693E+03  1.79983E+03  1.52035E+03  5.04172E+03 -6.72762E+02  6.31234E+03
 -4.15278E+03  4.08401E+03 -5.45837E+03  1.02177E+03 -4.82034E+03 -1.86325E+03 -1.56095E+03 -3.05891E+03
  7.12064E+02 -3.08597E+03  2.68473E+03 -1.17344E+03  1.53866E+03  1.99726E+03 -1.12103E+03  2.81319E+03
 -4.01622E+03  1.83580E+03 -3.96034E+03 -2.25039E+03 -2.13453E+03 -4.49014E+03  6.31917E+02 -4.66309E+03
  2.47058E+03 -2.48801E+03  3.13183E+03 -3.33471E+02  3.17668E+03  1.04160E+03  6.28585E+02  2.41778E+03
 -1.67083E+03  7.56424E+02 -2.29871E+03 -1.19530E+03  1.11210E+03 -3.27583E+03  4.17008E+03 -3.21257E+03
  4.52327E+03  6.28025E+02  5.57645E+03  3.46754E+03  1.89805E+03  5.10701E+03 -1.71700E+03  5.17361E+03
 -4.06346E+03  1.88404E+03 -4.47126E+03 -1.00581E+03 -2.46518E+03 -3.57128E+03  1.01071E+03 -3.14781E+03
  3.10950E+03 -1.61024E+03  2.95869E+03  1.57550E+03  1.02199E+03  3.05520E+03 -2.03866E+02  2.52045E+03
 -1.33010E+03  1.94441E+03 -1.54166E+03  3.88329E+02 -4.00344E+02  7.93547E+02 -1.12370E+03  1.29528E+03
 -1.15861E+03  2.26036E+03 -3.87381E+03  1.45364E+03 -5.38639E+03  4.69916E+02 -6.05679E+03 -3.44583E+03
 -3.21472E+03 -6.88471E+03  1.44919E+03 -7.93504E+03  4.82454E+03 -6.27613E+03  7.29172E+03 -2.53506E+03
  6.80643E+03  1.00729E+03  4.41208E+03  4.66949E+03  8.22582E+01  5.17513E+03 -1.94462E+03  4.11134E+03
 -2.91772E+03  1.68308E+03 -1.83221E+03 -4.71099E+02 -8.04474E+02 -2.51254E+02 -6.37499E+02 -6.61345E+01
 -1.35770E+03  6.94340E+01 -1.48587E+03 -8.76313E+01 -1.34257E+02 -1.51856E+03 -2.87703E+01 -1.71407E+03
  2.74707E+03 -1.77397E+03  3.00136E+03  9.98560E+01  3.34275E+03  2.91547E+03  5.15293E+02  5.21633E+03
 -2.56864E+03  5.87769E+03 -5.32087E+03  3.52348E+03 -5.82408E+03 -4.24798E+02 -4.46650E+03 -3.64436E+03
 -2.09763E+03 -4.88041E+03  1.28393E+03 -4.39873E+03  2.89149E+03 -2.42090E+03  3.17902E+03  5.46895E+02
  1.80600E+03  1.46605E+03 -2.13670E+02  1.47518E+03 -9.57997E+02  7.53143E+01 -1.99524E+01 -1.09544E+03
  1.50806E+03 -4.44939E+02  1.95068E+03  7.39409E+02  1.29478E+03  1.79188E+03  3.70160E+02  2.17468E+03
 -2.22013E+03  2.21731E+03 -2.98180E+03  2.56392E+01 -2.98067E+03 -2.03990E+03 -2.48309E+02 -4.02792E+03
  1.85563E+03 -3.26300E+03  3.18928E+03 -9.60124E+02  3.57610E+03  7.21997E+02  1.79232E+03  2.91187E+03
  9.01525E+02  2.74410E+03 -1.45369E+03  2.69589E+03 -1.75434E+03  1.78969E+03 -1.59251E+03  3.43013E+02
 -8.31072E+02 -3.32498E+02 -1.17580E+03  4.44420E+02 -1.91255E+03  6.20823E+02 -2.11447E+03 -7.23417E+02
 -2.54963E+03 -1.04845E+03 -6.50660E+02 -2.97693E+03  1.80189E+03 -4.09755E+03  2.53169E+03 -1.19459E+03
  2.99091E+03  1.88527E+02  1.16070E+03  2.04546E+03 -2.71696E+02  3.04977E+03 -1.84793E+03  1.90899E+03
