 $NMID ID='MM_0lb_SNR800_13hz_g45_44.RAW', FMTDAT='(8E13.5)'
 TRAMP=1., VOLUME=1. $END
  3.09699E+05  4.61409E+02  3.37607E+05  2.50621E+05  8.46265E+04  3.38160E+05 -1.32875E+05  2.51300E+05
 -1.90127E+05  8.30726E+04 -1.11921E+05 -3.23853E+04  1.01202E+03 -5.02920E+04  5.40522E+04 -4.56845E+02
  3.55916E+04  5.27443E+04 -1.67263E+04  7.56463E+04 -6.04160E+04  6.35933E+04 -8.40700E+04  3.20122E+04
 -8.09682E+04 -1.11793E+04 -5.74287E+04 -5.15072E+04 -1.51896E+04 -6.97556E+04  2.75065E+04 -4.59277E+04
  4.01680E+04  3.92020E+03  1.62726E+04  4.78250E+04 -3.46964E+04  4.71293E+04 -6.66310E+04 -2.09835E+02
 -5.36231E+04 -5.67118E+04 -6.68801E+03 -7.73162E+04  3.41005E+04 -5.52156E+04  4.79180E+04 -1.73597E+04
  4.36190E+04  1.12212E+04  3.17648E+04  2.54927E+04  1.59440E+04  2.94741E+04 -5.26965E+03  2.73684E+04
 -2.19726E+04  1.24622E+04 -1.85318E+04 -5.14827E+03  5.70932E+03 -7.93784E+03  2.24591E+04  1.23545E+04
  7.09262E+03  3.55389E+04 -3.23789E+04  3.56870E+04 -6.36502E+04  2.31276E+03 -5.73259E+04 -4.27776E+04
 -1.24912E+04 -6.34327E+04  3.97975E+04 -4.54401E+04  5.86360E+04 -2.34049E+03  3.45220E+04  3.26060E+04
 -6.04138E+03  3.63370E+04 -3.01593E+04  1.60085E+04 -3.03126E+04 -4.42225E+03 -1.69309E+04 -1.09923E+04
 -8.55336E+03 -1.36365E+04 -3.98383E+02 -1.81912E+04  7.72253E+03 -2.34428E+04  1.56453E+04 -1.34343E+04
  1.17469E+04  5.07534E+03 -8.27653E+03  1.30960E+04 -2.17247E+04 -4.43896E+03 -8.35578E+03 -3.38749E+04
  2.30874E+04 -4.36537E+04  4.84373E+04 -1.96645E+04  4.53460E+04  1.96684E+04  1.57034E+04  4.45470E+04
 -1.57128E+04  3.39649E+04 -2.59448E+04  1.77078E+03 -1.00979E+04 -2.81828E+04  2.10981E+04 -3.38916E+04
  4.15720E+04 -9.11192E+03  3.54921E+04  2.40436E+04  1.85328E+04  4.69527E+04 -8.19096E+03  5.04361E+04
 -3.20523E+04  3.44283E+04 -4.25300E+04  9.50376E+03 -4.29001E+04 -1.67895E+04 -2.34372E+04 -3.81161E+04
  7.29066E+03 -3.81587E+04  3.17965E+04 -1.50220E+04  2.96454E+04  1.09409E+04  4.03175E+03  1.91024E+04
 -1.35096E+04  8.29437E+03 -1.06245E+04 -7.79526E+03  5.99173E+03 -1.10870E+04  1.82202E+04  6.07265E+03
  1.35478E+04  2.22631E+04 -5.95033E+03  2.52938E+04 -2.22933E+04  1.15921E+04 -2.83928E+04 -4.72709E+03
 -2.11777E+04 -1.72914E+04 -8.87755E+03 -2.10382E+04  3.81021E+03 -2.00433E+04  1.62544E+04 -1.85800E+04
  2.65869E+04 -1.31383E+04  3.29275E+04  3.14001E+03  2.43391E+04  2.02195E+04  4.24849E+03  3.67791E+04
 -1.78344E+04  3.07877E+04 -2.80583E+04  1.09286E+04 -2.10773E+04 -1.03452E+04 -4.44078E+03 -1.36577E+04
  1.88587E+03 -2.59311E+03 -5.31273E+03  6.84903E+03 -1.67718E+04  5.55557E+03 -1.67695E+04 -7.39503E+03
 -1.03953E+04 -1.93202E+04  4.71395E+03 -2.35289E+04  1.53147E+04 -1.68508E+04  1.85877E+04 -1.63793E+03
  1.19720E+04  1.33316E+04 -9.75296E+02  1.92466E+04 -1.35883E+04  1.11666E+04 -1.91992E+04 -4.15793E+03
 -1.40117E+04 -1.73679E+04 -2.10434E+03 -2.37690E+04  1.08343E+04 -1.91512E+04  1.96835E+04 -9.82146E+03
  1.85387E+04  2.80856E+01  1.30331E+04  4.40773E+03  6.82360E+03  8.86470E+02  9.67516E+03 -1.65940E+03
  1.80835E+04  2.41528E+03  2.00494E+04  1.54909E+04  1.31386E+04  3.10159E+04 -2.93543E+03  3.53939E+04
 -2.02510E+04  2.86851E+04 -3.30543E+04  1.43665E+04 -3.45097E+04 -2.24218E+03 -2.85416E+04 -1.98985E+04
 -1.21021E+04 -2.82904E+04  9.97635E+03 -2.55660E+04  2.18462E+04 -1.30845E+04  1.96301E+04  5.99210E+03
  7.26507E+03  1.45323E+04 -8.84339E+03  1.29149E+04 -1.66714E+04  2.42462E+03 -1.26337E+04 -1.08341E+04
 -1.18180E+02 -1.57403E+04  8.66248E+03 -1.15150E+04  1.06361E+04 -1.13897E+03  2.44970E+03  6.76402E+03
 -7.19995E+03  2.32422E+03 -6.26353E+03 -5.76928E+03 -5.91067E+02 -1.38895E+04  1.02688E+04 -1.44610E+04
  1.75059E+04 -7.77909E+03  1.87238E+04  2.73087E+03  1.62774E+04  1.38254E+04  7.61109E+03  2.10889E+04
 -3.22174E+03  2.32618E+04 -1.47552E+04  1.47135E+04 -1.67478E+04  3.45858E+03 -1.17396E+04 -3.82439E+03
 -5.30457E+03 -4.75179E+03 -6.80660E+02  1.16400E+03 -2.29672E+03  2.43971E+03 -5.36363E+03  4.52038E+03
 -1.07938E+04 -8.21368E+02 -1.15091E+04 -9.44023E+03 -4.57159E+03 -1.54049E+04  5.25411E+03 -1.20712E+04
  9.55732E+03 -4.95058E+03  7.09315E+03  3.33843E+03  2.10416E+02  4.49090E+03 -5.48232E+03  3.09709E+01
 -5.42395E+03 -7.64072E+03 -7.68737E+02 -1.09347E+04  6.51957E+03 -1.19036E+04  1.47724E+04 -6.51332E+03
  1.75527E+04  1.54526E+03  1.25071E+04  9.92120E+03  2.55839E+03  1.37047E+04 -7.64273E+03  1.21085E+04
 -9.40405E+03  3.85492E+03 -5.00502E+03 -2.17870E+03  1.98108E+03 -3.30229E+03  6.35987E+03 -6.90554E+02
  5.26842E+03  4.85317E+03  1.38728E+03  9.17869E+03 -6.54611E+03  8.96812E+03 -1.15932E+04  2.45756E+03
 -7.76215E+03 -5.90794E+03  1.43632E+02 -9.57424E+03  5.54700E+03 -5.09057E+03  6.07281E+03  2.01942E+03
  1.28528E+03  6.63403E+03 -6.09926E+03  8.07414E+03 -8.87246E+03  3.49073E+03 -8.64321E+03 -2.95398E+03
 -5.33093E+03 -1.02281E+04  2.40224E+03 -1.20285E+04  1.05315E+04 -8.07540E+03  1.11419E+04  1.93261E+03
  7.11802E+03  9.03824E+03 -5.15138E+02  1.14742E+04 -7.57322E+03  6.59705E+03 -8.97353E+03 -6.96020E+02
 -8.14820E+03 -7.37953E+03 -1.69077E+03 -7.96346E+03  4.32275E+03 -6.95698E+03  5.09251E+03 -3.26599E+03
  3.71784E+03  1.02076E+03 -5.18405E+02  1.36993E+03 -2.44437E+02 -2.00064E+03  1.23837E+03 -4.42210E+03
  7.21498E+03 -2.44889E+03  1.00190E+04  1.43391E+03  1.00634E+04  6.41637E+03  7.35579E+03  1.34446E+04
 -2.75508E+03  1.55932E+04 -1.31889E+04  1.16826E+04 -1.70938E+04  2.05657E+03 -1.36346E+04 -5.54847E+03
 -6.90461E+03 -1.12102E+04 -2.28024E+02 -9.39315E+03  3.62398E+03 -4.80957E+03  3.32294E+03 -3.60465E+03
  2.40195E+03 -2.02854E+03  3.08644E+03 -3.00626E+03  4.71115E+03 -2.77719E+03  5.24414E+03 -2.57138E+02
  7.02374E+03  1.35883E+03  3.27691E+03  6.27217E+03 -2.07705E+03  6.48428E+03 -7.62522E+03  5.17805E+03
 -8.99695E+03 -1.05744E+03 -5.23452E+03 -6.40972E+03 -3.99619E+02 -9.57334E+03  5.48615E+03 -1.01624E+04
  1.01998E+04 -5.91060E+03  1.23456E+04  1.58738E+03  8.77632E+03  8.41554E+03  1.62094E+03  1.11269E+04
 -4.28563E+03  9.45232E+03 -6.59046E+03  3.10797E+03 -4.31808E+03 -1.45624E+03 -1.49848E+03 -1.26010E+03
 -9.41483E+02 -8.90536E+01 -1.49270E+03  2.23511E+03 -4.06846E+03  1.40080E+03 -6.77762E+03 -1.13039E+03
 -3.83567E+03 -6.71105E+03  4.72210E+02 -8.60118E+03  5.58876E+03 -8.63034E+03  8.59922E+03 -2.43461E+03
  8.68247E+03  4.51600E+03  3.91530E+03  7.25599E+03 -1.53047E+03  8.83320E+03 -5.71628E+03  5.43987E+03
 -8.06738E+03  8.30858E+02 -6.43246E+03 -5.05126E+03 -9.22264E+02 -7.21959E+03  3.51309E+03 -5.14096E+03
  5.71080E+03 -2.22749E+03  3.80088E+03  1.26944E+03  1.34847E+03  2.57862E+03  1.02613E+03  1.22845E+03
  2.44573E+03  9.30994E+02  2.12985E+03  1.53051E+03  2.47529E+03  3.34253E+03  2.16761E+03  4.10010E+03
 -2.01249E+03  6.81799E+03 -6.07049E+03  7.71977E+03 -8.18420E+03  2.20379E+03 -8.97987E+03 -3.15166E+03
 -4.04872E+03 -8.31841E+03  9.00436E+02 -9.62320E+03  4.69763E+03 -5.93943E+03  6.80747E+03 -1.77493E+03
  5.34468E+03  3.13768E+03  1.29222E+03  4.77331E+03 -2.24109E+03  3.03606E+03 -2.79087E+03 -6.09953E+02
 -1.76386E+03 -3.55849E+03  1.99178E+03 -3.81667E+03  3.16950E+03 -1.85760E+03  3.32363E+03  9.43726E+02
  1.95488E+03  1.41739E+03  1.01201E+03  1.14339E+03 -6.93885E+02  1.19811E+03  2.01046E+03 -2.29637E+02
  7.85398E+02 -5.67320E+02  3.75237E+03  1.39687E+03  1.54774E+03  4.61627E+03 -8.45398E+02  5.90050E+03
 -4.02638E+03  3.53410E+03 -4.88039E+03  1.16220E+03 -4.86098E+03 -1.82370E+03 -1.26349E+03 -3.10534E+03
  3.81933E+02 -2.91878E+03  1.80225E+03 -1.79742E+03  1.82451E+03  1.91833E+03 -8.07013E+02  2.32822E+03
 -3.51942E+03  1.45455E+03 -3.56538E+03 -2.29134E+03 -2.19472E+03 -4.62586E+03  4.98429E+02 -4.33194E+03
  2.20061E+03 -2.46592E+03  2.90101E+03 -1.77323E+02  2.61882E+03  1.15934E+03  7.38634E+02  2.30829E+03
 -1.55296E+03  7.75405E+02 -2.13792E+03 -1.56679E+03  1.29702E+03 -3.20909E+03  4.33248E+03 -2.76705E+03
  4.58116E+03  5.78179E+02  5.16874E+03  2.86747E+03  1.84319E+03  4.81789E+03 -1.94808E+03  4.85554E+03
 -3.99689E+03  1.67157E+03 -4.09527E+03 -8.65603E+02 -2.25900E+03 -3.37049E+03  6.79540E+02 -2.72246E+03
  3.41798E+03 -1.97368E+03  2.46727E+03  1.58249E+03  1.23692E+03  2.70915E+03 -6.43206E+00  2.67189E+03
 -1.49180E+03  1.59477E+03 -1.37420E+03  2.67382E+02 -7.41851E+02  6.50379E+02 -1.18140E+03  1.12911E+03
 -1.00806E+03  2.17196E+03 -3.65019E+03  1.55103E+03 -4.85795E+03 -1.30012E+02 -6.02318E+03 -2.95240E+03
 -2.68807E+03 -6.46664E+03  1.55406E+03 -7.35704E+03  4.04883E+03 -5.95307E+03  6.93038E+03 -2.30057E+03
  6.34081E+03  9.90112E+02  3.68903E+03  4.60924E+03  2.98045E+00  4.98097E+03 -2.18240E+03  3.62906E+03
 -2.70136E+03  1.24362E+03 -1.69639E+03 -6.14122E+02 -8.99695E+02 -3.36684E+02 -7.09114E+02 -1.56197E+02
 -1.14615E+03  9.98532E+01 -1.52689E+03 -3.00640E+02 -3.66413E+02 -1.51900E+03  2.51904E+01 -1.77011E+03
  2.41872E+03 -1.56945E+03  2.95187E+03  2.39158E+02  3.45478E+03  2.69809E+03  2.33289E+02  4.38283E+03
 -2.56550E+03  5.67272E+03 -5.00640E+03  3.37419E+03 -5.68557E+03 -3.45855E+02 -3.80393E+03 -3.79987E+03
 -1.98602E+03 -4.91707E+03  1.32117E+03 -4.44142E+03  3.05264E+03 -2.15616E+03  3.39309E+03  4.60872E+01
  1.81341E+03  1.33540E+03  5.83231E+01  9.35724E+02 -1.13482E+03  7.92197E+01 -1.81894E+02 -1.29750E+03
  1.49842E+03 -3.30128E+02  1.69017E+03  7.29382E+02  1.14707E+03  1.70044E+03  2.65828E+02  1.94485E+03
 -2.07615E+03  2.02463E+03 -3.21335E+03  3.90574E+02 -2.67707E+03 -2.21032E+03 -3.29040E+02 -3.91460E+03
  1.86976E+03 -3.20652E+03  3.03857E+03 -6.73098E+02  3.48201E+03  5.71023E+02  1.81387E+03  2.80674E+03
  6.03520E+02  2.85004E+03 -1.02001E+03  2.48624E+03 -1.87958E+03  1.51255E+03 -1.61368E+03  2.25966E+02
 -2.92877E+02 -4.79096E+02 -9.26229E+02  1.07663E+02 -1.50105E+03  2.58375E+02 -2.55711E+03 -5.22146E+02
 -2.28226E+03 -1.16140E+03 -9.25267E+02 -3.04002E+03  1.28938E+03 -3.59112E+03  2.35177E+03 -1.80395E+03
  2.68474E+03  4.76596E+02  1.10852E+03  1.89463E+03 -3.29606E+02  2.78699E+03 -2.15863E+03  1.82775E+03
