 $NMID ID='MM_0lb_SNR800_9hz_g40_73.RAW', FMTDAT='(8E13.5)'
 TRAMP=1., VOLUME=1. $END
  3.09766E+05  2.54548E+02  3.37803E+05  2.50852E+05  8.53528E+04  3.38275E+05 -1.32264E+05  2.51729E+05
 -1.90872E+05  8.35444E+04 -1.12409E+05 -3.24776E+04  3.82962E+02 -5.02910E+04  5.35791E+04 -6.89839E+02
  3.52945E+04  5.30012E+04 -1.66973E+04  7.60240E+04 -6.10411E+04  6.45120E+04 -8.49322E+04  3.25460E+04
 -8.21707E+04 -1.16786E+04 -5.81353E+04 -5.18924E+04 -1.52617E+04 -7.02408E+04  2.82269E+04 -4.61976E+04
  4.10529E+04  3.89525E+03  1.69816E+04  4.83913E+04 -3.42302E+04  4.79479E+04 -6.80464E+04  1.18981E+02
 -5.46995E+04 -5.76369E+04 -7.33627E+03 -7.84405E+04  3.43513E+04 -5.65052E+04  4.91345E+04 -1.82062E+04
  4.50402E+04  1.16766E+04  3.25065E+04  2.63563E+04  1.59716E+04  3.07835E+04 -5.82393E+03  2.76814E+04
 -2.25062E+04  1.18821E+04 -1.83075E+04 -5.72291E+03  6.75212E+03 -6.87605E+03  2.30572E+04  1.34593E+04
  7.24689E+03  3.74031E+04 -3.31547E+04  3.64141E+04 -6.50762E+04  2.41379E+03 -5.85423E+04 -4.43524E+04
 -1.26617E+04 -6.48704E+04  4.10000E+04 -4.68094E+04  6.01350E+04 -2.26178E+03  3.61930E+04  3.39573E+04
 -5.53713E+03  3.89900E+04 -3.10388E+04  1.82102E+04 -3.28322E+04 -3.77074E+03 -1.89284E+04 -1.15038E+04
 -9.05907E+03 -1.46750E+04 -1.03905E+03 -1.90609E+04  8.31642E+03 -2.35969E+04  1.57511E+04 -1.29977E+04
  1.04824E+04  6.02688E+03 -1.03531E+04  1.24926E+04 -2.30088E+04 -6.10358E+03 -8.94140E+03 -3.61286E+04
  2.50511E+04 -4.62850E+04  5.17104E+04 -2.08247E+04  4.82446E+04  2.06283E+04  1.72271E+04  4.64593E+04
 -1.70949E+04  3.53951E+04 -2.72640E+04  2.54446E+03 -1.12678E+04 -2.89415E+04  2.14087E+04 -3.62740E+04
  4.37225E+04 -1.05252E+04  3.97795E+04  2.46639E+04  2.08658E+04  5.04215E+04 -7.99966E+03  5.49212E+04
 -3.44911E+04  3.71731E+04 -4.63856E+04  1.07461E+04 -4.69764E+04 -1.80480E+04 -2.58284E+04 -4.13254E+04
  7.62388E+03 -4.11813E+04  3.35255E+04 -1.65725E+04  3.16749E+04  1.13148E+04  4.93691E+03  2.05158E+04
 -1.41400E+04  9.66142E+03 -1.12247E+04 -7.30448E+03  5.63290E+03 -1.15021E+04  1.88025E+04  5.71111E+03
  1.47203E+04  2.25900E+04 -5.14660E+03  2.67011E+04 -2.33086E+04  1.39090E+04 -3.01949E+04 -3.30196E+03
 -2.45238E+04 -1.80513E+04 -1.10882E+04 -2.43649E+04  4.30215E+03 -2.45578E+04  1.92002E+04 -2.23071E+04
  3.12665E+04 -1.38675E+04  3.73715E+04  4.54172E+03  2.63489E+04  2.26807E+04  4.31512E+03  3.98266E+04
 -1.94784E+04  3.29090E+04 -2.98762E+04  1.14095E+04 -2.26027E+04 -1.01779E+04 -4.53632E+03 -1.30820E+04
  8.61486E+02 -1.38835E+03 -7.11461E+03  7.84456E+03 -1.92614E+04  5.12583E+03 -1.93090E+04 -8.93249E+03
 -1.19465E+04 -2.25084E+04  6.18233E+03 -2.65347E+04  1.80491E+04 -1.91095E+04  2.15461E+04 -1.54788E+03
  1.39572E+04  1.59457E+04 -1.77028E+03  2.22046E+04 -1.63946E+04  1.30924E+04 -2.29933E+04 -4.59843E+03
 -1.65766E+04 -2.00614E+04 -1.63671E+03 -2.73457E+04  1.23093E+04 -2.26542E+04  2.23759E+04 -1.17338E+04
  2.13941E+04  2.42242E+02  1.56460E+04  4.81032E+03  8.41195E+03  1.29396E+03  1.21613E+04 -2.02798E+03
  2.12040E+04  2.94370E+03  2.44139E+04  1.78484E+04  1.64135E+04  3.64605E+04 -2.65821E+03  4.29068E+04
 -2.41574E+04  3.52077E+04 -3.99644E+04  1.84123E+04 -4.24854E+04 -3.01732E+03 -3.46621E+04 -2.51511E+04
 -1.38349E+04 -3.52298E+04  1.29307E+04 -3.12766E+04  2.63565E+04 -1.50143E+04  2.34914E+04  7.48321E+03
  8.01135E+03  1.78790E+04 -1.10029E+04  1.52359E+04 -1.95615E+04  2.47940E+03 -1.47364E+04 -1.22155E+04
 -7.35453E+02 -1.85953E+04  9.89414E+03 -1.38930E+04  1.28494E+04 -1.23288E+03  2.87708E+03  8.73089E+03
 -8.61010E+03  3.99481E+03 -8.44928E+03 -7.03108E+03 -1.82900E+03 -1.77220E+04  1.15408E+04 -1.88111E+04
  2.22365E+04 -1.06610E+04  2.46645E+04  3.01904E+03  2.16277E+04  1.79196E+04  9.80754E+03  2.75509E+04
 -4.62678E+03  2.98567E+04 -1.93857E+04  1.86422E+04 -2.18549E+04  4.08661E+03 -1.47861E+04 -5.17301E+03
 -6.21808E+03 -6.74122E+03 -4.50793E+02  5.12508E+02 -2.68588E+03  3.28520E+03 -7.14991E+03  5.49602E+03
 -1.30931E+04 -1.05580E+03 -1.40147E+04 -1.15507E+04 -5.63889E+03 -1.86183E+04  6.11225E+03 -1.53318E+04
  1.25114E+04 -6.01384E+03  8.95868E+03  4.17443E+03 -3.34198E+02  6.38853E+03 -7.40429E+03 -8.45745E+01
 -6.82228E+03 -9.91553E+03 -1.18234E+03 -1.47041E+04  8.31832E+03 -1.55734E+04  1.91282E+04 -8.17571E+03
  2.23106E+04  2.48570E+03  1.63019E+04  1.37495E+04  3.18127E+03  1.80830E+04 -9.17294E+03  1.44353E+04
 -1.20432E+04  4.56439E+03 -6.40165E+03 -3.08641E+03  1.90261E+03 -4.39232E+03  7.45848E+03 -9.78916E+02
  7.40885E+03  6.72708E+03  1.13807E+03  1.20857E+04 -8.55081E+03  1.15673E+04 -1.47402E+04  2.87475E+03
 -1.04314E+04 -7.99715E+03  2.40139E+02 -1.28746E+04  8.66488E+03 -6.78952E+03  8.79086E+03  3.24139E+03
  2.28147E+03  9.30172E+03 -8.04925E+03  1.12414E+04 -1.23839E+04  5.11202E+03 -1.30343E+04 -4.64092E+03
 -7.23769E+03 -1.52073E+04  3.61406E+03 -1.73130E+04  1.47882E+04 -1.06172E+04  1.58045E+04  2.96085E+03
  9.49370E+03  1.28093E+04 -1.35499E+03  1.50049E+04 -1.10426E+04  7.91280E+03 -1.25302E+04 -1.28560E+03
 -1.03124E+04 -9.86831E+03 -1.75225E+03 -1.16234E+04  6.06605E+03 -8.88940E+03  7.26124E+03 -3.54723E+03
  4.86259E+03  2.21313E+03 -9.69319E+02  2.03091E+03 -9.83705E+02 -3.06892E+03  2.12673E+03 -6.94212E+03
  1.09025E+04 -4.77058E+03  1.53237E+04  1.39815E+03  1.45399E+04  1.08540E+04  9.90878E+03  1.97966E+04
 -4.36200E+03  2.26741E+04 -1.84435E+04  1.64658E+04 -2.45136E+04  2.68662E+03 -1.93214E+04 -8.49580E+03
 -1.00144E+04 -1.59194E+04 -9.24237E+00 -1.33169E+04  5.01110E+03 -7.67376E+03  5.44443E+03 -4.93372E+03
  3.47046E+03 -3.16918E+03  3.74411E+03 -3.77369E+03  5.64287E+03 -3.32437E+03  7.70117E+03 -1.20363E+03
  1.03340E+04  2.50982E+03  5.64865E+03  8.85248E+03 -2.52093E+03  1.02981E+04 -1.09710E+04  8.23835E+03
 -1.38512E+04 -1.58302E+03 -8.77164E+03 -9.50405E+03 -1.25863E+03 -1.50437E+04  8.11091E+03 -1.46636E+04
  1.55249E+04 -8.61600E+03  1.82164E+04  2.38047E+03  1.28562E+04  1.24931E+04  2.17568E+03  1.65630E+04
 -6.99538E+03  1.37386E+04 -9.88994E+03  5.15209E+03 -7.21983E+03 -1.28689E+03 -2.91201E+03 -1.69155E+03
 -1.75623E+03  1.02759E+02 -2.27954E+03  2.86501E+03 -6.08010E+03  2.24010E+03 -9.68665E+03 -1.29428E+03
 -7.06154E+03 -9.56192E+03  3.51773E+01 -1.36567E+04  8.51522E+03 -1.27458E+04  1.41939E+04 -3.69920E+03
  1.35477E+04  6.70947E+03  6.58422E+03  1.22674E+04 -2.47569E+03  1.39760E+04 -1.00277E+04  8.38369E+03
 -1.31970E+04  4.19515E+02 -1.02253E+04 -8.44749E+03 -1.25267E+03 -1.17749E+04  6.02564E+03 -8.55635E+03
  8.81795E+03 -3.19701E+03  5.53464E+03  2.42695E+03  2.07285E+03  4.20016E+03  1.08452E+03  2.20861E+03
  2.41507E+03  1.17357E+03  2.95403E+03  1.85352E+03  4.45603E+03  5.13896E+03  3.35302E+03  7.30964E+03
 -2.88049E+03  1.12755E+04 -9.63621E+03  1.09552E+04 -1.43141E+04  2.96987E+03 -1.52153E+04 -5.72983E+03
 -7.10681E+03 -1.39195E+04  2.13353E+03 -1.53885E+04  8.75929E+03 -9.84545E+03  1.17633E+04 -2.48453E+03
  9.17700E+03  5.18038E+03  2.28713E+03  8.21262E+03 -3.92593E+03  5.67800E+03 -5.74149E+03 -9.00526E+02
 -2.61558E+03 -6.37884E+03  3.58617E+03 -6.25619E+03  5.97181E+03 -2.80243E+03  5.61879E+03  1.41131E+03
  3.35405E+03  2.54782E+03  9.74127E+02  2.34476E+03 -8.17998E+02  2.22126E+03  1.73241E+03 -2.14975E+02
  2.27468E+03 -7.92626E+02  5.18488E+03  2.51599E+03  3.22240E+03  7.86785E+03 -9.91252E+02  1.03021E+04
 -6.77146E+03  6.38095E+03 -9.14055E+03  1.90794E+03 -7.88484E+03 -3.78573E+03 -3.25638E+03 -5.98620E+03
  1.13040E+03 -5.81529E+03  3.96990E+03 -2.69580E+03  3.33901E+03  2.36779E+03 -1.47267E+03  5.06530E+03
 -5.93890E+03  2.83392E+03 -6.63830E+03 -3.12568E+03 -3.89659E+03 -8.05806E+03  1.12194E+03 -7.79462E+03
  4.93869E+03 -4.48421E+03  5.75471E+03 -5.31960E+02  4.97792E+03  2.15606E+03  3.98927E+02  4.48607E+03
 -2.64456E+03  1.52604E+03 -3.48416E+03 -2.89547E+03  1.31727E+03 -6.58524E+03  7.23670E+03 -4.73998E+03
  9.08083E+03  8.41246E+02  8.84075E+03  5.90635E+03  2.92040E+03  1.00814E+04 -3.62205E+03  8.67129E+03
 -7.48761E+03  4.16108E+03 -7.61797E+03 -1.52429E+03 -4.07098E+03 -6.48454E+03  1.44595E+03 -5.84612E+03
  5.70320E+03 -2.82188E+03  4.98895E+03  2.83663E+03  1.65642E+03  5.18369E+03 -1.12595E+03  4.67515E+03
 -2.53080E+03  3.02215E+03 -2.51158E+03  8.27828E+02 -9.66077E+02  7.28465E+02 -1.76203E+03  2.36356E+03
 -2.75923E+03  3.79817E+03 -6.24958E+03  3.34545E+03 -9.62995E+03  3.34476E+02 -1.06545E+04 -6.16576E+03
 -5.24853E+03 -1.27267E+04  2.13159E+03 -1.43841E+04  8.68360E+03 -1.14645E+04  1.34969E+04 -4.73905E+03
  1.27306E+04  2.54879E+03  7.50006E+03  8.62505E+03  4.28262E+02  9.78559E+03 -4.24527E+03  6.95028E+03
 -5.17399E+03  2.79534E+03 -3.46693E+03 -8.74902E+02 -1.00065E+03 -7.96207E+02 -9.13829E+02  1.99961E+01
 -1.47167E+03  2.29580E+02 -1.98702E+03 -2.89582E+02 -5.86573E+02 -2.44566E+03  2.88901E+02 -3.60984E+03
  4.26899E+03 -2.99766E+03  6.15256E+03  8.56161E+01  6.81274E+03  5.19055E+03  1.56838E+03  9.79003E+03
 -4.43295E+03  1.13606E+04 -1.03004E+04  6.15117E+03 -1.19546E+04 -1.16364E+03 -8.73560E+03 -7.60662E+03
 -3.93722E+03 -9.78157E+03  2.31032E+03 -9.18555E+03  6.35021E+03 -5.18441E+03  6.95118E+03  2.02161E+02
  3.64083E+03  3.41336E+03 -3.99330E+02  2.71678E+03 -1.73150E+03  3.28238E+02 -4.66918E+02 -1.91188E+03
  2.97422E+03 -1.07670E+03  3.66446E+03  1.13626E+03  2.77605E+03  4.09414E+03  1.95101E+02  4.73525E+03
 -3.99454E+03  4.96971E+03 -6.76050E+03  1.81425E+02 -5.35069E+03 -4.88990E+03 -8.20456E+02 -8.15729E+03
  4.46200E+03 -6.68318E+03  7.56542E+03 -2.40634E+03  7.56013E+03  1.90959E+03  4.36013E+03  5.91747E+03
  7.02440E+02  6.67441E+03 -2.72356E+03  5.18952E+03 -4.02437E+03  2.57449E+03 -3.65614E+03  3.58839E+02
 -1.98393E+03  3.85375E+01 -2.04513E+03  6.04702E+02 -3.81818E+03  1.44994E+03 -5.32340E+03 -1.10642E+03
 -4.91701E+03 -3.32326E+03 -1.52819E+03 -6.75220E+03  3.14572E+03 -6.80819E+03  5.88045E+03 -3.27845E+03
  6.62872E+03  9.92141E+02  3.53234E+03  4.85941E+03 -3.40099E+02  6.57548E+03 -5.18712E+03  4.27676E+03
