 $NMID ID='MM_0lb_SNR800_7hz_g55_15.RAW', FMTDAT='(8E13.5)'
 TRAMP=1., VOLUME=1. $END
  3.09729E+05  4.85181E+02  3.37677E+05  2.50408E+05  8.55250E+04  3.39003E+05 -1.32719E+05  2.52367E+05
 -1.91124E+05  8.43928E+04 -1.13664E+05 -3.17642E+04  8.44154E+01 -5.06278E+04  5.38970E+04 -9.06855E+02
  3.54107E+04  5.33462E+04 -1.68184E+04  7.62235E+04 -6.14655E+04  6.50508E+04 -8.61012E+04  3.30177E+04
 -8.32842E+04 -1.20212E+04 -5.82789E+04 -5.31347E+04 -1.54071E+04 -7.12827E+04  2.82696E+04 -4.75915E+04
  4.17062E+04  3.80233E+03  1.66068E+04  4.93798E+04 -3.53579E+04  4.89697E+04 -6.90494E+04  2.41550E+02
 -5.55898E+04 -5.84013E+04 -7.77855E+03 -7.99211E+04  3.55061E+04 -5.81656E+04  5.05626E+04 -1.87263E+04
  4.59466E+04  1.19434E+04  3.38173E+04  2.72516E+04  1.60342E+04  3.13548E+04 -5.89515E+03  2.83299E+04
 -2.28246E+04  1.17991E+04 -1.77008E+04 -6.63692E+03  7.82981E+03 -7.57676E+03  2.48681E+04  1.46834E+04
  6.62761E+03  3.86191E+04 -3.44245E+04  3.77873E+04 -6.72753E+04  1.78022E+03 -5.96180E+04 -4.53105E+04
 -1.23985E+04 -6.71256E+04  4.24258E+04 -4.82671E+04  6.26014E+04 -2.61410E+03  3.79679E+04  3.55663E+04
 -5.04118E+03  4.10094E+04 -3.24953E+04  1.95916E+04 -3.45305E+04 -3.23973E+03 -2.02895E+04 -1.23547E+04
 -9.75846E+03 -1.63548E+04 -9.10993E+02 -2.06142E+04  9.00836E+03 -2.39166E+04  1.59401E+04 -1.25598E+04
  1.01154E+04  6.86839E+03 -1.17842E+04  1.24656E+04 -2.44931E+04 -7.63460E+03 -8.65415E+03 -3.92785E+04
  2.61328E+04 -4.84492E+04  5.43956E+04 -2.14144E+04  5.06848E+04  2.15313E+04  1.84975E+04  4.86840E+04
 -1.73286E+04  3.73893E+04 -2.87460E+04  2.21341E+03 -1.29616E+04 -3.00368E+04  2.15544E+04 -3.85449E+04
  4.64009E+04 -1.20947E+04  4.30955E+04  2.58261E+04  2.34904E+04  5.36293E+04 -8.41065E+03  5.88614E+04
 -3.77705E+04  4.06535E+04 -5.00740E+04  1.17705E+04 -5.02472E+04 -1.93454E+04 -2.74488E+04 -4.45707E+04
  7.95999E+03 -4.45030E+04  3.55857E+04 -1.87224E+04  3.33365E+04  1.12977E+04  5.66756E+03  2.19023E+04
 -1.37422E+04  1.03601E+04 -1.17686E+04 -7.21810E+03  5.66173E+03 -1.16226E+04  1.90546E+04  4.86068E+03
  1.55362E+04  2.34257E+04 -4.84789E+03  2.82366E+04 -2.41911E+04  1.58113E+04 -3.35496E+04 -2.33949E+03
 -2.81217E+04 -1.89701E+04 -1.31528E+04 -2.69445E+04  4.71440E+03 -2.86097E+04  2.12260E+04 -2.56908E+04
  3.49132E+04 -1.51850E+04  4.06600E+04  6.15101E+03  2.87121E+04  2.68223E+04  4.32213E+03  4.36885E+04
 -2.08555E+04  3.61067E+04 -3.21195E+04  1.23701E+04 -2.30580E+04 -1.04613E+04 -4.90513E+03 -1.24234E+04
  5.58751E+02 -1.82632E+02 -9.30762E+03  9.13741E+03 -2.21575E+04  4.69767E+03 -2.17472E+04 -1.10534E+04
 -1.30071E+04 -2.53518E+04  6.00014E+03 -3.02626E+04  2.02654E+04 -2.15691E+04  2.49509E+04 -2.26306E+03
  1.66711E+04  1.78032E+04 -1.73799E+03  2.54796E+04 -1.83430E+04  1.49989E+04 -2.63623E+04 -5.34206E+03
 -1.85717E+04 -2.24959E+04 -2.42358E+03 -3.07605E+04  1.36856E+04 -2.57448E+04  2.51688E+04 -1.36613E+04
  2.41657E+04 -6.39650E+02  1.73302E+04  5.88791E+03  9.63326E+03  1.44126E+03  1.35602E+04 -2.49796E+03
  2.41533E+04  2.65695E+03  2.88449E+04  2.00039E+04  2.00827E+04  4.14590E+04 -2.35545E+03  4.90540E+04
 -2.83719E+04  4.17702E+04 -4.70148E+04  2.21806E+04 -5.07606E+04 -3.61603E+03 -4.06034E+04 -2.96498E+04
 -1.53062E+04 -4.24775E+04  1.51873E+04 -3.66628E+04  3.11869E+04 -1.69021E+04  2.70455E+04  8.87840E+03
  8.35720E+03  2.12192E+04 -1.33291E+04  1.70668E+04 -2.24215E+04  2.77755E+03 -1.66578E+04 -1.44411E+04
 -4.27362E+02 -2.15253E+04  1.21973E+04 -1.57926E+04  1.54237E+04 -1.35007E+03  3.97576E+03  9.97426E+03
 -9.53550E+03  4.70248E+03 -1.09882E+04 -8.19191E+03 -2.59916E+03 -2.11283E+04  1.32211E+04 -2.29920E+04
  2.63605E+04 -1.35060E+04  3.08118E+04  3.21829E+03  2.66991E+04  2.15401E+04  1.24546E+04  3.41838E+04
 -6.59965E+03  3.60041E+04 -2.39190E+04  2.20315E+04 -2.64612E+04  4.60382E+03 -1.77475E+04 -6.89095E+03
 -7.16422E+03 -8.77053E+03 -1.23113E+03  7.55195E+02 -3.20129E+03  4.27574E+03 -9.02474E+03  5.92050E+03
 -1.63624E+04 -1.30245E+03 -1.72628E+04 -1.30185E+04 -7.05254E+03 -2.21216E+04  7.32051E+03 -1.78624E+04
  1.44606E+04 -6.89138E+03  1.08497E+04  4.57240E+03 -6.72436E+02  7.70644E+03 -9.34607E+03 -3.63246E+02
 -9.54531E+03 -1.13343E+04 -1.05232E+03 -1.81819E+04  1.07178E+04 -1.90063E+04  2.32502E+04 -1.03194E+04
  2.78571E+04  2.69930E+03  2.04565E+04  1.70298E+04  3.70257E+03  2.24761E+04 -1.09807E+04  1.78325E+04
 -1.47327E+04  4.64675E+03 -7.90430E+03 -4.15371E+03  2.32447E+03 -5.05337E+03  9.22868E+03 -1.03307E+03
  8.51958E+03  8.40237E+03  1.33166E+03  1.47757E+04 -1.07402E+04  1.40143E+04 -1.78529E+04  2.81750E+03
 -1.27703E+04 -9.41399E+03 -5.08177E+02 -1.60178E+04  1.07095E+04 -8.13831E+03  1.15034E+04  3.84762E+03
  2.73415E+03  1.25293E+04 -9.97564E+03  1.41918E+04 -1.67313E+04  5.75421E+03 -1.72713E+04 -6.35101E+03
 -9.75261E+03 -1.88668E+04  4.82977E+03 -2.23094E+04  1.89424E+04 -1.25393E+04  2.09855E+04  3.83085E+03
  1.17552E+04  1.62775E+04 -2.07333E+03  1.91395E+04 -1.44517E+04  1.06770E+04 -1.57678E+04 -1.74068E+03
 -1.22161E+04 -1.25583E+04 -1.54600E+03 -1.53561E+04  7.56743E+03 -1.15913E+04  9.22872E+03 -4.30447E+03
  6.08048E+03  2.68654E+03 -1.31252E+03  2.11452E+03 -1.26186E+03 -4.98234E+03  3.48731E+03 -9.76291E+03
  1.43301E+04 -6.30053E+03  2.02294E+04  2.07759E+03  1.94180E+04  1.38337E+04  1.16789E+04  2.63874E+04
 -6.44665E+03  2.98705E+04 -2.47594E+04  2.17493E+04 -3.22736E+04  3.84947E+03 -2.54788E+04 -1.15254E+04
 -1.25392E+04 -2.13682E+04 -2.25651E+01 -1.80655E+04  6.18764E+03 -1.10283E+04  6.57508E+03 -6.43997E+03
  4.88741E+03 -3.72456E+03  5.00929E+03 -4.76205E+03  6.74681E+03 -4.36099E+03  1.00504E+04 -2.43090E+03
  1.32050E+04  3.55992E+03  7.54634E+03  1.18662E+04 -2.30406E+03  1.48913E+04 -1.39953E+04  1.06139E+04
 -1.89742E+04 -1.51209E+03 -1.24904E+04 -1.34124E+04 -2.28508E+03 -2.05703E+04  1.11670E+04 -1.99944E+04
  2.08255E+04 -1.06225E+04  2.47499E+04  3.21725E+03  1.65414E+04  1.80595E+04  2.51912E+03  2.25781E+04
 -9.84030E+03  1.81453E+04 -1.35658E+04  6.11147E+03 -9.35151E+03 -1.69699E+03 -4.28370E+03 -3.16866E+03
 -1.81443E+03 -1.63566E+02 -2.72137E+03  3.59648E+03 -7.41975E+03  2.97096E+03 -1.34236E+04 -2.28151E+03
 -9.35529E+03 -1.22510E+04 -6.14966E+02 -1.89667E+04  1.18265E+04 -1.78286E+04  1.98100E+04 -5.63961E+03
  1.93626E+04  9.34176E+03  9.15223E+03  1.72083E+04 -3.74494E+03  1.92693E+04 -1.44103E+04  1.22536E+04
 -1.81588E+04  4.97237E+02 -1.36045E+04 -1.19213E+04 -1.76123E+03 -1.61033E+04  8.60341E+03 -1.24029E+04
  1.20457E+04 -3.78774E+03  8.24648E+03  3.42331E+03  2.78244E+03  5.71218E+03  2.21125E+03  2.66975E+03
  3.55757E+03  1.19998E+03  4.35119E+03  2.26465E+03  6.00433E+03  6.70627E+03  4.81342E+03  1.06624E+04
 -3.63345E+03  1.57459E+04 -1.38685E+04  1.54469E+04 -2.10236E+04  3.88498E+03 -2.05426E+04 -9.43367E+03
 -1.00229E+04 -2.04188E+04  3.11903E+03 -2.23170E+04  1.23634E+04 -1.38316E+04  1.64178E+04 -3.46725E+03
  1.27220E+04  7.04415E+03  2.57240E+03  1.17194E+04 -5.59029E+03  7.07842E+03 -8.41282E+03 -7.50562E+02
 -3.97402E+03 -8.50074E+03  4.08632E+03 -9.33465E+03  8.76422E+03 -4.25171E+03  8.12218E+03  1.65008E+03
  5.03622E+03  4.58730E+03  1.81795E+03  3.75930E+03 -1.10448E+03  2.94214E+03  1.91666E+03 -4.52230E+02
  3.49552E+03 -1.65166E+03  8.18532E+03  3.48219E+03  5.08555E+03  1.09744E+04 -2.17429E+03  1.41936E+04
 -9.74371E+03  1.01851E+04 -1.35110E+04  2.53953E+03 -1.16134E+04 -5.03373E+03 -5.27238E+03 -8.74172E+03
  5.09533E+02 -8.40323E+03  5.34210E+03 -4.11575E+03  4.43176E+03  3.33760E+03 -1.62390E+03  6.74813E+03
 -8.69917E+03  4.06673E+03 -9.92173E+03 -4.55333E+03 -5.43750E+03 -1.13348E+04  1.79220E+03 -1.18693E+04
  6.94440E+03 -6.94719E+03  8.38268E+03 -1.17295E+03  6.71782E+03  3.21638E+03  7.29245E+02  6.38487E+03
 -4.11941E+03  1.99396E+03 -4.82639E+03 -4.50138E+03  2.30410E+03 -9.54158E+03  1.10212E+04 -7.46968E+03
  1.35145E+04  1.25234E+03  1.29616E+04  9.10651E+03  3.67102E+03  1.45764E+04 -5.10542E+03  1.28955E+04
 -1.17362E+04  5.70177E+03 -1.19948E+04 -1.86879E+03 -6.52878E+03 -9.38308E+03  2.30539E+03 -8.88274E+03
  8.46285E+03 -4.50811E+03  7.73342E+03  3.61706E+03  2.79937E+03  7.93225E+03 -1.50737E+03  6.59588E+03
 -3.61136E+03  4.53660E+03 -3.26698E+03  1.15279E+03 -1.46389E+03  1.36166E+03 -2.16798E+03  3.09176E+03
 -3.54627E+03  5.77095E+03 -9.49955E+03  4.85044E+03 -1.43165E+04 -4.06801E+01 -1.60446E+04 -9.80166E+03
 -8.24334E+03 -1.93798E+04  3.90447E+03 -2.20883E+04  1.44574E+04 -1.71373E+04  2.10113E+04 -6.36829E+03
  1.97612E+04  4.06051E+03  1.18962E+04  1.38485E+04  1.39823E+03  1.56710E+04 -5.99856E+03  1.11275E+04
 -8.26971E+03  3.82588E+03 -5.45005E+03 -1.57254E+03 -1.97456E+03 -1.24026E+03 -8.06936E+02 -1.64294E+02
 -2.14160E+03  4.77712E+02 -3.02386E+03 -3.84364E+02 -1.21647E+03 -3.80099E+03  7.40362E+02 -5.84534E+03
  6.09657E+03 -4.78459E+03  9.61573E+03 -9.06449E+01  1.08272E+04  8.47091E+03  3.59261E+03  1.55441E+04
 -7.47887E+03  1.70942E+04 -1.64870E+04  1.02795E+04 -1.90230E+04 -1.26389E+03 -1.43442E+04 -1.16896E+04
 -5.86574E+03 -1.66448E+04  4.00244E+03 -1.41141E+04  1.05798E+04 -8.41780E+03  1.01813E+04  8.59744E+02
  5.42236E+03  4.93963E+03  6.85454E+01  4.62193E+03 -3.07991E+03  1.04412E+02 -3.30058E+02 -3.28337E+03
  4.77886E+03 -2.14891E+03  6.40461E+03  1.61570E+03  4.43007E+03  6.44661E+03 -1.81009E+01  8.46657E+03
 -6.78610E+03  7.27188E+03 -1.10813E+04  6.75393E+02 -9.87251E+03 -7.57946E+03 -1.61571E+03 -1.36620E+04
  6.91247E+03 -1.16565E+04  1.29450E+04 -3.82083E+03  1.26695E+04  3.58350E+03  7.07578E+03  9.47447E+03
  1.69154E+03  1.09581E+04 -4.32760E+03  8.12689E+03 -6.45616E+03  4.23224E+03 -5.86728E+03  9.25813E+02
 -3.10049E+03 -2.96008E+02 -2.85887E+03  1.66124E+03 -5.47302E+03  1.80665E+03 -8.23622E+03 -1.65201E+03
 -8.02969E+03 -5.67960E+03 -2.17446E+03 -1.05882E+04  5.08975E+03 -1.09040E+04  9.72934E+03 -5.25650E+03
  1.11839E+04  1.60199E+03  6.39222E+03  8.16409E+03 -4.62765E+02  1.10705E+04 -8.59469E+03  7.27627E+03
