 $NMID ID='MM_0lb_SNR800_17hz_g40_58.RAW', FMTDAT='(8E13.5)'
 TRAMP=1., VOLUME=1. $END
  3.09712E+05  3.63225E+02  3.37247E+05  2.50387E+05  8.43307E+04  3.37306E+05 -1.32668E+05  2.50284E+05
 -1.89751E+05  8.25093E+04 -1.10778E+05 -3.27938E+04  1.40808E+03 -5.02819E+04  5.41281E+04  8.38411E+01
  3.53099E+04  5.28630E+04 -1.65360E+04  7.48823E+04 -6.02903E+04  6.27656E+04 -8.30124E+04  3.15724E+04
 -7.98299E+04 -1.12399E+04 -5.62422E+04 -5.04431E+04 -1.46748E+04 -6.81941E+04  2.69009E+04 -4.47528E+04
  3.92017E+04  4.06905E+03  1.56208E+04  4.69164E+04 -3.40674E+04  4.62738E+04 -6.56122E+04 -4.05672E+02
 -5.24518E+04 -5.61476E+04 -6.45477E+03 -7.55368E+04  3.33302E+04 -5.33691E+04  4.62210E+04 -1.61332E+04
  4.15914E+04  1.11632E+04  3.08330E+04  2.44615E+04  1.58560E+04  2.83767E+04 -4.75226E+03  2.67444E+04
 -2.15292E+04  1.24920E+04 -1.90920E+04 -4.04010E+03  4.45717E+03 -7.57497E+03  2.13116E+04  1.10422E+04
  7.58472E+03  3.33863E+04 -3.08410E+04  3.39623E+04 -6.13816E+04  2.08536E+03 -5.53400E+04 -4.13571E+04
 -1.23680E+04 -6.10209E+04  3.82924E+04 -4.33207E+04  5.60506E+04 -1.86868E+03  3.19396E+04  3.07745E+04
 -6.28797E+03  3.34581E+04 -2.84829E+04  1.37427E+04 -2.76613E+04 -5.50874E+03 -1.45622E+04 -1.00726E+04
 -7.51557E+03 -1.15430E+04 -9.98537E+02 -1.67447E+04  6.66462E+03 -2.26526E+04  1.53082E+04 -1.37100E+04
  1.23616E+04  4.49508E+03 -6.39754E+03  1.30599E+04 -1.96345E+04 -2.50648E+03 -8.36431E+03 -3.05614E+04
  2.07248E+04 -4.08245E+04  4.51678E+04 -1.87180E+04  4.20611E+04  1.84297E+04  1.43179E+04  4.17463E+04
 -1.52835E+04  3.13751E+04 -2.34083E+04  1.31365E+03 -8.57279E+03 -2.66380E+04  2.07930E+04 -3.16924E+04
  3.81352E+04 -7.48630E+03  3.18122E+04  2.27972E+04  1.58171E+04  4.34115E+04 -7.75436E+03  4.59123E+04
 -2.86944E+04  3.03764E+04 -3.79244E+04  8.53746E+03 -3.87774E+04 -1.52004E+04 -2.14628E+04 -3.50630E+04
  6.65465E+03 -3.44244E+04  2.95502E+04 -1.27685E+04  2.71416E+04  1.07720E+04  2.99209E+03  1.78515E+04
 -1.29847E+04  7.58265E+03 -9.78390E+03 -7.79080E+03  5.84287E+03 -1.04602E+04  1.71475E+04  6.57496E+03
  1.25375E+04  2.16363E+04 -6.62041E+03  2.36748E+04 -2.17651E+04  8.97226E+03 -2.53814E+04 -6.17140E+03
 -1.73355E+04 -1.66224E+04 -6.04620E+03 -1.73108E+04  3.49556E+03 -1.52960E+04  1.27699E+04 -1.47169E+04
  2.18540E+04 -1.17022E+04  2.87190E+04  1.42773E+03  2.15242E+04  1.69660E+04  4.45635E+03  3.28485E+04
 -1.60131E+04  2.81944E+04 -2.60808E+04  9.14852E+03 -1.98106E+04 -1.02465E+04 -4.31557E+03 -1.40387E+04
  2.33731E+03 -4.23515E+03 -2.84801E+03  5.53974E+03 -1.35480E+04  5.16350E+03 -1.33736E+04 -5.24095E+03
 -8.80084E+03 -1.58611E+04  4.21621E+03 -2.00058E+04  1.30388E+04 -1.46263E+04  1.50252E+04 -1.50706E+03
  9.42067E+03  1.12084E+04 -7.98930E+02  1.59761E+04 -1.06179E+04  9.08267E+03 -1.57465E+04 -3.66932E+03
 -1.21203E+04 -1.45849E+04 -1.71511E+03 -1.93123E+04  8.99282E+03 -1.59367E+04  1.65159E+04 -7.29901E+03
  1.51873E+04  5.43040E+02  1.11109E+04  3.89523E+03  5.26623E+03  5.32272E+02  7.84737E+03 -1.49451E+03
  1.44659E+04  2.88861E+03  1.52017E+04  1.28403E+04  9.54488E+03  2.55117E+04 -2.97205E+03  2.77380E+04
 -1.64566E+04  2.15249E+04 -2.56297E+04  1.03400E+04 -2.64911E+04 -1.84951E+03 -2.23393E+04 -1.48538E+04
 -1.02260E+04 -2.14481E+04  7.07050E+03 -1.98005E+04  1.74245E+04 -1.14096E+04  1.62461E+04  3.96135E+03
  6.41843E+03  1.16127E+04 -7.29421E+03  1.11094E+04 -1.37515E+04  2.59962E+03 -1.07462E+04 -8.14585E+03
 -2.18325E+02 -1.29092E+04  6.56585E+03 -9.63361E+03  8.11972E+03 -1.39396E+03  1.77865E+03  4.94275E+03
 -5.83712E+03  1.31516E+03 -3.83363E+03 -4.55876E+03  3.95635E+02 -1.05817E+04  8.21488E+03 -1.08261E+04
  1.29785E+04 -5.29275E+03  1.28846E+04  2.84575E+03  1.13124E+04  1.01669E+04  5.04066E+03  1.51839E+04
 -1.97387E+03  1.68482E+04 -1.04018E+04  1.08887E+04 -1.24575E+04  3.03543E+03 -8.82425E+03 -2.24245E+03
 -4.64173E+03 -3.48356E+03 -4.79955E+02  1.28966E+03 -1.93590E+03  1.74866E+03 -3.71053E+03  3.43879E+03
 -8.21101E+03 -5.77293E+02 -8.90275E+03 -7.41563E+03 -3.70722E+03 -1.19482E+04  3.93523E+03 -9.08496E+03
  7.64002E+03 -4.12418E+03  5.71409E+03  2.18091E+03  5.65492E+02  3.19812E+03 -3.65051E+03 -3.25981E+02
 -3.78995E+03 -5.61547E+03 -1.00369E+03 -7.99404E+03  4.35948E+03 -8.89227E+03  1.05266E+04 -4.35312E+03
  1.24318E+04  5.70430E+02  9.23644E+03  6.75037E+03  1.90942E+03  9.34579E+03 -5.66276E+03  8.74877E+03
 -7.37027E+03  2.95259E+03 -3.90952E+03 -1.33855E+03  1.46375E+03 -1.91408E+03  5.12265E+03 -1.09991E+03
  4.37749E+03  3.60410E+03  9.13738E+02  6.70432E+03 -4.62013E+03  6.61535E+03 -8.54162E+03  1.53112E+03
 -5.26284E+03 -3.64787E+03 -2.26015E+01 -7.23072E+03  4.21897E+03 -3.62243E+03  3.83500E+03  1.14506E+03
  6.72451E+02  3.90166E+03 -4.51117E+03  5.16280E+03 -5.75811E+03  2.60129E+03 -5.46139E+03 -1.28541E+03
 -2.92865E+03 -6.47056E+03  1.25924E+03 -7.87186E+03  6.70539E+03 -5.22329E+03  7.29989E+03  1.19975E+03
  5.12949E+03  5.92321E+03 -1.07921E+01  7.88068E+03 -5.52344E+03  4.51451E+03 -5.50007E+03 -3.40746E+02
 -5.95014E+03 -5.49025E+03 -1.17637E+03 -5.46604E+03  2.79953E+03 -5.14862E+03  3.37555E+03 -3.19796E+03
  2.87391E+03  3.90174E+02  1.23391E+02  1.44368E+03  3.96495E+02 -5.00744E+02  4.02170E+02 -2.13270E+03
  4.33007E+03 -1.04302E+03  5.96648E+03  8.77683E+02  6.45555E+03  3.66006E+03  5.40342E+03  8.09290E+03
 -1.56701E+03  9.72589E+03 -8.58652E+03  7.34512E+03 -1.09526E+04  1.32418E+03 -8.69261E+03 -3.10897E+03
 -4.53659E+03 -7.36709E+03 -3.62159E+02 -5.77641E+03  2.43511E+03 -2.74679E+03  2.21761E+03 -2.37471E+03
  1.39557E+03 -1.59472E+03  2.51316E+03 -2.50568E+03  3.55478E+03 -1.88291E+03  3.94273E+03  1.87079E+02
  5.17761E+03  1.21945E+03  1.38960E+03  3.73519E+03 -1.58144E+03  3.41900E+03 -4.98549E+03  3.30956E+03
 -5.45724E+03 -1.08220E+03 -2.43976E+03 -4.01870E+03  2.09741E+02 -5.75286E+03  3.41945E+03 -5.96617E+03
  5.89113E+03 -3.73438E+03  7.32821E+03  4.81103E+02  5.55067E+03  4.82125E+03  1.03894E+03  6.83330E+03
 -2.71544E+03  6.77764E+03 -4.05168E+03  1.98757E+03 -2.23156E+03 -1.02986E+03 -6.25661E+02 -7.58439E+02
 -3.48958E+02  4.22837E+02 -9.97603E+02  2.17259E+03 -2.56245E+03  1.58646E+03 -4.12055E+03 -3.02802E+02
 -1.81567E+03 -4.61971E+03  9.43124E+02 -5.53635E+03  3.05536E+03 -5.03921E+03  4.40163E+03 -1.23503E+03
  4.75785E+03  2.59974E+03  2.39803E+03  4.13872E+03 -9.17336E+02  5.16505E+03 -3.46818E+03  3.37506E+03
 -4.60524E+03  6.91468E+02 -4.04296E+03 -2.88755E+03 -2.47224E+02 -3.85229E+03  1.95209E+03 -3.02978E+03
  2.94621E+03 -1.38054E+03  2.04161E+03  2.59033E+02  3.81099E+02  1.97942E+03  7.49139E+02  7.52909E+02
  1.72789E+03  7.24646E+02  1.07656E+03  1.15977E+03  1.68256E+03  2.27326E+03  1.56587E+03  2.35361E+03
 -1.22834E+03  3.57873E+03 -3.05896E+03  4.73492E+03 -4.07857E+03  1.46729E+03 -5.02299E+03 -9.58670E+02
 -2.31885E+03 -4.32111E+03  7.96996E+02 -5.53615E+03  2.35380E+03 -3.00730E+03  3.52938E+03 -1.26641E+03
  3.09505E+03  1.95381E+03  6.06048E+02  2.83070E+03 -1.06761E+03  1.48347E+03 -1.63168E+03 -1.58473E+01
 -6.44079E+02 -1.73692E+03  1.48625E+03 -1.83486E+03  1.43994E+03 -1.23253E+03  1.68740E+03  4.69003E+02
  8.02840E+02  6.16933E+02  8.30283E+02  3.34679E+02 -2.39534E+02  8.84022E+02  1.66083E+03 -3.30958E+02
  1.66467E+02 -3.82494E+02  1.99874E+03  8.00108E+02  4.71006E+02  2.72641E+03 -6.66782E+02  3.47820E+03
 -2.03414E+03  1.81020E+03 -2.43406E+03  4.47964E+02 -2.40236E+03 -8.31929E+02 -4.40658E+02 -1.44754E+03
  4.01889E+02 -1.44295E+03  1.07371E+03 -5.25906E+02  8.22005E+02  1.17722E+03 -6.93128E+02  1.65986E+03
 -1.85723E+03  1.05762E+03 -1.67955E+03 -1.38018E+03 -8.66217E+02 -2.57445E+03  2.71591E+02 -2.27806E+03
  6.08089E+02 -7.66472E+02  1.24810E+03  3.30889E+02  1.50697E+03  2.63691E+02  2.49514E+02  1.39136E+03
 -4.36825E+02  8.01190E+01 -1.08412E+03 -5.34139E+01  5.94011E+02 -9.13583E+02  2.36444E+03 -1.11377E+03
  1.95844E+03  1.84643E+02  3.22561E+03  1.23307E+03  1.25148E+03  2.35719E+03 -6.03752E+02  2.28912E+03
 -1.73853E+03  4.19239E+02 -2.03738E+03 -1.19542E+02 -1.23498E+03 -1.72539E+03  2.21073E+02 -1.13564E+03
  1.91432E+03 -6.49749E+02  1.19809E+03  8.40759E+02  3.39991E+02  1.42954E+03  3.24276E+02  1.32204E+03
 -4.95628E+02  1.38415E+03 -5.04852E+02  3.61350E+02 -1.88632E+02  4.29879E+02 -1.01531E+03  9.97534E+02
 -7.72941E+02  1.22292E+03 -2.38419E+03  7.69544E+02 -2.26507E+03  4.56827E+02 -3.02600E+03 -1.48866E+03
 -1.26960E+03 -2.93396E+03  4.81767E+02 -3.84212E+03  1.57241E+03 -3.25926E+03  3.53044E+03 -1.30649E+03
  3.05521E+03  5.35495E+00  1.69284E+03  2.12939E+03 -2.43826E+02  1.88228E+03 -9.50537E+02  1.72608E+03
 -1.32422E+03  1.24002E+03 -7.77080E+02 -2.48787E+02 -7.49494E+02  2.00251E+02 -3.98124E+02 -5.68023E+00
 -1.20712E+03 -2.15654E+02 -1.32296E+03  2.67497E+01  1.36664E+02 -7.14940E+02 -5.19075E+02 -1.08099E+03
  1.60645E+03 -7.00536E+02  6.30868E+02  4.35515E+02  1.62591E+03  1.35396E+03 -4.10862E+02  2.02635E+03
 -1.10464E+03  2.99615E+03 -2.22182E+03  1.80989E+03 -2.50336E+03 -5.43010E+01 -1.59471E+03 -1.65737E+03
 -1.03607E+03 -1.71408E+03  5.28780E+02 -1.82525E+03  1.22784E+03 -6.71616E+02  1.45255E+03  2.03061E+01
  7.64035E+02  7.00981E+02 -1.50376E+02  6.97125E+02 -4.61135E+02 -3.22529E+02 -1.15449E+02 -7.56084E+02
  5.50708E+02  8.10628E+01  4.17181E+02  1.92792E+02  3.81577E+02  7.03567E+02  4.61932E+02  5.62805E+02
 -7.34652E+02  9.92590E+02 -1.19299E+03  2.00029E+02 -1.24425E+03 -1.01883E+03 -2.89852E+02 -2.05022E+03
  8.33099E+02 -1.13087E+03  9.48640E+02 -2.54559E+02  1.09657E+03 -3.13601E+02  6.35662E+02  1.25547E+03
  4.47683E+02  9.49088E+02 -1.01464E+02  5.95671E+02 -8.99293E+02  6.63985E+02 -4.88093E+02 -1.64598E+02
 -3.15638E+02 -8.26128E-01 -6.74072E+02  4.70698E+01 -9.82909E+02  3.50076E+02 -9.08724E+02 -1.68296E+02
 -1.29774E+03 -3.94723E+02 -5.87640E+02 -1.19838E+03  5.89445E+02 -1.84936E+03  1.09425E+03 -4.15854E+02
  9.89730E+02 -2.30846E+00  1.91498E+02  5.03675E+02 -1.11510E+02  9.19289E+02 -6.95897E+02  8.45153E+02
