 $NMID ID='MM_0lb_SNR800_19hz_g40_50.RAW', FMTDAT='(8E13.5)'
 TRAMP=1., VOLUME=1. $END
  3.09894E+05  1.11941E+02  3.37510E+05  2.50219E+05  8.41060E+04  3.37234E+05 -1.32288E+05  2.50083E+05
 -1.89396E+05  8.21480E+04 -1.10392E+05 -3.27513E+04  1.73616E+03 -5.01027E+04  5.41067E+04  2.04463E+02
  3.49005E+04  5.27941E+04 -1.71488E+04  7.46306E+04 -6.00887E+04  6.25824E+04 -8.23400E+04  3.15300E+04
 -7.94712E+04 -1.09993E+04 -5.60606E+04 -4.96639E+04 -1.46968E+04 -6.78292E+04  2.65870E+04 -4.43522E+04
  3.84202E+04  3.73569E+03  1.52240E+04  4.65439E+04 -3.39787E+04  4.56387E+04 -6.49261E+04 -7.14479E+02
 -5.16738E+04 -5.58817E+04 -6.01915E+03 -7.45253E+04  3.30087E+04 -5.25121E+04  4.58545E+04 -1.58649E+04
  4.09960E+04  1.09093E+04  3.01346E+04  2.38613E+04  1.57223E+04  2.77054E+04 -4.45544E+03  2.65961E+04
 -2.12314E+04  1.28505E+04 -1.94580E+04 -3.95143E+03  3.91566E+03 -7.69931E+03  2.07737E+04  1.06266E+04
  7.42367E+03  3.27411E+04 -2.98031E+04  3.39190E+04 -6.02010E+04  2.06750E+03 -5.47110E+04 -4.07245E+04
 -1.22895E+04 -5.99573E+04  3.76053E+04 -4.27435E+04  5.44795E+04 -1.90027E+03  3.10719E+04  3.02413E+04
 -6.43766E+03  3.20818E+04 -2.79403E+04  1.25105E+04 -2.71113E+04 -5.61387E+03 -1.38031E+04 -9.79356E+03
 -7.09954E+03 -1.07878E+04 -1.08742E+03 -1.60417E+04  6.24646E+03 -2.24610E+04  1.48072E+04 -1.41456E+04
  1.25044E+04  3.87750E+03 -5.95852E+03  1.31497E+04 -1.88326E+04 -1.78136E+03 -7.88319E+03 -2.93347E+04
  1.98592E+04 -3.97797E+04  4.38324E+04 -1.81315E+04  4.09514E+04  1.78065E+04  1.40060E+04  4.09485E+04
 -1.51438E+04  3.05056E+04 -2.28319E+04  9.51488E+02 -7.95753E+03 -2.60449E+04  2.04292E+04 -3.02602E+04
  3.71453E+04 -6.99021E+03  3.05093E+04  2.21483E+04  1.46415E+04  4.09685E+04 -7.97937E+03  4.36633E+04
 -2.76556E+04  2.87909E+04 -3.60650E+04  8.06922E+03 -3.68979E+04 -1.45819E+04 -2.04790E+04 -3.34284E+04
  6.72107E+03 -3.28562E+04  2.84596E+04 -1.20288E+04  2.60809E+04  1.05157E+04  2.41056E+03  1.72277E+04
 -1.29931E+04  7.08839E+03 -9.49740E+03 -7.71444E+03  5.70739E+03 -9.91825E+03  1.69072E+04  6.41538E+03
  1.20167E+04  2.12574E+04 -6.82498E+03  2.28582E+04 -2.11840E+04  8.40284E+03 -2.43657E+04 -6.56464E+03
 -1.57078E+04 -1.60916E+04 -4.86172E+03 -1.58155E+04  3.71639E+03 -1.32082E+04  1.16093E+04 -1.35043E+04
  1.99446E+04 -1.12829E+04  2.71436E+04  7.52740E+02  2.07989E+04  1.55114E+04  3.96082E+03  3.16371E+04
 -1.55670E+04  2.66592E+04 -2.54358E+04  9.11032E+03 -1.92316E+04 -1.02640E+04 -3.75213E+03 -1.42043E+04
  2.97699E+03 -4.30084E+03 -1.82153E+03  4.93975E+03 -1.20744E+04  5.33258E+03 -1.26508E+04 -4.51935E+03
 -8.27789E+03 -1.44649E+04  4.52607E+03 -1.84917E+04  1.20102E+04 -1.33987E+04  1.38061E+04 -1.44900E+03
  8.20650E+03  1.00341E+04 -7.27180E+02  1.49058E+04 -9.88826E+03  8.40129E+03 -1.46023E+04 -3.19375E+03
 -1.11464E+04 -1.35571E+04 -1.29949E+03 -1.81011E+04  8.05641E+03 -1.45601E+04  1.53244E+04 -6.87391E+03
  1.39523E+04  9.33453E+02  9.78530E+03  3.62712E+03  4.93851E+03  1.92476E+00  6.90633E+03 -1.20851E+03
  1.30296E+04  2.71442E+03  1.38485E+04  1.19865E+04  8.55009E+03  2.36276E+04 -3.17114E+03  2.48960E+04
 -1.46159E+04  1.87616E+04 -2.25477E+04  8.88561E+03 -2.29715E+04 -1.48756E+03 -1.99469E+04 -1.30192E+04
 -9.79150E+03 -1.87239E+04  6.38750E+03 -1.80161E+04  1.54722E+04 -1.03644E+04  1.47199E+04  3.27061E+03
  6.36204E+03  1.04371E+04 -6.91585E+03  1.00242E+04 -1.26316E+04  2.64106E+03 -9.97594E+03 -7.61775E+03
  5.33009E+01 -1.15926E+04  5.73716E+03 -8.83811E+03  7.20791E+03 -1.43288E+03  1.38430E+03  4.41831E+03
 -5.29597E+03  9.03146E+02 -3.14220E+03 -4.56012E+03  7.44156E+02 -9.38862E+03  7.15306E+03 -8.98064E+03
  1.13725E+04 -4.11351E+03  1.07992E+04  2.67368E+03  9.37274E+03  8.95437E+03  4.44003E+03  1.29217E+04
 -1.40965E+03  1.45968E+04 -8.79656E+03  9.33062E+03 -1.02463E+04  2.77815E+03 -7.75773E+03 -1.83669E+03
 -4.25899E+03 -2.81756E+03 -1.16660E+03  1.59266E+03 -1.87653E+03  1.87394E+03 -3.05167E+03  3.45393E+03
 -7.48137E+03 -4.45736E+02 -8.64521E+03 -6.71194E+03 -3.32901E+03 -1.10882E+04  3.32663E+03 -7.89008E+03
  6.73759E+03 -3.45090E+03  4.84718E+03  1.93089E+03  5.90999E+02  2.66127E+03 -3.34975E+03 -1.62253E+02
 -3.13440E+03 -4.74079E+03 -7.80566E+02 -6.72601E+03  3.56559E+03 -7.35532E+03  9.39217E+03 -3.64254E+03
  1.07594E+04  6.63066E+02  8.03307E+03  5.26313E+03  1.68958E+03  7.54790E+03 -4.82780E+03  7.93421E+03
 -6.44749E+03  2.81840E+03 -3.38853E+03 -8.69693E+02  1.22961E+03 -1.89325E+03  4.31309E+03 -1.02807E+03
  3.84453E+03  2.92944E+03  1.21328E+03  5.80949E+03 -4.12653E+03  5.93439E+03 -7.34517E+03  1.90724E+03
 -4.44486E+03 -3.58312E+03  5.28178E+02 -6.06194E+03  3.48451E+03 -3.05847E+03  3.16023E+03  9.05500E+02
  3.61094E+02  2.86183E+03 -3.82707E+03  4.06369E+03 -4.53740E+03  2.05215E+03 -3.91545E+03 -7.45450E+02
 -2.51967E+03 -5.28146E+03  1.06062E+03 -6.29696E+03  5.23992E+03 -4.29193E+03  5.63027E+03  6.45948E+02
  4.46114E+03  4.74624E+03  1.87022E+02  6.64037E+03 -4.80156E+03  4.00764E+03 -4.77282E+03 -4.35535E+02
 -5.48965E+03 -4.85378E+03 -1.25952E+03 -4.62883E+03  2.38508E+03 -4.30156E+03  2.60929E+03 -2.90440E+03
  2.61256E+03  5.40610E-02  1.00723E+02  1.18155E+03  5.79037E+02 -2.78863E+02  8.77350E+01 -1.42585E+03
  3.42943E+03 -4.99645E+02  4.57371E+03  6.36005E+02  4.99060E+03  2.57638E+03  5.14010E+03  6.50067E+03
 -1.05446E+03  7.58804E+03 -6.87194E+03  5.93802E+03 -9.05676E+03  1.10846E+03 -7.18858E+03 -2.37001E+03
 -3.75563E+03 -6.06252E+03 -1.41888E+02 -4.59510E+03  2.06779E+03 -1.81295E+03  1.38318E+03 -2.07508E+03
  1.05178E+03 -1.44663E+03  2.17233E+03 -2.06839E+03  3.11159E+03 -1.17620E+03  3.33707E+03  6.86417E+02
  4.14772E+03  1.33711E+03  1.05656E+03  3.17076E+03 -1.47072E+03  2.34908E+03 -4.04721E+03  2.12802E+03
 -4.75946E+03 -1.08844E+03 -1.38385E+03 -3.19020E+03  5.15636E+02 -4.56908E+03  2.89461E+03 -4.92569E+03
  4.40096E+03 -2.69014E+03  6.36315E+03  3.73786E+02  4.41129E+03  3.78882E+03  1.20675E+03  5.59965E+03
 -1.76479E+03  5.58147E+03 -3.04250E+03  1.99354E+03 -1.85431E+03 -9.79712E+02 -3.98576E+02 -5.64385E+02
 -1.73769E+02  3.13737E+02 -9.46867E+02  2.30445E+03 -2.28250E+03  8.35427E+02 -3.88221E+03 -2.72002E+02
 -1.21998E+03 -3.80430E+03  7.51445E+02 -4.36725E+03  2.35595E+03 -4.03084E+03  2.98432E+03 -1.00133E+03
  3.58957E+03  2.19338E+03  1.37908E+03  2.93953E+03 -6.48400E+02  3.82465E+03 -2.07493E+03  2.48653E+03
 -3.20813E+03  6.75814E+02 -3.02186E+03 -2.14193E+03 -3.07150E+02 -3.02128E+03  1.75723E+03 -2.35766E+03
  2.49390E+03 -1.26201E+03  1.42928E+03  2.65486E+02  4.64003E+02  1.62682E+03  9.29142E+02  2.86638E+02
  1.67124E+03  5.61499E+02  1.15476E+03  9.07499E+02  9.60583E+02  2.14559E+03  1.35125E+03  1.46889E+03
 -1.21470E+03  2.42521E+03 -2.16914E+03  3.81027E+03 -2.54418E+03  1.14434E+03 -3.42469E+03 -3.75584E+01
 -1.52228E+03 -3.05958E+03  3.67279E+02 -4.23908E+03  1.84789E+03 -2.08691E+03  2.57542E+03 -8.86665E+02
  2.39211E+03  1.68024E+03  5.48181E+02  2.16265E+03 -6.46508E+02  1.17292E+03 -9.73751E+02 -1.70574E+02
 -5.42545E+02 -1.18612E+03  9.25957E+02 -1.51665E+03  1.15965E+03 -8.12752E+02  1.34452E+03  5.56962E+02
  6.34344E+02 -1.10291E+02  5.15534E+02 -1.70876E+02 -4.87935E+02  7.88936E+02  1.59817E+03 -4.16591E+02
 -2.58022E+02  1.59648E+02  1.91209E+03  5.46697E+02  3.16368E+02  2.16098E+03 -1.65336E+02  2.49081E+03
 -1.33196E+03  8.64686E+02 -1.66808E+03  1.70764E+02 -2.08236E+03 -7.24639E+02 -3.51953E+01 -9.49590E+02
  3.21349E+02 -8.83880E+02  1.00159E+03 -7.18195E+02  5.82436E+02  1.26965E+03 -8.17340E+02  1.06499E+03
 -1.39024E+03  7.49594E+02 -1.10297E+03 -1.30779E+03 -5.14989E+02 -2.00207E+03  4.28033E+01 -1.53521E+03
  1.30185E+02 -2.88449E+02  6.59839E+02  5.58021E+01  1.21783E+03 -1.65252E+02  6.60708E+02  8.91574E+02
 -4.55788E+02  3.10402E+02 -1.03903E+03 -1.72998E+02  6.95920E+02 -7.19144E+02  1.58565E+03 -9.44921E+02
  1.13236E+03  2.86627E+01  2.58368E+03  4.38001E+02  1.08009E+03  1.57399E+03 -2.95495E+02  1.81958E+03
 -1.14520E+03  2.02368E+02 -1.11481E+03 -1.88618E+02 -1.01697E+03 -1.20952E+03  2.59583E+02 -5.15260E+02
  1.35484E+03 -8.03901E+02  5.94149E+02  5.96552E+02  7.00575E+01  1.15703E+03  2.86441E+02  1.00481E+03
 -4.12982E+02  1.19380E+03 -3.17675E+02 -2.37652E+01  9.35605E+01  1.24631E+02 -7.57104E+02  5.94777E+02
 -3.53350E+02  1.25484E+03 -1.60268E+03  6.85549E+02 -1.38376E+03 -3.66727E+01 -2.28967E+03 -1.05410E+03
 -1.19302E+03 -2.37641E+03  5.72654E+02 -2.42846E+03  1.01091E+03 -2.15659E+03  2.71851E+03 -7.15159E+02
  2.09173E+03 -2.59166E+02  8.49951E+02  1.43554E+03 -5.79219E+02  1.39142E+03 -7.57925E+02  9.91861E+02
 -7.64783E+02  6.50847E+02 -6.05125E+02 -5.95814E+01 -5.74820E+02  2.10351E+02 -7.84228E+02 -1.01499E+02
 -9.98712E+02 -3.20240E+02 -7.18924E+02  1.65006E+02  1.55960E+02 -6.32818E+02 -2.61983E+02 -7.27021E+02
  9.89526E+02 -7.64915E+02  3.41553E+02  2.51721E+02  1.14794E+03  7.41127E+02 -4.14211E+02  1.36320E+03
 -7.90059E+02  2.11584E+03 -1.52456E+03  1.24611E+03 -1.41942E+03 -2.03503E+02 -7.09913E+02 -1.13111E+03
 -1.17412E+03 -1.11911E+03  1.69689E+02 -1.17282E+03  5.29473E+02 -9.09355E+01  5.49593E+02  1.92532E+02
  4.62121E+02 -5.41467E-01  4.80559E+01  5.43145E+02 -1.53396E+02 -3.22965E+02 -1.93868E+01 -1.22069E+02
  2.95529E+02  5.42460E+01 -7.63773E+01  6.41417E+02  7.10523E+01  2.66816E+02  3.93762E+02 -5.14389E+01
 -5.37840E+02  5.20194E+02 -4.77932E+02 -1.36372E+02 -5.56732E+02 -3.71092E+02 -2.18564E+02 -1.05781E+03
  5.04380E+02 -4.35725E+02  4.55000E+02 -3.11390E+02  8.18504E+02 -7.07487E+02  4.60458E+02  1.01695E+03
  4.71998E+02  6.33547E+02 -1.05711E+02  2.88968E+02 -6.74352E+02  5.17624E+02 -4.66240E+02  3.13261E+02
 -1.81264E+01 -2.26494E+01 -5.32008E+02  1.88562E+02 -3.09961E+02  5.17225E+01 -8.14813E+02 -2.36272E+02
 -7.75803E+02  1.42575E+02 -1.68042E+02 -7.13563E+02  7.47814E+02 -1.69200E+03  4.97234E+02 -2.27392E+02
  5.82119E+02  2.24230E+00 -2.82475E+02  3.20781E+02  1.46934E+02  7.03015E+02 -4.09005E+02  7.19464E+02
