 $NMID ID='MM_0lb_SNR800_19hz_g40_35.RAW', FMTDAT='(8E13.5)'
 TRAMP=1., VOLUME=1. $END
  3.09952E+05  5.72342E+02  3.37280E+05  2.50100E+05  8.45324E+04  3.36992E+05 -1.32411E+05  2.50136E+05
 -1.89508E+05  8.22796E+04 -1.10832E+05 -3.29787E+04  2.00651E+03 -5.02238E+04  5.39444E+04  4.20385E+02
  3.47536E+04  5.28072E+04 -1.68869E+04  7.44330E+04 -6.00794E+04  6.24308E+04 -8.24719E+04  3.13574E+04
 -7.91382E+04 -1.10570E+04 -5.58178E+04 -4.97592E+04 -1.47905E+04 -6.76444E+04  2.63599E+04 -4.44818E+04
  3.87482E+04  4.13988E+03  1.56331E+04  4.68487E+04 -3.38076E+04  4.58344E+04 -6.49159E+04 -6.08315E+02
 -5.13830E+04 -5.56615E+04 -6.14296E+03 -7.43898E+04  3.28165E+04 -5.25919E+04  4.54865E+04 -1.59615E+04
  4.07848E+04  1.10225E+04  3.03564E+04  2.39788E+04  1.58892E+04  2.80741E+04 -4.32200E+03  2.66785E+04
 -2.15231E+04  1.28406E+04 -1.93073E+04 -4.05700E+03  3.81883E+03 -7.51872E+03  2.09820E+04  1.04304E+04
  7.64124E+03  3.23516E+04 -3.00136E+04  3.34179E+04 -6.02011E+04  1.83114E+03 -5.48896E+04 -4.08680E+04
 -1.22703E+04 -6.01924E+04  3.76682E+04 -4.24978E+04  5.43134E+04 -2.07252E+03  3.11938E+04  2.99343E+04
 -6.48757E+03  3.20549E+04 -2.79806E+04  1.23321E+04 -2.69661E+04 -5.47806E+03 -1.36371E+04 -9.68376E+03
 -6.98689E+03 -1.08265E+04 -8.41947E+02 -1.62106E+04  6.42001E+03 -2.24878E+04  1.49328E+04 -1.43065E+04
  1.25345E+04  4.14079E+03 -5.40632E+03  1.31029E+04 -1.87649E+04 -1.87233E+03 -7.89103E+03 -2.95844E+04
  2.01005E+04 -3.96726E+04  4.34222E+04 -1.83607E+04  4.09941E+04  1.80842E+04  1.38880E+04  4.07556E+04
 -1.51199E+04  3.03819E+04 -2.29309E+04  7.07449E+02 -7.77322E+03 -2.59439E+04  2.01300E+04 -3.04131E+04
  3.69538E+04 -6.71066E+03  3.04213E+04  2.24871E+04  1.45956E+04  4.14087E+04 -7.81160E+03  4.38830E+04
 -2.76159E+04  2.85157E+04 -3.61669E+04  8.01644E+03 -3.69258E+04 -1.46489E+04 -2.07039E+04 -3.35498E+04
  6.70489E+03 -3.31331E+04  2.84377E+04 -1.22392E+04  2.62769E+04  1.07549E+04  2.82440E+03  1.73887E+04
 -1.29540E+04  7.08320E+03 -9.34727E+03 -7.51329E+03  6.03676E+03 -1.00202E+04  1.67722E+04  6.42811E+03
  1.18741E+04  2.14504E+04 -6.86512E+03  2.27945E+04 -2.12404E+04  8.45996E+03 -2.47893E+04 -6.86505E+03
 -1.56172E+04 -1.61576E+04 -5.06841E+03 -1.58471E+04  3.66703E+03 -1.31116E+04  1.13687E+04 -1.31309E+04
  2.02078E+04 -1.11109E+04  2.69704E+04  7.68898E+02  2.04911E+04  1.53790E+04  3.79853E+03  3.14541E+04
 -1.54072E+04  2.66056E+04 -2.50972E+04  8.86915E+03 -1.92196E+04 -1.04414E+04 -3.87037E+03 -1.40495E+04
  2.93815E+03 -4.39155E+03 -2.24899E+03  5.03201E+03 -1.21686E+04  5.38625E+03 -1.28585E+04 -4.12874E+03
 -8.33001E+03 -1.44382E+04  4.43666E+03 -1.85591E+04  1.19343E+04 -1.32144E+04  1.37401E+04 -1.32637E+03
  8.19215E+03  1.02491E+04 -9.45119E+02  1.47537E+04 -9.92768E+03  8.49604E+03 -1.46139E+04 -3.18835E+03
 -1.09931E+04 -1.34625E+04 -1.20356E+03 -1.80946E+04  8.24414E+03 -1.45569E+04  1.55555E+04 -6.69542E+03
  1.37324E+04  6.34313E+02  9.74191E+03  4.02329E+03  4.82058E+03  2.57663E+02  7.15814E+03 -1.25436E+03
  1.29762E+04  2.81680E+03  1.35393E+04  1.24563E+04  8.30921E+03  2.36440E+04 -3.21972E+03  2.46546E+04
 -1.50263E+04  1.84169E+04 -2.27061E+04  8.77098E+03 -2.30455E+04 -1.57669E+03 -1.99435E+04 -1.32163E+04
 -9.51142E+03 -1.87011E+04  5.95642E+03 -1.76209E+04  1.56790E+04 -1.03002E+04  1.50607E+04  3.19780E+03
  6.51562E+03  1.06355E+04 -6.58670E+03  9.81988E+03 -1.28035E+04  2.68153E+03 -9.79895E+03 -7.44869E+03
 -1.60495E+02 -1.17933E+04  6.03464E+03 -9.23229E+03  7.54267E+03 -1.42614E+03  1.09325E+03  4.55612E+03
 -4.93545E+03  1.09109E+03 -3.16020E+03 -4.59635E+03  1.00482E+03 -9.49122E+03  7.61318E+03 -9.23978E+03
  1.13276E+04 -4.23371E+03  1.05346E+04  2.54149E+03  9.14136E+03  8.61781E+03  4.47028E+03  1.29052E+04
 -1.27382E+03  1.48566E+04 -8.76571E+03  9.33315E+03 -1.02392E+04  2.77186E+03 -7.76370E+03 -1.62708E+03
 -4.06499E+03 -2.86994E+03 -8.35366E+02  1.60792E+03 -1.78525E+03  1.76559E+03 -3.36412E+03  3.61015E+03
 -7.55432E+03 -4.91133E+02 -8.30968E+03 -6.81276E+03 -3.34019E+03 -1.08949E+04  3.27165E+03 -8.31081E+03
  6.61008E+03 -3.60645E+03  5.14232E+03  2.11865E+03  8.84435E+02  2.91205E+03 -3.20933E+03 -4.21159E+01
 -3.07805E+03 -4.68262E+03 -8.92005E+02 -6.43394E+03  3.64495E+03 -7.26997E+03  9.20450E+03 -3.38605E+03
  1.08762E+04  4.44584E+02  7.99520E+03  5.47413E+03  1.69962E+03  7.90514E+03 -4.88923E+03  7.61557E+03
 -6.42934E+03  2.53421E+03 -3.53118E+03 -9.29553E+02  1.20715E+03 -1.66297E+03  4.56532E+03 -1.14330E+03
  3.94939E+03  3.09169E+03  9.50267E+02  6.04820E+03 -3.91814E+03  6.00509E+03 -7.42953E+03  1.89044E+03
 -4.32374E+03 -3.35642E+03  6.54030E+01 -6.13452E+03  3.14112E+03 -3.01894E+03  3.29924E+03  7.55612E+02
  5.84726E+02  2.94810E+03 -3.84046E+03  4.24769E+03 -4.07293E+03  2.27504E+03 -3.80710E+03 -8.90053E+02
 -2.49234E+03 -5.23238E+03  7.29921E+02 -5.94962E+03  5.61857E+03 -4.28619E+03  5.99249E+03  1.11527E+03
  4.12721E+03  4.86910E+03  1.02512E+02  6.65131E+03 -4.55938E+03  4.06040E+03 -4.70187E+03  1.28282E+02
 -5.63776E+03 -4.65546E+03 -1.32649E+03 -4.81757E+03  2.42474E+03 -4.41586E+03  2.77209E+03 -2.94048E+03
  2.64298E+03  1.06727E+02 -1.63077E+01  1.49134E+03  7.14716E+02 -3.97517E+01 -2.76995E+01 -1.30655E+03
  3.21620E+03 -3.80573E+02  4.56058E+03  6.70892E+02  4.82141E+03  2.64065E+03  5.10136E+03  6.75564E+03
 -1.01912E+03  7.54890E+03 -7.04040E+03  5.88832E+03 -9.23178E+03  9.41102E+02 -6.98119E+03 -2.22252E+03
 -3.80304E+03 -5.92953E+03 -3.63324E+02 -4.51967E+03  1.84681E+03 -2.03525E+03  1.55960E+03 -2.06268E+03
  1.21200E+03 -1.62960E+03  2.02058E+03 -2.36460E+03  3.39486E+03 -1.39076E+03  3.60579E+03  6.50623E+02
  4.04164E+03  1.03125E+03  8.18161E+02  3.16423E+03 -1.43651E+03  2.23809E+03 -3.95187E+03  2.33564E+03
 -4.31939E+03 -1.11027E+03 -1.42447E+03 -2.83582E+03  6.09681E+02 -4.34293E+03  2.85773E+03 -4.55906E+03
  4.48654E+03 -2.83221E+03  5.91707E+03  2.31132E+02  4.52517E+03  3.83561E+03  1.06502E+03  5.67840E+03
 -1.83773E+03  5.64059E+03 -3.20430E+03  1.73164E+03 -1.40886E+03 -1.01262E+03 -5.07218E+02 -5.27889E+02
 -2.73784E+02  4.46582E+02 -8.29004E+02  2.01059E+03 -2.34852E+03  1.26989E+03 -3.55728E+03 -2.80135E+01
 -9.25042E+02 -3.61050E+03  9.88913E+02 -4.26056E+03  2.44293E+03 -3.94596E+03  3.25387E+03 -7.04479E+02
  3.59818E+03  2.19144E+03  1.94179E+03  2.93946E+03 -6.48321E+02  3.94212E+03 -2.11101E+03  2.14632E+03
 -3.36960E+03  6.79590E+02 -3.17265E+03 -1.87051E+03 -2.92392E+02 -2.67473E+03  1.55116E+03 -2.16913E+03
  2.32007E+03 -1.44953E+03  1.68649E+03  9.74387E+01  6.33444E+02  1.62608E+03  8.24786E+02  3.85276E+02
  1.57178E+03  4.52545E+02  1.21386E+03  9.65012E+02  8.69870E+02  2.39601E+03  1.19427E+03  1.65206E+03
 -1.14077E+03  2.56073E+03 -2.04182E+03  3.64536E+03 -2.42277E+03  1.38449E+03 -3.83495E+03 -4.40131E+02
 -1.78399E+03 -3.08043E+03  7.71022E+02 -4.37275E+03  1.49070E+03 -2.32021E+03  2.75860E+03 -1.13037E+03
  2.40703E+03  1.74424E+03  5.74382E+02  2.10378E+03 -4.86190E+02  1.27349E+03 -6.38336E+02 -2.36950E+02
 -5.43850E+02 -1.35717E+03  9.55918E+02 -1.00839E+03  1.26560E+03 -9.05235E+02  1.25642E+03  5.15627E+02
  7.53673E+02  5.86645E+01  1.02842E+03 -4.13615E+02 -5.05600E+02  8.56624E+02  1.54173E+03 -2.23364E+02
 -1.84864E+02 -1.32795E+02  1.72912E+03  5.07298E+02  1.82177E+02  2.19803E+03 -3.62185E+02  2.68065E+03
 -1.41441E+03  1.12865E+03 -1.62933E+03  4.58354E+02 -1.80508E+03 -5.37787E+02  1.36060E+02 -7.44687E+02
  3.75702E+02 -1.01125E+03  9.38309E+02 -5.30205E+02  6.42952E+02  1.40776E+03 -8.56516E+02  1.08112E+03
 -1.18622E+03  6.94821E+02 -9.75413E+02 -1.39764E+03 -5.71555E+02 -1.95501E+03  2.76117E+02 -1.23562E+03
  2.98141E+02 -6.18079E+02  4.77603E+02  9.18047E+01  1.23493E+03 -1.13109E+02  5.24804E+02  1.13641E+03
 -5.06119E+02 -4.20363E+01 -6.34352E+02 -3.46197E+01  6.52222E+02 -7.27267E+02  1.46364E+03 -1.12280E+03
  9.56045E+02  3.13295E+02  2.43204E+03  7.55738E+02  1.27493E+03  1.51123E+03 -5.55333E+01  1.70354E+03
 -1.36107E+03  3.42546E+02 -1.56727E+03 -1.18448E+02 -8.87646E+02 -1.20567E+03  3.49402E+02 -5.78657E+02
  1.55935E+03 -6.49181E+02  5.35856E+02  8.27703E+02  5.02445E+02  1.15986E+03  4.95679E+02  8.17452E+02
 -2.07609E+02  1.02677E+03 -7.03926E+02 -1.03065E+02  1.05236E+02  3.31905E+02 -7.78693E+02  6.00012E+02
 -6.59605E+02  7.50902E+02 -1.74410E+03  1.04146E+02 -1.29619E+03  1.90075E+02 -2.44146E+03 -6.83463E+02
 -8.75430E+02 -2.09452E+03  5.05354E+02 -2.51046E+03  8.61165E+02 -2.30073E+03  2.47804E+03 -8.93788E+02
  2.29515E+03 -3.02296E+02  1.05822E+03  1.40134E+03 -5.08189E+02  1.21546E+03 -5.43857E+02  1.24847E+03
 -1.07455E+03  7.36306E+02 -4.75247E+02 -2.31858E+02 -6.12488E+02  1.46928E+02 -7.86826E+02  1.61268E+02
 -1.21364E+03 -8.49324E+01 -8.45208E+02  4.08676E+01  3.06582E+02 -8.11068E+02 -4.25709E+02 -8.91190E+02
  1.15334E+03 -3.15972E+02  4.80074E+02  7.36367E+01  9.32753E+02  9.05325E+02 -4.94789E+02  1.67711E+03
 -7.15510E+02  1.93816E+03 -1.47304E+03  1.22169E+03 -1.42843E+03 -2.91284E+02 -9.71284E+02 -1.15538E+03
 -1.00988E+03 -1.07289E+03  1.06367E+02 -1.20994E+03  4.12561E+02 -4.07709E+02  6.66853E+02  3.84375E+02
  5.19467E+02  4.26274E+02 -4.13952E+01  6.49795E+02 -4.35981E+02 -3.06809E+01 -1.22091E+02 -2.25215E+02
  2.89682E+02  2.22701E+02  3.57846E+02  3.52601E+02 -7.46433E+01  4.19581E+02  2.19947E+02  3.54732E+02
 -7.73938E+02  3.25386E+02 -5.34948E+02 -9.41449E+01 -7.24076E+02 -3.61045E+02  1.22607E+02 -1.13737E+03
  4.97460E+02 -5.97048E+02  3.37779E+02  1.20473E+02  8.29960E+02 -4.91864E+02  3.02969E+02  5.64366E+02
  4.04678E+02  5.88908E+02  2.04467E+01  4.73589E+02 -4.81983E+02  7.42838E+02 -1.59897E+02 -2.53643E+01
  2.04672E+02 -1.42430E+02 -5.90963E+02  1.04212E+02 -6.12541E+02  3.51337E+01 -7.88375E+02 -2.06254E+02
 -8.41149E+02  3.34308E+02 -4.40212E+02 -7.81911E+02  6.11338E+02 -1.43097E+03  6.83310E+02 -3.63068E+02
  7.63831E+02 -2.43029E+01 -3.18251E+02  5.11133E+02 -3.77262E+02  8.54638E+02 -1.44936E+02  7.16238E+02
