 $NMID ID='MM_0lb_SNR800_10hz_g40_75.RAW', FMTDAT='(8E13.5)'
 TRAMP=1., VOLUME=1. $END
  3.09848E+05  2.84647E+02  3.37900E+05  2.51000E+05  8.45885E+04  3.38247E+05 -1.32252E+05  2.51365E+05
 -1.90431E+05  8.34604E+04 -1.12370E+05 -3.25012E+04  9.52922E+02 -5.10118E+04  5.35984E+04 -2.15636E+02
  3.55112E+04  5.32376E+04 -1.70240E+04  7.59395E+04 -6.09237E+04  6.40342E+04 -8.48714E+04  3.22307E+04
 -8.14109E+04 -1.17347E+04 -5.78010E+04 -5.20687E+04 -1.52079E+04 -7.04586E+04  2.77315E+04 -4.60366E+04
  4.10352E+04  3.67407E+03  1.66575E+04  4.80833E+04 -3.45393E+04  4.79042E+04 -6.75952E+04 -1.87403E+02
 -5.44017E+04 -5.72749E+04 -6.92561E+03 -7.78117E+04  3.41541E+04 -5.59607E+04  4.90461E+04 -1.81760E+04
  4.44428E+04  1.13626E+04  3.23077E+04  2.62173E+04  1.60557E+04  2.99747E+04 -5.46303E+03  2.76783E+04
 -2.21200E+04  1.21361E+04 -1.81852E+04 -5.27189E+03  6.67058E+03 -7.39898E+03  2.28598E+04  1.29331E+04
  7.13466E+03  3.64605E+04 -3.32257E+04  3.65122E+04 -6.47174E+04  1.94196E+03 -5.82423E+04 -4.36476E+04
 -1.25450E+04 -6.45144E+04  4.09174E+04 -4.63885E+04  6.01997E+04 -2.36738E+03  3.60549E+04  3.30824E+04
 -5.60182E+03  3.83191E+04 -3.06416E+04  1.75441E+04 -3.19728E+04 -4.01124E+03 -1.83606E+04 -1.12271E+04
 -8.93393E+03 -1.43873E+04 -6.42414E+02 -1.93419E+04  7.85462E+03 -2.33796E+04  1.56365E+04 -1.23874E+04
  1.10595E+04  6.01341E+03 -9.54107E+03  1.30473E+04 -2.23874E+04 -5.78726E+03 -8.08058E+03 -3.59877E+04
  2.41765E+04 -4.54096E+04  5.00547E+04 -2.04429E+04  4.70856E+04  2.01661E+04  1.63986E+04  4.55379E+04
 -1.65836E+04  3.50997E+04 -2.66265E+04  2.22734E+03 -1.07297E+04 -2.86566E+04  2.11845E+04 -3.59640E+04
  4.32307E+04 -1.00471E+04  3.85341E+04  2.47325E+04  2.01656E+04  4.92710E+04 -8.07560E+03  5.36886E+04
 -3.38988E+04  3.65678E+04 -4.54835E+04  1.05233E+04 -4.57281E+04 -1.77788E+04 -2.50365E+04 -4.05380E+04
  7.61633E+03 -4.00603E+04  3.31553E+04 -1.65155E+04  3.12601E+04  1.06970E+04  4.81309E+03  2.02726E+04
 -1.34889E+04  9.43962E+03 -1.08123E+04 -7.58885E+03  5.82016E+03 -1.12768E+04  1.83186E+04  5.67890E+03
  1.43228E+04  2.23421E+04 -5.49188E+03  2.60283E+04 -2.30873E+04  1.35392E+04 -3.01719E+04 -3.34202E+03
 -2.34783E+04 -1.84132E+04 -1.00258E+04 -2.28037E+04  3.72590E+03 -2.33716E+04  1.82917E+04 -2.10056E+04
  2.99868E+04 -1.35057E+04  3.58056E+04  4.00413E+03  2.56177E+04  2.24523E+04  4.51629E+03  3.95352E+04
 -1.91737E+04  3.26200E+04 -2.94909E+04  1.14899E+04 -2.19379E+04 -9.79730E+03 -4.73191E+03 -1.28702E+04
  1.25124E+03 -1.69241E+03 -6.28448E+03  7.60715E+03 -1.89402E+04  4.99274E+03 -1.87018E+04 -8.47796E+03
 -1.13085E+04 -2.16629E+04  5.62631E+03 -2.60367E+04  1.74671E+04 -1.82795E+04  2.08024E+04 -1.83949E+03
  1.32508E+04  1.52578E+04 -1.35065E+03  2.17112E+04 -1.52529E+04  1.23850E+04 -2.20244E+04 -4.61187E+03
 -1.60602E+04 -1.96024E+04 -1.87668E+03 -2.59515E+04  1.14095E+04 -2.16804E+04  2.15303E+04 -1.09623E+04
  2.02258E+04 -1.17987E+02  1.45867E+04  5.43317E+03  7.95234E+03  1.04528E+03  1.09296E+04 -1.90802E+03
  2.00472E+04  3.06504E+03  2.30350E+04  1.72160E+04  1.55610E+04  3.46145E+04 -3.10451E+03  4.01763E+04
 -2.31122E+04  3.32481E+04 -3.77368E+04  1.66404E+04 -4.02258E+04 -3.12889E+03 -3.29315E+04 -2.29350E+04
 -1.33806E+04 -3.37202E+04  1.13148E+04 -2.98012E+04  2.54830E+04 -1.44070E+04  2.25491E+04  6.99914E+03
  7.87337E+03  1.66557E+04 -1.08950E+04  1.43821E+04 -1.88783E+04  2.31140E+03 -1.40058E+04 -1.15624E+04
 -3.56738E+02 -1.79323E+04  9.33576E+03 -1.32466E+04  1.24382E+04 -1.59261E+03  2.98410E+03  7.62100E+03
 -8.21815E+03  3.24960E+03 -7.78102E+03 -6.57928E+03 -1.49726E+03 -1.67099E+04  1.12156E+04 -1.77893E+04
  2.07469E+04 -9.70920E+03  2.26785E+04  3.13456E+03  1.99206E+04  1.64961E+04  9.29356E+03  2.58925E+04
 -4.64729E+03  2.75812E+04 -1.80332E+04  1.74846E+04 -2.00969E+04  3.72057E+03 -1.36520E+04 -4.84612E+03
 -5.99147E+03 -6.79929E+03 -9.05502E+02  9.28402E+02 -2.34424E+03  3.21876E+03 -6.52614E+03  4.94168E+03
 -1.30686E+04 -9.81467E+02 -1.34317E+04 -1.10579E+04 -5.47255E+03 -1.74707E+04  5.40776E+03 -1.38857E+04
  1.20135E+04 -5.98097E+03  8.15101E+03  4.09714E+03 -6.31642E+01  5.49840E+03 -6.72547E+03  9.34371E+01
 -6.25812E+03 -8.91245E+03 -8.16522E+02 -1.35392E+04  7.55349E+03 -1.42431E+04  1.80461E+04 -7.88721E+03
  2.08485E+04  2.11596E+03  1.49653E+04  1.25681E+04  2.99547E+03  1.68807E+04 -8.55982E+03  1.40438E+04
 -1.15700E+04  4.30281E+03 -5.80250E+03 -3.01384E+03  2.10832E+03 -3.88318E+03  7.57528E+03 -1.20974E+03
  6.71051E+03  6.24808E+03  9.69217E+02  1.10665E+04 -7.97315E+03  1.07577E+04 -1.37901E+04  2.59779E+03
 -9.47594E+03 -7.34335E+03  1.37867E+02 -1.21507E+04  7.72442E+03 -6.36384E+03  7.96326E+03  2.61652E+03
  1.86387E+03  8.69971E+03 -7.51449E+03  9.89590E+03 -1.15413E+04  4.17374E+03 -1.18373E+04 -4.12249E+03
 -6.82062E+03 -1.35743E+04  3.41764E+03 -1.59430E+04  1.36088E+04 -9.40439E+03  1.43140E+04  2.53042E+03
  9.19637E+03  1.18203E+04 -1.13930E+03  1.40336E+04 -1.00228E+04  7.67901E+03 -1.11626E+04 -9.43680E+02
 -9.29127E+03 -9.51906E+03 -2.03209E+03 -1.02899E+04  5.61959E+03 -8.77380E+03  6.28569E+03 -3.40912E+03
  4.17763E+03  1.67643E+03 -9.83502E+02  2.12634E+03 -6.72411E+02 -2.61513E+03  2.40578E+03 -6.11021E+03
  9.65981E+03 -3.72651E+03  1.36400E+04  1.81815E+03  1.35287E+04  9.45670E+03  8.48935E+03  1.78226E+04
 -4.02757E+03  2.07226E+04 -1.73767E+04  1.53106E+04 -2.21404E+04  2.88973E+03 -1.76976E+04 -7.60127E+03
 -9.11408E+03 -1.47606E+04 -7.91133E+01 -1.21331E+04  4.39008E+03 -6.59468E+03  4.58147E+03 -4.60866E+03
  3.24288E+03 -2.54710E+03  3.72411E+03 -3.51768E+03  5.27841E+03 -3.32573E+03  7.10181E+03 -1.11011E+03
  9.31058E+03  2.21873E+03  4.57524E+03  8.17513E+03 -1.93821E+03  9.45699E+03 -9.74811E+03  6.96121E+03
 -1.24574E+04 -1.24667E+03 -7.92054E+03 -8.61097E+03 -7.80538E+02 -1.33841E+04  7.43008E+03 -1.34039E+04
  1.36660E+04 -7.69261E+03  1.67148E+04  2.10788E+03  1.16206E+04  1.12120E+04  1.75154E+03  1.50816E+04
 -6.11141E+03  1.23631E+04 -8.63229E+03  4.52094E+03 -5.53773E+03 -1.63147E+03 -2.37974E+03 -1.68306E+03
 -1.22722E+03  3.41512E+01 -2.10978E+03  2.41570E+03 -5.12127E+03  2.44276E+03 -8.53465E+03 -1.10917E+03
 -6.17070E+03 -9.16686E+03  4.84472E+01 -1.23362E+04  7.55831E+03 -1.15105E+04  1.22428E+04 -3.56823E+03
  1.21442E+04  5.91858E+03  5.58945E+03  1.09523E+04 -2.20451E+03  1.26572E+04 -8.74319E+03  7.90632E+03
 -1.13607E+04  9.90647E+02 -9.01751E+03 -7.47896E+03 -1.27771E+03 -1.03921E+04  5.15859E+03 -7.73390E+03
  7.99514E+03 -2.24131E+03  5.64554E+03  1.57888E+03  1.62790E+03  3.89842E+03  1.30710E+03  1.78176E+03
  2.48665E+03  1.00817E+03  3.17311E+03  1.79670E+03  3.88446E+03  4.23940E+03  3.71976E+03  6.28514E+03
 -3.13204E+03  9.68130E+03 -8.66482E+03  1.00031E+04 -1.23447E+04  2.88871E+03 -1.33004E+04 -4.65018E+03
 -6.08316E+03 -1.24223E+04  1.63210E+03 -1.33819E+04  7.02658E+03 -8.42181E+03  9.97706E+03 -2.46935E+03
  7.91446E+03  4.61350E+03  1.82567E+03  7.34861E+03 -3.06109E+03  4.96405E+03 -4.92408E+03 -4.53872E+02
 -2.28735E+03 -5.23883E+03  2.74681E+03 -5.32619E+03  4.98225E+03 -2.20224E+03  4.71155E+03  1.32808E+03
  3.11973E+03  2.57459E+03  1.35350E+03  1.87706E+03 -8.30698E+02  1.69908E+03  2.09811E+03 -4.94867E+02
  1.84684E+03 -1.09790E+03  5.53020E+03  1.92481E+03  2.83926E+03  6.66004E+03 -1.04870E+03  8.59475E+03
 -6.01248E+03  5.45854E+03 -7.72292E+03  1.52051E+03 -7.17387E+03 -2.90451E+03 -2.74329E+03 -4.64417E+03
  4.49770E+02 -5.13260E+03  3.08446E+03 -1.97578E+03  2.40171E+03  2.56125E+03 -9.47648E+02  3.85836E+03
 -4.79206E+03  2.45045E+03 -5.80801E+03 -3.34932E+03 -3.31301E+03 -7.05407E+03  1.01084E+03 -6.94634E+03
  3.71200E+03 -3.77246E+03  4.85607E+03 -5.30952E+02  4.14212E+03  1.73621E+03  6.77159E+02  3.66508E+03
 -2.23535E+03  1.37683E+03 -2.60846E+03 -2.31510E+03  1.15202E+03 -5.00268E+03  6.43180E+03 -4.35123E+03
  7.72546E+03  7.21921E+02  7.69751E+03  5.25054E+03  2.85877E+03  7.99608E+03 -2.82573E+03  7.17624E+03
 -6.58388E+03  3.43299E+03 -6.90986E+03 -8.14160E+02 -3.84915E+03 -5.20143E+03  1.53895E+03 -4.77610E+03
  4.86876E+03 -2.43669E+03  4.41203E+03  1.80650E+03  1.47858E+03  4.24811E+03 -2.29921E+02  3.71041E+03
 -2.52725E+03  2.77057E+03 -1.92658E+03  7.70113E+02 -9.99915E+02  8.91475E+02 -1.63418E+03  1.97411E+03
 -2.26352E+03  3.21580E+03 -5.20990E+03  2.63882E+03 -7.47085E+03  1.56751E+01 -8.70880E+03 -5.32664E+03
 -4.80237E+03 -1.06126E+04  2.08165E+03 -1.25141E+04  7.25592E+03 -9.50677E+03  1.13898E+04 -3.53143E+03
  1.05127E+04  2.24493E+03  6.85792E+03  7.29504E+03  6.12950E+02  8.24145E+03 -3.70473E+03  6.26424E+03
 -4.91687E+03  2.34919E+03 -2.87990E+03 -1.41735E+03 -9.99895E+02 -6.15583E+02 -8.99848E+02  1.94891E+02
 -1.73144E+03  3.60503E+01 -1.77857E+03 -1.94914E+02 -6.58673E+02 -1.89680E+03  8.61427E+01 -3.26091E+03
  3.86780E+03 -2.95920E+03  4.63716E+03  3.22922E+00  5.95122E+03  4.61330E+03  1.68104E+03  8.31507E+03
 -4.25145E+03  9.41639E+03 -8.46974E+03  5.92862E+03 -1.00586E+04 -5.16296E+02 -7.62449E+03 -6.09479E+03
 -3.23117E+03 -7.91216E+03  1.92440E+03 -7.61601E+03  5.20877E+03 -4.41450E+03  5.51006E+03  4.98731E+02
  3.07925E+03  2.46469E+03 -5.61667E+02  2.13350E+03 -1.21444E+03 -5.84808E+02  1.49622E+02 -1.94654E+03
  2.60862E+03 -1.32099E+03  3.15717E+03  1.04467E+03  2.10310E+03  2.97256E+03  3.09066E+02  3.86627E+03
 -3.58781E+03  3.94390E+03 -5.38567E+03  2.65043E+02 -4.90131E+03 -3.77566E+03 -7.00160E+02 -7.02477E+03
  3.79821E+03 -5.87367E+03  6.02181E+03 -1.50750E+03  5.92505E+03  1.45055E+03  3.56016E+03  5.20795E+03
  4.88024E+02  5.33938E+03 -2.23318E+03  4.44042E+03 -3.57806E+03  2.25859E+03 -2.67392E+03  2.00683E+02
 -1.43835E+03 -2.19182E+02 -1.80300E+03  9.36020E+02 -3.04168E+03  8.71958E+02 -4.00429E+03 -8.17222E+02
 -4.10425E+03 -2.45128E+03 -1.16183E+03 -5.13938E+03  2.97827E+03 -6.03059E+03  5.02921E+03 -2.89691E+03
  5.78205E+03  7.28452E+02  2.81340E+03  3.55979E+03 -4.18693E+02  5.55094E+03 -4.47626E+03  3.76623E+03
