 $NMID ID='MM_0lb_SNR800_8hz_g45_4.RAW', FMTDAT='(8E13.5)'
 TRAMP=1., VOLUME=1. $END
  3.09780E+05  1.98294E+02  3.38138E+05  2.50975E+05  8.53978E+04  3.38537E+05 -1.32341E+05  2.52215E+05
 -1.90622E+05  8.37913E+04 -1.12890E+05 -3.25087E+04 -1.27533E+00 -5.06918E+04  5.43461E+04 -6.52610E+02
  3.56632E+04  5.25510E+04 -1.63736E+04  7.59193E+04 -6.13002E+04  6.46934E+04 -8.56187E+04  3.25274E+04
 -8.28710E+04 -1.16111E+04 -5.79648E+04 -5.24365E+04 -1.51939E+04 -7.11481E+04  2.80355E+04 -4.70419E+04
  4.10074E+04  3.65875E+03  1.69485E+04  4.87160E+04 -3.56919E+04  4.85621E+04 -6.82423E+04  5.50551E+02
 -5.50431E+04 -5.79611E+04 -7.63168E+03 -7.86955E+04  3.47353E+04 -5.70020E+04  4.96328E+04 -1.81013E+04
  4.55184E+04  1.12961E+04  3.32129E+04  2.70697E+04  1.57564E+04  3.01819E+04 -5.91678E+03  2.76235E+04
 -2.26509E+04  1.15083E+04 -1.81670E+04 -5.76958E+03  6.85567E+03 -7.36853E+03  2.37792E+04  1.38622E+04
  6.54195E+03  3.79429E+04 -3.41026E+04  3.72379E+04 -6.62283E+04  1.58034E+03 -5.88961E+04 -4.52269E+04
 -1.27402E+04 -6.63788E+04  4.14618E+04 -4.75178E+04  6.12799E+04 -2.48517E+03  3.73702E+04  3.43018E+04
 -5.42523E+03  3.98477E+04 -3.19401E+04  1.90403E+04 -3.40330E+04 -3.15040E+03 -1.98583E+04 -1.22477E+04
 -9.51379E+03 -1.55455E+04 -3.20366E+02 -1.99457E+04  8.34300E+03 -2.36588E+04  1.62185E+04 -1.26692E+04
  1.01944E+04  5.74203E+03 -1.07724E+04  1.30169E+04 -2.35588E+04 -6.81349E+03 -8.75043E+03 -3.76148E+04
  2.53252E+04 -4.74091E+04  5.21177E+04 -2.10671E+04  4.87055E+04  2.09737E+04  1.72224E+04  4.71682E+04
 -1.68598E+04  3.68841E+04 -2.79356E+04  2.60997E+03 -1.15741E+04 -2.99162E+04  2.15290E+04 -3.75462E+04
  4.45752E+04 -1.12957E+04  4.10013E+04  2.54376E+04  2.17682E+04  5.13307E+04 -8.27848E+03  5.68514E+04
 -3.56613E+04  3.89345E+04 -4.80529E+04  1.15771E+04 -4.82503E+04 -1.83223E+04 -2.66185E+04 -4.20998E+04
  8.14047E+03 -4.25277E+04  3.45259E+04 -1.73969E+04  3.22356E+04  1.13268E+04  5.32259E+03  2.11730E+04
 -1.40486E+04  9.65863E+03 -1.11423E+04 -7.50712E+03  5.88239E+03 -1.18016E+04  1.88347E+04  5.52981E+03
  1.48020E+04  2.26887E+04 -5.12976E+03  2.73071E+04 -2.36693E+04  1.42985E+04 -3.18863E+04 -2.52279E+03
 -2.61190E+04 -1.85690E+04 -1.20411E+04 -2.53011E+04  4.71625E+03 -2.65873E+04  2.02734E+04 -2.36276E+04
  3.27937E+04 -1.39146E+04  3.88788E+04  5.28507E+03  2.78332E+04  2.48016E+04  4.42909E+03  4.19231E+04
 -2.00564E+04  3.42846E+04 -3.09051E+04  1.15924E+04 -2.27359E+04 -9.73886E+03 -4.76662E+03 -1.27703E+04
  9.89567E+02 -9.41193E+02 -7.94072E+03  8.53742E+03 -2.07264E+04  5.47089E+03 -2.05335E+04 -9.76708E+03
 -1.20104E+04 -2.34117E+04  6.29379E+03 -2.87119E+04  1.89612E+04 -1.99970E+04  2.34728E+04 -1.90889E+03
  1.45175E+04  1.63460E+04 -1.21187E+03  2.36643E+04 -1.70535E+04  1.35920E+04 -2.44353E+04 -4.89616E+03
 -1.75649E+04 -2.14870E+04 -2.38999E+03 -2.86672E+04  1.31626E+04 -2.38449E+04  2.37550E+04 -1.28774E+04
  2.21614E+04 -2.51824E+02  1.60418E+04  5.37016E+03  9.35794E+03  1.82343E+03  1.26219E+04 -2.03052E+03
  2.28542E+04  2.78684E+03  2.63043E+04  1.89497E+04  1.81485E+04  3.82986E+04 -2.38329E+03  4.53851E+04
 -2.64047E+04  3.84560E+04 -4.29689E+04  2.00323E+04 -4.57293E+04 -3.75728E+03 -3.71025E+04 -2.68055E+04
 -1.45762E+04 -3.88229E+04  1.35377E+04 -3.33954E+04  2.85570E+04 -1.54349E+04  2.52211E+04  7.94387E+03
  8.37342E+03  1.90305E+04 -1.18909E+04  1.59576E+04 -2.05659E+04  2.58762E+03 -1.57077E+04 -1.31834E+04
 -1.24986E+02 -1.93248E+04  1.06452E+04 -1.45700E+04  1.36704E+04 -1.19693E+03  3.30390E+03  9.21211E+03
 -8.97306E+03  4.45238E+03 -9.63311E+03 -7.23626E+03 -2.07059E+03 -1.93672E+04  1.24018E+04 -2.06267E+04
  2.36462E+04 -1.18630E+04  2.71732E+04  3.37895E+03  2.34407E+04  1.96669E+04  1.09973E+04  3.04472E+04
 -6.22056E+03  3.23356E+04 -2.12661E+04  1.97402E+04 -2.34683E+04  4.03253E+03 -1.62927E+04 -6.40720E+03
 -6.63225E+03 -7.38320E+03 -1.09591E+03  5.04390E+02 -2.83056E+03  3.86624E+03 -8.08252E+03  5.35434E+03
 -1.49373E+04 -7.61226E+02 -1.50146E+04 -1.16660E+04 -5.96287E+03 -1.99314E+04  6.82103E+03 -1.64500E+04
  1.32592E+04 -6.61462E+03  9.51618E+03  4.17091E+03 -3.55871E+02  6.50583E+03 -8.07941E+03  4.85058E+00
 -7.54833E+03 -1.06137E+04 -1.05627E+03 -1.59382E+04  9.77511E+03 -1.68696E+04  2.08043E+04 -9.12328E+03
  2.44593E+04  2.79040E+03  1.79333E+04  1.53361E+04  3.10143E+03  2.00827E+04 -9.70135E+03  1.62473E+04
 -1.34041E+04  4.60824E+03 -7.37972E+03 -3.68145E+03  2.19917E+03 -4.58125E+03  8.50195E+03 -1.06514E+03
  7.41811E+03  7.18174E+03  6.42470E+02  1.30338E+04 -9.78400E+03  1.24152E+04 -1.64272E+04  2.71603E+03
 -1.14423E+04 -8.60514E+03  2.78898E+02 -1.42147E+04  9.08971E+03 -7.04380E+03  9.85186E+03  3.72002E+03
  2.42280E+03  1.04752E+04 -8.91115E+03  1.19051E+04 -1.46558E+04  5.52675E+03 -1.48446E+04 -5.60230E+03
 -8.56690E+03 -1.67470E+04  4.06022E+03 -1.94592E+04  1.59353E+04 -1.13126E+04  1.82337E+04  2.96777E+03
  1.04914E+04  1.40416E+04 -1.82158E+03  1.66462E+04 -1.23331E+04  9.32752E+03 -1.35722E+04 -1.20616E+03
 -1.16443E+04 -1.08943E+04 -1.83182E+03 -1.23322E+04  6.92829E+03 -1.01053E+04  8.12771E+03 -3.89573E+03
  5.57641E+03  2.19329E+03 -1.01141E+03  1.68410E+03 -1.11913E+03 -4.03530E+03  2.73123E+03 -8.33126E+03
  1.24753E+04 -5.17886E+03  1.72819E+04  2.11860E+03  1.68577E+04  1.16419E+04  1.10180E+04  2.21158E+04
 -4.69513E+03  2.59698E+04 -2.15762E+04  1.90539E+04 -2.77239E+04  3.48709E+03 -2.21815E+04 -9.73680E+03
 -1.12392E+04 -1.81922E+04 -5.72399E+02 -1.54710E+04  5.50101E+03 -8.51258E+03  5.62324E+03 -5.77640E+03
  4.45736E+03 -3.24460E+03  4.52511E+03 -4.00756E+03  5.84405E+03 -3.79490E+03  8.68424E+03 -1.85664E+03
  1.11155E+04  2.37389E+03  6.53018E+03  9.64551E+03 -2.13870E+03  1.23698E+04 -1.25426E+04  9.72501E+03
 -1.59335E+04 -1.32816E+03 -1.02716E+04 -1.14657E+04 -1.17942E+03 -1.69995E+04  8.84663E+03 -1.71179E+04
  1.78672E+04 -9.59899E+03  2.06932E+04  3.16516E+03  1.43515E+04  1.48647E+04  1.91681E+03  1.92002E+04
 -7.93342E+03  1.52739E+04 -1.16609E+04  4.94094E+03 -7.90801E+03 -1.91584E+03 -3.14867E+03 -2.35553E+03
 -1.43022E+03 -5.72919E+02 -2.54507E+03  3.18257E+03 -6.52776E+03  2.55516E+03 -1.08779E+04 -1.38917E+03
 -8.08549E+03 -1.09090E+04 -4.42025E+02 -1.60634E+04  1.02225E+04 -1.44723E+04  1.62129E+04 -4.49427E+03
  1.61596E+04  8.05118E+03  7.28736E+03  1.44158E+04 -3.06805E+03  1.61888E+04 -1.19236E+04  9.87138E+03
 -1.51356E+04  7.60135E+02 -1.19513E+04 -9.82280E+03 -1.91125E+03 -1.34330E+04  6.74209E+03 -9.88529E+03
  1.05004E+04 -3.06110E+03  7.33971E+03  2.86930E+03  2.36992E+03  4.77208E+03  1.64632E+03  2.48860E+03
  3.01621E+03  1.25394E+03  3.71730E+03  2.12631E+03  4.88319E+03  6.08609E+03  3.99896E+03  8.91508E+03
 -2.98901E+03  1.35311E+04 -1.13864E+04  1.28273E+04 -1.71960E+04  3.19609E+03 -1.73039E+04 -7.12397E+03
 -8.50561E+03 -1.65441E+04  2.57690E+03 -1.79240E+04  1.01958E+04 -1.15823E+04  1.35558E+04 -2.68285E+03
  1.01958E+04  6.15041E+03  2.41513E+03  9.40506E+03 -4.82758E+03  6.41937E+03 -6.94865E+03 -1.04680E+03
 -3.57000E+03 -7.58077E+03  3.60814E+03 -7.03279E+03  7.61684E+03 -3.95247E+03  6.76651E+03  1.60333E+03
  3.68137E+03  3.48173E+03  1.36359E+03  2.37540E+03 -1.38702E+03  2.50452E+03  1.79354E+03 -5.07402E+02
  2.57571E+03 -1.07782E+03  7.01974E+03  2.91650E+03  4.01393E+03  8.75389E+03 -1.63030E+03  1.19823E+04
 -7.78913E+03  8.18568E+03 -1.06555E+04  2.05791E+03 -9.40040E+03 -3.70009E+03 -4.37019E+03 -6.63016E+03
  9.41508E+02 -6.75890E+03  4.44104E+03 -2.81533E+03  3.68080E+03  3.60893E+03 -1.41343E+03  5.89240E+03
 -7.24032E+03  3.40104E+03 -8.44402E+03 -4.03885E+03 -4.37348E+03 -9.36766E+03  1.35235E+03 -9.50329E+03
  5.84016E+03 -5.60045E+03  7.07390E+03 -9.89003E+02  5.20842E+03  2.83063E+03  1.00989E+03  5.25573E+03
 -3.33985E+03  1.26831E+03 -4.39283E+03 -3.43649E+03  1.84650E+03 -7.56458E+03  8.73103E+03 -5.70246E+03
  1.06299E+04  6.82386E+02  1.05802E+04  7.52930E+03  3.21232E+03  1.18483E+04 -4.23670E+03  1.03488E+04
 -9.27258E+03  5.17894E+03 -9.69993E+03 -1.33337E+03 -5.40634E+03 -7.68083E+03  1.79935E+03 -7.08961E+03
  7.02059E+03 -3.35248E+03  6.46101E+03  2.93886E+03  1.67029E+03  6.45470E+03 -1.05866E+03  5.49516E+03
 -3.26594E+03  3.75843E+03 -3.14778E+03  1.09181E+03 -1.35571E+03  1.03842E+03 -1.85459E+03  2.44440E+03
 -3.01778E+03  4.51481E+03 -7.87836E+03  3.81617E+03 -1.18706E+04 -1.76774E+02 -1.26163E+04 -8.14499E+03
 -7.04555E+03 -1.52810E+04  3.36653E+03 -1.77723E+04  1.12139E+04 -1.36479E+04  1.63658E+04 -5.31502E+03
  1.53266E+04  3.26724E+03  9.18774E+03  1.04926E+04  1.08248E+03  1.19662E+04 -4.48508E+03  9.08682E+03
 -6.25400E+03  3.11320E+03 -4.02696E+03 -1.24070E+03 -1.41089E+03 -1.56206E+03 -7.80551E+02 -4.74437E+02
 -1.98519E+03  3.12522E+02 -2.41589E+03 -3.31411E+02 -1.12024E+03 -2.58831E+03  8.01137E+02 -4.67867E+03
  4.94085E+03 -4.07890E+03  7.13015E+03 -9.44862E+01  8.71894E+03  6.67314E+03  2.13543E+03  1.19106E+04
 -6.03525E+03  1.35639E+04 -1.26684E+04  8.05266E+03 -1.49652E+04 -1.54976E+03 -1.07999E+04 -9.47646E+03
 -4.70068E+03 -1.23625E+04  3.09699E+03 -1.13246E+04  8.30518E+03 -6.37915E+03  7.67728E+03  4.85275E+02
  4.19659E+03  4.04624E+03 -2.77927E+02  3.31290E+03 -2.42991E+03 -1.03444E+02  1.04405E-02 -2.50058E+03
  3.65978E+03 -2.39128E+03  5.77883E+03  1.55000E+03  2.90520E+03  4.99505E+03  1.18630E+02  6.74297E+03
 -5.23068E+03  5.61295E+03 -7.92817E+03  3.05453E+02 -7.31330E+03 -6.24077E+03 -1.06097E+03 -1.02773E+04
  5.75410E+03 -8.64985E+03  9.57811E+03 -2.75337E+03  9.45078E+03  2.45957E+03  5.49447E+03  7.34627E+03
  8.86607E+02  8.41499E+03 -3.17909E+03  6.86204E+03 -5.71921E+03  3.88281E+03 -4.27793E+03  3.10359E+02
 -2.26430E+03 -3.62835E+02 -2.31178E+03  6.76400E+02 -4.48029E+03  1.52987E+03 -6.56988E+03 -1.34781E+03
 -5.98273E+03 -4.83161E+03 -1.88407E+03 -8.44396E+03  4.11861E+03 -9.00360E+03  7.14219E+03 -4.08000E+03
  8.43463E+03  1.29622E+03  5.05010E+03  6.02089E+03 -5.38658E+02  8.58821E+03 -6.35248E+03  5.46443E+03
