 $NMID ID='MM_0lb_SNR800_8hz_g60_32.RAW', FMTDAT='(8E13.5)'
 TRAMP=1., VOLUME=1. $END
  3.09273E+05  5.75026E+02  3.38231E+05  2.50990E+05  8.49804E+04  3.39253E+05 -1.32763E+05  2.52094E+05
 -1.91510E+05  8.38403E+04 -1.12705E+05 -3.27463E+04 -3.30396E+02 -5.09440E+04  5.40461E+04 -8.38914E+02
  3.56929E+04  5.27906E+04 -1.65633E+04  7.65525E+04 -6.18546E+04  6.46571E+04 -8.56921E+04  3.31425E+04
 -8.32127E+04 -1.16143E+04 -5.85335E+04 -5.28340E+04 -1.57169E+04 -7.20090E+04  2.85231E+04 -4.74769E+04
  4.16275E+04  3.64021E+03  1.70044E+04  4.87709E+04 -3.51514E+04  4.88147E+04 -6.85365E+04  4.21723E+02
 -5.57624E+04 -5.81917E+04 -7.85104E+03 -7.96849E+04  3.46879E+04 -5.76357E+04  5.04609E+04 -1.88098E+04
  4.61492E+04  1.14184E+04  3.36976E+04  2.71808E+04  1.61464E+04  3.09658E+04 -5.90902E+03  2.83061E+04
 -2.28728E+04  1.19561E+04 -1.78188E+04 -5.93250E+03  7.82515E+03 -7.26154E+03  2.39170E+04  1.43074E+04
  7.09774E+03  3.86565E+04 -3.48365E+04  3.75406E+04 -6.64449E+04  2.07403E+03 -5.94504E+04 -4.53496E+04
 -1.24531E+04 -6.70496E+04  4.24274E+04 -4.84420E+04  6.26141E+04 -2.69614E+03  3.78398E+04  3.51262E+04
 -5.45665E+03  4.06801E+04 -3.22616E+04  1.97991E+04 -3.46054E+04 -3.26845E+03 -2.04069E+04 -1.24508E+04
 -9.83109E+03 -1.60217E+04 -2.40443E+02 -2.06482E+04  9.01716E+03 -2.34103E+04  1.57855E+04 -1.23089E+04
  1.02455E+04  6.92479E+03 -1.15215E+04  1.30660E+04 -2.44098E+04 -7.36429E+03 -8.62059E+03 -3.91948E+04
  2.59867E+04 -4.83522E+04  5.37033E+04 -2.14235E+04  4.97326E+04  2.18394E+04  1.78142E+04  4.85598E+04
 -1.65383E+04  3.71780E+04 -2.82896E+04  2.87756E+03 -1.31168E+04 -3.00724E+04  2.17199E+04 -3.80078E+04
  4.63211E+04 -1.17162E+04  4.23379E+04  2.52153E+04  2.26096E+04  5.21793E+04 -8.82856E+03  5.91100E+04
 -3.69317E+04  4.02384E+04 -5.00070E+04  1.17614E+04 -4.96820E+04 -1.90339E+04 -2.71277E+04 -4.41911E+04
  7.99600E+03 -4.42607E+04  3.54543E+04 -1.78947E+04  3.30675E+04  1.13696E+04  5.58121E+03  2.13731E+04
 -1.45689E+04  1.01550E+04 -1.17487E+04 -7.43381E+03  5.95591E+03 -1.17536E+04  1.95482E+04  5.31493E+03
  1.51216E+04  2.35397E+04 -4.76673E+03  2.78963E+04 -2.35606E+04  1.51327E+04 -3.29842E+04 -2.01906E+03
 -2.77588E+04 -1.86217E+04 -1.28282E+04 -2.68933E+04  4.39148E+03 -2.83128E+04  2.15016E+04 -2.50369E+04
  3.47606E+04 -1.49574E+04  4.01032E+04  5.54069E+03  2.86085E+04  2.60532E+04  4.61875E+03  4.32153E+04
 -2.12652E+04  3.52048E+04 -3.18901E+04  1.26001E+04 -2.26765E+04 -9.64549E+03 -4.74990E+03 -1.26959E+04
  6.52082E+02 -8.27276E+02 -8.50236E+03  8.88678E+03 -2.19032E+04  4.71510E+03 -2.21528E+04 -1.08301E+04
 -1.25990E+04 -2.50366E+04  6.45090E+03 -3.01524E+04  2.01365E+04 -2.14276E+04  2.49988E+04 -2.33202E+03
  1.62322E+04  1.75499E+04 -1.10611E+03  2.47064E+04 -1.82023E+04  1.43315E+04 -2.52814E+04 -5.11541E+03
 -1.86095E+04 -2.22827E+04 -2.49265E+03 -3.03864E+04  1.35442E+04 -2.53169E+04  2.53494E+04 -1.35266E+04
  2.35833E+04 -7.56138E+02  1.72336E+04  5.30941E+03  9.73914E+03  1.46518E+03  1.29666E+04 -2.31306E+03
  2.42046E+04  2.76109E+03  2.81394E+04  1.93489E+04  1.94790E+04  4.13280E+04 -2.47267E+03  4.81952E+04
 -2.79795E+04  4.07390E+04 -4.56563E+04  2.11968E+04 -4.94364E+04 -3.68114E+03 -3.98834E+04 -2.88926E+04
 -1.53110E+04 -4.12802E+04  1.48710E+04 -3.59894E+04  3.09483E+04 -1.63044E+04  2.61458E+04  9.23115E+03
  7.99698E+03  2.04873E+04 -1.28352E+04  1.63887E+04 -2.19592E+04  2.42270E+03 -1.68472E+04 -1.44644E+04
 -1.06538E+03 -2.09190E+04  1.11590E+04 -1.52869E+04  1.45916E+04 -1.51806E+03  4.25237E+03  9.81971E+03
 -9.17927E+03  4.61553E+03 -1.02781E+04 -7.40265E+03 -2.44818E+03 -2.01948E+04  1.28979E+04 -2.25434E+04
  2.55741E+04 -1.29942E+04  2.98161E+04  3.32962E+03  2.59864E+04  2.06046E+04  1.19229E+04  3.25972E+04
 -6.73767E+03  3.49757E+04 -2.33437E+04  2.14271E+04 -2.57252E+04  4.37611E+03 -1.73847E+04 -7.05059E+03
 -7.05282E+03 -8.62747E+03 -1.32573E+03 -8.19874E+00 -3.66934E+03  3.74439E+03 -8.59191E+03  5.34091E+03
 -1.57015E+04 -8.41964E+02 -1.61431E+04 -1.35819E+04 -6.37761E+03 -2.11753E+04  7.54253E+03 -1.75556E+04
  1.45005E+04 -7.72681E+03  9.97642E+03  4.70491E+03 -7.23146E+02  6.56926E+03 -8.90835E+03 -3.06469E+02
 -8.43643E+03 -1.15525E+04 -8.58988E+02 -1.78811E+04  1.04081E+04 -1.89393E+04  2.27616E+04 -1.04287E+04
  2.67561E+04  2.82857E+03  1.92454E+04  1.61948E+04  3.55973E+03  2.13087E+04 -1.04171E+04  1.74852E+04
 -1.36068E+04  5.18172E+03 -7.07402E+03 -4.17798E+03  2.67228E+03 -5.14771E+03  9.63682E+03 -1.01872E+03
  8.42310E+03  7.65931E+03  1.02605E+03  1.45400E+04 -1.05526E+04  1.36577E+04 -1.77662E+04  2.86027E+03
 -1.21679E+04 -9.44510E+03  4.44172E+02 -1.54514E+04  1.02069E+04 -7.54009E+03  1.09161E+04  4.08548E+03
  2.99007E+03  1.16632E+04 -8.92147E+03  1.33604E+04 -1.59708E+04  5.69541E+03 -1.66161E+04 -5.78115E+03
 -9.57929E+03 -1.85062E+04  4.88953E+03 -2.11118E+04  1.82357E+04 -1.21001E+04  1.96905E+04  3.44189E+03
  1.14602E+04  1.57338E+04 -1.80790E+03  1.85144E+04 -1.35368E+04  9.72124E+03 -1.50290E+04 -1.71612E+03
 -1.22405E+04 -1.18256E+04 -2.07305E+03 -1.42774E+04  7.08649E+03 -1.10298E+04  9.13409E+03 -3.91794E+03
  5.50704E+03  3.32565E+03 -1.27923E+03  2.04063E+03 -9.03946E+02 -4.53759E+03  3.37635E+03 -9.58027E+03
  1.38619E+04 -5.88449E+03  1.88319E+04  2.01320E+03  1.84611E+04  1.32785E+04  1.14164E+04  2.47499E+04
 -5.90688E+03  2.76532E+04 -2.34966E+04  2.07387E+04 -3.02347E+04  3.80966E+03 -2.44907E+04 -1.07434E+04
 -1.21060E+04 -2.01732E+04  2.36803E+01 -1.75212E+04  6.35571E+03 -9.40051E+03  6.17281E+03 -6.47995E+03
  4.64565E+03 -3.79932E+03  4.93623E+03 -4.57001E+03  6.57664E+03 -4.25734E+03  9.37772E+03 -1.88414E+03
  1.24544E+04  2.63964E+03  6.82525E+03  1.12938E+04 -2.49762E+03  1.37065E+04 -1.32634E+04  1.04605E+04
 -1.77233E+04 -1.46707E+03 -1.17022E+04 -1.22742E+04 -1.50378E+03 -1.91177E+04  1.02001E+04 -1.87512E+04
  2.00394E+04 -1.06652E+04  2.34885E+04  3.42896E+03  1.58045E+04  1.66066E+04  2.86255E+03  2.12598E+04
 -8.48099E+03  1.65412E+04 -1.22904E+04  5.70148E+03 -8.72621E+03 -2.26113E+03 -3.95149E+03 -2.28078E+03
 -9.39556E+02 -7.54062E+02 -2.40976E+03  3.39106E+03 -7.75624E+03  2.77141E+03 -1.19609E+04 -1.55573E+03
 -8.91292E+03 -1.17494E+04  4.30096E+01 -1.76924E+04  1.07612E+04 -1.61615E+04  1.82552E+04 -5.22127E+03
  1.76005E+04  8.69933E+03  8.34178E+03  1.63901E+04 -3.70103E+03  1.84246E+04 -1.28602E+04  1.14490E+04
 -1.71622E+04  4.59357E+02 -1.30208E+04 -1.12884E+04 -1.41709E+03 -1.49984E+04  7.99187E+03 -1.10954E+04
  1.11697E+04 -3.83045E+03  7.63861E+03  3.13079E+03  2.41867E+03  5.14065E+03  1.86588E+03  2.47053E+03
  3.07014E+03  1.38618E+03  3.97406E+03  1.86013E+03  5.58982E+03  5.87353E+03  4.69678E+03  9.92026E+03
 -3.86567E+03  1.50327E+04 -1.29366E+04  1.41307E+04 -1.94482E+04  4.03903E+03 -1.93053E+04 -8.10220E+03
 -9.19949E+03 -1.86310E+04  2.64547E+03 -1.97457E+04  1.12839E+04 -1.27552E+04  1.51443E+04 -3.30600E+03
  1.18197E+04  6.73420E+03  2.43603E+03  1.09504E+04 -5.22290E+03  7.08364E+03 -8.11582E+03 -1.14366E+03
 -3.48826E+03 -8.62620E+03  4.16689E+03 -8.50835E+03  7.58152E+03 -3.61007E+03  7.61448E+03  1.28114E+03
  4.49595E+03  3.92819E+03  1.79405E+03  3.21799E+03 -7.60978E+02  2.52944E+03  1.49726E+03 -5.79776E+02
  3.20099E+03 -1.48825E+03  7.76482E+03  3.19715E+03  4.51981E+03  9.79443E+03 -1.64552E+03  1.32122E+04
 -8.85098E+03  9.26990E+03 -1.24364E+04  1.98214E+03 -1.04926E+04 -4.12510E+03 -4.62518E+03 -7.85444E+03
  1.03968E+03 -7.39253E+03  4.41287E+03 -3.61184E+03  4.01747E+03  4.00785E+03 -1.55467E+03  6.04328E+03
 -7.71937E+03  3.80816E+03 -9.41331E+03 -4.55282E+03 -5.25265E+03 -1.07643E+04  1.21747E+03 -1.05625E+04
  6.12855E+03 -6.40639E+03  7.64625E+03 -6.82612E+02  6.41089E+03  3.08368E+03  8.88143E+02  5.70725E+03
 -4.23473E+03  1.87800E+03 -4.70940E+03 -3.77772E+03  1.88387E+03 -8.79204E+03  9.27251E+03 -6.51136E+03
  1.22849E+04  4.93987E+02  1.17910E+04  8.29814E+03  3.36219E+03  1.27781E+04 -4.63905E+03  1.21550E+04
 -1.02135E+04  5.52269E+03 -1.08677E+04 -1.80192E+03 -5.40327E+03 -7.89254E+03  2.07655E+03 -7.89676E+03
  8.07397E+03 -3.90259E+03  6.62441E+03  3.41802E+03  2.21851E+03  7.60264E+03 -1.24437E+03  5.93471E+03
 -3.41519E+03  3.72825E+03 -3.14989E+03  1.38045E+03 -1.93487E+03  7.01891E+02 -1.80277E+03  2.03844E+03
 -3.24881E+03  4.74039E+03 -8.71282E+03  3.86742E+03 -1.29587E+04  1.28373E+02 -1.40667E+04 -8.49795E+03
 -7.53456E+03 -1.74994E+04  2.99493E+03 -1.93548E+04  1.24744E+04 -1.47856E+04  1.85997E+04 -5.66440E+03
  1.70326E+04  3.85921E+03  1.12129E+04  1.22377E+04  1.04991E+03  1.35436E+04 -5.51006E+03  9.86160E+03
 -7.92933E+03  3.68688E+03 -4.61717E+03 -1.53291E+03 -1.13711E+03 -1.38498E+03 -4.92755E+02  2.16491E+02
 -1.81585E+03  4.71723E+02 -2.98513E+03 -1.33337E+02 -1.00885E+03 -2.97431E+03  6.90118E+02 -4.88595E+03
  5.49908E+03 -4.12869E+03  8.44198E+03 -2.62528E+02  9.42142E+03  7.29024E+03  2.93528E+03  1.32166E+04
 -6.04207E+03  1.52625E+04 -1.42134E+04  8.48837E+03 -1.64798E+04 -1.47260E+03 -1.25153E+04 -1.01014E+04
 -5.10111E+03 -1.42937E+04  3.35405E+03 -1.26871E+04  8.95306E+03 -7.55809E+03  8.96130E+03  4.23735E+02
  4.81873E+03  4.34714E+03 -6.29966E+02  3.67924E+03 -2.80446E+03 -2.33250E+02  3.89384E+02 -3.10913E+03
  4.34972E+03 -1.89072E+03  5.18622E+03  1.48129E+03  4.10621E+03  5.36139E+03  7.68996E+01  7.61108E+03
 -6.01995E+03  6.20473E+03 -9.10947E+03  6.70969E+02 -8.23061E+03 -6.56592E+03 -1.28474E+03 -1.16159E+04
  6.74764E+03 -1.00561E+04  1.05747E+04 -3.23461E+03  1.06311E+04  2.58863E+03  6.50539E+03  8.35032E+03
  1.16155E+03  8.85206E+03 -3.94407E+03  7.93267E+03 -5.91280E+03  3.86009E+03 -4.72707E+03  1.95039E+02
 -2.79201E+03 -4.59408E+01 -2.11321E+03  1.32547E+03 -4.81999E+03  1.91967E+03 -7.22415E+03 -9.42472E+02
 -6.70372E+03 -5.15888E+03 -2.20249E+03 -9.44747E+03  3.98126E+03 -9.24877E+03  8.12497E+03 -5.10907E+03
  9.32021E+03  1.27850E+03  5.53555E+03  6.91122E+03 -9.53164E+02  9.72803E+03 -7.47223E+03  6.44561E+03
