 $NMID ID='MM_0lb_SNR800_20hz_g60_44.RAW', FMTDAT='(8E13.5)'
 TRAMP=1., VOLUME=1. $END
  3.09710E+05  2.85571E+02  3.37424E+05  2.50654E+05  8.43787E+04  3.37608E+05 -1.32707E+05  2.50694E+05
 -1.89897E+05  8.28217E+04 -1.11218E+05 -3.27896E+04  1.21786E+03 -5.04731E+04  5.40133E+04  2.78207E+00
  3.50855E+04  5.27530E+04 -1.68432E+04  7.51548E+04 -6.04512E+04  6.32896E+04 -8.34037E+04  3.17762E+04
 -8.00466E+04 -1.13779E+04 -5.66628E+04 -5.04151E+04 -1.48962E+04 -6.89934E+04  2.71382E+04 -4.51907E+04
  3.94854E+04  3.99644E+03  1.57979E+04  4.77135E+04 -3.42726E+04  4.66234E+04 -6.60792E+04 -6.69566E+02
 -5.26431E+04 -5.63721E+04 -6.35827E+03 -7.58401E+04  3.34965E+04 -5.40097E+04  4.66963E+04 -1.65293E+04
  4.21680E+04  1.08734E+04  3.10889E+04  2.47393E+04  1.58474E+04  2.85086E+04 -5.02078E+03  2.65688E+04
 -2.17334E+04  1.25201E+04 -1.86879E+04 -4.46719E+03  4.49088E+03 -7.54006E+03  2.13669E+04  1.14890E+04
  7.27260E+03  3.38669E+04 -3.11158E+04  3.46446E+04 -6.16028E+04  2.46391E+03 -5.58639E+04 -4.17592E+04
 -1.24419E+04 -6.17760E+04  3.85740E+04 -4.41197E+04  5.63139E+04 -2.20245E+03  3.25630E+04  3.12251E+04
 -6.47391E+03  3.40255E+04 -2.90065E+04  1.40976E+04 -2.86322E+04 -5.12197E+03 -1.51114E+04 -1.03014E+04
 -7.69921E+03 -1.19638E+04 -1.03496E+03 -1.69319E+04  6.83133E+03 -2.22910E+04  1.52672E+04 -1.37780E+04
  1.20747E+04  4.57656E+03 -6.96389E+03  1.32575E+04 -1.99023E+04 -3.04609E+03 -8.17970E+03 -3.11520E+04
  2.13366E+04 -4.12835E+04  4.56242E+04 -1.90101E+04  4.28334E+04  1.86945E+04  1.49128E+04  4.19592E+04
 -1.56674E+04  3.16620E+04 -2.37605E+04  1.37027E+03 -8.76781E+03 -2.67620E+04  2.06157E+04 -3.21785E+04
  3.84992E+04 -7.64751E+03  3.23229E+04  2.28064E+04  1.58324E+04  4.33658E+04 -7.61771E+03  4.62279E+04
 -2.92797E+04  3.06361E+04 -3.85267E+04  8.65192E+03 -3.92563E+04 -1.53300E+04 -2.18626E+04 -3.52909E+04
  7.04580E+03 -3.48068E+04  2.96009E+04 -1.30866E+04  2.75082E+04  1.08141E+04  3.29941E+03  1.80482E+04
 -1.31273E+04  7.60684E+03 -9.75710E+03 -7.89673E+03  6.23410E+03 -1.03710E+04  1.75547E+04  6.38564E+03
  1.22343E+04  2.16476E+04 -6.29224E+03  2.38128E+04 -2.13571E+04  9.23320E+03 -2.54652E+04 -6.06853E+03
 -1.71516E+04 -1.64401E+04 -5.85652E+03 -1.74805E+04  3.79477E+03 -1.52801E+04  1.27440E+04 -1.51952E+04
  2.20105E+04 -1.17409E+04  2.86879E+04  1.18529E+03  2.14956E+04  1.69167E+04  4.22831E+03  3.30135E+04
 -1.61480E+04  2.79074E+04 -2.59950E+04  9.49541E+03 -2.00717E+04 -1.04364E+04 -4.08026E+03 -1.39244E+04
  2.60178E+03 -4.07086E+03 -2.91493E+03  5.48700E+03 -1.33269E+04  5.28697E+03 -1.36430E+04 -5.23927E+03
 -8.89260E+03 -1.55891E+04  4.69300E+03 -1.95563E+04  1.28384E+04 -1.43605E+04  1.50735E+04 -1.32613E+03
  9.46146E+03  1.11162E+04 -6.74456E+02  1.60367E+04 -1.06289E+04  9.11175E+03 -1.59036E+04 -3.16809E+03
 -1.18176E+04 -1.43916E+04 -1.33341E+03 -1.89685E+04  8.92396E+03 -1.53556E+04  1.62954E+04 -7.18918E+03
  1.46061E+04  5.03884E+02  1.06285E+04  3.96471E+03  5.50897E+03  7.25464E+02  7.77479E+03 -1.14058E+03
  1.39313E+04  2.76958E+03  1.48766E+04  1.28787E+04  9.31598E+03  2.50374E+04 -3.13472E+03  2.70230E+04
 -1.58310E+04  2.09423E+04 -2.47627E+04  9.81318E+03 -2.52388E+04 -1.73057E+03 -2.14841E+04 -1.40965E+04
 -1.01310E+04 -2.05498E+04  6.98079E+03 -1.94352E+04  1.67759E+04 -1.09058E+04  1.57780E+04  3.62789E+03
  6.40922E+03  1.13501E+04 -6.95385E+03  1.06523E+04 -1.34449E+04  2.89207E+03 -1.02317E+04 -8.23299E+03
  3.15647E+01 -1.24605E+04  6.46542E+03 -9.70951E+03  7.94266E+03 -1.33314E+03  1.50106E+03  5.12273E+03
 -5.65006E+03  1.45758E+03 -3.37475E+03 -4.32853E+03  6.01391E+02 -1.02148E+04  7.78040E+03 -1.01263E+04
  1.21661E+04 -4.60847E+03  1.16973E+04  2.85541E+03  1.02545E+04  9.54716E+03  4.92873E+03  1.41785E+04
 -1.49094E+03  1.60665E+04 -9.48546E+03  9.89922E+03 -1.07700E+04  2.73356E+03 -8.19460E+03 -1.91410E+03
 -4.49373E+03 -3.46012E+03 -8.69466E+02  1.68753E+03 -2.00629E+03  1.91805E+03 -3.66066E+03  3.57048E+03
 -7.84376E+03 -4.80885E+02 -8.68011E+03 -7.21216E+03 -3.48619E+03 -1.10575E+04  3.17120E+03 -8.74976E+03
  7.24268E+03 -3.65825E+03  5.01427E+03  2.03411E+03  7.39266E+02  2.94653E+03 -3.31586E+03 -4.97941E+01
 -3.47647E+03 -4.75674E+03 -1.11775E+03 -7.08128E+03  3.89213E+03 -7.80834E+03  9.61040E+03 -3.66640E+03
  1.12392E+04  5.31943E+02  8.56193E+03  5.93324E+03  1.86162E+03  8.36064E+03 -5.18493E+03  8.05408E+03
 -6.61692E+03  2.98487E+03 -3.47262E+03 -1.18241E+03  1.29809E+03 -1.83037E+03  4.53479E+03 -8.02557E+02
  3.93107E+03  3.24618E+03  1.35036E+03  6.01814E+03 -4.25541E+03  6.23732E+03 -7.44542E+03  1.73380E+03
 -4.62383E+03 -3.60144E+03  3.69352E+02 -6.23728E+03  3.70570E+03 -3.08535E+03  3.64709E+03  9.64637E+02
  5.09999E+02  3.09251E+03 -3.70606E+03  4.20102E+03 -4.57926E+03  2.40734E+03 -3.89290E+03 -7.93105E+02
 -2.72159E+03 -5.87370E+03  7.68035E+02 -6.38224E+03  5.62290E+03 -4.36600E+03  6.20706E+03  6.56302E+02
  4.54628E+03  4.78874E+03  2.03897E+02  6.82099E+03 -4.85688E+03  3.88096E+03 -4.90250E+03 -4.20521E+02
 -5.42403E+03 -4.82401E+03 -1.18749E+03 -4.79828E+03  2.44122E+03 -4.44467E+03  2.65092E+03 -2.86870E+03
  2.65372E+03  5.23512E+01  1.86302E+02  1.20538E+03  6.60917E+02  8.61697E+01 -3.89423E+02 -1.52185E+03
  3.16127E+03 -6.52573E+02  4.36891E+03  6.47024E+02  5.01606E+03  2.68013E+03  5.02608E+03  6.36553E+03
 -8.82314E+02  7.43502E+03 -7.02031E+03  6.00133E+03 -8.99400E+03  8.83316E+02 -6.91102E+03 -2.29494E+03
 -4.05416E+03 -5.90966E+03 -3.80479E+02 -4.48430E+03  1.90341E+03 -1.82511E+03  1.78150E+03 -1.99707E+03
  8.65821E+02 -1.33523E+03  1.91874E+03 -2.34820E+03  3.45105E+03 -1.24447E+03  3.46382E+03  8.30622E+02
  4.10521E+03  1.03938E+03  6.39466E+02  3.14407E+03 -1.35414E+03  2.46513E+03 -3.80941E+03  2.31713E+03
 -4.47187E+03 -1.21201E+03 -1.51377E+03 -2.95531E+03  6.52164E+02 -4.16568E+03  2.72366E+03 -4.75654E+03
  4.34488E+03 -3.00083E+03  6.03070E+03 -1.01473E+02  4.37954E+03  3.61995E+03  9.88061E+02  5.39761E+03
 -1.56957E+03  5.17052E+03 -2.74591E+03  1.71762E+03 -1.59826E+03 -9.11605E+02 -4.50021E+02 -5.28636E+02
 -4.97199E+02  4.85715E+02 -5.31961E+02  2.27722E+03 -2.50507E+03  9.23289E+02 -3.59886E+03 -4.30297E+01
 -1.29910E+03 -3.46774E+03  6.75730E+02 -3.87801E+03  2.34430E+03 -3.74696E+03  2.80192E+03 -1.00464E+03
  3.31445E+03  1.94171E+03  1.31565E+03  2.67610E+03 -5.77120E+02  3.80552E+03 -1.95700E+03  2.38364E+03
 -3.09036E+03  5.46731E+02 -2.99112E+03 -1.84586E+03 -5.19802E+01 -2.95351E+03  1.38719E+03 -1.92200E+03
  2.09069E+03 -1.28771E+03  1.37107E+03  2.35897E+02  3.67350E+02  1.20538E+03  7.17792E+02  4.73415E+02
  1.56744E+03  2.92760E+02  1.05401E+03  1.07153E+03  8.20488E+02  2.00601E+03  8.28003E+02  1.26868E+03
 -1.22877E+03  2.50475E+03 -1.99345E+03  3.43903E+03 -2.13025E+03  9.62185E+02 -3.43387E+03  2.17312E+01
 -1.23255E+03 -2.74240E+03  4.19336E+02 -3.75109E+03  1.42579E+03 -2.12757E+03  2.33539E+03 -7.92080E+02
  1.76644E+03  1.20899E+03  2.08960E+02  1.64408E+03 -5.16698E+02  9.72549E+02 -4.26171E+02 -6.50052E+01
 -5.26243E+02 -8.40107E+02  1.28487E+03 -1.12818E+03  1.12240E+03 -7.83322E+02  8.47577E+02  5.36803E+02
  5.32218E+02 -5.60127E+01  4.74424E+02 -3.70779E+02 -6.34621E+02  4.24254E+02  1.79165E+03 -2.98875E+02
 -4.22801E+01 -3.79912E+02  1.40791E+03  4.38556E+02  2.20296E+02  1.94829E+03 -4.53053E+02  2.46697E+03
 -1.13772E+03  6.40244E+02 -1.41839E+03  2.97471E+02 -1.59206E+03 -6.49075E+02 -9.37316E+01 -7.65975E+02
  3.48018E+02 -7.52690E+02  6.85053E+02 -6.24964E+02  4.69842E+02  1.29922E+03 -7.93101E+02  6.88286E+02
 -1.25427E+03  5.00345E+02 -8.83506E+02 -1.17992E+03 -2.96550E+02 -1.92232E+03  9.60793E+01 -1.06394E+03
  3.32152E+02 -1.81416E+02  5.28935E+02  3.33208E+02  1.13007E+03 -1.32058E+02  3.39828E+02  9.98937E+02
 -4.16868E+02 -1.52524E+02 -6.04049E+02 -1.47915E+01  5.15395E+02 -5.81596E+02  1.45006E+03 -3.38118E+02
  6.93666E+02  2.73153E+02  2.56125E+03  4.97077E+01  8.68119E+02  8.65021E+02  3.71242E+01  1.17592E+03
 -8.92507E+02 -7.72157E+01 -1.27726E+03  1.17889E+02 -3.90983E+02 -8.04310E+02  2.92104E+02 -2.29169E+02
  1.08407E+03 -5.21521E+02  4.40010E+02  8.28908E+02 -2.14870E+01  9.83841E+02  5.55769E+02  1.01186E+03
 -2.05529E+02  1.05007E+03 -3.21285E+02  1.12789E+02  7.79844E+01  1.13337E+02 -9.22315E+02  3.92019E+02
 -5.70599E+02  1.03226E+03 -1.62877E+03  4.15016E+02 -8.92447E+02  1.38254E+02 -1.75772E+03 -6.18320E+02
 -7.87861E+02 -1.47659E+03  8.36372E+01 -1.99650E+03  4.14594E+02 -1.87949E+03  1.76215E+03 -4.74382E+02
  1.68770E+03 -4.88333E+02  8.27271E+02  1.11563E+03 -7.77648E+02  5.58480E+02 -5.19715E+02  7.75428E+02
 -3.90359E+02  4.39732E+02 -5.58714E+02 -1.91749E+02 -4.79349E+02  2.85998E+02 -7.38598E+02 -1.04032E+02
 -1.02326E+03 -3.14492E+02 -7.20913E+02  1.03622E+02  2.71176E+02 -5.31587E+02 -2.98370E+02 -8.17052E+02
  1.22159E+03 -4.46906E+02 -2.52769E+02 -1.14230E+02  6.54639E+02  9.06342E+02 -7.51083E+02  9.92772E+02
 -8.58955E+02  1.70932E+03 -1.12038E+03  1.06777E+03 -1.08414E+03 -3.67449E+02 -7.14366E+02 -9.03935E+02
 -9.10155E+02 -7.37650E+02  1.91293E+02 -6.04782E+02  3.90792E+02 -3.45570E+02  3.35619E+02 -2.28993E+01
  4.44190E+02  2.33648E+02  1.04026E+02  3.94103E+02  4.92971E+01 -7.63170E+01  2.22429E+02  5.04131E+01
  4.52931E+02  1.48366E+02 -2.20544E+02  5.31662E+02 -1.07114E+02  5.10275E+01  6.14883E+02  1.73038E+02
 -4.73048E+02  2.48300E+02 -7.34637E+01  2.67321E+01 -5.02076E+02 -3.11664E+02  1.42195E+02 -7.85384E+02
  2.82388E+02 -1.52981E+02  1.44277E+02  1.03274E+02  3.39110E+02 -6.64738E+02  3.26337E+02  2.10304E+02
  3.45774E+02 -6.13600E+01 -2.61287E+02  2.87269E+02 -3.47287E+02  5.10206E+02 -4.46254E+02  5.00079E+01
 -1.50761E+02  6.90778E+01 -3.04926E+02 -1.57141E+01 -5.95103E+02  1.21499E+01 -7.08586E+02 -3.92987E+02
 -6.90500E+02  3.29607E+02 -1.94010E+02 -8.07691E+02  6.29830E+02 -1.04761E+03  5.53904E+02 -3.11600E+02
  1.87452E+02 -6.03640E+01 -6.06601E+02  8.16138E+01 -1.84567E+02  4.67883E+02 -2.36416E+02  6.75073E+02
