 $NMID ID='MM_0lb_SNR800_13hz_g60_71.RAW', FMTDAT='(8E13.5)'
 TRAMP=1., VOLUME=1. $END
  3.09784E+05  7.05364E+02  3.37819E+05  2.50791E+05  8.47778E+04  3.38537E+05 -1.32869E+05  2.51369E+05
 -1.90524E+05  8.36706E+04 -1.12266E+05 -3.25991E+04  6.12100E+02 -5.07268E+04  5.38778E+04 -1.52449E+02
  3.55872E+04  5.26145E+04 -1.66954E+04  7.59827E+04 -6.07756E+04  6.40284E+04 -8.46760E+04  3.24766E+04
 -8.21021E+04 -1.14482E+04 -5.76287E+04 -5.20483E+04 -1.50303E+04 -7.04271E+04  2.75735E+04 -4.61420E+04
  4.08056E+04  3.67382E+03  1.65885E+04  4.83146E+04 -3.46143E+04  4.78533E+04 -6.75131E+04  3.19178E+01
 -5.42000E+04 -5.73438E+04 -7.12492E+03 -7.81220E+04  3.44240E+04 -5.62653E+04  4.91199E+04 -1.80582E+04
  4.47931E+04  1.11860E+04  3.23402E+04  2.62291E+04  1.58046E+04  2.97148E+04 -5.38037E+03  2.76695E+04
 -2.22759E+04  1.24786E+04 -1.80743E+04 -5.33590E+03  6.33122E+03 -7.26568E+03  2.26578E+04  1.28872E+04
  7.16116E+03  3.61073E+04 -3.31707E+04  3.63756E+04 -6.48201E+04  2.11237E+03 -5.79987E+04 -4.34208E+04
 -1.26906E+04 -6.46502E+04  4.11136E+04 -4.65850E+04  5.98865E+04 -2.55618E+03  3.61079E+04  3.33708E+04
 -5.47005E+03  3.78984E+04 -3.13746E+04  1.76116E+04 -3.18242E+04 -3.99573E+03 -1.79865E+04 -1.14936E+04
 -8.86482E+03 -1.41339E+04 -6.22464E+02 -1.87272E+04  8.27309E+03 -2.33126E+04  1.57138E+04 -1.30005E+04
  1.07156E+04  5.64017E+03 -9.58110E+03  1.28675E+04 -2.23695E+04 -5.36554E+03 -8.54953E+03 -3.57762E+04
  2.42237E+04 -4.56090E+04  5.00894E+04 -2.03667E+04  4.72336E+04  1.99807E+04  1.64135E+04  4.60704E+04
 -1.63205E+04  3.49360E+04 -2.65143E+04  2.49880E+03 -1.08910E+04 -2.87334E+04  2.11834E+04 -3.54916E+04
  4.29324E+04 -1.00220E+04  3.82833E+04  2.44340E+04  1.98657E+04  4.87330E+04 -8.23652E+03  5.32249E+04
 -3.35629E+04  3.60181E+04 -4.47439E+04  1.06063E+04 -4.48931E+04 -1.75121E+04 -2.45379E+04 -4.02804E+04
  7.20876E+03 -3.98290E+04  3.31067E+04 -1.59323E+04  3.04922E+04  1.13335E+04  4.67916E+03  1.98736E+04
 -1.35472E+04  9.31450E+03 -1.06507E+04 -7.53784E+03  6.07028E+03 -1.08691E+04  1.88280E+04  5.79354E+03
  1.37661E+04  2.25759E+04 -5.37970E+03  2.59320E+04 -2.28759E+04  1.28754E+04 -2.97539E+04 -4.07916E+03
 -2.29105E+04 -1.79669E+04 -1.00084E+04 -2.25519E+04  4.19667E+03 -2.25386E+04  1.77452E+04 -2.05574E+04
  2.89493E+04 -1.31405E+04  3.50857E+04  4.21573E+03  2.52899E+04  2.22323E+04  4.42898E+03  3.87116E+04
 -1.87190E+04  3.19744E+04 -2.91287E+04  1.10737E+04 -2.15490E+04 -1.01158E+04 -4.95695E+03 -1.30033E+04
  1.39070E+03 -2.26328E+03 -6.14837E+03  7.08316E+03 -1.82511E+04  4.97753E+03 -1.83085E+04 -7.75680E+03
 -1.04188E+04 -2.07294E+04  5.56204E+03 -2.51497E+04  1.68505E+04 -1.83288E+04  1.99050E+04 -1.64658E+03
  1.24370E+04  1.43926E+04 -1.02371E+03  2.10429E+04 -1.48364E+04  1.19965E+04 -2.12407E+04 -4.72542E+03
 -1.53562E+04 -1.85431E+04 -1.77170E+03 -2.53449E+04  1.10624E+04 -2.08308E+04  2.12110E+04 -1.03917E+04
  1.96466E+04 -5.25728E+02  1.43574E+04  4.54714E+03  7.51031E+03  8.02974E+02  1.09503E+04 -1.58990E+03
  1.94039E+04  2.71276E+03  2.21119E+04  1.65111E+04  1.48372E+04  3.34206E+04 -3.00606E+03  3.86070E+04
 -2.19260E+04  3.18536E+04 -3.61552E+04  1.58332E+04 -3.82216E+04 -2.43849E+03 -3.12702E+04 -2.23587E+04
 -1.30538E+04 -3.16974E+04  1.10583E+04 -2.75951E+04  2.38298E+04 -1.39502E+04  2.11546E+04  6.29489E+03
  7.50980E+03  1.58470E+04 -1.02451E+04  1.38166E+04 -1.74276E+04  2.48556E+03 -1.36136E+04 -1.11555E+04
 -4.35278E+02 -1.69594E+04  8.94717E+03 -1.27440E+04  1.14716E+04 -1.54667E+03  2.50522E+03  7.37017E+03
 -7.79800E+03  3.01563E+03 -7.28035E+03 -6.02770E+03 -6.67084E+02 -1.56320E+04  1.03395E+04 -1.66533E+04
  1.91520E+04 -8.99803E+03  2.10063E+04  3.17356E+03  1.82743E+04  1.52509E+04  8.90068E+03  2.35980E+04
 -4.02083E+03  2.57673E+04 -1.64315E+04  1.59335E+04 -1.88048E+04  3.71007E+03 -1.28004E+04 -4.37032E+03
 -6.05557E+03 -5.90015E+03 -5.15949E+02  7.11756E+02 -2.58854E+03  2.85781E+03 -6.13726E+03  4.70815E+03
 -1.15882E+04 -4.19919E+02 -1.27860E+04 -9.91903E+03 -4.93344E+03 -1.63955E+04  5.08947E+03 -1.30028E+04
  1.07351E+04 -5.57504E+03  7.80591E+03  3.58899E+03 -7.37220E+01  4.90282E+03 -6.37005E+03 -5.35449E-01
 -5.95565E+03 -8.42760E+03 -1.08696E+03 -1.21814E+04  6.87175E+03 -1.33025E+04  1.65413E+04 -7.09029E+03
  1.91391E+04  1.73302E+03  1.39671E+04  1.08822E+04  2.85208E+03  1.48173E+04 -8.03651E+03  1.30713E+04
 -1.06791E+04  3.76536E+03 -5.28172E+03 -2.32302E+03  1.80790E+03 -3.40708E+03  6.68529E+03 -1.04254E+03
  5.97154E+03  5.71952E+03  8.93428E+02  1.04446E+04 -7.27819E+03  9.70795E+03 -1.25828E+04  2.43247E+03
 -8.43725E+03 -6.34620E+03  2.54876E+02 -1.09251E+04  6.85446E+03 -5.16308E+03  6.93210E+03  2.46011E+03
  1.68268E+03  7.39397E+03 -6.76542E+03  8.89782E+03 -9.98846E+03  4.03288E+03 -1.04946E+04 -3.76772E+03
 -5.83745E+03 -1.19258E+04  2.63802E+03 -1.37902E+04  1.14612E+04 -8.39277E+03  1.28670E+04  1.83026E+03
  7.70659E+03  1.00795E+04 -9.66664E+02  1.23998E+04 -8.52871E+03  6.83767E+03 -9.84703E+03 -7.92424E+02
 -8.70801E+03 -8.50341E+03 -1.32716E+03 -9.24169E+03  5.04521E+03 -7.75531E+03  5.44021E+03 -3.26306E+03
  3.97945E+03  1.50694E+03 -9.09216E+02  1.58428E+03  1.93303E+02 -2.52141E+03  1.79912E+03 -5.22892E+03
  8.36713E+03 -3.04545E+03  1.15767E+04  1.30817E+03  1.14804E+04  7.79527E+03  8.15618E+03  1.51594E+04
 -3.40769E+03  1.69058E+04 -1.43309E+04  1.28526E+04 -1.90179E+04  2.59817E+03 -1.50257E+04 -6.30512E+03
 -7.86756E+03 -1.29593E+04 -3.39262E+02 -1.04726E+04  4.07843E+03 -5.58613E+03  3.80662E+03 -4.10693E+03
  2.88052E+03 -2.64992E+03  3.31535E+03 -3.30721E+03  4.71844E+03 -2.63613E+03  6.14508E+03 -1.02790E+03
  8.09467E+03  1.82848E+03  3.55927E+03  7.29064E+03 -1.82086E+03  7.56686E+03 -8.43594E+03  6.26652E+03
 -1.06141E+04 -1.07265E+03 -6.07556E+03 -6.97523E+03 -3.80387E+02 -1.10336E+04  6.49005E+03 -1.11152E+04
  1.13993E+04 -6.64657E+03  1.39413E+04  1.30522E+03  9.75767E+03  9.36773E+03  1.62651E+03  1.24037E+04
 -5.17859E+03  1.01536E+04 -7.39813E+03  3.78230E+03 -4.68296E+03 -1.23794E+03 -1.77742E+03 -1.73713E+03
 -1.04769E+03  1.55260E+02 -1.52969E+03  2.59217E+03 -4.35357E+03  2.10884E+03 -7.28193E+03 -1.06974E+03
 -4.72334E+03 -7.14150E+03  3.03070E+02 -9.87009E+03  6.22784E+03 -9.34167E+03  9.37837E+03 -2.56390E+03
  9.61326E+03  4.89228E+03  4.64957E+03  8.50343E+03 -1.92292E+03  9.99684E+03 -6.87919E+03  6.07341E+03
 -9.00240E+03  4.30732E+02 -7.40357E+03 -5.75105E+03 -9.17737E+02 -7.51319E+03  3.97701E+03 -6.16549E+03
  5.89273E+03 -2.03636E+03  4.41175E+03  1.59058E+03  1.23790E+03  3.25456E+03  1.40306E+03  1.34833E+03
  2.06892E+03  8.76772E+02  2.54944E+03  1.23717E+03  2.76791E+03  3.87189E+03  2.40190E+03  4.67663E+03
 -2.29006E+03  7.27916E+03 -6.52538E+03  8.11193E+03 -9.04050E+03  2.12390E+03 -9.97350E+03 -3.59357E+03
 -4.75773E+03 -9.45070E+03  1.53493E+03 -1.05505E+04  5.83733E+03 -6.50597E+03  8.13204E+03 -2.17073E+03
  6.21364E+03  3.70122E+03  1.15919E+03  5.44334E+03 -2.53332E+03  3.47074E+03 -3.73896E+03 -5.36013E+02
 -1.54325E+03 -3.88742E+03  2.02085E+03 -4.05022E+03  3.98305E+03 -1.90059E+03  3.61317E+03  8.47897E+02
  2.17072E+03  1.43927E+03  1.26959E+03  1.31420E+03 -6.57213E+02  1.60602E+03  1.61211E+03 -1.56878E+02
  1.12134E+03 -4.08658E+02  3.49913E+03  1.75271E+03  1.57614E+03  5.23194E+03 -1.04920E+03  6.78479E+03
 -4.40520E+03  3.77205E+03 -5.91090E+03  1.24537E+03 -4.90697E+03 -2.00956E+03 -1.59084E+03 -3.36519E+03
  5.77948E+02 -3.56598E+03  2.29422E+03 -1.43849E+03  1.93119E+03  2.18114E+03 -8.61194E+02  3.10483E+03
 -3.66527E+03  1.82874E+03 -3.93148E+03 -2.32180E+03 -2.59883E+03 -4.88812E+03  8.03795E+02 -4.93472E+03
  2.28360E+03 -2.38920E+03  3.41694E+03 -3.66511E+02  3.03277E+03  1.16329E+03  5.51733E+02  3.00151E+03
 -1.92180E+03  5.75121E+02 -2.00826E+03 -1.34906E+03  1.04495E+03 -3.33317E+03  4.10547E+03 -3.14239E+03
  5.31379E+03  5.11742E+02  5.68501E+03  3.11826E+03  1.92591E+03  5.63478E+03 -1.80308E+03  5.41069E+03
 -4.39142E+03  1.83461E+03 -4.85645E+03 -5.59043E+02 -2.33456E+03 -3.96530E+03  7.51781E+02 -3.21265E+03
  3.39934E+03 -2.05140E+03  2.59060E+03  1.52025E+03  8.25460E+02  2.89335E+03 -2.15602E+02  2.96564E+03
 -1.26375E+03  2.11643E+03 -1.26361E+03  7.53472E+02 -3.45849E+02  8.66092E+02 -8.92765E+02  1.16006E+03
 -1.58987E+03  2.11379E+03 -4.18006E+03  2.20094E+03 -5.16148E+03  2.92107E+02 -6.37757E+03 -3.46320E+03
 -2.95656E+03 -7.19503E+03  1.32227E+03 -8.18159E+03  4.66359E+03 -6.54790E+03  7.50737E+03 -2.44677E+03
  7.24800E+03  1.21905E+03  3.96538E+03  4.52734E+03  1.94486E+02  5.00388E+03 -2.27474E+03  3.83991E+03
 -3.26796E+03  1.70258E+03 -1.90423E+03 -3.23869E+02 -9.25203E+02 -3.26343E+02 -7.48642E+02  2.22952E+02
 -1.58947E+03 -2.60233E+02 -1.30909E+03 -1.38263E+02 -3.26679E+02 -1.21308E+03 -3.08469E+02 -1.83131E+03
  2.62487E+03 -1.60069E+03  2.85286E+03 -1.18159E+02  3.88651E+03  2.57954E+03  6.43524E+02  5.00630E+03
 -2.56338E+03  6.16769E+03 -5.21877E+03  3.79012E+03 -6.23630E+03 -3.44254E+02 -4.62991E+03 -3.65739E+03
 -1.99017E+03 -4.77779E+03  1.36668E+03 -4.60922E+03  3.36381E+03 -2.31945E+03  3.33135E+03  3.09949E+02
  1.93715E+03  1.24013E+03 -1.23508E+02  1.36049E+03 -9.86431E+02 -3.67595E+02 -1.76450E+02 -8.90275E+02
  1.86806E+03 -3.24191E+02  1.82666E+03  7.96283E+02  9.91614E+02  1.84111E+03  5.03472E+01  2.24467E+03
 -2.34706E+03  2.51088E+03 -3.17949E+03  2.25888E+02 -3.05049E+03 -2.24871E+03 -6.00715E+02 -3.95861E+03
  2.17776E+03 -3.28986E+03  3.27722E+03 -6.55793E+02  3.29849E+03  3.15058E+02  2.44378E+03  3.14776E+03
  7.50009E+02  3.09867E+03 -1.31133E+03  2.51922E+03 -1.89032E+03  1.45121E+03 -1.55881E+03  4.85396E+02
 -7.44054E+02 -1.30027E+02 -1.31410E+03  4.74469E+02 -1.59419E+03  5.93687E+02 -2.58116E+03 -8.33071E+02
 -2.64725E+03 -1.05087E+03 -1.09448E+03 -3.15459E+03  1.79379E+03 -3.70350E+03  2.87970E+03 -9.18867E+02
  2.88590E+03  2.21953E+02  1.33443E+03  2.18239E+03 -3.15691E+02  2.60853E+03 -2.29388E+03  2.16753E+03
