 $NMID ID='MM_0lb_SNR800_14hz_g55_90.RAW', FMTDAT='(8E13.5)'
 TRAMP=1., VOLUME=1. $END
  3.09788E+05  3.64431E+02  3.37707E+05  2.50532E+05  8.44535E+04  3.38018E+05 -1.32668E+05  2.51144E+05
 -1.90439E+05  8.33982E+04 -1.12194E+05 -3.24121E+04  7.65128E+02 -5.04539E+04  5.34780E+04 -4.20942E+02
  3.54285E+04  5.27641E+04 -1.67471E+04  7.54883E+04 -6.08449E+04  6.36827E+04 -8.48044E+04  3.23279E+04
 -8.10291E+04 -1.14118E+04 -5.74012E+04 -5.17624E+04 -1.51322E+04 -7.00574E+04  2.74555E+04 -4.59201E+04
  4.00827E+04  3.78885E+03  1.61887E+04  4.80447E+04 -3.46871E+04  4.75530E+04 -6.67362E+04 -4.28112E+00
 -5.42457E+04 -5.71278E+04 -6.94203E+03 -7.74933E+04  3.44021E+04 -5.51825E+04  4.82449E+04 -1.72936E+04
  4.39149E+04  1.15479E+04  3.20602E+04  2.59570E+04  1.56295E+04  2.96963E+04 -5.20721E+03  2.73671E+04
 -2.21440E+04  1.27350E+04 -1.87843E+04 -5.16465E+03  5.79275E+03 -7.29267E+03  2.26751E+04  1.27889E+04
  7.40252E+03  3.56443E+04 -3.24952E+04  3.57236E+04 -6.37431E+04  2.17739E+03 -5.76284E+04 -4.32388E+04
 -1.23615E+04 -6.40426E+04  3.99303E+04 -4.54414E+04  5.89383E+04 -2.19712E+03  3.47685E+04  3.30903E+04
 -5.93267E+03  3.64441E+04 -3.04945E+04  1.65010E+04 -3.11432E+04 -4.24104E+03 -1.71086E+04 -1.14777E+04
 -8.63865E+03 -1.35124E+04 -6.95946E+02 -1.86325E+04  7.36361E+03 -2.27456E+04  1.55874E+04 -1.31080E+04
  1.14234E+04  5.64794E+03 -8.93930E+03  1.27491E+04 -2.18005E+04 -4.89237E+03 -8.27673E+03 -3.42007E+04
  2.31926E+04 -4.40255E+04  4.90249E+04 -1.98606E+04  4.56311E+04  1.99939E+04  1.57914E+04  4.47446E+04
 -1.60160E+04  3.36530E+04 -2.59957E+04  1.79403E+03 -1.00370E+04 -2.82145E+04  2.10934E+04 -3.42896E+04
  4.15569E+04 -9.20225E+03  3.65151E+04  2.38525E+04  1.87144E+04  4.73796E+04 -8.08012E+03  5.12825E+04
 -3.23053E+04  3.43848E+04 -4.30292E+04  9.77532E+03 -4.32647E+04 -1.68386E+04 -2.39114E+04 -3.87654E+04
  7.21356E+03 -3.87697E+04  3.18470E+04 -1.51182E+04  2.98403E+04  1.09046E+04  4.21296E+03  1.97265E+04
 -1.37356E+04  8.38633E+03 -1.02715E+04 -7.60226E+03  5.72792E+03 -1.07051E+04  1.80140E+04  5.86218E+03
  1.37031E+04  2.23432E+04 -5.74832E+03  2.53637E+04 -2.23531E+04  1.20013E+04 -2.85498E+04 -4.23649E+03
 -2.14773E+04 -1.73756E+04 -8.97640E+03 -2.13820E+04  4.14671E+03 -2.07784E+04  1.63334E+04 -1.90499E+04
  2.71766E+04 -1.31515E+04  3.36228E+04  3.25852E+03  2.41208E+04  2.05895E+04  4.38302E+03  3.71446E+04
 -1.81226E+04  3.10421E+04 -2.85701E+04  1.04629E+04 -2.07619E+04 -1.04934E+04 -4.40027E+03 -1.33899E+04
  1.53127E+03 -2.68123E+03 -5.07878E+03  7.01177E+03 -1.68958E+04  5.08855E+03 -1.67549E+04 -7.25252E+03
 -1.05986E+04 -1.93861E+04  5.68445E+03 -2.36825E+04  1.56426E+04 -1.71463E+04  1.88043E+04 -1.24651E+03
  1.16584E+04  1.34680E+04 -9.84685E+02  1.96220E+04 -1.31591E+04  1.11316E+04 -1.97727E+04 -4.22557E+03
 -1.44681E+04 -1.78684E+04 -1.96894E+03 -2.39575E+04  1.04976E+04 -1.93026E+04  1.97131E+04 -9.77301E+03
  1.86429E+04  2.59044E+02  1.31920E+04  4.52561E+03  6.98385E+03  5.52854E+02  9.93757E+03 -1.60759E+03
  1.80442E+04  2.67268E+03  2.01476E+04  1.52004E+04  1.32892E+04  3.14535E+04 -2.88531E+03  3.52866E+04
 -2.09354E+04  2.89961E+04 -3.32285E+04  1.43236E+04 -3.47337E+04 -2.50266E+03 -2.88111E+04 -2.00317E+04
 -1.23371E+04 -2.89045E+04  9.85014E+03 -2.56442E+04  2.20852E+04 -1.31208E+04  1.99806E+04  5.63704E+03
  7.54655E+03  1.48251E+04 -9.44783E+03  1.27151E+04 -1.64030E+04  2.58514E+03 -1.29574E+04 -1.04210E+04
 -1.89586E+02 -1.60914E+04  8.39866E+03 -1.19305E+04  1.06024E+04 -1.38464E+03  2.28236E+03  7.01563E+03
 -7.19298E+03  2.73526E+03 -6.07000E+03 -6.04084E+03 -7.77471E+02 -1.44103E+04  9.60249E+03 -1.48894E+04
  1.74102E+04 -8.02296E+03  1.89525E+04  2.82511E+03  1.66454E+04  1.37447E+04  7.56257E+03  2.13031E+04
 -3.75686E+03  2.33282E+04 -1.46839E+04  1.45610E+04 -1.67841E+04  3.80486E+03 -1.17688E+04 -3.87216E+03
 -5.32448E+03 -5.02397E+03 -8.12315E+02  8.69814E+02 -2.14505E+03  2.48210E+03 -5.28371E+03  4.75552E+03
 -1.11959E+04 -1.93197E+02 -1.14524E+04 -9.43472E+03 -4.41462E+03 -1.50327E+04  4.96332E+03 -1.16473E+04
  9.70566E+03 -4.79512E+03  6.91782E+03  3.24220E+03  1.16344E+02  4.62568E+03 -5.54882E+03  1.41085E+01
 -5.38829E+03 -7.48724E+03 -7.78906E+02 -1.09249E+04  6.31181E+03 -1.16224E+04  1.43412E+04 -5.92678E+03
  1.69926E+04  1.51148E+03  1.26008E+04  1.00428E+04  2.29748E+03  1.33005E+04 -7.27669E+03  1.16440E+04
 -9.29242E+03  3.68493E+03 -4.62819E+03 -2.57832E+03  1.38645E+03 -3.03234E+03  6.11042E+03 -1.26153E+03
  5.54485E+03  4.88374E+03  1.05521E+03  9.37522E+03 -6.61442E+03  9.33137E+03 -1.12678E+04  1.99257E+03
 -7.65721E+03 -5.87446E+03  1.96722E+02 -9.60519E+03  5.96200E+03 -5.09221E+03  6.14479E+03  2.36755E+03
  1.12862E+03  6.38334E+03 -5.82814E+03  7.70925E+03 -8.83620E+03  3.73961E+03 -8.43038E+03 -2.61987E+03
 -5.25560E+03 -1.03690E+04  2.35318E+03 -1.18312E+04  9.77270E+03 -7.33890E+03  1.08469E+04  1.91273E+03
  6.88537E+03  8.59599E+03 -6.81194E+02  1.11327E+04 -8.07336E+03  6.18760E+03 -8.73927E+03 -9.93765E+02
 -7.83273E+03 -7.57971E+03 -1.75545E+03 -8.44628E+03  4.40672E+03 -6.88991E+03  4.64282E+03 -3.29028E+03
  3.93848E+03  9.91070E+02 -3.77608E+02  1.56038E+03  3.01091E+02 -1.67405E+03  1.42742E+03 -4.40513E+03
  7.14010E+03 -2.55473E+03  1.02121E+04  1.15165E+03  9.73328E+03  6.55512E+03  7.30193E+03  1.27789E+04
 -2.68137E+03  1.53797E+04 -1.26020E+04  1.07637E+04 -1.68005E+04  2.36109E+03 -1.30339E+04 -5.05000E+03
 -6.78061E+03 -1.10423E+04 -1.72495E+02 -8.94887E+03  3.23377E+03 -4.44452E+03  3.42123E+03 -3.55694E+03
  2.07174E+03 -2.03186E+03  2.96018E+03 -2.90151E+03  4.37316E+03 -2.24188E+03  5.55295E+03 -6.82994E+02
  6.98855E+03  1.85897E+03  3.06893E+03  5.84649E+03 -1.68892E+03  6.31383E+03 -7.35359E+03  5.06282E+03
 -8.84658E+03 -1.12528E+03 -4.43078E+03 -6.00853E+03 -4.34327E+02 -9.37008E+03  5.25953E+03 -9.36282E+03
  9.91689E+03 -5.46977E+03  1.19937E+04  1.26218E+03  7.94265E+03  8.16890E+03  1.50960E+03  1.07519E+04
 -4.46447E+03  8.93378E+03 -6.12144E+03  3.18900E+03 -3.93794E+03 -1.24593E+03 -1.67267E+03 -1.08751E+03
 -9.28880E+02  2.56773E+02 -1.24288E+03  2.37210E+03 -4.16349E+03  1.74762E+03 -6.59999E+03 -8.13769E+02
 -3.61492E+03 -6.49183E+03  6.35060E+02 -8.29002E+03  5.26534E+03 -8.01988E+03  7.75026E+03 -2.53759E+03
  8.12425E+03  3.99544E+03  3.72795E+03  6.89362E+03 -1.75141E+03  8.52878E+03 -5.57421E+03  4.99540E+03
 -7.48400E+03  7.37834E+02 -5.95203E+03 -4.80542E+03 -5.66541E+02 -6.29781E+03  3.32077E+03 -5.00805E+03
  5.15921E+03 -2.15813E+03  3.39801E+03  1.42580E+03  1.23774E+03  2.62362E+03  1.42369E+03  1.40839E+03
  2.29931E+03  6.84886E+02  2.26694E+03  1.31811E+03  2.45997E+03  3.34782E+03  2.25442E+03  4.05261E+03
 -1.74493E+03  6.23927E+03 -5.35164E+03  6.76521E+03 -7.78916E+03  1.79118E+03 -8.29995E+03 -2.59117E+03
 -3.71750E+03 -7.78452E+03  1.20884E+03 -8.86093E+03  4.35426E+03 -5.38147E+03  6.44253E+03 -1.49884E+03
  4.99912E+03  3.18797E+03  1.15366E+03  4.60734E+03 -1.95330E+03  2.76370E+03 -2.61430E+03 -6.07745E+02
 -1.76145E+03 -3.50469E+03  2.02672E+03 -3.72439E+03  3.18825E+03 -1.78557E+03  3.09902E+03  5.78840E+02
  1.79948E+03  1.28630E+03  9.50993E+02  4.70824E+02 -4.46493E+02  1.11399E+03  2.08167E+03 -6.23800E+02
  9.36419E+02 -7.35555E+02  3.18590E+03  1.28994E+03  1.52109E+03  4.34284E+03 -5.35882E+02  5.63916E+03
 -3.51847E+03  3.16182E+03 -4.44271E+03  8.59146E+02 -4.44985E+03 -1.85597E+03 -1.41268E+03 -2.96049E+03
  6.42705E+02 -2.97297E+03  2.01885E+03 -1.71224E+03  1.61366E+03  1.68505E+03 -1.20997E+03  2.23302E+03
 -3.10359E+03  7.66535E+02 -3.23785E+03 -2.05652E+03 -1.77538E+03 -4.23637E+03  3.73167E+02 -3.93136E+03
  1.97287E+03 -2.02456E+03  2.71364E+03 -3.23339E+02  2.67266E+03  7.23891E+02  7.81918E+01  2.41854E+03
 -1.01812E+03  2.75565E+02 -1.71280E+03 -1.32335E+03  9.73863E+02 -2.83950E+03  3.70859E+03 -2.33352E+03
  3.88503E+03  2.51694E+02  4.99076E+03  2.58660E+03  1.71556E+03  4.19635E+03 -1.13150E+03  4.29924E+03
 -3.61839E+03  1.54615E+03 -3.63090E+03 -5.48693E+02 -1.93783E+03 -3.24120E+03  8.89573E+02 -2.30940E+03
  2.81695E+03 -1.52764E+03  2.17303E+03  1.29543E+03  9.08307E+02  2.49633E+03 -1.69037E+02  2.30320E+03
 -1.25406E+03  1.54975E+03 -1.17083E+03  4.58642E+02 -2.89217E+02  5.49459E+02 -9.09077E+02  1.11989E+03
 -1.42550E+03  1.92598E+03 -3.49716E+03  1.27758E+03 -4.43306E+03  1.57743E+02 -4.85056E+03 -2.59977E+03
 -2.73124E+03 -5.70585E+03  1.14296E+03 -6.61595E+03  3.58051E+03 -5.33384E+03  6.15805E+03 -1.91168E+03
  5.87083E+03  1.06438E+03  3.44236E+03  3.53298E+03 -1.92317E+01  4.17302E+03 -1.59725E+03  3.22548E+03
 -2.44350E+03  1.28472E+03 -1.49245E+03 -4.16066E+02 -5.51642E+02 -2.48567E+02 -8.27139E+02 -3.19225E+02
 -8.60065E+02  1.21679E+02 -1.18947E+03  1.16438E+02 -2.65056E+02 -1.23893E+03  1.32179E+02 -1.57014E+03
  2.26342E+03 -1.30266E+03  2.44220E+03  2.73645E+02  2.81869E+03  2.53328E+03  6.45134E+02  4.05153E+03
 -2.19996E+03  4.72449E+03 -4.22542E+03  2.78030E+03 -4.80969E+03 -4.63596E+02 -3.47162E+03 -3.18714E+03
 -1.77526E+03 -3.94279E+03  7.89694E+02 -3.62769E+03  2.72911E+03 -1.93990E+03  2.23217E+03 -5.67039E+01
  1.53945E+03  1.45137E+03 -1.60589E+02  1.13532E+03 -7.07419E+02 -1.08385E+02  4.28641E+01 -8.24839E+02
  1.60437E+03  4.52817E+01  1.21128E+03  6.64619E+02  7.99716E+02  1.77199E+03  3.46349E+02  1.54114E+03
 -1.78938E+03  1.63807E+03 -2.23327E+03  2.88815E+02 -2.22992E+03 -1.77119E+03  8.20888E+00 -3.04282E+03
  1.64978E+03 -2.42817E+03  2.75253E+03 -8.96068E+02  2.80115E+03 -6.57262E+01  1.67459E+03  2.36460E+03
  5.89375E+02  2.15140E+03 -1.03458E+03  1.97827E+03 -1.57853E+03  1.36797E+03 -1.28191E+03 -3.15845E+01
 -7.67325E+02 -1.05823E+02 -9.20544E+02  2.07798E+02 -1.24418E+03  4.09503E+02 -1.91595E+03 -2.69859E+02
 -1.78243E+03 -1.02948E+03 -8.10788E+02 -2.28305E+03  1.07229E+03 -3.17267E+03  2.18914E+03 -8.65963E+02
  2.47401E+03  1.76331E+02  8.05859E+02  1.45705E+03 -4.90897E+02  2.50492E+03 -1.69784E+03  1.45481E+03
