 $NMID ID='MM_0lb_SNR800_8hz_g40_16.RAW', FMTDAT='(8E13.5)'
 TRAMP=1., VOLUME=1. $END
  3.10058E+05  3.26883E+02  3.37836E+05  2.50599E+05  8.45886E+04  3.38297E+05 -1.32591E+05  2.51139E+05
 -1.90834E+05  8.33378E+04 -1.12430E+05 -3.20120E+04  4.67794E+02 -5.07093E+04  5.36512E+04 -1.16153E+02
  3.59306E+04  5.27422E+04 -1.68103E+04  7.59166E+04 -6.12191E+04  6.41867E+04 -8.51160E+04  3.27448E+04
 -8.26162E+04 -1.14400E+04 -5.81823E+04 -5.19311E+04 -1.50868E+04 -7.15170E+04  2.82933E+04 -4.68556E+04
  4.11345E+04  3.58784E+03  1.66875E+04  4.89111E+04 -3.47200E+04  4.84099E+04 -6.81532E+04 -1.19050E+02
 -5.50989E+04 -5.76144E+04 -7.31553E+03 -7.91524E+04  3.47197E+04 -5.70301E+04  4.94901E+04 -1.82519E+04
  4.54586E+04  1.17516E+04  3.29864E+04  2.65619E+04  1.59997E+04  3.02675E+04 -5.90878E+03  2.77001E+04
 -2.22325E+04  1.22703E+04 -1.80453E+04 -5.29731E+03  7.03703E+03 -7.34374E+03  2.33037E+04  1.42143E+04
  7.15533E+03  3.71492E+04 -3.39022E+04  3.66841E+04 -6.60531E+04  2.51590E+03 -5.89040E+04 -4.46454E+04
 -1.26322E+04 -6.58525E+04  4.13133E+04 -4.74272E+04  6.15595E+04 -3.17856E+03  3.67403E+04  3.46063E+04
 -5.27406E+03  3.96177E+04 -3.18160E+04  1.88496E+04 -3.31979E+04 -3.60898E+03 -1.89912E+04 -1.20187E+04
 -9.32867E+03 -1.49278E+04 -4.27132E+02 -1.98316E+04  8.60128E+03 -2.36334E+04  1.59336E+04 -1.26180E+04
  1.04310E+04  6.66439E+03 -1.05600E+04  1.33502E+04 -2.37509E+04 -6.78504E+03 -8.48150E+03 -3.71111E+04
  2.53735E+04 -4.68604E+04  5.21632E+04 -2.09413E+04  4.85689E+04  2.07249E+04  1.71428E+04  4.70665E+04
 -1.66682E+04  3.62256E+04 -2.77825E+04  2.38517E+03 -1.16588E+04 -2.90607E+04  2.11017E+04 -3.68330E+04
  4.40862E+04 -1.13974E+04  4.03959E+04  2.51356E+04  2.10573E+04  5.10917E+04 -8.08819E+03  5.62564E+04
 -3.59846E+04  3.84668E+04 -4.75869E+04  1.11680E+04 -4.74813E+04 -1.85714E+04 -2.63361E+04 -4.21673E+04
  7.82748E+03 -4.26946E+04  3.44723E+04 -1.72917E+04  3.24676E+04  1.15086E+04  5.34833E+03  2.04083E+04
 -1.38930E+04  9.84341E+03 -1.09605E+04 -7.77560E+03  5.69353E+03 -1.14108E+04  1.87878E+04  5.71604E+03
  1.50000E+04  2.27630E+04 -5.12663E+03  2.70661E+04 -2.28652E+04  1.45156E+04 -3.18958E+04 -2.95103E+03
 -2.54938E+04 -1.82013E+04 -1.19609E+04 -2.51485E+04  4.49001E+03 -2.58908E+04  2.03078E+04 -2.30236E+04
  3.24234E+04 -1.44269E+04  3.79516E+04  5.06256E+03  2.69812E+04  2.46559E+04  4.12356E+03  4.14350E+04
 -2.00191E+04  3.38221E+04 -3.08545E+04  1.20377E+04 -2.25901E+04 -1.00855E+04 -4.73956E+03 -1.27712E+04
  1.01149E+03 -9.55934E+02 -7.60976E+03  8.74762E+03 -2.01674E+04  5.08927E+03 -2.06168E+04 -9.56249E+03
 -1.20443E+04 -2.35682E+04  6.37010E+03 -2.78321E+04  1.87835E+04 -2.00994E+04  2.27938E+04 -1.98747E+03
  1.43665E+04  1.60503E+04 -1.19160E+03  2.39080E+04 -1.65118E+04  1.34998E+04 -2.37438E+04 -5.02195E+03
 -1.73464E+04 -2.15763E+04 -2.08395E+03 -2.83889E+04  1.25433E+04 -2.33237E+04  2.35289E+04 -1.22889E+04
  2.19826E+04 -4.67680E+02  1.59766E+04  5.34820E+03  8.32971E+03  1.49226E+03  1.24444E+04 -2.12703E+03
  2.25030E+04  2.92797E+03  2.58564E+04  1.85668E+04  1.75517E+04  3.82300E+04 -2.48361E+03  4.50788E+04
 -2.59082E+04  3.74865E+04 -4.24950E+04  1.95924E+04 -4.51000E+04 -3.39077E+03 -3.62896E+04 -2.66851E+04
 -1.45534E+04 -3.74257E+04  1.34470E+04 -3.27056E+04  2.83429E+04 -1.53453E+04  2.43427E+04  7.84335E+03
  8.21327E+03  1.90882E+04 -1.11195E+04  1.60599E+04 -2.05268E+04  2.62657E+03 -1.56616E+04 -1.29686E+04
 -5.37398E+02 -1.97541E+04  1.03066E+04 -1.46958E+04  1.33380E+04 -1.46853E+03  3.46168E+03  8.67539E+03
 -8.71014E+03  4.16077E+03 -9.32362E+03 -7.68134E+03 -2.44892E+03 -1.81796E+04  1.21072E+04 -2.03413E+04
  2.30176E+04 -1.12731E+04  2.67142E+04  3.39477E+03  2.34229E+04  1.81541E+04  1.08400E+04  2.95443E+04
 -5.69741E+03  3.18447E+04 -2.09968E+04  1.98209E+04 -2.30213E+04  4.12633E+03 -1.53197E+04 -5.93289E+03
 -6.76790E+03 -7.62209E+03 -6.37940E+02  5.35741E+02 -3.25488E+03  3.28892E+03 -8.08856E+03  5.36421E+03
 -1.46759E+04 -8.25731E+02 -1.47408E+04 -1.20958E+04 -5.70839E+03 -1.96182E+04  6.15556E+03 -1.59865E+04
  1.32343E+04 -6.62940E+03  8.92830E+03  3.78117E+03 -4.69286E+02  6.63949E+03 -8.44801E+03 -5.99847E+01
 -7.65132E+03 -1.00784E+04 -9.98241E+02 -1.59019E+04  9.14433E+03 -1.71919E+04  2.02279E+04 -9.17814E+03
  2.38205E+04  2.41271E+03  1.74600E+04  1.45882E+04  3.37456E+03  1.96438E+04 -1.01084E+04  1.61422E+04
 -1.29222E+04  4.82971E+03 -6.82209E+03 -3.88613E+03  2.48544E+03 -4.38423E+03  8.51166E+03 -9.28204E+02
  7.31071E+03  7.21974E+03  8.12609E+02  1.30638E+04 -9.52069E+03  1.25345E+04 -1.64217E+04  2.94485E+03
 -1.10357E+04 -8.62586E+03  3.44893E+02 -1.38494E+04  8.99098E+03 -6.99130E+03  9.50897E+03  3.73120E+03
  2.71245E+03  1.01172E+04 -8.56044E+03  1.22892E+04 -1.40783E+04  5.00361E+03 -1.46737E+04 -5.55080E+03
 -8.22733E+03 -1.63504E+04  3.31168E+03 -1.84888E+04  1.58970E+04 -1.09714E+04  1.76674E+04  3.33898E+03
  1.04398E+04  1.37921E+04 -2.21992E+03  1.67301E+04 -1.21790E+04  9.49228E+03 -1.31025E+04 -1.21869E+03
 -1.08924E+04 -1.12340E+04 -1.89031E+03 -1.23831E+04  6.54587E+03 -9.76689E+03  8.07364E+03 -3.44659E+03
  5.01167E+03  2.25015E+03 -1.22965E+03  2.43340E+03 -8.05695E+02 -3.38072E+03  2.90549E+03 -7.82544E+03
  1.18804E+04 -5.37587E+03  1.69656E+04  2.18484E+03  1.65740E+04  1.16999E+04  1.03847E+04  2.14106E+04
 -5.15807E+03  2.50166E+04 -2.05667E+04  1.83460E+04 -2.71935E+04  3.65399E+03 -2.18330E+04 -9.53699E+03
 -1.10418E+04 -1.80400E+04 -3.61442E+02 -1.48921E+04  5.46370E+03 -8.72835E+03  5.72854E+03 -5.74625E+03
  3.91302E+03 -3.16947E+03  4.13117E+03 -4.07309E+03  6.17328E+03 -4.11582E+03  8.19750E+03 -1.64442E+03
  1.10921E+04  2.56044E+03  6.30545E+03  1.02697E+04 -2.06232E+03  1.17800E+04 -1.21721E+04  8.95943E+03
 -1.55365E+04 -1.34500E+03 -9.76259E+03 -1.08233E+04 -1.20677E+03 -1.67053E+04  8.92262E+03 -1.65210E+04
  1.73358E+04 -8.86181E+03  2.03580E+04  2.86612E+03  1.41714E+04  1.45288E+04  2.22940E+03  1.88675E+04
 -7.77587E+03  1.50705E+04 -1.07923E+04  5.18277E+03 -7.75864E+03 -1.71301E+03 -3.16885E+03 -2.46027E+03
 -1.49741E+03 -3.32048E+02 -2.36038E+03  3.18901E+03 -6.45886E+03  2.87857E+03 -1.08457E+04 -1.53415E+03
 -7.81543E+03 -1.07875E+04  1.05957E+02 -1.56896E+04  9.28278E+03 -1.43492E+04  1.58317E+04 -4.90549E+03
  1.56411E+04  7.37086E+03  7.38891E+03  1.42322E+04 -3.05657E+03  1.58360E+04 -1.12759E+04  9.75715E+03
 -1.47827E+04  4.53525E+02 -1.12459E+04 -9.48790E+03 -1.44350E+03 -1.31817E+04  7.11942E+03 -9.98422E+03
  9.89382E+03 -2.93524E+03  7.06261E+03  2.94201E+03  2.48447E+03  4.84485E+03  7.83678E+02  1.84650E+03
  2.70513E+03  1.08387E+03  3.87344E+03  1.65722E+03  4.54914E+03  5.80479E+03  3.95618E+03  8.04516E+03
 -3.02541E+03  1.25817E+04 -1.12706E+04  1.26014E+04 -1.69316E+04  3.38029E+03 -1.66176E+04 -7.04850E+03
 -8.26937E+03 -1.61369E+04  2.32433E+03 -1.78086E+04  9.53502E+03 -1.13613E+04  1.31203E+04 -3.26215E+03
  1.03727E+04  6.03056E+03  3.08279E+03  9.23138E+03 -4.03236E+03  6.22487E+03 -6.54962E+03 -1.41960E+03
 -3.19336E+03 -6.84722E+03  3.30421E+03 -7.11792E+03  6.76863E+03 -3.58476E+03  6.36095E+03  1.46344E+03
  3.82398E+03  3.29404E+03  1.57212E+03  3.06464E+03 -8.55898E+02  2.42789E+03  1.34120E+03 -3.01123E+02
  2.66826E+03 -1.16929E+03  6.30250E+03  2.46212E+03  3.94759E+03  8.92558E+03 -1.22205E+03  1.15498E+04
 -8.05709E+03  7.69635E+03 -1.02607E+04  1.89678E+03 -9.26159E+03 -4.08468E+03 -3.81121E+03 -6.24118E+03
  1.21052E+03 -6.73238E+03  4.56307E+03 -3.23615E+03  3.98631E+03  3.03886E+03 -1.31737E+03  5.26518E+03
 -6.79811E+03  2.95361E+03 -8.00000E+03 -3.66335E+03 -4.35920E+03 -8.86858E+03  1.45313E+03 -9.25489E+03
  5.59531E+03 -5.58760E+03  6.31956E+03 -1.02121E+03  5.59416E+03  2.42735E+03  6.29917E+02  5.01619E+03
 -3.64969E+03  1.35771E+03 -4.37299E+03 -3.23509E+03  1.25170E+03 -6.88145E+03  8.20152E+03 -6.00306E+03
  1.05536E+04  1.16979E+03  1.06375E+04  7.23977E+03  2.77459E+03  1.11838E+04 -3.77583E+03  1.05078E+04
 -8.57400E+03  5.15052E+03 -9.62814E+03 -1.67625E+03 -4.90396E+03 -7.20481E+03  1.69379E+03 -6.33891E+03
  6.91312E+03 -3.42742E+03  5.86713E+03  2.92121E+03  2.22721E+03  6.36321E+03 -1.24931E+03  5.30032E+03
 -2.84865E+03  3.20097E+03 -2.63833E+03  1.00764E+03 -1.34939E+03  1.00250E+03 -1.71042E+03  1.78424E+03
 -2.73969E+03  4.54279E+03 -7.89269E+03  3.91913E+03 -1.13780E+04  6.73768E+02 -1.21441E+04 -7.53166E+03
 -6.24374E+03 -1.49517E+04  2.84069E+03 -1.70674E+04  1.07040E+04 -1.32993E+04  1.58835E+04 -4.92090E+03
  1.51901E+04  2.88209E+03  9.00591E+03  1.04431E+04  9.44870E+02  1.19480E+04 -4.50376E+03  8.26298E+03
 -6.70335E+03  3.03262E+03 -3.97585E+03 -1.54645E+03 -1.55129E+03 -1.55059E+03 -8.56764E+02 -4.44611E+02
 -1.54800E+03  4.90297E+02 -2.55514E+03 -5.59489E+02 -7.70931E+02 -2.52955E+03  4.14622E+02 -3.98520E+03
  4.76461E+03 -3.76776E+03  7.43056E+03 -8.79322E+01  7.88322E+03  6.16088E+03  2.39504E+03  1.19170E+04
 -5.45983E+03  1.40800E+04 -1.20915E+04  7.53709E+03 -1.44974E+04 -1.16792E+03 -1.05761E+04 -8.86579E+03
 -4.39033E+03 -1.21728E+04  2.82103E+03 -1.11648E+04  7.57317E+03 -5.68699E+03  7.63378E+03  1.57361E+02
  4.45225E+03  3.96931E+03 -4.72048E+02  3.44627E+03 -2.84232E+03 -2.22698E+02 -1.71406E+02 -2.69324E+03
  3.61980E+03 -1.66933E+03  5.02869E+03  1.66035E+03  3.64042E+03  4.61994E+03  9.62097E+01  6.66330E+03
 -5.52929E+03  5.65014E+03 -8.03110E+03  9.63698E+02 -7.65308E+03 -5.65759E+03 -1.31831E+03 -9.79738E+03
  5.53054E+03 -8.73606E+03  9.43241E+03 -2.72344E+03  8.99972E+03  2.02567E+03  5.21206E+03  7.28556E+03
  1.06112E+03  7.65896E+03 -2.77806E+03  6.40782E+03 -5.15323E+03  3.50735E+03 -4.09781E+03  7.63069E+02
 -2.25870E+03 -2.33596E+02 -2.47576E+03  1.37712E+03 -3.73524E+03  1.52678E+03 -5.90097E+03 -1.34081E+03
 -6.07813E+03 -4.54534E+03 -2.04057E+03 -7.93933E+03  3.74049E+03 -8.70242E+03  7.39463E+03 -4.05065E+03
  8.24535E+03  7.57047E+02  4.54427E+03  6.21774E+03 -4.17081E+02  8.64326E+03 -6.12211E+03  5.47745E+03
