 $NMID ID='MM_0lb_SNR800_8hz_g60_52.RAW', FMTDAT='(8E13.5)'
 TRAMP=1., VOLUME=1. $END
  3.09576E+05  4.84664E+02  3.37927E+05  2.51078E+05  8.52883E+04  3.38672E+05 -1.32857E+05  2.52199E+05
 -1.90650E+05  8.38583E+04 -1.12598E+05 -3.25496E+04  4.00564E+01 -5.07973E+04  5.38140E+04 -7.34273E+02
  3.60642E+04  5.25988E+04 -1.66057E+04  7.64519E+04 -6.10569E+04  6.49167E+04 -8.52788E+04  3.29081E+04
 -8.29352E+04 -1.20877E+04 -5.87296E+04 -5.32332E+04 -1.50617E+04 -7.17790E+04  2.82660E+04 -4.68360E+04
  4.16728E+04  3.17596E+03  1.68420E+04  4.87882E+04 -3.49711E+04  4.86499E+04 -6.86710E+04  2.14034E+02
 -5.53573E+04 -5.82017E+04 -7.45174E+03 -7.96706E+04  3.51166E+04 -5.81967E+04  5.05012E+04 -1.87007E+04
  4.61360E+04  1.17919E+04  3.33476E+04  2.67751E+04  1.61887E+04  3.14179E+04 -6.12786E+03  2.86952E+04
 -2.30422E+04  1.17593E+04 -1.79333E+04 -6.01272E+03  7.56616E+03 -7.03491E+03  2.40141E+04  1.41226E+04
  7.00592E+03  3.89483E+04 -3.47669E+04  3.78948E+04 -6.73410E+04  2.17636E+03 -5.97953E+04 -4.56126E+04
 -1.25616E+04 -6.72208E+04  4.20717E+04 -4.76887E+04  6.26903E+04 -2.20625E+03  3.84929E+04  3.49996E+04
 -5.13693E+03  4.08322E+04 -3.24131E+04  2.01178E+04 -3.47621E+04 -2.75190E+03 -2.05954E+04 -1.23055E+04
 -1.04455E+04 -1.57478E+04 -4.78556E+02 -2.03306E+04  8.87081E+03 -2.37052E+04  1.61524E+04 -1.22121E+04
  1.03742E+04  6.58246E+03 -1.14874E+04  1.32099E+04 -2.40180E+04 -7.20472E+03 -8.36600E+03 -3.90370E+04
  2.61806E+04 -4.81911E+04  5.34627E+04 -2.15506E+04  5.02903E+04  2.12755E+04  1.77626E+04  4.81737E+04
 -1.69973E+04  3.70310E+04 -2.88576E+04  2.93251E+03 -1.21895E+04 -3.00062E+04  2.18955E+04 -3.82023E+04
  4.58623E+04 -1.22092E+04  4.22313E+04  2.54925E+04  2.28418E+04  5.31824E+04 -8.25080E+03  5.85906E+04
 -3.69151E+04  4.00870E+04 -4.99148E+04  1.15445E+04 -4.96626E+04 -1.92021E+04 -2.72773E+04 -4.37210E+04
  7.93062E+03 -4.33255E+04  3.52440E+04 -1.81337E+04  3.37705E+04  1.18264E+04  6.03984E+03  2.16898E+04
 -1.38755E+04  1.04876E+04 -1.16445E+04 -7.20883E+03  5.79220E+03 -1.19471E+04  1.89350E+04  5.42299E+03
  1.60912E+04  2.27999E+04 -5.01377E+03  2.78621E+04 -2.38390E+04  1.53754E+04 -3.29486E+04 -2.36050E+03
 -2.74717E+04 -1.90326E+04 -1.31613E+04 -2.72409E+04  5.01422E+03 -2.82266E+04  2.13568E+04 -2.48734E+04
  3.44285E+04 -1.45329E+04  4.04518E+04  5.80363E+03  2.84522E+04  2.64587E+04  5.03006E+03  4.32284E+04
 -2.08785E+04  3.54147E+04 -3.19842E+04  1.25919E+04 -2.34287E+04 -1.02623E+04 -4.67762E+03 -1.22494E+04
  4.61569E+02 -5.64345E+00 -8.56713E+03  9.00993E+03 -2.18095E+04  5.53611E+03 -2.18574E+04 -1.12127E+04
 -1.28000E+04 -2.51770E+04  6.62862E+03 -2.93488E+04  2.03273E+04 -2.09922E+04  2.46706E+04 -1.90834E+03
  1.58815E+04  1.71336E+04 -1.33547E+03  2.44946E+04 -1.79090E+04  1.44032E+04 -2.54787E+04 -5.00899E+03
 -1.85751E+04 -2.26986E+04 -2.17299E+03 -3.06159E+04  1.31956E+04 -2.52440E+04  2.47446E+04 -1.33553E+04
  2.33437E+04 -2.91111E+02  1.73169E+04  5.77092E+03  9.32292E+03  1.99464E+03  1.36689E+04 -1.92989E+03
  2.40946E+04  2.71598E+03  2.80668E+04  1.92713E+04  1.88952E+04  4.06437E+04 -2.59961E+03  4.84932E+04
 -2.70463E+04  4.11255E+04 -4.64251E+04  2.15941E+04 -4.92815E+04 -3.52579E+03 -3.97948E+04 -2.90766E+04
 -1.51116E+04 -4.12941E+04  1.46612E+04 -3.62159E+04  3.08767E+04 -1.62932E+04  2.60729E+04  9.02576E+03
  8.73181E+03  2.07022E+04 -1.27334E+04  1.68380E+04 -2.16441E+04  2.39258E+03 -1.66270E+04 -1.41236E+04
 -2.78593E+02 -2.10996E+04  1.12601E+04 -1.57612E+04  1.48544E+04 -8.68456E+02  4.41159E+03  9.98533E+03
 -9.38806E+03  5.02581E+03 -1.03269E+04 -7.43237E+03 -2.48637E+03 -2.01735E+04  1.32842E+04 -2.17641E+04
  2.53577E+04 -1.31830E+04  2.96426E+04  3.85196E+03  2.60739E+04  2.06089E+04  1.21472E+04  3.27629E+04
 -6.36567E+03  3.47803E+04 -2.27526E+04  2.15237E+04 -2.52377E+04  4.10862E+03 -1.70150E+04 -6.49675E+03
 -6.87718E+03 -8.13517E+03 -6.30791E+02 -2.27582E+02 -2.91984E+03  3.91429E+03 -8.33649E+03  6.28496E+03
 -1.60661E+04 -1.32115E+03 -1.63985E+04 -1.26815E+04 -6.89461E+03 -2.11833E+04  7.14508E+03 -1.77811E+04
  1.43365E+04 -7.47660E+03  9.96450E+03  5.11008E+03 -4.81694E+02  7.23871E+03 -9.12426E+03 -2.17934E+01
 -8.36768E+03 -1.13176E+04 -1.24059E+03 -1.72469E+04  1.00901E+04 -1.87668E+04  2.28909E+04 -9.91344E+03
  2.66911E+04  2.56934E+03  1.93451E+04  1.65836E+04  3.61964E+03  2.19114E+04 -1.09489E+04  1.76451E+04
 -1.39615E+04  4.93665E+03 -7.00635E+03 -4.28982E+03  2.40862E+03 -5.48367E+03  9.45306E+03 -9.93930E+02
  8.49826E+03  8.16028E+03  1.35767E+03  1.44987E+04 -1.00008E+04  1.35296E+04 -1.79034E+04  3.26889E+03
 -1.24930E+04 -9.42931E+03  5.44843E+02 -1.56244E+04  1.02863E+04 -7.78615E+03  1.10411E+04  4.12879E+03
  2.70845E+03  1.14124E+04 -9.44578E+03  1.38296E+04 -1.61413E+04  5.52518E+03 -1.63574E+04 -6.00898E+03
 -9.47025E+03 -1.84065E+04  4.77112E+03 -2.13749E+04  1.81214E+04 -1.26752E+04  1.97533E+04  3.32271E+03
  1.13637E+04  1.55047E+04 -1.73529E+03  1.79936E+04 -1.34588E+04  9.86844E+03 -1.48170E+04 -1.67159E+03
 -1.21917E+04 -1.20616E+04 -1.96855E+03 -1.38899E+04  6.89077E+03 -1.10319E+04  9.09349E+03 -4.04258E+03
  5.71845E+03  2.58928E+03 -1.73062E+03  1.84116E+03 -7.95895E+02 -4.44203E+03  3.44874E+03 -9.33961E+03
  1.30802E+04 -6.18845E+03  1.95990E+04  2.28888E+03  1.81086E+04  1.27475E+04  1.14871E+04  2.48204E+04
 -5.70279E+03  2.83269E+04 -2.34685E+04  2.08725E+04 -3.04181E+04  3.90703E+03 -2.46485E+04 -1.07255E+04
 -1.23079E+04 -1.99863E+04 -3.73880E+02 -1.75189E+04  5.84036E+03 -9.97510E+03  6.31737E+03 -6.10267E+03
  4.62018E+03 -3.74501E+03  4.63132E+03 -4.22702E+03  6.30099E+03 -3.83628E+03  9.52115E+03 -2.00399E+03
  1.23915E+04  2.35363E+03  7.35523E+03  1.09069E+04 -2.38200E+03  1.36474E+04 -1.33780E+04  1.01998E+04
 -1.74239E+04 -7.56297E+02 -1.14965E+04 -1.23080E+04 -2.03728E+03 -1.86651E+04  1.00319E+04 -1.84374E+04
  1.95313E+04 -9.94674E+03  2.32107E+04  3.91216E+03  1.63329E+04  1.65755E+04  2.79408E+03  2.11758E+04
 -9.31465E+03  1.67420E+04 -1.25320E+04  5.67332E+03 -8.95293E+03 -1.73749E+03 -3.82170E+03 -2.82041E+03
 -1.76186E+03 -1.15867E+02 -2.47076E+03  2.96252E+03 -7.12788E+03  2.79431E+03 -1.19644E+04 -1.65040E+03
 -8.91222E+03 -1.19775E+04 -2.53134E+02 -1.76197E+04  1.05927E+04 -1.64678E+04  1.84029E+04 -5.36525E+03
  1.75463E+04  8.30222E+03  8.21267E+03  1.61380E+04 -3.34822E+03  1.80121E+04 -1.31937E+04  1.15932E+04
 -1.69478E+04  4.81819E+02 -1.31287E+04 -1.08025E+04 -1.58202E+03 -1.50287E+04  7.84838E+03 -1.15112E+04
  1.15093E+04 -3.54013E+03  7.27941E+03  3.16659E+03  2.92666E+03  5.61026E+03  1.33338E+03  2.90877E+03
  3.57235E+03  1.27323E+03  4.70616E+03  2.41186E+03  5.58143E+03  5.52028E+03  4.10650E+03  9.76448E+03
 -3.63432E+03  1.42083E+04 -1.27699E+04  1.36066E+04 -1.87713E+04  3.87273E+03 -1.91352E+04 -8.22931E+03
 -9.62342E+03 -1.84498E+04  3.16342E+03 -2.04891E+04  1.16561E+04 -1.28309E+04  1.54300E+04 -3.45791E+03
  1.11651E+04  6.53365E+03  2.82637E+03  1.07092E+04 -5.51432E+03  6.68142E+03 -7.74886E+03 -1.41922E+03
 -3.64934E+03 -7.87264E+03  4.31782E+03 -8.11594E+03  8.22878E+03 -4.21024E+03  7.88166E+03  1.17492E+03
  4.37847E+03  3.87055E+03  1.72179E+03  3.50476E+03 -1.33893E+03  2.23684E+03  1.74449E+03 -3.86389E+02
  3.00169E+03 -9.82749E+02  7.52802E+03  3.33668E+03  4.44763E+03  9.84949E+03 -1.65090E+03  1.31434E+04
 -8.85464E+03  9.02901E+03 -1.16432E+04  2.55049E+03 -1.09834E+04 -4.22414E+03 -4.75168E+03 -7.51036E+03
  7.58738E+02 -7.27823E+03  4.88073E+03 -2.69878E+03  4.00124E+03  3.57175E+03 -1.46438E+03  5.86520E+03
 -7.72276E+03  3.34822E+03 -9.26946E+03 -4.43056E+03 -5.54616E+03 -9.83134E+03  1.16781E+03 -1.06122E+04
  6.39256E+03 -6.37004E+03  8.18385E+03 -8.71200E+02  6.21487E+03  2.79974E+03  7.69481E+02  6.07132E+03
 -3.54138E+03  2.24903E+03 -4.85568E+03 -3.81001E+03  1.72002E+03 -8.53781E+03  9.52144E+03 -6.74420E+03
  1.25598E+04  1.44737E+03  1.14698E+04  8.68015E+03  4.02275E+03  1.32323E+04 -4.81603E+03  1.16569E+04
 -1.07483E+04  5.34770E+03 -1.08955E+04 -1.54304E+03 -5.77952E+03 -8.35874E+03  2.00679E+03 -8.21097E+03
  7.70449E+03 -4.03405E+03  6.76967E+03  3.33847E+03  2.22419E+03  7.21769E+03 -1.60524E+03  6.22229E+03
 -3.41696E+03  3.56634E+03 -2.85421E+03  1.18434E+03 -1.38966E+03  1.21347E+03 -1.72834E+03  2.70463E+03
 -3.30911E+03  5.15417E+03 -8.35568E+03  4.33405E+03 -1.30729E+04  1.05601E+02 -1.39166E+04 -8.67930E+03
 -7.21729E+03 -1.68830E+04  3.51258E+03 -1.96531E+04  1.28203E+04 -1.51974E+04  1.83214E+04 -5.63151E+03
  1.70347E+04  3.74697E+03  1.06106E+04  1.18992E+04  1.56371E+03  1.38581E+04 -5.59780E+03  1.01360E+04
 -7.55116E+03  3.58407E+03 -4.95522E+03 -1.76940E+03 -1.55042E+03 -1.55852E+03 -9.48635E+02 -7.37462E+01
 -1.98075E+03  2.46594E+02 -2.44385E+03 -5.85004E+02 -1.39869E+03 -3.36299E+03  4.48871E+02 -4.73404E+03
  5.70586E+03 -4.34139E+03  8.37787E+03  3.83926E+02  9.37152E+03  7.58132E+03  2.56958E+03  1.35501E+04
 -5.72571E+03  1.53218E+04 -1.43008E+04  9.02212E+03 -1.67102E+04 -1.37207E+03 -1.24504E+04 -1.03591E+04
 -5.37915E+03 -1.42704E+04  3.66813E+03 -1.26345E+04  9.35172E+03 -7.17543E+03  9.47749E+03  9.87817E+01
  4.80125E+03  4.63589E+03 -3.44945E+02  3.91486E+03 -2.61015E+03 -9.12206E+01  1.38918E+02 -3.29437E+03
  4.10957E+03 -1.77147E+03  5.38700E+03  1.75822E+03  3.70290E+03  5.69845E+03 -1.95609E+02  7.07800E+03
 -5.90810E+03  6.04479E+03 -9.29229E+03  7.11067E+02 -8.32473E+03 -6.79088E+03 -1.36794E+03 -1.13968E+04
  6.78614E+03 -9.52365E+03  1.07670E+04 -3.07326E+03  1.07525E+04  3.20036E+03  6.19552E+03  8.25297E+03
  1.52329E+03  9.19143E+03 -3.19267E+03  7.77647E+03 -5.96038E+03  3.90773E+03 -4.86157E+03  4.02533E+02
 -2.42296E+03 -1.97606E+02 -2.76285E+03  8.76567E+02 -4.49535E+03  1.55083E+03 -7.25166E+03 -1.28777E+03
 -7.01121E+03 -5.23084E+03 -2.20564E+03 -8.86518E+03  4.56298E+03 -9.70891E+03  8.19853E+03 -4.45236E+03
  8.74020E+03  1.17053E+03  5.57742E+03  6.98599E+03 -2.80562E+02  9.59383E+03 -7.57778E+03  5.99775E+03
