 $NMID ID='MM_0lb_SNR800_12hz_g45_58.RAW', FMTDAT='(8E13.5)'
 TRAMP=1., VOLUME=1. $END
  3.09787E+05  2.86529E+02  3.37687E+05  2.50595E+05  8.49599E+04  3.37964E+05 -1.32291E+05  2.51493E+05
 -1.90585E+05  8.34614E+04 -1.11928E+05 -3.27957E+04  9.84823E+02 -5.05233E+04  5.36967E+04 -5.86530E+01
  3.55757E+04  5.29252E+04 -1.67650E+04  7.54110E+04 -6.06859E+04  6.37359E+04 -8.46067E+04  3.19614E+04
 -8.13330E+04 -1.15661E+04 -5.74849E+04 -5.16220E+04 -1.49983E+04 -7.01172E+04  2.75961E+04 -4.60893E+04
  4.04616E+04  3.76264E+03  1.64732E+04  4.79452E+04 -3.44500E+04  4.76635E+04 -6.68925E+04 -6.83728E+02
 -5.37671E+04 -5.69555E+04 -6.88397E+03 -7.74484E+04  3.40938E+04 -5.55341E+04  4.84034E+04 -1.73336E+04
  4.39291E+04  1.16470E+04  3.23477E+04  2.63385E+04  1.62722E+04  2.98782E+04 -5.24275E+03  2.73436E+04
 -2.24793E+04  1.22047E+04 -1.85604E+04 -5.37792E+03  5.54827E+03 -7.53185E+03  2.23431E+04  1.27225E+04
  7.29235E+03  3.56351E+04 -3.25475E+04  3.60301E+04 -6.42408E+04  2.21235E+03 -5.77143E+04 -4.33977E+04
 -1.26903E+04 -6.37727E+04  4.03123E+04 -4.55399E+04  5.88737E+04 -2.01219E+03  3.48242E+04  3.31159E+04
 -5.97329E+03  3.71510E+04 -3.06294E+04  1.67104E+04 -3.11452E+04 -4.04628E+03 -1.75481E+04 -1.16087E+04
 -8.52936E+03 -1.35559E+04 -6.19863E+02 -1.84644E+04  8.06629E+03 -2.32807E+04  1.57345E+04 -1.32429E+04
  1.11334E+04  5.63060E+03 -8.66875E+03  1.30354E+04 -2.21473E+04 -5.09395E+03 -8.33254E+03 -3.46848E+04
  2.35423E+04 -4.44568E+04  4.91248E+04 -2.01221E+04  4.61689E+04  1.95676E+04  1.60309E+04  4.52648E+04
 -1.57640E+04  3.41983E+04 -2.60756E+04  2.16997E+03 -1.01343E+04 -2.80311E+04  2.08962E+04 -3.49221E+04
  4.22872E+04 -9.69682E+03  3.70003E+04  2.41163E+04  1.86620E+04  4.78329E+04 -8.03995E+03  5.20459E+04
 -3.27555E+04  3.49581E+04 -4.38353E+04  1.00046E+04 -4.42412E+04 -1.69926E+04 -2.41810E+04 -3.93347E+04
  7.52312E+03 -3.92466E+04  3.21563E+04 -1.55486E+04  3.05077E+04  1.08302E+04  4.29816E+03  1.95413E+04
 -1.32627E+04  8.59703E+03 -1.06095E+04 -7.75245E+03  6.10061E+03 -1.07124E+04  1.82100E+04  5.94711E+03
  1.36865E+04  2.24044E+04 -5.96053E+03  2.52736E+04 -2.28252E+04  1.22828E+04 -2.91579E+04 -4.34700E+03
 -2.20743E+04 -1.76120E+04 -8.94535E+03 -2.15787E+04  3.86148E+03 -2.14651E+04  1.71596E+04 -1.95071E+04
  2.79161E+04 -1.30799E+04  3.42509E+04  3.66958E+03  2.45793E+04  2.13823E+04  4.02397E+03  3.76807E+04
 -1.82842E+04  3.12889E+04 -2.86751E+04  1.10004E+04 -2.10250E+04 -1.00513E+04 -4.15126E+03 -1.32819E+04
  1.43122E+03 -2.56691E+03 -5.52987E+03  7.29975E+03 -1.73010E+04  4.98110E+03 -1.76088E+04 -7.63582E+03
 -1.06253E+04 -2.02068E+04  5.66164E+03 -2.43982E+04  1.60397E+04 -1.76120E+04  1.95800E+04 -1.39141E+03
  1.22168E+04  1.41216E+04 -1.04183E+03  2.01781E+04 -1.41810E+04  1.13464E+04 -2.03870E+04 -4.34553E+03
 -1.49252E+04 -1.82740E+04 -1.91651E+03 -2.45288E+04  1.08684E+04 -2.02237E+04  2.02331E+04 -1.03604E+04
  1.92125E+04  2.78689E+02  1.37964E+04  4.51161E+03  7.40394E+03  1.06977E+03  1.02745E+04 -1.73447E+03
  1.90570E+04  2.74570E+03  2.11944E+04  1.60713E+04  1.40453E+04  3.23673E+04 -2.80948E+03  3.71751E+04
 -2.12794E+04  3.01433E+04 -3.48261E+04  1.54081E+04 -3.70757E+04 -3.22962E+03 -2.98361E+04 -2.12523E+04
 -1.26834E+04 -3.04065E+04  1.08959E+04 -2.71472E+04  2.33902E+04 -1.34752E+04  2.05248E+04  6.26131E+03
  7.64291E+03  1.54321E+04 -9.89566E+03  1.35536E+04 -1.72952E+04  2.73194E+03 -1.30821E+04 -1.08722E+04
 -5.80899E+02 -1.68580E+04  8.71666E+03 -1.22847E+04  1.10981E+04 -1.14758E+03  2.69099E+03  7.07026E+03
 -7.34132E+03  3.69755E+03 -6.80453E+03 -5.86368E+03 -6.90515E+02 -1.47204E+04  9.96207E+03 -1.57486E+04
  1.82353E+04 -8.16665E+03  2.04640E+04  3.11054E+03  1.73035E+04  1.49039E+04  8.36305E+03  2.33338E+04
 -3.63973E+03  2.48684E+04 -1.62963E+04  1.54929E+04 -1.78882E+04  3.56917E+03 -1.26439E+04 -4.41358E+03
 -5.70585E+03 -5.45117E+03 -7.76676E+02  1.09660E+03 -2.57351E+03  2.51437E+03 -5.97947E+03  4.83774E+03
 -1.15583E+04 -4.95781E+02 -1.23107E+04 -9.84265E+03 -4.71818E+03 -1.63849E+04  5.35687E+03 -1.26565E+04
  1.07780E+04 -5.22383E+03  7.26544E+03  3.21538E+03  2.76064E+02  4.59152E+03 -6.03876E+03  5.83117E+01
 -5.94330E+03 -8.14538E+03 -9.66697E+02 -1.21128E+04  6.89730E+03 -1.28236E+04  1.54078E+04 -6.67672E+03
  1.87443E+04  1.48899E+03  1.38613E+04  1.13326E+04  2.52730E+03  1.45527E+04 -7.75403E+03  1.24756E+04
 -1.00826E+04  4.05908E+03 -5.53708E+03 -2.75400E+03  1.93160E+03 -3.31156E+03  6.94225E+03 -1.01084E+03
  6.12661E+03  5.69557E+03  1.29033E+03  9.97239E+03 -6.90900E+03  9.69611E+03 -1.20907E+04  2.46497E+03
 -8.14833E+03 -6.35609E+03  1.99945E+02 -1.04692E+04  6.81108E+03 -5.50621E+03  7.03560E+03  2.32894E+03
  1.58667E+03  7.17371E+03 -6.62719E+03  8.88689E+03 -9.74863E+03  3.93742E+03 -1.00796E+04 -3.42327E+03
 -5.90630E+03 -1.14549E+04  2.97066E+03 -1.35640E+04  1.13742E+04 -8.23927E+03  1.23773E+04  1.83777E+03
  7.75745E+03  9.95158E+03 -1.11120E+03  1.20706E+04 -8.80563E+03  7.21932E+03 -9.43317E+03 -7.58444E+02
 -8.63503E+03 -8.29942E+03 -1.47032E+03 -9.00386E+03  4.31875E+03 -7.59244E+03  5.89498E+03 -3.63683E+03
  4.19634E+03  1.48941E+03 -9.18550E+02  1.37064E+03 -3.84280E+02 -1.81152E+03  1.32703E+03 -4.97523E+03
  8.10344E+03 -3.12184E+03  1.15109E+04  1.18574E+03  1.17035E+04  7.80093E+03  8.10686E+03  1.50399E+04
 -3.72411E+03  1.71773E+04 -1.45765E+04  1.25477E+04 -1.88227E+04  2.58100E+03 -1.45003E+04 -6.39098E+03
 -7.67835E+03 -1.22991E+04 -6.07938E+02 -1.05746E+04  3.65258E+03 -5.38457E+03  3.74770E+03 -4.16255E+03
  2.53870E+03 -2.37852E+03  3.05177E+03 -2.92492E+03  4.66074E+03 -2.62448E+03  5.76336E+03 -7.12751E+02
  7.99876E+03  1.36113E+03  3.80572E+03  6.70358E+03 -2.22885E+03  7.94099E+03 -8.20000E+03  5.79728E+03
 -1.02635E+04 -1.60407E+03 -6.18256E+03 -6.98267E+03 -7.69787E+02 -1.08723E+04  6.15517E+03 -1.11098E+04
  1.15932E+04 -6.30910E+03  1.39895E+04  1.78968E+03  9.68209E+03  9.21843E+03  1.68643E+03  1.24965E+04
 -5.09811E+03  1.06261E+04 -7.35554E+03  3.79534E+03 -4.61912E+03 -1.46799E+03 -1.90338E+03 -1.34875E+03
 -6.41279E+02  1.63410E+02 -1.77267E+03  2.60840E+03 -4.26148E+03  1.85929E+03 -7.35417E+03 -8.08510E+02
 -4.67306E+03 -7.78084E+03  3.09495E+02 -1.00660E+04  6.30903E+03 -8.87733E+03  9.62049E+03 -2.95413E+03
  9.91618E+03  4.73926E+03  4.57186E+03  8.48510E+03 -2.19868E+03  1.00903E+04 -6.95526E+03  6.33016E+03
 -8.85433E+03  6.63071E+02 -6.99941E+03 -6.06232E+03 -8.53528E+02 -8.42455E+03  4.08038E+03 -5.71224E+03
  6.16635E+03 -2.18334E+03  4.14961E+03  1.59701E+03  1.45653E+03  3.24768E+03  1.27447E+03  1.46782E+03
  2.02504E+03  8.73474E+02  2.52676E+03  1.25789E+03  3.12457E+03  3.58545E+03  3.01218E+03  4.82905E+03
 -2.14917E+03  7.80413E+03 -6.76221E+03  8.14457E+03 -9.78104E+03  1.91548E+03 -1.03068E+04 -3.73892E+03
 -4.71811E+03 -9.64149E+03  1.18743E+03 -1.08376E+04  5.52182E+03 -6.58806E+03  8.06237E+03 -2.02021E+03
  6.29835E+03  3.72807E+03  1.64374E+03  5.80728E+03 -2.77598E+03  3.75168E+03 -3.69495E+03 -5.38431E+02
 -1.98546E+03 -4.08975E+03  2.26357E+03 -4.14115E+03  4.07995E+03 -2.39609E+03  3.81545E+03  9.35553E+02
  1.98263E+03  1.95037E+03  9.52723E+02  1.32396E+03 -5.84089E+02  1.93283E+03  1.39883E+03 -5.60005E+02
  1.20023E+03 -7.68404E+02  4.07372E+03  1.51127E+03  1.99421E+03  5.37008E+03 -7.18342E+02  6.70132E+03
 -4.77964E+03  3.91796E+03 -6.31507E+03  9.65501E+02 -5.73268E+03 -2.23799E+03 -1.91430E+03 -3.25320E+03
  4.68636E+02 -3.71832E+03  2.64872E+03 -1.80957E+03  1.93641E+03  2.24249E+03 -9.19691E+02  2.82575E+03
 -4.08643E+03  1.75882E+03 -4.29112E+03 -2.65980E+03 -2.27926E+03 -5.11941E+03  7.00946E+02 -5.24876E+03
  2.74714E+03 -2.82239E+03  3.40839E+03 -1.20355E+02  3.42043E+03  1.35252E+03  7.76916E+02  2.79267E+03
 -1.71784E+03  7.85860E+02 -2.32522E+03 -1.83831E+03  1.05202E+03 -3.72240E+03  4.98137E+03 -3.16198E+03
  5.40829E+03  6.43319E+02  6.17282E+03  3.71510E+03  1.97324E+03  5.87881E+03 -1.88074E+03  5.83427E+03
 -4.84704E+03  2.55329E+03 -5.10559E+03 -4.47646E+02 -2.63358E+03 -3.60612E+03  1.04948E+03 -3.36629E+03
  3.93246E+03 -1.76347E+03  3.10781E+03  1.45592E+03  7.84071E+02  3.34928E+03 -3.55117E+02  2.90423E+03
 -1.35747E+03  2.12609E+03 -1.27475E+03  7.97467E+02 -6.77114E+02  7.17905E+02 -1.16055E+03  1.11982E+03
 -1.20001E+03  2.45680E+03 -4.14517E+03  2.01471E+03 -5.77279E+03  2.72104E+02 -7.01302E+03 -3.74656E+03
 -3.63535E+03 -7.60844E+03  1.48916E+03 -9.18117E+03  4.95543E+03 -7.32527E+03  8.71817E+03 -2.84738E+03
  8.13883E+03  1.30942E+03  4.60469E+03  5.52785E+03  2.66041E+02  5.93014E+03 -2.37873E+03  4.39911E+03
 -3.31818E+03  1.82195E+03 -2.02213E+03 -7.57482E+02 -8.55814E+02 -2.93275E+02 -3.95639E+02  8.70565E+01
 -1.66118E+03  1.85238E+02 -1.51184E+03  2.92580E+02 -4.11116E+02 -1.39637E+03 -3.41533E+02 -2.23721E+03
  2.93881E+03 -1.86405E+03  3.27762E+03 -2.46859E+01  3.89192E+03  3.28521E+03  2.94265E+02  5.78950E+03
 -2.70581E+03  6.61886E+03 -5.90808E+03  3.93134E+03 -7.13129E+03 -5.97582E+02 -5.51385E+03 -4.45000E+03
 -2.03575E+03 -5.62597E+03  1.12650E+03 -5.20782E+03  3.61800E+03 -2.51595E+03  3.88189E+03  3.87672E+02
  2.30135E+03  1.93176E+03 -2.42070E+02  1.35415E+03 -1.19976E+03 -3.07353E+01 -1.00996E+02 -1.21488E+03
  1.50236E+03 -6.12458E+02  2.10636E+03  6.11955E+02  1.30768E+03  2.16373E+03  3.72479E+02  2.55494E+03
 -2.54224E+03  2.74815E+03 -3.35030E+03  4.17926E+02 -3.22744E+03 -2.51608E+03 -7.01788E+02 -4.65725E+03
  2.72017E+03 -3.85445E+03  4.32470E+03 -1.04927E+03  4.03571E+03  1.05976E+03  2.40606E+03  3.34657E+03
  6.30033E+02  3.26241E+03 -1.61958E+03  2.93507E+03 -2.03350E+03  1.77780E+03 -1.78823E+03  1.89204E+02
 -9.01542E+02 -4.38713E+02 -1.23703E+03  5.27240E+02 -1.65498E+03  4.70181E+02 -2.71242E+03 -6.51930E+02
 -2.95914E+03 -1.52713E+03 -8.98397E+02 -3.92368E+03  1.60878E+03 -4.37262E+03  3.33934E+03 -1.46951E+03
  3.66594E+03  4.88789E+02  2.07291E+03  2.36202E+03 -1.12555E+02  3.66383E+03 -2.38314E+03  2.49876E+03
