 $NMID ID='MM_0lb_SNR800_20hz_g45_96.RAW', FMTDAT='(8E13.5)'
 TRAMP=1., VOLUME=1. $END
  3.09919E+05  3.54660E+02  3.37239E+05  2.50188E+05  8.43439E+04  3.37262E+05 -1.32154E+05  2.50052E+05
 -1.89495E+05  8.24106E+04 -1.10548E+05 -3.28855E+04  1.72546E+03 -5.01497E+04  5.39381E+04  4.58390E+02
  3.50804E+04  5.28012E+04 -1.70825E+04  7.47633E+04 -6.02124E+04  6.24302E+04 -8.24828E+04  3.13510E+04
 -7.92204E+04 -1.08829E+04 -5.60934E+04 -4.97737E+04 -1.50973E+04 -6.78979E+04  2.65486E+04 -4.46398E+04
  3.88372E+04  3.68944E+03  1.53596E+04  4.68634E+04 -3.38079E+04  4.59329E+04 -6.47690E+04 -5.82286E+02
 -5.14986E+04 -5.56926E+04 -6.13912E+03 -7.43702E+04  3.29707E+04 -5.23244E+04  4.56616E+04 -1.61269E+04
  4.10761E+04  1.10107E+04  3.03002E+04  2.41615E+04  1.58893E+04  2.78257E+04 -4.50113E+03  2.64758E+04
 -2.15054E+04  1.30022E+04 -1.91878E+04 -3.84346E+03  3.85298E+03 -7.60241E+03  2.08588E+04  1.04131E+04
  7.79967E+03  3.23770E+04 -2.99249E+04  3.35366E+04 -6.02549E+04  2.33262E+03 -5.44933E+04 -4.07472E+04
 -1.24643E+04 -5.98973E+04  3.77399E+04 -4.24166E+04  5.44589E+04 -2.04330E+03  3.10454E+04  3.00008E+04
 -6.71166E+03  3.21137E+04 -2.79437E+04  1.26444E+04 -2.67292E+04 -5.65154E+03 -1.34715E+04 -9.93197E+03
 -6.78871E+03 -1.07435E+04 -9.71569E+02 -1.62008E+04  6.18785E+03 -2.21455E+04  1.49106E+04 -1.38137E+04
  1.24307E+04  3.93576E+03 -5.82967E+03  1.32439E+04 -1.86223E+04 -1.80895E+03 -8.02065E+03 -2.93297E+04
  1.98630E+04 -3.98127E+04  4.36535E+04 -1.81450E+04  4.10418E+04  1.79289E+04  1.38404E+04  4.08435E+04
 -1.49892E+04  3.03924E+04 -2.27093E+04  6.14203E+02 -7.61698E+03 -2.57823E+04  2.02507E+04 -3.03633E+04
  3.71567E+04 -6.68415E+03  3.01253E+04  2.24386E+04  1.47867E+04  4.10218E+04 -7.59616E+03  4.37476E+04
 -2.74390E+04  2.84971E+04 -3.59451E+04  8.08240E+03 -3.68743E+04 -1.45394E+04 -2.04080E+04 -3.29968E+04
  6.92083E+03 -3.30681E+04  2.82746E+04 -1.21287E+04  2.59954E+04  1.06071E+04  2.57781E+03  1.74451E+04
 -1.30829E+04  7.16474E+03 -9.32419E+03 -7.92965E+03  6.20146E+03 -9.97833E+03  1.70500E+04  6.65876E+03
  1.19211E+04  2.14046E+04 -7.06303E+03  2.28703E+04 -2.12487E+04  8.40021E+03 -2.41253E+04 -6.86437E+03
 -1.54819E+04 -1.59761E+04 -4.83194E+03 -1.55565E+04  3.54957E+03 -1.28949E+04  1.15130E+04 -1.31650E+04
  1.98021E+04 -1.10572E+04  2.68453E+04  5.27987E+02  2.05382E+04  1.52598E+04  4.20035E+03  3.10493E+04
 -1.55525E+04  2.68369E+04 -2.51471E+04  9.19733E+03 -1.92342E+04 -1.06580E+04 -3.75961E+03 -1.43921E+04
  3.02644E+03 -4.37530E+03 -1.88823E+03  4.83333E+03 -1.14938E+04  5.34537E+03 -1.24219E+04 -4.41841E+03
 -8.22955E+03 -1.43599E+04  4.12168E+03 -1.82218E+04  1.14700E+04 -1.32599E+04  1.35475E+04 -1.43497E+03
  8.23704E+03  9.84160E+03 -5.42365E+02  1.45373E+04 -9.38519E+03  7.92561E+03 -1.41031E+04 -3.17439E+03
 -1.08208E+04 -1.32385E+04 -1.28910E+03 -1.78974E+04  7.98886E+03 -1.42663E+04  1.51350E+04 -6.39702E+03
  1.33996E+04  8.93072E+02  9.55954E+03  3.69998E+03  4.65635E+03  4.44579E+02  6.84141E+03 -1.10072E+03
  1.26962E+04  2.65369E+03  1.32022E+04  1.16955E+04  8.09014E+03  2.31994E+04 -3.16045E+03  2.43390E+04
 -1.45618E+04  1.81198E+04 -2.20640E+04  8.36348E+03 -2.24277E+04 -1.67463E+03 -1.94339E+04 -1.24333E+04
 -9.31079E+03 -1.82498E+04  6.09811E+03 -1.71720E+04  1.52735E+04 -1.03142E+04  1.46025E+04  2.92599E+03
  6.43729E+03  1.03376E+04 -6.35685E+03  1.00423E+04 -1.21392E+04  2.58003E+03 -9.73477E+03 -7.36782E+03
  2.85653E+01 -1.17125E+04  5.64671E+03 -8.79028E+03  7.16837E+03 -1.33754E+03  8.87724E+02  4.34318E+03
 -5.07603E+03  6.95925E+02 -2.98871E+03 -4.16560E+03  1.04097E+03 -9.29614E+03  7.56566E+03 -8.85509E+03
  1.09718E+04 -3.91012E+03  1.02760E+04  2.71903E+03  9.06240E+03  8.41529E+03  4.41100E+03  1.23431E+04
 -1.25651E+03  1.39374E+04 -8.23568E+03  8.97116E+03 -9.77382E+03  2.78555E+03 -7.65624E+03 -1.55447E+03
 -4.29756E+03 -2.73628E+03 -9.22904E+02  1.33434E+03 -1.85253E+03  1.68908E+03 -3.04927E+03  3.43260E+03
 -7.47811E+03 -3.39618E+02 -8.00149E+03 -6.68308E+03 -3.40699E+03 -1.07580E+04  3.36712E+03 -7.64799E+03
  6.92756E+03 -3.45989E+03  4.79755E+03  1.83309E+03  7.10965E+02  2.82681E+03 -2.90559E+03 -2.14695E+02
 -2.84890E+03 -4.83688E+03 -6.88277E+02 -6.18463E+03  3.46511E+03 -6.80493E+03  8.66811E+03 -3.38531E+03
  1.05109E+04  4.28962E+02  8.03515E+03  5.11387E+03  1.70263E+03  7.46956E+03 -4.73192E+03  7.34496E+03
 -6.24623E+03  2.56232E+03 -3.04630E+03 -9.02753E+02  1.14478E+03 -1.53664E+03  4.44087E+03 -1.00887E+03
  3.93852E+03  3.18780E+03  9.99080E+02  5.58124E+03 -3.87694E+03  5.44969E+03 -7.31328E+03  1.38509E+03
 -4.26205E+03 -3.44437E+03  5.36392E+02 -5.72812E+03  3.08377E+03 -2.52565E+03  2.97915E+03  9.40153E+02
  2.89228E+02  2.49595E+03 -3.75066E+03  4.08042E+03 -3.91159E+03  2.08297E+03 -3.46734E+03 -9.33313E+02
 -2.30124E+03 -5.02853E+03  8.25799E+02 -5.88941E+03  4.85486E+03 -4.11366E+03  5.26497E+03  6.56027E+02
  4.38500E+03  4.40956E+03  3.21066E+02  6.45248E+03 -4.19447E+03  3.53796E+03 -4.56602E+03 -2.90315E+02
 -4.86536E+03 -4.45275E+03 -1.23874E+03 -4.29836E+03  2.15345E+03 -4.63401E+03  2.27012E+03 -2.74676E+03
  2.64336E+03 -1.63308E+02  2.57587E+01  1.04632E+03  8.27591E+02  2.53809E+02 -2.88798E+02 -1.62617E+03
  3.07491E+03 -5.65653E+02  4.07438E+03  6.67835E+02  4.37844E+03  2.19935E+03  4.77279E+03  5.90833E+03
 -1.06876E+03  6.99114E+03 -6.45554E+03  5.30602E+03 -8.33175E+03  9.80597E+02 -6.63478E+03 -2.00409E+03
 -3.77709E+03 -5.60766E+03 -5.87536E+02 -4.25929E+03  1.83860E+03 -1.63002E+03  1.37570E+03 -1.69756E+03
  8.70195E+02 -1.20063E+03  1.81246E+03 -1.99328E+03  3.05572E+03 -1.15610E+03  3.10050E+03  7.17788E+02
  3.97128E+03  9.81897E+02  4.74933E+02  2.87694E+03 -1.48559E+03  1.85281E+03 -3.95614E+03  1.97874E+03
 -3.92340E+03 -1.16822E+03 -1.21971E+03 -2.55809E+03  6.98450E+02 -3.99548E+03  2.81248E+03 -4.55036E+03
  4.23424E+03 -2.79585E+03  5.48488E+03  7.73773E+01  3.98221E+03  3.08389E+03  8.60898E+02  5.03205E+03
 -1.78913E+03  5.14077E+03 -2.69973E+03  1.54832E+03 -1.24263E+03 -1.27515E+03 -3.39262E+02 -3.40646E+02
 -4.81513E+02  2.79517E+02 -7.85722E+02  1.94300E+03 -2.30121E+03  9.99950E+02 -3.45648E+03 -4.77015E+02
 -1.13058E+03 -3.65301E+03  8.02239E+02 -3.72504E+03  2.39481E+03 -3.45660E+03  2.70951E+03 -9.27126E+02
  3.25214E+03  1.93235E+03  1.55085E+03  2.49619E+03 -5.16391E+02  3.51512E+03 -1.90512E+03  2.07990E+03
 -3.12041E+03  7.09707E+02 -2.85758E+03 -1.71169E+03 -1.22970E+02 -2.50987E+03  1.01269E+03 -2.01667E+03
  2.00852E+03 -9.30647E+02  1.37464E+03  3.10429E+02  2.63357E+02  1.22156E+03  5.55749E+02  4.05786E+02
  1.52953E+03  4.85159E+02  1.19839E+03  1.06746E+03  7.91810E+02  2.07042E+03  1.01795E+03  1.17158E+03
 -1.07325E+03  2.03506E+03 -1.91315E+03  3.33633E+03 -2.08452E+03  1.18853E+03 -3.17145E+03  4.62376E+01
 -1.34369E+03 -2.72902E+03  5.46215E+02 -3.83952E+03  1.14131E+03 -1.99186E+03  2.33963E+03 -7.42250E+02
  1.88450E+03  1.52340E+03  3.71544E+02  1.39449E+03 -3.27798E+02  7.95701E+02 -8.10816E+02  2.41460E+02
 -4.43141E+02 -1.26083E+03  9.91943E+02 -1.02227E+03  8.23497E+02 -7.72623E+02  9.89190E+02  3.85227E+02
  5.03013E+02  2.25971E+02  4.20948E+02 -1.64238E+02 -7.21987E+01  2.99009E+02  1.60769E+03 -2.41275E+02
 -5.39831E+01 -2.74436E+02  1.30309E+03  2.08738E+02 -1.38506E+02  1.92193E+03 -3.04577E+02  2.28041E+03
 -1.09685E+03  6.57119E+02 -1.51584E+03  3.62567E+02 -1.77501E+03 -7.35791E+02 -1.59609E+00 -6.45532E+02
  4.58587E+02 -8.04331E+02  7.07155E+02 -7.30718E+02  7.03192E+02  1.30389E+03 -7.11990E+02  1.01557E+03
 -1.16797E+03  5.31094E+02 -8.82407E+02 -9.92993E+02 -3.06200E+02 -1.70111E+03  3.38818E+02 -1.27736E+03
  3.77080E+02 -6.15318E+02  4.64238E+02  2.61538E+02  1.00947E+03 -1.50950E+02  1.63752E+02  7.92266E+02
 -2.06733E+02 -1.02829E+02 -6.27276E+02 -9.61481E+01  4.50100E+02 -4.43057E+02  1.35988E+03 -6.50542E+02
  9.37249E+02  2.02801E+02  2.36292E+03  3.62362E+02  9.89923E+02  1.11787E+03  4.83098E+01  1.24690E+03
 -1.15264E+03  2.59244E+02 -1.23901E+03 -1.07410E+02 -4.59432E+02 -1.05876E+03  2.14211E+02 -4.66461E+02
  1.29595E+03 -4.93304E+02  8.21341E+02  5.75227E+02  1.08439E+02  1.22351E+03  3.87644E+02  1.08071E+03
 -2.92924E+01  9.54472E+02 -2.24083E+02  4.27673E+01  4.04165E+02  5.24607E+02 -8.55807E+02  3.55989E+02
 -7.79001E+02  8.77747E+02 -1.58514E+03  3.56220E+02 -1.20142E+03 -5.08279E+01 -1.93374E+03 -5.56160E+02
 -7.55018E+02 -1.71950E+03  5.07281E+02 -2.34406E+03  7.20429E+02 -2.11737E+03  1.79909E+03 -9.29143E+02
  1.99954E+03 -9.14500E+01  7.69325E+02  1.14952E+03 -5.41026E+02  9.41710E+02 -5.86670E+02  8.63844E+02
 -8.11579E+02  7.62250E+02 -7.06883E+02 -1.18906E+02 -6.87278E+02  3.69746E+02 -5.63926E+02  2.56264E+00
 -8.98940E+02 -1.04503E+02 -8.71558E+02 -1.64170E+01  4.50952E+02 -5.71595E+02 -4.61343E+02 -6.79525E+02
  8.98540E+02 -2.92531E+02  1.99379E+02 -5.48011E+01  7.67650E+02  1.03706E+03 -2.36267E+02  9.13244E+02
 -6.78153E+02  1.96175E+03 -1.25558E+03  9.99572E+02 -1.27625E+03 -1.12814E+02 -6.62734E+02 -8.24557E+02
 -8.61854E+02 -6.20570E+02  1.62794E+02 -9.18435E+02  4.90296E+02 -3.49969E+02  3.05702E+02  6.94047E+01
  4.58623E+02  1.59634E+02  1.03068E+02  1.55755E+02 -1.45733E+02  2.58025E+02 -2.58219E+02 -2.40809E+02
  6.28360E+02  2.82866E+02  1.15792E+02  3.93136E+02 -2.39047E+02  4.39740E+02  5.72816E+02  1.40854E+02
 -3.39475E+02  4.40376E+02 -1.25816E+02  1.13357E+02 -4.96443E+02 -1.06724E+02  2.10540E+02 -9.84517E+02
  2.93032E+02 -2.60219E+02  2.85589E+02 -8.33585E+01  5.67520E+02 -5.36558E+02  9.07822E+01  3.61475E+02
  4.45587E+02  2.19310E+02 -1.66562E+02  4.26966E+02 -2.83448E+02  6.10640E+02 -2.65331E+02 -1.38544E+01
 -1.94102E+02 -9.54967E+01 -1.02248E+02  1.65248E+02 -3.45257E+02  1.80228E+02 -6.82507E+02 -3.56685E+02
 -9.70290E+02  6.71293E+02 -4.09751E+02 -7.34117E+02  4.40901E+02 -1.32124E+03  4.45889E+02 -9.03110E+01
  2.99255E+02  2.63518E+02 -4.77233E+02  5.88815E+01 -8.10672E+01  6.64232E+02  2.72236E+01  8.04045E+02
