 $NMID ID='MM_0lb_SNR800_7hz_g40_90.RAW', FMTDAT='(8E13.5)'
 TRAMP=1., VOLUME=1. $END
  3.09667E+05  8.62001E+01  3.37952E+05  2.50503E+05  8.56480E+04  3.38939E+05 -1.32919E+05  2.51789E+05
 -1.90999E+05  8.36849E+04 -1.12817E+05 -3.23808E+04 -3.09384E+01 -5.07342E+04  5.32341E+04 -4.50047E+02
  3.55427E+04  5.27162E+04 -1.61895E+04  7.61450E+04 -6.11948E+04  6.43680E+04 -8.57078E+04  3.27603E+04
 -8.28455E+04 -1.17846E+04 -5.79680E+04 -5.30386E+04 -1.53088E+04 -7.13178E+04  2.83817E+04 -4.70403E+04
  4.12987E+04  4.05314E+03  1.65851E+04  4.85605E+04 -3.52546E+04  4.84655E+04 -6.81915E+04  1.71086E+02
 -5.48833E+04 -5.76412E+04 -7.49718E+03 -7.93661E+04  3.49127E+04 -5.73400E+04  5.01681E+04 -1.85821E+04
  4.54821E+04  1.14888E+04  3.31860E+04  2.64701E+04  1.62726E+04  3.09132E+04 -6.33181E+03  2.81860E+04
 -2.20557E+04  1.19320E+04 -1.75079E+04 -6.18720E+03  7.46582E+03 -7.18856E+03  2.38168E+04  1.38361E+04
  7.30109E+03  3.82297E+04 -3.39297E+04  3.73542E+04 -6.68430E+04  1.94597E+03 -5.94398E+04 -4.48350E+04
 -1.24657E+04 -6.62271E+04  4.27381E+04 -4.80631E+04  6.19116E+04 -2.68755E+03  3.70067E+04  3.45711E+04
 -5.68958E+03  4.04395E+04 -3.17684E+04  1.94659E+04 -3.39560E+04 -3.36270E+03 -2.00249E+04 -1.21693E+04
 -9.76541E+03 -1.54758E+04 -9.39337E+02 -2.01356E+04  8.73489E+03 -2.35908E+04  1.59972E+04 -1.26323E+04
  1.05937E+04  6.29432E+03 -1.13996E+04  1.27525E+04 -2.39201E+04 -7.18400E+03 -8.71550E+03 -3.82582E+04
  2.57894E+04 -4.79492E+04  5.30082E+04 -2.03928E+04  4.93542E+04  2.08878E+04  1.76318E+04  4.77789E+04
 -1.71910E+04  3.66527E+04 -2.78986E+04  2.60345E+03 -1.22721E+04 -2.98718E+04  2.12803E+04 -3.79135E+04
  4.51009E+04 -1.18655E+04  4.13419E+04  2.50457E+04  2.17837E+04  5.20572E+04 -8.31107E+03  5.76905E+04
 -3.65399E+04  3.94325E+04 -4.87503E+04  1.15233E+04 -4.85500E+04 -1.83420E+04 -2.70270E+04 -4.26410E+04
  7.88712E+03 -4.31511E+04  3.47232E+04 -1.80910E+04  3.33310E+04  1.11271E+04  5.55163E+03  2.13668E+04
 -1.39593E+04  9.74307E+03 -1.15566E+04 -7.74306E+03  5.59322E+03 -1.16696E+04  1.89047E+04  5.52040E+03
  1.53256E+04  2.29603E+04 -4.94404E+03  2.73032E+04 -2.36645E+04  1.50612E+04 -3.27794E+04 -2.62392E+03
 -2.71765E+04 -1.90020E+04 -1.26026E+04 -2.61399E+04  4.15701E+03 -2.70828E+04  2.13746E+04 -2.41668E+04
  3.35615E+04 -1.50971E+04  3.91782E+04  5.53848E+03  2.79414E+04  2.59153E+04  4.56040E+03  4.28069E+04
 -2.03195E+04  3.51850E+04 -3.13116E+04  1.22159E+04 -2.32203E+04 -1.04914E+04 -5.05347E+03 -1.26537E+04
  3.94033E+02 -8.03549E+02 -8.46346E+03  8.32666E+03 -2.10481E+04  5.02890E+03 -2.13181E+04 -1.05344E+04
 -1.25787E+04 -2.45576E+04  6.21958E+03 -2.93715E+04  1.95861E+04 -2.06150E+04  2.37427E+04 -2.19138E+03
  1.54333E+04  1.67416E+04 -1.43056E+03  2.44233E+04 -1.71709E+04  1.40346E+04 -2.47999E+04 -5.20794E+03
 -1.80669E+04 -2.16260E+04 -2.19346E+03 -2.94108E+04  1.35146E+04 -2.44650E+04  2.43284E+04 -1.25081E+04
  2.31585E+04 -7.66737E+02  1.70726E+04  5.89231E+03  9.07608E+03  1.73568E+03  1.28971E+04 -2.28282E+03
  2.34682E+04  2.80811E+03  2.76719E+04  1.93880E+04  1.88285E+04  3.97539E+04 -2.27086E+03  4.72362E+04
 -2.68652E+04  3.95577E+04 -4.47347E+04  2.05906E+04 -4.81153E+04 -3.52750E+03 -3.86063E+04 -2.79922E+04
 -1.50494E+04 -3.99153E+04  1.45796E+04 -3.47521E+04  3.00007E+04 -1.61657E+04  2.57676E+04  8.49452E+03
  8.51314E+03  1.97064E+04 -1.21099E+04  1.63079E+04 -2.13838E+04  2.55449E+03 -1.61872E+04 -1.38362E+04
 -7.37057E+02 -2.02832E+04  1.15056E+04 -1.54165E+04  1.35410E+04 -1.19715E+03  3.74079E+03  9.42017E+03
 -9.27759E+03  4.56175E+03 -1.04666E+04 -7.26025E+03 -2.45790E+03 -1.91610E+04  1.26939E+04 -2.12227E+04
  2.47341E+04 -1.22898E+04  2.91259E+04  3.38423E+03  2.54438E+04  1.99225E+04  1.17554E+04  3.18120E+04
 -5.69845E+03  3.41244E+04 -2.23102E+04  2.10468E+04 -2.45067E+04  4.07569E+03 -1.68422E+04 -6.52660E+03
 -6.99047E+03 -7.59789E+03 -8.00154E+02 -3.69711E+02 -3.17574E+03  3.77374E+03 -8.19602E+03  6.29147E+03
 -1.49387E+04 -6.12868E+02 -1.58046E+04 -1.30070E+04 -6.72347E+03 -2.11312E+04  7.12879E+03 -1.66822E+04
  1.41898E+04 -7.10742E+03  1.00661E+04  5.10054E+03 -5.25163E+02  6.62463E+03 -8.51141E+03 -3.50774E+01
 -8.50466E+03 -1.13650E+04 -1.16774E+03 -1.73460E+04  9.89476E+03 -1.80671E+04  2.18505E+04 -9.20879E+03
  2.59044E+04  3.00795E+03  1.89213E+04  1.62257E+04  3.43753E+03  2.12176E+04 -1.09259E+04  1.69673E+04
 -1.38095E+04  4.74106E+03 -7.15829E+03 -4.32304E+03  2.16686E+03 -4.48609E+03  9.29801E+03 -1.10255E+03
  7.94703E+03  7.80421E+03  7.85949E+02  1.38971E+04 -9.79998E+03  1.33196E+04 -1.63493E+04  2.93635E+03
 -1.21115E+04 -9.27675E+03  1.41852E+02 -1.45499E+04  1.00291E+04 -8.01851E+03  1.05361E+04  3.73927E+03
  2.09216E+03  1.14329E+04 -9.14676E+03  1.29078E+04 -1.54536E+04  5.46413E+03 -1.63312E+04 -6.08944E+03
 -9.26388E+03 -1.79959E+04  4.85997E+03 -2.07698E+04  1.74660E+04 -1.21607E+04  1.90487E+04  3.56138E+03
  1.11668E+04  1.47935E+04 -2.12079E+03  1.78385E+04 -1.31942E+04  9.20465E+03 -1.46888E+04 -1.41427E+03
 -1.13630E+04 -1.19446E+04 -1.71812E+03 -1.35591E+04  7.05676E+03 -1.09669E+04  8.68921E+03 -3.85570E+03
  5.21876E+03  2.99742E+03 -1.83937E+03  1.99447E+03 -1.15177E+03 -4.11884E+03  3.50195E+03 -8.60688E+03
  1.32397E+04 -5.90224E+03  1.86638E+04  1.87737E+03  1.79455E+04  1.30067E+04  1.14137E+04  2.39552E+04
 -5.64870E+03  2.74427E+04 -2.27537E+04  2.01973E+04 -2.93089E+04  4.20499E+03 -2.34771E+04 -1.07360E+04
 -1.18537E+04 -1.91715E+04 -2.14372E+02 -1.67452E+04  6.07959E+03 -9.70497E+03  5.69179E+03 -5.95719E+03
  4.49313E+03 -3.47144E+03  4.07103E+03 -4.18191E+03  6.91716E+03 -3.76885E+03  8.89331E+03 -2.22800E+03
  1.21022E+04  2.83961E+03  7.08889E+03  1.06030E+04 -2.29128E+03  1.32360E+04 -1.26276E+04  1.02769E+04
 -1.69958E+04 -1.28228E+03 -1.17478E+04 -1.18890E+04 -1.28523E+03 -1.87387E+04  1.03177E+04 -1.80388E+04
  1.94847E+04 -1.00104E+04  2.25587E+04  3.53050E+03  1.55626E+04  1.62728E+04  2.63869E+03  2.01972E+04
 -9.41434E+03  1.64708E+04 -1.25496E+04  5.70136E+03 -8.82000E+03 -2.00511E+03 -3.99867E+03 -2.68888E+03
 -1.93849E+03 -1.04311E+02 -3.09555E+03  3.42928E+03 -6.85023E+03  2.93947E+03 -1.11328E+04 -1.92088E+03
 -8.98962E+03 -1.20864E+04 -1.27652E+02 -1.72925E+04  1.06744E+04 -1.60411E+04  1.76270E+04 -5.60620E+03
  1.72187E+04  8.08976E+03  8.50636E+03  1.56091E+04 -3.55883E+03  1.79215E+04 -1.28065E+04  1.11916E+04
 -1.64037E+04  3.93298E+02 -1.26923E+04 -1.05170E+04 -1.65826E+03 -1.48312E+04  8.10741E+03 -1.09605E+04
  1.07854E+04 -3.51254E+03  7.41798E+03  2.83907E+03  2.30342E+03  5.04251E+03  1.59175E+03  2.78096E+03
  3.21737E+03  1.39722E+03  4.48503E+03  1.82763E+03  5.09329E+03  5.68478E+03  4.19211E+03  9.63709E+03
 -3.50208E+03  1.41881E+04 -1.29880E+04  1.40765E+04 -1.92897E+04  3.47177E+03 -1.88946E+04 -7.94695E+03
 -9.12981E+03 -1.82212E+04  2.70509E+03 -1.99300E+04  1.12855E+04 -1.28751E+04  1.52696E+04 -3.19204E+03
  1.13989E+04  6.79463E+03  2.83828E+03  1.02003E+04 -4.71077E+03  6.71315E+03 -7.78598E+03 -1.02259E+03
 -3.86071E+03 -7.99673E+03  4.01897E+03 -8.28933E+03  7.51001E+03 -3.30785E+03  7.51716E+03  1.46876E+03
  4.94884E+03  4.16331E+03  1.37248E+03  3.59126E+03 -1.07754E+03  2.67459E+03  1.65700E+03 -3.43743E+02
  3.08479E+03 -8.73299E+02  7.37341E+03  2.87757E+03  4.28636E+03  1.00343E+04 -1.78436E+03  1.30766E+04
 -9.07882E+03  8.69404E+03 -1.17561E+04  2.73865E+03 -1.12145E+04 -4.36378E+03 -4.60173E+03 -7.38157E+03
  1.14744E+03 -7.37918E+03  5.09994E+03 -3.82945E+03  4.07076E+03  3.19551E+03 -2.08214E+03  6.36898E+03
 -7.57678E+03  3.40952E+03 -9.41258E+03 -4.47828E+03 -4.97927E+03 -1.03589E+04  1.48482E+03 -1.04971E+04
  6.61282E+03 -6.42760E+03  7.87014E+03 -6.77780E+02  6.40422E+03  3.20228E+03  9.02036E+02  5.56080E+03
 -3.84455E+03  1.86610E+03 -4.78228E+03 -3.92674E+03  1.62432E+03 -8.10022E+03  9.82416E+03 -6.97951E+03
  1.21136E+04  8.39938E+02  1.15362E+04  8.80121E+03  3.23752E+03  1.29926E+04 -4.51141E+03  1.21932E+04
 -1.08139E+04  5.29791E+03 -1.10415E+04 -1.43733E+03 -6.10017E+03 -8.05726E+03  2.19441E+03 -7.65581E+03
  7.24615E+03 -3.98984E+03  6.74089E+03  3.57660E+03  2.68460E+03  7.13254E+03 -1.41147E+03  6.16301E+03
 -3.69878E+03  3.89397E+03 -2.82921E+03  1.47066E+03 -1.21459E+03  1.52334E+03 -1.71775E+03  2.20631E+03
 -3.14327E+03  4.88965E+03 -8.66377E+03  4.91149E+03 -1.27171E+04  8.22176E+02 -1.39750E+04 -8.75680E+03
 -7.65351E+03 -1.74332E+04  3.26352E+03 -1.96138E+04  1.30771E+04 -1.51617E+04  1.90473E+04 -5.84964E+03
  1.80799E+04  3.75696E+03  1.10466E+04  1.22928E+04  1.22794E+03  1.38891E+04 -5.70024E+03  9.96383E+03
 -7.80942E+03  3.72753E+03 -4.56593E+03 -1.65307E+03 -1.82776E+03 -1.97395E+03 -6.58980E+02 -1.85164E+02
 -1.97968E+03  1.88784E+02 -2.58777E+03 -5.30801E+02 -8.58510E+02 -3.09304E+03  3.60422E+02 -5.56060E+03
  6.25005E+03 -4.46352E+03  8.33200E+03 -1.39348E+02  9.66229E+03  7.93963E+03  2.78136E+03  1.41199E+04
 -6.44021E+03  1.57025E+04 -1.45524E+04  9.26177E+03 -1.66762E+04 -1.41461E+03 -1.36426E+04 -1.04201E+04
 -4.98065E+03 -1.48794E+04  3.91494E+03 -1.33589E+04  9.14108E+03 -7.21180E+03  9.21081E+03  6.68580E+02
  5.23461E+03  4.97701E+03 -4.51189E+02  4.14484E+03 -2.96369E+03 -2.68613E+02  1.76800E+01 -3.62418E+03
  3.90045E+03 -2.27933E+03  5.67615E+03  1.62524E+03  3.75976E+03  5.41969E+03  4.06691E+01  7.34007E+03
 -6.00885E+03  6.48627E+03 -1.00304E+04  1.01681E+03 -9.06668E+03 -7.07715E+03 -1.42329E+03 -1.17874E+04
  7.02007E+03 -1.01536E+04  1.11979E+04 -3.54341E+03  1.05086E+04  3.20178E+03  6.42906E+03  8.97574E+03
  1.06978E+03  9.63392E+03 -4.02808E+03  7.73202E+03 -6.09647E+03  4.74702E+03 -5.00836E+03  8.37993E+02
 -2.84080E+03 -3.06320E+02 -2.13554E+03  7.81326E+02 -4.43890E+03  1.31792E+03 -7.30907E+03 -1.18132E+03
 -7.40704E+03 -5.49434E+03 -2.15357E+03 -9.46267E+03  4.43106E+03 -9.79247E+03  8.53703E+03 -5.18680E+03
  9.27627E+03  1.52098E+03  5.53962E+03  7.38032E+03 -4.33511E+02  9.73932E+03 -7.40785E+03  6.16346E+03
