 $NMID ID='MM_0lb_SNR800_13hz_g45_2.RAW', FMTDAT='(8E13.5)'
 TRAMP=1., VOLUME=1. $END
  3.09810E+05  4.97001E+02  3.37793E+05  2.50909E+05  8.48705E+04  3.37984E+05 -1.32821E+05  2.51050E+05
 -1.90423E+05  8.30073E+04 -1.11907E+05 -3.27693E+04  1.14691E+03 -5.03838E+04  5.39950E+04 -2.62053E+02
  3.53247E+04  5.26457E+04 -1.67821E+04  7.53796E+04 -6.08874E+04  6.38475E+04 -8.43027E+04  3.21469E+04
 -8.10192E+04 -1.13286E+04 -5.72579E+04 -5.12918E+04 -1.51072E+04 -6.97398E+04  2.77340E+04 -4.56967E+04
  4.01528E+04  3.57002E+03  1.60708E+04  4.80017E+04 -3.41014E+04  4.71141E+04 -6.67372E+04  3.77720E+01
 -5.35880E+04 -5.68536E+04 -7.00234E+03 -7.70260E+04  3.38665E+04 -5.51447E+04  4.82493E+04 -1.75841E+04
  4.37492E+04  1.17152E+04  3.21501E+04  2.52612E+04  1.61179E+04  2.96237E+04 -5.35046E+03  2.71379E+04
 -2.17703E+04  1.21897E+04 -1.83034E+04 -4.80791E+03  5.90004E+03 -7.25054E+03  2.25335E+04  1.25924E+04
  7.15953E+03  3.53116E+04 -3.23640E+04  3.56055E+04 -6.32522E+04  2.19201E+03 -5.70434E+04 -4.28888E+04
 -1.25427E+04 -6.31079E+04  4.04571E+04 -4.55590E+04  5.81689E+04 -2.12920E+03  3.42337E+04  3.25293E+04
 -6.01166E+03  3.63241E+04 -3.02677E+04  1.63777E+04 -3.06789E+04 -4.31690E+03 -1.67446E+04 -1.09218E+04
 -8.52730E+03 -1.32146E+04 -4.18306E+02 -1.80298E+04  7.64834E+03 -2.31149E+04  1.55649E+04 -1.32804E+04
  1.14453E+04  5.13043E+03 -8.72907E+03  1.28665E+04 -2.12748E+04 -4.61261E+03 -8.49752E+03 -3.38341E+04
  2.31535E+04 -4.35416E+04  4.82964E+04 -1.98271E+04  4.55441E+04  1.94686E+04  1.58435E+04  4.46834E+04
 -1.61079E+04  3.36790E+04 -2.54500E+04  1.58966E+03 -9.73867E+03 -2.81786E+04  2.10079E+04 -3.42828E+04
  4.12603E+04 -9.40641E+03  3.61334E+04  2.39478E+04  1.82111E+04  4.68501E+04 -8.02775E+03  5.08738E+04
 -3.20656E+04  3.41269E+04 -4.27482E+04  9.90945E+03 -4.29948E+04 -1.67492E+04 -2.35656E+04 -3.80367E+04
  7.73355E+03 -3.81849E+04  3.16015E+04 -1.49272E+04  2.91851E+04  1.08970E+04  4.07680E+03  1.93250E+04
 -1.35598E+04  8.59901E+03 -1.05500E+04 -7.50756E+03  6.02191E+03 -1.04400E+04  1.80047E+04  6.09915E+03
  1.37480E+04  2.25983E+04 -5.91935E+03  2.49850E+04 -2.25088E+04  1.16117E+04 -2.83615E+04 -4.55717E+03
 -2.10351E+04 -1.77505E+04 -8.93865E+03 -2.10852E+04  4.07166E+03 -2.03612E+04  1.61674E+04 -1.88573E+04
  2.66805E+04 -1.31182E+04  3.30695E+04  2.81612E+03  2.39840E+04  2.05405E+04  4.22904E+03  3.70999E+04
 -1.81744E+04  3.09377E+04 -2.81629E+04  1.03364E+04 -2.12841E+04 -1.01893E+04 -4.34544E+03 -1.37284E+04
  1.66522E+03 -2.43880E+03 -5.16115E+03  7.03964E+03 -1.63518E+04  5.06074E+03 -1.68497E+04 -7.25887E+03
 -1.05394E+04 -1.94098E+04  5.31182E+03 -2.35451E+04  1.54355E+04 -1.69488E+04  1.86219E+04 -1.37120E+03
  1.16136E+04  1.33694E+04 -1.10767E+03  1.97448E+04 -1.35501E+04  1.11106E+04 -1.93397E+04 -3.80467E+03
 -1.41801E+04 -1.73724E+04 -1.83313E+03 -2.32483E+04  1.04967E+04 -1.93532E+04  1.91416E+04 -9.61348E+03
  1.82131E+04  1.07189E+02  1.32108E+04  4.39351E+03  6.88020E+03  1.28896E+03  9.92902E+03 -1.78020E+03
  1.79346E+04  2.98644E+03  2.00792E+04  1.56892E+04  1.32714E+04  3.14335E+04 -2.73280E+03  3.55049E+04
 -2.02213E+04  2.81955E+04 -3.27772E+04  1.39484E+04 -3.44254E+04 -2.66569E+03 -2.85473E+04 -2.00074E+04
 -1.23829E+04 -2.87588E+04  9.64646E+03 -2.60435E+04  2.22059E+04 -1.33944E+04  1.97790E+04  5.76699E+03
  7.27491E+03  1.47589E+04 -9.58225E+03  1.28063E+04 -1.67244E+04  2.95111E+03 -1.25791E+04 -1.02558E+04
 -2.79769E+02 -1.59538E+04  8.01308E+03 -1.19095E+04  1.04928E+04 -1.72326E+03  2.55676E+03  7.06095E+03
 -6.99271E+03  2.94629E+03 -6.39802E+03 -5.64209E+03 -6.30152E+02 -1.40975E+04  9.67209E+03 -1.44288E+04
  1.74545E+04 -7.72674E+03  1.89656E+04  3.01027E+03  1.63706E+04  1.39331E+04  7.93917E+03  2.13627E+04
 -3.09238E+03  2.31676E+04 -1.47676E+04  1.45827E+04 -1.70400E+04  3.43200E+03 -1.18150E+04 -4.01947E+03
 -5.41671E+03 -5.04335E+03 -8.99617E+02  9.48201E+02 -2.31644E+03  2.94151E+03 -5.16376E+03  4.38512E+03
 -1.08343E+04 -5.79040E+02 -1.18135E+04 -9.10674E+03 -4.61835E+03 -1.53386E+04  5.12042E+03 -1.19280E+04
  9.85126E+03 -4.94519E+03  6.97455E+03  2.94656E+03  1.47791E+02  4.64758E+03 -5.69665E+03 -2.21413E+01
 -5.71665E+03 -7.31684E+03 -9.17109E+02 -1.14900E+04  6.40343E+03 -1.18546E+04  1.44725E+04 -5.98896E+03
  1.74168E+04  1.49416E+03  1.27262E+04  9.93010E+03  2.38908E+03  1.34518E+04 -7.49257E+03  1.20177E+04
 -9.48626E+03  3.52355E+03 -5.25481E+03 -2.36856E+03  1.81276E+03 -3.38762E+03  6.48975E+03 -9.35180E+02
  5.92525E+03  5.13752E+03  1.10907E+03  9.04021E+03 -6.44947E+03  9.01375E+03 -1.17435E+04  2.27809E+03
 -8.09384E+03 -5.94561E+03  4.87199E+02 -9.76647E+03  5.94135E+03 -4.92156E+03  6.12344E+03  2.15001E+03
  1.04434E+03  6.14626E+03 -5.87474E+03  8.16564E+03 -8.62383E+03  3.81428E+03 -8.65437E+03 -3.01193E+03
 -5.21369E+03 -1.08118E+04  2.72439E+03 -1.24059E+04  1.03749E+04 -7.52354E+03  1.12644E+04  1.72063E+03
  7.08406E+03  8.93766E+03 -4.09001E+02  1.10484E+04 -7.98500E+03  6.21432E+03 -8.82205E+03 -7.70626E+02
 -8.08024E+03 -7.61897E+03 -1.44328E+03 -8.06837E+03  4.13015E+03 -6.90534E+03  5.12987E+03 -3.29781E+03
  3.81192E+03  8.58235E+02 -7.64750E+02  1.48090E+03 -1.62293E+02 -1.55262E+03  9.62931E+02 -4.46262E+03
  7.25354E+03 -2.51621E+03  9.93285E+03  1.39232E+03  1.03245E+04  6.46453E+03  7.38446E+03  1.32319E+04
 -2.85805E+03  1.54024E+04 -1.30060E+04  1.13557E+04 -1.67770E+04  2.33033E+03 -1.37018E+04 -5.43134E+03
 -7.13983E+03 -1.14569E+04 -1.79297E+02 -9.30211E+03  3.56213E+03 -4.71580E+03  3.21650E+03 -3.28642E+03
  2.41433E+03 -2.32640E+03  2.64035E+03 -3.00565E+03  4.68112E+03 -2.16675E+03  5.49113E+03 -1.67649E+02
  7.27214E+03  1.48736E+03  3.04273E+03  6.11628E+03 -1.84702E+03  6.39855E+03 -7.53988E+03  5.20368E+03
 -9.23373E+03 -1.01365E+03 -5.34572E+03 -6.45669E+03 -7.17171E+02 -9.77907E+03  5.85944E+03 -1.01306E+04
  1.03276E+04 -5.59347E+03  1.21337E+04  1.40810E+03  8.52955E+03  8.28795E+03  1.62255E+03  1.15543E+04
 -4.54747E+03  9.40668E+03 -6.45450E+03  3.21102E+03 -4.05488E+03 -1.30614E+03 -1.50943E+03 -1.32201E+03
 -1.00735E+03  4.61442E+02 -1.69472E+03  2.40552E+03 -4.70769E+03  1.76094E+03 -6.67625E+03 -5.22648E+02
 -4.13384E+03 -6.64489E+03  4.32338E+02 -8.92382E+03  5.64140E+03 -8.32820E+03  8.53332E+03 -2.52876E+03
  8.53751E+03  4.27101E+03  3.60143E+03  7.63842E+03 -1.53982E+03  8.80413E+03 -6.15235E+03  5.48798E+03
 -8.38570E+03  6.96251E+02 -6.32979E+03 -5.55076E+03 -5.24968E+02 -7.20082E+03  3.56536E+03 -5.23473E+03
  5.83208E+03 -2.13830E+03  3.72043E+03  1.37206E+03  1.41442E+03  3.01751E+03  1.41642E+03  8.78207E+02
  2.56942E+03  5.64089E+02  2.46901E+03  1.53416E+03  2.47389E+03  3.48009E+03  2.06315E+03  4.12333E+03
 -1.68150E+03  6.83854E+03 -5.77350E+03  7.51733E+03 -7.93587E+03  2.23983E+03 -8.85215E+03 -3.17406E+03
 -3.82589E+03 -8.53494E+03  1.50635E+03 -9.43821E+03  4.93910E+03 -5.80847E+03  7.01321E+03 -1.74770E+03
  5.49866E+03  3.24951E+03  1.23583E+03  4.94538E+03 -2.19434E+03  3.14562E+03 -3.00080E+03 -3.23187E+02
 -1.38871E+03 -3.44189E+03  1.96867E+03 -3.67862E+03  3.14455E+03 -1.72128E+03  3.35747E+03  9.64556E+02
  1.88637E+03  1.37558E+03  1.23856E+03  8.51426E+02 -5.15815E+02  1.41847E+03  1.41976E+03 -4.63920E+02
  9.32142E+02 -2.35617E+02  3.65640E+03  1.46771E+03  1.50317E+03  4.66912E+03 -9.26436E+02  6.07156E+03
 -4.04174E+03  3.61173E+03 -4.92802E+03  1.20002E+03 -4.66658E+03 -1.91654E+03 -1.26048E+03 -2.97879E+03
  4.32954E+02 -3.19450E+03  2.01407E+03 -1.83808E+03  1.53687E+03  1.78819E+03 -1.33072E+03  2.64641E+03
 -3.47510E+03  1.55087E+03 -3.70430E+03 -2.06784E+03 -2.24201E+03 -4.61125E+03  9.24265E+02 -4.51388E+03
  2.40768E+03 -2.29112E+03  2.74603E+03 -2.56429E+02  2.96089E+03  9.41955E+02  5.87219E+02  2.32925E+03
 -1.37852E+03  4.34598E+02 -2.10277E+03 -1.51231E+03  8.28166E+02 -3.14003E+03  3.72945E+03 -2.16602E+03
  4.48969E+03  4.82342E+02  5.44842E+03  2.89637E+03  2.02670E+03  4.88939E+03 -1.86386E+03  4.59292E+03
 -4.10018E+03  1.64002E+03 -4.21344E+03 -4.96761E+02 -2.40364E+03 -2.98873E+03  4.55418E+02 -2.80725E+03
  3.26336E+03 -1.42102E+03  2.60070E+03  1.36018E+03  7.92049E+02  2.79462E+03 -3.13681E+02  2.77806E+03
 -9.50358E+02  2.12561E+03 -1.12543E+03  6.29881E+02 -4.73418E+02  6.11616E+02 -1.40148E+03  1.13615E+03
 -1.35340E+03  1.86758E+03 -3.79982E+03  1.48526E+03 -4.54322E+03  3.00923E+02 -5.68176E+03 -3.29124E+03
 -2.87951E+03 -6.15638E+03  1.25579E+03 -7.51957E+03  4.50936E+03 -5.87722E+03  7.21588E+03 -2.63059E+03
  6.69374E+03  1.07399E+03  3.94557E+03  4.30865E+03 -2.10407E+02  5.01160E+03 -2.12050E+03  3.59103E+03
 -2.58627E+03  1.70235E+03 -2.03580E+03 -2.84913E+02 -6.87337E+02 -1.44929E+02 -4.94127E+02  1.36826E+02
 -1.46834E+03 -1.59854E+01 -1.22579E+03 -2.32876E+02 -1.01673E+02 -1.50276E+03  5.53328E+00 -1.87626E+03
  2.39613E+03 -1.69500E+03  2.41347E+03 -1.42192E+02  3.32784E+03  2.53165E+03  5.79616E+02  4.91688E+03
 -2.09866E+03  5.80191E+03 -5.15181E+03  3.20970E+03 -5.84912E+03 -6.69867E+02 -4.19911E+03 -3.64029E+03
 -1.96576E+03 -4.66779E+03  1.39568E+03 -4.47267E+03  2.70878E+03 -2.25335E+03  2.85035E+03  3.96023E+02
  1.64609E+03  1.25219E+03  1.37599E+02  1.43718E+03 -7.11396E+02 -4.46890E+01  1.70718E+02 -9.89938E+02
  1.47679E+03 -4.36336E+02  1.52017E+03  9.00414E+02  1.29157E+03  1.92948E+03  2.44775E+02  2.14917E+03
 -2.20947E+03  2.18223E+03 -2.84893E+03  1.87387E+02 -2.78375E+03 -2.09558E+03 -1.96840E+02 -3.69569E+03
  2.11918E+03 -3.22434E+03  3.21486E+03 -9.91022E+02  3.72026E+03  2.05684E+02  2.19860E+03  2.98025E+03
  5.70770E+02  2.88145E+03 -1.03452E+03  2.51091E+03 -1.74158E+03  1.50162E+03 -1.38537E+03  5.17526E+02
 -7.52032E+02 -3.03262E+02 -1.32432E+03  2.91086E+02 -1.67325E+03  1.81574E+02 -2.76980E+03 -6.29341E+02
 -2.54890E+03 -1.12279E+03 -5.67371E+02 -2.95654E+03  1.46467E+03 -3.34425E+03  2.95388E+03 -1.29546E+03
  3.02795E+03  2.73256E+01  6.44266E+02  1.83190E+03 -1.62756E+02  3.08547E+03 -2.20793E+03  1.92782E+03
