 $NMID ID='MM_0lb_SNR800_20hz_g55_2.RAW', FMTDAT='(8E13.5)'
 TRAMP=1., VOLUME=1. $END
  3.09970E+05  4.32279E+02  3.37697E+05  2.50498E+05  8.43257E+04  3.37533E+05 -1.32345E+05  2.50283E+05
 -1.89771E+05  8.29441E+04 -1.10699E+05 -3.28032E+04  1.34209E+03 -5.03711E+04  5.38137E+04  2.37363E+02
  3.51693E+04  5.27794E+04 -1.68632E+04  7.48447E+04 -6.02158E+04  6.29890E+04 -8.30974E+04  3.15768E+04
 -7.96833E+04 -1.13862E+04 -5.63186E+04 -5.04001E+04 -1.49417E+04 -6.84236E+04  2.67623E+04 -4.51846E+04
  3.89784E+04  4.02761E+03  1.58242E+04  4.72469E+04 -3.41868E+04  4.62454E+04 -6.51923E+04 -5.87358E+02
 -5.18346E+04 -5.62658E+04 -6.38746E+03 -7.55871E+04  3.32008E+04 -5.34262E+04  4.64099E+04 -1.61271E+04
  4.17331E+04  1.11588E+04  3.08051E+04  2.47079E+04  1.59165E+04  2.81998E+04 -4.63648E+03  2.68409E+04
 -2.18354E+04  1.27377E+04 -1.92460E+04 -4.30010E+03  4.28649E+03 -7.38497E+03  2.14882E+04  1.08806E+04
  7.20124E+03  3.31961E+04 -3.05087E+04  3.41843E+04 -6.13665E+04  2.32566E+03 -5.54176E+04 -4.16343E+04
 -1.26407E+04 -6.09798E+04  3.79941E+04 -4.32865E+04  5.57245E+04 -1.88980E+03  3.18415E+04  3.05745E+04
 -6.51598E+03  3.29119E+04 -2.85890E+04  1.34215E+04 -2.76508E+04 -5.37758E+03 -1.44807E+04 -1.01507E+04
 -7.39205E+03 -1.14836E+04 -1.22525E+03 -1.66136E+04  6.73179E+03 -2.27346E+04  1.48815E+04 -1.40432E+04
  1.21199E+04  4.63236E+03 -6.05476E+03  1.30230E+04 -1.93371E+04 -2.43684E+03 -7.97833E+03 -3.05972E+04
  2.10276E+04 -4.02947E+04  4.48656E+04 -1.88872E+04  4.21588E+04  1.82660E+04  1.43289E+04  4.16231E+04
 -1.50524E+04  3.10505E+04 -2.35374E+04  1.12197E+03 -8.34095E+03 -2.64784E+04  2.07086E+04 -3.12690E+04
  3.81330E+04 -7.09892E+03  3.17555E+04  2.29341E+04  1.51521E+04  4.24813E+04 -7.58496E+03  4.54109E+04
 -2.84930E+04  2.96606E+04 -3.72954E+04  8.32335E+03 -3.86299E+04 -1.50695E+04 -2.15438E+04 -3.44896E+04
  6.65857E+03 -3.40624E+04  2.90511E+04 -1.27521E+04  2.70683E+04  1.05227E+04  2.81961E+03  1.77106E+04
 -1.26764E+04  7.40653E+03 -9.47892E+03 -7.55956E+03  6.06220E+03 -1.01933E+04  1.72669E+04  6.40207E+03
  1.20170E+04  2.15461E+04 -6.67030E+03  2.33367E+04 -2.13647E+04  9.06377E+03 -2.50955E+04 -6.22003E+03
 -1.65315E+04 -1.66780E+04 -5.58456E+03 -1.65590E+04  3.55652E+03 -1.48642E+04  1.22697E+04 -1.43101E+04
  2.10536E+04 -1.16997E+04  2.79658E+04  1.23868E+03  2.12118E+04  1.60057E+04  4.35119E+03  3.22148E+04
 -1.58860E+04  2.73503E+04 -2.58651E+04  9.45196E+03 -1.96344E+04 -1.05114E+04 -4.06913E+03 -1.39302E+04
  2.86520E+03 -4.17005E+03 -2.51854E+03  5.09668E+03 -1.28324E+04  5.44838E+03 -1.31031E+04 -4.76330E+03
 -8.75082E+03 -1.53674E+04  4.33765E+03 -1.89187E+04  1.24438E+04 -1.36806E+04  1.43750E+04 -1.41146E+03
  8.99796E+03  1.07485E+04 -8.44320E+02  1.52472E+04 -1.01469E+04  8.58676E+03 -1.51111E+04 -3.43945E+03
 -1.14085E+04 -1.38250E+04 -1.31314E+03 -1.88780E+04  8.69097E+03 -1.50172E+04  1.58172E+04 -7.19147E+03
  1.41318E+04  8.14606E+02  1.07028E+04  3.78287E+03  5.09435E+03  4.81111E+02  7.48988E+03 -1.40187E+03
  1.35859E+04  2.75671E+03  1.43868E+04  1.24948E+04  8.64428E+03  2.43141E+04 -3.03110E+03  2.57285E+04
 -1.55351E+04  1.95131E+04 -2.38388E+04  9.25493E+03 -2.41164E+04 -1.78060E+03 -2.07367E+04 -1.38006E+04
 -9.92226E+03 -1.98286E+04  6.60245E+03 -1.85510E+04  1.61037E+04 -1.06162E+04  1.51317E+04  3.74713E+03
  6.63113E+03  1.08740E+04 -6.69591E+03  1.04007E+04 -1.32704E+04  2.69165E+03 -1.00069E+04 -7.70691E+03
  5.48383E+01 -1.18781E+04  5.96407E+03 -9.30732E+03  7.92501E+03 -1.55541E+03  1.30635E+03  4.64656E+03
 -5.22699E+03  1.14504E+03 -3.74946E+03 -4.42817E+03  8.52710E+02 -9.88563E+03  7.55689E+03 -9.52041E+03
  1.17923E+04 -4.42443E+03  1.13155E+04  2.65755E+03  9.66499E+03  9.14823E+03  4.71530E+03  1.30548E+04
 -1.57288E+03  1.51024E+04 -8.93144E+03  9.67629E+03 -1.06176E+04  2.46558E+03 -7.92625E+03 -1.74014E+03
 -4.54384E+03 -2.97758E+03 -7.52029E+02  1.45397E+03 -1.96641E+03  1.87210E+03 -3.44230E+03  3.66719E+03
 -7.91669E+03 -4.22720E+02 -8.35486E+03 -7.12764E+03 -3.22093E+03 -1.12509E+04  3.39967E+03 -8.23799E+03
  7.11143E+03 -3.52665E+03  5.06672E+03  1.95355E+03  6.61645E+02  2.70596E+03 -3.28716E+03 -1.00728E+02
 -3.24986E+03 -4.68477E+03 -6.47996E+02 -6.69124E+03  3.49503E+03 -7.25672E+03  9.09300E+03 -3.72679E+03
  1.11793E+04  3.32924E+02  8.27525E+03  5.58449E+03  1.63192E+03  7.76126E+03 -5.01726E+03  7.89570E+03
 -6.53173E+03  2.43783E+03 -3.24309E+03 -1.14258E+03  1.25268E+03 -1.54403E+03  4.52823E+03 -9.31708E+02
  3.85372E+03  3.03041E+03  9.69008E+02  5.90587E+03 -4.22902E+03  5.98281E+03 -7.19145E+03  1.88695E+03
 -4.82104E+03 -3.27687E+03  3.51864E+02 -6.24409E+03  3.50662E+03 -3.02879E+03  3.15814E+03  9.68317E+02
  6.10119E+02  2.68537E+03 -3.85619E+03  4.25799E+03 -4.31385E+03  2.15885E+03 -3.91517E+03 -8.89867E+02
 -2.35624E+03 -5.38969E+03  8.84495E+02 -6.25138E+03  5.24018E+03 -4.02769E+03  5.79569E+03  9.33697E+02
  4.03469E+03  4.96034E+03  1.16815E+02  6.61134E+03 -4.67928E+03  3.93398E+03 -4.83957E+03  4.91146E+00
 -5.20379E+03 -4.77024E+03 -1.43482E+03 -4.60650E+03  2.39351E+03 -4.32719E+03  2.72845E+03 -2.78646E+03
  2.55376E+03  3.45119E+01  1.72593E+02  1.34400E+03  7.60142E+02  1.11557E+02 -1.89448E+02 -1.22934E+03
  3.05098E+03 -5.69897E+02  4.61539E+03  7.28681E+02  4.88541E+03  2.64658E+03  5.04977E+03  6.31973E+03
 -1.26995E+03  7.35428E+03 -6.82405E+03  5.67364E+03 -8.89009E+03  7.90707E+02 -6.75097E+03 -2.22216E+03
 -4.00733E+03 -5.56670E+03 -3.31365E+02 -4.72434E+03  1.85931E+03 -2.04413E+03  1.55916E+03 -1.83537E+03
  1.16469E+03 -1.24397E+03  2.05958E+03 -2.09312E+03  3.45062E+03 -1.08335E+03  3.40178E+03  4.60374E+02
  4.11576E+03  1.16958E+03  6.39276E+02  3.05619E+03 -1.36006E+03  2.15872E+03 -3.73792E+03  2.07753E+03
 -4.21892E+03 -9.54935E+02 -1.23773E+03 -2.64010E+03  4.83588E+02 -4.26669E+03  2.76612E+03 -4.62930E+03
  4.32398E+03 -2.81318E+03  5.65544E+03 -8.05144E+01  4.50145E+03  3.72200E+03  1.21215E+03  5.21582E+03
 -1.89924E+03  5.22185E+03 -2.91580E+03  1.55810E+03 -1.46069E+03 -9.60300E+02 -1.93610E+01 -3.38666E+02
 -3.70384E+02  6.82110E+02 -1.04285E+03  1.61652E+03 -2.36237E+03  7.83604E+02 -3.78932E+03 -4.12721E+02
 -1.20517E+03 -3.89397E+03  8.66858E+02 -3.97907E+03  2.19835E+03 -3.84091E+03  2.73012E+03 -1.03950E+03
  3.34235E+03  2.06680E+03  1.48370E+03  2.38297E+03 -5.92242E+02  3.64953E+03 -2.09519E+03  2.21509E+03
 -3.02796E+03  7.29321E+02 -2.79861E+03 -1.89098E+03 -5.53591E+01 -2.37159E+03  1.19922E+03 -2.03328E+03
  2.14529E+03 -1.17091E+03  1.45153E+03  4.04916E+02  1.45466E+02  1.43438E+03  7.90343E+02  2.62146E+02
  1.77322E+03  4.98508E+02  9.05437E+02  8.47859E+02  1.16651E+03  2.24647E+03  1.14075E+03  1.17699E+03
 -1.24512E+03  2.35156E+03 -2.13305E+03  3.40909E+03 -2.30798E+03  1.24046E+03 -3.14925E+03 -1.06322E+02
 -1.46692E+03 -2.64767E+03  6.41923E+02 -4.10794E+03  1.33289E+03 -2.08155E+03  2.42630E+03 -8.09954E+02
  2.04561E+03  1.42458E+03  1.46966E+02  1.91952E+03 -5.76298E+02  9.03127E+02 -7.51369E+02  5.54120E+01
 -4.11745E+02 -1.24502E+03  1.05019E+03 -9.07578E+02  7.43900E+02 -8.56798E+02  9.40235E+02  2.08963E+02
  5.49405E+02  4.27561E+01  7.49027E+02 -7.42751E+02 -1.88265E+02  8.93852E+02  1.44350E+03 -2.40477E+02
 -2.95421E+02 -3.06512E+02  1.67396E+03  5.13511E+02 -5.56534E+01  1.95245E+03 -2.67067E+02  2.20442E+03
 -1.20244E+03  6.07210E+02 -1.65763E+03  2.51090E+02 -1.49775E+03 -4.43777E+02  4.50006E+01 -4.74059E+02
  3.45403E+02 -8.41763E+02  8.75572E+02 -7.04706E+02  4.93975E+02  9.14407E+02 -6.19778E+02  8.21784E+02
 -8.93302E+02  5.08059E+02 -7.21367E+02 -1.08748E+03 -6.26860E+02 -1.59327E+03  4.82246E+01 -1.18140E+03
  2.27734E+02 -9.27831E+01  3.52445E+02  7.91501E+01  8.40016E+02 -5.22914E+02  2.68533E+02  7.54149E+02
 -5.57472E+00  1.49591E+02 -6.46612E+02 -2.10596E+02  4.79285E+02 -4.67226E+02  1.47764E+03 -5.61610E+02
  1.09558E+03  2.70718E+02  2.13473E+03  2.73704E+02  1.40177E+03  9.32150E+02 -1.34316E+02  1.32119E+03
 -9.47496E+02  2.49444E+02 -1.05598E+03  3.69256E+01 -6.24069E+02 -8.10246E+02  2.43746E+02 -2.53618E+02
  1.35675E+03 -3.76871E+02  4.78643E+02  5.64938E+02  5.67229E+01  1.06601E+03  6.63047E+02  7.71749E+02
 -3.37106E+02  1.24143E+03 -3.69328E+02  2.71982E+02 -5.22077E+01  4.72792E+02 -4.22859E+02  6.16971E+02
 -5.61268E+02  1.11440E+03 -1.51818E+03  1.89983E+02 -1.05820E+03  2.34903E+02 -2.22059E+03 -5.64612E+02
 -8.33043E+02 -1.62027E+03  1.92212E+02 -2.11444E+03  4.51761E+02 -1.67390E+03  2.05951E+03 -6.98915E+02
  1.65235E+03 -3.85320E+02  7.97488E+02  8.43316E+02 -4.40830E+02  6.69409E+02 -5.36582E+02  9.59106E+02
 -5.40762E+02  4.59622E+02  1.20268E+01 -4.27441E+00 -4.69953E+02  3.77822E+02 -4.15327E+02 -3.29347E+01
 -1.03072E+03 -2.66199E+02 -7.51893E+02 -3.97723E+00  3.70078E+02 -5.46453E+02 -4.61168E+02 -6.24601E+02
  7.94106E+02 -2.69205E+02 -2.60592E+01  4.07338E+02  8.68239E+02  4.89111E+02 -4.91541E+02  1.37309E+03
 -6.54708E+02  1.52595E+03 -1.02431E+03  1.10095E+03 -8.85566E+02 -3.46448E+02 -7.93062E+02 -7.30441E+02
 -7.32104E+02 -6.95020E+02  3.05329E+01 -6.75683E+02  2.98651E+01 -4.93855E+02  4.46250E+02  4.13183E+00
  2.78396E+02  3.77153E+02  5.44734E+01  3.13187E+02 -3.57481E+02 -1.60830E+02  6.10866E+01  1.80736E+02
  2.66195E+02  4.15539E+02 -5.37086E+01  5.11590E+02 -6.88023E+01  4.18712E+02  2.86286E+02  3.79277E+02
 -3.18058E+02  2.63076E+02 -1.47506E+02 -3.44873E+01 -2.99153E+02 -2.72787E+02  1.41719E+02 -8.44858E+02
  4.51481E+02 -2.85320E+02  4.51864E+01  6.02947E+01  4.60018E+02 -8.38489E+02  5.31013E+02  5.38879E+02
  6.08978E+02  4.68975E+02 -1.15398E+02  2.55274E+02 -3.27070E+02  5.78368E+02 -3.47878E+02  2.33932E+02
  1.47076E+02 -3.25025E+02 -4.50995E+02 -1.38429E+02 -4.99777E+02 -1.50125E+02 -5.02071E+02 -4.74111E+02
 -8.61379E+02  4.53443E+02 -3.90116E+02 -5.74226E+02  6.33630E+02 -1.30581E+03  5.75021E+02  2.10746E+02
  4.23658E+02  2.89351E+01 -2.78306E+02 -4.00077E+01  1.16158E+02  4.32766E+02 -7.80939E+01  4.37859E+02
