 $NMID ID='MM_0lb_SNR800_7hz_g55_9.RAW', FMTDAT='(8E13.5)'
 TRAMP=1., VOLUME=1. $END
  3.09758E+05  4.34866E+02  3.37938E+05  2.50655E+05  8.46772E+04  3.39044E+05 -1.32918E+05  2.52225E+05
 -1.90794E+05  8.43841E+04 -1.12801E+05 -3.20769E+04  2.83520E+01 -5.15682E+04  5.35924E+04 -6.98448E+02
  3.58828E+04  5.29602E+04 -1.65948E+04  7.65325E+04 -6.19246E+04  6.46714E+04 -8.57485E+04  3.27238E+04
 -8.34036E+04 -1.18345E+04 -5.82643E+04 -5.30317E+04 -1.50377E+04 -7.19503E+04  2.87052E+04 -4.73030E+04
  4.13490E+04  3.86035E+03  1.64692E+04  4.89136E+04 -3.51669E+04  4.88932E+04 -6.86935E+04  3.07124E+02
 -5.54936E+04 -5.81974E+04 -7.41516E+03 -7.97393E+04  3.53142E+04 -5.78605E+04  5.07381E+04 -1.89071E+04
  4.64414E+04  1.14691E+04  3.35937E+04  2.67258E+04  1.56662E+04  3.09771E+04 -6.38016E+03  2.81269E+04
 -2.25059E+04  1.23235E+04 -1.80229E+04 -5.92177E+03  8.05721E+03 -7.57131E+03  2.39648E+04  1.44908E+04
  7.03632E+03  3.87361E+04 -3.46469E+04  3.80263E+04 -6.69338E+04  2.08503E+03 -6.01672E+04 -4.55975E+04
 -1.27881E+04 -6.70960E+04  4.22902E+04 -4.88915E+04  6.24281E+04 -2.53812E+03  3.76412E+04  3.52769E+04
 -5.34760E+03  4.10652E+04 -3.30102E+04  2.00946E+04 -3.51115E+04 -3.06324E+03 -2.05053E+04 -1.26530E+04
 -9.94731E+03 -1.58397E+04  8.00268E+01 -2.10511E+04  8.48217E+03 -2.36188E+04  1.61490E+04 -1.23925E+04
  1.01806E+04  6.62950E+03 -1.15217E+04  1.34285E+04 -2.47038E+04 -7.77563E+03 -8.47173E+03 -3.94106E+04
  2.63729E+04 -4.81915E+04  5.41593E+04 -2.20921E+04  5.06860E+04  2.15530E+04  1.83710E+04  4.86328E+04
 -1.65611E+04  3.73847E+04 -2.91361E+04  2.77545E+03 -1.27417E+04 -3.08873E+04  2.20422E+04 -3.84658E+04
  4.66412E+04 -1.23322E+04  4.30041E+04  2.58797E+04  2.31957E+04  5.31070E+04 -8.31801E+03  5.86190E+04
 -3.70077E+04  4.06302E+04 -4.99961E+04  1.19572E+04 -4.99504E+04 -1.93332E+04 -2.76282E+04 -4.43460E+04
  8.27034E+03 -4.44510E+04  3.54396E+04 -1.80817E+04  3.31925E+04  1.10959E+04  5.57172E+03  2.15398E+04
 -1.39253E+04  1.05724E+04 -1.17352E+04 -7.67350E+03  5.52322E+03 -1.22732E+04  1.94043E+04  5.31564E+03
  1.58068E+04  2.32732E+04 -4.74869E+03  2.79662E+04 -2.42642E+04  1.62777E+04 -3.33392E+04 -2.13805E+03
 -2.76175E+04 -1.87704E+04 -1.35833E+04 -2.75929E+04  4.65908E+03 -2.90899E+04  2.19902E+04 -2.51818E+04
  3.53547E+04 -1.53573E+04  4.09273E+04  5.78703E+03  2.87277E+04  2.65267E+04  4.56865E+03  4.34919E+04
 -2.03719E+04  3.60473E+04 -3.17188E+04  1.28204E+04 -2.32294E+04 -9.89321E+03 -5.11568E+03 -1.20786E+04
  3.35351E+02 -1.17636E+02 -8.91728E+03  8.98241E+03 -2.24442E+04  5.41652E+03 -2.16343E+04 -1.08094E+04
 -1.26636E+04 -2.57611E+04  6.86319E+03 -3.00096E+04  2.04975E+04 -2.14042E+04  2.48805E+04 -1.88289E+03
  1.54307E+04  1.77127E+04 -1.21014E+03  2.57774E+04 -1.87888E+04  1.47965E+04 -2.62381E+04 -4.99160E+03
 -1.87731E+04 -2.28076E+04 -2.19281E+03 -3.05151E+04  1.37844E+04 -2.56053E+04  2.53865E+04 -1.37025E+04
  2.43342E+04 -8.55849E+02  1.77880E+04  5.36342E+03  9.64667E+03  1.33148E+03  1.40909E+04 -1.74732E+03
  2.48148E+04  3.30819E+03  2.89269E+04  2.00791E+04  1.98524E+04  4.11898E+04 -2.37034E+03  4.99485E+04
 -2.80495E+04  4.21897E+04 -4.70762E+04  2.20808E+04 -5.09092E+04 -4.08450E+03 -4.10723E+04 -3.00934E+04
 -1.57192E+04 -4.27440E+04  1.53908E+04 -3.71788E+04  3.12318E+04 -1.62771E+04  2.69701E+04  9.55684E+03
  8.33598E+03  2.09109E+04 -1.32831E+04  1.75418E+04 -2.22573E+04  3.05237E+03 -1.67016E+04 -1.44962E+04
 -6.60108E+02 -2.14478E+04  1.20753E+04 -1.62833E+04  1.43370E+04 -1.10721E+03  4.27697E+03  1.01705E+04
 -9.81302E+03  4.89465E+03 -1.13393E+04 -7.14620E+03 -2.77547E+03 -2.05887E+04  1.29651E+04 -2.26474E+04
  2.60985E+04 -1.33337E+04  2.97747E+04  3.72974E+03  2.67084E+04  2.13045E+04  1.19837E+04  3.40714E+04
 -6.29120E+03  3.60722E+04 -2.40757E+04  2.24413E+04 -2.64662E+04  4.38468E+03 -1.78809E+04 -6.50695E+03
 -7.10002E+03 -8.45789E+03 -1.24996E+03  2.00293E+02 -3.42191E+03  3.86959E+03 -8.73653E+03  6.46530E+03
 -1.60975E+04 -1.25607E+03 -1.70209E+04 -1.36451E+04 -6.97743E+03 -2.19862E+04  7.30673E+03 -1.85598E+04
  1.50990E+04 -7.01162E+03  1.00331E+04  5.40495E+03 -4.07955E+02  7.33889E+03 -9.62908E+03 -3.26757E+02
 -9.07984E+03 -1.18456E+04 -1.61694E+03 -1.79417E+04  1.10993E+04 -1.91579E+04  2.39245E+04 -1.00836E+04
  2.77064E+04  2.89378E+03  2.00500E+04  1.70839E+04  3.62956E+03  2.25886E+04 -1.15144E+04  1.82166E+04
 -1.46552E+04  5.08341E+03 -7.48462E+03 -4.58423E+03  1.97601E+03 -5.20700E+03  9.50752E+03 -9.22701E+02
  8.69566E+03  8.49506E+03  1.13830E+03  1.44677E+04 -1.08207E+04  1.38389E+04 -1.84284E+04  3.10476E+03
 -1.29756E+04 -1.02452E+04  1.55522E+02 -1.58246E+04  1.02263E+04 -7.75576E+03  1.20559E+04  4.15677E+03
  3.08956E+03  1.26756E+04 -9.70536E+03  1.37178E+04 -1.65620E+04  5.71317E+03 -1.74146E+04 -6.41284E+03
 -1.04719E+04 -1.95038E+04  5.08398E+03 -2.24175E+04  1.89678E+04 -1.30121E+04  2.09395E+04  3.52442E+03
  1.20806E+04  1.60335E+04 -2.71581E+03  1.92859E+04 -1.36612E+04  1.07626E+04 -1.61002E+04 -1.57108E+03
 -1.28443E+04 -1.28740E+04 -1.53774E+03 -1.39850E+04  7.53518E+03 -1.18871E+04  9.53419E+03 -3.48577E+03
  5.66938E+03  2.95143E+03 -1.56193E+03  1.71871E+03 -1.09895E+03 -4.42599E+03  3.62841E+03 -9.73005E+03
  1.46640E+04 -7.09275E+03  2.07531E+04  2.43163E+03  1.97797E+04  1.43702E+04  1.20217E+04  2.62210E+04
 -6.45720E+03  3.00444E+04 -2.44763E+04  2.18496E+04 -3.11599E+04  4.35743E+03 -2.57879E+04 -1.17061E+04
 -1.34203E+04 -2.12644E+04 -2.28841E+02 -1.83320E+04  6.34203E+03 -1.10591E+04  6.79708E+03 -6.41251E+03
  4.52132E+03 -4.04867E+03  4.36716E+03 -4.23421E+03  6.66100E+03 -4.27529E+03  9.67770E+03 -2.05278E+03
  1.32098E+04  2.85454E+03  7.82551E+03  1.15576E+04 -2.58610E+03  1.50329E+04 -1.43728E+04  1.13960E+04
 -1.88501E+04 -1.40446E+03 -1.31421E+04 -1.33286E+04 -1.95081E+03 -2.04220E+04  1.08350E+04 -2.03020E+04
  2.15349E+04 -1.08167E+04  2.46165E+04  4.03707E+03  1.71772E+04  1.75909E+04  2.52790E+03  2.24183E+04
 -9.48765E+03  1.79692E+04 -1.35893E+04  6.28666E+03 -9.32382E+03 -2.39967E+03 -4.06348E+03 -3.29026E+03
 -2.47651E+03 -3.00681E+02 -2.57305E+03  3.51549E+03 -7.84992E+03  2.87435E+03 -1.26229E+04 -2.02332E+03
 -9.92323E+03 -1.26480E+04 -2.31812E+02 -1.84393E+04  1.18233E+04 -1.73601E+04  1.96449E+04 -5.66410E+03
  1.86744E+04  9.24355E+03  8.88100E+03  1.80465E+04 -3.82835E+03  1.96524E+04 -1.45216E+04  1.18534E+04
 -1.84233E+04  3.97472E+02 -1.36262E+04 -1.22424E+04 -1.68586E+03 -1.64706E+04  8.70224E+03 -1.20852E+04
  1.19824E+04 -3.27502E+03  8.32546E+03  3.64561E+03  3.13763E+03  5.95126E+03  2.05311E+03  2.70033E+03
  3.39098E+03  1.46776E+03  4.83472E+03  2.39523E+03  6.10421E+03  6.19364E+03  4.87612E+03  1.07327E+04
 -3.52469E+03  1.59810E+04 -1.42044E+04  1.52964E+04 -2.07659E+04  3.85775E+03 -2.11304E+04 -8.83652E+03
 -9.65115E+03 -2.04365E+04  2.36421E+03 -2.18910E+04  1.23179E+04 -1.43343E+04  1.61742E+04 -4.08108E+03
  1.26976E+04  7.41454E+03  3.34068E+03  1.13368E+04 -5.87591E+03  7.41384E+03 -8.61155E+03 -9.50365E+02
 -4.09553E+03 -8.70786E+03  4.19614E+03 -9.13073E+03  8.48109E+03 -4.44935E+03  8.06059E+03  2.06968E+03
  4.49131E+03  4.49418E+03  1.87981E+03  4.03565E+03 -7.87593E+02  2.99985E+03  1.59359E+03 -9.04801E+02
  3.62541E+03 -1.39309E+03  8.17801E+03  3.67050E+03  5.66618E+03  1.08513E+04 -1.48691E+03  1.45250E+04
 -9.76321E+03  9.89493E+03 -1.34777E+04  2.91355E+03 -1.18495E+04 -4.79441E+03 -5.38322E+03 -8.30271E+03
  1.09017E+03 -8.12019E+03  6.01487E+03 -3.70215E+03  4.48769E+03  3.50803E+03 -1.76309E+03  7.01451E+03
 -8.65362E+03  3.89990E+03 -1.04729E+04 -4.66172E+03 -5.85982E+03 -1.11279E+04  1.96164E+03 -1.14270E+04
  7.51077E+03 -7.25216E+03  8.89345E+03 -1.06911E+03  7.15826E+03  2.97174E+03  5.89397E+02  6.01585E+03
 -4.30709E+03  2.43072E+03 -4.71668E+03 -4.86385E+03  1.68066E+03 -9.49182E+03  1.09224E+04 -7.13097E+03
  1.38692E+04  1.12465E+03  1.28836E+04  9.43631E+03  3.83074E+03  1.43101E+04 -5.23179E+03  1.33703E+04
 -1.14928E+04  6.30896E+03 -1.21607E+04 -2.18837E+03 -6.68187E+03 -8.91199E+03  1.83142E+03 -9.28446E+03
  8.66394E+03 -3.82380E+03  7.64200E+03  4.04619E+03  2.48629E+03  7.47025E+03 -1.25276E+03  6.46810E+03
 -4.25097E+03  4.36281E+03 -3.22919E+03  1.46764E+03 -1.54827E+03  1.54412E+03 -2.11550E+03  2.57756E+03
 -3.75170E+03  6.09906E+03 -9.56200E+03  4.44229E+03 -1.46067E+04  1.40018E+02 -1.59223E+04 -9.50495E+03
 -8.27571E+03 -1.96022E+04  3.65381E+03 -2.19436E+04  1.36921E+04 -1.70694E+04  2.06019E+04 -6.49260E+03
  1.97898E+04  4.48037E+03  1.20104E+04  1.38467E+04  1.47523E+03  1.52288E+04 -6.00394E+03  1.12964E+04
 -8.19080E+03  3.93802E+03 -5.06936E+03 -2.03798E+03 -1.76839E+03 -1.44320E+03 -4.48854E+02 -1.73315E+02
 -2.12150E+03  4.88483E+02 -3.02287E+03 -7.02649E+02 -1.01509E+03 -3.78132E+03  3.47327E+02 -5.47809E+03
  6.48099E+03 -5.39318E+03  9.69110E+03 -1.56543E+02  1.02130E+04  8.33818E+03  3.58089E+03  1.58937E+04
 -7.06217E+03  1.70435E+04 -1.63413E+04  9.96389E+03 -1.85061E+04 -1.52539E+03 -1.41072E+04 -1.14768E+04
 -5.90053E+03 -1.59030E+04  4.17998E+03 -1.47368E+04  1.03105E+04 -7.87074E+03  1.02055E+04  1.95670E+02
  5.46063E+03  5.69770E+03 -5.85089E+02  4.95977E+03 -3.02244E+03 -1.93380E+02  6.37555E+01 -3.66570E+03
  4.96775E+03 -2.43326E+03  6.51147E+03  1.60951E+03  4.64726E+03  6.52774E+03 -2.24370E+02  8.43674E+03
 -7.01884E+03  7.55619E+03 -1.08886E+04  8.73905E+02 -9.44005E+03 -7.98906E+03 -1.67725E+03 -1.32251E+04
  7.63184E+03 -1.13467E+04  1.26194E+04 -3.82672E+03  1.25991E+04  3.47471E+03  7.37792E+03  9.83771E+03
  1.03952E+03  1.10919E+04 -4.33991E+03  9.02270E+03 -6.41090E+03  4.52817E+03 -5.53690E+03  8.99772E+02
 -3.51482E+03 -7.72819E+02 -3.20160E+03  1.26163E+03 -5.89361E+03  1.66932E+03 -8.08347E+03 -9.74014E+02
 -7.51314E+03 -5.94967E+03 -2.09177E+03 -1.11966E+04  4.69938E+03 -1.10273E+04  9.69241E+03 -5.98398E+03
  1.10014E+04  1.42492E+03  6.15875E+03  8.34866E+03 -8.70970E+02  1.04714E+04 -8.64457E+03  7.37744E+03
