 $NMID ID='MM_0lb_SNR800_13hz_g60_21.RAW', FMTDAT='(8E13.5)'
 TRAMP=1., VOLUME=1. $END
  3.09986E+05  5.41190E+02  3.37579E+05  2.50797E+05  8.49599E+04  3.38639E+05 -1.32469E+05  2.51577E+05
 -1.90728E+05  8.35565E+04 -1.12494E+05 -3.22431E+04  4.73370E+02 -5.08777E+04  5.34280E+04 -2.22995E+02
  3.56997E+04  5.24540E+04 -1.69214E+04  7.56163E+04 -6.09596E+04  6.39476E+04 -8.44790E+04  3.25862E+04
 -8.18150E+04 -1.19276E+04 -5.76591E+04 -5.18190E+04 -1.48054E+04 -7.06755E+04  2.80184E+04 -4.61533E+04
  4.06738E+04  3.59163E+03  1.68468E+04  4.83401E+04 -3.47690E+04  4.78613E+04 -6.73305E+04  4.09475E+01
 -5.42823E+04 -5.74623E+04 -6.86673E+03 -7.82497E+04  3.45438E+04 -5.61153E+04  4.92488E+04 -1.77725E+04
  4.41170E+04  1.12922E+04  3.25866E+04  2.61450E+04  1.61467E+04  3.01569E+04 -5.84958E+03  2.73215E+04
 -2.26089E+04  1.23716E+04 -1.82520E+04 -5.20378E+03  6.39183E+03 -7.24646E+03  2.28488E+04  1.30158E+04
  7.43256E+03  3.63632E+04 -3.28272E+04  3.61325E+04 -6.46369E+04  2.08310E+03 -5.80573E+04 -4.35087E+04
 -1.23469E+04 -6.46496E+04  4.06011E+04 -4.65387E+04  5.99363E+04 -2.58523E+03  3.56540E+04  3.32457E+04
 -5.65214E+03  3.79219E+04 -3.10908E+04  1.76373E+04 -3.16438E+04 -4.08987E+03 -1.83589E+04 -1.17663E+04
 -8.71530E+03 -1.44197E+04 -9.79849E+02 -1.88182E+04  8.15350E+03 -2.34237E+04  1.56784E+04 -1.29749E+04
  1.06868E+04  5.46337E+03 -9.51795E+03  1.26897E+04 -2.25810E+04 -5.68123E+03 -8.48362E+03 -3.57125E+04
  2.36540E+04 -4.51991E+04  5.01833E+04 -2.06538E+04  4.70295E+04  2.00897E+04  1.67386E+04  4.55537E+04
 -1.61478E+04  3.47674E+04 -2.65978E+04  2.04391E+03 -1.10584E+04 -2.86926E+04  2.11361E+04 -3.51875E+04
  4.30402E+04 -1.01996E+04  3.77286E+04  2.45824E+04  2.00343E+04  4.85609E+04 -8.29799E+03  5.34231E+04
 -3.33977E+04  3.63695E+04 -4.48847E+04  9.98030E+03 -4.51292E+04 -1.78953E+04 -2.48655E+04 -4.04155E+04
  7.71092E+03 -3.98772E+04  3.28847E+04 -1.55088E+04  3.04330E+04  1.09018E+04  4.39563E+03  1.99857E+04
 -1.38296E+04  9.21537E+03 -1.06137E+04 -7.61503E+03  5.95368E+03 -1.12981E+04  1.82279E+04  5.81686E+03
  1.41175E+04  2.24106E+04 -5.84981E+03  2.58838E+04 -2.30265E+04  1.32425E+04 -2.97997E+04 -4.01288E+03
 -2.28059E+04 -1.78356E+04 -9.71678E+03 -2.27832E+04  4.27207E+03 -2.24400E+04  1.79153E+04 -2.05499E+04
  2.86421E+04 -1.32124E+04  3.47992E+04  3.65109E+03  2.50781E+04  2.20424E+04  4.34822E+03  3.87245E+04
 -1.85809E+04  3.18087E+04 -2.90368E+04  1.10016E+04 -2.19046E+04 -9.99742E+03 -4.73630E+03 -1.30776E+04
  1.49812E+03 -2.06162E+03 -6.27015E+03  7.43152E+03 -1.77469E+04  4.74225E+03 -1.78316E+04 -8.17890E+03
 -1.06992E+04 -2.10614E+04  5.58249E+03 -2.50383E+04  1.70194E+04 -1.78722E+04  2.00452E+04 -1.99172E+03
  1.27739E+04  1.44549E+04 -1.05011E+03  2.09670E+04 -1.48759E+04  1.16408E+04 -2.09528E+04 -4.20308E+03
 -1.55421E+04 -1.86230E+04 -2.19639E+03 -2.53021E+04  1.13434E+04 -2.07402E+04  2.11831E+04 -1.06101E+04
  1.95816E+04  5.56600E+01  1.41401E+04  4.79966E+03  7.73196E+03  1.07984E+03  1.08610E+04 -1.55290E+03
  1.94768E+04  3.06076E+03  2.20314E+04  1.66297E+04  1.50600E+04  3.35825E+04 -3.04731E+03  3.88119E+04
 -2.22906E+04  3.14521E+04 -3.61209E+04  1.56489E+04 -3.81552E+04 -3.20331E+03 -3.16664E+04 -2.25581E+04
 -1.27799E+04 -3.15779E+04  1.13400E+04 -2.82538E+04  2.44163E+04 -1.37977E+04  2.15722E+04  6.59050E+03
  7.57540E+03  1.61581E+04 -1.00437E+04  1.39359E+04 -1.80075E+04  2.77644E+03 -1.42378E+04 -1.13484E+04
 -5.44470E+00 -1.71741E+04  8.96398E+03 -1.28714E+04  1.13182E+04 -1.64911E+03  3.11045E+03  7.44247E+03
 -7.69164E+03  3.25829E+03 -7.18381E+03 -6.15511E+03 -1.00598E+03 -1.50314E+04  1.05171E+04 -1.63996E+04
  1.89880E+04 -8.84415E+03  2.10058E+04  3.17051E+03  1.83196E+04  1.55417E+04  8.75636E+03  2.38608E+04
 -4.04407E+03  2.58327E+04 -1.65407E+04  1.57797E+04 -1.86269E+04  3.82498E+03 -1.28619E+04 -4.40985E+03
 -5.65383E+03 -5.93240E+03 -6.59386E+02  1.18511E+03 -2.45048E+03  2.61871E+03 -5.74887E+03  4.83227E+03
 -1.21043E+04 -8.29743E+02 -1.28228E+04 -1.01732E+04 -5.29539E+03 -1.62667E+04  5.45432E+03 -1.28309E+04
  1.10002E+04 -5.37213E+03  7.45829E+03  3.85885E+03  6.04479E+01  5.21753E+03 -6.37943E+03 -4.83638E+01
 -5.96190E+03 -8.32108E+03 -7.95901E+02 -1.20448E+04  7.18908E+03 -1.28402E+04  1.65321E+04 -7.11414E+03
  1.90431E+04  1.61718E+03  1.37409E+04  1.09706E+04  2.62430E+03  1.51657E+04 -7.93786E+03  1.30047E+04
 -1.02904E+04  3.71412E+03 -5.62791E+03 -2.48437E+03  1.84312E+03 -3.15554E+03  6.87843E+03 -1.01724E+03
  6.01690E+03  5.80819E+03  9.05252E+02  1.02699E+04 -7.69960E+03  9.96511E+03 -1.26165E+04  2.50728E+03
 -8.24420E+03 -6.17981E+03  2.41860E+02 -1.03921E+04  6.78721E+03 -5.30795E+03  6.93653E+03  2.47619E+03
  1.62839E+03  7.23519E+03 -6.48503E+03  8.75250E+03 -1.00340E+04  3.94134E+03 -1.02253E+04 -3.81152E+03
 -6.02140E+03 -1.16412E+04  2.59891E+03 -1.38580E+04  1.15387E+04 -7.90012E+03  1.27758E+04  2.17250E+03
  7.64467E+03  1.00069E+04 -9.38007E+02  1.25910E+04 -8.87063E+03  6.87526E+03 -9.68425E+03 -1.10397E+03
 -8.59158E+03 -8.22161E+03 -1.46045E+03 -9.05982E+03  4.78560E+03 -7.85616E+03  5.90697E+03 -3.20980E+03
  4.30899E+03  1.37470E+03 -9.16406E+02  1.83031E+03 -4.38325E+02 -2.29559E+03  2.01649E+03 -5.06461E+03
  8.00163E+03 -3.22293E+03  1.14427E+04  1.55486E+03  1.13988E+04  7.75320E+03  7.84052E+03  1.54211E+04
 -3.41375E+03  1.74420E+04 -1.45965E+04  1.31110E+04 -1.90861E+04  2.48668E+03 -1.52541E+04 -6.18220E+03
 -7.72502E+03 -1.24909E+04 -1.70021E+02 -1.06925E+04  3.94626E+03 -5.63431E+03  3.64737E+03 -4.01466E+03
  2.48065E+03 -2.47368E+03  3.49548E+03 -3.08166E+03  4.72075E+03 -2.33126E+03  6.08656E+03 -6.50146E+02
  8.35612E+03  1.71316E+03  4.00355E+03  6.78194E+03 -2.01322E+03  7.40234E+03 -8.37361E+03  5.84896E+03
 -1.02033E+04 -1.11850E+03 -5.87115E+03 -7.12516E+03 -4.07730E+02 -1.08538E+04  6.47307E+03 -1.08510E+04
  1.15596E+04 -6.20115E+03  1.36463E+04  1.36879E+03  9.61464E+03  9.29174E+03  1.66475E+03  1.26306E+04
 -5.07799E+03  1.05217E+04 -7.33180E+03  3.53034E+03 -4.98085E+03 -1.40605E+03 -1.77132E+03 -1.54871E+03
 -1.00729E+03  2.35745E+02 -1.89773E+03  2.32802E+03 -4.46872E+03  1.74590E+03 -7.51172E+03 -9.09312E+02
 -4.50836E+03 -7.40618E+03  4.22419E+02 -1.00585E+04  5.79646E+03 -9.29698E+03  9.18512E+03 -2.83168E+03
  9.62460E+03  5.06672E+03  4.31228E+03  8.55680E+03 -1.55186E+03  9.74948E+03 -6.90365E+03  6.34722E+03
 -9.11537E+03  8.58108E+02 -7.11210E+03 -5.94499E+03 -8.08427E+02 -8.13210E+03  3.92504E+03 -6.46689E+03
  6.15822E+03 -2.03510E+03  4.00581E+03  1.43691E+03  1.38417E+03  3.18026E+03  1.23283E+03  1.32670E+03
  2.22553E+03  1.03632E+03  2.63508E+03  1.44925E+03  2.84052E+03  3.70579E+03  2.46406E+03  4.61680E+03
 -2.24913E+03  7.42847E+03 -6.40935E+03  8.23448E+03 -9.30467E+03  2.12201E+03 -1.01539E+04 -3.41141E+03
 -4.38178E+03 -9.86225E+03  1.32660E+03 -1.05572E+04  5.46541E+03 -6.44528E+03  7.58142E+03 -1.73311E+03
  5.95589E+03  3.83027E+03  1.28293E+03  5.45867E+03 -2.73945E+03  3.55024E+03 -3.28513E+03 -4.08136E+02
 -1.80396E+03 -3.91586E+03  2.56977E+03 -3.70307E+03  3.60038E+03 -1.86091E+03  3.54223E+03  6.75464E+02
  1.81340E+03  1.46006E+03  1.10354E+03  1.08300E+03 -7.43638E+02  1.63449E+03  1.61976E+03 -3.08104E+02
  1.61859E+03 -5.93066E+02  3.80978E+03  1.66886E+03  1.89782E+03  4.88960E+03 -8.75512E+02  6.47237E+03
 -4.74210E+03  4.21636E+03 -5.76235E+03  1.16516E+03 -5.40024E+03 -1.91763E+03 -1.81498E+03 -3.30722E+03
  7.14418E+02 -3.87857E+03  2.36028E+03 -1.93859E+03  1.54702E+03  2.07897E+03 -1.43730E+03  2.66870E+03
 -3.52829E+03  1.61467E+03 -3.87535E+03 -2.37211E+03 -2.33627E+03 -5.02933E+03  6.50809E+02 -4.99056E+03
  2.72123E+03 -2.58058E+03  3.16365E+03 -6.77720E+02  2.88188E+03  1.06277E+03  5.79182E+02  2.91398E+03
 -1.75983E+03  5.24782E+02 -2.35379E+03 -1.43713E+03  8.73203E+02 -3.29255E+03  3.93497E+03 -2.80299E+03
  4.71170E+03  4.74184E+02  5.75519E+03  3.52448E+03  1.78643E+03  5.40658E+03 -1.92824E+03  5.30871E+03
 -4.63554E+03  1.92193E+03 -4.51715E+03 -1.33462E+03 -2.44454E+03 -3.73132E+03  1.25208E+03 -3.08528E+03
  3.59070E+03 -1.77540E+03  2.34219E+03  1.46681E+03  7.64551E+02  3.02067E+03 -1.17882E+02  2.84519E+03
 -1.03288E+03  1.70982E+03 -1.25625E+03  6.09515E+02 -6.30433E+02  6.74254E+02 -1.14134E+03  1.14287E+03
 -1.60031E+03  2.33623E+03 -3.98899E+03  1.93760E+03 -5.39092E+03  3.91439E+02 -6.48070E+03 -3.50764E+03
 -3.12972E+03 -7.13486E+03  1.41986E+03 -8.26860E+03  4.79315E+03 -6.56822E+03  8.00606E+03 -2.68393E+03
  7.35327E+03  1.08648E+03  4.43390E+03  4.72090E+03  3.54718E-01  5.32324E+03 -1.88005E+03  4.33913E+03
 -3.22751E+03  1.67024E+03 -1.59279E+03 -6.39535E+02 -9.59605E+02 -1.05374E+02 -6.59959E+02 -1.52373E+02
 -1.61684E+03  2.24501E+02 -1.73569E+03 -2.59219E+02 -7.86792E+01 -1.56844E+03 -1.30667E+02 -2.27944E+03
  2.84568E+03 -1.77422E+03  2.59255E+03 -1.27168E+02  3.67042E+03  2.98356E+03  6.73867E+02  4.73666E+03
 -2.39148E+03  6.17654E+03 -5.71890E+03  3.78819E+03 -6.45559E+03 -6.01916E+02 -4.51903E+03 -3.90378E+03
 -2.10705E+03 -5.07837E+03  1.39217E+03 -4.72062E+03  3.13781E+03 -2.55372E+03  3.16388E+03 -4.86379E+01
  1.88036E+03  1.50145E+03 -3.81560E+01  1.39237E+03 -1.12737E+03  5.93911E+01  1.60222E+02 -1.22456E+03
  1.24153E+03 -3.61037E+02  1.91101E+03  6.22984E+02  1.37335E+03  2.02426E+03  6.32949E+02  2.36845E+03
 -2.03736E+03  2.12240E+03 -3.02688E+03 -5.23135E+01 -2.93645E+03 -2.13199E+03 -5.92399E+02 -4.38282E+03
  2.26056E+03 -3.14023E+03  3.54494E+03 -6.81686E+02  3.78278E+03  4.17322E+02  2.06661E+03  2.88767E+03
  6.89857E+02  2.83005E+03 -8.65755E+02  2.93362E+03 -1.83737E+03  1.78911E+03 -1.64875E+03  1.13636E+02
 -1.06289E+03 -2.01596E+02 -9.31341E+02  4.17369E+02 -1.28982E+03  6.40551E+02 -2.30486E+03 -4.84587E+02
 -3.02139E+03 -1.13150E+03 -7.57945E+02 -3.06972E+03  1.58881E+03 -3.82931E+03  2.70854E+03 -1.40508E+03
  3.17424E+03  4.71000E+02  1.21234E+03  2.30604E+03 -8.61974E+01  2.99069E+03 -1.99650E+03  2.10279E+03
