 $NMID ID='MM_0lb_SNR800_11hz_g40_88.RAW', FMTDAT='(8E13.5)'
 TRAMP=1., VOLUME=1. $END
  3.09433E+05  2.24592E+02  3.37811E+05  2.50570E+05  8.45353E+04  3.37642E+05 -1.32713E+05  2.51297E+05
 -1.90453E+05  8.33229E+04 -1.12147E+05 -3.24289E+04  3.06889E+02 -5.04141E+04  5.40797E+04 -2.52659E+02
  3.53211E+04  5.27117E+04 -1.65356E+04  7.60102E+04 -6.06315E+04  6.34762E+04 -8.45404E+04  3.20120E+04
 -8.14543E+04 -1.14235E+04 -5.74740E+04 -5.19329E+04 -1.51255E+04 -7.00680E+04  2.77371E+04 -4.63352E+04
  4.05313E+04  3.72561E+03  1.66172E+04  4.80496E+04 -3.46960E+04  4.75002E+04 -6.71725E+04  9.10380E+01
 -5.38854E+04 -5.69398E+04 -7.00849E+03 -7.79209E+04  3.41585E+04 -5.53088E+04  4.84071E+04 -1.75980E+04
  4.39609E+04  1.14927E+04  3.23099E+04  2.58466E+04  1.59544E+04  2.99136E+04 -5.48977E+03  2.75065E+04
 -2.22920E+04  1.23227E+04 -1.82637E+04 -5.51607E+03  6.03312E+03 -7.20619E+03  2.25920E+04  1.28932E+04
  7.38183E+03  3.59818E+04 -3.28761E+04  3.61531E+04 -6.44937E+04  2.14743E+03 -5.75096E+04 -4.35014E+04
 -1.23584E+04 -6.42639E+04  4.05577E+04 -4.60013E+04  5.92068E+04 -2.22771E+03  3.52379E+04  3.32046E+04
 -5.70788E+03  3.71988E+04 -3.08518E+04  1.73221E+04 -3.15485E+04 -3.96430E+03 -1.74940E+04 -1.11560E+04
 -8.93607E+03 -1.44845E+04 -4.49235E+02 -1.87171E+04  7.76294E+03 -2.31546E+04  1.55128E+04 -1.29354E+04
  1.11124E+04  5.40807E+03 -8.91551E+03  1.29615E+04 -2.21992E+04 -5.63083E+03 -8.29828E+03 -3.53509E+04
  2.37191E+04 -4.43734E+04  4.95997E+04 -2.00283E+04  4.61708E+04  1.99209E+04  1.63875E+04  4.49389E+04
 -1.63800E+04  3.42375E+04 -2.60675E+04  2.11209E+03 -1.02085E+04 -2.84903E+04  2.11745E+04 -3.43879E+04
  4.25954E+04 -9.69323E+03  3.72844E+04  2.41422E+04  1.90966E+04  4.84773E+04 -7.95659E+03  5.25889E+04
 -3.33141E+04  3.56328E+04 -4.40424E+04  9.97901E+03 -4.41397E+04 -1.72910E+04 -2.46778E+04 -3.95797E+04
  7.26171E+03 -3.95998E+04  3.27765E+04 -1.55334E+04  3.01090E+04  1.10282E+04  4.45239E+03  1.97363E+04
 -1.36179E+04  9.04822E+03 -1.07595E+04 -7.67904E+03  5.87127E+03 -1.09177E+04  1.86501E+04  5.89165E+03
  1.40977E+04  2.19778E+04 -5.70548E+03  2.57927E+04 -2.28349E+04  1.25517E+04 -2.93861E+04 -4.27616E+03
 -2.22374E+04 -1.78300E+04 -9.64429E+03 -2.23367E+04  3.95256E+03 -2.22702E+04  1.71979E+04 -2.00994E+04
  2.87127E+04 -1.33973E+04  3.48608E+04  3.57407E+03  2.52166E+04  2.20904E+04  4.43574E+03  3.86527E+04
 -1.85269E+04  3.17752E+04 -2.88401E+04  1.10845E+04 -2.13774E+04 -1.03442E+04 -4.54996E+03 -1.29534E+04
  1.55304E+03 -2.20038E+03 -5.64870E+03  7.32566E+03 -1.78973E+04  5.07592E+03 -1.79616E+04 -7.88964E+03
 -1.07348E+04 -2.05896E+04  5.30509E+03 -2.50675E+04  1.67531E+04 -1.80746E+04  1.98357E+04 -1.53724E+03
  1.28568E+04  1.42567E+04 -1.51454E+03  2.07308E+04 -1.44861E+04  1.18797E+04 -2.09953E+04 -4.36009E+03
 -1.54930E+04 -1.90108E+04 -1.80237E+03 -2.47491E+04  1.12006E+04 -2.06277E+04  2.09155E+04 -1.03986E+04
  1.93448E+04  1.56736E+02  1.43833E+04  4.80588E+03  7.86687E+03  1.38225E+03  1.05597E+04 -2.00475E+03
  1.91740E+04  2.63176E+03  2.18339E+04  1.63960E+04  1.44684E+04  3.30237E+04 -3.01255E+03  3.83095E+04
 -2.20445E+04  3.16649E+04 -3.60667E+04  1.59181E+04 -3.81360E+04 -2.66583E+03 -3.17084E+04 -2.20173E+04
 -1.25499E+04 -3.13807E+04  1.07509E+04 -2.77586E+04  2.43319E+04 -1.39651E+04  2.10693E+04  6.46568E+03
  7.98911E+03  1.64436E+04 -9.99250E+03  1.38877E+04 -1.76839E+04  2.59065E+03 -1.38098E+04 -1.11605E+04
 -1.16430E+02 -1.73031E+04  8.74812E+03 -1.27946E+04  1.16845E+04 -1.41601E+03  2.56338E+03  7.30480E+03
 -7.48234E+03  3.04882E+03 -7.15604E+03 -6.02192E+03 -1.23834E+03 -1.55072E+04  1.08014E+04 -1.65387E+04
  1.91488E+04 -9.07759E+03  2.12693E+04  3.23051E+03  1.83023E+04  1.51990E+04  8.77681E+03  2.41664E+04
 -4.66593E+03  2.56132E+04 -1.64633E+04  1.62903E+04 -1.84673E+04  3.50411E+03 -1.30542E+04 -4.48113E+03
 -6.05974E+03 -5.83007E+03 -7.29211E+02  1.05136E+03 -2.84917E+03  2.58591E+03 -6.05882E+03  4.51925E+03
 -1.22781E+04 -1.37119E+03 -1.23878E+04 -1.02797E+04 -5.26347E+03 -1.65258E+04  5.09734E+03 -1.32299E+04
  1.09742E+04 -5.32912E+03  7.94473E+03  3.43807E+03  5.14256E+01  5.34567E+03 -6.10824E+03 -2.63779E+02
 -6.15498E+03 -8.58077E+03 -6.53817E+02 -1.28728E+04  7.26708E+03 -1.33516E+04  1.65348E+04 -7.12758E+03
  1.94945E+04  1.61953E+03  1.44322E+04  1.13292E+04  2.71456E+03  1.54123E+04 -7.70776E+03  1.31454E+04
 -1.03893E+04  4.02458E+03 -5.73934E+03 -2.95375E+03  1.47794E+03 -3.58225E+03  6.65661E+03 -1.04854E+03
  6.48629E+03  5.44253E+03  1.14432E+03  1.02607E+04 -7.86487E+03  1.01708E+04 -1.27971E+04  2.30183E+03
 -8.36232E+03 -6.57060E+03  3.47249E+02 -1.10878E+04  7.16107E+03 -5.51898E+03  7.37315E+03  2.28082E+03
  1.73309E+03  7.62695E+03 -6.83567E+03  9.29987E+03 -1.05885E+04  4.26757E+03 -1.04073E+04 -3.70537E+03
 -5.80511E+03 -1.23220E+04  2.65586E+03 -1.40403E+04  1.20286E+04 -8.47589E+03  1.30889E+04  2.25080E+03
  8.26969E+03  1.03500E+04 -8.66179E+02  1.28191E+04 -9.16872E+03  7.33932E+03 -1.01041E+04 -1.28155E+03
 -9.10346E+03 -8.66509E+03 -1.74069E+03 -9.65047E+03  5.02637E+03 -7.86391E+03  5.77067E+03 -3.24549E+03
  3.90470E+03  1.69585E+03 -7.95917E+02  1.85441E+03 -4.72778E+02 -2.38304E+03  1.72809E+03 -5.54410E+03
  8.80977E+03 -3.31836E+03  1.22662E+04  1.84243E+03  1.20194E+04  8.32877E+03  8.56210E+03  1.62603E+04
 -3.57588E+03  1.82831E+04 -1.54810E+04  1.41537E+04 -1.99471E+04  2.42440E+03 -1.61503E+04 -6.85901E+03
 -7.92656E+03 -1.29409E+04 -5.83211E+02 -1.13516E+04  3.97405E+03 -6.32377E+03  3.97872E+03 -4.16254E+03
  2.76554E+03 -2.34906E+03  3.14287E+03 -3.69752E+03  4.98100E+03 -2.80886E+03  6.30814E+03 -8.15728E+02
  8.45406E+03  2.25122E+03  4.48585E+03  7.05896E+03 -2.06375E+03  7.89313E+03 -8.83942E+03  6.37921E+03
 -1.11158E+04 -1.36004E+03 -6.78402E+03 -8.06600E+03 -7.06087E+02 -1.19894E+04  6.40642E+03 -1.20661E+04
  1.23939E+04 -6.96823E+03  1.49543E+04  2.09297E+03  1.04315E+04  1.03091E+04  1.63105E+03  1.36015E+04
 -5.73728E+03  1.11875E+04 -7.68726E+03  3.60980E+03 -5.33690E+03 -1.47489E+03 -1.78773E+03 -2.13304E+03
 -1.30610E+03 -1.05388E+02 -1.51817E+03  2.88789E+03 -4.63102E+03  1.77831E+03 -8.10157E+03 -1.36221E+03
 -5.35245E+03 -7.77933E+03  5.38934E+02 -1.09579E+04  6.76638E+03 -9.98886E+03  1.07546E+04 -2.74939E+03
  1.13920E+04  5.18794E+03  5.07182E+03  9.75779E+03 -2.22614E+03  1.13156E+04 -7.63163E+03  7.01601E+03
 -1.04411E+04  5.68231E+02 -7.70150E+03 -6.71442E+03 -5.65599E+02 -9.03893E+03  4.49640E+03 -6.50504E+03
  6.99115E+03 -2.40875E+03  4.51112E+03  1.85893E+03  1.49321E+03  3.35856E+03  1.34459E+03  1.50408E+03
  2.44354E+03  1.11614E+03  2.57131E+03  1.52052E+03  3.46620E+03  4.21707E+03  2.79751E+03  5.41301E+03
 -2.27837E+03  8.72172E+03 -7.44362E+03  8.60670E+03 -1.06111E+04  2.30179E+03 -1.17860E+04 -4.48113E+03
 -5.26463E+03 -1.06010E+04  1.46116E+03 -1.21472E+04  6.02336E+03 -7.61798E+03  8.87454E+03 -1.90617E+03
  6.77538E+03  3.79826E+03  1.45520E+03  6.59122E+03 -3.03798E+03  3.59927E+03 -4.37879E+03 -5.54842E+02
 -1.77031E+03 -4.48824E+03  2.70492E+03 -4.86979E+03  4.25025E+03 -2.45182E+03  4.01289E+03  1.18349E+03
  2.51369E+03  1.72947E+03  7.83087E+02  1.59262E+03 -6.77263E+02  1.65181E+03  1.41128E+03 -8.26976E+02
  1.75509E+03 -5.70868E+02  4.29490E+03  1.68178E+03  2.52336E+03  5.78902E+03 -9.72726E+02  7.50547E+03
 -4.86018E+03  4.38483E+03 -6.88369E+03  1.34110E+03 -6.17223E+03 -2.60114E+03 -1.90007E+03 -3.69169E+03
  4.75327E+02 -4.53645E+03  2.55488E+03 -2.02679E+03  2.38719E+03  2.29620E+03 -9.84064E+02  3.50912E+03
 -4.45625E+03  2.28636E+03 -5.30269E+03 -2.13997E+03 -3.03855E+03 -5.91666E+03  9.41389E+02 -5.69841E+03
  3.09333E+03 -3.35756E+03  4.12027E+03 -2.52678E+02  3.41682E+03  1.05955E+03  6.67719E+02  3.42210E+03
 -1.92235E+03  6.92060E+02 -2.51800E+03 -1.98311E+03  1.00330E+03 -4.27949E+03  5.53567E+03 -3.55429E+03
  6.26120E+03  4.72442E+02  7.09061E+03  4.32742E+03  2.34035E+03  6.55193E+03 -2.21007E+03  6.42758E+03
 -5.64911E+03  2.83866E+03 -5.80743E+03 -7.59742E+02 -2.95224E+03 -4.48234E+03  8.69788E+02 -3.87498E+03
  4.35573E+03 -2.16064E+03  3.73257E+03  2.05494E+03  1.11098E+03  3.79367E+03 -3.90568E+02  3.38771E+03
 -1.90021E+03  2.52217E+03 -1.58319E+03  8.91424E+02 -4.07781E+02  9.05428E+02 -1.29211E+03  1.62076E+03
 -1.98366E+03  2.78586E+03 -4.87480E+03  2.53195E+03 -6.84549E+03  1.56585E+02 -7.68224E+03 -4.58707E+03
 -3.79776E+03 -9.50768E+03  1.85023E+03 -1.03061E+04  6.11948E+03 -8.21511E+03  9.78715E+03 -3.46181E+03
  9.12753E+03  1.35583E+03  5.38008E+03  6.28109E+03  5.91142E+02  6.90495E+03 -2.97296E+03  5.19910E+03
 -3.78836E+03  2.09663E+03 -2.21166E+03 -8.43250E+02 -9.92480E+02 -2.54594E+02 -7.59581E+02  1.97981E+01
 -1.27182E+03  6.67906E+01 -1.62427E+03 -2.38137E+02  1.41680E+02 -1.76519E+03  4.99769E+01 -2.60522E+03
  3.09767E+03 -2.20758E+03  3.93391E+03 -4.58149E+01  4.87856E+03  3.86954E+03  1.09857E+03  6.95150E+03
 -3.09535E+03  8.07954E+03 -7.20235E+03  4.16188E+03 -8.07374E+03 -8.44579E+02 -6.30171E+03 -5.12046E+03
 -2.69720E+03 -6.76978E+03  1.75603E+03 -6.41599E+03  4.23575E+03 -3.51734E+03  4.52887E+03  6.30166E+02
  2.60874E+03  2.22371E+03 -1.82181E+02  2.16057E+03 -1.56781E+03  5.84929E+01  1.93730E+02 -1.43411E+03
  2.41561E+03 -6.36517E+02  2.57695E+03  6.49986E+02  1.57188E+03  2.43863E+03  3.81587E+02  3.26214E+03
 -3.09629E+03  3.22676E+03 -4.73636E+03  8.80525E+01 -4.03936E+03 -3.15994E+03 -2.31945E+02 -5.67130E+03
  3.19182E+03 -4.56884E+03  5.09487E+03 -1.35643E+03  5.04416E+03  5.73334E+02  3.02547E+03  4.13043E+03
  8.47029E+02  4.17480E+03 -1.33632E+03  3.37588E+03 -3.11492E+03  2.17026E+03 -2.39917E+03  2.33301E+02
 -1.19600E+03 -1.41122E+02 -1.12896E+03  4.43301E+02 -2.46130E+03  6.68594E+02 -3.34362E+03 -5.71105E+02
 -3.47578E+03 -2.08769E+03 -1.41295E+03 -4.70235E+03  2.43917E+03 -5.21930E+03  4.30151E+03 -1.95289E+03
  4.16917E+03  5.17458E+02  1.94402E+03  3.00423E+03  7.17934E+01  4.70024E+03 -3.02860E+03  3.15471E+03
