 $NMID ID='MM_0lb_SNR800_9hz_g55_58.RAW', FMTDAT='(8E13.5)'
 TRAMP=1., VOLUME=1. $END
  3.09964E+05  2.50005E+02  3.37976E+05  2.50688E+05  8.52253E+04  3.38657E+05 -1.32871E+05  2.51806E+05
 -1.90782E+05  8.36065E+04 -1.12660E+05 -3.24204E+04  5.41528E+02 -5.03797E+04  5.34785E+04 -5.19641E+01
  3.55788E+04  5.26071E+04 -1.68714E+04  7.62041E+04 -6.12024E+04  6.48327E+04 -8.53552E+04  3.28959E+04
 -8.29016E+04 -1.14771E+04 -5.84073E+04 -5.28166E+04 -1.51291E+04 -7.11866E+04  2.82214E+04 -4.68991E+04
  4.14309E+04  3.32617E+03  1.65336E+04  4.83469E+04 -3.48806E+04  4.86868E+04 -6.84321E+04 -1.04727E+02
 -5.53805E+04 -5.78793E+04 -7.58592E+03 -7.93388E+04  3.52525E+04 -5.73023E+04  4.97692E+04 -1.86193E+04
  4.54162E+04  1.17164E+04  3.30121E+04  2.68758E+04  1.67410E+04  3.10277E+04 -5.58178E+03  2.72395E+04
 -2.26284E+04  1.20583E+04 -1.82986E+04 -5.85995E+03  7.08188E+03 -7.40834E+03  2.35696E+04  1.38290E+04
  7.15862E+03  3.77450E+04 -3.39129E+04  3.73630E+04 -6.60643E+04  2.27346E+03 -5.89475E+04 -4.51478E+04
 -1.25185E+04 -6.62390E+04  4.18347E+04 -4.71468E+04  6.17926E+04 -2.85741E+03  3.66939E+04  3.48783E+04
 -5.75501E+03  3.94739E+04 -3.23786E+04  1.93765E+04 -3.38323E+04 -3.81707E+03 -1.98813E+04 -1.17121E+04
 -9.92995E+03 -1.51662E+04  1.24418E+01 -1.99597E+04  8.42501E+03 -2.34651E+04  1.62369E+04 -1.25625E+04
  1.01893E+04  6.12060E+03 -1.10586E+04  1.30276E+04 -2.39460E+04 -6.72601E+03 -8.58144E+03 -3.76140E+04
  2.50338E+04 -4.71852E+04  5.27056E+04 -2.08930E+04  4.88641E+04  2.11226E+04  1.74558E+04  4.80517E+04
 -1.66350E+04  3.62332E+04 -2.80971E+04  2.52826E+03 -1.18959E+04 -2.98324E+04  2.12895E+04 -3.70896E+04
  4.52318E+04 -1.11363E+04  4.07617E+04  2.52730E+04  2.18093E+04  5.14680E+04 -8.42100E+03  5.64174E+04
 -3.59500E+04  3.92076E+04 -4.83429E+04  1.12164E+04 -4.81023E+04 -1.86696E+04 -2.68361E+04 -4.27609E+04
  7.87432E+03 -4.26327E+04  3.42828E+04 -1.73616E+04  3.22678E+04  1.10519E+04  5.87944E+03  2.10569E+04
 -1.41578E+04  9.98582E+03 -1.11310E+04 -7.64457E+03  5.33849E+03 -1.16232E+04  1.91770E+04  5.72199E+03
  1.51600E+04  2.33163E+04 -5.19943E+03  2.70888E+04 -2.38305E+04  1.46966E+04 -3.23267E+04 -2.82407E+03
 -2.58248E+04 -1.83110E+04 -1.24457E+04 -2.55948E+04  4.44185E+03 -2.62511E+04  2.01379E+04 -2.33361E+04
  3.27325E+04 -1.42212E+04  3.87379E+04  5.36722E+03  2.72288E+04  2.47940E+04  4.59568E+03  4.16263E+04
 -2.01640E+04  3.39870E+04 -3.06246E+04  1.20889E+04 -2.26985E+04 -1.03168E+04 -4.78335E+03 -1.27008E+04
  5.00304E+02 -1.16408E+03 -7.86267E+03  8.61583E+03 -2.08338E+04  4.65176E+03 -2.07425E+04 -9.79293E+03
 -1.21177E+04 -2.41274E+04  6.49388E+03 -2.81899E+04  1.92476E+04 -2.01948E+04  2.31377E+04 -1.98389E+03
  1.48936E+04  1.64392E+04 -1.27788E+03  2.37640E+04 -1.68107E+04  1.36000E+04 -2.40109E+04 -5.70077E+03
 -1.74631E+04 -2.10597E+04 -2.11929E+03 -2.83901E+04  1.25002E+04 -2.37214E+04  2.34158E+04 -1.26669E+04
  2.22664E+04 -4.77738E+02  1.62529E+04  4.73935E+03  8.35502E+03  1.63444E+03  1.25674E+04 -1.78641E+03
  2.26347E+04  3.25368E+03  2.61942E+04  1.85512E+04  1.79867E+04  3.85588E+04 -2.39581E+03  4.52081E+04
 -2.56504E+04  3.80849E+04 -4.27866E+04  2.00505E+04 -4.58479E+04 -3.34354E+03 -3.73439E+04 -2.69900E+04
 -1.48569E+04 -3.78813E+04  1.35547E+04 -3.33614E+04  2.85311E+04 -1.58849E+04  2.47706E+04  8.10054E+03
  8.24002E+03  1.90962E+04 -1.18779E+04  1.60026E+04 -2.07171E+04  2.46160E+03 -1.54403E+04 -1.37272E+04
 -6.54777E+02 -1.99604E+04  1.05231E+04 -1.43924E+04  1.40606E+04 -1.55003E+03  3.65331E+03  9.27773E+03
 -9.25499E+03  4.07726E+03 -9.41876E+03 -6.99980E+03 -1.46368E+03 -1.89876E+04  1.22596E+04 -2.05057E+04
  2.38278E+04 -1.14228E+04  2.68463E+04  3.56957E+03  2.40915E+04  1.94986E+04  1.10589E+04  2.98793E+04
 -5.88712E+03  3.22770E+04 -2.10576E+04  1.95739E+04 -2.31119E+04  4.29147E+03 -1.56865E+04 -6.04355E+03
 -6.51093E+03 -7.11376E+03 -9.11862E+02  6.28779E+02 -2.69988E+03  3.28150E+03 -7.62871E+03  5.53153E+03
 -1.45126E+04 -1.17293E+03 -1.49540E+04 -1.21096E+04 -6.25510E+03 -1.99687E+04  6.42800E+03 -1.59155E+04
  1.26062E+04 -6.65848E+03  9.51942E+03  4.50319E+03 -9.35372E+01  6.78147E+03 -8.16523E+03 -4.00087E+00
 -7.91915E+03 -1.02535E+04 -1.54120E+03 -1.61833E+04  9.82229E+03 -1.69584E+04  2.07009E+04 -9.22917E+03
  2.41935E+04  2.28426E+03  1.72856E+04  1.45130E+04  3.40835E+03  1.96553E+04 -9.79674E+03  1.60005E+04
 -1.31057E+04  4.44353E+03 -7.00221E+03 -3.51902E+03  2.78764E+03 -4.75123E+03  8.05022E+03 -9.80817E+02
  7.33345E+03  7.02196E+03  1.38792E+03  1.30534E+04 -9.42846E+03  1.25324E+04 -1.58916E+04  3.19553E+03
 -1.07859E+04 -8.37656E+03  5.02286E+02 -1.40368E+04  9.12854E+03 -7.16668E+03  9.96250E+03  3.14151E+03
  1.67672E+03  1.02713E+04 -8.63458E+03  1.20291E+04 -1.42365E+04  5.30885E+03 -1.45819E+04 -5.57848E+03
 -8.55489E+03 -1.63602E+04  4.12987E+03 -1.89087E+04  1.59685E+04 -1.08290E+04  1.71273E+04  3.41465E+03
  1.02522E+04  1.39370E+04 -2.00539E+03  1.64998E+04 -1.21747E+04  9.18161E+03 -1.30578E+04 -1.50865E+03
 -1.11079E+04 -1.05577E+04 -1.47852E+03 -1.24039E+04  6.81797E+03 -1.03795E+04  7.69806E+03 -3.73379E+03
  4.60143E+03  2.25066E+03 -1.19294E+03  2.07194E+03 -1.12550E+03 -3.92593E+03  2.63464E+03 -7.95022E+03
  1.19833E+04 -5.26992E+03  1.70963E+04  1.83809E+03  1.63786E+04  1.14084E+04  1.02333E+04  2.15305E+04
 -5.29345E+03  2.47102E+04 -2.03807E+04  1.81077E+04 -2.68162E+04  3.46440E+03 -2.16281E+04 -9.45469E+03
 -1.06659E+04 -1.76319E+04 -1.27339E+02 -1.50234E+04  5.66589E+03 -8.29276E+03  5.29424E+03 -5.50023E+03
  3.66465E+03 -3.45667E+03  3.99667E+03 -3.53469E+03  5.91502E+03 -3.77145E+03  8.23013E+03 -1.27593E+03
  1.11489E+04  2.43938E+03  5.73806E+03  9.71522E+03 -2.41012E+03  1.20755E+04 -1.19124E+04  9.08075E+03
 -1.49345E+04 -1.40718E+03 -1.00845E+04 -1.06458E+04 -1.19411E+03 -1.65747E+04  8.60622E+03 -1.68620E+04
  1.68609E+04 -8.84634E+03  1.99189E+04  2.83080E+03  1.38131E+04  1.42374E+04  2.24303E+03  1.83532E+04
 -7.99890E+03  1.44825E+04 -1.08008E+04  4.94867E+03 -7.43869E+03 -1.33362E+03 -2.93474E+03 -2.21015E+03
 -1.59517E+03 -1.70898E+02 -2.81470E+03  3.12308E+03 -6.43499E+03  2.74334E+03 -1.05122E+04 -1.54601E+03
 -7.77910E+03 -1.04113E+04  4.02319E+01 -1.56131E+04  9.30240E+03 -1.41238E+04  1.53434E+04 -4.29416E+03
  1.52030E+04  7.04190E+03  6.91805E+03  1.37747E+04 -3.08000E+03  1.52962E+04 -1.11876E+04  9.90090E+03
 -1.45393E+04  7.24886E+02 -1.09304E+04 -9.68184E+03 -1.52617E+03 -1.31370E+04  6.66764E+03 -9.74940E+03
  9.83454E+03 -2.49638E+03  6.57339E+03  2.97934E+03  2.47452E+03  4.05983E+03  1.61960E+03  1.98138E+03
  2.47022E+03  1.33753E+03  3.71949E+03  1.87491E+03  4.53818E+03  5.07213E+03  3.96614E+03  8.29651E+03
 -3.42276E+03  1.22700E+04 -1.11453E+04  1.16959E+04 -1.58994E+04  3.04088E+03 -1.67975E+04 -6.74054E+03
 -7.43273E+03 -1.56261E+04  2.51618E+03 -1.74462E+04  9.38715E+03 -1.08491E+04  1.26518E+04 -2.72858E+03
  1.00320E+04  6.05672E+03  2.37586E+03  9.09973E+03 -4.37764E+03  6.07012E+03 -6.43064E+03 -8.31811E+02
 -3.07310E+03 -6.61890E+03  3.72559E+03 -6.25769E+03  6.80042E+03 -3.62280E+03  6.50206E+03  1.52508E+03
  4.18808E+03  3.03712E+03  1.66971E+03  2.64152E+03 -8.03439E+02  1.93392E+03  1.61924E+03 -8.88109E+02
  2.89706E+03 -9.03253E+02  6.09501E+03  2.54197E+03  4.00108E+03  8.10694E+03 -1.13963E+03  1.10610E+04
 -7.58332E+03  7.12518E+03 -9.83189E+03  1.69280E+03 -8.79834E+03 -3.71671E+03 -3.67939E+03 -6.20326E+03
  1.34311E+03 -6.57221E+03  4.01705E+03 -2.92340E+03  3.67221E+03  3.07230E+03 -1.86746E+03  5.44864E+03
 -6.58256E+03  3.06542E+03 -7.28224E+03 -3.72297E+03 -4.32524E+03 -8.50309E+03  9.45028E+02 -9.04567E+03
  5.48895E+03 -5.56465E+03  6.73189E+03 -7.75902E+02  5.34896E+03  2.28338E+03 -1.45431E+01  4.65574E+03
 -2.67351E+03  1.35013E+03 -3.61416E+03 -3.14683E+03  1.30959E+03 -6.96728E+03  7.98002E+03 -5.60023E+03
  1.01147E+04  8.69030E+02  9.97148E+03  6.80886E+03  3.09005E+03  1.05082E+04 -3.38469E+03  9.42408E+03
 -8.42393E+03  4.35849E+03 -8.61380E+03 -1.18426E+03 -5.13089E+03 -6.85273E+03  1.38353E+03 -6.41198E+03
  6.44511E+03 -3.03784E+03  5.51253E+03  3.17024E+03  1.74661E+03  5.55966E+03 -8.32418E+02  4.62584E+03
 -3.13753E+03  3.08671E+03 -2.14371E+03  1.11419E+03 -9.43625E+02  8.83891E+02 -2.08886E+03  2.32927E+03
 -2.73715E+03  3.68075E+03 -7.34698E+03  3.74174E+03 -1.01731E+04 -7.13830E+01 -1.17610E+04 -6.64598E+03
 -5.71782E+03 -1.40613E+04  2.92559E+03 -1.60119E+04  9.86182E+03 -1.24275E+04  1.49640E+04 -4.60653E+03
  1.43259E+04  3.18051E+03  9.02112E+03  9.51245E+03  9.08889E+02  1.10221E+04 -4.61521E+03  8.07405E+03
 -6.48953E+03  2.97516E+03 -4.01636E+03 -1.55116E+03 -1.36541E+03 -6.81473E+02 -8.17249E+02 -2.14093E+02
 -2.00714E+03  4.08246E+02 -3.00091E+03 -5.25619E+02 -7.81319E+02 -2.36602E+03  4.26590E+02 -4.11269E+03
  4.97153E+03 -3.32067E+03  6.81474E+03 -5.66140E+01  7.40936E+03  6.16392E+03  2.02955E+03  1.07361E+04
 -4.99364E+03  1.22535E+04 -1.13621E+04  7.54279E+03 -1.34566E+04 -1.09203E+03 -9.95524E+03 -8.40494E+03
 -3.90510E+03 -1.14676E+04  2.70312E+03 -1.03110E+04  6.91915E+03 -5.93447E+03  6.83655E+03  3.01995E+02
  4.33831E+03  3.81535E+03 -7.03112E+02  3.33843E+03 -1.96754E+03 -5.97117E+02  1.29656E+02 -2.62535E+03
  3.63741E+03 -1.43112E+03  4.20907E+03  1.31952E+03  2.65203E+03  4.45111E+03  1.25280E+02  5.98163E+03
 -4.96055E+03  4.86458E+03 -7.58763E+03  5.64652E+02 -6.81674E+03 -5.69684E+03 -1.79597E+03 -9.33260E+03
  5.53378E+03 -7.80253E+03  8.24263E+03 -2.70556E+03  8.48224E+03  1.71542E+03  4.70688E+03  6.62579E+03
  1.21832E+03  7.20766E+03 -2.56739E+03  5.64915E+03 -4.58517E+03  3.21397E+03 -3.94917E+03  1.80995E+02
 -2.04492E+03  3.56334E+02 -2.11620E+03  8.87879E+02 -3.53158E+03  1.44338E+03 -5.46959E+03 -1.45904E+03
 -5.65166E+03 -4.26079E+03 -1.46619E+03 -7.73118E+03  3.48393E+03 -8.16514E+03  6.66978E+03 -3.39931E+03
  7.09491E+03  5.44794E+02  3.85942E+03  5.32741E+03 -4.29444E+02  7.17327E+03 -5.66430E+03  4.89840E+03
