 $NMID ID='MM_0lb_SNR800_11hz_g50_97.RAW', FMTDAT='(8E13.5)'
 TRAMP=1., VOLUME=1. $END
  3.09640E+05  3.82242E+02  3.38081E+05  2.51032E+05  8.49504E+04  3.38400E+05 -1.32891E+05  2.51674E+05
 -1.90662E+05  8.31823E+04 -1.12020E+05 -3.26018E+04  4.54964E+02 -5.05643E+04  5.37171E+04 -3.33465E+00
  3.55472E+04  5.28658E+04 -1.66186E+04  7.60564E+04 -6.12032E+04  6.41301E+04 -8.44240E+04  3.21002E+04
 -8.17402E+04 -1.16132E+04 -5.74227E+04 -5.14841E+04 -1.50260E+04 -7.02869E+04  2.84978E+04 -4.63732E+04
  4.06447E+04  3.49620E+03  1.66565E+04  4.82583E+04 -3.50048E+04  4.78048E+04 -6.73450E+04  1.13051E+02
 -5.42259E+04 -5.73475E+04 -7.19051E+03 -7.82292E+04  3.43564E+04 -5.61874E+04  4.93868E+04 -1.75473E+04
  4.44467E+04  1.16533E+04  3.24441E+04  2.64162E+04  1.59401E+04  2.96028E+04 -5.35007E+03  2.69684E+04
 -2.22266E+04  1.20741E+04 -1.79169E+04 -5.97646E+03  6.45198E+03 -7.50922E+03  2.26722E+04  1.30392E+04
  6.87017E+03  3.65244E+04 -3.32959E+04  3.66449E+04 -6.46974E+04  1.96696E+03 -5.83360E+04 -4.38324E+04
 -1.24355E+04 -6.48357E+04  4.09481E+04 -4.66195E+04  5.98537E+04 -1.92593E+03  3.60554E+04  3.35820E+04
 -5.62352E+03  3.77652E+04 -3.10313E+04  1.71908E+04 -3.18672E+04 -3.97081E+03 -1.88202E+04 -1.13561E+04
 -8.76578E+03 -1.43810E+04 -1.03245E+03 -1.88306E+04  8.11371E+03 -2.33964E+04  1.55441E+04 -1.29845E+04
  1.08362E+04  5.86019E+03 -9.44665E+03  1.29591E+04 -2.24813E+04 -6.23390E+03 -8.56235E+03 -3.59739E+04
  2.39663E+04 -4.52867E+04  5.04320E+04 -2.02864E+04  4.72308E+04  2.00827E+04  1.68004E+04  4.59275E+04
 -1.68282E+04  3.49848E+04 -2.66702E+04  2.08688E+03 -1.10113E+04 -2.85893E+04  2.12240E+04 -3.57206E+04
  4.31487E+04 -1.02793E+04  3.85239E+04  2.47611E+04  1.99642E+04  4.97094E+04 -8.16489E+03  5.36576E+04
 -3.38097E+04  3.64078E+04 -4.51973E+04  1.08914E+04 -4.59025E+04 -1.78722E+04 -2.51273E+04 -4.06118E+04
  7.60844E+03 -4.02315E+04  3.31962E+04 -1.64025E+04  3.13095E+04  1.10209E+04  4.88709E+03  1.97649E+04
 -1.38610E+04  9.26895E+03 -1.08707E+04 -7.28395E+03  5.97246E+03 -1.09978E+04  1.89280E+04  5.50547E+03
  1.40591E+04  2.25773E+04 -5.51273E+03  2.62034E+04 -2.26645E+04  1.33448E+04 -3.01374E+04 -3.61364E+03
 -2.33972E+04 -1.80379E+04 -1.02548E+04 -2.29839E+04  4.24663E+03 -2.32577E+04  1.81579E+04 -2.06593E+04
  2.99096E+04 -1.36031E+04  3.55165E+04  4.17192E+03  2.57290E+04  2.26206E+04  4.48237E+03  3.94929E+04
 -1.88664E+04  3.24255E+04 -2.93643E+04  1.12836E+04 -2.19124E+04 -9.96978E+03 -4.88104E+03 -1.32518E+04
  9.32097E+02 -1.95147E+03 -6.64578E+03  7.57292E+03 -1.88288E+04  5.46258E+03 -1.85335E+04 -8.91905E+03
 -1.10940E+04 -2.13243E+04  5.64280E+03 -2.56679E+04  1.76114E+04 -1.84547E+04  2.07461E+04 -1.79473E+03
  1.33063E+04  1.49534E+04 -1.18861E+03  2.13483E+04 -1.49787E+04  1.22396E+04 -2.14843E+04 -4.73784E+03
 -1.56681E+04 -1.93147E+04 -1.93013E+03 -2.61838E+04  1.14284E+04 -2.14616E+04  2.14547E+04 -1.09103E+04
  2.02019E+04  1.12322E+01  1.48518E+04  4.91105E+03  7.83532E+03  1.30209E+03  1.08614E+04 -1.95632E+03
  2.02064E+04  2.64849E+03  2.31999E+04  1.71429E+04  1.52780E+04  3.44350E+04 -2.62669E+03  4.04776E+04
 -2.31759E+04  3.31293E+04 -3.72682E+04  1.65427E+04 -3.95653E+04 -2.86011E+03 -3.24442E+04 -2.35788E+04
 -1.34510E+04 -3.30216E+04  1.16529E+04 -2.95462E+04  2.52360E+04 -1.43313E+04  2.20251E+04  6.76583E+03
  7.73085E+03  1.73121E+04 -1.04941E+04  1.45070E+04 -1.86143E+04  2.65009E+03 -1.43725E+04 -1.17413E+04
 -9.21297E+01 -1.78066E+04  9.53127E+03 -1.33132E+04  1.18739E+04 -1.14603E+03  2.95007E+03  7.93696E+03
 -8.07531E+03  3.72443E+03 -7.68840E+03 -6.49467E+03 -1.25245E+03 -1.62747E+04  1.11401E+04 -1.76174E+04
  2.01769E+04 -9.41948E+03  2.24230E+04  3.42534E+03  1.96970E+04  1.64030E+04  8.85268E+03  2.54188E+04
 -4.78958E+03  2.76835E+04 -1.77740E+04  1.69348E+04 -1.95605E+04  4.01019E+03 -1.36650E+04 -4.76739E+03
 -6.04174E+03 -6.26302E+03 -6.15049E+02  5.41325E+02 -2.38563E+03  3.21608E+03 -6.60820E+03  5.02420E+03
 -1.27709E+04 -7.19159E+02 -1.33868E+04 -1.05622E+04 -5.33389E+03 -1.74246E+04  5.48656E+03 -1.38824E+04
  1.15740E+04 -5.57332E+03  7.74335E+03  3.81783E+03 -7.17111E+01  5.70492E+03 -6.68184E+03 -3.34899E+02
 -6.48900E+03 -8.53842E+03 -6.08589E+02 -1.33667E+04  7.74688E+03 -1.40081E+04  1.73683E+04 -7.61165E+03
  2.05882E+04  2.47046E+03  1.52796E+04  1.21553E+04  3.03304E+03  1.63218E+04 -8.55826E+03  1.33378E+04
 -1.09056E+04  4.34928E+03 -6.22619E+03 -2.96171E+03  2.10523E+03 -3.75365E+03  7.00530E+03 -1.03635E+03
  6.33633E+03  6.23024E+03  1.29943E+03  1.08418E+04 -7.85706E+03  1.05361E+04 -1.37848E+04  2.61382E+03
 -9.47821E+03 -6.76993E+03  3.26232E+02 -1.13684E+04  7.36319E+03 -5.93806E+03  7.75214E+03  2.95437E+03
  1.82111E+03  8.18215E+03 -7.04910E+03  9.74123E+03 -1.13906E+04  4.36216E+03 -1.15544E+04 -4.43480E+03
 -6.63089E+03 -1.29899E+04  3.23568E+03 -1.55164E+04  1.27795E+04 -8.91543E+03  1.41434E+04  2.46706E+03
  8.63851E+03  1.12535E+04 -1.00901E+03  1.33874E+04 -9.96418E+03  7.31361E+03 -1.07025E+04 -1.04026E+03
 -9.26582E+03 -9.00803E+03 -1.57507E+03 -1.01585E+04  5.12829E+03 -8.30946E+03  6.28283E+03 -3.90792E+03
  4.13434E+03  1.52798E+03 -9.39880E+02  1.76513E+03 -5.89102E+02 -2.73891E+03  1.98127E+03 -5.74689E+03
  9.27113E+03 -4.01298E+03  1.28545E+04  1.53830E+03  1.29737E+04  8.95633E+03  9.08208E+03  1.70163E+04
 -3.66128E+03  1.97603E+04 -1.65156E+04  1.44655E+04 -2.13446E+04  2.38583E+03 -1.72632E+04 -6.95122E+03
 -8.34604E+03 -1.41918E+04 -4.19648E+02 -1.18728E+04  4.06835E+03 -6.69128E+03  4.00737E+03 -4.30326E+03
  3.31647E+03 -2.65541E+03  3.56516E+03 -3.38291E+03  5.09706E+03 -2.86894E+03  6.86482E+03 -9.32798E+02
  8.99903E+03  1.69106E+03  4.42170E+03  7.83012E+03 -1.99764E+03  8.71946E+03 -9.35814E+03  6.91422E+03
 -1.17032E+04 -1.13416E+03 -7.41663E+03 -8.18166E+03 -9.86246E+02 -1.28664E+04  6.95837E+03 -1.30779E+04
  1.35204E+04 -7.20644E+03  1.60016E+04  2.13253E+03  1.10584E+04  1.07799E+04  2.01645E+03  1.40443E+04
 -5.72454E+03  1.21327E+04 -7.97299E+03  4.14555E+03 -5.91812E+03 -1.77126E+03 -2.66656E+03 -1.84978E+03
 -9.83121E+02 -1.22151E+02 -1.83213E+03  3.02982E+03 -5.22192E+03  1.90884E+03 -8.34214E+03 -1.07314E+03
 -5.79896E+03 -8.49138E+03  2.49280E+02 -1.17236E+04  7.71244E+03 -1.07205E+04  1.13826E+04 -3.50953E+03
  1.10042E+04  5.47987E+03  4.97302E+03  1.02331E+04 -2.37601E+03  1.17351E+04 -8.18280E+03  7.40428E+03
 -1.05190E+04  8.06823E+02 -8.48295E+03 -6.91648E+03 -9.48733E+02 -9.78291E+03  5.25047E+03 -7.02672E+03
  7.26026E+03 -2.49271E+03  4.97130E+03  2.08616E+03  1.81833E+03  3.70267E+03  1.19032E+03  1.75288E+03
  2.50443E+03  1.34085E+03  2.67957E+03  1.85381E+03  3.36429E+03  4.30542E+03  3.18996E+03  6.43609E+03
 -2.43145E+03  8.80403E+03 -8.18349E+03  9.24506E+03 -1.13076E+04  2.60707E+03 -1.20361E+04 -4.86043E+03
 -5.87331E+03 -1.14623E+04  1.94604E+03 -1.27500E+04  7.18803E+03 -7.82407E+03  9.62664E+03 -2.21484E+03
  7.17383E+03  4.48587E+03  1.62210E+03  6.68265E+03 -3.22467E+03  4.27420E+03 -4.43044E+03 -5.51688E+02
 -1.93778E+03 -4.96267E+03  2.46270E+03 -5.13662E+03  4.42324E+03 -2.60280E+03  4.45912E+03  1.29650E+03
  2.49437E+03  2.13458E+03  9.74430E+02  1.37628E+03 -6.73112E+02  1.74393E+03  1.78748E+03 -4.69890E+02
  1.56271E+03 -8.10797E+02  4.80610E+03  1.96172E+03  2.43675E+03  6.67334E+03 -8.58536E+02  8.37103E+03
 -5.40040E+03  5.15011E+03 -7.45084E+03  1.40345E+03 -6.64206E+03 -2.73038E+03 -2.49016E+03 -4.32334E+03
  5.61519E+02 -4.84662E+03  2.96592E+03 -2.26638E+03  2.19594E+03  2.46025E+03 -1.25563E+03  3.71036E+03
 -4.50328E+03  2.55495E+03 -4.76700E+03 -2.99091E+03 -3.07763E+03 -6.58125E+03  6.46253E+02 -6.09829E+03
  3.13950E+03 -3.46912E+03  4.48010E+03 -1.98258E+02  3.86887E+03  1.32132E+03  7.65031E+02  3.30421E+03
 -2.03346E+03  6.68576E+02 -3.03304E+03 -2.21243E+03  8.32360E+02 -4.86124E+03  5.77062E+03 -4.05940E+03
  6.53243E+03  4.61013E+02  7.20734E+03  4.47997E+03  2.43384E+03  7.06224E+03 -2.25126E+03  6.96971E+03
 -6.14277E+03  3.09170E+03 -6.38434E+03 -7.18500E+02 -3.38162E+03 -4.74513E+03  1.02602E+03 -4.21914E+03
  4.45923E+03 -2.07627E+03  3.86966E+03  2.24052E+03  1.11587E+03  4.08027E+03 -2.79953E+02  3.79989E+03
 -1.73257E+03  2.48411E+03 -1.18943E+03  8.69352E+02 -8.78542E+02  8.42203E+02 -1.30587E+03  1.37127E+03
 -1.71231E+03  3.44433E+03 -5.21454E+03  2.19440E+03 -7.00351E+03  3.08985E+02 -8.05864E+03 -4.87814E+03
 -4.12247E+03 -9.40255E+03  1.97274E+03 -1.11186E+04  6.25703E+03 -8.63561E+03  1.03296E+04 -3.33877E+03
  9.60935E+03  1.92806E+03  5.89477E+03  6.39324E+03 -9.77783E+00  7.32433E+03 -2.58883E+03  5.67548E+03
 -4.19633E+03  2.12267E+03 -2.25309E+03 -3.08197E+02 -1.09927E+03 -6.38169E+02 -6.94616E+02 -1.63276E+02
 -1.68236E+03  2.65554E+01 -1.72959E+03 -4.12398E+02 -5.75069E+02 -1.80568E+03 -1.18149E+02 -2.91669E+03
  3.42587E+03 -2.54790E+03  3.83314E+03 -2.68429E+01  5.18139E+03  4.17031E+03  1.30669E+03  7.28584E+03
 -3.44898E+03  8.60341E+03 -7.87327E+03  4.97051E+03 -9.06566E+03 -4.34885E+02 -6.41707E+03 -5.27377E+03
 -2.65482E+03 -7.56201E+03  1.91137E+03 -6.58083E+03  4.55246E+03 -3.70711E+03  4.80724E+03  2.65982E+02
  2.96910E+03  2.39199E+03 -3.88239E+02  2.16258E+03 -1.60547E+03  3.02607E+02 -8.14040E+01 -1.64640E+03
  2.26091E+03 -6.62090E+02  3.08174E+03  8.63745E+02  1.72359E+03  2.95312E+03  2.62449E+01  3.75564E+03
 -3.29566E+03  3.19179E+03 -4.54725E+03  5.55187E+02 -4.07387E+03 -2.93250E+03 -6.91578E+02 -6.26870E+03
  3.64186E+03 -4.64134E+03  5.54153E+03 -1.10697E+03  5.53524E+03  1.05130E+03  3.07480E+03  4.52783E+03
  1.04489E+03  4.46286E+03 -1.80615E+03  4.08316E+03 -3.14106E+03  2.12517E+03 -2.31497E+03  1.69561E+02
 -1.51043E+03 -1.30045E+02 -1.24656E+03  6.42498E+02 -2.33063E+03  1.01489E+03 -3.60168E+03 -7.15075E+02
 -3.15960E+03 -2.32915E+03 -1.47371E+03 -4.71652E+03  2.15067E+03 -4.96833E+03  4.18353E+03 -2.40525E+03
  4.86483E+03  9.70629E+02  2.03788E+03  3.29235E+03 -6.70797E+02  4.91169E+03 -3.23063E+03  3.08543E+03
