 $NMID ID='MM_0lb_SNR800_13hz_g50_66.RAW', FMTDAT='(8E13.5)'
 TRAMP=1., VOLUME=1. $END
  3.10053E+05  3.23650E+01  3.37498E+05  2.50640E+05  8.44203E+04  3.37937E+05 -1.32612E+05  2.51389E+05
 -1.90299E+05  8.31048E+04 -1.12086E+05 -3.25516E+04  5.79437E+02 -5.06658E+04  5.39030E+04 -4.37447E+02
  3.51650E+04  5.30212E+04 -1.67234E+04  7.55716E+04 -6.10026E+04  6.35833E+04 -8.44517E+04  3.20158E+04
 -8.16705E+04 -1.14378E+04 -5.76660E+04 -5.17559E+04 -1.48960E+04 -7.00940E+04  2.75059E+04 -4.59950E+04
  4.03240E+04  3.48127E+03  1.63333E+04  4.79600E+04 -3.41284E+04  4.75962E+04 -6.71694E+04 -1.73735E+02
 -5.40734E+04 -5.68166E+04 -7.01874E+03 -7.77321E+04  3.39378E+04 -5.53615E+04  4.84405E+04 -1.73339E+04
  4.39674E+04  1.14394E+04  3.20575E+04  2.59459E+04  1.62281E+04  2.96748E+04 -5.29452E+03  2.74139E+04
 -2.20454E+04  1.23885E+04 -1.86819E+04 -5.40689E+03  5.83415E+03 -7.49905E+03  2.24617E+04  1.24701E+04
  7.18418E+03  3.57858E+04 -3.27538E+04  3.57578E+04 -6.38188E+04  2.10759E+03 -5.73639E+04 -4.32420E+04
 -1.23751E+04 -6.38914E+04  4.00621E+04 -4.55798E+04  5.90274E+04 -2.40045E+03  3.44543E+04  3.28851E+04
 -6.34510E+03  3.67045E+04 -3.02343E+04  1.65533E+04 -3.11859E+04 -4.30639E+03 -1.72664E+04 -1.09264E+04
 -8.63311E+03 -1.38049E+04 -7.42474E+02 -1.84995E+04  7.50089E+03 -2.28038E+04  1.54199E+04 -1.31339E+04
  1.10889E+04  5.65647E+03 -8.77812E+03  1.28087E+04 -2.17627E+04 -4.64191E+03 -8.06827E+03 -3.46824E+04
  2.31451E+04 -4.44545E+04  4.89264E+04 -1.98788E+04  4.59795E+04  1.95116E+04  1.59755E+04  4.51808E+04
 -1.59729E+04  3.41125E+04 -2.57586E+04  2.47227E+03 -1.03787E+04 -2.79672E+04  2.09781E+04 -3.43588E+04
  4.17860E+04 -9.71706E+03  3.67466E+04  2.38895E+04  1.87957E+04  4.74451E+04 -7.92285E+03  5.14048E+04
 -3.25527E+04  3.48450E+04 -4.32309E+04  9.69455E+03 -4.36352E+04 -1.71185E+04 -2.39533E+04 -3.84584E+04
  7.35993E+03 -3.86332E+04  3.21695E+04 -1.53505E+04  2.96240E+04  1.13196E+04  4.08035E+03  1.96423E+04
 -1.34335E+04  8.93020E+03 -1.05046E+04 -7.81536E+03  5.66979E+03 -1.06260E+04  1.81622E+04  6.12563E+03
  1.39534E+04  2.25525E+04 -5.99802E+03  2.56159E+04 -2.29877E+04  1.23925E+04 -2.88499E+04 -4.56831E+03
 -2.13695E+04 -1.74160E+04 -9.21464E+03 -2.12534E+04  3.90389E+03 -2.10606E+04  1.65805E+04 -1.93284E+04
  2.72178E+04 -1.29745E+04  3.35895E+04  3.10006E+03  2.47656E+04  2.09575E+04  4.36459E+03  3.75697E+04
 -1.78688E+04  3.11444E+04 -2.82613E+04  1.09541E+04 -2.14009E+04 -1.04545E+04 -4.13089E+03 -1.33780E+04
  1.43413E+03 -2.36064E+03 -5.30838E+03  7.39124E+03 -1.68410E+04  5.24581E+03 -1.72161E+04 -7.70194E+03
 -1.05468E+04 -1.96341E+04  5.41184E+03 -2.40324E+04  1.60794E+04 -1.74930E+04  1.88557E+04 -1.85478E+03
  1.19973E+04  1.41615E+04 -1.19007E+03  1.98933E+04 -1.37285E+04  1.15663E+04 -1.99125E+04 -4.33384E+03
 -1.50770E+04 -1.76455E+04 -1.91575E+03 -2.37842E+04  1.12142E+04 -1.99191E+04  1.98792E+04 -9.92313E+03
  1.87386E+04  4.78361E+02  1.36548E+04  4.27150E+03  6.94988E+03  1.28425E+03  1.02588E+04 -1.74896E+03
  1.86282E+04  2.77490E+03  2.05804E+04  1.57897E+04  1.36754E+04  3.18016E+04 -2.96727E+03  3.62878E+04
 -2.06643E+04  2.94421E+04 -3.37516E+04  1.50600E+04 -3.56631E+04 -2.41358E+03 -2.95121E+04 -2.08618E+04
 -1.21341E+04 -2.93733E+04  9.85618E+03 -2.64127E+04  2.26649E+04 -1.32532E+04  2.02326E+04  5.74711E+03
  7.20895E+03  1.55728E+04 -9.41483E+03  1.33074E+04 -1.69009E+04  2.56252E+03 -1.30969E+04 -1.07302E+04
  1.76282E+02 -1.62188E+04  8.40603E+03 -1.21327E+04  1.06063E+04 -1.25488E+03  2.23022E+03  6.99413E+03
 -7.21056E+03  2.74983E+03 -6.69838E+03 -5.80273E+03 -1.03324E+03 -1.44725E+04  1.01906E+04 -1.52188E+04
  1.80383E+04 -8.27883E+03  1.94509E+04  3.15225E+03  1.68959E+04  1.40697E+04  8.00808E+03  2.17616E+04
 -3.92553E+03  2.38659E+04 -1.53968E+04  1.50453E+04 -1.71925E+04  3.18130E+03 -1.20112E+04 -3.88552E+03
 -5.45124E+03 -5.38883E+03 -7.43779E+02  7.05327E+02 -2.28749E+03  2.67721E+03 -5.49983E+03  4.40930E+03
 -1.13063E+04 -8.53815E+02 -1.20507E+04 -9.55102E+03 -5.01119E+03 -1.57232E+04  5.20109E+03 -1.24207E+04
  1.01308E+04 -5.51264E+03  7.42681E+03  3.44001E+03  1.67900E+02  4.91040E+03 -5.67120E+03 -2.55244E+02
 -5.65056E+03 -7.63432E+03 -9.08151E+02 -1.18329E+04  6.45362E+03 -1.23568E+04  1.52415E+04 -6.65188E+03
  1.76468E+04  1.44845E+03  1.31583E+04  9.94805E+03  2.55426E+03  1.40043E+04 -7.50188E+03  1.19858E+04
 -9.77359E+03  3.58951E+03 -5.20934E+03 -2.29124E+03  2.05895E+03 -2.82164E+03  6.78977E+03 -1.33729E+03
  6.08306E+03  5.23399E+03  1.13392E+03  9.55742E+03 -6.71868E+03  9.47097E+03 -1.16648E+04  2.38760E+03
 -7.87495E+03 -6.04178E+03 -5.12478E+01 -1.02274E+04  6.52705E+03 -5.09484E+03  6.18095E+03  2.08972E+03
  1.18332E+03  6.72180E+03 -6.08214E+03  8.03908E+03 -9.17727E+03  3.66560E+03 -9.11966E+03 -3.28498E+03
 -5.40246E+03 -1.07012E+04  2.76548E+03 -1.25123E+04  1.06443E+04 -7.59942E+03  1.14580E+04  2.02869E+03
  7.65013E+03  9.15483E+03 -7.15840E+02  1.15081E+04 -8.05607E+03  6.61984E+03 -9.20790E+03 -8.92183E+02
 -8.12449E+03 -7.93117E+03 -1.58223E+03 -8.74886E+03  4.53759E+03 -6.93481E+03  5.41223E+03 -3.15295E+03
  3.91765E+03  1.12882E+03 -3.45645E+02  1.61064E+03 -6.59921E+01 -1.86594E+03  1.37632E+03 -4.56233E+03
  7.52678E+03 -2.84551E+03  1.04507E+04  1.22911E+03  1.02345E+04  7.08701E+03  8.06038E+03  1.41102E+04
 -2.69507E+03  1.58136E+04 -1.38635E+04  1.21204E+04 -1.75952E+04  2.13442E+03 -1.39351E+04 -5.59877E+03
 -6.99488E+03 -1.18879E+04 -5.35749E+02 -9.49209E+03  3.40622E+03 -4.90050E+03  3.57595E+03 -3.60050E+03
  2.54748E+03 -2.39244E+03  3.10574E+03 -3.12889E+03  4.60453E+03 -2.22200E+03  5.50573E+03 -4.07032E+02
  7.73932E+03  1.65054E+03  3.57195E+03  6.32537E+03 -1.90513E+03  6.98206E+03 -7.89089E+03  5.49847E+03
 -9.58763E+03 -1.19656E+03 -5.61692E+03 -6.50660E+03 -4.37956E+02 -1.03445E+04  5.85947E+03 -1.03312E+04
  1.05622E+04 -5.80885E+03  1.26540E+04  1.18424E+03  9.23537E+03  8.45759E+03  1.46566E+03  1.15705E+04
 -4.64478E+03  9.73556E+03 -6.62205E+03  3.52739E+03 -4.98277E+03 -1.51350E+03 -1.50043E+03 -1.09295E+03
 -1.09567E+03  1.46063E+02 -1.90730E+03  2.60222E+03 -4.22801E+03  1.65390E+03 -6.58791E+03 -9.02497E+02
 -4.26970E+03 -6.95496E+03  3.96439E+02 -9.37201E+03  5.73431E+03 -8.47132E+03  8.72940E+03 -2.67047E+03
  8.63439E+03  4.38393E+03  4.21440E+03  7.64822E+03 -1.75483E+03  9.18270E+03 -6.17194E+03  5.54396E+03
 -8.36353E+03  5.92754E+02 -6.31267E+03 -5.32947E+03 -8.21915E+02 -7.76255E+03  3.53017E+03 -5.48738E+03
  5.51893E+03 -2.30051E+03  3.93342E+03  1.52439E+03  1.13933E+03  2.67325E+03  9.67850E+02  1.17839E+03
  2.42625E+03  1.10190E+03  2.14059E+03  1.24435E+03  2.36360E+03  3.72009E+03  2.49704E+03  4.29266E+03
 -2.15842E+03  6.83168E+03 -5.96487E+03  7.22550E+03 -8.50236E+03  1.90702E+03 -9.12372E+03 -3.20279E+03
 -4.05068E+03 -8.76254E+03  1.53076E+03 -9.74156E+03  5.12448E+03 -5.98285E+03  6.85005E+03 -2.03961E+03
  5.40903E+03  3.34304E+03  1.31066E+03  5.38365E+03 -2.17758E+03  3.19933E+03 -3.28091E+03 -6.43712E+02
 -1.81716E+03 -3.87479E+03  2.36935E+03 -3.47074E+03  3.78936E+03 -1.62874E+03  3.20272E+03  1.04618E+03
  1.91995E+03  1.65665E+03  1.09308E+03  7.57887E+02 -7.79310E+02  1.36599E+03  1.40388E+03 -1.82449E+02
  1.22228E+03 -5.48826E+02  3.95358E+03  1.56580E+03  1.88692E+03  4.43715E+03 -8.85725E+02  6.23998E+03
 -4.08348E+03  3.50579E+03 -5.44087E+03  8.13850E+02 -4.82585E+03 -2.04054E+03 -1.59560E+03 -2.98278E+03
  5.52543E+02 -3.56928E+03  2.13487E+03 -1.70894E+03  1.73464E+03  1.81938E+03 -1.15958E+03  2.60105E+03
 -3.50434E+03  1.61400E+03 -3.45841E+03 -2.11558E+03 -2.17749E+03 -4.87271E+03  6.07642E+02 -4.65682E+03
  2.52267E+03 -2.16121E+03  3.03903E+03 -4.31233E+01  2.61486E+03  8.60984E+02  1.01638E+03  2.72429E+03
 -1.72140E+03  5.49946E+02 -2.09686E+03 -1.21477E+03  1.19426E+03 -3.12458E+03  4.27006E+03 -2.89340E+03
  4.53213E+03  1.81090E+02  5.66933E+03  3.07824E+03  1.84762E+03  4.75222E+03 -1.58708E+03  5.04114E+03
 -3.97952E+03  2.06016E+03 -4.25804E+03 -5.48240E+02 -2.60391E+03 -3.38072E+03  6.58909E+02 -2.88672E+03
  3.35778E+03 -1.72278E+03  2.95859E+03  1.26280E+03  1.01679E+03  2.78119E+03 -2.35102E+01  2.55871E+03
 -1.35875E+03  1.97184E+03 -1.08032E+03  6.20353E+02 -4.70441E+02  7.05024E+02 -1.37915E+03  8.83561E+02
 -1.44723E+03  2.19489E+03 -3.99676E+03  1.61226E+03 -5.15059E+03  1.93225E+02 -5.95984E+03 -3.18556E+03
 -2.82754E+03 -6.51041E+03  1.32385E+03 -7.55525E+03  4.12032E+03 -6.03607E+03  7.43833E+03 -2.45860E+03
  7.13371E+03  1.11225E+03  3.76272E+03  4.52847E+03  1.22188E+02  4.88527E+03 -2.03760E+03  3.41618E+03
 -3.02298E+03  1.78131E+03 -1.44823E+03 -5.38014E+02 -7.98996E+02 -9.30360E+01 -5.00963E+02 -1.79611E+01
 -1.51203E+03  1.95914E+02 -1.27799E+03 -4.96348E+02 -4.05314E+02 -1.08353E+03 -1.99309E+02 -2.03795E+03
  2.40178E+03 -1.47509E+03  2.87625E+03 -1.76438E+00  3.64465E+03  2.96372E+03  4.77907E+02  4.92479E+03
 -2.66888E+03  5.76090E+03 -5.06694E+03  3.49769E+03 -6.12912E+03  2.82025E+01 -4.17426E+03 -3.58234E+03
 -1.91711E+03 -4.78027E+03  1.15129E+03 -4.35147E+03  3.17554E+03 -1.99551E+03  2.96870E+03  2.96031E+02
  1.77652E+03  1.42901E+03  7.54927E+01  1.35528E+03 -1.27615E+03  5.06168E+01 -1.01867E+02 -1.05583E+03
  1.62321E+03 -6.19142E+02  1.74879E+03  5.76685E+02  1.04154E+03  1.77997E+03  2.09778E+02  1.86651E+03
 -2.02600E+03  2.40227E+03 -3.02601E+03  3.62509E+02 -3.00049E+03 -1.98693E+03 -1.30199E+02 -3.82848E+03
  1.87893E+03 -3.01986E+03  3.49015E+03 -8.44691E+02  3.12531E+03  5.11808E+02  2.11277E+03  2.81520E+03
  1.05461E+03  3.09906E+03 -1.31481E+03  2.59690E+03 -1.85768E+03  1.38368E+03 -1.63599E+03  2.42038E+02
 -6.44341E+02 -3.78937E+02 -9.83610E+02  6.94442E+02 -1.81739E+03  5.74869E+02 -2.11299E+03 -8.17720E+02
 -2.53123E+03 -1.07142E+03 -7.70606E+02 -3.09568E+03  1.21296E+03 -3.70388E+03  2.86607E+03 -1.41640E+03
  2.91695E+03  4.70781E+02  1.10179E+03  1.96104E+03  1.19734E+02  3.08999E+03 -2.27518E+03  2.16595E+03
