 $NMID ID='MM_0lb_SNR800_10hz_g60_41.RAW', FMTDAT='(8E13.5)'
 TRAMP=1., VOLUME=1. $END
  3.09936E+05  2.34404E+02  3.37646E+05  2.50818E+05  8.47925E+04  3.38874E+05 -1.32076E+05  2.52057E+05
 -1.90848E+05  8.39471E+04 -1.12655E+05 -3.26617E+04  1.57188E+02 -5.08225E+04  5.35970E+04 -6.15450E+02
  3.57116E+04  5.28999E+04 -1.67527E+04  7.59422E+04 -6.14526E+04  6.46736E+04 -8.53852E+04  3.26617E+04
 -8.28327E+04 -1.16987E+04 -5.82884E+04 -5.22490E+04 -1.47301E+04 -7.05326E+04  2.84222E+04 -4.70263E+04
  4.11567E+04  3.87336E+03  1.67704E+04  4.86441E+04 -3.49472E+04  4.78254E+04 -6.83270E+04  3.45767E+02
 -5.48138E+04 -5.76114E+04 -7.38646E+03 -7.92105E+04  3.47665E+04 -5.70649E+04  4.96404E+04 -1.83487E+04
  4.52735E+04  1.15385E+04  3.32724E+04  2.67590E+04  1.59519E+04  3.03971E+04 -5.79334E+03  2.79346E+04
 -2.24160E+04  1.15119E+04 -1.77972E+04 -5.73880E+03  7.00140E+03 -7.37425E+03  2.34078E+04  1.39543E+04
  7.27479E+03  3.77146E+04 -3.39967E+04  3.73299E+04 -6.59282E+04  1.94997E+03 -5.90817E+04 -4.46473E+04
 -1.26587E+04 -6.58935E+04  4.16490E+04 -4.75327E+04  6.12468E+04 -2.69935E+03  3.68365E+04  3.46242E+04
 -5.35031E+03  3.97291E+04 -3.19585E+04  1.91514E+04 -3.33927E+04 -3.50979E+03 -1.92595E+04 -1.21298E+04
 -9.85216E+03 -1.52901E+04 -9.65782E+02 -1.99165E+04  8.54660E+03 -2.32225E+04  1.55220E+04 -1.23621E+04
  1.05075E+04  6.44757E+03 -1.05822E+04  1.27261E+04 -2.33846E+04 -6.91103E+03 -8.47236E+03 -3.74226E+04
  2.51533E+04 -4.68407E+04  5.24267E+04 -2.10255E+04  4.90337E+04  2.12086E+04  1.72313E+04  4.72152E+04
 -1.68590E+04  3.61204E+04 -2.77987E+04  2.53161E+03 -1.14055E+04 -2.99207E+04  2.17250E+04 -3.70449E+04
  4.50004E+04 -1.08497E+04  4.05929E+04  2.51644E+04  2.17848E+04  5.11854E+04 -8.62743E+03  5.64556E+04
 -3.53960E+04  3.84198E+04 -4.79881E+04  1.10844E+04 -4.80259E+04 -1.87237E+04 -2.64417E+04 -4.23091E+04
  8.11140E+03 -4.23736E+04  3.42478E+04 -1.70931E+04  3.20184E+04  1.12655E+04  5.60551E+03  2.08956E+04
 -1.41973E+04  9.76357E+03 -1.13698E+04 -7.28202E+03  5.33396E+03 -1.15227E+04  1.88873E+04  5.20724E+03
  1.47153E+04  2.28027E+04 -5.06887E+03  2.71055E+04 -2.32508E+04  1.48068E+04 -3.17104E+04 -2.75536E+03
 -2.56586E+04 -1.84893E+04 -1.20301E+04 -2.52827E+04  4.33615E+03 -2.58183E+04  2.01106E+04 -2.29384E+04
  3.21865E+04 -1.43087E+04  3.82276E+04  5.00092E+03  2.71118E+04  2.46645E+04  4.37662E+03  4.15650E+04
 -1.99951E+04  3.41830E+04 -3.08313E+04  1.21692E+04 -2.22493E+04 -1.01386E+04 -4.91175E+03 -1.32747E+04
  7.94948E+02 -1.04065E+03 -7.55703E+03  7.95841E+03 -2.05144E+04  5.02827E+03 -2.04748E+04 -9.62819E+03
 -1.17374E+04 -2.34632E+04  6.05211E+03 -2.78496E+04  1.89107E+04 -1.96546E+04  2.25202E+04 -1.26692E+03
  1.39094E+04  1.64329E+04 -1.01166E+03  2.31889E+04 -1.66489E+04  1.33474E+04 -2.36510E+04 -4.85893E+03
 -1.71675E+04 -2.11369E+04 -2.17081E+03 -2.83507E+04  1.30682E+04 -2.32567E+04  2.37272E+04 -1.21287E+04
  2.22777E+04 -1.60310E+02  1.58678E+04  5.56861E+03  9.00986E+03  1.38511E+03  1.21568E+04 -1.80628E+03
  2.23317E+04  2.94692E+03  2.52687E+04  1.80853E+04  1.74128E+04  3.76094E+04 -2.26385E+03  4.40543E+04
 -2.51654E+04  3.72697E+04 -4.23592E+04  1.90703E+04 -4.52311E+04 -3.31166E+03 -3.62941E+04 -2.57820E+04
 -1.43902E+04 -3.73460E+04  1.30847E+04 -3.26802E+04  2.79526E+04 -1.52374E+04  2.41983E+04  7.90068E+03
  7.90851E+03  1.85731E+04 -1.15742E+04  1.56568E+04 -2.01139E+04  2.84723E+03 -1.53324E+04 -1.27802E+04
 -3.53397E+02 -1.91573E+04  1.06313E+04 -1.44977E+04  1.33197E+04 -1.14729E+03  3.31926E+03  8.59848E+03
 -9.18227E+03  4.05844E+03 -8.91182E+03 -6.71263E+03 -1.63290E+03 -1.78337E+04  1.21318E+04 -2.01596E+04
  2.24453E+04 -1.09971E+04  2.56709E+04  3.49840E+03  2.29631E+04  1.85733E+04  1.02742E+04  2.91737E+04
 -5.20022E+03  3.11812E+04 -2.04539E+04  1.87231E+04 -2.25138E+04  3.65047E+03 -1.52610E+04 -5.65872E+03
 -6.57342E+03 -7.11012E+03 -6.10270E+02  4.03814E+02 -3.03638E+03  3.76118E+03 -7.35880E+03  5.86958E+03
 -1.42222E+04 -6.44005E+02 -1.47672E+04 -1.16419E+04 -6.28476E+03 -1.94225E+04  6.55411E+03 -1.56736E+04
  1.30423E+04 -6.24323E+03  9.43487E+03  4.20396E+03 -2.63623E+02  6.26462E+03 -7.93618E+03 -1.46449E+02
 -7.25786E+03 -1.01617E+04 -1.16662E+03 -1.59269E+04  9.09629E+03 -1.60588E+04  2.00997E+04 -8.90408E+03
  2.36956E+04  2.07837E+03  1.72321E+04  1.39490E+04  3.07911E+03  1.92168E+04 -9.69989E+03  1.53545E+04
 -1.24785E+04  4.47045E+03 -6.58085E+03 -3.12696E+03  1.98259E+03 -3.93238E+03  8.47715E+03 -1.04551E+03
  7.23551E+03  6.74522E+03  1.01371E+03  1.23676E+04 -9.26607E+03  1.21900E+04 -1.55643E+04  2.70345E+03
 -1.05650E+04 -8.26560E+03  2.59469E+02 -1.33065E+04  8.80704E+03 -6.59760E+03  9.21146E+03  3.23259E+03
  2.55768E+03  9.73991E+03 -7.65541E+03  1.14459E+04 -1.33327E+04  5.03385E+03 -1.39710E+04 -5.19279E+03
 -7.70681E+03 -1.53946E+04  3.56703E+03 -1.80079E+04  1.51771E+04 -1.09637E+04  1.62367E+04  2.84095E+03
  9.95637E+03  1.31926E+04 -1.69391E+03  1.55336E+04 -1.15952E+04  8.75755E+03 -1.26695E+04 -1.71091E+03
 -1.08277E+04 -1.04324E+04 -1.46569E+03 -1.19849E+04  6.28369E+03 -9.77226E+03  7.66776E+03 -3.93419E+03
  4.89744E+03  1.75777E+03 -1.00551E+03  1.99384E+03 -9.15880E+02 -3.46123E+03  2.47429E+03 -7.22416E+03
  1.11005E+04 -4.55591E+03  1.59177E+04  1.67445E+03  1.54168E+04  1.08584E+04  1.00925E+04  2.05466E+04
 -4.74104E+03  2.30696E+04 -1.95601E+04  1.74928E+04 -2.52783E+04  3.31829E+03 -1.99652E+04 -9.19171E+03
 -1.02406E+04 -1.66246E+04 -2.47583E+01 -1.43811E+04  5.16535E+03 -8.08950E+03  5.02601E+03 -5.69965E+03
  3.81224E+03 -3.06066E+03  3.60901E+03 -3.87391E+03  5.48767E+03 -3.55819E+03  7.54998E+03 -1.43073E+03
  1.03511E+04  2.39713E+03  5.57179E+03  9.32572E+03 -2.36753E+03  1.04533E+04 -1.13780E+04  8.19624E+03
 -1.43791E+04 -1.61788E+03 -9.24450E+03 -9.70169E+03 -1.20298E+03 -1.53573E+04  8.21734E+03 -1.51612E+04
  1.61359E+04 -8.45839E+03  1.89860E+04  2.52403E+03  1.31691E+04  1.33595E+04  1.83524E+03  1.72105E+04
 -7.09941E+03  1.40632E+04 -1.01074E+04  5.00021E+03 -6.93027E+03 -1.53867E+03 -2.86291E+03 -2.08092E+03
 -1.33555E+03  1.54778E+02 -2.16656E+03  3.13240E+03 -6.14076E+03  2.25533E+03 -9.75148E+03 -1.30449E+03
 -6.80851E+03 -9.66642E+03  1.03684E+02 -1.41655E+04  8.87036E+03 -1.30245E+04  1.43335E+04 -3.97482E+03
  1.41053E+04  6.69038E+03  6.61263E+03  1.29815E+04 -3.15495E+03  1.44461E+04 -9.95187E+03  8.77908E+03
 -1.37325E+04  5.27965E+02 -1.05233E+04 -8.99850E+03 -1.23336E+03 -1.17153E+04  6.08541E+03 -9.06016E+03
  9.13099E+03 -3.33408E+03  6.21127E+03  2.42360E+03  2.21600E+03  3.59858E+03  1.54471E+03  2.41776E+03
  2.87949E+03  1.05028E+03  3.46768E+03  1.61530E+03  4.44529E+03  4.82464E+03  4.04712E+03  7.40664E+03
 -2.92836E+03  1.14031E+04 -9.42941E+03  1.14198E+04 -1.44387E+04  2.75044E+03 -1.48216E+04 -6.17586E+03
 -7.00791E+03 -1.44491E+04  2.01440E+03 -1.58518E+04  8.66736E+03 -1.01135E+04  1.16077E+04 -2.40118E+03
  8.99323E+03  5.45370E+03  1.89774E+03  8.24159E+03 -4.01026E+03  5.12301E+03 -5.62336E+03 -1.20781E+03
 -2.81759E+03 -5.84717E+03  3.43646E+03 -6.28067E+03  6.06216E+03 -3.15566E+03  5.65070E+03  1.05052E+03
  3.62073E+03  2.85670E+03  1.35309E+03  2.05496E+03 -6.45379E+02  2.34969E+03  1.57436E+03 -6.77787E+02
  2.60681E+03 -1.16512E+03  5.67937E+03  2.40039E+03  3.11691E+03  7.77613E+03 -1.29872E+03  1.01206E+04
 -6.80991E+03  6.36682E+03 -9.35135E+03  1.88438E+03 -8.33987E+03 -3.02911E+03 -3.26191E+03 -5.89588E+03
  7.40693E+02 -5.62864E+03  3.46108E+03 -2.62449E+03  3.17960E+03  3.01262E+03 -1.53724E+03  4.41929E+03
 -6.16142E+03  2.86310E+03 -6.78395E+03 -3.36246E+03 -3.99240E+03 -7.87176E+03  1.27159E+03 -8.21618E+03
  4.42971E+03 -4.54209E+03  5.39453E+03 -7.30955E+02  4.60487E+03  2.35678E+03  8.19873E+02  3.85895E+03
 -2.68899E+03  1.39323E+03 -3.67650E+03 -2.66754E+03  1.69729E+03 -6.24185E+03  6.81647E+03 -5.00185E+03
  8.57373E+03  7.50761E+02  8.81092E+03  6.62247E+03  2.87650E+03  9.63981E+03 -3.38557E+03  8.95912E+03
 -7.38835E+03  3.81899E+03 -7.76671E+03 -1.33596E+03 -4.48996E+03 -5.78139E+03  1.41408E+03 -5.59835E+03
  5.34341E+03 -2.70555E+03  4.87566E+03  2.19801E+03  1.52839E+03  5.34993E+03 -9.07280E+02  4.49586E+03
 -2.96992E+03  2.70834E+03 -2.12944E+03  7.57263E+02 -8.33265E+02  8.95106E+02 -1.51055E+03  1.39791E+03
 -2.47208E+03  3.59767E+03 -6.47246E+03  2.79474E+03 -9.23045E+03  7.39607E+01 -1.01846E+04 -5.97054E+03
 -5.49421E+03 -1.24284E+04  2.45458E+03 -1.37641E+04  8.80248E+03 -1.07532E+04  1.34949E+04 -4.00512E+03
  1.24914E+04  2.22160E+03  7.39283E+03  8.39501E+03  9.91164E+02  9.74018E+03 -4.09979E+03  7.29544E+03
 -5.16833E+03  2.70424E+03 -3.71415E+03 -1.45099E+03 -8.23733E+02 -9.54141E+02 -6.61220E+02  2.81075E+02
 -1.44623E+03  2.68202E+02 -1.87528E+03 -1.70659E+02 -3.14544E+02 -2.36892E+03  1.51333E+02 -3.54656E+03
  4.57247E+03 -2.87588E+03  5.78105E+03  1.73910E+02  6.34585E+03  5.14577E+03  1.85860E+03  9.58275E+03
 -4.38782E+03  1.10510E+04 -9.78954E+03  6.20482E+03 -1.15932E+04 -8.68480E+02 -8.50350E+03 -7.19461E+03
 -3.37642E+03 -9.83556E+03  2.42264E+03 -8.56185E+03  6.42158E+03 -4.78036E+03  5.98033E+03  3.96024E+02
  3.54759E+03  3.32367E+03 -4.90898E+02  2.60261E+03 -1.52064E+03 -1.81838E+02  8.31022E+00 -2.60712E+03
  2.84987E+03 -1.15903E+03  3.93410E+03  1.32306E+03  2.43008E+03  3.61608E+03  1.88483E+01  4.77221E+03
 -3.98024E+03  4.55452E+03 -6.32616E+03  5.65151E+02 -5.80409E+03 -4.11972E+03 -9.45645E+02 -7.88812E+03
  4.57056E+03 -6.62655E+03  7.13368E+03 -2.11698E+03  7.13342E+03  1.39339E+03  4.57002E+03  5.91621E+03
  1.02566E+03  6.55984E+03 -2.35936E+03  4.96305E+03 -3.55141E+03  2.66882E+03 -3.26979E+03  3.89253E+02
 -1.70750E+03 -6.87217E+01 -1.73969E+03  9.49725E+02 -3.34792E+03  8.40683E+02 -5.03840E+03 -6.31680E+02
 -4.85310E+03 -3.03702E+03 -1.41151E+03 -6.18502E+03  2.94939E+03 -6.56269E+03  5.60519E+03 -3.07889E+03
  6.28630E+03  8.10214E+02  3.14070E+03  4.19768E+03 -1.79214E+02  6.10135E+03 -4.59171E+03  4.61393E+03
