 $NMID ID='MM_0lb_SNR800_8hz_g45_28.RAW', FMTDAT='(8E13.5)'
 TRAMP=1., VOLUME=1. $END
  3.09933E+05  6.49338E+02  3.37989E+05  2.50961E+05  8.50444E+04  3.38556E+05 -1.32620E+05  2.51937E+05
 -1.90972E+05  8.42003E+04 -1.12637E+05 -3.21423E+04 -7.82345E+01 -5.05477E+04  5.39155E+04 -5.50042E+02
  3.56746E+04  5.27278E+04 -1.68273E+04  7.62037E+04 -6.10937E+04  6.46218E+04 -8.51796E+04  3.26363E+04
 -8.16558E+04 -1.14980E+04 -5.82997E+04 -5.25180E+04 -1.47767E+04 -7.10576E+04  2.80683E+04 -4.68548E+04
  4.09954E+04  3.46963E+03  1.68062E+04  4.86405E+04 -3.53513E+04  4.83503E+04 -6.80957E+04 -2.22031E+02
 -5.53013E+04 -5.79446E+04 -7.31005E+03 -7.94944E+04  3.48267E+04 -5.72269E+04  4.98497E+04 -1.85769E+04
  4.51106E+04  1.14645E+04  3.29697E+04  2.66459E+04  1.61379E+04  3.04927E+04 -5.78471E+03  2.77908E+04
 -2.25063E+04  1.16483E+04 -1.79613E+04 -5.77351E+03  7.35505E+03 -7.70838E+03  2.37519E+04  1.38424E+04
  7.05820E+03  3.76195E+04 -3.38582E+04  3.66279E+04 -6.61592E+04  2.38333E+03 -5.92644E+04 -4.47626E+04
 -1.28036E+04 -6.63502E+04  4.10143E+04 -4.76509E+04  6.12724E+04 -2.45177E+03  3.71284E+04  3.51470E+04
 -5.33470E+03  3.94296E+04 -3.18218E+04  1.89213E+04 -3.33514E+04 -2.95041E+03 -1.95199E+04 -1.20202E+04
 -9.52211E+03 -1.56591E+04 -6.31742E+02 -2.00099E+04  8.79949E+03 -2.39102E+04  1.59662E+04 -1.27232E+04
  1.00965E+04  6.27743E+03 -1.08016E+04  1.27689E+04 -2.37063E+04 -6.65826E+03 -8.78214E+03 -3.83215E+04
  2.53502E+04 -4.71806E+04  5.28174E+04 -2.11868E+04  4.90526E+04  2.12052E+04  1.75638E+04  4.71709E+04
 -1.66853E+04  3.62747E+04 -2.80516E+04  3.00234E+03 -1.17038E+04 -3.01052E+04  2.12905E+04 -3.74505E+04
  4.51054E+04 -1.10836E+04  4.11407E+04  2.49196E+04  2.17784E+04  5.16811E+04 -8.61587E+03  5.66905E+04
 -3.59135E+04  3.90059E+04 -4.82160E+04  1.09956E+04 -4.78552E+04 -1.86787E+04 -2.63609E+04 -4.23126E+04
  8.10675E+03 -4.23418E+04  3.43644E+04 -1.69565E+04  3.26590E+04  1.17982E+04  5.53665E+03  2.10306E+04
 -1.36794E+04  9.47277E+03 -1.12450E+04 -7.46321E+03  5.74212E+03 -1.15227E+04  1.86851E+04  5.14933E+03
  1.50765E+04  2.27042E+04 -4.97369E+03  2.70841E+04 -2.39186E+04  1.44629E+04 -3.19686E+04 -3.04407E+03
 -2.58732E+04 -1.89456E+04 -1.24696E+04 -2.60079E+04  4.10071E+03 -2.60128E+04  2.07736E+04 -2.35700E+04
  3.29189E+04 -1.39738E+04  3.90640E+04  5.20381E+03  2.73980E+04  2.47825E+04  4.97923E+03  4.16503E+04
 -2.00460E+04  3.43018E+04 -3.13811E+04  1.17758E+04 -2.23137E+04 -1.01043E+04 -5.19154E+03 -1.30424E+04
  8.47283E+02 -1.00142E+03 -8.60776E+03  8.55922E+03 -2.08178E+04  4.61460E+03 -2.08208E+04 -9.17411E+03
 -1.22487E+04 -2.36113E+04  5.96633E+03 -2.85549E+04  1.94723E+04 -2.04214E+04  2.34591E+04 -2.13765E+03
  1.50536E+04  1.63876E+04 -9.79059E+02  2.34825E+04 -1.68435E+04  1.36814E+04 -2.43689E+04 -5.04585E+03
 -1.76990E+04 -2.19236E+04 -2.42380E+03 -2.86399E+04  1.29486E+04 -2.40677E+04  2.31226E+04 -1.25335E+04
  2.24562E+04 -3.74509E+02  1.61414E+04  5.16282E+03  9.32783E+03  1.74724E+03  1.25843E+04 -1.94387E+03
  2.27203E+04  2.77024E+03  2.59575E+04  1.83901E+04  1.82683E+04  3.86109E+04 -2.68302E+03  4.50771E+04
 -2.57523E+04  3.87423E+04 -4.35787E+04  1.99446E+04 -4.61314E+04 -3.22667E+03 -3.73898E+04 -2.69960E+04
 -1.47743E+04 -3.87078E+04  1.34014E+04 -3.35572E+04  2.92406E+04 -1.57090E+04  2.47962E+04  7.75157E+03
  8.18826E+03  1.93164E+04 -1.24217E+04  1.57658E+04 -2.09169E+04  2.69325E+03 -1.57768E+04 -1.34017E+04
 -4.60086E+02 -1.98803E+04  1.05406E+04 -1.46345E+04  1.36732E+04 -1.62463E+03  3.25725E+03  9.07366E+03
 -8.82797E+03  4.28971E+03 -9.69815E+03 -7.05512E+03 -1.97213E+03 -1.87339E+04  1.25111E+04 -2.06705E+04
  2.39425E+04 -1.16957E+04  2.74049E+04  3.75784E+03  2.37691E+04  1.93402E+04  1.09512E+04  3.01494E+04
 -5.78333E+03  3.26694E+04 -2.14844E+04  1.95999E+04 -2.36733E+04  4.06294E+03 -1.63018E+04 -6.33984E+03
 -6.53350E+03 -7.72621E+03 -7.39111E+02  6.29352E+02 -3.04801E+03  3.37297E+03 -7.70635E+03  5.09822E+03
 -1.47707E+04 -1.33579E+03 -1.52287E+04 -1.22692E+04 -5.90748E+03 -1.99819E+04  6.74635E+03 -1.64411E+04
  1.30335E+04 -6.34984E+03  9.43641E+03  4.39573E+03 -2.52505E+02  6.61078E+03 -8.35227E+03 -3.77553E+01
 -8.21161E+03 -1.05629E+04 -8.77965E+02 -1.59727E+04  9.92351E+03 -1.73282E+04  2.12604E+04 -9.19283E+03
  2.45887E+04  2.92160E+03  1.79069E+04  1.52552E+04  3.85957E+03  2.03369E+04 -1.01309E+04  1.64910E+04
 -1.31622E+04  4.85703E+03 -6.50910E+03 -3.74761E+03  2.18564E+03 -4.61192E+03  8.67777E+03 -1.19051E+03
  7.59216E+03  6.72095E+03  1.17865E+03  1.37487E+04 -9.22841E+03  1.29950E+04 -1.61090E+04  2.84774E+03
 -1.10348E+04 -8.84755E+03  5.25318E+01 -1.44654E+04  9.14534E+03 -7.31378E+03  9.95724E+03  3.51211E+03
  2.50065E+03  1.04888E+04 -8.35717E+03  1.18088E+04 -1.41366E+04  5.41126E+03 -1.48060E+04 -5.82737E+03
 -8.57804E+03 -1.67924E+04  4.24072E+03 -1.91847E+04  1.63447E+04 -1.16157E+04  1.75833E+04  3.50589E+03
  1.05123E+04  1.40301E+04 -1.90864E+03  1.67189E+04 -1.24816E+04  8.97170E+03 -1.36267E+04 -1.78973E+03
 -1.14283E+04 -1.07036E+04 -1.73679E+03 -1.27552E+04  7.30123E+03 -1.00001E+04  8.25223E+03 -3.71970E+03
  5.12781E+03  2.59506E+03 -1.04957E+03  1.87985E+03 -7.71772E+02 -3.66893E+03  3.17873E+03 -7.69268E+03
  1.21954E+04 -5.04085E+03  1.74063E+04  1.73852E+03  1.66829E+04  1.21577E+04  1.08621E+04  2.23296E+04
 -5.26532E+03  2.58952E+04 -2.11569E+04  1.86238E+04 -2.74903E+04  3.65780E+03 -2.22000E+04 -9.33273E+03
 -1.09565E+04 -1.84046E+04 -3.95333E+02 -1.55771E+04  5.70258E+03 -9.27127E+03  5.80218E+03 -5.87149E+03
  4.40332E+03 -3.17104E+03  3.73411E+03 -4.12700E+03  5.97043E+03 -3.94841E+03  8.42325E+03 -1.70377E+03
  1.17160E+04  2.56980E+03  6.09295E+03  1.01574E+04 -2.04695E+03  1.24294E+04 -1.24777E+04  9.19328E+03
 -1.59096E+04 -1.33100E+03 -1.01841E+04 -1.13397E+04 -1.34859E+03 -1.74882E+04  9.16947E+03 -1.70440E+04
  1.75432E+04 -9.32693E+03  2.06369E+04  2.67405E+03  1.43544E+04  1.46974E+04  2.01312E+03  1.93640E+04
 -7.78728E+03  1.53793E+04 -1.12130E+04  4.97666E+03 -7.97578E+03 -1.78419E+03 -3.20152E+03 -2.28130E+03
 -1.68038E+03  6.28685E+01 -2.87876E+03  3.36479E+03 -6.42919E+03  2.53819E+03 -1.09499E+04 -1.49130E+03
 -7.99464E+03 -1.07606E+04 -7.65697E+01 -1.60129E+04  1.04536E+04 -1.45880E+04  1.59493E+04 -4.32866E+03
  1.60436E+04  7.91902E+03  7.01341E+03  1.44282E+04 -3.29534E+03  1.62557E+04 -1.17906E+04  1.04950E+04
 -1.47130E+04  2.34352E+02 -1.17982E+04 -9.74047E+03 -1.29380E+03 -1.35238E+04  7.11960E+03 -1.00991E+04
  1.03995E+04 -3.47242E+03  6.92808E+03  3.31872E+03  2.73095E+03  4.61286E+03  1.22419E+03  2.10461E+03
  3.07340E+03  1.28616E+03  4.16501E+03  1.93788E+03  5.19830E+03  5.38250E+03  3.94153E+03  8.95572E+03
 -2.97965E+03  1.31925E+04 -1.15217E+04  1.26216E+04 -1.69155E+04  3.19841E+03 -1.76486E+04 -6.94248E+03
 -8.37945E+03 -1.65332E+04  2.16711E+03 -1.84835E+04  1.04890E+04 -1.18083E+04  1.34395E+04 -2.72782E+03
  1.07678E+04  5.94732E+03  2.74466E+03  9.78212E+03 -4.59919E+03  6.11674E+03 -6.66387E+03 -9.32665E+02
 -2.98912E+03 -6.99314E+03  3.66212E+03 -7.30281E+03  6.79929E+03 -3.85511E+03  6.38634E+03  1.74668E+03
  4.36248E+03  3.02385E+03  1.48886E+03  2.78386E+03 -1.06555E+03  2.50627E+03  1.88920E+03 -9.98050E+02
  2.71611E+03 -7.63459E+02  6.59490E+03  2.91546E+03  4.26873E+03  9.10421E+03 -1.73094E+03  1.21044E+04
 -7.68379E+03  7.99871E+03 -1.07699E+04  1.73703E+03 -9.70669E+03 -3.87778E+03 -3.90614E+03 -6.75414E+03
  8.44628E+02 -6.57930E+03  4.41696E+03 -3.15162E+03  3.73691E+03  3.30192E+03 -1.57657E+03  5.44199E+03
 -6.63311E+03  3.38597E+03 -7.86091E+03 -3.73112E+03 -4.45563E+03 -8.99799E+03  1.29246E+03 -9.78903E+03
  5.93489E+03 -6.03036E+03  6.81929E+03 -5.55689E+02  5.34518E+03  2.50975E+03  7.65138E+02  4.90502E+03
 -3.28836E+03  1.40038E+03 -4.28911E+03 -3.46542E+03  1.82887E+03 -7.13369E+03  8.45119E+03 -5.98564E+03
  1.07163E+04  1.06225E+03  1.02811E+04  7.66785E+03  3.34387E+03  1.16983E+04 -3.84686E+03  1.06796E+04
 -9.76717E+03  4.64626E+03 -1.00257E+04 -1.50657E+03 -5.56148E+03 -7.45941E+03  1.42764E+03 -7.25173E+03
  6.66157E+03 -3.35799E+03  6.09313E+03  2.90533E+03  1.90933E+03  6.19146E+03 -9.18895E+02  5.74835E+03
 -3.34835E+03  3.99012E+03 -2.29580E+03  1.18172E+03 -1.28181E+03  1.05079E+03 -1.83123E+03  2.72278E+03
 -3.21952E+03  4.10670E+03 -8.38625E+03  3.89618E+03 -1.17524E+04  4.54914E+02 -1.28567E+04 -7.62663E+03
 -6.61055E+03 -1.54978E+04  2.94483E+03 -1.74826E+04  1.09709E+04 -1.37389E+04  1.64525E+04 -5.18817E+03
  1.49527E+04  2.89001E+03  9.90882E+03  1.08301E+04  6.17818E+02  1.20456E+04 -4.64573E+03  8.58009E+03
 -6.41363E+03  3.42915E+03 -4.28400E+03 -1.45248E+03 -1.56404E+03 -1.11110E+03 -7.31822E+02 -3.13724E+02
 -1.60049E+03  3.55268E+02 -2.30783E+03 -3.67095E+02 -7.38436E+02 -2.78757E+03  4.84140E+02 -4.92097E+03
  5.53016E+03 -3.82194E+03  7.46215E+03 -7.52595E+00  8.31987E+03  6.67906E+03  2.44240E+03  1.21659E+04
 -5.71422E+03  1.34266E+04 -1.27753E+04  8.34646E+03 -1.49211E+04 -1.22444E+03 -1.07347E+04 -9.19785E+03
 -4.86413E+03 -1.25754E+04  2.87755E+03 -1.11464E+04  7.94981E+03 -6.44120E+03  7.92957E+03  1.13569E+02
  4.36430E+03  4.29611E+03  1.35161E+02  3.12376E+03 -2.04235E+03 -4.93228E+02  5.31931E+01 -3.10384E+03
  3.69312E+03 -2.05757E+03  4.83978E+03  1.24028E+03  3.35297E+03  4.96780E+03  2.68748E+02  6.27259E+03
 -5.48700E+03  5.35024E+03 -8.08709E+03  3.87796E+02 -7.21592E+03 -5.61415E+03 -1.38800E+03 -1.01305E+04
  5.66349E+03 -8.23965E+03  9.92456E+03 -2.82195E+03  9.33429E+03  2.44371E+03  5.69802E+03  7.71461E+03
  7.85412E+02  8.08208E+03 -3.01783E+03  6.14698E+03 -4.92651E+03  3.61657E+03 -4.22608E+03  5.64311E+02
 -2.29902E+03 -1.72951E+02 -2.15303E+03  9.43364E+02 -4.83026E+03  1.92281E+03 -6.65786E+03 -1.25816E+03
 -5.81177E+03 -4.68052E+03 -2.02254E+03 -8.12952E+03  3.67923E+03 -8.97291E+03  7.52983E+03 -4.08541E+03
  8.34795E+03  1.11535E+03  4.61920E+03  5.92937E+03 -4.06657E+02  8.60606E+03 -6.26958E+03  5.44902E+03
