 $NMID ID='MM_0lb_SNR800_13hz_g40_55.RAW', FMTDAT='(8E13.5)'
 TRAMP=1., VOLUME=1. $END
  3.09947E+05  4.04129E+02  3.37664E+05  2.50725E+05  8.46499E+04  3.37613E+05 -1.32405E+05  2.50957E+05
 -1.90032E+05  8.29233E+04 -1.11855E+05 -3.25733E+04  9.28043E+02 -5.03883E+04  5.38184E+04 -4.32643E+01
  3.56538E+04  5.29091E+04 -1.68055E+04  7.54747E+04 -6.08238E+04  6.31852E+04 -8.38850E+04  3.19211E+04
 -8.08096E+04 -1.13197E+04 -5.70430E+04 -5.15001E+04 -1.47720E+04 -6.96163E+04  2.72245E+04 -4.55372E+04
  4.02888E+04  3.51978E+03  1.60591E+04  4.74668E+04 -3.39835E+04  4.70458E+04 -6.64673E+04 -7.85614E+01
 -5.34203E+04 -5.68349E+04 -6.74380E+03 -7.66214E+04  3.39763E+04 -5.52225E+04  4.77257E+04 -1.72080E+04
  4.31337E+04  1.11732E+04  3.18120E+04  2.53698E+04  1.61372E+04  2.91253E+04 -5.00978E+03  2.71250E+04
 -2.18485E+04  1.23141E+04 -1.86781E+04 -4.74047E+03  5.68096E+03 -7.72126E+03  2.22155E+04  1.22595E+04
  7.16295E+03  3.53125E+04 -3.18638E+04  3.53374E+04 -6.33794E+04  2.04177E+03 -5.69554E+04 -4.28354E+04
 -1.24963E+04 -6.30982E+04  3.96663E+04 -4.55155E+04  5.79459E+04 -2.22445E+03  3.43088E+04  3.25409E+04
 -6.01905E+03  3.56835E+04 -2.99001E+04  1.56439E+04 -3.01661E+04 -4.75370E+03 -1.65993E+04 -1.08685E+04
 -8.37029E+03 -1.28529E+04 -5.46026E+02 -1.79583E+04  7.65156E+03 -2.30576E+04  1.56554E+04 -1.31033E+04
  1.14664E+04  5.14144E+03 -8.24707E+03  1.32395E+04 -2.12724E+04 -4.38892E+03 -8.21145E+03 -3.34209E+04
  2.27313E+04 -4.34699E+04  4.77513E+04 -1.96796E+04  4.49773E+04  1.93460E+04  1.59006E+04  4.41077E+04
 -1.59744E+04  3.29632E+04 -2.52781E+04  1.82199E+03 -9.92483E+03 -2.77374E+04  2.07735E+04 -3.40894E+04
  4.11081E+04 -9.09086E+03  3.52961E+04  2.36794E+04  1.80982E+04  4.63002E+04 -7.91061E+03  4.98853E+04
 -3.13051E+04  3.38747E+04 -4.19740E+04  9.58335E+03 -4.28202E+04 -1.64436E+04 -2.33966E+04 -3.79509E+04
  7.21317E+03 -3.78444E+04  3.12222E+04 -1.46304E+04  2.95038E+04  1.07299E+04  3.80377E+03  1.93099E+04
 -1.36616E+04  8.36043E+03 -1.03005E+04 -7.69485E+03  5.75560E+03 -1.08004E+04  1.82343E+04  6.00782E+03
  1.32569E+04  2.23265E+04 -6.07617E+03  2.47107E+04 -2.24066E+04  1.11353E+04 -2.78878E+04 -5.04638E+03
 -2.05201E+04 -1.73130E+04 -8.15228E+03 -2.06887E+04  4.04619E+03 -1.94432E+04  1.57632E+04 -1.80342E+04
  2.60886E+04 -1.27061E+04  3.25838E+04  2.65032E+03  2.37545E+04  2.00243E+04  4.08633E+03  3.69008E+04
 -1.78457E+04  3.02795E+04 -2.79632E+04  1.05174E+04 -2.07523E+04 -1.03362E+04 -4.58192E+03 -1.32881E+04
  1.76143E+03 -2.75884E+03 -4.75991E+03  6.67910E+03 -1.64012E+04  4.88449E+03 -1.63431E+04 -7.24353E+03
 -1.01664E+04 -1.92065E+04  5.24474E+03 -2.31930E+04  1.51969E+04 -1.68078E+04  1.83264E+04 -1.33868E+03
  1.14331E+04  1.31709E+04 -1.10430E+03  1.90273E+04 -1.31310E+04  1.04265E+04 -1.89802E+04 -3.83370E+03
 -1.42044E+04 -1.71233E+04 -2.16663E+03 -2.31474E+04  1.06358E+04 -1.89559E+04  1.96085E+04 -9.20120E+03
  1.81427E+04  1.80895E+02  1.26099E+04  4.10679E+03  6.62509E+03  1.00400E+03  1.00244E+04 -1.60563E+03
  1.73762E+04  2.61439E+03  1.97081E+04  1.52153E+04  1.27525E+04  3.02562E+04 -2.72938E+03  3.42761E+04
 -2.00474E+04  2.73936E+04 -3.18970E+04  1.38879E+04 -3.36157E+04 -2.60074E+03 -2.81129E+04 -1.94119E+04
 -1.19593E+04 -2.77515E+04  9.32014E+03 -2.52470E+04  2.17208E+04 -1.29555E+04  1.93786E+04  5.61780E+03
  7.29062E+03  1.45198E+04 -9.25999E+03  1.26995E+04 -1.62037E+04  2.93589E+03 -1.25301E+04 -1.01906E+04
 -5.67651E+01 -1.54878E+04  8.37134E+03 -1.17325E+04  1.03874E+04 -1.03133E+03  2.37469E+03  6.62665E+03
 -6.88149E+03  2.42940E+03 -6.10900E+03 -5.87439E+03 -5.39416E+02 -1.37204E+04  9.34931E+03 -1.41547E+04
  1.69923E+04 -7.60554E+03  1.80870E+04  2.56013E+03  1.58795E+04  1.34507E+04  7.15725E+03  2.03005E+04
 -3.42580E+03  2.25670E+04 -1.44753E+04  1.42411E+04 -1.60761E+04  3.57999E+03 -1.12569E+04 -3.85604E+03
 -5.22587E+03 -5.18916E+03 -8.14093E+02  1.08473E+03 -2.66693E+03  2.64460E+03 -5.30748E+03  4.40121E+03
 -1.05867E+04 -7.91284E+02 -1.16373E+04 -9.57380E+03 -4.58289E+03 -1.49785E+04  4.44109E+03 -1.16033E+04
  9.65588E+03 -4.88012E+03  6.77770E+03  3.22577E+03  2.94053E+02  4.53451E+03 -5.36645E+03 -3.86437E+02
 -5.47812E+03 -7.32351E+03 -8.49543E+02 -1.07204E+04  6.00822E+03 -1.13949E+04  1.42219E+04 -6.17950E+03
  1.68225E+04  1.42361E+03  1.20770E+04  9.63841E+03  2.30894E+03  1.34169E+04 -7.00808E+03  1.14023E+04
 -9.26442E+03  3.63865E+03 -4.86842E+03 -2.11821E+03  1.74454E+03 -2.97178E+03  5.92151E+03 -8.91887E+02
  5.41413E+03  5.18693E+03  1.42725E+03  9.04734E+03 -6.71759E+03  8.49397E+03 -1.14783E+04  2.41870E+03
 -7.41292E+03 -5.67720E+03  4.82128E+02 -9.88866E+03  5.97056E+03 -4.62100E+03  6.04383E+03  1.63493E+03
  8.97333E+02  6.05678E+03 -5.19732E+03  7.47232E+03 -8.69705E+03  3.51719E+03 -8.61000E+03 -2.98395E+03
 -5.23620E+03 -1.03212E+04  2.44301E+03 -1.21184E+04  1.00655E+04 -7.23089E+03  1.08950E+04  1.96261E+03
  6.72174E+03  8.74528E+03 -5.94712E+02  1.03657E+04 -8.03004E+03  6.28437E+03 -8.37321E+03 -9.73258E+02
 -7.90205E+03 -7.39810E+03 -1.34606E+03 -8.06723E+03  3.90681E+03 -6.80910E+03  4.86679E+03 -3.61935E+03
  3.79073E+03  1.03909E+03 -1.02731E+02  1.61161E+03 -7.74160E+01 -1.42967E+03  9.28496E+02 -4.21230E+03
  6.90404E+03 -2.36879E+03  9.70638E+03  1.34746E+03  9.79602E+03  6.21899E+03  7.20478E+03  1.28438E+04
 -2.79807E+03  1.48346E+04 -1.27376E+04  1.09177E+04 -1.65124E+04  2.08758E+03 -1.31715E+04 -5.28845E+03
 -6.70213E+03 -1.12079E+04 -4.35586E+02 -9.32445E+03  3.61415E+03 -4.74159E+03  3.27901E+03 -3.42922E+03
  2.03373E+03 -2.39338E+03  3.03066E+03 -2.83464E+03  4.74885E+03 -2.13327E+03  5.48497E+03 -3.75903E+02
  6.88423E+03  1.97518E+03  3.01633E+03  5.76482E+03 -1.77882E+03  6.15921E+03 -7.21003E+03  5.22100E+03
 -8.81274E+03 -1.12637E+03 -4.78441E+03 -6.17321E+03 -1.85408E+02 -9.55016E+03  5.33525E+03 -9.46321E+03
  9.48411E+03 -5.62732E+03  1.20570E+04  1.21045E+03  8.36218E+03  7.81489E+03  1.72735E+03  1.09613E+04
 -4.46343E+03  9.44245E+03 -6.29155E+03  3.30389E+03 -4.46341E+03 -1.14926E+03 -1.55496E+03 -1.23795E+03
 -1.28675E+03  1.73658E+01 -1.57018E+03  2.52430E+03 -3.59883E+03  1.68381E+03 -6.88132E+03 -6.58349E+02
 -3.72939E+03 -6.41652E+03  3.44616E+02 -9.02530E+03  5.57771E+03 -8.13134E+03  7.93530E+03 -1.98739E+03
  7.98509E+03  3.96713E+03  4.45724E+03  7.20667E+03 -1.81257E+03  8.49837E+03 -5.87803E+03  5.33923E+03
 -7.90602E+03  5.38242E+02 -6.28969E+03 -5.06169E+03 -4.77178E+02 -6.58972E+03  3.42095E+03 -5.01036E+03
  5.19269E+03 -1.91392E+03  3.59026E+03  1.34978E+03  1.11624E+03  3.03361E+03  1.18138E+03  1.04116E+03
  1.94762E+03  4.58126E+02  2.05873E+03  1.23910E+03  2.56884E+03  3.36859E+03  2.45495E+03  4.21153E+03
 -2.16121E+03  6.17140E+03 -5.62603E+03  7.44856E+03 -7.93600E+03  1.62255E+03 -9.02099E+03 -2.58592E+03
 -4.37141E+03 -8.15424E+03  1.07462E+03 -9.34036E+03  4.85169E+03 -5.84638E+03  6.49008E+03 -1.80015E+03
  5.27607E+03  3.22094E+03  1.12562E+03  4.84311E+03 -1.94307E+03  2.96435E+03 -3.10634E+03 -6.54967E+02
 -1.65909E+03 -3.49258E+03  2.30622E+03 -3.23071E+03  3.19159E+03 -1.91273E+03  3.41596E+03  8.75513E+02
  1.93305E+03  1.20242E+03  1.16208E+03  4.84944E+02 -2.33776E+02  1.14426E+03  1.32926E+03 -1.24593E+02
  8.87804E+02 -5.60847E+02  3.69418E+03  1.27738E+03  1.55238E+03  4.62964E+03 -6.96422E+02  5.74066E+03
 -3.69173E+03  3.64354E+03 -5.11758E+03  1.00158E+03 -4.40901E+03 -1.61183E+03 -1.13358E+03 -2.68478E+03
  7.77786E+02 -3.07270E+03  2.04354E+03 -1.34006E+03  1.57013E+03  2.00767E+03 -7.29730E+02  2.75988E+03
 -3.20102E+03  1.47606E+03 -3.19004E+03 -2.33587E+03 -2.08243E+03 -4.94894E+03  6.13416E+02 -4.35090E+03
  2.17724E+03 -2.18454E+03  2.75658E+03 -3.32611E+02  2.69150E+03  1.05384E+03  6.43669E+02  2.45945E+03
 -1.19283E+03  8.87035E+02 -2.16380E+03 -1.24858E+03  1.02490E+03 -2.81703E+03  3.78290E+03 -2.65042E+03
  4.22418E+03  1.37651E+02  5.21723E+03  3.02631E+03  2.06692E+03  4.91363E+03 -1.21816E+03  4.86219E+03
 -3.95218E+03  1.55440E+03 -4.09050E+03 -4.09892E+02 -2.44932E+03 -3.18420E+03  8.33860E+02 -2.72950E+03
  3.10767E+03 -1.67119E+03  2.41085E+03  1.34462E+03  7.02577E+02  2.81162E+03 -3.33789E+01  2.42108E+03
 -1.24650E+03  1.97412E+03 -1.02961E+03  6.85549E+02 -4.08765E+02  2.13832E+02 -1.01288E+03  1.35190E+03
 -1.49254E+03  1.62680E+03 -3.70756E+03  1.31970E+03 -4.68254E+03  1.90463E+02 -5.55372E+03 -3.00045E+03
 -2.85928E+03 -6.43095E+03  1.04718E+03 -7.70922E+03  4.17228E+03 -6.08814E+03  7.07387E+03 -2.43166E+03
  6.33674E+03  8.69310E+02  3.75323E+03  4.48559E+03 -3.43918E+01  4.69054E+03 -1.95686E+03  3.72859E+03
 -2.80734E+03  1.39255E+03 -1.69631E+03 -6.52607E+02 -8.65740E+02 -8.81987E+01 -8.10601E+02 -1.44083E+02
 -1.55241E+03  1.82442E+02 -1.56831E+03  1.19393E+02 -2.47141E+02 -1.17950E+03 -2.53981E+02 -1.69823E+03
  2.24683E+03 -1.31250E+03  2.40951E+03  7.51467E+01  3.18654E+03  2.49464E+03  6.68591E+02  4.38611E+03
 -2.31766E+03  5.65272E+03 -4.64625E+03  2.94441E+03 -5.65592E+03 -4.06278E+02 -4.16587E+03 -3.96690E+03
 -2.22793E+03 -4.40752E+03  1.07581E+03 -4.24978E+03  2.87892E+03 -2.45283E+03  2.63353E+03  1.06882E+02
  1.76592E+03  1.52966E+03 -1.60315E+02  1.12852E+03 -7.69148E+02 -1.18187E+02 -2.52912E+02 -8.70630E+02
  1.63299E+03 -3.60379E+02  1.33115E+03  6.93425E+02  8.44352E+02  1.57778E+03  1.23575E+02  2.26646E+03
 -1.98505E+03  2.01525E+03 -2.95861E+03  2.29663E+01 -2.73000E+03 -2.41508E+03 -3.03797E+02 -3.95153E+03
  2.30555E+03 -3.15847E+03  2.95115E+03 -5.83195E+02  3.53641E+03  3.11019E+02  2.10724E+03  2.47818E+03
  6.37655E+02  2.41859E+03 -1.14984E+03  2.28731E+03 -2.07770E+03  1.52823E+03 -1.51214E+03  1.28282E+02
 -1.05844E+03  1.91729E+01 -9.63433E+02  4.40899E+02 -1.41013E+03  3.61291E+02 -2.29019E+03 -6.80024E+02
 -2.31985E+03 -1.32364E+03 -8.29947E+02 -3.41493E+03  1.46259E+03 -3.46667E+03  2.49884E+03 -1.22020E+03
  2.53260E+03  5.60247E+02  1.06201E+03  1.88851E+03 -2.99834E+02  2.82806E+03 -1.74218E+03  2.06161E+03
