 $NMID ID='MM_0lb_SNR800_11hz_g60_41.RAW', FMTDAT='(8E13.5)'
 TRAMP=1., VOLUME=1. $END
  3.09572E+05  4.12165E+02  3.37990E+05  2.50535E+05  8.49325E+04  3.38282E+05 -1.32495E+05  2.51627E+05
 -1.90909E+05  8.39084E+04 -1.12571E+05 -3.24632E+04  5.07329E+02 -5.09437E+04  5.39651E+04 -5.25950E+02
  3.58141E+04  5.27689E+04 -1.66034E+04  7.57811E+04 -6.12185E+04  6.45520E+04 -8.53363E+04  3.26614E+04
 -8.24532E+04 -1.17750E+04 -5.84835E+04 -5.24615E+04 -1.50237E+04 -7.07281E+04  2.83232E+04 -4.66055E+04
  4.12510E+04  3.72320E+03  1.65553E+04  4.84152E+04 -3.46667E+04  4.83495E+04 -6.81445E+04  1.83329E+02
 -5.49319E+04 -5.76522E+04 -6.99450E+03 -7.88486E+04  3.47454E+04 -5.65683E+04  4.97225E+04 -1.82943E+04
  4.53922E+04  1.15944E+04  3.29729E+04  2.67780E+04  1.56500E+04  3.08323E+04 -5.77608E+03  2.79466E+04
 -2.24357E+04  1.21534E+04 -1.79786E+04 -6.06233E+03  6.67231E+03 -7.14767E+03  2.32272E+04  1.35745E+04
  7.13955E+03  3.74819E+04 -3.35157E+04  3.68985E+04 -6.55445E+04  2.35869E+03 -5.85883E+04 -4.44040E+04
 -1.25238E+04 -6.54348E+04  4.14128E+04 -4.70110E+04  6.11804E+04 -2.22771E+03  3.64783E+04  3.41971E+04
 -5.76106E+03  3.88609E+04 -3.16888E+04  1.82515E+04 -3.29926E+04 -3.67521E+03 -1.91586E+04 -1.16495E+04
 -9.21834E+03 -1.47421E+04 -3.36742E+02 -1.98136E+04  8.16260E+03 -2.32486E+04  1.58344E+04 -1.26853E+04
  1.05975E+04  6.36309E+03 -1.02761E+04  1.27762E+04 -2.31776E+04 -6.48484E+03 -8.32812E+03 -3.73027E+04
  2.47665E+04 -4.66557E+04  5.14637E+04 -2.06558E+04  4.86875E+04  2.05426E+04  1.71320E+04  4.68920E+04
 -1.62789E+04  3.58682E+04 -2.71760E+04  2.29722E+03 -1.13669E+04 -2.92684E+04  2.14816E+04 -3.62683E+04
  4.40612E+04 -1.09035E+04  3.98057E+04  2.49966E+04  2.08591E+04  5.03328E+04 -8.52728E+03  5.57031E+04
 -3.49663E+04  3.82183E+04 -4.68926E+04  1.07406E+04 -4.70390E+04 -1.82803E+04 -2.60411E+04 -4.16236E+04
  7.57209E+03 -4.18337E+04  3.41378E+04 -1.69414E+04  3.19089E+04  1.10400E+04  5.19755E+03  2.05870E+04
 -1.40536E+04  9.65507E+03 -1.11975E+04 -7.22081E+03  5.69871E+03 -1.11870E+04  1.84934E+04  5.98653E+03
  1.51093E+04  2.26974E+04 -5.35038E+03  2.67392E+04 -2.35379E+04  1.37731E+04 -3.09665E+04 -3.23824E+03
 -2.46129E+04 -1.82210E+04 -1.11402E+04 -2.45222E+04  4.33263E+03 -2.47227E+04  1.91460E+04 -2.22439E+04
  3.10052E+04 -1.38402E+04  3.71177E+04  4.09811E+03  2.62545E+04  2.40190E+04  4.09717E+03  4.06018E+04
 -1.94771E+04  3.33329E+04 -3.00205E+04  1.16695E+04 -2.20465E+04 -1.02699E+04 -4.89869E+03 -1.29950E+04
  1.01769E+03 -1.58825E+03 -7.32214E+03  8.33379E+03 -1.95432E+04  4.79085E+03 -1.91629E+04 -8.83989E+03
 -1.15086E+04 -2.28733E+04  6.45568E+03 -2.70630E+04  1.79982E+04 -1.92489E+04  2.19322E+04 -1.69605E+03
  1.44760E+04  1.54605E+04 -1.16002E+03  2.27432E+04 -1.56648E+04  1.29287E+04 -2.24936E+04 -4.81600E+03
 -1.66037E+04 -1.99565E+04 -1.92055E+03 -2.71204E+04  1.21165E+04 -2.25153E+04  2.21612E+04 -1.16652E+04
  2.10818E+04 -2.25666E+00  1.59194E+04  5.30700E+03  8.50221E+03  1.89474E+03  1.15989E+04 -2.06384E+03
  2.10738E+04  3.06134E+03  2.45306E+04  1.75283E+04  1.67498E+04  3.59492E+04 -2.83635E+03  4.23354E+04
 -2.41224E+04  3.51939E+04 -4.00921E+04  1.81267E+04 -4.24061E+04 -2.80420E+03 -3.44885E+04 -2.48695E+04
 -1.38463E+04 -3.50868E+04  1.25662E+04 -3.10239E+04  2.67746E+04 -1.45591E+04  2.32573E+04  7.26526E+03
  8.04125E+03  1.77268E+04 -1.09028E+04  1.54873E+04 -1.97484E+04  2.69187E+03 -1.46001E+04 -1.20589E+04
 -2.38654E+02 -1.85482E+04  1.01726E+04 -1.40277E+04  1.24992E+04 -1.52904E+03  3.04849E+03  8.42485E+03
 -8.39040E+03  3.69699E+03 -8.37434E+03 -6.63659E+03 -1.59528E+03 -1.69368E+04  1.17480E+04 -1.85689E+04
  2.17248E+04 -1.07939E+04  2.43876E+04  2.87786E+03  2.14236E+04  1.74206E+04  1.00904E+04  2.69338E+04
 -5.05178E+03  2.91143E+04 -1.91218E+04  1.79416E+04 -2.07617E+04  3.68033E+03 -1.48493E+04 -5.38286E+03
 -6.43413E+03 -6.84486E+03 -5.49858E+02  4.06775E+02 -2.71914E+03  3.50618E+03 -6.85646E+03  5.19005E+03
 -1.33750E+04 -9.40116E+02 -1.38061E+04 -1.10798E+04 -5.61110E+03 -1.84413E+04  5.90710E+03 -1.49917E+04
  1.24904E+04 -6.01790E+03  8.76481E+03  3.89005E+03  1.15762E+01  6.06696E+03 -7.45985E+03 -2.81735E+02
 -7.11019E+03 -9.38462E+03 -9.30267E+02 -1.44173E+04  8.37382E+03 -1.52181E+04  1.86629E+04 -7.97189E+03
  2.16076E+04  2.14583E+03  1.58337E+04  1.32775E+04  2.87509E+03  1.75010E+04 -8.93829E+03  1.44753E+04
 -1.17097E+04  4.20823E+03 -6.17093E+03 -3.36542E+03  1.93099E+03 -4.11351E+03  7.64736E+03 -1.15239E+03
  7.15450E+03  6.76911E+03  1.28563E+03  1.23357E+04 -7.91322E+03  1.10327E+04 -1.47306E+04  2.70373E+03
 -9.90875E+03 -7.48390E+03  5.30157E+02 -1.25432E+04  8.06207E+03 -6.16341E+03  8.63348E+03  3.27562E+03
  1.98081E+03  9.42926E+03 -7.77085E+03  1.04059E+04 -1.24976E+04  4.25838E+03 -1.25298E+04 -4.14756E+03
 -7.47959E+03 -1.40068E+04  3.27023E+03 -1.61092E+04  1.39891E+04 -9.49489E+03  1.54586E+04  2.75885E+03
  9.14557E+03  1.19624E+04 -1.35331E+03  1.44431E+04 -1.08951E+04  7.97065E+03 -1.15023E+04 -1.47950E+03
 -1.03669E+04 -9.62915E+03 -2.28802E+03 -1.10005E+04  6.07491E+03 -8.60672E+03  6.94317E+03 -3.37892E+03
  4.80884E+03  1.75553E+03 -6.76945E+02  1.88331E+03 -5.83432E+02 -2.82907E+03  2.51451E+03 -6.72295E+03
  1.01820E+04 -4.46301E+03  1.45938E+04  1.52866E+03  1.39947E+04  9.60579E+03  9.41829E+03  1.86250E+04
 -4.20345E+03  2.14334E+04 -1.77460E+04  1.56731E+04 -2.31212E+04  3.20099E+03 -1.87661E+04 -8.01973E+03
 -9.33388E+03 -1.54452E+04 -4.99566E+01 -1.33947E+04  4.80367E+03 -7.38261E+03  4.80683E+03 -4.65437E+03
  3.33891E+03 -2.65399E+03  3.53332E+03 -3.22240E+03  5.08703E+03 -3.26095E+03  7.51004E+03 -1.29146E+03
  9.50394E+03  2.28842E+03  5.03623E+03  8.81378E+03 -2.13993E+03  9.61737E+03 -1.02271E+04  7.59471E+03
 -1.30550E+04 -1.21611E+03 -8.07814E+03 -9.10826E+03 -3.88699E+02 -1.41170E+04  7.61332E+03 -1.39304E+04
  1.43872E+04 -7.25311E+03  1.69739E+04  2.37205E+03  1.19779E+04  1.18350E+04  2.11336E+03  1.55462E+04
 -6.36132E+03  1.27327E+04 -8.72812E+03  4.30357E+03 -6.13686E+03 -1.75738E+03 -2.12440E+03 -2.15103E+03
 -1.55306E+03  4.84265E+01 -1.79917E+03  2.86748E+03 -5.56924E+03  2.22073E+03 -8.95495E+03 -1.37040E+03
 -6.35335E+03 -8.76388E+03  1.02096E+02 -1.27984E+04  7.97489E+03 -1.19640E+04  1.24138E+04 -3.67865E+03
  1.24410E+04  6.21397E+03  5.85723E+03  1.12435E+04 -2.45289E+03  1.25940E+04 -9.21496E+03  8.04117E+03
 -1.15365E+04  4.27474E+02 -9.07919E+03 -7.46414E+03 -8.49086E+02 -1.01566E+04  5.41743E+03 -7.86480E+03
  7.95272E+03 -2.61358E+03  5.23806E+03  2.15415E+03  1.70913E+03  3.92250E+03  1.32099E+03  1.94153E+03
  2.50899E+03  9.09915E+02  2.70159E+03  2.03305E+03  3.61040E+03  4.27768E+03  2.85997E+03  6.80482E+03
 -2.53087E+03  9.62181E+03 -8.97340E+03  9.99947E+03 -1.27275E+04  2.62759E+03 -1.33280E+04 -5.21837E+03
 -6.25044E+03 -1.24706E+04  1.98677E+03 -1.42362E+04  7.71875E+03 -8.58034E+03  1.05624E+04 -2.31760E+03
  8.04755E+03  4.95543E+03  1.47226E+03  7.47435E+03 -3.22538E+03  4.06181E+03 -5.01756E+03 -5.23868E+02
 -2.16878E+03 -5.52347E+03  2.54776E+03 -5.70052E+03  5.07229E+03 -2.56639E+03  4.91692E+03  9.86372E+02
  3.11087E+03  2.37469E+03  1.02062E+03  2.16533E+03 -9.70527E+02  1.69810E+03  1.42957E+03 -8.80004E+02
  2.09292E+03 -7.32324E+02  5.15593E+03  2.13859E+03  2.65136E+03  6.84330E+03 -9.89410E+02  9.15220E+03
 -5.54982E+03  5.36267E+03 -7.86859E+03  1.81428E+03 -7.47606E+03 -2.67178E+03 -2.45904E+03 -4.56026E+03
  1.10071E+03 -5.04014E+03  3.16982E+03 -1.81535E+03  2.61889E+03  2.57313E+03 -1.42967E+03  4.24107E+03
 -5.22568E+03  2.33093E+03 -5.46940E+03 -2.73275E+03 -3.15324E+03 -7.07385E+03  9.31856E+02 -6.79535E+03
  3.55574E+03 -3.73573E+03  4.96977E+03 -8.85097E+02  4.33950E+03  1.77322E+03  7.22907E+02  3.62696E+03
 -2.70851E+03  1.11373E+03 -3.16018E+03 -2.24752E+03  6.29625E+02 -5.26071E+03  6.23758E+03 -4.02709E+03
  7.58882E+03  4.33449E+02  7.63067E+03  5.17711E+03  2.50179E+03  7.72772E+03 -2.83444E+03  7.11275E+03
 -6.46362E+03  3.15440E+03 -7.05940E+03 -5.38215E+02 -3.83495E+03 -5.06843E+03  1.11683E+03 -4.43072E+03
  5.03904E+03 -2.61743E+03  4.17124E+03  2.51208E+03  1.41775E+03  4.48809E+03 -4.26246E+02  3.86602E+03
 -2.38108E+03  2.41369E+03 -1.88051E+03  1.40890E+03 -4.81817E+02  8.63470E+02 -1.71133E+03  1.63906E+03
 -2.06135E+03  3.51557E+03 -5.33500E+03  2.62936E+03 -7.90818E+03  4.16420E+02 -8.61335E+03 -5.15347E+03
 -4.54563E+03 -9.99883E+03  2.04915E+03 -1.18016E+04  7.12246E+03 -9.34859E+03  1.12529E+04 -3.46863E+03
  1.03307E+04  1.84393E+03  6.43708E+03  7.06203E+03  7.46982E+02  7.64187E+03 -2.95689E+03  6.02193E+03
 -4.77098E+03  2.50030E+03 -2.65225E+03 -1.11673E+03 -1.11663E+03 -9.21797E+02 -2.16388E+02  7.01529E+01
 -1.47233E+03  8.56460E+01 -2.33332E+03 -3.32959E+02 -4.15538E+02 -1.80578E+03  4.67796E+01 -2.96933E+03
  3.76295E+03 -2.48579E+03  4.53636E+03  1.06465E+02  5.55139E+03  4.28199E+03  1.37360E+03  7.87942E+03
 -3.89721E+03  9.10202E+03 -8.11242E+03  4.70747E+03 -9.44620E+03 -9.58498E+02 -6.82786E+03 -5.72796E+03
 -3.16709E+03 -7.89875E+03  1.76200E+03 -7.00612E+03  5.19380E+03 -3.68011E+03  5.08447E+03  4.12621E+02
  2.65496E+03  3.08971E+03 -4.10099E+02  2.29708E+03 -1.67959E+03  1.36844E+02 -2.84063E+02 -1.56805E+03
  2.62312E+03 -5.92379E+02  2.92142E+03  1.12213E+03  1.96696E+03  3.04808E+03  3.21209E+02  4.08815E+03
 -3.35052E+03  3.32895E+03 -4.84966E+03  1.63777E+02 -4.72513E+03 -3.63710E+03 -7.85047E+02 -6.28020E+03
  3.49736E+03 -5.39195E+03  5.44353E+03 -1.55309E+03  5.77201E+03  1.16179E+03  3.30828E+03  4.74803E+03
  7.53279E+02  4.53306E+03 -1.53860E+03  4.23212E+03 -3.45426E+03  2.07849E+03 -2.62521E+03  1.00071E+02
 -1.16394E+03 -4.42102E+02 -1.55110E+03  5.69134E+02 -2.30969E+03  1.03549E+03 -3.44146E+03 -8.31916E+02
 -4.14239E+03 -2.59667E+03 -1.02014E+03 -5.60290E+03  2.41871E+03 -5.71373E+03  4.30928E+03 -2.41234E+03
  5.12081E+03  8.78806E+02  2.43552E+03  3.05215E+03 -2.27713E+02  4.96716E+03 -3.57074E+03  3.11771E+03
