 $NMID ID='MM_0lb_SNR800_17hz_g50_61.RAW', FMTDAT='(8E13.5)'
 TRAMP=1., VOLUME=1. $END
  3.09935E+05  1.36977E+02  3.37360E+05  2.50563E+05  8.45247E+04  3.37782E+05 -1.32815E+05  2.50777E+05
 -1.89934E+05  8.27318E+04 -1.11309E+05 -3.27826E+04  1.45240E+03 -5.02764E+04  5.37081E+04  6.82006E+01
  3.52482E+04  5.28168E+04 -1.69368E+04  7.53217E+04 -6.08239E+04  6.31757E+04 -8.35115E+04  3.18333E+04
 -8.05814E+04 -1.13815E+04 -5.67465E+04 -5.09243E+04 -1.50150E+04 -6.91426E+04  2.71492E+04 -4.51083E+04
  3.96426E+04  3.80714E+03  1.58590E+04  4.72880E+04 -3.41013E+04  4.66871E+04 -6.57928E+04 -5.05426E+02
 -5.25958E+04 -5.64618E+04 -6.38573E+03 -7.60344E+04  3.32951E+04 -5.42489E+04  4.70992E+04 -1.66405E+04
  4.22155E+04  1.09536E+04  3.12688E+04  2.51434E+04  1.54265E+04  2.84506E+04 -4.74384E+03  2.69307E+04
 -2.18823E+04  1.26498E+04 -1.88691E+04 -4.84920E+03  4.89423E+03 -7.45015E+03  2.18778E+04  1.18065E+04
  7.30853E+03  3.44109E+04 -3.12446E+04  3.47357E+04 -6.20504E+04  2.06233E+03 -5.59595E+04 -4.20617E+04
 -1.26755E+04 -6.16097E+04  3.88335E+04 -4.42126E+04  5.65791E+04 -1.82088E+03  3.27540E+04  3.13153E+04
 -6.28143E+03  3.45357E+04 -2.92546E+04  1.45706E+04 -2.89643E+04 -4.95062E+03 -1.53396E+04 -1.04712E+04
 -7.91329E+03 -1.22638E+04 -8.84067E+02 -1.72918E+04  6.82391E+03 -2.28217E+04  1.52958E+04 -1.38157E+04
  1.20900E+04  4.62227E+03 -7.00123E+03  1.31841E+04 -2.02669E+04 -3.24239E+03 -8.05630E+03 -3.21135E+04
  2.17725E+04 -4.18557E+04  4.62405E+04 -1.91532E+04  4.31968E+04  1.85391E+04  1.51195E+04  4.27481E+04
 -1.54942E+04  3.20834E+04 -2.42442E+04  1.43958E+03 -8.85196E+03 -2.70615E+04  2.05022E+04 -3.22712E+04
  3.94360E+04 -8.01666E+03  3.33081E+04  2.29350E+04  1.63037E+04  4.42768E+04 -7.57292E+03  4.72149E+04
 -2.98752E+04  3.18606E+04 -3.92527E+04  8.86115E+03 -4.01516E+04 -1.58107E+04 -2.22418E+04 -3.59146E+04
  7.14747E+03 -3.54052E+04  3.00721E+04 -1.35659E+04  2.78178E+04  1.09756E+04  3.63067E+03  1.81973E+04
 -1.32880E+04  7.60001E+03 -1.00535E+04 -7.58985E+03  5.74950E+03 -1.04037E+04  1.75271E+04  6.33066E+03
  1.26562E+04  2.18004E+04 -6.55182E+03  2.39066E+04 -2.18099E+04  1.01723E+04 -2.60096E+04 -5.51687E+03
 -1.80503E+04 -1.69760E+04 -6.75137E+03 -1.84414E+04  4.06798E+03 -1.67041E+04  1.38008E+04 -1.58893E+04
  2.31772E+04 -1.20726E+04  2.96998E+04  1.86126E+03  2.24961E+04  1.77127E+04  4.15836E+03  3.42821E+04
 -1.65048E+04  2.87371E+04 -2.67188E+04  9.97639E+03 -2.01834E+04 -1.02997E+04 -4.23220E+03 -1.38622E+04
  2.15423E+03 -3.65099E+03 -3.35803E+03  5.81531E+03 -1.41905E+04  4.99064E+03 -1.46286E+04 -5.78516E+03
 -9.14833E+03 -1.66626E+04  4.89919E+03 -2.10532E+04  1.32743E+04 -1.50337E+04  1.58477E+04 -1.42563E+03
  9.98434E+03  1.17357E+04 -1.03731E+03  1.69465E+04 -1.14687E+04  9.34217E+03 -1.70027E+04 -3.81977E+03
 -1.25204E+04 -1.52861E+04 -1.92121E+03 -2.04100E+04  9.73659E+03 -1.66816E+04  1.74092E+04 -8.14227E+03
  1.58370E+04  5.20072E+02  1.12482E+04  4.08957E+03  5.58099E+03  4.78059E+02  8.51404E+03 -1.71650E+03
  1.50781E+04  2.82693E+03  1.65467E+04  1.37427E+04  1.02056E+04  2.68521E+04 -2.99311E+03  2.93569E+04
 -1.73599E+04  2.30683E+04 -2.74204E+04  1.10260E+04 -2.79887E+04 -1.81099E+03 -2.35186E+04 -1.59157E+04
 -1.09941E+04 -2.31378E+04  7.87357E+03 -2.12756E+04  1.86224E+04 -1.14786E+04  1.69842E+04  4.23135E+03
  6.86636E+03  1.25512E+04 -7.53660E+03  1.13653E+04 -1.43264E+04  2.63880E+03 -1.12411E+04 -8.70586E+03
  2.91928E+01 -1.37276E+04  6.87057E+03 -1.03211E+04  8.86916E+03 -1.11999E+03  1.81303E+03  5.47382E+03
 -6.06910E+03  1.79681E+03 -4.29189E+03 -5.13079E+03  8.73137E+01 -1.13343E+04  8.62215E+03 -1.14499E+04
  1.38082E+04 -5.82968E+03  1.40484E+04  2.93789E+03  1.22670E+04  1.08256E+04  5.63865E+03  1.61804E+04
 -2.36618E+03  1.79187E+04 -1.14213E+04  1.15387E+04 -1.28565E+04  2.89900E+03 -9.22071E+03 -2.50436E+03
 -4.93871E+03 -3.99521E+03 -5.70821E+02  1.33160E+03 -2.27575E+03  2.36748E+03 -4.23868E+03  3.82651E+03
 -9.02040E+03 -5.64377E+02 -9.62589E+03 -7.48233E+03 -3.88493E+03 -1.26177E+04  3.77003E+03 -9.34785E+03
  8.30596E+03 -4.16316E+03  5.95208E+03  2.51858E+03  1.90226E+02  3.74802E+03 -4.05600E+03 -1.56609E+01
 -4.13525E+03 -5.99087E+03 -8.89778E+02 -8.46474E+03  4.78661E+03 -9.02176E+03  1.12997E+04 -4.79977E+03
  1.35592E+04  9.28187E+02  9.91451E+03  7.12559E+03  1.80101E+03  1.01049E+04 -5.83204E+03  9.16807E+03
 -7.54858E+03  2.99587E+03 -4.08612E+03 -1.65063E+03  1.43370E+03 -2.16144E+03  5.49099E+03 -1.12287E+03
  4.57768E+03  3.76579E+03  1.13626E+03  7.14710E+03 -5.18594E+03  7.23766E+03 -9.14684E+03  1.71722E+03
 -5.57662E+03 -4.15289E+03  1.50984E+02 -7.70009E+03  4.73926E+03 -3.80475E+03  4.39291E+03  1.51111E+03
  8.01837E+02  4.06945E+03 -4.58276E+03  5.45650E+03 -5.81371E+03  2.56471E+03 -5.54637E+03 -1.46586E+03
 -3.46955E+03 -7.39505E+03  1.48041E+03 -8.52574E+03  7.05979E+03 -5.52702E+03  8.05688E+03  1.09663E+03
  5.49308E+03  6.33585E+03 -4.38749E+01  8.08198E+03 -5.90222E+03  4.78356E+03 -6.37504E+03 -5.77595E+02
 -6.17275E+03 -5.88450E+03 -1.41812E+03 -5.83622E+03  2.89575E+03 -5.23055E+03  3.51586E+03 -3.14391E+03
  3.05399E+03  2.92781E+02  4.63458E+01  1.64126E+03  4.53743E+02 -7.51810E+02  3.96240E+02 -2.35236E+03
  4.93796E+03 -1.53244E+03  6.63276E+03  7.19606E+02  6.43582E+03  3.87302E+03  5.79536E+03  8.70578E+03
 -1.81340E+03  1.05592E+04 -9.27015E+03  8.02672E+03 -1.16558E+04  1.40287E+03 -9.24554E+03 -3.29177E+03
 -4.61176E+03 -7.77631E+03 -6.30379E+02 -6.43266E+03  2.45861E+03 -2.87300E+03  2.23703E+03 -2.57725E+03
  1.57229E+03 -1.45137E+03  2.42194E+03 -2.72806E+03  3.75154E+03 -1.47330E+03  4.29923E+03  1.45607E+02
  5.39403E+03  1.35914E+03  1.54127E+03  3.97016E+03 -1.25533E+03  3.76759E+03 -5.16853E+03  3.42976E+03
 -5.93521E+03 -1.18567E+03 -2.64835E+03 -3.97454E+03 -6.10867E+01 -5.90013E+03  3.84420E+03 -6.23025E+03
  6.27464E+03 -3.90136E+03  7.89925E+03  7.02536E+02  5.60160E+03  5.29195E+03  1.34702E+03  7.24008E+03
 -2.73899E+03  6.69551E+03 -3.92792E+03  1.98863E+03 -2.52577E+03 -1.02080E+03 -9.71810E+02 -8.34858E+02
 -4.50500E+02  4.63936E+02 -1.18967E+03  1.89263E+03 -2.85582E+03  1.18351E+03 -4.52183E+03 -4.73953E+02
 -2.19357E+03 -4.63297E+03  5.83971E+02 -5.69390E+03  3.35595E+03 -5.34807E+03  4.46452E+03 -1.38667E+03
  5.13497E+03  2.91870E+03  2.36181E+03  4.14958E+03 -1.41561E+03  5.77793E+03 -3.09807E+03  3.40741E+03
 -4.83242E+03  5.82333E+02 -4.20703E+03 -3.14406E+03 -2.51428E+02 -3.83667E+03  2.14645E+03 -3.21322E+03
  3.45758E+03 -1.53202E+03  2.27307E+03  5.82770E+02  5.18558E+02  2.00403E+03  6.70384E+02  7.97194E+02
  1.78976E+03  3.52045E+02  1.28207E+03  1.04628E+03  1.29979E+03  2.54005E+03  1.75791E+03  2.16052E+03
 -1.28356E+03  3.78600E+03 -3.33872E+03  4.72117E+03 -4.19299E+03  1.29080E+03 -5.04954E+03 -7.72572E+02
 -2.57723E+03 -4.76705E+03  7.50114E+02 -5.54239E+03  2.70486E+03 -3.71928E+03  3.94563E+03 -1.00345E+03
  3.10440E+03  2.07412E+03  5.09244E+02  3.06656E+03 -9.94512E+02  1.40795E+03 -1.88360E+03 -3.36035E+01
 -1.03598E+03 -2.07181E+03  1.55526E+03 -1.83459E+03  1.82926E+03 -1.26922E+03  1.80964E+03  5.41700E+02
  1.21456E+03  5.22340E+02  8.98312E+02  1.38750E+02 -3.05059E+02  6.73159E+02  1.72192E+03 -3.40325E+02
  8.35008E+01 -3.98321E+02  2.27039E+03  6.76781E+02  8.26911E+02  2.88694E+03 -4.64343E+02  3.43790E+03
 -2.19143E+03  1.51380E+03 -2.54149E+03  5.49124E+02 -2.68189E+03 -1.02811E+03 -6.99736E+02 -1.50451E+03
  3.72693E+02 -1.48946E+03  1.32441E+03 -1.19915E+03  7.73865E+02  1.60818E+03 -7.97857E+02  1.36121E+03
 -1.63040E+03  9.32949E+02 -1.76800E+03 -1.54963E+03 -1.05184E+03 -2.59986E+03  4.05299E+02 -2.09280E+03
  6.02688E+02 -7.68610E+02  8.27823E+02 -1.85812E+02  1.85538E+03  1.39438E+02  3.08229E+02  1.24369E+03
 -7.73126E+02  2.62051E+02 -1.09506E+03 -5.07155E+02  6.69711E+02 -9.70403E+02  2.17810E+03 -1.52755E+03
  2.14535E+03  2.11396E+02  3.21018E+03  1.50256E+03  1.35618E+03  2.34008E+03 -2.17852E+02  2.47699E+03
 -1.72308E+03  3.90286E+02 -1.88597E+03 -2.67767E+02 -1.20083E+03 -1.84310E+03  6.43675E+02 -1.00599E+03
  1.90272E+03 -7.16443E+02  9.21629E+02  7.57990E+02  4.12121E+02  1.69416E+03  3.41760E+02  1.07728E+03
 -4.64696E+02  1.00122E+03 -6.16651E+02  2.02453E+02 -2.09414E+02  4.39778E+02 -7.83154E+02  5.38775E+02
 -5.67792E+02  1.24031E+03 -2.04606E+03  5.28919E+02 -2.36868E+03  5.38443E+01 -3.39368E+03 -1.47795E+03
 -1.77055E+03 -2.87784E+03  7.50506E+02 -3.66236E+03  1.57136E+03 -3.06467E+03  3.45496E+03 -1.08894E+03
  3.21447E+03 -7.64860E+01  1.61692E+03  2.29327E+03 -5.00833E+02  1.94755E+03 -8.01730E+02  1.85891E+03
 -1.18416E+03  8.43034E+02 -7.53924E+02 -3.04250E+02 -5.01042E+02  1.44832E+02 -4.11916E+02 -6.76252E+01
 -1.15356E+03  7.08963E+01 -8.93353E+02  4.86896E+01  3.05104E+02 -6.64532E+02 -3.90214E+02 -1.11708E+03
  1.36701E+03 -6.68961E+02  8.46755E+02  6.23313E+01  1.65345E+03  1.10975E+03 -4.06507E+02  1.93079E+03
 -1.30481E+03  2.67415E+03 -2.24547E+03  1.62483E+03 -2.34896E+03 -3.15135E+02 -1.66193E+03 -1.58956E+03
 -1.14457E+03 -2.19338E+03  6.67306E+02 -1.55157E+03  1.07855E+03 -9.65980E+02  1.15121E+03  1.86270E+02
  7.09606E+02  4.91625E+02 -1.58565E+02  7.41907E+02 -4.26410E+02  1.26637E+02 -1.50471E+02 -8.01289E+02
  6.80853E+02 -3.88851E+01  6.33516E+02  7.18520E+02  2.69906E+02  9.95397E+02  2.79343E+02  6.27549E+02
 -6.73203E+02  9.82281E+02 -6.23306E+02  3.15168E+02 -1.01768E+03 -7.51733E+02  5.85923E+01 -1.66884E+03
  8.41274E+02 -1.18683E+03  1.20060E+03 -2.52340E+02  1.39119E+03 -5.00515E+02  6.10878E+02  9.82083E+02
  3.89458E+02  1.10367E+03 -5.06298E+02  7.17198E+02 -6.63854E+02  6.13397E+02 -4.26799E+02  1.49524E+02
 -4.00321E+02  2.12832E+02 -8.30750E+02  3.59319E+02 -6.56785E+02  1.79859E+02 -1.24911E+03 -2.23374E+02
 -1.44398E+03  1.05334E+00 -5.02997E+02 -1.12439E+03  8.40035E+02 -1.79481E+03  8.95392E+02 -4.00907E+02
  1.20978E+03  1.67424E+02  1.87956E+02  5.08790E+02  1.13427E+02  1.23994E+03 -7.85699E+02  1.17840E+03
