 $NMID ID='MM_0lb_SNR800_9hz_g60_56.RAW', FMTDAT='(8E13.5)'
 TRAMP=1., VOLUME=1. $END
  3.09047E+05  3.08692E+02  3.37978E+05  2.50872E+05  8.46821E+04  3.38674E+05 -1.32671E+05  2.51899E+05
 -1.90923E+05  8.37603E+04 -1.13054E+05 -3.24244E+04  1.89001E+02 -5.08938E+04  5.35160E+04 -8.21267E+02
  3.56698E+04  5.28590E+04 -1.67578E+04  7.57251E+04 -6.14566E+04  6.46311E+04 -8.55327E+04  3.25405E+04
 -8.25029E+04 -1.19203E+04 -5.85283E+04 -5.25962E+04 -1.50877E+04 -7.11832E+04  2.86118E+04 -4.69842E+04
  4.13547E+04  3.57757E+03  1.68119E+04  4.87041E+04 -3.51793E+04  4.83414E+04 -6.86087E+04  2.47753E+02
 -5.54521E+04 -5.80091E+04 -7.31583E+03 -7.94082E+04  3.52211E+04 -5.73775E+04  5.00490E+04 -1.88677E+04
  4.55692E+04  1.18138E+04  3.34873E+04  2.65879E+04  1.62005E+04  3.12088E+04 -5.44801E+03  2.82259E+04
 -2.27025E+04  1.20822E+04 -1.79054E+04 -6.23174E+03  7.36234E+03 -7.43041E+03  2.40185E+04  1.43393E+04
  7.39789E+03  3.77807E+04 -3.45420E+04  3.71059E+04 -6.64768E+04  2.58786E+03 -5.93673E+04 -4.49468E+04
 -1.27825E+04 -6.67946E+04  4.16841E+04 -4.77292E+04  6.18142E+04 -2.47834E+03  3.72546E+04  3.51546E+04
 -5.70039E+03  4.03795E+04 -3.22926E+04  1.92530E+04 -3.38435E+04 -3.41211E+03 -1.95183E+04 -1.18820E+04
 -9.89031E+03 -1.54420E+04 -6.13421E+02 -2.03157E+04  8.85771E+03 -2.37605E+04  1.61528E+04 -1.26291E+04
  1.01984E+04  6.40275E+03 -1.09685E+04  1.26035E+04 -2.39475E+04 -7.42384E+03 -8.75625E+03 -3.80390E+04
  2.51944E+04 -4.76243E+04  5.29515E+04 -2.12013E+04  4.94500E+04  2.11563E+04  1.79304E+04  4.77719E+04
 -1.67933E+04  3.66988E+04 -2.81255E+04  2.87576E+03 -1.19147E+04 -2.98124E+04  2.20912E+04 -3.75938E+04
  4.54875E+04 -1.16257E+04  4.15515E+04  2.51555E+04  2.18322E+04  5.18187E+04 -8.46070E+03  5.72520E+04
 -3.59529E+04  3.93458E+04 -4.84457E+04  1.11846E+04 -4.87482E+04 -1.93997E+04 -2.63417E+04 -4.32836E+04
  8.05766E+03 -4.28404E+04  3.46660E+04 -1.75840E+04  3.28465E+04  1.06776E+04  5.54220E+03  2.11018E+04
 -1.40905E+04  9.95924E+03 -1.13077E+04 -7.70954E+03  5.77948E+03 -1.19980E+04  1.94127E+04  5.78257E+03
  1.51482E+04  2.32136E+04 -5.30680E+03  2.74180E+04 -2.33222E+04  1.47486E+04 -3.24203E+04 -2.44713E+03
 -2.68343E+04 -1.91006E+04 -1.25627E+04 -2.62890E+04  4.64610E+03 -2.71570E+04  2.11563E+04 -2.41129E+04
  3.35833E+04 -1.47002E+04  3.94371E+04  5.41857E+03  2.76725E+04  2.55970E+04  4.32372E+03  4.22809E+04
 -2.02588E+04  3.48517E+04 -3.13235E+04  1.18691E+04 -2.22553E+04 -1.02057E+04 -5.09309E+03 -1.28872E+04
  4.53259E+02 -6.48162E+02 -8.01790E+03  8.54541E+03 -2.10864E+04  4.87491E+03 -2.08044E+04 -1.00725E+04
 -1.22036E+04 -2.41624E+04  6.33274E+03 -2.88453E+04  1.92144E+04 -2.04414E+04  2.34419E+04 -1.79136E+03
  1.54862E+04  1.71790E+04 -1.13871E+03  2.39317E+04 -1.71789E+04  1.42261E+04 -2.45796E+04 -5.11221E+03
 -1.78657E+04 -2.15785E+04 -2.30308E+03 -2.90126E+04  1.31275E+04 -2.45767E+04  2.43409E+04 -1.29902E+04
  2.27795E+04 -5.20630E+01  1.67978E+04  5.26994E+03  9.03786E+03  1.89761E+03  1.30129E+04 -2.25783E+03
  2.30118E+04  3.23497E+03  2.69342E+04  1.87935E+04  1.78414E+04  3.88832E+04 -2.63781E+03  4.62790E+04
 -2.65545E+04  3.88061E+04 -4.45605E+04  2.04119E+04 -4.66278E+04 -3.58812E+03 -3.80768E+04 -2.74715E+04
 -1.44650E+04 -3.89990E+04  1.39021E+04 -3.40224E+04  2.91400E+04 -1.54997E+04  2.51368E+04  8.19098E+03
  8.12789E+03  1.97151E+04 -1.20443E+04  1.64311E+04 -2.07200E+04  2.64774E+03 -1.58857E+04 -1.37784E+04
 -4.80715E+02 -2.01037E+04  1.11173E+04 -1.49976E+04  1.42285E+04 -1.33489E+03  3.77885E+03  9.17356E+03
 -9.35809E+03  4.98749E+03 -9.60777E+03 -7.39180E+03 -2.07026E+03 -1.87986E+04  1.23654E+04 -2.07936E+04
  2.44194E+04 -1.22643E+04  2.77486E+04  3.24150E+03  2.42238E+04  1.98296E+04  1.12665E+04  3.10521E+04
 -6.27097E+03  3.31576E+04 -2.17357E+04  2.03304E+04 -2.38556E+04  4.05274E+03 -1.61607E+04 -6.41014E+03
 -6.92867E+03 -7.53484E+03 -7.48568E+02  1.21325E+02 -3.09317E+03  3.36607E+03 -7.82460E+03  5.54108E+03
 -1.47909E+04 -1.09417E+03 -1.54587E+04 -1.23650E+04 -6.04907E+03 -2.03136E+04  6.44879E+03 -1.64697E+04
  1.35366E+04 -6.39058E+03  9.81014E+03  4.09094E+03 -5.20927E+02  6.94370E+03 -8.20978E+03 -4.39642E+02
 -7.89208E+03 -1.04601E+04 -1.12166E+03 -1.66129E+04  9.68878E+03 -1.72171E+04  2.14715E+04 -9.36696E+03
  2.50885E+04  2.50577E+03  1.80542E+04  1.50967E+04  3.41576E+03  2.02111E+04 -1.02012E+04  1.62444E+04
 -1.31930E+04  4.55494E+03 -7.02961E+03 -3.70822E+03  2.32123E+03 -4.45887E+03  8.44856E+03 -9.63540E+02
  8.21871E+03  7.74028E+03  1.08647E+03  1.36449E+04 -9.64680E+03  1.26488E+04 -1.65486E+04  3.40676E+03
 -1.13209E+04 -8.56603E+03  3.29182E+02 -1.39588E+04  9.32630E+03 -7.47208E+03  9.87003E+03  3.82999E+03
  2.48209E+03  1.08226E+04 -8.63368E+03  1.24693E+04 -1.42894E+04  5.31016E+03 -1.51616E+04 -5.64982E+03
 -8.54546E+03 -1.69584E+04  4.06696E+03 -1.96090E+04  1.68691E+04 -1.16621E+04  1.81490E+04  2.67821E+03
  1.03961E+04  1.39753E+04 -1.32648E+03  1.64180E+04 -1.24996E+04  9.09703E+03 -1.36964E+04 -1.78617E+03
 -1.11446E+04 -1.12183E+04 -1.80097E+03 -1.27517E+04  6.72328E+03 -1.03470E+04  8.37367E+03 -3.58001E+03
  5.41304E+03  2.68402E+03 -1.28568E+03  1.95802E+03 -9.83539E+02 -3.49380E+03  3.29894E+03 -8.15479E+03
  1.25579E+04 -5.50677E+03  1.71985E+04  2.03923E+03  1.72727E+04  1.15107E+04  1.04392E+04  2.24418E+04
 -5.79059E+03  2.59726E+04 -2.10854E+04  1.85191E+04 -2.76279E+04  3.73209E+03 -2.21151E+04 -9.98402E+03
 -1.07419E+04 -1.83027E+04 -7.67818E+01 -1.54595E+04  5.74996E+03 -9.00096E+03  5.88998E+03 -5.52529E+03
  4.11197E+03 -3.40244E+03  4.21931E+03 -3.78531E+03  6.13934E+03 -4.15556E+03  9.15162E+03 -1.50162E+03
  1.13751E+04  2.41924E+03  6.32920E+03  1.01722E+04 -2.49017E+03  1.24110E+04 -1.23495E+04  9.44847E+03
 -1.58268E+04 -1.60663E+03 -1.08798E+04 -1.08755E+04 -1.49041E+03 -1.73021E+04  9.47554E+03 -1.66169E+04
  1.75896E+04 -9.44637E+03  2.07654E+04  2.65681E+03  1.43946E+04  1.52808E+04  2.21525E+03  1.90103E+04
 -8.54749E+03  1.52350E+04 -1.12425E+04  5.19540E+03 -7.75864E+03 -1.94111E+03 -3.08567E+03 -2.38436E+03
 -1.58777E+03 -9.65906E+01 -2.11618E+03  2.69980E+03 -6.59748E+03  2.24309E+03 -1.11474E+04 -1.35271E+03
 -7.99523E+03 -1.09867E+04  9.49948E+01 -1.57322E+04  9.89957E+03 -1.48319E+04  1.62025E+04 -4.62359E+03
  1.54790E+04  7.68082E+03  7.33947E+03  1.47407E+04 -3.32990E+03  1.63634E+04 -1.12965E+04  1.01493E+04
 -1.49780E+04  3.52986E+02 -1.19812E+04 -9.63801E+03 -1.07117E+03 -1.31834E+04  7.20089E+03 -1.03418E+04
  1.02065E+04 -3.23030E+03  7.12944E+03  2.67882E+03  2.84920E+03  4.94380E+03  1.42173E+03  2.06002E+03
  2.96841E+03  8.92312E+02  4.02726E+03  2.22128E+03  4.96418E+03  5.60050E+03  4.23006E+03  8.72815E+03
 -2.87997E+03  1.23617E+04 -1.10537E+04  1.23258E+04 -1.68136E+04  3.37321E+03 -1.73582E+04 -6.94637E+03
 -8.27812E+03 -1.66976E+04  2.30200E+03 -1.81154E+04  9.78794E+03 -1.14773E+04  1.32704E+04 -3.12574E+03
  1.05518E+04  6.09501E+03  2.22192E+03  9.30403E+03 -4.65662E+03  6.24702E+03 -6.95500E+03 -1.43615E+03
 -3.46153E+03 -6.94569E+03  3.53870E+03 -7.03454E+03  6.96134E+03 -3.58969E+03  6.74698E+03  1.46775E+03
  3.82249E+03  3.28294E+03  1.46413E+03  2.93787E+03 -8.92606E+02  2.06166E+03  1.56089E+03 -3.50718E+02
  2.93032E+03 -8.98947E+02  7.04290E+03  2.88033E+03  4.16266E+03  8.50961E+03 -1.22205E+03  1.18636E+04
 -8.20716E+03  7.76682E+03 -1.05880E+04  2.52602E+03 -9.61087E+03 -4.02021E+03 -3.61668E+03 -6.37879E+03
  7.98288E+02 -6.52665E+03  4.53324E+03 -2.88361E+03  3.93479E+03  3.32188E+03 -1.58762E+03  5.17521E+03
 -6.78395E+03  2.94582E+03 -7.78237E+03 -4.06883E+03 -4.67662E+03 -8.98459E+03  1.78491E+03 -9.05857E+03
  5.75466E+03 -5.52706E+03  6.67453E+03 -7.77877E+02  5.28439E+03  2.54584E+03  5.52886E+02  5.00744E+03
 -2.98281E+03  1.56098E+03 -4.03926E+03 -3.40886E+03  1.26208E+03 -6.84233E+03  8.38946E+03 -5.94512E+03
  1.03740E+04  8.60929E+02  1.06251E+04  7.15607E+03  3.51921E+03  1.11366E+04 -3.82074E+03  1.04302E+04
 -8.95927E+03  4.77260E+03 -8.88290E+03 -1.88175E+03 -4.68195E+03 -7.51739E+03  1.85483E+03 -7.35567E+03
  6.41251E+03 -2.97948E+03  5.48269E+03  2.63787E+03  2.32636E+03  5.81982E+03 -1.21816E+03  5.32830E+03
 -2.78146E+03  3.30613E+03 -2.57158E+03  1.15314E+03 -1.25689E+03  1.20445E+03 -1.66942E+03  1.95426E+03
 -3.16646E+03  4.38958E+03 -7.36465E+03  3.73953E+03 -1.09135E+04  3.96016E+02 -1.15904E+04 -7.33667E+03
 -5.96555E+03 -1.45642E+04  2.88241E+03 -1.66022E+04  1.05318E+04 -1.30215E+04  1.56601E+04 -4.95458E+03
  1.49074E+04  2.86216E+03  8.76621E+03  1.01907E+04  1.02536E+03  1.13146E+04 -4.33859E+03  8.50661E+03
 -6.26994E+03  3.09212E+03 -3.98191E+03 -1.19466E+03 -1.13967E+03 -1.39858E+03 -4.28245E+02  1.08671E+02
 -1.94097E+03 -2.01729E+02 -2.53410E+03 -3.73068E+02 -6.35502E+02 -2.95660E+03  2.94999E+02 -3.28187E+03
  5.42463E+03 -3.52135E+03  6.94745E+03 -1.12817E+02  8.48847E+03  6.04620E+03  2.36826E+03  1.12331E+04
 -5.49851E+03  1.31774E+04 -1.21899E+04  7.66763E+03 -1.43004E+04 -1.12985E+03 -1.03762E+04 -8.59995E+03
 -4.17873E+03 -1.18254E+04  3.04958E+03 -1.04904E+04  7.35211E+03 -5.93461E+03  7.24528E+03  3.15078E+02
  3.98839E+03  3.86758E+03 -6.38453E+02  3.21945E+03 -1.87723E+03 -5.61858E+02  1.48521E+02 -3.13428E+03
  3.46842E+03 -1.87210E+03  4.80163E+03  1.55494E+03  2.84840E+03  4.48697E+03  2.03496E+02  6.39511E+03
 -5.23039E+03  5.24460E+03 -7.81788E+03  3.82966E+02 -6.71885E+03 -5.40685E+03 -1.15358E+03 -9.52867E+03
  5.55448E+03 -7.81008E+03  9.01762E+03 -2.52396E+03  8.51069E+03  2.69956E+03  4.82288E+03  6.51973E+03
  1.01696E+03  7.88720E+03 -2.67311E+03  6.22162E+03 -5.17408E+03  3.24816E+03 -3.37669E+03  7.30076E+02
 -2.07713E+03  5.32263E+01 -2.38693E+03  2.30657E+02 -3.92210E+03  1.46386E+03 -5.83677E+03 -1.15330E+03
 -5.37006E+03 -4.15774E+03 -1.82390E+03 -7.69152E+03  3.78761E+03 -8.10566E+03  6.85233E+03 -3.64901E+03
  7.29865E+03  9.99583E+02  4.04531E+03  5.70290E+03 -8.92700E+02  7.83679E+03 -5.84662E+03  4.55596E+03
