 $NMID ID='MM_0lb_SNR800_9hz_g50_66.RAW', FMTDAT='(8E13.5)'
 TRAMP=1., VOLUME=1. $END
  3.09475E+05  1.58648E+02  3.38287E+05  2.50831E+05  8.50351E+04  3.38117E+05 -1.32623E+05  2.52016E+05
 -1.90768E+05  8.39953E+04 -1.12316E+05 -3.21623E+04  7.10546E+02 -5.06139E+04  5.35603E+04 -4.92030E+02
  3.54290E+04  5.25131E+04 -1.66045E+04  7.58398E+04 -6.13757E+04  6.43400E+04 -8.56165E+04  3.23497E+04
 -8.24748E+04 -1.17172E+04 -5.83766E+04 -5.22511E+04 -1.53222E+04 -7.12945E+04  2.80350E+04 -4.67105E+04
  4.13010E+04  3.59835E+03  1.68470E+04  4.85173E+04 -3.47023E+04  4.85473E+04 -6.79228E+04  1.60312E+02
 -5.48041E+04 -5.80928E+04 -7.27362E+03 -7.92109E+04  3.49462E+04 -5.69374E+04  4.98040E+04 -1.82266E+04
  4.52910E+04  1.14767E+04  3.26611E+04  2.60807E+04  1.57340E+04  3.04962E+04 -6.23450E+03  2.75840E+04
 -2.22239E+04  1.23088E+04 -1.78516E+04 -5.72912E+03  6.86244E+03 -7.36009E+03  2.38287E+04  1.38043E+04
  7.17532E+03  3.72846E+04 -3.38528E+04  3.68536E+04 -6.60015E+04  2.35647E+03 -5.87046E+04 -4.45253E+04
 -1.25314E+04 -6.56169E+04  4.13847E+04 -4.75354E+04  6.16593E+04 -1.85240E+03  3.66278E+04  3.43335E+04
 -5.71817E+03  3.94195E+04 -3.15977E+04  1.84882E+04 -3.36304E+04 -3.68602E+03 -1.95688E+04 -1.22667E+04
 -9.49311E+03 -1.51252E+04 -9.63728E+01 -1.94296E+04  7.94730E+03 -2.36129E+04  1.60073E+04 -1.21889E+04
  1.04412E+04  6.39021E+03 -1.02257E+04  1.30897E+04 -2.32095E+04 -6.82010E+03 -8.33339E+03 -3.73835E+04
  2.49633E+04 -4.69483E+04  5.22024E+04 -2.08657E+04  4.82641E+04  2.08211E+04  1.72793E+04  4.69490E+04
 -1.63402E+04  3.59656E+04 -2.73355E+04  3.15780E+03 -1.19529E+04 -2.91003E+04  2.11149E+04 -3.66915E+04
  4.47376E+04 -1.05194E+04  4.03250E+04  2.51005E+04  2.07416E+04  5.05981E+04 -8.12436E+03  5.63332E+04
 -3.54807E+04  3.84271E+04 -4.75526E+04  1.09790E+04 -4.76496E+04 -1.82933E+04 -2.61005E+04 -4.23619E+04
  7.65719E+03 -4.17384E+04  3.45151E+04 -1.70151E+04  3.21596E+04  1.10703E+04  4.84841E+03  2.09331E+04
 -1.41102E+04  9.93511E+03 -1.10173E+04 -7.73786E+03  5.30672E+03 -1.15568E+04  1.89492E+04  5.76167E+03
  1.49726E+04  2.27693E+04 -5.16217E+03  2.67423E+04 -2.28555E+04  1.41315E+04 -3.14903E+04 -2.76009E+03
 -2.52379E+04 -1.84689E+04 -1.18120E+04 -2.48657E+04  4.24773E+03 -2.58081E+04  1.98474E+04 -2.28257E+04
  3.21493E+04 -1.41630E+04  3.80322E+04  4.76344E+03  2.69031E+04  2.40006E+04  4.33717E+03  4.15873E+04
 -1.97811E+04  3.30412E+04 -3.04288E+04  1.20899E+04 -2.22321E+04 -1.02346E+04 -4.86603E+03 -1.23967E+04
  7.89365E+02 -1.09736E+03 -7.63113E+03  8.56377E+03 -2.01134E+04  5.15050E+03 -2.01907E+04 -9.66203E+03
 -1.17642E+04 -2.32639E+04  6.13844E+03 -2.78557E+04  1.87674E+04 -1.98967E+04  2.25359E+04 -1.65123E+03
  1.43147E+04  1.59906E+04 -1.18599E+03  2.32037E+04 -1.69485E+04  1.33430E+04 -2.37128E+04 -4.77715E+03
 -1.70678E+04 -2.07330E+04 -1.88967E+03 -2.83968E+04  1.31991E+04 -2.35862E+04  2.30035E+04 -1.20344E+04
  2.20439E+04 -3.28119E+02  1.58169E+04  5.38635E+03  8.83751E+03  1.77125E+03  1.21538E+04 -1.95355E+03
  2.21756E+04  3.19038E+03  2.50179E+04  1.83812E+04  1.73283E+04  3.75037E+04 -2.59876E+03  4.41567E+04
 -2.53446E+04  3.69282E+04 -4.15939E+04  1.87686E+04 -4.47454E+04 -3.82413E+03 -3.65403E+04 -2.60760E+04
 -1.45968E+04 -3.77134E+04  1.34155E+04 -3.25972E+04  2.79084E+04 -1.54550E+04  2.44778E+04  8.28856E+03
  8.39822E+03  1.87893E+04 -1.14831E+04  1.57353E+04 -1.97935E+04  2.47393E+03 -1.52701E+04 -1.31966E+04
 -5.28266E+02 -1.95193E+04  1.02244E+04 -1.45654E+04  1.36915E+04 -1.42683E+03  3.41491E+03  8.90593E+03
 -8.73645E+03  4.11506E+03 -9.42682E+03 -6.98161E+03 -1.81265E+03 -1.84070E+04  1.19384E+04 -1.96564E+04
  2.29917E+04 -1.09200E+04  2.67168E+04  3.18484E+03  2.30463E+04  1.88298E+04  1.04908E+04  2.87408E+04
 -5.70871E+03  3.08136E+04 -2.04972E+04  1.93547E+04 -2.27031E+04  3.70102E+03 -1.53102E+04 -5.76676E+03
 -6.89579E+03 -7.05394E+03 -9.39537E+01  5.28424E+02 -3.31348E+03  3.21762E+03 -7.13553E+03  5.41809E+03
 -1.40362E+04 -1.03270E+03 -1.46136E+04 -1.18470E+04 -6.08058E+03 -1.95981E+04  6.23990E+03 -1.54927E+04
  1.28330E+04 -6.23630E+03  8.72128E+03  4.30844E+03  5.08123E+01  5.93577E+03 -7.87850E+03 -3.81399E+01
 -7.46226E+03 -9.76370E+03 -1.51346E+03 -1.56772E+04  9.25764E+03 -1.65859E+04  2.01792E+04 -8.76797E+03
  2.33937E+04  2.51368E+03  1.71760E+04  1.42351E+04  3.62967E+03  1.90012E+04 -9.48155E+03  1.56428E+04
 -1.26461E+04  4.40195E+03 -6.25020E+03 -3.72950E+03  2.12857E+03 -4.71920E+03  8.01208E+03 -9.19398E+02
  7.58415E+03  7.34031E+03  1.23185E+03  1.28166E+04 -9.21884E+03  1.20644E+04 -1.58029E+04  3.11117E+03
 -1.09685E+04 -8.45585E+03 -5.36762E+01 -1.33065E+04  9.01660E+03 -6.86063E+03  9.72971E+03  3.46876E+03
  2.13941E+03  1.01771E+04 -8.35310E+03  1.14408E+04 -1.34426E+04  5.32676E+03 -1.41286E+04 -4.77006E+03
 -7.70943E+03 -1.57177E+04  4.22742E+03 -1.78894E+04  1.53883E+04 -1.07621E+04  1.67825E+04  2.74232E+03
  1.01205E+04  1.34781E+04 -1.62436E+03  1.59473E+04 -1.16583E+04  8.58411E+03 -1.27842E+04 -1.51803E+03
 -1.05178E+04 -1.05583E+04 -2.09674E+03 -1.18713E+04  6.28850E+03 -9.74865E+03  7.61316E+03 -3.74013E+03
  4.93020E+03  1.90312E+03 -1.05859E+03  1.86803E+03 -9.42812E+02 -3.80317E+03  2.48032E+03 -7.33111E+03
  1.13119E+04 -5.28264E+03  1.65411E+04  1.63246E+03  1.58440E+04  1.09651E+04  1.00394E+04  2.09264E+04
 -5.28989E+03  2.40129E+04 -1.97267E+04  1.75796E+04 -2.61903E+04  3.57915E+03 -2.07857E+04 -9.20986E+03
 -1.00760E+04 -1.72877E+04 -2.63757E+02 -1.46086E+04  5.46378E+03 -8.18560E+03  5.10718E+03 -4.80692E+03
  3.90463E+03 -3.19461E+03  3.63719E+03 -4.20058E+03  5.89811E+03 -3.48982E+03  7.93797E+03 -1.64202E+03
  1.06207E+04  2.48361E+03  5.98617E+03  9.45367E+03 -2.03610E+03  1.10726E+04 -1.15367E+04  8.91433E+03
 -1.50387E+04 -1.62587E+03 -8.99659E+03 -1.04059E+04 -1.40677E+03 -1.58856E+04  8.44779E+03 -1.59397E+04
  1.62313E+04 -9.07187E+03  1.93116E+04  2.35102E+03  1.32258E+04  1.38752E+04  2.17952E+03  1.78061E+04
 -7.78777E+03  1.45082E+04 -1.02124E+04  4.75862E+03 -7.33804E+03 -1.41754E+03 -3.15325E+03 -2.00907E+03
 -1.58134E+03 -7.69653E+01 -1.92481E+03  2.81720E+03 -6.08718E+03  2.52950E+03 -1.03382E+04 -1.57667E+03
 -7.54596E+03 -9.94764E+03 -2.54227E+01 -1.44078E+04  9.04277E+03 -1.38081E+04  1.42577E+04 -4.37702E+03
  1.43285E+04  7.33966E+03  6.67850E+03  1.34808E+04 -3.50576E+03  1.50241E+04 -1.08374E+04  9.75216E+03
 -1.40606E+04  1.62694E+02 -1.06078E+04 -9.00757E+03 -1.13513E+03 -1.25793E+04  6.23554E+03 -9.31189E+03
  9.20751E+03 -3.16555E+03  6.19116E+03  2.58860E+03  2.46490E+03  4.55483E+03  1.58717E+03  1.84175E+03
  3.02609E+03  1.31478E+03  3.48948E+03  1.96786E+03  4.69124E+03  5.31093E+03  4.01057E+03  8.09724E+03
 -2.86990E+03  1.21348E+04 -1.08622E+04  1.16039E+04 -1.54178E+04  2.98947E+03 -1.61915E+04 -6.19959E+03
 -7.73715E+03 -1.52671E+04  2.69511E+03 -1.67260E+04  9.45201E+03 -1.04326E+04  1.21414E+04 -2.59535E+03
  9.65920E+03  5.41779E+03  2.28493E+03  8.60321E+03 -3.87020E+03  5.30118E+03 -6.12935E+03 -9.54139E+02
 -3.02471E+03 -6.57565E+03  3.13903E+03 -6.61061E+03  6.61113E+03 -3.25796E+03  6.26358E+03  1.15860E+03
  3.48868E+03  2.90096E+03  1.07278E+03  2.56568E+03 -6.73455E+02  2.19592E+03  1.33701E+03 -5.27830E+02
  2.46177E+03 -8.25907E+02  6.29182E+03  2.30635E+03  3.52740E+03  8.21097E+03 -1.58683E+03  1.08513E+04
 -7.34044E+03  7.16082E+03 -9.72154E+03  1.75054E+03 -8.49224E+03 -3.62021E+03 -3.91003E+03 -5.87401E+03
  1.00698E+03 -6.14707E+03  4.16980E+03 -3.18263E+03  3.31900E+03  2.94026E+03 -1.40221E+03  5.29385E+03
 -6.10216E+03  3.26374E+03 -7.32207E+03 -3.90212E+03 -4.22436E+03 -8.17766E+03  1.75126E+03 -8.67452E+03
  5.03932E+03 -5.25357E+03  6.36452E+03 -7.55787E+02  5.09757E+03  2.51042E+03  7.48150E+02  4.39464E+03
 -2.73858E+03  1.50794E+03 -3.77070E+03 -3.16155E+03  1.44454E+03 -6.41159E+03  7.29430E+03 -5.37920E+03
  9.60301E+03  1.05180E+03  9.55351E+03  6.27387E+03  3.33702E+03  1.02666E+04 -3.28191E+03  9.62672E+03
 -8.16816E+03  4.57525E+03 -8.13564E+03 -1.49966E+03 -4.43714E+03 -6.67922E+03  1.77178E+03 -5.88754E+03
  6.13488E+03 -2.84047E+03  5.18750E+03  2.74628E+03  1.91119E+03  5.54358E+03 -7.60661E+02  4.82200E+03
 -2.44175E+03  3.23576E+03 -1.79163E+03  8.15299E+02 -5.73367E+02  6.34961E+02 -1.65919E+03  2.37301E+03
 -2.83849E+03  3.58881E+03 -6.88396E+03  3.40711E+03 -1.02772E+04  5.20889E+02 -1.12093E+04 -6.73633E+03
 -5.62287E+03 -1.32879E+04  2.78384E+03 -1.55350E+04  9.80906E+03 -1.21763E+04  1.44697E+04 -4.49337E+03
  1.33962E+04  3.03119E+03  8.53382E+03  9.38248E+03  1.07363E+03  1.04020E+04 -4.01143E+03  7.72940E+03
 -6.12787E+03  3.01678E+03 -3.80207E+03 -1.51378E+03 -1.37846E+03 -9.05017E+02 -4.74673E+02 -1.77180E+02
 -1.65210E+03  2.45964E+02 -2.07156E+03 -4.42801E+02 -1.30909E+03 -2.35318E+03  1.67205E+02 -3.75394E+03
  4.79304E+03 -3.48428E+03  6.63848E+03 -3.47488E+01  7.57379E+03  5.62896E+03  1.62346E+03  1.04737E+04
 -4.78069E+03  1.22179E+04 -1.07158E+04  6.80100E+03 -1.27959E+04 -1.32565E+03 -9.46603E+03 -8.19985E+03
 -3.82407E+03 -1.09915E+04  2.69757E+03 -9.94059E+03  6.68673E+03 -5.51614E+03  7.07828E+03  5.45942E+02
  4.01330E+03  3.11193E+03 -2.77294E+02  2.84421E+03 -2.00804E+03 -3.11794E+02  4.04889E+01 -2.23644E+03
  3.26264E+03 -9.68105E+02  4.16047E+03  9.32482E+02  2.75161E+03  4.48997E+03  2.17074E+02  5.64716E+03
 -4.66102E+03  5.15720E+03 -7.30276E+03  6.86386E+02 -6.08063E+03 -5.23212E+03 -1.08905E+03 -9.16961E+03
  4.81698E+03 -7.53431E+03  7.83067E+03 -2.55133E+03  7.90437E+03  1.95576E+03  4.65300E+03  6.54086E+03
  9.72590E+02  7.01175E+03 -2.47488E+03  5.31387E+03 -4.69215E+03  3.14781E+03 -3.98931E+03  5.12466E+02
 -1.80633E+03  1.67640E+02 -2.60348E+03  7.58947E+02 -3.36272E+03  1.20595E+03 -5.32111E+03 -7.67760E+02
 -5.11150E+03 -3.82956E+03 -1.61513E+03 -6.97738E+03  3.40283E+03 -7.86284E+03  6.56415E+03 -3.18623E+03
  6.94063E+03  7.98637E+02  3.58784E+03  4.73009E+03 -8.02378E+02  7.24777E+03 -5.60439E+03  4.80633E+03
