 $NMID ID='MM_0lb_SNR800_10hz_g50_9.RAW', FMTDAT='(8E13.5)'
 TRAMP=1., VOLUME=1. $END
  3.10016E+05  3.33733E+02  3.37749E+05  2.50943E+05  8.47694E+04  3.38219E+05 -1.32740E+05  2.51572E+05
 -1.91069E+05  8.37156E+04 -1.12212E+05 -3.26425E+04  2.07986E+02 -5.07737E+04  5.38581E+04 -5.76196E+02
  3.51356E+04  5.30130E+04 -1.66236E+04  7.60679E+04 -6.08111E+04  6.44607E+04 -8.50226E+04  3.21693E+04
 -8.22501E+04 -1.18821E+04 -5.82599E+04 -5.19136E+04 -1.49813E+04 -7.10736E+04  2.81517E+04 -4.65456E+04
  4.09048E+04  3.80077E+03  1.67821E+04  4.82349E+04 -3.47994E+04  4.77608E+04 -6.78689E+04  4.61424E+02
 -5.47363E+04 -5.73677E+04 -7.07792E+03 -7.87520E+04  3.46670E+04 -5.65093E+04  4.92124E+04 -1.82018E+04
  4.48693E+04  1.13954E+04  3.28087E+04  2.57911E+04  1.60736E+04  3.00931E+04 -5.97331E+03  2.76068E+04
 -2.23944E+04  1.19907E+04 -1.84035E+04 -6.03411E+03  6.64631E+03 -7.54919E+03  2.31771E+04  1.35565E+04
  7.24614E+03  3.73183E+04 -3.33180E+04  3.70227E+04 -6.53925E+04  1.88903E+03 -5.84325E+04 -4.46612E+04
 -1.27413E+04 -6.51876E+04  4.09725E+04 -4.66932E+04  6.04343E+04 -2.47469E+03  3.61275E+04  3.42047E+04
 -5.89109E+03  3.85567E+04 -3.17081E+04  1.82346E+04 -3.29767E+04 -3.57371E+03 -1.87091E+04 -1.16794E+04
 -8.92795E+03 -1.47398E+04 -5.61625E+02 -1.92372E+04  8.42767E+03 -2.35259E+04  1.60796E+04 -1.27437E+04
  1.03046E+04  6.19193E+03 -9.97871E+03  1.28763E+04 -2.31349E+04 -6.34039E+03 -8.69793E+03 -3.69589E+04
  2.47375E+04 -4.62452E+04  5.14786E+04 -2.06340E+04  4.81084E+04  2.03369E+04  1.70068E+04  4.71515E+04
 -1.67160E+04  3.54734E+04 -2.73700E+04  2.53305E+03 -1.14472E+04 -2.90681E+04  2.15706E+04 -3.63705E+04
  4.38569E+04 -1.07287E+04  3.90843E+04  2.50384E+04  2.06959E+04  5.01098E+04 -8.27721E+03  5.50203E+04
 -3.45545E+04  3.73716E+04 -4.68128E+04  1.06895E+04 -4.65409E+04 -1.83501E+04 -2.58428E+04 -4.14242E+04
  7.56649E+03 -4.11578E+04  3.38125E+04 -1.67483E+04  3.16061E+04  1.14933E+04  5.17857E+03  2.07551E+04
 -1.40542E+04  9.30837E+03 -1.10984E+04 -7.24435E+03  5.61803E+03 -1.11789E+04  1.88156E+04  5.77442E+03
  1.45521E+04  2.23182E+04 -5.41687E+03  2.66841E+04 -2.31833E+04  1.36337E+04 -3.10883E+04 -3.23083E+03
 -2.41024E+04 -1.82589E+04 -1.09068E+04 -2.39861E+04  4.34016E+03 -2.47109E+04  1.94962E+04 -2.19417E+04
  3.05970E+04 -1.37946E+04  3.69960E+04  4.38127E+03  2.67018E+04  2.36316E+04  3.96606E+03  4.06188E+04
 -1.93838E+04  3.30894E+04 -2.98892E+04  1.13111E+04 -2.20186E+04 -1.04212E+04 -4.48948E+03 -1.32616E+04
  7.81966E+02 -1.57805E+03 -7.49170E+03  7.61056E+03 -1.93128E+04  5.21607E+03 -1.88247E+04 -9.03535E+03
 -1.15639E+04 -2.24710E+04  5.53719E+03 -2.67753E+04  1.79322E+04 -1.90930E+04  2.16346E+04 -1.55589E+03
  1.37663E+04  1.53423E+04 -1.08719E+03  2.22428E+04 -1.60234E+04  1.27635E+04 -2.27366E+04 -4.17246E+03
 -1.65939E+04 -1.99283E+04 -2.23469E+03 -2.73937E+04  1.21830E+04 -2.23633E+04  2.22566E+04 -1.15497E+04
  2.10924E+04 -3.21157E+02  1.55986E+04  4.87910E+03  8.14883E+03  1.07375E+03  1.18085E+04 -1.84398E+03
  2.12694E+04  2.87866E+03  2.46396E+04  1.78309E+04  1.64605E+04  3.59411E+04 -2.52772E+03  4.15165E+04
 -2.39917E+04  3.45278E+04 -4.00738E+04  1.85012E+04 -4.23183E+04 -3.21950E+03 -3.43452E+04 -2.47472E+04
 -1.43878E+04 -3.50685E+04  1.23922E+04 -3.09943E+04  2.64247E+04 -1.47515E+04  2.34388E+04  7.34764E+03
  7.58407E+03  1.77878E+04 -1.11996E+04  1.48092E+04 -1.92621E+04  2.69083E+03 -1.45210E+04 -1.18639E+04
 -3.73172E+02 -1.84674E+04  9.79335E+03 -1.41181E+04  1.20640E+04 -1.28678E+03  2.98890E+03  8.56001E+03
 -8.18519E+03  3.98100E+03 -8.49137E+03 -6.32942E+03 -1.56695E+03 -1.72892E+04  1.16288E+04 -1.86052E+04
  2.17418E+04 -1.04206E+04  2.41681E+04  3.31048E+03  2.12302E+04  1.70755E+04  9.84789E+03  2.73890E+04
 -5.16888E+03  2.95988E+04 -1.87799E+04  1.84294E+04 -2.08399E+04  4.13453E+03 -1.44500E+04 -5.33808E+03
 -6.30692E+03 -6.90634E+03 -3.32984E+02  6.30552E+02 -3.15585E+03  3.43727E+03 -6.54556E+03  5.35867E+03
 -1.31893E+04 -6.78453E+02 -1.38337E+04 -1.14663E+04 -5.78213E+03 -1.81608E+04  6.18584E+03 -1.45684E+04
  1.22709E+04 -6.28791E+03  8.53479E+03  4.25502E+03 -3.42620E+02  6.18338E+03 -7.66327E+03  1.30288E+02
 -6.68760E+03 -9.52875E+03 -1.25120E+03 -1.44097E+04  8.44640E+03 -1.50689E+04  1.87401E+04 -8.35851E+03
  2.19646E+04  1.65424E+03  1.59056E+04  1.31737E+04  3.08748E+03  1.78881E+04 -9.00842E+03  1.50077E+04
 -1.18113E+04  4.39259E+03 -6.36798E+03 -3.14347E+03  2.00669E+03 -4.46454E+03  7.52400E+03 -1.49758E+03
  6.64980E+03  6.35275E+03  1.02725E+03  1.19719E+04 -8.70275E+03  1.14146E+04 -1.49424E+04  2.70131E+03
 -1.01450E+04 -7.42897E+03  1.41309E+02 -1.24554E+04  8.10800E+03 -6.68804E+03  8.37761E+03  3.40511E+03
  2.01267E+03  9.60260E+03 -7.60060E+03  1.06382E+04 -1.21842E+04  4.72524E+03 -1.25560E+04 -4.55791E+03
 -7.58578E+03 -1.43835E+04  3.70702E+03 -1.69631E+04  1.40604E+04 -1.00580E+04  1.54724E+04  2.46609E+03
  9.25553E+03  1.19048E+04 -1.54684E+03  1.43733E+04 -1.03155E+04  8.75210E+03 -1.18792E+04 -1.25593E+03
 -9.71009E+03 -9.67794E+03 -1.73249E+03 -1.11598E+04  6.11816E+03 -8.83480E+03  7.29815E+03 -3.31449E+03
  4.74141E+03  1.90562E+03 -7.06524E+02  1.89156E+03 -5.93911E+02 -3.13479E+03  2.29345E+03 -6.31524E+03
  1.03844E+04 -4.32592E+03  1.43868E+04  1.33908E+03  1.44456E+04  9.73114E+03  9.28084E+03  1.88003E+04
 -4.69483E+03  2.21459E+04 -1.82818E+04  1.59646E+04 -2.34319E+04  3.03619E+03 -1.90724E+04 -7.98142E+03
 -9.68498E+03 -1.52545E+04 -1.82557E+02 -1.32620E+04  4.82989E+03 -7.59014E+03  4.37656E+03 -4.58005E+03
  3.37910E+03 -2.63585E+03  3.53542E+03 -3.85310E+03  5.93713E+03 -3.08325E+03  7.29417E+03 -1.31749E+03
  9.96378E+03  2.15906E+03  5.28393E+03  8.74465E+03 -2.09909E+03  1.00966E+04 -1.04724E+04  7.59498E+03
 -1.30769E+04 -1.37313E+03 -8.51427E+03 -9.17299E+03 -1.32345E+03 -1.46313E+04  7.93706E+03 -1.39786E+04
  1.47584E+04 -8.11064E+03  1.77099E+04  2.50421E+03  1.25597E+04  1.23921E+04  1.68241E+03  1.58583E+04
 -6.58455E+03  1.32648E+04 -9.17504E+03  4.31201E+03 -6.41645E+03 -1.63994E+03 -2.87805E+03 -1.78716E+03
 -1.42731E+03 -2.95623E+02 -2.16618E+03  2.68911E+03 -5.92897E+03  2.44682E+03 -9.11492E+03 -1.60776E+03
 -6.28797E+03 -9.34138E+03  6.26231E+01 -1.29882E+04  8.15768E+03 -1.26665E+04  1.30545E+04 -3.71904E+03
  1.30057E+04  6.63753E+03  6.18033E+03  1.18248E+04 -2.68465E+03  1.30678E+04 -9.65516E+03  8.24223E+03
 -1.22360E+04  5.95968E+02 -9.58542E+03 -7.92624E+03 -1.22266E+03 -1.07849E+04  5.69723E+03 -7.99901E+03
  8.24341E+03 -2.56186E+03  5.77891E+03  2.22619E+03  2.06910E+03  3.96494E+03  1.19640E+03  1.96828E+03
  2.66790E+03  8.79531E+02  3.47923E+03  1.91938E+03  3.92571E+03  4.74376E+03  3.26004E+03  6.88350E+03
 -3.06718E+03  1.02052E+04 -8.90956E+03  1.10496E+04 -1.36416E+04  2.57236E+03 -1.38012E+04 -5.84501E+03
 -6.95424E+03 -1.28102E+04  2.01687E+03 -1.45267E+04  7.92720E+03 -8.93495E+03  1.07508E+04 -2.51453E+03
  8.69952E+03  5.09660E+03  2.08073E+03  7.73574E+03 -4.03135E+03  5.04605E+03 -5.16908E+03 -7.16304E+02
 -2.54681E+03 -5.73189E+03  3.15540E+03 -5.67241E+03  5.50709E+03 -2.53580E+03  5.37391E+03  1.09726E+03
  3.33440E+03  2.50238E+03  9.43950E+02  1.94262E+03 -6.76443E+02  1.62885E+03  1.79046E+03 -7.61880E+02
  1.82535E+03 -6.81620E+02  5.28782E+03  2.03538E+03  2.86561E+03  7.04373E+03 -9.46032E+02  9.41920E+03
 -6.50676E+03  5.92673E+03 -8.59912E+03  1.66712E+03 -7.39614E+03 -2.80012E+03 -3.06237E+03 -5.34486E+03
  9.60474E+02 -4.94773E+03  3.67350E+03 -2.23545E+03  2.90594E+03  2.86063E+03 -1.59001E+03  3.83972E+03
 -5.76110E+03  2.85167E+03 -6.02215E+03 -3.54067E+03 -3.36033E+03 -6.82357E+03  1.15511E+03 -7.27374E+03
  4.26498E+03 -4.41497E+03  4.89080E+03 -1.66341E+02  4.54343E+03  1.72946E+03  3.93705E+02  3.81301E+03
 -2.67118E+03  1.08196E+03 -3.26176E+03 -2.70408E+03  1.40704E+03 -5.57019E+03  6.59031E+03 -4.22210E+03
  8.30859E+03  5.80359E+02  8.31481E+03  5.35285E+03  2.37724E+03  8.67592E+03 -3.25715E+03  8.33170E+03
 -7.31241E+03  3.62546E+03 -7.22080E+03 -1.04531E+03 -4.46733E+03 -5.33014E+03  1.46592E+03 -4.93731E+03
  5.31821E+03 -2.67409E+03  4.29626E+03  2.12350E+03  1.47272E+03  4.52390E+03 -5.08692E+02  4.31736E+03
 -2.56336E+03  2.97628E+03 -2.44338E+03  8.08247E+02 -6.93946E+02  1.12039E+03 -1.43348E+03  1.97375E+03
 -2.26409E+03  3.01530E+03 -5.93290E+03  2.90794E+03 -8.75806E+03  1.76618E+02 -9.77325E+03 -5.85514E+03
 -5.07321E+03 -1.12646E+04  2.51441E+03 -1.32611E+04  7.73863E+03 -1.01570E+04  1.21842E+04 -3.89988E+03
  1.16954E+04  2.76415E+03  7.42867E+03  7.89062E+03  6.76676E+02  8.82485E+03 -3.41204E+03  6.61314E+03
 -4.99745E+03  2.43215E+03 -2.97595E+03 -1.25069E+03 -1.22649E+03 -6.26566E+02 -5.83781E+02  1.91283E+02
 -1.32348E+03  3.15087E+02 -1.84225E+03 -5.28697E+02 -7.39305E+02 -2.02485E+03  1.22547E+02 -3.25466E+03
  4.04698E+03 -2.62834E+03  5.23404E+03  3.63794E+02  6.05243E+03  4.46257E+03  1.39509E+03  8.89308E+03
 -4.53329E+03  1.04429E+04 -9.43296E+03  5.99532E+03 -1.04020E+04 -4.77914E+02 -8.12346E+03 -6.35891E+03
 -3.21413E+03 -8.79956E+03  2.33713E+03 -8.29028E+03  5.89390E+03 -4.70619E+03  5.67176E+03  5.72355E+02
  3.16460E+03  3.04655E+03 -4.96600E+02  2.27190E+03 -1.76369E+03  1.36059E+02 -1.45022E+01 -1.87195E+03
  2.97781E+03 -7.05360E+02  3.66564E+03  9.01656E+02  2.20223E+03  3.31157E+03  3.78815E+02  4.28951E+03
 -3.92592E+03  4.03579E+03 -6.01973E+03  5.58267E+02 -5.24185E+03 -4.20405E+03 -5.58718E+02 -7.20152E+03
  3.91239E+03 -6.33742E+03  6.34684E+03 -1.73092E+03  6.68554E+03  1.39988E+03  4.21830E+03  5.23504E+03
  9.08206E+02  5.80054E+03 -2.20206E+03  4.88917E+03 -3.95577E+03  2.50405E+03 -2.70782E+03  4.77504E+02
 -1.68784E+03 -4.78659E+02 -1.52056E+03  6.07373E+02 -2.97432E+03  1.06649E+03 -4.31718E+03 -5.71194E+02
 -4.37799E+03 -3.00140E+03 -1.42631E+03 -6.11741E+03  3.18410E+03 -6.33482E+03  5.38381E+03 -2.68222E+03
  5.59888E+03  7.81656E+02  2.95350E+03  4.05476E+03 -3.52152E+02  5.94167E+03 -4.33920E+03  4.01582E+03
