 $NMID ID='MM_0lb_SNR800_12hz_g45_33.RAW', FMTDAT='(8E13.5)'
 TRAMP=1., VOLUME=1. $END
  3.10074E+05  3.78001E+02  3.37647E+05  2.50702E+05  8.48640E+04  3.38280E+05 -1.32515E+05  2.51435E+05
 -1.90646E+05  8.33773E+04 -1.11828E+05 -3.30326E+04  9.68496E+02 -5.04750E+04  5.41882E+04 -5.24902E+02
  3.57970E+04  5.30266E+04 -1.66258E+04  7.54446E+04 -6.08935E+04  6.35516E+04 -8.46371E+04  3.23501E+04
 -8.10933E+04 -1.15391E+04 -5.75365E+04 -5.15073E+04 -1.50707E+04 -6.99308E+04  2.77653E+04 -4.60585E+04
  4.04859E+04  3.44384E+03  1.60239E+04  4.78958E+04 -3.43800E+04  4.76211E+04 -6.71150E+04 -1.18634E+02
 -5.37501E+04 -5.73430E+04 -7.05998E+03 -7.75864E+04  3.43775E+04 -5.51663E+04  4.81334E+04 -1.74130E+04
  4.38726E+04  1.12755E+04  3.23976E+04  2.56972E+04  1.60776E+04  2.97299E+04 -5.31095E+03  2.74537E+04
 -2.22276E+04  1.21173E+04 -1.84656E+04 -4.96419E+03  5.96068E+03 -7.33151E+03  2.25320E+04  1.28805E+04
  7.30235E+03  3.59861E+04 -3.28183E+04  3.64200E+04 -6.43435E+04  1.99230E+03 -5.74331E+04 -4.31921E+04
 -1.26866E+04 -6.41161E+04  4.05210E+04 -4.61828E+04  5.90438E+04 -2.22082E+03  3.48936E+04  3.30843E+04
 -6.14451E+03  3.72948E+04 -3.09203E+04  1.68730E+04 -3.10446E+04 -4.34741E+03 -1.77209E+04 -1.09994E+04
 -8.56181E+03 -1.38937E+04 -3.24679E+02 -1.86439E+04  8.05392E+03 -2.32752E+04  1.56837E+04 -1.34742E+04
  1.12122E+04  5.71580E+03 -9.15873E+03  1.27332E+04 -2.17985E+04 -5.12737E+03 -8.49494E+03 -3.49479E+04
  2.34350E+04 -4.42680E+04  4.90153E+04 -1.97829E+04  4.64198E+04  1.99292E+04  1.62261E+04  4.51753E+04
 -1.58514E+04  3.43609E+04 -2.61804E+04  1.81644E+03 -1.05983E+04 -2.81130E+04  2.13978E+04 -3.48653E+04
  4.21106E+04 -9.33589E+03  3.70142E+04  2.41467E+04  1.88605E+04  4.76850E+04 -7.98434E+03  5.19800E+04
 -3.23976E+04  3.53323E+04 -4.39109E+04  9.85384E+03 -4.36521E+04 -1.70861E+04 -2.43446E+04 -3.93605E+04
  7.47202E+03 -3.88533E+04  3.24503E+04 -1.49687E+04  2.99573E+04  1.07076E+04  4.59927E+03  1.98740E+04
 -1.38597E+04  8.86061E+03 -1.06794E+04 -7.81583E+03  5.87011E+03 -1.10519E+04  1.79858E+04  6.07943E+03
  1.39231E+04  2.23557E+04 -5.85531E+03  2.55254E+04 -2.27386E+04  1.24375E+04 -2.89721E+04 -4.25715E+03
 -2.19276E+04 -1.75878E+04 -9.24329E+03 -2.14821E+04  4.27248E+03 -2.15238E+04  1.68376E+04 -1.97559E+04
  2.79079E+04 -1.28776E+04  3.42954E+04  3.59749E+03  2.49006E+04  2.13687E+04  4.25014E+03  3.76553E+04
 -1.81545E+04  3.16322E+04 -2.86459E+04  1.10551E+04 -2.14749E+04 -1.00483E+04 -4.70210E+03 -1.33551E+04
  1.48165E+03 -2.47748E+03 -5.86408E+03  7.00490E+03 -1.76699E+04  5.17386E+03 -1.73312E+04 -7.59035E+03
 -1.07483E+04 -1.99397E+04  5.42995E+03 -2.43938E+04  1.61281E+04 -1.74134E+04  1.96096E+04 -1.60480E+03
  1.21656E+04  1.40992E+04 -1.43388E+03  2.04468E+04 -1.42111E+04  1.21012E+04 -2.02139E+04 -4.42225E+03
 -1.49106E+04 -1.81816E+04 -2.05714E+03 -2.41129E+04  1.10726E+04 -2.02948E+04  2.01986E+04 -9.86148E+03
  1.91793E+04  1.20253E+02  1.37955E+04  4.69635E+03  7.17686E+03  1.34479E+03  1.02774E+04 -1.69101E+03
  1.88677E+04  2.60900E+03  2.07372E+04  1.63489E+04  1.42644E+04  3.23600E+04 -2.90109E+03  3.69379E+04
 -2.13887E+04  3.01569E+04 -3.48722E+04  1.48560E+04 -3.66970E+04 -2.48766E+03 -3.01467E+04 -2.15870E+04
 -1.25868E+04 -3.01956E+04  1.07410E+04 -2.70700E+04  2.33636E+04 -1.34889E+04  2.06108E+04  5.95838E+03
  7.44111E+03  1.56093E+04 -9.75145E+03  1.37160E+04 -1.71766E+04  2.45217E+03 -1.31267E+04 -1.08748E+04
 -2.13028E+02 -1.64610E+04  8.82890E+03 -1.20850E+04  1.13683E+04 -1.04013E+03  2.40307E+03  7.34176E+03
 -7.50162E+03  3.48844E+03 -6.65231E+03 -5.90038E+03 -7.57036E+02 -1.46804E+04  9.69667E+03 -1.57098E+04
  1.85133E+04 -8.50545E+03  2.04755E+04  2.80735E+03  1.77281E+04  1.46883E+04  8.16269E+03  2.32001E+04
 -3.64896E+03  2.49719E+04 -1.61567E+04  1.53669E+04 -1.77559E+04  3.84732E+03 -1.24412E+04 -4.15551E+03
 -5.69827E+03 -5.90426E+03 -4.51273E+02  6.69131E+02 -2.45026E+03  2.71470E+03 -5.52740E+03  4.61941E+03
 -1.16390E+04 -7.36579E+02 -1.24492E+04 -1.00681E+04 -4.60737E+03 -1.62385E+04  5.14096E+03 -1.28735E+04
  1.05402E+04 -5.15674E+03  7.25989E+03  3.25419E+03 -5.06445E+01  4.95872E+03 -5.94404E+03 -2.69133E+02
 -5.90940E+03 -7.81648E+03 -9.06124E+02 -1.18415E+04  6.82197E+03 -1.23795E+04  1.57957E+04 -6.78166E+03
  1.88268E+04  1.28025E+03  1.34195E+04  1.08648E+04  2.76656E+03  1.45544E+04 -7.99161E+03  1.25957E+04
 -1.03321E+04  3.52764E+03 -4.90833E+03 -2.61664E+03  1.64440E+03 -3.25262E+03  6.52316E+03 -1.16302E+03
  6.26569E+03  5.50637E+03  1.27673E+03  9.83897E+03 -6.97422E+03  9.55974E+03 -1.20769E+04  2.08055E+03
 -8.21414E+03 -6.22543E+03  4.32719E+02 -1.08100E+04  6.84441E+03 -5.30325E+03  6.85779E+03  2.46187E+03
  1.28642E+03  7.05876E+03 -6.30636E+03  8.42523E+03 -9.97333E+03  3.76458E+03 -9.94776E+03 -2.89644E+03
 -6.00975E+03 -1.18212E+04  3.00428E+03 -1.34082E+04  1.14456E+04 -8.16687E+03  1.21748E+04  2.09912E+03
  7.78369E+03  9.62750E+03 -9.34842E+02  1.20126E+04 -9.01603E+03  6.70703E+03 -9.59541E+03 -8.57166E+02
 -8.48829E+03 -8.21115E+03 -1.59637E+03 -9.00767E+03  4.29778E+03 -7.52864E+03  5.63058E+03 -3.06810E+03
  4.03067E+03  1.08626E+03 -3.52238E+02  1.71799E+03  2.86072E+01 -2.02343E+03  1.79508E+03 -5.06698E+03
  8.31320E+03 -3.18695E+03  1.13188E+04  1.32140E+03  1.09914E+04  7.64158E+03  7.88569E+03  1.45058E+04
 -3.28002E+03  1.71832E+04 -1.45426E+04  1.24358E+04 -1.86359E+04  2.63808E+03 -1.48794E+04 -6.25105E+03
 -7.70613E+03 -1.23290E+04 -1.51892E+02 -1.02855E+04  4.20271E+03 -5.45687E+03  3.73361E+03 -4.30537E+03
  2.84515E+03 -2.41348E+03  3.13653E+03 -3.37565E+03  4.97955E+03 -2.32961E+03  6.26977E+03 -5.79249E+02
  7.59017E+03  1.50135E+03  3.98979E+03  6.66665E+03 -1.98809E+03  7.43764E+03 -8.12334E+03  6.23618E+03
 -1.02664E+04 -9.56336E+02 -5.88210E+03 -7.06334E+03 -2.94660E+02 -1.06942E+04  6.41310E+03 -1.11987E+04
  1.12978E+04 -5.89429E+03  1.35627E+04  1.45061E+03  9.46475E+03  9.48791E+03  1.67193E+03  1.27137E+04
 -5.06940E+03  1.07862E+04 -7.16346E+03  3.68468E+03 -4.63085E+03 -1.46669E+03 -1.62351E+03 -1.21630E+03
 -1.15733E+03  2.67868E+02 -1.58125E+03  2.58028E+03 -4.53209E+03  1.69442E+03 -7.16938E+03 -1.01373E+03
 -4.68449E+03 -7.61181E+03  2.16998E+02 -1.00283E+04  6.09107E+03 -9.38340E+03  9.62858E+03 -2.60117E+03
  9.68972E+03  4.86230E+03  4.48872E+03  9.08250E+03 -1.78807E+03  1.02111E+04 -6.98794E+03  6.24913E+03
 -9.17398E+03  7.12237E+02 -7.31924E+03 -6.09712E+03 -9.72775E+02 -8.36096E+03  4.09395E+03 -5.80949E+03
  6.48443E+03 -2.12979E+03  4.11244E+03  1.68584E+03  1.14269E+03  3.46326E+03  1.32334E+03  1.10956E+03
  2.26106E+03  7.16877E+02  2.91258E+03  1.26004E+03  2.85959E+03  3.90090E+03  2.56093E+03  5.25384E+03
 -2.23899E+03  7.65300E+03 -6.64506E+03  8.48248E+03 -9.46732E+03  2.05288E+03 -1.02841E+04 -3.89340E+03
 -4.81481E+03 -9.61029E+03  1.58726E+03 -1.08849E+04  5.99602E+03 -6.89693E+03  8.03483E+03 -1.79910E+03
  6.17291E+03  3.68542E+03  1.31813E+03  5.52799E+03 -2.49384E+03  3.85119E+03 -3.76807E+03 -3.62765E+02
 -1.77975E+03 -4.19095E+03  2.46659E+03 -4.30200E+03  3.54434E+03 -2.29965E+03  3.57157E+03  1.07114E+03
  2.31612E+03  1.76503E+03  1.16697E+03  1.46893E+03 -8.26186E+02  1.71161E+03  1.61374E+03 -7.04744E+02
  1.56190E+03 -4.41076E+02  3.88527E+03  1.53688E+03  2.12674E+03  5.34872E+03 -5.58428E+02  6.80047E+03
 -4.84289E+03  4.25868E+03 -5.85046E+03  1.38295E+03 -5.16022E+03 -1.75483E+03 -1.73009E+03 -3.73024E+03
  1.00810E+03 -3.98503E+03  2.54317E+03 -2.09072E+03  2.05127E+03  2.38262E+03 -9.65316E+02  3.21769E+03
 -4.09801E+03  1.73870E+03 -4.33422E+03 -2.48637E+03 -2.37069E+03 -5.51218E+03  7.90116E+02 -4.84659E+03
  2.65139E+03 -2.73891E+03  3.39349E+03 -4.55045E+02  3.35297E+03  7.30621E+02  1.31386E+02  2.81323E+03
 -1.41180E+03  7.81822E+02 -2.36764E+03 -1.43041E+03  1.00157E+03 -3.67785E+03  4.61483E+03 -3.29210E+03
  5.35818E+03  2.82423E+02  6.02522E+03  3.80530E+03  2.05950E+03  5.93439E+03 -1.68400E+03  5.60357E+03
 -5.02064E+03  2.50903E+03 -5.07564E+03 -7.58551E+02 -2.80442E+03 -3.89394E+03  1.21470E+03 -3.35317E+03
  3.95611E+03 -1.82929E+03  2.67680E+03  1.72500E+03  8.24008E+02  3.58208E+03 -2.04138E+02  2.80153E+03
 -1.47299E+03  1.86650E+03 -1.40500E+03  6.26014E+02 -5.35847E+02  6.01203E+02 -1.13208E+03  1.22418E+03
 -1.76113E+03  2.26530E+03 -4.39472E+03  1.97207E+03 -5.95919E+03 -1.09022E+02 -6.92333E+03 -3.18408E+03
 -3.24313E+03 -7.76015E+03  1.62637E+03 -9.08796E+03  4.89082E+03 -7.06744E+03  8.37889E+03 -2.43584E+03
  8.03197E+03  1.66673E+03  4.72667E+03  5.28021E+03 -2.70510E+01  5.78215E+03 -2.67470E+03  4.23159E+03
 -3.21009E+03  1.93094E+03 -1.88173E+03 -4.87873E+02 -9.12828E+02 -3.90173E+02 -6.08672E+02 -1.67993E+02
 -1.59174E+03  1.30018E+02 -1.36965E+03 -2.60154E+02 -3.50495E+02 -1.60658E+03 -3.36840E+02 -2.31780E+03
  2.90408E+03 -1.74585E+03  3.30737E+03  3.57851E+01  4.04970E+03  3.50756E+03  9.25456E+02  5.71151E+03
 -2.66777E+03  7.05353E+03 -6.16987E+03  4.38411E+03 -6.97084E+03 -2.19865E+02 -5.49931E+03 -4.15712E+03
 -2.67288E+03 -5.73480E+03  1.49005E+03 -5.40228E+03  3.73648E+03 -2.98257E+03  3.38336E+03  2.51877E+02
  2.26847E+03  2.15986E+03 -1.43959E+02  1.58260E+03 -1.29186E+03 -3.01170E+02 -3.03717E+02 -1.16030E+03
  1.75262E+03 -7.84714E+02  2.29903E+03  7.46042E+02  1.35759E+03  2.39698E+03  2.97749E+02  2.72373E+03
 -2.44005E+03  2.89265E+03 -3.20721E+03  3.69320E+02 -3.25071E+03 -2.78246E+03 -5.49281E+02 -4.69566E+03
  2.74184E+03 -3.60501E+03  4.49824E+03 -1.25571E+03  4.46117E+03  8.25109E+02  2.50391E+03  3.63378E+03
  3.59216E+02  3.24774E+03 -1.36456E+03  2.67718E+03 -2.21689E+03  1.81239E+03 -1.79623E+03  8.09512E+01
 -1.28351E+03  4.67844E+00 -1.35435E+03  3.85377E+02 -2.07712E+03  6.37233E+02 -2.97302E+03 -4.62396E+02
 -3.02190E+03 -1.90450E+03 -7.68294E+02 -3.69208E+03  2.02391E+03 -4.27084E+03  3.54736E+03 -1.83798E+03
  3.69525E+03  4.67195E+02  1.30950E+03  2.39129E+03 -3.36440E+02  3.56563E+03 -2.73825E+03  2.37035E+03
