 $NMID ID='MM_0lb_SNR800_8hz_g50_17.RAW', FMTDAT='(8E13.5)'
 TRAMP=1., VOLUME=1. $END
  3.09740E+05 -2.44801E+02  3.38188E+05  2.50900E+05  8.50002E+04  3.38573E+05 -1.32822E+05  2.51726E+05
 -1.90909E+05  8.38759E+04 -1.12872E+05 -3.22569E+04 -7.84512E+01 -5.11490E+04  5.35240E+04 -5.92276E+02
  3.56637E+04  5.28024E+04 -1.66920E+04  7.60885E+04 -6.16312E+04  6.44583E+04 -8.56397E+04  3.26858E+04
 -8.26506E+04 -1.20537E+04 -5.82321E+04 -5.22687E+04 -1.47413E+04 -7.14741E+04  2.80695E+04 -4.65961E+04
  4.13978E+04  3.36767E+03  1.64622E+04  4.89855E+04 -3.44980E+04  4.82458E+04 -6.85585E+04  3.83220E+02
 -5.51679E+04 -5.80326E+04 -7.26067E+03 -7.88376E+04  3.48411E+04 -5.74530E+04  5.03446E+04 -1.91965E+04
  4.58822E+04  1.15933E+04  3.31849E+04  2.63600E+04  1.57268E+04  3.11650E+04 -6.36425E+03  2.78336E+04
 -2.22386E+04  1.13465E+04 -1.77207E+04 -5.98531E+03  6.95559E+03 -7.69214E+03  2.39014E+04  1.40998E+04
  7.13555E+03  3.76835E+04 -3.39784E+04  3.69939E+04 -6.61751E+04  1.81561E+03 -5.94198E+04 -4.46832E+04
 -1.25584E+04 -6.64633E+04  4.22567E+04 -4.78053E+04  6.17798E+04 -2.63934E+03  3.72761E+04  3.46423E+04
 -5.02208E+03  4.02796E+04 -3.18834E+04  1.91945E+04 -3.43050E+04 -3.35947E+03 -1.96522E+04 -1.21472E+04
 -9.85103E+03 -1.52778E+04 -7.49106E+02 -2.02792E+04  8.57205E+03 -2.33851E+04  1.60478E+04 -1.21421E+04
  1.01965E+04  6.83312E+03 -1.08656E+04  1.26440E+04 -2.40084E+04 -6.86231E+03 -8.39574E+03 -3.78205E+04
  2.58376E+04 -4.75694E+04  5.26363E+04 -2.16586E+04  4.98054E+04  2.09595E+04  1.80917E+04  4.76708E+04
 -1.67746E+04  3.70267E+04 -2.81398E+04  2.90357E+03 -1.21467E+04 -2.97062E+04  2.17228E+04 -3.70800E+04
  4.53079E+04 -1.16146E+04  4.12514E+04  2.50478E+04  2.20718E+04  5.21627E+04 -8.76284E+03  5.69516E+04
 -3.62359E+04  3.92616E+04 -4.86816E+04  1.12002E+04 -4.88404E+04 -1.89878E+04 -2.68516E+04 -4.33861E+04
  7.63148E+03 -4.29848E+04  3.48309E+04 -1.78432E+04  3.26563E+04  1.10985E+04  5.99105E+03  2.13296E+04
 -1.41832E+04  9.88829E+03 -1.15713E+04 -7.69080E+03  5.89453E+03 -1.15043E+04  1.90968E+04  5.37320E+03
  1.58003E+04  2.26868E+04 -4.99715E+03  2.76459E+04 -2.41886E+04  1.44668E+04 -3.24881E+04 -2.83400E+03
 -2.62783E+04 -1.89979E+04 -1.25050E+04 -2.60452E+04  4.33753E+03 -2.72902E+04  2.08529E+04 -2.38196E+04
  3.34856E+04 -1.44279E+04  3.93098E+04  5.27636E+03  2.77609E+04  2.57625E+04  4.48323E+03  4.28600E+04
 -1.99794E+04  3.46713E+04 -3.14162E+04  1.19216E+04 -2.27793E+04 -1.03070E+04 -5.30449E+03 -1.31186E+04
  3.96971E+02 -5.61101E+02 -7.85197E+03  8.73670E+03 -2.10836E+04  5.07113E+03 -2.05812E+04 -1.01337E+04
 -1.19389E+04 -2.42283E+04  6.55472E+03 -2.84917E+04  1.99638E+04 -2.04651E+04  2.33957E+04 -1.62918E+03
  1.54690E+04  1.63240E+04 -1.47469E+03  2.39955E+04 -1.69399E+04  1.45881E+04 -2.42645E+04 -5.26163E+03
 -1.74390E+04 -2.17035E+04 -2.50611E+03 -2.91191E+04  1.31884E+04 -2.39118E+04  2.37527E+04 -1.28565E+04
  2.28457E+04 -4.62183E+02  1.67184E+04  5.15159E+03  9.06262E+03  1.40697E+03  1.30023E+04 -2.04484E+03
  2.29368E+04  2.96994E+03  2.67931E+04  1.85493E+04  1.85187E+04  3.93085E+04 -2.49603E+03  4.65392E+04
 -2.60354E+04  3.87212E+04 -4.38262E+04  2.04875E+04 -4.69438E+04 -3.47283E+03 -3.79369E+04 -2.75285E+04
 -1.48257E+04 -3.92356E+04  1.42365E+04 -3.42737E+04  2.96707E+04 -1.59054E+04  2.59146E+04  8.70451E+03
  8.21342E+03  1.96889E+04 -1.17475E+04  1.64375E+04 -2.10877E+04  2.96626E+03 -1.61043E+04 -1.34975E+04
 -4.64479E+02 -2.02057E+04  1.06883E+04 -1.49687E+04  1.41297E+04 -1.18093E+03  3.62200E+03  9.18138E+03
 -9.03935E+03  4.61624E+03 -9.91163E+03 -7.13777E+03 -2.02749E+03 -1.87740E+04  1.23326E+04 -2.11807E+04
  2.43098E+04 -1.24655E+04  2.77268E+04  3.38052E+03  2.48088E+04  1.95532E+04  1.14234E+04  3.09804E+04
 -6.15543E+03  3.29846E+04 -2.19370E+04  2.05341E+04 -2.40781E+04  4.34998E+03 -1.63750E+04 -6.64816E+03
 -6.65384E+03 -8.14370E+03 -1.14508E+03  3.91595E+02 -3.34513E+03  4.14279E+03 -7.59919E+03  6.04569E+03
 -1.49385E+04 -8.03354E+02 -1.57084E+04 -1.25427E+04 -6.28803E+03 -2.05868E+04  7.01138E+03 -1.64748E+04
  1.42770E+04 -6.85059E+03  9.80201E+03  4.35106E+03 -9.37963E+02  6.31016E+03 -8.65909E+03  8.86795E+01
 -8.23240E+03 -1.07161E+04 -1.32269E+03 -1.69414E+04  1.00910E+04 -1.75857E+04  2.18037E+04 -9.47431E+03
  2.49728E+04  2.88511E+03  1.80638E+04  1.53483E+04  4.27993E+03  2.04198E+04 -1.01417E+04  1.65928E+04
 -1.30499E+04  4.61118E+03 -6.90227E+03 -3.76663E+03  2.54844E+03 -4.95661E+03  8.57782E+03 -1.56878E+03
  8.01214E+03  7.43162E+03  1.24664E+03  1.33619E+04 -9.74835E+03  1.24966E+04 -1.67378E+04  2.79511E+03
 -1.18176E+04 -9.09068E+03  2.22107E+02 -1.46664E+04  9.35560E+03 -7.83187E+03  1.02309E+04  3.60458E+03
  2.58732E+03  1.08414E+04 -8.82116E+03  1.28796E+04 -1.47993E+04  6.01624E+03 -1.56266E+04 -5.67098E+03
 -8.94127E+03 -1.72828E+04  4.47607E+03 -1.94014E+04  1.69937E+04 -1.17358E+04  1.82910E+04  3.51015E+03
  1.09466E+04  1.47025E+04 -2.17704E+03  1.72291E+04 -1.26839E+04  9.26576E+03 -1.44871E+04 -1.66293E+03
 -1.14036E+04 -1.11808E+04 -1.55374E+03 -1.33343E+04  7.31304E+03 -1.01983E+04  8.46974E+03 -3.73616E+03
  5.03692E+03  2.16788E+03 -1.27503E+03  2.03365E+03 -9.25954E+02 -4.12176E+03  2.87773E+03 -8.19607E+03
  1.27429E+04 -5.20124E+03  1.81141E+04  1.62960E+03  1.70331E+04  1.21010E+04  1.07486E+04  2.27101E+04
 -5.53768E+03  2.60862E+04 -2.14781E+04  1.95341E+04 -2.84261E+04  3.71595E+03 -2.24129E+04 -1.04375E+04
 -1.17334E+04 -1.87773E+04 -4.49486E+02 -1.63540E+04  5.71888E+03 -9.81223E+03  5.81592E+03 -5.83595E+03
  4.02829E+03 -3.42294E+03  4.23930E+03 -3.99071E+03  6.26146E+03 -4.05341E+03  9.03089E+03 -1.92882E+03
  1.17896E+04  2.73428E+03  6.90441E+03  1.08146E+04 -2.43367E+03  1.25519E+04 -1.29024E+04  9.33221E+03
 -1.66724E+04 -1.56768E+03 -1.05321E+04 -1.11550E+04 -1.42720E+03 -1.78367E+04  9.90679E+03 -1.77708E+04
  1.81794E+04 -1.00462E+04  2.13619E+04  2.98238E+03  1.51252E+04  1.55868E+04  2.36208E+03  1.97866E+04
 -8.01285E+03  1.61733E+04 -1.17208E+04  6.15532E+03 -8.29827E+03 -1.98791E+03 -3.78329E+03 -2.31270E+03
 -1.59752E+03 -2.67330E+02 -2.38440E+03  3.08580E+03 -6.79472E+03  2.39024E+03 -1.10757E+04 -1.31174E+03
 -8.28830E+03 -1.13156E+04 -2.12950E+02 -1.65168E+04  1.03974E+04 -1.53420E+04  1.65625E+04 -4.70351E+03
  1.61741E+04  7.96512E+03  7.78652E+03  1.45994E+04 -3.78543E+03  1.72313E+04 -1.20507E+04  1.06779E+04
 -1.60482E+04  9.90468E+02 -1.23641E+04 -9.98433E+03 -1.14706E+03 -1.39235E+04  7.29601E+03 -1.04857E+04
  1.06217E+04 -3.02644E+03  7.91356E+03  2.56185E+03  2.86885E+03  5.32885E+03  1.43854E+03  2.38724E+03
  2.82841E+03  1.71124E+03  4.08416E+03  2.40457E+03  5.41022E+03  5.34534E+03  4.35094E+03  8.85081E+03
 -3.31791E+03  1.30316E+04 -1.19598E+04  1.28714E+04 -1.75598E+04  3.04199E+03 -1.77959E+04 -7.02230E+03
 -8.42880E+03 -1.71293E+04  2.54192E+03 -1.85611E+04  1.04668E+04 -1.21429E+04  1.39649E+04 -3.06650E+03
  1.10138E+04  5.95666E+03  2.59364E+03  9.95463E+03 -4.92802E+03  6.75242E+03 -6.40825E+03 -1.44616E+03
 -3.33425E+03 -7.54680E+03  3.67111E+03 -7.73946E+03  7.15341E+03 -3.67187E+03  6.75276E+03  1.65545E+03
  3.86951E+03  3.41061E+03  1.21913E+03  3.19776E+03 -6.82984E+02  2.42487E+03  1.92275E+03 -6.74570E+02
  2.86025E+03 -1.04886E+03  6.71426E+03  2.97844E+03  4.22502E+03  9.15560E+03 -1.52473E+03  1.22055E+04
 -8.33215E+03  8.39192E+03 -1.16457E+04  2.49887E+03 -9.76014E+03 -3.64093E+03 -3.57501E+03 -7.02108E+03
  1.09580E+03 -6.78683E+03  4.37247E+03 -3.13030E+03  4.27083E+03  3.48483E+03 -1.85035E+03  5.65988E+03
 -7.38995E+03  3.51945E+03 -8.86204E+03 -3.99252E+03 -5.03080E+03 -9.49009E+03  1.42826E+03 -9.50147E+03
  5.99543E+03 -5.97632E+03  7.11839E+03 -7.71577E+02  5.64180E+03  2.61349E+03  9.75593E+02  5.16813E+03
 -3.49747E+03  1.88328E+03 -4.33209E+03 -3.49126E+03  1.67471E+03 -7.82809E+03  8.85630E+03 -6.05025E+03
  1.13451E+04  1.05738E+03  1.07328E+04  7.69145E+03  3.33180E+03  1.19141E+04 -4.46637E+03  1.11779E+04
 -9.62804E+03  4.98996E+03 -1.02213E+04 -1.68749E+03 -5.75950E+03 -7.39210E+03  1.97046E+03 -7.48464E+03
  7.44675E+03 -3.23648E+03  6.06555E+03  3.53805E+03  2.29824E+03  6.28904E+03 -1.51454E+03  5.91425E+03
 -3.29567E+03  3.70675E+03 -3.13489E+03  1.05032E+03 -1.49488E+03  1.10102E+03 -1.94662E+03  2.30387E+03
 -3.02894E+03  4.84008E+03 -8.10273E+03  4.50351E+03 -1.14234E+04  5.17873E+02 -1.33277E+04 -7.91972E+03
 -6.96398E+03 -1.58459E+04  3.08425E+03 -1.82632E+04  1.17819E+04 -1.42168E+04  1.72533E+04 -5.30822E+03
  1.60220E+04  3.39937E+03  1.01094E+04  1.11466E+04  1.31905E+03  1.17251E+04 -5.11752E+03  8.91918E+03
 -7.05206E+03  3.27586E+03 -4.64517E+03 -1.31331E+03 -1.33495E+03 -1.54654E+03 -8.25812E+02 -1.00906E+01
 -1.77210E+03  3.44935E+02 -2.68157E+03 -6.84250E+02 -1.04145E+03 -3.26900E+03  5.28279E+02 -4.99388E+03
  5.55380E+03 -4.57317E+03  7.66748E+03  3.46545E+02  8.77480E+03  6.56579E+03  2.52092E+03  1.22963E+04
 -6.08777E+03  1.40524E+04 -1.35337E+04  8.29554E+03 -1.51310E+04 -1.14757E+03 -1.15151E+04 -9.90401E+03
 -5.19544E+03 -1.24989E+04  3.14952E+03 -1.16117E+04  8.58055E+03 -6.33279E+03  8.56852E+03  3.81197E+02
  4.90670E+03  4.31095E+03 -3.43058E+02  3.64783E+03 -2.01151E+03 -1.57696E+02  2.26190E+02 -3.17419E+03
  4.28938E+03 -2.02844E+03  5.11438E+03  1.66583E+03  3.29006E+03  4.89438E+03  1.52552E+02  6.19374E+03
 -5.39758E+03  5.79481E+03 -8.56428E+03  4.01940E+02 -7.47907E+03 -6.05368E+03 -1.27375E+03 -1.04003E+04
  5.90566E+03 -9.17293E+03  9.68928E+03 -3.38969E+03  1.01636E+04  2.88910E+03  5.82911E+03  7.85103E+03
  4.75872E+02  8.60312E+03 -3.35151E+03  6.98563E+03 -5.42285E+03  3.81430E+03 -4.81435E+03  3.57426E+02
 -2.43469E+03 -1.26120E+02 -2.37813E+03  1.06014E+03 -4.08427E+03  1.44794E+03 -6.51044E+03 -8.80672E+02
 -6.49324E+03 -4.84316E+03 -1.43287E+03 -8.56675E+03  4.17181E+03 -8.98649E+03  7.47109E+03 -4.71603E+03
  8.65762E+03  1.30024E+03  4.96675E+03  6.57152E+03 -9.03748E+02  8.67430E+03 -6.74640E+03  5.59414E+03
