 $NMID ID='MM_0lb_SNR800_19hz_g50_13.RAW', FMTDAT='(8E13.5)'
 TRAMP=1., VOLUME=1. $END
  3.09739E+05  6.90373E+02  3.37295E+05  2.50372E+05  8.43261E+04  3.37454E+05 -1.32462E+05  2.50063E+05
 -1.89837E+05  8.24799E+04 -1.11128E+05 -3.26720E+04  1.44463E+03 -5.05992E+04  5.40209E+04  9.67665E+01
  3.49648E+04  5.28753E+04 -1.69928E+04  7.46281E+04 -6.05557E+04  6.28534E+04 -8.30720E+04  3.15305E+04
 -7.98432E+04 -1.13984E+04 -5.61382E+04 -5.03281E+04 -1.49250E+04 -6.80119E+04  2.69023E+04 -4.48539E+04
  3.91431E+04  3.90476E+03  1.56567E+04  4.71298E+04 -3.42142E+04  4.63628E+04 -6.54904E+04 -4.38255E+02
 -5.22470E+04 -5.60795E+04 -6.34937E+03 -7.52913E+04  3.30794E+04 -5.33955E+04  4.65239E+04 -1.64942E+04
  4.19357E+04  1.10201E+04  3.08835E+04  2.44635E+04  1.58486E+04  2.83273E+04 -4.98617E+03  2.67921E+04
 -2.15815E+04  1.28778E+04 -1.91823E+04 -4.40646E+03  4.32259E+03 -7.65852E+03  2.12335E+04  1.10812E+04
  7.52349E+03  3.34900E+04 -3.06849E+04  3.40237E+04 -6.11209E+04  2.14861E+03 -5.55109E+04 -4.11989E+04
 -1.22021E+04 -6.08212E+04  3.82476E+04 -4.36683E+04  5.56410E+04 -1.87292E+03  3.19041E+04  3.07000E+04
 -6.29633E+03  3.32071E+04 -2.84126E+04  1.36067E+04 -2.76943E+04 -5.12925E+03 -1.46935E+04 -1.02138E+04
 -7.49103E+03 -1.16046E+04 -1.16405E+03 -1.67538E+04  6.83374E+03 -2.26663E+04  1.48869E+04 -1.37765E+04
  1.22819E+04  4.18581E+03 -6.62845E+03  1.29302E+04 -1.95518E+04 -2.53547E+03 -8.15612E+03 -3.05805E+04
  2.07236E+04 -4.06376E+04  4.48257E+04 -1.89986E+04  4.21738E+04  1.84351E+04  1.41104E+04  4.15205E+04
 -1.54823E+04  3.09241E+04 -2.33986E+04  1.26898E+03 -8.09633E+03 -2.66173E+04  2.03980E+04 -3.11824E+04
  3.80652E+04 -7.53631E+03  3.13400E+04  2.26341E+04  1.55640E+04  4.26485E+04 -7.48984E+03  4.55318E+04
 -2.85630E+04  2.99051E+04 -3.74470E+04  8.29179E+03 -3.84862E+04 -1.52242E+04 -2.16293E+04 -3.46001E+04
  7.40939E+03 -3.42780E+04  2.89612E+04 -1.28163E+04  2.67271E+04  1.06623E+04  3.04800E+03  1.76359E+04
 -1.30904E+04  7.31588E+03 -9.35699E+03 -7.88359E+03  5.82134E+03 -1.03592E+04  1.73556E+04  6.32523E+03
  1.23213E+04  2.15752E+04 -6.72396E+03  2.35326E+04 -2.15772E+04  9.49957E+03 -2.51089E+04 -6.12447E+03
 -1.65821E+04 -1.64171E+04 -5.63038E+03 -1.69405E+04  3.86798E+03 -1.46384E+04  1.26781E+04 -1.43742E+04
  2.12851E+04 -1.19967E+04  2.81395E+04  9.53220E+02  2.12185E+04  1.62447E+04  4.15779E+03  3.24088E+04
 -1.61828E+04  2.75239E+04 -2.57273E+04  9.21765E+03 -1.97583E+04 -1.03465E+04 -4.00482E+03 -1.38240E+04
  2.85777E+03 -4.01993E+03 -2.74821E+03  5.22246E+03 -1.32230E+04  5.27720E+03 -1.35754E+04 -4.87682E+03
 -8.66036E+03 -1.54997E+04  4.43271E+03 -1.93305E+04  1.24517E+04 -1.39831E+04  1.44033E+04 -1.44907E+03
  8.94596E+03  1.08345E+04 -7.39971E+02  1.53376E+04 -1.04109E+04  9.20427E+03 -1.53315E+04 -3.32921E+03
 -1.13267E+04 -1.40366E+04 -1.65904E+03 -1.89239E+04  8.58811E+03 -1.51854E+04  1.60823E+04 -7.16454E+03
  1.45578E+04  6.59767E+02  1.04403E+04  3.61723E+03  5.26976E+03  3.96921E+02  7.67749E+03 -1.44507E+03
  1.36305E+04  2.74195E+03  1.44719E+04  1.25496E+04  9.12575E+03  2.43994E+04 -3.04611E+03  2.65769E+04
 -1.57369E+04  2.02581E+04 -2.42390E+04  9.77410E+03 -2.47864E+04 -1.80273E+03 -2.12251E+04 -1.40778E+04
 -1.01412E+04 -2.02292E+04  6.55365E+03 -1.89899E+04  1.64274E+04 -1.05907E+04  1.55226E+04  4.05232E+03
  6.42749E+03  1.12750E+04 -7.25036E+03  1.04040E+04 -1.32363E+04  2.67247E+03 -1.04245E+04 -7.97440E+03
 -2.11576E+02 -1.21246E+04  6.04609E+03 -9.29771E+03  7.79857E+03 -1.33860E+03  1.31349E+03  4.78589E+03
 -5.55401E+03  1.04284E+03 -3.52343E+03 -4.54675E+03  5.74944E+02 -9.99260E+03  7.68616E+03 -9.89473E+03
  1.24220E+04 -4.54726E+03  1.18128E+04  2.66651E+03  1.00097E+04  9.32642E+03  4.85070E+03  1.38446E+04
 -1.59966E+03  1.54764E+04 -9.56932E+03  1.02841E+04 -1.08718E+04  2.82805E+03 -8.34069E+03 -1.80336E+03
 -4.76001E+03 -2.98122E+03 -1.05424E+03  1.43322E+03 -1.90355E+03  1.71893E+03 -3.67977E+03  3.52865E+03
 -7.94938E+03 -6.04480E+02 -8.56833E+03 -7.34930E+03 -3.27381E+03 -1.13721E+04  3.32975E+03 -8.26987E+03
  7.19428E+03 -3.87111E+03  5.61608E+03  2.02805E+03  4.12695E+02  2.86899E+03 -3.56250E+03 -1.70941E+02
 -3.30101E+03 -5.33513E+03 -8.95698E+02 -7.00650E+03  3.95828E+03 -7.66602E+03  9.73185E+03 -3.79711E+03
  1.14537E+04  6.41013E+02  8.59921E+03  6.08621E+03  1.78615E+03  8.14085E+03 -5.30158E+03  8.17217E+03
 -6.94954E+03  2.96202E+03 -3.43261E+03 -1.38746E+03  1.43536E+03 -1.83565E+03  4.76411E+03 -1.17695E+03
  3.90934E+03  3.19559E+03  1.11388E+03  6.21681E+03 -4.23635E+03  6.37024E+03 -7.58465E+03  1.83542E+03
 -4.74547E+03 -3.35799E+03  1.93613E+02 -6.46225E+03  3.55629E+03 -3.50872E+03  3.53328E+03  8.50877E+02
  1.53020E+02  2.97130E+03 -3.91329E+03  4.59096E+03 -4.60327E+03  2.17062E+03 -4.30796E+03 -1.18438E+03
 -2.80345E+03 -5.59309E+03  1.01161E+03 -6.86689E+03  5.65758E+03 -4.50540E+03  6.21610E+03  9.18511E+02
  4.61158E+03  4.83700E+03  3.88130E+02  6.89507E+03 -4.89888E+03  4.49686E+03 -5.12412E+03 -4.88273E+02
 -5.50808E+03 -4.95006E+03 -1.40503E+03 -4.82431E+03  2.57645E+03 -4.58734E+03  2.66653E+03 -2.91918E+03
  2.71736E+03  1.70500E+02 -3.30114E+01  1.42321E+03  9.87032E+02  4.03086E+01  2.35759E+02 -1.72791E+03
  3.66462E+03 -7.00568E+02  5.11083E+03  5.11024E+02  5.41062E+03  3.01377E+03  5.21117E+03  6.99748E+03
 -1.17335E+03  8.26725E+03 -7.51511E+03  6.31008E+03 -9.18268E+03  1.37915E+03 -7.64094E+03 -2.45826E+03
 -4.23578E+03 -6.21581E+03 -3.69148E+02 -5.07545E+03  1.91895E+03 -2.23611E+03  1.53445E+03 -2.07153E+03
  1.24610E+03 -1.43678E+03  2.28485E+03 -2.46321E+03  3.35149E+03 -1.06970E+03  3.72583E+03  4.74672E+02
  4.32290E+03  1.21600E+03  1.09698E+03  3.23146E+03 -1.30983E+03  2.76435E+03 -4.27595E+03  2.46998E+03
 -4.91040E+03 -1.22847E+03 -1.39381E+03 -3.02554E+03  3.54855E+02 -4.66515E+03  2.68797E+03 -5.12464E+03
  4.82886E+03 -3.01831E+03  6.31782E+03  1.67908E+02  4.60537E+03  3.99663E+03  1.23774E+03  5.58986E+03
 -2.02757E+03  5.76342E+03 -3.24022E+03  1.84114E+03 -2.06794E+03 -8.52180E+02 -6.56307E+02 -5.78596E+02
 -4.76374E+02  5.79729E+02 -8.06651E+02  1.87586E+03 -2.66683E+03  1.17209E+03 -3.81846E+03 -1.67280E+02
 -1.45405E+03 -3.83401E+03  8.98668E+02 -4.39134E+03  2.30171E+03 -4.15027E+03  3.18272E+03 -9.43839E+02
  3.67250E+03  2.24181E+03  1.91446E+03  3.14547E+03 -7.69935E+02  4.04875E+03 -2.39498E+03  2.63009E+03
 -3.62267E+03  7.75852E+02 -3.06099E+03 -2.35718E+03 -3.06936E+02 -3.03577E+03  1.28780E+03 -2.44087E+03
  2.65300E+03 -1.16175E+03  1.65119E+03  4.22985E+02  4.60250E+02  1.60136E+03  1.17116E+03  5.88699E+02
  1.64069E+03  5.52145E+02  7.57500E+02  7.60606E+02  1.14333E+03  2.01482E+03  1.46173E+03  1.63349E+03
 -1.19187E+03  2.59012E+03 -2.17312E+03  3.87341E+03 -2.73995E+03  1.24232E+03 -3.80176E+03 -4.46350E+02
 -1.47570E+03 -3.26196E+03  3.15630E+02 -4.37635E+03  1.69711E+03 -2.41412E+03  2.43754E+03 -8.71159E+02
  2.37696E+03  1.71556E+03  4.59085E+02  1.93592E+03 -4.61672E+02  9.75624E+02 -8.54997E+02 -1.19597E+02
 -5.67689E+02 -1.28406E+03  1.18657E+03 -1.29216E+03  1.17448E+03 -7.47368E+02  9.63953E+02  4.28892E+02
  6.66692E+02  1.06910E+02  6.39912E+02 -1.73067E+02 -3.63267E+02  7.31005E+02  1.62695E+03 -2.73668E+02
  1.23585E+02 -1.16603E+02  1.85105E+03  6.26129E+02  4.51541E+02  2.06564E+03 -3.00824E+02  2.63570E+03
 -1.48876E+03  7.42978E+02 -1.94497E+03  4.02693E+01 -2.10913E+03 -6.01920E+02 -9.52976E+01 -5.75140E+02
  5.50183E+02 -1.14899E+03  7.70325E+02 -3.90422E+02  7.39937E+02  1.09582E+03 -6.90349E+02  9.93349E+02
 -1.49371E+03  4.41153E+02 -8.90687E+02 -1.33118E+03 -6.38976E+02 -2.03294E+03 -9.44690E+01 -1.17366E+03
  1.85477E+02 -5.35315E+02  6.30626E+02  2.46365E+02  9.97524E+02 -2.22003E+02  5.07851E+02  1.01520E+03
 -3.30167E+01  1.57799E+02 -1.03264E+03 -2.05194E+02  6.34240E+02 -6.50798E+02  1.46612E+03 -9.46388E+02
  8.66051E+02  8.44275E+01  2.43289E+03  6.58364E+02  1.07966E+03  1.22182E+03 -1.71691E+02  1.78294E+03
 -1.30583E+03  1.31568E+02 -1.34883E+03 -1.82850E+02 -9.75293E+02 -9.94070E+02  2.72269E+02 -3.12138E+02
  1.55880E+03 -6.97751E+02  8.47718E+02  7.87693E+02  3.37704E+02  1.03514E+03  2.39153E+02  1.06502E+03
 -4.64183E+02  1.09196E+03 -4.35082E+02 -1.16746E+02 -1.03795E+02  3.82983E+02 -6.21420E+02  8.14038E+02
 -6.09328E+02  7.58049E+02 -1.69046E+03  3.81612E+02 -1.69815E+03  1.26153E+02 -2.44055E+03 -6.65177E+02
 -8.67487E+02 -1.77234E+03  4.24733E+02 -2.52080E+03  9.74759E+02 -2.16058E+03  2.33531E+03 -9.96178E+02
  2.15509E+03 -1.59361E+02  1.15882E+03  1.28881E+03 -6.78422E+02  1.13714E+03 -6.09249E+02  1.05483E+03
 -6.99005E+02  7.04275E+02 -3.03307E+02 -2.55570E+02 -4.50067E+02  2.06561E+02 -4.58324E+02  3.50557E+02
 -9.91489E+02  8.63944E+01 -8.09270E+02  2.04938E+02  2.25221E+02 -3.86589E+02 -3.72809E+02 -7.52106E+02
  1.02896E+03 -7.06494E+02  3.66838E+02  5.10538E+02  8.04412E+02  9.41505E+02 -4.36983E+02  1.25557E+03
 -1.19490E+03  1.85635E+03 -1.16929E+03  1.04754E+03 -1.76867E+03 -9.05399E+01 -9.87142E+02 -1.32349E+03
 -7.88903E+02 -8.99922E+02  1.82141E+01 -9.78399E+02  4.89066E+02 -4.31038E+02  6.68123E+02  1.15978E+02
  4.72603E+02  2.17137E+02  2.66052E+01  3.41808E+02 -3.15925E+02 -7.58624E+01 -9.58489E+01 -1.46199E+02
  4.99540E+02  2.53648E+02  1.86924E+02  1.53497E+02  1.93115E+01  4.34118E+02  5.17535E+02  2.99142E+02
 -4.95224E+02  5.47565E+02 -4.86333E+02  2.24115E+02 -6.38263E+02 -3.97736E+02  7.13807E+01 -8.22508E+02
  3.41191E+02 -6.89222E+02  5.43804E+02  1.23903E+02  6.95467E+02 -4.63717E+02  2.23390E+02  5.60579E+02
  2.77932E+02  6.10132E+02 -7.16721E+01  2.46894E+02 -1.33083E+02  7.02903E+02 -1.47026E+02 -2.47204E+00
  2.83612E+01 -1.30821E+02 -5.12102E+02  2.04550E+02 -6.86637E+02  1.62290E+02 -5.55411E+02 -5.59144E+01
 -9.63879E+02  4.25275E+02 -3.33747E+02 -8.57367E+02  6.12260E+02 -1.50974E+03  7.37275E+02 -2.85081E+02
  6.23263E+02 -1.69457E+01 -5.73250E+02  2.53445E+02 -3.55323E+01  9.10452E+02 -2.79121E+02  2.63043E+02
