 $NMID ID='MM_0lb_SNR800_13hz_g40_36.RAW', FMTDAT='(8E13.5)'
 TRAMP=1., VOLUME=1. $END
  3.09732E+05  4.72859E+02  3.37197E+05  2.50415E+05  8.45783E+04  3.37977E+05 -1.32332E+05  2.50945E+05
 -1.90095E+05  8.27613E+04 -1.11730E+05 -3.27022E+04  1.11263E+03 -5.03710E+04  5.33312E+04 -3.64696E+01
  3.52594E+04  5.29484E+04 -1.71543E+04  7.52276E+04 -6.09152E+04  6.35707E+04 -8.39131E+04  3.18420E+04
 -8.09082E+04 -1.12679E+04 -5.70304E+04 -5.15067E+04 -1.49397E+04 -6.95437E+04  2.75587E+04 -4.53796E+04
  4.01451E+04  3.82442E+03  1.61075E+04  4.76482E+04 -3.40949E+04  4.71114E+04 -6.66892E+04 -1.18336E+02
 -5.32325E+04 -5.66673E+04 -6.82133E+03 -7.69364E+04  3.38674E+04 -5.48593E+04  4.80458E+04 -1.73916E+04
  4.31301E+04  1.15251E+04  3.14461E+04  2.52180E+04  1.59461E+04  2.91388E+04 -5.25662E+03  2.72479E+04
 -2.22544E+04  1.26587E+04 -1.88738E+04 -4.64328E+03  5.75497E+03 -7.44153E+03  2.21645E+04  1.21015E+04
  7.17723E+03  3.53047E+04 -3.19659E+04  3.55892E+04 -6.34204E+04  2.45120E+03 -5.67628E+04 -4.26469E+04
 -1.27118E+04 -6.29334E+04  3.99400E+04 -4.52026E+04  5.80557E+04 -2.52147E+03  3.43282E+04  3.24216E+04
 -5.98970E+03  3.61944E+04 -2.98710E+04  1.60237E+04 -3.00326E+04 -4.54213E+03 -1.66027E+04 -1.06758E+04
 -8.53277E+03 -1.31915E+04 -5.51744E+02 -1.81536E+04  7.30414E+03 -2.26154E+04  1.54162E+04 -1.36094E+04
  1.13900E+04  5.03186E+03 -8.24048E+03  1.34436E+04 -2.10791E+04 -4.13818E+03 -8.51351E+03 -3.36054E+04
  2.26354E+04 -4.34465E+04  4.78048E+04 -1.97276E+04  4.51149E+04  1.96375E+04  1.55239E+04  4.40896E+04
 -1.57203E+04  3.34317E+04 -2.54090E+04  1.93263E+03 -9.55204E+03 -2.79945E+04  2.10093E+04 -3.38782E+04
  4.08266E+04 -8.96688E+03  3.52212E+04  2.36096E+04  1.81490E+04  4.66310E+04 -7.90553E+03  5.01680E+04
 -3.17275E+04  3.37854E+04 -4.16168E+04  9.61241E+03 -4.24484E+04 -1.63905E+04 -2.33061E+04 -3.77970E+04
  7.07776E+03 -3.76420E+04  3.11558E+04 -1.47640E+04  2.94558E+04  1.08915E+04  4.09965E+03  1.89921E+04
 -1.37204E+04  8.32016E+03 -1.01700E+04 -7.66247E+03  5.87974E+03 -1.04130E+04  1.79775E+04  5.83030E+03
  1.31942E+04  2.19953E+04 -5.97899E+03  2.52074E+04 -2.22808E+04  1.15389E+04 -2.80585E+04 -4.91411E+03
 -2.07338E+04 -1.72333E+04 -8.46337E+03 -2.03864E+04  4.04374E+03 -1.94845E+04  1.57027E+04 -1.87043E+04
  2.59093E+04 -1.26620E+04  3.27221E+04  2.87950E+03  2.36084E+04  2.02198E+04  4.31054E+03  3.64488E+04
 -1.76404E+04  3.05446E+04 -2.82638E+04  1.02442E+04 -2.09244E+04 -1.03409E+04 -4.43663E+03 -1.33810E+04
  1.90195E+03 -2.80224E+03 -4.71548E+03  6.29793E+03 -1.61219E+04  5.26714E+03 -1.65013E+04 -6.81804E+03
 -1.02915E+04 -1.92611E+04  5.00441E+03 -2.32989E+04  1.52493E+04 -1.69990E+04  1.80145E+04 -1.72784E+03
  1.11769E+04  1.31212E+04 -1.12323E+03  1.88737E+04 -1.28531E+04  1.09331E+04 -1.90528E+04 -3.84672E+03
 -1.40532E+04 -1.73366E+04 -2.13605E+03 -2.30096E+04  1.01330E+04 -1.88104E+04  1.92937E+04 -9.35000E+03
  1.79930E+04  4.58896E+02  1.27812E+04  4.40174E+03  6.63490E+03  5.57297E+02  9.51859E+03 -1.56492E+03
  1.74012E+04  2.65965E+03  1.94292E+04  1.54962E+04  1.28272E+04  3.01541E+04 -3.03078E+03  3.43539E+04
 -2.00017E+04  2.78073E+04 -3.21353E+04  1.38587E+04 -3.36276E+04 -2.16321E+03 -2.82446E+04 -1.94893E+04
 -1.19255E+04 -2.78371E+04  9.44201E+03 -2.50149E+04  2.15738E+04 -1.28689E+04  1.91320E+04  5.38835E+03
  7.07236E+03  1.43603E+04 -9.40703E+03  1.29515E+04 -1.64657E+04  2.58823E+03 -1.25048E+04 -1.00022E+04
 -4.17892E+02 -1.50257E+04  7.72576E+03 -1.14021E+04  1.03164E+04 -1.41243E+03  2.39509E+03  6.81576E+03
 -6.86418E+03  2.45865E+03 -6.34348E+03 -5.11859E+03 -5.14396E+02 -1.38076E+04  9.45248E+03 -1.45472E+04
  1.70550E+04 -7.51727E+03  1.82054E+04  2.74390E+03  1.57533E+04  1.29227E+04  7.19591E+03  2.10430E+04
 -3.04754E+03  2.25689E+04 -1.43621E+04  1.40482E+04 -1.60836E+04  3.60520E+03 -1.16373E+04 -3.75632E+03
 -5.42076E+03 -4.95468E+03 -6.97124E+02  8.15583E+02 -2.23531E+03  2.65367E+03 -5.03915E+03  4.51697E+03
 -1.07147E+04 -8.63966E+02 -1.14067E+04 -9.46341E+03 -4.64074E+03 -1.48830E+04  4.81120E+03 -1.18298E+04
  9.72029E+03 -4.81040E+03  6.68931E+03  3.41011E+03  3.67736E+02  4.53185E+03 -5.74123E+03 -5.56511E+02
 -5.07672E+03 -7.33804E+03 -9.64603E+02 -1.05749E+04  5.96920E+03 -1.16447E+04  1.39002E+04 -6.27078E+03
  1.68021E+04  1.53887E+03  1.20930E+04  9.87867E+03  2.95958E+03  1.28266E+04 -7.07071E+03  1.17477E+04
 -9.75469E+03  3.56532E+03 -4.95079E+03 -2.39833E+03  1.60458E+03 -3.25412E+03  6.43849E+03 -1.21666E+03
  5.36063E+03  4.89615E+03  1.15622E+03  9.41154E+03 -6.57248E+03  8.82610E+03 -1.10919E+04  2.32683E+03
 -7.19637E+03 -5.59325E+03  2.27841E+02 -9.40704E+03  6.03818E+03 -4.82401E+03  5.87590E+03  1.93389E+03
  1.10371E+03  6.36322E+03 -5.76568E+03  7.66395E+03 -8.42066E+03  3.75371E+03 -8.29994E+03 -2.58098E+03
 -5.02857E+03 -1.01706E+04  2.21461E+03 -1.17878E+04  1.01148E+04 -7.25164E+03  1.07722E+04  1.99697E+03
  7.13978E+03  8.43542E+03 -5.04213E+02  1.09881E+04 -7.84491E+03  6.10549E+03 -8.32556E+03 -7.03250E+02
 -8.10796E+03 -7.32655E+03 -1.54349E+03 -8.10973E+03  4.00073E+03 -6.89766E+03  4.93820E+03 -3.26047E+03
  3.62257E+03  1.11868E+03 -5.75221E+02  1.61268E+03 -1.16387E+02 -1.38084E+03  1.33278E+03 -4.29382E+03
  7.01735E+03 -2.66222E+03  9.83824E+03  1.25734E+03  1.02809E+04  6.55455E+03  7.39273E+03  1.32081E+04
 -2.66874E+03  1.48978E+04 -1.28069E+04  1.10342E+04 -1.67080E+04  2.05604E+03 -1.31862E+04 -5.38182E+03
 -6.45319E+03 -1.06980E+04 -1.81683E+02 -9.55380E+03  3.62823E+03 -4.83581E+03  3.12576E+03 -3.23247E+03
  2.46919E+03 -2.32950E+03  2.69790E+03 -2.74082E+03  4.41168E+03 -2.06714E+03  5.44259E+03 -2.52220E+02
  7.23260E+03  2.17283E+03  3.13906E+03  5.55851E+03 -1.69536E+03  6.51181E+03 -7.20269E+03  5.33266E+03
 -9.09640E+03 -1.12168E+03 -4.82087E+03 -6.01560E+03  2.72195E+01 -9.71781E+03  5.29841E+03 -9.33800E+03
  9.68491E+03 -5.60154E+03  1.19298E+04  1.28328E+03  8.50631E+03  8.10894E+03  1.34191E+03  1.07741E+04
 -4.09124E+03  9.35541E+03 -6.15675E+03  3.00928E+03 -4.00952E+03 -1.48666E+03 -1.21843E+03 -1.19786E+03
 -1.10819E+03  1.27257E+02 -1.60528E+03  2.50072E+03 -3.80868E+03  1.41255E+03 -6.48408E+03 -8.47518E+02
 -3.73487E+03 -6.33985E+03  8.82720E+02 -8.71603E+03  5.15805E+03 -8.00525E+03  8.09953E+03 -2.16019E+03
  7.90199E+03  4.11183E+03  3.82873E+03  7.47038E+03 -1.65046E+03  8.77257E+03 -5.62973E+03  5.02517E+03
 -7.62591E+03  4.39163E+02 -6.18519E+03 -5.05204E+03 -6.93443E+02 -6.65672E+03  3.57704E+03 -5.07820E+03
  5.16920E+03 -2.05226E+03  3.68139E+03  1.33835E+03  9.18965E+02  2.64238E+03  7.98322E+02  1.38643E+03
  2.21122E+03  7.64064E+02  2.26456E+03  1.65444E+03  2.50998E+03  3.57454E+03  2.18445E+03  3.97308E+03
 -1.96698E+03  6.09905E+03 -5.48205E+03  7.24506E+03 -8.07752E+03  1.97375E+03 -8.82254E+03 -2.87628E+03
 -3.99250E+03 -8.23543E+03  1.27091E+03 -9.54470E+03  4.60160E+03 -5.64929E+03  6.91037E+03 -1.59668E+03
  5.48090E+03  3.16470E+03  1.02957E+03  4.72800E+03 -2.09462E+03  2.95523E+03 -3.10541E+03 -4.65102E+02
 -1.36859E+03 -3.40594E+03  2.09963E+03 -3.67678E+03  2.92336E+03 -2.23961E+03  3.04564E+03  6.56044E+02
  1.84992E+03  1.68975E+03  1.18946E+03  8.67188E+02 -6.12415E+02  1.43924E+03  1.88795E+03 -5.43628E+02
  9.27190E+02 -4.43907E+02  3.35176E+03  1.70350E+03  1.74772E+03  4.67596E+03 -5.40482E+02  5.87936E+03
 -3.82302E+03  3.51590E+03 -5.12565E+03  1.12100E+03 -4.52927E+03 -1.60987E+03 -1.54126E+03 -3.11318E+03
  4.30665E+02 -3.09024E+03  2.16143E+03 -1.66826E+03  1.73605E+03  1.68681E+03 -7.87342E+02  2.92848E+03
 -3.54913E+03  1.74640E+03 -3.42624E+03 -2.30611E+03 -1.77031E+03 -4.54236E+03  5.06740E+02 -3.95597E+03
  2.25140E+03 -2.43657E+03  2.95930E+03 -6.17121E+01  2.79466E+03  9.84206E+02  3.82099E+02  2.17437E+03
 -1.61786E+03  5.34724E+02 -1.87769E+03 -1.14775E+03  8.78008E+02 -2.85551E+03  3.93656E+03 -2.90647E+03
  4.51672E+03  3.56762E+02  5.27826E+03  2.75003E+03  2.19366E+03  5.06072E+03 -1.25568E+03  4.60642E+03
 -3.86243E+03  1.53709E+03 -4.04188E+03 -1.00368E+03 -2.29117E+03 -3.33519E+03  6.76020E+02 -2.40667E+03
  3.28831E+03 -1.61345E+03  2.46262E+03  1.44948E+03  8.59362E+02  2.99149E+03 -2.79685E+02  2.57379E+03
 -1.28600E+03  1.81294E+03 -9.06072E+02  4.37822E+02 -5.55436E+02  4.40036E+02 -1.34391E+03  9.30898E+02
 -1.45338E+03  2.04654E+03 -3.80658E+03  1.57155E+03 -5.09033E+03  3.04615E+02 -5.45717E+03 -2.99309E+03
 -2.46096E+03 -6.65566E+03  1.14387E+03 -7.03009E+03  4.24156E+03 -5.79127E+03  7.10278E+03 -2.36966E+03
  6.63430E+03  1.07749E+03  3.82288E+03  4.21269E+03 -7.55014E+00  5.09455E+03 -2.06277E+03  3.97476E+03
 -2.30037E+03  1.30383E+03 -1.69792E+03 -7.65043E+02 -8.66628E+02 -3.16887E+02 -5.59557E+02 -6.22878E+01
 -1.24273E+03  1.13032E+01 -1.43209E+03  1.46124E+02 -2.87565E+02 -1.21708E+03 -4.17206E+01 -1.97794E+03
  2.56715E+03 -1.85448E+03  2.51200E+03  2.96175E+02  3.53330E+03  2.87338E+03  1.98012E+02  4.52085E+03
 -2.22759E+03  5.23886E+03 -4.78800E+03  3.10633E+03 -5.59907E+03 -5.23688E+02 -4.00741E+03 -3.62417E+03
 -2.21635E+03 -4.62533E+03  1.13093E+03 -4.21489E+03  2.94079E+03 -2.23398E+03  2.72952E+03 -1.14545E+02
  1.69673E+03  1.37972E+03  2.06807E+02  1.41902E+03 -9.77112E+02  1.75376E+02 -1.45982E+02 -9.28186E+02
  1.40651E+03 -2.59135E+02  1.03687E+03  8.67698E+02  1.02234E+03  1.84999E+03  2.37031E+01  2.27345E+03
 -1.91378E+03  1.94270E+03 -2.78762E+03  3.88052E+02 -2.35887E+03 -2.09281E+03 -5.21748E+02 -4.01525E+03
  1.95772E+03 -3.20522E+03  2.93700E+03 -8.76334E+02  3.41241E+03  3.87927E+02  2.17739E+03  2.44862E+03
  6.31532E+02  2.67922E+03 -1.44827E+03  2.37298E+03 -1.95646E+03  1.46282E+03 -1.12443E+03  2.72101E+02
 -8.16294E+02 -2.72324E+01 -1.35916E+03  3.37824E+02 -1.78750E+03  3.55133E+02 -2.24127E+03 -5.53208E+02
 -2.37662E+03 -1.20419E+03 -8.53157E+02 -3.05064E+03  1.50905E+03 -3.68737E+03  2.50843E+03 -1.46800E+03
  2.73050E+03  2.84080E+02  1.04228E+03  1.44566E+03 -2.72583E+02  3.16402E+03 -1.94068E+03  2.06757E+03
