 $NMID ID='MM_0lb_SNR800_13hz_g55_95.RAW', FMTDAT='(8E13.5)'
 TRAMP=1., VOLUME=1. $END
  3.09999E+05  5.23281E+02  3.37809E+05  2.50561E+05  8.46623E+04  3.38130E+05 -1.32585E+05  2.51515E+05
 -1.90720E+05  8.35479E+04 -1.12389E+05 -3.22353E+04  5.08076E+02 -5.06794E+04  5.34105E+04 -3.40245E+02
  3.53663E+04  5.26738E+04 -1.69026E+04  7.55606E+04 -6.07732E+04  6.38437E+04 -8.45093E+04  3.23728E+04
 -8.14727E+04 -1.18601E+04 -5.77030E+04 -5.19316E+04 -1.50420E+04 -6.99515E+04  2.78033E+04 -4.61503E+04
  4.04546E+04  3.76804E+03  1.61854E+04  4.83673E+04 -3.46605E+04  4.77595E+04 -6.71972E+04 -8.65090E+01
 -5.38160E+04 -5.75336E+04 -7.07402E+03 -7.78172E+04  3.44334E+04 -5.57529E+04  4.88245E+04 -1.75213E+04
  4.43412E+04  1.14071E+04  3.23653E+04  2.59720E+04  1.58381E+04  2.98276E+04 -5.56141E+03  2.72393E+04
 -2.22907E+04  1.21856E+04 -1.83010E+04 -5.19805E+03  6.37989E+03 -7.55870E+03  2.24925E+04  1.30399E+04
  6.91574E+03  3.60107E+04 -3.28165E+04  3.59608E+04 -6.42531E+04  2.33949E+03 -5.74597E+04 -4.34964E+04
 -1.23582E+04 -6.41766E+04  4.05620E+04 -4.62835E+04  5.95028E+04 -2.45146E+03  3.49905E+04  3.32647E+04
 -5.90098E+03  3.74928E+04 -3.05995E+04  1.70979E+04 -3.16121E+04 -3.75681E+03 -1.78762E+04 -1.15176E+04
 -8.85607E+03 -1.37230E+04 -7.16108E+02 -1.86134E+04  7.96448E+03 -2.29777E+04  1.59575E+04 -1.34186E+04
  1.11318E+04  5.36259E+03 -9.08335E+03  1.26815E+04 -2.20138E+04 -5.45267E+03 -8.60451E+03 -3.50629E+04
  2.37909E+04 -4.44814E+04  4.96560E+04 -1.99962E+04  4.62276E+04  1.98016E+04  1.61403E+04  4.50449E+04
 -1.61628E+04  3.44562E+04 -2.60099E+04  2.12693E+03 -1.05295E+04 -2.86234E+04  2.12471E+04 -3.49112E+04
  4.21365E+04 -9.69112E+03  3.73133E+04  2.40265E+04  1.89951E+04  4.81068E+04 -8.09422E+03  5.19977E+04
 -3.29480E+04  3.51781E+04 -4.36740E+04  1.03426E+04 -4.42807E+04 -1.72312E+04 -2.41307E+04 -3.94634E+04
  7.41607E+03 -3.94040E+04  3.21112E+04 -1.54021E+04  3.01443E+04  1.10745E+04  4.02266E+03  1.94709E+04
 -1.36832E+04  8.64024E+03 -1.08300E+04 -7.34615E+03  5.78251E+03 -1.11318E+04  1.85097E+04  5.66067E+03
  1.42492E+04  2.25880E+04 -5.66200E+03  2.56919E+04 -2.26561E+04  1.24613E+04 -2.89327E+04 -4.35283E+03
 -2.21859E+04 -1.77166E+04 -9.51824E+03 -2.18267E+04  4.04527E+03 -2.18702E+04  1.70086E+04 -1.96997E+04
  2.84432E+04 -1.31910E+04  3.44298E+04  3.81014E+03  2.52357E+04  2.14306E+04  4.52812E+03  3.80442E+04
 -1.87643E+04  3.15008E+04 -2.86076E+04  1.07506E+04 -2.14760E+04 -1.01700E+04 -4.42755E+03 -1.32435E+04
  1.56588E+03 -2.25892E+03 -5.86537E+03  7.43066E+03 -1.73318E+04  5.05963E+03 -1.74921E+04 -7.91833E+03
 -1.06700E+04 -2.04894E+04  5.39997E+03 -2.45872E+04  1.65900E+04 -1.76358E+04  1.96526E+04 -1.80831E+03
  1.25722E+04  1.40969E+04 -1.26205E+03  2.04479E+04 -1.43467E+04  1.13103E+04 -2.04388E+04 -4.10486E+03
 -1.50717E+04 -1.83232E+04 -1.73865E+03 -2.45415E+04  1.10156E+04 -2.03063E+04  2.05530E+04 -9.88532E+03
  1.86967E+04  9.99350E+01  1.40336E+04  4.86758E+03  7.32049E+03  7.64009E+02  1.06665E+04 -1.61772E+03
  1.90780E+04  2.85429E+03  2.12577E+04  1.58541E+04  1.39428E+04  3.24440E+04 -2.89677E+03  3.74690E+04
 -2.14483E+04  3.05217E+04 -3.51483E+04  1.54169E+04 -3.67495E+04 -2.46861E+03 -3.04277E+04 -2.16405E+04
 -1.28623E+04 -3.06103E+04  1.03744E+04 -2.70914E+04  2.35257E+04 -1.34040E+04  2.06528E+04  6.51163E+03
  7.64065E+03  1.52463E+04 -1.00252E+04  1.39992E+04 -1.75149E+04  2.52007E+03 -1.30190E+04 -1.11010E+04
  1.19464E+02 -1.67720E+04  8.63121E+03 -1.24273E+04  1.12910E+04 -1.45439E+03  2.67215E+03  7.27210E+03
 -7.42885E+03  3.18484E+03 -6.95846E+03 -5.93203E+03 -1.18473E+03 -1.47770E+04  1.04107E+04 -1.59964E+04
  1.83562E+04 -8.17602E+03  2.06265E+04  3.15973E+03  1.77037E+04  1.49812E+04  8.37206E+03  2.29349E+04
 -4.02872E+03  2.47963E+04 -1.59160E+04  1.53743E+04 -1.79887E+04  3.58443E+03 -1.28235E+04 -4.23438E+03
 -6.08899E+03 -5.58252E+03 -7.74964E+02  8.57057E+02 -2.66051E+03  2.82778E+03 -5.37178E+03  4.68873E+03
 -1.13456E+04 -7.39905E+02 -1.21453E+04 -9.88223E+03 -4.65977E+03 -1.60469E+04  4.98210E+03 -1.29666E+04
  1.05166E+04 -5.01878E+03  7.28738E+03  3.54733E+03 -3.37805E+01  4.67959E+03 -5.87351E+03 -1.97445E+02
 -5.83647E+03 -7.94352E+03 -7.81637E+02 -1.20405E+04  6.63623E+03 -1.26158E+04  1.60361E+04 -6.96266E+03
  1.82834E+04  1.59794E+03  1.33650E+04  1.09391E+04  2.97407E+03  1.48466E+04 -7.64753E+03  1.21527E+04
 -9.60929E+03  3.97183E+03 -5.49199E+03 -2.41556E+03  1.56867E+03 -3.50986E+03  6.73837E+03 -1.01223E+03
  5.88921E+03  5.27083E+03  9.42371E+02  1.01640E+04 -7.06293E+03  9.58105E+03 -1.22028E+04  2.41197E+03
 -8.14302E+03 -6.45975E+03  3.79684E+02 -1.05449E+04  6.47862E+03 -5.24877E+03  6.62199E+03  1.90861E+03
  1.30570E+03  7.28354E+03 -6.00216E+03  8.47990E+03 -9.97135E+03  3.88654E+03 -9.58235E+03 -3.20271E+03
 -5.67538E+03 -1.14898E+04  2.65897E+03 -1.28518E+04  1.13822E+04 -8.18541E+03  1.20827E+04  2.11709E+03
  7.63491E+03  9.88512E+03 -8.40396E+02  1.19656E+04 -8.44047E+03  6.83863E+03 -9.16727E+03 -1.03133E+03
 -8.56095E+03 -7.85679E+03 -1.81729E+03 -8.36781E+03  4.63147E+03 -7.44363E+03  5.41431E+03 -3.36113E+03
  3.94300E+03  1.37792E+03 -5.50750E+02  1.59302E+03 -4.01086E+02 -1.93799E+03  1.39960E+03 -5.15904E+03
  7.70265E+03 -3.04035E+03  1.08000E+04  1.51400E+03  1.09206E+04  6.93315E+03  7.77833E+03  1.45951E+04
 -3.17702E+03  1.64871E+04 -1.42492E+04  1.27987E+04 -1.80668E+04  2.55625E+03 -1.45042E+04 -5.77012E+03
 -7.15138E+03 -1.20394E+04 -2.75822E+02 -1.00693E+04  3.63969E+03 -5.75176E+03  3.58452E+03 -3.85442E+03
  2.50143E+03 -2.38430E+03  3.24131E+03 -3.30647E+03  4.80208E+03 -2.30492E+03  5.82399E+03 -4.55146E+02
  7.47226E+03  1.72777E+03  3.52621E+03  6.40694E+03 -1.70733E+03  7.19788E+03 -7.80113E+03  5.57992E+03
 -9.90150E+03 -1.18524E+03 -5.80534E+03 -6.75187E+03 -5.77462E+02 -1.05176E+04  5.74450E+03 -1.08085E+04
  1.09362E+04 -6.33159E+03  1.34678E+04  1.78397E+03  9.39769E+03  8.87564E+03  1.64309E+03  1.19167E+04
 -4.72961E+03  1.00288E+04 -6.87649E+03  3.34562E+03 -4.55141E+03 -1.29547E+03 -1.59577E+03 -1.49155E+03
 -8.35243E+02  1.44225E+02 -1.82024E+03  2.13977E+03 -4.56147E+03  1.78888E+03 -7.14996E+03 -1.14125E+03
 -4.49228E+03 -7.18542E+03  4.98234E+02 -9.53096E+03  5.87084E+03 -8.93177E+03  9.18811E+03 -2.63599E+03
  9.29636E+03  4.47641E+03  4.37499E+03  7.85672E+03 -1.76273E+03  9.73614E+03 -6.65578E+03  5.90774E+03
 -8.96214E+03  6.59008E+02 -6.94256E+03 -5.80354E+03 -6.95050E+02 -7.93343E+03  4.04246E+03 -5.65207E+03
  5.75637E+03 -2.00067E+03  3.92267E+03  1.26301E+03  1.60137E+03  3.22191E+03  1.10469E+03  1.46983E+03
  1.98006E+03  7.73984E+02  2.37977E+03  1.37013E+03  2.62347E+03  3.41241E+03  2.52475E+03  4.89649E+03
 -2.39448E+03  6.94589E+03 -6.08638E+03  7.83061E+03 -9.17240E+03  2.03384E+03 -9.66641E+03 -3.27405E+03
 -4.37450E+03 -9.43722E+03  1.75589E+03 -1.00048E+04  5.61839E+03 -6.27893E+03  7.21785E+03 -1.81551E+03
  5.51062E+03  3.67911E+03  1.28850E+03  5.04145E+03 -2.39764E+03  3.31167E+03 -3.41657E+03 -2.18376E+02
 -1.64779E+03 -3.90360E+03  2.14947E+03 -3.86919E+03  3.34227E+03 -1.85727E+03  3.32862E+03  7.76744E+02
  1.93859E+03  1.83746E+03  1.32277E+03  8.95073E+02 -3.16407E+02  1.34402E+03  1.36869E+03 -4.83381E+02
  9.82228E+02 -6.57606E+02  3.53882E+03  1.52336E+03  1.86371E+03  5.03352E+03 -9.15655E+02  6.56648E+03
 -4.28348E+03  3.61319E+03 -5.32378E+03  1.31671E+03 -5.08787E+03 -1.88081E+03 -1.54517E+03 -3.32398E+03
  6.98391E+02 -3.54177E+03  2.22005E+03 -1.55521E+03  2.11730E+03  2.19787E+03 -1.20983E+03  2.84073E+03
 -3.76767E+03  1.74579E+03 -3.94164E+03 -2.19784E+03 -2.21913E+03 -4.44303E+03  6.27828E+02 -4.78114E+03
  2.45953E+03 -2.12965E+03  3.10897E+03  6.28385E+01  2.81622E+03  9.82732E+02  4.65281E+02  2.89175E+03
 -1.48598E+03  6.47990E+02 -2.47411E+03 -1.52466E+03  1.12277E+03 -3.33240E+03  4.23178E+03 -2.65309E+03
  4.87587E+03  4.40489E+02  5.78775E+03  3.17143E+03  2.23075E+03  5.42081E+03 -1.77223E+03  5.01169E+03
 -4.29906E+03  1.99386E+03 -4.50304E+03 -6.06656E+02 -2.36203E+03 -3.57496E+03  4.10808E+02 -2.86002E+03
  3.22953E+03 -1.77579E+03  2.76535E+03  1.65548E+03  8.21704E+02  3.00647E+03 -3.26355E+02  2.87561E+03
 -1.25069E+03  1.83737E+03 -1.14464E+03  4.13925E+02 -3.26037E+02  7.56923E+02 -8.45652E+02  1.19718E+03
 -1.25063E+03  2.15491E+03 -4.24053E+03  1.75050E+03 -5.31873E+03  5.76238E+01 -6.01420E+03 -3.53601E+03
 -3.08150E+03 -6.69689E+03  1.32407E+03 -8.04129E+03  4.60995E+03 -6.30396E+03  7.51299E+03 -2.89308E+03
  6.96218E+03  1.16039E+03  3.89850E+03  4.66367E+03 -1.36403E+01  5.14982E+03 -2.46216E+03  4.14555E+03
 -2.81408E+03  1.51791E+03 -1.88617E+03 -6.16692E+02 -9.08524E+02 -5.83417E+02 -5.82672E+02 -2.81066E+02
 -1.50567E+03 -7.56988E+01 -1.26473E+03  1.87102E+01 -2.22311E+02 -1.62001E+03 -2.46146E+02 -2.37087E+03
  2.48908E+03 -2.09333E+03  2.52984E+03  2.83251E+02  3.76275E+03  2.85652E+03  4.61877E+02  4.95686E+03
 -2.72336E+03  5.94556E+03 -5.14026E+03  3.48529E+03 -6.20404E+03 -5.31335E+02 -4.58787E+03 -3.94766E+03
 -2.01819E+03 -4.72124E+03  9.44948E+02 -4.64993E+03  2.86309E+03 -2.57835E+03  2.96997E+03  4.46178E+02
  1.89139E+03  1.33658E+03  5.30247E+01  1.34297E+03 -1.28720E+03 -4.43994E+02 -6.00422E+01 -9.74809E+02
  1.81081E+03 -1.28888E+02  1.77134E+03  8.72570E+02  8.12267E+02  1.73845E+03  3.73183E+02  2.39305E+03
 -1.89573E+03  2.00543E+03 -2.85234E+03  2.96287E+02 -3.20881E+03 -2.23976E+03 -2.29303E+02 -4.11972E+03
  2.30421E+03 -3.51553E+03  3.20998E+03 -9.69663E+02  3.53620E+03  4.56556E+02  2.29474E+03  3.11568E+03
  5.04038E+02  2.86524E+03 -1.25761E+03  2.28872E+03 -1.88970E+03  1.29972E+03 -1.61715E+03  3.56952E+02
 -1.05615E+03 -1.05878E+02 -1.20423E+03  9.64556E+01 -1.39613E+03  6.80445E+02 -2.52750E+03 -5.38849E+02
 -2.62596E+03 -1.11517E+03 -9.54492E+02 -3.13458E+03  1.63391E+03 -3.98369E+03  2.62268E+03 -1.06940E+03
  3.08702E+03  1.21198E+02  8.81443E+02  1.92645E+03 -1.30267E+02  3.30272E+03 -1.86087E+03  2.17193E+03
