 $NMID ID='MM_0lb_SNR800_11hz_g40_50.RAW', FMTDAT='(8E13.5)'
 TRAMP=1., VOLUME=1. $END
  3.10213E+05  3.27216E+02  3.37620E+05  2.50375E+05  8.48674E+04  3.38010E+05 -1.32247E+05  2.51531E+05
 -1.90387E+05  8.29582E+04 -1.12166E+05 -3.25239E+04  3.60858E+02 -5.07757E+04  5.35286E+04 -4.12125E+01
  3.56348E+04  5.26995E+04 -1.69111E+04  7.57080E+04 -6.08251E+04  6.40528E+04 -8.42967E+04  3.21380E+04
 -8.17044E+04 -1.12221E+04 -5.74115E+04 -5.17888E+04 -1.50000E+04 -7.05572E+04  2.77682E+04 -4.61092E+04
  4.02862E+04  3.68170E+03  1.62289E+04  4.78513E+04 -3.43319E+04  4.77092E+04 -6.73413E+04 -1.50015E+02
 -5.38141E+04 -5.71331E+04 -6.78564E+03 -7.78028E+04  3.41416E+04 -5.58327E+04  4.86383E+04 -1.78113E+04
  4.41819E+04  1.17375E+04  3.23123E+04  2.59954E+04  1.56916E+04  2.97399E+04 -5.79421E+03  2.72794E+04
 -2.24654E+04  1.24158E+04 -1.83338E+04 -5.29793E+03  6.12933E+03 -7.39522E+03  2.28108E+04  1.28899E+04
  7.14208E+03  3.61370E+04 -3.27891E+04  3.62224E+04 -6.42966E+04  1.95706E+03 -5.79533E+04 -4.36648E+04
 -1.22003E+04 -6.43485E+04  4.04748E+04 -4.57836E+04  5.94338E+04 -1.96891E+03  3.48620E+04  3.31032E+04
 -6.15646E+03  3.73720E+04 -3.04345E+04  1.69941E+04 -3.14642E+04 -4.09406E+03 -1.74155E+04 -1.12051E+04
 -8.57218E+03 -1.39187E+04 -5.71879E+02 -1.85332E+04  7.89298E+03 -2.30955E+04  1.60067E+04 -1.27667E+04
  1.09601E+04  5.82705E+03 -9.21076E+03  1.28683E+04 -2.18215E+04 -5.38892E+03 -8.77967E+03 -3.51090E+04
  2.40174E+04 -4.44687E+04  4.95697E+04 -2.04226E+04  4.67855E+04  2.02150E+04  1.63447E+04  4.52923E+04
 -1.59991E+04  3.41490E+04 -2.65178E+04  2.00733E+03 -1.03808E+04 -2.85903E+04  2.08815E+04 -3.50537E+04
  4.26607E+04 -1.02393E+04  3.76096E+04  2.38782E+04  1.93498E+04  4.82074E+04 -8.24324E+03  5.22899E+04
 -3.31462E+04  3.57056E+04 -4.42418E+04  1.02133E+04 -4.44835E+04 -1.77206E+04 -2.45774E+04 -3.92692E+04
  7.56762E+03 -3.95478E+04  3.25900E+04 -1.56017E+04  3.04578E+04  1.09779E+04  4.63584E+03  1.98872E+04
 -1.35494E+04  8.43895E+03 -1.08134E+04 -7.37330E+03  5.84417E+03 -1.09753E+04  1.83645E+04  5.45358E+03
  1.39843E+04  2.23318E+04 -5.65705E+03  2.59046E+04 -2.24945E+04  1.22168E+04 -2.93515E+04 -3.79916E+03
 -2.26092E+04 -1.77970E+04 -9.94742E+03 -2.22834E+04  4.08200E+03 -2.18584E+04  1.74310E+04 -1.99676E+04
  2.85417E+04 -1.31931E+04  3.45438E+04  3.93061E+03  2.50590E+04  2.15113E+04  4.18443E+03  3.84192E+04
 -1.82101E+04  3.19404E+04 -2.91958E+04  1.10966E+04 -2.14214E+04 -1.03997E+04 -4.78607E+03 -1.31367E+04
  1.33993E+03 -1.90556E+03 -6.00197E+03  7.44731E+03 -1.79635E+04  4.78999E+03 -1.79137E+04 -7.81818E+03
 -1.08072E+04 -2.07830E+04  5.57753E+03 -2.50962E+04  1.66276E+04 -1.79067E+04  1.97956E+04 -1.35920E+03
  1.24272E+04  1.44834E+04 -9.57754E+02  2.05876E+04 -1.43271E+04  1.19390E+04 -2.06801E+04 -4.91728E+03
 -1.52084E+04 -1.91390E+04 -2.19061E+03 -2.47944E+04  1.13698E+04 -2.05907E+04  2.09320E+04 -1.00961E+04
  1.96293E+04  9.43342E+01  1.39667E+04  4.69196E+03  7.41264E+03  1.37372E+03  1.04066E+04 -1.53951E+03
  1.92377E+04  2.83379E+03  2.16514E+04  1.62989E+04  1.47280E+04  3.29116E+04 -2.75530E+03  3.79969E+04
 -2.17052E+04  3.12349E+04 -3.60464E+04  1.53790E+04 -3.79385E+04 -2.53522E+03 -3.10453E+04 -2.23848E+04
 -1.32407E+04 -3.17278E+04  1.10179E+04 -2.82460E+04  2.41699E+04 -1.36392E+04  2.10732E+04  6.76976E+03
  7.33665E+03  1.61221E+04 -1.01480E+04  1.36859E+04 -1.80224E+04  2.60029E+03 -1.35745E+04 -1.11604E+04
 -3.57289E+02 -1.66379E+04  9.03172E+03 -1.26732E+04  1.14354E+04 -1.35171E+03  2.47525E+03  7.52099E+03
 -7.61200E+03  3.49366E+03 -7.40469E+03 -5.96866E+03 -7.64097E+02 -1.57132E+04  1.05772E+04 -1.64673E+04
  1.89272E+04 -9.13781E+03  2.13353E+04  3.23888E+03  1.82598E+04  1.58123E+04  8.58462E+03  2.37138E+04
 -4.22790E+03  2.58484E+04 -1.68204E+04  1.61396E+04 -1.86698E+04  3.86322E+03 -1.32204E+04 -4.45642E+03
 -5.62585E+03 -5.77621E+03 -8.75056E+02  6.39529E+02 -2.53266E+03  3.12874E+03 -6.35464E+03  4.82510E+03
 -1.23749E+04 -9.23903E+02 -1.25341E+04 -1.03292E+04 -5.27138E+03 -1.67302E+04  5.46158E+03 -1.32845E+04
  1.08835E+04 -5.67153E+03  7.72305E+03  3.76062E+03 -1.42925E+02  5.11268E+03 -6.61563E+03 -1.87897E+02
 -6.18370E+03 -8.30313E+03 -1.09943E+03 -1.28633E+04  6.53422E+03 -1.35189E+04  1.65971E+04 -7.13513E+03
  1.92165E+04  1.96707E+03  1.44066E+04  1.14077E+04  3.04103E+03  1.53424E+04 -7.97447E+03  1.28900E+04
 -1.06993E+04  3.95182E+03 -5.25579E+03 -2.78187E+03  1.94857E+03 -3.54822E+03  7.06809E+03 -8.69942E+02
  6.17224E+03  5.69051E+03  1.04290E+03  1.03296E+04 -7.39963E+03  1.02288E+04 -1.29754E+04  2.32814E+03
 -8.92656E+03 -6.71892E+03  7.13693E+00 -1.09626E+04  6.95229E+03 -5.93692E+03  7.32778E+03  2.52584E+03
  1.85458E+03  7.89320E+03 -7.11942E+03  9.14071E+03 -1.01569E+04  4.15930E+03 -1.09153E+04 -3.49571E+03
 -6.24931E+03 -1.26602E+04  2.92126E+03 -1.41937E+04  1.20472E+04 -8.55322E+03  1.34320E+04  2.02654E+03
  8.02606E+03  1.06545E+04 -7.72039E+02  1.25298E+04 -8.78535E+03  7.35496E+03 -1.00955E+04 -6.28788E+02
 -8.70196E+03 -8.59897E+03 -1.37809E+03 -9.50225E+03  4.92783E+03 -7.91154E+03  5.80739E+03 -3.38305E+03
  4.33775E+03  1.47995E+03 -5.29832E+02  1.74730E+03 -5.41931E+02 -2.12975E+03  1.80017E+03 -5.65518E+03
  9.03952E+03 -3.23846E+03  1.26064E+04  1.60977E+03  1.21968E+04  8.02428E+03  8.58513E+03  1.58255E+04
 -3.57131E+03  1.83240E+04 -1.53848E+04  1.32699E+04 -2.00553E+04  2.76768E+03 -1.59364E+04 -7.02818E+03
 -8.24382E+03 -1.36489E+04 -3.91776E+02 -1.13771E+04  4.21020E+03 -6.17076E+03  4.13744E+03 -3.91186E+03
  3.10630E+03 -2.36813E+03  3.22352E+03 -3.27404E+03  4.82234E+03 -2.52945E+03  6.30614E+03 -2.87216E+02
  8.44109E+03  1.67506E+03  4.20828E+03  7.19799E+03 -1.76862E+03  8.19918E+03 -9.00824E+03  6.40249E+03
 -1.12015E+04 -1.13445E+03 -6.60187E+03 -7.68191E+03 -6.50660E+02 -1.21417E+04  6.98450E+03 -1.22760E+04
  1.21785E+04 -6.61326E+03  1.51377E+04  1.52645E+03  1.01672E+04  1.00778E+04  1.54784E+03  1.33312E+04
 -5.40990E+03  1.18955E+04 -7.92080E+03  3.98051E+03 -5.14951E+03 -1.45618E+03 -1.96717E+03 -1.52345E+03
 -1.44888E+03 -7.47142E+01 -1.90749E+03  2.49320E+03 -4.37624E+03  1.75782E+03 -7.60468E+03 -8.19672E+02
 -5.29812E+03 -7.97331E+03  2.34239E+02 -1.07573E+04  6.80627E+03 -1.00917E+04  1.10755E+04 -3.04931E+03
  1.04233E+04  5.57803E+03  4.87166E+03  9.50633E+03 -2.19175E+03  1.10998E+04 -7.69191E+03  6.60241E+03
 -1.03614E+04  5.10108E+02 -7.83587E+03 -6.70015E+03 -5.11421E+02 -9.13353E+03  4.56929E+03 -6.82812E+03
  7.06632E+03 -2.19097E+03  4.31939E+03  2.00052E+03  1.58601E+03  3.30200E+03  1.31583E+03  1.60777E+03
  2.53373E+03  6.91503E+02  2.91413E+03  1.67434E+03  3.09973E+03  4.17324E+03  2.71901E+03  5.76345E+03
 -2.33464E+03  8.24044E+03 -7.34658E+03  9.24348E+03 -1.08135E+04  2.82365E+03 -1.13268E+04 -4.11391E+03
 -5.12998E+03 -1.06708E+04  1.69094E+03 -1.25912E+04  6.23073E+03 -7.43701E+03  9.20986E+03 -1.83649E+03
  6.59355E+03  4.43621E+03  1.57490E+03  6.26297E+03 -2.98628E+03  3.58681E+03 -4.46829E+03 -7.71219E+02
 -1.82658E+03 -4.85089E+03  2.57449E+03 -4.34451E+03  4.61726E+03 -2.21485E+03  4.28250E+03  1.10730E+03
  2.37397E+03  2.21964E+03  1.57993E+03  1.37359E+03 -6.45962E+02  1.36539E+03  1.65465E+03 -8.01540E+02
  1.53034E+03 -5.61578E+02  4.29790E+03  1.71405E+03  2.19900E+03  5.65032E+03 -9.19960E+02  7.74381E+03
 -4.83548E+03  4.70699E+03 -6.64853E+03  9.89832E+02 -6.23437E+03 -2.44476E+03 -2.16205E+03 -3.96252E+03
  5.10017E+02 -4.08257E+03  2.91585E+03 -2.03111E+03  2.36338E+03  2.28000E+03 -1.07043E+03  3.32921E+03
 -4.26074E+03  2.16482E+03 -4.61084E+03 -2.58948E+03 -2.80199E+03 -6.20144E+03  9.42749E+02 -6.00675E+03
  3.47066E+03 -3.49171E+03  4.39541E+03 -4.97815E+02  3.55500E+03  1.67083E+03  6.03267E+02  2.98085E+03
 -2.27827E+03  9.73039E+02 -2.56329E+03 -1.73741E+03  1.24992E+03 -4.60430E+03  5.55209E+03 -3.47229E+03
  6.56730E+03  4.00568E+02  6.92367E+03  4.33838E+03  2.42007E+03  6.55703E+03 -2.29473E+03  6.27035E+03
 -5.76465E+03  2.80324E+03 -5.93974E+03 -6.66690E+02 -3.50412E+03 -4.31356E+03  7.71204E+02 -3.80390E+03
  4.06482E+03 -2.42617E+03  3.57368E+03  1.93077E+03  1.46041E+03  3.63639E+03 -9.18092E+01  3.66459E+03
 -1.64398E+03  2.54454E+03 -1.44329E+03  5.58846E+02 -5.19744E+02  5.16572E+02 -1.26042E+03  1.49923E+03
 -1.98479E+03  2.68393E+03 -5.07866E+03  2.12729E+03 -6.46061E+03  1.98937E+02 -7.85885E+03 -4.05757E+03
 -3.85915E+03 -8.85855E+03  1.41866E+03 -1.06927E+04  6.19102E+03 -8.20238E+03  9.79031E+03 -2.98158E+03
  9.23320E+03  1.45234E+03  5.43488E+03  5.84707E+03  1.93197E+02  7.02139E+03 -2.66625E+03  5.24124E+03
 -3.65965E+03  1.73532E+03 -2.30628E+03 -5.95665E+02 -7.29782E+02 -3.56667E+02 -5.70300E+02  1.61009E+02
 -1.40118E+03  1.66070E+02 -1.74464E+03 -1.32251E+02 -5.67732E+02 -1.67931E+03  2.39929E+02 -2.93411E+03
  2.98338E+03 -2.14917E+03  3.96442E+03  1.25672E+02  4.88762E+03  3.55423E+03  1.21471E+03  6.54879E+03
 -3.34221E+03  8.11340E+03 -7.52801E+03  4.84609E+03 -8.48850E+03 -6.63736E+02 -6.38239E+03 -5.10417E+03
 -2.64259E+03 -6.89511E+03  1.79264E+03 -6.36126E+03  4.16181E+03 -3.28316E+03  4.26117E+03  2.15664E+02
  2.47588E+03  2.26758E+03 -3.79512E+00  1.79793E+03 -1.60750E+03 -2.28035E+02  1.05415E+02 -1.44284E+03
  2.09674E+03 -1.10032E+03  2.58300E+03  1.28370E+03  1.47205E+03  2.50154E+03  4.13041E+02  3.32196E+03
 -3.30737E+03  2.92567E+03 -4.61186E+03  5.23679E+02 -4.14580E+03 -3.16622E+03 -6.42935E+02 -5.25955E+03
  3.11399E+03 -4.54700E+03  4.99385E+03 -1.65027E+03  5.17853E+03  8.54139E+02  2.92601E+03  4.24937E+03
  7.08041E+02  4.36149E+03 -1.59480E+03  3.51936E+03 -2.62179E+03  1.96967E+03 -2.13814E+03  9.43741E+01
 -1.49297E+03 -2.69788E+01 -1.23263E+03  9.34720E+02 -2.27270E+03  7.51895E+02 -3.66985E+03 -9.39512E+02
 -3.60953E+03 -1.98446E+03 -1.05814E+03 -4.21819E+03  2.03365E+03 -4.97207E+03  3.86685E+03 -2.31593E+03
  4.43176E+03  4.54093E+02  1.88563E+03  2.94371E+03 -3.98610E+02  4.80797E+03 -3.14012E+03  2.66457E+03
