 $NMID ID='MM_0lb_SNR800_19hz_g45_5.RAW', FMTDAT='(8E13.5)'
 TRAMP=1., VOLUME=1. $END
  3.09999E+05  5.15047E+02  3.37448E+05  2.50204E+05  8.43334E+04  3.37008E+05 -1.32212E+05  2.49803E+05
 -1.89671E+05  8.23626E+04 -1.10821E+05 -3.30344E+04  1.55065E+03 -5.03110E+04  5.38024E+04  2.59123E+02
  3.50337E+04  5.28072E+04 -1.70699E+04  7.48200E+04 -6.01606E+04  6.24935E+04 -8.31654E+04  3.12833E+04
 -7.94918E+04 -1.12162E+04 -5.62104E+04 -5.01321E+04 -1.48699E+04 -6.81916E+04  2.68351E+04 -4.49747E+04
  3.90552E+04  3.73009E+03  1.52182E+04  4.67150E+04 -3.39441E+04  4.61293E+04 -6.51996E+04 -5.98712E+02
 -5.18540E+04 -5.57742E+04 -6.46597E+03 -7.48125E+04  3.31190E+04 -5.31174E+04  4.59944E+04 -1.63001E+04
  4.14107E+04  1.07737E+04  3.06247E+04  2.42369E+04  1.57134E+04  2.78660E+04 -4.61200E+03  2.66714E+04
 -2.15363E+04  1.30708E+04 -1.92234E+04 -4.07107E+03  4.18030E+03 -7.57426E+03  2.10726E+04  1.06702E+04
  7.55991E+03  3.29128E+04 -3.01786E+04  3.35534E+04 -6.07757E+04  2.23081E+03 -5.49780E+04 -4.08143E+04
 -1.25480E+04 -6.04648E+04  3.78671E+04 -4.30148E+04  5.51024E+04 -2.21672E+03  3.16064E+04  3.00594E+04
 -6.93928E+03  3.24575E+04 -2.81694E+04  1.29209E+04 -2.69022E+04 -5.39345E+03 -1.39370E+04 -9.93534E+03
 -7.01681E+03 -1.11579E+04 -9.14735E+02 -1.65002E+04  6.45488E+03 -2.23020E+04  1.51563E+04 -1.38962E+04
  1.23428E+04  4.11526E+03 -5.70236E+03  1.31421E+04 -1.90325E+04 -2.26914E+03 -7.81742E+03 -2.98440E+04
  2.06721E+04 -3.97607E+04  4.42852E+04 -1.84000E+04  4.14541E+04  1.79702E+04  1.41581E+04  4.14052E+04
 -1.51088E+04  3.06205E+04 -2.33339E+04  1.10852E+03 -7.74831E+03 -2.61343E+04  2.03963E+04 -3.07383E+04
  3.77750E+04 -7.18466E+03  3.08402E+04  2.26394E+04  1.50948E+04  4.18206E+04 -7.73510E+03  4.46587E+04
 -2.80539E+04  2.92701E+04 -3.64401E+04  8.16512E+03 -3.78694E+04 -1.47003E+04 -2.10340E+04 -3.40896E+04
  6.67035E+03 -3.37023E+04  2.91464E+04 -1.22117E+04  2.63073E+04  1.07088E+04  2.83015E+03  1.73704E+04
 -1.29377E+04  7.21792E+03 -9.14860E+03 -7.70140E+03  5.98790E+03 -1.01893E+04  1.71263E+04  6.85397E+03
  1.21654E+04  2.15599E+04 -6.72667E+03  2.31150E+04 -2.14219E+04  8.70960E+03 -2.46095E+04 -6.18455E+03
 -1.61811E+04 -1.61792E+04 -5.41157E+03 -1.62856E+04  3.77245E+03 -1.41332E+04  1.20901E+04 -1.36536E+04
  2.04450E+04 -1.13541E+04  2.75801E+04  9.59139E+02  2.08211E+04  1.59205E+04  4.12733E+03  3.21082E+04
 -1.57892E+04  2.73319E+04 -2.54760E+04  9.35963E+03 -1.94275E+04 -1.03170E+04 -3.85822E+03 -1.38258E+04
  2.51477E+03 -4.37491E+03 -2.53053E+03  5.09000E+03 -1.24961E+04  5.34171E+03 -1.29630E+04 -4.80638E+03
 -8.43169E+03 -1.52172E+04  4.57001E+03 -1.90390E+04  1.22148E+04 -1.36029E+04  1.41992E+04 -1.46894E+03
  8.89351E+03  1.06152E+04 -7.66304E+02  1.55036E+04 -9.96751E+03  8.39146E+03 -1.49129E+04 -3.22790E+03
 -1.12798E+04 -1.37248E+04 -1.34526E+03 -1.82755E+04  8.20130E+03 -1.52022E+04  1.55570E+04 -6.87006E+03
  1.42719E+04  6.19108E+02  1.01975E+04  3.66659E+03  5.02141E+03  5.78862E+02  7.16981E+03 -1.33826E+03
  1.31160E+04  2.69721E+03  1.39645E+04  1.23486E+04  8.68522E+03  2.39090E+04 -3.17158E+03  2.54906E+04
 -1.52402E+04  1.94120E+04 -2.31516E+04  9.10753E+03 -2.39816E+04 -1.75667E+03 -2.04425E+04 -1.33564E+04
 -9.86479E+03 -1.96318E+04  6.54933E+03 -1.80611E+04  1.61102E+04 -1.04732E+04  1.50978E+04  3.41272E+03
  6.74669E+03  1.05646E+04 -6.84221E+03  9.86314E+03 -1.30079E+04  2.73681E+03 -1.01183E+04 -7.55055E+03
  2.61828E+02 -1.19660E+04  5.49941E+03 -9.34109E+03  7.50187E+03 -1.28535E+03  1.54739E+03  4.93499E+03
 -5.07707E+03  1.14382E+03 -3.36456E+03 -4.24748E+03  9.01912E+02 -9.67553E+03  7.69598E+03 -9.46341E+03
  1.16870E+04 -4.31511E+03  1.11203E+04  2.74832E+03  9.67084E+03  9.10760E+03  4.96931E+03  1.32611E+04
 -1.70589E+03  1.50666E+04 -8.93455E+03  9.69556E+03 -1.03463E+04  2.77774E+03 -8.03536E+03 -1.78907E+03
 -4.44170E+03 -3.10025E+03 -8.75844E+02  1.41882E+03 -1.96760E+03  1.92143E+03 -3.41053E+03  3.11041E+03
 -7.72479E+03 -5.19559E+02 -8.27551E+03 -7.03170E+03 -3.36970E+03 -1.12048E+04  3.32852E+03 -8.11104E+03
  6.91231E+03 -3.55984E+03  5.11743E+03  1.86427E+03  6.96665E+02  3.11581E+03 -3.31508E+03 -2.02138E+02
 -3.12297E+03 -4.99271E+03 -7.86103E+02 -6.97338E+03  3.68754E+03 -7.52897E+03  9.48972E+03 -3.94611E+03
  1.10283E+04  4.84314E+02  8.46367E+03  5.97892E+03  1.74621E+03  8.08183E+03 -4.92699E+03  8.16233E+03
 -6.85814E+03  2.79480E+03 -3.43017E+03 -1.14082E+03  1.43410E+03 -1.71365E+03  4.42104E+03 -1.10683E+03
  3.89865E+03  2.96191E+03  9.91697E+02  6.00486E+03 -4.20743E+03  6.33617E+03 -7.63870E+03  1.69635E+03
 -4.73346E+03 -3.21505E+03  8.71640E+01 -6.62706E+03  3.15454E+03 -3.14401E+03  3.26737E+03  6.65957E+02
  5.13337E+02  3.10659E+03 -3.87731E+03  4.30355E+03 -4.34854E+03  2.57733E+03 -4.10512E+03 -1.27663E+03
 -2.43058E+03 -5.56361E+03  8.17784E+02 -6.60181E+03  5.43365E+03 -4.54720E+03  5.93978E+03  6.02475E+02
  4.32001E+03  4.83623E+03  3.55748E+02  6.81641E+03 -4.87787E+03  4.20637E+03 -5.11272E+03 -3.06486E+02
 -5.57740E+03 -4.63013E+03 -1.32857E+03 -4.56467E+03  2.29872E+03 -4.44611E+03  2.68243E+03 -2.46442E+03
  2.75761E+03  2.69643E+02  2.44733E+02  1.18054E+03  5.47721E+02 -1.56459E+02 -1.68965E+02 -1.68466E+03
  3.54001E+03 -7.03296E+02  4.54490E+03  7.88854E+02  5.06178E+03  2.84299E+03  5.09919E+03  6.44593E+03
 -1.17235E+03  7.82067E+03 -7.09082E+03  6.06707E+03 -9.12202E+03  9.96215E+02 -7.35804E+03 -2.32161E+03
 -3.84075E+03 -6.03687E+03 -5.93866E+02 -4.70602E+03  1.92156E+03 -1.93784E+03  1.22914E+03 -1.90141E+03
  1.15117E+03 -1.59123E+03  1.95046E+03 -2.46328E+03  3.22003E+03 -1.37544E+03  3.59166E+03  5.18859E+02
  4.31493E+03  1.10963E+03  1.03396E+03  3.11701E+03 -1.57177E+03  2.88171E+03 -3.90333E+03  2.22314E+03
 -4.54682E+03 -1.12469E+03 -1.51842E+03 -3.24713E+03  5.56279E+02 -4.83406E+03  3.00714E+03 -4.87494E+03
  4.67077E+03 -3.09765E+03  6.17624E+03  1.87884E+02  4.61284E+03  3.86567E+03  1.12062E+03  5.33065E+03
 -2.02818E+03  5.29306E+03 -3.27633E+03  1.93581E+03 -1.75198E+03 -1.06025E+03 -4.49318E+02 -6.71975E+02
 -2.54134E+02  2.50825E+02 -1.02222E+03  1.75796E+03 -2.61653E+03  1.05426E+03 -3.76534E+03 -1.91183E+02
 -1.33451E+03 -3.72113E+03  7.50976E+02 -4.29792E+03  2.54696E+03 -4.07169E+03  3.14316E+03 -8.27462E+02
  3.78335E+03  2.20572E+03  1.64796E+03  2.98168E+03 -9.30487E+02  3.92735E+03 -2.41501E+03  2.45187E+03
 -3.34800E+03  7.76167E+02 -3.09965E+03 -2.33110E+03 -1.75063E+02 -2.53174E+03  1.56004E+03 -2.41049E+03
  2.49676E+03 -1.27361E+03  1.65379E+03  4.51963E+02  2.24977E+02  1.45827E+03  7.93074E+02  8.46800E+02
  1.65230E+03  3.66775E+02  9.57425E+02  7.83937E+02  1.00488E+03  1.83393E+03  1.15436E+03  1.59397E+03
 -1.31527E+03  2.67952E+03 -2.04420E+03  4.08032E+03 -2.41381E+03  8.78193E+02 -3.81035E+03 -1.96974E+02
 -1.53517E+03 -3.62202E+03  4.44664E+02 -4.38373E+03  1.75873E+03 -2.35798E+03  2.73278E+03 -9.21626E+02
  1.80466E+03  1.71781E+03  3.63275E+02  2.13115E+03 -6.22243E+02  1.28603E+03 -6.76151E+02 -2.25830E+02
 -5.92811E+02 -1.61779E+03  1.06129E+03 -1.33048E+03  9.34404E+02 -8.29271E+02  1.11162E+03  4.01642E+02
  8.08752E+02  3.86865E+02  7.22951E+02 -3.06225E+02 -2.06354E+02  6.95859E+02  1.60762E+03 -2.44469E+02
 -3.38638E+02 -1.34957E+02  1.66679E+03  8.50273E+02  6.26970E-01  2.30933E+03 -3.96047E+02  2.67723E+03
 -1.28451E+03  8.01215E+02 -1.79933E+03  2.10211E+02 -1.94894E+03 -5.98171E+02 -1.30836E+02 -8.29950E+02
  5.15641E+02 -8.40054E+02  1.08959E+03 -7.15790E+02  3.68568E+02  1.25692E+03 -6.03725E+02  9.53299E+02
 -1.53900E+03  7.09741E+02 -1.23216E+03 -1.13600E+03 -7.55832E+02 -1.70385E+03 -8.15372E+01 -1.16986E+03
  4.63273E+02 -6.64271E+02  5.51654E+02  2.33983E+02  1.45882E+03 -1.74241E+02  5.30722E+02  1.04908E+03
 -5.27954E+02 -5.08638E+01 -1.00822E+03 -1.39132E+02  8.82060E+02 -7.13739E+02  1.66172E+03 -8.46045E+02
  9.92548E+02  1.51334E+02  2.48852E+03  4.36346E+02  1.08213E+03  1.58195E+03 -6.06047E+01  1.81952E+03
 -1.16373E+03  8.75515E+01 -1.35856E+03 -2.57675E+02 -8.21262E+02 -1.14205E+03  3.50889E+02 -5.69908E+02
  1.11882E+03 -7.54242E+02  7.04661E+02  4.24169E+02  3.19923E+02  1.35553E+03  2.95435E+02  9.82793E+02
 -2.08666E+02  1.19036E+03 -4.64907E+02  4.74643E+00  5.15149E+01  3.39271E+02 -8.02435E+02  4.80927E+02
 -5.99203E+02  9.52432E+02 -1.49789E+03  3.71789E+02 -1.40747E+03  1.95070E+02 -2.18164E+03 -8.33656E+02
 -8.49359E+02 -2.16003E+03  4.02586E+02 -2.51554E+03  8.14464E+02 -2.08132E+03  2.33135E+03 -8.63928E+02
  2.03853E+03 -1.79524E+02  1.08635E+03  1.23451E+03 -4.50814E+02  1.10172E+03 -4.35485E+02  1.25126E+03
 -8.19743E+02  7.14944E+02 -3.92411E+02 -2.47020E+02 -4.35062E+02  6.15148E+02 -7.42177E+02  1.54514E+02
 -1.04198E+03  1.92559E+01 -8.14080E+02  3.42381E+01  1.94568E+02 -5.64542E+02 -2.82586E+02 -7.54778E+02
  1.33626E+03 -5.08954E+02  4.14993E+02  3.18319E+02  9.59353E+02  9.02359E+02 -7.00227E+02  1.21817E+03
 -7.91367E+02  2.03118E+03 -1.34599E+03  1.13990E+03 -1.60665E+03 -1.16770E+02 -1.28551E+03 -1.14834E+03
 -8.96492E+02 -1.22056E+03  1.55223E+02 -1.06454E+03  5.03833E+02 -5.99750E+02  4.61092E+02  1.89294E+02
  8.14143E+02  4.47473E+01  3.49515E+02  1.10959E+02 -1.11706E+02 -1.31597E+02 -9.30130E+01 -8.06873E+01
  8.41272E+02  3.50562E+02  3.22726E+02  2.69531E+02  1.89463E+02  5.04139E+02  4.81704E+02 -3.24548E+01
 -7.20599E+02  4.19531E+02 -5.70854E+02  7.09228E+01 -3.50650E+02 -3.88394E+02  8.51748E+01 -9.83522E+02
  3.98390E+02 -6.39774E+02  5.06834E+02 -4.87095E+00  7.46156E+02 -4.83927E+02  4.48154E+02  6.16949E+02
  4.31351E+02  5.09757E+02 -1.27328E+01  1.92190E+02 -5.34700E+02  6.82083E+02 -2.53698E+02  2.55779E+02
 -2.08583E+02 -5.01662E+01 -2.23369E+02  8.02977E+01 -3.65809E+02  3.87912E+02 -7.08024E+02 -2.35658E+02
 -9.60481E+02  4.53913E+02 -1.17205E+02 -6.84749E+02  5.16516E+02 -1.73528E+03  5.95343E+02 -4.09848E+02
  6.76299E+02  7.63085E+01 -3.00152E+02  2.22722E+02 -6.12890E+00  6.57868E+02 -1.75555E+02  5.37892E+02
