 $NMID ID='MM_0lb_SNR800_18hz_g45_90.RAW', FMTDAT='(8E13.5)'
 TRAMP=1., VOLUME=1. $END
  3.09937E+05  4.41674E+02  3.37237E+05  2.50544E+05  8.44281E+04  3.37400E+05 -1.32599E+05  2.50195E+05
 -1.89689E+05  8.23209E+04 -1.10953E+05 -3.27589E+04  1.73927E+03 -5.03821E+04  5.38687E+04  3.55125E+02
  3.51240E+04  5.26027E+04 -1.69857E+04  7.49180E+04 -6.05045E+04  6.28271E+04 -8.33111E+04  3.14481E+04
 -7.96254E+04 -1.10708E+04 -5.62514E+04 -5.01686E+04 -1.47564E+04 -6.87778E+04  2.65726E+04 -4.48260E+04
  3.91996E+04  3.62893E+03  1.57055E+04  4.69850E+04 -3.36838E+04  4.62316E+04 -6.56276E+04 -6.07727E+02
 -5.21460E+04 -5.59134E+04 -6.34239E+03 -7.51265E+04  3.30828E+04 -5.33429E+04  4.64276E+04 -1.62653E+04
  4.14895E+04  1.08500E+04  3.10016E+04  2.44572E+04  1.58929E+04  2.83905E+04 -4.96509E+03  2.67288E+04
 -2.15526E+04  1.24970E+04 -1.90130E+04 -4.17146E+03  4.55245E+03 -7.55525E+03  2.14230E+04  1.10472E+04
  7.54401E+03  3.33590E+04 -3.05622E+04  3.41198E+04 -6.10806E+04  2.42776E+03 -5.53084E+04 -4.10751E+04
 -1.25665E+04 -6.07735E+04  3.80101E+04 -4.34815E+04  5.57801E+04 -1.94879E+03  3.20525E+04  3.06156E+04
 -6.44350E+03  3.34681E+04 -2.85379E+04  1.35182E+04 -2.77603E+04 -5.37198E+03 -1.47543E+04 -1.01596E+04
 -7.59601E+03 -1.14946E+04 -9.55408E+02 -1.65447E+04  6.77907E+03 -2.26497E+04  1.51622E+04 -1.39191E+04
  1.23705E+04  4.43710E+03 -6.28809E+03  1.30250E+04 -1.94001E+04 -2.65583E+03 -8.51461E+03 -3.05567E+04
  2.07479E+04 -4.05195E+04  4.48830E+04 -1.88083E+04  4.21194E+04  1.82263E+04  1.44574E+04  4.17084E+04
 -1.55069E+04  3.11873E+04 -2.32978E+04  1.17611E+03 -8.26183E+03 -2.61579E+04  2.04812E+04 -3.13679E+04
  3.80371E+04 -7.55329E+03  3.16491E+04  2.27701E+04  1.54382E+04  4.26497E+04 -7.53002E+03  4.54662E+04
 -2.85915E+04  3.01449E+04 -3.74457E+04  8.54630E+03 -3.83762E+04 -1.51624E+04 -2.13464E+04 -3.43663E+04
  6.89341E+03 -3.42440E+04  2.93795E+04 -1.26842E+04  2.69403E+04  1.07992E+04  3.15235E+03  1.79654E+04
 -1.29870E+04  7.38777E+03 -9.72251E+03 -7.82362E+03  5.80599E+03 -1.00969E+04  1.73968E+04  6.38809E+03
  1.21716E+04  2.14038E+04 -6.62837E+03  2.35910E+04 -2.15099E+04  9.15885E+03 -2.50561E+04 -6.35225E+03
 -1.68731E+04 -1.66135E+04 -5.87767E+03 -1.68536E+04  4.10893E+03 -1.50995E+04  1.25566E+04 -1.46036E+04
  2.15187E+04 -1.16410E+04  2.80783E+04  1.10795E+03  2.15437E+04  1.64488E+04  4.18680E+03  3.25259E+04
 -1.62195E+04  2.78472E+04 -2.58485E+04  9.41229E+03 -1.98848E+04 -1.02623E+04 -3.83895E+03 -1.38393E+04
  2.85159E+03 -4.28537E+03 -2.83373E+03  5.39624E+03 -1.33314E+04  5.39125E+03 -1.37273E+04 -4.99349E+03
 -8.85964E+03 -1.56856E+04  4.38366E+03 -1.96308E+04  1.28052E+04 -1.45133E+04  1.48260E+04 -1.69352E+03
  9.33618E+03  1.09193E+04 -7.50212E+02  1.57402E+04 -1.03923E+04  8.96389E+03 -1.54000E+04 -3.68923E+03
 -1.15229E+04 -1.46008E+04 -1.34595E+03 -1.91825E+04  8.93296E+03 -1.55997E+04  1.62090E+04 -7.44152E+03
  1.46121E+04  1.04305E+03  1.07163E+04  3.89247E+03  5.37967E+03  5.53385E+02  7.62402E+03 -1.41111E+03
  1.40082E+04  2.65090E+03  1.51410E+04  1.28382E+04  9.30769E+03  2.51841E+04 -3.13738E+03  2.71553E+04
 -1.60975E+04  2.05579E+04 -2.48143E+04  9.60326E+03 -2.54406E+04 -2.06678E+03 -2.16556E+04 -1.42839E+04
 -1.00873E+04 -2.07125E+04  6.90250E+03 -1.94538E+04  1.69408E+04 -1.10745E+04  1.57906E+04  3.78766E+03
  6.83072E+03  1.13452E+04 -7.09604E+03  1.03109E+04 -1.33397E+04  2.74528E+03 -1.03675E+04 -8.32710E+03
  8.30039E+01 -1.28093E+04  6.41190E+03 -9.62047E+03  8.02327E+03 -1.20900E+03  1.31228E+03  5.24253E+03
 -5.65935E+03  1.59995E+03 -3.89956E+03 -4.85733E+03  5.87782E+02 -1.03028E+04  7.90509E+03 -1.03897E+04
  1.25822E+04 -5.05004E+03  1.22612E+04  2.89284E+03  1.06545E+04  9.57659E+03  5.26205E+03  1.48959E+04
 -1.90822E+03  1.62874E+04 -9.84159E+03  1.03645E+04 -1.16463E+04  3.04637E+03 -8.76215E+03 -2.13095E+03
 -4.48551E+03 -3.48279E+03 -9.43192E+02  1.55755E+03 -2.01839E+03  1.97297E+03 -3.54207E+03  3.29282E+03
 -8.50778E+03 -3.54184E+02 -8.75938E+03 -7.20055E+03 -3.86902E+03 -1.16057E+04  3.23727E+03 -8.63229E+03
  7.10144E+03 -4.07108E+03  5.22575E+03  2.18764E+03  8.05110E+02  3.03090E+03 -3.76600E+03 -2.55178E+02
 -3.45992E+03 -5.21820E+03 -7.84790E+02 -7.03502E+03  3.92796E+03 -7.89281E+03  1.02047E+04 -4.12834E+03
  1.18449E+04  7.77299E+02  9.05086E+03  6.33871E+03  1.73925E+03  8.74984E+03 -5.44026E+03  8.42159E+03
 -7.16773E+03  2.89752E+03 -3.53212E+03 -1.34133E+03  1.35460E+03 -1.95118E+03  4.97712E+03 -7.59748E+02
  4.11434E+03  3.47907E+03  1.24924E+03  6.62093E+03 -4.52426E+03  6.66196E+03 -7.97842E+03  2.03587E+03
 -5.07157E+03 -3.40135E+03  2.95434E+02 -6.71096E+03  3.79330E+03 -3.25112E+03  3.74595E+03  9.44503E+02
  7.03358E+02  3.40316E+03 -4.20597E+03  4.74711E+03 -5.11756E+03  2.67631E+03 -4.80189E+03 -1.43687E+03
 -3.03996E+03 -6.51373E+03  1.27152E+03 -7.24320E+03  5.98852E+03 -5.02316E+03  6.74860E+03  1.11197E+03
  5.02996E+03  5.57931E+03 -2.66684E+00  7.56575E+03 -5.34041E+03  4.30121E+03 -5.20610E+03 -5.58536E+02
 -5.52732E+03 -5.23634E+03 -1.23959E+03 -5.13773E+03  2.81531E+03 -4.44393E+03  3.03221E+03 -3.08104E+03
  3.33753E+03  3.06074E+02  2.93871E+02  1.18120E+03  5.74682E+02 -3.74437E+02  2.16503E+02 -1.85898E+03
  4.24504E+03 -7.10378E+02  5.33482E+03  9.42141E+02  5.91283E+03  3.17702E+03  5.56296E+03  7.50375E+03
 -1.25198E+03  8.80629E+03 -8.02372E+03  6.75944E+03 -1.03820E+04  1.32667E+03 -8.14247E+03 -2.76119E+03
 -4.36928E+03 -6.81405E+03 -6.40400E+02 -5.22493E+03  2.49430E+03 -2.35042E+03  1.56506E+03 -2.29879E+03
  1.45716E+03 -1.53132E+03  2.02067E+03 -2.17413E+03  3.68129E+03 -1.49675E+03  3.65246E+03  3.60949E+02
  4.78538E+03  1.16084E+03  1.12331E+03  3.39101E+03 -1.45340E+03  3.16307E+03 -4.66229E+03  2.51528E+03
 -4.98302E+03 -1.07570E+03 -1.95648E+03 -3.65700E+03  2.58391E+02 -5.02994E+03  3.45951E+03 -5.82134E+03
  5.51537E+03 -3.19843E+03  6.79650E+03  4.45379E+02  5.02595E+03  4.51243E+03  1.10293E+03  6.14694E+03
 -2.09456E+03  5.77358E+03 -3.60857E+03  1.59115E+03 -2.02072E+03 -1.23000E+03 -4.10496E+02 -7.07533E+02
 -3.31605E+02  6.06064E+02 -1.04675E+03  2.20994E+03 -2.66008E+03  9.77566E+02 -4.32455E+03 -3.33566E+02
 -1.28047E+03 -4.22822E+03  8.42877E+02 -4.83155E+03  2.94811E+03 -4.57326E+03  3.96556E+03 -1.31360E+03
  4.28188E+03  2.45459E+03  1.80379E+03  3.40986E+03 -8.31723E+02  4.88484E+03 -2.66889E+03  2.85499E+03
 -4.16330E+03  4.65032E+02 -3.29820E+03 -2.80173E+03 -3.44803E+02 -3.38267E+03  1.68548E+03 -2.58709E+03
  2.93001E+03 -1.14737E+03  1.66495E+03  3.36637E+02  4.74464E+02  1.92042E+03  1.07027E+03  7.69746E+02
  1.73743E+03  7.47647E+02  1.28654E+03  9.00894E+02  1.15060E+03  2.40368E+03  1.31721E+03  2.04604E+03
 -1.30981E+03  3.32683E+03 -2.49223E+03  4.22596E+03 -3.13015E+03  1.27604E+03 -4.53982E+03 -5.24274E+02
 -2.16025E+03 -3.79245E+03  5.63883E+02 -4.79688E+03  2.19672E+03 -2.72413E+03  3.09128E+03 -9.07525E+02
  2.55564E+03  1.84967E+03  5.96752E+02  2.33326E+03 -8.47559E+02  1.28871E+03 -9.94657E+02  1.86572E+02
 -5.76956E+02 -1.95369E+03  1.37998E+03 -1.65838E+03  1.36323E+03 -1.09772E+03  1.61859E+03  4.06669E+02
  9.69362E+02  4.50317E+02  7.30926E+02 -2.59654E+02 -1.04531E+02  7.40561E+02  1.54558E+03 -3.91406E+02
  1.41375E+02 -2.68563E+02  1.78512E+03  6.56712E+02  1.28294E+02  2.45148E+03 -5.14350E+02  3.08092E+03
 -1.83355E+03  1.22008E+03 -2.23027E+03  4.51210E+02 -2.45879E+03 -7.33512E+02 -2.93157E+02 -9.64551E+02
  4.70026E+02 -1.22324E+03  1.03874E+03 -8.00707E+02  6.18847E+02  1.29345E+03 -8.33267E+02  1.27804E+03
 -1.37026E+03  6.27175E+02 -1.35892E+03 -1.16923E+03 -6.07234E+02 -2.26522E+03  2.32976E+02 -1.69530E+03
  4.20722E+02 -5.13731E+02  8.98685E+02  1.53186E+02  1.13294E+03  4.49253E+01  3.06065E+02  1.12277E+03
 -4.46989E+02 -8.78663E+01 -9.10506E+02 -2.33888E+02  9.71435E+02 -1.09992E+03  2.13295E+03 -9.10669E+02
  1.31012E+03  3.29650E+02  2.94472E+03  9.25930E+02  1.16042E+03  1.63149E+03 -3.48586E+02  1.95814E+03
 -1.55678E+03  5.76163E+02 -1.61379E+03 -3.79669E+02 -7.64684E+02 -1.62960E+03  2.27168E+02 -7.72369E+02
  1.46200E+03 -1.06457E+03  7.61214E+02  7.77103E+02  2.72781E+02  1.35808E+03  3.46261E+02  1.14352E+03
 -3.81463E+02  1.22869E+03 -5.39473E+02  3.89553E+02 -7.53106E+01  1.46724E+02 -7.48633E+02  4.56135E+02
 -5.09434E+02  9.01920E+02 -1.99890E+03  7.44702E+02 -2.13001E+03 -1.16194E+02 -2.30973E+03 -1.31871E+03
 -1.25849E+03 -2.59015E+03  4.40089E+02 -2.94172E+03  1.55236E+03 -2.43976E+03  2.72801E+03 -1.06832E+03
  2.54179E+03 -1.09323E+02  1.33345E+03  1.74361E+03 -7.30827E+02  1.64623E+03 -6.63293E+02  1.35126E+03
 -1.10626E+03  8.31100E+02 -6.68638E+02 -1.34707E+02 -5.44852E+02  4.22834E+02 -6.44973E+02  2.57620E+02
 -9.86992E+02 -2.56140E+01 -8.58043E+02 -1.55687E+02  3.34753E+02 -4.93535E+02 -8.08595E+02 -1.09922E+03
  1.30861E+03 -6.52580E+02  5.43640E+02  4.15822E+02  1.24285E+03  1.31346E+03 -7.25792E+02  1.82689E+03
 -1.17078E+03  2.50840E+03 -1.87525E+03  1.56580E+03 -2.12310E+03 -2.54629E+02 -1.72089E+03 -1.36098E+03
 -7.38442E+02 -1.64385E+03  4.45358E+02 -1.28557E+03  6.77872E+02 -7.93852E+02  7.58156E+02  3.59719E+02
  8.21747E+02  3.68122E+02  1.26259E+02  4.74442E+02 -4.72938E+02 -4.06526E+01  1.15465E+02 -1.53810E+02
  5.92514E+02  6.06170E+01  3.78470E+02  2.07100E+02 -9.15036E+01  5.06624E+02  2.85411E+02  3.65060E+02
 -6.51887E+02  7.00521E+02 -7.22901E+02 -2.92379E+01 -1.03769E+03 -6.11145E+02  1.40295E+02 -1.31653E+03
  5.40435E+02 -8.80314E+02  4.34754E+02  8.26350E+01  9.17255E+02 -5.92944E+02  4.74068E+02  8.00279E+02
  5.29815E+02  4.05705E+02 -2.75690E+02  7.31831E+02 -6.83077E+02  7.53198E+02 -3.59911E+02  3.56317E+02
 -3.08519E+02  1.37541E+02 -3.92039E+02  6.53189E+01 -8.15349E+02 -1.76235E+01 -8.40332E+02 -3.88569E+02
 -1.38264E+03  1.81917E+02 -4.43439E+02 -1.18958E+03  6.46121E+02 -1.52017E+03  7.57809E+02 -1.63771E+02
  6.31109E+02  1.23525E+02 -3.21672E+02  4.64898E+02 -1.53053E+02  9.34326E+02 -4.10557E+02  9.31875E+02
