 $NMID ID='MM_0lb_SNR800_19hz_g60_3.RAW', FMTDAT='(8E13.5)'
 TRAMP=1., VOLUME=1. $END
  3.09494E+05  2.85735E+02  3.37434E+05  2.50542E+05  8.46649E+04  3.37867E+05 -1.32286E+05  2.50897E+05
 -1.90263E+05  8.31349E+04 -1.11338E+05 -3.24634E+04  1.12911E+03 -5.04963E+04  5.36193E+04 -2.09243E+02
  3.53337E+04  5.28511E+04 -1.67956E+04  7.49321E+04 -6.04873E+04  6.33024E+04 -8.34932E+04  3.19605E+04
 -8.03829E+04 -1.13804E+04 -5.68237E+04 -5.06178E+04 -1.48848E+04 -6.89750E+04  2.72985E+04 -4.52225E+04
  3.94278E+04  3.80190E+03  1.56333E+04  4.74546E+04 -3.44110E+04  4.69749E+04 -6.61545E+04 -3.49396E+02
 -5.26196E+04 -5.64100E+04 -6.55958E+03 -7.65772E+04  3.37195E+04 -5.39686E+04  4.70083E+04 -1.67821E+04
  4.24577E+04  1.12785E+04  3.11740E+04  2.49171E+04  1.57680E+04  2.92484E+04 -5.04579E+03  2.69718E+04
 -2.18853E+04  1.23949E+04 -1.87645E+04 -4.46139E+03  5.12760E+03 -7.61471E+03  2.17228E+04  1.17859E+04
  7.30414E+03  3.45652E+04 -3.11824E+04  3.47545E+04 -6.22098E+04  2.12097E+03 -5.64272E+04 -4.20156E+04
 -1.24425E+04 -6.17619E+04  3.88593E+04 -4.43492E+04  5.69284E+04 -2.12030E+03  3.31318E+04  3.11447E+04
 -6.36357E+03  3.44355E+04 -2.92531E+04  1.46648E+04 -2.89697E+04 -4.82478E+03 -1.56721E+04 -1.04873E+04
 -7.90073E+03 -1.20767E+04 -1.06665E+03 -1.70342E+04  7.02394E+03 -2.29013E+04  1.54397E+04 -1.33750E+04
  1.15923E+04  4.57198E+03 -6.86790E+03  1.29639E+04 -2.02575E+04 -3.23720E+03 -8.40567E+03 -3.21733E+04
  2.15676E+04 -4.20852E+04  4.62465E+04 -1.88441E+04  4.32595E+04  1.88743E+04  1.49400E+04  4.26540E+04
 -1.53293E+04  3.20892E+04 -2.43495E+04  1.47409E+03 -9.05446E+03 -2.68933E+04  2.08884E+04 -3.22851E+04
  3.92169E+04 -8.09999E+03  3.31999E+04  2.33701E+04  1.64875E+04  4.41816E+04 -7.86604E+03  4.73793E+04
 -2.97900E+04  3.12467E+04 -3.93114E+04  8.71216E+03 -4.01711E+04 -1.56231E+04 -2.22267E+04 -3.59268E+04
  6.97751E+03 -3.55517E+04  3.00579E+04 -1.35813E+04  2.76951E+04  1.09481E+04  3.26381E+03  1.85764E+04
 -1.31681E+04  7.80608E+03 -9.73476E+03 -7.74600E+03  5.89611E+03 -1.02678E+04  1.76379E+04  6.18977E+03
  1.26674E+04  2.16827E+04 -6.35780E+03  2.38331E+04 -2.15996E+04  9.94337E+03 -2.61850E+04 -5.83354E+03
 -1.80829E+04 -1.69249E+04 -6.81094E+03 -1.79555E+04  3.75611E+03 -1.64487E+04  1.34695E+04 -1.55403E+04
  2.30226E+04 -1.23225E+04  2.95320E+04  1.61270E+03  2.20734E+04  1.74731E+04  3.87201E+03  3.35094E+04
 -1.65367E+04  2.86604E+04 -2.66930E+04  9.38917E+03 -1.99257E+04 -1.05027E+04 -4.18188E+03 -1.39675E+04
  2.46334E+03 -3.92487E+03 -3.43209E+03  5.87208E+03 -1.39768E+04  5.14590E+03 -1.41230E+04 -5.62283E+03
 -9.06157E+03 -1.65478E+04  4.81216E+03 -2.03795E+04  1.33750E+04 -1.46841E+04  1.57048E+04 -1.59809E+03
  9.69895E+03  1.15371E+04 -7.62825E+02  1.67001E+04 -1.12050E+04  9.36562E+03 -1.63387E+04 -3.30660E+03
 -1.24335E+04 -1.47451E+04 -1.47745E+03 -2.01444E+04  9.04347E+03 -1.59488E+04  1.69906E+04 -7.85909E+03
  1.53600E+04  4.41740E+02  1.10743E+04  3.83707E+03  5.56465E+03  5.03088E+02  8.15986E+03 -1.56350E+03
  1.48117E+04  2.62179E+03  1.57854E+04  1.32184E+04  9.74910E+03  2.60463E+04 -3.10029E+03  2.83529E+04
 -1.65384E+04  2.19138E+04 -2.62495E+04  1.04664E+04 -2.71348E+04 -2.24898E+03 -2.32200E+04 -1.54882E+04
 -1.04759E+04 -2.20806E+04  7.57209E+03 -2.01823E+04  1.77121E+04 -1.13761E+04  1.62661E+04  3.84266E+03
  6.56691E+03  1.18038E+04 -7.57887E+03  1.06874E+04 -1.40422E+04  2.78765E+03 -1.09395E+04 -8.19150E+03
  3.52627E+02 -1.31061E+04  6.33270E+03 -9.81981E+03  8.23775E+03 -1.38355E+03  1.55069E+03  5.29305E+03
 -6.06265E+03  1.72733E+03 -4.13018E+03 -4.65023E+03  6.80248E+02 -1.10252E+04  8.35637E+03 -1.10453E+04
  1.32765E+04 -4.87733E+03  1.31296E+04  2.65682E+03  1.11939E+04  1.00116E+04  5.44601E+03  1.49840E+04
 -1.89621E+03  1.70354E+04 -1.06888E+04  1.05556E+04 -1.19171E+04  2.84204E+03 -9.03716E+03 -2.14488E+03
 -4.67605E+03 -3.54964E+03 -9.20370E+02  1.35365E+03 -2.21625E+03  2.38365E+03 -3.79679E+03  3.62067E+03
 -8.46931E+03 -6.61968E+02 -9.10971E+03 -7.42226E+03 -3.59490E+03 -1.20250E+04  3.73051E+03 -8.64760E+03
  7.42104E+03 -3.63593E+03  5.73289E+03  2.39595E+03  3.46979E+02  3.21385E+03 -3.41420E+03  1.57196E+02
 -3.55583E+03 -5.26115E+03 -7.47413E+02 -7.61384E+03  4.42417E+03 -8.05780E+03  1.03642E+04 -4.16711E+03
  1.21892E+04  7.29873E+02  9.24837E+03  6.58596E+03  1.96292E+03  9.36374E+03 -5.28479E+03  8.61140E+03
 -7.06242E+03  3.20260E+03 -3.63794E+03 -1.26433E+03  1.40835E+03 -1.64684E+03  4.69884E+03 -1.08754E+03
  4.08345E+03  3.58059E+03  1.24749E+03  6.65937E+03 -4.71898E+03  6.77561E+03 -8.37369E+03  1.70841E+03
 -4.85961E+03 -3.64324E+03  4.79034E+02 -7.09885E+03  3.80246E+03 -3.44985E+03  3.76476E+03  9.15424E+02
  3.55611E+02  3.45336E+03 -4.11248E+03  4.86588E+03 -4.95521E+03  2.77396E+03 -4.82644E+03 -1.71415E+03
 -3.02551E+03 -6.17991E+03  1.18264E+03 -7.54671E+03  6.39123E+03 -4.58914E+03  6.62435E+03  8.10351E+02
  4.75778E+03  5.48982E+03 -3.83466E+01  7.40131E+03 -5.33536E+03  4.15205E+03 -5.27907E+03 -4.32136E+02
 -5.91848E+03 -5.12850E+03 -1.19527E+03 -5.47666E+03  2.70607E+03 -4.55934E+03  3.23886E+03 -3.04875E+03
  2.68947E+03  3.88147E+02  1.86733E+02  1.43685E+03  3.73548E+02 -1.09003E+02  1.09899E+02 -2.01686E+03
  3.64290E+03 -8.52637E+02  5.26622E+03  5.56199E+02  5.78898E+03  3.02426E+03  5.35622E+03  7.52784E+03
 -1.41871E+03  8.60481E+03 -7.76609E+03  6.64411E+03 -9.97610E+03  1.27919E+03 -8.08598E+03 -2.48925E+03
 -4.30848E+03 -6.70666E+03 -3.20086E+02 -5.09611E+03  2.07218E+03 -2.01458E+03  1.73811E+03 -2.15904E+03
  1.18589E+03 -1.50288E+03  2.24304E+03 -2.46793E+03  3.46324E+03 -1.15874E+03  3.32371E+03  3.72755E+02
  4.71370E+03  1.11528E+03  1.09594E+03  3.40737E+03 -1.67756E+03  2.79246E+03 -4.69483E+03  2.51898E+03
 -4.78927E+03 -9.41739E+02 -1.85288E+03 -2.92954E+03  4.75054E+02 -4.97278E+03  3.60002E+03 -5.41517E+03
  5.31012E+03 -3.02960E+03  6.58910E+03  9.76350E-01  5.10504E+03  4.02254E+03  1.21232E+03  6.06011E+03
 -1.99469E+03  5.61944E+03 -3.20480E+03  2.00448E+03 -1.92922E+03 -1.07487E+03 -3.29432E+02 -4.95737E+02
 -4.12233E+02  2.47192E+02 -8.35297E+02  1.99050E+03 -2.33346E+03  1.00703E+03 -4.01339E+03 -4.01987E+02
 -1.63377E+03 -3.72439E+03  6.91015E+02 -4.41495E+03  2.44851E+03 -4.60755E+03  3.45390E+03 -1.27030E+03
  4.18786E+03  2.66421E+03  1.86717E+03  3.28751E+03 -6.75367E+02  4.50077E+03 -2.31576E+03  2.58982E+03
 -3.61682E+03  7.95371E+02 -3.40897E+03 -2.06841E+03 -2.22041E+02 -3.02368E+03  1.67450E+03 -2.59797E+03
  2.71675E+03 -1.30351E+03  1.74159E+03  5.29110E+02  4.50825E+02  1.67919E+03  6.55554E+02  5.99691E+02
  1.59413E+03  6.55571E+02  1.11911E+03  9.64346E+02  1.08006E+03  2.09550E+03  1.30309E+03  1.75285E+03
 -1.32816E+03  2.48773E+03 -2.31400E+03  3.97286E+03 -3.04571E+03  1.27970E+03 -4.05157E+03 -3.20166E+02
 -1.45191E+03 -3.37160E+03  6.43919E+02 -4.67290E+03  1.73220E+03 -2.45756E+03  2.90198E+03 -1.02993E+03
  2.55431E+03  1.64629E+03  3.98409E+02  2.20346E+03 -4.88525E+02  1.54070E+03 -6.78479E+02  2.96852E+02
 -5.47064E+02 -1.34134E+03  1.22807E+03 -1.39579E+03  1.22365E+03 -6.70543E+02  1.32611E+03  4.34432E+02
  1.00331E+03  1.39235E+02  6.29616E+02 -2.79135E+02 -4.41948E+02  5.85686E+02  1.73144E+03 -1.97799E+02
 -1.47183E+01 -1.55781E+02  1.50889E+03  4.40238E+02  2.56723E+02  2.06128E+03 -3.95453E+02  2.79639E+03
 -1.52347E+03  7.95910E+02 -1.89156E+03  2.74175E+02 -2.14913E+03 -5.71780E+02 -2.29886E+02 -6.96495E+02
  3.98183E+02 -1.12536E+03  1.03260E+03 -7.17240E+02  7.70600E+02  1.41268E+03 -6.37167E+02  1.05993E+03
 -1.58970E+03  8.37871E+02 -9.54870E+02 -1.17710E+03 -6.44681E+02 -2.18028E+03  1.98802E+02 -1.74426E+03
  3.90962E+02 -5.68730E+02  4.51001E+02  3.43869E+02  9.75765E+02 -1.74876E+02  3.50342E+02  9.89102E+02
 -3.57743E+02  1.64537E+01 -8.19295E+02 -3.87525E+02  8.04127E+02 -7.93361E+02  1.68874E+03 -7.58728E+02
  1.09112E+03  4.12224E+02  2.52403E+03  8.02582E+02  1.02191E+03  1.45228E+03 -4.96745E+02  1.63108E+03
 -1.30371E+03  1.98412E+02 -1.30054E+03 -3.28579E+01 -1.04466E+03 -1.10554E+03  2.65668E+02 -2.99144E+02
  1.23927E+03 -4.19730E+02  7.63972E+02  5.03454E+02  1.55693E+02  1.07186E+03  3.31343E+02  9.92865E+02
 -6.36381E+00  1.14517E+03 -5.03729E+02  8.14213E+01 -1.64421E+01  3.67525E+02 -6.21364E+02  6.22997E+02
 -3.61597E+02  8.91522E+02 -1.78863E+03  4.48892E+02 -1.42430E+03  1.61127E+02 -2.36336E+03 -5.13731E+02
 -5.96753E+02 -1.86355E+03  3.78549E+02 -2.42131E+03  6.55266E+02 -2.04621E+03  2.29914E+03 -9.26341E+02
  1.88969E+03 -1.67956E+02  8.38558E+02  1.23732E+03 -7.03796E+02  1.03690E+03 -3.88506E+02  8.90106E+02
 -5.78141E+02  5.88019E+02 -4.63564E+02 -4.82966E+02 -2.57115E+02  3.82327E+02 -7.85910E+02  5.42473E+01
 -1.06957E+03  5.51408E+01 -8.83408E+02 -8.76588E+01  3.12152E+02 -4.81412E+02 -4.41870E+02 -8.61047E+02
  1.07453E+03 -3.51338E+02  2.35377E+02  1.19472E+02  8.93527E+02  7.20525E+02 -6.27341E+02  8.25841E+02
 -9.02076E+02  2.04514E+03 -1.44562E+03  1.10608E+03 -1.49552E+03 -5.09454E+01 -6.60007E+02 -8.45817E+02
 -9.79066E+02 -1.26705E+03  3.46945E+02 -1.31570E+03  3.76290E+02 -5.66191E+02  7.06702E+02 -1.22857E+00
  7.80644E+02  4.07029E+02  1.26240E+02  6.30609E+02 -2.92275E+02 -7.16024E+01  1.42818E+01 -6.16010E+01
  2.47736E+02  7.82385E+01  2.14342E+02  5.15424E+02  1.85285E+02  3.50859E+02  2.78243E+02  4.79652E+02
 -5.28358E+02  3.90457E+02 -4.47542E+02  5.10079E+01 -4.46026E+02  4.56024E+01 -1.12208E+02 -8.92709E+02
  5.61992E+02 -6.26734E+02  1.66681E+02  1.38177E+01  7.64349E+02 -5.89803E+02  5.68931E+02  7.01299E+02
  5.13663E+02  4.00659E+02 -1.88240E+02  4.18825E+02 -1.27877E+02  5.90682E+02 -3.74694E+02  2.20755E+02
 -8.94712E+01 -2.80889E+02 -4.81883E+02  1.48380E+02 -3.35730E+02  7.46116E+01 -7.16107E+02 -3.13897E+02
 -7.66839E+02  2.73732E+02 -1.03799E+02 -4.80761E+02  7.65560E+02 -1.19336E+03  7.16508E+02 -5.45904E+01
  5.67696E+02  5.22736E+01 -7.05167E+02  5.37187E+01 -1.06999E+02  6.66338E+02 -1.19939E+02  4.28023E+02
