 $NMID ID='MM_0lb_SNR800_13hz_g50_69.RAW', FMTDAT='(8E13.5)'
 TRAMP=1., VOLUME=1. $END
  3.10066E+05  4.19887E+02  3.37532E+05  2.50722E+05  8.46532E+04  3.38103E+05 -1.32765E+05  2.51498E+05
 -1.90420E+05  8.30902E+04 -1.11864E+05 -3.24712E+04  6.18542E+02 -5.07429E+04  5.37479E+04 -1.54826E+02
  3.57751E+04  5.27788E+04 -1.65503E+04  7.59270E+04 -6.10461E+04  6.37732E+04 -8.43665E+04  3.20367E+04
 -8.13383E+04 -1.14357E+04 -5.74761E+04 -5.14154E+04 -1.48438E+04 -6.99580E+04  2.76583E+04 -4.59245E+04
  4.04102E+04  3.96334E+03  1.62364E+04  4.81445E+04 -3.45574E+04  4.77607E+04 -6.71025E+04 -1.69365E+02
 -5.34652E+04 -5.71028E+04 -6.65017E+03 -7.74140E+04  3.41885E+04 -5.55282E+04  4.79922E+04 -1.76355E+04
  4.37957E+04  1.16948E+04  3.19286E+04  2.57781E+04  1.59542E+04  2.94950E+04 -5.50527E+03  2.73246E+04
 -2.17820E+04  1.23632E+04 -1.81511E+04 -5.13105E+03  5.84866E+03 -7.52035E+03  2.25380E+04  1.28778E+04
  7.24072E+03  3.58837E+04 -3.26247E+04  3.60154E+04 -6.37100E+04  2.24422E+03 -5.76356E+04 -4.29832E+04
 -1.25883E+04 -6.39167E+04  4.02852E+04 -4.57002E+04  5.88919E+04 -2.28540E+03  3.46375E+04  3.28772E+04
 -6.31506E+03  3.69064E+04 -3.02960E+04  1.62881E+04 -3.11206E+04 -4.33188E+03 -1.72027E+04 -1.09037E+04
 -8.68758E+03 -1.35970E+04 -7.60814E+02 -1.86569E+04  8.18141E+03 -2.30456E+04  1.54656E+04 -1.29459E+04
  1.09902E+04  5.54122E+03 -8.89750E+03  1.30118E+04 -2.18158E+04 -4.65842E+03 -8.00549E+03 -3.43598E+04
  2.33812E+04 -4.43189E+04  4.89390E+04 -2.00377E+04  4.56672E+04  1.97726E+04  1.59049E+04  4.50586E+04
 -1.59889E+04  3.40120E+04 -2.58770E+04  2.01479E+03 -1.01732E+04 -2.79155E+04  2.16183E+04 -3.45915E+04
  4.17612E+04 -9.51465E+03  3.65484E+04  2.39036E+04  1.89790E+04  4.76328E+04 -7.99142E+03  5.16704E+04
 -3.26798E+04  3.48698E+04 -4.34907E+04  9.85886E+03 -4.39461E+04 -1.71226E+04 -2.40721E+04 -3.87079E+04
  7.18105E+03 -3.89009E+04  3.20119E+04 -1.54479E+04  2.99024E+04  1.11489E+04  4.16872E+03  1.96252E+04
 -1.34846E+04  8.50527E+03 -1.05301E+04 -7.59542E+03  5.95021E+03 -1.08225E+04  1.80390E+04  5.92246E+03
  1.35424E+04  2.22568E+04 -5.85612E+03  2.55058E+04 -2.24631E+04  1.20647E+04 -2.87113E+04 -4.36952E+03
 -2.17956E+04 -1.75441E+04 -9.28096E+03 -2.13338E+04  4.09952E+03 -2.07148E+04  1.66843E+04 -1.94207E+04
  2.74645E+04 -1.30136E+04  3.35800E+04  3.20295E+03  2.45074E+04  2.09267E+04  4.19371E+03  3.74796E+04
 -1.81099E+04  3.09527E+04 -2.87788E+04  1.07390E+04 -2.12027E+04 -1.01360E+04 -4.33037E+03 -1.34864E+04
  1.67381E+03 -2.71933E+03 -5.75957E+03  7.28856E+03 -1.68388E+04  5.07717E+03 -1.69585E+04 -7.46318E+03
 -1.04048E+04 -1.94137E+04  5.14627E+03 -2.43283E+04  1.63591E+04 -1.72179E+04  1.89397E+04 -1.62730E+03
  1.18685E+04  1.36047E+04 -7.92044E+02  1.98512E+04 -1.40037E+04  1.13991E+04 -1.99844E+04 -3.94897E+03
 -1.45290E+04 -1.74681E+04 -1.80606E+03 -2.43059E+04  1.08809E+04 -1.95146E+04  1.97103E+04 -1.01818E+04
  1.86847E+04  1.31703E+02  1.34614E+04  4.30301E+03  7.15343E+03  9.88528E+02  1.02884E+04 -1.68528E+03
  1.83806E+04  2.78985E+03  2.06646E+04  1.55563E+04  1.34989E+04  3.19239E+04 -2.57072E+03  3.62101E+04
 -2.08415E+04  2.95905E+04 -3.40551E+04  1.47026E+04 -3.56303E+04 -2.44841E+03 -2.94108E+04 -2.08352E+04
 -1.24203E+04 -2.93503E+04  9.78712E+03 -2.61962E+04  2.25829E+04 -1.29743E+04  2.01821E+04  5.71228E+03
  7.34288E+03  1.52493E+04 -9.24467E+03  1.33500E+04 -1.71282E+04  2.08182E+03 -1.29241E+04 -1.06349E+04
 -2.95033E+02 -1.63982E+04  8.85817E+03 -1.19605E+04  1.08150E+04 -1.30229E+03  2.36135E+03  6.85981E+03
 -7.11741E+03  3.10668E+03 -6.45729E+03 -5.92663E+03 -6.19268E+02 -1.41598E+04  1.01058E+04 -1.53794E+04
  1.78964E+04 -8.39666E+03  1.94375E+04  2.87760E+03  1.71288E+04  1.42378E+04  8.00807E+03  2.25066E+04
 -3.86611E+03  2.38440E+04 -1.52459E+04  1.52323E+04 -1.70117E+04  3.34781E+03 -1.20570E+04 -4.06072E+03
 -5.47566E+03 -5.58983E+03 -6.54495E+02  9.34535E+02 -2.04684E+03  2.73918E+03 -5.89542E+03  4.79642E+03
 -1.14603E+04 -1.04747E+03 -1.17862E+04 -9.55313E+03 -4.63530E+03 -1.58119E+04  5.38875E+03 -1.26438E+04
  1.00415E+04 -5.03636E+03  7.17478E+03  3.69522E+03 -2.03685E+01  4.84622E+03 -5.87301E+03  2.72356E+01
 -5.80000E+03 -7.94827E+03 -9.56457E+02 -1.17070E+04  6.33381E+03 -1.24793E+04  1.50918E+04 -6.52064E+03
  1.75556E+04  1.50689E+03  1.28644E+04  1.05822E+04  2.65082E+03  1.40603E+04 -7.52444E+03  1.20975E+04
 -9.57386E+03  3.60054E+03 -5.15614E+03 -2.35985E+03  1.83808E+03 -3.28528E+03  6.32128E+03 -1.07671E+03
  6.02454E+03  5.02939E+03  1.32798E+03  9.36614E+03 -6.50150E+03  9.26572E+03 -1.17341E+04  2.20181E+03
 -7.85121E+03 -6.11193E+03  1.01550E+02 -9.85009E+03  6.20245E+03 -5.26454E+03  6.31716E+03  2.31267E+03
  1.00199E+03  6.59441E+03 -6.06863E+03  8.31235E+03 -9.15666E+03  4.03041E+03 -9.11824E+03 -2.81067E+03
 -5.29565E+03 -1.10068E+04  2.38576E+03 -1.24861E+04  1.05202E+04 -7.88731E+03  1.18214E+04  2.16546E+03
  7.45908E+03  9.20674E+03 -5.12894E+02  1.14029E+04 -8.43701E+03  6.39565E+03 -8.90412E+03 -8.75822E+02
 -8.34952E+03 -7.67350E+03 -1.83077E+03 -8.53874E+03  4.30293E+03 -7.07492E+03  5.44410E+03 -3.14007E+03
  3.96155E+03  1.28710E+03 -6.90214E+02  1.71768E+03 -2.04495E+02 -1.81199E+03  1.05855E+03 -4.73641E+03
  7.69221E+03 -3.04883E+03  1.04538E+04  1.36598E+03  1.04951E+04  7.06923E+03  7.52056E+03  1.36484E+04
 -3.38219E+03  1.59142E+04 -1.34065E+04  1.16223E+04 -1.77302E+04  2.33665E+03 -1.41276E+04 -5.73995E+03
 -7.09431E+03 -1.19164E+04 -5.68345E+02 -9.77594E+03  3.52436E+03 -5.14701E+03  3.41538E+03 -3.77233E+03
  2.49101E+03 -2.22237E+03  3.31781E+03 -3.05156E+03  4.91318E+03 -2.50956E+03  5.47532E+03 -5.51876E+02
  7.76951E+03  1.77716E+03  3.16983E+03  6.40080E+03 -1.45314E+03  6.95189E+03 -7.50789E+03  5.65033E+03
 -9.47976E+03 -1.21185E+03 -5.46964E+03 -6.91203E+03 -3.16289E+02 -9.71090E+03  5.98599E+03 -1.00032E+04
  1.07140E+04 -5.95792E+03  1.28468E+04  1.48012E+03  8.82770E+03  8.55734E+03  1.64403E+03  1.16167E+04
 -4.30312E+03  9.91659E+03 -6.84716E+03  3.48590E+03 -4.16566E+03 -1.34037E+03 -2.17310E+03 -1.62338E+03
 -9.16709E+02  2.40048E+02 -1.33002E+03  2.50499E+03 -4.16556E+03  1.70997E+03 -7.08239E+03 -1.03696E+03
 -4.03180E+03 -7.15243E+03  3.11743E+02 -9.24643E+03  5.74901E+03 -8.86818E+03  8.75681E+03 -2.58602E+03
  8.83448E+03  4.74777E+03  4.23737E+03  8.03661E+03 -1.62258E+03  9.21319E+03 -6.60856E+03  5.59034E+03
 -8.41677E+03  7.43341E+02 -6.65402E+03 -5.70407E+03 -6.79565E+02 -7.34628E+03  3.75673E+03 -5.41911E+03
  5.71706E+03 -2.39955E+03  4.01753E+03  1.61307E+03  1.23289E+03  2.77138E+03  8.91858E+02  1.09096E+03
  1.97680E+03  1.01560E+03  2.40805E+03  1.74901E+03  2.54779E+03  3.63836E+03  2.50188E+03  4.33966E+03
 -2.28831E+03  6.83238E+03 -6.06616E+03  7.45525E+03 -8.02995E+03  2.10958E+03 -9.35201E+03 -3.04498E+03
 -4.22357E+03 -8.54606E+03  1.25558E+03 -9.75500E+03  4.85902E+03 -6.15173E+03  7.24349E+03 -1.66925E+03
  5.53593E+03  3.53980E+03  1.19100E+03  5.14884E+03 -2.35656E+03  3.17452E+03 -3.34496E+03 -1.69700E+02
 -1.82470E+03 -3.60739E+03  2.22849E+03 -3.68312E+03  3.37597E+03 -1.95450E+03  3.50145E+03  7.44099E+02
  2.03495E+03  1.55274E+03  8.15396E+02  9.46427E+02 -6.20313E+02  1.40586E+03  1.62736E+03 -4.81561E+02
  1.06627E+03 -7.97026E+02  3.69702E+03  1.49365E+03  1.95709E+03  4.98950E+03 -9.17038E+02  6.47789E+03
 -4.15330E+03  3.68115E+03 -5.24380E+03  8.01569E+02 -5.01726E+03 -1.96185E+03 -1.29538E+03 -3.32754E+03
  5.81006E+02 -3.33649E+03  2.11261E+03 -1.90040E+03  1.83678E+03  1.96043E+03 -9.95788E+02  2.78372E+03
 -3.39764E+03  1.67231E+03 -3.71649E+03 -2.19993E+03 -2.02357E+03 -4.81204E+03  5.36294E+02 -4.26029E+03
  2.48714E+03 -2.44346E+03  2.96294E+03 -8.93734E+01  2.67753E+03  5.53938E+02  3.83231E+02  2.42662E+03
 -1.64827E+03  6.75287E+02 -1.97149E+03 -1.50126E+03  1.08559E+03 -2.99351E+03  4.24404E+03 -2.65279E+03
  4.28018E+03  4.00067E+02  5.35408E+03  3.05746E+03  1.78206E+03  5.04678E+03 -1.71546E+03  4.93190E+03
 -4.31443E+03  1.89706E+03 -4.70548E+03 -6.98471E+02 -2.25677E+03 -3.32787E+03  7.96305E+02 -2.83283E+03
  3.75016E+03 -1.42687E+03  2.56859E+03  1.64170E+03  6.04295E+02  2.88088E+03 -3.58144E+02  2.57316E+03
 -1.16729E+03  2.05208E+03 -1.55739E+03  1.12402E+02 -6.35584E+02  7.33692E+02 -1.23383E+03  1.05272E+03
 -1.41412E+03  2.42807E+03 -3.75254E+03  1.66518E+03 -4.94487E+03  4.82827E+02 -6.20058E+03 -3.13971E+03
 -2.96672E+03 -6.44934E+03  1.26068E+03 -7.85221E+03  4.50449E+03 -6.48637E+03  6.84918E+03 -2.44691E+03
  6.41336E+03  9.17722E+02  3.52173E+03  4.60527E+03 -2.99795E+02  4.84137E+03 -1.96583E+03  3.83436E+03
 -2.69103E+03  1.65932E+03 -1.89294E+03 -8.13426E+02 -7.79376E+02  4.07298E+01 -5.38109E+02  6.25841E+01
 -1.49945E+03  2.15752E+02 -1.03514E+03 -4.23577E+02 -1.23998E+02 -1.41146E+03  7.75646E+01 -2.05208E+03
  2.63191E+03 -1.52628E+03  2.61460E+03  4.67094E+02  3.29695E+03  2.88816E+03  3.98641E+02  4.55661E+03
 -2.31390E+03  6.16594E+03 -5.15028E+03  3.57330E+03 -6.10409E+03 -5.40225E+02 -4.69634E+03 -3.82375E+03
 -2.00028E+03 -4.99601E+03  1.34552E+03 -4.77376E+03  2.92021E+03 -2.02662E+03  3.06127E+03  1.83112E+02
  1.73883E+03  1.22631E+03 -2.43291E+02  1.43788E+03 -1.05749E+03 -5.71878E+00 -2.16965E+02 -1.04383E+03
  1.40315E+03 -1.66816E+02  1.56298E+03  6.13846E+02  1.41491E+03  1.86334E+03  3.11350E+01  2.21651E+03
 -2.37736E+03  2.11135E+03 -3.14374E+03  3.48891E+02 -2.68726E+03 -2.08799E+03 -1.14410E+02 -3.76482E+03
  1.94068E+03 -3.38032E+03  3.25568E+03 -1.18550E+03  3.20601E+03  4.67712E+02  1.89252E+03  2.71500E+03
  5.46359E+02  2.83495E+03 -9.07898E+02  2.45039E+03 -2.20692E+03  1.57444E+03 -1.53750E+03  2.93890E+02
 -1.04137E+03  1.00374E+02 -1.21685E+03  4.54787E+02 -1.65835E+03  4.52068E+02 -2.24131E+03 -5.09889E+02
 -2.47213E+03 -1.02437E+03 -5.56210E+02 -2.96514E+03  1.56083E+03 -3.62908E+03  2.64790E+03 -1.72954E+03
  2.53937E+03  2.07826E+02  6.70460E+02  1.92813E+03  4.79077E+01  2.92247E+03 -2.08933E+03  1.76107E+03
