 $NMID ID='MM_0lb_SNR800_7hz_g45_91.RAW', FMTDAT='(8E13.5)'
 TRAMP=1., VOLUME=1. $END
  3.09683E+05  5.75680E+02  3.37978E+05  2.50983E+05  8.50582E+04  3.38637E+05 -1.32244E+05  2.51727E+05
 -1.91245E+05  8.39127E+04 -1.12544E+05 -3.20811E+04  1.89239E+02 -5.04088E+04  5.35831E+04 -6.53418E+02
  3.59381E+04  5.29524E+04 -1.62478E+04  7.62182E+04 -6.14661E+04  6.42490E+04 -8.57257E+04  3.24993E+04
 -8.29800E+04 -1.17115E+04 -5.85779E+04 -5.31557E+04 -1.52897E+04 -7.11961E+04  2.79993E+04 -4.70652E+04
  4.15406E+04  3.70928E+03  1.63669E+04  4.88412E+04 -3.49385E+04  4.86066E+04 -6.80434E+04  2.17065E+02
 -5.52000E+04 -5.84864E+04 -7.69779E+03 -7.94292E+04  3.52294E+04 -5.77707E+04  5.05792E+04 -1.87823E+04
  4.56481E+04  1.15912E+04  3.30206E+04  2.67688E+04  1.61303E+04  3.10747E+04 -5.72917E+03  2.84528E+04
 -2.27571E+04  1.19155E+04 -1.78165E+04 -5.87851E+03  7.46708E+03 -7.02179E+03  2.38322E+04  1.46977E+04
  7.19894E+03  3.83620E+04 -3.44673E+04  3.72605E+04 -6.66677E+04  1.82742E+03 -5.99568E+04 -4.50328E+04
 -1.22203E+04 -6.63079E+04  4.22934E+04 -4.82021E+04  6.23415E+04 -2.94213E+03  3.71642E+04  3.51636E+04
 -5.51984E+03  4.04968E+04 -3.25074E+04  2.00022E+04 -3.43884E+04 -3.54677E+03 -2.00254E+04 -1.25904E+04
 -9.82308E+03 -1.61049E+04 -3.68861E+02 -2.01389E+04  8.94355E+03 -2.38255E+04  1.61819E+04 -1.23808E+04
  9.85507E+03  6.59441E+03 -1.09846E+04  1.29868E+04 -2.41907E+04 -7.77351E+03 -8.40821E+03 -3.85106E+04
  2.62613E+04 -4.82001E+04  5.34807E+04 -2.09058E+04  4.99702E+04  2.09027E+04  1.78028E+04  4.73035E+04
 -1.73969E+04  3.69854E+04 -2.88024E+04  3.42112E+03 -1.20341E+04 -2.95193E+04  2.18445E+04 -3.78298E+04
  4.57698E+04 -1.12863E+04  4.18061E+04  2.54652E+04  2.20652E+04  5.23788E+04 -8.59075E+03  5.80329E+04
 -3.63396E+04  3.95314E+04 -4.95212E+04  1.17528E+04 -4.90636E+04 -1.89660E+04 -2.71685E+04 -4.35384E+04
  7.66612E+03 -4.32707E+04  3.50232E+04 -1.80450E+04  3.31330E+04  1.09051E+04  5.61084E+03  2.15348E+04
 -1.37698E+04  1.03765E+04 -1.11930E+04 -7.47448E+03  5.66314E+03 -1.14233E+04  1.90623E+04  5.13053E+03
  1.56745E+04  2.29312E+04 -4.97754E+03  2.77768E+04 -2.39925E+04  1.51971E+04 -3.27239E+04 -2.15365E+03
 -2.70444E+04 -1.89384E+04 -1.25985E+04 -2.67446E+04  4.30679E+03 -2.80817E+04  2.11765E+04 -2.41213E+04
  3.44147E+04 -1.46109E+04  4.02745E+04  5.09622E+03  2.80845E+04  2.64175E+04  4.30876E+03  4.31936E+04
 -2.12568E+04  3.51154E+04 -3.14932E+04  1.28336E+04 -2.31990E+04 -9.95083E+03 -4.88095E+03 -1.25031E+04
  3.80333E+01 -7.33372E+02 -8.47463E+03  9.15218E+03 -2.14752E+04  5.12338E+03 -2.15966E+04 -1.05877E+04
 -1.23432E+04 -2.49732E+04  6.39566E+03 -2.93906E+04  1.99900E+04 -2.10555E+04  2.44868E+04 -1.92707E+03
  1.54221E+04  1.69071E+04 -1.20407E+03  2.47901E+04 -1.77020E+04  1.46210E+04 -2.54475E+04 -4.72387E+03
 -1.84104E+04 -2.26987E+04 -1.95840E+03 -2.98823E+04  1.37415E+04 -2.54953E+04  2.44952E+04 -1.34782E+04
  2.34024E+04 -7.61251E+02  1.70705E+04  5.64013E+03  9.37194E+03  1.85545E+03  1.28133E+04 -2.23735E+03
  2.39410E+04  2.97757E+03  2.80724E+04  1.89923E+04  1.89620E+04  4.03931E+04 -2.65847E+03  4.76491E+04
 -2.72957E+04  3.99012E+04 -4.52524E+04  2.10465E+04 -4.85504E+04 -3.23916E+03 -3.90825E+04 -2.83767E+04
 -1.52907E+04 -4.09943E+04  1.51120E+04 -3.53845E+04  3.02154E+04 -1.64097E+04  2.61375E+04  8.43202E+03
  8.09268E+03  2.07238E+04 -1.26233E+04  1.64973E+04 -2.17292E+04  2.75874E+03 -1.65195E+04 -1.43269E+04
 -7.34418E+02 -2.05093E+04  1.11471E+04 -1.53932E+04  1.43843E+04 -1.39348E+03  3.71413E+03  9.77938E+03
 -9.56120E+03  4.97002E+03 -9.94244E+03 -7.42146E+03 -2.78348E+03 -2.02281E+04  1.26925E+04 -2.17325E+04
  2.50606E+04 -1.28700E+04  2.95221E+04  2.87487E+03  2.54417E+04  2.07734E+04  1.22532E+04  3.23138E+04
 -6.60130E+03  3.48156E+04 -2.22881E+04  2.11198E+04 -2.52028E+04  4.87128E+03 -1.67996E+04 -6.78797E+03
 -6.50404E+03 -8.18139E+03 -8.79938E+02 -9.59030E+01 -2.87952E+03  3.67794E+03 -8.74508E+03  5.90225E+03
 -1.53288E+04 -7.82919E+02 -1.62558E+04 -1.30937E+04 -6.60445E+03 -2.09549E+04  7.10566E+03 -1.74144E+04
  1.40872E+04 -7.55528E+03  1.04212E+04  4.78202E+03 -3.14794E+02  6.63156E+03 -9.17397E+03 -6.08784E+02
 -8.56769E+03 -1.13387E+04 -1.24202E+03 -1.74953E+04  1.00594E+04 -1.86677E+04  2.25198E+04 -9.98339E+03
  2.65139E+04  2.86771E+03  1.89668E+04  1.61527E+04  3.61198E+03  2.15105E+04 -1.10437E+04  1.71535E+04
 -1.39093E+04  4.82275E+03 -7.37469E+03 -3.85324E+03  2.68227E+03 -4.99001E+03  9.24401E+03 -1.08986E+03
  8.28526E+03  7.25676E+03  1.10857E+03  1.40819E+04 -1.03752E+04  1.34605E+04 -1.79465E+04  3.10005E+03
 -1.22594E+04 -9.38619E+03  3.15464E+02 -1.49083E+04  9.92193E+03 -7.95428E+03  1.07682E+04  4.31087E+03
  2.72063E+03  1.18021E+04 -9.08715E+03  1.33876E+04 -1.59021E+04  5.92105E+03 -1.64340E+04 -5.87478E+03
 -9.56860E+03 -1.80133E+04  4.75481E+03 -2.13831E+04  1.79319E+04 -1.23512E+04  1.94306E+04  3.76732E+03
  1.16324E+04  1.54934E+04 -2.16985E+03  1.81569E+04 -1.30664E+04  9.77180E+03 -1.49187E+04 -1.64924E+03
 -1.20348E+04 -1.20807E+04 -1.47141E+03 -1.39033E+04  7.40048E+03 -1.05566E+04  8.67435E+03 -4.23105E+03
  5.42714E+03  2.98199E+03 -1.40135E+03  1.69261E+03 -1.29069E+03 -4.42795E+03  3.34811E+03 -9.23289E+03
  1.33463E+04 -6.55443E+03  1.88644E+04  1.81729E+03  1.87322E+04  1.36694E+04  1.15313E+04  2.44645E+04
 -6.10822E+03  2.78468E+04 -2.33988E+04  2.06091E+04 -3.00251E+04  4.13975E+03 -2.38770E+04 -1.07168E+04
 -1.20959E+04 -1.97788E+04 -5.25617E+02 -1.69447E+04  6.08426E+03 -1.02809E+04  6.16298E+03 -6.25791E+03
  4.07907E+03 -3.63459E+03  4.40804E+03 -4.34170E+03  6.78960E+03 -3.99670E+03  9.52758E+03 -2.26665E+03
  1.30205E+04  2.94987E+03  6.86305E+03  1.09581E+04 -2.84601E+03  1.33067E+04 -1.31344E+04  1.03885E+04
 -1.76666E+04 -1.57917E+03 -1.19822E+04 -1.23410E+04 -1.93793E+03 -1.90886E+04  1.04826E+04 -1.90590E+04
  2.00307E+04 -1.05175E+04  2.32042E+04  4.03524E+03  1.59826E+04  1.66174E+04  2.71814E+03  2.13817E+04
 -8.86479E+03  1.65489E+04 -1.27013E+04  6.00431E+03 -8.74142E+03 -2.46050E+03 -3.88515E+03 -2.71070E+03
 -1.56823E+03 -2.82701E+02 -2.31455E+03  3.47576E+03 -7.45324E+03  2.86883E+03 -1.18631E+04 -1.90118E+03
 -9.56274E+03 -1.17874E+04 -4.06893E+02 -1.73369E+04  1.16834E+04 -1.61552E+04  1.75978E+04 -5.36288E+03
  1.79538E+04  8.25533E+03  8.53699E+03  1.62987E+04 -3.60751E+03  1.80148E+04 -1.34546E+04  1.13681E+04
 -1.72964E+04  6.80402E+02 -1.35617E+04 -1.11173E+04 -1.43118E+03 -1.53383E+04  7.72631E+03 -1.13767E+04
  1.17384E+04 -3.48667E+03  8.75982E+03  3.44169E+03  3.51137E+03  5.03760E+03  1.74679E+03  2.58192E+03
  3.28238E+03  9.86116E+02  4.03810E+03  2.04344E+03  5.95786E+03  6.07727E+03  4.68371E+03  9.84090E+03
 -3.68345E+03  1.44984E+04 -1.32925E+04  1.45851E+04 -1.90255E+04  4.08886E+03 -1.94011E+04 -8.26319E+03
 -9.54879E+03 -1.90085E+04  3.01003E+03 -2.02995E+04  1.16227E+04 -1.32694E+04  1.55728E+04 -3.22806E+03
  1.17013E+04  7.37567E+03  3.25751E+03  1.05021E+04 -5.44377E+03  7.35116E+03 -7.85453E+03 -1.57843E+03
 -3.50017E+03 -8.46054E+03  4.74962E+03 -8.38082E+03  8.43853E+03 -3.87819E+03  7.59320E+03  1.49108E+03
  5.02874E+03  4.12349E+03  1.79579E+03  3.42646E+03 -8.95273E+02  2.23644E+03  2.24451E+03 -8.54784E+02
  3.26771E+03 -1.23017E+03  7.67124E+03  3.16825E+03  4.58844E+03  9.81505E+03 -1.03727E+03  1.34671E+04
 -9.15408E+03  9.84996E+03 -1.28556E+04  2.65020E+03 -1.13324E+04 -4.71905E+03 -4.64830E+03 -8.08186E+03
  1.38877E+03 -7.98069E+03  5.51799E+03 -3.77085E+03  4.52790E+03  3.33502E+03 -1.78909E+03  6.54834E+03
 -8.20142E+03  3.61929E+03 -9.46522E+03 -4.64875E+03 -5.61642E+03 -1.07898E+04  1.96290E+03 -1.09770E+04
  6.83549E+03 -6.18921E+03  8.19244E+03 -7.97847E+02  6.77348E+03  3.32880E+03  8.27173E+02  6.23979E+03
 -4.03791E+03  2.17762E+03 -4.36750E+03 -3.81976E+03  1.89249E+03 -8.59727E+03  1.01332E+04 -7.04263E+03
  1.31478E+04  4.94260E+02  1.17934E+04  8.66665E+03  3.57109E+03  1.30227E+04 -4.93773E+03  1.25277E+04
 -1.06081E+04  5.50573E+03 -1.10916E+04 -1.35103E+03 -6.01068E+03 -8.82403E+03  1.94724E+03 -8.41895E+03
  8.20311E+03 -3.84705E+03  7.01690E+03  3.07438E+03  2.18181E+03  7.06868E+03 -1.09693E+03  6.26633E+03
 -3.40626E+03  4.18630E+03 -3.24139E+03  1.47102E+03 -1.98829E+03  1.10496E+03 -1.62627E+03  2.69721E+03
 -3.33298E+03  5.00218E+03 -8.86798E+03  4.68953E+03 -1.34645E+04 -2.90570E+02 -1.47489E+04 -9.03684E+03
 -7.86223E+03 -1.79585E+04  3.11849E+03 -2.02700E+04  1.29222E+04 -1.62181E+04  1.92314E+04 -6.42805E+03
  1.82987E+04  4.04022E+03  1.11754E+04  1.26946E+04  1.30667E+03  1.42707E+04 -5.66557E+03  1.02630E+04
 -8.46929E+03  3.35538E+03 -4.67484E+03 -1.99777E+03 -1.27411E+03 -1.72231E+03 -1.15176E+03 -3.74407E+02
 -2.18927E+03  6.77776E+02 -2.87900E+03 -9.41687E+02 -1.49542E+03 -2.97551E+03  5.30172E+02 -4.84263E+03
  6.09182E+03 -4.57234E+03  8.73800E+03  3.02118E+02  9.72455E+03  7.59383E+03  2.78837E+03  1.45547E+04
 -6.17007E+03  1.64735E+04 -1.53036E+04  9.57309E+03 -1.76948E+04 -1.02595E+03 -1.29826E+04 -1.06724E+04
 -5.59017E+03 -1.48062E+04  3.48992E+03 -1.39315E+04  9.46839E+03 -7.42805E+03  9.77472E+03  1.63799E+02
  5.50308E+03  4.43864E+03 -6.99942E+02  4.08178E+03 -3.04844E+03 -1.26010E+02 -7.34418E+01 -3.54324E+03
  4.14985E+03 -1.95851E+03  5.66741E+03  1.75070E+03  3.74514E+03  5.88367E+03  7.44326E+02  7.96298E+03
 -6.61329E+03  6.83583E+03 -1.03450E+04  7.54819E+02 -8.89637E+03 -7.19189E+03 -1.60864E+03 -1.26531E+04
  7.32755E+03 -1.04540E+04  1.17124E+04 -3.18052E+03  1.14798E+04  3.13469E+03  6.36407E+03  9.22020E+03
  8.86064E+02  9.99710E+03 -4.09267E+03  7.78469E+03 -6.54472E+03  4.34445E+03 -5.49726E+03  3.30262E+02
 -2.69786E+03 -2.24107E+02 -3.13471E+03  1.41456E+03 -4.90007E+03  1.32997E+03 -7.55756E+03 -9.13974E+02
 -7.36736E+03 -5.71904E+03 -2.55903E+03 -1.03165E+04  4.36410E+03 -1.03731E+04  8.87009E+03 -5.35256E+03
  9.47057E+03  9.86087E+02  5.89196E+03  7.76695E+03 -6.55752E+02  1.01622E+04 -7.82475E+03  6.39221E+03
