 $NMID ID='MM_0lb_SNR800_20hz_g40_29.RAW', FMTDAT='(8E13.5)'
 TRAMP=1., VOLUME=1. $END
  3.09716E+05  5.02895E+02  3.36914E+05  2.50296E+05  8.43048E+04  3.36864E+05 -1.32319E+05  2.49790E+05
 -1.89360E+05  8.19290E+04 -1.10398E+05 -3.29207E+04  1.97648E+03 -5.04049E+04  5.39689E+04  6.16012E+02
  3.47309E+04  5.29998E+04 -1.72912E+04  7.47122E+04 -6.02210E+04  6.21380E+04 -8.24417E+04  3.15674E+04
 -7.87954E+04 -1.09804E+04 -5.57461E+04 -4.94865E+04 -1.47189E+04 -6.77750E+04  2.63186E+04 -4.43661E+04
  3.87494E+04  3.76854E+03  1.51847E+04  4.66524E+04 -3.36523E+04  4.54659E+04 -6.45677E+04 -6.08691E+02
 -5.11894E+04 -5.55349E+04 -6.06885E+03 -7.42609E+04  3.25154E+04 -5.22038E+04  4.50782E+04 -1.59817E+04
  4.05866E+04  1.08920E+04  3.00890E+04  2.39515E+04  1.58268E+04  2.75507E+04 -4.34435E+03  2.64104E+04
 -2.17007E+04  1.28097E+04 -1.95565E+04 -4.00201E+03  3.54132E+03 -7.54394E+03  2.09052E+04  1.04222E+04
  7.75467E+03  3.21913E+04 -2.94338E+04  3.32121E+04 -5.97603E+04  1.93101E+03 -5.41865E+04 -4.04545E+04
 -1.22148E+04 -5.94523E+04  3.70166E+04 -4.22434E+04  5.42999E+04 -1.90936E+03  3.07886E+04  2.94697E+04
 -6.78599E+03  3.13882E+04 -2.78352E+04  1.19878E+04 -2.62487E+04 -5.88029E+03 -1.34900E+04 -9.52293E+03
 -6.94664E+03 -1.05633E+04 -1.48005E+03 -1.56977E+04  6.18948E+03 -2.23133E+04  1.47568E+04 -1.40939E+04
  1.23283E+04  3.79400E+03 -5.14335E+03  1.30024E+04 -1.81530E+04 -1.50703E+03 -7.76443E+03 -2.86072E+04
  1.97030E+04 -3.89720E+04  4.29525E+04 -1.79149E+04  4.03524E+04  1.75420E+04  1.34932E+04  4.05715E+04
 -1.48837E+04  2.97828E+04 -2.23541E+04  9.21666E+02 -7.42167E+03 -2.56072E+04  2.02215E+04 -2.99972E+04
  3.65023E+04 -6.60091E+03  2.96419E+04  2.23046E+04  1.40984E+04  4.05765E+04 -7.66516E+03  4.25106E+04
 -2.66409E+04  2.80591E+04 -3.51774E+04  7.82560E+03 -3.61699E+04 -1.43787E+04 -2.01589E+04 -3.27216E+04
  6.96860E+03 -3.23368E+04  2.82381E+04 -1.18762E+04  2.56574E+04  1.06843E+04  2.50362E+03  1.69784E+04
 -1.26324E+04  6.80036E+03 -9.22202E+03 -7.99449E+03  6.29073E+03 -9.70373E+03  1.70442E+04  6.28924E+03
  1.19972E+04  2.15320E+04 -6.95515E+03  2.25492E+04 -2.11048E+04  8.12233E+03 -2.38476E+04 -7.08341E+03
 -1.50342E+04 -1.59664E+04 -4.33461E+03 -1.50851E+04  3.59537E+03 -1.24104E+04  1.12195E+04 -1.28081E+04
  1.90158E+04 -1.11225E+04  2.62795E+04  3.39320E+02  2.03002E+04  1.46420E+04  3.88906E+03  3.07760E+04
 -1.53088E+04  2.62643E+04 -2.48178E+04  9.01467E+03 -1.91481E+04 -1.04397E+04 -3.64310E+03 -1.40791E+04
  2.89534E+03 -4.61545E+03 -1.80481E+03  4.76402E+03 -1.16216E+04  5.37894E+03 -1.20271E+04 -4.00664E+03
 -7.71179E+03 -1.40343E+04  4.17868E+03 -1.76842E+04  1.11926E+04 -1.29797E+04  1.29054E+04 -1.60713E+03
  7.85635E+03  9.55464E+03 -5.09514E+02  1.43288E+04 -9.13254E+03  7.88870E+03 -1.40329E+04 -3.24596E+03
 -1.05803E+04 -1.29437E+04 -1.24592E+03 -1.72472E+04  8.06264E+03 -1.36876E+04  1.46838E+04 -6.05989E+03
  1.31567E+04  7.10066E+02  9.29718E+03  3.30099E+03  4.79276E+03  5.11943E+02  6.84911E+03 -1.14785E+03
  1.25846E+04  2.69669E+03  1.27224E+04  1.19163E+04  7.46369E+03  2.23783E+04 -3.10695E+03  2.32789E+04
 -1.40349E+04  1.74401E+04 -2.15171E+04  8.02728E+03 -2.13490E+04 -1.65021E+03 -1.87445E+04 -1.23699E+04
 -8.96913E+03 -1.75164E+04  5.71796E+03 -1.68406E+04  1.49110E+04 -1.01317E+04  1.39977E+04  3.08125E+03
  6.17951E+03  9.93042E+03 -6.47963E+03  9.62320E+03 -1.22053E+04  2.73144E+03 -9.51886E+03 -7.26808E+03
 -4.10439E+02 -1.12194E+04  5.43245E+03 -8.56362E+03  6.90293E+03 -1.28588E+03  9.46557E+02  4.32294E+03
 -4.81781E+03  9.31003E+02 -2.94079E+03 -4.11180E+03  8.17434E+02 -9.00198E+03  7.21208E+03 -8.52757E+03
  1.05149E+04 -3.70086E+03  9.78201E+03  2.54346E+03  8.48264E+03  8.01990E+03  4.41716E+03  1.15919E+04
 -1.14199E+03  1.38006E+04 -8.14087E+03  8.77856E+03 -9.32429E+03  2.75462E+03 -7.18137E+03 -1.55996E+03
 -4.24631E+03 -2.79748E+03 -1.05518E+03  1.66750E+03 -1.91234E+03  1.99046E+03 -3.03805E+03  3.24759E+03
 -6.98827E+03 -3.84820E+02 -8.12483E+03 -6.25642E+03 -3.31158E+03 -1.02547E+04  3.10379E+03 -7.24092E+03
  6.14036E+03 -3.30969E+03  4.53724E+03  1.98679E+03  7.49181E+02  2.54280E+03 -3.00048E+03  7.10009E+01
 -2.73523E+03 -4.56453E+03 -8.73702E+02 -6.06404E+03  3.03205E+03 -6.72399E+03  8.42635E+03 -3.41762E+03
  1.01508E+04  4.44288E+02  7.75895E+03  4.75053E+03  1.43626E+03  7.19796E+03 -4.79313E+03  7.21739E+03
 -6.24402E+03  2.64193E+03 -2.97416E+03 -8.44640E+02  1.40264E+03 -1.47050E+03  4.26267E+03 -1.09131E+03
  3.75444E+03  3.07465E+03  8.45004E+02  5.38110E+03 -3.84038E+03  5.46782E+03 -6.95475E+03  1.99299E+03
 -4.17726E+03 -2.83298E+03  3.62152E+02 -5.78715E+03  2.97714E+03 -3.03077E+03  2.68744E+03  3.12556E+02
  1.26213E+02  2.37803E+03 -3.59551E+03  3.88087E+03 -3.82997E+03  1.77817E+03 -3.18113E+03 -4.87818E+02
 -2.24915E+03 -4.92859E+03  5.49545E+02 -5.78141E+03  4.84853E+03 -3.87501E+03  5.20467E+03  7.34515E+02
  3.95669E+03  4.22738E+03  4.78159E+02  6.21425E+03 -4.38344E+03  3.72049E+03 -4.28927E+03 -4.31851E+02
 -4.95059E+03 -4.37789E+03 -1.23956E+03 -4.21708E+03  2.41767E+03 -4.08367E+03  2.25950E+03 -2.92407E+03
  2.52935E+03  7.49506E+00  2.30279E+02  1.31027E+03  4.60071E+02  2.12467E+02 -1.34937E+01 -1.30510E+03
  2.73820E+03 -3.29567E+02  4.11468E+03  3.64822E+02  4.40167E+03  2.07487E+03  4.89467E+03  5.57176E+03
 -8.87384E+02  6.55936E+03 -6.12962E+03  5.27556E+03 -8.14622E+03  7.58272E+02 -6.31694E+03 -1.90343E+03
 -3.56235E+03 -5.30756E+03 -3.85730E+02 -4.08666E+03  1.85937E+03 -1.46371E+03  1.25991E+03 -1.91361E+03
  1.16513E+03 -1.23299E+03  1.81736E+03 -1.99714E+03  3.54083E+03 -1.30310E+03  3.35539E+03  6.08072E+02
  3.66571E+03  1.10721E+03  5.77240E+02  2.83796E+03 -1.43493E+03  1.96229E+03 -3.74605E+03  2.03756E+03
 -3.64494E+03 -9.03903E+02 -1.26879E+03 -2.52591E+03  7.28906E+02 -3.84703E+03  2.56833E+03 -4.27670E+03
  3.60847E+03 -2.60551E+03  5.24654E+03 -1.30199E+02  4.01320E+03  3.23195E+03  8.73698E+02  4.95333E+03
 -1.58199E+03  5.24256E+03 -2.73878E+03  1.55035E+03 -1.56206E+03 -8.46762E+02 -2.60851E+02 -3.73529E+02
 -2.47766E+02  5.15967E+02 -8.99378E+02  1.73118E+03 -2.29819E+03  8.35113E+02 -3.38235E+03 -2.22087E+02
 -1.10118E+03 -3.49427E+03  7.69901E+02 -3.81962E+03  2.14969E+03 -3.64929E+03  2.54166E+03 -8.28246E+02
  2.97214E+03  2.09184E+03  1.28640E+03  2.51903E+03 -3.97114E+02  3.39045E+03 -1.80383E+03  1.75062E+03
 -3.00878E+03  8.46509E+02 -2.79520E+03 -1.68571E+03 -1.27438E+02 -2.20955E+03  1.03101E+03 -1.85571E+03
  2.30378E+03 -1.29281E+03  1.39823E+03  3.90851E+02  1.90496E+02  1.32356E+03  1.15818E+03  2.96021E+02
  1.67750E+03  6.24705E+02  1.14547E+03  9.91797E+02  1.18932E+03  2.03598E+03  9.99134E+02  1.32968E+03
 -1.25290E+03  2.23589E+03 -1.55368E+03  3.38326E+03 -1.91231E+03  9.88402E+02 -2.99574E+03  4.54319E+01
 -1.29199E+03 -2.86255E+03  5.59874E+02 -3.69451E+03  1.12788E+03 -1.84355E+03  2.21777E+03 -8.39117E+02
  2.07490E+03  1.33283E+03  3.51893E+02  1.82482E+03 -5.93146E+02  9.20139E+02 -5.76182E+02 -1.32394E+02
 -5.55524E+02 -1.46330E+03  1.08231E+03 -1.19622E+03  1.18012E+03 -8.55582E+02  9.44727E+02  2.27274E+02
  2.91515E+02  5.58151E+01  6.90159E+02 -5.25974E+02 -3.72034E+02  5.38031E+02  1.60559E+03 -3.00853E+02
 -2.16822E+02 -1.72467E+02  1.69309E+03  6.07149E+02  8.22339E+01  1.85782E+03 -3.77636E+02  2.31843E+03
 -1.23783E+03  7.50368E+02 -1.68396E+03 -3.20584E+01 -1.96882E+03 -6.40528E+02  3.98003E+01 -6.52418E+02
  3.54427E+02 -1.19083E+03  5.89139E+02 -5.25129E+02  4.29835E+02  1.19222E+03 -6.00430E+02  7.26107E+02
 -1.31820E+03  5.50357E+02 -7.18894E+02 -1.19114E+03 -6.36111E+02 -1.64974E+03  1.00170E+02 -9.86744E+02
  2.77645E+02  2.48515E+01  5.10117E+02  1.57955E+02  1.07677E+03  2.01964E+01  1.26917E+02  1.18957E+03
 -1.98849E+02  1.45680E+02 -8.33477E+02  1.04224E+02  5.11629E+02 -3.88560E+02  1.32343E+03 -6.75990E+02
  7.19025E+02  3.20202E+02  2.37973E+03  3.10413E+02  1.01945E+03  1.23728E+03 -8.94853E+01  1.28291E+03
 -1.06224E+03 -9.16103E+01 -9.96974E+02 -8.33474E+01 -4.64321E+02 -1.14888E+03  3.07105E+02 -6.47786E+01
  1.27188E+03 -6.64650E+02  3.94349E+02  6.72438E+02 -2.24021E+02  9.31469E+02  3.10402E+02  9.80305E+02
 -2.96744E+02  9.45635E+02 -4.58130E+02  1.65697E+02  1.60328E+02  4.62371E+02 -8.29101E+02  2.64342E+02
 -4.47771E+02  5.84833E+02 -1.62732E+03  3.84059E+02 -1.46091E+03  2.27871E+02 -2.08897E+03 -7.67344E+02
 -7.26864E+02 -1.68814E+03  8.30461E+02 -2.04684E+03  1.08447E+03 -1.96083E+03  2.16403E+03 -7.88664E+02
  1.86640E+03 -3.81510E+02  6.71290E+02  1.25277E+03 -6.41398E+02  8.58038E+02 -6.84100E+02  9.38111E+02
 -6.72918E+02  6.74020E+02 -3.50035E+02  4.56428E+01 -4.12310E+02  3.59048E+02 -5.24785E+02  3.10908E+01
 -1.07540E+03 -3.46381E+02 -9.54200E+02 -3.99748E+01  4.95010E+02 -5.23786E+02 -3.05955E+02 -8.20617E+02
  1.02595E+03 -7.85903E+01  2.57625E+02  2.01222E+02  9.55904E+02  7.47905E+02 -5.60132E+02  9.80967E+02
 -6.69213E+02  1.70462E+03 -1.49667E+03  9.44336E+02 -1.47324E+03 -1.62380E+02 -8.81921E+02 -7.62630E+02
 -9.14825E+02 -9.82131E+02  8.12802E+01 -8.06972E+02  3.86244E+02 -5.25928E+02  3.58003E+02  1.79628E+02
  6.15593E+02 -2.70664E+01  1.80159E+02  4.18006E+02 -3.48565E+02 -2.01048E+01 -1.16362E+02  3.16690E+00
  3.84205E+02  4.45190E+02  8.71456E+01  4.80834E+02 -1.08172E+02  1.16839E+02  4.42123E+02 -7.62058E+01
 -6.04866E+02  7.38398E+02 -2.04337E+02  1.92236E+02 -8.99557E+02 -4.16813E+02  3.42611E+01 -6.33179E+02
  5.16969E+02 -4.77153E+02  3.01125E+02  3.15748E+02  5.95882E+02 -5.87227E+02  2.48615E+02  6.46319E+02
  3.81691E+02  4.51370E+02 -1.14225E+02  7.11075E+00 -1.54876E+02  3.57732E+02 -4.05373E+02  1.84849E+02
 -1.81635E+02  1.90131E+01 -4.06003E+02  1.90428E+02 -5.92366E+02  9.59913E+01 -4.73569E+02 -3.32715E+02
 -1.02293E+03  3.58254E+02 -1.42640E+02 -7.38501E+02  7.22016E+02 -1.23659E+03  6.26023E+02 -2.09359E+02
  3.76075E+02  2.38415E+01 -3.98774E+02  5.64104E+01 -7.99861E+00  5.59423E+02 -4.67215E+02  4.25997E+02
