 $NMID ID='MM_0lb_SNR800_20hz_g50_14.RAW', FMTDAT='(8E13.5)'
 TRAMP=1., VOLUME=1. $END
  3.09928E+05  5.69914E+02  3.37180E+05  2.50350E+05  8.44812E+04  3.37054E+05 -1.32410E+05  2.50081E+05
 -1.89569E+05  8.23307E+04 -1.11022E+05 -3.31325E+04  1.43358E+03 -5.03123E+04  5.36756E+04  3.83061E+02
  3.48577E+04  5.29071E+04 -1.68900E+04  7.48126E+04 -6.05162E+04  6.26950E+04 -8.29321E+04  3.13365E+04
 -7.92357E+04 -1.06906E+04 -5.61486E+04 -5.00607E+04 -1.47366E+04 -6.81503E+04  2.69035E+04 -4.47570E+04
  3.89338E+04  3.59188E+03  1.54515E+04  4.70333E+04 -3.40805E+04  4.62754E+04 -6.48962E+04 -5.16794E+02
 -5.19395E+04 -5.56060E+04 -6.17736E+03 -7.47793E+04  3.28853E+04 -5.28712E+04  4.60358E+04 -1.62796E+04
  4.14326E+04  1.10734E+04  3.04257E+04  2.41594E+04  1.57031E+04  2.80114E+04 -4.73862E+03  2.65720E+04
 -2.17822E+04  1.28959E+04 -1.90889E+04 -4.49203E+03  4.16241E+03 -7.57946E+03  2.09862E+04  1.06443E+04
  7.27864E+03  3.31198E+04 -3.02099E+04  3.37192E+04 -6.08119E+04  2.38671E+03 -5.53838E+04 -4.08629E+04
 -1.21269E+04 -6.02977E+04  3.79633E+04 -4.30099E+04  5.51724E+04 -1.87932E+03  3.15316E+04  3.05464E+04
 -6.56382E+03  3.23805E+04 -2.84107E+04  1.29689E+04 -2.72948E+04 -5.52482E+03 -1.39411E+04 -9.77238E+03
 -7.02566E+03 -1.11978E+04 -9.17688E+02 -1.64241E+04  6.33337E+03 -2.25259E+04  1.48754E+04 -1.38983E+04
  1.24712E+04  3.94551E+03 -5.96793E+03  1.31535E+04 -1.90150E+04 -2.03821E+03 -8.11164E+03 -2.97846E+04
  2.04275E+04 -4.00785E+04  4.42223E+04 -1.84207E+04  4.14877E+04  1.80908E+04  1.40428E+04  4.12486E+04
 -1.51811E+04  3.06735E+04 -2.29699E+04  9.40981E+02 -8.22183E+03 -2.60784E+04  2.01868E+04 -3.07757E+04
  3.75017E+04 -7.32113E+03  3.06370E+04  2.26853E+04  1.49503E+04  4.20890E+04 -7.57277E+03  4.43408E+04
 -2.78077E+04  2.91597E+04 -3.64803E+04  8.37115E+03 -3.76170E+04 -1.50368E+04 -2.09912E+04 -3.35556E+04
  7.10359E+03 -3.33577E+04  2.88190E+04 -1.24292E+04  2.64860E+04  1.05816E+04  2.98472E+03  1.76855E+04
 -1.31571E+04  7.10228E+03 -9.50775E+03 -7.77715E+03  5.90972E+03 -1.00545E+04  1.71175E+04  6.60206E+03
  1.20484E+04  2.13212E+04 -6.62679E+03  2.31295E+04 -2.13680E+04  8.67002E+03 -2.47377E+04 -6.57038E+03
 -1.60445E+04 -1.62340E+04 -5.17595E+03 -1.61350E+04  3.73467E+03 -1.37151E+04  1.18910E+04 -1.37006E+04
  2.02898E+04 -1.13396E+04  2.69116E+04  7.65924E+02  2.08636E+04  1.57720E+04  4.02727E+03  3.16905E+04
 -1.58978E+04  2.69520E+04 -2.51795E+04  9.18115E+03 -1.94876E+04 -1.04658E+04 -3.90813E+03 -1.40242E+04
  2.76892E+03 -4.54544E+03 -2.08171E+03  5.05118E+03 -1.22735E+04  4.98502E+03 -1.26065E+04 -4.55143E+03
 -8.56766E+03 -1.46809E+04  4.54943E+03 -1.84222E+04  1.19349E+04 -1.34937E+04  1.37952E+04 -1.49185E+03
  8.42726E+03  1.02209E+04 -7.64933E+02  1.49620E+04 -9.83024E+03  8.16010E+03 -1.44789E+04 -3.40674E+03
 -1.10491E+04 -1.34512E+04 -1.54739E+03 -1.83818E+04  8.54143E+03 -1.46064E+04  1.55756E+04 -6.88826E+03
  1.40479E+04  8.50349E+02  1.00283E+04  3.57423E+03  4.74099E+03  4.60761E+02  6.98482E+03 -1.40282E+03
  1.31800E+04  2.49537E+03  1.37467E+04  1.22169E+04  8.49640E+03  2.34410E+04 -3.26932E+03  2.50499E+04
 -1.50792E+04  1.89960E+04 -2.27916E+04  8.76298E+03 -2.32322E+04 -1.78673E+03 -2.02090E+04 -1.32865E+04
 -9.47073E+03 -1.85932E+04  6.07174E+03 -1.77269E+04  1.57645E+04 -1.03710E+04  1.47770E+04  3.50791E+03
  6.14700E+03  1.06193E+04 -6.92892E+03  1.02661E+04 -1.28606E+04  2.69147E+03 -1.00180E+04 -7.60547E+03
  1.00285E+02 -1.19104E+04  5.60563E+03 -8.89731E+03  7.47840E+03 -1.46897E+03  1.10900E+03  4.77333E+03
 -5.31837E+03  1.12310E+03 -3.33803E+03 -4.29093E+03  8.92202E+02 -9.28732E+03  7.67851E+03 -8.67396E+03
  1.13550E+04 -4.19863E+03  1.07300E+04  2.67706E+03  9.29142E+03  8.72743E+03  4.25609E+03  1.26388E+04
 -1.35208E+03  1.46487E+04 -8.57058E+03  9.21203E+03 -9.95612E+03  3.08240E+03 -7.71170E+03 -1.62155E+03
 -4.19033E+03 -2.84719E+03 -8.94464E+02  1.33520E+03 -1.99349E+03  1.91176E+03 -3.10652E+03  3.57634E+03
 -7.66192E+03 -4.78585E+02 -8.24714E+03 -6.87818E+03 -3.20206E+03 -1.07382E+04  3.58761E+03 -8.01213E+03
  6.49221E+03 -3.62342E+03  5.08217E+03  2.08867E+03  4.93592E+02  2.44686E+03 -3.06147E+03 -4.32121E+02
 -3.14208E+03 -4.93519E+03 -9.55074E+02 -6.18600E+03  3.39470E+03 -7.16106E+03  9.00165E+03 -3.71902E+03
  1.07079E+04  4.26217E+02  8.23112E+03  5.46931E+03  1.63212E+03  7.89941E+03 -4.81623E+03  7.56011E+03
 -6.33444E+03  2.79687E+03 -3.25415E+03 -1.02674E+03  1.04274E+03 -1.79691E+03  4.34067E+03 -7.59145E+02
  3.52740E+03  3.01026E+03  1.20873E+03  5.87303E+03 -3.96369E+03  5.87857E+03 -7.15533E+03  1.55934E+03
 -4.50550E+03 -3.42292E+03  3.05404E+02 -5.97688E+03  3.20819E+03 -3.11015E+03  3.05565E+03  7.53871E+02
  2.55631E+02  2.47507E+03 -3.83089E+03  3.92923E+03 -4.35447E+03  2.05920E+03 -3.62476E+03 -5.36077E+02
 -2.62746E+03 -5.01204E+03  8.33942E+02 -6.04721E+03  5.26391E+03 -4.44384E+03  5.67649E+03  8.01080E+02
  4.14156E+03  4.62035E+03  9.94625E+01  6.70567E+03 -4.33620E+03  3.68503E+03 -4.51264E+03 -4.71928E+02
 -5.13938E+03 -4.58104E+03 -1.08249E+03 -4.34434E+03  1.98670E+03 -4.34309E+03  2.47221E+03 -2.84223E+03
  2.67640E+03  2.21988E+02  4.50832E+01  1.29826E+03  8.07387E+02 -1.27497E+02 -1.28780E+02 -1.22833E+03
  2.98267E+03 -4.12439E+02  4.44531E+03  5.64194E+02  4.70747E+03  2.54876E+03  4.66378E+03  5.94124E+03
 -9.53410E+02  7.00359E+03 -6.60942E+03  5.62349E+03 -7.99339E+03  7.37166E+02 -6.78478E+03 -2.27473E+03
 -3.73496E+03 -5.66827E+03 -6.54566E+01 -4.44885E+03  1.74470E+03 -1.46704E+03  1.74226E+03 -1.76892E+03
  8.64809E+02 -1.34828E+03  1.92081E+03 -2.17864E+03  3.27320E+03 -1.21807E+03  3.05503E+03  4.39556E+02
  4.12542E+03  1.10329E+03  1.03781E+03  3.12831E+03 -1.27220E+03  2.20750E+03 -4.08519E+03  2.17005E+03
 -4.13747E+03 -9.33622E+02 -1.27410E+03 -2.72555E+03  5.57173E+02 -3.91041E+03  2.65324E+03 -4.52676E+03
  4.33326E+03 -2.69348E+03  5.43343E+03  1.68240E+02  4.07990E+03  3.20907E+03  8.89049E+02  5.16507E+03
 -1.85558E+03  5.27061E+03 -2.73550E+03  1.72144E+03 -1.33615E+03 -9.63933E+02 -4.12788E+02 -4.00102E+02
 -7.01740E+02  5.57823E+02 -7.26036E+02  1.84242E+03 -2.24031E+03  1.05160E+03 -3.61771E+03 -2.81358E+02
 -1.09093E+03 -3.52348E+03  8.96994E+02 -3.70146E+03  2.28001E+03 -3.42193E+03  2.49767E+03 -8.54290E+02
  3.22486E+03  2.07493E+03  1.20314E+03  2.40798E+03 -7.05106E+02  3.61285E+03 -2.07214E+03  2.32838E+03
 -2.75631E+03  6.33637E+02 -2.74181E+03 -2.00605E+03 -6.60333E+01 -2.36345E+03  9.86104E+02 -1.87993E+03
  2.17901E+03 -1.26109E+03  1.42771E+03  1.16192E+02  3.47219E+02  1.41679E+03  9.17008E+02  1.98038E+02
  1.64501E+03  6.80983E+02  8.70816E+02  7.29674E+02  6.39213E+02  2.03492E+03  1.20515E+03  8.85989E+02
 -1.27609E+03  2.02964E+03 -1.86664E+03  3.64158E+03 -2.03949E+03  1.07344E+03 -3.25882E+03  2.18479E+02
 -1.39604E+03 -2.86945E+03  6.25780E+02 -3.61548E+03  1.44648E+03 -2.09752E+03  2.44568E+03 -8.12254E+02
  1.74092E+03  1.35535E+03  2.17858E+02  1.68132E+03 -1.88642E+02  9.16641E+02 -6.83321E+02 -5.36558E+01
 -5.94102E+02 -1.12014E+03  1.11403E+03 -1.05244E+03  1.05439E+03 -8.84182E+02  1.04162E+03  5.67786E+02
  7.81988E+02  3.53821E+02  5.32467E+02 -5.18768E+02 -6.03573E+02  4.93007E+02  1.66934E+03 -1.59639E+02
 -2.54265E+02 -8.26073E+01  1.38778E+03  5.76760E+02  9.10620E+01  2.01627E+03 -8.61985E+00  2.36548E+03
 -1.38870E+03  4.68214E+02 -1.42351E+03  2.02946E+02 -1.67144E+03 -5.52583E+02  8.77779E+01 -8.06479E+02
  5.32098E+02 -1.03306E+03  5.20485E+02 -6.53398E+02  3.97212E+02  1.01107E+03 -7.75906E+02  7.64332E+02
 -1.08865E+03  5.47712E+02 -9.04678E+02 -1.29223E+03 -6.90009E+02 -1.80213E+03  1.17842E+02 -1.02306E+03
  3.73183E+02 -4.41538E+02  5.25583E+02  3.31340E+02  1.11843E+03 -4.86663E+02  7.60189E+01  9.20174E+02
  4.23582E+01  1.02821E+02 -4.72795E+02 -1.19311E+02  1.04024E+03 -3.67037E+02  1.09359E+03 -4.76068E+02
  9.54886E+02  1.47954E+02  2.01819E+03  2.23853E+02  1.15808E+03  9.62771E+02 -1.37029E+02  1.18507E+03
 -9.25451E+02 -1.97732E+02 -1.06528E+03 -3.06495E+02 -6.88437E+02 -1.02535E+03  2.28328E+02  2.46715E+01
  1.08082E+03 -4.72203E+02  4.70067E+02  8.13264E+02  1.22946E+02  9.01942E+02  3.33195E+02  8.34740E+02
 -1.09803E+02  1.13726E+03 -2.45403E+02  9.91284E+01 -3.96321E+01  3.77707E+02 -3.91943E+02  2.25008E+02
 -4.28051E+02  9.86330E+02 -1.48136E+03  3.81056E+02 -1.32647E+03  1.63319E+02 -1.75047E+03 -7.18746E+02
 -9.07858E+02 -1.64675E+03  2.80956E+02 -2.13092E+03  4.17427E+02 -1.98330E+03  2.06379E+03 -8.49283E+02
  1.69078E+03 -4.24317E+02  7.60512E+02  1.16076E+03 -6.99125E+02  1.02875E+03 -5.55001E+02  9.04376E+02
 -4.05995E+02  3.90343E+02 -3.21770E+02 -4.32968E+02 -5.43266E+02  4.23644E+02 -7.41532E+02  1.28044E+02
 -8.48900E+02 -2.03521E+02 -6.68156E+02 -2.32138E+01  3.84071E+02 -4.87098E+02 -4.03763E+02 -7.05779E+02
  8.90047E+02 -5.83896E+00  9.88802E+01  3.26162E+02  7.37684E+02  8.93180E+02 -6.19943E+02  9.68932E+02
 -7.63191E+02  1.67478E+03 -1.08771E+03  9.60321E+02 -1.05397E+03  7.08551E+01 -6.06674E+02 -9.35794E+02
 -7.02911E+02 -5.82245E+02  3.12858E+02 -5.65329E+02  2.35890E+02 -4.13414E+02  2.65773E+02  6.10661E+01
  5.64220E+02 -1.17455E+02 -6.51470E+01  1.52882E+02 -5.41987E+02  7.69849E+01  1.33505E+02 -1.82933E+02
  2.56944E+02  1.88175E+02  7.30178E+01  4.64692E+02 -2.39304E+02  2.31485E+02  4.70855E+02  2.29182E+02
 -3.55010E+02  3.00408E+02 -5.04290E+02  2.34179E+01 -5.63767E+02  1.13027E+02 -3.23172E+01 -8.05655E+02
 -1.98999E+01 -1.82601E+02  1.97022E+02  2.30911E+02  6.23329E+02 -6.87112E+02  4.79390E+02  5.08066E+02
  5.90894E+02  1.87790E+02 -1.67172E+02  3.16177E+02 -9.84706E+01  3.96461E+02 -5.32485E+02  3.87994E+00
  3.43710E+01 -2.57068E+02 -3.91751E+02  1.76589E+02 -4.69145E+02  5.39881E+01 -6.46519E+02 -1.46406E+02
 -8.47324E+02  5.80737E+02 -1.71155E+02 -5.87839E+02  4.57287E+02 -1.24216E+03  4.35529E+02  1.46094E+01
  5.10519E+02 -1.32437E+02 -5.97369E+02  9.61525E+01 -1.77843E+02  6.60833E+02 -1.38009E+02  5.33916E+02
