 $NMID ID='MM_0lb_SNR800_20hz_g60_38.RAW', FMTDAT='(8E13.5)'
 TRAMP=1., VOLUME=1. $END
  3.09718E+05  3.53329E+02  3.37316E+05  2.50325E+05  8.48168E+04  3.37659E+05 -1.32248E+05  2.50512E+05
 -1.89660E+05  8.28357E+04 -1.11183E+05 -3.29145E+04  1.24023E+03 -5.02166E+04  5.39995E+04  2.57019E+02
  3.51685E+04  5.29596E+04 -1.69570E+04  7.51629E+04 -6.01718E+04  6.30696E+04 -8.36550E+04  3.16522E+04
 -8.00226E+04 -1.14155E+04 -5.67477E+04 -5.06192E+04 -1.51358E+04 -6.86078E+04  2.68135E+04 -4.51665E+04
  3.94375E+04  3.85354E+03  1.58320E+04  4.71225E+04 -3.39052E+04  4.62706E+04 -6.59297E+04 -3.51808E+02
 -5.24845E+04 -5.63385E+04 -6.41714E+03 -7.56833E+04  3.31926E+04 -5.39224E+04  4.68944E+04 -1.65201E+04
  4.20883E+04  1.09154E+04  3.12063E+04  2.49431E+04  1.57431E+04  2.86842E+04 -4.56680E+03  2.69379E+04
 -2.18127E+04  1.27545E+04 -1.89041E+04 -4.41827E+03  4.54806E+03 -7.80425E+03  2.16544E+04  1.14773E+04
  7.47994E+03  3.38184E+04 -3.06465E+04  3.47020E+04 -6.19178E+04  1.99510E+03 -5.60461E+04 -4.15841E+04
 -1.21986E+04 -6.13623E+04  3.88117E+04 -4.39277E+04  5.65315E+04 -1.77818E+03  3.27766E+04  3.11042E+04
 -6.29588E+03  3.41943E+04 -2.88317E+04  1.42731E+04 -2.83361E+04 -5.02997E+03 -1.51301E+04 -1.04195E+04
 -7.57738E+03 -1.21782E+04 -8.34930E+02 -1.70175E+04  6.93084E+03 -2.28402E+04  1.53672E+04 -1.37582E+04
  1.21319E+04  4.62704E+03 -6.57808E+03  1.28958E+04 -2.00658E+04 -2.84249E+03 -8.36360E+03 -3.10773E+04
  2.11710E+04 -4.14531E+04  4.58483E+04 -1.87599E+04  4.26989E+04  1.86033E+04  1.45252E+04  4.23045E+04
 -1.52572E+04  3.14320E+04 -2.37568E+04  1.51833E+03 -8.61510E+03 -2.68059E+04  2.04678E+04 -3.17607E+04
  3.87048E+04 -7.89756E+03  3.25572E+04  2.29485E+04  1.59377E+04  4.35973E+04 -7.99865E+03  4.62201E+04
 -2.93113E+04  3.06034E+04 -3.83530E+04  8.53839E+03 -3.93145E+04 -1.54977E+04 -2.17841E+04 -3.52526E+04
  6.73163E+03 -3.47709E+04  2.97766E+04 -1.32428E+04  2.72618E+04  1.08477E+04  3.09870E+03  1.80094E+04
 -1.32671E+04  7.59649E+03 -9.64485E+03 -7.92495E+03  5.81245E+03 -9.99351E+03  1.74024E+04  6.39197E+03
  1.24944E+04  2.17363E+04 -6.54195E+03  2.40350E+04 -2.13496E+04  9.68610E+03 -2.57906E+04 -6.24557E+03
 -1.75418E+04 -1.64913E+04 -6.11528E+03 -1.72606E+04  3.96243E+03 -1.53408E+04  1.28835E+04 -1.50277E+04
  2.21327E+04 -1.18389E+04  2.88886E+04  1.29250E+03  2.14074E+04  1.67776E+04  3.76917E+03  3.27949E+04
 -1.62615E+04  2.80978E+04 -2.61684E+04  9.48671E+03 -1.98510E+04 -1.07903E+04 -4.08748E+03 -1.37500E+04
  2.63741E+03 -4.16093E+03 -2.73761E+03  5.37906E+03 -1.34398E+04  5.25965E+03 -1.36548E+04 -4.89212E+03
 -8.67079E+03 -1.58793E+04  4.63236E+03 -1.97970E+04  1.26340E+04 -1.45151E+04  1.48740E+04 -1.61816E+03
  9.08144E+03  1.07202E+04 -1.03026E+03  1.60928E+04 -1.05817E+04  9.06600E+03 -1.59048E+04 -3.24557E+03
 -1.14423E+04 -1.39400E+04 -1.48901E+03 -1.92299E+04  8.91932E+03 -1.54380E+04  1.63039E+04 -7.57672E+03
  1.46600E+04  4.67719E+02  1.05775E+04  3.93655E+03  5.47056E+03  6.35952E+02  7.59195E+03 -1.09579E+03
  1.40276E+04  2.59618E+03  1.49552E+04  1.26620E+04  9.42016E+03  2.49739E+04 -3.16783E+03  2.68193E+04
 -1.60300E+04  2.04836E+04 -2.47058E+04  9.75126E+03 -2.53243E+04 -1.76384E+03 -2.17919E+04 -1.43496E+04
 -1.00377E+04 -2.03459E+04  6.76636E+03 -1.93738E+04  1.69870E+04 -1.09669E+04  1.56868E+04  3.87911E+03
  6.78923E+03  1.10530E+04 -7.10648E+03  1.06381E+04 -1.33343E+04  2.80730E+03 -1.00894E+04 -7.90267E+03
  1.91109E+02 -1.27694E+04  6.25309E+03 -9.58145E+03  7.72465E+03 -1.39230E+03  1.45524E+03  4.71738E+03
 -5.65128E+03  1.23780E+03 -3.53233E+03 -4.68366E+03  6.32303E+02 -1.02546E+04  7.78227E+03 -9.88049E+03
  1.22093E+04 -4.65263E+03  1.19041E+04  2.52174E+03  1.04347E+04  9.69832E+03  5.21364E+03  1.40466E+04
 -1.90359E+03  1.56217E+04 -9.55629E+03  9.99468E+03 -1.09760E+04  2.81083E+03 -8.40125E+03 -1.70720E+03
 -4.43018E+03 -3.21405E+03 -8.55787E+02  1.52279E+03 -1.96413E+03  1.81857E+03 -3.67624E+03  3.30597E+03
 -7.93247E+03 -5.06566E+02 -8.59075E+03 -7.19730E+03 -3.57606E+03 -1.13822E+04  3.31006E+03 -8.30308E+03
  7.00183E+03 -3.73816E+03  5.31219E+03  2.11653E+03  7.35753E+02  2.86558E+03 -3.41440E+03 -4.79854E+01
 -3.27547E+03 -5.15810E+03 -7.37161E+02 -7.08007E+03  4.05926E+03 -7.79305E+03  9.46971E+03 -3.87024E+03
  1.13555E+04  4.65034E+02  8.61718E+03  6.12517E+03  1.72982E+03  8.32495E+03 -5.03835E+03  7.85411E+03
 -6.79945E+03  2.85483E+03 -3.61857E+03 -1.35107E+03  9.58527E+02 -1.79622E+03  4.52801E+03 -7.47817E+02
  4.21835E+03  3.20127E+03  1.02591E+03  6.26282E+03 -4.27125E+03  6.19485E+03 -7.54406E+03  1.64447E+03
 -4.71295E+03 -3.53408E+03  5.72788E+02 -6.44526E+03  3.50763E+03 -3.12410E+03  3.52309E+03  1.02974E+03
  4.51180E+02  3.16524E+03 -3.95618E+03  4.41131E+03 -4.63432E+03  2.32497E+03 -4.45048E+03 -8.78441E+02
 -2.47998E+03 -5.31499E+03  9.89155E+02 -6.76750E+03  5.47519E+03 -4.28364E+03  6.10854E+03  6.66527E+02
  4.16588E+03  4.90694E+03  2.68589E+02  6.90363E+03 -4.68007E+03  3.85230E+03 -4.90131E+03 -3.10834E+02
 -5.44343E+03 -5.03213E+03 -1.57795E+03 -4.70834E+03  2.38879E+03 -4.45512E+03  2.48295E+03 -2.89695E+03
  2.82009E+03  2.24655E+02  2.38029E+02  1.21247E+03  5.90141E+02 -5.75276E+01 -3.64940E+01 -1.65131E+03
  3.61850E+03 -4.78071E+02  4.73430E+03  6.87201E+02  4.89628E+03  2.43224E+03  4.70608E+03  6.69818E+03
 -1.15841E+03  7.38599E+03 -6.93901E+03  6.05609E+03 -9.03794E+03  1.06597E+03 -7.12898E+03 -2.24759E+03
 -3.91387E+03 -5.78212E+03 -4.39630E+02 -4.37114E+03  2.03323E+03 -1.91004E+03  1.69814E+03 -1.95070E+03
  8.14487E+02 -1.44490E+03  1.76511E+03 -2.24503E+03  3.43734E+03 -1.14014E+03  3.11992E+03  3.85381E+02
  3.75935E+03  1.11495E+03  8.21687E+02  3.02521E+03 -1.25612E+03  2.37667E+03 -4.07584E+03  2.17502E+03
 -4.79938E+03 -1.07313E+03 -1.45872E+03 -2.79108E+03  4.73678E+02 -4.26082E+03  2.86535E+03 -4.66432E+03
  4.41309E+03 -2.95692E+03  5.91418E+03  3.26842E+02  4.32940E+03  3.63782E+03  1.01425E+03  5.21807E+03
 -1.66710E+03  5.25210E+03 -2.63163E+03  1.49447E+03 -1.56432E+03 -9.83077E+02 -3.33396E+02 -6.03695E+02
 -3.10853E+02  4.36040E+02 -6.53888E+02  1.93312E+03 -2.06212E+03  1.09252E+03 -3.73565E+03 -4.62185E+02
 -1.29680E+03 -3.77929E+03  5.75949E+02 -3.95115E+03  2.46460E+03 -3.69055E+03  2.77181E+03 -1.10014E+03
  3.09704E+03  2.18976E+03  1.58569E+03  2.73284E+03 -6.86890E+02  3.74972E+03 -1.88832E+03  2.20165E+03
 -2.72913E+03  4.90816E+02 -2.68316E+03 -1.88938E+03 -2.14687E+02 -2.54297E+03  1.21338E+03 -2.05574E+03
  2.04597E+03 -1.25535E+03  1.63233E+03  2.92068E+02  4.02592E+02  1.45040E+03  8.89228E+02  5.32003E+02
  1.35467E+03  4.51527E+02  1.18771E+03  9.98004E+02  9.62373E+02  1.58295E+03  1.30033E+03  1.40565E+03
 -9.11069E+02  2.32000E+03 -1.84878E+03  3.37745E+03 -2.28075E+03  9.49083E+02 -3.30130E+03 -1.06505E+02
 -1.06430E+03 -3.00140E+03  4.68499E+02 -4.05016E+03  1.28886E+03 -1.82862E+03  2.58399E+03 -5.40715E+02
  1.84088E+03  1.65850E+03  1.77618E+02  1.97019E+03 -3.80620E+02  1.12415E+03 -6.86122E+02 -3.74548E+01
 -6.52254E+02 -1.06522E+03  8.40669E+02 -1.08552E+03  9.49959E+02 -7.96589E+02  9.04757E+02  5.12438E+02
  5.21511E+02  2.72492E+02  5.49577E+02 -3.12139E+02 -3.47469E+02  5.11342E+02  1.32383E+03 -4.05402E+02
 -2.39107E+02  2.42930E+01  1.46378E+03  4.98374E+02  9.04450E+01  1.87707E+03 -2.02768E+02  2.05803E+03
 -1.15358E+03  6.96306E+02 -1.55137E+03  1.96592E+02 -1.99508E+03 -4.25980E+02 -7.10280E+01 -3.50728E+02
  5.79668E+02 -1.05358E+03  7.88821E+02 -7.90212E+02  4.08699E+02  1.45389E+03 -7.33157E+02  1.01165E+03
 -9.67886E+02  5.67594E+02 -5.76928E+02 -9.10094E+02 -3.04066E+02 -1.79384E+03  1.66728E+02 -1.12067E+03
  4.94058E+02 -2.86419E+02  3.15026E+02  1.55121E+02  1.10434E+03 -2.10204E+02  2.61582E+02  7.90946E+02
  1.49149E+01  2.65553E+02 -6.73468E+02  1.21841E+02  7.35981E+02 -1.48245E+02  1.33640E+03 -7.64492E+02
  7.18950E+02  7.78213E+01  2.18704E+03  4.63330E+02  1.24673E+03  1.13816E+03  1.68110E+02  1.40104E+03
 -1.21759E+03  2.14760E+02 -1.04579E+03 -1.17845E+02 -4.78070E+02 -1.21587E+03  1.53223E+02 -1.16547E+02
  9.39670E+02 -3.21702E+02  5.30458E+02  1.25128E+02  1.37852E+02  1.13152E+03  5.30351E+02  1.06460E+03
 -1.30578E+02  7.74131E+02 -3.08115E+02  1.78028E+02  3.07253E+02  4.11267E+02 -9.57787E+02  5.96283E+02
 -7.11988E+02  9.03532E+02 -1.41818E+03  1.66905E+02 -1.20944E+03  1.22609E+02 -1.77305E+03 -5.05132E+02
 -7.71537E+02 -1.41147E+03  6.40948E+02 -1.99855E+03  5.62006E+02 -1.64337E+03  2.07553E+03 -9.33629E+02
  1.63583E+03 -2.91795E+02  1.06362E+03  1.12758E+03 -4.78101E+02  8.09385E+02 -6.24358E+02  9.45275E+02
 -9.64359E+02  5.20796E+02 -4.13750E+02 -8.10592E+01 -6.93233E+02  5.60400E+02 -7.95621E+02 -1.52827E+02
 -8.72509E+02 -6.50524E+01 -7.75128E+02 -6.33217E+01  5.62488E+02 -5.35556E+02 -4.74031E+02 -7.47073E+02
  9.98283E+02 -5.73825E+02 -2.01454E+02  4.40362E+02  8.32959E+02  7.83248E+02 -1.86432E+02  8.87671E+02
 -9.17900E+02  1.55471E+03 -1.07855E+03  7.36960E+02 -1.23226E+03 -2.89623E+01 -7.24497E+02 -4.95271E+02
 -8.24962E+02 -8.81464E+02 -1.12188E+02 -5.46985E+02  3.09200E+02 -3.09641E+02  4.79291E+02  3.19929E+02
  6.56213E+02  3.72000E+02  2.15208E+02  2.33957E+02 -2.62141E+02  1.40847E+02 -8.59826E+01  3.00529E+02
  1.30311E+02  3.40094E+02 -1.23275E+02  1.17053E+02 -2.43904E+02  1.66905E+02  5.34040E+02 -2.02966E+02
 -3.22853E+02  5.10905E+01 -1.83828E+02  3.48978E+02 -4.38311E+02 -6.32857E+01  2.99069E+01 -4.39454E+02
  2.79009E+02 -2.36471E+01 -2.01586E+02  1.43978E+02  6.13822E+02 -6.79649E+02  1.64191E+02  4.27096E+02
  3.52526E+02  5.84756E+01 -1.57959E+02  3.72556E+02 -1.62338E+02  4.01893E+02 -1.52797E+02  1.14503E+01
  3.64357E+01 -2.28375E+02 -3.88314E+02  5.92093E+01 -4.46541E+02  1.44399E+02 -2.19911E+02 -3.39002E+02
 -8.11455E+02  5.49228E+02 -3.24359E+02 -6.45459E+02  4.31750E+02 -9.77339E+02  1.88399E+02  3.15191E+00
  5.50431E+02 -2.96636E+01 -2.97732E+02  2.82021E+02 -3.31842E+01  1.26489E+02  1.83581E+01  2.49640E+02
