 $NMID ID='MM_0lb_SNR800_19hz_g40_6.RAW', FMTDAT='(8E13.5)'
 TRAMP=1., VOLUME=1. $END
  3.09960E+05  2.57928E+02  3.36971E+05  2.50304E+05  8.46749E+04  3.37297E+05 -1.32339E+05  2.49993E+05
 -1.89448E+05  8.22164E+04 -1.10738E+05 -3.30695E+04  1.87859E+03 -5.02653E+04  5.39959E+04  4.07633E+02
  3.49942E+04  5.27260E+04 -1.68081E+04  7.50054E+04 -6.04237E+04  6.23832E+04 -8.24298E+04  3.14667E+04
 -7.92825E+04 -1.10916E+04 -5.60456E+04 -4.96791E+04 -1.49113E+04 -6.79866E+04  2.66291E+04 -4.43979E+04
  3.87369E+04  3.94014E+03  1.53254E+04  4.69560E+04 -3.36465E+04  4.61424E+04 -6.49627E+04 -5.36651E+02
 -5.15942E+04 -5.56267E+04 -6.03271E+03 -7.44047E+04  3.29282E+04 -5.26820E+04  4.58086E+04 -1.61435E+04
  4.08909E+04  1.10339E+04  3.06737E+04  2.40119E+04  1.55878E+04  2.80103E+04 -4.40620E+03  2.66655E+04
 -2.13788E+04  1.29167E+04 -1.92035E+04 -3.92994E+03  4.02853E+03 -7.56804E+03  2.07302E+04  1.09604E+04
  7.80249E+03  3.26487E+04 -3.02596E+04  3.34974E+04 -6.04424E+04  2.16092E+03 -5.46238E+04 -4.07557E+04
 -1.25071E+04 -6.00550E+04  3.74181E+04 -4.29195E+04  5.46021E+04 -2.05391E+03  3.11267E+04  2.99753E+04
 -6.93600E+03  3.21950E+04 -2.78872E+04  1.25807E+04 -2.66627E+04 -5.32598E+03 -1.37576E+04 -9.72973E+03
 -7.02020E+03 -1.08877E+04 -1.30935E+03 -1.59259E+04  6.45233E+03 -2.24560E+04  1.50269E+04 -1.43895E+04
  1.25447E+04  4.12747E+03 -5.48251E+03  1.30289E+04 -1.87795E+04 -1.83278E+03 -7.98059E+03 -2.91928E+04
  1.98257E+04 -3.96425E+04  4.36817E+04 -1.81133E+04  4.12545E+04  1.79986E+04  1.40399E+04  4.10792E+04
 -1.50334E+04  3.05044E+04 -2.28356E+04  9.77284E+02 -7.88246E+03 -2.59602E+04  2.05038E+04 -3.02856E+04
  3.72583E+04 -6.98526E+03  3.04142E+04  2.23917E+04  1.44298E+04  4.15185E+04 -7.78727E+03  4.36750E+04
 -2.73655E+04  2.86690E+04 -3.60205E+04  7.95686E+03 -3.71376E+04 -1.47860E+04 -2.05883E+04 -3.34755E+04
  6.62724E+03 -3.29557E+04  2.88932E+04 -1.20974E+04  2.58335E+04  1.07157E+04  2.58841E+03  1.71782E+04
 -1.32104E+04  6.94854E+03 -9.52776E+03 -7.80705E+03  5.95608E+03 -9.93951E+03  1.69066E+04  6.64947E+03
  1.19998E+04  2.14824E+04 -6.93572E+03  2.30031E+04 -2.14325E+04  8.61528E+03 -2.44849E+04 -6.82203E+03
 -1.56810E+04 -1.61864E+04 -4.93830E+03 -1.57318E+04  3.72799E+03 -1.34523E+04  1.14262E+04 -1.35101E+04
  1.99001E+04 -1.14259E+04  2.68539E+04  6.56664E+02  2.03009E+04  1.55076E+04  4.27880E+03  3.12898E+04
 -1.53331E+04  2.68676E+04 -2.54801E+04  9.23647E+03 -1.93849E+04 -1.03969E+04 -3.77449E+03 -1.41646E+04
  2.72001E+03 -4.19783E+03 -2.28710E+03  4.98693E+03 -1.20891E+04  5.19144E+03 -1.22958E+04 -4.32890E+03
 -8.32496E+03 -1.44547E+04  4.51117E+03 -1.84172E+04  1.20167E+04 -1.33956E+04  1.35093E+04 -1.39196E+03
  8.35263E+03  1.02982E+04 -6.29762E+02  1.51016E+04 -9.62185E+03  8.56967E+03 -1.43774E+04 -3.32964E+03
 -1.09521E+04 -1.37310E+04 -1.42607E+03 -1.78448E+04  8.28188E+03 -1.46577E+04  1.55431E+04 -6.92655E+03
  1.38539E+04  8.84805E+02  9.55326E+03  3.65002E+03  4.49143E+03  3.52996E+02  7.10109E+03 -1.62358E+03
  1.29085E+04  2.64878E+03  1.37545E+04  1.20888E+04  8.17462E+03  2.34201E+04 -3.14686E+03  2.47740E+04
 -1.47169E+04  1.86846E+04 -2.27769E+04  8.70990E+03 -2.31557E+04 -1.73364E+03 -1.99375E+04 -1.31968E+04
 -9.34219E+03 -1.87827E+04  6.22147E+03 -1.76355E+04  1.57067E+04 -1.04453E+04  1.46106E+04  3.15961E+03
  6.37164E+03  1.04343E+04 -6.49498E+03  9.81428E+03 -1.26389E+04  2.64610E+03 -9.88947E+03 -7.77419E+03
 -1.10132E+02 -1.17329E+04  5.94913E+03 -8.89309E+03  7.30468E+03 -1.55386E+03  1.18180E+03  4.60841E+03
 -5.28824E+03  1.05237E+03 -2.93624E+03 -4.24520E+03  9.26397E+02 -9.74551E+03  7.66626E+03 -9.00851E+03
  1.11219E+04 -4.17115E+03  1.09429E+04  2.83470E+03  9.46230E+03  8.66682E+03  4.59644E+03  1.27629E+04
 -1.40715E+03  1.45191E+04 -8.78392E+03  9.30021E+03 -9.97715E+03  2.98340E+03 -7.98841E+03 -1.56474E+03
 -4.59145E+03 -2.81819E+03 -7.78755E+02  1.56307E+03 -1.81365E+03  1.95313E+03 -3.33775E+03  3.51517E+03
 -7.34411E+03 -3.85702E+02 -8.46341E+03 -7.00884E+03 -3.49337E+03 -1.10385E+04  3.19597E+03 -7.93233E+03
  6.78452E+03 -3.79600E+03  4.91655E+03  2.00222E+03  6.78924E+02  2.98163E+03 -3.31640E+03 -1.16273E+02
 -3.01220E+03 -4.86613E+03 -7.29974E+02 -6.65643E+03  3.68451E+03 -7.08682E+03  9.25092E+03 -3.52073E+03
  1.06684E+04  4.25037E+02  8.21242E+03  5.70967E+03  1.69049E+03  7.88259E+03 -5.02394E+03  7.62631E+03
 -6.42678E+03  2.91638E+03 -3.41358E+03 -9.24638E+02  1.42981E+03 -1.78986E+03  4.64324E+03 -1.12453E+03
  3.82980E+03  3.23438E+03  9.81641E+02  5.96076E+03 -4.11270E+03  5.91060E+03 -7.38201E+03  1.73152E+03
 -4.50232E+03 -3.55588E+03  3.54341E+02 -6.33325E+03  3.24074E+03 -2.96925E+03  3.19670E+03  6.68424E+02
  2.16758E+02  2.83037E+03 -3.67806E+03  4.34960E+03 -4.30121E+03  2.33948E+03 -3.88392E+03 -1.07545E+03
 -2.45405E+03 -5.35852E+03  9.47221E+02 -6.52387E+03  5.28542E+03 -4.48873E+03  6.14513E+03  8.03985E+02
  4.42990E+03  4.81623E+03 -5.38856E+01  6.65066E+03 -4.63685E+03  3.98997E+03 -4.99239E+03 -3.84967E+02
 -5.52903E+03 -4.77460E+03 -1.20230E+03 -4.56354E+03  2.24812E+03 -4.38756E+03  2.41545E+03 -2.65860E+03
  2.89337E+03 -6.96650E+01  2.27274E+02  1.25408E+03  5.97664E+02 -2.04417E+02 -1.34668E+02 -1.14762E+03
  3.36502E+03 -5.48426E+02  4.67386E+03  4.40898E+02  4.98407E+03  2.63075E+03  5.06426E+03  6.26157E+03
 -9.78601E+02  7.51836E+03 -7.11285E+03  6.18496E+03 -9.09987E+03  9.08276E+02 -7.24639E+03 -2.62937E+03
 -4.09068E+03 -5.73260E+03 -1.64991E+02 -4.64332E+03  1.94155E+03 -1.75877E+03  1.62386E+03 -1.89072E+03
  1.36662E+03 -1.59652E+03  1.99462E+03 -2.04242E+03  3.86092E+03 -1.20989E+03  3.49441E+03  4.03435E+02
  4.28592E+03  1.10796E+03  9.01361E+02  2.92033E+03 -1.29055E+03  2.47574E+03 -4.17586E+03  2.16769E+03
 -4.37992E+03 -1.02092E+03 -1.50325E+03 -3.13011E+03  4.29256E+02 -4.30802E+03  3.13376E+03 -4.70109E+03
  4.52883E+03 -3.13636E+03  6.03441E+03  3.85584E+02  4.55419E+03  3.79089E+03  1.17418E+03  5.55816E+03
 -1.90146E+03  5.29362E+03 -2.62679E+03  1.85345E+03 -1.76108E+03 -9.65572E+02 -3.92666E+02 -3.02215E+02
 -3.07015E+02  4.95924E+02 -6.16143E+02  2.19412E+03 -2.42613E+03  6.67072E+02 -3.38012E+03 -3.95636E+01
 -1.58945E+03 -3.60651E+03  7.16214E+02 -4.11356E+03  2.36391E+03 -4.04487E+03  3.15199E+03 -1.08759E+03
  3.61234E+03  2.09257E+03  1.40519E+03  2.99243E+03 -9.62235E+02  4.04024E+03 -2.32498E+03  2.67733E+03
 -3.08871E+03  6.46374E+02 -2.98221E+03 -2.17285E+03  4.65417E+01 -2.63248E+03  1.30323E+03 -2.45549E+03
  2.40666E+03 -1.07124E+03  1.67812E+03  3.40655E+02  1.46370E+02  1.84225E+03  9.01416E+02  2.97323E+02
  1.57308E+03  5.55361E+02  1.22450E+03  7.91155E+02  1.01865E+03  1.93189E+03  1.36978E+03  1.40905E+03
 -1.31212E+03  2.61349E+03 -1.99026E+03  3.62127E+03 -2.69224E+03  9.98347E+02 -3.96118E+03 -2.15840E+02
 -1.54436E+03 -3.30508E+03  5.19205E+02 -4.19246E+03  1.80990E+03 -2.20246E+03  2.99754E+03 -7.55561E+02
  2.47214E+03  1.47943E+03  3.92832E+02  2.16836E+03 -6.39170E+02  9.97509E+02 -9.89190E+02  1.35666E+02
 -4.90549E+02 -1.49775E+03  1.18397E+03 -1.30447E+03  1.01389E+03 -8.23922E+02  1.13178E+03  2.98750E+02
  6.68341E+02  3.90627E+02  7.90192E+02 -2.76734E+02 -3.47735E+02  5.05730E+02  1.71230E+03 -1.91923E+02
  3.74688E+02 -9.99371E+01  1.80455E+03  4.77633E+02  4.21113E+02  2.16986E+03 -4.11105E+02  2.63099E+03
 -1.55296E+03  9.05950E+02 -1.83455E+03  2.65393E+02 -1.62819E+03 -6.16899E+02 -7.39029E+01 -8.93882E+02
  3.52241E+02 -9.96508E+02  8.00760E+02 -5.43056E+02  4.75781E+02  1.00957E+03 -9.55229E+02  1.12833E+03
 -1.18483E+03  8.77403E+02 -1.30054E+03 -1.28089E+03 -6.43635E+02 -1.80797E+03  2.31892E+02 -1.28222E+03
  3.03986E+01 -5.13893E+02  5.69468E+02  2.11418E+02  1.15835E+03 -5.13282E+01  4.40504E+02  1.12751E+03
 -2.60283E+02  2.65671E+02 -8.24911E+02 -2.61538E+01  5.80185E+02 -7.29581E+02  1.36991E+03 -1.10684E+03
  1.19539E+03  1.74946E+02  2.45027E+03  5.11424E+02  1.21676E+03  1.46630E+03 -1.41533E+02  1.70360E+03
 -1.17468E+03  1.29903E+02 -1.41839E+03 -1.44805E+02 -7.31721E+02 -1.43944E+03  1.73548E+02 -4.73551E+02
  1.36519E+03 -6.82644E+02  5.88552E+02  6.90799E+02  3.68090E+01  1.31588E+03  2.26428E+02  1.18365E+03
 -3.61803E+02  8.38446E+02 -1.96976E+02  2.78976E+02 -2.21167E+02  2.39544E+02 -6.75574E+02  3.71806E+02
 -6.18983E+02  1.04060E+03 -1.77280E+03  2.96605E+02 -1.56202E+03  1.05829E+02 -2.07282E+03 -8.38613E+02
 -9.12263E+02 -2.09667E+03  2.33652E+02 -2.81394E+03  9.96691E+02 -2.43225E+03  2.48546E+03 -9.14322E+02
  1.78984E+03 -2.89554E+02  1.25244E+03  1.55625E+03 -7.21932E+02  1.04023E+03 -7.57599E+02  1.28621E+03
 -7.99654E+02  9.55321E+02 -5.25043E+02 -9.68339E+01 -3.34744E+02  2.80237E+02 -5.82533E+02 -1.89649E+02
 -1.14764E+03 -1.34070E+02 -9.25513E+02  2.21655E+02  2.12439E+02 -5.98761E+02 -3.28656E+02 -7.75190E+02
  1.36858E+03 -4.54050E+02  3.35910E+02  1.18983E+02  1.00710E+03  8.58613E+02 -2.24919E+02  1.34020E+03
 -6.73346E+02  1.89878E+03 -1.18756E+03  1.27405E+03 -1.74549E+03 -3.56691E+02 -8.95490E+02 -1.09102E+03
 -7.71869E+02 -1.29157E+03  5.63253E+02 -1.24104E+03  5.55847E+02 -7.25238E+02  5.67624E+02  2.91472E+02
  7.33849E+02  1.76000E+02  1.44572E+02  2.73317E+02 -5.14163E+02 -8.44477E+01 -7.18598E+00 -2.47072E+02
  3.46756E+02  3.85380E+02  1.10333E+02  4.07952E+02  3.83182E+01  3.87174E+02  6.12456E+02  2.53182E+02
 -4.61872E+02  7.47820E+02 -6.49325E+02  1.61895E+02 -7.18989E+02 -1.93273E+01  1.29298E-01 -9.83871E+02
  3.99068E+02 -5.27021E+02  4.46481E+02  9.38505E+00  7.00964E+02 -6.19328E+02  4.27029E+02  7.95882E+02
  5.98936E+02  1.55398E+02 -6.57675E+01  1.07566E+02 -2.87654E+02  7.96937E+02 -1.40021E+02  3.50556E+02
 -2.66608E+02 -3.35757E+02 -3.69116E+02 -2.30611E+02 -5.72033E+02  8.16871E+01 -9.66806E+02 -9.79828E+01
 -1.16717E+03  3.54366E+02 -2.39589E+02 -7.22418E+02  7.76191E+02 -1.38573E+03  6.32580E+02 -1.34016E+02
  7.97858E+02  1.75551E+02 -4.27446E+02  3.05056E+02 -2.38746E+02  6.64675E+02 -5.29610E+02  7.30844E+02
