 $NMID ID='MM_0lb_SNR800_15hz_g55_26.RAW', FMTDAT='(8E13.5)'
 TRAMP=1., VOLUME=1. $END
  3.09769E+05  2.54717E+02  3.37824E+05  2.50525E+05  8.45682E+04  3.37895E+05 -1.32605E+05  2.51196E+05
 -1.90135E+05  8.31425E+04 -1.12064E+05 -3.26286E+04  1.03470E+03 -5.04315E+04  5.39561E+04 -6.05825E+01
  3.54920E+04  5.31391E+04 -1.68055E+04  7.56926E+04 -6.08167E+04  6.36194E+04 -8.40689E+04  3.20248E+04
 -8.11545E+04 -1.14243E+04 -5.71882E+04 -5.10729E+04 -1.49910E+04 -6.94812E+04  2.72903E+04 -4.55446E+04
  4.00424E+04  3.93764E+03  1.63542E+04  4.78803E+04 -3.44187E+04  4.69918E+04 -6.68619E+04 -2.05952E+02
 -5.33593E+04 -5.64067E+04 -6.63433E+03 -7.73009E+04  3.39619E+04 -5.51349E+04  4.80309E+04 -1.75809E+04
  4.33843E+04  1.13468E+04  3.18680E+04  2.56767E+04  1.60111E+04  2.95504E+04 -5.29009E+03  2.73076E+04
 -2.19005E+04  1.22887E+04 -1.89379E+04 -4.95432E+03  5.67563E+03 -7.39474E+03  2.24958E+04  1.22037E+04
  7.02178E+03  3.54724E+04 -3.22214E+04  3.55304E+04 -6.30850E+04  2.22623E+03 -5.71274E+04 -4.28543E+04
 -1.24028E+04 -6.32572E+04  3.98959E+04 -4.51179E+04  5.81186E+04 -2.13924E+03  3.41539E+04  3.25971E+04
 -5.94191E+03  3.63255E+04 -2.99248E+04  1.59586E+04 -3.00407E+04 -4.35819E+03 -1.65143E+04 -1.06639E+04
 -8.57627E+03 -1.33188E+04 -7.81169E+02 -1.78088E+04  7.46071E+03 -2.29740E+04  1.52755E+04 -1.33087E+04
  1.11764E+04  5.45328E+03 -8.27806E+03  1.28213E+04 -2.12065E+04 -4.32333E+03 -8.35124E+03 -3.37423E+04
  2.30653E+04 -4.33540E+04  4.81931E+04 -1.97078E+04  4.49622E+04  1.95322E+04  1.53390E+04  4.40626E+04
 -1.64198E+04  3.35054E+04 -2.53407E+04  1.75179E+03 -9.86178E+03 -2.76973E+04  2.07479E+04 -3.38600E+04
  4.10883E+04 -8.88264E+03  3.54018E+04  2.37267E+04  1.80496E+04  4.67277E+04 -8.14252E+03  5.01453E+04
 -3.18229E+04  3.35377E+04 -4.19488E+04  9.80762E+03 -4.26681E+04 -1.68788E+04 -2.36201E+04 -3.80884E+04
  7.45489E+03 -3.80046E+04  3.16490E+04 -1.46852E+04  2.91943E+04  1.11050E+04  3.81152E+03  1.92024E+04
 -1.35786E+04  8.31717E+03 -1.03547E+04 -7.60044E+03  5.96969E+03 -1.05109E+04  1.79798E+04  6.16189E+03
  1.31643E+04  2.21589E+04 -5.85597E+03  2.49499E+04 -2.21344E+04  1.14986E+04 -2.81535E+04 -4.57613E+03
 -2.07488E+04 -1.73267E+04 -8.20662E+03 -2.03243E+04  3.73679E+03 -1.93738E+04  1.55774E+04 -1.83415E+04
  2.62713E+04 -1.29530E+04  3.23811E+04  2.87496E+03  2.36479E+04  1.97358E+04  4.17932E+03  3.60400E+04
 -1.77040E+04  3.01940E+04 -2.80042E+04  1.03737E+04 -2.07291E+04 -1.03217E+04 -4.34323E+03 -1.34550E+04
  1.85982E+03 -2.63452E+03 -4.69091E+03  6.40919E+03 -1.59121E+04  5.21327E+03 -1.60581E+04 -6.84263E+03
 -1.05854E+04 -1.87076E+04  5.32007E+03 -2.30318E+04  1.50532E+04 -1.63305E+04  1.80022E+04 -1.33907E+03
  1.12708E+04  1.33246E+04 -1.36244E+03  1.87613E+04 -1.28051E+04  1.07321E+04 -1.86080E+04 -3.91680E+03
 -1.38387E+04 -1.68474E+04 -2.00576E+03 -2.29742E+04  1.04344E+04 -1.87110E+04  1.92966E+04 -9.22391E+03
  1.73934E+04  2.61437E+02  1.27877E+04  4.41195E+03  6.62988E+03  6.41231E+02  9.24867E+03 -1.58397E+03
  1.70751E+04  2.63105E+03  1.92521E+04  1.49707E+04  1.26071E+04  2.97756E+04 -2.91583E+03  3.38342E+04
 -1.99074E+04  2.67871E+04 -3.11523E+04  1.35533E+04 -3.28254E+04 -2.36674E+03 -2.73448E+04 -1.89972E+04
 -1.19134E+04 -2.69133E+04  9.38656E+03 -2.45700E+04  2.15102E+04 -1.25951E+04  1.91102E+04  5.26217E+03
  7.34508E+03  1.41321E+04 -8.67524E+03  1.24428E+04 -1.58863E+04  2.96442E+03 -1.20194E+04 -9.79488E+03
  3.31888E+01 -1.49421E+04  7.88141E+03 -1.14024E+04  9.90074E+03 -1.33318E+03  1.70140E+03  6.42854E+03
 -6.72436E+03  2.51326E+03 -5.85040E+03 -5.41541E+03 -3.48730E+02 -1.32148E+04  9.24249E+03 -1.39079E+04
  1.63860E+04 -7.03670E+03  1.72932E+04  2.69758E+03  1.51799E+04  1.28184E+04  7.02612E+03  1.99280E+04
 -3.00521E+03  2.17406E+04 -1.36360E+04  1.33395E+04 -1.55287E+04  3.51141E+03 -1.08561E+04 -3.45804E+03
 -5.39367E+03 -4.68062E+03 -9.47457E+02  9.73078E+02 -2.25366E+03  2.58824E+03 -4.89126E+03  3.95948E+03
 -9.98266E+03 -6.04914E+02 -1.08005E+04 -9.06721E+03 -4.46606E+03 -1.44549E+04  4.80527E+03 -1.11660E+04
  9.29285E+03 -4.72088E+03  6.70018E+03  2.94012E+03  1.98315E+02  4.15734E+03 -5.26837E+03 -1.10131E+02
 -4.84464E+03 -6.91409E+03 -8.38618E+02 -1.02194E+04  5.64815E+03 -1.09628E+04  1.38010E+04 -5.59345E+03
  1.59158E+04  1.51449E+03  1.18234E+04  9.02363E+03  2.22280E+03  1.24635E+04 -6.80866E+03  1.09538E+04
 -8.90686E+03  3.04897E+03 -4.74507E+03 -2.60092E+03  1.81662E+03 -3.05306E+03  5.98656E+03 -1.10906E+03
  5.13735E+03  4.72541E+03  9.67373E+02  8.75968E+03 -6.03874E+03  8.55850E+03 -1.03264E+04  2.06866E+03
 -6.91391E+03 -4.96033E+03  2.82406E+02 -9.25000E+03  5.26062E+03 -4.97107E+03  5.48715E+03  1.89319E+03
  9.19498E+02  5.58081E+03 -5.28457E+03  6.99520E+03 -7.82102E+03  3.31551E+03 -7.66209E+03 -2.34371E+03
 -4.44000E+03 -9.46159E+03  2.25778E+03 -1.05719E+04  9.24282E+03 -6.77468E+03  9.87145E+03  1.62012E+03
  6.66155E+03  7.87495E+03 -5.69251E+02  1.00167E+04 -7.39452E+03  5.76214E+03 -7.75053E+03 -6.96960E+02
 -7.37646E+03 -7.00171E+03 -1.71758E+03 -7.59290E+03  3.84481E+03 -6.11355E+03  4.46595E+03 -3.10311E+03
  3.50423E+03  8.88717E+02 -1.39036E+02  1.52697E+03  3.30399E+02 -1.15489E+03  1.08262E+03 -3.65171E+03
  6.20576E+03 -1.97071E+03  8.79458E+03  1.09483E+03  8.78642E+03  5.70137E+03  7.02738E+03  1.18288E+04
 -2.72563E+03  1.38846E+04 -1.15643E+04  9.98982E+03 -1.50604E+04  2.16243E+03 -1.17378E+04 -4.67937E+03
 -6.12620E+03 -9.86032E+03 -3.37043E+02 -8.01590E+03  3.03366E+03 -4.02738E+03  3.10188E+03 -2.88216E+03
  2.30201E+03 -1.93322E+03  2.82176E+03 -2.81903E+03  4.33999E+03 -1.92896E+03  4.98018E+03 -3.08713E+02
  6.35278E+03  1.46508E+03  2.35567E+03  5.14653E+03 -1.65349E+03  4.92817E+03 -6.57144E+03  4.42820E+03
 -7.98462E+03 -1.14687E+03 -4.12976E+03 -5.35127E+03  1.27689E+02 -8.58472E+03  4.69458E+03 -8.17425E+03
  8.49801E+03 -4.96281E+03  1.06084E+04  7.34382E+02  7.44235E+03  6.94995E+03  1.43581E+03  8.89534E+03
 -3.75837E+03  8.64111E+03 -5.44085E+03  2.58367E+03 -3.76345E+03 -1.26445E+03 -1.18919E+03 -8.26946E+02
 -6.47435E+02  4.79859E+02 -1.27848E+03  2.40865E+03 -3.65883E+03  1.22850E+03 -5.70836E+03 -7.99305E+02
 -3.45193E+03 -5.81369E+03  6.94741E+02 -7.33324E+03  4.29302E+03 -6.69315E+03  7.06524E+03 -1.91433E+03
  7.01047E+03  3.56640E+03  3.10214E+03  6.16701E+03 -1.07479E+03  7.08273E+03 -4.69742E+03  4.57161E+03
 -7.02832E+03  1.03507E+03 -5.30098E+03 -4.57410E+03 -6.17619E+02 -5.87482E+03  3.19822E+03 -4.21543E+03
  4.65061E+03 -1.86622E+03  2.77863E+03  7.70194E+02  9.27810E+02  2.13295E+03  1.11131E+03  8.71741E+02
  1.86265E+03  7.49189E+02  2.23396E+03  1.41085E+03  2.03506E+03  3.02869E+03  2.01068E+03  3.26006E+03
 -1.91412E+03  5.34416E+03 -4.52326E+03  6.14457E+03 -6.28532E+03  1.75468E+03 -7.37210E+03 -1.80238E+03
 -3.21845E+03 -6.81891E+03  1.28727E+03 -7.99989E+03  3.84677E+03 -4.56907E+03  5.42435E+03 -1.63236E+03
  4.30922E+03  2.68931E+03  1.08277E+03  4.06844E+03 -1.83858E+03  2.42474E+03 -2.35439E+03 -3.02945E+02
 -1.49978E+03 -2.67392E+03  1.71037E+03 -2.70548E+03  2.40022E+03 -1.54557E+03  2.55064E+03  7.21737E+02
  1.51813E+03  1.05194E+03  1.09755E+03  6.29683E+02 -6.34789E+02  6.06764E+02  1.77914E+03 -4.01965E+02
  8.16521E+02 -7.01785E+01  2.78218E+03  8.47663E+02  1.02851E+03  4.29646E+03 -3.65639E+02  4.97649E+03
 -2.82521E+03  2.53604E+03 -4.20523E+03  7.31326E+02 -3.85538E+03 -1.36715E+03 -8.68574E+02 -2.12332E+03
  5.68263E+02 -2.26300E+03  1.71334E+03 -1.47389E+03  1.35209E+03  1.71899E+03 -8.57612E+02  1.87533E+03
 -2.39804E+03  1.45124E+03 -2.70934E+03 -1.81290E+03 -1.59425E+03 -3.71267E+03  2.69368E+02 -3.03278E+03
  1.48109E+03 -1.46818E+03  1.75976E+03 -1.25277E+02  2.03927E+03  3.12115E+02  8.25196E+01  2.13724E+03
 -8.05331E+02  4.63866E+02 -1.82203E+03 -8.16026E+02  8.67942E+02 -2.16312E+03  2.95123E+03 -1.72303E+03
  3.05526E+03  1.87670E+02  4.44749E+03  2.20958E+03  1.52929E+03  3.40528E+03 -9.55796E+02  3.06977E+03
 -2.90783E+03  1.09056E+03 -3.06430E+03 -2.62313E+02 -1.82055E+03 -2.60105E+03  6.64938E+02 -1.91397E+03
  2.33814E+03 -1.09936E+03  1.69863E+03  1.40697E+03  6.58470E+02  2.24408E+03 -1.15801E+02  2.06903E+03
 -5.92325E+02  1.62325E+03 -7.19042E+02  5.86334E+02 -5.05682E+02  8.26556E+02 -7.81261E+02  7.88860E+02
 -7.17936E+02  1.76966E+03 -2.75265E+03  1.00425E+03 -3.56368E+03  9.58297E+01 -4.58257E+03 -2.33253E+03
 -2.16440E+03 -4.77157E+03  6.71887E+02 -5.46704E+03  2.97299E+03 -4.65170E+03  5.00794E+03 -1.71551E+03
  4.86174E+03  2.36017E+02  2.32846E+03  3.30029E+03 -2.99636E+02  3.24107E+03 -1.33844E+03  2.76881E+03
 -1.85604E+03  1.20330E+03 -1.03235E+03 -4.99394E+02 -8.83987E+02  1.01268E+02 -4.62892E+02 -1.27891E+02
 -1.04581E+03 -8.82687E+01 -1.06329E+03  1.91332E+01 -1.25684E+01 -9.98216E+02 -4.78052E+02 -1.71653E+03
  1.91164E+03 -1.12354E+03  1.67722E+03  1.13298E+02  2.48521E+03  1.85071E+03 -1.23068E+02  3.54367E+03
 -1.72798E+03  4.09663E+03 -3.78541E+03  2.16968E+03 -4.12018E+03 -3.66678E+02 -2.90309E+03 -2.45443E+03
 -1.54721E+03 -2.83977E+03  8.05453E+02 -2.77544E+03  1.69846E+03 -1.47389E+03  1.71186E+03  2.20775E+02
  1.30867E+03  1.04276E+03  1.93485E+02  9.32725E+02 -3.46642E+02 -1.95337E+01 -2.56749E+02 -4.08131E+02
  1.25949E+03 -9.88305E+01  1.13491E+03  7.60166E+02  5.05051E+02  9.97389E+02  1.36598E+02  9.49572E+02
 -1.57644E+03  1.40221E+03 -1.75700E+03  1.72242E+02 -1.76188E+03 -1.11946E+03  1.97336E+02 -2.43087E+03
  1.39968E+03 -1.81193E+03  1.68824E+03 -4.11901E+02  2.38172E+03 -1.36898E+02  1.11336E+03  1.83093E+03
  7.13401E+02  1.82976E+03 -7.42993E+02  1.46116E+03 -1.15368E+03  8.34061E+02 -9.50832E+02  1.71651E+02
 -2.69203E+02 -3.32935E+02 -4.58422E+02  3.03084E+02 -1.08024E+03  2.37181E+02 -1.56382E+03 -4.48594E+02
 -1.70994E+03 -2.86390E+02 -4.07517E+02 -1.76614E+03  1.20289E+03 -2.34451E+03  1.86586E+03 -8.00500E+02
  1.79598E+03  2.03155E+02  5.66615E+02  8.54539E+02 -2.53489E+02  1.71689E+03 -1.20449E+03  1.33343E+03
