 $NMID ID='MM_0lb_SNR800_15hz_g50_21.RAW', FMTDAT='(8E13.5)'
 TRAMP=1., VOLUME=1. $END
  3.09862E+05  2.98905E+02  3.37605E+05  2.50689E+05  8.46009E+04  3.37874E+05 -1.32503E+05  2.51069E+05
 -1.90302E+05  8.27456E+04 -1.11595E+05 -3.28531E+04  1.01477E+03 -5.06127E+04  5.38392E+04 -2.56076E+02
  3.53563E+04  5.28443E+04 -1.64136E+04  7.54153E+04 -6.06515E+04  6.33376E+04 -8.38344E+04  3.18848E+04
 -8.08035E+04 -1.16067E+04 -5.70164E+04 -5.09721E+04 -1.52381E+04 -6.93366E+04  2.73228E+04 -4.55506E+04
  3.99026E+04  3.73979E+03  1.59350E+04  4.78953E+04 -3.41713E+04  4.72536E+04 -6.65125E+04 -1.22883E+02
 -5.29292E+04 -5.67919E+04 -6.98968E+03 -7.66609E+04  3.38921E+04 -5.46814E+04  4.78700E+04 -1.72587E+04
  4.30774E+04  1.13994E+04  3.19470E+04  2.53254E+04  1.59888E+04  2.89939E+04 -5.32466E+03  2.71506E+04
 -2.18846E+04  1.22999E+04 -1.85689E+04 -4.79826E+03  5.25509E+03 -7.57956E+03  2.19966E+04  1.23073E+04
  7.59200E+03  3.51516E+04 -3.19897E+04  3.54542E+04 -6.26668E+04  1.87500E+03 -5.66424E+04 -4.26616E+04
 -1.27057E+04 -6.25541E+04  3.94826E+04 -4.52759E+04  5.79412E+04 -2.20935E+03  3.38110E+04  3.20441E+04
 -6.08699E+03  3.55565E+04 -2.96077E+04  1.54978E+04 -2.97682E+04 -4.72184E+03 -1.63592E+04 -1.05830E+04
 -8.30911E+03 -1.28014E+04 -5.67123E+02 -1.78789E+04  7.53813E+03 -2.27494E+04  1.52984E+04 -1.34309E+04
  1.14724E+04  4.83758E+03 -8.12055E+03  1.30832E+04 -2.08895E+04 -4.03415E+03 -8.11013E+03 -3.32062E+04
  2.27097E+04 -4.30795E+04  4.77801E+04 -1.93699E+04  4.44306E+04  1.91102E+04  1.56195E+04  4.38027E+04
 -1.55543E+04  3.28971E+04 -2.51004E+04  1.55146E+03 -9.49640E+03 -2.79704E+04  2.08437E+04 -3.35660E+04
  4.05770E+04 -8.90642E+03  3.48827E+04  2.35293E+04  1.77832E+04  4.60360E+04 -7.86200E+03  4.92125E+04
 -3.11881E+04  3.30471E+04 -4.12681E+04  9.30062E+03 -4.18294E+04 -1.61006E+04 -2.31133E+04 -3.71396E+04
  7.19333E+03 -3.74487E+04  3.12322E+04 -1.43617E+04  2.88062E+04  1.09395E+04  3.81841E+03  1.89711E+04
 -1.33464E+04  8.44836E+03 -9.93685E+03 -7.47466E+03  5.86285E+03 -1.07187E+04  1.82461E+04  6.11939E+03
  1.36221E+04  2.21096E+04 -6.01428E+03  2.50747E+04 -2.21662E+04  1.11206E+04 -2.74298E+04 -5.15012E+03
 -2.00809E+04 -1.73352E+04 -7.94617E+03 -1.94791E+04  3.91887E+03 -1.83906E+04  1.52612E+04 -1.76298E+04
  2.54756E+04 -1.27173E+04  3.21119E+04  2.61065E+03  2.37162E+04  1.92568E+04  4.33524E+03  3.54016E+04
 -1.73928E+04  2.99369E+04 -2.75474E+04  1.01212E+04 -2.03909E+04 -1.04859E+04 -4.32749E+03 -1.36199E+04
  2.06494E+03 -2.96888E+03 -4.46858E+03  6.31265E+03 -1.55678E+04  5.45812E+03 -1.61270E+04 -6.50584E+03
 -9.86445E+03 -1.81916E+04  4.86649E+03 -2.22057E+04  1.46973E+04 -1.59839E+04  1.75637E+04 -1.41730E+03
  1.08220E+04  1.30975E+04 -9.96286E+02  1.83397E+04 -1.24944E+04  1.04216E+04 -1.81827E+04 -3.77552E+03
 -1.36059E+04 -1.68837E+04 -1.71375E+03 -2.21043E+04  1.02768E+04 -1.82033E+04  1.85968E+04 -8.99696E+03
  1.70242E+04  1.88163E+02  1.24316E+04  4.25000E+03  6.50450E+03  8.08019E+02  8.92122E+03 -1.54462E+03
  1.66855E+04  2.85181E+03  1.81660E+04  1.42609E+04  1.19572E+04  2.92941E+04 -2.73491E+03  3.25252E+04
 -1.88206E+04  2.59673E+04 -3.04329E+04  1.30526E+04 -3.16185E+04 -2.41068E+03 -2.65601E+04 -1.79276E+04
 -1.14543E+04 -2.60705E+04  8.60454E+03 -2.34917E+04  2.03223E+04 -1.24182E+04  1.85704E+04  4.97416E+03
  6.95635E+03  1.36502E+04 -8.84093E+03  1.23333E+04 -1.54391E+04  2.55539E+03 -1.19454E+04 -9.44950E+03
 -1.15000E+01 -1.49437E+04  7.50836E+03 -1.11145E+04  9.94286E+03 -1.32924E+03  2.04650E+03  6.48136E+03
 -6.66292E+03  2.10776E+03 -5.33524E+03 -5.52659E+03 -1.29754E+02 -1.30531E+04  9.50446E+03 -1.35121E+04
  1.54187E+04 -6.82506E+03  1.67232E+04  3.07038E+03  1.44610E+04  1.23428E+04  6.73449E+03  1.89993E+04
 -2.92588E+03  2.08713E+04 -1.30488E+04  1.29934E+04 -1.46545E+04  3.27108E+03 -1.08524E+04 -2.73163E+03
 -5.25589E+03 -4.57189E+03 -6.65913E+02  1.11283E+03 -2.08550E+03  2.56099E+03 -4.52664E+03  3.86203E+03
 -1.00722E+04 -7.02106E+02 -1.05592E+04 -8.71356E+03 -4.44481E+03 -1.38292E+04  4.33557E+03 -1.08431E+04
  9.12791E+03 -4.75422E+03  6.38245E+03  2.92137E+03  1.93412E+02  4.17817E+03 -4.76533E+03 -3.61110E+02
 -4.49314E+03 -6.51947E+03 -7.35942E+02 -9.67559E+03  5.54975E+03 -1.05561E+04  1.33461E+04 -5.70170E+03
  1.55279E+04  1.25607E+03  1.13789E+04  8.51050E+03  2.23482E+03  1.18162E+04 -6.54561E+03  1.03356E+04
 -8.49306E+03  3.46729E+03 -4.30013E+03 -1.81858E+03  1.59997E+03 -2.61660E+03  5.94331E+03 -1.16809E+03
  5.18189E+03  4.79183E+03  9.40852E+02  8.38389E+03 -6.31214E+03  7.84325E+03 -1.03851E+04  2.32070E+03
 -6.79352E+03 -5.04416E+03  1.74578E+02 -8.50085E+03  5.30951E+03 -4.25638E+03  5.13004E+03  1.83666E+03
  1.10691E+03  5.22836E+03 -5.43279E+03  6.77869E+03 -7.38382E+03  3.23518E+03 -7.07553E+03 -2.17587E+03
 -4.37451E+03 -8.96008E+03  2.02768E+03 -1.04938E+04  8.40196E+03 -6.68968E+03  9.46541E+03  1.72756E+03
  6.20419E+03  8.02111E+03 -3.54899E+02  9.89678E+03 -6.79474E+03  5.66384E+03 -7.65172E+03 -6.05257E+02
 -7.28535E+03 -6.48330E+03 -1.33192E+03 -7.22371E+03  3.45219E+03 -5.83777E+03  4.36980E+03 -2.99289E+03
  3.50995E+03  9.40708E+02 -3.72965E+02  1.52520E+03  6.57175E+01 -1.14448E+03  7.68090E+02 -3.36715E+03
  6.19931E+03 -2.19911E+03  8.46878E+03  1.02610E+03  8.51079E+03  5.17715E+03  6.72510E+03  1.07391E+04
 -2.58947E+03  1.29100E+04 -1.10258E+04  9.72089E+03 -1.39556E+04  1.75242E+03 -1.14798E+04 -4.36514E+03
 -5.72800E+03 -9.38783E+03 -3.40194E+02 -7.66650E+03  2.89775E+03 -3.96486E+03  2.46449E+03 -2.62601E+03
  2.04521E+03 -2.21485E+03  2.83506E+03 -2.73750E+03  3.83304E+03 -2.12985E+03  4.91046E+03 -2.13913E+02
  6.13166E+03  1.36532E+03  2.33553E+03  5.03350E+03 -1.71348E+03  5.29458E+03 -6.35248E+03  4.13112E+03
 -7.69266E+03 -1.37276E+03 -4.02760E+03 -5.14081E+03 -3.86868E+02 -7.71867E+03  5.03738E+03 -8.50420E+03
  8.44073E+03 -4.60854E+03  9.92990E+03  8.29854E+02  7.11142E+03  7.04144E+03  1.35295E+03  9.30809E+03
 -3.66364E+03  8.36237E+03 -5.18177E+03  2.75617E+03 -3.31340E+03 -1.22042E+03 -1.31492E+03 -1.10780E+03
 -6.87240E+02  3.51456E+02 -1.03303E+03  2.43242E+03 -3.47392E+03  1.70430E+03 -5.82168E+03 -7.88831E+02
 -3.23428E+03 -5.72168E+03  5.18569E+02 -7.40890E+03  4.29461E+03 -6.66835E+03  6.35071E+03 -2.19517E+03
  7.01820E+03  3.73334E+03  2.83635E+03  5.91627E+03 -1.65171E+03  6.94714E+03 -4.70630E+03  4.35066E+03
 -6.60285E+03  5.03131E+02 -5.11554E+03 -4.39580E+03 -5.81862E+02 -5.36092E+03  2.98088E+03 -4.38020E+03
  4.55175E+03 -1.51961E+03  3.02878E+03  9.54194E+02  9.93543E+02  2.25169E+03  9.96421E+02  7.91695E+02
  1.88958E+03  6.67604E+02  1.63844E+03  1.30107E+03  1.82205E+03  3.10695E+03  1.81010E+03  3.25469E+03
 -1.75617E+03  4.92214E+03 -4.57342E+03  6.30848E+03 -6.06752E+03  1.64463E+03 -6.92429E+03 -1.84321E+03
 -3.23803E+03 -6.14506E+03  1.47649E+03 -7.27923E+03  3.97475E+03 -4.26115E+03  5.37583E+03 -1.33574E+03
  4.23131E+03  2.67695E+03  1.04862E+03  3.81828E+03 -1.66994E+03  1.81160E+03 -2.21309E+03 -5.24006E+02
 -1.13870E+03 -2.74181E+03  1.51829E+03 -3.00976E+03  2.67480E+03 -1.49921E+03  2.49885E+03  3.80514E+02
  1.53929E+03  9.43665E+02  1.11721E+03  5.34569E+02 -3.64715E+02  1.18032E+03  1.60265E+03 -1.13977E+02
  6.22280E+02 -1.72978E+02  2.90282E+03  1.05870E+03  1.18539E+03  3.63460E+03 -5.84835E+02  4.76957E+03
 -2.70583E+03  2.34081E+03 -3.66774E+03  6.97954E+02 -3.83532E+03 -1.12614E+03 -9.27680E+02 -2.05960E+03
  2.52974E+02 -2.52965E+03  1.68394E+03 -1.46845E+03  1.27230E+03  2.06813E+03 -8.36267E+02  2.06664E+03
 -2.46171E+03  1.29482E+03 -2.70547E+03 -2.07108E+03 -1.77976E+03 -3.57865E+03  3.63752E+02 -2.90722E+03
  1.29195E+03 -1.62669E+03  1.81604E+03 -4.79374E+01  2.37834E+03  1.85338E+02  3.78652E+02  1.74611E+03
 -9.36521E+02  1.63769E+02 -1.29173E+03 -9.35995E+02  7.31159E+02 -2.03520E+03  3.02689E+03 -1.38390E+03
  3.28228E+03  4.10572E+02  4.36021E+03  2.09746E+03  1.65622E+03  3.70654E+03 -7.70824E+02  3.54685E+03
 -2.90556E+03  1.13856E+03 -3.19334E+03 -2.11416E+02 -1.68961E+03 -2.54394E+03  4.72025E+02 -1.44785E+03
  2.42172E+03 -1.11032E+03  1.67054E+03  1.28407E+03  4.76525E+02  2.13523E+03  1.40255E+02  1.68416E+03
 -5.24014E+02  1.50695E+03 -9.88371E+02  4.30460E+02 -2.18699E+02  2.49370E+02 -7.59539E+02  1.04158E+03
 -1.20082E+03  1.75624E+03 -2.81876E+03  1.22077E+03 -3.59376E+03  2.35166E+02 -4.11523E+03 -2.34857E+03
 -2.22305E+03 -4.53922E+03  6.20592E+02 -5.26547E+03  2.58292E+03 -4.48647E+03  4.89799E+03 -1.58253E+03
  4.57969E+03  5.90733E+02  2.56417E+03  3.14741E+03 -3.21633E+02  3.62229E+03 -1.81001E+03  2.71289E+03
 -1.89422E+03  1.33131E+03 -1.37428E+03 -5.86053E+02 -5.76239E+02 -2.85779E+02 -8.21072E+02 -1.01681E+02
 -1.42904E+03 -4.80600E+01 -1.28168E+03  2.66645E+01  9.85032E+01 -1.05306E+03 -3.60428E+02 -1.58905E+03
  1.92012E+03 -1.26175E+03  1.67520E+03  3.70954E+02  2.55992E+03  2.05789E+03  1.27049E+02  3.27402E+03
 -1.56819E+03  4.08029E+03 -3.13693E+03  2.68975E+03 -3.91954E+03 -3.57309E+02 -2.92084E+03 -2.42115E+03
 -1.70935E+03 -3.10830E+03  5.83148E+02 -2.84958E+03  1.51540E+03 -1.71651E+03  1.81517E+03  4.39314E+02
  1.12048E+03  6.91665E+02 -1.55559E+01  6.56556E+02 -8.64215E+02  2.43200E+01  1.46192E+02 -7.44614E+02
  9.32506E+02 -1.59423E+02  1.05683E+03  8.41742E+02  4.43790E+02  1.24307E+03  3.51970E+02  1.13200E+03
 -1.29899E+03  1.32971E+03 -1.73786E+03  3.91868E+01 -1.78413E+03 -1.04632E+03 -2.99875E+02 -2.22188E+03
  1.56004E+03 -1.95251E+03  1.68758E+03 -4.25618E+02  2.32331E+03 -1.50586E+02  8.22719E+02  2.07086E+03
  2.92971E+02  1.24883E+03 -4.09329E+02  1.47005E+03 -1.20120E+03  1.12756E+03 -1.14084E+03 -4.22074E+02
 -4.04311E+02 -1.66571E+02 -6.23734E+02  1.47840E+02 -1.25086E+03  3.09319E+02 -1.72929E+03 -5.70123E+02
 -2.16765E+03 -2.28624E+02 -4.52369E+02 -1.96999E+03  1.07931E+03 -2.72579E+03  1.68615E+03 -7.52012E+02
  1.86932E+03  1.53222E+02  5.35601E+02  1.13753E+03 -1.13175E+02  1.69276E+03 -1.26084E+03  1.54170E+03
