 $NMID ID='MM_0lb_SNR800_10hz_g40_54.RAW', FMTDAT='(8E13.5)'
 TRAMP=1., VOLUME=1. $END
  3.10467E+05  8.51586E+02  3.37690E+05  2.50565E+05  8.48745E+04  3.38393E+05 -1.32353E+05  2.51235E+05
 -1.90475E+05  8.35345E+04 -1.12176E+05 -3.25260E+04  4.86797E+02 -5.06926E+04  5.41155E+04 -4.34217E+02
  3.56063E+04  5.26879E+04 -1.66244E+04  7.58503E+04 -6.10824E+04  6.39397E+04 -8.45967E+04  3.23790E+04
 -8.20813E+04 -1.19789E+04 -5.76793E+04 -5.17415E+04 -1.51784E+04 -7.02206E+04  2.76201E+04 -4.62719E+04
  4.07435E+04  3.62039E+03  1.65345E+04  4.84507E+04 -3.44545E+04  4.81136E+04 -6.74100E+04  2.07854E+02
 -5.46903E+04 -5.71999E+04 -7.13649E+03 -7.79739E+04  3.42289E+04 -5.60999E+04  4.92567E+04 -1.76142E+04
  4.45810E+04  1.13323E+04  3.25968E+04  2.57055E+04  1.54671E+04  3.00642E+04 -5.68008E+03  2.73596E+04
 -2.24843E+04  1.20595E+04 -1.81466E+04 -5.62825E+03  6.55977E+03 -7.21347E+03  2.29282E+04  1.33801E+04
  7.46621E+03  3.68552E+04 -3.32031E+04  3.63463E+04 -6.45086E+04  2.24052E+03 -5.77079E+04 -4.34857E+04
 -1.23820E+04 -6.47114E+04  4.06674E+04 -4.66192E+04  5.99492E+04 -2.23394E+03  3.57272E+04  3.33467E+04
 -5.62670E+03  3.79672E+04 -3.08751E+04  1.73792E+04 -3.16501E+04 -3.74490E+03 -1.78355E+04 -1.15348E+04
 -8.58013E+03 -1.41534E+04 -4.20275E+02 -1.91076E+04  8.19042E+03 -2.35366E+04  1.54364E+04 -1.27193E+04
  1.07998E+04  5.74735E+03 -9.75469E+03  1.29468E+04 -2.25557E+04 -5.71163E+03 -8.48922E+03 -3.57547E+04
  2.42425E+04 -4.56221E+04  5.03128E+04 -2.04899E+04  4.71142E+04  2.02937E+04  1.62068E+04  4.60043E+04
 -1.65170E+04  3.50635E+04 -2.66965E+04  2.15310E+03 -1.08931E+04 -2.87224E+04  2.16139E+04 -3.57697E+04
  4.29751E+04 -1.01602E+04  3.84825E+04  2.45769E+04  1.99549E+04  4.92042E+04 -7.92003E+03  5.35239E+04
 -3.35485E+04  3.65429E+04 -4.55230E+04  9.98856E+03 -4.55677E+04 -1.76065E+04 -2.52374E+04 -4.04321E+04
  7.40615E+03 -4.04203E+04  3.33824E+04 -1.59158E+04  3.06468E+04  1.07920E+04  5.06121E+03  1.99843E+04
 -1.34349E+04  9.27439E+03 -1.11873E+04 -7.51685E+03  6.08973E+03 -1.06729E+04  1.86466E+04  5.85131E+03
  1.42797E+04  2.23996E+04 -5.60951E+03  2.59237E+04 -2.32320E+04  1.31479E+04 -3.01491E+04 -3.67278E+03
 -2.34778E+04 -1.79318E+04 -1.02151E+04 -2.31364E+04  4.41174E+03 -2.30358E+04  1.78805E+04 -2.10626E+04
  2.95885E+04 -1.34997E+04  3.57385E+04  4.15484E+03  2.55057E+04  2.28628E+04  4.63379E+03  3.92218E+04
 -1.90741E+04  3.27930E+04 -2.92012E+04  1.12876E+04 -2.19867E+04 -9.97534E+03 -4.65715E+03 -1.28299E+04
  1.60295E+03 -1.78283E+03 -6.51260E+03  7.52122E+03 -1.83878E+04  5.09775E+03 -1.90671E+04 -8.62316E+03
 -1.08540E+04 -2.13937E+04  5.86734E+03 -2.59839E+04  1.73198E+04 -1.82703E+04  2.05570E+04 -1.74066E+03
  1.33874E+04  1.49686E+04 -1.48565E+03  2.13807E+04 -1.49465E+04  1.21603E+04 -2.17283E+04 -4.54810E+03
 -1.59541E+04 -1.94568E+04 -2.01489E+03 -2.60701E+04  1.19408E+04 -2.16608E+04  2.15616E+04 -1.08248E+04
  2.05884E+04 -2.79376E+02  1.51137E+04  4.94319E+03  7.90503E+03  9.41906E+02  1.10672E+04 -1.90682E+03
  2.02028E+04  2.90038E+03  2.31699E+04  1.74155E+04  1.57493E+04  3.47292E+04 -2.70686E+03  4.03879E+04
 -2.30793E+04  3.32039E+04 -3.79735E+04  1.75382E+04 -4.04889E+04 -2.80854E+03 -3.32716E+04 -2.34695E+04
 -1.35437E+04 -3.37338E+04  1.21570E+04 -2.96028E+04  2.52667E+04 -1.47150E+04  2.20940E+04  6.87013E+03
  7.74409E+03  1.72617E+04 -1.03394E+04  1.44920E+04 -1.79413E+04  2.77724E+03 -1.42510E+04 -1.20920E+04
 -4.92200E+01 -1.79347E+04  9.28168E+03 -1.31888E+04  1.23177E+04 -1.49222E+03  3.07798E+03  7.88470E+03
 -7.76116E+03  3.55162E+03 -7.98615E+03 -6.18118E+03 -1.53757E+03 -1.64858E+04  1.11687E+04 -1.79028E+04
  2.04993E+04 -9.79222E+03  2.27129E+04  3.31314E+03  2.01275E+04  1.67131E+04  9.51664E+03  2.61458E+04
 -4.20451E+03  2.77932E+04 -1.78114E+04  1.72755E+04 -2.02449E+04  3.72855E+03 -1.38972E+04 -5.37557E+03
 -6.41447E+03 -6.44158E+03 -6.83528E+02  8.72453E+02 -2.67736E+03  3.12121E+03 -6.63666E+03  5.36532E+03
 -1.28369E+04 -9.65661E+02 -1.31929E+04 -1.05440E+04 -5.73765E+03 -1.74728E+04  5.75200E+03 -1.40196E+04
  1.20067E+04 -5.77066E+03  8.27082E+03  3.44188E+03 -3.18918E+02  5.64562E+03 -6.70549E+03 -2.03604E+02
 -6.53354E+03 -8.75809E+03 -8.60314E+02 -1.35049E+04  7.89271E+03 -1.47539E+04  1.79192E+04 -7.63043E+03
  2.12005E+04  2.00855E+03  1.53419E+04  1.25777E+04  3.02576E+03  1.71518E+04 -8.57928E+03  1.38323E+04
 -1.12295E+04  4.08125E+03 -5.99018E+03 -3.29718E+03  2.07852E+03 -3.86415E+03  7.76534E+03 -7.58212E+02
  6.81563E+03  6.40756E+03  1.35602E+03  1.13990E+04 -8.14421E+03  1.10660E+04 -1.41169E+04  2.84274E+03
 -9.28954E+03 -7.09726E+03  2.52577E+02 -1.21673E+04  7.75867E+03 -6.13314E+03  7.78517E+03  2.74237E+03
  1.71750E+03  8.35177E+03 -7.38681E+03  1.00506E+04 -1.15232E+04  4.54798E+03 -1.17348E+04 -4.18397E+03
 -7.00478E+03 -1.36559E+04  2.98175E+03 -1.54847E+04  1.33874E+04 -9.51185E+03  1.43013E+04  2.33047E+03
  8.50282E+03  1.13528E+04 -9.90813E+02  1.38899E+04 -1.02668E+04  8.09265E+03 -1.10070E+04 -1.53102E+03
 -9.59047E+03 -9.37383E+03 -1.62058E+03 -1.02706E+04  5.55009E+03 -8.43393E+03  6.39114E+03 -3.54498E+03
  4.21592E+03  1.63009E+03 -9.08293E+02  2.16019E+03 -2.43751E+02 -2.62253E+03  1.99149E+03 -6.36011E+03
  9.67341E+03 -3.87235E+03  1.37766E+04  1.46584E+03  1.34212E+04  9.25981E+03  9.17807E+03  1.80118E+04
 -3.95720E+03  2.07942E+04 -1.69740E+04  1.51257E+04 -2.19127E+04  2.67585E+03 -1.78204E+04 -7.31252E+03
 -8.67986E+03 -1.50764E+04 -2.64713E+02 -1.24478E+04  4.51108E+03 -6.67834E+03  4.63690E+03 -4.37793E+03
  2.93989E+03 -2.55677E+03  3.11043E+03 -4.03678E+03  5.24362E+03 -3.19837E+03  7.06861E+03 -8.63355E+02
  9.36087E+03  2.05728E+03  4.33242E+03  8.13988E+03 -2.07392E+03  9.55654E+03 -1.00924E+04  7.21585E+03
 -1.21701E+04 -1.28822E+03 -7.57692E+03 -8.91336E+03 -7.97007E+02 -1.33251E+04  7.62409E+03 -1.32367E+04
  1.39433E+04 -7.33165E+03  1.63738E+04  2.00523E+03  1.14804E+04  1.12922E+04  1.92791E+03  1.50503E+04
 -5.94674E+03  1.22179E+04 -9.24750E+03  3.94958E+03 -6.07255E+03 -1.56762E+03 -2.53036E+03 -1.93206E+03
 -1.27791E+03 -1.78431E+02 -2.13156E+03  2.61450E+03 -5.23759E+03  1.84446E+03 -8.92964E+03 -1.13536E+03
 -6.08804E+03 -8.42117E+03 -5.22594E+01 -1.22843E+04  7.56085E+03 -1.14224E+04  1.22816E+04 -3.49823E+03
  1.23099E+04  5.98768E+03  5.46419E+03  1.11297E+04 -2.58723E+03  1.26870E+04 -8.64879E+03  7.60757E+03
 -1.17483E+04  4.01822E+02 -8.94185E+03 -7.17354E+03 -8.32084E+02 -1.04196E+04  5.59422E+03 -8.05445E+03
  8.07505E+03 -2.58269E+03  5.15111E+03  2.23058E+03  1.92226E+03  3.66758E+03  1.15474E+03  1.67639E+03
  2.96845E+03  7.18645E+02  2.89505E+03  1.45889E+03  3.52724E+03  4.61974E+03  2.89064E+03  6.51717E+03
 -2.64585E+03  9.83239E+03 -8.20120E+03  9.97155E+03 -1.27009E+04  2.57789E+03 -1.33297E+04 -4.74402E+03
 -5.83612E+03 -1.21951E+04  1.82844E+03 -1.37167E+04  7.47742E+03 -8.60025E+03  1.04259E+04 -2.40318E+03
  7.81344E+03  4.83827E+03  1.87958E+03  7.47700E+03 -3.30431E+03  4.53485E+03 -4.92299E+03 -7.98868E+02
 -2.36772E+03 -5.12164E+03  2.79738E+03 -5.90132E+03  4.73525E+03 -2.64508E+03  5.04937E+03  1.09482E+03
  2.82291E+03  2.18775E+03  1.09051E+03  1.53027E+03 -7.44403E+02  1.82432E+03  1.41889E+03 -4.57080E+02
  2.29192E+03 -3.65546E+02  4.94985E+03  2.24616E+03  2.93630E+03  6.86741E+03 -1.21846E+03  8.72789E+03
 -6.17187E+03  5.70087E+03 -7.76325E+03  9.62685E+02 -6.98915E+03 -2.35086E+03 -2.67742E+03 -4.93929E+03
  8.33445E+02 -4.81690E+03  3.29346E+03 -1.95977E+03  2.64351E+03  2.54889E+03 -1.12216E+03  4.14085E+03
 -4.88397E+03  2.65918E+03 -5.77031E+03 -3.13176E+03 -3.33372E+03 -7.05007E+03  8.33088E+02 -6.68892E+03
  3.90136E+03 -3.88916E+03  4.63283E+03 -2.20401E+02  3.89063E+03  1.93690E+03  4.33715E+02  3.70673E+03
 -2.58756E+03  1.25860E+03 -3.38449E+03 -2.35953E+03  1.20686E+03 -5.24033E+03  5.79634E+03 -4.16970E+03
  7.80040E+03  4.20235E+02  7.67640E+03  5.35223E+03  2.58635E+03  7.85081E+03 -2.69499E+03  7.54148E+03
 -6.20874E+03  3.38859E+03 -6.74984E+03 -7.44022E+02 -3.71547E+03 -5.13288E+03  8.75924E+02 -4.73324E+03
  4.92656E+03 -2.81525E+03  4.34216E+03  2.06247E+03  1.49385E+03  4.52491E+03 -6.46325E+02  3.98609E+03
 -2.14204E+03  2.64538E+03 -1.88856E+03  8.50441E+02 -9.67993E+02  8.57620E+02 -1.48621E+03  1.72000E+03
 -2.27912E+03  3.45309E+03 -5.42379E+03  2.60108E+03 -7.96384E+03  3.97939E+02 -8.92106E+03 -5.32040E+03
 -4.41016E+03 -1.04071E+04  1.62661E+03 -1.23434E+04  7.56280E+03 -9.74679E+03  1.12920E+04 -3.69918E+03
  1.06754E+04  2.14306E+03  6.55883E+03  7.20259E+03  2.54181E+02  8.43451E+03 -3.29993E+03  6.26516E+03
 -4.82505E+03  2.66952E+03 -2.82141E+03 -8.99144E+02 -1.26628E+03 -6.18772E+02 -3.82815E+02  4.35608E+02
 -1.72618E+03  6.41175E+02 -1.97730E+03 -7.09300E+02 -6.26459E+02 -2.00736E+03 -6.16979E+01 -3.18437E+03
  3.41626E+03 -2.93085E+03  4.83470E+03  1.89722E+02  6.02362E+03  4.69451E+03  1.24246E+03  8.34778E+03
 -4.15101E+03  9.72260E+03 -8.85829E+03  5.40407E+03 -9.97984E+03 -9.10492E+02 -7.55565E+03 -6.41488E+03
 -3.23195E+03 -8.25955E+03  2.27198E+03 -7.77602E+03  5.42058E+03 -4.32640E+03  5.56265E+03  3.46254E+02
  3.38857E+03  2.67623E+03  1.42423E+01  2.63471E+03 -1.72378E+03 -4.68812E+02  3.02350E+02 -1.95515E+03
  2.53850E+03 -1.06171E+03  3.11714E+03  9.12465E+02  2.06845E+03  3.03385E+03  6.48281E+02  4.19094E+03
 -3.44151E+03  3.93036E+03 -4.91255E+03  2.76309E+02 -4.78347E+03 -4.03828E+03 -7.79739E+02 -6.98591E+03
  3.99756E+03 -5.64061E+03  6.40510E+03 -1.51249E+03  6.02982E+03  1.32016E+03  3.46467E+03  5.11835E+03
  1.03894E+03  5.03928E+03 -1.94440E+03  4.27627E+03 -3.40698E+03  3.05312E+03 -3.27644E+03  7.93862E+02
 -1.62471E+03 -5.48543E+02 -1.67698E+03  4.25093E+02 -2.74971E+03  9.11643E+02 -4.16044E+03 -1.16571E+03
 -3.99103E+03 -2.89496E+03 -1.25262E+03 -5.21337E+03  2.44005E+03 -5.59728E+03  4.83307E+03 -2.81244E+03
  5.59290E+03  7.58361E+02  2.79276E+03  3.65079E+03 -1.62692E+02  5.55255E+03 -4.08109E+03  3.69882E+03
