 $NMID ID='MM_0lb_SNR800_19hz_g55_31.RAW', FMTDAT='(8E13.5)'
 TRAMP=1., VOLUME=1. $END
  3.09908E+05  5.48354E+02  3.37392E+05  2.50351E+05  8.43111E+04  3.37635E+05 -1.32683E+05  2.50428E+05
 -1.89966E+05  8.28048E+04 -1.11265E+05 -3.29515E+04  1.32832E+03 -5.03587E+04  5.38559E+04  9.46479E+01
  3.51904E+04  5.28249E+04 -1.69977E+04  7.53057E+04 -6.04111E+04  6.30839E+04 -8.36227E+04  3.16648E+04
 -8.01199E+04 -1.06494E+04 -5.67142E+04 -5.05146E+04 -1.50127E+04 -6.88146E+04  2.67769E+04 -4.47973E+04
  3.92184E+04  3.81450E+03  1.56099E+04  4.75117E+04 -3.40208E+04  4.67346E+04 -6.56861E+04 -5.70941E+02
 -5.24808E+04 -5.63888E+04 -6.22458E+03 -7.57115E+04  3.32229E+04 -5.35216E+04  4.67987E+04 -1.63028E+04
  4.20850E+04  1.14451E+04  3.10132E+04  2.44904E+04  1.56920E+04  2.84993E+04 -4.77749E+03  2.69026E+04
 -2.16425E+04  1.24468E+04 -1.87989E+04 -4.38078E+03  4.68807E+03 -7.39641E+03  2.17404E+04  1.11746E+04
  7.28859E+03  3.38950E+04 -3.10820E+04  3.43530E+04 -6.17833E+04  1.92707E+03 -5.58866E+04 -4.15770E+04
 -1.25397E+04 -6.11797E+04  3.85588E+04 -4.37377E+04  5.61464E+04 -1.97125E+03  3.26080E+04  3.10028E+04
 -6.29896E+03  3.38153E+04 -2.85609E+04  1.42602E+04 -2.84093E+04 -4.93072E+03 -1.49737E+04 -1.03797E+04
 -7.49908E+03 -1.17209E+04 -8.72451E+02 -1.69961E+04  6.85579E+03 -2.26744E+04  1.48658E+04 -1.37909E+04
  1.22082E+04  4.56624E+03 -6.80449E+03  1.29113E+04 -1.98648E+04 -3.10117E+03 -7.82323E+03 -3.10714E+04
  2.12468E+04 -4.12271E+04  4.56171E+04 -1.89825E+04  4.29098E+04  1.84762E+04  1.47628E+04  4.23278E+04
 -1.54137E+04  3.16868E+04 -2.39449E+04  1.23194E+03 -8.64311E+03 -2.63672E+04  2.06781E+04 -3.13820E+04
  3.87600E+04 -7.95242E+03  3.25423E+04  2.29103E+04  1.59399E+04  4.33393E+04 -7.90935E+03  4.59121E+04
 -2.93617E+04  3.02511E+04 -3.81597E+04  8.43096E+03 -3.93481E+04 -1.54030E+04 -2.16887E+04 -3.52566E+04
  7.21235E+03 -3.47995E+04  2.95580E+04 -1.29803E+04  2.72114E+04  1.05972E+04  3.22578E+03  1.80257E+04
 -1.32054E+04  7.36602E+03 -9.73847E+03 -7.46923E+03  6.26362E+03 -1.01516E+04  1.75259E+04  6.25591E+03
  1.23905E+04  2.16286E+04 -6.44314E+03  2.32588E+04 -2.11811E+04  9.66235E+03 -2.57589E+04 -5.97579E+03
 -1.75784E+04 -1.63759E+04 -6.01632E+03 -1.73230E+04  4.03688E+03 -1.54236E+04  1.31733E+04 -1.48615E+04
  2.20210E+04 -1.18662E+04  2.84781E+04  1.60429E+03  2.16995E+04  1.64583E+04  3.94966E+03  3.33129E+04
 -1.64601E+04  2.78733E+04 -2.63021E+04  9.84535E+03 -1.98885E+04 -1.04106E+04 -3.99544E+03 -1.38692E+04
  2.49377E+03 -3.84963E+03 -2.96047E+03  5.63600E+03 -1.32564E+04  5.29351E+03 -1.36451E+04 -5.30065E+03
 -8.82343E+03 -1.60138E+04  4.52962E+03 -1.96895E+04  1.29832E+04 -1.45714E+04  1.51412E+04 -1.44487E+03
  9.20934E+03  1.10546E+04 -1.07259E+03  1.62416E+04 -1.07479E+04  8.94921E+03 -1.56496E+04 -3.58362E+03
 -1.19463E+04 -1.46835E+04 -1.56415E+03 -1.95423E+04  8.85363E+03 -1.56793E+04  1.65203E+04 -7.72212E+03
  1.47842E+04  4.41966E+02  1.09065E+04  3.99913E+03  5.45223E+03  3.61269E+02  7.82075E+03 -1.48732E+03
  1.41283E+04  2.73973E+03  1.52909E+04  1.29176E+04  9.30585E+03  2.54289E+04 -3.10414E+03  2.72163E+04
 -1.63697E+04  2.11382E+04 -2.51389E+04  1.02440E+04 -2.57536E+04 -1.84655E+03 -2.20527E+04 -1.46956E+04
 -1.03276E+04 -2.09772E+04  7.20301E+03 -1.97787E+04  1.70072E+04 -1.10866E+04  1.59932E+04  3.99595E+03
  6.58747E+03  1.14163E+04 -7.22113E+03  1.08125E+04 -1.35480E+04  2.69460E+03 -1.05368E+04 -7.94916E+03
 -6.86311E+01 -1.26057E+04  6.32268E+03 -9.30506E+03  7.93842E+03 -1.34701E+03  1.74928E+03  4.82476E+03
 -5.42885E+03  1.29654E+03 -4.08581E+03 -4.43869E+03  7.73392E+02 -1.03996E+04  8.11726E+03 -1.04532E+04
  1.24285E+04 -4.83851E+03  1.25365E+04  2.89010E+03  1.05047E+04  9.90589E+03  5.38200E+03  1.45359E+04
 -1.90131E+03  1.64671E+04 -9.57031E+03  1.02476E+04 -1.16174E+04  3.19451E+03 -8.41923E+03 -2.29226E+03
 -4.61394E+03 -3.31478E+03 -8.55421E+02  1.43305E+03 -1.82421E+03  1.91968E+03 -3.65641E+03  3.52115E+03
 -8.04649E+03 -3.97836E+02 -8.82509E+03 -7.63072E+03 -3.68573E+03 -1.18966E+04  3.48384E+03 -8.65585E+03
  7.16608E+03 -3.71218E+03  5.36669E+03  2.06046E+03  6.08577E+02  2.98102E+03 -3.44379E+03 -1.12817E+02
 -3.34472E+03 -5.43959E+03 -1.01117E+03 -7.37522E+03  3.97694E+03 -7.93852E+03  1.01712E+04 -3.74870E+03
  1.21003E+04  5.12104E+02  8.71122E+03  6.01706E+03  1.65504E+03  8.90537E+03 -5.36951E+03  8.18465E+03
 -6.87864E+03  2.45829E+03 -3.65018E+03 -1.31311E+03  1.28749E+03 -1.99210E+03  4.82454E+03 -9.50155E+02
  3.79825E+03  3.41647E+03  1.17065E+03  6.22676E+03 -4.50364E+03  6.56758E+03 -7.58622E+03  1.91382E+03
 -4.92640E+03 -3.77058E+03  3.23818E+02 -6.54738E+03  3.83539E+03 -3.34521E+03  3.52494E+03  9.95386E+02
  6.01980E+02  3.24789E+03 -3.95608E+03  4.54785E+03 -4.96349E+03  2.28743E+03 -4.44874E+03 -1.01275E+03
 -2.81568E+03 -5.82391E+03  1.19839E+03 -7.19472E+03  5.96523E+03 -4.71549E+03  6.41473E+03  4.96841E+02
  4.51233E+03  5.40903E+03  1.41144E+02  7.21311E+03 -4.81813E+03  4.21069E+03 -5.17541E+03 -5.54364E+02
 -5.87032E+03 -4.86324E+03 -1.29415E+03 -5.16027E+03  2.73216E+03 -4.63643E+03  2.94789E+03 -2.97989E+03
  2.84243E+03  2.23014E+02 -8.49651E+01  1.44273E+03  5.79204E+02 -4.32560E+02  3.44048E+02 -1.94682E+03
  4.04779E+03 -4.20950E+02  5.28647E+03  9.08277E+02  5.09700E+03  3.26529E+03  5.27855E+03  7.00241E+03
 -1.38076E+03  8.31447E+03 -7.52511E+03  6.24273E+03 -9.84888E+03  1.10360E+03 -7.60731E+03 -2.77704E+03
 -4.07444E+03 -6.57507E+03 -4.52048E+02 -4.83452E+03  1.82434E+03 -2.01661E+03  1.91931E+03 -1.84472E+03
  1.06341E+03 -1.51181E+03  2.06287E+03 -2.20385E+03  3.21553E+03 -1.29754E+03  3.68870E+03  3.46035E+02
  4.54102E+03  1.13089E+03  9.08444E+02  3.45844E+03 -1.41945E+03  2.78568E+03 -4.53629E+03  2.47793E+03
 -4.67289E+03 -1.03219E+03 -1.55110E+03 -3.05031E+03  4.93718E+02 -4.84234E+03  3.04303E+03 -5.57469E+03
  4.67286E+03 -3.37841E+03  6.36758E+03 -4.67475E+00  4.52265E+03  3.99101E+03  1.20159E+03  6.05212E+03
 -1.94074E+03  5.75199E+03 -2.99009E+03  1.82072E+03 -1.66525E+03 -9.38468E+02 -3.33872E+01 -5.68109E+02
 -3.90007E+02  7.34963E+02 -8.38177E+02  1.98943E+03 -2.43679E+03  1.06439E+03 -3.90711E+03 -3.91989E+01
 -1.46757E+03 -3.90423E+03  9.22845E+02 -4.66003E+03  2.71520E+03 -4.16119E+03  3.45913E+03 -1.03305E+03
  3.77906E+03  2.19813E+03  1.77948E+03  3.00988E+03 -7.07227E+02  4.10843E+03 -2.30973E+03  2.43699E+03
 -3.50762E+03  4.18466E+02 -3.06570E+03 -2.36525E+03 -4.08853E+02 -3.04300E+03  1.69962E+03 -2.16891E+03
  2.34040E+03 -1.32721E+03  1.64289E+03  8.58910E+01  5.60120E+02  1.37453E+03  1.02234E+03  4.07004E+02
  1.91200E+03  4.04416E+02  1.18758E+03  1.06827E+03  9.61094E+02  2.37005E+03  1.40785E+03  1.82157E+03
 -1.05443E+03  2.72809E+03 -2.38891E+03  3.77538E+03 -2.74793E+03  1.29759E+03 -3.95446E+03 -5.49570E+02
 -1.67970E+03 -3.20187E+03  6.50872E+02 -4.39056E+03  1.65112E+03 -2.27671E+03  2.70591E+03 -1.02379E+03
  2.53288E+03  1.80669E+03  2.71371E+02  2.10498E+03 -6.30478E+02  1.13432E+03 -8.03867E+02  5.79630E+01
 -4.57262E+02 -1.14224E+03  1.12950E+03 -1.33315E+03  1.25916E+03 -9.68116E+02  1.35006E+03  3.77262E+02
  6.06013E+02  5.55275E+02  9.47899E+02 -1.74128E+02 -2.56316E+02  6.53855E+02  1.62075E+03 -1.70757E+02
 -1.10403E+02 -1.28352E+02  1.59953E+03  5.58991E+02  1.54629E+02  2.09903E+03 -8.25296E+01  2.63520E+03
 -1.31117E+03  9.02645E+02 -1.86582E+03  2.27823E+02 -2.10461E+03 -5.53034E+02 -1.64452E+01 -9.01760E+02
  2.40777E+02 -1.23931E+03  8.99660E+02 -7.08119E+02  7.47073E+02  1.04018E+03 -4.22094E+02  1.16154E+03
 -1.50345E+03  6.47405E+02 -1.06373E+03 -1.13075E+03 -9.73693E+02 -2.08145E+03  1.44919E+02 -1.43523E+03
  2.41889E+02 -2.35704E+02  7.48974E+02  7.27281E+00  1.38662E+03  1.25133E+02  3.47200E+02  1.21471E+03
 -2.82127E+02  1.28263E+02 -8.33583E+02 -2.80771E+02  6.01028E+02 -7.16693E+02  1.55507E+03 -6.63197E+02
  9.62972E+02  7.66297E+01  2.38070E+03  6.04570E+02  1.42538E+03  1.31146E+03  1.19049E+02  1.94142E+03
 -1.00427E+03  9.05936E+01 -1.31070E+03 -2.26858E+01 -8.71198E+02 -1.04344E+03  4.71192E+02 -6.31302E+02
  9.96053E+02 -4.48071E+02  9.47251E+02  7.61943E+02  1.88051E+01  9.43928E+02  2.44389E+02  1.19704E+03
 -2.46734E+02  1.06813E+03 -5.72857E+02  1.56144E+02  1.32222E+01  5.44633E+02 -4.95279E+02  3.36129E+02
 -6.52392E+02  7.09419E+02 -1.63613E+03  2.11277E+02 -1.42720E+03  2.91567E+02 -2.03729E+03 -8.24805E+02
 -9.25167E+02 -1.95749E+03  4.34508E+02 -2.21464E+03  7.20996E+02 -2.21258E+03  2.53975E+03 -8.55557E+02
  1.95865E+03 -4.45089E+01  1.13114E+03  1.48751E+03 -7.32216E+02  1.18049E+03 -1.94979E+02  1.15764E+03
 -7.61257E+02  5.42109E+02 -3.09508E+02 -9.38771E+01 -3.50052E+02  2.45267E+02 -7.60548E+02  9.60292E+01
 -1.02916E+03  2.96457E+01 -8.88287E+02 -8.72168E+01  9.53129E+01 -4.70162E+02 -2.49606E+02 -8.27419E+02
  1.45425E+03 -5.22151E+02  1.82417E+02  1.59189E+02  8.66649E+02  8.49304E+02 -4.61025E+02  1.42045E+03
 -7.99338E+02  2.05582E+03 -1.41055E+03  1.31064E+03 -1.51897E+03 -9.62560E+01 -1.04719E+03 -1.19136E+03
 -1.13633E+03 -1.26521E+03  2.56284E+02 -1.01333E+03  2.78089E+02 -7.57433E+02  3.39390E+02 -2.18003E+01
  3.52070E+02  1.76841E+02  1.04870E+02  7.07343E+01 -4.39193E+02 -1.14433E+02 -3.31595E+02 -3.03986E+02
  4.25612E+02  2.38292E+02  1.24167E+02  5.11016E+02  1.54828E+02  4.71317E+02  3.89700E+02  1.44997E+02
 -3.46354E+02  2.30374E+02 -1.74129E+02  4.83536E+01 -7.52580E+02  3.67672E+01 -6.31408E+01 -5.75738E+02
  5.54891E+02 -6.33520E+02  5.40216E+02 -4.05093E+01  5.60779E+02 -6.59055E+02  5.79689E+02  7.98117E+02
  3.52278E+02  3.46131E+02 -3.87350E+02  3.23551E+02 -6.68085E+02  5.48779E+02 -2.15403E+02  2.46199E+02
 -1.61526E+02 -8.34626E+00 -5.78314E+02  1.12041E+02 -3.41661E+02  1.36836E+01 -5.49980E+02 -2.38485E+02
 -1.14376E+03  3.37413E+02 -2.54137E+02 -8.30153E+02  7.56994E+02 -1.39568E+03  4.97095E+01 -1.26540E+02
  5.43929E+02  8.13339E+00 -1.49084E+02  3.79176E+01 -5.96977E+00  7.16769E+02 -8.27635E+01  6.12342E+02
