 $NMID ID='MM_0lb_SNR800_10hz_g60_43.RAW', FMTDAT='(8E13.5)'
 TRAMP=1., VOLUME=1. $END
  3.10012E+05  2.31731E+02  3.37981E+05  2.50519E+05  8.48156E+04  3.38078E+05 -1.32577E+05  2.51876E+05
 -1.90888E+05  8.40365E+04 -1.12849E+05 -3.27886E+04  4.79412E+00 -5.09452E+04  5.39857E+04 -3.11394E+02
  3.58140E+04  5.24302E+04 -1.66450E+04  7.64319E+04 -6.12107E+04  6.42788E+04 -8.49941E+04  3.25914E+04
 -8.25527E+04 -1.17079E+04 -5.86722E+04 -5.23204E+04 -1.52265E+04 -7.10984E+04  2.82729E+04 -4.66619E+04
  4.13120E+04  3.70784E+03  1.67616E+04  4.86346E+04 -3.49282E+04  4.80961E+04 -6.81469E+04 -2.56476E-01
 -5.49025E+04 -5.80440E+04 -7.39023E+03 -7.92887E+04  3.51535E+04 -5.70947E+04  4.98385E+04 -1.82004E+04
  4.55372E+04  1.15271E+04  3.30592E+04  2.66027E+04  1.60519E+04  3.06335E+04 -5.76151E+03  2.80536E+04
 -2.26208E+04  1.23540E+04 -1.78704E+04 -5.37595E+03  7.42145E+03 -7.61203E+03  2.33056E+04  1.42881E+04
  7.10569E+03  3.75145E+04 -3.40115E+04  3.70637E+04 -6.58924E+04  2.05570E+03 -5.91807E+04 -4.45312E+04
 -1.26357E+04 -6.60687E+04  4.21462E+04 -4.81688E+04  6.16081E+04 -2.72087E+03  3.65853E+04  3.45861E+04
 -4.95373E+03  3.95856E+04 -3.16825E+04  1.86779E+04 -3.36482E+04 -3.22780E+03 -1.91182E+04 -1.19109E+04
 -9.63450E+03 -1.51888E+04  1.57480E+02 -1.96994E+04  8.61523E+03 -2.33052E+04  1.61555E+04 -1.25564E+04
  1.05266E+04  6.18014E+03 -1.10050E+04  1.30010E+04 -2.33347E+04 -7.00618E+03 -8.74395E+03 -3.71718E+04
  2.54282E+04 -4.71101E+04  5.18547E+04 -2.14188E+04  4.90135E+04  2.11444E+04  1.78179E+04  4.75930E+04
 -1.64519E+04  3.63617E+04 -2.74775E+04  2.92860E+03 -1.19189E+04 -2.94455E+04  2.16552E+04 -3.68221E+04
  4.46674E+04 -1.12109E+04  4.04780E+04  2.49347E+04  2.16775E+04  5.14204E+04 -8.25994E+03  5.64231E+04
 -3.54802E+04  3.82382E+04 -4.78442E+04  1.09661E+04 -4.81371E+04 -1.88184E+04 -2.67558E+04 -4.23539E+04
  7.78708E+03 -4.24876E+04  3.43276E+04 -1.68268E+04  3.22253E+04  1.11524E+04  5.49104E+03  2.09339E+04
 -1.39541E+04  9.66491E+03 -1.13098E+04 -7.68865E+03  5.43813E+03 -1.13773E+04  1.88980E+04  5.74420E+03
  1.46781E+04  2.27849E+04 -4.66149E+03  2.70519E+04 -2.31245E+04  1.46683E+04 -3.22916E+04 -3.24293E+03
 -2.55440E+04 -1.84538E+04 -1.19255E+04 -2.54075E+04  4.54313E+03 -2.60704E+04  1.99139E+04 -2.36726E+04
  3.20993E+04 -1.42265E+04  3.83675E+04  4.99478E+03  2.66773E+04  2.45250E+04  4.21215E+03  4.17179E+04
 -1.97718E+04  3.40033E+04 -3.06253E+04  1.20972E+04 -2.26094E+04 -1.00339E+04 -4.57817E+03 -1.30828E+04
  7.78215E+02 -9.57204E+02 -7.81662E+03  8.21220E+03 -2.05710E+04  4.83202E+03 -2.02510E+04 -9.38593E+03
 -1.16617E+04 -2.35781E+04  6.31514E+03 -2.82287E+04  1.88017E+04 -1.99797E+04  2.29534E+04 -1.68761E+03
  1.43960E+04  1.60528E+04 -1.17539E+03  2.34085E+04 -1.68130E+04  1.33276E+04 -2.37354E+04 -4.82811E+03
 -1.76537E+04 -2.11045E+04 -2.31788E+03 -2.82792E+04  1.28146E+04 -2.33813E+04  2.33202E+04 -1.21795E+04
  2.23204E+04 -2.93272E+02  1.57348E+04  5.58019E+03  8.85203E+03  1.47967E+03  1.20122E+04 -2.20219E+03
  2.24425E+04  3.04457E+03  2.57926E+04  1.84698E+04  1.75391E+04  3.77236E+04 -2.69535E+03  4.42951E+04
 -2.53988E+04  3.70149E+04 -4.22589E+04  1.91339E+04 -4.51709E+04 -3.31933E+03 -3.61813E+04 -2.61449E+04
 -1.44787E+04 -3.69128E+04  1.31844E+04 -3.28699E+04  2.82410E+04 -1.54052E+04  2.41758E+04  7.63056E+03
  8.11602E+03  1.86661E+04 -1.15403E+04  1.56547E+04 -2.01715E+04  2.84877E+03 -1.55196E+04 -1.24755E+04
 -3.92525E+01 -1.94708E+04  1.04045E+04 -1.42202E+04  1.29208E+04 -9.11734E+02  3.04939E+03  9.02912E+03
 -8.84500E+03  3.93319E+03 -8.96607E+03 -6.92418E+03 -2.24671E+03 -1.78800E+04  1.20415E+04 -2.01159E+04
  2.30330E+04 -1.19838E+04  2.64417E+04  2.78422E+03  2.28429E+04  1.85099E+04  1.04865E+04  2.93966E+04
 -5.29054E+03  3.06343E+04 -2.02591E+04  1.92096E+04 -2.24989E+04  3.92647E+03 -1.52780E+04 -6.02095E+03
 -6.86593E+03 -7.62214E+03 -5.05116E+02  4.21392E+02 -2.48558E+03  3.62914E+03 -7.33839E+03  5.22983E+03
 -1.42195E+04 -1.01941E+03 -1.48147E+04 -1.17669E+04 -6.02273E+03 -1.95665E+04  6.59464E+03 -1.54809E+04
  1.31190E+04 -6.57263E+03  9.21366E+03  4.31205E+03 -7.11558E+02  6.01590E+03 -7.69321E+03 -1.86018E+01
 -7.51362E+03 -9.74704E+03 -9.84262E+02 -1.49073E+04  8.58108E+03 -1.62141E+04  2.02015E+04 -8.73602E+03
  2.33342E+04  2.41748E+03  1.72036E+04  1.41471E+04  3.45136E+03  1.87427E+04 -9.51161E+03  1.53596E+04
 -1.27426E+04  4.63703E+03 -6.56803E+03 -3.18143E+03  2.36724E+03 -4.29823E+03  8.36272E+03 -9.13284E+02
  7.35641E+03  6.46156E+03  1.21183E+03  1.22135E+04 -9.26600E+03  1.19813E+04 -1.56744E+04  2.73629E+03
 -1.02528E+04 -8.32898E+03  9.11316E+01 -1.35608E+04  8.77263E+03 -7.05822E+03  9.35511E+03  3.60384E+03
  2.13461E+03  9.83680E+03 -8.06730E+03  1.18953E+04 -1.31318E+04  4.91550E+03 -1.38559E+04 -5.12846E+03
 -7.89519E+03 -1.59224E+04  4.04886E+03 -1.81983E+04  1.54387E+04 -1.07904E+04  1.63028E+04  3.11015E+03
  9.63372E+03  1.30423E+04 -1.42691E+03  1.52715E+04 -1.13280E+04  9.00617E+03 -1.20965E+04 -9.39203E+02
 -1.04056E+04 -1.04599E+04 -1.84795E+03 -1.16908E+04  6.48866E+03 -9.27354E+03  7.61577E+03 -3.40515E+03
  5.22680E+03  2.18315E+03 -1.28984E+03  2.04562E+03 -6.66331E+02 -3.50721E+03  3.06784E+03 -7.02921E+03
  1.13212E+04 -4.42983E+03  1.62450E+04  1.29144E+03  1.52351E+04  1.06410E+04  1.00571E+04  2.00727E+04
 -4.88805E+03  2.35038E+04 -1.92824E+04  1.71381E+04 -2.57954E+04  3.43544E+03 -2.04266E+04 -8.93625E+03
 -1.00450E+04 -1.66518E+04 -2.33067E+02 -1.41613E+04  5.27109E+03 -8.19031E+03  5.22932E+03 -5.81725E+03
  3.81473E+03 -2.87775E+03  3.77614E+03 -4.10590E+03  5.78101E+03 -3.27960E+03  7.52751E+03 -1.43115E+03
  1.00855E+04  2.37976E+03  5.44709E+03  9.17994E+03 -2.22408E+03  1.09114E+04 -1.08494E+04  8.19051E+03
 -1.44537E+04 -1.66555E+03 -9.08735E+03 -1.01307E+04 -1.04246E+03 -1.54897E+04  8.42583E+03 -1.55482E+04
  1.60438E+04 -8.93149E+03  1.86315E+04  2.74165E+03  1.29988E+04  1.36467E+04  2.14977E+03  1.68815E+04
 -7.17104E+03  1.40911E+04 -9.91237E+03  4.79725E+03 -6.80991E+03 -1.72054E+03 -2.79057E+03 -1.65627E+03
 -1.78527E+03 -2.17104E+02 -2.08937E+03  3.08320E+03 -6.35354E+03  2.63467E+03 -1.00420E+04 -1.63840E+03
 -7.19890E+03 -9.55828E+03  2.32712E+02 -1.43451E+04  8.90443E+03 -1.31647E+04  1.42383E+04 -4.07299E+03
  1.38084E+04  6.57683E+03  6.09712E+03  1.25033E+04 -2.61073E+03  1.43126E+04 -1.01562E+04  8.70385E+03
 -1.34402E+04  2.02510E+02 -1.02748E+04 -8.58711E+03 -1.32660E+03 -1.19996E+04  6.50041E+03 -9.10161E+03
  9.19094E+03 -3.06751E+03  6.31247E+03  2.11504E+03  2.26623E+03  4.22316E+03  1.58786E+03  2.04526E+03
  2.32906E+03  1.36631E+03  3.58868E+03  2.01830E+03  4.78115E+03  4.94963E+03  3.60767E+03  7.60962E+03
 -3.29887E+03  1.10227E+04 -9.83138E+03  1.15267E+04 -1.48490E+04  3.12974E+03 -1.49730E+04 -6.07603E+03
 -7.10852E+03 -1.44603E+04  2.20046E+03 -1.57085E+04  8.72075E+03 -9.90951E+03  1.17837E+04 -2.67630E+03
  8.86768E+03  5.54693E+03  1.75349E+03  8.28739E+03 -3.85281E+03  5.13496E+03 -6.22298E+03 -8.56245E+02
 -3.13773E+03 -6.06496E+03  3.34470E+03 -6.26495E+03  5.84783E+03 -3.03010E+03  5.73593E+03  1.22742E+03
  3.83690E+03  2.94025E+03  1.43489E+03  2.53057E+03 -7.57411E+02  1.98236E+03  1.54429E+03 -7.00875E+02
  2.30246E+03 -6.76787E+02  6.02874E+03  2.42895E+03  3.89515E+03  7.80106E+03 -1.20974E+03  1.01330E+04
 -6.82820E+03  6.70569E+03 -9.06819E+03  2.06693E+03 -7.97146E+03 -3.43252E+03 -3.43065E+03 -5.55062E+03
  8.71541E+02 -5.46213E+03  3.77400E+03 -2.65704E+03  3.17739E+03  2.88026E+03 -1.60679E+03  4.45170E+03
 -6.04223E+03  2.51140E+03 -6.65523E+03 -3.28639E+03 -4.02877E+03 -7.73383E+03  1.38642E+03 -8.06735E+03
  4.85846E+03 -5.08174E+03  5.74962E+03 -3.86812E+02  4.76220E+03  2.11108E+03  3.95990E+02  4.32419E+03
 -2.63266E+03  1.09317E+03 -3.39906E+03 -3.08763E+03  1.36944E+03 -6.01481E+03  7.05476E+03 -5.15697E+03
  9.19916E+03  7.75171E+02  8.93505E+03  6.44807E+03  2.98257E+03  9.18702E+03 -3.16691E+03  8.96567E+03
 -7.49601E+03  4.00027E+03 -7.91306E+03 -1.36248E+03 -4.31049E+03 -6.38897E+03  1.59944E+03 -5.31402E+03
  5.74013E+03 -2.45985E+03  4.73206E+03  2.41414E+03  1.79748E+03  5.60341E+03 -4.86403E+02  4.60209E+03
 -2.38531E+03  2.84802E+03 -2.73126E+03  8.59450E+02 -1.04885E+03  8.51411E+02 -1.54213E+03  1.96542E+03
 -2.49976E+03  3.86101E+03 -6.59632E+03  3.42026E+03 -9.59459E+03 -4.84850E+01 -1.05394E+04 -5.70382E+03
 -5.43640E+03 -1.20442E+04  2.21951E+03 -1.43923E+04  8.43089E+03 -1.10396E+04  1.33117E+04 -4.63488E+03
  1.22684E+04  2.36590E+03  7.76614E+03  8.42899E+03  6.96164E+02  9.37065E+03 -3.34646E+03  7.00583E+03
 -5.64582E+03  2.81505E+03 -3.27442E+03 -1.29784E+03 -1.34095E+03 -9.40838E+02 -4.32683E+02 -8.99671E+01
 -1.71003E+03  3.22289E+01 -1.90009E+03 -7.66474E+02 -9.22337E+02 -2.70013E+03  8.36435E+01 -3.84020E+03
  4.20467E+03 -3.21558E+03  5.72719E+03  5.54313E+01  6.57209E+03  5.34262E+03  1.63442E+03  9.27766E+03
 -4.18000E+03  1.08172E+04 -1.02871E+04  6.10445E+03 -1.13894E+04 -8.75476E+02 -8.84326E+03 -7.30136E+03
 -3.47208E+03 -1.01597E+04  2.77035E+03 -8.68874E+03  6.01120E+03 -5.06317E+03  6.59326E+03  3.66486E+02
  3.37586E+03  2.90295E+03 -2.00181E+02  2.56197E+03 -1.76706E+03 -7.22578E+01 -3.56888E+02 -2.27494E+03
  2.84680E+03 -1.64021E+03  3.50152E+03  1.10175E+03  2.56660E+03  3.71725E+03  3.21005E+02  4.67689E+03
 -4.23779E+03  4.01769E+03 -6.24300E+03  8.04030E+02 -5.55161E+03 -4.41158E+03 -8.87401E+02 -7.92867E+03
  4.54875E+03 -6.56551E+03  7.08875E+03 -1.95675E+03  7.51032E+03  1.52873E+03  3.94045E+03  5.58984E+03
  1.15794E+03  5.95759E+03 -2.31221E+03  5.12538E+03 -3.97368E+03  3.11259E+03 -2.97337E+03  1.91777E+02
 -1.59752E+03 -1.80582E+02 -1.70652E+03  1.17734E+03 -3.32116E+03  1.11592E+03 -4.69985E+03 -9.78508E+02
 -4.35552E+03 -3.15449E+03 -1.14646E+03 -6.45475E+03  2.81442E+03 -7.07637E+03  5.49837E+03 -2.75748E+03
  6.26020E+03  5.65819E+02  3.46250E+03  4.41139E+03  7.09464E+01  5.90998E+03 -4.64083E+03  3.89820E+03
