 $NMID ID='MM_0lb_SNR800_8hz_g50_100.RAW', FMTDAT='(8E13.5)'
 TRAMP=1., VOLUME=1. $END
  3.10228E+05 -8.04306E+00  3.37979E+05  2.50706E+05  8.47777E+04  3.38611E+05 -1.32589E+05  2.52087E+05
 -1.90814E+05  8.36326E+04 -1.12468E+05 -3.26009E+04  9.25124E+01 -5.09074E+04  5.39483E+04 -6.80721E+02
  3.54748E+04  5.20947E+04 -1.66939E+04  7.61981E+04 -6.13319E+04  6.49974E+04 -8.55827E+04  3.30542E+04
 -8.26171E+04 -1.17607E+04 -5.82818E+04 -5.26828E+04 -1.50396E+04 -7.13114E+04  2.81281E+04 -4.73081E+04
  4.12984E+04  3.70466E+03  1.66423E+04  4.80500E+04 -3.49134E+04  4.82747E+04 -6.84843E+04  3.69192E+02
 -5.48979E+04 -5.82945E+04 -7.68610E+03 -7.94532E+04  3.51700E+04 -5.75312E+04  5.01537E+04 -1.81501E+04
  4.57473E+04  1.11958E+04  3.34638E+04  2.66149E+04  1.58199E+04  3.09031E+04 -5.86749E+03  2.80190E+04
 -2.21060E+04  1.16179E+04 -1.76938E+04 -5.51030E+03  7.64025E+03 -7.19432E+03  2.36754E+04  1.37438E+04
  7.33094E+03  3.79479E+04 -3.44628E+04  3.76086E+04 -6.62684E+04  2.14290E+03 -5.89220E+04 -4.50527E+04
 -1.21344E+04 -6.62878E+04  4.19463E+04 -4.82569E+04  6.16413E+04 -2.69158E+03  3.72093E+04  3.45709E+04
 -5.26141E+03  4.03351E+04 -3.17902E+04  1.94120E+04 -3.39923E+04 -3.46818E+03 -2.01476E+04 -1.23264E+04
 -9.41492E+03 -1.49160E+04 -2.91295E+01 -1.99723E+04  8.50349E+03 -2.33054E+04  1.56600E+04 -1.21685E+04
  1.00992E+04  6.66053E+03 -1.05587E+04  1.24112E+04 -2.42521E+04 -7.28176E+03 -8.66465E+03 -3.85480E+04
  2.57880E+04 -4.77268E+04  5.26865E+04 -2.08620E+04  4.87093E+04  2.08937E+04  1.79666E+04  4.76446E+04
 -1.69014E+04  3.68602E+04 -2.79290E+04  2.40536E+03 -1.20832E+04 -2.97365E+04  2.13296E+04 -3.71698E+04
  4.53966E+04 -1.15384E+04  4.15522E+04  2.54389E+04  2.17298E+04  5.23920E+04 -8.69070E+03  5.73507E+04
 -3.63561E+04  3.93434E+04 -4.83909E+04  1.12098E+04 -4.80050E+04 -1.90319E+04 -2.63691E+04 -4.27167E+04
  8.29758E+03 -4.30340E+04  3.43810E+04 -1.72947E+04  3.28200E+04  1.09822E+04  5.51235E+03  2.10895E+04
 -1.38661E+04  1.01341E+04 -1.16946E+04 -7.15437E+03  5.62122E+03 -1.15094E+04  1.87593E+04  5.44256E+03
  1.52785E+04  2.27245E+04 -5.33203E+03  2.76354E+04 -2.38047E+04  1.50600E+04 -3.26700E+04 -2.54732E+03
 -2.63328E+04 -1.89042E+04 -1.23110E+04 -2.58240E+04  4.22183E+03 -2.61613E+04  2.02967E+04 -2.43958E+04
  3.33158E+04 -1.46522E+04  3.96251E+04  5.33355E+03  2.76521E+04  2.51954E+04  4.29869E+03  4.22600E+04
 -2.03282E+04  3.46719E+04 -3.12675E+04  1.18777E+04 -2.26162E+04 -1.02110E+04 -4.81929E+03 -1.27471E+04
  3.61110E+02 -8.19734E+02 -8.34369E+03  8.60872E+03 -2.13324E+04  4.98742E+03 -2.08905E+04 -1.01263E+04
 -1.24143E+04 -2.40501E+04  5.71156E+03 -2.89143E+04  1.94726E+04 -2.05718E+04  2.33033E+04 -1.62551E+03
  1.50001E+04  1.63620E+04 -1.29176E+03  2.44131E+04 -1.73530E+04  1.43713E+04 -2.42762E+04 -5.01075E+03
 -1.78222E+04 -2.15670E+04 -2.32542E+03 -2.91069E+04  1.32843E+04 -2.42853E+04  2.40064E+04 -1.21989E+04
  2.29445E+04 -6.54614E+02  1.71007E+04  5.37564E+03  9.40778E+03  1.65316E+03  1.22896E+04 -1.37970E+03
  2.30923E+04  2.98720E+03  2.67817E+04  1.88573E+04  1.83361E+04  3.92357E+04 -2.41695E+03  4.67463E+04
 -2.62229E+04  3.90563E+04 -4.35978E+04  2.02085E+04 -4.74195E+04 -3.83829E+03 -3.78538E+04 -2.76043E+04
 -1.46809E+04 -3.93043E+04  1.40204E+04 -3.40169E+04  2.92353E+04 -1.59638E+04  2.50397E+04  8.84623E+03
  7.95351E+03  1.97310E+04 -1.18850E+04  1.63250E+04 -2.10440E+04  2.36918E+03 -1.56298E+04 -1.36422E+04
 -1.70153E+02 -1.99715E+04  1.04691E+04 -1.50491E+04  1.37805E+04 -1.05521E+03  4.07676E+03  9.44782E+03
 -9.08261E+03  4.13920E+03 -9.94183E+03 -7.39796E+03 -2.21805E+03 -1.92617E+04  1.24477E+04 -2.10645E+04
  2.44276E+04 -1.21566E+04  2.83507E+04  2.83367E+03  2.42977E+04  1.93890E+04  1.15525E+04  3.16142E+04
 -6.25503E+03  3.29145E+04 -2.16403E+04  2.05124E+04 -2.39784E+04  3.69360E+03 -1.63339E+04 -6.28526E+03
 -6.35763E+03 -8.02327E+03 -1.02762E+03  3.02604E+02 -2.78834E+03  3.47805E+03 -7.71378E+03  5.35911E+03
 -1.47426E+04 -6.29977E+02 -1.58499E+04 -1.23788E+04 -6.37749E+03 -2.04279E+04  7.08836E+03 -1.66280E+04
  1.40914E+04 -6.74286E+03  9.41233E+03  4.29416E+03 -3.32011E+02  6.73996E+03 -8.89569E+03 -4.67691E+02
 -7.99997E+03 -1.08981E+04 -1.25078E+03 -1.65682E+04  9.85429E+03 -1.76198E+04  2.10882E+04 -9.47869E+03
  2.49586E+04  2.84376E+03  1.81897E+04  1.59573E+04  3.91857E+03  2.01828E+04 -9.97562E+03  1.62673E+04
 -1.33849E+04  4.26469E+03 -6.69019E+03 -3.64842E+03  2.73238E+03 -4.69690E+03  8.30069E+03 -8.38528E+02
  8.18525E+03  7.53289E+03  1.47437E+03  1.34230E+04 -9.82087E+03  1.21748E+04 -1.69935E+04  2.93317E+03
 -1.18660E+04 -8.77413E+03  6.25110E+02 -1.43806E+04  9.14749E+03 -7.59166E+03  1.03735E+04  3.90851E+03
  2.45752E+03  1.12578E+04 -8.81226E+03  1.26643E+04 -1.50065E+04  6.01201E+03 -1.52381E+04 -6.14190E+03
 -8.59307E+03 -1.71032E+04  4.33450E+03 -1.99033E+04  1.67358E+04 -1.21299E+04  1.80750E+04  3.11155E+03
  1.05337E+04  1.43716E+04 -1.59347E+03  1.75367E+04 -1.28503E+04  9.54081E+03 -1.40027E+04 -1.43952E+03
 -1.14786E+04 -1.11908E+04 -1.72612E+03 -1.28120E+04  6.50942E+03 -1.04650E+04  8.43959E+03 -4.31507E+03
  5.09311E+03  2.04648E+03 -1.14501E+03  2.07275E+03 -1.10051E+03 -3.84282E+03  3.20480E+03 -8.44020E+03
  1.30559E+04 -5.28196E+03  1.77660E+04  1.65843E+03  1.75669E+04  1.22462E+04  1.10914E+04  2.31309E+04
 -5.61418E+03  2.66270E+04 -2.17325E+04  1.96441E+04 -2.83831E+04  3.84553E+03 -2.31489E+04 -9.90564E+03
 -1.11790E+04 -1.89683E+04 -1.60506E+02 -1.62870E+04  5.98079E+03 -9.29741E+03  5.66926E+03 -5.69558E+03
  4.51285E+03 -3.99543E+03  4.25157E+03 -4.20533E+03  5.88135E+03 -4.29284E+03  8.59053E+03 -1.55290E+03
  1.14893E+04  2.43448E+03  6.43978E+03  1.03348E+04 -2.54468E+03  1.27245E+04 -1.29805E+04  9.50875E+03
 -1.61398E+04 -1.76965E+03 -1.07054E+04 -1.11992E+04 -1.20532E+03 -1.80477E+04  9.56189E+03 -1.75670E+04
  1.83316E+04 -9.57090E+03  2.17110E+04  3.04535E+03  1.49130E+04  1.53119E+04  1.92940E+03  2.00015E+04
 -8.44537E+03  1.59725E+04 -1.16359E+04  5.53357E+03 -8.25520E+03 -2.08629E+03 -3.60470E+03 -2.31649E+03
 -1.64108E+03  9.89564E+01 -2.23808E+03  3.01328E+03 -7.42607E+03  2.62292E+03 -1.12884E+04 -1.58824E+03
 -8.47073E+03 -1.14568E+04 -1.45963E+02 -1.61302E+04  1.04910E+04 -1.54887E+04  1.63503E+04 -4.69552E+03
  1.66619E+04  7.80922E+03  7.52000E+03  1.49367E+04 -3.36567E+03  1.69881E+04 -1.22318E+04  1.05707E+04
 -1.56964E+04  9.24372E+02 -1.18675E+04 -1.02017E+04 -1.39466E+03 -1.40090E+04  7.10587E+03 -1.05458E+04
  1.05204E+04 -3.14748E+03  7.05129E+03  2.89091E+03  2.92987E+03  4.98538E+03  1.91328E+03  2.59029E+03
  2.98793E+03  1.43875E+03  4.05098E+03  1.87518E+03  4.90956E+03  5.74781E+03  4.29983E+03  8.55837E+03
 -3.51590E+03  1.33155E+04 -1.20097E+04  1.33639E+04 -1.77715E+04  3.43565E+03 -1.76238E+04 -7.78412E+03
 -8.64568E+03 -1.70152E+04  2.40595E+03 -1.86766E+04  1.06579E+04 -1.17688E+04  1.40261E+04 -3.08282E+03
  1.12386E+04  6.38013E+03  2.49732E+03  9.85078E+03 -5.23029E+03  6.71386E+03 -7.11000E+03 -1.21745E+03
 -3.56710E+03 -7.30832E+03  3.62321E+03 -7.65678E+03  7.49043E+03 -3.40023E+03  7.06268E+03  1.56678E+03
  4.52261E+03  3.35681E+03  1.54840E+03  2.54820E+03 -9.42403E+02  2.49970E+03  1.94851E+03 -1.16433E+03
  2.98975E+03 -1.14594E+03  6.87145E+03  2.31487E+03  4.15634E+03  9.41082E+03 -1.69249E+03  1.20063E+04
 -8.75215E+03  8.67969E+03 -1.16176E+04  1.96637E+03 -1.01466E+04 -4.12445E+03 -4.28858E+03 -7.14694E+03
  1.44554E+03 -6.64216E+03  4.75064E+03 -3.06819E+03  3.52417E+03  3.15963E+03 -1.69930E+03  5.71128E+03
 -7.39410E+03  3.28444E+03 -8.75132E+03 -4.44128E+03 -4.60382E+03 -9.41247E+03  1.15062E+03 -1.04015E+04
  5.77259E+03 -5.70680E+03  7.16561E+03 -6.94004E+02  5.76964E+03  2.68525E+03  9.98740E+02  5.28706E+03
 -3.51884E+03  1.70450E+03 -4.51901E+03 -3.56567E+03  1.90858E+03 -7.87077E+03  8.79015E+03 -6.14977E+03
  1.18419E+04  1.04895E+03  1.12027E+04  7.76778E+03  3.85395E+03  1.19961E+04 -4.17057E+03  1.10995E+04
 -9.18781E+03  4.59544E+03 -1.00763E+04 -1.34682E+03 -5.77532E+03 -7.48042E+03  2.00995E+03 -7.10058E+03
  7.38347E+03 -3.44874E+03  6.53800E+03  3.33132E+03  2.33325E+03  6.34860E+03 -9.77979E+02  6.13030E+03
 -3.06668E+03  3.66552E+03 -2.56806E+03  1.07236E+03 -7.87338E+02  9.97987E+02 -1.48003E+03  2.29026E+03
 -2.90321E+03  4.26389E+03 -7.43080E+03  4.12098E+03 -1.19253E+04  3.09363E+02 -1.31184E+04 -7.50473E+03
 -6.96007E+03 -1.57996E+04  2.95153E+03 -1.83487E+04  1.16085E+04 -1.41345E+04  1.74666E+04 -4.83712E+03
  1.58724E+04  3.59889E+03  9.99261E+03  1.07006E+04  1.27007E+03  1.26240E+04 -5.06649E+03  9.18528E+03
 -7.01678E+03  3.74524E+03 -4.56681E+03 -1.31637E+03 -1.41534E+03 -1.61522E+03 -5.25135E+02 -1.83035E+02
 -1.75476E+03  6.34836E+02 -2.74685E+03 -4.09786E+02 -1.34670E+03 -2.93180E+03  4.61466E+02 -4.91245E+03
  5.38571E+03 -3.95853E+03  7.99100E+03 -3.53387E+02  9.08931E+03  7.04139E+03  2.83601E+03  1.25900E+04
 -5.41815E+03  1.39003E+04 -1.37170E+04  8.22733E+03 -1.50959E+04 -8.32116E+02 -1.15112E+04 -9.53566E+03
 -4.79584E+03 -1.25504E+04  3.46234E+03 -1.19217E+04  8.12095E+03 -6.80532E+03  8.06049E+03  8.64336E+02
  4.37411E+03  4.31863E+03 -7.47007E+02  3.75105E+03 -2.52131E+03 -4.83489E+02  1.44899E+02 -3.09375E+03
  4.06209E+03 -1.98084E+03  5.34027E+03  1.81236E+03  3.51361E+03  4.98892E+03  1.90846E+02  6.64070E+03
 -5.69384E+03  6.20505E+03 -8.64738E+03  7.91398E+02 -7.92379E+03 -6.10518E+03 -1.15384E+03 -1.06438E+04
  6.31656E+03 -8.93189E+03  1.00055E+04 -3.31953E+03  9.67735E+03  2.48499E+03  6.01426E+03  7.94264E+03
  1.23887E+03  8.56197E+03 -3.38922E+03  6.70383E+03 -5.07279E+03  3.90528E+03 -4.42016E+03  4.68921E+02
 -2.29123E+03 -5.89062E+02 -2.31966E+03  1.18417E+03 -4.98610E+03  1.31288E+03 -6.59552E+03 -1.01264E+03
 -6.27795E+03 -4.57037E+03 -1.88705E+03 -8.62569E+03  3.92055E+03 -9.35064E+03  8.00230E+03 -4.51175E+03
  8.79425E+03  1.11306E+03  5.01600E+03  6.13210E+03 -4.16012E+02  9.25133E+03 -6.50020E+03  6.04332E+03
