 $NMID ID='MM_0lb_SNR800_12hz_g50_80.RAW', FMTDAT='(8E13.5)'
 TRAMP=1., VOLUME=1. $END
  3.09633E+05  4.53584E+02  3.37922E+05  2.50903E+05  8.45632E+04  3.38169E+05 -1.32705E+05  2.51383E+05
 -1.90388E+05  8.34578E+04 -1.12356E+05 -3.26772E+04  6.88365E+02 -5.04896E+04  5.35615E+04 -2.78071E+02
  3.55344E+04  5.30508E+04 -1.66924E+04  7.57426E+04 -6.11657E+04  6.37789E+04 -8.46336E+04  3.22071E+04
 -8.16740E+04 -1.13967E+04 -5.76833E+04 -5.19242E+04 -1.52327E+04 -7.01191E+04  2.77955E+04 -4.63277E+04
  4.03726E+04  4.16596E+03  1.65913E+04  4.80348E+04 -3.44152E+04  4.76242E+04 -6.71990E+04 -3.91244E+02
 -5.41022E+04 -5.69576E+04 -6.93543E+03 -7.79200E+04  3.39729E+04 -5.57044E+04  4.89440E+04 -1.78748E+04
  4.41803E+04  1.14517E+04  3.24571E+04  2.58761E+04  1.56742E+04  2.98461E+04 -5.66709E+03  2.74019E+04
 -2.21218E+04  1.25408E+04 -1.81436E+04 -5.07449E+03  6.26295E+03 -7.38129E+03  2.25894E+04  1.29987E+04
  7.43411E+03  3.59120E+04 -3.28524E+04  3.60460E+04 -6.44590E+04  2.31735E+03 -5.80103E+04 -4.36265E+04
 -1.25047E+04 -6.43751E+04  4.09453E+04 -4.60173E+04  5.93579E+04 -2.35865E+03  3.52024E+04  3.33060E+04
 -5.66740E+03  3.77174E+04 -3.07277E+04  1.71030E+04 -3.14677E+04 -4.04833E+03 -1.79187E+04 -1.10538E+04
 -9.18097E+03 -1.38375E+04 -4.30287E+02 -1.85581E+04  8.27806E+03 -2.33442E+04  1.56807E+04 -1.30136E+04
  1.10244E+04  5.81221E+03 -9.39106E+03  1.25726E+04 -2.22126E+04 -5.43380E+03 -8.64581E+03 -3.51656E+04
  2.38311E+04 -4.50528E+04  4.96952E+04 -2.00271E+04  4.64809E+04  2.02982E+04  1.66073E+04  4.54981E+04
 -1.63262E+04  3.48207E+04 -2.62954E+04  2.12053E+03 -1.06177E+04 -2.86821E+04  2.15630E+04 -3.53208E+04
  4.22278E+04 -9.68338E+03  3.73807E+04  2.45814E+04  1.93822E+04  4.81591E+04 -8.13370E+03  5.24537E+04
 -3.32842E+04  3.55499E+04 -4.41061E+04  1.02601E+04 -4.43729E+04 -1.73923E+04 -2.42878E+04 -3.96775E+04
  7.69360E+03 -3.92899E+04  3.27308E+04 -1.54631E+04  3.04362E+04  1.11581E+04  4.68824E+03  1.98379E+04
 -1.37568E+04  8.85249E+03 -1.02513E+04 -7.45658E+03  5.64356E+03 -1.08936E+04  1.79364E+04  6.01731E+03
  1.40766E+04  2.20315E+04 -5.48055E+03  2.57525E+04 -2.27753E+04  1.25559E+04 -2.94030E+04 -3.97685E+03
 -2.23897E+04 -1.77887E+04 -9.57436E+03 -2.24445E+04  4.00091E+03 -2.18363E+04  1.71703E+04 -2.02183E+04
  2.86061E+04 -1.34230E+04  3.43049E+04  3.49962E+03  2.54115E+04  2.21241E+04  4.70229E+03  3.85256E+04
 -1.84287E+04  3.13947E+04 -2.87926E+04  1.11187E+04 -2.16401E+04 -1.00152E+04 -4.53262E+03 -1.34567E+04
  1.08018E+03 -2.26836E+03 -6.19486E+03  7.29001E+03 -1.77073E+04  4.76685E+03 -1.76495E+04 -7.98694E+03
 -1.04923E+04 -2.07437E+04  5.46367E+03 -2.48752E+04  1.66434E+04 -1.78446E+04  1.98013E+04 -1.74932E+03
  1.25100E+04  1.42155E+04 -1.02693E+03  2.04743E+04 -1.44097E+04  1.17890E+04 -2.07247E+04 -4.48725E+03
 -1.53559E+04 -1.87513E+04 -1.94160E+03 -2.48435E+04  1.12974E+04 -2.05044E+04  2.07745E+04 -1.03630E+04
  1.94741E+04  2.26584E+02  1.42542E+04  5.18474E+03  7.51445E+03  1.12413E+03  1.05514E+04 -1.91929E+03
  1.94236E+04  3.15743E+03  2.16657E+04  1.65389E+04  1.45548E+04  3.31135E+04 -2.65582E+03  3.82777E+04
 -2.14924E+04  3.13367E+04 -3.57989E+04  1.58128E+04 -3.83563E+04 -2.63976E+03 -3.06774E+04 -2.21562E+04
 -1.26213E+04 -3.12880E+04  1.08066E+04 -2.79639E+04  2.37415E+04 -1.39923E+04  2.11021E+04  6.24474E+03
  7.68726E+03  1.58071E+04 -9.94684E+03  1.38737E+04 -1.75140E+04  2.20653E+03 -1.37625E+04 -1.09566E+04
 -4.61202E+02 -1.65849E+04  8.99800E+03 -1.25558E+04  1.16328E+04 -1.64414E+03  2.77386E+03  7.20892E+03
 -7.62139E+03  3.10495E+03 -7.35677E+03 -5.73420E+03 -6.99109E+02 -1.49178E+04  1.03908E+04 -1.65586E+04
  1.91341E+04 -8.85229E+03  2.11439E+04  2.90188E+03  1.83314E+04  1.50473E+04  8.71859E+03  2.34525E+04
 -4.28002E+03  2.58150E+04 -1.64663E+04  1.60461E+04 -1.83405E+04  3.52675E+03 -1.31763E+04 -4.41465E+03
 -5.78657E+03 -5.82646E+03 -7.98931E+02  8.17617E+02 -2.61607E+03  2.94579E+03 -6.02558E+03  4.97290E+03
 -1.18431E+04 -7.01722E+02 -1.21587E+04 -9.95059E+03 -5.14596E+03 -1.65921E+04  5.15270E+03 -1.35047E+04
  1.08269E+04 -5.28142E+03  7.73458E+03  3.60415E+03  9.87265E+01  5.28902E+03 -6.06512E+03 -9.21684E-02
 -6.24276E+03 -8.16762E+03 -9.85382E+02 -1.23617E+04  7.08491E+03 -1.31958E+04  1.63214E+04 -6.85539E+03
  1.94037E+04  1.28037E+03  1.38558E+04  1.17221E+04  2.90049E+03  1.49731E+04 -7.94639E+03  1.27052E+04
 -1.05525E+04  3.67657E+03 -5.00129E+03 -3.07785E+03  1.85625E+03 -3.58072E+03  6.82586E+03 -8.02464E+02
  5.99547E+03  5.61965E+03  1.11115E+03  1.01585E+04 -7.73904E+03  9.94009E+03 -1.28496E+04  2.43638E+03
 -8.55960E+03 -6.32272E+03  2.43177E+01 -1.08879E+04  6.55351E+03 -5.70801E+03  6.98111E+03  2.39677E+03
  1.36494E+03  7.52877E+03 -6.77417E+03  8.92051E+03 -1.07283E+04  4.02197E+03 -1.02223E+04 -3.70774E+03
 -6.15822E+03 -1.22232E+04  2.94732E+03 -1.38462E+04  1.15768E+04 -8.48466E+03  1.31036E+04  2.64506E+03
  7.81558E+03  9.92745E+03 -6.48576E+02  1.23570E+04 -9.21142E+03  7.10476E+03 -9.40788E+03 -7.24423E+02
 -8.82488E+03 -8.64042E+03 -1.53153E+03 -9.07779E+03  4.62282E+03 -7.66557E+03  5.61225E+03 -3.53547E+03
  4.15350E+03  1.45323E+03 -6.58035E+02  2.09038E+03  2.04977E+01 -1.92828E+03  1.54577E+03 -5.28291E+03
  8.20949E+03 -3.15010E+03  1.16933E+04  1.18097E+03  1.17606E+04  7.39985E+03  8.25976E+03  1.55869E+04
 -3.34596E+03  1.76778E+04 -1.48892E+04  1.31129E+04 -1.92071E+04  2.20926E+03 -1.52852E+04 -6.39771E+03
 -7.77709E+03 -1.25628E+04 -3.39712E+02 -1.06963E+04  3.84280E+03 -6.00643E+03  3.75638E+03 -4.11381E+03
  3.00158E+03 -2.73971E+03  3.22099E+03 -3.36884E+03  5.17513E+03 -2.81772E+03  6.48413E+03 -6.30782E+02
  8.00233E+03  1.72577E+03  3.99501E+03  6.85803E+03 -1.82989E+03  7.48117E+03 -8.73006E+03  6.23436E+03
 -1.09696E+04 -1.27308E+03 -6.30422E+03 -7.43535E+03 -5.47142E+02 -1.11566E+04  6.44273E+03 -1.19121E+04
  1.15627E+04 -6.37062E+03  1.38422E+04  1.90450E+03  9.93358E+03  9.98419E+03  1.57460E+03  1.27171E+04
 -5.44407E+03  1.06584E+04 -7.48611E+03  3.93789E+03 -5.01119E+03 -1.22446E+03 -2.16122E+03 -1.40421E+03
 -9.28948E+02  3.69719E+02 -1.57024E+03  2.36672E+03 -4.73555E+03  1.57954E+03 -7.54179E+03 -7.28250E+02
 -5.13668E+03 -7.78036E+03  2.45860E+02 -1.05852E+04  6.05155E+03 -1.00336E+04  1.01645E+04 -2.84461E+03
  1.02259E+04  4.84182E+03  4.60092E+03  9.04809E+03 -2.03424E+03  1.05573E+04 -7.48699E+03  6.41108E+03
 -9.64577E+03  5.41152E+02 -7.66365E+03 -6.30546E+03 -9.05466E+02 -8.77958E+03  4.26241E+03 -6.16173E+03
  6.08789E+03 -1.95619E+03  4.60799E+03  1.53103E+03  1.40055E+03  3.09141E+03  1.01970E+03  1.12141E+03
  2.29801E+03  9.29886E+02  2.53252E+03  1.25573E+03  3.06979E+03  3.54341E+03  3.29388E+03  5.34037E+03
 -2.24901E+03  7.98585E+03 -6.78206E+03  8.24144E+03 -9.65844E+03  2.17589E+03 -1.05228E+04 -3.75483E+03
 -4.87538E+03 -1.00648E+04  1.43484E+03 -1.13642E+04  6.10401E+03 -7.10977E+03  8.23129E+03 -1.77921E+03
  6.54892E+03  4.01705E+03  1.60272E+03  5.55923E+03 -2.93798E+03  3.85048E+03 -4.10890E+03 -4.89244E+02
 -2.15146E+03 -4.05089E+03  2.30320E+03 -4.34072E+03  3.77842E+03 -2.07418E+03  3.78008E+03  1.01283E+03
  2.27437E+03  1.72701E+03  1.13987E+03  1.27541E+03 -5.57335E+02  1.66682E+03  1.64564E+03 -5.73037E+02
  1.47735E+03 -9.12653E+02  4.51637E+03  1.61189E+03  2.08789E+03  5.35912E+03 -1.17429E+03  7.05415E+03
 -4.48636E+03  4.32219E+03 -6.04052E+03  1.19155E+03 -5.70465E+03 -2.02127E+03 -2.14823E+03 -3.79558E+03
  8.41244E+02 -3.78765E+03  2.19337E+03 -2.06744E+03  2.06970E+03  2.10280E+03 -1.01082E+03  3.30107E+03
 -4.02179E+03  1.96105E+03 -4.60776E+03 -2.65912E+03 -2.71757E+03 -5.31350E+03  6.08856E+02 -5.29615E+03
  3.20331E+03 -2.59896E+03  3.84123E+03 -1.99823E+02  3.16980E+03  1.15583E+03  3.62825E+02  3.01115E+03
 -1.95880E+03  8.88706E+02 -2.57463E+03 -1.58963E+03  1.24830E+03 -4.22197E+03  4.70455E+03 -3.44548E+03
  5.68197E+03  1.85668E+02  6.22958E+03  3.48515E+03  2.23301E+03  6.22556E+03 -1.93652E+03  6.00327E+03
 -4.84609E+03  2.32201E+03 -5.18203E+03 -8.56913E+02 -3.04226E+03 -3.78028E+03  9.76478E+02 -3.59780E+03
  4.18790E+03 -2.13512E+03  3.45936E+03  1.41965E+03  1.17582E+03  3.24252E+03 -5.35328E+02  3.14490E+03
 -1.68999E+03  2.11175E+03 -1.70167E+03  6.08940E+02 -6.39024E+02  3.53146E+02 -1.26713E+03  1.31486E+03
 -1.75890E+03  2.51887E+03 -4.37993E+03  2.30541E+03 -5.96078E+03  1.82389E+02 -6.98543E+03 -3.81428E+03
 -3.77415E+03 -7.95320E+03  1.76599E+03 -9.59893E+03  5.58211E+03 -7.46704E+03  9.02549E+03 -2.38726E+03
  8.15528E+03  1.50219E+03  4.60119E+03  5.71415E+03  2.45151E+02  5.91038E+03 -2.74203E+03  4.52785E+03
 -3.51667E+03  1.86280E+03 -2.11385E+03 -8.40659E+02 -1.05356E+03 -4.08288E+02 -8.00517E+02 -6.66618E+01
 -1.43840E+03  5.14416E+02 -1.50655E+03 -3.95682E+02 -3.51078E+02 -1.78190E+03 -1.78724E+02 -2.45179E+03
  2.77293E+03 -2.20584E+03  3.16872E+03  2.58878E+02  4.07361E+03  3.45905E+03  1.16774E+03  5.95487E+03
 -3.11405E+03  6.92325E+03 -6.45184E+03  3.93692E+03 -7.48336E+03 -5.80085E+02 -5.34185E+03 -4.66626E+03
 -2.62815E+03 -5.90407E+03  1.49643E+03 -5.16745E+03  3.78018E+03 -2.72884E+03  3.67786E+03  4.16695E+02
  1.87954E+03  1.99387E+03  1.11434E+02  1.80653E+03 -1.21599E+03 -3.09367E+02 -6.00235E+01 -1.29154E+03
  1.50930E+03 -2.67919E+02  2.29058E+03  1.15372E+03  1.45372E+03  2.04053E+03  2.93347E+02  2.61652E+03
 -2.87068E+03  2.55275E+03 -3.45175E+03  4.44847E+02 -3.34541E+03 -2.55362E+03 -5.17492E+02 -5.17856E+03
  2.84556E+03 -3.90185E+03  4.62824E+03 -1.19911E+03  4.29554E+03  7.04978E+02  2.54545E+03  3.51837E+03
  9.54703E+02  3.50617E+03 -1.46260E+03  3.03327E+03 -1.93837E+03  1.78301E+03 -1.93014E+03  4.97181E+02
 -6.40625E+02 -1.65662E+02 -1.10283E+03  4.44235E+02 -2.20712E+03  9.12417E+02 -3.14878E+03 -6.41866E+02
 -2.58824E+03 -1.67281E+03 -9.80400E+02 -3.77443E+03  1.50145E+03 -4.62732E+03  3.20129E+03 -1.46498E+03
  3.96862E+03  3.76379E+02  1.59827E+03  2.73323E+03 -4.64014E+02  3.69659E+03 -2.82249E+03  2.68429E+03
