 $NMID ID='MM_0lb_SNR800_17hz_g40_68.RAW', FMTDAT='(8E13.5)'
 TRAMP=1., VOLUME=1. $END
  3.10000E+05  4.51634E+02  3.37271E+05  2.50642E+05  8.43758E+04  3.37312E+05 -1.32585E+05  2.50209E+05
 -1.89893E+05  8.24369E+04 -1.11097E+05 -3.28990E+04  1.48892E+03 -5.04087E+04  5.39549E+04  1.42188E+02
  3.52548E+04  5.30016E+04 -1.67537E+04  7.48089E+04 -6.02600E+04  6.28600E+04 -8.32403E+04  3.14250E+04
 -7.94637E+04 -1.11478E+04 -5.62325E+04 -5.04507E+04 -1.50421E+04 -6.83560E+04  2.67692E+04 -4.47530E+04
  3.92000E+04  4.30074E+03  1.56037E+04  4.71696E+04 -3.40385E+04  4.62434E+04 -6.50131E+04 -4.91609E+02
 -5.20324E+04 -5.60538E+04 -6.66162E+03 -7.52570E+04  3.31772E+04 -5.31688E+04  4.65098E+04 -1.61573E+04
  4.18825E+04  1.09219E+04  3.06462E+04  2.46674E+04  1.59884E+04  2.82606E+04 -5.02258E+03  2.68067E+04
 -2.18110E+04  1.27579E+04 -1.91937E+04 -4.27777E+03  4.09619E+03 -7.67838E+03  2.13940E+04  1.09985E+04
  7.30498E+03  3.34183E+04 -3.05006E+04  3.39793E+04 -6.09124E+04  2.22580E+03 -5.55520E+04 -4.13342E+04
 -1.24096E+04 -6.10060E+04  3.83449E+04 -4.34429E+04  5.58857E+04 -2.10822E+03  3.16912E+04  3.07915E+04
 -6.36580E+03  3.35930E+04 -2.83903E+04  1.35346E+04 -2.78868E+04 -5.41071E+03 -1.46480E+04 -1.01413E+04
 -7.49764E+03 -1.14280E+04 -1.18294E+03 -1.66365E+04  6.59225E+03 -2.25126E+04  1.49255E+04 -1.36465E+04
  1.22962E+04  4.33792E+03 -6.31965E+03  1.29394E+04 -1.93792E+04 -2.70246E+03 -7.87950E+03 -3.07582E+04
  2.08797E+04 -4.06821E+04  4.50530E+04 -1.85436E+04  4.21356E+04  1.85628E+04  1.44315E+04  4.18704E+04
 -1.56148E+04  3.12699E+04 -2.37124E+04  9.10690E+02 -8.59563E+03 -2.64069E+04  2.07547E+04 -3.12350E+04
  3.83287E+04 -7.46506E+03  3.21463E+04  2.26920E+04  1.55671E+04  4.30516E+04 -7.79495E+03  4.61034E+04
 -2.87564E+04  3.01435E+04 -3.78580E+04  8.30699E+03 -3.86542E+04 -1.52404E+04 -2.14650E+04 -3.47924E+04
  6.97561E+03 -3.45460E+04  2.94895E+04 -1.30821E+04  2.71478E+04  1.08484E+04  3.05809E+03  1.78814E+04
 -1.31914E+04  7.39359E+03 -9.54238E+03 -7.40848E+03  6.18375E+03 -1.03938E+04  1.76909E+04  6.46024E+03
  1.24671E+04  2.17026E+04 -6.78641E+03  2.34882E+04 -2.14822E+04  9.54961E+03 -2.53840E+04 -5.96353E+03
 -1.72369E+04 -1.64613E+04 -5.97847E+03 -1.71770E+04  3.79642E+03 -1.56115E+04  1.28189E+04 -1.48559E+04
  2.18354E+04 -1.19309E+04  2.85979E+04  1.37993E+03  2.15279E+04  1.70132E+04  4.15114E+03  3.32078E+04
 -1.64740E+04  2.79421E+04 -2.60690E+04  9.58796E+03 -1.96661E+04 -1.03601E+04 -4.08578E+03 -1.38704E+04
  2.57900E+03 -3.97057E+03 -2.99509E+03  5.63082E+03 -1.36486E+04  5.37290E+03 -1.38917E+04 -5.28138E+03
 -8.99490E+03 -1.58604E+04  4.46446E+03 -2.01383E+04  1.26142E+04 -1.43710E+04  1.50824E+04 -1.14828E+03
  9.26781E+03  1.11598E+04 -7.85609E+02  1.60961E+04 -1.07304E+04  8.93275E+03 -1.59938E+04 -3.28071E+03
 -1.19408E+04 -1.48197E+04 -1.22046E+03 -1.97748E+04  8.90775E+03 -1.60097E+04  1.64280E+04 -7.33047E+03
  1.51114E+04  6.15923E+02  1.07237E+04  3.81010E+03  5.46174E+03  5.10540E+02  7.82837E+03 -1.43956E+03
  1.44899E+04  2.62816E+03  1.55813E+04  1.31005E+04  9.77395E+03  2.55329E+04 -3.09313E+03  2.77526E+04
 -1.61478E+04  2.14192E+04 -2.54209E+04  1.02055E+04 -2.61909E+04 -1.85769E+03 -2.22083E+04 -1.52555E+04
 -1.01568E+04 -2.14426E+04  7.15662E+03 -2.02337E+04  1.73334E+04 -1.12366E+04  1.63532E+04  3.94838E+03
  6.71182E+03  1.15813E+04 -7.39916E+03  1.07469E+04 -1.38626E+04  2.59226E+03 -1.07609E+04 -8.51485E+03
 -1.33381E+02 -1.28273E+04  6.50028E+03 -9.62270E+03  8.11803E+03 -1.26920E+03  1.57157E+03  5.19749E+03
 -5.62912E+03  1.61325E+03 -3.95652E+03 -4.81966E+03  3.89044E+02 -1.09930E+04  7.98809E+03 -1.08234E+04
  1.29807E+04 -5.06455E+03  1.30848E+04  2.53428E+03  1.11242E+04  1.02108E+04  5.22467E+03  1.50534E+04
 -1.88017E+03  1.69678E+04 -1.00367E+04  1.09425E+04 -1.20889E+04  3.43232E+03 -8.71575E+03 -2.00575E+03
 -4.61857E+03 -3.59160E+03 -4.85567E+02  1.43662E+03 -1.98051E+03  2.33926E+03 -3.98667E+03  3.80079E+03
 -8.50463E+03 -6.40438E+02 -9.15759E+03 -7.45757E+03 -3.69074E+03 -1.19072E+04  3.75369E+03 -9.09765E+03
  7.47694E+03 -3.90899E+03  5.72009E+03  2.11986E+03  4.15818E+02  3.26482E+03 -3.75192E+03 -6.00562E+01
 -3.55091E+03 -5.52508E+03 -7.32768E+02 -7.91285E+03  4.01782E+03 -8.47504E+03  1.04491E+04 -4.34578E+03
  1.23386E+04  4.91036E+02  9.55634E+03  6.73968E+03  2.05933E+03  9.26658E+03 -5.41641E+03  8.79709E+03
 -7.40185E+03  2.82068E+03 -3.73672E+03 -1.42240E+03  1.24989E+03 -2.14572E+03  4.84400E+03 -8.32702E+02
  4.47810E+03  3.40215E+03  1.15483E+03  6.68132E+03 -5.00008E+03  6.59867E+03 -8.42398E+03  2.06646E+03
 -5.60142E+03 -3.95915E+03  3.13216E+02 -7.49421E+03  3.57594E+03 -3.58666E+03  4.05171E+03  8.32352E+02
  4.96058E+02  4.13126E+03 -4.13687E+03  5.13826E+03 -5.34010E+03  2.57209E+03 -5.08764E+03 -1.43440E+03
 -3.41532E+03 -6.74612E+03  1.25372E+03 -8.08840E+03  6.92796E+03 -5.05225E+03  7.13236E+03  1.03451E+03
  5.17526E+03  5.59698E+03 -8.03188E+01  7.78046E+03 -5.37220E+03  4.47399E+03 -6.03404E+03 -5.54005E+02
 -5.88906E+03 -5.56997E+03 -1.41459E+03 -5.13900E+03  2.91896E+03 -4.81749E+03  3.05290E+03 -2.84766E+03
  3.14019E+03  2.58809E+02 -1.50762E+02  1.29022E+03  2.43553E+02 -4.58041E+02  5.67878E+02 -2.26599E+03
  4.44651E+03 -1.06176E+03  6.07373E+03  8.21831E+02  6.26224E+03  3.59677E+03  5.61876E+03  8.26237E+03
 -1.49596E+03  9.19844E+03 -8.90173E+03  7.23067E+03 -1.10574E+04  1.47018E+03 -8.66028E+03 -3.09027E+03
 -4.59592E+03 -7.18558E+03 -7.02359E+02 -5.86819E+03  2.33409E+03 -2.72489E+03  1.91883E+03 -2.45992E+03
  1.42464E+03 -1.65992E+03  2.09804E+03 -2.37220E+03  3.84986E+03 -1.44723E+03  4.03076E+03  3.97569E+02
  5.00739E+03  1.39634E+03  1.52757E+03  3.99671E+03 -1.63439E+03  3.21865E+03 -4.94546E+03  2.70823E+03
 -5.71562E+03 -8.65806E+02 -2.37687E+03 -3.92196E+03  6.42266E+02 -5.84299E+03  3.82830E+03 -6.10420E+03
  5.93377E+03 -3.55747E+03  7.59823E+03  2.75460E+02  5.41256E+03  4.91689E+03  1.04082E+03  6.97704E+03
 -2.68387E+03  6.37210E+03 -3.56125E+03  2.24068E+03 -2.39563E+03 -9.93188E+02 -9.68448E+02 -5.64357E+02
 -8.83239E+02  4.87284E+02 -9.53329E+02  2.32204E+03 -3.02821E+03  1.15797E+03 -4.50530E+03 -4.49252E+02
 -2.05580E+03 -4.51394E+03  9.28213E+02 -5.66149E+03  3.13124E+03 -5.03047E+03  4.22586E+03 -1.32709E+03
  4.56724E+03  2.88964E+03  2.56548E+03  4.16128E+03 -9.31561E+02  5.33677E+03 -2.99700E+03  2.90334E+03
 -4.22682E+03  7.65197E+02 -4.06518E+03 -2.99584E+03 -1.50840E+02 -3.92994E+03  1.88988E+03 -2.98180E+03
  3.18806E+03 -1.34270E+03  2.05092E+03  5.80613E+02  5.22204E+02  1.77199E+03  8.47304E+02  5.83647E+02
  1.93133E+03  2.79213E+02  1.51121E+03  9.11384E+02  1.31089E+03  2.56717E+03  1.58988E+03  2.12517E+03
 -1.39503E+03  3.36274E+03 -3.02363E+03  4.55110E+03 -3.83288E+03  1.27141E+03 -4.74773E+03 -9.56634E+02
 -2.12650E+03 -4.52914E+03  8.09107E+02 -5.10557E+03  2.32764E+03 -3.20361E+03  3.70155E+03 -1.27899E+03
  3.01621E+03  1.93100E+03  5.80193E+02  2.88741E+03 -8.36096E+02  1.68297E+03 -1.60310E+03 -4.76935E+02
 -6.87025E+02 -1.90499E+03  1.31139E+03 -1.92444E+03  1.56345E+03 -1.14340E+03  1.56086E+03  6.54872E+02
  9.99659E+02  7.68981E+02  7.09992E+02  5.62386E+00 -3.17674E+02  9.75865E+02  1.65212E+03 -2.18017E+02
  6.11668E+01  1.88998E+02  2.03644E+03  6.66182E+02  6.88081E+02  2.76278E+03 -1.19539E+01  3.73588E+03
 -2.18865E+03  1.68663E+03 -2.60309E+03  6.25774E+02 -2.29627E+03 -8.80379E+02 -4.17963E+02 -1.25915E+03
  3.25034E+02 -1.83246E+03  9.34596E+02 -8.97232E+02  7.61110E+02  1.45714E+03 -7.84001E+02  1.51996E+03
 -1.84787E+03  1.04119E+03 -1.18012E+03 -1.80790E+03 -1.10365E+03 -2.34172E+03  2.66198E+02 -2.02882E+03
  8.31686E+02 -7.90586E+02  1.01507E+03  4.16333E+02  1.78603E+03  9.42306E+01  2.34837E+02  1.41529E+03
 -5.45613E+02 -8.19171E+01 -1.02534E+03 -6.14919E+02  8.16502E+02 -1.23077E+03  2.33542E+03 -1.14723E+03
  1.54435E+03  1.98674E+02  3.28511E+03  1.11708E+03  1.28328E+03  2.12287E+03 -7.38317E+02  2.54485E+03
 -1.93925E+03  5.18789E+02 -1.87460E+03 -5.25823E+02 -1.24261E+03 -2.00666E+03  3.37429E+02 -8.34299E+02
  1.81728E+03 -8.18519E+02  9.33650E+02  5.53875E+02  3.87012E+02  1.55849E+03  2.78678E+02  1.36297E+03
 -5.18844E+02  1.40044E+03 -3.85570E+02  2.14188E+02  8.99063E+00  8.55751E+02 -7.03015E+02  7.46100E+02
 -6.67990E+02  1.21239E+03 -2.04988E+03  3.94260E+02 -2.13817E+03  1.08347E+02 -2.86134E+03 -1.35277E+03
 -1.39238E+03 -3.03390E+03  6.96521E+02 -3.42141E+03  1.48378E+03 -3.09334E+03  3.42765E+03 -1.30209E+03
  3.37045E+03  5.48588E+01  1.86876E+03  1.95550E+03 -5.39209E+02  2.10187E+03 -9.60846E+02  1.92602E+03
 -1.18066E+03  1.10097E+03 -5.55809E+02 -2.80447E+02 -4.16333E+02 -1.11705E+02 -5.81338E+02 -5.77013E+01
 -1.01611E+03 -1.28892E+02 -7.49770E+02 -1.60248E+02  3.67986E+02 -6.43075E+02 -5.20743E+02 -8.30953E+02
  1.22808E+03 -7.81263E+02  8.66238E+02  1.68362E+02  1.71591E+03  1.34610E+03 -3.73121E+02  1.79074E+03
 -1.33867E+03  2.56525E+03 -2.05022E+03  1.73358E+03 -2.31129E+03 -2.78202E+02 -1.93166E+03 -1.38271E+03
 -1.23155E+03 -1.97692E+03  4.79987E+02 -1.57098E+03  8.27398E+02 -1.12953E+03  1.14879E+03  1.69354E+02
  9.35345E+02  5.10659E+02 -1.52008E+01  6.41315E+02 -3.26536E+02 -9.54878E+01 -5.23733E+01 -2.54367E+02
  6.80668E+02  3.02178E+01  4.65758E+02  1.80943E+02  4.20007E+02  6.68622E+02  3.71976E+02  5.82432E+02
 -9.39572E+02  9.60863E+02 -9.69469E+02  3.86036E+02 -1.02630E+03 -7.95949E+02  1.88562E+02 -1.66086E+03
  9.66866E+02 -1.05668E+03  6.88754E+02  7.30775E+01  1.52470E+03 -1.23983E+02  6.53243E+02  8.96886E+02
  4.23979E+02  7.75095E+02 -3.76144E+02  8.09983E+02 -7.46831E+02  7.80790E+02 -5.12076E+02  7.72769E+01
 -1.84685E+02 -1.06852E+02 -6.36806E+02  3.85617E+02 -1.04995E+03  3.19162E+02 -1.00132E+03 -3.74590E+02
 -1.34387E+03 -1.23059E+01 -4.74472E+02 -1.42300E+03  6.38296E+02 -1.93948E+03  8.04589E+02 -3.64036E+02
  1.24786E+03  2.70488E+02 -4.37027E+01  6.35092E+02 -7.85376E+01  1.25467E+03 -8.95527E+02  1.02434E+03
