 $NMID ID='MM_0lb_SNR800_20hz_g40_23.RAW', FMTDAT='(8E13.5)'
 TRAMP=1., VOLUME=1. $END
  3.09764E+05  5.20247E+02  3.37192E+05  2.50317E+05  8.42378E+04  3.37167E+05 -1.32179E+05  2.49694E+05
 -1.89236E+05  8.21498E+04 -1.10467E+05 -3.30117E+04  1.59724E+03 -5.01430E+04  5.40683E+04  3.43386E+02
  3.46773E+04  5.27725E+04 -1.70320E+04  7.46354E+04 -6.00502E+04  6.22790E+04 -8.24436E+04  3.13034E+04
 -7.85372E+04 -1.10000E+04 -5.57930E+04 -4.95488E+04 -1.48439E+04 -6.77374E+04  2.62547E+04 -4.43729E+04
  3.85649E+04  3.87777E+03  1.54909E+04  4.68220E+04 -3.39269E+04  4.56683E+04 -6.45745E+04 -6.56775E+02
 -5.12980E+04 -5.53655E+04 -5.96707E+03 -7.38232E+04  3.26834E+04 -5.22559E+04  4.52216E+04 -1.59774E+04
  4.08261E+04  1.09704E+04  3.01319E+04  2.37518E+04  1.60355E+04  2.77667E+04 -4.41415E+03  2.65885E+04
 -2.15277E+04  1.29741E+04 -1.96799E+04 -3.99863E+03  3.53828E+03 -7.71257E+03  2.05429E+04  1.02292E+04
  7.49258E+03  3.20829E+04 -2.95070E+04  3.33202E+04 -5.99085E+04  2.13459E+03 -5.42346E+04 -4.06112E+04
 -1.21444E+04 -5.94606E+04  3.72955E+04 -4.22571E+04  5.39442E+04 -1.75126E+03  3.05734E+04  2.94601E+04
 -6.69396E+03  3.15716E+04 -2.74152E+04  1.20307E+04 -2.63132E+04 -5.81772E+03 -1.30924E+04 -9.49582E+03
 -6.81555E+03 -1.04699E+04 -7.68921E+02 -1.59022E+04  6.03166E+03 -2.20534E+04  1.48456E+04 -1.43514E+04
  1.26696E+04  3.70383E+03 -5.19110E+03  1.31581E+04 -1.85214E+04 -1.60433E+03 -8.05893E+03 -2.87677E+04
  1.95039E+04 -3.87620E+04  4.30027E+04 -1.82174E+04  4.04643E+04  1.76192E+04  1.34385E+04  4.04010E+04
 -1.47904E+04  2.98346E+04 -2.24705E+04  3.13992E+02 -7.64007E+03 -2.55821E+04  2.04344E+04 -2.97152E+04
  3.66883E+04 -6.63004E+03  2.93702E+04  2.21758E+04  1.41892E+04  4.06544E+04 -7.74678E+03  4.28023E+04
 -2.68295E+04  2.79277E+04 -3.47683E+04  7.70649E+03 -3.64292E+04 -1.41497E+04 -2.02875E+04 -3.28357E+04
  6.84581E+03 -3.23829E+04  2.79269E+04 -1.16877E+04  2.56303E+04  1.06283E+04  2.77930E+03  1.70453E+04
 -1.29373E+04  6.73198E+03 -9.29594E+03 -7.72176E+03  5.90560E+03 -1.00123E+04  1.68426E+04  6.75907E+03
  1.18411E+04  2.16285E+04 -6.89926E+03  2.27333E+04 -2.09804E+04  8.14858E+03 -2.36302E+04 -6.88248E+03
 -1.48804E+04 -1.59665E+04 -4.32056E+03 -1.49181E+04  3.52909E+03 -1.25972E+04  1.09084E+04 -1.24970E+04
  1.92037E+04 -1.11303E+04  2.61180E+04  3.85788E+02  2.01074E+04  1.48128E+04  3.93152E+03  3.07837E+04
 -1.53418E+04  2.63239E+04 -2.50883E+04  8.92583E+03 -1.91724E+04 -1.02988E+04 -3.45282E+03 -1.42539E+04
  2.94534E+03 -4.64060E+03 -1.77357E+03  4.62432E+03 -1.15417E+04  5.59234E+03 -1.17758E+04 -4.04445E+03
 -7.99917E+03 -1.37598E+04  4.25010E+03 -1.77807E+04  1.14815E+04 -1.30146E+04  1.30957E+04 -1.71874E+03
  7.82433E+03  9.40005E+03 -7.51490E+02  1.43258E+04 -9.21591E+03  7.80832E+03 -1.34656E+04 -3.30750E+03
 -1.05401E+04 -1.29999E+04 -1.07928E+03 -1.72408E+04  7.46970E+03 -1.38231E+04  1.48687E+04 -6.33601E+03
  1.33422E+04  9.36343E+02  9.23402E+03  3.53888E+03  4.68329E+03  1.49121E+01  6.80571E+03 -1.32043E+03
  1.23696E+04  2.84943E+03  1.30195E+04  1.14554E+04  7.55939E+03  2.25127E+04 -3.36328E+03  2.34126E+04
 -1.39166E+04  1.73990E+04 -2.14710E+04  8.17199E+03 -2.15661E+04 -1.55317E+03 -1.90521E+04 -1.21283E+04
 -9.51522E+03 -1.75855E+04  5.82197E+03 -1.68845E+04  1.49036E+04 -1.01563E+04  1.38878E+04  3.02176E+03
  6.21949E+03  1.00502E+04 -6.32927E+03  9.48109E+03 -1.21578E+04  2.53845E+03 -9.64491E+03 -7.26125E+03
 -5.22815E+00 -1.13872E+04  5.33307E+03 -8.37137E+03  7.04458E+03 -1.50619E+03  1.25320E+03  4.22545E+03
 -4.71810E+03  5.80833E+02 -2.40641E+03 -4.27472E+03  1.21518E+03 -9.19706E+03  7.16789E+03 -8.60716E+03
  1.07216E+04 -3.74950E+03  9.83308E+03  2.50731E+03  8.35595E+03  8.15391E+03  4.04927E+03  1.16671E+04
 -1.02180E+03  1.37673E+04 -8.05226E+03  8.53656E+03 -9.15143E+03  2.85933E+03 -7.07938E+03 -1.22850E+03
 -3.94526E+03 -2.69166E+03 -8.43693E+02  1.71044E+03 -1.60897E+03  1.98695E+03 -3.02899E+03  3.36289E+03
 -7.04279E+03 -4.43620E+02 -7.98789E+03 -6.62812E+03 -3.28083E+03 -1.04113E+04  3.15772E+03 -7.25453E+03
  6.56291E+03 -3.27651E+03  4.88818E+03  1.74755E+03  6.41911E+02  2.83872E+03 -2.66633E+03 -2.97350E+02
 -2.89237E+03 -4.43149E+03 -6.85176E+02 -6.07705E+03  3.08127E+03 -6.66604E+03  8.56472E+03 -3.41375E+03
  1.00505E+04  3.80233E+01  7.59977E+03  4.93501E+03  1.54786E+03  7.54519E+03 -4.70128E+03  7.26779E+03
 -6.00544E+03  2.57793E+03 -3.16909E+03 -8.88606E+02  1.24647E+03 -1.42149E+03  4.16198E+03 -1.02148E+03
  3.46379E+03  2.85166E+03  1.11696E+03  5.39572E+03 -3.68242E+03  5.70738E+03 -6.89462E+03  1.77265E+03
 -4.39989E+03 -3.04435E+03  1.90778E+02 -5.66285E+03  2.96287E+03 -2.98484E+03  2.70811E+03  5.40213E+02
  3.32569E+02  2.41357E+03 -3.60341E+03  3.86267E+03 -3.73517E+03  1.94919E+03 -3.24669E+03 -1.95103E+02
 -2.11409E+03 -4.85868E+03  6.03146E+02 -5.92434E+03  4.82653E+03 -4.00021E+03  5.04194E+03  3.03547E+02
  3.95531E+03  4.29351E+03  1.79451E+02  6.07111E+03 -4.36180E+03  3.56391E+03 -4.28665E+03 -4.91291E+02
 -5.22470E+03 -4.67654E+03 -1.35280E+03 -4.26547E+03  2.14221E+03 -4.07444E+03  2.62429E+03 -2.69797E+03
  2.50741E+03  5.85846E+01  1.37123E+02  1.23821E+03  7.45640E+02  1.66971E+02 -3.40912E+02 -1.51936E+03
  2.81479E+03 -3.41701E+02  4.31373E+03  6.50164E+02  4.53510E+03  2.32161E+03  4.61986E+03  5.82269E+03
 -7.69970E+02  6.98537E+03 -6.50960E+03  5.11392E+03 -8.21847E+03  9.38829E+02 -6.25944E+03 -1.66712E+03
 -3.32602E+03 -5.30420E+03 -4.73924E+02 -4.12058E+03  2.03480E+03 -1.54308E+03  1.55796E+03 -1.61278E+03
  9.62045E+02 -1.39955E+03  2.08644E+03 -2.30432E+03  3.34181E+03 -8.78438E+02  3.14110E+03  7.62204E+02
  3.65596E+03  1.00474E+03  5.98529E+02  2.89758E+03 -1.49893E+03  1.92396E+03 -3.82518E+03  1.85202E+03
 -4.15154E+03 -9.74915E+02 -1.20988E+03 -2.65453E+03  7.52873E+02 -3.82552E+03  2.65852E+03 -4.24102E+03
  4.11411E+03 -2.80246E+03  5.44227E+03  1.03138E+02  4.24686E+03  3.23977E+03  9.09121E+02  4.75281E+03
 -1.84625E+03  4.90222E+03 -2.90326E+03  1.53683E+03 -1.60487E+03 -9.18527E+02 -2.87748E+02 -4.28487E+02
 -5.50889E+01  4.13896E+02 -8.35856E+02  2.07001E+03 -2.30159E+03  1.00308E+03 -3.73735E+03 -2.77531E+02
 -1.00906E+03 -3.24377E+03  6.26619E+02 -3.76873E+03  2.01053E+03 -3.69063E+03  2.86345E+03 -8.30840E+02
  3.07075E+03  1.69445E+03  1.26733E+03  2.58182E+03 -6.44233E+02  3.44404E+03 -2.08336E+03  1.87971E+03
 -3.03945E+03  5.28167E+02 -3.08768E+03 -1.89739E+03 -4.16350E+02 -2.52445E+03  1.18653E+03 -1.89076E+03
  2.10416E+03 -1.41877E+03  1.40817E+03  5.55051E+02  2.19388E+02  1.50299E+03  8.04245E+02  5.26782E+02
  1.60583E+03  3.94429E+02  9.21005E+02  1.09767E+03  8.33733E+02  1.97243E+03  1.19227E+03  1.18194E+03
 -1.13978E+03  2.33854E+03 -1.91670E+03  3.21936E+03 -2.03243E+03  1.10554E+03 -3.26912E+03  1.66208E+02
 -1.29161E+03 -2.71389E+03  6.16717E+02 -3.68171E+03  1.18171E+03 -1.95115E+03  2.22951E+03 -6.25194E+02
  1.93186E+03  1.50762E+03  1.12255E+02  1.73904E+03 -2.64154E+02  9.45651E+02 -7.91152E+02  3.65007E+01
 -4.44148E+02 -1.09038E+03  8.91057E+02 -1.31257E+03  1.02775E+03 -8.63286E+02  9.07267E+02  1.27336E+02
  4.31103E+02  4.72359E+01  7.95791E+02 -3.52410E+02 -3.37505E+01  4.80508E+02  1.69115E+03 -4.36017E+02
 -3.99375E+02 -2.48976E+02  1.49644E+03  6.56171E+02  2.26052E+02  1.67089E+03 -2.84766E+02  2.56664E+03
 -1.36675E+03  7.60630E+02 -1.33597E+03  3.97653E+02 -1.55978E+03 -5.00353E+02 -1.20981E+02 -7.74518E+02
  1.87250E+02 -7.33483E+02  5.10658E+02 -5.18715E+02  4.38174E+02  1.35763E+03 -6.40462E+02  1.12382E+03
 -1.09291E+03  4.67124E+02 -9.62721E+02 -1.01707E+03 -4.81932E+02 -1.76091E+03  2.57904E+02 -1.22964E+03
  4.05828E+02 -2.80619E+02  5.31415E+02  3.76798E+00  1.12193E+03 -1.23410E+02  3.44684E+02  1.08730E+03
 -3.37418E+02  1.13063E+02 -6.79701E+02  1.15231E+02  6.37094E+02 -5.82328E+02  1.35180E+03 -5.40934E+02
  8.34863E+02 -1.18472E+02  2.14383E+03  1.12791E+02  1.07608E+03  9.33603E+02 -1.00577E+02  1.28058E+03
 -8.47758E+02 -2.40846E+02 -1.04677E+03 -4.77854E+01 -4.86994E+02 -1.10681E+03  3.64699E+02 -1.93997E+02
  9.89026E+02 -2.76795E+02  4.29996E+02  4.79589E+02 -1.04126E+02  1.01901E+03  3.99126E+02  7.61318E+02
 -5.51770E+02  1.20137E+03 -4.95974E+02  2.11014E+02  1.47838E+02  3.54113E+02 -5.89145E+02  6.36015E+02
 -4.91355E+02  8.39241E+02 -1.20378E+03  6.01635E+02 -1.14276E+03  4.19058E+02 -1.82845E+03 -6.22603E+02
 -8.00203E+02 -1.76786E+03  3.04564E+02 -2.27611E+03  8.16407E+02 -1.89737E+03  2.23437E+03 -8.27705E+02
  1.92740E+03 -3.47472E+02  7.44903E+02  1.25868E+03 -8.03712E+02  9.12861E+02 -7.47371E+02  8.87988E+02
 -7.86978E+02  7.39639E+02 -4.79020E+02 -1.36123E+02 -6.03886E+02  3.01258E+02 -7.05589E+02  7.67322E+01
 -1.10185E+03 -1.75370E+02 -9.03345E+02  8.64567E+01  3.65787E+02 -5.35687E+02 -4.39522E+02 -7.86221E+02
  1.01331E+03 -5.60625E+02  2.25742E+02  2.06703E+02  8.06919E+02  8.24864E+02 -4.08140E+02  1.12293E+03
 -9.40915E+02  1.87438E+03 -1.03395E+03  8.94128E+02 -9.82511E+02 -2.87880E+02 -1.01249E+03 -1.13444E+03
 -8.10579E+02 -1.02155E+03  1.00021E+02 -6.27042E+02  3.93863E+02 -4.87484E+02  1.54605E+02  2.63470E+02
  7.89573E+02  4.09589E+02 -1.21910E+02  2.61981E+02 -5.23159E+02  2.12349E+02 -2.43037E+02 -2.26270E+02
  2.88710E+02  1.81647E+02 -2.04694E+02  7.41857E+02 -2.99619E+02  3.67783E+02  3.25842E+02 -2.91554E+01
 -4.41100E+02  1.64784E+02 -4.44318E+02  9.18577E+01 -7.11576E+02 -3.37047E+02  8.71094E+01 -7.30745E+02
  5.50542E+02 -3.08193E+02  2.65261E+02  3.70623E+02  6.27820E+02 -8.22142E+02  3.21763E+02  4.63068E+02
  7.44154E+02  4.83235E+02  1.76798E+01  3.64361E+02 -4.13579E+02  4.81894E+02 -2.27699E+02  1.99132E+02
 -7.94024E+01 -1.64309E+02 -3.86999E+02  4.64366E+02 -5.39511E+02 -2.23681E+02 -5.84276E+02 -3.56338E+02
 -4.88662E+02  4.81917E+02 -2.67902E+02 -5.60453E+02  6.14211E+02 -1.32769E+03  5.46261E+02 -7.68444E+01
  6.30535E+02  2.08081E+02 -5.91078E+02  1.03354E+02 -2.11558E+02  5.58224E+02 -9.55995E+01  3.66376E+02
