 $NMID ID='MM_0lb_SNR800_20hz_g40_59.RAW', FMTDAT='(8E13.5)'
 TRAMP=1., VOLUME=1. $END
  3.09809E+05  2.61007E+02  3.37122E+05  2.49984E+05  8.45237E+04  3.36922E+05 -1.32374E+05  2.49796E+05
 -1.89333E+05  8.22086E+04 -1.10603E+05 -3.27760E+04  1.89468E+03 -5.00182E+04  5.40956E+04  4.12654E+02
  3.47464E+04  5.28131E+04 -1.69734E+04  7.44243E+04 -6.01277E+04  6.23993E+04 -8.22571E+04  3.12674E+04
 -7.88899E+04 -1.06708E+04 -5.58992E+04 -4.96978E+04 -1.48686E+04 -6.75442E+04  2.64132E+04 -4.41307E+04
  3.85256E+04  3.83922E+03  1.51310E+04  4.66472E+04 -3.36670E+04  4.53528E+04 -6.45771E+04 -8.77265E+02
 -5.13928E+04 -5.53964E+04 -5.82651E+03 -7.40415E+04  3.27902E+04 -5.22738E+04  4.52512E+04 -1.58594E+04
  4.06911E+04  1.07486E+04  3.02343E+04  2.38195E+04  1.57759E+04  2.76997E+04 -4.45045E+03  2.66621E+04
 -2.14407E+04  1.28899E+04 -1.92860E+04 -4.07855E+03  3.62833E+03 -7.60759E+03  2.07544E+04  1.00531E+04
  7.56916E+03  3.21448E+04 -2.98305E+04  3.31125E+04 -6.00103E+04  2.14407E+03 -5.45113E+04 -4.01527E+04
 -1.21281E+04 -5.94511E+04  3.71508E+04 -4.23473E+04  5.42994E+04 -1.76331E+03  3.05300E+04  2.94428E+04
 -6.68406E+03  3.14832E+04 -2.75664E+04  1.19583E+04 -2.62082E+04 -5.85134E+03 -1.31166E+04 -9.80775E+03
 -6.46916E+03 -1.05371E+04 -1.40876E+03 -1.60777E+04  6.26479E+03 -2.22655E+04  1.48026E+04 -1.41245E+04
  1.25470E+04  3.55008E+03 -5.31197E+03  1.32750E+04 -1.83479E+04 -1.71128E+03 -7.72703E+03 -2.88048E+04
  1.99774E+04 -3.89374E+04  4.31019E+04 -1.79851E+04  4.03630E+04  1.77086E+04  1.36574E+04  4.05238E+04
 -1.49141E+04  2.97115E+04 -2.22730E+04  7.67314E+02 -7.39942E+03 -2.55093E+04  2.03050E+04 -2.99346E+04
  3.65089E+04 -6.72469E+03  2.94684E+04  2.23216E+04  1.36897E+04  4.08108E+04 -7.59180E+03  4.28797E+04
 -2.66828E+04  2.82420E+04 -3.48632E+04  7.72072E+03 -3.62654E+04 -1.44057E+04 -2.01390E+04 -3.28341E+04
  6.63960E+03 -3.23483E+04  2.80448E+04 -1.18180E+04  2.57311E+04  1.06716E+04  2.31304E+03  1.72165E+04
 -1.28989E+04  6.76159E+03 -9.17649E+03 -7.83255E+03  6.08182E+03 -9.82931E+03  1.67781E+04  6.61747E+03
  1.17398E+04  2.15590E+04 -7.18936E+03  2.24921E+04 -2.10631E+04  7.99465E+03 -2.36736E+04 -6.71684E+03
 -1.52715E+04 -1.58203E+04 -4.24330E+03 -1.47790E+04  3.86682E+03 -1.22656E+04  1.09379E+04 -1.26670E+04
  1.91538E+04 -1.10314E+04  2.59567E+04  6.16234E+02  2.01187E+04  1.48313E+04  4.00211E+03  3.04946E+04
 -1.51331E+04  2.63713E+04 -2.49084E+04  8.81477E+03 -1.92370E+04 -1.06683E+04 -3.84918E+03 -1.42257E+04
  3.06113E+03 -4.83824E+03 -1.76051E+03  4.74844E+03 -1.14570E+04  5.16698E+03 -1.18428E+04 -4.00321E+03
 -7.78115E+03 -1.41337E+04  4.03725E+03 -1.78422E+04  1.14047E+04 -1.29458E+04  1.32239E+04 -1.62747E+03
  7.77951E+03  9.97448E+03 -6.48382E+02  1.41554E+04 -9.05152E+03  7.95697E+03 -1.38254E+04 -3.33416E+03
 -1.05292E+04 -1.27764E+04 -1.34880E+03 -1.75465E+04  7.92859E+03 -1.38211E+04  1.48630E+04 -6.26758E+03
  1.29775E+04  9.50056E+02  9.52035E+03  3.51827E+03  4.20987E+03  4.80242E+02  6.62100E+03 -1.34369E+03
  1.24881E+04  2.71035E+03  1.26620E+04  1.17739E+04  7.81932E+03  2.23866E+04 -3.12832E+03  2.36070E+04
 -1.40416E+04  1.76184E+04 -2.12420E+04  7.96420E+03 -2.19289E+04 -1.56069E+03 -1.86726E+04 -1.22772E+04
 -9.54371E+03 -1.74233E+04  5.74094E+03 -1.69801E+04  1.48677E+04 -1.01623E+04  1.43427E+04  2.82034E+03
  5.91651E+03  9.73637E+03 -6.38791E+03  9.61280E+03 -1.22876E+04  2.51164E+03 -9.71203E+03 -7.09327E+03
 -8.60543E+01 -1.10731E+04  5.60000E+03 -8.95056E+03  6.96558E+03 -1.39637E+03  1.28527E+03  4.14924E+03
 -4.76056E+03  9.23913E+02 -2.76144E+03 -4.27154E+03  1.17779E+03 -8.88357E+03  7.30323E+03 -8.33695E+03
  1.05841E+04 -3.55845E+03  9.81981E+03  2.50643E+03  8.47904E+03  8.14611E+03  3.91265E+03  1.14644E+04
 -9.76639E+02  1.34045E+04 -7.92620E+03  8.62453E+03 -9.70724E+03  2.81458E+03 -7.32106E+03 -1.38448E+03
 -4.31641E+03 -2.82150E+03 -7.85607E+02  1.77576E+03 -1.69633E+03  1.74499E+03 -3.02245E+03  3.44302E+03
 -7.05731E+03 -5.88251E+02 -7.81629E+03 -6.45859E+03 -2.94989E+03 -1.04200E+04  3.06546E+03 -7.22564E+03
  6.15009E+03 -3.41838E+03  4.74680E+03  1.72577E+03  1.00106E+03  2.38083E+03 -2.55177E+03  1.40127E+02
 -2.54902E+03 -4.75344E+03 -5.89142E+02 -5.82876E+03  3.13365E+03 -6.72375E+03  8.37713E+03 -3.20821E+03
  1.01815E+04  1.91589E+02  7.68952E+03  4.88692E+03  1.78167E+03  7.21601E+03 -4.48309E+03  7.33047E+03
 -6.23856E+03  2.60424E+03 -3.03910E+03 -8.78495E+02  1.28795E+03 -1.24178E+03  3.98229E+03 -8.93205E+02
  3.61218E+03  2.73860E+03  8.17992E+02  5.37405E+03 -3.91390E+03  5.63987E+03 -6.90441E+03  1.71993E+03
 -4.08177E+03 -3.05246E+03  3.26559E+02 -5.81721E+03  3.08186E+03 -2.88391E+03  2.72577E+03  3.89761E+02
  1.78423E+02  2.43897E+03 -3.54588E+03  3.99421E+03 -3.87488E+03  1.82822E+03 -3.31971E+03 -5.72556E+02
 -2.12008E+03 -4.62349E+03  7.43961E+02 -5.66006E+03  4.85174E+03 -4.15755E+03  5.12910E+03  8.55934E+02
  4.05476E+03  4.17301E+03  4.00561E+02  6.21941E+03 -4.23285E+03  3.73759E+03 -4.16939E+03 -3.86714E+02
 -5.08241E+03 -4.73098E+03 -1.26100E+03 -4.14763E+03  2.02424E+03 -4.07487E+03  2.26483E+03 -2.73700E+03
  2.47497E+03  6.84236E+01  3.18930E+02  1.43958E+03  5.10701E+02  8.22851E+01 -2.18735E+02 -1.03939E+03
  2.90263E+03 -8.21139E+01  3.96039E+03  4.34213E+02  4.41879E+03  2.07911E+03  4.77975E+03  5.70831E+03
 -6.51561E+02  6.82766E+03 -6.35838E+03  5.31801E+03 -8.26939E+03  1.03412E+03 -6.64615E+03 -2.11064E+03
 -3.69681E+03 -5.21629E+03 -5.48692E+02 -4.11947E+03  1.69508E+03 -1.40490E+03  1.29871E+03 -1.70641E+03
  8.84173E+02 -1.16964E+03  2.04009E+03 -2.07768E+03  3.46202E+03 -1.20485E+03  3.14420E+03  4.01715E+02
  3.75149E+03  1.25867E+03  8.45691E+02  2.65610E+03 -1.22279E+03  1.75031E+03 -3.59583E+03  2.10338E+03
 -3.76933E+03 -9.17651E+02 -8.46532E+02 -2.54584E+03  5.63852E+02 -3.81824E+03  2.86794E+03 -4.45269E+03
  3.97363E+03 -2.37587E+03  5.47654E+03 -2.01303E+01  4.08538E+03  3.29147E+03  9.05353E+02  4.77158E+03
 -1.67333E+03  5.03598E+03 -2.81211E+03  1.35574E+03 -1.57215E+03 -7.37770E+02 -5.30910E+02 -3.90075E+02
 -2.50825E+02  6.97404E+02 -9.31519E+02  1.77471E+03 -2.40341E+03  8.19346E+02 -3.46523E+03 -2.15177E+02
 -1.00424E+03 -3.47987E+03  7.71854E+02 -3.74649E+03  2.16491E+03 -3.73320E+03  2.52268E+03 -1.08084E+03
  2.99746E+03  2.46076E+03  1.32944E+03  2.25877E+03 -8.21056E+02  3.65291E+03 -2.16253E+03  2.18629E+03
 -2.95670E+03  4.71564E+02 -2.52415E+03 -2.03235E+03 -2.47277E+02 -2.19473E+03  1.35736E+03 -1.81782E+03
  1.97782E+03 -1.08863E+03  1.38092E+03  1.96273E+02  2.41927E+02  1.25736E+03  7.71471E+02  4.28177E+02
  1.47293E+03  7.59269E+02  1.04633E+03  1.12636E+03  8.40162E+02  1.82953E+03  1.37045E+03  1.25186E+03
 -1.06717E+03  2.45912E+03 -1.87011E+03  3.47903E+03 -2.27943E+03  1.18459E+03 -3.41841E+03  6.87502E+00
 -1.40554E+03 -2.79096E+03  6.80367E+02 -4.04812E+03  1.28793E+03 -1.86682E+03  2.52451E+03 -7.30487E+02
  2.02037E+03  1.55860E+03  2.16457E+02  1.68927E+03 -3.90272E+02  9.12869E+02 -6.07165E+02 -5.76910E+01
 -3.92639E+02 -1.01305E+03  1.17514E+03 -1.20211E+03  1.05119E+03 -9.55625E+02  1.15354E+03  4.14473E+02
  5.20016E+02  2.94112E+02  8.57078E+02 -6.53066E+02  3.53009E+01  7.03731E+02  1.51207E+03 -1.79345E+02
 -4.12696E+01 -1.85960E+02  1.34628E+03  5.34231E+02  1.14706E+02  2.22782E+03 -1.12854E+02  2.34599E+03
 -1.07389E+03  8.13946E+02 -1.51823E+03  2.59715E+02 -1.79626E+03 -6.67353E+02  9.89723E+01 -7.08866E+02
  3.43312E+02 -9.16417E+02  7.27685E+02 -4.57110E+02  5.36703E+02  1.17813E+03 -9.30675E+02  9.84606E+02
 -1.31271E+03  4.71065E+02 -8.46731E+02 -1.11212E+03 -7.35419E+02 -1.76900E+03 -1.27077E+02 -1.14045E+03
  3.73804E+02 -4.20248E+02  4.41717E+02  1.56504E+02  9.29509E+02 -3.87856E+02  6.93093E+01  1.17498E+03
 -2.02002E+02  5.09706E+01 -9.64183E+02 -7.02232E+01  5.70694E+02 -4.48408E+02  1.51783E+03 -6.65855E+02
  1.13081E+03  2.78441E+02  2.38754E+03  5.16074E+02  8.43061E+02  8.22865E+02 -1.95544E+02  1.40954E+03
 -8.92425E+02  2.46953E+01 -1.11063E+03 -4.57460E+01 -6.52194E+02 -1.07996E+03  1.89125E+02 -1.62119E+02
  1.30766E+03 -5.40448E+02  6.07776E+02  4.20746E+02 -1.49714E+02  9.80039E+02  4.70871E+01  1.02774E+03
 -8.50506E+01  1.14442E+03 -1.65350E+02  1.46705E+02  3.06664E+01  4.75119E+02 -5.63042E+02  5.08238E+02
 -4.43426E+02  6.87089E+02 -1.66499E+03  4.04330E+02 -1.14360E+03  2.14646E+02 -1.92221E+03 -6.37095E+02
 -8.41597E+02 -1.85937E+03  5.13993E+02 -2.26599E+03  9.04134E+02 -1.96700E+03  2.12021E+03 -6.85605E+02
  1.78880E+03 -2.87092E+01  1.04051E+03  1.30858E+03 -4.27303E+02  1.09655E+03 -6.29449E+02  9.00777E+02
 -7.11602E+02  8.06837E+02 -2.80528E+02  1.91272E+02 -3.64845E+02  3.66180E+02 -5.01852E+02  2.23632E+02
 -1.10903E+03 -1.17977E+02 -9.50540E+02  2.15105E+02  3.91736E+02 -6.04443E+02 -3.80911E+02 -6.51595E+02
  8.81238E+02 -5.95513E+02 -2.75997E+01  1.35009E+02  8.16591E+02  6.62936E+02 -6.69193E+02  9.69808E+02
 -9.17696E+02  1.75771E+03 -1.23887E+03  1.07792E+03 -1.20630E+03 -3.51715E+01 -6.99560E+02 -9.59884E+02
 -8.30287E+02 -1.11450E+03  2.87876E+02 -8.31173E+02  4.15299E+02 -2.82385E+01  2.52021E+02  1.08709E+02
  5.97610E+02  1.97164E+02  2.48622E+02  4.95797E+02 -4.54668E+02  5.84500E+01  3.64077E+01 -1.48369E+02
  4.66874E+02  1.92551E+02  1.78566E+02  5.33404E+02 -8.78338E+01  2.29786E+02  5.92360E+02  1.23159E+02
 -3.32899E+02  4.48456E+02 -4.99121E+02  5.62552E+01 -8.50967E+02 -4.09700E+02  3.52050E+02 -1.00644E+03
 -9.33198E+01 -3.98322E+02  1.21454E+02  2.89533E+02  5.33395E+02 -5.09518E+02  3.25678E+02  7.64970E+02
  2.43263E+02  1.73738E+02  8.53463E+01  4.08367E+02 -6.30160E+02  4.39644E+02 -1.82714E+02 -2.04341E+02
  7.61713E+01  4.51779E+01 -4.68979E+02  1.58758E+01 -8.29971E+01 -7.97266E+01 -6.14852E+02 -2.05851E+02
 -9.05021E+02  4.52703E+02 -4.11296E+02 -6.56451E+02  6.59211E+02 -1.15981E+03  3.23490E+02 -2.50254E+02
  5.68667E+02 -4.52693E+01 -4.05377E+02  4.00908E+01 -1.21388E+02  7.73423E+02 -1.06031E+01  7.80831E+02
