 $NMID ID='MM_0lb_SNR800_19hz_g60_1.RAW', FMTDAT='(8E13.5)'
 TRAMP=1., VOLUME=1. $END
  3.09720E+05  1.34067E+02  3.37487E+05  2.50700E+05  8.48504E+04  3.37421E+05 -1.32709E+05  2.50505E+05
 -1.89950E+05  8.28492E+04 -1.11438E+05 -3.25490E+04  9.33997E+02 -5.05393E+04  5.40612E+04  1.29748E+02
  3.53261E+04  5.27441E+04 -1.67959E+04  7.55170E+04 -6.07519E+04  6.30357E+04 -8.36388E+04  3.17987E+04
 -8.02676E+04 -1.13793E+04 -5.70079E+04 -5.07629E+04 -1.48837E+04 -6.90416E+04  2.68720E+04 -4.53483E+04
  3.96623E+04  3.86113E+03  1.60298E+04  4.73644E+04 -3.41648E+04  4.66329E+04 -6.60711E+04 -2.80062E+02
 -5.27163E+04 -5.65068E+04 -6.71799E+03 -7.63571E+04  3.36709E+04 -5.42512E+04  4.70396E+04 -1.69107E+04
  4.26015E+04  1.10959E+04  3.12611E+04  2.50646E+04  1.57593E+04  2.91239E+04 -4.87364E+03  2.74368E+04
 -2.19250E+04  1.22111E+04 -1.86875E+04 -4.62772E+03  5.01650E+03 -7.40731E+03  2.20450E+04  1.16328E+04
  7.35856E+03  3.43141E+04 -3.14448E+04  3.47640E+04 -6.21728E+04  2.15695E+03 -5.60332E+04 -4.20185E+04
 -1.24267E+04 -6.18191E+04  3.88125E+04 -4.42924E+04  5.66149E+04 -2.15283E+03  3.30077E+04  3.14384E+04
 -6.29651E+03  3.49411E+04 -2.93987E+04  1.48566E+04 -2.87995E+04 -5.08687E+03 -1.55533E+04 -1.04426E+04
 -7.61101E+03 -1.22391E+04 -9.60957E+02 -1.73805E+04  7.17178E+03 -2.26930E+04  1.52997E+04 -1.38078E+04
  1.19517E+04  4.69096E+03 -7.07466E+03  1.32312E+04 -1.99578E+04 -3.54944E+03 -8.01127E+03 -3.18643E+04
  2.14466E+04 -4.20118E+04  4.60419E+04 -1.87054E+04  4.34679E+04  1.88480E+04  1.49960E+04  4.26315E+04
 -1.54674E+04  3.21469E+04 -2.38830E+04  1.26381E+03 -8.75089E+03 -2.69891E+04  2.09361E+04 -3.23191E+04
  3.92468E+04 -7.94812E+03  3.32676E+04  2.33107E+04  1.66222E+04  4.44334E+04 -7.77752E+03  4.72547E+04
 -2.99148E+04  3.13960E+04 -3.92596E+04  8.92468E+03 -4.00695E+04 -1.57272E+04 -2.23265E+04 -3.56048E+04
  7.09449E+03 -3.55501E+04  3.01939E+04 -1.32908E+04  2.78692E+04  1.08585E+04  3.33080E+03  1.82560E+04
 -1.31574E+04  7.56790E+03 -9.76308E+03 -7.48458E+03  5.86992E+03 -1.02882E+04  1.73826E+04  6.82410E+03
  1.25745E+04  2.16807E+04 -6.32020E+03  2.40959E+04 -2.15692E+04  1.01749E+04 -2.60675E+04 -5.53676E+03
 -1.79284E+04 -1.67499E+04 -6.63106E+03 -1.79374E+04  3.75502E+03 -1.63128E+04  1.36685E+04 -1.54888E+04
  2.29979E+04 -1.22156E+04  2.96297E+04  1.68490E+03  2.20729E+04  1.76959E+04  4.18953E+03  3.38831E+04
 -1.66903E+04  2.84694E+04 -2.66607E+04  9.62241E+03 -1.97876E+04 -1.02978E+04 -4.09596E+03 -1.37135E+04
  2.56105E+03 -3.65450E+03 -3.39397E+03  5.76664E+03 -1.42385E+04  4.97735E+03 -1.39859E+04 -5.56426E+03
 -9.33779E+03 -1.68358E+04  4.65375E+03 -2.04309E+04  1.31241E+04 -1.50232E+04  1.56461E+04 -1.64281E+03
  9.52206E+03  1.14377E+04 -8.78656E+02  1.67464E+04 -1.10623E+04  9.47052E+03 -1.66509E+04 -3.60744E+03
 -1.25634E+04 -1.49278E+04 -1.59964E+03 -2.00555E+04  8.91442E+03 -1.62702E+04  1.68851E+04 -7.64352E+03
  1.56484E+04  5.47792E+02  1.09707E+04  4.10391E+03  5.47124E+03  6.57876E+02  7.92426E+03 -1.51189E+03
  1.42900E+04  2.68905E+03  1.56791E+04  1.34223E+04  9.77237E+03  2.60996E+04 -2.97939E+03  2.85052E+04
 -1.67197E+04  2.18769E+04 -2.63523E+04  1.06487E+04 -2.69036E+04 -2.03337E+03 -2.27203E+04 -1.51129E+04
 -1.03248E+04 -2.19371E+04  7.32216E+03 -2.05578E+04  1.77167E+04 -1.11529E+04  1.64145E+04  4.34762E+03
  6.98644E+03  1.18903E+04 -7.46142E+03  1.09752E+04 -1.39358E+04  2.78295E+03 -1.09359E+04 -8.49836E+03
 -1.04137E+02 -1.30718E+04  6.44800E+03 -9.52482E+03  8.29750E+03 -1.26655E+03  1.54538E+03  5.31642E+03
 -6.09651E+03  1.75074E+03 -4.02338E+03 -4.81993E+03  2.61017E+02 -1.09714E+04  8.16830E+03 -1.07805E+04
  1.32907E+04 -5.00199E+03  1.29485E+04  2.73932E+03  1.14743E+04  1.00012E+04  5.44313E+03  1.52138E+04
 -1.95991E+03  1.69252E+04 -1.04012E+04  1.10719E+04 -1.21874E+04  3.12218E+03 -9.12363E+03 -1.92737E+03
 -4.70831E+03 -3.70239E+03 -5.55752E+02  1.48692E+03 -1.89908E+03  2.14045E+03 -4.10053E+03  3.73958E+03
 -8.32560E+03 -6.15949E+02 -9.08718E+03 -7.56016E+03 -3.59662E+03 -1.18441E+04  3.57914E+03 -9.01824E+03
  7.57733E+03 -3.96731E+03  5.71351E+03  2.47817E+03  4.86576E+02  3.04024E+03 -3.48526E+03 -3.02018E+02
 -3.48408E+03 -5.51060E+03 -5.78444E+02 -7.57280E+03  4.32404E+03 -8.27943E+03  1.03848E+04 -3.97255E+03
  1.22591E+04  7.90423E+02  9.36613E+03  6.35926E+03  1.74075E+03  9.21918E+03 -5.52736E+03  8.73882E+03
 -7.29687E+03  2.86092E+03 -3.54576E+03 -1.17082E+03  1.44981E+03 -2.14104E+03  5.09820E+03 -8.40439E+02
  4.05792E+03  3.42388E+03  1.16126E+03  6.17848E+03 -4.60791E+03  6.29668E+03 -8.27723E+03  1.97064E+03
 -4.98190E+03 -3.80332E+03  5.16069E+02 -6.90031E+03  3.77390E+03 -3.46629E+03  3.98986E+03  1.19293E+03
  4.41577E+02  3.44851E+03 -4.13854E+03  4.77612E+03 -5.11394E+03  2.12506E+03 -4.57403E+03 -1.23481E+03
 -3.16976E+03 -6.11784E+03  1.60666E+03 -7.27637E+03  6.34987E+03 -4.86523E+03  6.82385E+03  9.80018E+02
  4.89784E+03  5.61466E+03 -5.99426E+01  7.40812E+03 -5.41241E+03  4.12960E+03 -5.27329E+03 -2.58044E+02
 -5.59801E+03 -5.31502E+03 -1.23483E+03 -5.24844E+03  2.53592E+03 -4.53325E+03  2.96653E+03 -2.87703E+03
  2.86581E+03 -2.15256E+01 -1.70787E+01  1.26570E+03  2.91203E+02 -3.82051E+01  1.32407E+02 -2.24548E+03
  3.87099E+03 -8.03267E+02  5.34089E+03  7.72060E+02  5.72609E+03  3.31067E+03  5.27562E+03  7.55427E+03
 -1.51390E+03  8.60600E+03 -7.82967E+03  6.61051E+03 -1.05681E+04  1.35294E+03 -7.84468E+03 -2.61985E+03
 -4.35407E+03 -6.93108E+03 -6.13041E+02 -5.23761E+03  2.26619E+03 -2.35538E+03  1.62348E+03 -2.03687E+03
  1.33410E+03 -1.44746E+03  1.90135E+03 -2.26332E+03  3.33153E+03 -1.15459E+03  3.74360E+03  4.30138E+02
  4.66406E+03  1.39048E+03  1.17001E+03  3.54820E+03 -1.56379E+03  2.83947E+03 -4.48573E+03  2.52130E+03
 -5.11210E+03 -1.13014E+03 -2.07375E+03 -3.44132E+03  3.13645E+02 -4.86895E+03  2.97932E+03 -5.40211E+03
  4.73948E+03 -3.26316E+03  6.88823E+03  1.98582E+02  4.92652E+03  4.19775E+03  1.27641E+03  5.85831E+03
 -2.04313E+03  5.92758E+03 -3.24562E+03  1.82615E+03 -1.81098E+03 -1.00661E+03 -5.00928E+02 -5.80763E+02
 -6.75850E+02  3.50935E+02 -1.19670E+03  1.95129E+03 -2.47001E+03  1.11408E+03 -3.97232E+03 -4.59258E+02
 -1.34538E+03 -4.14700E+03  7.37453E+02 -4.53222E+03  2.84032E+03 -4.23986E+03  3.48327E+03 -1.14946E+03
  4.42727E+03  2.50972E+03  1.83809E+03  3.30509E+03 -4.14889E+02  4.64379E+03 -2.71928E+03  2.64075E+03
 -3.56100E+03  8.10407E+02 -3.22004E+03 -2.52581E+03 -2.55693E+02 -3.21398E+03  1.39255E+03 -2.42987E+03
  2.83853E+03 -1.19257E+03  1.61099E+03  6.16558E+02  1.61082E+02  1.68015E+03  8.90156E+02  3.51353E+02
  1.74829E+03  2.99774E+02  1.42561E+03  1.01094E+03  8.18722E+02  2.17051E+03  1.60937E+03  1.47833E+03
 -9.96986E+02  3.13838E+03 -2.34321E+03  3.81337E+03 -2.74078E+03  1.14604E+03 -4.17751E+03 -3.55096E+02
 -1.71516E+03 -3.34965E+03  6.00964E+02 -4.55150E+03  1.94499E+03 -2.47818E+03  2.67049E+03 -1.05627E+03
  2.35935E+03  1.62852E+03  1.90565E+02  2.04155E+03 -2.68377E+02  1.06735E+03 -9.98437E+02 -1.88157E+02
 -5.03375E+02 -1.48373E+03  1.22556E+03 -1.25044E+03  1.13999E+03 -7.42474E+02  1.15520E+03  3.28827E+02
  7.63258E+02  1.51052E+02  9.06358E+02 -3.79693E+02 -3.41817E+02  7.29720E+02  1.44902E+03 -3.86513E+02
  2.52388E+02 -2.92937E+02  1.70824E+03  4.67840E+02  2.20645E+02  1.96947E+03 -3.91757E+02  2.94798E+03
 -1.72790E+03  8.71903E+02 -1.93164E+03  3.34176E+02 -1.85539E+03 -8.70339E+02 -4.59806E+01 -6.25746E+02
  4.55744E+02 -1.10440E+03  8.85407E+02 -6.38122E+02  6.02723E+02  1.31726E+03 -7.90812E+02  1.20815E+03
 -1.47967E+03  7.11229E+02 -1.21798E+03 -1.16867E+03 -5.96548E+02 -1.83089E+03  2.05137E+02 -1.40449E+03
  4.69306E+02 -3.71785E+02  6.59157E+02  2.64897E+02  9.65020E+02 -8.38649E+01  4.43887E+02  1.15122E+03
 -2.24711E+02 -1.86739E+02 -6.89979E+02  2.79263E+01  4.88856E+02 -6.85361E+02  1.55436E+03 -6.48609E+02
  1.09627E+03  4.23215E+02  2.49382E+03  8.27435E+02  1.02149E+03  1.37842E+03 -7.82842E+01  1.40525E+03
 -1.32405E+03  2.73265E+02 -1.37105E+03 -7.40342E+01 -6.73448E+02 -1.23332E+03  5.00345E+02 -6.02838E+02
  1.38616E+03 -4.94498E+02  5.51367E+02  6.36718E+02  2.28155E+01  1.26906E+03  2.14801E+02  8.74224E+02
 -3.10963E+02  1.20810E+03 -4.80329E+02  1.35184E+02  2.57922E+02  2.11669E+02 -1.09669E+03  5.05110E+02
 -6.88301E+02  8.73365E+02 -1.46913E+03  4.69013E+02 -1.38123E+03  4.71986E+02 -2.18506E+03 -9.31747E+02
 -9.09726E+02 -2.12606E+03  2.79521E+02 -2.22374E+03  8.04482E+02 -2.13131E+03  2.24436E+03 -8.58673E+02
  2.05123E+03 -1.60639E+02  1.03892E+03  1.43096E+03 -4.18221E+02  9.84089E+02 -2.81693E+02  1.21070E+03
 -6.81940E+02  9.47375E+02 -3.16528E+02 -4.91496E+02 -5.20304E+02  2.03845E+02 -4.87894E+02  1.38171E+02
 -9.39301E+02 -3.25363E+02 -7.96986E+02  1.95444E+02  1.73986E+02 -3.32539E+02 -4.09223E+02 -8.31415E+02
  1.35547E+03 -2.46032E+02  3.14554E+02  1.34999E+02  8.77881E+02  9.74930E+02 -4.80245E+02  1.10198E+03
 -7.57553E+02  2.01981E+03 -1.32761E+03  9.21614E+02 -1.47860E+03 -4.24600E+02 -8.73460E+02 -1.16130E+03
 -1.09284E+03 -9.98151E+02  2.92833E+02 -8.53985E+02  3.83903E+02 -5.22318E+02  3.11966E+02  1.38517E+02
  5.42961E+02 -1.25191E+02  2.59531E+02  3.38434E+02 -2.55893E+02 -8.87680E+00  1.46232E+01  9.73186E+00
  4.48531E+02  3.20906E+02  4.60732E+01  3.95001E+02  1.78838E+02  3.58142E+02  4.82031E+02 -6.41209E+01
 -4.48116E+02  5.27345E+02 -2.26486E+02 -9.35271E-01 -6.71931E+02 -4.23440E+02  2.62777E+01 -7.80030E+02
  2.64396E+02 -6.09727E+02  3.65756E+02 -1.04982E+01  5.40619E+02 -5.60543E+02  4.33691E+02  5.89047E+02
  8.88347E+02  2.23494E+02  9.75542E+01  4.95589E+02 -4.24169E+02  3.45702E+02 -3.26815E+02  1.87884E+01
 -2.98311E+01  5.55831E+01 -4.15210E+02  5.86742E+01 -3.73572E+02  1.28457E+02 -5.96751E+02 -1.97973E+02
 -1.23431E+03  1.28995E+02 -2.47105E+02 -7.97805E+02  5.97927E+02 -1.20717E+03  5.36990E+02 -1.91087E+02
  7.64501E+02  3.31887E+02 -5.24527E+02  1.01854E+02 -1.45126E+02  5.76396E+02  7.18867E+01  6.33374E+02
