 $NMID ID='MM_0lb_SNR800_15hz_g60_82.RAW', FMTDAT='(8E13.5)'
 TRAMP=1., VOLUME=1. $END
  3.09967E+05  4.46359E+02  3.37382E+05  2.50629E+05  8.45512E+04  3.38104E+05 -1.32591E+05  2.51202E+05
 -1.90662E+05  8.31770E+04 -1.12154E+05 -3.27012E+04  6.63992E+02 -5.06090E+04  5.36809E+04 -2.34315E+02
  3.57197E+04  5.27507E+04 -1.67726E+04  7.56651E+04 -6.07937E+04  6.38977E+04 -8.45839E+04  3.18906E+04
 -8.11486E+04 -1.17249E+04 -5.78159E+04 -5.14477E+04 -1.50765E+04 -6.99468E+04  2.76830E+04 -4.61052E+04
  4.01063E+04  3.64610E+03  1.61276E+04  4.80021E+04 -3.45417E+04  4.75102E+04 -6.71616E+04  1.73956E+02
 -5.37647E+04 -5.73169E+04 -6.97369E+03 -7.78940E+04  3.42083E+04 -5.54882E+04  4.78649E+04 -1.77937E+04
  4.40949E+04  1.14707E+04  3.20193E+04  2.57547E+04  1.60007E+04  2.98547E+04 -5.51295E+03  2.74000E+04
 -2.21823E+04  1.21281E+04 -1.86661E+04 -5.17790E+03  5.79327E+03 -7.68582E+03  2.25778E+04  1.27449E+04
  7.15208E+03  3.60024E+04 -3.22476E+04  3.57206E+04 -6.40048E+04  2.04621E+03 -5.73835E+04 -4.28114E+04
 -1.26099E+04 -6.33788E+04  4.00474E+04 -4.55886E+04  5.88745E+04 -2.23450E+03  3.45950E+04  3.31950E+04
 -5.67191E+03  3.69853E+04 -3.00776E+04  1.67688E+04 -3.09894E+04 -4.37905E+03 -1.75693E+04 -1.12221E+04
 -8.74958E+03 -1.37918E+04 -7.83553E+02 -1.85478E+04  7.46671E+03 -2.30826E+04  1.51339E+04 -1.31350E+04
  1.12884E+04  5.57871E+03 -8.42926E+03  1.29337E+04 -2.20724E+04 -4.77500E+03 -8.37098E+03 -3.41758E+04
  2.31371E+04 -4.41540E+04  4.85010E+04 -1.97534E+04  4.60789E+04  1.99169E+04  1.60482E+04  4.47116E+04
 -1.59064E+04  3.40975E+04 -2.53002E+04  2.01377E+03 -1.02315E+04 -2.80055E+04  2.12584E+04 -3.42929E+04
  4.17592E+04 -9.50382E+03  3.62627E+04  2.38670E+04  1.86386E+04  4.72272E+04 -8.16647E+03  5.10490E+04
 -3.21858E+04  3.45149E+04 -4.31251E+04  9.60615E+03 -4.34398E+04 -1.68657E+04 -2.40598E+04 -3.88027E+04
  7.46503E+03 -3.88083E+04  3.19666E+04 -1.50303E+04  2.99153E+04  1.08688E+04  4.14999E+03  1.91584E+04
 -1.36503E+04  8.56188E+03 -1.05406E+04 -7.76486E+03  5.90405E+03 -1.04327E+04  1.79602E+04  6.12778E+03
  1.37562E+04  2.19662E+04 -5.92004E+03  2.53321E+04 -2.23942E+04  1.19903E+04 -2.85296E+04 -4.48924E+03
 -2.12222E+04 -1.76560E+04 -8.78676E+03 -2.11769E+04  4.29477E+03 -2.05621E+04  1.60899E+04 -1.88316E+04
  2.67691E+04 -1.33000E+04  3.33227E+04  2.99632E+03  2.41736E+04  2.03741E+04  4.22124E+03  3.70549E+04
 -1.80923E+04  3.08808E+04 -2.84119E+04  1.07233E+04 -2.12197E+04 -1.04132E+04 -4.36061E+03 -1.33571E+04
  1.71002E+03 -2.53211E+03 -5.32821E+03  6.96670E+03 -1.63088E+04  5.25182E+03 -1.72154E+04 -7.40688E+03
 -1.02287E+04 -1.95383E+04  5.34071E+03 -2.36180E+04  1.57331E+04 -1.69375E+04  1.85134E+04 -1.97539E+03
  1.20430E+04  1.38273E+04 -9.40844E+02  1.95120E+04 -1.33080E+04  1.11366E+04 -1.93879E+04 -4.11982E+03
 -1.41790E+04 -1.74067E+04 -1.92019E+03 -2.37696E+04  1.04500E+04 -1.90046E+04  1.95783E+04 -9.37411E+03
  1.82804E+04  3.39703E+02  1.29207E+04  4.28524E+03  7.02288E+03  1.04024E+03  9.50666E+03 -1.90792E+03
  1.77392E+04  2.80203E+03  1.98708E+04  1.52363E+04  1.30087E+04  3.08399E+04 -3.10007E+03  3.46329E+04
 -2.02456E+04  2.78933E+04 -3.27556E+04  1.39883E+04 -3.42458E+04 -2.66041E+03 -2.83688E+04 -1.94107E+04
 -1.20099E+04 -2.82946E+04  9.75543E+03 -2.52160E+04  2.19006E+04 -1.27799E+04  1.94602E+04  5.64348E+03
  7.28935E+03  1.48152E+04 -9.28201E+03  1.27514E+04 -1.63872E+04  2.46194E+03 -1.26763E+04 -1.01534E+04
 -2.62611E+02 -1.57392E+04  8.03992E+03 -1.14238E+04  1.02812E+04 -1.44594E+03  2.19163E+03  6.62379E+03
 -6.91875E+03  2.82214E+03 -6.33473E+03 -5.58389E+03 -1.70670E+02 -1.37990E+04  1.01007E+04 -1.44340E+04
  1.71555E+04 -7.75112E+03  1.80204E+04  2.80133E+03  1.60704E+04  1.37871E+04  7.12363E+03  2.06551E+04
 -3.35430E+03  2.24968E+04 -1.44425E+04  1.38822E+04 -1.60179E+04  3.44015E+03 -1.12575E+04 -3.76523E+03
 -5.50555E+03 -5.15678E+03 -5.15398E+02  9.77320E+02 -2.39247E+03  2.28502E+03 -5.21508E+03  4.33950E+03
 -1.06876E+04 -5.15148E+02 -1.12296E+04 -9.21746E+03 -4.73491E+03 -1.45931E+04  4.90720E+03 -1.13031E+04
  9.76653E+03 -5.00297E+03  6.77600E+03  3.05838E+03  1.40714E+02  4.53145E+03 -5.08191E+03 -1.19097E+02
 -5.14010E+03 -6.92026E+03 -9.25181E+02 -1.07585E+04  6.13666E+03 -1.15328E+04  1.39637E+04 -5.86671E+03
  1.67462E+04  1.49003E+03  1.21666E+04  9.25924E+03  2.47908E+03  1.29127E+04 -6.79890E+03  1.14140E+04
 -9.46341E+03  3.60682E+03 -4.53086E+03 -2.18748E+03  1.55661E+03 -3.15365E+03  6.26090E+03 -1.03768E+03
  5.53656E+03  4.69892E+03  6.50355E+02  8.80233E+03 -6.23717E+03  8.81933E+03 -1.07294E+04  2.50246E+03
 -7.06747E+03 -5.46306E+03  1.18548E+02 -9.47577E+03  5.76404E+03 -4.94803E+03  5.88522E+03  2.06348E+03
  1.13997E+03  5.67724E+03 -5.61203E+03  7.26025E+03 -7.87213E+03  3.49112E+03 -7.97317E+03 -2.56063E+03
 -5.14306E+03 -9.56801E+03  2.11578E+03 -1.12008E+04  9.61539E+03 -6.82937E+03  1.02233E+04  1.74978E+03
  6.79278E+03  8.21997E+03 -5.45364E+02  1.04221E+04 -7.37281E+03  5.74079E+03 -8.16799E+03 -4.68701E+02
 -7.55979E+03 -7.09723E+03 -1.51161E+03 -7.65957E+03  3.99249E+03 -6.35581E+03  4.87980E+03 -3.00454E+03
  3.90279E+03  7.38434E+02 -1.80317E+02  1.32193E+03 -3.23407E+01 -1.30591E+03  1.01268E+03 -4.07004E+03
  6.49282E+03 -2.27543E+03  9.42092E+03  1.19273E+03  9.30460E+03  5.94643E+03  7.22881E+03  1.21806E+04
 -2.54052E+03  1.36263E+04 -1.20358E+04  1.03869E+04 -1.53832E+04  1.76823E+03 -1.24292E+04 -4.99951E+03
 -6.41058E+03 -1.03926E+04 -3.21665E+02 -8.61761E+03  3.06885E+03 -4.36321E+03  3.09058E+03 -2.84584E+03
  1.91347E+03 -2.05364E+03  3.10847E+03 -2.88331E+03  4.28785E+03 -2.23700E+03  5.43824E+03 -6.04097E+01
  6.67410E+03  1.34929E+03  2.29295E+03  5.23310E+03 -1.71796E+03  6.02186E+03 -6.86966E+03  4.59611E+03
 -8.23818E+03 -1.20724E+03 -4.21213E+03 -5.53478E+03 -1.72228E+02 -8.53804E+03  5.16343E+03 -8.91414E+03
  8.82463E+03 -5.13600E+03  1.08290E+04  1.13035E+03  7.61764E+03  7.41446E+03  1.57462E+03  9.94350E+03
 -3.63831E+03  8.38209E+03 -5.51557E+03  2.90124E+03 -3.84097E+03 -1.24550E+03 -1.62305E+03 -1.24299E+03
 -9.14777E+02  5.15736E+01 -1.23244E+03  2.27615E+03 -3.87489E+03  1.84049E+03 -5.78875E+03 -7.06847E+02
 -3.12097E+03 -6.10731E+03  5.52749E+02 -7.90667E+03  4.57218E+03 -7.38305E+03  6.97901E+03 -2.35260E+03
  7.48144E+03  3.65776E+03  3.37498E+03  6.20933E+03 -1.51867E+03  7.43108E+03 -5.07177E+03  4.40741E+03
 -6.91690E+03  7.24222E+02 -5.65960E+03 -4.37869E+03 -6.11151E+02 -5.97140E+03  2.78331E+03 -4.45205E+03
  4.80469E+03 -2.36626E+03  3.30393E+03  1.00510E+03  8.74275E+02  2.31577E+03  1.22559E+03  9.25460E+02
  1.91361E+03  6.71994E+02  1.94956E+03  1.24132E+03  2.05077E+03  3.16054E+03  2.16812E+03  3.65400E+03
 -2.00519E+03  5.71504E+03 -4.44832E+03  6.14085E+03 -6.79677E+03  1.64789E+03 -7.65646E+03 -2.03849E+03
 -3.43599E+03 -6.69786E+03  1.13626E+03 -8.24566E+03  3.80923E+03 -4.89323E+03  5.81211E+03 -1.41646E+03
  4.49995E+03  2.53297E+03  1.10489E+03  3.88450E+03 -1.67104E+03  2.48094E+03 -2.36202E+03 -3.14895E+02
 -1.25810E+03 -2.91987E+03  1.66781E+03 -2.85529E+03  2.48009E+03 -1.74345E+03  2.80394E+03  5.59869E+02
  1.68277E+03  9.12350E+02  1.10453E+03  5.41378E+02 -5.27366E+02  7.44022E+02  1.62764E+03 -5.22148E+02
  6.30946E+02 -4.19595E+02  2.54648E+03  1.14345E+03  1.43591E+03  3.73445E+03 -4.22921E+02  4.99871E+03
 -2.76274E+03  2.93131E+03 -3.96797E+03  8.47962E+02 -3.76887E+03 -1.54184E+03 -1.25076E+03 -2.34383E+03
  4.21637E+02 -2.42997E+03  1.66705E+03 -1.45208E+03  1.30224E+03  1.56650E+03 -5.90096E+02  2.07111E+03
 -2.85388E+03  1.29210E+03 -2.69724E+03 -1.74176E+03 -1.51672E+03 -3.61957E+03  3.99098E+02 -3.35623E+03
  1.52184E+03 -1.60946E+03  2.24505E+03  1.49227E+02  2.08436E+03  5.60770E+02  4.35307E+02  1.75729E+03
 -9.78573E+02  4.23141E+02 -1.76580E+03 -8.69308E+02  8.40357E+02 -2.10165E+03  3.08421E+03 -1.93986E+03
  3.36339E+03  2.45806E+02  4.26622E+03  2.14362E+03  1.94180E+03  3.42606E+03 -9.90225E+02  3.93533E+03
 -3.09787E+03  1.43324E+03 -3.38894E+03 -5.34365E+02 -1.76309E+03 -2.56866E+03  8.10587E+02 -1.92164E+03
  2.49668E+03 -1.00081E+03  1.84082E+03  1.22944E+03  5.02719E+02  2.21230E+03  6.90666E+01  2.03782E+03
 -5.94830E+02  1.27125E+03 -7.23982E+02  6.35325E+02 -5.50138E+02  4.12624E+02 -8.06399E+02  9.11506E+02
 -8.71153E+02  1.67314E+03 -2.80966E+03  1.10054E+03 -3.50631E+03  1.20337E+02 -4.19953E+03 -2.15897E+03
 -1.83498E+03 -4.73378E+03  8.32233E+02 -5.63904E+03  3.07876E+03 -4.81319E+03  5.64842E+03 -1.50859E+03
  4.60973E+03  6.84747E+02  2.98939E+03  3.34271E+03 -3.55578E+02  3.13661E+03 -1.37302E+03  2.89127E+03
 -2.07405E+03  1.16179E+03 -1.10059E+03 -3.15106E+02 -8.49179E+02 -1.77040E+01 -6.31087E+02 -3.82703E+02
 -1.11198E+03 -2.95448E+02 -1.48315E+03 -1.85791E+02  3.06236E+02 -1.31463E+03 -2.32449E+02 -1.44302E+03
  1.73055E+03 -9.73467E+02  1.74112E+03  1.01707E+02  2.38829E+03  2.20944E+03 -2.68824E+02  3.35045E+03
 -1.85939E+03  4.13412E+03 -3.52776E+03  2.23452E+03 -3.88070E+03 -8.42475E+01 -2.67591E+03 -2.76718E+03
 -1.62838E+03 -3.19863E+03  4.67566E+02 -2.65070E+03  2.04696E+03 -1.60734E+03  1.81293E+03  8.25366E+01
  1.27437E+03  8.40461E+02 -8.23939E+01  8.78816E+02 -8.63444E+02 -4.26374E+01 -1.93185E+02 -5.12137E+02
  8.89110E+02 -5.39268E+01  1.14717E+03  7.55686E+02  3.19775E+02  1.19753E+03  6.05451E+02  1.30268E+03
 -1.82671E+03  1.18435E+03 -1.87493E+03  3.87455E+02 -1.77108E+03 -1.44754E+03  1.58900E+01 -2.42719E+03
  1.63093E+03 -1.61158E+03  1.95686E+03 -5.22347E+02  2.24357E+03 -2.56116E+02  9.61414E+02  1.71265E+03
  6.19148E+02  1.63698E+03 -5.56705E+02  1.25206E+03 -1.29691E+03  9.82354E+02 -1.33177E+03  1.70688E+02
 -3.66981E+02 -2.32168E+02 -7.34753E+02  2.46070E+02 -1.13562E+03  2.24230E+02 -1.45778E+03 -6.61065E+02
 -1.64818E+03 -2.06746E+02 -3.11430E+02 -2.07724E+03  1.03693E+03 -2.81530E+03  1.60154E+03 -9.72732E+02
  1.84608E+03  6.61088E+01  2.87240E+02  1.09980E+03 -3.62728E+02  1.76411E+03 -1.34049E+03  1.22082E+03
