 $NMID ID='MM_0lb_SNR800_8hz_g50_20.RAW', FMTDAT='(8E13.5)'
 TRAMP=1., VOLUME=1. $END
  3.09793E+05  6.15890E+02  3.38203E+05  2.50603E+05  8.51192E+04  3.38334E+05 -1.32799E+05  2.51857E+05
 -1.91200E+05  8.36283E+04 -1.12520E+05 -3.14945E+04  5.47350E+02 -5.07353E+04  5.38257E+04 -5.34159E+02
  3.58563E+04  5.30226E+04 -1.70695E+04  7.59979E+04 -6.10409E+04  6.49781E+04 -8.60424E+04  3.29142E+04
 -8.27329E+04 -1.18977E+04 -5.81463E+04 -5.24082E+04 -1.50243E+04 -7.09440E+04  2.82531E+04 -4.66841E+04
  4.12580E+04  3.60134E+03  1.65480E+04  4.87609E+04 -3.43669E+04  4.86522E+04 -6.82773E+04 -3.00233E+02
 -5.53222E+04 -5.77663E+04 -7.19052E+03 -7.91199E+04  3.50430E+04 -5.78913E+04  5.01167E+04 -1.86124E+04
  4.57589E+04  1.14442E+04  3.30707E+04  2.70477E+04  1.59154E+04  3.03864E+04 -5.96893E+03  2.81557E+04
 -2.26125E+04  1.20283E+04 -1.79210E+04 -5.93069E+03  7.48106E+03 -7.36304E+03  2.32454E+04  1.41635E+04
  7.11469E+03  3.79780E+04 -3.43776E+04  3.73799E+04 -6.63626E+04  2.28018E+03 -5.96111E+04 -4.48577E+04
 -1.23169E+04 -6.64989E+04  4.20113E+04 -4.76804E+04  6.16546E+04 -2.34911E+03  3.73373E+04  3.45894E+04
 -5.72182E+03  3.98277E+04 -3.23653E+04  1.96303E+04 -3.40358E+04 -3.90056E+03 -2.02039E+04 -1.21844E+04
 -9.96291E+03 -1.57232E+04 -2.24160E+02 -1.98371E+04  8.64839E+03 -2.36384E+04  1.62024E+04 -1.27464E+04
  1.04441E+04  6.65918E+03 -1.09163E+04  1.23735E+04 -2.38765E+04 -7.12849E+03 -9.21905E+03 -3.82380E+04
  2.57834E+04 -4.78275E+04  5.22895E+04 -2.10655E+04  4.92140E+04  2.07501E+04  1.74702E+04  4.73272E+04
 -1.69685E+04  3.66038E+04 -2.80470E+04  2.83303E+03 -1.20747E+04 -2.99613E+04  2.15343E+04 -3.74934E+04
  4.55924E+04 -1.15213E+04  4.13118E+04  2.51479E+04  2.20044E+04  5.19338E+04 -8.44822E+03  5.74321E+04
 -3.59680E+04  3.93409E+04 -4.87901E+04  1.10632E+04 -4.84604E+04 -1.89956E+04 -2.66035E+04 -4.28020E+04
  7.99514E+03 -4.30690E+04  3.52072E+04 -1.76001E+04  3.29591E+04  1.11032E+04  5.37193E+03  2.16828E+04
 -1.41277E+04  9.72706E+03 -1.16376E+04 -7.38508E+03  5.44593E+03 -1.15663E+04  1.91927E+04  5.30311E+03
  1.47996E+04  2.27672E+04 -4.75691E+03  2.78043E+04 -2.36244E+04  1.48167E+04 -3.19859E+04 -2.19587E+03
 -2.61235E+04 -1.83941E+04 -1.22533E+04 -2.58219E+04  4.33217E+03 -2.70316E+04  2.04688E+04 -2.40538E+04
  3.29827E+04 -1.43337E+04  3.88482E+04  5.30711E+03  2.77134E+04  2.50373E+04  4.64278E+03  4.20981E+04
 -2.03003E+04  3.47192E+04 -3.09468E+04  1.18558E+04 -2.23530E+04 -1.01422E+04 -5.09185E+03 -1.31356E+04
  6.73418E+02 -7.92965E+02 -8.20074E+03  8.34148E+03 -2.08576E+04  5.13380E+03 -2.06103E+04 -1.00690E+04
 -1.23020E+04 -2.41495E+04  6.09939E+03 -2.87525E+04  1.94680E+04 -2.06879E+04  2.37877E+04 -2.21150E+03
  1.54219E+04  1.66817E+04 -1.77695E+03  2.39137E+04 -1.74705E+04  1.40757E+04 -2.43259E+04 -4.92082E+03
 -1.79915E+04 -2.13674E+04 -2.34325E+03 -2.89455E+04  1.31526E+04 -2.42788E+04  2.42026E+04 -1.25283E+04
  2.29934E+04 -8.58795E+02  1.66307E+04  5.47895E+03  9.55099E+03  1.68499E+03  1.22315E+04 -2.21731E+03
  2.28383E+04  2.69079E+03  2.70662E+04  1.91538E+04  1.84039E+04  3.95272E+04 -2.24821E+03  4.64053E+04
 -2.65632E+04  3.87843E+04 -4.37237E+04  2.03797E+04 -4.73100E+04 -3.64586E+03 -3.77962E+04 -2.69492E+04
 -1.47150E+04 -3.93327E+04  1.40050E+04 -3.44038E+04  2.96988E+04 -1.64837E+04  2.50533E+04  8.41998E+03
  8.32680E+03  2.00564E+04 -1.23914E+04  1.63072E+04 -2.09759E+04  2.73412E+03 -1.58553E+04 -1.36995E+04
 -9.59469E+01 -2.00316E+04  1.08771E+04 -1.47379E+04  1.41891E+04 -1.27267E+03  3.40311E+03  9.43027E+03
 -9.04795E+03  4.75613E+03 -1.01703E+04 -7.38823E+03 -2.16264E+03 -1.87850E+04  1.24833E+04 -2.10081E+04
  2.40585E+04 -1.22893E+04  2.82382E+04  3.84635E+03  2.48186E+04  1.94884E+04  1.10067E+04  3.09179E+04
 -5.83834E+03  3.33159E+04 -2.15870E+04  2.03965E+04 -2.41647E+04  4.05922E+03 -1.58301E+04 -6.23214E+03
 -6.73186E+03 -7.92154E+03 -7.46518E+02  1.65032E+02 -2.98312E+03  3.52594E+03 -7.60845E+03  5.85152E+03
 -1.52385E+04 -1.11807E+03 -1.52229E+04 -1.20270E+04 -6.65564E+03 -2.05913E+04  7.00090E+03 -1.67244E+04
  1.36203E+04 -6.75358E+03  9.19850E+03  4.52797E+03 -4.45739E+02  6.57777E+03 -8.70909E+03 -2.52106E+02
 -8.19438E+03 -1.06991E+04 -1.17839E+03 -1.67012E+04  9.79889E+03 -1.78383E+04  2.15803E+04 -9.56861E+03
  2.50236E+04  2.87326E+03  1.84519E+04  1.58361E+04  3.28098E+03  2.03918E+04 -1.01312E+04  1.69796E+04
 -1.30408E+04  4.73209E+03 -7.29330E+03 -3.91549E+03  2.21331E+03 -4.83725E+03  8.42789E+03 -1.33779E+03
  7.33032E+03  7.34321E+03  1.66305E+03  1.30972E+04 -9.33381E+03  1.26098E+04 -1.66626E+04  2.89968E+03
 -1.13294E+04 -9.25994E+03  1.98674E+02 -1.43223E+04  9.51962E+03 -7.21673E+03  1.01183E+04  3.49300E+03
  2.54762E+03  1.13590E+04 -9.05663E+03  1.25831E+04 -1.51178E+04  5.24657E+03 -1.54292E+04 -5.43878E+03
 -8.68010E+03 -1.74172E+04  4.13880E+03 -1.97685E+04  1.67356E+04 -1.16515E+04  1.82069E+04  3.73480E+03
  1.07714E+04  1.46813E+04 -1.86210E+03  1.74521E+04 -1.27045E+04  9.19233E+03 -1.39865E+04 -1.39988E+03
 -1.15440E+04 -1.15355E+04 -2.09969E+03 -1.30256E+04  7.26134E+03 -1.06441E+04  8.31062E+03 -3.98658E+03
  5.18318E+03  2.54338E+03 -1.17246E+03  2.01512E+03 -7.12403E+02 -3.52580E+03  2.71533E+03 -8.68339E+03
  1.27894E+04 -4.91980E+03  1.80093E+04  2.12217E+03  1.75878E+04  1.23236E+04  1.08099E+04  2.29425E+04
 -5.65052E+03  2.60958E+04 -2.17068E+04  1.94868E+04 -2.78490E+04  4.03010E+03 -2.30562E+04 -1.01099E+04
 -1.11836E+04 -1.88964E+04 -5.61567E+02 -1.60412E+04  5.52629E+03 -8.85271E+03  5.52555E+03 -6.00865E+03
  4.31261E+03 -3.61268E+03  3.95315E+03 -4.45458E+03  5.73628E+03 -4.25227E+03  8.93310E+03 -2.37114E+03
  1.19068E+04  2.70849E+03  6.17058E+03  1.05290E+04 -2.00029E+03  1.28695E+04 -1.24583E+04  9.50521E+03
 -1.63000E+04 -1.88321E+03 -1.05278E+04 -1.13645E+04 -1.61309E+03 -1.80703E+04  9.80720E+03 -1.75436E+04
  1.84300E+04 -9.36721E+03  2.15549E+04  2.93035E+03  1.51720E+04  1.53267E+04  2.09644E+03  1.98197E+04
 -8.32208E+03  1.64291E+04 -1.13796E+04  5.90306E+03 -8.25514E+03 -2.02826E+03 -3.41535E+03 -2.42136E+03
 -1.44411E+03 -2.36438E+02 -2.78354E+03  3.29356E+03 -6.93432E+03  2.52347E+03 -1.11113E+04 -1.38644E+03
 -8.21262E+03 -1.14775E+04  6.41449E+01 -1.65266E+04  1.06350E+04 -1.56821E+04  1.65454E+04 -4.65151E+03
  1.61410E+04  7.94148E+03  7.79811E+03  1.51607E+04 -3.53801E+03  1.63225E+04 -1.18944E+04  1.09077E+04
 -1.57775E+04  2.02826E+02 -1.19645E+04 -9.81090E+03 -1.18133E+03 -1.39877E+04  7.35357E+03 -1.06489E+04
  1.07587E+04 -3.58853E+03  7.22787E+03  2.50731E+03  3.23182E+03  4.22366E+03  1.55911E+03  2.22956E+03
  2.62116E+03  1.08973E+03  3.58356E+03  2.08818E+03  5.59820E+03  5.95647E+03  4.22966E+03  9.17344E+03
 -3.33122E+03  1.31447E+04 -1.18546E+04  1.29709E+04 -1.74199E+04  3.31615E+03 -1.81454E+04 -7.29016E+03
 -8.41650E+03 -1.70419E+04  2.40007E+03 -1.88135E+04  1.02031E+04 -1.20532E+04  1.45184E+04 -3.34577E+03
  1.05048E+04  6.05314E+03  1.91534E+03  9.94065E+03 -4.96484E+03  6.59873E+03 -7.42449E+03 -1.03797E+03
 -3.32568E+03 -7.38692E+03  3.93003E+03 -7.77643E+03  6.98267E+03 -3.37728E+03  6.90825E+03  1.53841E+03
  3.84109E+03  3.81106E+03  1.42585E+03  3.06659E+03 -5.82460E+02  2.27118E+03  1.69347E+03 -5.55730E+02
  2.78816E+03 -1.16666E+03  6.98130E+03  3.19943E+03  3.79742E+03  9.51459E+03 -2.11796E+03  1.22998E+04
 -7.99896E+03  8.34984E+03 -1.12885E+04  1.98733E+03 -1.02833E+04 -3.99102E+03 -3.92854E+03 -6.74920E+03
  8.73600E+02 -6.67078E+03  4.36836E+03 -3.39151E+03  3.89204E+03  3.39178E+03 -2.07757E+03  5.60618E+03
 -7.53189E+03  3.33193E+03 -8.89699E+03 -3.61006E+03 -4.76764E+03 -9.61616E+03  1.53273E+03 -9.49280E+03
  6.27803E+03 -5.83744E+03  7.73430E+03 -8.84606E+02  5.89348E+03  2.68432E+03  7.99994E+02  5.18033E+03
 -3.33605E+03  1.81278E+03 -4.47448E+03 -3.89376E+03  1.09564E+03 -7.81985E+03  9.10318E+03 -6.06426E+03
  1.15964E+04  8.69159E+02  1.07332E+04  7.58217E+03  3.39990E+03  1.23415E+04 -4.52162E+03  1.11047E+04
 -9.29798E+03  4.68353E+03 -9.82020E+03 -1.44780E+03 -4.96619E+03 -7.84983E+03  1.82482E+03 -7.22676E+03
  7.30057E+03 -3.71905E+03  6.13671E+03  2.72562E+03  2.01877E+03  6.54086E+03 -9.11457E+02  5.71991E+03
 -3.32770E+03  3.58397E+03 -2.52422E+03  1.19464E+03 -1.36538E+03  1.18144E+03 -2.01640E+03  2.31055E+03
 -3.05527E+03  4.40138E+03 -7.57210E+03  4.36262E+03 -1.18620E+04  4.24058E+02 -1.32106E+04 -8.04410E+03
 -7.10354E+03 -1.56107E+04  2.74049E+03 -1.83471E+04  1.15014E+04 -1.39777E+04  1.71582E+04 -5.22207E+03
  1.59917E+04  3.33249E+03  1.04556E+04  1.12565E+04  1.15030E+03  1.26019E+04 -4.74231E+03  9.53945E+03
 -6.81420E+03  3.27157E+03 -4.17148E+03 -1.25364E+03 -1.67359E+03 -1.53442E+03 -8.54784E+02  9.84215E+01
 -1.82737E+03  5.06637E+02 -2.60139E+03 -8.60612E+02 -8.40777E+02 -2.70033E+03  2.58727E+02 -4.69648E+03
  5.61341E+03 -4.08190E+03  7.80038E+03 -3.46133E+01  8.75939E+03  6.56641E+03  2.74843E+03  1.28262E+04
 -5.93920E+03  1.46289E+04 -1.30909E+04  8.24548E+03 -1.51828E+04 -1.18650E+03 -1.10291E+04 -9.54092E+03
 -4.34371E+03 -1.31198E+04  3.17204E+03 -1.18748E+04  7.87414E+03 -6.34983E+03  8.43264E+03  2.72452E+02
  4.61004E+03  3.94356E+03 -3.30990E+02  3.93574E+03 -2.54531E+03 -6.34078E+02  1.29955E+02 -3.23834E+03
  3.82236E+03 -2.01060E+03  4.66333E+03  1.66489E+03  3.53521E+03  4.86948E+03  3.72848E+02  6.27996E+03
 -5.51669E+03  5.72623E+03 -8.75644E+03  1.12512E+03 -7.54771E+03 -6.08486E+03 -1.23599E+03 -1.06548E+04
  6.05273E+03 -9.03400E+03  9.91445E+03 -2.91408E+03  1.00206E+04  2.58356E+03  5.37161E+03  7.92676E+03
  1.03648E+03  8.60891E+03 -3.04356E+03  7.13904E+03 -5.58090E+03  3.45945E+03 -4.20426E+03  5.02804E+02
 -2.88748E+03 -2.98610E+02 -2.15933E+03  1.32749E+03 -4.72927E+03  1.14700E+03 -6.80283E+03 -1.29246E+03
 -6.48023E+03 -4.71716E+03 -1.79843E+03 -8.66752E+03  3.85785E+03 -9.22207E+03  7.42964E+03 -4.59495E+03
  8.97127E+03  7.69795E+02  4.89375E+03  6.18536E+03 -5.41003E+02  8.73723E+03 -6.56764E+03  5.87831E+03
