 $NMID ID='MM_0lb_SNR800_8hz_g45_48.RAW', FMTDAT='(8E13.5)'
 TRAMP=1., VOLUME=1. $END
  3.09612E+05  4.64054E+02  3.37952E+05  2.50799E+05  8.49429E+04  3.38710E+05 -1.32804E+05  2.51792E+05
 -1.90673E+05  8.38052E+04 -1.12708E+05 -3.27234E+04  3.88506E+02 -5.05017E+04  5.36859E+04 -5.81646E+02
  3.54367E+04  5.31775E+04 -1.64463E+04  7.59874E+04 -6.11586E+04  6.50237E+04 -8.52828E+04  3.24784E+04
 -8.25301E+04 -1.16060E+04 -5.79678E+04 -5.20199E+04 -1.52967E+04 -7.09548E+04  2.84589E+04 -4.69657E+04
  4.13008E+04  3.47804E+03  1.67020E+04  4.85115E+04 -3.45979E+04  4.83542E+04 -6.80421E+04  5.00406E+02
 -5.48777E+04 -5.81379E+04 -7.51813E+03 -7.92315E+04  3.48992E+04 -5.79680E+04  4.98522E+04 -1.81041E+04
  4.54626E+04  1.17798E+04  3.30889E+04  2.65948E+04  1.62786E+04  3.07615E+04 -6.23183E+03  2.76417E+04
 -2.23546E+04  1.16152E+04 -1.80941E+04 -6.18063E+03  7.35629E+03 -7.47934E+03  2.35163E+04  1.38929E+04
  6.99845E+03  3.81615E+04 -3.40733E+04  3.69705E+04 -6.62408E+04  2.08682E+03 -5.87831E+04 -4.47866E+04
 -1.29337E+04 -6.58193E+04  4.12617E+04 -4.78102E+04  6.14358E+04 -2.95901E+03  3.73493E+04  3.42089E+04
 -5.35207E+03  3.97497E+04 -3.20317E+04  1.87738E+04 -3.31389E+04 -3.44943E+03 -2.02273E+04 -1.18975E+04
 -9.80896E+03 -1.55025E+04 -4.39471E+02 -2.01643E+04  8.81481E+03 -2.38374E+04  1.57048E+04 -1.29512E+04
  1.04149E+04  6.42567E+03 -1.11993E+04  1.23855E+04 -2.35232E+04 -6.69955E+03 -8.75589E+03 -3.79047E+04
  2.53154E+04 -4.67974E+04  5.21195E+04 -2.12374E+04  4.87649E+04  2.06460E+04  1.73514E+04  4.75523E+04
 -1.66451E+04  3.62162E+04 -2.77837E+04  2.71872E+03 -1.22053E+04 -2.97770E+04  2.13713E+04 -3.71539E+04
  4.47605E+04 -1.12230E+04  4.10266E+04  2.50978E+04  2.19385E+04  5.13869E+04 -8.17837E+03  5.68300E+04
 -3.56811E+04  3.90232E+04 -4.79450E+04  1.12914E+04 -4.83773E+04 -1.87985E+04 -2.67048E+04 -4.25988E+04
  7.58696E+03 -4.25936E+04  3.45425E+04 -1.74715E+04  3.21308E+04  1.13619E+04  5.44128E+03  2.10576E+04
 -1.39057E+04  9.70902E+03 -1.14875E+04 -7.20702E+03  5.74286E+03 -1.19005E+04  1.91132E+04  4.73132E+03
  1.55463E+04  2.28521E+04 -5.27201E+03  2.72069E+04 -2.36439E+04  1.49009E+04 -3.18578E+04 -2.68842E+03
 -2.60722E+04 -1.82202E+04 -1.23510E+04 -2.51844E+04  4.54015E+03 -2.60984E+04  2.05226E+04 -2.39982E+04
  3.25493E+04 -1.45600E+04  3.87668E+04  4.93495E+03  2.69618E+04  2.50216E+04  4.56002E+03  4.18519E+04
 -2.00404E+04  3.39196E+04 -3.07123E+04  1.18351E+04 -2.25617E+04 -1.01460E+04 -4.91736E+03 -1.25257E+04
  7.50986E+02 -7.12022E+02 -7.54769E+03  8.78671E+03 -2.10669E+04  4.94714E+03 -2.03708E+04 -9.83619E+03
 -1.24037E+04 -2.38602E+04  5.97686E+03 -2.84809E+04  1.87565E+04 -1.99962E+04  2.29175E+04 -1.93049E+03
  1.47760E+04  1.64720E+04 -1.70254E+03  2.35868E+04 -1.72437E+04  1.37594E+04 -2.39796E+04 -4.50313E+03
 -1.77417E+04 -2.13339E+04 -2.01913E+03 -2.87113E+04  1.30413E+04 -2.36015E+04  2.35201E+04 -1.24805E+04
  2.26929E+04 -2.25528E+02  1.61329E+04  5.25043E+03  9.29100E+03  1.86969E+03  1.20342E+04 -2.18398E+03
  2.25454E+04  2.93141E+03  2.65160E+04  1.89888E+04  1.80232E+04  3.86922E+04 -2.99833E+03  4.54381E+04
 -2.63058E+04  3.77417E+04 -4.26556E+04  1.94594E+04 -4.59236E+04 -3.36654E+03 -3.68820E+04 -2.68673E+04
 -1.44182E+04 -3.87110E+04  1.34212E+04 -3.32083E+04  2.86343E+04 -1.60529E+04  2.46495E+04  7.88356E+03
  8.60890E+03  1.93113E+04 -1.18669E+04  1.61823E+04 -2.05763E+04  2.68467E+03 -1.54531E+04 -1.34018E+04
 -7.23247E+02 -2.00265E+04  1.09661E+04 -1.47656E+04  1.34931E+04 -1.06042E+03  3.39217E+03  9.11103E+03
 -8.78627E+03  4.68724E+03 -9.89975E+03 -7.27045E+03 -2.19869E+03 -1.88945E+04  1.25262E+04 -2.07950E+04
  2.38546E+04 -1.21092E+04  2.76163E+04  3.29640E+03  2.38668E+04  1.92001E+04  1.11731E+04  3.04235E+04
 -5.83256E+03  3.23940E+04 -2.11606E+04  2.02345E+04 -2.35298E+04  3.91449E+03 -1.58216E+04 -5.84626E+03
 -6.49665E+03 -7.53064E+03 -7.09956E+02  1.39677E+02 -2.83780E+03  3.75375E+03 -8.23876E+03  5.97620E+03
 -1.50494E+04 -1.26455E+03 -1.53462E+04 -1.23427E+04 -6.22475E+03 -2.00999E+04  6.66305E+03 -1.66291E+04
  1.33826E+04 -7.20487E+03  9.20466E+03  4.33377E+03 -5.41526E+02  6.02642E+03 -8.37831E+03 -2.58490E+02
 -7.87977E+03 -1.05644E+04 -1.14464E+03 -1.63537E+04  9.60383E+03 -1.71907E+04  2.07793E+04 -8.84319E+03
  2.45694E+04  2.47547E+03  1.78332E+04  1.53804E+04  3.03820E+03  1.98663E+04 -1.01167E+04  1.62590E+04
 -1.34200E+04  4.37148E+03 -7.13420E+03 -3.51153E+03  2.39070E+03 -4.46763E+03  8.45939E+03 -1.23657E+03
  7.80223E+03  7.41586E+03  1.08950E+03  1.35325E+04 -9.81564E+03  1.26426E+04 -1.61816E+04  3.04217E+03
 -1.15225E+04 -8.59285E+03  5.53854E+02 -1.45647E+04  9.16058E+03 -7.42443E+03  9.85922E+03  3.68136E+03
  2.51905E+03  1.04394E+04 -9.08215E+03  1.22670E+04 -1.46164E+04  5.72641E+03 -1.48809E+04 -5.32504E+03
 -8.66763E+03 -1.67217E+04  4.34003E+03 -1.92198E+04  1.62462E+04 -1.15343E+04  1.81602E+04  3.22183E+03
  1.04057E+04  1.37443E+04 -2.26819E+03  1.68313E+04 -1.22831E+04  9.13002E+03 -1.34947E+04 -1.84039E+03
 -1.10941E+04 -1.10528E+04 -1.77151E+03 -1.29729E+04  6.82359E+03 -9.81791E+03  8.13262E+03 -3.86343E+03
  4.81785E+03  2.04719E+03 -1.19236E+03  1.66282E+03 -1.13580E+03 -3.68636E+03  3.16683E+03 -8.19812E+03
  1.26162E+04 -5.20963E+03  1.71545E+04  1.63133E+03  1.68054E+04  1.21934E+04  1.05718E+04  2.21765E+04
 -5.53322E+03  2.57519E+04 -2.08321E+04  1.88900E+04 -2.74869E+04  3.73720E+03 -2.23249E+04 -9.85548E+03
 -1.10628E+04 -1.85828E+04 -3.15713E+02 -1.57674E+04  6.02077E+03 -9.15457E+03  5.49578E+03 -5.93261E+03
  4.36401E+03 -2.77213E+03  4.25097E+03 -4.45764E+03  6.08641E+03 -4.00014E+03  8.38912E+03 -1.54440E+03
  1.11750E+04  2.59004E+03  6.17997E+03  1.01042E+04 -2.05996E+03  1.23326E+04 -1.19737E+04  9.19658E+03
 -1.59511E+04 -1.13890E+03 -1.03903E+04 -1.08963E+04 -9.60291E+02 -1.70725E+04  9.57002E+03 -1.68418E+04
  1.76422E+04 -9.50364E+03  2.10497E+04  2.50573E+03  1.43389E+04  1.51769E+04  2.46259E+03  1.92064E+04
 -8.09297E+03  1.56502E+04 -1.09990E+04  5.77776E+03 -7.78508E+03 -2.06570E+03 -3.06923E+03 -2.64612E+03
 -1.51825E+03 -1.55105E+02 -2.64651E+03  3.29933E+03 -6.41218E+03  2.70474E+03 -1.03558E+04 -1.93037E+03
 -8.09447E+03 -1.11084E+04 -4.46741E+02 -1.57756E+04  1.01500E+04 -1.47473E+04  1.64012E+04 -4.53619E+03
  1.57283E+04  7.50781E+03  7.43498E+03  1.48495E+04 -2.87732E+03  1.63613E+04 -1.18281E+04  1.01647E+04
 -1.51234E+04  8.03707E+02 -1.14434E+04 -9.52967E+03 -8.44461E+02 -1.34700E+04  7.08714E+03 -1.00254E+04
  9.64274E+03 -3.05132E+03  7.30378E+03  3.14222E+03  2.19801E+03  4.71369E+03  1.28865E+03  2.52371E+03
  2.89482E+03  1.44043E+03  3.59776E+03  1.87863E+03  4.69088E+03  5.56306E+03  4.20577E+03  8.71706E+03
 -3.11116E+03  1.32250E+04 -1.16012E+04  1.28398E+04 -1.74764E+04  3.03074E+03 -1.68683E+04 -7.19077E+03
 -8.72957E+03 -1.66805E+04  2.10498E+03 -1.82709E+04  9.92107E+03 -1.16745E+04  1.34680E+04 -2.88760E+03
  1.00767E+04  6.30816E+03  2.58307E+03  9.70090E+03 -4.93170E+03  6.60175E+03 -6.60466E+03 -7.99855E+02
 -3.09250E+03 -7.21951E+03  3.78736E+03 -7.57918E+03  6.72795E+03 -3.11223E+03  6.42768E+03  1.64701E+03
  4.13361E+03  3.40352E+03  1.64399E+03  3.01183E+03 -6.76224E+02  2.42941E+03  1.78430E+03 -1.12932E+03
  2.53524E+03 -1.12445E+03  6.85163E+03  2.79494E+03  4.20340E+03  9.14270E+03 -1.61435E+03  1.17751E+04
 -8.41299E+03  8.04214E+03 -1.08017E+04  2.55563E+03 -9.56593E+03 -3.97184E+03 -3.61841E+03 -6.86981E+03
  1.11458E+03 -6.64042E+03  4.16574E+03 -3.01670E+03  3.45381E+03  3.06527E+03 -1.62228E+03  5.51406E+03
 -7.70001E+03  3.45068E+03 -8.04629E+03 -3.46342E+03 -4.84119E+03 -9.23045E+03  1.63785E+03 -9.58579E+03
  5.82528E+03 -5.69995E+03  7.33105E+03 -6.92184E+02  5.79309E+03  2.37624E+03  7.69561E+02  5.05620E+03
 -3.56852E+03  1.24406E+03 -4.41651E+03 -3.47842E+03  1.64342E+03 -7.42464E+03  8.73777E+03 -5.85422E+03
  1.11579E+04  8.08029E+02  1.06528E+04  7.55109E+03  3.62073E+03  1.19407E+04 -3.97977E+03  1.04506E+04
 -9.34228E+03  4.71707E+03 -9.83239E+03 -1.37164E+03 -4.93480E+03 -7.51195E+03  1.64368E+03 -7.01720E+03
  6.95902E+03 -3.55189E+03  5.56180E+03  3.11231E+03  2.17854E+03  5.87493E+03 -1.11977E+03  5.56159E+03
 -3.02359E+03  3.80335E+03 -2.53320E+03  1.30904E+03 -1.18864E+03  8.71955E+02 -1.84269E+03  2.13600E+03
 -2.71331E+03  4.38907E+03 -7.80677E+03  3.67826E+03 -1.13656E+04 -8.37661E+01 -1.33071E+04 -7.44505E+03
 -7.09686E+03 -1.52423E+04  3.41503E+03 -1.75740E+04  1.13794E+04 -1.38268E+04  1.64369E+04 -4.59748E+03
  1.56025E+04  3.13223E+03  9.78074E+03  1.05111E+04  1.24280E+03  1.21448E+04 -4.99928E+03  8.77866E+03
 -6.67661E+03  3.33471E+03 -4.40969E+03 -1.76110E+03 -1.99551E+03 -1.64400E+03 -1.06116E+03  3.84907E+02
 -1.92421E+03  1.59869E+02 -3.02634E+03 -7.90881E+02 -8.69619E+02 -2.91439E+03  2.32431E+02 -4.61705E+03
  5.24044E+03 -4.03057E+03  7.44145E+03 -1.47231E+02  8.71622E+03  6.46635E+03  2.33611E+03  1.20343E+04
 -5.24859E+03  1.35546E+04 -1.29398E+04  8.15857E+03 -1.50385E+04 -1.33674E+03 -1.11615E+04 -9.00342E+03
 -4.36053E+03 -1.25595E+04  3.27168E+03 -1.09753E+04  8.12423E+03 -6.22626E+03  8.32068E+03  1.74992E+02
  4.33215E+03  3.76872E+03 -4.67046E+02  3.61843E+03 -2.19094E+03 -1.91921E+02 -1.02257E+02 -3.21535E+03
  3.74425E+03 -1.73623E+03  4.81860E+03  1.49219E+03  3.53264E+03  4.81415E+03 -1.91709E+02  6.80840E+03
 -5.51011E+03  5.61957E+03 -8.59376E+03  6.15302E+02 -7.23261E+03 -5.47610E+03 -1.30676E+03 -1.05598E+04
  6.22142E+03 -8.79471E+03  9.76640E+03 -2.98363E+03  9.37770E+03  2.56835E+03  5.16791E+03  7.64076E+03
  8.49657E+02  8.66359E+03 -3.52524E+03  6.68380E+03 -5.27536E+03  3.61118E+03 -4.16922E+03  8.60765E+02
 -1.99842E+03 -2.32447E+02 -2.54090E+03  8.95058E+02 -4.34088E+03  1.21898E+03 -6.48792E+03 -1.29971E+03
 -5.80232E+03 -4.20671E+03 -2.03751E+03 -8.71863E+03  4.04713E+03 -8.50969E+03  7.64780E+03 -4.16610E+03
  8.64846E+03  1.08566E+03  4.66763E+03  6.28285E+03 -6.22125E+02  8.13835E+03 -6.26907E+03  5.14838E+03
