 $NMID ID='MM_0lb_SNR800_7hz_g60_62.RAW', FMTDAT='(8E13.5)'
 TRAMP=1., VOLUME=1. $END
  3.10067E+05  3.82833E+02  3.38641E+05  2.50847E+05  8.48068E+04  3.38551E+05 -1.32759E+05  2.51930E+05
 -1.91103E+05  8.41342E+04 -1.12908E+05 -3.22217E+04 -2.97828E+02 -5.05836E+04  5.37436E+04 -9.17229E+02
  3.57460E+04  5.32361E+04 -1.66944E+04  7.67789E+04 -6.16462E+04  6.51303E+04 -8.52709E+04  3.24574E+04
 -8.33260E+04 -1.14029E+04 -5.89944E+04 -5.29005E+04 -1.55935E+04 -7.16774E+04  2.84273E+04 -4.75693E+04
  4.19027E+04  3.46700E+03  1.68850E+04  4.92971E+04 -3.50123E+04  4.86976E+04 -6.92988E+04  2.34079E+02
 -5.57993E+04 -5.88365E+04 -7.48256E+03 -8.01079E+04  3.49997E+04 -5.78498E+04  5.07217E+04 -1.88784E+04
  4.63083E+04  1.17110E+04  3.36139E+04  2.73514E+04  1.60113E+04  3.14580E+04 -6.44826E+03  2.83171E+04
 -2.23419E+04  1.14688E+04 -1.74970E+04 -5.74191E+03  7.46713E+03 -7.37599E+03  2.41465E+04  1.47627E+04
  7.39988E+03  3.88128E+04 -3.43828E+04  3.76724E+04 -6.72162E+04  2.06319E+03 -5.99877E+04 -4.53151E+04
 -1.27906E+04 -6.76805E+04  4.26168E+04 -4.86941E+04  6.26713E+04 -2.84657E+03  3.80590E+04  3.53226E+04
 -5.43429E+03  4.19243E+04 -3.30571E+04  2.04905E+04 -3.50203E+04 -3.04934E+03 -2.11590E+04 -1.30432E+04
 -1.03786E+04 -1.67498E+04 -1.03359E+02 -2.10632E+04  8.77956E+03 -2.37594E+04  1.58859E+04 -1.17510E+04
  1.00336E+04  6.64078E+03 -1.22301E+04  1.29173E+04 -2.47484E+04 -7.67487E+03 -8.97191E+03 -3.95045E+04
  2.65761E+04 -4.89197E+04  5.41400E+04 -2.18196E+04  5.08571E+04  2.19472E+04  1.82998E+04  4.86096E+04
 -1.68297E+04  3.76808E+04 -2.90441E+04  3.10399E+03 -1.26382E+04 -3.05497E+04  2.18459E+04 -3.91424E+04
  4.71496E+04 -1.21001E+04  4.34606E+04  2.54779E+04  2.38766E+04  5.35367E+04 -8.63275E+03  5.95789E+04
 -3.80482E+04  4.12355E+04 -5.12267E+04  1.14898E+04 -5.05121E+04 -1.98758E+04 -2.75422E+04 -4.46311E+04
  8.08300E+03 -4.48219E+04  3.57283E+04 -1.84021E+04  3.35420E+04  1.09792E+04  5.77469E+03  2.19288E+04
 -1.43163E+04  1.06842E+04 -1.18338E+04 -7.83244E+03  5.43468E+03 -1.22532E+04  1.95118E+04  5.23220E+03
  1.56103E+04  2.28517E+04 -4.47667E+03  2.86081E+04 -2.36214E+04  1.60546E+04 -3.40285E+04 -1.56280E+03
 -2.85249E+04 -1.96857E+04 -1.35580E+04 -2.77783E+04  4.68190E+03 -2.93712E+04  2.28929E+04 -2.59601E+04
  3.59840E+04 -1.52054E+04  4.15616E+04  6.49197E+03  2.91286E+04  2.68089E+04  4.80830E+03  4.46863E+04
 -2.09628E+04  3.59819E+04 -3.20219E+04  1.20927E+04 -2.35621E+04 -1.02357E+04 -5.21283E+03 -1.24669E+04
  1.55082E+01 -1.06118E+01 -9.15125E+03  9.25354E+03 -2.27500E+04  4.95874E+03 -2.22251E+04 -1.10226E+04
 -1.31780E+04 -2.63490E+04  6.41192E+03 -3.05828E+04  2.06919E+04 -2.19596E+04  2.51105E+04 -2.23473E+03
  1.59821E+04  1.83840E+04 -1.58037E+03  2.60950E+04 -1.88088E+04  1.54183E+04 -2.67182E+04 -5.34816E+03
 -1.95228E+04 -2.34063E+04 -2.07046E+03 -3.11256E+04  1.41570E+04 -2.62507E+04  2.49208E+04 -1.39925E+04
  2.48357E+04 -5.34879E+02  1.78568E+04  5.77455E+03  9.88104E+03  1.60069E+03  1.39145E+04 -2.22368E+03
  2.45144E+04  2.78802E+03  2.95170E+04  2.01525E+04  2.03937E+04  4.22238E+04 -2.60098E+03  5.03431E+04
 -2.89215E+04  4.26274E+04 -4.81305E+04  2.22887E+04 -5.16996E+04 -3.88747E+03 -4.16945E+04 -3.05245E+04
 -1.58273E+04 -4.34031E+04  1.49780E+04 -3.76236E+04  3.21704E+04 -1.69729E+04  2.74729E+04  9.36673E+03
  9.02005E+03  2.17436E+04 -1.34547E+04  1.78926E+04 -2.26642E+04  2.88501E+03 -1.74458E+04 -1.44771E+04
 -7.34579E+02 -2.16909E+04  1.23543E+04 -1.58795E+04  1.56763E+04 -1.14584E+03  4.39941E+03  1.02005E+04
 -9.86348E+03  5.42099E+03 -1.11971E+04 -7.81874E+03 -3.34951E+03 -2.11558E+04  1.36036E+04 -2.33628E+04
  2.69516E+04 -1.39005E+04  3.13548E+04  3.51382E+03  2.78739E+04  2.19752E+04  1.28230E+04  3.47792E+04
 -7.37248E+03  3.71692E+04 -2.48014E+04  2.26663E+04 -2.75699E+04  4.58480E+03 -1.84985E+04 -7.44060E+03
 -6.96624E+03 -8.72818E+03 -6.61946E+02 -4.65597E+02 -3.07241E+03  4.16505E+03 -8.29172E+03  6.34061E+03
 -1.68586E+04 -9.21497E+02 -1.74124E+04 -1.37254E+04 -7.13745E+03 -2.28998E+04  7.32703E+03 -1.87586E+04
  1.56474E+04 -7.91661E+03  1.10136E+04  5.18766E+03 -6.43378E+02  7.59285E+03 -9.76209E+03 -7.54870E+01
 -9.27818E+03 -1.21205E+04 -1.69513E+03 -1.90508E+04  1.12732E+04 -1.98603E+04  2.38599E+04 -1.07343E+04
  2.81790E+04  3.46402E+03  2.01914E+04  1.76558E+04  4.07346E+03  2.36042E+04 -1.12140E+04  1.79937E+04
 -1.48303E+04  4.93070E+03 -7.63539E+03 -3.79702E+03  2.33441E+03 -5.72679E+03  9.80629E+03 -6.54949E+02
  9.18369E+03  8.34031E+03  1.27084E+03  1.54256E+04 -1.11940E+04  1.41471E+04 -1.88663E+04  3.48519E+03
 -1.30616E+04 -1.00827E+04  3.84099E+02 -1.61514E+04  1.16339E+04 -8.74296E+03  1.19689E+04  4.27195E+03
  3.29839E+03  1.25385E+04 -1.00461E+04  1.46641E+04 -1.71545E+04  6.48244E+03 -1.79604E+04 -6.69590E+03
 -1.03081E+04 -2.01679E+04  5.15132E+03 -2.35327E+04  1.94602E+04 -1.30591E+04  2.16403E+04  3.99980E+03
  1.20078E+04  1.66777E+04 -2.08072E+03  1.94072E+04 -1.42625E+04  1.08823E+04 -1.64036E+04 -1.66213E+03
 -1.25177E+04 -1.26607E+04 -1.80367E+03 -1.49911E+04  7.80601E+03 -1.20342E+04  9.54052E+03 -4.34077E+03
  6.00046E+03  3.49150E+03 -1.51061E+03  2.49581E+03 -1.24688E+03 -4.74736E+03  4.47162E+03 -1.00423E+04
  1.43752E+04 -6.86755E+03  2.13947E+04  1.84824E+03  2.02091E+04  1.43709E+04  1.29209E+04  2.71773E+04
 -6.81559E+03  3.05277E+04 -2.52177E+04  2.25021E+04 -3.30410E+04  4.35335E+03 -2.62801E+04 -1.21326E+04
 -1.31918E+04 -2.14888E+04 -4.15056E+02 -1.86158E+04  6.91931E+03 -1.14667E+04  6.80313E+03 -7.05776E+03
  5.14751E+03 -4.13176E+03  4.82774E+03 -4.67173E+03  6.96658E+03 -4.94738E+03  9.89087E+03 -2.59624E+03
  1.34498E+04  3.09931E+03  7.92135E+03  1.22408E+04 -2.26230E+03  1.50648E+04 -1.49888E+04  1.14881E+04
 -1.93778E+04 -1.52723E+03 -1.29616E+04 -1.34237E+04 -2.35239E+03 -2.05122E+04  1.14355E+04 -2.10458E+04
  2.20580E+04 -1.11557E+04  2.52825E+04  4.07076E+03  1.75586E+04  1.83134E+04  2.43255E+03  2.32841E+04
 -1.00705E+04  1.78758E+04 -1.36400E+04  6.48701E+03 -1.01632E+04 -1.86595E+03 -3.91155E+03 -3.12251E+03
 -2.13649E+03 -4.15588E+02 -3.67110E+03  3.16304E+03 -8.02419E+03  3.55613E+03 -1.28469E+04 -2.09151E+03
 -1.03272E+04 -1.32039E+04 -4.01560E+02 -1.93941E+04  1.21652E+04 -1.79546E+04  2.05484E+04 -5.23819E+03
  1.96102E+04  9.38682E+03  9.57623E+03  1.79624E+04 -4.32185E+03  1.99652E+04 -1.47891E+04  1.27109E+04
 -1.88500E+04  4.14434E+02 -1.43903E+04 -1.18315E+04 -1.49018E+03 -1.73122E+04  9.31493E+03 -1.25056E+04
  1.25384E+04 -3.70222E+03  9.16377E+03  3.57010E+03  3.25129E+03  5.91668E+03  1.92013E+03  3.05766E+03
  3.29169E+03  1.88407E+03  4.68007E+03  2.36560E+03  5.90456E+03  6.31442E+03  5.12374E+03  1.14248E+04
 -3.88709E+03  1.60203E+04 -1.41448E+04  1.55762E+04 -2.16568E+04  4.08575E+03 -2.20506E+04 -9.53980E+03
 -1.04103E+04 -2.07885E+04  2.86622E+03 -2.27625E+04  1.28882E+04 -1.50131E+04  1.72550E+04 -3.80013E+03
  1.30619E+04  7.66107E+03  2.98224E+03  1.19905E+04 -6.23850E+03  7.58345E+03 -8.63881E+03 -1.70197E+03
 -4.25619E+03 -9.00996E+03  5.04748E+03 -9.54099E+03  9.19636E+03 -4.53918E+03  8.83285E+03  1.82440E+03
  4.78048E+03  5.05959E+03  1.67845E+03  4.42533E+03 -1.22843E+03  2.89499E+03  1.43063E+03 -6.70391E+02
  3.37746E+03 -6.35485E+02  8.42295E+03  3.72163E+03  5.58003E+03  1.09637E+04 -1.38219E+03  1.45459E+04
 -1.02675E+04  1.00671E+04 -1.41169E+04  2.52476E+03 -1.18455E+04 -4.57369E+03 -5.08518E+03 -8.72431E+03
  1.46064E+03 -8.94826E+03  5.72352E+03 -3.81338E+03  5.19746E+03  4.42430E+03 -1.83408E+03  7.06586E+03
 -9.70365E+03  3.92471E+03 -1.05439E+04 -5.01567E+03 -5.64173E+03 -1.17930E+04  1.36594E+03 -1.22699E+04
  7.72891E+03 -7.69481E+03  9.09103E+03 -6.05763E+02  6.96058E+03  3.46692E+03  9.93100E+02  6.22239E+03
 -4.61352E+03  2.13184E+03 -5.49224E+03 -4.27036E+03  2.24338E+03 -9.58092E+03  1.09264E+04 -7.75305E+03
  1.47706E+04  9.22746E+02  1.32812E+04  9.60821E+03  3.81100E+03  1.50813E+04 -5.63210E+03  1.36911E+04
 -1.22327E+04  6.78903E+03 -1.22775E+04 -1.84234E+03 -6.78228E+03 -9.43045E+03  2.42222E+03 -9.25901E+03
  8.33836E+03 -4.38866E+03  7.86880E+03  3.89736E+03  3.15180E+03  8.15223E+03 -1.87917E+03  7.15570E+03
 -4.13177E+03  4.70491E+03 -3.41839E+03  2.09443E+03 -1.71465E+03  1.26883E+03 -1.97563E+03  2.43050E+03
 -3.71029E+03  5.30149E+03 -9.85372E+03  5.40725E+03 -1.47774E+04  5.50406E+02 -1.63516E+04 -1.00554E+04
 -8.66173E+03 -1.99165E+04  3.99216E+03 -2.28720E+04  1.48995E+04 -1.78989E+04  2.16659E+04 -6.73874E+03
  2.04678E+04  4.08910E+03  1.24534E+04  1.39124E+04  2.02193E+03  1.60117E+04 -6.36663E+03  1.17203E+04
 -9.49472E+03  4.69112E+03 -5.62427E+03 -1.75874E+03 -1.48854E+03 -1.71259E+03 -7.63715E+02 -4.40876E+02
 -2.06487E+03  1.75212E+02 -3.72359E+03 -9.00307E+02 -1.72547E+03 -3.92340E+03  3.12573E+02 -5.49690E+03
  6.65052E+03 -5.12612E+03  9.60932E+03  2.47191E+02  1.11931E+04  8.47822E+03  3.68279E+03  1.63225E+04
 -7.36296E+03  1.83744E+04 -1.70375E+04  1.06755E+04 -1.97347E+04 -1.84006E+03 -1.48828E+04 -1.22952E+04
 -5.94932E+03 -1.70122E+04  4.37942E+03 -1.53016E+04  1.05964E+04 -8.29956E+03  1.06163E+04  3.10221E+02
  5.82763E+03  5.40992E+03 -1.07558E+03  4.73559E+03 -3.46618E+03 -5.66627E+02 -3.13289E+02 -3.39060E+03
  4.82040E+03 -2.44676E+03  6.53821E+03  2.20791E+03  4.76478E+03  6.72858E+03 -3.53941E+02  9.60125E+03
 -7.20794E+03  7.48106E+03 -1.16465E+04  6.16026E+02 -1.02566E+04 -7.58287E+03 -1.66974E+03 -1.38107E+04
  7.66319E+03 -1.16891E+04  1.32542E+04 -4.09998E+03  1.29037E+04  3.79484E+03  7.37387E+03  1.03626E+04
  1.30447E+03  1.11265E+04 -4.56780E+03  8.91763E+03 -6.77054E+03  5.10787E+03 -6.00972E+03  9.30283E+02
 -3.24449E+03 -4.59559E+02 -3.01259E+03  1.49891E+03 -5.48820E+03  2.07675E+03 -8.87054E+03 -2.23456E+03
 -7.87437E+03 -6.42111E+03 -2.26690E+03 -1.16571E+04  4.72038E+03 -1.12564E+04  9.71376E+03 -5.34087E+03
  1.15087E+04  1.73187E+03  6.22286E+03  8.41778E+03 -8.49542E+02  1.15299E+04 -8.68815E+03  7.30246E+03
