 $NMID ID='MM_0lb_SNR800_10hz_g40_24.RAW', FMTDAT='(8E13.5)'
 TRAMP=1., VOLUME=1. $END
  3.09788E+05  5.74172E+02  3.37665E+05  2.50562E+05  8.46501E+04  3.38199E+05 -1.32704E+05  2.51373E+05
 -1.90186E+05  8.35468E+04 -1.12395E+05 -3.25756E+04  4.61334E+02 -5.06329E+04  5.39756E+04 -2.99673E+02
  3.58256E+04  5.29394E+04 -1.65803E+04  7.56434E+04 -6.12727E+04  6.41889E+04 -8.46329E+04  3.24565E+04
 -8.17465E+04 -1.15816E+04 -5.81975E+04 -5.20614E+04 -1.53325E+04 -7.02878E+04  2.74986E+04 -4.62945E+04
  4.07121E+04  3.94694E+03  1.64567E+04  4.85728E+04 -3.46021E+04  4.79075E+04 -6.74783E+04 -1.48749E+02
 -5.42605E+04 -5.72986E+04 -7.07482E+03 -7.81591E+04  3.44935E+04 -5.60610E+04  4.92233E+04 -1.75012E+04
  4.44377E+04  1.13037E+04  3.25963E+04  2.57008E+04  1.56972E+04  3.00512E+04 -5.75280E+03  2.74730E+04
 -2.22738E+04  1.22129E+04 -1.81122E+04 -5.39285E+03  6.30105E+03 -7.54517E+03  2.26427E+04  1.33476E+04
  7.18564E+03  3.65604E+04 -3.28208E+04  3.59441E+04 -6.45430E+04  1.93790E+03 -5.82964E+04 -4.36457E+04
 -1.25167E+04 -6.48503E+04  4.10760E+04 -4.65823E+04  6.00329E+04 -2.28359E+03  3.54908E+04  3.34003E+04
 -5.56378E+03  3.81374E+04 -3.10487E+04  1.78736E+04 -3.20795E+04 -3.81834E+03 -1.81807E+04 -1.15406E+04
 -9.11597E+03 -1.41267E+04 -6.75792E+02 -1.89994E+04  8.11356E+03 -2.31646E+04  1.58882E+04 -1.30371E+04
  1.08843E+04  6.01159E+03 -9.34726E+03  1.26028E+04 -2.24836E+04 -5.66213E+03 -8.69695E+03 -3.59763E+04
  2.44075E+04 -4.57303E+04  5.01977E+04 -2.04377E+04  4.71481E+04  2.03470E+04  1.63798E+04  4.59949E+04
 -1.66412E+04  3.50218E+04 -2.65096E+04  1.96934E+03 -1.09314E+04 -2.85231E+04  2.12227E+04 -3.56607E+04
  4.28053E+04 -1.01232E+04  3.83215E+04  2.45132E+04  2.03685E+04  4.87631E+04 -7.89982E+03  5.36483E+04
 -3.43413E+04  3.64365E+04 -4.51697E+04  1.05253E+04 -4.58977E+04 -1.79338E+04 -2.50502E+04 -4.06813E+04
  7.57606E+03 -4.02673E+04  3.30630E+04 -1.63963E+04  3.11122E+04  1.09610E+04  4.68649E+03  2.02591E+04
 -1.35170E+04  9.43114E+03 -1.11944E+04 -7.64724E+03  5.83188E+03 -1.11323E+04  1.84863E+04  5.78148E+03
  1.45402E+04  2.25693E+04 -5.35542E+03  2.67115E+04 -2.30652E+04  1.29338E+04 -3.01255E+04 -3.40181E+03
 -2.37439E+04 -1.81752E+04 -1.04127E+04 -2.28679E+04  4.20894E+03 -2.34051E+04  1.80413E+04 -2.12590E+04
  2.97856E+04 -1.34084E+04  3.56496E+04  3.98138E+03  2.56542E+04  2.27059E+04  4.32460E+03  3.95525E+04
 -1.87340E+04  3.23532E+04 -2.97241E+04  1.14083E+04 -2.16990E+04 -1.02672E+04 -4.74624E+03 -1.32575E+04
  1.04749E+03 -1.42970E+03 -6.54252E+03  7.66726E+03 -1.82343E+04  5.17644E+03 -1.83606E+04 -8.80703E+03
 -1.11170E+04 -2.15011E+04  5.40896E+03 -2.57411E+04  1.74895E+04 -1.83144E+04  2.08267E+04 -1.72558E+03
  1.33800E+04  1.49004E+04 -1.17196E+03  2.12273E+04 -1.52194E+04  1.24662E+04 -2.17091E+04 -4.32285E+03
 -1.61631E+04 -1.95623E+04 -2.15265E+03 -2.63165E+04  1.20631E+04 -2.14243E+04  2.14391E+04 -1.10976E+04
  2.06006E+04 -1.87132E+02  1.47648E+04  4.79656E+03  8.32520E+03  1.14875E+03  1.16156E+04 -2.10700E+03
  2.02737E+04  2.68025E+03  2.29904E+04  1.71302E+04  1.56808E+04  3.48518E+04 -3.19325E+03  4.04194E+04
 -2.34884E+04  3.33149E+04 -3.81878E+04  1.68786E+04 -4.01690E+04 -2.74574E+03 -3.30539E+04 -2.33570E+04
 -1.34195E+04 -3.34112E+04  1.17240E+04 -2.93811E+04  2.53465E+04 -1.45486E+04  2.21263E+04  6.73171E+03
  7.77346E+03  1.74012E+04 -1.06467E+04  1.44259E+04 -1.86427E+04  2.34630E+03 -1.41369E+04 -1.16682E+04
 -2.10038E+02 -1.74827E+04  9.56676E+03 -1.32799E+04  1.20519E+04 -1.27138E+03  2.79938E+03  7.82287E+03
 -7.79602E+03  3.64647E+03 -7.92453E+03 -6.35475E+03 -1.37345E+03 -1.60997E+04  1.10298E+04 -1.77042E+04
  2.04133E+04 -9.96811E+03  2.29243E+04  3.14148E+03  1.96556E+04  1.66930E+04  9.47900E+03  2.58288E+04
 -4.67796E+03  2.79424E+04 -1.79738E+04  1.70870E+04 -2.00409E+04  3.93383E+03 -1.38258E+04 -5.10438E+03
 -6.19523E+03 -6.43495E+03 -9.17498E+02  8.61404E+02 -3.67319E+03  2.82659E+03 -6.61479E+03  4.82624E+03
 -1.22578E+04 -8.43647E+02 -1.35809E+04 -1.08140E+04 -5.47096E+03 -1.76669E+04  5.76936E+03 -1.40536E+04
  1.21596E+04 -5.52478E+03  8.11344E+03  4.19403E+03  3.79017E+01  5.64464E+03 -6.74938E+03 -6.11833E+01
 -6.81993E+03 -9.26381E+03 -1.13722E+03 -1.34131E+04  7.90551E+03 -1.43545E+04  1.76753E+04 -7.57266E+03
  2.09808E+04  1.73699E+03  1.52180E+04  1.20747E+04  3.20647E+03  1.68331E+04 -8.77991E+03  1.39565E+04
 -1.15394E+04  3.96869E+03 -5.82827E+03 -3.22546E+03  2.09655E+03 -3.85901E+03  7.63056E+03 -1.21099E+03
  6.46050E+03  5.81922E+03  8.82713E+02  1.11867E+04 -8.12090E+03  1.07865E+04 -1.38651E+04  2.85884E+03
 -9.16614E+03 -7.39124E+03  4.77513E+02 -1.18740E+04  7.50440E+03 -5.63891E+03  7.95408E+03  2.51450E+03
  1.59424E+03  8.84862E+03 -7.71095E+03  1.00011E+04 -1.13666E+04  4.57461E+03 -1.15545E+04 -4.39801E+03
 -7.27743E+03 -1.35334E+04  3.17951E+03 -1.58571E+04  1.30841E+04 -9.29036E+03  1.46372E+04  2.77403E+03
  8.98010E+03  1.15912E+04 -9.36966E+02  1.38745E+04 -1.02599E+04  7.64782E+03 -1.13001E+04 -1.26030E+03
 -9.85943E+03 -8.82516E+03 -1.50456E+03 -1.02674E+04  5.41271E+03 -8.49863E+03  6.60994E+03 -4.13579E+03
  4.66974E+03  1.81172E+03 -7.79994E+02  2.04886E+03 -6.28557E+02 -2.89949E+03  1.95838E+03 -5.99469E+03
  9.78003E+03 -3.73820E+03  1.34493E+04  1.33396E+03  1.36282E+04  8.94463E+03  9.07821E+03  1.77033E+04
 -4.15873E+03  2.06004E+04 -1.71542E+04  1.49770E+04 -2.23344E+04  2.78310E+03 -1.78041E+04 -7.97414E+03
 -8.87776E+03 -1.45505E+04 -4.47810E+02 -1.26362E+04  4.58245E+03 -6.69298E+03  4.63683E+03 -4.23102E+03
  3.24567E+03 -2.70080E+03  3.88888E+03 -3.61042E+03  4.96343E+03 -3.14621E+03  7.14943E+03 -7.72860E+02
  9.32458E+03  2.02155E+03  4.57887E+03  8.08343E+03 -2.05199E+03  8.69274E+03 -9.85343E+03  7.13296E+03
 -1.25131E+04 -1.37643E+03 -7.48876E+03 -9.11138E+03 -1.19266E+03 -1.33822E+04  7.28717E+03 -1.30446E+04
  1.36964E+04 -7.71671E+03  1.65568E+04  1.99967E+03  1.13110E+04  1.13549E+04  1.58474E+03  1.52016E+04
 -6.01330E+03  1.24455E+04 -8.84590E+03  4.27799E+03 -6.01175E+03 -1.22196E+03 -2.25201E+03 -1.89341E+03
 -1.01078E+03 -2.21087E+02 -2.17996E+03  2.82950E+03 -5.44016E+03  2.57280E+03 -8.53650E+03 -1.25402E+03
 -5.99445E+03 -9.12770E+03  3.50216E+02 -1.23669E+04  7.41760E+03 -1.11639E+04  1.21494E+04 -2.97388E+03
  1.28590E+04  6.18208E+03  5.77267E+03  1.06458E+04 -2.12723E+03  1.26669E+04 -8.95443E+03  7.52590E+03
 -1.16136E+04  6.72326E+02 -8.73323E+03 -7.63768E+03 -9.37491E+02 -1.06741E+04  5.17456E+03 -7.49383E+03
  7.99486E+03 -2.51966E+03  5.47388E+03  2.16169E+03  1.81196E+03  3.76258E+03  1.17620E+03  1.87314E+03
  2.46398E+03  9.32784E+02  2.89260E+03  2.00509E+03  3.58042E+03  4.46371E+03  3.53237E+03  6.49372E+03
 -2.77959E+03  9.96590E+03 -8.44714E+03  9.90044E+03 -1.23042E+04  2.68322E+03 -1.29767E+04 -5.07858E+03
 -6.25729E+03 -1.25695E+04  1.59137E+03 -1.37245E+04  7.33969E+03 -8.63030E+03  9.99746E+03 -2.22775E+03
  8.13806E+03  4.81226E+03  1.80468E+03  7.37765E+03 -3.59001E+03  4.68955E+03 -4.93018E+03 -7.55570E+02
 -2.13121E+03 -5.23369E+03  3.16036E+03 -5.28994E+03  5.33224E+03 -2.64013E+03  5.28562E+03  1.30738E+03
  2.66268E+03  2.62709E+03  1.78601E+03  1.72207E+03 -8.12676E+02  1.78249E+03  1.84233E+03 -8.04957E+02
  1.59985E+03 -9.97373E+02  5.01160E+03  2.04141E+03  2.48516E+03  6.55426E+03 -1.14707E+03  8.69572E+03
 -5.71772E+03  5.62297E+03 -7.92291E+03  1.53025E+03 -6.77051E+03 -2.74295E+03 -2.89134E+03 -4.48162E+03
  9.29558E+02 -4.84531E+03  3.10955E+03 -2.38589E+03  2.90016E+03  2.57971E+03 -1.19437E+03  4.12420E+03
 -5.24023E+03  2.67505E+03 -5.44856E+03 -3.00120E+03 -3.34134E+03 -7.22363E+03  1.05306E+03 -6.92226E+03
  4.12402E+03 -3.94524E+03  4.86485E+03 -2.44998E+02  4.55688E+03  1.38624E+03  9.05306E+02  3.65552E+03
 -2.40550E+03  1.11144E+03 -2.79899E+03 -1.97649E+03  1.48131E+03 -5.21190E+03  6.16424E+03 -4.14157E+03
  7.43552E+03  2.63570E+02  7.41676E+03  5.21816E+03  2.45049E+03  8.08602E+03 -2.98292E+03  7.97538E+03
 -6.51392E+03  3.21269E+03 -6.52650E+03 -9.59368E+02 -3.53197E+03 -5.17353E+03  1.25605E+03 -5.12352E+03
  5.13410E+03 -2.42007E+03  3.99086E+03  2.50921E+03  1.37852E+03  4.36759E+03 -4.89489E+02  3.79298E+03
 -2.01983E+03  2.77716E+03 -1.80442E+03  7.12356E+02 -9.57325E+02  8.52247E+02 -1.28647E+03  1.53068E+03
 -1.90279E+03  3.34376E+03 -5.58838E+03  2.73424E+03 -7.70955E+03 -4.64914E+01 -9.04627E+03 -5.27707E+03
 -4.52585E+03 -1.06806E+04  1.94119E+03 -1.23830E+04  7.45397E+03 -9.50039E+03  1.16436E+04 -3.23674E+03
  1.07576E+04  2.12619E+03  6.82650E+03  7.32431E+03  6.93473E+02  8.36124E+03 -3.58953E+03  6.06859E+03
 -4.41720E+03  2.36465E+03 -2.66392E+03 -1.22276E+03 -1.22107E+03 -7.71692E+02 -7.07312E+02 -1.96686E+01
 -1.57483E+03  3.23057E+02 -1.94151E+03 -2.87258E+02 -3.21761E+02 -1.76722E+03  3.82476E+02 -3.13276E+03
  4.00821E+03 -2.88274E+03  4.90388E+03  4.48412E+02  5.35347E+03  4.42689E+03  1.29287E+03  8.04374E+03
 -3.95723E+03  9.57992E+03 -8.87053E+03  5.62847E+03 -9.68604E+03 -7.48871E+02 -7.37823E+03 -6.65297E+03
 -3.05318E+03 -8.58353E+03  1.92551E+03 -7.51070E+03  5.16379E+03 -4.08833E+03  5.22914E+03  9.34519E+01
  2.95937E+03  2.51696E+03 -3.88108E+02  2.05678E+03 -1.45414E+03  7.48759E+01  2.36904E+02 -2.02326E+03
  2.60689E+03 -1.04518E+03  3.39454E+03  1.20995E+03  1.69388E+03  3.68481E+03  1.37920E+02  4.48027E+03
 -3.79819E+03  3.63119E+03 -5.45815E+03  1.68377E+02 -4.86121E+03 -3.91271E+03 -4.73325E+02 -6.68368E+03
  3.71016E+03 -5.60371E+03  6.15785E+03 -1.81517E+03  6.09511E+03  1.22810E+03  3.83946E+03  5.13977E+03
  8.56338E+02  5.35549E+03 -1.91119E+03  4.35182E+03 -3.25552E+03  2.33457E+03 -2.82740E+03  5.09833E+01
 -1.27287E+03 -3.13434E+02 -1.88336E+03  7.65947E+02 -3.11274E+03  4.81361E+02 -4.46268E+03 -9.37254E+02
 -4.17322E+03 -2.87189E+03 -1.27456E+03 -5.60104E+03  2.72167E+03 -5.73165E+03  5.05001E+03 -2.85275E+03
  5.15029E+03  6.41824E+02  2.56525E+03  3.39379E+03 -2.18595E+02  5.52906E+03 -4.13485E+03  3.68238E+03
