 $NMID ID='MM_0lb_SNR800_20hz_g50_37.RAW', FMTDAT='(8E13.5)'
 TRAMP=1., VOLUME=1. $END
  3.09823E+05  1.02223E+02  3.37217E+05  2.50450E+05  8.43686E+04  3.37349E+05 -1.32293E+05  2.49954E+05
 -1.89640E+05  8.24793E+04 -1.10932E+05 -3.28927E+04  1.57985E+03 -5.02881E+04  5.41121E+04 -1.08584E+02
  3.50639E+04  5.28473E+04 -1.69975E+04  7.46238E+04 -6.04769E+04  6.24164E+04 -8.29276E+04  3.12086E+04
 -7.94273E+04 -1.10360E+04 -5.61617E+04 -5.01441E+04 -1.50890E+04 -6.81040E+04  2.63825E+04 -4.45865E+04
  3.90832E+04  4.06657E+03  1.54196E+04  4.69180E+04 -3.38081E+04  4.62894E+04 -6.53323E+04 -4.19833E+02
 -5.18942E+04 -5.58853E+04 -6.11683E+03 -7.50568E+04  3.29814E+04 -5.28977E+04  4.58936E+04 -1.62690E+04
  4.13054E+04  1.11682E+04  3.07350E+04  2.42537E+04  1.55927E+04  2.81529E+04 -4.69131E+03  2.65636E+04
 -2.16646E+04  1.29402E+04 -1.92831E+04 -4.32616E+03  4.27055E+03 -7.53153E+03  2.11219E+04  1.09371E+04
  7.43632E+03  3.30473E+04 -3.01310E+04  3.35234E+04 -6.06993E+04  2.32525E+03 -5.52026E+04 -4.08073E+04
 -1.23024E+04 -6.02064E+04  3.80137E+04 -4.29530E+04  5.48903E+04 -1.97531E+03  3.17509E+04  3.02567E+04
 -6.52219E+03  3.26474E+04 -2.82794E+04  1.29817E+04 -2.71263E+04 -5.42541E+03 -1.41937E+04 -1.00780E+04
 -7.25805E+03 -1.12637E+04 -1.22736E+03 -1.63408E+04  6.50737E+03 -2.23950E+04  1.49010E+04 -1.42519E+04
  1.23328E+04  3.84071E+03 -6.15063E+03  1.29664E+04 -1.90098E+04 -2.17139E+03 -7.74205E+03 -2.99557E+04
  2.04122E+04 -4.02386E+04  4.38424E+04 -1.83897E+04  4.13768E+04  1.80019E+04  1.39761E+04  4.10360E+04
 -1.52508E+04  3.07135E+04 -2.29879E+04  7.85618E+02 -7.77947E+03 -2.61870E+04  2.02648E+04 -3.06907E+04
  3.75733E+04 -7.08112E+03  3.06984E+04  2.26045E+04  1.48061E+04  4.17517E+04 -7.61947E+03  4.42871E+04
 -2.76532E+04  2.91192E+04 -3.64325E+04  8.00791E+03 -3.76194E+04 -1.48020E+04 -2.10649E+04 -3.39039E+04
  6.86431E+03 -3.36692E+04  2.87099E+04 -1.21775E+04  2.65624E+04  1.09277E+04  2.92453E+03  1.75542E+04
 -1.31473E+04  7.11849E+03 -9.31745E+03 -7.86339E+03  6.25349E+03 -9.94921E+03  1.71548E+04  6.60134E+03
  1.18800E+04  2.14028E+04 -6.86065E+03  2.28636E+04 -2.15365E+04  8.95847E+03 -2.44391E+04 -6.52002E+03
 -1.59947E+04 -1.65004E+04 -5.25330E+03 -1.59241E+04  3.85202E+03 -1.36997E+04  1.18483E+04 -1.40152E+04
  2.04331E+04 -1.14881E+04  2.72682E+04  8.10731E+02  2.06919E+04  1.55184E+04  4.06990E+03  3.18818E+04
 -1.56877E+04  2.70168E+04 -2.53835E+04  9.18391E+03 -1.96435E+04 -1.03698E+04 -3.84138E+03 -1.37941E+04
  2.57516E+03 -4.58568E+03 -2.33510E+03  5.04315E+03 -1.22853E+04  5.24750E+03 -1.27383E+04 -4.47231E+03
 -8.34628E+03 -1.45592E+04  4.16547E+03 -1.82966E+04  1.21853E+04 -1.37362E+04  1.39646E+04 -1.25179E+03
  8.46675E+03  1.04103E+04 -8.30662E+02  1.50974E+04 -9.81975E+03  8.51687E+03 -1.45219E+04 -3.35334E+03
 -1.10355E+04 -1.36908E+04 -1.42824E+03 -1.81852E+04  8.49158E+03 -1.44753E+04  1.53714E+04 -6.91501E+03
  1.40453E+04  6.40650E+02  9.91959E+03  3.86023E+03  4.76902E+03  6.17089E+02  6.84406E+03 -1.29931E+03
  1.32382E+04  2.58285E+03  1.37766E+04  1.23161E+04  8.41305E+03  2.34670E+04 -3.06098E+03  2.48402E+04
 -1.48421E+04  1.89695E+04 -2.27113E+04  8.68104E+03 -2.32835E+04 -1.71332E+03 -2.02982E+04 -1.31607E+04
 -9.77441E+03 -1.88416E+04  5.99688E+03 -1.79182E+04  1.54213E+04 -1.06408E+04  1.47114E+04  3.25226E+03
  6.49557E+03  1.07787E+04 -6.57382E+03  1.01179E+04 -1.28715E+04  2.40631E+03 -1.01078E+04 -7.61250E+03
 -4.71440E+01 -1.18611E+04  5.59429E+03 -8.87267E+03  7.39746E+03 -1.18418E+03  9.69009E+02  4.60199E+03
 -5.23045E+03  1.08306E+03 -3.10880E+03 -4.48959E+03  7.95842E+02 -9.46324E+03  7.30988E+03 -9.21537E+03
  1.11162E+04 -3.90495E+03  1.08203E+04  2.52692E+03  9.19726E+03  8.44547E+03  4.54716E+03  1.25706E+04
 -1.34045E+03  1.44955E+04 -8.76276E+03  9.48921E+03 -1.01768E+04  2.86588E+03 -7.73019E+03 -1.46554E+03
 -4.37677E+03 -2.99692E+03 -6.87173E+02  1.65203E+03 -1.85144E+03  2.10635E+03 -3.35572E+03  3.39980E+03
 -7.48126E+03 -4.25619E+02 -8.47350E+03 -6.98572E+03 -3.45392E+03 -1.07108E+04  2.97382E+03 -7.60216E+03
  6.56857E+03 -3.29313E+03  4.72447E+03  1.97790E+03  1.07090E+03  2.82409E+03 -2.98655E+03 -1.20947E+02
 -3.04384E+03 -4.76159E+03 -8.43732E+02 -6.50025E+03  3.40760E+03 -7.06479E+03  9.03546E+03 -3.50848E+03
  1.04881E+04  4.68829E+02  8.00204E+03  5.33778E+03  1.70415E+03  7.63057E+03 -4.85084E+03  7.67082E+03
 -6.60942E+03  2.60738E+03 -3.40051E+03 -1.12244E+03  1.12536E+03 -1.68066E+03  4.55219E+03 -9.97880E+02
  3.73930E+03  3.00956E+03  1.20231E+03  5.61456E+03 -3.97326E+03  5.98264E+03 -7.35270E+03  1.60381E+03
 -4.12834E+03 -3.00336E+03  5.80688E+02 -6.03484E+03  3.41918E+03 -2.78986E+03  3.06865E+03  7.30839E+02
  4.08482E+02  2.68357E+03 -3.57809E+03  3.93874E+03 -3.97077E+03  2.07288E+03 -3.80190E+03 -8.80198E+02
 -2.44495E+03 -5.01022E+03  7.88051E+02 -5.79233E+03  5.37071E+03 -4.06709E+03  5.60360E+03  9.33198E+02
  4.29006E+03  4.47378E+03  1.90479E+02  6.72096E+03 -4.53567E+03  3.72283E+03 -4.54503E+03 -5.07828E+02
 -5.24778E+03 -4.84580E+03 -1.49301E+03 -4.41261E+03  2.14943E+03 -4.13838E+03  2.62108E+03 -2.98104E+03
  2.65327E+03  1.31299E+02  1.49127E+02  1.23162E+03  6.96662E+02  2.41906E+01 -1.43668E+02 -1.29276E+03
  2.92144E+03 -4.65968E+02  4.33867E+03  4.05349E+02  4.57134E+03  2.30572E+03  4.90913E+03  6.04935E+03
 -1.20769E+03  7.22330E+03 -6.77555E+03  5.55123E+03 -8.50881E+03  8.26028E+02 -6.77577E+03 -2.01782E+03
 -3.72708E+03 -5.75776E+03 -4.34265E+02 -4.18750E+03  1.77859E+03 -1.58167E+03  1.48530E+03 -1.77571E+03
  1.06699E+03 -1.40424E+03  2.06348E+03 -2.25166E+03  3.36396E+03 -1.24125E+03  3.39540E+03  8.68495E+02
  4.09896E+03  1.11931E+03  7.00523E+02  2.84186E+03 -1.51117E+03  2.00183E+03 -3.90779E+03  2.24671E+03
 -4.18891E+03 -7.43025E+02 -1.20692E+03 -2.68648E+03  5.42911E+02 -4.21174E+03  2.69179E+03 -4.61754E+03
  3.97918E+03 -3.01573E+03  5.68678E+03  8.03796E+01  4.14066E+03  3.36500E+03  1.13529E+03  4.96402E+03
 -1.59968E+03  5.31506E+03 -2.91376E+03  1.55418E+03 -1.79457E+03 -1.02028E+03 -4.12244E+02 -2.12660E+02
 -5.15319E+02  3.02652E+02 -8.25923E+02  1.64953E+03 -2.22415E+03  1.29089E+03 -3.79236E+03 -4.32733E+02
 -1.18100E+03 -3.78312E+03  6.89672E+02 -3.72737E+03  2.21353E+03 -3.74052E+03  2.54911E+03 -1.00965E+03
  3.04603E+03  1.83823E+03  1.59522E+03  2.49427E+03 -7.56186E+02  3.79261E+03 -1.86782E+03  1.84024E+03
 -2.99173E+03  7.90648E+02 -2.88476E+03 -2.02644E+03 -1.25809E+02 -2.33592E+03  1.44459E+03 -1.93079E+03
  2.21057E+03 -1.35468E+03  1.58901E+03  4.37924E+02  3.92197E+02  1.31123E+03  8.15621E+02  2.50743E+02
  1.61411E+03  7.22559E+02  9.86504E+02  9.89804E+02  9.17837E+02  2.08385E+03  1.37122E+03  1.17545E+03
 -9.87943E+02  2.20096E+03 -2.02023E+03  3.59769E+03 -2.13158E+03  8.62625E+02 -3.13253E+03 -1.21237E+02
 -1.19915E+03 -2.60204E+03  4.91269E+02 -3.61820E+03  1.33521E+03 -1.94619E+03  2.34384E+03 -7.82092E+02
  1.80949E+03  1.76065E+03  3.31387E+02  1.67645E+03 -4.44621E+02  8.05340E+02 -7.26766E+02  2.33708E+01
 -5.86822E+02 -1.17782E+03  1.22194E+03 -1.08127E+03  1.02247E+03 -9.80096E+02  1.02594E+03  3.51156E+02
  7.88769E+02 -4.85298E+01  7.72843E+02 -4.03770E+02 -2.97824E+02  7.83630E+02  1.83769E+03 -4.10350E+01
  2.07416E+02 -1.87560E+02  1.45402E+03  5.55656E+02  6.23204E+01  1.88890E+03 -3.92826E+02  2.15343E+03
 -1.19801E+03  7.89723E+02 -1.50251E+03  4.17808E+02 -1.60373E+03 -6.90181E+02  2.10611E+02 -5.82939E+02
  2.52515E+02 -1.01449E+03  5.92748E+02 -4.25560E+02  4.59813E+02  1.13206E+03 -7.49076E+02  7.31720E+02
 -1.22388E+03  5.39813E+02 -5.82478E+02 -9.26035E+02 -3.90781E+02 -1.62091E+03  2.17193E+02 -9.75508E+02
  1.40891E+02 -1.17094E+02  2.36133E+02 -6.98481E+00  9.65267E+02 -2.25700E+02  2.30411E+02  9.73634E+02
 -1.09823E+02 -1.03843E+02 -4.52179E+02 -7.88804E+01  6.04607E+02 -4.04343E+02  1.07077E+03 -6.57170E+02
  7.86607E+02  1.57228E+02  2.44480E+03  5.23504E+02  9.90918E+02  1.21778E+03 -2.47785E+02  1.53433E+03
 -9.20999E+02 -1.20298E+02 -1.00575E+03 -2.01081E+02 -6.85757E+02 -1.00617E+03  4.01651E+02 -8.21656E+01
  1.45419E+03 -6.96754E+02  5.38175E+02  4.03385E+02  6.81176E+01  1.05913E+03  4.84645E+02  1.31737E+03
 -1.30554E+02  1.16794E+03 -1.70815E+02  4.37861E+02  1.67610E+02  4.96111E+02 -4.58244E+02  4.23294E+02
 -7.22073E+02  9.90418E+02 -1.56202E+03  1.52162E+02 -1.17584E+03 -2.50072E+01 -2.00078E+03 -4.61132E+02
 -4.99724E+02 -1.66521E+03  3.60473E+02 -2.10289E+03  7.11660E+02 -2.05645E+03  2.07777E+03 -5.50262E+02
  1.85357E+03 -1.02208E+02  6.18862E+02  8.86619E+02 -7.92446E+02  9.08817E+02 -4.52423E+02  8.48657E+02
 -7.38321E+02  7.16953E+02 -3.32643E+02 -9.60669E+01 -4.24528E+02  2.14310E+02 -7.06463E+02 -1.75677E+01
 -8.42022E+02  7.53083E+01 -7.21011E+02  1.34238E+01  3.26423E+02 -5.09702E+02 -2.71322E+02 -8.78165E+02
  1.01878E+03 -3.58959E+02  1.00436E+02  2.24306E+02  7.82454E+02  7.42832E+02 -5.28249E+02  9.52906E+02
 -5.70018E+02  1.75284E+03 -8.16175E+02  1.06579E+03 -9.44561E+02 -2.49741E+02 -9.12398E+02 -8.17176E+02
 -7.64950E+02 -8.86676E+02  7.94943E+01 -8.25656E+02  2.83454E+02 -3.21219E+02  1.64301E+02  2.14041E+02
  6.02786E+02  6.45079E+01  1.35210E+02  3.32034E+02 -2.83664E+02  8.24756E+00  1.30272E+02  5.09520E+01
  5.34972E+01  1.34407E+02 -4.05673E+01  4.23693E+01 -1.27181E+00  2.36307E+02  2.73793E+02  1.10931E+02
 -2.01777E+02  4.03059E+02 -4.21008E+02 -2.39022E+01 -5.15804E+02 -9.12396E+01  1.47554E+01 -8.56410E+02
  3.46162E+02 -4.16715E+02  2.06647E+02 -6.89000E+01  2.81073E+02 -9.77597E+02  4.81378E+02  2.89049E+02
  3.60949E+02  3.19085E+02 -2.33177E+02  2.70946E+02 -3.06143E+02  2.37108E+02 -1.22061E+02  1.39840E+02
  8.99667E+01 -2.93489E+02 -2.59634E+02 -8.43537E+01 -5.57634E+02  4.64920E+01 -5.81713E+02 -2.10965E+02
 -7.98179E+02  2.13321E+02 -1.96111E+02 -8.46469E+02  6.71624E+02 -1.31717E+03  1.59820E+02 -2.08763E+02
  4.83305E+02 -5.00774E+01 -5.67003E+02  3.00723E+01  1.89362E+02  2.32885E+02 -1.65910E+02  4.52336E+02
