 $NMID ID='MM_0lb_SNR800_10hz_g40_68.RAW', FMTDAT='(8E13.5)'
 TRAMP=1., VOLUME=1. $END
  3.09796E+05  1.95249E+02  3.37652E+05  2.51043E+05  8.49418E+04  3.38601E+05 -1.32602E+05  2.51872E+05
 -1.90521E+05  8.36027E+04 -1.12309E+05 -3.27076E+04  4.65463E+02 -5.09674E+04  5.40221E+04 -1.15221E+02
  3.53869E+04  5.28734E+04 -1.63724E+04  7.55126E+04 -6.09429E+04  6.39758E+04 -8.45912E+04  3.21460E+04
 -8.16971E+04 -1.14491E+04 -5.77247E+04 -5.17090E+04 -1.48912E+04 -7.04289E+04  2.79498E+04 -4.59766E+04
  4.08646E+04  3.91877E+03  1.63205E+04  4.81263E+04 -3.44165E+04  4.79493E+04 -6.73910E+04 -3.86498E+01
 -5.41752E+04 -5.76159E+04 -6.85033E+03 -7.81712E+04  3.44003E+04 -5.61414E+04  4.87693E+04 -1.79679E+04
  4.41703E+04  1.15255E+04  3.23492E+04  2.62027E+04  1.59880E+04  3.00365E+04 -5.43898E+03  2.71396E+04
 -2.22451E+04  1.19921E+04 -1.85599E+04 -5.64614E+03  6.33180E+03 -7.12957E+03  2.29278E+04  1.33012E+04
  7.32412E+03  3.63179E+04 -3.30386E+04  3.63724E+04 -6.47961E+04  2.13104E+03 -5.78865E+04 -4.38508E+04
 -1.26598E+04 -6.48849E+04  4.05716E+04 -4.65836E+04  5.98817E+04 -2.35310E+03  3.54297E+04  3.35755E+04
 -5.64730E+03  3.82580E+04 -3.08690E+04  1.78504E+04 -3.21118E+04 -4.10325E+03 -1.80735E+04 -1.17670E+04
 -8.95457E+03 -1.46083E+04 -9.36574E+02 -1.91634E+04  7.97203E+03 -2.29614E+04  1.57399E+04 -1.31364E+04
  1.08488E+04  6.03365E+03 -8.99564E+03  1.30408E+04 -2.22586E+04 -5.93215E+03 -8.30903E+03 -3.59968E+04
  2.40876E+04 -4.52900E+04  5.05368E+04 -2.04507E+04  4.70507E+04  2.05322E+04  1.62357E+04  4.60032E+04
 -1.61528E+04  3.48703E+04 -2.68150E+04  2.52399E+03 -1.10902E+04 -2.90301E+04  2.12557E+04 -3.56065E+04
  4.31856E+04 -1.04204E+04  3.81553E+04  2.45502E+04  1.99417E+04  4.93384E+04 -8.21498E+03  5.36270E+04
 -3.34323E+04  3.65582E+04 -4.52664E+04  1.06289E+04 -4.52959E+04 -1.79450E+04 -2.51244E+04 -4.03499E+04
  7.90192E+03 -4.06716E+04  3.31568E+04 -1.60888E+04  3.09326E+04  1.06923E+04  4.60663E+03  2.03569E+04
 -1.39223E+04  9.62322E+03 -1.09489E+04 -7.71031E+03  5.77592E+03 -1.10320E+04  1.83149E+04  5.73486E+03
  1.43581E+04  2.25577E+04 -5.45385E+03  2.60385E+04 -2.28330E+04  1.29477E+04 -3.02394E+04 -3.77537E+03
 -2.34952E+04 -1.79033E+04 -1.02268E+04 -2.31541E+04  4.01088E+03 -2.31679E+04  1.80535E+04 -2.12584E+04
  3.00522E+04 -1.37730E+04  3.54571E+04  4.22626E+03  2.57720E+04  2.26319E+04  4.45203E+03  3.95136E+04
 -1.90009E+04  3.25933E+04 -2.94715E+04  1.12966E+04 -2.15885E+04 -1.03415E+04 -4.78497E+03 -1.31371E+04
  9.73859E+02 -1.81638E+03 -6.30448E+03  7.74094E+03 -1.86081E+04  4.96860E+03 -1.84333E+04 -8.69749E+03
 -1.16184E+04 -2.15023E+04  5.40025E+03 -2.58511E+04  1.69373E+04 -1.82356E+04  2.08122E+04 -1.92641E+03
  1.32200E+04  1.49089E+04 -1.36140E+03  2.17146E+04 -1.53630E+04  1.22567E+04 -2.22322E+04 -4.61565E+03
 -1.62537E+04 -1.95721E+04 -2.05887E+03 -2.58159E+04  1.18711E+04 -2.16219E+04  2.13644E+04 -1.10720E+04
  2.02242E+04  3.21051E+02  1.47083E+04  4.68234E+03  8.16537E+03  1.29271E+03  1.10411E+04 -1.86809E+03
  2.04378E+04  2.91995E+03  2.35151E+04  1.75780E+04  1.57165E+04  3.48121E+04 -2.82867E+03  4.04107E+04
 -2.31153E+04  3.33371E+04 -3.83729E+04  1.73045E+04 -4.04408E+04 -2.67664E+03 -3.25898E+04 -2.32990E+04
 -1.32103E+04 -3.38056E+04  1.14501E+04 -2.95574E+04  2.53862E+04 -1.44312E+04  2.24433E+04  6.65059E+03
  7.73159E+03  1.74296E+04 -1.03443E+04  1.40685E+04 -1.88365E+04  2.44179E+03 -1.45711E+04 -1.21539E+04
 -1.50208E+02 -1.76328E+04  9.35226E+03 -1.30992E+04  1.21292E+04 -1.44930E+03  2.48751E+03  7.82975E+03
 -8.13474E+03  3.03532E+03 -7.63775E+03 -6.23960E+03 -1.05475E+03 -1.64400E+04  1.09480E+04 -1.78467E+04
  2.06087E+04 -1.01754E+04  2.32461E+04  2.86788E+03  1.97814E+04  1.67985E+04  9.00798E+03  2.56484E+04
 -4.29890E+03  2.79181E+04 -1.80291E+04  1.71550E+04 -2.03625E+04  3.66134E+03 -1.35924E+04 -4.85793E+03
 -5.98074E+03 -6.60145E+03 -4.73273E+02  4.47652E+02 -2.61942E+03  3.22038E+03 -6.50505E+03  5.13021E+03
 -1.28436E+04 -8.31173E+02 -1.34008E+04 -1.12496E+04 -5.14628E+03 -1.75899E+04  5.93547E+03 -1.40051E+04
  1.13565E+04 -5.91795E+03  8.06438E+03  4.32296E+03 -9.38025E+01  5.47870E+03 -6.53178E+03 -1.36325E+02
 -6.69101E+03 -8.94975E+03 -8.45099E+02 -1.39719E+04  7.91828E+03 -1.46412E+04  1.78864E+04 -7.68939E+03
  2.08049E+04  2.04793E+03  1.48497E+04  1.22736E+04  2.87512E+03  1.66580E+04 -8.66136E+03  1.37130E+04
 -1.14126E+04  4.01941E+03 -5.96680E+03 -2.71776E+03  1.96399E+03 -3.71079E+03  7.01839E+03 -1.22592E+03
  6.64116E+03  6.14640E+03  1.38870E+03  1.15266E+04 -8.12937E+03  1.07284E+04 -1.39428E+04  2.51512E+03
 -9.43807E+03 -7.62042E+03  6.50625E+02 -1.19204E+04  7.71630E+03 -6.10009E+03  8.09164E+03  2.69577E+03
  1.79536E+03  8.50156E+03 -7.19739E+03  9.66604E+03 -1.15299E+04  4.54249E+03 -1.19364E+04 -3.91109E+03
 -7.03672E+03 -1.37497E+04  3.08937E+03 -1.54695E+04  1.35197E+04 -9.83978E+03  1.44360E+04  2.38722E+03
  8.99403E+03  1.15747E+04 -9.47112E+02  1.38246E+04 -9.97846E+03  7.32879E+03 -1.13073E+04 -7.79169E+02
 -9.28148E+03 -9.58247E+03 -1.70033E+03 -1.03494E+04  5.78448E+03 -8.60791E+03  7.10962E+03 -3.41074E+03
  4.61190E+03  1.60647E+03 -8.07153E+02  1.76123E+03 -6.91963E+02 -2.88792E+03  2.54492E+03 -6.44623E+03
  1.00727E+04 -4.08012E+03  1.33930E+04  1.23116E+03  1.35151E+04  9.15383E+03  9.04852E+03  1.76970E+04
 -3.54492E+03  2.03576E+04 -1.71153E+04  1.50325E+04 -2.21404E+04  3.02602E+03 -1.75087E+04 -7.76433E+03
 -8.99906E+03 -1.43647E+04 -4.77584E+02 -1.25041E+04  4.38193E+03 -6.69034E+03  4.49173E+03 -4.46930E+03
  3.24838E+03 -2.53507E+03  3.76141E+03 -3.66038E+03  5.28864E+03 -3.03239E+03  7.07792E+03 -1.11716E+03
  9.08841E+03  1.99224E+03  4.85184E+03  8.05434E+03 -2.18309E+03  9.22545E+03 -1.00125E+04  6.86137E+03
 -1.24371E+04 -1.22733E+03 -7.57309E+03 -8.57056E+03 -1.00802E+03 -1.36772E+04  7.56695E+03 -1.35552E+04
  1.40380E+04 -6.96375E+03  1.65256E+04  2.54418E+03  1.12876E+04  1.16012E+04  2.07935E+03  1.48803E+04
 -6.37614E+03  1.27227E+04 -9.30142E+03  4.28318E+03 -6.13825E+03 -1.43157E+03 -2.70655E+03 -1.74185E+03
 -1.44327E+03  2.45364E+02 -1.63983E+03  2.63595E+03 -5.31861E+03  2.07544E+03 -8.56503E+03 -1.62671E+03
 -5.85667E+03 -8.68688E+03 -4.06248E+02 -1.23942E+04  7.26670E+03 -1.13730E+04  1.17958E+04 -3.58921E+03
  1.20408E+04  5.99518E+03  5.37176E+03  1.04472E+04 -2.15358E+03  1.22324E+04 -8.80403E+03  8.04717E+03
 -1.16592E+04  9.21649E+02 -9.25414E+03 -7.63137E+03 -6.67520E+02 -1.01400E+04  5.58266E+03 -7.48293E+03
  7.86649E+03 -2.08440E+03  5.12942E+03  2.04023E+03  1.65004E+03  3.95216E+03  1.45351E+03  1.51513E+03
  2.74336E+03  1.04406E+03  3.11338E+03  1.95711E+03  3.75031E+03  4.67262E+03  3.32724E+03  6.48169E+03
 -2.77177E+03  9.75932E+03 -8.61491E+03  9.76972E+03 -1.24030E+04  2.55279E+03 -1.25789E+04 -5.28667E+03
 -6.29925E+03 -1.26400E+04  2.06007E+03 -1.36751E+04  7.50256E+03 -8.60577E+03  9.88765E+03 -2.70214E+03
  7.83065E+03  4.56722E+03  1.53068E+03  7.13759E+03 -3.68914E+03  4.20688E+03 -5.17592E+03 -9.55402E+02
 -2.59745E+03 -5.43332E+03  3.23739E+03 -5.07080E+03  5.11231E+03 -2.74416E+03  4.86366E+03  8.72874E+02
  2.90019E+03  2.35180E+03  1.35129E+03  1.63868E+03 -1.22151E+03  1.75094E+03  1.78666E+03 -2.73192E+02
  1.89392E+03 -6.06325E+02  5.01219E+03  2.14672E+03  2.76158E+03  6.37250E+03 -1.03986E+03  8.74202E+03
 -6.30421E+03  5.55021E+03 -7.90265E+03  1.54036E+03 -7.05250E+03 -2.94427E+03 -2.59929E+03 -4.87249E+03
  5.35171E+02 -5.25511E+03  3.17472E+03 -2.52643E+03  3.42714E+03  2.58302E+03 -1.27863E+03  4.03934E+03
 -5.37008E+03  2.21684E+03 -5.59015E+03 -3.16840E+03 -3.21885E+03 -6.73477E+03  1.15059E+03 -6.93345E+03
  4.15620E+03 -4.23938E+03  4.79903E+03 -4.13061E+02  4.09316E+03  1.69755E+03  4.64626E+02  3.73012E+03
 -2.40046E+03  9.40017E+02 -2.97121E+03 -2.11722E+03  9.51709E+02 -5.31672E+03  6.00591E+03 -4.06560E+03
  7.74249E+03  4.86568E+02  7.93270E+03  4.90415E+03  2.78159E+03  8.01253E+03 -2.29136E+03  7.55884E+03
 -6.81984E+03  2.96707E+03 -6.59855E+03 -1.21006E+03 -3.78475E+03 -5.45576E+03  1.35585E+03 -4.62750E+03
  4.82772E+03 -2.58371E+03  4.25447E+03  1.71215E+03  1.34420E+03  4.46561E+03 -5.87209E+02  4.25080E+03
 -2.23488E+03  2.50803E+03 -1.81035E+03  7.43670E+02 -8.07963E+02  9.75969E+02 -1.32819E+03  1.59440E+03
 -2.56704E+03  3.42226E+03 -5.77261E+03  2.57487E+03 -8.05413E+03 -1.98010E+02 -8.73877E+03 -5.05446E+03
 -4.91775E+03 -1.00769E+04  2.12699E+03 -1.25984E+04  7.57631E+03 -9.44032E+03  1.16114E+04 -3.61621E+03
  1.05312E+04  2.17928E+03  6.60479E+03  7.58753E+03  1.97628E+02  8.14235E+03 -3.22282E+03  6.16763E+03
 -4.66008E+03  2.22691E+03 -2.95818E+03 -6.54904E+02 -1.40501E+03 -5.10979E+02 -5.55205E+02 -2.42088E+02
 -1.90282E+03  6.31761E+02 -2.09720E+03 -5.76850E+02 -4.63271E+02 -2.20636E+03  9.00464E+01 -3.18590E+03
  3.53735E+03 -2.58545E+03  4.96726E+03  3.87200E+02  5.37953E+03  4.38878E+03  1.22232E+03  8.40529E+03
 -4.02721E+03  9.92544E+03 -8.95460E+03  5.62911E+03 -9.86652E+03 -1.24215E+03 -6.89071E+03 -6.40102E+03
 -3.16852E+03 -8.10292E+03  1.92608E+03 -7.55244E+03  5.39105E+03 -4.54643E+03  5.40465E+03  2.57410E+02
  2.99210E+03  3.04820E+03 -4.01703E+02  2.26541E+03 -1.87289E+03 -4.80175E+02 -2.27218E+01 -1.52532E+03
  2.55501E+03 -9.22831E+02  3.19892E+03  1.55985E+03  1.89147E+03  2.89025E+03  2.95615E+02  4.23963E+03
 -3.72789E+03  3.65009E+03 -5.64067E+03  2.69516E+02 -5.10065E+03 -3.74524E+03 -5.09434E+02 -6.91721E+03
  3.89009E+03 -5.47760E+03  6.50611E+03 -1.61148E+03  6.40066E+03  1.18292E+03  3.64463E+03  4.84601E+03
  1.27172E+03  5.05989E+03 -2.29022E+03  4.55780E+03 -3.43224E+03  2.51836E+03 -2.73958E+03  1.97261E+02
 -1.40733E+03 -3.67832E+02 -1.02699E+03  1.12065E+03 -2.49520E+03  9.70478E+02 -4.25394E+03 -7.43715E+02
 -4.19859E+03 -2.34124E+03 -1.46838E+03 -5.32647E+03  2.82046E+03 -5.65081E+03  4.81716E+03 -2.45206E+03
  5.28059E+03  8.45579E+02  3.01893E+03  3.65009E+03 -3.08406E+02  5.21971E+03 -3.94369E+03  3.58827E+03
