 $NMID ID='MM_0lb_SNR800_12hz_g40_10.RAW', FMTDAT='(8E13.5)'
 TRAMP=1., VOLUME=1. $END
  3.09759E+05  4.18954E+02  3.37495E+05  2.50379E+05  8.48226E+04  3.38305E+05 -1.32623E+05  2.51325E+05
 -1.90019E+05  8.30753E+04 -1.11935E+05 -3.23403E+04  7.24707E+02 -5.03451E+04  5.38072E+04 -3.89234E+02
  3.51472E+04  5.24838E+04 -1.68965E+04  7.52598E+04 -6.06648E+04  6.36488E+04 -8.44476E+04  3.20241E+04
 -8.09730E+04 -1.13902E+04 -5.77801E+04 -5.15346E+04 -1.47958E+04 -7.00751E+04  2.74669E+04 -4.58216E+04
  3.99135E+04  3.60451E+03  1.62217E+04  4.79054E+04 -3.42657E+04  4.74118E+04 -6.71050E+04 -4.63441E+02
 -5.36790E+04 -5.69977E+04 -6.86642E+03 -7.74199E+04  3.36543E+04 -5.51767E+04  4.81791E+04 -1.73726E+04
  4.37883E+04  1.14832E+04  3.20490E+04  2.57558E+04  1.56760E+04  2.95597E+04 -5.35024E+03  2.72212E+04
 -2.17023E+04  1.23054E+04 -1.85043E+04 -5.29644E+03  5.91250E+03 -7.46681E+03  2.26840E+04  1.26454E+04
  7.16115E+03  3.56680E+04 -3.23572E+04  3.57321E+04 -6.37737E+04  2.51130E+03 -5.73920E+04 -4.28686E+04
 -1.25311E+04 -6.37925E+04  4.04814E+04 -4.56031E+04  5.89784E+04 -1.97715E+03  3.45966E+04  3.29432E+04
 -5.86742E+03  3.70499E+04 -3.05932E+04  1.65750E+04 -3.06715E+04 -4.25605E+03 -1.70413E+04 -1.10389E+04
 -8.79257E+03 -1.34715E+04 -6.71417E+02 -1.84290E+04  7.85221E+03 -2.29678E+04  1.53122E+04 -1.30628E+04
  1.12763E+04  5.12261E+03 -8.37937E+03  1.31405E+04 -2.14608E+04 -5.03316E+03 -8.43675E+03 -3.43959E+04
  2.35044E+04 -4.40012E+04  4.85857E+04 -1.99152E+04  4.55844E+04  1.97144E+04  1.60516E+04  4.45326E+04
 -1.60930E+04  3.40792E+04 -2.60178E+04  2.09310E+03 -1.02412E+04 -2.84103E+04  2.12237E+04 -3.45040E+04
  4.16132E+04 -9.45949E+03  3.64636E+04  2.43724E+04  1.86787E+04  4.72893E+04 -7.88935E+03  5.10689E+04
 -3.23961E+04  3.44644E+04 -4.29442E+04  1.01098E+04 -4.34264E+04 -1.72330E+04 -2.39423E+04 -3.88151E+04
  7.60727E+03 -3.86361E+04  3.20748E+04 -1.51207E+04  2.98700E+04  1.12154E+04  4.04712E+03  1.97326E+04
 -1.36550E+04  8.65081E+03 -1.03117E+04 -7.79195E+03  5.78443E+03 -1.07076E+04  1.81329E+04  5.87435E+03
  1.37273E+04  2.24014E+04 -6.00288E+03  2.52997E+04 -2.27444E+04  1.19735E+04 -2.84654E+04 -4.80511E+03
 -2.17366E+04 -1.77141E+04 -9.18620E+03 -2.12910E+04  4.22913E+03 -2.09432E+04  1.63955E+04 -1.92244E+04
  2.69043E+04 -1.29244E+04  3.38739E+04  3.35431E+03  2.45673E+04  2.10759E+04  4.06277E+03  3.70914E+04
 -1.80204E+04  3.11666E+04 -2.83825E+04  1.07336E+04 -2.10822E+04 -1.01046E+04 -4.27699E+03 -1.37903E+04
  1.48246E+03 -2.52747E+03 -5.42017E+03  7.22044E+03 -1.65430E+04  5.06865E+03 -1.68390E+04 -7.43747E+03
 -1.06085E+04 -2.01058E+04  5.45074E+03 -2.40540E+04  1.61657E+04 -1.69341E+04  1.87815E+04 -1.33049E+03
  1.15992E+04  1.37496E+04 -1.34388E+03  1.96270E+04 -1.38630E+04  1.12947E+04 -1.97815E+04 -4.25235E+03
 -1.48025E+04 -1.85648E+04 -2.02697E+03 -2.41702E+04  1.12205E+04 -1.97827E+04  1.98670E+04 -9.64132E+03
  1.84637E+04  3.83654E+02  1.33341E+04  4.27906E+03  7.21812E+03  8.30851E+02  1.02323E+04 -1.56657E+03
  1.82806E+04  3.18181E+03  2.03884E+04  1.55966E+04  1.36126E+04  3.22773E+04 -2.69509E+03  3.61728E+04
 -2.08966E+04  2.96163E+04 -3.38354E+04  1.47486E+04 -3.57785E+04 -2.73250E+03 -2.95051E+04 -2.04772E+04
 -1.25775E+04 -2.97605E+04  1.06282E+04 -2.65055E+04  2.24749E+04 -1.33267E+04  2.06357E+04  5.93882E+03
  7.45356E+03  1.51950E+04 -9.57612E+03  1.30951E+04 -1.70696E+04  2.63686E+03 -1.29765E+04 -1.05198E+04
 -1.77919E+02 -1.59756E+04  8.36456E+03 -1.18290E+04  1.09280E+04 -1.24739E+03  2.32429E+03  7.11937E+03
 -7.01621E+03  2.70226E+03 -6.70773E+03 -5.86333E+03 -4.67607E+02 -1.44200E+04  1.00610E+04 -1.52462E+04
  1.78439E+04 -8.34741E+03  1.97589E+04  3.28459E+03  1.69772E+04  1.43613E+04  8.34457E+03  2.23028E+04
 -3.59751E+03  2.40787E+04 -1.53762E+04  1.49393E+04 -1.72263E+04  3.37768E+03 -1.22688E+04 -4.19065E+03
 -5.38032E+03 -5.65369E+03 -5.86136E+02  7.15501E+02 -2.82601E+03  2.72442E+03 -5.64494E+03  4.58566E+03
 -1.10534E+04 -8.12716E+02 -1.22017E+04 -9.68051E+03 -4.69050E+03 -1.56697E+04  5.14424E+03 -1.20830E+04
  1.02775E+04 -5.12175E+03  7.21042E+03  3.00102E+03 -1.31290E+02  4.63142E+03 -6.00477E+03 -1.89823E+02
 -5.64438E+03 -8.00195E+03 -9.25651E+02 -1.16964E+04  6.63073E+03 -1.25977E+04  1.49856E+04 -6.65237E+03
  1.79718E+04  1.69081E+03  1.32138E+04  1.06858E+04  2.73070E+03  1.42354E+04 -7.60538E+03  1.22073E+04
 -9.74159E+03  3.75155E+03 -5.33904E+03 -2.39894E+03  1.52205E+03 -3.07339E+03  6.67005E+03 -1.10831E+03
  5.93024E+03  5.52608E+03  1.22206E+03  9.64107E+03 -7.29152E+03  9.40849E+03 -1.21094E+04  1.98329E+03
 -7.87022E+03 -6.00079E+03  3.77213E+02 -1.03963E+04  6.49240E+03 -5.05708E+03  6.48625E+03  1.93957E+03
  1.74534E+03  7.02094E+03 -6.37190E+03  8.34834E+03 -9.45894E+03  3.71679E+03 -9.35580E+03 -3.24787E+03
 -5.23239E+03 -1.11817E+04  2.52498E+03 -1.29972E+04  1.11127E+04 -7.68594E+03  1.21784E+04  2.08970E+03
  7.69681E+03  9.50888E+03 -6.19898E+02  1.16586E+04 -8.45736E+03  6.66205E+03 -9.40917E+03 -7.00125E+02
 -8.35850E+03 -7.96211E+03 -1.51138E+03 -8.89717E+03  4.60007E+03 -7.44944E+03  5.49555E+03 -3.42339E+03
  3.71122E+03  1.46490E+03 -8.02487E+02  1.86355E+03 -1.26895E+02 -2.05127E+03  1.47630E+03 -4.53804E+03
  7.91785E+03 -2.79544E+03  1.10360E+04  1.20009E+03  1.07658E+04  7.36688E+03  7.67690E+03  1.43631E+04
 -3.23271E+03  1.63485E+04 -1.40095E+04  1.20131E+04 -1.81084E+04  2.61734E+03 -1.45269E+04 -5.93411E+03
 -7.41986E+03 -1.21664E+04 -7.08137E+02 -9.81515E+03  3.69732E+03 -5.21100E+03  3.88474E+03 -3.82808E+03
  2.31822E+03 -2.44859E+03  3.06653E+03 -3.27823E+03  4.89512E+03 -2.51259E+03  5.67768E+03 -6.04985E+02
  7.67358E+03  2.17017E+03  4.10192E+03  6.57098E+03 -1.88174E+03  7.11189E+03 -7.92355E+03  5.57732E+03
 -1.01473E+04 -1.33425E+03 -5.96180E+03 -6.85579E+03 -3.84806E+02 -1.06662E+04  6.07669E+03 -1.04800E+04
  1.08788E+04 -6.11809E+03  1.32377E+04  1.57771E+03  9.07753E+03  9.06586E+03  1.47754E+03  1.20976E+04
 -5.06286E+03  1.02740E+04 -7.00996E+03  3.49037E+03 -4.67757E+03 -1.41133E+03 -1.69232E+03 -1.37188E+03
 -6.69018E+02  4.10703E+02 -1.75390E+03  2.31918E+03 -4.51290E+03  1.71165E+03 -7.21847E+03 -1.02650E+03
 -4.14002E+03 -7.21133E+03  6.26619E+02 -9.69439E+03  6.03094E+03 -8.92998E+03  9.31359E+03 -2.52979E+03
  9.71949E+03  4.78213E+03  4.56883E+03  8.65711E+03 -1.74169E+03  9.56253E+03 -6.73076E+03  5.99707E+03
 -8.76032E+03  4.67327E+02 -6.99411E+03 -5.84502E+03 -5.83851E+02 -7.94277E+03  4.20044E+03 -6.13807E+03
  5.97475E+03 -2.04553E+03  4.02025E+03  1.55522E+03  1.52571E+03  3.38704E+03  1.20735E+03  1.31008E+03
  2.65746E+03  6.78900E+02  2.40772E+03  1.27471E+03  2.79161E+03  3.65097E+03  2.54261E+03  4.66597E+03
 -2.29488E+03  7.22888E+03 -6.21604E+03  7.99538E+03 -9.16524E+03  2.17870E+03 -1.00309E+04 -3.07345E+03
 -4.81913E+03 -9.45137E+03  1.58187E+03 -1.10170E+04  5.18065E+03 -6.67021E+03  7.92522E+03 -1.68588E+03
  6.07313E+03  3.75931E+03  1.43363E+03  5.27287E+03 -2.56512E+03  3.54066E+03 -3.70168E+03 -7.71048E+02
 -1.71896E+03 -3.86276E+03  2.46064E+03 -3.81975E+03  3.85892E+03 -2.20476E+03  3.53071E+03  7.28767E+02
  1.83725E+03  1.60294E+03  1.03447E+03  9.48641E+02 -6.27886E+02  1.51762E+03  1.86311E+03 -3.59972E+02
  1.33431E+03 -1.45075E+02  3.57149E+03  1.58349E+03  1.83474E+03  5.40165E+03 -8.05061E+02  6.91277E+03
 -4.27550E+03  3.83351E+03 -5.79453E+03  1.23199E+03 -5.48550E+03 -2.16258E+03 -2.03419E+03 -3.34370E+03
  7.09827E+02 -3.68393E+03  2.40779E+03 -1.78352E+03  1.75087E+03  2.03305E+03 -1.07740E+03  3.26349E+03
 -3.91514E+03  2.07865E+03 -4.01395E+03 -2.31673E+03 -2.56335E+03 -5.13107E+03  5.17135E+02 -5.15390E+03
  2.66859E+03 -2.63780E+03  3.05663E+03  1.07397E+02  3.18095E+03  1.07309E+03  8.14664E+02  2.76386E+03
 -1.85560E+03  5.69146E+02 -2.62866E+03 -1.43941E+03  1.07216E+03 -3.75963E+03  4.54065E+03 -3.18035E+03
  5.32689E+03  3.71417E+02  5.94011E+03  3.67805E+03  1.87165E+03  5.75579E+03 -2.00675E+03  5.82255E+03
 -5.03811E+03  2.12228E+03 -5.10233E+03 -1.16120E+03 -2.29845E+03 -3.60204E+03  5.97343E+02 -3.33298E+03
  3.89962E+03 -1.77913E+03  2.90610E+03  1.47138E+03  1.12616E+03  3.30791E+03 -4.72889E+02  2.90087E+03
 -1.48535E+03  1.88724E+03 -1.32480E+03  7.15116E+02 -5.74670E+02  7.88030E+02 -1.40980E+03  1.04049E+03
 -1.46374E+03  2.81454E+03 -4.10660E+03  1.70092E+03 -5.81313E+03  4.59446E+02 -6.78141E+03 -3.41883E+03
 -3.44280E+03 -7.56736E+03  1.35631E+03 -8.89454E+03  5.22112E+03 -7.01072E+03  8.39562E+03 -2.99713E+03
  7.97917E+03  1.30615E+03  4.57275E+03  5.36781E+03  1.60143E+02  5.69939E+03 -2.01243E+03  4.15141E+03
 -3.52692E+03  1.92245E+03 -1.96538E+03 -7.67423E+02 -1.12495E+03 -4.38551E+02 -7.32058E+02  1.40166E+02
 -1.45201E+03  4.07653E+02 -1.64693E+03 -5.91244E+02 -2.51597E+02 -1.47947E+03 -1.47397E+02 -2.54153E+03
  2.82890E+03 -2.21911E+03  3.22952E+03  1.53362E+02  3.79038E+03  3.10652E+03  8.11641E+02  5.55339E+03
 -2.93969E+03  6.81759E+03 -6.02866E+03  4.01523E+03 -6.68795E+03 -6.38282E+02 -5.37896E+03 -4.55475E+03
 -2.30980E+03 -5.47231E+03  1.52654E+03 -5.07860E+03  3.35860E+03 -2.63359E+03  3.53854E+03 -1.00542E+02
  1.94171E+03  1.75437E+03  5.61496E+01  1.71320E+03 -9.93514E+02 -2.10166E+02  2.00120E+02 -1.33762E+03
  1.67595E+03 -4.42335E+02  1.85907E+03  8.40264E+02  1.32611E+03  1.95524E+03  2.69798E+02  2.76567E+03
 -2.35609E+03  2.50638E+03 -3.62379E+03  3.55531E+02 -3.08862E+03 -2.74256E+03 -6.55487E+02 -4.85371E+03
  2.68518E+03 -3.66115E+03  3.60408E+03 -1.01399E+03  4.31629E+03  7.44392E+02  2.49037E+03  3.40640E+03
  6.94731E+02  3.32669E+03 -1.06385E+03  2.89392E+03 -2.15112E+03  1.80124E+03 -1.80286E+03  2.49700E+02
 -9.65274E+02 -4.42740E+02 -1.23832E+03  7.95675E+02 -1.81431E+03  5.81598E+02 -2.64529E+03 -1.08877E+03
 -2.94108E+03 -1.50772E+03 -8.01127E+02 -3.86224E+03  2.08976E+03 -4.38003E+03  3.19863E+03 -1.43249E+03
  3.26668E+03  3.72633E+02  1.36182E+03  2.35191E+03 -4.06511E+02  3.67190E+03 -2.65850E+03  2.55544E+03
