 $NMID ID='MM_0lb_SNR800_13hz_g60_49.RAW', FMTDAT='(8E13.5)'
 TRAMP=1., VOLUME=1. $END
  3.09688E+05  2.13339E+02  3.37860E+05  2.50722E+05  8.52553E+04  3.37836E+05 -1.32442E+05  2.51813E+05
 -1.90926E+05  8.33962E+04 -1.12599E+05 -3.24067E+04  6.37650E+02 -5.07297E+04  5.39526E+04 -7.42103E+02
  3.55076E+04  5.27717E+04 -1.62533E+04  7.57054E+04 -6.09086E+04  6.38616E+04 -8.48015E+04  3.23279E+04
 -8.19322E+04 -1.15320E+04 -5.80471E+04 -5.18806E+04 -1.52391E+04 -7.06436E+04  2.80623E+04 -4.62926E+04
  4.07684E+04  3.78983E+03  1.63079E+04  4.79139E+04 -3.47307E+04  4.78580E+04 -6.74753E+04 -2.14424E+02
 -5.46343E+04 -5.73400E+04 -7.12047E+03 -7.85201E+04  3.43871E+04 -5.61211E+04  4.88917E+04 -1.80549E+04
  4.42481E+04  1.14867E+04  3.24931E+04  2.60534E+04  1.64229E+04  3.01563E+04 -5.87278E+03  2.76443E+04
 -2.24914E+04  1.21859E+04 -1.82488E+04 -5.20330E+03  6.64300E+03 -7.16812E+03  2.28687E+04  1.30810E+04
  7.11393E+03  3.64139E+04 -3.30937E+04  3.66525E+04 -6.49320E+04  2.35954E+03 -5.78305E+04 -4.39172E+04
 -1.26781E+04 -6.45119E+04  4.08194E+04 -4.64675E+04  5.99261E+04 -2.32805E+03  3.54902E+04  3.36616E+04
 -5.58845E+03  3.80626E+04 -3.08478E+04  1.74832E+04 -3.22310E+04 -4.07516E+03 -1.79243E+04 -1.16063E+04
 -9.38332E+03 -1.42687E+04 -9.48271E+02 -1.88449E+04  7.83165E+03 -2.31468E+04  1.55531E+04 -1.29521E+04
  1.08192E+04  5.66405E+03 -9.43379E+03  1.30874E+04 -2.23684E+04 -5.53503E+03 -8.14426E+03 -3.60362E+04
  2.39514E+04 -4.53906E+04  5.01480E+04 -2.04454E+04  4.71771E+04  2.00045E+04  1.63289E+04  4.55239E+04
 -1.62509E+04  3.47251E+04 -2.65678E+04  2.07889E+03 -1.07829E+04 -2.87466E+04  2.13056E+04 -3.53305E+04
  4.27012E+04 -1.01238E+04  3.78564E+04  2.45060E+04  1.96933E+04  4.87346E+04 -8.05623E+03  5.31241E+04
 -3.33734E+04  3.60847E+04 -4.48090E+04  1.02986E+04 -4.52068E+04 -1.78003E+04 -2.47232E+04 -4.02368E+04
  7.37273E+03 -3.99181E+04  3.29141E+04 -1.59439E+04  3.07262E+04  1.10826E+04  4.40692E+03  2.00382E+04
 -1.41321E+04  8.95217E+03 -1.06382E+04 -7.35291E+03  5.56176E+03 -1.13042E+04  1.82727E+04  5.88621E+03
  1.43679E+04  2.23071E+04 -5.62418E+03  2.59140E+04 -2.31257E+04  1.30547E+04 -2.98028E+04 -3.71890E+03
 -2.29712E+04 -1.75850E+04 -9.62677E+03 -2.24370E+04  4.15543E+03 -2.25618E+04  1.75812E+04 -2.05312E+04
  2.88663E+04 -1.36819E+04  3.54238E+04  4.01896E+03  2.52235E+04  2.19958E+04  4.25196E+03  3.86442E+04
 -1.84943E+04  3.19082E+04 -2.90571E+04  1.13012E+04 -2.17442E+04 -1.04009E+04 -4.61427E+03 -1.29887E+04
  1.03648E+03 -1.89382E+03 -6.15806E+03  7.57795E+03 -1.83634E+04  5.20586E+03 -1.81135E+04 -8.59492E+03
 -1.08364E+04 -2.10174E+04  5.90944E+03 -2.51396E+04  1.68555E+04 -1.79584E+04  2.01363E+04 -1.62740E+03
  1.27118E+04  1.44229E+04 -1.02433E+03  2.09927E+04 -1.47839E+04  1.19876E+04 -2.10998E+04 -4.51522E+03
 -1.55015E+04 -1.90810E+04 -1.47331E+03 -2.48278E+04  1.16345E+04 -2.10571E+04  2.06679E+04 -1.04310E+04
  1.95287E+04  6.47673E+01  1.42694E+04  4.80364E+03  7.96533E+03  1.14356E+03  1.06683E+04 -1.65459E+03
  1.94313E+04  2.78846E+03  2.22647E+04  1.62925E+04  1.49965E+04  3.33711E+04 -2.73705E+03  3.85184E+04
 -2.21320E+04  3.14114E+04 -3.63077E+04  1.61688E+04 -3.84278E+04 -2.96996E+03 -3.13149E+04 -2.20517E+04
 -1.32667E+04 -3.17608E+04  1.08901E+04 -2.80172E+04  2.45781E+04 -1.38958E+04  2.12616E+04  6.61479E+03
  7.24470E+03  1.62145E+04 -1.03511E+04  1.39626E+04 -1.79944E+04  2.71162E+03 -1.33878E+04 -1.10737E+04
 -1.06654E+02 -1.68232E+04  8.79156E+03 -1.24628E+04  1.14324E+04 -1.55699E+03  2.44950E+03  7.55625E+03
 -7.55802E+03  3.60742E+03 -7.53106E+03 -6.10945E+03 -8.67433E+02 -1.52613E+04  1.03989E+04 -1.67356E+04
  1.88946E+04 -9.24481E+03  2.14019E+04  2.81613E+03  1.86181E+04  1.53205E+04  8.49742E+03  2.35393E+04
 -4.13837E+03  2.58045E+04 -1.66509E+04  1.61156E+04 -1.84457E+04  3.60998E+03 -1.27991E+04 -4.47652E+03
 -5.64626E+03 -5.91587E+03 -8.75575E+02  9.82871E+02 -2.83631E+03  2.83358E+03 -6.04717E+03  4.74370E+03
 -1.19093E+04 -7.88112E+02 -1.24710E+04 -1.02602E+04 -5.02803E+03 -1.63900E+04  5.48518E+03 -1.32984E+04
  1.08916E+04 -5.09509E+03  7.66908E+03  3.17882E+03 -2.40899E+02  5.02684E+03 -6.38362E+03 -1.66604E+02
 -5.94909E+03 -8.06472E+03 -1.06910E+03 -1.20428E+04  7.23590E+03 -1.30590E+04  1.65450E+04 -6.90720E+03
  1.88687E+04  1.82539E+03  1.38783E+04  1.11175E+04  2.69132E+03  1.50006E+04 -8.01071E+03  1.24115E+04
 -1.10856E+04  3.94626E+03 -5.17416E+03 -2.29878E+03  2.03943E+03 -3.31312E+03  6.83669E+03 -1.38434E+03
  6.00767E+03  5.23941E+03  1.21661E+03  1.03071E+04 -7.46852E+03  9.69950E+03 -1.22469E+04  2.76173E+03
 -8.34039E+03 -6.55606E+03  2.27659E+02 -1.08122E+04  6.74067E+03 -5.47342E+03  6.96519E+03  2.27291E+03
  1.35222E+03  7.51067E+03 -6.95978E+03  8.83743E+03 -1.01394E+04  3.83080E+03 -1.03909E+04 -3.29776E+03
 -6.13811E+03 -1.18825E+04  2.81842E+03 -1.34349E+04  1.17450E+04 -8.41566E+03  1.23209E+04  1.79906E+03
  7.83540E+03  1.01176E+04 -6.90144E+02  1.24872E+04 -9.00940E+03  6.77805E+03 -9.67013E+03 -8.83918E+02
 -8.60193E+03 -8.53589E+03 -1.56122E+03 -9.12453E+03  4.63858E+03 -7.56876E+03  6.11170E+03 -3.14161E+03
  3.94631E+03  1.43230E+03 -7.38848E+02  1.73023E+03 -1.05564E+02 -2.24066E+03  1.68637E+03 -4.98278E+03
  8.33670E+03 -3.19106E+03  1.15049E+04  1.16842E+03  1.17410E+04  7.72618E+03  8.30202E+03  1.52353E+04
 -3.11757E+03  1.75733E+04 -1.47169E+04  1.24795E+04 -1.91103E+04  2.63013E+03 -1.51854E+04 -6.42437E+03
 -7.72482E+03 -1.23375E+04 -5.75197E+02 -1.03480E+04  3.88506E+03 -5.67908E+03  4.07125E+03 -4.10609E+03
  2.72497E+03 -2.44092E+03  3.16330E+03 -2.91523E+03  4.60093E+03 -2.87805E+03  6.21087E+03 -5.69440E+02
  8.28827E+03  2.21227E+03  3.60794E+03  6.66264E+03 -1.98054E+03  7.75762E+03 -8.31387E+03  5.69596E+03
 -1.04060E+04 -1.37646E+03 -6.29685E+03 -7.30448E+03 -2.44095E+02 -1.10187E+04  6.12121E+03 -1.12302E+04
  1.10996E+04 -6.02597E+03  1.39949E+04  1.61898E+03  9.37506E+03  9.34084E+03  1.66544E+03  1.25521E+04
 -4.89061E+03  1.03858E+04 -7.21849E+03  3.76049E+03 -4.57629E+03 -1.34265E+03 -1.85430E+03 -1.76733E+03
 -9.32560E+02  5.91993E+01 -1.63824E+03  2.41897E+03 -4.47882E+03  1.93024E+03 -7.43001E+03 -1.02481E+03
 -4.33959E+03 -7.27168E+03  1.97157E+02 -9.78185E+03  6.17323E+03 -9.36367E+03  9.57797E+03 -2.62054E+03
  9.68342E+03  4.90632E+03  4.28457E+03  8.33801E+03 -1.72909E+03  9.85746E+03 -6.81190E+03  5.99241E+03
 -9.04044E+03  5.69256E+02 -7.42544E+03 -5.97469E+03 -6.31213E+02 -7.87426E+03  4.23387E+03 -6.25731E+03
  6.09974E+03 -1.99992E+03  4.30144E+03  1.92812E+03  1.11193E+03  3.19990E+03  1.21269E+03  1.54574E+03
  2.48248E+03  6.74559E+02  2.65810E+03  1.52846E+03  2.57285E+03  4.02777E+03  2.81930E+03  4.96338E+03
 -2.10098E+03  7.39529E+03 -6.81308E+03  7.91609E+03 -9.20589E+03  2.37491E+03 -1.02927E+04 -3.48365E+03
 -4.67067E+03 -9.70044E+03  1.60163E+03 -1.06396E+04  5.26170E+03 -6.80345E+03  7.74603E+03 -1.74515E+03
  5.91691E+03  3.77591E+03  1.31864E+03  5.22522E+03 -2.29056E+03  3.41255E+03 -3.70647E+03 -4.24144E+02
 -1.84314E+03 -3.85032E+03  1.88468E+03 -3.95729E+03  3.79885E+03 -2.36503E+03  3.43873E+03  4.85840E+02
  2.65553E+03  1.67037E+03  1.03971E+03  1.10514E+03 -4.81661E+02  1.44712E+03  1.73757E+03 -2.56353E+02
  1.18460E+03 -5.44212E+02  4.07800E+03  1.40601E+03  2.22624E+03  5.37045E+03 -7.75087E+02  6.46618E+03
 -4.38864E+03  4.22311E+03 -5.53966E+03  1.17550E+03 -5.49618E+03 -2.05562E+03 -1.70492E+03 -3.21870E+03
  2.62161E+02 -3.45162E+03  2.26131E+03 -1.47257E+03  1.56660E+03  1.96530E+03 -1.35075E+03  2.69091E+03
 -3.94156E+03  2.07840E+03 -4.28397E+03 -2.23132E+03 -2.14983E+03 -5.02337E+03  7.77902E+02 -4.67430E+03
  2.44208E+03 -2.76346E+03  3.37810E+03  7.74885E+01  2.81240E+03  1.15108E+03  6.00666E+02  2.36252E+03
 -1.62882E+03  3.40351E+02 -2.06309E+03 -1.61552E+03  9.23142E+02 -3.36726E+03  4.37048E+03 -2.92890E+03
  4.91173E+03  4.42864E+02  5.69234E+03  3.17500E+03  2.06104E+03  5.32745E+03 -1.83558E+03  5.14238E+03
 -4.30106E+03  1.82217E+03 -4.52005E+03 -7.72970E+02 -2.71439E+03 -3.48857E+03  1.10210E+03 -2.84425E+03
  3.34245E+03 -2.01224E+03  2.61376E+03  1.83787E+03  7.66155E+02  3.17885E+03  1.40253E+01  2.80656E+03
 -1.17444E+03  1.75948E+03 -1.51246E+03  1.36752E+02 -2.76125E+02  6.84897E+02 -1.31779E+03  1.15609E+03
 -1.24494E+03  2.40407E+03 -4.04138E+03  2.00820E+03 -5.74383E+03  3.30765E+02 -5.91144E+03 -3.62986E+03
 -3.32175E+03 -6.90664E+03  1.15630E+03 -7.85389E+03  4.83611E+03 -6.35953E+03  7.77645E+03 -2.45872E+03
  7.03967E+03  1.07327E+03  4.34671E+03  4.75895E+03  7.51227E+01  5.14815E+03 -2.31253E+03  4.10157E+03
 -3.46278E+03  2.00924E+03 -2.18655E+03 -2.57806E+02 -9.16657E+02 -3.12407E+02 -4.99021E+02  5.35153E+02
 -1.50245E+03  1.38447E+02 -1.02906E+03 -1.64305E+02 -2.52004E+02 -1.32485E+03 -3.02298E+02 -2.16719E+03
  2.57897E+03 -1.92422E+03  2.79479E+03  2.65050E+02  3.50255E+03  3.13283E+03  4.97855E+02  5.13844E+03
 -2.80967E+03  6.18413E+03 -5.60344E+03  3.29549E+03 -6.32390E+03 -7.25773E+02 -4.61702E+03 -4.11681E+03
 -2.32628E+03 -4.87005E+03  1.37312E+03 -4.65430E+03  3.16448E+03 -2.69150E+03  3.09469E+03  1.90925E+02
  1.86138E+03  1.82407E+03 -2.45980E+02  1.34699E+03 -1.14149E+03 -1.00752E+02  5.85261E+01 -1.16404E+03
  1.31346E+03 -4.16262E+02  1.76783E+03  9.55860E+02  1.29728E+03  2.01326E+03  2.57335E+02  2.37277E+03
 -1.86334E+03  2.12799E+03 -3.15416E+03  1.66003E+02 -2.88547E+03 -2.02594E+03 -2.12911E+02 -4.27698E+03
  2.15766E+03 -3.39875E+03  3.43098E+03 -1.23252E+03  3.79435E+03  5.84073E+02  2.15134E+03  2.92402E+03
  6.01614E+02  2.85847E+03 -1.19764E+03  1.99946E+03 -1.97017E+03  1.49226E+03 -1.93942E+03 -2.02049E+02
 -3.91098E+02 -2.37446E+02 -1.01327E+03  4.95660E+02 -1.84944E+03  6.44955E+02 -2.48808E+03 -3.84186E+02
 -2.54927E+03 -1.55664E+03 -7.53924E+02 -3.38186E+03  1.51254E+03 -3.81083E+03  2.71730E+03 -1.68220E+03
  2.94218E+03  4.59164E+02  1.22253E+03  1.92446E+03  3.32349E+00  3.21421E+03 -1.98881E+03  2.10649E+03
