 $NMID ID='MM_0lb_SNR800_18hz_g50_77.RAW', FMTDAT='(8E13.5)'
 TRAMP=1., VOLUME=1. $END
  3.09758E+05  2.51028E+02  3.37276E+05  2.50405E+05  8.44001E+04  3.37548E+05 -1.32553E+05  2.50372E+05
 -1.89975E+05  8.25077E+04 -1.10861E+05 -3.28961E+04  1.37850E+03 -5.01815E+04  5.38759E+04  6.13501E+01
  3.51648E+04  5.30352E+04 -1.71515E+04  7.52915E+04 -6.04067E+04  6.30255E+04 -8.32835E+04  3.17722E+04
 -8.01383E+04 -1.10248E+04 -5.65721E+04 -5.05458E+04 -1.51467E+04 -6.82789E+04  2.70927E+04 -4.48978E+04
  3.91875E+04  3.64060E+03  1.57055E+04  4.73112E+04 -3.42774E+04  4.65274E+04 -6.57741E+04 -3.38373E+02
 -5.21270E+04 -5.60332E+04 -6.18758E+03 -7.56804E+04  3.31287E+04 -5.35417E+04  4.68411E+04 -1.66571E+04
  4.20112E+04  1.10767E+04  3.10355E+04  2.44054E+04  1.56610E+04  2.84267E+04 -4.73279E+03  2.69942E+04
 -2.17877E+04  1.28676E+04 -1.90277E+04 -4.66455E+03  4.70533E+03 -7.43791E+03  2.14351E+04  1.14064E+04
  7.19917E+03  3.36992E+04 -3.07833E+04  3.41568E+04 -6.16691E+04  2.27507E+03 -5.55828E+04 -4.17888E+04
 -1.24084E+04 -6.12425E+04  3.86494E+04 -4.38178E+04  5.61765E+04 -2.01356E+03  3.24221E+04  3.09190E+04
 -6.26272E+03  3.40113E+04 -2.89143E+04  1.39940E+04 -2.81078E+04 -5.26750E+03 -1.48172E+04 -1.04334E+04
 -7.78032E+03 -1.16799E+04 -7.61494E+02 -1.68374E+04  6.61783E+03 -2.25270E+04  1.51493E+04 -1.39974E+04
  1.19659E+04  4.24878E+03 -6.66235E+03  1.31795E+04 -1.99517E+04 -2.73997E+03 -8.27087E+03 -3.13505E+04
  2.10872E+04 -4.11467E+04  4.55490E+04 -1.86087E+04  4.24127E+04  1.83979E+04  1.46899E+04  4.21328E+04
 -1.55518E+04  3.14030E+04 -2.38837E+04  1.09335E+03 -8.29710E+03 -2.69110E+04  2.04749E+04 -3.18761E+04
  3.85318E+04 -8.12938E+03  3.21885E+04  2.29056E+04  1.60337E+04  4.33319E+04 -7.77618E+03  4.62643E+04
 -2.91381E+04  3.07432E+04 -3.85301E+04  8.37305E+03 -3.92862E+04 -1.51999E+04 -2.18105E+04 -3.53085E+04
  7.08149E+03 -3.50229E+04  2.94894E+04 -1.32535E+04  2.74885E+04  1.07887E+04  3.16890E+03  1.81557E+04
 -1.30330E+04  7.69997E+03 -9.74552E+03 -7.76323E+03  6.20041E+03 -1.00975E+04  1.73498E+04  6.11338E+03
  1.26940E+04  2.17907E+04 -6.65071E+03  2.37410E+04 -2.16421E+04  9.64000E+03 -2.53477E+04 -6.21439E+03
 -1.71564E+04 -1.66518E+04 -6.47801E+03 -1.74502E+04  3.98314E+03 -1.56970E+04  1.31065E+04 -1.51138E+04
  2.22418E+04 -1.17253E+04  2.89653E+04  1.53643E+03  2.16573E+04  1.69653E+04  4.13799E+03  3.30473E+04
 -1.62408E+04  2.81555E+04 -2.63417E+04  9.50442E+03 -1.97611E+04 -1.02368E+04 -4.15643E+03 -1.38564E+04
  2.61433E+03 -4.04828E+03 -2.96725E+03  5.54517E+03 -1.37301E+04  5.28388E+03 -1.38545E+04 -5.43480E+03
 -8.87802E+03 -1.63775E+04  4.59580E+03 -2.02095E+04  1.27388E+04 -1.43777E+04  1.54124E+04 -1.43955E+03
  9.46802E+03  1.14114E+04 -6.09187E+02  1.63775E+04 -1.07233E+04  8.90914E+03 -1.61984E+04 -3.17846E+03
 -1.20465E+04 -1.45485E+04 -1.54291E+03 -1.96387E+04  9.04560E+03 -1.60711E+04  1.68950E+04 -7.65354E+03
  1.50704E+04  5.77002E+02  1.11279E+04  3.91969E+03  5.68202E+03  5.93394E+02  7.92021E+03 -1.43250E+03
  1.45829E+04  2.65810E+03  1.54759E+04  1.28955E+04  9.63740E+03  2.53435E+04 -3.22355E+03  2.79653E+04
 -1.62209E+04  2.13647E+04 -2.55541E+04  1.04000E+04 -2.63090E+04 -1.85093E+03 -2.26522E+04 -1.50575E+04
 -1.04646E+04 -2.13357E+04  7.20328E+03 -2.00640E+04  1.73052E+04 -1.09231E+04  1.61410E+04  3.99223E+03
  6.62419E+03  1.14489E+04 -7.27752E+03  1.05603E+04 -1.37232E+04  2.62070E+03 -1.09014E+04 -8.36764E+03
 -3.44986E+02 -1.29556E+04  6.57012E+03 -9.48313E+03  8.39887E+03 -1.13341E+03  1.41328E+03  5.14327E+03
 -5.81175E+03  1.59643E+03 -4.04956E+03 -4.89248E+03  6.10591E+02 -1.07228E+04  8.16286E+03 -1.10555E+04
  1.31378E+04 -5.31990E+03  1.30340E+04  2.80470E+03  1.12110E+04  1.00192E+04  5.35328E+03  1.50137E+04
 -1.81067E+03  1.69214E+04 -1.02203E+04  1.06763E+04 -1.20937E+04  2.98947E+03 -8.76957E+03 -2.25007E+03
 -4.60527E+03 -3.44049E+03 -8.14303E+02  1.33382E+03 -1.91957E+03  2.00887E+03 -3.63071E+03  3.49071E+03
 -8.36502E+03 -4.38106E+02 -9.22674E+03 -7.50721E+03 -3.81236E+03 -1.19197E+04  3.52133E+03 -8.94395E+03
  7.81658E+03 -3.72508E+03  5.37562E+03  2.35905E+03  7.26302E+02  3.40097E+03 -3.86664E+03 -1.40562E+02
 -3.70566E+03 -5.40625E+03 -7.29632E+02 -7.35912E+03  4.44103E+03 -8.21337E+03  1.04844E+04 -4.28110E+03
  1.20811E+04  7.46138E+02  9.25661E+03  7.07862E+03  1.70605E+03  9.21717E+03 -5.38177E+03  8.78691E+03
 -7.19423E+03  2.82107E+03 -3.88744E+03 -1.37800E+03  1.07855E+03 -1.94053E+03  4.91691E+03 -1.12077E+03
  4.23005E+03  3.74449E+03  1.21410E+03  6.63740E+03 -4.90438E+03  6.59570E+03 -8.47842E+03  1.73419E+03
 -5.27059E+03 -3.78690E+03  1.87902E+02 -6.82798E+03  3.84463E+03 -3.43269E+03  3.91453E+03  9.81468E+02
  3.82425E+02  3.73665E+03 -4.15086E+03  5.34904E+03 -5.54635E+03  2.72209E+03 -5.03090E+03 -1.53811E+03
 -3.16228E+03 -6.45045E+03  1.38793E+03 -7.67182E+03  6.25997E+03 -5.13043E+03  6.99620E+03  9.98146E+02
  4.96913E+03  5.92532E+03  1.24308E+02  7.61231E+03 -5.35902E+03  4.53100E+03 -5.84574E+03 -6.20257E+02
 -6.17195E+03 -5.45207E+03 -1.69411E+03 -5.19383E+03  2.63561E+03 -4.72779E+03  2.92057E+03 -3.05711E+03
  3.00308E+03  3.36098E+02 -1.16205E+01  1.11173E+03  2.74826E+02 -3.20646E+02  3.13839E+02 -2.26621E+03
  4.25162E+03 -8.04323E+02  5.51899E+03  7.71079E+02  6.06623E+03  3.22644E+03  5.44141E+03  7.69174E+03
 -1.37128E+03  9.04953E+03 -7.94019E+03  6.98859E+03 -1.03013E+04  1.40050E+03 -7.98749E+03 -3.14527E+03
 -4.23247E+03 -6.88713E+03 -4.73319E+02 -5.50607E+03  2.31479E+03 -2.48532E+03  1.79751E+03 -1.89058E+03
  1.31866E+03 -1.46984E+03  2.46444E+03 -2.41344E+03  3.41990E+03 -1.36398E+03  3.86562E+03  3.80469E+02
  4.66773E+03  9.88972E+02  1.32965E+03  3.76545E+03 -1.63523E+03  2.93153E+03 -4.83571E+03  3.03853E+03
 -5.19257E+03 -9.92256E+02 -2.06527E+03 -3.47538E+03  5.61893E+02 -5.38184E+03  3.37961E+03 -6.00032E+03
  5.56504E+03 -3.33224E+03  7.25315E+03  2.89761E+02  5.26275E+03  4.69018E+03  1.03624E+03  6.42890E+03
 -2.21432E+03  6.37049E+03 -3.46703E+03  2.02230E+03 -2.06259E+03 -9.52659E+02 -3.28075E+02 -8.33524E+02
 -4.12669E+02  6.68493E+02 -1.15169E+03  1.98518E+03 -2.71938E+03  1.18295E+03 -4.39624E+03 -3.38860E+02
 -1.84901E+03 -4.11117E+03  9.45327E+02 -5.02404E+03  3.03036E+03 -4.42400E+03  4.00645E+03 -9.96327E+02
  4.46671E+03  2.74800E+03  1.89749E+03  3.86761E+03 -8.20922E+02  5.03466E+03 -3.10582E+03  2.74869E+03
 -4.22473E+03  7.12879E+02 -3.68951E+03 -2.46712E+03 -1.47143E+02 -3.63434E+03  1.74996E+03 -2.69122E+03
  2.99549E+03 -1.68959E+03  1.91270E+03  5.15025E+02  4.08149E+02  1.39314E+03  1.04874E+03  7.60548E+02
  1.85861E+03  5.25122E+02  1.33746E+03  9.94987E+02  1.11530E+03  2.15481E+03  1.39721E+03  1.87576E+03
 -1.27640E+03  3.31602E+03 -2.61797E+03  3.96153E+03 -3.32284E+03  1.10390E+03 -4.71017E+03 -5.40695E+02
 -1.91644E+03 -4.14154E+03  6.73203E+02 -5.32805E+03  1.76155E+03 -2.82725E+03  3.15181E+03 -7.59966E+02
  2.86733E+03  1.83002E+03  4.32556E+02  2.22550E+03 -6.84840E+02  1.45283E+03 -1.23110E+03 -2.77596E+01
 -8.27517E+02 -1.65769E+03  1.62282E+03 -1.72665E+03  1.16760E+03 -1.04962E+03  1.39933E+03  3.21685E+02
  1.04716E+03  2.56575E+02  8.80146E+02  7.15450E+01 -3.30436E+02  6.68025E+02  1.49281E+03 -3.15816E+02
  3.67495E+01 -2.53373E+02  1.92723E+03  8.26528E+02  3.28552E+02  2.15575E+03 -5.26351E+02  2.92378E+03
 -1.40104E+03  1.22016E+03 -2.26078E+03  1.87284E+02 -2.41957E+03 -8.47504E+02 -1.10675E+02 -9.98305E+02
  3.42605E+02 -1.12438E+03  8.88882E+02 -8.97546E+02  7.00515E+02  1.24773E+03 -7.45141E+02  1.15840E+03
 -1.71590E+03  6.12348E+02 -1.47899E+03 -1.41020E+03 -7.36428E+02 -2.17094E+03  3.74096E+02 -1.89525E+03
  2.23510E+02 -7.14695E+02  7.12679E+02  3.19723E+02  1.28996E+03 -2.83693E+02  4.31047E+02  1.32202E+03
 -2.52841E+02  3.07448E+02 -1.12591E+03 -4.73331E+02  5.22785E+02 -8.98006E+02  1.86261E+03 -1.01532E+03
  1.70047E+03  6.48022E+01  2.94791E+03  1.00373E+03  1.05225E+03  1.64130E+03 -3.26021E+02  1.91434E+03
 -1.50607E+03  3.91208E+02 -1.47441E+03 -1.76754E+02 -8.69246E+02 -1.38541E+03  2.08996E+02 -8.02520E+02
  1.53267E+03 -8.92506E+02  6.28451E+02  7.81098E+02  3.31209E+02  1.38032E+03  2.02233E+02  1.14592E+03
 -1.89451E+02  1.17953E+03 -6.82833E+02  1.61502E+02 -2.27656E+02  4.03341E+02 -9.77240E+02  3.79977E+02
 -6.53171E+02  1.14881E+03 -2.14178E+03  7.80796E+02 -1.80802E+03  2.79191E+02 -2.81480E+03 -8.66493E+02
 -1.04268E+03 -2.57308E+03  4.73548E+02 -2.94870E+03  1.18848E+03 -2.52247E+03  2.68348E+03 -7.48680E+02
  2.56844E+03 -1.71560E+02  1.45185E+03  1.75315E+03 -7.05535E+02  1.52041E+03 -5.79913E+02  1.32413E+03
 -1.13422E+03  7.48309E+02 -4.39537E+02 -2.00739E+02 -8.02681E+02  2.23882E+02 -6.37270E+02  3.14134E+01
 -1.15194E+03 -1.28005E+01 -1.06856E+03  1.33754E+02  1.26239E+02 -8.45650E+02 -4.23479E+02 -6.27364E+02
  1.32760E+03 -6.93221E+02  4.05612E+02  1.08593E+02  9.43719E+02  1.00017E+03 -4.69954E+02  1.60001E+03
 -1.05912E+03  2.26738E+03 -1.68783E+03  1.33200E+03 -1.94101E+03 -2.82696E+02 -1.25361E+03 -1.38329E+03
 -8.85164E+02 -1.61042E+03  2.33377E+02 -1.36580E+03  5.95289E+02 -4.96919E+02  9.91275E+02  3.14747E+02
  9.99729E+02  4.63604E+02  9.37990E+01  2.30464E+02 -4.67095E+02  2.07619E+02  1.20095E+02 -2.59742E+01
  6.68083E+02  3.42894E+02  3.78180E+01  5.39464E+02 -3.80654E+01  5.20447E+02  7.43089E+02  4.13311E+02
 -5.86183E+02  9.98880E+02 -7.24753E+02  2.64945E+02 -1.11456E+03 -4.65847E+02  2.27633E+02 -1.20207E+03
  5.14853E+02 -8.88465E+02  8.39510E+02 -2.20659E+02  9.87990E+02 -7.23837E+02  5.05680E+02  6.85604E+02
  7.19892E+02  6.68266E+02 -4.91901E+01  7.52834E+02 -5.51843E+02  6.49599E+02 -7.18047E+02  2.04848E+02
 -2.45449E+02 -2.91945E+02 -4.46845E+02  8.49360E+01 -7.17263E+02  2.38576E+02 -8.32008E+02 -4.44264E+02
 -7.57122E+02  2.87553E+02 -3.97786E+02 -1.06564E+03  6.66243E+02 -1.49301E+03  7.97059E+02 -5.20878E+02
  8.26901E+02  3.40568E+01 -4.21591E+02  6.26847E+02  5.79188E+01  8.15519E+02 -6.45190E+02  8.68328E+02
