 $NMID ID='MM_0lb_SNR800_11hz_g45_10.RAW', FMTDAT='(8E13.5)'
 TRAMP=1., VOLUME=1. $END
  3.09902E+05  4.93659E+02  3.38016E+05  2.50976E+05  8.46425E+04  3.38090E+05 -1.32949E+05  2.51234E+05
 -1.90669E+05  8.36460E+04 -1.12053E+05 -3.25314E+04  3.89488E+02 -5.04867E+04  5.40550E+04 -3.70750E+02
  3.50166E+04  5.27705E+04 -1.66494E+04  7.55229E+04 -6.12398E+04  6.41178E+04 -8.45312E+04  3.21899E+04
 -8.16359E+04 -1.16060E+04 -5.79896E+04 -5.15484E+04 -1.48583E+04 -7.05693E+04  2.78229E+04 -4.63634E+04
  4.06526E+04  3.40353E+03  1.63740E+04  4.83344E+04 -3.46840E+04  4.76430E+04 -6.69939E+04 -2.02794E+02
 -5.40247E+04 -5.69354E+04 -6.82888E+03 -7.83287E+04  3.41829E+04 -5.57566E+04  4.87187E+04 -1.79492E+04
  4.41463E+04  1.14925E+04  3.24282E+04  2.61411E+04  1.60012E+04  2.98226E+04 -5.32198E+03  2.76092E+04
 -2.19484E+04  1.23276E+04 -1.79703E+04 -5.23058E+03  6.19151E+03 -7.52235E+03  2.25406E+04  1.31895E+04
  6.89844E+03  3.66839E+04 -3.28078E+04  3.59991E+04 -6.46197E+04  2.35074E+03 -5.76755E+04 -4.41071E+04
 -1.25741E+04 -6.43068E+04  4.07561E+04 -4.64125E+04  5.97252E+04 -2.21960E+03  3.55647E+04  3.33173E+04
 -5.90181E+03  3.80268E+04 -3.07065E+04  1.76655E+04 -3.14958E+04 -4.01577E+03 -1.77481E+04 -1.13807E+04
 -8.81985E+03 -1.40966E+04 -6.89901E+02 -1.88555E+04  8.04859E+03 -2.33479E+04  1.56676E+04 -1.34274E+04
  1.11071E+04  5.67340E+03 -9.50338E+03  1.27303E+04 -2.24597E+04 -5.50239E+03 -8.49677E+03 -3.57116E+04
  2.38321E+04 -4.54238E+04  4.99062E+04 -2.02786E+04  4.65884E+04  2.00493E+04  1.65741E+04  4.53182E+04
 -1.65172E+04  3.45220E+04 -2.63160E+04  2.35616E+03 -1.06318E+04 -2.88232E+04  2.14820E+04 -3.54642E+04
  4.27533E+04 -9.93988E+03  3.80508E+04  2.45723E+04  1.96610E+04  4.86126E+04 -8.04405E+03  5.29829E+04
 -3.34374E+04  3.61535E+04 -4.47840E+04  1.05482E+04 -4.50558E+04 -1.75155E+04 -2.47339E+04 -3.98037E+04
  7.53436E+03 -3.96098E+04  3.27944E+04 -1.59099E+04  3.04321E+04  1.11272E+04  4.52188E+03  1.97515E+04
 -1.38279E+04  9.50295E+03 -1.06293E+04 -7.70495E+03  5.69902E+03 -1.08153E+04  1.84662E+04  5.61487E+03
  1.40254E+04  2.25913E+04 -5.70867E+03  2.56880E+04 -2.29673E+04  1.28558E+04 -2.97529E+04 -4.45419E+03
 -2.29700E+04 -1.76625E+04 -9.86706E+03 -2.28187E+04  4.16740E+03 -2.24747E+04  1.76919E+04 -2.03907E+04
  2.92759E+04 -1.31949E+04  3.51886E+04  3.47486E+03  2.54641E+04  2.23274E+04  4.47241E+03  3.87514E+04
 -1.90354E+04  3.19134E+04 -2.94107E+04  1.10815E+04 -2.17017E+04 -1.01783E+04 -4.72963E+03 -1.35721E+04
  1.11429E+03 -1.82811E+03 -6.16435E+03  7.39260E+03 -1.84477E+04  5.13349E+03 -1.80108E+04 -8.36431E+03
 -1.07011E+04 -2.11891E+04  5.60385E+03 -2.56242E+04  1.73506E+04 -1.82821E+04  2.01116E+04 -1.74558E+03
  1.29315E+04  1.44153E+04 -1.36793E+03  2.10280E+04 -1.46542E+04  1.24514E+04 -2.13502E+04 -4.49231E+03
 -1.56311E+04 -1.86814E+04 -1.83626E+03 -2.55960E+04  1.15084E+04 -2.11768E+04  2.09902E+04 -1.06301E+04
  1.99100E+04 -2.52875E+02  1.42341E+04  5.39169E+03  7.67743E+03  1.24153E+03  1.06883E+04 -1.74056E+03
  1.91312E+04  2.66403E+03  2.24764E+04  1.66758E+04  1.51497E+04  3.40156E+04 -2.87864E+03  3.89648E+04
 -2.21794E+04  3.16181E+04 -3.69095E+04  1.62167E+04 -3.86853E+04 -2.70576E+03 -3.14743E+04 -2.26379E+04
 -1.28467E+04 -3.22834E+04  1.14873E+04 -2.83587E+04  2.45710E+04 -1.41667E+04  2.16016E+04  6.71673E+03
  7.44177E+03  1.68372E+04 -1.01115E+04  1.41166E+04 -1.79955E+04  3.00330E+03 -1.39063E+04 -1.17700E+04
  8.42367E+01 -1.73135E+04  9.00181E+03 -1.27348E+04  1.16992E+04 -1.21330E+03  3.19297E+03  7.26922E+03
 -7.65285E+03  3.61899E+03 -7.76602E+03 -6.39125E+03 -1.18858E+03 -1.59433E+04  1.03386E+04 -1.72040E+04
  1.99644E+04 -9.06638E+03  2.20066E+04  3.08127E+03  1.93374E+04  1.60942E+04  8.80904E+03  2.42544E+04
 -4.53332E+03  2.65813E+04 -1.68020E+04  1.63300E+04 -1.95572E+04  3.69290E+03 -1.32798E+04 -4.73534E+03
 -5.83797E+03 -5.77693E+03 -7.57517E+02  8.48070E+02 -2.49213E+03  3.11709E+03 -6.28285E+03  4.52766E+03
 -1.24325E+04 -1.01303E+03 -1.28509E+04 -1.02705E+04 -4.87714E+03 -1.69131E+04  5.88597E+03 -1.31970E+04
  1.10139E+04 -5.76999E+03  8.07239E+03  3.62433E+03 -1.19774E+02  5.04439E+03 -6.57045E+03 -3.92123E+01
 -6.50753E+03 -8.62020E+03 -7.73038E+02 -1.29486E+04  7.51765E+03 -1.39217E+04  1.68053E+04 -7.34701E+03
  2.00363E+04  1.87637E+03  1.44062E+04  1.18512E+04  2.97336E+03  1.59597E+04 -8.24803E+03  1.36074E+04
 -1.09395E+04  4.00479E+03 -5.71625E+03 -2.31833E+03  2.03020E+03 -4.06257E+03  7.06615E+03 -1.04797E+03
  5.99162E+03  5.90011E+03  1.41358E+03  1.06408E+04 -7.59521E+03  1.02520E+04 -1.30211E+04  2.78328E+03
 -8.55771E+03 -6.50065E+03  4.52476E+01 -1.14603E+04  7.18881E+03 -5.71068E+03  7.80152E+03  2.45895E+03
  2.02211E+03  8.14608E+03 -6.88426E+03  9.35960E+03 -1.10362E+04  4.58789E+03 -1.12230E+04 -4.11459E+03
 -6.36485E+03 -1.29260E+04  3.07018E+03 -1.45824E+04  1.25350E+04 -9.12120E+03  1.38266E+04  2.58213E+03
  8.17088E+03  1.07537E+04 -9.56973E+02  1.29828E+04 -9.61470E+03  7.42625E+03 -1.08087E+04 -1.39475E+03
 -8.89627E+03 -8.92690E+03 -1.57491E+03 -9.77521E+03  4.84995E+03 -8.40210E+03  6.26842E+03 -3.63392E+03
  4.28698E+03  1.47738E+03 -6.93866E+02  1.51216E+03 -9.55665E+01 -2.60868E+03  2.15703E+03 -5.47842E+03
  9.04197E+03 -3.37865E+03  1.27445E+04  1.22598E+03  1.28096E+04  8.18904E+03  8.67945E+03  1.67533E+04
 -3.80005E+03  1.87127E+04 -1.57816E+04  1.40207E+04 -2.06802E+04  2.65765E+03 -1.66646E+04 -6.82589E+03
 -8.28932E+03 -1.36512E+04 -4.35715E+02 -1.18799E+04  3.93017E+03 -6.28695E+03  4.31862E+03 -4.31351E+03
  2.93038E+03 -2.65080E+03  3.59385E+03 -3.21519E+03  4.86434E+03 -2.62233E+03  6.70880E+03 -7.88540E+02
  8.54666E+03  1.97522E+03  4.22508E+03  7.74881E+03 -2.00016E+03  8.50508E+03 -8.84492E+03  6.63575E+03
 -1.18247E+04 -1.23719E+03 -6.86098E+03 -8.17776E+03 -5.55366E+02 -1.22474E+04  6.77047E+03 -1.26193E+04
  1.25365E+04 -6.86697E+03  1.50052E+04  2.34263E+03  1.07233E+04  1.10228E+04  2.10663E+03  1.44048E+04
 -5.69017E+03  1.14011E+04 -7.80859E+03  3.82621E+03 -5.27708E+03 -1.55052E+03 -2.06574E+03 -1.53774E+03
 -1.26671E+03 -1.95563E+02 -1.63231E+03  2.34137E+03 -5.05402E+03  1.79196E+03 -8.18141E+03 -1.38635E+03
 -5.40774E+03 -8.04721E+03  5.30593E+01 -1.12720E+04  7.21409E+03 -1.04114E+04  1.12047E+04 -3.30091E+03
  1.09269E+04  5.74634E+03  5.22630E+03  9.91895E+03 -2.28097E+03  1.16205E+04 -7.88684E+03  6.87568E+03
 -1.07615E+04  5.12808E+02 -8.19940E+03 -6.87342E+03 -7.02459E+02 -9.16181E+03  4.92792E+03 -7.40151E+03
  7.02404E+03 -2.19550E+03  4.97981E+03  1.69802E+03  1.57609E+03  2.91481E+03  1.04677E+03  1.77560E+03
  2.75230E+03  7.68353E+02  2.69591E+03  1.81920E+03  2.84811E+03  3.98481E+03  3.07967E+03  5.83895E+03
 -2.42579E+03  8.60286E+03 -7.90750E+03  9.41460E+03 -1.11427E+04  2.29643E+03 -1.16582E+04 -4.62467E+03
 -5.34387E+03 -1.11369E+04  1.86302E+03 -1.27347E+04  6.64462E+03 -7.80727E+03  9.44784E+03 -2.14639E+03
  7.02600E+03  4.08346E+03  1.51370E+03  6.38075E+03 -3.18761E+03  4.00742E+03 -4.04762E+03 -6.69886E+02
 -1.97455E+03 -4.73897E+03  2.71293E+03 -4.65478E+03  4.41345E+03 -2.36877E+03  4.23284E+03  1.14417E+03
  2.47399E+03  2.18739E+03  1.19716E+03  1.36613E+03 -5.24690E+02  1.76345E+03  1.66572E+03 -6.52737E+02
  1.53138E+03 -6.73227E+02  4.67702E+03  1.55281E+03  2.47818E+03  6.17696E+03 -7.96761E+02  7.98899E+03
 -5.17683E+03  4.89587E+03 -6.79069E+03  1.45240E+03 -6.34906E+03 -2.37080E+03 -2.16221E+03 -4.29849E+03
  7.29402E+02 -4.26365E+03  2.88230E+03 -1.83426E+03  2.30480E+03  2.08854E+03 -1.48760E+03  3.91636E+03
 -4.88617E+03  2.34366E+03 -4.98697E+03 -2.62155E+03 -2.91035E+03 -6.08303E+03  8.44934E+02 -5.95129E+03
  3.26932E+03 -3.35292E+03  4.44644E+03 -4.55178E+02  3.65316E+03  1.28092E+03  5.14247E+02  3.04981E+03
 -2.22726E+03  1.19364E+03 -2.44802E+03 -2.05006E+03  9.23503E+02 -4.50378E+03  5.22275E+03 -3.87908E+03
  6.79513E+03  4.98803E+02  6.95836E+03  4.53191E+03  2.08286E+03  7.24306E+03 -2.13574E+03  6.53209E+03
 -5.89741E+03  2.70612E+03 -6.03749E+03 -9.97397E+02 -2.97685E+03 -4.82546E+03  1.34879E+03 -4.36756E+03
  4.70684E+03 -2.18991E+03  3.52497E+03  1.57616E+03  1.28955E+03  4.05168E+03 -8.03022E+02  3.41000E+03
 -1.88190E+03  2.35052E+03 -1.54692E+03  7.29212E+02 -8.49471E+02  1.00231E+03 -1.26610E+03  1.29257E+03
 -1.82609E+03  2.78889E+03 -4.75989E+03  2.51094E+03 -6.80886E+03  1.72133E+02 -8.26144E+03 -4.61631E+03
 -4.10800E+03 -9.30446E+03  2.21086E+03 -1.05556E+04  6.44066E+03 -8.58534E+03  1.00501E+04 -3.67739E+03
  9.51250E+03  1.94507E+03  5.61187E+03  6.11131E+03  1.97760E+02  7.40370E+03 -2.87146E+03  5.21458E+03
 -4.06362E+03  2.21636E+03 -2.31873E+03 -1.04432E+03 -7.79974E+02 -5.25881E+01 -7.31743E+02  7.63647E+01
 -1.33537E+03  6.77545E+01 -1.53583E+03 -1.29167E+02 -4.53149E+02 -1.75716E+03 -3.60842E+02 -2.65781E+03
  3.22846E+03 -2.14144E+03  3.88197E+03  3.55725E+02  4.83092E+03  3.81253E+03  1.08687E+03  6.80954E+03
 -3.23356E+03  8.49869E+03 -8.02979E+03  4.87746E+03 -8.56364E+03 -5.16362E+02 -6.27582E+03 -5.34497E+03
 -2.77441E+03 -7.24030E+03  1.80636E+03 -6.63328E+03  4.40503E+03 -3.22953E+03  4.47803E+03 -1.65976E+02
  2.56558E+03  2.28318E+03 -2.40320E+02  2.01770E+03 -1.57256E+03 -2.93239E+02 -3.25572E+02 -1.49212E+03
  2.19156E+03 -8.96459E+02  2.72146E+03  1.30745E+03  1.68201E+03  2.61554E+03  2.74600E+02  3.40293E+03
 -3.42731E+03  3.07541E+03 -4.85805E+03  4.87017E+02 -4.13245E+03 -3.12207E+03 -6.67590E+02 -5.55547E+03
  2.93505E+03 -4.56920E+03  5.15902E+03 -1.48107E+03  5.43554E+03  1.34610E+03  2.69744E+03  4.21836E+03
  8.66656E+02  4.20748E+03 -1.96768E+03  3.66756E+03 -3.14814E+03  2.00939E+03 -2.39383E+03  1.51854E+02
 -1.18273E+03 -4.87789E+02 -1.27367E+03  7.29444E+02 -2.39081E+03  8.17597E+02 -3.89313E+03 -8.91525E+02
 -3.66130E+03 -2.05059E+03 -1.35159E+03 -4.82396E+03  1.95343E+03 -5.27953E+03  3.96703E+03 -2.32009E+03
  4.27152E+03  5.95633E+02  2.07412E+03  3.28063E+03 -2.60821E+02  4.43834E+03 -3.32821E+03  2.94585E+03
