 $NMID ID='MM_0lb_SNR800_15hz_g40_6.RAW', FMTDAT='(8E13.5)'
 TRAMP=1., VOLUME=1. $END
  3.10217E+05  5.04466E+02  3.37703E+05  2.50331E+05  8.45188E+04  3.37854E+05 -1.32054E+05  2.50347E+05
 -1.89754E+05  8.27217E+04 -1.11437E+05 -3.28150E+04  1.03334E+03 -5.02986E+04  5.38247E+04  4.74846E+01
  3.51955E+04  5.30458E+04 -1.67945E+04  7.52469E+04 -6.04076E+04  6.30270E+04 -8.35703E+04  3.16264E+04
 -8.04060E+04 -1.14394E+04 -5.67757E+04 -5.05373E+04 -1.48279E+04 -6.88126E+04  2.69854E+04 -4.52242E+04
  3.95472E+04  3.91812E+03  1.58634E+04  4.72900E+04 -3.43384E+04  4.65985E+04 -6.61083E+04 -3.61894E+02
 -5.26626E+04 -5.65027E+04 -6.46529E+03 -7.60991E+04  3.35771E+04 -5.40538E+04  4.71171E+04 -1.68231E+04
  4.26324E+04  1.09686E+04  3.12289E+04  2.49408E+04  1.56065E+04  2.88339E+04 -4.61141E+03  2.66160E+04
 -2.16872E+04  1.28719E+04 -1.87858E+04 -4.56877E+03  4.88907E+03 -7.31378E+03  2.16080E+04  1.14551E+04
  7.27729E+03  3.40913E+04 -3.12887E+04  3.45552E+04 -6.22851E+04  2.13513E+03 -5.63081E+04 -4.22622E+04
 -1.21569E+04 -6.23842E+04  3.91037E+04 -4.44856E+04  5.68835E+04 -1.96476E+03  3.31409E+04  3.14281E+04
 -6.40073E+03  3.46702E+04 -2.92312E+04  1.46849E+04 -2.92989E+04 -4.37988E+03 -1.55814E+04 -1.07566E+04
 -8.04589E+03 -1.22556E+04 -8.44820E+02 -1.74510E+04  6.93571E+03 -2.30703E+04  1.50037E+04 -1.35369E+04
  1.20794E+04  4.92929E+03 -7.32698E+03  1.33325E+04 -2.03996E+04 -3.53910E+03 -7.79843E+03 -3.21360E+04
  2.19928E+04 -4.19976E+04  4.62690E+04 -1.90011E+04  4.38321E+04  1.90163E+04  1.49978E+04  4.31638E+04
 -1.56100E+04  3.24412E+04 -2.45747E+04  1.47866E+03 -9.23500E+03 -2.70007E+04  2.09465E+04 -3.26994E+04
  3.96257E+04 -8.11876E+03  3.36421E+04  2.31740E+04  1.72042E+04  4.46435E+04 -7.76539E+03  4.80657E+04
 -3.02241E+04  3.19530E+04 -3.97655E+04  8.93665E+03 -4.06833E+04 -1.59156E+04 -2.22871E+04 -3.60413E+04
  7.00174E+03 -3.60548E+04  3.01613E+04 -1.38338E+04  2.81069E+04  1.08640E+04  3.44213E+03  1.85638E+04
 -1.35745E+04  8.15682E+03 -9.93799E+03 -7.46301E+03  6.18549E+03 -1.02139E+04  1.78348E+04  6.14484E+03
  1.32078E+04  2.19015E+04 -6.46368E+03  2.44331E+04 -2.17906E+04  1.02069E+04 -2.67264E+04 -5.48683E+03
 -1.85491E+04 -1.70794E+04 -7.15953E+03 -1.85746E+04  4.21168E+03 -1.76618E+04  1.42126E+04 -1.63936E+04
  2.39198E+04 -1.22687E+04  3.03211E+04  1.99066E+03  2.24893E+04  1.86213E+04  4.30040E+03  3.47996E+04
 -1.70540E+04  2.90054E+04 -2.71577E+04  1.00882E+04 -2.06405E+04 -1.01911E+04 -4.10155E+03 -1.35969E+04
  2.22729E+03 -3.30654E+03 -3.77397E+03  6.18718E+03 -1.46172E+04  5.37188E+03 -1.49021E+04 -5.90501E+03
 -9.59332E+03 -1.73613E+04  4.89197E+03 -2.14877E+04  1.41980E+04 -1.55491E+04  1.68104E+04 -1.40222E+03
  1.00754E+04  1.22992E+04 -1.08412E+03  1.75624E+04 -1.21677E+04  9.89644E+03 -1.74464E+04 -3.65363E+03
 -1.27919E+04 -1.57832E+04 -1.69996E+03 -2.13359E+04  9.60062E+03 -1.75305E+04  1.78926E+04 -8.68635E+03
  1.65507E+04  4.32224E+02  1.17128E+04  4.21651E+03  5.84022E+03  8.65314E+02  9.15928E+03 -1.21111E+03
  1.60361E+04  2.72680E+03  1.72147E+04  1.39799E+04  1.09249E+04  2.79075E+04 -2.89916E+03  3.08668E+04
 -1.80047E+04  2.44447E+04 -2.87844E+04  1.18541E+04 -2.97145E+04 -1.98896E+03 -2.52477E+04 -1.72113E+04
 -1.12011E+04 -2.44903E+04  8.73249E+03 -2.24456E+04  1.94147E+04 -1.18530E+04  1.72327E+04  4.52752E+03
  6.84756E+03  1.30847E+04 -8.25883E+03  1.15771E+04 -1.48543E+04  2.32134E+03 -1.14081E+04 -9.11992E+03
 -3.97697E+02 -1.41088E+04  7.27822E+03 -1.04838E+04  9.20410E+03 -1.36534E+03  1.59311E+03  5.90290E+03
 -6.49876E+03  1.89363E+03 -4.96108E+03 -5.00644E+03  2.64111E+02 -1.21711E+04  8.86811E+03 -1.22120E+04
  1.45608E+04 -6.18636E+03  1.52888E+04  3.00116E+03  1.33401E+04  1.18586E+04  6.32843E+03  1.75905E+04
 -2.75581E+03  1.96157E+04 -1.22679E+04  1.23203E+04 -1.39211E+04  3.13507E+03 -1.00450E+04 -2.85556E+03
 -5.19008E+03 -4.43649E+03 -6.08444E+02  1.47515E+03 -2.11600E+03  2.32045E+03 -4.63634E+03  4.15753E+03
 -9.48749E+03 -8.29538E+02 -9.91723E+03 -8.28304E+03 -4.12931E+03 -1.33101E+04  4.42068E+03 -1.01774E+04
  8.56898E+03 -4.40662E+03  6.06470E+03  2.70897E+03  3.63126E+02  3.91710E+03 -4.52473E+03 -1.26867E+02
 -4.28167E+03 -6.21508E+03 -8.66493E+02 -9.28533E+03  5.12044E+03 -1.00538E+04  1.24540E+04 -4.86479E+03
  1.45947E+04  7.52475E+02  1.07202E+04  8.26359E+03  1.83327E+03  1.09845E+04 -6.24659E+03  9.69090E+03
 -8.23371E+03  3.19222E+03 -3.99511E+03 -1.71040E+03  1.56333E+03 -2.34070E+03  5.69368E+03 -9.28450E+02
  4.74468E+03  4.24185E+03  8.46782E+02  7.94769E+03 -5.94874E+03  7.41393E+03 -9.72098E+03  1.89233E+03
 -6.19626E+03 -4.68705E+03  4.46939E+02 -8.63449E+03  4.94670E+03 -4.23724E+03  5.01027E+03  1.44581E+03
  9.64811E+02  5.09916E+03 -4.89489E+03  6.20587E+03 -7.24598E+03  2.98792E+03 -6.49051E+03 -1.81029E+03
 -4.44880E+03 -8.10521E+03  1.91057E+03 -9.91187E+03  8.29202E+03 -6.09153E+03  8.77887E+03  1.29536E+03
  5.96973E+03  7.33581E+03 -4.20130E+02  9.01607E+03 -6.95796E+03  5.33307E+03 -7.00197E+03 -8.02910E+02
 -6.76660E+03 -6.28472E+03 -1.23428E+03 -6.30054E+03  3.44183E+03 -5.59963E+03  4.27182E+03 -3.20708E+03
  3.25808E+03  6.68358E+02 -7.73494E+01  1.38706E+03  3.40840E+02 -1.19048E+03  5.53323E+02 -3.12331E+03
  5.85683E+03 -1.54476E+03  8.03061E+03  9.24855E+02  7.70295E+03  4.95354E+03  6.49649E+03  1.03531E+04
 -2.12514E+03  1.21432E+04 -1.02280E+04  9.09080E+03 -1.34650E+04  1.39948E+03 -1.06211E+04 -4.17973E+03
 -5.44529E+03 -8.67480E+03 -5.80266E+02 -7.02774E+03  2.81590E+03 -3.70353E+03  2.69232E+03 -2.97273E+03
  1.86484E+03 -1.86398E+03  2.22153E+03 -2.61060E+03  3.78763E+03 -1.74673E+03  4.63529E+03  1.85395E+02
  6.08349E+03  1.55818E+03  2.37277E+03  4.70658E+03 -1.71836E+03  4.75312E+03 -6.13066E+03  4.09407E+03
 -7.13247E+03 -1.40058E+03 -3.66884E+03 -4.89353E+03  7.16644E+01 -7.12428E+03  4.40510E+03 -7.54521E+03
  7.65835E+03 -4.36126E+03  9.50723E+03  9.02799E+02  6.90316E+03  5.80774E+03  1.21761E+03  8.61898E+03
 -3.29410E+03  7.39968E+03 -4.61182E+03  2.49453E+03 -3.04104E+03 -1.28442E+03 -1.25947E+03 -1.08992E+03
 -3.67799E+02 -6.21527E+01 -1.35125E+03  2.27539E+03 -3.14399E+03  1.46072E+03 -5.29803E+03 -5.51612E+02
 -2.56475E+03 -5.42249E+03  6.14044E+02 -6.80562E+03  4.30773E+03 -6.74603E+03  6.19733E+03 -1.75627E+03
  6.20083E+03  3.31126E+03  2.85125E+03  5.45785E+03 -1.02286E+03  6.48909E+03 -4.49055E+03  4.26446E+03
 -6.20157E+03  5.49675E+02 -5.01757E+03 -3.56263E+03 -3.90593E+02 -5.08008E+03  2.86133E+03 -4.04491E+03
  4.05863E+03 -1.54906E+03  2.90760E+03  5.25608E+02  9.57089E+02  2.07553E+03  7.37888E+02  6.57016E+02
  2.20530E+03  5.83892E+02  1.69933E+03  1.31245E+03  1.77342E+03  2.84743E+03  1.82080E+03  3.07536E+03
 -1.60376E+03  4.61598E+03 -3.88460E+03  5.78020E+03 -5.60089E+03  1.34137E+03 -6.59858E+03 -1.50077E+03
 -3.08974E+03 -5.89990E+03  9.74098E+02 -7.32302E+03  3.32700E+03 -4.20585E+03  5.10254E+03 -1.40345E+03
  3.68623E+03  2.82933E+03  5.86558E+02  3.66851E+03 -1.38484E+03  2.41394E+03 -1.83332E+03 -2.42168E+02
 -9.27185E+02 -2.62618E+03  1.77140E+03 -2.60361E+03  2.18584E+03 -1.41148E+03  2.22202E+03  5.55262E+02
  1.52185E+03  4.58105E+02  8.81790E+02  2.05022E+02 -4.81121E+02  8.27101E+02  1.78128E+03 -3.69572E+02
  5.65370E+02 -3.13587E+02  2.68132E+03  8.49717E+02  1.03739E+03  3.44382E+03 -5.35764E+02  4.18260E+03
 -2.69233E+03  2.52229E+03 -3.58139E+03  8.30538E+02 -3.83878E+03 -1.22525E+03 -6.92330E+02 -2.17880E+03
  6.72839E+02 -2.22964E+03  1.49205E+03 -9.66078E+02  1.18509E+03  1.68989E+03 -8.47917E+02  1.88475E+03
 -2.35471E+03  1.21693E+03 -2.24338E+03 -1.45878E+03 -1.51466E+03 -3.44826E+03  5.11181E+02 -2.79270E+03
  1.37703E+03 -1.47500E+03  2.12399E+03  1.11803E+02  2.14129E+03  7.61451E+02  7.67145E+02  1.91912E+03
 -8.61868E+02  5.07982E+02 -1.51439E+03 -6.80492E+02  6.17182E+02 -1.91549E+03  3.03170E+03 -1.87886E+03
  2.75043E+03  5.19783E+01  4.05704E+03  1.83432E+03  1.58776E+03  3.34432E+03 -7.50033E+02  3.29409E+03
 -2.73775E+03  1.15658E+03 -2.64530E+03 -4.88324E+02 -1.41226E+03 -2.23198E+03  4.79759E+02 -1.56584E+03
  2.49552E+03 -8.89993E+02  1.80371E+03  1.25911E+03  4.62342E+02  2.14185E+03  5.79496E+00  1.71594E+03
 -8.91669E+02  1.55256E+03 -6.12316E+02  4.09145E+02 -4.01050E+01  3.72610E+02 -8.06206E+02  1.01782E+03
 -9.44408E+02  1.54182E+03 -2.87236E+03  1.07541E+03 -3.46446E+03  3.58619E+02 -3.91577E+03 -1.94026E+03
 -1.93347E+03 -4.22703E+03  6.76111E+02 -5.39797E+03  2.93344E+03 -4.16734E+03  4.86614E+03 -1.63370E+03
  4.49207E+03  5.76781E+02  2.76715E+03  2.98474E+03 -3.06947E+02  3.16959E+03 -1.21516E+03  2.47784E+03
 -2.15897E+03  1.20980E+03 -9.99177E+02 -6.65006E+02 -6.45251E+02  7.66424E+01 -3.64063E+02  2.89736E+02
 -1.24565E+03  1.36157E+02 -1.00941E+03 -2.83045E+00 -1.61384E+02 -9.86224E+02 -2.79098E+02 -1.29124E+03
  1.72022E+03 -1.30118E+03  1.34990E+03  1.30300E+02  2.29516E+03  2.06599E+03  1.97939E+02  2.97590E+03
 -1.89881E+03  4.35564E+03 -3.40609E+03  2.33636E+03 -3.60176E+03 -3.21076E+02 -2.83621E+03 -2.45568E+03
 -1.39772E+03 -3.04433E+03  6.68955E+02 -2.82857E+03  1.57345E+03 -1.49741E+03  1.60027E+03  3.05545E+02
  1.10618E+03  9.42345E+02 -1.37546E+02  7.05794E+02 -6.98252E+02 -3.53744E+01 -1.05918E+02 -9.26432E+02
  1.08669E+03 -2.67148E+02  7.64646E+02  5.97954E+02  5.86916E+02  9.94623E+02 -2.37646E+01  1.29166E+03
 -1.33328E+03  1.55938E+03 -1.88558E+03  2.53974E+02 -1.90662E+03 -1.21067E+03 -1.73510E+02 -2.24690E+03
  1.35992E+03 -1.83360E+03  2.03978E+03  8.23461E+01  2.25066E+03 -2.68630E+02  1.54758E+03  1.80029E+03
  2.96636E+02  1.95456E+03 -5.88428E+02  1.49438E+03 -1.37422E+03  1.07672E+03 -9.92229E+02  2.35893E+02
 -6.68065E+02 -6.37794E+01 -7.96824E+02  2.91483E+02 -9.18987E+02  6.34805E+01 -1.60670E+03 -5.14421E+02
 -1.77395E+03 -4.19011E+02 -2.91472E+02 -1.76443E+03  9.75301E+02 -2.50963E+03  1.66323E+03 -6.05656E+02
  2.01683E+03  1.24402E+02  3.24926E+02  1.11035E+03 -2.70020E+02  1.69594E+03 -1.05089E+03  1.19525E+03
