 $NMID ID='MM_0lb_SNR800_17hz_g50_83.RAW', FMTDAT='(8E13.5)'
 TRAMP=1., VOLUME=1. $END
  3.09609E+05  5.61648E+02  3.37661E+05  2.50480E+05  8.46188E+04  3.37422E+05 -1.32420E+05  2.50716E+05
 -1.89897E+05  8.25202E+04 -1.11508E+05 -3.27901E+04  1.17056E+03 -5.04884E+04  5.36732E+04  5.57488E+00
  3.52835E+04  5.29811E+04 -1.68580E+04  7.51741E+04 -6.07818E+04  6.31443E+04 -8.35154E+04  3.17531E+04
 -8.01302E+04 -1.16003E+04 -5.65094E+04 -5.04430E+04 -1.50950E+04 -6.88286E+04  2.70447E+04 -4.50150E+04
  3.94637E+04  3.89459E+03  1.61959E+04  4.76153E+04 -3.42528E+04  4.67451E+04 -6.59602E+04 -2.61176E+02
 -5.26233E+04 -5.64808E+04 -6.48684E+03 -7.58378E+04  3.31343E+04 -5.39894E+04  4.69306E+04 -1.70740E+04
  4.25777E+04  1.11553E+04  3.12297E+04  2.50389E+04  1.60182E+04  2.85699E+04 -5.03335E+03  2.73990E+04
 -2.16788E+04  1.31323E+04 -1.87580E+04 -4.57626E+03  4.80594E+03 -7.63223E+03  2.17470E+04  1.15242E+04
  7.47623E+03  3.40037E+04 -3.14539E+04  3.44540E+04 -6.20119E+04  1.96490E+03 -5.59466E+04 -4.17315E+04
 -1.25570E+04 -6.19251E+04  3.86885E+04 -4.45497E+04  5.66054E+04 -2.20231E+03  3.28098E+04  3.12323E+04
 -6.35187E+03  3.41571E+04 -2.92896E+04  1.45426E+04 -2.90047E+04 -4.91694E+03 -1.54916E+04 -1.04639E+04
 -7.67526E+03 -1.20099E+04 -9.90290E+02 -1.74222E+04  6.96848E+03 -2.28514E+04  1.52216E+04 -1.36738E+04
  1.19201E+04  4.76031E+03 -7.06703E+03  1.29985E+04 -2.00242E+04 -2.91879E+03 -8.06857E+03 -3.15898E+04
  2.13774E+04 -4.16666E+04  4.62412E+04 -1.88750E+04  4.34522E+04  1.87084E+04  1.48018E+04  4.25082E+04
 -1.55468E+04  3.19380E+04 -2.43391E+04  1.30339E+03 -9.07654E+03 -2.69984E+04  2.06890E+04 -3.23605E+04
  3.94033E+04 -7.80365E+03  3.32810E+04  2.31001E+04  1.64104E+04  4.42407E+04 -7.88894E+03  4.75774E+04
 -2.99630E+04  3.19079E+04 -3.94934E+04  8.92188E+03 -4.02661E+04 -1.58096E+04 -2.21382E+04 -3.60076E+04
  6.85029E+03 -3.58827E+04  2.99855E+04 -1.37004E+04  2.77819E+04  1.07376E+04  3.63412E+03  1.83291E+04
 -1.31209E+04  7.39081E+03 -9.75854E+03 -7.61669E+03  6.03583E+03 -1.02769E+04  1.75513E+04  6.22586E+03
  1.27517E+04  2.19152E+04 -6.47311E+03  2.40727E+04 -2.18599E+04  1.02731E+04 -2.62420E+04 -5.97714E+03
 -1.83943E+04 -1.64071E+04 -7.00104E+03 -1.81776E+04  3.91437E+03 -1.65442E+04  1.40187E+04 -1.60669E+04
  2.32663E+04 -1.20743E+04  2.97061E+04  1.85413E+03  2.24042E+04  1.75857E+04  3.97141E+03  3.40369E+04
 -1.67579E+04  2.86901E+04 -2.66414E+04  9.97749E+03 -1.99109E+04 -1.06513E+04 -4.35062E+03 -1.38671E+04
  2.36675E+03 -3.36522E+03 -3.54158E+03  5.66307E+03 -1.43878E+04  5.17237E+03 -1.44690E+04 -5.64648E+03
 -9.14147E+03 -1.68434E+04  5.02094E+03 -2.08609E+04  1.35830E+04 -1.50946E+04  1.61045E+04 -1.75747E+03
  9.80881E+03  1.18295E+04 -9.13626E+02  1.68912E+04 -1.14584E+04  9.75181E+03 -1.70331E+04 -3.44674E+03
 -1.25797E+04 -1.52259E+04 -1.65902E+03 -2.06522E+04  9.29168E+03 -1.66256E+04  1.72198E+04 -8.21062E+03
  1.60971E+04  2.06377E+02  1.14217E+04  4.05061E+03  5.70227E+03  7.94238E+02  8.18212E+03 -1.44581E+03
  1.51194E+04  2.71153E+03  1.65144E+04  1.36312E+04  1.03464E+04  2.68590E+04 -2.96895E+03  2.96916E+04
 -1.73662E+04  2.28214E+04 -2.70547E+04  1.09577E+04 -2.79296E+04 -1.71666E+03 -2.37542E+04 -1.60270E+04
 -1.09195E+04 -2.31860E+04  7.78058E+03 -2.10777E+04  1.82995E+04 -1.14049E+04  1.68098E+04  4.34593E+03
  6.51764E+03  1.20647E+04 -7.85544E+03  1.11271E+04 -1.45297E+04  2.63248E+03 -1.13465E+04 -8.82384E+03
 -1.35845E+02 -1.34597E+04  6.62939E+03 -1.02460E+04  8.59060E+03 -1.40893E+03  1.53332E+03  5.58472E+03
 -6.19331E+03  1.99673E+03 -4.62046E+03 -4.95631E+03  6.78568E+01 -1.14966E+04  8.42033E+03 -1.14674E+04
  1.36399E+04 -5.70828E+03  1.41345E+04  2.76944E+03  1.19991E+04  1.08126E+04  5.74703E+03  1.64867E+04
 -2.11552E+03  1.82522E+04 -1.12385E+04  1.16091E+04 -1.26924E+04  3.11520E+03 -9.62948E+03 -2.42950E+03
 -4.80980E+03 -3.61819E+03 -8.65136E+02  1.36926E+03 -2.37826E+03  2.22183E+03 -4.40141E+03  4.01483E+03
 -8.94806E+03 -4.45297E+02 -9.61658E+03 -7.65798E+03 -4.03846E+03 -1.27083E+04  3.84344E+03 -9.47070E+03
  7.98985E+03 -4.19145E+03  5.88840E+03  2.42233E+03  6.01700E+02  3.26218E+03 -4.11317E+03 -1.00539E+02
 -4.00826E+03 -5.98923E+03 -8.18374E+02 -8.36725E+03  4.77794E+03 -9.17112E+03  1.11819E+04 -4.69426E+03
  1.31476E+04  8.88417E+02  9.93452E+03  7.13855E+03  1.97426E+03  9.86736E+03 -5.96690E+03  9.08207E+03
 -7.66803E+03  3.13491E+03 -3.87139E+03 -1.72889E+03  1.53411E+03 -2.10928E+03  5.23618E+03 -7.99477E+02
  4.81883E+03  3.46977E+03  8.33501E+02  7.11257E+03 -5.14378E+03  7.32879E+03 -9.11270E+03  1.98483E+03
 -5.35194E+03 -4.51337E+03  4.90864E+02 -7.46412E+03  4.26457E+03 -3.71501E+03  4.13516E+03  1.21622E+03
  6.74867E+02  4.02049E+03 -4.77956E+03  5.47775E+03 -6.28031E+03  2.79380E+03 -5.64551E+03 -1.75909E+03
 -3.67863E+03 -6.92247E+03  1.42586E+03 -8.40737E+03  6.96812E+03 -5.42719E+03  7.73939E+03  1.51458E+03
  4.85585E+03  6.01109E+03  4.08571E+01  8.03616E+03 -5.85699E+03  4.53624E+03 -6.16718E+03 -4.38092E+02
 -6.24535E+03 -5.69898E+03 -1.47287E+03 -6.11387E+03  2.98860E+03 -5.38790E+03  3.35484E+03 -2.84255E+03
  3.25899E+03  2.72509E+02 -1.44737E+02  1.21396E+03  4.31515E+02 -5.83247E+02  5.37077E+02 -2.52402E+03
  4.94353E+03 -1.17232E+03  6.70068E+03  8.52118E+02  6.42437E+03  3.92612E+03  5.58249E+03  8.71293E+03
 -1.98247E+03  1.01046E+04 -8.67454E+03  7.84250E+03 -1.16633E+04  1.26583E+03 -9.29258E+03 -3.16913E+03
 -4.75928E+03 -8.00832E+03 -3.14749E+02 -6.13379E+03  2.69360E+03 -3.17958E+03  2.09805E+03 -2.51953E+03
  1.53967E+03 -1.82239E+03  2.36064E+03 -2.62495E+03  3.57677E+03 -1.63917E+03  4.19184E+03  2.47077E+02
  5.21759E+03  1.54005E+03  1.53554E+03  4.11066E+03 -1.39269E+03  3.76690E+03 -4.91248E+03  3.17433E+03
 -5.92773E+03 -1.14045E+03 -2.78786E+03 -4.12330E+03  2.99014E+02 -6.24336E+03  3.51572E+03 -6.60569E+03
  6.23862E+03 -3.83559E+03  8.05828E+03  1.16294E+02  5.84340E+03  5.12929E+03  1.31839E+03  7.28403E+03
 -2.63593E+03  6.87170E+03 -4.27034E+03  2.18468E+03 -2.68282E+03 -1.20366E+03 -8.93663E+02 -6.62826E+02
 -7.61444E+02  2.68197E+02 -1.11687E+03  2.03316E+03 -2.88711E+03  1.20659E+03 -4.56415E+03 -3.31917E+02
 -2.32445E+03 -4.56625E+03  8.15391E+02 -5.65278E+03  3.14949E+03 -5.21971E+03  4.89522E+03 -1.64358E+03
  5.31961E+03  2.91360E+03  2.37625E+03  4.20409E+03 -1.15090E+03  5.60923E+03 -3.25388E+03  3.45757E+03
 -4.83927E+03  4.66345E+02 -3.77047E+03 -2.98878E+03 -2.12763E+02 -4.29290E+03  2.06550E+03 -3.18748E+03
  3.29376E+03 -1.41875E+03  2.17198E+03  4.83819E+02  6.26950E+02  2.04157E+03  8.51896E+02  7.62434E+02
  2.04392E+03  7.09744E+02  1.36022E+03  1.24835E+03  1.48934E+03  2.46848E+03  1.68019E+03  2.71142E+03
 -1.53223E+03  3.64417E+03 -3.62522E+03  5.09400E+03 -3.79366E+03  1.65356E+03 -4.94623E+03 -1.28798E+03
 -2.34402E+03 -4.66864E+03  7.49447E+02 -5.81625E+03  2.62233E+03 -3.31003E+03  3.96280E+03 -1.10638E+03
  2.99292E+03  2.28425E+03  6.13844E+02  2.95163E+03 -1.06194E+03  1.35422E+03 -1.42127E+03 -2.48751E+02
 -1.01945E+03 -1.91013E+03  1.55978E+03 -1.74806E+03  1.51564E+03 -1.09317E+03  1.66127E+03  4.90766E+02
  8.98807E+02  4.37551E+02  7.24744E+02 -2.67027E+02 -4.08194E+02  6.92875E+02  1.61095E+03 -5.01996E+02
  3.43520E+02 -3.64444E+02  1.99917E+03  5.79517E+02  6.06604E+02  2.86707E+03 -3.28931E+02  3.35099E+03
 -2.29933E+03  1.50070E+03 -2.86736E+03  5.41609E+02 -2.37923E+03 -8.94844E+02 -2.90810E+02 -1.68123E+03
  7.01468E+02 -1.62576E+03  1.17251E+03 -7.30940E+02  7.46503E+02  1.24681E+03 -7.91102E+02  1.57411E+03
 -1.91716E+03  7.92466E+02 -1.60985E+03 -1.50220E+03 -1.09303E+03 -2.49281E+03  6.83125E+01 -2.27571E+03
  5.07722E+02 -8.30998E+02  1.06320E+03  9.75841E+01  1.66411E+03 -1.73547E+02  2.13151E+02  1.28850E+03
 -5.22413E+02  2.44470E+02 -1.12390E+03 -5.50900E+02  4.69215E+02 -1.46270E+03  1.90611E+03 -1.13756E+03
  2.02473E+03  2.80361E+02  3.23868E+03  1.09231E+03  1.50499E+03  2.32092E+03 -8.70580E+02  2.58549E+03
 -2.16745E+03  5.65335E+02 -2.01906E+03 -3.42472E+02 -1.16448E+03 -1.38549E+03  3.68767E+02 -9.90307E+02
  2.08413E+03 -9.69987E+02  9.63816E+02  7.80587E+02  2.94192E+02  1.65127E+03  2.78759E+02  1.25404E+03
 -6.27202E+02  1.15634E+03 -1.75243E+02  1.89016E+02 -2.82615E+01  5.16471E+02 -6.98675E+02  7.79206E+02
 -9.53625E+02  1.18960E+03 -2.51406E+03  7.73402E+02 -2.25255E+03  2.72596E+02 -3.18058E+03 -1.36470E+03
 -1.43722E+03 -2.89103E+03  8.56121E+02 -3.86678E+03  1.61523E+03 -3.02637E+03  3.74625E+03 -1.40872E+03
  3.07481E+03  1.27046E+02  1.52803E+03  2.20297E+03 -6.94711E+02  2.02516E+03 -8.86475E+02  1.83809E+03
 -1.23911E+03  7.45326E+02 -6.55806E+02 -3.93222E+02 -6.61120E+02  3.11050E+02 -5.44338E+02 -3.57300E+02
 -1.18589E+03 -1.86033E+02 -9.91112E+02 -1.96174E+02  9.86537E+01 -6.28789E+02 -1.56824E+02 -1.12378E+03
  1.58803E+03 -9.56799E+02  8.90367E+02  2.24026E+02  1.45372E+03  1.28019E+03 -1.00179E+02  1.84652E+03
 -1.16712E+03  3.00865E+03 -1.96220E+03  1.76362E+03 -2.31584E+03 -3.60232E+02 -1.81927E+03 -1.73914E+03
 -7.52003E+02 -1.63261E+03  5.23841E+02 -1.80838E+03  1.24795E+03 -9.20499E+02  1.30050E+03  2.56172E+02
  7.35977E+02  5.00780E+02 -4.33955E+01  5.35900E+02 -7.01242E+02  2.14548E+02 -2.95786E+00 -1.59025E+02
  5.39983E+02  1.11357E+02  6.37704E+02  4.67190E+02  3.09907E+02  4.08552E+02  2.19719E+02  4.78835E+02
 -1.00057E+03  7.84667E+02 -1.02467E+03  5.13617E+01 -1.15516E+03 -8.07251E+02 -2.61600E+02 -1.53556E+03
  9.96050E+02 -1.04437E+03  6.88306E+02 -2.44822E+02  1.47994E+03 -5.44086E+02  8.74089E+02  1.11010E+03
  4.29840E+02  9.82658E+02 -4.65117E+02  9.95316E+02 -7.51087E+02  4.97406E+02 -4.70674E+02  1.59455E+02
 -1.53980E+02  5.25573E+01 -4.91799E+02  2.10734E+02 -1.00976E+03 -1.37370E+01 -1.17254E+03 -2.47901E+02
 -1.26585E+03 -4.84822E+00 -1.97881E+02 -1.25047E+03  7.50294E+02 -1.81204E+03  9.41852E+02 -4.21813E+02
  9.96506E+02  3.30972E+02 -3.88937E+01  4.08181E+02  3.54423E+01  1.33972E+03 -6.81585E+02  1.11523E+03
