 $NMID ID='MM_0lb_SNR800_11hz_g55_46.RAW', FMTDAT='(8E13.5)'
 TRAMP=1., VOLUME=1. $END
  3.09273E+05  7.00489E+02  3.38103E+05  2.50864E+05  8.48525E+04  3.38239E+05 -1.32552E+05  2.51551E+05
 -1.90693E+05  8.38450E+04 -1.12557E+05 -3.23347E+04  5.65763E+02 -5.04626E+04  5.36326E+04 -1.92392E+02
  3.51250E+04  5.26707E+04 -1.64698E+04  7.58627E+04 -6.13434E+04  6.44908E+04 -8.51165E+04  3.22829E+04
 -8.19992E+04 -1.11412E+04 -5.81906E+04 -5.22709E+04 -1.53954E+04 -7.07270E+04  2.80370E+04 -4.66758E+04
  4.09334E+04  3.74957E+03  1.65021E+04  4.82144E+04 -3.47916E+04  4.80708E+04 -6.77593E+04 -5.87983E+01
 -5.47184E+04 -5.74596E+04 -6.97429E+03 -7.82242E+04  3.46682E+04 -5.64102E+04  4.93075E+04 -1.75058E+04
  4.47512E+04  1.17547E+04  3.27308E+04  2.61453E+04  1.55936E+04  3.01719E+04 -5.38126E+03  2.77323E+04
 -2.20006E+04  1.21390E+04 -1.79919E+04 -5.42617E+03  6.28566E+03 -7.23965E+03  2.30704E+04  1.31718E+04
  7.34328E+03  3.65523E+04 -3.39961E+04  3.67831E+04 -6.51922E+04  2.03979E+03 -5.82305E+04 -4.40255E+04
 -1.27137E+04 -6.50480E+04  4.12939E+04 -4.68593E+04  6.03257E+04 -2.57047E+03  3.61650E+04  3.36712E+04
 -5.49299E+03  3.88878E+04 -3.15163E+04  1.82708E+04 -3.27779E+04 -3.80969E+03 -1.87772E+04 -1.19365E+04
 -9.19865E+03 -1.48749E+04 -6.81888E+02 -1.95723E+04  7.97089E+03 -2.37116E+04  1.57669E+04 -1.27218E+04
  1.07148E+04  6.04024E+03 -9.97363E+03  1.28614E+04 -2.30895E+04 -5.89903E+03 -8.35702E+03 -3.62701E+04
  2.45538E+04 -4.58903E+04  5.08379E+04 -2.04171E+04  4.78701E+04  2.07975E+04  1.65858E+04  4.63780E+04
 -1.66270E+04  3.56133E+04 -2.72042E+04  2.52913E+03 -1.10975E+04 -2.92997E+04  2.19086E+04 -3.61791E+04
  4.33027E+04 -1.07016E+04  3.91986E+04  2.48093E+04  2.05837E+04  4.99014E+04 -8.00401E+03  5.42803E+04
 -3.46478E+04  3.71752E+04 -4.64196E+04  1.04871E+04 -4.63417E+04 -1.78954E+04 -2.53455E+04 -4.10940E+04
  7.38674E+03 -4.10665E+04  3.34105E+04 -1.68734E+04  3.15451E+04  1.09809E+04  4.77964E+03  2.02860E+04
 -1.38943E+04  9.38731E+03 -1.11031E+04 -7.56976E+03  5.58052E+03 -1.13227E+04  1.82760E+04  5.44588E+03
  1.42866E+04  2.24596E+04 -5.33414E+03  2.63828E+04 -2.31916E+04  1.36585E+04 -3.03846E+04 -3.33659E+03
 -2.39971E+04 -1.77094E+04 -1.10035E+04 -2.36450E+04  4.01049E+03 -2.39152E+04  1.87345E+04 -2.15294E+04
  3.05354E+04 -1.38647E+04  3.62855E+04  4.39448E+03  2.62496E+04  2.31765E+04  4.34217E+03  3.96268E+04
 -1.94434E+04  3.28444E+04 -2.98270E+04  1.14169E+04 -2.19268E+04 -9.80116E+03 -5.02554E+03 -1.32554E+04
  1.21153E+03 -1.78686E+03 -6.83837E+03  7.94342E+03 -1.93205E+04  5.20820E+03 -1.89956E+04 -8.94556E+03
 -1.10740E+04 -2.21007E+04  5.73746E+03 -2.62125E+04  1.77349E+04 -1.86437E+04  2.11626E+04 -1.49045E+03
  1.35144E+04  1.51776E+04 -1.46737E+03  2.19933E+04 -1.55534E+04  1.26017E+04 -2.26751E+04 -4.65141E+03
 -1.64587E+04 -1.99119E+04 -1.94327E+03 -2.64353E+04  1.16385E+04 -2.18038E+04  2.20694E+04 -1.14451E+04
  2.05972E+04 -6.78246E+01  1.50354E+04  5.06770E+03  8.14211E+03  1.41518E+03  1.12243E+04 -2.07836E+03
  2.07034E+04  2.94693E+03  2.32156E+04  1.75392E+04  1.58528E+04  3.54869E+04 -2.61345E+03  4.14399E+04
 -2.34091E+04  3.42432E+04 -3.85098E+04  1.73970E+04 -4.10565E+04 -3.28346E+03 -3.34553E+04 -2.39600E+04
 -1.34632E+04 -3.45240E+04  1.20015E+04 -3.04250E+04  2.56518E+04 -1.46452E+04  2.27654E+04  7.50713E+03
  7.86378E+03  1.73241E+04 -1.13442E+04  1.46748E+04 -1.88459E+04  2.55932E+03 -1.42012E+04 -1.17325E+04
 -2.61171E+02 -1.78651E+04  9.30160E+03 -1.37285E+04  1.24528E+04 -1.17199E+03  2.99313E+03  7.78681E+03
 -8.17357E+03  3.85006E+03 -8.02125E+03 -6.11177E+03 -1.71695E+03 -1.70018E+04  1.17296E+04 -1.79454E+04
  2.08910E+04 -9.95818E+03  2.35553E+04  2.91073E+03  2.03572E+04  1.69298E+04  9.31213E+03  2.64850E+04
 -4.53512E+03  2.84055E+04 -1.84760E+04  1.75969E+04 -2.02519E+04  3.89000E+03 -1.38601E+04 -4.96594E+03
 -5.98428E+03 -6.19625E+03 -6.56923E+02  7.15412E+02 -2.75200E+03  3.16535E+03 -6.71174E+03  5.31177E+03
 -1.32362E+04 -6.87814E+02 -1.37553E+04 -1.07848E+04 -5.51846E+03 -1.78793E+04  6.44210E+03 -1.44772E+04
  1.19366E+04 -5.95768E+03  8.03019E+03  3.90071E+03 -1.55781E+02  5.82998E+03 -6.96573E+03 -2.38797E+02
 -6.79193E+03 -9.06640E+03 -8.33246E+02 -1.37599E+04  8.14708E+03 -1.45521E+04  1.80114E+04 -8.40622E+03
  2.11958E+04  2.09644E+03  1.55919E+04  1.27538E+04  2.96749E+03  1.71045E+04 -8.65700E+03  1.39451E+04
 -1.11949E+04  4.14123E+03 -5.54585E+03 -2.79581E+03  1.96658E+03 -3.89720E+03  7.23771E+03 -1.00090E+03
  7.01888E+03  6.57108E+03  1.00793E+03  1.12233E+04 -8.36169E+03  1.06359E+04 -1.38817E+04  2.50696E+03
 -9.75898E+03 -7.21872E+03  1.84109E+02 -1.19824E+04  7.78307E+03 -6.08203E+03  7.78992E+03  2.84477E+03
  1.94929E+03  8.68051E+03 -6.93065E+03  1.05906E+04 -1.17941E+04  4.53404E+03 -1.19491E+04 -4.29621E+03
 -6.98053E+03 -1.39919E+04  3.53046E+03 -1.57978E+04  1.37090E+04 -9.68136E+03  1.46194E+04  2.89827E+03
  8.49124E+03  1.13545E+04 -1.12113E+03  1.39288E+04 -9.83499E+03  8.20242E+03 -1.12570E+04 -7.61346E+02
 -9.92510E+03 -9.26694E+03 -1.95594E+03 -1.07864E+04  5.79860E+03 -8.49550E+03  6.49110E+03 -3.47671E+03
  4.65461E+03  1.74640E+03 -9.27196E+02  1.85318E+03 -4.15793E+02 -2.64833E+03  1.69684E+03 -6.26705E+03
  9.49594E+03 -3.86507E+03  1.38266E+04  1.44373E+03  1.32433E+04  9.17544E+03  8.69005E+03  1.82762E+04
 -3.83785E+03  2.02504E+04 -1.72428E+04  1.53770E+04 -2.20666E+04  2.95038E+03 -1.77391E+04 -7.56881E+03
 -9.37325E+03 -1.46623E+04 -1.99897E+02 -1.24990E+04  4.69430E+03 -7.17018E+03  4.08756E+03 -4.39698E+03
  3.34631E+03 -2.78264E+03  3.71248E+03 -3.45508E+03  5.39296E+03 -3.08215E+03  7.12865E+03 -9.97037E+02
  9.27074E+03  2.16419E+03  4.50985E+03  7.83285E+03 -1.96575E+03  9.68841E+03 -9.46711E+03  7.13296E+03
 -1.24506E+04 -1.40210E+03 -7.49494E+03 -8.83213E+03 -9.59508E+02 -1.31113E+04  7.01656E+03 -1.31031E+04
  1.37573E+04 -7.17117E+03  1.67452E+04  2.54232E+03  1.12050E+04  1.15208E+04  1.62825E+03  1.52277E+04
 -5.90534E+03  1.22639E+04 -8.48072E+03  4.18505E+03 -5.49525E+03 -1.59360E+03 -2.61795E+03 -1.91811E+03
 -1.36202E+03 -2.00819E+02 -2.14260E+03  2.54766E+03 -5.08594E+03  1.98592E+03 -8.50870E+03 -1.24693E+03
 -5.79119E+03 -8.62229E+03  5.15438E+02 -1.24739E+04  7.59789E+03 -1.13182E+04  1.17569E+04 -3.33132E+03
  1.19321E+04  5.84863E+03  5.84666E+03  1.07003E+04 -2.10464E+03  1.23300E+04 -8.67058E+03  7.45990E+03
 -1.10854E+04  4.78971E+02 -9.09090E+03 -7.52859E+03 -8.11939E+02 -1.00237E+04  5.21730E+03 -7.69711E+03
  7.60679E+03 -2.47722E+03  5.27717E+03  2.04053E+03  1.79683E+03  3.70080E+03  1.11415E+03  1.19086E+03
  2.61913E+03  9.97583E+02  2.87514E+03  1.94586E+03  3.37777E+03  4.26508E+03  3.30884E+03  6.14891E+03
 -2.22341E+03  9.62544E+03 -8.44967E+03  9.81341E+03 -1.24259E+04  2.74043E+03 -1.26113E+04 -4.58666E+03
 -6.34291E+03 -1.22177E+04  1.40761E+03 -1.29650E+04  7.13625E+03 -8.18585E+03  1.00606E+04 -2.27401E+03
  7.58755E+03  4.79854E+03  1.78466E+03  7.05303E+03 -3.33967E+03  4.35741E+03 -4.52454E+03 -8.64313E+02
 -2.41480E+03 -5.09996E+03  2.59991E+03 -4.76422E+03  4.83295E+03 -2.22768E+03  4.82757E+03  1.43572E+03
  2.91083E+03  2.51829E+03  1.29384E+03  1.77424E+03 -4.78794E+02  1.96263E+03  1.80632E+03 -9.76787E+01
  1.86549E+03 -5.67208E+02  4.59708E+03  2.19896E+03  2.69211E+03  7.01175E+03 -6.38271E+02  8.42272E+03
 -5.62769E+03  5.57704E+03 -7.48033E+03  1.69320E+03 -6.80433E+03 -2.48191E+03 -2.70475E+03 -4.54681E+03
  9.23349E+02 -4.41553E+03  3.32389E+03 -2.12737E+03  2.73386E+03  2.41407E+03 -1.24206E+03  3.95701E+03
 -4.75688E+03  2.26754E+03 -5.25446E+03 -3.14901E+03 -3.00127E+03 -6.75679E+03  9.44629E+02 -6.36818E+03
  4.07509E+03 -4.11369E+03  4.57948E+03 -4.16815E+02  4.25470E+03  1.65709E+03  8.13456E+02  3.57675E+03
 -2.24796E+03  9.62437E+02 -2.74408E+03 -2.24419E+03  1.16737E+03 -4.66035E+03  5.63904E+03 -4.16151E+03
  7.46520E+03  5.87602E+02  7.67894E+03  4.49085E+03  2.44235E+03  7.33464E+03 -2.46526E+03  7.02148E+03
 -6.04300E+03  3.10345E+03 -6.62425E+03 -7.96959E+02 -3.59938E+03 -5.13304E+03  1.17714E+03 -4.71675E+03
  4.72399E+03 -2.52934E+03  4.26442E+03  2.24360E+03  1.21488E+03  4.21336E+03 -2.94424E+02  3.75475E+03
 -1.84874E+03  2.56271E+03 -1.74855E+03  8.52391E+02 -9.42804E+02  3.90151E+02 -1.59894E+03  1.46437E+03
 -1.73511E+03  2.96882E+03 -5.23091E+03  2.29911E+03 -7.57160E+03 -4.47896E+01 -8.51178E+03 -4.90638E+03
 -4.54289E+03 -9.95807E+03  1.80591E+03 -1.16073E+04  6.91120E+03 -8.72818E+03  1.04828E+04 -3.14689E+03
  1.00677E+04  1.73458E+03  6.28712E+03  6.56596E+03  2.84602E+02  7.85167E+03 -3.28609E+03  5.74081E+03
 -3.93173E+03  2.27557E+03 -2.45734E+03 -9.49887E+02 -8.73722E+02 -7.66276E+02 -6.60500E+02 -8.99204E+01
 -1.55832E+03 -4.02501E-01 -1.61180E+03 -1.37827E+02 -3.82839E+02 -1.75708E+03  4.94601E+02 -2.77486E+03
  3.39466E+03 -2.33598E+03  4.10136E+03  9.88009E+01  5.49469E+03  3.81909E+03  1.32084E+03  7.30109E+03
 -3.76761E+03  9.05563E+03 -7.75246E+03  5.24330E+03 -8.90536E+03 -5.62265E+02 -6.89441E+03 -5.91470E+03
 -2.96601E+03 -7.45285E+03  2.13428E+03 -7.14383E+03  4.99555E+03 -3.73995E+03  5.05712E+03  3.30416E+02
  2.53391E+03  2.42438E+03 -4.81650E+02  1.96395E+03 -1.50115E+03 -2.74671E+02 -3.64886E+00 -1.65136E+03
  2.59382E+03 -8.33046E+02  2.66385E+03  4.51857E+02  2.01810E+03  2.88447E+03  1.44235E+02  3.50232E+03
 -3.52661E+03  3.36792E+03 -5.16048E+03  4.17304E+01 -4.48015E+03 -3.44596E+03 -7.50358E+02 -6.42329E+03
  3.64872E+03 -4.66472E+03  5.58555E+03 -1.60678E+03  5.41023E+03  1.02769E+03  3.10562E+03  4.40899E+03
  9.26570E+02  4.44487E+03 -1.88596E+03  3.70471E+03 -3.13750E+03  2.00282E+03 -2.72786E+03  4.52986E+02
 -1.49494E+03 -2.27905E+02 -1.56143E+03  4.65852E+02 -2.75870E+03  8.67192E+02 -3.66732E+03 -1.01135E+03
 -3.77589E+03 -2.14163E+03 -1.53570E+03 -4.90158E+03  1.90068E+03 -5.16203E+03  4.14822E+03 -2.35990E+03
  4.81336E+03  3.97702E+02  2.25006E+03  3.38993E+03 -3.08012E+02  4.73361E+03 -3.23011E+03  3.06068E+03
