 $NMID ID='MM_0lb_SNR800_10hz_g40_89.RAW', FMTDAT='(8E13.5)'
 TRAMP=1., VOLUME=1. $END
  3.10002E+05  4.72795E+02  3.37872E+05  2.50691E+05  8.49786E+04  3.38374E+05 -1.32571E+05  2.51341E+05
 -1.90804E+05  8.34303E+04 -1.12153E+05 -3.19754E+04  6.21858E+02 -5.05097E+04  5.39789E+04 -4.20904E+02
  3.52146E+04  5.28258E+04 -1.64262E+04  7.60241E+04 -6.11885E+04  6.42689E+04 -8.47725E+04  3.20124E+04
 -8.16567E+04 -1.13229E+04 -5.77844E+04 -5.20137E+04 -1.51770E+04 -7.04833E+04  2.78943E+04 -4.61241E+04
  4.06255E+04  3.96103E+03  1.65602E+04  4.81977E+04 -3.45238E+04  4.73369E+04 -6.78373E+04 -5.88909E+00
 -5.44385E+04 -5.74521E+04 -7.40924E+03 -7.77988E+04  3.45579E+04 -5.64316E+04  4.90665E+04 -1.78548E+04
  4.48551E+04  1.17032E+04  3.25808E+04  2.59066E+04  1.60076E+04  3.03229E+04 -5.83198E+03  2.72048E+04
 -2.19895E+04  1.25916E+04 -1.82965E+04 -5.09572E+03  6.35599E+03 -7.04305E+03  2.31649E+04  1.31333E+04
  7.14215E+03  3.67051E+04 -3.35785E+04  3.67180E+04 -6.50128E+04  2.18559E+03 -5.78728E+04 -4.37693E+04
 -1.26869E+04 -6.49339E+04  4.08777E+04 -4.65967E+04  6.01725E+04 -2.56204E+03  3.52361E+04  3.35511E+04
 -5.75457E+03  3.79210E+04 -3.12667E+04  1.77088E+04 -3.19659E+04 -4.14103E+03 -1.80485E+04 -1.14044E+04
 -8.97988E+03 -1.44801E+04 -5.75701E+02 -1.88381E+04  8.00109E+03 -2.33010E+04  1.55260E+04 -1.30868E+04
  1.07715E+04  5.70275E+03 -9.52579E+03  1.29195E+04 -2.28998E+04 -5.69048E+03 -8.80012E+03 -3.55301E+04
  2.41969E+04 -4.56566E+04  5.03098E+04 -2.02627E+04  4.72302E+04  2.03543E+04  1.69475E+04  4.59401E+04
 -1.62774E+04  3.50429E+04 -2.68093E+04  2.45586E+03 -1.10086E+04 -2.89318E+04  2.13674E+04 -3.58667E+04
  4.34595E+04 -1.04642E+04  3.82450E+04  2.49100E+04  1.98209E+04  4.93729E+04 -8.61005E+03  5.39811E+04
 -3.39560E+04  3.65606E+04 -4.53258E+04  1.07800E+04 -4.57999E+04 -1.76866E+04 -2.53682E+04 -4.00967E+04
  7.84782E+03 -4.03202E+04  3.30684E+04 -1.58997E+04  3.08521E+04  1.12231E+04  4.41490E+03  2.04181E+04
 -1.38509E+04  9.13642E+03 -1.09346E+04 -7.45748E+03  5.70615E+03 -1.12249E+04  1.84637E+04  5.74347E+03
  1.43298E+04  2.23441E+04 -5.72097E+03  2.66509E+04 -2.25607E+04  1.30094E+04 -3.03322E+04 -3.35290E+03
 -2.35021E+04 -1.83155E+04 -1.03491E+04 -2.33700E+04  4.19876E+03 -2.32069E+04  1.79676E+04 -2.11990E+04
  2.98638E+04 -1.38521E+04  3.57715E+04  3.99607E+03  2.58157E+04  2.24524E+04  4.35899E+03  3.92756E+04
 -1.94562E+04  3.26781E+04 -2.94600E+04  1.12477E+04 -2.19729E+04 -1.06696E+04 -5.00926E+03 -1.30000E+04
  1.04151E+03 -1.95048E+03 -6.51342E+03  7.75247E+03 -1.83909E+04  5.30511E+03 -1.84859E+04 -8.69688E+03
 -1.11335E+04 -2.16423E+04  5.65516E+03 -2.59462E+04  1.75499E+04 -1.80816E+04  2.12092E+04 -1.66521E+03
  1.32278E+04  1.49999E+04 -1.05896E+03  2.19107E+04 -1.54299E+04  1.20694E+04 -2.17191E+04 -4.41705E+03
 -1.60696E+04 -1.96458E+04 -2.22598E+03 -2.61683E+04  1.16962E+04 -2.13093E+04  2.14130E+04 -1.09736E+04
  2.01029E+04  1.01391E+02  1.48433E+04  4.89195E+03  8.03622E+03  1.05085E+03  1.10269E+04 -2.08854E+03
  2.06340E+04  2.69442E+03  2.30062E+04  1.71022E+04  1.51598E+04  3.50465E+04 -3.04839E+03  4.03034E+04
 -2.30841E+04  3.31679E+04 -3.79899E+04  1.69321E+04 -4.01370E+04 -2.81013E+03 -3.27112E+04 -2.34607E+04
 -1.35679E+04 -3.33289E+04  1.16612E+04 -2.96638E+04  2.56293E+04 -1.40726E+04  2.23609E+04  6.75542E+03
  7.86106E+03  1.67996E+04 -1.05170E+04  1.44744E+04 -1.84352E+04  2.60914E+03 -1.43119E+04 -1.14376E+04
 -1.58454E+02 -1.74903E+04  9.50404E+03 -1.30823E+04  1.22883E+04 -1.27296E+03  2.80958E+03  8.00398E+03
 -7.97521E+03  3.50824E+03 -8.41750E+03 -6.51163E+03 -1.61826E+03 -1.63140E+04  1.10595E+04 -1.77569E+04
  2.04350E+04 -9.96722E+03  2.26305E+04  3.14148E+03  2.00134E+04  1.65475E+04  9.44170E+03  2.54463E+04
 -4.81226E+03  2.77399E+04 -1.79544E+04  1.67876E+04 -2.02517E+04  3.94255E+03 -1.35697E+04 -5.09813E+03
 -6.19532E+03 -6.26329E+03 -5.73245E+02  6.50234E+02 -2.70285E+03  3.06881E+03 -6.53091E+03  5.39799E+03
 -1.30354E+04 -9.76985E+02 -1.35445E+04 -1.07856E+04 -5.36413E+03 -1.76750E+04  5.60683E+03 -1.42481E+04
  1.18448E+04 -5.77886E+03  7.96567E+03  3.57846E+03 -4.92978E+01  5.25920E+03 -6.88955E+03 -8.36760E+01
 -6.30763E+03 -9.13843E+03 -1.16276E+03 -1.38652E+04  7.77223E+03 -1.42458E+04  1.82992E+04 -7.99253E+03
  2.05352E+04  1.81044E+03  1.53443E+04  1.28173E+04  3.02377E+03  1.70785E+04 -8.62121E+03  1.38238E+04
 -1.15730E+04  3.65666E+03 -5.82775E+03 -2.81122E+03  2.66308E+03 -3.61123E+03  7.52945E+03 -9.78680E+02
  7.12843E+03  6.15931E+03  1.37714E+03  1.11834E+04 -8.15940E+03  1.09244E+04 -1.37334E+04  2.52392E+03
 -9.18709E+03 -7.33544E+03  3.62833E+01 -1.19353E+04  7.61776E+03 -6.39888E+03  8.04784E+03  2.83294E+03
  1.92469E+03  8.41032E+03 -7.53581E+03  9.91508E+03 -1.16867E+04  4.75835E+03 -1.20950E+04 -4.06282E+03
 -7.18649E+03 -1.34394E+04  3.37911E+03 -1.57390E+04  1.31180E+04 -9.23438E+03  1.45647E+04  2.35547E+03
  8.59537E+03  1.17899E+04 -1.37729E+03  1.40387E+04 -1.00158E+04  7.95825E+03 -1.09248E+04 -1.22228E+03
 -9.76398E+03 -9.36050E+03 -1.43333E+03 -1.08987E+04  5.40787E+03 -8.61338E+03  6.66071E+03 -3.43779E+03
  4.57277E+03  1.82837E+03 -1.04954E+03  1.71932E+03 -7.74333E+02 -2.68158E+03  2.17296E+03 -6.04514E+03
  9.68624E+03 -3.66102E+03  1.34852E+04  1.61742E+03  1.33093E+04  9.65657E+03  9.25877E+03  1.77662E+04
 -4.08347E+03  2.02799E+04 -1.71217E+04  1.51282E+04 -2.18545E+04  2.57343E+03 -1.76015E+04 -7.67717E+03
 -8.94932E+03 -1.43778E+04 -1.07644E+02 -1.22881E+04  4.52308E+03 -7.10711E+03  4.29358E+03 -4.20596E+03
  3.00580E+03 -2.42045E+03  3.50514E+03 -3.62411E+03  5.07552E+03 -2.86516E+03  7.08231E+03 -8.30424E+02
  9.02615E+03  1.97666E+03  4.88733E+03  8.04421E+03 -1.76534E+03  9.81507E+03 -9.84120E+03  7.13638E+03
 -1.26594E+04 -1.24306E+03 -7.65526E+03 -8.56401E+03 -5.78867E+02 -1.30365E+04  7.44226E+03 -1.33213E+04
  1.41462E+04 -7.54691E+03  1.66303E+04  2.19268E+03  1.10815E+04  1.14626E+04  1.64509E+03  1.51551E+04
 -6.09412E+03  1.25527E+04 -8.84380E+03  4.11407E+03 -5.84470E+03 -1.61341E+03 -2.27771E+03 -1.77507E+03
 -1.15007E+03 -1.85580E+02 -1.65141E+03  2.45133E+03 -4.89080E+03  2.37532E+03 -8.31022E+03 -1.19714E+03
 -6.14575E+03 -8.60703E+03  8.51230E+01 -1.21858E+04  7.91481E+03 -1.16098E+04  1.18776E+04 -3.54359E+03
  1.21180E+04  5.86215E+03  5.73446E+03  1.09782E+04 -2.34529E+03  1.26135E+04 -8.83417E+03  7.64582E+03
 -1.18456E+04  4.84372E+02 -9.21475E+03 -7.27476E+03 -9.97546E+02 -1.00763E+04  5.25412E+03 -7.60149E+03
  7.71104E+03 -2.68017E+03  5.55305E+03  1.97435E+03  2.13887E+03  3.60092E+03  1.27398E+03  1.63447E+03
  2.33140E+03  9.84818E+02  3.21107E+03  1.83647E+03  4.06090E+03  4.65150E+03  3.10668E+03  6.62814E+03
 -2.32054E+03  9.93613E+03 -8.70973E+03  1.02304E+04 -1.26286E+04  2.62163E+03 -1.25663E+04 -4.84482E+03
 -5.85906E+03 -1.22182E+04  1.84564E+03 -1.39338E+04  7.41874E+03 -8.81656E+03  9.89535E+03 -2.40175E+03
  8.13039E+03  4.62627E+03  1.91556E+03  7.12420E+03 -3.48461E+03  4.54370E+03 -5.19827E+03 -1.01630E+03
 -2.36404E+03 -5.13715E+03  2.81664E+03 -5.58521E+03  5.06346E+03 -2.77979E+03  4.91675E+03  1.27084E+03
  2.96941E+03  2.78361E+03  1.06580E+03  1.56181E+03 -6.17235E+02  1.86451E+03  1.57741E+03 -7.45139E+02
  1.88267E+03 -4.38843E+02  5.01874E+03  1.97205E+03  2.39448E+03  6.77972E+03 -7.40551E+02  8.68767E+03
 -6.06420E+03  5.27580E+03 -7.74337E+03  1.66344E+03 -6.82859E+03 -2.53315E+03 -2.66271E+03 -4.86841E+03
  9.75682E+02 -4.91203E+03  3.35533E+03 -2.11346E+03  3.03427E+03  2.50639E+03 -1.33675E+03  3.92442E+03
 -5.31436E+03  2.57121E+03 -6.07617E+03 -3.07524E+03 -3.39267E+03 -6.70800E+03  5.58801E+02 -6.74254E+03
  3.79091E+03 -3.97500E+03  4.99228E+03 -4.26520E+02  4.09376E+03  1.48154E+03  5.29210E+02  3.96119E+03
 -2.58263E+03  1.13372E+03 -3.10281E+03 -2.65677E+03  1.40144E+03 -5.18522E+03  5.79726E+03 -4.44713E+03
  7.66857E+03  4.15632E+02  7.72312E+03  5.05384E+03  2.56509E+03  7.81373E+03 -2.96098E+03  7.60091E+03
 -6.22477E+03  3.00147E+03 -6.57838E+03 -1.16299E+03 -3.80369E+03 -5.10178E+03  1.19977E+03 -4.59406E+03
  5.16915E+03 -2.20219E+03  3.99034E+03  2.17540E+03  1.55993E+03  4.62614E+03 -8.07650E+02  3.89097E+03
 -1.71111E+03  2.46531E+03 -1.68428E+03  5.70044E+02 -5.85537E+02  1.15038E+03 -1.39518E+03  1.78593E+03
 -1.99353E+03  3.05746E+03 -5.50668E+03  2.73743E+03 -7.85357E+03  3.93804E+02 -9.48386E+03 -5.04267E+03
 -4.51338E+03 -1.05494E+04  2.28999E+03 -1.23459E+04  7.73249E+03 -9.40761E+03  1.13324E+04 -3.80616E+03
  1.05660E+04  2.22651E+03  6.46748E+03  7.13260E+03  3.73217E+02  8.47136E+03 -2.84568E+03  5.90936E+03
 -4.37087E+03  2.37415E+03 -2.69031E+03 -9.94867E+02 -1.37301E+03 -6.76458E+02 -9.04539E+02 -1.47400E+02
 -1.74098E+03  2.81748E+02 -1.67448E+03 -1.26114E+02 -5.02806E+02 -1.86499E+03  1.21037E+02 -3.35407E+03
  3.73145E+03 -2.44044E+03  5.08978E+03  1.59586E+01  6.04460E+03  4.45423E+03  1.23764E+03  8.34804E+03
 -3.72905E+03  9.37896E+03 -8.65639E+03  5.73555E+03 -1.03023E+04 -1.12825E+03 -7.45900E+03 -6.23477E+03
 -3.30003E+03 -8.00484E+03  1.99995E+03 -7.78176E+03  5.22668E+03 -4.18752E+03  5.25105E+03  7.16927E+01
  3.09037E+03  2.73670E+03 -4.57676E+02  2.82683E+03 -1.74201E+03  1.19095E+02  2.02394E+02 -2.05332E+03
  2.58527E+03 -1.02615E+03  2.77437E+03  1.01746E+03  1.80090E+03  3.14928E+03  2.60892E+02  4.19600E+03
 -3.86618E+03  3.48974E+03 -5.13695E+03  5.49384E+02 -4.80850E+03 -3.82747E+03 -7.43919E+02 -7.12590E+03
  3.91723E+03 -5.61941E+03  6.22766E+03 -1.76306E+03  6.04402E+03  9.92000E+02  3.94369E+03  4.90902E+03
  7.39714E+02  5.31057E+03 -2.12421E+03  4.78945E+03 -3.46681E+03  2.25768E+03 -2.70633E+03  8.60532E+02
 -1.53761E+03 -3.17980E+02 -1.24233E+03  4.39164E+02 -3.10164E+03  1.21689E+03 -4.22542E+03 -7.79869E+02
 -4.33346E+03 -2.47626E+03 -8.11001E+02 -5.68791E+03  2.78305E+03 -6.07264E+03  4.74840E+03 -2.74922E+03
  5.59360E+03  6.28984E+02  2.20236E+03  3.74585E+03 -3.98255E+02  5.55361E+03 -4.10664E+03  3.86163E+03
