 $NMID ID='MM_0lb_SNR800_10hz_g60_24.RAW', FMTDAT='(8E13.5)'
 TRAMP=1., VOLUME=1. $END
  3.09990E+05  8.06982E+02  3.37420E+05  2.51017E+05  8.50878E+04  3.38780E+05 -1.32620E+05  2.52186E+05
 -1.90679E+05  8.35656E+04 -1.12009E+05 -3.25509E+04  3.75838E+02 -5.09207E+04  5.38806E+04 -7.28128E+02
  3.60082E+04  5.28893E+04 -1.66804E+04  7.62385E+04 -6.13951E+04  6.49354E+04 -8.54252E+04  3.25495E+04
 -8.23098E+04 -1.15908E+04 -5.81319E+04 -5.25267E+04 -1.50806E+04 -7.12851E+04  2.84011E+04 -4.69149E+04
  4.14899E+04  3.90487E+03  1.68200E+04  4.81086E+04 -3.48164E+04  4.80643E+04 -6.82389E+04  1.73958E+02
 -5.47815E+04 -5.78008E+04 -7.39480E+03 -7.93145E+04  3.49125E+04 -5.75339E+04  5.03125E+04 -1.83006E+04
  4.55268E+04  1.15929E+04  3.29320E+04  2.61661E+04  1.60672E+04  3.09729E+04 -5.91507E+03  2.76428E+04
 -2.23453E+04  1.20377E+04 -1.81681E+04 -5.50815E+03  6.81964E+03 -7.39244E+03  2.36765E+04  1.40933E+04
  7.02398E+03  3.79035E+04 -3.42063E+04  3.69858E+04 -6.57875E+04  2.20807E+03 -5.88818E+04 -4.48232E+04
 -1.24923E+04 -6.58875E+04  4.18600E+04 -4.71664E+04  6.14737E+04 -2.62942E+03  3.70869E+04  3.43263E+04
 -5.34017E+03  3.96176E+04 -3.16876E+04  1.91847E+04 -3.31457E+04 -3.60679E+03 -1.94774E+04 -1.21173E+04
 -9.38177E+03 -1.55062E+04 -3.47749E+02 -2.00276E+04  8.61860E+03 -2.31176E+04  1.60284E+04 -1.23580E+04
  1.04019E+04  6.42952E+03 -1.06408E+04  1.26282E+04 -2.37445E+04 -6.81451E+03 -8.06555E+03 -3.76209E+04
  2.54010E+04 -4.66524E+04  5.25441E+04 -2.10318E+04  4.88324E+04  2.14801E+04  1.69495E+04  4.71637E+04
 -1.65911E+04  3.58973E+04 -2.76128E+04  3.09018E+03 -1.19947E+04 -2.94520E+04  2.12874E+04 -3.68167E+04
  4.44989E+04 -1.10612E+04  4.05839E+04  2.54330E+04  2.18989E+04  5.13882E+04 -8.23687E+03  5.64786E+04
 -3.57040E+04  3.83361E+04 -4.77072E+04  1.14579E+04 -4.83355E+04 -1.86022E+04 -2.63293E+04 -4.20305E+04
  7.91488E+03 -4.22555E+04  3.41940E+04 -1.74953E+04  3.22873E+04  1.10979E+04  5.09922E+03  2.10048E+04
 -1.40652E+04  9.84897E+03 -1.12275E+04 -7.58046E+03  5.70171E+03 -1.13061E+04  1.90198E+04  5.70313E+03
  1.52146E+04  2.32181E+04 -5.00855E+03  2.69557E+04 -2.35558E+04  1.47710E+04 -3.15646E+04 -2.44404E+03
 -2.58744E+04 -1.81511E+04 -1.13966E+04 -2.53267E+04  4.35054E+03 -2.61254E+04  2.03561E+04 -2.32002E+04
  3.25332E+04 -1.46670E+04  3.82849E+04  4.97299E+03  2.70889E+04  2.49025E+04  4.78588E+03  4.14128E+04
 -1.96076E+04  3.42120E+04 -3.04043E+04  1.20799E+04 -2.23803E+04 -1.02673E+04 -4.87065E+03 -1.32317E+04
  7.91153E+02 -1.23006E+03 -7.90613E+03  7.98697E+03 -1.99744E+04  5.13748E+03 -2.02336E+04 -9.39021E+03
 -1.17168E+04 -2.32314E+04  5.92236E+03 -2.80532E+04  1.90868E+04 -1.96851E+04  2.29367E+04 -1.59775E+03
  1.46187E+04  1.64875E+04 -1.30914E+03  2.31127E+04 -1.63690E+04  1.34623E+04 -2.34930E+04 -4.96782E+03
 -1.71341E+04 -2.07487E+04 -2.08666E+03 -2.80388E+04  1.28822E+04 -2.33988E+04  2.27199E+04 -1.24572E+04
  2.20985E+04 -5.09978E+01  1.59013E+04  5.12251E+03  8.74242E+03  1.39556E+03  1.22849E+04 -2.44600E+03
  2.17982E+04  2.63876E+03  2.59273E+04  1.81951E+04  1.73902E+04  3.78979E+04 -2.50023E+03  4.43719E+04
 -2.52526E+04  3.71005E+04 -4.19644E+04  1.94547E+04 -4.47726E+04 -3.05656E+03 -3.63642E+04 -2.61162E+04
 -1.44919E+04 -3.70329E+04  1.29686E+04 -3.26393E+04  2.82025E+04 -1.54669E+04  2.41963E+04  7.72606E+03
  8.24295E+03  1.85809E+04 -1.19084E+04  1.56989E+04 -1.99864E+04  2.62901E+03 -1.54569E+04 -1.29503E+04
 -3.12946E+02 -1.97037E+04  9.88688E+03 -1.42470E+04  1.34402E+04 -1.11889E+03  3.39377E+03  8.74165E+03
 -8.89905E+03  4.33671E+03 -9.75930E+03 -6.76781E+03 -1.42800E+03 -1.80914E+04  1.16049E+04 -1.97628E+04
  2.27508E+04 -1.08695E+04  2.63659E+04  3.39967E+03  2.31098E+04  1.83225E+04  1.03269E+04  2.92637E+04
 -5.64707E+03  3.06480E+04 -2.06205E+04  1.92691E+04 -2.24381E+04  3.80552E+03 -1.54356E+04 -6.12621E+03
 -6.20351E+03 -7.09911E+03 -4.32826E+02  7.63460E+02 -2.80234E+03  3.35068E+03 -7.32425E+03  5.06405E+03
 -1.40830E+04 -9.29338E+02 -1.46382E+04 -1.17666E+04 -6.10766E+03 -1.94251E+04  6.50735E+03 -1.58401E+04
  1.30946E+04 -6.62666E+03  9.32566E+03  4.17485E+03 -5.20495E+02  5.99692E+03 -7.75174E+03 -6.27579E+02
 -7.48978E+03 -9.93262E+03 -1.27786E+03 -1.53836E+04  8.96568E+03 -1.63596E+04  2.01748E+04 -8.80627E+03
  2.32479E+04  2.22438E+03  1.75531E+04  1.42342E+04  3.02963E+03  1.94437E+04 -9.80525E+03  1.56411E+04
 -1.26512E+04  4.47085E+03 -6.29030E+03 -3.47757E+03  2.32179E+03 -4.54900E+03  7.82762E+03 -1.16715E+03
  7.27364E+03  6.93320E+03  1.40439E+03  1.20294E+04 -8.81643E+03  1.19901E+04 -1.55229E+04  2.96376E+03
 -1.05723E+04 -8.01702E+03  9.30604E+01 -1.38230E+04  8.47521E+03 -7.26421E+03  9.35324E+03  3.15907E+03
  2.49034E+03  1.02808E+04 -8.31723E+03  1.11255E+04 -1.33440E+04  5.06826E+03 -1.38365E+04 -5.28216E+03
 -7.94905E+03 -1.59065E+04  3.95176E+03 -1.76006E+04  1.50548E+04 -1.07667E+04  1.65784E+04  3.14786E+03
  1.02012E+04  1.30432E+04 -1.47517E+03  1.53557E+04 -1.13495E+04  8.46504E+03 -1.27233E+04 -1.17768E+03
 -1.07186E+04 -1.06694E+04 -1.93041E+03 -1.15471E+04  5.88778E+03 -9.30177E+03  7.74127E+03 -3.44985E+03
  4.72257E+03  1.98547E+03 -1.31244E+03  1.93827E+03 -5.59134E+02 -3.25519E+03  2.38780E+03 -7.58883E+03
  1.13998E+04 -5.01591E+03  1.53032E+04  2.26902E+03  1.49040E+04  1.07170E+04  1.01623E+04  2.03779E+04
 -4.81356E+03  2.32032E+04 -1.96324E+04  1.72913E+04 -2.56651E+04  3.50169E+03 -2.02118E+04 -8.62149E+03
 -1.02806E+04 -1.65842E+04 -7.99171E+02 -1.43518E+04  4.98711E+03 -8.53478E+03  5.03128E+03 -4.77741E+03
  3.73600E+03 -3.08568E+03  3.71112E+03 -3.89613E+03  5.83035E+03 -3.10313E+03  7.93051E+03 -1.22419E+03
  1.05215E+04  2.54108E+03  5.72412E+03  9.11203E+03 -1.90536E+03  1.12068E+04 -1.09939E+04  8.42694E+03
 -1.42233E+04 -1.49421E+03 -9.45653E+03 -1.04181E+04 -1.29914E+03 -1.54733E+04  8.48376E+03 -1.54753E+04
  1.64499E+04 -8.28630E+03  1.90620E+04  2.37227E+03  1.26723E+04  1.31795E+04  2.04527E+03  1.73894E+04
 -7.15933E+03  1.37397E+04 -1.05290E+04  4.96769E+03 -6.92758E+03 -1.46694E+03 -2.93927E+03 -1.93579E+03
 -1.23629E+03  1.97883E+00 -2.16273E+03  2.87712E+03 -5.91541E+03  2.25569E+03 -9.56959E+03 -1.37478E+03
 -7.12726E+03 -9.85610E+03  2.86511E+01 -1.39586E+04  8.75499E+03 -1.32021E+04  1.42364E+04 -4.08058E+03
  1.41842E+04  6.62206E+03  6.85374E+03  1.24453E+04 -3.11156E+03  1.41737E+04 -1.03833E+04  8.72502E+03
 -1.36633E+04  6.82461E+02 -1.03150E+04 -8.60611E+03 -9.04884E+02 -1.17857E+04  6.03050E+03 -8.63429E+03
  9.28599E+03 -2.51032E+03  6.36571E+03  2.30532E+03  2.05405E+03  4.20383E+03  1.48206E+03  2.04705E+03
  2.58271E+03  1.22942E+03  3.39636E+03  2.19216E+03  4.17440E+03  4.87714E+03  3.92396E+03  7.45411E+03
 -2.83742E+03  1.14680E+04 -1.00757E+04  1.13260E+04 -1.43855E+04  2.99879E+03 -1.45552E+04 -6.19003E+03
 -7.29219E+03 -1.40246E+04  2.40310E+03 -1.52416E+04  8.81280E+03 -9.75660E+03  1.13725E+04 -2.69306E+03
  8.99581E+03  5.56698E+03  2.14296E+03  8.41448E+03 -3.90010E+03  5.40250E+03 -6.09337E+03 -8.48334E+02
 -2.66601E+03 -6.10169E+03  3.50412E+03 -6.39948E+03  5.88203E+03 -3.30601E+03  5.54018E+03  1.39149E+03
  2.97990E+03  2.80385E+03  1.60314E+03  2.39955E+03 -7.14028E+02  2.03958E+03  1.84083E+03 -1.78777E+02
  2.38307E+03 -6.26079E+02  5.94927E+03  2.55201E+03  3.04401E+03  7.99974E+03 -9.48222E+02  1.01259E+04
 -6.80745E+03  6.95125E+03 -9.25924E+03  1.70242E+03 -8.29168E+03 -3.10173E+03 -3.44438E+03 -5.65809E+03
  1.20091E+03 -5.57925E+03  3.72778E+03 -2.66511E+03  3.07002E+03  2.85880E+03 -1.50179E+03  4.35955E+03
 -5.69586E+03  2.95557E+03 -6.87237E+03 -3.30769E+03 -3.89672E+03 -8.05779E+03  7.62375E+02 -7.81570E+03
  4.59349E+03 -4.74001E+03  5.67658E+03 -2.23280E+02  4.83438E+03  2.08273E+03  1.14381E+03  4.09413E+03
 -2.42812E+03  1.34858E+03 -3.48974E+03 -2.65474E+03  1.20493E+03 -6.06803E+03  7.06497E+03 -4.97301E+03
  8.72318E+03  4.39638E+02  8.70630E+03  5.94984E+03  2.87809E+03  9.59151E+03 -3.52044E+03  8.90035E+03
 -7.27778E+03  3.23779E+03 -8.02557E+03 -1.16497E+03 -4.49153E+03 -6.36413E+03  1.70359E+03 -5.99985E+03
  5.76451E+03 -3.08698E+03  4.91541E+03  2.43000E+03  1.66132E+03  5.15765E+03 -6.39690E+02  4.59882E+03
 -1.99058E+03  2.68944E+03 -2.12014E+03  1.18917E+03 -1.38268E+03  1.09498E+03 -1.42535E+03  1.87710E+03
 -2.51282E+03  3.68028E+03 -6.45836E+03  3.30744E+03 -9.30340E+03  1.41229E+02 -1.03691E+04 -5.95122E+03
 -5.55582E+03 -1.24683E+04  2.64745E+03 -1.37130E+04  8.86880E+03 -1.10848E+04  1.31730E+04 -3.90306E+03
  1.22752E+04  2.31085E+03  7.37061E+03  8.20001E+03  3.47801E+02  9.86703E+03 -3.96471E+03  7.05563E+03
 -5.53041E+03  2.50166E+03 -3.28094E+03 -5.08511E+02 -9.33250E+02 -7.65320E+02 -7.21160E+02  1.05034E+02
 -2.42036E+03  3.00580E+02 -1.88280E+03 -3.54588E+02 -6.63895E+02 -2.42491E+03  4.20738E+02 -3.46933E+03
  4.25005E+03 -2.97032E+03  5.88102E+03 -4.45076E+02  6.51892E+03  5.40030E+03  1.23135E+03  9.31437E+03
 -4.15475E+03  1.09592E+04 -1.01064E+04  6.38286E+03 -1.15892E+04 -1.03911E+03 -8.58836E+03 -6.94440E+03
 -3.77588E+03 -9.54478E+03  2.27569E+03 -8.66625E+03  6.33351E+03 -4.79756E+03  6.23210E+03  7.02536E+01
  3.45937E+03  3.06786E+03 -5.82587E+02  2.53590E+03 -1.70864E+03 -4.21274E+02  3.07411E+00 -2.09252E+03
  3.07315E+03 -1.03562E+03  3.61544E+03  9.10620E+02  2.39251E+03  3.72550E+03  1.25203E+02  4.88689E+03
 -4.49247E+03  4.42328E+03 -6.44971E+03  8.67661E+02 -5.52056E+03 -4.91561E+03 -7.71162E+02 -8.09471E+03
  4.39078E+03 -6.52076E+03  7.25529E+03 -2.13340E+03  7.26086E+03  1.35818E+03  4.13900E+03  5.87397E+03
  1.04859E+03  6.09813E+03 -2.31800E+03  5.20287E+03 -3.71021E+03  2.86834E+03 -3.00455E+03  3.65972E+02
 -1.46112E+03 -2.29293E+02 -1.73424E+03  8.19199E+02 -3.18337E+03  1.28938E+03 -4.48805E+03 -1.21439E+03
 -4.34778E+03 -2.88025E+03 -1.57880E+03 -6.34782E+03  2.54534E+03 -6.24205E+03  5.64264E+03 -3.21318E+03
  6.23370E+03  1.21119E+03  2.98292E+03  4.01347E+03 -5.68560E+02  6.53456E+03 -4.90438E+03  4.05482E+03
