 $NMID ID='MM_0lb_SNR800_14hz_g45_71.RAW', FMTDAT='(8E13.5)'
 TRAMP=1., VOLUME=1. $END
  3.09918E+05  4.04489E+02  3.37404E+05  2.50432E+05  8.46341E+04  3.37928E+05 -1.32272E+05  2.50696E+05
 -1.90375E+05  8.32255E+04 -1.11449E+05 -3.27798E+04  8.02211E+02 -5.03098E+04  5.38241E+04  4.86604E+01
  3.55658E+04  5.29980E+04 -1.68265E+04  7.50648E+04 -6.07008E+04  6.35239E+04 -8.41854E+04  3.22149E+04
 -8.09355E+04 -1.12876E+04 -5.72980E+04 -5.12488E+04 -1.49324E+04 -6.94651E+04  2.74307E+04 -4.55546E+04
  4.02117E+04  4.03603E+03  1.63229E+04  4.76863E+04 -3.41009E+04  4.67384E+04 -6.65677E+04 -1.27760E+02
 -5.32133E+04 -5.66273E+04 -6.87448E+03 -7.69215E+04  3.35110E+04 -5.46296E+04  4.77554E+04 -1.69629E+04
  4.29649E+04  1.12557E+04  3.16350E+04  2.52576E+04  1.59412E+04  2.89638E+04 -5.36321E+03  2.72988E+04
 -2.21796E+04  1.27403E+04 -1.84482E+04 -4.77048E+03  5.26932E+03 -7.61682E+03  2.24021E+04  1.20159E+04
  7.42442E+03  3.48629E+04 -3.15764E+04  3.50766E+04 -6.31732E+04  1.87158E+03 -5.66585E+04 -4.24466E+04
 -1.25086E+04 -6.28597E+04  3.95946E+04 -4.52007E+04  5.78896E+04 -2.49112E+03  3.38779E+04  3.21762E+04
 -6.21337E+03  3.55580E+04 -2.96419E+04  1.55411E+04 -2.99736E+04 -4.73854E+03 -1.63403E+04 -1.10060E+04
 -7.77856E+03 -1.32536E+04 -7.62188E+02 -1.79163E+04  7.48003E+03 -2.29468E+04  1.49756E+04 -1.34928E+04
  1.14594E+04  4.96181E+03 -8.08731E+03  1.28893E+04 -2.07189E+04 -4.23557E+03 -8.39165E+03 -3.31873E+04
  2.27374E+04 -4.33396E+04  4.75643E+04 -1.94202E+04  4.48537E+04  1.91432E+04  1.57398E+04  4.38373E+04
 -1.59112E+04  3.32421E+04 -2.52197E+04  1.45627E+03 -9.78843E+03 -2.77059E+04  2.08079E+04 -3.37366E+04
  4.05358E+04 -9.02084E+03  3.51727E+04  2.40135E+04  1.77988E+04  4.62880E+04 -7.91894E+03  4.95325E+04
 -3.12250E+04  3.30949E+04 -4.14411E+04  9.22763E+03 -4.20224E+04 -1.65791E+04 -2.32725E+04 -3.76052E+04
  7.46075E+03 -3.70638E+04  3.12673E+04 -1.43340E+04  2.87377E+04  1.08721E+04  3.69915E+03  1.89158E+04
 -1.32724E+04  8.55976E+03 -9.98255E+03 -7.57566E+03  5.82463E+03 -1.07184E+04  1.82167E+04  5.93085E+03
  1.34811E+04  2.21537E+04 -6.53422E+03  2.52557E+04 -2.21191E+04  1.13997E+04 -2.76870E+04 -5.27803E+03
 -1.99823E+04 -1.75282E+04 -8.11370E+03 -2.02765E+04  4.16153E+03 -1.93690E+04  1.52887E+04 -1.77422E+04
  2.54531E+04 -1.26506E+04  3.21453E+04  2.78029E+03  2.36413E+04  1.97756E+04  4.30395E+03  3.59942E+04
 -1.76825E+04  3.01161E+04 -2.77683E+04  1.03292E+04 -2.03757E+04 -1.06341E+04 -4.45170E+03 -1.34813E+04
  1.84829E+03 -3.10111E+03 -4.42549E+03  6.60477E+03 -1.59033E+04  4.87361E+03 -1.61216E+04 -6.98472E+03
 -9.86359E+03 -1.83826E+04  5.07659E+03 -2.26311E+04  1.50747E+04 -1.62405E+04  1.80564E+04 -1.72912E+03
  1.11522E+04  1.28220E+04 -8.89653E+02  1.84863E+04 -1.25601E+04  1.06170E+04 -1.88869E+04 -3.90734E+03
 -1.36151E+04 -1.66458E+04 -1.57859E+03 -2.26026E+04  1.03052E+04 -1.82813E+04  1.87726E+04 -9.23882E+03
  1.74978E+04  3.93818E+02  1.23478E+04  4.39995E+03  6.74672E+03  7.16203E+02  9.47756E+03 -1.81140E+03
  1.69274E+04  2.69004E+03  1.86999E+04  1.47344E+04  1.22894E+04  2.99876E+04 -3.10065E+03  3.36139E+04
 -1.94657E+04  2.66847E+04 -3.09507E+04  1.31963E+04 -3.27552E+04 -2.33323E+03 -2.71239E+04 -1.89155E+04
 -1.18305E+04 -2.69234E+04  9.16599E+03 -2.42934E+04  2.07508E+04 -1.29439E+04  1.89160E+04  5.30666E+03
  7.01714E+03  1.40907E+04 -8.94791E+03  1.26868E+04 -1.58073E+04  2.50799E+03 -1.23952E+04 -9.88767E+03
 -2.33757E+02 -1.47158E+04  8.00589E+03 -1.11756E+04  9.68400E+03 -1.47306E+03  2.10816E+03  6.30618E+03
 -6.42548E+03  2.49344E+03 -5.43079E+03 -5.57511E+03 -2.52664E+02 -1.33414E+04  9.36885E+03 -1.36530E+04
  1.60463E+04 -7.10507E+03  1.75496E+04  2.96715E+03  1.50821E+04  1.29902E+04  6.90961E+03  1.96442E+04
 -3.14668E+03  2.15833E+04 -1.37032E+04  1.35471E+04 -1.53425E+04  3.37643E+03 -1.13118E+04 -3.23160E+03
 -5.58190E+03 -4.76175E+03 -4.03493E+02  1.03081E+03 -2.69218E+03  2.69162E+03 -5.00955E+03  4.42272E+03
 -1.04146E+04 -4.37574E+02 -1.10131E+04 -8.50736E+03 -4.48182E+03 -1.43048E+04  4.36342E+03 -1.09272E+04
  9.51401E+03 -4.57102E+03  6.75646E+03  2.74399E+03 -5.56138E+01  4.38968E+03 -5.23127E+03 -1.89930E+02
 -4.81701E+03 -7.03117E+03 -9.11737E+02 -1.02620E+04  5.77903E+03 -1.09846E+04  1.35422E+04 -5.62423E+03
  1.60745E+04  1.33020E+03  1.16973E+04  9.12660E+03  2.02825E+03  1.26944E+04 -6.86551E+03  1.08623E+04
 -8.82094E+03  3.74597E+03 -4.78531E+03 -2.37902E+03  1.51804E+03 -3.02808E+03  5.99689E+03 -1.16429E+03
  5.14413E+03  4.39789E+03  9.75767E+02  8.68062E+03 -6.14705E+03  8.55486E+03 -1.06689E+04  1.95160E+03
 -7.10525E+03 -5.23809E+03  2.56693E+02 -9.02135E+03  5.51120E+03 -4.54094E+03  5.59077E+03  1.76348E+03
  7.89230E+02  5.81120E+03 -5.77392E+03  7.10039E+03 -7.95816E+03  3.43290E+03 -7.97585E+03 -2.42022E+03
 -4.48332E+03 -9.52401E+03  2.15450E+03 -1.08503E+04  9.44278E+03 -6.55360E+03  1.02902E+04  1.72133E+03
  6.60795E+03  8.34829E+03 -6.33096E+02  1.04243E+04 -7.38559E+03  5.73915E+03 -7.91064E+03 -6.98986E+02
 -7.49326E+03 -7.16874E+03 -1.29961E+03 -7.22133E+03  3.86807E+03 -6.37428E+03  4.38798E+03 -3.16466E+03
  3.69719E+03  8.31206E+02 -3.11302E+02  1.35588E+03  1.16866E+02 -1.28460E+03  8.40601E+02 -3.65688E+03
  6.50040E+03 -2.21201E+03  9.20112E+03  9.06911E+02  8.94587E+03  5.64682E+03  6.90575E+03  1.20490E+04
 -2.46269E+03  1.38525E+04 -1.20546E+04  1.02947E+04 -1.51720E+04  1.96497E+03 -1.22371E+04 -4.86448E+03
 -6.24297E+03 -1.01413E+04 -2.53541E+02 -8.85481E+03  3.40946E+03 -4.44946E+03  2.91005E+03 -3.02889E+03
  2.07785E+03 -2.19350E+03  2.92653E+03 -2.78198E+03  4.37475E+03 -2.32662E+03  5.05865E+03  1.23639E+02
  6.53066E+03  1.58688E+03  2.85358E+03  5.39644E+03 -2.00315E+03  5.53244E+03 -6.68056E+03  4.75653E+03
 -8.02259E+03 -1.14603E+03 -3.78148E+03 -5.74299E+03  9.06449E+01 -8.73494E+03  5.14757E+03 -8.95073E+03
  8.81586E+03 -4.92958E+03  1.10631E+04  8.19111E+02  7.80232E+03  7.47364E+03  1.32604E+03  1.01377E+04
 -4.01382E+03  8.94601E+03 -5.80397E+03  2.95488E+03 -3.69252E+03 -1.31071E+03 -1.50914E+03 -1.29597E+03
 -8.64617E+02  1.48261E+02 -1.26738E+03  2.39481E+03 -3.91387E+03  1.23226E+03 -6.28757E+03 -8.18051E+02
 -3.38256E+03 -6.12322E+03  4.70318E+02 -7.90196E+03  4.91267E+03 -7.81428E+03  7.28909E+03 -2.00883E+03
  7.67788E+03  4.18156E+03  3.26201E+03  6.45291E+03 -1.56207E+03  7.69816E+03 -5.37880E+03  4.84369E+03
 -7.13673E+03  5.41870E+02 -5.69932E+03 -4.36948E+03 -6.96788E+02 -6.52459E+03  3.30193E+03 -4.60771E+03
  4.68181E+03 -1.91743E+03  3.12884E+03  1.41952E+03  9.20772E+02  2.37500E+03  8.46096E+02  1.08060E+03
  2.10749E+03  6.39531E+02  1.91807E+03  1.77329E+03  1.79638E+03  3.39539E+03  2.05337E+03  4.02124E+03
 -1.69162E+03  5.85501E+03 -5.29316E+03  6.59188E+03 -6.93390E+03  1.78533E+03 -7.82443E+03 -2.22879E+03
 -3.66516E+03 -7.46597E+03  9.27272E+02 -8.12557E+03  4.41250E+03 -5.06455E+03  6.04587E+03 -1.54961E+03
  4.87862E+03  2.69217E+03  8.35141E+02  4.53389E+03 -1.80258E+03  2.29638E+03 -2.48168E+03 -3.61092E+02
 -1.27177E+03 -3.17041E+03  1.79306E+03 -3.22462E+03  2.71579E+03 -1.60291E+03  2.88188E+03  6.15420E+02
  1.54070E+03  1.46453E+03  8.56276E+02  6.33885E+02 -6.06167E+02  1.32675E+03  1.66239E+03 -3.18649E+02
  9.31265E+02 -4.91015E+02  3.30328E+03  1.40204E+03  1.15002E+03  3.94129E+03 -6.41814E+02  5.34775E+03
 -3.06470E+03  2.76159E+03 -4.29328E+03  8.49746E+02 -4.07289E+03 -1.87956E+03 -1.39848E+03 -2.16903E+03
  6.38095E+02 -2.84897E+03  1.92912E+03 -1.33089E+03  1.35987E+03  2.14112E+03 -9.83312E+02  2.50384E+03
 -2.70687E+03  1.59961E+03 -2.86620E+03 -2.10272E+03 -1.67980E+03 -4.14664E+03  4.26024E+02 -3.75243E+03
  2.02729E+03 -2.03550E+03  2.67040E+03  2.34274E+02  2.38986E+03  8.27405E+02  5.75154E+02  2.17042E+03
 -1.31011E+03  2.58299E+02 -1.96488E+03 -6.76202E+02  1.03869E+03 -2.75704E+03  3.47635E+03 -2.20957E+03
  4.04713E+03 -3.90173E+01  4.86214E+03  2.24881E+03  1.37221E+03  4.34921E+03 -1.19053E+03  4.09295E+03
 -3.59266E+03  1.55443E+03 -3.45951E+03 -3.52841E+02 -2.10029E+03 -2.87632E+03  8.51441E+02 -2.20975E+03
  2.83937E+03 -1.51219E+03  2.21345E+03  1.19615E+03  7.35428E+02  2.82252E+03 -9.77645E-01  2.42176E+03
 -9.98598E+02  1.76268E+03 -1.11117E+03  6.02812E+02 -4.33219E+02  6.34966E+02 -8.62957E+02  8.20090E+02
 -9.76813E+02  1.55752E+03 -3.49270E+03  1.67923E+03 -4.02445E+03 -8.57658E+01 -4.87612E+03 -2.75690E+03
 -2.40071E+03 -5.50566E+03  1.22896E+03 -6.30785E+03  3.34149E+03 -5.19955E+03  6.15591E+03 -1.97457E+03
  5.62703E+03  6.53592E+02  3.14530E+03  3.66308E+03 -3.49711E+02  3.99476E+03 -1.70775E+03  2.81475E+03
 -2.41921E+03  1.23142E+03 -1.55160E+03 -5.99085E+02 -6.32545E+02 -5.46234E+01 -4.46375E+02 -2.52700E+02
 -1.32057E+03  3.89431E+02 -1.44882E+03  2.52857E+02 -4.56437E+01 -7.80749E+02 -4.11970E+02 -1.74095E+03
  2.08159E+03 -1.37125E+03  1.98580E+03  2.55462E+02  2.63777E+03  2.02570E+03  4.37120E+01  3.67095E+03
 -1.85488E+03  4.70464E+03 -3.83232E+03  2.66120E+03 -4.58443E+03 -1.76351E+02 -3.32861E+03 -2.83378E+03
 -1.59306E+03 -4.10184E+03  1.01629E+03 -3.79126E+03  1.97670E+03 -1.83341E+03  2.18530E+03  2.11183E+02
  1.05339E+03  9.58856E+02 -3.71778E+01  9.12798E+02 -9.40119E+02  2.25277E+02 -3.06919E+02 -6.94521E+02
  8.33883E+02 -6.57315E+00  1.26048E+03  5.68944E+02  9.68903E+02  1.42331E+03  4.02345E+02  1.82573E+03
 -1.78601E+03  1.48307E+03 -2.26316E+03  5.29851E+02 -2.23726E+03 -1.57468E+03  5.67577E+01 -3.36289E+03
  2.05224E+03 -2.53111E+03  2.13696E+03 -7.25803E+02  2.67892E+03 -1.38262E+02  1.75962E+03  2.27963E+03
  4.21802E+02  2.00037E+03 -5.04829E+02  1.81608E+03 -1.53421E+03  9.33939E+02 -1.40710E+03  2.84759E+02
 -4.48011E+02 -1.01267E-01 -8.54720E+02  5.50660E+02 -1.13229E+03  3.96419E+02 -1.90836E+03 -5.03408E+02
 -2.10452E+03 -7.31204E+02 -8.36348E+02 -2.39887E+03  1.42365E+03 -2.99430E+03  1.99395E+03 -1.13428E+03
  2.38876E+03  2.54740E+02  3.78782E+02  1.46341E+03 -1.68376E+02  2.37881E+03 -1.62597E+03  1.63339E+03
