 $NMID ID='MM_0lb_SNR800_19hz_g50_33.RAW', FMTDAT='(8E13.5)'
 TRAMP=1., VOLUME=1. $END
  3.09631E+05  6.95592E+02  3.37310E+05  2.50303E+05  8.42879E+04  3.37351E+05 -1.32638E+05  2.50207E+05
 -1.90077E+05  8.25435E+04 -1.11107E+05 -3.27812E+04  1.24388E+03 -5.02128E+04  5.36380E+04  8.35823E+01
  3.51655E+04  5.28524E+04 -1.69012E+04  7.47885E+04 -6.02857E+04  6.25655E+04 -8.33982E+04  3.16906E+04
 -7.96052E+04 -1.09661E+04 -5.66365E+04 -5.04432E+04 -1.48924E+04 -6.86924E+04  2.66849E+04 -4.48020E+04
  3.90113E+04  4.21862E+03  1.57073E+04  4.70614E+04 -3.36783E+04  4.62830E+04 -6.55237E+04 -4.49646E+02
 -5.24995E+04 -5.59338E+04 -6.13389E+03 -7.53453E+04  3.31191E+04 -5.29108E+04  4.62564E+04 -1.64110E+04
  4.17266E+04  1.10792E+04  3.08047E+04  2.43411E+04  1.58820E+04  2.83244E+04 -4.80457E+03  2.68091E+04
 -2.17723E+04  1.24861E+04 -1.90843E+04 -4.42458E+03  4.48663E+03 -7.33056E+03  2.11812E+04  1.09311E+04
  7.57199E+03  3.33873E+04 -3.06113E+04  3.39044E+04 -6.12006E+04  2.18970E+03 -5.55911E+04 -4.13195E+04
 -1.24099E+04 -6.06805E+04  3.79794E+04 -4.35257E+04  5.56598E+04 -1.94355E+03  3.20579E+04  3.01912E+04
 -6.64222E+03  3.33062E+04 -2.83986E+04  1.32969E+04 -2.77119E+04 -5.46767E+03 -1.43416E+04 -1.00421E+04
 -7.35111E+03 -1.17128E+04 -1.42999E+03 -1.67085E+04  6.63967E+03 -2.23784E+04  1.50410E+04 -1.39757E+04
  1.20073E+04  4.24356E+03 -6.40584E+03  1.30333E+04 -1.93366E+04 -2.46561E+03 -8.14849E+03 -3.03770E+04
  2.07367E+04 -4.05863E+04  4.48571E+04 -1.86843E+04  4.20732E+04  1.83088E+04  1.43119E+04  4.17612E+04
 -1.51641E+04  3.10092E+04 -2.35651E+04  1.12928E+03 -8.59669E+03 -2.64388E+04  2.04134E+04 -3.15403E+04
  3.79774E+04 -7.36424E+03  3.14475E+04  2.26895E+04  1.55913E+04  4.23982E+04 -7.61617E+03  4.53267E+04
 -2.88933E+04  2.97454E+04 -3.72783E+04  8.26328E+03 -3.84059E+04 -1.50954E+04 -2.12013E+04 -3.44867E+04
  6.90726E+03 -3.43901E+04  2.90938E+04 -1.25794E+04  2.70292E+04  1.05612E+04  3.03091E+03  1.77847E+04
 -1.33211E+04  7.06324E+03 -9.62635E+03 -7.58825E+03  5.97783E+03 -1.02160E+04  1.73791E+04  6.41255E+03
  1.23371E+04  2.16102E+04 -6.69225E+03  2.33671E+04 -2.13388E+04  9.13605E+03 -2.50505E+04 -6.21318E+03
 -1.66791E+04 -1.62459E+04 -5.21785E+03 -1.67899E+04  3.96898E+03 -1.46251E+04  1.25058E+04 -1.42301E+04
  2.11678E+04 -1.17778E+04  2.78789E+04  1.30202E+03  2.11150E+04  1.61411E+04  3.96133E+03  3.25905E+04
 -1.60379E+04  2.74509E+04 -2.59662E+04  9.54393E+03 -1.96914E+04 -1.04939E+04 -3.86412E+03 -1.40724E+04
  2.85014E+03 -4.02511E+03 -2.55002E+03  5.33483E+03 -1.32059E+04  5.33004E+03 -1.34146E+04 -4.99687E+03
 -8.49692E+03 -1.52376E+04  4.51963E+03 -1.91268E+04  1.28928E+04 -1.37754E+04  1.45099E+04 -1.68079E+03
  9.02168E+03  1.08044E+04 -1.16833E+03  1.57478E+04 -1.03882E+04  8.75840E+03 -1.52905E+04 -3.49171E+03
 -1.15258E+04 -1.39388E+04 -1.43733E+03 -1.88245E+04  8.54641E+03 -1.54660E+04  1.59620E+04 -7.39554E+03
  1.46497E+04  7.62142E+02  1.04483E+04  3.77804E+03  5.34557E+03  6.62242E+02  7.27980E+03 -1.32852E+03
  1.36317E+04  2.63505E+03  1.45955E+04  1.28946E+04  9.09677E+03  2.49479E+04 -3.34604E+03  2.62046E+04
 -1.54458E+04  2.03981E+04 -2.41350E+04  9.75677E+03 -2.46810E+04 -1.81243E+03 -2.11803E+04 -1.40763E+04
 -1.01101E+04 -2.00343E+04  6.61659E+03 -1.89693E+04  1.64247E+04 -1.08934E+04  1.54106E+04  3.73869E+03
  6.34624E+03  1.12143E+04 -7.12208E+03  1.03542E+04 -1.35768E+04  2.64003E+03 -1.02674E+04 -7.61385E+03
 -6.64505E+01 -1.23378E+04  6.29269E+03 -9.42354E+03  7.73789E+03 -1.48770E+03  1.35980E+03  4.51455E+03
 -5.16814E+03  1.37932E+03 -3.88419E+03 -4.60446E+03  6.46633E+02 -1.01309E+04  8.07198E+03 -9.52990E+03
  1.21045E+04 -4.59092E+03  1.14986E+04  2.79431E+03  1.00041E+04  9.63391E+03  4.73147E+03  1.36314E+04
 -1.56139E+03  1.57071E+04 -9.38944E+03  1.02149E+04 -1.08590E+04  3.04898E+03 -8.45659E+03 -1.93156E+03
 -4.46637E+03 -3.38600E+03 -6.16917E+02  1.54376E+03 -2.03791E+03  2.05241E+03 -3.72411E+03  3.69623E+03
 -8.04236E+03 -6.16781E+02 -8.25923E+03 -6.96536E+03 -3.63697E+03 -1.12840E+04  3.35371E+03 -8.43248E+03
  6.94607E+03 -3.74588E+03  4.96545E+03  2.42976E+03  5.18621E+02  2.96016E+03 -3.29763E+03  6.23409E+01
 -3.21298E+03 -5.10073E+03 -7.18910E+02 -7.31400E+03  3.96401E+03 -7.81708E+03  9.65299E+03 -3.84383E+03
  1.14164E+04  5.45962E+02  8.50164E+03  6.04215E+03  1.64861E+03  8.59492E+03 -5.00609E+03  8.21671E+03
 -7.10410E+03  2.79631E+03 -3.35387E+03 -1.63694E+03  1.14592E+03 -1.79815E+03  4.92135E+03 -1.01104E+03
  4.23757E+03  3.51556E+03  9.34602E+02  6.10717E+03 -4.24065E+03  6.16326E+03 -7.48004E+03  1.69389E+03
 -4.81684E+03 -3.38520E+03  3.64381E+02 -6.45213E+03  3.60113E+03 -3.48417E+03  3.51763E+03  9.48798E+02
  4.18698E+02  3.26391E+03 -4.00688E+03  4.77617E+03 -4.63093E+03  2.28826E+03 -4.19500E+03 -1.43064E+03
 -2.54904E+03 -5.69805E+03  1.14394E+03 -6.47564E+03  5.98043E+03 -4.45301E+03  6.18716E+03  8.05926E+02
  4.39272E+03  4.89381E+03  1.94025E+02  7.11734E+03 -4.62105E+03  4.11999E+03 -5.16036E+03 -3.20037E+02
 -5.60015E+03 -5.18849E+03 -1.57045E+03 -4.94102E+03  2.46829E+03 -4.66289E+03  2.85062E+03 -2.82666E+03
  2.83726E+03 -1.27548E+02 -1.44311E+02  1.47837E+03  6.48785E+02 -2.53614E+02  1.86979E+02 -1.71481E+03
  3.82450E+03 -7.02773E+02  4.81277E+03  9.46433E+02  5.38821E+03  2.97448E+03  5.25320E+03  6.63545E+03
 -1.26171E+03  8.18584E+03 -7.33450E+03  6.34507E+03 -9.52360E+03  1.26653E+03 -7.23227E+03 -2.35949E+03
 -3.83058E+03 -6.15366E+03 -3.95831E+02 -4.78409E+03  2.03494E+03 -1.95216E+03  1.78914E+03 -1.87377E+03
  1.26770E+03 -1.41226E+03  2.06731E+03 -2.38571E+03  3.34240E+03 -1.38227E+03  3.36994E+03  6.93115E+02
  4.30394E+03  1.28559E+03  1.35105E+03  3.08830E+03 -1.68548E+03  2.70451E+03 -4.14243E+03  2.55214E+03
 -4.56009E+03 -1.10263E+03 -1.49859E+03 -3.22015E+03  4.17918E+02 -4.52790E+03  3.09854E+03 -5.15506E+03
  4.90992E+03 -3.11616E+03  6.34763E+03 -2.80373E+01  4.81152E+03  3.94500E+03  1.13053E+03  5.64073E+03
 -1.75463E+03  5.66498E+03 -3.31476E+03  1.87763E+03 -1.60375E+03 -1.06124E+03 -4.86641E+02 -5.74364E+02
 -7.29575E+02  3.02340E+02 -1.00292E+03  1.74639E+03 -2.65771E+03  1.10227E+03 -3.79304E+03 -1.22934E+02
 -1.33268E+03 -3.68175E+03  6.46281E+02 -4.45227E+03  2.39663E+03 -4.15917E+03  3.24437E+03 -1.02204E+03
  3.84791E+03  2.43469E+03  1.76067E+03  2.93306E+03 -6.25885E+02  4.41652E+03 -2.34051E+03  2.42976E+03
 -3.27600E+03  5.38750E+02 -3.13560E+03 -2.02285E+03 -1.88876E+02 -2.86807E+03  1.28003E+03 -2.31281E+03
  2.70269E+03 -1.22376E+03  1.93362E+03  2.43178E+02  5.74963E+02  1.45168E+03  8.54504E+02  4.05374E+02
  1.79746E+03  7.02855E+02  1.36174E+03  1.12699E+03  7.37448E+02  2.07150E+03  1.25657E+03  1.46777E+03
 -1.09598E+03  2.89305E+03 -2.24923E+03  3.66384E+03 -2.68714E+03  1.00435E+03 -3.78567E+03 -4.58547E+02
 -1.80744E+03 -2.99807E+03  4.73531E+02 -4.18160E+03  1.75924E+03 -2.51070E+03  2.79365E+03 -8.37464E+02
  2.21467E+03  1.42351E+03  1.86675E+02  2.09616E+03 -4.87710E+02  1.15123E+03 -8.91467E+02 -5.63330E+01
 -3.09847E+02 -1.56390E+03  1.15683E+03 -1.33087E+03  1.18410E+03 -7.09947E+02  1.03953E+03  4.54464E+02
  6.85473E+02  5.97163E+01  8.57459E+02 -1.97854E+02 -3.35521E+02  5.77678E+02  1.55137E+03 -3.89028E+02
 -1.81600E+02 -2.86065E+02  1.80395E+03  6.03235E+02  4.13066E+02  2.07637E+03 -4.91910E+02  2.94094E+03
 -1.30130E+03  8.43822E+02 -1.71450E+03  2.71321E+02 -1.93207E+03 -6.04830E+02 -1.69460E+02 -1.03139E+03
  3.34864E+02 -1.22000E+03  8.21692E+02 -6.85380E+02  5.04109E+02  1.14886E+03 -7.53636E+02  8.27282E+02
 -1.49740E+03  7.20108E+02 -8.85152E+02 -1.47580E+03 -7.11675E+02 -1.79068E+03  8.98764E+01 -1.51407E+03
  3.93208E+02 -5.99909E+02  6.21976E+02  1.40314E+02  1.33414E+03 -1.23419E+02  1.26768E+02  1.17850E+03
 -1.40220E+02  2.08670E+02 -6.25421E+02 -1.22993E+01  7.08353E+02 -7.35252E+02  1.60683E+03 -8.46849E+02
  8.67426E+02  1.98457E+02  2.56414E+03  4.77942E+02  1.22437E+03  1.34440E+03 -1.68525E+02  1.76136E+03
 -1.27848E+03  1.88398E+02 -1.26917E+03 -2.91558E+02 -6.85943E+02 -1.02543E+03  4.01881E+02 -5.75802E+02
  1.40194E+03 -5.73211E+02  6.68365E+02  6.99461E+02  2.10566E+02  1.13453E+03  8.99975E+01  1.11561E+03
 -2.31434E+02  1.15053E+03 -2.58051E+02  9.40636E+01 -2.15203E+02  3.89879E+02 -6.58230E+02  6.22947E+02
 -8.07411E+02  1.15518E+03 -1.84686E+03  3.66252E+02 -1.51903E+03  1.26025E+02 -2.10172E+03 -1.03550E+03
 -9.80175E+02 -2.10902E+03  4.31708E+02 -2.44232E+03  7.63424E+02 -2.05454E+03  2.41314E+03 -1.00772E+03
  2.32017E+03 -3.83026E+02  9.90232E+02  1.26847E+03 -6.65075E+02  1.09118E+03 -5.92733E+02  1.22246E+03
 -8.00471E+02  5.07497E+02 -3.93599E+02 -1.89461E+02 -3.02532E+02  2.52620E+02 -5.18137E+02  1.33275E+02
 -1.22625E+03 -2.30222E+02 -7.44097E+02  4.10466E+02  4.72223E+02 -5.56121E+02 -4.50978E+02 -7.14515E+02
  1.31829E+03 -3.36643E+02  2.36093E+02  1.29703E+02  1.04939E+03  7.99649E+02 -7.55978E+02  1.04065E+03
 -7.69677E+02  1.71552E+03 -1.44346E+03  1.11229E+03 -1.24568E+03 -1.75902E+02 -1.10083E+03 -1.16125E+03
 -7.05377E+02 -1.13059E+03  1.28900E+02 -1.30092E+03  2.68888E+02 -5.16253E+02  7.14529E+02 -1.90029E+01
  6.72172E+02  1.91953E+02  2.93827E+02  3.77134E+02 -3.02203E+02  2.28195E-02  2.00208E+01 -2.03157E+02
  4.80705E+02 -1.09819E+02  1.00731E+02  6.37603E+02  8.44152E+01  3.59866E+02  5.53558E+02  1.74661E+02
 -5.12421E+02  5.02503E+02 -3.40454E+02  1.42613E+02 -6.97290E+02 -4.23670E+02  1.45293E+02 -1.15731E+03
  4.84637E+02 -6.15943E+02  1.32784E+02  4.21082E+02  1.03987E+03 -7.72724E+02  4.33332E+02  7.54849E+02
  5.91862E+02  6.25177E+02 -2.41423E+01  3.75725E+02 -1.86533E+02  7.99431E+02 -2.94571E+02  1.67558E+01
 -2.09411E+02 -8.57115E+01 -4.68278E+02 -1.67109E+02 -6.97690E+02  9.46205E+01 -6.04359E+02 -2.98649E+02
 -1.04632E+03  4.44639E+01 -1.66698E+02 -6.94703E+02  3.92975E+02 -1.47509E+03  7.83498E+02 -1.20851E+02
  5.87592E+02  1.43329E+02 -3.36742E+02 -3.33354E+01 -3.94515E+02  7.39654E+02 -2.13700E+02  5.16458E+02
