 $NMID ID='MM_0lb_SNR800_11hz_g45_84.RAW', FMTDAT='(8E13.5)'
 TRAMP=1., VOLUME=1. $END
  3.09710E+05  3.07199E+02  3.37388E+05  2.50698E+05  8.46799E+04  3.38131E+05 -1.32886E+05  2.51317E+05
 -1.90446E+05  8.36029E+04 -1.12116E+05 -3.24168E+04  8.00332E+02 -5.03738E+04  5.40959E+04 -1.66621E+02
  3.53214E+04  5.30970E+04 -1.68612E+04  7.57960E+04 -6.09573E+04  6.38329E+04 -8.48174E+04  3.24740E+04
 -8.17325E+04 -1.18866E+04 -5.75138E+04 -5.19254E+04 -1.49676E+04 -7.03124E+04  2.76511E+04 -4.62581E+04
  4.07502E+04  3.99423E+03  1.62074E+04  4.83026E+04 -3.46332E+04  4.75812E+04 -6.73940E+04 -2.67979E+02
 -5.37959E+04 -5.72824E+04 -6.88575E+03 -7.79847E+04  3.40900E+04 -5.63025E+04  4.88888E+04 -1.75303E+04
  4.42815E+04  1.14991E+04  3.25604E+04  2.61991E+04  1.57625E+04  2.96857E+04 -5.50048E+03  2.74646E+04
 -2.24104E+04  1.21296E+04 -1.86074E+04 -5.61065E+03  6.26419E+03 -7.65785E+03  2.30710E+04  1.33296E+04
  7.14587E+03  3.66149E+04 -3.28388E+04  3.63182E+04 -6.40811E+04  2.31251E+03 -5.77476E+04 -4.38493E+04
 -1.25061E+04 -6.42552E+04  4.08242E+04 -4.64181E+04  5.96125E+04 -2.33534E+03  3.50160E+04  3.33592E+04
 -5.63113E+03  3.77537E+04 -3.10345E+04  1.74163E+04 -3.17712E+04 -3.81327E+03 -1.77258E+04 -1.14617E+04
 -8.76588E+03 -1.43186E+04 -6.60044E+02 -1.88692E+04  8.05966E+03 -2.32384E+04  1.55892E+04 -1.30129E+04
  1.08237E+04  5.91986E+03 -9.45230E+03  1.28346E+04 -2.21091E+04 -5.50376E+03 -8.55628E+03 -3.55897E+04
  2.41980E+04 -4.51834E+04  5.01497E+04 -2.00826E+04  4.66626E+04  2.01286E+04  1.67253E+04  4.58049E+04
 -1.64614E+04  3.46144E+04 -2.66374E+04  2.08143E+03 -1.07868E+04 -2.86974E+04  2.13400E+04 -3.54615E+04
  4.28250E+04 -9.88642E+03  3.77441E+04  2.43538E+04  1.98395E+04  4.85489E+04 -8.04789E+03  5.29077E+04
 -3.36516E+04  3.58161E+04 -4.47635E+04  1.06895E+04 -4.47200E+04 -1.73079E+04 -2.48247E+04 -3.98111E+04
  7.69393E+03 -3.99721E+04  3.23507E+04 -1.58199E+04  3.08123E+04  1.10642E+04  4.53640E+03  2.01007E+04
 -1.36498E+04  8.57137E+03 -1.07695E+04 -7.64556E+03  5.81601E+03 -1.07821E+04  1.83051E+04  5.46178E+03
  1.45134E+04  2.23514E+04 -5.53200E+03  2.59110E+04 -2.28756E+04  1.26886E+04 -2.99072E+04 -4.36048E+03
 -2.31089E+04 -1.76298E+04 -1.00045E+04 -2.28407E+04  4.14299E+03 -2.24823E+04  1.75506E+04 -2.05641E+04
  2.87721E+04 -1.37909E+04  3.52706E+04  3.87573E+03  2.55126E+04  2.18514E+04  4.65625E+03  3.91262E+04
 -1.87743E+04  3.20235E+04 -2.92150E+04  1.07650E+04 -2.16995E+04 -1.02167E+04 -5.02809E+03 -1.29271E+04
  1.07898E+03 -1.82338E+03 -6.26762E+03  7.59212E+03 -1.83277E+04  5.11431E+03 -1.83410E+04 -8.50958E+03
 -1.09119E+04 -2.12093E+04  5.31872E+03 -2.55146E+04  1.67794E+04 -1.82361E+04  2.03741E+04 -1.79930E+03
  1.28057E+04  1.42331E+04 -1.61359E+03  2.06292E+04 -1.48644E+04  1.20557E+04 -2.15336E+04 -4.25839E+03
 -1.54837E+04 -1.92018E+04 -2.05308E+03 -2.56170E+04  1.10767E+04 -2.10359E+04  2.13256E+04 -1.09506E+04
  1.97491E+04  2.34005E+02  1.48383E+04  4.68218E+03  7.52391E+03  1.16647E+03  1.07508E+04 -1.70451E+03
  1.95610E+04  3.01800E+03  2.23673E+04  1.67101E+04  1.48195E+04  3.38301E+04 -3.03554E+03  3.91955E+04
 -2.23517E+04  3.19851E+04 -3.67661E+04  1.63820E+04 -3.92535E+04 -2.88389E+03 -3.20793E+04 -2.23105E+04
 -1.33785E+04 -3.20623E+04  1.13296E+04 -2.86323E+04  2.48265E+04 -1.38957E+04  2.15154E+04  6.64964E+03
  7.23936E+03  1.66022E+04 -1.04069E+04  1.39791E+04 -1.84991E+04  2.41669E+03 -1.35795E+04 -1.11613E+04
  7.25972E+00 -1.73851E+04  8.94904E+03 -1.29215E+04  1.19684E+04 -1.29601E+03  2.95520E+03  7.37100E+03
 -7.74275E+03  3.08755E+03 -7.58350E+03 -6.23966E+03 -9.63857E+02 -1.59486E+04  1.07240E+04 -1.68862E+04
  1.96708E+04 -9.51024E+03  2.21297E+04  3.37991E+03  1.88235E+04  1.57385E+04  8.86170E+03  2.45779E+04
 -4.67968E+03  2.64352E+04 -1.70410E+04  1.66688E+04 -1.91558E+04  3.54253E+03 -1.35369E+04 -4.80592E+03
 -5.70800E+03 -5.82128E+03 -6.88384E+02  2.09745E+02 -2.95597E+03  3.20421E+03 -6.13362E+03  5.09056E+03
 -1.22502E+04 -1.24510E+03 -1.30936E+04 -1.00782E+04 -5.13988E+03 -1.73085E+04  5.49656E+03 -1.34687E+04
  1.11183E+04 -5.60162E+03  7.98777E+03  4.10789E+03 -3.06868E+02  5.16812E+03 -6.59179E+03 -2.52030E+02
 -6.36836E+03 -8.31579E+03 -8.70728E+02 -1.28115E+04  7.53608E+03 -1.39784E+04  1.66276E+04 -7.45144E+03
  1.96129E+04  2.44260E+03  1.46337E+04  1.18727E+04  2.76639E+03  1.59620E+04 -8.30596E+03  1.33039E+04
 -1.09095E+04  4.16363E+03 -5.58910E+03 -3.05194E+03  1.68571E+03 -3.47689E+03  7.06625E+03 -9.27769E+02
  6.27942E+03  6.14025E+03  1.39109E+03  1.07156E+04 -7.90622E+03  1.04986E+04 -1.29780E+04  2.13226E+03
 -9.12819E+03 -6.81716E+03  6.69109E+02 -1.18093E+04  7.30453E+03 -5.49663E+03  7.47876E+03  2.49672E+03
  1.74132E+03  7.83852E+03 -7.07590E+03  9.34387E+03 -1.09614E+04  4.13428E+03 -1.12682E+04 -3.95842E+03
 -6.70134E+03 -1.30581E+04  3.06982E+03 -1.49209E+04  1.28586E+04 -8.97060E+03  1.36228E+04  2.52352E+03
  8.61644E+03  1.03389E+04 -1.13173E+03  1.33062E+04 -9.86160E+03  7.66344E+03 -1.03804E+04 -1.14220E+03
 -8.95164E+03 -8.47371E+03 -1.72827E+03 -9.77302E+03  5.17637E+03 -8.17477E+03  6.03574E+03 -3.64932E+03
  4.04170E+03  1.12563E+03 -1.00553E+03  1.84071E+03 -3.59015E+02 -2.36595E+03  1.99280E+03 -5.50590E+03
  8.80032E+03 -3.30302E+03  1.28997E+04  1.62108E+03  1.20576E+04  8.50142E+03  8.42052E+03  1.67263E+04
 -3.67137E+03  1.91458E+04 -1.57665E+04  1.41055E+04 -2.07038E+04  2.99898E+03 -1.63091E+04 -7.10737E+03
 -8.42792E+03 -1.37919E+04 -6.10620E+02 -1.14642E+04  3.83389E+03 -6.66161E+03  4.16664E+03 -4.53390E+03
  2.85596E+03 -2.65374E+03  3.34795E+03 -3.51875E+03  5.21358E+03 -2.76842E+03  6.54645E+03 -5.29089E+02
  8.48402E+03  1.98378E+03  4.77431E+03  7.49005E+03 -1.95208E+03  8.75312E+03 -8.97869E+03  6.42770E+03
 -1.16873E+04 -1.32933E+03 -6.78555E+03 -8.27919E+03 -6.57935E+02 -1.22527E+04  6.99070E+03 -1.20783E+04
  1.27383E+04 -6.94143E+03  1.52940E+04  1.90502E+03  1.08127E+04  1.06984E+04  2.00815E+03  1.37449E+04
 -5.80880E+03  1.16004E+04 -7.90280E+03  3.98181E+03 -5.30568E+03 -1.54403E+03 -2.05896E+03 -1.54595E+03
 -1.13003E+03 -1.06861E+02 -1.75197E+03  2.75675E+03 -5.10655E+03  1.94694E+03 -8.25401E+03 -7.38261E+02
 -5.39076E+03 -8.13826E+03  5.08981E+02 -1.14024E+04  6.95017E+03 -1.08489E+04  1.11062E+04 -3.41244E+03
  1.13083E+04  5.52931E+03  5.04500E+03  1.00578E+04 -2.31788E+03  1.15009E+04 -7.98310E+03  7.07301E+03
 -1.02318E+04  4.61499E+02 -8.07924E+03 -6.82621E+03 -9.37790E+02 -9.32751E+03  4.86577E+03 -6.96042E+03
  7.27014E+03 -2.20970E+03  4.66473E+03  1.84978E+03  2.13290E+03  3.23573E+03  1.08493E+03  1.38732E+03
  2.44904E+03  6.73958E+02  2.59462E+03  1.37480E+03  3.28599E+03  4.01716E+03  2.82113E+03  6.04750E+03
 -2.42048E+03  8.90287E+03 -7.27936E+03  9.39883E+03 -1.11240E+04  2.27259E+03 -1.20040E+04 -4.64950E+03
 -5.58191E+03 -1.09839E+04  1.41005E+03 -1.24390E+04  6.60836E+03 -7.55311E+03  9.07166E+03 -2.46183E+03
  7.07367E+03  4.09697E+03  1.79622E+03  6.37793E+03 -3.01945E+03  4.43851E+03 -4.21018E+03 -2.43889E+02
 -2.24029E+03 -4.67533E+03  2.73643E+03 -4.91522E+03  4.41353E+03 -2.49688E+03  4.20553E+03  1.01598E+03
  2.53485E+03  2.30787E+03  9.84049E+02  1.52178E+03 -8.59032E+02  1.49172E+03  1.66321E+03 -6.73297E+02
  1.55746E+03 -6.14956E+02  4.50991E+03  1.89198E+03  2.60231E+03  6.16548E+03 -1.03126E+03  7.72833E+03
 -5.05774E+03  5.04551E+03 -6.98122E+03  1.36175E+03 -6.40746E+03 -2.05263E+03 -2.25294E+03 -4.33850E+03
  8.91599E+02 -4.26439E+03  3.02850E+03 -1.90149E+03  2.40186E+03  2.22518E+03 -1.24655E+03  3.59063E+03
 -4.58253E+03  2.16673E+03 -5.12689E+03 -2.62556E+03 -2.58915E+03 -6.00484E+03  6.36762E+02 -6.06465E+03
  3.56877E+03 -3.57757E+03  4.32300E+03 -3.46735E+02  3.79842E+03  1.33581E+03  1.16632E+03  3.50593E+03
 -1.88152E+03  1.06315E+03 -2.32010E+03 -1.90689E+03  8.58573E+02 -4.34098E+03  5.09198E+03 -3.65605E+03
  6.49036E+03  7.77423E+02  7.24904E+03  4.26629E+03  2.46164E+03  7.52551E+03 -2.25567E+03  6.73824E+03
 -5.61554E+03  2.78969E+03 -5.95379E+03 -1.03927E+03 -3.23682E+03 -4.51959E+03  1.38212E+03 -4.08232E+03
  4.69900E+03 -1.90426E+03  3.84049E+03  1.81212E+03  1.16493E+03  4.16431E+03 -8.30224E+02  3.15674E+03
 -1.63941E+03  2.43437E+03 -1.61772E+03  7.43055E+02 -3.13060E+02  6.35870E+02 -1.34160E+03  1.18254E+03
 -1.58633E+03  2.70229E+03 -4.86071E+03  2.18897E+03 -7.02901E+03 -7.86212E+01 -8.12045E+03 -4.35863E+03
 -4.24574E+03 -9.17542E+03  2.00839E+03 -1.08530E+04  6.31073E+03 -8.54720E+03  1.00274E+04 -2.84856E+03
  9.18505E+03  1.63267E+03  5.63833E+03  6.37935E+03  4.66616E+02  7.01115E+03 -2.58524E+03  5.27110E+03
 -3.93832E+03  1.91979E+03 -2.39123E+03 -1.10861E+03 -1.02273E+03 -2.24709E+02 -5.37781E+02  1.61314E+02
 -1.59409E+03  2.57644E+02 -1.64400E+03  3.55550E+02 -5.85052E+02 -1.91583E+03 -3.85972E+02 -2.73393E+03
  3.23298E+03 -2.42554E+03  4.21249E+03  3.64759E+02  5.14859E+03  3.82615E+03  1.02426E+03  6.81220E+03
 -3.22804E+03  8.01500E+03 -7.37213E+03  4.86180E+03 -8.07263E+03 -6.67576E+02 -6.48224E+03 -5.38204E+03
 -2.54079E+03 -7.01293E+03  2.10633E+03 -6.59512E+03  4.54456E+03 -3.60371E+03  4.43980E+03  2.03665E+02
  2.79181E+03  2.42994E+03 -5.05300E+02  1.77143E+03 -9.89668E+02  2.99080E+02  2.61690E+02 -1.78616E+03
  2.01849E+03 -7.55559E+02  2.62475E+03  1.06560E+03  1.73695E+03  2.60100E+03  6.08690E+02  3.15903E+03
 -3.06876E+03  2.78418E+03 -4.49447E+03  1.15335E+02 -4.36679E+03 -3.31531E+03 -8.61543E+02 -5.88064E+03
  3.30520E+03 -5.02182E+03  5.04607E+03 -1.35575E+03  5.09124E+03  9.85624E+02  3.29154E+03  4.49302E+03
  7.58033E+02  4.24944E+03 -1.90523E+03  3.76938E+03 -2.73827E+03  2.38782E+03 -2.50175E+03  2.68732E+02
 -1.23120E+03 -1.77544E+02 -1.41498E+03  3.13354E+02 -2.72922E+03  1.04365E+03 -3.38833E+03 -7.11226E+02
 -3.61041E+03 -2.08079E+03 -1.02358E+03 -4.71254E+03  1.90799E+03 -4.76427E+03  4.05937E+03 -2.07428E+03
  4.69525E+03  7.89122E+02  2.06464E+03  3.04945E+03 -3.83058E+02  5.13128E+03 -3.08898E+03  2.67925E+03
