 $NMID ID='MM_0lb_SNR800_9hz_g45_49.RAW', FMTDAT='(8E13.5)'
 TRAMP=1., VOLUME=1. $END
  3.10138E+05  6.42591E+02  3.37512E+05  2.50922E+05  8.49284E+04  3.38577E+05 -1.32946E+05  2.51913E+05
 -1.90887E+05  8.36416E+04 -1.12492E+05 -3.24352E+04 -1.16267E+01 -5.07505E+04  5.39384E+04 -5.42069E+02
  3.58519E+04  5.27419E+04 -1.65793E+04  7.62208E+04 -6.11578E+04  6.45498E+04 -8.54199E+04  3.27159E+04
 -8.17507E+04 -1.19135E+04 -5.75959E+04 -5.23751E+04 -1.54151E+04 -7.09177E+04  2.85479E+04 -4.68145E+04
  4.10554E+04  3.98420E+03  1.64006E+04  4.86367E+04 -3.47461E+04  4.80807E+04 -6.81303E+04  9.02016E+01
 -5.46576E+04 -5.75411E+04 -7.16437E+03 -7.86738E+04  3.43336E+04 -5.67622E+04  5.00620E+04 -1.85727E+04
  4.49062E+04  1.11361E+04  3.25525E+04  2.67598E+04  1.62907E+04  3.04574E+04 -5.75866E+03  2.73835E+04
 -2.25659E+04  1.19103E+04 -1.80233E+04 -6.40076E+03  6.80878E+03 -7.31737E+03  2.31576E+04  1.38086E+04
  6.89567E+03  3.70841E+04 -3.37958E+04  3.69325E+04 -6.57724E+04  1.79646E+03 -5.87285E+04 -4.41375E+04
 -1.24410E+04 -6.56110E+04  4.11311E+04 -4.72483E+04  6.11350E+04 -2.42446E+03  3.66266E+04  3.38810E+04
 -5.98058E+03  3.90172E+04 -3.14682E+04  1.86269E+04 -3.31977E+04 -3.43605E+03 -1.88287E+04 -1.20387E+04
 -9.75524E+03 -1.46485E+04 -4.63493E+02 -1.95438E+04  8.14993E+03 -2.35780E+04  1.59258E+04 -1.26787E+04
  1.06855E+04  6.20315E+03 -1.00851E+04  1.24815E+04 -2.32989E+04 -5.92278E+03 -8.73582E+03 -3.67137E+04
  2.50609E+04 -4.62166E+04  5.18355E+04 -2.08814E+04  4.84261E+04  2.04935E+04  1.73130E+04  4.70828E+04
 -1.67168E+04  3.56780E+04 -2.76951E+04  2.48877E+03 -1.15930E+04 -2.93793E+04  2.14556E+04 -3.66599E+04
  4.43789E+04 -1.09996E+04  4.01333E+04  2.46166E+04  2.07820E+04  5.07281E+04 -7.99666E+03  5.55271E+04
 -3.54509E+04  3.75440E+04 -4.67330E+04  1.07501E+04 -4.70182E+04 -1.84150E+04 -2.59240E+04 -4.19521E+04
  7.49849E+03 -4.15223E+04  3.40947E+04 -1.68637E+04  3.20884E+04  1.12468E+04  4.80700E+03  2.06261E+04
 -1.43789E+04  9.04057E+03 -1.08483E+04 -7.64178E+03  5.66986E+03 -1.09070E+04  1.87437E+04  5.73371E+03
  1.47141E+04  2.25444E+04 -5.01066E+03  2.70461E+04 -2.33726E+04  1.41043E+04 -3.14938E+04 -3.05051E+03
 -2.49181E+04 -1.81720E+04 -1.12860E+04 -2.44784E+04  4.53865E+03 -2.50422E+04  1.94345E+04 -2.22724E+04
  3.11786E+04 -1.37368E+04  3.77887E+04  5.08141E+03  2.69866E+04  2.36728E+04  4.27554E+03  4.04952E+04
 -1.98890E+04  3.36174E+04 -3.00500E+04  1.16487E+04 -2.24462E+04 -1.02097E+04 -4.42094E+03 -1.30689E+04
  1.32156E+03 -1.31183E+03 -7.47201E+03  8.19303E+03 -1.94506E+04  5.12516E+03 -1.93220E+04 -9.40151E+03
 -1.19081E+04 -2.27919E+04  5.90184E+03 -2.73538E+04  1.85190E+04 -1.95317E+04  2.21182E+04 -1.87165E+03
  1.44774E+04  1.57118E+04 -1.80275E+03  2.24321E+04 -1.63484E+04  1.31471E+04 -2.29731E+04 -4.38112E+03
 -1.70246E+04 -2.05880E+04 -2.10829E+03 -2.78388E+04  1.24263E+04 -2.30632E+04  2.27205E+04 -1.18888E+04
  2.16378E+04 -9.27572E+01  1.56820E+04  5.07197E+03  8.60751E+03  1.08891E+03  1.21075E+04 -1.72669E+03
  2.13887E+04  2.80168E+03  2.46021E+04  1.77740E+04  1.69663E+04  3.66925E+04 -2.57130E+03  4.35596E+04
 -2.46128E+04  3.62060E+04 -4.06174E+04  1.86665E+04 -4.33740E+04 -2.82447E+03 -3.54260E+04 -2.55465E+04
 -1.43184E+04 -3.63408E+04  1.27896E+04 -3.20433E+04  2.66732E+04 -1.48997E+04  2.35260E+04  7.56127E+03
  8.33071E+03  1.86452E+04 -1.10846E+04  1.57184E+04 -2.00863E+04  2.89026E+03 -1.48068E+04 -1.29642E+04
 -4.64130E+02 -1.94163E+04  1.03303E+04 -1.39257E+04  1.32495E+04 -8.50093E+02  3.39824E+03  8.57890E+03
 -8.88150E+03  4.22908E+03 -9.03565E+03 -7.40344E+03 -1.77151E+03 -1.75438E+04  1.21315E+04 -1.90147E+04
  2.27045E+04 -1.06273E+04  2.56384E+04  3.04794E+03  2.26111E+04  1.79228E+04  1.02855E+04  2.86082E+04
 -5.60487E+03  3.00935E+04 -2.00052E+04  1.86196E+04 -2.23526E+04  3.94079E+03 -1.50837E+04 -5.70044E+03
 -6.42254E+03 -6.86603E+03 -7.60634E+02  3.67222E+02 -2.81415E+03  3.68363E+03 -7.05682E+03  5.19777E+03
 -1.39196E+04 -9.81358E+02 -1.42890E+04 -1.15066E+04 -5.34930E+03 -1.90332E+04  5.97911E+03 -1.51687E+04
  1.23700E+04 -6.18002E+03  8.93418E+03  3.69379E+03 -1.62536E+02  5.94967E+03 -7.97144E+03 -2.21288E+02
 -7.44803E+03 -9.81221E+03 -8.69006E+02 -1.48671E+04  9.15517E+03 -1.57164E+04  1.94378E+04 -8.82336E+03
  2.31472E+04  2.81269E+03  1.69336E+04  1.39462E+04  3.65412E+03  1.84184E+04 -9.21192E+03  1.52894E+04
 -1.25741E+04  4.25419E+03 -6.73718E+03 -3.21252E+03  2.21902E+03 -4.17724E+03  8.13435E+03 -9.66739E+02
  7.13925E+03  6.72459E+03  1.18548E+03  1.22962E+04 -8.89645E+03  1.14564E+04 -1.49442E+04  3.13036E+03
 -1.02999E+04 -7.91303E+03  5.53571E+02 -1.35176E+04  8.77612E+03 -6.40345E+03  9.19355E+03  3.40684E+03
  2.05772E+03  9.79832E+03 -7.95244E+03  1.13993E+04 -1.32861E+04  5.39756E+03 -1.35613E+04 -5.00657E+03
 -8.01986E+03 -1.54501E+04  3.69545E+03 -1.76947E+04  1.48249E+04 -1.04729E+04  1.64516E+04  2.56810E+03
  9.77507E+03  1.33394E+04 -1.19990E+03  1.53323E+04 -1.14855E+04  8.62889E+03 -1.22420E+04 -1.31143E+03
 -1.04280E+04 -1.02924E+04 -1.90078E+03 -1.19877E+04  6.14714E+03 -9.66932E+03  7.52479E+03 -3.64388E+03
  4.67558E+03  2.26313E+03 -1.33828E+03  2.01374E+03 -7.32837E+02 -3.27145E+03  2.82513E+03 -7.55882E+03
  1.16154E+04 -4.75144E+03  1.56987E+04  1.89917E+03  1.47424E+04  1.05713E+04  1.01795E+04  2.02504E+04
 -4.65263E+03  2.33162E+04 -1.95660E+04  1.71353E+04 -2.47826E+04  3.16414E+03 -2.03433E+04 -9.02049E+03
 -1.03121E+04 -1.64185E+04 -4.73827E+02 -1.45096E+04  5.07503E+03 -8.04293E+03  5.03400E+03 -5.09269E+03
  3.87454E+03 -3.00419E+03  3.80839E+03 -4.05755E+03  5.92288E+03 -3.57625E+03  7.81605E+03 -1.13861E+03
  1.06732E+04  2.51120E+03  5.27039E+03  9.02955E+03 -2.26297E+03  1.10778E+04 -1.10939E+04  8.25960E+03
 -1.40918E+04 -1.37982E+03 -9.43107E+03 -9.68073E+03 -1.29475E+03 -1.52003E+04  8.61496E+03 -1.54179E+04
  1.58466E+04 -8.58221E+03  1.85878E+04  2.64651E+03  1.32153E+04  1.32873E+04  2.19250E+03  1.73173E+04
 -7.22124E+03  1.44239E+04 -1.02377E+04  4.72244E+03 -7.12121E+03 -2.05988E+03 -3.37042E+03 -2.16060E+03
 -1.47968E+03 -1.62141E+01 -2.04082E+03  2.96619E+03 -6.24720E+03  2.23958E+03 -9.97246E+03 -1.54510E+03
 -7.22447E+03 -9.92468E+03 -5.66840E+01 -1.47336E+04  8.73816E+03 -1.32154E+04  1.43335E+04 -4.16815E+03
  1.39464E+04  6.74769E+03  6.52857E+03  1.32416E+04 -3.36160E+03  1.47891E+04 -1.01578E+04  9.13798E+03
 -1.36833E+04  7.26717E+02 -1.02626E+04 -8.66530E+03 -1.38122E+03 -1.20789E+04  6.00171E+03 -9.19758E+03
  9.31479E+03 -2.70182E+03  6.65568E+03  2.31905E+03  2.89019E+03  3.82630E+03  1.13629E+03  1.89006E+03
  2.67712E+03  1.19683E+03  3.47035E+03  1.96902E+03  4.24887E+03  5.11374E+03  3.35348E+03  7.70542E+03
 -3.01221E+03  1.15845E+04 -1.02328E+04  1.17260E+04 -1.49719E+04  3.18020E+03 -1.53324E+04 -6.35864E+03
 -7.04238E+03 -1.43506E+04  2.01424E+03 -1.60432E+04  8.65210E+03 -1.00992E+04  1.23765E+04 -2.43471E+03
  9.08615E+03  5.86395E+03  2.24324E+03  8.56573E+03 -4.11132E+03  5.36736E+03 -6.18775E+03 -7.81843E+02
 -2.76930E+03 -6.27061E+03  3.31778E+03 -6.34120E+03  6.15419E+03 -2.90724E+03  5.86151E+03  1.25060E+03
  3.74130E+03  2.83793E+03  1.51656E+03  2.71356E+03 -8.75065E+02  1.99273E+03  1.49723E+03 -6.37427E+02
  2.63087E+03 -1.01828E+03  5.76632E+03  2.26961E+03  3.12254E+03  7.77089E+03 -9.84109E+02  9.96732E+03
 -6.55808E+03  6.43833E+03 -9.32261E+03  1.99487E+03 -8.10194E+03 -3.30080E+03 -3.28108E+03 -5.61945E+03
  1.09916E+03 -5.46959E+03  3.80578E+03 -2.70791E+03  3.27646E+03  3.11528E+03 -1.41083E+03  4.96352E+03
 -5.82131E+03  2.76603E+03 -7.13332E+03 -3.42613E+03 -3.95887E+03 -8.29154E+03  1.01721E+03 -8.17771E+03
  5.09504E+03 -4.97602E+03  6.39802E+03 -1.38377E+02  4.82049E+03  2.12237E+03  5.68615E+02  4.23278E+03
 -3.35097E+03  1.38547E+03 -3.73679E+03 -2.69546E+03  1.75117E+03 -6.19592E+03  7.17162E+03 -5.11635E+03
  8.99920E+03  3.94328E+02  8.87961E+03  6.20788E+03  3.08662E+03  9.74827E+03 -3.41521E+03  8.98662E+03
 -8.15696E+03  4.01674E+03 -8.15224E+03 -1.23884E+03 -4.13963E+03 -6.48079E+03  1.51940E+03 -6.00644E+03
  5.87090E+03 -2.94807E+03  5.29759E+03  2.81706E+03  1.68871E+03  5.36757E+03 -7.86645E+02  4.62180E+03
 -2.88451E+03  3.00451E+03 -2.56344E+03  9.84979E+02 -1.12805E+03  1.22105E+03 -1.45674E+03  1.62796E+03
 -2.42608E+03  3.67075E+03 -6.78859E+03  3.63504E+03 -9.88823E+03  4.39668E+02 -1.13564E+04 -6.69134E+03
 -5.90806E+03 -1.25165E+04  2.74631E+03 -1.45296E+04  9.49686E+03 -1.16802E+04  1.44466E+04 -4.60390E+03
  1.30608E+04  2.69959E+03  8.23980E+03  9.02617E+03  8.95054E+02  1.00398E+04 -3.95274E+03  7.93112E+03
 -5.95627E+03  2.84048E+03 -3.36991E+03 -1.13757E+03 -1.21335E+03 -9.07008E+02 -4.21446E+02  6.87040E+01
 -1.73083E+03  2.99697E+02 -2.28774E+03 -8.12346E+02 -1.00699E+03 -2.36493E+03  2.93067E+02 -3.67034E+03
  4.28213E+03 -2.90852E+03  6.40229E+03  9.98902E+01  7.10623E+03  5.35123E+03  1.83598E+03  1.05691E+04
 -4.72851E+03  1.16807E+04 -1.06184E+04  7.18289E+03 -1.24288E+04 -9.36485E+02 -9.60389E+03 -7.52085E+03
 -3.70271E+03 -1.03606E+04  3.00725E+03 -9.45160E+03  6.55416E+03 -5.33629E+03  7.12856E+03  8.13945E+01
  4.15734E+03  3.27153E+03 -4.82691E+02  2.78878E+03 -2.12905E+03 -1.20309E+02  3.91299E+01 -2.67785E+03
  2.89405E+03 -1.28439E+03  4.03120E+03  1.33512E+03  2.92316E+03  4.01098E+03  5.80306E+00  5.00425E+03
 -4.82050E+03  4.62328E+03 -6.80545E+03  1.90690E+02 -5.78797E+03 -4.76001E+03 -1.34250E+03 -8.62795E+03
  4.39699E+03 -6.85884E+03  7.85182E+03 -2.41751E+03  7.53688E+03  1.96456E+03  4.54651E+03  6.35963E+03
  6.12598E+02  6.81141E+03 -2.70379E+03  5.86617E+03 -4.11371E+03  2.80801E+03 -3.95574E+03  1.93480E+02
 -2.05661E+03 -3.58050E+02 -1.91527E+03  1.10744E+03 -3.29175E+03  9.59795E+02 -5.34312E+03 -1.54039E+03
 -5.13260E+03 -3.85132E+03 -1.62152E+03 -6.99085E+03  2.62488E+03 -7.26812E+03  5.91599E+03 -3.30908E+03
  6.66961E+03  9.06073E+02  3.51090E+03  4.83560E+03 -2.23874E+02  6.87865E+03 -5.64888E+03  4.68057E+03
