 $NMID ID='MM_0lb_SNR800_12hz_g45_67.RAW', FMTDAT='(8E13.5)'
 TRAMP=1., VOLUME=1. $END
  3.09814E+05  3.02943E+02  3.37747E+05  2.50606E+05  8.47815E+04  3.38162E+05 -1.32627E+05  2.51301E+05
 -1.90051E+05  8.31916E+04 -1.12196E+05 -3.24468E+04  1.07270E+03 -5.07512E+04  5.37118E+04 -2.55955E+01
  3.55233E+04  5.27538E+04 -1.65145E+04  7.57682E+04 -6.04946E+04  6.36168E+04 -8.44757E+04  3.19745E+04
 -8.15355E+04 -1.16680E+04 -5.73557E+04 -5.17747E+04 -1.49341E+04 -6.98324E+04  2.76237E+04 -4.58177E+04
  4.01590E+04  3.79488E+03  1.63433E+04  4.78918E+04 -3.46830E+04  4.73958E+04 -6.70169E+04 -9.45098E+01
 -5.39094E+04 -5.74494E+04 -7.04653E+03 -7.72579E+04  3.42634E+04 -5.54859E+04  4.81882E+04 -1.76963E+04
  4.41277E+04  1.13536E+04  3.23084E+04  2.59138E+04  1.60710E+04  3.01057E+04 -5.62398E+03  2.74950E+04
 -2.24033E+04  1.21803E+04 -1.82743E+04 -5.10232E+03  6.25677E+03 -7.66445E+03  2.26285E+04  1.25278E+04
  6.98792E+03  3.61566E+04 -3.23144E+04  3.60123E+04 -6.41655E+04  2.15107E+03 -5.74681E+04 -4.34141E+04
 -1.25166E+04 -6.38017E+04  4.02095E+04 -4.61844E+04  5.91325E+04 -2.10453E+03  3.47595E+04  3.27538E+04
 -6.04756E+03  3.69380E+04 -3.05231E+04  1.68567E+04 -3.10033E+04 -4.20045E+03 -1.71443E+04 -1.14498E+04
 -8.69371E+03 -1.34859E+04 -6.12119E+02 -1.85558E+04  8.01293E+03 -2.29097E+04  1.54247E+04 -1.31496E+04
  1.11325E+04  5.25868E+03 -8.90155E+03  1.31002E+04 -2.19725E+04 -4.98005E+03 -8.50528E+03 -3.45316E+04
  2.35219E+04 -4.43535E+04  4.93219E+04 -2.00310E+04  4.58584E+04  2.02624E+04  1.65337E+04  4.49383E+04
 -1.62719E+04  3.42042E+04 -2.58644E+04  1.79503E+03 -1.04758E+04 -2.84491E+04  2.12060E+04 -3.49285E+04
  4.21485E+04 -9.15678E+03  3.68901E+04  2.44235E+04  1.90722E+04  4.79175E+04 -8.49280E+03  5.19076E+04
 -3.24985E+04  3.51642E+04 -4.37547E+04  1.02793E+04 -4.41558E+04 -1.70024E+04 -2.43490E+04 -3.90980E+04
  7.42118E+03 -3.88661E+04  3.21508E+04 -1.50290E+04  3.01800E+04  1.11308E+04  4.36901E+03  1.97907E+04
 -1.35848E+04  9.18115E+03 -1.08170E+04 -7.86176E+03  6.03921E+03 -1.07719E+04  1.82931E+04  5.56123E+03
  1.38036E+04  2.25378E+04 -6.10699E+03  2.57524E+04 -2.28320E+04  1.22157E+04 -2.90325E+04 -4.37488E+03
 -2.16251E+04 -1.76164E+04 -9.04357E+03 -2.18441E+04  4.18702E+03 -2.12070E+04  1.71200E+04 -1.96277E+04
  2.77184E+04 -1.32630E+04  3.43205E+04  3.50191E+03  2.47713E+04  2.13635E+04  4.20105E+03  3.79216E+04
 -1.82983E+04  3.11510E+04 -2.86027E+04  1.11249E+04 -2.15096E+04 -9.93585E+03 -4.26955E+03 -1.30663E+04
  1.60228E+03 -2.09534E+03 -5.40373E+03  7.07610E+03 -1.72350E+04  5.01863E+03 -1.75876E+04 -8.02270E+03
 -1.05981E+04 -2.06193E+04  5.66235E+03 -2.41181E+04  1.61792E+04 -1.73705E+04  1.95841E+04 -1.24966E+03
  1.22840E+04  1.42609E+04 -1.45075E+03  2.03191E+04 -1.41030E+04  1.14945E+04 -2.03175E+04 -4.23173E+03
 -1.48748E+04 -1.80231E+04 -2.23002E+03 -2.41458E+04  1.12341E+04 -2.02097E+04  2.01059E+04 -9.86051E+03
  1.89989E+04  2.35131E+02  1.35308E+04  4.58907E+03  7.28777E+03  1.00960E+03  1.00065E+04 -1.77343E+03
  1.85899E+04  2.76714E+03  2.15154E+04  1.60427E+04  1.40875E+04  3.22892E+04 -2.70310E+03  3.69366E+04
 -2.14289E+04  3.03429E+04 -3.48488E+04  1.55913E+04 -3.67809E+04 -2.70840E+03 -3.02906E+04 -2.13203E+04
 -1.27339E+04 -3.04310E+04  1.04766E+04 -2.71486E+04  2.34423E+04 -1.33464E+04  2.11602E+04  6.30440E+03
  7.57265E+03  1.58536E+04 -9.97311E+03  1.36423E+04 -1.76739E+04  2.92664E+03 -1.33839E+04 -1.07485E+04
 -6.07896E+02 -1.64109E+04  8.42292E+03 -1.22636E+04  1.10293E+04 -1.25711E+03  2.59528E+03  7.51005E+03
 -7.06029E+03  3.00446E+03 -6.79461E+03 -6.08696E+03 -6.91780E+02 -1.48251E+04  1.01952E+04 -1.58741E+04
  1.85520E+04 -8.36516E+03  1.99289E+04  3.11236E+03  1.77756E+04  1.47493E+04  8.23250E+03  2.32067E+04
 -4.08863E+03  2.45498E+04 -1.62310E+04  1.55747E+04 -1.80529E+04  3.40161E+03 -1.24323E+04 -4.22866E+03
 -5.42865E+03 -5.59888E+03 -6.73373E+02  7.12809E+02 -2.15336E+03  2.98115E+03 -6.06581E+03  4.80694E+03
 -1.13917E+04 -6.69242E+02 -1.19783E+04 -9.91752E+03 -4.96376E+03 -1.61761E+04  5.11718E+03 -1.26207E+04
  1.04830E+04 -5.41287E+03  7.19416E+03  3.25025E+03 -9.65201E+01  5.20378E+03 -6.34824E+03 -3.45221E+02
 -5.66911E+03 -8.12467E+03 -6.46206E+02 -1.20340E+04  6.64410E+03 -1.26669E+04  1.55294E+04 -6.68530E+03
  1.88101E+04  1.35868E+03  1.36480E+04  1.11229E+04  2.70495E+03  1.44465E+04 -7.89169E+03  1.22142E+04
 -1.02327E+04  3.57179E+03 -5.32881E+03 -2.56501E+03  1.97795E+03 -3.54958E+03  6.63400E+03 -9.25337E+02
  5.89120E+03  5.30356E+03  1.47326E+03  9.77199E+03 -7.45037E+03  9.46212E+03 -1.24081E+04  2.45020E+03
 -8.03557E+03 -6.20489E+03  1.01046E+02 -1.07220E+04  6.54286E+03 -5.03701E+03  6.81858E+03  2.67601E+03
  1.43785E+03  7.33052E+03 -6.35061E+03  8.62646E+03 -9.81136E+03  4.15857E+03 -9.99744E+03 -3.35977E+03
 -6.34029E+03 -1.14662E+04  2.42007E+03 -1.31625E+04  1.12158E+04 -8.22100E+03  1.27338E+04  1.97132E+03
  7.84004E+03  9.85781E+03 -8.59634E+02  1.22220E+04 -8.59593E+03  6.93299E+03 -9.34225E+03 -8.53401E+02
 -8.68769E+03 -8.35503E+03 -1.91745E+03 -8.74647E+03  4.90356E+03 -7.57578E+03  5.46603E+03 -3.33604E+03
  4.50731E+03  8.90045E+02 -4.72250E+02  1.78081E+03 -5.15760E+02 -1.97073E+03  1.69760E+03 -4.93322E+03
  8.31919E+03 -2.65717E+03  1.11197E+04  1.17589E+03  1.14310E+04  7.40620E+03  8.10241E+03  1.51408E+04
 -3.21564E+03  1.69284E+04 -1.45715E+04  1.27900E+04 -1.86955E+04  2.51012E+03 -1.51200E+04 -6.07329E+03
 -7.65043E+03 -1.22902E+04 -4.57295E+02 -1.03651E+04  3.76240E+03 -5.73820E+03  3.89694E+03 -3.83286E+03
  2.71875E+03 -2.18259E+03  3.22387E+03 -3.23488E+03  5.00375E+03 -2.56429E+03  6.21744E+03 -5.85222E+02
  8.14312E+03  1.81797E+03  3.59277E+03  6.61263E+03 -2.16285E+03  7.60569E+03 -8.12810E+03  5.82375E+03
 -1.03377E+04 -1.29551E+03 -5.76875E+03 -7.31207E+03 -8.22807E+02 -1.05825E+04  6.06467E+03 -1.10147E+04
  1.10757E+04 -6.58766E+03  1.38838E+04  1.87839E+03  9.70880E+03  9.53635E+03  1.60686E+03  1.27490E+04
 -5.15885E+03  1.09028E+04 -7.53468E+03  3.40329E+03 -4.91593E+03 -1.61684E+03 -1.72517E+03 -1.52951E+03
 -9.67101E+02  1.12943E+02 -1.69801E+03  2.34930E+03 -4.63094E+03  1.83142E+03 -7.51786E+03 -8.67466E+02
 -4.62827E+03 -7.26331E+03  1.69632E+02 -9.94947E+03  6.27299E+03 -9.51485E+03  9.74905E+03 -2.90026E+03
  9.72823E+03  4.90313E+03  4.15600E+03  8.78501E+03 -2.30792E+03  9.80745E+03 -7.19185E+03  5.88673E+03
 -8.95652E+03  7.06482E+02 -7.45310E+03 -5.87446E+03 -6.57786E+02 -8.09798E+03  4.22225E+03 -6.04210E+03
  6.43332E+03 -2.35507E+03  4.41436E+03  1.96414E+03  1.56866E+03  3.14504E+03  1.16478E+03  1.20104E+03
  2.55619E+03  1.06864E+03  2.72318E+03  1.27813E+03  2.94705E+03  3.69853E+03  2.80725E+03  4.71048E+03
 -2.16940E+03  7.32435E+03 -7.14223E+03  8.28978E+03 -9.63811E+03  2.03025E+03 -1.00425E+04 -3.46874E+03
 -4.87440E+03 -9.96735E+03  1.39223E+03 -1.06869E+04  5.86235E+03 -7.09718E+03  7.98710E+03 -1.84085E+03
  6.43244E+03  3.88921E+03  1.55665E+03  5.56547E+03 -2.47692E+03  3.36719E+03 -3.66407E+03 -4.33047E+02
 -1.63609E+03 -3.81381E+03  2.36842E+03 -4.08668E+03  3.69238E+03 -2.20014E+03  3.66215E+03  9.31058E+02
  2.21293E+03  2.02604E+03  9.59796E+02  1.65002E+03 -4.12093E+02  1.11783E+03  1.77834E+03 -5.64614E+02
  1.26403E+03 -2.84985E+02  4.06453E+03  1.57614E+03  1.76982E+03  5.54637E+03 -9.68122E+02  6.75187E+03
 -4.15316E+03  3.84258E+03 -6.22405E+03  1.23848E+03 -5.71963E+03 -2.25615E+03 -1.61153E+03 -3.67298E+03
  3.14225E+02 -3.71911E+03  2.23516E+03 -1.63938E+03  1.95897E+03  2.24268E+03 -1.21434E+03  2.94113E+03
 -3.80635E+03  2.05164E+03 -4.28525E+03 -2.30038E+03 -2.19984E+03 -5.27307E+03  9.82856E+02 -4.98132E+03
  2.72867E+03 -2.53121E+03  3.18063E+03 -3.07603E+02  3.16830E+03  1.20088E+03  6.76280E+02  2.83974E+03
 -1.70703E+03  8.99071E+02 -2.26256E+03 -1.28934E+03  7.99782E+02 -3.57458E+03  4.77154E+03 -2.86026E+03
  5.69500E+03  3.91834E+02  6.18014E+03  3.73899E+03  1.91653E+03  5.92077E+03 -1.84357E+03  5.66859E+03
 -4.74242E+03  2.58182E+03 -5.18973E+03 -1.04041E+03 -2.38370E+03 -4.14169E+03  9.12816E+02 -3.48348E+03
  3.71803E+03 -1.78806E+03  3.12039E+03  1.53478E+03  1.20218E+03  3.40348E+03 -3.31504E+02  2.92251E+03
 -1.18434E+03  2.53296E+03 -1.44222E+03  4.66328E+02 -7.61781E+02  2.72404E+02 -1.34068E+03  1.22223E+03
 -1.55311E+03  2.42033E+03 -4.16662E+03  1.99779E+03 -5.66490E+03  5.96653E+02 -6.65404E+03 -3.65501E+03
 -3.32911E+03 -7.69758E+03  1.62504E+03 -8.76942E+03  5.05513E+03 -7.13761E+03  8.48282E+03 -2.86054E+03
  7.77937E+03  1.52247E+03  4.47797E+03  5.31805E+03 -1.24988E+02  5.90257E+03 -2.45470E+03  4.42329E+03
 -3.20530E+03  1.83150E+03 -1.95602E+03 -8.79956E+02 -8.08124E+02 -4.32440E+02 -1.03753E+03  1.13399E+02
 -1.61084E+03  2.91392E+02 -1.39223E+03  5.50691E+01 -1.56892E+02 -1.17472E+03  3.13387E+01 -2.32529E+03
  2.85462E+03 -2.05826E+03  3.25656E+03 -6.20664E+01  3.95394E+03  3.29515E+03  7.71836E+02  5.41210E+03
 -2.83986E+03  6.84694E+03 -6.28728E+03  3.52547E+03 -6.90331E+03 -8.99040E+02 -5.28638E+03 -4.67965E+03
 -2.39940E+03 -5.98483E+03  1.46935E+03 -5.62676E+03  3.75791E+03 -2.88706E+03  3.72170E+03  4.63893E+02
  2.09840E+03  1.85857E+03  2.42793E+01  1.58599E+03 -1.10338E+03 -2.68098E+01 -1.33379E+02 -1.23205E+03
  1.84416E+03 -6.11598E+02  2.04668E+03  1.02669E+03  1.46273E+03  2.02531E+03  4.59389E+02  2.78709E+03
 -2.47039E+03  2.36001E+03 -3.45066E+03  3.67821E+02 -3.54024E+03 -2.64643E+03 -3.62431E+01 -4.62791E+03
  2.94179E+03 -3.87178E+03  3.84760E+03 -6.14834E+02  4.39635E+03  3.45663E+02  2.36480E+03  3.36771E+03
  6.77605E+02  3.48567E+03 -1.22447E+03  2.87511E+03 -2.24493E+03  1.56498E+03 -1.96288E+03  3.83322E+02
 -8.93258E+02 -2.88493E+02 -1.16377E+03  5.54911E+02 -2.12754E+03  6.61227E+02 -3.10511E+03 -7.89399E+02
 -3.18062E+03 -1.39619E+03 -6.82176E+02 -3.71776E+03  1.95303E+03 -4.44093E+03  3.14152E+03 -1.98281E+03
  3.65327E+03  2.63969E+02  1.68256E+03  3.03005E+03 -4.16529E+02  3.84775E+03 -2.95695E+03  2.60569E+03
