 $NMID ID='MM_0lb_SNR800_14hz_g45_69.RAW', FMTDAT='(8E13.5)'
 TRAMP=1., VOLUME=1. $END
  3.09766E+05  3.86193E+02  3.37673E+05  2.50713E+05  8.45656E+04  3.38031E+05 -1.32574E+05  2.50903E+05
 -1.90305E+05  8.27401E+04 -1.11945E+05 -3.24556E+04  6.88187E+02 -5.05637E+04  5.38558E+04 -2.52658E+02
  3.49827E+04  5.29842E+04 -1.70625E+04  7.54636E+04 -6.05744E+04  6.32838E+04 -8.39053E+04  3.17716E+04
 -8.07852E+04 -1.16556E+04 -5.67423E+04 -5.12456E+04 -1.47985E+04 -6.94638E+04  2.72678E+04 -4.57625E+04
  3.99053E+04  3.69614E+03  1.59680E+04  4.71818E+04 -3.43870E+04  4.73473E+04 -6.63791E+04 -4.99271E+02
 -5.35964E+04 -5.68894E+04 -6.75301E+03 -7.69092E+04  3.37542E+04 -5.50035E+04  4.79349E+04 -1.75654E+04
  4.28166E+04  1.12347E+04  3.18646E+04  2.54974E+04  1.56695E+04  2.91946E+04 -5.19282E+03  2.69139E+04
 -2.19401E+04  1.24393E+04 -1.87244E+04 -4.78728E+03  5.46060E+03 -7.44010E+03  2.21777E+04  1.22258E+04
  7.37481E+03  3.49416E+04 -3.16275E+04  3.55132E+04 -6.31994E+04  1.93425E+03 -5.65822E+04 -4.24365E+04
 -1.27049E+04 -6.28416E+04  3.94252E+04 -4.49351E+04  5.79154E+04 -1.85250E+03  3.39005E+04  3.25750E+04
 -6.24529E+03  3.58620E+04 -2.98185E+04  1.54178E+04 -3.00267E+04 -4.71885E+03 -1.64966E+04 -1.05658E+04
 -8.10209E+03 -1.30209E+04 -8.97057E+02 -1.78411E+04  7.42768E+03 -2.29254E+04  1.55539E+04 -1.32233E+04
  1.13255E+04  4.92240E+03 -7.96116E+03  1.28740E+04 -2.11369E+04 -3.99454E+03 -8.54392E+03 -3.31338E+04
  2.26298E+04 -4.32633E+04  4.76322E+04 -1.93967E+04  4.47394E+04  1.93481E+04  1.54435E+04  4.41186E+04
 -1.58132E+04  3.31778E+04 -2.52433E+04  1.83265E+03 -9.77001E+03 -2.73912E+04  2.08069E+04 -3.36825E+04
  4.06245E+04 -8.97233E+03  3.53549E+04  2.33933E+04  1.78986E+04  4.60699E+04 -8.25327E+03  4.98397E+04
 -3.15030E+04  3.34164E+04 -4.15432E+04  9.54784E+03 -4.19406E+04 -1.66309E+04 -2.35599E+04 -3.75176E+04
  6.98459E+03 -3.72341E+04  3.12349E+04 -1.44504E+04  2.89077E+04  1.13601E+04  3.94369E+03  1.91038E+04
 -1.37156E+04  8.36162E+03 -1.03478E+04 -7.32783E+03  5.97168E+03 -1.05959E+04  1.76831E+04  6.01029E+03
  1.34919E+04  2.21328E+04 -5.79247E+03  2.50143E+04 -2.22354E+04  1.12458E+04 -2.76020E+04 -5.13114E+03
 -2.05373E+04 -1.71429E+04 -8.12067E+03 -2.01323E+04  3.87624E+03 -1.92829E+04  1.56288E+04 -1.79474E+04
  2.54154E+04 -1.25557E+04  3.19813E+04  2.33025E+03  2.34687E+04  1.97274E+04  4.31526E+03  3.58846E+04
 -1.73405E+04  3.02749E+04 -2.77791E+04  1.01128E+04 -2.07667E+04 -1.04826E+04 -4.16117E+03 -1.35563E+04
  1.76782E+03 -2.73628E+03 -4.89012E+03  6.79057E+03 -1.56796E+04  5.16927E+03 -1.58347E+04 -6.67643E+03
 -1.01003E+04 -1.85687E+04  5.10717E+03 -2.26174E+04  1.51254E+04 -1.61324E+04  1.78721E+04 -1.70681E+03
  1.12665E+04  1.27991E+04 -8.83542E+02  1.85476E+04 -1.27126E+04  1.03189E+04 -1.88845E+04 -3.93671E+03
 -1.36728E+04 -1.68862E+04 -1.86904E+03 -2.25063E+04  1.02401E+04 -1.84878E+04  1.90110E+04 -9.08332E+03
  1.77950E+04  1.23315E+02  1.25943E+04  4.07981E+03  6.82860E+03  1.01006E+03  9.57376E+03 -1.80722E+03
  1.72482E+04  2.85498E+03  1.91499E+04  1.51127E+04  1.20565E+04  2.95751E+04 -3.03700E+03  3.32528E+04
 -1.92952E+04  2.66966E+04 -3.12123E+04  1.35356E+04 -3.27445E+04 -2.17817E+03 -2.73160E+04 -1.86947E+04
 -1.17239E+04 -2.67214E+04  9.17917E+03 -2.43739E+04  2.10536E+04 -1.27428E+04  1.91226E+04  4.94274E+03
  7.01114E+03  1.40911E+04 -8.99913E+03  1.24049E+04 -1.57148E+04  2.57877E+03 -1.21882E+04 -1.01571E+04
  3.78059E+01 -1.51968E+04  7.76924E+03 -1.10794E+04  9.83686E+03 -1.09288E+03  2.30253E+03  6.32747E+03
 -6.75694E+03  2.15925E+03 -5.70381E+03 -5.49431E+03 -3.03539E+02 -1.32258E+04  9.34299E+03 -1.38251E+04
  1.64733E+04 -7.13765E+03  1.73824E+04  2.95202E+03  1.53005E+04  1.29788E+04  6.78317E+03  1.98818E+04
 -3.43458E+03  2.17573E+04 -1.37485E+04  1.35713E+04 -1.56274E+04  3.29732E+03 -1.09228E+04 -3.61216E+03
 -5.15654E+03 -4.94230E+03 -3.28363E+02  1.03215E+03 -2.42765E+03  2.71952E+03 -5.07672E+03  4.33593E+03
 -1.05161E+04 -8.75943E+02 -1.08371E+04 -8.97806E+03 -4.22575E+03 -1.44011E+04  4.64800E+03 -1.14481E+04
  9.06687E+03 -4.85388E+03  6.44888E+03  2.86297E+03  2.63421E+02  4.47239E+03 -5.21347E+03 -2.54240E+01
 -4.92983E+03 -6.96503E+03 -1.17657E+03 -1.04235E+04  6.13664E+03 -1.07770E+04  1.34340E+04 -5.65973E+03
  1.60593E+04  1.06971E+03  1.16341E+04  9.06496E+03  2.53536E+03  1.24202E+04 -6.68666E+03  1.08511E+04
 -8.88544E+03  3.61754E+03 -4.64124E+03 -2.30773E+03  1.77584E+03 -2.43498E+03  6.11356E+03 -1.13522E+03
  5.26770E+03  4.47349E+03  9.44055E+02  8.69742E+03 -6.32099E+03  8.37173E+03 -1.04611E+04  2.22998E+03
 -7.14938E+03 -5.42263E+03  4.71804E+02 -9.18382E+03  5.42524E+03 -4.53538E+03  5.74724E+03  1.58743E+03
  1.19290E+03  5.60562E+03 -5.77593E+03  6.94122E+03 -8.02972E+03  3.49128E+03 -7.99862E+03 -2.15091E+03
 -4.78335E+03 -9.39453E+03  2.18498E+03 -1.10197E+04  9.36309E+03 -6.85002E+03  1.04969E+04  1.59082E+03
  6.44913E+03  8.19411E+03 -1.12473E+02  1.04519E+04 -7.06314E+03  6.01676E+03 -8.02160E+03 -7.52518E+02
 -7.45696E+03 -6.97998E+03 -1.26855E+03 -7.82292E+03  4.14835E+03 -6.30366E+03  4.80713E+03 -3.10276E+03
  3.83697E+03  9.34595E+02 -3.28402E+02  1.81660E+03  1.34998E+02 -1.55552E+03  7.64586E+02 -3.79520E+03
  6.44323E+03 -2.10309E+03  8.91392E+03  9.83571E+02  8.89885E+03  5.90183E+03  7.31606E+03  1.23119E+04
 -2.19619E+03  1.35755E+04 -1.20351E+04  1.03065E+04 -1.53259E+04  1.92535E+03 -1.20681E+04 -4.59131E+03
 -6.35808E+03 -1.01196E+04 -2.61524E+02 -8.38582E+03  3.26584E+03 -4.40221E+03  3.15929E+03 -3.10839E+03
  1.99299E+03 -2.06237E+03  2.77835E+03 -3.03780E+03  4.28807E+03 -2.36246E+03  5.44295E+03 -4.62567E+01
  6.76307E+03  1.74897E+03  3.01239E+03  5.37295E+03 -1.81023E+03  5.90838E+03 -6.63946E+03  4.78334E+03
 -8.59382E+03 -1.00913E+03 -4.43256E+03 -5.62976E+03 -4.74002E+02 -8.55512E+03  5.02041E+03 -8.68919E+03
  8.61139E+03 -5.14585E+03  1.07653E+04  8.30553E+02  7.88068E+03  7.48919E+03  1.38864E+03  9.88034E+03
 -4.20669E+03  8.61980E+03 -5.50401E+03  3.07058E+03 -3.55880E+03 -1.64428E+03 -1.13261E+03 -1.09503E+03
 -9.25791E+02 -6.64599E+01 -1.34688E+03  2.43911E+03 -3.91057E+03  1.16724E+03 -5.93491E+03 -6.87347E+02
 -3.46657E+03 -5.92814E+03  6.37525E+02 -8.27590E+03  4.62223E+03 -7.40420E+03  6.91472E+03 -2.33087E+03
  7.67204E+03  3.70340E+03  3.52704E+03  6.60599E+03 -1.46431E+03  7.43595E+03 -5.12712E+03  5.02933E+03
 -6.82000E+03  4.72553E+02 -5.84085E+03 -4.28744E+03 -5.31052E+02 -6.06793E+03  3.05548E+03 -4.90735E+03
  4.83356E+03 -1.81396E+03  3.54165E+03  1.18672E+03  9.79453E+02  2.53474E+03  1.05890E+03  1.38041E+03
  1.95141E+03  8.53686E+02  1.91569E+03  1.19769E+03  2.13701E+03  3.17351E+03  2.26810E+03  3.72025E+03
 -2.14969E+03  5.75832E+03 -4.90238E+03  6.52064E+03 -6.76709E+03  2.18275E+03 -7.80555E+03 -2.12277E+03
 -3.44229E+03 -7.48649E+03  1.30162E+03 -8.37285E+03  4.15972E+03 -5.12273E+03  5.79174E+03 -1.45809E+03
  4.62435E+03  3.14667E+03  8.05937E+02  4.27906E+03 -1.57790E+03  2.61067E+03 -2.29317E+03 -1.97299E+02
 -1.43820E+03 -2.98975E+03  1.95214E+03 -2.94328E+03  2.64201E+03 -1.76786E+03  2.67141E+03  4.63922E+02
  1.51539E+03  1.17459E+03  9.84120E+02  8.80927E+02 -4.31420E+02  1.53951E+03  1.52528E+03 -5.02383E+02
  5.36575E+02 -3.87598E+02  3.02467E+03  1.20139E+03  1.32359E+03  4.28577E+03 -6.14853E+02  5.37332E+03
 -3.50302E+03  3.01626E+03 -4.62331E+03  7.09529E+02 -4.01675E+03 -1.64874E+03 -1.19784E+03 -2.71765E+03
  4.69697E+02 -2.78963E+03  1.76742E+03 -1.45995E+03  1.51958E+03  1.65199E+03 -1.12999E+03  2.25842E+03
 -2.72602E+03  1.37983E+03 -2.94977E+03 -1.87454E+03 -1.66720E+03 -4.11298E+03  6.34175E+02 -3.70951E+03
  1.85711E+03 -1.82781E+03  2.46473E+03 -1.29756E+02  2.44324E+03  5.57307E+02  4.61443E+02  1.99038E+03
 -1.03257E+03  4.92270E+02 -1.69782E+03 -9.34009E+02  8.71332E+02 -2.12091E+03  3.27586E+03 -2.29642E+03
  3.54534E+03  1.59838E+02  4.82868E+03  2.29539E+03  1.56915E+03  4.23584E+03 -1.25958E+03  3.94588E+03
 -3.20859E+03  1.56187E+03 -3.65032E+03 -4.39433E+02 -1.71459E+03 -2.77753E+03  7.28432E+02 -2.34893E+03
  2.51637E+03 -1.19987E+03  1.93573E+03  1.30899E+03  7.74739E+02  2.85265E+03 -7.68479E+01  2.11699E+03
 -8.01962E+02  1.82572E+03 -1.04642E+03  3.83597E+02 -4.12040E+02  8.50173E+02 -7.86049E+02  1.07636E+03
 -1.49901E+03  2.00570E+03 -3.13047E+03  1.64478E+03 -4.06122E+03  1.89266E+01 -5.01887E+03 -2.50820E+03
 -2.04078E+03 -5.49856E+03  1.00666E+03 -6.30747E+03  3.34663E+03 -4.98658E+03  5.79047E+03 -1.64616E+03
  5.19964E+03  8.93911E+02  2.75170E+03  3.62774E+03 -4.51700E+02  3.95115E+03 -1.41389E+03  3.02315E+03
 -2.32438E+03  1.35189E+03 -1.22140E+03 -5.96219E+02 -5.03600E+02 -2.17369E+02 -6.54829E+02  2.08611E+02
 -1.45490E+03 -2.10243E+01 -1.15914E+03 -9.43160E+01 -1.05493E+02 -1.25454E+03 -1.87388E+02 -1.65071E+03
  1.99112E+03 -1.22825E+03  2.01087E+03  3.48193E+01  3.17042E+03  2.44945E+03  2.54371E+02  3.73008E+03
 -2.11120E+03  4.83897E+03 -4.24596E+03  2.65010E+03 -4.34688E+03 -4.25544E+02 -3.63719E+03 -3.02539E+03
 -1.34932E+03 -3.73274E+03  8.45335E+02 -3.39530E+03  2.03112E+03 -1.65141E+03  2.13958E+03  1.44125E+02
  1.38495E+03  1.17377E+03  1.06393E+02  9.46109E+02 -6.87435E+02 -7.77267E+01 -1.58016E+02 -9.56464E+02
  1.16137E+03 -9.24235E+01  1.15209E+03  4.94852E+02  8.34133E+02  1.75800E+03  5.02812E+02  1.50454E+03
 -1.65339E+03  1.77535E+03 -2.32277E+03  3.94748E+01 -2.20973E+03 -1.69111E+03 -3.82549E+02 -3.08759E+03
  1.61886E+03 -2.24058E+03  2.55207E+03 -5.29328E+02  2.78277E+03  2.81619E+02  1.76185E+03  2.40985E+03
  4.18957E+02  2.41679E+03 -4.77730E+02  1.89806E+03 -1.56504E+03  9.77885E+02 -1.29714E+03 -7.75105E+01
 -6.05737E+02 -1.33178E+02 -9.98682E+02  3.09998E+02 -1.62703E+03  2.80288E+02 -1.91836E+03 -6.07621E+02
 -2.24148E+03 -6.41677E+02 -6.50230E+02 -2.35868E+03  1.25612E+03 -3.11799E+03  2.01641E+03 -1.02443E+03
  1.98800E+03 -5.20584E+01  8.50790E+02  1.16757E+03 -7.42932E+01  2.42292E+03 -1.73601E+03  1.63676E+03
