 $NMID ID='MM_0lb_SNR800_19hz_g50_92.RAW', FMTDAT='(8E13.5)'
 TRAMP=1., VOLUME=1. $END
  3.09834E+05  1.77829E+02  3.37302E+05  2.50110E+05  8.44686E+04  3.37728E+05 -1.32172E+05  2.50092E+05
 -1.89652E+05  8.26233E+04 -1.10943E+05 -3.27543E+04  1.27323E+03 -5.03491E+04  5.38372E+04  1.75472E+02
  3.48974E+04  5.28930E+04 -1.70355E+04  7.48960E+04 -6.04402E+04  6.29158E+04 -8.30434E+04  3.14121E+04
 -7.95253E+04 -1.09695E+04 -5.63515E+04 -5.04456E+04 -1.48128E+04 -6.82760E+04  2.67132E+04 -4.49617E+04
  3.91836E+04  3.76594E+03  1.57010E+04  4.72104E+04 -3.38032E+04  4.59867E+04 -6.54711E+04 -3.29990E+02
 -5.18945E+04 -5.61686E+04 -6.25834E+03 -7.53398E+04  3.30822E+04 -5.32841E+04  4.63733E+04 -1.65081E+04
  4.18078E+04  1.12213E+04  3.07741E+04  2.45605E+04  1.59527E+04  2.84823E+04 -4.70163E+03  2.69189E+04
 -2.17682E+04  1.29057E+04 -1.90658E+04 -4.51004E+03  4.30280E+03 -7.49839E+03  2.13213E+04  1.12864E+04
  7.50208E+03  3.34863E+04 -3.05545E+04  3.43234E+04 -6.13456E+04  2.10987E+03 -5.52623E+04 -4.10073E+04
 -1.24601E+04 -6.12703E+04  3.81982E+04 -4.34767E+04  5.56893E+04 -2.18808E+03  3.19066E+04  3.06534E+04
 -6.69790E+03  3.30492E+04 -2.82722E+04  1.33775E+04 -2.74917E+04 -5.37297E+03 -1.44242E+04 -9.88707E+03
 -7.26227E+03 -1.14008E+04 -1.02604E+03 -1.67715E+04  6.84312E+03 -2.26619E+04  1.49315E+04 -1.39933E+04
  1.20442E+04  4.61321E+03 -6.26861E+03  1.33639E+04 -1.95403E+04 -2.64592E+03 -8.16575E+03 -3.05714E+04
  2.09186E+04 -4.05301E+04  4.47657E+04 -1.89265E+04  4.21008E+04  1.82414E+04  1.43728E+04  4.16706E+04
 -1.51334E+04  3.08337E+04 -2.36777E+04  1.15034E+03 -8.18026E+03 -2.65965E+04  2.06178E+04 -3.10032E+04
  3.80668E+04 -7.36735E+03  3.18345E+04  2.26814E+04  1.56173E+04  4.25687E+04 -7.61054E+03  4.54500E+04
 -2.87541E+04  2.97109E+04 -3.74103E+04  8.56039E+03 -3.83233E+04 -1.50561E+04 -2.14561E+04 -3.46707E+04
  6.97066E+03 -3.42084E+04  2.88173E+04 -1.25877E+04  2.69459E+04  1.08597E+04  3.07091E+03  1.77984E+04
 -1.31400E+04  7.29417E+03 -9.69245E+03 -7.79857E+03  5.85961E+03 -9.87988E+03  1.72769E+04  6.47912E+03
  1.23026E+04  2.16681E+04 -6.57187E+03  2.33721E+04 -2.14489E+04  9.12865E+03 -2.50832E+04 -6.48007E+03
 -1.66640E+04 -1.63371E+04 -5.61752E+03 -1.70415E+04  3.64530E+03 -1.46872E+04  1.25939E+04 -1.44351E+04
  2.11569E+04 -1.16733E+04  2.77727E+04  8.78008E+02  2.12624E+04  1.65244E+04  3.98467E+03  3.25526E+04
 -1.61489E+04  2.76350E+04 -2.59508E+04  9.39220E+03 -1.95965E+04 -1.05210E+04 -4.15085E+03 -1.37930E+04
  2.79841E+03 -3.86839E+03 -2.66001E+03  5.21716E+03 -1.29415E+04  5.43044E+03 -1.33626E+04 -4.81160E+03
 -8.53221E+03 -1.55317E+04  4.46806E+03 -1.92440E+04  1.24336E+04 -1.38416E+04  1.45698E+04 -1.17149E+03
  8.87960E+03  1.08315E+04 -9.92973E+02  1.55033E+04 -1.04082E+04  8.84993E+03 -1.53802E+04 -3.24209E+03
 -1.12768E+04 -1.41093E+04 -1.18551E+03 -1.85419E+04  8.40823E+03 -1.53129E+04  1.58951E+04 -7.55542E+03
  1.43354E+04  6.83018E+02  1.04827E+04  3.92211E+03  5.23087E+03  5.06850E+02  7.55837E+03 -1.46082E+03
  1.37564E+04  2.68166E+03  1.46140E+04  1.25353E+04  9.04441E+03  2.44560E+04 -2.98507E+03  2.65469E+04
 -1.55855E+04  1.99273E+04 -2.40425E+04  9.78594E+03 -2.46882E+04 -1.72447E+03 -2.12698E+04 -1.42932E+04
 -9.96670E+03 -2.00498E+04  6.65139E+03 -1.87910E+04  1.64552E+04 -1.07921E+04  1.53958E+04  3.58139E+03
  6.53337E+03  1.09268E+04 -7.23666E+03  1.07092E+04 -1.31750E+04  2.43037E+03 -1.03711E+04 -8.17840E+03
 -2.69777E+01 -1.23155E+04  6.06766E+03 -9.23165E+03  7.62301E+03 -1.31791E+03  1.38361E+03  4.98677E+03
 -5.60102E+03  1.19326E+03 -3.39248E+03 -4.41771E+03  5.02986E+02 -1.00880E+04  8.07727E+03 -9.83397E+03
  1.22260E+04 -4.67125E+03  1.18290E+04  2.63448E+03  1.00918E+04  9.18425E+03  4.75647E+03  1.36398E+04
 -1.62255E+03  1.56789E+04 -9.56329E+03  9.82275E+03 -1.08662E+04  2.89008E+03 -8.35959E+03 -1.78520E+03
 -4.37717E+03 -3.25939E+03 -8.36136E+02  1.79656E+03 -1.96262E+03  1.96353E+03 -3.53864E+03  3.52017E+03
 -8.18855E+03 -5.72769E+02 -8.43415E+03 -7.24960E+03 -3.51564E+03 -1.13066E+04  3.54224E+03 -8.49533E+03
  7.34844E+03 -3.61999E+03  5.33238E+03  2.05712E+03  5.38623E+02  2.84857E+03 -3.21712E+03 -2.99163E+02
 -3.30718E+03 -5.17409E+03 -7.62515E+02 -6.95668E+03  4.03259E+03 -7.77953E+03  9.69270E+03 -3.88555E+03
  1.13451E+04  3.77504E+02  8.50377E+03  5.85798E+03  1.64716E+03  8.27008E+03 -5.12168E+03  8.38308E+03
 -6.76608E+03  2.73398E+03 -3.38424E+03 -1.28936E+03  8.63777E+02 -2.10935E+03  4.66941E+03 -1.22690E+03
  4.19750E+03  3.16121E+03  1.41285E+03  6.03489E+03 -4.37170E+03  6.07642E+03 -7.42467E+03  1.77829E+03
 -4.70973E+03 -3.32002E+03  2.18491E+02 -6.64300E+03  3.48404E+03 -3.21408E+03  3.44736E+03  9.28391E+02
  6.57401E+02  3.15503E+03 -3.76548E+03  4.46430E+03 -4.60588E+03  2.66483E+03 -4.39502E+03 -7.68612E+02
 -2.92548E+03 -5.88460E+03  1.01146E+03 -6.68643E+03  5.87934E+03 -4.32722E+03  6.03232E+03  1.02287E+03
  4.53461E+03  5.16529E+03 -7.33967E+01  7.06059E+03 -4.85184E+03  4.07366E+03 -5.14386E+03 -2.22454E+02
 -5.65577E+03 -4.97954E+03 -1.41737E+03 -4.90092E+03  2.37406E+03 -4.66485E+03  2.61204E+03 -2.78066E+03
  2.81688E+03  1.22911E+02  1.03000E+02  1.23029E+03  5.81688E+02 -1.02798E+02 -1.83521E+02 -1.54192E+03
  3.65220E+03 -7.62202E+02  5.33943E+03  6.81149E+02  5.10016E+03  2.79182E+03  5.12546E+03  6.98885E+03
 -1.17014E+03  8.21724E+03 -7.45553E+03  6.49839E+03 -9.36155E+03  1.29895E+03 -7.42560E+03 -2.45518E+03
 -4.06568E+03 -6.24349E+03 -4.52385E+02 -4.80250E+03  2.09370E+03 -1.95366E+03  1.41286E+03 -2.12844E+03
  9.39870E+02 -1.48314E+03  2.12313E+03 -2.37910E+03  3.74501E+03 -1.25033E+03  3.40147E+03  5.24187E+02
  4.34763E+03  1.07445E+03  1.01993E+03  3.39278E+03 -1.73198E+03  2.70992E+03 -4.20031E+03  2.50828E+03
 -4.51100E+03 -1.33772E+03 -1.90661E+03 -2.75440E+03  4.22186E+02 -4.39324E+03  2.97398E+03 -5.01852E+03
  5.05585E+03 -2.87270E+03  6.39183E+03 -2.29465E+01  4.64722E+03  3.69000E+03  1.12703E+03  5.62591E+03
 -1.95795E+03  5.62439E+03 -3.06675E+03  1.67386E+03 -1.72696E+03 -9.75962E+02 -2.48689E+02 -3.81537E+02
 -1.79569E+02  4.45889E+02 -9.61250E+02  2.00080E+03 -2.33696E+03  1.19973E+03 -4.03667E+03 -1.91900E+02
 -1.56732E+03 -3.74844E+03  5.53888E+02 -4.26928E+03  2.60404E+03 -3.88556E+03  3.17329E+03 -1.00916E+03
  3.76834E+03  2.26138E+03  1.58101E+03  2.66928E+03 -5.87238E+02  4.37415E+03 -2.34982E+03  2.42860E+03
 -3.66049E+03  5.04921E+02 -3.15353E+03 -1.93489E+03 -1.35743E+02 -2.94128E+03  1.43424E+03 -2.14816E+03
  2.69601E+03 -1.28191E+03  1.71626E+03  2.43485E+02  4.26374E+02  1.45942E+03  6.75605E+02  4.29151E+02
  1.71014E+03  6.15423E+02  1.29586E+03  7.39567E+02  7.75688E+02  2.44375E+03  1.26564E+03  1.73178E+03
 -1.53788E+03  2.69131E+03 -2.25159E+03  3.85535E+03 -2.67510E+03  1.07480E+03 -4.19056E+03 -4.02570E+02
 -1.66019E+03 -3.14214E+03  7.92148E+02 -4.61726E+03  1.62196E+03 -2.29121E+03  2.72420E+03 -6.65685E+02
  2.07885E+03  1.73196E+03  3.38816E+02  1.93726E+03 -5.27074E+02  1.08601E+03 -5.52328E+02 -1.84546E+01
 -8.13578E+02 -1.39052E+03  1.47179E+03 -1.20744E+03  7.27062E+02 -1.03842E+03  1.14147E+03  4.14484E+02
  9.10693E+02  1.83422E+01  6.00357E+02 -1.23035E+02 -3.32507E+02  9.22574E+02  1.34294E+03 -2.11907E+02
  7.82171E+01 -7.52698E+01  1.54818E+03  6.01960E+02  2.57634E+02  2.34595E+03 -1.51330E+02  2.66277E+03
 -1.42891E+03  1.04423E+03 -1.90598E+03  3.48460E+02 -2.05725E+03 -6.23470E+02 -6.34152E+01 -7.06299E+02
  5.10325E+02 -7.84383E+02  6.55178E+02 -3.96773E+02  8.27544E+02  9.13753E+02 -5.81915E+02  1.18000E+03
 -1.55577E+03  7.52412E+02 -1.13537E+03 -1.27021E+03 -7.23249E+02 -1.92897E+03  1.93762E+02 -1.62004E+03
  1.81412E+02 -5.85370E+02  6.57181E+02  1.79060E+02  1.19782E+03 -1.92894E+02  1.56901E+02  1.26585E+03
 -3.62503E+02 -1.39817E+02 -9.50372E+02 -1.50790E+02  4.56183E+02 -8.23145E+02  1.74186E+03 -5.70790E+02
  9.63356E+02  3.91884E+02  2.45587E+03  8.23622E+02  9.05527E+02  1.59825E+03 -2.14038E+02  1.32628E+03
 -1.53300E+03 -9.53007E+01 -1.35903E+03 -2.22357E+02 -8.28630E+02 -1.30897E+03  1.76350E+02 -5.97216E+02
  1.53781E+03 -4.28581E+02  5.99445E+02  6.38179E+02  1.76720E+02  1.06656E+03  1.14705E+02  7.69997E+02
 -1.52542E+02  1.01504E+03 -3.21252E+02  2.17677E+02 -4.15920E+01  1.26369E+02 -8.61920E+02  5.40423E+02
 -6.60204E+02  8.56639E+02 -1.81650E+03  3.69780E+02 -1.38560E+03  1.78299E+02 -2.13798E+03 -6.17176E+02
 -8.80413E+02 -2.00051E+03  4.95158E+02 -2.51124E+03  7.88754E+02 -2.01301E+03  2.39499E+03 -8.83241E+02
  2.04463E+03 -1.97531E+02  9.69383E+02  1.27482E+03 -7.89427E+02  1.35242E+03 -5.93095E+02  1.06027E+03
 -7.77169E+02  1.10718E+03 -3.13675E+02 -1.93727E+02 -3.31210E+02  4.94398E+02 -6.67463E+02  2.11327E+02
 -1.04878E+03 -1.24243E+02 -7.84808E+02  4.38435E+01  2.19907E+02 -5.53699E+02 -4.40187E+02 -6.38739E+02
  1.09974E+03 -4.77619E+02  2.96273E+02  2.44082E+02  1.11051E+03  8.65995E+02 -5.28015E+02  1.29165E+03
 -8.39996E+02  1.73721E+03 -1.60982E+03  7.96971E+02 -1.47324E+03 -1.98656E+02 -1.17746E+03 -1.05110E+03
 -7.15300E+02 -1.31779E+03  2.00755E+02 -1.19662E+03  5.23734E+02 -5.84075E+02  4.87087E+02  2.92533E+01
  6.89445E+02  3.50269E+02  3.49989E+02  3.30982E+02 -1.91864E+02 -4.66567E+01 -1.06088E+02 -2.12162E+02
  4.66654E+02  2.64256E+02  2.70653E+01  5.05747E+02  5.43636E+01  4.75962E+02  7.11249E+02  1.18799E+02
 -7.12780E+02  6.35125E+02 -3.05841E+02  1.24832E+01 -4.51473E+02 -2.37811E+02  2.38948E+02 -1.23511E+03
  2.42446E+02 -7.02228E+02  4.30007E+02  1.56414E+02  8.92745E+02 -6.61619E+02  4.92162E+02  7.44433E+02
  1.59670E+02  3.72838E+02 -4.05875E+01  3.65432E+02 -5.95446E+02  5.77413E+02 -2.86848E+02  2.75035E+02
 -1.96519E+02 -3.63003E+01 -2.99201E+02  1.92790E+02 -5.56262E+02  3.02971E+02 -7.73149E+02 -3.17461E+02
 -6.83603E+02  2.07538E+02 -2.41985E+02 -7.55090E+02  6.76030E+02 -1.52363E+03  5.60795E+02 -2.56129E+02
  6.49305E+02 -4.58326E+01 -3.58467E+02 -2.41444E+02  1.77014E+02  5.87367E+02 -5.36115E+02  5.77679E+02
