 $NMID ID='MM_0lb_SNR800_15hz_g60_27.RAW', FMTDAT='(8E13.5)'
 TRAMP=1., VOLUME=1. $END
  3.09670E+05  3.39887E+02  3.37782E+05  2.51032E+05  8.46126E+04  3.38359E+05 -1.32743E+05  2.51347E+05
 -1.90362E+05  8.34054E+04 -1.12130E+05 -3.22612E+04  9.53753E+02 -5.04778E+04  5.34982E+04 -4.02782E+02
  3.55091E+04  5.25008E+04 -1.65334E+04  7.56551E+04 -6.07894E+04  6.40476E+04 -8.46386E+04  3.20194E+04
 -8.14978E+04 -1.13217E+04 -5.74757E+04 -5.16059E+04 -1.52005E+04 -6.98269E+04  2.74350E+04 -4.60761E+04
  4.03319E+04  3.82522E+03  1.62535E+04  4.81058E+04 -3.44762E+04  4.73842E+04 -6.68425E+04 -1.12885E+02
 -5.36586E+04 -5.70174E+04 -7.27603E+03 -7.75302E+04  3.39999E+04 -5.54720E+04  4.84834E+04 -1.74032E+04
  4.38361E+04  1.11355E+04  3.20853E+04  2.57436E+04  1.58344E+04  2.93942E+04 -5.12358E+03  2.74070E+04
 -2.22801E+04  1.25233E+04 -1.85067E+04 -5.45571E+03  5.91537E+03 -7.17733E+03  2.23371E+04  1.24838E+04
  7.40571E+03  3.58004E+04 -3.28021E+04  3.57735E+04 -6.40428E+04  2.02284E+03 -5.75669E+04 -4.31815E+04
 -1.23480E+04 -6.39421E+04  4.02769E+04 -4.58048E+04  5.88046E+04 -2.20709E+03  3.49659E+04  3.27418E+04
 -5.96297E+03  3.68980E+04 -3.02521E+04  1.65654E+04 -3.11148E+04 -4.38664E+03 -1.73013E+04 -1.11126E+04
 -8.62984E+03 -1.36919E+04 -9.36573E+02 -1.82035E+04  7.44581E+03 -2.31419E+04  1.54940E+04 -1.32501E+04
  1.14532E+04  5.50729E+03 -8.62292E+03  1.30595E+04 -2.16228E+04 -4.81459E+03 -8.49015E+03 -3.42962E+04
  2.31814E+04 -4.41690E+04  4.87174E+04 -1.96904E+04  4.57748E+04  1.95356E+04  1.60317E+04  4.49583E+04
 -1.59341E+04  3.38005E+04 -2.57279E+04  1.96240E+03 -1.03039E+04 -2.81517E+04  2.13339E+04 -3.44051E+04
  4.15202E+04 -9.38044E+03  3.65113E+04  2.38311E+04  1.89101E+04  4.69753E+04 -8.00598E+03  5.10475E+04
 -3.22857E+04  3.45586E+04 -4.29838E+04  9.87472E+03 -4.32596E+04 -1.68041E+04 -2.42797E+04 -3.88998E+04
  7.70299E+03 -3.82615E+04  3.15217E+04 -1.48743E+04  2.95585E+04  1.09251E+04  4.01269E+03  1.93449E+04
 -1.32653E+04  8.72848E+03 -1.05961E+04 -7.34316E+03  5.87144E+03 -1.05928E+04  1.82813E+04  5.77949E+03
  1.35723E+04  2.23255E+04 -6.04292E+03  2.51627E+04 -2.21886E+04  1.15569E+04 -2.84267E+04 -4.35552E+03
 -2.13147E+04 -1.74375E+04 -8.79728E+03 -2.12044E+04  4.01614E+03 -2.03298E+04  1.62814E+04 -1.84695E+04
  2.70323E+04 -1.27298E+04  3.30642E+04  3.16580E+03  2.39579E+04  2.06103E+04  4.49347E+03  3.72645E+04
 -1.81036E+04  3.09671E+04 -2.82572E+04  1.06141E+04 -2.11806E+04 -1.04862E+04 -4.67370E+03 -1.33216E+04
  1.67534E+03 -2.50542E+03 -5.06374E+03  7.08434E+03 -1.66082E+04  4.90286E+03 -1.68557E+04 -7.44365E+03
 -1.03496E+04 -1.94000E+04  5.50197E+03 -2.32549E+04  1.57155E+04 -1.68402E+04  1.83230E+04 -1.54540E+03
  1.17262E+04  1.33081E+04 -8.83047E+02  1.93562E+04 -1.36894E+04  1.10917E+04 -1.94278E+04 -4.13017E+03
 -1.44785E+04 -1.72777E+04 -2.01089E+03 -2.35501E+04  1.05729E+04 -1.90267E+04  1.97159E+04 -9.65811E+03
  1.78678E+04  1.47850E+01  1.32553E+04  4.26841E+03  6.88892E+03  7.90082E+02  9.85037E+03 -1.87741E+03
  1.78469E+04  2.93517E+03  1.98275E+04  1.54317E+04  1.31385E+04  3.05003E+04 -2.89679E+03  3.51489E+04
 -2.04469E+04  2.82047E+04 -3.23556E+04  1.39308E+04 -3.39322E+04 -2.10461E+03 -2.85076E+04 -1.97072E+04
 -1.19622E+04 -2.81590E+04  9.82517E+03 -2.55142E+04  2.21596E+04 -1.26659E+04  1.96307E+04  5.49124E+03
  7.24489E+03  1.45269E+04 -9.00666E+03  1.23905E+04 -1.67765E+04  2.58828E+03 -1.26087E+04 -1.03353E+04
 -2.38390E+01 -1.57138E+04  8.14022E+03 -1.15966E+04  1.00385E+04 -1.08148E+03  2.14042E+03  6.71149E+03
 -6.99067E+03  2.75694E+03 -6.07517E+03 -5.59002E+03 -3.42916E+02 -1.37609E+04  1.00900E+04 -1.43495E+04
  1.70423E+04 -7.60329E+03  1.80844E+04  3.17162E+03  1.58651E+04  1.32019E+04  7.49872E+03  2.04918E+04
 -3.25917E+03  2.26137E+04 -1.40867E+04  1.41536E+04 -1.61307E+04  3.76757E+03 -1.15226E+04 -3.69229E+03
 -5.33612E+03 -4.93691E+03 -7.35850E+02  1.33510E+03 -2.28637E+03  2.73736E+03 -5.11710E+03  4.18493E+03
 -1.06903E+04 -9.32460E+02 -1.08056E+04 -9.26844E+03 -4.82944E+03 -1.48595E+04  4.68398E+03 -1.15411E+04
  9.49596E+03 -5.01156E+03  6.96210E+03  2.91048E+03  2.89079E+02  4.30570E+03 -5.19949E+03 -1.58848E+02
 -5.07574E+03 -7.40369E+03 -8.80602E+02 -1.06062E+04  6.14975E+03 -1.14961E+04  1.37221E+04 -6.11106E+03
  1.62841E+04  1.33439E+03  1.22642E+04  9.45540E+03  2.25306E+03  1.28807E+04 -6.88045E+03  1.10370E+04
 -9.11470E+03  3.53068E+03 -5.04505E+03 -2.49018E+03  1.66564E+03 -3.15224E+03  6.19582E+03 -1.04775E+03
  5.32312E+03  4.56112E+03  1.26001E+03  8.98330E+03 -6.47649E+03  8.80870E+03 -1.08348E+04  2.30343E+03
 -6.98420E+03 -5.52836E+03  1.91994E+02 -9.47888E+03  5.80302E+03 -4.77917E+03  5.60453E+03  1.93488E+03
  1.26650E+03  5.82113E+03 -5.71643E+03  7.37264E+03 -8.29819E+03  3.24946E+03 -7.97000E+03 -2.69828E+03
 -4.82138E+03 -9.86835E+03  2.20344E+03 -1.13238E+04  9.60423E+03 -7.24746E+03  1.03670E+04  1.64196E+03
  6.75547E+03  8.30624E+03 -4.54285E+02  1.07759E+04 -7.49336E+03  5.99600E+03 -7.92995E+03 -6.85400E+02
 -7.54191E+03 -7.25886E+03 -1.59522E+03 -7.54804E+03  3.97222E+03 -6.36015E+03  4.78788E+03 -3.02247E+03
  3.49835E+03  5.56108E+02 -4.81270E+02  1.15633E+03 -2.97507E+02 -1.24994E+03  9.17235E+02 -3.70092E+03
  6.56391E+03 -2.23300E+03  9.04812E+03  1.14161E+03  9.42087E+03  5.81553E+03  6.90487E+03  1.19737E+04
 -2.56479E+03  1.41021E+04 -1.21836E+04  1.04566E+04 -1.56011E+04  1.97212E+03 -1.24217E+04 -4.90324E+03
 -6.34708E+03 -1.04571E+04 -3.30072E+02 -8.68555E+03  3.44002E+03 -4.17671E+03  2.82801E+03 -3.36298E+03
  2.13233E+03 -1.95532E+03  2.70125E+03 -2.97373E+03  4.20857E+03 -2.22182E+03  5.08074E+03 -4.95256E+02
  6.39262E+03  1.62897E+03  2.84850E+03  5.28468E+03 -2.01590E+03  5.90732E+03 -6.50301E+03  4.73135E+03
 -8.03556E+03 -1.13235E+03 -4.17213E+03 -5.68235E+03 -3.45966E+02 -8.69935E+03  4.95326E+03 -8.54418E+03
  8.99406E+03 -5.22927E+03  1.08517E+04  1.28380E+03  7.64318E+03  7.30537E+03  1.48238E+03  9.96818E+03
 -3.90245E+03  8.83788E+03 -5.65519E+03  3.06237E+03 -3.40897E+03 -1.14965E+03 -1.08064E+03 -1.31336E+03
 -7.88826E+02 -1.22516E+01 -1.35074E+03  2.50952E+03 -3.56735E+03  1.54574E+03 -6.26102E+03 -8.26342E+02
 -3.27834E+03 -5.95688E+03  7.04441E+02 -7.76182E+03  4.63014E+03 -7.30829E+03  7.02819E+03 -2.09983E+03
  7.38188E+03  3.92415E+03  3.22865E+03  6.52591E+03 -1.66325E+03  7.49359E+03 -5.25331E+03  4.55848E+03
 -6.64996E+03  3.42441E+02 -5.81217E+03 -4.45742E+03 -3.82772E+02 -6.07798E+03  3.18515E+03 -4.68374E+03
  4.54768E+03 -1.80731E+03  2.98346E+03  9.11183E+02  1.39240E+03  2.26964E+03  1.11529E+03  7.81225E+02
  2.09295E+03  6.43683E+02  1.81679E+03  1.33917E+03  1.67972E+03  2.97029E+03  2.25025E+03  3.64237E+03
 -1.73217E+03  5.50742E+03 -4.71027E+03  6.27912E+03 -6.54121E+03  1.51016E+03 -7.46762E+03 -2.35829E+03
 -3.46132E+03 -6.85575E+03  1.08977E+03 -8.17044E+03  3.79138E+03 -4.78471E+03  5.89014E+03 -1.51175E+03
  4.60442E+03  2.62969E+03  7.85499E+02  3.89546E+03 -1.83396E+03  2.55950E+03 -2.36567E+03 -5.60547E+02
 -1.48376E+03 -2.52125E+03  2.21172E+03 -2.81580E+03  2.73239E+03 -1.48843E+03  2.98579E+03  6.75786E+02
  1.76020E+03  1.13101E+03  7.79428E+02  4.88570E+02 -3.32287E+02  1.13818E+03  1.37742E+03 -3.16459E+02
  4.45652E+02 -9.27441E+01  2.99314E+03  1.21391E+03  1.17603E+03  4.16503E+03 -6.24156E+02  5.25379E+03
 -2.78379E+03  2.60327E+03 -3.90106E+03  8.08326E+02 -3.65655E+03 -1.63338E+03 -7.81500E+02 -2.34223E+03
  2.64152E+02 -2.49295E+03  1.91654E+03 -1.22201E+03  1.26746E+03  1.77526E+03 -6.67632E+02  2.25455E+03
 -3.14207E+03  1.43879E+03 -2.55491E+03 -2.08980E+03 -1.60906E+03 -3.36416E+03  3.14870E+02 -3.31361E+03
  1.85147E+03 -1.31090E+03  2.20427E+03 -1.05398E+02  1.94932E+03  4.98021E+02  5.01105E+02  2.10434E+03
 -1.16042E+03  5.05333E+02 -1.83217E+03 -8.66497E+02  8.30816E+02 -1.98131E+03  3.47329E+03 -2.21660E+03
  3.38985E+03  4.05157E+02  4.57055E+03  2.27000E+03  1.51814E+03  3.75479E+03 -9.46173E+02  3.63603E+03
 -3.27573E+03  1.27502E+03 -3.01529E+03 -4.19101E+02 -1.59558E+03 -2.27437E+03  6.99688E+02 -1.74937E+03
  2.58154E+03 -1.08568E+03  2.07009E+03  9.80580E+02  5.27963E+02  2.16700E+03  2.02839E+01  2.04545E+03
 -7.27376E+02  1.48787E+03 -7.23959E+02  4.54154E+02  1.67966E+02  6.58095E+02 -1.10763E+03  9.78940E+02
 -9.86768E+02  1.84248E+03 -2.76952E+03  1.24270E+03 -3.54495E+03  2.10512E+01 -4.15358E+03 -2.07139E+03
 -1.79209E+03 -4.60518E+03  1.15017E+03 -5.77208E+03  2.96584E+03 -4.55184E+03  5.50960E+03 -1.74011E+03
  4.82252E+03  3.60888E+02  2.35862E+03  3.21989E+03 -1.60169E+02  3.66291E+03 -1.40571E+03  2.67786E+03
 -2.02875E+03  1.18678E+03 -1.12888E+03 -5.27640E+02 -6.03381E+02  1.43928E+02 -5.78458E+02 -2.95954E+02
 -1.10925E+03  2.01693E+02 -9.37986E+02 -1.25165E+02 -5.67091E+01 -1.01763E+03 -1.82288E+02 -1.39719E+03
  2.06174E+03 -1.06691E+03  1.58278E+03  5.19891E+01  2.50023E+03  1.80860E+03  1.86021E+02  3.24768E+03
 -1.76594E+03  4.07422E+03 -3.34702E+03  2.39771E+03 -3.67434E+03 -4.06996E+02 -2.80665E+03 -2.50721E+03
 -1.54708E+03 -3.27358E+03  6.94967E+02 -2.92945E+03  1.67814E+03 -1.77681E+03  1.53731E+03  2.18473E+02
  1.29310E+03  6.83892E+02 -4.26299E+01  9.36785E+02 -6.93610E+02 -2.70448E+01 -3.25579E+02 -4.90743E+02
  1.24048E+03 -2.77884E+02  9.97829E+02  5.48248E+02  7.32762E+02  1.36280E+03  4.47943E+02  1.42727E+03
 -1.14722E+03  1.45407E+03 -1.56592E+03  3.68184E+00 -2.14031E+03 -1.59262E+03 -6.99308E+01 -2.66179E+03
  1.56616E+03 -2.06144E+03  1.68182E+03 -3.84244E+02  2.16668E+03 -2.44266E+02  1.41409E+03  1.80030E+03
  9.06352E+02  1.59049E+03 -8.47299E+02  1.34660E+03 -1.03855E+03  1.36667E+03 -1.28858E+03  2.44079E+02
 -5.25670E+02 -1.29944E+02 -6.09343E+02  2.65424E+02 -1.10317E+03  2.06578E+02 -1.27084E+03 -7.66137E+02
 -1.77418E+03 -4.09558E+02 -3.20848E+02 -2.02517E+03  8.45487E+02 -2.55603E+03  1.53800E+03 -9.74676E+02
  1.81212E+03  8.54425E+01  5.17352E+02  1.02586E+03 -2.81533E+01  1.65972E+03 -8.65424E+02  1.10441E+03
