 $NMID ID='MM_0lb_SNR800_7hz_g60_69.RAW', FMTDAT='(8E13.5)'
 TRAMP=1., VOLUME=1. $END
  3.09889E+05  5.96189E+02  3.37958E+05  2.51095E+05  8.49238E+04  3.38895E+05 -1.33256E+05  2.51918E+05
 -1.90901E+05  8.43619E+04 -1.12819E+05 -3.21412E+04 -3.51015E+02 -5.04408E+04  5.36613E+04 -8.61372E+02
  3.54071E+04  5.29910E+04 -1.59046E+04  7.64879E+04 -6.18464E+04  6.45941E+04 -8.61152E+04  3.28970E+04
 -8.31509E+04 -1.17507E+04 -5.91762E+04 -5.28156E+04 -1.51482E+04 -7.17700E+04  2.86310E+04 -4.73890E+04
  4.19133E+04  3.48035E+03  1.71985E+04  4.90362E+04 -3.57225E+04  4.87317E+04 -6.89863E+04  4.49519E+02
 -5.56211E+04 -5.84565E+04 -7.87787E+03 -7.99957E+04  3.52685E+04 -5.82353E+04  5.06797E+04 -1.88276E+04
  4.62744E+04  1.19565E+04  3.34875E+04  2.69259E+04  1.58964E+04  3.08423E+04 -6.25722E+03  2.83728E+04
 -2.27165E+04  1.16191E+04 -1.74109E+04 -5.96753E+03  7.79519E+03 -6.58754E+03  2.44086E+04  1.46941E+04
  7.05249E+03  3.91788E+04 -3.52632E+04  3.82571E+04 -6.72113E+04  2.65885E+03 -5.98780E+04 -4.55004E+04
 -1.32322E+04 -6.79851E+04  4.21775E+04 -4.87148E+04  6.34369E+04 -2.70662E+03  3.77916E+04  3.54829E+04
 -5.02621E+03  4.11475E+04 -3.26531E+04  2.01597E+04 -3.50662E+04 -2.90340E+03 -2.08869E+04 -1.29120E+04
 -1.07180E+04 -1.69444E+04 -6.10037E+01 -2.09669E+04  8.63153E+03 -2.37423E+04  1.58807E+04 -1.20820E+04
  1.02589E+04  7.05749E+03 -1.18519E+04  1.29289E+04 -2.46216E+04 -7.85591E+03 -9.12831E+03 -3.94400E+04
  2.67100E+04 -4.85276E+04  5.43324E+04 -2.17954E+04  5.06369E+04  2.13389E+04  1.86767E+04  4.91278E+04
 -1.73236E+04  3.75270E+04 -2.89063E+04  2.97307E+03 -1.25359E+04 -3.06731E+04  2.21402E+04 -3.91101E+04
  4.70275E+04 -1.21633E+04  4.34905E+04  2.59237E+04  2.33239E+04  5.38156E+04 -8.94582E+03  5.99210E+04
 -3.80113E+04  4.13304E+04 -5.06993E+04  1.23275E+04 -5.01159E+04 -1.93836E+04 -2.82934E+04 -4.45152E+04
  8.29934E+03 -4.43410E+04  3.61597E+04 -1.88217E+04  3.36253E+04  1.13562E+04  6.35067E+03  2.20013E+04
 -1.43040E+04  1.05534E+04 -1.18067E+04 -8.01294E+03  5.77976E+03 -1.17272E+04  1.95191E+04  5.24619E+03
  1.55110E+04  2.30623E+04 -4.69031E+03  2.79249E+04 -2.45532E+04  1.62749E+04 -3.35772E+04 -1.69140E+03
 -2.78095E+04 -1.94546E+04 -1.33576E+04 -2.74560E+04  5.00690E+03 -2.92273E+04  2.25217E+04 -2.60101E+04
  3.57707E+04 -1.52869E+04  4.15893E+04  6.02236E+03  2.88416E+04  2.73667E+04  4.87525E+03  4.45528E+04
 -2.09039E+04  3.64440E+04 -3.24279E+04  1.25361E+04 -2.31582E+04 -1.02879E+04 -5.07355E+03 -1.22886E+04
 -6.71192E+01 -4.02264E+02 -9.15030E+03  9.32183E+03 -2.27835E+04  4.82234E+03 -2.20388E+04 -1.14589E+04
 -1.28098E+04 -2.57098E+04  6.36930E+03 -3.05697E+04  2.11543E+04 -2.19691E+04  2.50491E+04 -2.23491E+03
  1.65335E+04  1.76771E+04 -1.60077E+03  2.55057E+04 -1.88891E+04  1.52024E+04 -2.63355E+04 -5.49727E+03
 -1.90743E+04 -2.36111E+04 -2.75722E+03 -3.14238E+04  1.40850E+04 -2.60092E+04  2.59420E+04 -1.39695E+04
  2.42785E+04 -7.73391E+02  1.78932E+04  5.41327E+03  1.02180E+04  1.88821E+03  1.38275E+04 -1.88869E+03
  2.46827E+04  2.89264E+03  2.96722E+04  2.00139E+04  2.05965E+04  4.23989E+04 -1.92444E+03  5.07613E+04
 -2.89525E+04  4.28303E+04 -4.78667E+04  2.23251E+04 -5.18803E+04 -3.63104E+03 -4.16092E+04 -3.09475E+04
 -1.58689E+04 -4.35182E+04  1.57048E+04 -3.74637E+04  3.17419E+04 -1.72245E+04  2.70893E+04  1.00472E+04
  8.59268E+03  2.16844E+04 -1.32413E+04  1.73220E+04 -2.25927E+04  2.57280E+03 -1.70066E+04 -1.52387E+04
 -1.56147E+02 -2.22410E+04  1.20240E+04 -1.66578E+04  1.56337E+04 -1.53822E+03  3.97821E+03  1.02831E+04
 -1.01806E+04  5.38706E+03 -1.14161E+04 -7.70640E+03 -2.59914E+03 -2.08505E+04  1.34078E+04 -2.35270E+04
  2.70964E+04 -1.35058E+04  3.19483E+04  3.12987E+03  2.72123E+04  2.20668E+04  1.25450E+04  3.48272E+04
 -7.03209E+03  3.69803E+04 -2.47709E+04  2.25807E+04 -2.72113E+04  4.39017E+03 -1.76238E+04 -7.03084E+03
 -7.22384E+03 -9.00344E+03 -7.42015E+02  1.93540E+02 -3.43951E+03  4.16471E+03 -8.95167E+03  6.10371E+03
 -1.67652E+04 -1.28453E+03 -1.73995E+04 -1.41635E+04 -7.00389E+03 -2.23588E+04  7.57615E+03 -1.88320E+04
  1.49630E+04 -7.68137E+03  1.06034E+04  4.89247E+03 -6.03054E+02  7.20830E+03 -9.54173E+03 -7.94688E+02
 -9.39648E+03 -1.22287E+04 -1.43566E+03 -1.89018E+04  1.08804E+04 -1.99265E+04  2.41903E+04 -1.09415E+04
  2.83105E+04  2.90121E+03  2.05292E+04  1.77700E+04  4.37141E+03  2.32721E+04 -1.12637E+04  1.81047E+04
 -1.48048E+04  5.06066E+03 -7.88465E+03 -4.30664E+03  2.79223E+03 -5.43993E+03  9.64042E+03 -1.45934E+03
  8.59043E+03  8.49230E+03  1.11055E+03  1.49835E+04 -1.10629E+04  1.43425E+04 -1.95136E+04  3.26505E+03
 -1.32693E+04 -1.00941E+04  3.75369E+01 -1.62885E+04  1.03658E+04 -8.62469E+03  1.16735E+04  4.30105E+03
  3.30507E+03  1.30128E+04 -9.77459E+03  1.43836E+04 -1.71671E+04  6.70859E+03 -1.82974E+04 -6.78519E+03
 -1.02453E+04 -1.96826E+04  5.17787E+03 -2.27916E+04  1.97060E+04 -1.33477E+04  2.13296E+04  4.00686E+03
  1.28296E+04  1.66758E+04 -2.34947E+03  1.96897E+04 -1.43763E+04  1.07607E+04 -1.63972E+04 -1.86911E+03
 -1.28977E+04 -1.28318E+04 -2.26309E+03 -1.52642E+04  8.05546E+03 -1.18739E+04  9.93548E+03 -3.93607E+03
  5.75852E+03  2.96949E+03 -1.33961E+03  2.68272E+03 -1.89948E+03 -5.09761E+03  3.59686E+03 -9.97908E+03
  1.50695E+04 -6.55455E+03  2.09894E+04  2.57065E+03  1.99626E+04  1.46058E+04  1.21927E+04  2.67520E+04
 -6.85391E+03  3.04261E+04 -2.53149E+04  2.25365E+04 -3.28215E+04  4.57590E+03 -2.65513E+04 -1.22378E+04
 -1.32966E+04 -2.19233E+04 -3.27018E+02 -1.88344E+04  7.31914E+03 -1.13714E+04  6.94455E+03 -6.42292E+03
  5.40934E+03 -4.07840E+03  4.53216E+03 -4.41767E+03  6.34346E+03 -4.40238E+03  1.04471E+04 -2.00477E+03
  1.38252E+04  2.40324E+03  7.83991E+03  1.21498E+04 -2.75540E+03  1.52856E+04 -1.46027E+04  1.14008E+04
 -1.90868E+04 -1.39229E+03 -1.29117E+04 -1.37767E+04 -2.07339E+03 -2.11176E+04  1.17288E+04 -2.08620E+04
  2.18264E+04 -1.14145E+04  2.54566E+04  3.73989E+03  1.76292E+04  1.83434E+04  2.64652E+03  2.30601E+04
 -9.73598E+03  1.84846E+04 -1.33915E+04  6.70259E+03 -9.95282E+03 -1.89156E+03 -4.26182E+03 -3.28405E+03
 -2.08373E+03 -1.64671E+02 -2.87358E+03  3.10307E+03 -7.70542E+03  3.05663E+03 -1.31725E+04 -2.08799E+03
 -1.01970E+04 -1.33106E+04 -1.84628E+02 -1.94013E+04  1.22303E+04 -1.80579E+04  2.04334E+04 -5.55507E+03
  2.03478E+04  9.31534E+03  9.40809E+03  1.79045E+04 -4.45836E+03  2.00038E+04 -1.48180E+04  1.24651E+04
 -1.89603E+04  7.27502E+02 -1.43557E+04 -1.20631E+04 -1.60530E+03 -1.67668E+04  8.90465E+03 -1.24302E+04
  1.26262E+04 -4.29528E+03  8.82424E+03  3.17031E+03  3.65637E+03  6.14407E+03  1.89823E+03  2.92410E+03
  2.81927E+03  1.79854E+03  4.59591E+03  2.39573E+03  6.10527E+03  6.54013E+03  5.66400E+03  1.10252E+04
 -3.69967E+03  1.67056E+04 -1.47351E+04  1.59088E+04 -2.17396E+04  4.47550E+03 -2.18778E+04 -9.89140E+03
 -1.06953E+04 -2.10148E+04  2.80076E+03 -2.26719E+04  1.29644E+04 -1.48014E+04  1.71371E+04 -3.51435E+03
  1.29539E+04  7.48256E+03  2.82048E+03  1.20623E+04 -5.72665E+03  7.40695E+03 -9.02146E+03 -1.31870E+03
 -4.03794E+03 -8.66452E+03  4.50831E+03 -9.09507E+03  8.84494E+03 -3.91932E+03  8.21159E+03  1.97883E+03
  5.02613E+03  4.91671E+03  1.44208E+03  3.99822E+03 -7.98971E+02  2.74558E+03  1.97183E+03 -1.11652E+03
  3.39585E+03 -1.27906E+03  8.47307E+03  3.03251E+03  5.02458E+03  1.13929E+04 -2.02030E+03  1.48935E+04
 -1.03194E+04  1.09796E+04 -1.39851E+04  3.20203E+03 -1.24246E+04 -4.80253E+03 -5.49167E+03 -8.90366E+03
  1.09753E+03 -8.42851E+03  5.97376E+03 -3.88651E+03  4.83769E+03  4.03672E+03 -1.63905E+03  7.26744E+03
 -8.83854E+03  3.90793E+03 -1.01258E+04 -4.60545E+03 -5.72387E+03 -1.20846E+04  1.90439E+03 -1.20843E+04
  7.49265E+03 -7.12987E+03  9.48496E+03 -1.11973E+03  7.21159E+03  3.92688E+03  9.72003E+02  6.12544E+03
 -4.48334E+03  2.26826E+03 -4.83066E+03 -4.47549E+03  2.10074E+03 -9.75457E+03  1.07232E+04 -7.75688E+03
  1.44407E+04  1.19182E+03  1.31897E+04  9.61464E+03  4.12115E+03  1.50355E+04 -5.82220E+03  1.37377E+04
 -1.24534E+04  6.63723E+03 -1.24500E+04 -2.32816E+03 -7.06892E+03 -9.42835E+03  2.56420E+03 -9.71854E+03
  9.29028E+03 -4.57413E+03  8.39700E+03  3.92512E+03  2.57135E+03  8.22900E+03 -1.75380E+03  6.92402E+03
 -3.57986E+03  4.59286E+03 -3.63917E+03  1.58228E+03 -1.98610E+03  1.41458E+03 -2.00033E+03  2.54696E+03
 -3.54160E+03  5.56812E+03 -9.80891E+03  5.57888E+03 -1.49564E+04  3.29112E+02 -1.64288E+04 -9.97990E+03
 -9.15173E+03 -2.04690E+04  3.79219E+03 -2.33778E+04  1.43700E+04 -1.79428E+04  2.15007E+04 -6.98926E+03
  2.02958E+04  4.48498E+03  1.30024E+04  1.35399E+04  1.43951E+03  1.59929E+04 -6.70401E+03  1.19929E+04
 -8.84121E+03  3.73046E+03 -5.47916E+03 -1.69098E+03 -1.65273E+03 -2.05510E+03 -4.64305E+02 -2.72724E+02
 -2.09860E+03  2.88217E+02 -3.27325E+03 -7.88026E+02 -1.90050E+03 -3.95107E+03  9.95924E+02 -6.09945E+03
  6.67614E+03 -5.04355E+03  1.04449E+04  1.14884E+02  1.20011E+04  8.91401E+03  3.84929E+03  1.64898E+04
 -7.37901E+03  1.79592E+04 -1.66172E+04  1.06885E+04 -1.97954E+04 -2.06738E+03 -1.49717E+04 -1.21656E+04
 -6.15867E+03 -1.67424E+04  4.37308E+03 -1.54522E+04  1.05893E+04 -8.14309E+03  1.09891E+04 -1.18131E+02
  5.59068E+03  5.25986E+03 -3.75591E+02  4.79208E+03 -3.28071E+03 -5.80830E+02  6.62724E+01 -4.04342E+03
  4.67612E+03 -2.21554E+03  7.22730E+03  1.61949E+03  4.75348E+03  6.89630E+03 -3.35517E+02  8.92255E+03
 -6.95674E+03  7.50880E+03 -1.07233E+04  6.54989E+02 -1.03681E+04 -7.87795E+03 -1.70928E+03 -1.36713E+04
  8.11526E+03 -1.20465E+04  1.25497E+04 -3.84625E+03  1.30306E+04  3.39115E+03  7.27185E+03  1.07278E+04
  1.75854E+03  1.18106E+04 -4.59532E+03  9.12561E+03 -7.34277E+03  4.43303E+03 -5.97042E+03  4.11132E+02
 -2.94112E+03 -1.61744E+02 -3.05387E+03  1.27454E+03 -6.35158E+03  1.65413E+03 -8.64250E+03 -1.18464E+03
 -8.35888E+03 -6.03480E+03 -2.25097E+03 -1.12999E+04  5.31347E+03 -1.13633E+04  1.02595E+04 -5.66895E+03
  1.11988E+04  1.49690E+03  6.34136E+03  8.89485E+03 -4.86783E+02  1.17457E+04 -8.47839E+03  7.05146E+03
