 $NMID ID='MM_0lb_SNR800_17hz_g60_81.RAW', FMTDAT='(8E13.5)'
 TRAMP=1., VOLUME=1. $END
  3.09808E+05  2.28069E+02  3.37579E+05  2.50826E+05  8.47415E+04  3.38043E+05 -1.32753E+05  2.51199E+05
 -1.90391E+05  8.31318E+04 -1.11851E+05 -3.26185E+04  7.39593E+02 -5.07201E+04  5.39004E+04 -7.92254E+01
  3.52569E+04  5.28046E+04 -1.66101E+04  7.55070E+04 -6.04499E+04  6.35060E+04 -8.38390E+04  3.18736E+04
 -8.10255E+04 -1.13534E+04 -5.67567E+04 -5.12630E+04 -1.47646E+04 -6.94420E+04  2.76760E+04 -4.53742E+04
  4.02079E+04  3.72177E+03  1.62796E+04  4.77431E+04 -3.44233E+04  4.69769E+04 -6.65532E+04 -4.77372E+01
 -5.34013E+04 -5.66997E+04 -6.82137E+03 -7.72705E+04  3.40059E+04 -5.47536E+04  4.77770E+04 -1.69129E+04
  4.29611E+04  1.12119E+04  3.17759E+04  2.55866E+04  1.59110E+04  2.90479E+04 -5.12981E+03  2.74057E+04
 -2.17997E+04  1.25613E+04 -1.85243E+04 -4.79610E+03  5.40453E+03 -7.18282E+03  2.25113E+04  1.23612E+04
  7.24874E+03  3.50826E+04 -3.19325E+04  3.50634E+04 -6.31471E+04  2.35172E+03 -5.67916E+04 -4.24896E+04
 -1.24135E+04 -6.26759E+04  3.95908E+04 -4.50462E+04  5.75987E+04 -2.08298E+03  3.37865E+04  3.21937E+04
 -5.86682E+03  3.57366E+04 -2.97812E+04  1.54330E+04 -2.99862E+04 -4.68210E+03 -1.61470E+04 -1.08208E+04
 -8.06098E+03 -1.30905E+04 -6.59042E+02 -1.78731E+04  7.28582E+03 -2.28991E+04  1.55457E+04 -1.35136E+04
  1.16322E+04  5.15516E+03 -7.75712E+03  1.30389E+04 -2.06497E+04 -3.74793E+03 -8.48218E+03 -3.32461E+04
  2.26852E+04 -4.29388E+04  4.76149E+04 -1.94719E+04  4.42053E+04  1.94204E+04  1.55732E+04  4.37233E+04
 -1.60148E+04  3.29058E+04 -2.48530E+04  1.59829E+03 -9.78592E+03 -2.76595E+04  2.05858E+04 -3.30866E+04
  4.02617E+04 -8.69034E+03  3.45318E+04  2.35020E+04  1.74902E+04  4.56264E+04 -8.11762E+03  4.91271E+04
 -3.07688E+04  3.25978E+04 -4.10152E+04  9.28254E+03 -4.14576E+04 -1.65176E+04 -2.31625E+04 -3.74923E+04
  6.93062E+03 -3.68992E+04  3.10621E+04 -1.41900E+04  2.85674E+04  1.10146E+04  3.73233E+03  1.87660E+04
 -1.34924E+04  8.25180E+03 -1.01986E+04 -7.87218E+03  5.94529E+03 -1.03239E+04  1.76918E+04  6.19465E+03
  1.33329E+04  2.16092E+04 -6.33300E+03  2.47402E+04 -2.22525E+04  1.12809E+04 -2.70885E+04 -5.09336E+03
 -1.97506E+04 -1.69646E+04 -7.62642E+03 -1.96634E+04  3.86533E+03 -1.81999E+04  1.51132E+04 -1.71623E+04
  2.47814E+04 -1.23523E+04  3.13098E+04  2.29866E+03  2.31003E+04  1.90671E+04  4.16048E+03  3.51372E+04
 -1.72924E+04  2.95461E+04 -2.73523E+04  1.02513E+04 -2.06187E+04 -1.05651E+04 -4.32118E+03 -1.34983E+04
  2.37802E+03 -2.94528E+03 -4.07187E+03  6.14924E+03 -1.52745E+04  5.33002E+03 -1.55277E+04 -6.25452E+03
 -1.00885E+04 -1.78484E+04  5.04405E+03 -2.17316E+04  1.45675E+04 -1.54535E+04  1.72108E+04 -1.64427E+03
  1.05533E+04  1.27051E+04 -1.15236E+03  1.78999E+04 -1.22671E+04  1.02827E+04 -1.78045E+04 -3.79790E+03
 -1.29807E+04 -1.62606E+04 -1.59216E+03 -2.17736E+04  9.80776E+03 -1.76569E+04  1.81203E+04 -8.59259E+03
  1.67116E+04  5.51772E+02  1.20727E+04  4.25514E+03  6.33976E+03  7.82561E+02  8.98752E+03 -1.44784E+03
  1.61058E+04  2.57090E+03  1.77449E+04  1.43126E+04  1.16442E+04  2.85634E+04 -3.09625E+03  3.14476E+04
 -1.85637E+04  2.48182E+04 -2.92234E+04  1.24559E+04 -3.06295E+04 -2.10969E+03 -2.56648E+04 -1.73496E+04
 -1.13991E+04 -2.49270E+04  8.31138E+03 -2.27570E+04  1.94997E+04 -1.17070E+04  1.79847E+04  4.90074E+03
  6.88248E+03  1.32299E+04 -8.37921E+03  1.20141E+04 -1.50042E+04  2.70462E+03 -1.14144E+04 -9.18198E+03
  1.00863E+02 -1.43408E+04  7.11058E+03 -1.07215E+04  9.28144E+03 -1.19117E+03  1.80878E+03  5.81328E+03
 -6.10114E+03  1.83460E+03 -5.20375E+03 -5.16987E+03  1.32735E+01 -1.24405E+04  8.90818E+03 -1.24079E+04
  1.50351E+04 -6.15118E+03  1.55949E+04  2.82778E+03  1.36183E+04  1.17672E+04  6.29529E+03  1.81074E+04
 -2.91897E+03  1.97803E+04 -1.20604E+04  1.25752E+04 -1.43190E+04  3.32254E+03 -1.01033E+04 -2.99023E+03
 -4.86666E+03 -4.28699E+03 -5.02048E+02  1.12406E+03 -1.82995E+03  2.50535E+03 -4.34734E+03  3.81650E+03
 -9.48204E+03 -6.50362E+02 -9.99327E+03 -8.23834E+03 -4.26161E+03 -1.33687E+04  4.23679E+03 -1.02731E+04
  8.39966E+03 -4.40056E+03  6.25230E+03  2.61341E+03  7.08811E+02  3.83278E+03 -4.57371E+03  8.82114E+01
 -4.24254E+03 -6.18573E+03 -8.99519E+02 -8.85079E+03  5.11491E+03 -9.99443E+03  1.22150E+04 -4.95846E+03
  1.44015E+04  1.25265E+03  1.05416E+04  7.88913E+03  2.20582E+03  1.07776E+04 -6.27537E+03  9.96288E+03
 -7.99097E+03  3.07288E+03 -4.13798E+03 -1.87546E+03  1.57135E+03 -2.51234E+03  5.46044E+03 -1.05476E+03
  4.72099E+03  4.10473E+03  1.04873E+03  7.95919E+03 -5.28192E+03  7.44247E+03 -9.87079E+03  1.82916E+03
 -6.12140E+03 -4.57055E+03  1.69585E+02 -8.04047E+03  4.81168E+03 -4.02838E+03  4.92412E+03  1.16288E+03
  1.02490E+03  4.52535E+03 -4.91787E+03  5.87454E+03 -6.47130E+03  2.97169E+03 -6.49925E+03 -1.95646E+03
 -3.41129E+03 -8.02076E+03  1.60615E+03 -8.78648E+03  8.06248E+03 -5.52128E+03  8.27340E+03  1.34833E+03
  5.61421E+03  6.71712E+03 -2.77348E+02  8.79265E+03 -5.93737E+03  5.03384E+03 -6.44130E+03 -5.63115E+02
 -6.74884E+03 -6.29127E+03 -1.44521E+03 -6.37039E+03  3.17811E+03 -5.46400E+03  3.70054E+03 -2.83618E+03
  3.40049E+03  6.22891E+02 -2.39095E+02  1.58597E+03  2.19855E+02 -4.77534E+02  5.91051E+02 -2.98268E+03
  5.07940E+03 -1.53814E+03  7.22966E+03  7.36289E+02  7.52675E+03  4.27339E+03  6.33315E+03  9.38567E+03
 -1.86145E+03  1.11228E+04 -9.65382E+03  8.60657E+03 -1.25186E+04  1.46514E+03 -9.60228E+03 -3.52289E+03
 -5.21120E+03 -7.87919E+03 -5.00070E+02 -6.39931E+03  2.78192E+03 -3.16985E+03  2.23203E+03 -2.65284E+03
  1.55931E+03 -1.76457E+03  2.35046E+03 -2.71996E+03  4.06417E+03 -1.57473E+03  4.70127E+03  1.18141E+02
  5.36950E+03  1.37779E+03  1.79799E+03  4.46433E+03 -1.83711E+03  4.11526E+03 -5.33043E+03  3.55266E+03
 -6.53290E+03 -1.16741E+03 -3.06561E+03 -4.66075E+03  2.78183E+02 -6.59149E+03  4.28843E+03 -7.01269E+03
  6.61878E+03 -4.11074E+03  8.59951E+03  4.91653E+02  6.11414E+03  5.69445E+03  8.83405E+02  7.76727E+03
 -3.04350E+03  7.05049E+03 -4.31152E+03  2.22924E+03 -2.64191E+03 -1.15186E+03 -8.93240E+02 -6.95886E+02
 -7.15059E+02  2.35029E+02 -1.01118E+03  1.99971E+03 -3.04314E+03  1.11745E+03 -4.90190E+03 -6.06975E+02
 -2.01955E+03 -4.86113E+03  7.44224E+02 -5.81220E+03  3.63197E+03 -5.54666E+03  4.56334E+03 -1.74789E+03
  5.45289E+03  2.81722E+03  2.53881E+03  4.56819E+03 -1.13401E+03  5.70875E+03 -3.85383E+03  3.49536E+03
 -5.04084E+03  7.11971E+02 -4.18868E+03 -3.23053E+03 -3.14295E+02 -4.18738E+03  2.27159E+03 -3.13726E+03
  3.38196E+03 -1.50305E+03  2.38429E+03  6.77655E+02  9.27887E+02  1.90712E+03  8.14417E+02  7.21501E+02
  1.81613E+03  8.19167E+02  1.50335E+03  1.11594E+03  1.33911E+03  2.49017E+03  1.57103E+03  2.37990E+03
 -1.37249E+03  3.85432E+03 -3.38991E+03  5.02577E+03 -4.35222E+03  1.50947E+03 -5.64940E+03 -1.21140E+03
 -1.98825E+03 -5.01723E+03  7.48072E+02 -6.02720E+03  2.59245E+03 -3.22484E+03  4.12743E+03 -1.34867E+03
  3.27815E+03  2.21556E+03  5.78730E+02  3.03569E+03 -1.07648E+03  1.68629E+03 -1.59253E+03 -4.04720E+02
 -7.54406E+02 -2.26356E+03  1.45635E+03 -2.23345E+03  1.75322E+03 -1.17241E+03  1.79954E+03  4.45188E+02
  7.24537E+02  8.45381E+02  8.79298E+02 -1.80862E+02 -5.20792E+02  7.20217E+02  1.41979E+03 -2.48203E+02
  6.07461E+02 -5.27701E+02  2.26896E+03  8.17293E+02  5.79447E+02  3.09091E+03 -4.70110E+02  3.67261E+03
 -2.50950E+03  1.57194E+03 -2.80539E+03  4.12830E+02 -2.61459E+03 -9.22393E+02 -5.08441E+02 -1.43857E+03
  6.11905E+02 -1.69417E+03  1.17522E+03 -1.20303E+03  7.78261E+02  1.49150E+03 -9.65990E+02  1.26638E+03
 -1.98785E+03  1.29962E+03 -1.54480E+03 -1.32383E+03 -1.00837E+03 -2.44206E+03  2.47624E+02 -2.06818E+03
  8.75631E+02 -6.31647E+02  1.48021E+03  1.06666E+02  1.74910E+03  3.53777E+02  3.75730E+02  1.39348E+03
 -6.83948E+02  1.78951E+02 -1.04187E+03 -4.06843E+02  5.49735E+02 -1.15190E+03  2.06394E+03 -1.20701E+03
  2.16504E+03  6.32602E+02  3.34855E+03  1.10184E+03  1.22768E+03  1.90108E+03 -2.45900E+02  2.43812E+03
 -2.00290E+03  7.57212E+02 -2.23917E+03 -1.93574E+02 -1.22277E+03 -1.75205E+03  3.54411E+02 -1.00326E+03
  1.67795E+03 -6.80199E+02  1.10057E+03  1.05405E+03  4.42038E+02  1.78824E+03  1.32732E+02  1.46513E+03
 -6.68039E+02  1.20678E+03 -9.27917E+02  3.60800E+02 -3.00504E+02  6.20586E+02 -7.29181E+02  7.14170E+02
 -6.84461E+02  1.21432E+03 -2.13329E+03  5.29118E+02 -2.42387E+03  1.94195E+02 -3.11102E+03 -1.32674E+03
 -1.51047E+03 -2.82093E+03  6.22035E+02 -3.55082E+03  1.80861E+03 -3.23214E+03  3.43461E+03 -9.98870E+02
  3.19327E+03  1.59886E+01  1.82612E+03  2.34227E+03 -4.57799E+02  1.89449E+03 -6.35417E+02  1.78036E+03
 -1.06240E+03  1.14507E+03 -7.42205E+02 -5.18267E+02 -4.05572E+02  5.21982E+01 -6.59394E+02 -8.73356E+01
 -8.98477E+02 -2.98539E+02 -1.05397E+03  1.47785E+02  3.65054E+02 -6.35309E+02 -4.66566E+02 -9.80375E+02
  1.32941E+03 -1.08647E+03  7.10253E+02  1.38030E+02  1.56661E+03  1.02472E+03 -3.12337E+02  1.96626E+03
 -1.10079E+03  2.73387E+03 -1.96257E+03  1.62264E+03 -2.41812E+03 -1.68242E+02 -1.65089E+03 -1.58288E+03
 -1.29819E+03 -1.99492E+03  3.30966E+02 -1.56446E+03  8.11311E+02 -7.39428E+02  9.72101E+02  3.02179E+02
  8.64744E+02  5.83452E+02 -4.93478E+01  4.66604E+02 -2.95849E+02 -6.16826E+01 -1.21693E+02 -9.75674E+01
  7.97132E+02  5.18350E+01  5.75352E+02  6.60498E+02  1.11845E+02  3.93603E+02  5.39786E+02  6.21793E+02
 -6.91866E+02  9.46370E+02 -7.37180E+02  6.60399E+01 -1.21140E+03 -5.27437E+02 -1.86637E+01 -1.60902E+03
  8.28254E+02 -9.78570E+02  8.53202E+02 -5.20333E+01  1.26148E+03 -2.25831E+02  5.11691E+02  1.20126E+03
  3.42227E+02  9.96683E+02 -8.49581E+01  8.78551E+02 -4.67118E+02  8.74318E+02 -3.42219E+02  3.33963E+02
 -2.75733E+02 -2.73471E+02 -4.05823E+02  2.96582E+02 -9.18890E+02  1.81166E+02 -8.75450E+02 -1.58798E+02
 -1.16027E+03 -1.48802E+02 -5.41731E+02 -1.36436E+03  8.19183E+02 -1.78382E+03  1.10669E+03 -3.16086E+02
  1.03141E+03  3.47640E+02 -2.11961E+02  3.51839E+02 -2.70300E+02  8.25175E+02 -6.32285E+02  1.00773E+03
