 $NMID ID='MM_0lb_SNR800_20hz_g40_73.RAW', FMTDAT='(8E13.5)'
 TRAMP=1., VOLUME=1. $END
  3.09976E+05  3.45245E+02  3.37017E+05  2.50352E+05  8.42352E+04  3.37325E+05 -1.32320E+05  2.49694E+05
 -1.89574E+05  8.21043E+04 -1.10354E+05 -3.31985E+04  1.63326E+03 -4.99004E+04  5.38565E+04  3.06793E+02
  3.47714E+04  5.28328E+04 -1.72171E+04  7.42807E+04 -6.01790E+04  6.21540E+04 -8.25075E+04  3.13969E+04
 -7.85213E+04 -1.07517E+04 -5.59420E+04 -4.95935E+04 -1.48768E+04 -6.75796E+04  2.66620E+04 -4.44994E+04
  3.82187E+04  3.88097E+03  1.53216E+04  4.65079E+04 -3.33763E+04  4.56279E+04 -6.46013E+04 -8.64840E+02
 -5.11990E+04 -5.52248E+04 -5.82155E+03 -7.40330E+04  3.26407E+04 -5.19134E+04  4.53381E+04 -1.60532E+04
  4.06052E+04  1.09321E+04  3.02787E+04  2.37397E+04  1.57243E+04  2.76868E+04 -4.25596E+03  2.63860E+04
 -2.16057E+04  1.28234E+04 -1.92830E+04 -4.02001E+03  3.54274E+03 -7.59698E+03  2.07045E+04  9.99787E+03
  7.62060E+03  3.21603E+04 -2.95371E+04  3.31400E+04 -5.99929E+04  1.82883E+03 -5.44033E+04 -4.01459E+04
 -1.19334E+04 -5.95811E+04  3.70856E+04 -4.23878E+04  5.41388E+04 -1.85435E+03  3.06344E+04  2.95933E+04
 -6.89669E+03  3.14867E+04 -2.75394E+04  1.18703E+04 -2.62497E+04 -5.74138E+03 -1.31801E+04 -9.69682E+03
 -6.70855E+03 -1.06303E+04 -1.30010E+03 -1.58287E+04  6.18819E+03 -2.22337E+04  1.48793E+04 -1.42962E+04
  1.25981E+04  3.55916E+03 -5.34551E+03  1.30364E+04 -1.83185E+04 -1.41240E+03 -7.89575E+03 -2.88769E+04
  1.99380E+04 -3.89433E+04  4.30246E+04 -1.79776E+04  4.06223E+04  1.75212E+04  1.35650E+04  4.03847E+04
 -1.51360E+04  3.01428E+04 -2.22875E+04  7.20654E+02 -7.22461E+03 -2.57324E+04  2.03864E+04 -2.99307E+04
  3.65600E+04 -6.22480E+03  2.95319E+04  2.22714E+04  1.41667E+04  4.06786E+04 -7.57755E+03  4.27589E+04
 -2.68283E+04  2.79239E+04 -3.49824E+04  7.73472E+03 -3.61957E+04 -1.40803E+04 -2.00636E+04 -3.23468E+04
  6.43004E+03 -3.24092E+04  2.79200E+04 -1.16010E+04  2.57840E+04  1.08171E+04  2.76002E+03  1.71142E+04
 -1.29851E+04  6.74940E+03 -9.05733E+03 -7.72643E+03  6.04260E+03 -9.95341E+03  1.68865E+04  6.68347E+03
  1.19936E+04  2.10751E+04 -7.01718E+03  2.25272E+04 -2.09398E+04  8.09586E+03 -2.38638E+04 -7.17776E+03
 -1.49731E+04 -1.59598E+04 -4.14198E+03 -1.48544E+04  3.67023E+03 -1.24593E+04  1.10929E+04 -1.27100E+04
  1.90924E+04 -1.10933E+04  2.62073E+04  1.72688E+02  2.03551E+04  1.48168E+04  4.10488E+03  3.07856E+04
 -1.52047E+04  2.62772E+04 -2.52156E+04  9.12280E+03 -1.92472E+04 -1.01922E+04 -3.76481E+03 -1.39963E+04
  2.87119E+03 -4.63138E+03 -1.46591E+03  5.13638E+03 -1.14792E+04  5.18794E+03 -1.20172E+04 -3.81435E+03
 -8.15459E+03 -1.38178E+04  4.23793E+03 -1.78297E+04  1.14250E+04 -1.28981E+04  1.32577E+04 -1.33197E+03
  7.90869E+03  9.90438E+03 -6.81002E+02  1.42720E+04 -9.06778E+03  7.77826E+03 -1.37126E+04 -3.06212E+03
 -1.05155E+04 -1.27797E+04 -1.42218E+03 -1.72317E+04  7.92246E+03 -1.40180E+04  1.49211E+04 -6.38273E+03
  1.33692E+04  9.52641E+02  9.53416E+03  3.62715E+03  4.65283E+03  4.28056E+02  6.62949E+03 -1.12943E+03
  1.23492E+04  2.69690E+03  1.29774E+04  1.17492E+04  7.73837E+03  2.25292E+04 -3.17414E+03  2.34462E+04
 -1.41245E+04  1.75404E+04 -2.15059E+04  7.85517E+03 -2.17185E+04 -1.72449E+03 -1.87579E+04 -1.23890E+04
 -9.19419E+03 -1.74078E+04  5.39258E+03 -1.68279E+04  1.46374E+04 -1.02312E+04  1.42373E+04  2.90546E+03
  6.42619E+03  9.85895E+03 -6.36691E+03  9.62390E+03 -1.21352E+04  2.65939E+03 -9.48331E+03 -7.42514E+03
 -1.70981E+02 -1.13148E+04  5.55319E+03 -8.72998E+03  7.15378E+03 -1.45068E+03  1.16284E+03  4.46995E+03
 -5.17081E+03  6.90906E+02 -2.66466E+03 -4.15854E+03  7.41788E+02 -8.96326E+03  7.20107E+03 -8.64388E+03
  1.05829E+04 -3.63219E+03  9.63848E+03  2.67340E+03  8.40127E+03  8.15956E+03  4.28145E+03  1.18381E+04
 -9.70113E+02  1.36824E+04 -7.76932E+03  8.60462E+03 -9.85535E+03  2.71543E+03 -7.21644E+03 -1.19801E+03
 -4.43587E+03 -2.77898E+03 -9.25803E+02  2.20851E+03 -1.76885E+03  1.70033E+03 -3.04719E+03  3.41539E+03
 -7.08309E+03 -5.68907E+02 -7.61168E+03 -6.63868E+03 -3.26988E+03 -1.02612E+04  3.23891E+03 -7.55465E+03
  6.06222E+03 -3.32412E+03  4.60103E+03  1.57403E+03  7.48738E+02  2.54128E+03 -2.85252E+03  2.08138E+02
 -2.83483E+03 -4.53307E+03 -7.00843E+02 -6.08071E+03  3.35472E+03 -6.59624E+03  8.60724E+03 -3.35917E+03
  1.00326E+04  2.92913E+02  7.53769E+03  4.80867E+03  1.62549E+03  7.28426E+03 -4.50453E+03  6.94872E+03
 -6.24511E+03  2.54570E+03 -3.03221E+03 -8.85541E+02  1.08852E+03 -1.46633E+03  4.51133E+03 -1.09680E+03
  3.84059E+03  2.89989E+03  7.43876E+02  5.66372E+03 -3.50688E+03  5.60028E+03 -7.08019E+03  1.36932E+03
 -4.13552E+03 -3.08880E+03  3.22882E+02 -5.84955E+03  2.97025E+03 -2.86535E+03  2.70452E+03  4.29578E+02
  1.95123E+02  2.59341E+03 -3.52880E+03  3.74303E+03 -3.76642E+03  2.16590E+03 -3.20353E+03 -6.84162E+02
 -2.15573E+03 -4.68578E+03  8.26399E+02 -5.81990E+03  4.93532E+03 -4.08086E+03  5.25302E+03  7.03862E+02
  4.01729E+03  4.57181E+03 -4.20703E+01  6.16065E+03 -4.18400E+03  3.71276E+03 -4.30550E+03  3.74229E+00
 -5.30808E+03 -4.50536E+03 -1.53061E+03 -4.22149E+03  2.17576E+03 -4.01869E+03  2.40198E+03 -2.94763E+03
  2.63697E+03 -1.02501E+02  1.93702E+02  1.41214E+03  6.47877E+02  3.33842E+02 -2.16439E+02 -9.88986E+02
  3.11589E+03 -4.57576E+02  4.20479E+03  3.51994E+02  4.44943E+03  2.12331E+03  4.64976E+03  5.86058E+03
 -9.08091E+02  6.99582E+03 -6.26282E+03  5.18783E+03 -8.08544E+03  7.14887E+02 -6.29777E+03 -1.79897E+03
 -3.59458E+03 -5.47807E+03 -4.94637E+02 -4.04872E+03  1.55783E+03 -1.36373E+03  1.44270E+03 -1.84082E+03
  8.34256E+02 -1.44107E+03  2.01151E+03 -2.00689E+03  3.30617E+03 -1.18468E+03  3.40114E+03  6.99448E+02
  3.98304E+03  1.21060E+03  7.64010E+02  2.70110E+03 -1.49502E+03  2.19643E+03 -3.49600E+03  2.25508E+03
 -3.91860E+03 -1.15450E+03 -1.11030E+03 -2.48366E+03  7.12305E+02 -3.96271E+03  2.61440E+03 -4.23769E+03
  4.02462E+03 -2.64576E+03  5.57226E+03 -2.35861E+01  4.05308E+03  3.16887E+03  8.96002E+02  4.72723E+03
 -1.89730E+03  4.93104E+03 -2.61306E+03  1.68709E+03 -1.11257E+03 -1.04774E+03 -1.90385E+02 -5.72227E+02
 -3.52776E+02  5.07422E+02 -7.68041E+02  1.87406E+03 -2.15637E+03  9.66142E+02 -3.42878E+03 -3.80436E+02
 -1.02097E+03 -3.37005E+03  9.23631E+02 -3.59882E+03  2.01757E+03 -3.56874E+03  2.51984E+03 -8.08893E+02
  3.15840E+03  2.16286E+03  1.36164E+03  2.54155E+03 -6.90488E+02  3.72183E+03 -1.65438E+03  2.04496E+03
 -2.59350E+03  6.30195E+02 -2.86314E+03 -1.89906E+03  1.49301E+02 -2.51273E+03  1.28917E+03 -1.99113E+03
  2.15444E+03 -1.18853E+03  1.48853E+03  2.61540E+02  2.29063E+02  1.16469E+03  9.26948E+02  7.64373E+01
  1.46121E+03  6.05559E+02  9.63485E+02  9.07623E+02  7.12376E+02  1.97619E+03  1.22554E+03  1.11627E+03
 -9.14647E+02  2.18389E+03 -1.84882E+03  3.52366E+03 -2.40212E+03  1.08003E+03 -3.04284E+03  7.86788E+01
 -1.42853E+03 -2.90710E+03  5.96134E+02 -3.84072E+03  1.45233E+03 -1.94263E+03  2.21929E+03 -7.80193E+02
  1.93567E+03  1.44688E+03  2.68900E+02  1.74386E+03 -2.87537E+02  1.01253E+03 -4.78226E+02  8.88057E+01
 -4.91664E+02 -1.00391E+03  1.16335E+03 -1.08650E+03  7.35546E+02 -7.24586E+02  8.78269E+02  2.69281E+02
  7.54123E+02 -4.30735E+01  4.85901E+02 -3.86320E+02 -2.75759E+02  3.07886E+02  1.59884E+03 -2.68646E+01
 -7.32025E+01 -2.45330E+02  1.53913E+03  2.25316E+02 -7.33934E+01  2.03951E+03 -2.40801E+02  2.17336E+03
 -1.29195E+03  6.73119E+02 -1.50548E+03 -3.24363E+01 -1.73790E+03 -5.04589E+02  1.55634E+01 -7.75004E+02
  5.76074E+02 -8.09753E+02  8.74320E+02 -5.89927E+02  3.81833E+02  1.08283E+03 -7.46978E+02  7.33349E+02
 -1.03349E+03  7.39949E+02 -6.88845E+02 -9.87325E+02 -4.29612E+02 -1.91927E+03  7.08859E+01 -1.21221E+03
  1.96684E+02 -3.58028E+02  4.30092E+02  3.53000E+02  1.14588E+03 -2.32647E+02  2.86493E+02  8.93356E+02
  2.62441E+01  1.58319E+02 -8.19234E+02 -1.00814E+01  6.87615E+02 -6.16627E+02  1.55287E+03 -4.85662E+02
  6.32862E+02  4.23491E+02  2.56397E+03  3.64414E+02  1.16678E+03  1.29152E+03 -2.05443E+02  1.45364E+03
 -1.18538E+03  1.44542E+02 -1.10614E+03 -9.56636E+01 -5.04787E+02 -9.86422E+02  4.60080E+02 -1.37733E+02
  1.36683E+03 -6.48188E+02  4.36956E+02  5.55244E+02  1.26521E+02  1.09979E+03  3.04201E+02  9.61169E+02
 -1.40502E+02  9.74974E+02 -3.88828E+02  2.44255E+02  9.97222E+00  5.86005E+02 -7.46380E+02  2.98643E+02
 -7.13384E+02  7.81553E+02 -1.66367E+03  2.68192E+02 -1.22669E+03  2.05519E+01 -1.75902E+03 -5.61040E+02
 -6.06636E+02 -1.78655E+03  5.06887E+02 -2.14970E+03  7.15611E+02 -2.12154E+03  2.09953E+03 -1.02025E+03
  1.76044E+03 -1.23422E+02  8.47257E+02  1.15724E+03 -2.83118E+02  8.90629E+02 -7.76082E+02  8.53749E+02
 -5.46459E+02  4.90906E+02 -8.81086E+01  7.42720E+00 -4.26752E+02  5.76337E+02 -5.42622E+02  1.33005E+02
 -1.33484E+03 -1.97665E+02 -9.62530E+02 -6.68469E+01  3.68706E+02 -5.48493E+02 -4.22268E+02 -8.80776E+02
  8.98838E+02 -5.58498E+02  1.80048E+02  2.42284E+01  1.27900E+03  9.65143E+02 -5.01950E+02  9.15117E+02
 -9.25224E+02  1.84755E+03 -1.10141E+03  1.03986E+03 -1.41380E+03 -1.75430E+02 -8.74608E+02 -8.97698E+02
 -1.04691E+03 -1.13775E+03  5.64161E+00 -7.38562E+02  4.09400E+02 -4.58302E+02  5.20555E+02  1.73581E+02
  6.36958E+02  4.84198E+02  3.40318E+02  3.10351E+02 -2.25064E+02 -1.31861E+01 -1.13955E+02 -2.17940E+02
  5.73382E+02  3.30352E+02  2.02614E+02  3.79699E+02 -3.12778E+01  3.86560E+02  3.47178E+02  2.06131E+01
 -6.34061E+02  4.97634E+02 -1.70713E+02  5.13336E+01 -6.16686E+02 -5.83593E+02 -2.25223E+01 -1.06571E+03
  2.25684E+02 -4.69672E+02  1.65178E+02  4.49508E+01  9.69033E+02 -7.18122E+02  2.33616E+02  5.97754E+02
  4.54242E+02  8.19166E+01 -2.04629E+02  1.84864E+02 -1.70871E+02  3.33521E+02 -4.05294E+02  3.11537E+02
  1.07009E+01  8.86706E+00 -5.10939E+02 -1.39341E+01 -5.56111E+02  1.50148E+02 -4.24049E+02 -2.58712E+02
 -1.00532E+03  1.60912E+02 -4.77450E+02 -5.91599E+02  4.80395E+02 -1.38781E+03  6.35871E+02 -2.03161E+02
  6.04679E+02  7.27842E+01 -1.69592E+02 -3.05706E+01 -1.84739E+02  4.90330E+02 -1.55184E+02  6.11772E+02
