 $NMID ID='MM_0lb_SNR800_13hz_g45_8.RAW', FMTDAT='(8E13.5)'
 TRAMP=1., VOLUME=1. $END
  3.09923E+05  4.13756E+02  3.37508E+05  2.50702E+05  8.47951E+04  3.38341E+05 -1.32587E+05  2.51267E+05
 -1.90329E+05  8.30146E+04 -1.12009E+05 -3.26132E+04  5.46764E+02 -5.00157E+04  5.36908E+04  1.35648E+02
  3.58336E+04  5.28600E+04 -1.66800E+04  7.51755E+04 -6.08303E+04  6.36797E+04 -8.43308E+04  3.20259E+04
 -8.12617E+04 -1.10157E+04 -5.72043E+04 -5.14223E+04 -1.52710E+04 -6.97701E+04  2.76152E+04 -4.58781E+04
  3.96746E+04  4.09290E+03  1.61832E+04  4.76953E+04 -3.46107E+04  4.71716E+04 -6.70571E+04 -5.72100E+02
 -5.35617E+04 -5.65915E+04 -6.99058E+03 -7.71625E+04  3.37837E+04 -5.49157E+04  4.82957E+04 -1.73329E+04
  4.34869E+04  1.13461E+04  3.18723E+04  2.58117E+04  1.57157E+04  2.98064E+04 -5.47932E+03  2.72152E+04
 -2.20573E+04  1.21409E+04 -1.87754E+04 -4.81905E+03  5.92548E+03 -7.30746E+03  2.25738E+04  1.27385E+04
  7.10442E+03  3.53108E+04 -3.23335E+04  3.54617E+04 -6.34987E+04  2.09606E+03 -5.71263E+04 -4.33504E+04
 -1.24705E+04 -6.32499E+04  3.98339E+04 -4.55717E+04  5.87685E+04 -2.37105E+03  3.42037E+04  3.24005E+04
 -5.79900E+03  3.63300E+04 -3.01418E+04  1.63444E+04 -3.05331E+04 -4.31767E+03 -1.70255E+04 -1.09065E+04
 -8.43186E+03 -1.32172E+04 -8.53606E+02 -1.81300E+04  7.52979E+03 -2.29160E+04  1.52408E+04 -1.30083E+04
  1.10066E+04  5.26728E+03 -8.74645E+03  1.31162E+04 -2.11926E+04 -4.42462E+03 -8.38624E+03 -3.41285E+04
  2.28470E+04 -4.36257E+04  4.84908E+04 -1.98830E+04  4.53111E+04  1.94163E+04  1.56815E+04  4.44406E+04
 -1.59064E+04  3.35726E+04 -2.53038E+04  1.79941E+03 -1.00167E+04 -2.78260E+04  2.09224E+04 -3.42996E+04
  4.14104E+04 -9.10199E+03  3.63633E+04  2.39209E+04  1.82508E+04  4.72944E+04 -8.34014E+03  5.08984E+04
 -3.21921E+04  3.41208E+04 -4.27050E+04  1.01724E+04 -4.28949E+04 -1.70134E+04 -2.36894E+04 -3.80732E+04
  7.35566E+03 -3.85329E+04  3.17378E+04 -1.48088E+04  2.95099E+04  1.09368E+04  4.10899E+03  1.92113E+04
 -1.36763E+04  8.25225E+03 -1.04068E+04 -7.61420E+03  5.86925E+03 -1.06837E+04  1.79763E+04  6.16660E+03
  1.37839E+04  2.23043E+04 -5.80789E+03  2.51452E+04 -2.23288E+04  1.15916E+04 -2.82232E+04 -4.22579E+03
 -2.13728E+04 -1.74476E+04 -8.75813E+03 -2.12862E+04  4.02078E+03 -2.05258E+04  1.60129E+04 -1.89280E+04
  2.68071E+04 -1.28500E+04  3.30675E+04  3.07657E+03  2.41355E+04  2.01825E+04  4.22957E+03  3.69558E+04
 -1.82769E+04  3.07760E+04 -2.85018E+04  1.08673E+04 -2.11132E+04 -1.01518E+04 -4.32736E+03 -1.33919E+04
  1.33787E+03 -2.59398E+03 -5.14494E+03  6.79913E+03 -1.65455E+04  4.99447E+03 -1.69733E+04 -7.01474E+03
 -1.04439E+04 -1.96606E+04  5.62857E+03 -2.32572E+04  1.56033E+04 -1.67490E+04  1.85916E+04 -1.69277E+03
  1.18032E+04  1.34239E+04 -1.23163E+03  1.96480E+04 -1.36206E+04  1.11005E+04 -1.95494E+04 -4.28968E+03
 -1.43530E+04 -1.71359E+04 -1.64452E+03 -2.34323E+04  1.06305E+04 -1.93875E+04  1.93521E+04 -9.60273E+03
  1.80479E+04  3.40112E+02  1.31785E+04  4.66411E+03  6.93003E+03  1.04086E+03  9.90350E+03 -1.65737E+03
  1.79391E+04  2.95793E+03  2.00387E+04  1.56529E+04  1.32446E+04  3.12111E+04 -3.21153E+03  3.54195E+04
 -2.04695E+04  2.83692E+04 -3.31028E+04  1.43234E+04 -3.49510E+04 -2.52806E+03 -2.83900E+04 -2.01502E+04
 -1.20914E+04 -2.87193E+04  9.86059E+03 -2.61871E+04  2.23515E+04 -1.27959E+04  1.96516E+04  5.52133E+03
  7.04552E+03  1.50703E+04 -8.73969E+03  1.30112E+04 -1.66321E+04  2.66037E+03 -1.26388E+04 -1.03917E+04
 -1.13785E+02 -1.59553E+04  8.25063E+03 -1.17768E+04  1.05932E+04 -1.48919E+03  2.25250E+03  6.55154E+03
 -6.92895E+03  2.55704E+03 -6.03808E+03 -5.80467E+03 -8.16437E+02 -1.38819E+04  9.87166E+03 -1.48677E+04
  1.72174E+04 -7.82555E+03  1.89137E+04  2.90866E+03  1.60413E+04  1.40035E+04  7.55969E+03  2.11650E+04
 -3.90664E+03  2.30023E+04 -1.48235E+04  1.46204E+04 -1.69363E+04  3.42578E+03 -1.17514E+04 -3.82348E+03
 -5.45323E+03 -5.10358E+03 -6.04091E+02  7.61549E+02 -2.14699E+03  2.83960E+03 -5.46545E+03  4.49172E+03
 -1.11167E+04 -6.73914E+02 -1.12781E+04 -9.44820E+03 -4.80970E+03 -1.56045E+04  5.03927E+03 -1.15081E+04
  1.00348E+04 -5.29043E+03  7.06440E+03  3.12710E+03  1.83036E+02  4.92001E+03 -5.55165E+03 -1.12679E+01
 -5.35803E+03 -7.69945E+03 -4.78207E+02 -1.10741E+04  6.45866E+03 -1.17875E+04  1.51505E+04 -6.12619E+03
  1.73372E+04  1.35444E+03  1.28066E+04  1.01376E+04  2.34846E+03  1.32872E+04 -7.28163E+03  1.15566E+04
 -9.43613E+03  3.64103E+03 -5.26713E+03 -2.15411E+03  1.71610E+03 -3.24755E+03  6.33923E+03 -1.06314E+03
  5.72804E+03  5.04802E+03  1.32479E+03  9.29873E+03 -6.80093E+03  9.09589E+03 -1.12105E+04  2.10177E+03
 -7.83350E+03 -6.29119E+03  2.12108E+02 -9.81977E+03  6.38981E+03 -4.94035E+03  6.52861E+03  2.18537E+03
  1.04112E+03  6.51519E+03 -5.99700E+03  8.33728E+03 -8.75002E+03  3.58520E+03 -8.79285E+03 -2.97100E+03
 -5.51011E+03 -1.02900E+04  2.40691E+03 -1.21306E+04  1.03482E+04 -7.65926E+03  1.13977E+04  1.68933E+03
  7.16876E+03  9.12572E+03 -2.93857E+02  1.09392E+04 -7.94065E+03  6.31727E+03 -8.48126E+03 -6.30170E+02
 -7.88780E+03 -7.63523E+03 -1.47690E+03 -8.23996E+03  4.04709E+03 -6.95193E+03  5.09945E+03 -3.26321E+03
  3.92043E+03  1.10046E+03 -5.93295E+02  1.86175E+03 -2.20605E+02 -1.65074E+03  1.12970E+03 -4.14598E+03
  7.38896E+03 -2.63466E+03  1.01633E+04  1.22745E+03  1.01046E+04  6.61009E+03  7.52072E+03  1.36051E+04
 -3.00057E+03  1.54031E+04 -1.33866E+04  1.17648E+04 -1.70059E+04  2.34851E+03 -1.37720E+04 -5.40853E+03
 -7.02324E+03 -1.11198E+04 -6.45116E+02 -9.24176E+03  3.62433E+03 -4.83373E+03  3.03448E+03 -3.44736E+03
  2.49350E+03 -2.07291E+03  3.05724E+03 -2.94394E+03  4.32588E+03 -2.37186E+03  5.75780E+03 -5.75350E+02
  7.01310E+03  1.60010E+03  2.78799E+03  6.11222E+03 -1.98940E+03  6.87793E+03 -7.49943E+03  5.25039E+03
 -9.16341E+03 -1.14481E+03 -5.51684E+03 -6.79975E+03 -1.60635E+02 -9.61670E+03  5.80251E+03 -9.81327E+03
  1.00958E+04 -5.52328E+03  1.20679E+04  1.40468E+03  8.66912E+03  8.17224E+03  1.55096E+03  1.10401E+04
 -4.28036E+03  9.42432E+03 -6.42771E+03  3.26638E+03 -4.24974E+03 -1.15788E+03 -1.52507E+03 -1.36916E+03
 -9.26642E+02  3.00884E+02 -1.78507E+03  2.35825E+03 -4.27539E+03  1.47816E+03 -6.73308E+03 -9.84972E+02
 -3.84104E+03 -6.68040E+03  3.61696E+02 -8.82751E+03  5.60142E+03 -8.14921E+03  8.69892E+03 -2.32374E+03
  8.88283E+03  4.33618E+03  3.98450E+03  7.69140E+03 -1.65306E+03  9.17902E+03 -6.41737E+03  5.27315E+03
 -7.96291E+03  5.55508E+02 -6.41660E+03 -5.14837E+03 -5.81267E+02 -7.01610E+03  3.68321E+03 -5.40460E+03
  5.49540E+03 -1.69370E+03  3.74352E+03  1.32481E+03  7.71165E+02  2.76409E+03  6.71542E+02  1.44774E+03
  2.01575E+03  6.57633E+02  2.39067E+03  1.13668E+03  2.35791E+03  3.44632E+03  2.47126E+03  4.22850E+03
 -1.77318E+03  6.64316E+03 -5.78914E+03  7.30919E+03 -7.96073E+03  1.85543E+03 -8.93789E+03 -2.73218E+03
 -4.29157E+03 -8.29860E+03  1.26192E+03 -9.59986E+03  5.00616E+03 -6.08301E+03  6.90127E+03 -2.00718E+03
  5.44088E+03  3.26861E+03  1.09819E+03  4.85016E+03 -2.26717E+03  3.02270E+03 -3.22460E+03 -5.32448E+02
 -1.45308E+03 -3.88859E+03  2.27529E+03 -3.32764E+03  3.44690E+03 -1.90382E+03  3.50648E+03  8.82090E+02
  2.24411E+03  1.56042E+03  9.49215E+02  7.42143E+02 -4.36163E+02  1.22146E+03  1.50630E+03 -5.90450E+00
  1.09178E+03 -4.33054E+02  3.82113E+03  1.24246E+03  1.33800E+03  4.50821E+03 -4.71112E+02  6.27798E+03
 -4.16005E+03  3.44208E+03 -5.09058E+03  1.05640E+03 -5.01049E+03 -1.90994E+03 -1.41335E+03 -2.91829E+03
  9.04616E+02 -3.02007E+03  1.93010E+03 -1.36304E+03  1.42463E+03  1.84513E+03 -5.40103E+02  2.72970E+03
 -3.44111E+03  1.72032E+03 -3.67227E+03 -2.23477E+03 -2.10242E+03 -4.81268E+03  9.55495E+02 -4.31391E+03
  2.16331E+03 -2.35750E+03  2.58443E+03 -3.03340E+02  2.68483E+03  1.01222E+03  4.40933E+02  2.18302E+03
 -1.53077E+03  8.26471E+02 -2.04601E+03 -1.85569E+03  7.14580E+02 -2.90847E+03  3.91718E+03 -2.74007E+03
  4.68837E+03  4.92750E+02  5.40873E+03  2.99302E+03  1.93805E+03  4.59050E+03 -1.38280E+03  5.05312E+03
 -4.16713E+03  1.59360E+03 -4.04499E+03 -5.77290E+02 -2.28352E+03 -3.48258E+03  1.13118E+03 -2.81646E+03
  3.40015E+03 -1.79591E+03  2.45317E+03  1.44311E+03  3.83558E+02  2.90158E+03 -2.44301E+02  2.66013E+03
 -1.21366E+03  1.79669E+03 -1.08619E+03  4.38649E+02 -4.79107E+02  5.02311E+02 -9.69323E+02  1.20880E+03
 -1.27396E+03  2.12996E+03 -3.59451E+03  2.05230E+03 -4.73877E+03  2.04404E+02 -5.66685E+03 -3.00304E+03
 -2.74014E+03 -6.77183E+03  1.17571E+03 -7.51221E+03  3.78830E+03 -5.99321E+03  7.09680E+03 -2.48544E+03
  6.83520E+03  1.02539E+03  3.88840E+03  4.71463E+03  1.25935E+02  4.79293E+03 -1.84849E+03  3.72570E+03
 -3.17798E+03  1.53903E+03 -1.65534E+03 -1.30889E+02 -3.88123E+02 -2.25915E+02 -3.61177E+02  1.59343E+02
 -1.54884E+03 -1.67994E+02 -1.18103E+03 -2.53914E+02 -1.65561E+02 -1.07773E+03 -5.69601E+02 -1.72161E+03
  2.41494E+03 -1.29070E+03  2.63436E+03  2.16743E+02  3.43344E+03  2.80604E+03  1.70395E+02  4.95207E+03
 -2.67482E+03  5.90219E+03 -5.04827E+03  3.17475E+03 -5.72165E+03 -2.63476E+02 -4.34033E+03 -3.55068E+03
 -2.07616E+03 -4.66927E+03  1.07719E+03 -4.48334E+03  2.83407E+03 -2.26577E+03  2.88340E+03  1.05804E+02
  1.97583E+03  1.31457E+03 -2.60574E+02  1.31278E+03 -8.79661E+02 -1.92358E+02  2.44274E+02 -8.85129E+02
  1.76022E+03 -5.30401E+02  1.81572E+03  6.83813E+02  1.19777E+03  1.86558E+03  3.22088E+02  2.20266E+03
 -1.85013E+03  2.13612E+03 -2.78110E+03  4.11876E+02 -2.69241E+03 -2.19589E+03 -3.19379E+02 -3.82767E+03
  1.96636E+03 -2.91520E+03  3.20624E+03 -6.46137E+02  3.35609E+03  6.51344E+02  1.90633E+03  2.79237E+03
  3.21247E+02  2.59545E+03 -1.29575E+03  1.99105E+03 -2.00053E+03  1.53422E+03 -1.46547E+03  1.97220E+02
 -7.73411E+02 -7.04838E+01 -1.09359E+03  2.42940E+02 -1.58290E+03  3.84126E+02 -2.11947E+03 -4.53965E+02
 -2.59043E+03 -8.68437E+02 -9.51611E+02 -3.03557E+03  1.41684E+03 -3.90518E+03  2.47943E+03 -1.34139E+03
  2.83057E+03  4.32502E+02  1.24886E+03  1.74117E+03 -3.80506E+02  3.20219E+03 -2.20993E+03  2.24217E+03
