 $NMID ID='MM_0lb_SNR800_16hz_g50_10.RAW', FMTDAT='(8E13.5)'
 TRAMP=1., VOLUME=1. $END
  3.09772E+05  6.13046E+02  3.37759E+05  2.50644E+05  8.44708E+04  3.37764E+05 -1.32474E+05  2.50550E+05
 -1.89828E+05  8.27366E+04 -1.11611E+05 -3.28343E+04  1.16310E+03 -5.04359E+04  5.42571E+04 -3.97526E+01
  3.54034E+04  5.28681E+04 -1.66525E+04  7.52936E+04 -6.07407E+04  6.34725E+04 -8.37162E+04  3.19618E+04
 -8.04221E+04 -1.15082E+04 -5.68109E+04 -5.07538E+04 -1.48900E+04 -6.92317E+04  2.74177E+04 -4.55392E+04
  3.96796E+04  3.39015E+03  1.60605E+04  4.78651E+04 -3.45517E+04  4.69111E+04 -6.63165E+04 -3.68250E+02
 -5.29652E+04 -5.65081E+04 -6.69574E+03 -7.61452E+04  3.34124E+04 -5.44524E+04  4.71864E+04 -1.69756E+04
  4.25128E+04  1.10594E+04  3.14544E+04  2.51196E+04  1.59517E+04  2.92437E+04 -4.72548E+03  2.74546E+04
 -2.20519E+04  1.24538E+04 -1.87517E+04 -4.76917E+03  5.30850E+03 -7.76868E+03  2.18519E+04  1.18363E+04
  7.22404E+03  3.43040E+04 -3.16367E+04  3.51218E+04 -6.26613E+04  2.21202E+03 -5.65379E+04 -4.21949E+04
 -1.26149E+04 -6.24984E+04  3.91317E+04 -4.45272E+04  5.71599E+04 -2.17723E+03  3.34475E+04  3.17401E+04
 -6.31286E+03  3.48160E+04 -2.91923E+04  1.49746E+04 -2.94249E+04 -4.27568E+03 -1.58137E+04 -1.06932E+04
 -7.89494E+03 -1.23365E+04 -9.44932E+02 -1.76676E+04  7.13111E+03 -2.29579E+04  1.52440E+04 -1.37665E+04
  1.16952E+04  4.65257E+03 -7.43324E+03  1.29947E+04 -2.05656E+04 -3.58611E+03 -8.33133E+03 -3.23585E+04
  2.21173E+04 -4.25693E+04  4.67802E+04 -1.93821E+04  4.38093E+04  1.90211E+04  1.52657E+04  4.32610E+04
 -1.56184E+04  3.26403E+04 -2.47596E+04  1.40928E+03 -9.45395E+03 -2.73282E+04  2.07062E+04 -3.26656E+04
  3.97444E+04 -8.28626E+03  3.42561E+04  2.32900E+04  1.68690E+04  4.50533E+04 -7.98118E+03  4.82660E+04
 -3.03796E+04  3.20486E+04 -4.03178E+04  9.00078E+03 -4.09669E+04 -1.59551E+04 -2.26098E+04 -3.66574E+04
  6.97146E+03 -3.63713E+04  3.04032E+04 -1.39355E+04  2.81795E+04  1.11671E+04  3.70160E+03  1.85883E+04
 -1.36833E+04  7.80520E+03 -1.01793E+04 -7.86277E+03  5.79106E+03 -1.06942E+04  1.80118E+04  6.12624E+03
  1.30574E+04  2.18205E+04 -6.30827E+03  2.42748E+04 -2.22434E+04  1.05209E+04 -2.66932E+04 -5.30029E+03
 -1.88112E+04 -1.69885E+04 -7.18573E+03 -1.91747E+04  3.97485E+03 -1.76854E+04  1.42019E+04 -1.71047E+04
  2.40170E+04 -1.26903E+04  3.06081E+04  1.99275E+03  2.28782E+04  1.84687E+04  4.09750E+03  3.48337E+04
 -1.70062E+04  2.93528E+04 -2.69818E+04  1.00780E+04 -2.02691E+04 -1.03555E+04 -4.02828E+03 -1.36518E+04
  1.99954E+03 -3.53169E+03 -4.02916E+03  6.25579E+03 -1.50118E+04  5.22996E+03 -1.51735E+04 -6.34487E+03
 -9.41109E+03 -1.76145E+04  4.93594E+03 -2.16180E+04  1.42227E+04 -1.53107E+04  1.67187E+04 -1.63849E+03
  1.01746E+04  1.23361E+04 -6.97476E+02  1.76606E+04 -1.21367E+04  9.94581E+03 -1.73680E+04 -3.66731E+03
 -1.30085E+04 -1.60901E+04 -1.78488E+03 -2.13948E+04  9.86268E+03 -1.72185E+04  1.78806E+04 -8.34649E+03
  1.64916E+04  3.84496E+02  1.17731E+04  4.13145E+03  5.91576E+03  6.20193E+02  8.43914E+03 -1.75125E+03
  1.61366E+04  2.88833E+03  1.74724E+04  1.43253E+04  1.09539E+04  2.78866E+04 -3.03576E+03  3.10937E+04
 -1.81786E+04  2.46588E+04 -2.86761E+04  1.22210E+04 -2.99204E+04 -1.92244E+03 -2.50036E+04 -1.72742E+04
 -1.13042E+04 -2.43796E+04  8.37417E+03 -2.24628E+04  1.93488E+04 -1.19553E+04  1.78259E+04  4.65042E+03
  6.84719E+03  1.28874E+04 -8.25683E+03  1.18480E+04 -1.50995E+04  2.71590E+03 -1.15267E+04 -8.95723E+03
 -2.68258E+01 -1.38027E+04  7.13477E+03 -1.03030E+04  9.54896E+03 -1.31290E+03  1.71727E+03  5.87839E+03
 -6.09308E+03  1.71242E+03 -5.14266E+03 -4.79294E+03 -6.16374E+01 -1.20404E+04  8.80792E+03 -1.20638E+04
  1.45442E+04 -6.00180E+03  1.55389E+04  2.97729E+03  1.34516E+04  1.11284E+04  6.21825E+03  1.74621E+04
 -2.68248E+03  1.93728E+04 -1.19857E+04  1.21140E+04 -1.39550E+04  3.29011E+03 -1.03267E+04 -2.62635E+03
 -5.04745E+03 -4.19631E+03 -9.38174E+02  1.51248E+03 -2.43315E+03  2.40108E+03 -4.34417E+03  4.09243E+03
 -9.49337E+03 -1.61019E+02 -1.05197E+04 -8.14058E+03 -4.40793E+03 -1.32114E+04  4.23931E+03 -1.01601E+04
  8.64595E+03 -4.41181E+03  6.38170E+03  2.64636E+03  5.14539E+02  3.53950E+03 -4.36130E+03 -1.38316E+02
 -4.27400E+03 -6.14633E+03 -9.29095E+02 -9.27038E+03  4.90774E+03 -9.93052E+03  1.23714E+04 -5.05278E+03
  1.43364E+04  8.99721E+02  1.06455E+04  8.05238E+03  2.37203E+03  1.06395E+04 -6.21322E+03  1.01945E+04
 -8.35647E+03  2.94782E+03 -4.33165E+03 -1.67320E+03  1.53026E+03 -2.57841E+03  5.41804E+03 -1.00322E+03
  5.07478E+03  4.03339E+03  1.26522E+03  7.22671E+03 -5.42574E+03  7.56062E+03 -9.54266E+03  1.89078E+03
 -6.15124E+03 -4.67441E+03  3.90606E+02 -8.02306E+03  4.70569E+03 -4.14283E+03  4.53732E+03  1.69999E+03
  7.52967E+02  5.00995E+03 -4.96325E+03  6.06483E+03 -6.62729E+03  3.10187E+03 -6.52356E+03 -2.09203E+03
 -4.08183E+03 -7.92175E+03  1.62432E+03 -9.41668E+03  8.24053E+03 -5.89193E+03  8.76316E+03  1.48118E+03
  5.80875E+03  6.99308E+03 -2.31816E+02  9.14273E+03 -6.47962E+03  5.36218E+03 -6.78287E+03 -6.11006E+02
 -6.54430E+03 -6.32061E+03 -1.68522E+03 -6.58725E+03  2.98680E+03 -5.63445E+03  3.83491E+03 -2.96630E+03
  3.24680E+03  4.51899E+02  2.97807E+01  1.43133E+03  2.85103E+02 -1.01087E+03  6.39832E+02 -2.94737E+03
  5.25305E+03 -1.60007E+03  7.19607E+03  8.07098E+02  7.22049E+03  4.62890E+03  6.40750E+03  9.96298E+03
 -1.89194E+03  1.15391E+04 -1.01124E+04  8.42773E+03 -1.30813E+04  1.95095E+03 -1.02697E+04 -3.94184E+03
 -5.56093E+03 -8.86521E+03 -2.35007E+02 -7.07106E+03  2.72704E+03 -3.45471E+03  2.58981E+03 -2.71487E+03
  1.44344E+03 -1.68619E+03  2.40006E+03 -2.58119E+03  3.72374E+03 -1.88774E+03  4.62697E+03 -4.21933E+01
  5.66469E+03  1.65282E+03  1.90344E+03  4.32554E+03 -1.58193E+03  4.49812E+03 -5.62233E+03  3.65833E+03
 -6.88899E+03 -1.01608E+03 -3.33473E+03 -4.77746E+03 -2.38354E+02 -7.02771E+03  3.89359E+03 -7.22925E+03
  7.08052E+03 -4.24146E+03  9.08545E+03  6.19078E+02  6.40800E+03  6.06380E+03  1.30152E+03  8.17369E+03
 -3.16742E+03  7.37250E+03 -4.63899E+03  2.57195E+03 -2.93001E+03 -1.08557E+03 -1.10330E+03 -1.10102E+03
 -7.14030E+02  3.14310E+02 -1.14235E+03  2.08777E+03 -3.21246E+03  1.41148E+03 -5.18651E+03 -6.55406E+02
 -2.67403E+03 -5.20020E+03  6.80959E+02 -6.29856E+03  3.92988E+03 -5.73993E+03  5.73723E+03 -1.52906E+03
  5.77784E+03  2.99895E+03  2.78580E+03  5.19429E+03 -1.10754E+03  6.61278E+03 -4.04770E+03  3.89992E+03
 -5.73132E+03  5.25206E+02 -4.65998E+03 -3.93878E+03 -3.59332E+02 -4.63192E+03  2.47378E+03 -3.78903E+03
  3.49898E+03 -1.70356E+03  2.28763E+03  7.01253E+02  9.46364E+02  2.17432E+03  9.51274E+02  5.79463E+02
  1.66743E+03  8.53373E+02  1.70213E+03  1.08729E+03  1.85263E+03  2.67011E+03  1.69378E+03  2.62633E+03
 -1.74195E+03  4.21639E+03 -3.57179E+03  5.44252E+03 -4.97764E+03  1.71599E+03 -6.38769E+03 -1.35975E+03
 -2.37262E+03 -5.50054E+03  8.98097E+02 -6.86183E+03  3.41607E+03 -3.61199E+03  4.65996E+03 -1.11859E+03
  3.47957E+03  2.46149E+03  7.55729E+02  3.53486E+03 -1.11849E+03  1.98374E+03 -1.94170E+03 -4.02607E+02
 -1.14313E+03 -2.17679E+03  1.54663E+03 -2.67331E+03  2.20527E+03 -1.00922E+03  2.28359E+03  4.51119E+02
  1.38689E+03  8.80745E+02  9.95552E+02  1.32352E+02 -3.07126E+02  1.21692E+03  1.55026E+03 -6.05327E+02
  6.04087E+02 -4.04922E+02  2.54353E+03  1.03903E+03  5.43347E+02  3.19301E+03 -2.91247E+02  4.03783E+03
 -2.56147E+03  1.97410E+03 -3.32165E+03  5.21453E+02 -3.02597E+03 -1.13354E+03 -4.08912E+02 -1.65573E+03
  5.01854E+02 -1.77267E+03  1.34802E+03 -1.11992E+03  1.24486E+03  1.59150E+03 -6.82352E+02  1.79945E+03
 -2.35213E+03  1.19783E+03 -1.90435E+03 -1.58242E+03 -1.25726E+03 -3.07812E+03  3.81560E+02 -2.48109E+03
  1.35384E+03 -1.01822E+03  1.55138E+03  2.15258E+01  1.79107E+03 -3.65111E-01  3.04781E+02  1.46955E+03
 -9.51456E+02  2.57620E+02 -1.31257E+03 -7.57452E+02  8.58771E+02 -1.67616E+03  2.70777E+03 -1.54873E+03
  2.38204E+03  3.98632E+02  3.59841E+03  1.44116E+03  1.41314E+03  2.76576E+03 -7.52404E+02  2.86527E+03
 -2.16766E+03  1.07988E+03 -2.32948E+03 -3.09764E+02 -1.26924E+03 -1.93588E+03  6.46013E+02 -9.88307E+02
  2.07942E+03 -1.25181E+03  1.36333E+03  1.06241E+03  3.76576E+02  1.79345E+03  4.62501E+01  1.59669E+03
 -4.78312E+02  1.39823E+03 -7.03866E+02  2.55440E+02 -3.14278E+02  6.04078E+02 -9.81570E+02  7.76908E+02
 -6.30541E+02  1.33167E+03 -2.41664E+03  7.32291E+02 -2.66794E+03  3.20752E+02 -3.32547E+03 -1.82035E+03
 -1.87930E+03 -3.73120E+03  7.13350E+02 -4.48495E+03  2.20790E+03 -3.79386E+03  4.28728E+03 -1.40701E+03
  3.91984E+03  5.19432E+01  2.26211E+03  2.38822E+03 -2.31558E+02  2.70565E+03 -1.11574E+03  1.99961E+03
 -1.54434E+03  1.27114E+03 -9.87441E+02 -5.49653E+02 -5.13358E+02  2.28967E+02 -7.16838E+02 -1.35899E+02
 -8.67797E+02 -1.51618E+02 -1.36307E+03  1.93779E+01  7.06911E+00 -9.01417E+02 -1.40625E+02 -9.43925E+02
  1.67017E+03 -9.07264E+02  1.15823E+03  1.30123E+02  1.90166E+03  1.61079E+03 -4.69775E+02  2.39038E+03
 -1.22206E+03  3.10537E+03 -2.71228E+03  2.14917E+03 -2.94119E+03 -4.68722E+02 -2.09407E+03 -1.87838E+03
 -1.49393E+03 -2.69082E+03  9.09244E+02 -2.47036E+03  1.63894E+03 -1.17954E+03  1.29628E+03  2.27997E+01
  1.02963E+03  7.03923E+02  1.67859E+02  4.43906E+02 -2.58013E+02  3.36763E+02 -7.22760E+01 -5.06483E+02
  7.85770E+02  1.27628E+02  6.90316E+02  5.04894E+02  5.53386E+02  6.69722E+02  5.35429E+02  1.00447E+03
 -1.10212E+03  8.23299E+02 -1.39893E+03 -1.63422E+01 -1.10108E+03 -7.67425E+02 -1.70290E+02 -2.03587E+03
  1.28867E+03 -1.36060E+03  1.15986E+03 -5.17643E+02  1.74410E+03 -1.35114E+01  6.14074E+02  1.77474E+03
  6.84939E+02  9.94461E+02 -3.40321E+02  8.92692E+02 -1.07161E+03  1.06079E+03 -6.03378E+02  1.20874E+02
 -1.54086E+02  2.06454E+02 -6.41128E+02  2.53494E+02 -8.71092E+02  2.21036E+02 -1.10923E+03 -3.70427E+02
 -1.56434E+03 -3.00784E+02 -2.20654E+02 -1.64495E+03  9.23183E+02 -2.11529E+03  1.62649E+03 -5.00398E+02
  1.20830E+03  2.73158E+02  2.35168E+02  6.17620E+02 -3.10029E+02  1.57929E+03 -1.00580E+03  1.10993E+03
