 $NMID ID='MM_0lb_SNR800_14hz_g55_59.RAW', FMTDAT='(8E13.5)'
 TRAMP=1., VOLUME=1. $END
  3.09807E+05  1.83687E+02  3.37689E+05  2.50475E+05  8.46692E+04  3.37979E+05 -1.32569E+05  2.51214E+05
 -1.90122E+05  8.31040E+04 -1.11794E+05 -3.24296E+04  7.68907E+02 -5.03741E+04  5.40666E+04 -1.65952E+02
  3.56255E+04  5.25705E+04 -1.68938E+04  7.53664E+04 -6.09221E+04  6.37323E+04 -8.43649E+04  3.21767E+04
 -8.10361E+04 -1.16198E+04 -5.75628E+04 -5.15190E+04 -1.51566E+04 -7.01200E+04  2.71962E+04 -4.62526E+04
  4.01350E+04  3.87184E+03  1.63555E+04  4.81167E+04 -3.42250E+04  4.71411E+04 -6.70127E+04  4.87722E+01
 -5.35796E+04 -5.69091E+04 -7.07710E+03 -7.73233E+04  3.40544E+04 -5.51728E+04  4.81924E+04 -1.74186E+04
  4.37656E+04  1.13353E+04  3.18956E+04  2.57736E+04  1.60848E+04  2.97219E+04 -5.38826E+03  2.76058E+04
 -2.20035E+04  1.23724E+04 -1.82227E+04 -5.02850E+03  5.97123E+03 -7.36871E+03  2.22806E+04  1.21678E+04
  7.38007E+03  3.58313E+04 -3.24843E+04  3.59967E+04 -6.39698E+04  2.05412E+03 -5.74652E+04 -4.32777E+04
 -1.24690E+04 -6.38535E+04  3.99107E+04 -4.55372E+04  5.87563E+04 -2.12791E+03  3.45572E+04  3.27163E+04
 -6.07938E+03  3.68210E+04 -3.04907E+04  1.64502E+04 -3.10515E+04 -3.95873E+03 -1.71697E+04 -1.09684E+04
 -8.86763E+03 -1.34488E+04 -4.90293E+02 -1.83871E+04  7.74400E+03 -2.31112E+04  1.57845E+04 -1.30255E+04
  1.14414E+04  5.49084E+03 -8.83059E+03  1.29723E+04 -2.16941E+04 -5.03581E+03 -8.35111E+03 -3.43530E+04
  2.31916E+04 -4.41521E+04  4.90047E+04 -1.98747E+04  4.57188E+04  1.96859E+04  1.60890E+04  4.48635E+04
 -1.59655E+04  3.41408E+04 -2.56725E+04  2.14533E+03 -1.00923E+04 -2.80084E+04  2.08733E+04 -3.47268E+04
  4.16060E+04 -9.74260E+03  3.65412E+04  2.41613E+04  1.88715E+04  4.72189E+04 -8.20613E+03  5.10254E+04
 -3.23064E+04  3.45327E+04 -4.30315E+04  9.84100E+03 -4.36453E+04 -1.70917E+04 -2.39590E+04 -3.86981E+04
  7.36798E+03 -3.86815E+04  3.22344E+04 -1.51159E+04  3.00433E+04  1.11518E+04  3.99336E+03  1.93174E+04
 -1.33230E+04  8.70332E+03 -1.05675E+04 -7.52543E+03  5.78666E+03 -1.11446E+04  1.75676E+04  5.70474E+03
  1.37165E+04  2.21628E+04 -5.87252E+03  2.54589E+04 -2.24368E+04  1.17121E+04 -2.87108E+04 -4.71838E+03
 -2.11197E+04 -1.77414E+04 -8.81783E+03 -2.09439E+04  4.14138E+03 -2.07017E+04  1.64347E+04 -1.88066E+04
  2.73174E+04 -1.33992E+04  3.31802E+04  3.06932E+03  2.39796E+04  2.07496E+04  4.26272E+03  3.72354E+04
 -1.83669E+04  3.10902E+04 -2.85542E+04  1.04675E+04 -2.12904E+04 -1.01664E+04 -4.55488E+03 -1.33002E+04
  1.54309E+03 -2.55653E+03 -5.36997E+03  6.82815E+03 -1.67817E+04  5.08756E+03 -1.66375E+04 -7.43772E+03
 -1.06573E+04 -1.97719E+04  5.74362E+03 -2.35378E+04  1.56439E+04 -1.70261E+04  1.89602E+04 -1.45681E+03
  1.21681E+04  1.37394E+04 -1.22420E+03  1.98272E+04 -1.36456E+04  1.12302E+04 -1.97490E+04 -3.91166E+03
 -1.40766E+04 -1.76754E+04 -2.07681E+03 -2.37408E+04  1.08017E+04 -1.92860E+04  1.98956E+04 -9.57022E+03
  1.82898E+04  1.50789E+02  1.32140E+04  4.64353E+03  7.43230E+03  1.15123E+03  9.75661E+03 -1.83860E+03
  1.77189E+04  2.64424E+03  2.02211E+04  1.52916E+04  1.32419E+04  3.12070E+04 -2.69629E+03  3.57612E+04
 -2.06667E+04  2.89048E+04 -3.31885E+04  1.45078E+04 -3.49357E+04 -2.55552E+03 -2.87443E+04 -2.00656E+04
 -1.25391E+04 -2.86347E+04  1.01216E+04 -2.57971E+04  2.22401E+04 -1.30179E+04  1.97984E+04  5.52740E+03
  7.28709E+03  1.45831E+04 -9.53169E+03  1.28744E+04 -1.66891E+04  2.37909E+03 -1.30584E+04 -1.07065E+04
 -1.90432E+02 -1.56907E+04  8.37724E+03 -1.20184E+04  1.02067E+04 -1.58635E+03  2.81495E+03  6.92000E+03
 -7.18160E+03  2.77041E+03 -6.50031E+03 -5.48558E+03 -7.16434E+02 -1.38936E+04  9.98798E+03 -1.46210E+04
  1.77758E+04 -8.03408E+03  1.87570E+04  2.94779E+03  1.63016E+04  1.37626E+04  7.71743E+03  2.13305E+04
 -3.49560E+03  2.31173E+04 -1.43048E+04  1.45021E+04 -1.67492E+04  3.17612E+03 -1.19096E+04 -3.74526E+03
 -5.47099E+03 -5.22548E+03 -1.05588E+03  1.02450E+03 -2.28380E+03  2.98361E+03 -5.44630E+03  4.33768E+03
 -1.11550E+04 -7.09128E+02 -1.16063E+04 -9.29659E+03 -4.57979E+03 -1.51154E+04  4.76087E+03 -1.20971E+04
  1.00830E+04 -4.96713E+03  6.89968E+03  3.40814E+03  1.78276E+02  4.60198E+03 -5.20133E+03 -1.98872E+01
 -5.43952E+03 -7.60660E+03 -8.18844E+02 -1.10169E+04  6.53844E+03 -1.16432E+04  1.44854E+04 -6.25236E+03
  1.72310E+04  1.36579E+03  1.26647E+04  9.95721E+03  2.43510E+03  1.32660E+04 -7.17124E+03  1.15208E+04
 -9.49199E+03  3.57724E+03 -5.17108E+03 -2.11217E+03  1.94121E+03 -2.73002E+03  6.51738E+03 -1.20715E+03
  5.67759E+03  4.84143E+03  1.22499E+03  9.11582E+03 -6.67155E+03  9.25733E+03 -1.13808E+04  2.52474E+03
 -7.45711E+03 -5.86787E+03  2.23256E+02 -9.77107E+03  5.84822E+03 -5.01555E+03  6.22381E+03  2.13189E+03
  1.53318E+03  6.49273E+03 -6.15079E+03  7.41750E+03 -8.53833E+03  3.61905E+03 -8.75610E+03 -2.78396E+03
 -5.32081E+03 -1.01881E+04  2.03655E+03 -1.19456E+04  9.88736E+03 -7.27774E+03  1.10811E+04  1.95693E+03
  6.96232E+03  8.92919E+03 -6.90745E+02  1.08377E+04 -7.99373E+03  6.11844E+03 -8.48865E+03 -9.51583E+02
 -7.87195E+03 -7.43639E+03 -1.51528E+03 -8.07106E+03  3.96561E+03 -7.06925E+03  4.76085E+03 -3.16844E+03
  4.07705E+03  9.61689E+02 -3.22142E+02  1.53454E+03 -5.07077E+01 -1.76332E+03  1.03967E+03 -4.16110E+03
  7.49131E+03 -2.65483E+03  9.69821E+03  1.07567E+03  9.83202E+03  6.49323E+03  7.37165E+03  1.29049E+04
 -2.75043E+03  1.45191E+04 -1.30290E+04  1.13645E+04 -1.66508E+04  1.93096E+03 -1.31126E+04 -5.40570E+03
 -6.52611E+03 -1.07102E+04 -4.20008E+02 -8.97132E+03  3.53845E+03 -4.87613E+03  3.02577E+03 -3.59587E+03
  2.66430E+03 -2.17956E+03  2.73741E+03 -2.92514E+03  4.49837E+03 -2.27668E+03  5.24667E+03 -4.48816E+01
  7.20950E+03  1.65018E+03  2.93754E+03  5.94283E+03 -1.76476E+03  6.29228E+03 -7.20188E+03  5.11895E+03
 -8.85293E+03 -9.55241E+02 -4.68808E+03 -6.36610E+03 -9.25919E+01 -9.39848E+03  5.62958E+03 -9.49016E+03
  9.84820E+03 -5.62279E+03  1.16844E+04  1.40349E+03  8.35172E+03  8.01446E+03  1.51401E+03  1.04465E+04
 -4.38151E+03  9.28557E+03 -6.00032E+03  2.91036E+03 -4.08300E+03 -9.59973E+02 -1.78251E+03 -1.25344E+03
 -8.96322E+02 -1.71514E+01 -1.11019E+03  2.35469E+03 -3.80885E+03  1.52074E+03 -6.51037E+03 -7.89181E+02
 -3.88432E+03 -6.60279E+03  4.10792E+02 -8.51601E+03  5.06210E+03 -7.80483E+03  7.78748E+03 -2.14305E+03
  8.31290E+03  4.10682E+03  3.84456E+03  6.98333E+03 -1.86326E+03  8.04698E+03 -5.65575E+03  5.36027E+03
 -7.69475E+03  8.90299E+02 -6.10624E+03 -4.95172E+03 -5.66589E+02 -6.79879E+03  3.10095E+03 -4.92285E+03
  5.46937E+03 -2.10308E+03  3.30306E+03  1.38969E+03  8.11785E+02  2.44261E+03  1.30554E+03  1.12190E+03
  2.20569E+03  8.34910E+02  2.40793E+03  1.40955E+03  2.20921E+03  3.23704E+03  1.92520E+03  3.89096E+03
 -1.88332E+03  6.23461E+03 -5.83790E+03  7.08239E+03 -7.38036E+03  1.68670E+03 -8.40142E+03 -2.56747E+03
 -4.10778E+03 -7.73714E+03  1.27430E+03 -9.08083E+03  4.55660E+03 -5.49702E+03  6.33219E+03 -1.85966E+03
  5.16359E+03  2.96919E+03  1.24380E+03  4.76315E+03 -2.15348E+03  2.89801E+03 -3.18386E+03  2.80381E+00
 -1.47596E+03 -3.39775E+03  1.86684E+03 -3.39755E+03  3.13854E+03 -1.42946E+03  2.88800E+03  9.22093E+02
  1.67724E+03  1.20241E+03  7.59109E+02  4.93190E+02 -3.82653E+02  9.56942E+02  1.58068E+03 -2.74159E+02
  7.43368E+02 -7.15900E+02  3.15102E+03  9.43053E+02  1.23959E+03  4.34243E+03 -7.74513E+02  5.20715E+03
 -3.17304E+03  2.88958E+03 -4.73103E+03  9.10594E+02 -4.38742E+03 -1.65827E+03 -1.40080E+03 -2.54644E+03
  6.90143E+02 -2.78102E+03  2.37143E+03 -1.40193E+03  1.38212E+03  1.70413E+03 -8.99453E+02  2.47192E+03
 -3.15446E+03  1.60799E+03 -3.39215E+03 -1.98679E+03 -1.76982E+03 -4.20524E+03  4.31214E+02 -3.81607E+03
  2.08430E+03 -2.16260E+03  2.49975E+03 -6.82316E+02  2.45069E+03  8.01339E+02  3.65182E+02  2.58238E+03
 -1.28874E+03  7.43604E+02 -1.73656E+03 -9.74307E+02  7.92440E+02 -2.73704E+03  3.61657E+03 -2.43680E+03
  4.22121E+03  2.22981E+02  4.81771E+03  2.46862E+03  1.76325E+03  4.66118E+03 -1.18782E+03  4.02513E+03
 -3.45675E+03  1.46873E+03 -3.81607E+03 -3.83133E+02 -1.51205E+03 -2.87782E+03  6.67802E+02 -2.15093E+03
  2.87501E+03 -1.51383E+03  2.28982E+03  1.29103E+03  6.64474E+02  2.67596E+03 -1.01581E+02  2.21445E+03
 -9.23014E+02  1.40513E+03 -1.00711E+03  3.98842E+02 -4.59151E+02  6.30348E+02 -8.78018E+02  8.92238E+02
 -1.38387E+03  1.74844E+03 -3.44191E+03  1.55303E+03 -4.26082E+03  1.50707E+02 -5.08565E+03 -2.81536E+03
 -2.11246E+03 -5.82881E+03  1.34381E+03 -6.43950E+03  3.56462E+03 -5.37526E+03  6.29619E+03 -2.22579E+03
  5.81353E+03  8.14367E+02  3.67823E+03  3.69507E+03 -1.60033E+02  3.95334E+03 -1.83406E+03  3.07579E+03
 -2.42515E+03  1.65299E+03 -1.22755E+03 -6.27041E+02 -5.01882E+02 -2.39918E+02 -3.39835E+02  9.22498E+01
 -1.33916E+03 -2.40805E+02 -1.08237E+03 -9.17724E+00  2.12648E+02 -1.28757E+03  2.73968E+01 -1.75485E+03
  2.04080E+03 -1.25995E+03  1.91729E+03  4.31340E+01  2.99801E+03  2.27445E+03  4.97084E+02  4.15372E+03
 -1.99753E+03  4.97998E+03 -4.55370E+03  2.76115E+03 -4.83768E+03 -6.06160E+02 -3.34852E+03 -3.24423E+03
 -1.93776E+03 -3.77110E+03  1.24453E+03 -3.64821E+03  2.32361E+03 -1.92708E+03  2.33579E+03 -4.33247E+01
  1.08811E+03  1.12688E+03 -2.57919E+01  1.03678E+03 -7.66910E+02 -1.00875E+02  4.25847E+01 -5.04772E+02
  9.69967E+02 -2.25071E+02  1.04915E+03  5.66724E+02  6.52869E+02  1.67881E+03  2.14308E+02  1.66340E+03
 -1.62496E+03  1.57775E+03 -2.41095E+03  2.86145E+02 -2.28723E+03 -1.86698E+03 -3.40600E+02 -3.32644E+03
  1.66635E+03 -2.81684E+03  2.50723E+03 -5.56658E+02  2.83457E+03  7.39189E+01  1.19921E+03  2.33593E+03
  4.86968E+02  2.48800E+03 -8.79994E+02  1.83108E+03 -1.77623E+03  1.31340E+03 -1.47510E+03  1.02520E+02
 -2.63962E+02  1.80158E+02 -7.39684E+02  1.63284E+02 -1.57030E+03  3.49126E+02 -1.87018E+03 -4.52237E+02
 -2.37766E+03 -8.80290E+02 -9.59118E+02 -2.33149E+03  1.27690E+03 -3.30977E+03  2.28992E+03 -1.19693E+03
  2.15565E+03  3.00560E+02  6.98678E+02  1.68324E+03  1.95760E+02  2.45880E+03 -1.67699E+03  1.50535E+03
