 $NMID ID='MM_0lb_SNR800_18hz_g55_22.RAW', FMTDAT='(8E13.5)'
 TRAMP=1., VOLUME=1. $END
  3.09572E+05  4.64438E+02  3.37304E+05  2.50304E+05  8.47624E+04  3.37618E+05 -1.32436E+05  2.50610E+05
 -1.89994E+05  8.29423E+04 -1.11260E+05 -3.27754E+04  1.14419E+03 -5.02980E+04  5.38194E+04 -1.55131E+01
  3.54130E+04  5.26728E+04 -1.66592E+04  7.48673E+04 -6.06001E+04  6.29596E+04 -8.35304E+04  3.18499E+04
 -8.01858E+04 -1.11197E+04 -5.67728E+04 -5.05954E+04 -1.51187E+04 -6.88805E+04  2.70553E+04 -4.51688E+04
  3.97771E+04  3.72903E+03  1.57774E+04  4.71722E+04 -3.42537E+04  4.67672E+04 -6.61921E+04 -6.22211E+02
 -5.24041E+04 -5.65105E+04 -6.29168E+03 -7.59247E+04  3.34808E+04 -5.39036E+04  4.72815E+04 -1.68155E+04
  4.22559E+04  1.11549E+04  3.15639E+04  2.50183E+04  1.58852E+04  2.87677E+04 -4.84234E+03  2.70244E+04
 -2.18264E+04  1.26066E+04 -1.87480E+04 -4.39483E+03  4.91029E+03 -7.76989E+03  2.19201E+04  1.15748E+04
  7.17290E+03  3.41126E+04 -3.13497E+04  3.47510E+04 -6.22723E+04  2.24471E+03 -5.59308E+04 -4.17672E+04
 -1.26022E+04 -6.21511E+04  3.89160E+04 -4.44011E+04  5.66229E+04 -2.14685E+03  3.29978E+04  3.11601E+04
 -6.12358E+03  3.44388E+04 -2.92541E+04  1.48423E+04 -2.87096E+04 -4.97283E+03 -1.55876E+04 -1.05830E+04
 -7.95280E+03 -1.21765E+04 -6.39616E+02 -1.71778E+04  7.16433E+03 -2.25919E+04  1.53001E+04 -1.38744E+04
  1.19142E+04  4.85930E+03 -7.16745E+03  1.30460E+04 -2.00432E+04 -3.43534E+03 -8.19110E+03 -3.21793E+04
  2.19895E+04 -4.18230E+04  4.60042E+04 -1.92312E+04  4.33407E+04  1.87062E+04  1.49993E+04  4.26955E+04
 -1.57781E+04  3.20367E+04 -2.43500E+04  1.40072E+03 -8.54974E+03 -2.70489E+04  2.04644E+04 -3.22420E+04
  3.92077E+04 -7.92531E+03  3.32025E+04  2.32913E+04  1.64223E+04  4.42332E+04 -7.87314E+03  4.70289E+04
 -3.00247E+04  3.14949E+04 -3.93414E+04  8.64724E+03 -3.99556E+04 -1.57981E+04 -2.20418E+04 -3.58895E+04
  7.37927E+03 -3.57198E+04  2.97329E+04 -1.33328E+04  2.78025E+04  1.07729E+04  3.17004E+03  1.85361E+04
 -1.31303E+04  7.87415E+03 -9.68616E+03 -7.74378E+03  5.95778E+03 -1.02944E+04  1.75938E+04  5.87709E+03
  1.27815E+04  2.18616E+04 -6.54624E+03  2.38366E+04 -2.16871E+04  1.00408E+04 -2.62312E+04 -5.72195E+03
 -1.80994E+04 -1.67515E+04 -6.32849E+03 -1.78561E+04  3.69826E+03 -1.63847E+04  1.34022E+04 -1.59251E+04
  2.29142E+04 -1.25416E+04  2.96897E+04  1.65779E+03  2.19507E+04  1.79667E+04  4.27301E+03  3.36929E+04
 -1.70104E+04  2.85835E+04 -2.64336E+04  9.74409E+03 -2.02309E+04 -1.03862E+04 -3.88268E+03 -1.36592E+04
  2.20418E+03 -3.68634E+03 -3.65756E+03  5.86871E+03 -1.41044E+04  5.55593E+03 -1.42249E+04 -5.88118E+03
 -9.05670E+03 -1.65613E+04  4.71638E+03 -2.05925E+04  1.34915E+04 -1.48133E+04  1.56805E+04 -1.38456E+03
  9.93045E+03  1.16353E+04 -9.72047E+02  1.69936E+04 -1.13147E+04  9.49542E+03 -1.66957E+04 -3.68947E+03
 -1.25556E+04 -1.51780E+04 -1.47759E+03 -2.03788E+04  8.90964E+03 -1.63014E+04  1.70736E+04 -7.58427E+03
  1.53840E+04  4.82937E+02  1.12086E+04  4.08762E+03  5.76759E+03  5.11959E+02  8.02989E+03 -1.38312E+03
  1.49008E+04  2.40757E+03  1.61484E+04  1.35046E+04  1.00143E+04  2.62425E+04 -3.26146E+03  2.85704E+04
 -1.70427E+04  2.24878E+04 -2.67738E+04  1.09391E+04 -2.74947E+04 -2.20719E+03 -2.32085E+04 -1.56046E+04
 -1.03451E+04 -2.25232E+04  7.65905E+03 -2.08784E+04  1.82494E+04 -1.12543E+04  1.66387E+04  3.91911E+03
  6.58938E+03  1.20305E+04 -7.59333E+03  1.11653E+04 -1.40198E+04  2.92546E+03 -1.06410E+04 -8.67095E+03
 -1.59494E+02 -1.31981E+04  6.43010E+03 -9.98815E+03  8.51737E+03 -1.40378E+03  1.42266E+03  5.61808E+03
 -5.78029E+03  1.64363E+03 -4.23534E+03 -5.01205E+03  5.15122E+02 -1.12677E+04  8.21663E+03 -1.14560E+04
  1.33029E+04 -5.26256E+03  1.37733E+04  3.09386E+03  1.17541E+04  1.05383E+04  5.73908E+03  1.58755E+04
 -2.13947E+03  1.77060E+04 -1.08162E+04  1.10571E+04 -1.20701E+04  2.99401E+03 -9.29857E+03 -2.56517E+03
 -4.56077E+03 -3.74955E+03 -5.41717E+02  1.47182E+03 -2.20324E+03  1.95853E+03 -4.00958E+03  3.68812E+03
 -8.51640E+03 -5.89772E+02 -9.37808E+03 -7.75609E+03 -4.04755E+03 -1.23654E+04  3.77791E+03 -8.85776E+03
  7.99690E+03 -4.16548E+03  5.91925E+03  2.35131E+03  5.77680E+02  3.37636E+03 -3.80802E+03 -7.69642E+01
 -3.70643E+03 -5.78855E+03 -8.55365E+02 -7.80349E+03  4.42523E+03 -8.68491E+03  1.08065E+04 -4.28689E+03
  1.25863E+04  9.38348E+02  9.40469E+03  7.16357E+03  2.02102E+03  9.83637E+03 -5.69355E+03  9.05093E+03
 -7.45969E+03  2.67090E+03 -3.88823E+03 -1.49743E+03  1.42090E+03 -1.91382E+03  5.16689E+03 -1.08174E+03
  4.42490E+03  3.69997E+03  1.03085E+03  6.89308E+03 -5.08464E+03  7.00982E+03 -8.67177E+03  1.60461E+03
 -5.20156E+03 -4.00890E+03  3.64053E+02 -7.22920E+03  4.41669E+03 -3.37954E+03  3.85140E+03  1.37559E+03
  6.28788E+02  3.96683E+03 -4.21142E+03  5.38033E+03 -5.65582E+03  2.71975E+03 -5.07076E+03 -1.35300E+03
 -3.50059E+03 -6.82815E+03  1.17460E+03 -8.07753E+03  6.63087E+03 -5.31975E+03  7.34899E+03  1.57010E+03
  5.20605E+03  6.06380E+03 -1.14390E+02  7.66013E+03 -5.47190E+03  4.59077E+03 -6.13849E+03 -2.19316E+02
 -5.91051E+03 -5.73603E+03 -1.41426E+03 -5.60644E+03  2.86161E+03 -5.17023E+03  3.27003E+03 -2.75368E+03
  3.32870E+03  3.29809E+02  4.53892E+01  1.43989E+03  3.18635E+02 -5.20798E+02  6.44256E+02 -2.33608E+03
  4.62352E+03 -9.53766E+02  6.00821E+03  7.10926E+02  6.16437E+03  3.86558E+03  5.71577E+03  7.83287E+03
 -1.61787E+03  9.33996E+03 -8.62443E+03  7.24545E+03 -1.08636E+04  1.29223E+03 -8.63592E+03 -3.03449E+03
 -4.58543E+03 -7.12741E+03 -3.94129E+02 -5.49472E+03  2.17126E+03 -2.28861E+03  2.00282E+03 -2.47765E+03
  1.42892E+03 -1.42393E+03  2.18794E+03 -2.52885E+03  3.59521E+03 -1.46811E+03  3.91402E+03  4.16327E+02
  5.08280E+03  9.81299E+02  1.43120E+03  3.66712E+03 -1.35463E+03  3.10178E+03 -4.84963E+03  2.84363E+03
 -5.72390E+03 -1.10992E+03 -2.29339E+03 -3.84359E+03  3.73714E+02 -5.62258E+03  3.61402E+03 -5.93363E+03
  5.71360E+03 -3.67351E+03  7.35413E+03  2.44087E+02  5.57165E+03  4.56945E+03  1.13910E+03  6.72826E+03
 -2.59632E+03  6.15222E+03 -3.85589E+03  2.01306E+03 -2.18312E+03 -1.31773E+03 -5.27485E+02 -5.08049E+02
 -2.84303E+02  5.12641E+02 -1.13062E+03  2.23980E+03 -2.81658E+03  1.16563E+03 -4.27449E+03 -4.76670E+02
 -1.88108E+03 -4.47655E+03  8.38125E+02 -5.05556E+03  3.15947E+03 -4.79408E+03  3.96180E+03 -1.27687E+03
  4.58532E+03  2.50689E+03  2.20507E+03  3.70242E+03 -8.99746E+02  4.83670E+03 -3.06956E+03  2.87454E+03
 -4.33852E+03  5.55975E+02 -3.51972E+03 -2.63551E+03  1.76875E+01 -3.61491E+03  2.06293E+03 -2.64006E+03
  3.08350E+03 -1.33296E+03  2.06938E+03  3.59188E+02  5.75456E+02  1.60794E+03  7.20789E+02  8.07824E+02
  1.72708E+03  3.73472E+02  1.23211E+03  9.89850E+02  1.24360E+03  2.36879E+03  1.49301E+03  2.33099E+03
 -1.32150E+03  3.18802E+03 -2.95312E+03  4.56155E+03 -3.60092E+03  1.52797E+03 -4.36610E+03 -7.17067E+02
 -2.02819E+03 -4.15190E+03  7.00118E+02 -5.30374E+03  2.23341E+03 -2.95635E+03  3.43386E+03 -8.43794E+02
  2.76297E+03  1.94758E+03  4.81936E+02  2.38689E+03 -9.05241E+02  1.70581E+03 -1.02046E+03 -2.12963E+02
 -6.45573E+02 -1.70209E+03  1.17936E+03 -1.45631E+03  1.61572E+03 -1.14626E+03  1.63335E+03  4.82983E+02
  6.30562E+02  4.79266E+02  8.67886E+02 -1.70806E+02 -2.35267E+02  7.05603E+02  1.54032E+03 -4.83988E+02
  1.36513E+02  4.60503E+00  1.92595E+03  7.68659E+02  2.65413E+02  2.71578E+03 -4.13705E+02  3.21003E+03
 -1.85586E+03  1.10684E+03 -2.44316E+03  3.11399E+02 -2.15672E+03 -7.07300E+02 -1.13017E+02 -1.11230E+03
  2.91509E+02 -1.37346E+03  1.00172E+03 -8.16589E+02  8.46420E+02  1.30088E+03 -8.06644E+02  1.43353E+03
 -1.69842E+03  9.57409E+02 -1.45925E+03 -1.44092E+03 -9.13815E+02 -2.30897E+03  1.85088E+02 -1.84955E+03
  5.90306E+02 -6.32958E+02  8.37667E+02  3.70818E+02  1.34216E+03 -1.82777E+02  2.21185E+02  1.37943E+03
 -3.39680E+02  1.98205E+02 -9.16776E+02 -3.42884E+02  6.91917E+02 -9.22403E+02  1.80650E+03 -8.25905E+02
  1.38055E+03  3.84891E+01  2.93583E+03  7.88068E+02  1.23635E+03  2.08397E+03 -4.90688E+02  2.41124E+03
 -1.69417E+03  5.26586E+02 -1.38476E+03 -1.18031E+02 -8.63135E+02 -1.46497E+03  2.43175E+02 -7.17296E+02
  1.40172E+03 -3.16140E+02  8.81240E+02  6.78502E+02  1.26405E+02  1.50734E+03  1.96827E+02  1.27504E+03
 -2.73225E+02  1.28963E+03 -5.98688E+02  1.28086E+02  1.73975E+02  4.14447E+02 -6.42115E+02  2.82767E+02
 -7.91706E+02  1.26881E+03 -1.84089E+03  5.87652E+02 -1.82912E+03 -7.09439E+00 -2.49032E+03 -8.02736E+02
 -1.30578E+03 -2.46930E+03  3.96508E+02 -3.09428E+03  9.73510E+02 -2.91646E+03  3.01937E+03 -1.09147E+03
  2.54075E+03  1.57645E+02  1.40479E+03  1.37333E+03 -4.55648E+02  1.58986E+03 -7.22531E+02  1.26330E+03
 -1.30246E+03  8.08638E+02 -7.57403E+02 -1.49850E+01 -4.53492E+02  1.80210E+02 -6.25651E+02  1.24029E+02
 -1.03769E+03 -1.82816E+02 -7.63579E+02  1.07457E+02  2.09642E+02 -7.83445E+02 -4.39255E+02 -1.02415E+03
  1.26101E+03 -8.42135E+02  3.95583E+02  1.04563E+02  1.13541E+03  8.21542E+02 -5.54601E+02  1.59592E+03
 -8.16467E+02  2.14966E+03 -1.96794E+03  1.41421E+03 -1.90527E+03 -4.20499E+02 -1.47851E+03 -1.26993E+03
 -9.21624E+02 -1.36530E+03  3.27801E+01 -1.19058E+03  8.09581E+02 -5.36134E+02  6.55102E+02  2.20028E+02
  7.07154E+02  4.33531E+02  4.46213E+01  4.15263E+02 -5.13959E+02 -1.10905E+02 -1.73415E+02 -1.83555E+01
  7.12928E+02  8.26325E+01  2.13197E+02  2.44764E+02  2.04942E+02  1.69074E+02  5.89585E+02  4.07535E+02
 -7.55227E+02  3.25143E+02 -5.18819E+02  2.20111E+02 -1.00281E+03 -3.85933E+02  1.85734E+02 -1.37972E+03
  5.04565E+02 -7.96431E+02  6.64357E+02 -6.62326E+01  9.58346E+02 -1.84279E+02  4.88792E+02  9.65666E+02
  5.21157E+02  5.81533E+02 -5.55532E+02  3.84901E+02 -8.36271E+02  5.69552E+02 -6.31954E+02 -7.02490E+01
 -1.88269E+02 -3.11140E+02 -5.72989E+02 -2.34959E+01 -6.87400E+02  1.45115E+02 -6.01128E+02 -3.32668E+02
 -1.10035E+03  2.69852E+02 -3.35487E+02 -1.09934E+03  5.76954E+02 -1.18826E+03  6.21124E+02 -4.10209E+02
  7.20024E+02 -2.56582E+01 -1.30377E+02  8.91956E+01  2.85435E+02  8.57847E+02 -5.03140E+02  6.28300E+02
