 $NMID ID='MM_0lb_SNR800_16hz_g60_78.RAW', FMTDAT='(8E13.5)'
 TRAMP=1., VOLUME=1. $END
  3.10124E+05  2.08230E+02  3.37572E+05  2.50591E+05  8.46775E+04  3.38112E+05 -1.32558E+05  2.51274E+05
 -1.90408E+05  8.32716E+04 -1.11876E+05 -3.26540E+04  1.29854E+03 -5.04070E+04  5.36542E+04 -4.64660E+02
  3.55100E+04  5.29831E+04 -1.64862E+04  7.54421E+04 -6.07443E+04  6.39707E+04 -8.39726E+04  3.18858E+04
 -8.11153E+04 -1.14683E+04 -5.76265E+04 -5.15719E+04 -1.50769E+04 -6.97562E+04  2.77931E+04 -4.60381E+04
  4.03296E+04  3.87967E+03  1.61940E+04  4.77838E+04 -3.43660E+04  4.68995E+04 -6.67476E+04 -3.04027E+02
 -5.35134E+04 -5.69766E+04 -6.80746E+03 -7.72112E+04  3.37222E+04 -5.55369E+04  4.80997E+04 -1.71022E+04
  4.36135E+04  1.13512E+04  3.18691E+04  2.55615E+04  1.58663E+04  2.94747E+04 -5.37727E+03  2.73496E+04
 -2.22936E+04  1.21058E+04 -1.85261E+04 -5.18118E+03  5.84045E+03 -7.70922E+03  2.24652E+04  1.22804E+04
  7.32743E+03  3.52310E+04 -3.22158E+04  3.56173E+04 -6.34569E+04  2.11601E+03 -5.70552E+04 -4.30534E+04
 -1.23266E+04 -6.33549E+04  3.97332E+04 -4.51654E+04  5.84079E+04 -2.07591E+03  3.42798E+04  3.24167E+04
 -6.30838E+03  3.63800E+04 -3.02061E+04  1.61281E+04 -3.04851E+04 -4.30027E+03 -1.68385E+04 -1.10047E+04
 -8.14671E+03 -1.31402E+04 -6.31230E+02 -1.81995E+04  7.45430E+03 -2.29879E+04  1.55024E+04 -1.32529E+04
  1.12803E+04  4.95031E+03 -8.07529E+03  1.28777E+04 -2.13037E+04 -4.42409E+03 -8.22534E+03 -3.37609E+04
  2.27928E+04 -4.34054E+04  4.81572E+04 -1.97424E+04  4.51501E+04  1.92990E+04  1.56479E+04  4.44289E+04
 -1.58920E+04  3.35185E+04 -2.54994E+04  1.81690E+03 -1.01186E+04 -2.75459E+04  2.09012E+04 -3.37722E+04
  4.09233E+04 -9.03756E+03  3.55218E+04  2.36255E+04  1.78162E+04  4.64827E+04 -8.17271E+03  5.00708E+04
 -3.17193E+04  3.39612E+04 -4.20253E+04  9.65657E+03 -4.24196E+04 -1.66666E+04 -2.32336E+04 -3.77774E+04
  7.29648E+03 -3.76358E+04  3.14915E+04 -1.46581E+04  2.91739E+04  1.10948E+04  3.95915E+03  1.91863E+04
 -1.35245E+04  8.20386E+03 -1.03732E+04 -7.72465E+03  5.91568E+03 -1.08241E+04  1.79606E+04  5.90156E+03
  1.34142E+04  2.19689E+04 -5.91303E+03  2.49094E+04 -2.22823E+04  1.13397E+04 -2.77374E+04 -4.75205E+03
 -2.03599E+04 -1.71696E+04 -7.98469E+03 -2.02393E+04  3.81304E+03 -1.94171E+04  1.53924E+04 -1.83309E+04
  2.58450E+04 -1.27243E+04  3.23382E+04  2.60744E+03  2.33468E+04  1.96728E+04  4.10527E+03  3.61532E+04
 -1.74737E+04  3.04175E+04 -2.75423E+04  1.01524E+04 -2.09716E+04 -1.04981E+04 -4.36089E+03 -1.36488E+04
  2.06275E+03 -2.72726E+03 -4.90241E+03  6.48819E+03 -1.58001E+04  5.21054E+03 -1.63219E+04 -6.60999E+03
 -1.00822E+04 -1.87363E+04  5.01016E+03 -2.29360E+04  1.48782E+04 -1.61493E+04  1.78300E+04 -1.70294E+03
  1.12394E+04  1.30167E+04 -8.67385E+02  1.89402E+04 -1.28492E+04  1.05480E+04 -1.84442E+04 -4.08956E+03
 -1.34624E+04 -1.69594E+04 -1.79792E+03 -2.23444E+04  1.03858E+04 -1.86253E+04  1.89607E+04 -9.37547E+03
  1.71690E+04  5.64018E+02  1.23396E+04  4.43567E+03  6.58463E+03  1.22956E+03  9.56170E+03 -1.57893E+03
  1.70476E+04  2.44546E+03  1.89548E+04  1.47635E+04  1.24835E+04  2.94379E+04 -2.87660E+03  3.32023E+04
 -1.91438E+04  2.66558E+04 -3.08598E+04  1.33503E+04 -3.23206E+04 -2.24101E+03 -2.71637E+04 -1.86928E+04
 -1.16297E+04 -2.66823E+04  8.96751E+03 -2.38084E+04  2.09404E+04 -1.21660E+04  1.89800E+04  5.25637E+03
  7.01749E+03  1.41908E+04 -8.67368E+03  1.24529E+04 -1.60001E+04  2.57238E+03 -1.20257E+04 -9.78285E+03
 -1.13666E+01 -1.48359E+04  7.82914E+03 -1.09132E+04  9.80865E+03 -1.44705E+03  2.20616E+03  6.43501E+03
 -6.44038E+03  2.35530E+03 -5.64030E+03 -5.44314E+03 -1.31854E+02 -1.26007E+04  9.43119E+03 -1.34680E+04
  1.60602E+04 -7.14485E+03  1.69579E+04  2.71010E+03  1.45821E+04  1.24152E+04  6.93220E+03  1.90652E+04
 -2.88280E+03  2.11724E+04 -1.31915E+04  1.34568E+04 -1.51453E+04  3.37571E+03 -1.05995E+04 -2.91722E+03
 -5.45152E+03 -4.46059E+03 -8.96517E+02  1.11828E+03 -2.45777E+03  2.32258E+03 -5.10985E+03  4.18219E+03
 -9.98451E+03 -6.06854E+02 -1.07128E+04 -8.48131E+03 -4.42684E+03 -1.40372E+04  4.29975E+03 -1.07197E+04
  8.92051E+03 -4.69503E+03  6.57441E+03  2.98216E+03  4.18419E+02  4.26417E+03 -4.52744E+03  9.22775E+01
 -4.70716E+03 -7.05447E+03 -7.04102E+02 -9.59416E+03  5.56210E+03 -1.04640E+04  1.30215E+04 -5.51182E+03
  1.53076E+04  1.11185E+03  1.13657E+04  8.55709E+03  2.24087E+03  1.20094E+04 -6.82611E+03  1.06252E+04
 -8.70115E+03  3.32320E+03 -4.39124E+03 -1.93412E+03  1.90509E+03 -2.99199E+03  5.72440E+03 -8.07191E+02
  4.91218E+03  4.57903E+03  8.43301E+02  8.08881E+03 -5.69538E+03  8.31333E+03 -1.04315E+04  2.13231E+03
 -6.88481E+03 -5.38525E+03  4.46140E+02 -8.34098E+03  5.31086E+03 -4.36069E+03  5.40607E+03  1.62950E+03
  8.17513E+02  5.28647E+03 -5.11840E+03  6.53678E+03 -7.52225E+03  3.40756E+03 -7.56570E+03 -2.29366E+03
 -4.18910E+03 -8.92713E+03  1.94052E+03 -1.03076E+04  8.69795E+03 -6.47084E+03  9.48424E+03  1.59882E+03
  5.92501E+03  7.76679E+03 -5.94401E+01  1.00643E+04 -6.99961E+03  5.48349E+03 -7.14266E+03 -5.98525E+02
 -7.24913E+03 -6.55635E+03 -1.28223E+03 -6.88260E+03  3.52650E+03 -5.74846E+03  4.13839E+03 -3.32973E+03
  3.37123E+03  5.08249E+02 -3.32946E+02  1.33910E+03  2.73615E+02 -1.22571E+03  6.27467E+02 -3.26242E+03
  5.99979E+03 -1.84462E+03  8.02854E+03  1.02823E+03  8.16834E+03  5.27157E+03  6.49451E+03  1.07871E+04
 -2.53854E+03  1.25382E+04 -1.08554E+04  9.61949E+03 -1.40517E+04  1.68399E+03 -1.10673E+04 -4.45484E+03
 -5.32434E+03 -9.07016E+03 -6.02423E+02 -7.28934E+03  2.89391E+03 -3.68615E+03  2.65895E+03 -2.90641E+03
  1.96937E+03 -1.86170E+03  2.83767E+03 -2.84140E+03  4.27304E+03 -1.91612E+03  4.69734E+03 -2.60824E+02
  6.42689E+03  1.70384E+03  2.18404E+03  4.94949E+03 -1.57419E+03  5.00203E+03 -6.07180E+03  4.17706E+03
 -7.41979E+03 -1.03754E+03 -3.55100E+03 -5.13767E+03 -8.35063E+01 -7.38381E+03  4.46346E+03 -7.68585E+03
  7.81356E+03 -4.35645E+03  9.60684E+03  8.99621E+02  6.82780E+03  6.51064E+03  1.33308E+03  8.67732E+03
 -3.26866E+03  7.70766E+03 -5.15856E+03  2.62691E+03 -2.85541E+03 -1.14028E+03 -1.30010E+03 -7.49237E+02
 -8.86669E+02  4.95854E+02 -1.11281E+03  2.37151E+03 -3.51397E+03  1.47207E+03 -5.54600E+03 -6.04351E+02
 -2.98084E+03 -5.55628E+03  2.53863E+02 -6.93746E+03  4.30010E+03 -6.17816E+03  5.87532E+03 -1.56998E+03
  6.25092E+03  3.36463E+03  2.82942E+03  5.44754E+03 -1.24561E+03  6.63922E+03 -4.43344E+03  4.22381E+03
 -5.82636E+03  3.13965E+02 -4.53340E+03 -3.52379E+03 -1.08548E+02 -5.59329E+03  2.70596E+03 -4.00225E+03
  3.95023E+03 -1.66868E+03  2.72522E+03  9.01350E+02  5.37675E+02  1.95412E+03  1.15408E+03  1.27938E+03
  1.82674E+03  4.39057E+02  2.15009E+03  1.27647E+03  1.88889E+03  2.79378E+03  2.01548E+03  2.55249E+03
 -1.78574E+03  4.59686E+03 -4.00654E+03  5.63046E+03 -4.98796E+03  1.62419E+03 -6.36835E+03 -1.61352E+03
 -2.74404E+03 -5.87917E+03  9.85035E+02 -6.52267E+03  3.37906E+03 -4.28986E+03  4.65367E+03 -1.27924E+03
  3.70169E+03  2.74912E+03  7.30171E+02  3.25230E+03 -1.43676E+03  2.13701E+03 -2.07958E+03 -2.99997E+02
 -1.07764E+03 -2.20171E+03  1.86631E+03 -2.71891E+03  2.21755E+03 -1.12242E+03  2.24442E+03  4.30936E+02
  1.50186E+03  8.98750E+02  8.74008E+02  9.99874E+01 -5.40468E+02  8.35078E+02  1.54709E+03  1.48524E+02
  7.26815E+02 -5.52744E+02  2.44175E+03  9.26071E+02  5.40189E+02  3.42253E+03 -4.70656E+02  4.64735E+03
 -2.53473E+03  2.05789E+03 -3.37744E+03  5.13676E+02 -3.46452E+03 -1.10795E+03 -5.41915E+02 -1.83133E+03
  7.91880E+02 -2.09976E+03  1.42843E+03 -8.97982E+02  1.03620E+03  1.78155E+03 -7.10570E+02  1.66909E+03
 -2.11188E+03  1.14196E+03 -2.23718E+03 -1.05209E+03 -1.53002E+03 -3.14262E+03  2.23265E+02 -2.65268E+03
  1.11722E+03 -1.30350E+03  1.90593E+03 -8.40219E+01  2.07026E+03  3.04498E+01  3.87401E+02  1.64918E+03
 -8.15794E+02  4.31722E+02 -1.55181E+03 -6.81756E+02  4.59695E+02 -1.80023E+03  2.64470E+03 -1.82729E+03
  2.55389E+03  1.52296E+02  3.81459E+03  1.67356E+03  1.29414E+03  3.03160E+03 -1.04568E+03  2.83627E+03
 -2.26921E+03  9.41809E+02 -2.50953E+03 -2.19947E+02 -1.48288E+03 -2.02623E+03  2.17745E+02 -1.52099E+03
  2.14944E+03 -8.33616E+02  1.45521E+03  1.02974E+03  6.61990E+02  1.65943E+03 -2.58677E+02  1.62107E+03
 -6.12669E+02  1.37425E+03 -7.55885E+02  2.94926E+02 -1.00610E+01  4.89090E+02 -1.14043E+03  8.91305E+02
 -7.59094E+02  1.62056E+03 -2.76508E+03  9.87916E+02 -3.16487E+03  9.42839E+01 -3.54717E+03 -1.63114E+03
 -1.73684E+03 -3.83528E+03  7.33859E+02 -4.53783E+03  2.38237E+03 -3.63871E+03  4.15725E+03 -1.56913E+03
  4.16737E+03  1.25910E+02  2.13654E+03  2.24377E+03 -2.91710E+02  2.40140E+03 -1.38421E+03  2.18312E+03
 -1.42820E+03  6.62791E+02 -1.00452E+03 -2.79448E+02 -6.69552E+02  1.06910E+02 -5.72676E+02  1.89384E+02
 -1.30607E+03 -2.58816E+02 -1.08579E+03 -1.15583E+02  2.55255E+01 -7.27903E+02 -6.00084E+02 -1.21528E+03
  1.65695E+03 -1.13973E+03  1.22998E+03  2.56980E+02  1.90757E+03  1.92523E+03 -6.23076E+01  2.68714E+03
 -1.52487E+03  3.49124E+03 -2.78993E+03  1.88505E+03 -2.47535E+03 -4.11935E+02 -2.24704E+03 -2.13880E+03
 -1.12329E+03 -2.69197E+03  3.12318E+02 -2.01993E+03  1.18619E+03 -1.27966E+03  1.28941E+03  2.32392E+02
  1.25444E+03  6.80678E+02  8.06396E+01  6.29142E+02 -3.68461E+02 -1.37898E+01 -2.98383E+02 -3.35293E+02
  7.79266E+02 -8.97270E+01  7.43651E+02  5.22644E+02  2.22850E+02  5.76885E+02  8.46430E+02  8.59631E+02
 -1.07685E+03  9.24519E+02 -1.26107E+03  8.90752E+01 -1.31993E+03 -1.04941E+03  9.22609E+01 -2.14677E+03
  9.55229E+02 -1.78100E+03  1.34749E+03 -3.24730E+02  1.59102E+03 -1.57423E+02  7.21093E+02  1.44884E+03
  5.32517E+02  1.11965E+03 -5.94506E+02  1.00505E+03 -8.73831E+02  9.78092E+02 -8.89970E+02 -6.35406E+01
 -3.72796E+02 -6.85286E+01 -6.15346E+02  1.70231E+02 -9.85700E+02 -5.63238E+01 -1.11860E+03 -3.60679E+02
 -1.31119E+03 -5.01657E+02 -5.84896E+02 -1.52096E+03  8.70502E+02 -2.22061E+03  1.15281E+03 -7.68935E+02
  1.28737E+03  1.66835E+02  2.73219E+02  8.05525E+02 -5.25732E+02  1.47179E+03 -8.23167E+02  1.30673E+03
