 $NMID ID='MM_0lb_SNR800_17hz_g55_64.RAW', FMTDAT='(8E13.5)'
 TRAMP=1., VOLUME=1. $END
  3.09783E+05  6.68463E+02  3.37367E+05  2.50488E+05  8.48063E+04  3.37806E+05 -1.32429E+05  2.50628E+05
 -1.90072E+05  8.29867E+04 -1.11230E+05 -3.26475E+04  9.42243E+02 -5.02030E+04  5.37750E+04 -9.71446E+01
  3.52904E+04  5.27342E+04 -1.67740E+04  7.53722E+04 -6.02123E+04  6.32892E+04 -8.36145E+04  3.17109E+04
 -8.08186E+04 -1.11567E+04 -5.69681E+04 -5.08146E+04 -1.48618E+04 -6.88543E+04  2.71085E+04 -4.54723E+04
  4.00263E+04  4.00631E+03  1.59105E+04  4.74180E+04 -3.44569E+04  4.69094E+04 -6.63500E+04 -5.56030E+02
 -5.28038E+04 -5.64183E+04 -6.72325E+03 -7.65524E+04  3.37544E+04 -5.43677E+04  4.73067E+04 -1.67356E+04
  4.27758E+04  1.12493E+04  3.13242E+04  2.50018E+04  1.55136E+04  2.88655E+04 -5.07850E+03  2.70504E+04
 -2.21325E+04  1.24697E+04 -1.89098E+04 -4.76733E+03  5.07963E+03 -7.54849E+03  2.20687E+04  1.18062E+04
  7.44751E+03  3.46226E+04 -3.12278E+04  3.48411E+04 -6.29106E+04  2.19215E+03 -5.64977E+04 -4.22155E+04
 -1.23040E+04 -6.26360E+04  3.91087E+04 -4.46863E+04  5.74014E+04 -2.11511E+03  3.33971E+04  3.15758E+04
 -6.23024E+03  3.50874E+04 -2.91553E+04  1.49035E+04 -2.92507E+04 -4.83847E+03 -1.58216E+04 -1.09779E+04
 -8.07349E+03 -1.24779E+04 -8.43639E+02 -1.75567E+04  7.32597E+03 -2.27624E+04  1.53088E+04 -1.35278E+04
  1.16337E+04  5.14370E+03 -7.44924E+03  1.30153E+04 -2.02280E+04 -3.62302E+03 -8.12709E+03 -3.23892E+04
  2.19124E+04 -4.23326E+04  4.65866E+04 -1.91364E+04  4.38587E+04  1.89757E+04  1.50895E+04  4.32065E+04
 -1.57998E+04  3.26383E+04 -2.46579E+04  1.55371E+03 -9.16130E+03 -2.74043E+04  2.08602E+04 -3.28200E+04
  3.98609E+04 -8.08993E+03  3.38544E+04  2.35705E+04  1.69187E+04  4.46777E+04 -7.68540E+03  4.83238E+04
 -3.01210E+04  3.22090E+04 -4.00587E+04  9.23256E+03 -4.06776E+04 -1.58378E+04 -2.26418E+04 -3.66340E+04
  7.22067E+03 -3.63442E+04  3.04550E+04 -1.39123E+04  2.86531E+04  1.08437E+04  3.37087E+03  1.86092E+04
 -1.32920E+04  7.81209E+03 -9.74443E+03 -7.64589E+03  6.18615E+03 -1.06418E+04  1.76671E+04  6.24076E+03
  1.31473E+04  2.19081E+04 -6.03307E+03  2.42281E+04 -2.18934E+04  1.03972E+04 -2.68467E+04 -5.42023E+03
 -1.88389E+04 -1.67335E+04 -7.30080E+03 -1.89598E+04  4.03215E+03 -1.75016E+04  1.41966E+04 -1.66079E+04
  2.41790E+04 -1.22788E+04  3.05276E+04  2.06937E+03  2.27899E+04  1.84175E+04  4.30321E+03  3.46222E+04
 -1.71018E+04  2.90415E+04 -2.68494E+04  9.96859E+03 -2.01842E+04 -1.03935E+04 -4.24759E+03 -1.37197E+04
  2.23201E+03 -3.55930E+03 -3.62344E+03  5.86023E+03 -1.47943E+04  5.17678E+03 -1.49000E+04 -5.97454E+03
 -9.45662E+03 -1.74604E+04  4.88721E+03 -2.14525E+04  1.40699E+04 -1.54813E+04  1.65760E+04 -1.48285E+03
  1.03926E+04  1.17247E+04 -5.87181E+02  1.72843E+04 -1.18322E+04  9.90471E+03 -1.71839E+04 -3.55793E+03
 -1.26805E+04 -1.55334E+04 -1.75075E+03 -2.10165E+04  9.37120E+03 -1.72314E+04  1.75457E+04 -8.38971E+03
  1.62705E+04  5.60493E+02  1.16584E+04  4.35166E+03  6.07202E+03  8.02649E+02  8.82973E+03 -1.65014E+03
  1.57538E+04  2.52562E+03  1.68493E+04  1.41905E+04  1.11561E+04  2.72926E+04 -2.77877E+03  3.04422E+04
 -1.78452E+04  2.38494E+04 -2.81915E+04  1.16145E+04 -2.91124E+04 -2.39226E+03 -2.46418E+04 -1.68200E+04
 -1.09216E+04 -2.39996E+04  8.45212E+03 -2.20912E+04  1.88210E+04 -1.20549E+04  1.72767E+04  4.35931E+03
  6.92968E+03  1.28331E+04 -8.17647E+03  1.12171E+04 -1.46756E+04  2.43119E+03 -1.12177E+04 -8.94933E+03
 -2.45601E+02 -1.38427E+04  7.00068E+03 -1.03157E+04  9.07140E+03 -1.47766E+03  1.77054E+03  5.44661E+03
 -5.90366E+03  1.59201E+03 -4.90726E+03 -4.89245E+03  6.31397E+01 -1.18019E+04  8.35059E+03 -1.22736E+04
  1.43777E+04 -5.57826E+03  1.46516E+04  2.87730E+03  1.31273E+04  1.15092E+04  5.81720E+03  1.70636E+04
 -2.39346E+03  1.89479E+04 -1.16155E+04  1.15440E+04 -1.34261E+04  3.17524E+03 -9.99567E+03 -2.85216E+03
 -4.81646E+03 -4.01597E+03 -8.38240E+02  1.19992E+03 -2.10723E+03  2.24715E+03 -4.16732E+03  3.87351E+03
 -9.16492E+03 -4.62708E+02 -9.58169E+03 -8.08524E+03 -4.18039E+03 -1.28759E+04  4.03747E+03 -9.92352E+03
  8.10536E+03 -4.30619E+03  5.78934E+03  2.49900E+03  4.34168E+02  3.49596E+03 -4.44991E+03 -2.29327E+02
 -4.24263E+03 -6.12925E+03 -1.00126E+03 -8.72347E+03  4.94348E+03 -9.40363E+03  1.15272E+04 -4.73091E+03
  1.36863E+04  9.10901E+02  1.01713E+04  7.60530E+03  2.08486E+03  1.07859E+04 -6.08414E+03  9.44457E+03
 -7.89804E+03  3.17467E+03 -4.10545E+03 -1.23038E+03  1.31975E+03 -2.26557E+03  5.26809E+03 -7.88963E+02
  4.71389E+03  4.14465E+03  8.67482E+02  7.29678E+03 -5.36124E+03  7.32721E+03 -9.29876E+03  1.91678E+03
 -5.82308E+03 -4.52454E+03  1.54680E+02 -7.68483E+03  4.75093E+03 -3.96390E+03  4.51977E+03  1.53679E+03
  9.39429E+02  4.35102E+03 -5.02060E+03  5.97372E+03 -6.21333E+03  2.62567E+03 -5.97546E+03 -1.79912E+03
 -3.61598E+03 -7.47058E+03  1.84705E+03 -9.02796E+03  7.54421E+03 -6.03284E+03  7.92272E+03  1.36118E+03
  5.75994E+03  6.55429E+03 -3.06466E+02  8.46860E+03 -6.29568E+03  4.84497E+03 -6.19656E+03 -4.74729E+02
 -6.28678E+03 -5.83118E+03 -1.50542E+03 -6.07163E+03  3.38555E+03 -5.42565E+03  3.66200E+03 -3.18178E+03
  3.13444E+03  3.72735E+02 -2.52137E+02  1.24022E+03  2.15692E+02 -6.35800E+02  4.90251E+02 -2.82545E+03
  4.93649E+03 -1.20403E+03  6.95018E+03  8.37288E+02  6.82958E+03  4.09956E+03  6.43595E+03  8.88387E+03
 -1.89760E+03  1.03783E+04 -9.18504E+03  8.21263E+03 -1.19271E+04  1.43298E+03 -9.29204E+03 -3.38864E+03
 -5.07786E+03 -8.03381E+03 -3.92825E+02 -6.59376E+03  2.32980E+03 -3.31566E+03  1.74490E+03 -2.63940E+03
  1.78400E+03 -1.62787E+03  2.23735E+03 -2.61431E+03  3.98923E+03 -1.69459E+03  4.11131E+03  3.65357E+02
  5.36688E+03  8.99105E+02  1.80833E+03  4.19754E+03 -1.61451E+03  4.02826E+03 -5.49651E+03  3.16327E+03
 -5.86468E+03 -9.82544E+02 -2.62724E+03 -4.31021E+03 -6.84094E+01 -6.39949E+03  3.84365E+03 -6.59704E+03
  6.62014E+03 -3.95052E+03  8.54684E+03  4.35298E+02  5.81827E+03  5.48915E+03  1.22217E+03  7.79107E+03
 -2.83813E+03  6.96983E+03 -4.01171E+03  2.36390E+03 -2.66150E+03 -1.04928E+03 -4.68674E+02 -6.75891E+02
 -4.89473E+02  4.60376E+02 -1.09572E+03  2.09551E+03 -2.89189E+03  1.22730E+03 -4.82416E+03 -4.31194E+02
 -2.22689E+03 -4.80484E+03  5.98411E+02 -5.89719E+03  3.40892E+03 -5.59203E+03  4.90253E+03 -1.41208E+03
  5.60755E+03  2.79708E+03  2.35807E+03  4.22812E+03 -1.07100E+03  5.58686E+03 -3.42920E+03  3.44928E+03
 -4.96262E+03  6.97101E+02 -4.08595E+03 -3.15480E+03 -7.62392E+02 -4.12903E+03  2.27952E+03 -3.24831E+03
  3.38330E+03 -1.15331E+03  2.54452E+03  8.96599E+02  7.97456E+02  2.03921E+03  9.67668E+02  6.99026E+02
  1.91475E+03  5.92636E+02  1.26264E+03  8.78806E+02  1.50702E+03  2.89192E+03  1.73695E+03  2.31509E+03
 -1.62096E+03  3.69703E+03 -3.31499E+03  4.93535E+03 -4.38808E+03  1.51986E+03 -5.50512E+03 -1.16450E+03
 -1.83951E+03 -4.72228E+03  1.00410E+03 -5.94765E+03  2.64371E+03 -3.62341E+03  4.08680E+03 -1.06335E+03
  3.04932E+03  2.21030E+03  6.15708E+02  2.76716E+03 -9.89058E+02  1.76632E+03 -1.58840E+03 -7.57732E+01
 -8.72321E+02 -2.04412E+03  1.54141E+03 -2.12441E+03  1.96939E+03 -1.32755E+03  1.96493E+03  6.83610E+02
  9.12059E+02  6.76242E+02  6.95040E+02  1.86494E+02 -3.93259E+02  6.93609E+02  1.35350E+03 -3.90539E+02
  4.26858E+02 -4.55490E+02  2.02387E+03  7.51411E+02  6.63479E+02  3.18126E+03 -1.14026E+02  3.61962E+03
 -2.25783E+03  1.56536E+03 -2.46307E+03  4.61419E+02 -2.63405E+03 -1.05728E+03 -6.92159E+02 -1.73663E+03
  7.69328E+02 -1.56025E+03  1.09730E+03 -9.35569E+02  1.21679E+03  1.32613E+03 -5.84974E+02  1.70783E+03
 -1.73165E+03  9.12973E+02 -1.84265E+03 -1.54225E+03 -1.07610E+03 -2.51072E+03 -1.30488E+02 -2.23577E+03
  1.08329E+03 -1.02949E+03  1.06793E+03 -7.06940E+01  1.37752E+03  2.22106E+02  7.37600E+02  1.74041E+03
 -7.98179E+02  1.91246E+02 -1.41576E+03 -5.48992E+02  6.06230E+02 -9.38678E+02  2.15043E+03 -1.22212E+03
  1.73508E+03  5.60502E+02  3.28863E+03  1.18465E+03  1.62361E+03  2.11744E+03 -4.84030E+02  2.10253E+03
 -2.13199E+03  7.87497E+02 -2.11018E+03 -8.37168E+01 -1.27816E+03 -1.88419E+03  3.56763E+02 -1.52204E+03
  1.87923E+03 -9.17415E+02  7.76635E+02  8.86048E+02  4.68000E+02  1.63302E+03  1.70293E+02  1.63296E+03
 -4.41925E+02  1.28501E+03 -8.10375E+02  2.65298E+02  3.67443E+01  4.86703E+02 -7.99593E+02  8.16032E+02
 -6.92987E+02  1.12722E+03 -2.41156E+03  6.52006E+02 -2.34721E+03  4.48121E+02 -3.04608E+03 -1.72852E+03
 -1.35633E+03 -2.88006E+03  7.65590E+02 -3.75095E+03  1.80458E+03 -3.24049E+03  3.56047E+03 -1.14750E+03
  3.19031E+03  6.00533E+02  1.61444E+03  2.23488E+03 -3.51219E+02  2.16952E+03 -9.07347E+02  1.67437E+03
 -1.36759E+03  4.14858E+02 -7.89623E+02 -5.57263E+02 -2.25901E+02  2.86306E+02 -6.39672E+02  8.06720E+01
 -1.13546E+03 -2.05414E+02 -8.38516E+02  3.82071E+02  3.54617E+02 -7.36251E+02 -3.85715E+02 -1.25166E+03
  1.19669E+03 -7.77581E+02  8.01225E+02  2.65787E+02  1.58698E+03  1.25644E+03 -1.36795E+02  2.08581E+03
 -1.58680E+03  2.98012E+03 -2.12254E+03  1.65763E+03 -2.55878E+03 -2.98461E+02 -1.69201E+03 -1.59983E+03
 -1.19468E+03 -1.84354E+03  3.66430E+02 -1.46914E+03  1.25626E+03 -7.72383E+02  1.31330E+03  1.51339E+02
  8.93535E+02  4.85266E+02  9.81374E+01  6.76486E+02 -5.88568E+02  1.49954E+02 -1.57210E+02 -3.90453E+02
  5.40540E+02  8.34598E+01  4.47812E+02  3.70582E+02  2.21583E+02  4.64257E+02  2.25521E+02  6.69094E+02
 -6.65747E+02  6.59400E+02 -9.31437E+02  2.42619E+02 -9.56449E+02 -5.97264E+02  1.04716E+02 -1.89835E+03
  4.05282E+02 -1.11650E+03  9.66037E+02 -2.78903E+02  1.18225E+03 -4.75214E+02  4.91333E+02  1.16331E+03
  8.33418E+02  6.83600E+02 -1.35167E+02  7.28804E+02 -5.23806E+02  7.92600E+02 -7.34945E+02 -1.80782E+02
 -1.08339E+02  1.81050E+01 -4.90690E+02  3.44986E+02 -5.94469E+02  2.78698E+01 -9.11838E+02 -2.31509E+02
 -1.21118E+03  1.14020E+02 -4.96202E+02 -1.36510E+03  1.17943E+03 -1.75348E+03  9.54762E+02 -3.93915E+02
  9.26858E+02 -4.39563E+01 -4.72405E+01  2.54311E+02 -2.26385E+02  1.30850E+03 -6.63754E+02  6.62675E+02
