 $NMID ID='MM_0lb_SNR800_10hz_g50_90.RAW', FMTDAT='(8E13.5)'
 TRAMP=1., VOLUME=1. $END
  3.09667E+05  2.33950E+02  3.37868E+05  2.50734E+05  8.50300E+04  3.38530E+05 -1.32800E+05  2.51809E+05
 -1.90853E+05  8.31819E+04 -1.12578E+05 -3.26410E+04  3.88584E+02 -5.09801E+04  5.38951E+04 -3.32998E+02
  3.57790E+04  5.27517E+04 -1.67715E+04  7.59338E+04 -6.12907E+04  6.38701E+04 -8.50949E+04  3.23287E+04
 -8.23270E+04 -1.19659E+04 -5.78036E+04 -5.19765E+04 -1.51242E+04 -7.06744E+04  2.79183E+04 -4.66788E+04
  4.08610E+04  3.90410E+03  1.66491E+04  4.86148E+04 -3.45018E+04  4.83393E+04 -6.74129E+04 -5.95605E+00
 -5.46756E+04 -5.78689E+04 -7.00436E+03 -7.86816E+04  3.45662E+04 -5.65173E+04  4.90985E+04 -1.84707E+04
  4.51762E+04  1.12518E+04  3.25204E+04  2.65960E+04  1.58507E+04  3.04575E+04 -5.88567E+03  2.75080E+04
 -2.20796E+04  1.19112E+04 -1.81664E+04 -5.47607E+03  6.80873E+03 -7.41544E+03  2.34315E+04  1.32830E+04
  7.17251E+03  3.71326E+04 -3.33580E+04  3.65892E+04 -6.55972E+04  2.34595E+03 -5.85420E+04 -4.44456E+04
 -1.23973E+04 -6.55894E+04  4.09671E+04 -4.68712E+04  6.01859E+04 -2.57966E+03  3.60750E+04  3.38521E+04
 -5.78815E+03  3.83971E+04 -3.11492E+04  1.82009E+04 -3.28157E+04 -3.40086E+03 -1.87820E+04 -1.19478E+04
 -9.25924E+03 -1.44728E+04 -3.75036E+02 -1.94299E+04  8.29468E+03 -2.37310E+04  1.62272E+04 -1.27314E+04
  1.10458E+04  5.66377E+03 -1.00648E+04  1.32086E+04 -2.29108E+04 -5.94915E+03 -8.22551E+03 -3.63843E+04
  2.45282E+04 -4.60877E+04  5.12130E+04 -2.06785E+04  4.80536E+04  2.06366E+04  1.68678E+04  4.63299E+04
 -1.65797E+04  3.55268E+04 -2.72672E+04  2.18386E+03 -1.12002E+04 -2.93073E+04  2.14039E+04 -3.61590E+04
  4.37791E+04 -9.92364E+03  3.96358E+04  2.45885E+04  2.06535E+04  4.99644E+04 -7.98486E+03  5.47455E+04
 -3.48335E+04  3.71330E+04 -4.61623E+04  1.08096E+04 -4.67151E+04 -1.84575E+04 -2.58143E+04 -4.12456E+04
  7.55285E+03 -4.10716E+04  3.32916E+04 -1.68328E+04  3.13480E+04  1.12291E+04  5.21672E+03  2.04020E+04
 -1.37605E+04  9.17261E+03 -1.12343E+04 -7.84147E+03  5.57382E+03 -1.16189E+04  1.86824E+04  5.70798E+03
  1.46051E+04  2.28030E+04 -5.49089E+03  2.65243E+04 -2.28047E+04  1.36909E+04 -3.07936E+04 -3.29200E+03
 -2.39543E+04 -1.82619E+04 -1.08404E+04 -2.41318E+04  4.20043E+03 -2.40572E+04  1.91189E+04 -2.22438E+04
  3.09544E+04 -1.39831E+04  3.68834E+04  3.99188E+03  2.63800E+04  2.36269E+04  4.31633E+03  4.05160E+04
 -1.93900E+04  3.30533E+04 -3.00003E+04  1.14748E+04 -2.19088E+04 -1.03542E+04 -4.77671E+03 -1.26356E+04
  9.68473E+02 -1.69884E+03 -7.12277E+03  7.95408E+03 -1.94580E+04  4.35284E+03 -1.91071E+04 -8.99617E+03
 -1.17442E+04 -2.26365E+04  6.00503E+03 -2.67628E+04  1.80055E+04 -1.89306E+04  2.16912E+04 -1.70861E+03
  1.34388E+04  1.52861E+04 -1.14650E+03  2.22569E+04 -1.57562E+04  1.27855E+04 -2.25240E+04 -4.26411E+03
 -1.68236E+04 -1.98778E+04 -2.14491E+03 -2.71795E+04  1.20219E+04 -2.25732E+04  2.22649E+04 -1.12098E+04
  2.11379E+04 -3.09652E+02  1.52533E+04  4.93365E+03  8.37600E+03  1.69260E+03  1.20398E+04 -1.69225E+03
  2.10840E+04  2.99896E+03  2.42349E+04  1.75126E+04  1.64567E+04  3.56279E+04 -2.36359E+03  4.22909E+04
 -2.38621E+04  3.46046E+04 -3.95499E+04  1.79553E+04 -4.27769E+04 -3.15729E+03 -3.43228E+04 -2.45762E+04
 -1.36912E+04 -3.47035E+04  1.22858E+04 -3.08073E+04  2.67843E+04 -1.45981E+04  2.30544E+04  7.01065E+03
  8.13519E+03  1.74767E+04 -1.09069E+04  1.49639E+04 -1.92606E+04  2.66501E+03 -1.47082E+04 -1.25150E+04
 -3.71117E+02 -1.84384E+04  9.98939E+03 -1.37032E+04  1.28220E+04 -1.17085E+03  3.23365E+03  8.11187E+03
 -8.40390E+03  3.71840E+03 -8.32959E+03 -6.91351E+03 -1.61429E+03 -1.75645E+04  1.16287E+04 -1.85464E+04
  2.12653E+04 -1.05994E+04  2.42488E+04  3.22112E+03  2.16696E+04  1.72653E+04  1.00279E+04  2.75147E+04
 -5.07385E+03  2.96286E+04 -1.88823E+04  1.78801E+04 -2.11880E+04  3.87242E+03 -1.44968E+04 -5.59531E+03
 -6.23031E+03 -6.82305E+03 -8.25007E+02  7.25372E+02 -2.68722E+03  3.19350E+03 -7.01563E+03  5.03388E+03
 -1.30660E+04 -6.69083E+02 -1.43437E+04 -1.11352E+04 -5.39367E+03 -1.82243E+04  5.83318E+03 -1.48828E+04
  1.21002E+04 -5.97881E+03  8.53836E+03  3.87724E+03 -3.11227E+02  5.88965E+03 -7.25132E+03 -3.34715E+02
 -6.97728E+03 -9.50887E+03 -1.21557E+03 -1.46361E+04  8.41270E+03 -1.51067E+04  1.90060E+04 -8.23622E+03
  2.18291E+04  2.05993E+03  1.61116E+04  1.33525E+04  2.72572E+03  1.78666E+04 -8.77243E+03  1.47657E+04
 -1.20352E+04  4.19589E+03 -6.29382E+03 -2.89621E+03  1.87183E+03 -4.03401E+03  7.68661E+03 -8.89389E+02
  7.08304E+03  6.46781E+03  9.01283E+02  1.18577E+04 -9.00547E+03  1.09240E+04 -1.42193E+04  2.85071E+03
 -9.96049E+03 -7.69852E+03 -1.25338E+02 -1.25620E+04  8.36220E+03 -6.48934E+03  8.80789E+03  2.70862E+03
  1.99197E+03  8.82589E+03 -7.62518E+03  1.10224E+04 -1.21945E+04  4.87093E+03 -1.27024E+04 -4.62537E+03
 -7.44033E+03 -1.43663E+04  3.13828E+03 -1.66482E+04  1.41281E+04 -9.77611E+03  1.52130E+04  2.59767E+03
  9.15579E+03  1.22512E+04 -1.02449E+03  1.45428E+04 -1.07050E+04  7.88650E+03 -1.14825E+04 -8.89075E+02
 -9.83003E+03 -9.97565E+03 -1.99713E+03 -1.10913E+04  5.93510E+03 -8.79637E+03  6.92007E+03 -3.73900E+03
  4.64867E+03  1.57166E+03 -1.23000E+03  1.68761E+03 -7.97028E+02 -2.82857E+03  2.42336E+03 -6.39299E+03
  1.02691E+04 -4.52078E+03  1.45830E+04  1.24202E+03  1.43493E+04  9.96507E+03  9.62636E+03  1.89798E+04
 -4.44858E+03  2.17857E+04 -1.80387E+04  1.63667E+04 -2.33051E+04  3.11162E+03 -1.90865E+04 -7.75193E+03
 -9.46140E+03 -1.59640E+04 -2.36302E+02 -1.29150E+04  4.69474E+03 -7.47393E+03  4.73397E+03 -4.97195E+03
  3.50844E+03 -2.85869E+03  3.57954E+03 -3.33574E+03  5.89738E+03 -3.04145E+03  7.59143E+03 -8.05810E+02
  9.77911E+03  2.38640E+03  5.04598E+03  8.44719E+03 -1.98254E+03  9.98855E+03 -1.04475E+04  7.54142E+03
 -1.31808E+04 -1.37058E+03 -8.37979E+03 -9.40736E+03 -1.20801E+03 -1.41735E+04  7.79684E+03 -1.41370E+04
  1.46029E+04 -7.95473E+03  1.76286E+04  2.14577E+03  1.24956E+04  1.23281E+04  1.77017E+03  1.59640E+04
 -6.72201E+03  1.33477E+04 -9.29414E+03  4.62295E+03 -6.56724E+03 -1.55732E+03 -2.74316E+03 -1.84193E+03
 -1.51958E+03 -5.20454E+01 -1.89642E+03  2.85578E+03 -5.73590E+03  1.96970E+03 -9.34677E+03 -1.29096E+03
 -6.49948E+03 -9.33563E+03 -8.25609E+01 -1.31169E+04  7.88788E+03 -1.20754E+04  1.33492E+04 -3.62855E+03
  1.29201E+04  6.63570E+03  5.80329E+03  1.12487E+04 -2.63179E+03  1.36706E+04 -9.30800E+03  8.16891E+03
 -1.22089E+04  6.68212E+02 -9.93898E+03 -7.84192E+03 -1.23146E+03 -1.07955E+04  5.63161E+03 -8.45301E+03
  8.34820E+03 -2.95521E+03  5.75327E+03  2.23030E+03  1.73600E+03  4.07046E+03  1.09761E+03  1.48129E+03
  2.60230E+03  1.02789E+03  3.09922E+03  1.61310E+03  3.73144E+03  4.69692E+03  3.17349E+03  7.19454E+03
 -2.85590E+03  1.00027E+04 -8.69244E+03  1.05544E+04 -1.41091E+04  3.00222E+03 -1.38001E+04 -5.92989E+03
 -6.74886E+03 -1.31688E+04  2.18453E+03 -1.47047E+04  7.89978E+03 -9.37420E+03  1.05491E+04 -2.57171E+03
  8.77924E+03  4.97569E+03  1.86185E+03  7.79467E+03 -3.97570E+03  5.04011E+03 -4.95264E+03 -1.02217E+03
 -2.47413E+03 -5.65404E+03  3.05013E+03 -5.65204E+03  5.51888E+03 -3.07648E+03  5.54857E+03  1.26551E+03
  2.93128E+03  2.74918E+03  1.47254E+03  2.17741E+03 -5.51238E+02  2.24331E+03  1.86139E+03 -6.96084E+02
  2.10823E+03 -5.88737E+02  5.31998E+03  2.33766E+03  2.86584E+03  6.84360E+03 -9.53531E+02  9.68644E+03
 -6.72168E+03  6.41165E+03 -7.99334E+03  1.98891E+03 -7.67269E+03 -2.94189E+03 -2.89228E+03 -5.02409E+03
  8.06155E+02 -5.13715E+03  3.35029E+03 -2.14227E+03  2.68940E+03  2.80823E+03 -1.25931E+03  4.46298E+03
 -5.45080E+03  2.53090E+03 -5.98077E+03 -3.48127E+03 -3.61842E+03 -7.10104E+03  1.46725E+03 -7.04802E+03
  4.22236E+03 -4.29651E+03  5.14903E+03 -3.53258E+02  4.56113E+03  1.95418E+03  6.47105E+02  3.72040E+03
 -2.27500E+03  1.54447E+03 -3.17069E+03 -2.46042E+03  1.32522E+03 -5.53046E+03  6.52940E+03 -5.04322E+03
  8.12222E+03  8.80146E+02  8.38904E+03  5.49782E+03  2.83859E+03  8.56733E+03 -2.92284E+03  8.00567E+03
 -7.06038E+03  3.39997E+03 -7.38813E+03 -1.13567E+03 -3.94397E+03 -5.78542E+03  1.00627E+03 -5.20292E+03
  5.44073E+03 -2.30946E+03  4.47362E+03  2.35252E+03  1.33495E+03  4.75243E+03 -6.57458E+02  4.09199E+03
 -2.29064E+03  2.71426E+03 -2.04561E+03  1.09608E+03 -7.38976E+02  9.21962E+02 -1.47075E+03  1.69512E+03
 -2.28827E+03  3.32823E+03 -5.96508E+03  3.11075E+03 -8.57279E+03  1.29712E+02 -9.70948E+03 -5.46751E+03
 -5.17203E+03 -1.16374E+04  2.23504E+03 -1.33150E+04  7.95437E+03 -1.01495E+04  1.24482E+04 -3.75037E+03
  1.16998E+04  1.97457E+03  6.90652E+03  7.85468E+03  5.54440E+02  8.85073E+03 -4.04072E+03  6.57437E+03
 -4.74172E+03  2.46404E+03 -2.79265E+03 -1.06937E+03 -9.92977E+02 -6.84247E+02 -7.07881E+02 -6.09945E+02
 -1.23800E+03  4.38547E+01 -1.66819E+03 -5.20360E+02 -4.72001E+02 -2.38625E+03 -2.92197E+02 -3.46992E+03
  4.09328E+03 -3.04467E+03  5.03709E+03 -8.93104E+01  6.17355E+03  5.02870E+03  1.79810E+03  8.58602E+03
 -3.85333E+03  9.92893E+03 -9.33194E+03  5.96190E+03 -1.03439E+04 -9.76329E+02 -7.95987E+03 -6.92039E+03
 -3.78206E+03 -8.43004E+03  2.16520E+03 -7.92893E+03  5.87883E+03 -4.58595E+03  6.04375E+03  6.65597E+02
  3.14232E+03  2.88562E+03 -6.05961E+02  2.50927E+03 -1.99439E+03 -2.19709E+02  1.32262E+01 -2.35315E+03
  2.63969E+03 -1.32042E+03  3.30942E+03  1.38585E+03  2.36185E+03  3.32286E+03  4.86881E+02  4.40841E+03
 -3.64725E+03  4.12381E+03 -5.75887E+03  4.04395E+02 -5.07341E+03 -4.13888E+03 -8.23988E+02 -7.49184E+03
  4.07072E+03 -5.69584E+03  6.50806E+03 -1.69167E+03  6.74413E+03  1.37802E+03  3.88919E+03  5.46963E+03
  6.17965E+02  5.74341E+03 -2.13639E+03  4.71400E+03 -3.72146E+03  2.50447E+03 -2.81944E+03  1.15577E+02
 -1.61205E+03  2.08874E+01 -1.43994E+03  4.96992E+02 -3.35050E+03  1.21250E+03 -4.49006E+03 -8.81277E+02
 -4.49454E+03 -3.16298E+03 -1.61719E+03 -6.12850E+03  2.70750E+03 -5.95350E+03  5.24026E+03 -2.68352E+03
  6.17580E+03  2.70086E+02  2.96962E+03  3.74529E+03 -2.45470E+02  5.81349E+03 -4.26528E+03  4.11157E+03
