 $NMID ID='MM_0lb_SNR800_12hz_g45_34.RAW', FMTDAT='(8E13.5)'
 TRAMP=1., VOLUME=1. $END
  3.09581E+05  5.00141E+02  3.37441E+05  2.50763E+05  8.46894E+04  3.37947E+05 -1.32486E+05  2.51272E+05
 -1.90570E+05  8.31704E+04 -1.12106E+05 -3.28203E+04  6.52945E+02 -5.08421E+04  5.39355E+04 -2.43286E+02
  3.52118E+04  5.29287E+04 -1.66526E+04  7.57802E+04 -6.08782E+04  6.37603E+04 -8.43615E+04  3.19389E+04
 -8.13148E+04 -1.12680E+04 -5.74424E+04 -5.13058E+04 -1.51757E+04 -7.03177E+04  2.73155E+04 -4.60665E+04
  4.02271E+04  3.65723E+03  1.66158E+04  4.84559E+04 -3.44194E+04  4.76739E+04 -6.72239E+04 -4.23113E+02
 -5.33968E+04 -5.72629E+04 -6.94123E+03 -7.75241E+04  3.40924E+04 -5.58274E+04  4.85324E+04 -1.78623E+04
  4.38274E+04  1.12521E+04  3.19810E+04  2.57329E+04  1.58306E+04  2.95976E+04 -5.58588E+03  2.74747E+04
 -2.21387E+04  1.24111E+04 -1.83982E+04 -5.18700E+03  6.11125E+03 -7.86273E+03  2.25800E+04  1.24817E+04
  7.42413E+03  3.58555E+04 -3.27126E+04  3.59812E+04 -6.40090E+04  2.08977E+03 -5.75043E+04 -4.34572E+04
 -1.23411E+04 -6.39873E+04  4.04818E+04 -4.58714E+04  5.91073E+04 -2.26876E+03  3.50497E+04  3.31240E+04
 -5.70710E+03  3.68995E+04 -3.08215E+04  1.69672E+04 -3.11988E+04 -4.07746E+03 -1.72899E+04 -1.09996E+04
 -8.75480E+03 -1.36647E+04 -6.56101E+02 -1.84472E+04  7.74638E+03 -2.35089E+04  1.56821E+04 -1.30390E+04
  1.12095E+04  5.59891E+03 -8.70253E+03  1.29712E+04 -2.15318E+04 -5.42571E+03 -8.45391E+03 -3.47308E+04
  2.40849E+04 -4.45826E+04  4.93027E+04 -1.99524E+04  4.61041E+04  1.99161E+04  1.60131E+04  4.51662E+04
 -1.60648E+04  3.39908E+04 -2.62948E+04  2.10582E+03 -1.03059E+04 -2.86951E+04  2.11670E+04 -3.48069E+04
  4.17102E+04 -9.77642E+03  3.68730E+04  2.40020E+04  1.87235E+04  4.81463E+04 -8.46880E+03  5.18710E+04
 -3.27471E+04  3.49964E+04 -4.36001E+04  1.04858E+04 -4.41180E+04 -1.69287E+04 -2.41608E+04 -3.92702E+04
  7.83571E+03 -3.90583E+04  3.25266E+04 -1.52100E+04  3.04225E+04  1.10957E+04  4.63638E+03  1.96494E+04
 -1.35237E+04  8.94583E+03 -1.06064E+04 -7.52866E+03  5.64135E+03 -1.05990E+04  1.81412E+04  6.06324E+03
  1.36137E+04  2.24278E+04 -5.91489E+03  2.53799E+04 -2.26392E+04  1.23646E+04 -2.87391E+04 -4.24508E+03
 -2.21806E+04 -1.78342E+04 -9.25636E+03 -2.19252E+04  4.15796E+03 -2.11913E+04  1.70547E+04 -1.96381E+04
  2.81724E+04 -1.33866E+04  3.38849E+04  3.55909E+03  2.49738E+04  2.13432E+04  4.15581E+03  3.80570E+04
 -1.84058E+04  3.15447E+04 -2.83858E+04  1.07718E+04 -2.13071E+04 -1.01928E+04 -4.44035E+03 -1.31506E+04
  1.36578E+03 -2.04541E+03 -5.74854E+03  7.19254E+03 -1.74747E+04  5.14267E+03 -1.73810E+04 -7.53915E+03
 -1.07038E+04 -2.02631E+04  5.32814E+03 -2.45851E+04  1.62942E+04 -1.73528E+04  1.96294E+04 -2.11758E+03
  1.19721E+04  1.42410E+04 -1.04151E+03  2.02542E+04 -1.40715E+04  1.19355E+04 -2.04603E+04 -4.17028E+03
 -1.48811E+04 -1.80248E+04 -1.98291E+03 -2.44973E+04  1.09527E+04 -2.01099E+04  2.01575E+04 -9.99679E+03
  1.85196E+04 -1.05165E+02  1.38317E+04  4.81731E+03  7.59043E+03  9.29282E+02  1.03101E+04 -1.65888E+03
  1.87251E+04  2.78691E+03  2.16849E+04  1.60506E+04  1.40514E+04  3.25783E+04 -2.69580E+03  3.71848E+04
 -2.11663E+04  3.02113E+04 -3.43236E+04  1.57127E+04 -3.69436E+04 -2.56595E+03 -2.96232E+04 -2.13593E+04
 -1.26297E+04 -3.03122E+04  1.08115E+04 -2.72282E+04  2.32991E+04 -1.33118E+04  2.07205E+04  5.95450E+03
  7.30792E+03  1.57840E+04 -9.75639E+03  1.35001E+04 -1.73867E+04  2.46712E+03 -1.29124E+04 -1.10162E+04
 -2.63401E+02 -1.64953E+04  9.03305E+03 -1.22643E+04  1.08837E+04 -1.18676E+03  2.67043E+03  7.11755E+03
 -7.39786E+03  2.70111E+03 -7.04985E+03 -5.79155E+03 -6.60263E+02 -1.48779E+04  1.01765E+04 -1.56219E+04
  1.84337E+04 -9.01952E+03  2.03373E+04  3.22242E+03  1.77030E+04  1.50318E+04  8.17912E+03  2.28095E+04
 -3.72385E+03  2.46163E+04 -1.59845E+04  1.54306E+04 -1.78922E+04  3.73153E+03 -1.24067E+04 -4.25345E+03
 -5.71547E+03 -5.85674E+03 -8.80893E+02  8.06760E+02 -2.48253E+03  2.83217E+03 -5.78796E+03  4.78421E+03
 -1.16249E+04 -6.39923E+02 -1.22597E+04 -1.03026E+04 -4.94151E+03 -1.62448E+04  5.43716E+03 -1.29255E+04
  1.03609E+04 -5.33611E+03  7.35690E+03  3.35926E+03  4.11796E+02  5.09894E+03 -6.39985E+03 -2.59658E+02
 -5.25797E+03 -7.80414E+03 -1.15832E+03 -1.19946E+04  6.95777E+03 -1.27546E+04  1.56449E+04 -6.85326E+03
  1.89035E+04  1.95960E+03  1.35568E+04  1.07916E+04  2.77487E+03  1.45335E+04 -7.54057E+03  1.25044E+04
 -1.03672E+04  3.74715E+03 -5.01784E+03 -2.10968E+03  1.98923E+03 -3.09595E+03  6.95985E+03 -9.28739E+02
  5.67070E+03  5.63141E+03  1.37701E+03  1.00286E+04 -6.97646E+03  9.77175E+03 -1.24521E+04  2.17356E+03
 -8.28606E+03 -6.37907E+03  3.75513E+02 -1.06408E+04  6.77781E+03 -5.19839E+03  6.94293E+03  2.20727E+03
  1.33285E+03  7.17879E+03 -6.43458E+03  8.73531E+03 -9.77657E+03  3.92474E+03 -1.01202E+04 -3.56781E+03
 -5.65426E+03 -1.14343E+04  3.05652E+03 -1.31505E+04  1.13421E+04 -8.07690E+03  1.25426E+04  1.78021E+03
  7.89424E+03  9.82174E+03 -1.06633E+03  1.19302E+04 -8.20772E+03  6.91805E+03 -9.74654E+03 -8.97262E+02
 -8.58491E+03 -8.30804E+03 -1.77667E+03 -9.19647E+03  4.62556E+03 -7.55026E+03  5.94542E+03 -3.42260E+03
  4.06081E+03  1.51884E+03 -5.12620E+02  1.77269E+03 -1.97540E+02 -2.03478E+03  1.24891E+03 -4.98268E+03
  7.58641E+03 -3.16825E+03  1.16241E+04  9.60945E+02  1.10224E+04  7.91173E+03  7.88854E+03  1.48305E+04
 -3.35319E+03  1.71666E+04 -1.42927E+04  1.26351E+04 -1.88842E+04  2.53722E+03 -1.50873E+04 -5.98660E+03
 -7.64826E+03 -1.24091E+04 -3.53165E+02 -1.03966E+04  3.84143E+03 -5.71945E+03  3.62808E+03 -3.49222E+03
  2.48972E+03 -2.30863E+03  3.37803E+03 -3.27457E+03  4.68545E+03 -2.62355E+03  6.03879E+03 -4.60085E+02
  8.01087E+03  2.13232E+03  3.81844E+03  6.49951E+03 -1.90476E+03  7.61914E+03 -8.33098E+03  5.82498E+03
 -1.03281E+04 -1.37741E+03 -6.08800E+03 -7.25519E+03 -3.66442E+02 -1.12297E+04  6.16135E+03 -1.12406E+04
  1.14719E+04 -6.29960E+03  1.39237E+04  1.81859E+03  9.40339E+03  9.40998E+03  1.67259E+03  1.24778E+04
 -4.71648E+03  1.03277E+04 -7.26619E+03  3.54364E+03 -5.00050E+03 -1.05401E+03 -2.08634E+03 -1.68921E+03
 -7.08620E+02 -8.04401E+01 -1.55516E+03  2.61940E+03 -4.26785E+03  1.73845E+03 -7.37123E+03 -9.74120E+02
 -4.91115E+03 -7.37986E+03  3.03278E+02 -1.02133E+04  6.19049E+03 -9.29024E+03  9.28778E+03 -2.74717E+03
  9.89956E+03  5.26586E+03  4.33620E+03  8.44386E+03 -1.51223E+03  1.01657E+04 -6.91832E+03  6.00615E+03
 -9.47019E+03  7.33361E+02 -7.27476E+03 -5.74164E+03 -4.60082E+02 -8.18845E+03  4.12635E+03 -5.91092E+03
  6.12916E+03 -2.26296E+03  4.64606E+03  1.90351E+03  1.54659E+03  2.98673E+03  9.57755E+02  1.31037E+03
  1.91677E+03  6.19194E+02  2.25145E+03  1.63300E+03  3.22333E+03  3.80563E+03  2.73898E+03  5.12873E+03
 -2.45493E+03  7.32974E+03 -6.85205E+03  8.02359E+03 -9.59653E+03  2.31803E+03 -1.05459E+04 -3.52447E+03
 -4.66255E+03 -9.28420E+03  1.66343E+03 -1.08927E+04  5.70154E+03 -6.70731E+03  8.13703E+03 -1.88491E+03
  6.22409E+03  3.70405E+03  1.07489E+03  5.75382E+03 -2.57949E+03  3.52380E+03 -4.06220E+03 -8.56841E+02
 -1.76770E+03 -3.79093E+03  2.42407E+03 -4.66795E+03  3.87334E+03 -2.27686E+03  3.44171E+03  6.22352E+02
  2.06564E+03  1.76202E+03  1.39400E+03  1.29057E+03 -8.06496E+02  1.55055E+03  1.81349E+03 -2.62209E+02
  1.41973E+03 -6.53031E+02  4.30748E+03  1.85679E+03  2.02756E+03  5.27526E+03 -8.54062E+02  6.96269E+03
 -4.67351E+03  4.24460E+03 -6.33775E+03  1.28007E+03 -5.49194E+03 -2.07516E+03 -2.02886E+03 -3.35092E+03
  1.03106E+03 -3.35835E+03  2.33912E+03 -1.69530E+03  1.57188E+03  2.19392E+03 -1.09302E+03  3.04225E+03
 -4.07295E+03  2.12006E+03 -4.21210E+03 -2.42068E+03 -2.62437E+03 -5.34125E+03  4.13647E+02 -5.20468E+03
  2.74993E+03 -2.95809E+03  3.67283E+03 -1.94442E+02  2.99893E+03  1.12008E+03  6.21581E+02  2.88731E+03
 -1.66883E+03  8.12153E+02 -2.25077E+03 -1.73369E+03  1.04802E+03 -3.57169E+03  4.80417E+03 -3.16877E+03
  5.43250E+03  5.04112E+02  6.12390E+03  3.82461E+03  2.06923E+03  5.70189E+03 -2.02186E+03  6.23636E+03
 -4.80371E+03  2.32897E+03 -4.97066E+03 -6.77048E+02 -2.48800E+03 -4.08034E+03  9.40498E+02 -3.24890E+03
  3.74741E+03 -1.85792E+03  3.07386E+03  2.22713E+03  9.38429E+02  3.39097E+03 -4.51299E+02  2.61614E+03
 -1.34739E+03  2.42814E+03 -1.02657E+03  3.59797E+02 -6.67052E+02  8.36188E+02 -9.21105E+02  1.03779E+03
 -1.49636E+03  2.47472E+03 -4.54552E+03  2.11709E+03 -6.10098E+03 -1.36218E+02 -6.74474E+03 -3.96973E+03
 -3.21232E+03 -7.74199E+03  1.55818E+03 -9.28958E+03  5.37254E+03 -7.30509E+03  8.69109E+03 -2.75945E+03
  7.92583E+03  1.23063E+03  4.73545E+03  5.80348E+03 -1.75658E+01  5.69830E+03 -2.40696E+03  4.72537E+03
 -3.16417E+03  1.95692E+03 -1.79434E+03 -8.48841E+02 -9.64145E+02 -3.52416E+01 -8.63546E+02 -4.19607E+01
 -1.58906E+03  2.99965E+02 -1.37215E+03 -3.63921E+02 -1.33791E+02 -1.33817E+03 -1.52152E+02 -2.51837E+03
  2.78808E+03 -1.74359E+03  3.31423E+03  2.77218E+02  4.29602E+03  3.16409E+03  5.98625E+02  5.60503E+03
 -3.00619E+03  6.59732E+03 -5.90282E+03  4.13845E+03 -6.99625E+03 -6.66887E+02 -5.16479E+03 -4.49027E+03
 -2.53618E+03 -5.86446E+03  1.34620E+03 -5.16982E+03  3.79406E+03 -3.41870E+03  3.52812E+03 -2.11781E+02
  2.05391E+03  1.80676E+03 -3.00682E+02  1.77258E+03 -1.32033E+03 -3.30859E+02 -3.01148E+01 -1.00934E+03
  1.89775E+03 -4.28512E+02  1.91958E+03  6.55518E+02  1.13182E+03  2.01332E+03 -4.41593E+01  2.38162E+03
 -2.42841E+03  2.69403E+03 -3.33387E+03  3.61725E+02 -3.16725E+03 -2.41832E+03 -6.37361E+02 -4.71377E+03
  2.68534E+03 -3.90464E+03  4.24464E+03 -1.24953E+03  4.40756E+03  7.47080E+02  2.26743E+03  3.07761E+03
  5.69909E+02  3.64765E+03 -1.31724E+03  2.71569E+03 -2.28176E+03  1.55629E+03 -2.13380E+03 -5.46943E+01
 -1.11818E+03  1.75242E+01 -1.23687E+03  6.34586E+02 -2.30152E+03  6.01133E+02 -3.16084E+03 -5.88577E+02
 -2.72039E+03 -1.36648E+03 -7.01135E+02 -3.82570E+03  1.89158E+03 -4.07545E+03  3.22135E+03 -1.83939E+03
  3.75488E+03  3.06607E+02  1.67959E+03  2.71096E+03 -3.33115E+02  3.62462E+03 -2.39383E+03  2.57996E+03
