 $NMID ID='MM_0lb_SNR800_12hz_g45_28.RAW', FMTDAT='(8E13.5)'
 TRAMP=1., VOLUME=1. $END
  3.09872E+05  6.72620E+02  3.37494E+05  2.50729E+05  8.47863E+04  3.38169E+05 -1.32752E+05  2.51003E+05
 -1.90053E+05  8.35762E+04 -1.11962E+05 -3.27257E+04  8.32972E+02 -5.02497E+04  5.38367E+04 -6.10818E+02
  3.51159E+04  5.27201E+04 -1.67493E+04  7.58246E+04 -6.10388E+04  6.39455E+04 -8.45804E+04  3.20167E+04
 -8.11238E+04 -1.15940E+04 -5.73166E+04 -5.15674E+04 -1.49778E+04 -7.00185E+04  2.78187E+04 -4.59526E+04
  4.06615E+04  3.88952E+03  1.62420E+04  4.79747E+04 -3.45032E+04  4.75339E+04 -6.70009E+04 -5.48707E+02
 -5.38666E+04 -5.69323E+04 -6.80516E+03 -7.76157E+04  3.38991E+04 -5.54740E+04  4.79434E+04 -1.75932E+04
  4.40220E+04  1.11135E+04  3.19383E+04  2.58307E+04  1.58946E+04  3.00988E+04 -5.37063E+03  2.73879E+04
 -2.19688E+04  1.20478E+04 -1.83927E+04 -4.74601E+03  5.93308E+03 -7.05722E+03  2.25238E+04  1.27253E+04
  7.50903E+03  3.59259E+04 -3.23543E+04  3.56226E+04 -6.42678E+04  2.25071E+03 -5.78502E+04 -4.31638E+04
 -1.25072E+04 -6.38509E+04  4.03692E+04 -4.58248E+04  5.92298E+04 -2.38561E+03  3.49910E+04  3.27370E+04
 -5.78961E+03  3.69005E+04 -3.06156E+04  1.66360E+04 -3.10140E+04 -4.22830E+03 -1.76681E+04 -1.12740E+04
 -8.49789E+03 -1.37160E+04 -3.97220E+02 -1.83913E+04  7.89756E+03 -2.31209E+04  1.56285E+04 -1.30781E+04
  1.10855E+04  5.41583E+03 -8.46946E+03  1.30961E+04 -2.22798E+04 -4.95699E+03 -8.40377E+03 -3.48887E+04
  2.32383E+04 -4.44458E+04  4.93918E+04 -2.00735E+04  4.54802E+04  2.04231E+04  1.61513E+04  4.50569E+04
 -1.60500E+04  3.41149E+04 -2.61710E+04  1.99306E+03 -1.04020E+04 -2.81306E+04  2.15150E+04 -3.47061E+04
  4.21059E+04 -9.58972E+03  3.68526E+04  2.42557E+04  1.91477E+04  4.79628E+04 -8.35287E+03  5.18367E+04
 -3.23945E+04  3.50320E+04 -4.34776E+04  9.73236E+03 -4.41321E+04 -1.71597E+04 -2.42273E+04 -3.91033E+04
  8.15647E+03 -3.89935E+04  3.23425E+04 -1.55923E+04  3.00980E+04  1.12774E+04  4.48622E+03  1.94638E+04
 -1.37716E+04  8.98626E+03 -1.07067E+04 -7.48855E+03  6.05590E+03 -1.07483E+04  1.79604E+04  5.93325E+03
  1.39741E+04  2.22557E+04 -5.71723E+03  2.54999E+04 -2.28314E+04  1.21927E+04 -2.88061E+04 -4.49477E+03
 -2.21046E+04 -1.76370E+04 -8.93335E+03 -2.16825E+04  4.05809E+03 -2.17933E+04  1.69508E+04 -1.94317E+04
  2.78540E+04 -1.30759E+04  3.38214E+04  3.44956E+03  2.46177E+04  2.11399E+04  4.38483E+03  3.80273E+04
 -1.83299E+04  3.13970E+04 -2.87224E+04  1.09178E+04 -2.14897E+04 -1.01650E+04 -4.55843E+03 -1.34188E+04
  9.85052E+02 -2.33370E+03 -5.67821E+03  7.18838E+03 -1.73458E+04  5.26393E+03 -1.74717E+04 -7.74357E+03
 -1.07351E+04 -2.00640E+04  5.57474E+03 -2.43507E+04  1.64446E+04 -1.73653E+04  1.96904E+04 -1.68913E+03
  1.21446E+04  1.40033E+04 -1.25607E+03  2.02383E+04 -1.40693E+04  1.16544E+04 -2.04459E+04 -4.39917E+03
 -1.47870E+04 -1.83681E+04 -1.63922E+03 -2.42900E+04  1.09441E+04 -2.02405E+04  2.04610E+04 -1.01650E+04
  1.91367E+04  1.42810E+02  1.36191E+04  4.59577E+03  7.44226E+03  1.14125E+03  1.01365E+04 -1.58109E+03
  1.87850E+04  2.62944E+03  2.09831E+04  1.60504E+04  1.43075E+04  3.25588E+04 -2.86896E+03  3.74509E+04
 -2.12840E+04  3.04883E+04 -3.45155E+04  1.50740E+04 -3.68398E+04 -2.78767E+03 -3.02413E+04 -2.13083E+04
 -1.26253E+04 -3.05970E+04  1.05487E+04 -2.69156E+04  2.31293E+04 -1.36474E+04  2.04050E+04  6.14214E+03
  7.46796E+03  1.58250E+04 -9.84843E+03  1.35833E+04 -1.73616E+04  2.64177E+03 -1.32819E+04 -1.09421E+04
 -1.96395E+02 -1.65762E+04  8.74407E+03 -1.24139E+04  1.13482E+04 -1.48920E+03  2.56265E+03  7.11804E+03
 -7.42255E+03  3.04636E+03 -6.82362E+03 -6.01544E+03 -6.02275E+02 -1.52526E+04  1.04672E+04 -1.58044E+04
  1.83014E+04 -8.48468E+03  2.03214E+04  3.17863E+03  1.74710E+04  1.48363E+04  8.09021E+03  2.29704E+04
 -3.94542E+03  2.51490E+04 -1.59499E+04  1.52176E+04 -1.80377E+04  3.51912E+03 -1.28891E+04 -4.16388E+03
 -5.73460E+03 -5.75236E+03 -5.91365E+02  8.14783E+02 -2.62624E+03  2.66420E+03 -5.77711E+03  4.46154E+03
 -1.18683E+04 -6.67906E+02 -1.24524E+04 -1.00191E+04 -4.90681E+03 -1.58373E+04  5.17467E+03 -1.28369E+04
  1.07053E+04 -5.51665E+03  7.78814E+03  3.08140E+03  6.30329E+01  5.08146E+03 -5.74998E+03 -2.83604E+02
 -6.15739E+03 -8.02541E+03 -1.18284E+03 -1.20938E+04  6.77536E+03 -1.28210E+04  1.53290E+04 -6.85738E+03
  1.85614E+04  1.34682E+03  1.38188E+04  1.08462E+04  2.51741E+03  1.45640E+04 -7.55415E+03  1.26207E+04
 -1.01834E+04  3.72329E+03 -5.56744E+03 -2.55273E+03  2.07204E+03 -3.51624E+03  6.79305E+03 -9.45974E+02
  6.14694E+03  5.31872E+03  1.16595E+03  9.78676E+03 -7.06821E+03  9.79733E+03 -1.23913E+04  2.27871E+03
 -8.23669E+03 -6.35746E+03  1.94188E+02 -1.05524E+04  6.99900E+03 -5.24924E+03  6.59061E+03  2.26927E+03
  1.55211E+03  6.80442E+03 -6.71474E+03  8.75577E+03 -9.88597E+03  3.86349E+03 -9.80444E+03 -3.44502E+03
 -5.92355E+03 -1.15793E+04  2.61492E+03 -1.31760E+04  1.14440E+04 -8.16737E+03  1.23483E+04  2.01387E+03
  7.86391E+03  1.00842E+04 -8.17176E+02  1.19596E+04 -8.58006E+03  6.44750E+03 -9.12659E+03 -9.56887E+02
 -8.53754E+03 -8.03424E+03 -1.62314E+03 -8.95214E+03  4.81266E+03 -7.59322E+03  5.94406E+03 -3.26945E+03
  4.17823E+03  1.15612E+03 -6.79301E+02  1.62622E+03 -3.92531E+00 -1.88290E+03  1.72361E+03 -5.25612E+03
  8.05073E+03 -2.89726E+03  1.12970E+04  1.09734E+03  1.10599E+04  7.50487E+03  8.13212E+03  1.48591E+04
 -3.41339E+03  1.70362E+04 -1.45940E+04  1.29784E+04 -1.90717E+04  2.40073E+03 -1.48392E+04 -6.38252E+03
 -7.94946E+03 -1.20284E+04 -4.92450E+02 -1.03899E+04  3.97115E+03 -5.88391E+03  3.69543E+03 -3.95268E+03
  2.90987E+03 -2.51511E+03  3.20275E+03 -3.59790E+03  4.79897E+03 -2.43466E+03  6.14306E+03 -4.17211E+02
  7.73898E+03  2.17017E+03  3.93564E+03  6.90812E+03 -1.95426E+03  7.67980E+03 -8.36192E+03  5.81742E+03
 -1.01048E+04 -1.13357E+03 -6.27627E+03 -7.06924E+03 -4.62989E+02 -1.10235E+04  6.44413E+03 -1.15852E+04
  1.17523E+04 -6.26443E+03  1.33733E+04  1.65005E+03  9.80163E+03  9.16700E+03  1.72018E+03  1.26768E+04
 -4.76091E+03  1.03721E+04 -7.17893E+03  3.27332E+03 -4.71255E+03 -1.42681E+03 -1.57710E+03 -1.14338E+03
 -7.79974E+02  2.78819E+02 -1.48728E+03  2.43814E+03 -4.12772E+03  1.70431E+03 -7.59901E+03 -9.43944E+02
 -4.44661E+03 -7.27093E+03  6.12441E+02 -1.02535E+04  6.28541E+03 -9.41312E+03  9.64597E+03 -2.96089E+03
  9.73094E+03  5.11611E+03  4.81854E+03  8.73250E+03 -1.82057E+03  1.03088E+04 -6.76858E+03  6.30980E+03
 -9.15307E+03  4.99525E+02 -7.60865E+03 -6.11941E+03 -7.75585E+02 -8.16555E+03  4.04290E+03 -5.75732E+03
  6.18004E+03 -2.27531E+03  4.15094E+03  1.76732E+03  1.36039E+03  3.35036E+03  1.14440E+03  1.60471E+03
  2.12363E+03  9.78306E+02  2.37653E+03  1.36465E+03  2.97308E+03  3.91573E+03  2.60338E+03  5.14988E+03
 -2.12245E+03  7.69336E+03 -6.75881E+03  8.23480E+03 -9.35420E+03  2.19824E+03 -1.04352E+04 -3.73215E+03
 -4.81690E+03 -9.70520E+03  1.28469E+03 -1.09025E+04  5.49531E+03 -6.72018E+03  7.77500E+03 -1.66123E+03
  6.02465E+03  3.53419E+03  1.60368E+03  5.53352E+03 -2.83778E+03  3.55097E+03 -3.81768E+03 -3.73482E+02
 -1.66871E+03 -4.29480E+03  2.54730E+03 -4.20194E+03  3.73014E+03 -2.17946E+03  3.68309E+03  8.50683E+02
  2.29518E+03  1.71848E+03  1.12386E+03  1.37564E+03 -8.27620E+02  1.48868E+03  1.37612E+03 -4.58316E+02
  1.07305E+03 -8.28849E+02  4.09223E+03  1.47955E+03  1.80582E+03  5.33189E+03 -1.19332E+03  7.07714E+03
 -4.42426E+03  4.28003E+03 -6.14252E+03  1.40980E+03 -5.58413E+03 -2.18875E+03 -1.89087E+03 -3.71265E+03
  3.59958E+02 -3.41389E+03  2.58884E+03 -1.54354E+03  2.27990E+03  2.16832E+03 -1.40998E+03  3.20086E+03
 -4.00023E+03  1.99864E+03 -4.44112E+03 -2.34027E+03 -2.43751E+03 -5.08098E+03  8.29516E+02 -4.95508E+03
  2.54809E+03 -2.65558E+03  3.51200E+03 -8.78977E+02  3.21582E+03  1.22797E+03  5.97013E+02  2.73156E+03
 -1.86238E+03  9.66486E+02 -2.32720E+03 -1.56971E+03  9.89111E+02 -3.91462E+03  4.67906E+03 -2.97539E+03
  5.27888E+03  4.54810E+02  5.95862E+03  4.05198E+03  1.99485E+03  5.77380E+03 -1.95166E+03  5.71346E+03
 -4.61230E+03  2.09486E+03 -4.74895E+03 -6.91725E+02 -2.69920E+03 -3.95363E+03  1.12146E+03 -3.47349E+03
  3.57384E+03 -2.07016E+03  2.96637E+03  1.91077E+03  1.08562E+03  3.53640E+03 -2.00636E+02  2.95445E+03
 -1.75023E+03  2.09773E+03 -1.49909E+03  7.58053E+02 -2.46683E+02  7.07651E+02 -1.26081E+03  1.26943E+03
 -1.47796E+03  2.01004E+03 -4.72915E+03  1.94395E+03 -5.88188E+03  3.59551E+02 -6.54754E+03 -3.88203E+03
 -3.46290E+03 -7.73699E+03  1.54115E+03 -9.06971E+03  5.29361E+03 -7.46670E+03  8.89208E+03 -2.83287E+03
  7.84326E+03  1.50812E+03  4.52200E+03  5.18235E+03 -1.24839E+01  6.08033E+03 -2.58699E+03  4.53959E+03
 -3.24693E+03  1.61429E+03 -2.16662E+03 -4.65415E+02 -6.24885E+02 -2.82651E+02 -5.41746E+02 -1.33354E+02
 -1.29522E+03 -1.61240E+02 -1.42735E+03 -3.15862E+01 -1.50297E+02 -1.51364E+03 -4.20604E+02 -2.35937E+03
  2.75223E+03 -2.00203E+03  3.37338E+03  3.22134E+02  4.06833E+03  3.28196E+03  7.73035E+02  5.83471E+03
 -2.92166E+03  6.45503E+03 -6.06943E+03  3.90557E+03 -7.07022E+03 -8.03044E+02 -5.01301E+03 -4.41690E+03
 -2.50113E+03 -5.78002E+03  1.55687E+03 -5.15264E+03  3.57603E+03 -2.73825E+03  3.56839E+03  2.73355E+02
  2.00896E+03  1.68491E+03 -1.67591E+02  1.58251E+03 -9.52735E+02  5.56005E+01 -1.58042E+02 -1.19764E+03
  1.68347E+03 -7.39679E+02  2.08815E+03  9.23135E+02  1.23296E+03  2.10064E+03  9.61476E+01  2.27463E+03
 -2.38265E+03  2.39703E+03 -3.66138E+03  2.57029E+02 -3.34434E+03 -2.64441E+03 -1.46120E+02 -4.35474E+03
  2.17354E+03 -3.90538E+03  4.16957E+03 -9.78609E+02  3.96018E+03  3.37240E+02  2.42474E+03  3.22356E+03
  8.86950E+02  3.37562E+03 -1.54718E+03  2.85869E+03 -2.58150E+03  1.72401E+03 -1.76505E+03  1.24076E+02
 -1.19382E+03 -1.90702E+02 -1.38197E+03  6.01182E+02 -2.04389E+03  8.75212E+02 -3.07809E+03 -9.33738E+02
 -2.85799E+03 -1.80136E+03 -9.34037E+02 -3.87673E+03  1.74270E+03 -4.41821E+03  3.59459E+03 -1.54172E+03
  3.73549E+03  5.80685E+02  1.29882E+03  2.36079E+03 -1.53852E+02  3.41708E+03 -2.42181E+03  2.43891E+03
