 $NMID ID='MM_0lb_SNR800_15hz_g40_7.RAW', FMTDAT='(8E13.5)'
 TRAMP=1., VOLUME=1. $END
  3.09721E+05  4.42163E+02  3.37477E+05  2.50690E+05  8.46010E+04  3.37802E+05 -1.32543E+05  2.50462E+05
 -1.89980E+05  8.26305E+04 -1.11263E+05 -3.28353E+04  1.21666E+03 -5.02832E+04  5.39313E+04  1.54111E+02
  3.53206E+04  5.26838E+04 -1.70219E+04  7.52983E+04 -6.05637E+04  6.31985E+04 -8.35790E+04  3.17859E+04
 -8.04109E+04 -1.10855E+04 -5.68540E+04 -5.05616E+04 -1.50033E+04 -6.90567E+04  2.68543E+04 -4.51771E+04
  3.94616E+04  3.77781E+03  1.60609E+04  4.76274E+04 -3.39486E+04  4.65665E+04 -6.60496E+04 -4.36932E+02
 -5.28750E+04 -5.65275E+04 -6.68437E+03 -7.61915E+04  3.33623E+04 -5.39952E+04  4.69237E+04 -1.70286E+04
  4.25958E+04  1.10535E+04  3.11926E+04  2.50537E+04  1.59656E+04  2.88380E+04 -4.66972E+03  2.69436E+04
 -2.18724E+04  1.24748E+04 -1.87432E+04 -4.57475E+03  4.91077E+03 -7.44294E+03  2.16871E+04  1.15160E+04
  7.35444E+03  3.46560E+04 -3.14146E+04  3.47933E+04 -6.22956E+04  2.13671E+03 -5.62061E+04 -4.22616E+04
 -1.21292E+04 -6.20286E+04  3.90742E+04 -4.43023E+04  5.67119E+04 -2.22506E+03  3.31677E+04  3.11971E+04
 -6.15505E+03  3.44732E+04 -2.91902E+04  1.46285E+04 -2.91419E+04 -4.64335E+03 -1.57745E+04 -1.04417E+04
 -8.14785E+03 -1.20381E+04 -8.95188E+02 -1.72311E+04  6.87020E+03 -2.29343E+04  1.50845E+04 -1.36389E+04
  1.18514E+04  4.79604E+03 -7.23056E+03  1.30363E+04 -2.04145E+04 -3.50642E+03 -8.01438E+03 -3.23676E+04
  2.22386E+04 -4.19168E+04  4.64767E+04 -1.90771E+04  4.34122E+04  1.89318E+04  1.51931E+04  4.29245E+04
 -1.54195E+04  3.24040E+04 -2.45807E+04  1.41280E+03 -9.10494E+03 -2.70280E+04  2.08189E+04 -3.26958E+04
  3.93996E+04 -8.18073E+03  3.35922E+04  2.32301E+04  1.71675E+04  4.49022E+04 -7.78201E+03  4.78435E+04
 -3.03256E+04  3.21815E+04 -3.97010E+04  8.90074E+03 -4.04532E+04 -1.59790E+04 -2.24983E+04 -3.62468E+04
  7.00733E+03 -3.62438E+04  3.02893E+04 -1.39234E+04  2.81767E+04  1.08373E+04  3.42952E+03  1.85364E+04
 -1.30866E+04  7.87638E+03 -9.96104E+03 -7.65484E+03  6.07164E+03 -1.02689E+04  1.76783E+04  6.20729E+03
  1.28994E+04  2.18376E+04 -6.08929E+03  2.42251E+04 -2.22919E+04  1.02485E+04 -2.68565E+04 -5.72559E+03
 -1.84833E+04 -1.69638E+04 -7.12731E+03 -1.86443E+04  4.05674E+03 -1.74396E+04  1.41088E+04 -1.63756E+04
  2.38865E+04 -1.25762E+04  3.05332E+04  2.01077E+03  2.26466E+04  1.83317E+04  4.40897E+03  3.45982E+04
 -1.69666E+04  2.90043E+04 -2.70980E+04  1.03293E+04 -2.00911E+04 -9.97720E+03 -4.32188E+03 -1.37504E+04
  2.22060E+03 -3.44573E+03 -4.08799E+03  6.29481E+03 -1.50370E+04  4.92425E+03 -1.46715E+04 -5.78695E+03
 -9.82851E+03 -1.74737E+04  4.82185E+03 -2.13359E+04  1.42368E+04 -1.52387E+04  1.63508E+04 -1.90844E+03
  1.04825E+04  1.21240E+04 -9.85809E+02  1.77503E+04 -1.18839E+04  9.76681E+03 -1.75929E+04 -3.69776E+03
 -1.27858E+04 -1.59113E+04 -1.71472E+03 -2.14315E+04  9.81436E+03 -1.72463E+04  1.76965E+04 -8.32309E+03
  1.63408E+04  6.96126E+02  1.18472E+04  3.92246E+03  6.13109E+03  7.37905E+02  8.67574E+03 -9.95816E+02
  1.56695E+04  2.76820E+03  1.72641E+04  1.41515E+04  1.12960E+04  2.77359E+04 -2.87308E+03  3.07209E+04
 -1.83316E+04  2.43029E+04 -2.87527E+04  1.18920E+04 -2.95402E+04 -2.09901E+03 -2.49337E+04 -1.69113E+04
 -1.11579E+04 -2.46086E+04  8.19574E+03 -2.23942E+04  1.95651E+04 -1.19097E+04  1.74162E+04  4.58341E+03
  7.24551E+03  1.29875E+04 -8.31062E+03  1.16595E+04 -1.51670E+04  2.84620E+03 -1.14550E+04 -9.01973E+03
 -1.78569E+02 -1.42065E+04  7.05332E+03 -1.06525E+04  9.18761E+03 -1.54097E+03  1.79518E+03  5.51401E+03
 -6.47828E+03  1.97155E+03 -5.13919E+03 -5.09335E+03 -2.63300E+01 -1.20436E+04  8.86034E+03 -1.25716E+04
  1.47518E+04 -6.48868E+03  1.56866E+04  2.89334E+03  1.32184E+04  1.17371E+04  6.39828E+03  1.75984E+04
 -2.63593E+03  1.96256E+04 -1.23107E+04  1.22711E+04 -1.41291E+04  2.94689E+03 -1.02487E+04 -2.82959E+03
 -4.98850E+03 -4.04351E+03 -7.34594E+02  1.20810E+03 -2.02344E+03  2.31956E+03 -4.45131E+03  3.70396E+03
 -9.42309E+03 -6.25701E+02 -1.01248E+04 -8.37721E+03 -4.22639E+03 -1.33857E+04  4.30907E+03 -1.00214E+04
  8.42435E+03 -4.09040E+03  6.32071E+03  2.52798E+03  4.81729E+02  3.48711E+03 -4.28402E+03  5.44376E+01
 -4.26586E+03 -6.45407E+03 -7.29791E+02 -9.30301E+03  4.89426E+03 -1.00190E+04  1.22383E+04 -5.10629E+03
  1.46069E+04  1.02668E+03  1.06579E+04  8.23419E+03  1.91758E+03  1.06185E+04 -6.16371E+03  1.01007E+04
 -8.41720E+03  3.23041E+03 -4.12260E+03 -1.86052E+03  1.45700E+03 -2.65577E+03  5.57983E+03 -1.12330E+03
  5.24707E+03  4.21971E+03  1.04265E+03  8.07200E+03 -5.36395E+03  7.87703E+03 -9.74300E+03  2.03166E+03
 -6.43364E+03 -4.53521E+03  2.95375E+02 -8.19250E+03  4.76014E+03 -4.24789E+03  5.07373E+03  1.71915E+03
  9.12562E+02  4.89545E+03 -4.98804E+03  6.41627E+03 -7.14964E+03  3.38702E+03 -6.82598E+03 -1.75923E+03
 -3.94202E+03 -8.21774E+03  1.95208E+03 -9.47701E+03  8.40662E+03 -5.99218E+03  9.10415E+03  1.29281E+03
  5.78545E+03  6.98845E+03 -4.48545E+02  9.04181E+03 -6.42802E+03  5.26469E+03 -7.10585E+03 -7.12843E+02
 -7.11601E+03 -6.71145E+03 -1.23024E+03 -6.80808E+03  3.30614E+03 -5.58668E+03  3.48066E+03 -2.70756E+03
  3.36966E+03  7.36072E+02 -7.89231E+01  1.27800E+03  4.93362E+02 -1.22141E+03  9.57716E+02 -3.10735E+03
  5.81961E+03 -1.41324E+03  7.87365E+03  1.24536E+03  7.90031E+03  4.81547E+03  6.55260E+03  1.06055E+04
 -2.43416E+03  1.21527E+04 -1.02942E+04  9.40528E+03 -1.35860E+04  1.77759E+03 -1.05279E+04 -4.18785E+03
 -5.62638E+03 -8.88693E+03 -7.42006E+02 -7.22966E+03  2.64847E+03 -3.52547E+03  2.46539E+03 -2.77041E+03
  1.89871E+03 -2.04802E+03  3.02845E+03 -2.66455E+03  4.13536E+03 -1.86253E+03  4.56510E+03 -1.67944E+02
  5.84369E+03  1.34594E+03  2.29182E+03  4.77398E+03 -1.70844E+03  4.62651E+03 -5.74580E+03  3.77578E+03
 -7.28348E+03 -1.19592E+03 -3.57808E+03 -4.56330E+03  5.92652E+01 -7.53221E+03  4.42309E+03 -7.65335E+03
  7.69568E+03 -4.48996E+03  9.52353E+03  1.14161E+03  6.74274E+03  6.51247E+03  1.09747E+03  8.55183E+03
 -3.27915E+03  7.82412E+03 -5.14594E+03  2.65642E+03 -3.02276E+03 -1.31065E+03 -1.23343E+03 -9.57432E+02
 -6.95143E+02  3.75419E+02 -1.27513E+03  2.12917E+03 -3.25306E+03  1.47092E+03 -5.57447E+03 -4.68771E+02
 -2.95223E+03 -5.06700E+03  5.96338E+02 -6.75302E+03  4.10869E+03 -6.27783E+03  5.86836E+03 -1.90466E+03
  6.47870E+03  3.73742E+03  2.82777E+03  5.40255E+03 -9.95657E+02  6.45756E+03 -4.60339E+03  4.50780E+03
 -5.90251E+03  3.76888E+02 -4.93082E+03 -4.21007E+03 -4.34424E+02 -5.45144E+03  2.36815E+03 -4.11741E+03
  4.21426E+03 -1.92274E+03  2.86713E+03  7.48360E+02  8.07872E+02  2.32755E+03  8.07026E+02  9.52166E+02
  1.87633E+03  7.52101E+02  1.95553E+03  1.23592E+03  1.80522E+03  2.79530E+03  1.95104E+03  3.10032E+03
 -1.78039E+03  4.81457E+03 -4.25434E+03  5.59772E+03 -5.50470E+03  1.61946E+03 -6.73558E+03 -1.50784E+03
 -3.15266E+03 -5.89801E+03  9.31839E+02 -7.41972E+03  3.33577E+03 -4.14097E+03  5.20539E+03 -1.18951E+03
  4.11481E+03  2.59752E+03  7.15259E+02  3.73007E+03 -1.50980E+03  1.98501E+03 -2.04051E+03 -3.55623E+02
 -1.14612E+03 -2.74765E+03  1.86130E+03 -2.65497E+03  2.53878E+03 -1.44575E+03  2.21925E+03  7.07502E+02
  1.14216E+03  8.59671E+02  7.50900E+02  1.72647E+02 -6.83375E+02  1.14116E+03  1.36957E+03 -1.78961E+02
  5.82006E+02 -4.86162E+02  2.67077E+03  8.88884E+02  1.04575E+03  3.46052E+03 -6.90828E+02  4.24131E+03
 -2.95223E+03  2.05973E+03 -3.77113E+03  7.06756E+02 -3.68391E+03 -1.41446E+03 -4.47774E+02 -2.34000E+03
  4.49544E+02 -2.29943E+03  1.76857E+03 -1.07927E+03  1.11168E+03  1.71672E+03 -7.84669E+02  2.05160E+03
 -2.35773E+03  1.10171E+03 -2.42810E+03 -2.05927E+03 -1.55672E+03 -3.57490E+03  4.68618E+02 -2.97736E+03
  1.48406E+03 -1.57436E+03  1.71328E+03 -3.08060E+02  2.26533E+03  1.27249E+02  5.50545E+02  2.02466E+03
 -7.63868E+02  3.20024E+02 -1.81682E+03 -5.91782E+02  8.19412E+02 -1.97305E+03  3.08535E+03 -1.80336E+03
  2.68458E+03  4.56607E+02  4.37608E+03  1.87975E+03  1.39177E+03  3.23429E+03 -8.68843E+02  3.22188E+03
 -2.88111E+03  8.93227E+02 -3.00631E+03 -5.64683E+02 -1.61629E+03 -2.19186E+03  5.70787E+02 -1.76096E+03
  2.21705E+03 -1.22771E+03  1.78944E+03  4.70170E+02  5.79944E+02  1.99891E+03  2.02902E+02  2.05248E+03
 -9.35507E+02  1.49045E+03 -5.02006E+02  3.66199E+02 -1.60418E+02  5.26043E+02 -9.90052E+02  9.65554E+02
 -1.06258E+03  1.78861E+03 -2.67972E+03  8.91432E+02 -3.21200E+03  2.67502E+02 -4.13717E+03 -2.35992E+03
 -1.86868E+03 -4.37120E+03  9.82217E+02 -5.29380E+03  2.71217E+03 -4.54654E+03  4.99148E+03 -1.67039E+03
  4.51700E+03  4.06823E+02  2.12039E+03  3.09009E+03 -3.71405E+02  3.20171E+03 -1.14205E+03  2.65659E+03
 -1.85276E+03  1.03935E+03 -1.05508E+03 -1.92452E+02 -6.05438E+02  1.72709E+02 -7.34259E+02 -1.05270E+02
 -1.17693E+03 -1.01550E+02 -9.89237E+02  3.08819E+01 -1.09646E+02 -1.10954E+03 -6.52270E+02 -1.66795E+03
  2.02402E+03 -1.16769E+03  1.60389E+03  3.27227E+02  2.50669E+03  2.04821E+03  1.71966E+02  2.98949E+03
 -1.84267E+03  4.07387E+03 -3.48483E+03  2.07744E+03 -3.49492E+03 -4.76823E+02 -2.99719E+03 -2.45521E+03
 -1.27090E+03 -3.22678E+03  6.56326E+02 -2.77913E+03  1.66806E+03 -1.38650E+03  1.95292E+03  4.08905E+02
  9.64328E+02  9.52907E+02 -2.15996E+01  9.38352E+02 -2.75692E+02  1.20602E+02 -2.38389E+01 -5.81194E+02
  8.99225E+02 -4.03872E+02  8.06081E+02  5.28702E+02  5.83198E+02  1.13991E+03  4.62058E+02  1.26937E+03
 -1.12536E+03  1.25713E+03 -1.67730E+03  2.27928E+02 -1.58359E+03 -1.21739E+03 -4.84731E+00 -2.45106E+03
  8.19368E+02 -1.77266E+03  1.66561E+03 -5.18937E+02  2.04228E+03 -2.49858E+02  1.15920E+03  1.72611E+03
  4.43102E+02  1.52575E+03 -3.89648E+02  1.56654E+03 -1.19761E+03  1.15219E+03 -6.61035E+02  4.62329E+02
 -5.33177E+02 -1.53185E+02 -8.56954E+02  3.41193E+02 -1.23656E+03  1.21638E+02 -1.76102E+03 -5.67739E+02
 -2.03912E+03 -5.33115E+02 -6.65959E+02 -1.97289E+03  1.15361E+03 -2.67160E+03  1.45617E+03 -1.32448E+03
  1.64464E+03  4.29609E+02  3.35584E+02  1.14179E+03 -1.55270E+02  1.95573E+03 -1.36487E+03  1.34775E+03
