 $NMID ID='MM_0lb_SNR800_13hz_g55_96.RAW', FMTDAT='(8E13.5)'
 TRAMP=1., VOLUME=1. $END
  3.09947E+05  4.77348E+02  3.37786E+05  2.50820E+05  8.46858E+04  3.38283E+05 -1.32654E+05  2.51508E+05
 -1.90541E+05  8.32510E+04 -1.12045E+05 -3.25250E+04  7.69726E+02 -5.04832E+04  5.34421E+04 -4.79149E+01
  3.55288E+04  5.27728E+04 -1.66494E+04  7.57287E+04 -6.08523E+04  6.39304E+04 -8.44990E+04  3.20393E+04
 -8.16726E+04 -1.16805E+04 -5.75073E+04 -5.18121E+04 -1.49714E+04 -7.03887E+04  2.77350E+04 -4.63174E+04
  4.03691E+04  3.55335E+03  1.65364E+04  4.82275E+04 -3.39919E+04  4.75738E+04 -6.71897E+04 -4.21824E+02
 -5.37307E+04 -5.72276E+04 -6.71181E+03 -7.78689E+04  3.44995E+04 -5.58600E+04  4.84777E+04 -1.74968E+04
  4.43251E+04  1.13840E+04  3.23134E+04  2.58885E+04  1.59311E+04  2.98101E+04 -5.58283E+03  2.75814E+04
 -2.22672E+04  1.24518E+04 -1.84686E+04 -5.25699E+03  6.15211E+03 -7.38850E+03  2.29783E+04  1.30289E+04
  7.27396E+03  3.63632E+04 -3.26484E+04  3.59997E+04 -6.45753E+04  2.17603E+03 -5.75619E+04 -4.32472E+04
 -1.24654E+04 -6.40564E+04  4.02836E+04 -4.58605E+04  5.96549E+04 -2.48349E+03  3.55320E+04  3.33574E+04
 -5.96312E+03  3.72549E+04 -3.06780E+04  1.67936E+04 -3.13584E+04 -3.92048E+03 -1.77208E+04 -1.14637E+04
 -8.62439E+03 -1.40432E+04 -7.82224E+02 -1.89639E+04  8.01037E+03 -2.29390E+04  1.52693E+04 -1.31559E+04
  1.10963E+04  5.87845E+03 -9.28809E+03  1.30335E+04 -2.20964E+04 -5.34400E+03 -8.47279E+03 -3.53585E+04
  2.41480E+04 -4.49896E+04  4.96448E+04 -2.04599E+04  4.61941E+04  1.97485E+04  1.65172E+04  4.52355E+04
 -1.62536E+04  3.41497E+04 -2.59875E+04  2.02864E+03 -1.05582E+04 -2.85181E+04  2.12338E+04 -3.50150E+04
  4.22012E+04 -9.98910E+03  3.73635E+04  2.43442E+04  1.94817E+04  4.79237E+04 -7.97904E+03  5.23449E+04
 -3.30991E+04  3.53859E+04 -4.39675E+04  1.03370E+04 -4.45462E+04 -1.69454E+04 -2.45054E+04 -3.93687E+04
  7.81201E+03 -3.90329E+04  3.23872E+04 -1.56063E+04  3.02770E+04  1.08359E+04  4.51387E+03  1.99352E+04
 -1.31304E+04  8.77000E+03 -1.05993E+04 -7.41126E+03  5.81347E+03 -1.12140E+04  1.85593E+04  5.78883E+03
  1.40781E+04  2.22731E+04 -5.86858E+03  2.59353E+04 -2.26633E+04  1.24516E+04 -2.92697E+04 -4.34574E+03
 -2.24126E+04 -1.80689E+04 -9.38948E+03 -2.21368E+04  4.12913E+03 -2.16661E+04  1.70215E+04 -2.00874E+04
  2.79279E+04 -1.31834E+04  3.45072E+04  3.35509E+03  2.49777E+04  2.15832E+04  4.06254E+03  3.79455E+04
 -1.83773E+04  3.13458E+04 -2.87388E+04  1.09939E+04 -2.14231E+04 -1.03386E+04 -4.65665E+03 -1.33425E+04
  1.59797E+03 -2.27019E+03 -6.03284E+03  7.14273E+03 -1.75884E+04  4.99714E+03 -1.76826E+04 -7.77372E+03
 -1.09542E+04 -2.08327E+04  5.37946E+03 -2.45735E+04  1.63033E+04 -1.76823E+04  1.97924E+04 -1.45038E+03
  1.23979E+04  1.40320E+04 -1.11885E+03  2.00708E+04 -1.42145E+04  1.16292E+04 -2.07391E+04 -4.43964E+03
 -1.48541E+04 -1.85185E+04 -1.92552E+03 -2.47078E+04  1.10711E+04 -2.02166E+04  2.07648E+04 -1.01692E+04
  1.90825E+04  2.98084E+02  1.36781E+04  4.56022E+03  7.68093E+03  1.10573E+03  1.06463E+04 -1.96047E+03
  1.90131E+04  2.87062E+03  2.09625E+04  1.58067E+04  1.42467E+04  3.28032E+04 -2.53273E+03  3.71079E+04
 -2.13936E+04  3.04450E+04 -3.48420E+04  1.53507E+04 -3.69972E+04 -2.79608E+03 -3.06393E+04 -2.12160E+04
 -1.26695E+04 -3.03907E+04  1.06585E+04 -2.76101E+04  2.35059E+04 -1.37792E+04  2.08126E+04  6.02717E+03
  7.41615E+03  1.55695E+04 -9.79784E+03  1.32367E+04 -1.73634E+04  2.71910E+03 -1.33015E+04 -1.09446E+04
 -4.39522E+02 -1.65157E+04  8.44873E+03 -1.22905E+04  1.07950E+04 -1.50868E+03  2.62304E+03  7.34044E+03
 -7.63531E+03  3.06742E+03 -6.76741E+03 -5.49654E+03 -8.75561E+02 -1.49518E+04  1.00597E+04 -1.60388E+04
  1.84753E+04 -8.94760E+03  2.00670E+04  3.33485E+03  1.75542E+04  1.48380E+04  8.47705E+03  2.28226E+04
 -4.01668E+03  2.48097E+04 -1.58783E+04  1.55718E+04 -1.78197E+04  3.22414E+03 -1.24503E+04 -4.36831E+03
 -5.79713E+03 -5.49405E+03 -7.73743E+02  5.04372E+02 -2.43581E+03  3.12091E+03 -5.35041E+03  4.56464E+03
 -1.14128E+04 -6.40910E+02 -1.23173E+04 -9.82256E+03 -4.75636E+03 -1.58060E+04  5.43968E+03 -1.26385E+04
  1.04577E+04 -5.36464E+03  7.44884E+03  3.60073E+03  3.25634E+02  4.81936E+03 -6.02994E+03 -1.34255E+02
 -5.60607E+03 -7.92585E+03 -8.77379E+02 -1.19038E+04  6.93044E+03 -1.24298E+04  1.55643E+04 -6.93474E+03
  1.82102E+04  1.72100E+03  1.32899E+04  1.07622E+04  2.49868E+03  1.44872E+04 -7.51028E+03  1.22756E+04
 -1.00545E+04  3.83995E+03 -5.23516E+03 -2.56403E+03  1.77531E+03 -3.74718E+03  6.83305E+03 -1.13756E+03
  5.84669E+03  5.42794E+03  1.01997E+03  1.00751E+04 -7.02811E+03  9.41990E+03 -1.22499E+04  2.17323E+03
 -8.40243E+03 -6.06670E+03 -1.60431E+02 -1.03405E+04  6.57230E+03 -5.19260E+03  6.69155E+03  2.47946E+03
  1.45990E+03  7.00323E+03 -6.32022E+03  8.39513E+03 -1.00079E+04  4.05132E+03 -9.79558E+03 -3.16782E+03
 -5.60412E+03 -1.13658E+04  2.64299E+03 -1.30620E+04  1.08507E+04 -7.90438E+03  1.18660E+04  2.00717E+03
  7.34736E+03  1.00249E+04 -9.07552E+02  1.20927E+04 -8.43507E+03  6.87502E+03 -9.49594E+03 -1.24505E+03
 -8.45915E+03 -7.82655E+03 -1.31878E+03 -9.09408E+03  4.46955E+03 -7.30370E+03  5.71805E+03 -3.24289E+03
  4.43013E+03  1.36554E+03 -5.34364E+02  1.53619E+03  1.82724E+02 -1.93435E+03  1.63550E+03 -4.89199E+03
  8.03156E+03 -2.96276E+03  1.10758E+04  1.28324E+03  1.08728E+04  7.39638E+03  7.59111E+03  1.46587E+04
 -3.08202E+03  1.67741E+04 -1.38015E+04  1.21424E+04 -1.79995E+04  2.50512E+03 -1.44905E+04 -6.03102E+03
 -7.28162E+03 -1.19598E+04 -2.00427E+02 -1.00295E+04  3.51731E+03 -5.55000E+03  3.34747E+03 -3.93930E+03
  2.74102E+03 -2.40562E+03  2.91698E+03 -3.13178E+03  4.79960E+03 -2.56593E+03  5.94800E+03 -1.15910E+03
  7.67200E+03  1.50667E+03  3.48799E+03  6.71328E+03 -2.02962E+03  7.48785E+03 -7.87118E+03  5.68484E+03
 -1.00263E+04 -1.60841E+03 -5.70275E+03 -7.06803E+03 -3.39919E+02 -1.06886E+04  6.02480E+03 -1.07359E+04
  1.10368E+04 -5.74249E+03  1.32390E+04  1.50774E+03  9.00581E+03  9.15886E+03  1.47182E+03  1.17424E+04
 -4.89192E+03  1.02932E+04 -6.94801E+03  3.35430E+03 -4.70304E+03 -1.19140E+03 -1.46495E+03 -1.54646E+03
 -8.02265E+02 -8.51465E+01 -1.73312E+03  2.77537E+03 -4.33678E+03  1.82001E+03 -7.18173E+03 -8.93727E+02
 -4.75159E+03 -7.06892E+03  8.51687E+01 -9.69046E+03  5.85063E+03 -9.09999E+03  9.25621E+03 -2.72674E+03
  9.02196E+03  4.80144E+03  4.14694E+03  8.19248E+03 -2.11089E+03  9.51455E+03 -6.42717E+03  5.72516E+03
 -8.83973E+03  4.41041E+02 -6.93022E+03 -5.57075E+03 -6.58736E+02 -7.50115E+03  4.09963E+03 -5.63954E+03
  6.29515E+03 -2.01192E+03  3.89195E+03  1.40215E+03  1.35992E+03  2.71923E+03  9.85395E+02  1.62439E+03
  2.09097E+03  7.93394E+02  2.36744E+03  1.53058E+03  2.54618E+03  3.45195E+03  2.92720E+03  4.76423E+03
 -2.19259E+03  7.22201E+03 -6.24440E+03  7.60561E+03 -9.05687E+03  2.17045E+03 -9.55672E+03 -3.29155E+03
 -4.35402E+03 -9.18139E+03  1.55378E+03 -1.05188E+04  5.39059E+03 -6.28206E+03  7.78222E+03 -1.71920E+03
  5.97024E+03  3.62405E+03  1.34350E+03  5.70330E+03 -2.19604E+03  3.46452E+03 -3.78663E+03 -3.42344E+02
 -1.53069E+03 -4.01517E+03  2.48258E+03 -4.16443E+03  3.70732E+03 -1.67720E+03  3.56994E+03  8.24688E+02
  2.14296E+03  1.57635E+03  7.57340E+02  1.10278E+03 -3.62205E+02  1.26093E+03  1.49047E+03 -2.01047E+02
  9.08345E+02 -1.49898E+02  3.85050E+03  1.26390E+03  1.80486E+03  5.10508E+03 -8.53860E+02  6.36254E+03
 -4.15935E+03  3.66929E+03 -5.20456E+03  8.25549E+02 -5.04446E+03 -2.06046E+03 -1.80829E+03 -3.60817E+03
  8.90687E+02 -3.26603E+03  2.18313E+03 -1.55925E+03  2.12620E+03  2.01065E+03 -9.38159E+02  3.13890E+03
 -3.65853E+03  1.94868E+03 -3.92294E+03 -2.71117E+03 -1.93686E+03 -5.04860E+03  7.90758E+02 -4.69571E+03
  2.51170E+03 -2.62794E+03  3.30563E+03 -1.74067E+02  2.97816E+03  7.41901E+02  4.13755E+02  2.36022E+03
 -1.57133E+03  5.72211E+02 -2.18009E+03 -1.51723E+03  1.17680E+03 -3.50049E+03  4.29082E+03 -2.95560E+03
  5.20506E+03  5.36245E+02  5.56771E+03  3.08991E+03  1.86573E+03  5.43105E+03 -1.67581E+03  5.06752E+03
 -4.57872E+03  1.80841E+03 -4.41917E+03 -7.95279E+02 -2.62697E+03 -3.33094E+03  8.10036E+02 -2.94046E+03
  3.58716E+03 -1.46169E+03  2.87156E+03  1.51777E+03  8.24827E+02  3.13335E+03 -3.84807E+02  2.83017E+03
 -1.40829E+03  2.09477E+03 -1.14338E+03  2.88440E+02 -2.61716E+02  8.97916E+02 -8.58476E+02  1.49728E+03
 -1.27993E+03  2.21653E+03 -4.03984E+03  1.64683E+03 -5.19998E+03 -2.42768E+02 -5.73054E+03 -3.27715E+03
 -2.95020E+03 -6.81544E+03  1.37655E+03 -7.71508E+03  4.48530E+03 -6.30821E+03  7.41626E+03 -2.47338E+03
  7.15771E+03  1.30453E+03  3.98125E+03  4.73252E+03 -1.25946E+02  5.22354E+03 -2.17294E+03  3.91763E+03
 -2.82604E+03  1.57066E+03 -1.87897E+03 -7.08922E+02 -5.10181E+02  8.72396E+01 -5.18458E+02 -5.05225E+01
 -1.39484E+03 -1.23288E+02 -1.26852E+03 -3.18897E+02 -1.14328E+02 -1.51592E+03  3.31709E+02 -2.38773E+03
  2.43380E+03 -1.63272E+03  3.09233E+03 -3.04093E-01  3.34167E+03  2.70397E+03  5.25349E+02  4.92979E+03
 -2.48410E+03  5.68229E+03 -5.15583E+03  3.19421E+03 -6.03330E+03 -5.47318E+02 -4.34690E+03 -3.76631E+03
 -2.18907E+03 -4.65548E+03  1.07690E+03 -4.63562E+03  2.90197E+03 -2.44043E+03  2.65244E+03  2.02119E+02
  1.73657E+03  1.58474E+03 -1.81626E+02  1.44768E+03 -9.00147E+02 -1.47535E+02  1.64352E+02 -1.48384E+03
  1.65020E+03 -4.54610E+02  1.86877E+03  7.76487E+02  8.41019E+02  1.79218E+03  4.40474E+02  2.15002E+03
 -2.06578E+03  2.48877E+03 -2.92277E+03  3.68575E+02 -2.76024E+03 -2.31169E+03 -3.76466E+02 -4.12173E+03
  2.11306E+03 -3.28703E+03  3.20155E+03 -7.09773E+02  3.33944E+03  3.01907E+02  1.97537E+03  2.91317E+03
  9.65571E+02  2.58410E+03 -1.30855E+03  2.64679E+03 -2.14335E+03  1.49719E+03 -1.72745E+03  1.89342E+02
 -8.94125E+02 -2.16426E+02 -8.77799E+02  2.46500E+02 -1.51825E+03  5.88346E+02 -2.41366E+03 -4.47732E+02
 -2.27414E+03 -1.08985E+03 -6.22015E+02 -3.25891E+03  1.74360E+03 -3.37804E+03  2.80807E+03 -1.29141E+03
  3.19438E+03  7.34738E+02  9.96805E+02  2.23671E+03 -1.29706E+02  2.93778E+03 -2.11330E+03  2.05908E+03
