 $NMID ID='MM_0lb_SNR800_16hz_g55_39.RAW', FMTDAT='(8E13.5)'
 TRAMP=1., VOLUME=1. $END
  3.09763E+05  4.95534E+02  3.37527E+05  2.50657E+05  8.45384E+04  3.37900E+05 -1.32616E+05  2.51075E+05
 -1.90275E+05  8.31980E+04 -1.11995E+05 -3.26199E+04  7.75597E+02 -5.04852E+04  5.38167E+04 -1.36941E+02
  3.51731E+04  5.28653E+04 -1.69643E+04  7.57594E+04 -6.07828E+04  6.33901E+04 -8.39486E+04  3.19238E+04
 -8.09322E+04 -1.14749E+04 -5.68589E+04 -5.09986E+04 -1.48880E+04 -6.96522E+04  2.74006E+04 -4.57125E+04
  4.01270E+04  3.81881E+03  1.58813E+04  4.75243E+04 -3.43943E+04  4.69408E+04 -6.62375E+04 -3.21597E+02
 -5.30721E+04 -5.65896E+04 -6.78401E+03 -7.63711E+04  3.39741E+04 -5.46559E+04  4.73196E+04 -1.71881E+04
  4.31899E+04  1.13152E+04  3.17892E+04  2.52805E+04  1.60090E+04  2.93419E+04 -5.14906E+03  2.71554E+04
 -2.20533E+04  1.23284E+04 -1.86034E+04 -5.03250E+03  5.25245E+03 -7.66588E+03  2.23931E+04  1.21735E+04
  7.39804E+03  3.47216E+04 -3.18297E+04  3.52874E+04 -6.31242E+04  2.01455E+03 -5.68571E+04 -4.28744E+04
 -1.27163E+04 -6.28333E+04  3.96011E+04 -4.47956E+04  5.77175E+04 -2.29071E+03  3.36714E+04  3.22553E+04
 -5.96361E+03  3.55590E+04 -2.96632E+04  1.52938E+04 -3.00197E+04 -4.70553E+03 -1.63967E+04 -1.06670E+04
 -8.05514E+03 -1.27114E+04 -8.79908E+02 -1.76128E+04  7.08869E+03 -2.27597E+04  1.53563E+04 -1.33655E+04
  1.13640E+04  4.99944E+03 -7.97254E+03  1.30401E+04 -2.10002E+04 -4.18587E+03 -8.30753E+03 -3.34810E+04
  2.24641E+04 -4.31167E+04  4.74962E+04 -1.92158E+04  4.46221E+04  1.92122E+04  1.56650E+04  4.36069E+04
 -1.56475E+04  3.31993E+04 -2.51820E+04  1.93729E+03 -9.71839E+03 -2.74969E+04  2.08980E+04 -3.34645E+04
  4.02765E+04 -8.46391E+03  3.44803E+04  2.37256E+04  1.76951E+04  4.57467E+04 -7.65344E+03  4.91207E+04
 -3.10399E+04  3.30066E+04 -4.11148E+04  9.22298E+03 -4.20447E+04 -1.61816E+04 -2.32148E+04 -3.73460E+04
  7.27404E+03 -3.70512E+04  3.10917E+04 -1.39447E+04  2.88469E+04  1.10164E+04  3.93175E+03  1.88877E+04
 -1.34550E+04  8.18465E+03 -1.03603E+04 -7.77336E+03  5.91039E+03 -1.05175E+04  1.77156E+04  5.94904E+03
  1.32158E+04  2.18823E+04 -6.13148E+03  2.50966E+04 -2.23021E+04  1.11670E+04 -2.77936E+04 -4.97272E+03
 -1.96269E+04 -1.73319E+04 -7.85575E+03 -1.99119E+04  4.16111E+03 -1.84309E+04  1.49072E+04 -1.71473E+04
  2.50311E+04 -1.23622E+04  3.14587E+04  2.82099E+03  2.34139E+04  1.87858E+04  4.30293E+03  3.54895E+04
 -1.71051E+04  2.98351E+04 -2.74717E+04  1.01382E+04 -2.07021E+04 -1.05027E+04 -4.07280E+03 -1.38434E+04
  2.09849E+03 -3.11042E+03 -4.26647E+03  6.32650E+03 -1.57145E+04  4.90189E+03 -1.57371E+04 -6.65796E+03
 -9.80055E+03 -1.79622E+04  5.21340E+03 -2.22014E+04  1.44282E+04 -1.58177E+04  1.74602E+04 -1.66913E+03
  1.09363E+04  1.27072E+04 -1.06434E+03  1.82976E+04 -1.22022E+04  1.01668E+04 -1.81253E+04 -4.16566E+03
 -1.35574E+04 -1.63782E+04 -1.70813E+03 -2.20983E+04  9.84954E+03 -1.79044E+04  1.83520E+04 -8.93695E+03
  1.70746E+04  3.39199E+02  1.20409E+04  4.17428E+03  6.44397E+03  6.98462E+02  9.19750E+03 -1.43090E+03
  1.65010E+04  2.59632E+03  1.79134E+04  1.43848E+04  1.16685E+04  2.87341E+04 -3.14434E+03  3.19403E+04
 -1.85065E+04  2.54090E+04 -2.95411E+04  1.24599E+04 -3.09304E+04 -2.26901E+03 -2.58268E+04 -1.79050E+04
 -1.16368E+04 -2.54351E+04  8.46863E+03 -2.31438E+04  1.98828E+04 -1.23876E+04  1.79665E+04  4.85400E+03
  7.03712E+03  1.33682E+04 -8.42817E+03  1.20085E+04 -1.54628E+04  2.50541E+03 -1.18758E+04 -9.26380E+03
 -2.09276E+02 -1.47854E+04  7.78518E+03 -1.04085E+04  9.71324E+03 -1.38132E+03  2.07143E+03  5.79996E+03
 -6.63625E+03  1.87578E+03 -5.25500E+03 -5.30717E+03  4.13115E+01 -1.27647E+04  8.83732E+03 -1.29106E+04
  1.51163E+04 -6.42500E+03  1.62331E+04  2.77313E+03  1.39588E+04  1.23036E+04  6.38989E+03  1.83386E+04
 -2.82697E+03  2.00465E+04 -1.29225E+04  1.25970E+04 -1.44920E+04  3.17034E+03 -1.02527E+04 -2.92030E+03
 -5.04186E+03 -4.44240E+03 -4.39836E+02  1.24963E+03 -2.30799E+03  2.27069E+03 -4.88573E+03  3.91370E+03
 -9.83121E+03 -6.89333E+02 -1.05633E+04 -8.47472E+03 -4.45045E+03 -1.36803E+04  4.53347E+03 -1.04502E+04
  8.82207E+03 -4.29037E+03  6.30338E+03  2.41341E+03  2.37942E+02  4.07884E+03 -4.60853E+03 -1.33023E+02
 -4.59942E+03 -6.84116E+03 -9.83920E+02 -9.55282E+03  5.33925E+03 -1.04665E+04  1.26474E+04 -5.18822E+03
  1.48391E+04  9.95967E+02  1.08720E+04  8.42381E+03  2.15605E+03  1.12902E+04 -6.19606E+03  1.04284E+04
 -8.69034E+03  3.17217E+03 -3.99235E+03 -1.58002E+03  1.51379E+03 -2.49944E+03  5.47177E+03 -1.12467E+03
  4.85757E+03  4.06468E+03  1.29097E+03  7.92092E+03 -5.55894E+03  7.84837E+03 -9.51259E+03  2.15783E+03
 -6.58983E+03 -4.84531E+03  1.05519E+01 -8.49257E+03  5.16440E+03 -4.14477E+03  5.13230E+03  1.30690E+03
  7.96405E+02  5.06806E+03 -5.02682E+03  6.74357E+03 -6.97524E+03  3.40631E+03 -7.03392E+03 -2.15640E+03
 -4.16699E+03 -8.39199E+03  2.18724E+03 -9.67918E+03  8.36852E+03 -6.10379E+03  8.94368E+03  1.31199E+03
  5.84154E+03  7.02462E+03 -2.70179E+02  9.25675E+03 -6.73852E+03  5.26034E+03 -6.91872E+03 -6.19292E+02
 -7.01796E+03 -6.24020E+03 -1.67822E+03 -6.40388E+03  3.46269E+03 -5.93302E+03  3.94921E+03 -3.11939E+03
  3.37108E+03  3.32609E+02 -2.01431E+02  1.29984E+03  2.90771E+02 -8.22758E+02  5.24322E+02 -2.85872E+03
  5.75261E+03 -1.65282E+03  7.96399E+03  9.25004E+02  7.97195E+03  5.00361E+03  6.24808E+03  1.02786E+04
 -2.05436E+03  1.20674E+04 -1.06532E+04  9.18103E+03 -1.34478E+04  1.55331E+03 -1.09462E+04 -3.90744E+03
 -5.58188E+03 -8.60561E+03 -4.59110E+02 -7.24516E+03  2.66241E+03 -3.38274E+03  2.42656E+03 -2.87034E+03
  1.62481E+03 -1.75870E+03  2.74787E+03 -2.65712E+03  3.99518E+03 -1.84207E+03  4.67237E+03  6.75778E+01
  5.80556E+03  1.39885E+03  2.26428E+03  5.07275E+03 -1.33314E+03  4.51487E+03 -6.04396E+03  3.89050E+03
 -6.89847E+03 -1.39391E+03 -3.38297E+03 -4.73518E+03 -1.06730E+02 -6.94175E+03  4.39134E+03 -7.99231E+03
  7.46248E+03 -4.26678E+03  9.60578E+03  6.83135E+02  6.80314E+03  5.92919E+03  1.41146E+03  8.40720E+03
 -3.19960E+03  7.47548E+03 -5.03947E+03  2.55606E+03 -3.04729E+03 -1.37724E+03 -9.49355E+02 -1.12995E+03
 -7.82187E+02  1.30601E+02 -1.11080E+03  2.14353E+03 -3.09085E+03  1.10539E+03 -5.10041E+03 -4.79552E+02
 -2.62805E+03 -5.44358E+03  8.02769E+02 -6.69910E+03  3.82653E+03 -6.21550E+03  5.70117E+03 -1.59602E+03
  6.19798E+03  3.28155E+03  2.90500E+03  5.21698E+03 -1.18204E+03  6.55640E+03 -4.53338E+03  3.71874E+03
 -5.54611E+03  8.72595E+02 -4.83066E+03 -3.97950E+03 -3.58510E+02 -4.94940E+03  2.58342E+03 -3.72648E+03
  3.91100E+03 -1.60793E+03  2.37434E+03  8.14979E+02  1.02386E+03  1.88618E+03  1.26172E+03  8.73738E+02
  1.77860E+03  8.62276E+02  1.76781E+03  1.20871E+03  1.58573E+03  2.79742E+03  1.93316E+03  2.64086E+03
 -1.40867E+03  4.65208E+03 -3.63219E+03  5.37454E+03 -5.34191E+03  1.44788E+03 -6.39955E+03 -1.45221E+03
 -2.81140E+03 -5.72296E+03  1.07250E+03 -6.81891E+03  3.24212E+03 -3.77666E+03  4.52183E+03 -1.28647E+03
  3.86063E+03  2.57074E+03  6.83466E+02  3.55429E+03 -1.10714E+03  1.99929E+03 -1.96713E+03 -3.00757E+02
 -9.57700E+02 -2.39911E+03  1.80334E+03 -2.54096E+03  2.47126E+03 -1.37249E+03  2.00521E+03  7.20841E+02
  9.64905E+02  1.16740E+03  8.55522E+02 -1.81091E+01 -6.01554E+02  7.97509E+02  1.69681E+03 -3.06881E+02
  3.16185E+02 -4.40995E+02  2.38489E+03  9.07542E+02  7.69918E+02  3.16759E+03 -5.17689E+02  4.08651E+03
 -2.77258E+03  1.84893E+03 -3.14037E+03  6.01117E+02 -3.29002E+03 -1.32834E+03 -7.61347E+02 -1.73281E+03
  5.50150E+02 -1.76567E+03  1.33729E+03 -9.40204E+02  9.22792E+02  1.54957E+03 -1.03250E+03  1.64930E+03
 -2.16384E+03  1.17436E+03 -2.29708E+03 -1.83197E+03 -1.02678E+03 -2.85473E+03  2.07844E+02 -2.64320E+03
  1.33748E+03 -1.04167E+03  1.39428E+03 -6.08508E+01  2.01658E+03  3.34889E+02  3.42706E+02  1.46508E+03
 -9.14940E+02  9.65145E+01 -1.15103E+03 -5.85852E+02  8.37900E+02 -1.64592E+03  2.68385E+03 -1.39273E+03
  2.66010E+03 -8.11041E+01  3.65803E+03  1.80125E+03  1.49611E+03  3.11311E+03 -1.01215E+03  3.11532E+03
 -2.57185E+03  7.24926E+02 -2.43253E+03 -5.50916E+02 -1.21803E+03 -2.11317E+03  2.41448E+02 -1.25564E+03
  2.02985E+03 -9.08358E+02  1.32547E+03  8.55171E+02  6.01187E+02  1.87752E+03  1.94662E+02  1.66813E+03
 -3.11657E+02  1.25581E+03 -7.06723E+02  3.43948E+02  2.01966E+01  3.09978E+02 -6.64533E+02  8.04962E+02
 -9.19981E+02  1.56759E+03 -2.40105E+03  8.41312E+02 -2.96877E+03  1.62059E+02 -3.69900E+03 -1.98282E+03
 -1.81063E+03 -3.93389E+03  8.32820E+02 -4.32212E+03  2.10100E+03 -3.48642E+03  3.94285E+03 -1.53835E+03
  3.93887E+03  2.65524E+02  2.00635E+03  2.49247E+03 -7.25338E+01  2.81214E+03 -1.31711E+03  2.15751E+03
 -1.66829E+03  9.67172E+02 -1.05470E+03 -5.57501E+02 -4.58395E+02 -2.25359E+01 -4.98194E+02 -1.03523E+02
 -1.17810E+03  2.40246E+02 -9.77743E+02 -1.05732E+02  1.72333E+02 -8.03675E+02 -3.55337E+02 -1.16184E+03
  1.67511E+03 -5.76778E+02  1.22654E+03  2.25452E+02  1.95165E+03  1.86489E+03 -1.33700E+02  2.69233E+03
 -1.32640E+03  3.12694E+03 -2.81424E+03  2.10239E+03 -3.40471E+03 -2.00848E+02 -2.12764E+03 -2.07471E+03
 -1.18210E+03 -2.30776E+03  5.51561E+02 -1.92769E+03  1.46209E+03 -1.14592E+03  1.71243E+03  1.31210E+02
  1.08317E+03  3.08421E+02  1.22632E+02  6.77212E+02 -9.84161E+02  1.62511E+01 -5.95923E+00 -3.77404E+02
  8.59379E+02  1.13438E+01  8.04750E+02  6.02825E+02  3.48920E+02  1.08747E+03  1.26938E+02  7.67729E+02
 -1.06113E+03  1.18679E+03 -1.40432E+03  1.16066E+02 -1.20941E+03 -1.00345E+03 -6.62389E+01 -1.88918E+03
  1.03892E+03 -1.59631E+03  1.67434E+03 -3.00981E+02  1.77060E+03 -2.77996E+02  9.90700E+02  1.43426E+03
  2.82788E+02  1.28992E+03 -5.25456E+02  1.02716E+03 -9.23974E+02  6.14414E+02 -8.28252E+02  1.13455E+02
 -2.38037E+02  2.60963E+01 -6.29194E+02  3.63775E+02 -1.14176E+03  1.42966E+02 -1.15548E+03 -1.94874E+02
 -1.41357E+03 -3.30722E+02 -5.08557E+02 -1.49031E+03  1.03140E+03 -2.02421E+03  1.10553E+03 -5.31334E+02
  1.61238E+03  1.77155E+02  6.34108E+00  9.25156E+02 -2.39204E+02  1.54603E+03 -9.76024E+02  1.02644E+03
