 $NMID ID='MM_0lb_SNR800_9hz_g55_99.RAW', FMTDAT='(8E13.5)'
 TRAMP=1., VOLUME=1. $END
  3.09724E+05  4.45799E+02  3.37670E+05  2.50800E+05  8.50100E+04  3.38546E+05 -1.32800E+05  2.52074E+05
 -1.90732E+05  8.38299E+04 -1.12606E+05 -3.24885E+04  3.68324E+01 -5.06381E+04  5.39229E+04 -5.91620E+02
  3.53706E+04  5.29092E+04 -1.63713E+04  7.61127E+04 -6.14235E+04  6.44002E+04 -8.53349E+04  3.28978E+04
 -8.21452E+04 -1.18107E+04 -5.85058E+04 -5.26497E+04 -1.52356E+04 -7.10953E+04  2.85020E+04 -4.74023E+04
  4.10811E+04  3.84004E+03  1.68689E+04  4.89306E+04 -3.48758E+04  4.86295E+04 -6.80632E+04 -4.49923E+01
 -5.46287E+04 -5.76214E+04 -7.47114E+03 -7.88153E+04  3.45260E+04 -5.72800E+04  4.99590E+04 -1.85145E+04
  4.55112E+04  1.15701E+04  3.29153E+04  2.68230E+04  1.63413E+04  3.06040E+04 -6.34297E+03  2.74717E+04
 -2.24982E+04  1.16338E+04 -1.82551E+04 -5.78108E+03  7.12794E+03 -7.12279E+03  2.42060E+04  1.38253E+04
  7.08501E+03  3.76488E+04 -3.41238E+04  3.69397E+04 -6.62147E+04  1.98111E+03 -5.89577E+04 -4.46486E+04
 -1.28718E+04 -6.62792E+04  4.18231E+04 -4.77287E+04  6.14361E+04 -3.08401E+03  3.70640E+04  3.43416E+04
 -5.56988E+03  3.96401E+04 -3.24030E+04  1.88728E+04 -3.35771E+04 -3.24567E+03 -1.95896E+04 -1.18788E+04
 -9.63679E+03 -1.53951E+04 -5.89810E+02 -1.97108E+04  8.82402E+03 -2.38429E+04  1.58131E+04 -1.24512E+04
  1.03064E+04  6.32270E+03 -1.05336E+04  1.28510E+04 -2.39473E+04 -6.45520E+03 -8.16844E+03 -3.80446E+04
  2.55723E+04 -4.73332E+04  5.21485E+04 -2.10854E+04  4.90816E+04  2.08769E+04  1.73994E+04  4.73029E+04
 -1.68779E+04  3.65779E+04 -2.80921E+04  2.86811E+03 -1.21269E+04 -2.98406E+04  2.19022E+04 -3.72186E+04
  4.52107E+04 -1.11436E+04  4.09212E+04  2.54795E+04  2.17198E+04  5.14185E+04 -8.26040E+03  5.65039E+04
 -3.57378E+04  3.87927E+04 -4.77511E+04  1.12669E+04 -4.86457E+04 -1.84118E+04 -2.65975E+04 -4.25441E+04
  8.03375E+03 -4.27103E+04  3.42596E+04 -1.73078E+04  3.23878E+04  1.11797E+04  5.16047E+03  2.08495E+04
 -1.41348E+04  9.82786E+03 -1.13071E+04 -7.18700E+03  5.55561E+03 -1.15829E+04  1.90845E+04  5.56647E+03
  1.50174E+04  2.29470E+04 -5.19729E+03  2.66952E+04 -2.37073E+04  1.46464E+04 -3.17180E+04 -2.50869E+03
 -2.63486E+04 -1.83786E+04 -1.23647E+04 -2.53308E+04  4.47550E+03 -2.65512E+04  2.04506E+04 -2.32019E+04
  3.28564E+04 -1.42248E+04  3.88122E+04  5.02038E+03  2.72983E+04  2.49973E+04  4.37834E+03  4.16122E+04
 -1.97946E+04  3.40932E+04 -3.10048E+04  1.21498E+04 -2.26673E+04 -1.01674E+04 -5.24582E+03 -1.26654E+04
  5.14397E+02 -9.99510E+02 -8.14569E+03  8.87111E+03 -2.09992E+04  4.68008E+03 -2.04593E+04 -1.00221E+04
 -1.25088E+04 -2.40819E+04  6.23907E+03 -2.85115E+04  1.91586E+04 -2.03754E+04  2.31390E+04 -1.72120E+03
  1.44328E+04  1.63211E+04 -1.22331E+03  2.35604E+04 -1.71456E+04  1.35119E+04 -2.40549E+04 -4.68459E+03
 -1.77328E+04 -2.10675E+04 -2.38291E+03 -2.86855E+04  1.28037E+04 -2.39160E+04  2.34483E+04 -1.24391E+04
  2.23713E+04 -3.59797E+02  1.63010E+04  4.92068E+03  9.00034E+03  1.89638E+03  1.20700E+04 -2.41049E+03
  2.24041E+04  3.10960E+03  2.56673E+04  1.86288E+04  1.78143E+04  3.86610E+04 -2.59468E+03  4.57019E+04
 -2.57531E+04  3.75426E+04 -4.27836E+04  1.96037E+04 -4.61251E+04 -3.39573E+03 -3.69712E+04 -2.65026E+04
 -1.41221E+04 -3.80019E+04  1.40116E+04 -3.32020E+04  2.86540E+04 -1.53937E+04  2.44166E+04  8.13433E+03
  8.13945E+03  1.95877E+04 -1.20139E+04  1.61135E+04 -2.02060E+04  2.56959E+03 -1.54004E+04 -1.30508E+04
 -1.04801E+02 -1.97590E+04  1.09897E+04 -1.47666E+04  1.34422E+04 -1.35181E+03  3.33612E+03  8.83438E+03
 -8.67032E+03  4.33488E+03 -9.51862E+03 -7.22450E+03 -2.22144E+03 -1.84802E+04  1.21738E+04 -2.06077E+04
  2.31970E+04 -1.11969E+04  2.70319E+04  3.23028E+03  2.34767E+04  1.90024E+04  1.06766E+04  2.97981E+04
 -5.91009E+03  3.20278E+04 -2.07330E+04  1.98007E+04 -2.34794E+04  4.06958E+03 -1.59186E+04 -6.53856E+03
 -6.57374E+03 -7.26713E+03 -7.47584E+02  3.61047E+02 -3.14493E+03  3.64024E+03 -7.34148E+03  5.63414E+03
 -1.43535E+04 -8.87175E+02 -1.52477E+04 -1.16016E+04 -6.43461E+03 -1.99754E+04  6.28716E+03 -1.59540E+04
  1.32899E+04 -6.74311E+03  9.37587E+03  4.64185E+03 -6.46425E+02  6.41679E+03 -8.04225E+03 -4.10312E+02
 -7.90775E+03 -1.03932E+04 -1.03355E+03 -1.59923E+04  9.40619E+03 -1.68965E+04  2.05019E+04 -9.46210E+03
  2.41601E+04  2.20823E+03  1.80049E+04  1.49153E+04  3.22049E+03  1.96855E+04 -9.81042E+03  1.59571E+04
 -1.25746E+04  4.81534E+03 -6.61747E+03 -3.67312E+03  2.11956E+03 -4.78703E+03  8.43413E+03 -1.42283E+03
  7.88172E+03  7.02273E+03  1.43538E+03  1.31107E+04 -9.76125E+03  1.24514E+04 -1.56356E+04  2.93277E+03
 -1.08803E+04 -8.42007E+03 -1.67108E+01 -1.41711E+04  9.34872E+03 -7.20246E+03  9.85940E+03  3.61490E+03
  1.94704E+03  1.02973E+04 -8.24056E+03  1.15234E+04 -1.36124E+04  5.18407E+03 -1.43666E+04 -5.20930E+03
 -8.35182E+03 -1.64425E+04  4.16543E+03 -1.92898E+04  1.62711E+04 -1.08767E+04  1.76906E+04  3.10378E+03
  9.79475E+03  1.41205E+04 -1.76488E+03  1.63826E+04 -1.18673E+04  8.84402E+03 -1.29010E+04 -1.44346E+03
 -1.08452E+04 -1.06269E+04 -1.99047E+03 -1.24981E+04  6.47540E+03 -9.93143E+03  7.82836E+03 -3.71349E+03
  5.10410E+03  2.54642E+03 -1.35132E+03  2.02561E+03 -1.07856E+03 -3.37746E+03  2.79865E+03 -7.95429E+03
  1.20257E+04 -4.83641E+03  1.65257E+04  1.63806E+03  1.62791E+04  1.17155E+04  1.07273E+04  2.19024E+04
 -5.12199E+03  2.49918E+04 -2.04508E+04  1.82375E+04 -2.67190E+04  3.72177E+03 -2.13070E+04 -9.54415E+03
 -1.09393E+04 -1.82526E+04 -4.94718E+02 -1.52346E+04  5.78648E+03 -8.66049E+03  5.59232E+03 -5.64887E+03
  4.16267E+03 -3.56483E+03  4.04651E+03 -3.97599E+03  5.68299E+03 -3.89637E+03  8.48405E+03 -1.40611E+03
  1.09065E+04  2.49627E+03  5.77189E+03  9.70841E+03 -1.93765E+03  1.16518E+04 -1.15295E+04  9.30258E+03
 -1.58228E+04 -1.30224E+03 -1.01049E+04 -1.08565E+04 -1.70277E+03 -1.61901E+04  9.31371E+03 -1.63664E+04
  1.72418E+04 -8.85762E+03  2.04306E+04  3.16881E+03  1.41273E+04  1.40720E+04  2.16114E+03  1.83667E+04
 -7.59695E+03  1.48534E+04 -1.09008E+04  4.95142E+03 -7.53238E+03 -2.16091E+03 -3.16728E+03 -2.38998E+03
 -1.55268E+03 -4.30830E+02 -2.43464E+03  2.88474E+03 -6.38904E+03  2.93900E+03 -1.03088E+04 -1.49360E+03
 -7.25955E+03 -1.04947E+04 -1.32641E+02 -1.52890E+04  9.43568E+03 -1.38491E+04  1.54687E+04 -4.63994E+03
  1.49776E+04  7.55307E+03  7.17396E+03  1.39924E+04 -3.00220E+03  1.57311E+04 -1.09412E+04  9.61505E+03
 -1.40882E+04  1.99861E+02 -1.11923E+04 -9.57764E+03 -1.44455E+03 -1.28526E+04  6.59625E+03 -9.99111E+03
  9.72583E+03 -2.67352E+03  6.42995E+03  3.01491E+03  2.36893E+03  4.23886E+03  1.33002E+03  1.74419E+03
  3.02136E+03  1.25003E+03  3.54034E+03  1.59203E+03  4.85502E+03  5.24567E+03  4.01579E+03  8.26079E+03
 -3.44054E+03  1.21462E+04 -1.12440E+04  1.25340E+04 -1.61276E+04  3.24556E+03 -1.66068E+04 -7.00614E+03
 -8.01992E+03 -1.56325E+04  2.30469E+03 -1.72455E+04  9.80802E+03 -1.08842E+04  1.27614E+04 -3.04653E+03
  1.02270E+04  5.78757E+03  2.14371E+03  8.74885E+03 -4.28711E+03  6.12723E+03 -6.68670E+03 -1.08141E+03
 -3.23310E+03 -6.53902E+03  3.47753E+03 -6.74397E+03  6.59022E+03 -3.59642E+03  6.31487E+03  1.51997E+03
  4.00077E+03  3.48230E+03  1.31604E+03  2.22421E+03 -1.01673E+03  2.01687E+03  1.67751E+03 -9.40895E+02
  2.59194E+03 -9.05399E+02  6.72168E+03  2.48164E+03  3.99344E+03  8.55499E+03 -1.47407E+03  1.06645E+04
 -7.73835E+03  7.59334E+03 -9.98014E+03  1.87220E+03 -9.08584E+03 -3.36376E+03 -3.61142E+03 -6.09513E+03
  1.13569E+03 -6.05506E+03  4.16435E+03 -3.10990E+03  3.73899E+03  2.82564E+03 -1.44816E+03  4.74144E+03
 -6.45700E+03  3.05283E+03 -7.71279E+03 -3.55926E+03 -4.12596E+03 -8.71412E+03  1.43830E+03 -8.79274E+03
  5.32984E+03 -5.23281E+03  6.28975E+03 -5.52289E+02  5.68404E+03  2.48129E+03  1.17061E+03  5.13606E+03
 -2.99794E+03  1.20419E+03 -3.96891E+03 -3.22650E+03  1.29000E+03 -6.86639E+03  7.70535E+03 -5.28896E+03
  1.01370E+04  1.23239E+03  9.53231E+03  6.61271E+03  2.92809E+03  1.04151E+04 -3.37007E+03  9.65538E+03
 -8.41356E+03  4.00741E+03 -8.89756E+03 -9.57616E+02 -5.03884E+03 -6.51087E+03  1.34150E+03 -6.54555E+03
  6.92169E+03 -3.69460E+03  5.57996E+03  2.60524E+03  1.86921E+03  6.29903E+03 -9.16559E+02  4.99744E+03
 -2.47695E+03  3.50951E+03 -2.45923E+03  1.24586E+03 -8.84660E+02  1.05642E+03 -1.52180E+03  2.15647E+03
 -3.01831E+03  3.85425E+03 -7.32243E+03  2.95966E+03 -1.07299E+04  2.26758E+02 -1.19662E+04 -7.32610E+03
 -6.37480E+03 -1.38832E+04  2.70235E+03 -1.62356E+04  1.02744E+04 -1.27517E+04  1.51014E+04 -5.01867E+03
  1.41216E+04  2.89230E+03  9.20119E+03  9.63575E+03  6.11223E+02  1.12595E+04 -4.52366E+03  7.95042E+03
 -6.23030E+03  3.21169E+03 -3.45711E+03 -1.06346E+03 -1.37600E+03 -1.15731E+03 -3.84016E+02  3.49631E+01
 -1.46685E+03  5.42279E+02 -2.28228E+03 -7.62292E+02 -6.16249E+02 -2.69305E+03  6.20126E+01 -4.16288E+03
  4.59851E+03 -3.40842E+03  6.58205E+03 -1.46859E+02  7.18888E+03  6.16476E+03  2.00789E+03  1.04135E+04
 -5.48339E+03  1.21243E+04 -1.18270E+04  7.56644E+03 -1.31735E+04 -8.33040E+02 -1.00042E+04 -8.12925E+03
 -4.19160E+03 -1.14754E+04  2.49361E+03 -1.02127E+04  7.21808E+03 -5.32276E+03  7.36415E+03  4.24679E+02
  3.75138E+03  3.50901E+03 -4.13517E+02  2.98154E+03 -2.33526E+03 -5.18703E+01 -2.43329E+01 -2.71556E+03
  3.58829E+03 -1.99832E+03  4.21965E+03  1.45087E+03  2.95616E+03  4.33957E+03  1.00511E+02  6.05829E+03
 -5.02914E+03  4.78984E+03 -7.45160E+03  9.00631E+02 -6.59211E+03 -5.55717E+03 -9.09487E+02 -8.90396E+03
  5.18910E+03 -7.28728E+03  8.50772E+03 -2.24969E+03  8.28233E+03  2.18675E+03  5.02571E+03  6.95327E+03
  6.58908E+02  7.45723E+03 -2.88140E+03  5.80394E+03 -4.52884E+03  3.58797E+03 -3.81585E+03  1.17809E+03
 -2.00897E+03 -2.67161E+02 -2.10814E+03  9.61713E+02 -3.78883E+03  1.20502E+03 -5.78613E+03 -1.55862E+03
 -5.18918E+03 -4.07341E+03 -1.51374E+03 -7.50549E+03  2.97006E+03 -7.65421E+03  6.80225E+03 -3.50260E+03
  6.93524E+03  4.04048E+02  4.31709E+03  5.73261E+03 -8.68173E+02  7.65282E+03 -5.32665E+03  4.73914E+03
