 $NMID ID='MM_0lb_SNR800_12hz_g40_57.RAW', FMTDAT='(8E13.5)'
 TRAMP=1., VOLUME=1. $END
  3.09705E+05  4.67157E+02  3.37486E+05  2.50751E+05  8.49296E+04  3.37827E+05 -1.32336E+05  2.51404E+05
 -1.90388E+05  8.31690E+04 -1.11853E+05 -3.25827E+04  1.00945E+03 -5.05559E+04  5.36031E+04 -1.48663E+02
  3.53236E+04  5.28722E+04 -1.65571E+04  7.54317E+04 -6.07045E+04  6.40368E+04 -8.42863E+04  3.24827E+04
 -8.11286E+04 -1.20272E+04 -5.73791E+04 -5.13531E+04 -1.48717E+04 -6.97114E+04  2.76434E+04 -4.63887E+04
  3.99661E+04  3.40729E+03  1.62360E+04  4.80235E+04 -3.44094E+04  4.74328E+04 -6.69060E+04 -1.08051E+02
 -5.37770E+04 -5.70593E+04 -6.61178E+03 -7.73459E+04  3.42254E+04 -5.54557E+04  4.83120E+04 -1.71775E+04
  4.35128E+04  1.15853E+04  3.18731E+04  2.55848E+04  1.57435E+04  2.94764E+04 -5.17165E+03  2.73304E+04
 -2.20463E+04  1.25143E+04 -1.88034E+04 -5.07982E+03  5.57768E+03 -7.29819E+03  2.24164E+04  1.24378E+04
  6.97721E+03  3.58068E+04 -3.22637E+04  3.57583E+04 -6.36337E+04  1.98137E+03 -5.73944E+04 -4.29609E+04
 -1.23733E+04 -6.37938E+04  4.00048E+04 -4.55962E+04  5.85785E+04 -2.30515E+03  3.42668E+04  3.27858E+04
 -5.87684E+03  3.70513E+04 -2.99118E+04  1.65467E+04 -3.13213E+04 -3.94271E+03 -1.69866E+04 -1.10047E+04
 -8.95050E+03 -1.34210E+04 -4.50869E+02 -1.82928E+04  7.59102E+03 -2.31502E+04  1.54561E+04 -1.30510E+04
  1.09451E+04  5.43690E+03 -8.89817E+03  1.27860E+04 -2.16880E+04 -4.62714E+03 -8.16961E+03 -3.45735E+04
  2.34426E+04 -4.40944E+04  4.88102E+04 -1.99859E+04  4.58766E+04  1.95483E+04  1.59316E+04  4.47989E+04
 -1.59330E+04  3.40566E+04 -2.58327E+04  2.03845E+03 -1.01214E+04 -2.83260E+04  2.10711E+04 -3.42904E+04
  4.16995E+04 -9.14529E+03  3.64633E+04  2.40649E+04  1.90007E+04  4.72197E+04 -8.08340E+03  5.14195E+04
 -3.20854E+04  3.45656E+04 -4.30832E+04  9.88669E+03 -4.33251E+04 -1.70117E+04 -2.40267E+04 -3.87584E+04
  7.36202E+03 -3.87950E+04  3.16641E+04 -1.51764E+04  2.96913E+04  1.06565E+04  4.01405E+03  1.93908E+04
 -1.35019E+04  8.81637E+03 -1.07979E+04 -7.63489E+03  5.86887E+03 -1.08015E+04  1.82906E+04  5.83780E+03
  1.36662E+04  2.21953E+04 -5.94447E+03  2.56603E+04 -2.25855E+04  1.20205E+04 -2.86881E+04 -4.14067E+03
 -2.19395E+04 -1.78991E+04 -8.89988E+03 -2.13843E+04  3.73594E+03 -2.08662E+04  1.66257E+04 -1.89212E+04
  2.71611E+04 -1.32216E+04  3.37022E+04  3.03227E+03  2.45276E+04  2.08832E+04  4.42101E+03  3.74817E+04
 -1.82098E+04  3.08567E+04 -2.84961E+04  1.06371E+04 -2.13891E+04 -1.05357E+04 -4.58203E+03 -1.33404E+04
  1.52127E+03 -2.45191E+03 -5.04660E+03  7.10281E+03 -1.70448E+04  5.41213E+03 -1.69504E+04 -7.62873E+03
 -1.06347E+04 -2.00553E+04  5.32088E+03 -2.36685E+04  1.58304E+04 -1.71975E+04  1.91173E+04 -1.46596E+03
  1.19615E+04  1.37906E+04 -9.69553E+02  1.99848E+04 -1.38697E+04  1.11896E+04 -1.98978E+04 -4.28135E+03
 -1.46968E+04 -1.80798E+04 -1.83209E+03 -2.40778E+04  1.07971E+04 -2.00371E+04  1.98662E+04 -9.74467E+03
  1.85576E+04  1.53562E+02  1.35779E+04  4.79270E+03  7.13109E+03  9.20594E+02  1.04612E+04 -1.49478E+03
  1.81304E+04  2.74976E+03  2.06467E+04  1.59915E+04  1.35913E+04  3.19074E+04 -2.72950E+03  3.62110E+04
 -2.08525E+04  2.95036E+04 -3.40457E+04  1.48110E+04 -3.59762E+04 -2.35452E+03 -2.93714E+04 -2.08619E+04
 -1.25883E+04 -2.97349E+04  1.04614E+04 -2.65792E+04  2.29026E+04 -1.31173E+04  2.05204E+04  6.19110E+03
  7.62998E+03  1.54508E+04 -9.62061E+03  1.30659E+04 -1.72017E+04  2.68764E+03 -1.28966E+04 -1.04189E+04
 -2.49666E+01 -1.61407E+04  8.36114E+03 -1.18431E+04  1.11024E+04 -1.23414E+03  2.66047E+03  6.92424E+03
 -7.23954E+03  2.27689E+03 -6.60461E+03 -5.86296E+03 -6.76913E+02 -1.42657E+04  9.73778E+03 -1.56486E+04
  1.77318E+04 -8.35021E+03  1.96752E+04  3.01555E+03  1.72600E+04  1.46410E+04  8.14839E+03  2.20472E+04
 -3.86078E+03  2.42224E+04 -1.53571E+04  1.48612E+04 -1.75727E+04  3.24889E+03 -1.21100E+04 -3.82997E+03
 -5.63364E+03 -4.91913E+03 -2.96916E+02  1.01587E+03 -2.55565E+03  2.47621E+03 -5.68508E+03  4.53089E+03
 -1.16281E+04 -6.26648E+02 -1.18704E+04 -9.29082E+03 -4.68300E+03 -1.54945E+04  4.89508E+03 -1.24138E+04
  1.02186E+04 -5.33350E+03  7.17345E+03  3.59789E+03  1.42443E+01  5.04917E+03 -5.91172E+03 -2.22366E+02
 -5.45990E+03 -8.09125E+03 -1.17786E+03 -1.15680E+04  6.54722E+03 -1.23509E+04  1.50739E+04 -6.50439E+03
  1.80068E+04  1.35601E+03  1.32157E+04  1.06147E+04  2.65514E+03  1.42304E+04 -7.53507E+03  1.19884E+04
 -1.00152E+04  3.48833E+03 -5.17120E+03 -2.45425E+03  2.08823E+03 -3.12315E+03  6.45223E+03 -1.02866E+03
  6.13210E+03  5.11741E+03  9.89340E+02  9.77068E+03 -7.02920E+03  9.16012E+03 -1.19131E+04  2.37560E+03
 -7.93435E+03 -5.98747E+03  5.26535E+02 -1.04041E+04  6.27147E+03 -5.58508E+03  6.41922E+03  2.33549E+03
  1.50547E+03  6.82739E+03 -6.34206E+03  8.73039E+03 -9.35537E+03  3.79711E+03 -9.43309E+03 -3.06196E+03
 -5.66362E+03 -1.13375E+04  2.81209E+03 -1.29749E+04  1.09775E+04 -7.98685E+03  1.18598E+04  2.29249E+03
  7.08964E+03  9.21612E+03 -7.92067E+02  1.14371E+04 -8.47729E+03  6.55431E+03 -9.30801E+03 -9.53029E+02
 -8.27645E+03 -8.05920E+03 -1.69637E+03 -8.41781E+03  4.35855E+03 -7.46832E+03  5.30680E+03 -3.37593E+03
  3.93729E+03  1.18648E+03 -3.29539E+02  1.57693E+03 -1.94231E+01 -1.95034E+03  1.25550E+03 -5.07518E+03
  8.10507E+03 -3.31619E+03  1.12185E+04  1.15479E+03  1.10000E+04  7.31100E+03  7.91329E+03  1.42700E+04
 -3.19932E+03  1.65379E+04 -1.40811E+04  1.22747E+04 -1.80624E+04  2.61505E+03 -1.47886E+04 -5.59512E+03
 -7.72959E+03 -1.19153E+04 -6.65967E+00 -1.02358E+04  3.85256E+03 -5.44790E+03  3.39589E+03 -3.42629E+03
  2.75455E+03 -2.24699E+03  2.99862E+03 -3.23373E+03  4.68425E+03 -2.30742E+03  6.09736E+03 -4.41953E+02
  7.51475E+03  1.86936E+03  3.86614E+03  6.51826E+03 -1.87214E+03  7.35547E+03 -8.14874E+03  5.38287E+03
 -9.89160E+03 -1.12752E+03 -5.84989E+03 -7.06219E+03 -6.74412E+02 -1.05772E+04  5.88477E+03 -1.08574E+04
  1.12251E+04 -6.28832E+03  1.32556E+04  1.52347E+03  9.53581E+03  8.97969E+03  1.78763E+03  1.19597E+04
 -4.33860E+03  1.05654E+04 -7.02535E+03  3.55294E+03 -4.63493E+03 -1.05152E+03 -1.95206E+03 -1.42299E+03
 -9.03207E+02  2.14793E+01 -1.72331E+03  2.56447E+03 -4.26583E+03  2.00604E+03 -7.09806E+03 -1.23928E+03
 -4.84646E+03 -6.84693E+03  5.03766E+02 -9.92972E+03  6.03290E+03 -8.92932E+03  9.03975E+03 -3.22669E+03
  9.65311E+03  4.77146E+03  4.31048E+03  8.21976E+03 -2.16251E+03  1.01030E+04 -6.29121E+03  5.81826E+03
 -8.98526E+03  5.82619E+02 -6.82756E+03 -5.90238E+03 -4.44485E+02 -7.77539E+03  4.08792E+03 -5.58759E+03
  5.66091E+03 -1.91136E+03  4.34129E+03  1.41111E+03  1.43263E+03  3.21145E+03  9.14226E+02  1.10097E+03
  1.91357E+03  7.31823E+02  1.93910E+03  1.60320E+03  2.76678E+03  3.42054E+03  2.61049E+03  5.08812E+03
 -2.12449E+03  7.29011E+03 -6.67032E+03  7.98089E+03 -9.11728E+03  2.23356E+03 -1.00253E+04 -3.49456E+03
 -4.69243E+03 -9.17757E+03  1.03045E+03 -1.05741E+04  5.46297E+03 -6.81557E+03  7.81029E+03 -1.45801E+03
  6.09937E+03  3.85613E+03  1.35871E+03  5.55094E+03 -2.12824E+03  3.52514E+03 -3.65922E+03 -6.31646E+02
 -1.85198E+03 -4.06951E+03  2.04921E+03 -4.18290E+03  4.03324E+03 -2.02133E+03  3.57002E+03  7.75613E+02
  1.61271E+03  1.71199E+03  1.17395E+03  1.12656E+03 -2.54886E+02  1.35693E+03  1.70474E+03 -3.58996E+02
  1.24645E+03 -4.54357E+02  3.86689E+03  1.31562E+03  1.84622E+03  5.10910E+03 -7.43515E+02  6.58016E+03
 -4.31574E+03  3.97710E+03 -6.07269E+03  1.04239E+03 -5.37147E+03 -1.81630E+03 -2.01802E+03 -2.93099E+03
  6.13582E+02 -3.56578E+03  2.69927E+03 -1.50851E+03  1.70758E+03  2.17840E+03 -7.84387E+02  2.94966E+03
 -3.68530E+03  1.81191E+03 -3.84714E+03 -1.99125E+03 -2.30540E+03 -5.22476E+03  6.03003E+02 -4.87578E+03
  2.87575E+03 -2.75196E+03  3.49229E+03  7.89872E+01  3.08251E+03  1.21122E+03  1.57413E+02  2.96508E+03
 -1.45347E+03  7.96668E+02 -2.36901E+03 -1.43016E+03  1.16803E+03 -3.27368E+03  4.58746E+03 -3.04915E+03
  5.42230E+03  3.90189E+02  5.75600E+03  3.82594E+03  2.04547E+03  5.56990E+03 -1.65664E+03  5.66504E+03
 -4.61692E+03  2.63020E+03 -4.73203E+03 -1.09163E+03 -2.52155E+03 -3.75918E+03  1.15964E+03 -3.14350E+03
  3.72022E+03 -1.95342E+03  2.99318E+03  1.59020E+03  5.96429E+02  3.18543E+03 -2.12998E+02  2.55276E+03
 -1.26960E+03  2.02087E+03 -1.39022E+03  3.75259E+02 -7.64465E+02  9.70372E+02 -1.11248E+03  1.40445E+03
 -1.56337E+03  2.39192E+03 -4.34769E+03  1.75933E+03 -5.66329E+03  3.14843E+02 -6.36405E+03 -3.66693E+03
 -3.28676E+03 -7.57175E+03  1.60191E+03 -9.09839E+03  4.89006E+03 -6.94484E+03  8.57817E+03 -2.63828E+03
  7.61733E+03  1.02781E+03  4.70705E+03  5.07164E+03 -9.08640E+01  5.69445E+03 -2.15907E+03  4.47197E+03
 -3.27498E+03  1.71210E+03 -1.77973E+03 -6.83596E+02 -1.07943E+03 -2.12193E+02 -8.73976E+02  2.01795E+02
 -1.61090E+03  2.54825E+02 -1.60685E+03 -9.92195E+01  8.95684E+01 -1.64549E+03 -1.40851E+02 -2.20829E+03
  2.77200E+03 -1.72058E+03  3.19902E+03  1.70156E+02  3.77032E+03  3.37450E+03  1.08553E+03  5.31048E+03
 -2.88488E+03  6.85133E+03 -6.17816E+03  4.00672E+03 -6.92342E+03 -6.56742E+02 -5.10759E+03 -4.22747E+03
 -2.27029E+03 -5.79498E+03  1.65195E+03 -5.59207E+03  3.58362E+03 -2.65809E+03  3.35252E+03  2.16800E+02
  2.31070E+03  1.49685E+03 -5.47526E+01  1.50279E+03 -9.84536E+02 -6.76324E+02 -2.04999E+02 -1.36500E+03
  1.67080E+03 -6.27205E+02  2.00661E+03  6.06636E+02  8.50720E+02  2.12194E+03  1.60752E+02  2.58342E+03
 -2.34228E+03  2.74470E+03 -3.20909E+03  3.17508E+02 -3.01509E+03 -2.77962E+03 -8.00163E+02 -4.78914E+03
  2.52340E+03 -3.72850E+03  3.91142E+03 -9.71569E+02  4.12336E+03  5.84611E+02  2.54691E+03  3.26429E+03
  5.64796E+02  3.42275E+03 -1.09145E+03  2.81189E+03 -2.48468E+03  1.81267E+03 -1.97963E+03  2.10569E+02
 -1.01068E+03 -4.98426E+02 -8.51094E+02  5.71699E+02 -1.95596E+03  6.54666E+02 -2.73271E+03 -6.14444E+02
 -3.28590E+03 -1.48815E+03 -5.77385E+02 -3.42554E+03  2.10977E+03 -4.07513E+03  2.96881E+03 -1.71282E+03
  3.74204E+03  5.24454E+02  1.69656E+03  2.12284E+03 -3.66316E+02  3.43132E+03 -2.63053E+03  2.59117E+03
