 $NMID ID='MM_0lb_SNR800_14hz_g40_61.RAW', FMTDAT='(8E13.5)'
 TRAMP=1., VOLUME=1. $END
  3.09863E+05  3.19785E+02  3.37299E+05  2.50357E+05  8.46415E+04  3.37867E+05 -1.32525E+05  2.50736E+05
 -1.89996E+05  8.29412E+04 -1.11492E+05 -3.25898E+04  1.19181E+03 -5.03187E+04  5.37580E+04 -1.13951E+02
  3.50818E+04  5.27507E+04 -1.67924E+04  7.53095E+04 -6.07507E+04  6.29570E+04 -8.38042E+04  3.17541E+04
 -8.05798E+04 -1.10400E+04 -5.71079E+04 -5.09811E+04 -1.47162E+04 -6.92817E+04  2.71714E+04 -4.54083E+04
  3.97597E+04  3.95148E+03  1.61945E+04  4.76175E+04 -3.43969E+04  4.72139E+04 -6.64697E+04 -2.84167E+02
 -5.32213E+04 -5.64547E+04 -6.73641E+03 -7.63838E+04  3.40659E+04 -5.46586E+04  4.75795E+04 -1.70394E+04
  4.27615E+04  1.11431E+04  3.12787E+04  2.52485E+04  1.57329E+04  2.89284E+04 -5.15752E+03  2.71190E+04
 -2.17417E+04  1.25591E+04 -1.89678E+04 -5.03265E+03  5.26075E+03 -7.58323E+03  2.19278E+04  1.22309E+04
  7.24299E+03  3.47771E+04 -3.19149E+04  3.50881E+04 -6.27771E+04  2.33739E+03 -5.63378E+04 -4.26011E+04
 -1.23550E+04 -6.29401E+04  3.92673E+04 -4.49163E+04  5.76303E+04 -2.07386E+03  3.35938E+04  3.18244E+04
 -6.03942E+03  3.49768E+04 -3.00537E+04  1.54258E+04 -2.98207E+04 -4.95792E+03 -1.60770E+04 -1.08651E+04
 -8.10400E+03 -1.27929E+04 -1.00449E+03 -1.75915E+04  7.51570E+03 -2.31014E+04  1.53046E+04 -1.34504E+04
  1.14647E+04  4.93349E+03 -7.76905E+03  1.30813E+04 -2.09700E+04 -4.13666E+03 -8.32551E+03 -3.30257E+04
  2.25501E+04 -4.26294E+04  4.73323E+04 -1.90684E+04  4.43729E+04  1.89563E+04  1.50971E+04  4.37582E+04
 -1.61584E+04  3.27586E+04 -2.48878E+04  1.52002E+03 -9.13875E+03 -2.72089E+04  2.08609E+04 -3.32217E+04
  4.03292E+04 -8.41476E+03  3.42903E+04  2.36005E+04  1.71695E+04  4.56870E+04 -7.78472E+03  4.89252E+04
 -3.08263E+04  3.26121E+04 -4.06929E+04  9.25261E+03 -4.16807E+04 -1.64314E+04 -2.30323E+04 -3.71039E+04
  7.17385E+03 -3.69635E+04  3.08607E+04 -1.41549E+04  2.87028E+04  1.09630E+04  3.88698E+03  1.87776E+04
 -1.37292E+04  8.18159E+03 -1.01383E+04 -7.64553E+03  5.87464E+03 -1.08183E+04  1.79804E+04  6.07256E+03
  1.31107E+04  2.18644E+04 -6.04857E+03  2.47827E+04 -2.24783E+04  1.07477E+04 -2.73418E+04 -5.20054E+03
 -1.97350E+04 -1.73638E+04 -7.76224E+03 -1.94623E+04  4.10036E+03 -1.82027E+04  1.51734E+04 -1.75751E+04
  2.48872E+04 -1.25017E+04  3.14020E+04  2.34249E+03  2.32038E+04  1.91000E+04  4.30766E+03  3.53499E+04
 -1.75174E+04  2.98399E+04 -2.76025E+04  1.01158E+04 -2.07277E+04 -1.02673E+04 -4.49920E+03 -1.35500E+04
  2.06341E+03 -3.12456E+03 -4.47678E+03  6.98177E+03 -1.54685E+04  5.46755E+03 -1.55152E+04 -6.33126E+03
 -9.24430E+03 -1.82830E+04  5.06306E+03 -2.22187E+04  1.47012E+04 -1.61330E+04  1.71316E+04 -1.57985E+03
  1.07325E+04  1.20600E+04 -1.14109E+03  1.84648E+04 -1.24167E+04  1.00652E+04 -1.87219E+04 -3.87589E+03
 -1.34454E+04 -1.62447E+04 -1.77816E+03 -2.21405E+04  9.80315E+03 -1.79706E+04  1.87128E+04 -8.74599E+03
  1.71126E+04  2.95611E+02  1.24723E+04  4.60307E+03  6.67419E+03  6.93248E+02  9.18347E+03 -1.69221E+03
  1.67239E+04  2.67910E+03  1.83346E+04  1.44266E+04  1.17681E+04  2.90741E+04 -3.15555E+03  3.25642E+04
 -1.90222E+04  2.59488E+04 -3.01944E+04  1.27622E+04 -3.13831E+04 -2.16296E+03 -2.65304E+04 -1.82191E+04
 -1.15439E+04 -2.61128E+04  9.01748E+03 -2.38159E+04  2.04712E+04 -1.24588E+04  1.86486E+04  5.36049E+03
  7.02370E+03  1.37557E+04 -8.20022E+03  1.20404E+04 -1.55700E+04  2.44459E+03 -1.19791E+04 -9.36946E+03
 -2.42502E+01 -1.46602E+04  7.72444E+03 -1.11251E+04  9.86948E+03 -1.34236E+03  1.98536E+03  6.42705E+03
 -6.79259E+03  2.16637E+03 -5.52461E+03 -5.31492E+03 -1.49328E+02 -1.28989E+04  9.17853E+03 -1.34186E+04
  1.58798E+04 -6.71720E+03  1.69130E+04  3.09810E+03  1.43096E+04  1.26667E+04  6.92894E+03  1.90794E+04
 -2.84767E+03  2.11106E+04 -1.30148E+04  1.34590E+04 -1.51150E+04  3.39114E+03 -1.09476E+04 -3.40963E+03
 -5.38096E+03 -4.46792E+03 -6.08819E+02  1.31008E+03 -2.37331E+03  2.42647E+03 -4.54183E+03  3.94315E+03
 -1.03159E+04 -8.38582E+02 -1.07882E+04 -8.97017E+03 -4.20153E+03 -1.43337E+04  4.38976E+03 -1.06524E+04
  8.96504E+03 -4.39253E+03  6.69270E+03  3.09560E+03  3.06427E+02  4.07411E+03 -4.88843E+03 -3.82863E+02
 -4.96935E+03 -6.67440E+03 -8.66551E+02 -1.01558E+04  5.74380E+03 -1.07964E+04  1.31204E+04 -5.64790E+03
  1.56873E+04  1.27707E+03  1.12306E+04  8.86852E+03  2.10926E+03  1.20178E+04 -6.67499E+03  1.05895E+04
 -9.10681E+03  2.97506E+03 -4.32687E+03 -1.91638E+03  1.43396E+03 -2.61541E+03  6.17997E+03 -8.93260E+02
  5.10143E+03  4.52338E+03  1.26906E+03  8.40036E+03 -5.98571E+03  8.31060E+03 -1.02137E+04  1.77412E+03
 -6.79432E+03 -5.04253E+03  3.72956E+02 -9.13502E+03  5.61378E+03 -4.34872E+03  5.64714E+03  1.99532E+03
  7.68427E+02  5.37942E+03 -5.39967E+03  6.88468E+03 -7.65066E+03  3.57317E+03 -7.35627E+03 -2.32895E+03
 -4.77861E+03 -8.91559E+03  2.11561E+03 -1.09067E+04  8.70291E+03 -6.36219E+03  9.79496E+03  1.53145E+03
  6.53830E+03  7.81537E+03 -3.02377E+02  9.77001E+03 -7.09784E+03  5.62509E+03 -7.83118E+03 -7.17006E+02
 -7.23704E+03 -7.14515E+03 -1.69761E+03 -7.11836E+03  4.02585E+03 -6.38884E+03  4.43885E+03 -3.03011E+03
  3.33083E+03  9.70839E+02 -1.87896E+02  1.59347E+03  1.96219E+02 -1.08280E+03  1.08496E+03 -3.50193E+03
  6.34685E+03 -2.27701E+03  8.53342E+03  9.32683E+02  8.70310E+03  5.49602E+03  6.75321E+03  1.14865E+04
 -2.22632E+03  1.31966E+04 -1.16364E+04  1.03942E+04 -1.46676E+04  1.54056E+03 -1.16955E+04 -4.48542E+03
 -6.28264E+03 -1.01403E+04 -5.42929E+02 -8.05000E+03  2.98381E+03 -3.80471E+03  2.81886E+03 -3.14699E+03
  2.19206E+03 -2.03108E+03  2.82672E+03 -2.99363E+03  4.35535E+03 -2.14063E+03  4.84337E+03 -3.01837E+02
  6.89830E+03  1.66469E+03  2.46939E+03  5.32162E+03 -1.64611E+03  5.70556E+03 -6.62608E+03  4.52416E+03
 -8.41099E+03 -7.70128E+02 -3.92701E+03 -5.56364E+03 -2.21020E+02 -8.12313E+03  5.05856E+03 -8.68143E+03
  8.89166E+03 -4.97954E+03  1.10009E+04  1.30045E+03  7.74659E+03  7.54744E+03  1.03200E+03  9.62729E+03
 -3.47828E+03  8.71976E+03 -5.57365E+03  2.69898E+03 -3.69035E+03 -1.02413E+03 -1.12190E+03 -1.07406E+03
 -7.64133E+02  9.37547E+01 -1.16417E+03  2.23275E+03 -3.52729E+03  1.23839E+03 -5.94815E+03 -9.06663E+02
 -3.36291E+03 -6.11583E+03  6.37564E+02 -7.29806E+03  4.60472E+03 -7.39457E+03  7.21082E+03 -2.07251E+03
  7.28219E+03  4.01302E+03  3.51876E+03  6.23156E+03 -1.55357E+03  7.68580E+03 -5.01894E+03  4.36946E+03
 -6.82691E+03  5.51343E+02 -5.58834E+03 -4.32370E+03 -5.01449E+02 -5.92349E+03  2.88811E+03 -4.42502E+03
  4.77982E+03 -2.23599E+03  3.25001E+03  1.15163E+03  7.87723E+02  2.71064E+03  1.16713E+03  9.89098E+02
  2.22588E+03  8.43722E+02  1.85757E+03  1.11955E+03  2.10393E+03  3.16768E+03  1.90348E+03  3.38174E+03
 -2.23174E+03  5.44428E+03 -4.80060E+03  6.45748E+03 -6.82983E+03  1.53731E+03 -7.55983E+03 -2.06179E+03
 -3.48162E+03 -7.01928E+03  1.35112E+03 -8.13044E+03  4.09628E+03 -4.73660E+03  5.86297E+03 -1.22693E+03
  4.68888E+03  2.88438E+03  9.91848E+02  4.08561E+03 -1.47985E+03  2.63896E+03 -2.81767E+03 -2.83409E+02
 -1.17653E+03 -2.99773E+03  1.70884E+03 -3.09722E+03  2.72255E+03 -1.57248E+03  2.60587E+03  7.03525E+02
  1.79069E+03  9.65496E+02  8.58297E+02  5.33331E+02 -6.57013E+02  1.04442E+03  1.46509E+03 -4.39337E+01
  8.54898E+02 -4.81280E+02  2.89423E+03  1.04905E+03  1.20539E+03  3.83011E+03 -7.80466E+02  5.02860E+03
 -3.25238E+03  2.94372E+03 -4.33382E+03  3.19121E+02 -3.97690E+03 -1.29608E+03 -1.08529E+03 -2.66208E+03
  9.11148E+01 -2.62522E+03  1.92836E+03 -1.48161E+03  1.55086E+03  1.83411E+03 -9.38707E+02  2.06520E+03
 -2.69336E+03  1.26448E+03 -2.96741E+03 -1.90326E+03 -2.08757E+03 -3.81196E+03  5.35771E+02 -3.34265E+03
  1.90668E+03 -2.07813E+03  2.50764E+03 -2.60915E+02  2.47165E+03  6.61988E+02  5.41882E+02  1.93115E+03
 -8.88456E+02  3.74191E+02 -1.65388E+03 -1.10325E+03  4.69286E+02 -2.56576E+03  3.65544E+03 -2.07020E+03
  3.87998E+03  4.21685E+02  4.69409E+03  2.29590E+03  1.38043E+03  4.02051E+03 -9.49504E+02  4.16400E+03
 -3.22641E+03  1.35789E+03 -3.21674E+03 -7.70889E+01 -1.92447E+03 -2.88416E+03  1.55531E+02 -2.16680E+03
  2.81401E+03 -1.55816E+03  1.99083E+03  1.35436E+03  7.60876E+02  2.46003E+03 -1.14775E+02  2.21940E+03
 -1.26921E+03  1.42409E+03 -9.43915E+02  2.68771E+02 -9.00274E+01  7.48786E+02 -1.10014E+03  1.11201E+03
 -1.40797E+03  1.67535E+03 -3.40789E+03  1.30858E+03 -3.89259E+03  2.16128E+02 -4.63190E+03 -2.48403E+03
 -2.37354E+03 -5.26670E+03  1.09358E+03 -6.43491E+03  3.22883E+03 -4.89227E+03  5.99216E+03 -2.02351E+03
  5.54079E+03  8.26281E+02  2.94607E+03  3.77427E+03 -3.46699E+02  3.83830E+03 -1.63028E+03  3.02675E+03
 -2.29798E+03  1.47795E+03 -1.51638E+03 -1.80112E+02 -3.64575E+02 -2.60865E+02 -8.80608E+02  1.85920E+02
 -1.43129E+03  9.89447E+01 -1.43973E+03 -2.34038E+02  2.08207E+02 -1.02363E+03 -5.62935E+02 -1.61757E+03
  2.44663E+03 -1.12122E+03  2.08246E+03  4.92331E+01  2.56823E+03  2.12434E+03  6.66958E+01  3.68794E+03
 -1.87794E+03  4.96254E+03 -3.95167E+03  2.96696E+03 -4.67180E+03 -4.44927E+02 -3.39918E+03 -2.92401E+03
 -1.62784E+03 -3.67822E+03  1.13568E+03 -3.33920E+03  1.95849E+03 -1.81876E+03  2.52304E+03  1.06606E+02
  1.43181E+03  1.19384E+03 -1.02727E+02  1.38070E+03 -7.36495E+02 -5.95534E+02 -1.31391E+02 -6.56281E+02
  9.96605E+02 -3.40576E+02  1.16705E+03  7.68446E+02  7.89864E+02  1.37689E+03  6.12678E+02  1.76596E+03
 -1.91037E+03  1.55338E+03 -2.17925E+03  1.73298E+02 -2.01328E+03 -1.47625E+03 -4.78856E+01 -2.88678E+03
  1.71084E+03 -2.41931E+03  2.22943E+03 -5.20380E+02  3.00602E+03 -1.37104E+02  1.62303E+03  2.20547E+03
  6.19065E+02  2.34108E+03 -9.50944E+02  1.61096E+03 -1.68827E+03  1.08160E+03 -1.22116E+03 -1.96977E+01
 -7.48939E+02 -1.71709E+02 -7.25580E+02  6.71394E+02 -1.41450E+03  1.89099E+01 -2.07182E+03 -7.76324E+02
 -1.76683E+03 -8.20374E+02 -9.41998E+02 -2.41714E+03  1.52992E+03 -3.10558E+03  2.27501E+03 -7.20021E+02
  2.12668E+03  2.29725E+02  7.25207E+02  1.45638E+03 -3.68665E+02  2.47738E+03 -1.67726E+03  1.43944E+03
