 $NMID ID='MM_0lb_SNR800_12hz_g55_16.RAW', FMTDAT='(8E13.5)'
 TRAMP=1., VOLUME=1. $END
  3.10055E+05  2.94748E+02  3.38267E+05  2.50658E+05  8.49789E+04  3.38289E+05 -1.32698E+05  2.51087E+05
 -1.90455E+05  8.35200E+04 -1.12439E+05 -3.23915E+04  8.26239E+02 -5.07384E+04  5.37034E+04 -3.16810E+02
  3.54825E+04  5.33492E+04 -1.67199E+04  7.59897E+04 -6.05899E+04  6.40168E+04 -8.48806E+04  3.20162E+04
 -8.18689E+04 -1.17093E+04 -5.79077E+04 -5.21607E+04 -1.50647E+04 -7.06377E+04  2.77624E+04 -4.61734E+04
  4.10001E+04  3.65012E+03  1.65232E+04  4.82536E+04 -3.47552E+04  4.77535E+04 -6.75315E+04 -1.16893E+02
 -5.41323E+04 -5.69789E+04 -7.30759E+03 -7.84019E+04  3.42837E+04 -5.60048E+04  4.93699E+04 -1.80000E+04
  4.43473E+04  1.11584E+04  3.24243E+04  2.61354E+04  1.58229E+04  3.00963E+04 -5.76474E+03  2.75152E+04
 -2.23920E+04  1.22821E+04 -1.85022E+04 -5.40400E+03  6.03482E+03 -7.38880E+03  2.28878E+04  1.31825E+04
  6.78052E+03  3.63274E+04 -3.32316E+04  3.64554E+04 -6.48748E+04  2.23827E+03 -5.80312E+04 -4.36844E+04
 -1.24388E+04 -6.46758E+04  4.08571E+04 -4.67135E+04  6.00800E+04 -2.28182E+03  3.54906E+04  3.33798E+04
 -5.47538E+03  3.80298E+04 -3.08008E+04  1.75915E+04 -3.20864E+04 -3.86203E+03 -1.78440E+04 -1.15654E+04
 -9.05349E+03 -1.42224E+04 -2.41714E+02 -1.87568E+04  7.99977E+03 -2.31927E+04  1.57088E+04 -1.27405E+04
  1.09606E+04  5.41231E+03 -9.39188E+03  1.31731E+04 -2.21258E+04 -5.93342E+03 -8.58055E+03 -3.57801E+04
  2.39989E+04 -4.51758E+04  5.01950E+04 -2.04207E+04  4.72994E+04  2.02270E+04  1.65331E+04  4.57798E+04
 -1.59902E+04  3.49819E+04 -2.66705E+04  2.53269E+03 -1.04828E+04 -2.87728E+04  2.12043E+04 -3.54261E+04
  4.26635E+04 -1.01088E+04  3.81974E+04  2.45270E+04  2.00098E+04  4.92253E+04 -8.04365E+03  5.32825E+04
 -3.34536E+04  3.64073E+04 -4.51113E+04  1.02780E+04 -4.52119E+04 -1.74521E+04 -2.49007E+04 -4.00631E+04
  7.70521E+03 -4.03946E+04  3.32624E+04 -1.60344E+04  3.09993E+04  1.09050E+04  4.68784E+03  1.99661E+04
 -1.36657E+04  9.24649E+03 -1.08967E+04 -7.79425E+03  5.54915E+03 -1.09698E+04  1.83363E+04  5.82375E+03
  1.41112E+04  2.21781E+04 -5.38484E+03  2.62743E+04 -2.28850E+04  1.30009E+04 -2.98303E+04 -3.89984E+03
 -2.33108E+04 -1.78600E+04 -1.00893E+04 -2.26056E+04  4.38742E+03 -2.28224E+04  1.80548E+04 -2.06907E+04
  2.92885E+04 -1.33001E+04  3.55527E+04  3.79012E+03  2.52970E+04  2.23914E+04  4.74756E+03  3.91188E+04
 -1.88650E+04  3.18777E+04 -2.95858E+04  1.10759E+04 -2.18564E+04 -9.69415E+03 -4.56102E+03 -1.30745E+04
  1.21729E+03 -1.96865E+03 -6.19780E+03  7.49416E+03 -1.80369E+04  4.99194E+03 -1.84546E+04 -8.19787E+03
 -1.10417E+04 -2.13285E+04  5.34590E+03 -2.54650E+04  1.72827E+04 -1.83029E+04  2.06519E+04 -1.55526E+03
  1.29461E+04  1.45701E+04 -1.23940E+03  2.14116E+04 -1.49157E+04  1.22302E+04 -2.14885E+04 -4.35116E+03
 -1.57325E+04 -1.90305E+04 -1.99182E+03 -2.56925E+04  1.14180E+04 -2.10139E+04  2.10478E+04 -1.07211E+04
  1.96772E+04 -2.18572E+02  1.44492E+04  4.84748E+03  7.46143E+03  8.94603E+02  1.05731E+04 -1.57907E+03
  1.96225E+04  2.93233E+03  2.22872E+04  1.67668E+04  1.48369E+04  3.38569E+04 -2.85907E+03  3.92453E+04
 -2.25943E+04  3.20930E+04 -3.69939E+04  1.65484E+04 -3.88052E+04 -3.27676E+03 -3.19572E+04 -2.25644E+04
 -1.30017E+04 -3.21398E+04  1.11795E+04 -2.84059E+04  2.41968E+04 -1.39748E+04  2.12754E+04  6.82468E+03
  7.40614E+03  1.64468E+04 -1.00926E+04  1.41013E+04 -1.84488E+04  2.91841E+03 -1.39120E+04 -1.13839E+04
 -4.26047E+02 -1.73904E+04  9.29352E+03 -1.33023E+04  1.16394E+04 -1.36821E+03  2.84719E+03  7.42273E+03
 -7.48967E+03  3.12384E+03 -7.92236E+03 -6.27459E+03 -9.84706E+02 -1.58382E+04  1.08530E+04 -1.69226E+04
  1.97788E+04 -9.42008E+03  2.19309E+04  3.22623E+03  1.93305E+04  1.56804E+04  8.95676E+03  2.44203E+04
 -4.38361E+03  2.62471E+04 -1.70400E+04  1.63782E+04 -1.94729E+04  3.74317E+03 -1.32102E+04 -4.49216E+03
 -5.81666E+03 -6.02583E+03 -9.52484E+02  1.03456E+03 -2.27743E+03  3.20562E+03 -5.78007E+03  4.82390E+03
 -1.25989E+04 -2.30911E+02 -1.28235E+04 -1.04736E+04 -5.26103E+03 -1.68944E+04  5.38781E+03 -1.34635E+04
  1.08091E+04 -5.58254E+03  7.82008E+03  3.58889E+03  1.13620E+02  5.05513E+03 -6.24003E+03 -2.79667E+02
 -6.11499E+03 -8.42536E+03 -8.80016E+02 -1.25606E+04  7.35318E+03 -1.35411E+04  1.67580E+04 -7.28442E+03
  1.99956E+04  1.80872E+03  1.41275E+04  1.14501E+04  2.63694E+03  1.56033E+04 -8.04923E+03  1.33120E+04
 -1.07036E+04  3.63049E+03 -5.12224E+03 -2.64432E+03  1.98825E+03 -3.81017E+03  7.14713E+03 -1.07263E+03
  6.42433E+03  5.97227E+03  1.16029E+03  1.07125E+04 -7.61963E+03  1.01637E+04 -1.27282E+04  2.73066E+03
 -9.11089E+03 -6.45352E+03  1.80485E+02 -1.13887E+04  7.48572E+03 -5.82405E+03  7.53789E+03  2.50021E+03
  1.66960E+03  7.67881E+03 -6.62644E+03  9.21024E+03 -1.08181E+04  4.35469E+03 -1.08251E+04 -3.44007E+03
 -6.45901E+03 -1.23886E+04  2.85730E+03 -1.44149E+04  1.23348E+04 -8.60231E+03  1.32019E+04  2.19473E+03
  8.06369E+03  1.07943E+04 -1.09276E+03  1.26077E+04 -9.58536E+03  7.33967E+03 -9.97917E+03 -1.12004E+03
 -8.80610E+03 -8.89078E+03 -1.98798E+03 -9.55245E+03  5.13317E+03 -7.97798E+03  6.14868E+03 -3.45604E+03
  4.17514E+03  1.32000E+03 -8.36652E+02  1.99707E+03  2.01450E+02 -2.16886E+03  1.87162E+03 -5.66488E+03
  8.76233E+03 -3.47306E+03  1.18128E+04  1.57324E+03  1.16688E+04  8.26408E+03  8.43135E+03  1.62182E+04
 -3.74243E+03  1.86379E+04 -1.57654E+04  1.37514E+04 -2.04891E+04  2.61045E+03 -1.60874E+04 -6.74592E+03
 -7.80912E+03 -1.33798E+04 -2.60336E+02 -1.11356E+04  4.10477E+03 -6.19333E+03  3.92362E+03 -3.84000E+03
  2.78056E+03 -2.94704E+03  3.51243E+03 -3.29726E+03  4.85624E+03 -2.85083E+03  6.25005E+03 -1.00107E+03
  8.70677E+03  2.06998E+03  4.13110E+03  7.31160E+03 -1.83822E+03  8.49695E+03 -8.82395E+03  6.50293E+03
 -1.10062E+04 -1.28317E+03 -6.67347E+03 -7.65821E+03 -8.51351E+02 -1.18654E+04  6.87433E+03 -1.16504E+04
  1.22714E+04 -6.93708E+03  1.47488E+04  1.89832E+03  1.04314E+04  1.04151E+04  1.53876E+03  1.30433E+04
 -5.61012E+03  1.14426E+04 -7.56850E+03  3.70626E+03 -5.03121E+03 -1.86643E+03 -2.20017E+03 -1.19518E+03
 -1.34017E+03  9.46547E+01 -2.05335E+03  2.49913E+03 -5.01472E+03  1.80840E+03 -7.95526E+03 -1.23996E+03
 -4.86677E+03 -7.87547E+03  4.94857E+02 -1.10962E+04  6.41286E+03 -1.04122E+04  1.05948E+04 -2.89058E+03
  1.05898E+04  5.27056E+03  5.06893E+03  9.05785E+03 -2.11312E+03  1.05854E+04 -7.49994E+03  7.14041E+03
 -9.97522E+03  6.42446E+02 -7.74192E+03 -6.72063E+03 -1.07676E+03 -8.52451E+03  4.48136E+03 -6.47446E+03
  6.82161E+03 -2.71328E+03  4.60485E+03  1.54372E+03  1.45180E+03  3.72985E+03  1.20014E+03  1.31515E+03
  2.17056E+03  1.17710E+03  2.43417E+03  1.31483E+03  2.99384E+03  3.88538E+03  2.54965E+03  5.36878E+03
 -2.28159E+03  8.06457E+03 -7.11984E+03  8.53037E+03 -1.04802E+04  2.50683E+03 -1.13653E+04 -3.97892E+03
 -5.14218E+03 -1.00892E+04  1.54882E+03 -1.16648E+04  6.22504E+03 -7.17367E+03  8.60169E+03 -1.92896E+03
  6.55323E+03  3.88414E+03  1.69262E+03  6.16894E+03 -2.89493E+03  3.77939E+03 -4.23581E+03 -6.03504E+02
 -1.92805E+03 -4.56009E+03  2.15187E+03 -4.43071E+03  4.43639E+03 -2.30786E+03  4.07021E+03  1.15635E+03
  2.31228E+03  1.94889E+03  1.52101E+03  1.29722E+03 -8.23157E+02  1.66855E+03  1.96315E+03 -4.97473E+02
  1.59531E+03 -6.12706E+02  4.15411E+03  1.58191E+03  2.08518E+03  5.75794E+03 -7.35723E+02  7.47940E+03
 -4.84374E+03  4.64855E+03 -6.47427E+03  1.38904E+03 -6.03959E+03 -2.30872E+03 -2.02747E+03 -3.54964E+03
  1.01541E+03 -3.91113E+03  2.49624E+03 -2.06220E+03  2.14917E+03  2.35837E+03 -1.02581E+03  3.26139E+03
 -4.37922E+03  2.05874E+03 -4.48265E+03 -2.66143E+03 -2.46406E+03 -5.63809E+03  6.44151E+02 -5.46774E+03
  3.40639E+03 -3.17601E+03  3.65984E+03 -1.87696E+02  3.45453E+03  1.36773E+03  6.51025E+02  3.20029E+03
 -2.04349E+03  7.83281E+02 -2.58321E+03 -1.80097E+03  1.00724E+03 -3.91258E+03  5.24247E+03 -3.43093E+03
  5.93024E+03  4.39760E+02  6.53360E+03  3.79056E+03  2.02314E+03  6.10250E+03 -2.22953E+03  5.88247E+03
 -5.13960E+03  2.29391E+03 -5.30001E+03 -7.51270E+02 -2.98483E+03 -4.35163E+03  1.29735E+03 -3.87239E+03
  4.12389E+03 -2.00271E+03  2.58275E+03  1.52986E+03  8.78202E+02  3.88291E+03 -1.69128E+02  3.24934E+03
 -1.68595E+03  2.08256E+03 -1.51570E+03  6.83229E+02 -6.75529E+02  6.60669E+02 -1.26166E+03  1.04001E+03
 -1.75165E+03  2.90470E+03 -4.88857E+03  2.10523E+03 -6.16317E+03  1.01718E+02 -7.20671E+03 -3.97787E+03
 -3.43873E+03 -8.41649E+03  1.73956E+03 -9.68142E+03  5.59671E+03 -7.30368E+03  9.11712E+03 -2.85846E+03
  8.24057E+03  1.26166E+03  5.13203E+03  5.80009E+03  1.26480E+01  6.20274E+03 -2.55351E+03  4.76208E+03
 -3.69055E+03  1.98418E+03 -2.20679E+03 -6.58151E+02 -6.94280E+02 -3.73098E+02 -4.94128E+02 -1.12025E+02
 -1.44653E+03  3.36029E+02 -1.43007E+03 -4.92583E+02 -2.61751E+02 -1.78249E+03 -3.13496E+02 -2.36060E+03
  3.48440E+03 -2.26874E+03  3.15996E+03 -3.55364E+02  4.21647E+03  3.48300E+03  7.37425E+02  6.23949E+03
 -2.97931E+03  7.17409E+03 -6.57165E+03  3.73580E+03 -7.26508E+03 -5.82353E+02 -5.48064E+03 -4.39522E+03
 -2.73365E+03 -5.85118E+03  1.74948E+03 -5.73241E+03  3.80392E+03 -2.80831E+03  3.63587E+03  1.23250E+02
  2.10573E+03  1.77278E+03 -1.50599E+02  1.75624E+03 -1.06330E+03 -7.93578E+00  5.64154E+01 -1.37217E+03
  1.84125E+03 -7.73376E+02  1.94376E+03  7.60061E+02  1.82732E+03  2.60105E+03  4.40317E+02  2.70375E+03
 -3.06699E+03  2.95578E+03 -3.92980E+03  4.07646E+02 -3.66309E+03 -2.61981E+03 -6.22185E+01 -4.88083E+03
  2.82190E+03 -4.06336E+03  4.22062E+03 -9.18427E+02  4.23639E+03  4.76656E+02  2.36998E+03  3.78167E+03
  7.81189E+02  3.88858E+03 -1.82834E+03  3.40177E+03 -2.48986E+03  1.75598E+03 -1.99543E+03 -1.95067E+02
 -1.16136E+03 -9.46216E+01 -1.28940E+03  5.56857E+02 -2.32982E+03  6.12543E+02 -3.01171E+03 -9.84455E+02
 -2.97712E+03 -1.71250E+03 -9.65151E+02 -3.81706E+03  1.77003E+03 -4.23135E+03  3.35990E+03 -2.04400E+03
  3.73622E+03  5.53524E+02  1.60924E+03  2.61045E+03 -1.06705E+02  3.56312E+03 -2.84821E+03  2.37169E+03
