 $NMID ID='MM_0lb_SNR800_7hz_g40_33.RAW', FMTDAT='(8E13.5)'
 TRAMP=1., VOLUME=1. $END
  3.09763E+05  1.82467E+02  3.37814E+05  2.50699E+05  8.52591E+04  3.38559E+05 -1.32811E+05  2.52093E+05
 -1.90770E+05  8.40275E+04 -1.12708E+05 -3.22691E+04  2.88373E+02 -5.09232E+04  5.43728E+04 -7.11151E+02
  3.56819E+04  5.26073E+04 -1.60195E+04  7.59027E+04 -6.10361E+04  6.47202E+04 -8.55895E+04  3.29542E+04
 -8.27028E+04 -1.14022E+04 -5.82505E+04 -5.29118E+04 -1.49428E+04 -7.09938E+04  2.82356E+04 -4.69905E+04
  4.18864E+04  3.49698E+03  1.71967E+04  4.88823E+04 -3.51088E+04  4.80573E+04 -6.82469E+04  1.51259E+02
 -5.55123E+04 -5.79665E+04 -7.54420E+03 -7.92961E+04  3.49429E+04 -5.78722E+04  4.96082E+04 -1.84777E+04
  4.61389E+04  1.16989E+04  3.30778E+04  2.63572E+04  1.59565E+04  3.09207E+04 -6.19051E+03  2.76859E+04
 -2.27991E+04  1.19048E+04 -1.84597E+04 -5.60458E+03  7.67712E+03 -7.57439E+03  2.36493E+04  1.40880E+04
  7.13311E+03  3.80258E+04 -3.42309E+04  3.72123E+04 -6.61291E+04  2.17186E+03 -5.92154E+04 -4.47496E+04
 -1.23526E+04 -6.63190E+04  4.23309E+04 -4.76746E+04  6.22064E+04 -2.61185E+03  3.72520E+04  3.48871E+04
 -5.36958E+03  3.99820E+04 -3.23510E+04  1.91990E+04 -3.43263E+04 -3.39101E+03 -1.98078E+04 -1.19524E+04
 -1.02666E+04 -1.58656E+04 -7.11113E+02 -2.01945E+04  8.49706E+03 -2.35427E+04  1.62092E+04 -1.27634E+04
  1.00289E+04  6.36958E+03 -1.08507E+04  1.28673E+04 -2.37196E+04 -7.33521E+03 -9.05689E+03 -3.81989E+04
  2.57386E+04 -4.71698E+04  5.29211E+04 -2.10286E+04  4.95222E+04  2.10744E+04  1.75470E+04  4.78964E+04
 -1.68371E+04  3.71768E+04 -2.77835E+04  2.68458E+03 -1.20385E+04 -2.97469E+04  2.12460E+04 -3.78758E+04
  4.55175E+04 -1.16998E+04  4.13538E+04  2.56369E+04  2.20098E+04  5.20351E+04 -8.31741E+03  5.75901E+04
 -3.63464E+04  3.96941E+04 -4.91439E+04  1.16782E+04 -4.88940E+04 -1.87478E+04 -2.68006E+04 -4.29071E+04
  8.45673E+03 -4.32579E+04  3.51755E+04 -1.76461E+04  3.27600E+04  1.08975E+04  5.76858E+03  2.16336E+04
 -1.39855E+04  1.02268E+04 -1.15616E+04 -7.33958E+03  5.43625E+03 -1.11942E+04  1.88163E+04  5.28218E+03
  1.56570E+04  2.30209E+04 -5.22797E+03  2.75083E+04 -2.35674E+04  1.54172E+04 -3.23438E+04 -2.29029E+03
 -2.64417E+04 -1.89807E+04 -1.28740E+04 -2.63327E+04  4.16197E+03 -2.69599E+04  2.06886E+04 -2.41265E+04
  3.36056E+04 -1.45488E+04  3.96579E+04  5.88078E+03  2.81048E+04  2.51797E+04  4.62682E+03  4.25594E+04
 -2.04759E+04  3.45782E+04 -3.10982E+04  1.22619E+04 -2.31611E+04 -1.03948E+04 -5.18253E+03 -1.30789E+04
  3.71955E+02 -9.57203E+02 -7.94430E+03  8.61783E+03 -2.11899E+04  5.17906E+03 -2.16581E+04 -1.05095E+04
 -1.25387E+04 -2.46727E+04  6.17059E+03 -2.89203E+04  1.97989E+04 -2.06306E+04  2.40469E+04 -1.54076E+03
  1.55919E+04  1.69660E+04 -8.73849E+02  2.44872E+04 -1.83094E+04  1.41595E+04 -2.48508E+04 -5.02540E+03
 -1.80750E+04 -2.19831E+04 -1.90603E+03 -2.93012E+04  1.28255E+04 -2.44537E+04  2.37576E+04 -1.31473E+04
  2.34223E+04 -6.31170E+02  1.68201E+04  5.04588E+03  9.29053E+03  1.25502E+03  1.28679E+04 -2.59339E+03
  2.29620E+04  2.51253E+03  2.73842E+04  1.91293E+04  1.87768E+04  3.98548E+04 -2.42927E+03  4.66404E+04
 -2.65925E+04  3.92409E+04 -4.46620E+04  2.09138E+04 -4.80306E+04 -3.76784E+03 -3.90824E+04 -2.80143E+04
 -1.48630E+04 -3.99175E+04  1.47802E+04 -3.45181E+04  2.96249E+04 -1.63984E+04  2.57452E+04  8.94994E+03
  8.43391E+03  1.98561E+04 -1.25882E+04  1.62762E+04 -2.16333E+04  2.74434E+03 -1.62438E+04 -1.36362E+04
 -4.13692E+02 -2.04244E+04  1.14097E+04 -1.54467E+04  1.47004E+04 -1.56778E+03  4.02343E+03  9.75644E+03
 -9.13849E+03  4.66793E+03 -1.00256E+04 -7.29659E+03 -2.30683E+03 -2.00156E+04  1.26140E+04 -2.16313E+04
  2.51015E+04 -1.21967E+04  2.89909E+04  3.70518E+03  2.50626E+04  2.00046E+04  1.16924E+04  3.19794E+04
 -6.19922E+03  3.39114E+04 -2.22801E+04  2.06504E+04 -2.44561E+04  4.01773E+03 -1.66572E+04 -6.93900E+03
 -6.82698E+03 -8.16315E+03 -7.43490E+02 -1.14694E+01 -3.16138E+03  3.57504E+03 -7.82422E+03  6.07590E+03
 -1.57450E+04 -1.22969E+03 -1.60666E+04 -1.30690E+04 -6.81538E+03 -2.05318E+04  6.59413E+03 -1.71133E+04
  1.42457E+04 -7.19681E+03  9.88033E+03  4.74216E+03 -7.51679E+02  6.93673E+03 -8.68204E+03 -2.34187E+02
 -8.75696E+03 -1.09218E+04 -1.70417E+03 -1.78102E+04  1.03765E+04 -1.83163E+04  2.21356E+04 -9.75913E+03
  2.58729E+04  2.87297E+03  1.88849E+04  1.59980E+04  3.30565E+03  2.11164E+04 -1.06089E+04  1.68295E+04
 -1.37426E+04  4.95557E+03 -7.38887E+03 -3.70417E+03  2.02227E+03 -4.89878E+03  8.99247E+03 -1.30135E+03
  8.45310E+03  7.91722E+03  1.32038E+03  1.36979E+04 -1.02638E+04  1.35253E+04 -1.74560E+04  2.97507E+03
 -1.18449E+04 -9.32234E+03  2.78403E+02 -1.50090E+04  1.02124E+04 -8.05635E+03  1.04183E+04  3.75791E+03
  3.05123E+03  1.15904E+04 -8.59133E+03  1.31816E+04 -1.58098E+04  5.78772E+03 -1.60660E+04 -5.97785E+03
 -8.93071E+03 -1.78185E+04  4.45912E+03 -2.09734E+04  1.74363E+04 -1.21350E+04  1.94464E+04  3.47455E+03
  1.15446E+04  1.52947E+04 -2.10613E+03  1.72616E+04 -1.34011E+04  9.59483E+03 -1.43486E+04 -1.79448E+03
 -1.16511E+04 -1.17009E+04 -1.64167E+03 -1.40370E+04  6.83832E+03 -1.09220E+04  8.57248E+03 -3.70100E+03
  5.61816E+03  2.77995E+03 -1.22595E+03  2.14686E+03 -1.25600E+03 -3.85261E+03  2.83201E+03 -8.56814E+03
  1.32483E+04 -6.04383E+03  1.86054E+04  1.84416E+03  1.80678E+04  1.28893E+04  1.15169E+04  2.43587E+04
 -5.76105E+03  2.78142E+04 -2.25256E+04  1.99148E+04 -2.96094E+04  3.40390E+03 -2.33377E+04 -1.08760E+04
 -1.16325E+04 -1.95743E+04 -4.59460E+01 -1.67982E+04  6.11052E+03 -9.67311E+03  6.38038E+03 -5.95794E+03
  4.61614E+03 -3.13140E+03  4.36911E+03 -4.27733E+03  6.65531E+03 -4.23682E+03  9.25603E+03 -1.32416E+03
  1.24889E+04  2.92905E+03  7.10100E+03  1.03806E+04 -2.40689E+03  1.34166E+04 -1.30586E+04  1.01327E+04
 -1.68300E+04 -1.80762E+03 -1.19696E+04 -1.24224E+04 -1.69303E+03 -1.86101E+04  9.98264E+03 -1.83520E+04
  1.93796E+04 -9.90212E+03  2.22277E+04  3.73329E+03  1.56045E+04  1.68048E+04  1.79334E+03  2.11287E+04
 -8.47552E+03  1.66652E+04 -1.21818E+04  5.97983E+03 -8.69012E+03 -1.98601E+03 -3.99330E+03 -2.40345E+03
 -1.48135E+03 -7.04376E+02 -2.78810E+03  2.90310E+03 -6.95059E+03  3.14489E+03 -1.12402E+04 -1.68820E+03
 -9.18660E+03 -1.16207E+04 -3.84496E+01 -1.69478E+04  1.06321E+04 -1.56664E+04  1.75121E+04 -5.24082E+03
  1.73924E+04  8.09064E+03  8.42212E+03  1.59232E+04 -3.32105E+03  1.69736E+04 -1.28700E+04  1.10405E+04
 -1.68692E+04  2.72897E+02 -1.22500E+04 -1.07648E+04 -1.04292E+03 -1.51653E+04  7.94004E+03 -1.06455E+04
  1.12444E+04 -3.38017E+03  7.48074E+03  3.44291E+03  2.70699E+03  4.95984E+03  2.15568E+03  2.28143E+03
  2.91024E+03  1.03544E+03  4.26098E+03  1.99054E+03  5.71502E+03  5.75055E+03  4.30988E+03  9.83512E+03
 -3.40745E+03  1.45710E+04 -1.25872E+04  1.41012E+04 -1.91796E+04  3.29108E+03 -1.91778E+04 -8.57886E+03
 -9.41978E+03 -1.85592E+04  2.72596E+03 -1.96704E+04  1.09691E+04 -1.33141E+04  1.50523E+04 -3.47945E+03
  1.17292E+04  6.39167E+03  2.59152E+03  1.04838E+04 -5.34321E+03  6.86361E+03 -7.58436E+03 -1.04903E+03
 -3.44107E+03 -7.77333E+03  4.17521E+03 -8.36345E+03  7.74749E+03 -4.05613E+03  7.47397E+03  1.80500E+03
  4.64119E+03  3.57457E+03  1.84632E+03  3.26233E+03 -8.14178E+02  2.40167E+03  1.84235E+03 -5.50335E+02
  3.56493E+03 -1.56340E+03  7.19752E+03  2.91949E+03  4.28347E+03  9.98241E+03 -1.23020E+03  1.28141E+04
 -8.85050E+03  8.97411E+03 -1.25269E+04  2.53052E+03 -1.09120E+04 -4.52255E+03 -4.80962E+03 -7.57433E+03
  9.71427E+02 -7.38822E+03  5.04332E+03 -3.35700E+03  4.38928E+03  3.38761E+03 -1.36912E+03  6.49656E+03
 -7.80010E+03  3.97825E+03 -8.76668E+03 -4.17997E+03 -5.20453E+03 -1.00171E+04  1.40371E+03 -1.06765E+04
  6.72407E+03 -6.46094E+03  7.65217E+03 -6.83454E+02  6.13928E+03  3.01057E+03  6.80020E+02  5.18009E+03
 -3.81503E+03  1.73752E+03 -4.77484E+03 -3.79046E+03  1.65943E+03 -8.03277E+03  9.55072E+03 -6.76188E+03
  1.26681E+04  1.40499E+03  1.17465E+04  8.80643E+03  3.59907E+03  1.30353E+04 -4.79317E+03  1.24172E+04
 -1.04429E+04  5.38948E+03 -1.08691E+04 -1.64354E+03 -5.75416E+03 -8.25200E+03  2.24031E+03 -7.95310E+03
  7.99894E+03 -3.81221E+03  6.98072E+03  2.97369E+03  2.49959E+03  6.77795E+03 -1.65700E+03  5.89217E+03
 -3.13001E+03  4.07739E+03 -3.17250E+03  1.01445E+03 -1.26534E+03  1.63535E+03 -1.57169E+03  2.55810E+03
 -3.66848E+03  4.75405E+03 -8.91544E+03  4.45027E+03 -1.32030E+04  1.97660E+02 -1.45272E+04 -8.92916E+03
 -7.30342E+03 -1.70284E+04  3.17461E+03 -2.02915E+04  1.26880E+04 -1.53150E+04  1.88640E+04 -5.84575E+03
  1.82385E+04  4.14737E+03  1.14309E+04  1.23230E+04  1.28223E+03  1.35990E+04 -5.43928E+03  1.03881E+04
 -7.73931E+03  3.45119E+03 -4.94027E+03 -1.59449E+03 -1.47105E+03 -1.37042E+03 -8.78442E+02 -4.92206E+01
 -2.20781E+03  7.48808E+02 -2.86177E+03 -7.48249E+02 -1.68850E+03 -3.50866E+03  6.49818E+02 -4.81104E+03
  5.53625E+03 -4.44429E+03  9.01006E+03 -1.50471E+02  9.30739E+03  7.43230E+03  3.54179E+03  1.40388E+04
 -6.64038E+03  1.57633E+04 -1.47978E+04  9.19834E+03 -1.69954E+04 -1.82043E+03 -1.28360E+04 -1.02450E+04
 -5.08019E+03 -1.44992E+04  3.83367E+03 -1.33963E+04  9.10714E+03 -6.65726E+03  9.22845E+03  3.01748E+01
  5.40510E+03  4.64335E+03 -2.25229E+02  4.33944E+03 -2.87349E+03 -2.46627E+02  2.35236E+02 -2.93306E+03
  4.32313E+03 -2.13550E+03  5.66154E+03  1.49988E+03  3.90609E+03  5.40141E+03 -1.04180E+02  7.51488E+03
 -5.99658E+03  6.89947E+03 -9.58505E+03  9.14272E+02 -8.65019E+03 -6.84424E+03 -1.07164E+03 -1.21255E+04
  6.68380E+03 -1.03991E+04  1.11270E+04 -3.87299E+03  1.08049E+04  3.21621E+03  6.46755E+03  8.39724E+03
  1.59059E+03  1.00016E+04 -3.48256E+03  7.88529E+03 -6.18029E+03  4.21688E+03 -5.14365E+03  6.54596E+02
 -3.07568E+03 -6.25381E+02 -2.74583E+03  9.60347E+02 -4.99611E+03  1.65965E+03 -7.45923E+03 -1.16249E+03
 -6.81077E+03 -5.15877E+03 -1.81492E+03 -9.73120E+03  4.60398E+03 -9.89007E+03  8.81080E+03 -4.88650E+03
  9.86389E+03  1.05885E+03  6.13686E+03  7.42494E+03 -1.14374E+03  1.01899E+04 -7.28963E+03  6.47165E+03
