 $NMID ID='MM_0lb_SNR800_17hz_g55_31.RAW', FMTDAT='(8E13.5)'
 TRAMP=1., VOLUME=1. $END
  3.09886E+05  4.19921E+02  3.37274E+05  2.50286E+05  8.46740E+04  3.37793E+05 -1.32866E+05  2.50894E+05
 -1.89957E+05  8.28755E+04 -1.11532E+05 -3.29112E+04  1.12993E+03 -5.05295E+04  5.40429E+04 -2.73159E+00
  3.52426E+04  5.30038E+04 -1.69502E+04  7.51544E+04 -6.09827E+04  6.34674E+04 -8.34626E+04  3.18688E+04
 -8.04272E+04 -1.10807E+04 -5.68918E+04 -5.08065E+04 -1.50454E+04 -6.90278E+04  2.68521E+04 -4.53097E+04
  3.97676E+04  3.58685E+03  1.54792E+04  4.73157E+04 -3.43649E+04  4.70342E+04 -6.62899E+04 -2.27629E+02
 -5.25935E+04 -5.65746E+04 -6.67398E+03 -7.62575E+04  3.40877E+04 -5.44183E+04  4.73252E+04 -1.71271E+04
  4.29586E+04  1.11871E+04  3.15687E+04  2.50340E+04  1.60236E+04  2.89056E+04 -5.15713E+03  2.70897E+04
 -2.20585E+04  1.28086E+04 -1.88417E+04 -4.66172E+03  5.10003E+03 -7.66493E+03  2.20363E+04  1.18701E+04
  7.45101E+03  3.46829E+04 -3.15910E+04  3.47468E+04 -6.25886E+04  2.19008E+03 -5.65078E+04 -4.24630E+04
 -1.22334E+04 -6.25549E+04  3.92068E+04 -4.46255E+04  5.73424E+04 -2.04919E+03  3.34823E+04  3.17558E+04
 -6.08535E+03  3.51108E+04 -2.92215E+04  1.47992E+04 -2.92570E+04 -4.93408E+03 -1.54293E+04 -1.04273E+04
 -7.78968E+03 -1.23880E+04 -7.25106E+02 -1.74218E+04  7.02400E+03 -2.27273E+04  1.52302E+04 -1.35595E+04
  1.19075E+04  4.85652E+03 -7.39101E+03  1.29660E+04 -2.05575E+04 -3.83043E+03 -8.24659E+03 -3.26473E+04
  2.18871E+04 -4.22441E+04  4.67609E+04 -1.94609E+04  4.40461E+04  1.88217E+04  1.51086E+04  4.32580E+04
 -1.53049E+04  3.26247E+04 -2.46193E+04  1.33986E+03 -9.37056E+03 -2.70288E+04  2.10549E+04 -3.29306E+04
  4.01597E+04 -8.33579E+03  3.36404E+04  2.31707E+04  1.72859E+04  4.48923E+04 -7.90021E+03  4.81604E+04
 -3.03128E+04  3.21116E+04 -4.02283E+04  9.04033E+03 -4.06996E+04 -1.59282E+04 -2.26173E+04 -3.63185E+04
  7.12895E+03 -3.61296E+04  3.04486E+04 -1.43265E+04  2.80700E+04  1.06350E+04  3.62065E+03  1.88122E+04
 -1.31600E+04  7.91978E+03 -1.01557E+04 -7.56866E+03  5.83169E+03 -1.02857E+04  1.75438E+04  6.30226E+03
  1.30242E+04  2.21381E+04 -6.26369E+03  2.42283E+04 -2.19948E+04  1.06403E+04 -2.67485E+04 -5.66254E+03
 -1.87896E+04 -1.69832E+04 -7.15896E+03 -1.87082E+04  3.97674E+03 -1.74989E+04  1.42583E+04 -1.65606E+04
  2.39426E+04 -1.24592E+04  3.05917E+04  2.22586E+03  2.25858E+04  1.82862E+04  4.30467E+03  3.44992E+04
 -1.70386E+04  2.91404E+04 -2.72349E+04  9.87210E+03 -2.02602E+04 -1.04126E+04 -4.14030E+03 -1.36586E+04
  1.99781E+03 -3.38434E+03 -3.86154E+03  5.89852E+03 -1.47044E+04  5.14398E+03 -1.48783E+04 -6.01634E+03
 -9.35430E+03 -1.75195E+04  4.82468E+03 -2.13190E+04  1.40222E+04 -1.52898E+04  1.66212E+04 -1.72885E+03
  1.03892E+04  1.19534E+04 -1.34290E+03  1.74985E+04 -1.16246E+04  9.78611E+03 -1.74816E+04 -3.88817E+03
 -1.29739E+04 -1.57314E+04 -1.78896E+03 -2.06852E+04  9.29679E+03 -1.73094E+04  1.73890E+04 -8.19366E+03
  1.59696E+04  1.96703E+02  1.17462E+04  4.17123E+03  6.20227E+03  7.21400E+02  8.42184E+03 -1.52175E+03
  1.58378E+04  2.77807E+03  1.71108E+04  1.39804E+04  1.07113E+04  2.73221E+04 -2.98633E+03  3.05999E+04
 -1.81215E+04  2.40599E+04 -2.80264E+04  1.17245E+04 -2.90374E+04 -2.22054E+03 -2.43811E+04 -1.67502E+04
 -1.10525E+04 -2.39274E+04  8.06664E+03 -2.20127E+04  1.90052E+04 -1.20062E+04  1.75221E+04  4.50471E+03
  6.70391E+03  1.25349E+04 -8.03471E+03  1.18208E+04 -1.47757E+04  2.52620E+03 -1.16067E+04 -8.96643E+03
 -2.39838E+02 -1.36169E+04  7.01908E+03 -1.03847E+04  8.88541E+03 -1.30187E+03  1.84441E+03  5.58756E+03
 -6.20841E+03  1.67332E+03 -4.96909E+03 -5.17494E+03  2.97239E+02 -1.20920E+04  8.91604E+03 -1.19121E+04
  1.42339E+04 -5.70931E+03  1.48145E+04  2.69988E+03  1.28288E+04  1.14125E+04  5.95331E+03  1.68708E+04
 -2.36894E+03  1.87535E+04 -1.17552E+04  1.19742E+04 -1.35279E+04  3.14867E+03 -9.92176E+03 -2.49492E+03
 -5.04116E+03 -3.98926E+03 -7.26347E+02  1.37405E+03 -2.29322E+03  2.09134E+03 -4.26906E+03  4.10323E+03
 -9.30092E+03 -5.97698E+02 -9.74617E+03 -8.04383E+03 -3.84336E+03 -1.26195E+04  4.06304E+03 -1.01693E+04
  8.45664E+03 -4.36002E+03  5.90438E+03  2.47363E+03  3.41038E+02  3.75598E+03 -4.14259E+03  1.37415E+02
 -4.00249E+03 -6.04130E+03 -8.99479E+02 -8.58711E+03  4.79551E+03 -9.60482E+03  1.18369E+04 -5.05091E+03
  1.36436E+04  7.67338E+02  1.02881E+04  7.36045E+03  2.01895E+03  1.05363E+04 -5.90486E+03  9.66923E+03
 -8.04504E+03  2.93000E+03 -4.31640E+03 -1.49911E+03  1.49715E+03 -2.45495E+03  5.38658E+03 -9.26355E+02
  4.65766E+03  4.03473E+03  1.08071E+03  7.50825E+03 -5.52898E+03  7.42096E+03 -9.24757E+03  1.91783E+03
 -5.46485E+03 -4.81625E+03 -3.32313E+01 -7.56772E+03  4.54343E+03 -3.85054E+03  4.34517E+03  1.21240E+03
  7.49505E+02  4.36376E+03 -4.63014E+03  5.95854E+03 -6.09120E+03  2.86887E+03 -5.94111E+03 -1.77131E+03
 -3.71223E+03 -7.64997E+03  1.85086E+03 -8.89805E+03  7.45782E+03 -5.58204E+03  7.88610E+03  1.30859E+03
  5.44018E+03  6.31498E+03 -1.48488E+02  8.77281E+03 -6.12683E+03  5.01946E+03 -6.27865E+03 -4.84451E+02
 -6.17582E+03 -5.90291E+03 -1.23381E+03 -6.08225E+03  3.29681E+03 -5.34582E+03  3.82929E+03 -2.61220E+03
  2.91894E+03  1.97436E+02  1.36281E+02  1.33163E+03  1.39366E+02 -7.86761E+02  5.64591E+02 -2.64388E+03
  5.11413E+03 -1.22819E+03  6.82285E+03  9.94709E+02  7.05031E+03  4.14530E+03  6.02387E+03  9.27159E+03
 -1.67905E+03  1.06056E+04 -9.52190E+03  8.22575E+03 -1.21782E+04  1.49430E+03 -9.55941E+03 -3.37688E+03
 -4.91448E+03 -8.00895E+03 -3.21490E+02 -6.51508E+03  2.70871E+03 -2.92720E+03  2.41297E+03 -2.53185E+03
  1.51624E+03 -1.95927E+03  2.33289E+03 -2.70969E+03  3.52938E+03 -1.77231E+03  4.06557E+03 -8.52066E+01
  5.41892E+03  1.50662E+03  1.85186E+03  4.46213E+03 -1.38249E+03  3.83197E+03 -5.01135E+03  3.72679E+03
 -6.25729E+03 -1.04799E+03 -3.01023E+03 -4.05658E+03  2.30620E+02 -6.41060E+03  3.86042E+03 -6.68106E+03
  6.77977E+03 -4.20878E+03  8.17945E+03  6.71260E+02  5.77383E+03  5.74920E+03  1.12193E+03  7.46986E+03
 -2.85889E+03  6.74705E+03 -4.45867E+03  2.35427E+03 -2.48813E+03 -1.03068E+03 -8.65198E+02 -4.89773E+02
 -5.73301E+02  2.78164E+02 -1.08945E+03  1.85536E+03 -3.00885E+03  1.06782E+03 -4.83625E+03 -4.84578E+02
 -2.04154E+03 -4.80440E+03  5.53134E+02 -5.76090E+03  3.36955E+03 -5.40121E+03  4.81836E+03 -1.81944E+03
  4.94292E+03  2.90145E+03  2.42345E+03  4.49360E+03 -1.02985E+03  5.56357E+03 -3.66460E+03  3.61522E+03
 -4.88757E+03  8.61828E+02 -4.15276E+03 -3.06797E+03 -5.66461E+02 -4.13197E+03  2.25332E+03 -3.31077E+03
  3.30686E+03 -1.43880E+03  2.13639E+03  6.42906E+02  4.66841E+02  2.07895E+03  9.26914E+02  7.25518E+02
  1.79715E+03  5.17497E+02  1.60167E+03  1.01209E+03  1.42833E+03  2.58651E+03  1.71216E+03  2.12858E+03
 -1.50172E+03  3.74516E+03 -3.35580E+03  4.85432E+03 -4.40500E+03  1.66943E+03 -5.61333E+03 -1.29237E+03
 -2.21514E+03 -4.63978E+03  7.29760E+02 -5.87991E+03  2.45002E+03 -3.46878E+03  4.09781E+03 -1.32920E+03
  3.23699E+03  1.88379E+03  5.09596E+02  2.69326E+03 -1.52478E+03  1.64029E+03 -1.48406E+03 -3.89196E+02
 -7.99350E+02 -2.10920E+03  1.55262E+03 -2.07331E+03  1.62134E+03 -8.84499E+02  1.51157E+03  5.96816E+02
  1.16586E+03  6.40392E+02  8.07105E+02  1.61720E+01 -5.72617E+02  8.67178E+02  1.48378E+03 -1.43493E+02
  2.10349E+02 -1.69653E+02  2.17973E+03  8.79597E+02  3.87803E+02  2.98704E+03 -4.34775E+02  3.82379E+03
 -2.07323E+03  1.50499E+03 -2.33152E+03  2.67401E+02 -2.75176E+03 -8.89316E+02 -4.95663E+02 -1.65812E+03
  4.74904E+02 -1.61920E+03  1.15151E+03 -7.06696E+02  7.38814E+02  1.16630E+03 -4.51646E+02  1.61293E+03
 -2.11186E+03  9.27631E+02 -1.50510E+03 -1.22911E+03 -1.11612E+03 -2.98263E+03 -1.61789E+02 -2.12445E+03
  7.50778E+02 -9.86058E+02  1.17448E+03 -1.25181E+02  1.81836E+03  5.92648E+02  6.35060E+02  1.30583E+03
 -5.73576E+02  2.14505E+02 -1.14614E+03 -5.42942E+02  6.63936E+02 -1.21443E+03  2.06951E+03 -1.20350E+03
  2.04812E+03  1.51501E+02  3.36910E+03  9.42589E+02  1.30213E+03  2.41469E+03 -3.44053E+02  2.50726E+03
 -1.93013E+03  4.91247E+02 -2.22284E+03 -4.60450E+02 -9.43821E+02 -1.78304E+03  5.44250E+02 -1.26568E+03
  2.17223E+03 -6.83876E+02  1.02135E+03  9.81332E+02  1.57594E+02  1.50074E+03  2.55672E+02  1.40896E+03
 -4.79795E+02  9.93563E+02 -6.24598E+02  3.56115E+02  6.54115E+01  5.53468E+02 -8.94216E+02  3.80430E+02
 -8.28897E+02  1.20993E+03 -2.15146E+03  7.46392E+02 -2.19104E+03  1.82023E+02 -3.05616E+03 -1.39652E+03
 -1.41264E+03 -3.13114E+03  8.05704E+02 -3.71031E+03  1.75204E+03 -3.02981E+03  3.62081E+03 -1.45619E+03
  3.20664E+03  3.17351E+02  1.58541E+03  2.01939E+03 -7.14472E+02  1.82025E+03 -8.98976E+02  1.83575E+03
 -1.10197E+03  1.10909E+03 -4.49503E+02 -1.77332E+01 -6.33258E+02  3.80604E+02 -5.55836E+02  1.26649E+02
 -1.13067E+03  4.92287E+01 -1.02420E+03 -4.30023E+01  1.15441E+02 -6.18777E+02 -5.04953E+02 -1.05409E+03
  1.18059E+03 -7.92986E+02  6.78784E+02  1.86582E+02  1.50095E+03  1.40732E+03 -3.88679E+01  1.57209E+03
 -1.39101E+03  3.13075E+03 -2.25380E+03  1.42662E+03 -2.34718E+03 -4.51618E+02 -1.68315E+03 -1.56488E+03
 -6.30251E+02 -2.09164E+03  2.94698E+02 -1.73203E+03  1.11209E+03 -6.11982E+02  9.02133E+02 -1.72164E+01
  7.92711E+02  4.34928E+01  3.03883E+02  6.57452E+02 -2.68468E+02  8.04108E+01 -1.40579E+01 -4.78583E+02
  6.81333E+02  2.03634E+02  4.49391E+02  5.12907E+02  2.97456E+02  6.32606E+02  6.72145E+02  4.80827E+02
 -1.10673E+03  8.18847E+02 -8.90950E+02  1.86418E+01 -9.04330E+02 -8.16644E+02  1.52091E+02 -1.46282E+03
  8.61196E+02 -1.04184E+03  1.13159E+03 -3.04495E+01  1.38554E+03 -3.52245E+02  4.36853E+02  1.23890E+03
  6.05777E+02  8.97455E+02 -1.98303E+02  8.71111E+02 -9.25920E+02  7.29527E+02 -7.40803E+02  8.54022E+01
 -5.18049E+02  1.39201E+01 -5.23174E+02 -7.54993E-01 -5.90766E+02  3.26665E+02 -8.05940E+02 -8.97612E+01
 -1.08572E+03  3.30041E+01 -6.38560E+02 -1.34671E+03  7.68171E+02 -1.75107E+03  1.03316E+03 -3.90529E+02
  1.13239E+03  7.40039E+01 -2.35074E+02  4.35905E+02  2.59712E+01  1.25843E+03 -4.55944E+02  1.26159E+03
