 $NMID ID='MM_0lb_SNR800_12hz_g55_27.RAW', FMTDAT='(8E13.5)'
 TRAMP=1., VOLUME=1. $END
  3.09604E+05  1.52987E+02  3.37842E+05  2.50428E+05  8.46830E+04  3.38502E+05 -1.32865E+05  2.51422E+05
 -1.90747E+05  8.33158E+04 -1.12231E+05 -3.21431E+04  5.40897E+02 -5.08627E+04  5.39210E+04 -3.94091E+02
  3.52301E+04  5.28970E+04 -1.65444E+04  7.55635E+04 -6.09740E+04  6.46063E+04 -8.53024E+04  3.19903E+04
 -8.16805E+04 -1.13105E+04 -5.79605E+04 -5.19707E+04 -1.52052E+04 -7.05648E+04  2.80019E+04 -4.67985E+04
  4.09647E+04  3.77000E+03  1.64759E+04  4.81703E+04 -3.43493E+04  4.75733E+04 -6.72618E+04  1.67032E+02
 -5.40604E+04 -5.75104E+04 -6.92512E+03 -7.83024E+04  3.42194E+04 -5.59648E+04  4.90998E+04 -1.75105E+04
  4.45026E+04  1.11567E+04  3.26850E+04  2.62019E+04  1.57869E+04  2.99598E+04 -5.48135E+03  2.71735E+04
 -2.24019E+04  1.24065E+04 -1.82255E+04 -5.33991E+03  6.56151E+03 -7.18924E+03  2.31190E+04  1.29534E+04
  7.08406E+03  3.65173E+04 -3.32543E+04  3.62936E+04 -6.45440E+04  1.96040E+03 -5.80993E+04 -4.39660E+04
 -1.29982E+04 -6.44266E+04  4.08758E+04 -4.61914E+04  5.98577E+04 -2.38255E+03  3.58217E+04  3.36915E+04
 -5.53159E+03  3.77712E+04 -3.10680E+04  1.75132E+04 -3.18512E+04 -3.71561E+03 -1.83558E+04 -1.16168E+04
 -9.13013E+03 -1.45660E+04 -5.63426E+02 -1.90816E+04  8.04713E+03 -2.30659E+04  1.60721E+04 -1.33013E+04
  1.06716E+04  6.02388E+03 -9.39096E+03  1.25471E+04 -2.25890E+04 -5.49291E+03 -8.66970E+03 -3.59144E+04
  2.41733E+04 -4.52548E+04  4.99719E+04 -2.03194E+04  4.72981E+04  2.03186E+04  1.65243E+04  4.60753E+04
 -1.66144E+04  3.47308E+04 -2.67185E+04  2.68432E+03 -1.08919E+04 -2.85544E+04  2.09023E+04 -3.56283E+04
  4.30992E+04 -1.00066E+04  3.82524E+04  2.44466E+04  1.96292E+04  4.89817E+04 -8.43207E+03  5.33274E+04
 -3.36369E+04  3.65038E+04 -4.52981E+04  1.04586E+04 -4.55178E+04 -1.77934E+04 -2.48020E+04 -4.00442E+04
  7.55106E+03 -4.03570E+04  3.27180E+04 -1.61220E+04  3.07263E+04  1.08896E+04  4.65312E+03  1.99540E+04
 -1.36240E+04  9.15711E+03 -1.07279E+04 -7.68298E+03  5.60586E+03 -1.10762E+04  1.82163E+04  5.77808E+03
  1.46471E+04  2.28773E+04 -5.79084E+03  2.63256E+04 -2.28135E+04  1.33629E+04 -2.97372E+04 -3.85929E+03
 -2.29990E+04 -1.83703E+04 -1.01422E+04 -2.28636E+04  4.15221E+03 -2.26092E+04  1.76289E+04 -2.07986E+04
  2.91662E+04 -1.37847E+04  3.52837E+04  3.94835E+03  2.56569E+04  2.24073E+04  4.26111E+03  3.90920E+04
 -1.86821E+04  3.22104E+04 -2.93480E+04  1.12039E+04 -2.16454E+04 -1.04187E+04 -4.41969E+03 -1.32708E+04
  8.52448E+02 -2.03869E+03 -6.24300E+03  7.26853E+03 -1.79952E+04  5.11897E+03 -1.83407E+04 -8.71975E+03
 -1.08610E+04 -2.09394E+04  5.59767E+03 -2.55704E+04  1.72678E+04 -1.84138E+04  2.05751E+04 -1.59912E+03
  1.26829E+04  1.46330E+04 -1.07531E+03  2.11450E+04 -1.53834E+04  1.17391E+04 -2.14384E+04 -4.30604E+03
 -1.59207E+04 -1.91469E+04 -1.91345E+03 -2.55237E+04  1.18287E+04 -2.10192E+04  2.13064E+04 -1.06047E+04
  2.00063E+04 -1.48506E+02  1.47103E+04  4.59486E+03  7.77418E+03  1.06653E+03  1.09374E+04 -1.83098E+03
  1.99137E+04  2.68447E+03  2.24915E+04  1.69072E+04  1.51038E+04  3.40693E+04 -3.14416E+03  3.91875E+04
 -2.26888E+04  3.23748E+04 -3.66974E+04  1.63262E+04 -3.90468E+04 -2.72989E+03 -3.23100E+04 -2.27189E+04
 -1.31354E+04 -3.23420E+04  1.09310E+04 -2.88497E+04  2.43272E+04 -1.36921E+04  2.18859E+04  6.60336E+03
  7.85496E+03  1.66719E+04 -1.01458E+04  1.42517E+04 -1.79335E+04  2.26340E+03 -1.40625E+04 -1.11716E+04
 -3.11852E+02 -1.73789E+04  9.38445E+03 -1.32167E+04  1.16546E+04 -1.54789E+03  3.14449E+03  7.32660E+03
 -8.26424E+03  3.43052E+03 -7.50729E+03 -6.26211E+03 -1.13997E+03 -1.55157E+04  1.05461E+04 -1.69497E+04
  1.96891E+04 -9.08446E+03  2.18393E+04  2.77181E+03  1.90042E+04  1.59673E+04  8.87217E+03  2.46842E+04
 -4.52994E+03  2.62679E+04 -1.72210E+04  1.63546E+04 -1.90947E+04  3.45346E+03 -1.35166E+04 -4.40157E+03
 -5.82200E+03 -5.93415E+03 -5.27003E+02  1.06891E+03 -2.41255E+03  3.09055E+03 -6.38150E+03  5.01603E+03
 -1.22358E+04 -6.30849E+02 -1.30348E+04 -1.03429E+04 -4.85072E+03 -1.68917E+04  5.47402E+03 -1.32316E+04
  1.11502E+04 -5.64275E+03  7.97012E+03  3.93492E+03 -2.58108E+02  5.36234E+03 -6.44805E+03  1.00074E+02
 -6.43719E+03 -8.58860E+03 -1.19211E+03 -1.30405E+04  7.52460E+03 -1.38275E+04  1.67430E+04 -7.33434E+03
  1.97408E+04  2.01531E+03  1.45345E+04  1.17369E+04  2.62025E+03  1.58686E+04 -8.16553E+03  1.30289E+04
 -1.06445E+04  4.10615E+03 -6.03729E+03 -2.90820E+03  1.72170E+03 -3.44854E+03  6.81823E+03 -1.03517E+03
  6.48672E+03  5.90218E+03  1.23478E+03  1.05992E+04 -7.80365E+03  1.02227E+04 -1.32703E+04  2.44362E+03
 -9.13953E+03 -6.81393E+03  1.50533E+02 -1.14397E+04  7.08004E+03 -5.43286E+03  7.36594E+03  2.46822E+03
  1.51015E+03  7.83146E+03 -6.72605E+03  9.11569E+03 -1.08271E+04  4.22365E+03 -1.07629E+04 -3.77237E+03
 -6.28003E+03 -1.25818E+04  2.96620E+03 -1.45390E+04  1.19290E+04 -8.78326E+03  1.31234E+04  2.25795E+03
  8.04458E+03  1.02919E+04 -1.05061E+03  1.28308E+04 -9.34201E+03  7.23799E+03 -1.02974E+04 -1.01482E+03
 -8.81049E+03 -8.82224E+03 -1.44104E+03 -9.76985E+03  5.29297E+03 -8.08267E+03  5.99156E+03 -3.40895E+03
  4.03159E+03  1.46149E+03 -9.67972E+02  1.65872E+03 -5.26006E+02 -2.48938E+03  1.79462E+03 -5.49548E+03
  8.79208E+03 -3.57813E+03  1.21556E+04  1.14722E+03  1.21939E+04  8.16815E+03  8.69543E+03  1.63620E+04
 -3.85830E+03  1.85354E+04 -1.57383E+04  1.38025E+04 -2.00884E+04  2.59704E+03 -1.61040E+04 -6.76891E+03
 -7.99813E+03 -1.32681E+04 -7.65581E+02 -1.11445E+04  4.00187E+03 -5.88293E+03  4.23464E+03 -3.89979E+03
  2.92151E+03 -2.14722E+03  3.13987E+03 -3.42824E+03  4.82314E+03 -2.85944E+03  6.64568E+03 -6.48895E+02
  8.46950E+03  2.04562E+03  4.19711E+03  7.18888E+03 -1.71055E+03  8.32666E+03 -9.01344E+03  6.45066E+03
 -1.12980E+04 -1.19064E+03 -6.31737E+03 -7.66531E+03 -3.65178E+02 -1.21587E+04  6.72181E+03 -1.21021E+04
  1.26594E+04 -6.50515E+03  1.46327E+04  1.50312E+03  1.02238E+04  1.02936E+04  1.83691E+03  1.35175E+04
 -5.29515E+03  1.11042E+04 -7.70175E+03  3.85831E+03 -5.04045E+03 -1.44759E+03 -2.23649E+03 -1.75630E+03
 -1.14998E+03  2.05229E+02 -1.83898E+03  2.79084E+03 -5.01263E+03  2.06757E+03 -7.80286E+03 -1.25932E+03
 -5.12066E+03 -7.76857E+03  2.99365E+02 -1.02914E+04  6.63193E+03 -1.00727E+04  1.04234E+04 -3.17342E+03
  1.09486E+04  5.26767E+03  4.78582E+03  9.44845E+03 -1.80004E+03  1.09939E+04 -7.42498E+03  6.49736E+03
 -1.02338E+04  8.14655E+02 -8.08574E+03 -6.05846E+03 -6.67952E+02 -9.21247E+03  4.52867E+03 -6.61072E+03
  6.57715E+03 -2.66956E+03  4.09483E+03  1.76269E+03  1.72727E+03  3.17313E+03  1.12506E+03  1.40959E+03
  2.33020E+03  7.55997E+02  2.89957E+03  1.71074E+03  3.35282E+03  3.90870E+03  2.96860E+03  5.53040E+03
 -2.17086E+03  8.26332E+03 -6.96009E+03  8.82287E+03 -1.02230E+04  2.45954E+03 -1.09212E+04 -4.19625E+03
 -5.48288E+03 -1.03548E+04  1.55242E+03 -1.14983E+04  6.10894E+03 -7.25727E+03  8.56002E+03 -2.06029E+03
  6.60136E+03  4.03532E+03  1.47009E+03  5.86165E+03 -2.84821E+03  3.60897E+03 -4.06051E+03 -6.23333E+02
 -1.79113E+03 -4.25653E+03  2.92291E+03 -4.60898E+03  4.23803E+03 -2.52103E+03  3.80900E+03  6.52400E+02
  2.48857E+03  2.18548E+03  9.45036E+02  1.44811E+03 -4.58002E+02  1.40906E+03  2.07530E+03 -5.43226E+02
  1.56130E+03 -2.41674E+02  4.20051E+03  1.63704E+03  2.38103E+03  5.73425E+03 -9.65102E+02  7.36240E+03
 -4.83040E+03  4.53718E+03 -6.56973E+03  8.98748E+02 -5.84681E+03 -2.04478E+03 -2.07270E+03 -4.09153E+03
  7.28915E+02 -4.05259E+03  2.57481E+03 -1.96044E+03  2.03786E+03  2.45655E+03 -1.26580E+03  3.76437E+03
 -4.45594E+03  1.91955E+03 -4.43830E+03 -2.60914E+03 -2.86170E+03 -5.21412E+03  4.05339E+02 -5.65547E+03
  3.14877E+03 -2.81341E+03  3.69061E+03 -1.00073E+02  3.42465E+03  1.13316E+03  8.05164E+02  2.96447E+03
 -1.87693E+03  8.89841E+02 -2.36488E+03 -1.80294E+03  1.43315E+03 -4.05793E+03  5.02871E+03 -3.35800E+03
  5.86178E+03  6.04030E+02  6.36709E+03  3.71362E+03  2.15262E+03  6.41251E+03 -1.96146E+03  6.37270E+03
 -5.21490E+03  2.23721E+03 -5.18688E+03 -6.79647E+02 -3.23829E+03 -4.18664E+03  6.93325E+02 -3.43653E+03
  3.91259E+03 -1.77733E+03  3.19131E+03  1.94730E+03  1.32851E+03  3.67079E+03 -2.87285E+02  3.12854E+03
 -1.50745E+03  2.21611E+03 -1.24161E+03  9.88153E+02 -7.80192E+02  2.02414E+02 -1.27438E+03  1.61307E+03
 -1.76482E+03  2.72672E+03 -4.68882E+03  1.81937E+03 -6.21520E+03 -1.34426E+02 -6.95473E+03 -3.91581E+03
 -3.79108E+03 -8.20445E+03  1.66853E+03 -9.52442E+03  5.06055E+03 -7.72228E+03  9.11788E+03 -3.05776E+03
  8.46062E+03  1.18712E+03  4.97598E+03  5.15879E+03  5.90347E+01  6.05408E+03 -2.77871E+03  4.55308E+03
 -3.48232E+03  1.76182E+03 -2.59807E+03 -7.90123E+02 -1.13543E+03 -6.28605E+02 -8.06491E+02  2.51972E+02
 -1.34434E+03  1.91513E+02 -1.35941E+03 -2.26548E+02 -3.22587E+02 -1.46954E+03  2.01053E+01 -2.40766E+03
  2.77069E+03 -2.34298E+03  3.44790E+03  9.67526E+01  4.21037E+03  3.06386E+03  8.58721E+02  5.88009E+03
 -2.93287E+03  7.16174E+03 -6.57819E+03  3.97234E+03 -7.07635E+03 -6.53706E+02 -5.39664E+03 -4.47577E+03
 -2.18155E+03 -6.06122E+03  1.71352E+03 -5.36380E+03  3.88607E+03 -2.78760E+03  3.64927E+03  2.71162E+01
  2.12768E+03  1.68539E+03  1.34765E+02  1.81038E+03 -1.13868E+03 -1.11245E+02  1.73493E+02 -1.14152E+03
  2.01278E+03 -5.41581E+02  2.18799E+03  7.32359E+02  1.20275E+03  1.95454E+03  4.45184E+02  2.71663E+03
 -2.47078E+03  2.69513E+03 -3.47073E+03  3.45690E+02 -3.66425E+03 -2.77541E+03 -6.28881E+02 -4.92029E+03
  2.72408E+03 -3.91453E+03  4.63842E+03 -1.11354E+03  4.13358E+03  7.70791E+02  2.67992E+03  3.94901E+03
  9.66289E+02  3.81796E+03 -1.66498E+03  3.11464E+03 -2.70096E+03  2.11300E+03 -1.91170E+03  2.64276E+02
 -1.08870E+03  1.84774E+02 -1.09526E+03  4.56082E+02 -2.30992E+03  3.39221E+02 -3.20549E+03 -7.39558E+02
 -3.62874E+03 -1.56092E+03 -1.02328E+03 -3.93391E+03  2.13060E+03 -4.29690E+03  3.22817E+03 -1.87729E+03
  3.71465E+03  6.68018E+02  1.72048E+03  2.55067E+03 -1.39318E+02  3.65170E+03 -2.58313E+03  3.01633E+03
