 $NMID ID='MM_0lb_SNR800_20hz_g50_22.RAW', FMTDAT='(8E13.5)'
 TRAMP=1., VOLUME=1. $END
  3.09698E+05  4.76249E+02  3.37291E+05  2.50568E+05  8.47379E+04  3.37262E+05 -1.32329E+05  2.49890E+05
 -1.89604E+05  8.24582E+04 -1.11041E+05 -3.27263E+04  1.44811E+03 -5.02203E+04  5.40867E+04  8.70349E+01
  3.50219E+04  5.30812E+04 -1.71826E+04  7.47180E+04 -6.01562E+04  6.26005E+04 -8.29066E+04  3.13273E+04
 -7.92044E+04 -1.09462E+04 -5.62337E+04 -5.02465E+04 -1.50031E+04 -6.82114E+04  2.65818E+04 -4.46278E+04
  3.88620E+04  4.15377E+03  1.56240E+04  4.69003E+04 -3.38342E+04  4.59059E+04 -6.50218E+04 -5.43205E+02
 -5.17827E+04 -5.58416E+04 -6.09920E+03 -7.49650E+04  3.29290E+04 -5.25946E+04  4.60668E+04 -1.61759E+04
  4.14025E+04  1.10463E+04  3.07226E+04  2.42022E+04  1.56275E+04  2.82271E+04 -4.73303E+03  2.68492E+04
 -2.13910E+04  1.28106E+04 -1.92201E+04 -4.33584E+03  3.84096E+03 -7.56432E+03  2.12216E+04  1.09818E+04
  7.17606E+03  3.29300E+04 -3.01793E+04  3.37221E+04 -6.06017E+04  2.26881E+03 -5.49294E+04 -4.07969E+04
 -1.25267E+04 -6.04395E+04  3.80776E+04 -4.28093E+04  5.54104E+04 -1.98055E+03  3.16066E+04  3.03581E+04
 -6.60580E+03  3.26056E+04 -2.80265E+04  1.29827E+04 -2.72359E+04 -5.52930E+03 -1.40006E+04 -9.69384E+03
 -7.16772E+03 -1.10600E+04 -1.10195E+03 -1.64367E+04  6.63514E+03 -2.22722E+04  1.47680E+04 -1.42049E+04
  1.23007E+04  3.98642E+03 -5.84481E+03  1.28850E+04 -1.91052E+04 -1.75863E+03 -7.93921E+03 -2.97058E+04
  2.05799E+04 -4.03816E+04  4.41576E+04 -1.84805E+04  4.13853E+04  1.80807E+04  1.42131E+04  4.15540E+04
 -1.51079E+04  3.07424E+04 -2.27954E+04  1.17169E+03 -7.99030E+03 -2.60680E+04  2.01891E+04 -3.07203E+04
  3.77597E+04 -6.92935E+03  3.06960E+04  2.26292E+04  1.47514E+04  4.22721E+04 -7.77110E+03  4.41178E+04
 -2.79074E+04  2.92829E+04 -3.66113E+04  8.25644E+03 -3.75747E+04 -1.47384E+04 -2.07970E+04 -3.37645E+04
  6.83786E+03 -3.34908E+04  2.87896E+04 -1.23114E+04  2.63238E+04  1.07585E+04  2.77096E+03  1.74598E+04
 -1.30861E+04  7.19253E+03 -9.19877E+03 -7.66725E+03  5.83799E+03 -1.00080E+04  1.69964E+04  6.47154E+03
  1.21057E+04  2.16311E+04 -6.91561E+03  2.30380E+04 -2.13158E+04  8.71631E+03 -2.43698E+04 -6.49093E+03
 -1.59033E+04 -1.62235E+04 -5.01439E+03 -1.59800E+04  3.82040E+03 -1.36888E+04  1.15106E+04 -1.35657E+04
  2.04298E+04 -1.14585E+04  2.72800E+04  6.48922E+02  2.09390E+04  1.56826E+04  3.90883E+03  3.15147E+04
 -1.56298E+04  2.69475E+04 -2.54671E+04  9.36365E+03 -1.93294E+04 -1.03709E+04 -3.70924E+03 -1.41741E+04
  2.78874E+03 -4.30348E+03 -2.39743E+03  5.20393E+03 -1.23477E+04  5.27440E+03 -1.26370E+04 -4.42744E+03
 -8.60359E+03 -1.49738E+04  4.52879E+03 -1.85959E+04  1.21162E+04 -1.35159E+04  1.35173E+04 -1.50462E+03
  8.34619E+03  1.04009E+04 -6.52571E+02  1.53035E+04 -1.00493E+04  8.56693E+03 -1.46827E+04 -3.40295E+03
 -1.10827E+04 -1.36434E+04 -1.67341E+03 -1.82425E+04  8.22982E+03 -1.47723E+04  1.56569E+04 -6.63063E+03
  1.40223E+04  7.58563E+02  1.01573E+04  3.43142E+03  4.84254E+03  4.08438E+02  7.25820E+03 -1.06143E+03
  1.31116E+04  2.55821E+03  1.37530E+04  1.21416E+04  8.52132E+03  2.39512E+04 -3.10893E+03  2.48381E+04
 -1.52255E+04  1.90527E+04 -2.27951E+04  8.85130E+03 -2.30305E+04 -1.61173E+03 -2.03063E+04 -1.32691E+04
 -9.93180E+03 -1.90633E+04  6.14902E+03 -1.79018E+04  1.54857E+04 -1.06305E+04  1.48116E+04  3.06761E+03
  6.34897E+03  1.06189E+04 -6.67573E+03  9.90466E+03 -1.28024E+04  2.54296E+03 -9.58449E+03 -7.84883E+03
  2.04784E+01 -1.18479E+04  5.55180E+03 -9.03579E+03  7.50453E+03 -1.39348E+03  1.14890E+03  4.46778E+03
 -5.20492E+03  1.13009E+03 -3.20845E+03 -4.39404E+03  6.56411E+02 -9.51541E+03  7.52607E+03 -9.39283E+03
  1.13175E+04 -4.33365E+03  1.06345E+04  2.48614E+03  9.13294E+03  8.68932E+03  4.66385E+03  1.27796E+04
 -1.34759E+03  1.46048E+04 -8.73482E+03  9.49009E+03 -9.99959E+03  2.86810E+03 -7.66524E+03 -1.62017E+03
 -4.35599E+03 -2.75673E+03 -8.35437E+02  1.58501E+03 -1.99669E+03  1.87582E+03 -3.13506E+03  3.29684E+03
 -7.50800E+03 -4.11531E+02 -8.26434E+03 -6.61496E+03 -3.22462E+03 -1.07665E+04  3.30806E+03 -7.93302E+03
  6.67820E+03 -3.62003E+03  4.83344E+03  1.95885E+03  7.80840E+02  2.95930E+03 -3.09741E+03 -1.89936E+02
 -2.81460E+03 -4.84035E+03 -3.95781E+02 -6.68709E+03  3.54767E+03 -6.86528E+03  8.96970E+03 -3.58949E+03
  1.05916E+04  3.08246E+02  7.89993E+03  5.18083E+03  1.51629E+03  7.69135E+03 -4.53769E+03  7.45235E+03
 -6.44018E+03  3.04833E+03 -3.23204E+03 -1.14303E+03  1.23583E+03 -1.57856E+03  4.34217E+03 -1.09352E+03
  3.93526E+03  3.17793E+03  1.12692E+03  5.79693E+03 -3.80853E+03  5.77871E+03 -7.25019E+03  1.71665E+03
 -4.30256E+03 -3.05549E+03  5.74208E+02 -6.34085E+03  3.27556E+03 -3.04727E+03  2.88811E+03  7.03651E+02
  2.26455E+02  2.58413E+03 -3.60824E+03  4.22927E+03 -4.05172E+03  2.18658E+03 -3.81058E+03 -6.56095E+02
 -2.45765E+03 -5.42342E+03  7.10083E+02 -6.04580E+03  5.24371E+03 -4.41758E+03  5.52314E+03  6.47842E+02
  4.13677E+03  4.60085E+03  2.01264E+02  6.38313E+03 -4.33704E+03  3.71520E+03 -4.54320E+03 -3.55556E+02
 -5.11079E+03 -4.54647E+03 -1.03933E+03 -4.17715E+03  2.53260E+03 -4.11960E+03  2.43875E+03 -3.06043E+03
  2.71482E+03 -1.99019E+02  1.16981E+02  1.30507E+03  6.68965E+02  4.40940E+00  4.71648E+01 -1.18903E+03
  3.16360E+03 -3.04258E+02  4.34823E+03  7.38922E+02  4.94912E+03  2.56211E+03  4.90558E+03  5.90439E+03
 -9.13129E+02  7.16036E+03 -6.54459E+03  5.59108E+03 -8.68029E+03  1.22098E+03 -6.75303E+03 -2.23740E+03
 -3.61374E+03 -5.57099E+03 -3.05050E+02 -4.28059E+03  1.69639E+03 -1.78092E+03  1.56805E+03 -2.17212E+03
  1.08854E+03 -1.20668E+03  2.00401E+03 -2.12714E+03  3.64894E+03 -9.83090E+02  3.21394E+03  6.70723E+02
  3.60160E+03  1.25958E+03  5.98572E+02  2.68083E+03 -1.70276E+03  2.24009E+03 -3.66219E+03  2.09886E+03
 -4.08398E+03 -1.36550E+03 -1.12930E+03 -2.30063E+03  4.95604E+02 -4.15113E+03  3.15173E+03 -4.21790E+03
  4.32885E+03 -2.87337E+03  5.62375E+03 -5.30768E+01  3.97934E+03  3.28199E+03  9.56412E+02  5.07745E+03
 -1.49886E+03  5.22707E+03 -2.58980E+03  1.64923E+03 -1.51732E+03 -7.95879E+02 -2.86691E+02 -4.93384E+02
 -2.27767E+02  5.65078E+02 -8.42680E+02  2.01268E+03 -2.21933E+03  1.10941E+03 -3.69145E+03 -2.03712E+02
 -1.28403E+03 -3.62042E+03  7.32183E+02 -3.79564E+03  2.27295E+03 -3.59213E+03  2.74315E+03 -7.82850E+02
  3.22745E+03  1.88204E+03  1.21655E+03  2.53371E+03 -7.40723E+02  3.32166E+03 -2.18446E+03  2.24305E+03
 -3.10694E+03  5.43716E+02 -2.70747E+03 -1.92665E+03 -2.57029E+01 -2.44055E+03  1.24097E+03 -2.07682E+03
  2.16987E+03 -1.34454E+03  1.49634E+03  3.35211E+02  4.12998E+02  1.52414E+03  8.20716E+02  3.54106E+02
  1.45690E+03  4.56157E+02  1.13913E+03  1.00304E+03  8.49459E+02  2.05550E+03  9.45131E+02  1.15940E+03
 -1.08276E+03  2.24565E+03 -1.93629E+03  3.34095E+03 -2.03460E+03  9.34866E+02 -3.28318E+03  3.85526E+01
 -1.29241E+03 -2.90188E+03  4.46495E+02 -3.77683E+03  1.36935E+03 -2.25952E+03  2.57783E+03 -6.26117E+02
  1.89482E+03  1.47130E+03  1.56770E+02  1.69950E+03 -4.43323E+02  1.21177E+03 -7.38108E+02 -8.38766E+01
 -3.72489E+02 -1.18152E+03  8.60795E+02 -9.67232E+02  8.20104E+02 -9.13424E+02  1.14368E+03  4.74724E+02
  7.57999E+02  5.35108E+01  9.54312E+02 -5.17110E+02 -3.01292E+02  8.41254E+02  1.79112E+03 -2.87441E+02
 -2.56374E+02 -2.00136E+02  1.59785E+03  4.24095E+02 -1.68008E+02  2.06794E+03 -4.17705E+02  2.43242E+03
 -1.07241E+03  7.88838E+02 -1.53318E+03  2.39283E+02 -1.65699E+03 -4.52613E+02  1.87235E+02 -6.28196E+02
  4.40289E+02 -1.21579E+03  6.94786E+02 -6.29322E+02  4.59099E+02  1.13247E+03 -8.94950E+02  9.43148E+02
 -1.30749E+03  3.47365E+02 -8.23100E+02 -8.42923E+02 -4.59320E+02 -1.87673E+03 -4.28992E+00 -1.27237E+03
  2.70644E+02 -2.79571E+02  2.56783E+02  1.87695E+02  1.02229E+03 -5.79015E+02  3.12004E+02  6.45820E+02
 -1.25168E+02  9.23385E+01 -7.31426E+02 -2.29908E+01  4.29929E+02 -3.83536E+02  1.34203E+03 -5.00298E+02
  5.52244E+02  8.90540E+01  2.39800E+03  5.54888E+02  1.06301E+03  8.89187E+02 -3.85702E+02  1.32582E+03
 -1.22769E+03  3.75926E+00 -1.31360E+03  4.87932E+01 -5.99614E+02 -9.25028E+02  3.66940E+02 -3.59881E+02
  1.52379E+03 -4.31183E+02  5.81156E+02  7.15508E+02  2.13145E+02  1.05874E+03  4.46655E+02  8.65913E+02
  4.97125E+00  8.26345E+02 -2.48143E+02  3.00112E+02 -1.08848E+02  4.42461E+02 -5.07181E+02  3.00361E+02
 -7.06173E+02  8.57871E+02 -1.57153E+03  1.69512E+02 -1.22072E+03 -1.30589E+02 -1.69053E+03 -4.63764E+02
 -5.71222E+02 -1.72089E+03  5.52609E+02 -2.22519E+03  3.58482E+02 -2.01499E+03  2.07067E+03 -8.79433E+02
  1.75249E+03 -5.25326E+02  8.87116E+02  1.34424E+03 -3.97232E+02  8.63607E+02 -6.66162E+02  9.80890E+02
 -6.67082E+02  5.90480E+02 -1.09169E+02 -1.24731E+02 -2.74030E+02  2.01889E+02 -4.80081E+02  2.12306E+02
 -1.16829E+03 -8.71233E+01 -6.85116E+02  1.67609E+02  4.28443E+02 -7.05538E+02 -5.37515E+02 -7.26520E+02
  9.15513E+02 -2.60653E+02  1.35328E+02  5.62156E+01  7.19608E+02  7.81966E+02 -3.29296E+02  9.02250E+02
 -6.69317E+02  1.73058E+03 -1.10120E+03  6.02814E+02 -1.37501E+03 -2.17153E+02 -8.15760E+02 -8.69405E+02
 -7.34677E+02 -8.52447E+02 -5.01482E+01 -8.55345E+02  2.38049E+02 -2.34473E+02  2.85332E+02  1.56949E+02
  1.72397E+02  1.05644E+02  7.49705E+01  4.81901E+02 -1.04979E+02  2.64555E+01  2.10217E+02 -6.49010E+01
  3.69868E+02  3.12613E+02 -1.61091E+01  2.70172E+02 -2.08278E+02  3.14152E+02  2.21259E+02  6.30123E+01
 -4.58159E+02  3.94156E+02 -1.65622E+02  3.39916E+02 -6.40411E+02 -1.50401E+02 -1.92359E+02 -9.57881E+02
  2.68329E+02 -1.62551E+02 -1.07165E+01 -1.22733E+02  4.25505E+02 -8.30328E+02  3.01481E+02  3.85945E+02
  6.39319E+02  1.92141E+02 -1.97327E+02  8.89491E+01 -2.49027E+02  5.35828E+02 -2.55887E+02  1.28232E+02
  6.24167E+01  3.85166E+01 -3.95261E+02 -1.26217E+02 -4.23882E+02  1.57793E+02 -5.55857E+02 -3.33879E+02
 -9.97412E+02  5.90933E+02 -5.23955E+02 -3.69368E+02  3.80731E+02 -1.03296E+03  7.93036E+02 -4.14041E+01
  5.84114E+02 -9.01347E+01 -5.48371E+02  4.81567E+01 -9.35202E+01  2.55504E+02 -6.41246E+00  4.00902E+02
