 $NMID ID='MM_0lb_SNR800_16hz_g60_18.RAW', FMTDAT='(8E13.5)'
 TRAMP=1., VOLUME=1. $END
  3.09890E+05  3.99024E+02  3.37768E+05  2.50964E+05  8.48734E+04  3.38017E+05 -1.32613E+05  2.50811E+05
 -1.90524E+05  8.32837E+04 -1.11814E+05 -3.26109E+04  6.96779E+02 -5.03186E+04  5.35757E+04 -2.25784E+02
  3.52145E+04  5.29870E+04 -1.68604E+04  7.57325E+04 -6.11445E+04  6.37219E+04 -8.42881E+04  3.21533E+04
 -8.14448E+04 -1.12703E+04 -5.73279E+04 -5.14085E+04 -1.51348E+04 -6.98628E+04  2.75041E+04 -4.57611E+04
  4.00340E+04  3.77001E+03  1.61475E+04  4.77945E+04 -3.44128E+04  4.70882E+04 -6.66783E+04 -5.14875E+02
 -5.33061E+04 -5.69574E+04 -6.88650E+03 -7.72443E+04  3.38855E+04 -5.53084E+04  4.80042E+04 -1.70345E+04
  4.32688E+04  1.13983E+04  3.17543E+04  2.57750E+04  1.57997E+04  2.96320E+04 -5.15371E+03  2.75119E+04
 -2.21310E+04  1.24063E+04 -1.86317E+04 -4.97387E+03  5.45644E+03 -7.74896E+03  2.25410E+04  1.21799E+04
  7.15712E+03  3.53606E+04 -3.21054E+04  3.56202E+04 -6.32491E+04  2.25633E+03 -5.71312E+04 -4.29572E+04
 -1.25485E+04 -6.31839E+04  3.97371E+04 -4.53092E+04  5.84558E+04 -2.24460E+03  3.40093E+04  3.25618E+04
 -6.15875E+03  3.61137E+04 -3.00928E+04  1.57169E+04 -3.05500E+04 -4.52119E+03 -1.64977E+04 -1.09732E+04
 -8.47958E+03 -1.30521E+04 -6.34083E+02 -1.80213E+04  7.52225E+03 -2.29402E+04  1.54140E+04 -1.34116E+04
  1.14018E+04  5.08881E+03 -8.47653E+03  1.29274E+04 -2.11521E+04 -4.30419E+03 -8.42938E+03 -3.38440E+04
  2.30448E+04 -4.37040E+04  4.81165E+04 -1.98803E+04  4.52506E+04  1.96224E+04  1.53327E+04  4.42297E+04
 -1.57324E+04  3.34428E+04 -2.52099E+04  1.74991E+03 -9.74004E+03 -2.77743E+04  2.08247E+04 -3.38741E+04
  4.08745E+04 -8.85523E+03  3.54534E+04  2.38914E+04  1.81798E+04  4.64921E+04 -8.04399E+03  5.01808E+04
 -3.14954E+04  3.38542E+04 -4.23844E+04  9.47590E+03 -4.27306E+04 -1.68833E+04 -2.34370E+04 -3.80560E+04
  7.26399E+03 -3.78920E+04  3.13933E+04 -1.47256E+04  2.90526E+04  1.09448E+04  3.87717E+03  1.89526E+04
 -1.37220E+04  8.51128E+03 -1.03454E+04 -8.01511E+03  6.05878E+03 -1.07483E+04  1.77724E+04  6.44366E+03
  1.35852E+04  2.23945E+04 -6.09958E+03  2.49788E+04 -2.24843E+04  1.14131E+04 -2.77254E+04 -5.00981E+03
 -2.05663E+04 -1.71711E+04 -8.43319E+03 -2.02283E+04  3.92456E+03 -1.96935E+04  1.56469E+04 -1.80697E+04
  2.61243E+04 -1.26846E+04  3.24181E+04  2.75998E+03  2.40187E+04  1.95920E+04  4.05011E+03  3.64529E+04
 -1.79111E+04  3.02598E+04 -2.77695E+04  1.03984E+04 -2.09614E+04 -1.02611E+04 -4.53984E+03 -1.33302E+04
  2.04948E+03 -2.63949E+03 -4.72384E+03  6.50327E+03 -1.57325E+04  5.30054E+03 -1.62632E+04 -6.81927E+03
 -9.66688E+03 -1.86409E+04  5.08028E+03 -2.28026E+04  1.52281E+04 -1.65258E+04  1.80188E+04 -1.62988E+03
  1.12730E+04  1.30071E+04 -1.15875E+03  1.86169E+04 -1.25757E+04  1.04833E+04 -1.86733E+04 -4.00303E+03
 -1.38508E+04 -1.68801E+04 -2.00440E+03 -2.24810E+04  1.02477E+04 -1.82172E+04  1.88220E+04 -9.14488E+03
  1.72613E+04  1.80460E+02  1.26348E+04  4.54226E+03  6.91216E+03  1.00741E+03  9.35388E+03 -1.46548E+03
  1.68603E+04  2.64957E+03  1.84461E+04  1.48237E+04  1.20908E+04  2.94283E+04 -3.05805E+03  3.34833E+04
 -1.93481E+04  2.66078E+04 -3.07569E+04  1.30466E+04 -3.21263E+04 -2.09786E+03 -2.69259E+04 -1.87579E+04
 -1.17172E+04 -2.66332E+04  9.11975E+03 -2.40544E+04  2.07286E+04 -1.23518E+04  1.85763E+04  5.40400E+03
  7.08922E+03  1.39789E+04 -8.31541E+03  1.22338E+04 -1.59339E+04  2.78530E+03 -1.20652E+04 -9.96453E+03
 -2.23908E+02 -1.49127E+04  7.86887E+03 -1.11285E+04  9.93938E+03 -1.29852E+03  1.97181E+03  6.16380E+03
 -6.70401E+03  2.20528E+03 -5.89468E+03 -5.39711E+03 -1.89778E+02 -1.29817E+04  8.99650E+03 -1.33559E+04
  1.58749E+04 -6.85916E+03  1.68935E+04  3.08982E+03  1.45134E+04  1.23880E+04  6.74536E+03  1.91636E+04
 -3.48705E+03  2.11322E+04 -1.31270E+04  1.29354E+04 -1.54068E+04  3.25117E+03 -1.06385E+04 -3.26276E+03
 -5.20741E+03 -4.70206E+03 -1.04323E+03  8.30467E+02 -2.23365E+03  2.27309E+03 -5.11898E+03  4.07308E+03
 -9.86952E+03 -7.61218E+02 -1.09564E+04 -8.83664E+03 -4.43117E+03 -1.42036E+04  4.55896E+03 -1.10005E+04
  9.11374E+03 -4.62314E+03  6.57397E+03  3.16638E+03  3.86985E+02  3.93280E+03 -4.80048E+03 -4.44574E+02
 -4.79805E+03 -6.64601E+03 -8.40698E+02 -9.63562E+03  5.47229E+03 -1.04178E+04  1.29636E+04 -5.52393E+03
  1.52989E+04  1.02044E+03  1.15695E+04  8.82081E+03  1.99787E+03  1.19224E+04 -6.59811E+03  1.06466E+04
 -8.52171E+03  3.37768E+03 -4.65140E+03 -2.00671E+03  1.37577E+03 -2.85017E+03  5.78853E+03 -1.06939E+03
  5.10369E+03  4.55218E+03  1.23429E+03  8.01299E+03 -6.09565E+03  8.39383E+03 -1.00810E+04  2.15878E+03
 -6.42401E+03 -4.93692E+03  1.79362E+02 -8.70428E+03  4.98055E+03 -4.29045E+03  5.26132E+03  1.61116E+03
  8.13451E+02  5.32157E+03 -5.21892E+03  6.69351E+03 -7.36282E+03  3.03226E+03 -7.26711E+03 -2.00753E+03
 -4.21843E+03 -8.72514E+03  1.72890E+03 -9.95248E+03  8.43183E+03 -6.39761E+03  9.43502E+03  1.67464E+03
  5.87960E+03  7.60092E+03 -5.09486E+02  9.65309E+03 -6.84107E+03  5.42601E+03 -7.23609E+03 -7.90301E+02
 -6.88111E+03 -6.66962E+03 -1.12130E+03 -6.68168E+03  3.52096E+03 -5.99776E+03  4.24177E+03 -3.07273E+03
  3.36838E+03  6.46123E+02 -3.33267E+02  1.60496E+03  7.65871E+01 -8.22741E+02  8.21544E+02 -3.45322E+03
  5.97213E+03 -2.13537E+03  8.25932E+03  1.09658E+03  8.27606E+03  5.00651E+03  6.27912E+03  1.06559E+04
 -2.03660E+03  1.27318E+04 -1.07598E+04  9.43524E+03 -1.38926E+04  1.67829E+03 -1.14725E+04 -4.24891E+03
 -5.94004E+03 -9.27417E+03 -3.59586E+02 -7.45340E+03  2.77207E+03 -3.81862E+03  2.94349E+03 -3.07515E+03
  1.78494E+03 -2.02117E+03  2.64992E+03 -2.74539E+03  3.98432E+03 -1.90738E+03  5.02404E+03  1.78333E+02
  6.14668E+03  1.48136E+03  1.83146E+03  4.82734E+03 -1.71281E+03  4.86953E+03 -5.97199E+03  4.16697E+03
 -7.58115E+03 -1.04512E+03 -3.72312E+03 -4.99978E+03  2.87852E+01 -7.73647E+03  4.33299E+03 -7.84133E+03
  7.60024E+03 -4.58409E+03  9.61399E+03  7.21952E+02  6.83496E+03  6.47304E+03  1.45424E+03  8.59811E+03
 -3.71570E+03  7.74516E+03 -4.81600E+03  2.72069E+03 -3.48941E+03 -1.36361E+03 -1.33791E+03 -1.09863E+03
 -7.48507E+02  2.48758E+02 -1.16269E+03  1.81722E+03 -3.15782E+03  1.50542E+03 -5.50263E+03 -4.59948E+02
 -2.84701E+03 -5.24197E+03  5.96431E+02 -7.16462E+03  4.23521E+03 -6.32234E+03  5.82818E+03 -1.84124E+03
  6.36151E+03  3.16778E+03  2.85387E+03  5.17874E+03 -1.56583E+03  6.53063E+03 -4.50765E+03  4.06489E+03
 -5.87972E+03  6.18037E+02 -4.75061E+03 -3.58145E+03 -8.13882E+02 -5.02476E+03  2.58805E+03 -3.72038E+03
  3.92679E+03 -1.72038E+03  2.73581E+03  8.02668E+02  9.14515E+02  2.24457E+03  8.54368E+02  6.33127E+02
  1.62004E+03  4.91863E+02  1.60391E+03  1.21109E+03  1.90644E+03  2.95428E+03  1.73602E+03  2.80646E+03
 -1.57321E+03  4.34513E+03 -4.24104E+03  5.76321E+03 -5.13063E+03  1.67645E+03 -6.65338E+03 -1.75599E+03
 -2.62349E+03 -6.05804E+03  9.23554E+02 -6.96659E+03  3.43499E+03 -4.10897E+03  4.96273E+03 -1.56774E+03
  3.88479E+03  2.37840E+03  5.44707E+02  3.21970E+03 -1.39360E+03  1.89670E+03 -2.13579E+03  2.42859E+01
 -9.43786E+02 -2.58170E+03  1.47696E+03 -2.60035E+03  2.17815E+03 -1.33414E+03  2.58263E+03  6.21319E+02
  1.11842E+03  7.95685E+02  9.18903E+02  3.93916E+02 -4.68400E+02  7.70779E+02  1.43666E+03 -8.15968E+01
  6.81840E+02 -3.47102E+02  2.54383E+03  9.60151E+02  5.83539E+02  3.44096E+03 -4.68093E+02  4.16070E+03
 -2.58031E+03  2.05815E+03 -3.27996E+03  5.82614E+02 -3.47284E+03 -1.30499E+03 -6.21157E+02 -1.90882E+03
  4.72184E+02 -1.88505E+03  1.46740E+03 -1.11082E+03  1.20681E+03  1.58546E+03 -5.85302E+02  1.80667E+03
 -2.16033E+03  1.10399E+03 -2.00946E+03 -1.62904E+03 -1.49857E+03 -3.08266E+03  4.17013E+02 -2.89109E+03
  1.12369E+03 -1.45764E+03  1.52171E+03 -4.57235E+01  2.06384E+03  1.25012E+02  3.06153E+02  1.91630E+03
 -6.86126E+02  3.32791E+02 -1.58519E+03 -5.43761E+02  9.41894E+02 -1.82221E+03  2.49401E+03 -1.60789E+03
  2.38036E+03  2.03112E+02  4.02888E+03  1.34819E+03  1.43372E+03  2.72091E+03 -8.41965E+02  3.30835E+03
 -2.42366E+03  7.20711E+02 -2.55583E+03  3.83751E+01 -1.68360E+03 -1.86026E+03  3.85092E+02 -1.34153E+03
  2.55749E+03 -1.25760E+03  1.25743E+03  7.34833E+02  5.98526E+02  1.97142E+03  3.16433E+02  1.70701E+03
 -7.74582E+02  1.39815E+03 -6.76042E+02  3.58696E+02 -4.75707E+01  5.29318E+02 -8.24295E+02  5.75850E+02
 -9.06437E+02  1.40311E+03 -2.45020E+03  1.00888E+03 -3.02153E+03  1.03363E+02 -3.55259E+03 -1.69876E+03
 -1.40425E+03 -3.67724E+03  7.09997E+02 -4.34704E+03  2.16134E+03 -3.70259E+03  4.31082E+03 -1.31457E+03
  3.77963E+03  1.76393E+02  2.30859E+03  2.35179E+03 -4.83265E+02  2.79132E+03 -1.10996E+03  2.06300E+03
 -1.60138E+03  1.10089E+03 -8.27183E+02 -2.57557E+02 -3.71470E+02  7.27382E+01 -7.42507E+02 -3.69484E+01
 -1.01667E+03 -1.55106E+02 -1.15615E+03 -3.30790E+01  3.96093E+02 -8.71645E+02 -4.63212E+02 -1.21990E+03
  1.66674E+03 -1.05184E+03  9.80284E+02 -2.11701E+02  1.85134E+03  1.51548E+03  6.74392E+01  2.30442E+03
 -1.56176E+03  3.76076E+03 -2.75162E+03  2.13088E+03 -3.03943E+03 -3.72445E+02 -2.49782E+03 -1.95460E+03
 -1.51369E+03 -2.19131E+03  6.27886E+02 -2.09364E+03  1.68069E+03 -9.29019E+02  1.38936E+03  1.46764E+02
  1.05135E+03  7.65165E+02  3.44693E+02  7.37910E+02 -5.57398E+02  1.10494E+02 -9.45868E+01 -3.45039E+02
  5.66603E+02 -1.11506E+02  4.74736E+02  8.70816E+02  4.16168E+02  9.57113E+02  1.26917E+02  9.54491E+02
 -1.09369E+03  1.21283E+03 -1.44000E+03  2.50609E+02 -1.52353E+03 -1.09805E+03 -1.42852E+02 -1.74153E+03
  8.79225E+02 -1.42844E+03  1.03811E+03 -1.57142E+02  1.73696E+03 -5.01933E+02  6.45057E+02  1.37391E+03
  3.88355E+02  1.33250E+03 -4.54701E+02  9.96976E+02 -8.79526E+02  1.17651E+03 -5.27597E+02  3.32854E+02
 -9.02942E+01 -3.90952E+01 -4.05771E+02  2.87382E+02 -9.97701E+02  1.97823E+02 -1.21995E+03 -3.09402E+02
 -1.39337E+03 -2.18414E+02 -2.94761E+02 -1.52639E+03  9.01491E+02 -2.04117E+03  1.44207E+03 -5.55262E+02
  1.37873E+03 -4.97368E+01  8.86861E+01  7.49469E+02  4.66533E+01  1.38057E+03 -1.18332E+03  1.03378E+03
