 $NMID ID='MM_0lb_SNR800_10hz_g60_65.RAW', FMTDAT='(8E13.5)'
 TRAMP=1., VOLUME=1. $END
  3.09703E+05  3.32255E+02  3.37831E+05  2.51257E+05  8.51153E+04  3.38334E+05 -1.32627E+05  2.51388E+05
 -1.91323E+05  8.40710E+04 -1.12475E+05 -3.19395E+04  6.79417E+01 -5.12912E+04  5.38148E+04 -5.14929E+02
  3.54714E+04  5.30375E+04 -1.69449E+04  7.56119E+04 -6.13963E+04  6.46173E+04 -8.57188E+04  3.24050E+04
 -8.26580E+04 -1.20369E+04 -5.79628E+04 -5.24538E+04 -1.51896E+04 -7.14474E+04  2.82900E+04 -4.66933E+04
  4.11011E+04  3.74684E+03  1.63072E+04  4.86210E+04 -3.49570E+04  4.82256E+04 -6.75253E+04  1.96389E+02
 -5.51407E+04 -5.76069E+04 -7.91074E+03 -7.92516E+04  3.44900E+04 -5.73386E+04  4.98124E+04 -1.78838E+04
  4.54725E+04  1.15856E+04  3.32236E+04  2.69824E+04  1.59339E+04  3.03718E+04 -5.82242E+03  2.76398E+04
 -2.22474E+04  1.16368E+04 -1.81446E+04 -6.05009E+03  7.11664E+03 -7.43514E+03  2.35376E+04  1.36046E+04
  6.98995E+03  3.77933E+04 -3.40564E+04  3.73611E+04 -6.58225E+04  2.37880E+03 -5.88637E+04 -4.43724E+04
 -1.24902E+04 -6.60518E+04  4.17243E+04 -4.77682E+04  6.14757E+04 -2.82223E+03  3.66850E+04  3.46441E+04
 -5.64427E+03  3.94053E+04 -3.17892E+04  1.89048E+04 -3.35692E+04 -3.50524E+03 -1.96489E+04 -1.18819E+04
 -9.50257E+03 -1.53608E+04 -1.25673E+02 -1.97157E+04  8.21716E+03 -2.34059E+04  1.61019E+04 -1.24191E+04
  1.03444E+04  6.07574E+03 -1.08901E+04  1.28281E+04 -2.34101E+04 -6.71982E+03 -8.69199E+03 -3.79979E+04
  2.51968E+04 -4.71912E+04  5.21269E+04 -2.07311E+04  4.91587E+04  2.12749E+04  1.73782E+04  4.70234E+04
 -1.64521E+04  3.62488E+04 -2.81273E+04  2.61650E+03 -1.13994E+04 -2.97807E+04  2.17305E+04 -3.73182E+04
  4.46514E+04 -1.11098E+04  4.08497E+04  2.51242E+04  2.16200E+04  5.09765E+04 -8.29693E+03  5.65534E+04
 -3.55824E+04  3.82104E+04 -4.79853E+04  1.08147E+04 -4.77419E+04 -1.86478E+04 -2.63088E+04 -4.23342E+04
  7.87128E+03 -4.23226E+04  3.41414E+04 -1.73764E+04  3.20267E+04  1.08423E+04  5.56516E+03  2.12903E+04
 -1.40992E+04  9.90774E+03 -1.15148E+04 -7.76203E+03  5.73282E+03 -1.13076E+04  1.90085E+04  5.72645E+03
  1.44668E+04  2.26243E+04 -5.28287E+03  2.66601E+04 -2.34398E+04  1.43190E+04 -3.16017E+04 -2.87602E+03
 -2.55325E+04 -1.88241E+04 -1.17122E+04 -2.53646E+04  4.26950E+03 -2.62324E+04  1.98883E+04 -2.32850E+04
  3.26202E+04 -1.41099E+04  3.84284E+04  5.07085E+03  2.68546E+04  2.42117E+04  4.49039E+03  4.15360E+04
 -1.95974E+04  3.40101E+04 -3.08496E+04  1.22258E+04 -2.22253E+04 -1.01690E+04 -5.16091E+03 -1.29826E+04
  5.05690E+02 -1.05017E+03 -7.50449E+03  8.12217E+03 -2.02582E+04  5.12349E+03 -1.99850E+04 -9.69836E+03
 -1.19200E+04 -2.32087E+04  6.09814E+03 -2.83080E+04  1.89330E+04 -1.95884E+04  2.24177E+04 -1.66099E+03
  1.44533E+04  1.64935E+04 -1.35611E+03  2.32227E+04 -1.68945E+04  1.37158E+04 -2.33030E+04 -4.91883E+03
 -1.71597E+04 -2.12346E+04 -2.42564E+03 -2.79555E+04  1.26071E+04 -2.38854E+04  2.32223E+04 -1.17011E+04
  2.16993E+04 -3.97352E+02  1.60773E+04  5.20698E+03  8.81232E+03  1.46581E+03  1.23404E+04 -1.92050E+03
  2.19382E+04  3.25740E+03  2.52162E+04  1.82916E+04  1.79825E+04  3.73504E+04 -3.00059E+03  4.44734E+04
 -2.50606E+04  3.67802E+04 -4.18972E+04  1.92766E+04 -4.47627E+04 -3.37278E+03 -3.64954E+04 -2.60069E+04
 -1.46007E+04 -3.72832E+04  1.29157E+04 -3.26463E+04  2.80309E+04 -1.52143E+04  2.45139E+04  8.14050E+03
  8.22874E+03  1.86013E+04 -1.16305E+04  1.55473E+04 -2.01527E+04  2.59574E+03 -1.57085E+04 -1.29681E+04
 -3.16642E+02 -1.98323E+04  1.02133E+04 -1.42930E+04  1.34343E+04 -1.21853E+03  3.73576E+03  8.59554E+03
 -8.46795E+03  4.10457E+03 -9.14268E+03 -6.99487E+03 -1.98335E+03 -1.82054E+04  1.14200E+04 -1.99213E+04
  2.31500E+04 -1.13664E+04  2.63601E+04  2.81075E+03  2.30558E+04  1.86794E+04  1.06690E+04  2.87786E+04
 -5.77281E+03  3.11716E+04 -2.04342E+04  1.89498E+04 -2.23935E+04  4.04867E+03 -1.55202E+04 -5.99029E+03
 -6.32395E+03 -7.25461E+03 -6.57993E+02  3.74010E+02 -2.97346E+03  3.66166E+03 -7.40801E+03  5.32333E+03
 -1.39461E+04 -9.47583E+02 -1.48330E+04 -1.15620E+04 -5.84851E+03 -1.95849E+04  6.16929E+03 -1.56085E+04
  1.27864E+04 -6.44713E+03  9.32505E+03  3.98313E+03  1.27269E+02  6.39032E+03 -7.74283E+03  6.37600E-01
 -7.73288E+03 -9.87551E+03 -1.05636E+03 -1.53515E+04  9.21271E+03 -1.60156E+04  1.99116E+04 -8.81043E+03
  2.34616E+04  2.49941E+03  1.70568E+04  1.45531E+04  3.39815E+03  1.93709E+04 -9.54123E+03  1.57891E+04
 -1.26305E+04  4.62425E+03 -6.36376E+03 -3.34769E+03  2.21487E+03 -4.63311E+03  8.19286E+03 -1.00854E+03
  7.63700E+03  6.53941E+03  1.60603E+03  1.27284E+04 -9.05602E+03  1.18747E+04 -1.52758E+04  2.85351E+03
 -1.09944E+04 -8.11115E+03 -2.41183E+02 -1.34443E+04  8.66428E+03 -6.83602E+03  9.02092E+03  3.19062E+03
  2.15665E+03  1.00642E+04 -8.38424E+03  1.13037E+04 -1.32608E+04  4.93193E+03 -1.34509E+04 -5.05870E+03
 -7.65972E+03 -1.57164E+04  3.80146E+03 -1.76345E+04  1.52361E+04 -1.06098E+04  1.64544E+04  2.99564E+03
  9.80847E+03  1.31764E+04 -1.55116E+03  1.59342E+04 -1.16915E+04  8.70128E+03 -1.27698E+04 -1.36620E+03
 -1.10178E+04 -1.01389E+04 -1.30390E+03 -1.19031E+04  6.46958E+03 -9.42512E+03  7.54217E+03 -3.62235E+03
  5.24869E+03  2.26374E+03 -1.12642E+03  1.69126E+03 -6.80550E+02 -3.47110E+03  2.47422E+03 -7.37819E+03
  1.08054E+04 -4.94304E+03  1.58125E+04  1.60205E+03  1.52819E+04  1.07804E+04  9.65931E+03  2.04650E+04
 -4.95004E+03  2.31869E+04 -1.95065E+04  1.74618E+04 -2.55313E+04  3.24896E+03 -2.07097E+04 -9.15071E+03
 -1.01809E+04 -1.67139E+04 -1.47882E+02 -1.40589E+04  5.26379E+03 -8.03104E+03  4.91681E+03 -4.89290E+03
  3.93611E+03 -3.19278E+03  4.11126E+03 -3.91730E+03  5.33835E+03 -3.27498E+03  7.81937E+03 -1.18432E+03
  1.04436E+04  2.32753E+03  5.58658E+03  9.14460E+03 -2.33756E+03  1.07877E+04 -1.09751E+04  8.89447E+03
 -1.43210E+04 -1.21804E+03 -9.55588E+03 -1.01144E+04 -1.15920E+03 -1.54954E+04  8.55432E+03 -1.56724E+04
  1.58894E+04 -8.39758E+03  1.89205E+04  2.59215E+03  1.29667E+04  1.34021E+04  1.99081E+03  1.70309E+04
 -7.16650E+03  1.39797E+04 -1.05846E+04  5.23226E+03 -6.91716E+03 -1.68365E+03 -2.70077E+03 -1.95563E+03
 -1.07040E+03 -2.83533E+02 -2.27779E+03  3.14221E+03 -5.64033E+03  2.60941E+03 -9.93440E+03 -1.23989E+03
 -7.02836E+03 -9.82053E+03  2.07292E+02 -1.43852E+04  8.33888E+03 -1.29715E+04  1.41255E+04 -4.18984E+03
  1.41074E+04  7.24267E+03  6.53108E+03  1.25965E+04 -2.91588E+03  1.43775E+04 -1.03297E+04  9.06192E+03
 -1.35718E+04  5.06736E+02 -1.05325E+04 -8.28871E+03 -1.14681E+03 -1.20947E+04  6.14051E+03 -8.68644E+03
  8.86590E+03 -2.85460E+03  6.14138E+03  2.49133E+03  2.01820E+03  4.18850E+03  1.61859E+03  1.79779E+03
  2.60111E+03  6.51784E+02  3.34268E+03  2.00549E+03  4.02579E+03  5.19118E+03  3.95216E+03  7.33356E+03
 -3.23380E+03  1.12454E+04 -1.04285E+04  1.14113E+04 -1.42794E+04  3.26983E+03 -1.49697E+04 -6.39425E+03
 -7.25021E+03 -1.43991E+04  2.19754E+03 -1.57181E+04  9.03248E+03 -1.00258E+04  1.19566E+04 -2.85788E+03
  9.25286E+03  5.21578E+03  1.91789E+03  8.24200E+03 -4.12998E+03  5.49322E+03 -5.84489E+03 -1.01621E+03
 -2.82897E+03 -6.34387E+03  3.39738E+03 -6.37567E+03  5.89455E+03 -3.23050E+03  6.00378E+03  1.22470E+03
  3.40134E+03  3.13666E+03  1.44851E+03  2.51049E+03 -8.30636E+02  2.00369E+03  1.86921E+03 -5.23917E+02
  2.26852E+03 -5.51947E+02  5.90909E+03  2.03385E+03  3.50470E+03  7.45958E+03 -1.07382E+03  1.01072E+04
 -6.88273E+03  6.33628E+03 -9.38608E+03  1.95722E+03 -8.07258E+03 -2.93594E+03 -3.34901E+03 -5.35764E+03
  1.07731E+03 -6.25708E+03  3.84584E+03 -2.54760E+03  2.79366E+03  2.68505E+03 -1.24662E+03  4.57990E+03
 -6.14029E+03  2.85404E+03 -6.64649E+03 -3.24533E+03 -3.68813E+03 -7.90377E+03  1.53657E+03 -7.76637E+03
  4.38422E+03 -5.02951E+03  5.71655E+03 -3.77015E+02  4.77175E+03  2.16772E+03  1.03710E+03  4.28962E+03
 -3.05280E+03  1.42252E+03 -3.42499E+03 -2.62706E+03  9.15978E+02 -6.08787E+03  6.79715E+03 -4.56694E+03
  8.71305E+03  5.50431E+02  8.84343E+03  5.95041E+03  2.77322E+03  9.35385E+03 -3.09382E+03  8.83616E+03
 -7.54147E+03  4.18159E+03 -7.83220E+03 -1.17523E+03 -4.06225E+03 -6.15891E+03  1.17552E+03 -5.73090E+03
  5.66363E+03 -2.72314E+03  5.07029E+03  2.42951E+03  1.48191E+03  5.15060E+03 -6.59448E+02  4.64430E+03
 -2.22280E+03  2.79311E+03 -2.27297E+03  1.22268E+03 -1.22983E+03  1.14955E+03 -1.43605E+03  1.97797E+03
 -2.39829E+03  3.72629E+03 -6.13469E+03  3.21928E+03 -9.31213E+03  2.31783E+02 -1.01859E+04 -5.94962E+03
 -5.03891E+03 -1.26674E+04  2.55582E+03 -1.39488E+04  8.35442E+03 -1.11946E+04  1.35448E+04 -4.51675E+03
  1.28387E+04  2.75253E+03  8.10721E+03  8.42556E+03  6.72722E+02  9.63238E+03 -3.65450E+03  7.36143E+03
 -5.42338E+03  2.68374E+03 -3.40057E+03 -1.08541E+03 -1.23467E+03 -9.46410E+02 -6.47131E+02 -2.75313E+02
 -1.62156E+03  3.35925E+02 -2.15820E+03 -2.70593E+02 -7.50699E+02 -2.30955E+03  2.31279E+02 -3.67104E+03
  4.56794E+03 -3.14185E+03  5.67271E+03  3.67938E+02  6.64999E+03  5.13522E+03  1.52349E+03  9.35030E+03
 -4.52758E+03  1.09883E+04 -9.85248E+03  6.32179E+03 -1.17655E+04 -1.03686E+03 -8.07248E+03 -7.08952E+03
 -3.46232E+03 -9.43267E+03  2.18154E+03 -9.12190E+03  5.75704E+03 -4.72016E+03  6.43771E+03 -1.19102E+01
  3.32336E+03  3.17941E+03 -3.07550E+02  2.59600E+03 -1.50685E+03 -3.11287E+02 -4.51502E+01 -2.32702E+03
  3.06477E+03 -1.63291E+03  3.89966E+03  1.20001E+03  2.42123E+03  3.96015E+03  2.12099E+02  4.71071E+03
 -4.15440E+03  4.16748E+03 -6.36647E+03  4.52349E+02 -5.79727E+03 -4.18210E+03 -7.17040E+02 -7.89400E+03
  4.37058E+03 -6.81784E+03  7.13333E+03 -1.73537E+03  6.99921E+03  1.75653E+03  4.27174E+03  5.43113E+03
  1.44279E+03  6.13726E+03 -2.67102E+03  4.77380E+03 -3.71879E+03  2.69229E+03 -3.45561E+03  3.22299E+02
 -1.92659E+03 -1.32682E+02 -1.79550E+03  9.64780E+02 -3.28572E+03  9.48986E+02 -4.52658E+03 -5.63649E+02
 -5.10349E+03 -3.32105E+03 -1.38972E+03 -6.33590E+03  2.97764E+03 -6.66641E+03  5.57791E+03 -2.89370E+03
  6.33605E+03  1.03187E+03  3.16466E+03  4.15238E+03 -5.52373E+02  6.02345E+03 -4.76825E+03  3.91375E+03
