 $NMID ID='MM_0lb_SNR800_12hz_g60_56.RAW', FMTDAT='(8E13.5)'
 TRAMP=1., VOLUME=1. $END
  3.09879E+05  5.39978E+02  3.37678E+05  2.50547E+05  8.48108E+04  3.38831E+05 -1.32688E+05  2.52071E+05
 -1.90859E+05  8.37447E+04 -1.12393E+05 -3.23225E+04  4.38657E+02 -5.04877E+04  5.39733E+04 -3.52837E+02
  3.52053E+04  5.25419E+04 -1.65046E+04  7.58990E+04 -6.11053E+04  6.45217E+04 -8.51416E+04  3.25794E+04
 -8.20987E+04 -1.17645E+04 -5.76493E+04 -5.18519E+04 -1.52576E+04 -7.06569E+04  2.80654E+04 -4.66096E+04
  4.11182E+04  3.68870E+03  1.68739E+04  4.86131E+04 -3.47770E+04  4.79964E+04 -6.75655E+04  1.79678E+02
 -5.45212E+04 -5.77222E+04 -7.16227E+03 -7.84320E+04  3.47274E+04 -5.65600E+04  4.93247E+04 -1.79341E+04
  4.46788E+04  1.14000E+04  3.27825E+04  2.64354E+04  1.57322E+04  3.01096E+04 -5.28854E+03  2.74687E+04
 -2.22760E+04  1.20370E+04 -1.82659E+04 -5.33931E+03  6.36163E+03 -7.24372E+03  2.33569E+04  1.31323E+04
  7.04406E+03  3.68472E+04 -3.33395E+04  3.66579E+04 -6.47435E+04  1.61466E+03 -5.81124E+04 -4.37548E+04
 -1.27958E+04 -6.50282E+04  4.12375E+04 -4.65777E+04  6.03438E+04 -2.46546E+03  3.61243E+04  3.39118E+04
 -5.80449E+03  3.81562E+04 -3.12256E+04  1.78807E+04 -3.25676E+04 -3.55488E+03 -1.85938E+04 -1.19387E+04
 -8.89527E+03 -1.43329E+04 -4.05156E+02 -1.88641E+04  7.87529E+03 -2.32632E+04  1.59824E+04 -1.26498E+04
  1.07872E+04  5.66476E+03 -9.96357E+03  1.27937E+04 -2.29559E+04 -5.89222E+03 -8.41848E+03 -3.67007E+04
  2.45390E+04 -4.56302E+04  5.08656E+04 -2.02200E+04  4.75996E+04  2.00859E+04  1.66325E+04  4.63789E+04
 -1.60600E+04  3.52525E+04 -2.71861E+04  2.04315E+03 -1.08668E+04 -2.88176E+04  2.13772E+04 -3.59604E+04
  4.34615E+04 -1.06062E+04  3.91522E+04  2.45435E+04  2.05283E+04  4.97971E+04 -8.22021E+03  5.44627E+04
 -3.43625E+04  3.69407E+04 -4.59983E+04  1.05673E+04 -4.60500E+04 -1.81418E+04 -2.54418E+04 -4.07151E+04
  7.72459E+03 -4.03618E+04  3.33195E+04 -1.64830E+04  3.11649E+04  1.09292E+04  4.76824E+03  2.01399E+04
 -1.34839E+04  9.10418E+03 -1.07964E+04 -7.55132E+03  5.68119E+03 -1.11890E+04  1.85750E+04  5.99460E+03
  1.41962E+04  2.24773E+04 -5.24704E+03  2.66958E+04 -2.32263E+04  1.34389E+04 -3.03945E+04 -3.50213E+03
 -2.39634E+04 -1.81161E+04 -1.05013E+04 -2.34567E+04  4.14046E+03 -2.36356E+04  1.82291E+04 -2.13115E+04
  2.98948E+04 -1.37633E+04  3.61976E+04  4.27745E+03  2.60614E+04  2.28073E+04  4.51608E+03  3.93324E+04
 -1.90612E+04  3.24035E+04 -2.95987E+04  1.14225E+04 -2.18992E+04 -1.04934E+04 -4.90832E+03 -1.29306E+04
  1.21365E+03 -1.60835E+03 -6.43450E+03  7.76366E+03 -1.90515E+04  4.99320E+03 -1.86058E+04 -8.69750E+03
 -1.15340E+04 -2.17819E+04  5.81588E+03 -2.60777E+04  1.71819E+04 -1.86295E+04  2.06728E+04 -1.67503E+03
  1.30123E+04  1.49594E+04 -1.14035E+03  2.15349E+04 -1.53980E+04  1.22154E+04 -2.17414E+04 -4.65967E+03
 -1.57843E+04 -1.97464E+04 -2.49678E+03 -2.59525E+04  1.16715E+04 -2.16485E+04  2.15198E+04 -1.12357E+04
  2.00180E+04 -1.38306E+02  1.46051E+04  5.11108E+03  8.39320E+03  1.26353E+03  1.14559E+04 -1.93767E+03
  2.04195E+04  2.92437E+03  2.31318E+04  1.68207E+04  1.60566E+04  3.49307E+04 -2.66327E+03  4.02536E+04
 -2.31835E+04  3.36460E+04 -3.79252E+04  1.69640E+04 -4.05233E+04 -3.07961E+03 -3.31327E+04 -2.35902E+04
 -1.31290E+04 -3.35333E+04  1.15826E+04 -2.93212E+04  2.55993E+04 -1.48297E+04  2.19204E+04  7.16115E+03
  7.64759E+03  1.70540E+04 -1.07679E+04  1.42196E+04 -1.91255E+04  2.61898E+03 -1.37564E+04 -1.16881E+04
 -3.71376E+02 -1.76846E+04  9.50676E+03 -1.31017E+04  1.21555E+04 -1.35936E+03  3.29573E+03  7.96449E+03
 -7.98622E+03  3.69938E+03 -8.09513E+03 -6.47617E+03 -1.06282E+03 -1.64967E+04  1.10272E+04 -1.76476E+04
  2.07045E+04 -9.58967E+03  2.25328E+04  3.33339E+03  1.97813E+04  1.63464E+04  9.51935E+03  2.55339E+04
 -4.68319E+03  2.75300E+04 -1.77403E+04  1.67449E+04 -1.98089E+04  3.54346E+03 -1.35784E+04 -4.87932E+03
 -5.84088E+03 -6.07638E+03 -4.78902E+02  1.08529E+03 -2.67569E+03  3.19826E+03 -6.38749E+03  4.89451E+03
 -1.28572E+04 -6.71454E+02 -1.33922E+04 -1.05960E+04 -5.48663E+03 -1.74313E+04  5.70109E+03 -1.38725E+04
  1.10397E+04 -5.35995E+03  7.56324E+03  3.71847E+03  2.43522E+00  5.55178E+03 -6.63475E+03 -1.47474E+02
 -6.67382E+03 -8.60423E+03 -8.83650E+02 -1.35165E+04  8.13669E+03 -1.41405E+04  1.71186E+04 -7.21615E+03
  2.03027E+04  2.29672E+03  1.45920E+04  1.23771E+04  3.03534E+03  1.62688E+04 -8.81056E+03  1.35682E+04
 -1.14806E+04  4.06353E+03 -5.32746E+03 -2.50914E+03  2.18965E+03 -3.86384E+03  6.89630E+03 -9.67002E+02
  6.62949E+03  5.97029E+03  1.43453E+03  1.08885E+04 -7.89855E+03  1.02237E+04 -1.38761E+04  2.19748E+03
 -9.09699E+03 -7.15233E+03  3.92309E+02 -1.13944E+04  7.08508E+03 -5.94360E+03  7.74901E+03  2.53320E+03
  1.79200E+03  8.28454E+03 -7.11180E+03  9.83743E+03 -1.11674E+04  4.34917E+03 -1.14438E+04 -3.95049E+03
 -6.68949E+03 -1.28382E+04  3.31740E+03 -1.52523E+04  1.22993E+04 -8.95475E+03  1.40023E+04  2.33011E+03
  8.61134E+03  1.08525E+04 -1.30590E+03  1.30892E+04 -9.73333E+03  7.61878E+03 -1.06558E+04 -8.97105E+02
 -9.28979E+03 -9.02098E+03 -2.14711E+03 -1.01596E+04  5.30719E+03 -8.13547E+03  6.50552E+03 -3.37302E+03
  4.38380E+03  1.41457E+03 -7.21099E+02  1.79822E+03 -2.37726E+02 -2.61089E+03  1.78999E+03 -5.55428E+03
  9.24129E+03 -3.25477E+03  1.26335E+04  1.62102E+03  1.22720E+04  8.64934E+03  8.84486E+03  1.65537E+04
 -3.77428E+03  1.91991E+04 -1.62907E+04  1.40970E+04 -2.10352E+04  2.62126E+03 -1.67709E+04 -6.79976E+03
 -8.61107E+03 -1.38689E+04 -4.02919E+02 -1.17840E+04  4.51280E+03 -6.31555E+03  4.00216E+03 -4.38493E+03
  3.11215E+03 -2.54895E+03  3.59497E+03 -3.75982E+03  5.42024E+03 -3.00861E+03  6.80896E+03 -7.98791E+02
  8.71756E+03  2.21256E+03  4.29794E+03  7.50169E+03 -1.97940E+03  8.59048E+03 -9.30405E+03  6.75196E+03
 -1.17318E+04 -1.30014E+03 -7.15809E+03 -7.95867E+03 -5.45971E+02 -1.19970E+04  7.02869E+03 -1.24473E+04
  1.27316E+04 -6.97611E+03  1.51626E+04  1.76481E+03  1.07404E+04  1.02580E+04  1.59979E+03  1.36215E+04
 -5.36661E+03  1.17626E+04 -7.97840E+03  3.98160E+03 -5.75923E+03 -1.51919E+03 -2.22415E+03 -1.78223E+03
 -1.33956E+03  1.17822E+02 -1.88862E+03  2.67055E+03 -4.86700E+03  1.67442E+03 -7.91682E+03 -9.53215E+02
 -5.29852E+03 -8.05510E+03  4.16744E+02 -1.10462E+04  7.30632E+03 -1.05482E+04  1.13028E+04 -3.29595E+03
  1.11395E+04  5.37622E+03  5.02722E+03  9.80683E+03 -2.32163E+03  1.10276E+04 -8.09846E+03  7.08407E+03
 -1.01981E+04  3.31441E+02 -7.91837E+03 -6.49584E+03 -6.87462E+02 -9.19728E+03  4.59692E+03 -6.63295E+03
  7.23716E+03 -2.45549E+03  4.87273E+03  1.63472E+03  1.61346E+03  3.25697E+03  1.42451E+03  1.32340E+03
  2.16174E+03  7.38867E+02  2.88904E+03  1.61346E+03  3.26686E+03  3.87368E+03  2.82863E+03  5.74384E+03
 -2.35932E+03  8.41932E+03 -7.44465E+03  8.87327E+03 -1.08847E+04  2.58312E+03 -1.17667E+04 -4.22200E+03
 -5.12266E+03 -1.10413E+04  1.63902E+03 -1.23325E+04  7.03580E+03 -7.57181E+03  9.08799E+03 -1.92613E+03
  6.97018E+03  4.27243E+03  1.37218E+03  6.44421E+03 -2.99244E+03  3.84274E+03 -4.54361E+03 -6.93618E+02
 -1.95627E+03 -4.40377E+03  2.39546E+03 -4.67825E+03  4.05438E+03 -2.38878E+03  3.95210E+03  1.30714E+03
  2.86621E+03  2.03810E+03  1.30906E+03  1.63550E+03 -3.52708E+02  1.88128E+03  1.91419E+03 -6.69809E+02
  1.43355E+03 -3.64475E+02  4.49544E+03  2.05861E+03  2.33672E+03  5.87383E+03 -5.61196E+02  7.75068E+03
 -5.33460E+03  4.81531E+03 -7.03504E+03  1.30373E+03 -6.27424E+03 -2.17567E+03 -1.91585E+03 -3.98809E+03
  7.17488E+02 -4.05310E+03  2.65510E+03 -1.79756E+03  2.11821E+03  2.35611E+03 -1.41807E+03  3.43968E+03
 -4.45213E+03  2.11319E+03 -4.68932E+03 -2.59400E+03 -2.64253E+03 -5.94347E+03  9.55222E+02 -5.54308E+03
  3.53067E+03 -3.25194E+03  3.82965E+03 -3.05231E+02  3.76509E+03  1.07724E+03  4.75983E+02  2.76031E+03
 -1.84650E+03  8.84441E+02 -2.48132E+03 -1.93548E+03  1.07548E+03 -4.03902E+03  5.19465E+03 -3.68069E+03
  6.41966E+03  4.31280E+02  6.70432E+03  4.30264E+03  2.32925E+03  6.37919E+03 -2.23592E+03  6.43804E+03
 -5.33477E+03  2.86348E+03 -5.79510E+03 -1.16874E+03 -3.19730E+03 -4.89578E+03  8.78206E+02 -3.69787E+03
  4.07452E+03 -1.94499E+03  3.34695E+03  1.96370E+03  9.14364E+02  3.97308E+03 -1.70666E+02  3.35785E+03
 -1.76611E+03  2.50740E+03 -1.71683E+03  7.51090E+02 -2.73970E+02  6.23927E+02 -9.81075E+02  1.24121E+03
 -1.73430E+03  2.86714E+03 -4.99305E+03  2.44395E+03 -6.59183E+03  6.77517E+01 -6.89507E+03 -3.99459E+03
 -3.92143E+03 -8.65126E+03  1.77873E+03 -9.95516E+03  6.34450E+03 -7.55080E+03  9.56547E+03 -2.88354E+03
  8.71614E+03  1.87224E+03  4.90514E+03  5.99742E+03  6.91010E+01  6.52683E+03 -2.44780E+03  4.95650E+03
 -3.35098E+03  1.68763E+03 -2.01929E+03 -7.38376E+02 -3.77715E+02 -2.13488E+02 -4.91088E+02  5.07110E+01
 -1.01633E+03  1.34482E+02 -1.56065E+03 -4.14957E+01 -5.29139E+02 -1.38541E+03  2.79414E+01 -2.32414E+03
  3.12692E+03 -2.17563E+03  3.59223E+03  6.36850E-01  4.42158E+03  3.46587E+03  1.02367E+03  6.25862E+03
 -3.02342E+03  7.84438E+03 -6.61558E+03  4.15088E+03 -7.87057E+03 -4.57315E+02 -5.64995E+03 -4.66291E+03
 -2.63456E+03 -6.40268E+03  1.53728E+03 -5.69080E+03  4.17879E+03 -2.82083E+03  3.70635E+03  3.57714E+02
  2.19497E+03  1.96618E+03 -9.60161E-01  1.73186E+03 -1.08689E+03 -1.03422E+02  1.89942E+02 -1.26066E+03
  1.96813E+03 -8.49465E+02  2.22389E+03  1.05336E+03  1.44722E+03  2.28232E+03  6.69888E+02  2.97207E+03
 -2.74603E+03  2.83187E+03 -4.20417E+03  4.35476E+02 -3.93437E+03 -2.83117E+03 -5.89874E+02 -5.24530E+03
  2.73606E+03 -3.93227E+03  4.68180E+03 -1.17130E+03  4.33314E+03  7.16092E+02  2.60400E+03  3.97263E+03
  6.30821E+02  3.93444E+03 -1.61405E+03  3.11989E+03 -2.55594E+03  2.06555E+03 -2.20212E+03  4.79759E+02
 -1.17109E+03 -2.20517E+02 -1.15554E+03  5.85210E+02 -2.04400E+03  4.34250E+02 -3.00817E+03 -7.95127E+02
 -3.46087E+03 -1.58136E+03 -7.73748E+02 -3.89989E+03  2.20270E+03 -4.55203E+03  3.61007E+03 -1.76321E+03
  3.76017E+03  3.54129E+02  1.64639E+03  2.47964E+03 -4.29218E+02  3.94241E+03 -2.82174E+03  2.76845E+03
