 $NMID ID='MM_0lb_SNR800_11hz_g40_79.RAW', FMTDAT='(8E13.5)'
 TRAMP=1., VOLUME=1. $END
  3.09965E+05  1.84210E+02  3.37894E+05  2.50598E+05  8.45607E+04  3.38236E+05 -1.32566E+05  2.51313E+05
 -1.90146E+05  8.35183E+04 -1.11994E+05 -3.26059E+04  7.17536E+02 -5.08728E+04  5.37478E+04 -1.19761E+02
  3.53544E+04  5.30017E+04 -1.66412E+04  7.56390E+04 -6.10220E+04  6.35047E+04 -8.47821E+04  3.24888E+04
 -8.16645E+04 -1.16210E+04 -5.79401E+04 -5.14439E+04 -1.50857E+04 -7.00552E+04  2.76566E+04 -4.58000E+04
  4.03272E+04  3.93663E+03  1.61849E+04  4.79955E+04 -3.45035E+04  4.76070E+04 -6.69581E+04 -4.56376E+00
 -5.40829E+04 -5.69358E+04 -6.99617E+03 -7.80294E+04  3.40677E+04 -5.55047E+04  4.84982E+04 -1.76614E+04
  4.36617E+04  1.16935E+04  3.21032E+04  2.57216E+04  1.59736E+04  2.98867E+04 -5.34801E+03  2.74182E+04
 -2.18250E+04  1.21036E+04 -1.83209E+04 -5.15274E+03  6.57192E+03 -7.05305E+03  2.28590E+04  1.29046E+04
  7.06828E+03  3.59606E+04 -3.25682E+04  3.61975E+04 -6.40427E+04  2.10664E+03 -5.78650E+04 -4.30327E+04
 -1.26650E+04 -6.44901E+04  4.03935E+04 -4.58764E+04  5.96001E+04 -2.20011E+03  3.52177E+04  3.27944E+04
 -5.92969E+03  3.73172E+04 -3.08842E+04  1.71039E+04 -3.16272E+04 -4.19816E+03 -1.79406E+04 -1.15213E+04
 -8.76898E+03 -1.39272E+04 -5.85703E+02 -1.84508E+04  7.78275E+03 -2.33923E+04  1.54119E+04 -1.30297E+04
  1.13417E+04  5.27386E+03 -8.85479E+03  1.28702E+04 -2.18710E+04 -5.34522E+03 -8.65127E+03 -3.51804E+04
  2.37984E+04 -4.49893E+04  4.96368E+04 -2.01870E+04  4.65335E+04  1.97512E+04  1.62488E+04  4.53459E+04
 -1.62653E+04  3.43158E+04 -2.63621E+04  2.01562E+03 -1.00919E+04 -2.81179E+04  2.13003E+04 -3.49798E+04
  4.23987E+04 -1.00015E+04  3.74024E+04  2.43949E+04  1.93563E+04  4.86676E+04 -8.07199E+03  5.25805E+04
 -3.31974E+04  3.55007E+04 -4.44014E+04  1.02219E+04 -4.43389E+04 -1.72663E+04 -2.41151E+04 -3.97227E+04
  7.77310E+03 -3.90905E+04  3.26562E+04 -1.55028E+04  3.03436E+04  1.10285E+04  4.99792E+03  1.95305E+04
 -1.37444E+04  8.55407E+03 -1.08540E+04 -7.52464E+03  5.83612E+03 -1.10651E+04  1.86176E+04  5.99662E+03
  1.38085E+04  2.23552E+04 -5.50222E+03  2.58566E+04 -2.28887E+04  1.23798E+04 -2.93544E+04 -3.90706E+03
 -2.24398E+04 -1.78969E+04 -9.28270E+03 -2.23037E+04  4.23358E+03 -2.17486E+04  1.72442E+04 -1.99258E+04
  2.83633E+04 -1.33104E+04  3.47254E+04  3.27695E+03  2.50917E+04  2.18215E+04  4.35844E+03  3.88148E+04
 -1.86469E+04  3.17896E+04 -2.91275E+04  1.10861E+04 -2.16729E+04 -1.04405E+04 -4.81557E+03 -1.36038E+04
  9.99495E+02 -2.26366E+03 -6.07703E+03  7.41912E+03 -1.80059E+04  4.84006E+03 -1.81007E+04 -8.19985E+03
 -1.06468E+04 -2.07646E+04  5.23550E+03 -2.48773E+04  1.64741E+04 -1.79174E+04  2.00128E+04 -1.23654E+03
  1.25881E+04  1.43990E+04 -9.71845E+02  2.04175E+04 -1.46594E+04  1.20536E+04 -2.08767E+04 -4.31095E+03
 -1.52485E+04 -1.84507E+04 -1.72522E+03 -2.49931E+04  1.10495E+04 -2.06945E+04  2.11032E+04 -1.06287E+04
  1.94594E+04 -1.71721E+02  1.43025E+04  4.66213E+03  7.65018E+03  8.80646E+02  1.08453E+04 -2.00379E+03
  1.93019E+04  2.79975E+03  2.19212E+04  1.65631E+04  1.47747E+04  3.34387E+04 -2.99944E+03  3.82479E+04
 -2.17835E+04  3.13127E+04 -3.62358E+04  1.58707E+04 -3.83097E+04 -3.02239E+03 -3.13472E+04 -2.21527E+04
 -1.31184E+04 -3.13827E+04  1.10967E+04 -2.80096E+04  2.43171E+04 -1.35978E+04  2.15342E+04  6.14244E+03
  7.55465E+03  1.61871E+04 -9.78226E+03  1.35527E+04 -1.77524E+04  2.87824E+03 -1.37122E+04 -1.10078E+04
 -2.58425E+02 -1.71910E+04  9.13449E+03 -1.27701E+04  1.15985E+04 -1.02074E+03  2.73051E+03  7.09577E+03
 -7.55914E+03  3.15544E+03 -7.01138E+03 -6.38098E+03 -1.16569E+03 -1.53770E+04  1.02180E+04 -1.64253E+04
  1.95182E+04 -8.78797E+03  2.13703E+04  2.86243E+03  1.87783E+04  1.53616E+04  8.65715E+03  2.42851E+04
 -4.21918E+03  2.57507E+04 -1.70307E+04  1.63188E+04 -1.87404E+04  3.25555E+03 -1.32287E+04 -4.37840E+03
 -5.72240E+03 -6.12039E+03 -8.55480E+02  8.02981E+02 -2.64885E+03  2.78314E+03 -6.32341E+03  4.39159E+03
 -1.22608E+04 -9.27961E+02 -1.26571E+04 -1.01867E+04 -5.09045E+03 -1.62878E+04  4.99988E+03 -1.32566E+04
  1.11183E+04 -5.70983E+03  7.86068E+03  3.43436E+03  9.36689E+01  5.10667E+03 -6.53409E+03 -3.57314E+02
 -5.94643E+03 -8.70121E+03 -9.54343E+02 -1.26417E+04  7.18295E+03 -1.35018E+04  1.62366E+04 -7.31049E+03
  1.95707E+04  1.89055E+03  1.42532E+04  1.17024E+04  2.70638E+03  1.57950E+04 -8.01668E+03  1.31675E+04
 -1.06708E+04  3.43915E+03 -5.62554E+03 -2.51702E+03  2.00598E+03 -3.89244E+03  7.16690E+03 -1.00282E+03
  6.14028E+03  5.78318E+03  1.04233E+03  1.02045E+04 -7.65379E+03  1.01055E+04 -1.28387E+04  2.11232E+03
 -8.83620E+03 -6.53162E+03  3.24056E+02 -1.07076E+04  6.92317E+03 -5.71919E+03  7.35041E+03  2.61420E+03
  1.43274E+03  7.89764E+03 -6.78863E+03  9.37487E+03 -1.07915E+04  4.00967E+03 -1.03846E+04 -3.83505E+03
 -6.37912E+03 -1.23461E+04  3.25092E+03 -1.42147E+04  1.17185E+04 -8.56307E+03  1.33782E+04  2.51492E+03
  8.38436E+03  1.08049E+04 -8.22175E+02  1.28305E+04 -9.07989E+03  6.89285E+03 -1.01509E+04 -1.06391E+03
 -8.91175E+03 -8.55494E+03 -1.46463E+03 -9.69892E+03  5.04220E+03 -7.71033E+03  6.34148E+03 -3.60662E+03
  4.50619E+03  1.82141E+03 -8.29070E+02  1.75707E+03 -4.29691E+02 -2.18722E+03  1.73490E+03 -5.71524E+03
  8.56478E+03 -3.71343E+03  1.23450E+04  1.22797E+03  1.21445E+04  7.91593E+03  8.25449E+03  1.56811E+04
 -3.52923E+03  1.82315E+04 -1.52765E+04  1.40270E+04 -2.00949E+04  2.80794E+03 -1.65264E+04 -6.64283E+03
 -8.29698E+03 -1.29286E+04 -1.42442E+02 -1.10628E+04  4.22049E+03 -6.12353E+03  3.60829E+03 -4.26021E+03
  2.75280E+03 -2.60328E+03  3.40506E+03 -3.59815E+03  4.74319E+03 -2.75922E+03  6.48387E+03 -5.03907E+02
  8.77245E+03  1.90178E+03  4.25955E+03  7.04232E+03 -2.44595E+03  8.07040E+03 -9.28671E+03  6.48628E+03
 -1.14079E+04 -1.40680E+03 -6.83682E+03 -8.10909E+03 -7.93585E+02 -1.19493E+04  6.56722E+03 -1.20337E+04
  1.22148E+04 -6.75593E+03  1.46987E+04  1.93629E+03  1.03045E+04  9.98776E+03  1.55385E+03  1.36324E+04
 -5.49340E+03  1.10335E+04 -7.71489E+03  4.09326E+03 -5.32578E+03 -1.13346E+03 -2.19980E+03 -1.63635E+03
 -9.86147E+02  2.21865E+02 -1.57259E+03  2.68030E+03 -4.50465E+03  1.75729E+03 -7.66093E+03 -1.10527E+03
 -5.29558E+03 -7.64728E+03  4.56143E+00 -1.11868E+04  6.50231E+03 -1.04395E+04  1.08387E+04 -2.98474E+03
  1.06875E+04  5.30396E+03  5.37249E+03  9.24586E+03 -1.91032E+03  1.09830E+04 -7.86758E+03  6.60835E+03
 -9.65858E+03  6.99048E+02 -7.86574E+03 -6.51382E+03 -7.38980E+02 -9.37129E+03  4.74387E+03 -6.75570E+03
  6.57614E+03 -2.25631E+03  4.39967E+03  1.56158E+03  1.40931E+03  3.34406E+03  9.73652E+02  1.82635E+03
  2.21420E+03  1.00486E+03  2.76746E+03  1.55458E+03  3.12406E+03  4.12290E+03  2.85398E+03  5.43497E+03
 -2.11281E+03  8.96020E+03 -7.44729E+03  8.46892E+03 -1.08836E+04  2.54726E+03 -1.12751E+04 -4.14944E+03
 -5.40727E+03 -1.05811E+04  1.71461E+03 -1.21862E+04  6.53807E+03 -7.67601E+03  8.98012E+03 -2.38159E+03
  7.21267E+03  4.32443E+03  1.68123E+03  6.10076E+03 -2.81325E+03  3.71248E+03 -4.14684E+03 -3.12878E+02
 -1.88558E+03 -4.71968E+03  2.08278E+03 -4.48561E+03  4.48185E+03 -2.61645E+03  4.08523E+03  1.13741E+03
  2.59386E+03  1.63205E+03  8.64507E+02  1.27890E+03 -8.62043E+02  1.39742E+03  1.30981E+03 -7.15754E+02
  1.47108E+03 -7.42621E+02  4.63600E+03  1.50588E+03  2.34927E+03  6.06966E+03 -1.15383E+03  7.64690E+03
 -5.05765E+03  4.82904E+03 -7.01179E+03  1.23049E+03 -6.35487E+03 -2.59206E+03 -2.05340E+03 -3.96401E+03
  8.32567E+02 -4.06712E+03  2.76883E+03 -1.99472E+03  2.55811E+03  2.27418E+03 -1.20453E+03  3.66003E+03
 -4.27543E+03  1.90489E+03 -4.41644E+03 -2.86147E+03 -2.73490E+03 -5.97875E+03  5.48125E+02 -5.54621E+03
  3.27626E+03 -3.21403E+03  4.12732E+03 -2.11547E+02  3.54231E+03  1.45408E+03  6.24064E+02  3.30035E+03
 -1.62154E+03  8.91806E+02 -2.84329E+03 -1.80265E+03  1.20344E+03 -4.12294E+03  5.09907E+03 -3.74037E+03
  6.38302E+03  4.13669E+02  7.03509E+03  4.75431E+03  2.60365E+03  6.73245E+03 -2.37619E+03  6.13720E+03
 -5.86468E+03  2.54950E+03 -5.71685E+03 -9.78469E+02 -2.94314E+03 -4.77645E+03  1.30464E+03 -3.91227E+03
  4.23975E+03 -2.30551E+03  3.49785E+03  2.09587E+03  1.15854E+03  3.86523E+03 -3.68150E+02  3.18112E+03
 -1.79413E+03  2.31512E+03 -1.63996E+03  4.45928E+02 -7.95466E+02  7.77645E+02 -1.24076E+03  1.61515E+03
 -1.80784E+03  2.60778E+03 -5.00257E+03  2.45958E+03 -6.68204E+03  3.51514E+02 -7.50150E+03 -3.84137E+03
 -3.85883E+03 -8.47513E+03  1.82963E+03 -1.05496E+04  6.69862E+03 -8.37619E+03  9.97832E+03 -4.05587E+03
  8.97127E+03  1.40978E+03  5.36189E+03  6.45059E+03  4.14771E+02  6.73292E+03 -2.94692E+03  5.18875E+03
 -3.98538E+03  1.99163E+03 -2.56730E+03 -9.16305E+02 -7.84634E+02 -1.32473E+02 -6.48754E+02  8.12135E+01
 -1.65539E+03  1.75746E+01 -1.71190E+03 -6.35432E+01 -5.38223E+02 -1.67085E+03  6.35114E+01 -2.76579E+03
  3.18253E+03 -2.24027E+03  4.04080E+03  1.75032E+02  4.48816E+03  3.66590E+03  8.99652E+02  6.85515E+03
 -3.70984E+03  8.07582E+03 -7.33016E+03  4.61190E+03 -8.50469E+03 -7.09869E+02 -6.17380E+03 -5.02696E+03
 -2.71048E+03 -6.82384E+03  1.86054E+03 -6.67432E+03  4.49196E+03 -3.12106E+03  4.41221E+03  4.48545E+02
  2.43188E+03  2.11214E+03 -4.72612E+02  1.97865E+03 -1.50144E+03 -1.91658E+02  1.04853E+02 -1.35892E+03
  2.09742E+03 -6.00143E+02  2.55318E+03  1.16532E+03  1.89992E+03  2.65603E+03  1.25954E+02  3.18370E+03
 -2.71958E+03  3.05754E+03 -4.33454E+03  1.51233E+02 -3.83130E+03 -3.23912E+03 -6.90445E+02 -5.56158E+03
  3.16876E+03 -4.74485E+03  5.37550E+03 -1.43192E+03  5.32711E+03  6.47261E+02  3.08661E+03  4.20594E+03
  5.56333E+02  4.44918E+03 -1.74993E+03  3.38072E+03 -2.97786E+03  1.96471E+03 -2.39566E+03  3.85449E+02
 -1.29518E+03 -6.05004E+01 -1.17733E+03  3.44239E+02 -2.33815E+03  1.11421E+03 -3.56088E+03 -4.31391E+02
 -3.37227E+03 -1.74574E+03 -1.18122E+03 -4.57219E+03  2.27491E+03 -5.06916E+03  4.15869E+03 -2.60682E+03
  4.74107E+03  4.72441E+02  1.98317E+03  2.96656E+03 -4.66579E+01  4.55162E+03 -3.34900E+03  3.07126E+03
