 $NMID ID='MM_0lb_SNR800_12hz_g55_21.RAW', FMTDAT='(8E13.5)'
 TRAMP=1., VOLUME=1. $END
  3.09891E+05  4.04296E+02  3.37589E+05  2.50634E+05  8.48167E+04  3.38254E+05 -1.32659E+05  2.51803E+05
 -1.90314E+05  8.34247E+04 -1.12210E+05 -3.21815E+04  3.87035E+02 -5.05546E+04  5.35556E+04 -3.46943E+02
  3.56504E+04  5.30801E+04 -1.67524E+04  7.57526E+04 -6.08447E+04  6.43759E+04 -8.46871E+04  3.24154E+04
 -8.13531E+04 -1.14008E+04 -5.78978E+04 -5.22402E+04 -1.51207E+04 -7.04320E+04  2.77695E+04 -4.63741E+04
  4.07684E+04  3.71277E+03  1.64467E+04  4.84579E+04 -3.47940E+04  4.79252E+04 -6.77457E+04  6.28442E+01
 -5.44559E+04 -5.71886E+04 -7.03422E+03 -7.84468E+04  3.43263E+04 -5.61817E+04  4.87784E+04 -1.77818E+04
  4.44251E+04  1.14101E+04  3.25352E+04  2.60674E+04  1.54339E+04  3.01004E+04 -5.69574E+03  2.75205E+04
 -2.22104E+04  1.22058E+04 -1.85904E+04 -5.29393E+03  6.38180E+03 -7.58095E+03  2.29275E+04  1.30060E+04
  7.45327E+03  3.65264E+04 -3.31347E+04  3.63262E+04 -6.44740E+04  2.01968E+03 -5.83561E+04 -4.38580E+04
 -1.25626E+04 -6.46420E+04  4.10229E+04 -4.66720E+04  5.98488E+04 -2.25712E+03  3.54029E+04  3.34812E+04
 -5.81345E+03  3.79638E+04 -3.12898E+04  1.74344E+04 -3.19130E+04 -3.93172E+03 -1.78751E+04 -1.13928E+04
 -8.71839E+03 -1.43916E+04 -6.33796E+02 -1.90326E+04  7.92621E+03 -2.33072E+04  1.57669E+04 -1.29592E+04
  1.09901E+04  6.03926E+03 -9.61258E+03  1.25452E+04 -2.23327E+04 -5.64629E+03 -8.35015E+03 -3.55643E+04
  2.40786E+04 -4.52042E+04  5.00767E+04 -2.02747E+04  4.69713E+04  2.03729E+04  1.69019E+04  4.58755E+04
 -1.62998E+04  3.46030E+04 -2.65846E+04  2.54299E+03 -1.09433E+04 -2.86163E+04  2.11521E+04 -3.53210E+04
  4.31032E+04 -1.01584E+04  3.82226E+04  2.44097E+04  2.00302E+04  4.87418E+04 -8.23988E+03  5.33528E+04
 -3.37890E+04  3.64887E+04 -4.48068E+04  1.04496E+04 -4.53895E+04 -1.78049E+04 -2.50388E+04 -4.02936E+04
  7.40688E+03 -4.03305E+04  3.29022E+04 -1.64429E+04  3.04736E+04  1.11188E+04  4.64993E+03  2.01030E+04
 -1.39814E+04  9.29745E+03 -1.09955E+04 -7.55274E+03  5.73832E+03 -1.09051E+04  1.83733E+04  6.14650E+03
  1.43143E+04  2.23374E+04 -5.43894E+03  2.61419E+04 -2.29941E+04  1.31638E+04 -2.98490E+04 -3.63593E+03
 -2.30526E+04 -1.80153E+04 -9.83798E+03 -2.30191E+04  4.24949E+03 -2.27677E+04  1.76655E+04 -2.08091E+04
  2.93615E+04 -1.32687E+04  3.54917E+04  3.57671E+03  2.57350E+04  2.20392E+04  4.22203E+03  3.88430E+04
 -1.88579E+04  3.24121E+04 -2.93208E+04  1.09214E+04 -2.16974E+04 -1.05975E+04 -4.50673E+03 -1.32497E+04
  1.06834E+03 -1.65673E+03 -5.98538E+03  7.75153E+03 -1.83206E+04  5.17057E+03 -1.84937E+04 -8.33989E+03
 -1.08258E+04 -2.14192E+04  5.68830E+03 -2.56613E+04  1.72179E+04 -1.84896E+04  2.03174E+04 -1.84546E+03
  1.29240E+04  1.43747E+04 -1.28268E+03  2.13049E+04 -1.54274E+04  1.22883E+04 -2.14155E+04 -4.27324E+03
 -1.54790E+04 -1.90698E+04 -2.05874E+03 -2.57435E+04  1.16448E+04 -2.13055E+04  2.10061E+04 -1.04839E+04
  2.00145E+04  5.89815E+01  1.42744E+04  4.76374E+03  8.17321E+03  1.07709E+03  1.08594E+04 -1.47647E+03
  1.96175E+04  2.95912E+03  2.25187E+04  1.65929E+04  1.47883E+04  3.38752E+04 -2.68044E+03  3.89749E+04
 -2.26158E+04  3.24693E+04 -3.70908E+04  1.62347E+04 -3.91482E+04 -3.05714E+03 -3.18237E+04 -2.26407E+04
 -1.33174E+04 -3.22579E+04  1.13325E+04 -2.84580E+04  2.47045E+04 -1.38280E+04  2.13348E+04  7.01090E+03
  7.81302E+03  1.65233E+04 -1.02199E+04  1.41602E+04 -1.82053E+04  2.34754E+03 -1.38475E+04 -1.13012E+04
 -1.63937E+02 -1.73751E+04  9.30272E+03 -1.27107E+04  1.16508E+04 -1.07683E+03  2.97337E+03  7.92296E+03
 -7.61847E+03  3.78663E+03 -7.61231E+03 -6.35967E+03 -1.30424E+03 -1.58849E+04  1.07929E+04 -1.67647E+04
  1.98951E+04 -9.24422E+03  2.19656E+04  3.15441E+03  1.94041E+04  1.56956E+04  8.87759E+03  2.41259E+04
 -4.56535E+03  2.64989E+04 -1.70559E+04  1.63739E+04 -1.88148E+04  3.81493E+03 -1.34120E+04 -4.67088E+03
 -6.13193E+03 -6.04176E+03 -8.20063E+02  7.78535E+02 -2.39164E+03  2.92565E+03 -6.50092E+03  4.83375E+03
 -1.23439E+04 -7.93767E+02 -1.27339E+04 -1.03270E+04 -5.21752E+03 -1.66885E+04  5.55547E+03 -1.36792E+04
  1.09653E+04 -5.88490E+03  7.60175E+03  3.63798E+03  3.96109E+01  5.12861E+03 -6.31722E+03  3.98659E+01
 -6.53340E+03 -8.55332E+03 -1.19449E+03 -1.27011E+04  7.31829E+03 -1.36636E+04  1.71265E+04 -7.08305E+03
  1.99993E+04  1.59442E+03  1.43843E+04  1.19221E+04  2.69096E+03  1.61586E+04 -8.16962E+03  1.32754E+04
 -1.08690E+04  4.21401E+03 -5.65262E+03 -2.85564E+03  2.07398E+03 -3.56160E+03  7.35099E+03 -1.25023E+03
  6.35409E+03  5.65289E+03  1.11252E+03  1.08239E+04 -7.94572E+03  1.04316E+04 -1.29183E+04  2.37529E+03
 -8.77033E+03 -6.63459E+03  3.61053E+02 -1.10971E+04  7.17050E+03 -5.59910E+03  7.20233E+03  2.88673E+03
  1.98173E+03  7.93106E+03 -6.99017E+03  9.36573E+03 -1.05937E+04  4.18517E+03 -1.06738E+04 -3.84102E+03
 -6.58150E+03 -1.22709E+04  2.80685E+03 -1.42638E+04  1.21991E+04 -8.78251E+03  1.30366E+04  2.63855E+03
  7.83574E+03  1.02505E+04 -7.24213E+02  1.29102E+04 -9.31422E+03  7.43432E+03 -1.03771E+04 -1.19677E+03
 -8.70976E+03 -8.55763E+03 -1.71872E+03 -9.53329E+03  5.51764E+03 -7.75640E+03  5.90113E+03 -3.50570E+03
  4.26738E+03  1.44320E+03 -9.47550E+02  1.76456E+03 -2.32767E+02 -2.26200E+03  1.93566E+03 -5.50725E+03
  8.83260E+03 -3.63208E+03  1.24197E+04  1.60975E+03  1.20909E+04  8.23730E+03  8.66663E+03  1.61969E+04
 -3.21299E+03  1.85065E+04 -1.50727E+04  1.38084E+04 -2.03173E+04  2.61690E+03 -1.59758E+04 -6.62490E+03
 -8.04763E+03 -1.29629E+04 -4.62592E+02 -1.08574E+04  4.08148E+03 -5.92691E+03  4.09962E+03 -3.74748E+03
  2.74825E+03 -2.49574E+03  3.32501E+03 -3.21527E+03  4.70471E+03 -2.82101E+03  6.22133E+03 -3.80568E+02
  8.15463E+03  1.75445E+03  3.92183E+03  7.62602E+03 -2.17586E+03  8.69036E+03 -8.47037E+03  6.51922E+03
 -1.11125E+04 -8.21285E+02 -6.43651E+03 -7.70378E+03 -7.47936E+02 -1.17593E+04  6.57636E+03 -1.16444E+04
  1.21886E+04 -6.65758E+03  1.47134E+04  1.82382E+03  1.01957E+04  1.03547E+04  1.82938E+03  1.33924E+04
 -5.39731E+03  1.10654E+04 -7.86800E+03  3.62977E+03 -5.18897E+03 -1.53409E+03 -1.96678E+03 -1.44329E+03
 -9.41031E+02 -1.17134E+01 -1.83601E+03  2.71726E+03 -4.91034E+03  1.90445E+03 -7.85431E+03 -8.39658E+02
 -4.99892E+03 -7.79464E+03  3.19134E+02 -1.08731E+04  6.80551E+03 -9.84445E+03  1.05283E+04 -2.95754E+03
  1.08163E+04  5.07460E+03  5.09559E+03  9.25069E+03 -2.48658E+03  1.06383E+04 -7.47010E+03  6.96208E+03
 -1.04195E+04  5.94456E+02 -7.75308E+03 -6.73689E+03 -1.09252E+03 -8.85989E+03  4.64899E+03 -6.55804E+03
  6.75849E+03 -2.56896E+03  4.35146E+03  1.57957E+03  1.78431E+03  3.14521E+03  9.39580E+02  1.44299E+03
  2.08401E+03  9.42072E+02  2.91249E+03  1.46264E+03  3.19239E+03  3.89365E+03  2.88649E+03  5.52674E+03
 -2.33330E+03  8.40798E+03 -7.41167E+03  8.68883E+03 -1.05133E+04  2.44765E+03 -1.12981E+04 -3.90113E+03
 -5.26676E+03 -1.06349E+04  1.51920E+03 -1.16711E+04  5.99107E+03 -7.57255E+03  8.45110E+03 -1.81178E+03
  6.45126E+03  4.08187E+03  1.85329E+03  5.82297E+03 -2.90829E+03  3.88909E+03 -3.83300E+03 -6.91764E+02
 -2.03131E+03 -4.54473E+03  2.64485E+03 -4.31913E+03  3.74533E+03 -2.38287E+03  4.09510E+03  9.79905E+02
  2.54259E+03  2.00188E+03  1.35516E+03  1.40115E+03 -6.42322E+02  1.47570E+03  1.58834E+03 -5.51708E+02
  1.26983E+03 -6.40321E+02  4.03418E+03  1.78516E+03  2.32052E+03  5.36933E+03 -1.05956E+03  7.61742E+03
 -5.01433E+03  4.55104E+03 -6.44467E+03  1.17264E+03 -5.54463E+03 -2.67529E+03 -1.86901E+03 -3.99610E+03
  6.32076E+02 -3.49006E+03  2.73178E+03 -1.88088E+03  2.30837E+03  2.01224E+03 -1.19309E+03  3.06756E+03
 -4.11082E+03  2.26321E+03 -4.76206E+03 -3.02747E+03 -2.87700E+03 -5.59246E+03  8.08671E+02 -5.64226E+03
  2.93278E+03 -3.09843E+03  4.08763E+03 -6.48511E+02  3.36465E+03  1.05948E+03  5.08007E+02  3.01752E+03
 -1.96046E+03  1.12229E+03 -2.65869E+03 -1.53672E+03  1.20987E+03 -3.78033E+03  5.03495E+03 -3.53191E+03
  6.00691E+03  6.13391E+02  6.40057E+03  3.73742E+03  2.15504E+03  6.47209E+03 -2.12619E+03  6.08465E+03
 -5.17251E+03  2.30910E+03 -5.18246E+03 -1.12326E+03 -3.07502E+03 -3.86871E+03  1.24257E+03 -3.39499E+03
  3.97368E+03 -2.33590E+03  3.33825E+03  1.74935E+03  1.06041E+03  3.76174E+03 -5.59412E+02  2.90187E+03
 -1.35430E+03  2.13187E+03 -1.74800E+03  5.69155E+02 -4.78936E+02  1.02728E+03 -1.15316E+03  1.24534E+03
 -2.02496E+03  2.20088E+03 -4.38778E+03  2.07617E+03 -6.30334E+03  2.39864E+02 -7.14137E+03 -4.00281E+03
 -3.79430E+03 -8.28670E+03  1.68403E+03 -9.45366E+03  5.53580E+03 -7.42650E+03  9.01799E+03 -2.70795E+03
  8.51526E+03  1.52979E+03  4.97126E+03  5.66426E+03 -6.26994E+00  6.38991E+03 -2.58195E+03  4.78506E+03
 -3.74685E+03  1.45332E+03 -2.24583E+03 -7.36581E+02 -7.65689E+02 -6.91572E+02 -6.27856E+02 -5.96729E-01
 -1.75361E+03  3.75337E+02 -1.71301E+03  9.13551E+00 -2.11245E+02 -1.45218E+03  9.78040E+01 -2.52043E+03
  2.95463E+03 -2.51888E+03  3.43838E+03  4.54635E+02  4.43825E+03  3.62103E+03  8.98651E+02  6.01244E+03
 -3.05172E+03  7.18206E+03 -6.39163E+03  4.37157E+03 -7.39402E+03 -6.98307E+02 -5.83852E+03 -4.69615E+03
 -2.22525E+03 -5.73513E+03  1.99641E+03 -5.86817E+03  4.00274E+03 -3.17144E+03  4.11717E+03  2.25692E+02
  2.09418E+03  1.90166E+03 -2.41949E+02  1.91301E+03 -1.05989E+03 -9.26888E+01  2.18825E+02 -1.21198E+03
  1.56870E+03 -6.71712E+02  2.30306E+03  8.51294E+02  1.12383E+03  2.27375E+03 -5.09810E+01  2.91450E+03
 -2.75676E+03  2.56472E+03 -3.58430E+03  1.22432E+02 -3.77775E+03 -3.07776E+03 -3.66242E+02 -5.11590E+03
  3.15082E+03 -4.15909E+03  4.37171E+03 -1.08288E+03  4.40744E+03  5.80641E+02  2.33010E+03  3.66389E+03
  9.25881E+02  3.87095E+03 -1.41472E+03  3.25433E+03 -2.68640E+03  1.78535E+03 -2.06489E+03  5.61253E+02
 -1.09300E+03 -7.71592E+01 -1.15599E+03  4.96922E+02 -2.16830E+03  8.92271E+02 -3.14097E+03 -5.69474E+02
 -2.70470E+03 -1.36563E+03 -1.17706E+03 -3.78756E+03  2.10118E+03 -4.29628E+03  3.29786E+03 -1.95968E+03
  3.55964E+03  3.95652E+02  1.86082E+03  2.34043E+03 -3.07782E+02  3.77230E+03 -2.73120E+03  2.78954E+03
