 $NMID ID='MM_0lb_SNR800_13hz_g45_86.RAW', FMTDAT='(8E13.5)'
 TRAMP=1., VOLUME=1. $END
  3.09956E+05  2.38902E+02  3.37515E+05  2.50926E+05  8.48264E+04  3.38173E+05 -1.32690E+05  2.51107E+05
 -1.90393E+05  8.31962E+04 -1.11573E+05 -3.23863E+04  9.17365E+02 -5.03081E+04  5.37899E+04 -7.68453E+01
  3.55734E+04  5.27564E+04 -1.66526E+04  7.53627E+04 -6.07295E+04  6.38825E+04 -8.39516E+04  3.20042E+04
 -8.08781E+04 -1.12674E+04 -5.72962E+04 -5.14031E+04 -1.53221E+04 -6.99738E+04  2.73653E+04 -4.58744E+04
  4.01713E+04  3.52894E+03  1.61565E+04  4.74959E+04 -3.44224E+04  4.71909E+04 -6.67271E+04 -2.92229E+02
 -5.35338E+04 -5.70029E+04 -6.76034E+03 -7.70797E+04  3.40172E+04 -5.54980E+04  4.82073E+04 -1.72766E+04
  4.36426E+04  1.13601E+04  3.16554E+04  2.55726E+04  1.57386E+04  2.96045E+04 -5.45209E+03  2.74147E+04
 -2.22207E+04  1.22817E+04 -1.85574E+04 -5.28468E+03  5.55939E+03 -7.70016E+03  2.22777E+04  1.24305E+04
  6.93194E+03  3.54033E+04 -3.22794E+04  3.58272E+04 -6.35410E+04  2.00993E+03 -5.72554E+04 -4.26483E+04
 -1.21712E+04 -6.32305E+04  3.98117E+04 -4.57006E+04  5.83004E+04 -2.48079E+03  3.43227E+04  3.24764E+04
 -5.98424E+03  3.64786E+04 -2.99741E+04  1.65404E+04 -3.07666E+04 -4.37783E+03 -1.67394E+04 -1.08612E+04
 -8.69345E+03 -1.32486E+04 -8.54090E+02 -1.84601E+04  7.79233E+03 -2.27898E+04  1.57608E+04 -1.34755E+04
  1.16261E+04  5.39127E+03 -8.58885E+03  1.29884E+04 -2.13227E+04 -4.43332E+03 -8.51701E+03 -3.39943E+04
  2.31114E+04 -4.40258E+04  4.84614E+04 -1.95344E+04  4.54353E+04  1.93708E+04  1.57840E+04  4.45216E+04
 -1.59750E+04  3.37411E+04 -2.56225E+04  1.70158E+03 -9.90737E+03 -2.79055E+04  2.09538E+04 -3.44714E+04
  4.11706E+04 -9.55971E+03  3.59713E+04  2.40193E+04  1.83880E+04  4.68931E+04 -8.40667E+03  5.08941E+04
 -3.18792E+04  3.40528E+04 -4.24146E+04  9.66523E+03 -4.31424E+04 -1.66884E+04 -2.33108E+04 -3.84765E+04
  7.18286E+03 -3.80654E+04  3.17889E+04 -1.48789E+04  2.97028E+04  1.09441E+04  4.17451E+03  1.94935E+04
 -1.34771E+04  8.53159E+03 -1.03906E+04 -7.80867E+03  5.71896E+03 -1.09359E+04  1.79679E+04  6.14188E+03
  1.32275E+04  2.23014E+04 -6.25356E+03  2.53552E+04 -2.26532E+04  1.16806E+04 -2.84726E+04 -4.56569E+03
 -2.12362E+04 -1.72751E+04 -8.47905E+03 -2.09569E+04  3.89908E+03 -2.02612E+04  1.61453E+04 -1.89351E+04
  2.66561E+04 -1.29400E+04  3.31783E+04  3.00601E+03  2.41560E+04  2.04606E+04  4.50293E+03  3.70569E+04
 -1.80408E+04  3.05669E+04 -2.83820E+04  1.04747E+04 -2.12277E+04 -1.01724E+04 -4.63176E+03 -1.35891E+04
  2.07805E+03 -2.47062E+03 -5.07164E+03  6.65530E+03 -1.67712E+04  5.16285E+03 -1.68526E+04 -6.98623E+03
 -1.00947E+04 -1.92687E+04  5.30396E+03 -2.36755E+04  1.52887E+04 -1.64856E+04  1.88305E+04 -1.70175E+03
  1.17756E+04  1.34641E+04 -1.34318E+03  1.94832E+04 -1.32450E+04  1.12081E+04 -1.96297E+04 -4.04642E+03
 -1.44288E+04 -1.75869E+04 -1.57944E+03 -2.37325E+04  1.04551E+04 -1.90177E+04  1.97089E+04 -9.21537E+03
  1.80018E+04  2.24793E+02  1.32381E+04  4.40652E+03  6.89793E+03  8.84155E+02  9.83878E+03 -1.87034E+03
  1.78659E+04  2.74641E+03  2.02209E+04  1.52390E+04  1.31308E+04  3.10698E+04 -2.93125E+03  3.48055E+04
 -2.03550E+04  2.87148E+04 -3.32918E+04  1.41907E+04 -3.47835E+04 -2.54449E+03 -2.86212E+04 -2.00977E+04
 -1.22158E+04 -2.88780E+04  1.00189E+04 -2.55188E+04  2.18129E+04 -1.28331E+04  1.99404E+04  5.50121E+03
  7.05895E+03  1.48518E+04 -9.23954E+03  1.30537E+04 -1.63883E+04  2.48571E+03 -1.28168E+04 -1.03161E+04
 -1.32943E+02 -1.53497E+04  8.36823E+03 -1.14583E+04  1.04414E+04 -1.77179E+03  2.71690E+03  6.57911E+03
 -6.98631E+03  2.68243E+03 -6.31258E+03 -5.73993E+03 -3.64607E+02 -1.38057E+04  9.84155E+03 -1.43668E+04
  1.71932E+04 -7.75641E+03  1.86248E+04  3.14477E+03  1.63780E+04  1.40857E+04  7.67332E+03  2.14481E+04
 -3.46439E+03  2.30673E+04 -1.47759E+04  1.45276E+04 -1.67887E+04  3.50719E+03 -1.15962E+04 -3.64260E+03
 -5.51810E+03 -4.98844E+03 -5.25970E+02  9.51461E+02 -2.37424E+03  2.68306E+03 -5.56557E+03  4.42828E+03
 -1.11503E+04 -8.37429E+02 -1.18459E+04 -9.50434E+03 -4.70337E+03 -1.54448E+04  5.03944E+03 -1.20552E+04
  9.87155E+03 -4.93584E+03  7.08850E+03  3.69294E+03  9.52144E+01  4.56291E+03 -5.57084E+03 -3.22453E+02
 -5.05701E+03 -7.58264E+03 -9.22632E+02 -1.11976E+04  6.52157E+03 -1.19357E+04  1.46241E+04 -6.51700E+03
  1.73221E+04  1.52616E+03  1.29241E+04  1.01453E+04  2.41745E+03  1.34108E+04 -7.25696E+03  1.15863E+04
 -9.46629E+03  3.59640E+03 -4.87504E+03 -2.40220E+03  1.74955E+03 -2.95767E+03  6.40819E+03 -8.98724E+02
  5.87631E+03  4.92083E+03  1.16917E+03  9.26241E+03 -6.61988E+03  9.28528E+03 -1.12091E+04  2.43662E+03
 -7.46882E+03 -5.59892E+03  4.44121E+02 -9.66464E+03  6.00853E+03 -5.04514E+03  6.21671E+03  2.08051E+03
  1.23696E+03  6.32850E+03 -6.01501E+03  8.10038E+03 -8.90737E+03  3.24494E+03 -8.90594E+03 -3.10591E+03
 -5.29257E+03 -1.05617E+04  2.13265E+03 -1.20533E+04  1.06357E+04 -7.35171E+03  1.08832E+04  1.74648E+03
  6.88783E+03  8.92138E+03 -1.65563E+02  1.11921E+04 -8.12757E+03  6.22023E+03 -8.81602E+03 -4.93636E+02
 -7.83634E+03 -7.42441E+03 -1.62024E+03 -7.92014E+03  4.29188E+03 -6.72663E+03  5.12796E+03 -3.32767E+03
  3.80700E+03  1.24119E+03 -5.90182E+02  1.64371E+03 -5.04712E+01 -1.70087E+03  1.49987E+03 -4.27169E+03
  7.27274E+03 -2.46512E+03  1.03453E+04  1.10135E+03  1.03059E+04  6.47161E+03  7.37228E+03  1.33990E+04
 -2.91695E+03  1.51398E+04 -1.33208E+04  1.12970E+04 -1.73442E+04  1.98653E+03 -1.37984E+04 -5.53458E+03
 -7.01539E+03 -1.10623E+04 -4.91824E+02 -9.45063E+03  3.61538E+03 -4.88821E+03  3.31292E+03 -3.35126E+03
  2.37310E+03 -2.12696E+03  2.75687E+03 -3.25231E+03  4.40234E+03 -2.47701E+03  5.52420E+03 -2.73247E+02
  7.06561E+03  1.99002E+03  3.18473E+03  6.22720E+03 -1.48691E+03  6.47774E+03 -7.33873E+03  5.40530E+03
 -8.90626E+03 -1.39377E+03 -5.36568E+03 -6.50388E+03 -3.37039E+02 -9.82209E+03  5.66209E+03 -1.01702E+04
  1.02708E+04 -5.67132E+03  1.21961E+04  1.58667E+03  9.08326E+03  8.50442E+03  1.58184E+03  1.10235E+04
 -4.35515E+03  9.39107E+03 -6.26508E+03  3.12493E+03 -4.11203E+03 -1.47427E+03 -1.20784E+03 -1.40651E+03
 -8.35704E+02 -2.18162E+02 -1.41961E+03  2.63233E+03 -4.22846E+03  1.57680E+03 -6.76542E+03 -9.57516E+02
 -3.71858E+03 -6.55085E+03  2.50038E+02 -8.91568E+03  5.57770E+03 -8.12107E+03  8.25938E+03 -2.38270E+03
  8.51784E+03  3.85784E+03  3.75429E+03  7.32543E+03 -2.00085E+03  8.94605E+03 -5.98842E+03  5.68545E+03
 -8.06501E+03  5.69916E+02 -6.55791E+03 -5.28818E+03 -3.27958E+02 -7.38844E+03  3.66771E+03 -5.32062E+03
  5.94828E+03 -1.93759E+03  3.90925E+03  1.70807E+03  1.29583E+03  2.88572E+03  1.08879E+03  9.74437E+02
  2.06741E+03  8.74711E+02  2.08175E+03  1.57886E+03  2.32722E+03  3.55679E+03  2.71994E+03  4.48322E+03
 -2.15411E+03  6.46752E+03 -5.58073E+03  7.27355E+03 -8.03606E+03  1.94739E+03 -9.23131E+03 -2.88249E+03
 -3.98384E+03 -8.45924E+03  1.54527E+03 -9.61092E+03  4.88304E+03 -5.95140E+03  6.74423E+03 -1.59056E+03
  5.17594E+03  3.35745E+03  1.33501E+03  5.10908E+03 -2.22692E+03  3.02703E+03 -2.91389E+03 -4.17500E+02
 -1.56955E+03 -3.56648E+03  2.51588E+03 -3.75910E+03  3.25279E+03 -1.79094E+03  3.32561E+03  7.60451E+02
  1.88989E+03  1.75825E+03  1.11012E+03  1.17634E+03 -6.62596E+02  1.11819E+03  1.41331E+03  1.34362E+02
  1.13300E+03 -7.44139E+02  3.57394E+03  1.52107E+03  1.35561E+03  4.56722E+03 -7.26291E+02  6.08547E+03
 -3.98327E+03  3.58505E+03 -5.00767E+03  1.08545E+03 -4.72988E+03 -1.67402E+03 -1.50257E+03 -2.63563E+03
  6.08778E+02 -2.88102E+03  2.39154E+03 -1.66027E+03  1.50366E+03  1.76243E+03 -1.07936E+03  2.68665E+03
 -3.54482E+03  1.55338E+03 -3.53608E+03 -1.87584E+03 -1.93227E+03 -4.43892E+03  9.84295E+02 -4.05427E+03
  2.05316E+03 -1.99388E+03  3.03549E+03 -1.63433E+01  2.68425E+03  8.11804E+02  7.71448E+02  2.57445E+03
 -1.30106E+03  5.16145E+02 -2.32784E+03 -1.29004E+03  8.51009E+02 -2.81169E+03  3.99114E+03 -2.56344E+03
  4.70237E+03  2.04486E+02  5.61091E+03  3.13289E+03  2.03874E+03  4.99291E+03 -1.88149E+03  4.70623E+03
 -3.74559E+03  1.72894E+03 -4.51224E+03 -7.83292E+02 -2.50846E+03 -3.42056E+03  6.16491E+02 -2.93709E+03
  3.45297E+03 -1.70810E+03  2.31518E+03  1.66632E+03  8.54858E+02  2.88340E+03 -3.53305E+02  2.51073E+03
 -9.93992E+02  2.05985E+03 -1.45320E+03  5.90151E+02 -2.63153E+02  1.01341E+03 -1.25004E+03  9.98029E+02
 -1.49603E+03  2.11259E+03 -3.67686E+03  1.44116E+03 -4.81528E+03  1.13791E+02 -5.88476E+03 -3.03971E+03
 -2.89685E+03 -6.34041E+03  1.36105E+03 -7.51049E+03  4.25304E+03 -5.90322E+03  7.28401E+03 -2.23028E+03
  6.49064E+03  1.09751E+03  4.03595E+03  4.49305E+03  3.29414E+02  4.86911E+03 -1.99428E+03  4.21836E+03
 -2.72120E+03  1.69880E+03 -1.68634E+03 -9.39404E+02 -4.37884E+02 -5.97175E+02 -7.91138E+02  2.90345E+01
 -1.42691E+03  5.53676E+02 -1.51062E+03  2.16140E+01 -1.65295E+02 -1.62757E+03 -1.39140E+02 -1.95093E+03
  2.79406E+03 -1.78054E+03  2.77672E+03  6.50995E+01  3.63321E+03  2.76082E+03  5.28698E+02  4.82387E+03
 -2.38843E+03  5.64054E+03 -5.11433E+03  3.25380E+03 -5.83086E+03 -6.61904E+02 -4.15580E+03 -3.56210E+03
 -2.01572E+03 -5.04228E+03  1.14791E+03 -4.32139E+03  2.83287E+03 -2.53643E+03  2.78892E+03  2.44745E+02
  1.71940E+03  1.39734E+03  1.78756E+02  1.40999E+03 -8.27919E+02 -2.11148E+02 -1.03701E+02 -9.94674E+02
  1.33015E+03 -3.73141E+02  1.51680E+03  7.06297E+02  1.32720E+03  1.65023E+03  3.99679E+02  2.26492E+03
 -2.06351E+03  2.14600E+03 -2.95265E+03  2.70648E+02 -2.66798E+03 -1.74704E+03 -5.63126E+02 -3.86094E+03
  2.21812E+03 -3.17524E+03  3.07846E+03 -8.46906E+02  3.74643E+03  4.55831E+02  1.92840E+03  2.82186E+03
  7.52375E+02  2.58805E+03 -1.10984E+03  2.05026E+03 -1.93216E+03  1.33982E+03 -1.74446E+03  5.05494E+02
 -6.96995E+02 -3.70514E+02 -8.93321E+02  7.54696E+02 -1.66633E+03  5.98062E+02 -2.22950E+03 -7.31745E+02
 -2.42251E+03 -1.22676E+03 -8.31232E+02 -2.95653E+03  1.61622E+03 -3.68907E+03  2.42275E+03 -1.48189E+03
  2.91859E+03  2.79075E+02  1.43356E+03  1.81640E+03 -9.27917E+01  3.02634E+03 -2.19090E+03  1.98264E+03
