 $NMID ID='MM_0lb_SNR800_19hz_g40_47.RAW', FMTDAT='(8E13.5)'
 TRAMP=1., VOLUME=1. $END
  3.09791E+05  4.82572E+02  3.37256E+05  2.50218E+05  8.42079E+04  3.37181E+05 -1.32278E+05  2.49976E+05
 -1.89904E+05  8.21828E+04 -1.10755E+05 -3.29980E+04  1.76984E+03 -5.02812E+04  5.39412E+04  5.32695E+02
  3.48080E+04  5.28781E+04 -1.67718E+04  7.47188E+04 -6.01553E+04  6.24049E+04 -8.24604E+04  3.15262E+04
 -7.90220E+04 -1.09556E+04 -5.54536E+04 -4.98782E+04 -1.50648E+04 -6.78006E+04  2.64812E+04 -4.48430E+04
  3.86353E+04  3.92042E+03  1.54559E+04  4.68798E+04 -3.41640E+04  4.60895E+04 -6.49188E+04 -5.61446E+02
 -5.15115E+04 -5.54864E+04 -5.97836E+03 -7.46082E+04  3.26176E+04 -5.25566E+04  4.56441E+04 -1.60694E+04
  4.10129E+04  1.09536E+04  3.02856E+04  2.42133E+04  1.56705E+04  2.78147E+04 -4.24535E+03  2.64149E+04
 -2.16022E+04  1.30928E+04 -1.92667E+04 -3.96170E+03  3.87454E+03 -7.64282E+03  2.07249E+04  1.04845E+04
  7.59476E+03  3.26847E+04 -2.99754E+04  3.35429E+04 -6.02592E+04  2.10447E+03 -5.47158E+04 -4.08056E+04
 -1.25069E+04 -6.00354E+04  3.80615E+04 -4.27018E+04  5.48928E+04 -2.12316E+03  3.11435E+04  2.97217E+04
 -6.85949E+03  3.20134E+04 -2.78353E+04  1.25825E+04 -2.66793E+04 -6.04566E+03 -1.37384E+04 -9.82421E+03
 -7.33087E+03 -1.08137E+04 -5.67976E+02 -1.59526E+04  6.18882E+03 -2.25003E+04  1.48371E+04 -1.42745E+04
  1.22427E+04  3.91413E+03 -5.34227E+03  1.30520E+04 -1.89069E+04 -1.70128E+03 -8.06226E+03 -2.96843E+04
  2.02263E+04 -3.93846E+04  4.37977E+04 -1.79893E+04  4.09429E+04  1.79392E+04  1.36317E+04  4.09312E+04
 -1.49816E+04  3.04706E+04 -2.29043E+04  8.06315E+02 -7.65409E+03 -2.60134E+04  2.04969E+04 -3.03533E+04
  3.70369E+04 -6.63259E+03  3.02815E+04  2.25279E+04  1.46107E+04  4.17380E+04 -7.56866E+03  4.37222E+04
 -2.75896E+04  2.88047E+04 -3.58870E+04  7.97714E+03 -3.71232E+04 -1.45051E+04 -2.05085E+04 -3.34126E+04
  6.72048E+03 -3.32180E+04  2.86122E+04 -1.17641E+04  2.63758E+04  1.07355E+04  2.68357E+03  1.73158E+04
 -1.31244E+04  6.71415E+03 -9.22541E+03 -7.81255E+03  6.10226E+03 -9.84538E+03  1.72201E+04  6.50591E+03
  1.20836E+04  2.14358E+04 -6.71814E+03  2.29235E+04 -2.12419E+04  8.40791E+03 -2.41578E+04 -6.74185E+03
 -1.56473E+04 -1.61341E+04 -4.90898E+03 -1.57335E+04  3.67013E+03 -1.32652E+04  1.15482E+04 -1.32746E+04
  1.98886E+04 -1.12222E+04  2.71647E+04  8.21943E+02  2.06110E+04  1.53473E+04  3.82994E+03  3.17192E+04
 -1.59122E+04  2.68377E+04 -2.51284E+04  8.92891E+03 -1.91463E+04 -1.02369E+04 -4.08667E+03 -1.42498E+04
  2.94627E+03 -4.47421E+03 -1.97936E+03  5.13602E+03 -1.22788E+04  5.32946E+03 -1.26047E+04 -4.31054E+03
 -8.23119E+03 -1.46162E+04  4.28994E+03 -1.85684E+04  1.17146E+04 -1.33727E+04  1.37699E+04 -1.45673E+03
  8.39819E+03  1.02332E+04 -7.62184E+02  1.48373E+04 -9.81518E+03  8.48597E+03 -1.45442E+04 -3.17547E+03
 -1.09832E+04 -1.33690E+04 -1.29983E+03 -1.77993E+04  8.03585E+03 -1.44023E+04  1.56897E+04 -6.81453E+03
  1.38440E+04  6.93803E+02  9.79880E+03  3.51685E+03  5.04712E+03  2.91533E+02  7.12708E+03 -1.18779E+03
  1.31810E+04  2.65580E+03  1.34249E+04  1.20988E+04  8.22751E+03  2.35355E+04 -3.13303E+03  2.47012E+04
 -1.50111E+04  1.86538E+04 -2.26688E+04  8.66658E+03 -2.29960E+04 -1.59902E+03 -2.01081E+04 -1.28254E+04
 -9.81545E+03 -1.87328E+04  6.30875E+03 -1.79190E+04  1.54645E+04 -1.06021E+04  1.47115E+04  3.39365E+03
  6.67098E+03  1.05749E+04 -6.80384E+03  9.72467E+03 -1.24456E+04  2.72693E+03 -9.82249E+03 -7.52769E+03
 -2.55441E+02 -1.20646E+04  5.66724E+03 -8.88865E+03  7.32142E+03 -1.39179E+03  1.13330E+03  4.58410E+03
 -5.23555E+03  1.14014E+03 -3.57318E+03 -4.31965E+03  1.04703E+03 -9.48389E+03  7.60099E+03 -9.37928E+03
  1.13378E+04 -4.08433E+03  1.07103E+04  2.84877E+03  9.16280E+03  8.67851E+03  4.64355E+03  1.31614E+04
 -1.38639E+03  1.45673E+04 -8.70911E+03  9.51732E+03 -1.00282E+04  2.89118E+03 -7.87972E+03 -1.48652E+03
 -4.62536E+03 -3.01897E+03 -8.34556E+02  1.38254E+03 -2.02128E+03  2.09640E+03 -3.20179E+03  3.71561E+03
 -7.41071E+03 -2.64978E+02 -8.05942E+03 -6.95366E+03 -3.55557E+03 -1.09704E+04  3.16147E+03 -8.10429E+03
  6.56314E+03 -3.25078E+03  4.95228E+03  2.22334E+03  8.74076E+02  2.65802E+03 -3.10911E+03 -4.04391E+01
 -3.21337E+03 -4.90571E+03 -8.42906E+02 -6.65473E+03  3.62328E+03 -7.24447E+03  9.00003E+03 -3.53174E+03
  1.09933E+04  5.94312E+02  7.87259E+03  5.33179E+03  1.62169E+03  7.91911E+03 -5.01087E+03  7.37305E+03
 -6.53256E+03  2.60547E+03 -3.66113E+03 -7.42892E+02  1.12934E+03 -1.61008E+03  4.40840E+03 -9.76376E+02
  3.95650E+03  3.31209E+03  1.09029E+03  6.12101E+03 -3.97193E+03  6.01003E+03 -7.41223E+03  1.53257E+03
 -4.16325E+03 -3.29996E+03  3.94093E+02 -6.25786E+03  3.43783E+03 -2.90414E+03  3.18376E+03  6.55027E+02
  2.77339E+02  2.89798E+03 -3.71939E+03  4.37968E+03 -4.07807E+03  2.11110E+03 -3.84967E+03 -1.03772E+03
 -2.32584E+03 -5.34214E+03  1.20852E+03 -6.18599E+03  5.38698E+03 -4.20584E+03  5.74247E+03  8.48657E+02
  4.24419E+03  4.58884E+03  5.12797E+02  6.66262E+03 -4.42498E+03  3.90283E+03 -4.67319E+03 -4.07180E+02
 -5.55103E+03 -4.81894E+03 -1.25660E+03 -4.56330E+03  1.98905E+03 -4.24463E+03  2.55040E+03 -2.84128E+03
  2.90184E+03 -8.28919E+01  2.02000E+02  1.22806E+03  6.98993E+02 -9.57555E+01 -2.54452E+02 -1.60662E+03
  3.28587E+03 -6.48752E+02  4.57022E+03  4.26256E+02  5.10427E+03  2.68590E+03  4.88805E+03  6.36652E+03
 -1.03112E+03  7.46519E+03 -6.89868E+03  6.14504E+03 -8.89317E+03  1.04337E+03 -6.78735E+03 -1.85440E+03
 -3.71968E+03 -5.98461E+03 -4.09453E+02 -4.31182E+03  2.09646E+03 -2.09443E+03  1.48100E+03 -1.87155E+03
  1.26725E+03 -1.46076E+03  2.00054E+03 -2.17018E+03  3.06134E+03 -1.36970E+03  3.34189E+03  6.52838E+02
  4.20659E+03  1.08445E+03  1.14842E+03  3.18379E+03 -1.59246E+03  2.42363E+03 -4.23665E+03  2.22501E+03
 -4.64624E+03 -8.54650E+02 -1.71688E+03 -2.90195E+03  4.93878E+02 -4.26827E+03  2.87208E+03 -4.83741E+03
  4.46724E+03 -2.79001E+03  5.82452E+03  2.38824E+02  4.51603E+03  3.79844E+03  1.25677E+03  5.67042E+03
 -1.72827E+03  5.40271E+03 -2.93728E+03  1.76401E+03 -1.50949E+03 -9.67203E+02 -3.64652E+02 -5.28014E+02
 -6.29146E+02  2.40407E+02 -8.08674E+02  1.63801E+03 -2.47906E+03  1.06839E+03 -3.69048E+03 -5.23466E+02
 -1.52374E+03 -4.07395E+03  1.01218E+03 -4.11647E+03  2.44971E+03 -3.82856E+03  3.07997E+03 -7.99290E+02
  3.84537E+03  2.23930E+03  1.76726E+03  2.80499E+03 -7.65382E+02  3.88974E+03 -2.28926E+03  2.42124E+03
 -3.48117E+03  5.91799E+02 -2.83422E+03 -1.94535E+03  5.50223E+01 -2.68676E+03  1.34107E+03 -2.38353E+03
  2.43320E+03 -1.32288E+03  1.48248E+03  3.14911E+02  5.41793E+02  1.71046E+03  7.39008E+02  1.92397E+02
  1.63106E+03  5.42167E+02  1.24745E+03  8.46172E+02  8.88285E+02  2.10760E+03  1.46563E+03  1.61340E+03
 -1.29553E+03  2.49769E+03 -2.21858E+03  3.92492E+03 -2.38863E+03  9.48043E+02 -3.87885E+03 -1.10491E+02
 -1.49228E+03 -3.25095E+03  6.65829E+02 -4.39550E+03  1.86856E+03 -2.30640E+03  3.07081E+03 -6.19670E+02
  2.36560E+03  1.49612E+03  3.07290E+02  1.95472E+03 -5.75653E+02  1.18236E+03 -7.06158E+02 -1.91047E+02
 -4.87630E+02 -1.32949E+03  1.17541E+03 -1.51749E+03  1.14970E+03 -8.89764E+02  1.11866E+03  3.52538E+02
  6.90863E+02  1.89226E+02  9.72604E+02 -3.91595E+02  2.28463E+01  3.75472E+02  1.64953E+03 -1.14198E+02
 -6.78723E+01 -1.10915E+02  1.81683E+03  7.42258E+02  1.76925E+02  2.23483E+03 -6.30453E+01  2.56566E+03
 -1.41227E+03  1.00937E+03 -1.48117E+03  2.92762E+02 -1.87098E+03 -8.62049E+02 -2.67151E+02 -7.61330E+02
  3.78980E+02 -1.00810E+03  8.22941E+02 -5.14512E+02  3.83828E+02  1.16614E+03 -6.46664E+02  9.00989E+02
 -1.28305E+03  9.66465E+02 -9.87300E+02 -1.42276E+03 -4.52524E+02 -1.89148E+03  2.11354E+02 -1.36653E+03
  1.55786E+02 -3.29328E+02  5.29401E+02  2.01587E+02  1.25751E+03 -1.19346E+02  3.98142E+02  1.33963E+03
 -2.25093E+02 -1.20136E+02 -8.51177E+02  4.16815E+01  5.85296E+02 -5.60466E+02  1.51073E+03 -8.47153E+02
  9.37754E+02  3.72565E+02  2.57242E+03  3.93113E+02  1.14604E+03  1.27110E+03 -2.13444E+02  1.61852E+03
 -1.40350E+03  6.00657E+01 -1.56669E+03 -2.11748E+02 -8.28234E+02 -1.39982E+03  4.28615E+02 -8.03205E+02
  1.49993E+03 -5.87744E+02  6.84707E+02  3.23156E+02 -6.30881E+01  1.15472E+03  3.00755E+02  9.93385E+02
 -1.38292E+02  1.15683E+03 -3.60497E+02  2.12281E+02  2.63444E+02  4.59837E+02 -5.76582E+02  5.68362E+02
 -5.96345E+02  9.23622E+02 -1.75106E+03  2.84328E+02 -1.43380E+03  1.43804E+02 -2.07672E+03 -7.93424E+02
 -8.08288E+02 -2.06399E+03  3.63567E+02 -2.87463E+03  6.15264E+02 -2.42051E+03  2.59226E+03 -1.18644E+03
  2.15888E+03 -3.56710E+02  1.07387E+03  1.17213E+03 -4.99354E+02  1.46641E+03 -5.73934E+02  9.56576E+02
 -8.19352E+02  8.25596E+02 -4.53818E+02 -1.80899E+02 -4.17226E+02  3.01263E+02 -5.45455E+02 -3.23410E+01
 -1.01582E+03 -1.64169E+02 -8.87321E+02 -1.96268E+01  2.41246E+02 -5.73187E+02 -3.93727E+02 -7.03931E+02
  1.20490E+03 -3.72390E+02  5.84729E+02  3.53880E+02  9.02484E+02  1.15545E+03 -4.47747E+02  1.37313E+03
 -7.68977E+02  2.03311E+03 -1.25797E+03  1.10824E+03 -1.50684E+03 -2.73308E+02 -1.16978E+03 -8.88316E+02
 -1.04187E+03 -1.24558E+03  1.17183E+02 -1.13912E+03  4.29394E+02 -5.38571E+02  4.13053E+02  2.21189E+02
  5.26611E+02  2.90542E+02  9.45910E+00  5.78448E+02 -4.51204E+02 -1.80243E+02 -1.98919E+02 -1.34335E+02
  6.30715E+02  2.24580E+02  1.30799E+02  6.23916E+02 -3.77934E+02  4.75623E+02  3.36289E+02  4.04043E+02
 -3.29732E+02  5.58982E+02 -3.42448E+02 -6.97227E+01 -6.16611E+02 -4.67874E+02 -2.00774E+02 -1.07243E+03
  6.26262E+02 -7.71435E+02  1.58785E+02  2.72218E+01  7.72751E+02 -7.01083E+02  3.95919E+02  7.33858E+02
  7.17245E+02  4.17007E+02 -4.37354E+02  4.51171E+02 -3.86161E+02  6.23987E+02 -5.68720E+02  2.66228E+02
 -3.49931E+01 -3.29301E+02 -2.72521E+02 -1.11807E+02 -5.99236E+02  2.80478E+01 -7.09008E+02 -2.70435E+02
 -8.43426E+02 -6.57123E+00 -6.63360E+02 -7.55789E+02  6.76377E+02 -1.45789E+03  5.96735E+02 -1.63691E+02
  5.33135E+02  2.86136E+02 -4.72593E+02  3.67814E+02 -5.14230E+00  8.18792E+02 -2.22048E+02  6.62763E+02
