 $NMID ID='MM_0lb_SNR800_13hz_g60_57.RAW', FMTDAT='(8E13.5)'
 TRAMP=1., VOLUME=1. $END
  3.09792E+05  2.85168E+02  3.37497E+05  2.50861E+05  8.48703E+04  3.38314E+05 -1.33011E+05  2.51403E+05
 -1.90581E+05  8.36213E+04 -1.11937E+05 -3.22276E+04  4.90070E+02 -5.04946E+04  5.35189E+04 -4.08922E+02
  3.54528E+04  5.26681E+04 -1.65655E+04  7.60008E+04 -6.14242E+04  6.41845E+04 -8.51463E+04  3.26610E+04
 -8.17155E+04 -1.15702E+04 -5.77433E+04 -5.21635E+04 -1.48585E+04 -7.04069E+04  2.81925E+04 -4.64320E+04
  4.05612E+04  3.72112E+03  1.63435E+04  4.82319E+04 -3.42642E+04  4.76718E+04 -6.76046E+04 -1.13299E+02
 -5.43280E+04 -5.75071E+04 -6.93396E+03 -7.81909E+04  3.44627E+04 -5.62171E+04  4.87357E+04 -1.76036E+04
  4.41307E+04  1.14077E+04  3.25948E+04  2.62859E+04  1.60686E+04  3.02905E+04 -5.22893E+03  2.75206E+04
 -2.24121E+04  1.23068E+04 -1.82757E+04 -5.30251E+03  6.50178E+03 -7.42697E+03  2.30853E+04  1.31471E+04
  7.03149E+03  3.64194E+04 -3.33617E+04  3.65131E+04 -6.46977E+04  1.97897E+03 -5.76851E+04 -4.37561E+04
 -1.24478E+04 -6.47298E+04  4.06038E+04 -4.62307E+04  5.95379E+04 -2.52957E+03  3.57269E+04  3.34287E+04
 -5.90271E+03  3.79851E+04 -3.08759E+04  1.73281E+04 -3.23641E+04 -3.90376E+03 -1.79478E+04 -1.14718E+04
 -9.17330E+03 -1.45662E+04 -3.06829E+02 -1.89558E+04  8.27899E+03 -2.32261E+04  1.58372E+04 -1.32018E+04
  1.12090E+04  5.91728E+03 -9.74810E+03  1.30895E+04 -2.24097E+04 -5.63542E+03 -8.47288E+03 -3.56950E+04
  2.41231E+04 -4.51321E+04  5.01825E+04 -2.04323E+04  4.68701E+04  2.00986E+04  1.62904E+04  4.55845E+04
 -1.64278E+04  3.49906E+04 -2.65652E+04  2.40148E+03 -1.07681E+04 -2.90206E+04  2.12676E+04 -3.55215E+04
  4.31719E+04 -9.68852E+03  3.80627E+04  2.42191E+04  1.97666E+04  4.86369E+04 -7.97270E+03  5.31886E+04
 -3.35723E+04  3.57982E+04 -4.50343E+04  1.03179E+04 -4.51571E+04 -1.75247E+04 -2.48688E+04 -4.02260E+04
  7.44808E+03 -3.97899E+04  3.27863E+04 -1.58534E+04  3.07849E+04  1.10961E+04  4.87822E+03  2.00764E+04
 -1.38500E+04  9.20862E+03 -1.09596E+04 -7.70005E+03  5.57729E+03 -1.12069E+04  1.85193E+04  5.84217E+03
  1.39672E+04  2.26552E+04 -6.01217E+03  2.62130E+04 -2.27342E+04  1.29664E+04 -2.92018E+04 -3.75399E+03
 -2.29503E+04 -1.78945E+04 -9.97337E+03 -2.24487E+04  4.48306E+03 -2.25247E+04  1.76517E+04 -2.05635E+04
  2.89234E+04 -1.34124E+04  3.50603E+04  3.60620E+03  2.52069E+04  2.22711E+04  4.03260E+03  3.88027E+04
 -1.86109E+04  3.19644E+04 -2.92299E+04  1.11989E+04 -2.17016E+04 -1.02972E+04 -4.86907E+03 -1.32304E+04
  1.24018E+03 -1.78030E+03 -6.27960E+03  7.64988E+03 -1.77870E+04  5.00893E+03 -1.79817E+04 -8.12812E+03
 -1.11627E+04 -2.08102E+04  5.95894E+03 -2.55092E+04  1.70267E+04 -1.79651E+04  1.98789E+04 -1.75263E+03
  1.27704E+04  1.47804E+04 -9.25749E+02  2.07329E+04 -1.47050E+04  1.17229E+04 -2.11360E+04 -4.31086E+03
 -1.56176E+04 -1.88599E+04 -1.86840E+03 -2.51379E+04  1.15621E+04 -2.10040E+04  2.07764E+04 -1.05089E+04
  1.98079E+04  8.79483E+01  1.43555E+04  5.01707E+03  7.48465E+03  1.54699E+03  1.07599E+04 -1.75241E+03
  1.96166E+04  2.81428E+03  2.20850E+04  1.63665E+04  1.47800E+04  3.34265E+04 -2.47565E+03  3.84759E+04
 -2.22484E+04  3.18256E+04 -3.63900E+04  1.58988E+04 -3.80373E+04 -2.85075E+03 -3.12345E+04 -2.19163E+04
 -1.27841E+04 -3.14374E+04  1.12046E+04 -2.82806E+04  2.39526E+04 -1.40557E+04  2.14590E+04  6.45452E+03
  7.83751E+03  1.62591E+04 -9.94198E+03  1.38502E+04 -1.78696E+04  2.71344E+03 -1.36280E+04 -1.14366E+04
 -2.86272E+02 -1.66865E+04  8.79941E+03 -1.24778E+04  1.14226E+04 -1.74103E+03  2.94977E+03  7.62473E+03
 -7.64083E+03  3.07511E+03 -7.10979E+03 -6.22351E+03 -1.04198E+03 -1.55032E+04  1.03619E+04 -1.63464E+04
  1.93093E+04 -8.90897E+03  2.11685E+04  3.02037E+03  1.84726E+04  1.52712E+04  8.50759E+03  2.39384E+04
 -4.40554E+03  2.58065E+04 -1.69269E+04  1.64770E+04 -1.86325E+04  3.57887E+03 -1.30533E+04 -4.41738E+03
 -5.87671E+03 -6.20106E+03 -7.56080E+02  7.08775E+02 -2.68268E+03  2.83821E+03 -6.24328E+03  4.50768E+03
 -1.16287E+04 -3.47845E+02 -1.26121E+04 -1.01190E+04 -4.75887E+03 -1.69759E+04  5.45446E+03 -1.27920E+04
  1.03438E+04 -5.34034E+03  7.58851E+03  3.28604E+03  2.01523E+02  5.50127E+03 -6.60853E+03 -2.44485E+02
 -5.85302E+03 -7.96564E+03 -1.08190E+03 -1.29258E+04  7.47569E+03 -1.30396E+04  1.61223E+04 -7.02866E+03
  1.92032E+04  1.78483E+03  1.39595E+04  1.16478E+04  2.92264E+03  1.51065E+04 -7.98323E+03  1.25329E+04
 -1.06694E+04  4.07509E+03 -5.54156E+03 -2.55052E+03  2.19733E+03 -3.43421E+03  6.86485E+03 -1.21967E+03
  6.14184E+03  5.46325E+03  1.08032E+03  1.00764E+04 -7.02755E+03  1.00744E+04 -1.23820E+04  2.48041E+03
 -8.42821E+03 -6.43777E+03  3.46324E+02 -1.10301E+04  7.10601E+03 -5.49592E+03  6.90705E+03  2.43276E+03
  1.52707E+03  7.35867E+03 -6.33629E+03  8.94112E+03 -9.92029E+03  4.26238E+03 -1.01521E+04 -3.65354E+03
 -5.70941E+03 -1.16557E+04  2.87014E+03 -1.33946E+04  1.18318E+04 -8.81827E+03  1.25105E+04  2.26106E+03
  7.92403E+03  1.01007E+04 -9.25392E+02  1.24501E+04 -9.11134E+03  7.17627E+03 -9.61688E+03 -7.99041E+02
 -8.50612E+03 -7.89717E+03 -1.27108E+03 -8.75284E+03  4.90855E+03 -7.67812E+03  5.54025E+03 -3.16045E+03
  4.30906E+03  1.26323E+03 -4.39870E+02  1.76721E+03 -2.21036E+02 -2.24566E+03  1.58889E+03 -5.32451E+03
  7.84694E+03 -3.16125E+03  1.17480E+04  1.54629E+03  1.14239E+04  7.74834E+03  7.97656E+03  1.56061E+04
 -3.38342E+03  1.73939E+04 -1.45521E+04  1.34477E+04 -1.90222E+04  2.43323E+03 -1.53717E+04 -6.29421E+03
 -8.02310E+03 -1.29100E+04 -5.55279E+02 -1.06189E+04  3.86162E+03 -5.37319E+03  3.86950E+03 -3.95973E+03
  2.78947E+03 -2.49361E+03  2.58205E+03 -3.27389E+03  4.97660E+03 -2.63840E+03  6.09151E+03 -4.90903E+02
  7.90452E+03  1.99536E+03  3.86241E+03  6.80095E+03 -2.13612E+03  7.39011E+03 -8.18361E+03  5.92212E+03
 -1.04609E+04 -1.19351E+03 -6.12465E+03 -7.18591E+03 -4.19214E+02 -1.09727E+04  6.24413E+03 -1.11190E+04
  1.13666E+04 -6.35471E+03  1.38299E+04  1.71437E+03  9.49102E+03  9.21358E+03  1.65400E+03  1.26720E+04
 -5.09493E+03  1.04975E+04 -7.27149E+03  3.49247E+03 -5.06199E+03 -1.64901E+03 -1.78163E+03 -1.16252E+03
 -1.24638E+03 -1.56522E+02 -1.88895E+03  2.72680E+03 -4.37474E+03  1.75049E+03 -7.55809E+03 -8.89536E+02
 -4.74982E+03 -7.44825E+03  4.75987E+02 -9.99799E+03  6.13462E+03 -9.14082E+03  9.49073E+03 -3.15086E+03
  9.78804E+03  5.20946E+03  4.53220E+03  8.53897E+03 -2.08742E+03  9.97448E+03 -6.51090E+03  6.32911E+03
 -9.16815E+03  4.18933E+02 -7.52577E+03 -5.55815E+03 -5.44774E+02 -7.98653E+03  3.98049E+03 -5.98753E+03
  6.10221E+03 -2.37557E+03  4.09279E+03  1.42596E+03  1.09555E+03  3.16957E+03  1.23376E+03  1.28507E+03
  2.13604E+03  9.79204E+02  2.43200E+03  1.86387E+03  2.56335E+03  3.77100E+03  2.48358E+03  5.20223E+03
 -1.89644E+03  7.61095E+03 -6.36231E+03  7.88263E+03 -8.92409E+03  2.03904E+03 -1.00788E+04 -3.45119E+03
 -4.78510E+03 -9.39617E+03  1.42324E+03 -1.08394E+04  5.37987E+03 -6.66756E+03  7.48246E+03 -2.08703E+03
  6.14483E+03  3.51951E+03  1.15724E+03  5.84052E+03 -2.16512E+03  3.24106E+03 -3.70142E+03 -3.76166E+02
 -1.56087E+03 -3.86287E+03  2.76234E+03 -4.26209E+03  3.83750E+03 -1.80279E+03  3.62527E+03  9.65624E+02
  2.03094E+03  1.52620E+03  1.07306E+03  1.02257E+03 -5.63399E+02  1.39582E+03  1.67738E+03 -1.94330E+02
  1.02451E+03 -8.53344E+02  3.96572E+03  1.55864E+03  1.55832E+03  5.34097E+03 -9.70791E+02  6.61261E+03
 -4.19536E+03  3.68056E+03 -5.60490E+03  1.37218E+03 -5.07019E+03 -2.18062E+03 -1.72316E+03 -3.50195E+03
  7.31664E+02 -3.49102E+03  2.74065E+03 -1.53042E+03  2.12938E+03  2.19063E+03 -1.13951E+03  3.09467E+03
 -3.71738E+03  1.94012E+03 -4.01466E+03 -2.55442E+03 -2.32271E+03 -5.07238E+03  6.05563E+02 -4.60100E+03
  2.46252E+03 -2.60431E+03  3.18245E+03 -3.72432E+02  2.99437E+03  9.95161E+02  5.17528E+02  2.63938E+03
 -1.53127E+03  8.93804E+02 -1.97238E+03 -1.80621E+03  1.04026E+03 -3.20725E+03  4.52018E+03 -2.81905E+03
  5.27344E+03  3.69021E+02  5.83487E+03  3.71234E+03  2.28365E+03  5.07160E+03 -1.58871E+03  5.05565E+03
 -4.30044E+03  2.01673E+03 -4.68031E+03 -7.06773E+02 -2.55911E+03 -3.52894E+03  6.90966E+02 -2.99958E+03
  3.79702E+03 -2.05081E+03  2.50663E+03  1.62473E+03  1.18806E+03  3.23376E+03  7.06794E+01  2.54212E+03
 -1.48123E+03  2.08288E+03 -1.09903E+03  6.24919E+02 -4.87687E+02  5.64796E+02 -1.19586E+03  1.11390E+03
 -1.65747E+03  2.14372E+03 -4.05120E+03  1.49654E+03 -5.12663E+03  1.70770E+02 -6.14391E+03 -3.40841E+03
 -2.91555E+03 -7.08465E+03  1.41884E+03 -8.20593E+03  4.71091E+03 -6.65561E+03  7.68496E+03 -2.46359E+03
  7.32653E+03  1.33190E+03  4.44613E+03  4.86471E+03 -1.19428E+01  5.81694E+03 -2.28776E+03  4.00630E+03
 -2.82479E+03  1.39623E+03 -1.86221E+03 -3.84944E+02 -6.13606E+02 -8.90223E+01 -8.69731E+02 -2.71482E+02
 -1.62895E+03  7.58697E+01 -1.94224E+03 -1.13333E+02  4.65006E+01 -1.54426E+03 -9.35000E+01 -2.08987E+03
  2.27434E+03 -1.57518E+03  2.69323E+03  9.10271E+01  3.55981E+03  3.01049E+03  8.27024E+02  5.14949E+03
 -2.68209E+03  6.51134E+03 -5.37162E+03  3.92867E+03 -5.97492E+03 -5.41934E+02 -4.41105E+03 -3.97863E+03
 -2.52073E+03 -5.15205E+03  1.04918E+03 -4.71574E+03  3.07772E+03 -2.70316E+03  3.58411E+03  7.51077E+01
  1.76787E+03  1.42184E+03  4.02746E+01  1.14887E+03 -1.30225E+03 -2.48853E+02  8.94622E+01 -9.82059E+02
  1.56825E+03 -5.54566E+02  1.82229E+03  6.57279E+02  1.02450E+03  1.97773E+03  5.67240E+02  2.25871E+03
 -2.21580E+03  2.06419E+03 -3.15254E+03 -4.24385E+01 -2.89991E+03 -2.20043E+03 -1.06148E+02 -4.13053E+03
  2.34489E+03 -3.23916E+03  3.72671E+03 -7.23231E+02  3.77797E+03  4.35543E+02  2.17524E+03  3.15244E+03
  3.75267E+02  3.05343E+03 -1.41450E+03  2.51064E+03 -1.74327E+03  1.66429E+03 -1.31265E+03  3.78657E+02
 -6.94143E+02 -1.37587E+01 -1.04014E+03  4.52828E+02 -2.02327E+03  2.69725E+02 -2.60074E+03 -5.88194E+02
 -2.68167E+03 -1.23022E+03 -9.98202E+02 -3.19248E+03  1.77889E+03 -3.54685E+03  2.79427E+03 -1.36843E+03
  3.00143E+03  5.73677E+02  1.22597E+03  1.77735E+03 -1.01906E+02  2.82742E+03 -2.57869E+03  1.55191E+03
