 $NMID ID='MM_0lb_SNR800_19hz_g45_81.RAW', FMTDAT='(8E13.5)'
 TRAMP=1., VOLUME=1. $END
  3.09666E+05  5.98461E+02  3.37160E+05  2.50438E+05  8.43344E+04  3.37210E+05 -1.32527E+05  2.49864E+05
 -1.89671E+05  8.24455E+04 -1.11053E+05 -3.32183E+04  1.45496E+03 -5.03505E+04  5.40244E+04  4.64978E+02
  3.51605E+04  5.28072E+04 -1.66975E+04  7.45095E+04 -6.03005E+04  6.26342E+04 -8.27175E+04  3.13715E+04
 -7.92358E+04 -1.06824E+04 -5.62912E+04 -5.01974E+04 -1.50125E+04 -6.81447E+04  2.66363E+04 -4.48464E+04
  3.90265E+04  4.01714E+03  1.56450E+04  4.70124E+04 -3.37396E+04  4.59843E+04 -6.53589E+04 -4.78339E+02
 -5.16445E+04 -5.55367E+04 -6.11081E+03 -7.45820E+04  3.29947E+04 -5.26787E+04  4.60934E+04 -1.57102E+04
  4.10718E+04  1.12730E+04  3.04721E+04  2.42855E+04  1.57848E+04  2.80485E+04 -4.76427E+03  2.66077E+04
 -2.15983E+04  1.28790E+04 -1.91230E+04 -4.05674E+03  4.22438E+03 -7.43806E+03  2.10065E+04  1.06938E+04
  7.35105E+03  3.30401E+04 -3.01035E+04  3.36470E+04 -6.08345E+04  2.30507E+03 -5.50456E+04 -4.09305E+04
 -1.22823E+04 -6.03868E+04  3.80746E+04 -4.28573E+04  5.51597E+04 -2.06652E+03  3.15715E+04  3.01708E+04
 -6.47188E+03  3.26309E+04 -2.79423E+04  1.28217E+04 -2.71583E+04 -5.63196E+03 -1.37948E+04 -9.96811E+03
 -7.33892E+03 -1.12892E+04 -1.21785E+03 -1.63294E+04  6.24158E+03 -2.25608E+04  1.50404E+04 -1.38751E+04
  1.24749E+04  4.06973E+03 -5.79647E+03  1.30715E+04 -1.91048E+04 -2.20926E+03 -7.93808E+03 -2.99264E+04
  2.06223E+04 -4.01219E+04  4.42803E+04 -1.83963E+04  4.15061E+04  1.79519E+04  1.40883E+04  4.13749E+04
 -1.52401E+04  3.08852E+04 -2.32680E+04  1.02709E+03 -8.13017E+03 -2.58801E+04  2.05548E+04 -3.08316E+04
  3.73316E+04 -7.23325E+03  3.09568E+04  2.25357E+04  1.48805E+04  4.19707E+04 -7.71689E+03  4.43428E+04
 -2.80876E+04  2.92822E+04 -3.66026E+04  8.29703E+03 -3.75708E+04 -1.51122E+04 -2.11299E+04 -3.40331E+04
  6.92611E+03 -3.35527E+04  2.88849E+04 -1.24017E+04  2.62952E+04  1.07771E+04  2.78197E+03  1.75861E+04
 -1.29915E+04  6.70641E+03 -9.63775E+03 -7.83066E+03  5.83650E+03 -1.00350E+04  1.71510E+04  6.50255E+03
  1.21664E+04  2.16449E+04 -6.69465E+03  2.32163E+04 -2.14481E+04  9.09645E+03 -2.46230E+04 -6.55228E+03
 -1.62891E+04 -1.61564E+04 -5.30278E+03 -1.60888E+04  3.74239E+03 -1.40444E+04  1.18373E+04 -1.37341E+04
  2.06196E+04 -1.13435E+04  2.73466E+04  9.86096E+02  2.10271E+04  1.59688E+04  4.03580E+03  3.19816E+04
 -1.55625E+04  2.70918E+04 -2.57277E+04  9.12845E+03 -1.95209E+04 -1.04829E+04 -3.79247E+03 -1.42367E+04
  2.67144E+03 -4.29489E+03 -2.34998E+03  5.10421E+03 -1.23594E+04  5.32527E+03 -1.29119E+04 -4.39422E+03
 -8.37369E+03 -1.49027E+04  4.18668E+03 -1.85716E+04  1.22332E+04 -1.38770E+04  1.40344E+04 -1.48927E+03
  8.64997E+03  1.06979E+04 -6.85936E+02  1.52559E+04 -1.00421E+04  8.26972E+03 -1.50260E+04 -3.30093E+03
 -1.10652E+04 -1.38012E+04 -1.46922E+03 -1.85288E+04  8.41833E+03 -1.50079E+04  1.55880E+04 -7.10850E+03
  1.41570E+04  7.38327E+02  1.01132E+04  3.80729E+03  5.00030E+03  4.52011E+02  7.00778E+03 -1.36137E+03
  1.34708E+04  2.58313E+03  1.40901E+04  1.24171E+04  8.64056E+03  2.38514E+04 -2.91308E+03  2.54460E+04
 -1.50916E+04  1.93742E+04 -2.34154E+04  9.09975E+03 -2.36477E+04 -1.73500E+03 -2.07696E+04 -1.35300E+04
 -9.89135E+03 -1.94494E+04  6.60509E+03 -1.83189E+04  1.57504E+04 -1.08490E+04  1.52446E+04  3.38938E+03
  6.33030E+03  1.09221E+04 -6.99052E+03  1.01279E+04 -1.28993E+04  2.65041E+03 -1.00240E+04 -7.43220E+03
  1.81638E+00 -1.19728E+04  5.75604E+03 -9.29239E+03  7.49071E+03 -1.47938E+03  1.18208E+03  4.94445E+03
 -5.52514E+03  1.19805E+03 -3.57771E+03 -4.24731E+03  8.08908E+02 -9.86968E+03  7.51005E+03 -9.68341E+03
  1.18297E+04 -4.22312E+03  1.11940E+04  2.84262E+03  9.87378E+03  9.20747E+03  4.74135E+03  1.33235E+04
 -1.40827E+03  1.51446E+04 -9.00567E+03  9.47795E+03 -1.05971E+04  2.72881E+03 -8.13122E+03 -1.85196E+03
 -4.50220E+03 -3.16188E+03 -5.26618E+02  1.72631E+03 -1.70661E+03  1.85791E+03 -3.54116E+03  3.35497E+03
 -7.62099E+03 -6.77927E+02 -8.48166E+03 -6.96657E+03 -3.31081E+03 -1.12518E+04  3.36423E+03 -7.81177E+03
  6.80083E+03 -3.74066E+03  5.08760E+03  2.22954E+03  7.62241E+02  2.85145E+03 -3.22152E+03 -1.86101E+02
 -3.13459E+03 -4.71752E+03 -7.28721E+02 -6.70083E+03  3.61655E+03 -7.34052E+03  9.51417E+03 -3.70110E+03
  1.11006E+04  6.84494E+02  8.41847E+03  5.62235E+03  1.57128E+03  7.90919E+03 -5.37905E+03  7.97072E+03
 -6.67006E+03  2.78132E+03 -3.42746E+03 -1.17508E+03  1.07089E+03 -1.98018E+03  4.51427E+03 -1.09671E+03
  3.86031E+03  3.07578E+03  8.63657E+02  6.01670E+03 -4.22694E+03  6.22890E+03 -7.30746E+03  1.82403E+03
 -4.69376E+03 -3.40508E+03  3.59689E+02 -6.46683E+03  3.36145E+03 -3.03130E+03  3.19464E+03  8.72381E+02
  4.95208E+02  3.00516E+03 -3.92997E+03  4.36616E+03 -4.41612E+03  2.18371E+03 -4.18572E+03 -6.87852E+02
 -2.78384E+03 -5.48630E+03  8.47125E+02 -6.49549E+03  5.48467E+03 -4.15855E+03  6.04916E+03  8.10377E+02
  4.39346E+03  5.12828E+03  1.35178E+02  6.66619E+03 -4.58885E+03  4.05527E+03 -4.89082E+03 -3.13025E+02
 -5.34730E+03 -4.75255E+03 -1.50430E+03 -4.91567E+03  2.46771E+03 -4.58761E+03  2.66243E+03 -2.89205E+03
  2.83192E+03 -4.78179E+01  1.33091E+02  1.34281E+03  4.33676E+02 -1.48708E+02  7.16579E+01 -1.68965E+03
  3.60823E+03 -8.33282E+02  4.79155E+03  7.16367E+02  5.30927E+03  2.88884E+03  4.95808E+03  6.47398E+03
 -9.78298E+02  8.08633E+03 -7.21547E+03  6.09866E+03 -9.40704E+03  1.36528E+03 -7.32709E+03 -2.26228E+03
 -4.14543E+03 -6.30313E+03 -5.58185E+01 -4.65910E+03  2.05167E+03 -1.75710E+03  1.57998E+03 -2.11859E+03
  9.45179E+02 -1.64035E+03  1.97404E+03 -2.38217E+03  3.19618E+03 -9.75821E+02  3.31132E+03  4.81987E+02
  4.20265E+03  1.15011E+03  1.02437E+03  3.25160E+03 -1.32373E+03  2.53040E+03 -4.14105E+03  2.48815E+03
 -4.66125E+03 -9.39490E+02 -1.48929E+03 -3.11343E+03  4.34384E+02 -4.35977E+03  3.17073E+03 -5.03387E+03
  4.59690E+03 -2.99993E+03  6.17563E+03  1.87882E+02  4.68244E+03  4.02958E+03  1.07708E+03  5.53510E+03
 -2.09346E+03  5.42090E+03 -3.03347E+03  1.61323E+03 -1.78022E+03 -9.87866E+02 -4.73094E+02 -4.65943E+02
 -2.58629E+02  4.75526E+02 -8.57283E+02  1.96146E+03 -2.26114E+03  6.38470E+02 -3.72525E+03 -1.81131E+02
 -1.14669E+03 -3.55621E+03  8.63819E+02 -4.02384E+03  2.31255E+03 -4.04904E+03  3.28265E+03 -8.63828E+02
  3.66059E+03  2.27171E+03  1.76959E+03  2.90671E+03 -7.58228E+02  4.11880E+03 -2.26009E+03  2.55197E+03
 -3.63188E+03  6.56646E+02 -3.29014E+03 -2.56549E+03 -2.55194E+02 -2.70334E+03  1.65550E+03 -2.38588E+03
  2.53112E+03 -1.10877E+03  1.58254E+03  2.11715E+02  2.84263E+02  1.37517E+03  9.16832E+02  2.54388E+02
  1.47502E+03  5.12356E+02  1.19697E+03  1.43643E+03  1.02595E+03  2.18086E+03  1.11151E+03  1.70016E+03
 -1.32706E+03  2.77343E+03 -2.41339E+03  3.64065E+03 -2.75164E+03  1.14466E+03 -3.57202E+03 -2.98407E+02
 -1.27030E+03 -3.18989E+03  5.77685E+02 -4.49961E+03  1.75561E+03 -2.34854E+03  2.89843E+03 -7.64586E+02
  2.02412E+03  1.93729E+03  3.14950E+02  2.03264E+03 -6.55212E+02  1.03017E+03 -1.00275E+03 -2.52976E+02
 -9.28629E+02 -1.43105E+03  1.32278E+03 -1.40207E+03  1.24517E+03 -7.81974E+02  1.29302E+03  2.91787E+02
  8.58646E+02  9.72985E+01  6.21490E+02 -2.05347E+02 -3.32473E+02  7.84280E+02  1.63206E+03 -1.79799E+02
  8.76135E+00 -2.51443E+02  1.79567E+03  4.38432E+02  3.30336E+02  2.41208E+03 -4.10981E+02  2.78501E+03
 -1.47912E+03  9.22515E+02 -2.07446E+03  3.78640E+02 -2.00561E+03 -6.35255E+02 -1.55992E+02 -9.95228E+02
  6.04663E+02 -8.76095E+02  6.71728E+02 -6.92569E+02  5.00922E+02  1.12304E+03 -8.85418E+02  9.17911E+02
 -1.23843E+03  6.38055E+02 -9.11252E+02 -1.63130E+03 -7.85909E+02 -1.99102E+03  3.27748E+01 -1.43143E+03
  3.62099E+02 -4.99314E+02  6.10913E+02  2.71528E+01  1.20277E+03 -3.38044E+02  3.04037E+02  1.07587E+03
 -4.40215E+02 -5.85111E+01 -8.30775E+02 -1.60570E+02  6.85865E+02 -9.69686E+02  1.36408E+03 -5.32618E+02
  1.26815E+03  3.17244E+02  2.69136E+03  6.82341E+02  1.05382E+03  1.44100E+03  9.90539E+00  1.58308E+03
 -1.49323E+03 -1.01168E+02 -1.38852E+03  3.95431E+01 -7.66466E+02 -1.17390E+03  1.69697E+02 -5.33967E+02
  1.25826E+03 -7.13698E+02  5.46044E+02  6.93803E+02 -1.44166E+02  1.38602E+03  3.11557E+02  8.24682E+02
 -2.26665E+02  1.04760E+03 -4.87018E+02  1.42607E+02  2.06416E+02  4.61485E+02 -5.40393E+02  4.14166E+02
 -3.98978E+02  1.06286E+03 -1.73560E+03  4.75507E+02 -1.67214E+03  1.64345E+02 -2.43424E+03 -8.49538E+02
 -1.01077E+03 -1.93674E+03  2.42209E+02 -2.53508E+03  8.40179E+02 -2.01625E+03  2.49336E+03 -9.07019E+02
  2.16111E+03 -2.77608E+02  1.10648E+03  1.55444E+03 -6.58415E+02  1.27747E+03 -8.40345E+02  1.42594E+03
 -8.29823E+02  9.25359E+02 -2.66598E+02 -1.98145E+02 -5.14858E+02  3.58832E+02 -7.96391E+02 -7.81325E+01
 -9.29438E+02 -1.14649E+02 -6.43574E+02  3.88188E+02 -1.84220E+02 -6.13477E+02 -3.79400E+02 -7.11952E+02
  1.28298E+03 -7.60349E+02  2.52147E+02  7.77738E+01  1.13220E+03  1.03658E+03 -3.65831E+02  9.64664E+02
 -7.70757E+02  2.18485E+03 -1.47492E+03  1.02449E+03 -1.67306E+03 -1.40898E+02 -1.16249E+03 -9.76783E+02
 -7.24051E+02 -1.24765E+03  4.55849E+02 -1.22379E+03  4.10225E+02 -1.94844E+02  6.93459E+02  2.48905E+02
  5.24633E+02  2.42877E+02 -1.74923E+02  3.38320E+02 -3.98263E+02  3.34878E+02 -1.84864E+02  1.36683E+02
  4.60387E+02  3.21126E+02  1.40967E+02  5.52213E+02  8.41285E+01  3.54903E+02  4.75597E+02  2.86025E+02
 -4.51607E+02  5.99831E+02 -2.87525E+02  8.37861E+01 -5.85066E+02 -3.26969E+02  3.91522E+01 -1.02074E+03
  4.67660E+02 -5.46381E+02  3.59156E+02  1.79552E+02  5.79272E+02 -3.70633E+02  3.57183E+02  8.95083E+02
  4.66434E+02  2.88665E+02 -1.52006E+02  7.45602E+02 -5.22568E+02  3.57827E+02 -4.73705E+02  2.31482E+02
 -2.74283E+02  7.79620E+01 -3.76147E+02 -1.97427E+02 -4.83332E+02  2.94758E+02 -5.29330E+02 -1.17683E+02
 -8.84921E+02  5.34227E+02 -5.49378E+02 -8.33414E+02  5.43664E+02 -1.37849E+03  2.94338E+02 -2.73360E+02
  5.87434E+02  4.40132E+02 -2.59494E+02  1.33842E+02  3.38746E+02  6.94463E+02 -4.49817E+02  5.18570E+02
