 $NMID ID='MM_0lb_SNR800_18hz_g45_92.RAW', FMTDAT='(8E13.5)'
 TRAMP=1., VOLUME=1. $END
  3.10347E+05  3.06278E+02  3.37453E+05  2.50344E+05  8.44416E+04  3.37429E+05 -1.32130E+05  2.50274E+05
 -1.89357E+05  8.26277E+04 -1.10977E+05 -3.28408E+04  1.63906E+03 -5.03250E+04  5.39038E+04  3.22667E+01
  3.50008E+04  5.29360E+04 -1.67094E+04  7.49911E+04 -6.02787E+04  6.27698E+04 -8.29389E+04  3.16299E+04
 -7.97673E+04 -1.09720E+04 -5.62091E+04 -5.02642E+04 -1.50250E+04 -6.79780E+04  2.70236E+04 -4.47775E+04
  3.92123E+04  4.03923E+03  1.56308E+04  4.70664E+04 -3.40583E+04  4.60448E+04 -6.54956E+04 -1.19748E+02
 -5.18581E+04 -5.59586E+04 -6.35876E+03 -7.51073E+04  3.30696E+04 -5.32278E+04  4.66028E+04 -1.65297E+04
  4.15921E+04  1.11432E+04  3.11104E+04  2.43881E+04  1.59769E+04  2.82610E+04 -4.85641E+03  2.65212E+04
 -2.13931E+04  1.27103E+04 -1.90473E+04 -4.29415E+03  4.32054E+03 -7.65176E+03  2.14273E+04  1.11411E+04
  7.30573E+03  3.35172E+04 -3.06113E+04  3.40667E+04 -6.12726E+04  2.00899E+03 -5.54337E+04 -4.09652E+04
 -1.24249E+04 -6.10353E+04  3.83266E+04 -4.34112E+04  5.56796E+04 -2.22538E+03  3.21715E+04  3.07614E+04
 -6.54783E+03  3.32780E+04 -2.86593E+04  1.34046E+04 -2.77610E+04 -5.24440E+03 -1.41638E+04 -9.80654E+03
 -7.14072E+03 -1.16545E+04 -1.06695E+03 -1.66582E+04  6.67957E+03 -2.25119E+04  1.51254E+04 -1.38872E+04
  1.21162E+04  4.43157E+03 -6.35405E+03  1.32817E+04 -1.96977E+04 -2.73595E+03 -8.27076E+03 -3.07323E+04
  2.07582E+04 -4.08189E+04  4.49555E+04 -1.86924E+04  4.18833E+04  1.82427E+04  1.41765E+04  4.18866E+04
 -1.56219E+04  3.11833E+04 -2.35636E+04  1.28748E+03 -8.47581E+03 -2.64849E+04  2.07474E+04 -3.13204E+04
  3.84110E+04 -7.31377E+03  3.17314E+04  2.26903E+04  1.52916E+04  4.28015E+04 -7.79195E+03  4.55266E+04
 -2.83702E+04  2.98361E+04 -3.77407E+04  8.44178E+03 -3.85201E+04 -1.49282E+04 -2.14487E+04 -3.45753E+04
  6.87450E+03 -3.43320E+04  2.94349E+04 -1.27535E+04  2.70873E+04  1.07885E+04  3.32011E+03  1.80244E+04
 -1.32460E+04  7.20893E+03 -9.48310E+03 -7.63119E+03  5.94386E+03 -1.00479E+04  1.72088E+04  6.59204E+03
  1.23237E+04  2.15882E+04 -6.65216E+03  2.30615E+04 -2.13324E+04  9.20419E+03 -2.54262E+04 -6.03254E+03
 -1.73627E+04 -1.64046E+04 -6.04324E+03 -1.71577E+04  3.58586E+03 -1.48826E+04  1.25355E+04 -1.45926E+04
  2.17562E+04 -1.18152E+04  2.82428E+04  1.31215E+03  2.14123E+04  1.66170E+04  4.10026E+03  3.27973E+04
 -1.61944E+04  2.79363E+04 -2.62274E+04  9.28004E+03 -1.97711E+04 -1.02619E+04 -3.75332E+03 -1.37443E+04
  2.57123E+03 -3.62900E+03 -2.77040E+03  5.01822E+03 -1.32080E+04  5.21076E+03 -1.32868E+04 -4.92251E+03
 -8.83275E+03 -1.58094E+04  4.75523E+03 -1.95751E+04  1.25927E+04 -1.43246E+04  1.47943E+04 -1.45443E+03
  9.00471E+03  1.11400E+04 -8.06908E+02  1.58390E+04 -1.02983E+04  8.88465E+03 -1.55509E+04 -3.38865E+03
 -1.15688E+04 -1.42079E+04 -1.92955E+03 -1.92992E+04  8.69506E+03 -1.56004E+04  1.61474E+04 -7.35121E+03
  1.47048E+04  7.46142E+02  1.04815E+04  4.20163E+03  5.31776E+03  4.37974E+02  7.73744E+03 -1.27206E+03
  1.40399E+04  3.02939E+03  1.51985E+04  1.25669E+04  9.33060E+03  2.50612E+04 -3.24434E+03  2.72206E+04
 -1.58044E+04  2.07841E+04 -2.49495E+04  9.97573E+03 -2.52299E+04 -1.74236E+03 -2.15091E+04 -1.42529E+04
 -1.00561E+04 -2.07411E+04  7.15791E+03 -1.92896E+04  1.68674E+04 -1.11783E+04  1.55295E+04  3.78856E+03
  6.60996E+03  1.14175E+04 -7.26215E+03  1.03611E+04 -1.33389E+04  2.67181E+03 -1.02183E+04 -7.92821E+03
 -3.27167E+02 -1.27740E+04  6.43755E+03 -9.58381E+03  8.14714E+03 -1.03796E+03  1.58357E+03  5.44376E+03
 -5.82790E+03  1.49216E+03 -3.72021E+03 -4.50957E+03  6.94239E+02 -1.01507E+04  7.96719E+03 -1.05209E+04
  1.25308E+04 -4.97873E+03  1.22799E+04  2.92008E+03  1.06367E+04  1.01218E+04  5.00527E+03  1.44562E+04
 -1.81733E+03  1.62134E+04 -1.00724E+04  1.03129E+04 -1.17173E+04  2.75774E+03 -8.48305E+03 -2.04816E+03
 -4.34785E+03 -3.34006E+03 -7.84444E+02  1.77074E+03 -1.91137E+03  2.25258E+03 -3.49647E+03  3.51399E+03
 -8.39900E+03 -3.59702E+02 -8.69374E+03 -7.50856E+03 -3.41107E+03 -1.17652E+04  3.34370E+03 -8.57563E+03
  7.44396E+03 -3.82888E+03  5.26919E+03  2.18827E+03  9.03416E+02  3.07107E+03 -3.83604E+03 -1.42661E+02
 -3.54494E+03 -5.33256E+03 -6.56459E+02 -7.46527E+03  4.04252E+03 -8.04757E+03  9.97588E+03 -4.28301E+03
  1.18085E+04  8.73594E+02  8.77715E+03  6.51933E+03  1.73047E+03  8.77963E+03 -5.37074E+03  8.39997E+03
 -7.14132E+03  2.92797E+03 -3.80847E+03 -1.30743E+03  1.41236E+03 -1.83755E+03  4.80459E+03 -9.35969E+02
  4.18170E+03  3.59748E+03  1.10323E+03  6.50796E+03 -4.57639E+03  6.71115E+03 -8.25619E+03  2.04486E+03
 -5.07176E+03 -3.76326E+03  5.02086E+02 -6.93235E+03  3.96239E+03 -3.24859E+03  3.65508E+03  1.00809E+03
  3.79163E+02  3.50216E+03 -4.24057E+03  4.85999E+03 -5.20749E+03  2.24442E+03 -4.88376E+03 -1.32653E+03
 -3.09242E+03 -6.34759E+03  1.14709E+03 -7.30714E+03  6.30833E+03 -4.59915E+03  6.58375E+03  9.83177E+02
  4.39252E+03  5.40821E+03  1.27846E+02  7.45054E+03 -4.87475E+03  4.13719E+03 -5.41970E+03 -3.95836E+02
 -5.55833E+03 -5.01995E+03 -1.36142E+03 -4.94039E+03  2.35791E+03 -4.52558E+03  2.70083E+03 -2.91295E+03
  2.82769E+03  3.76933E+02 -1.87602E+02  1.35245E+03  2.51494E+02 -4.27556E+02  2.98940E+02 -2.15667E+03
  4.20361E+03 -8.85520E+02  5.54727E+03  7.37982E+02  5.86535E+03  3.40863E+03  5.27183E+03  7.54332E+03
 -1.49437E+03  8.93535E+03 -7.87505E+03  6.63144E+03 -1.01652E+04  1.31605E+03 -7.97020E+03 -2.71699E+03
 -4.03388E+03 -6.57790E+03 -3.43802E+02 -5.33779E+03  2.02986E+03 -2.35394E+03  1.59145E+03 -2.15704E+03
  1.27925E+03 -1.70972E+03  2.30672E+03 -2.35520E+03  3.67821E+03 -1.88241E+03  3.63096E+03  2.54135E+02
  4.63264E+03  1.37378E+03  1.41527E+03  3.52361E+03 -1.49882E+03  3.19466E+03 -4.34810E+03  2.94966E+03
 -5.22475E+03 -1.30046E+03 -2.11057E+03 -3.56040E+03  3.28189E+02 -5.12465E+03  3.39869E+03 -5.71943E+03
  5.05281E+03 -3.35861E+03  6.70940E+03  2.01038E+02  5.24439E+03  4.41393E+03  1.39940E+03  6.22888E+03
 -2.21873E+03  5.89243E+03 -3.50019E+03  2.00910E+03 -2.19661E+03 -9.51220E+02 -4.74628E+02 -4.18882E+02
 -6.93504E+02  3.99043E+02 -8.75136E+02  1.85980E+03 -2.51950E+03  1.24146E+03 -4.15103E+03 -3.79116E+02
 -1.44425E+03 -4.15501E+03  1.19524E+03 -4.67529E+03  2.75726E+03 -4.46554E+03  3.97514E+03 -1.31907E+03
  4.39427E+03  2.72437E+03  2.18158E+03  3.55665E+03 -8.20671E+02  4.56614E+03 -2.84945E+03  2.88362E+03
 -3.87938E+03  4.97270E+02 -3.22709E+03 -2.68991E+03 -7.24740E+01 -3.40655E+03  1.76147E+03 -2.66046E+03
  2.94339E+03 -1.74706E+03  1.50380E+03  3.56074E+02  6.41527E+02  1.58446E+03  6.75040E+02  6.38573E+02
  1.76768E+03  6.24885E+02  9.78168E+02  8.59688E+02  1.06238E+03  2.30626E+03  1.66250E+03  1.69576E+03
 -1.15555E+03  2.98432E+03 -2.68771E+03  4.49964E+03 -3.27988E+03  1.10631E+03 -4.26976E+03 -8.65415E+02
 -2.01413E+03 -3.77104E+03  6.64086E+02 -5.03936E+03  2.09912E+03 -2.75334E+03  3.28855E+03 -8.71924E+02
  2.95013E+03  2.02425E+03  3.47051E+02  2.12962E+03 -6.63774E+02  1.11633E+03 -1.17449E+03 -8.79287E+01
 -5.37161E+02 -1.47245E+03  1.23012E+03 -1.77237E+03  1.28843E+03 -1.10684E+03  1.22438E+03  3.58377E+02
  1.02587E+03  2.25703E+02  4.88592E+02 -1.08573E+02 -3.53073E+02  5.64831E+02  1.46656E+03 -1.48952E+02
 -1.55591E+02 -7.20364E+01  1.96865E+03  6.48873E+02  3.43434E+02  2.50096E+03 -4.38829E+02  2.97173E+03
 -1.65340E+03  1.14221E+03 -2.23957E+03  4.97115E+02 -2.18423E+03 -7.03062E+02 -1.06668E+01 -1.06208E+03
  3.41156E+02 -1.22108E+03  8.77749E+02 -7.73423E+02  1.01765E+03  1.26954E+03 -8.05705E+02  1.33209E+03
 -1.36597E+03  6.27833E+02 -1.34608E+03 -1.09119E+03 -6.03537E+02 -2.20701E+03  1.29502E+01 -1.77397E+03
  7.84209E+02 -7.66546E+02  7.43221E+02  8.20455E+01  1.18809E+03  3.46594E+02  1.09121E+02  1.27082E+03
 -2.71160E+02 -8.19244E+00 -7.49589E+02 -2.03820E+02  6.88713E+02 -1.11563E+03  1.91025E+03 -1.09688E+03
  1.40826E+03  4.10435E+00  3.07820E+03  8.00205E+02  1.06865E+03  1.53706E+03 -1.42804E+02  2.07311E+03
 -1.71328E+03  3.96904E+02 -1.54584E+03 -2.79160E+02 -1.02437E+03 -1.51291E+03  4.38139E+02 -6.62270E+02
  1.46071E+03 -7.13805E+02  1.06981E+03  7.09441E+02 -1.03234E+01  1.36689E+03  3.23735E+02  1.57588E+03
 -5.13966E+02  1.23692E+03 -2.83835E+02  3.12470E+02 -5.76786E+00  6.03471E+02 -7.26689E+02  6.22608E+02
 -6.93098E+02  1.38562E+03 -1.87812E+03  6.01969E+02 -1.95070E+03  2.89390E+02 -2.42553E+03 -1.18500E+03
 -1.27557E+03 -2.26378E+03  5.08646E+02 -3.13887E+03  1.18095E+03 -2.46443E+03  2.79461E+03 -1.17628E+03
  2.62064E+03 -1.32379E+01  1.49537E+03  1.91665E+03 -5.74526E+02  1.58311E+03 -1.03935E+03  1.43330E+03
 -1.27321E+03  6.87985E+02 -3.99649E+02 -3.05037E+02 -4.61282E+02  3.54655E+02 -7.44114E+02 -2.32900E+02
 -1.19690E+03 -7.73731E+01 -8.05936E+02  1.08168E+02  1.03213E+02 -9.13313E+02 -4.15862E+02 -1.17352E+03
  1.31391E+03 -7.53446E+02  5.62827E+02  2.16119E+02  1.48287E+03  1.26299E+03 -3.78949E+02  1.44246E+03
 -1.24127E+03  2.58129E+03 -1.98611E+03  1.28139E+03 -1.98630E+03 -1.39417E+02 -1.49969E+03 -1.41663E+03
 -1.20797E+03 -1.59267E+03  2.01064E+02 -1.54759E+03  6.18919E+02 -5.03106E+02  7.39442E+02 -6.03242E+01
  7.93027E+02  3.05726E+02  7.83647E+01  6.86571E+02 -4.87375E+02  2.03371E+02 -1.02956E+02 -3.46639E+02
  2.92605E+02  3.24978E+02  2.97114E+02  5.59144E+02 -1.32149E+01  5.48383E+02  5.77094E+02  3.86755E+02
 -6.51072E+02  6.94263E+02 -5.32187E+02  2.76729E+02 -8.17119E+02 -8.26728E+02 -9.52426E+01 -1.46581E+03
  6.31820E+02 -6.75192E+02  8.26826E+02  4.41362E+01  8.48644E+02 -7.71565E+02  3.06553E+02  9.17237E+02
  3.79688E+02  3.90801E+02 -3.08469E+02  5.57625E+02 -8.06503E+02  5.73745E+02 -3.30426E+02  5.97706E+01
 -1.59166E+02  1.30715E+01 -7.54029E+02  4.22436E+01 -8.55066E+02  2.98724E+02 -9.41073E+02 -3.75634E+02
 -1.27838E+03  1.76353E+02 -4.19852E+02 -9.65843E+02  6.63751E+02 -1.41344E+03  6.35486E+02 -2.75847E+02
  9.63526E+02  2.81307E+02 -1.82813E+02  4.42890E+02 -2.03435E+02  8.12988E+02 -2.05924E+02  7.38878E+02
