 $NMID ID='MM_0lb_SNR800_10hz_g40_53.RAW', FMTDAT='(8E13.5)'
 TRAMP=1., VOLUME=1. $END
  3.09652E+05  3.78948E+02  3.37867E+05  2.50633E+05  8.47352E+04  3.38142E+05 -1.32258E+05  2.51401E+05
 -1.90973E+05  8.35012E+04 -1.12249E+05 -3.21586E+04  1.00403E+03 -5.05238E+04  5.37777E+04 -2.85942E+02
  3.53267E+04  5.29287E+04 -1.69119E+04  7.57899E+04 -6.07636E+04  6.43842E+04 -8.51037E+04  3.24991E+04
 -8.18770E+04 -1.16417E+04 -5.78615E+04 -5.16264E+04 -1.50369E+04 -7.05736E+04  2.79236E+04 -4.59273E+04
  4.07427E+04  3.57656E+03  1.62799E+04  4.84888E+04 -3.44639E+04  4.78109E+04 -6.72799E+04 -3.29264E+02
 -5.40998E+04 -5.70091E+04 -6.86472E+03 -7.85679E+04  3.42874E+04 -5.61405E+04  4.89925E+04 -1.80201E+04
  4.44687E+04  1.14910E+04  3.25078E+04  2.65074E+04  1.58825E+04  3.00957E+04 -5.64941E+03  2.75922E+04
 -2.21854E+04  1.22141E+04 -1.83245E+04 -5.20479E+03  6.22459E+03 -7.34017E+03  2.31111E+04  1.30627E+04
  7.19950E+03  3.67257E+04 -3.31366E+04  3.62227E+04 -6.46303E+04  1.93030E+03 -5.81926E+04 -4.40287E+04
 -1.24275E+04 -6.47017E+04  4.08833E+04 -4.64279E+04  5.98266E+04 -2.81141E+03  3.57407E+04  3.35897E+04
 -5.89445E+03  3.77378E+04 -3.14939E+04  1.73835E+04 -3.21413E+04 -3.73113E+03 -1.83606E+04 -1.13110E+04
 -8.86411E+03 -1.46540E+04 -9.07860E+02 -1.89341E+04  8.11539E+03 -2.35805E+04  1.58816E+04 -1.31098E+04
  1.09793E+04  6.00690E+03 -9.74624E+03  1.25237E+04 -2.26864E+04 -5.88147E+03 -8.73474E+03 -3.58604E+04
  2.42804E+04 -4.54705E+04  5.03985E+04 -2.03833E+04  4.70474E+04  2.02119E+04  1.67983E+04  4.58753E+04
 -1.64724E+04  3.52194E+04 -2.63136E+04  2.25020E+03 -1.10738E+04 -2.83250E+04  2.12881E+04 -3.59193E+04
  4.29960E+04 -1.02892E+04  3.83161E+04  2.48763E+04  2.01855E+04  4.89848E+04 -8.17666E+03  5.36959E+04
 -3.38930E+04  3.63793E+04 -4.49868E+04  1.03758E+04 -4.53786E+04 -1.79531E+04 -2.51288E+04 -4.04026E+04
  7.54743E+03 -4.03976E+04  3.33431E+04 -1.61276E+04  3.11169E+04  1.11133E+04  4.86051E+03  2.01212E+04
 -1.35982E+04  9.07057E+03 -1.07918E+04 -7.37606E+03  5.55264E+03 -1.12099E+04  1.81719E+04  5.42602E+03
  1.42056E+04  2.26846E+04 -5.34310E+03  2.63445E+04 -2.27337E+04  1.34644E+04 -3.00747E+04 -3.54574E+03
 -2.34359E+04 -1.79716E+04 -1.04531E+04 -2.32632E+04  4.26060E+03 -2.33513E+04  1.83489E+04 -2.10545E+04
  3.00743E+04 -1.39464E+04  3.58319E+04  3.95781E+03  2.57953E+04  2.28109E+04  4.99597E+03  3.92569E+04
 -1.91219E+04  3.24289E+04 -2.93316E+04  1.15209E+04 -2.21240E+04 -9.84776E+03 -4.78490E+03 -1.35920E+04
  1.20170E+03 -2.08019E+03 -6.45334E+03  8.10251E+03 -1.87892E+04  5.03566E+03 -1.82584E+04 -8.74444E+03
 -1.10075E+04 -2.13689E+04  5.66570E+03 -2.61762E+04  1.73215E+04 -1.82128E+04  2.07483E+04 -1.64504E+03
  1.31445E+04  1.46852E+04 -1.27661E+03  2.11750E+04 -1.50512E+04  1.24370E+04 -2.19841E+04 -4.17091E+03
 -1.62146E+04 -1.94858E+04 -2.13091E+03 -2.58842E+04  1.18629E+04 -2.20478E+04  2.11402E+04 -1.08732E+04
  2.03467E+04  8.65465E+01  1.47068E+04  4.73530E+03  7.91634E+03  1.51782E+03  1.14385E+04 -1.67612E+03
  2.02603E+04  2.77182E+03  2.31302E+04  1.68582E+04  1.57555E+04  3.49859E+04 -2.84100E+03  4.03753E+04
 -2.31065E+04  3.32964E+04 -3.79004E+04  1.71790E+04 -4.03503E+04 -3.08970E+03 -3.34307E+04 -2.31178E+04
 -1.34413E+04 -3.33848E+04  1.17438E+04 -2.93079E+04  2.56079E+04 -1.46662E+04  2.22168E+04  6.87196E+03
  8.00905E+03  1.68069E+04 -1.09609E+04  1.49214E+04 -1.83310E+04  2.67334E+03 -1.39983E+04 -1.19629E+04
 -5.71540E+01 -1.77867E+04  9.20216E+03 -1.31269E+04  1.19739E+04 -1.19896E+03  3.15068E+03  8.11207E+03
 -8.23968E+03  3.43025E+03 -7.80949E+03 -6.46486E+03 -1.38985E+03 -1.60078E+04  1.10789E+04 -1.75682E+04
  2.08159E+04 -9.73083E+03  2.33524E+04  3.17334E+03  2.02849E+04  1.66727E+04  9.34827E+03  2.59514E+04
 -4.90378E+03  2.77726E+04 -1.78118E+04  1.71221E+04 -1.99285E+04  3.90172E+03 -1.42135E+04 -5.00913E+03
 -6.49598E+03 -6.27360E+03 -7.91606E+02  6.44641E+02 -2.78077E+03  3.39083E+03 -6.61912E+03  5.05271E+03
 -1.29879E+04 -9.30259E+02 -1.36648E+04 -1.07014E+04 -5.51667E+03 -1.72563E+04  5.47816E+03 -1.40234E+04
  1.17401E+04 -6.08808E+03  8.32934E+03  3.90812E+03 -2.65940E+02  5.46627E+03 -6.79858E+03 -4.57966E+02
 -6.83765E+03 -9.08848E+03 -8.84731E+02 -1.36983E+04  8.18942E+03 -1.47875E+04  1.79251E+04 -7.83742E+03
  2.08354E+04  1.94762E+03  1.52082E+04  1.25985E+04  2.78380E+03  1.68059E+04 -8.53118E+03  1.39952E+04
 -1.13880E+04  4.00452E+03 -5.76019E+03 -2.96687E+03  1.97819E+03 -4.00955E+03  7.46170E+03 -1.01097E+03
  6.77925E+03  6.33643E+03  1.28808E+03  1.10258E+04 -8.16838E+03  1.08904E+04 -1.39492E+04  2.44978E+03
 -9.41771E+03 -7.44872E+03  9.61475E+00 -1.19286E+04  7.59241E+03 -6.06706E+03  8.26051E+03  2.76324E+03
  2.26580E+03  8.49695E+03 -7.20305E+03  9.94786E+03 -1.18206E+04  4.50286E+03 -1.20287E+04 -4.25192E+03
 -7.02005E+03 -1.37287E+04  3.44675E+03 -1.60319E+04  1.37424E+04 -9.38217E+03  1.43006E+04  2.62459E+03
  8.66613E+03  1.15750E+04 -1.38370E+03  1.39778E+04 -1.03058E+04  8.02125E+03 -1.10023E+04 -1.00997E+03
 -9.06008E+03 -9.14729E+03 -1.58083E+03 -1.02560E+04  5.43382E+03 -8.29488E+03  6.69015E+03 -3.71122E+03
  4.70384E+03  1.71849E+03 -8.29728E+02  1.89917E+03 -6.26889E+02 -2.67081E+03  2.41536E+03 -5.89347E+03
  9.74521E+03 -3.83048E+03  1.37159E+04  1.30748E+03  1.34885E+04  9.54373E+03  8.94595E+03  1.80719E+04
 -4.19238E+03  2.06712E+04 -1.75355E+04  1.52798E+04 -2.20817E+04  3.18977E+03 -1.78368E+04 -7.50245E+03
 -9.17348E+03 -1.44912E+04 -4.92516E+02 -1.24925E+04  4.30050E+03 -6.95505E+03  4.38226E+03 -4.35703E+03
  2.98020E+03 -2.65101E+03  3.54018E+03 -3.73653E+03  5.62069E+03 -3.10468E+03  6.86137E+03 -9.23340E+02
  9.27325E+03  2.27669E+03  4.86019E+03  7.97383E+03 -1.99677E+03  9.52680E+03 -9.93733E+03  7.06369E+03
 -1.23934E+04 -1.09219E+03 -7.36147E+03 -8.43374E+03 -7.36903E+02 -1.34625E+04  7.55800E+03 -1.34676E+04
  1.37618E+04 -7.32157E+03  1.64380E+04  1.84278E+03  1.15499E+04  1.15306E+04  2.10247E+03  1.50039E+04
 -6.29552E+03  1.23143E+04 -8.85875E+03  4.45263E+03 -6.09736E+03 -1.89142E+03 -2.30973E+03 -1.80405E+03
 -9.74305E+02  1.24792E+02 -2.01708E+03  3.03187E+03 -5.09987E+03  2.15219E+03 -8.98918E+03 -1.06712E+03
 -5.94733E+03 -8.92042E+03  3.40878E+02 -1.21982E+04  7.77874E+03 -1.13018E+04  1.23724E+04 -3.44340E+03
  1.22602E+04  5.69352E+03  5.45174E+03  1.07758E+04 -2.09930E+03  1.27200E+04 -9.13301E+03  7.65832E+03
 -1.15291E+04  6.91236E+02 -8.90327E+03 -7.24151E+03 -9.27059E+02 -9.85451E+03  5.18918E+03 -7.53902E+03
  7.99377E+03 -2.66362E+03  4.99418E+03  2.28485E+03  2.04709E+03  3.80022E+03  1.57962E+03  1.90433E+03
  2.39718E+03  1.06150E+03  3.08499E+03  1.90415E+03  3.64358E+03  4.35225E+03  3.31846E+03  6.29916E+03
 -2.92747E+03  9.94627E+03 -8.73876E+03  9.91784E+03 -1.26399E+04  2.52921E+03 -1.30644E+04 -4.99693E+03
 -6.42680E+03 -1.23437E+04  1.64038E+03 -1.39783E+04  7.70999E+03 -8.83299E+03  1.02179E+04 -2.23828E+03
  8.03370E+03  4.64480E+03  1.76331E+03  7.41929E+03 -3.28917E+03  4.62617E+03 -5.07353E+03 -6.15074E+02
 -2.23543E+03 -5.30360E+03  2.86221E+03 -5.05666E+03  4.83209E+03 -2.48732E+03  4.87518E+03  8.52871E+02
  2.74624E+03  2.16105E+03  1.07889E+03  1.60651E+03 -7.03456E+02  1.66167E+03  1.40639E+03 -9.63207E+02
  1.97677E+03 -5.32419E+02  4.88543E+03  2.13578E+03  2.65810E+03  6.55197E+03 -1.07014E+03  8.50805E+03
 -5.82353E+03  5.76873E+03 -8.03299E+03  1.71529E+03 -6.73754E+03 -2.64105E+03 -2.93462E+03 -4.78535E+03
  2.13954E+02 -5.00098E+03  3.38930E+03 -1.89778E+03  3.00301E+03  2.75197E+03 -9.96060E+02  4.45109E+03
 -5.40503E+03  2.25150E+03 -5.56833E+03 -2.91874E+03 -3.01187E+03 -6.93786E+03  1.07460E+03 -6.60000E+03
  3.70168E+03 -4.32113E+03  4.93424E+03 -4.20312E+02  4.29553E+03  1.29609E+03  5.70800E+02  3.64555E+03
 -2.47135E+03  7.82244E+02 -2.95680E+03 -2.58420E+03  1.25022E+03 -5.24147E+03  6.14972E+03 -4.14926E+03
  7.91943E+03  4.68358E+02  7.58684E+03  5.33508E+03  2.30751E+03  8.02598E+03 -3.11737E+03  7.65493E+03
 -6.38195E+03  3.26811E+03 -6.60521E+03 -1.21361E+03 -3.51793E+03 -5.38582E+03  9.35328E+02 -4.68436E+03
  4.87051E+03 -2.27130E+03  3.96955E+03  2.06787E+03  1.15381E+03  4.21758E+03 -5.33235E+02  3.57747E+03
 -1.96839E+03  2.61338E+03 -1.80467E+03  1.08604E+03 -1.03453E+03  8.76220E+02 -8.85224E+02  1.45839E+03
 -2.09438E+03  3.15864E+03 -5.79166E+03  2.82640E+03 -7.73643E+03  1.70233E+01 -9.09958E+03 -5.04563E+03
 -4.58175E+03 -1.05264E+04  1.90833E+03 -1.24499E+04  7.25519E+03 -9.68128E+03  1.13859E+04 -3.53504E+03
  1.06792E+04  1.94448E+03  6.60717E+03  7.09797E+03  3.92579E+02  8.03322E+03 -3.55425E+03  5.88201E+03
 -4.72514E+03  2.38599E+03 -2.65228E+03 -1.04434E+03 -6.98488E+02 -7.05229E+02 -3.20472E+02  9.57988E+01
 -1.98075E+03  2.70395E+02 -1.61478E+03 -3.58171E+02 -8.26158E+01 -1.91788E+03  3.37196E+01 -3.58751E+03
  3.74442E+03 -2.83646E+03  4.92603E+03  1.73275E+02  6.06406E+03  4.55648E+03  1.27539E+03  8.13116E+03
 -4.23001E+03  9.58029E+03 -8.66058E+03  5.59271E+03 -9.88270E+03 -5.90939E+02 -7.18370E+03 -6.47331E+03
 -3.38303E+03 -8.22366E+03  2.52813E+03 -7.72354E+03  5.12484E+03 -4.14501E+03  5.36038E+03  2.79094E+02
  2.97847E+03  2.58486E+03 -4.27959E+02  2.07429E+03 -1.61658E+03 -5.01343E+01  5.62679E+01 -1.94014E+03
  2.90580E+03 -1.14352E+03  3.06053E+03  1.36467E+03  1.92240E+03  2.97936E+03  4.44709E+02  4.06452E+03
 -3.79455E+03  3.42404E+03 -5.32120E+03  5.49849E+02 -5.15567E+03 -3.91706E+03 -8.05224E+02 -6.98967E+03
  3.55250E+03 -5.62716E+03  6.04951E+03 -1.86635E+03  6.55459E+03  1.28907E+03  3.40392E+03  5.01889E+03
  8.81619E+02  5.25442E+03 -1.85686E+03  4.21413E+03 -3.19798E+03  2.69058E+03 -2.72883E+03  3.93056E+02
 -1.81347E+03 -3.23600E+02 -1.37841E+03  4.95078E+02 -2.93578E+03  1.16919E+03 -4.01961E+03 -1.04493E+03
 -4.56510E+03 -2.70087E+03 -1.18224E+03 -5.55244E+03  2.83261E+03 -5.95010E+03  4.99760E+03 -2.85272E+03
  5.02872E+03  7.46438E+02  2.74760E+03  3.66297E+03 -4.61588E+02  5.47509E+03 -4.29684E+03  3.81750E+03
