 $NMID ID='MM_0lb_SNR800_18hz_g50_66.RAW', FMTDAT='(8E13.5)'
 TRAMP=1., VOLUME=1. $END
  3.09729E+05  3.20137E+02  3.37349E+05  2.50260E+05  8.45437E+04  3.37450E+05 -1.32463E+05  2.50536E+05
 -1.89869E+05  8.29633E+04 -1.11203E+05 -3.28147E+04  1.13966E+03 -5.02487E+04  5.38786E+04  2.58135E+02
  3.52087E+04  5.29525E+04 -1.68817E+04  7.50643E+04 -6.04475E+04  6.26797E+04 -8.31647E+04  3.15279E+04
 -7.99266E+04 -1.11798E+04 -5.61597E+04 -5.06640E+04 -1.50108E+04 -6.88088E+04  2.66229E+04 -4.49621E+04
  3.93619E+04  3.99103E+03  1.56406E+04  4.72427E+04 -3.41930E+04  4.67017E+04 -6.55656E+04 -4.48876E+02
 -5.21878E+04 -5.60633E+04 -6.44389E+03 -7.56528E+04  3.34342E+04 -5.41329E+04  4.68627E+04 -1.64768E+04
  4.20784E+04  1.10361E+04  3.10251E+04  2.43423E+04  1.59875E+04  2.86601E+04 -4.75163E+03  2.67611E+04
 -2.18329E+04  1.30630E+04 -1.87614E+04 -4.18116E+03  4.67726E+03 -7.56431E+03  2.14709E+04  1.13574E+04
  7.56946E+03  3.40732E+04 -3.05954E+04  3.42138E+04 -6.19852E+04  2.12608E+03 -5.58352E+04 -4.14210E+04
 -1.25111E+04 -6.15173E+04  3.84170E+04 -4.40279E+04  5.64785E+04 -2.01548E+03  3.23555E+04  3.08994E+04
 -6.46125E+03  3.39306E+04 -2.87716E+04  1.41370E+04 -2.79945E+04 -4.94522E+03 -1.52364E+04 -1.03686E+04
 -7.55515E+03 -1.17506E+04 -6.61001E+02 -1.66785E+04  7.06457E+03 -2.27353E+04  1.50240E+04 -1.38436E+04
  1.21655E+04  4.30126E+03 -6.51234E+03  1.30998E+04 -1.95739E+04 -3.02272E+03 -8.13620E+03 -3.14892E+04
  2.11501E+04 -4.11955E+04  4.51283E+04 -1.88578E+04  4.24413E+04  1.84429E+04  1.47650E+04  4.20619E+04
 -1.54905E+04  3.14636E+04 -2.40141E+04  1.02158E+03 -8.92668E+03 -2.66615E+04  2.05100E+04 -3.18265E+04
  3.87199E+04 -7.67392E+03  3.22808E+04  2.27839E+04  1.59110E+04  4.32068E+04 -7.67519E+03  4.63874E+04
 -2.91823E+04  3.07409E+04 -3.82528E+04  8.39076E+03 -3.92089E+04 -1.54265E+04 -2.15303E+04 -3.53701E+04
  6.93943E+03 -3.49469E+04  2.96848E+04 -1.31398E+04  2.71385E+04  1.07133E+04  3.40484E+03  1.80759E+04
 -1.33864E+04  7.28212E+03 -9.88120E+03 -7.81604E+03  5.89984E+03 -1.01372E+04  1.75835E+04  6.38040E+03
  1.25623E+04  2.17328E+04 -6.44412E+03  2.37427E+04 -2.17673E+04  9.64238E+03 -2.56604E+04 -6.05771E+03
 -1.72291E+04 -1.68561E+04 -6.20814E+03 -1.72979E+04  3.91995E+03 -1.56870E+04  1.30642E+04 -1.52198E+04
  2.22039E+04 -1.17759E+04  2.89798E+04  1.44022E+03  2.17265E+04  1.70467E+04  4.12359E+03  3.30611E+04
 -1.64496E+04  2.84087E+04 -2.61909E+04  9.55236E+03 -1.97763E+04 -1.04672E+04 -4.30688E+03 -1.38417E+04
  2.88215E+03 -3.92484E+03 -3.15942E+03  5.51129E+03 -1.35898E+04  5.61620E+03 -1.37449E+04 -5.33228E+03
 -8.96005E+03 -1.63213E+04  4.32071E+03 -1.98937E+04  1.29441E+04 -1.47242E+04  1.52370E+04 -1.47790E+03
  9.41569E+03  1.12323E+04 -7.05599E+02  1.61533E+04 -1.06351E+04  9.10064E+03 -1.60707E+04 -3.58055E+03
 -1.18275E+04 -1.44545E+04 -1.57342E+03 -1.99890E+04  9.16421E+03 -1.59959E+04  1.63520E+04 -7.40936E+03
  1.50344E+04  4.58533E+02  1.09534E+04  3.90832E+03  5.59065E+03  7.37224E+02  7.95756E+03 -1.33768E+03
  1.44129E+04  2.52118E+03  1.57090E+04  1.26729E+04  9.60196E+03  2.56947E+04 -3.03108E+03  2.78503E+04
 -1.66875E+04  2.15436E+04 -2.57809E+04  1.03412E+04 -2.62651E+04 -1.93966E+03 -2.23739E+04 -1.49815E+04
 -1.03519E+04 -2.16820E+04  7.14637E+03 -2.00580E+04  1.76766E+04 -1.10674E+04  1.61300E+04  4.04896E+03
  6.48040E+03  1.20003E+04 -7.45060E+03  1.08848E+04 -1.37068E+04  2.49342E+03 -1.05464E+04 -8.23344E+03
 -2.75844E+02 -1.30032E+04  6.34063E+03 -9.69644E+03  8.40740E+03 -1.49329E+03  1.36107E+03  5.55234E+03
 -6.00029E+03  1.52729E+03 -4.10851E+03 -4.72205E+03  1.66427E+02 -1.08201E+04  8.15114E+03 -1.08192E+04
  1.27414E+04 -4.82152E+03  1.27189E+04  2.45680E+03  1.13054E+04  1.02950E+04  5.31503E+03  1.48324E+04
 -1.65139E+03  1.68946E+04 -1.01839E+04  1.04914E+04 -1.19081E+04  3.12636E+03 -8.82722E+03 -2.06422E+03
 -4.75656E+03 -3.60335E+03 -7.44379E+02  1.35128E+03 -2.22238E+03  2.23606E+03 -3.82683E+03  3.54690E+03
 -8.15631E+03 -6.82434E+02 -9.03078E+03 -7.30941E+03 -3.60291E+03 -1.18543E+04  3.75210E+03 -8.99356E+03
  7.54649E+03 -3.87329E+03  5.65007E+03  2.18327E+03  8.71374E+02  3.20793E+03 -3.71578E+03 -1.03985E+02
 -3.42103E+03 -5.50682E+03 -7.05913E+02 -7.72331E+03  4.33837E+03 -7.93956E+03  1.04105E+04 -4.11254E+03
  1.23153E+04  4.77833E+02  9.35720E+03  6.75614E+03  1.74675E+03  9.01842E+03 -5.30660E+03  8.70099E+03
 -6.90237E+03  2.92729E+03 -3.70910E+03 -1.18299E+03  1.35065E+03 -2.12582E+03  5.20865E+03 -7.27439E+02
  4.44970E+03  3.70255E+03  8.58266E+02  6.69078E+03 -4.59405E+03  6.50579E+03 -8.53221E+03  1.87021E+03
 -5.25186E+03 -3.74239E+03  8.07058E+01 -7.06804E+03  3.94231E+03 -3.32511E+03  3.76989E+03  1.34998E+03
  4.90594E+02  3.66300E+03 -4.38377E+03  5.08198E+03 -5.11855E+03  2.58702E+03 -4.91318E+03 -1.13087E+03
 -3.13415E+03 -6.39235E+03  1.39845E+03 -7.64703E+03  6.07755E+03 -4.88492E+03  7.16345E+03  1.10102E+03
  4.92933E+03  5.64534E+03 -2.95249E+01  7.31218E+03 -5.31386E+03  4.34379E+03 -5.75396E+03 -3.09567E+02
 -5.81842E+03 -5.12158E+03 -1.43214E+03 -5.41476E+03  2.74544E+03 -5.08526E+03  3.37154E+03 -3.05435E+03
  2.86900E+03  1.60074E+02 -1.25518E+01  1.31663E+03  4.81705E+02 -1.66015E+02  1.33451E+02 -2.25441E+03
  3.95220E+03 -1.02466E+03  5.67216E+03  7.51255E+02  6.14624E+03  3.49412E+03  5.42445E+03  7.58010E+03
 -1.18084E+03  9.18811E+03 -8.06062E+03  7.28976E+03 -1.04030E+04  1.13972E+03 -8.16944E+03 -2.81142E+03
 -4.62614E+03 -6.94656E+03 -3.68338E+02 -5.23372E+03  2.25416E+03 -2.39077E+03  1.68611E+03 -2.29648E+03
  1.26490E+03 -1.45146E+03  2.22353E+03 -2.50540E+03  3.38365E+03 -1.49633E+03  3.75160E+03  4.29434E+02
  4.56468E+03  1.28084E+03  1.41651E+03  3.40358E+03 -1.45166E+03  3.05882E+03 -4.70175E+03  2.89521E+03
 -5.37290E+03 -1.10620E+03 -2.04919E+03 -3.68639E+03  3.73590E+02 -5.47374E+03  3.58269E+03 -5.69773E+03
  5.21965E+03 -3.49663E+03  7.21832E+03  2.81687E+02  5.17806E+03  4.63138E+03  1.24545E+03  6.35110E+03
 -2.26584E+03  6.26233E+03 -3.47665E+03  2.07199E+03 -2.13520E+03 -1.05372E+03 -5.17656E+02 -6.68389E+02
 -5.92478E+02  3.08787E+02 -1.10354E+03  2.10962E+03 -2.41428E+03  1.15977E+03 -4.16544E+03 -6.08597E+02
 -1.25621E+03 -4.19406E+03  9.15236E+02 -5.06048E+03  2.57057E+03 -4.74727E+03  3.90590E+03 -1.13871E+03
  4.61797E+03  2.31947E+03  1.77943E+03  3.62266E+03 -9.29530E+02  4.75277E+03 -2.80105E+03  2.77431E+03
 -3.97232E+03  7.65895E+02 -3.46816E+03 -2.70094E+03 -2.04596E+02 -3.48763E+03  1.88922E+03 -2.85250E+03
  3.05558E+03 -1.29868E+03  2.15836E+03  3.46407E+02  4.31919E+02  1.71245E+03  7.11282E+02  5.46828E+02
  1.39969E+03  6.24948E+02  1.48365E+03  9.34342E+02  1.14800E+03  2.13718E+03  1.20638E+03  1.88187E+03
 -9.95684E+02  2.88655E+03 -2.43399E+03  4.22871E+03 -3.59820E+03  1.13534E+03 -4.60504E+03 -6.40212E+02
 -2.06882E+03 -4.09249E+03  5.23227E+02 -5.04869E+03  2.31508E+03 -2.58358E+03  3.26837E+03 -5.21915E+02
  2.80705E+03  1.86920E+03  3.95925E+02  2.44963E+03 -7.31231E+02  1.56311E+03 -1.30586E+03  5.34674E+01
 -6.13673E+02 -1.59790E+03  1.43411E+03 -1.88546E+03  1.64744E+03 -1.29501E+03  9.06904E+02  4.79497E+02
  8.75136E+02  3.80741E+02  8.03045E+02 -4.39443E+02 -3.97825E+02  4.69519E+02  1.64815E+03 -8.07709E+01
 -9.20382E+01 -1.43192E+02  1.73000E+03  7.50718E+02  1.10243E+02  2.61973E+03 -5.00128E+02  3.13226E+03
 -1.58101E+03  1.00970E+03 -2.06169E+03  5.80250E+02 -2.50523E+03 -1.08010E+03 -2.73995E+02 -9.92758E+02
  4.52599E+02 -1.25170E+03  1.05118E+03 -6.65538E+02  9.40981E+02  1.44862E+03 -7.25953E+02  1.05322E+03
 -1.48139E+03  7.39838E+02 -1.39738E+03 -1.30597E+03 -6.18540E+02 -2.29401E+03  4.18672E+01 -1.72928E+03
  2.94681E+02 -4.89073E+02  8.10030E+02  1.37109E+02  1.65248E+03  8.04482E+01  3.61921E+02  1.27588E+03
 -4.73473E+02  1.12478E+02 -1.04622E+03 -4.12954E+02  4.31333E+02 -1.09722E+03  1.63439E+03 -9.27640E+02
  1.40478E+03  2.17628E+02  2.82593E+03  9.79019E+02  1.19049E+03  1.86186E+03 -3.21373E+02  1.98667E+03
 -1.76102E+03  3.85293E+02 -1.72996E+03  5.77142E+01 -1.07876E+03 -1.42656E+03  4.72099E+02 -7.06513E+02
  1.46110E+03 -6.16830E+02  1.27659E+03  6.05597E+02  1.62272E+02  1.11168E+03  3.79479E+02  1.14729E+03
 -3.19272E+02  1.07442E+03 -4.29695E+02  3.38619E+02  1.00235E+02  4.40441E+02 -5.57053E+02  3.77536E+02
 -7.26713E+02  1.24069E+03 -1.76731E+03  5.09754E+02 -1.82804E+03  3.88312E+02 -2.91587E+03 -9.49941E+02
 -1.44080E+03 -2.23707E+03  6.23051E+02 -3.01602E+03  9.31982E+02 -2.78363E+03  2.89951E+03 -1.09198E+03
  2.62676E+03 -5.00171E+01  1.24618E+03  1.71593E+03 -7.10239E+02  1.44651E+03 -6.44291E+02  1.31379E+03
 -9.26997E+02  9.78656E+02 -4.05687E+02  4.18844E+01 -5.60027E+02  2.56994E+02 -6.54438E+02 -8.32729E+01
 -9.13362E+02 -7.03286E+01 -7.26747E+02 -2.03309E+02  3.81180E+02 -8.70052E+02 -4.60878E+02 -7.26766E+02
  1.55862E+03 -5.43942E+02  4.48736E+02  2.65176E+02  1.20889E+03  1.03990E+03 -4.32594E+02  1.48443E+03
 -9.50553E+02  2.20022E+03 -1.76139E+03  1.25353E+03 -1.96799E+03 -2.79056E+02 -1.39545E+03 -1.27270E+03
 -6.02495E+02 -1.51809E+03  6.20801E+02 -1.39620E+03  5.75211E+02 -8.34537E+02  6.94907E+02  1.40314E+02
  7.19866E+02  1.29670E+02  5.55633E+01  4.13369E+02 -5.66346E+02 -1.02184E+02  1.37872E+02 -6.90016E+01
  4.39306E+02  5.35243E+02  1.63375E+02  4.60652E+02  1.41800E+02  5.43910E+02  4.16435E+02  3.28472E+02
 -6.56854E+02  5.21186E+02 -8.28479E+02 -1.14962E+02 -9.73839E+02 -6.84182E+02  1.51458E+02 -1.32540E+03
  6.63985E+02 -6.64690E+02  6.39328E+02  1.86299E+02  1.09903E+03 -6.30707E+02  3.79493E+02  9.46678E+02
  3.12457E+02  4.20028E+02 -1.63443E+02  4.41591E+02 -4.32754E+02  7.12883E+02 -3.58881E+02 -1.44646E+02
  2.33342E+01 -2.79706E+01 -6.73184E+02  1.45771E+01 -5.59604E+02  2.12140E+02 -1.01386E+03 -1.78989E+02
 -1.19131E+03  1.17968E+02 -2.24642E+02 -8.34263E+02  5.34325E+02 -1.62624E+03  7.60767E+02 -3.09669E+02
  7.62152E+02  6.59805E+01 -3.90264E+02  6.67865E+01  1.34819E+02  9.36729E+02 -1.25801E+02  4.79147E+02
