 $NMID ID='MM_0lb_SNR800_15hz_g45_91.RAW', FMTDAT='(8E13.5)'
 TRAMP=1., VOLUME=1. $END
  3.09916E+05  3.02048E+02  3.37391E+05  2.50264E+05  8.45051E+04  3.37882E+05 -1.32453E+05  2.50453E+05
 -1.90139E+05  8.30150E+04 -1.11415E+05 -3.27060E+04  1.11847E+03 -5.04015E+04  5.42216E+04  1.20393E+02
  3.53499E+04  5.30878E+04 -1.68697E+04  7.53009E+04 -6.06006E+04  6.35221E+04 -8.37856E+04  3.17935E+04
 -8.02367E+04 -1.13627E+04 -5.71679E+04 -5.09316E+04 -1.53243E+04 -6.91682E+04  2.74624E+04 -4.52531E+04
  3.98843E+04  3.83196E+03  1.61002E+04  4.74283E+04 -3.45682E+04  4.69674E+04 -6.64416E+04 -5.04620E+02
 -5.31636E+04 -5.65829E+04 -6.79628E+03 -7.65587E+04  3.36573E+04 -5.44697E+04  4.73402E+04 -1.68194E+04
  4.29169E+04  1.14503E+04  3.16467E+04  2.49732E+04  1.59496E+04  2.89121E+04 -5.26280E+03  2.68293E+04
 -2.19498E+04  1.25493E+04 -1.88746E+04 -4.81481E+03  5.21967E+03 -7.66099E+03  2.17663E+04  1.17570E+04
  7.33824E+03  3.45221E+04 -3.15524E+04  3.49329E+04 -6.26149E+04  2.26006E+03 -5.63195E+04 -4.24661E+04
 -1.22105E+04 -6.25123E+04  3.88637E+04 -4.46499E+04  5.73349E+04 -2.14727E+03  3.32065E+04  3.19289E+04
 -6.42588E+03  3.52759E+04 -2.97247E+04  1.50448E+04 -2.91213E+04 -4.59478E+03 -1.60139E+04 -1.08763E+04
 -7.80425E+03 -1.27794E+04 -6.30087E+02 -1.76169E+04  7.29486E+03 -2.27530E+04  1.53068E+04 -1.34230E+04
  1.17736E+04  4.84077E+03 -7.73422E+03  1.31277E+04 -2.06927E+04 -3.51185E+03 -8.11324E+03 -3.25915E+04
  2.22919E+04 -4.27883E+04  4.69867E+04 -1.94022E+04  4.41650E+04  1.89777E+04  1.51619E+04  4.31791E+04
 -1.57284E+04  3.27988E+04 -2.46597E+04  1.33011E+03 -9.31319E+03 -2.72138E+04  2.09004E+04 -3.30582E+04
  4.00255E+04 -8.47654E+03  3.40526E+04  2.35756E+04  1.71745E+04  4.54107E+04 -8.19636E+03  4.86351E+04
 -3.07941E+04  3.24878E+04 -4.01193E+04  8.87733E+03 -4.12169E+04 -1.64144E+04 -2.28074E+04 -3.68489E+04
  7.12943E+03 -3.62761E+04  3.06690E+04 -1.39956E+04  2.82548E+04  1.09226E+04  3.80579E+03  1.86225E+04
 -1.33104E+04  7.90495E+03 -9.89651E+03 -7.57068E+03  5.85022E+03 -1.02584E+04  1.78492E+04  6.07783E+03
  1.28992E+04  2.20487E+04 -6.29202E+03  2.43469E+04 -2.22003E+04  1.06463E+04 -2.68483E+04 -5.11918E+03
 -1.92342E+04 -1.71149E+04 -7.59107E+03 -1.93770E+04  3.95466E+03 -1.80093E+04  1.47877E+04 -1.68557E+04
  2.45323E+04 -1.26727E+04  3.10838E+04  2.38925E+03  2.29962E+04  1.86903E+04  4.09201E+03  3.51216E+04
 -1.70251E+04  2.93098E+04 -2.73098E+04  1.04360E+04 -2.06448E+04 -1.01617E+04 -4.42885E+03 -1.35791E+04
  2.15803E+03 -3.07477E+03 -4.09549E+03  6.50245E+03 -1.50524E+04  5.10460E+03 -1.54648E+04 -6.25779E+03
 -9.88847E+03 -1.76702E+04  5.23422E+03 -2.18496E+04  1.47714E+04 -1.57312E+04  1.68427E+04 -1.69589E+03
  1.06081E+04  1.24186E+04 -1.09119E+03  1.78895E+04 -1.24126E+04  1.01551E+04 -1.78079E+04 -4.01168E+03
 -1.31548E+04 -1.59973E+04 -1.68933E+03 -2.18974E+04  9.96680E+03 -1.77717E+04  1.81862E+04 -8.44919E+03
  1.66314E+04  5.36414E+02  1.18286E+04  4.40941E+03  6.21076E+03  6.62699E+02  8.94694E+03 -1.46189E+03
  1.63122E+04  2.72851E+03  1.78731E+04  1.42106E+04  1.14972E+04  2.87234E+04 -3.14229E+03  3.18534E+04
 -1.85627E+04  2.51802E+04 -2.95281E+04  1.24586E+04 -3.08167E+04 -2.20606E+03 -2.55932E+04 -1.76731E+04
 -1.12572E+04 -2.49845E+04  8.65098E+03 -2.31941E+04  1.96604E+04 -1.22001E+04  1.77848E+04  4.97760E+03
  7.10339E+03  1.32466E+04 -8.56328E+03  1.16410E+04 -1.52749E+04  2.62022E+03 -1.18262E+04 -9.47912E+03
 -1.80902E+02 -1.46976E+04  7.09916E+03 -1.08129E+04  9.25208E+03 -1.30057E+03  1.95556E+03  5.92949E+03
 -6.72478E+03  2.08119E+03 -4.88362E+03 -5.34449E+03 -4.00763E+01 -1.21686E+04  9.22504E+03 -1.33278E+04
  1.53950E+04 -6.32172E+03  1.61151E+04  3.19219E+03  1.39776E+04  1.20091E+04  6.61450E+03  1.82857E+04
 -2.97669E+03  2.02458E+04 -1.27647E+04  1.27941E+04 -1.44167E+04  3.01877E+03 -1.03856E+04 -2.72315E+03
 -5.18761E+03 -4.49779E+03 -6.68426E+02  8.81853E+02 -2.36751E+03  2.28898E+03 -4.71792E+03  4.12543E+03
 -9.89780E+03 -3.33784E+02 -1.06055E+04 -8.37159E+03 -4.04320E+03 -1.35825E+04  4.29047E+03 -1.04951E+04
  8.69023E+03 -4.15088E+03  6.32072E+03  3.08737E+03  6.33138E+02  4.07792E+03 -4.46646E+03 -1.72340E+02
 -4.79957E+03 -6.41524E+03 -9.03189E+02 -9.39584E+03  5.17695E+03 -1.01781E+04  1.26551E+04 -5.12940E+03
  1.51157E+04  1.08406E+03  1.09335E+04  8.17851E+03  2.14884E+03  1.15069E+04 -6.43903E+03  1.02659E+04
 -8.63275E+03  3.35895E+03 -4.61091E+03 -1.96856E+03  1.47232E+03 -2.82496E+03  5.67548E+03 -9.81409E+02
  5.05417E+03  4.24976E+03  1.07550E+03  8.49011E+03 -5.87716E+03  8.04063E+03 -9.98627E+03  2.25825E+03
 -6.56469E+03 -4.74433E+03  3.70193E+02 -8.63299E+03  5.03402E+03 -3.99557E+03  5.26796E+03  1.60215E+03
  5.12727E+02  5.09690E+03 -5.25006E+03  6.51309E+03 -6.86092E+03  3.29021E+03 -7.03213E+03 -1.85098E+03
 -4.26545E+03 -8.47467E+03  1.84475E+03 -1.00065E+04  8.50842E+03 -6.13557E+03  9.48975E+03  1.63517E+03
  5.84337E+03  7.37500E+03 -3.15389E+02  9.53255E+03 -6.99077E+03  5.52563E+03 -7.07431E+03 -7.55251E+02
 -7.20759E+03 -6.52223E+03 -1.18152E+03 -6.86857E+03  3.39286E+03 -5.77638E+03  3.96468E+03 -3.11973E+03
  3.41150E+03  6.14499E+02 -3.20542E+02  1.44422E+03  9.34174E+01 -8.02949E+02  8.50645E+02 -3.79509E+03
  5.78721E+03 -1.89613E+03  7.95021E+03  9.76023E+02  8.13227E+03  5.04211E+03  6.54778E+03  1.08887E+04
 -2.17025E+03  1.25501E+04 -1.09731E+04  9.23197E+03 -1.40898E+04  2.02837E+03 -1.11852E+04 -4.59337E+03
 -5.63717E+03 -9.01936E+03 -5.64983E+02 -7.71258E+03  3.07467E+03 -3.49700E+03  2.58339E+03 -2.73404E+03
  1.86889E+03 -1.86161E+03  2.68168E+03 -2.78933E+03  4.28499E+03 -1.68546E+03  4.79337E+03 -6.53157E+01
  6.55084E+03  1.39476E+03  2.13740E+03  5.07893E+03 -1.71701E+03  4.91470E+03 -5.95833E+03  3.96753E+03
 -7.25264E+03 -1.14705E+03 -3.85476E+03 -4.72139E+03 -2.30450E+02 -7.74534E+03  4.68410E+03 -7.93404E+03
  8.05782E+03 -4.72871E+03  9.78770E+03  7.96039E+02  6.74164E+03  6.44650E+03  1.21257E+03  8.74716E+03
 -3.43820E+03  8.08258E+03 -4.85518E+03  2.74189E+03 -2.91636E+03 -1.05910E+03 -1.32403E+03 -1.27433E+03
 -5.31347E+02  4.37136E+02 -1.16213E+03  2.25648E+03 -3.64503E+03  1.73799E+03 -5.53940E+03 -6.31108E+02
 -2.65225E+03 -5.68741E+03  4.89407E+02 -7.11287E+03  4.12914E+03 -6.59707E+03  6.41351E+03 -1.98612E+03
  6.91627E+03  3.56289E+03  3.06416E+03  5.56024E+03 -1.29618E+03  6.95721E+03 -4.44872E+03  4.22703E+03
 -5.92153E+03  4.30764E+02 -5.09111E+03 -3.84793E+03 -5.08994E+02 -5.23127E+03  2.80430E+03 -4.09338E+03
  4.03740E+03 -1.91884E+03  2.45146E+03  1.03611E+03  6.02077E+02  2.15573E+03  6.67085E+02  8.27491E+02
  2.06440E+03  8.06459E+02  1.64919E+03  1.42596E+03  1.91718E+03  3.01668E+03  2.08895E+03  3.18323E+03
 -1.54555E+03  4.96307E+03 -4.53213E+03  5.84313E+03 -5.84663E+03  1.46155E+03 -6.76517E+03 -2.05716E+03
 -3.24016E+03 -6.21297E+03  7.59574E+02 -7.19860E+03  3.37853E+03 -4.19806E+03  5.20554E+03 -1.12926E+03
  4.36916E+03  2.65318E+03  7.58973E+02  3.90087E+03 -1.36512E+03  2.25545E+03 -2.22833E+03 -1.56335E+02
 -9.10735E+02 -2.65052E+03  2.09309E+03 -2.69831E+03  2.09263E+03 -1.21151E+03  2.72426E+03  6.71983E+02
  1.14484E+03  1.10005E+03  1.16304E+03  1.61233E+02 -5.11088E+02  9.16671E+02  1.84543E+03 -3.79161E+02
  7.37606E+02 -5.90019E+02  2.64584E+03  6.83549E+02  1.00012E+03  3.40672E+03 -3.98033E+02  4.50390E+03
 -2.78601E+03  2.32617E+03 -3.47339E+03  3.49251E+02 -3.76511E+03 -1.39026E+03 -7.68177E+02 -1.89930E+03
  5.03932E+02 -2.17779E+03  1.57527E+03 -1.27304E+03  1.09702E+03  1.51364E+03 -8.54577E+02  1.91969E+03
 -2.56849E+03  1.18864E+03 -2.66195E+03 -1.90440E+03 -1.27967E+03 -3.44522E+03  3.69792E+02 -2.91191E+03
  1.65730E+03 -1.36228E+03  1.88527E+03 -5.29194E+01  1.99483E+03  4.50637E+02  6.33794E+02  1.55662E+03
 -8.76770E+02  1.05289E+02 -1.48018E+03 -7.45078E+02  5.60636E+02 -2.22968E+03  3.04284E+03 -1.63665E+03
  2.94010E+03  3.36434E+02  4.06083E+03  2.18768E+03  1.49703E+03  3.31981E+03 -9.23159E+02  3.66312E+03
 -3.02249E+03  1.27291E+03 -2.92558E+03 -1.46757E+02 -1.47273E+03 -2.42926E+03  7.11618E+02 -1.90989E+03
  2.47480E+03 -1.35155E+03  1.54803E+03  1.28252E+03  6.60325E+02  2.12326E+03 -1.61519E+02  2.07486E+03
 -7.23691E+02  1.41382E+03 -8.58049E+02  3.83982E+02 -3.63182E+02  6.09891E+02 -1.03250E+03  1.08037E+03
 -1.06229E+03  1.17908E+03 -2.74050E+03  9.97187E+02 -3.41181E+03  2.51366E+02 -4.03254E+03 -2.19050E+03
 -2.28821E+03 -4.72583E+03  1.00678E+03 -5.01444E+03  2.60605E+03 -4.24521E+03  4.83207E+03 -1.53639E+03
  4.45836E+03  5.26303E+02  2.28148E+03  3.06974E+03 -3.07021E+02  3.29025E+03 -9.81777E+02  2.57141E+03
 -2.09733E+03  9.92168E+02 -1.16570E+03 -1.45057E+02 -7.50752E+02  3.21386E+02 -8.73327E+02  1.31873E+01
 -1.19413E+03 -1.50715E+02 -1.10977E+03 -7.55220E+01  4.73109E+02 -9.69514E+02 -1.75067E+02 -1.60908E+03
  1.54364E+03 -8.42917E+02  1.32312E+03  1.97809E+02  2.17736E+03  1.93571E+03 -8.39557E+01  3.02363E+03
 -1.75549E+03  4.15150E+03 -3.46685E+03  2.43624E+03 -3.57929E+03 -4.42027E+02 -2.90354E+03 -2.47064E+03
 -1.45088E+03 -3.19411E+03  2.42069E+02 -2.70152E+03  1.89892E+03 -1.20452E+03  1.98744E+03  4.44207E+02
  1.52015E+03  6.49392E+02  1.71792E+02  7.90450E+02 -7.82110E+02 -2.25965E+02  4.93051E+00 -7.52701E+02
  9.63045E+02 -1.29059E+02  8.85522E+02  5.02203E+02  8.16735E+02  1.37431E+03  7.64660E+01  9.15732E+02
 -1.40791E+03  1.67932E+03 -1.75421E+03  1.43007E+02 -1.83255E+03 -1.42751E+03  1.78788E+01 -2.62284E+03
  1.40034E+03 -1.77936E+03  1.98586E+03 -2.97025E+02  2.11513E+03 -2.14141E+02  1.40460E+03  2.03516E+03
  4.90394E+02  1.45107E+03 -5.36005E+02  1.34974E+03 -1.30614E+03  1.04398E+03 -9.97857E+02  4.14265E+01
 -4.78656E+02  8.40808E+01 -7.43893E+02  2.49699E+02 -1.17143E+03  2.86821E+02 -1.63858E+03 -3.28110E+02
 -1.84340E+03 -6.79286E+02 -5.74537E+02 -1.90266E+03  1.00621E+03 -2.69918E+03  1.48234E+03 -1.02167E+03
  1.98634E+03  2.77130E+02  2.83787E+02  1.03304E+03 -1.04205E+02  1.63763E+03 -1.30608E+03  1.27461E+03
