 $NMID ID='MM_0lb_SNR800_11hz_g60_8.RAW', FMTDAT='(8E13.5)'
 TRAMP=1., VOLUME=1. $END
  3.09645E+05 -1.19895E+02  3.37924E+05  2.50707E+05  8.51791E+04  3.38695E+05 -1.32634E+05  2.51805E+05
 -1.90718E+05  8.36654E+04 -1.12560E+05 -3.26312E+04  2.13735E+02 -5.06610E+04  5.37309E+04 -2.63320E+02
  3.53057E+04  5.28217E+04 -1.66642E+04  7.64299E+04 -6.09171E+04  6.44929E+04 -8.54191E+04  3.25593E+04
 -8.22244E+04 -1.20597E+04 -5.78380E+04 -5.22258E+04 -1.52297E+04 -7.10315E+04  2.82948E+04 -4.64188E+04
  4.10992E+04  3.42017E+03  1.67722E+04  4.86448E+04 -3.46550E+04  4.80422E+04 -6.77179E+04 -3.94880E+02
 -5.46520E+04 -5.77536E+04 -7.20309E+03 -7.87857E+04  3.47041E+04 -5.66554E+04  4.95316E+04 -1.82508E+04
  4.46394E+04  1.16159E+04  3.30094E+04  2.62367E+04  1.58378E+04  3.05223E+04 -5.90055E+03  2.78304E+04
 -2.26225E+04  1.20556E+04 -1.80617E+04 -5.30298E+03  6.81409E+03 -7.39105E+03  2.32995E+04  1.35855E+04
  7.06197E+03  3.70749E+04 -3.36546E+04  3.70105E+04 -6.56418E+04  1.84350E+03 -5.89181E+04 -4.43751E+04
 -1.26056E+04 -6.58054E+04  4.14432E+04 -4.71328E+04  6.07060E+04 -2.27212E+03  3.66593E+04  3.39959E+04
 -5.28971E+03  3.89504E+04 -3.21094E+04  1.88155E+04 -3.32391E+04 -3.71818E+03 -1.91762E+04 -1.20245E+04
 -9.43948E+03 -1.51020E+04 -1.27326E+02 -1.95009E+04  8.12556E+03 -2.38328E+04  1.59670E+04 -1.28912E+04
  1.02205E+04  6.30524E+03 -1.02220E+04  1.29060E+04 -2.30137E+04 -6.26772E+03 -8.39598E+03 -3.67109E+04
  2.48920E+04 -4.63934E+04  5.19865E+04 -2.09969E+04  4.81835E+04  2.06872E+04  1.68110E+04  4.66749E+04
 -1.64016E+04  3.59054E+04 -2.74142E+04  2.52153E+03 -1.12087E+04 -2.95935E+04  2.17125E+04 -3.66225E+04
  4.41372E+04 -1.06293E+04  4.01543E+04  2.45567E+04  2.08862E+04  5.03340E+04 -8.23556E+03  5.49157E+04
 -3.48988E+04  3.78903E+04 -4.68788E+04  1.10593E+04 -4.69986E+04 -1.82701E+04 -2.52729E+04 -4.14229E+04
  7.84621E+03 -4.14385E+04  3.41359E+04 -1.68132E+04  3.18547E+04  1.09066E+04  4.91421E+03  2.08393E+04
 -1.39705E+04  9.41928E+03 -1.11764E+04 -7.54426E+03  5.74121E+03 -1.13055E+04  1.87124E+04  5.50988E+03
  1.46695E+04  2.25074E+04 -4.98243E+03  2.72188E+04 -2.32363E+04  1.37472E+04 -3.12208E+04 -3.54871E+03
 -2.45960E+04 -1.86053E+04 -1.14192E+04 -2.41941E+04  4.35720E+03 -2.49689E+04  1.90836E+04 -2.24544E+04
  3.16242E+04 -1.38270E+04  3.74407E+04  4.52432E+03  2.66534E+04  2.32413E+04  4.71931E+03  4.05688E+04
 -1.96219E+04  3.32432E+04 -2.98900E+04  1.17963E+04 -2.24119E+04 -1.07530E+04 -4.45279E+03 -1.27983E+04
  1.09888E+03 -1.58861E+03 -7.47627E+03  7.96199E+03 -1.91319E+04  5.08288E+03 -1.94328E+04 -9.17470E+03
 -1.12322E+04 -2.27005E+04  6.07066E+03 -2.69994E+04  1.83184E+04 -1.92777E+04  2.20942E+04 -2.09003E+03
  1.38982E+04  1.55307E+04 -1.27783E+03  2.22949E+04 -1.61701E+04  1.31930E+04 -2.30714E+04 -4.92724E+03
 -1.68833E+04 -2.03179E+04 -2.13623E+03 -2.74138E+04  1.21053E+04 -2.25635E+04  2.24447E+04 -1.16647E+04
  2.13548E+04  8.97882E+01  1.50573E+04  5.07227E+03  8.35202E+03  1.38688E+03  1.21164E+04 -2.18802E+03
  2.11435E+04  2.76573E+03  2.47302E+04  1.78009E+04  1.63924E+04  3.64779E+04 -2.61501E+03  4.25363E+04
 -2.40951E+04  3.50342E+04 -4.02397E+04  1.81599E+04 -4.24584E+04 -3.23759E+03 -3.41169E+04 -2.48193E+04
 -1.37483E+04 -3.54608E+04  1.29029E+04 -3.08555E+04  2.69002E+04 -1.48055E+04  2.35095E+04  7.62827E+03
  7.93538E+03  1.78959E+04 -1.09632E+04  1.50932E+04 -1.97474E+04  3.00166E+03 -1.47969E+04 -1.23913E+04
 -4.43532E+02 -1.87535E+04  1.03086E+04 -1.36741E+04  1.26097E+04 -1.30826E+03  3.31363E+03  8.39674E+03
 -8.26020E+03  3.74695E+03 -8.47843E+03 -6.58946E+03 -1.53268E+03 -1.72964E+04  1.15132E+04 -1.85717E+04
  2.17746E+04 -1.05125E+04  2.41569E+04  3.39226E+03  2.13315E+04  1.72766E+04  9.92956E+03  2.72411E+04
 -5.18254E+03  2.92466E+04 -1.92897E+04  1.82528E+04 -2.10336E+04  3.88757E+03 -1.50285E+04 -5.40142E+03
 -6.13746E+03 -6.65546E+03 -9.31869E+02  4.56748E+02 -3.28653E+03  3.16794E+03 -6.95030E+03  5.20103E+03
 -1.35432E+04 -1.11295E+03 -1.37574E+04 -1.12845E+04 -5.51101E+03 -1.81643E+04  6.33636E+03 -1.48831E+04
  1.20033E+04 -6.19166E+03  8.36815E+03  3.82369E+03  6.78258E+01  5.76193E+03 -7.16865E+03  1.71188E+02
 -6.82363E+03 -9.11841E+03 -7.07078E+02 -1.45981E+04  8.20610E+03 -1.51910E+04  1.85601E+04 -7.97842E+03
  2.21775E+04  2.24602E+03  1.64437E+04  1.32155E+04  2.93314E+03  1.77068E+04 -9.09865E+03  1.45788E+04
 -1.18622E+04  4.16218E+03 -6.18318E+03 -3.09073E+03  2.05649E+03 -4.18564E+03  7.83339E+03 -8.26226E+02
  6.84858E+03  6.72503E+03  1.19493E+03  1.18087E+04 -8.64992E+03  1.11497E+04 -1.43223E+04  2.55394E+03
 -9.84167E+03 -8.02778E+03  5.47965E+02 -1.26209E+04  7.90627E+03 -6.19152E+03  8.32403E+03  2.86604E+03
  2.09245E+03  9.34989E+03 -7.69925E+03  1.03722E+04 -1.23374E+04  4.77409E+03 -1.23462E+04 -4.40485E+03
 -7.30560E+03 -1.43636E+04  3.22951E+03 -1.63188E+04  1.38101E+04 -9.92182E+03  1.53104E+04  2.69471E+03
  9.24918E+03  1.19097E+04 -1.21458E+03  1.43173E+04 -1.08136E+04  8.16938E+03 -1.14354E+04 -1.20707E+03
 -9.69395E+03 -9.31466E+03 -1.90277E+03 -1.07843E+04  6.31312E+03 -8.68513E+03  6.68536E+03 -3.21709E+03
  4.35433E+03  2.15273E+03 -6.79953E+02  1.43059E+03  7.42889E+01 -2.83491E+03  2.13246E+03 -6.51649E+03
  1.00925E+04 -4.18300E+03  1.45399E+04  1.65457E+03  1.38658E+04  9.50774E+03  9.38567E+03  1.86661E+04
 -4.23213E+03  2.14856E+04 -1.79865E+04  1.56104E+04 -2.29932E+04  2.84929E+03 -1.84849E+04 -7.80919E+03
 -9.10101E+03 -1.53714E+04 -3.45061E+02 -1.30282E+04  4.58397E+03 -7.08374E+03  4.63160E+03 -4.97337E+03
  3.46648E+03 -3.07074E+03  3.46294E+03 -3.43354E+03  5.29819E+03 -3.18839E+03  7.36727E+03 -8.14279E+02
  9.53795E+03  2.50269E+03  5.31955E+03  8.40995E+03 -2.19582E+03  9.73444E+03 -1.02352E+04  7.53315E+03
 -1.28594E+04 -1.51516E+03 -7.92355E+03 -8.97764E+03 -1.01436E+03 -1.41174E+04  7.47575E+03 -1.39469E+04
  1.40721E+04 -8.02390E+03  1.69407E+04  2.19547E+03  1.16134E+04  1.18495E+04  2.00971E+03  1.56316E+04
 -6.54730E+03  1.28590E+04 -9.10122E+03  3.94454E+03 -6.45316E+03 -1.67107E+03 -2.24647E+03 -1.77838E+03
 -1.17952E+03 -5.70691E+01 -2.34993E+03  2.97466E+03 -5.45265E+03  1.97752E+03 -9.10817E+03 -9.29562E+02
 -5.99527E+03 -9.03672E+03  2.45836E+01 -1.25101E+04  7.80768E+03 -1.18994E+04  1.23702E+04 -3.85876E+03
  1.25295E+04  6.25883E+03  5.40517E+03  1.14021E+04 -2.54257E+03  1.25299E+04 -9.06627E+03  7.67396E+03
 -1.17899E+04  8.75138E+02 -9.24890E+03 -7.42189E+03 -1.21232E+03 -1.05765E+04  5.42696E+03 -7.57951E+03
  7.86500E+03 -2.94210E+03  5.49282E+03  2.14960E+03  1.96796E+03  3.58023E+03  1.02164E+03  1.43864E+03
  2.22835E+03  1.21165E+03  3.05646E+03  1.15542E+03  3.48974E+03  4.23436E+03  3.28029E+03  6.48014E+03
 -2.27565E+03  9.47742E+03 -8.65615E+03  1.01609E+04 -1.28328E+04  2.84443E+03 -1.32704E+04 -4.96563E+03
 -6.08999E+03 -1.22558E+04  1.86406E+03 -1.37383E+04  7.79180E+03 -8.54315E+03  1.04505E+04 -2.24528E+03
  8.03021E+03  4.52409E+03  1.59192E+03  6.91220E+03 -3.73782E+03  4.69910E+03 -4.95888E+03 -5.91170E+02
 -2.30883E+03 -5.25225E+03  3.04316E+03 -5.24782E+03  5.04633E+03 -2.38108E+03  4.89089E+03  1.33627E+03
  3.11432E+03  2.23277E+03  1.54794E+03  2.02640E+03 -1.00818E+03  1.88470E+03  1.78281E+03 -3.30527E+02
  1.59693E+03 -8.17598E+02  4.83186E+03  1.92533E+03  2.76725E+03  6.98021E+03 -1.08572E+03  8.79520E+03
 -5.77556E+03  5.72038E+03 -8.00771E+03  1.38917E+03 -7.20815E+03 -2.53943E+03 -3.03594E+03 -4.81669E+03
  7.02485E+02 -4.83545E+03  3.46259E+03 -2.42374E+03  2.70900E+03  2.63570E+03 -1.09291E+03  4.00670E+03
 -5.04598E+03  2.26355E+03 -5.85947E+03 -3.10738E+03 -3.42579E+03 -6.62987E+03  9.00218E+02 -7.08990E+03
  3.85487E+03 -4.29636E+03  5.02948E+03 -5.71926E+02  4.41611E+03  1.54131E+03  6.31975E+02  3.59421E+03
 -2.45994E+03  9.82579E+02 -3.10340E+03 -2.15815E+03  1.28703E+03 -4.83161E+03  5.92369E+03 -4.23432E+03
  7.19443E+03  4.88102E+02  7.69744E+03  4.79671E+03  2.81915E+03  7.94976E+03 -2.99539E+03  7.29264E+03
 -6.40952E+03  3.16262E+03 -6.44984E+03 -1.15658E+03 -3.32855E+03 -5.18204E+03  8.22501E+02 -4.72348E+03
  5.10147E+03 -2.36070E+03  4.06695E+03  1.96780E+03  1.17685E+03  4.44530E+03 -1.02308E+03  3.40695E+03
 -1.96262E+03  2.53462E+03 -1.86581E+03  5.02483E+02 -7.34332E+02  1.12230E+03 -1.44079E+03  1.31875E+03
 -2.11344E+03  3.11624E+03 -5.03425E+03  2.40040E+03 -7.62926E+03  3.91550E+02 -8.72414E+03 -5.53358E+03
 -4.64683E+03 -1.01409E+04  1.84283E+03 -1.18684E+04  7.16893E+03 -9.53284E+03  1.12065E+04 -4.07206E+03
  1.02109E+04  1.88708E+03  6.51906E+03  7.03748E+03  2.24607E+02  7.83323E+03 -3.48843E+03  5.81877E+03
 -4.49589E+03  1.82108E+03 -2.83293E+03 -1.00273E+03 -1.26224E+03 -6.98876E+02 -1.06174E+03  1.30758E+02
 -1.41538E+03 -7.92657E+01 -1.70589E+03 -9.88509E+01 -4.03432E+01 -1.93116E+03 -1.68819E+02 -3.01630E+03
  3.41437E+03 -2.63816E+03  4.66123E+03  9.57837E+01  5.81656E+03  4.12232E+03  8.71608E+02  7.99646E+03
 -3.91265E+03  9.14011E+03 -8.58169E+03  5.30574E+03 -9.61356E+03 -5.84810E+02 -6.68631E+03 -5.84331E+03
 -3.37814E+03 -7.26268E+03  1.59384E+03 -7.32108E+03  5.19659E+03 -4.14959E+03  4.94809E+03  2.00093E+02
  2.61379E+03  2.67482E+03 -4.27532E+02  1.99475E+03 -1.62955E+03  6.66514E+01  3.66165E+00 -1.59951E+03
  2.46612E+03 -1.06649E+03  3.10976E+03  8.17259E+02  1.92535E+03  3.52952E+03  3.09947E+02  3.66666E+03
 -3.20981E+03  3.48147E+03 -4.97808E+03  3.29303E+02 -4.54949E+03 -3.77726E+03 -3.20184E+02 -6.06873E+03
  3.49067E+03 -5.09317E+03  5.58622E+03 -1.75243E+03  5.53160E+03  1.17574E+03  3.17993E+03  4.88898E+03
  6.21866E+02  5.12337E+03 -2.07014E+03  4.02577E+03 -3.11187E+03  2.26573E+03 -2.76868E+03  2.23929E+02
 -1.23944E+03 -1.49658E+02 -1.07564E+03  7.17802E+02 -2.56763E+03  8.67406E+02 -4.06512E+03 -7.21628E+02
 -3.53044E+03 -2.47604E+03 -9.76060E+02 -5.17410E+03  2.65863E+03 -5.14385E+03  4.48517E+03 -2.32894E+03
  4.82558E+03  7.33333E+02  2.44116E+03  3.44915E+03 -2.10675E+02  4.89236E+03 -3.77833E+03  3.00348E+03
