 $NMID ID='MM_0lb_SNR800_17hz_g55_70.RAW', FMTDAT='(8E13.5)'
 TRAMP=1., VOLUME=1. $END
  3.10126E+05  6.21802E+02  3.37620E+05  2.50611E+05  8.46874E+04  3.37854E+05 -1.32820E+05  2.50685E+05
 -1.89952E+05  8.32149E+04 -1.11631E+05 -3.27054E+04  1.14154E+03 -5.05584E+04  5.39300E+04 -1.35710E+02
  3.52222E+04  5.27257E+04 -1.69673E+04  7.53190E+04 -6.08672E+04  6.34288E+04 -8.35372E+04  3.20228E+04
 -8.03421E+04 -1.14158E+04 -5.69330E+04 -5.09377E+04 -1.52132E+04 -6.91294E+04  2.73076E+04 -4.56609E+04
  3.96007E+04  3.63206E+03  1.57129E+04  4.76017E+04 -3.45857E+04  4.70329E+04 -6.63354E+04 -4.93294E+02
 -5.29030E+04 -5.67114E+04 -6.65906E+03 -7.61417E+04  3.34752E+04 -5.41923E+04  4.75263E+04 -1.68693E+04
  4.26823E+04  1.14639E+04  3.16493E+04  2.54831E+04  1.56442E+04  2.89352E+04 -4.95573E+03  2.67219E+04
 -2.22604E+04  1.26843E+04 -1.89052E+04 -4.72688E+03  5.35624E+03 -7.19320E+03  2.20512E+04  1.19514E+04
  7.22532E+03  3.45339E+04 -3.17157E+04  3.49292E+04 -6.26532E+04  2.10299E+03 -5.65883E+04 -4.21822E+04
 -1.21982E+04 -6.22165E+04  3.92499E+04 -4.48978E+04  5.73698E+04 -2.11621E+03  3.35459E+04  3.18907E+04
 -6.08249E+03  3.52483E+04 -2.92654E+04  1.49401E+04 -2.92913E+04 -4.80363E+03 -1.58580E+04 -1.04287E+04
 -8.01886E+03 -1.21500E+04 -6.96141E+02 -1.75731E+04  7.31924E+03 -2.29449E+04  1.52011E+04 -1.37496E+04
  1.15591E+04  4.75877E+03 -7.52077E+03  1.32028E+04 -2.05306E+04 -3.69232E+03 -8.22533E+03 -3.23646E+04
  2.21610E+04 -4.22577E+04  4.66539E+04 -1.93473E+04  4.40266E+04  1.86783E+04  1.53782E+04  4.32575E+04
 -1.57320E+04  3.28772E+04 -2.47921E+04  1.47061E+03 -8.83064E+03 -2.72496E+04  2.09005E+04 -3.25931E+04
  3.97607E+04 -8.48222E+03  3.39723E+04  2.32197E+04  1.69311E+04  4.49941E+04 -7.63643E+03  4.82714E+04
 -3.06355E+04  3.21682E+04 -3.99981E+04  8.82372E+03 -4.07688E+04 -1.60092E+04 -2.26377E+04 -3.66524E+04
  7.01770E+03 -3.62648E+04  3.04287E+04 -1.41884E+04  2.83478E+04  1.09013E+04  3.39706E+03  1.85669E+04
 -1.32957E+04  8.05341E+03 -1.00703E+04 -7.93309E+03  5.96146E+03 -1.03882E+04  1.73543E+04  6.51502E+03
  1.27690E+04  2.19000E+04 -6.19912E+03  2.42827E+04 -2.23228E+04  1.03169E+04 -2.64818E+04 -5.41808E+03
 -1.86829E+04 -1.67897E+04 -6.88674E+03 -1.88659E+04  4.00436E+03 -1.77104E+04  1.39162E+04 -1.67680E+04
  2.39519E+04 -1.20800E+04  3.05623E+04  1.93186E+03  2.28124E+04  1.85356E+04  4.20049E+03  3.46663E+04
 -1.69741E+04  2.91856E+04 -2.70681E+04  1.02508E+04 -2.01326E+04 -1.03290E+04 -4.06006E+03 -1.34822E+04
  2.37024E+03 -3.14474E+03 -3.80514E+03  6.07825E+03 -1.47125E+04  5.11239E+03 -1.47433E+04 -6.23180E+03
 -9.35384E+03 -1.71815E+04  4.95059E+03 -2.14177E+04  1.40787E+04 -1.51812E+04  1.64532E+04 -1.34446E+03
  1.00896E+04  1.20120E+04 -8.55562E+02  1.74881E+04 -1.18229E+04  9.91472E+03 -1.72837E+04 -3.91613E+03
 -1.25776E+04 -1.57818E+04 -1.35228E+03 -2.12427E+04  9.83953E+03 -1.70902E+04  1.76785E+04 -8.44181E+03
  1.64122E+04  6.34127E+02  1.16969E+04  4.26863E+03  6.04731E+03  5.90247E+02  8.44332E+03 -1.31661E+03
  1.55053E+04  2.45048E+03  1.73319E+04  1.40974E+04  1.09420E+04  2.76253E+04 -3.01922E+03  3.02582E+04
 -1.75519E+04  2.40686E+04 -2.83684E+04  1.15846E+04 -2.92060E+04 -2.06232E+03 -2.41356E+04 -1.68570E+04
 -1.09804E+04 -2.41087E+04  8.17882E+03 -2.20908E+04  1.89885E+04 -1.18174E+04  1.72666E+04  4.50606E+03
  6.73784E+03  1.25749E+04 -8.11807E+03  1.15067E+04 -1.48961E+04  2.46309E+03 -1.15052E+04 -9.19348E+03
 -2.42358E+02 -1.36846E+04  7.13059E+03 -1.04818E+04  9.21510E+03 -1.57899E+03  1.69115E+03  5.91124E+03
 -6.12206E+03  1.99448E+03 -4.87197E+03 -5.19146E+03 -1.14000E+02 -1.15892E+04  9.00767E+03 -1.20061E+04
  1.42547E+04 -6.18066E+03  1.49311E+04  2.66379E+03  1.28246E+04  1.12181E+04  6.13819E+03  1.68283E+04
 -2.35585E+03  1.88834E+04 -1.16784E+04  1.19529E+04 -1.29569E+04  2.95397E+03 -9.58829E+03 -2.82158E+03
 -4.85897E+03 -4.28086E+03 -7.00508E+02  1.23584E+03 -2.19124E+03  2.21816E+03 -4.53271E+03  4.00169E+03
 -9.06887E+03 -4.28412E+02 -9.79628E+03 -8.05724E+03 -3.85314E+03 -1.29007E+04  4.11364E+03 -9.85560E+03
  8.28382E+03 -4.04561E+03  5.95634E+03  2.48118E+03  3.86288E+02  3.47488E+03 -4.11714E+03 -6.53116E+01
 -4.28767E+03 -6.06898E+03 -8.58203E+02 -8.92995E+03  5.08823E+03 -9.88307E+03  1.15486E+04 -4.80996E+03
  1.38433E+04  8.97203E+02  1.02712E+04  7.78287E+03  1.93939E+03  1.02814E+04 -5.76812E+03  9.48233E+03
 -7.88308E+03  3.13925E+03 -3.95564E+03 -1.39290E+03  1.43034E+03 -2.34190E+03  5.09015E+03 -8.69365E+02
  4.64205E+03  3.99030E+03  1.34154E+03  7.23199E+03 -4.84985E+03  7.20382E+03 -9.13574E+03  1.78467E+03
 -5.74133E+03 -4.41210E+03  2.42139E+02 -7.93487E+03  4.36367E+03 -3.68482E+03  4.46909E+03  1.25654E+03
  7.20633E+02  4.43932E+03 -4.62317E+03  6.04991E+03 -6.42355E+03  2.91806E+03 -6.01154E+03 -1.92290E+03
 -3.77736E+03 -7.55221E+03  1.58292E+03 -8.75102E+03  7.61118E+03 -5.50889E+03  7.83583E+03  1.01863E+03
  5.33046E+03  6.56703E+03  5.75052E+00  8.61372E+03 -6.09711E+03  4.86841E+03 -6.62951E+03 -7.49063E+02
 -6.62408E+03 -5.83913E+03 -1.51546E+03 -5.70867E+03  2.93756E+03 -5.47210E+03  3.25267E+03 -3.12006E+03
  3.01491E+03  7.17007E+02 -1.97447E+02  1.32597E+03  3.46151E+02 -5.48201E+02  5.42547E+02 -2.56729E+03
  4.91242E+03 -1.03988E+03  6.69450E+03  9.17756E+02  7.04936E+03  4.15040E+03  5.74027E+03  9.31527E+03
 -1.81141E+03  1.04348E+04 -9.57777E+03  8.33690E+03 -1.20846E+04  1.57457E+03 -9.48183E+03 -3.45968E+03
 -5.14134E+03 -8.14793E+03 -6.36426E+02 -6.49890E+03  2.70120E+03 -3.18680E+03  2.27743E+03 -2.66805E+03
  1.78743E+03 -1.85030E+03  2.43241E+03 -2.45423E+03  3.84851E+03 -1.73193E+03  4.02277E+03  1.47315E+02
  5.35955E+03  1.16202E+03  1.55703E+03  4.07994E+03 -1.76771E+03  3.92921E+03 -5.53462E+03  3.46705E+03
 -6.20677E+03 -1.17007E+03 -2.60017E+03 -4.26572E+03  4.05804E+02 -6.36761E+03  3.89011E+03 -6.62761E+03
  6.52184E+03 -4.05874E+03  8.21399E+03  7.30631E+02  5.99023E+03  5.39727E+03  1.00471E+03  7.29871E+03
 -2.76052E+03  7.00288E+03 -4.22615E+03  2.06083E+03 -2.52093E+03 -1.12650E+03 -9.71856E+02 -8.07433E+02
 -4.75515E+02  3.31071E+02 -1.10474E+03  1.94127E+03 -2.83633E+03  1.51851E+03 -4.73136E+03 -4.87409E+02
 -2.38863E+03 -4.76876E+03  8.86843E+02 -5.93195E+03  3.57377E+03 -5.69739E+03  4.85554E+03 -1.69320E+03
  5.28852E+03  2.85050E+03  2.56015E+03  4.66225E+03 -1.06260E+03  5.77420E+03 -3.76086E+03  3.44121E+03
 -4.95851E+03  2.94017E+02 -4.16240E+03 -3.09555E+03 -3.88789E+02 -4.16802E+03  2.36843E+03 -3.22770E+03
  3.49838E+03 -1.15875E+03  2.59071E+03  6.26411E+02  5.59773E+02  1.78950E+03  9.75574E+02  6.22547E+02
  1.70057E+03  5.90999E+02  1.66089E+03  9.10740E+02  1.51721E+03  2.34896E+03  1.80997E+03  2.36359E+03
 -1.33490E+03  3.83475E+03 -3.40701E+03  4.93785E+03 -4.24965E+03  1.54117E+03 -5.47829E+03 -1.14328E+03
 -2.51021E+03 -4.78418E+03  7.14965E+02 -5.75191E+03  2.56853E+03 -3.34652E+03  3.76257E+03 -9.49877E+02
  2.87889E+03  2.37282E+03  5.86793E+02  2.89360E+03 -1.09445E+03  1.61904E+03 -1.44015E+03 -4.55855E+02
 -6.87205E+02 -2.16349E+03  1.50417E+03 -1.98784E+03  1.81798E+03 -1.12482E+03  1.46396E+03  4.06751E+02
  9.61200E+02  4.36952E+02  6.20299E+02  3.74560E+02 -3.73067E+02  9.24141E+02  1.61844E+03 -1.84668E+02
  2.68674E+02 -1.75577E+02  2.23687E+03  1.22296E+03  7.47023E+02  2.80898E+03 -3.68280E+02  3.45559E+03
 -2.51253E+03  1.51538E+03 -2.61575E+03  5.25728E+02 -2.85533E+03 -9.82131E+02 -5.23550E+02 -1.56637E+03
  5.09554E+02 -1.60756E+03  1.01308E+03 -8.15364E+02  8.68959E+02  1.52907E+03 -5.92268E+02  1.52481E+03
 -1.95957E+03  1.09216E+03 -1.70492E+03 -1.63261E+03 -9.47021E+02 -2.64926E+03  1.59739E+02 -2.27295E+03
  8.09081E+02 -1.07547E+03  1.22033E+03  1.93920E+02  1.33708E+03 -9.13284E+01  1.63072E+02  1.18833E+03
 -5.79404E+02  3.53629E+02 -9.67995E+02 -3.66828E+02  3.73180E+02 -1.08410E+03  2.06120E+03 -1.22390E+03
  1.76493E+03  4.38355E+02  3.18572E+03  1.18785E+03  1.00240E+03  2.17531E+03 -4.48952E+02  2.47422E+03
 -1.78475E+03  5.17175E+02 -2.14595E+03 -3.59515E+02 -1.04329E+03 -1.54488E+03  5.00345E+02 -1.02617E+03
  2.05042E+03 -7.55091E+02  9.05455E+02  9.01510E+02  2.34468E+02  1.48914E+03  6.14039E+01  1.42809E+03
 -5.87163E+02  1.38013E+03 -3.45183E+02  2.54810E+02 -1.80487E+02  4.88181E+02 -9.40879E+02  4.17743E+02
 -6.45302E+02  1.37261E+03 -2.15404E+03  5.79521E+02 -2.21099E+03  2.66035E+02 -2.93177E+03 -1.58523E+03
 -1.67915E+03 -3.13623E+03  6.61642E+02 -3.69878E+03  1.80621E+03 -2.91964E+03  3.62697E+03 -1.63544E+03
  3.32862E+03  5.68090E+01  1.56592E+03  2.23008E+03 -6.23415E+02  1.92195E+03 -1.15888E+03  1.84950E+03
 -1.25712E+03  8.17585E+02 -5.55917E+02 -3.33049E+02 -4.46673E+02  1.70138E+02 -5.61796E+02  1.12044E+01
 -1.09090E+03 -7.77394E+01 -1.06303E+03 -3.38137E+01  1.90931E+02 -9.44350E+02 -3.27933E+02 -9.47451E+02
  1.31417E+03 -1.02636E+03  4.90778E+02  1.90521E+01  1.61176E+03  1.14436E+03 -1.15557E+02  1.74148E+03
 -1.38038E+03  3.05209E+03 -2.20719E+03  1.52863E+03 -2.39220E+03 -2.29954E+02 -1.76376E+03 -1.49429E+03
 -1.16332E+03 -1.87834E+03  1.27669E+02 -1.86967E+03  9.85740E+02 -6.59822E+02  9.02763E+02 -5.51053E+01
  9.30639E+02  4.86517E+02 -1.16111E+02  1.29081E+02 -5.74458E+02  1.47828E+02 -2.93133E+02 -5.04890E+02
  4.54124E+02 -9.34448E+00  5.96395E+02  5.77428E+02  1.49606E+02  7.05437E+02  5.24250E+02  1.93909E+02
 -8.16359E+02  1.01075E+03 -9.00923E+02 -1.30450E+02 -1.23429E+03 -5.24190E+02  3.62070E+02 -1.49385E+03
  5.27380E+02 -1.24356E+03  1.03151E+03 -8.37899E+01  1.51963E+03 -6.64008E+02  6.85587E+02  1.10868E+03
  1.61929E+02  1.14385E+03 -2.32967E+02  7.73755E+02 -6.22395E+02  6.59092E+02 -4.39782E+02  3.58560E+01
 -2.66054E+02  2.60585E+02 -2.12838E+02  4.33974E+02 -5.05970E+02  2.92775E+02 -8.33683E+02 -3.38426E+02
 -1.18113E+03 -1.99881E+02 -3.80252E+02 -1.21218E+03  8.45967E+02 -1.74759E+03  1.03984E+03 -2.35490E+02
  1.09262E+03  1.25157E+02 -2.14169E+01  5.62769E+02 -3.25766E+01  1.21857E+03 -6.26077E+02  7.31513E+02
