 $NMID ID='MM_0lb_SNR800_10hz_g45_11.RAW', FMTDAT='(8E13.5)'
 TRAMP=1., VOLUME=1. $END
  3.09627E+05  1.20019E+02  3.37711E+05  2.51174E+05  8.47559E+04  3.38327E+05 -1.32608E+05  2.51504E+05
 -1.90436E+05  8.39004E+04 -1.12138E+05 -3.24812E+04  7.17602E+02 -5.05088E+04  5.36412E+04 -6.14957E+02
  3.55737E+04  5.28732E+04 -1.69026E+04  7.59233E+04 -6.13730E+04  6.41537E+04 -8.49227E+04  3.25986E+04
 -8.20285E+04 -1.19633E+04 -5.78656E+04 -5.20548E+04 -1.49573E+04 -7.04535E+04  2.80647E+04 -4.63819E+04
  4.08171E+04  3.73505E+03  1.64608E+04  4.84461E+04 -3.43966E+04  4.77450E+04 -6.75771E+04 -1.97889E+02
 -5.43365E+04 -5.77971E+04 -7.26755E+03 -7.83419E+04  3.44290E+04 -5.66312E+04  4.93756E+04 -1.83215E+04
  4.43088E+04  1.13731E+04  3.22806E+04  2.64242E+04  1.57640E+04  3.05807E+04 -5.60016E+03  2.78182E+04
 -2.25431E+04  1.18660E+04 -1.84188E+04 -5.23945E+03  6.57078E+03 -7.70439E+03  2.31575E+04  1.34707E+04
  7.37189E+03  3.69409E+04 -3.33021E+04  3.63076E+04 -6.48540E+04  2.25102E+03 -5.82462E+04 -4.37988E+04
 -1.26635E+04 -6.49071E+04  4.11914E+04 -4.70659E+04  5.99566E+04 -2.09429E+03  3.56250E+04  3.39191E+04
 -5.71339E+03  3.82861E+04 -3.14376E+04  1.73353E+04 -3.21307E+04 -3.64602E+03 -1.84392E+04 -1.15982E+04
 -8.95408E+03 -1.44543E+04 -7.16998E+02 -1.90043E+04  7.91957E+03 -2.34463E+04  1.54193E+04 -1.31040E+04
  1.10359E+04  5.80704E+03 -9.64539E+03  1.29527E+04 -2.27463E+04 -6.35467E+03 -8.41940E+03 -3.60727E+04
  2.45099E+04 -4.59947E+04  5.08623E+04 -2.01261E+04  4.75400E+04  2.02874E+04  1.68121E+04  4.63368E+04
 -1.66383E+04  3.53630E+04 -2.68997E+04  2.48640E+03 -1.09421E+04 -2.91380E+04  2.18118E+04 -3.60399E+04
  4.35218E+04 -1.04068E+04  3.87563E+04  2.47412E+04  1.97243E+04  4.98073E+04 -8.43866E+03  5.42753E+04
 -3.41996E+04  3.66450E+04 -4.62755E+04  1.08710E+04 -4.63906E+04 -1.79532E+04 -2.52166E+04 -4.06062E+04
  8.18743E+03 -4.05134E+04  3.35160E+04 -1.60795E+04  3.10183E+04  1.08379E+04  5.39695E+03  2.01138E+04
 -1.36290E+04  9.47706E+03 -1.10157E+04 -7.64678E+03  5.77009E+03 -1.13059E+04  1.83225E+04  5.86471E+03
  1.42132E+04  2.24967E+04 -5.57513E+03  2.63101E+04 -2.30659E+04  1.38174E+04 -3.08450E+04 -3.51676E+03
 -2.38628E+04 -1.80093E+04 -1.04326E+04 -2.36807E+04  3.77792E+03 -2.42015E+04  1.85633E+04 -2.14796E+04
  3.05129E+04 -1.33682E+04  3.65988E+04  4.04332E+03  2.59811E+04  2.27277E+04  4.32859E+03  3.94788E+04
 -1.89795E+04  3.27287E+04 -2.96122E+04  1.13207E+04 -2.18302E+04 -1.01634E+04 -4.64452E+03 -1.30265E+04
  8.48643E+02 -1.65534E+03 -6.67039E+03  7.86074E+03 -1.90318E+04  5.41235E+03 -1.87617E+04 -8.84226E+03
 -1.13652E+04 -2.20510E+04  6.30800E+03 -2.63840E+04  1.78680E+04 -1.91147E+04  2.12269E+04 -1.93661E+03
  1.35840E+04  1.53741E+04 -9.45782E+02  2.19173E+04 -1.58405E+04  1.25561E+04 -2.23128E+04 -4.33776E+03
 -1.64205E+04 -1.97582E+04 -2.04030E+03 -2.63574E+04  1.22751E+04 -2.20027E+04  2.22473E+04 -1.13045E+04
  2.06885E+04 -1.49738E+02  1.53330E+04  4.97646E+03  7.93635E+03  1.37019E+03  1.10818E+04 -2.20180E+03
  2.08336E+04  2.98456E+03  2.37479E+04  1.73336E+04  1.64327E+04  3.54472E+04 -2.59955E+03  4.11292E+04
 -2.34288E+04  3.41495E+04 -3.82999E+04  1.78047E+04 -4.13896E+04 -3.03674E+03 -3.39436E+04 -2.39956E+04
 -1.38242E+04 -3.45728E+04  1.22463E+04 -2.99250E+04  2.58943E+04 -1.43488E+04  2.27592E+04  6.96221E+03
  7.65997E+03  1.73598E+04 -1.08728E+04  1.42193E+04 -1.89690E+04  2.50816E+03 -1.46820E+04 -1.19582E+04
 -6.94917E+02 -1.79169E+04  9.98134E+03 -1.32383E+04  1.21358E+04 -1.22623E+03  2.82754E+03  8.09506E+03
 -8.02419E+03  3.64708E+03 -8.35128E+03 -6.62438E+03 -1.84921E+03 -1.68489E+04  1.08240E+04 -1.81381E+04
  2.11966E+04 -9.94323E+03  2.34220E+04  3.12162E+03  2.06528E+04  1.66023E+04  8.93042E+03  2.66338E+04
 -4.85931E+03  2.84135E+04 -1.86087E+04  1.76720E+04 -2.05820E+04  4.09138E+03 -1.40827E+04 -4.82510E+03
 -6.43315E+03 -6.62659E+03 -9.06682E+02  6.01901E+02 -2.79582E+03  3.04797E+03 -6.52336E+03  5.06108E+03
 -1.34629E+04 -9.28028E+02 -1.36311E+04 -1.07914E+04 -5.53022E+03 -1.81599E+04  5.75874E+03 -1.44633E+04
  1.15801E+04 -6.16889E+03  8.26848E+03  3.63549E+03 -2.60486E+02  5.80375E+03 -7.27339E+03 -4.07233E+02
 -7.10238E+03 -9.11016E+03 -1.32572E+03 -1.42478E+04  8.53853E+03 -1.51936E+04  1.82076E+04 -8.64002E+03
  2.13838E+04  2.25788E+03  1.57370E+04  1.29868E+04  3.15785E+03  1.72942E+04 -8.70274E+03  1.42932E+04
 -1.15225E+04  4.44075E+03 -5.97611E+03 -3.22197E+03  2.33266E+03 -3.88505E+03  7.77418E+03 -1.10705E+03
  6.87350E+03  6.49127E+03  9.72795E+02  1.13373E+04 -8.45965E+03  1.10895E+04 -1.38474E+04  2.88116E+03
 -9.60293E+03 -7.49449E+03  4.78742E+02 -1.20087E+04  7.84496E+03 -6.28717E+03  8.22354E+03  3.03869E+03
  1.98981E+03  8.95516E+03 -7.64744E+03  1.05088E+04 -1.18448E+04  4.80265E+03 -1.24970E+04 -3.97406E+03
 -6.91445E+03 -1.38554E+04  3.74364E+03 -1.62022E+04  1.37100E+04 -9.89477E+03  1.49883E+04  2.69591E+03
  9.17464E+03  1.16963E+04 -1.53026E+03  1.41474E+04 -1.05079E+04  8.17051E+03 -1.10273E+04 -1.18877E+03
 -9.66707E+03 -9.70133E+03 -1.44987E+03 -1.07447E+04  5.51396E+03 -8.89554E+03  7.01783E+03 -3.31995E+03
  4.41393E+03  2.02992E+03 -6.55351E+02  1.80359E+03 -2.74592E+02 -2.91653E+03  1.98469E+03 -6.78451E+03
  1.03277E+04 -4.01171E+03  1.43077E+04  1.79331E+03  1.37624E+04  9.41737E+03  9.41179E+03  1.85180E+04
 -4.54720E+03  2.12796E+04 -1.74389E+04  1.56927E+04 -2.27693E+04  2.94759E+03 -1.82603E+04 -7.74677E+03
 -9.21292E+03 -1.47437E+04 -5.10653E+02 -1.27190E+04  4.57087E+03 -7.26597E+03  4.05275E+03 -4.54344E+03
  3.44581E+03 -2.75882E+03  3.67964E+03 -3.61643E+03  5.54195E+03 -3.34419E+03  7.26603E+03 -8.74977E+02
  9.60886E+03  2.05885E+03  4.93887E+03  7.99646E+03 -2.14140E+03  9.76540E+03 -9.81475E+03  7.51190E+03
 -1.27866E+04 -1.22784E+03 -8.18408E+03 -8.58535E+03 -1.31478E+03 -1.36529E+04  7.46113E+03 -1.37499E+04
  1.40848E+04 -7.65639E+03  1.73470E+04  2.22840E+03  1.21821E+04  1.22898E+04  1.94028E+03  1.51860E+04
 -6.29941E+03  1.28231E+04 -8.79205E+03  4.67027E+03 -5.89808E+03 -1.31865E+03 -2.55716E+03 -1.82137E+03
 -1.35796E+03  2.57246E+02 -2.01473E+03  2.71634E+03 -5.62126E+03  2.33365E+03 -9.08228E+03 -1.45124E+03
 -6.36306E+03 -8.97485E+03  1.05001E+02 -1.32505E+04  7.71168E+03 -1.15962E+04  1.25894E+04 -3.11040E+03
  1.25141E+04  6.34372E+03  5.78701E+03  1.18403E+04 -2.26669E+03  1.24823E+04 -9.01597E+03  8.23968E+03
 -1.23926E+04  3.11936E+02 -9.03783E+03 -7.79060E+03 -9.60538E+02 -1.02644E+04  5.56225E+03 -7.70366E+03
  8.10190E+03 -2.70006E+03  5.45804E+03  2.16315E+03  2.29391E+03  4.14924E+03  1.53704E+03  1.91699E+03
  2.70113E+03  1.23803E+03  3.28594E+03  1.62526E+03  3.60984E+03  4.65560E+03  3.26186E+03  6.80198E+03
 -2.56338E+03  1.02758E+04 -8.65090E+03  1.00859E+04 -1.28565E+04  2.70605E+03 -1.31845E+04 -4.98084E+03
 -6.26867E+03 -1.29798E+04  2.20368E+03 -1.40642E+04  7.92888E+03 -8.83381E+03  1.06820E+04 -2.77591E+03
  8.19707E+03  4.49148E+03  2.04806E+03  7.77019E+03 -3.53303E+03  4.85905E+03 -5.33506E+03 -6.83667E+02
 -2.72646E+03 -5.33331E+03  3.47871E+03 -5.99399E+03  5.25836E+03 -2.61389E+03  5.40628E+03  1.17796E+03
  3.23616E+03  2.64731E+03  1.58425E+03  2.28622E+03 -8.11941E+02  1.85355E+03  1.80819E+03 -2.77207E+02
  1.89176E+03 -6.72565E+02  5.08164E+03  2.34580E+03  2.96985E+03  6.68693E+03 -1.11983E+03  9.31891E+03
 -5.76030E+03  6.02296E+03 -8.07565E+03  1.55845E+03 -7.01191E+03 -2.75005E+03 -2.77612E+03 -4.60611E+03
  6.76112E+02 -5.13217E+03  3.68107E+03 -2.39586E+03  2.87444E+03  2.88197E+03 -1.26396E+03  4.32664E+03
 -5.07643E+03  2.71286E+03 -6.17898E+03 -3.12762E+03 -3.15830E+03 -7.01352E+03  1.43740E+03 -7.49605E+03
  3.93575E+03 -4.17381E+03  5.08285E+03 -7.73812E+02  4.52259E+03  2.05043E+03  5.60555E+02  3.85077E+03
 -2.26483E+03  1.07362E+03 -3.33153E+03 -2.17280E+03  1.11929E+03 -5.50741E+03  6.18594E+03 -4.41091E+03
  7.80255E+03  2.59664E+02  7.91838E+03  5.70509E+03  2.91850E+03  8.08384E+03 -2.76140E+03  7.85931E+03
 -6.78989E+03  3.33701E+03 -6.80095E+03 -1.02506E+03 -3.82858E+03 -5.64053E+03  1.09588E+03 -4.91430E+03
  5.18128E+03 -2.25223E+03  4.26130E+03  2.33481E+03  1.47537E+03  4.64052E+03 -6.67411E+02  4.23383E+03
 -1.92172E+03  2.62591E+03 -1.51002E+03  9.18021E+02 -1.08052E+03  7.96000E+02 -1.58216E+03  1.58965E+03
 -2.24141E+03  2.92780E+03 -5.76213E+03  2.42147E+03 -8.31638E+03  3.21844E+02 -9.41539E+03 -5.29702E+03
 -4.69976E+03 -1.10475E+04  2.36605E+03 -1.24849E+04  7.77838E+03 -1.00837E+04  1.22475E+04 -3.66983E+03
  1.14854E+04  2.13433E+03  6.82787E+03  7.69978E+03  2.92509E+02  8.85862E+03 -3.49645E+03  6.30921E+03
 -4.94488E+03  2.21260E+03 -3.01334E+03 -1.66784E+03 -1.04927E+03 -7.66368E+02 -3.52711E+02  2.05666E+02
 -1.56264E+03  3.57160E+02 -2.18243E+03 -4.31486E+02 -4.82365E+02 -2.31063E+03  6.83111E+01 -3.06929E+03
  4.06403E+03 -2.36134E+03  5.05028E+03  1.85776E+02  6.20205E+03  4.65286E+03  1.65087E+03  8.43881E+03
 -4.05865E+03  9.87185E+03 -9.10092E+03  5.67356E+03 -1.02926E+04 -7.52913E+02 -7.46267E+03 -6.45069E+03
 -3.38911E+03 -8.91526E+03  2.18433E+03 -8.26998E+03  5.32063E+03 -4.17342E+03  5.65643E+03  4.02860E+02
  3.23171E+03  2.58454E+03 -2.40815E+02  2.38768E+03 -1.38470E+03 -6.90221E+01 -8.37409E+00 -1.80194E+03
  2.53279E+03 -8.81330E+02  3.39610E+03  9.87479E+02  2.60899E+03  3.76994E+03  1.72373E+02  4.00654E+03
 -3.59384E+03  3.82774E+03 -5.72932E+03  6.76648E+02 -4.87781E+03 -3.80056E+03 -5.66517E+02 -7.31854E+03
  4.04804E+03 -6.12709E+03  6.13074E+03 -1.72211E+03  6.51743E+03  1.73123E+03  3.35999E+03  4.92016E+03
  6.85040E+02  5.78439E+03 -2.13928E+03  4.70514E+03 -3.59535E+03  2.43468E+03 -2.81259E+03  5.13453E+02
 -1.47438E+03  1.21649E+02 -1.53511E+03  5.58135E+02 -2.90423E+03  1.14905E+03 -4.41713E+03 -9.53942E+02
 -3.97321E+03 -2.92636E+03 -1.21566E+03 -5.80910E+03  2.72423E+03 -5.79678E+03  4.91463E+03 -2.52880E+03
  5.43023E+03  5.61701E+02  3.17481E+03  3.60974E+03 -3.72814E+02  5.61594E+03 -4.13915E+03  3.36220E+03
