 $NMID ID='MM_0lb_SNR800_13hz_g40_13.RAW', FMTDAT='(8E13.5)'
 TRAMP=1., VOLUME=1. $END
  3.09825E+05  3.91494E+02  3.37567E+05  2.50680E+05  8.47992E+04  3.38049E+05 -1.32376E+05  2.51365E+05
 -1.89999E+05  8.31928E+04 -1.11704E+05 -3.27057E+04  8.37233E+02 -5.03285E+04  5.34474E+04  8.12866E+01
  3.53987E+04  5.30048E+04 -1.65784E+04  7.55172E+04 -6.06922E+04  6.35774E+04 -8.40252E+04  3.20324E+04
 -8.07957E+04 -1.16075E+04 -5.72287E+04 -5.13870E+04 -1.51227E+04 -6.96223E+04  2.73340E+04 -4.58381E+04
  3.97090E+04  4.03043E+03  1.60830E+04  4.78713E+04 -3.39661E+04  4.68878E+04 -6.68320E+04 -1.55774E+02
 -5.35925E+04 -5.67426E+04 -6.82477E+03 -7.71193E+04  3.37624E+04 -5.51124E+04  4.78521E+04 -1.72442E+04
  4.31299E+04  1.12364E+04  3.18565E+04  2.54562E+04  1.57309E+04  2.94375E+04 -4.95706E+03  2.70859E+04
 -2.24577E+04  1.22525E+04 -1.88549E+04 -5.26204E+03  5.68471E+03 -6.99854E+03  2.21423E+04  1.23305E+04
  7.15090E+03  3.50901E+04 -3.18589E+04  3.54468E+04 -6.35892E+04  2.21514E+03 -5.69805E+04 -4.24488E+04
 -1.23405E+04 -6.31372E+04  3.98732E+04 -4.50186E+04  5.79291E+04 -2.09552E+03  3.40343E+04  3.20809E+04
 -6.30225E+03  3.59117E+04 -3.01958E+04  1.55544E+04 -3.02481E+04 -4.03657E+03 -1.65486E+04 -1.10370E+04
 -8.25590E+03 -1.31622E+04 -9.71180E+02 -1.81429E+04  7.85373E+03 -2.27857E+04  1.56643E+04 -1.36545E+04
  1.13075E+04  5.04544E+03 -8.11484E+03  1.31279E+04 -2.10340E+04 -4.36947E+03 -8.48264E+03 -3.35242E+04
  2.22236E+04 -4.33119E+04  4.77242E+04 -1.94314E+04  4.46653E+04  1.97798E+04  1.55825E+04  4.41312E+04
 -1.57671E+04  3.32197E+04 -2.53157E+04  1.91726E+03 -9.91396E+03 -2.77161E+04  2.12278E+04 -3.37161E+04
  4.11133E+04 -8.72055E+03  3.54086E+04  2.38734E+04  1.79785E+04  4.63861E+04 -8.43027E+03  5.01982E+04
 -3.15277E+04  3.36136E+04 -4.20481E+04  9.50186E+03 -4.25466E+04 -1.69968E+04 -2.33700E+04 -3.77980E+04
  7.09892E+03 -3.75784E+04  3.11619E+04 -1.47384E+04  2.89433E+04  1.09945E+04  4.07491E+03  1.90217E+04
 -1.35343E+04  8.35922E+03 -1.02153E+04 -7.67178E+03  6.07036E+03 -1.08928E+04  1.75612E+04  6.13229E+03
  1.34318E+04  2.18524E+04 -6.22244E+03  2.52061E+04 -2.26041E+04  1.14212E+04 -2.79995E+04 -4.67398E+03
 -2.04913E+04 -1.71033E+04 -8.35872E+03 -2.03449E+04  4.17428E+03 -1.98145E+04  1.59143E+04 -1.82430E+04
  2.62887E+04 -1.29311E+04  3.25325E+04  3.00133E+03  2.38008E+04  1.99986E+04  4.34262E+03  3.63967E+04
 -1.75166E+04  3.03905E+04 -2.80453E+04  1.07054E+04 -2.11405E+04 -1.03485E+04 -4.39599E+03 -1.33339E+04
  1.54986E+03 -2.70256E+03 -4.73831E+03  6.93683E+03 -1.59568E+04  5.11454E+03 -1.64215E+04 -6.95083E+03
 -1.01865E+04 -1.90006E+04  5.15720E+03 -2.29552E+04  1.57566E+04 -1.66521E+04  1.82908E+04 -1.48883E+03
  1.17091E+04  1.33549E+04 -1.11380E+03  1.89267E+04 -1.32007E+04  1.08623E+04 -1.93774E+04 -4.33530E+03
 -1.38794E+04 -1.72368E+04 -1.94642E+03 -2.29619E+04  1.02077E+04 -1.87118E+04  1.92615E+04 -9.23162E+03
  1.77002E+04  1.12589E+02  1.30676E+04  4.38251E+03  6.67611E+03  8.24097E+02  9.99625E+03 -1.58952E+03
  1.76846E+04  2.35148E+03  1.99818E+04  1.52525E+04  1.27789E+04  3.05476E+04 -3.08208E+03  3.41435E+04
 -2.02719E+04  2.77929E+04 -3.23160E+04  1.41070E+04 -3.41627E+04 -2.46748E+03 -2.77833E+04 -1.92384E+04
 -1.21519E+04 -2.78520E+04  9.65707E+03 -2.50360E+04  2.14001E+04 -1.26750E+04  1.93947E+04  5.79269E+03
  7.24350E+03  1.45052E+04 -9.19425E+03  1.29679E+04 -1.61171E+04  2.70835E+03 -1.23843E+04 -1.02589E+04
 -3.96788E+02 -1.56433E+04  7.79327E+03 -1.18259E+04  1.05679E+04 -1.11614E+03  2.64088E+03  7.10588E+03
 -7.12913E+03  2.68575E+03 -5.88296E+03 -5.60315E+03 -3.10278E+02 -1.37457E+04  9.47721E+03 -1.45515E+04
  1.69149E+04 -7.91868E+03  1.79452E+04  3.05323E+03  1.61355E+04  1.33209E+04  7.36491E+03  2.08973E+04
 -3.59829E+03  2.23586E+04 -1.43363E+04  1.39719E+04 -1.64876E+04  3.76478E+03 -1.14833E+04 -3.46099E+03
 -5.16974E+03 -4.81746E+03 -7.35210E+02  9.09880E+02 -2.22977E+03  2.68736E+03 -5.53914E+03  3.96282E+03
 -1.11154E+04 -8.59470E+02 -1.13206E+04 -9.20344E+03 -4.47371E+03 -1.48790E+04  4.65172E+03 -1.11356E+04
  9.84832E+03 -4.83193E+03  6.72484E+03  2.95320E+03  2.41858E+02  4.53318E+03 -5.47292E+03  3.10321E+02
 -5.38313E+03 -7.57604E+03 -1.21890E+03 -1.09358E+04  6.23144E+03 -1.15099E+04  1.40220E+04 -5.89987E+03
  1.66619E+04  1.44235E+03  1.24847E+04  9.46728E+03  2.51041E+03  1.36336E+04 -7.23820E+03  1.13333E+04
 -9.33114E+03  3.44988E+03 -4.79897E+03 -2.19911E+03  1.81369E+03 -3.06061E+03  6.22980E+03 -8.19438E+02
  5.13680E+03  5.22256E+03  1.21689E+03  8.95313E+03 -6.03307E+03  8.82903E+03 -1.08907E+04  2.13138E+03
 -7.56390E+03 -5.59289E+03  1.36506E+01 -9.41750E+03  5.90060E+03 -4.82578E+03  5.79317E+03  1.92133E+03
  1.15451E+03  6.27557E+03 -5.85690E+03  7.54461E+03 -8.60899E+03  3.65858E+03 -8.64774E+03 -2.60201E+03
 -5.27279E+03 -1.02525E+04  2.33521E+03 -1.16847E+04  9.89123E+03 -7.46222E+03  1.10613E+04  1.62890E+03
  7.04299E+03  8.68230E+03 -6.51021E+02  1.10521E+04 -7.79288E+03  6.05131E+03 -8.34351E+03 -5.95019E+02
 -7.98961E+03 -7.16247E+03 -1.59778E+03 -7.99752E+03  4.26754E+03 -6.75920E+03  5.16091E+03 -2.83930E+03
  4.06137E+03  9.23076E+02 -8.45588E+02  1.71526E+03 -8.18494E+01 -1.75319E+03  1.36510E+03 -4.49787E+03
  7.29339E+03 -2.43475E+03  9.74442E+03  1.29521E+03  9.85196E+03  6.44928E+03  7.14574E+03  1.28743E+04
 -2.59797E+03  1.48776E+04 -1.30461E+04  1.13513E+04 -1.65484E+04  1.84508E+03 -1.31188E+04 -5.15342E+03
 -6.67613E+03 -1.05739E+04 -5.80329E+02 -8.85540E+03  3.58906E+03 -4.83425E+03  3.15196E+03 -3.21540E+03
  2.39638E+03 -2.10455E+03  2.94569E+03 -2.97348E+03  4.47675E+03 -2.16437E+03  5.58449E+03 -6.46618E+02
  7.24325E+03  1.86371E+03  3.06751E+03  5.67608E+03 -1.93828E+03  6.34766E+03 -7.52702E+03  4.93428E+03
 -8.86718E+03 -9.71228E+02 -5.07152E+03 -6.17460E+03 -4.66748E+02 -9.35247E+03  5.37974E+03 -9.57698E+03
  9.48713E+03 -5.38339E+03  1.16938E+04  1.23379E+03  8.57092E+03  8.07147E+03  1.45497E+03  1.03418E+04
 -4.25720E+03  9.33692E+03 -6.11200E+03  3.37875E+03 -4.33146E+03 -1.32555E+03 -1.52764E+03 -1.10488E+03
 -8.61316E+02 -1.02271E+02 -1.57267E+03  2.58268E+03 -3.87123E+03  1.79913E+03 -6.09022E+03 -5.50428E+02
 -3.88652E+03 -6.60601E+03  2.39484E+02 -8.68716E+03  5.48511E+03 -8.33799E+03  8.08201E+03 -2.28566E+03
  8.54689E+03  4.12370E+03  3.98272E+03  7.26249E+03 -1.49529E+03  8.33037E+03 -5.60298E+03  5.36246E+03
 -7.99824E+03  7.04435E+02 -6.10551E+03 -4.66049E+03 -5.36867E+02 -6.56378E+03  3.65692E+03 -4.95570E+03
  5.34672E+03 -1.95325E+03  3.90954E+03  1.32210E+03  7.49042E+02  2.77628E+03  1.25894E+03  1.04865E+03
  2.05355E+03  7.43578E+02  1.76898E+03  1.70253E+03  2.80291E+03  3.43295E+03  2.44478E+03  4.40948E+03
 -1.72429E+03  6.55167E+03 -5.65877E+03  6.91460E+03 -7.61681E+03  1.91843E+03 -8.66687E+03 -2.64808E+03
 -3.90728E+03 -7.75257E+03  1.10109E+03 -9.27430E+03  4.54871E+03 -5.52331E+03  6.65302E+03 -1.66129E+03
  5.55102E+03  3.16922E+03  1.21586E+03  4.73754E+03 -2.00233E+03  2.74647E+03 -3.07243E+03 -3.34433E+02
 -1.57462E+03 -3.63514E+03  1.96107E+03 -3.39376E+03  3.58946E+03 -1.78093E+03  3.30846E+03  9.12091E+02
  1.72544E+03  1.35566E+03  1.14627E+03  5.19920E+02  1.83960E+01  1.10523E+03  1.56715E+03 -2.76250E+02
  8.70664E+02 -4.02295E+02  3.71784E+03  1.18846E+03  1.51464E+03  4.85986E+03 -8.96390E+02  6.18387E+03
 -3.45247E+03  3.16351E+03 -5.02465E+03  9.27938E+02 -4.72198E+03 -1.80377E+03 -1.21721E+03 -2.85723E+03
  5.75201E+02 -2.89251E+03  2.02025E+03 -1.51750E+03  1.41605E+03  1.76510E+03 -9.34796E+02  2.62525E+03
 -3.63243E+03  1.37701E+03 -3.65078E+03 -2.39280E+03 -1.68113E+03 -4.81970E+03  6.64173E+02 -4.33827E+03
  1.94144E+03 -2.05445E+03  2.75161E+03 -2.74605E+02  2.87448E+03  6.33231E+02  4.28604E+02  2.53459E+03
 -1.27365E+03  8.49378E+02 -1.86101E+03 -1.38991E+03  5.94065E+02 -2.72342E+03  4.12023E+03 -2.70519E+03
  4.23484E+03  2.10440E+02  5.20948E+03  2.82456E+03  1.92492E+03  4.91114E+03 -1.73116E+03  4.63966E+03
 -4.34541E+03  2.00240E+03 -4.06690E+03 -7.49904E+02 -2.36214E+03 -3.47469E+03  7.83477E+02 -2.57574E+03
  3.03877E+03 -1.69230E+03  2.43767E+03  1.49709E+03  1.05083E+03  2.89010E+03 -4.53848E+01  2.23529E+03
 -1.17016E+03  1.52407E+03 -9.99813E+02  8.06652E+02 -4.54640E+02  8.47622E+02 -1.16165E+03  1.28553E+03
 -1.65804E+03  2.36485E+03 -3.66604E+03  1.74157E+03 -4.83446E+03  4.62643E+02 -5.83305E+03 -2.71685E+03
 -2.70116E+03 -6.49875E+03  1.09954E+03 -7.57823E+03  3.97261E+03 -6.02909E+03  7.17907E+03 -2.39753E+03
  6.69525E+03  1.06836E+03  3.57068E+03  4.55765E+03 -1.18948E+01  4.77543E+03 -1.64474E+03  3.49039E+03
 -2.52086E+03  1.52663E+03 -1.60857E+03 -5.11905E+02 -2.86906E+02 -9.25905E+01 -5.70950E+02 -7.84924E+01
 -1.46521E+03  3.97996E+01 -1.39033E+03 -2.90894E+02 -2.35118E+01 -1.36102E+03 -1.39709E+02 -1.54415E+03
  2.64983E+03 -1.96138E+03  2.42734E+03  1.33507E+02  3.40338E+03  2.50447E+03  5.28337E+02  4.65164E+03
 -2.68378E+03  5.55242E+03 -5.02004E+03  3.13006E+03 -5.26674E+03 -6.13314E+02 -4.28812E+03 -3.66065E+03
 -1.69052E+03 -4.59544E+03  1.28481E+03 -3.98988E+03  2.69699E+03 -2.18362E+03  2.78503E+03  1.49818E+02
  1.82233E+03  1.28276E+03  3.41193E+02  1.31149E+03 -8.50502E+02 -5.48370E+01 -1.40720E+02 -8.91975E+02
  1.80526E+03 -2.79854E+02  1.42776E+03  8.62538E+02  1.04215E+03  1.50712E+03  5.68995E+02  1.84438E+03
 -1.82365E+03  2.12712E+03 -2.59623E+03  1.85499E+02 -2.86836E+03 -1.86516E+03 -1.10955E+02 -3.86198E+03
  1.77969E+03 -3.02286E+03  2.82916E+03 -7.59011E+02  3.02782E+03  3.08276E+02  2.06224E+03  2.70174E+03
  7.11491E+02  2.83721E+03 -1.06063E+03  2.19890E+03 -1.81253E+03  1.66054E+03 -1.24686E+03 -3.55749E+01
 -6.48497E+02 -2.33634E+02 -6.87347E+02  2.55084E+02 -1.62433E+03  3.81088E+02 -2.35861E+03 -9.32712E+02
 -2.59062E+03 -8.38254E+02 -1.06779E+03 -2.79232E+03  1.66507E+03 -3.48368E+03  2.51091E+03 -1.29032E+03
  2.77392E+03  9.23301E+02  1.04187E+03  1.98663E+03 -5.28162E+02  2.83608E+03 -2.11150E+03  2.11397E+03
